I,II,III,aVR,aVL,aVF,V1,V2,V3,V4,V5,V6,
-48,126,175,-39,-112,151,-39,-117,-146,-136,-126,-58
-43,131,175,-43,-109,153,-34,-112,-141,-136,-117,-53
-39,136,175,-48,-107,156,-29,-107,-136,-136,-107,-48
-39,136,175,-48,-107,156,-29,-107,-136,-136,-97,-48
-39,136,175,-48,-107,156,-29,-107,-136,-136,-87,-48
-39,136,175,-48,-107,156,-34,-102,-136,-136,-63,-48
-39,136,175,-48,-107,156,-39,-97,-136,-136,-39,-48
-39,131,170,-46,-104,151,-39,-97,-136,-141,-24,-48
-39,126,165,-43,-102,146,-39,-97,-136,-146,-9,-48
-43,126,170,-41,-107,148,-39,-97,-136,-146,39,-48
-48,126,175,-39,-112,151,-39,-97,-136,-146,87,-48
-48,131,180,-41,-114,156,-34,-92,-131,-141,136,-48
-48,136,185,-43,-117,161,-29,-87,-126,-136,185,-48
-48,136,185,-43,-117,161,-29,-87,-122,-136,175,-43
-48,136,185,-43,-117,161,-29,-87,-117,-136,165,-39
-53,131,185,-39,-119,158,-29,-92,-117,-136,151,-39
-58,126,185,-34,-122,156,-29,-97,-117,-136,136,-39
-58,126,185,-34,-122,156,-29,-97,-122,-136,126,-39
-58,126,185,-34,-122,156,-29,-97,-126,-136,117,-39
-58,126,185,-34,-122,156,-24,-92,-126,-136,102,-39
-58,126,185,-34,-122,156,-19,-87,-126,-136,87,-39
-58,122,180,-31,-119,151,-19,-87,-126,-136,73,-39
-58,117,175,-29,-117,146,-19,-87,-126,-136,58,-39
-58,117,175,-29,-117,146,-19,-87,-126,-136,53,-39
-58,117,175,-29,-117,146,-19,-87,-126,-136,48,-39
-53,117,170,-31,-112,143,-19,-87,-126,-136,34,-39
-48,117,165,-34,-107,141,-19,-87,-126,-136,19,-39
-48,112,161,-31,-104,136,-19,-87,-126,-136,9,-39
-48,107,156,-29,-102,131,-19,-87,-126,-136,0,-39
-48,102,151,-26,-100,126,-19,-92,-126,-136,-4,-39
-48,97,146,-24,-97,122,-19,-97,-126,-136,-9,-39
-48,97,146,-24,-97,122,-19,-97,-126,-141,-14,-39
-48,97,146,-24,-97,122,-19,-97,-126,-146,-19,-39
-48,97,146,-24,-97,122,-19,-97,-131,-146,-29,-39
-48,97,146,-24,-97,122,-19,-97,-136,-146,-39,-39
-48,92,141,-21,-95,117,-19,-102,-136,-151,-48,-39
-48,87,136,-19,-92,112,-19,-107,-136,-156,-58,-39
-53,87,141,-17,-97,114,-19,-107,-141,-156,-63,-39
-58,87,146,-14,-102,117,-19,-107,-146,-156,-68,-39
-63,87,151,-12,-107,119,-19,-107,-146,-156,-68,-43
-68,87,156,-9,-112,122,-19,-107,-146,-156,-68,-48
-68,82,151,-7,-109,117,-19,-112,-151,-161,-73,-48
-68,78,146,-4,-107,112,-19,-117,-156,-165,-78,-48
-63,78,141,-7,-102,109,-19,-117,-156,-165,-82,-43
-58,78,136,-9,-97,107,-19,-117,-156,-165,-87,-39
-58,78,136,-9,-97,107,-19,-112,-156,-165,-87,-34
-58,78,136,-9,-97,107,-19,-107,-156,-165,-87,-29
-58,78,136,-9,-97,107,-19,-102,-151,-161,-87,-14
-58,78,136,-9,-97,107,-19,-97,-146,-156,-87,0
-68,78,146,-4,-107,112,-19,-97,-146,-156,-87,0
-78,78,156,0,-117,117,-19,-97,-146,-156,-87,0
-78,73,151,2,-114,112,-19,-97,-151,-161,-97,14
-78,68,146,4,-112,107,-19,-97,-156,-165,-107,29
-73,68,141,2,-107,104,-19,-97,-156,-165,-107,48
-68,68,136,0,-102,102,-19,-97,-156,-165,-107,68
-68,68,136,0,-102,102,-19,-97,-156,-165,-107,122
-68,68,136,0,-102,102,-19,-97,-156,-165,-107,175
-68,63,131,2,-100,97,-19,-102,-156,-170,-117,326
-68,58,126,4,-97,92,-19,-107,-156,-175,-126,478
-68,58,126,4,-97,92,-14,-107,-156,-175,-131,673
-68,58,126,4,-97,92,-9,-107,-156,-175,-136,868
-68,63,131,2,-100,97,-9,-107,-156,-175,-141,946
-68,68,136,0,-102,102,-9,-107,-156,-175,-146,1024
-68,68,136,0,-102,102,-9,-107,-156,-175,-146,688
-68,68,136,0,-102,102,-9,-107,-156,-175,-146,351
-68,68,136,0,-102,102,-9,-107,-156,-165,-141,268
-68,68,136,0,-102,102,-9,-107,-156,-156,-136,185
-68,58,126,4,-97,92,-9,-107,-156,-156,-136,126
-68,48,117,9,-92,82,-9,-107,-156,-156,-136,68
-68,48,117,9,-92,82,-9,-107,-156,-156,-136,68
-68,48,117,9,-92,82,-9,-107,-156,-156,-136,68
-68,48,117,9,-92,82,-9,-117,-161,-161,-136,39
-68,48,117,9,-92,82,-9,-126,-165,-165,-136,9
-68,48,117,9,-92,82,-9,-126,-165,-165,-136,9
-68,48,117,9,-92,82,-9,-126,-165,-165,-136,9
-68,48,117,9,-92,82,-9,-122,-161,-161,-136,0
-68,48,117,9,-92,82,-9,-117,-156,-156,-136,-9
-68,43,112,12,-90,78,-9,-117,-156,-156,-136,-19
-68,39,107,14,-87,73,-9,-117,-156,-156,-136,-29
-73,34,107,19,-90,70,-9,-107,-156,-156,-136,-29
-78,29,107,24,-92,68,-9,-97,-156,-156,-136,-29
-78,29,107,24,-92,68,-9,-97,-151,-151,-131,-29
-78,29,107,24,-92,68,-9,-97,-146,-146,-126,-29
-78,29,107,24,-92,68,-9,-97,-146,-146,-126,-34
-78,29,107,24,-92,68,-9,-97,-146,-146,-126,-39
-78,29,107,24,-92,68,-9,-92,-141,-146,-131,-39
-78,29,107,24,-92,68,-9,-87,-136,-146,-136,-39
-73,34,107,19,-90,70,-9,-87,-136,-146,-136,-39
-68,39,107,14,-87,73,-9,-87,-136,-146,-136,-39
-63,43,107,9,-85,75,4,-73,-122,-126,-122,-34
-58,48,107,4,-82,78,19,-58,-107,-107,-107,-29
-58,48,107,4,-82,78,24,-58,-97,-102,-107,-29
-58,48,107,4,-82,78,29,-58,-87,-97,-107,-29
-58,39,97,9,-78,68,34,-58,-87,-97,-107,-29
-58,29,87,14,-73,58,39,-58,-87,-97,-107,-29
-39,34,73,2,-56,53,39,-39,-73,-87,-92,-29
-19,39,58,-9,-39,48,34,-19,-63,-73,-78,-24
0,43,43,-21,-21,43,34,-4,-53,-63,-68,-19
19,48,29,-34,-4,39,34,4,-43,-53,-68,-4
34,48,14,-41,9,31,19,9,-39,-48,-53,-4
48,43,-4,-46,26,19,19,14,-39,-48,-43,0
48,39,-9,-43,29,14,14,9,-29,-39,-39,4
48,48,0,-48,24,24,0,-4,-29,-39,-39,0
48,53,4,-51,21,29,-24,-24,-48,-48,-48,0
34,53,19,-43,7,36,-53,-68,-92,-78,-78,-14
19,43,24,-31,-2,34,-53,-97,-131,-112,-102,-24
19,29,9,-24,4,19,-48,-92,-131,-117,-107,-39
19,14,-4,-17,12,4,-48,-92,-131,-122,-112,-39
19,14,-4,-17,12,4,-43,-92,-136,-122,-112,-39
24,14,-9,-19,17,2,-43,-97,-151,-126,-117,-48
24,9,-14,-17,19,-2,-43,-102,-156,-131,-122,-48
19,4,-14,-12,17,-4,-43,-102,-151,-131,-126,-48
0,0,0,0,0,0,-29,-97,-151,-131,-126,-48
-14,-9,4,12,-9,-2,-19,-87,-141,-131,-126,-48
-29,-9,19,19,-24,4,-9,-87,-141,-136,-126,-48
-53,-9,43,31,-48,17,0,-92,-141,-146,-141,-63
-73,-19,53,46,-63,17,0,-92,-151,-156,-156,-78
-73,-29,43,51,-58,7,0,-107,-161,-165,-165,-82
-78,-29,48,53,-63,9,0,-112,-161,-165,-165,-82
-78,-29,48,53,-63,9,0,-117,-165,-165,-161,-82
-78,-24,53,51,-65,14,0,-117,-165,-161,-161,-82
-78,-29,48,53,-63,9,4,-117,-165,-161,-161,-78
-82,-34,48,58,-65,7,4,-122,-165,-165,-161,-78
-82,-34,48,58,-65,7,4,-107,-156,-156,-156,-73
-82,-34,48,58,-65,7,4,-92,-141,-146,-151,-68
-82,-39,43,61,-63,2,9,-92,-136,-141,-151,-68
-87,-48,39,68,-63,-4,14,-87,-131,-141,-151,-68
-97,-48,48,73,-73,0,14,-92,-131,-146,-151,-68
-102,-39,63,70,-82,12,14,-97,-131,-151,-146,-68
-102,-39,63,70,-82,12,14,-97,-131,-146,-146,-63
-102,-39,63,70,-82,12,14,-92,-131,-141,-146,-63
-97,-39,58,68,-78,9,14,-92,-131,-141,-146,-63
-92,-53,39,73,-65,-7,14,-92,-126,-136,-146,-68
-82,-63,19,73,-51,-21,14,-73,-112,-136,-151,-78
-73,-63,9,68,-41,-26,4,-58,-78,-112,-136,-78
-58,-68,-9,63,-24,-39,-4,-29,-34,-73,-117,-73
0,-53,-53,26,26,-53,-14,73,107,73,4,-19
156,24,-131,-90,143,-53,-68,156,370,351,234,107
346,131,-214,-239,280,-41,-151,165,595,663,531,268
585,253,-331,-419,458,-39,-278,117,771,1010,897,483
790,429,-361,-610,575,34,-414,34,902,1337,1288,751
854,668,-185,-761,519,241,-649,-322,814,1522,1625,1068
741,717,-24,-729,383,346,-810,-790,331,1132,1346,1005
361,458,97,-409,131,278,-839,-1293,-756,-170,151,385
29,331,302,-180,-136,317,-824,-1605,-1503,-1005,-595,29
-117,312,429,-97,-273,370,-824,-1668,-1717,-1259,-771,-24
-151,336,488,-92,-319,412,-800,-1590,-1634,-1220,-756,-24
-161,307,468,-73,-314,387,-736,-1415,-1434,-1098,-712,-53
-165,312,478,-73,-322,395,-624,-1146,-1141,-883,-575,-14
-141,273,414,-65,-278,344,-488,-868,-858,-663,-444,-9
-126,224,351,-48,-239,287,-375,-639,-629,-488,-341,-4
-97,156,253,-29,-175,204,-283,-488,-488,-414,-292,-19
-97,102,200,-2,-148,151,-175,-346,-370,-341,-248,-34
-82,68,151,7,-117,109,-102,-229,-239,-224,-185,-24
-73,34,107,19,-90,70,-48,-126,-131,-122,-122,-9
-58,4,63,26,-61,34,-14,-78,-92,-97,-102,0
-53,-19,34,36,-43,7,14,-48,-68,-78,-92,0
-58,-34,24,46,-41,-4,29,-19,-48,-58,-82,-9
-63,-34,29,48,-46,-2,29,-14,-24,-48,-78,-9
-63,-34,29,48,-46,-2,29,-9,-19,-39,-68,-4
-58,-39,19,48,-39,-9,39,4,-14,-34,-63,-4
-58,-48,9,53,-34,-19,43,14,-4,-29,-53,-9
-58,-48,9,53,-34,-19,53,24,9,-14,-48,-14
-58,-53,4,56,-31,-24,53,29,14,-9,-43,-14
-53,-58,-4,56,-24,-31,58,34,24,-4,-43,-14
-53,-53,0,53,-26,-26,63,43,29,0,-34,-4
-53,-53,0,53,-26,-26,63,48,39,4,-24,0
-43,-63,-19,53,-12,-41,68,48,53,9,-19,0
-43,-68,-24,56,-9,-46,68,53,68,19,-14,4
-43,-68,-24,56,-9,-46,73,58,68,19,-14,4
-43,-73,-29,58,-7,-51,78,63,58,24,-14,4
-43,-63,-19,53,-12,-41,78,68,68,29,-9,4
-43,-63,-19,53,-12,-41,82,78,73,34,-9,4
-43,-63,-19,53,-12,-41,82,87,87,39,4,4
-39,-68,-29,53,-4,-48,82,92,102,43,4,9
-39,-68,-29,53,-4,-48,78,102,112,58,14,14
-39,-63,-24,51,-7,-43,78,112,126,68,24,24
-39,-63,-24,51,-7,-43,78,122,126,78,29,24
-34,-63,-29,48,-2,-46,78,131,131,78,29,29
-24,-68,-43,46,9,-56,87,141,151,87,39,24
-14,-63,-48,39,17,-56,92,151,161,102,53,34
-9,-58,-48,34,19,-53,92,156,165,112,58,39
-4,-58,-53,31,24,-56,97,156,170,122,63,39
0,-48,-48,24,24,-48,92,165,180,131,68,39
4,-43,-48,19,26,-46,92,175,195,141,73,43
14,-39,-53,12,34,-46,92,190,209,156,87,53
19,-24,-43,2,31,-34,92,200,224,165,97,63
34,-24,-58,-4,46,-41,92,214,244,175,112,68
48,-19,-68,-14,58,-43,92,234,263,190,126,73
53,-19,-73,-17,63,-46,92,253,287,219,141,78
63,-14,-78,-24,70,-46,97,273,322,239,156,87
68,-4,-73,-31,70,-39,97,287,341,258,180,102
63,0,-63,-31,63,-31,102,307,366,273,190,112
78,9,-68,-43,73,-29,102,331,385,302,204,122
87,24,-63,-56,75,-19,102,356,414,326,214,131
102,34,-68,-68,85,-17,107,380,448,361,253,146
117,43,-73,-80,95,-14,107,405,473,385,287,161
126,43,-82,-85,104,-19,107,424,507,409,297,175
136,53,-82,-95,109,-14,107,434,527,434,312,195
156,92,-63,-124,109,14,107,453,551,458,331,219
175,117,-58,-146,117,29,107,468,575,478,341,229
190,141,-48,-165,119,46,107,483,600,497,370,244
204,161,-43,-183,124,58,102,497,619,522,395,268
209,165,-43,-187,126,61,102,512,629,541,409,263
214,175,-39,-195,126,68,102,517,644,551,419,268
219,180,-39,-200,129,70,102,517,653,561,439,287
224,195,-29,-209,126,82,107,512,658,570,453,307
234,209,-24,-222,129,92,97,512,673,575,458,307
239,214,-24,-226,131,95,87,502,673,580,458,317
239,214,-24,-226,131,95,82,478,663,580,463,322
239,209,-29,-224,134,90,73,453,644,575,463,322
229,204,-24,-217,126,90,63,419,629,561,458,317
224,204,-19,-214,122,92,58,385,600,531,439,312
214,195,-19,-204,117,87,43,346,556,488,419,297
195,175,-19,-185,107,78,39,307,502,453,390,278
185,156,-29,-170,107,63,29,268,453,419,356,268
175,136,-39,-156,107,48,24,229,409,380,322,244
146,117,-29,-131,87,43,24,180,356,326,273,214
131,87,-43,-109,87,21,24,136,297,273,234,185
102,58,-43,-80,73,7,14,102,248,229,200,161
82,24,-58,-53,70,-17,9,73,200,190,170,136
68,0,-68,-34,68,-34,19,43,161,146,131,107
58,-19,-78,-19,68,-48,29,19,117,112,97,78
29,-43,-73,7,51,-58,29,4,87,87,73,63
4,-68,-73,31,39,-70,29,-14,68,68,48,43
-4,-92,-87,48,41,-90,29,-14,53,48,43,34
-9,-102,-92,56,41,-97,29,-14,34,39,34,29
-14,-117,-102,65,43,-109,29,-24,19,19,14,14
-19,-122,-102,70,41,-112,29,-24,14,9,9,9
-29,-131,-102,80,36,-117,34,-29,4,0,-4,0
-29,-136,-107,82,39,-122,34,-39,-4,-14,-24,-4
-34,-151,-117,92,41,-134,34,-43,-14,-29,-34,-9
-34,-151,-117,92,41,-134,34,-48,-19,-39,-43,-14
-34,-151,-117,92,41,-134,39,-48,-29,-43,-53,-24
-34,-151,-117,92,41,-134,39,-53,-48,-48,-58,-29
-43,-161,-117,102,36,-139,39,-53,-48,-53,-58,-29
-48,-161,-112,104,31,-136,39,-48,-48,-58,-58,-29
-48,-165,-117,107,34,-141,39,-48,-48,-58,-58,-29
-53,-170,-117,112,31,-143,39,-48,-48,-58,-58,-29
-48,-170,-122,109,36,-146,39,-43,-48,-53,-53,-34
-43,-170,-126,107,41,-148,39,-43,-48,-48,-53,-34
-43,-170,-126,107,41,-148,39,-53,-48,-53,-53,-34
-43,-165,-122,104,39,-143,43,-58,-48,-53,-58,-39
-43,-161,-117,102,36,-139,43,-58,-43,-53,-58,-34
-43,-156,-112,100,34,-134,43,-53,-39,-53,-63,-29
-43,-156,-112,100,34,-134,48,-43,-29,-53,-68,-34
-43,-156,-112,100,34,-134,53,-34,-19,-53,-73,-39
-53,-165,-112,109,29,-139,53,-29,-29,-53,-73,-39
-58,-170,-112,114,26,-141,53,-29,-43,-58,-73,-39
-58,-170,-112,114,26,-141,53,-29,-43,-58,-68,-34
-58,-175,-117,117,29,-146,58,-29,-39,-53,-63,-29
-58,-170,-112,114,26,-141,58,-29,-24,-53,-63,-29
-58,-165,-107,112,24,-136,58,-29,-9,-58,-68,-29
-58,-156,-97,107,19,-126,53,-24,-24,-58,-68,-29
-58,-151,-92,104,17,-122,53,-24,-39,-58,-63,-39
-48,-156,-107,102,29,-131,53,-9,-19,-39,-48,-39
-34,-161,-126,97,46,-143,53,4,0,-19,-34,-39
-34,-165,-131,100,48,-148,53,-14,-19,-34,-48,-39
-34,-165,-131,100,48,-148,53,-29,-39,-48,-58,-39
-43,-165,-122,104,39,-143,53,-29,-39,-48,-58,-29
-53,-165,-112,109,29,-139,53,-34,-34,-48,-58,-19
-58,-170,-112,114,26,-141,53,-34,-29,-48,-58,-19
-58,-170,-112,114,26,-141,53,-34,-29,-53,-58,-19
-53,-165,-112,109,29,-139,53,-34,-19,-58,-58,-19
-48,-161,-112,104,31,-136,53,-29,-9,-58,-58,-24
-43,-165,-122,104,39,-143,48,-29,-24,-58,-63,-34
-39,-170,-131,104,46,-151,43,-29,-34,-58,-68,-48
-39,-170,-131,104,46,-151,48,-34,-34,-58,-73,-48
-39,-170,-131,104,46,-151,48,-34,-34,-63,-73,-48
-48,-180,-131,114,41,-156,53,-34,-39,-63,-73,-43
-63,-185,-122,124,29,-153,58,-34,-43,-63,-73,-39
-63,-185,-122,124,29,-153,53,-39,-43,-63,-73,-39
-63,-185,-122,124,29,-153,53,-39,-48,-68,-73,-39
-58,-190,-131,124,36,-161,48,-39,-48,-68,-73,-39
-53,-190,-136,122,41,-163,43,-39,-48,-68,-68,-39
-53,-185,-131,119,39,-158,43,-39,-48,-68,-68,-43
-58,-185,-126,122,34,-156,43,-39,-48,-68,-68,-48
-53,-185,-131,119,39,-158,48,-39,-48,-68,-68,-48
-43,-185,-141,114,48,-163,53,-43,-58,-73,-73,-53
-43,-195,-151,119,53,-173,53,-48,-58,-73,-78,-58
-43,-200,-156,122,56,-178,53,-48,-53,-73,-78,-58
-48,-200,-151,124,51,-175,48,-48,-53,-73,-78,-53
-53,-200,-146,126,46,-173,43,-48,-53,-78,-78,-48
-53,-200,-146,126,46,-173,43,-43,-63,-82,-78,-43
-53,-200,-146,126,46,-173,39,-43,-68,-92,-78,-43
-58,-195,-136,126,39,-165,39,-43,-68,-92,-82,-53
-58,-195,-136,126,39,-165,39,-43,-68,-92,-87,-63
-58,-195,-136,126,39,-165,43,-48,-68,-92,-87,-68
-58,-195,-136,126,39,-165,48,-53,-68,-92,-87,-68
-68,-204,-136,136,34,-170,48,-53,-63,-87,-87,-73
-78,-214,-136,146,29,-175,53,-53,-63,-82,-87,-73
-58,-200,-141,129,41,-170,48,-43,-63,-82,-87,-63
-39,-190,-151,114,56,-170,39,-39,-58,-82,-92,-58
-48,-190,-141,119,46,-165,39,-39,-73,-87,-92,-58
-58,-185,-126,122,34,-156,39,-39,-87,-87,-92,-58
-58,-190,-131,124,36,-161,43,-39,-68,-82,-82,-53
-58,-195,-136,126,39,-165,48,-39,-53,-78,-68,-48
-58,-204,-146,131,43,-175,53,-34,-53,-73,-63,-48
-58,-209,-151,134,46,-180,58,-29,-53,-73,-63,-43
-58,-209,-151,134,46,-180,58,-29,-53,-73,-63,-43
-58,-200,-141,129,41,-170,58,-29,-48,-73,-63,-48
-58,-200,-141,129,41,-170,58,-29,-53,-82,-78,-58
-58,-204,-146,131,43,-175,58,-29,-58,-97,-97,-68
-58,-204,-146,131,43,-175,58,-34,-58,-97,-97,-68
-58,-204,-146,131,43,-175,58,-34,-63,-97,-92,-73
-48,-204,-156,126,53,-180,48,-29,-63,-92,-87,-68
-39,-204,-165,122,63,-185,39,-19,-63,-87,-82,-63
-53,-204,-151,129,48,-178,48,-19,-63,-87,-82,-53
-68,-204,-136,136,34,-170,58,-19,-68,-87,-82,-48
-68,-209,-141,139,36,-175,63,-24,-68,-87,-82,-48
-68,-209,-141,139,36,-175,63,-24,-68,-87,-78,-48
-63,-209,-146,136,41,-178,63,-19,-68,-82,-73,-43
-58,-209,-151,134,46,-180,63,-19,-63,-78,-63,-43
-58,-209,-151,134,46,-180,63,-14,-63,-78,-63,-39
-53,-209,-156,131,51,-183,63,-9,-53,-73,-58,-39
-53,-204,-151,129,48,-178,63,0,-53,-68,-58,-34
-43,-195,-151,119,53,-173,73,4,-39,-63,-48,-34
-34,-180,-146,107,56,-163,82,9,-24,-53,-53,-24
-29,-165,-136,97,53,-151,97,19,-9,-48,-58,-19
-29,-165,-136,97,53,-151,102,24,-9,-48,-48,-19
-29,-165,-136,97,53,-151,107,29,-9,-48,-39,-19
-19,-165,-146,92,63,-156,107,29,-9,-43,-39,-19
-9,-170,-161,90,75,-165,102,39,0,-39,-34,-19
0,-175,-175,87,87,-175,102,48,4,-34,-29,-19
19,-175,-195,78,107,-185,92,73,14,-24,-19,-14
29,-175,-204,73,117,-190,92,82,24,-14,-19,0
34,-175,-209,70,122,-192,78,92,34,-4,-4,4
43,-180,-224,68,134,-202,78,102,34,0,4,9
39,-180,-219,70,129,-200,73,102,39,9,9,19
39,-170,-209,65,124,-190,58,92,39,9,9,24
39,-170,-209,65,124,-190,34,73,19,-4,0,29
29,-175,-204,73,117,-190,4,34,-14,-34,-24,14
19,-190,-209,85,114,-200,0,4,-48,-63,-43,4
19,-204,-224,92,122,-214,0,4,-53,-68,-48,-14
19,-219,-239,100,129,-229,0,4,-53,-73,-53,-19
19,-224,-244,102,131,-234,4,4,-63,-78,-58,-19
24,-229,-253,102,139,-241,4,4,-78,-87,-68,-29
19,-234,-253,107,136,-244,9,4,-82,-92,-73,-29
9,-239,-248,114,129,-244,14,4,-82,-92,-78,-34
-9,-234,-224,122,107,-229,29,0,-87,-92,-82,-39
-24,-224,-200,124,87,-212,39,0,-82,-92,-87,-39
-39,-214,-175,126,68,-195,48,0,-82,-97,-87,-39
-58,-214,-156,136,48,-185,58,-4,-82,-102,-97,-48
-73,-224,-151,148,39,-187,58,9,-82,-102,-102,-58
-73,-234,-161,153,43,-197,58,14,-82,-107,-107,-63
-78,-229,-151,153,36,-190,58,19,-82,-107,-107,-53
-78,-224,-146,151,34,-185,58,24,-82,-107,-102,-43
-78,-219,-141,148,31,-180,53,29,-78,-102,-102,-43
-78,-219,-141,148,31,-180,53,29,-78,-102,-102,-39
-82,-219,-136,151,26,-178,53,24,-78,-107,-102,-39
-82,-219,-136,151,26,-178,53,24,-82,-107,-102,-39
-82,-219,-136,151,26,-178,58,19,-82,-107,-107,-43
-82,-219,-136,151,26,-178,63,14,-78,-102,-112,-48
-82,-224,-141,153,29,-183,63,19,-73,-102,-112,-48
-78,-224,-146,151,34,-185,63,19,-73,-102,-112,-48
-73,-214,-141,143,34,-178,63,19,-73,-107,-107,-48
-73,-214,-141,143,34,-178,63,19,-73,-107,-107,-43
-73,-214,-141,143,34,-178,58,24,-73,-102,-107,-43
-73,-214,-141,143,34,-178,53,24,-73,-102,-107,-43
-73,-224,-151,148,39,-187,53,24,-68,-92,-102,-48
-63,-229,-165,146,51,-197,53,43,-48,-82,-97,-58
-34,-219,-185,126,75,-202,39,68,4,-34,-58,-43
9,-204,-214,97,112,-209,19,97,82,53,9,-4
107,-180,-287,36,197,-234,-14,165,234,234,180,82
268,-92,-361,-87,314,-226,-87,200,448,517,458,248
463,43,-419,-253,441,-187,-200,156,634,829,785,444
668,204,-463,-436,566,-129,-351,29,727,1112,1127,688
746,370,-375,-558,561,-2,-448,-126,727,1293,1395,912
683,531,-151,-607,417,190,-605,-468,473,1195,1415,1044
439,546,107,-492,165,326,-697,-897,-107,614,927,868
53,346,292,-200,-119,319,-692,-1312,-1015,-531,-146,297
-175,268,444,-46,-309,356,-663,-1493,-1522,-1122,-692,24
-248,253,502,-2,-375,378,-658,-1493,-1586,-1205,-736,14
-239,278,517,-19,-378,397,-634,-1376,-1429,-1093,-678,14
-219,234,453,-7,-336,344,-580,-1180,-1229,-956,-614,-14
-204,209,414,-2,-309,312,-478,-912,-971,-756,-478,4
-170,141,312,14,-241,226,-361,-668,-736,-585,-380,-9
-146,78,224,34,-185,151,-273,-473,-527,-434,-297,-4
-107,24,131,41,-119,78,-200,-341,-390,-341,-239,-4
-97,-14,82,56,-90,34,-107,-219,-283,-244,-180,4
-82,-48,34,65,-58,-7,-48,-122,-170,-146,-117,24
-68,-82,-14,75,-26,-48,-9,-39,-73,-73,-58,29
-48,-102,-53,75,2,-78,24,9,-34,-58,-43,29
-43,-117,-73,80,14,-95,48,24,-19,-39,-39,29
-43,-131,-87,87,21,-109,58,39,-9,-19,-34,19
-43,-131,-87,87,21,-109,58,43,14,-19,-29,19
-43,-131,-87,87,21,-109,58,43,19,-19,-19,24
-43,-136,-92,90,24,-114,68,53,29,-4,-14,24
-48,-146,-97,97,24,-122,68,63,43,9,-4,29
-48,-146,-97,97,24,-122,68,82,58,24,0,34
-48,-146,-97,97,24,-122,63,97,63,29,4,34
-34,-146,-112,90,39,-129,68,92,68,29,4,34
-24,-141,-117,82,46,-129,73,92,68,29,9,39
-24,-136,-112,80,43,-124,73,97,78,34,14,39
-14,-136,-122,75,53,-129,78,97,82,39,19,39
-14,-136,-122,75,53,-129,87,102,92,53,34,48
-14,-131,-117,73,51,-124,97,107,107,63,48,53
-14,-141,-126,78,56,-134,97,112,107,73,53,58
-14,-141,-126,78,56,-134,97,112,117,78,58,68
-4,-141,-136,73,65,-139,102,112,117,82,58,73
9,-136,-146,63,78,-141,102,117,122,87,73,73
4,-136,-141,65,73,-139,102,122,131,92,73,73
-9,-136,-126,73,58,-131,102,131,141,107,82,73
4,-122,-126,58,65,-124,102,136,156,112,87,78
19,-112,-131,46,75,-122,97,131,156,117,87,73
9,-112,-122,51,65,-117,97,131,161,117,87,78
0,-112,-112,56,56,-112,97,141,180,126,97,78
4,-102,-107,48,56,-104,92,151,190,141,112,92
9,-97,-107,43,58,-102,92,161,200,151,117,97
19,-97,-117,39,68,-107,97,170,209,161,122,97
29,-87,-117,29,73,-102,97,185,224,170,131,102
34,-87,-122,26,78,-104,102,195,239,180,141,112
43,-87,-131,21,87,-109,102,209,248,200,156,122
48,-73,-122,12,85,-97,102,219,263,209,161,131
53,-73,-126,9,90,-100,102,229,283,214,170,136
68,-63,-131,-2,100,-97,102,244,302,229,180,136
82,-53,-136,-14,109,-95,102,258,317,253,185,136
92,-43,-136,-24,114,-90,107,273,341,268,195,146
102,-29,-131,-36,117,-80,107,287,361,287,219,161
97,-19,-117,-39,107,-68,112,302,380,297,229,170
107,-9,-117,-48,112,-63,112,317,395,322,253,185
117,4,-112,-61,114,-53,112,336,424,346,273,200
126,14,-112,-70,119,-48,117,351,453,375,297,214
136,19,-117,-78,126,-48,112,375,478,395,317,229
146,29,-117,-87,131,-43,107,405,517,419,336,244
156,53,-102,-104,129,-24,107,414,536,444,366,263
165,73,-92,-119,129,-9,107,429,561,468,390,283
175,78,-97,-126,136,-9,107,439,585,488,400,287
185,97,-87,-141,136,4,107,448,610,507,424,302
195,112,-82,-153,139,14,102,458,629,531,444,326
200,117,-82,-158,141,17,102,468,639,551,458,331
204,126,-78,-165,141,24,102,463,649,561,463,346
209,136,-73,-173,141,31,97,458,653,570,473,356
214,156,-58,-185,136,48,102,453,658,575,483,366
219,175,-43,-197,131,65,97,444,658,570,488,366
214,185,-29,-200,122,78,87,419,639,566,483,370
209,190,-19,-200,114,85,82,400,624,556,478,370
204,185,-19,-195,112,82,68,380,600,546,473,370
190,175,-14,-183,102,80,53,346,575,531,463,366
185,175,-9,-180,97,82,48,312,541,502,434,361
175,165,-9,-170,92,78,34,268,497,458,409,346
151,146,-4,-148,78,70,34,229,444,424,380,326
136,126,-9,-131,73,58,29,200,395,385,346,312
126,107,-19,-117,73,43,24,170,351,341,312,283
107,92,-14,-100,61,39,24,131,297,287,263,253
102,68,-34,-85,68,17,24,97,239,234,224,219
73,39,-34,-56,53,2,24,78,200,195,190,190
53,4,-48,-29,51,-21,34,68,165,161,161,161
43,-19,-63,-12,53,-41,39,43,131,117,122,126
39,-39,-78,0,58,-58,39,19,87,82,87,97
14,-58,-73,21,43,-65,39,14,58,53,63,82
-4,-78,-73,41,34,-75,39,4,43,34,39,68
-14,-97,-82,56,34,-90,43,-4,29,14,24,53
-19,-102,-82,61,31,-92,48,-14,9,4,9,39
-24,-117,-92,70,34,-104,48,-24,0,-9,-4,24
-29,-122,-92,75,31,-107,48,-24,-4,-19,-9,19
-39,-131,-92,85,26,-112,53,-24,-14,-29,-19,9
-34,-136,-102,85,34,-119,53,-29,-29,-48,-34,0
-34,-151,-117,92,41,-134,53,-29,-39,-58,-39,-9
-34,-151,-117,92,41,-134,48,-39,-39,-58,-43,-14
-34,-151,-117,92,41,-134,48,-48,-39,-63,-48,-19
-39,-146,-107,92,34,-126,48,-39,-43,-63,-48,-19
-48,-151,-102,100,26,-126,48,-24,-39,-58,-48,-19
-48,-151,-102,100,26,-126,48,-14,-39,-58,-48,-19
-48,-151,-102,100,26,-126,48,-9,-39,-58,-48,-19
-53,-151,-97,102,21,-124,48,-9,-34,-53,-43,-19
-53,-151,-97,102,21,-124,48,-4,-29,-48,-39,-24
-53,-151,-97,102,21,-124,48,-4,-29,-48,-43,-24
-53,-151,-97,102,21,-124,48,-9,-29,-53,-43,-24
-53,-146,-92,100,19,-119,53,-9,-34,-53,-48,-29
-53,-146,-92,100,19,-119,53,-9,-39,-53,-48,-29
-53,-146,-92,100,19,-119,53,-4,-39,-58,-53,-24
-53,-146,-92,100,19,-119,58,-4,-39,-63,-53,-24
-53,-146,-92,100,19,-119,63,-4,-39,-63,-53,-29
-58,-151,-92,104,17,-122,63,0,-34,-58,-53,-29
-58,-151,-92,104,17,-122,58,0,-39,-58,-53,-34
-58,-151,-92,104,17,-122,53,0,-43,-58,-53,-39
-58,-151,-92,104,17,-122,58,0,-39,-53,-53,-39
-58,-146,-87,102,14,-117,58,0,-39,-53,-53,-39
-53,-146,-92,100,19,-119,58,0,-39,-58,-58,-34
-48,-146,-97,97,24,-122,53,4,-39,-58,-58,-29
-48,-151,-102,100,26,-126,53,4,-39,-53,-53,-39
-48,-156,-107,102,29,-131,53,4,-39,-48,-53,-39
-43,-161,-117,102,36,-139,53,4,-34,-48,-53,-39
-43,-161,-117,102,36,-139,53,0,-34,-48,-58,-39
-43,-161,-117,102,36,-139,53,0,-39,-53,-58,-39
-43,-165,-122,104,39,-143,53,4,-39,-58,-58,-39
-48,-165,-117,107,34,-141,53,4,-34,-58,-58,-39
-58,-170,-112,114,26,-141,53,4,-34,-58,-58,-39
-58,-180,-122,119,31,-151,53,9,-39,-63,-58,-39
-58,-190,-131,124,36,-161,53,9,-39,-68,-58,-39
-58,-190,-131,124,36,-161,58,9,-39,-63,-53,-39
-58,-195,-136,126,39,-165,63,9,-43,-58,-48,-34
-53,-204,-151,129,48,-178,68,14,-34,-53,-43,-39
-48,-209,-161,129,56,-185,78,14,-24,-48,-43,-39
-48,-214,-165,131,58,-190,78,14,-24,-53,-43,-39
-48,-229,-180,139,65,-204,78,14,-29,-53,-43,-39
-53,-234,-180,143,63,-207,78,14,-34,-53,-43,-39
-53,-234,-180,143,63,-207,73,9,-34,-53,-48,-39
-53,-234,-180,143,63,-207,73,14,-39,-58,-58,-39
-53,-239,-185,146,65,-212,73,19,-39,-58,-63,-39
-53,-244,-190,148,68,-217,73,19,-39,-58,-58,-39
-53,-244,-190,148,68,-217,73,19,-39,-58,-58,-39
-63,-244,-180,153,58,-212,73,19,-43,-58,-53,-39
-68,-244,-175,156,53,-209,73,19,-48,-58,-48,-39
-63,-244,-180,153,58,-212,73,14,-58,-63,-53,-39
-63,-248,-185,156,61,-217,73,9,-58,-63,-58,-39
-63,-248,-185,156,61,-217,73,9,-48,-63,-58,-39
-63,-248,-185,156,61,-217,73,9,-43,-63,-58,-39
-63,-248,-185,156,61,-217,78,19,-34,-58,-58,-39
-63,-248,-185,156,61,-217,82,29,-29,-48,-58,-34
-63,-248,-185,156,61,-217,78,24,-29,-53,-58,-34
-68,-244,-175,156,53,-209,78,24,-29,-53,-58,-34
-68,-244,-175,156,53,-209,78,19,-34,-58,-58,-34
-68,-244,-175,156,53,-209,78,14,-39,-63,-58,-39
-68,-244,-175,156,53,-209,78,9,-43,-63,-58,-39
-68,-244,-175,156,53,-209,78,4,-48,-63,-58,-43
-68,-244,-175,156,53,-209,82,4,-53,-63,-58,-43
-68,-244,-175,156,53,-209,82,9,-53,-63,-58,-39
-63,-244,-180,153,58,-212,78,9,-48,-63,-63,-39
-58,-239,-180,148,61,-209,78,4,-48,-68,-63,-39
-58,-234,-175,146,58,-204,78,0,-48,-68,-63,-39
-58,-234,-175,146,58,-204,78,0,-48,-68,-68,-39
-63,-234,-170,148,53,-202,78,-4,-53,-73,-68,-43
-68,-239,-170,153,51,-204,78,-4,-53,-73,-63,-48
-68,-244,-175,156,53,-209,78,0,-53,-73,-63,-48
-68,-248,-180,158,56,-214,78,0,-53,-73,-63,-53
-68,-239,-170,153,51,-204,78,0,-48,-73,-63,-58
-68,-239,-170,153,51,-204,78,0,-48,-73,-63,-58
-68,-239,-170,153,51,-204,73,0,-53,-78,-73,-53
-68,-234,-165,151,48,-200,68,-4,-58,-78,-78,-48
-68,-234,-165,151,48,-200,68,-4,-63,-78,-73,-53
-68,-234,-165,151,48,-200,68,-4,-63,-78,-73,-53
-68,-234,-165,151,48,-200,68,-4,-63,-78,-73,-58
-68,-234,-165,151,48,-200,68,-9,-63,-78,-73,-58
-73,-239,-165,156,46,-202,68,-9,-68,-82,-78,-63
-78,-244,-165,161,43,-204,73,-14,-68,-87,-82,-68
-78,-239,-161,158,41,-200,78,-19,-68,-87,-78,-68
-78,-239,-161,158,41,-200,82,-19,-68,-82,-78,-63
-78,-239,-161,158,41,-200,82,-19,-63,-78,-73,-58
-78,-239,-161,158,41,-200,82,-14,-63,-78,-73,-48
-73,-234,-161,153,43,-197,82,4,-43,-63,-63,-48
-68,-224,-156,146,43,-190,87,29,-29,-48,-53,-43
-58,-204,-146,131,43,-175,97,39,-9,-34,-39,-29
-48,-185,-136,117,43,-161,107,48,9,-19,-29,-19
-39,-185,-146,112,53,-165,107,48,9,-14,-24,-19
-29,-185,-156,107,63,-170,107,48,9,-9,-19,-19
-29,-185,-156,107,63,-170,112,48,9,-9,-19,-19
-24,-190,-165,107,70,-178,112,53,14,-9,-14,-19
-19,-195,-175,107,78,-185,117,58,19,-9,-9,-19
0,-195,-195,97,97,-195,112,73,24,-4,0,-14
19,-195,-214,87,117,-204,112,82,34,4,0,-4
34,-195,-229,80,131,-212,97,92,43,14,14,-4
53,-190,-244,68,148,-217,97,102,48,19,24,-4
58,-180,-239,61,148,-209,92,102,58,29,29,0
58,-165,-224,53,141,-195,78,87,53,24,24,0
58,-161,-219,51,139,-190,53,63,29,4,9,0
39,-165,-204,63,122,-185,24,9,-14,-29,-19,-19
19,-180,-200,80,109,-190,19,-34,-58,-63,-43,-34
19,-195,-214,87,117,-204,19,-24,-58,-63,-43,-48
19,-209,-229,95,124,-219,19,-14,-53,-63,-43,-48
19,-204,-224,92,122,-214,24,-14,-58,-63,-43,-39
24,-200,-224,87,124,-212,24,-14,-68,-68,-48,-39
24,-200,-224,87,124,-212,24,-19,-78,-78,-58,-39
19,-200,-219,90,119,-209,24,-24,-82,-82,-68,-43
0,-204,-204,102,102,-204,39,-19,-82,-82,-68,-53
-14,-204,-190,109,87,-197,48,-9,-73,-82,-68,-58
-29,-200,-170,114,70,-185,58,-9,-73,-87,-68,-58
-48,-204,-156,126,53,-180,68,-14,-73,-92,-78,-68
-63,-214,-151,139,43,-183,63,-19,-82,-102,-87,-78
-63,-224,-161,143,48,-192,58,-34,-92,-117,-97,-82
-63,-219,-156,141,46,-187,58,-34,-92,-117,-107,-87
-58,-214,-156,136,48,-185,58,-34,-92,-117,-112,-92
-58,-204,-146,131,43,-175,58,-29,-97,-117,-112,-97
-58,-200,-141,129,41,-170,63,-29,-107,-122,-112,-97
-78,-200,-122,139,21,-161,63,-34,-107,-126,-112,-97
-92,-200,-107,146,7,-153,63,-34,-112,-126,-112,-97
-92,-200,-107,146,7,-153,63,-34,-102,-112,-107,-87
-92,-200,-107,146,7,-153,63,-34,-87,-92,-102,-78
-92,-204,-112,148,9,-158,63,-29,-82,-102,-102,-78
-87,-204,-117,146,14,-161,63,-29,-82,-112,-102,-78
-82,-195,-112,139,14,-153,63,-29,-82,-112,-97,-82
-82,-195,-112,139,14,-153,63,-29,-82,-107,-97,-82
-82,-195,-112,139,14,-153,63,-24,-82,-102,-97,-82
-82,-195,-112,139,14,-153,63,-24,-82,-102,-97,-82
-87,-209,-122,148,17,-165,63,-24,-87,-97,-107,-87
-82,-219,-136,151,26,-178,63,-4,-78,-92,-117,-97
-73,-219,-146,146,36,-183,53,9,-43,-78,-107,-102
-48,-214,-165,131,58,-190,39,29,14,-24,-68,-82
9,-200,-209,95,109,-204,34,126,175,136,68,-29
131,-122,-253,-4,192,-187,-9,190,400,400,312,102
322,-14,-336,-153,329,-175,-92,200,634,741,639,287
522,117,-405,-319,463,-143,-214,126,775,1054,980,522
712,346,-366,-529,539,-9,-356,29,917,1464,1498,883
761,570,-190,-666,475,190,-556,-253,805,1595,1766,1151
600,570,-29,-585,314,270,-697,-736,170,990,1283,990
297,356,58,-326,119,207,-741,-1205,-790,-180,214,434
-19,258,278,-119,-148,268,-717,-1464,-1488,-995,-531,68
-180,224,405,-21,-292,314,-717,-1542,-1742,-1302,-775,-34
-190,248,439,-29,-314,344,-692,-1459,-1605,-1210,-732,-39
-190,204,395,-7,-292,300,-639,-1298,-1424,-1093,-683,-73
-185,214,400,-14,-292,307,-527,-1015,-1112,-854,-527,-34
-161,180,341,-9,-251,261,-400,-756,-824,-644,-409,-29
-136,107,244,14,-190,175,-302,-546,-600,-488,-326,-34
-97,43,141,26,-119,92,-219,-400,-448,-390,-268,-43
-87,-4,82,46,-85,39,-117,-268,-331,-292,-209,-53
-73,-48,24,61,-48,-12,-48,-161,-209,-195,-146,-53
-63,-82,-19,73,-21,-51,-9,-68,-107,-102,-82,-39
-48,-102,-53,75,2,-78,24,-9,-63,-68,-63,-29
-43,-122,-78,82,17,-100,53,19,-39,-48,-53,-29
-43,-141,-97,92,26,-119,68,48,-19,-29,-43,-39
-48,-141,-92,95,21,-117,73,48,4,-24,-43,-39
-53,-141,-87,97,17,-114,78,43,9,-19,-39,-34
-48,-141,-92,95,21,-117,87,53,14,-14,-34,-34
-48,-146,-97,97,24,-122,87,63,24,-9,-24,-29
-48,-146,-97,97,24,-122,92,73,34,4,-19,-24
-48,-146,-97,97,24,-122,92,78,34,9,-14,-24
-43,-146,-102,95,29,-124,97,82,43,14,-14,-24
-43,-141,-97,92,26,-119,102,92,48,19,-9,-19
-43,-141,-97,92,26,-119,97,102,68,24,-4,-24
-34,-146,-112,90,39,-129,97,107,82,29,0,-29
-34,-146,-112,90,39,-129,97,112,87,39,9,-24
-34,-141,-107,87,36,-124,97,117,97,43,19,-24
-34,-146,-112,90,39,-129,97,122,97,53,24,-19
-34,-141,-107,87,36,-124,97,122,107,58,29,-9
-34,-141,-107,87,36,-124,102,126,112,63,29,0
-29,-136,-107,82,39,-122,102,136,122,68,43,4
-19,-136,-117,78,48,-126,102,151,136,73,48,9
-19,-136,-117,78,48,-126,102,170,151,87,63,14
-19,-126,-107,73,43,-117,107,180,165,97,73,19
-19,-122,-102,70,41,-112,107,180,165,107,78,14
-14,-122,-107,68,46,-114,107,180,170,107,68,14
-9,-122,-112,65,51,-117,107,190,190,117,68,9
-4,-112,-107,58,51,-109,102,200,200,131,82,24
0,-107,-107,53,53,-107,102,209,209,141,87,29
4,-107,-112,51,58,-109,107,209,214,151,92,29
9,-97,-107,43,58,-102,107,214,224,161,102,34
14,-92,-107,39,61,-100,112,224,244,170,112,43
24,-87,-112,31,68,-100,112,239,258,190,126,53
29,-73,-102,21,65,-87,112,248,273,204,136,63
34,-73,-107,19,70,-90,112,258,292,214,151,68
34,-68,-102,17,68,-85,112,273,312,229,170,73
34,-63,-97,14,65,-80,112,287,326,253,185,78
43,-53,-97,4,70,-75,117,302,351,268,195,87
53,-39,-92,-7,73,-65,117,317,370,287,219,102
58,-29,-87,-14,73,-58,122,336,395,302,224,112
78,-19,-97,-29,87,-58,122,356,414,331,244,126
87,-4,-92,-41,90,-48,122,375,444,356,263,141
97,4,-92,-51,95,-43,126,390,473,385,287,156
107,19,-87,-63,97,-34,126,405,492,405,307,170
117,39,-78,-78,97,-19,126,424,527,429,326,185
126,63,-63,-95,95,0,126,439,546,453,351,204
136,82,-53,-109,95,14,126,458,570,478,370,224
146,87,-58,-117,102,14,126,468,595,497,380,229
156,107,-48,-131,102,29,126,478,619,517,405,244
165,126,-39,-146,102,43,122,488,639,541,429,268
170,136,-34,-153,102,51,122,497,649,561,448,273
180,146,-34,-163,107,56,122,497,663,570,458,287
190,156,-34,-173,112,61,117,497,673,580,473,297
195,170,-24,-183,109,73,117,492,678,590,478,307
200,185,-14,-192,107,85,107,483,678,590,478,307
200,195,-4,-197,102,95,92,463,668,595,478,322
200,200,0,-200,100,100,82,448,663,595,478,331
200,204,4,-202,97,104,73,434,649,585,478,331
190,204,14,-197,87,109,63,405,634,570,473,326
185,209,24,-197,80,117,63,375,610,546,453,326
175,204,29,-190,73,117,53,336,575,507,439,317
156,185,29,-170,63,107,48,287,512,473,409,297
146,165,19,-156,63,92,39,248,453,434,375,283
141,136,-4,-139,73,65,29,219,409,390,341,253
126,112,-14,-119,70,48,24,180,356,336,292,224
122,97,-24,-109,73,36,24,146,292,283,253,195
92,78,-14,-85,53,31,24,126,248,244,219,170
53,43,-9,-48,31,17,39,112,209,209,190,146
24,19,-4,-21,14,7,48,82,170,165,151,117
29,-4,-34,-12,31,-19,39,53,117,126,112,87
14,-29,-43,7,29,-36,29,43,78,92,82,73
-4,-48,-43,26,19,-46,29,34,58,63,58,48
-14,-68,-53,41,19,-61,34,24,39,34,43,24
-19,-73,-53,46,17,-63,39,14,14,19,24,9
-24,-87,-63,56,19,-75,39,4,0,0,4,-4
-29,-92,-63,61,17,-78,39,0,-4,-9,0,-9
-39,-102,-63,70,12,-82,43,-4,-14,-19,-9,-19
-39,-102,-63,70,12,-82,39,-9,-29,-34,-24,-24
-43,-112,-68,78,12,-90,34,-9,-39,-39,-29,-29
-43,-112,-68,78,12,-90,34,-9,-39,-39,-34,-34
-43,-112,-68,78,12,-90,39,-9,-39,-43,-39,-39
-43,-112,-68,78,12,-90,39,-19,-48,-53,-43,-39
-48,-122,-73,85,12,-97,39,-24,-48,-58,-48,-39
-39,-122,-82,80,21,-102,39,-19,-48,-58,-53,-39
-29,-122,-92,75,31,-107,39,-19,-48,-58,-58,-39
-43,-122,-78,82,17,-100,39,-19,-48,-58,-58,-39
-53,-122,-68,87,7,-95,39,-14,-48,-58,-58,-43
-53,-122,-68,87,7,-95,43,-14,-48,-58,-63,-43
-53,-122,-68,87,7,-95,48,-19,-48,-63,-63,-43
-53,-117,-63,85,4,-90,53,-19,-48,-63,-68,-48
-53,-117,-63,85,4,-90,53,-19,-48,-63,-68,-48
-53,-117,-63,85,4,-90,53,-19,-58,-63,-68,-48
-53,-117,-63,85,4,-90,58,-24,-68,-63,-63,-53
-53,-112,-58,82,2,-85,63,-24,-68,-63,-63,-58
-58,-112,-53,85,-2,-82,63,-19,-63,-58,-63,-58
-53,-112,-58,82,2,-85,63,-9,-53,-58,-63,-58
-48,-112,-63,80,7,-87,63,0,-43,-58,-63,-58
-48,-117,-68,82,9,-92,63,0,-39,-58,-63,-58
-48,-117,-68,82,9,-92,58,0,-39,-63,-63,-58
-53,-117,-63,85,4,-90,58,-9,-39,-68,-68,-58
-58,-117,-58,87,0,-87,53,-14,-39,-68,-68,-58
-58,-117,-58,87,0,-87,53,-14,-39,-68,-63,-68
-58,-117,-58,87,0,-87,53,-14,-39,-68,-63,-68
-53,-122,-68,87,7,-95,53,-14,-39,-68,-68,-68
-53,-122,-68,87,7,-95,53,-19,-43,-68,-78,-68
-53,-117,-63,85,4,-90,53,-19,-48,-63,-78,-68
-53,-117,-63,85,4,-90,53,-14,-48,-58,-78,-68
-53,-117,-63,85,4,-90,53,-14,-43,-58,-78,-63
-58,-122,-63,90,2,-92,53,-14,-43,-58,-78,-58
-58,-122,-63,90,2,-92,53,-14,-48,-68,-78,-58
-58,-122,-63,90,2,-92,53,-19,-48,-78,-78,-58
-58,-122,-63,90,2,-92,48,-19,-48,-78,-78,-63
-58,-126,-68,92,4,-97,43,-19,-53,-78,-78,-63
-63,-126,-63,95,0,-95,39,-19,-53,-78,-78,-68
-68,-122,-53,95,-7,-87,39,-24,-53,-78,-82,-68
-68,-117,-48,92,-9,-82,39,-24,-53,-82,-82,-73
-68,-122,-53,95,-7,-87,39,-24,-58,-82,-82,-78
-68,-126,-58,97,-4,-92,43,-24,-63,-82,-82,-78
-63,-126,-63,95,0,-95,43,-29,-63,-82,-87,-78
-63,-126,-63,95,0,-95,43,-34,-73,-87,-97,-78
-63,-131,-68,97,2,-100,43,-39,-78,-87,-102,-78
-63,-131,-68,97,2,-100,43,-39,-78,-87,-97,-78
-63,-126,-63,95,0,-95,43,-39,-78,-87,-97,-78
-68,-126,-58,97,-4,-92,43,-39,-78,-87,-92,-78
-68,-126,-58,97,-4,-92,43,-39,-78,-87,-87,-78
-63,-126,-63,95,0,-95,43,-43,-87,-92,-92,-82
-63,-131,-68,97,2,-100,43,-48,-87,-92,-97,-87
-63,-126,-63,95,0,-95,43,-48,-87,-92,-97,-87
-63,-122,-58,92,-2,-90,43,-48,-92,-92,-97,-87
-63,-122,-58,92,-2,-90,43,-48,-92,-97,-97,-87
-63,-122,-58,92,-2,-90,43,-48,-97,-97,-97,-82
-63,-126,-63,95,0,-95,39,-53,-97,-107,-102,-82
-68,-126,-58,97,-4,-92,39,-53,-97,-112,-107,-82
-68,-126,-58,97,-4,-92,39,-53,-97,-112,-107,-78
-68,-126,-58,97,-4,-92,39,-53,-97,-112,-107,-78
-68,-126,-58,97,-4,-92,34,-43,-92,-107,-107,-78
-68,-126,-58,97,-4,-92,29,-34,-87,-102,-107,-82
-68,-126,-58,97,-4,-92,34,-43,-92,-97,-107,-82
-68,-126,-58,97,-4,-92,34,-48,-92,-92,-107,-78
-68,-126,-58,97,-4,-92,29,-48,-87,-92,-107,-78
-68,-122,-53,95,-7,-87,29,-53,-87,-97,-102,-78
-68,-117,-48,92,-9,-82,29,-58,-87,-97,-102,-78
-68,-117,-48,92,-9,-82,29,-58,-87,-97,-107,-78
-68,-117,-48,92,-9,-82,29,-63,-97,-112,-107,-82
-68,-122,-53,95,-7,-87,29,-63,-102,-122,-102,-87
-68,-122,-53,95,-7,-87,29,-58,-102,-112,-102,-82
-68,-122,-53,95,-7,-87,29,-58,-102,-102,-102,-82
-68,-112,-43,90,-12,-78,29,-58,-97,-102,-102,-82
-68,-112,-43,90,-12,-78,29,-58,-97,-102,-102,-78
-68,-117,-48,92,-9,-82,29,-58,-97,-107,-107,-78
-68,-117,-48,92,-9,-82,29,-63,-97,-107,-107,-78
-68,-112,-43,90,-12,-78,29,-63,-102,-107,-102,-82
-68,-107,-39,87,-14,-73,29,-63,-102,-107,-102,-82
-68,-107,-39,87,-14,-73,29,-63,-102,-107,-102,-87
-68,-107,-39,87,-14,-73,29,-68,-102,-107,-102,-87
-68,-107,-39,87,-14,-73,29,-68,-107,-112,-107,-87
-68,-107,-39,87,-14,-73,34,-73,-107,-117,-112,-87
-68,-107,-39,87,-14,-73,34,-73,-107,-122,-112,-87
-68,-112,-43,90,-12,-78,34,-68,-107,-122,-117,-82
-68,-112,-43,90,-12,-78,34,-68,-107,-117,-112,-87
-68,-112,-43,90,-12,-78,34,-63,-112,-117,-112,-87
-68,-112,-43,90,-12,-78,29,-58,-102,-112,-107,-87
-73,-107,-34,90,-19,-70,24,-48,-102,-107,-107,-82
-63,-112,-48,87,-7,-80,34,-58,-107,-107,-102,-82
-58,-92,-34,75,-12,-63,43,-58,-97,-92,-87,-78
-53,-82,-29,68,-12,-56,48,-43,-73,-78,-82,-63
-48,-78,-29,63,-9,-53,58,-29,-48,-68,-78,-48
-39,-68,-29,53,-4,-48,63,-24,-43,-63,-73,-48
-29,-58,-29,43,0,-43,68,-19,-39,-58,-68,-48
-29,-58,-29,43,0,-43,73,-19,-39,-58,-68,-53
-24,-63,-39,43,7,-51,73,-14,-34,-53,-58,-53
-19,-68,-48,43,14,-58,78,-9,-29,-48,-53,-58
0,-68,-68,34,34,-68,73,4,-24,-34,-39,-53
19,-68,-87,24,53,-78,73,19,-14,-24,-39,-43
34,-68,-102,17,68,-85,58,34,-4,-14,-24,-43
48,-73,-122,12,85,-97,58,43,4,-9,-14,-39
48,-73,-122,12,85,-97,53,43,19,0,-9,-29
48,-58,-107,4,78,-82,39,34,19,0,-4,-19
48,-53,-102,2,75,-78,14,14,0,-14,-9,-9
29,-58,-87,14,58,-73,-19,-34,-48,-48,-39,-34
9,-73,-82,31,46,-78,-29,-73,-97,-82,-63,-53
9,-87,-97,39,53,-92,-29,-73,-107,-87,-73,-68
9,-102,-112,46,61,-107,-29,-73,-112,-92,-82,-68
14,-102,-117,43,65,-109,-24,-78,-117,-97,-82,-63
24,-102,-126,39,75,-114,-24,-82,-126,-107,-87,-68
24,-102,-126,39,75,-114,-24,-82,-126,-112,-92,-68
19,-102,-122,41,70,-112,-24,-82,-122,-112,-97,-73
0,-102,-102,51,51,-102,-9,-78,-122,-112,-97,-78
-14,-97,-82,56,34,-90,0,-68,-112,-112,-97,-78
-29,-87,-58,58,14,-73,9,-63,-107,-112,-97,-78
-48,-87,-39,68,-4,-63,19,-63,-102,-112,-107,-87
-63,-97,-34,80,-14,-65,19,-63,-112,-117,-117,-97
-63,-107,-43,85,-9,-75,19,-73,-122,-126,-126,-102
-73,-107,-34,90,-19,-70,19,-73,-122,-126,-126,-112
-78,-107,-29,92,-24,-68,19,-73,-122,-126,-122,-122
-78,-107,-29,92,-24,-68,19,-68,-117,-122,-126,-122
-78,-112,-34,95,-21,-73,24,-68,-117,-122,-131,-117
-82,-112,-29,97,-26,-70,24,-78,-122,-131,-131,-117
-82,-112,-29,97,-26,-70,24,-82,-131,-136,-131,-117
-82,-112,-29,97,-26,-70,29,-82,-131,-141,-131,-117
-82,-112,-29,97,-26,-70,34,-82,-126,-141,-131,-117
-87,-117,-29,102,-29,-73,34,-78,-122,-141,-131,-117
-87,-117,-29,102,-29,-73,34,-78,-122,-141,-131,-117
-82,-107,-24,95,-29,-65,34,-78,-126,-141,-126,-117
-82,-107,-24,95,-29,-65,34,-78,-131,-136,-126,-112
-82,-102,-19,92,-31,-61,34,-73,-131,-131,-122,-107
-82,-97,-14,90,-34,-56,34,-73,-131,-131,-117,-102
-87,-112,-24,100,-31,-68,39,-73,-126,-126,-117,-107
-82,-122,-39,102,-21,-80,43,-53,-107,-122,-117,-117
-82,-131,-48,107,-17,-90,34,-53,-97,-131,-131,-136
-68,-136,-68,102,0,-102,19,-48,-63,-102,-117,-131
-24,-136,-112,80,43,-124,19,68,87,43,-9,-87
82,-73,-156,-4,119,-114,-19,151,302,292,204,34
268,24,-244,-146,256,-109,-87,180,551,629,522,195
463,146,-317,-305,390,-85,-195,126,707,936,854,405
702,366,-336,-534,519,14,-336,73,917,1415,1415,780
800,580,-219,-690,509,180,-536,-165,873,1615,1727,1063
663,619,-43,-641,353,287,-712,-668,273,1093,1351,971
385,444,58,-414,163,251,-790,-1156,-653,4,390,483
43,322,278,-183,-117,300,-771,-1478,-1459,-932,-473,68
-141,263,405,-61,-273,334,-775,-1620,-1820,-1361,-834,-82
-161,312,473,-75,-317,392,-766,-1561,-1703,-1293,-800,-82
-170,292,463,-61,-317,378,-727,-1424,-1542,-1200,-761,-112
-170,302,473,-65,-322,387,-610,-1137,-1224,-946,-590,-58
-151,268,419,-58,-285,344,-478,-873,-932,-722,-458,-39
-131,204,336,-36,-234,270,-375,-649,-688,-556,-370,-43
-97,151,248,-26,-173,200,-287,-488,-517,-448,-307,-53
-92,97,190,-2,-141,143,-180,-356,-400,-351,-258,-68
-82,48,131,17,-107,90,-107,-248,-278,-253,-204,-73
-73,14,87,29,-80,51,-63,-146,-156,-156,-126,-63
-58,-4,53,31,-56,24,-24,-78,-92,-117,-92,-58
-58,-24,34,41,-46,4,9,-48,-78,-97,-82,-63
-63,-43,19,53,-41,-12,29,-19,-68,-78,-73,-78
-63,-43,19,53,-41,-12,29,-14,-43,-68,-73,-78
-63,-43,19,53,-41,-12,29,-14,-39,-58,-68,-73
-58,-48,9,53,-34,-19,39,-4,-34,-53,-63,-73
-58,-58,0,58,-29,-29,39,4,-24,-48,-53,-68
-58,-58,0,58,-29,-29,48,14,-4,-34,-43,-58
-58,-58,0,58,-29,-29,53,19,4,-29,-34,-53
-53,-58,-4,56,-24,-31,58,29,14,-19,-34,-53
-53,-53,0,53,-26,-26,63,43,19,-9,-29,-48
-53,-48,4,51,-29,-21,63,48,29,-4,-29,-53
-43,-48,-4,46,-19,-26,68,48,34,0,-29,-58
-34,-48,-14,41,-9,-31,63,53,39,9,-24,-53
-24,-43,-19,34,-2,-31,58,58,48,14,-19,-53
-34,-43,-9,39,-12,-26,58,63,53,24,-14,-53
-43,-34,9,39,-26,-12,58,63,68,29,-9,-48
-43,-34,9,39,-26,-12,63,68,78,34,-9,-43
-39,-29,9,34,-24,-9,63,78,92,39,4,-43
-29,-24,4,26,-17,-9,63,82,102,39,4,-39
-29,-19,9,24,-19,-4,63,92,112,48,14,-34
-29,-14,14,21,-21,0,68,102,126,58,24,-24
-29,-14,14,21,-21,0,68,102,126,68,29,-24
-24,-14,9,19,-17,-2,73,102,126,68,29,-19
-19,-14,4,17,-12,-4,78,112,141,78,39,-19
-14,-4,9,9,-12,2,73,117,151,92,53,-9
-9,0,9,4,-9,4,73,122,161,102,58,-9
-9,-4,4,7,-7,0,78,126,170,112,63,-14
-9,0,9,4,-9,4,78,136,185,122,73,-14
-4,4,9,0,-7,7,82,146,204,131,82,-4
4,9,4,-7,0,7,82,161,219,151,97,4
9,29,19,-19,-4,24,82,170,234,165,107,19
14,34,19,-24,-2,26,82,180,253,175,122,29
19,39,19,-29,0,29,82,195,263,190,136,34
24,43,19,-34,2,31,82,209,268,214,146,39
39,48,9,-43,14,29,92,224,307,229,156,48
53,58,4,-56,24,31,97,239,341,248,180,63
53,68,14,-61,19,41,102,258,356,258,180,68
68,78,9,-73,29,43,102,278,366,283,195,78
78,97,19,-87,29,58,97,302,395,307,214,92
87,112,24,-100,31,68,97,322,424,336,239,107
97,122,24,-109,36,73,97,341,448,356,258,117
107,136,29,-122,39,82,97,366,488,380,278,126
112,161,48,-136,31,104,92,375,507,405,302,146
117,180,63,-148,26,122,87,390,531,429,322,165
126,185,58,-156,34,122,87,395,551,444,326,170
136,204,68,-170,34,136,87,400,570,458,346,185
151,219,68,-185,41,143,82,409,590,483,366,209
161,224,63,-192,48,143,82,419,600,502,380,214
170,234,63,-202,53,148,82,419,614,512,390,229
180,244,63,-212,58,153,78,419,624,522,405,239
185,258,73,-222,56,165,82,424,639,536,414,248
190,273,82,-231,53,178,78,424,649,541,419,248
190,283,92,-236,48,187,68,405,634,541,419,258
190,287,97,-239,46,192,63,390,624,536,419,263
195,297,102,-246,46,200,39,375,605,527,419,268
190,302,112,-246,39,207,14,346,585,512,414,268
185,302,117,-244,34,209,19,317,566,497,400,263
175,292,117,-234,29,204,14,278,536,468,390,248
156,273,117,-214,19,195,9,239,483,439,370,239
146,253,107,-200,19,180,0,209,434,405,346,234
146,234,87,-190,29,161,-4,180,390,361,317,204
136,219,82,-178,26,151,-4,141,336,307,273,175
122,195,73,-158,24,134,-14,97,268,253,234,146
82,165,82,-124,0,124,-24,68,219,214,200,122
63,151,87,-107,-12,119,-19,53,175,175,165,102
53,146,92,-100,-19,119,-19,24,131,126,122,78
58,117,58,-87,0,87,-19,-4,87,92,87,48
43,87,43,-65,0,65,-19,-14,58,63,63,34
4,58,53,-31,-24,56,-19,-24,39,39,39,14
-24,29,53,-2,-39,41,-14,-34,19,14,24,-4
-14,24,39,-4,-26,31,-9,-48,-9,-4,0,-29
-4,9,14,-2,-9,12,-9,-63,-29,-29,-24,-53
-19,4,24,7,-21,14,-9,-63,-34,-39,-29,-58
-39,-4,34,21,-36,14,-4,-63,-43,-48,-39,-68
-39,-4,34,21,-36,14,-4,-68,-53,-63,-53,-73
-43,-14,29,29,-36,7,-4,-68,-58,-68,-58,-78
-43,-14,29,29,-36,7,-4,-68,-58,-68,-63,-82
-43,-14,29,29,-36,7,0,-68,-58,-73,-68,-87
-48,-14,34,31,-41,9,0,-78,-73,-82,-78,-87
-58,-24,34,41,-46,4,0,-82,-78,-87,-87,-87
-58,-24,34,41,-46,4,-4,-78,-78,-92,-87,-92
-58,-24,34,41,-46,4,-9,-78,-78,-97,-87,-97
-63,-14,48,39,-56,17,-9,-78,-78,-97,-87,-97
-63,-4,58,34,-61,26,-9,-73,-78,-97,-87,-102
-63,-4,58,34,-61,26,-4,-68,-78,-92,-92,-97
-63,-4,58,34,-61,26,0,-68,-78,-92,-92,-92
-63,-9,53,36,-58,21,4,-68,-78,-92,-97,-97
-63,-19,43,41,-53,12,4,-68,-78,-92,-97,-97
-63,-19,43,41,-53,12,4,-63,-78,-92,-102,-97
-63,-19,43,41,-53,12,9,-63,-78,-92,-102,-102
-63,-19,43,41,-53,12,14,-58,-78,-92,-102,-107
-68,-24,43,46,-56,9,14,-48,-73,-87,-102,-107
-68,-19,48,43,-58,14,4,-48,-73,-87,-102,-107
-68,-14,53,41,-61,19,-4,-48,-73,-87,-102,-107
-68,-19,48,43,-58,14,0,-48,-68,-92,-102,-107
-68,-19,48,43,-58,14,0,-48,-68,-102,-102,-107
-68,-14,53,41,-61,19,4,-48,-73,-107,-112,-112
-68,-9,58,39,-63,24,4,-43,-78,-107,-117,-117
-82,-14,68,48,-75,26,4,-43,-78,-102,-112,-126
-97,-19,78,58,-87,29,4,-43,-78,-97,-112,-126
-78,-24,53,51,-65,14,4,-39,-73,-97,-107,-122
-63,-24,39,43,-51,7,4,-39,-73,-97,-107,-117
-63,-19,43,41,-53,12,4,-39,-78,-97,-107,-107
-63,-19,43,41,-53,12,4,-34,-78,-97,-107,-97
-63,-19,43,41,-53,12,4,-34,-73,-97,-107,-112
-68,-24,43,46,-56,9,4,-34,-73,-97,-107,-126
-63,-24,39,43,-51,7,0,-39,-82,-102,-107,-126
-58,-24,34,41,-46,4,-4,-48,-87,-107,-107,-126
-58,-24,34,41,-46,4,-4,-48,-87,-107,-107,-126
-58,-29,29,43,-43,0,-4,-48,-92,-107,-107,-122
-58,-29,29,43,-43,0,-4,-48,-92,-107,-107,-126
-58,-24,34,41,-46,4,0,-53,-92,-107,-112,-126
-58,-24,34,41,-46,4,0,-53,-92,-112,-112,-126
-58,-34,24,46,-41,-4,0,-53,-97,-112,-112,-126
-63,-39,24,51,-43,-7,0,-48,-97,-112,-112,-126
-63,-39,24,51,-43,-7,-4,-48,-92,-112,-117,-126
-63,-34,29,48,-46,-2,-4,-48,-97,-117,-122,-126
-63,-34,29,48,-46,-2,-4,-48,-97,-117,-122,-126
-63,-34,29,48,-46,-2,0,-48,-97,-117,-117,-126
-63,-29,34,46,-48,2,4,-48,-97,-117,-117,-126
-68,-39,29,53,-48,-4,4,-48,-97,-117,-117,-126
-68,-48,19,58,-43,-14,4,-48,-97,-117,-117,-126
-63,-29,34,46,-48,2,0,-58,-112,-126,-122,-131
-63,-14,48,39,-56,17,-4,-68,-117,-131,-126,-136
-63,-14,48,39,-56,17,-4,-68,-112,-131,-126,-136
-63,-14,48,39,-56,17,-4,-68,-112,-131,-126,-136
-63,-29,34,46,-48,2,-4,-63,-107,-136,-126,-136
-63,-43,19,53,-41,-12,-4,-58,-107,-136,-126,-131
-63,-43,19,53,-41,-12,-9,-63,-107,-141,-126,-131
-68,-39,29,53,-48,-4,-9,-63,-107,-141,-126,-131
-68,-39,29,53,-48,-4,-4,-63,-107,-131,-122,-126
-68,-39,29,53,-48,-4,0,-63,-107,-122,-117,-126
-68,-39,29,53,-48,-4,0,-63,-107,-122,-117,-126
-68,-39,29,53,-48,-4,0,-63,-107,-122,-117,-131
-63,-34,29,48,-46,-2,-4,-68,-117,-122,-122,-131
-58,-29,29,43,-43,0,-14,-68,-122,-122,-126,-126
-58,-34,24,46,-41,-4,-19,-68,-117,-131,-131,-126
-58,-34,24,46,-41,-4,-19,-73,-117,-146,-131,-126
-68,-29,39,48,-53,4,-4,-68,-107,-136,-126,-126
-78,-29,48,53,-63,9,9,-58,-97,-126,-126,-126
-78,-29,48,53,-63,9,9,-58,-102,-126,-126,-126
-78,-34,43,56,-61,4,9,-53,-102,-122,-122,-126
-78,-34,43,56,-61,4,4,-58,-112,-126,-122,-122
-78,-34,43,56,-61,4,0,-68,-122,-131,-122,-122
-78,-24,53,51,-65,14,0,-68,-117,-141,-131,-126
-78,-24,53,51,-65,14,0,-68,-117,-151,-141,-126
-63,-19,43,41,-53,12,0,-58,-102,-136,-131,-126
-48,-9,39,29,-43,14,0,-53,-87,-117,-117,-126
-58,-24,34,41,-46,4,0,-53,-92,-117,-112,-126
-68,-39,29,53,-48,-4,0,-53,-92,-117,-112,-122
-68,-39,29,53,-48,-4,-4,-53,-97,-122,-112,-122
-68,-39,29,53,-48,-4,-9,-58,-102,-126,-112,-117
-68,-39,29,53,-48,-4,-9,-58,-112,-126,-112,-117
-68,-39,29,53,-48,-4,-4,-63,-117,-126,-112,-117
-73,-34,39,53,-56,2,-4,-63,-117,-136,-117,-122
-78,-34,43,56,-61,4,-4,-58,-117,-141,-126,-122
-78,-39,39,58,-58,0,-4,-58,-112,-136,-126,-122
-78,-43,34,61,-56,-4,-4,-53,-112,-136,-131,-117
-73,-43,29,58,-51,-7,-4,-53,-102,-131,-126,-117
-68,-39,29,53,-48,-4,0,-48,-97,-126,-122,-112
-53,-14,39,34,-46,12,0,-48,-102,-122,-107,-107
-39,9,48,14,-43,29,0,-48,-107,-117,-97,-107
-39,19,58,9,-48,39,14,-34,-87,-102,-97,-107
-39,29,68,4,-53,48,29,-19,-68,-87,-97,-107
-48,19,68,14,-58,43,34,-19,-68,-87,-92,-97
-48,9,58,19,-53,34,34,-14,-63,-82,-82,-87
-48,0,48,24,-48,24,39,-9,-58,-82,-78,-82
-29,0,29,14,-29,14,34,4,-53,-73,-68,-73
-4,14,19,-4,-12,17,34,14,-43,-63,-68,-63
14,29,14,-21,0,21,19,24,-34,-53,-53,-63
29,9,-19,-19,24,-4,19,43,-24,-43,-43,-58
29,-4,-34,-12,31,-19,14,53,-9,-29,-39,-48
39,9,-29,-24,34,-9,14,53,9,-14,-29,-48
48,14,-34,-31,41,-9,4,43,9,-14,-29,-48
34,14,-19,-24,26,-2,-39,-14,-43,-58,-58,-63
19,4,-14,-12,17,-4,-58,-63,-97,-102,-82,-73
19,-9,-29,-4,24,-19,-58,-73,-122,-117,-97,-87
19,-24,-43,2,31,-34,-58,-82,-141,-131,-112,-87
14,-24,-39,4,26,-31,-53,-73,-131,-122,-102,-87
14,-24,-39,4,26,-31,-53,-63,-126,-117,-97,-97
14,-29,-43,7,29,-36,-58,-63,-126,-122,-102,-97
9,-34,-43,12,26,-39,-63,-63,-122,-122,-107,-102
0,-43,-43,21,21,-43,-48,-58,-131,-136,-122,-107
-4,-48,-43,26,19,-46,-39,-48,-131,-151,-136,-107
-29,-39,-9,34,-9,-24,-19,-48,-122,-141,-122,-102
-58,-39,19,48,-39,-9,0,-53,-112,-131,-117,-107
-73,-43,29,58,-51,-7,0,-53,-122,-136,-126,-117
-73,-48,24,61,-48,-12,0,-63,-131,-146,-136,-122
-78,-48,29,63,-53,-9,-4,-63,-131,-146,-136,-122
-78,-48,29,63,-53,-9,-9,-63,-131,-146,-131,-122
-78,-43,34,61,-56,-4,-9,-58,-126,-141,-131,-122
-78,-43,34,61,-56,-4,-4,-58,-126,-141,-131,-117
-82,-43,39,63,-61,-2,-4,-63,-126,-151,-131,-117
-82,-43,39,63,-61,-2,-4,-63,-131,-156,-131,-117
-82,-43,39,63,-61,-2,-4,-63,-131,-156,-136,-122
-82,-43,39,63,-61,-2,-4,-63,-126,-151,-141,-126
-87,-48,39,68,-63,-4,-4,-58,-136,-156,-146,-126
-87,-48,39,68,-63,-4,-4,-58,-151,-161,-151,-126
-82,-39,43,61,-63,2,-4,-58,-141,-161,-146,-126
-82,-39,43,61,-63,2,-4,-58,-131,-156,-146,-122
-82,-39,43,61,-63,2,-4,-53,-131,-151,-146,-117
-82,-39,43,61,-63,2,-4,-53,-131,-151,-146,-112
-82,-43,39,63,-61,-2,0,-58,-136,-151,-151,-117
-73,-43,29,58,-51,-7,4,-43,-126,-151,-156,-126
-73,-53,19,63,-46,-17,-4,-48,-122,-151,-161,-146
-58,-58,0,58,-29,-29,-19,-48,-92,-112,-136,-141
-29,-78,-48,53,9,-63,-19,68,29,-14,-58,-107
63,-34,-97,-14,80,-65,-58,151,214,185,126,4
248,53,-195,-151,222,-70,-122,175,439,497,409,151
444,165,-278,-305,361,-56,-224,117,570,780,707,346
678,405,-273,-541,475,65,-356,92,834,1293,1317,756
771,639,-131,-705,451,253,-546,-117,844,1527,1678,1073
619,727,107,-673,256,417,-692,-585,361,1132,1381,1019
326,600,273,-463,26,436,-741,-1039,-448,170,497,570
-39,473,512,-217,-275,492,-717,-1400,-1312,-829,-424,97
-248,409,658,-80,-453,534,-717,-1581,-1732,-1322,-844,-112
-263,424,688,-80,-475,556,-702,-1532,-1664,-1283,-839,-131
-268,370,639,-51,-453,505,-658,-1405,-1551,-1220,-829,-180
-253,361,614,-53,-434,488,-580,-1137,-1268,-1005,-673,-141
-219,307,527,-43,-373,417,-488,-893,-1010,-819,-556,-136
-180,244,424,-31,-302,334,-405,-663,-766,-634,-458,-131
-126,190,317,-31,-222,253,-336,-497,-595,-507,-385,-131
-107,151,258,-21,-183,204,-229,-356,-458,-395,-302,-117
-82,117,200,-17,-141,158,-156,-239,-317,-283,-214,-92
-73,78,151,-2,-112,114,-107,-141,-195,-180,-146,-78
-58,53,112,2,-85,82,-63,-78,-131,-136,-122,-68
-48,39,87,4,-68,63,-34,-24,-97,-117,-112,-63
-43,24,68,9,-56,46,-19,29,-68,-97,-102,-68
-43,24,68,9,-56,46,-19,34,-39,-87,-97,-68
-43,24,68,9,-56,46,-19,34,-29,-78,-87,-63
-39,19,58,9,-48,39,-4,43,-24,-63,-73,-63
-39,9,48,14,-43,29,0,53,-14,-48,-53,-58
-39,4,43,17,-41,24,4,58,0,-34,-48,-53
-39,0,39,19,-39,19,4,58,4,-29,-43,-53
-34,0,34,17,-34,17,9,63,9,-24,-43,-53
-34,4,39,14,-36,21,14,73,9,-19,-39,-48
-34,4,39,14,-36,21,14,78,19,-19,-39,-48
-24,0,24,12,-24,12,19,78,24,-19,-39,-48
-24,0,24,12,-24,12,19,82,29,-9,-39,-43
-24,4,29,9,-26,17,19,87,39,-4,-39,-43
-24,0,24,12,-24,12,19,92,39,4,-34,-43
-24,4,29,9,-26,17,19,92,48,9,-29,-39
-24,-4,19,14,-21,7,24,97,43,14,-29,-34
-19,-9,9,14,-14,0,24,107,43,19,-14,-34
-9,4,14,2,-12,9,24,102,53,14,-14,-29
-9,19,29,-4,-19,24,24,102,63,19,-4,-24
-4,24,29,-9,-17,26,29,122,82,39,9,-9
0,24,24,-12,-12,24,29,131,87,58,19,-4
4,24,19,-14,-7,21,29,131,92,58,19,0
9,24,14,-17,-2,19,29,141,112,68,29,0
14,34,19,-24,-2,26,24,151,122,82,39,9
19,39,19,-29,0,29,24,161,131,92,39,9
19,39,19,-29,0,29,29,161,126,92,39,9
19,48,29,-34,-4,39,29,165,126,92,43,14
24,58,34,-41,-4,46,34,175,146,102,53,24
34,68,34,-51,0,51,34,190,161,122,68,34
39,82,43,-61,-2,63,34,204,175,141,87,48
43,82,39,-63,2,61,34,219,195,156,112,58
53,78,24,-65,14,51,29,234,214,170,126,63
63,73,9,-68,26,41,24,248,229,195,136,68
73,82,9,-78,31,46,29,263,253,209,136,78
82,97,14,-90,34,56,29,278,273,229,151,92
82,107,24,-95,29,65,34,287,292,234,161,102
97,117,19,-107,39,68,34,297,307,253,185,117
107,131,24,-119,41,78,34,317,336,278,209,131
117,141,24,-129,46,82,39,331,366,307,239,146
126,151,24,-139,51,87,39,351,390,336,258,161
136,165,29,-151,53,97,39,375,429,370,278,175
146,185,39,-165,53,112,39,385,448,395,302,195
156,200,43,-178,56,122,39,400,473,419,322,214
156,204,48,-180,53,126,39,409,497,439,331,224
156,224,68,-190,43,146,39,419,522,458,356,244
175,244,68,-209,53,156,34,429,541,483,380,268
190,253,63,-222,63,158,34,439,551,502,400,273
195,263,68,-229,63,165,34,444,575,517,409,287
200,273,73,-236,63,173,29,448,595,531,424,297
204,297,92,-251,56,195,24,453,605,551,444,312
209,322,112,-265,48,217,9,453,610,561,458,317
209,331,122,-270,43,226,0,439,605,561,458,326
209,336,126,-273,41,231,-4,429,605,556,458,331
209,336,126,-273,41,231,-4,419,590,551,463,336
200,331,131,-265,34,231,-4,395,575,541,463,336
200,336,136,-268,31,236,-4,370,546,522,444,341
195,331,136,-263,29,234,-14,336,507,488,429,336
175,312,136,-244,19,224,-19,297,453,453,400,317
165,292,126,-229,19,209,-29,268,405,414,366,302
156,268,112,-212,21,190,-29,244,370,375,336,273
136,248,112,-192,12,180,-24,209,326,326,292,244
131,224,92,-178,19,158,-24,175,268,273,253,214
102,195,92,-148,4,143,-24,156,229,234,219,190
78,161,82,-119,-2,122,-19,141,185,195,175,165
63,136,73,-100,-4,104,-19,112,141,146,122,136
58,117,58,-87,0,87,-19,87,97,107,82,87
34,97,63,-65,-14,80,-19,82,68,73,53,53
14,68,53,-41,-19,61,-19,73,48,48,29,48
4,39,34,-21,-14,36,-14,63,29,24,14,43
0,29,29,-14,-14,29,-9,48,-4,4,-4,29
-4,9,14,-2,-9,12,-9,34,-29,-19,-24,14
-9,4,14,2,-12,9,-9,34,-34,-29,-29,0
-19,-4,14,12,-17,4,-4,34,-43,-39,-39,-19
-24,-9,14,17,-19,2,0,29,-53,-53,-58,-24
-34,-24,9,29,-21,-7,4,29,-58,-58,-68,-29
-34,-24,9,29,-21,-7,4,34,-58,-63,-78,-39
-34,-24,9,29,-21,-7,9,39,-58,-73,-87,-48
-24,-19,4,21,-14,-7,9,34,-68,-78,-87,-48
-19,-24,-4,21,-7,-14,9,34,-68,-78,-87,-48
-29,-24,4,26,-17,-9,9,34,-63,-78,-87,-48
-39,-24,14,31,-26,-4,9,29,-58,-78,-87,-48
-43,-29,14,36,-29,-7,9,24,-58,-78,-87,-48
-43,-34,9,39,-26,-12,9,24,-58,-78,-87,-53
-43,-34,9,39,-26,-12,9,24,-63,-78,-92,-53
-43,-34,9,39,-26,-12,9,19,-68,-82,-92,-53
-43,-29,14,36,-29,-7,14,19,-73,-87,-102,-58
-43,-29,14,36,-29,-7,14,19,-78,-92,-107,-58
-39,-29,9,34,-24,-9,14,24,-78,-92,-112,-58
-34,-29,4,31,-19,-12,19,24,-78,-92,-112,-63
-34,-34,0,34,-17,-17,24,34,-68,-82,-102,-63
-39,-43,-4,41,-17,-24,24,48,-53,-68,-92,-58
-39,-43,-4,41,-17,-24,19,48,-53,-68,-92,-48
-39,-43,-4,41,-17,-24,14,48,-53,-68,-92,-39
-39,-43,-4,41,-17,-24,19,43,-58,-68,-92,-48
-39,-39,0,39,-19,-19,19,39,-68,-73,-92,-58
-43,-39,4,41,-24,-17,19,34,-68,-78,-102,-58
-48,-39,9,43,-29,-14,14,34,-68,-78,-107,-58
-48,-39,9,43,-29,-14,14,34,-68,-78,-102,-68
-48,-39,9,43,-29,-14,14,34,-68,-78,-102,-68
-43,-43,0,43,-21,-21,19,34,-63,-78,-102,-68
-43,-43,0,43,-21,-21,24,29,-63,-78,-107,-68
-43,-43,0,43,-21,-21,24,29,-68,-78,-102,-68
-43,-48,-4,46,-19,-26,24,34,-68,-78,-97,-68
-43,-48,-4,46,-19,-26,24,34,-68,-82,-97,-68
-48,-53,-4,51,-21,-29,24,34,-73,-87,-97,-68
-48,-53,-4,51,-21,-29,24,34,-78,-92,-102,-68
-48,-53,-4,51,-21,-29,24,29,-78,-97,-107,-68
-48,-53,-4,51,-21,-29,24,29,-78,-97,-107,-73
-48,-58,-9,53,-19,-34,24,29,-82,-97,-107,-73
-48,-63,-14,56,-17,-39,19,29,-82,-97,-107,-78
-48,-63,-14,56,-17,-39,19,24,-82,-97,-112,-78
-48,-58,-9,53,-19,-34,19,24,-82,-102,-112,-78
-48,-63,-14,56,-17,-39,19,24,-87,-102,-112,-78
-53,-68,-14,61,-19,-41,19,24,-92,-102,-112,-78
-53,-68,-14,61,-19,-41,14,19,-92,-102,-117,-78
-53,-68,-14,61,-19,-41,14,19,-97,-107,-122,-78
-53,-73,-19,63,-17,-46,14,19,-97,-107,-122,-78
-53,-73,-19,63,-17,-46,19,14,-97,-107,-122,-78
-53,-68,-14,61,-19,-41,24,9,-97,-107,-126,-78
-58,-68,-9,63,-24,-39,24,9,-97,-107,-126,-78
-58,-68,-9,63,-24,-39,24,9,-97,-107,-126,-78
-53,-63,-9,58,-21,-36,24,4,-107,-107,-126,-82
-53,-63,-9,58,-21,-36,24,0,-107,-102,-126,-87
-53,-63,-9,58,-21,-36,24,0,-102,-102,-126,-87
-53,-63,-9,58,-21,-36,24,0,-102,-102,-126,-87
-63,-68,-4,65,-29,-36,24,0,-102,-112,-131,-92
-73,-73,0,73,-36,-36,24,0,-107,-117,-136,-92
-63,-73,-9,68,-26,-41,19,-4,-102,-122,-136,-92
-58,-68,-9,63,-24,-39,19,-4,-97,-122,-136,-92
-53,-68,-14,61,-19,-41,19,-4,-97,-122,-131,-92
-48,-68,-19,58,-14,-43,19,-4,-97,-122,-126,-97
-48,-68,-19,58,-14,-43,19,-9,-102,-122,-126,-82
-48,-68,-19,58,-14,-43,19,-14,-107,-122,-126,-73
-48,-68,-19,58,-14,-43,24,-14,-112,-122,-126,-82
-48,-68,-19,58,-14,-43,24,-9,-112,-122,-126,-87
-48,-73,-24,61,-12,-48,19,-4,-107,-122,-131,-92
-48,-73,-24,61,-12,-48,19,-4,-107,-126,-131,-97
-53,-68,-14,61,-19,-41,19,-9,-107,-126,-131,-97
-58,-68,-9,63,-24,-39,19,-9,-107,-126,-136,-97
-58,-68,-9,63,-24,-39,24,-9,-112,-126,-136,-92
-58,-73,-14,65,-21,-43,29,-4,-112,-122,-131,-87
-58,-78,-19,68,-19,-48,29,0,-112,-122,-131,-82
-58,-82,-24,70,-17,-53,29,0,-112,-122,-131,-82
-58,-73,-14,65,-21,-43,29,0,-102,-117,-126,-87
-58,-73,-14,65,-21,-43,29,0,-97,-112,-122,-87
-58,-73,-14,65,-21,-43,29,0,-97,-117,-126,-87
-58,-68,-9,63,-24,-39,29,-4,-97,-117,-126,-87
-58,-68,-9,63,-24,-39,29,-9,-102,-122,-126,-97
-58,-68,-9,63,-24,-39,29,-9,-102,-126,-131,-102
-53,-58,-4,56,-24,-31,34,0,-92,-117,-122,-97
-53,-53,0,53,-26,-26,39,9,-82,-112,-117,-92
-43,-39,4,41,-24,-17,43,14,-68,-97,-107,-78
-39,-29,9,34,-24,-9,48,19,-58,-87,-97,-68
-29,-29,0,29,-14,-14,48,19,-53,-78,-92,-58
-19,-29,-9,24,-4,-19,48,19,-48,-68,-87,-48
-24,-34,-9,29,-7,-21,58,24,-43,-68,-82,-48
-14,-39,-24,26,4,-31,58,34,-39,-63,-73,-48
-9,-43,-34,26,12,-39,63,43,-39,-58,-68,-48
9,-48,-58,19,34,-53,63,53,-34,-53,-68,-43
24,-48,-73,12,48,-61,48,63,-24,-43,-53,-43
39,-53,-92,7,65,-73,48,73,-19,-39,-43,-39
43,-48,-92,2,68,-70,43,78,0,-19,-34,-29
48,-29,-78,-9,63,-53,29,73,9,-9,-29,-29
48,-24,-73,-12,61,-48,4,53,-9,-24,-39,-29
34,-24,-58,-4,46,-41,-24,9,-53,-58,-68,-43
19,-34,-53,7,36,-43,-34,-29,-107,-97,-97,-53
19,-48,-68,14,43,-58,-39,-34,-122,-107,-107,-68
19,-68,-87,24,53,-78,-39,-39,-122,-122,-112,-68
19,-73,-92,26,56,-82,-34,-43,-126,-131,-112,-68
24,-78,-102,26,63,-90,-34,-43,-136,-136,-117,-82
24,-87,-112,31,68,-100,-34,-43,-136,-141,-122,-87
24,-92,-117,34,70,-104,-34,-43,-131,-136,-126,-92
9,-97,-107,43,58,-102,-19,-39,-131,-131,-126,-97
-4,-97,-92,51,43,-95,-9,-24,-117,-126,-122,-92
-19,-87,-68,53,24,-78,0,-19,-112,-126,-117,-87
-43,-82,-39,63,-2,-61,19,-24,-112,-131,-126,-97
-63,-87,-24,75,-19,-56,29,-24,-122,-136,-136,-107
-63,-97,-34,80,-14,-65,29,-34,-131,-146,-146,-112
-68,-97,-29,82,-19,-63,29,-34,-131,-146,-146,-112
-68,-97,-29,82,-19,-63,24,-34,-131,-146,-141,-107
-68,-92,-24,80,-21,-58,19,-29,-126,-141,-141,-102
-63,-87,-24,75,-19,-56,19,-29,-126,-141,-146,-97
-63,-82,-19,73,-21,-51,14,-34,-126,-146,-151,-97
-63,-78,-14,70,-24,-46,14,-39,-131,-151,-151,-112
-63,-73,-9,68,-26,-41,14,-43,-131,-156,-151,-126
-68,-73,-4,70,-31,-39,19,-43,-126,-151,-151,-117
