I,II,III,aVR,aVL,aVF,V1,V2,V3,V4,V5,V6,
68,-9,-78,-29,73,-43,165,253,185,126,107,87
78,9,-68,-43,73,-29,161,268,195,141,112,87
87,29,-58,-58,73,-14,156,283,204,156,117,87
63,9,-53,-36,58,-21,131,287,204,156,117,87
39,-9,-48,-14,43,-29,107,292,204,156,117,87
48,0,-48,-24,48,-24,97,302,214,161,122,87
58,9,-48,-34,53,-19,87,312,224,165,126,87
63,29,-34,-46,48,-2,112,297,224,165,126,87
68,48,-19,-58,43,14,136,283,224,165,126,87
68,39,-29,-53,48,4,107,273,214,161,126,87
68,29,-39,-48,53,-4,78,263,204,156,126,87
68,14,-53,-41,61,-19,78,273,204,156,126,92
68,0,-68,-34,68,-34,78,283,204,156,126,97
87,9,-78,-48,82,-34,58,283,204,156,131,102
107,19,-87,-63,97,-34,39,283,204,156,136,107
107,24,-82,-65,95,-29,39,263,200,156,136,112
107,29,-78,-68,92,-24,39,244,195,156,136,117
122,43,-78,-82,100,-17,68,239,195,161,141,122
136,58,-78,-97,107,-9,97,234,195,165,146,126
136,58,-78,-97,107,-9,73,229,195,175,156,136
136,58,-78,-97,107,-9,48,224,195,185,165,146
141,58,-82,-100,112,-12,29,219,195,185,165,146
146,58,-87,-102,117,-14,9,214,195,185,165,146
146,68,-78,-107,112,-4,9,209,195,185,165,146
146,78,-68,-112,107,4,9,204,195,185,165,146
146,78,-68,-112,107,4,19,200,195,185,165,146
146,78,-68,-112,107,4,29,195,195,185,165,146
136,73,-63,-104,100,4,29,170,190,180,165,146
126,68,-58,-97,92,4,29,146,185,175,165,146
126,68,-58,-97,92,4,24,146,180,170,161,141
126,68,-58,-97,92,4,19,146,175,165,156,136
122,68,-53,-95,87,7,19,126,156,151,141,122
117,68,-48,-92,82,9,19,107,136,136,126,107
117,68,-48,-92,82,9,29,102,131,126,122,102
117,68,-48,-92,82,9,39,97,126,117,117,97
102,43,-58,-73,80,-7,19,82,107,97,92,78
87,19,-68,-53,78,-24,0,68,87,78,68,58
63,4,-58,-34,61,-26,0,68,78,68,58,48
39,-9,-48,-14,43,-29,0,68,68,58,48,39
39,-9,-48,-14,43,-29,9,68,68,53,48,39
39,-9,-48,-14,43,-29,19,68,68,48,48,39
19,-34,-53,7,36,-43,34,68,63,48,39,39
0,-58,-58,29,29,-58,48,68,58,48,29,39
24,-34,-58,4,41,-46,48,68,58,53,43,43
48,-9,-58,-19,53,-34,48,68,58,58,58,48
58,0,-58,-29,58,-29,43,68,58,58,58,48
68,9,-58,-39,63,-24,39,68,58,58,58,48
58,9,-48,-34,53,-19,39,53,63,53,53,43
48,9,-39,-29,43,-14,39,39,68,48,48,39
48,9,-39,-29,43,-14,19,39,68,48,48,39
48,9,-39,-29,43,-14,0,39,68,48,48,39
48,-9,-58,-19,53,-34,-9,29,53,43,43,39
48,-29,-78,-9,63,-53,-19,19,39,39,39,39
48,-34,-82,-7,65,-58,-19,19,39,39,39,39
48,-39,-87,-4,68,-63,-19,19,39,39,39,39
48,-39,-87,-4,68,-63,-14,19,39,39,39,34
48,-39,-87,-4,68,-63,-9,19,39,39,39,29
43,-39,-82,-2,63,-61,-9,19,39,34,34,29
39,-39,-78,0,58,-58,-9,19,39,29,29,29
39,-39,-78,0,58,-58,-9,24,39,29,29,29
39,-39,-78,0,58,-58,-9,29,39,29,29,29
53,-39,-92,-7,73,-65,4,34,39,29,29,24
68,-39,-107,-14,87,-73,19,39,39,29,29,19
48,-58,-107,4,78,-82,4,39,34,29,29,19
29,-78,-107,24,68,-92,-9,39,29,29,29,19
29,-78,-107,24,68,-92,-9,39,29,24,24,19
29,-78,-107,24,68,-92,-9,39,29,19,19,19
29,-78,-107,24,68,-92,-4,39,29,19,19,19
29,-78,-107,24,68,-92,0,39,29,19,19,19
19,-78,-97,29,58,-87,9,29,19,14,14,9
9,-78,-87,34,48,-82,19,19,9,9,9,0
24,-63,-87,19,56,-75,19,19,9,9,9,0
39,-48,-87,4,63,-68,19,19,9,9,9,0
14,-73,-87,29,51,-80,0,19,4,0,0,-4
-9,-97,-87,53,39,-92,-19,19,0,-9,-9,-9
-29,-107,-78,68,24,-92,-48,19,0,-9,-9,-9
-43,-122,-78,82,17,-100,-34,4,-4,-14,-14,-9
-63,-141,-78,102,7,-109,-19,-4,-14,-24,-19,-14
-39,-141,-102,90,31,-122,43,-24,-24,-34,-19,-14
-9,-92,-82,51,36,-87,53,-9,-9,-19,-9,-4
19,-53,-73,17,46,-63,68,0,0,0,-4,0
14,-43,-58,14,36,-51,87,14,4,0,-4,0
9,-53,-63,21,36,-58,102,29,9,0,-4,0
9,-43,-53,17,31,-48,68,34,9,0,-4,0
14,-43,-58,14,36,-51,43,34,9,4,0,0
14,-43,-58,14,36,-51,34,29,19,4,9,9
24,-43,-68,9,46,-56,24,29,24,0,14,19
9,-58,-68,24,39,-63,24,0,0,0,0,0
4,-73,-78,34,41,-75,19,-19,-19,-4,-9,-9
4,-82,-87,39,46,-85,-14,-14,-19,-14,-9,-9
4,-92,-97,43,51,-95,-43,-14,-14,-19,-14,-9
14,-92,-107,39,61,-100,-34,-14,-19,-19,-14,-9
24,-92,-117,34,70,-104,-34,-19,-19,-19,-9,-9
24,-92,-117,34,70,-104,-43,-14,-19,-14,-9,-9
24,-92,-117,34,70,-104,-53,-14,-19,-14,-9,-9
4,-107,-112,51,58,-109,-53,-19,-24,-19,-14,-14
-9,-112,-102,61,46,-107,-43,-19,-24,-19,-14,-14
0,-112,-112,56,56,-112,-39,-19,-29,-19,-19,-14
9,-107,-117,48,63,-112,-39,-14,-29,-19,-19,-14
9,-107,-117,48,63,-112,-39,-19,-29,-19,-24,-14
9,-112,-122,51,65,-117,-34,-24,-29,-19,-29,-14
19,-97,-117,39,68,-107,-24,-24,-24,-19,-29,-14
29,-82,-112,26,70,-97,-14,-29,-24,-29,-29,-14
29,-87,-117,29,73,-102,-29,-24,-24,-19,-19,-19
19,-102,-122,41,70,-112,-29,-24,-29,-19,-24,-29
9,-107,-117,48,63,-112,-53,-29,-43,-34,-34,-34
4,-107,-112,51,58,-109,-73,-29,-48,-43,-43,-39
-4,-102,-97,53,46,-100,-68,-29,-43,-39,-43,-39
-9,-97,-87,53,39,-92,-63,-19,-39,-39,-43,-39
-4,-97,-92,51,43,-95,-53,-29,-39,-34,-39,-39
-4,-102,-97,53,46,-100,-34,-43,-39,-34,-39,-39
0,-97,-97,48,48,-97,-29,-29,-43,-43,-39,-39
4,-87,-92,41,48,-90,-29,-4,-43,-43,-34,-34
14,-92,-107,39,61,-100,-29,-4,-39,-39,-34,-29
14,-107,-122,46,68,-114,-24,0,-29,-34,-34,-29
-4,-131,-126,68,61,-129,0,24,-24,-34,-34,-48
-19,-175,-156,97,68,-165,43,92,0,-34,-39,-78
24,-170,-195,73,109,-183,87,190,63,0,-34,-63
97,-156,-253,29,175,-204,122,297,141,63,14,-24
200,-136,-336,-31,268,-236,102,390,248,170,112,82
346,-78,-424,-134,385,-251,82,497,419,346,278,244
419,102,-317,-261,368,-107,19,448,644,610,522,478
224,336,112,-280,56,224,-73,141,688,707,649,629
-170,434,605,-131,-387,519,-63,-478,195,273,336,375
-644,375,1019,134,-832,697,-4,-1083,-541,-429,-253,-131
-854,248,1102,302,-978,675,-14,-1337,-980,-849,-624,-468
-912,185,1098,363,-1005,641,19,-1337,-1024,-893,-712,-570
-927,170,1098,378,-1012,634,53,-1366,-1044,-902,-727,-595
-883,117,1000,383,-941,558,24,-1400,-1107,-927,-746,-605
-814,-9,805,412,-810,397,-58,-1410,-1244,-1029,-819,-658
-712,-131,580,422,-646,224,-112,-1322,-1263,-1034,-819,-668
-556,-131,424,344,-490,146,-156,-1034,-985,-819,-639,-527
-380,-102,278,241,-329,87,-161,-717,-668,-556,-434,-356
-234,-58,175,146,-204,58,-126,-458,-390,-317,-253,-209
-107,-58,48,82,-78,-4,-68,-244,-224,-165,-151,-122
-58,-78,-19,68,-19,-48,-48,-97,-122,-97,-92,-73
-39,-87,-48,63,4,-68,-48,-29,-53,-53,-53,-43
-29,-87,-58,58,14,-73,-34,-24,-29,-29,-39,-29
-9,-78,-68,43,29,-73,-19,-29,-34,-24,-39,-34
0,-78,-78,39,39,-78,-34,-9,-34,-34,-39,-34
34,-68,-102,17,68,-85,-39,19,-14,-29,-29,-29
43,-63,-107,9,75,-85,-43,19,-4,-14,-24,-19
19,-82,-102,31,61,-92,-58,14,-9,-14,-29,-19
19,-97,-117,39,68,-107,-78,19,-14,-19,-34,-29
24,-97,-122,36,73,-109,-92,34,-14,-19,-34,-29
34,-87,-122,26,78,-104,-73,48,-4,-14,-29,-19
39,-78,-117,19,78,-97,-58,58,-4,-14,-29,-19
34,-92,-126,29,80,-109,-43,34,-29,-29,-43,-39
14,-131,-146,58,80,-139,-34,14,-48,-48,-63,-58
4,-131,-136,63,70,-134,-34,24,-48,-48,-63,-58
4,-117,-122,56,63,-119,-34,29,-39,-43,-53,-48
24,-87,-112,31,68,-100,-34,34,-34,-39,-48,-48
43,-78,-122,17,82,-100,-43,48,-24,-39,-43,-48
19,-107,-126,43,73,-117,-34,58,-19,-34,-43,-43
-4,-126,-122,65,58,-124,-34,43,-19,-34,-43,-43
-4,-122,-117,63,56,-119,-19,34,-24,-43,-43,-43
-4,-122,-117,63,56,-119,-4,43,-19,-43,-39,-43
9,-102,-112,46,61,-107,9,48,-9,-24,-24,-39
24,-68,-92,21,58,-80,29,53,-4,-9,-19,-24
34,-68,-102,17,68,-85,14,53,0,-9,-19,-24
43,-63,-107,9,75,-85,9,58,4,-4,-19,-24
24,-63,-87,19,56,-75,14,78,14,0,-14,-24
9,-63,-73,26,41,-68,24,92,24,14,-4,-19
9,-58,-68,24,39,-63,14,97,29,19,0,-14
14,-48,-63,17,39,-56,9,107,43,29,9,-4
0,-48,-48,24,24,-48,14,122,53,43,19,19
-14,-48,-34,31,9,-41,14,141,73,53,39,29
9,-14,-24,2,17,-19,14,146,87,68,53,34
34,24,-9,-29,21,7,14,156,102,82,68,43
39,29,-9,-34,24,9,43,175,112,87,68,48
39,34,-4,-36,21,14,68,185,122,92,73,53
39,39,0,-39,19,19,53,195,126,97,73,58
43,39,-4,-41,24,17,43,204,131,97,78,58
43,43,0,-43,21,21,73,224,146,112,82,73
43,43,0,-43,21,21,92,239,156,117,87,73
39,58,19,-48,9,39,97,248,165,122,87,68
43,63,19,-53,12,41,97,258,165,126,92,63
43,68,24,-56,9,46,82,253,165,122,87,68
39,68,29,-53,4,48,68,244,161,122,82,78
39,68,29,-53,4,48,39,229,156,117,82,73
43,73,29,-58,7,51,4,219,151,112,82,68
24,43,19,-34,2,31,4,204,131,112,82,63
0,14,14,-7,-7,14,4,190,117,107,78,58
19,24,4,-21,7,14,19,190,122,107,78,63
43,39,-4,-41,24,17,24,190,122,107,82,73
73,58,-14,-65,43,21,9,200,126,122,97,82
92,73,-19,-82,56,26,-4,190,131,122,102,92
92,73,-19,-82,56,26,-9,185,131,122,107,92
102,73,-29,-87,65,21,-14,180,136,122,112,92
92,58,-34,-75,63,12,-14,165,126,117,107,102
87,48,-39,-68,63,4,-14,151,122,122,107,107
87,58,-29,-73,58,14,-24,156,126,122,112,112
97,68,-29,-82,63,19,-24,151,126,126,112,107
107,78,-29,-92,68,24,-19,146,131,131,122,117
117,68,-48,-92,82,9,-19,146,131,131,122,117
117,68,-48,-92,82,9,-43,136,131,131,117,112
112,68,-43,-90,78,12,-43,122,126,126,117,112
107,73,-34,-90,70,19,-34,117,126,126,117,107
107,78,-29,-92,68,24,-29,117,126,126,117,107
78,53,-24,-65,51,14,-39,107,126,126,117,107
48,29,-19,-39,34,4,-48,97,126,126,117,107
73,43,-29,-58,51,7,-48,97,126,126,117,107
73,43,-29,-58,51,7,-39,87,117,122,107,97
73,48,-24,-61,48,12,-34,82,107,117,97,92
87,63,-24,-75,56,19,-14,73,92,112,87,82
87,78,-9,-82,48,34,-24,73,97,107,87,82
87,82,-4,-85,46,39,-29,68,97,107,82,78
73,82,9,-78,31,46,-29,63,92,97,78,78
58,63,4,-61,26,34,-34,58,87,87,73,78
19,43,24,-31,-2,34,-29,58,73,78,58,68
-14,14,29,0,-21,21,-14,53,58,73,48,58
-14,14,29,0,-21,21,-34,48,68,73,58,58
-4,14,19,-4,-12,17,-53,48,73,68,63,58
0,29,29,-14,-14,29,-29,43,73,73,58,48
14,43,29,-29,-7,36,-9,48,78,73,58,48
4,43,39,-24,-17,41,-9,53,78,73,63,53
-4,43,48,-19,-26,46,-4,53,82,78,63,58
-19,34,53,-7,-36,43,29,53,78,73,58,53
-34,24,58,4,-46,41,53,48,78,68,58,48
-14,48,63,-17,-39,56,29,43,73,73,58,48
4,73,68,-39,-31,70,4,34,68,73,58,48
0,53,53,-26,-26,53,-29,9,53,58,43,39
0,43,43,-21,-21,43,-53,-9,43,48,34,34
0,29,29,-14,-14,29,-48,-14,29,39,24,24
0,19,19,-9,-9,19,-48,-14,19,29,19,14
0,19,19,-9,-9,19,-39,-19,9,19,9,9
0,14,14,-7,-7,14,-24,-24,0,9,0,4
4,14,9,-9,-2,12,-9,-24,0,9,-4,4
9,14,4,-12,2,9,4,-29,-4,0,-9,4
9,-9,-19,0,14,-14,-39,-29,-9,-4,-9,-4
0,-43,-43,21,21,-43,-68,-34,-19,-19,-24,-19
4,-48,-53,21,29,-51,-73,-34,-29,-24,-24,-19
14,-48,-63,17,39,-56,-73,-29,-29,-24,-24,-19
24,-43,-68,9,46,-56,-39,-29,-24,-19,-24,-19
39,-39,-78,0,58,-58,-4,-19,-19,-19,-24,-19
29,-58,-87,14,58,-73,-39,-24,-24,-14,-24,-19
14,-82,-97,34,56,-90,-63,-34,-29,-14,-29,-19
14,-87,-102,36,58,-95,-63,-34,-34,-24,-34,-24
14,-87,-102,36,58,-95,-68,-24,-34,-24,-34,-24
43,-63,-107,9,75,-85,-39,-14,-29,-14,-24,-9
63,-48,-112,-7,87,-80,-4,0,-19,-4,-14,0
48,-58,-107,4,78,-82,-24,19,19,29,19,14
39,-87,-126,24,82,-107,-24,82,78,63,48,19
14,-117,-131,51,73,-124,9,165,165,102,39,0
19,-136,-156,58,87,-146,34,258,268,170,73,4
53,-200,-253,73,153,-226,73,409,326,200,78,9
131,-224,-356,46,244,-290,112,575,448,297,151,68
497,-122,-619,-187,558,-370,53,839,819,678,492,385
595,34,-561,-314,578,-263,-34,844,1010,893,717,619
248,278,29,-263,109,153,-141,9,561,605,585,575
-175,366,541,-95,-358,453,-200,-810,-131,48,175,278
-610,204,814,202,-712,509,-170,-1366,-976,-756,-488,-297
-893,107,1000,392,-946,553,-97,-1668,-1424,-1185,-868,-639
-941,117,1058,412,-1000,588,-29,-1659,-1424,-1190,-893,-683
-932,87,1019,422,-976,553,-24,-1654,-1468,-1210,-922,-712
-888,14,902,436,-895,458,-141,-1693,-1595,-1293,-985,-761
-810,-53,756,431,-783,351,-229,-1634,-1605,-1278,-976,-766
-668,-58,610,363,-639,275,-273,-1337,-1302,-1049,-795,-624
-507,-34,473,270,-490,219,-278,-1010,-961,-771,-590,-453
-341,19,361,161,-351,190,-244,-717,-610,-483,-366,-283
-195,29,224,82,-209,126,-185,-468,-370,-283,-219,-170
-107,9,117,48,-112,63,-131,-248,-224,-170,-131,-102
-48,0,48,24,-48,24,-97,-107,-112,-82,-63,-53
-48,-19,29,34,-39,4,-82,-68,-58,-48,-39,-29
-39,-29,9,34,-24,-9,-68,-39,-34,-34,-29,-24
-19,-39,-19,29,0,-29,-58,-19,-34,-34,-29,-24
24,-39,-63,7,43,-51,-39,9,-14,-19,-19,-19
39,-29,-68,-4,53,-48,-39,14,0,-4,-14,-9
19,-43,-63,12,41,-53,-48,14,0,-4,-19,-9
19,-73,-92,26,56,-82,-53,14,-19,-14,-29,-24
24,-87,-112,31,68,-100,-53,24,-34,-19,-34,-29
34,-78,-112,21,73,-95,-34,29,-14,-14,-29,-19
39,-68,-107,14,73,-87,-19,29,-4,-14,-29,-19
39,-73,-112,17,75,-92,-19,29,-9,-14,-29,-24
24,-102,-126,39,75,-114,-24,34,-9,-19,-34,-29
19,-102,-122,41,70,-112,-24,43,-9,-19,-34,-34
24,-87,-112,31,68,-100,-24,48,0,-14,-24,-29
14,-87,-102,36,58,-95,-14,48,0,-9,-24,-29
4,-107,-112,51,58,-109,-14,58,4,-9,-24,-29
4,-117,-122,56,63,-119,-4,73,9,-4,-24,-24
4,-117,-122,56,63,-119,-4,63,9,-4,-24,-24
0,-112,-112,56,56,-112,-9,63,9,-4,-24,-24
-4,-112,-107,58,51,-109,-14,82,19,4,-19,-24
0,-102,-102,51,51,-102,-14,92,39,24,0,-14
4,-78,-82,36,43,-80,-9,102,53,39,9,4
4,-73,-78,34,41,-75,-4,102,58,39,9,4
4,-63,-68,29,36,-65,9,107,63,43,9,4
4,-58,-63,26,34,-61,4,131,78,48,14,9
9,-53,-63,21,36,-58,4,151,92,63,24,19
9,-29,-39,9,24,-34,34,156,102,73,34,24
14,0,-14,-7,14,-7,68,165,122,87,48,34
14,0,-14,-7,14,-7,87,175,126,102,53,53
14,0,-14,-7,14,-7,102,190,141,112,68,58
14,4,-9,-9,12,-2,102,195,151,117,78,58
14,14,0,-14,7,7,102,204,161,122,87,63
19,24,4,-21,7,14,87,204,170,131,87,68
19,34,14,-26,2,24,68,195,180,141,92,73
14,39,24,-26,-4,31,58,200,185,151,102,78
14,39,24,-26,-4,31,53,204,190,156,117,78
14,43,29,-29,-7,36,39,214,200,165,122,92
14,43,29,-29,-7,36,14,219,204,165,126,92
19,63,43,-41,-12,53,34,229,219,175,131,97
34,73,39,-53,-2,56,48,239,224,185,141,102
34,78,43,-56,-4,61,48,248,234,190,146,107
29,78,48,-53,-9,63,48,253,239,200,151,117
48,78,29,-63,9,53,48,253,244,204,151,122
73,82,9,-78,31,46,43,258,248,209,151,126
87,97,9,-92,39,53,39,273,258,229,161,136
97,112,14,-104,41,63,34,287,273,244,165,146
73,92,19,-82,26,56,34,263,268,234,165,141
53,78,24,-65,14,51,24,239,258,224,170,141
53,58,4,-56,24,31,24,263,258,239,180,146
43,34,-9,-39,26,12,24,268,258,239,180,151
53,48,-4,-51,29,21,4,273,258,239,185,151
73,63,-9,-68,41,26,-14,278,263,239,190,151
73,58,-14,-65,43,21,-14,263,253,229,180,151
78,58,-19,-68,48,19,-14,248,248,229,175,146
58,53,-4,-56,31,24,19,224,229,204,165,146
48,48,0,-48,24,24,63,190,204,185,151,136
68,58,-9,-63,39,24,53,180,200,185,156,136
87,48,-39,-68,63,4,39,175,190,180,151,126
68,34,-34,-51,51,0,4,151,170,165,126,112
43,19,-24,-31,34,-2,-9,126,151,151,107,102
24,0,-24,-12,24,-12,0,117,126,131,97,87
4,-19,-24,7,14,-21,4,107,107,117,87,73
43,9,-34,-26,39,-12,24,112,107,107,82,73
68,29,-39,-48,53,-4,29,107,92,102,78,68
48,19,-29,-34,39,-4,29,87,82,82,53,58
34,4,-29,-19,31,-12,29,68,68,63,43,43
29,-4,-34,-12,31,-19,29,43,53,53,34,39
14,-4,-19,-4,17,-12,34,39,43,48,24,34
24,14,-9,-19,17,2,29,39,43,43,19,34
24,9,-14,-17,19,-2,24,39,29,29,9,19
0,-9,-9,4,4,-9,29,34,24,24,19,24
-9,-4,4,7,-7,0,43,24,24,24,19,24
-14,0,14,7,-14,7,29,14,14,24,9,19
-19,9,29,4,-24,19,9,9,9,34,14,24
-19,14,34,2,-26,24,-4,4,9,29,9,24
-14,19,34,-2,-24,26,-14,0,9,24,9,19
9,43,34,-26,-12,39,-29,-4,14,24,14,24
34,58,24,-46,4,41,-48,-4,19,24,14,34
19,43,24,-31,-2,34,-53,-4,19,24,19,29
0,43,43,-21,-21,43,-53,-9,14,24,24,29
0,29,29,-14,-14,29,-63,-14,4,19,9,19
0,14,14,-7,-7,14,-68,-19,4,19,9,19
4,29,24,-17,-9,26,-58,-19,4,19,14,24
4,29,24,-17,-9,26,-53,-19,4,19,14,24
0,9,9,-4,-4,9,-43,-19,0,14,4,14
-4,-4,0,4,-2,-2,-34,-19,-4,14,0,9
-4,-19,-14,12,4,-17,-34,-19,-9,4,-4,4
-4,-29,-24,17,9,-26,-34,-9,-9,-4,-9,0
0,-58,-58,29,29,-58,-43,-9,-14,-4,-9,-4
0,-78,-78,39,39,-78,-53,-14,-19,-4,-14,-4
14,-58,-73,21,43,-65,-43,-19,-19,-4,-14,-4
34,-29,-63,-2,48,-46,-24,-14,-14,0,-9,-4
34,-48,-82,7,58,-65,-24,-14,-14,-4,-19,-9
0,-78,-78,39,39,-78,-29,-14,-19,-9,-29,-14
0,-78,-78,39,39,-78,-43,-14,-19,-19,-29,-14
0,-78,-78,39,39,-78,-53,-14,-19,-19,-24,-14
9,-63,-73,26,41,-68,-34,-9,-19,-19,-19,-14
19,-58,-78,19,48,-68,-19,-9,-24,-19,-34,-24
19,-58,-78,19,48,-68,-19,4,-14,-19,-29,-24
9,-53,-63,21,36,-58,-9,14,-4,-14,-24,-24
9,-43,-53,17,31,-48,-4,9,-9,-9,-24,-24
9,-34,-43,12,26,-39,4,9,-14,-9,-24,-19
-4,-63,-58,34,26,-61,14,4,-19,-14,-29,-19
-19,-82,-63,51,21,-73,14,0,-19,-19,-29,-19
-19,-82,-63,51,21,-73,14,0,-19,-24,-34,-29
-29,-87,-58,58,14,-73,19,0,-24,-24,-34,-39
-29,-78,-48,53,9,-63,4,4,-14,-14,-29,-29
-29,-78,-48,53,9,-63,-9,4,-9,-9,-24,-19
-4,-39,-34,21,14,-36,-9,19,-9,-4,-9,-4
-4,-34,-29,19,12,-31,-19,19,-9,-9,-9,-4
-4,-24,-19,14,7,-21,-4,14,-4,-9,-14,-14
0,-19,-19,9,9,-19,9,14,0,-9,-14,-14
-9,-29,-19,19,4,-24,34,14,9,0,-9,0
-19,-29,-9,24,-4,-19,63,14,19,4,-9,4
-29,-29,0,29,-14,-14,63,24,0,4,-9,4
-24,-29,-4,26,-9,-17,63,24,0,4,-14,4
-29,-48,-19,39,-4,-34,9,0,0,-4,-14,4
-53,-73,-19,63,-17,-46,-34,-14,-4,-9,-19,0
-39,-53,-14,46,-12,-34,-39,-19,-4,-4,-14,0
-34,-39,-4,36,-14,-21,-39,-24,-14,-9,-19,-9
-19,-34,-14,26,-2,-24,-19,-24,-14,-14,-19,-9
-4,-24,-19,14,7,-21,-19,-24,-14,-14,-19,-9
14,-4,-19,-4,17,-12,-24,-29,-14,-9,-19,-4
24,0,-24,-12,24,-12,-34,-24,-4,-4,-14,0
19,-4,-24,-7,21,-14,-34,-29,-14,-14,-24,-9
14,-9,-24,-2,19,-17,-43,-34,-24,-24,-34,-19
-14,-39,-24,26,4,-31,-58,-48,-43,-39,-43,-34
-39,-68,-29,53,-4,-48,-73,-63,-63,-58,-53,-48
-39,-68,-29,53,-4,-48,-73,-68,-68,-63,-53,-48
-39,-68,-29,53,-4,-48,-63,-68,-73,-63,-58,-48
-19,-48,-29,34,4,-39,-48,-63,-73,-63,-63,-48
4,-63,-68,29,36,-65,-43,-58,-78,-58,-63,-48
4,-58,-63,26,34,-61,-24,-53,-68,-53,-53,-39
4,-58,-63,26,34,-61,-9,-53,-63,-48,-43,-29
4,-68,-73,31,39,-70,-9,-39,-58,-48,-39,-29
9,-78,-87,34,48,-82,-9,-29,-58,-48,-39,-29
-9,-107,-97,58,43,-102,-19,-29,-58,-53,-48,-34
-29,-136,-107,82,39,-122,-29,-29,-58,-58,-58,-39
-29,-136,-107,82,39,-122,-29,-29,-58,-58,-58,-48
-29,-136,-107,82,39,-122,-29,-29,-58,-58,-58,-58
-24,-122,-97,73,36,-109,-39,-29,-53,-48,-48,-48
-19,-107,-87,63,34,-97,-48,-29,-48,-39,-39,-39
-4,-92,-87,48,41,-90,-24,-24,-48,-39,-34,-34
9,-78,-87,34,48,-82,0,-19,-48,-39,-29,-29
9,-78,-87,34,48,-82,9,-19,-43,-39,-29,-29
9,-78,-87,34,48,-82,19,-19,-39,-39,-29,-29
4,-73,-78,34,41,-75,29,-19,-34,-34,-29,-24
0,-68,-68,34,34,-68,39,-19,-29,-29,-29,-19
0,-68,-68,34,34,-68,19,-9,-29,-29,-19,-19
0,-68,-68,34,34,-68,0,0,-29,-29,-9,-19
-9,-78,-68,43,29,-73,-9,4,-29,-29,-19,-19
-19,-87,-68,53,24,-78,-19,9,-29,-29,-29,-19
-29,-112,-82,70,26,-97,-19,9,-29,-39,-34,-34
-39,-136,-97,87,29,-117,-19,9,-29,-48,-39,-48
-48,-136,-87,92,19,-112,19,-9,-39,-48,-48,-48
-58,-136,-78,97,9,-107,58,-29,-48,-48,-58,-48
-34,-102,-68,68,17,-85,58,-14,-39,-43,-43,-39
-9,-68,-58,39,24,-63,58,0,-29,-39,-29,-29
-4,-63,-58,34,26,-61,58,0,-19,-34,-29,-29
0,-58,-58,29,29,-58,58,0,-9,-29,-29,-29
0,-58,-58,29,29,-58,73,0,-19,-29,-29,-29
0,-58,-58,29,29,-58,87,0,-29,-29,-29,-29
-14,-68,-53,41,19,-61,78,-9,-29,-29,-34,-34
-29,-78,-48,53,9,-63,68,-19,-29,-29,-39,-39
-53,-87,-34,70,-9,-61,58,-19,-29,-29,-39,-39
-78,-97,-19,87,-29,-58,48,-19,-29,-29,-39,-39
-58,-78,-19,68,-19,-48,58,-19,-34,-34,-39,-39
-39,-58,-19,48,-9,-39,68,-19,-39,-39,-39,-39
-34,-48,-14,41,-9,-31,68,-19,-39,-39,-39,-39
-29,-39,-9,34,-9,-24,68,-19,-39,-39,-39,-39
-29,-39,-9,34,-9,-24,43,-19,-39,-39,-39,-39
-29,-39,-9,34,-9,-24,19,-19,-39,-39,-39,-39
-43,-39,4,41,-24,-17,9,-39,-34,-34,-39,-39
-58,-39,19,48,-39,-9,0,-58,-29,-29,-39,-39
-43,-34,9,39,-26,-12,0,-43,-24,-24,-29,-29
-29,-29,0,29,-14,-14,0,-29,-19,-19,-19,-19
-9,-14,-4,12,-2,-9,-24,-19,-9,-14,-14,-14
9,0,-9,-4,9,-4,-48,-9,0,-9,-9,-9
9,-9,-19,0,14,-14,-48,-9,0,-9,-9,-9
9,-19,-29,4,19,-24,-48,-9,0,-9,-9,-9
14,-24,-39,4,26,-31,-34,-9,0,-9,-9,-9
19,-29,-48,4,34,-39,-19,-9,0,-9,-9,-9
19,-34,-53,7,36,-43,-39,-9,0,-9,-9,-9
19,-39,-58,9,39,-48,-58,-9,0,-9,-9,-9
14,-68,-82,26,48,-75,-73,-9,-9,-14,-9,-9
9,-97,-107,43,58,-102,-87,-9,-19,-19,-9,-9
9,-97,-107,43,58,-102,-63,-4,-19,-19,-9,-14
9,-97,-107,43,58,-102,-39,0,-19,-19,-9,-19
14,-92,-107,39,61,-100,-39,0,-19,-24,-14,-19
19,-87,-107,34,63,-97,-39,0,-19,-29,-19,-19
24,-82,-107,29,65,-95,-34,0,-14,-29,-19,-19
29,-78,-107,24,68,-92,-29,0,-9,-29,-19,-19
29,-78,-107,24,68,-92,-19,0,-9,-29,-19,-19
29,-78,-107,24,68,-92,-9,0,-9,-29,-19,-19
29,-78,-107,24,68,-92,-9,4,-9,-29,-19,-19
29,-78,-107,24,68,-92,-9,9,-9,-29,-19,-19
29,-78,-107,24,68,-92,-9,9,-9,-19,-19,-19
29,-78,-107,24,68,-92,-9,9,-9,-9,-19,-19
19,-82,-102,31,61,-92,0,9,-9,-19,-19,-19
9,-87,-97,39,53,-92,9,9,-9,-29,-19,-19
9,-87,-97,39,53,-92,9,9,-9,-29,-19,-19
9,-87,-97,39,53,-92,9,9,-9,-29,-19,-19
24,-78,-102,26,63,-90,19,9,-9,-29,-19,-24
39,-68,-107,14,73,-87,29,9,-9,-29,-19,-29
19,-82,-102,31,61,-92,14,4,-19,-34,-29,-39
-9,-102,-92,56,41,-97,4,0,-24,-39,-39,-43
-43,-122,-78,82,17,-100,-4,-4,-34,-43,-48,-53
-48,-122,-73,85,12,-97,-4,-4,-34,-43,-48,-53
-48,-112,-63,80,7,-87,9,0,-29,-53,-43,-48
-48,-112,-63,80,7,-87,29,0,-29,-58,-43,-48
-48,-92,-43,70,-2,-68,58,0,-24,-48,-43,-48
-48,-92,-43,70,-2,-68,82,0,-19,-39,-43,-48
-48,-82,-34,65,-7,-58,39,0,-19,-39,-43,-48
-43,-82,-39,63,-2,-61,4,-4,-19,-34,-39,-48
-68,-107,-39,87,-14,-73,-39,-14,-19,-34,-39,-48
-82,-131,-48,107,-17,-90,-82,-19,-24,-39,-43,-48
-63,-102,-39,82,-12,-70,-78,-29,-24,-34,-39,-43
-34,-73,-39,53,2,-56,-78,-29,-19,-34,-29,-29
-14,-53,-39,34,12,-46,-48,-24,-14,-24,-14,-19
4,-34,-39,14,21,-36,-14,-24,-4,-9,-4,-9
19,-34,-53,7,36,-43,9,-14,0,-9,-4,-9
34,-34,-68,0,51,-51,24,-9,9,-9,0,-9
19,-39,-58,9,39,-48,-14,-4,9,-4,0,-9
4,-43,-48,19,26,-46,-53,-4,9,-4,0,-9
9,-53,-63,21,36,-58,-34,-4,4,-9,-4,-14
19,-53,-73,17,46,-63,-4,0,4,-9,-4,-14
48,-34,-82,-7,65,-58,9,14,14,-4,0,0
78,-9,-87,-34,82,-48,19,34,29,0,9,14
63,-29,-92,-17,78,-61,0,19,19,0,9,4
48,-53,-102,2,75,-78,-14,4,9,0,9,-4
34,-68,-102,17,68,-85,-14,14,9,-9,-9,-19
19,-82,-102,31,61,-92,-14,19,4,-29,-29,-34
34,-78,-112,21,73,-95,-14,34,14,-9,0,-19
39,-82,-122,21,80,-102,0,43,19,0,14,-9
39,-87,-126,24,82,-107,0,39,9,-4,4,-9
43,-87,-131,21,87,-109,4,39,9,-4,-4,-9
34,-92,-126,29,80,-109,9,39,14,-4,-4,-9
29,-97,-126,34,78,-112,14,48,19,-9,-4,-9
9,-117,-126,53,68,-122,4,48,19,-4,0,-14
-14,-141,-126,78,56,-134,4,43,19,-4,0,-19
-14,-131,-117,73,51,-124,-4,48,14,-9,-4,-24
-14,-117,-102,65,43,-109,-19,63,14,-4,-4,-24
24,-102,-126,39,75,-114,-9,73,29,4,4,-9
53,-97,-151,21,102,-124,4,87,48,14,14,0
63,-102,-165,19,114,-134,63,112,68,29,24,-9
78,-126,-204,24,141,-165,141,180,107,43,29,-29
73,-156,-229,41,151,-192,146,263,161,78,19,-29
97,-175,-273,39,185,-224,141,356,229,141,53,-4
214,-156,-370,-29,292,-263,87,448,312,224,151,102
375,-97,-473,-139,424,-285,34,556,458,375,317,263
512,92,-419,-302,466,-163,-34,507,736,692,614,546
380,336,-43,-358,212,146,-131,200,834,844,795,746
-97,419,517,-161,-307,468,-122,-434,351,409,463,473
-653,346,1000,153,-827,673,-63,-1054,-375,-292,-146,-53
-863,219,1083,322,-973,651,-29,-1327,-849,-756,-556,-429
-922,156,1078,383,-1000,617,48,-1346,-927,-844,-683,-570
-936,131,1068,402,-1002,600,48,-1371,-966,-863,-697,-605
-893,68,961,412,-927,514,-14,-1400,-1049,-897,-717,-624
-810,-48,761,429,-785,356,-117,-1424,-1195,-1005,-800,-678
-692,-161,531,427,-612,185,-190,-1351,-1224,-1015,-810,-688
-551,-165,385,358,-468,109,-195,-1083,-995,-829,-653,-561
-390,-141,248,265,-319,53,-161,-785,-727,-595,-473,-405
-248,-97,151,173,-200,26,-126,-522,-434,-370,-292,-268
-126,-97,29,112,-78,-34,-68,-302,-253,-234,-190,-190
-68,-112,-43,90,-12,-78,-29,-136,-151,-151,-126,-126
-39,-117,-78,78,19,-97,-9,-48,-82,-92,-82,-82
-39,-117,-78,78,19,-97,0,-29,-48,-68,-63,-63
-29,-107,-78,68,24,-92,9,-19,-43,-63,-58,-63
-39,-126,-87,82,24,-107,0,9,-43,-63,-53,-63
-24,-136,-112,80,43,-124,0,48,-24,-48,-39,-58
19,-102,-122,41,70,-112,9,58,4,-19,-24,-43
29,-92,-122,31,75,-107,9,63,19,-4,-19,-39
29,-107,-136,39,82,-122,14,73,19,-9,-19,-43
34,-107,-141,36,87,-124,24,92,24,-9,-14,-39
29,-117,-146,43,87,-131,14,97,34,-4,-9,-29
19,-126,-146,53,82,-136,0,97,34,-4,-9,-29
19,-117,-136,48,78,-126,9,97,34,-4,-9,-34
4,-131,-136,63,70,-134,14,102,39,-9,-14,-39
4,-126,-131,61,68,-129,19,112,39,-4,-9,-39
14,-107,-122,46,68,-114,24,117,48,4,4,-29
29,-78,-107,24,68,-92,39,117,43,9,4,-29
43,-68,-112,12,78,-90,43,126,43,9,4,-29
4,-112,-117,53,61,-114,53,112,39,4,0,-24
-34,-146,-112,90,39,-129,53,73,29,-4,-4,-24
-43,-141,-97,92,26,-119,29,63,19,-19,-19,-34
-53,-141,-87,97,17,-114,4,73,19,-24,-29,-43
-29,-126,-97,78,34,-112,4,78,29,-14,-14,-39
-4,-97,-92,51,43,-95,9,82,34,-9,-9,-24
0,-82,-82,41,41,-82,24,82,39,-4,-4,-24
4,-63,-68,29,36,-65,48,87,43,4,0,-24
14,-53,-68,19,41,-61,39,102,53,4,0,-19
29,-43,-73,7,51,-58,34,112,63,14,4,-9
29,-39,-68,4,48,-53,29,112,63,14,9,-9
34,-29,-63,-2,48,-46,29,117,73,19,19,-4
34,-34,-68,0,51,-51,29,126,78,34,24,9
34,-39,-73,2,53,-56,24,141,92,43,39,9
29,-58,-87,14,58,-73,24,146,92,43,39,9
24,-73,-97,24,61,-85,24,156,92,43,39,14
29,-68,-97,19,63,-82,29,175,97,48,39,14
29,-63,-92,17,61,-78,29,185,102,53,43,14
48,-58,-107,4,78,-82,34,195,102,58,43,14
73,-58,-131,-7,102,-95,43,204,102,58,48,9
63,-53,-117,-4,90,-85,58,214,112,68,53,24
53,-53,-107,0,80,-80,63,219,117,68,58,24
53,-53,-107,0,80,-80,53,234,126,73,58,24
63,-63,-126,0,95,-95,39,248,126,78,63,24
68,-43,-112,-12,90,-78,24,258,146,87,73,34
68,-29,-97,-19,82,-63,9,263,161,102,82,48
82,-24,-107,-29,95,-65,58,263,161,102,82,53
102,-14,-117,-43,109,-65,102,268,161,102,82,58
102,-14,-117,-43,109,-65,112,273,156,102,87,58
97,-14,-112,-41,104,-63,122,278,156,97,87,58
97,-19,-117,-39,107,-68,87,287,161,97,87,58
102,-19,-122,-41,112,-70,43,297,161,97,92,63
117,-14,-131,-51,124,-73,58,297,165,112,102,68
122,-14,-136,-53,129,-75,73,278,170,112,102,73
107,-14,-122,-46,114,-68,53,273,170,122,117,82
102,-14,-117,-43,109,-65,34,268,175,131,131,92
122,4,-117,-63,119,-56,29,273,180,141,141,107
146,29,-117,-87,131,-43,24,278,190,161,156,117
131,39,-92,-85,112,-26,4,273,195,161,161,126
126,48,-78,-87,102,-14,-4,258,195,165,161,126
136,73,-63,-104,100,4,0,253,204,185,185,151
146,78,-68,-112,107,4,0,253,209,200,200,165
190,122,-68,-156,129,26,-9,253,229,219,209,185
229,165,-63,-197,146,51,0,253,248,239,224,209
185,131,-53,-158,119,39,9,244,239,219,224,200
141,97,-43,-119,92,26,14,234,234,204,224,190
141,97,-43,-119,92,26,19,229,244,209,224,190
126,87,-39,-107,82,24,9,214,239,219,224,185
141,112,-29,-126,85,41,9,214,239,214,209,185
161,131,-29,-146,95,51,9,214,234,209,209,180
141,92,-48,-117,95,21,0,195,224,204,204,175
112,63,-48,-87,80,7,-4,195,219,204,200,170
122,87,-34,-104,78,26,-9,185,224,209,195,180
122,87,-34,-104,78,26,-14,175,214,204,185,175
112,58,-53,-85,82,2,-14,170,200,190,185,161
117,53,-63,-85,90,-4,-4,161,190,180,175,141
102,43,-58,-73,80,-7,-4,141,170,156,151,122
87,39,-48,-63,68,-4,-9,126,156,141,141,112
82,29,-53,-56,68,-12,-4,117,151,136,136,112
82,19,-63,-51,73,-21,4,107,146,131,136,107
68,19,-48,-43,58,-14,14,87,131,122,126,92
53,9,-43,-31,48,-17,19,73,117,112,112,82
48,-4,-53,-21,51,-29,0,78,112,102,102,78
39,-4,-43,-17,41,-24,-14,78,102,92,92,78
34,-19,-53,-7,43,-36,-29,63,82,73,73,58
29,-34,-63,2,46,-48,-39,48,73,58,68,48
34,-19,-53,-7,43,-36,-39,39,73,58,73,53
34,-19,-53,-7,43,-36,-43,29,73,58,73,53
29,-4,-34,-12,31,-19,-39,24,73,63,73,53
24,9,-14,-17,19,-2,-34,19,73,73,78,58
14,0,-14,-7,14,-7,-24,9,63,58,68,53
9,-9,-19,0,14,-14,-19,0,58,48,58,48
9,0,-9,-4,9,-4,-19,0,58,53,58,48
9,9,0,-9,4,4,-19,0,58,58,58,48
9,14,4,-12,2,9,-43,4,63,63,63,48
0,9,9,-4,-4,9,-43,4,63,63,58,43
-4,9,14,-2,-9,12,-48,4,63,68,58,43
19,24,4,-21,7,14,-24,4,63,73,58,43
29,43,14,-36,7,29,-9,9,68,73,73,53
39,53,14,-46,12,34,9,9,68,78,82,58
34,53,19,-43,7,36,9,9,68,78,82,58
29,34,4,-31,12,19,4,9,68,78,82,58
24,39,14,-31,4,26,-4,14,68,73,78,58
24,34,9,-29,7,21,-4,14,68,73,78,58
24,29,4,-26,9,17,-4,9,68,73,78,58
34,24,-9,-29,21,7,-4,9,63,68,73,58
24,24,0,-24,12,12,-4,0,53,63,63,39
24,24,0,-24,12,12,-9,0,48,53,58,29
34,29,-4,-31,19,12,-14,24,48,53,63,34
43,34,-9,-39,26,12,-14,43,53,58,63,39
63,53,-9,-58,36,21,-4,48,53,58,63,39
82,73,-9,-78,46,31,-4,48,58,58,68,39
43,43,0,-43,21,21,-14,29,53,53,58,34
4,14,9,-9,-2,12,-24,4,48,43,48,29
-9,-14,-4,12,-2,-9,-24,0,43,39,39,19
-19,-34,-14,26,-2,-24,-14,0,43,39,34,14
-19,-34,-14,26,-2,-24,-9,4,29,29,24,9
-19,-29,-9,24,-4,-19,-9,14,19,19,19,4
-14,-29,-14,21,0,-21,-14,14,19,19,19,4
-9,-34,-24,21,7,-29,-14,14,19,19,19,4
-4,-24,-19,14,7,-21,-34,14,19,19,19,9
0,-14,-14,7,7,-14,-53,9,14,9,19,14
19,-9,-29,-4,24,-19,-43,9,14,9,19,9
29,-14,-43,-7,36,-29,-19,4,9,0,4,0
29,-19,-48,-4,39,-34,-24,-19,-9,-14,-4,-4
34,-19,-53,-7,43,-36,-24,-39,-19,-24,-14,-9
29,-24,-53,-2,41,-39,-43,-39,-19,-19,-14,-9
29,-29,-58,0,43,-43,-63,-29,-19,-19,-14,-9
24,-29,-53,2,39,-41,-63,-29,-19,-14,-9,-9
14,-34,-48,9,31,-41,-53,-34,-19,-14,-9,-9
14,-39,-53,12,34,-46,-48,-39,-29,-24,-14,-19
14,-39,-53,12,34,-46,-48,-34,-34,-24,-14,-24
34,-48,-82,7,58,-65,-53,-29,-39,-29,-19,-24
43,-68,-112,12,78,-90,-53,-19,-39,-34,-24,-29
19,-107,-126,43,73,-117,-39,4,-43,-48,-48,-53
0,-165,-165,82,82,-165,-4,73,-29,-63,-78,-87
34,-175,-209,70,122,-192,39,165,14,-39,-78,-87
97,-175,-273,39,185,-224,73,268,73,14,-34,-63
180,-161,-341,-9,261,-251,53,336,170,107,63,34
307,-107,-414,-100,361,-261,34,419,331,268,229,185
361,82,-278,-222,319,-97,-4,370,551,522,458,400
146,326,180,-236,-17,253,-73,63,590,610,570,531
-200,424,624,-112,-412,524,-43,-527,107,180,244,273
-624,366,990,129,-807,678,34,-1102,-619,-517,-361,-239
-839,239,1078,300,-958,658,9,-1356,-1044,-932,-712,-561
-902,175,1078,363,-990,627,29,-1356,-1073,-971,-780,-649
-917,161,1078,378,-997,619,24,-1361,-1054,-936,-761,-649
-873,107,980,383,-927,544,-43,-1371,-1078,-917,-746,-634
-785,-9,775,397,-780,383,-131,-1371,-1210,-1010,-810,-673
-663,-122,541,392,-602,209,-190,-1273,-1224,-1005,-800,-668
-522,-112,409,317,-466,148,-229,-1010,-971,-805,-639,-541
-361,-73,287,217,-324,107,-229,-717,-678,-556,-453,-385
-219,-24,195,122,-207,85,-165,-448,-385,-317,-263,-229
-97,-19,78,58,-87,29,-78,-224,-204,-165,-151,-131
-48,-39,9,43,-29,-14,-24,-87,-122,-97,-92,-82
-29,-48,-19,39,-4,-34,9,-29,-73,-53,-53,-53
-34,-34,0,34,-17,-17,9,-9,-24,-29,-34,-34
-29,-9,19,19,-24,4,9,0,-4,-24,-29,-34
-39,-39,0,39,-19,-19,-4,14,-14,-24,-29,-34
-24,-58,-34,41,4,-46,-9,39,-4,-9,-19,-29
-14,-34,-19,24,2,-26,0,39,9,9,-4,-14
-39,-34,4,36,-21,-14,0,34,9,14,0,-9
-14,-43,-29,29,7,-36,9,34,4,9,-4,-19
14,-39,-53,12,34,-46,24,43,4,9,-4,-19
29,-29,-58,0,43,-43,34,48,14,14,0,-9
39,-19,-58,-9,48,-39,39,48,14,14,0,-9
39,-24,-63,-7,51,-43,19,48,9,9,0,-14
24,-53,-78,14,51,-65,-4,53,9,0,-4,-19
24,-63,-87,19,56,-75,-14,63,9,0,-4,-19
34,-58,-92,12,63,-75,-24,68,19,4,4,-9
34,-48,-82,7,58,-65,-34,58,9,4,0,-9
34,-58,-92,12,63,-75,-53,58,4,0,-4,-9
34,-63,-97,14,65,-80,-43,68,4,4,-4,-4
34,-58,-92,12,63,-75,-43,53,0,4,-4,-4
39,-48,-87,4,63,-68,-34,53,0,4,-9,-4
43,-43,-87,0,65,-65,-24,73,9,14,-9,-4
48,-39,-87,-4,68,-63,-24,78,24,24,4,0
53,-19,-73,-17,63,-46,-19,82,34,29,9,14
53,-19,-73,-17,63,-46,-29,82,39,29,19,14
53,-14,-68,-19,61,-41,-29,87,43,34,29,14
34,-29,-63,-2,48,-46,-24,97,48,34,19,9
19,-43,-63,12,41,-53,-14,102,53,43,14,9
9,-39,-48,14,29,-43,-14,102,48,43,19,4
4,-29,-34,12,19,-31,-9,107,53,48,29,4
24,-14,-39,-4,31,-26,-9,122,58,63,34,19
43,0,-43,-21,43,-21,-14,141,73,73,48,19
43,0,-43,-21,43,-21,-14,146,82,78,53,24
43,4,-39,-24,41,-17,-14,156,92,82,58,34
43,4,-39,-24,41,-17,-9,165,97,87,58,34
39,4,-34,-21,36,-14,-9,165,102,92,63,34
29,-4,-34,-12,31,-19,-24,175,107,97,63,39
24,-19,-43,-2,34,-31,-34,185,112,97,68,39
24,-14,-39,-4,31,-26,4,185,122,107,73,53
24,-14,-39,-4,31,-26,34,180,126,107,78,53
48,29,-19,-39,34,4,53,200,146,122,92,63
82,63,-19,-73,51,21,68,219,156,136,112,73
92,68,-24,-80,58,21,68,229,170,146,117,82
97,68,-29,-82,63,19,68,234,180,161,122,97
82,63,-19,-73,51,21,63,229,180,161,126,97
73,63,-9,-68,41,26,53,229,180,161,131,97
73,63,-9,-68,41,26,48,229,175,165,141,107
68,63,-4,-65,36,29,43,229,175,165,146,117
63,58,-4,-61,34,26,34,219,180,165,146,122
63,58,-4,-61,34,26,14,209,180,165,151,131
78,63,-14,-70,46,24,9,209,170,170,151,126
82,63,-19,-73,51,21,4,190,161,161,141,122
82,53,-29,-68,56,12,0,180,151,156,136,117
92,43,-48,-68,70,-2,-4,170,146,151,131,112
82,39,-43,-61,63,-2,-9,170,141,146,131,112
78,39,-39,-58,58,0,-14,170,141,151,136,107
73,48,-24,-61,48,12,-43,165,136,146,136,117
78,58,-19,-68,48,19,-63,151,126,146,131,117
78,73,-4,-75,41,34,-48,126,126,141,136,117
78,68,-9,-73,43,29,-39,107,122,131,131,107
63,68,4,-65,29,36,-63,92,112,126,112,97
43,68,24,-56,9,46,-68,78,102,122,97,92
53,68,14,-61,19,41,-58,68,92,117,97,87
63,68,4,-65,29,36,-53,58,87,117,97,82
63,63,0,-63,31,31,-39,48,82,92,87,73
48,48,0,-48,24,24,-39,29,63,73,78,58
24,34,9,-29,7,21,-39,19,48,58,53,48
4,14,9,-9,-2,12,-39,9,29,43,43,34
4,4,0,-4,2,2,-39,-4,29,39,39,29
-4,4,9,0,-7,7,-34,0,34,39,34,24
4,24,19,-14,-7,21,-34,4,43,48,34,29
4,19,14,-12,-4,17,-34,9,39,48,29,19
-14,-4,9,9,-12,2,-29,9,34,39,39,24
-19,-4,14,12,-17,4,-14,4,34,34,39,24
-19,0,19,9,-19,9,-14,9,29,29,29,19
-19,9,29,4,-24,19,-19,19,29,34,34,24
4,24,19,-14,-7,21,-4,19,39,43,34,34
34,39,4,-36,14,21,14,19,48,53,39,39
43,48,4,-46,19,26,34,14,48,53,43,34
53,48,-4,-51,29,21,48,14,48,53,43,34
39,19,-19,-29,29,0,9,29,48,53,43,29
19,4,-14,-12,17,-4,-24,39,43,53,43,29
19,-4,-24,-7,21,-14,-19,39,34,48,29,19
19,-14,-34,-2,26,-24,-9,39,34,48,29,19
48,19,-29,-34,39,-4,14,43,34,48,34,29
73,39,-34,-56,53,2,34,48,34,48,34,34
53,14,-39,-34,46,-12,14,39,29,39,29,29
34,-4,-39,-14,36,-21,-4,29,24,34,29,29
34,-9,-43,-12,39,-26,-19,29,24,34,29,29
34,-9,-43,-12,39,-26,-34,39,29,34,29,29
53,-4,-58,-24,56,-31,-34,34,24,29,29,24
68,9,-58,-39,63,-24,-34,24,19,24,24,24
34,-19,-53,-7,43,-36,-48,-9,-4,0,0,0
4,-39,-43,17,24,-41,-53,-34,-24,-19,-19,-24
4,-53,-58,24,31,-56,-53,-39,-34,-29,-29,-34
-29,-78,-48,53,9,-63,-58,-43,-48,-39,-39,-43
-4,-53,-48,29,21,-51,-24,-43,-43,-39,-39,-34
19,-29,-48,4,34,-39,14,-43,-39,-29,-34,-24
19,-29,-48,4,34,-39,4,-34,-39,-29,-24,-19
19,-39,-58,9,39,-48,-9,-29,-43,-29,-34,-24
9,-48,-58,19,34,-53,-29,-24,-43,-34,-34,-24
-9,-53,-43,31,17,-48,-39,-24,-43,-34,-34,-24
-19,-53,-34,36,7,-43,-48,-19,-34,-24,-29,-24
-29,-58,-29,43,0,-43,-53,-9,-24,-19,-29,-19
-29,-63,-34,46,2,-48,-39,-4,-19,-19,-24,-19
-29,-68,-39,48,4,-53,-29,0,-19,-19,-19,-19
-19,-58,-39,39,9,-48,-14,0,-14,-14,-19,-19
-9,-48,-39,29,14,-43,0,0,-9,-9,-19,-19
-9,-39,-29,24,9,-34,0,0,-9,-9,-14,-14
-19,-39,-19,29,0,-29,-4,0,-9,-4,-14,-14
-29,-39,-9,34,-9,-24,-14,-4,-14,-4,-19,-14
-9,-24,-14,17,2,-19,-24,-4,-14,4,-19,-14
-9,-19,-9,14,0,-14,-9,0,-9,-4,-14,-14
-9,-24,-14,17,2,-19,9,0,-9,-9,-14,-19
-9,-24,-14,17,2,-19,-4,-4,-14,-9,-14,-19
-9,-43,-34,26,12,-39,-24,-9,-19,-9,-14,-19
4,-14,-19,4,12,-17,-34,-4,-19,-9,-14,-14
24,4,-19,-14,21,-7,-34,-4,-19,-4,-9,-9
9,-9,-19,0,14,-14,-34,-19,-19,-14,-9,-9
4,-24,-29,9,17,-26,-34,-29,-24,-29,-14,-9
-4,-24,-19,14,7,-21,-39,-39,-24,-19,-14,-19
-4,-24,-19,14,7,-21,-48,-39,-19,-14,-9,-19
-4,-24,-19,14,7,-21,-34,-34,-19,-14,-4,-14
-4,-24,-19,14,7,-21,-14,-34,-14,-9,-4,-9
4,-19,-24,7,14,-21,0,-29,-14,-9,-4,-4
14,-14,-29,0,21,-21,4,-29,-9,-9,0,0
24,-9,-34,-7,29,-21,-4,-14,0,0,4,0
34,-4,-39,-14,36,-21,-14,-4,9,4,9,0
29,-14,-43,-7,36,-29,-24,0,4,0,4,-4
29,-14,-43,-7,36,-29,-24,9,4,0,4,-4
29,-24,-53,-2,41,-39,-4,9,0,0,0,-4
29,-29,-58,0,43,-43,9,14,0,0,0,-4
29,-29,-58,0,43,-43,4,9,-4,-4,-9,-14
29,-34,-63,2,46,-48,4,4,-9,-9,-19,-24
9,-53,-63,21,36,-58,-9,4,-14,-19,-24,-29
-9,-73,-63,41,26,-68,-24,0,-24,-39,-29,-34
-19,-92,-73,56,26,-82,-29,-9,-34,-39,-34,-39
-39,-122,-82,80,21,-102,-19,-24,-48,-48,-53,-48
-53,-136,-82,95,14,-109,-24,-29,-58,-53,-53,-48
-63,-146,-82,104,9,-114,-24,-29,-58,-53,-53,-48
-53,-126,-73,90,9,-100,-29,-29,-53,-48,-53,-48
-39,-107,-68,73,14,-87,-34,-19,-48,-48,-53,-48
-9,-68,-58,39,24,-63,-9,-9,-34,-29,-29,-34
14,-34,-48,9,31,-41,24,-4,-19,-14,-9,-19
-4,-63,-58,34,26,-61,24,-4,-24,-24,-24,-34
-24,-87,-63,56,19,-75,19,4,-24,-24,-34,-43
-14,-82,-68,48,26,-75,14,14,-14,-19,-34,-39
-14,-87,-73,51,29,-80,14,29,0,-14,-34,-39
-9,-87,-78,48,34,-82,43,58,14,-4,-34,-43
0,-107,-107,53,53,-107,92,131,48,4,-39,-58
14,-136,-151,61,82,-143,146,219,122,39,-34,-58
58,-156,-214,48,136,-185,190,317,209,102,14,-34
190,-136,-326,-26,258,-231,156,439,341,244,141,87
366,-78,-444,-143,405,-261,122,575,536,453,336,263
488,73,-414,-280,451,-170,14,473,727,697,590,512
341,278,-63,-309,202,107,-122,112,736,775,727,678
-43,375,419,-165,-231,397,-170,-639,68,239,361,409
-507,317,824,95,-666,570,-170,-1376,-844,-566,-283,-112
-722,204,927,258,-824,566,-185,-1625,-1307,-1039,-692,-478
-785,156,941,314,-863,549,-156,-1620,-1376,-1137,-819,-610
-810,97,907,356,-858,502,-185,-1600,-1376,-1127,-834,-644
-775,0,775,387,-775,387,-278,-1586,-1420,-1132,-854,-663
-702,-39,663,370,-683,312,-346,-1512,-1405,-1127,-849,-653
-595,-73,522,334,-558,224,-385,-1342,-1273,-1024,-771,-600
-453,-39,414,246,-434,187,-351,-1049,-976,-780,-580,-458
-292,24,317,134,-305,170,-278,-727,-639,-488,-366,-287
-175,58,234,58,-204,146,-204,-488,-380,-297,-214,-175
-78,48,126,14,-102,87,-107,-292,-234,-195,-141,-122
-29,14,43,7,-36,29,-78,-136,-131,-117,-82,-73
-9,-9,0,9,-4,-4,-68,-58,-63,-63,-43,-43
-9,-39,-29,24,9,-34,-68,-39,-43,-48,-39,-34
0,-58,-58,29,29,-58,-68,-29,-53,-53,-48,-43
-9,-82,-73,46,31,-78,-68,-9,-53,-53,-53,-48
4,-97,-102,46,53,-100,-58,19,-34,-39,-48,-48
9,-92,-102,41,56,-97,-48,4,-39,-43,-48,-48
-19,-112,-92,65,36,-102,-48,-14,-58,-63,-58,-58
-19,-117,-97,68,39,-107,-53,-4,-53,-58,-63,-68
-14,-107,-92,61,39,-100,-53,14,-43,-48,-63,-68
-4,-97,-92,51,43,-95,-43,19,-29,-43,-58,-48
0,-87,-87,43,43,-87,-39,19,-24,-43,-58,-39
-9,-82,-73,46,31,-78,-19,19,-24,-34,-48,-43
-34,-102,-68,68,17,-85,-4,24,-19,-29,-43,-48
-14,-82,-68,48,26,-75,0,39,-9,-19,-39,-39
14,-48,-63,17,39,-56,4,48,9,-4,-24,-19
29,-39,-68,4,48,-53,19,58,9,0,-19,-19
43,-48,-92,2,68,-70,24,78,14,0,-14,-19
29,-58,-87,14,58,-73,39,87,19,4,-14,-14
14,-58,-73,21,43,-65,43,73,19,4,-14,-14
4,-63,-68,29,36,-65,43,73,19,4,-14,-14
-4,-73,-68,39,31,-70,43,92,29,14,-9,-14
0,-68,-68,34,34,-68,43,102,48,29,9,-9
4,-48,-53,21,29,-51,48,112,63,39,19,4
9,-39,-48,14,29,-43,63,131,78,43,29,9
14,-24,-39,4,26,-31,87,156,92,53,39,14
9,-24,-34,7,21,-29,63,165,97,53,29,14
9,-24,-34,7,21,-29,43,170,102,63,24,19
9,-19,-29,4,19,-24,58,175,107,63,29,19
14,-9,-24,-2,19,-17,78,185,122,68,39,24
19,14,-4,-17,12,4,82,195,126,87,48,39
24,39,14,-31,4,26,82,209,141,102,68,39
24,39,14,-31,4,26,73,200,146,102,68,39
24,43,19,-34,2,31,63,195,151,102,68,43
29,63,34,-46,-2,48,63,195,151,102,68,43
29,82,53,-56,-12,68,58,185,151,102,73,43
19,68,48,-43,-14,58,34,195,146,97,63,34
14,48,34,-31,-9,41,14,204,141,87,58,19
14,48,34,-31,-9,41,24,204,141,92,58,34
14,43,29,-29,-7,36,24,200,136,87,58,34
14,58,43,-36,-14,51,29,209,141,87,53,34
24,63,39,-43,-7,51,29,219,136,87,53,34
14,58,43,-36,-14,51,34,219,136,82,53,29
0,48,48,-24,-24,48,39,214,131,82,53,29
0,43,43,-21,-21,43,53,214,131,82,53,29
4,43,39,-24,-17,41,63,219,131,82,53,29
19,43,24,-31,-2,34,68,229,126,82,48,24
29,43,14,-36,7,29,73,239,126,78,39,19
29,39,9,-34,9,24,87,248,131,78,39,24
34,39,4,-36,14,21,92,258,131,78,43,34
48,43,-4,-46,26,19,92,273,136,97,53,39
53,43,-9,-48,31,17,92,268,141,102,53,43
48,39,-9,-43,29,14,87,263,141,102,58,43
53,34,-19,-43,36,7,82,258,146,102,63,43
53,34,-19,-43,36,7,68,258,146,107,73,58
58,39,-19,-48,39,9,53,258,151,122,87,68
63,48,-14,-56,39,17,63,258,156,126,97,82
78,58,-19,-68,48,19,82,248,156,136,102,87
78,73,-4,-75,41,34,87,239,165,146,122,97
78,68,-9,-73,43,29,87,234,170,151,131,97
82,78,-4,-80,43,36,58,224,175,156,126,97
82,87,4,-85,39,46,48,214,180,161,126,102
82,87,4,-85,39,46,48,204,170,161,131,107
82,87,4,-85,39,46,43,195,165,165,136,112
82,87,4,-85,39,46,43,185,170,156,136,112
68,78,9,-73,29,43,29,165,161,151,136,107
63,78,14,-70,24,46,9,156,161,146,122,112
63,73,9,-68,26,41,-9,146,156,141,122,112
82,82,0,-82,41,41,-19,122,146,146,126,107
92,102,9,-97,41,56,-24,117,141,156,131,102
82,102,19,-92,31,61,4,107,141,141,112,102
63,78,14,-70,24,46,34,97,126,117,87,87
39,48,9,-43,14,29,9,92,107,97,87,78
29,43,14,-36,7,29,-4,82,92,82,78,63
24,48,24,-36,0,36,-19,53,68,68,58,53
19,58,39,-39,-9,48,-39,29,48,63,53,53
19,58,39,-39,-9,48,-58,14,43,58,48,48
24,58,34,-41,-4,46,-73,0,39,53,48,39
24,68,43,-46,-9,56,-73,-19,39,43,48,34
24,68,43,-46,-9,56,-78,-34,39,34,43,34
29,68,39,-48,-4,53,-68,-29,43,39,48,34
29,82,53,-56,-12,68,-53,-29,43,43,53,39
43,102,58,-73,-7,80,-34,-14,39,53,53,39
58,122,63,-90,-2,92,-9,0,43,68,68,48
53,117,63,-85,-4,90,-24,-4,43,68,63,53
43,97,53,-70,-4,75,-43,-9,43,68,53,53
39,73,34,-56,2,53,-43,-4,43,58,48,48
34,53,19,-43,7,36,-43,0,43,53,48,48
29,43,14,-36,7,29,-43,4,43,53,43,43
24,39,14,-31,4,26,-43,19,48,53,39,39
4,4,0,-4,2,2,-39,29,48,53,39,34
-19,-19,0,19,-9,-9,-34,34,48,53,34,34
-9,-14,-4,12,-2,-9,-43,29,48,53,34,34
4,0,-4,-2,4,-2,-43,34,53,58,39,34
29,4,-24,-17,26,-9,-19,34,58,63,39,34
19,0,-19,-9,19,-9,0,34,58,68,39,34
19,4,-14,-12,17,-4,0,29,58,58,39,34
19,9,-9,-14,14,0,4,24,58,58,43,34
19,24,4,-21,7,14,9,29,58,53,43,34
19,29,9,-24,4,19,9,29,53,48,24,24
14,9,-4,-12,9,2,0,29,48,43,24,19
0,-4,-4,2,2,-4,0,24,43,43,24,14
-4,-4,0,4,-2,-2,-29,19,39,43,24,14
-9,-4,4,7,-7,0,-53,19,34,39,24,19
-9,-14,-4,12,-2,-9,-43,19,34,39,19,14
-9,-14,-4,12,-2,-9,-43,19,39,39,19,9
0,-14,-14,7,7,-14,-29,4,19,19,4,0
0,-19,-19,9,9,-19,-9,-9,-4,4,-4,-9
-4,-19,-14,12,4,-17,-9,-14,-14,0,-14,-9
-9,-29,-19,19,4,-24,-9,-24,-29,-9,-24,-9
0,0,0,0,0,0,-9,-24,-34,-9,-14,-4
-14,-4,9,9,-12,2,-19,-39,-39,-19,-19,-14
-24,4,29,9,-26,17,-19,-53,-34,-19,-24,-24
-29,9,39,9,-34,24,-19,-63,-29,-19,-24,-24
-14,9,24,2,-19,17,-34,-63,-29,-14,-19,-14
0,19,19,-9,-9,19,-43,-63,-29,-14,-19,-14
-9,19,29,-4,-19,24,-43,-53,-43,-14,-14,-14
-4,19,24,-7,-14,21,-43,-53,-39,-14,-14,-14
14,19,4,-17,4,12,-53,-53,-29,-9,-9,-4
14,14,0,-14,7,7,-53,-43,-24,0,-9,0
29,14,-14,-21,21,0,-58,-34,-14,4,-4,0
34,9,-24,-21,29,-7,-58,-24,-14,0,-9,-9
19,0,-19,-9,19,-9,-39,-24,-14,-4,-9,-9
4,-4,-9,0,7,-7,-39,-24,-14,-4,-9,-9
19,9,-9,-14,14,0,-29,-24,-14,0,-9,-4
24,9,-14,-17,19,-2,-24,-14,-4,4,-4,0
14,0,-14,-7,14,-7,-39,-14,-4,4,-4,0
4,-9,-14,2,9,-12,-63,-14,-4,4,-4,0
24,0,-24,-12,24,-12,-24,-14,-4,4,-4,-4
48,9,-39,-29,43,-14,14,-14,-4,0,-4,-9
39,0,-39,-19,39,-19,4,-14,-9,-4,-4,-9
29,-9,-39,-9,34,-24,4,-9,-14,-4,-9,-9
9,0,-9,-4,9,-4,0,-4,-14,-9,-14,-19
-4,-24,-19,14,7,-21,-14,0,-19,-9,-14,-29
4,-19,-24,7,14,-21,-4,0,-19,-4,-14,-24
14,-19,-34,2,24,-26,0,-4,-24,0,-14,-19
-9,-48,-39,29,14,-43,-14,-4,-24,-9,-14,-19
-39,-78,-39,58,0,-58,-29,-9,-29,-19,-19,-19
-14,-53,-39,34,12,-46,-19,-4,-24,-19,-19,-19
9,-29,-39,9,24,-34,-9,0,-19,-19,-19,-19
19,-19,-39,0,29,-29,-9,0,-19,-19,-19,-19
29,-9,-39,-9,34,-24,-9,0,-19,-19,-19,-19
-29,-58,-29,43,0,-43,-9,-14,-29,-29,-29,-34
-87,-107,-19,97,-34,-63,-9,-29,-39,-39,-39,-48
-73,-92,-19,82,-26,-56,-9,-29,-39,-39,-39,-48
-58,-78,-19,68,-19,-48,-9,-29,-39,-39,-39,-48
-39,-53,-14,46,-12,-34,19,-29,-39,-39,-39,-39
-19,-29,-9,24,-4,-19,48,-29,-39,-39,-39,-29
-19,-24,-4,21,-7,-14,34,-43,-48,-43,-43,-39
-19,-19,0,19,-9,-9,19,-58,-58,-48,-48,-48
-9,-19,-9,14,0,-14,0,-63,-63,-53,-48,-48
0,-19,-19,9,9,-19,-19,-68,-68,-58,-48,-48
0,-29,-29,14,14,-29,-43,-68,-68,-58,-48,-48
0,-39,-39,19,19,-39,-68,-68,-68,-58,-48,-48
0,-39,-39,19,19,-39,-78,-68,-63,-58,-43,-48
0,-39,-39,19,19,-39,-87,-68,-58,-58,-39,-48
4,-29,-34,12,19,-31,-78,-58,-48,-39,-34,-34
9,-19,-29,4,19,-24,-68,-48,-39,-19,-29,-19
14,-14,-29,0,21,-21,-48,-43,-29,-14,-19,-14
19,-9,-29,-4,24,-19,-29,-39,-19,-9,-9,-9
19,-9,-29,-4,24,-19,-29,-39,-14,-9,-9,-4
19,-9,-29,-4,24,-19,-29,-39,-9,-9,-9,0
19,-9,-29,-4,24,-19,-29,-29,-9,-9,-9,0
19,-9,-29,-4,24,-19,-29,-19,-9,-9,-9,0
19,-19,-39,0,29,-29,-29,-19,-9,-9,-9,-4
19,-29,-48,4,34,-39,-29,-19,-9,-9,-9,-9
34,-14,-48,-9,41,-31,-19,-9,-4,-9,-9,-9
48,0,-48,-24,48,-24,-9,0,0,-9,-9,-9
29,-24,-53,-2,41,-39,-24,0,0,-9,-9,-14
9,-48,-58,19,34,-53,-39,0,0,-9,-9,-19
4,-58,-63,26,34,-61,-48,0,-4,-9,-14,-19
0,-68,-68,34,34,-68,-58,0,-9,-9,-19,-19
0,-58,-58,29,29,-58,-43,0,-9,-14,-19,-19
0,-48,-48,24,24,-48,-29,0,-9,-19,-19,-19
0,-48,-48,24,24,-48,-29,4,-9,-19,-19,-19
0,-48,-48,24,24,-48,-29,9,-9,-19,-19,-19
9,-43,-53,17,31,-48,-29,9,-9,-19,-19,-19
19,-39,-58,9,39,-48,-29,9,-9,-19,-19,-19
9,-39,-48,14,29,-43,-4,0,-9,-19,-19,-19
0,-39,-39,19,19,-39,19,-9,-9,-19,-19,-19
0,-34,-34,17,17,-34,43,-9,-9,-14,-19,-19
0,-29,-29,14,14,-29,68,-9,-9,-9,-19,-19
-4,-29,-24,17,9,-26,43,-9,-9,-9,-19,-14
-4,-19,-14,12,4,-17,29,-14,-9,-9,-19,-14
-4,-14,-9,9,2,-12,19,-24,-14,-14,-19,-14
-19,-4,14,12,-17,4,4,-29,-9,-14,-14,-9
-4,4,9,0,-7,7,0,-29,-9,-9,-14,-9
4,14,9,-9,-2,12,-9,-29,-9,-9,-14,-9
0,-19,-19,9,9,-19,-14,-34,-9,-14,-14,-9
0,-24,-24,12,12,-24,-24,-34,-9,-19,-14,-9
4,-4,-9,0,7,-7,-24,-34,-9,-14,-14,-9
4,14,9,-9,-2,12,-24,-39,-9,-14,-19,-9
14,4,-9,-9,12,-2,-43,-39,-19,-19,-24,-9
4,-4,-9,0,7,-7,-58,-48,-29,-19,-29,-19
-4,-19,-14,12,4,-17,-58,-58,-39,-29,-34,-29
-14,-34,-19,24,2,-26,-58,-63,-48,-34,-34,-34
-14,-34,-19,24,2,-26,-68,-63,-43,-29,-34,-29
-9,-34,-24,21,7,-29,-73,-58,-43,-29,-34,-29
0,-39,-39,19,19,-39,-73,-39,-29,-24,-24,-19
4,-43,-48,19,26,-46,-82,-14,-19,-14,-19,-9
14,-43,-58,14,36,-51,-78,-4,-19,-9,-19,-9
19,-53,-73,17,46,-63,-63,0,-24,-9,-24,-14
24,-43,-68,9,46,-56,-53,4,-14,-9,-19,-14
29,-34,-63,2,46,-48,-48,9,-9,-9,-19,-14
43,-14,-58,-14,51,-36,-29,14,-4,4,-4,0
58,0,-58,-29,58,-29,-14,14,0,19,9,14
58,9,-48,-34,53,-19,-4,24,9,19,9,14
58,24,-34,-41,46,-4,4,34,19,19,9,14
29,-4,-34,-12,31,-19,4,19,4,4,4,9
0,-39,-39,19,19,-39,-9,9,-4,0,0,0
-9,-53,-43,31,17,-48,-14,4,-9,-9,-14,-9
-9,-58,-48,34,19,-53,-24,0,-19,-14,-14,-9
4,-48,-53,21,29,-51,-24,4,-14,-9,-14,-9
14,-34,-48,9,31,-41,-19,9,-4,0,-14,-9
19,-29,-48,4,34,-39,0,24,0,0,-14,-9
24,-29,-53,2,39,-41,14,29,0,4,-9,-9
24,-39,-63,7,43,-51,24,24,0,4,-9,-9
24,-48,-73,12,48,-61,24,24,-4,-4,-14,-14
24,-48,-73,12,48,-61,19,34,-9,-9,-19,-19
34,-53,-87,9,61,-70,14,43,-9,-9,-24,-19
19,-73,-92,26,56,-82,4,39,-9,-9,-29,-19
4,-87,-92,41,48,-90,9,43,-4,-4,-34,-29
-4,-117,-112,61,53,-114,34,87,14,-9,-53,-63
-4,-146,-141,75,68,-143,58,146,53,0,-68,-78
39,-165,-204,63,122,-185,102,229,122,43,-34,-78
141,-151,-292,4,217,-222,102,312,229,141,53,0
380,-112,-492,-134,436,-302,43,492,453,370,263,195
595,24,-570,-309,583,-273,-63,517,697,653,536,458
507,268,-239,-387,373,14,-224,239,834,873,805,746
170,405,234,-287,-31,319,-322,-414,424,590,649,653
-385,322,707,31,-546,514,-307,-1259,-595,-322,-92,53
-692,170,863,261,-778,517,-302,-1708,-1346,-1010,-653,-419
-790,73,863,358,-827,468,-268,-1712,-1493,-1176,-849,-610
-829,4,834,412,-832,419,-283,-1688,-1522,-1234,-932,-702
-785,-24,761,405,-773,368,-317,-1639,-1522,-1215,-927,-707
-697,-43,653,370,-675,305,-356,-1542,-1493,-1195,-912,-692
-575,-68,507,322,-541,219,-375,-1371,-1346,-1068,-814,-629
-434,-14,419,224,-427,202,-356,-1063,-1015,-795,-600,-468
-307,19,326,143,-317,173,-317,-746,-688,-531,-414,-312
-224,39,263,92,-244,151,-263,-512,-429,-341,-268,-200
-107,24,131,41,-119,78,-161,-302,-268,-214,-170,-131
-39,0,39,19,-39,19,-97,-136,-151,-126,-102,-82
-14,-9,4,12,-9,-2,-58,-53,-73,-63,-63,-53
-9,-9,0,9,-4,-4,-39,-19,-29,-29,-43,-34
0,-14,-14,7,7,-14,-39,-9,-24,-24,-39,-34
4,-39,-43,17,24,-41,-39,9,-24,-24,-39,-34
14,-48,-63,17,39,-56,-39,39,-4,-9,-29,-29
4,-43,-48,19,26,-46,-39,39,9,4,-19,-19
0,-39,-39,19,19,-39,-19,39,14,4,-14,-14
19,-39,-58,9,39,-48,-4,43,14,0,-14,-19
24,-24,-48,0,36,-36,19,53,14,0,-9,-19
34,0,-34,-17,34,-17,53,58,24,4,0,-9
34,0,-34,-17,34,-17,39,58,19,4,0,-9
29,-9,-39,-9,34,-24,19,58,9,4,0,-14
0,-39,-39,19,19,-39,-4,63,9,0,-9,-19
-14,-43,-29,29,7,-36,-24,73,9,0,-14,-19
4,-29,-34,12,19,-31,-4,78,24,4,-4,-9
14,-19,-34,2,24,-26,24,78,29,9,-4,-9
24,-19,-43,-2,34,-31,34,87,34,9,-4,-9
34,-19,-53,-7,43,-36,53,97,39,14,-4,-4
19,-34,-53,7,36,-43,53,82,34,9,-4,-9
4,-43,-48,19,26,-46,53,82,29,4,-4,-14
4,-43,-48,19,26,-46,58,102,34,9,-9,-19
9,-39,-48,14,29,-43,63,107,39,14,-4,-19
14,-24,-39,4,26,-31,68,112,43,19,0,-9
14,-29,-43,7,29,-36,68,112,48,19,0,-14
4,-24,-29,9,17,-26,58,102,43,14,-9,-24
-9,-24,-14,17,2,-19,29,97,39,4,-19,-34
-14,-34,-19,24,2,-26,4,87,29,4,-24,-34
-19,-39,-19,29,0,-29,-14,73,14,-4,-29,-39
-19,-29,-9,24,-4,-19,-9,73,24,0,-19,-34
-24,-29,-4,26,-9,-17,-4,78,29,14,-14,-19
-24,-24,0,24,-12,-12,4,92,53,34,9,-9
-24,-19,4,21,-14,-7,14,97,68,43,19,0
-19,-9,9,14,-14,0,14,126,82,43,19,4
-9,0,9,4,-9,4,19,156,97,48,19,4
0,9,9,-4,-4,9,34,156,107,58,29,4
9,19,9,-14,0,14,48,165,117,68,34,9
24,24,0,-24,12,12,68,190,126,78,43,9
34,34,0,-34,17,17,97,214,141,97,53,24
34,34,0,-34,17,17,82,224,146,97,58,24
34,48,14,-41,9,31,68,239,156,102,58,24
39,53,14,-46,12,34,68,248,151,102,58,19
34,58,24,-46,4,41,68,258,156,102,58,19
29,48,19,-39,4,34,102,263,156,97,53,24
29,39,9,-34,9,24,141,263,151,82,43,19
34,58,24,-46,4,41,156,278,151,82,39,19
34,73,39,-53,-2,56,170,287,146,87,39,19
9,53,43,-31,-17,48,151,287,141,82,34,4
-9,34,43,-12,-26,39,131,287,141,78,29,-4
-4,39,43,-17,-24,41,131,297,141,78,34,4
9,43,34,-26,-12,39,141,317,141,92,43,9
19,48,29,-34,-4,39,161,312,141,92,43,14
24,53,29,-39,-2,41,180,312,141,92,48,14
34,53,19,-43,7,36,170,307,146,92,53,14
34,58,24,-46,4,41,161,307,146,92,58,24
48,78,29,-63,9,53,156,317,156,102,68,34
58,97,39,-78,9,68,141,322,165,102,73,48
78,117,39,-97,19,78,141,307,165,112,73,53
87,136,48,-112,19,92,146,297,165,122,82,68
58,97,39,-78,9,68,146,278,151,122,82,68
29,68,39,-48,-4,53,117,253,141,122,78,63
24,68,43,-46,-9,56,78,244,151,126,82,68
24,68,43,-46,-9,56,58,234,151,126,87,73
34,82,48,-58,-7,65,53,214,156,136,102,87
43,97,53,-70,-4,75,43,195,165,136,112,102
43,97,53,-70,-4,75,29,175,156,141,117,102
53,107,53,-80,0,80,29,165,156,141,112,102
53,112,58,-82,-2,85,29,156,146,131,117,102
53,112,58,-82,-2,85,19,131,136,126,117,107
43,97,53,-70,-4,75,-4,122,126,126,112,102
53,97,43,-75,4,70,-29,107,122,122,107,102
58,78,19,-68,19,48,-34,78,92,97,78,73
43,39,-4,-41,24,17,-43,53,63,73,58,53
43,34,-9,-39,26,12,-53,43,53,63,48,43
43,29,-14,-36,29,7,-63,34,39,53,29,34
53,29,-24,-41,39,2,-48,34,39,58,39,39
68,29,-39,-48,53,-4,-29,34,48,58,48,43
73,43,-29,-58,51,7,-24,29,48,53,53,48
73,68,-4,-70,39,31,-24,24,48,53,58,53
73,68,-4,-70,39,31,-39,24,53,58,53,53
63,53,-9,-58,36,21,-53,29,53,53,53,48
48,53,4,-51,21,29,-39,24,58,58,53,48
39,58,19,-48,9,39,-29,19,68,68,58,48
48,68,19,-58,14,43,-29,19,68,68,58,48
58,78,19,-68,19,48,-29,19,68,68,58,48
43,68,24,-56,9,46,-39,19,68,68,58,48
19,53,34,-36,-7,43,-43,14,63,63,53,43
0,39,39,-19,-19,39,-48,14,63,63,48,43
9,43,34,-26,-12,39,-43,14,63,63,48,43
-9,34,43,-12,-26,39,-53,9,53,48,48,43
-29,14,43,7,-36,29,-58,0,39,39,43,39
-19,29,48,-4,-34,39,-58,9,53,48,43,39
-9,24,34,-7,-21,29,-63,19,68,58,43,39
29,78,48,-53,-9,63,-14,29,73,73,58,58
73,122,48,-97,12,85,43,34,78,92,78,78
43,92,48,-68,-2,70,24,29,78,82,68,63
24,63,39,-43,-7,51,4,29,73,68,53,48
4,58,53,-31,-24,56,-14,24,68,68,48,34
-4,53,58,-24,-31,56,-39,29,68,63,48,29
4,53,48,-29,-21,51,-29,34,68,63,53,34
14,53,39,-34,-12,46,-14,34,73,68,53,39
19,58,39,-39,-9,48,4,29,68,63,48,39
24,63,39,-43,-7,51,14,19,68,58,48,39
24,63,39,-43,-7,51,9,19,63,58,43,34
24,63,39,-43,-7,51,4,14,58,53,39,29
19,53,34,-36,-7,43,4,9,53,43,34,24
19,53,34,-36,-7,43,14,9,53,39,34,24
19,53,34,-36,-7,43,19,0,34,29,19,14
19,58,39,-39,-9,48,19,-4,19,19,9,4
19,58,39,-39,-9,48,4,-9,19,19,4,4
19,53,34,-36,-7,43,-4,-14,19,19,0,4
14,39,24,-26,-4,31,-14,-14,9,9,-4,0
9,24,14,-17,-2,19,-24,-19,-4,-9,-9,-4
9,9,0,-9,4,4,-48,-19,-9,-9,-14,-9
0,-14,-14,7,7,-14,-58,-24,-19,-19,-34,-19
0,-29,-29,14,14,-29,-68,-34,-39,-34,-39,-29
4,-39,-43,17,24,-41,-73,-39,-48,-43,-43,-39
4,-63,-68,29,36,-65,-73,-43,-48,-48,-43,-39
9,-87,-97,39,53,-92,-73,-39,-48,-58,-43,-39
24,-78,-102,26,63,-90,-73,-39,-48,-43,-39,-39
34,-73,-107,19,70,-90,-63,-43,-48,-34,-39,-39
34,-63,-97,14,65,-80,-68,-43,-48,-43,-39,-39
34,-48,-82,7,58,-65,-78,-34,-43,-43,-34,-34
43,-43,-87,0,65,-65,-87,-34,-39,-39,-34,-29
43,-48,-92,2,68,-70,-92,-29,-29,-34,-34,-29
29,-48,-78,9,53,-63,-78,-39,-48,-53,-53,-53
19,-68,-87,24,53,-78,-43,-4,-48,-73,-78,-87
-9,-122,-112,65,51,-117,4,58,-63,-112,-141,-146
-9,-165,-156,87,73,-161,43,131,-63,-122,-161,-180
63,-214,-278,75,170,-246,53,258,0,-87,-136,-146
180,-224,-405,21,292,-314,63,400,126,14,-43,-58
434,-73,-507,-180,470,-290,9,531,502,424,331,283
419,131,-287,-275,353,-78,-73,405,697,668,590,541
24,326,302,-175,-139,314,-141,-375,190,292,361,395
-448,366,814,41,-631,590,-161,-1141,-561,-351,-146,-4
-751,224,976,263,-863,600,-156,-1532,-1229,-985,-683,-463
-902,146,1049,378,-976,597,-107,-1668,-1503,-1244,-936,-688
-922,122,1044,400,-983,583,-87,-1639,-1459,-1215,-932,-722
-883,58,941,412,-912,500,-131,-1615,-1459,-1200,-932,-741
-795,-4,790,400,-793,392,-214,-1561,-1473,-1200,-932,-732
-673,-63,610,368,-641,273,-268,-1410,-1371,-1102,-858,-678
-522,-48,473,285,-497,212,-268,-1102,-1058,-863,-668,-531
-351,-4,346,178,-348,170,-229,-766,-707,-575,-453,-356
-234,29,263,102,-248,146,-170,-512,-419,-341,-258,-209
-136,19,156,58,-146,87,-87,-302,-244,-195,-141,-122
-58,9,68,24,-63,39,-48,-126,-122,-97,-78,-68
-9,9,19,0,-14,14,-29,-29,-34,-24,-34,-34
-9,9,19,0,-14,14,-24,-9,0,0,-14,-14
0,19,19,-9,-9,19,-19,0,4,4,-9,-14
0,9,9,-4,-4,9,-19,19,0,-4,-14,-14
24,9,-14,-17,19,-2,-9,48,14,0,-9,-9
24,4,-19,-14,21,-7,0,39,24,9,-4,-9
-9,-24,-14,17,2,-19,0,24,19,4,-9,-19
-9,-43,-34,26,12,-39,-4,24,14,0,-14,-29
-4,-48,-43,26,19,-46,-4,34,14,0,-14,-29
4,-39,-43,17,24,-41,14,43,24,4,-9,-19
9,-29,-39,9,24,-34,29,48,24,4,-9,-19
24,-19,-43,-2,34,-31,14,48,14,4,-9,-24
24,-34,-58,4,41,-46,-4,53,9,0,-14,-29
9,-58,-68,24,39,-63,-4,53,0,-9,-24,-39
4,-68,-73,31,39,-70,-4,48,0,-14,-24,-39
0,-63,-63,31,31,-63,4,43,-4,-19,-29,-39
