I,II,III,aVR,aVL,aVF,V1,V2,V3,V4,V5,V6,
-185,165,351,9,-268,258,253,849,722,527,283,39
-175,180,356,-2,-265,268,253,849,722,527,287,53
-165,195,361,-14,-263,278,253,849,722,527,292,68
-151,200,351,-24,-251,275,244,829,717,527,292,78
-136,204,341,-34,-239,273,234,810,712,527,292,87
-122,209,331,-43,-226,270,219,780,688,512,297,97
-107,214,322,-53,-214,268,204,751,663,497,302,107
-87,224,312,-68,-200,268,190,702,634,478,302,122
-68,234,302,-82,-185,268,175,653,605,458,302,136
-48,234,283,-92,-165,258,161,605,566,439,297,141
-29,234,263,-102,-146,248,146,556,527,419,292,146
-19,219,239,-100,-129,229,131,502,473,380,278,146
-9,204,214,-97,-112,209,117,448,419,341,263,146
0,195,195,-97,-97,195,112,405,380,307,239,131
9,185,175,-97,-82,180,107,361,341,273,214,117
14,165,151,-90,-68,158,102,322,297,239,190,107
19,146,126,-82,-53,136,97,283,253,204,165,97
19,131,112,-75,-46,122,97,253,224,175,141,82
19,117,97,-68,-39,107,97,224,195,146,117,68
14,102,87,-58,-36,95,102,200,161,122,87,48
9,87,78,-48,-34,82,107,175,126,97,58,29
0,73,73,-36,-36,73,107,165,117,78,58,24
-9,58,68,-24,-39,63,107,156,107,58,58,19
-14,53,68,-19,-41,61,112,146,97,58,58,19
-19,48,68,-14,-43,58,117,136,87,58,58,19
-19,43,63,-12,-41,53,117,136,82,48,48,14
-19,39,58,-9,-39,48,117,136,78,39,39,9
-29,24,53,2,-41,39,122,131,73,39,34,4
-39,9,48,14,-43,29,126,126,68,39,29,0
-39,19,58,9,-48,39,126,126,68,29,19,-9
-39,29,68,4,-53,48,126,126,68,19,9,-19
-39,29,68,4,-53,48,131,131,68,19,9,-19
-39,29,68,4,-53,48,136,136,68,19,9,-19
-53,19,73,17,-63,46,141,141,68,29,14,-9
-68,9,78,29,-73,43,146,146,68,39,19,0
-68,19,87,24,-78,53,146,146,73,39,19,-9
-68,29,97,19,-82,63,146,146,78,39,19,-19
-68,29,97,19,-82,63,146,151,82,43,19,-19
-68,29,97,19,-82,63,146,156,87,48,19,-19
-73,29,102,21,-87,65,156,161,92,58,19,-19
-78,29,107,24,-92,68,165,165,97,68,19,-19
-78,29,107,24,-92,68,165,165,97,68,19,-19
-78,29,107,24,-92,68,165,165,97,68,19,-19
-78,29,107,24,-92,68,170,165,97,68,24,-19
-78,29,107,24,-92,68,175,165,97,68,29,-19
-78,34,112,21,-95,73,175,165,102,68,34,-19
-78,39,117,19,-97,78,175,165,107,68,39,-19
-78,48,126,14,-102,87,180,165,107,68,39,-19
-78,58,136,9,-107,97,185,165,107,68,39,-19
-73,63,136,4,-104,100,190,175,112,73,39,-19
-68,68,136,0,-102,102,195,185,117,78,39,-19
-63,82,146,-9,-104,114,204,200,131,92,53,-9
-58,97,156,-19,-107,126,214,214,146,107,68,0
-48,107,156,-29,-102,131,214,234,161,117,78,14
-39,117,156,-39,-97,136,214,253,175,126,87,29
-24,131,156,-53,-90,143,175,253,185,141,87,34
-9,146,156,-68,-82,151,136,253,195,156,87,39
-9,146,156,-68,-82,151,131,224,180,146,87,39
-9,146,156,-68,-82,151,126,195,165,136,87,39
-9,141,151,-65,-80,146,112,175,151,122,82,39
-9,136,146,-63,-78,141,97,156,136,107,78,39
-9,131,141,-61,-75,136,78,146,126,102,78,39
-9,126,136,-58,-73,131,58,136,117,97,78,39
-9,117,126,-53,-68,122,53,126,107,92,73,34
-9,107,117,-48,-63,112,48,117,97,87,68,29
0,102,102,-51,-51,102,39,117,97,87,68,24
9,97,87,-53,-39,92,29,117,97,87,68,19
24,82,58,-53,-17,70,39,112,87,82,58,19
39,68,29,-53,4,48,48,107,78,78,48,19
39,63,24,-51,7,43,58,102,73,73,43,19
43,58,14,-51,14,36,63,107,68,68,39,14
48,53,4,-51,21,29,73,112,63,63,34,14
48,48,0,-48,24,24,92,112,63,58,34,14
39,48,9,-43,14,29,117,122,63,58,24,4
9,48,39,-29,-14,43,141,131,68,58,24,-9
-9,34,43,-12,-26,39,165,131,68,53,14,-14
-34,24,58,4,-46,41,180,136,68,48,9,-19
-53,19,73,17,-63,46,190,136,58,48,9,-29
-58,14,73,21,-65,43,195,136,58,43,14,-29
-58,9,68,24,-63,39,204,136,53,39,14,-29
-68,4,73,31,-70,39,214,136,48,39,9,-34
-78,0,78,39,-78,39,214,141,43,34,-4,-39
-78,-4,73,41,-75,34,219,141,43,34,-9,-39
-78,-4,73,41,-75,34,219,136,43,29,-9,-43
-78,-4,73,41,-75,34,224,136,48,29,-9,-43
-78,-4,73,41,-75,34,229,141,53,34,-9,-43
-78,0,78,39,-78,39,229,141,53,34,-9,-39
-78,4,82,36,-80,43,229,141,48,34,-9,-39
-78,14,92,31,-85,53,229,146,43,39,-9,-39
-78,14,92,31,-85,53,234,146,43,39,-4,-39
-78,14,92,31,-85,53,234,146,43,39,-4,-39
-78,14,92,31,-85,53,234,146,43,34,-4,-39
-78,14,92,31,-85,53,234,146,43,34,-4,-43
-78,14,92,31,-85,53,239,146,43,34,-9,-43
-78,14,92,31,-85,53,239,151,43,34,-9,-43
-78,14,92,31,-85,53,244,151,43,34,-4,-43
-78,19,97,29,-87,58,244,151,43,34,-4,-43
-78,19,97,29,-87,58,244,151,43,34,-4,-39
-73,19,92,26,-82,56,244,151,43,34,-4,-39
-68,24,92,21,-80,58,244,151,43,34,-4,-39
-68,24,92,21,-80,58,248,151,43,34,-9,-39
-68,24,92,21,-80,58,248,151,43,34,-9,-39
-68,24,92,21,-80,58,248,156,43,34,-9,-39
-68,19,87,24,-78,53,248,156,43,34,-9,-39
-68,19,87,24,-78,53,253,156,43,34,-4,-39
-68,14,82,26,-75,48,253,161,43,34,-4,-39
-63,14,78,24,-70,46,248,161,43,34,-4,-34
-68,14,82,26,-75,48,248,156,43,34,-4,-34
-58,19,78,19,-68,48,244,156,43,39,0,-29
-34,29,63,2,-48,46,219,146,48,48,14,-19
9,34,24,-21,-7,29,195,170,78,73,39,4
58,53,-4,-56,31,24,170,185,122,122,73,24
87,92,4,-90,41,48,126,-9,92,107,87,58
112,141,29,-126,41,85,48,-429,-63,43,92,87
126,180,53,-153,36,117,-53,-966,-317,-73,87,126
156,248,92,-202,31,170,-234,-1664,-697,-239,97,219
185,278,92,-231,46,185,-424,-2337,-1151,-458,68,302
214,326,112,-270,51,219,-595,-2923,-1629,-692,48,400
278,336,58,-307,109,197,-722,-3367,-1922,-834,63,497
351,200,-151,-275,251,24,-819,-3782,-2225,-1015,9,536
502,102,-400,-302,451,-148,-961,-3972,-2400,-1132,-14,570
849,-34,-883,-407,866,-458,-1180,-3777,-2376,-1122,29,639
1210,-122,-1332,-544,1271,-727,-1327,-3523,-2249,-1024,122,727
1507,-165,-1673,-671,1590,-919,-1351,-3167,-2064,-946,161,775
1620,-312,-1932,-653,1776,-1122,-1312,-2903,-2044,-1083,-48,614
1556,-531,-2088,-512,1822,-1310,-1205,-2732,-2176,-1478,-610,151
1542,-736,-2278,-402,1910,-1507,-1112,-2474,-2196,-1727,-1058,-253
1527,-839,-2366,-344,1947,-1603,-1010,-2122,-2054,-1712,-1215,-512
1429,-878,-2308,-275,1869,-1593,-893,-1776,-1844,-1610,-1249,-653
1312,-829,-2142,-241,1727,-1485,-746,-1468,-1576,-1439,-1176,-692
1107,-800,-1908,-153,1507,-1354,-585,-1166,-1327,-1263,-1102,-722
790,-736,-1527,-26,1159,-1132,-419,-878,-1098,-1078,-985,-692
488,-653,-1141,82,814,-897,-258,-634,-883,-893,-849,-644
268,-546,-814,139,541,-680,-107,-400,-624,-663,-678,-566
112,-409,-522,148,317,-466,0,-200,-380,-458,-497,-458
29,-268,-297,119,163,-283,53,-34,-219,-292,-341,-322
-39,-165,-126,102,43,-146,102,97,-92,-151,-204,-209
-82,-82,0,82,-41,-41,165,204,48,-24,-102,-151
-92,-53,39,73,-65,-7,195,263,117,39,-63,-131
-112,-34,78,73,-95,21,200,278,136,48,-43,-97
-131,-29,102,80,-117,36,200,297,141,58,-19,-78
-131,-24,107,78,-119,41,200,307,156,73,-9,-78
-136,-24,112,80,-124,43,204,312,180,87,-4,-78
-141,-4,136,73,-139,65,204,317,185,97,0,-78
-141,-4,136,73,-139,65,204,326,190,102,14,-63
-146,4,151,70,-148,78,200,326,190,107,19,-63
-146,4,151,70,-148,78,195,331,190,117,19,-63
-151,4,156,73,-153,80,190,331,200,117,19,-63
-151,9,161,70,-156,85,185,336,200,122,24,-63
-151,9,161,70,-156,85,180,331,200,122,19,-68
-151,14,165,68,-158,90,175,326,200,126,19,-68
-151,14,165,68,-158,90,175,331,200,126,19,-63
-151,14,165,68,-158,90,180,331,209,126,19,-63
-156,14,170,70,-163,92,180,331,209,122,24,-58
-161,9,170,75,-165,90,175,336,209,126,29,-58
-165,9,175,78,-170,92,170,336,214,131,29,-58
-165,9,175,78,-170,92,165,336,224,136,34,-58
-165,9,175,78,-170,92,161,331,224,136,34,-58
-165,14,180,75,-173,97,161,336,224,136,29,-58
-165,14,180,75,-173,97,161,336,224,141,29,-58
-170,14,185,78,-178,100,161,336,234,141,29,-58
-175,14,190,80,-183,102,165,341,234,146,29,-58
-180,14,195,82,-187,104,165,351,244,146,29,-53
-180,14,195,82,-187,104,161,356,248,146,29,-53
-185,19,204,82,-195,112,156,356,253,146,29,-53
-190,19,209,85,-200,114,161,361,253,151,34,-58
-195,19,214,87,-204,117,161,370,258,151,39,-58
-195,19,214,87,-204,117,161,380,263,165,43,-58
-195,24,219,85,-207,122,161,395,273,175,48,-58
-195,24,219,85,-207,122,165,405,287,180,53,-58
-200,24,224,87,-212,124,165,419,297,190,53,-63
-200,29,229,85,-214,129,170,424,307,195,53,-63
-200,34,234,82,-217,134,175,434,322,214,63,-63
-204,34,239,85,-222,136,175,458,341,224,73,-58
-204,34,239,85,-222,136,175,478,351,234,73,-53
-209,39,248,85,-229,143,180,492,380,244,82,-48
-209,53,263,78,-236,158,180,512,400,258,92,-48
-209,58,268,75,-239,163,185,527,419,273,102,-48
-214,58,273,78,-244,165,185,546,444,287,107,-48
-214,63,278,75,-246,170,190,570,468,312,117,-48
-214,73,287,70,-251,180,195,595,492,336,131,-43
-214,82,297,65,-256,190,200,619,522,356,146,-39
-214,87,302,63,-258,195,200,644,546,380,156,-34
-214,87,302,63,-258,195,204,673,575,400,170,-34
-219,102,322,58,-270,212,209,692,595,419,185,-24
-219,112,331,53,-275,222,209,712,619,434,195,-14
-209,122,331,43,-270,226,209,736,653,453,204,-4
-209,126,336,41,-273,231,204,746,673,473,224,4
-209,141,351,34,-280,246,204,761,692,488,229,9
-200,151,351,24,-275,251,204,775,712,507,244,24
-190,165,356,12,-273,261,204,780,732,527,258,34
-185,170,356,7,-270,263,195,780,746,536,268,43
-175,190,366,-7,-270,278,190,775,751,541,278,53
-165,200,366,-17,-265,283,180,766,756,546,287,63
-156,219,375,-31,-265,297,175,756,746,551,297,78
-151,224,375,-36,-263,300,151,727,732,546,302,92
-136,229,366,-46,-251,297,141,707,712,541,307,107
-126,229,356,-51,-241,292,131,663,678,522,307,122
-112,229,341,-58,-226,285,122,614,649,502,307,131
-92,234,326,-70,-209,280,102,570,610,478,307,141
-73,234,307,-80,-190,270,82,512,566,448,297,151
-58,239,297,-90,-178,268,63,458,517,409,287,156
-39,229,268,-95,-153,248,43,414,468,375,273,161
-29,209,239,-90,-134,224,29,366,419,336,253,161
-14,195,209,-90,-112,202,24,317,370,302,229,156
-9,170,180,-80,-95,175,9,278,322,263,204,141
-9,146,156,-68,-82,151,4,248,287,229,180,126
-9,126,136,-58,-73,131,-4,209,253,195,156,117
-9,107,117,-48,-63,112,-9,180,214,161,136,107
-14,92,107,-39,-61,100,-9,146,175,131,122,87
-24,82,107,-29,-65,95,-9,126,141,102,107,73
-29,68,97,-19,-63,82,-14,112,126,87,87,63
-34,58,92,-12,-63,75,-19,107,102,73,73,48
-43,43,87,0,-65,65,-14,87,92,48,63,43
-53,24,78,14,-65,51,-9,73,82,39,48,34
-58,19,78,19,-68,48,-9,68,68,29,34,24
-68,9,78,29,-73,43,-4,68,58,19,19,19
-73,0,73,36,-73,36,-4,63,53,14,9,19
-78,-4,73,41,-75,34,-4,58,43,9,4,14
-82,-4,78,43,-80,36,-4,58,43,4,0,4
-82,-4,78,43,-80,36,-4,58,43,0,0,0
-87,-9,78,48,-82,34,-4,58,39,0,0,0
-92,-14,78,53,-85,31,0,58,34,4,0,-4
-97,-14,82,56,-90,34,4,63,34,4,0,-4
-102,-14,87,58,-95,36,9,68,39,4,0,-4
-107,-19,87,63,-97,34,14,78,48,4,-4,-4
-112,-19,92,65,-102,36,14,78,53,9,-4,-4
-117,-19,97,68,-107,39,9,78,58,14,0,-4
-117,-19,97,68,-107,39,9,82,58,14,0,-4
-117,-19,97,68,-107,39,14,87,58,14,0,-9
-117,-19,97,68,-107,39,14,92,58,19,0,-14
-126,-14,112,70,-119,48,14,92,58,19,0,-9
-131,-14,117,73,-124,51,19,97,68,24,4,-9
-131,-4,126,68,-129,61,24,107,78,29,9,-4
-131,9,141,61,-136,75,34,117,87,34,19,-4
-126,19,146,53,-136,82,39,126,102,53,29,4
-117,43,161,36,-139,102,48,141,112,63,48,19
-112,53,165,29,-139,109,63,161,131,73,63,24
-97,68,165,14,-131,117,63,180,151,87,63,39
-87,78,165,4,-126,122,39,190,161,97,73,43
-73,87,161,-7,-117,124,9,204,170,102,82,48
-73,107,180,-17,-126,143,-9,190,175,112,92,58
-68,117,185,-24,-126,151,-29,170,175,112,92,68
-78,107,185,-14,-131,146,-39,141,161,112,92,58
-87,97,185,-4,-136,141,-39,112,141,102,87,48
-82,92,175,-4,-129,134,-58,107,131,92,87,53
-78,78,156,0,-117,117,-73,87,122,82,82,53
-78,58,136,9,-107,97,-87,73,112,82,73,53
-82,29,112,26,-97,70,-92,58,97,78,73,48
-68,24,92,21,-80,58,-102,48,92,63,53,39
-58,19,78,19,-68,48,-117,39,87,48,39,29
-58,19,78,19,-68,48,-117,39,73,39,39,29
-58,19,78,19,-68,48,-117,39,58,29,39,29
-48,19,68,14,-58,43,-112,39,53,29,34,29
-39,9,48,14,-43,29,-102,39,48,24,29,24
-34,4,39,14,-36,21,-97,43,43,24,24,24
-29,0,29,14,-29,14,-92,53,43,24,24,24
-29,-9,19,19,-24,4,-73,43,43,19,24,24
-39,-9,29,24,-34,9,-53,43,43,19,14,19
-68,-9,58,39,-63,24,-34,63,48,19,14,4
-87,-24,63,56,-75,19,-14,73,48,14,4,-4
-112,-34,78,73,-95,21,-4,78,48,9,0,-9
-131,-39,92,85,-112,26,4,78,39,9,-4,-19
-136,-43,92,90,-114,24,9,78,39,4,-4,-19
-136,-48,87,92,-112,19,14,78,39,0,-4,-19
-146,-53,92,100,-119,19,19,78,39,0,-9,-24
-156,-58,97,107,-126,19,19,82,34,-4,-19,-29
-156,-68,87,112,-122,9,24,82,34,-4,-19,-29
-156,-73,82,114,-119,4,24,78,29,-9,-19,-34
-156,-73,82,114,-119,4,29,78,29,-14,-19,-39
-156,-73,82,114,-119,4,34,82,34,-14,-19,-43
-156,-68,87,112,-122,9,34,82,34,-14,-19,-39
-156,-68,87,112,-122,9,34,82,34,-14,-19,-39
-156,-63,92,109,-124,14,34,87,34,-9,-19,-39
-156,-63,92,109,-124,14,39,87,34,-9,-14,-39
-156,-63,92,109,-124,14,39,87,34,-4,-14,-39
-156,-63,92,109,-124,14,39,87,34,-4,-14,-39
-156,-63,92,109,-124,14,39,87,34,-4,-14,-39
-156,-63,92,109,-124,14,43,87,34,-4,-19,-34
-156,-63,92,109,-124,14,43,92,34,-9,-19,-34
-156,-63,92,109,-124,14,48,92,34,-14,-14,-34
-156,-53,102,104,-129,24,48,92,34,-14,-14,-34
-161,-48,112,104,-136,31,48,92,34,-14,-14,-29
-161,-48,112,104,-136,31,48,92,34,-9,-14,-29
-156,-43,112,100,-134,34,48,92,34,-4,-14,-29
-156,-43,112,100,-134,34,53,92,34,-4,-19,-24
-156,-43,112,100,-134,34,53,92,34,-4,-19,-19
-156,-43,112,100,-134,34,58,97,34,-4,-19,-19
-156,-43,112,100,-134,34,63,97,34,-4,-19,-19
-156,-39,117,97,-136,39,68,97,34,-4,-14,-19
-156,-39,117,97,-136,39,68,102,34,-4,-14,-19
-151,-39,112,95,-131,36,63,107,34,-4,-14,-14
-146,-43,102,95,-124,29,58,107,34,-4,-14,-14
-126,-39,87,82,-107,24,53,107,39,0,-9,-9
-97,-29,68,63,-82,19,34,92,48,9,4,0
-43,-19,24,31,-34,2,9,146,87,39,34,24
9,9,0,-9,4,4,-29,102,97,73,68,48
48,58,9,-53,19,34,-87,-185,24,39,78,87
97,112,14,-104,41,63,-190,-683,-190,-53,78,126
131,151,19,-141,56,85,-322,-1307,-517,-204,63,170
175,200,24,-187,75,112,-507,-1995,-932,-400,48,244
214,204,-9,-209,112,97,-697,-2654,-1410,-653,-4,307
263,200,-63,-231,163,68,-844,-3167,-1839,-888,-58,356
331,161,-170,-246,251,-4,-946,-3533,-2088,-1024,-87,405
439,24,-414,-231,427,-195,-1058,-3806,-2322,-1176,-156,419
614,-73,-688,-270,651,-380,-1195,-3860,-2410,-1259,-170,434
922,-195,-1117,-363,1019,-656,-1346,-3620,-2342,-1234,-146,473
1302,-239,-1542,-531,1422,-890,-1464,-3328,-2156,-1063,-24,575
1581,-278,-1859,-651,1720,-1068,-1483,-3035,-1995,-985,19,610
1659,-439,-2098,-610,1878,-1268,-1434,-2854,-2025,-1171,-204,434
1615,-619,-2235,-497,1925,-1427,-1342,-2718,-2137,-1498,-649,68
1610,-814,-2425,-397,2017,-1620,-1263,-2488,-2181,-1747,-1088,-317
1586,-897,-2483,-344,2034,-1690,-1171,-2176,-2074,-1766,-1263,-556
1507,-912,-2420,-297,1964,-1666,-1054,-1844,-1864,-1654,-1273,-673
1395,-878,-2274,-258,1834,-1576,-907,-1542,-1615,-1498,-1220,-727
1180,-863,-2044,-158,1612,-1454,-751,-1239,-1385,-1342,-1166,-761
888,-814,-1703,-36,1295,-1259,-595,-951,-1166,-1171,-1054,-736
546,-746,-1293,100,919,-1019,-419,-712,-961,-990,-912,-692
297,-649,-946,175,622,-797,-253,-488,-717,-771,-756,-619
122,-497,-619,187,370,-558,-136,-278,-453,-546,-556,-488
14,-346,-361,165,187,-353,-73,-97,-268,-361,-380,-341
-73,-234,-161,153,43,-197,-9,48,-122,-200,-224,-214
-136,-141,-4,139,-65,-73,68,170,29,-68,-112,-141
-141,-107,34,124,-87,-36,102,234,97,-4,-78,-122
-161,-82,78,122,-119,-2,112,258,126,19,-53,-92
-185,-78,107,131,-146,14,112,283,131,29,-24,-73
-190,-73,117,131,-153,21,122,297,141,43,-14,-68
-200,-73,126,136,-163,26,136,302,165,58,-14,-68
-209,-53,156,131,-183,51,136,307,175,68,-9,-68
-209,-53,156,131,-183,51,136,322,180,78,4,-53
-214,-43,170,129,-192,63,136,326,180,82,9,-53
-214,-43,170,129,-192,63,136,331,180,87,9,-53
-219,-43,175,131,-197,65,136,331,190,87,9,-53
-219,-34,185,126,-202,75,136,336,190,92,14,-53
-219,-29,190,124,-204,80,136,336,190,92,14,-53
-219,-24,195,122,-207,85,136,336,195,97,19,-48
-219,-24,195,122,-207,85,136,341,200,97,19,-43
-219,-29,190,124,-204,80,141,341,209,97,19,-39
-219,-29,190,124,-204,80,141,341,209,97,19,-34
-219,-29,190,124,-204,80,141,341,209,107,19,-39
-224,-29,195,126,-209,82,146,341,214,112,19,-39
-224,-29,195,126,-209,82,146,346,224,117,24,-39
-224,-29,195,126,-209,82,146,346,224,117,29,-39
-224,-24,200,124,-212,87,151,361,224,117,29,-39
-224,-24,200,124,-212,87,151,366,224,122,29,-39
-229,-24,204,126,-217,90,151,366,234,126,29,-39
-229,-24,204,126,-217,90,156,370,239,136,29,-43
-229,-19,209,124,-219,95,156,380,253,136,29,-43
-229,-14,214,122,-222,100,156,390,258,141,29,-43
-229,-9,219,119,-224,104,156,400,263,146,29,-48
-229,-9,219,119,-224,104,161,409,268,151,34,-53
-234,-9,224,122,-229,107,161,419,278,151,39,-48
-234,-9,224,122,-229,107,161,429,283,165,43,-48
-239,-4,234,122,-236,114,161,444,292,175,48,-43
-244,-4,239,124,-241,117,165,453,307,180,53,-39
-248,0,248,124,-248,124,165,468,317,190,53,-43
-248,9,258,119,-253,134,170,478,331,195,53,-43
-244,14,258,114,-251,136,175,492,351,214,63,-43
-244,14,258,114,-251,136,175,517,370,224,73,-39
-244,14,258,114,-251,136,175,541,380,234,78,-34
-248,19,268,114,-258,143,180,561,405,248,92,-29
-248,34,283,107,-265,158,180,580,424,268,102,-29
-248,39,287,104,-268,163,185,600,448,283,112,-29
-253,39,292,107,-273,165,185,624,473,297,117,-29
-253,43,297,104,-275,170,195,649,497,322,126,-24
-258,53,312,102,-285,183,204,673,522,346,141,-9
-263,63,326,100,-295,195,209,702,551,366,156,0
-263,73,336,95,-300,204,214,732,575,390,165,4
-263,82,346,90,-305,214,219,761,605,409,180,4
-268,102,370,82,-319,236,219,780,624,429,195,14
-268,112,380,78,-324,246,219,800,649,448,209,24
-258,126,385,65,-322,256,219,829,683,478,229,34
-258,136,395,61,-326,265,219,839,702,502,253,43
-258,151,409,53,-334,280,224,849,727,517,258,48
-248,161,409,43,-329,285,224,863,746,531,273,63
-239,175,414,31,-326,295,229,868,761,546,287,73
-234,180,414,26,-324,297,219,868,771,556,297,82
-224,195,419,14,-322,307,209,863,771,561,307,87
-214,200,414,7,-314,307,200,849,771,561,312,92
-209,219,429,-4,-319,324,200,834,756,561,317,107
-204,224,429,-9,-317,326,180,800,741,551,322,117
-185,229,414,-21,-300,322,170,775,722,541,322,126
-170,234,405,-31,-287,319,156,727,688,522,317,141
-151,239,390,-43,-270,314,136,673,658,502,317,151
-131,244,375,-56,-253,309,112,629,614,478,317,161
-112,244,356,-65,-234,300,92,566,561,448,307,170
-92,244,336,-75,-214,290,73,507,507,409,292,170
-63,229,292,-82,-178,261,53,458,458,370,273,170
-48,209,258,-80,-153,234,39,405,409,326,253,165
-29,190,219,-80,-124,204,34,356,356,292,229,161
-19,170,190,-75,-104,180,19,312,302,253,204,151
-14,156,170,-70,-92,163,9,278,268,219,180,136
-9,136,146,-63,-78,141,0,239,234,190,156,126
-4,117,122,-56,-63,119,-4,209,190,156,136,112
0,97,97,-48,-48,97,-9,180,156,126,122,92
-4,82,87,-39,-46,85,-9,161,131,102,107,82
-9,68,78,-29,-43,73,-9,141,117,87,87,73
-14,58,73,-21,-43,65,-9,136,92,73,68,58
-24,48,73,-12,-48,61,-4,122,82,53,53,53
-34,39,73,-2,-53,56,0,107,73,48,39,43
-34,39,73,-2,-53,56,0,97,58,39,29,34
-39,29,68,4,-53,48,4,97,48,29,24,29
-43,24,68,9,-56,46,4,97,48,24,24,29
-48,19,68,14,-58,43,4,97,43,19,24,24
-53,14,68,19,-61,41,9,97,43,19,19,19
-53,14,68,19,-61,41,14,97,43,19,14,19
-58,9,68,24,-63,39,14,97,43,19,9,19
-63,9,73,26,-68,41,14,97,43,24,9,9
-68,14,82,26,-75,48,14,102,43,24,9,4
-73,14,87,29,-80,51,19,107,48,24,9,4
-73,14,87,29,-80,51,24,117,53,24,9,4
-73,19,92,26,-82,56,24,117,53,29,9,4
-78,19,97,29,-87,58,24,117,58,34,9,4
-78,19,97,29,-87,58,29,122,58,34,9,4
-78,19,97,29,-87,58,34,122,63,34,9,4
-82,14,97,34,-90,56,39,126,68,39,14,4
-92,14,107,39,-100,61,43,131,68,39,19,9
-92,14,107,39,-100,61,48,136,78,43,24,9
-92,19,112,36,-102,65,48,141,82,48,24,14
-92,29,122,31,-107,75,53,151,87,58,34,19
-92,29,122,31,-107,75,53,156,97,73,39,24
-82,53,136,14,-109,95,58,165,102,78,48,29
-78,73,151,2,-114,112,73,180,112,87,63,29
-68,87,156,-9,-112,122,73,204,131,102,63,39
-63,97,161,-17,-112,129,73,229,151,117,73,43
-34,107,141,-36,-87,124,48,244,161,122,82,48
-14,126,141,-56,-78,134,24,248,170,136,92,58
-19,136,156,-58,-87,146,19,224,165,131,92,68
-24,136,161,-56,-92,148,0,190,161,131,97,68
-29,131,161,-51,-95,146,-9,165,151,126,92,63
-34,126,161,-46,-97,143,-29,146,131,117,87,63
-29,117,146,-43,-87,131,-43,126,122,102,82,63
-29,112,141,-41,-85,126,-63,112,112,92,73,63
-34,102,136,-34,-85,119,-63,102,92,92,73,58
-34,87,122,-26,-78,104,-73,97,73,78,73,53
-14,68,82,-26,-48,75,-78,92,68,78,58,48
0,48,48,-24,-24,48,-87,87,68,78,48,48
0,48,48,-24,-24,48,-87,78,58,68,48,48
0,48,48,-24,-24,48,-87,68,48,58,48,48
4,48,43,-26,-19,46,-82,68,48,53,43,43
9,39,29,-24,-9,34,-73,68,43,48,39,39
14,34,19,-24,-2,26,-68,73,43,43,34,34
19,29,9,-24,4,19,-63,82,43,43,34,34
19,19,0,-19,9,9,-43,82,43,43,34,34
9,19,9,-14,0,14,-24,92,43,48,24,29
-19,19,39,0,-29,29,-4,102,48,48,24,19
-39,4,43,17,-41,24,14,102,48,43,14,14
-63,-4,58,34,-61,26,24,107,48,39,9,9
-82,-9,73,46,-78,31,34,107,39,39,4,0
-87,-14,73,51,-80,29,34,107,39,34,4,0
-87,-19,68,53,-78,24,34,107,39,29,4,0
-97,-24,73,61,-85,24,39,107,39,29,0,-4
-107,-29,78,68,-92,24,39,112,34,24,-9,-9
-107,-34,73,70,-90,19,43,112,34,24,-9,-9
-107,-34,73,70,-90,19,43,107,29,19,-9,-14
-102,-34,68,68,-85,17,48,107,29,19,-9,-14
-97,-34,63,65,-80,14,53,112,34,24,-9,-14
-97,-29,68,63,-82,19,53,112,39,24,-9,-9
-97,-29,68,63,-82,19,53,112,43,24,-9,-9
-102,-29,73,65,-87,21,53,117,48,29,-9,-9
-107,-34,73,70,-90,19,58,117,53,29,-4,-9
-107,-34,73,70,-90,19,58,117,53,34,-4,-4
-107,-34,73,70,-90,19,58,117,53,34,-4,0
-107,-29,78,68,-92,24,58,117,48,34,-4,-4
-107,-24,82,65,-95,29,63,117,43,34,-9,-4
-107,-24,82,65,-95,29,63,122,43,34,-9,-4
-107,-24,82,65,-95,29,68,122,43,34,-4,-4
-102,-19,82,61,-92,31,68,122,43,34,-4,-4
-102,-19,82,61,-92,31,68,122,43,34,-4,0
-102,-19,82,61,-92,31,68,122,43,34,-4,0
-97,-14,82,56,-90,34,68,122,43,34,-4,0
-102,-14,87,58,-95,36,73,122,43,34,-9,0
-107,-14,92,61,-100,39,73,122,43,34,-9,0
-107,-14,92,61,-100,39,73,126,43,34,-9,0
-107,-14,92,61,-100,39,73,126,43,34,-9,0
-107,-9,97,58,-102,43,78,126,43,34,-4,-4
-107,-9,97,58,-102,43,78,131,43,34,-4,-9
-97,-9,87,53,-92,39,73,131,43,34,-4,-4
-87,-14,73,51,-80,29,68,126,43,34,-4,-4
-68,-9,58,39,-63,24,58,126,48,43,0,4
-39,0,39,19,-39,19,34,112,58,58,14,19
14,19,4,-17,4,12,9,131,87,82,43,43
68,58,-9,-63,39,24,-29,53,87,112,78,68
102,102,0,-102,51,51,-97,-273,9,78,87,107
146,151,4,-148,70,78,-209,-810,-209,-14,87,146
190,180,-9,-185,100,85,-346,-1454,-541,-175,68,195
244,219,-24,-231,134,97,-536,-2161,-961,-380,48,273
287,214,-73,-251,180,70,-727,-2791,-1415,-624,-19,326
341,200,-141,-270,241,29,-873,-3274,-1820,-849,-87,366
434,151,-283,-292,358,-65,-976,-3596,-2039,-980,-117,400
566,4,-561,-285,563,-278,-1088,-3825,-2244,-1127,-185,400
766,-92,-858,-336,812,-475,-1224,-3835,-2322,-1210,-219,390
1098,-214,-1312,-441,1205,-763,-1376,-3552,-2244,-1185,-214,405
1444,-283,-1727,-580,1586,-1005,-1473,-3269,-2098,-1078,-161,444
1688,-346,-2034,-671,1861,-1190,-1473,-2986,-1976,-1063,-185,414
1727,-502,-2230,-612,1978,-1366,-1410,-2796,-2030,-1259,-434,214
1644,-678,-2322,-483,1983,-1500,-1302,-2649,-2166,-1595,-902,-175
1620,-854,-2474,-383,2047,-1664,-1215,-2405,-2166,-1786,-1254,-507
1576,-917,-2493,-329,2034,-1705,-1112,-2078,-2015,-1747,-1342,-692
1468,-917,-2386,-275,1927,-1651,-995,-1747,-1810,-1620,-1322,-771
1327,-868,-2196,-229,1761,-1532,-849,-1444,-1566,-1449,-1239,-785
1088,-839,-1927,-124,1507,-1383,-683,-1146,-1327,-1273,-1156,-785
771,-775,-1546,2,1159,-1161,-517,-863,-1098,-1083,-1015,-727
458,-692,-1151,117,805,-922,-351,-634,-893,-893,-858,-658
239,-580,-819,170,529,-700,-195,-419,-649,-663,-688,-561
82,-434,-517,175,300,-475,-87,-214,-390,-448,-497,-429
-4,-287,-283,146,139,-285,-34,-39,-209,-273,-331,-283
-68,-185,-117,126,24,-151,19,92,-78,-126,-190,-170
-107,-102,4,104,-56,-48,87,200,58,-9,-92,-112
-112,-73,39,92,-75,-17,117,258,117,43,-63,-87
-131,-53,78,92,-104,12,122,278,136,58,-43,-53
-156,-48,107,102,-131,29,122,297,141,68,-19,-39
-161,-43,117,102,-139,36,131,307,151,82,-14,-39
-165,-43,122,104,-143,39,146,312,170,97,-9,-39
-170,-24,146,97,-158,61,146,317,175,107,0,-39
-170,-24,146,97,-158,61,146,331,180,112,14,-24
-175,-14,161,95,-168,73,146,336,180,112,19,-24
-175,-14,161,95,-168,73,146,341,180,117,19,-24
-180,-14,165,97,-173,75,146,341,190,117,19,-24
-180,-9,170,95,-175,80,146,346,190,122,24,-29
-180,-9,170,95,-175,80,146,346,190,122,24,-34
-180,-4,175,92,-178,85,146,346,190,126,29,-29
-180,-4,175,92,-178,85,146,351,190,126,29,-24
-180,-4,175,92,-178,85,151,356,200,126,29,-19
-180,0,180,90,-180,90,151,361,200,126,29,-14
-180,0,180,90,-180,90,146,366,200,136,29,-19
-185,0,185,92,-185,92,146,370,204,141,29,-19
-185,0,185,92,-185,92,146,370,214,146,34,-19
-185,0,185,92,-185,92,146,366,214,146,39,-19
-185,4,190,90,-187,97,151,375,214,146,39,-19
-185,4,190,90,-187,97,151,375,214,151,39,-19
-190,4,195,92,-192,100,151,380,224,151,39,-14
-190,4,195,92,-192,100,156,390,229,156,39,-14
-190,4,195,92,-192,100,156,400,244,156,39,-14
-190,4,195,92,-192,100,156,409,248,161,39,-14
-195,9,204,92,-200,107,156,419,258,165,39,-14
-200,9,209,95,-204,109,161,429,268,170,43,-14
-204,14,219,95,-212,117,161,439,278,165,48,-9
-204,19,224,92,-214,122,161,448,283,175,53,-9
-204,24,229,90,-217,126,161,463,292,185,58,-9
-204,24,229,90,-217,126,165,473,307,190,63,-9
-209,24,234,92,-222,129,165,488,317,204,63,-14
-209,29,239,90,-224,134,170,497,331,214,63,-14
-209,39,248,85,-229,143,180,512,346,234,78,-14
-214,43,258,85,-236,151,185,536,361,244,92,-9
-214,43,258,85,-236,151,185,556,370,253,92,-4
-219,48,268,85,-244,158,190,570,395,268,102,0
-219,63,283,78,-251,173,190,595,409,287,112,0
-219,68,287,75,-253,178,195,619,429,302,122,0
-224,68,292,78,-258,180,195,644,453,317,126,0
-224,73,297,75,-261,185,204,668,478,341,136,4
-224,87,312,68,-268,200,214,692,502,366,151,19
-224,102,326,61,-275,214,219,722,531,385,165,29
-219,107,326,56,-273,217,219,746,556,409,175,34
-214,112,326,51,-270,219,219,771,585,429,190,34
-219,131,351,43,-285,241,224,790,605,448,204,43
-219,141,361,39,-290,251,229,810,629,468,219,53
-209,156,366,26,-287,261,229,839,663,492,234,63
-209,165,375,21,-292,270,229,849,683,512,253,73
-209,180,390,14,-300,285,234,858,702,527,258,78
-200,190,390,4,-295,290,234,873,717,541,273,92
-190,204,395,-7,-292,300,234,878,727,551,287,102
-185,209,395,-12,-290,302,219,878,732,556,297,112
-175,229,405,-26,-290,317,209,868,732,561,307,122
-165,239,405,-36,-285,322,200,849,732,561,312,131
-156,258,414,-51,-285,336,195,834,717,566,317,141
-146,263,409,-58,-278,336,170,800,702,561,322,146
-126,268,395,-70,-261,331,161,775,683,551,326,156
-112,273,385,-80,-248,329,146,727,649,531,326,170
-92,278,370,-92,-231,324,131,673,619,512,326,180
-73,283,356,-104,-214,319,112,629,575,488,326,190
-53,283,336,-114,-195,309,92,566,527,453,312,200
-34,283,317,-124,-175,300,73,507,478,409,292,200
-9,263,273,-126,-141,268,48,463,429,375,273,200
0,239,239,-119,-119,239,29,414,380,336,253,195
19,224,204,-122,-92,214,24,366,336,302,229,185
29,209,180,-119,-75,195,9,322,292,263,204,170
29,195,165,-112,-68,180,4,287,258,234,180,151
29,175,146,-102,-58,161,0,248,224,209,156,136
29,156,126,-92,-48,141,-4,219,185,180,136,126
29,136,107,-82,-39,122,-9,190,156,156,122,112
29,122,92,-75,-31,107,-9,175,131,131,107,102
29,107,78,-68,-24,92,-9,161,117,117,87,92
24,92,68,-58,-21,80,-9,156,92,102,73,78
14,78,63,-46,-24,70,-4,141,82,82,63,73
4,63,58,-34,-26,61,0,131,73,78,48,63
4,58,53,-31,-24,56,0,126,58,68,39,53
0,48,48,-24,-24,48,4,126,48,58,29,48
-4,43,48,-19,-26,46,4,126,48,53,24,48
-9,43,53,-17,-31,48,4,126,43,48,24,43
-14,43,58,-14,-36,51,9,126,43,48,19,39
-14,48,63,-17,-39,56,14,126,43,48,14,34
-19,48,68,-14,-43,58,14,126,43,48,9,29
-24,43,68,-9,-46,56,19,126,48,53,9,24
-29,43,73,-7,-51,58,24,131,53,53,9,24
-39,43,82,-2,-61,63,29,136,58,53,9,24
-43,43,87,0,-65,65,34,146,63,53,9,24
-43,48,92,-2,-68,70,34,146,58,58,14,24
-48,48,97,0,-73,73,34,146,58,63,19,24
-48,48,97,0,-73,73,39,151,58,63,19,24
-48,48,97,0,-73,73,43,151,63,63,19,24
-48,48,97,0,-73,73,43,151,68,68,24,24
-53,53,107,0,-80,80,43,151,68,68,29,29
-53,48,102,2,-78,75,48,156,78,73,34,29
-53,48,102,2,-78,75,48,161,82,78,34,34
-53,58,112,-2,-82,85,53,161,82,82,34,29
-53,58,112,-2,-82,85,53,156,87,92,29,24
-48,73,122,-12,-85,97,58,161,87,92,34,29
-48,82,131,-17,-90,107,73,170,92,97,43,29
-39,97,136,-29,-87,117,73,185,102,102,43,39
-34,107,141,-36,-87,124,73,200,112,107,53,43
-24,117,141,-46,-82,129,82,224,131,112,63,48
-24,136,161,-56,-92,148,92,239,151,126,73,58
-9,151,161,-70,-85,156,78,268,165,141,82,68
4,156,151,-80,-73,153,48,287,180,161,97,68
9,170,161,-90,-75,165,39,268,180,161,97,73
14,185,170,-100,-78,178,19,253,170,156,97,82
19,180,161,-100,-70,170,4,214,161,146,92,82
19,180,161,-100,-70,170,-14,180,151,141,82,82
14,170,156,-92,-70,163,-19,165,136,141,82,78
14,161,146,-87,-65,153,-24,156,126,131,82,78
9,151,141,-80,-65,146,-43,136,122,126,73,73
14,131,117,-73,-51,124,-63,117,102,112,58,73
14,122,107,-68,-46,114,-68,112,92,97,63,68
19,117,97,-68,-39,107,-78,107,87,87,68,68
34,107,73,-70,-19,90,-78,107,78,87,68,68
48,97,48,-73,0,73,-78,107,68,87,68,68
53,97,43,-75,4,70,-73,102,63,82,58,63
58,92,34,-75,12,63,-63,102,58,73,43,53
63,87,24,-75,19,56,-58,102,53,68,34,48
68,87,19,-78,24,53,-53,112,53,63,24,43
73,78,4,-75,34,41,-34,112,53,58,24,43
68,78,9,-73,29,43,-14,122,53,58,14,39
39,78,39,-58,0,58,4,131,58,58,19,29
19,63,43,-41,-12,53,24,131,58,53,14,24
-9,48,58,-19,-34,53,39,141,63,48,14,24
-34,39,73,-2,-53,56,53,146,58,48,14,19
-39,34,73,2,-56,53,58,146,58,43,14,19
-39,29,68,4,-53,48,63,146,58,39,14,19
-48,29,78,9,-63,53,73,146,58,39,9,14
-58,29,87,14,-73,58,78,151,53,34,0,9
-58,24,82,17,-70,53,82,151,53,24,0,14
-58,24,82,17,-70,53,82,146,48,9,0,14
-58,19,78,19,-68,48,87,146,48,9,0,14
-58,14,73,21,-65,43,92,151,53,14,0,14
-58,19,78,19,-68,48,92,156,58,19,0,14
-58,19,78,19,-68,48,92,161,63,24,0,9
-58,29,87,14,-73,58,92,165,63,29,0,4
-58,34,92,12,-75,63,97,165,63,29,4,0
-53,34,87,9,-70,61,97,165,63,29,4,0
-48,34,82,7,-65,58,97,165,63,24,4,0
-48,34,82,7,-65,58,97,165,63,24,9,0
-48,34,82,7,-65,58,102,165,63,24,9,4
-48,34,82,7,-65,58,102,170,68,24,9,4
-48,34,82,7,-65,58,107,170,73,24,14,4
-48,39,87,4,-68,63,107,170,73,24,14,4
-53,39,92,7,-73,65,107,170,73,24,14,9
-53,39,92,7,-73,65,107,170,73,24,14,9
-48,43,92,2,-70,68,107,170,73,24,14,9
-48,48,97,0,-73,73,112,170,73,24,14,9
-48,53,102,-2,-75,78,112,170,73,24,19,9
-48,53,102,-2,-75,78,112,175,73,24,19,14
-48,53,102,-2,-75,78,112,175,73,24,19,19
-48,58,107,-4,-78,82,117,175,73,24,24,19
-48,58,107,-4,-78,82,117,180,73,24,24,19
-43,63,107,-9,-75,85,117,180,68,19,19,19
-39,63,102,-12,-70,82,117,175,63,14,14,14
-19,68,87,-24,-53,78,112,175,63,19,9,9
9,78,68,-43,-29,73,92,161,68,29,14,9
58,73,14,-65,21,43,78,244,112,53,39,29
107,87,-19,-97,63,34,48,229,126,82,68,48
141,131,-9,-136,75,61,4,39,136,92,87,87
185,180,-4,-183,95,87,-82,-361,4,43,97,126
214,229,14,-222,100,122,-190,-956,-239,-58,97,165
253,287,34,-270,109,161,-351,-1615,-570,-204,97,234
287,312,24,-300,131,168,-556,-2347,-1078,-468,48,312
331,326,-4,-329,168,161,-717,-2932,-1537,-712,0,375
390,312,-78,-351,234,117,-819,-3381,-1820,-858,-19,429
488,200,-287,-344,387,-43,-932,-3738,-2088,-1019,-78,448
658,92,-566,-375,612,-236,-1093,-3904,-2269,-1171,-136,444
961,-39,-1000,-461,980,-519,-1268,-3777,-2293,-1215,-156,463
1381,-112,-1493,-634,1437,-802,-1410,-3455,-2132,-1073,-68,536
1698,-180,-1878,-758,1788,-1029,-1454,-3132,-1995,-1024,-58,541
1771,-351,-2122,-710,1947,-1237,-1400,-2913,-2025,-1205,-283,356
1722,-541,-2264,-590,1993,-1403,-1302,-2737,-2137,-1527,-727,-19
1708,-746,-2454,-480,2081,-1600,-1215,-2508,-2196,-1790,-1171,-419
1673,-839,-2513,-417,2093,-1676,-1112,-2196,-2103,-1825,-1351,-673
1576,-849,-2425,-363,2000,-1637,-990,-1849,-1883,-1698,-1337,-761
1444,-810,-2254,-317,1849,-1532,-839,-1532,-1625,-1527,-1259,-785
1224,-780,-2005,-222,1615,-1393,-673,-1220,-1385,-1351,-1190,-800
927,-717,-1644,-104,1285,-1180,-507,-922,-1156,-1161,-1063,-756
590,-639,-1229,24,910,-934,-336,-668,-932,-971,-897,-683
346,-531,-878,92,612,-705,-175,-429,-668,-741,-717,-580
180,-390,-570,104,375,-480,-48,-224,-414,-527,-527,-458
82,-248,-331,82,207,-290,24,-48,-239,-351,-361,-322
9,-131,-141,61,75,-136,73,97,-92,-180,-195,-185
-39,-34,4,36,-21,-14,136,219,58,-39,-73,-102
-43,0,43,21,-43,21,165,283,126,14,-43,-82
-63,24,87,19,-75,56,170,307,156,29,-24,-53
-82,29,112,26,-97,70,170,326,161,39,0,-39
-82,34,117,24,-100,75,180,336,170,53,4,-39
-87,34,122,26,-104,78,200,341,195,68,4,-39
-92,53,146,19,-119,100,204,346,204,78,9,-39
-92,53,146,19,-119,100,204,361,209,82,29,-19
-97,63,161,17,-129,112,204,366,209,82,39,-14
-97,68,165,14,-131,117,204,370,204,87,39,-14
-102,73,175,14,-139,124,204,370,209,87,39,-14
-102,78,180,12,-141,129,200,375,209,92,43,-14
-102,78,180,12,-141,129,195,375,209,92,43,-14
-102,78,180,12,-141,129,195,375,209,97,48,-9
-102,73,175,14,-139,124,195,380,209,97,48,-4
-102,73,175,14,-139,124,200,380,224,102,48,-4
-102,78,180,12,-141,129,200,380,229,107,48,-4
-102,78,180,12,-141,129,204,385,229,117,48,-9
-107,78,185,14,-146,131,214,390,234,122,48,-9
-107,73,180,17,-143,126,214,395,244,122,48,-9
-107,68,175,19,-141,122,214,395,244,117,48,-9
-112,73,185,19,-148,129,219,405,244,117,48,-9
-117,73,190,21,-153,131,219,405,244,122,48,-9
-122,78,200,21,-161,139,219,405,253,126,53,-9
-122,82,204,19,-163,143,224,409,258,136,58,-14
-122,82,204,19,-163,143,224,419,273,136,58,-14
-122,82,204,19,-163,143,224,429,278,141,58,-14
-122,87,209,17,-165,148,224,434,283,146,58,-19
-122,87,209,17,-165,148,229,439,287,151,63,-24
-126,87,214,19,-170,151,229,448,297,151,68,-19
-126,87,214,19,-170,151,229,458,302,165,73,-19
-126,92,219,17,-173,156,229,473,307,175,78,-19
-126,92,219,17,-173,156,234,483,317,180,82,-19
-131,97,229,17,-180,163,234,497,326,190,82,-24
-131,107,239,12,-185,173,239,507,341,195,82,-24
-131,112,244,9,-187,178,244,517,361,214,92,-24
-136,112,248,12,-192,180,244,536,380,224,102,-19
-131,112,244,9,-187,178,244,556,390,229,97,-14
-131,117,248,7,-190,183,248,570,414,239,102,-9
-131,131,263,0,-197,197,248,590,429,258,112,-14
-131,136,268,-2,-200,202,253,610,448,273,122,-19
-136,136,273,0,-204,204,253,634,468,287,131,-19
-136,141,278,-2,-207,209,263,658,488,312,146,-14
-136,151,287,-7,-212,219,273,683,512,336,161,4
-136,161,297,-12,-217,229,278,712,541,356,175,19
-131,170,302,-19,-217,236,278,741,566,380,185,24
-126,180,307,-26,-217,244,278,771,595,400,200,24
-131,200,331,-34,-231,265,283,790,614,419,214,24
-131,209,341,-39,-236,275,287,810,639,439,229,24
-122,219,341,-48,-231,280,287,839,673,458,239,34
-122,224,346,-51,-234,285,287,849,692,473,253,43
-122,239,361,-58,-241,300,292,858,712,488,258,48
-112,248,361,-68,-236,305,292,873,727,502,273,63
-102,263,366,-80,-234,314,292,878,746,517,287,73
-97,268,366,-85,-231,317,278,878,761,527,297,82
-82,287,370,-102,-226,329,268,878,761,531,307,92
-68,297,366,-114,-217,331,258,868,761,531,312,102
-58,317,375,-129,-217,346,258,858,751,546,326,122
-48,322,370,-136,-209,346,239,829,741,551,341,136
-29,331,361,-151,-195,346,229,810,727,541,346,146
-14,341,356,-163,-185,348,214,766,697,522,346,161
4,346,341,-175,-168,344,200,712,673,502,346,165
24,351,326,-187,-151,339,180,668,634,478,346,170
43,351,307,-197,-131,329,161,610,585,448,336,180
63,351,287,-207,-112,319,141,556,536,409,322,180
87,336,248,-212,-80,292,122,507,492,380,302,185
97,317,219,-207,-61,268,107,453,448,346,283,185
117,302,185,-209,-34,244,102,405,400,312,258,175
126,287,161,-207,-17,224,87,361,351,273,234,161
126,278,151,-202,-12,214,78,326,317,239,214,141
126,263,136,-195,-4,200,68,287,283,209,195,126
126,244,117,-185,4,180,68,258,244,180,175,117
126,224,97,-175,14,161,68,229,214,156,161,102
122,209,87,-165,17,148,68,209,190,131,146,92
117,195,78,-156,19,136,68,190,175,117,126,82
112,180,68,-146,21,124,68,185,146,102,107,68
102,165,63,-134,19,114,73,170,131,82,92,63
92,151,58,-122,17,104,78,161,122,73,73,53
92,146,53,-119,19,100,78,156,107,58,58,43
87,136,48,-112,19,92,82,151,97,48,48,39
82,131,48,-107,17,90,82,146,97,43,43,39
78,131,53,-104,12,92,82,146,92,39,48,34
73,131,58,-102,7,95,87,146,92,39,48,29
68,131,63,-100,2,97,97,146,92,39,48,24
58,126,68,-92,-4,97,102,146,92,39,48,19
53,122,68,-87,-7,95,107,146,97,48,48,14
48,122,73,-85,-12,97,112,151,102,53,48,14
39,122,82,-80,-21,102,117,156,107,53,43,19
34,122,87,-78,-26,104,122,165,112,53,39,24
34,122,87,-78,-26,104,122,165,102,53,43,24
29,117,87,-73,-29,102,122,165,97,53,48,24
29,117,87,-73,-29,102,126,170,97,53,48,14
29,117,87,-73,-29,102,131,170,102,53,48,4
29,117,87,-73,-29,102,136,170,107,58,48,0
24,122,97,-73,-36,109,141,170,107,58,48,0
19,117,97,-68,-39,107,146,175,112,58,43,0
14,117,102,-65,-43,109,146,180,112,58,34,4
9,112,102,-61,-46,107,151,185,112,63,39,4
4,97,92,-51,-43,95,151,185,117,73,39,4
9,112,102,-61,-46,107,151,175,112,73,48,4
9,122,112,-65,-51,117,161,170,112,78,63,0
9,126,117,-68,-53,122,161,170,122,78,53,4
4,126,122,-65,-58,124,161,170,131,78,53,4
9,122,112,-65,-51,117,165,185,131,68,53,9
4,126,122,-65,-58,124,170,190,131,68,53,19
9,151,141,-80,-65,146,185,209,146,87,63,29
14,165,151,-90,-68,158,185,219,161,112,78,29
19,180,161,-100,-70,170,195,234,175,117,78,29
24,195,170,-109,-73,183,195,253,180,117,78,34
48,200,151,-124,-51,175,165,258,190,122,87,43
68,209,141,-139,-36,175,131,268,200,131,92,53
63,214,151,-139,-43,183,122,244,195,141,102,53
63,219,156,-141,-46,187,112,224,195,141,112,58
48,209,161,-129,-56,185,92,190,190,136,112,53
39,195,156,-117,-58,175,73,156,180,126,107,53
43,190,146,-117,-51,168,53,156,165,122,107,53
48,190,141,-119,-46,165,34,151,156,112,102,53
48,180,131,-114,-41,156,19,131,151,112,102,43
53,180,126,-117,-36,153,19,122,131,102,92,39
58,161,102,-109,-21,131,14,117,117,87,82,39
68,146,78,-107,-4,112,9,117,107,78,78,39
73,136,63,-104,4,100,14,117,102,78,73,39
78,126,48,-102,14,87,19,117,97,78,68,39
82,126,43,-104,19,85,19,112,92,73,63,34
87,117,29,-102,29,73,29,112,87,63,53,29
92,112,19,-102,36,65,39,112,82,58,48,24
97,107,9,-102,43,58,53,122,82,53,43,24
97,97,0,-97,48,48,73,122,78,48,43,24
87,97,9,-92,39,53,92,131,73,48,34,19
58,97,39,-78,9,68,117,141,78,48,39,14
39,82,43,-61,-2,63,141,141,78,43,34,14
14,73,58,-43,-21,65,151,146,73,39,29,9
-4,68,73,-31,-39,70,161,146,58,39,24,0
-9,68,78,-29,-43,73,165,146,58,34,24,0
-9,68,78,-29,-43,73,170,146,58,29,24,0
-19,63,82,-21,-51,73,180,146,58,29,9,-9
-29,58,87,-14,-58,73,185,151,53,24,-9,-19
-34,53,87,-9,-61,70,190,151,58,29,-9,-19
-39,53,92,-7,-65,73,190,146,58,29,-9,-24
-39,53,92,-7,-65,73,195,146,58,29,0,-24
-39,53,92,-7,-65,73,200,151,63,34,9,-24
-39,63,102,-12,-70,82,200,146,63,34,9,-19
-39,68,107,-14,-73,87,200,141,63,34,9,-19
-39,73,112,-17,-75,92,200,146,63,34,9,-14
-39,73,112,-17,-75,92,204,146,63,29,14,-9
-39,63,102,-12,-70,82,204,151,63,29,9,-9
-39,53,92,-7,-65,73,204,156,63,24,4,-9
-39,53,92,-7,-65,73,204,156,63,24,4,-19
-39,53,92,-7,-65,73,209,156,63,24,0,-24
-39,58,97,-9,-68,78,209,161,63,29,0,-24
-39,63,102,-12,-70,82,214,161,63,34,4,-24
-39,68,107,-14,-73,87,214,161,63,34,4,-24
-43,68,112,-12,-78,90,214,161,63,34,4,-19
-43,63,107,-9,-75,85,214,161,63,34,4,-19
-39,63,102,-12,-70,82,214,161,63,34,4,-19
-43,63,107,-9,-75,85,219,161,63,34,0,-19
-48,63,112,-7,-80,87,219,161,63,34,0,-19
-48,63,112,-7,-80,87,219,165,63,34,4,-19
-48,63,112,-7,-80,87,219,165,63,34,9,-19
-48,68,117,-9,-82,92,224,165,63,34,14,-19
-48,68,117,-9,-82,92,224,170,63,34,14,-19
-43,73,117,-14,-80,95,219,170,63,34,24,-14
-39,73,112,-17,-75,92,214,165,63,34,34,-14
-24,78,102,-26,-63,90,204,165,48,34,24,-14
0,87,87,-43,-43,87,180,151,39,39,24,-9
43,78,34,-61,4,56,156,170,78,63,43,14
87,87,0,-87,43,43,117,92,87,92,68,39
107,131,24,-119,41,78,82,-156,29,58,78,78
136,180,43,-158,46,112,4,-614,-170,-34,78,117
156,224,68,-190,43,146,-107,-1190,-444,-146,82,165
185,278,92,-231,46,185,-273,-1830,-805,-302,87,244
219,317,97,-268,61,207,-463,-2522,-1302,-546,73,346
263,346,82,-305,90,214,-610,-3069,-1751,-771,58,434
336,326,-9,-331,173,158,-712,-3479,-2020,-912,48,517
448,209,-239,-329,344,-14,-824,-3796,-2274,-1068,0,566
644,92,-551,-368,597,-229,-990,-3904,-2396,-1161,4,605
971,-48,-1019,-461,995,-534,-1171,-3718,-2361,-1146,48,668
1317,-131,-1449,-592,1383,-790,-1268,-3386,-2200,-1034,102,727
1561,-209,-1771,-675,1666,-990,-1268,-3054,-2064,-1015,78,717
1615,-385,-2000,-614,1808,-1193,-1190,-2806,-2078,-1215,-229,468
1546,-580,-2127,-483,1837,-1354,-1068,-2601,-2176,-1556,-756,29
1527,-775,-2303,-375,1915,-1539,-956,-2318,-2152,-1747,-1127,-346
1488,-858,-2347,-314,1917,-1603,-829,-1952,-1976,-1708,-1234,-575
1371,-849,-2220,-261,1795,-1534,-702,-1620,-1737,-1556,-1215,-663
1220,-790,-2010,-214,1615,-1400,-546,-1317,-1459,-1361,-1132,-688
985,-746,-1732,-119,1359,-1239,-370,-1019,-1220,-1185,-1054,-702
673,-668,-1342,-2,1007,-1005,-195,-736,-990,-995,-917,-658
400,-570,-971,85,685,-771,-43,-497,-775,-805,-766,-600
219,-444,-663,112,441,-553,97,-273,-522,-575,-600,-512
78,-322,-400,122,239,-361,200,-102,-292,-380,-429,-409
4,-200,-204,97,104,-202,248,39,-141,-224,-283,-292
-48,-107,-58,78,4,-82,287,165,-14,-82,-151,-180
-78,-34,43,56,-61,4,341,268,117,29,-63,-122
-82,-9,73,46,-78,31,366,312,156,68,-39,-107
-102,4,107,48,-104,56,366,317,156,68,-24,-82
-112,9,122,51,-117,65,356,336,161,78,-4,-73
-102,14,117,43,-109,65,356,346,170,92,-4,-78
-107,19,126,43,-117,73,370,351,190,107,-4,-78
-112,43,156,34,-134,100,370,356,195,117,0,-78
-107,43,151,31,-129,97,366,366,200,122,14,-63
-107,53,161,26,-134,107,361,366,200,122,19,-63
-107,53,161,26,-134,107,361,370,204,126,24,-58
-112,53,165,29,-139,109,361,370,219,126,29,-53
-112,58,170,26,-141,114,356,375,219,131,34,-53
-112,58,170,26,-141,114,351,375,219,131,34,-53
-112,63,175,24,-143,119,346,370,214,136,29,-53
-112,63,175,24,-143,119,341,370,209,136,19,-53
-112,63,175,24,-143,119,336,370,219,131,19,-53
-112,68,180,21,-146,124,326,370,219,126,19,-53
-112,68,180,21,-146,124,322,375,219,136,24,-58
-117,68,185,24,-151,126,322,380,224,141,29,-58
-117,68,185,24,-151,126,322,385,234,146,34,-58
-117,68,185,24,-151,126,322,385,234,146,39,-58
-117,73,190,21,-153,131,326,395,234,146,34,-58
-117,73,190,21,-153,131,326,395,234,151,29,-58
-122,73,195,24,-158,134,326,395,239,151,29,-58
-122,73,195,24,-158,134,331,400,239,156,29,-63
-122,68,190,26,-156,129,331,409,253,161,34,-63
-122,63,185,29,-153,124,331,419,258,170,39,-63
-131,68,200,31,-165,134,331,424,263,175,39,-63
-141,68,209,36,-175,139,336,429,268,180,43,-63
-146,68,214,39,-180,141,341,434,278,175,48,-58
-146,68,214,39,-180,141,346,439,283,185,53,-58
-146,73,219,36,-183,146,351,453,292,195,58,-58
-146,73,219,36,-183,146,361,463,307,200,63,-58
-151,73,224,39,-187,148,361,473,312,209,63,-68
-151,78,229,36,-190,153,366,478,322,214,63,-73
-151,82,234,34,-192,158,370,492,341,229,68,-73
-156,82,239,36,-197,161,370,517,361,234,73,-68
-156,78,234,39,-195,156,366,531,370,244,73,-68
-161,78,239,41,-200,158,366,541,395,258,82,-68
-161,87,248,36,-204,168,366,561,409,278,92,-68
-161,87,248,36,-204,168,370,580,429,292,102,-68
-165,87,253,39,-209,170,361,605,453,307,107,-68
-165,92,258,36,-212,175,361,629,478,331,117,-63
-170,92,263,39,-217,178,361,649,502,356,131,-53
-175,92,268,41,-222,180,356,673,531,375,146,-48
-175,97,273,39,-224,185,356,697,551,390,151,-43
-175,102,278,36,-226,190,356,722,575,400,161,-43
-180,122,302,29,-241,212,346,741,595,419,175,-34
-180,131,312,24,-246,222,336,761,619,439,190,-24
-170,136,307,17,-239,222,331,785,653,463,200,-19
-170,136,307,17,-239,222,326,790,673,483,214,-14
-170,151,322,9,-246,236,322,795,688,497,219,-14
-161,161,322,0,-241,241,312,805,697,512,234,-4
-151,175,326,-12,-239,251,312,810,712,527,248,4
-146,180,326,-17,-236,253,297,810,722,536,258,14
-136,195,331,-29,-234,263,283,805,727,541,268,24
-126,200,326,-36,-226,263,268,790,732,541,273,34
-117,219,336,-51,-226,278,263,775,717,541,273,53
-107,224,331,-58,-219,278,239,741,702,531,273,68
-92,229,322,-68,-207,275,224,722,683,522,278,78
-82,234,317,-75,-200,275,204,678,649,502,278,92
-68,234,302,-82,-185,268,190,624,624,488,283,107
-53,234,287,-90,-170,261,170,580,585,468,287,122
-43,234,278,-95,-161,256,151,522,536,439,283,131
-34,234,268,-100,-151,251,131,468,488,400,273,131
-19,219,239,-100,-129,229,112,424,439,366,253,131
-19,200,219,-90,-119,209,97,375,390,326,234,126
-4,185,190,-90,-97,187,92,326,341,292,209,117
0,170,170,-85,-85,170,78,283,292,253,185,102
-4,161,165,-78,-85,163,73,248,258,219,161,87
-9,146,156,-68,-82,151,68,209,224,190,136,78
-14,126,141,-56,-78,134,63,180,185,161,117,73
-19,107,126,-43,-73,117,58,151,156,136,102,63
-24,87,112,-31,-68,100,58,136,131,112,92,53
-29,68,97,-19,-63,82,58,122,117,97,78,43
-34,58,92,-12,-63,75,53,117,92,82,63,24
-43,48,92,-2,-68,70,53,102,82,63,53,14
-53,34,87,9,-70,61,53,92,73,58,39,4
-53,29,82,12,-68,56,48,87,58,48,29,-4
-58,19,78,19,-68,48,53,82,48,39,19,-9
-63,14,78,24,-70,46,53,78,48,34,14,-9
-68,14,82,26,-75,48,48,78,39,24,14,-14
-73,14,87,29,-80,51,48,78,34,19,9,-19
-78,14,92,31,-85,53,53,78,34,19,4,-19
-87,9,97,39,-92,53,53,78,34,19,0,-19
-92,4,97,43,-95,51,48,78,34,24,0,-24
-97,4,102,46,-100,53,43,82,34,24,0,-24
-97,4,102,46,-100,53,48,87,39,24,0,-24
-92,4,97,43,-95,51,53,97,43,24,0,-24
-92,9,102,41,-97,56,53,97,43,29,4,-24
-97,9,107,43,-102,58,53,97,48,34,9,-24
-97,9,107,43,-102,58,53,102,53,34,9,-24
-97,9,107,43,-102,58,53,102,63,34,9,-24
-97,9,107,43,-102,58,53,102,68,39,9,-24
-102,14,117,43,-109,65,53,102,68,39,9,-19
-107,14,122,46,-114,68,58,107,73,43,19,-19
-112,19,131,46,-122,75,58,112,73,48,24,-14
-112,29,141,41,-126,85,63,117,78,53,29,-14
-112,29,141,41,-126,85,63,117,87,63,29,-14
-102,48,151,26,-126,100,68,126,97,68,34,-9
-97,63,161,17,-129,112,82,141,112,78,43,-9
-87,78,165,4,-126,122,82,156,122,87,43,0
-82,87,170,-2,-126,129,82,170,131,97,53,4
-68,97,165,-14,-117,131,78,200,151,107,68,9
-63,117,180,-26,-122,148,73,219,170,126,82,19
-48,131,180,-41,-114,156,53,219,175,131,82,34
-34,136,170,-51,-102,153,19,209,180,141,87,39
-43,141,185,-48,-114,163,9,175,175,136,87,39
-53,146,200,-46,-126,173,-9,146,161,126,87,43
-48,136,185,-43,-117,161,-24,126,151,117,82,43
-48,131,180,-41,-114,156,-43,112,141,112,73,43
-48,122,170,-36,-109,146,-48,97,131,112,73,39
-43,107,151,-31,-97,129,-63,87,122,97,73,34
-34,92,126,-29,-80,109,-78,73,102,87,68,29
-29,78,107,-24,-68,92,-92,63,87,78,63,29
-19,73,92,-26,-56,82,-87,53,78,68,53,24
-9,68,78,-29,-43,73,-87,48,68,58,48,19
0,68,68,-34,-34,68,-82,48,68,58,48,19
9,68,58,-39,-24,63,-78,48,68,58,48,19
9,63,53,-36,-21,58,-73,48,68,53,43,19
14,53,39,-34,-12,46,-68,53,63,48,39,14
19,48,29,-34,-4,39,-68,63,63,43,34,14
19,39,19,-29,0,29,-53,63,63,39,34,14
9,39,29,-24,-9,34,-34,73,63,39,29,9
-19,39,58,-9,-39,48,-14,82,68,39,34,0
-39,24,63,7,-51,43,4,82,68,34,24,-4
-63,14,78,24,-70,46,14,87,68,29,19,-9
-82,9,92,36,-87,51,19,87,58,29,9,-19
-87,4,92,41,-90,48,19,87,58,24,4,-19
-87,0,87,43,-87,43,24,87,53,19,4,-19
-97,-4,92,51,-95,43,29,87,48,19,0,-24
-107,-9,97,58,-102,43,29,92,43,14,-9,-29
-107,-14,92,61,-100,39,34,92,43,14,-9,-29
-112,-14,97,63,-104,41,34,87,39,9,-9,-34
-117,-14,102,65,-109,43,39,87,39,9,-9,-34
-117,-19,97,68,-107,39,43,92,43,14,-9,-34
-117,-19,97,68,-107,39,43,92,43,14,-9,-29
-117,-19,97,68,-107,39,43,92,43,9,-9,-29
-117,-14,102,65,-109,43,43,97,43,9,-9,-29
-117,-14,102,65,-109,43,43,97,43,9,-4,-29
-117,-14,102,65,-109,43,39,97,43,9,-4,-29
-122,-14,107,68,-114,46,39,97,43,4,-4,-29
-126,-14,112,70,-119,48,39,97,43,4,-4,-34
-126,-14,112,70,-119,48,43,97,43,4,-9,-34
-126,-14,112,70,-119,48,43,102,43,4,-9,-34
-126,-14,112,70,-119,48,48,102,43,4,-4,-34
-126,-9,117,68,-122,53,48,102,43,4,-4,-34
-131,-14,117,73,-124,51,48,102,43,9,-4,-29
-131,-19,112,75,-122,46,48,102,43,14,-4,-29
-126,-14,112,70,-119,48,48,102,43,14,-4,-29
-126,-14,112,70,-119,48,53,102,43,14,-9,-29
-126,-14,112,70,-119,48,53,102,43,14,-9,-29
-126,-14,112,70,-119,48,53,107,43,14,-9,-29
-126,-14,112,70,-119,48,53,107,43,14,-9,-29
-126,-9,117,68,-122,53,58,107,43,14,-4,-29
-126,-9,117,68,-122,53,53,112,43,14,-9,-29
-122,-4,117,63,-119,56,43,112,43,14,-14,-24
-117,0,117,58,-117,58,39,107,43,14,-14,-24
-97,9,107,43,-102,58,29,107,43,19,-9,-19
-68,19,87,24,-78,53,9,92,48,29,14,-4
-19,24,43,-2,-31,34,-9,112,78,53,48,24
29,48,19,-39,4,34,-48,29,68,78,78,48
58,92,34,-75,12,63,-107,-263,-14,39,87,87
97,136,39,-117,29,87,-209,-761,-268,-73,82,126
126,170,43,-148,41,107,-336,-1376,-619,-239,68,175
165,219,53,-192,56,136,-512,-2044,-1039,-448,48,258
204,229,24,-217,90,126,-697,-2688,-1532,-712,-9,331
253,229,-24,-241,139,102,-844,-3172,-1947,-927,-43,395
336,190,-146,-263,241,21,-946,-3513,-2176,-1049,-43,458
458,53,-405,-256,431,-175,-1058,-3782,-2381,-1176,-78,507
658,-43,-702,-307,680,-373,-1215,-3825,-2459,-1239,-82,551
990,-151,-1141,-419,1066,-646,-1376,-3581,-2371,-1185,-24,614
1337,-209,-1546,-563,1442,-878,-1464,-3279,-2181,-1044,82,697
1581,-263,-1844,-658,1712,-1054,-1464,-2986,-2044,-1024,58,688
1639,-419,-2059,-610,1849,-1239,-1400,-2786,-2074,-1220,-214,468
1576,-610,-2186,-483,1881,-1398,-1298,-2625,-2171,-1556,-712,53
1561,-785,-2347,-387,1954,-1566,-1210,-2376,-2156,-1747,-1098,-302
1537,-849,-2386,-344,1961,-1617,-1102,-2039,-2000,-1708,-1220,-527
1429,-849,-2278,-290,1854,-1564,-980,-1708,-1776,-1581,-1220,-634
1298,-810,-2108,-244,1703,-1459,-829,-1405,-1517,-1410,-1146,-673
1078,-790,-1869,-143,1473,-1329,-663,-1107,-1278,-1234,-1073,-702
761,-727,-1488,-17,1124,-1107,-502,-839,-1049,-1054,-951,-668
458,-644,-1102,92,780,-873,-346,-614,-834,-873,-810,-614
244,-531,-775,143,509,-653,-195,-390,-580,-644,-639,-531
92,-390,-483,148,287,-436,-87,-200,-341,-439,-458,-419
9,-248,-258,119,134,-253,-34,-39,-180,-273,-302,-283
-58,-146,-87,102,14,-117,14,87,-53,-131,-165,-170
-102,-68,34,85,-68,-17,82,190,78,-19,-78,-122
-112,-43,68,78,-90,12,117,244,136,29,-53,-112
-131,-24,107,78,-119,41,122,258,151,39,-34,-82
-151,-19,131,85,-141,56,122,278,151,48,-9,-68
-151,-14,136,82,-143,61,126,287,161,63,-9,-68
-156,-14,141,85,-148,63,136,292,180,78,-14,-68
-161,4,165,78,-163,85,136,297,190,92,-9,-68
-161,4,165,78,-163,85,136,307,200,102,4,-53
-161,14,175,73,-168,95,136,307,200,102,9,-53
-156,14,170,70,-163,92,136,312,200,107,9,-53
-161,14,175,73,-168,95,136,312,209,107,9,-53
-161,19,180,70,-170,100,136,317,209,112,14,-53
-161,19,180,70,-170,100,136,317,214,112,19,-53
-161,24,185,68,-173,104,136,317,219,117,29,-48
-161,24,185,68,-173,104,131,322,219,117,29,-43
-161,24,185,68,-173,104,131,322,229,117,29,-43
-165,29,195,68,-180,112,131,322,229,117,29,-39
-170,29,200,70,-185,114,126,326,229,126,29,-39
-175,29,204,73,-190,117,126,331,234,131,29,-39
-175,29,204,73,-190,117,126,336,244,136,34,-39
-175,29,204,73,-190,117,126,336,244,136,39,-39
-175,34,209,70,-192,122,131,346,244,136,39,-39
-175,34,209,70,-192,122,131,346,244,141,39,-39
-180,34,214,73,-197,124,131,346,253,141,39,-39
-180,34,214,73,-197,124,136,351,253,146,39,-43
-180,34,214,73,-197,124,136,361,263,146,39,-43
-175,34,209,70,-192,122,136,370,268,151,39,-43
-175,39,214,68,-195,126,136,375,273,156,39,-43
-180,39,219,70,-200,129,141,380,278,161,39,-53
-185,39,224,73,-204,131,141,390,287,161,39,-58
-185,39,224,73,-204,131,141,405,292,170,43,-58
-185,43,229,70,-207,136,141,424,302,175,48,-58
-185,43,229,70,-207,136,146,434,317,180,53,-53
-190,43,234,73,-212,139,146,448,326,190,53,-53
-190,48,239,70,-214,143,151,458,341,195,53,-53
-190,53,244,68,-217,148,156,473,361,214,63,-53
-190,53,244,68,-217,148,161,497,380,224,78,-48
-185,53,239,65,-212,146,165,517,390,234,82,-43
-190,58,248,65,-219,153,170,531,419,248,92,-39
-190,73,263,58,-226,168,170,551,439,268,102,-39
-190,78,268,56,-229,173,175,570,458,283,112,-39
-195,78,273,58,-234,175,175,595,483,297,117,-39
-195,82,278,56,-236,180,185,619,512,322,126,-34
-195,92,287,51,-241,190,195,644,541,346,141,-24
-195,107,302,43,-248,204,200,673,570,370,156,-19
-195,117,312,39,-253,214,200,702,595,400,165,-14
-195,122,317,36,-256,219,200,727,624,419,180,-14
-200,141,341,29,-270,241,200,741,644,439,195,-4
-200,151,351,24,-275,251,200,761,668,458,209,4
-190,161,351,14,-270,256,200,785,702,483,224,14
-190,165,356,12,-273,261,200,795,722,507,248,24
-190,180,370,4,-280,275,204,810,741,527,258,29
-185,195,380,-4,-283,287,204,824,756,541,273,48
-180,214,395,-17,-287,305,204,829,771,556,287,63
-175,219,395,-21,-285,307,195,829,785,566,297,73
-165,239,405,-36,-285,322,190,824,790,570,307,82
-151,248,400,-48,-275,324,180,810,790,570,312,92
-136,268,405,-65,-270,336,175,795,775,570,317,107
-126,273,400,-73,-263,336,151,756,756,561,322,117
-107,278,385,-85,-246,331,141,727,732,551,326,126
-92,283,375,-95,-234,329,126,678,697,527,322,141
-73,287,361,-107,-217,324,112,624,668,502,317,151
-58,292,351,-117,-204,322,92,580,619,478,317,161
-43,292,336,-124,-190,314,73,522,566,448,307,170
-24,292,317,-134,-170,305,58,468,517,409,297,170
0,278,278,-139,-139,278,43,424,468,375,283,170
9,258,248,-134,-119,253,29,375,414,336,263,170
24,244,219,-134,-97,231,24,326,361,302,239,165
34,229,195,-131,-80,212,4,283,312,258,214,151
39,214,175,-126,-68,195,-4,248,278,219,190,136
43,195,151,-119,-53,173,-9,214,244,190,161,126
48,175,126,-112,-39,151,-9,190,204,161,136,117
53,161,107,-107,-26,134,-9,161,170,131,122,102
53,151,97,-102,-21,124,-9,146,141,102,107,92
48,136,87,-92,-19,112,-9,131,126,87,87,82
43,126,82,-85,-19,104,-9,126,102,73,73,68
34,117,82,-75,-24,100,-9,112,92,58,68,63
24,102,78,-63,-26,90,-9,102,82,58,58,53
24,97,73,-61,-24,85,-9,92,68,48,48,43
19,87,68,-53,-24,78,-4,87,58,39,39,39
14,82,68,-48,-26,75,-4,87,58,34,34,39
9,82,73,-46,-31,78,-4,87,53,29,34,34
4,82,78,-43,-36,80,0,87,53,24,24,29
4,82,78,-43,-36,80,4,87,53,19,19,29
0,82,82,-41,-41,82,4,87,53,19,19,29
-4,82,87,-39,-46,85,9,87,53,24,19,24
-9,82,92,-36,-51,87,14,92,53,24,19,19
-14,82,97,-34,-56,90,19,97,58,24,19,14
-14,78,92,-31,-53,85,24,107,63,24,19,14
-14,78,92,-31,-53,85,24,107,63,29,24,14
-19,78,97,-29,-58,87,24,107,68,34,29,14
-19,78,97,-29,-58,87,29,112,68,34,29,14
-19,82,102,-31,-61,92,34,122,78,39,29,19
-19,87,107,-34,-63,97,34,131,87,48,29,24
-24,102,126,-39,-75,114,39,136,97,58,39,34
-24,112,136,-43,-80,124,48,146,117,73,53,39
-19,126,146,-53,-82,136,58,170,131,82,63,53
-14,146,161,-65,-87,153,73,195,146,92,78,63
-4,151,156,-73,-80,153,58,214,161,112,78,63
9,170,161,-90,-75,165,48,239,170,122,87,68
9,180,170,-95,-80,175,29,239,180,126,102,68
19,195,175,-107,-78,185,-4,239,190,136,102,78
14,195,180,-104,-82,187,-14,195,175,126,102,73
14,195,180,-104,-82,187,-29,156,161,112,102,68
4,190,185,-97,-90,187,-34,141,151,112,97,68
0,175,175,-87,-87,175,-39,122,136,102,82,68
0,156,156,-78,-78,156,-58,112,131,102,82,63
4,136,131,-70,-63,134,-78,97,117,87,78,58
4,122,117,-63,-56,119,-87,87,97,78,63,48
4,112,107,-58,-51,109,-97,78,78,68,48,43
4,92,87,-48,-41,90,-102,68,78,63,43,39
9,78,68,-43,-29,73,-107,58,78,58,39,39
9,78,68,-43,-29,73,-102,58,63,48,39,39
9,78,68,-43,-29,73,-97,58,48,39,39,39
9,68,58,-39,-24,63,-92,58,48,39,34,39
9,53,43,-31,-17,48,-87,63,43,34,29,34
14,39,24,-26,-4,31,-87,68,39,34,24,29
9,19,9,-14,0,14,-73,63,34,29,24,24
-4,19,24,-7,-14,21,-58,68,34,24,14,19
-39,19,58,9,-48,39,-43,73,39,19,14,9
-63,-9,53,36,-58,21,-24,73,39,14,4,0
-92,-34,58,63,-75,12,-14,78,39,9,0,-9
-122,-43,78,82,-100,17,-9,78,29,4,-9,-19
-136,-53,82,95,-109,14,-9,78,29,-4,-14,-19
-141,-63,78,102,-109,7,-4,73,24,-9,-19,-24
-156,-73,82,114,-119,4,0,68,19,-9,-29,-34
-180,-97,82,139,-131,-7,-4,68,14,-19,-43,-39
-195,-122,73,158,-134,-24,-4,63,14,-24,-48,-39
-204,-126,78,165,-141,-24,-9,53,4,-29,-48,-48
-214,-131,82,173,-148,-24,-9,48,0,-29,-48,-53
-224,-146,78,185,-151,-34,-4,53,4,-29,-53,-58
-234,-156,78,195,-156,-39,-4,53,4,-34,-58,-58
-244,-170,73,207,-158,-48,-9,53,4,-39,-58,-58
-253,-180,73,217,-163,-53,-14,58,4,-39,-58,-58
-263,-185,78,224,-170,-53,-9,48,-4,-39,-58,-68
-273,-190,82,231,-178,-53,-9,39,-14,-39,-63,-78
-283,-200,82,241,-183,-58,-14,39,-14,-48,-68,-78
-292,-209,82,251,-187,-63,-19,39,-14,-53,-73,-82
-302,-219,82,261,-192,-68,-19,39,-19,-53,-78,-87
-312,-229,82,270,-197,-73,-24,43,-24,-53,-78,-92
-326,-239,87,283,-207,-75,-19,39,-24,-58,-78,-92
-341,-244,97,292,-219,-73,-19,34,-24,-63,-82,-92
-351,-253,97,302,-224,-78,-19,29,-34,-68,-87,-92
-356,-263,92,309,-224,-85,-19,24,-43,-73,-92,-97
-361,-263,97,312,-229,-82,-29,24,-48,-78,-92,-102
-370,-268,102,319,-236,-82,-34,24,-53,-82,-97,-107
-380,-283,97,331,-239,-92,-34,19,-53,-82,-102,-107
-390,-297,92,344,-241,-102,-34,19,-53,-82,-107,-107
-400,-302,97,351,-248,-102,-39,14,-58,-87,-112,-112
-409,-302,107,356,-258,-97,-39,9,-63,-92,-112,-117
-419,-312,107,366,-263,-102,-39,14,-63,-92,-112,-117
-424,-317,107,370,-265,-104,-43,14,-63,-92,-112,-112
-429,-326,102,378,-265,-112,-43,9,-63,-97,-117,-117
-419,-331,87,375,-253,-122,-48,9,-63,-97,-117,-117
-405,-331,73,368,-239,-129,-73,14,-58,-87,-102,-112
-370,-336,34,353,-202,-151,-97,53,-29,-63,-78,-92
-322,-317,4,319,-163,-156,-131,58,14,-14,-48,-68
-292,-278,14,285,-153,-131,-185,-146,-14,-29,-39,-29
-248,-229,19,239,-134,-104,-287,-629,-209,-112,-39,0
-214,-190,24,202,-119,-82,-414,-1229,-502,-248,-48,39
-175,-146,29,161,-102,-58,-610,-1961,-917,-453,-63,112
-136,-141,-4,139,-65,-73,-814,-2669,-1405,-712,-117,175
-112,-141,-29,126,-41,-85,-971,-3211,-1873,-961,-195,219
-53,-180,-126,117,36,-153,-1083,-3611,-2156,-1117,-239,263
19,-322,-341,151,180,-331,-1176,-3943,-2410,-1283,-297,273
170,-424,-595,126,383,-509,-1312,-4050,-2537,-1385,-326,278
492,-546,-1039,26,766,-793,-1493,-3830,-2488,-1361,-312,317
829,-619,-1449,-104,1139,-1034,-1600,-3552,-2337,-1249,-248,375
1166,-639,-1805,-263,1485,-1222,-1639,-3250,-2137,-1117,-112,483
1317,-761,-2078,-278,1698,-1420,-1615,-3040,-2103,-1200,-224,380
1239,-971,-2210,-134,1725,-1590,-1517,-2932,-2288,-1615,-761,-29
1210,-1166,-2376,-21,1793,-1771,-1434,-2737,-2361,-1883,-1185,-380
1210,-1278,-2488,34,1849,-1883,-1346,-2410,-2264,-1917,-1376,-658
1127,-1327,-2454,100,1790,-1891,-1244,-2088,-2098,-1864,-1444,-819
1049,-1298,-2347,124,1698,-1822,-1112,-1786,-1849,-1708,-1400,-873
