I,II,III,aVR,aVL,aVF,V1,V2,V3,V4,V5,V6,
48,0,-48,-24,48,-24,361,1015,917,683,439,175
268,107,-161,-187,214,-26,400,1400,1342,1088,795,448
488,214,-273,-351,380,-29,439,1786,1766,1493,1151,722
717,244,-473,-480,595,-114,414,1844,1849,1620,1307,883
946,273,-673,-610,810,-200,390,1903,1932,1747,1464,1044
1102,375,-727,-739,915,-175,92,1210,1483,1581,1468,1180
1259,478,-780,-868,1019,-151,-204,517,1034,1415,1473,1317
1107,839,-268,-973,688,285,-444,-195,644,1356,1595,1561
956,1200,244,-1078,356,722,-683,-907,253,1298,1717,1805
688,1010,322,-849,183,666,-810,-1385,-214,897,1381,1576
419,819,400,-619,9,610,-936,-1864,-683,497,1044,1346
131,580,448,-356,-158,514,-858,-1834,-902,82,546,844
-156,341,497,-92,-326,419,-780,-1805,-1122,-331,48,341
-219,209,429,4,-324,319,-595,-1429,-1000,-444,-161,87
-283,78,361,102,-322,219,-409,-1054,-878,-556,-370,-165
-204,0,204,102,-204,102,-273,-761,-668,-488,-351,-180
-126,-78,48,102,-87,-14,-136,-468,-458,-419,-331,-195
-126,-78,48,102,-87,-14,-78,-336,-356,-326,-263,-175
-126,-78,48,102,-87,-14,-19,-204,-253,-234,-195,-156
-122,-82,39,102,-80,-21,-4,-175,-219,-219,-190,-151
-117,-87,29,102,-73,-29,9,-146,-185,-204,-185,-146
-112,-87,24,100,-68,-31,9,-126,-165,-185,-170,-141
-107,-87,19,97,-63,-34,9,-107,-146,-165,-156,-136
-107,-97,9,102,-58,-43,19,-87,-131,-161,-156,-136
-107,-107,0,107,-53,-53,29,-68,-117,-156,-156,-136
-107,-107,0,107,-53,-53,29,-58,-112,-151,-151,-136
-107,-107,0,107,-53,-53,29,-48,-107,-146,-146,-136
-107,-107,0,107,-53,-53,34,-43,-102,-136,-141,-126
-107,-107,0,107,-53,-53,39,-39,-97,-126,-136,-117
-107,-102,4,104,-56,-48,43,-39,-92,-126,-126,-112
-107,-97,9,102,-58,-43,48,-39,-87,-126,-117,-107
-97,-82,14,90,-56,-34,48,-29,-78,-112,-107,-102
-87,-68,19,78,-53,-24,48,-19,-68,-97,-97,-97
-87,-68,19,78,-53,-24,48,-14,-63,-97,-97,-97
-87,-68,19,78,-53,-24,48,-9,-58,-97,-97,-97
-87,-68,19,78,-53,-24,48,-4,-58,-92,-92,-92
-87,-68,19,78,-53,-24,48,0,-58,-87,-87,-87
-87,-58,29,73,-58,-14,48,0,-58,-82,-82,-82
-87,-48,39,68,-63,-4,48,0,-58,-78,-78,-78
-87,-48,39,68,-63,-4,53,0,-48,-73,-68,-68
-87,-48,39,68,-63,-4,58,0,-39,-68,-58,-58
-87,-43,43,65,-65,0,58,4,-34,-63,-53,-53
-87,-39,48,63,-68,4,58,9,-29,-58,-48,-48
-87,-39,48,63,-68,4,58,14,-29,-48,-43,-43
-87,-39,48,63,-68,4,58,19,-29,-39,-39,-39
-87,-34,53,61,-70,9,53,24,-24,-39,-34,-34
-87,-29,58,58,-73,14,48,29,-19,-39,-29,-29
-87,-19,68,53,-78,24,48,29,-14,-34,-24,-29
-87,-9,78,48,-82,34,48,29,-9,-29,-19,-29
-82,-4,78,43,-80,36,53,39,-4,-19,-9,-19
-78,0,78,39,-78,39,58,48,0,-9,0,-9
-78,9,87,34,-82,48,68,53,9,0,9,0
-78,19,97,29,-87,58,78,58,19,9,19,9
-78,24,102,26,-90,63,78,63,24,14,19,9
-78,29,107,24,-92,68,78,68,29,19,19,9
-78,39,117,19,-97,78,78,82,34,24,24,14
-78,48,126,14,-102,87,78,97,39,29,29,19
-82,48,131,17,-107,90,87,102,48,39,39,24
-87,48,136,19,-112,92,97,107,58,48,48,29
-87,53,141,17,-114,97,107,112,63,48,53,34
-87,58,146,14,-117,102,117,117,68,48,58,39
-97,68,165,14,-131,117,122,126,73,53,63,39
-107,78,185,14,-146,131,126,136,78,58,68,39
-112,92,204,9,-158,148,141,136,82,63,68,43
-117,107,224,4,-170,165,156,136,87,68,68,48
-122,112,234,4,-178,173,161,146,87,68,68,48
-126,117,244,4,-185,180,165,156,87,68,68,48
-146,117,263,14,-204,190,165,156,87,63,68,43
-165,117,283,24,-224,200,165,156,87,58,68,39
-180,122,302,29,-241,212,175,151,68,53,58,34
-195,126,322,34,-258,224,185,146,48,48,48,29
-195,136,331,29,-263,234,185,126,43,39,39,24
-195,146,341,24,-268,244,185,107,39,29,29,19
-209,156,366,26,-287,261,185,87,24,9,14,14
-224,165,390,29,-307,278,185,68,9,-9,0,9
-239,165,405,36,-322,285,175,43,-19,-34,-14,-4
-253,165,419,43,-336,292,165,19,-48,-58,-29,-19
-268,156,424,56,-346,290,156,-19,-87,-87,-58,-39
-283,146,429,68,-356,287,146,-58,-126,-117,-87,-58
-287,141,429,73,-358,285,131,-97,-156,-146,-107,-73
-292,136,429,78,-361,283,117,-136,-185,-175,-126,-87
-292,126,419,82,-356,273,102,-180,-224,-204,-156,-102
-292,117,409,87,-351,263,87,-224,-263,-234,-185,-117
-292,87,380,102,-336,234,68,-244,-283,-253,-204,-136
-292,58,351,117,-322,204,48,-263,-302,-273,-224,-156
-287,39,326,124,-307,183,39,-273,-317,-287,-239,-170
-283,19,302,131,-292,161,29,-283,-331,-302,-253,-185
-268,0,268,134,-268,134,19,-283,-322,-302,-253,-185
-253,-19,234,136,-244,107,9,-283,-312,-302,-253,-185
-219,-29,190,124,-204,80,4,-263,-292,-292,-253,-185
-185,-39,146,112,-165,53,0,-244,-273,-283,-253,-185
-161,-43,117,102,-139,36,0,-214,-248,-268,-239,-180
-136,-48,87,92,-112,19,0,-185,-224,-253,-224,-175
-117,-53,63,85,-90,4,-4,-161,-200,-229,-209,-165
-97,-58,39,78,-68,-9,-9,-136,-175,-204,-195,-156
-78,-63,14,70,-46,-24,-14,-112,-151,-185,-180,-141
-58,-68,-9,63,-24,-39,-19,-87,-126,-165,-165,-126
-39,-68,-29,53,-4,-48,-19,-68,-107,-146,-151,-122
-19,-68,-48,43,14,-58,-19,-48,-87,-126,-136,-117
-14,-73,-58,43,21,-65,-19,-34,-73,-112,-126,-107
-9,-78,-68,43,29,-73,-19,-19,-58,-97,-117,-97
-4,-78,-73,41,34,-75,-19,-4,-43,-87,-107,-87
0,-78,-78,39,39,-78,-19,9,-29,-78,-97,-78
9,-73,-82,31,46,-78,-19,9,-24,-68,-82,-73
19,-68,-87,24,53,-78,-19,9,-19,-58,-68,-68
24,-68,-92,21,58,-80,-19,14,-9,-48,-63,-63
29,-68,-97,19,63,-82,-19,19,0,-39,-58,-58
29,-68,-97,19,63,-82,-19,24,4,-39,-53,-53
29,-68,-97,19,63,-82,-19,29,9,-39,-48,-48
24,-68,-92,21,58,-80,-19,29,9,-34,-48,-43
19,-68,-87,24,53,-78,-19,29,9,-29,-48,-39
19,-63,-82,21,51,-73,-19,29,9,-29,-48,-39
19,-58,-78,19,48,-68,-19,29,9,-29,-48,-39
19,-58,-78,19,48,-68,-14,29,9,-24,-43,-39
19,-58,-78,19,48,-68,-9,29,9,-19,-39,-39
19,-58,-78,19,48,-68,-9,29,9,-19,-39,-43
19,-58,-78,19,48,-68,-9,29,9,-19,-39,-48
19,-58,-78,19,48,-68,-14,24,4,-24,-39,-48
19,-58,-78,19,48,-68,-19,19,0,-29,-39,-48
19,-58,-78,19,48,-68,-19,19,0,-29,-39,-48
19,-58,-78,19,48,-68,-19,19,0,-29,-39,-48
19,-58,-78,19,48,-68,-19,19,0,-29,-43,-48
19,-58,-78,19,48,-68,-19,19,0,-29,-48,-48
19,-58,-78,19,48,-68,-19,14,0,-34,-48,-48
19,-58,-78,19,48,-68,-19,9,0,-39,-48,-48
19,-53,-73,17,46,-63,-14,9,0,-39,-48,-48
19,-48,-68,14,43,-58,-9,9,0,-39,-48,-48
19,-48,-68,14,43,-58,-9,9,0,-39,-48,-48
19,-48,-68,14,43,-58,-9,9,0,-39,-48,-48
14,-53,-68,19,41,-61,-14,4,-9,-43,-53,-53
9,-58,-68,24,39,-63,-19,0,-19,-48,-58,-58
9,-58,-68,24,39,-63,-19,0,-19,-48,-58,-58
9,-58,-68,24,39,-63,-19,0,-19,-48,-58,-58
9,-63,-73,26,41,-68,-19,-4,-24,-53,-58,-58
9,-68,-78,29,43,-73,-19,-9,-29,-58,-58,-58
9,-68,-78,29,43,-73,-19,-9,-29,-58,-58,-58
9,-68,-78,29,43,-73,-19,-9,-29,-58,-58,-58
9,-68,-78,29,43,-73,-19,-9,-29,-58,-63,-63
9,-68,-78,29,43,-73,-19,-9,-29,-58,-68,-68
9,-68,-78,29,43,-73,-19,-9,-29,-58,-68,-68
9,-68,-78,29,43,-73,-19,-9,-29,-58,-68,-68
9,-68,-78,29,43,-73,-19,-9,-34,-63,-68,-68
9,-68,-78,29,43,-73,-19,-9,-39,-68,-68,-68
9,-73,-82,31,46,-78,-19,-9,-39,-68,-73,-68
9,-78,-87,34,48,-82,-19,-9,-39,-68,-78,-68
9,-78,-87,34,48,-82,-24,-9,-34,-63,-78,-68
9,-78,-87,34,48,-82,-29,-9,-29,-58,-78,-68
9,-78,-87,34,48,-82,-29,-9,-29,-58,-78,-68
9,-78,-87,34,48,-82,-29,-9,-29,-58,-78,-68
9,-78,-87,34,48,-82,-29,-9,-29,-58,-78,-68
9,-78,-87,34,48,-82,-29,-9,-29,-58,-78,-68
14,-73,-87,29,51,-80,-24,-4,-24,-53,-73,-68
19,-68,-87,24,53,-78,-19,0,-19,-48,-68,-68
19,-63,-82,21,51,-73,-14,4,-19,-48,-68,-68
19,-58,-78,19,48,-68,-9,9,-19,-48,-68,-68
19,-58,-78,19,48,-68,-9,9,-19,-48,-68,-68
19,-58,-78,19,48,-68,-9,9,-19,-48,-68,-68
14,-63,-78,24,46,-70,-19,4,-19,-48,-68,-68
9,-68,-78,29,43,-73,-29,0,-19,-48,-68,-68
9,-68,-78,29,43,-73,-29,0,-19,-48,-68,-68
9,-68,-78,29,43,-73,-29,0,-19,-48,-68,-68
9,-68,-78,29,43,-73,-29,0,-19,-48,-68,-68
9,-68,-78,29,43,-73,-29,0,-19,-48,-68,-68
9,-68,-78,29,43,-73,-29,0,-19,-48,-68,-68
9,-68,-78,29,43,-73,-29,0,-19,-48,-68,-68
9,-68,-78,29,43,-73,-29,0,-24,-53,-68,-68
9,-68,-78,29,43,-73,-29,0,-29,-58,-68,-68
9,-68,-78,29,43,-73,-29,0,-29,-58,-68,-68
9,-68,-78,29,43,-73,-29,0,-29,-58,-68,-68
9,-68,-78,29,43,-73,-29,0,-24,-58,-68,-68
9,-68,-78,29,43,-73,-29,0,-19,-58,-68,-68
9,-73,-82,31,46,-78,-29,0,-19,-58,-68,-68
9,-78,-87,34,48,-82,-29,0,-19,-58,-68,-68
9,-78,-87,34,48,-82,-24,0,-19,-58,-68,-68
9,-78,-87,34,48,-82,-19,0,-19,-58,-68,-68
14,-68,-82,26,48,-75,-19,0,-19,-53,-68,-68
19,-58,-78,19,48,-68,-19,0,-19,-48,-68,-68
19,-58,-78,19,48,-68,-19,4,-19,-48,-68,-68
19,-58,-78,19,48,-68,-19,9,-19,-48,-68,-68
19,-58,-78,19,48,-68,-19,9,-19,-48,-68,-68
19,-58,-78,19,48,-68,-19,9,-19,-48,-68,-68
14,-63,-78,24,46,-70,-19,4,-19,-48,-68,-68
9,-68,-78,29,43,-73,-19,0,-19,-48,-68,-68
4,-68,-73,31,39,-70,-19,0,-19,-48,-68,-68
0,-68,-68,34,34,-68,-19,0,-19,-48,-68,-68
0,-68,-68,34,34,-68,-19,4,-19,-48,-68,-68
0,-68,-68,34,34,-68,-19,9,-19,-48,-68,-68
4,-68,-73,31,39,-70,-19,9,-19,-53,-68,-68
9,-68,-78,29,43,-73,-19,9,-19,-58,-68,-68
9,-68,-78,29,43,-73,-19,4,-19,-58,-68,-68
9,-68,-78,29,43,-73,-19,0,-19,-58,-68,-68
9,-73,-82,31,46,-78,-24,0,-14,-53,-68,-68
9,-78,-87,34,48,-82,-29,0,-9,-48,-68,-68
0,-78,-78,39,39,-78,-29,4,-9,-48,-68,-68
-9,-78,-68,43,29,-73,-29,9,-9,-48,-68,-68
0,-73,-73,36,36,-73,-29,9,-9,-48,-68,-68
9,-68,-78,29,43,-73,-29,9,-9,-48,-68,-68
9,-68,-78,29,43,-73,-29,9,-9,-48,-68,-68
9,-68,-78,29,43,-73,-29,9,-9,-48,-68,-68
9,-73,-82,31,46,-78,-29,4,-14,-48,-68,-73
9,-78,-87,34,48,-82,-29,0,-19,-48,-68,-78
9,-78,-87,34,48,-82,-24,0,-19,-48,-68,-78
9,-78,-87,34,48,-82,-19,0,-19,-48,-68,-78
9,-73,-82,31,46,-78,-19,4,-9,-48,-68,-73
9,-68,-78,29,43,-73,-19,9,0,-48,-68,-68
9,-68,-78,29,43,-73,-19,9,0,-48,-68,-68
9,-68,-78,29,43,-73,-19,9,0,-48,-68,-68
9,-73,-82,31,46,-78,-19,4,-4,-48,-68,-68
9,-78,-87,34,48,-82,-19,0,-9,-48,-68,-68
0,-78,-78,39,39,-78,-19,0,-14,-48,-68,-73
-9,-78,-68,43,29,-73,-19,0,-19,-48,-68,-78
4,-78,-82,36,43,-80,-19,0,-19,-53,-68,-78
19,-78,-97,29,58,-87,-19,0,-19,-58,-68,-78
19,-78,-97,29,58,-87,-19,0,-19,-58,-68,-73
19,-78,-97,29,58,-87,-19,0,-19,-58,-68,-68
9,-78,-87,34,48,-82,-19,0,-19,-58,-68,-68
0,-78,-78,39,39,-78,-19,0,-19,-58,-68,-68
0,-78,-78,39,39,-78,-19,0,-19,-58,-68,-68
0,-78,-78,39,39,-78,-19,0,-19,-58,-68,-68
9,-78,-87,34,48,-82,-19,0,-19,-58,-68,-73
19,-78,-97,29,58,-87,-19,0,-19,-58,-68,-78
19,-73,-92,26,56,-82,-19,0,-19,-58,-68,-78
19,-68,-87,24,53,-78,-19,0,-19,-58,-68,-78
14,-63,-78,24,46,-70,-14,4,-14,-53,-68,-78
19,-48,-68,14,43,-58,0,14,-4,-39,-58,-68
24,-34,-58,4,41,-46,9,24,0,-29,-53,-63
29,-19,-48,-4,39,-34,24,34,9,-19,-43,-48
29,0,-29,-14,29,-14,34,39,19,-9,-39,-43
34,9,-24,-21,29,-7,43,53,29,-4,-43,-43
43,19,-24,-31,34,-2,43,63,39,0,-29,-34
48,24,-24,-36,36,0,53,73,43,9,-14,-29
58,34,-24,-46,41,4,58,82,58,19,0,-19
73,63,-9,-68,41,26,58,97,78,43,14,-4
87,87,0,-87,43,43,48,97,82,43,19,4
112,112,0,-112,56,56,19,97,87,48,24,24
122,122,0,-122,61,61,0,97,87,48,24,34
126,107,-19,-117,73,43,-29,78,73,43,24,19
122,112,-9,-117,65,51,-39,58,58,29,24,14
117,117,0,-117,58,58,-48,43,48,34,19,9
122,102,-19,-112,70,41,-58,29,34,24,14,9
126,82,-43,-104,85,19,-68,19,29,14,9,9
126,63,-63,-95,95,0,-73,14,19,0,-4,0
112,29,-82,-70,97,-26,-78,0,4,-14,-19,-9
97,14,-82,-56,90,-34,-78,-14,-9,-34,-39,-24
82,-9,-92,-36,87,-51,-78,-14,-14,-43,-48,-34
63,-24,-87,-19,75,-56,-63,-14,-19,-43,-53,-48
39,-43,-82,2,61,-63,-53,-9,-19,-43,-58,-63
24,-53,-78,14,51,-65,-43,-9,-19,-48,-68,-73
19,-63,-82,21,51,-73,-43,-9,-29,-58,-73,-78
4,-82,-87,39,46,-85,-34,-9,-43,-68,-82,-87
4,-92,-97,43,51,-95,-29,-14,-48,-73,-92,-92
4,-97,-102,46,53,-100,-29,-14,-48,-78,-92,-92
0,-102,-102,51,51,-102,-29,-14,-43,-82,-92,-97
-4,-102,-97,53,46,-100,-29,-19,-43,-82,-102,-97
-4,-112,-107,58,51,-109,-24,-24,-43,-87,-107,-102
-4,-117,-112,61,53,-114,-24,-24,-43,-82,-107,-102
-9,-117,-107,63,48,-112,-24,-19,-43,-78,-107,-102
-14,-122,-107,68,46,-114,-24,-19,-43,-78,-107,-102
-14,-122,-107,68,46,-114,-19,-14,-43,-78,-107,-102
-14,-122,-107,68,46,-114,-14,-19,-48,-87,-107,-107
-19,-122,-102,70,41,-112,-4,-14,-43,-92,-107,-107
-24,-112,-87,68,31,-100,9,58,14,-43,-73,-102
-24,-97,-73,61,24,-85,68,224,175,87,19,-68
-39,-68,-29,53,-4,-48,180,448,375,234,107,-24
-39,-14,24,26,-31,4,322,771,673,453,248,43
107,78,-29,-92,68,24,414,1244,1132,858,580,268
356,190,-165,-273,261,12,434,1610,1542,1273,951,561
585,292,-292,-439,439,0,463,1893,1893,1625,1273,810
800,331,-468,-566,634,-68,463,1942,1952,1712,1405,951
1098,253,-844,-675,971,-295,297,1678,1708,1561,1342,995
1322,307,-1015,-814,1168,-353,-87,814,1132,1322,1288,1098
1259,722,-536,-990,897,92,-331,-4,688,1268,1439,1371
1063,1151,87,-1107,488,619,-561,-722,336,1268,1625,1688
897,1185,287,-1041,305,736,-873,-1405,-117,1054,1566,1761
590,971,380,-780,104,675,-1044,-1937,-619,634,1215,1512
258,629,370,-444,-56,500,-1015,-2064,-956,180,717,1063
-19,414,434,-197,-226,424,-951,-1986,-1141,-209,253,600
-258,253,512,2,-385,383,-766,-1732,-1205,-561,-224,73
-317,102,419,107,-368,261,-507,-1254,-990,-595,-380,-151
-229,19,248,104,-239,134,-302,-829,-741,-541,-385,-190
-131,-68,63,100,-97,-2,-165,-541,-536,-473,-370,-200
-112,-53,58,82,-85,2,-102,-380,-380,-351,-297,-195
-126,-43,82,85,-104,19,-39,-258,-278,-258,-229,-180
-141,-68,73,104,-107,2,0,-195,-239,-229,-209,-165
-126,-87,39,107,-82,-24,14,-161,-219,-229,-209,-161
-112,-87,24,100,-68,-31,14,-146,-190,-219,-214,-165
-107,-87,19,97,-63,-34,14,-126,-170,-195,-200,-170
-107,-87,19,97,-63,-34,24,-107,-161,-175,-190,-165
-107,-97,9,102,-58,-43,34,-87,-146,-175,-185,-156
-107,-97,9,102,-58,-43,39,-68,-131,-165,-170,-156
-97,-92,4,95,-51,-43,39,-68,-117,-151,-156,-151
-102,-82,19,92,-61,-31,43,-63,-112,-141,-151,-141
-102,-82,19,92,-61,-31,43,-53,-107,-136,-146,-141
-102,-87,14,95,-58,-36,48,-39,-97,-141,-146,-141
-102,-87,14,95,-58,-36,48,-39,-97,-141,-146,-136
-102,-82,19,92,-61,-31,48,-39,-92,-131,-136,-136
-102,-82,19,92,-61,-31,48,-39,-92,-131,-131,-131
-102,-78,24,90,-63,-26,48,-34,-87,-122,-122,-122
-102,-73,29,87,-65,-21,53,-29,-78,-107,-117,-117
-102,-73,29,87,-65,-21,53,-24,-73,-102,-107,-112
-102,-68,34,85,-68,-17,53,-19,-73,-97,-92,-107
-97,-63,34,80,-65,-14,53,-14,-63,-87,-87,-107
-97,-63,34,80,-65,-14,53,-14,-53,-78,-82,-97
-97,-58,39,78,-68,-9,58,0,-43,-73,-82,-97
-97,-53,43,75,-70,-4,58,14,-34,-63,-78,-92
-97,-43,53,70,-75,4,58,19,-34,-63,-68,-82
-97,-43,53,70,-75,4,58,24,-19,-63,-63,-73
-92,-34,58,63,-75,12,58,29,-19,-53,-53,-68
-92,-34,58,63,-75,12,63,29,-14,-53,-48,-68
-92,-24,68,58,-80,21,68,34,-9,-43,-43,-53
-92,-14,78,53,-85,31,68,39,-4,-34,-34,-43
-87,-4,82,46,-85,39,68,43,0,-24,-29,-39
-87,0,87,43,-87,43,68,53,4,-19,-19,-34
-87,4,92,41,-90,48,68,53,9,-9,-14,-29
-87,4,92,41,-90,48,73,53,9,-4,-4,-14
-87,9,97,39,-92,53,78,63,14,0,0,-14
-87,14,102,36,-95,58,82,68,24,9,9,-4
-87,24,112,31,-100,68,92,78,29,19,14,0
-87,29,117,29,-102,73,107,97,43,34,24,4
-87,34,122,26,-104,78,112,107,53,43,34,9
-87,39,126,24,-107,82,112,117,63,53,34,14
-92,53,146,19,-119,100,112,122,73,53,34,19
-97,63,161,17,-129,112,117,131,78,58,39,19
-107,68,175,19,-141,122,122,131,78,68,48,24
-112,73,185,19,-148,129,131,141,92,78,58,34
-112,78,190,17,-151,134,146,161,112,82,63,39
-117,78,195,19,-156,136,156,180,131,87,73,43
-126,87,214,19,-170,151,161,190,131,92,73,48
-131,97,229,17,-180,163,165,195,131,102,78,53
-141,107,248,17,-195,178,170,200,131,102,82,53
-146,117,263,14,-204,190,180,214,136,107,87,58
-156,122,278,17,-217,200,180,214,146,112,92,53
-161,131,292,14,-226,212,180,214,146,107,92,48
-175,136,312,19,-244,224,190,209,141,102,87,48
-190,146,336,21,-263,241,195,200,131,92,82,48
-200,151,351,24,-275,251,200,200,122,92,78,39
-214,165,380,24,-297,273,204,195,112,82,63,39
-229,170,400,29,-314,285,214,190,112,78,63,34
-234,175,409,29,-322,292,214,185,97,68,53,29
-248,175,424,36,-336,300,209,161,78,58,34,19
-263,175,439,43,-351,307,200,126,48,39,19,0
-283,175,458,53,-370,317,190,82,19,14,4,-4
-287,175,463,56,-375,319,190,43,-9,-19,-14,-14
-292,170,463,61,-378,317,170,9,-48,-48,-39,-34
-307,156,463,75,-385,309,156,-24,-82,-73,-68,-58
-312,151,463,80,-387,307,141,-73,-122,-102,-92,-73
-317,126,444,95,-380,285,131,-122,-161,-141,-122,-92
-312,102,414,104,-363,258,107,-161,-190,-170,-156,-117
-302,82,385,109,-344,234,97,-175,-219,-200,-175,-136
-297,68,366,114,-331,217,78,-200,-234,-214,-195,-146
-283,53,336,114,-309,195,63,-219,-253,-229,-204,-151
-273,29,302,122,-287,165,58,-224,-248,-234,-209,-165
-263,4,268,129,-265,136,48,-224,-239,-244,-209,-170
-239,-14,224,126,-231,104,24,-219,-248,-248,-214,-170
-209,-29,180,119,-195,75,14,-209,-248,-253,-214,-170
-185,-39,146,112,-165,53,4,-185,-219,-239,-214,-170
-161,-48,112,104,-136,31,0,-170,-200,-229,-200,-170
-136,-58,78,97,-107,9,4,-136,-175,-214,-195,-165
-117,-63,53,90,-85,-4,4,-122,-165,-190,-185,-156
-92,-68,24,80,-58,-21,4,-102,-146,-170,-170,-141
-73,-68,4,70,-39,-31,0,-82,-122,-151,-151,-131
-53,-73,-19,63,-17,-46,-4,-63,-102,-141,-146,-126
-39,-78,-39,58,0,-58,-4,-39,-87,-122,-136,-112
-19,-82,-63,51,21,-73,-9,-39,-73,-107,-122,-102
-9,-82,-73,46,31,-78,-9,-29,-58,-97,-107,-92
4,-82,-87,39,46,-85,-9,-9,-39,-78,-97,-82
14,-82,-97,34,56,-90,-9,0,-29,-68,-87,-78
19,-73,-92,26,56,-82,-9,4,-19,-63,-73,-73
24,-63,-87,19,56,-75,-9,9,-14,-58,-68,-68
24,-73,-97,24,61,-85,-14,9,-4,-58,-68,-68
29,-82,-112,26,70,-97,-14,19,-4,-48,-63,-63
34,-82,-117,24,75,-100,-14,19,0,-39,-58,-58
39,-78,-117,19,78,-97,-9,24,4,-39,-53,-58
39,-68,-107,14,73,-87,-9,29,9,-39,-48,-53
39,-63,-102,12,70,-82,-9,29,9,-34,-39,-53
34,-63,-97,14,65,-80,-9,29,14,-29,-39,-48
34,-63,-97,14,65,-80,-9,24,14,-29,-39,-48
29,-63,-92,17,61,-78,-9,24,14,-29,-39,-48
24,-58,-82,17,53,-70,-14,24,14,-24,-39,-48
24,-63,-87,19,56,-75,-14,24,14,-24,-34,-43
24,-63,-87,19,56,-75,-14,24,14,-29,-34,-39
24,-63,-87,19,56,-75,-14,24,14,-29,-34,-39
24,-68,-92,21,58,-80,-9,19,14,-29,-34,-39
19,-68,-87,24,53,-78,-9,19,0,-29,-39,-39
19,-68,-87,24,53,-78,-9,19,-9,-29,-39,-39
19,-68,-87,24,53,-78,-9,19,0,-24,-34,-39
9,-68,-78,29,43,-73,-9,19,9,-24,-29,-39
4,-68,-73,31,39,-70,-14,14,4,-24,-29,-43
4,-68,-73,31,39,-70,-14,14,4,-24,-34,-43
4,-68,-73,31,39,-70,-14,14,0,-24,-39,-43
0,-68,-68,34,34,-68,-19,9,-4,-24,-43,-43
-4,-73,-68,39,31,-70,-19,9,-14,-34,-48,-48
-4,-78,-73,41,34,-75,-19,9,-19,-39,-48,-48
-4,-78,-73,41,34,-75,-19,4,-19,-43,-53,-53
-4,-78,-73,41,34,-75,-24,0,-24,-48,-53,-53
0,-68,-68,34,34,-68,-14,4,-24,-48,-53,-53
0,-58,-58,29,29,-58,-4,4,-24,-48,-58,-53
0,-58,-58,29,29,-58,-4,0,-24,-48,-58,-58
0,-58,-58,29,29,-58,-4,0,-24,-48,-53,-63
0,-68,-68,34,34,-68,-9,4,-24,-53,-58,-63
0,-73,-73,36,36,-73,-14,4,-24,-53,-63,-63
0,-73,-73,36,36,-73,-14,0,-24,-53,-63,-63
-4,-78,-73,41,34,-75,-14,-9,-34,-58,-68,-63
-4,-87,-82,46,39,-85,-14,-9,-29,-58,-73,-63
-4,-97,-92,51,43,-95,-14,-14,-24,-58,-73,-68
0,-87,-87,43,43,-87,-14,-14,-29,-58,-63,-68
4,-82,-87,39,46,-85,-19,-14,-29,-53,-58,-68
4,-82,-87,39,46,-85,-19,-9,-29,-53,-58,-63
9,-82,-92,36,51,-87,-19,-4,-29,-53,-58,-58
9,-78,-87,34,48,-82,-14,0,-29,-53,-58,-58
14,-78,-92,31,53,-85,-4,9,-24,-53,-58,-58
9,-78,-87,34,48,-82,-4,9,-29,-53,-58,-58
4,-82,-87,39,46,-85,-4,9,-34,-58,-63,-58
0,-82,-82,41,41,-82,-14,0,-43,-63,-63,-58
0,-82,-82,41,41,-82,-19,-9,-53,-63,-68,-58
0,-82,-82,41,41,-82,-24,-14,-43,-58,-63,-58
0,-82,-82,41,41,-82,-34,-14,-29,-53,-58,-58
-4,-87,-82,46,39,-85,-34,-14,-24,-53,-58,-58
-4,-92,-87,48,41,-90,-29,-9,-24,-53,-58,-58
0,-92,-92,46,46,-92,-29,-9,-24,-48,-53,-63
9,-92,-102,41,56,-97,-29,-4,-24,-48,-53,-63
14,-82,-97,34,56,-90,-19,0,-19,-48,-53,-58
14,-73,-87,29,51,-80,-19,4,-19,-48,-53,-58
19,-73,-92,26,56,-82,-19,4,-19,-48,-53,-53
24,-73,-97,24,61,-85,-19,4,-19,-43,-53,-53
19,-73,-92,26,56,-82,-19,0,-24,-43,-58,-53
19,-73,-92,26,56,-82,-19,0,-24,-43,-63,-53
9,-78,-87,34,48,-82,-24,0,-19,-43,-58,-53
0,-82,-82,41,41,-82,-24,4,-19,-43,-58,-53
0,-82,-82,41,41,-82,-24,9,-19,-43,-53,-53
-4,-87,-82,46,39,-85,-19,14,-14,-43,-48,-48
-4,-87,-82,46,39,-85,-19,14,-14,-43,-43,-48
0,-82,-82,41,41,-82,-19,14,-14,-43,-43,-48
9,-82,-92,36,51,-87,-19,9,-14,-39,-48,-53
9,-82,-92,36,51,-87,-19,4,-14,-39,-53,-53
4,-78,-82,36,43,-80,-19,4,-19,-39,-58,-53
4,-78,-82,36,43,-80,-19,4,-24,-39,-58,-53
4,-82,-87,39,46,-85,-19,4,-24,-39,-58,-53
0,-82,-82,41,41,-82,-19,4,-24,-43,-58,-53
0,-82,-82,41,41,-82,-19,4,-24,-43,-58,-53
0,-82,-82,41,41,-82,-19,4,-24,-43,-58,-53
-4,-87,-82,46,39,-85,-19,4,-24,-43,-58,-53
-4,-92,-87,48,41,-90,-19,0,-24,-48,-58,-53
0,-92,-92,46,46,-92,-19,0,-24,-48,-58,-53
9,-92,-102,41,56,-97,-19,0,-24,-43,-58,-53
24,-82,-107,29,65,-95,-19,0,-19,-39,-53,-53
34,-68,-102,17,68,-85,-19,0,-9,-39,-53,-53
24,-68,-92,21,58,-80,-19,0,-4,-34,-48,-48
9,-73,-82,31,46,-78,-19,0,-4,-29,-43,-43
4,-73,-78,34,41,-75,-24,0,-4,-34,-43,-43
0,-73,-73,36,36,-73,-24,4,-9,-34,-48,-43
0,-78,-78,39,39,-78,-19,4,-9,-34,-48,-43
0,-78,-78,39,39,-78,-19,9,0,-29,-48,-43
4,-78,-82,36,43,-80,-19,9,0,-29,-43,-43
9,-78,-87,34,48,-82,-19,9,0,-29,-39,-48
9,-78,-87,34,48,-82,-19,9,-4,-34,-39,-48
9,-78,-87,34,48,-82,-19,9,-9,-39,-39,-48
9,-78,-87,34,48,-82,-19,9,-9,-39,-39,-48
9,-78,-87,34,48,-82,-19,9,-9,-39,-39,-48
9,-78,-87,34,48,-82,-19,9,-14,-39,-43,-48
9,-78,-87,34,48,-82,-19,9,-19,-39,-48,-48
9,-82,-92,36,51,-87,-19,4,-19,-39,-48,-48
9,-87,-97,39,53,-92,-19,0,-19,-39,-48,-48
4,-87,-92,41,48,-90,-24,0,-19,-43,-53,-48
0,-87,-87,43,43,-87,-29,0,-19,-48,-58,-48
0,-87,-87,43,43,-87,-29,0,-19,-48,-58,-48
0,-87,-87,43,43,-87,-29,0,-19,-48,-58,-48
4,-82,-87,39,46,-85,-29,0,-19,-48,-58,-48
9,-78,-87,34,48,-82,-29,0,-19,-48,-58,-48
9,-78,-87,34,48,-82,-29,0,-19,-48,-58,-48
9,-78,-87,34,48,-82,-29,0,-19,-48,-58,-48
9,-78,-87,34,48,-82,-29,0,-19,-43,-53,-48
9,-78,-87,34,48,-82,-29,0,-19,-39,-48,-48
9,-78,-87,34,48,-82,-29,4,-14,-39,-48,-48
9,-78,-87,34,48,-82,-29,9,-9,-39,-48,-48
9,-78,-87,34,48,-82,-24,9,-9,-39,-48,-48
9,-78,-87,34,48,-82,-19,9,-9,-39,-48,-48
9,-78,-87,34,48,-82,-19,9,-9,-39,-43,-43
9,-78,-87,34,48,-82,-19,9,-9,-39,-39,-39
9,-73,-82,31,46,-78,-24,14,-4,-39,-39,-39
14,-53,-68,19,41,-61,-14,24,0,-29,-34,-34
24,-39,-63,7,43,-51,-9,34,4,-24,-29,-29
29,-19,-48,-4,39,-34,4,43,9,-19,-24,-19
29,-4,-34,-12,31,-19,19,39,14,-9,-14,-14
34,0,-34,-17,34,-17,34,43,19,-4,-14,-14
39,9,-29,-24,34,-9,34,53,29,0,-9,-9
39,14,-24,-26,31,-4,43,63,34,9,-4,-9
43,24,-19,-34,31,2,48,73,48,19,9,0
53,53,0,-53,26,26,48,87,68,43,24,14
68,78,9,-73,29,43,39,87,73,48,34,24
92,102,9,-97,41,56,9,87,78,58,43,43
112,126,14,-119,48,70,-4,97,82,63,48,58
126,126,0,-126,63,63,-29,87,73,63,53,48
126,126,0,-126,63,63,-39,68,58,43,53,43
126,126,0,-126,63,63,-48,53,48,43,48,39
126,112,-14,-119,70,48,-63,39,34,34,43,43
126,92,-34,-109,80,29,-78,29,29,24,39,48
122,63,-58,-92,90,2,-78,19,19,14,29,39
102,19,-82,-61,92,-31,-78,0,4,4,19,29
92,4,-87,-48,90,-41,-78,-14,-9,-14,0,14
82,-19,-102,-31,92,-61,-78,-14,-14,-24,-9,4
68,-24,-92,-21,80,-58,-58,-9,-14,-24,-14,-4
48,-34,-82,-7,65,-58,-43,0,-9,-24,-19,-14
34,-43,-78,4,56,-61,-34,0,-9,-34,-34,-29
29,-53,-82,12,56,-68,-34,0,-19,-48,-43,-39
9,-82,-92,36,51,-87,-29,-4,-34,-58,-53,-48
4,-102,-107,48,56,-104,-29,-14,-39,-63,-63,-53
4,-107,-112,51,58,-109,-29,-14,-39,-58,-58,-53
0,-112,-112,56,56,-112,-29,-14,-34,-53,-53,-58
-9,-112,-102,61,46,-107,-34,-14,-29,-48,-58,-58
-14,-122,-107,68,46,-114,-34,-14,-24,-48,-58,-63
-14,-122,-107,68,46,-114,-34,-14,-24,-48,-58,-63
-19,-117,-97,68,39,-107,-34,-9,-24,-48,-58,-63
-9,-122,-112,65,51,-117,-34,-9,-29,-53,-63,-63
4,-122,-126,58,65,-124,-29,-4,-34,-58,-68,-63
4,-122,-126,58,65,-124,-24,-14,-39,-68,-73,-68
0,-122,-122,61,61,-122,-14,-14,-34,-73,-78,-68
-9,-117,-107,63,48,-112,9,53,19,-29,-53,-68
-14,-107,-92,61,39,-100,78,214,175,97,29,-39
-29,-82,-53,56,12,-68,180,434,370,244,122,0
-29,-34,-4,31,-12,-19,312,751,663,463,268,63
107,53,-53,-80,80,0,409,1244,1151,888,614,292
346,161,-185,-253,265,-12,434,1629,1590,1322,1000,590
561,253,-307,-407,434,-26,473,1976,1991,1703,1342,854
761,283,-478,-522,619,-97,483,2088,2098,1820,1493,1010
1058,195,-863,-627,961,-334,336,1888,1888,1698,1444,1063
1283,239,-1044,-761,1163,-402,-29,1088,1346,1488,1405,1176
1259,732,-527,-995,893,102,-287,244,902,1459,1600,1483
1102,1239,136,-1171,483,688,-531,-497,551,1483,1830,1834
961,1268,307,-1115,326,788,-824,-1210,68,1259,1756,1917
678,1049,370,-863,153,710,-976,-1771,-463,829,1390,1678
307,663,356,-485,-24,509,-941,-1966,-854,307,829,1166
-9,405,414,-197,-212,409,-873,-1956,-1093,-151,302,639
-268,248,517,9,-392,383,-736,-1751,-1210,-536,-200,87
-346,102,448,122,-397,275,-527,-1322,-1049,-605,-380,-161
-248,9,258,119,-253,134,-317,-883,-800,-570,-395,-200
-141,-87,53,114,-97,-17,-175,-580,-595,-522,-390,-209
-112,-73,39,92,-75,-17,-107,-400,-409,-370,-302,-190
-117,-63,53,90,-85,-4,-39,-258,-278,-248,-219,-161
-131,-78,53,104,-92,-12,-4,-195,-234,-214,-190,-141
-117,-87,29,102,-73,-29,4,-161,-209,-209,-180,-131
-107,-82,24,95,-65,-29,4,-141,-175,-195,-180,-131
-107,-78,29,92,-68,-24,4,-117,-151,-165,-161,-131
-107,-78,29,92,-68,-24,14,-97,-141,-146,-151,-126
-107,-87,19,97,-63,-34,24,-78,-126,-146,-146,-117
-107,-87,19,97,-63,-34,29,-58,-112,-136,-136,-117
-97,-82,14,90,-56,-34,29,-58,-97,-122,-126,-112
-107,-78,29,92,-68,-24,34,-53,-97,-117,-122,-102
-112,-82,29,97,-70,-26,34,-43,-97,-117,-117,-102
-102,-87,14,95,-58,-36,39,-29,-92,-117,-112,-102
-92,-87,4,90,-48,-41,39,-29,-97,-112,-107,-97
-87,-78,9,82,-48,-34,39,-29,-92,-102,-97,-92
-82,-73,9,78,-46,-31,39,-29,-92,-102,-92,-82
-82,-68,14,75,-48,-26,39,-24,-82,-97,-87,-73
-82,-63,19,73,-51,-21,43,-19,-68,-87,-87,-68
-82,-63,19,73,-51,-21,43,-14,-63,-87,-82,-68
-82,-58,24,70,-53,-17,43,-9,-63,-87,-73,-68
-82,-53,29,68,-56,-12,43,-4,-58,-82,-68,-68
-87,-53,34,70,-61,-9,43,-4,-53,-78,-63,-58
-87,-53,34,70,-61,-9,48,-4,-48,-73,-58,-58
-87,-53,34,70,-61,-9,48,-4,-43,-63,-48,-53
-87,-43,43,65,-65,0,48,0,-48,-53,-39,-43
-87,-43,43,65,-65,0,48,4,-39,-43,-34,-34
-82,-34,48,58,-65,7,48,9,-39,-34,-29,-29
-82,-34,48,58,-65,7,53,9,-34,-34,-29,-29
-82,-29,53,56,-68,12,58,14,-29,-29,-24,-19
-82,-24,58,53,-70,17,58,19,-24,-24,-14,-14
-78,-19,58,48,-68,19,58,19,-19,-14,-9,-9
-78,-19,58,48,-68,19,58,24,-14,-9,0,-4
-78,-9,68,43,-73,29,58,34,-4,0,4,-4
-78,-4,73,41,-75,34,63,43,0,4,14,4
-78,0,78,39,-78,39,68,53,4,9,19,4
-78,4,82,36,-80,43,73,58,14,19,29,14
-73,14,87,29,-80,51,73,58,14,19,34,24
-68,19,87,24,-78,53,78,68,24,24,43,34
-68,24,92,21,-80,58,82,78,29,34,53,39
-68,29,97,19,-82,63,82,87,34,43,53,43
-82,34,117,24,-100,75,82,87,43,39,53,43
-97,34,131,31,-114,82,87,92,48,39,58,39
-102,39,141,31,-122,90,92,92,48,48,63,43
-102,43,146,29,-124,95,102,102,63,58,68,53
-92,63,156,14,-124,109,117,126,73,63,73,58
-87,78,165,4,-126,122,126,151,82,68,82,63
-97,87,185,4,-141,136,131,151,78,68,78,63
-102,97,200,2,-151,148,136,146,73,73,78,63
-112,102,214,4,-163,158,146,141,73,68,78,58
-117,107,224,4,-170,165,161,146,78,68,78,58
-126,112,239,7,-183,175,161,146,82,73,78,53
-131,122,253,4,-192,187,161,146,78,68,73,48
-141,126,268,7,-204,197,170,141,78,58,68,48
-151,136,287,7,-219,212,175,131,73,43,63,48
-161,136,297,12,-229,217,175,126,48,39,53,39
-175,146,322,14,-248,234,175,117,24,24,34,39
-195,151,346,21,-270,248,185,97,19,14,29,29
-204,156,361,24,-283,258,185,78,0,0,14,19
-224,151,375,36,-300,263,175,58,-24,-19,-4,9
-244,146,390,48,-317,268,161,29,-58,-48,-19,-9
-263,146,409,58,-336,278,151,-14,-87,-73,-43,-29
-268,146,414,61,-341,280,151,-53,-117,-107,-73,-53
-273,146,419,63,-346,283,136,-87,-156,-136,-97,-68
-287,136,424,75,-356,280,126,-122,-190,-161,-126,-87
-292,136,429,78,-361,283,107,-165,-224,-190,-146,-97
-297,117,414,90,-356,265,92,-209,-258,-229,-170,-112
-297,92,390,102,-344,241,68,-244,-287,-253,-200,-136
-292,73,366,109,-329,219,58,-253,-317,-278,-214,-156
-287,58,346,114,-317,202,43,-268,-317,-287,-229,-161
-273,43,317,114,-295,180,34,-278,-322,-297,-234,-161
-258,24,283,117,-270,153,34,-278,-322,-297,-239,-175
-244,4,248,119,-246,126,29,-273,-317,-302,-239,-180
-219,-14,204,117,-212,95,9,-263,-307,-292,-239,-175
-190,-29,161,109,-175,65,4,-248,-287,-283,-234,-170
-170,-39,131,104,-151,46,-4,-224,-258,-263,-234,-170
-151,-48,102,100,-126,26,-9,-209,-239,-248,-219,-170
-126,-58,68,92,-97,4,-9,-165,-209,-239,-214,-161
-107,-63,43,85,-75,-9,-14,-141,-195,-219,-204,-146
-82,-63,19,73,-51,-21,-4,-122,-170,-195,-185,-131
-63,-58,4,61,-34,-26,0,-102,-141,-170,-161,-122
-43,-63,-19,53,-12,-41,-4,-78,-112,-151,-151,-122
-29,-68,-39,48,4,-53,-4,-48,-87,-122,-136,-112
-14,-73,-58,43,21,-65,-9,-43,-73,-107,-122,-102
-9,-73,-63,41,26,-68,-9,-29,-58,-97,-107,-92
-4,-73,-68,39,31,-70,-9,-9,-39,-78,-97,-78
-4,-73,-68,39,31,-70,-9,0,-29,-68,-87,-68
0,-73,-73,36,36,-73,-9,9,-19,-63,-68,-63
4,-73,-78,34,41,-75,-9,19,-14,-58,-58,-58
9,-63,-73,26,41,-68,-14,19,0,-48,-53,-53
19,-53,-73,17,46,-63,-14,29,4,-29,-43,-43
24,-53,-78,14,51,-65,-14,34,9,-19,-39,-39
29,-48,-78,9,53,-63,-9,43,14,-19,-34,-39
29,-53,-82,12,56,-68,-9,48,14,-24,-34,-39
29,-63,-92,17,61,-78,-9,48,9,-24,-29,-43
24,-63,-87,19,56,-75,-9,43,14,-19,-29,-39
24,-63,-87,19,56,-75,-9,34,14,-19,-29,-39
24,-63,-87,19,56,-75,-9,34,19,-19,-29,-39
24,-58,-82,17,53,-70,-14,34,24,-14,-29,-39
29,-53,-82,12,56,-68,-14,39,24,-14,-24,-34
34,-43,-78,4,56,-61,-14,43,24,-19,-24,-29
34,-43,-78,4,56,-61,-14,43,24,-19,-24,-29
34,-48,-82,7,58,-65,-9,39,24,-19,-24,-29
19,-53,-73,17,46,-63,-14,34,19,-14,-29,-29
9,-58,-68,24,39,-63,-19,29,19,-9,-29,-29
9,-68,-78,29,43,-73,-19,24,19,-9,-29,-34
0,-78,-78,39,39,-78,-19,19,19,-14,-29,-39
4,-58,-63,26,34,-61,-19,14,14,-14,-29,-43
14,-39,-53,12,34,-46,-14,14,14,-14,-34,-43
19,-39,-58,9,39,-48,-9,14,9,-14,-34,-43
19,-39,-58,9,39,-48,-9,9,4,-14,-34,-43
14,-43,-58,14,36,-51,-9,14,4,-19,-39,-43
14,-48,-63,17,39,-56,-9,19,9,-19,-39,-39
9,-48,-58,19,34,-53,-9,14,9,-24,-43,-43
4,-48,-53,21,29,-51,-14,9,4,-29,-43,-43
9,-48,-58,19,34,-53,-14,9,-4,-34,-48,-48
9,-48,-58,19,34,-53,-14,4,-14,-39,-58,-53
9,-48,-58,19,34,-53,-14,0,-14,-39,-58,-53
9,-48,-58,19,34,-53,-14,0,-14,-39,-53,-53
9,-53,-63,21,36,-58,-14,4,-14,-43,-53,-53
9,-53,-63,21,36,-58,-14,4,-14,-43,-53,-53
9,-53,-63,21,36,-58,-19,4,-4,-43,-53,-53
4,-58,-63,26,34,-61,-24,0,-4,-48,-58,-53
4,-63,-68,29,36,-65,-24,0,-14,-48,-63,-53
4,-68,-73,31,39,-70,-24,-4,-24,-48,-63,-58
4,-68,-73,31,39,-70,-24,-4,-29,-53,-68,-58
4,-73,-78,34,41,-75,-29,-4,-29,-53,-78,-58
9,-73,-82,31,46,-78,-29,-4,-29,-53,-78,-58
19,-73,-92,26,56,-82,-29,-4,-29,-53,-78,-58
19,-53,-73,17,46,-63,-24,0,-29,-53,-68,-58
24,-39,-63,7,43,-51,-14,9,-24,-53,-58,-58
24,-39,-63,7,43,-51,-14,9,-24,-43,-53,-58
24,-43,-68,9,46,-56,-14,9,-24,-39,-53,-58
14,-53,-68,19,41,-61,-19,4,-19,-43,-53,-58
9,-63,-73,26,41,-68,-19,0,-14,-43,-58,-58
9,-63,-73,26,41,-68,-24,-4,-19,-43,-58,-58
9,-63,-73,26,41,-68,-34,-4,-19,-43,-58,-58
4,-63,-68,29,36,-65,-39,-4,-19,-48,-63,-58
4,-63,-68,29,36,-65,-39,0,-24,-53,-68,-58
9,-63,-73,26,41,-68,-39,0,-24,-48,-63,-63
19,-63,-82,21,51,-73,-39,4,-24,-48,-63,-63
24,-53,-78,14,51,-65,-19,4,-19,-48,-63,-58
24,-43,-68,9,46,-56,-9,4,-19,-48,-63,-58
24,-53,-78,14,51,-65,-14,4,-19,-48,-63,-53
24,-63,-87,19,56,-75,-19,4,-19,-43,-63,-53
19,-63,-82,21,51,-73,-19,0,-19,-39,-63,-58
19,-63,-82,21,51,-73,-19,0,-14,-34,-63,-63
19,-63,-82,21,51,-73,-29,0,-9,-34,-58,-63
19,-63,-82,21,51,-73,-34,4,-9,-34,-58,-63
9,-63,-73,26,41,-68,-39,0,-14,-39,-63,-63
-4,-68,-63,36,29,-65,-39,-4,-14,-43,-68,-58
-4,-68,-63,36,29,-65,-39,-4,-14,-43,-63,-58
0,-63,-63,31,31,-63,-39,-4,-14,-43,-63,-58
19,-53,-73,17,46,-63,-29,9,-9,-34,-58,-58
29,-43,-73,7,51,-58,-19,24,-4,-29,-53,-53
29,-39,-68,4,48,-53,-19,14,-4,-29,-58,-53
34,-39,-73,2,53,-56,-19,4,-4,-29,-58,-53
34,-48,-82,7,58,-65,-24,4,-9,-34,-58,-53
29,-53,-82,12,56,-68,-29,4,-14,-43,-58,-53
24,-58,-82,17,53,-70,-29,4,-14,-43,-63,-53
19,-63,-82,21,51,-73,-29,4,-14,-43,-68,-53
9,-63,-73,26,41,-68,-29,9,-14,-43,-68,-53
4,-63,-68,29,36,-65,-29,9,-14,-48,-68,-53
4,-63,-68,29,36,-65,-29,9,-9,-43,-63,-53
9,-63,-73,26,41,-68,-29,9,-4,-34,-58,-53
19,-63,-82,21,51,-73,-29,9,-4,-29,-53,-58
24,-58,-82,17,53,-70,-29,9,0,-29,-53,-63
24,-53,-78,14,51,-65,-29,9,0,-29,-53,-63
19,-53,-73,17,46,-63,-29,9,-4,-29,-53,-63
14,-53,-68,19,41,-61,-34,4,-4,-34,-53,-63
9,-53,-63,21,36,-58,-34,4,-9,-34,-58,-63
4,-58,-63,26,34,-61,-29,0,-19,-43,-58,-63
0,-58,-58,29,29,-58,-29,0,-19,-48,-58,-63
4,-58,-63,26,34,-61,-29,0,-19,-48,-58,-58
9,-58,-68,24,39,-63,-29,0,-19,-48,-58,-58
14,-53,-68,19,41,-61,-29,4,-9,-39,-58,-58
19,-48,-68,14,43,-58,-29,9,0,-29,-58,-58
19,-48,-68,14,43,-58,-29,9,0,-29,-58,-58
19,-48,-68,14,43,-58,-29,9,0,-29,-58,-58
19,-48,-68,14,43,-58,-29,9,0,-34,-58,-58
19,-48,-68,14,43,-58,-29,9,0,-39,-58,-58
19,-48,-68,14,43,-58,-34,9,-4,-39,-58,-58
19,-48,-68,14,43,-58,-39,9,-9,-39,-58,-58
19,-53,-73,17,46,-63,-39,4,-9,-39,-58,-58
19,-58,-78,19,48,-68,-39,0,-9,-39,-58,-58
19,-58,-78,19,48,-68,-34,0,-4,-39,-58,-58
19,-58,-78,19,48,-68,-29,0,0,-39,-58,-58
19,-58,-78,19,48,-68,-29,4,0,-39,-53,-58
19,-58,-78,19,48,-68,-29,9,0,-39,-48,-58
19,-58,-78,19,48,-68,-29,9,0,-39,-48,-58
19,-58,-78,19,48,-68,-29,9,0,-39,-48,-58
14,-63,-78,24,46,-70,-34,4,-4,-39,-53,-58
9,-68,-78,29,43,-73,-39,0,-9,-39,-58,-58
9,-68,-78,29,43,-73,-39,0,-9,-39,-58,-58
9,-68,-78,29,43,-73,-39,0,-9,-39,-58,-58
14,-63,-78,24,46,-70,-29,4,-4,-39,-58,-58
19,-58,-78,19,48,-68,-19,9,0,-39,-58,-58
19,-58,-78,19,48,-68,-19,9,0,-39,-58,-58
19,-58,-78,19,48,-68,-19,9,0,-39,-58,-58
19,-58,-78,19,48,-68,-24,9,-4,-39,-58,-58
19,-58,-78,19,48,-68,-29,9,-9,-39,-58,-58
19,-58,-78,19,48,-68,-29,9,-9,-39,-58,-58
19,-58,-78,19,48,-68,-29,9,-9,-39,-58,-58
19,-58,-78,19,48,-68,-29,9,-9,-39,-58,-58
19,-58,-78,19,48,-68,-29,9,-9,-39,-58,-58
14,-63,-78,24,46,-70,-29,4,-9,-43,-58,-58
9,-68,-78,29,43,-73,-29,0,-9,-48,-58,-58
9,-68,-78,29,43,-73,-29,0,-9,-48,-58,-58
9,-68,-78,29,43,-73,-29,0,-9,-48,-58,-58
14,-63,-78,24,46,-70,-29,0,-9,-43,-58,-58
19,-58,-78,19,48,-68,-29,0,-9,-39,-58,-58
19,-58,-78,19,48,-68,-29,0,-9,-39,-58,-58
19,-58,-78,19,48,-68,-29,0,-9,-39,-58,-58
14,-63,-78,24,46,-70,-29,0,-9,-39,-58,-58
9,-68,-78,29,43,-73,-29,0,-9,-39,-58,-58
9,-68,-78,29,43,-73,-29,0,-14,-43,-63,-58
9,-68,-78,29,43,-73,-29,0,-19,-48,-68,-58
9,-68,-78,29,43,-73,-29,0,-19,-48,-68,-58
9,-68,-78,29,43,-73,-29,0,-19,-48,-68,-58
9,-68,-78,29,43,-73,-29,0,-14,-43,-63,-58
9,-68,-78,29,43,-73,-29,0,-9,-39,-58,-58
9,-68,-78,29,43,-73,-29,4,-9,-39,-58,-58
9,-68,-78,29,43,-73,-29,9,-9,-39,-58,-58
14,-68,-82,26,48,-75,-29,9,-9,-39,-58,-58
19,-68,-87,24,53,-78,-29,9,-9,-39,-58,-58
19,-63,-82,21,51,-73,-29,4,-9,-43,-58,-58
19,-58,-78,19,48,-68,-29,0,-9,-48,-58,-58
24,-58,-82,17,53,-70,-29,0,-9,-48,-58,-58
29,-48,-78,9,53,-63,-24,4,-4,-43,-53,-53
34,-43,-78,4,56,-61,-24,14,0,-39,-53,-53
43,-19,-63,-12,53,-41,-9,24,9,-19,-43,-43
48,0,-48,-24,48,-24,4,34,19,-9,-39,-29
53,19,-34,-36,43,-7,14,39,29,0,-29,-24
58,29,-29,-43,43,0,29,53,34,0,-24,-29
63,39,-24,-51,43,7,34,63,39,0,-19,-24
63,43,-19,-53,41,12,43,73,43,9,-14,-19
68,53,-14,-61,41,19,48,82,58,19,0,-9
82,82,0,-82,41,41,53,102,78,43,14,4
97,107,9,-102,43,58,48,107,82,48,24,14
126,141,14,-134,56,78,19,107,92,63,43,39
136,161,24,-148,56,92,4,107,97,68,53,53
136,146,9,-141,63,78,-24,87,92,63,53,39
126,131,4,-129,61,68,-39,68,82,39,43,29
117,117,0,-117,58,58,-48,53,68,34,24,19
117,102,-14,-109,65,43,-58,39,53,24,14,19
122,82,-39,-102,80,21,-68,34,43,19,9,19
126,68,-58,-97,92,4,-68,29,29,14,0,9
117,43,-73,-80,95,-14,-68,9,14,4,0,4
112,34,-78,-73,95,-21,-68,-4,0,-14,-9,-4
102,9,-92,-56,97,-41,-68,-9,-4,-24,-19,-14
82,0,-82,-41,82,-41,-53,-9,-4,-24,-24,-24
58,-19,-78,-19,68,-48,-43,0,0,-24,-34,-34
43,-34,-78,-4,61,-56,-34,0,0,-29,-48,-43
34,-43,-78,4,56,-61,-34,0,-9,-39,-53,-48
14,-63,-78,24,46,-70,-29,-4,-24,-48,-63,-58
14,-78,-92,31,53,-85,-34,-14,-34,-63,-82,-73
14,-82,-97,34,56,-90,-39,-14,-39,-73,-92,-82
9,-82,-92,36,51,-87,-39,-14,-34,-73,-92,-87
0,-82,-82,41,41,-82,-39,-14,-34,-73,-97,-87
-4,-92,-87,48,41,-90,-34,-14,-34,-73,-92,-87
-4,-97,-92,51,43,-95,-34,-14,-34,-68,-87,-82
-9,-102,-92,56,41,-97,-34,-9,-34,-68,-87,-82
-9,-112,-102,61,46,-107,-34,-9,-34,-68,-87,-82
-4,-112,-107,58,51,-109,-29,-9,-34,-68,-92,-87
-4,-112,-107,58,51,-109,-24,-14,-34,-73,-97,-97
-14,-122,-107,68,46,-114,-34,-58,-82,-117,-122,-107
-24,-122,-97,73,36,-109,-24,-29,-68,-102,-112,-107
-24,-112,-87,68,31,-100,19,73,48,-9,-53,-82
-24,-82,-58,53,17,-70,92,244,204,112,29,-43
-97,-53,43,75,-70,-4,258,536,439,258,97,-58
-39,9,48,14,-43,29,380,946,819,566,326,78
190,141,-48,-165,119,46,414,1420,1346,1078,766,405
400,253,-146,-326,273,53,448,1800,1781,1498,1137,683
614,297,-317,-456,466,-9,556,2127,2034,1703,1342,858
888,273,-614,-580,751,-170,507,2122,2015,1722,1400,961
1273,180,-1093,-727,1183,-456,102,1278,1434,1444,1283,990
1395,409,-985,-902,1190,-287,-170,531,990,1317,1342,1166
1239,1088,-151,-1163,695,468,-444,-258,673,1449,1722,1688
1102,1317,214,-1210,444,766,-736,-985,244,1342,1800,1908
800,1127,326,-963,236,727,-1000,-1737,-366,936,1512,1771
483,854,370,-668,56,612,-1098,-2103,-790,512,1107,1454
136,580,444,-358,-153,512,-1073,-2152,-1102,-4,527,893
-151,385,536,-117,-344,461,-956,-2044,-1298,-444,-4,341
-283,209,492,36,-387,351,-663,-1522,-1117,-551,-253,4
-287,92,380,97,-334,236,-419,-1068,-907,-585,-380,-170
-151,-39,112,95,-131,36,-253,-717,-668,-541,-400,-190
-92,-73,19,82,-56,-26,-151,-478,-478,-444,-361,-200
-122,-48,73,85,-97,12,-63,-322,-336,-307,-258,-180
-151,-48,102,100,-126,26,-4,-229,-258,-239,-209,-165
-136,-68,68,102,-102,0,4,-190,-234,-239,-209,-161
-126,-78,48,102,-87,-14,4,-165,-200,-229,-209,-161
-126,-78,48,102,-87,-14,4,-146,-180,-204,-190,-161
-126,-78,48,102,-87,-14,14,-126,-170,-185,-180,-156
-122,-87,34,104,-78,-26,24,-97,-156,-185,-180,-146
-117,-87,29,102,-73,-29,29,-68,-141,-175,-175,-146
-107,-82,24,95,-65,-29,29,-68,-126,-161,-165,-146
-107,-73,34,90,-70,-19,34,-63,-122,-151,-161,-141
-107,-73,34,90,-70,-19,34,-53,-117,-146,-156,-141
-112,-78,34,95,-73,-21,39,-39,-107,-146,-151,-141
-112,-78,34,95,-73,-21,43,-39,-102,-141,-146,-136
-112,-73,39,92,-75,-17,48,-39,-92,-131,-136,-136
-112,-73,39,92,-75,-17,48,-39,-92,-126,-131,-131
-112,-68,43,90,-78,-12,48,-34,-87,-117,-126,-122
-112,-63,48,87,-80,-7,53,-29,-78,-107,-126,-117
-112,-63,48,87,-80,-7,53,-24,-73,-102,-122,-112
-112,-58,53,85,-82,-2,53,-24,-73,-102,-112,-107
-107,-53,53,80,-80,0,53,-24,-68,-102,-107,-107
-107,-53,53,80,-80,0,53,-24,-63,-97,-102,-97
-107,-48,58,78,-82,4,58,-19,-58,-92,-97,-97
-107,-43,63,75,-85,9,58,-9,-53,-78,-87,-92
-107,-34,73,70,-90,19,58,0,-53,-68,-78,-82
-107,-34,73,70,-90,19,58,9,-39,-63,-73,-73
-102,-24,78,63,-90,26,58,19,-39,-53,-63,-68
-102,-24,78,63,-90,26,63,19,-34,-53,-58,-68
-102,-19,82,61,-92,31,68,24,-29,-43,-53,-58
-102,-14,87,58,-95,36,68,24,-24,-34,-43,-53
-97,-4,92,51,-95,43,68,24,-14,-24,-39,-48
-97,0,97,48,-97,48,68,34,-4,-19,-24,-43
-97,9,107,43,-102,58,68,43,4,-9,-14,-39
-102,14,117,43,-109,65,73,53,9,-4,-4,-24
-107,19,126,43,-117,73,78,63,14,0,0,-24
-107,24,131,41,-119,78,82,68,29,14,4,-14
-107,34,141,36,-124,87,82,68,34,24,4,-9
-102,39,141,31,-122,90,87,78,43,34,14,-4
-97,43,141,26,-119,92,92,87,53,43,24,0
-97,53,151,21,-124,102,92,97,63,48,24,4
-102,68,170,17,-136,119,102,107,73,43,24,9
-107,73,180,17,-143,126,112,122,78,48,29,9
-112,78,190,17,-151,134,112,122,78,58,39,14
-112,78,190,17,-151,134,122,131,92,68,48,24
-112,82,195,14,-153,139,131,146,102,73,53,29
-112,87,200,12,-156,143,141,161,112,78,68,34
-117,97,214,9,-165,156,151,170,112,78,73,34
-122,107,229,7,-175,168,156,175,112,82,78,34
-131,117,248,7,-190,183,165,180,117,82,78,34
-141,126,268,7,-204,197,180,200,126,87,78,39
-156,131,287,12,-222,209,185,204,136,97,82,39
-161,146,307,7,-234,226,190,204,141,102,82,43
-175,156,331,9,-253,244,200,204,146,107,82,48
-190,165,356,12,-273,261,209,209,141,102,87,48
-200,170,370,14,-285,270,214,219,131,102,87,39
-209,185,395,12,-302,290,214,214,126,97,73,43
-219,190,409,14,-314,300,224,195,126,92,68,39
-224,195,419,14,-322,307,224,175,112,78,58,29
-239,195,434,21,-336,314,219,161,97,63,43,19
-263,195,458,34,-361,326,209,141,68,43,29,0
-292,195,488,48,-390,341,200,102,39,24,14,-4
-297,200,497,48,-397,348,200,63,14,-4,0,-14
-302,200,502,51,-402,351,180,29,-19,-29,-19,-29
-312,185,497,63,-405,341,165,-4,-53,-53,-48,-48
-312,180,492,65,-402,336,146,-53,-92,-82,-73,-63
-317,161,478,78,-397,319,131,-102,-131,-122,-102,-82
-322,141,463,90,-392,302,107,-141,-161,-151,-136,-112
-326,122,448,102,-387,285,97,-161,-200,-190,-161,-136
-326,107,434,109,-380,270,82,-190,-224,-214,-185,-146
-317,87,405,114,-361,246,73,-209,-248,-229,-200,-151
-307,63,370,122,-339,217,68,-214,-258,-234,-214,-165
-292,43,336,124,-314,190,58,-229,-268,-248,-224,-175
-268,24,292,122,-280,158,39,-239,-278,-253,-234,-180
-244,4,248,119,-246,126,29,-234,-268,-253,-234,-180
-224,-14,209,119,-217,97,14,-214,-239,-239,-234,-180
-200,-34,165,117,-183,65,9,-200,-219,-234,-219,-180
-175,-48,126,112,-151,39,9,-165,-195,-229,-214,-175
-146,-53,92,100,-119,19,4,-151,-185,-209,-209,-170
-112,-58,53,85,-82,-2,4,-131,-165,-190,-200,-161
-92,-58,34,75,-63,-12,4,-112,-141,-170,-180,-156
-73,-63,9,68,-41,-26,4,-92,-117,-156,-170,-156
-53,-68,-14,61,-19,-41,4,-68,-97,-131,-156,-141
-29,-68,-39,48,4,-53,0,-63,-82,-117,-141,-131
-19,-63,-43,41,12,-53,-4,-48,-68,-107,-126,-117
-9,-63,-53,36,21,-58,-9,-29,-48,-87,-117,-102
-4,-63,-58,34,26,-61,-9,-19,-39,-78,-107,-97
0,-63,-63,31,31,-63,-9,-9,-29,-73,-92,-92
9,-68,-78,29,43,-73,-9,0,-24,-68,-82,-87
14,-73,-87,29,51,-80,-14,0,-14,-63,-78,-82
19,-73,-92,26,56,-82,-14,9,-14,-48,-73,-73
24,-73,-97,24,61,-85,-14,9,-9,-39,-68,-68
29,-68,-97,19,63,-82,-9,19,-4,-39,-63,-63
29,-63,-92,17,61,-78,-9,29,0,-39,-58,-53
29,-58,-87,14,58,-73,-9,29,4,-34,-48,-53
24,-53,-78,14,51,-65,-9,29,14,-29,-48,-48
24,-53,-78,14,51,-65,-9,24,14,-24,-48,-48
24,-53,-78,14,51,-65,-9,24,14,-19,-48,-48
19,-53,-73,17,46,-63,-14,24,14,-14,-48,-53
14,-58,-73,21,43,-65,-14,24,14,-14,-43,-58
14,-53,-68,19,41,-61,-14,24,14,-19,-43,-58
14,-53,-68,19,41,-61,-14,24,14,-19,-43,-58
19,-48,-68,14,43,-58,-9,19,14,-19,-43,-53
19,-39,-58,9,39,-48,-9,19,9,-19,-48,-48
19,-39,-58,9,39,-48,-9,19,9,-19,-48,-48
19,-39,-58,9,39,-48,-9,19,9,-19,-48,-48
4,-43,-48,19,26,-46,-9,24,9,-29,-48,-48
0,-48,-48,24,24,-48,-14,24,4,-34,-48,-53
4,-48,-53,21,29,-51,-14,24,4,-34,-53,-53
4,-48,-53,21,29,-51,-9,24,0,-34,-53,-53
0,-48,-48,24,24,-48,-9,14,-9,-34,-53,-53
-4,-48,-43,26,19,-46,-9,9,-19,-39,-58,-58
-4,-48,-43,26,19,-46,-4,9,-19,-39,-58,-58
-4,-48,-43,26,19,-46,0,4,-19,-43,-63,-63
-4,-53,-48,29,21,-51,-4,0,-19,-48,-63,-63
0,-58,-58,29,29,-58,-4,0,-14,-48,-63,-63
0,-58,-58,29,29,-58,-9,-4,-14,-48,-68,-63
0,-58,-58,29,29,-58,-14,-9,-14,-48,-68,-63
0,-58,-58,29,29,-58,-14,-9,-14,-43,-63,-63
0,-63,-63,31,31,-63,-14,-4,-14,-43,-63,-63
0,-58,-58,29,29,-58,-9,-4,-14,-43,-63,-58
0,-53,-53,26,26,-53,-4,-4,-14,-43,-63,-53
0,-58,-58,29,29,-58,-4,-9,-24,-48,-68,-53
4,-58,-63,26,34,-61,-4,-9,-24,-48,-73,-53
4,-58,-63,26,34,-61,-9,-14,-24,-48,-73,-63
4,-58,-63,26,34,-61,-14,-14,-29,-53,-73,-68
4,-63,-68,29,36,-65,-19,-14,-29,-53,-78,-68
4,-63,-68,29,36,-65,-19,-14,-29,-53,-78,-68
0,-68,-68,34,34,-68,-19,-14,-29,-53,-78,-68
-9,-68,-58,39,24,-63,-19,-14,-29,-53,-78,-68
-4,-68,-63,36,29,-65,-19,-9,-29,-58,-78,-68
-4,-68,-63,36,29,-65,-24,-9,-34,-58,-73,-68
0,-73,-73,36,36,-73,-24,-9,-34,-58,-73,-68
0,-73,-73,36,36,-73,-29,-9,-34,-63,-73,-68
0,-78,-78,39,39,-78,-24,-9,-34,-63,-78,-68
0,-82,-82,41,41,-82,-19,-14,-39,-63,-78,-68
0,-82,-82,41,41,-82,-24,-14,-39,-63,-73,-68
-4,-82,-78,43,36,-80,-24,-14,-34,-63,-68,-68
-4,-73,-68,39,31,-70,-19,-9,-34,-63,-68,-68
-4,-63,-58,34,26,-61,-19,-9,-34,-58,-63,-73
0,-63,-63,31,31,-63,-24,-4,-34,-58,-68,-73
4,-63,-68,29,36,-65,-19,-4,-29,-58,-73,-68
4,-73,-78,34,41,-75,-19,-4,-29,-58,-73,-68
4,-82,-87,39,46,-85,-24,-4,-29,-58,-73,-63
9,-73,-82,31,46,-78,-29,-4,-24,-48,-73,-63
9,-63,-73,26,41,-68,-29,-9,-24,-43,-73,-63
14,-58,-73,21,43,-65,-24,-4,-24,-43,-73,-63
19,-53,-73,17,46,-63,-24,0,-19,-43,-68,-63
19,-53,-73,17,46,-63,-24,4,-19,-43,-68,-63
19,-53,-73,17,46,-63,-24,4,-19,-43,-68,-63
9,-63,-73,26,41,-68,-24,0,-14,-43,-68,-58
4,-68,-73,31,39,-70,-29,-4,-14,-43,-63,-58
4,-63,-68,29,36,-65,-29,-4,-14,-48,-63,-53
9,-63,-73,26,41,-68,-29,-4,-14,-48,-63,-53
9,-63,-73,26,41,-68,-29,-4,-19,-48,-63,-53
4,-58,-63,26,34,-61,-29,-4,-24,-48,-68,-53
4,-58,-63,26,34,-61,-24,-4,-24,-48,-68,-58
4,-63,-68,29,36,-65,-19,-4,-24,-48,-68,-63
4,-63,-68,29,36,-65,-19,-4,-24,-53,-63,-63
9,-63,-73,26,41,-68,-19,-4,-24,-53,-58,-63
9,-63,-73,26,41,-68,-19,-4,-24,-53,-58,-63
4,-63,-68,29,36,-65,-19,0,-24,-53,-58,-63
4,-68,-73,31,39,-70,-19,0,-24,-58,-63,-63
4,-73,-78,34,41,-75,-19,0,-24,-58,-68,-63
4,-73,-78,34,41,-75,-19,0,-24,-53,-68,-63
4,-73,-78,34,41,-75,-19,0,-24,-48,-63,-63
4,-68,-73,31,39,-70,-19,0,-19,-48,-63,-58
4,-68,-73,31,39,-70,-19,0,-19,-48,-63,-53
4,-68,-73,31,39,-70,-19,0,-24,-48,-63,-53
9,-63,-73,26,41,-68,-24,-4,-24,-53,-63,-53
9,-63,-73,26,41,-68,-24,-4,-29,-53,-68,-53
9,-63,-73,26,41,-68,-19,-4,-24,-53,-68,-53
9,-58,-68,24,39,-63,-19,0,-19,-48,-68,-53
14,-58,-73,21,43,-65,-19,0,-19,-48,-68,-58
9,-63,-73,26,41,-68,-19,0,-14,-43,-63,-58
9,-68,-78,29,43,-73,-19,0,-9,-39,-58,-58
9,-68,-78,29,43,-73,-19,0,-9,-39,-58,-53
9,-68,-78,29,43,-73,-19,0,-9,-39,-58,-48
9,-68,-78,29,43,-73,-19,4,-9,-39,-58,-48
9,-68,-78,29,43,-73,-19,9,-9,-39,-58,-48
9,-68,-78,29,43,-73,-19,9,-9,-39,-48,-48
9,-68,-78,29,43,-73,-19,9,-9,-39,-39,-48
9,-68,-78,29,43,-73,-19,4,-14,-43,-48,-53
9,-68,-78,29,43,-73,-19,0,-19,-48,-58,-58
4,-73,-78,34,41,-75,-19,0,-19,-48,-58,-58
0,-78,-78,39,39,-78,-19,0,-19,-48,-58,-58
0,-78,-78,39,39,-78,-19,0,-19,-48,-53,-53
0,-78,-78,39,39,-78,-19,0,-19,-48,-48,-48
0,-73,-73,36,36,-73,-19,0,-19,-48,-48,-48
0,-68,-68,34,34,-68,-19,0,-19,-48,-48,-48
0,-68,-68,34,34,-68,-19,0,-19,-48,-48,-48
0,-68,-68,34,34,-68,-19,0,-19,-48,-48,-48
4,-73,-78,34,41,-75,-19,0,-19,-48,-53,-48
9,-78,-87,34,48,-82,-19,0,-19,-48,-58,-48
9,-78,-87,34,48,-82,-19,0,-19,-48,-58,-53
9,-78,-87,34,48,-82,-19,0,-19,-48,-58,-58
4,-78,-82,36,43,-80,-19,0,-19,-48,-58,-58
0,-78,-78,39,39,-78,-19,0,-19,-48,-58,-58
0,-78,-78,39,39,-78,-24,0,-14,-43,-58,-58
0,-78,-78,39,39,-78,-29,0,-9,-39,-58,-58
4,-73,-78,34,41,-75,-29,0,-9,-39,-58,-53
9,-68,-78,29,43,-73,-29,0,-9,-39,-58,-48
9,-68,-78,29,43,-73,-29,0,-19,-43,-58,-48
9,-68,-78,29,43,-73,-29,0,-29,-48,-58,-48
9,-73,-82,31,46,-78,-29,0,-19,-48,-53,-48
9,-78,-87,34,48,-82,-29,0,-9,-48,-48,-48
4,-78,-82,36,43,-80,-24,0,-9,-48,-48,-48
0,-78,-78,39,39,-78,-19,0,-9,-48,-48,-48
0,-78,-78,39,39,-78,-19,0,-19,-48,-53,-53
0,-78,-78,39,39,-78,-19,0,-29,-48,-58,-58
4,-73,-78,34,41,-75,-24,0,-29,-48,-58,-58
9,-68,-78,29,43,-73,-29,0,-29,-48,-58,-58
9,-68,-78,29,43,-73,-29,0,-24,-48,-58,-53
9,-68,-78,29,43,-73,-29,0,-19,-48,-58,-48
4,-73,-78,34,41,-75,-29,0,-19,-48,-58,-48
0,-78,-78,39,39,-78,-29,0,-19,-48,-58,-48
0,-78,-78,39,39,-78,-24,0,-14,-48,-53,-48
0,-78,-78,39,39,-78,-19,0,-9,-48,-48,-48
0,-73,-73,36,36,-73,-19,4,-4,-48,-48,-48
9,-53,-63,21,36,-58,-9,14,0,-39,-43,-39
19,-39,-58,9,39,-48,0,24,4,-29,-39,-34
29,-19,-48,-4,39,-34,14,34,9,-19,-34,-19
34,4,-29,-19,31,-12,24,39,14,-9,-19,-14
43,19,-24,-31,34,-2,34,53,19,-4,-14,-14
53,29,-24,-41,39,2,34,63,29,0,-9,-4
58,34,-24,-46,41,4,43,73,34,9,-4,0
68,43,-24,-56,46,9,53,82,53,19,9,4
82,73,-9,-78,46,31,58,97,78,43,24,14
97,97,0,-97,48,48,48,97,82,53,39,24
122,122,0,-122,61,61,19,97,87,68,53,43
126,141,14,-134,56,78,4,102,92,68,53,63
126,136,9,-131,58,73,-19,87,82,63,53,58
117,122,4,-119,56,63,-29,73,63,43,48,48
107,107,0,-107,53,53,-39,63,48,43,39,39
107,92,-14,-100,61,39,-48,48,34,34,34,39
107,73,-34,-90,70,19,-58,39,29,24,29,39
112,58,-53,-85,82,2,-63,29,19,14,19,29
102,29,-73,-65,87,-21,-68,9,4,4,9,19
92,14,-78,-53,85,-31,-68,-4,-9,-14,-9,4
82,-9,-92,-36,87,-51,-68,-4,-14,-24,-19,-4
68,-19,-87,-24,78,-53,-53,0,-14,-24,-24,-14
48,-34,-82,-7,65,-58,-43,9,-9,-24,-29,-24
34,-48,-82,7,58,-65,-34,9,-4,-29,-39,-34
29,-63,-92,17,61,-78,-34,9,-9,-39,-43,-39
9,-82,-92,36,51,-87,-29,0,-24,-48,-53,-48
4,-92,-97,43,51,-95,-29,-14,-29,-53,-63,-53
4,-97,-102,46,53,-100,-29,-14,-34,-53,-63,-53
0,-102,-102,51,51,-102,-29,-14,-34,-53,-63,-58
-9,-102,-92,56,41,-97,-29,-14,-34,-58,-73,-63
-14,-112,-97,63,41,-104,-24,-14,-34,-68,-78,-73
-14,-117,-102,65,43,-109,-24,-14,-34,-68,-78,-73
-19,-117,-97,68,39,-107,-24,-9,-34,-68,-78,-73
-19,-122,-102,70,41,-112,-29,-9,-34,-68,-78,-73
-14,-122,-107,68,46,-114,-29,-4,-34,-68,-78,-73
-14,-126,-112,70,48,-119,-29,-29,-63,-87,-87,-82
-19,-131,-112,75,46,-122,-24,-43,-82,-102,-97,-87
-24,-126,-102,75,39,-114,-14,-9,-48,-78,-87,-82
-24,-117,-92,70,34,-104,39,117,87,29,-19,-48
-58,-102,-43,80,-7,-73,141,292,244,136,43,-43
-78,-63,14,70,-46,-24,273,566,497,317,161,-14
29,19,-9,-24,19,4,385,1088,985,736,492,200
239,122,-117,-180,178,2,424,1503,1424,1166,863,483
468,248,-219,-358,344,14,483,1917,1912,1625,1263,780
683,312,-370,-497,527,-29,512,2098,2108,1820,1473,971
1010,156,-854,-583,932,-348,409,2049,1986,1717,1420,1000
1263,131,-1132,-697,1198,-500,87,1400,1532,1527,1376,1088
1293,639,-653,-966,973,-7,-190,512,1063,1498,1581,1415
1190,1161,-29,-1176,610,566,-453,-273,688,1522,1820,1786
1073,1273,200,-1173,436,736,-795,-1063,204,1361,1844,1971
814,1137,322,-976,246,729,-995,-1703,-326,995,1576,1834
429,722,292,-575,68,507,-990,-1976,-771,463,1015,1346
97,434,336,-265,-119,385,-951,-2044,-1063,-4,488,844
-234,268,502,-17,-368,385,-814,-1883,-1249,-478,-102,204
-385,112,497,136,-441,305,-605,-1498,-1156,-634,-370,-131
-283,14,297,134,-290,156,-385,-1019,-888,-605,-405,-175
-170,-87,82,129,-126,-2,-234,-678,-663,-561,-419,-190
-131,-73,58,102,-95,-7,-141,-463,-453,-405,-322,-180
-126,-63,63,95,-95,0,-48,-287,-297,-278,-229,-161
-141,-73,68,107,-104,-2,-4,-214,-253,-239,-200,-146
-126,-78,48,102,-87,-14,14,-170,-229,-229,-190,-141
-117,-78,39,97,-78,-19,14,-151,-195,-219,-190,-136
-117,-78,39,97,-78,-19,14,-126,-170,-195,-170,-131
-117,-87,29,102,-73,-29,24,-107,-161,-170,-156,-126
-117,-107,9,112,-63,-48,34,-87,-146,-165,-146,-117
-117,-107,9,112,-63,-48,34,-68,-126,-156,-136,-117
-107,-102,4,104,-56,-48,29,-68,-107,-141,-126,-112
-107,-92,14,100,-61,-39,34,-63,-102,-131,-122,-102
-102,-92,9,97,-56,-41,34,-53,-97,-126,-117,-102
-102,-97,4,100,-53,-46,39,-34,-87,-126,-117,-102
-102,-97,4,100,-53,-46,39,-29,-87,-122,-117,-97
-97,-92,4,95,-51,-43,43,-29,-82,-112,-107,-97
-92,-92,0,92,-46,-46,48,-29,-82,-112,-102,-92
-92,-87,4,90,-48,-41,48,-24,-78,-107,-92,-82
-92,-82,9,87,-51,-36,53,-19,-68,-97,-87,-78
-97,-78,19,87,-58,-29,53,-14,-63,-92,-82,-73
-102,-68,34,85,-68,-17,53,-9,-63,-87,-73,-68
-97,-63,34,80,-65,-14,48,-9,-63,-82,-68,-68
-97,-63,34,80,-65,-14,43,-14,-63,-78,-63,-58
-97,-63,34,80,-65,-14,48,-9,-58,-73,-58,-58
-97,-63,34,80,-65,-14,48,-4,-53,-63,-48,-53
-92,-53,39,73,-65,-7,48,0,-53,-58,-39,-43
-87,-53,34,70,-61,-9,48,4,-39,-53,-34,-34
-82,-34,48,58,-65,7,48,19,-39,-43,-24,-29
-82,-24,58,53,-70,17,53,29,-34,-43,-19,-29
-82,-29,53,56,-68,12,58,19,-29,-39,-19,-24
-82,-34,48,58,-65,7,58,9,-24,-34,-14,-24
-82,-29,53,56,-68,12,58,14,-19,-24,-9,-19
-87,-29,58,58,-73,14,58,24,-14,-19,0,-14
-87,-19,68,53,-78,24,58,34,-4,-9,4,-9
-87,-14,73,51,-80,29,63,43,0,-4,14,4
-78,0,78,39,-78,39,68,53,4,0,19,4
-68,14,82,26,-75,48,73,58,14,9,29,14
-68,24,92,21,-80,58,73,48,9,14,34,19
-68,29,97,19,-82,63,78,48,14,24,43,24
-73,24,97,24,-85,61,78,58,24,34,53,29
-78,19,97,29,-87,58,73,68,34,43,53,34
-82,29,112,26,-97,70,73,78,43,39,48,39
-87,34,122,26,-104,78,78,92,48,39,48,39
-92,39,131,26,-112,85,82,87,48,48,58,43
-92,43,136,24,-114,90,92,92,63,58,68,53
-87,58,146,14,-117,102,107,107,73,63,78,58
-87,68,156,9,-122,112,117,122,82,68,92,63
-97,78,175,9,-136,126,122,131,82,73,92,68
-102,87,190,7,-146,139,126,136,82,82,97,73
-112,97,209,7,-161,153,131,141,87,82,97,73
-117,107,224,4,-170,165,141,156,97,87,97,78
-126,112,239,7,-183,175,146,156,97,87,97,73
-131,122,253,4,-192,187,151,156,87,78,92,68
-146,122,268,12,-207,195,161,151,82,73,92,68
-161,126,287,17,-224,207,165,141,73,63,92,68
-165,131,297,17,-231,214,165,136,63,63,87,58
-175,146,322,14,-248,234,165,126,53,53,73,58
-190,151,341,19,-265,246,170,107,48,39,68,48
-195,156,351,19,-273,253,165,87,29,19,53,39
-209,156,366,26,-287,261,161,78,9,4,29,29
-224,156,380,34,-302,268,151,58,-19,-19,9,9
-244,161,405,41,-324,283,146,19,-48,-34,-4,0
-248,165,414,41,-331,290,151,-14,-78,-58,-24,-14
-253,161,414,46,-334,287,136,-48,-117,-97,-48,-29
-268,146,414,61,-341,280,126,-82,-151,-131,-78,-48
-273,141,414,65,-344,278,107,-131,-190,-161,-102,-63
-278,117,395,80,-336,256,92,-180,-229,-200,-131,-82
-292,92,385,100,-339,239,68,-219,-258,-224,-165,-112
-302,73,375,114,-339,224,58,-234,-287,-248,-185,-136
-297,63,361,117,-329,212,43,-258,-302,-263,-204,-146
-283,53,336,114,-309,195,34,-278,-322,-278,-214,-151
-273,39,312,117,-292,175,39,-283,-326,-283,-224,-165
-263,24,287,119,-275,156,39,-283,-326,-292,-229,-170
-239,4,244,117,-241,124,19,-268,-326,-292,-234,-170
-209,-9,200,109,-204,95,14,-248,-317,-292,-234,-170
-190,-24,165,107,-178,70,9,-234,-287,-278,-234,-170
-170,-39,131,104,-151,46,9,-229,-268,-268,-219,-170
-146,-53,92,100,-119,19,9,-195,-239,-258,-214,-165
-126,-63,63,95,-95,0,4,-180,-224,-239,-204,-156
-107,-68,39,87,-73,-14,0,-151,-195,-214,-190,-141
-92,-68,24,80,-58,-21,-9,-122,-161,-190,-170,-131
-73,-73,0,73,-36,-36,-14,-97,-126,-170,-151,-122
-58,-78,-19,68,-19,-48,-14,-68,-97,-141,-126,-102
-34,-78,-43,56,4,-61,-14,-58,-82,-122,-112,-92
-19,-73,-53,46,17,-63,-9,-39,-68,-107,-97,-82
-9,-73,-63,41,26,-68,-9,-19,-48,-87,-87,-73
-4,-73,-68,39,31,-70,-9,-9,-39,-78,-78,-68
0,-73,-73,36,36,-73,-9,0,-29,-73,-63,-63
4,-73,-78,34,41,-75,-9,9,-24,-68,-58,-58
4,-73,-78,34,41,-75,-14,9,-14,-63,-58,-53
9,-73,-82,31,46,-78,-14,19,-14,-48,-53,-43
19,-73,-92,26,56,-82,-14,19,-9,-34,-43,-39
29,-68,-97,19,63,-82,-9,24,-4,-29,-34,-39
29,-63,-92,17,61,-78,-9,34,4,-29,-29,-34
29,-63,-92,17,61,-78,-9,39,9,-24,-19,-34
24,-63,-87,19,56,-75,-9,39,14,-14,-24,-34
24,-63,-87,19,56,-75,-9,34,14,-9,-29,-39
24,-63,-87,19,56,-75,-9,34,14,-9,-29,-39
24,-58,-82,17,53,-70,-14,34,14,-4,-29,-39
24,-58,-82,17,53,-70,-14,34,14,-4,-24,-34
24,-53,-78,14,51,-65,-14,34,14,-9,-24,-29
24,-53,-78,14,51,-65,-14,34,14,-14,-24,-29
24,-58,-82,17,53,-70,-9,29,14,-19,-24,-29
19,-58,-78,19,48,-68,-9,29,9,-19,-29,-29
19,-58,-78,19,48,-68,-9,29,9,-19,-29,-29
19,-53,-73,17,46,-63,-9,29,9,-19,-29,-29
9,-48,-58,19,34,-53,-9,29,9,-24,-29,-29
9,-48,-58,19,34,-53,-19,19,4,-24,-29,-39
14,-48,-63,17,39,-56,-24,14,4,-24,-34,-43
14,-53,-68,19,41,-61,-29,14,0,-29,-34,-43
9,-58,-68,24,39,-63,-39,9,-4,-34,-34,-43
4,-58,-63,26,34,-61,-39,9,-9,-39,-43,-48
4,-58,-63,26,34,-61,-39,9,-9,-39,-48,-48
9,-58,-68,24,39,-63,-29,-4,-9,-39,-53,-48
14,-58,-73,21,43,-65,-24,-19,-14,-39,-53,-43
19,-53,-73,17,46,-63,-24,-4,-14,-34,-43,-39
19,-48,-68,14,43,-58,-24,4,-14,-29,-39,-34
19,-48,-68,14,43,-58,-24,4,-9,-29,-39,-34
19,-48,-68,14,43,-58,-24,9,-4,-29,-34,-34
19,-53,-73,17,46,-63,-24,14,-4,-39,-39,-39
19,-53,-73,17,46,-63,-24,14,-4,-43,-43,-43
19,-53,-73,17,46,-63,-24,9,-4,-43,-43,-43
14,-58,-73,21,43,-65,-24,0,-14,-48,-48,-43
9,-63,-73,26,41,-68,-24,0,-19,-48,-58,-48
4,-68,-73,31,39,-70,-24,-4,-24,-48,-63,-58
4,-68,-73,31,39,-70,-24,-14,-29,-53,-63,-58
4,-73,-78,34,41,-75,-29,-24,-29,-53,-68,-58
4,-68,-73,31,39,-70,-29,-24,-29,-53,-68,-58
9,-63,-73,26,41,-68,-29,-24,-29,-53,-68,-58
9,-58,-68,24,39,-63,-34,-14,-29,-53,-68,-58
14,-58,-73,21,43,-65,-34,0,-24,-53,-68,-58
14,-58,-73,21,43,-65,-34,0,-24,-48,-63,-58
14,-63,-78,24,46,-70,-34,0,-24,-48,-63,-58
9,-63,-73,26,41,-68,-39,0,-24,-53,-63,-58
9,-63,-73,26,41,-68,-39,0,-24,-53,-68,-58
14,-63,-78,24,46,-70,-34,-4,-29,-53,-68,-58
19,-63,-82,21,51,-73,-34,-4,-29,-53,-68,-58
14,-63,-78,24,46,-70,-34,-4,-29,-53,-68,-58
14,-63,-78,24,46,-70,-29,0,-34,-53,-68,-58
14,-63,-78,24,46,-70,-29,0,-34,-48,-63,-63
19,-63,-82,21,51,-73,-29,4,-34,-48,-63,-63
24,-63,-87,19,56,-75,-19,4,-24,-48,-63,-58
24,-63,-87,19,56,-75,-19,4,-19,-48,-63,-58
19,-63,-82,21,51,-73,-24,4,-19,-48,-63,-53
14,-63,-78,24,46,-70,-29,4,-19,-43,-63,-53
9,-68,-78,29,43,-73,-29,-4,-24,-43,-63,-53
9,-73,-82,31,46,-78,-29,-9,-24,-43,-63,-53
9,-73,-82,31,46,-78,-34,-9,-19,-43,-58,-53
9,-73,-82,31,46,-78,-34,-4,-19,-43,-58,-53
9,-63,-73,26,41,-68,-34,0,-19,-43,-58,-53
4,-58,-63,26,34,-61,-29,4,-14,-43,-58,-48
4,-58,-63,26,34,-61,-29,9,-14,-43,-53,-48
9,-53,-63,21,36,-58,-29,14,-14,-43,-53,-48
19,-58,-78,19,48,-68,-29,14,-14,-39,-53,-53
19,-63,-82,21,51,-73,-29,14,-14,-39,-53,-53
14,-58,-73,21,43,-65,-29,9,-14,-39,-58,-53
14,-58,-73,21,43,-65,-29,4,-14,-39,-58,-53
14,-63,-78,24,46,-70,-29,4,-14,-39,-58,-53
9,-63,-73,26,41,-68,-29,4,-14,-43,-58,-53
9,-63,-73,26,41,-68,-29,4,-14,-43,-58,-53
9,-63,-73,26,41,-68,-29,4,-14,-43,-58,-53
4,-63,-68,29,36,-65,-29,9,-19,-48,-63,-53
4,-63,-68,29,36,-65,-29,9,-24,-58,-68,-53
0,-68,-68,34,34,-68,-29,9,-24,-58,-68,-53
0,-73,-73,36,36,-73,-29,9,-24,-53,-68,-53
4,-73,-78,34,41,-75,-29,9,-24,-48,-58,-53
4,-68,-73,31,39,-70,-29,9,-19,-48,-53,-53
4,-63,-68,29,36,-65,-29,9,-14,-43,-53,-53
0,-63,-63,31,31,-63,-29,9,-14,-39,-53,-53
4,-63,-68,29,36,-65,-34,4,-14,-43,-53,-58
9,-63,-73,26,41,-68,-34,4,-19,-43,-58,-63
14,-63,-78,24,46,-70,-29,4,-19,-43,-58,-63
19,-58,-78,19,48,-68,-29,9,-9,-39,-58,-63
24,-58,-82,17,53,-70,-29,9,-4,-39,-58,-58
29,-58,-87,14,58,-73,-29,9,0,-39,-58,-58
24,-58,-82,17,53,-70,-29,9,0,-39,-58,-58
19,-58,-78,19,48,-68,-29,9,0,-39,-58,-58
19,-58,-78,19,48,-68,-29,9,-4,-43,-58,-58
19,-58,-78,19,48,-68,-29,9,-9,-48,-58,-58
19,-58,-78,19,48,-68,-29,9,-9,-48,-58,-58
19,-58,-78,19,48,-68,-29,9,-9,-48,-58,-58
14,-58,-73,21,43,-65,-29,9,-9,-48,-58,-63
9,-58,-68,24,39,-63,-29,9,-9,-48,-58,-68
9,-63,-73,26,41,-68,-29,4,-14,-48,-58,-68
9,-68,-78,29,43,-73,-29,0,-19,-48,-58,-68
9,-68,-78,29,43,-73,-29,0,-19,-48,-58,-68
9,-68,-78,29,43,-73,-29,0,-19,-48,-58,-68
9,-68,-78,29,43,-73,-29,0,-19,-48,-58,-68
9,-68,-78,29,43,-73,-29,0,-19,-48,-58,-68
9,-68,-78,29,43,-73,-29,0,-19,-48,-58,-68
9,-68,-78,29,43,-73,-29,0,-19,-48,-58,-68
9,-68,-78,29,43,-73,-29,0,-19,-48,-58,-68
9,-68,-78,29,43,-73,-29,0,-19,-48,-58,-68
9,-68,-78,29,43,-73,-29,0,-19,-48,-58,-68
9,-68,-78,29,43,-73,-29,0,-19,-48,-58,-68
9,-68,-78,29,43,-73,-29,0,-19,-48,-58,-68
9,-68,-78,29,43,-73,-29,0,-19,-48,-58,-68
9,-68,-78,29,43,-73,-29,0,-19,-48,-63,-68
9,-68,-78,29,43,-73,-29,0,-19,-48,-68,-68
9,-68,-78,29,43,-73,-29,0,-29,-48,-68,-68
9,-68,-78,29,43,-73,-29,0,-39,-48,-68,-68
9,-68,-78,29,43,-73,-29,0,-29,-48,-68,-68
9,-68,-78,29,43,-73,-29,0,-19,-48,-68,-68
9,-68,-78,29,43,-73,-29,4,-9,-43,-68,-68
9,-68,-78,29,43,-73,-29,9,0,-39,-68,-68
14,-68,-82,26,48,-75,-29,9,0,-39,-63,-68
19,-68,-87,24,53,-78,-29,9,0,-39,-58,-68
19,-68,-87,24,53,-78,-29,9,-4,-43,-58,-68
19,-68,-87,24,53,-78,-29,9,-9,-48,-58,-68
14,-68,-82,26,48,-75,-29,4,-9,-48,-63,-68
9,-68,-78,29,43,-73,-29,0,-9,-48,-68,-68
4,-73,-78,34,41,-75,-34,0,-14,-48,-68,-68
0,-78,-78,39,39,-78,-39,0,-19,-48,-68,-68
0,-78,-78,39,39,-78,-39,-4,-19,-48,-68,-68
0,-78,-78,39,39,-78,-39,-9,-19,-48,-68,-68
9,-73,-82,31,46,-78,-34,-9,-19,-48,-68,-68
19,-68,-87,24,53,-78,-29,-9,-19,-48,-68,-68
19,-63,-82,21,51,-73,-24,-4,-19,-48,-68,-68
19,-58,-78,19,48,-68,-19,0,-19,-48,-68,-68
19,-58,-78,19,48,-68,-19,0,-19,-48,-68,-68
19,-48,-68,14,43,-58,-19,4,-9,-43,-63,-63
19,-43,-63,12,41,-53,-19,14,-4,-43,-63,-63
24,-19,-43,-2,34,-31,-9,24,9,-29,-53,-53
29,0,-29,-14,29,-14,4,34,19,-19,-43,-39
34,19,-14,-26,24,2,14,39,29,-9,-29,-34
48,29,-19,-39,34,4,24,53,39,-4,-24,-34
63,39,-24,-51,43,7,24,63,48,0,-19,-24
68,48,-19,-58,43,14,39,73,53,9,-14,-19
78,63,-14,-70,46,24,48,82,68,19,0,-9
97,97,0,-97,48,48,48,97,87,43,19,4
117,126,9,-122,53,68,39,97,92,48,34,14
141,151,9,-146,65,80,14,102,97,63,43,34
146,161,14,-153,65,87,4,107,97,68,43,43
141,146,4,-143,68,75,-19,92,87,63,43,29
126,131,4,-129,61,68,-29,78,73,39,34,19
117,117,0,-117,58,58,-39,63,58,34,14,9
117,102,-14,-109,65,43,-48,48,43,24,4,9
122,82,-39,-102,80,21,-63,34,34,9,0,9
126,68,-58,-97,92,4,-68,19,19,-4,-9,0
112,39,-73,-75,92,-17,-68,0,0,-14,-19,-9
102,24,-78,-63,90,-26,-68,-14,-19,-34,-39,-24
82,-9,-92,-36,87,-51,-68,-14,-24,-43,-48,-34
53,-29,-82,-12,68,-56,-53,-9,-24,-43,-53,-43
24,-43,-68,9,46,-56,-43,0,-19,-43,-53,-53
4,-53,-58,24,31,-56,-34,0,-19,-48,-58,-63
0,-68,-68,34,34,-68,-39,0,-24,-58,-63,-73
-14,-92,-78,53,31,-85,-39,-4,-34,-68,-73,-87
-4,-102,-97,53,46,-100,-39,-14,-39,-73,-82,-92
4,-102,-107,48,56,-104,-39,-14,-39,-73,-82,-92
4,-92,-97,43,51,-95,-34,-14,-29,-73,-82,-87
0,-82,-82,41,41,-82,-29,-14,-24,-73,-87,-78
-4,-92,-87,48,41,-90,-24,-14,-24,-73,-87,-82
-4,-97,-92,51,43,-95,-24,-14,-24,-68,-87,-82
-19,-102,-82,61,31,-92,-29,-14,-29,-68,-92,-87
-29,-112,-82,70,26,-97,-34,-19,-34,-68,-97,-92
-24,-117,-92,70,34,-104,-34,-14,-39,-73,-102,-92
-24,-122,-97,73,36,-109,-34,-14,-43,-82,-107,-97
-24,-122,-97,73,36,-109,-34,-43,-68,-117,-122,-112
-24,-112,-87,68,31,-100,-14,0,-29,-92,-102,-117
-24,-97,-73,61,24,-85,48,136,107,24,-29,-82
-24,-63,-39,43,7,-51,141,341,283,170,68,-34
-73,-24,48,48,-61,12,292,663,561,366,180,-14
9,48,39,-29,-14,43,400,1102,985,722,453,156
258,175,-82,-217,170,46,424,1527,1478,1215,883,488
488,283,-204,-385,346,39,448,1859,1878,1615,1244,771
702,312,-390,-507,546,-39,507,2074,2044,1756,1410,932
976,273,-702,-624,839,-214,409,1956,1937,1712,1429,1019
1288,268,-1019,-778,1154,-375,4,1049,1327,1449,1351,1098
1337,585,-751,-961,1044,-82,-268,239,854,1337,1449,1322
1156,1180,24,-1168,566,602,-541,-536,522,1424,1771,1776
995,1327,331,-1161,331,829,-834,-1249,78,1273,1790,1927
678,1078,400,-878,139,739,-1044,-1893,-512,819,1420,1698
346,746,400,-546,-26,573,-1088,-2152,-917,346,932,1288
29,483,453,-256,-212,468,-1029,-2117,-1171,-146,356,722
-229,297,527,-34,-378,412,-878,-1927,-1307,-561,-170,165
-307,141,448,82,-378,295,-590,-1400,-1078,-605,-341,-92
-258,43,302,107,-280,173,-351,-941,-819,-575,-390,-190
-141,-53,87,97,-114,17,-209,-629,-600,-517,-390,-200
-102,-53,48,78,-75,-2,-131,-429,-429,-405,-331,-200
-117,-43,73,80,-95,14,-53,-283,-307,-287,-248,-180
-131,-58,73,95,-102,7,-4,-200,-248,-239,-219,-165
-117,-78,39,97,-78,-19,4,-170,-229,-239,-219,-165
-107,-87,19,97,-63,-34,4,-156,-200,-229,-219,-170
-122,-87,34,104,-78,-26,4,-136,-175,-200,-195,-170
-136,-87,48,112,-92,-19,14,-117,-161,-175,-180,-165
-136,-97,39,117,-87,-29,24,-97,-146,-175,-175,-156
-136,-97,39,117,-87,-29,29,-78,-131,-165,-165,-156
-117,-87,29,102,-73,-29,29,-73,-117,-151,-156,-151
-107,-73,34,90,-70,-19,34,-63,-112,-141,-151,-141
-102,-73,29,87,-65,-21,34,-53,-107,-141,-151,-141
-102,-78,24,90,-63,-26,39,-39,-97,-146,-151,-141
-107,-82,24,95,-65,-29,39,-39,-97,-141,-146,-136
-112,-82,29,97,-70,-26,39,-39,-92,-131,-136,-136
-112,-82,29,97,-70,-26,39,-34,-92,-131,-126,-126
-112,-78,34,95,-73,-21,39,-24,-87,-126,-117,-112
-107,-68,39,87,-73,-14,43,-19,-73,-107,-112,-107
-102,-63,39,82,-70,-12,43,-14,-63,-92,-102,-102
-102,-58,43,80,-73,-7,43,-9,-63,-87,-92,-97
-97,-53,43,75,-70,-4,43,-4,-58,-82,-87,-97
-97,-53,43,75,-70,-4,43,-9,-53,-78,-82,-87
-97,-48,48,73,-73,0,48,-9,-48,-73,-78,-87
-97,-48,48,73,-73,0,48,-4,-43,-68,-73,-82
-97,-43,53,70,-75,4,48,0,-43,-68,-68,-73
-102,-43,58,73,-80,7,53,14,-29,-63,-63,-63
-102,-34,68,68,-85,17,58,29,-29,-53,-53,-58
-102,-34,68,68,-85,17,63,29,-29,-53,-48,-58
-102,-29,73,65,-87,21,68,34,-29,-43,-43,-48
-102,-24,78,63,-90,26,68,29,-24,-34,-34,-43
-97,-14,82,56,-90,34,68,24,-14,-24,-29,-39
-97,-9,87,53,-92,39,68,34,-4,-19,-19,-39
-97,0,97,48,-97,48,68,43,4,-9,-14,-39
-97,4,102,46,-100,53,73,53,9,-4,-4,-24
-97,9,107,43,-102,58,78,63,14,0,0,-24
-97,14,112,41,-104,63,82,73,29,9,9,-14
-97,24,122,36,-109,73,82,78,34,14,14,-9
-97,39,136,29,-117,87,87,87,43,24,24,0
-97,53,151,21,-124,102,92,97,53,34,34,9
-97,58,156,19,-126,107,92,107,63,48,39,14
-102,68,170,17,-136,119,102,117,73,53,43,19
-107,68,175,19,-141,122,117,131,78,58,48,19
-112,68,180,21,-146,124,122,131,78,68,58,24
-112,73,185,19,-148,129,131,141,92,78,63,29
-112,82,195,14,-153,139,141,156,102,82,63,29
-117,87,204,14,-161,146,146,170,112,87,73,34
-126,97,224,14,-175,161,151,180,112,87,73,34
-131,107,239,12,-185,173,156,185,112,92,78,39
-141,117,258,12,-200,187,165,190,117,92,78,43
-146,126,273,9,-209,200,180,204,126,97,78,48
-156,131,287,12,-222,209,185,204,136,107,82,48
-161,141,302,9,-231,222,190,204,136,107,82,48
-175,146,322,14,-248,234,200,204,136,107,82,48
-190,156,346,17,-268,251,204,200,136,102,87,48
-200,161,361,19,-280,261,204,200,131,102,87,39
-214,175,390,19,-302,283,204,195,122,92,73,39
-229,180,409,24,-319,295,214,175,117,82,68,29
-229,185,414,21,-322,300,219,156,97,68,53,19
-239,185,424,26,-331,305,219,141,78,53,34,9
-253,190,444,31,-348,317,209,122,48,29,19,-9
-273,195,468,39,-370,331,200,82,19,4,4,-14
-278,195,473,41,-375,334,200,43,-14,-29,-14,-24
-283,190,473,46,-378,331,180,9,-58,-58,-39,-39
-307,170,478,68,-392,324,161,-24,-92,-82,-68,-58
-322,161,483,80,-402,322,136,-73,-131,-112,-92,-73
-326,136,463,95,-395,300,122,-126,-170,-151,-122,-92
-331,112,444,109,-387,278,97,-170,-200,-180,-156,-122
-331,92,424,119,-378,258,87,-185,-229,-209,-175,-146
-326,78,405,124,-366,241,73,-209,-244,-224,-195,-156
-312,68,380,122,-346,224,63,-229,-263,-239,-204,-161
-297,53,351,122,-324,202,58,-234,-268,-244,-214,-175
-283,34,317,124,-300,175,53,-239,-273,-258,-224,-185
-258,14,273,122,-265,143,39,-239,-278,-263,-234,-190
-229,-4,224,117,-226,109,34,-229,-268,-263,-234,-190
-204,-24,180,114,-192,78,24,-204,-239,-248,-234,-190
-180,-43,136,112,-158,46,14,-195,-224,-244,-219,-190
-156,-58,97,107,-126,19,9,-165,-204,-239,-214,-185
-136,-63,73,100,-104,4,4,-151,-195,-219,-204,-175
-112,-68,43,90,-78,-12,4,-131,-175,-200,-190,-161
-92,-68,24,80,-58,-21,0,-107,-151,-180,-175,-151
-73,-73,0,73,-36,-36,-4,-82,-126,-165,-170,-146
-53,-78,-24,65,-14,-51,-4,-58,-102,-141,-156,-131
-29,-78,-48,53,9,-63,-9,-53,-82,-126,-141,-122
-19,-73,-53,46,17,-63,-9,-39,-68,-117,-122,-112
-9,-73,-63,41,26,-68,-9,-19,-48,-97,-107,-102
-4,-73,-68,39,31,-70,-9,-9,-34,-78,-97,-97
0,-73,-73,36,36,-73,-9,0,-19,-63,-82,-92
4,-78,-82,36,43,-80,-14,9,-14,-58,-73,-87
4,-82,-87,39,46,-85,-24,9,-4,-53,-68,-82
9,-82,-92,36,51,-87,-24,19,-4,-39,-63,-73
14,-82,-97,34,56,-90,-24,19,0,-29,-58,-68
24,-68,-92,21,58,-80,-19,24,4,-29,-53,-68
29,-53,-82,12,56,-68,-19,29,9,-29,-48,-63
29,-53,-82,12,56,-68,-14,34,9,-24,-39,-58
24,-53,-78,14,51,-65,-9,39,14,-19,-39,-48
24,-58,-82,17,53,-70,-9,34,14,-19,-39,-48
24,-63,-87,19,56,-75,-9,34,14,-19,-39,-48
24,-63,-87,19,56,-75,-19,34,14,-19,-43,-48
24,-68,-92,21,58,-80,-24,34,14,-24,-43,-48
24,-63,-87,19,56,-75,-24,29,14,-29,-43,-48
24,-63,-87,19,56,-75,-24,24,14,-29,-43,-48
24,-63,-87,19,56,-75,-19,19,14,-24,-39,-48
19,-58,-78,19,48,-68,-19,19,9,-19,-39,-48
19,-53,-73,17,46,-63,-19,19,14,-19,-39,-48
19,-48,-68,14,43,-58,-19,19,19,-19,-39,-48
9,-48,-58,19,34,-53,-19,19,19,-24,-39,-53
9,-48,-58,19,34,-53,-24,14,14,-24,-39,-63
9,-53,-63,21,36,-58,-24,14,9,-29,-48,-63
4,-58,-63,26,34,-61,-19,14,0,-34,-53,-63
0,-58,-58,29,29,-58,-19,9,-4,-34,-53,-63
-4,-58,-53,31,24,-56,-19,9,-9,-39,-58,-68
0,-53,-53,26,26,-53,-14,14,-4,-34,-53,-63
4,-48,-53,21,29,-51,-9,14,0,-34,-53,-63
4,-48,-53,21,29,-51,-14,9,-4,-39,-53,-63
9,-48,-58,19,34,-53,-14,9,-4,-39,-53,-63
4,-53,-58,24,31,-56,-19,0,-4,-39,-58,-63
0,-58,-58,29,29,-58,-24,-9,-4,-39,-58,-63
0,-63,-63,31,31,-63,-24,-9,-9,-39,-58,-68
0,-73,-73,36,36,-73,-24,-4,-14,-43,-63,-73
0,-73,-73,36,36,-73,-24,0,-14,-43,-63,-73
0,-73,-73,36,36,-73,-24,4,-14,-43,-63,-73
0,-73,-73,36,36,-73,-19,0,-24,-48,-68,-68
4,-68,-73,31,39,-70,-14,0,-24,-48,-73,-63
4,-68,-73,31,39,-70,-14,-4,-24,-53,-73,-68
4,-68,-73,31,39,-70,-14,-4,-29,-63,-73,-68
0,-73,-73,36,36,-73,-19,-4,-29,-63,-78,-73
-4,-73,-68,39,31,-70,-19,-4,-29,-63,-78,-78
0,-73,-73,36,36,-73,-19,-9,-29,-63,-78,-78
0,-68,-68,34,34,-68,-19,-14,-29,-63,-78,-78
4,-68,-73,31,39,-70,-14,-9,-24,-58,-78,-73
4,-68,-73,31,39,-70,-14,-9,-24,-48,-73,-68
4,-73,-78,34,41,-75,-14,-9,-24,-48,-68,-68
0,-73,-73,36,36,-73,-19,-9,-24,-53,-63,-68
0,-73,-73,36,36,-73,-19,-9,-24,-53,-68,-68
0,-73,-73,36,36,-73,-19,-14,-29,-53,-68,-68
4,-73,-78,34,41,-75,-24,-9,-29,-53,-68,-68
4,-73,-78,34,41,-75,-24,-4,-24,-53,-68,-68
4,-73,-78,34,41,-75,-19,0,-24,-53,-68,-68
4,-73,-78,34,41,-75,-19,0,-24,-48,-63,-73
4,-73,-78,34,41,-75,-24,4,-24,-48,-63,-73
4,-73,-78,34,41,-75,-19,4,-19,-48,-63,-68
4,-73,-78,34,41,-75,-19,0,-19,-48,-68,-68
4,-73,-78,34,41,-75,-24,-4,-19,-48,-73,-63
4,-73,-78,34,41,-75,-24,-4,-19,-43,-73,-63
0,-73,-73,36,36,-73,-19,-9,-24,-43,-73,-63
0,-73,-73,36,36,-73,-19,-9,-29,-43,-73,-63
0,-73,-73,36,36,-73,-24,-9,-29,-43,-68,-63
0,-73,-73,36,36,-73,-24,-4,-29,-43,-68,-63
0,-73,-73,36,36,-73,-24,-4,-29,-43,-68,-63
0,-78,-78,39,39,-78,-19,-4,-24,-43,-68,-63
4,-78,-82,36,43,-80,-19,-4,-24,-43,-63,-68
9,-73,-82,31,46,-78,-19,-4,-24,-48,-63,-68
19,-73,-92,26,56,-82,-19,-4,-24,-48,-63,-73
19,-73,-92,26,56,-82,-19,-4,-24,-48,-63,-73
14,-68,-82,26,48,-75,-19,-4,-24,-48,-68,-73
14,-63,-78,24,46,-70,-19,0,-24,-48,-68,-73
14,-63,-78,24,46,-70,-19,4,-24,-48,-68,-73
9,-63,-73,26,41,-68,-19,4,-24,-48,-68,-73
9,-63,-73,26,41,-68,-19,4,-24,-43,-68,-73
9,-68,-78,29,43,-73,-24,0,-24,-43,-68,-73
4,-73,-78,34,41,-75,-29,0,-24,-43,-68,-73
4,-73,-78,34,41,-75,-29,0,-24,-48,-68,-68
4,-73,-78,34,41,-75,-29,0,-24,-48,-68,-63
9,-73,-82,31,46,-78,-24,0,-14,-43,-68,-63
14,-73,-87,29,51,-80,-19,0,-4,-39,-63,-63
14,-68,-82,26,48,-75,-19,0,-9,-43,-63,-68
14,-68,-82,26,48,-75,-19,0,-19,-48,-63,-73
9,-73,-82,31,46,-78,-19,0,-24,-48,-63,-73
9,-73,-82,31,46,-78,-24,-4,-24,-53,-63,-73
9,-73,-82,31,46,-78,-19,-4,-29,-48,-63,-68
9,-73,-82,31,46,-78,-9,-4,-24,-43,-58,-63
4,-68,-73,31,39,-70,-9,0,-19,-39,-58,-63
4,-68,-73,31,39,-70,-9,0,-19,-39,-58,-68
4,-68,-73,31,39,-70,-9,0,-19,-39,-58,-68
9,-68,-78,29,43,-73,-9,0,-19,-39,-58,-68
9,-68,-78,29,43,-73,-9,0,-19,-39,-58,-68
9,-68,-78,29,43,-73,-9,0,-19,-39,-58,-68
4,-68,-73,31,39,-70,-9,0,-19,-43,-58,-68
0,-68,-68,34,34,-68,-9,0,-19,-48,-58,-68
0,-68,-68,34,34,-68,-14,0,-19,-48,-63,-68
0,-68,-68,34,34,-68,-19,0,-19,-48,-68,-68
0,-68,-68,34,34,-68,-19,0,-19,-53,-68,-68
0,-68,-68,34,34,-68,-19,0,-19,-58,-68,-68
0,-68,-68,34,34,-68,-19,0,-19,-58,-68,-68
0,-68,-68,34,34,-68,-19,0,-19,-58,-68,-68
4,-68,-73,31,39,-70,-19,0,-19,-53,-68,-68
9,-68,-78,29,43,-73,-19,0,-19,-48,-68,-68
9,-68,-78,29,43,-73,-19,0,-19,-48,-68,-68
9,-68,-78,29,43,-73,-19,0,-19,-48,-68,-68
4,-68,-73,31,39,-70,-19,0,-24,-48,-68,-68
0,-68,-68,34,34,-68,-19,0,-29,-48,-68,-68
0,-68,-68,34,34,-68,-19,9,-34,-53,-68,-68
0,-68,-68,34,34,-68,-19,19,-39,-58,-68,-68
4,-63,-68,29,36,-65,-19,4,-39,-58,-68,-68
9,-58,-68,24,39,-63,-19,-9,-39,-58,-68,-68
9,-58,-68,24,39,-63,-19,-9,-29,-48,-63,-63
9,-58,-68,24,39,-63,-19,-9,-19,-39,-58,-58
9,-58,-68,24,39,-63,-19,-4,-19,-39,-58,-58
9,-58,-68,24,39,-63,-19,0,-19,-39,-58,-58
9,-58,-68,24,39,-63,-19,0,-24,-43,-58,-63
9,-58,-68,24,39,-63,-19,0,-29,-48,-58,-68
4,-68,-73,31,39,-70,-19,0,-29,-48,-58,-68
0,-78,-78,39,39,-78,-19,0,-29,-48,-58,-68
0,-78,-78,39,39,-78,-19,0,-29,-48,-58,-68
0,-78,-78,39,39,-78,-19,0,-29,-48,-58,-68
0,-73,-73,36,36,-73,-19,0,-29,-48,-63,-68
0,-68,-68,34,34,-68,-19,0,-29,-48,-68,-68
4,-68,-73,31,39,-70,-19,0,-24,-48,-68,-68
9,-68,-78,29,43,-73,-19,0,-19,-48,-68,-68
9,-63,-73,26,41,-68,-19,0,-14,-48,-68,-68
9,-58,-68,24,39,-63,-19,0,-9,-48,-68,-68
9,-58,-68,24,39,-63,-19,0,-9,-48,-68,-68
9,-58,-68,24,39,-63,-19,0,-9,-48,-68,-68
9,-63,-73,26,41,-68,-19,0,-14,-48,-68,-68
9,-68,-78,29,43,-73,-19,0,-19,-48,-68,-68
9,-68,-78,29,43,-73,-19,0,-19,-48,-68,-68
9,-68,-78,29,43,-73,-19,0,-19,-48,-68,-68
4,-68,-73,31,39,-70,-19,0,-19,-48,-68,-68
0,-68,-68,34,34,-68,-19,0,-19,-48,-68,-68
0,-68,-68,34,34,-68,-19,4,-14,-48,-68,-68
0,-68,-68,34,34,-68,-19,9,-9,-48,-68,-68
0,-68,-68,34,34,-68,-19,9,-9,-48,-68,-68
0,-68,-68,34,34,-68,-19,9,-9,-48,-68,-68
4,-68,-73,31,39,-70,-19,4,-14,-48,-68,-68
9,-68,-78,29,43,-73,-19,0,-19,-48,-68,-68
9,-68,-78,29,43,-73,-19,0,-19,-48,-68,-68
