I,II,III,aVR,aVL,aVF,V1,V2,V3,V4,V5,V6,
-312,-331,-19,322,-146,-175,322,117,322,946,-644,-2664
-297,-331,-34,314,-131,-183,307,107,292,936,-619,-2654
-283,-331,-48,307,-117,-190,292,97,263,927,-595,-2644
-258,-326,-68,292,-95,-197,258,73,239,927,-556,-2601
-234,-322,-87,278,-73,-204,224,48,214,927,-517,-2557
-200,-292,-92,246,-53,-192,190,43,190,932,-444,-2508
-165,-263,-97,214,-34,-180,156,39,165,936,-370,-2459
-126,-234,-107,180,-9,-170,126,39,151,966,-297,-2381
-87,-204,-117,146,14,-161,97,39,136,995,-224,-2303
-63,-175,-112,119,24,-143,73,19,117,1005,-170,-2244
-39,-146,-107,92,34,-126,48,0,97,1015,-117,-2186
-19,-131,-112,75,46,-122,14,-4,87,1029,-63,-2137
0,-117,-117,58,58,-117,-19,-9,78,1044,-9,-2088
19,-97,-117,39,68,-107,-29,-19,68,1044,19,-2064
39,-78,-117,19,78,-97,-39,-29,58,1044,48,-2039
58,-63,-122,2,90,-92,-39,-39,48,1049,73,-2015
78,-48,-126,-14,102,-87,-39,-48,39,1054,97,-1991
78,-43,-122,-17,100,-82,-53,-48,29,1063,112,-1976
78,-39,-117,-19,97,-78,-68,-48,19,1073,126,-1961
78,-29,-107,-24,92,-68,-78,-48,19,1073,131,-1947
78,-19,-97,-29,87,-58,-87,-48,19,1073,136,-1932
78,-14,-92,-31,85,-53,-78,-48,14,1073,136,-1932
78,-9,-87,-34,82,-48,-68,-48,9,1073,136,-1932
78,-4,-82,-36,80,-43,-68,-48,9,1078,141,-1917
78,0,-78,-39,78,-39,-68,-48,9,1083,146,-1903
82,0,-82,-41,82,-41,-78,-48,9,1083,151,-1912
87,0,-87,-43,87,-43,-87,-48,9,1083,156,-1922
87,-4,-92,-41,90,-48,-87,-48,9,1083,156,-1927
87,-9,-97,-39,92,-53,-87,-48,9,1083,156,-1932
82,-14,-97,-34,90,-56,-87,-48,9,1088,156,-1932
78,-19,-97,-29,87,-58,-87,-48,9,1093,156,-1932
78,-19,-97,-29,87,-58,-87,-39,9,1093,156,-1932
78,-19,-97,-29,87,-58,-87,-29,9,1093,156,-1932
78,-14,-92,-31,85,-53,-82,-29,9,1098,156,-1937
78,-9,-87,-34,82,-48,-78,-29,9,1102,156,-1942
78,-9,-87,-34,82,-48,-73,-29,9,1102,156,-1952
78,-9,-87,-34,82,-48,-68,-29,9,1102,156,-1961
73,-14,-87,-29,80,-51,-63,-29,9,1102,151,-1961
68,-19,-87,-24,78,-53,-58,-29,9,1102,146,-1961
68,-19,-87,-24,78,-53,-58,-29,9,1102,146,-1961
68,-19,-87,-24,78,-53,-58,-29,9,1102,146,-1961
68,-19,-87,-24,78,-53,-58,-29,9,1107,151,-1961
68,-19,-87,-24,78,-53,-58,-29,9,1112,156,-1961
68,-24,-92,-21,80,-58,-58,-24,14,1117,156,-1971
68,-29,-97,-19,82,-63,-58,-19,19,1122,156,-1981
68,-29,-97,-19,82,-63,-58,-19,19,1122,146,-1981
68,-29,-97,-19,82,-63,-58,-19,19,1122,136,-1981
63,-29,-92,-17,78,-61,-58,-19,19,1117,136,-1981
58,-29,-87,-14,73,-58,-58,-19,19,1112,136,-1981
58,-29,-87,-14,73,-58,-58,-19,19,1112,136,-1986
58,-29,-87,-14,73,-58,-58,-19,19,1112,136,-1991
58,-34,-92,-12,75,-63,-58,-19,19,1117,136,-1995
58,-39,-97,-9,78,-68,-58,-19,19,1122,136,-2000
58,-39,-97,-9,78,-68,-53,-19,19,1122,136,-2000
58,-39,-97,-9,78,-68,-48,-19,19,1122,136,-2000
58,-39,-97,-9,78,-68,-48,-19,14,1117,131,-2000
58,-39,-97,-9,78,-68,-48,-19,9,1112,126,-2000
58,-39,-97,-9,78,-68,-48,-19,9,1112,126,-2000
58,-39,-97,-9,78,-68,-48,-19,9,1112,126,-2000
53,-43,-97,-4,75,-70,-43,-19,9,1112,126,-2000
48,-48,-97,0,73,-73,-39,-19,9,1112,126,-2000
48,-48,-97,0,73,-73,-39,-19,9,1112,126,-2005
48,-48,-97,0,73,-73,-39,-19,9,1112,126,-2010
48,-48,-97,0,73,-73,-39,-19,4,1112,126,-2010
48,-48,-97,0,73,-73,-39,-19,0,1112,126,-2010
48,-48,-97,0,73,-73,-39,-19,-4,1112,122,-2010
48,-48,-97,0,73,-73,-39,-19,-9,1112,117,-2010
48,-48,-97,0,73,-73,-43,-14,-9,1112,117,-2005
48,-48,-97,0,73,-73,-48,-9,-9,1112,117,-2000
48,-48,-97,0,73,-73,-48,-4,-4,1112,122,-2000
48,-48,-97,0,73,-73,-48,0,0,1112,126,-2000
43,-48,-92,2,68,-70,-48,0,0,1112,126,-2005
39,-48,-87,4,63,-68,-48,0,0,1112,126,-2010
39,-48,-87,4,63,-68,-48,0,-4,1112,126,-2015
39,-48,-87,4,63,-68,-48,0,-9,1112,126,-2020
39,-48,-87,4,63,-68,-43,0,-9,1117,122,-2020
39,-48,-87,4,63,-68,-39,0,-9,1122,117,-2020
39,-43,-82,2,61,-63,-34,0,-4,1122,117,-2010
39,-39,-78,0,58,-58,-29,0,0,1122,117,-2000
39,-39,-78,0,58,-58,-29,-4,0,1122,117,-2000
39,-39,-78,0,58,-58,-29,-9,0,1122,117,-2000
39,-43,-82,2,61,-63,-29,-9,0,1122,117,-2005
39,-48,-87,4,63,-68,-29,-9,0,1122,117,-2010
34,-48,-82,7,58,-65,-29,-9,0,1122,117,-2010
29,-48,-78,9,53,-63,-29,-9,0,1122,117,-2010
29,-43,-73,7,51,-58,-29,-9,0,1122,117,-2010
29,-39,-68,4,48,-53,-29,-9,0,1122,117,-2010
29,-39,-68,4,48,-53,-29,-19,0,1122,117,-2010
29,-39,-68,4,48,-53,-29,-29,0,1122,117,-2010
29,-39,-68,4,48,-53,-19,-29,0,1122,112,-2010
29,-39,-68,4,48,-53,-9,-29,0,1122,107,-2010
29,-34,-63,2,46,-48,-9,-14,0,1122,107,-2010
29,-29,-58,0,43,-43,-9,0,0,1122,107,-2010
29,-24,-53,-2,41,-39,-9,0,0,1122,107,-2010
29,-19,-48,-4,39,-34,-9,0,0,1122,107,-2010
34,-14,-48,-9,41,-31,-9,4,9,1132,112,-2005
39,-9,-48,-14,43,-29,-9,9,19,1141,117,-2000
43,0,-43,-21,43,-21,-9,24,34,1156,136,-1995
48,9,-39,-29,43,-14,-9,39,48,1171,156,-1991
53,34,-19,-43,36,7,-29,39,63,1185,161,-1976
58,58,0,-58,29,29,-48,39,78,1200,165,-1961
78,78,0,-78,39,39,-58,39,87,1210,175,-1942
97,97,0,-97,48,48,-68,39,97,1220,185,-1922
107,97,-9,-102,58,43,-82,53,97,1229,185,-1922
117,97,-19,-107,68,39,-97,68,97,1239,185,-1922
107,82,-24,-95,65,29,-136,19,53,1210,180,-1922
97,68,-29,-82,63,19,-175,-29,9,1180,175,-1922
87,48,-39,-68,63,4,-175,-58,-14,1146,146,-1932
73,34,-39,-53,56,-2,-170,-82,-43,1117,122,-1937
63,19,-43,-41,53,-12,-170,-107,-73,1088,102,-1947
73,14,-58,-43,65,-21,-170,-112,-92,1078,102,-1961
63,4,-58,-34,61,-26,-185,-112,-87,1083,112,-1961
73,4,-68,-39,70,-31,-195,-126,-107,1068,107,-1971
73,9,-63,-41,68,-26,-195,-126,-102,1073,102,-1956
82,19,-63,-51,73,-21,-190,-126,-97,1078,102,-1947
122,29,-92,-75,107,-31,-180,-112,-87,1083,117,-1917
141,34,-107,-87,124,-36,-175,-97,-87,1083,117,-1912
141,48,-92,-95,117,-21,-161,-87,-73,1098,136,-1893
136,58,-78,-97,107,-9,-146,-73,-68,1107,146,-1888
122,78,-43,-100,82,17,-141,-58,-43,1127,151,-1893
97,68,-29,-82,63,19,-117,-58,-34,1127,146,-1912
53,43,-9,-48,31,17,-87,-43,-24,1127,146,-1917
4,-14,-19,4,12,-17,-53,-29,-24,1122,112,-1961
-14,-53,-39,34,12,-46,-34,-24,-24,1112,82,-1986
-19,-73,-53,46,17,-63,-19,-14,-24,1102,68,-2000
-19,-68,-48,43,14,-58,-9,-14,-24,1093,58,-2000
-24,-68,-43,46,9,-56,-9,-14,-24,1088,48,-2000
-19,-68,-48,43,14,-58,-9,-14,-24,1088,43,-2000
-19,-68,-48,43,14,-58,-4,-19,-19,1088,34,-2000
-14,-78,-63,46,24,-70,0,-14,-19,1088,34,-2000
-24,-78,-53,51,14,-65,9,-14,-9,1088,39,-2005
-29,-82,-53,56,12,-68,14,-9,-4,1088,43,-2005
-34,-82,-48,58,7,-65,19,-9,-4,1093,48,-2010
-34,-82,-48,58,7,-65,24,-9,-4,1093,48,-2015
-34,-82,-48,58,7,-65,29,-9,0,1093,43,-2020
-39,-82,-43,61,2,-63,29,-4,4,1098,39,-2020
-39,-82,-43,61,2,-63,29,-4,4,1098,34,-2020
-39,-87,-48,63,4,-68,34,0,4,1098,29,-2020
-39,-87,-48,63,4,-68,34,4,9,1098,29,-2020
-39,-87,-48,63,4,-68,39,4,9,1098,29,-2020
-39,-87,-48,63,4,-68,39,4,9,1098,29,-2015
-39,-92,-53,65,7,-73,34,4,14,1098,29,-2015
-39,-97,-58,68,9,-78,29,4,14,1093,19,-2010
-39,-92,-53,65,7,-73,24,4,14,1098,19,-2005
-39,-92,-53,65,7,-73,24,4,19,1102,19,-1995
-34,-87,-53,61,9,-70,19,4,19,1102,24,-1995
-29,-78,-48,53,9,-63,19,4,19,1102,24,-1995
-29,-78,-48,53,9,-63,19,4,14,1102,24,-1995
-29,-78,-48,53,9,-63,19,0,9,1098,24,-2000
-34,-78,-43,56,4,-61,24,0,14,1102,14,-2000
-48,-73,-24,61,-12,-48,39,0,14,1107,4,-2005
-73,-68,4,70,-39,-31,53,9,34,1107,4,-2030
-92,-58,34,75,-63,-12,68,-4,43,1107,4,-2034
-87,-9,78,48,-82,34,73,-19,48,1137,78,-1976
-48,112,161,-31,-104,136,14,-53,48,1229,336,-1747
68,361,292,-214,-112,326,-146,-78,92,1493,829,-1273
292,658,366,-475,-36,512,-385,-82,126,1771,1454,-697
507,844,336,-675,85,590,-644,-263,-312,1546,1766,-219
653,868,214,-761,219,541,-907,-717,-1288,624,1600,165
785,756,-29,-771,407,363,-1112,-1107,-2215,-312,1268,448
946,473,-473,-710,710,0,-1205,-1298,-2835,-1024,980,722
990,122,-868,-556,929,-373,-1176,-1385,-2976,-1332,780,790
829,-312,-1141,-258,985,-727,-961,-1385,-2801,-1249,688,536
639,-712,-1351,36,995,-1032,-605,-1166,-2376,-990,673,-29
380,-995,-1376,307,878,-1185,-209,-741,-1737,-492,453,-912
136,-985,-1122,424,629,-1054,73,-331,-1024,48,24,-1620
-39,-751,-712,395,336,-732,204,-53,-478,458,-385,-2039
-146,-473,-326,309,90,-400,287,107,-136,829,-366,-2259
-156,-283,-126,219,-14,-204,268,180,53,1083,-146,-2259
-131,-253,-122,192,-4,-187,234,195,136,1161,-97,-2259
-107,-244,-136,175,14,-190,185,195,156,1180,-68,-2230
-73,-209,-136,141,31,-173,146,156,126,1180,-53,-2191
-73,-175,-102,124,14,-139,141,126,126,1190,-63,-2205
-63,-175,-112,119,24,-143,136,117,151,1205,-68,-2210
-43,-165,-122,104,39,-143,126,112,161,1215,-63,-2210
-39,-161,-122,100,41,-141,112,112,151,1224,-63,-2196
-29,-141,-112,85,41,-126,102,102,146,1229,-63,-2191
-39,-136,-97,87,29,-117,102,102,161,1244,-58,-2181
-43,-136,-92,90,24,-114,92,102,170,1249,-48,-2171
-43,-131,-87,87,21,-109,87,107,170,1259,-48,-2171
-43,-126,-82,85,19,-104,87,112,170,1263,-43,-2171
-43,-122,-78,82,17,-100,87,122,180,1268,-34,-2186
-43,-122,-78,82,17,-100,78,122,185,1273,-34,-2200
-63,-122,-58,92,-2,-90,87,141,190,1288,-34,-2200
-87,-126,-39,107,-24,-82,97,151,200,1302,-34,-2200
-87,-122,-34,104,-26,-78,102,146,200,1307,-29,-2215
-87,-117,-29,102,-29,-73,107,136,200,1307,-24,-2225
-73,-117,-43,95,-14,-80,107,131,200,1317,-19,-2230
-63,-112,-48,87,-7,-80,102,126,195,1317,-19,-2239
-58,-112,-53,85,-2,-82,97,126,195,1302,-24,-2244
-48,-112,-63,80,7,-87,92,126,195,1317,-29,-2254
-29,-112,-82,70,26,-97,87,117,195,1317,-34,-2264
-9,-112,-102,61,46,-107,73,102,190,1312,-34,-2283
24,-102,-126,39,75,-114,68,87,180,1307,-43,-2283
39,-102,-141,31,90,-122,63,73,175,1298,-53,-2288
4,-102,-107,48,56,-104,63,82,185,1317,-43,-2274
-29,-97,-68,63,19,-82,63,82,185,1327,-34,-2259
-29,-102,-73,65,21,-87,63,87,190,1337,-34,-2274
-29,-102,-73,65,21,-87,68,92,195,1337,-34,-2293
-48,-102,-53,75,2,-78,73,102,200,1346,-29,-2278
-68,-102,-34,85,-17,-68,78,112,200,1351,-29,-2269
-112,-97,14,104,-63,-41,87,136,229,1381,4,-2225
-156,-97,58,126,-107,-19,87,165,253,1405,34,-2181
-126,-87,39,107,-82,-24,97,151,248,1400,24,-2220
-97,-87,9,92,-53,-39,97,126,239,1395,14,-2264
-87,-87,0,87,-43,-43,92,141,244,1400,14,-2264
-82,-87,-4,85,-39,-46,87,131,244,1400,9,-2269
-82,-82,0,82,-41,-41,82,126,244,1395,0,-2259
-78,-82,-4,80,-36,-43,78,126,239,1400,-14,-2259
-78,-82,-4,80,-36,-43,78,122,248,1400,-19,-2249
-78,-78,0,78,-39,-39,78,117,248,1405,-39,-2244
-97,-73,24,85,-61,-24,97,126,258,1420,-29,-2225
-107,-73,34,90,-70,-19,112,126,263,1420,-24,-2220
-97,-68,29,82,-63,-19,117,126,273,1424,-24,-2186
-92,-63,29,78,-61,-17,122,126,278,1429,-39,-2156
-78,-63,14,70,-46,-24,117,122,292,1434,-48,-2147
-73,-68,4,70,-39,-31,112,112,292,1434,-73,-2152
-102,-73,29,87,-65,-21,126,141,312,1449,-63,-2147
-141,-87,53,114,-97,-17,126,156,326,1459,-68,-2161
-141,-92,48,117,-95,-21,131,146,336,1459,-78,-2181
-156,-102,53,129,-104,-24,151,146,351,1459,-97,-2196
-161,-107,53,134,-107,-26,161,161,361,1459,-102,-2196
-161,-117,43,139,-102,-36,170,175,370,1468,-122,-2200
-190,-117,73,153,-131,-21,190,209,405,1483,-126,-2196
-224,-126,97,175,-161,-14,204,244,424,1498,-136,-2191
-239,-131,107,185,-173,-12,229,244,439,1503,-146,-2176
-253,-136,117,195,-185,-9,253,239,448,1503,-170,-2181
-278,-146,131,212,-204,-7,278,244,478,1493,-219,-2215
-326,-175,151,251,-239,-12,302,244,488,1483,-244,-2259
-307,-190,117,248,-212,-36,312,234,483,1473,-273,-2371
-297,-224,73,261,-185,-75,326,224,468,1454,-326,-2488
-370,-239,131,305,-251,-53,356,224,468,1454,-375,-2522
-444,-258,185,351,-314,-36,375,219,458,1420,-414,-2562
-424,-278,146,351,-285,-65,385,209,453,1395,-453,-2576
-395,-297,97,346,-246,-100,395,195,439,1376,-497,-2601
-400,-307,92,353,-246,-107,395,161,419,1351,-522,-2610
-400,-322,78,361,-239,-122,390,126,395,1327,-556,-2630
-424,-331,92,378,-258,-119,385,156,375,1307,-536,-2615
-444,-341,102,392,-273,-119,370,180,346,1302,-527,-2596
-409,-346,63,378,-236,-141,366,185,331,1298,-527,-2552
-385,-341,43,363,-214,-148,331,175,297,1283,-512,-2513
-356,-322,34,339,-195,-143,287,170,273,1273,-448,-2459
-322,-307,14,314,-168,-146,244,156,234,1273,-375,-2400
-263,-283,-19,273,-122,-151,224,131,219,1298,-307,-2337
-200,-253,-53,226,-73,-153,185,112,190,1302,-224,-2269
-170,-214,-43,192,-63,-129,131,102,175,1327,-146,-2196
-141,-185,-43,163,-48,-114,87,92,146,1342,-82,-2127
-141,-161,-19,151,-61,-90,73,87,141,1361,-14,-2049
-151,-146,4,148,-78,-70,58,82,126,1366,48,-1986
-122,-126,-4,124,-58,-65,29,68,112,1381,102,-1961
-107,-107,0,107,-53,-53,-4,53,97,1385,112,-1961
-73,-92,-19,82,-26,-56,-9,34,87,1395,141,-1942
-48,-73,-24,61,-12,-48,-24,14,68,1390,146,-1952
-19,-58,-39,39,9,-48,-29,14,63,1400,190,-1922
0,-39,-39,19,19,-39,-34,9,53,1405,219,-1898
-24,-29,-4,26,-9,-17,-29,29,58,1410,229,-1873
-58,-19,39,39,-48,9,-19,48,63,1415,239,-1849
-73,-14,58,43,-65,21,-14,43,68,1439,253,-1825
-87,-9,78,48,-82,34,-9,43,63,1444,268,-1805
-78,-9,68,43,-73,29,-9,39,63,1444,287,-1810
-63,-9,53,36,-58,21,-14,34,63,1444,302,-1820
-63,-9,53,36,-58,21,-24,29,63,1444,297,-1839
-63,-9,53,36,-58,21,-34,29,58,1444,297,-1849
-43,-4,39,24,-41,17,-43,24,48,1449,287,-1849
-24,-4,19,14,-21,7,-63,19,39,1439,273,-1869
-19,-9,9,14,-14,0,-58,9,29,1429,263,-1878
-19,-14,4,17,-12,-4,-63,-14,19,1420,253,-1888
-4,-14,-9,9,2,-12,-58,-29,19,1424,253,-1878
-4,-14,-9,9,2,-12,-58,-39,14,1424,248,-1869
-4,-19,-14,12,4,-17,-58,-34,14,1424,248,-1854
-4,-19,-14,12,4,-17,-58,-29,14,1424,248,-1844
4,-14,-19,4,12,-17,-58,-9,14,1439,268,-1844
14,-9,-24,-2,19,-17,-63,9,19,1444,258,-1844
-24,-9,14,17,-19,2,-58,19,29,1454,268,-1849
-68,-9,58,39,-63,24,-53,24,39,1464,278,-1854
-43,-9,34,26,-39,12,-48,19,34,1464,278,-1873
-19,-19,0,19,-9,-9,-39,9,24,1459,273,-1898
-24,-19,4,21,-14,-7,-39,4,24,1459,273,-1898
-24,-14,9,19,-17,-2,-39,0,24,1459,278,-1908
-53,-14,39,34,-46,12,-34,4,34,1464,278,-1878
-82,-19,63,51,-73,21,-34,4,43,1468,273,-1859
-87,-19,68,53,-78,24,-34,0,34,1473,283,-1878
-87,-19,68,53,-78,24,-34,-9,24,1473,287,-1917
-63,-24,39,43,-51,7,-34,0,19,1473,278,-1927
-43,-24,19,34,-31,-2,-34,9,14,1468,268,-1942
-34,-14,19,24,-26,2,-29,9,14,1468,268,-1908
-24,-9,14,17,-19,2,-29,9,4,1468,268,-1873
-73,-9,63,41,-68,26,-14,9,14,1468,283,-1878
-112,-9,102,61,-107,46,0,9,14,1468,287,-1888
-78,-9,68,43,-73,29,-14,9,4,1464,278,-1917
-43,-19,24,31,-34,2,-29,4,-9,1459,268,-1952
-34,-19,14,26,-24,-2,-48,4,-9,1459,263,-1947
-24,-19,4,21,-14,-7,-63,-4,-14,1459,263,-1932
-39,-19,19,29,-29,0,-53,-9,-14,1459,263,-1917
-53,-19,34,36,-43,7,-48,-9,-14,1459,253,-1903
-63,-19,43,41,-53,12,-43,-9,-14,1459,248,-1912
-53,-24,29,39,-41,2,-39,-4,-19,1454,248,-1932
-53,-24,29,39,-41,2,-34,0,-19,1454,248,-1932
-53,-24,29,39,-41,2,-34,4,-19,1449,248,-1937
-29,-24,4,26,-17,-9,-39,4,-19,1449,248,-1937
-4,-24,-19,14,7,-21,-43,0,-19,1444,239,-1937
-19,-24,-4,21,-7,-14,-43,0,-24,1444,244,-1922
-39,-24,14,31,-26,-4,-43,0,-29,1444,248,-1898
-39,-24,14,31,-26,-4,-48,-4,-29,1444,248,-1898
-53,-24,29,39,-41,2,-53,-4,-29,1444,253,-1898
-43,-29,14,36,-29,-7,-53,-14,-34,1449,248,-1893
-29,-34,-4,31,-12,-19,-58,-24,-39,1444,244,-1893
-29,-34,-4,31,-12,-19,-58,-34,-39,1444,239,-1893
-29,-34,-4,31,-12,-19,-58,-53,-43,1439,224,-1893
-29,-29,0,29,-14,-14,-53,-53,-43,1439,224,-1888
-34,-24,9,29,-21,-7,-48,-48,-43,1429,224,-1888
-43,-19,24,31,-34,2,-48,-29,-34,1444,234,-1878
-53,-19,34,36,-43,7,-43,-9,-24,1449,244,-1873
-58,-19,39,39,-48,9,-43,-9,-24,1449,244,-1873
-58,-19,39,39,-48,9,-43,-9,-24,1444,244,-1873
-43,-24,19,34,-31,-2,-43,-19,-24,1444,239,-1859
-48,-24,24,36,-36,0,-43,-29,-24,1444,234,-1849
-39,-19,19,29,-29,0,-43,-19,-29,1444,229,-1854
-34,-19,14,26,-24,-2,-39,-4,-34,1439,224,-1864
-24,-19,4,21,-14,-7,-48,-4,-34,1434,209,-1878
-14,-19,-4,17,-4,-12,-58,-4,-34,1424,200,-1893
-9,-24,-14,17,2,-19,-58,-9,-34,1424,200,-1893
0,-29,-29,14,14,-29,-58,-19,-34,1420,190,-1893
-24,-34,-9,29,-7,-21,-53,-19,-29,1424,214,-1888
-43,-43,0,43,-21,-21,-48,-14,-29,1429,229,-1888
-19,-29,-9,24,-4,-19,-43,-19,-29,1429,219,-1898
4,-19,-24,7,14,-21,-43,-24,-29,1429,214,-1903
9,-9,-19,0,14,-14,-39,-14,-19,1449,229,-1873
9,-4,-14,-2,12,-9,-39,-14,-9,1459,239,-1854
-4,24,29,-9,-17,26,-39,0,9,1483,239,-1844
-14,43,58,-14,-36,51,-48,9,29,1488,244,-1820
39,53,14,-46,12,34,-63,24,48,1498,268,-1810
97,82,-14,-90,56,34,-82,14,48,1507,273,-1805
87,92,4,-90,41,48,-92,19,58,1522,278,-1810
78,107,29,-92,24,68,-102,24,68,1542,287,-1815
102,102,0,-102,51,51,-122,19,48,1532,278,-1815
126,97,-29,-112,78,34,-146,19,29,1522,273,-1815
102,73,-29,-87,65,21,-175,-19,-9,1493,253,-1805
78,48,-29,-63,53,9,-204,-58,-48,1464,234,-1795
68,39,-29,-53,48,4,-204,-78,-68,1444,214,-1781
58,24,-34,-41,46,-4,-209,-97,-87,1420,195,-1781
53,14,-39,-34,46,-12,-214,-122,-112,1400,175,-1786
43,4,-39,-24,41,-17,-214,-122,-112,1395,170,-1786
58,0,-58,-29,58,-29,-214,-136,-131,1376,156,-1800
63,-4,-68,-29,65,-36,-214,-136,-126,1381,151,-1790
87,0,-87,-43,87,-43,-209,-126,-126,1390,156,-1781
131,9,-122,-70,126,-56,-200,-102,-117,1405,175,-1751
131,14,-117,-73,124,-51,-190,-87,-117,1405,175,-1742
131,29,-102,-80,117,-36,-180,-78,-102,1420,195,-1717
136,39,-97,-87,117,-29,-170,-73,-97,1424,195,-1712
136,68,-68,-102,102,0,-161,-68,-73,1439,195,-1698
126,53,-73,-90,100,-9,-136,-73,-63,1434,185,-1703
82,24,-58,-53,70,-17,-107,-68,-53,1429,175,-1712
34,-24,-58,-4,46,-41,-82,-58,-58,1424,141,-1756
4,-73,-78,34,41,-75,-68,-53,-63,1415,112,-1790
-4,-102,-97,53,46,-100,-48,-43,-63,1405,97,-1815
0,-102,-102,51,51,-102,-34,-43,-63,1395,87,-1815
0,-102,-102,51,51,-102,-29,-43,-63,1395,78,-1810
4,-97,-102,46,53,-100,-29,-39,-63,1400,78,-1805
0,-97,-97,48,48,-97,-24,-39,-58,1400,73,-1800
0,-107,-107,53,53,-107,-19,-34,-58,1400,73,-1790
-14,-107,-92,61,39,-100,-9,-34,-48,1400,78,-1790
-19,-112,-92,65,36,-102,-4,-29,-43,1400,78,-1790
-9,-112,-102,61,46,-107,0,-29,-43,1405,78,-1795
4,-112,-117,53,61,-114,4,-24,-43,1405,78,-1795
-14,-112,-97,63,41,-104,19,-19,-39,1410,73,-1795
-39,-112,-73,75,17,-92,29,-14,-34,1415,68,-1795
-39,-112,-73,75,17,-92,19,-19,-34,1410,53,-1795
-39,-117,-78,78,19,-97,14,-24,-34,1410,39,-1795
-34,-117,-82,75,24,-100,14,-24,-29,1410,34,-1790
-29,-117,-87,73,29,-102,19,-24,-29,1410,29,-1786
-24,-117,-92,70,34,-104,24,-24,-29,1410,24,-1776
-19,-117,-97,68,39,-107,29,-24,-24,1410,19,-1771
-9,-117,-107,63,48,-112,29,-29,-29,1405,9,-1766
0,-112,-112,56,56,-112,24,-34,-34,1405,9,-1761
0,-112,-112,56,56,-112,24,-34,-29,1405,4,-1751
4,-112,-117,53,61,-114,19,-34,-29,1405,4,-1751
4,-107,-112,51,58,-109,14,-34,-24,1405,4,-1751
0,-107,-107,53,53,-107,9,-34,-19,1405,4,-1747
0,-107,-107,53,53,-107,9,-34,-19,1400,4,-1742
0,-107,-107,53,53,-107,9,-29,-14,1400,-4,-1737
-9,-102,-92,56,41,-97,14,-19,-14,1405,-14,-1742
-34,-97,-63,65,14,-80,24,0,4,1410,-14,-1761
-43,-97,-53,70,4,-75,39,-14,14,1410,-19,-1761
-34,-63,-29,48,-2,-46,39,-29,19,1439,48,-1703
-29,53,82,-12,-56,68,-9,-63,29,1542,307,-1464
58,297,239,-178,-90,268,-156,-87,68,1790,800,-980
292,600,307,-446,-7,453,-395,-92,141,2103,1473,-375
517,795,278,-656,119,536,-653,-273,-224,1961,1834,131
668,819,151,-744,258,485,-922,-761,-1224,976,1590,478
805,722,-82,-763,444,319,-1127,-1190,-2191,-48,1180,727
966,453,-512,-710,739,-29,-1220,-1385,-2835,-800,800,976
1015,102,-912,-558,963,-405,-1190,-1473,-3006,-1141,507,1024
858,-341,-1200,-258,1029,-771,-971,-1473,-2845,-1034,439,844
668,-741,-1410,36,1039,-1076,-614,-1239,-2435,-751,458,341
409,-1034,-1444,312,927,-1239,-219,-785,-1795,-239,292,-575
161,-1044,-1205,441,683,-1124,58,-361,-1083,312,-78,-1312
-19,-795,-775,407,378,-785,185,-73,-522,746,-444,-1727
-126,-507,-380,317,126,-444,263,87,-175,1117,-414,-1947
-131,-317,-185,224,26,-251,239,161,4,1351,-200,-1947
-97,-283,-185,190,43,-234,204,185,87,1434,-136,-1956
-53,-273,-219,163,82,-246,156,175,107,1454,-107,-1927
-4,-239,-234,122,114,-236,117,126,78,1454,-92,-1864
-14,-204,-190,109,87,-197,112,87,78,1464,-92,-1864
-34,-204,-170,119,68,-187,112,78,102,1483,-82,-1869
-34,-190,-156,112,61,-173,107,82,112,1498,-73,-1839
-29,-180,-151,104,61,-165,97,82,112,1507,-73,-1795
-4,-161,-156,82,75,-158,82,63,112,1507,-78,-1825
9,-156,-165,73,87,-161,73,53,112,1512,-82,-1859
14,-161,-175,73,95,-168,63,43,112,1512,-78,-1849
14,-161,-175,73,95,-168,58,34,112,1522,-78,-1839
-53,-161,-107,107,26,-134,58,63,126,1542,-53,-1805
-122,-161,-39,141,-41,-100,58,92,146,1561,-24,-1771
-73,-161,-87,117,7,-124,48,97,146,1566,-39,-1839
-19,-156,-136,87,58,-146,48,122,146,1566,-53,-1908
-19,-146,-126,82,53,-136,48,112,146,1561,-63,-1908
-19,-131,-112,75,46,-122,48,107,141,1561,-73,-1912
-4,-126,-122,65,58,-124,53,97,136,1561,-73,-1903
14,-126,-141,56,78,-134,58,82,136,1571,-68,-1888
-19,-122,-102,70,41,-112,53,78,136,1571,-63,-1869
-53,-122,-68,87,7,-95,53,78,136,1571,-58,-1844
-48,-122,-73,85,12,-97,58,78,141,1600,-48,-1820
-48,-122,-73,85,12,-97,63,78,151,1605,-39,-1795
-39,-117,-78,78,19,-97,53,73,151,1605,-34,-1800
-19,-102,-82,61,31,-92,53,73,146,1610,-34,-1795
-58,-102,-43,80,-7,-73,53,73,146,1610,-19,-1786
-87,-102,-14,95,-36,-58,53,73,156,1620,-4,-1771
-68,-112,-43,90,-12,-78,53,63,156,1620,-4,-1786
-48,-126,-78,87,14,-102,48,63,156,1629,-4,-1800
-48,-122,-73,85,12,-97,48,63,156,1629,-4,-1844
-48,-122,-73,85,12,-97,48,63,161,1634,0,-1883
-48,-122,-73,85,12,-97,48,68,165,1634,-4,-1888
-48,-117,-68,82,9,-92,48,68,175,1639,-14,-1888
-53,-117,-63,85,4,-90,39,68,180,1639,-24,-1864
-58,-107,-48,82,-4,-78,48,78,190,1644,-24,-1839
-78,-107,-29,92,-24,-68,48,78,190,1649,-24,-1834
-97,-107,-9,102,-43,-58,48,92,200,1654,-19,-1825
-73,-102,-29,87,-21,-65,48,78,204,1654,-19,-1839
-48,-92,-43,70,-2,-68,48,68,209,1654,-19,-1849
-34,-87,-53,61,9,-70,48,68,209,1664,-24,-1873
-19,-82,-63,51,21,-73,48,68,219,1664,-29,-1888
-73,-78,-4,75,-34,-41,63,87,234,1673,-43,-1873
-136,-78,58,107,-97,-9,87,117,258,1693,-29,-1854
-112,-82,29,97,-70,-26,78,102,253,1693,-19,-1869
-87,-82,4,85,-46,-39,68,87,253,1693,-14,-1869
-102,-82,19,92,-61,-31,68,87,258,1698,-29,-1883
-112,-82,29,97,-70,-26,68,92,273,1708,-29,-1893
-136,-97,39,117,-87,-29,73,107,273,1708,-43,-1908
-156,-107,48,131,-102,-29,87,136,292,1717,-43,-1908
-141,-117,24,129,-82,-46,92,136,307,1722,-68,-1922
-112,-117,-4,114,-53,-61,102,136,317,1722,-87,-1937
-141,-117,24,129,-82,-46,126,141,336,1732,-87,-1952
-170,-117,53,143,-112,-31,141,151,351,1742,-73,-1976
-180,-122,58,151,-119,-31,151,161,361,1751,-92,-2000
-195,-122,73,158,-134,-24,170,156,380,1751,-107,-2025
-190,-126,63,158,-126,-31,185,156,380,1751,-146,-2044
-180,-126,53,153,-117,-36,200,165,390,1747,-185,-2059
-209,-136,73,173,-141,-31,214,170,400,1747,-200,-2078
-234,-146,87,190,-161,-29,239,175,419,1747,-229,-2088
-283,-185,97,234,-190,-43,273,175,424,1747,-253,-2171
-302,-209,92,256,-197,-58,292,175,439,1747,-278,-2249
-283,-244,39,263,-161,-102,287,175,439,1727,-331,-2327
-263,-258,4,261,-134,-126,287,180,439,1727,-385,-2396
-302,-278,24,290,-163,-126,307,190,434,1693,-424,-2415
-341,-297,43,319,-192,-126,326,200,434,1673,-453,-2415
-366,-317,48,341,-207,-134,341,204,419,1668,-473,-2420
-390,-326,63,358,-226,-131,346,200,400,1654,-473,-2415
-380,-341,39,361,-209,-151,341,170,375,1620,-527,-2454
-366,-351,14,358,-190,-168,336,146,346,1581,-556,-2464
-326,-361,-34,344,-146,-197,317,126,302,1561,-575,-2498
-273,-361,-87,317,-92,-224,297,117,283,1551,-585,-2493
-302,-351,-48,326,-126,-200,253,97,248,1537,-561,-2425
-317,-331,-14,324,-151,-173,229,92,229,1537,-488,-2337
-292,-317,-24,305,-134,-170,204,78,204,1537,-414,-2274
-268,-292,-24,280,-122,-158,185,63,200,1561,-356,-2210
-175,-258,-82,217,-46,-170,126,43,151,1556,-297,-2142
-92,-219,-126,156,17,-173,63,24,117,1561,-234,-2069
-87,-195,-107,141,9,-151,43,14,87,1576,-156,-1976
-82,-170,-87,126,2,-129,29,9,82,1595,-87,-1888
-92,-151,-58,122,-17,-104,14,4,78,1600,-39,-1820
-92,-126,-34,109,-29,-80,14,-9,73,1615,24,-1747
-53,-107,-53,80,0,-80,-14,-48,43,1615,34,-1732
-14,-92,-78,53,31,-85,-29,-82,24,1625,53,-1708
-9,-73,-63,41,26,-68,-43,-78,9,1625,68,-1688
4,-63,-68,29,36,-65,-53,-63,4,1634,107,-1649
-14,-43,-29,29,7,-36,-63,-53,0,1644,131,-1610
-29,-34,-4,31,-12,-19,-68,-39,4,1649,146,-1581
-19,-19,0,19,-9,-9,-63,-39,9,1649,151,-1566
-4,-4,0,4,-2,-2,-63,-43,14,1659,165,-1561
0,-9,-9,4,4,-9,-63,-43,4,1654,180,-1571
0,-19,-19,9,9,-19,-58,-43,4,1659,185,-1576
19,-24,-43,2,31,-34,-63,-48,4,1659,185,-1576
34,-29,-63,-2,48,-46,-63,-53,4,1659,180,-1576
43,-29,-73,-7,58,-51,-78,-53,-4,1644,170,-1566
53,-24,-78,-14,65,-51,-92,-58,-9,1644,165,-1556
43,-19,-63,-12,53,-41,-102,-73,-9,1644,156,-1551
29,-14,-43,-7,36,-29,-92,-87,-9,1644,146,-1537
19,-14,-34,-2,26,-24,-87,-102,-9,1644,156,-1537
34,-14,-48,-9,41,-31,-78,-102,-4,1649,165,-1537
34,-14,-48,-9,41,-31,-78,-92,-4,1654,161,-1542
34,-19,-53,-7,43,-36,-78,-82,-4,1659,161,-1542
34,-19,-53,-7,43,-36,-87,-53,-4,1659,161,-1542
34,-19,-53,-7,43,-36,-97,-24,-4,1668,175,-1542
29,-19,-48,-4,39,-34,-102,-19,4,1668,161,-1522
24,-19,-43,-2,34,-31,-102,-14,9,1668,161,-1503
19,-19,-39,0,29,-29,-97,-14,9,1673,161,-1503
19,-19,-39,0,29,-29,-87,-19,14,1678,161,-1503
34,-24,-58,-4,46,-41,-78,-39,14,1673,146,-1503
43,-19,-63,-12,53,-41,-78,-48,14,1673,136,-1498
43,-14,-58,-14,51,-36,-78,-48,14,1673,141,-1507
43,-14,-58,-14,51,-36,-73,-43,14,1673,141,-1498
39,-19,-58,-9,48,-39,-73,-43,14,1673,136,-1488
29,-19,-48,-4,39,-34,-73,-39,14,1678,136,-1468
29,-19,-48,-4,39,-34,-73,-39,14,1678,122,-1478
29,-24,-53,-2,41,-39,-73,-39,14,1678,112,-1478
24,-24,-48,0,36,-36,-78,-39,14,1668,107,-1488
24,-24,-48,0,36,-36,-78,-39,14,1664,102,-1493
34,-29,-63,-2,48,-46,-78,-53,0,1664,97,-1493
34,-29,-63,-2,48,-46,-78,-68,4,1664,92,-1488
34,-29,-63,-2,48,-46,-78,-68,4,1659,78,-1483
34,-29,-63,-2,48,-46,-78,-63,4,1654,73,-1473
39,-39,-78,0,58,-58,-78,-43,4,1654,73,-1468
43,-39,-82,-2,63,-61,-78,-24,9,1654,68,-1473
43,-43,-87,0,65,-65,-73,-43,4,1654,68,-1473
43,-48,-92,2,68,-70,-73,-53,4,1654,68,-1473
53,-48,-102,-2,78,-75,-78,-68,0,1654,48,-1473
53,-48,-102,-2,78,-75,-78,-87,-4,1654,39,-1464
53,-48,-102,-2,78,-75,-78,-63,-9,1654,43,-1464
43,-43,-87,0,65,-65,-73,-43,-9,1659,43,-1464
34,-43,-78,4,56,-61,-73,-34,-9,1659,43,-1459
24,-43,-68,9,46,-56,-73,-24,-9,1664,43,-1449
24,-43,-68,9,46,-56,-73,-39,-9,1659,24,-1449
24,-43,-68,9,46,-56,-73,-48,-14,1659,14,-1449
34,-43,-78,4,56,-61,-73,-58,-19,1654,9,-1439
48,-43,-92,-2,70,-68,-73,-73,-19,1649,4,-1439
39,-43,-82,2,61,-63,-73,-73,-19,1644,9,-1444
43,-43,-87,0,65,-65,-68,-73,-19,1649,9,-1444
53,-43,-97,-4,75,-70,-63,-73,-19,1649,4,-1444
58,-43,-102,-7,80,-73,-58,-73,-19,1649,0,-1444
58,-43,-102,-7,80,-73,-58,-78,-24,1644,-9,-1439
63,-43,-107,-9,85,-75,-58,-73,-24,1644,-9,-1429
58,-43,-102,-7,80,-73,-63,-63,-24,1634,-9,-1429
53,-43,-97,-4,75,-70,-68,-58,-24,1644,-9,-1420
53,-48,-102,-2,78,-75,-63,-58,-24,1644,-4,-1415
48,-48,-97,0,73,-73,-63,-58,-24,1644,0,-1415
48,-48,-97,0,73,-73,-63,-48,-24,1644,4,-1415
58,-48,-107,-4,82,-78,-63,-39,-24,1649,9,-1410
48,-43,-92,-2,70,-68,-58,-39,-24,1649,14,-1410
48,-39,-87,-4,68,-63,-53,-39,-24,1654,19,-1405
43,-34,-78,-4,61,-56,-48,-24,-19,1654,24,-1400
43,-29,-73,-7,58,-51,-48,-14,-14,1654,24,-1395
48,-24,-73,-12,61,-48,-48,-14,-9,1659,29,-1390
48,-19,-68,-14,58,-43,-48,-9,-4,1668,34,-1385
53,-14,-68,-19,61,-41,-48,-9,-4,1668,24,-1385
58,-4,-63,-26,61,-34,-48,-9,0,1673,34,-1381
73,4,-68,-39,70,-31,-58,-4,9,1683,43,-1371
82,19,-63,-51,73,-21,-63,-4,24,1693,58,-1361
82,39,-43,-61,63,-2,-73,-4,34,1703,73,-1346
87,73,-14,-80,51,29,-87,4,53,1722,82,-1322
102,78,-24,-90,63,26,-97,9,63,1732,87,-1307
117,87,-29,-102,73,29,-107,19,78,1747,97,-1298
117,87,-29,-102,73,29,-141,-4,48,1732,97,-1288
117,87,-29,-102,73,29,-175,-29,19,1717,97,-1278
117,68,-48,-92,82,9,-180,-53,-24,1698,92,-1278
102,48,-53,-75,78,-2,-185,-82,-58,1668,78,-1278
92,29,-63,-61,78,-17,-190,-117,-92,1644,63,-1283
92,14,-78,-53,85,-31,-200,-141,-102,1625,53,-1298
82,9,-73,-46,78,-31,-204,-146,-102,1620,53,-1293
92,14,-78,-53,85,-31,-204,-165,-126,1595,39,-1298
87,14,-73,-51,80,-29,-204,-165,-131,1590,24,-1268
92,19,-73,-56,82,-26,-200,-165,-136,1586,14,-1244
122,29,-92,-75,107,-31,-190,-161,-126,1590,43,-1224
131,34,-97,-82,114,-31,-185,-156,-126,1590,58,-1229
141,48,-92,-95,117,-21,-180,-146,-117,1605,87,-1224
146,58,-87,-102,117,-14,-175,-131,-117,1615,107,-1234
151,87,-63,-119,107,12,-170,-102,-92,1639,117,-1220
146,87,-58,-117,102,14,-146,-87,-82,1644,117,-1220
107,68,-39,-87,73,14,-117,-92,-73,1644,117,-1215
63,14,-48,-39,56,-17,-82,-97,-73,1639,82,-1249
34,-34,-68,0,51,-51,-58,-82,-73,1629,53,-1298
19,-63,-82,21,51,-73,-39,-63,-73,1620,39,-1337
19,-63,-82,21,51,-73,-24,-48,-73,1610,34,-1322
14,-68,-82,26,48,-75,-19,-34,-73,1605,29,-1307
14,-68,-82,26,48,-75,-19,-24,-73,1610,34,-1298
9,-68,-78,29,43,-73,-14,-19,-68,1615,34,-1288
9,-82,-92,36,51,-87,-9,-14,-73,1615,34,-1283
-4,-87,-82,46,39,-85,0,-14,-68,1615,39,-1283
-9,-92,-82,51,36,-87,4,-19,-63,1615,39,-1283
-14,-92,-78,53,31,-85,9,-29,-63,1620,39,-1288
-19,-92,-73,56,26,-82,19,-29,-58,1620,43,-1288
-24,-92,-68,58,21,-80,29,-29,-48,1620,43,-1288
-29,-92,-63,61,17,-78,29,-24,-43,1620,39,-1283
-29,-92,-63,61,17,-78,29,-24,-43,1615,34,-1278
-24,-92,-68,58,21,-80,29,-24,-48,1615,29,-1273
-19,-87,-68,53,24,-78,24,-24,-48,1615,29,-1268
-19,-87,-68,53,24,-78,24,-24,-48,1615,24,-1268
-19,-87,-68,53,24,-78,19,-24,-48,1615,19,-1263
-24,-87,-63,56,19,-75,19,-24,-43,1620,19,-1263
-29,-87,-58,58,14,-73,19,-24,-43,1620,9,-1259
-29,-82,-53,56,12,-68,19,-24,-43,1620,9,-1249
-29,-82,-53,56,12,-68,24,-24,-39,1620,9,-1234
-24,-87,-63,56,19,-75,19,-24,-34,1620,14,-1229
-19,-87,-68,53,24,-78,19,-24,-29,1620,14,-1224
-19,-87,-68,53,24,-78,19,-24,-29,1620,14,-1220
-19,-87,-68,53,24,-78,19,-29,-29,1615,14,-1220
-14,-82,-68,48,26,-75,19,-39,-24,1615,4,-1229
-19,-73,-53,46,17,-63,29,-48,-24,1615,-4,-1244
-43,-58,-14,51,-14,-36,43,-39,-4,1625,29,-1244
-63,-39,24,51,-43,-7,58,-53,4,1634,63,-1224
-29,73,102,-21,-65,87,-4,-48,9,1727,278,-1058
39,258,219,-148,-90,239,-131,-63,9,1883,678,-722
156,517,361,-336,-102,439,-317,-136,-73,2005,1132,-234
380,824,444,-602,-31,634,-580,-190,-165,2142,1717,356
541,971,429,-756,56,700,-790,-395,-653,1805,1922,805
634,956,322,-795,156,639,-1005,-873,-1678,771,1649,1161
697,805,107,-751,295,456,-1112,-1195,-2381,-4,1342,1400
790,483,-307,-636,549,87,-1107,-1317,-2776,-556,1078,1629
780,102,-678,-441,729,-287,-990,-1293,-2781,-717,888,1571
566,-361,-927,-102,746,-644,-688,-1180,-2469,-488,805,1190
409,-702,-1112,146,761,-907,-375,-917,-2010,-195,692,610
185,-927,-1112,370,649,-1019,-24,-448,-1337,336,375,-287
9,-883,-893,436,451,-888,170,-151,-756,834,34,-927
-97,-614,-517,356,209,-566,214,14,-341,1200,-287,-1278
-161,-409,-248,285,43,-329,273,131,-78,1459,-287,-1464
-126,-292,-165,209,19,-229,229,161,34,1600,-87,-1429
-97,-248,-151,173,26,-200,195,136,92,1673,-48,-1424
-68,-224,-156,146,43,-190,146,97,87,1688,-29,-1390
-43,-200,-156,122,56,-178,107,87,68,1688,-19,-1356
-53,-175,-122,114,34,-148,102,87,78,1698,-34,-1376
-63,-175,-112,119,24,-143,107,87,102,1717,-34,-1366
-63,-165,-102,114,19,-134,107,92,112,1732,-24,-1351
-58,-161,-102,109,21,-131,97,102,107,1742,-29,-1351
-48,-141,-92,95,21,-117,92,102,107,1747,-34,-1361
-48,-136,-87,92,19,-112,87,107,112,1756,-34,-1351
-43,-136,-92,90,24,-114,73,112,112,1756,-29,-1342
-43,-131,-87,87,21,-109,68,112,117,1766,-29,-1342
-43,-126,-82,85,19,-104,68,112,122,1771,-24,-1342
-43,-122,-78,82,17,-100,68,112,126,1771,-19,-1342
-43,-122,-78,82,17,-100,58,102,126,1771,-24,-1342
-39,-117,-78,78,19,-97,68,102,117,1771,-24,-1342
-39,-117,-78,78,19,-97,78,92,112,1771,-24,-1342
-43,-117,-73,80,14,-95,78,92,112,1781,-19,-1346
-48,-117,-68,82,9,-92,78,87,112,1786,-14,-1346
-43,-117,-73,80,14,-95,78,82,117,1795,-9,-1346
-43,-112,-68,78,12,-90,73,78,117,1795,-9,-1351
-43,-112,-68,78,12,-90,73,78,117,1786,-9,-1356
-39,-112,-73,75,17,-92,73,78,117,1805,-9,-1366
-39,-112,-73,75,17,-92,73,78,126,1810,-9,-1366
-39,-112,-73,75,17,-92,63,73,131,1810,-4,-1376
-29,-102,-73,65,21,-87,58,73,126,1810,-9,-1361
-39,-102,-63,70,12,-82,53,73,126,1805,-14,-1351
-39,-102,-63,70,12,-82,53,73,131,1810,-14,-1351
-39,-97,-58,68,9,-78,53,63,126,1805,-14,-1351
-39,-97,-58,68,9,-78,48,63,126,1815,-14,-1351
-39,-92,-53,65,7,-73,48,63,126,1815,-14,-1356
-39,-92,-53,65,7,-73,48,63,131,1820,-19,-1356
-39,-92,-53,65,7,-73,48,63,131,1820,-29,-1361
-39,-92,-53,65,7,-73,48,53,136,1825,-34,-1361
-39,-97,-58,68,9,-78,39,48,136,1825,-43,-1361
-39,-87,-48,63,4,-68,48,53,136,1830,-43,-1361
-39,-87,-48,63,4,-68,48,48,131,1834,-43,-1366
-39,-87,-48,63,4,-68,43,63,136,1844,-39,-1371
-43,-87,-43,65,0,-65,39,53,136,1849,-39,-1381
-43,-82,-39,63,-2,-61,39,58,141,1849,-39,-1381
-39,-82,-43,61,2,-63,39,68,141,1859,-43,-1390
-39,-82,-43,61,2,-63,43,73,156,1859,-39,-1390
-39,-78,-39,58,0,-58,48,78,161,1864,-48,-1395
-48,-78,-29,63,-9,-53,63,87,170,1878,-53,-1395
-48,-82,-34,65,-7,-58,73,87,175,1878,-63,-1410
-48,-82,-34,65,-7,-58,78,78,180,1878,-63,-1415
-53,-82,-29,68,-12,-56,82,68,180,1878,-78,-1424
-53,-82,-29,68,-12,-56,87,73,195,1883,-78,-1429
-63,-87,-24,75,-19,-56,92,73,195,1883,-92,-1449
-68,-87,-19,78,-24,-53,107,87,214,1893,-102,-1454
-82,-97,-14,90,-34,-56,107,87,229,1898,-126,-1478
-82,-102,-19,92,-31,-61,112,82,239,1898,-136,-1498
-97,-112,-14,104,-41,-63,131,87,253,1898,-156,-1512
-112,-122,-9,117,-51,-65,136,102,263,1898,-165,-1537
-122,-136,-14,129,-53,-75,141,117,273,1908,-190,-1566
-136,-141,-4,139,-65,-73,161,117,292,1903,-224,-1600
-156,-156,0,156,-78,-78,175,117,297,1898,-263,-1634
-170,-170,0,170,-85,-85,195,126,302,1893,-283,-1664
-185,-185,0,185,-92,-92,214,131,302,1883,-317,-1712
-190,-195,-4,192,-92,-100,239,136,317,1869,-385,-1751
-219,-224,-4,222,-107,-114,263,136,312,1854,-429,-1800
-224,-239,-14,231,-104,-126,273,131,317,1839,-453,-1839
-239,-273,-34,256,-102,-153,287,126,312,1815,-502,-1883
-253,-292,-39,273,-107,-165,307,131,307,1815,-551,-1917
-268,-317,-48,292,-109,-183,317,131,292,1781,-590,-1956
-283,-336,-53,309,-114,-195,322,131,283,1756,-619,-1976
-287,-356,-68,322,-109,-212,326,126,263,1737,-653,-2005
-292,-361,-68,326,-112,-214,322,117,244,1712,-668,-2015
-292,-370,-78,331,-107,-224,312,107,219,1688,-692,-2034
-287,-375,-87,331,-100,-231,307,97,190,1659,-688,-2025
-278,-380,-102,329,-87,-241,292,82,151,1644,-692,-2010
-248,-375,-126,312,-61,-251,278,78,141,1654,-658,-1966
-229,-361,-131,295,-48,-246,234,58,112,1654,-610,-1927
-190,-331,-141,261,-24,-236,209,58,102,1664,-536,-1854
-146,-307,-161,226,7,-234,185,48,78,1683,-453,-1776
-122,-283,-161,202,19,-222,165,34,68,1717,-380,-1722
-92,-253,-161,173,34,-207,126,24,43,1732,-292,-1664
-63,-209,-146,136,41,-178,87,9,34,1756,-214,-1590
-34,-175,-141,104,53,-158,58,-4,9,1771,-151,-1522
-9,-151,-141,80,65,-146,29,-9,4,1790,-92,-1459
4,-136,-141,65,73,-139,0,-14,-9,1795,-39,-1410
34,-107,-141,36,87,-124,-9,-14,-9,1820,29,-1351
48,-78,-126,14,87,-102,-24,-14,-9,1834,53,-1317
53,-63,-117,4,85,-90,-29,-24,-9,1849,87,-1278
48,-43,-92,-2,70,-68,-43,-34,-19,1849,97,-1268
58,-39,-97,-9,78,-68,-53,-34,-24,1859,126,-1249
58,-29,-87,-14,73,-58,-63,-39,-34,1864,141,-1234
68,-24,-92,-21,80,-58,-68,-39,-34,1864,141,-1224
68,-19,-87,-24,78,-53,-68,-39,-34,1864,141,-1215
73,-9,-82,-31,78,-46,-73,-43,-34,1873,151,-1210
78,0,-78,-39,78,-39,-78,-43,-43,1864,161,-1210
73,0,-73,-36,73,-36,-78,-43,-43,1864,165,-1205
73,0,-73,-36,73,-36,-82,-43,-43,1864,165,-1205
73,0,-73,-36,73,-36,-78,-43,-43,1864,161,-1205
73,0,-73,-36,73,-36,-73,-39,-48,1864,161,-1195
78,0,-78,-39,78,-39,-73,-39,-43,1878,165,-1185
82,-4,-87,-39,85,-46,-82,-39,-39,1878,165,-1195
78,-4,-82,-36,80,-43,-73,-39,-39,1878,170,-1195
68,-4,-73,-31,70,-39,-73,-53,-39,1878,175,-1195
82,0,-82,-41,82,-41,-73,-58,-34,1883,175,-1190
82,4,-78,-43,80,-36,-78,-58,-34,1883,170,-1185
82,0,-82,-41,82,-41,-78,-53,-34,1883,165,-1180
82,0,-82,-41,82,-41,-78,-48,-34,1883,161,-1180
78,0,-78,-39,78,-39,-78,-39,-29,1893,175,-1185
73,0,-73,-36,73,-36,-82,-29,-19,1893,161,-1190
73,0,-73,-36,73,-36,-82,-19,-19,1893,161,-1190
68,0,-68,-34,68,-34,-82,-14,-19,1893,161,-1190
73,0,-73,-36,73,-36,-78,-19,-14,1893,165,-1180
78,-9,-87,-34,82,-48,-68,-29,-14,1888,165,-1176
73,-9,-82,-31,78,-46,-68,-29,-14,1893,170,-1176
73,-4,-78,-34,75,-41,-68,-29,-14,1898,180,-1185
73,-9,-82,-31,78,-46,-53,-24,-14,1903,180,-1180
73,-19,-92,-26,82,-56,-43,-24,-14,1908,175,-1185
68,-19,-87,-24,78,-53,-43,-24,-14,1912,180,-1180
68,-19,-87,-24,78,-53,-43,-29,-14,1912,180,-1195
73,-19,-92,-26,82,-56,-43,-29,-14,1912,180,-1195
73,-14,-87,-29,80,-51,-43,-29,-14,1908,180,-1200
73,-14,-87,-29,80,-51,-43,-29,-14,1908,180,-1195
73,-19,-92,-26,82,-56,-48,-29,-24,1908,180,-1190
63,-19,-82,-21,73,-51,-48,-14,-14,1908,180,-1185
63,-19,-82,-21,73,-51,-48,0,-14,1908,170,-1185
63,-19,-82,-21,73,-51,-48,-14,-14,1903,170,-1180
63,-29,-92,-17,78,-61,-48,-34,-19,1898,170,-1180
63,-29,-92,-17,78,-61,-68,-34,-19,1898,165,-1190
63,-29,-92,-17,78,-61,-82,-43,-24,1898,165,-1190
63,-29,-92,-17,78,-61,-92,-24,-24,1898,165,-1190
63,-29,-92,-17,78,-61,-107,0,-24,1898,156,-1190
43,-29,-73,-7,58,-51,-73,0,-19,1903,156,-1180
43,-34,-78,-4,61,-56,-39,4,-19,1903,161,-1180
53,-29,-82,-12,68,-56,-19,4,-19,1908,161,-1171
63,-24,-87,-19,75,-56,-4,4,-19,1908,161,-1166
63,-19,-82,-21,73,-51,-4,9,-14,1908,161,-1166
63,-14,-78,-24,70,-46,-4,9,-9,1903,151,-1166
63,-14,-78,-24,70,-46,-9,9,-14,1903,161,-1171
58,-14,-73,-21,65,-43,-14,9,-19,1903,170,-1166
58,-19,-78,-19,68,-48,-19,-4,-19,1903,170,-1171
43,-24,-68,-9,56,-46,-24,-14,-19,1903,175,-1176
43,-29,-73,-7,58,-51,-24,-14,-19,1908,170,-1176
48,-34,-82,-7,65,-58,-29,-14,-19,1903,165,-1180
48,-34,-82,-7,65,-58,-34,-14,-19,1903,165,-1180
48,-34,-82,-7,65,-58,-39,-24,-24,1898,156,-1180
53,-34,-87,-9,70,-61,-39,-24,-24,1898,146,-1176
53,-34,-87,-9,70,-61,-39,-19,-24,1888,136,-1176
53,-24,-78,-14,65,-51,-39,-19,-24,1898,136,-1166
53,-19,-73,-17,63,-46,-34,-19,-24,1898,136,-1161
43,-19,-63,-12,53,-41,-34,-19,-24,1898,131,-1156
39,-19,-58,-9,48,-39,-34,-19,-24,1893,126,-1151
48,-24,-73,-12,61,-48,-34,-19,-24,1893,122,-1146
39,-24,-63,-7,51,-43,-34,-19,-24,1893,117,-1146
43,-19,-63,-12,53,-41,-39,-29,-24,1893,117,-1146
43,-19,-63,-12,53,-41,-39,-34,-24,1888,117,-1151
43,-19,-63,-12,53,-41,-39,-53,-24,1888,107,-1151
43,-19,-63,-12,53,-41,-39,-73,-24,1883,102,-1151
39,-19,-58,-9,48,-39,-43,-48,-24,1888,102,-1146
39,-19,-58,-9,48,-39,-48,-29,-24,1888,92,-1141
29,-14,-43,-7,36,-29,-48,-9,-19,1893,107,-1127
24,-14,-39,-4,31,-26,-48,14,-19,1898,112,-1117
34,-9,-43,-12,39,-26,-43,0,-9,1903,122,-1132
43,-9,-53,-17,48,-31,-43,-14,0,1908,136,-1141
48,0,-48,-24,48,-24,-43,4,14,1927,141,-1127
48,4,-43,-26,46,-19,-48,14,29,1937,141,-1122
53,48,-4,-51,29,21,-43,43,43,1966,156,-1112
68,87,19,-78,24,53,-58,73,63,1976,185,-1083
82,97,14,-90,34,56,-63,78,73,1991,190,-1073
102,107,4,-104,48,56,-73,82,87,2005,195,-1068
107,112,4,-109,51,58,-82,73,92,2005,200,-1054
117,117,0,-117,58,58,-97,68,97,2010,204,-1044
112,97,-14,-104,63,41,-131,19,43,1976,195,-1044
107,78,-29,-92,68,24,-165,-29,-9,1942,185,-1044
97,58,-39,-78,68,9,-175,-58,-43,1908,151,-1063
82,39,-43,-61,63,-2,-185,-82,-73,1883,126,-1073
73,24,-48,-48,61,-12,-200,-112,-102,1859,102,-1083
53,14,-39,-34,46,-12,-204,-112,-102,1864,102,-1063
63,19,-43,-41,53,-12,-204,-126,-117,1839,92,-1073
63,24,-39,-43,51,-7,-204,-126,-107,1839,92,-1058
78,29,-48,-53,63,-9,-200,-131,-107,1839,92,-1058
112,39,-73,-75,92,-17,-190,-122,-97,1844,107,-1039
126,43,-82,-85,104,-19,-190,-107,-97,1849,117,-1034
141,58,-82,-100,112,-12,-190,-97,-82,1869,146,-1015
146,68,-78,-107,112,-4,-185,-82,-78,1878,146,-1005
146,97,-48,-122,97,24,-180,-68,-53,1898,146,-985
136,102,-34,-119,85,34,-156,-73,-43,1898,146,-985
92,92,0,-92,46,46,-126,-68,-34,1898,146,-990
43,43,0,-43,21,21,-82,-58,-34,1893,112,-1034
14,-4,-19,-4,17,-12,-48,-53,-34,1883,82,-1068
0,-34,-34,17,17,-34,-29,-19,-34,1873,78,-1093
0,-34,-34,17,17,-34,-14,4,-34,1864,78,-1093
-4,-43,-39,24,17,-41,-19,-4,-34,1859,68,-1093
-4,-48,-43,26,19,-46,-29,-9,-34,1859,68,-1093
-14,-48,-34,31,9,-41,-24,-9,-24,1864,63,-1088
-19,-58,-39,39,9,-48,-19,-4,-19,1869,63,-1078
-34,-58,-24,46,-4,-41,4,-4,-9,1869,68,-1078
-39,-63,-24,51,-7,-43,24,0,-4,1869,68,-1078
-39,-63,-24,51,-7,-43,29,0,-4,1873,68,-1088
-34,-63,-29,48,-2,-46,34,4,-4,1873,68,-1093
-34,-63,-29,48,-2,-46,39,4,-4,1873,58,-1093
-39,-63,-24,51,-7,-43,39,4,-4,1873,48,-1093
-39,-58,-19,48,-9,-39,34,4,-4,1869,43,-1093
-39,-58,-19,48,-9,-39,34,4,-4,1869,39,-1093
-39,-58,-19,48,-9,-39,29,0,0,1869,43,-1093
-39,-58,-19,48,-9,-39,29,-4,0,1869,48,-1093
-39,-53,-14,46,-12,-34,29,-4,0,1869,48,-1088
-39,-48,-9,43,-14,-29,29,-4,4,1869,48,-1088
-39,-48,-9,43,-14,-29,29,-4,0,1864,34,-1078
-39,-43,-4,41,-17,-24,24,-4,-4,1864,29,-1068
-39,-43,-4,41,-17,-24,24,-4,0,1864,24,-1058
-34,-43,-9,39,-12,-26,19,-4,0,1864,24,-1058
-29,-43,-14,36,-7,-29,24,-4,0,1864,24,-1063
-29,-48,-19,39,-4,-34,29,-4,0,1864,24,-1063
-34,-48,-14,41,-9,-31,29,-19,0,1859,24,-1063
-39,-48,-9,43,-14,-29,29,-29,4,1859,14,-1063
-48,-39,9,43,-29,-14,34,-29,4,1859,4,-1068
-73,-29,43,51,-58,7,43,-19,24,1859,4,-1088
-78,29,107,24,-92,68,39,-34,34,1903,112,-1000
-63,122,185,-29,-124,153,19,-48,39,1976,292,-854
19,283,263,-151,-122,273,-92,-92,4,2069,610,-566
185,570,385,-378,-100,478,-302,-126,0,2308,1161,-34
380,790,409,-585,-14,600,-551,-229,-244,2259,1576,478
566,902,336,-734,114,619,-819,-507,-927,1756,1678,893
712,839,126,-775,292,483,-1034,-829,-1698,1044,1615,1278
844,653,-190,-749,517,231,-1185,-1093,-2435,292,1385,1566
912,351,-561,-631,736,-104,-1180,-1244,-2849,-229,1180,1698
868,-34,-902,-417,885,-468,-1054,-1288,-2791,-341,1063,1629
678,-405,-1083,-136,880,-744,-795,-1195,-2479,-165,922,1234
453,-732,-1185,139,819,-958,-400,-868,-1917,185,868,517
253,-893,-1146,319,700,-1019,-73,-502,-1351,629,551,-219
63,-771,-834,353,448,-802,136,-165,-712,1112,29,-775
-73,-570,-497,322,212,-534,219,43,-248,1449,-268,-1127
-136,-331,-195,234,29,-263,253,126,0,1722,-170,-1283
-146,-175,-29,161,-58,-102,229,175,126,1903,-24,-1273
-117,-175,-58,146,-29,-117,195,175,156,1932,-29,-1273
-87,-175,-87,131,0,-131,156,175,175,1947,-4,-1254
-53,-151,-97,102,21,-124,126,136,146,1942,4,-1200
-53,-122,-68,87,7,-95,122,107,141,1947,-4,-1205
-63,-126,-63,95,0,-95,122,107,161,1961,-4,-1215
-63,-117,-53,90,-4,-85,117,112,170,1971,0,-1220
-58,-112,-53,85,-2,-82,107,112,170,1976,-4,-1210
-53,-92,-39,73,-7,-65,102,82,175,1981,-9,-1205
-58,-87,-29,73,-14,-58,102,63,180,1991,-14,-1205
-53,-87,-34,70,-9,-61,97,73,180,1991,-9,-1200
-53,-82,-29,68,-12,-56,97,82,180,2000,-9,-1195
-53,-78,-24,65,-14,-51,97,102,180,2010,-4,-1195
-53,-73,-19,63,-17,-46,97,122,185,2020,4,-1195
-53,-73,-19,63,-17,-46,82,112,185,2025,4,-1195
-48,-68,-19,58,-14,-43,78,122,185,2025,4,-1195
-43,-68,-24,56,-9,-46,78,112,190,2025,4,-1195
-39,-63,-24,51,-7,-43,78,107,190,2030,4,-1200
-39,-58,-19,48,-9,-39,82,107,190,2030,-9,-1200
-34,-58,-24,46,-4,-41,87,102,195,2039,-19,-1195
-39,-53,-14,46,-12,-34,82,107,195,2039,-4,-1195
-43,-53,-9,48,-17,-31,82,117,195,2039,9,-1190
-43,-53,-9,48,-17,-31,82,117,195,2064,9,-1195
-48,-53,-4,51,-21,-29,82,117,200,2064,9,-1200
-48,-53,-4,51,-21,-29,73,112,200,2059,14,-1210
-39,-43,-4,41,-17,-24,73,112,195,2059,14,-1210
-43,-43,0,43,-21,-21,73,112,195,2059,14,-1215
-39,-43,-4,41,-17,-24,73,112,204,2069,14,-1215
-39,-43,-4,41,-17,-24,73,102,204,2069,14,-1220
-39,-48,-9,43,-14,-29,68,102,204,2078,14,-1224
-39,-43,-4,41,-17,-24,68,97,204,2078,9,-1229
-39,-43,-4,41,-17,-24,68,92,209,2083,9,-1229
-39,-43,-4,41,-17,-24,68,92,209,2083,4,-1234
-39,-39,0,39,-19,-19,68,87,214,2088,-4,-1234
-29,-39,-9,34,-9,-24,58,82,214,2088,-14,-1234
-19,-29,-9,24,-4,-19,68,87,219,2093,-14,-1234
-34,-29,4,31,-19,-12,68,87,224,2108,-9,-1239
-48,-29,19,39,-34,-4,68,102,239,2122,0,-1239
-53,-29,24,41,-39,-2,68,97,244,2122,0,-1249
-58,-24,34,41,-46,4,68,97,248,2122,0,-1254
-58,-24,34,41,-46,4,68,97,244,2127,-9,-1263
-58,-24,34,41,-46,4,68,97,248,2122,-19,-1263
-58,-19,39,39,-48,9,68,92,248,2122,-43,-1268
-68,-19,48,43,-58,14,78,97,258,2132,-39,-1268
-68,-24,43,46,-56,9,78,97,263,2132,-39,-1283
-68,-24,43,46,-56,9,78,97,273,2132,-43,-1283
-73,-24,48,48,-61,12,82,102,278,2137,-58,-1293
-73,-24,48,48,-61,12,87,112,292,2147,-58,-1298
-82,-24,58,53,-70,17,102,112,292,2152,-73,-1317
-87,-19,68,53,-78,24,126,126,312,2166,-73,-1322
-102,-29,73,65,-87,21,126,126,326,2171,-92,-1342
-102,-29,73,65,-87,21,131,126,336,2171,-107,-1361
-117,-34,82,75,-100,24,151,126,351,2171,-126,-1376
-131,-39,92,85,-112,26,161,131,361,2171,-131,-1400
-141,-53,87,97,-114,17,170,146,370,2181,-151,-1439
-156,-63,92,109,-124,14,190,146,390,2181,-165,-1478
-175,-78,97,126,-136,9,204,146,395,2186,-195,-1507
-190,-87,102,139,-146,7,219,156,409,2186,-224,-1532
-204,-97,107,151,-156,4,234,161,414,2176,-263,-1576
-214,-107,107,161,-161,0,258,165,429,2166,-317,-1610
-248,-136,112,192,-180,-12,283,151,424,2152,-351,-1649
-253,-151,102,202,-178,-24,292,136,429,2137,-385,-1683
-273,-185,87,229,-180,-48,302,146,429,2117,-424,-1727
-292,-200,92,246,-192,-53,317,161,429,2117,-463,-1761
-312,-214,97,263,-204,-58,322,175,419,2083,-502,-1800
-331,-229,102,280,-217,-63,326,190,414,2064,-531,-1820
-336,-248,87,292,-212,-80,331,161,390,2049,-566,-1849
-341,-258,82,300,-212,-87,326,122,361,2025,-580,-1869
-336,-273,63,305,-200,-104,307,131,336,2010,-600,-1888
-326,-283,43,305,-185,-119,287,146,307,1991,-595,-1878
-312,-287,24,300,-168,-131,273,131,268,1976,-575,-1873
-283,-283,0,283,-141,-141,258,126,253,1971,-546,-1830
-263,-253,9,258,-136,-122,239,97,224,1961,-522,-1786
-229,-214,14,222,-122,-100,239,82,209,1966,-448,-1722
-195,-200,-4,197,-95,-102,214,68,175,1976,-375,-1654
-161,-175,-14,168,-73,-95,195,53,161,2010,-317,-1586
-122,-151,-29,136,-46,-90,156,48,131,2015,-253,-1517
-92,-122,-29,107,-31,-75,112,43,117,2030,-185,-1444
-63,-97,-34,80,-14,-65,78,34,87,2044,-122,-1381
-34,-73,-39,53,2,-56,48,29,82,2064,-68,-1322
-29,-58,-29,43,0,-43,14,24,73,2069,-19,-1288
-14,-39,-24,26,4,-31,-4,9,63,2083,43,-1249
9,-24,-34,7,21,-29,-24,-4,48,2083,63,-1220
34,-14,-48,-9,41,-31,-29,-14,43,2093,92,-1180
39,4,-34,-21,36,-14,-43,-24,29,2088,97,-1166
53,14,-39,-34,46,-12,-53,-24,24,2093,126,-1132
58,24,-34,-41,46,-4,-63,-24,14,2098,131,-1107
68,24,-43,-46,56,-9,-68,-19,14,2098,126,-1093
58,29,-29,-43,43,0,-63,-19,19,2108,141,-1078
53,34,-19,-43,36,7,-63,-24,24,2127,165,-1073
58,39,-19,-48,39,9,-68,-34,14,2117,180,-1083
58,39,-19,-48,39,9,-68,-43,14,2117,185,-1088
63,43,-19,-53,41,12,-82,-43,9,2117,180,-1088
63,48,-14,-56,39,17,-92,-43,4,2117,170,-1088
63,48,-14,-56,39,17,-92,-19,0,2117,170,-1083
63,53,-9,-58,36,21,-92,0,0,2132,175,-1078
73,53,-19,-63,46,17,-97,4,0,2132,180,-1088
78,53,-24,-65,51,14,-82,9,0,2132,185,-1088
58,53,-4,-56,31,24,-68,-4,0,2132,185,-1088
63,53,-9,-58,36,21,-48,-4,4,2137,185,-1088
63,53,-9,-58,36,21,-48,-14,4,2137,175,-1083
63,48,-14,-56,39,17,-48,-24,4,2137,170,-1073
63,48,-14,-56,39,17,-53,-19,4,2132,165,-1073
63,48,-14,-56,39,17,-58,-14,4,2137,175,-1073
63,43,-19,-53,41,12,-63,-9,9,2137,161,-1073
63,39,-24,-51,43,7,-63,-4,9,2137,161,-1073
58,39,-19,-48,39,9,-68,-4,9,2142,161,-1083
58,39,-19,-48,39,9,-68,-9,14,2147,161,-1093
58,29,-29,-43,43,0,-63,-19,14,2142,156,-1098
53,29,-24,-41,39,2,-68,-19,14,2142,156,-1098
53,34,-19,-43,36,7,-73,-19,14,2142,161,-1107
53,34,-19,-43,36,7,-73,-14,14,2142,161,-1098
53,24,-29,-39,41,-2,-73,-14,14,2142,156,-1098
48,19,-29,-34,39,-4,-73,-9,14,2147,156,-1088
48,19,-29,-34,39,-4,-73,-9,14,2147,151,-1098
48,14,-34,-31,41,-9,-73,-9,14,2147,151,-1098
43,19,-24,-31,34,-2,-68,-14,14,2142,151,-1102
43,24,-19,-34,31,2,-58,-19,14,2142,151,-1102
48,19,-29,-34,39,-4,-58,-24,0,2142,151,-1102
43,19,-24,-31,34,-2,-58,-29,4,2142,151,-1098
48,14,-34,-31,41,-9,-53,-29,4,2142,141,-1098
53,9,-43,-31,48,-17,-48,-24,4,2142,141,-1093
53,0,-53,-26,53,-26,-39,-24,0,2142,146,-1093
53,0,-53,-26,53,-26,-29,-24,0,2142,146,-1102
53,0,-53,-26,53,-26,-34,-24,-4,2137,146,-1107
53,0,-53,-26,53,-26,-43,-14,-4,2132,146,-1112
53,4,-48,-29,51,-21,-53,-4,-4,2132,136,-1112
43,9,-34,-26,39,-12,-58,0,-4,2132,136,-1102
48,4,-43,-26,46,-19,-63,4,-9,2132,131,-1102
43,4,-39,-24,41,-17,-63,4,-9,2137,122,-1102
39,4,-34,-21,36,-14,-63,0,-9,2132,122,-1107
34,4,-29,-19,31,-12,-63,-4,-9,2132,122,-1107
34,4,-29,-19,31,-12,-58,-9,-4,2127,112,-1107
34,4,-29,-19,31,-12,-53,-9,-4,2127,112,-1107
39,4,-34,-21,36,-14,-53,-9,-9,2127,112,-1093
48,4,-43,-26,46,-19,-53,-14,-9,2127,112,-1088
34,0,-34,-17,34,-17,-53,-14,-9,2127,117,-1088
34,-4,-39,-14,36,-21,-48,-14,-9,2137,117,-1083
34,-4,-39,-14,36,-21,-43,-14,-9,2137,117,-1083
29,-4,-34,-12,31,-19,-39,-14,-9,2137,117,-1083
29,-4,-34,-12,31,-19,-39,-24,-14,2132,107,-1088
34,-4,-39,-14,36,-21,-39,-24,-14,2132,107,-1088
34,-4,-39,-14,36,-21,-39,-19,-14,2122,112,-1093
34,-4,-39,-14,36,-21,-39,-19,-14,2132,117,-1088
34,-9,-43,-12,39,-26,-34,-14,-14,2132,117,-1083
29,-9,-39,-9,34,-24,-34,-9,-14,2132,117,-1083
29,-9,-39,-9,34,-24,-34,-9,-14,2127,112,-1083
39,-9,-48,-14,43,-29,-34,-9,-14,2127,107,-1078
29,-9,-39,-9,34,-24,-34,-14,-14,2127,107,-1078
29,-9,-39,-9,34,-24,-34,-19,-14,2132,107,-1073
34,-9,-43,-12,39,-26,-29,-14,-14,2132,97,-1073
43,-9,-53,-17,48,-31,-29,-14,-14,2132,82,-1073
34,-9,-43,-12,39,-26,-29,-9,-14,2132,82,-1068
19,-9,-29,-4,24,-19,-29,0,-14,2137,82,-1063
19,-14,-34,-2,26,-24,-29,0,-9,2132,78,-1063
19,-14,-34,-2,26,-24,-29,0,0,2132,92,-1058
29,-14,-43,-7,36,-29,-29,4,0,2137,97,-1058
34,-9,-43,-12,39,-26,-24,4,4,2142,107,-1058
34,-4,-39,-14,36,-21,-24,9,14,2156,126,-1054
39,9,-29,-24,34,-9,-24,24,29,2181,141,-1039
48,24,-24,-36,36,0,-14,24,39,2186,141,-1029
63,73,9,-68,26,41,-4,34,53,2196,146,-1010
78,87,9,-82,34,48,-24,34,68,2210,165,-1000
97,107,9,-102,43,58,-48,34,82,2230,190,-990
107,107,0,-107,53,53,-78,48,82,2235,185,-976
117,107,-9,-112,63,48,-107,68,87,2244,185,-966
117,102,-14,-109,65,43,-131,29,63,2225,170,-961
117,97,-19,-107,68,39,-156,-9,39,2205,156,-956
107,82,-24,-95,65,29,-165,-39,-9,2176,146,-956
97,63,-34,-80,65,14,-175,-73,-43,2147,131,-966
87,43,-43,-65,65,0,-190,-107,-82,2122,122,-980
73,24,-48,-48,61,-12,-195,-122,-82,2117,122,-985
78,24,-53,-51,65,-14,-195,-146,-107,2093,107,-1005
73,24,-48,-48,61,-12,-195,-156,-107,2093,102,-1000
68,29,-39,-48,53,-4,-190,-141,-107,2093,102,-990
82,39,-43,-61,63,-2,-180,-112,-97,2098,117,-961
107,39,-68,-73,87,-14,-185,-97,-102,2093,117,-951
131,48,-82,-90,107,-17,-190,-87,-92,2103,136,-927
141,58,-82,-100,112,-12,-190,-73,-87,2113,146,-912
146,87,-58,-117,102,14,-190,-58,-63,2132,156,-888
151,107,-43,-129,97,31,-165,-58,-53,2137,161,-888
122,112,-9,-117,65,51,-136,-48,-43,2142,165,-893
63,63,0,-63,31,31,-102,-39,-43,2137,131,-936
24,14,-9,-19,17,2,-78,-34,-43,2127,102,-971
0,-29,-29,14,14,-29,-53,-24,-43,2117,82,-1000
-9,-43,-34,26,12,-39,-34,-24,-43,2108,68,-1005
-14,-48,-34,31,9,-41,-29,-24,-43,2103,53,-1005
-14,-48,-34,31,9,-41,-29,-19,-43,2103,48,-1005
-14,-43,-29,29,7,-36,-24,-24,-39,2103,43,-1010
-9,-48,-39,29,14,-43,-19,-24,-39,2103,43,-1010
-24,-48,-24,36,0,-36,-9,-24,-29,2103,48,-1010
-29,-53,-24,41,-2,-39,-4,-19,-24,2103,48,-1010
-34,-58,-24,46,-4,-41,-4,-19,-24,2108,48,-1005
-34,-63,-29,48,-2,-46,-4,-14,-24,2108,48,-995
-39,-63,-24,51,-7,-43,0,-9,-19,2108,43,-995
-48,-63,-14,56,-17,-39,0,-4,-14,2108,39,-995
-48,-58,-9,53,-19,-34,4,-9,-14,2103,34,-995
-48,-58,-9,53,-19,-34,14,-14,-14,2103,29,-995
-43,-58,-14,51,-14,-36,14,-14,-9,2103,29,-995
-39,-58,-19,48,-9,-39,19,-14,-9,2103,29,-995
-39,-58,-19,48,-9,-39,14,-4,-9,2103,29,-995
-39,-58,-19,48,-9,-39,9,4,-4,2103,29,-1000
-39,-58,-19,48,-9,-39,9,14,-4,2098,19,-995
-39,-53,-14,46,-12,-34,4,24,-4,2098,19,-990
-39,-48,-9,43,-14,-29,4,14,0,2098,19,-980
-34,-43,-9,39,-12,-26,0,4,0,2098,24,-980
-29,-39,-9,34,-9,-24,0,4,0,2103,24,-980
-29,-39,-9,34,-9,-24,0,4,0,2108,24,-976
-29,-48,-19,39,-4,-34,0,0,0,2103,39,-976
-29,-58,-29,43,0,-43,0,0,4,2103,43,-976
-39,-53,-14,46,-12,-34,9,0,0,2103,14,-980
-63,-48,14,56,-39,-17,24,9,14,2103,-4,-1000
-87,-53,34,70,-61,-9,58,-4,24,2078,-58,-1054
-92,-24,68,58,-80,21,78,-19,29,2083,-39,-1049
-112,43,156,34,-134,100,63,-53,29,2147,141,-897
-48,239,287,-95,-168,263,-48,-78,58,2357,556,-502
190,605,414,-397,-112,509,-287,4,322,2884,1356,112
419,863,444,-641,-12,653,-546,-87,146,2957,1844,629
566,966,400,-766,82,683,-849,-585,-863,2049,1732,1039
697,946,248,-822,224,597,-1088,-1024,-1839,1102,1454,1351
907,727,-180,-817,544,273,-1234,-1268,-2659,170,1078,1751
1005,424,-580,-714,793,-78,-1259,-1405,-3006,-351,790,1952
888,-39,-927,-424,907,-483,-1098,-1503,-2957,-351,722,1888
736,-458,-1195,-139,966,-827,-800,-1366,-2659,-175,741,1503
468,-883,-1351,207,910,-1117,-346,-878,-2020,307,610,536
209,-1024,-1234,407,722,-1129,-9,-419,-1307,829,273,-248
0,-790,-790,395,395,-790,141,-107,-673,1302,-287,-800
-136,-517,-380,326,122,-448,244,78,-253,1712,-453,-1156
-161,-287,-126,224,-17,-207,244,165,-24,1981,-224,-1190
-146,-214,-68,180,-39,-141,234,204,107,2098,-146,-1234
-107,-204,-97,156,-4,-151,175,204,136,2137,-107,-1190
-63,-170,-107,117,21,-139,126,165,117,2156,-82,-1112
-63,-136,-73,100,4,-104,122,126,117,2166,-87,-1132
-73,-136,-63,104,-4,-100,122,117,141,2186,-82,-1156
-78,-126,-48,102,-14,-87,117,131,151,2200,-68,-1146
-78,-122,-43,100,-17,-82,107,141,151,2210,-63,-1122
-73,-97,-24,85,-24,-61,97,131,156,2215,-63,-1117
-78,-87,-9,82,-34,-48,92,131,161,2225,-63,-1117
-73,-87,-14,80,-29,-51,82,126,161,2225,-53,-1117
-73,-82,-9,78,-31,-46,78,122,161,2235,-48,-1117
-73,-78,-4,75,-34,-41,78,122,161,2239,-43,-1117
-73,-73,0,73,-36,-36,78,122,165,2244,-34,-1117
-73,-73,0,73,-36,-36,68,112,165,2254,-34,-1117
-68,-68,0,68,-34,-34,68,122,165,2259,-34,-1117
-68,-68,0,68,-34,-34,68,122,170,2259,-34,-1117
-68,-63,4,65,-36,-29,68,126,170,2264,-34,-1122
-68,-58,9,63,-39,-24,63,126,170,2264,-39,-1122
-63,-58,4,61,-34,-26,58,122,175,2274,-39,-1117
-63,-53,9,58,-36,-21,53,112,175,2269,-39,-1122
-63,-53,9,58,-36,-21,53,107,175,2264,-39,-1122
-58,-53,4,56,-31,-24,63,107,175,2288,-34,-1122
-58,-53,4,56,-31,-24,73,107,180,2288,-29,-1122
-58,-53,4,56,-31,-24,63,102,180,2288,-24,-1132
-48,-43,4,46,-26,-19,63,102,175,2293,-24,-1132
-58,-43,14,51,-36,-14,58,102,175,2293,-24,-1137
-58,-43,14,51,-36,-14,53,102,185,2303,-24,-1137
-58,-39,19,48,-39,-9,53,97,185,2303,-24,-1132
-58,-39,19,48,-39,-9,48,102,185,2313,-24,-1127
-58,-34,24,46,-41,-4,48,102,185,2313,-24,-1132
-58,-34,24,46,-41,-4,48,102,190,2318,-19,-1132
-58,-34,24,46,-41,-4,48,102,190,2318,-19,-1141
-58,-29,29,43,-43,0,48,97,195,2322,-24,-1146
-53,-29,24,41,-39,-2,39,92,195,2318,-34,-1146
-48,-19,29,34,-39,4,48,97,200,2318,-34,-1146
-48,-19,29,34,-39,4,48,87,200,2322,-34,-1151
-48,-19,29,34,-39,4,48,92,209,2327,-29,-1151
-53,-19,34,36,-43,7,48,92,214,2332,-29,-1156
-58,-14,43,36,-51,14,48,97,219,2337,-29,-1156
-58,-14,43,36,-51,14,48,97,219,2347,-29,-1166
-58,-14,43,36,-51,14,48,97,229,2347,-29,-1166
-58,-9,48,34,-53,19,48,92,224,2352,-48,-1176
-68,-9,58,39,-63,24,58,97,229,2366,-39,-1180
-68,-9,58,39,-63,24,63,97,234,2366,-34,-1200
-68,-4,63,36,-65,29,68,97,244,2366,-34,-1205
-73,-4,68,39,-70,31,73,102,248,2366,-48,-1210
-73,-4,68,39,-70,31,78,112,263,2371,-48,-1210
-82,-9,73,46,-78,31,78,112,263,2371,-63,-1229
-87,-9,78,48,-82,34,87,126,283,2381,-63,-1234
-102,-14,87,58,-95,36,87,126,297,2391,-78,-1254
-102,-9,92,56,-97,41,92,126,307,2396,-87,-1273
-117,-14,102,65,-109,43,112,136,322,2400,-107,-1278
-131,-19,112,75,-122,46,122,151,331,2405,-112,-1293
-131,-34,97,82,-114,31,131,165,341,2415,-131,-1322
-136,-43,92,90,-114,24,151,165,361,2415,-146,-1351
-151,-63,87,107,-119,12,165,165,361,2420,-165,-1400
-161,-78,82,119,-122,2,180,175,370,2420,-185,-1444
-175,-87,87,131,-131,0,195,180,380,2410,-224,-1478
-185,-97,87,141,-136,-4,219,185,400,2400,-278,-1503
-224,-117,107,170,-165,-4,244,185,405,2391,-302,-1546
-234,-122,112,178,-173,-4,253,185,419,2381,-326,-1586
-253,-156,97,204,-175,-29,268,185,419,2361,-375,-1620
-273,-170,102,222,-187,-34,287,190,419,2361,-424,-1644
-287,-190,97,239,-192,-46,297,190,409,2327,-463,-1703
-302,-209,92,256,-197,-58,307,190,405,2308,-492,-1742
-312,-244,68,278,-190,-87,326,185,390,2293,-546,-1771
-322,-268,53,295,-187,-107,336,170,370,2269,-580,-1790
-322,-283,39,302,-180,-122,331,156,351,2244,-610,-1820
-317,-292,24,305,-170,-134,326,146,326,2215,-614,-1820
-312,-302,9,307,-161,-146,312,131,287,2196,-624,-1839
-292,-302,-9,297,-141,-156,297,126,273,2186,-624,-1820
-278,-292,-14,285,-131,-153,248,97,239,2171,-614,-1786
-248,-273,-24,261,-112,-148,219,82,219,2171,-556,-1732
-224,-258,-34,241,-95,-146,195,68,185,2171,-483,-1668
-200,-234,-34,217,-82,-134,175,53,170,2196,-424,-1605
-151,-214,-63,183,-43,-139,136,48,141,2210,-346,-1537
-112,-190,-78,151,-17,-134,92,43,126,2235,-263,-1464
-82,-151,-68,117,-7,-109,58,43,97,2244,-200,-1395
-53,-112,-58,82,2,-85,29,48,92,2259,-146,-1332
-29,-97,-68,63,19,-82,0,43,78,2264,-87,-1278
4,-78,-82,36,43,-80,-14,29,63,2278,-14,-1220
19,-58,-78,19,48,-68,-34,14,48,2283,9,-1185
34,-43,-78,4,56,-61,-39,4,43,2298,43,-1141
39,-24,-63,-7,51,-43,-43,-4,29,2298,58,-1132
53,-14,-68,-19,61,-41,-43,-4,24,2308,97,-1102
63,0,-63,-31,63,-31,-53,-14,9,2313,112,-1078
78,4,-73,-41,75,-34,-58,-19,4,2313,117,-1063
78,9,-68,-43,73,-29,-63,-19,4,2313,117,-1044
82,14,-68,-48,75,-26,-73,-24,4,2322,126,-1034
87,24,-63,-56,75,-19,-82,-29,-4,2313,141,-1034
87,29,-58,-58,73,-14,-87,-34,-4,2313,146,-1029
92,29,-63,-61,78,-17,-92,-34,-4,2313,146,-1029
92,29,-63,-61,78,-17,-92,-34,-4,2313,141,-1029
87,29,-58,-58,73,-14,-92,-29,-4,2313,141,-1019
82,34,-48,-58,65,-7,-92,-29,0,2327,146,-1010
82,29,-53,-56,68,-12,-102,-29,0,2327,151,-1019
78,24,-53,-51,65,-14,-92,-29,0,2327,156,-1019
68,24,-43,-46,56,-9,-92,-39,0,2327,156,-1015
82,24,-58,-53,70,-17,-87,-34,4,2332,156,-1010
82,29,-53,-56,68,-12,-87,-29,4,2332,151,-1010
82,29,-53,-56,68,-12,-87,-24,4,2332,151,-1005
82,29,-53,-56,68,-12,-87,-19,4,2332,151,-1010
82,29,-53,-56,68,-12,-87,-14,4,2342,165,-1015
82,29,-53,-56,68,-12,-92,-9,9,2347,156,-1015
82,29,-53,-56,68,-12,-92,-4,9,2352,161,-1015
78,29,-48,-53,63,-9,-92,-4,9,2352,165,-1015
78,29,-48,-53,63,-9,-87,-9,14,2352,170,-1015
78,19,-58,-48,68,-19,-78,-14,14,2352,165,-1019
73,19,-53,-46,63,-17,-78,-9,14,2357,165,-1019
73,24,-48,-48,61,-12,-78,-9,14,2357,161,-1029
73,24,-48,-48,61,-12,-73,-4,14,2357,151,-1019
78,14,-63,-46,70,-24,-73,-9,14,2352,146,-1019
78,9,-68,-43,73,-29,-73,-9,14,2352,146,-1010
78,9,-68,-43,73,-29,-73,-9,14,2352,146,-1019
78,4,-73,-41,75,-34,-73,-9,14,2352,151,-1019
68,4,-63,-36,65,-29,-73,-9,14,2352,151,-1024
63,4,-58,-34,61,-26,-68,-9,14,2357,151,-1024
63,0,-63,-31,63,-31,-68,-9,4,2357,151,-1024
53,0,-53,-26,53,-26,-68,-9,14,2357,151,-1019
53,0,-53,-26,53,-26,-68,-14,14,2357,141,-1024
53,0,-53,-26,53,-26,-68,-14,14,2357,141,-1024
53,-9,-63,-21,58,-36,-68,-19,9,2352,141,-1024
53,-9,-63,-21,58,-36,-68,-24,9,2347,136,-1034
53,-9,-63,-21,58,-36,-58,-34,4,2347,136,-1029
53,-9,-63,-21,58,-36,-53,-34,4,2347,136,-1024
53,-9,-63,-21,58,-36,-58,-19,4,2347,126,-1024
43,-9,-53,-17,48,-31,-58,-9,4,2347,126,-1015
53,-14,-68,-19,61,-41,-68,-4,0,2342,141,-1015
53,-14,-68,-19,61,-41,-73,-4,0,2342,151,-1015
53,-14,-68,-19,61,-41,-73,-4,0,2342,151,-1019
53,-14,-68,-19,61,-41,-73,-4,0,2347,151,-1019
53,-14,-68,-19,61,-41,-58,-9,4,2342,141,-1019
53,-14,-68,-19,61,-41,-43,-9,4,2342,141,-1019
53,-14,-68,-19,61,-41,-43,-9,0,2342,141,-1010
58,-14,-73,-21,65,-43,-43,-14,0,2342,141,-1010
43,-14,-58,-14,51,-36,-43,-14,-4,2337,141,-1010
43,-14,-58,-14,51,-36,-39,-14,-9,2342,136,-1005
48,-14,-63,-17,56,-39,-39,-14,-9,2342,136,-1005
48,-14,-63,-17,56,-39,-39,-14,-9,2342,136,-1005
48,-14,-63,-17,56,-39,-43,-24,-14,2337,126,-1005
53,-14,-68,-19,61,-41,-48,-24,-14,2337,126,-1000
48,-14,-63,-17,56,-39,-48,-19,-14,2327,126,-1005
43,-14,-58,-14,51,-36,-48,-19,-14,2337,126,-1000
43,-19,-63,-12,53,-41,-43,-19,-9,2337,126,-995
39,-19,-58,-9,48,-39,-43,-19,-4,2337,126,-995
39,-19,-58,-9,48,-39,-43,-19,-4,2332,122,-995
48,-19,-68,-14,58,-43,-43,-19,-4,2332,117,-990
39,-14,-53,-12,46,-34,-43,-19,-9,2332,117,-990
39,-9,-48,-14,43,-29,-43,-19,-14,2337,117,-985
34,-9,-43,-12,39,-26,-43,-14,-14,2337,126,-985
34,-9,-43,-12,39,-26,-48,-14,-14,2337,131,-985
34,-9,-43,-12,39,-26,-48,-9,-14,2342,131,-985
29,-9,-39,-9,34,-24,-48,0,-14,2352,131,-985
24,-14,-39,-4,31,-26,-48,0,-14,2347,122,-985
19,-14,-34,-2,26,-24,-48,0,-9,2347,131,-980
24,-14,-39,-4,31,-26,-39,0,-9,2342,126,-980
24,-9,-34,-7,29,-21,-24,-4,-4,2337,126,-980
29,-9,-39,-9,34,-24,-19,-14,-4,2337,131,-980
39,0,-39,-19,39,-19,-14,-14,0,2347,131,-971
39,-4,-43,-17,41,-24,-14,-4,9,2357,131,-966
39,14,-24,-26,31,-4,-9,14,19,2376,131,-961
43,34,-9,-39,26,12,-14,24,34,2376,136,-941
53,43,-9,-48,31,17,-24,39,48,2386,161,-932
63,82,19,-73,21,51,-39,24,48,2391,165,-927
73,102,29,-87,21,65,-53,24,58,2400,170,-912
87,112,24,-100,31,68,-68,34,73,2420,195,-888
102,122,19,-112,41,70,-87,43,92,2440,219,-868
112,117,4,-114,53,61,-107,48,82,2440,219,-873
