I,II,III,aVR,aVL,aVF,V1,V2,V3,V4,V5,V6,
-39,14,53,12,-46,34,-4,-24,-43,-58,-53,-63
-39,0,39,19,-39,19,-4,-24,-43,-53,-53,-63
-39,-4,34,21,-36,14,-4,-24,-43,-48,-53,-63
-43,-4,39,24,-41,17,-4,-24,-43,-48,-53,-63
-48,-4,43,26,-46,19,0,-24,-43,-48,-53,-63
-48,0,48,24,-48,24,0,-19,-43,-48,-53,-63
-48,4,53,21,-51,29,0,-19,-43,-48,-48,-63
-43,4,48,19,-46,26,0,-14,-39,-48,-48,-53
-39,0,39,19,-39,19,0,-14,-39,-43,-48,-48
-39,-9,29,24,-34,9,4,-14,-39,-43,-48,-48
-58,-29,29,43,-43,0,19,0,-39,-58,-68,-73
-102,-53,48,78,-75,-2,68,34,-24,-68,-107,-126
-161,-63,97,112,-129,17,122,68,-9,-68,-146,-175
-190,-48,141,119,-165,46,165,122,48,-43,-146,-190
-190,68,258,61,-224,163,165,146,165,68,-58,-117
-122,214,336,-46,-229,275,122,161,292,234,102,29
-4,326,331,-161,-168,329,19,97,331,341,258,185
102,419,317,-261,-107,368,-97,-68,253,351,366,326
185,531,346,-358,-80,439,-258,-346,87,283,409,444
297,688,390,-492,-46,539,-473,-639,-97,214,463,580
434,888,453,-661,-9,671,-692,-922,-297,126,507,732
448,839,390,-644,29,614,-868,-1273,-697,-278,239,619
346,434,87,-390,129,261,-990,-1634,-1400,-1049,-405,204
239,87,-151,-163,195,-31,-1029,-1786,-1805,-1498,-795,-87
180,-161,-341,-9,261,-251,-907,-1595,-1737,-1473,-839,-209
87,-229,-317,70,202,-273,-717,-1312,-1488,-1307,-785,-268
-4,-224,-219,114,107,-222,-531,-985,-1161,-1063,-697,-302
-87,-244,-156,165,34,-200,-326,-639,-834,-775,-585,-322
-126,-170,-43,148,-41,-107,-156,-356,-546,-522,-424,-283
-122,-87,34,104,-78,-26,-73,-190,-351,-346,-273,-214
-97,-48,48,73,-73,0,-24,-92,-204,-219,-190,-156
-82,-39,43,61,-63,2,0,-58,-131,-156,-161,-126
-63,-39,24,51,-43,-7,19,-9,-82,-102,-112,-117
-58,-43,14,51,-36,-14,39,19,-53,-78,-68,-97
-53,-43,9,48,-31,-17,43,39,-39,-58,-68,-92
-48,-43,4,46,-26,-19,48,43,-14,-39,-68,-87
-48,-43,4,46,-26,-19,53,53,0,-24,-68,-82
-53,-43,9,48,-31,-17,58,58,0,-24,-63,-82
-53,-43,9,48,-31,-17,63,68,4,-19,-53,-78
-53,-43,9,48,-31,-17,63,73,14,-19,-53,-82
-48,-43,4,46,-26,-19,63,82,19,-9,-53,-87
-48,-43,4,46,-26,-19,63,82,19,-9,-48,-87
-48,-43,4,46,-26,-19,68,87,19,-9,-43,-87
-48,-43,4,46,-26,-19,73,92,24,-4,-43,-87
-48,-43,4,46,-26,-19,78,97,34,0,-39,-82
-48,-48,0,48,-24,-24,82,102,39,4,-39,-82
-48,-48,0,48,-24,-24,87,112,53,9,-34,-82
-48,-48,0,48,-24,-24,87,112,53,9,-34,-87
-48,-48,0,48,-24,-24,87,112,53,9,-34,-87
-48,-48,0,48,-24,-24,87,117,63,14,-34,-82
-48,-48,0,48,-24,-24,87,122,63,19,-34,-82
-48,-48,0,48,-24,-24,92,126,68,24,-29,-78
-48,-48,0,48,-24,-24,97,136,78,29,-19,-73
-43,-53,-9,48,-17,-31,97,141,82,34,-14,-73
-39,-53,-14,46,-12,-34,102,141,92,34,-14,-73
-39,-53,-14,46,-12,-34,102,156,97,34,-9,-73
-39,-53,-14,46,-12,-34,102,161,102,53,-4,-68
-34,-53,-19,43,-7,-36,107,165,112,53,0,-68
-34,-53,-19,43,-7,-36,107,175,117,63,0,-68
-24,-53,-29,39,2,-41,102,185,122,68,0,-63
-24,-48,-24,36,0,-36,97,195,122,73,4,-63
-19,-43,-24,31,2,-34,97,204,136,82,9,-63
-19,-43,-24,31,2,-34,102,219,151,87,19,-58
-19,-34,-14,26,-2,-24,102,229,156,92,24,-53
-14,-24,-9,19,-2,-17,102,239,165,97,29,-48
-9,-14,-4,12,-2,-9,107,248,170,107,34,-43
-4,-9,-4,7,0,-7,107,253,180,117,43,-43
9,-4,-14,-2,12,-9,107,263,190,122,48,-43
19,0,-19,-9,19,-9,107,263,200,126,53,-39
29,9,-19,-19,24,-4,107,263,204,136,63,-24
39,19,-19,-29,29,0,102,268,209,146,73,-14
48,29,-19,-39,34,4,97,268,219,151,78,0
53,39,-14,-46,34,12,87,268,219,165,87,9
63,53,-9,-58,36,21,82,268,219,165,92,19
73,68,-4,-70,39,31,73,253,219,165,102,29
82,78,-4,-80,43,36,63,248,219,165,102,43
92,87,-4,-90,48,41,53,244,214,165,102,48
102,92,-9,-97,56,41,43,239,204,170,112,58
112,97,-14,-104,63,41,34,219,204,165,122,63
126,107,-19,-117,73,43,19,204,200,165,126,78
131,117,-14,-124,73,51,9,185,185,156,126,87
141,131,-9,-136,75,61,-9,161,175,146,122,87
146,136,-9,-141,78,63,-14,141,156,136,122,87
146,136,-9,-141,78,63,-29,122,136,126,117,92
151,136,-14,-143,82,61,-39,107,126,117,112,97
146,136,-9,-141,78,63,-48,92,112,107,107,97
141,131,-9,-136,75,61,-48,82,97,97,102,97
131,122,-9,-126,70,56,-48,68,82,87,87,87
126,112,-14,-119,70,48,-53,58,82,78,82,73
122,107,-14,-114,68,46,-53,43,73,68,73,68
112,102,-9,-107,61,46,-53,29,63,58,68,58
97,92,-4,-95,51,43,-53,19,53,48,58,48
82,87,4,-85,39,46,-53,9,43,39,43,34
78,78,0,-78,39,39,-43,4,39,29,34,29
68,78,9,-73,29,43,-39,4,29,24,29,24
53,82,29,-68,12,56,-39,0,29,19,39,24
48,73,24,-61,12,48,-34,0,24,14,34,19
43,68,24,-56,9,46,-29,-4,14,14,19,14
34,63,29,-48,2,46,-29,-4,9,9,4,9
29,58,29,-43,0,43,-29,-9,4,4,0,4
24,58,34,-41,-4,46,-34,-14,0,0,-4,0
19,53,34,-36,-7,43,-29,-14,0,0,0,0
14,53,39,-34,-12,46,-29,-14,0,-4,0,-4
9,43,34,-26,-12,39,-24,-14,0,-4,0,-4
9,43,34,-26,-12,39,-14,-14,-4,-9,-4,-4
4,43,39,-24,-17,41,-14,-14,-4,-19,-19,-14
0,43,43,-21,-21,43,-14,-14,-4,-29,-34,-24
-4,34,39,-14,-21,36,-14,-14,0,-24,-24,-29
-14,34,48,-9,-31,41,-9,-9,0,-14,-24,-29
-14,34,48,-9,-31,41,-9,-9,0,-14,-19,-24
-14,29,43,-7,-29,36,-9,-9,0,-14,-14,-19
-14,24,39,-4,-26,31,-4,-9,4,-14,-14,-24
-14,19,34,-2,-24,26,-4,-4,4,-14,-19,-29
-9,19,29,-4,-19,24,-4,-4,4,-14,-29,-34
-19,14,34,2,-26,24,0,-4,4,-24,-39,-39
-29,9,39,9,-34,24,4,-4,0,-24,-29,-39
-29,0,29,14,-29,14,4,0,0,-19,-24,-39
-29,0,29,14,-29,14,4,0,4,-14,-24,-39
-34,0,34,17,-34,17,9,0,4,-14,-24,-43
-34,9,43,12,-39,26,9,0,4,-14,-24,-43
-39,9,48,14,-43,29,14,4,4,-14,-24,-48
-39,9,48,14,-43,29,14,4,4,-14,-34,-48
-39,0,39,19,-39,19,14,4,4,-14,-43,-53
-34,0,34,17,-34,17,14,4,4,-14,-39,-48
-29,0,29,14,-29,14,14,4,4,-14,-29,-43
-29,0,29,14,-29,14,14,4,4,-14,-29,-43
-34,-4,29,19,-31,12,14,0,4,-14,-29,-43
-34,-4,29,19,-31,12,4,0,4,-19,-34,-48
-34,4,39,14,-36,21,-4,-4,0,-19,-34,-53
-34,4,39,14,-36,21,4,-4,-4,-19,-34,-53
-34,0,34,17,-34,17,9,0,-4,-19,-34,-53
-34,0,34,17,-34,17,9,0,0,-19,-34,-53
-34,0,34,17,-34,17,9,0,0,-19,-34,-53
-34,0,34,17,-34,17,4,0,-4,-14,-29,-53
-34,-4,29,19,-31,12,0,4,-4,-9,-29,-48
-34,-9,24,21,-29,7,4,4,-4,-14,-34,-48
-29,-9,19,19,-24,4,4,4,-4,-14,-39,-48
-29,-4,24,17,-26,9,4,4,-4,-19,-39,-48
-29,0,29,14,-29,14,0,0,-4,-24,-43,-48
-29,0,29,14,-29,14,0,0,-4,-19,-39,-43
-29,4,34,12,-31,19,0,0,-4,-19,-34,-39
-24,14,39,4,-31,26,0,0,0,-14,-29,-39
-19,29,48,-4,-34,39,0,0,0,-9,-29,-39
-24,34,58,-4,-41,46,0,-4,0,-14,-29,-39
-29,39,68,-4,-48,53,0,-9,0,-19,-29,-39
-29,39,68,-4,-48,53,4,-9,0,-19,-24,-29
-29,43,73,-7,-51,58,14,0,4,-14,-14,-24
-29,53,82,-12,-56,68,24,4,9,-9,-4,-19
-29,63,92,-17,-61,78,29,14,19,-4,4,-9
-24,78,102,-26,-63,90,29,14,19,-4,0,-9
-14,102,117,-43,-65,109,4,-4,19,-4,0,-4
0,122,122,-61,-61,122,-24,-14,24,4,4,4
4,131,126,-68,-61,129,-43,-34,24,9,4,4
9,131,122,-70,-56,126,-48,-43,24,4,4,9
14,146,131,-80,-58,139,-68,-58,14,0,4,9
19,175,156,-97,-68,165,-68,-63,9,0,4,9
24,190,165,-107,-70,178,-68,-63,9,4,4,14
43,190,146,-117,-51,168,-73,-68,9,4,19,29
53,165,112,-109,-29,139,-78,-73,9,4,29,39
58,136,78,-97,-9,107,-78,-63,-4,-4,9,19
43,117,73,-80,-14,95,-73,-63,-14,-19,-9,-9
0,92,92,-46,-46,92,-48,-53,-14,-19,-14,-9
-24,82,107,-29,-65,95,-29,-43,-14,-19,-19,-9
-29,58,87,-14,-58,73,-24,-43,-19,-34,-29,-19
-34,34,68,0,-51,51,-19,-43,-24,-34,-34,-24
-34,29,63,2,-48,46,-19,-43,-24,-39,-29,-24
-34,19,53,7,-43,36,-14,-39,-24,-39,-24,-29
-34,0,34,17,-34,17,-14,-34,-24,-39,-24,-34
-34,-19,14,26,-24,-2,-9,-29,-24,-39,-29,-34
-39,-19,19,29,-29,0,-9,-29,-24,-48,-43,-43
-43,-19,24,31,-34,2,-9,-29,-24,-58,-58,-48
-43,-14,29,29,-36,7,-4,-29,-24,-48,-43,-48
-43,-14,29,29,-36,7,0,-29,-24,-39,-29,-48
-43,-14,29,29,-36,7,4,-19,-19,-34,-34,-48
-39,-24,14,31,-26,-4,4,-14,-14,-29,-34,-43
-39,-29,9,34,-24,-9,4,-14,-14,-29,-34,-43
-39,-34,4,36,-21,-14,4,-14,-14,-29,-34,-43
-43,-34,9,39,-26,-12,9,-14,-14,-29,-34,-43
-48,-34,14,41,-31,-9,9,-9,-14,-29,-34,-43
-48,-34,14,41,-31,-9,9,-9,-14,-29,-34,-43
-48,-34,14,41,-31,-9,9,-4,-9,-29,-39,-39
-48,-39,9,43,-29,-14,4,-9,-9,-29,-39,-39
-48,-43,4,46,-26,-19,4,-14,-9,-34,-39,-39
-53,-58,-4,56,-24,-31,19,0,-14,-48,-48,-63
-78,-82,-4,80,-36,-43,63,34,-4,-58,-78,-107
-146,-117,29,131,-87,-43,117,73,-4,-73,-141,-165
-190,-126,63,158,-126,-31,165,126,29,-68,-165,-200
-209,-9,200,109,-204,95,185,161,146,24,-92,-146
-161,141,302,9,-231,222,151,175,278,175,58,-14
-43,258,302,-107,-173,280,53,136,361,326,239,156
58,351,292,-204,-117,322,-53,4,317,370,366,307
136,448,312,-292,-87,380,-200,-258,151,297,414,424
248,585,336,-417,-43,461,-405,-531,-24,224,463,551
419,893,473,-656,-26,683,-653,-795,-136,268,624,795
468,946,478,-707,-4,712,-834,-1107,-444,4,483,785
356,507,151,-431,102,329,-980,-1537,-1259,-878,-229,346
244,151,-92,-197,168,29,-1054,-1761,-1751,-1420,-683,34
190,-117,-307,-36,248,-212,-956,-1610,-1737,-1449,-771,-107
97,-239,-336,70,217,-287,-785,-1366,-1551,-1337,-761,-190
4,-263,-268,129,136,-265,-590,-1024,-1220,-1088,-688,-248
-78,-283,-204,180,63,-244,-385,-692,-902,-829,-595,-297
-122,-200,-78,161,-21,-139,-195,-400,-590,-575,-434,-268
-126,-117,9,122,-68,-53,-92,-219,-375,-385,-287,-204
-112,-82,29,97,-70,-26,-34,-117,-214,-239,-195,-146
-102,-78,24,90,-63,-26,0,-68,-122,-156,-151,-117
-82,-78,4,80,-43,-36,24,-19,-68,-97,-102,-102
-78,-82,-4,80,-36,-43,48,14,-34,-68,-58,-78
-68,-87,-19,78,-24,-53,53,43,-19,-48,-58,-73
-58,-92,-34,75,-12,-63,58,53,4,-34,-58,-73
-58,-92,-34,75,-12,-63,63,63,19,-24,-53,-73
-63,-92,-29,78,-17,-61,68,68,19,-24,-43,-73
-63,-92,-29,78,-17,-61,73,78,24,-14,-34,-68
-63,-92,-29,78,-17,-61,78,82,34,-4,-34,-68
-58,-92,-34,75,-12,-63,82,92,39,9,-34,-73
-58,-92,-34,75,-12,-63,82,92,43,9,-29,-78
-58,-92,-34,75,-12,-63,87,102,53,9,-24,-78
-58,-92,-34,75,-12,-63,87,112,63,14,-24,-78
-58,-92,-34,75,-12,-63,87,117,73,19,-19,-68
-58,-97,-39,78,-9,-68,92,122,73,24,-19,-63
-58,-97,-39,78,-9,-68,97,131,82,29,-14,-63
-58,-97,-39,78,-9,-68,97,131,82,29,-14,-68
-58,-97,-39,78,-9,-68,97,131,82,29,-14,-68
-58,-97,-39,78,-9,-68,97,136,92,34,-14,-63
-58,-97,-39,78,-9,-68,97,141,92,39,-14,-63
-58,-97,-39,78,-9,-68,102,146,97,43,-14,-63
-58,-97,-39,78,-9,-68,107,156,102,48,-9,-68
-58,-97,-39,78,-9,-68,107,161,102,53,-4,-73
-58,-92,-34,75,-12,-63,107,156,112,53,-4,-73
-58,-92,-34,75,-12,-63,102,165,117,53,0,-73
-58,-92,-34,75,-12,-63,102,170,122,73,4,-68
-53,-92,-39,73,-7,-65,107,175,131,73,9,-68
-53,-92,-39,73,-7,-65,112,185,136,82,9,-63
-43,-92,-48,68,2,-70,117,195,146,87,14,-53
-43,-87,-43,65,0,-65,117,204,151,92,19,-53
-39,-82,-43,61,2,-63,117,209,165,102,19,-53
-39,-82,-43,61,2,-63,122,219,180,107,29,-48
-39,-78,-39,58,0,-58,122,229,185,117,34,-43
-34,-78,-43,56,4,-61,122,239,195,126,39,-39
-29,-73,-43,51,7,-58,126,248,200,136,43,-29
-24,-68,-43,46,9,-56,126,253,209,146,53,-24
-14,-58,-43,36,14,-51,126,263,219,151,58,-24
-9,-48,-39,29,14,-43,126,263,229,161,63,-19
0,-39,-39,19,19,-39,126,268,234,175,73,-4
9,-34,-43,12,26,-39,126,283,244,185,87,4
19,-29,-48,4,34,-39,126,287,258,185,97,14
24,-19,-43,-2,34,-31,117,287,258,200,107,19
34,-4,-39,-14,36,-21,112,287,258,204,112,29
43,9,-34,-26,39,-12,102,273,258,204,122,39
53,19,-34,-36,43,-7,92,263,258,204,122,53
63,29,-34,-46,48,-2,82,253,253,204,122,58
73,43,-29,-58,51,7,73,248,239,204,126,68
82,58,-24,-70,53,17,63,229,234,195,131,73
97,68,-29,-82,63,19,43,214,224,195,136,87
102,78,-24,-90,63,26,29,195,204,185,136,97
112,87,-24,-100,68,31,9,170,195,175,131,97
117,92,-24,-104,70,34,4,156,175,165,131,97
117,97,-19,-107,68,39,-9,141,156,156,126,102
122,97,-24,-109,73,36,-14,126,146,146,122,107
122,97,-24,-109,73,36,-19,107,131,136,117,107
122,92,-29,-107,75,31,-19,92,117,131,117,112
112,82,-29,-97,70,26,-19,78,97,126,107,107
107,78,-29,-92,68,24,-24,68,92,117,102,92
102,78,-24,-90,63,26,-24,58,82,107,92,87
92,73,-19,-82,56,26,-24,48,73,102,87,78
82,63,-19,-73,51,21,-24,39,63,97,82,73
73,53,-19,-63,46,17,-24,29,53,87,73,63
68,39,-29,-53,48,4,-19,24,48,78,63,58
58,39,-19,-48,39,9,-19,24,39,73,58,53
43,39,-4,-41,24,17,-19,19,39,68,58,48
39,24,-14,-31,26,4,-14,19,34,58,43,39
34,19,-14,-26,24,2,-9,14,29,53,39,34
29,14,-14,-21,21,0,-9,14,29,48,29,29
29,9,-19,-19,24,-4,-4,9,24,43,19,24
24,14,-9,-19,17,2,-4,4,19,39,14,14
19,14,-4,-17,12,4,0,4,19,39,14,9
14,14,0,-14,7,7,0,4,19,34,9,4
9,4,-4,-7,7,0,0,4,19,34,9,4
4,4,0,-4,2,2,4,4,14,29,4,4
-4,4,9,0,-7,7,4,4,14,29,4,0
-9,9,19,0,-14,14,4,4,14,29,4,-4
-9,4,14,2,-12,9,4,4,14,24,4,-9
-14,4,19,4,-17,12,9,9,9,24,-4,-9
-14,4,19,4,-17,12,9,9,9,24,-4,-9
-14,0,14,7,-14,7,9,9,9,24,-4,-9
-14,0,14,7,-14,7,14,9,14,24,-4,-14
-9,-4,4,7,-7,0,14,14,14,29,-9,-19
-4,-9,-4,7,0,-7,14,14,14,34,-9,-19
-19,-14,4,17,-12,-4,19,14,14,24,-9,-19
-29,-19,9,24,-19,-4,24,14,9,19,-9,-19
-29,-34,-4,31,-12,-19,24,19,9,19,-14,-19
-29,-39,-9,34,-9,-24,24,19,14,24,-14,-19
-29,-39,-9,34,-9,-24,29,19,14,24,-14,-24
-24,-29,-4,26,-9,-17,29,19,14,24,-14,-24
-29,-29,0,29,-14,-14,34,24,14,24,-14,-29
-29,-29,0,29,-14,-14,34,24,14,24,-14,-29
-34,-34,0,34,-17,-17,34,24,14,24,-14,-34
-39,-29,9,34,-24,-9,34,24,14,24,-19,-34
-39,-29,9,34,-24,-9,34,24,14,24,-19,-34
-39,-29,9,34,-24,-9,34,24,14,24,-19,-34
-39,-34,4,36,-21,-14,34,19,14,24,-19,-34
-34,-34,0,34,-17,-17,34,19,14,19,-24,-34
-34,-24,9,29,-21,-7,34,14,9,19,-24,-34
-34,-24,9,29,-21,-7,34,14,4,19,-24,-34
-34,-29,4,31,-19,-12,29,19,4,19,-24,-34
-34,-29,4,31,-19,-12,29,19,9,19,-24,-34
-34,-29,4,31,-19,-12,24,19,9,19,-24,-34
-34,-29,4,31,-19,-12,19,14,4,19,-19,-34
-34,-24,9,29,-21,-7,19,14,0,19,-19,-29
-29,-19,9,24,-19,-4,24,14,-4,14,-19,-29
-34,-19,14,26,-24,-2,19,9,0,9,-14,-29
-39,-19,19,29,-29,0,19,9,4,9,-14,-34
-34,-4,29,19,-31,12,19,9,4,14,-9,-29
-29,9,39,9,-34,24,19,9,9,19,-9,-29
-29,9,39,9,-34,24,19,9,9,19,-9,-24
-29,9,39,9,-34,24,19,9,9,19,-9,-19
-29,9,39,9,-34,24,24,4,9,19,-9,-19
-29,14,43,7,-36,29,34,4,14,24,-4,-19
-29,24,53,2,-41,39,43,9,19,29,-4,-19
-29,34,63,-2,-46,48,48,14,29,34,-4,-9
-29,48,78,-9,-53,63,53,24,34,39,0,-4
-24,73,97,-24,-61,85,34,14,39,43,9,4
-9,87,97,-39,-53,92,4,4,39,48,14,14
-4,92,97,-43,-51,95,-14,-14,34,48,14,14
0,92,92,-46,-46,92,-29,-34,29,43,14,19
4,107,102,-56,-48,104,-58,-58,14,39,14,19
9,136,126,-73,-58,131,-63,-63,9,34,14,19
14,151,136,-82,-61,143,-68,-63,9,34,14,24
34,161,126,-97,-46,143,-68,-63,9,34,19,34
43,146,102,-95,-29,124,-68,-63,9,34,19,39
53,107,53,-80,0,80,-63,-53,0,29,14,34
43,78,34,-61,4,56,-53,-53,-4,19,9,19
0,58,58,-29,-29,58,-29,-43,-4,19,4,9
-24,53,78,-14,-51,65,-9,-34,-4,19,0,0
-29,29,58,0,-43,43,0,-34,-9,4,-9,-9
-34,4,39,14,-36,21,9,-34,-14,4,-14,-14
-39,-4,34,21,-36,14,9,-34,-14,0,-14,-9
-43,-19,24,31,-34,2,14,-29,-14,0,-14,-9
-43,-34,9,39,-26,-12,14,-19,-14,0,-14,-14
-43,-48,-4,46,-19,-26,19,-9,-14,0,-19,-14
-43,-48,-4,46,-19,-26,19,-9,-14,0,-19,-24
-43,-48,-4,46,-19,-26,19,-9,-14,0,-19,-29
-43,-48,-4,46,-19,-26,19,-9,-14,0,-19,-29
-43,-53,-9,48,-17,-31,19,-9,-14,0,-19,-29
-48,-58,-9,53,-19,-34,24,-4,-14,0,-24,-34
-48,-73,-24,61,-12,-48,24,-4,-14,0,-24,-34
-48,-78,-29,63,-9,-53,24,-4,-14,0,-24,-34
-48,-82,-34,65,-7,-58,24,-4,-14,0,-24,-34
-48,-82,-34,65,-7,-58,34,-4,-9,4,-24,-34
-48,-82,-34,65,-7,-58,39,0,-4,9,-24,-34
-48,-78,-29,63,-9,-53,39,0,-4,9,-19,-34
-48,-73,-24,61,-12,-48,39,4,0,9,-19,-29
-43,-78,-34,61,-4,-56,34,0,0,14,-19,-24
-39,-82,-43,61,2,-63,34,-4,0,14,-19,-19
-39,-97,-58,68,9,-78,34,4,-4,0,-29,-34
-58,-122,-63,90,2,-92,63,34,4,-9,-58,-68
-131,-165,-34,148,-48,-100,126,68,-4,-39,-126,-136
-180,-185,-4,183,-87,-95,185,117,19,-48,-156,-180
-214,-82,131,148,-173,24,219,161,126,29,-112,-151
-180,53,234,63,-207,143,200,185,248,165,9,-43
-63,170,234,-53,-148,202,102,175,366,346,209,126
39,263,224,-151,-92,244,-4,73,356,419,356,278
102,346,244,-224,-70,295,-141,-190,185,356,414,395
200,468,268,-334,-34,368,-336,-463,4,292,473,522
405,834,429,-619,-12,631,-600,-717,-53,409,722,839
488,946,458,-717,14,702,-795,-1019,-307,219,668,902
395,541,146,-468,124,344,-976,-1517,-1200,-746,-97,444
302,219,-82,-261,192,68,-1083,-1810,-1771,-1371,-605,112
258,-107,-366,-75,312,-236,-1005,-1693,-1820,-1459,-741,-53
175,-287,-463,56,319,-375,-854,-1483,-1698,-1405,-780,-161
68,-341,-409,136,239,-375,-644,-1132,-1346,-1156,-717,-229
-29,-390,-361,209,165,-375,-424,-790,-1010,-897,-634,-287
-97,-307,-209,202,56,-258,-204,-453,-663,-614,-463,-268
-126,-224,-97,175,-14,-161,-73,-229,-414,-395,-307,-214
-107,-170,-63,139,-21,-117,-9,-117,-234,-234,-200,-141
-92,-146,-53,119,-19,-100,29,-58,-122,-136,-141,-97
-73,-146,-73,109,0,-109,48,-4,-63,-73,-87,-87
-68,-151,-82,109,7,-117,68,34,-24,-39,-39,-68
-63,-151,-87,107,12,-119,78,63,-4,-19,-39,-58
-58,-151,-92,104,17,-122,87,73,24,-4,-39,-53
-58,-151,-92,104,17,-122,92,82,39,14,-39,-53
-63,-151,-87,107,12,-119,97,87,39,24,-34,-53
-63,-156,-92,109,14,-124,102,97,43,29,-19,-48
-63,-161,-97,112,17,-129,107,102,53,34,-14,-48
-58,-161,-102,109,21,-131,112,117,58,48,-14,-48
-58,-161,-102,109,21,-131,112,122,63,48,-9,-48
-58,-161,-102,109,21,-131,117,126,73,48,-4,-48
-58,-161,-102,109,21,-131,117,131,82,53,-4,-48
-58,-161,-102,109,21,-131,117,136,92,58,0,-43
-58,-165,-107,112,24,-136,122,141,92,63,0,-43
-58,-165,-107,112,24,-136,126,151,102,68,4,-43
-58,-165,-107,112,24,-136,126,151,102,68,4,-48
-58,-165,-107,112,24,-136,126,151,102,68,4,-48
-58,-165,-107,112,24,-136,126,156,112,73,4,-43
-58,-170,-112,114,26,-141,126,161,112,78,4,-43
-58,-175,-117,117,29,-146,131,165,117,82,4,-43
-58,-175,-117,117,29,-146,136,175,126,87,9,-43
-58,-175,-117,117,29,-146,136,180,131,92,14,-43
-58,-165,-107,112,24,-136,141,180,141,92,14,-43
-58,-161,-102,109,21,-131,141,195,146,92,19,-43
-58,-161,-102,109,21,-131,146,200,151,112,24,-39
-53,-161,-107,107,26,-134,156,204,161,112,29,-39
-58,-165,-107,112,24,-136,156,214,165,122,29,-39
-53,-170,-117,112,31,-143,156,224,175,126,34,-34
-53,-165,-112,109,29,-139,156,234,180,131,43,-34
-48,-161,-112,104,31,-136,156,239,195,141,48,-34
-48,-161,-112,104,31,-136,161,248,214,146,58,-29
-48,-156,-107,102,29,-131,161,258,224,156,63,-24
-43,-151,-107,97,31,-129,161,268,234,165,68,-19
-39,-141,-102,90,31,-122,165,278,239,175,73,-9
-34,-136,-102,85,34,-119,165,287,253,190,82,-4
-24,-126,-102,75,39,-114,165,302,268,200,87,-4
-19,-117,-97,68,39,-107,165,302,278,204,92,0
-9,-107,-97,58,43,-102,165,307,283,214,102,14
0,-102,-102,51,51,-102,165,317,287,224,112,24
9,-97,-107,43,58,-102,165,317,297,224,117,34
14,-87,-102,36,58,-95,156,322,297,234,126,39
24,-73,-97,24,61,-85,151,326,297,234,131,48
34,-58,-92,12,63,-75,141,317,297,239,146,58
43,-48,-92,2,68,-70,131,312,297,244,151,73
53,-39,-92,-7,73,-65,122,302,297,244,151,78
63,-24,-87,-19,75,-56,112,297,287,244,156,87
73,-9,-82,-31,78,-46,102,278,283,229,161,92
87,0,-87,-43,87,-43,82,263,273,224,165,107
92,14,-78,-53,85,-31,68,244,248,214,165,122
102,29,-73,-65,87,-21,48,219,234,204,161,126
107,29,-78,-68,92,-24,43,195,214,195,161,126
107,29,-78,-68,92,-24,29,170,195,185,156,131
117,29,-87,-73,102,-29,14,156,185,175,156,136
122,29,-92,-75,107,-31,0,136,170,165,156,136
122,24,-97,-73,109,-36,0,122,156,156,151,136
112,14,-97,-63,104,-41,0,107,136,146,136,126
107,4,-102,-56,104,-48,-4,97,131,136,131,117
102,0,-102,-51,102,-51,-4,87,122,126,122,117
92,-4,-97,-43,95,-51,-4,78,112,122,117,107
82,-14,-97,-34,90,-56,-4,68,102,117,112,102
73,-19,-92,-26,82,-56,-4,58,87,107,102,92
68,-29,-97,-19,82,-63,0,53,78,97,92,87
63,-34,-97,-14,80,-65,0,48,68,92,87,82
53,-39,-92,-7,73,-65,0,39,68,87,87,78
48,-53,-102,2,75,-78,4,39,63,78,73,68
43,-58,-102,7,73,-80,9,34,58,73,68,63
34,-63,-97,14,65,-80,9,39,58,68,58,58
29,-68,-97,19,63,-82,14,39,53,63,48,53
19,-68,-87,24,53,-78,14,34,48,58,43,48
9,-73,-82,31,46,-78,19,34,48,58,43,48
4,-73,-78,34,41,-75,19,34,43,53,39,39
0,-82,-82,41,41,-82,19,34,39,53,39,34
0,-82,-82,41,41,-82,24,34,34,48,34,34
-4,-82,-78,43,36,-80,24,34,34,48,34,29
-9,-82,-73,46,31,-78,24,34,39,48,34,24
-9,-92,-82,51,36,-87,24,34,43,43,34,19
-14,-97,-82,56,34,-90,29,39,39,43,24,19
-14,-102,-87,58,36,-95,29,39,39,43,24,19
-14,-107,-92,61,39,-100,29,34,39,43,24,19
-14,-107,-92,61,39,-100,34,29,43,43,24,14
-9,-102,-92,56,41,-97,34,34,43,43,19,4
-4,-97,-92,51,43,-95,34,34,43,43,19,0
-19,-102,-82,61,31,-92,34,34,43,34,19,0
-29,-107,-78,68,24,-92,34,34,39,29,19,0
-29,-122,-92,75,31,-107,34,43,39,29,9,0
-29,-126,-97,78,34,-112,34,48,43,34,4,0
-34,-131,-97,82,31,-114,39,48,43,34,4,0
-34,-126,-92,80,29,-109,39,48,43,34,4,4
-34,-126,-92,80,29,-109,48,53,43,34,9,0
-29,-126,-97,78,34,-112,53,53,43,34,14,0
-29,-136,-107,82,39,-122,53,53,43,34,14,-4
-29,-136,-107,82,39,-122,53,53,43,34,9,-4
-29,-136,-107,82,39,-122,53,53,43,34,9,-4
-29,-136,-107,82,39,-122,53,53,43,34,9,-4
-39,-141,-102,90,31,-122,53,48,43,34,9,-4
-43,-141,-97,92,26,-119,53,48,43,29,4,-4
-43,-131,-87,87,21,-109,53,43,39,29,4,-9
-43,-131,-87,87,21,-109,53,43,34,29,4,-14
-43,-136,-92,90,24,-114,48,48,34,29,4,-14
-43,-136,-92,90,24,-114,48,48,39,29,4,-14
-43,-136,-92,90,24,-114,48,48,39,29,0,-14
-43,-136,-92,90,24,-114,48,43,34,29,0,-14
-43,-141,-97,92,26,-119,48,43,34,34,0,-9
-43,-146,-102,95,29,-124,53,43,34,34,0,-9
-39,-146,-107,92,34,-126,53,43,34,34,0,-9
-39,-141,-102,90,31,-122,53,39,34,34,0,-9
-34,-126,-92,80,29,-109,48,39,34,34,4,-4
-29,-117,-87,73,29,-102,48,39,39,39,9,0
-29,-107,-78,68,24,-92,48,39,39,39,14,0
-29,-97,-68,63,19,-82,48,39,39,39,19,0
-29,-87,-58,58,14,-73,48,39,39,39,19,4
-29,-82,-53,56,12,-68,53,39,39,39,19,9
-29,-78,-48,53,9,-63,63,43,39,39,19,14
-29,-63,-34,46,2,-48,78,48,48,48,24,19
-29,-53,-24,41,-2,-39,78,53,58,53,24,29
-24,-39,-14,31,-4,-26,78,53,58,53,29,34
-14,-14,0,14,-7,-7,53,29,58,53,39,39
0,0,0,0,0,0,24,14,58,58,43,43
4,0,-4,-2,4,-2,4,-4,53,58,43,43
9,-4,-14,-2,12,-9,-4,-14,48,53,43,48
14,9,-4,-12,9,2,-29,-24,34,53,43,48
19,29,9,-24,4,19,-29,-24,29,53,43,48
24,34,9,-29,7,21,-29,-24,29,53,43,53
39,34,-4,-36,21,14,-29,-24,29,53,48,58
43,4,-39,-24,41,-17,-29,-24,29,53,48,58
43,-29,-73,-7,58,-51,-24,-14,19,48,39,53
24,-48,-73,12,48,-61,-14,-14,19,34,29,39
-19,-68,-48,43,14,-58,9,-4,24,29,24,29
-43,-68,-24,56,-9,-46,29,4,24,29,19,19
-43,-82,-39,63,-2,-61,34,4,19,14,9,9
-43,-102,-58,73,7,-80,39,4,9,14,4,4
-43,-107,-63,75,9,-85,39,4,4,9,4,4
-43,-117,-73,80,14,-95,43,9,4,9,4,0
-43,-131,-87,87,21,-109,43,14,4,9,4,-4
-43,-146,-102,95,29,-124,48,19,9,9,0,-4
-43,-146,-102,95,29,-124,48,19,14,9,0,-9
-43,-146,-102,95,29,-124,48,19,14,4,0,-9
-43,-146,-102,95,29,-124,48,19,14,0,0,-9
-43,-151,-107,97,31,-129,48,19,14,0,0,-9
-48,-151,-102,100,26,-126,53,24,14,0,-4,-14
-48,-161,-112,104,31,-136,53,24,14,4,-4,-14
-48,-161,-112,104,31,-136,53,24,14,9,-4,-14
-48,-161,-112,104,31,-136,53,29,14,9,-4,-9
-48,-161,-112,104,31,-136,58,34,14,9,-4,-4
-48,-161,-112,104,31,-136,58,39,14,9,-4,-4
-48,-161,-112,104,31,-136,58,39,14,9,0,-4
-43,-156,-112,100,34,-134,58,39,19,9,0,0
-39,-156,-117,97,39,-136,58,34,19,14,0,0
-39,-161,-122,100,41,-141,63,34,19,14,0,0
-58,-175,-117,117,29,-146,78,48,19,0,-19,-24
-97,-200,-102,148,2,-151,122,82,34,-9,-58,-68
-151,-209,-58,180,-46,-134,170,117,48,-9,-97,-107
-180,-190,-9,185,-85,-100,214,161,97,9,-92,-122
-180,-68,112,124,-146,21,214,175,204,117,0,-48
-107,82,190,12,-148,136,146,170,322,283,170,112
14,200,185,-107,-85,192,19,87,351,390,336,283
117,287,170,-202,-26,229,-107,-102,244,390,444,424
195,395,200,-295,-2,297,-278,-405,48,312,488,541
307,546,239,-427,34,392,-502,-697,-156,219,522,658
444,741,297,-592,73,519,-732,-980,-375,107,546,790
458,678,219,-568,119,448,-883,-1312,-785,-317,258,663
356,258,-97,-307,226,80,-980,-1654,-1498,-1107,-405,234
253,-87,-341,-82,297,-214,-1010,-1761,-1854,-1512,-775,-53
200,-336,-536,68,368,-436,-878,-1527,-1737,-1444,-800,-170
107,-424,-531,158,319,-478,-668,-1224,-1459,-1254,-741,-229
14,-439,-453,212,234,-446,-463,-878,-1102,-985,-649,-263
-73,-444,-370,258,148,-407,-258,-546,-775,-707,-531,-278
-117,-356,-239,236,61,-297,-87,-278,-488,-463,-366,-234
-117,-258,-141,187,12,-200,-9,-122,-297,-287,-219,-165
-97,-204,-107,151,4,-156,34,-34,-156,-161,-141,-107
-82,-195,-112,139,14,-153,58,0,-78,-97,-112,-73
-63,-195,-131,129,34,-163,78,48,-24,-43,-63,-58
-58,-200,-141,129,41,-170,102,82,4,-19,-19,-39
-53,-200,-146,126,46,-173,112,107,19,0,-19,-34
-53,-200,-146,126,46,-173,117,112,43,19,-14,-34
-58,-200,-141,129,41,-170,122,122,58,34,-9,-34
-63,-200,-136,131,36,-168,126,126,63,34,-4,-34
-63,-200,-136,131,36,-168,131,136,73,39,4,-29
-63,-200,-136,131,36,-168,131,141,82,43,4,-29
-58,-200,-141,129,41,-170,131,151,87,58,4,-29
-58,-200,-141,129,41,-170,131,151,87,58,9,-29
-58,-200,-141,129,41,-170,136,156,87,58,14,-29
-58,-200,-141,129,41,-170,136,161,92,63,14,-34
-58,-200,-141,129,41,-170,136,165,102,68,19,-34
-58,-204,-146,131,43,-175,141,170,102,73,19,-34
-58,-204,-146,131,43,-175,146,180,112,78,24,-34
-53,-204,-151,129,48,-178,146,180,112,78,19,-39
-48,-204,-156,126,53,-180,146,180,112,78,14,-39
-48,-204,-156,126,53,-180,146,180,122,78,14,-34
-48,-204,-156,126,53,-180,146,180,122,78,14,-34
-53,-204,-151,129,48,-178,151,185,131,82,14,-34
-58,-204,-146,131,43,-175,156,195,146,87,19,-34
-58,-204,-146,131,43,-175,156,200,151,97,24,-34
-58,-200,-141,129,41,-170,161,200,161,102,24,-34
-58,-195,-136,126,39,-165,161,214,165,102,29,-34
-58,-190,-131,124,36,-161,161,219,170,122,34,-29
-53,-190,-136,122,41,-163,165,229,180,122,43,-29
-53,-190,-136,122,41,-163,165,244,185,131,48,-29
-43,-190,-146,117,51,-168,165,253,195,136,53,-24
-43,-185,-141,114,48,-163,165,263,200,141,63,-24
-39,-180,-141,109,51,-161,165,268,214,156,63,-24
-39,-180,-141,109,51,-161,170,278,229,165,68,-19
-39,-175,-136,107,48,-156,175,287,234,175,73,-14
-34,-170,-136,102,51,-153,180,297,244,185,78,-9
-29,-161,-131,95,51,-146,185,312,253,195,82,4
-24,-156,-131,90,53,-143,185,322,268,204,92,14
-14,-146,-131,80,58,-139,185,331,278,209,97,14
-9,-136,-126,73,58,-131,185,331,287,214,102,19
0,-126,-126,63,63,-126,185,331,287,224,112,29
9,-117,-126,53,68,-122,180,336,287,234,122,34
19,-102,-122,41,70,-112,175,336,297,234,126,43
24,-87,-112,31,68,-100,165,336,297,244,136,48
34,-73,-107,19,70,-90,161,341,297,244,141,58
43,-58,-102,7,73,-80,151,331,297,244,151,68
53,-48,-102,-2,78,-75,141,322,297,244,151,82
63,-39,-102,-12,82,-70,131,312,292,244,151,87
73,-24,-97,-24,85,-61,117,302,278,239,156,97
82,-9,-92,-36,87,-51,102,278,273,224,161,102
97,4,-92,-51,95,-43,82,263,263,224,165,117
102,19,-82,-61,92,-31,68,244,244,214,165,126
112,29,-82,-70,97,-26,48,219,229,204,161,126
117,29,-87,-73,102,-29,43,200,204,195,161,126
117,29,-87,-73,102,-29,29,180,185,185,156,131
122,29,-92,-75,107,-31,19,165,175,175,151,136
122,29,-92,-75,107,-31,9,141,161,165,146,136
122,24,-97,-73,109,-36,9,122,146,156,141,136
117,14,-102,-65,109,-43,9,107,126,146,126,126
117,4,-112,-61,114,-53,4,97,122,136,122,112
112,0,-112,-56,112,-56,0,87,112,126,112,107
102,-4,-107,-48,104,-56,-4,78,102,117,107,97
92,-19,-112,-36,102,-65,-4,68,92,107,102,92
82,-29,-112,-26,97,-70,-4,58,82,97,92,82
78,-39,-117,-19,97,-78,4,53,78,87,82,78
68,-39,-107,-14,87,-73,9,53,68,82,78,73
53,-39,-92,-7,73,-65,9,48,68,78,78,68
48,-53,-102,2,75,-78,14,48,63,73,63,58
48,-63,-112,7,80,-87,19,43,58,78,63,53
43,-73,-117,14,80,-95,19,43,58,78,63,48
39,-78,-117,19,78,-97,24,39,53,73,58,43
34,-78,-112,21,73,-95,24,34,48,68,53,39
29,-82,-112,26,70,-97,29,34,48,63,48,39
24,-82,-107,29,65,-95,29,34,48,53,39,34
14,-92,-107,39,61,-100,29,34,48,53,39,34
9,-92,-102,41,56,-97,34,34,43,48,34,34
4,-87,-92,41,48,-90,34,34,43,48,34,29
0,-82,-82,41,41,-82,34,34,43,48,34,24
0,-92,-92,46,46,-92,29,34,43,43,34,19
-4,-92,-87,48,41,-90,29,39,39,43,24,19
-4,-92,-87,48,41,-90,29,39,39,43,24,19
-4,-97,-92,51,43,-95,29,39,39,43,24,19
-4,-97,-92,51,43,-95,39,39,43,43,24,14
-4,-97,-92,51,43,-95,43,43,43,43,19,9
0,-97,-97,48,48,-97,43,43,43,48,19,4
-9,-102,-92,56,41,-97,48,43,43,43,19,0
-19,-107,-87,63,34,-97,48,43,39,39,19,0
-19,-117,-97,68,39,-107,43,48,39,39,14,0
-19,-122,-102,70,41,-112,43,48,43,39,14,0
-24,-126,-102,75,39,-114,48,48,43,34,14,-4
-19,-117,-97,68,39,-107,48,43,43,34,9,-4
-19,-117,-97,68,39,-107,53,43,43,34,4,-9
-19,-112,-92,65,36,-102,53,43,43,34,4,-9
-19,-117,-97,68,39,-107,53,43,43,34,4,-14
-24,-117,-92,70,34,-104,53,48,39,34,0,-14
-29,-117,-87,73,29,-102,53,53,34,34,0,-14
-29,-117,-87,73,29,-102,53,53,34,34,0,-14
-34,-122,-87,78,26,-104,53,48,34,34,0,-14
-34,-122,-87,78,26,-104,53,48,34,29,-4,-14
-34,-112,-78,73,21,-95,53,43,29,29,-4,-14
-34,-112,-78,73,21,-95,53,43,24,29,-4,-14
-34,-117,-82,75,24,-100,48,48,24,29,-4,-14
-34,-117,-82,75,24,-100,48,48,29,29,-4,-14
-34,-117,-82,75,24,-100,48,48,29,29,-4,-14
-34,-112,-78,73,21,-95,48,43,24,29,0,-14
-34,-112,-78,73,21,-95,48,43,24,29,0,-9
-34,-117,-82,75,24,-100,53,43,24,24,0,-9
-29,-117,-87,73,29,-102,53,43,24,24,0,-9
-29,-112,-82,70,26,-97,53,43,24,24,0,-9
-29,-112,-82,70,26,-97,53,39,24,24,-4,-9
-29,-107,-78,68,24,-92,48,34,19,19,-4,-9
-24,-107,-82,65,29,-95,48,29,19,19,0,0
-24,-97,-73,61,24,-85,48,29,24,24,4,0
-29,-87,-58,58,14,-73,48,29,29,29,9,0
-29,-78,-48,53,9,-63,43,29,34,29,14,4
-29,-68,-39,48,4,-53,39,29,39,29,19,9
-24,-58,-34,41,4,-46,39,29,39,29,19,9
-19,-53,-34,36,7,-43,43,34,39,29,19,9
-19,-48,-29,34,4,-39,53,39,39,29,19,9
-19,-34,-14,26,-2,-24,68,48,48,39,24,9
-19,-24,-4,21,-7,-14,73,53,58,48,24,19
-14,-9,4,12,-9,-2,78,53,58,53,29,24
-4,14,19,-4,-12,17,53,34,63,53,39,34
9,29,19,-19,-4,24,24,24,68,58,43,43
14,34,19,-24,-2,26,4,4,63,58,43,43
19,34,14,-26,2,24,-4,-4,58,53,43,48
24,48,24,-36,0,36,-29,-19,43,53,43,48
29,68,39,-48,-4,53,-29,-24,39,53,43,48
34,73,39,-53,-2,56,-29,-24,39,53,43,58
48,73,24,-61,12,48,-29,-24,39,53,48,68
58,53,-4,-56,31,24,-34,-24,39,53,58,68
63,29,-34,-46,48,-2,-34,-14,29,48,58,63
43,9,-34,-26,39,-12,-24,-14,24,39,39,48
0,-9,-9,4,4,-9,0,-4,24,39,24,39
-29,-14,14,21,-21,0,19,0,24,39,19,24
-34,-34,0,34,-17,-17,24,-4,19,24,9,9
-34,-53,-19,43,-7,-36,29,-4,9,19,4,4
-34,-58,-24,46,-4,-41,29,-4,4,9,4,4
-34,-68,-34,51,0,-51,34,0,4,9,4,0
-34,-82,-48,58,7,-65,34,4,4,9,4,-4
-34,-97,-63,65,14,-80,39,9,4,9,0,-4
-34,-97,-63,65,14,-80,39,9,4,9,0,-9
-34,-97,-63,65,14,-80,39,9,4,9,0,-9
-34,-97,-63,65,14,-80,39,9,4,9,0,-9
-34,-102,-68,68,17,-85,39,9,4,9,0,-9
-39,-102,-63,70,12,-82,43,14,4,9,-4,-14
-39,-112,-73,75,17,-92,43,14,4,4,-4,-14
-39,-112,-73,75,17,-92,43,14,4,0,-4,-14
-39,-107,-68,73,14,-87,43,14,4,0,-9,-14
-39,-102,-63,70,12,-82,48,14,4,0,-14,-14
-39,-102,-63,70,12,-82,48,19,4,4,-14,-14
-39,-102,-63,70,12,-82,48,19,4,9,-9,-14
-39,-102,-63,70,12,-82,48,24,9,9,-4,-9
-39,-107,-68,73,14,-87,48,24,9,14,0,-9
-34,-112,-78,73,21,-95,48,24,9,24,9,-4
-48,-126,-78,87,14,-102,58,39,9,19,0,-24
-87,-151,-63,119,-12,-107,102,63,14,-4,-48,-68
-141,-161,-19,151,-61,-90,151,87,19,-19,-97,-107
-185,-175,9,180,-97,-82,209,146,48,-24,-126,-156
-200,-87,112,143,-156,12,224,175,136,58,-68,-117
-141,73,214,34,-178,143,180,204,307,248,107,34
-34,200,234,-82,-134,217,78,156,390,380,278,195
78,292,214,-185,-68,253,-34,-4,317,409,405,346
165,405,239,-285,-36,322,-190,-278,156,361,468,473
283,570,287,-427,-2,429,-424,-570,-19,326,556,629
424,780,356,-602,34,568,-663,-854,-209,273,634,800
468,800,331,-634,68,566,-854,-1224,-610,-122,400,732
395,463,68,-429,163,265,-990,-1605,-1312,-883,-209,361
292,68,-224,-180,258,-78,-1063,-1830,-1825,-1454,-707,9
239,-229,-468,-4,353,-348,-976,-1712,-1864,-1551,-858,-170
146,-351,-497,102,322,-424,-775,-1405,-1610,-1376,-805,-234
53,-400,-453,173,253,-427,-580,-1054,-1278,-1122,-717,-273
-48,-409,-361,229,156,-385,-351,-683,-917,-824,-605,-307
-107,-326,-219,217,56,-273,-156,-375,-595,-561,-444,-283
-112,-229,-117,170,2,-173,-58,-190,-375,-356,-273,-200
-97,-175,-78,136,-9,-126,4,-73,-204,-200,-170,-126
-82,-156,-73,119,-4,-114,34,-34,-112,-126,-136,-92
-63,-146,-82,104,9,-114,58,19,-43,-63,-82,-78
-58,-151,-92,104,17,-122,78,58,-14,-34,-34,-58
-53,-151,-97,102,21,-124,82,87,0,-9,-29,-53
-48,-146,-97,97,24,-122,87,92,24,4,-29,-53
-48,-141,-92,95,21,-117,92,102,39,14,-29,-53
-53,-141,-87,97,17,-114,97,107,39,14,-24,-53
-53,-141,-87,97,17,-114,102,117,43,19,-14,-48
-53,-141,-87,97,17,-114,107,122,53,24,-14,-48
-48,-141,-92,95,21,-117,112,131,58,39,-14,-48
-48,-141,-92,95,21,-117,112,131,63,39,-9,-48
-48,-141,-92,95,21,-117,117,136,68,39,-4,-48
-48,-141,-92,95,21,-117,117,141,73,43,-4,-48
-48,-141,-92,95,21,-117,117,146,82,48,0,-43
-48,-146,-97,97,24,-122,122,151,82,53,0,-43
-48,-146,-97,97,24,-122,126,161,92,58,4,-43
-48,-146,-97,97,24,-122,126,161,92,58,4,-48
-48,-146,-97,97,24,-122,126,161,92,58,4,-48
-48,-146,-97,97,24,-122,126,165,102,58,4,-43
-48,-146,-97,97,24,-122,126,170,102,58,4,-43
-48,-146,-97,97,24,-122,131,175,107,63,4,-43
-48,-146,-97,97,24,-122,136,185,117,68,9,-43
-48,-146,-97,97,24,-122,136,190,122,73,14,-43
-48,-141,-92,95,21,-117,141,190,131,73,14,-43
-48,-141,-92,95,21,-117,141,204,136,73,19,-43
-48,-141,-92,95,21,-117,141,209,141,92,24,-39
-43,-141,-97,92,26,-119,146,214,151,92,29,-39
-43,-141,-97,92,26,-119,146,224,156,102,29,-39
-34,-141,-107,87,36,-124,146,239,170,107,29,-34
-34,-136,-102,85,34,-119,146,253,180,112,34,-34
-29,-131,-102,80,36,-117,146,258,195,122,39,-34
-29,-131,-102,80,36,-117,151,268,209,126,48,-29
-34,-126,-92,80,29,-109,151,278,209,131,53,-29
-34,-122,-87,78,26,-104,151,287,214,136,58,-29
-29,-112,-82,70,26,-97,156,297,219,146,63,-19
-24,-107,-82,65,29,-95,156,302,229,156,73,-14
-14,-92,-78,53,31,-85,156,312,239,161,78,-19
-9,-78,-68,43,29,-73,156,312,248,165,82,-19
0,-68,-68,34,34,-68,156,317,253,175,87,-4
9,-58,-68,24,39,-63,151,326,258,185,92,4
24,-48,-73,12,48,-61,146,326,268,185,97,14
34,-39,-73,2,53,-56,136,326,268,195,107,19
43,-24,-68,-9,56,-46,131,326,268,195,112,29
53,-9,-63,-21,58,-36,122,312,268,195,122,39
63,0,-63,-31,63,-31,112,307,268,200,122,53
73,9,-63,-41,68,-26,102,302,263,204,122,58
82,24,-58,-53,70,-17,92,297,248,204,126,68
92,39,-53,-65,73,-7,82,278,244,195,131,73
107,53,-53,-80,80,0,63,258,234,195,136,87
112,68,-43,-90,78,12,48,234,214,185,136,97
122,82,-39,-102,80,21,29,209,204,175,131,97
126,87,-39,-107,82,24,24,190,185,165,131,97
126,87,-39,-107,82,24,9,170,165,156,126,102
131,87,-43,-109,87,21,0,156,156,146,122,107
136,87,-48,-112,92,19,-9,136,141,136,122,107
141,82,-58,-112,100,12,-9,122,126,126,122,107
131,73,-58,-102,95,7,-14,102,107,117,107,102
126,63,-63,-95,95,0,-24,87,102,107,102,92
122,58,-63,-90,92,-2,-24,78,97,97,92,87
112,53,-58,-82,85,-2,-24,68,92,87,87,78
102,39,-63,-70,82,-12,-24,58,82,82,87,78
92,29,-63,-61,78,-17,-24,48,73,78,82,73
87,19,-68,-53,78,-24,-19,43,68,68,73,68
78,19,-58,-48,68,-19,-19,43,58,63,68,63
63,19,-43,-41,53,-12,-19,34,53,53,63,58
58,4,-53,-31,56,-24,-14,29,43,43,43,48
53,0,-53,-26,53,-26,-9,24,39,43,39,43
43,-4,-48,-19,46,-26,-9,24,39,39,34,39
34,-9,-43,-12,39,-26,-4,19,34,39,29,29
24,-9,-34,-7,29,-21,-4,14,29,39,24,19
19,-9,-29,-4,24,-19,0,14,29,39,24,19
14,-4,-19,-4,17,-12,0,14,29,34,19,14
14,-14,-29,0,21,-21,0,14,29,34,19,14
19,-14,-34,-2,26,-24,4,14,24,29,14,14
14,-14,-29,0,21,-21,4,14,24,29,14,9
9,-14,-24,2,17,-19,4,14,24,29,14,4
9,-24,-34,7,21,-29,0,14,24,24,14,0
4,-24,-29,9,17,-26,0,19,19,24,4,0
4,-29,-34,12,19,-31,0,19,14,14,0,-4
4,-39,-43,17,24,-41,0,19,9,4,-4,-9
4,-39,-43,17,24,-41,4,14,14,4,-4,-14
4,-39,-43,17,24,-41,4,14,14,4,-9,-19
4,-39,-43,17,24,-41,4,14,14,14,-4,-19
-9,-43,-34,26,12,-39,9,14,14,14,0,-19
-19,-43,-24,31,2,-34,14,14,9,9,0,-19
-19,-48,-29,34,4,-39,14,19,9,9,-4,-19
-19,-48,-29,34,4,-39,14,19,14,14,-9,-19
-24,-48,-24,36,0,-36,19,19,14,14,-14,-24
-24,-39,-14,31,-4,-26,19,19,14,9,-14,-24
-29,-39,-9,34,-9,-24,24,24,14,4,-14,-29
-29,-39,-9,34,-9,-24,24,24,14,4,-14,-29
-29,-48,-19,39,-4,-34,24,24,14,4,-14,-34
-29,-53,-24,41,-2,-39,24,24,14,4,-14,-34
-29,-58,-29,43,0,-43,24,24,14,4,-9,-34
-24,-58,-34,41,4,-46,24,24,14,4,-9,-34
-24,-63,-39,43,7,-51,24,19,14,4,-9,-34
-24,-63,-39,43,7,-51,24,19,14,0,-14,-34
-24,-53,-29,39,2,-41,24,14,9,0,-14,-34
-29,-53,-24,41,-2,-39,29,14,4,0,-14,-34
-34,-58,-24,46,-4,-41,29,19,4,0,-14,-34
-34,-53,-19,43,-7,-36,29,19,9,0,-19,-34
-34,-48,-14,41,-9,-31,29,19,9,0,-24,-34
-34,-43,-9,39,-12,-26,24,14,4,0,-19,-34
-34,-43,-9,39,-12,-26,19,14,4,0,-19,-29
-34,-48,-14,41,-9,-31,24,14,4,-4,-19,-29
-29,-48,-19,39,-4,-34,24,14,4,-4,-19,-29
-29,-43,-14,36,-7,-29,24,14,4,-4,-19,-34
-29,-43,-14,36,-7,-29,24,9,4,-4,-24,-39
-29,-43,-14,36,-7,-29,14,9,4,-4,-24,-39
-24,-48,-24,36,0,-36,9,9,9,0,-19,-29
-24,-39,-14,31,-4,-26,9,9,4,4,-14,-24
-24,-34,-9,29,-7,-21,9,9,4,9,-9,-19
-19,-19,0,19,-9,-9,14,9,4,9,-9,-19
-19,-9,9,14,-14,0,19,9,9,9,-9,-19
-19,0,19,9,-19,9,19,9,14,9,-4,-19
-19,9,29,4,-24,19,19,9,19,9,0,-19
-19,9,29,4,-24,19,24,9,19,9,0,-14
-19,14,34,2,-26,24,34,14,24,14,0,-9
-19,24,43,-2,-31,34,43,19,29,19,4,-9
-19,34,53,-7,-36,43,48,24,39,24,4,0
-9,48,58,-19,-34,53,48,24,39,24,4,4
4,73,68,-39,-31,70,24,4,39,24,9,14
19,92,73,-56,-26,82,-4,-4,39,29,14,24
24,102,78,-63,-26,90,-24,-24,34,29,14,24
29,107,78,-68,-24,92,-39,-34,29,24,14,29
34,126,92,-80,-29,109,-68,-48,14,19,14,29
39,146,107,-92,-34,126,-68,-53,9,14,19,29
43,151,107,-97,-31,129,-68,-53,9,14,24,34
58,151,92,-104,-17,122,-68,-53,9,14,29,39
63,126,63,-95,0,95,-68,-53,9,14,29,39
63,97,34,-80,14,65,-63,-43,0,9,19,34
43,78,34,-61,4,56,-53,-43,-4,0,9,19
0,58,58,-29,-29,58,-29,-34,-4,0,4,9
-24,53,78,-14,-51,65,-9,-24,-4,0,0,0
-24,34,58,-4,-41,46,-4,-24,-9,-14,-14,-14
-24,14,39,4,-31,26,0,-24,-14,-14,-24,-24
-24,0,24,12,-24,12,0,-24,-14,-19,-24,-24
-24,-19,4,21,-14,-7,4,-19,-14,-19,-24,-29
-24,-24,0,24,-12,-12,4,-14,-14,-19,-24,-34
-24,-29,-4,26,-9,-17,9,-9,-14,-19,-29,-34
-24,-29,-4,26,-9,-17,9,-9,-14,-19,-29,-39
-24,-29,-4,26,-9,-17,9,-9,-14,-19,-29,-39
-29,-29,0,29,-14,-14,9,-9,-14,-19,-29,-39
-34,-34,0,34,-17,-17,9,-9,-14,-19,-29,-39
-39,-29,9,34,-24,-9,14,-4,-14,-19,-34,-43
-39,-34,4,36,-21,-14,14,-4,-14,-19,-34,-43
-39,-34,4,36,-21,-14,14,-4,-14,-19,-34,-43
-39,-34,4,36,-21,-14,14,-4,-14,-19,-34,-43
-39,-34,4,36,-21,-14,19,-4,-14,-19,-34,-43
-39,-34,4,36,-21,-14,19,0,-14,-19,-34,-43
-39,-39,0,39,-19,-19,19,0,-14,-19,-29,-43
-39,-43,-4,41,-17,-24,19,4,-9,-19,-29,-39
-34,-48,-14,41,-9,-31,19,4,-9,-14,-29,-39
-29,-53,-24,41,-2,-39,24,4,-9,-14,-29,-39
-48,-68,-19,58,-14,-43,43,24,-9,-24,-43,-63
-87,-92,-4,90,-41,-48,92,63,4,-29,-78,-107
-146,-102,43,124,-95,-29,141,97,24,-29,-117,-146
-180,-87,92,134,-136,2,185,146,78,-9,-117,-161
-180,29,209,75,-195,119,185,170,185,97,-29,-87
-112,180,292,-34,-202,236,131,175,307,263,136,63
-4,297,302,-146,-153,300,24,97,346,366,287,219
87,390,302,-239,-107,346,-92,-73,258,361,385,356
185,502,317,-344,-65,409,-258,-356,78,283,429,468
317,653,336,-485,-9,495,-483,-649,-112,204,473,590
444,839,395,-641,24,617,-707,-941,-317,97,492,722
448,771,322,-610,63,546,-863,-1283,-717,-317,209,600
336,366,29,-351,153,197,-971,-1625,-1410,-1068,-419,195
224,43,-180,-134,202,-68,-1005,-1761,-1781,-1478,-790,-82
170,-185,-356,7,263,-270,-883,-1561,-1698,-1434,-824,-200
78,-268,-346,95,212,-307,-688,-1268,-1444,-1249,-761,-258
-14,-273,-258,143,122,-265,-497,-927,-1107,-990,-668,-283
-97,-273,-175,185,39,-224,-297,-595,-785,-722,-556,-297
-126,-204,-78,165,-24,-141,-131,-322,-502,-483,-395,-263
-117,-136,-19,126,-48,-78,-53,-161,-317,-307,-248,-195
-97,-87,9,92,-53,-39,-4,-73,-180,-185,-170,-136
-82,-68,14,75,-48,-26,19,-39,-112,-126,-141,-107
-58,-68,-9,63,-24,-39,39,9,-63,-78,-92,-97
-48,-73,-24,61,-12,-48,58,43,-34,-58,-48,-78
-43,-73,-29,58,-7,-51,63,68,-19,-43,-53,-73
-39,-73,-34,56,-2,-53,68,73,4,-34,-58,-73
-39,-73,-34,56,-2,-53,68,78,14,-24,-58,-78
-43,-73,-29,58,-7,-51,68,78,9,-24,-53,-82
-43,-73,-29,58,-7,-51,73,87,14,-14,-43,-78
-43,-73,-29,58,-7,-51,78,92,24,-4,-43,-78
-39,-68,-29,53,-4,-48,82,102,29,9,-43,-78
-39,-63,-24,51,-7,-43,82,102,34,9,-39,-78
-39,-63,-24,51,-7,-43,87,107,39,9,-34,-78
-39,-63,-24,51,-7,-43,87,112,43,14,-34,-78
-39,-63,-24,51,-7,-43,87,117,53,19,-29,-73
-39,-68,-29,53,-4,-48,92,122,53,24,-29,-73
-39,-68,-29,53,-4,-48,97,131,63,29,-24,-73
-39,-68,-29,53,-4,-48,97,131,63,29,-24,-78
-39,-73,-34,56,-2,-53,97,131,63,29,-24,-78
-39,-78,-39,58,0,-58,97,136,73,34,-24,-73
-39,-78,-39,58,0,-58,97,141,73,34,-24,-73
-39,-78,-39,58,0,-58,102,146,78,34,-24,-73
-39,-73,-34,56,-2,-53,102,156,87,39,-19,-73
-39,-68,-29,53,-4,-48,97,161,92,43,-14,-73
-39,-63,-24,51,-7,-43,102,156,97,48,-14,-73
-39,-63,-24,51,-7,-43,102,165,97,53,-9,-73
-39,-63,-24,51,-7,-43,102,170,102,73,-4,-68
-34,-63,-29,48,-2,-46,107,175,112,73,0,-68
-34,-63,-29,48,-2,-46,107,185,117,82,9,-58
-24,-63,-39,43,7,-51,107,195,126,87,24,-43
-24,-58,-34,41,4,-46,107,204,126,82,19,-53
-19,-53,-34,36,7,-43,107,209,136,82,9,-63
-19,-53,-34,36,7,-43,112,219,151,87,19,-58
-19,-48,-29,34,4,-39,112,229,156,97,24,-53
-14,-43,-29,29,7,-36,112,239,170,107,34,-48
-9,-34,-24,21,7,-29,117,248,180,117,43,-39
-4,-29,-24,17,9,-26,112,253,190,126,53,-34
4,-19,-24,7,14,-21,107,263,200,131,58,-34
9,-9,-19,0,14,-14,107,258,209,136,63,-29
19,0,-19,-9,19,-9,107,258,214,146,73,-14
29,9,-19,-19,24,-4,107,268,219,161,82,-4
39,19,-19,-29,29,0,107,268,229,165,87,4
43,24,-19,-34,31,2,97,273,224,175,92,0
53,34,-19,-43,36,7,92,278,219,175,92,0
63,48,-14,-56,39,17,82,263,219,175,102,19
73,58,-14,-65,43,21,73,253,219,175,102,43
82,68,-14,-75,48,26,58,244,219,175,102,48
92,82,-9,-87,51,36,43,239,209,175,107,58
102,97,-4,-100,53,46,34,219,204,165,112,63
117,107,-9,-112,63,48,14,204,195,165,117,78
122,117,-4,-119,63,56,0,190,175,156,122,87
131,126,-4,-129,68,61,-19,170,165,146,122,87
136,126,-9,-131,73,58,-14,151,151,136,122,82
136,126,-9,-131,73,58,-19,131,136,126,117,82
141,126,-14,-134,78,56,-29,117,131,122,112,87
141,126,-14,-134,78,56,-39,97,122,117,107,87
141,131,-9,-136,75,61,-43,82,107,107,102,92
131,131,0,-131,65,65,-48,68,87,97,87,87
126,122,-4,-124,65,58,-53,58,82,87,82,73
122,117,-4,-119,63,56,-53,48,73,78,73,68
107,112,4,-109,51,58,-53,39,63,68,68,58
92,102,9,-97,41,56,-53,29,53,58,63,53
82,92,9,-87,36,51,-53,14,39,48,53,43
78,78,0,-78,39,39,-48,4,29,39,43,39
63,78,14,-70,24,46,-48,4,19,34,39,34
43,78,34,-61,4,56,-48,0,19,29,39,29
39,63,24,-51,7,43,-43,0,14,19,24,14
34,58,24,-46,4,41,-39,-4,9,14,19,4
24,53,29,-39,-2,41,-34,-4,9,9,14,0
19,48,29,-34,-4,39,-24,-9,4,4,9,-4
19,48,29,-34,-4,39,-24,-14,0,4,4,-9
19,43,24,-31,-2,34,-19,-14,0,9,4,-9
14,43,29,-29,-7,36,-19,-14,0,4,0,-14
9,34,24,-21,-7,29,-19,-14,0,4,0,-14
9,34,24,-21,-7,29,-14,-14,-4,0,-4,-14
4,34,29,-19,-12,31,-14,-14,-4,0,-4,-19
-4,34,39,-14,-21,36,-14,-14,-4,-4,-9,-24
-9,24,34,-7,-21,29,-14,-14,-4,-14,-14,-29
-14,24,39,-4,-26,31,-9,-9,-9,-14,-24,-29
-14,24,39,-4,-26,31,-9,-9,-9,-14,-24,-29
-14,19,34,-2,-24,26,-9,-9,-9,-9,-24,-29
-14,19,34,-2,-24,26,-4,-9,-4,-4,-24,-34
-14,19,34,-2,-24,26,-4,-4,-4,-4,-29,-39
-14,19,34,-2,-24,26,-4,-4,-4,-4,-29,-39
-24,19,43,2,-34,31,0,-4,-4,-9,-24,-39
-29,19,48,4,-39,34,4,-4,-9,-9,-19,-39
-29,9,39,9,-34,24,4,0,-9,-9,-24,-39
-29,9,39,9,-34,24,4,0,-4,-4,-24,-39
-29,4,34,12,-31,19,9,0,-4,-9,-29,-43
-24,9,34,7,-29,21,9,0,-4,-14,-34,-43
-29,9,39,9,-34,24,9,4,-4,-14,-34,-48
-29,9,39,9,-34,24,4,4,-4,-14,-34,-48
-29,0,29,14,-29,14,4,4,-4,-14,-34,-53
-29,0,29,14,-29,14,4,4,-4,-14,-39,-53
-29,0,29,14,-29,14,4,4,-4,-14,-34,-53
-29,0,29,14,-29,14,4,4,-4,-14,-29,-53
-39,0,39,19,-39,19,4,0,-4,-14,-29,-53
-43,4,48,19,-46,26,4,0,-4,-19,-34,-53
-43,14,58,14,-51,36,9,-4,-9,-19,-34,-53
-43,14,58,14,-51,36,14,-4,-14,-19,-34,-53
-39,0,39,19,-39,19,9,0,-14,-9,-34,-53
-34,-9,24,21,-29,7,9,0,-9,0,-34,-53
-34,4,39,14,-36,21,4,0,-9,-9,-43,-58
-34,19,53,7,-43,36,0,-4,-14,-19,-48,-63
-39,14,53,12,-46,34,0,-9,-14,-19,-48,-58
-43,9,53,17,-48,31,4,-14,-14,-24,-48,-58
-39,0,39,19,-39,19,4,-14,-14,-24,-39,-53
-39,-4,34,21,-36,14,4,-19,-14,-24,-29,-48
-39,0,39,19,-39,19,0,-14,-14,-19,-24,-43
-39,4,43,17,-41,24,0,-9,-14,-19,-24,-43
-34,14,48,9,-41,31,0,-9,-9,-14,-24,-39
-29,29,58,0,-43,43,0,-9,-9,-9,-29,-39
-29,39,68,-4,-48,53,0,-9,-4,-9,-29,-39
-29,48,78,-9,-53,63,0,-9,0,-9,-29,-39
-24,48,73,-12,-48,61,4,-14,0,-9,-29,-39
-19,58,78,-19,-48,68,9,-9,0,-4,-24,-39
-19,73,92,-26,-56,82,19,-9,4,0,-24,-43
-19,92,112,-36,-65,102,19,-4,9,4,-24,-39
-24,92,117,-34,-70,104,29,0,9,4,-19,-34
-24,102,126,-39,-75,114,14,-14,9,4,-9,-24
0,126,126,-63,-63,126,-14,-19,14,9,-4,-9
14,141,126,-78,-56,134,-34,-34,14,9,-4,-4
19,141,122,-80,-51,131,-43,-43,9,9,-4,0
24,156,131,-90,-53,143,-68,-58,-4,9,-4,0
29,180,151,-104,-61,165,-73,-68,-9,4,0,0
34,190,156,-112,-61,173,-78,-73,-9,4,4,4
48,200,151,-124,-51,175,-82,-78,-9,4,9,9
53,185,131,-119,-39,158,-87,-82,-9,4,9,9
53,156,102,-104,-24,129,-87,-73,-19,-4,0,4
34,136,102,-85,-34,119,-82,-73,-24,-19,-9,-9
-9,107,117,-48,-63,112,-58,-63,-24,-19,-14,-14
-34,92,126,-29,-80,109,-39,-53,-24,-19,-19,-19
-34,73,107,-19,-70,90,-29,-53,-29,-34,-34,-29
-34,53,87,-9,-61,70,-19,-53,-34,-34,-43,-34
-34,48,82,-7,-58,65,-19,-53,-34,-39,-43,-34
-34,39,73,-2,-53,56,-14,-48,-34,-39,-43,-39
-39,19,58,9,-48,39,-14,-39,-34,-39,-43,-43
-43,0,43,21,-43,21,-9,-29,-34,-39,-48,-43
-43,0,43,21,-43,21,-9,-29,-34,-39,-39,-48
-43,0,43,21,-43,21,-9,-29,-34,-39,-29,-48
-43,0,43,21,-43,21,-9,-34,-34,-43,-43,-53
-43,-4,39,24,-41,17,-9,-39,-34,-48,-58,-58
-48,-4,43,26,-46,19,-4,-34,-34,-48,-53,-63
-48,-14,34,31,-41,9,-4,-34,-34,-48,-43,-63
-43,-9,34,26,-39,12,-4,-29,-34,-48,-43,-58
-39,-4,34,21,-36,14,-4,-24,-34,-48,-43,-53
-39,-4,34,21,-36,14,0,-24,-34,-48,-43,-53
-39,-4,34,21,-36,14,0,-19,-34,-48,-43,-53
-39,-4,34,21,-36,14,0,-24,-34,-43,-39,-53
-39,-4,34,21,-36,14,0,-24,-29,-39,-39,-48
-34,-9,24,21,-29,7,0,-24,-29,-34,-34,-43
-29,-14,14,21,-21,0,4,-24,-29,-34,-29,-39
-39,-34,4,36,-21,-14,4,-14,-29,-48,-48,-63
-68,-63,4,65,-36,-29,34,14,-14,-58,-87,-107
-131,-102,29,117,-80,-36,102,48,-29,-87,-151,-170
-170,-117,53,143,-112,-31,165,97,-9,-97,-175,-209
-209,-14,195,112,-202,90,195,146,112,-4,-122,-175
-180,122,302,29,-241,212,170,175,248,146,9,-63
-68,239,307,-85,-187,273,82,161,351,307,190,107
29,331,302,-180,-136,317,-14,53,326,361,317,258
97,419,322,-258,-112,370,-151,-195,175,302,370,375
200,546,346,-373,-73,446,-346,-453,14,244,424,502
395,907,512,-651,-58,710,-600,-707,-48,351,668,810
468,1015,546,-741,-39,780,-785,-1010,-307,151,610,863
366,600,234,-483,65,417,-966,-1493,-1171,-790,-151,405
263,268,4,-265,129,136,-1073,-1771,-1712,-1390,-653,73
209,-39,-248,-85,229,-143,-995,-1664,-1766,-1473,-775,-92
117,-200,-317,41,217,-258,-844,-1464,-1649,-1415,-800,-200
19,-244,-263,112,141,-253,-649,-1122,-1317,-1171,-732,-258
-68,-283,-214,175,73,-248,-444,-790,-1000,-917,-644,-307
-117,-214,-97,165,-9,-156,-234,-468,-668,-639,-473,-283
-126,-146,-19,136,-53,-82,-112,-258,-434,-424,-317,-224
-107,-92,14,100,-61,-39,-53,-146,-263,-278,-224,-165
-92,-68,24,80,-58,-21,-19,-87,-161,-195,-180,-136
-73,-68,4,70,-39,-31,9,-34,-102,-122,-122,-112
-68,-73,-4,70,-31,-39,39,4,-63,-78,-68,-78
-63,-78,-14,70,-24,-46,43,34,-43,-58,-68,-73
-58,-82,-24,70,-17,-53,48,43,-14,-43,-68,-73
-58,-82,-24,70,-17,-53,53,53,0,-39,-68,-82
-63,-82,-19,73,-21,-51,58,58,0,-43,-63,-92
-63,-82,-19,73,-21,-51,63,68,9,-39,-48,-87
-63,-82,-19,73,-21,-51,68,73,24,-34,-43,-87
-58,-82,-24,70,-17,-53,73,82,29,-14,-43,-82
-58,-82,-24,70,-17,-53,73,82,34,-9,-39,-78
-58,-82,-24,70,-17,-53,78,87,39,-9,-34,-78
-58,-82,-24,70,-17,-53,78,92,43,-4,-34,-78
-58,-82,-24,70,-17,-53,78,97,53,0,-29,-73
-58,-87,-29,73,-14,-58,82,102,53,4,-29,-73
-53,-82,-29,68,-12,-56,87,112,63,9,-24,-73
-48,-78,-29,63,-9,-53,87,112,63,9,-24,-78
-48,-78,-29,63,-9,-53,87,112,63,9,-24,-78
-48,-78,-29,63,-9,-53,87,117,73,14,-24,-73
-48,-82,-34,65,-7,-58,87,122,73,19,-24,-73
-48,-87,-39,68,-4,-63,92,126,78,24,-24,-73
-53,-87,-34,70,-9,-61,97,136,87,29,-19,-73
-58,-87,-29,73,-14,-58,97,141,92,34,-14,-73
-58,-87,-29,73,-14,-58,102,141,102,34,-14,-73
-58,-92,-34,75,-12,-63,102,156,107,34,-9,-73
-58,-92,-34,75,-12,-63,102,161,112,48,-4,-68
-53,-92,-39,73,-7,-65,107,165,122,43,0,-68
-48,-87,-39,68,-4,-63,107,170,126,53,0,-68
-34,-82,-48,58,7,-65,107,175,136,58,4,-63
-34,-78,-43,56,4,-61,107,185,136,63,9,-63
-29,-73,-43,51,7,-58,107,190,146,73,9,-63
-34,-82,-48,58,7,-65,112,200,161,78,19,-58
-39,-87,-48,63,4,-68,112,209,165,87,24,-53
-34,-82,-48,58,7,-65,112,224,175,97,34,-48
-29,-73,-43,51,7,-58,117,239,180,107,43,-39
-24,-68,-43,46,9,-56,117,244,190,117,53,-34
-14,-58,-43,36,14,-51,117,253,200,122,58,-34
-9,-48,-39,29,14,-43,117,253,214,126,63,-29
0,-39,-39,19,19,-39,117,258,224,136,73,-14
9,-34,-43,12,26,-39,112,268,229,151,82,-4
19,-29,-48,4,34,-39,107,268,239,156,87,4
24,-19,-43,-2,34,-31,97,268,239,165,97,9
34,-4,-39,-14,36,-21,92,268,239,165,102,19
43,9,-34,-26,39,-12,87,258,239,170,112,29
53,19,-34,-36,43,-7,82,253,239,175,112,43
63,29,-34,-46,48,-2,73,244,244,175,117,48
73,43,-29,-58,51,7,63,239,239,175,126,58
78,58,-19,-68,48,19,53,224,234,165,131,63
87,68,-19,-78,53,24,34,214,224,165,136,78
92,78,-14,-85,53,31,24,195,204,161,136,92
102,87,-14,-95,58,36,9,170,195,156,131,97
107,87,-19,-97,63,34,4,151,175,146,131,97
107,87,-19,-97,63,34,-9,131,156,136,126,102
117,87,-29,-102,73,29,-24,122,151,126,122,107
122,87,-34,-104,78,26,-39,107,141,117,117,107
122,87,-34,-104,78,26,-39,92,126,107,117,107
112,82,-29,-97,70,26,-39,78,107,97,107,97
107,73,-34,-90,70,19,-43,68,102,92,102,87
102,68,-34,-85,68,17,-43,58,92,87,92,87
92,63,-29,-78,61,17,-43,48,82,78,87,78
82,53,-29,-68,56,12,-43,39,73,68,82,73
73,48,-24,-61,48,12,-43,24,63,58,73,63
68,39,-29,-53,48,4,-39,14,58,48,63,58
58,39,-19,-48,39,9,-39,14,48,43,58,53
43,39,-4,-41,24,17,-39,9,48,39,58,48
29,24,-4,-26,17,9,-34,9,43,34,43,39
14,19,4,-17,4,12,-29,4,39,34,39,34
4,14,9,-9,-2,12,-29,4,39,29,34,24
0,9,9,-4,-4,9,-24,0,34,24,29,14
0,9,9,-4,-4,9,-24,-4,29,19,19,9
0,4,4,-2,-2,4,-19,-4,29,19,14,9
-4,4,9,0,-7,7,-14,-4,29,14,9,4
-9,-4,4,7,-7,0,-9,-4,29,14,9,4
-9,-4,4,7,-7,0,-4,-4,19,9,4,4
-14,-4,9,9,-12,2,-4,-4,14,9,4,0
-19,-4,14,12,-17,4,-4,0,14,9,4,-4
-19,-14,4,17,-12,-4,-4,4,14,4,4,-9
-24,-14,9,19,-17,-2,0,9,9,4,-4,-14
-24,-14,9,19,-17,-2,0,9,9,4,-4,-19
-24,-19,4,21,-14,-7,0,4,4,0,-9,-19
-24,-19,4,21,-14,-7,4,0,4,-4,-14,-24
-24,-19,4,21,-14,-7,4,4,4,-4,-19,-29
-24,-19,4,21,-14,-7,4,4,4,-4,-19,-29
-34,-24,9,29,-21,-7,9,4,14,-9,-14,-29
-39,-29,9,34,-24,-9,14,4,19,-9,-9,-29
-34,-39,-4,36,-14,-21,14,9,19,-9,-14,-29
-29,-39,-9,34,-9,-24,14,9,24,-4,-14,-29
-34,-48,-14,41,-9,-31,19,9,24,0,-14,-34
-34,-48,-14,41,-9,-31,19,9,24,4,-14,-34
-43,-48,-4,46,-19,-26,24,14,24,4,-14,-39
-48,-48,0,48,-24,-24,24,14,24,4,-14,-39
-48,-53,-4,51,-21,-29,24,19,19,4,-14,-43
-48,-48,0,48,-24,-24,24,24,14,4,-19,-43
-43,-43,0,43,-21,-21,24,24,14,4,-14,-43
-39,-39,0,39,-19,-19,24,24,14,4,-9,-43
-43,-43,0,43,-21,-21,24,14,14,4,-9,-43
-43,-43,0,43,-21,-21,24,9,14,0,-14,-43
-43,-34,9,39,-26,-12,24,4,9,0,-14,-39
-43,-34,9,39,-26,-12,24,4,4,0,-14,-34
-43,-43,0,43,-21,-21,24,9,4,0,-14,-34
-43,-48,-4,46,-19,-26,29,9,9,0,-14,-34
-43,-48,-4,46,-19,-26,29,14,9,0,-14,-34
-43,-48,-4,46,-19,-26,29,14,4,0,-9,-34
-43,-43,0,43,-21,-21,24,14,4,0,-14,-34
-39,-39,0,39,-19,-19,24,14,4,-4,-19,-39
-39,-29,9,34,-24,-9,19,9,4,0,-19,-34
-39,-19,19,29,-29,0,19,9,9,0,-19,-29
-39,-19,19,29,-29,0,24,9,9,9,-19,-29
-39,-19,19,29,-29,0,29,9,9,19,-19,-29
-39,-14,24,26,-31,4,29,9,14,19,-14,-24
-39,-9,29,24,-34,9,34,9,14,19,-9,-19
-39,-9,29,24,-34,9,39,14,19,19,-9,-19
-39,4,43,17,-41,24,48,19,29,29,-4,-19
-34,19,53,7,-43,36,53,29,39,34,-4,-14
-24,39,63,-7,-43,51,58,34,39,34,0,-14
-14,68,82,-26,-48,75,34,14,43,39,9,-4
0,87,87,-43,-43,87,4,4,48,48,14,4
4,92,87,-48,-41,90,-14,-14,43,48,14,9
9,92,82,-51,-36,87,-24,-24,39,43,14,19
14,107,92,-61,-39,100,-48,-39,24,39,14,19
19,126,107,-73,-43,117,-48,-43,19,34,14,19
24,136,112,-80,-43,124,-48,-48,14,34,14,24
39,141,102,-90,-31,122,-48,-53,9,34,19,29
48,117,68,-82,-9,92,-53,-53,9,34,19,29
53,87,34,-70,9,61,-53,-43,0,29,9,24
34,68,34,-51,0,51,-43,-43,-4,9,0,9
-9,48,58,-19,-34,53,-19,-34,-4,0,-4,0
-34,43,78,-4,-56,61,0,-24,-4,9,-9,-9
-34,24,58,4,-46,41,4,-24,-9,4,-19,-19
-34,4,39,14,-36,21,9,-24,-14,4,-24,-24
-34,0,34,17,-34,17,9,-24,-14,0,-24,-24
-34,-9,24,21,-29,7,14,-19,-14,0,-24,-29
-34,-24,9,29,-21,-7,14,-14,-14,0,-24,-34
-34,-43,-9,39,-12,-26,24,-9,-14,0,-29,-29
-34,-48,-14,41,-9,-31,29,-9,-14,0,-29,-29
-34,-48,-14,41,-9,-31,29,-9,-14,0,-29,-29
-34,-48,-14,41,-9,-31,29,-9,-14,0,-29,-29
-34,-53,-19,43,-7,-36,29,-4,-14,0,-29,-29
-39,-53,-14,46,-12,-34,34,4,-14,0,-34,-34
-39,-68,-29,53,-4,-48,34,4,-14,0,-34,-34
-39,-73,-34,56,-2,-53,34,4,-14,0,-34,-34
-39,-73,-34,56,-2,-53,34,0,-14,0,-34,-39
-39,-73,-34,56,-2,-53,39,-4,-14,0,-34,-43
-39,-73,-34,56,-2,-53,39,0,-14,0,-34,-43
-39,-73,-34,56,-2,-53,39,0,-14,0,-29,-43
-39,-73,-34,56,-2,-53,39,4,-9,0,-24,-39
-39,-78,-39,58,0,-58,39,4,-9,4,-19,-39
-34,-73,-39,53,2,-56,34,0,-9,4,-19,-29
-48,-78,-29,63,-9,-53,39,9,-9,-9,-39,-43
-78,-112,-34,95,-21,-73,82,43,-4,-24,-82,-97
-122,-131,-9,126,-56,-70,131,78,0,-29,-126,-146
-175,-156,19,165,-97,-68,195,136,29,-48,-161,-200
-200,-78,122,139,-161,21,214,165,117,19,-107,-165
-151,87,239,31,-195,163,180,200,287,219,58,-14
-53,219,273,-82,-163,246,87,156,370,361,219,146
48,297,248,-173,-100,273,-14,29,307,385,346,292
126,395,268,-261,-70,331,-161,-209,156,331,409,414
253,580,326,-417,-36,453,-385,-483,19,331,527,600
405,810,405,-607,0,607,-614,-746,-131,312,634,800
463,873,409,-668,26,641,-805,-1093,-488,-14,468,775
405,580,175,-492,114,378,-941,-1449,-1146,-707,-73,448
292,190,-102,-241,197,43,-1044,-1727,-1717,-1327,-595,102
229,-102,-331,-63,280,-217,-985,-1664,-1815,-1473,-771,-73
136,-229,-366,46,251,-297,-785,-1390,-1586,-1322,-741,-161
43,-283,-326,119,185,-305,-590,-1073,-1278,-1093,-678,-224
-58,-326,-268,192,104,-297,-366,-707,-922,-805,-590,-273
-117,-278,-161,197,21,-219,-175,-405,-605,-551,-453,-263
-117,-175,-58,146,-29,-117,-73,-214,-385,-351,-283,-195
-97,-117,-19,107,-39,-68,-4,-92,-214,-200,-180,-136
-82,-107,-24,95,-29,-65,24,-58,-126,-126,-151,-107
-63,-107,-43,85,-9,-75,48,-9,-63,-63,-102,-97
-58,-117,-58,87,0,-87,73,34,-29,-34,-48,-78
-53,-122,-68,87,7,-95,82,68,-9,-9,-39,-73
-48,-122,-73,85,12,-97,87,73,14,4,-39,-73
-48,-122,-73,85,12,-97,92,82,29,14,-39,-73
-58,-122,-63,90,2,-92,97,87,29,19,-34,-73
-63,-122,-58,92,-2,-90,102,97,34,29,-24,-68
-63,-122,-58,92,-2,-90,107,102,48,34,-24,-68
-58,-122,-63,90,2,-92,112,112,58,48,-24,-68
-58,-122,-63,90,2,-92,112,112,63,48,-19,-68
-58,-122,-63,90,2,-92,117,117,68,48,-14,-68
-58,-122,-63,90,2,-92,117,122,73,53,-14,-63
-58,-122,-63,90,2,-92,117,126,82,58,-9,-53
-58,-126,-68,92,4,-97,122,131,82,63,-9,-53
