I,II,III,aVR,aVL,aVF,V1,V2,V3,V4,V5,V6,
-322,185,507,68,-414,346,-107,-175,107,87,39,-19
-336,190,527,73,-431,358,-107,-180,126,92,39,-19
-351,195,546,78,-448,370,-107,-185,146,97,39,-19
-361,200,561,80,-461,380,-97,-185,161,97,39,-29
-370,204,575,82,-473,390,-87,-185,175,97,39,-39
-385,204,590,90,-488,397,-82,-175,195,102,39,-39
-400,204,605,97,-502,405,-78,-165,214,107,39,-39
-405,200,605,102,-505,402,-68,-151,239,107,34,-48
-409,195,605,107,-507,400,-58,-136,263,107,29,-58
-409,190,600,109,-505,395,-43,-122,283,102,24,-68
-409,185,595,112,-502,390,-29,-107,302,97,19,-78
-409,170,580,119,-495,375,-4,-82,322,97,9,-78
-409,156,566,126,-488,361,19,-58,341,97,0,-78
-395,141,536,126,-466,339,39,-39,351,87,-9,-92
-380,126,507,126,-444,317,58,-19,361,78,-19,-107
-366,97,463,134,-414,280,78,4,361,68,-29,-112
-351,68,419,141,-385,244,97,29,361,58,-39,-117
-326,43,370,141,-348,207,97,43,346,34,-48,-117
-302,19,322,141,-312,170,97,58,331,9,-58,-117
-268,9,278,129,-273,143,97,63,302,4,-63,-117
-234,0,234,117,-234,117,97,68,273,0,-68,-117
-200,-9,190,104,-195,90,82,68,239,-9,-68,-107
-165,-19,146,92,-156,63,68,68,204,-19,-68,-97
-146,-19,126,82,-136,53,63,53,175,-24,-58,-87
-126,-19,107,73,-117,43,58,39,146,-29,-48,-78
-117,-24,92,70,-104,34,39,24,112,-29,-48,-68
-107,-29,78,68,-92,24,19,9,78,-29,-48,-58
-92,-29,63,61,-78,17,9,4,58,-29,-39,-48
-78,-29,48,53,-63,9,0,0,39,-29,-29,-39
-68,-24,43,46,-56,9,-4,-9,19,-29,-29,-34
-58,-19,39,39,-48,9,-9,-19,0,-29,-29,-29
-53,-9,43,31,-48,17,-9,-19,-4,-29,-24,-24
-48,0,48,24,-48,24,-9,-19,-9,-29,-19,-19
-48,-14,34,31,-41,9,-14,-24,-14,-29,-19,-19
-48,-29,19,39,-34,-4,-19,-29,-19,-29,-19,-19
-48,-29,19,39,-34,-4,-19,-29,-24,-29,-19,-19
-48,-29,19,39,-34,-4,-19,-29,-29,-29,-19,-19
-48,-29,19,39,-34,-4,-19,-29,-29,-29,-19,-19
-48,-29,19,39,-34,-4,-19,-29,-29,-29,-19,-19
-48,-29,19,39,-34,-4,-19,-29,-29,-29,-19,-19
-48,-29,19,39,-34,-4,-19,-29,-29,-29,-19,-19
-43,-24,19,34,-31,-2,-19,-29,-29,-29,-19,-19
-39,-19,19,29,-29,0,-19,-29,-29,-29,-19,-19
-39,-19,19,29,-29,0,-19,-29,-29,-24,-19,-19
-39,-19,19,29,-29,0,-19,-29,-29,-19,-19,-19
-39,-19,19,29,-29,0,-19,-29,-29,-19,-19,-19
-39,-19,19,29,-29,0,-19,-29,-29,-19,-19,-19
-39,-19,19,29,-29,0,-19,-29,-29,-19,-19,-19
-39,-19,19,29,-29,0,-19,-29,-29,-19,-19,-19
-39,-19,19,29,-29,0,-19,-29,-29,-19,-19,-19
-39,-19,19,29,-29,0,-19,-29,-29,-19,-19,-19
-43,-19,24,31,-34,2,-19,-29,-29,-19,-19,-19
-48,-19,29,34,-39,4,-19,-29,-29,-19,-19,-19
-48,-19,29,34,-39,4,-19,-29,-24,-14,-19,-14
-48,-19,29,34,-39,4,-19,-29,-19,-9,-19,-9
-43,-14,29,29,-36,7,-19,-29,-19,-9,-14,-9
-39,-9,29,24,-34,9,-19,-29,-19,-9,-9,-9
-39,-9,29,24,-34,9,-19,-29,-19,-9,-9,-9
-39,-9,29,24,-34,9,-19,-29,-19,-9,-9,-9
-43,-9,34,26,-39,12,-24,-29,-24,-9,-9,-9
-48,-9,39,29,-43,14,-29,-29,-29,-9,-9,-9
-48,-9,39,29,-43,14,-29,-34,-29,-9,-9,-9
-48,-9,39,29,-43,14,-29,-39,-29,-9,-9,-9
-48,-9,39,29,-43,14,-24,-39,-29,-9,-9,-9
-48,-9,39,29,-43,14,-19,-39,-29,-9,-9,-9
-53,-9,43,31,-48,17,-19,-39,-29,-14,-9,-14
-58,-9,48,34,-53,19,-19,-39,-29,-19,-9,-19
-58,-19,39,39,-48,9,-19,-39,-29,-19,-9,-19
-58,-29,29,43,-43,0,-19,-39,-29,-19,-9,-19
-43,-9,34,26,-39,12,-19,-39,-29,-19,-9,-14
-29,9,39,9,-34,24,-19,-39,-29,-19,-9,-9
-43,-4,39,24,-41,17,-24,-39,-34,-19,-14,-9
-58,-19,39,39,-48,9,-29,-39,-39,-19,-19,-9
-58,-19,39,39,-48,9,-34,-39,-43,-24,-19,-14
-58,-19,39,39,-48,9,-39,-39,-48,-29,-19,-19
-63,-19,43,41,-53,12,-39,-43,-48,-29,-19,-19
-68,-19,48,43,-58,14,-39,-48,-48,-29,-19,-19
-68,-19,48,43,-58,14,-39,-53,-48,-29,-19,-19
-68,-19,48,43,-58,14,-39,-58,-48,-29,-19,-19
-68,-19,48,43,-58,14,-39,-58,-53,-34,-24,-19
-68,-19,48,43,-58,14,-39,-58,-58,-39,-29,-19
-68,-19,48,43,-58,14,-39,-58,-58,-39,-29,-19
-68,-19,48,43,-58,14,-39,-58,-58,-39,-29,-19
-63,-19,43,41,-53,12,-39,-58,-63,-39,-29,-19
-58,-19,39,39,-48,9,-39,-58,-68,-39,-29,-19
-58,-19,39,39,-48,9,-39,-58,-68,-39,-29,-19
-58,-19,39,39,-48,9,-39,-58,-68,-39,-29,-19
-73,-29,43,51,-58,7,-39,-58,-68,-39,-29,-19
-87,-39,48,63,-68,4,-39,-58,-68,-39,-29,-19
-73,-24,48,48,-61,12,-39,-58,-68,-34,-29,-19
-58,-9,48,34,-53,19,-39,-58,-68,-29,-29,-19
-58,-9,48,34,-53,19,-39,-58,-68,-29,-29,-19
-58,-9,48,34,-53,19,-39,-58,-68,-29,-29,-19
-63,-19,43,41,-53,12,-43,-63,-68,-34,-29,-24
-68,-29,39,48,-53,4,-48,-68,-68,-39,-29,-29
-73,-29,43,51,-58,7,-48,-68,-73,-39,-29,-29
-78,-29,48,53,-63,9,-48,-68,-78,-39,-29,-29
-78,-24,53,51,-65,14,-48,-68,-78,-39,-29,-29
-78,-19,58,48,-68,19,-48,-68,-78,-39,-29,-29
-78,-19,58,48,-68,19,-48,-68,-78,-39,-29,-29
-78,-19,58,48,-68,19,-48,-68,-78,-39,-29,-29
-78,-19,58,48,-68,19,-48,-68,-78,-39,-29,-29
-78,-19,58,48,-68,19,-48,-68,-78,-39,-29,-29
-78,-19,58,48,-68,19,-48,-68,-78,-43,-29,-29
-78,-19,58,48,-68,19,-48,-68,-78,-48,-29,-29
-78,-19,58,48,-68,19,-48,-68,-78,-48,-29,-29
-78,-19,58,48,-68,19,-48,-68,-78,-48,-29,-29
-78,-19,58,48,-68,19,-48,-68,-78,-48,-29,-29
-78,-19,58,48,-68,19,-48,-68,-78,-48,-29,-29
-82,-19,63,51,-73,21,-53,-73,-82,-48,-34,-29
-87,-19,68,53,-78,24,-58,-78,-87,-48,-39,-29
-87,-19,68,53,-78,24,-58,-78,-87,-48,-39,-29
-87,-19,68,53,-78,24,-58,-78,-87,-48,-39,-29
-87,-19,68,53,-78,24,-53,-78,-87,-48,-39,-29
-87,-19,68,53,-78,24,-48,-78,-87,-48,-39,-29
-87,-19,68,53,-78,24,-48,-78,-87,-43,-34,-29
-87,-19,68,53,-78,24,-48,-78,-87,-39,-29,-29
-82,-14,68,48,-75,26,-48,-78,-87,-39,-29,-29
-78,-9,68,43,-73,29,-48,-78,-87,-39,-29,-29
-78,-9,68,43,-73,29,-48,-78,-87,-39,-34,-29
-78,-9,68,43,-73,29,-48,-78,-87,-39,-39,-29
-82,-19,63,51,-73,21,-48,-78,-87,-39,-39,-34
-87,-29,58,58,-73,14,-48,-78,-87,-39,-39,-39
-87,-29,58,58,-73,14,-48,-78,-87,-39,-39,-39
-87,-29,58,58,-73,14,-48,-78,-87,-39,-39,-39
-68,0,68,34,-68,34,-43,-73,-73,-29,-24,-24
-48,29,78,9,-63,53,-39,-68,-58,-19,-9,-9
-58,29,87,14,-73,58,-39,-68,-53,-19,-9,-9
-68,29,97,19,-82,63,-39,-68,-48,-19,-9,-9
-68,39,107,14,-87,73,-34,-63,-43,-19,-4,-9
-63,39,102,12,-82,70,-29,-58,-39,-14,0,-4
-58,39,97,9,-78,68,-24,-58,-39,-9,0,0
-58,39,97,9,-78,68,-24,-58,-34,-4,4,0
-39,53,92,-7,-65,73,-34,-53,-29,9,14,9
-29,68,97,-19,-63,82,-58,-68,-29,19,19,19
0,92,92,-46,-46,92,-87,-82,-34,24,24,19
43,117,73,-80,-14,95,-92,-82,-34,39,34,34
39,107,68,-73,-14,87,-92,-87,-29,34,39,39
24,97,73,-61,-24,85,-92,-87,-29,29,39,39
34,92,58,-63,-12,75,-92,-87,-39,24,29,39
24,73,48,-48,-12,61,-97,-97,-53,0,14,29
9,48,39,-29,-14,43,-97,-107,-87,-14,0,9
0,39,39,-19,-19,39,-97,-107,-87,-29,-9,4
-9,34,43,-12,-26,39,-87,-102,-87,-29,-9,4
-19,24,43,-2,-31,34,-78,-97,-82,-24,-9,4
-63,19,82,21,-73,51,-73,-97,-82,-19,-14,-4
-97,4,102,46,-100,53,-73,-92,-87,-29,-19,-14
-78,-4,73,41,-75,34,-68,-92,-97,-39,-24,-24
-58,0,58,29,-58,29,-68,-92,-97,-43,-34,-24
-82,-9,73,46,-78,31,-63,-92,-97,-53,-43,-39
-92,-9,82,51,-87,36,-63,-92,-102,-58,-48,-43
-97,-9,87,53,-92,39,-58,-92,-102,-58,-48,-43
-97,-14,82,56,-90,34,-58,-92,-112,-58,-48,-43
-102,-14,87,58,-95,36,-58,-92,-112,-58,-48,-43
-102,-24,78,63,-90,26,-58,-87,-107,-53,-43,-43
-82,-34,48,58,-65,7,-53,-82,-102,-53,-39,-39
-43,-43,0,43,-21,-21,-53,-78,-107,-48,-34,-29
-4,-39,-34,21,14,-36,-68,-73,-97,-14,-4,0
58,-19,-78,-19,68,-48,-78,-63,-78,29,39,43
146,19,-126,-82,136,-53,-92,-68,-58,82,92,92
258,48,-209,-153,234,-80,-112,-63,-63,112,131,146
317,63,-253,-190,285,-95,-131,-53,-48,156,175,195
380,117,-263,-248,322,-73,-136,-39,14,234,248,263
448,151,-297,-300,373,-73,-151,-53,39,292,307,317
527,180,-346,-353,436,-82,-180,-73,39,326,346,375
600,190,-409,-395,505,-109,-200,-63,24,341,375,409
663,190,-473,-427,568,-141,-209,-43,29,366,400,439
736,175,-561,-456,649,-192,-209,-29,24,375,424,473
810,146,-663,-478,736,-258,-195,4,19,375,434,488
868,131,-736,-500,802,-302,-146,63,14,351,424,488
941,92,-849,-517,895,-378,-122,107,-14,322,405,488
1083,-9,-1093,-536,1088,-551,-82,190,-48,283,385,488
1224,-112,-1337,-556,1281,-724,-24,292,-29,278,380,512
1434,-78,-1512,-678,1473,-795,-9,361,63,429,522,644
1629,-92,-1722,-768,1676,-907,9,424,102,522,614,736
1790,-253,-2044,-768,1917,-1149,92,541,-14,419,541,688
1912,-527,-2440,-692,2176,-1483,336,829,-14,244,370,527
1883,-722,-2605,-580,2244,-1664,561,1078,43,112,185,346
1717,-810,-2527,-453,2122,-1668,683,1171,34,-112,-68,102
1346,-854,-2200,-246,1773,-1527,761,1151,24,-395,-375,-185
941,-736,-1678,-102,1310,-1207,746,980,-73,-439,-395,-229
600,-595,-1195,-2,897,-895,707,844,-131,-405,-370,-229
224,-448,-673,112,448,-561,712,756,-53,-287,-278,-200
-4,-370,-366,187,180,-368,658,668,0,-209,-219,-175
-58,-366,-307,212,124,-336,590,590,-24,-200,-214,-180
-73,-312,-239,192,82,-275,512,502,-39,-180,-195,-161
-78,-253,-175,165,48,-214,453,444,-43,-175,-180,-156
-82,-180,-97,131,7,-139,380,356,-39,-146,-161,-136
-102,-122,-19,112,-41,-70,322,297,-9,-97,-112,-102
-126,-87,39,107,-82,-24,258,229,9,-73,-87,-82
-131,-53,78,92,-104,12,151,117,0,-58,-82,-78
-146,-39,107,92,-126,34,53,4,-9,-68,-73,-73
-156,-29,126,92,-141,48,29,-14,-9,-53,-53,-68
-165,-19,146,92,-156,63,14,-29,-14,-53,-53,-63
-170,-19,151,95,-161,65,9,-34,-24,-53,-53,-63
-170,-19,151,95,-161,65,0,-48,-24,-53,-58,-63
-170,-14,156,92,-163,70,-14,-58,-24,-53,-63,-63
-175,-4,170,90,-173,82,-19,-63,-24,-39,-53,-63
-180,0,180,90,-180,90,-19,-53,-24,-39,-48,-58
-170,14,185,78,-178,100,-19,-63,-24,-43,-48,-58
-161,34,195,63,-178,114,-29,-73,-29,-43,-48,-58
-180,24,204,78,-192,114,-29,-82,-29,-39,-48,-58
-200,9,209,95,-204,109,-34,-87,-24,-34,-43,-63
-185,24,209,80,-197,117,-34,-87,-19,-29,-43,-63
-170,39,209,65,-190,124,-34,-92,-9,-24,-43,-63
-165,53,219,56,-192,136,-43,-92,-9,-19,-43,-58
-161,68,229,46,-195,148,-48,-92,-9,-14,-39,-58
-185,58,244,63,-214,151,-48,-92,-14,-19,-34,-58
-209,53,263,78,-236,158,-53,-97,-14,-19,-34,-53
-200,58,258,70,-229,158,-48,-102,-9,-24,-34,-53
-195,63,258,65,-226,161,-48,-102,-4,-19,-29,-53
-200,63,263,68,-231,163,-53,-107,-4,-19,-29,-53
-209,73,283,68,-246,178,-53,-102,-4,-9,-14,-48
-200,78,278,61,-239,178,-58,-112,0,-4,-14,-43
-190,92,283,48,-236,187,-63,-112,4,0,-14,-43
-214,92,307,61,-261,200,-68,-122,4,0,-14,-43
-229,87,317,70,-273,202,-68,-122,9,9,-19,-43
-239,92,331,73,-285,212,-73,-136,14,14,-14,-48
-244,87,331,78,-287,209,-78,-136,19,14,-9,-53
-248,102,351,73,-300,226,-82,-136,34,19,-4,-48
-263,107,370,78,-317,239,-87,-151,39,24,-4,-48
-263,122,385,70,-324,253,-92,-146,43,29,0,-48
-278,126,405,75,-341,265,-97,-151,53,34,-4,-43
-278,136,414,70,-346,275,-92,-151,58,43,0,-43
-283,146,429,68,-356,287,-92,-165,73,48,4,-43
-302,170,473,65,-387,322,-92,-165,87,58,9,-43
-297,195,492,51,-395,344,-92,-165,97,63,9,-43
-307,190,497,58,-402,344,-92,-170,102,63,4,-43
-322,185,507,68,-414,346,-92,-170,117,68,4,-43
-331,190,522,70,-427,356,-92,-170,136,73,9,-48
-351,190,541,80,-446,366,-78,-165,151,73,9,-53
-370,190,561,90,-466,375,-73,-161,170,73,4,-58
-385,190,575,97,-480,383,-63,-156,190,73,-4,-63
-395,180,575,107,-485,378,-58,-151,204,68,-9,-82
-400,175,575,112,-488,375,-43,-131,219,63,-14,-97
-409,170,580,119,-495,375,-34,-122,239,53,-24,-107
-419,151,570,134,-495,361,-24,-112,253,48,-34,-122
-409,151,561,129,-485,356,-14,-92,268,43,-43,-126
-405,136,541,134,-473,339,4,-73,273,29,-53,-131
-395,107,502,143,-448,305,29,-48,292,24,-63,-136
-361,97,458,131,-409,278,53,-19,302,14,-73,-136
-356,68,424,143,-390,246,63,4,302,4,-87,-156
-341,48,390,146,-366,219,73,14,287,-9,-107,-165
-317,29,346,143,-331,187,78,29,273,-24,-107,-161
-278,14,292,131,-285,153,82,39,253,-34,-117,-161
-239,4,244,117,-241,124,82,48,234,-39,-107,-151
-200,4,204,97,-202,104,78,48,214,-43,-97,-136
-180,-9,170,95,-175,80,68,43,175,-43,-92,-131
-156,-19,136,87,-146,58,58,43,146,-53,-87,-117
-131,-24,107,78,-119,41,43,29,117,-48,-82,-102
-112,-24,87,68,-100,31,34,14,92,-48,-78,-87
-92,-14,78,53,-85,31,24,9,73,-39,-58,-78
-73,-4,68,39,-70,31,19,4,53,-34,-48,-73
-63,-14,48,39,-56,17,19,-4,29,-29,-43,-58
-58,-19,39,39,-48,9,4,-19,9,-29,-39,-53
-48,-19,29,34,-39,4,-9,-24,0,-29,-39,-43
-43,-14,29,29,-36,7,-24,-24,-9,-34,-39,-39
-43,-14,29,29,-36,7,-24,-24,-19,-34,-34,-39
-39,-14,24,26,-31,4,-24,-24,-24,-34,-34,-34
-39,-9,29,24,-34,9,-19,-24,-24,-29,-29,-29
-39,-14,24,26,-31,4,-14,-24,-24,-29,-24,-29
-39,-14,24,26,-31,4,-14,-24,-24,-29,-24,-29
-39,-14,24,26,-31,4,-14,-24,-29,-29,-24,-24
-43,-19,24,31,-34,2,-19,-29,-34,-29,-29,-24
-43,-24,19,34,-31,-2,-24,-34,-34,-29,-29,-24
-43,-29,14,36,-29,-7,-29,-34,-39,-29,-29,-24
-43,-29,14,36,-29,-7,-29,-34,-43,-29,-29,-24
-43,-29,14,36,-29,-7,-24,-34,-43,-29,-24,-24
-43,-24,19,34,-31,-2,-24,-39,-39,-29,-24,-24
-43,-24,19,34,-31,-2,-24,-39,-34,-29,-24,-24
-43,-29,14,36,-29,-7,-24,-39,-29,-24,-24,-24
-34,-19,14,26,-24,-2,-24,-34,-29,-24,-19,-24
-24,-9,14,17,-19,2,-24,-29,-29,-24,-19,-24
-24,-4,19,14,-21,7,-29,-29,-29,-24,-24,-24
-24,0,24,12,-24,12,-29,-29,-29,-24,-24,-19
-29,-4,24,17,-26,9,-24,-29,-24,-19,-19,-19
-34,-9,24,21,-29,7,-24,-29,-24,-19,-19,-14
-34,-9,24,21,-29,7,-24,-29,-24,-19,-19,-14
-34,-9,24,21,-29,7,-24,-34,-24,-19,-19,-14
-39,-14,24,26,-31,4,-24,-34,-24,-19,-14,-19
-39,-19,19,29,-29,0,-24,-34,-24,-19,-14,-19
-39,-14,24,26,-31,4,-24,-34,-24,-24,-14,-19
-39,-14,24,26,-31,4,-29,-34,-24,-24,-14,-19
-39,-14,24,26,-31,4,-29,-34,-24,-24,-14,-19
-43,-14,29,29,-36,7,-29,-34,-24,-24,-14,-19
-43,-14,29,29,-36,7,-29,-34,-24,-24,-14,-24
-43,-9,34,26,-39,12,-29,-34,-24,-24,-14,-24
-43,-19,24,31,-34,2,-29,-39,-24,-24,-14,-24
-43,-29,14,36,-29,-7,-29,-39,-29,-24,-14,-24
-43,-19,24,31,-34,2,-29,-39,-29,-24,-14,-24
-39,-9,29,24,-34,9,-29,-43,-29,-24,-14,-24
-29,0,29,14,-29,14,-24,-43,-29,-24,-14,-24
-24,9,34,7,-29,21,-24,-43,-29,-24,-14,-24
-39,0,39,19,-39,19,-24,-43,-34,-29,-19,-24
-53,-14,39,34,-46,12,-29,-48,-43,-29,-24,-24
-53,-19,34,36,-43,7,-29,-48,-43,-29,-24,-24
-53,-19,34,36,-43,7,-24,-48,-48,-29,-29,-24
-53,-19,34,36,-43,7,-29,-48,-48,-34,-29,-29
-53,-14,39,34,-46,12,-39,-48,-43,-34,-29,-29
-53,-14,39,34,-46,12,-39,-53,-48,-39,-29,-29
-53,-14,39,34,-46,12,-39,-53,-48,-39,-29,-29
-53,-19,34,36,-43,7,-34,-53,-48,-39,-29,-24
-53,-19,34,36,-43,7,-29,-53,-53,-39,-34,-24
-53,-19,34,36,-43,7,-29,-53,-53,-39,-34,-24
-58,-19,39,39,-48,9,-29,-58,-53,-43,-34,-24
-68,-24,43,46,-56,9,-34,-63,-58,-43,-34,-29
-78,-29,48,53,-63,9,-34,-63,-58,-43,-34,-34
-63,-19,43,41,-53,12,-39,-58,-58,-39,-34,-34
-53,-19,34,36,-43,7,-43,-58,-63,-39,-34,-34
-48,-14,34,31,-41,9,-39,-58,-63,-39,-34,-34
-48,-14,34,31,-41,9,-39,-58,-58,-39,-34,-34
-53,-14,39,34,-46,12,-34,-58,-63,-39,-34,-34
-53,-14,39,34,-46,12,-29,-58,-73,-43,-34,-34
-58,-14,43,36,-51,14,-29,-58,-73,-43,-34,-34
-63,-14,48,39,-56,17,-34,-58,-73,-43,-34,-34
-68,-24,43,46,-56,9,-34,-68,-73,-43,-39,-34
-68,-24,43,46,-56,9,-34,-68,-73,-48,-39,-34
-63,-29,34,46,-48,2,-39,-63,-73,-48,-39,-34
-63,-24,39,43,-51,7,-43,-63,-73,-48,-43,-34
-63,-24,39,43,-51,7,-43,-63,-78,-53,-34,-34
-63,-24,39,43,-51,7,-43,-63,-82,-53,-34,-39
-63,-19,43,41,-53,12,-43,-63,-78,-53,-39,-39
-63,-24,39,43,-51,7,-43,-58,-78,-53,-39,-39
-82,-34,48,58,-65,7,-43,-68,-82,-58,-48,-43
-102,-43,58,73,-80,7,-43,-82,-87,-58,-58,-48
-87,-34,53,61,-70,9,-48,-78,-87,-53,-48,-43
-73,-19,53,46,-63,17,-43,-68,-87,-53,-39,-43
-73,-19,53,46,-63,17,-39,-68,-87,-58,-39,-43
-68,-19,48,43,-58,14,-43,-63,-87,-58,-39,-43
-73,-9,63,41,-68,26,-43,-68,-87,-53,-34,-43
-78,-9,68,43,-73,29,-43,-68,-87,-53,-34,-48
-73,-9,63,41,-68,26,-43,-68,-87,-58,-34,-39
-68,-9,58,39,-63,24,-43,-68,-87,-58,-34,-34
-63,-4,58,34,-61,26,-39,-68,-78,-58,-34,-34
-63,0,63,31,-63,31,-39,-73,-73,-53,-43,-34
-78,-19,58,48,-68,19,-48,-82,-82,-53,-43,-34
-78,-19,58,48,-68,19,-48,-87,-87,-58,-43,-34
-73,-9,63,41,-68,26,-48,-78,-87,-53,-34,-34
-63,0,63,31,-63,31,-48,-73,-82,-48,-29,-34
-73,-4,68,39,-70,31,-48,-73,-92,-48,-29,-34
-73,-4,68,39,-70,31,-48,-73,-92,-48,-29,-34
-78,-4,73,41,-75,34,-48,-73,-92,-48,-34,-39
-82,-9,73,46,-78,31,-43,-78,-92,-48,-39,-39
-92,-14,78,53,-85,31,-43,-78,-97,-63,-43,-39
-92,-9,82,51,-87,36,-43,-78,-97,-63,-39,-43
-68,-9,58,39,-63,24,-43,-78,-97,-58,-39,-48
-82,-19,63,51,-73,21,-48,-82,-97,-53,-43,-48
-78,-14,63,46,-70,24,-43,-78,-82,-53,-34,-39
-78,-9,68,43,-73,29,-39,-78,-68,-58,-29,-29
-78,0,78,39,-78,39,-39,-78,-68,-48,-29,-29
-78,9,87,34,-82,48,-39,-78,-68,-39,-29,-29
-73,24,97,24,-85,61,-39,-78,-63,-29,-24,-24
-68,39,107,14,-87,73,-39,-78,-58,-19,-19,-19
-68,43,112,12,-90,78,-39,-73,-53,-19,-14,-19
-63,39,102,12,-82,70,-39,-68,-48,-14,-9,-14
-58,39,97,9,-78,68,-39,-63,-48,-14,-9,-9
-58,39,97,9,-78,68,-43,-58,-43,-14,-4,-9
-39,43,82,-2,-61,63,-48,-63,-43,-4,4,0
-29,48,78,-9,-53,63,-68,-87,-48,0,9,9
-14,73,87,-29,-51,80,-92,-102,-48,4,14,9
14,97,82,-56,-34,90,-92,-102,-43,19,24,24
29,97,68,-63,-19,82,-92,-102,-43,19,29,29
34,97,63,-65,-14,80,-92,-97,-48,19,29,29
34,92,58,-63,-12,75,-87,-92,-53,14,19,29
14,73,58,-43,-21,65,-87,-97,-63,-9,4,19
0,53,53,-26,-26,53,-87,-107,-97,-24,-4,0
-9,48,58,-19,-34,53,-87,-107,-97,-39,-9,-4
-29,43,73,-7,-51,58,-78,-107,-97,-43,-9,-4
-48,34,82,7,-65,58,-68,-107,-92,-43,-9,-4
-78,24,102,26,-90,63,-63,-107,-92,-43,-19,-19
-97,4,102,46,-100,53,-63,-102,-97,-58,-29,-34
-97,-9,87,53,-92,39,-58,-102,-107,-63,-34,-43
-97,-9,87,53,-92,39,-58,-102,-107,-63,-43,-43
-107,-14,92,61,-100,39,-58,-102,-102,-68,-48,-53
-102,-9,92,56,-97,41,-63,-102,-102,-68,-48,-53
-107,-9,97,58,-102,43,-58,-97,-102,-68,-48,-48
-107,-14,92,61,-100,39,-58,-92,-112,-68,-48,-43
-112,-14,97,63,-104,41,-58,-92,-117,-68,-53,-43
-112,-24,87,68,-100,31,-58,-87,-117,-63,-53,-43
-97,-29,68,63,-82,19,-53,-82,-107,-63,-48,-39
-63,-34,29,48,-46,-2,-53,-78,-107,-58,-43,-29
-29,-39,-9,34,-9,-24,-68,-78,-97,-34,-14,-4
29,-29,-58,0,43,-43,-78,-73,-78,0,29,34
117,19,-97,-68,107,-39,-87,-73,-48,68,82,82
229,58,-170,-143,200,-56,-102,-63,-43,112,122,136
287,58,-229,-173,258,-85,-122,-53,-29,141,161,185
351,97,-253,-224,302,-78,-126,-39,34,204,229,253
419,136,-283,-278,351,-73,-141,-39,58,278,302,312
497,170,-326,-334,412,-78,-170,-43,58,326,356,375
570,185,-385,-378,478,-100,-190,-43,39,341,385,409
634,190,-444,-412,539,-126,-200,-34,39,366,409,439
702,195,-507,-448,605,-156,-200,-19,39,385,439,478
771,185,-585,-478,678,-200,-185,14,39,395,453,497
829,161,-668,-495,749,-253,-136,63,39,370,444,497
902,112,-790,-507,846,-339,-112,97,14,341,424,497
1034,9,-1024,-522,1029,-507,-63,195,-9,297,405,492
1166,-92,-1259,-536,1212,-675,4,312,19,287,400,512
1366,-68,-1434,-649,1400,-751,14,370,107,448,546,653
1551,-92,-1644,-729,1598,-868,29,424,141,551,644,756
1727,-244,-1971,-741,1849,-1107,112,551,48,468,580,722
1864,-507,-2371,-678,2117,-1439,356,849,73,312,419,575
1878,-717,-2596,-580,2237,-1656,585,1112,146,185,244,395
1756,-819,-2576,-468,2166,-1698,712,1220,151,-34,0,151
1405,-873,-2278,-265,1842,-1576,775,1200,102,-356,-346,-170
1019,-766,-1786,-126,1403,-1276,746,1029,-34,-439,-405,-248
644,-624,-1268,-9,956,-946,692,849,-117,-414,-380,-239
234,-478,-712,122,473,-595,683,717,-63,-307,-287,-200
4,-366,-370,180,187,-368,649,653,9,-219,-224,-185
-48,-326,-278,187,114,-302,600,600,4,-200,-214,-200
-73,-283,-209,178,68,-246,492,492,-19,-180,-195,-165
-87,-234,-146,161,29,-190,405,414,-34,-175,-180,-146
-92,-170,-78,131,-7,-124,331,322,-34,-156,-165,-141
-112,-122,-9,117,-51,-65,273,258,-9,-117,-122,-122
-136,-78,58,107,-97,-9,214,190,4,-92,-92,-97
-141,-34,107,87,-124,36,112,78,-9,-78,-82,-87
-151,-4,146,78,-148,70,29,-19,-19,-82,-78,-82
-156,19,175,68,-165,97,19,-24,-19,-63,-63,-78
-170,14,185,78,-178,100,4,-39,-19,-63,-63,-73
-180,0,180,90,-180,90,0,-43,-24,-63,-63,-73
-180,0,180,90,-180,90,-9,-58,-24,-63,-68,-73
-180,4,185,87,-183,95,-24,-68,-24,-63,-73,-73
-185,14,200,85,-192,107,-24,-78,-24,-48,-63,-73
-190,19,209,85,-200,114,-19,-73,-24,-48,-58,-68
-190,19,209,85,-200,114,-29,-82,-24,-53,-58,-68
-190,24,214,82,-202,119,-48,-92,-29,-53,-58,-68
-185,34,219,75,-202,126,-48,-97,-29,-48,-58,-63
-180,39,219,70,-200,129,-53,-97,-24,-43,-53,-63
-180,43,224,68,-202,134,-43,-92,-24,-43,-53,-63
-180,48,229,65,-204,139,-34,-92,-19,-43,-53,-63
-190,48,239,70,-214,143,-43,-97,-19,-39,-53,-58
-200,48,248,75,-224,148,-48,-102,-19,-34,-48,-58
-204,48,253,78,-229,151,-53,-102,-19,-34,-43,-63
-209,53,263,78,-236,158,-63,-107,-14,-29,-43,-63
-209,58,268,75,-239,163,-63,-112,-9,-34,-43,-63
-214,63,278,75,-246,170,-68,-112,-4,-29,-39,-63
-214,63,278,75,-246,170,-73,-122,-4,-29,-39,-58
-219,73,292,73,-256,183,-73,-122,-4,-19,-24,-48
-214,78,292,68,-253,185,-73,-131,4,-9,-24,-43
-209,92,302,58,-256,197,-73,-131,14,0,-24,-43
-224,97,322,63,-273,209,-78,-136,14,0,-19,-43
-229,97,326,65,-278,212,-78,-131,19,9,-19,-43
-234,112,346,61,-290,229,-82,-146,24,14,-14,-43
-234,117,351,58,-292,234,-87,-146,29,14,-9,-43
-234,131,366,51,-300,248,-87,-141,43,24,-4,-39
-244,136,380,53,-312,258,-87,-151,48,34,-4,-39
-248,151,400,48,-324,275,-87,-151,53,39,4,-39
-268,156,424,56,-346,290,-87,-161,63,43,4,-34
-273,161,434,56,-353,297,-87,-161,63,53,9,-39
-283,165,448,58,-366,307,-92,-175,73,58,14,-43
-312,170,483,70,-397,326,-92,-175,92,63,19,-43
-317,175,492,70,-405,334,-92,-175,107,63,19,-43
-322,185,507,68,-414,346,-97,-180,117,68,14,-43
-331,195,527,68,-429,361,-102,-180,136,78,14,-43
-341,200,541,70,-441,370,-102,-180,156,82,19,-48
-361,200,561,80,-461,380,-87,-175,170,82,19,-53
-380,185,566,97,-473,375,-82,-165,195,82,14,-58
-395,170,566,112,-480,368,-73,-156,219,82,4,-63
-400,175,575,112,-488,375,-63,-146,239,82,0,-73
-400,185,585,107,-492,385,-43,-122,258,82,-4,-78
-390,195,585,97,-488,390,-19,-102,287,78,-9,-82
-380,190,570,95,-475,380,4,-82,312,78,-14,-92
-385,170,556,107,-470,363,14,-63,326,73,-24,-102
-395,136,531,129,-463,334,34,-43,331,58,-34,-112
-395,107,502,143,-448,305,53,-19,346,48,-48,-126
-370,97,468,136,-419,283,73,9,351,34,-63,-136
-361,53,414,153,-387,234,82,34,351,19,-78,-151
-341,19,361,161,-351,190,92,43,336,0,-97,-156
-317,14,331,151,-324,173,102,58,326,-14,-97,-151
-278,14,292,131,-285,153,112,68,312,-24,-107,-151
-244,0,244,122,-244,122,112,78,287,-29,-107,-146
-209,-4,204,107,-207,100,107,78,263,-34,-107,-136
-190,-19,170,104,-180,75,87,63,214,-34,-97,-131
-165,-29,136,97,-151,53,68,53,175,-43,-87,-117
-141,-34,107,87,-124,36,53,34,141,-43,-87,-102
-122,-34,87,78,-104,26,43,14,112,-48,-87,-87
-102,-24,78,63,-90,26,29,9,92,-43,-68,-73
-82,-14,68,48,-75,26,19,4,73,-43,-58,-63
-73,-24,48,48,-61,12,19,-4,43,-39,-53,-48
-68,-29,39,48,-53,4,4,-19,19,-39,-48,-43
-58,-24,34,41,-46,4,0,-24,9,-34,-43,-39
-53,-14,39,34,-46,12,-4,-24,0,-34,-39,-39
-53,-14,39,34,-46,12,-14,-29,-14,-34,-34,-39
-48,-14,34,31,-41,9,-24,-34,-24,-34,-34,-34
-48,-9,39,29,-43,14,-24,-34,-29,-29,-34,-29
-48,-14,34,31,-41,9,-24,-34,-34,-29,-34,-29
-48,-14,34,31,-41,9,-24,-34,-34,-29,-34,-29
-48,-14,34,31,-41,9,-24,-34,-39,-29,-34,-24
-48,-19,29,34,-39,4,-24,-39,-39,-34,-39,-24
-43,-24,19,34,-31,-2,-24,-43,-34,-39,-39,-24
-43,-29,14,36,-29,-7,-29,-43,-39,-39,-39,-24
-43,-29,14,36,-29,-7,-29,-43,-43,-39,-39,-24
-39,-29,9,34,-24,-9,-24,-39,-43,-34,-29,-24
-34,-24,9,29,-21,-7,-24,-39,-39,-29,-24,-24
-34,-24,9,29,-21,-7,-19,-34,-34,-29,-24,-24
-34,-29,4,31,-19,-12,-14,-29,-29,-24,-24,-24
-39,-29,9,34,-24,-9,-14,-29,-29,-24,-24,-24
-43,-29,14,36,-29,-7,-14,-29,-29,-24,-29,-24
-43,-24,19,34,-31,-2,-19,-34,-29,-24,-34,-24
-43,-19,24,31,-34,2,-19,-39,-29,-24,-34,-19
-43,-9,34,26,-39,12,-14,-39,-24,-19,-29,-19
-43,0,43,21,-43,21,-14,-39,-24,-19,-29,-14
-43,-9,34,26,-39,12,-14,-39,-24,-19,-29,-14
-43,-19,24,31,-34,2,-14,-43,-24,-19,-29,-14
-48,-19,29,34,-39,4,-14,-43,-24,-19,-24,-19
-48,-19,29,34,-39,4,-14,-43,-24,-19,-24,-19
-48,-14,34,31,-41,9,-14,-43,-24,-19,-24,-19
-48,-14,34,31,-41,9,-19,-43,-24,-14,-24,-19
-48,-14,34,31,-41,9,-24,-43,-24,-14,-24,-19
-53,-14,39,34,-46,12,-29,-43,-24,-14,-24,-19
-53,-14,39,34,-46,12,-29,-43,-24,-14,-19,-19
-53,-9,43,31,-48,17,-29,-43,-24,-14,-14,-14
-53,-9,43,31,-48,17,-29,-48,-24,-19,-14,-14
-53,-9,43,31,-48,17,-29,-48,-29,-24,-14,-14
-53,-9,43,31,-48,17,-29,-48,-29,-24,-19,-19
-48,-9,39,29,-43,14,-29,-53,-29,-24,-24,-24
-48,-9,39,29,-43,14,-29,-53,-29,-19,-24,-24
-53,-9,43,31,-48,17,-34,-53,-29,-14,-24,-24
-53,-4,48,29,-51,21,-34,-53,-29,-19,-24,-24
-53,-4,48,29,-51,21,-39,-58,-34,-19,-24,-24
-48,-4,43,26,-46,19,-34,-53,-34,-19,-19,-24
-43,0,43,21,-43,21,-24,-48,-39,-19,-19,-24
-48,-4,43,26,-46,19,-24,-48,-43,-24,-19,-29
-53,-4,48,29,-51,21,-29,-48,-43,-24,-19,-29
-53,-4,48,29,-51,21,-29,-53,-48,-29,-19,-24
-53,-4,48,29,-51,21,-29,-53,-48,-29,-19,-19
-53,-9,43,31,-48,17,-29,-53,-48,-29,-19,-19
-53,-9,43,31,-48,17,-29,-53,-53,-29,-24,-24
-53,-9,43,31,-48,17,-29,-53,-53,-29,-24,-24
-58,-9,48,34,-53,19,-29,-58,-53,-34,-24,-24
-58,-9,48,34,-53,19,-29,-63,-58,-34,-24,-24
-58,-9,48,34,-53,19,-24,-63,-58,-34,-24,-24
-53,0,53,26,-53,26,-24,-58,-58,-34,-24,-24
-53,0,53,26,-53,26,-24,-58,-63,-39,-24,-24
-48,0,48,24,-48,24,-24,-63,-68,-39,-29,-29
-48,-4,43,26,-46,19,-29,-68,-68,-39,-34,-34
-58,-9,48,34,-53,19,-34,-68,-68,-39,-34,-34
-63,-14,48,39,-56,17,-39,-68,-73,-43,-34,-34
-63,-14,48,39,-56,17,-39,-68,-73,-48,-34,-34
-63,-14,48,39,-56,17,-43,-68,-73,-53,-34,-34
-68,-24,43,46,-56,9,-43,-78,-73,-48,-39,-34
-68,-24,43,46,-56,9,-43,-78,-73,-48,-39,-34
-63,-24,39,43,-51,7,-43,-73,-73,-48,-34,-34
-63,-14,48,39,-56,17,-43,-73,-73,-48,-34,-34
-63,-9,53,36,-58,21,-43,-73,-73,-48,-24,-29
-63,-4,58,34,-61,26,-43,-73,-73,-43,-24,-29
-63,0,63,31,-63,31,-43,-73,-73,-43,-29,-29
-63,-4,58,34,-61,26,-43,-68,-78,-43,-29,-29
-68,-4,63,36,-65,29,-43,-68,-78,-48,-29,-29
-73,-4,68,39,-70,31,-43,-73,-78,-48,-29,-29
-68,-9,58,39,-63,24,-43,-73,-78,-43,-29,-24
-63,-9,53,36,-58,21,-34,-68,-78,-43,-29,-24
-68,-14,53,41,-61,19,-34,-73,-78,-48,-34,-24
-68,-19,48,43,-58,14,-43,-73,-78,-48,-39,-24
-68,-9,58,39,-63,24,-43,-78,-78,-43,-34,-24
-68,-9,58,39,-63,24,-43,-78,-78,-43,-34,-29
-73,-9,63,41,-68,26,-43,-78,-78,-48,-34,-29
-78,-9,68,43,-73,29,-43,-78,-78,-48,-34,-34
-68,-4,63,36,-65,29,-39,-78,-78,-48,-34,-34
-63,0,63,31,-63,31,-39,-82,-82,-43,-43,-34
-73,-19,53,46,-63,17,-48,-82,-82,-43,-43,-34
-68,-19,48,43,-58,14,-48,-78,-78,-48,-43,-34
-78,-24,53,51,-65,14,-48,-78,-82,-48,-39,-34
-82,-29,53,56,-68,12,-48,-82,-82,-48,-39,-34
-73,-14,58,43,-65,21,-48,-82,-87,-43,-34,-34
-53,4,58,24,-56,31,-48,-82,-82,-39,-29,-34
-58,4,63,26,-61,34,-43,-78,-82,-39,-29,-34
-63,0,63,31,-63,31,-34,-78,-82,-39,-29,-29
-78,-9,68,43,-73,29,-34,-78,-87,-53,-39,-29
-68,-9,58,39,-63,24,-34,-73,-87,-48,-39,-34
-73,-9,63,41,-68,26,-34,-73,-82,-39,-34,-29
-78,-9,68,43,-73,29,-34,-73,-78,-34,-29,-29
-73,4,78,34,-75,41,-29,-68,-63,-24,-24,-19
-68,19,87,24,-78,53,-29,-68,-48,-19,-19,-9
-68,29,97,19,-82,63,-29,-68,-48,-19,-19,-9
-68,39,107,14,-87,73,-29,-68,-48,-19,-19,-9
-68,43,112,12,-90,78,-29,-63,-43,-14,-14,-9
-63,39,102,12,-82,70,-29,-58,-39,-9,-9,-4
-58,39,97,9,-78,68,-29,-58,-39,-4,-9,0
-58,39,97,9,-78,68,-34,-58,-34,-4,-4,0
-39,53,92,-7,-65,73,-39,-63,-29,4,4,9
-29,68,97,-19,-63,82,-58,-87,-29,9,9,19
-14,82,97,-34,-56,90,-82,-102,-34,14,19,19
14,97,82,-56,-34,90,-82,-102,-34,29,34,34
24,97,73,-61,-24,85,-82,-102,-34,29,39,39
24,97,73,-61,-24,85,-82,-97,-39,29,39,39
29,92,63,-61,-17,78,-82,-97,-48,24,29,34
14,73,58,-43,-21,65,-87,-107,-63,0,14,19
0,53,53,-26,-26,53,-87,-117,-97,-14,0,0
-9,48,58,-19,-34,53,-87,-117,-97,-29,-9,-4
-29,43,73,-7,-51,58,-78,-112,-97,-29,-9,-4
-48,34,82,7,-65,58,-68,-107,-92,-24,-9,-4
-73,29,102,21,-87,65,-58,-107,-92,-24,-14,-14
-87,14,102,36,-95,58,-53,-102,-97,-39,-19,-24
-87,0,87,43,-87,43,-48,-102,-107,-48,-24,-34
-87,0,87,43,-87,43,-48,-102,-107,-53,-34,-34
-102,-14,87,58,-95,36,-48,-102,-102,-63,-43,-43
-102,-19,82,61,-92,31,-53,-102,-102,-68,-48,-43
-107,-19,87,63,-97,34,-48,-102,-102,-68,-48,-43
-107,-24,82,65,-95,29,-48,-102,-112,-68,-48,-43
-107,-9,97,58,-102,43,-48,-102,-112,-68,-48,-43
-102,-4,97,53,-100,46,-48,-97,-107,-63,-43,-43
-92,-14,78,53,-85,31,-43,-92,-97,-58,-39,-39
-63,-24,39,43,-51,7,-43,-87,-97,-48,-34,-29
-24,-29,-4,26,-9,-17,-58,-82,-92,-24,-9,-4
39,-19,-58,-9,48,-39,-68,-73,-78,9,29,34
117,19,-97,-68,107,-39,-78,-73,-48,63,82,82
219,48,-170,-134,195,-61,-92,-63,-43,92,122,136
297,63,-234,-180,265,-85,-107,-48,-29,141,161,185
380,117,-263,-248,322,-73,-107,-29,34,224,229,253
448,151,-297,-300,373,-73,-126,-34,58,283,297,307
527,180,-346,-353,436,-82,-161,-43,58,317,346,366
590,190,-400,-390,495,-104,-185,-53,34,331,375,400
644,190,-453,-417,549,-131,-200,-53,29,356,400,429
712,195,-517,-453,614,-161,-204,-39,19,361,419,463
780,185,-595,-483,688,-204,-195,-4,9,356,424,478
839,156,-683,-497,761,-263,-146,53,4,331,414,478
912,102,-810,-507,861,-353,-122,97,-24,302,395,478
1054,4,-1049,-529,1051,-522,-73,185,-63,244,361,463
1195,-92,-1288,-551,1241,-690,-4,292,-48,219,341,473
1400,-73,-1473,-663,1437,-773,9,351,24,370,478,605
1590,-102,-1693,-744,1642,-897,29,405,43,463,566,697
1761,-263,-2025,-749,1893,-1144,97,522,-73,356,488,653
1893,-536,-2430,-678,2161,-1483,326,810,-73,175,312,497
1922,-741,-2664,-590,2293,-1703,580,1093,19,63,146,326
1815,-839,-2654,-488,2235,-1747,732,1220,43,-141,-87,92
1468,-893,-2361,-287,1915,-1627,785,1200,14,-448,-424,-224
1088,-785,-1873,-151,1481,-1329,746,1029,-102,-517,-473,-297
692,-634,-1327,-29,1010,-980,692,854,-165,-468,-424,-273
263,-478,-741,107,502,-610,683,727,-92,-336,-307,-219
19,-361,-380,170,200,-370,658,663,-4,-248,-244,-200
-48,-317,-268,183,109,-292,619,610,4,-229,-234,-209
-73,-273,-200,173,63,-236,522,502,-19,-195,-200,-175
-87,-224,-136,156,24,-180,444,424,-34,-175,-170,-156
-92,-165,-73,129,-9,-119,366,336,-34,-156,-161,-146
-112,-122,-9,117,-51,-65,302,278,-9,-117,-122,-122
-136,-82,53,109,-95,-14,239,200,9,-87,-92,-97
-141,-43,97,92,-119,26,131,78,0,-68,-82,-87
-151,-14,136,82,-143,61,43,-19,-14,-73,-78,-78
-156,9,165,73,-161,87,29,-24,-19,-53,-63,-68
-165,14,180,75,-173,97,14,-34,-19,-53,-63,-63
-170,9,180,80,-175,95,9,-34,-24,-53,-63,-63
-175,9,185,82,-180,97,-4,-48,-24,-53,-63,-63
-180,14,195,82,-187,104,-24,-58,-24,-53,-63,-63
-185,14,200,85,-192,107,-39,-73,-24,-43,-53,-68
-190,9,200,90,-195,104,-48,-73,-24,-48,-48,-68
-185,19,204,82,-195,112,-48,-82,-24,-53,-48,-68
-180,34,214,73,-197,124,-58,-92,-29,-53,-48,-68
-185,43,229,70,-207,136,-58,-97,-29,-43,-48,-58
-190,48,239,70,-214,143,-63,-97,-24,-34,-43,-53
-190,48,239,70,-214,143,-63,-97,-24,-34,-43,-53
-190,48,239,70,-214,143,-63,-102,-19,-34,-43,-53
-200,48,248,75,-224,148,-73,-102,-19,-29,-43,-48
-209,48,258,80,-234,153,-78,-102,-19,-24,-39,-48
-209,53,263,78,-236,158,-78,-102,-19,-24,-34,-53
-209,63,273,73,-241,168,-82,-107,-14,-19,-34,-53
-204,73,278,65,-241,175,-82,-112,-4,-19,-34,-53
-204,82,287,61,-246,185,-87,-112,4,-9,-29,-53
-204,82,287,61,-246,185,-92,-122,9,-9,-29,-53
-209,92,302,58,-256,197,-92,-122,14,0,-14,-48
-209,92,302,58,-256,197,-97,-126,19,4,-14,-43
-209,102,312,53,-261,207,-102,-122,24,9,-14,-43
-224,107,331,58,-278,219,-102,-131,24,9,-9,-39
-229,107,336,61,-283,222,-97,-131,29,19,-9,-34
-239,117,356,61,-297,236,-102,-146,34,24,-4,-34
-244,117,361,63,-302,239,-107,-146,39,24,0,-34
-248,131,380,58,-314,256,-112,-146,53,34,4,-29
-263,136,400,63,-331,268,-117,-161,58,43,4,-29
-268,151,419,58,-344,285,-117,-156,63,48,14,-29
-287,156,444,65,-366,300,-117,-161,73,53,14,-24
-278,165,444,56,-361,305,-117,-156,78,63,24,-24
-273,175,448,48,-361,312,-122,-165,92,68,34,-24
-302,185,488,58,-395,336,-117,-165,112,78,39,-29
-307,195,502,56,-405,348,-112,-165,126,82,39,-34
-317,204,522,56,-419,363,-112,-170,136,87,34,-34
-331,214,546,58,-439,380,-112,-170,156,97,34,-34
-341,224,566,58,-453,395,-112,-165,180,102,39,-34
-361,229,590,65,-475,409,-97,-156,200,102,39,-34
-375,229,605,73,-490,417,-92,-151,224,107,39,-39
-385,229,614,78,-500,422,-82,-146,248,112,34,-43
-395,219,614,87,-505,417,-73,-141,263,112,29,-53
-400,214,614,92,-507,414,-53,-122,278,112,24,-58
-400,209,610,95,-505,409,-39,-107,302,102,14,-68
-400,190,590,104,-495,390,-24,-92,322,97,4,-82
-400,180,580,109,-490,380,-9,-73,341,92,-4,-92
-405,156,561,124,-483,358,14,-53,351,78,-14,-102
-400,126,527,136,-463,326,34,-29,366,73,-24,-112
-370,117,488,126,-429,302,53,0,370,63,-34,-117
-361,82,444,139,-402,263,63,24,370,48,-48,-131
-341,58,400,141,-370,229,73,34,356,29,-68,-136
-317,39,356,139,-336,197,78,48,341,9,-68,-131
-278,24,302,126,-290,163,82,58,322,-4,-78,-131
-244,14,258,114,-251,136,82,68,287,-14,-78,-126
-209,14,224,97,-217,119,78,68,253,-24,-78,-117
-190,4,195,92,-192,100,68,58,214,-29,-78,-112
-165,0,165,82,-165,82,58,53,185,-43,-78,-97
-141,-4,136,73,-139,65,39,39,151,-34,-73,-87
-122,-4,117,63,-119,56,24,24,122,-29,-68,-78
-107,0,107,53,-107,53,4,14,97,-29,-53,-68
-92,4,97,43,-95,51,-9,4,73,-34,-48,-63
-82,-4,78,43,-80,36,-9,-9,39,-34,-48,-48
-78,-9,68,43,-73,29,-24,-29,9,-39,-48,-43
-68,-9,58,39,-63,24,-29,-34,0,-34,-43,-34
-63,-4,58,34,-61,26,-34,-34,-9,-34,-39,-29
-58,-4,53,31,-56,24,-34,-34,-19,-34,-34,-29
-48,-4,43,26,-46,19,-34,-34,-24,-34,-34,-24
-48,-4,43,26,-46,19,-39,-39,-29,-34,-34,-24
-48,-14,34,31,-41,9,-43,-43,-34,-39,-34,-29
-48,-14,34,31,-41,9,-43,-43,-39,-39,-34,-29
-48,-14,34,31,-41,9,-43,-43,-48,-39,-34,-24
-48,-14,34,31,-41,9,-43,-43,-48,-39,-39,-24
-43,-14,29,29,-36,7,-43,-43,-43,-39,-39,-24
-39,-14,24,26,-31,4,-43,-39,-43,-39,-39,-24
-34,-9,24,21,-29,7,-39,-34,-43,-39,-39,-24
-34,-9,24,21,-29,7,-34,-29,-43,-39,-34,-24
-34,-4,29,19,-31,12,-34,-29,-39,-39,-34,-24
-39,-14,24,26,-31,4,-34,-34,-39,-39,-34,-29
-43,-29,14,36,-29,-7,-34,-39,-39,-34,-34,-34
-43,-19,24,31,-34,2,-34,-39,-39,-34,-29,-34
-43,-9,34,26,-39,12,-34,-39,-39,-34,-29,-34
-43,-4,39,24,-41,17,-43,-39,-39,-34,-34,-34
-43,0,43,21,-43,21,-48,-39,-39,-34,-34,-29
-39,0,39,19,-39,19,-43,-39,-34,-29,-29,-29
-34,0,34,17,-34,17,-43,-39,-34,-29,-29,-24
-34,0,34,17,-34,17,-34,-39,-34,-29,-29,-24
-34,0,34,17,-34,17,-24,-43,-34,-29,-29,-24
-39,9,48,14,-43,29,-24,-43,-34,-29,-24,-29
-39,19,58,9,-48,39,-24,-43,-34,-29,-24,-29
-53,4,58,24,-56,31,-24,-43,-34,-29,-29,-29
-68,-14,53,41,-61,19,-29,-43,-34,-24,-34,-29
-68,-14,53,41,-61,19,-43,-43,-34,-24,-34,-29
-73,-14,58,43,-65,21,-58,-43,-34,-24,-34,-29
-63,-9,53,36,-58,21,-48,-43,-34,-24,-34,-29
-53,0,53,26,-53,26,-39,-43,-34,-24,-34,-24
-53,0,53,26,-53,26,-39,-48,-34,-29,-34,-24
-53,0,53,26,-53,26,-39,-48,-39,-34,-34,-24
-53,0,53,26,-53,26,-39,-48,-39,-34,-34,-24
-48,0,48,24,-48,24,-39,-53,-39,-34,-34,-24
-48,0,48,24,-48,24,-34,-53,-39,-29,-29,-24
-53,0,53,26,-53,26,-34,-53,-39,-24,-24,-24
-53,4,58,24,-56,31,-34,-53,-39,-29,-24,-24
-53,4,58,24,-56,31,-39,-58,-43,-29,-24,-24
-53,4,58,24,-56,31,-39,-58,-39,-29,-24,-24
-53,9,63,21,-58,36,-34,-58,-39,-29,-29,-24
-58,4,63,26,-61,34,-34,-53,-43,-34,-29,-29
-63,4,68,29,-65,36,-39,-48,-43,-34,-29,-29
-73,4,78,34,-75,41,-39,-53,-48,-39,-29,-29
-82,4,87,39,-85,46,-39,-53,-48,-39,-29,-29
-73,0,73,36,-73,36,-39,-53,-48,-39,-29,-29
-63,0,63,31,-63,31,-39,-53,-53,-39,-34,-34
-63,0,63,31,-63,31,-39,-53,-53,-39,-34,-34
-68,0,68,34,-68,34,-39,-58,-53,-43,-34,-34
-73,-9,63,41,-68,26,-48,-68,-63,-43,-34,-34
-78,-19,58,48,-68,19,-53,-73,-68,-43,-34,-34
-78,-9,68,43,-73,29,-53,-68,-68,-43,-34,-34
-82,-9,73,46,-78,31,-53,-68,-73,-48,-34,-34
-78,-4,73,41,-75,34,-48,-68,-73,-48,-39,-39
-78,-4,73,41,-75,34,-48,-68,-68,-48,-43,-43
-82,-4,78,43,-80,36,-48,-73,-68,-48,-43,-43
-82,-4,78,43,-80,36,-48,-78,-73,-53,-43,-43
-87,-4,82,46,-85,39,-48,-78,-78,-53,-43,-43
-92,-4,87,48,-90,41,-53,-78,-82,-53,-43,-43
-97,-14,82,56,-90,34,-53,-87,-82,-48,-48,-43
-97,-14,82,56,-90,34,-53,-87,-82,-48,-48,-43
-87,-14,73,51,-80,29,-53,-82,-82,-48,-43,-43
-82,-4,78,43,-80,36,-53,-82,-82,-48,-43,-43
-82,-4,78,43,-80,36,-53,-78,-82,-53,-39,-39
-82,-4,78,43,-80,36,-53,-73,-82,-53,-43,-39
-82,0,82,41,-82,41,-53,-73,-82,-53,-48,-39
-82,-4,78,43,-80,36,-53,-68,-87,-53,-48,-39
-87,-4,82,46,-85,39,-53,-68,-87,-53,-48,-39
-92,-4,87,48,-90,41,-53,-73,-87,-48,-48,-39
-87,-9,78,48,-82,34,-63,-78,-87,-43,-48,-34
-82,-9,73,46,-78,31,-63,-78,-87,-43,-48,-34
-82,-4,78,43,-80,36,-53,-78,-78,-48,-48,-34
-87,0,87,43,-87,43,-48,-78,-68,-58,-48,-39
-87,14,102,36,-95,58,-48,-78,-63,-48,-39,-34
-87,29,117,29,-102,73,-48,-78,-58,-39,-29,-29
-78,34,112,21,-95,73,-43,-73,-58,-34,-29,-24
-68,39,107,14,-87,73,-34,-63,-53,-29,-24,-19
-63,48,112,7,-87,80,-29,-58,-48,-24,-19,-19
-58,39,97,9,-78,68,-29,-58,-48,-24,-19,-9
-68,39,107,14,-87,73,-43,-58,-43,-24,-14,-9
-58,53,112,2,-85,82,-63,-63,-43,-14,-4,0
-39,78,117,-19,-78,97,-78,-87,-43,-4,4,9
-14,97,112,-41,-63,104,-92,-102,-43,4,14,9
14,107,92,-61,-39,100,-92,-102,-43,19,24,24
24,107,82,-65,-29,95,-92,-102,-43,19,29,29
19,97,78,-58,-29,87,-92,-97,-48,19,29,29
14,82,68,-48,-26,75,-92,-97,-58,14,19,24
-4,63,68,-29,-36,65,-102,-107,-73,-9,4,9
-19,43,63,-12,-41,53,-107,-117,-107,-24,-9,-9
-24,39,63,-7,-43,51,-107,-117,-107,-39,-19,-14
-39,34,73,2,-56,53,-97,-112,-107,-39,-19,-14
-58,29,87,14,-73,58,-82,-107,-102,-34,-19,-14
-82,29,112,26,-97,70,-73,-107,-102,-34,-29,-24
-97,14,112,41,-104,63,-73,-102,-107,-53,-39,-34
-97,0,97,48,-97,48,-68,-102,-117,-68,-43,-43
-97,0,97,48,-97,48,-68,-102,-117,-73,-53,-43
-112,-9,102,61,-107,46,-63,-102,-112,-78,-58,-53
-112,-9,102,61,-107,46,-68,-102,-112,-78,-58,-53
-117,-9,107,63,-112,48,-68,-102,-112,-78,-58,-53
-112,-14,97,63,-104,41,-68,-102,-122,-78,-58,-53
-107,-14,92,61,-100,39,-68,-102,-122,-78,-58,-53
-102,-24,78,63,-90,26,-68,-97,-122,-68,-53,-53
-82,-24,58,53,-70,17,-63,-87,-112,-58,-43,-43
-39,-24,14,31,-26,-4,-63,-82,-107,-48,-34,-24
14,-19,-34,2,24,-26,-78,-82,-97,-14,-4,9
87,4,-82,-46,85,-39,-97,-73,-82,29,39,53
156,39,-117,-97,136,-39,-117,-73,-58,82,92,102
248,58,-190,-153,219,-65,-131,-68,-53,112,131,156
326,73,-253,-200,290,-90,-146,-58,-34,161,180,204
409,131,-278,-270,344,-73,-146,-39,34,244,258,273
478,165,-312,-322,395,-73,-161,-39,58,302,317,326
556,190,-366,-373,461,-87,-190,-43,53,336,356,385
629,200,-429,-414,529,-114,-209,-43,29,351,385,419
692,190,-502,-441,597,-156,-219,-34,29,375,409,448
761,175,-585,-468,673,-204,-219,-19,19,375,424,478
834,156,-678,-495,756,-261,-200,19,9,361,424,488
897,122,-775,-509,836,-326,-146,82,0,331,414,488
971,63,-907,-517,939,-422,-122,126,-34,302,395,488
1102,-43,-1146,-529,1124,-595,-73,209,-87,244,361,473
1234,-151,-1385,-541,1310,-768,-4,312,-87,234,356,488
1420,-165,-1586,-627,1503,-875,9,370,-63,336,458,580
1590,-239,-1830,-675,1710,-1034,34,424,-73,356,488,629
1717,-409,-2127,-653,1922,-1268,126,541,-170,229,385,566
1786,-668,-2454,-558,2120,-1561,375,829,-185,24,180,375
1795,-844,-2640,-475,2217,-1742,619,1112,-78,-102,-9,180
1649,-902,-2552,-373,2100,-1727,751,1215,-34,-297,-239,-48
1288,-922,-2210,-183,1749,-1566,790,1171,-53,-551,-512,-302
902,-814,-1717,-43,1310,-1266,761,1010,-117,-541,-492,-317
531,-649,-1180,58,856,-915,702,839,-165,-458,-424,-283
209,-492,-702,141,456,-597,673,727,-126,-351,-331,-244
-4,-400,-395,202,195,-397,658,683,-34,-263,-268,-214
-82,-356,-273,219,95,-314,629,629,-4,-219,-234,-204
-97,-312,-214,204,58,-263,531,522,-29,-200,-214,-190
-112,-258,-146,185,17,-202,453,444,-39,-195,-200,-185
-112,-190,-78,151,-17,-134,380,356,-34,-165,-180,-165
-131,-141,-9,136,-61,-75,322,297,-9,-122,-131,-131
-156,-97,58,126,-107,-19,258,229,9,-97,-102,-107
-161,-53,107,107,-134,26,151,117,0,-78,-92,-97
-170,-24,146,97,-158,61,48,0,-9,-78,-82,-87
-175,-4,170,90,-173,82,19,-24,-9,-53,-63,-78
-185,0,185,92,-185,92,4,-39,-9,-53,-63,-73
-190,0,190,95,-190,95,0,-39,-14,-53,-63,-73
-190,0,190,95,-190,95,-9,-48,-14,-53,-63,-73
-190,4,195,92,-192,100,-24,-58,-14,-53,-63,-68
-195,14,209,90,-202,112,-34,-73,-14,-39,-53,-63
-195,24,219,85,-207,122,-39,-73,-14,-39,-48,-58
-190,29,219,80,-204,124,-39,-82,-14,-43,-48,-58
-190,34,224,78,-207,129,-48,-92,-19,-43,-48,-58
-195,43,239,75,-217,141,-48,-97,-19,-39,-48,-53
-204,34,239,85,-222,136,-53,-97,-19,-34,-43,-58
-209,24,234,92,-222,129,-53,-97,-24,-34,-43,-63
-209,39,248,85,-229,143,-53,-102,-19,-34,-43,-63
-214,48,263,82,-239,156,-63,-107,-19,-29,-43,-58
-219,48,268,85,-244,158,-68,-112,-19,-24,-39,-58
-219,53,273,82,-246,163,-68,-112,-19,-24,-34,-58
-219,63,283,78,-251,173,-73,-117,-14,-19,-34,-53
-219,68,287,75,-253,178,-73,-122,-9,-19,-34,-53
-219,73,292,73,-256,183,-73,-122,-4,-9,-29,-53
-219,73,292,73,-256,183,-73,-131,-4,-9,-29,-53
-229,82,312,73,-270,197,-73,-126,-4,0,-14,-48
-229,87,317,70,-273,202,-78,-131,0,4,-14,-43
-229,102,331,63,-280,217,-82,-131,9,9,-14,-43
-244,107,351,68,-297,229,-87,-141,14,9,-9,-43
-248,107,356,70,-302,231,-87,-141,19,19,-9,-43
-253,122,375,65,-314,248,-92,-156,24,24,-4,-43
-258,122,380,68,-319,251,-97,-161,24,24,0,-43
-268,131,400,68,-334,265,-102,-165,34,34,4,-39
-283,136,419,73,-351,278,-107,-180,39,43,4,-39
-287,151,439,68,-363,295,-112,-180,43,48,14,-39
-297,161,458,68,-378,309,-117,-185,58,53,14,-34
-292,175,468,58,-380,322,-117,-180,68,63,19,-34
-302,185,488,58,-395,336,-122,-195,82,68,24,-34
-331,195,527,68,-429,361,-122,-195,102,78,29,-34
-336,204,541,65,-439,373,-122,-195,117,82,29,-34
-346,214,561,65,-453,387,-122,-200,126,87,29,-34
-356,224,580,65,-468,402,-122,-200,141,97,34,-34
-361,229,590,65,-475,409,-122,-200,156,102,39,-39
-380,229,610,75,-495,419,-107,-195,170,97,39,-43
-395,229,624,82,-509,427,-102,-190,195,97,39,-48
-409,229,639,90,-524,434,-92,-185,219,102,34,-53
-419,224,644,97,-531,434,-87,-180,239,102,29,-63
-424,219,644,102,-534,431,-73,-161,253,97,19,-73
-429,209,639,109,-534,424,-58,-146,273,87,9,-82
-429,190,619,119,-524,405,-43,-131,292,87,4,-92
-419,180,600,119,-509,390,-34,-112,307,82,-4,-97
-414,161,575,126,-495,368,-14,-92,312,68,-14,-102
-405,136,541,134,-473,339,4,-68,326,63,-24,-107
-370,126,497,122,-434,312,24,-39,331,53,-39,-107
-351,97,448,126,-400,273,34,-14,331,43,-48,-117
-322,78,400,122,-361,239,43,-4,317,29,-58,-122
-297,58,356,119,-326,207,48,9,297,14,-58,-122
-263,43,307,109,-285,175,53,9,273,4,-68,-122
-234,29,263,102,-248,146,53,9,239,-4,-68,-117
-200,24,224,87,-212,124,48,9,204,-14,-63,-102
-180,9,190,85,-185,100,39,4,165,-19,-58,-92
-156,4,161,75,-158,82,29,9,141,-29,-53,-78
-131,4,136,63,-134,70,19,4,112,-24,-48,-73
-112,4,117,53,-114,61,14,-4,82,-29,-48,-63
-97,4,102,46,-100,53,4,-9,63,-29,-39,-53
-82,4,87,39,-85,46,0,-19,43,-34,-39,-53
-78,-4,73,41,-75,34,0,-29,19,-34,-39,-43
-87,-19,68,53,-78,24,-24,-39,-9,-39,-39,-48
-87,-29,58,58,-73,14,-34,-43,-29,-39,-39,-48
-82,-24,58,53,-70,17,-34,-43,-29,-43,-39,-48
-82,-24,58,53,-70,17,-34,-43,-29,-43,-34,-48
-68,-14,53,41,-61,19,-34,-43,-34,-43,-34,-39
-58,-4,53,31,-56,24,-34,-43,-39,-43,-34,-34
-58,-14,43,36,-51,14,-34,-43,-43,-43,-34,-34
-58,-14,43,36,-51,14,-34,-43,-43,-39,-34,-29
-58,-14,43,36,-51,14,-34,-43,-48,-39,-34,-24
-58,-14,43,36,-51,14,-34,-43,-48,-39,-39,-24
-63,-14,48,39,-56,17,-29,-43,-43,-39,-39,-29
-73,-19,53,46,-63,17,-29,-43,-43,-39,-39,-34
-63,-19,43,41,-53,12,-29,-43,-43,-39,-39,-34
-53,-19,34,36,-43,7,-24,-39,-43,-39,-34,-34
-53,-14,39,34,-46,12,-24,-39,-39,-39,-34,-34
-53,-14,39,34,-46,12,-24,-39,-39,-39,-34,-34
-53,-19,34,36,-43,7,-24,-39,-39,-34,-34,-34
-53,-19,34,36,-43,7,-24,-39,-39,-34,-29,-34
-53,-19,34,36,-43,7,-24,-39,-39,-34,-24,-34
-53,-14,39,34,-46,12,-29,-39,-39,-34,-24,-34
-58,-14,43,36,-51,14,-34,-39,-39,-39,-24,-29
-63,-19,43,41,-53,12,-34,-39,-34,-39,-19,-29
-63,-19,43,41,-53,12,-34,-39,-43,-39,-24,-34
-63,-19,43,41,-53,12,-34,-39,-53,-39,-29,-43
-58,-14,43,36,-51,14,-34,-43,-43,-34,-29,-34
-58,-9,48,34,-53,19,-34,-43,-34,-29,-24,-29
-58,-9,48,34,-53,19,-34,-43,-34,-29,-24,-29
-58,-4,53,31,-56,24,-34,-43,-34,-29,-24,-29
-53,-4,48,29,-51,21,-34,-43,-34,-24,-24,-29
-48,-4,43,26,-46,19,-29,-43,-34,-24,-24,-29
-53,-4,48,29,-51,21,-29,-43,-34,-24,-24,-29
-53,-4,48,29,-51,21,-29,-43,-34,-24,-24,-29
-53,0,53,26,-53,26,-34,-43,-34,-24,-24,-24
-53,0,53,26,-53,26,-39,-48,-34,-24,-24,-24
-53,0,53,26,-53,26,-39,-48,-39,-24,-24,-24
-53,0,53,26,-53,26,-39,-48,-39,-24,-24,-24
-53,0,53,26,-53,26,-39,-53,-39,-24,-24,-24
-58,0,58,29,-58,29,-39,-53,-39,-24,-24,-24
-63,0,63,31,-63,31,-43,-53,-39,-24,-24,-24
-63,4,68,29,-65,36,-43,-53,-39,-29,-24,-24
-63,4,68,29,-65,36,-48,-58,-43,-29,-24,-24
-63,0,63,31,-63,31,-48,-58,-43,-29,-24,-24
-63,-4,58,34,-61,26,-43,-63,-48,-29,-29,-24
-68,-14,53,41,-61,19,-43,-68,-53,-34,-29,-29
-78,-14,63,46,-70,24,-48,-68,-53,-34,-29,-29
-82,-14,68,48,-75,26,-48,-73,-58,-39,-29,-29
-82,-9,73,46,-78,31,-48,-68,-58,-39,-29,-29
-82,-9,73,46,-78,31,-48,-63,-58,-39,-29,-29
-78,-9,68,43,-73,29,-48,-63,-63,-39,-34,-34
-73,-9,63,41,-68,26,-48,-63,-63,-39,-34,-34
-78,-9,68,43,-73,29,-48,-68,-63,-43,-34,-34
-78,-9,68,43,-73,29,-53,-73,-68,-43,-34,-34
-68,-9,58,39,-63,24,-53,-73,-68,-43,-34,-34
-53,0,53,26,-53,26,-53,-68,-68,-39,-34,-34
-63,-4,58,34,-61,26,-53,-73,-78,-39,-34,-34
-68,-4,63,36,-65,29,-48,-78,-82,-39,-34,-34
-68,-4,63,36,-65,29,-48,-78,-78,-43,-39,-34
-73,-4,68,39,-70,31,-48,-78,-78,-48,-43,-34
-73,-4,68,39,-70,31,-48,-78,-82,-53,-43,-34
-73,-4,68,39,-70,31,-48,-78,-82,-53,-43,-34
-73,0,73,36,-73,36,-53,-78,-82,-53,-43,-34
-78,-4,73,41,-75,34,-53,-87,-82,-48,-48,-34
-82,-4,78,43,-80,36,-53,-87,-82,-48,-48,-39
-82,0,82,41,-82,41,-53,-82,-82,-48,-43,-43
-78,0,78,39,-78,39,-48,-78,-82,-48,-34,-39
-78,0,78,39,-78,39,-48,-78,-87,-48,-29,-34
-73,9,82,31,-78,46,-48,-78,-73,-43,-29,-24
-68,19,87,24,-78,53,-48,-78,-58,-39,-29,-19
-68,34,102,17,-85,68,-43,-78,-53,-29,-19,-19
-68,48,117,9,-92,82,-39,-78,-48,-19,-9,-19
-68,53,122,7,-95,87,-34,-73,-43,-19,-4,-19
-63,43,107,9,-85,75,-29,-68,-39,-19,-4,-14
-63,39,102,12,-82,70,-29,-68,-39,-19,-4,-9
-68,29,97,19,-82,63,-34,-68,-34,-24,-4,-9
-48,43,92,2,-70,68,-43,-68,-34,-14,4,0
-39,58,97,-9,-68,78,-68,-87,-39,-9,9,9
-9,78,87,-34,-48,82,-92,-92,-43,-4,14,9
34,97,63,-65,-14,80,-92,-82,-43,9,24,24
29,97,68,-63,-19,82,-92,-92,-39,9,29,29
14,97,82,-56,-34,90,-92,-97,-39,9,29,29
24,97,73,-61,-24,85,-92,-97,-48,9,19,29
14,82,68,-48,-26,75,-97,-107,-63,-9,4,19
0,63,63,-31,-31,63,-102,-117,-102,-24,-9,0
-9,58,68,-24,-39,63,-107,-117,-107,-39,-19,-4
-24,53,78,-14,-51,65,-97,-112,-107,-39,-19,-4
-39,43,82,-2,-61,63,-87,-107,-102,-34,-19,-4
-63,39,102,12,-82,70,-78,-107,-102,-34,-29,-14
-78,24,102,26,-90,63,-73,-102,-107,-48,-39,-24
-82,4,87,39,-85,46,-68,-102,-117,-58,-43,-39
-87,0,87,43,-87,43,-68,-102,-117,-63,-53,-43
-102,-9,92,56,-97,41,-63,-102,-112,-68,-58,-53
-102,-9,92,56,-97,41,-63,-102,-112,-68,-58,-53
-107,-14,92,61,-100,39,-63,-102,-112,-68,-58,-53
-107,-24,82,65,-95,29,-68,-102,-122,-68,-58,-53
-117,-24,92,70,-104,34,-68,-102,-122,-73,-63,-53
-122,-34,87,78,-104,26,-68,-97,-117,-73,-63,-53
-102,-34,68,68,-85,17,-53,-87,-102,-73,-53,-43
-63,-34,29,48,-46,-2,-43,-78,-97,-68,-43,-29
-24,-29,-4,26,-9,-17,-58,-73,-82,-34,-19,-9
39,-9,-48,-14,43,-29,-68,-63,-58,9,19,24
107,14,-92,-61,100,-39,-73,-63,-29,63,73,73
200,29,-170,-114,185,-70,-82,-53,-24,92,112,126
278,43,-234,-161,256,-95,-97,-34,-4,141,161,175
361,97,-263,-229,312,-82,-97,-9,63,224,239,244
429,126,-302,-278,366,-87,-112,-9,92,287,302,302
507,151,-356,-329,431,-102,-141,-14,97,326,346,366
580,165,-414,-373,497,-124,-165,-19,78,351,380,400
644,170,-473,-407,558,-151,-180,-14,78,385,409,429
712,170,-541,-441,627,-185,-190,-4,68,390,429,468
780,156,-624,-468,702,-234,-185,24,58,385,434,488
834,146,-688,-490,761,-270,-136,78,58,370,434,488
902,112,-790,-507,846,-339,-112,117,34,351,424,488
1019,-9,-1029,-505,1024,-519,-63,200,-34,263,366,458
1137,-131,-1268,-502,1202,-700,4,302,-48,209,322,453
1322,-122,-1444,-600,1383,-783,4,346,-4,326,439,566
1493,-161,-1654,-666,1573,-907,9,385,-14,385,507,639
1649,-312,-1961,-668,1805,-1137,58,463,-180,283,439,605
1766,-575,-2342,-595,2054,-1459,268,712,-229,107,273,458
1883,-800,-2684,-541,2283,-1742,551,1068,-78,24,122,297
1864,-917,-2781,-473,2322,-1849,732,1268,4,-151,-97,73
1571,-995,-2566,-287,2069,-1781,810,1288,9,-488,-463,-263
1244,-912,-2156,-165,1700,-1534,795,1156,-73,-585,-541,-356
863,-736,-1600,-63,1232,-1168,722,951,-195,-536,-492,-331
448,-556,-1005,53,727,-780,692,795,-180,-405,-375,-278
131,-424,-556,146,344,-490,683,732,-48,-283,-278,-229
-9,-366,-356,187,173,-361,658,678,4,-229,-234,-209
-58,-322,-263,190,102,-292,561,561,-19,-209,-214,-190
-97,-273,-175,185,39,-224,483,473,-34,-204,-200,-185
-102,-209,-107,156,2,-158,400,380,-34,-175,-180,-165
-122,-161,-39,141,-41,-100,331,317,-9,-126,-131,-131
-146,-117,29,131,-87,-43,268,248,9,-97,-102,-107
-151,-73,78,112,-114,2,161,136,0,-78,-92,-97
-161,-43,117,102,-139,36,53,14,-14,-78,-82,-87
-165,-19,146,92,-156,63,19,-14,-19,-53,-63,-78
-185,-19,165,102,-175,73,4,-29,-19,-53,-63,-73
-200,-29,170,114,-185,70,0,-34,-24,-53,-63,-73
-185,-9,175,97,-180,82,-4,-48,-19,-53,-63,-68
-170,14,185,78,-178,100,-14,-58,-14,-53,-63,-63
-175,24,200,75,-187,112,-24,-73,-14,-39,-53,-63
-180,29,209,75,-195,119,-29,-73,-14,-39,-48,-58
-190,19,209,85,-200,114,-29,-82,-14,-43,-48,-58
-200,14,214,92,-207,114,-39,-92,-19,-43,-48,-58
-204,24,229,90,-217,126,-39,-97,-19,-39,-48,-53
-209,29,239,90,-224,134,-43,-97,-14,-34,-43,-53
-209,39,248,85,-229,143,-43,-97,-14,-34,-39,-53
-209,48,258,80,-234,153,-43,-102,-9,-34,-34,-53
-214,48,263,82,-239,156,-53,-112,-9,-29,-34,-48
-219,48,268,85,-244,158,-58,-122,-9,-24,-29,-48
-219,53,273,82,-246,163,-58,-122,-9,-19,-24,-48
-219,63,283,78,-251,173,-63,-126,-4,-9,-24,-43
-214,68,283,73,-248,175,-58,-126,0,-9,-24,-43
-214,73,287,70,-251,180,-58,-122,4,0,-19,-43
-219,73,292,73,-256,183,-63,-131,4,0,-19,-43
-229,82,312,73,-270,197,-63,-131,4,9,-4,-39
-234,82,317,75,-275,200,-73,-141,9,9,-4,-34
-239,92,331,73,-285,212,-82,-141,14,9,-4,-34
-253,97,351,78,-302,224,-87,-151,14,9,0,-34
-258,97,356,80,-307,226,-87,-151,19,19,0,-34
-258,117,375,70,-317,246,-92,-165,24,29,9,-34
-253,126,380,63,-317,253,-97,-165,29,34,19,-34
-258,141,400,58,-329,270,-102,-165,43,43,24,-29
-273,146,419,63,-346,283,-107,-180,48,53,24,-29
-278,156,434,61,-356,295,-112,-180,53,58,29,-29
-297,156,453,70,-375,305,-117,-190,63,63,24,-24
-302,165,468,68,-385,317,-117,-185,68,73,29,-24
-312,175,488,68,-400,331,-122,-195,82,78,34,-24
-336,190,527,73,-431,358,-117,-195,107,92,43,-19
-336,204,541,65,-439,373,-112,-195,126,102,48,-14
-346,214,561,65,-453,387,-112,-200,136,107,48,-14
-361,224,585,68,-473,405,-112,-200,156,117,53,-14
-370,229,600,70,-485,414,-112,-200,175,122,58,-19
-390,229,619,80,-505,424,-97,-195,190,122,58,-24
-409,224,634,92,-522,429,-92,-190,214,126,58,-29
-424,219,644,102,-534,431,-82,-185,239,131,53,-34
-429,214,644,107,-536,429,-78,-180,263,131,48,-43
-429,214,644,107,-536,429,-63,-161,287,131,43,-48
-429,219,649,104,-539,434,-48,-146,312,131,39,-53
-429,209,639,109,-534,424,-34,-131,331,136,34,-63
-424,200,624,112,-524,412,-24,-112,351,131,24,-68
-424,175,600,124,-512,387,-4,-92,361,117,14,-73
-414,146,561,134,-488,353,19,-63,375,107,4,-78
-380,136,517,122,-448,326,43,-29,380,92,-4,-78
-361,107,468,126,-414,287,53,0,385,82,-9,-92
-331,87,419,122,-375,253,63,14,375,68,-19,-97
-317,63,380,126,-348,222,68,29,356,53,-24,-92
-287,43,331,122,-309,187,73,39,331,43,-39,-92
-253,24,278,114,-265,151,73,43,292,29,-39,-92
-219,14,234,102,-226,124,68,39,253,14,-39,-87
-190,0,190,95,-190,95,58,29,214,9,-43,-82
-156,-9,146,82,-151,68,48,24,185,-4,-48,-68
-141,-14,126,78,-134,56,29,9,141,-9,-48,-63
-131,-14,117,73,-124,51,14,-4,102,-19,-48,-58
-117,-14,102,65,-109,43,4,-9,82,-19,-34,-48
-102,-14,87,58,-95,36,0,-14,63,-24,-29,-43
-87,-19,68,53,-78,24,0,-19,34,-19,-29,-34
-78,-19,58,48,-68,19,-14,-29,9,-19,-29,-34
-68,-19,48,43,-58,14,-14,-34,0,-19,-29,-29
-63,-14,48,39,-56,17,-14,-34,-9,-24,-29,-29
-68,-14,53,41,-61,19,-19,-39,-24,-29,-24,-29
-68,-14,53,41,-61,19,-24,-43,-34,-34,-24,-24
-68,-14,53,41,-61,19,-24,-43,-39,-34,-24,-24
-68,-24,43,46,-56,9,-24,-43,-43,-39,-24,-29
-68,-29,39,48,-53,4,-24,-43,-43,-39,-24,-34
-68,-34,34,51,-51,0,-24,-43,-48,-39,-24,-34
-68,-34,34,51,-51,0,-19,-43,-48,-39,-29,-34
-63,-34,29,48,-46,-2,-14,-43,-43,-39,-29,-34
-53,-29,24,41,-39,-2,-19,-43,-43,-39,-29,-34
-43,-19,24,31,-34,2,-19,-43,-43,-39,-29,-34
-53,-29,24,41,-39,-2,-14,-39,-43,-39,-24,-29
-63,-34,29,48,-46,-2,-14,-39,-39,-39,-24,-24
-63,-34,29,48,-46,-2,-14,-39,-39,-39,-24,-24
-63,-39,24,51,-43,-7,-14,-39,-39,-34,-24,-24
-63,-39,24,51,-43,-7,-14,-39,-39,-34,-19,-24
-63,-39,24,51,-43,-7,-14,-39,-39,-34,-19,-24
-63,-34,29,48,-46,-2,-19,-39,-39,-34,-24,-24
-63,-29,34,46,-48,2,-19,-39,-39,-34,-24,-19
-58,-29,29,43,-43,0,-14,-34,-34,-19,-19,-19
-53,-29,24,41,-39,-2,-14,-29,-34,-9,-19,-14
-53,-29,24,41,-39,-2,-19,-29,-34,-19,-19,-19
-53,-29,24,41,-39,-2,-24,-34,-34,-29,-19,-24
-68,-34,34,51,-51,0,-24,-39,-34,-29,-19,-29
-78,-39,39,58,-58,0,-24,-43,-34,-29,-24,-29
-78,-34,43,56,-61,4,-19,-43,-34,-29,-24,-29
-78,-34,43,56,-61,4,-19,-43,-34,-24,-24,-29
-63,-24,39,43,-51,7,-19,-43,-34,-24,-24,-24
-53,-14,39,34,-46,12,-19,-43,-34,-24,-24,-19
-53,-14,39,34,-46,12,-19,-43,-34,-24,-19,-19
-53,-9,43,31,-48,17,-19,-43,-34,-24,-14,-14
-58,-9,48,34,-53,19,-19,-48,-34,-24,-14,-14
-63,-9,53,36,-58,21,-19,-48,-39,-24,-14,-14
-73,-9,63,41,-68,26,-19,-48,-39,-24,-19,-14
-78,-9,68,43,-73,29,-19,-53,-39,-24,-24,-14
-78,-9,68,43,-73,29,-24,-53,-39,-24,-24,-19
-82,-9,73,46,-78,31,-34,-53,-39,-24,-24,-24
-82,-4,78,43,-80,36,-34,-53,-39,-29,-24,-24
-82,-4,78,43,-80,36,-39,-58,-43,-29,-24,-24
-78,-9,68,43,-73,29,-39,-58,-43,-29,-19,-24
-73,-9,63,41,-68,26,-34,-58,-48,-29,-19,-24
-78,-14,63,46,-70,24,-34,-58,-53,-29,-19,-29
-82,-14,68,48,-75,26,-39,-58,-53,-24,-19,-29
-87,-14,73,51,-80,29,-39,-63,-58,-29,-19,-29
-92,-14,78,53,-85,31,-39,-63,-58,-29,-19,-29
-92,-34,58,63,-75,12,-39,-63,-58,-34,-24,-29
-92,-48,43,70,-68,-2,-39,-63,-63,-39,-34,-34
-87,-34,53,61,-70,9,-39,-63,-63,-39,-34,-34
-87,-19,68,53,-78,24,-39,-68,-63,-43,-34,-34
-82,-9,73,46,-78,31,-43,-73,-68,-43,-29,-34
-78,0,78,39,-78,39,-43,-73,-68,-43,-24,-34
-73,0,73,36,-73,36,-43,-68,-68,-39,-24,-34
-73,-9,63,41,-68,26,-43,-68,-73,-39,-24,-34
-78,-9,68,43,-73,29,-39,-73,-78,-39,-24,-29
-87,-14,73,51,-80,29,-39,-78,-78,-39,-24,-24
-92,-14,78,53,-85,31,-39,-78,-78,-39,-29,-24
-92,-14,78,53,-85,31,-39,-78,-82,-43,-34,-24
-87,-9,78,48,-82,34,-39,-73,-78,-43,-34,-24
-82,-4,78,43,-80,36,-43,-68,-73,-43,-34,-24
-87,-14,73,51,-80,29,-43,-78,-73,-39,-39,-24
-82,-14,68,48,-75,26,-43,-73,-73,-39,-34,-24
-78,-9,68,43,-73,29,-39,-68,-58,-29,-24,-24
-78,-9,68,43,-73,29,-39,-68,-48,-19,-19,-29
-73,9,82,31,-78,46,-34,-63,-48,-19,-9,-19
-68,29,97,19,-82,63,-29,-58,-48,-19,0,-9
-68,29,97,19,-82,63,-29,-58,-43,-14,0,-9
-63,34,97,14,-80,65,-24,-53,-34,-9,4,-9
-63,39,102,12,-82,70,-19,-53,-29,-4,9,-9
-58,29,87,14,-73,58,-19,-58,-29,-4,9,0
-53,34,87,9,-70,61,-24,-58,-24,0,14,0
-29,53,82,-12,-56,68,-34,-63,-24,14,24,9
-19,68,87,-24,-53,78,-58,-87,-29,19,24,19
-4,78,82,-36,-43,80,-82,-102,-34,24,24,19
14,78,63,-46,-24,70,-82,-102,-39,34,34,34
14,68,53,-41,-19,61,-82,-102,-43,29,39,39
14,68,53,-41,-19,61,-82,-92,-48,29,39,39
14,63,48,-39,-17,56,-82,-87,-58,24,29,34
4,58,53,-31,-24,56,-87,-97,-68,0,19,24
0,53,53,-26,-26,53,-87,-107,-97,-14,9,9
-9,39,48,-14,-29,43,-82,-107,-97,-29,0,4
-29,24,53,2,-41,39,-68,-102,-97,-29,0,4
-48,14,63,17,-56,39,-58,-97,-92,-24,0,4
-73,9,82,31,-78,46,-53,-97,-92,-24,-9,-4
-87,0,87,43,-87,43,-58,-92,-97,-39,-19,-19
-87,-9,78,48,-82,34,-58,-92,-107,-48,-24,-34
-87,-9,78,48,-82,34,-58,-92,-107,-53,-34,-34
-102,-19,82,61,-92,31,-53,-92,-102,-58,-39,-43
-107,-24,82,65,-95,29,-53,-92,-102,-58,-43,-43
-117,-29,87,73,-102,29,-48,-92,-102,-58,-48,-43
-117,-34,82,75,-100,24,-48,-92,-112,-58,-48,-43
-117,-34,82,75,-100,24,-48,-92,-112,-58,-48,-43
-112,-43,68,78,-90,12,-48,-87,-107,-53,-43,-43
-92,-43,48,68,-70,2,-43,-78,-92,-48,-34,-34
-43,-39,4,41,-24,-17,-43,-68,-82,-29,-14,-9
14,-29,-43,7,29,-36,-58,-63,-68,14,24,29
102,0,-102,-51,102,-51,-68,-53,-43,58,68,73
185,39,-146,-112,165,-53,-78,-53,-9,112,122,122
268,48,-219,-158,244,-85,-97,-43,-4,141,161,175
336,53,-283,-195,309,-114,-117,-29,14,190,209,224
419,107,-312,-263,366,-102,-117,-9,73,268,283,292
488,136,-351,-312,419,-107,-131,-9,87,322,336,346
575,161,-414,-368,495,-126,-161,-14,82,351,370,400
658,170,-488,-414,573,-158,-180,-14,58,361,395,429
722,170,-551,-446,636,-190,-190,-4,58,385,419,458
790,165,-624,-478,707,-229,-190,9,48,385,434,488
858,136,-722,-497,790,-292,-170,43,24,361,419,488
917,92,-824,-505,871,-366,-117,102,0,322,395,478
990,24,-966,-507,978,-470,-92,146,-39,287,375,473
1122,-92,-1215,-514,1168,-653,-43,229,-97,224,341,453
1254,-204,-1459,-524,1356,-832,24,331,-117,180,307,453
1439,-224,-1664,-607,1551,-944,39,390,-112,248,380,531
1610,-287,-1898,-661,1754,-1093,68,448,-151,248,395,561
1737,-448,-2186,-644,1961,-1317,165,570,-278,102,278,478
1795,-722,-2518,-536,2156,-1620,405,858,-278,-102,63,278
1795,-912,-2708,-441,2252,-1810,639,1141,-156,-229,-136,73
1649,-971,-2620,-339,2135,-1795,771,1249,-102,-390,-326,-131
1288,-990,-2278,-148,1783,-1634,810,1210,-112,-610,-561,-361
932,-868,-1800,-31,1366,-1334,766,1039,-170,-600,-541,-370
590,-688,-1278,48,934,-983,692,858,-214,-517,-473,-331
248,-507,-756,129,502,-631,668,736,-156,-380,-351,-263
14,-390,-405,187,209,-397,658,683,-43,-263,-258,-204
-78,-351,-273,214,97,-312,629,634,-14,-219,-224,-190
-107,-312,-204,209,48,-258,531,531,-39,-200,-204,-170
-126,-268,-141,197,7,-204,453,453,-48,-195,-190,-165
-131,-209,-78,170,-26,-143,380,366,-43,-165,-170,-146
-151,-161,-9,156,-70,-85,322,307,-19,-117,-122,-112
-175,-117,58,146,-117,-29,258,239,0,-87,-92,-87
-170,-68,102,119,-136,17,151,126,-4,-68,-78,-78
-170,-34,136,102,-153,51,48,9,-9,-68,-63,-68
-175,-9,165,92,-170,78,19,-14,-9,-43,-43,-58
-185,0,185,92,-185,92,4,-29,-9,-43,-43,-53
-195,-4,190,100,-192,92,4,-39,-14,-43,-43,-53
-200,-9,190,104,-195,90,0,-58,-14,-43,-43,-53
-200,-4,195,102,-197,95,-14,-68,-14,-43,-43,-53
-204,4,209,100,-207,107,-24,-82,-14,-29,-34,-53
-209,9,219,100,-214,114,-29,-78,-14,-29,-29,-48
-209,9,219,100,-214,114,-29,-82,-14,-34,-29,-48
-209,14,224,97,-217,119,-39,-92,-14,-34,-29,-48
-214,24,239,95,-226,131,-39,-97,-9,-29,-29,-43
-219,29,248,95,-234,139,-43,-97,-4,-19,-24,-43
-219,34,253,92,-236,143,-43,-97,-4,-14,-24,-43
-219,29,248,95,-234,139,-43,-112,-4,-14,-24,-43
-224,19,244,102,-234,131,-53,-126,-9,-9,-24,-39
-219,29,248,95,-234,139,-58,-122,-9,-4,-19,-39
-209,43,253,82,-231,148,-58,-112,-9,-4,-14,-39
-219,53,273,82,-246,163,-63,-117,-4,0,-14,-34
-229,58,287,85,-258,173,-63,-122,0,0,-14,-34
-234,63,297,85,-265,180,-68,-122,4,9,-9,-34
-239,63,302,87,-270,183,-73,-131,4,9,-9,-34
-248,73,322,87,-285,197,-73,-131,4,19,4,-29
