I,II,III,aVR,aVL,aVF,V1,V2,V3,V4,V5,V6,
-126,-302,-175,214,24,-239,97,-185,-946,-907,-751,-575
-117,-297,-180,207,31,-239,102,-165,-893,-868,-717,-551
-107,-292,-185,200,39,-239,107,-146,-839,-829,-683,-527
-102,-273,-170,187,34,-222,107,-122,-775,-771,-639,-492
-97,-253,-156,175,29,-204,107,-97,-712,-712,-595,-458
-87,-224,-136,156,24,-180,102,-78,-624,-639,-536,-414
-78,-195,-117,136,19,-156,97,-58,-536,-566,-478,-370
-73,-175,-102,124,14,-139,87,-43,-468,-492,-424,-331
-68,-156,-87,112,9,-122,78,-29,-400,-419,-370,-292
-63,-136,-73,100,4,-104,78,-19,-326,-361,-317,-248
-58,-117,-58,87,0,-87,78,-9,-253,-302,-263,-204
-53,-97,-43,75,-4,-70,73,0,-204,-244,-219,-170
-48,-78,-29,63,-9,-53,68,9,-156,-185,-175,-136
-39,-63,-24,51,-7,-43,58,14,-112,-146,-136,-112
-29,-48,-19,39,-4,-34,48,19,-68,-107,-97,-87
-29,-43,-14,36,-7,-29,43,24,-43,-78,-78,-73
-29,-39,-9,34,-9,-24,39,29,-19,-48,-58,-58
-19,-29,-9,24,-4,-19,29,29,4,-24,-39,-43
-9,-19,-9,14,0,-14,19,29,29,0,-19,-29
-9,-14,-4,12,-2,-9,19,29,34,9,-4,-14
-9,-9,0,9,-4,-4,19,29,39,19,9,0
-9,-9,0,9,-4,-4,24,29,48,29,14,4
-9,-9,0,9,-4,-4,29,29,58,39,19,9
-4,-4,0,4,-2,-2,29,29,58,39,19,9
0,0,0,0,0,0,29,29,58,39,19,9
0,0,0,0,0,0,29,24,58,43,24,14
0,0,0,0,0,0,29,19,58,48,29,19
-4,-4,0,4,-2,-2,29,19,58,48,29,19
-9,-9,0,9,-4,-4,29,19,58,48,29,19
-9,-9,0,9,-4,-4,29,14,53,43,29,19
-9,-9,0,9,-4,-4,29,9,48,39,29,19
-9,-9,0,9,-4,-4,29,4,43,34,24,14
-9,-9,0,9,-4,-4,29,0,39,29,19,9
-14,-9,4,12,-9,-2,29,0,34,24,9,0
-19,-9,9,14,-14,0,29,0,29,19,0,-9
-19,-9,9,14,-14,0,29,-9,24,14,0,-9
-19,-9,9,14,-14,0,29,-19,19,9,0,-9
-24,-9,14,17,-19,2,29,-24,19,4,-4,-14
-29,-9,19,19,-24,4,29,-29,19,0,-9,-19
-34,-19,14,26,-24,-2,29,-29,9,-4,-9,-24
-39,-29,9,34,-24,-9,29,-29,0,-9,-9,-29
-39,-29,9,34,-24,-9,29,-29,-4,-14,-14,-29
-39,-29,9,34,-24,-9,29,-29,-9,-19,-19,-29
-39,-29,9,34,-24,-9,29,-34,-9,-19,-24,-29
-39,-29,9,34,-24,-9,29,-39,-9,-19,-29,-29
-39,-29,9,34,-24,-9,29,-39,-9,-19,-29,-29
-39,-29,9,34,-24,-9,29,-39,-9,-19,-29,-29
-39,-29,9,34,-24,-9,29,-43,-14,-24,-29,-34
-39,-29,9,34,-24,-9,29,-48,-19,-29,-29,-39
-39,-29,9,34,-24,-9,29,-48,-19,-29,-34,-39
-39,-29,9,34,-24,-9,29,-48,-19,-29,-39,-39
-39,-29,9,34,-24,-9,29,-48,-19,-29,-39,-39
-39,-29,9,34,-24,-9,29,-48,-19,-29,-39,-39
-39,-29,9,34,-24,-9,29,-48,-19,-24,-39,-39
-39,-29,9,34,-24,-9,29,-48,-19,-19,-39,-39
-39,-29,9,34,-24,-9,29,-43,-19,-19,-34,-39
-39,-29,9,34,-24,-9,29,-39,-19,-19,-29,-39
-39,-29,9,34,-24,-9,29,-34,-14,-19,-29,-39
-39,-29,9,34,-24,-9,29,-29,-9,-19,-29,-39
-39,-29,9,34,-24,-9,29,-29,-9,-19,-24,-34
-39,-29,9,34,-24,-9,29,-29,-9,-19,-19,-29
-39,-29,9,34,-24,-9,34,-29,-4,-14,-19,-29
-39,-29,9,34,-24,-9,39,-29,0,-9,-19,-29
-39,-29,9,34,-24,-9,39,-24,4,-9,-19,-29
-39,-29,9,34,-24,-9,39,-19,9,-9,-19,-29
-34,-29,4,31,-19,-12,29,-19,14,0,-14,-24
-29,-29,0,29,-14,-14,19,-19,19,9,-9,-19
-29,-24,4,26,-17,-9,19,-19,24,9,-9,-19
-29,-19,9,24,-19,-4,19,-19,29,9,-9,-19
-29,-19,9,24,-19,-4,24,-19,29,9,-9,-19
-29,-19,9,24,-19,-4,29,-19,29,9,-9,-19
-29,-19,9,24,-19,-4,29,-19,29,14,0,-14
-29,-19,9,24,-19,-4,29,-19,29,19,9,-9
-29,-19,9,24,-19,-4,24,-14,34,19,9,-9
-29,-19,9,24,-19,-4,19,-9,39,19,9,-9
-24,-14,9,19,-17,-2,19,-9,39,19,9,-9
-19,-9,9,14,-14,0,19,-9,39,19,9,-9
-19,-9,9,14,-14,0,19,-9,39,24,9,-9
-19,-9,9,14,-14,0,19,-9,39,29,9,-9
-24,-14,9,19,-17,-2,19,-9,39,29,9,-4
-29,-19,9,24,-19,-4,19,-9,39,29,9,0
-29,-19,9,24,-19,-4,19,-9,39,29,9,0
-29,-19,9,24,-19,-4,19,-9,39,29,9,0
-29,-19,9,24,-19,-4,19,-9,39,29,9,0
-29,-19,9,24,-19,-4,19,-9,39,29,9,0
-29,-19,9,24,-19,-4,19,-4,39,29,9,0
-29,-19,9,24,-19,-4,19,0,39,29,9,0
-29,-14,14,21,-21,0,19,0,39,29,9,0
-29,-9,19,19,-24,4,19,0,39,29,9,0
-29,-9,19,19,-24,4,19,0,39,29,9,0
-29,-9,19,19,-24,4,19,0,39,29,9,0
-24,-9,14,17,-19,2,19,0,39,29,9,0
-19,-9,9,14,-14,0,19,0,39,29,9,0
-19,-9,9,14,-14,0,19,0,43,29,9,0
-19,-9,9,14,-14,0,19,0,48,29,9,0
-24,-9,14,17,-19,2,19,0,48,34,9,0
-29,-9,19,19,-24,4,19,0,48,39,9,0
-29,-9,19,19,-24,4,19,0,48,39,14,0
-29,-9,19,19,-24,4,19,0,48,39,19,0
-24,-9,14,17,-19,2,14,0,48,39,19,4
-19,-9,9,14,-14,0,9,0,48,39,19,9
-19,-9,9,14,-14,0,9,0,48,39,19,9
-19,-9,9,14,-14,0,9,0,48,39,19,9
-19,-9,9,14,-14,0,9,0,48,34,19,9
-19,-9,9,14,-14,0,9,0,48,29,19,9
-19,-9,9,14,-14,0,14,0,48,29,19,4
-19,-9,9,14,-14,0,19,0,48,29,19,0
-19,-9,9,14,-14,0,19,0,48,34,19,0
-19,-9,9,14,-14,0,19,0,48,39,19,0
-19,-9,9,14,-14,0,19,0,48,39,14,0
-19,-9,9,14,-14,0,19,0,48,39,9,0
-19,-9,9,14,-14,0,19,0,48,39,9,0
-19,-9,9,14,-14,0,19,0,48,39,9,0
-19,-9,9,14,-14,0,19,0,48,39,9,0
-19,-9,9,14,-14,0,19,0,48,39,9,0
-19,-9,9,14,-14,0,19,0,48,39,14,0
-19,-9,9,14,-14,0,19,0,48,39,19,0
-19,-9,9,14,-14,0,19,0,48,39,19,0
-19,-9,9,14,-14,0,19,0,48,39,19,0
-19,-9,9,14,-14,0,19,0,48,39,19,0
-19,-9,9,14,-14,0,19,0,48,39,19,0
-24,-9,14,17,-19,2,19,0,48,39,19,0
-29,-9,19,19,-24,4,19,0,48,39,19,0
-29,-9,19,19,-24,4,14,0,48,39,19,0
-29,-9,19,19,-24,4,9,0,48,39,19,0
-29,-9,19,19,-24,4,9,0,48,39,19,0
-29,-9,19,19,-24,4,9,0,48,39,19,0
-29,-9,19,19,-24,4,14,0,43,34,14,0
-29,-9,19,19,-24,4,19,0,39,29,9,0
-29,-9,19,19,-24,4,19,0,39,29,9,0
-29,-9,19,19,-24,4,19,0,39,29,9,0
-29,-9,19,19,-24,4,19,0,39,29,9,0
-29,-9,19,19,-24,4,19,0,39,29,9,0
-29,-9,19,19,-24,4,19,0,39,29,9,0
-29,-9,19,19,-24,4,19,0,39,29,9,0
-24,-9,14,17,-19,2,19,0,39,29,9,0
-19,-9,9,14,-14,0,19,0,39,29,9,0
-19,-14,4,17,-12,-4,19,0,43,29,14,0
-19,-19,0,19,-9,-9,19,0,48,29,19,0
-19,-19,0,19,-9,-9,19,4,48,34,19,0
-19,-19,0,19,-9,-9,19,9,48,39,19,0
-19,-14,4,17,-12,-4,24,9,43,39,14,0
-19,-9,9,14,-14,0,29,9,39,39,9,0
-19,-9,9,14,-14,0,29,4,39,34,9,0
-19,-9,9,14,-14,0,29,0,39,29,9,0
-19,-9,9,14,-14,0,24,0,39,29,9,0
-19,-9,9,14,-14,0,19,0,39,29,9,0
-24,-9,14,17,-19,2,19,0,39,29,9,-4
-29,-9,19,19,-24,4,19,0,39,29,9,-9
-29,-9,19,19,-24,4,19,0,39,29,9,-9
-29,-9,19,19,-24,4,19,0,39,29,9,-9
-29,-9,19,19,-24,4,19,0,39,29,9,-4
-29,-9,19,19,-24,4,19,0,39,29,9,0
-29,-9,19,19,-24,4,19,0,39,29,9,0
-29,-9,19,19,-24,4,19,0,39,29,9,0
-29,-9,19,19,-24,4,19,0,39,29,9,0
-29,-9,19,19,-24,4,19,0,39,29,9,0
-29,-9,19,19,-24,4,19,0,39,29,9,0
-29,-9,19,19,-24,4,19,0,39,29,9,0
-29,-9,19,19,-24,4,24,0,39,29,4,0
-29,-9,19,19,-24,4,29,0,39,29,0,0
-29,-9,19,19,-24,4,29,0,39,29,0,0
-29,-9,19,19,-24,4,29,0,39,29,0,0
-29,-14,14,21,-21,0,29,0,39,29,0,0
-29,-19,9,24,-19,-4,29,0,39,29,0,0
-29,-19,9,24,-19,-4,24,0,39,29,4,0
-29,-19,9,24,-19,-4,19,0,39,29,9,0
-29,-19,9,24,-19,-4,19,0,39,29,9,0
-29,-19,9,24,-19,-4,19,0,39,29,9,0
-29,-19,9,24,-19,-4,24,0,39,29,9,0
-29,-19,9,24,-19,-4,29,0,39,29,9,0
-29,-19,9,24,-19,-4,29,0,39,29,9,0
-29,-19,9,24,-19,-4,29,0,39,29,9,0
-29,-19,9,24,-19,-4,24,0,39,29,9,0
-29,-19,9,24,-19,-4,19,0,39,29,9,0
-29,-19,9,24,-19,-4,19,0,39,29,9,0
-29,-19,9,24,-19,-4,19,0,39,29,9,0
-29,-24,4,26,-17,-9,19,0,39,29,9,0
-24,-24,0,24,-12,-12,24,0,34,29,9,0
-24,-24,0,24,-12,-12,29,0,34,29,9,0
-24,-19,4,21,-14,-7,34,0,29,29,9,0
-24,-19,4,21,-14,-7,34,4,39,34,19,4
-19,-14,4,17,-12,-4,39,9,39,39,19,4
-14,-9,4,12,-9,-2,39,14,53,43,24,9
-9,4,14,2,-12,9,43,24,63,43,29,14
-9,19,29,-4,-19,24,43,29,78,58,39,24
-4,43,48,-19,-26,46,39,29,87,63,48,29
0,43,43,-21,-21,43,39,29,97,78,58,34
4,48,43,-26,-19,46,39,34,107,87,58,43
4,53,48,-29,-21,51,39,39,107,87,63,48
14,63,48,-39,-17,56,29,43,107,92,68,48
19,73,53,-46,-17,63,14,43,112,92,68,48
24,58,34,-41,-4,46,4,34,102,73,58,43
24,34,9,-29,7,21,0,29,87,68,48,39
14,14,0,-14,7,7,-4,19,68,48,34,24
9,14,4,-12,2,9,-9,9,53,34,24,14
9,14,4,-12,2,9,-14,4,48,34,24,14
19,19,0,-19,9,9,-24,0,43,29,24,14
29,34,4,-31,12,19,-43,-9,34,29,19,14
48,24,-24,-36,36,0,-58,-14,29,24,14,14
58,0,-58,-29,58,-29,-58,-14,14,9,4,4
58,-24,-82,-17,70,-53,-53,-9,9,9,0,0
63,-29,-92,-17,78,-61,-39,4,4,9,0,0
63,-24,-87,-19,75,-56,-24,9,14,19,9,4
68,-9,-78,-29,73,-43,-24,24,29,34,19,14
78,4,-73,-41,75,-34,-29,29,34,48,24,19
82,4,-78,-43,80,-36,-34,34,34,39,24,19
53,-4,-58,-24,56,-31,-29,24,29,24,9,4
9,-9,-19,0,14,-14,-4,4,29,19,9,0
-19,-9,9,14,-14,0,0,-9,34,19,4,-4
-34,-24,9,29,-21,-7,9,-9,39,19,0,-9
-34,-34,0,34,-17,-17,19,-4,29,19,-4,-9
-34,-34,0,34,-17,-17,24,0,29,4,-4,-9
-39,-34,4,36,-21,-14,24,0,24,4,-9,-14
-39,-34,4,36,-21,-14,24,-4,19,4,-9,-14
-48,-34,14,41,-31,-9,24,-4,19,4,-14,-19
-48,-34,14,41,-31,-9,24,-4,24,4,-19,-24
-53,-39,14,46,-34,-12,24,-9,14,0,-14,-24
-68,-43,24,56,-46,-9,39,-4,19,9,-14,-19
-82,-34,48,58,-65,7,58,-4,63,24,-9,-14
-97,29,126,34,-112,78,68,19,195,141,73,39
-102,136,239,-17,-170,187,78,43,448,370,263,161
-63,239,302,-87,-183,270,58,126,775,683,512,356
19,380,361,-200,-170,370,24,248,1180,1073,839,619
161,590,429,-375,-134,509,-58,434,1712,1586,1273,956
370,819,448,-595,-39,634,-200,722,2361,2200,1776,1351
600,1054,453,-827,73,753,-405,995,2937,2771,2274,1756
863,1298,434,-1080,214,866,-736,1171,3328,3211,2693,2132
1098,1415,317,-1256,390,866,-1044,1298,3372,3313,2830,2293
1298,1483,185,-1390,556,834,-1283,1322,3181,3206,2796,2322
1390,1542,151,-1466,619,846,-1424,1268,2879,2962,2664,2274
1420,1620,200,-1520,610,910,-1522,1078,2352,2493,2347,2108
1429,1600,170,-1515,629,885,-1561,956,1927,2093,2054,1927
1342,1127,-214,-1234,778,456,-1346,839,1044,1327,1449,1459
1190,566,-624,-878,907,-29,-1098,546,-53,473,810,966
1039,200,-839,-619,939,-319,-814,429,-297,195,527,732
785,-29,-814,-378,800,-422,-580,151,-517,-122,190,405
468,-112,-580,-178,524,-346,-370,-34,-531,-322,-117,58
287,-136,-424,-75,356,-280,-229,-97,-483,-346,-200,-58
161,-136,-297,-12,229,-217,-126,-136,-448,-346,-229,-107
68,-117,-185,24,126,-151,-63,-141,-400,-336,-253,-161
0,-117,-117,58,58,-117,-24,-131,-336,-307,-248,-180
-39,-126,-87,82,24,-107,19,-117,-292,-278,-234,-190
-63,-131,-68,97,2,-100,39,-117,-287,-258,-224,-175
-68,-131,-63,100,-2,-97,43,-117,-278,-258,-224,-175
-78,-126,-48,102,-14,-87,43,-117,-268,-248,-224,-180
-87,-126,-39,107,-24,-82,58,-112,-244,-244,-214,-180
-97,-126,-29,112,-34,-78,73,-102,-239,-229,-204,-175
-97,-122,-24,109,-36,-73,73,-102,-234,-229,-204,-175
-97,-112,-14,104,-41,-63,73,-102,-229,-229,-204,-170
-102,-112,-9,107,-46,-61,82,-102,-219,-219,-204,-170
-102,-112,-9,107,-46,-61,82,-102,-214,-209,-190,-165
-107,-117,-9,112,-48,-63,78,-102,-214,-209,-185,-165
-107,-117,-9,112,-48,-63,78,-102,-214,-209,-185,-165
-112,-112,0,112,-56,-56,82,-102,-209,-209,-185,-165
-112,-107,4,109,-58,-51,87,-102,-200,-209,-190,-165
-112,-107,4,109,-58,-51,92,-102,-195,-209,-190,-165
-112,-107,4,109,-58,-51,87,-102,-190,-204,-190,-165
-112,-107,4,109,-58,-51,82,-102,-190,-200,-185,-161
-112,-107,4,109,-58,-51,78,-102,-190,-200,-185,-156
-112,-97,14,104,-63,-41,73,-102,-190,-200,-180,-156
-112,-97,14,104,-63,-41,78,-102,-190,-200,-180,-161
-112,-97,14,104,-63,-41,78,-102,-185,-190,-180,-161
-107,-92,14,100,-61,-39,82,-102,-185,-190,-180,-161
-107,-92,14,100,-61,-39,82,-102,-180,-185,-170,-151
-112,-97,14,104,-63,-41,78,-102,-180,-180,-165,-151
-112,-102,9,107,-61,-46,78,-112,-180,-175,-161,-151
-112,-102,9,107,-61,-46,73,-112,-180,-175,-170,-151
-112,-102,9,107,-61,-46,68,-107,-175,-175,-156,-146
-112,-87,24,100,-68,-31,73,-107,-170,-170,-161,-146
-112,-82,29,97,-70,-26,73,-112,-170,-170,-161,-141
-112,-82,29,97,-70,-26,73,-117,-170,-170,-161,-141
-112,-82,29,97,-70,-26,73,-117,-170,-175,-161,-136
-112,-82,29,97,-70,-26,73,-117,-165,-170,-161,-136
-112,-78,34,95,-73,-21,73,-117,-165,-170,-161,-136
-112,-78,34,95,-73,-21,73,-117,-170,-170,-161,-136
-112,-82,29,97,-70,-26,73,-117,-170,-175,-156,-136
-112,-82,29,97,-70,-26,73,-112,-170,-175,-156,-131
-112,-82,29,97,-70,-26,73,-112,-175,-175,-156,-131
-117,-73,43,95,-80,-14,68,-117,-175,-170,-156,-136
-117,-73,43,95,-80,-14,68,-117,-180,-175,-161,-136
-117,-73,43,95,-80,-14,68,-122,-180,-175,-165,-136
-112,-73,39,92,-75,-17,68,-126,-185,-175,-165,-136
-112,-73,39,92,-75,-17,63,-126,-185,-175,-165,-141
-112,-78,34,95,-73,-21,58,-126,-200,-185,-165,-146
-117,-78,39,97,-78,-19,58,-131,-200,-185,-165,-151
-117,-78,39,97,-78,-19,63,-131,-200,-185,-170,-156
-112,-82,29,97,-70,-26,68,-131,-204,-200,-175,-161
-112,-82,29,97,-70,-26,73,-136,-219,-204,-175,-165
-122,-82,39,102,-80,-21,78,-141,-219,-204,-180,-165
-122,-82,39,102,-80,-21,78,-146,-229,-209,-185,-165
-122,-82,39,102,-80,-21,78,-151,-239,-219,-190,-165
-126,-78,48,102,-87,-14,78,-151,-248,-224,-195,-161
-126,-78,48,102,-87,-14,78,-151,-263,-234,-200,-175
-131,-78,53,104,-92,-12,78,-161,-273,-244,-209,-180
-131,-82,48,107,-90,-17,82,-170,-283,-263,-219,-185
-131,-82,48,107,-90,-17,82,-180,-292,-268,-229,-190
-136,-87,48,112,-92,-19,87,-185,-302,-283,-244,-190
-136,-87,48,112,-92,-19,87,-190,-322,-307,-263,-204
-141,-97,43,119,-92,-26,82,-190,-341,-322,-273,-214
-141,-97,43,119,-92,-26,78,-200,-366,-336,-283,-224
-146,-102,43,124,-95,-29,73,-204,-385,-356,-297,-234
-146,-102,43,124,-95,-29,73,-219,-414,-390,-312,-253
-151,-112,39,131,-95,-36,78,-224,-439,-409,-331,-263
-156,-117,39,136,-97,-39,82,-234,-473,-434,-351,-278
-156,-131,24,143,-90,-53,82,-244,-497,-458,-370,-292
-161,-136,24,148,-92,-56,82,-258,-531,-492,-405,-322
-165,-141,24,153,-95,-58,87,-273,-570,-531,-429,-336
-165,-156,9,161,-87,-73,87,-278,-610,-566,-458,-356
-165,-161,4,163,-85,-78,87,-287,-649,-600,-488,-370
-165,-180,-14,173,-75,-97,82,-287,-688,-634,-512,-390
-165,-190,-24,178,-70,-107,82,-297,-727,-678,-546,-424
-165,-209,-43,187,-61,-126,82,-307,-775,-717,-575,-439
-165,-219,-53,192,-56,-136,82,-312,-805,-751,-600,-458
-165,-234,-68,200,-48,-151,87,-312,-839,-785,-629,-478
-165,-244,-78,204,-43,-161,87,-317,-878,-819,-653,-502
-151,-253,-102,202,-24,-178,92,-307,-907,-839,-673,-517
-151,-263,-112,207,-19,-187,92,-297,-946,-883,-717,-541
-146,-278,-131,212,-7,-204,92,-283,-961,-897,-736,-551
-146,-283,-136,214,-4,-209,92,-263,-966,-902,-736,-561
-141,-292,-151,217,4,-222,97,-239,-966,-907,-736,-566
-131,-292,-161,212,14,-226,102,-214,-946,-893,-732,-561
-126,-292,-165,209,19,-229,102,-195,-917,-863,-707,-551
-117,-292,-175,204,29,-234,107,-170,-858,-824,-678,-522
-117,-273,-156,195,19,-214,107,-141,-800,-775,-629,-488
-112,-268,-156,190,21,-212,112,-112,-727,-717,-595,-463
-97,-248,-151,173,26,-200,107,-102,-653,-649,-556,-424
-97,-224,-126,161,14,-175,102,-73,-566,-575,-483,-375
-87,-204,-117,146,14,-161,92,-48,-483,-502,-419,-331
-78,-175,-97,126,9,-136,87,-34,-414,-439,-366,-297
-68,-156,-87,112,9,-122,78,-9,-336,-366,-317,-263
-63,-136,-73,100,4,-104,68,-4,-278,-312,-263,-214
-53,-117,-63,85,4,-90,63,4,-219,-258,-219,-185
-43,-87,-43,65,0,-65,63,19,-165,-204,-180,-146
-39,-63,-24,51,-7,-43,58,19,-117,-161,-141,-112
-29,-53,-24,41,-2,-39,58,24,-73,-122,-102,-87
-29,-43,-14,36,-7,-29,58,29,-39,-82,-68,-68
-24,-34,-9,29,-7,-21,53,39,-14,-48,-43,-43
-19,-29,-9,24,-4,-19,39,39,9,-24,-29,-39
-19,-29,-9,24,-4,-19,39,43,29,0,-9,-19
-9,-19,-9,14,0,-14,29,43,43,14,4,-4
-9,-19,-9,14,0,-14,24,43,53,24,19,0
-9,-14,-4,12,-2,-9,24,43,58,34,19,0
-4,-4,0,4,-2,-2,19,39,63,34,24,4
-4,-4,0,4,-2,-2,19,39,68,43,29,14
-4,-9,-4,7,0,-7,19,39,73,53,34,19
-4,-9,-4,7,0,-7,19,39,73,58,34,19
-4,-9,-4,7,0,-7,19,39,73,58,34,19
-4,-9,-4,7,0,-7,19,39,73,58,34,19
-4,-4,0,4,-2,-2,19,39,68,58,34,19
-4,0,4,2,-4,2,19,34,68,58,29,19
-9,0,9,4,-9,4,19,24,58,43,29,19
-14,0,14,7,-14,7,19,19,48,39,29,14
-14,-14,0,14,-7,-7,24,14,43,34,24,9
-14,-14,0,14,-7,-7,24,9,43,34,24,4
-19,-14,4,17,-12,-4,24,9,34,29,19,-4
-19,-14,4,17,-12,-4,24,4,34,24,14,-4
-14,-14,0,14,-7,-7,24,4,29,19,14,-4
-14,-19,-4,17,-4,-12,29,-4,19,14,9,-4
-14,-24,-9,19,-2,-17,29,-4,14,4,4,-4
-24,-24,0,24,-12,-12,29,-4,14,0,-4,-4
-34,-24,9,29,-21,-7,29,-14,9,0,-4,-19
-43,-34,9,39,-26,-12,29,-19,4,0,-9,-19
-43,-39,4,41,-24,-17,29,-29,0,-9,-9,-19
-43,-39,4,41,-24,-17,29,-34,0,-14,-14,-29
-43,-34,9,39,-26,-12,29,-39,-4,-14,-14,-29
-48,-29,19,39,-34,-4,29,-43,-4,-14,-19,-29
-43,-29,14,36,-29,-7,24,-43,-4,-14,-19,-29
-43,-29,14,36,-29,-7,14,-43,-4,-14,-19,-34
-43,-39,4,41,-24,-17,14,-43,-9,-14,-19,-34
-43,-24,19,34,-31,-2,14,-48,-14,-19,-24,-34
-43,-24,19,34,-31,-2,14,-48,-19,-19,-24,-34
-43,-29,14,36,-29,-7,19,-43,-19,-19,-24,-34
-43,-29,14,36,-29,-7,19,-43,-14,-19,-24,-34
-43,-29,14,36,-29,-7,29,-43,-14,-19,-24,-29
-43,-29,14,36,-29,-7,34,-43,-14,-19,-29,-29
-39,-29,9,34,-24,-9,34,-43,-14,-19,-34,-29
-39,-34,4,36,-21,-14,24,-43,-14,-19,-29,-29
-39,-34,4,36,-21,-14,24,-34,-9,-14,-29,-29
-43,-34,9,39,-26,-12,29,-34,-9,-9,-24,-24
-43,-39,4,41,-24,-17,29,-29,-4,-9,-19,-19
-43,-39,4,41,-24,-17,29,-29,-4,-9,-14,-19
-43,-39,4,41,-24,-17,24,-29,0,-9,-14,-19
-43,-34,9,39,-26,-12,19,-29,4,-4,-14,-19
-39,-34,4,36,-21,-14,24,-24,9,-4,-9,-14
-39,-34,4,36,-21,-14,24,-24,14,4,-9,-9
-39,-29,9,34,-24,-9,19,-24,14,9,-9,-9
-34,-29,4,31,-19,-12,19,-24,19,14,-4,-9
-34,-24,9,29,-21,-7,14,-24,19,14,-4,-9
-34,-19,14,26,-24,-2,9,-19,24,9,0,-4
-34,-14,19,24,-26,2,0,-14,29,9,4,-4
-29,-14,14,21,-21,0,0,-14,29,14,4,0
-29,-19,9,24,-19,-4,9,-19,34,19,4,0
-29,-19,9,24,-19,-4,9,-14,34,19,4,-4
-29,-24,4,26,-17,-9,9,-14,39,19,9,-9
-29,-29,0,29,-14,-14,9,-9,39,24,9,-4
-29,-24,4,26,-17,-9,9,-9,39,24,9,-4
-29,-19,9,24,-19,-4,19,-9,39,24,14,-4
-24,-14,9,19,-17,-2,19,-9,39,29,14,-4
-24,-14,9,19,-17,-2,14,-9,39,29,14,0
-24,-9,14,17,-19,2,14,-9,39,29,14,0
-24,-9,14,17,-19,2,14,-9,43,29,9,0
-24,-9,14,17,-19,2,14,-9,43,29,4,-4
-24,-4,19,14,-21,7,19,-9,43,29,4,-4
-24,-9,14,17,-19,2,19,-4,43,29,9,0
-24,-4,19,14,-21,7,14,-4,48,34,14,4
-24,0,24,12,-24,12,4,-4,53,34,19,14
-19,0,19,9,-19,9,0,0,48,39,19,9
-19,-4,14,12,-17,4,0,0,48,48,19,4
-24,-14,9,19,-17,-2,0,0,48,48,24,4
-29,-29,0,29,-14,-14,0,0,48,48,29,9
-29,-19,9,24,-19,-4,4,0,48,48,29,9
-29,-9,19,19,-24,4,9,0,48,48,29,9
-29,-9,19,19,-24,4,14,0,48,48,29,4
-29,-9,19,19,-24,4,19,0,48,48,29,0
-29,-9,19,19,-24,4,19,0,48,43,24,0
-29,-9,19,19,-24,4,19,0,48,39,19,0
-24,-9,14,17,-19,2,14,0,48,39,19,4
-19,-9,9,14,-14,0,9,0,48,39,19,9
-19,-9,9,14,-14,0,9,4,48,39,19,9
-19,-9,9,14,-14,0,9,9,48,39,19,9
-19,-9,9,14,-14,0,9,9,48,39,19,9
-19,-9,9,14,-14,0,9,9,48,39,19,9
-19,-9,9,14,-14,0,9,9,48,39,19,9
-19,-9,9,14,-14,0,9,9,48,39,19,9
-19,-9,9,14,-14,0,9,9,48,43,19,9
-19,-9,9,14,-14,0,9,9,48,48,19,9
-19,-4,14,12,-17,4,9,9,48,48,24,9
-19,0,19,9,-19,9,9,9,48,48,29,9
-19,0,19,9,-19,9,9,9,48,48,29,9
-19,0,19,9,-19,9,9,9,48,48,29,9
-24,-4,19,14,-21,7,9,9,48,48,29,9
-29,-9,19,19,-24,4,9,9,48,48,29,9
-29,-9,19,19,-24,4,9,9,53,48,29,9
-29,-9,19,19,-24,4,9,9,58,48,29,9
-29,-4,24,17,-26,9,9,9,58,48,29,9
-29,0,29,14,-29,14,9,9,58,48,29,9
-29,0,29,14,-29,14,9,9,53,48,24,9
-29,0,29,14,-29,14,9,9,48,48,19,9
-29,-4,24,17,-26,9,4,9,48,43,19,9
-29,-9,19,19,-24,4,0,9,48,39,19,9
-29,-9,19,19,-24,4,0,9,53,39,19,4
-29,-9,19,19,-24,4,0,9,58,39,19,0
-24,-9,14,17,-19,2,0,9,58,39,19,0
-19,-9,9,14,-14,0,0,9,58,39,19,0
-19,-9,9,14,-14,0,0,9,58,39,19,0
-19,-9,9,14,-14,0,0,9,58,39,19,0
-19,-9,9,14,-14,0,4,9,58,39,24,4
-19,-9,9,14,-14,0,9,9,58,39,29,9
-19,-9,9,14,-14,0,9,9,58,39,29,9
-19,-9,9,14,-14,0,9,9,58,39,29,9
-19,-9,9,14,-14,0,9,9,53,39,29,9
-19,-9,9,14,-14,0,9,9,48,39,29,9
-19,-4,14,12,-17,4,9,4,48,39,29,9
-19,0,19,9,-19,9,9,0,48,39,29,9
-19,0,19,9,-19,9,9,0,48,39,29,9
-19,0,19,9,-19,9,9,0,48,39,29,9
-19,0,19,9,-19,9,9,0,48,39,24,4
-19,0,19,9,-19,9,9,0,48,39,19,0
-19,0,19,9,-19,9,9,0,48,39,19,0
-19,0,19,9,-19,9,9,0,48,39,19,0
-19,0,19,9,-19,9,9,0,48,39,19,0
-19,0,19,9,-19,9,9,0,48,39,19,0
-24,0,24,12,-24,12,9,0,48,39,19,0
-29,0,29,14,-29,14,9,0,48,39,19,0
-29,0,29,14,-29,14,9,4,48,39,19,0
-29,0,29,14,-29,14,9,9,48,39,19,0
-29,0,29,14,-29,14,9,9,48,39,19,0
-29,0,29,14,-29,14,9,9,48,39,19,0
-29,0,29,14,-29,14,9,9,48,39,19,0
-29,0,29,14,-29,14,9,9,48,39,19,0
-29,0,29,14,-29,14,9,9,48,39,19,0
-29,0,29,14,-29,14,9,9,48,39,19,0
-29,0,29,14,-29,14,9,9,48,39,19,0
-29,0,29,14,-29,14,9,9,48,39,19,0
-29,0,29,14,-29,14,9,9,48,34,19,0
-29,0,29,14,-29,14,9,9,48,29,19,0
-29,0,29,14,-29,14,14,9,48,29,19,0
-29,0,29,14,-29,14,19,9,48,29,19,0
-29,0,29,14,-29,14,19,9,48,29,19,0
-29,0,29,14,-29,14,19,9,48,29,19,0
-29,0,29,14,-29,14,14,9,48,29,14,0
-29,0,29,14,-29,14,9,9,48,29,9,0
-29,0,29,14,-29,14,9,9,48,29,9,0
-29,0,29,14,-29,14,9,9,48,29,9,0
-29,0,29,14,-29,14,9,9,48,29,9,0
-29,0,29,14,-29,14,9,9,48,29,9,0
-29,-4,24,17,-26,9,9,9,48,29,9,0
-29,-9,19,19,-24,4,9,9,48,29,9,0
-29,-9,19,19,-24,4,9,9,48,29,9,0
-29,-9,19,19,-24,4,9,9,48,29,9,0
-29,-9,19,19,-24,4,9,9,48,29,9,0
-29,-9,19,19,-24,4,9,9,48,29,9,0
-29,-9,19,19,-24,4,9,9,48,29,9,0
-29,-9,19,19,-24,4,9,9,48,29,9,0
-29,-9,19,19,-24,4,14,9,43,29,9,0
-29,-9,19,19,-24,4,19,9,39,29,9,0
-29,-9,19,19,-24,4,19,9,39,29,9,0
-29,-9,19,19,-24,4,19,9,39,29,9,0
-29,-9,19,19,-24,4,19,9,39,29,9,0
-29,-9,19,19,-24,4,19,9,39,29,9,0
-29,-14,14,21,-21,0,19,9,39,29,9,0
-24,-9,14,17,-19,2,19,9,39,29,9,0
-24,-9,14,17,-19,2,24,9,39,29,9,0
-24,-9,14,17,-19,2,24,14,48,34,19,4
-19,-4,14,12,-17,4,29,19,53,39,19,4
-14,0,14,7,-14,7,29,19,68,43,24,9
-9,14,24,-2,-17,19,34,24,73,43,29,14
-9,29,39,-9,-24,34,34,29,87,58,39,24
-4,53,58,-24,-31,56,24,29,97,63,48,29
0,53,53,-26,-26,53,19,29,107,78,58,34
4,58,53,-31,-24,56,19,34,117,87,58,43
4,63,58,-34,-26,61,19,39,117,87,63,48
14,78,63,-46,-24,70,9,43,117,92,68,43
19,82,63,-51,-21,73,-4,43,117,92,68,39
24,58,34,-41,-4,46,-14,34,102,73,58,34
24,34,9,-29,7,21,-19,29,87,68,48,29
14,9,-4,-12,9,2,-19,19,68,48,34,19
14,4,-9,-9,12,-2,-19,14,53,34,24,14
19,4,-14,-12,17,-4,-19,14,48,39,29,14
29,9,-19,-19,24,-4,-24,9,43,39,34,14
39,29,-9,-34,24,9,-43,0,34,39,29,14
53,24,-29,-39,41,-2,-58,-4,29,34,24,14
58,0,-58,-29,58,-29,-63,-4,9,14,9,4
58,-19,-78,-19,68,-48,-63,0,4,9,0,0
63,-19,-82,-21,73,-51,-48,14,4,9,0,0
63,-14,-78,-24,70,-46,-34,19,14,14,9,4
73,0,-73,-36,73,-36,-34,34,29,24,19,14
82,14,-68,-48,75,-26,-34,34,34,39,24,19
82,14,-68,-48,75,-26,-34,34,34,29,24,19
53,4,-48,-29,51,-21,-29,24,29,19,9,4
4,0,-4,-2,4,-2,-4,4,29,19,9,0
-24,0,24,12,-24,12,0,-9,29,19,4,-4
-39,-14,24,26,-31,4,9,-9,34,19,0,-9
-43,-24,19,34,-31,-2,19,-4,29,19,-4,-14
-43,-34,9,39,-26,-12,24,0,29,4,-4,-19
-48,-43,4,46,-26,-19,24,0,29,4,-9,-24
-48,-43,4,46,-26,-19,24,-4,29,4,-9,-24
-58,-43,14,51,-36,-14,24,-4,29,4,-9,-24
-43,-43,0,43,-21,-21,24,-4,34,4,-9,-24
-34,-39,-4,36,-14,-21,24,-4,39,9,0,-19
-58,-39,19,48,-39,-9,48,0,34,9,-4,-19
-78,-14,63,46,-70,24,73,9,102,53,29,0
-97,53,151,21,-124,102,78,48,268,204,131,68
-87,161,248,-36,-168,204,78,92,551,463,341,219
-34,268,302,-117,-168,285,58,185,902,790,605,429
63,414,351,-239,-143,383,4,326,1332,1195,941,692
229,624,395,-427,-82,509,-82,561,1908,1751,1400,1054
448,839,390,-644,29,614,-234,854,2488,2318,1859,1434
692,1083,390,-888,151,736,-463,1132,3059,2893,2357,1839
946,1293,346,-1119,300,819,-766,1317,3372,3245,2698,2147
1176,1371,195,-1273,490,783,-1083,1454,3323,3259,2776,2269
1351,1434,82,-1393,634,758,-1312,1439,3103,3123,2727,2288
1424,1493,68,-1459,678,780,-1424,1342,2723,2796,2532,2186
1439,1503,63,-1471,688,783,-1473,1161,2147,2293,2181,1976
1439,1468,29,-1454,705,749,-1507,1034,1722,1893,1878,1786
1342,1058,-283,-1200,812,387,-1317,893,966,1229,1351,1381
1180,478,-702,-829,941,-112,-1039,566,-156,385,732,902
1019,146,-873,-583,946,-363,-780,429,-409,102,439,653
717,-48,-766,-334,741,-407,-551,102,-541,-180,102,307
424,-126,-551,-148,488,-339,-341,-73,-536,-356,-165,0
268,-126,-395,-70,331,-261,-209,-92,-463,-336,-195,-63
136,-126,-263,-4,200,-195,-117,-131,-429,-336,-229,-117
48,-107,-156,29,102,-131,-68,-136,-375,-326,-253,-170
-19,-107,-87,63,34,-97,-29,-131,-317,-302,-244,-180
-48,-117,-68,82,9,-92,14,-117,-283,-278,-224,-185
-68,-122,-53,95,-7,-87,34,-117,-278,-258,-214,-175
-68,-122,-53,95,-7,-87,34,-117,-268,-253,-214,-175
-78,-122,-43,100,-17,-82,34,-117,-258,-239,-214,-180
-87,-126,-39,107,-24,-82,48,-112,-234,-234,-204,-180
-97,-126,-29,112,-34,-78,63,-102,-229,-219,-195,-175
-97,-122,-24,109,-36,-73,63,-102,-224,-219,-195,-175
-97,-112,-14,104,-41,-63,63,-102,-219,-219,-195,-170
-107,-117,-9,112,-48,-63,73,-102,-209,-209,-195,-170
-112,-122,-9,117,-51,-65,78,-102,-204,-200,-185,-165
-117,-126,-9,122,-53,-68,78,-102,-204,-200,-185,-165
-117,-126,-9,122,-53,-68,78,-102,-204,-200,-185,-165
-122,-117,4,119,-63,-56,82,-102,-200,-200,-185,-165
-122,-107,14,114,-68,-46,82,-102,-195,-200,-185,-165
-122,-107,14,114,-68,-46,87,-102,-195,-204,-180,-165
-122,-107,14,114,-68,-46,87,-102,-190,-204,-180,-165
-122,-107,14,114,-68,-46,82,-102,-190,-200,-175,-161
-122,-107,14,114,-68,-46,82,-102,-190,-200,-175,-156
-122,-97,24,109,-73,-36,82,-102,-190,-195,-170,-151
-122,-97,24,109,-73,-36,87,-102,-190,-190,-170,-151
-122,-97,24,109,-73,-36,87,-102,-185,-180,-170,-151
-117,-92,24,104,-70,-34,87,-102,-185,-180,-170,-151
-117,-92,24,104,-70,-34,78,-102,-180,-175,-161,-141
-122,-92,29,107,-75,-31,68,-102,-180,-175,-161,-141
-122,-92,29,107,-75,-31,68,-112,-180,-175,-161,-141
-122,-92,29,107,-75,-31,68,-112,-180,-175,-170,-141
-117,-92,24,104,-70,-34,73,-107,-180,-180,-161,-141
-112,-82,29,97,-70,-26,82,-107,-180,-180,-165,-146
-112,-82,29,97,-70,-26,82,-112,-180,-180,-161,-141
-112,-82,29,97,-70,-26,82,-117,-180,-175,-161,-141
-112,-78,34,95,-73,-21,82,-117,-180,-175,-156,-136
-112,-73,39,92,-75,-17,82,-117,-175,-170,-151,-136
-112,-68,43,90,-78,-12,82,-117,-170,-170,-151,-136
-112,-68,43,90,-78,-12,82,-117,-170,-170,-151,-136
-112,-73,39,92,-75,-17,78,-117,-170,-170,-146,-131
-112,-73,39,92,-75,-17,73,-117,-170,-165,-146,-126
-112,-73,39,92,-75,-17,73,-122,-175,-165,-151,-131
-117,-63,53,90,-85,-4,68,-126,-175,-165,-156,-136
-117,-68,48,92,-82,-9,68,-126,-180,-180,-161,-136
-117,-73,43,95,-80,-14,68,-126,-180,-185,-165,-136
-112,-73,39,92,-75,-17,68,-126,-185,-185,-161,-136
-112,-73,39,92,-75,-17,68,-126,-185,-185,-156,-136
-112,-78,34,95,-73,-21,68,-126,-200,-195,-156,-136
-117,-78,39,97,-78,-19,68,-131,-200,-195,-156,-141
-117,-78,39,97,-78,-19,73,-131,-200,-190,-161,-146
-117,-78,39,97,-78,-19,73,-131,-204,-200,-170,-146
-117,-73,43,95,-80,-14,73,-136,-219,-204,-175,-151
-122,-73,48,97,-85,-12,78,-141,-219,-209,-180,-156
-122,-78,43,100,-82,-17,73,-146,-229,-219,-185,-156
-122,-82,39,102,-80,-21,68,-151,-239,-229,-190,-161
-126,-78,48,102,-87,-14,68,-151,-248,-234,-195,-156
-126,-78,48,102,-87,-14,68,-151,-263,-244,-204,-165
-126,-82,43,104,-85,-19,68,-156,-273,-253,-214,-170
-122,-92,29,107,-75,-31,73,-161,-283,-273,-219,-175
-122,-92,29,107,-75,-31,73,-170,-292,-273,-229,-180
-126,-97,29,112,-78,-34,78,-175,-307,-283,-239,-180
-126,-87,39,107,-82,-24,78,-180,-331,-307,-253,-195
-131,-87,43,109,-87,-21,78,-180,-351,-322,-263,-204
-131,-87,43,109,-87,-21,78,-190,-375,-336,-273,-214
-136,-92,43,114,-90,-24,73,-195,-395,-356,-292,-224
-136,-92,43,114,-90,-24,73,-209,-424,-390,-312,-244
-141,-102,39,122,-90,-31,73,-214,-448,-409,-331,-253
-146,-112,34,129,-90,-39,73,-224,-483,-434,-351,-268
-146,-131,14,139,-80,-58,73,-234,-512,-463,-370,-283
-151,-136,14,143,-82,-61,73,-248,-551,-507,-405,-312
-156,-141,14,148,-85,-63,78,-263,-590,-551,-429,-326
-156,-156,0,156,-78,-78,78,-268,-629,-585,-458,-356
-156,-161,-4,158,-75,-82,82,-278,-668,-619,-488,-380
-156,-180,-24,168,-65,-102,78,-278,-707,-653,-512,-390
-156,-190,-34,173,-61,-112,73,-287,-746,-692,-546,-414
-156,-204,-48,180,-53,-126,73,-297,-795,-727,-575,-429
-156,-209,-53,183,-51,-131,73,-297,-824,-761,-600,-448
-156,-224,-68,190,-43,-146,78,-292,-863,-795,-634,-473
-156,-239,-82,197,-36,-161,78,-292,-902,-829,-663,-497
-136,-253,-117,195,-9,-185,82,-278,-927,-854,-683,-507
-131,-263,-131,197,0,-197,82,-268,-956,-897,-717,-531
-126,-278,-151,202,12,-214,82,-253,-966,-907,-727,-541
-126,-278,-151,202,12,-214,82,-234,-971,-907,-727,-546
-126,-287,-161,207,17,-224,87,-209,-971,-912,-736,-551
-122,-292,-170,207,24,-231,92,-185,-951,-902,-736,-546
-117,-292,-175,204,29,-234,92,-170,-917,-878,-707,-536
-107,-287,-180,197,36,-234,97,-151,-854,-834,-678,-512
-107,-258,-151,183,21,-204,102,-122,-790,-775,-629,-478
-102,-244,-141,173,19,-192,107,-92,-717,-717,-585,-453
-87,-219,-131,153,21,-175,97,-87,-653,-649,-546,-414
-87,-195,-107,141,9,-151,92,-63,-575,-575,-492,-366
-82,-185,-102,134,9,-143,87,-39,-483,-502,-429,-317
-78,-165,-87,122,4,-126,87,-29,-409,-439,-366,-278
-68,-146,-78,107,4,-112,78,-9,-336,-361,-312,-244
-63,-126,-63,95,0,-95,68,-4,-278,-302,-253,-195
-53,-97,-43,75,-4,-70,58,4,-219,-248,-209,-165
-43,-68,-24,56,-9,-46,53,19,-170,-200,-175,-131
-39,-53,-14,46,-12,-34,48,19,-122,-161,-141,-112
-29,-43,-14,36,-7,-29,48,24,-78,-122,-107,-97
-29,-39,-9,34,-9,-24,48,29,-43,-73,-73,-68
-24,-34,-9,29,-7,-21,48,39,-14,-34,-43,-34
-19,-29,-9,24,-4,-19,34,39,9,-14,-29,-29
-19,-29,-9,24,-4,-19,29,43,24,4,-9,-9
-9,-19,-9,14,0,-14,19,43,34,14,4,4
-9,-19,-9,14,0,-14,14,43,43,24,19,9
-9,-14,-4,12,-2,-9,14,43,48,34,19,4
-4,-4,0,4,-2,-2,9,39,53,34,24,4
-4,0,4,2,-4,2,14,39,58,43,29,14
-4,0,4,2,-4,2,19,39,63,48,34,19
-4,0,4,2,-4,2,24,34,63,48,34,24
-4,0,4,2,-4,2,29,29,63,48,34,29
-4,-4,0,4,-2,-2,29,29,63,48,34,29
-4,-9,-4,7,0,-7,34,29,58,48,34,29
-4,-9,-4,7,0,-7,29,24,58,48,29,29
-9,-9,0,9,-4,-4,19,14,48,39,29,29
-14,4,19,4,-17,12,19,14,39,34,24,19
-14,4,19,4,-17,12,19,14,34,24,14,9
-9,-9,0,9,-4,-4,14,9,39,24,14,4
-9,-24,-14,17,2,-19,14,9,34,19,9,-4
-9,-14,-4,12,-2,-9,14,4,34,19,9,0
-9,-4,4,7,-7,0,14,4,29,19,14,4
-19,-9,9,14,-14,0,19,-14,19,14,9,4
-24,-14,9,19,-17,-2,19,-24,14,4,4,4
-34,-19,14,26,-24,-2,19,-9,14,0,-9,4
-34,-24,9,29,-21,-7,19,-4,9,0,-14,-9
-34,-34,0,34,-17,-17,19,-9,4,0,-19,-9
-34,-39,-4,36,-14,-21,19,-14,0,-9,-19,-9
-34,-39,-4,36,-14,-21,24,-19,-4,-19,-24,-24
-34,-34,0,34,-17,-17,29,-29,-14,-24,-24,-29
-39,-29,9,34,-24,-9,29,-34,-14,-24,-29,-29
-39,-29,9,34,-24,-9,34,-34,-14,-24,-29,-29
-43,-34,9,39,-26,-12,34,-34,-14,-24,-29,-34
-43,-48,-4,46,-19,-26,34,-34,-19,-24,-29,-34
-43,-34,9,39,-26,-12,34,-39,-24,-24,-29,-34
-43,-34,9,39,-26,-12,29,-39,-24,-19,-24,-34
-43,-34,9,39,-26,-12,24,-34,-19,-19,-24,-34
-43,-29,14,36,-29,-7,19,-34,-14,-19,-24,-34
-43,-29,14,36,-29,-7,29,-34,-14,-24,-24,-29
-43,-29,14,36,-29,-7,29,-34,-14,-29,-24,-29
-34,-29,4,31,-19,-12,24,-34,-14,-29,-24,-29
-29,-29,0,29,-14,-14,14,-34,-14,-29,-19,-29
-29,-24,4,26,-17,-9,19,-24,-9,-24,-24,-29
-34,-24,9,29,-21,-7,29,-24,-9,-19,-29,-29
-34,-29,4,31,-19,-12,29,-19,-4,-19,-29,-24
-34,-29,4,31,-19,-12,29,-19,-4,-19,-24,-19
-34,-34,0,34,-17,-17,14,-19,0,-19,-24,-19
-34,-34,0,34,-17,-17,4,-19,0,-14,-24,-19
-34,-34,0,34,-17,-17,14,-14,0,-14,-19,-19
-39,-39,0,39,-19,-19,19,-14,4,-9,-19,-19
-39,-39,0,39,-19,-19,24,-14,4,-9,-19,-19
-34,-39,-4,36,-14,-21,29,-14,9,-4,-14,-19
-34,-34,0,34,-17,-17,24,-14,9,-4,-14,-19
-34,-29,4,31,-19,-12,19,-9,14,-4,-9,-14
-34,-24,9,29,-21,-7,9,-9,19,0,-4,-14
-29,-24,4,26,-17,-9,9,-9,19,4,-4,-9
-29,-29,0,29,-14,-14,19,-9,24,9,-4,-9
-29,-29,0,29,-14,-14,19,-4,24,9,-4,-9
-29,-34,-4,31,-12,-19,19,-4,29,9,0,-9
-29,-34,-4,31,-12,-19,19,-4,29,14,0,-4
-29,-24,4,26,-17,-9,24,-4,29,14,0,-4
-29,-19,9,24,-19,-4,29,0,29,14,4,-4
-24,-14,9,19,-17,-2,19,0,29,19,4,-4
-24,-14,9,19,-17,-2,14,0,29,19,4,0
-24,-9,14,17,-19,2,9,-4,29,19,4,0
-24,-9,14,17,-19,2,9,-9,34,19,4,0
-24,-9,14,17,-19,2,14,-9,34,19,4,-4
-24,-9,14,17,-19,2,19,-9,34,19,4,-4
-29,-14,14,21,-21,0,19,-4,34,19,9,0
-34,-9,24,21,-29,7,14,-4,39,24,9,0
-34,-9,24,21,-29,7,14,-4,43,24,9,4
-29,-9,19,19,-24,4,9,-4,39,29,9,4
-29,-14,14,21,-21,0,9,0,39,29,9,0
-29,-19,9,24,-19,-4,9,0,39,29,9,0
-29,-19,9,24,-19,-4,9,0,39,29,14,4
-29,-19,9,24,-19,-4,9,0,39,29,19,9
-29,-14,14,21,-21,0,9,0,39,29,19,9
-29,-9,19,19,-24,4,9,0,39,29,19,9
-29,-9,19,19,-24,4,9,0,39,29,19,9
-29,-9,19,19,-24,4,9,0,39,29,19,9
-29,-9,19,19,-24,4,9,0,39,29,19,9
-29,-9,19,19,-24,4,9,0,39,29,19,9
-29,-9,19,19,-24,4,9,0,39,29,19,9
-29,-9,19,19,-24,4,9,0,39,29,19,9
-29,-9,19,19,-24,4,14,0,43,29,14,4
-29,-9,19,19,-24,4,19,0,48,29,9,0
-29,-9,19,19,-24,4,19,0,48,29,9,0
-29,-9,19,19,-24,4,19,0,48,29,9,0
-29,-9,19,19,-24,4,19,0,48,34,14,4
-29,-9,19,19,-24,4,19,0,48,39,19,9
-29,-9,19,19,-24,4,14,0,48,39,19,9
-29,-9,19,19,-24,4,9,0,48,39,19,9
-24,-9,14,17,-19,2,9,0,48,34,19,4
-19,-9,9,14,-14,0,9,0,48,29,19,0
-19,-9,9,14,-14,0,9,0,48,29,19,0
-19,-9,9,14,-14,0,9,0,48,29,19,0
-24,-9,14,17,-19,2,9,0,48,29,19,0
-29,-9,19,19,-24,4,9,0,48,29,19,0
-29,-9,19,19,-24,4,14,0,48,29,19,0
-29,-9,19,19,-24,4,19,0,48,29,19,0
-24,-9,14,17,-19,2,19,0,48,29,14,0
-19,-9,9,14,-14,0,19,0,48,29,9,0
-19,-9,9,14,-14,0,14,0,48,29,9,0
-19,-9,9,14,-14,0,9,0,48,29,9,0
-24,-9,14,17,-19,2,9,0,48,29,14,0
-29,-9,19,19,-24,4,9,0,48,29,19,0
-29,-9,19,19,-24,4,9,0,48,29,19,0
-29,-9,19,19,-24,4,9,0,48,29,19,0
-24,-9,14,17,-19,2,9,0,48,29,19,0
-19,-9,9,14,-14,0,9,0,48,29,19,0
-19,-9,9,14,-14,0,9,0,48,29,19,0
-19,-9,9,14,-14,0,9,0,48,29,19,0
-24,-9,14,17,-19,2,9,0,48,29,19,0
-29,-9,19,19,-24,4,9,0,48,29,19,0
-29,-9,19,19,-24,4,14,0,43,29,14,0
-29,-9,19,19,-24,4,19,0,39,29,9,0
-29,-9,19,19,-24,4,19,0,39,29,9,0
-29,-9,19,19,-24,4,19,0,39,29,9,0
-29,-9,19,19,-24,4,19,0,39,29,9,0
-29,-9,19,19,-24,4,19,0,39,29,9,0
-24,-9,14,17,-19,2,14,0,39,29,9,0
-19,-9,9,14,-14,0,9,0,39,29,9,0
-19,-9,9,14,-14,0,9,0,43,29,14,0
-19,-9,9,14,-14,0,9,0,48,29,19,0
-19,-9,9,14,-14,0,9,0,48,29,19,0
-19,-9,9,14,-14,0,9,0,48,29,19,0
-24,-14,9,19,-17,-2,9,0,48,29,19,0
-29,-19,9,24,-19,-4,9,0,48,29,19,0
-29,-19,9,24,-19,-4,9,0,48,29,14,0
-29,-19,9,24,-19,-4,9,0,48,29,9,0
-29,-19,9,24,-19,-4,14,0,43,29,9,0
-29,-19,9,24,-19,-4,19,0,39,29,9,0
-29,-19,9,24,-19,-4,24,0,39,29,9,0
-29,-19,9,24,-19,-4,29,0,39,29,9,0
-29,-19,9,24,-19,-4,29,0,39,29,9,0
-29,-19,9,24,-19,-4,29,0,39,29,9,0
-29,-19,9,24,-19,-4,24,0,39,29,9,0
-29,-19,9,24,-19,-4,19,0,39,29,9,0
-29,-19,9,24,-19,-4,19,0,39,29,9,0
-29,-19,9,24,-19,-4,19,0,39,29,9,0
-29,-19,9,24,-19,-4,19,0,39,29,9,0
-29,-19,9,24,-19,-4,19,0,39,29,9,0
-29,-19,9,24,-19,-4,19,0,39,29,9,0
-29,-19,9,24,-19,-4,19,0,39,29,9,0
-29,-14,14,21,-21,0,19,0,39,29,4,-4
-29,-9,19,19,-24,4,19,0,39,29,0,-9
-29,-9,19,19,-24,4,19,0,39,29,0,-9
-29,-9,19,19,-24,4,19,0,39,29,0,-9
-29,-9,19,19,-24,4,19,0,39,29,4,-4
-29,-9,19,19,-24,4,19,0,39,29,9,0
-29,-9,19,19,-24,4,19,0,39,29,9,0
-29,-9,19,19,-24,4,19,0,39,29,9,0
-29,-9,19,19,-24,4,19,0,39,29,4,-4
-29,-9,19,19,-24,4,19,0,39,29,0,-9
-29,-14,14,21,-21,0,24,0,39,29,0,-9
-29,-19,9,24,-19,-4,29,0,39,29,0,-9
-29,-19,9,24,-19,-4,29,0,39,29,0,-9
-29,-19,9,24,-19,-4,29,0,39,29,0,-9
-29,-19,9,24,-19,-4,24,0,39,29,0,-9
-29,-14,14,21,-21,0,24,0,39,29,0,-9
-29,-14,14,21,-21,0,24,0,39,29,0,-9
-34,-9,24,21,-29,7,24,0,39,29,0,-9
-34,-9,24,21,-29,7,29,4,48,29,9,-4
-29,-4,24,17,-26,9,39,9,48,29,9,-4
-24,0,24,12,-24,12,39,9,58,34,14,0
-19,14,34,2,-26,24,43,14,63,34,19,4
-19,34,53,-7,-36,43,39,19,73,53,34,19
-14,63,78,-24,-46,70,29,19,78,63,48,29
-9,63,73,-26,-41,68,29,19,87,78,58,34
-4,68,73,-31,-39,70,29,24,97,87,58,43
-4,73,78,-34,-41,75,34,29,102,87,63,48
4,82,78,-43,-36,80,29,34,107,92,68,48
9,82,73,-46,-31,78,14,39,107,92,68,48
14,58,43,-36,-14,51,4,34,92,73,58,43
19,34,14,-26,2,24,0,29,78,68,43,34
14,14,0,-14,7,7,-4,19,58,48,24,14
14,9,-4,-12,9,2,-9,14,43,34,14,4
19,4,-14,-12,17,-4,-14,14,39,34,14,4
29,9,-19,-19,24,-4,-24,4,34,29,14,4
39,24,-14,-31,26,4,-43,-9,24,29,9,4
53,29,-24,-41,39,2,-58,-14,19,24,4,4
58,19,-39,-39,48,-9,-58,-14,4,9,-4,-4
53,-19,-73,-17,63,-46,-53,-4,4,9,-9,-9
53,-39,-92,-7,73,-65,-39,14,4,9,-9,-9
53,-34,-87,-9,70,-61,-24,19,19,19,4,0
58,-19,-78,-19,68,-48,-24,34,39,34,19,14
68,-4,-73,-31,70,-39,-24,34,43,48,29,19
73,-4,-78,-34,75,-41,-24,34,43,39,34,19
43,-9,-53,-17,48,-31,-19,24,39,24,19,4
0,-9,-9,4,4,-9,4,4,39,19,19,0
-24,-9,14,17,-19,2,9,-9,39,14,9,-4
-34,-24,9,29,-21,-7,19,-9,39,9,0,-9
-39,-34,4,36,-21,-14,29,-9,29,9,-4,-14
-43,-34,9,39,-26,-12,34,-9,29,-4,-4,-19
-48,-34,14,41,-31,-9,34,-9,29,0,-9,-24
-48,-34,14,41,-31,-9,34,-14,29,4,-9,-24
-53,-39,14,46,-34,-12,34,-9,29,4,-9,-24
-48,-43,4,46,-26,-19,34,-4,34,4,-9,-24
-48,-39,9,43,-29,-14,34,-4,34,4,-4,-24
-58,-34,24,46,-41,-4,48,4,48,19,-4,-19
-68,-4,63,36,-65,29,63,14,141,82,39,9
-78,78,156,0,-117,117,68,48,322,248,161,87
-68,195,263,-63,-165,229,68,82,619,522,390,248
-14,307,322,-146,-168,314,39,175,990,878,678,483
82,463,380,-273,-148,422,-14,312,1444,1322,1044,775
239,688,448,-463,-104,568,-117,512,2025,1888,1517,1141
444,922,478,-683,-17,700,-283,751,2610,2459,1991,1527
668,1161,492,-915,87,827,-512,976,3123,2986,2459,1922
907,1376,468,-1141,219,922,-819,1093,3406,3323,2806,2244
1117,1464,346,-1290,385,905,-1102,1161,3342,3323,2869,2352
1273,1522,248,-1398,512,885,-1302,1141,3074,3137,2776,2337
1322,1571,248,-1446,536,910,-1405,1044,2693,2815,2586,2244
1332,1581,248,-1456,541,915,-1459,863,2137,2322,2239,2039
1322,1493,170,-1407,575,832,-1454,751,1683,1898,1917,1820
1224,1010,-214,-1117,719,397,-1220,649,834,1176,1346,1381
1063,439,-624,-751,844,-92,-951,370,-229,366,741,917
902,126,-775,-514,839,-324,-692,283,-390,117,453,663
639,-48,-688,-295,663,-368,-483,34,-527,-170,112,317
366,-117,-483,-124,424,-300,-292,-97,-527,-336,-151,9
229,-126,-356,-51,292,-241,-170,-107,-463,-326,-190,-68
117,-126,-244,4,180,-185,-87,-141,-429,-331,-229,-117
39,-107,-146,34,92,-126,-43,-141,-380,-326,-263,-170
-19,-107,-87,63,34,-97,-9,-126,-326,-307,-258,-190
-48,-117,-68,82,9,-92,29,-107,-292,-287,-244,-200
-68,-122,-53,95,-7,-87,43,-107,-287,-268,-234,-185
-68,-122,-53,95,-7,-87,43,-107,-278,-268,-234,-185
-78,-122,-43,100,-17,-82,43,-107,-268,-253,-229,-190
-87,-126,-39,107,-24,-82,58,-102,-244,-244,-214,-190
-97,-131,-34,114,-31,-82,73,-92,-239,-229,-204,-185
-97,-131,-34,114,-31,-82,73,-92,-234,-229,-204,-185
-97,-122,-24,109,-36,-73,73,-92,-229,-229,-204,-180
-102,-122,-19,112,-41,-70,82,-92,-219,-219,-204,-180
-102,-122,-19,112,-41,-70,87,-92,-214,-209,-195,-175
-107,-126,-19,117,-43,-73,87,-92,-214,-209,-195,-175
-107,-126,-19,117,-43,-73,87,-92,-209,-209,-195,-175
-112,-122,-9,117,-51,-65,92,-92,-200,-209,-195,-175
-112,-117,-4,114,-53,-61,92,-87,-195,-209,-195,-175
-112,-117,-4,114,-53,-61,92,-82,-195,-209,-190,-175
-112,-117,-4,114,-53,-61,87,-82,-190,-204,-190,-175
-112,-117,-4,114,-53,-61,82,-82,-190,-200,-185,-170
-112,-117,-4,114,-53,-61,82,-87,-190,-200,-185,-165
-112,-107,4,109,-58,-51,82,-92,-190,-200,-180,-165
-112,-107,4,109,-58,-51,87,-92,-190,-200,-180,-170
-112,-107,4,109,-58,-51,87,-92,-185,-190,-180,-170
-107,-102,4,104,-56,-48,87,-92,-185,-190,-180,-170
-107,-102,4,104,-56,-48,82,-92,-180,-185,-170,-161
-112,-102,9,107,-61,-46,78,-92,-180,-185,-170,-156
-112,-102,9,107,-61,-46,78,-102,-180,-185,-170,-151
-112,-102,9,107,-61,-46,78,-102,-180,-185,-180,-151
-112,-102,9,107,-61,-46,78,-97,-175,-185,-165,-146
-112,-87,24,100,-68,-31,82,-97,-170,-180,-165,-151
-112,-82,29,97,-70,-26,82,-102,-170,-180,-161,-151
-112,-82,29,97,-70,-26,82,-107,-170,-175,-161,-151
-112,-82,29,97,-70,-26,82,-107,-170,-175,-161,-146
-112,-82,29,97,-70,-26,82,-107,-165,-170,-161,-146
-112,-78,34,95,-73,-21,82,-107,-165,-170,-161,-146
-112,-78,34,95,-73,-21,82,-107,-170,-170,-161,-146
-112,-82,29,97,-70,-26,82,-107,-170,-175,-156,-146
-112,-87,24,100,-68,-31,82,-102,-170,-175,-156,-141
-112,-92,19,102,-65,-36,82,-102,-175,-175,-156,-141
-117,-82,34,100,-75,-24,78,-107,-175,-175,-156,-146
-117,-82,34,100,-75,-24,78,-107,-180,-185,-161,-146
-117,-82,34,100,-75,-24,78,-107,-180,-185,-165,-146
-112,-82,29,97,-70,-26,78,-107,-185,-185,-165,-146
-112,-78,34,95,-73,-21,78,-107,-185,-185,-165,-146
-112,-78,34,95,-73,-21,78,-107,-200,-195,-165,-146
-117,-78,39,97,-78,-19,78,-112,-200,-195,-165,-151
-117,-78,39,97,-78,-19,82,-112,-200,-195,-170,-156
-117,-82,34,100,-75,-24,78,-112,-204,-209,-180,-161
-122,-82,39,102,-80,-21,73,-117,-219,-214,-185,-165
-126,-87,39,107,-82,-24,78,-122,-219,-214,-185,-165
-122,-92,29,107,-75,-31,78,-126,-229,-219,-185,-165
-117,-92,24,104,-70,-34,78,-131,-239,-229,-190,-170
-117,-87,29,102,-73,-29,78,-131,-248,-234,-195,-170
-117,-87,29,102,-73,-29,82,-131,-263,-248,-204,-185
-122,-87,34,104,-78,-26,87,-141,-273,-263,-219,-190
-122,-92,29,107,-75,-31,92,-151,-283,-283,-229,-195
-122,-92,29,107,-75,-31,92,-161,-292,-287,-239,-200
-131,-97,34,114,-82,-31,92,-165,-307,-297,-248,-200
-136,-97,39,117,-87,-29,87,-170,-331,-317,-263,-214
-141,-107,34,124,-87,-36,87,-170,-351,-331,-273,-224
-141,-107,34,124,-87,-36,87,-180,-375,-346,-283,-234
-141,-112,29,126,-85,-41,82,-185,-395,-366,-302,-248
-136,-112,24,124,-80,-43,82,-200,-424,-400,-322,-273
-141,-122,19,131,-80,-51,82,-209,-448,-419,-346,-283
-146,-126,19,136,-82,-53,82,-224,-483,-444,-370,-297
-146,-141,4,143,-75,-68,82,-234,-512,-473,-390,-312
-151,-146,4,148,-78,-70,82,-248,-551,-512,-424,-341
-156,-151,4,153,-80,-73,87,-263,-590,-551,-448,-356
-156,-165,-9,161,-73,-87,87,-268,-629,-585,-478,-375
-156,-170,-14,163,-70,-92,92,-278,-668,-619,-507,-390
-156,-190,-34,173,-61,-112,92,-278,-707,-653,-531,-409
-156,-200,-43,178,-56,-122,92,-287,-746,-697,-566,-444
-156,-219,-63,187,-46,-141,92,-297,-795,-736,-595,-458
-156,-229,-73,192,-41,-151,92,-297,-824,-771,-619,-478
-156,-244,-87,200,-34,-165,97,-292,-858,-805,-649,-497
-156,-258,-102,207,-26,-180,97,-292,-893,-839,-673,-517
-141,-273,-131,207,-4,-202,102,-278,-917,-858,-692,-527
-141,-283,-141,212,0,-212,102,-268,-946,-897,-727,-551
-136,-297,-161,217,12,-229,102,-253,-951,-907,-736,-561
-136,-297,-161,217,12,-229,102,-234,-951,-907,-736,-566
-131,-302,-170,217,19,-236,107,-209,-946,-907,-736,-566
-122,-302,-180,212,29,-241,112,-185,-922,-893,-727,-556
-117,-302,-185,209,34,-244,112,-165,-888,-863,-697,-541
-107,-297,-190,202,41,-244,117,-146,-824,-814,-668,-512
-107,-273,-165,190,29,-219,117,-122,-761,-756,-619,-478
-102,-263,-161,183,29,-212,112,-92,-688,-697,-575,-453
-87,-239,-151,163,31,-195,97,-82,-614,-629,-527,-414
-87,-214,-126,151,19,-170,92,-53,-531,-556,-463,-366
-78,-195,-117,136,19,-156,82,-29,-453,-483,-409,-322
-68,-161,-92,114,12,-126,87,-24,-390,-419,-356,-287
-58,-136,-78,97,9,-107,87,-9,-317,-346,-307,-253
-53,-117,-63,85,4,-90,78,-4,-258,-292,-253,-204
-43,-97,-53,70,4,-75,73,4,-200,-239,-209,-175
-34,-78,-43,56,4,-61,68,19,-151,-190,-175,-141
-29,-63,-34,46,2,-48,58,19,-107,-151,-141,-112
-19,-53,-34,36,7,-43,48,24,-68,-112,-107,-87
-19,-43,-24,31,2,-34,39,29,-39,-73,-78,-68
-14,-34,-19,24,2,-26,39,39,-14,-43,-53,-43
-9,-29,-19,19,4,-24,29,39,9,-24,-39,-39
-14,-29,-14,21,0,-21,39,43,29,0,-19,-19
-9,-19,-9,14,0,-14,39,43,43,14,-4,-4
-9,-19,-9,14,0,-14,34,43,53,24,14,0
-9,-14,-4,12,-2,-9,34,43,58,34,19,0
0,-4,-4,2,2,-4,29,39,63,34,24,4
4,-4,-9,0,7,-7,29,39,68,43,29,14
4,-9,-14,2,9,-12,29,39,73,48,29,19
4,-9,-14,2,9,-12,29,39,73,48,24,19
4,-9,-14,2,9,-12,29,39,73,48,24,19
4,-9,-14,2,9,-12,29,39,73,48,24,19
0,-9,-9,4,4,-9,29,39,68,48,24,19
-4,-9,-4,7,0,-7,29,34,68,48,19,19
-9,-9,0,9,-4,-4,29,24,58,39,19,19
-14,-9,4,12,-9,-2,29,19,48,39,19,14
-14,-24,-9,19,-2,-17,29,14,43,34,19,9
-14,-24,-9,19,-2,-17,24,9,43,34,24,4
-19,-19,0,19,-9,-9,29,9,34,29,19,-4
-19,-14,4,17,-12,-4,34,4,34,24,14,-4
-19,-14,4,17,-12,-4,34,4,29,19,14,-4
-24,-19,4,21,-14,-7,39,-4,19,14,9,-4
-24,-24,0,24,-12,-12,34,-4,14,4,4,-4
-34,-24,9,29,-21,-7,29,-4,14,0,-4,-4
-39,-24,14,31,-26,-4,29,-19,9,0,-4,-19
-43,-34,9,39,-26,-12,29,-29,4,0,-9,-19
-43,-39,4,41,-24,-17,29,-34,0,-9,-9,-19
-43,-39,4,41,-24,-17,29,-34,0,-14,-14,-29
-39,-34,4,36,-21,-14,29,-34,-9,-14,-14,-29
-39,-29,9,34,-24,-9,29,-34,-14,-14,-19,-29
-39,-29,9,34,-24,-9,34,-34,-14,-14,-19,-29
-43,-29,14,36,-29,-7,34,-34,-14,-14,-19,-34
-43,-43,0,43,-21,-21,34,-34,-19,-14,-19,-29
-43,-34,9,39,-26,-12,34,-39,-24,-19,-24,-24
-43,-34,9,39,-26,-12,29,-39,-24,-19,-24,-24
-43,-39,4,41,-24,-17,29,-34,-19,-19,-24,-24
-43,-39,4,41,-24,-17,29,-34,-14,-19,-24,-34
-43,-39,4,41,-24,-17,39,-34,-14,-19,-24,-39
-43,-39,4,41,-24,-17,39,-34,-14,-19,-24,-39
-39,-39,0,39,-19,-19,34,-34,-14,-19,-24,-39
-34,-39,-4,36,-14,-21,24,-34,-14,-19,-19,-34
-29,-34,-4,31,-12,-19,24,-24,-9,-14,-19,-29
-34,-34,0,34,-17,-17,29,-24,-9,-9,-19,-29
-34,-39,-4,36,-14,-21,29,-19,-4,-9,-19,-29
-34,-34,0,34,-17,-17,29,-19,-4,-9,-19,-29
-34,-29,4,31,-19,-12,24,-19,0,-9,-24,-29
-34,-24,9,29,-21,-7,19,-19,0,-4,-24,-29
-29,-24,4,26,-17,-9,24,-14,0,-4,-19,-24
-29,-29,0,29,-14,-14,24,-14,4,0,-19,-19
-29,-29,0,29,-14,-14,19,-14,4,0,-19,-19
-24,-29,-4,26,-9,-17,19,-14,14,4,-14,-19
-24,-24,0,24,-12,-12,14,-14,19,4,-14,-19
-24,-19,4,21,-14,-7,14,-14,24,4,-4,-14
-24,-14,9,19,-17,-2,9,-14,29,9,4,-14
-24,-14,9,19,-17,-2,9,-9,29,14,4,-9
-29,-19,9,24,-19,-4,19,-9,34,19,4,-9
-29,-19,9,24,-19,-4,19,0,29,19,0,-9
-29,-24,4,26,-17,-9,19,4,29,19,0,-9
-29,-24,4,26,-17,-9,19,4,29,19,0,-4
-29,-14,14,21,-21,0,19,0,29,14,0,-4
-29,-9,19,19,-24,4,24,0,29,14,4,-4
-24,-4,19,14,-21,7,19,0,29,19,4,-4
-24,-14,9,19,-17,-2,14,0,34,24,9,0
-24,-19,4,21,-14,-7,14,0,39,29,14,0
-24,-19,4,21,-14,-7,14,0,43,29,14,0
-24,-19,4,21,-14,-7,14,0,43,29,14,-4
-19,-14,4,17,-12,-4,19,0,39,29,9,-4
-14,-19,-4,17,-4,-12,19,4,34,29,9,0
-14,-19,-4,17,-4,-12,14,4,39,34,9,0
-14,-19,-4,17,-4,-12,4,4,43,34,9,4
-14,-14,0,14,-7,-7,4,0,43,34,14,4
-19,-14,4,17,-12,-4,9,0,48,39,19,4
-19,-9,9,14,-14,0,9,0,48,39,19,4
-19,-9,9,14,-14,0,9,0,48,39,19,9
-19,-9,9,14,-14,0,9,0,48,34,19,9
-19,-9,9,14,-14,0,9,0,48,29,19,9
-19,-9,9,14,-14,0,9,0,48,29,19,9
-19,-9,9,14,-14,0,9,0,48,29,19,9
-19,-9,9,14,-14,0,14,0,48,34,24,9
-19,-9,9,14,-14,0,19,0,48,39,29,9
-19,-9,9,14,-14,0,19,0,48,39,29,9
-19,-9,9,14,-14,0,19,0,48,39,29,9
-24,-9,14,17,-19,2,19,4,48,39,24,4
-29,-9,19,19,-24,4,19,9,48,39,19,0
-29,-9,19,19,-24,4,19,9,48,39,19,0
-29,-9,19,19,-24,4,19,9,48,39,19,0
-24,-9,14,17,-19,2,19,9,48,39,19,0
-19,-9,9,14,-14,0,19,9,48,39,19,0
-19,-19,0,19,-9,-9,19,9,48,39,19,0
-19,-29,-9,24,-4,-19,19,9,48,39,19,0
-19,-19,0,19,-9,-9,19,9,48,39,19,0
-19,-9,9,14,-14,0,19,9,48,39,19,0
-19,-9,9,14,-14,0,19,9,48,39,19,0
-19,-9,9,14,-14,0,19,9,48,39,19,0
-19,-9,9,14,-14,0,19,9,48,39,19,0
-19,-9,9,14,-14,0,19,9,48,39,19,0
-19,-9,9,14,-14,0,14,9,48,39,19,4
-19,-9,9,14,-14,0,9,9,48,39,19,9
-19,-9,9,14,-14,0,9,9,48,39,19,9
-19,-9,9,14,-14,0,9,9,48,39,19,9
-19,-9,9,14,-14,0,9,9,48,39,19,9
-19,-9,9,14,-14,0,9,9,48,39,19,9
-19,-9,9,14,-14,0,9,9,48,39,19,9
-19,-9,9,14,-14,0,9,9,48,39,19,9
-19,-9,9,14,-14,0,14,9,48,39,19,9
-19,-9,9,14,-14,0,19,9,48,39,19,9
-19,-9,9,14,-14,0,19,9,48,39,19,9
-19,-9,9,14,-14,0,19,9,48,39,19,9
-19,-9,9,14,-14,0,19,9,48,39,24,9
-19,-9,9,14,-14,0,19,9,48,39,29,9
-19,-9,9,14,-14,0,19,9,48,39,29,9
-19,-9,9,14,-14,0,19,9,48,39,29,9
-19,-9,9,14,-14,0,19,9,48,34,24,4
-19,-9,9,14,-14,0,19,9,48,29,19,0
-19,-9,9,14,-14,0,19,9,48,29,19,0
-19,-9,9,14,-14,0,19,9,48,29,19,0
-19,-14,4,17,-12,-4,19,9,48,29,19,0
-19,-19,0,19,-9,-9,19,9,48,29,19,0
-19,-19,0,19,-9,-9,19,9,48,29,19,4
-19,-19,0,19,-9,-9,19,9,48,29,19,9
-19,-14,4,17,-12,-4,19,9,48,29,19,9
-19,-9,9,14,-14,0,19,9,48,29,19,9
-19,-9,9,14,-14,0,19,9,48,29,19,9
-19,-9,9,14,-14,0,19,9,48,29,19,9
-19,-9,9,14,-14,0,19,9,48,29,19,9
-19,-9,9,14,-14,0,19,9,48,29,19,9
-19,-9,9,14,-14,0,19,4,48,29,19,9
-19,-9,9,14,-14,0,19,0,48,29,19,9
-24,-9,14,17,-19,2,19,0,48,29,19,4
-29,-9,19,19,-24,4,19,0,48,29,19,0
-29,-14,14,21,-21,0,19,4,48,29,19,0
-29,-19,9,24,-19,-4,19,9,48,29,19,0
-29,-19,9,24,-19,-4,19,9,43,29,19,0
-29,-19,9,24,-19,-4,19,9,39,29,19,0
-29,-19,9,24,-19,-4,19,9,39,29,19,0
-29,-19,9,24,-19,-4,19,9,39,29,19,0
-29,-19,9,24,-19,-4,19,4,39,29,19,0
-29,-19,9,24,-19,-4,19,0,39,29,19,0
-29,-14,14,21,-21,0,19,0,39,29,19,0
-29,-9,19,19,-24,4,19,0,39,29,19,0
-29,-9,19,19,-24,4,19,0,43,29,14,0
-29,-9,19,19,-24,4,19,0,48,29,9,0
-29,-14,14,21,-21,0,19,0,48,29,9,0
-29,-19,9,24,-19,-4,19,0,48,29,9,0
-29,-19,9,24,-19,-4,19,0,48,29,9,0
-29,-19,9,24,-19,-4,19,0,48,29,9,0
-29,-19,9,24,-19,-4,19,4,43,24,9,0
-29,-19,9,24,-19,-4,19,9,39,19,9,0
-29,-19,9,24,-19,-4,19,9,39,19,9,0
-29,-19,9,24,-19,-4,19,9,39,19,9,0
-29,-19,9,24,-19,-4,19,9,39,19,9,0
-29,-19,9,24,-19,-4,19,9,39,19,9,0
-29,-19,9,24,-19,-4,19,4,39,19,9,0
-29,-19,9,24,-19,-4,19,0,39,19,9,0
-29,-19,9,24,-19,-4,19,0,39,19,9,-4
-29,-19,9,24,-19,-4,19,0,39,19,9,-9
-29,-14,14,21,-21,0,24,0,39,19,9,-9
-29,-9,19,19,-24,4,29,0,39,19,9,-9
-29,-9,19,19,-24,4,29,0,39,19,9,-9
-29,-9,19,19,-24,4,29,0,39,19,9,-9
-29,-14,14,21,-21,0,24,4,39,19,9,-4
-29,-19,9,24,-19,-4,19,9,39,19,9,0
-29,-19,9,24,-19,-4,19,9,39,19,9,0
-24,-14,9,19,-17,-2,24,9,39,19,9,0
-24,-9,14,17,-19,2,34,9,39,19,9,0
-24,-9,14,17,-19,2,43,14,48,24,19,4
-19,-4,14,12,-17,4,48,19,53,34,19,4
-14,0,14,7,-14,7,48,19,68,43,24,9
-9,14,24,-2,-17,19,48,24,73,43,29,14
-9,29,39,-9,-24,34,43,29,87,58,39,24
-4,53,58,-24,-31,56,39,29,97,63,48,29
0,53,53,-26,-26,53,39,29,107,78,58,34
4,58,53,-31,-24,56,34,34,117,87,58,43
4,63,58,-34,-26,61,29,39,117,87,63,48
14,68,53,-41,-19,61,19,43,112,92,68,43
19,63,43,-41,-12,53,4,43,107,92,68,39
24,39,14,-31,4,26,-4,34,92,73,58,34
24,14,-9,-19,17,2,-9,29,78,68,48,29
14,0,-14,-7,14,-7,-14,19,58,48,34,14
14,4,-9,-9,12,-2,-19,14,43,34,24,4
19,4,-14,-12,17,-4,-24,14,39,34,24,9
29,9,-19,-19,24,-4,-34,9,34,29,24,14
39,19,-19,-29,29,0,-48,0,24,29,19,14
53,4,-48,-29,51,-21,-58,-4,19,24,14,14
58,-19,-78,-19,68,-48,-53,-4,9,9,4,4
58,-39,-97,-9,78,-68,-43,0,14,9,0,0
63,-29,-92,-17,78,-61,-29,14,14,9,0,0
63,-14,-78,-24,70,-46,-14,19,24,14,9,4
68,-9,-78,-29,73,-43,-14,34,39,24,19,14
73,-4,-78,-34,75,-41,-14,34,43,39,24,19
73,-9,-82,-31,78,-46,-14,34,43,29,24,19
43,-24,-68,-9,56,-46,-9,24,39,19,9,4
0,-29,-29,14,14,-29,14,4,39,19,9,0
-24,-29,-4,26,-9,-17,19,-9,39,19,4,-4
-34,-34,0,34,-17,-17,19,-9,39,19,0,-9
-34,-34,0,34,-17,-17,19,-4,29,19,-4,-14
-34,-34,0,34,-17,-17,24,0,29,4,-4,-19
-39,-34,4,36,-21,-14,24,0,29,4,-9,-24
-39,-34,4,36,-21,-14,24,-4,29,9,-9,-24
-48,-34,14,41,-31,-9,24,-4,29,14,-9,-24
-53,-39,14,46,-34,-12,34,-4,39,14,-9,-24
-63,-39,24,51,-43,-7,43,-4,48,19,0,-19
-78,-34,43,56,-61,4,58,4,82,53,19,0
-87,-4,82,46,-85,39,73,19,190,131,78,39
-92,87,180,2,-136,134,68,73,390,317,214,136
-68,219,287,-75,-178,253,58,131,707,610,458,317
19,341,322,-180,-151,331,29,253,1098,980,761,551
151,502,351,-326,-100,427,-34,424,1566,1429,1137,839
317,727,409,-522,-46,568,-161,658,2127,1966,1590,1200
536,956,419,-746,58,688,-351,951,2693,2513,2044,1581
790,1180,390,-985,200,785,-600,1185,3152,2991,2469,1937
1054,1371,317,-1212,368,844,-922,1327,3352,3245,2737,2196
1244,1439,195,-1342,524,817,-1200,1434,3220,3176,2747,2269
1381,1493,112,-1437,634,802,-1390,1390,2918,2957,2630,2239
1439,1512,73,-1476,683,793,-1473,1278,2513,2610,2405,2108
1439,1483,43,-1461,697,763,-1493,1083,1912,2088,2025,1869
1405,1351,-53,-1378,729,649,-1464,936,1410,1629,1668,1625
1273,844,-429,-1058,851,207,-1210,775,575,907,1088,1166
1093,331,-761,-712,927,-214,-932,458,-361,180,536,722
912,68,-844,-490,878,-387,-673,331,-429,14,312,507
624,-102,-727,-261,675,-414,-463,43,-546,-229,24,214
346,-156,-502,-95,424,-329,-273,-92,-527,-366,-195,-39
209,-151,-361,-29,285,-256,-156,-107,-453,-341,-209,-92
97,-146,-244,24,170,-195,-78,-141,-419,-336,-229,-136
19,-126,-146,53,82,-136,-34,-141,-370,-326,-253,-190
-39,-126,-87,82,24,-107,0,-131,-317,-302,-244,-200
-63,-136,-73,100,4,-104,39,-117,-283,-278,-224,-200
-78,-141,-63,109,-7,-102,53,-117,-278,-258,-214,-185
-78,-136,-58,107,-9,-97,53,-122,-268,-253,-214,-180
-87,-131,-43,109,-21,-87,53,-126,-258,-239,-214,-180
-97,-136,-39,117,-29,-87,63,-122,-234,-234,-204,-180
-107,-136,-29,122,-39,-82,73,-112,-229,-219,-195,-175
-107,-131,-24,119,-41,-78,73,-112,-224,-219,-195,-175
-107,-122,-14,114,-46,-68,73,-112,-219,-219,-195,-170
-112,-122,-9,117,-51,-65,82,-112,-209,-209,-195,-170
-112,-122,-9,117,-51,-65,87,-112,-204,-200,-185,-165
-117,-126,-9,122,-53,-68,87,-107,-204,-200,-185,-165
-117,-126,-9,122,-53,-68,87,-102,-204,-200,-185,-165
-122,-122,0,122,-61,-61,92,-102,-200,-200,-185,-165
-122,-117,4,119,-63,-56,92,-102,-195,-200,-185,-165
-122,-117,4,119,-63,-56,92,-102,-195,-200,-180,-165
-122,-117,4,119,-63,-56,87,-102,-190,-195,-180,-165
-122,-117,4,119,-63,-56,87,-102,-190,-190,-175,-161
-122,-117,4,119,-63,-56,92,-102,-190,-190,-175,-156
-122,-107,14,114,-68,-46,92,-107,-190,-190,-170,-156
-122,-107,14,114,-68,-46,97,-112,-190,-190,-170,-161
-122,-107,14,114,-68,-46,97,-112,-185,-180,-170,-161
-117,-102,14,109,-65,-43,97,-112,-185,-180,-170,-161
-117,-102,14,109,-65,-43,87,-112,-175,-175,-161,-151
-122,-102,19,112,-70,-41,78,-112,-170,-175,-161,-151
-122,-102,19,112,-70,-41,78,-122,-170,-175,-161,-146
-122,-102,19,112,-70,-41,78,-122,-170,-175,-170,-141
-122,-102,19,112,-70,-41,78,-117,-170,-175,-156,-136
-122,-92,29,107,-75,-31,82,-117,-170,-170,-156,-136
-122,-92,29,107,-75,-31,78,-122,-170,-170,-151,-136
-122,-92,29,107,-75,-31,73,-126,-170,-165,-151,-141
-122,-92,29,107,-75,-31,73,-126,-170,-165,-151,-136
-122,-92,29,107,-75,-31,73,-126,-165,-161,-151,-136
-122,-87,34,104,-78,-26,78,-126,-165,-161,-151,-136
-122,-87,34,104,-78,-26,82,-126,-170,-161,-151,-136
-122,-92,29,107,-75,-31,82,-126,-170,-165,-146,-136
-122,-92,29,107,-75,-31,82,-126,-170,-165,-146,-136
-122,-92,29,107,-75,-31,82,-131,-175,-165,-146,-141
-126,-82,43,104,-85,-19,78,-136,-175,-165,-146,-146
-126,-82,43,104,-85,-19,87,-136,-180,-175,-151,-146
-126,-82,43,104,-85,-19,97,-136,-180,-175,-156,-146
-122,-82,39,102,-80,-21,87,-136,-185,-175,-156,-146
-122,-82,39,102,-80,-21,78,-136,-185,-175,-156,-146
-122,-87,34,104,-78,-26,73,-136,-200,-185,-156,-146
-126,-87,39,107,-82,-24,68,-141,-200,-185,-156,-151
-126,-87,39,107,-82,-24,73,-141,-200,-185,-161,-156
-126,-87,39,107,-82,-24,73,-141,-204,-200,-170,-156
-126,-87,39,107,-82,-24,73,-146,-219,-200,-175,-156
-131,-92,39,112,-85,-26,78,-151,-219,-200,-180,-156
-126,-92,34,109,-80,-29,82,-156,-229,-209,-185,-156
-122,-92,29,107,-75,-31,87,-161,-239,-219,-190,-161
-126,-87,39,107,-82,-24,87,-161,-248,-224,-190,-161
-126,-87,39,107,-82,-24,87,-161,-263,-234,-195,-175
-131,-87,43,109,-87,-21,87,-170,-273,-244,-209,-180
-131,-92,39,112,-85,-26,92,-180,-283,-263,-219,-185
-131,-92,39,112,-85,-26,92,-190,-292,-268,-229,-195
-136,-97,39,117,-87,-29,97,-195,-307,-283,-239,-200
-136,-97,39,117,-87,-29,97,-200,-331,-307,-253,-214
-141,-107,34,124,-87,-36,97,-200,-351,-322,-263,-224
-141,-107,34,124,-87,-36,97,-209,-375,-336,-273,-234
-146,-112,34,129,-90,-39,92,-214,-395,-356,-292,-244
-146,-117,29,131,-87,-43,87,-229,-424,-390,-312,-263
-151,-131,19,141,-85,-56,82,-234,-448,-409,-331,-273
-156,-136,19,146,-87,-58,82,-244,-483,-434,-351,-283
-156,-151,4,153,-80,-73,82,-253,-512,-463,-370,-292
-161,-151,9,156,-85,-70,78,-273,-551,-502,-405,-322
-165,-151,14,158,-90,-68,78,-292,-590,-541,-429,-336
-165,-165,0,165,-82,-82,78,-297,-629,-575,-458,-356
-165,-170,-4,168,-80,-87,82,-307,-668,-610,-488,-370
-165,-190,-24,178,-70,-107,82,-302,-707,-644,-512,-390
-165,-200,-34,183,-65,-117,82,-307,-746,-683,-546,-424
-165,-219,-53,192,-56,-136,82,-317,-795,-717,-575,-439
-165,-229,-63,197,-51,-146,82,-317,-824,-751,-600,-458
-165,-244,-78,204,-43,-161,92,-312,-858,-785,-629,-478
-165,-258,-92,212,-36,-175,97,-312,-893,-819,-653,-497
-151,-273,-122,212,-14,-197,102,-297,-917,-839,-673,-507
-151,-283,-131,217,-9,-207,102,-287,-946,-878,-707,-531
-146,-297,-151,222,2,-224,102,-273,-951,-888,-717,-546
-146,-297,-151,222,2,-224,102,-253,-951,-888,-717,-556
-141,-297,-156,219,7,-226,107,-229,-946,-883,-717,-556
-131,-292,-161,212,14,-226,112,-204,-922,-863,-707,-546
-126,-292,-165,209,19,-229,112,-180,-888,-834,-678,-527
-117,-287,-170,202,26,-229,117,-151,-824,-785,-649,-492
-117,-268,-151,192,17,-209,117,-122,-761,-727,-600,-458
-112,-263,-151,187,19,-207,117,-92,-688,-668,-556,-434
-97,-239,-141,168,21,-190,107,-82,-614,-600,-507,-395
-97,-214,-117,156,9,-165,102,-53,-527,-527,-444,-346
-87,-195,-107,141,9,-151,97,-29,-444,-458,-390,-302
-78,-165,-87,122,4,-126,97,-19,-380,-400,-336,-268
-68,-146,-78,107,4,-112,87,0,-307,-326,-287,-234
-63,-126,-63,95,0,-95,78,4,-248,-273,-234,-185
-53,-107,-53,80,0,-80,63,14,-190,-219,-190,-161
-43,-87,-43,65,0,-65,53,29,-141,-170,-156,-131
-39,-73,-34,56,-2,-53,48,29,-97,-131,-122,-102
-29,-63,-34,46,2,-48,48,34,-58,-92,-87,-78
-29,-53,-24,41,-2,-39,58,39,-29,-53,-58,-58
-24,-43,-19,34,-2,-31,68,48,-4,-24,-34,-34
-19,-39,-19,29,0,-29,48,48,19,-4,-19,-29
-19,-39,-19,29,0,-29,39,53,34,14,0,-9
-9,-24,-14,17,2,-19,29,53,43,24,14,4
-9,-19,-9,14,0,-14,24,53,53,34,29,9
-9,-14,-4,12,-2,-9,29,53,58,43,29,9
-4,-4,0,4,-2,-2,29,48,63,43,34,14
-9,-4,4,7,-7,0,29,48,68,53,39,24
-14,-9,4,12,-9,-2,29,48,73,58,43,29
-14,-14,0,14,-7,-7,29,48,73,58,43,29
-14,-19,-4,17,-4,-12,29,48,73,58,43,29
-14,-19,-4,17,-4,-12,24,48,73,53,39,29
-14,-19,-4,17,-4,-12,24,48,68,48,34,29
-14,-19,-4,17,-4,-12,29,43,68,48,24,24
-19,-19,0,19,-9,-9,29,34,58,39,19,19
-19,-14,4,17,-12,-4,24,29,48,39,19,14
-14,-24,-9,19,-2,-17,19,24,43,34,14,9
-14,-24,-9,19,-2,-17,14,19,43,34,19,4
-19,-24,-4,21,-7,-14,14,19,34,29,19,-4
-19,-24,-4,21,-7,-14,19,9,29,24,14,-4
-19,-24,-4,21,-7,-14,24,4,19,19,14,-4
-24,-29,-4,26,-9,-17,29,-4,9,14,9,-4
-24,-34,-9,29,-7,-21,29,-4,4,4,4,-4
-34,-34,0,34,-17,-17,29,-4,4,0,-4,-4
-34,-34,0,34,-17,-17,29,-14,0,0,-4,-19
-34,-39,-4,36,-14,-21,29,-19,-4,0,-9,-19
-34,-39,-4,36,-14,-21,29,-24,-9,-9,-9,-19
-34,-39,-4,36,-14,-21,29,-29,-9,-14,-14,-29
-34,-34,0,34,-17,-17,29,-39,-14,-14,-14,-29
-39,-29,9,34,-24,-9,29,-43,-14,-14,-24,-29
-39,-29,9,34,-24,-9,34,-43,-14,-14,-29,-29
-43,-34,9,39,-26,-12,34,-43,-14,-14,-29,-34
-43,-48,-4,46,-19,-26,34,-43,-19,-14,-29,-34
-43,-34,9,39,-26,-12,34,-48,-24,-19,-34,-34
-43,-34,9,39,-26,-12,29,-48,-24,-19,-34,-34
-43,-39,4,41,-24,-17,29,-43,-19,-19,-29,-34
-43,-39,4,41,-24,-17,29,-43,-14,-19,-24,-34
-43,-39,4,41,-24,-17,39,-43,-14,-19,-24,-29
-43,-39,4,41,-24,-17,39,-43,-14,-19,-24,-29
-39,-39,0,39,-19,-19,34,-43,-14,-19,-24,-29
-39,-39,0,39,-19,-19,24,-43,-14,-19,-19,-29
-39,-39,0,39,-19,-19,24,-34,-9,-14,-19,-29
-43,-43,0,43,-21,-21,29,-34,-9,-9,-19,-29
-43,-48,-4,46,-19,-26,29,-29,-4,-9,-19,-29
-43,-48,-4,46,-19,-26,29,-29,-4,-9,-14,-29
-43,-43,0,43,-21,-21,24,-29,0,-9,-14,-29
-43,-34,9,39,-26,-12,24,-29,0,-4,-14,-29
-39,-34,4,36,-21,-14,29,-24,0,-4,-9,-24
-39,-39,0,39,-19,-19,29,-24,4,0,-9,-19
-39,-39,0,39,-19,-19,29,-14,4,0,-9,-19
-34,-39,-4,36,-14,-21,29,-4,9,4,-4,-19
-34,-34,0,34,-17,-17,29,-14,9,4,-14,-19
-34,-29,4,31,-19,-12,29,-19,14,4,-19,-14
-34,-24,9,29,-21,-7,19,-14,19,9,-4,-14
-29,-24,4,26,-17,-9,19,-9,19,14,4,-9
-29,-24,4,26,-17,-9,24,-9,24,19,4,-9
-29,-19,9,24,-19,-4,19,-4,24,19,4,-9
-29,-24,4,26,-17,-9,19,-4,29,19,9,-9
-29,-24,4,26,-17,-9,19,-4,29,24,9,-4
-29,-19,9,24,-19,-4,19,-4,29,24,9,-4
-29,-19,9,24,-19,-4,19,0,29,24,14,-4
-24,-14,9,19,-17,-2,9,0,29,29,14,-4
-24,-14,9,19,-17,-2,4,0,29,29,14,0
-24,-9,14,17,-19,2,4,0,29,29,14,0
-24,-9,14,17,-19,2,9,0,34,29,14,0
-24,-9,14,17,-19,2,14,0,34,29,14,-4
-24,-9,14,17,-19,2,19,0,34,29,14,-4
-24,-19,4,21,-14,-7,19,4,34,29,19,0
-24,-19,4,21,-14,-7,14,4,39,34,19,0
-24,-14,9,19,-17,-2,9,4,43,34,19,4
-19,-9,9,14,-14,0,0,4,39,39,19,4
-19,-14,4,17,-12,-4,4,0,39,39,19,0
-19,-19,0,19,-9,-9,9,0,39,39,19,0
-19,-19,0,19,-9,-9,14,0,39,39,19,4
-19,-19,0,19,-9,-9,19,0,39,39,19,9
-19,-14,4,17,-12,-4,19,0,39,39,19,9
-19,-9,9,14,-14,0,19,0,39,39,19,9
-19,-9,9,14,-14,0,14,0,39,39,19,9
-19,-9,9,14,-14,0,9,0,39,39,19,9
-19,-14,4,17,-12,-4,9,0,39,39,19,9
-19,-19,0,19,-9,-9,9,0,39,39,19,9
-19,-19,0,19,-9,-9,9,0,39,39,19,9
-19,-19,0,19,-9,-9,9,0,39,39,19,9
-19,-14,4,17,-12,-4,9,0,39,39,19,9
-19,-9,9,14,-14,0,9,0,39,39,19,9
-19,-9,9,14,-14,0,14,0,43,39,24,9
-19,-9,9,14,-14,0,19,0,48,39,29,9
-19,-9,9,14,-14,0,19,0,48,39,29,9
-19,-9,9,14,-14,0,19,0,48,39,29,9
-19,-9,9,14,-14,0,14,0,48,39,29,9
-19,-9,9,14,-14,0,9,0,48,39,29,9
-19,-9,9,14,-14,0,9,0,48,39,29,9
-19,-9,9,14,-14,0,9,0,48,39,29,9
-19,-9,9,14,-14,0,14,0,43,39,24,4
-19,-9,9,14,-14,0,19,0,39,39,19,0
-19,-9,9,14,-14,0,19,0,39,39,19,0
-19,-9,9,14,-14,0,19,0,39,39,19,0
-19,-9,9,14,-14,0,14,0,39,39,24,0
-19,-9,9,14,-14,0,9,0,39,39,29,0
-19,-9,9,14,-14,0,9,0,39,39,29,4
-19,-9,9,14,-14,0,9,0,39,39,29,9
-19,-9,9,14,-14,0,9,0,39,39,29,9
-19,-9,9,14,-14,0,9,0,39,39,29,9
-19,-9,9,14,-14,0,9,0,39,39,29,9
-19,-9,9,14,-14,0,9,0,39,39,29,9
-19,-9,9,14,-14,0,4,4,39,39,29,9
-19,-9,9,14,-14,0,0,9,39,39,29,9
-19,-14,4,17,-12,-4,0,9,43,39,29,9
-19,-19,0,19,-9,-9,0,9,48,39,29,9
-19,-19,0,19,-9,-9,9,9,48,39,29,9
-19,-19,0,19,-9,-9,19,9,48,39,29,9
-19,-14,4,17,-12,-4,19,4,43,39,24,9
-19,-9,9,14,-14,0,19,0,39,39,19,9
-19,-4,14,12,-17,4,19,0,39,39,19,9
-19,0,19,9,-19,9,19,0,39,39,19,9
-24,0,24,12,-24,12,19,0,39,39,19,9
-29,0,29,14,-29,14,19,0,39,39,19,9
-29,0,29,14,-29,14,19,0,39,39,19,9
-29,0,29,14,-29,14,19,0,39,39,19,9
-29,0,29,14,-29,14,19,0,39,39,24,9
-29,0,29,14,-29,14,19,0,39,39,29,9
-24,0,24,12,-24,12,14,0,39,39,29,9
-19,0,19,9,-19,9,9,0,39,39,29,9
-19,0,19,9,-19,9,9,4,39,39,24,9
-19,0,19,9,-19,9,9,9,39,39,19,9
-19,0,19,9,-19,9,9,9,39,39,19,9
-19,0,19,9,-19,9,9,9,39,39,19,9
-19,-4,14,12,-17,4,9,9,39,39,19,9
-19,-9,9,14,-14,0,9,9,39,39,19,9
-19,-9,9,14,-14,0,9,9,39,39,19,9
-19,-9,9,14,-14,0,9,9,39,39,19,9
-19,-9,9,14,-14,0,14,9,39,39,19,9
-19,-9,9,14,-14,0,19,9,39,39,19,9
-19,-9,9,14,-14,0,19,9,39,39,19,9
-19,-9,9,14,-14,0,19,9,39,39,19,9
-19,-9,9,14,-14,0,19,4,39,39,19,9
-19,-9,9,14,-14,0,19,0,39,39,19,9
-24,-9,14,17,-19,2,19,0,39,39,19,9
-29,-9,19,19,-24,4,19,0,39,39,19,9
-29,-9,19,19,-24,4,19,4,39,39,19,9
-29,-9,19,19,-24,4,19,9,39,39,19,9
-29,-9,19,19,-24,4,19,9,39,39,19,4
-29,-9,19,19,-24,4,19,9,39,39,19,0
-24,-9,14,17,-19,2,14,4,39,39,19,0
-19,-9,9,14,-14,0,9,0,39,39,19,0
-19,-9,9,14,-14,0,9,0,39,39,19,0
-19,-9,9,14,-14,0,9,0,39,39,19,0
-19,-14,4,17,-12,-4,9,0,39,39,19,0
-19,-19,0,19,-9,-9,9,0,39,39,19,0
-19,-19,0,19,-9,-9,9,0,39,39,19,0
-19,-19,0,19,-9,-9,9,0,39,39,19,0
-24,-19,4,21,-14,-7,9,4,39,39,19,0
-29,-19,9,24,-19,-4,9,9,39,39,19,0
-29,-19,9,24,-19,-4,9,9,34,39,19,0
-29,-19,9,24,-19,-4,9,9,29,39,19,0
-29,-14,14,21,-21,0,19,4,29,34,19,0
-29,-9,19,19,-24,4,29,0,29,29,19,0
-29,-9,19,19,-24,4,29,0,29,29,19,0
-29,-9,19,19,-24,4,29,0,29,29,19,0
-29,-9,19,19,-24,4,24,0,29,34,19,0
-24,-9,14,17,-19,2,24,0,29,34,19,0
-24,-9,14,17,-19,2,24,0,34,39,19,4
-24,-9,14,17,-19,2,24,0,39,39,19,9
-24,-9,14,17,-19,2,19,4,48,43,29,14
-19,-4,14,12,-17,4,19,9,48,48,29,14
-14,0,14,7,-14,7,19,9,58,53,34,19
-9,14,24,-2,-17,19,24,14,63,53,39,24
-9,29,39,-9,-24,34,24,19,78,68,48,34
-4,53,58,-24,-31,56,19,19,87,73,58,39
0,53,53,-26,-26,53,19,19,97,87,68,43
4,58,53,-31,-24,56,19,24,107,97,68,53
4,63,58,-34,-26,61,19,29,107,97,73,53
14,73,58,-43,-21,65,9,34,107,102,78,48
19,82,63,-51,-21,73,0,39,107,102,78,48
24,68,43,-46,-9,56,-4,34,92,82,68,43
24,34,9,-29,7,21,-9,29,82,82,58,43
14,4,-9,-9,12,-2,-14,19,68,68,43,34
14,4,-9,-9,12,-2,-19,9,53,53,34,24
19,4,-14,-12,17,-4,-24,4,48,53,34,24
29,14,-14,-21,21,0,-29,0,39,43,34,24
39,34,-4,-36,21,14,-43,-9,24,39,29,24
53,24,-29,-39,41,-2,-58,-14,19,34,24,24
58,0,-58,-29,58,-29,-58,-14,4,19,14,14
58,-24,-82,-17,70,-53,-58,-9,4,19,9,9
63,-29,-92,-17,78,-61,-48,4,4,19,9,9
63,-24,-87,-19,75,-56,-39,9,14,24,19,14
68,-9,-78,-29,73,-43,-43,24,29,34,29,24
73,4,-68,-39,70,-31,-43,24,34,48,34,29
73,4,-68,-39,70,-31,-43,24,34,39,34,29
43,-4,-48,-19,46,-26,-34,14,29,29,24,14
0,-9,-9,4,4,-9,-4,-4,29,29,29,9
-24,-9,14,17,-19,2,0,-19,29,29,24,4
-34,-24,9,29,-21,-7,9,-19,29,29,19,0
-34,-34,0,34,-17,-17,19,-14,19,34,14,-4
-34,-34,0,34,-17,-17,24,-9,19,24,14,-9
-39,-34,4,36,-21,-14,24,-9,19,24,9,-14
-39,-34,4,36,-21,-14,24,-14,19,24,9,-14
-48,-34,14,41,-31,-9,29,-14,19,24,9,-14
-48,-34,14,41,-31,-9,34,-14,24,24,9,-14
-53,-34,19,43,-36,-7,34,-19,19,19,14,-19
-68,-34,34,51,-51,0,48,-14,29,29,14,-19
-82,-24,58,53,-70,17,63,0,92,63,34,-4
-97,39,136,29,-117,87,68,39,244,200,131,58
-92,156,248,-31,-170,202,73,68,522,448,331,195
-43,268,312,-112,-178,290,48,156,873,780,590,405
53,414,361,-234,-153,387,9,307,1302,1190,932,678
209,629,419,-419,-104,524,-78,522,1859,1722,1381,1024
419,849,429,-634,-4,639,-229,819,2488,2318,1859,1405
649,1073,424,-861,112,749,-444,1102,3045,2869,2332,1795
912,1293,380,-1102,265,836,-766,1278,3376,3254,2713,2142
1146,1385,239,-1266,453,812,-1063,1405,3362,3303,2810,2274
1332,1459,126,-1395,602,793,-1283,1390,3128,3157,2747,2288
1410,1522,112,-1466,649,817,-1405,1298,2781,2874,2586,2225
1434,1595,161,-1515,636,878,-1503,1102,2244,2405,2269,2044
1439,1571,131,-1505,653,851,-1542,976,1810,2005,1976,1849
1342,1098,-244,-1220,793,427,-1322,829,936,1263,1400,1410
1180,536,-644,-858,912,-53,-1068,507,-151,434,790,946
1015,190,-824,-602,919,-317,-795,375,-361,165,497,697
746,-19,-766,-363,756,-392,-570,82,-546,-141,151,356
439,-97,-536,-170,488,-317,-361,-78,-546,-322,-126,39
268,-117,-385,-75,326,-251,-219,-117,-483,-326,-180,-48
146,-122,-268,-12,207,-195,-126,-151,-448,-326,-219,-112
58,-107,-165,24,112,-136,-73,-151,-400,-317,-253,-180
-4,-107,-102,56,48,-104,-34,-141,-336,-292,-244,-190
-39,-117,-78,78,19,-97,9,-126,-292,-268,-224,-190
-58,-117,-58,87,0,-87,24,-126,-287,-248,-214,-175
-58,-112,-53,85,-2,-82,24,-126,-278,-248,-214,-175
-68,-107,-39,87,-14,-73,24,-126,-268,-239,-214,-185
-78,-107,-29,92,-24,-68,39,-122,-244,-234,-204,-190
-92,-107,-14,100,-39,-61,53,-112,-239,-219,-195,-185
-97,-102,-4,100,-46,-53,53,-112,-234,-219,-195,-185
-97,-97,0,97,-48,-48,58,-112,-229,-219,-195,-180
-102,-102,0,102,-51,-51,73,-112,-219,-209,-195,-180
-102,-102,0,102,-51,-51,82,-107,-214,-195,-185,-175
-107,-107,0,107,-53,-53,87,-102,-214,-190,-185,-175
-107,-107,0,107,-53,-53,87,-102,-214,-190,-185,-180
-112,-102,9,107,-61,-46,92,-102,-209,-190,-185,-185
-112,-97,14,104,-63,-41,73,-102,-204,-195,-185,-185
-112,-97,14,104,-63,-41,53,-102,-204,-200,-180,-185
-112,-97,14,104,-63,-41,68,-102,-200,-195,-180,-185
-112,-97,14,104,-63,-41,82,-102,-200,-190,-175,-180
-112,-97,14,104,-63,-41,82,-102,-200,-190,-175,-175
-112,-87,24,100,-68,-31,82,-102,-200,-190,-170,-175
-112,-87,24,100,-68,-31,82,-107,-200,-190,-170,-180
-112,-87,24,100,-68,-31,78,-112,-195,-180,-170,-180
-107,-82,24,95,-65,-29,78,-112,-195,-180,-170,-175
-107,-82,24,95,-65,-29,73,-112,-190,-175,-161,-161
-112,-82,29,97,-70,-26,73,-112,-190,-180,-165,-161
-112,-82,29,97,-70,-26,78,-122,-190,-185,-170,-161
-112,-87,24,100,-68,-31,78,-122,-190,-185,-180,-161
-112,-92,19,102,-65,-36,78,-117,-185,-185,-165,-156
-112,-82,29,97,-70,-26,78,-107,-175,-170,-161,-156
-112,-82,29,97,-70,-26,73,-102,-170,-161,-151,-151
-117,-82,34,100,-75,-24,73,-117,-170,-156,-151,-151
-122,-82,39,102,-80,-21,73,-126,-170,-156,-151,-146
-122,-82,39,102,-80,-21,73,-126,-170,-156,-151,-146
-122,-78,43,100,-82,-17,73,-126,-175,-161,-151,-146
-117,-78,39,97,-78,-19,73,-126,-180,-161,-156,-146
-112,-82,29,97,-70,-26,73,-126,-180,-165,-156,-146
-112,-87,24,100,-68,-31,78,-117,-175,-165,-156,-146
-112,-92,19,102,-65,-36,82,-112,-175,-165,-156,-151
-117,-82,34,100,-75,-24,78,-117,-175,-165,-156,-156
-117,-82,34,100,-75,-24,78,-117,-180,-175,-161,-156
-122,-82,39,102,-80,-21,78,-117,-180,-175,-165,-156
-122,-82,39,102,-80,-21,78,-117,-185,-175,-165,-156
-122,-82,39,102,-80,-21,78,-117,-185,-175,-165,-156
-122,-87,34,104,-78,-26,78,-117,-200,-185,-165,-156
-126,-87,39,107,-82,-24,78,-122,-200,-185,-161,-161
-126,-87,39,107,-82,-24,82,-122,-200,-185,-161,-165
-122,-92,29,107,-75,-31,82,-122,-204,-195,-170,-165
-122,-92,29,107,-75,-31,82,-126,-219,-195,-175,-165
-131,-97,34,114,-82,-31,87,-131,-219,-200,-185,-170
-131,-102,29,117,-80,-36,87,-136,-229,-209,-195,-175
-131,-102,29,117,-80,-36,78,-141,-234,-219,-200,-180
-136,-97,39,117,-87,-29,68,-141,-239,-224,-204,-180
-136,-92,43,114,-90,-24,68,-141,-253,-234,-214,-195
-141,-87,53,114,-97,-17,68,-151,-263,-244,-229,-200
-141,-92,48,117,-95,-21,78,-156,-273,-263,-229,-204
-141,-92,48,117,-95,-21,82,-161,-283,-268,-229,-209
-146,-97,48,122,-97,-24,87,-165,-292,-278,-239,-204
-146,-97,48,122,-97,-24,87,-170,-312,-297,-253,-214
-151,-107,43,129,-97,-31,87,-165,-326,-312,-263,-219
-151,-107,43,129,-97,-31,87,-170,-346,-326,-273,-224
-156,-107,48,131,-102,-29,82,-175,-361,-336,-287,-229
-156,-102,53,129,-104,-24,82,-190,-385,-361,-302,-244
-161,-112,48,136,-104,-31,82,-195,-405,-380,-322,-253
-165,-117,48,141,-107,-34,82,-204,-434,-405,-341,-268
-165,-136,29,151,-97,-53,82,-214,-463,-434,-361,-283
-170,-146,24,158,-97,-61,82,-229,-502,-473,-395,-312
-175,-151,24,163,-100,-63,78,-244,-541,-507,-419,-326
-175,-165,9,170,-92,-78,68,-248,-580,-536,-448,-346
-175,-170,4,173,-90,-82,82,-258,-619,-570,-473,-356
-175,-190,-14,183,-80,-102,92,-258,-658,-605,-492,-370
-170,-195,-24,183,-73,-109,92,-268,-692,-644,-527,-405
-165,-209,-43,187,-61,-126,92,-278,-736,-678,-556,-419
-165,-219,-53,192,-56,-136,97,-278,-766,-712,-580,-434
-165,-234,-68,200,-48,-151,107,-273,-800,-746,-610,-448
-165,-248,-82,207,-41,-165,107,-278,-834,-780,-634,-468
-151,-263,-112,207,-19,-187,112,-268,-858,-800,-653,-478
-151,-278,-126,214,-12,-202,112,-258,-893,-839,-692,-502
-146,-297,-151,222,2,-224,112,-244,-902,-849,-707,-512
-146,-302,-156,224,4,-229,112,-229,-902,-849,-707,-517
-141,-312,-170,226,14,-241,117,-209,-897,-849,-707,-517
-131,-312,-180,222,24,-246,117,-185,-888,-849,-707,-507
-126,-312,-185,219,29,-248,112,-165,-868,-834,-688,-492
-117,-307,-190,212,36,-248,117,-141,-810,-790,-663,-468
-117,-283,-165,200,24,-224,117,-112,-751,-736,-619,-439
-117,-273,-156,195,19,-214,117,-82,-688,-688,-575,-414
-107,-248,-141,178,17,-195,107,-73,-624,-629,-527,-375
-107,-224,-117,165,4,-170,92,-53,-536,-556,-468,-331
-97,-204,-107,151,4,-156,73,-39,-453,-483,-419,-292
-87,-175,-87,131,0,-131,68,-29,-390,-419,-366,-258
-78,-156,-78,117,0,-117,58,-9,-317,-346,-317,-224
-73,-136,-63,104,-4,-100,48,-4,-258,-292,-263,-175
-63,-117,-53,90,-4,-85,43,4,-200,-239,-219,-146
-53,-97,-43,75,-4,-70,58,19,-161,-195,-185,-112
-48,-82,-34,65,-7,-58,68,19,-126,-161,-151,-82
-39,-68,-29,53,-4,-48,68,24,-78,-122,-117,-58
-39,-53,-14,46,-12,-34,68,29,-39,-82,-87,-39
-34,-43,-9,39,-12,-26,68,39,-14,-43,-63,0
-29,-39,-9,34,-9,-24,58,39,9,-14,-48,19
-34,-39,-4,36,-14,-21,58,43,24,4,-29,29
-29,-29,0,29,-14,-14,48,43,34,14,-14,34
-29,-29,0,29,-14,-14,34,43,48,24,0,39
-29,-24,4,26,-17,-9,24,43,58,34,0,39
-24,-14,9,19,-17,-2,19,39,63,29,4,43
-24,-14,9,19,-17,-2,19,39,68,34,9,53
-24,-19,4,21,-14,-7,14,39,73,39,14,58
-24,-19,4,21,-14,-7,9,39,73,39,14,58
-24,-19,4,21,-14,-7,0,39,68,39,14,58
-24,-19,4,21,-14,-7,-9,39,63,39,14,58
-24,-19,4,21,-14,-7,4,39,58,39,19,58
-24,-19,4,21,-14,-7,19,34,58,39,19,58
-24,-14,9,19,-17,-2,39,24,53,34,19,63
-24,-9,14,17,-19,2,58,19,48,39,19,63
-24,-24,0,24,-12,-12,48,14,43,34,14,58
-24,-24,0,24,-12,-12,34,9,43,34,14,53
-29,-24,4,26,-17,-9,29,9,39,29,0,39
-29,-24,4,26,-17,-9,24,4,43,24,-14,34
-29,-24,4,26,-17,-9,24,4,39,19,-4,34
-34,-29,4,31,-19,-12,29,-4,29,14,0,34
-34,-34,0,34,-17,-17,29,-4,24,4,-4,34
-43,-34,9,39,-26,-12,29,-4,24,0,-14,34
-43,-34,9,39,-26,-12,29,-14,19,0,-14,19
-43,-43,0,43,-21,-21,29,-19,14,0,-19,19
-43,-48,-4,46,-19,-26,29,-24,4,-9,-19,19
-43,-48,-4,46,-19,-26,29,-24,0,-14,-24,9
-43,-43,0,43,-21,-21,29,-29,-4,-14,-24,9
-48,-39,9,43,-29,-14,29,-34,-4,-14,-29,9
-48,-39,9,43,-29,-14,34,-34,-4,-14,-29,9
-53,-39,14,46,-34,-12,34,-34,-4,-14,-29,4
-48,-48,0,48,-24,-24,34,-29,-9,-14,-29,4
-43,-34,9,39,-26,-12,34,-29,-14,-19,-34,4
-43,-34,9,39,-26,-12,34,-29,-14,-19,-34,0
-43,-39,4,41,-24,-17,39,-24,-9,-19,-34,-4
-48,-43,4,46,-26,-19,39,-29,-4,-19,-34,-4
-53,-48,4,51,-29,-21,48,-34,-4,-19,-34,0
-53,-48,4,51,-29,-21,48,-34,-4,-19,-34,0
-48,-48,0,48,-24,-24,43,-34,-4,-19,-34,0
-43,-43,0,43,-21,-21,24,-34,-4,-19,-29,0
-39,-34,4,36,-21,-14,14,-24,0,-14,-29,0
-43,-34,9,39,-26,-12,19,-24,0,-9,-29,4
-43,-39,4,41,-24,-17,19,-19,4,-9,-29,9
-48,-39,9,43,-29,-14,24,-19,4,-9,-24,9
-53,-39,14,46,-34,-12,24,-19,9,-9,-24,9
-53,-34,19,43,-36,-7,24,-19,9,-4,-24,9
-48,-34,14,41,-31,-9,34,-14,9,-4,-19,14
-48,-34,14,41,-31,-9,53,-14,19,0,-19,19
-48,-29,19,39,-34,-4,68,-14,24,0,-19,19
-43,-29,14,36,-29,-7,68,-19,29,4,-14,19
-43,-24,19,34,-31,-2,63,-24,29,4,-14,19
-43,-19,24,31,-34,2,53,-19,34,4,-9,24
-43,-14,29,29,-36,7,39,-14,39,9,-4,24
-34,-14,19,24,-26,2,29,-4,39,14,-4,29
-29,-19,9,24,-19,-4,29,0,43,19,-4,29
-29,-19,9,24,-19,-4,29,4,43,19,-4,29
-29,-24,4,26,-17,-9,29,4,48,19,0,29
-29,-24,4,26,-17,-9,29,4,48,24,0,34
-29,-14,14,21,-21,0,29,0,48,24,0,34
-29,-19,9,24,-19,-4,29,0,48,24,4,34
-24,-24,0,24,-12,-12,19,0,48,29,4,34
-24,-24,0,24,-12,-12,14,0,48,29,9,39
-24,-19,4,21,-14,-7,14,0,48,29,14,39
-24,-19,4,21,-14,-7,24,0,53,29,14,39
-24,-19,4,21,-14,-7,34,0,53,29,14,34
-24,-9,14,17,-19,2,43,0,53,29,14,34
-24,-9,14,17,-19,2,48,4,53,29,19,39
-24,-9,14,17,-19,2,43,4,58,34,19,39
-24,-9,14,17,-19,2,34,4,63,34,19,43
-19,-4,14,12,-17,4,24,0,58,34,19,43
-19,-4,14,12,-17,4,19,0,58,39,19,43
-19,-4,14,12,-17,4,19,4,58,39,19,39
-19,-9,9,14,-14,0,19,9,58,39,19,39
-19,-9,9,14,-14,0,29,9,63,43,19,39
-19,-9,9,14,-14,0,39,9,68,48,19,39
-19,-4,14,12,-17,4,39,9,68,48,24,39
-19,0,19,9,-19,9,39,9,68,48,29,39
-19,0,19,9,-19,9,29,9,68,48,29,39
-19,0,19,9,-19,9,19,9,68,48,29,39
-19,-4,14,12,-17,4,19,9,68,48,29,39
-19,-9,9,14,-14,0,19,9,68,48,29,39
-19,-9,9,14,-14,0,24,9,68,48,29,39
-19,-9,9,14,-14,0,29,9,68,48,29,39
-19,-9,9,14,-14,0,29,9,68,48,29,39
-19,-9,9,14,-14,0,29,9,68,48,29,39
-19,-9,9,14,-14,0,29,9,68,48,29,39
-19,-9,9,14,-14,0,29,9,68,48,29,39
-19,-4,14,12,-17,4,39,9,68,48,29,39
-19,0,19,9,-19,9,48,9,68,48,29,39
-14,0,14,7,-14,7,39,9,68,48,29,39
-9,0,9,4,-9,4,29,9,68,48,29,39
-9,0,9,4,-9,4,29,9,68,48,29,39
-9,0,9,4,-9,4,29,9,68,48,29,39
-14,0,14,7,-14,7,29,9,68,48,29,39
-19,0,19,9,-19,9,29,9,68,48,29,39
-19,0,19,9,-19,9,29,9,68,48,29,39
-19,0,19,9,-19,9,29,9,68,48,29,39
-19,0,19,9,-19,9,14,9,68,48,29,39
-19,0,19,9,-19,9,0,9,68,48,29,39
-19,0,19,9,-19,9,9,9,68,48,29,39
-19,0,19,9,-19,9,19,9,68,48,29,39
-19,0,19,9,-19,9,24,9,68,43,29,39
-19,0,19,9,-19,9,29,9,68,39,29,39
-19,0,19,9,-19,9,29,4,68,39,24,34
-19,0,19,9,-19,9,29,0,68,39,19,29
-19,-4,14,12,-17,4,24,0,68,43,19,29
-19,-9,9,14,-14,0,19,0,68,48,19,29
-19,-9,9,14,-14,0,19,4,68,48,19,29
-19,-9,9,14,-14,0,19,9,68,48,19,29
-19,-4,14,12,-17,4,19,9,63,43,19,29
-19,0,19,9,-19,9,19,9,58,39,19,29
-19,0,19,9,-19,9,19,9,58,39,19,29
-19,0,19,9,-19,9,19,9,58,39,19,29
-19,-4,14,12,-17,4,19,9,58,39,19,29
-19,-9,9,14,-14,0,19,9,58,39,19,29
-19,-9,9,14,-14,0,24,4,58,39,19,29
-19,-9,9,14,-14,0,29,0,58,39,19,29
-19,-9,9,14,-14,0,29,0,58,39,19,24
-19,-9,9,14,-14,0,29,0,58,39,19,19
-19,-4,14,12,-17,4,24,0,58,39,19,19
-19,0,19,9,-19,9,19,0,58,39,19,19
-19,0,19,9,-19,9,14,0,58,39,19,19
-19,0,19,9,-19,9,9,0,58,39,19,19
-19,0,19,9,-19,9,-9,0,58,39,19,19
-19,0,19,9,-19,9,-29,0,58,39,19,19
-24,0,24,12,-24,12,-29,0,58,39,19,19
-29,0,29,14,-29,14,-29,0,58,39,19,19
-29,0,29,14,-29,14,14,0,53,34,19,14
-29,0,29,14,-29,14,58,0,48,29,19,9
-29,9,39,9,-34,24,68,0,48,29,19,9
-29,19,48,4,-39,34,78,0,48,29,19,9
-29,9,39,9,-34,24,58,0,48,29,19,14
-29,0,29,14,-29,14,39,0,48,29,19,19
-29,0,29,14,-29,14,39,-4,48,29,19,19
-29,0,29,14,-29,14,39,-9,48,29,19,19
-29,0,29,14,-29,14,39,-9,48,29,19,19
-29,0,29,14,-29,14,39,-9,48,29,19,19
-29,0,29,14,-29,14,29,0,53,29,19,19
-29,0,29,14,-29,14,19,9,58,29,19,19
-29,0,29,14,-29,14,19,9,58,34,19,19
-29,0,29,14,-29,14,19,9,58,39,19,19
-29,0,29,14,-29,14,0,9,53,39,19,19
-29,0,29,14,-29,14,-19,9,48,39,19,19
-34,0,34,17,-34,17,-9,9,48,39,19,19
-39,0,39,19,-39,19,0,9,48,39,19,19
-39,0,39,19,-39,19,39,4,48,39,19,19
-39,0,39,19,-39,19,78,0,48,39,19,19
-39,0,39,19,-39,19,63,0,48,39,19,19
-39,0,39,19,-39,19,48,0,48,39,19,19
-39,-4,34,21,-36,14,43,0,48,39,24,19
-39,-4,34,21,-36,14,39,0,48,39,24,19
-39,-4,34,21,-36,14,39,4,48,43,29,19
-43,0,43,21,-43,21,34,9,48,48,29,19
-43,0,43,21,-43,21,29,14,58,53,34,24
-39,4,43,17,-41,24,29,19,58,58,29,24
-29,9,39,9,-34,24,24,19,68,58,34,29
-19,24,43,-2,-31,34,24,24,73,53,39,34
-19,39,58,-9,-39,48,24,29,87,68,48,43
-14,63,78,-24,-46,70,19,29,97,73,58,48
-9,63,73,-26,-41,68,29,24,107,87,68,53
-4,68,73,-31,-39,70,39,24,117,97,68,63
0,73,73,-36,-36,73,48,29,122,97,78,68
