I,II,III,aVR,aVL,aVF,V1,V2,V3,V4,V5,V6,
-556,-185,370,370,-463,92,1093,712,546,-39,-244,-351
-566,-185,380,375,-473,97,1132,561,483,-58,-244,-336
-575,-185,390,380,-483,102,1171,409,419,-78,-244,-322
-600,-214,385,407,-492,85,1215,253,317,-136,-268,-346
-624,-244,380,434,-502,68,1259,97,214,-195,-292,-370
-658,-302,356,480,-507,26,1346,-29,43,-278,-336,-390
-692,-361,331,527,-512,-14,1434,-156,-126,-361,-380,-409
-658,-400,258,529,-458,-70,1371,-239,-258,-414,-414,-429
-624,-439,185,531,-405,-126,1307,-322,-390,-468,-448,-448
-478,-370,107,424,-292,-131,946,-283,-370,-400,-370,-366
-331,-302,29,317,-180,-136,585,-244,-351,-331,-292,-283
-209,-209,0,209,-104,-104,287,-180,-273,-244,-214,-214
-87,-117,-29,102,-29,-73,-9,-117,-195,-156,-136,-146
-68,-102,-34,85,-17,-68,-39,-117,-195,-151,-117,-136
-48,-87,-39,68,-4,-63,-68,-117,-195,-146,-97,-126
-43,-87,-43,65,0,-65,-78,-122,-200,-146,-107,-126
-39,-87,-48,63,4,-68,-87,-126,-204,-146,-117,-126
-39,-82,-43,61,2,-63,-97,-131,-209,-156,-122,-126
-39,-78,-39,58,0,-58,-107,-136,-214,-165,-126,-126
-39,-78,-39,58,0,-58,-117,-136,-219,-170,-126,-131
-39,-78,-39,58,0,-58,-126,-136,-224,-175,-126,-136
-39,-82,-43,61,2,-63,-131,-141,-229,-180,-136,-141
-39,-87,-48,63,4,-68,-136,-146,-234,-185,-146,-146
-39,-87,-48,63,4,-68,-146,-146,-244,-195,-156,-156
-39,-87,-48,63,4,-68,-156,-146,-253,-204,-165,-165
-39,-92,-53,65,7,-73,-156,-146,-263,-214,-180,-175
-39,-97,-58,68,9,-78,-156,-146,-273,-224,-195,-185
-43,-107,-63,75,9,-85,-156,-151,-287,-244,-209,-195
-48,-117,-68,82,9,-92,-156,-156,-302,-263,-224,-204
-53,-122,-68,87,7,-95,-161,-161,-322,-287,-244,-224
-58,-126,-68,92,4,-97,-165,-165,-341,-312,-263,-244
-58,-131,-73,95,7,-102,-170,-175,-366,-341,-292,-268
-58,-136,-78,97,9,-107,-175,-185,-390,-370,-322,-292
-68,-151,-82,109,7,-117,-175,-195,-414,-405,-356,-322
-78,-165,-87,122,4,-126,-175,-204,-439,-439,-390,-351
-92,-175,-82,134,-4,-129,-180,-214,-473,-473,-429,-380
-107,-185,-78,146,-14,-131,-185,-224,-507,-507,-468,-409
-107,-200,-92,153,-7,-146,-185,-234,-536,-551,-502,-444
-107,-214,-107,161,0,-161,-185,-244,-566,-595,-536,-478
-112,-224,-112,168,0,-168,-185,-253,-600,-634,-575,-507
-117,-234,-117,175,0,-175,-185,-263,-634,-673,-614,-536
-126,-244,-117,185,-4,-180,-185,-273,-658,-707,-649,-561
-136,-253,-117,195,-9,-185,-185,-283,-683,-741,-683,-585
-141,-263,-122,202,-9,-192,-185,-297,-702,-766,-707,-610
-146,-273,-126,209,-9,-200,-185,-312,-722,-790,-732,-634
-146,-273,-126,209,-9,-200,-185,-312,-736,-810,-751,-649
-146,-273,-126,209,-9,-200,-185,-312,-751,-829,-771,-663
-146,-273,-126,209,-9,-200,-185,-307,-751,-829,-771,-663
-146,-273,-126,209,-9,-200,-185,-302,-751,-829,-771,-663
-136,-263,-126,200,-4,-195,-185,-287,-727,-810,-756,-649
-126,-253,-126,190,0,-190,-185,-273,-702,-790,-741,-634
-107,-239,-131,173,12,-185,-185,-244,-668,-751,-707,-605
-87,-224,-136,156,24,-180,-185,-214,-634,-712,-673,-575
-73,-204,-131,139,29,-168,-175,-180,-575,-653,-619,-536
-58,-185,-126,122,34,-156,-165,-146,-517,-595,-566,-497
-34,-165,-131,100,48,-148,-165,-112,-463,-527,-507,-444
-9,-146,-136,78,63,-141,-165,-78,-409,-458,-448,-390
0,-122,-122,61,61,-122,-156,-48,-346,-395,-390,-341
9,-97,-107,43,58,-102,-146,-19,-283,-331,-331,-292
19,-82,-102,31,61,-92,-136,4,-234,-273,-278,-248
29,-68,-97,19,63,-82,-126,29,-185,-214,-224,-204
39,-53,-92,7,65,-73,-122,34,-146,-170,-185,-170
48,-39,-87,-4,68,-63,-117,39,-107,-126,-146,-136
48,-24,-73,-12,61,-48,-112,39,-78,-87,-107,-102
48,-9,-58,-19,53,-34,-107,39,-48,-48,-68,-68
48,0,-48,-24,48,-24,-102,34,-34,-29,-48,-48
48,9,-39,-29,43,-14,-97,29,-19,-9,-29,-29
48,14,-34,-31,41,-9,-92,14,-14,4,-4,-9
48,19,-29,-34,39,-4,-87,0,-9,19,19,9
48,19,-29,-34,39,-4,-82,-9,-4,29,24,14
48,19,-29,-34,39,-4,-78,-19,0,39,29,19
43,19,-24,-31,34,-2,-78,-29,0,39,34,29
39,19,-19,-29,29,0,-78,-39,0,39,39,39
39,19,-19,-29,29,0,-82,-43,0,39,43,39
39,19,-19,-29,29,0,-87,-48,0,39,48,39
39,19,-19,-29,29,0,-87,-48,4,43,48,39
39,19,-19,-29,29,0,-87,-48,9,48,48,39
34,19,-14,-26,24,2,-82,-53,9,53,53,48
29,19,-9,-24,19,4,-78,-58,9,58,58,58
29,19,-9,-24,19,4,-78,-58,9,58,58,58
29,19,-9,-24,19,4,-78,-58,9,58,58,58
29,19,-9,-24,19,4,-78,-58,9,58,58,58
29,19,-9,-24,19,4,-78,-58,9,58,58,58
34,19,-14,-26,24,2,-78,-58,9,58,58,58
39,19,-19,-29,29,0,-78,-58,9,58,58,58
39,19,-19,-29,29,0,-78,-58,9,58,58,58
39,19,-19,-29,29,0,-78,-58,9,58,58,58
34,14,-19,-24,26,-2,-78,-58,9,58,58,58
29,9,-19,-19,24,-4,-78,-58,9,58,58,58
29,9,-19,-19,24,-4,-78,-58,9,58,58,53
29,9,-19,-19,24,-4,-78,-58,9,58,58,48
24,9,-14,-17,19,-2,-73,-58,4,53,53,48
19,9,-9,-14,14,0,-68,-58,0,48,48,48
19,9,-9,-14,14,0,-68,-58,0,48,48,48
19,9,-9,-14,14,0,-68,-58,0,48,48,48
19,9,-9,-14,14,0,-68,-58,0,39,43,43
19,9,-9,-14,14,0,-68,-58,0,29,39,39
14,9,-4,-12,9,2,-68,-58,0,29,39,39
9,9,0,-9,4,4,-68,-58,0,29,39,39
9,4,-4,-7,7,0,-68,-58,-4,29,39,39
9,0,-9,-4,9,-4,-68,-58,-9,29,39,39
9,0,-9,-4,9,-4,-68,-58,-9,29,34,34
9,0,-9,-4,9,-4,-68,-58,-9,29,29,29
9,4,-4,-7,7,0,-68,-58,-9,24,24,24
9,9,0,-9,4,4,-68,-58,-9,19,19,19
9,9,0,-9,4,4,-68,-58,-9,14,19,19
9,9,0,-9,4,4,-68,-58,-9,9,19,19
9,9,0,-9,4,4,-68,-58,-14,9,14,19
9,9,0,-9,4,4,-68,-58,-19,9,9,19
9,4,-4,-7,7,0,-68,-58,-24,9,9,19
9,0,-9,-4,9,-4,-68,-58,-29,9,9,19
9,0,-9,-4,9,-4,-68,-63,-29,4,9,14
9,0,-9,-4,9,-4,-68,-68,-29,0,9,9
9,0,-9,-4,9,-4,-68,-68,-29,0,9,9
9,0,-9,-4,9,-4,-68,-68,-29,0,9,9
9,0,-9,-4,9,-4,-68,-68,-29,0,9,9
9,0,-9,-4,9,-4,-68,-68,-29,0,9,9
14,4,-9,-9,12,-2,-58,-63,-29,0,9,14
19,9,-9,-14,14,0,-48,-58,-29,0,9,19
19,24,4,-21,7,14,-43,-53,-19,9,14,24
19,39,19,-29,0,29,-39,-48,-9,19,19,29
19,48,29,-34,-4,39,-34,-43,-9,24,24,29
19,58,39,-39,-9,48,-29,-39,-9,29,29,29
24,58,34,-41,-4,46,-19,-39,0,29,29,34
29,58,29,-43,0,43,-9,-39,9,29,29,39
43,78,34,-61,4,56,-24,-29,19,39,39,53
58,97,39,-78,9,68,-39,-19,29,48,48,68
78,107,29,-92,24,68,-97,-39,29,53,63,78
97,117,19,-107,39,68,-156,-58,29,58,78,87
97,117,19,-107,39,68,-170,-78,24,53,78,87
97,117,19,-107,39,68,-185,-97,9,43,73,82
102,122,19,-112,41,70,-204,-117,-4,34,68,82
112,136,24,-124,43,80,-219,-122,-14,29,63,82
122,146,24,-134,48,85,-224,-131,-14,34,58,82
122,156,34,-139,43,95,-224,-131,-14,34,53,97
126,165,39,-146,43,102,-214,-126,-14,39,63,97
141,170,29,-156,56,100,-204,-112,-4,43,73,102
156,156,0,-156,78,78,-190,-92,0,58,92,112
161,141,-19,-151,90,61,-180,-78,0,58,102,112
146,136,-9,-141,78,63,-165,-68,0,73,97,117
131,112,-19,-122,75,46,-161,-82,-24,58,73,102
102,78,-24,-90,63,26,-151,-97,-48,9,43,68
82,58,-24,-70,53,17,-141,-102,-53,-4,29,63
58,34,-24,-46,41,4,-131,-112,-58,-9,19,58
34,14,-19,-24,26,-2,-122,-112,-63,-14,19,48
14,-4,-19,-4,17,-12,-112,-112,-68,-19,4,34
4,-19,-24,7,14,-21,-107,-112,-87,-39,-24,14
0,-39,-39,19,19,-39,-97,-112,-97,-53,-39,0
0,-48,-48,24,24,-48,-87,-112,-102,-58,-39,-4
0,-48,-48,24,24,-48,-87,-112,-107,-58,-39,-4
-4,-48,-43,26,19,-46,-87,-112,-112,-58,-39,-4
-4,-53,-48,29,21,-51,-87,-112,-112,-63,-39,-9
-4,-58,-53,31,24,-56,-82,-107,-112,-63,-39,-14
-4,-63,-58,34,26,-61,-78,-102,-112,-63,-39,-14
-9,-68,-58,39,24,-63,-73,-102,-112,-63,-39,-14
-14,-73,-58,43,21,-65,-73,-97,-107,-63,-39,-14
-14,-78,-63,46,24,-70,-68,-97,-107,-63,-43,-14
-19,-82,-63,51,21,-73,-68,-97,-102,-63,-43,-14
-19,-82,-63,51,21,-73,-63,-97,-97,-63,-43,-14
-24,-78,-53,51,14,-65,-63,-92,-92,-63,-39,-14
-24,-73,-48,48,12,-61,-63,-92,-92,-63,-39,-14
-19,-73,-53,46,17,-63,-63,-92,-92,-63,-39,-14
-14,-73,-58,43,21,-65,-63,-92,-92,-58,-39,-14
-14,-78,-63,46,24,-70,-68,-92,-92,-58,-39,-14
-14,-78,-63,46,24,-70,-68,-92,-92,-58,-34,-14
-19,-78,-58,48,19,-68,-68,-97,-112,-73,-48,-19
-24,-68,-43,46,9,-56,-63,-97,-107,-68,-43,-19
-29,-53,-24,41,-2,-39,-43,-78,-63,-29,-14,0
-9,-19,-9,14,0,-14,-14,24,63,73,73,58
24,39,14,-31,4,26,-14,136,244,273,239,185
53,73,19,-63,17,46,-14,195,351,414,356,283
107,97,-9,-102,58,43,-9,268,424,517,468,366
151,146,-4,-148,78,70,9,375,541,649,590,473
185,229,43,-207,70,136,9,429,658,766,702,590
268,273,4,-270,131,139,-14,468,712,819,775,678
385,346,-39,-366,212,153,-29,585,795,888,849,756
492,507,14,-500,239,261,-73,678,922,1010,990,888
629,712,82,-671,273,397,-195,692,1049,1229,1249,1146
732,810,78,-771,326,444,-224,854,1390,1703,1727,1581
766,888,122,-827,322,505,-234,902,1800,2215,2215,1991
790,883,92,-836,348,488,-278,771,1883,2347,2352,2137
810,756,-53,-783,431,351,-287,644,1742,2166,2161,2039
829,702,-126,-766,478,287,-317,517,1654,2098,2108,2069
951,649,-302,-800,627,173,-419,326,1322,1869,2044,2200
824,546,-278,-685,551,134,-336,244,1117,1556,1771,1981
141,317,175,-229,-17,246,151,400,1132,1088,995,971
-361,122,483,119,-422,302,531,605,1141,688,326,126
-473,24,497,224,-485,261,683,727,1049,395,-9,-195
-463,-29,434,246,-448,202,736,819,932,273,-102,-283
-448,-107,341,278,-395,117,766,854,751,141,-146,-287
-453,-175,278,314,-366,51,824,834,619,29,-224,-317
-497,-219,278,358,-387,29,927,795,517,-117,-346,-409
-507,-229,278,368,-392,24,1000,741,468,-170,-390,-439
-522,-219,302,370,-412,41,1063,717,492,-126,-322,-370
-541,-219,322,380,-431,51,1102,566,429,-141,-312,-346
-561,-209,351,385,-456,70,1132,336,336,-180,-336,-361
-610,-239,370,424,-490,65,1200,136,244,-239,-375,-395
-629,-292,336,461,-483,21,1210,24,131,-292,-385,-400
-663,-346,317,505,-490,-14,1293,-122,-29,-370,-419,-424
-712,-429,283,570,-497,-73,1512,-273,-204,-463,-483,-463
-717,-478,239,597,-478,-119,1527,-385,-366,-531,-536,-492
-683,-522,161,602,-422,-180,1449,-385,-448,-570,-556,-502
-556,-488,68,522,-312,-209,1151,-351,-463,-527,-497,-439
-317,-331,-14,324,-151,-173,556,-234,-370,-380,-351,-297
-156,-209,-53,183,-51,-131,161,-146,-287,-273,-244,-200
-107,-151,-43,129,-31,-97,14,-117,-224,-219,-200,-165
-78,-122,-43,100,-17,-82,-53,-97,-200,-200,-175,-151
-53,-117,-63,85,4,-90,-73,-97,-209,-195,-161,-136
-48,-117,-68,82,9,-92,-78,-107,-219,-195,-156,-131
-53,-117,-63,85,4,-90,-87,-112,-224,-204,-170,-151
-53,-117,-63,85,4,-90,-97,-112,-229,-209,-170,-151
-43,-117,-73,80,14,-95,-107,-112,-229,-204,-175,-146
-43,-117,-73,80,14,-95,-117,-112,-239,-204,-175,-146
-43,-122,-78,82,17,-100,-126,-112,-248,-214,-185,-151
-43,-126,-82,85,19,-104,-131,-112,-253,-224,-195,-156
-43,-131,-87,87,21,-109,-136,-112,-258,-229,-204,-156
-43,-131,-87,87,21,-109,-136,-117,-268,-239,-214,-161
-43,-131,-87,87,21,-109,-146,-117,-283,-248,-214,-175
-43,-136,-92,90,24,-114,-146,-117,-292,-258,-229,-185
-43,-136,-92,90,24,-114,-151,-126,-302,-278,-244,-200
-48,-146,-97,97,24,-122,-156,-126,-312,-292,-258,-209
-43,-156,-112,100,34,-134,-156,-136,-322,-302,-273,-229
-48,-161,-112,104,31,-136,-161,-141,-346,-322,-297,-248
-53,-165,-112,109,29,-139,-165,-146,-366,-356,-326,-273
-58,-175,-117,117,29,-146,-165,-151,-380,-385,-356,-292
-63,-180,-117,122,26,-148,-170,-156,-414,-409,-375,-312
-63,-185,-122,124,29,-153,-170,-161,-444,-444,-400,-341
-73,-195,-122,134,24,-158,-170,-170,-468,-483,-439,-366
-78,-209,-131,143,26,-170,-175,-180,-497,-517,-478,-395
-87,-219,-131,153,21,-175,-180,-185,-531,-561,-517,-424
-92,-229,-136,161,21,-183,-185,-200,-561,-595,-556,-458
-97,-244,-146,170,24,-195,-190,-214,-595,-634,-600,-483
-102,-253,-151,178,24,-202,-190,-224,-624,-673,-639,-522
-107,-258,-151,183,21,-204,-190,-239,-653,-712,-668,-551
-112,-268,-156,190,21,-212,-190,-248,-688,-756,-697,-575
-122,-278,-156,200,17,-217,-195,-258,-712,-785,-736,-605
-126,-287,-161,207,17,-224,-195,-268,-732,-814,-771,-624
-131,-292,-161,212,14,-226,-195,-278,-751,-834,-790,-649
-131,-302,-170,217,19,-236,-195,-278,-766,-849,-810,-668
-136,-302,-165,219,14,-234,-190,-278,-780,-868,-829,-678
-136,-302,-165,219,14,-234,-190,-273,-785,-873,-834,-678
-131,-302,-170,217,19,-236,-190,-268,-775,-878,-829,-678
-122,-292,-170,207,24,-231,-190,-253,-756,-854,-810,-668
-112,-287,-175,200,31,-231,-185,-229,-732,-824,-785,-644
-92,-278,-185,185,46,-231,-185,-204,-692,-785,-756,-610
-78,-263,-185,170,53,-224,-180,-175,-658,-746,-717,-580
-63,-239,-175,151,56,-207,-175,-146,-605,-692,-668,-541
-39,-209,-170,124,65,-190,-170,-112,-541,-614,-610,-497
-14,-185,-170,100,78,-178,-165,-73,-478,-551,-551,-444
4,-161,-165,78,85,-163,-156,-34,-419,-488,-483,-395
14,-136,-151,61,82,-143,-146,-4,-361,-414,-419,-341
24,-112,-136,43,80,-124,-146,14,-297,-346,-356,-297
34,-92,-126,29,80,-109,-136,34,-244,-287,-297,-248
39,-78,-117,19,78,-97,-126,48,-195,-234,-253,-209
43,-63,-107,9,75,-85,-117,63,-151,-185,-204,-165
48,-53,-102,2,75,-78,-107,63,-112,-131,-161,-122
48,-43,-92,-2,70,-68,-107,63,-87,-92,-122,-78
48,-34,-82,-7,65,-58,-92,53,-68,-73,-92,-58
48,-24,-73,-12,61,-48,-87,48,-48,-53,-68,-39
53,-9,-63,-21,58,-36,-87,39,-34,-29,-43,-19
58,-4,-63,-26,61,-34,-82,29,-24,-9,-19,-4
53,0,-53,-26,53,-26,-78,14,-19,-4,-14,4
48,0,-48,-24,48,-24,-78,4,-14,4,-4,14
43,0,-43,-21,43,-21,-82,-4,-9,19,4,34
39,14,-24,-26,31,-4,-87,-14,-9,24,19,43
39,14,-24,-26,31,-4,-87,-24,-9,24,24,43
34,14,-19,-24,26,-2,-87,-34,-9,24,24,48
34,14,-19,-24,26,-2,-82,-34,-9,29,29,48
34,14,-19,-24,26,-2,-78,-34,-14,34,34,58
34,9,-24,-21,29,-7,-78,-43,-14,39,34,58
34,9,-24,-21,29,-7,-78,-48,-14,39,34,58
34,9,-24,-21,29,-7,-82,-48,-9,39,34,58
39,14,-24,-26,31,-4,-87,-48,-4,34,43,63
39,14,-24,-26,31,-4,-87,-48,-4,34,43,63
39,14,-24,-26,31,-4,-87,-48,-4,34,43,63
39,9,-29,-24,34,-9,-82,-48,-4,34,48,63
39,9,-29,-24,34,-9,-78,-48,-4,34,48,63
34,14,-19,-24,26,-2,-78,-48,-9,34,48,63
29,14,-14,-21,21,0,-78,-48,-14,34,48,63
29,9,-19,-19,24,-4,-78,-48,-14,34,43,63
29,4,-24,-17,26,-9,-78,-53,-14,34,39,63
24,4,-19,-14,21,-7,-73,-53,-19,34,39,58
24,4,-19,-14,21,-7,-73,-53,-19,29,39,58
24,4,-19,-14,21,-7,-73,-53,-14,29,43,58
19,4,-14,-12,17,-4,-73,-53,-14,29,43,58
19,9,-9,-14,14,0,-73,-48,-14,29,43,58
24,14,-9,-19,17,2,-73,-48,-9,29,39,53
24,9,-14,-17,19,-2,-73,-48,-9,29,39,53
19,9,-9,-14,14,0,-73,-48,-9,24,34,53
14,9,-4,-12,9,2,-73,-48,-9,24,34,53
14,9,-4,-12,9,2,-73,-48,-9,19,29,48
14,9,-4,-12,9,2,-68,-48,-14,19,29,48
9,9,0,-9,4,4,-68,-48,-14,14,29,48
14,9,-4,-12,9,2,-68,-48,-19,14,29,39
19,9,-9,-14,14,0,-68,-53,-19,9,29,29
19,4,-14,-12,17,-4,-68,-53,-19,9,24,29
19,4,-14,-12,17,-4,-63,-53,-19,4,19,29
14,4,-9,-9,12,-2,-63,-53,-19,4,19,29
14,4,-9,-9,12,-2,-63,-53,-19,4,19,29
14,0,-14,-7,14,-7,-63,-53,-19,4,19,19
14,0,-14,-7,14,-7,-63,-53,-24,4,19,19
14,4,-9,-9,12,-2,-63,-53,-24,4,14,19
14,9,-4,-12,9,2,-63,-53,-24,4,14,19
14,0,-14,-7,14,-7,-63,-53,-24,4,14,19
14,-4,-19,-4,17,-12,-63,-53,-29,4,14,19
14,-4,-19,-4,17,-12,-58,-53,-34,0,14,14
14,-4,-19,-4,17,-12,-58,-53,-34,-4,14,14
14,-4,-19,-4,17,-12,-58,-53,-34,-4,9,14
14,0,-14,-7,14,-7,-53,-53,-39,0,9,14
14,0,-14,-7,14,-7,-53,-53,-39,0,9,14
19,4,-14,-12,17,-4,-53,-53,-39,0,9,14
19,9,-9,-14,14,0,-53,-43,-34,4,14,14
24,19,-4,-21,14,7,-53,-39,-29,9,24,19
29,19,-9,-24,19,4,-53,-34,-24,19,24,29
24,39,14,-31,4,26,-39,-34,-9,24,34,34
24,48,24,-36,0,36,-29,-29,-4,29,34,39
19,58,39,-39,-9,48,-14,-29,-4,39,39,43
29,73,43,-51,-7,58,-9,-24,4,48,43,53
43,92,48,-68,-2,70,-9,-24,14,58,53,63
63,107,43,-85,9,75,-34,-19,19,68,63,73
87,126,39,-107,24,82,-58,-19,29,78,78,87
97,131,34,-114,31,82,-112,-43,29,78,78,87
107,136,29,-122,39,82,-165,-68,29,78,78,87
107,136,29,-122,39,82,-180,-82,19,68,78,87
107,136,29,-122,39,82,-195,-97,4,58,73,87
112,136,24,-124,43,80,-209,-112,-9,48,73,87
122,146,24,-134,48,85,-219,-112,-14,48,73,92
131,156,24,-143,53,90,-219,-122,-14,53,78,92
131,165,34,-148,48,100,-214,-122,-14,53,82,107
136,165,29,-151,53,97,-204,-117,-14,58,92,107
151,161,9,-156,70,85,-195,-102,-4,63,102,112
161,146,-14,-153,87,65,-180,-82,0,78,107,122
161,131,-29,-146,95,51,-170,-68,0,78,102,122
146,126,-19,-136,82,53,-156,-58,-4,73,97,122
131,102,-29,-117,80,36,-151,-73,-34,39,73,102
102,73,-29,-87,65,21,-141,-87,-58,4,48,58
82,58,-24,-70,53,17,-131,-92,-63,4,39,43
58,34,-24,-46,41,4,-122,-102,-68,0,29,48
34,14,-19,-24,26,-2,-112,-102,-73,-4,29,48
14,0,-14,-7,14,-7,-102,-102,-68,-4,24,39
4,-9,-14,2,9,-12,-97,-102,-78,-19,4,24
0,-29,-29,14,14,-29,-92,-102,-87,-34,-9,9
0,-39,-39,19,19,-39,-87,-102,-92,-39,-9,4
0,-39,-39,19,19,-39,-87,-102,-92,-39,-9,4
-4,-39,-34,21,14,-36,-87,-102,-92,-39,-9,4
-4,-43,-39,24,17,-41,-87,-102,-92,-43,-9,4
-4,-48,-43,26,19,-46,-82,-97,-92,-43,-9,4
0,-48,-48,24,24,-48,-78,-92,-92,-43,-9,4
0,-48,-48,24,24,-48,-73,-92,-92,-43,-9,4
-4,-48,-43,26,19,-46,-73,-87,-87,-39,-9,4
-4,-48,-43,26,19,-46,-68,-87,-87,-34,-14,4
-9,-58,-48,34,19,-53,-68,-87,-87,-34,-14,4
-9,-63,-53,36,21,-58,-63,-87,-87,-34,-14,4
-14,-63,-48,39,17,-56,-63,-82,-82,-34,-9,4
-14,-63,-48,39,17,-56,-63,-82,-82,-34,-9,4
-14,-63,-48,39,17,-56,-63,-87,-82,-34,-9,4
-14,-63,-48,39,17,-56,-63,-92,-82,-29,-9,4
-19,-63,-43,41,12,-53,-63,-92,-82,-29,-14,4
-24,-58,-34,41,4,-46,-58,-92,-82,-29,-14,4
-24,-53,-29,39,2,-41,-58,-87,-87,-34,-14,9
-24,-39,-14,31,-4,-26,-53,-78,-68,-19,4,19
-19,-9,9,14,-14,0,-39,-34,4,58,58,53
9,39,29,-24,-9,34,-14,92,161,200,170,126
48,97,48,-73,0,73,-14,190,322,385,336,253
82,131,48,-107,17,90,-14,234,409,512,453,351
136,165,29,-151,53,97,-14,317,497,614,566,434
180,224,43,-202,68,134,0,434,629,746,688,541
239,307,68,-273,85,187,-9,488,732,854,795,653
346,351,4,-348,170,178,-43,527,771,897,863,736
463,439,-24,-451,244,207,-68,649,873,995,961,849
570,614,43,-592,263,329,-122,746,1019,1146,1127,1015
702,775,73,-739,314,424,-219,771,1185,1405,1405,1273
800,829,29,-814,385,429,-224,941,1566,1917,1903,1708
819,897,78,-858,370,488,-239,912,1869,2293,2264,2025
829,883,53,-856,387,468,-287,702,1844,2288,2274,2078
849,756,-92,-802,470,331,-302,566,1668,2083,2078,1981
868,702,-165,-785,517,268,-336,429,1546,1991,2020,2010
868,624,-244,-746,556,190,-346,302,1278,1722,1849,1966
619,497,-122,-558,370,187,-170,283,1137,1371,1468,1571
-9,292,302,-141,-156,297,283,439,1141,961,790,692
-458,122,580,168,-519,351,629,644,1141,619,219,-19
-527,29,556,248,-541,292,751,741,1024,361,-43,-253
-473,-19,453,246,-463,217,775,810,883,273,-63,-253
-473,-87,385,280,-429,148,824,819,717,136,-126,-278
-492,-146,346,319,-419,100,902,775,600,19,-224,-326
-541,-185,356,363,-448,85,995,727,517,-87,-302,-390
-556,-190,366,373,-461,87,1058,663,488,-102,-302,-390
-566,-180,385,373,-475,102,1117,600,488,-78,-253,-336
-580,-180,400,380,-490,109,1151,409,400,-112,-263,-326
-600,-185,414,392,-507,114,1180,204,297,-161,-292,-346
-649,-229,419,439,-534,95,1249,29,195,-229,-336,-385
-663,-287,375,475,-519,43,1283,-73,68,-287,-356,-390
-692,-346,346,519,-519,0,1390,-209,-107,-370,-400,-414
-707,-414,292,561,-500,-61,1512,-317,-258,-448,-453,-444
-678,-448,229,563,-453,-109,1429,-385,-395,-502,-497,-463
-610,-448,161,529,-385,-143,1254,-361,-434,-502,-473,-439
-448,-370,78,409,-263,-146,858,-302,-405,-419,-370,-341
-239,-239,0,239,-119,-119,351,-200,-312,-292,-248,-229
-107,-141,-34,124,-36,-87,43,-126,-229,-204,-165,-161
-78,-102,-24,90,-26,-63,-43,-112,-190,-165,-136,-131
-68,-92,-24,80,-21,-58,-53,-107,-190,-161,-126,-122
-43,-87,-43,65,0,-65,-73,-107,-200,-156,-117,-112
-39,-87,-48,63,4,-68,-78,-117,-209,-156,-117,-112
-43,-87,-43,65,0,-65,-87,-122,-214,-165,-131,-131
-43,-87,-43,65,0,-65,-97,-122,-219,-170,-131,-131
-34,-82,-48,58,7,-65,-107,-122,-219,-170,-136,-126
-34,-78,-43,56,4,-61,-117,-122,-229,-175,-136,-126
-34,-78,-43,56,4,-61,-126,-122,-239,-185,-146,-131
-34,-78,-43,56,4,-61,-131,-122,-244,-195,-156,-136
-34,-82,-48,58,7,-65,-141,-122,-248,-200,-165,-136
-34,-82,-48,58,7,-65,-146,-126,-258,-209,-175,-141
-34,-87,-53,61,9,-70,-156,-126,-273,-219,-180,-156
-34,-97,-63,65,14,-80,-156,-126,-283,-229,-200,-165
-34,-97,-63,65,14,-80,-161,-136,-292,-248,-214,-180
-39,-107,-68,73,14,-87,-165,-136,-302,-263,-229,-190
-39,-117,-78,78,19,-97,-165,-146,-312,-278,-239,-209
-48,-122,-73,85,12,-97,-170,-151,-336,-302,-258,-229
-53,-126,-73,90,9,-100,-175,-156,-356,-336,-287,-248
-58,-136,-78,97,9,-107,-175,-161,-370,-366,-317,-263
-63,-146,-82,104,9,-114,-180,-170,-405,-390,-341,-283
-63,-156,-92,109,14,-124,-180,-180,-434,-424,-370,-312
-73,-165,-92,119,9,-129,-180,-190,-458,-458,-405,-336
-78,-180,-102,129,12,-141,-185,-200,-488,-488,-439,-366
-87,-190,-102,139,7,-146,-185,-204,-522,-531,-473,-395
-92,-200,-107,146,7,-153,-185,-219,-551,-566,-507,-429
-102,-214,-112,158,4,-163,-190,-229,-585,-605,-551,-448
-112,-224,-112,168,0,-168,-190,-234,-614,-644,-590,-483
-117,-229,-112,173,-2,-170,-190,-248,-639,-678,-619,-517
-122,-239,-117,180,-2,-178,-190,-258,-668,-717,-649,-546
-126,-248,-122,187,-2,-185,-195,-268,-692,-746,-683,-575
-126,-258,-131,192,2,-195,-195,-278,-712,-775,-712,-595
-131,-258,-126,195,-2,-192,-195,-287,-732,-795,-732,-614
-131,-263,-131,197,0,-197,-195,-287,-746,-810,-751,-629
-131,-263,-131,197,0,-197,-190,-287,-756,-824,-766,-639
-126,-263,-136,195,4,-200,-190,-283,-756,-824,-766,-639
-122,-263,-141,192,9,-202,-190,-278,-741,-824,-761,-634
-112,-253,-141,183,14,-197,-190,-263,-717,-795,-741,-619
-102,-239,-136,170,17,-187,-185,-239,-692,-766,-717,-600
-82,-219,-136,151,26,-178,-185,-214,-653,-727,-688,-570
-68,-204,-136,136,34,-170,-180,-185,-614,-683,-644,-536
-53,-180,-126,117,36,-153,-175,-156,-556,-624,-590,-492
-34,-156,-122,95,43,-139,-170,-122,-497,-546,-536,-448
-14,-136,-122,75,53,-129,-165,-82,-439,-483,-483,-395
4,-122,-126,58,65,-124,-156,-43,-380,-424,-419,-346
14,-107,-122,46,68,-114,-146,-14,-322,-356,-361,-292
24,-82,-107,29,65,-95,-146,4,-263,-287,-297,-248
34,-63,-97,14,65,-80,-136,24,-214,-229,-239,-200
43,-48,-92,2,68,-70,-131,39,-170,-180,-200,-165
53,-34,-87,-9,70,-61,-126,53,-131,-136,-156,-126
58,-19,-78,-19,68,-48,-117,53,-92,-87,-117,-92
58,-4,-63,-26,61,-34,-117,53,-68,-53,-82,-58
63,4,-58,-34,61,-26,-102,43,-48,-34,-53,-39
68,14,-53,-41,61,-19,-97,39,-29,-14,-29,-19
68,24,-43,-46,56,-9,-97,29,-19,9,-9,0
68,24,-43,-46,56,-9,-92,19,-14,29,9,14
58,29,-29,-43,43,0,-87,4,-9,34,14,24
48,29,-19,-39,34,4,-87,-4,-4,43,24,34
48,24,-24,-36,36,0,-87,-14,0,58,34,48
48,34,-14,-41,31,9,-87,-24,0,63,48,53
48,34,-14,-41,31,9,-87,-34,0,63,53,53
43,34,-9,-39,26,12,-87,-43,0,63,53,58
43,34,-9,-39,26,12,-87,-48,0,63,58,58
43,34,-9,-39,26,12,-87,-53,-4,63,63,68
43,29,-14,-36,29,7,-87,-58,-4,68,63,68
43,29,-14,-36,29,7,-87,-58,-4,68,63,68
39,29,-9,-34,24,9,-87,-58,0,73,63,68
39,34,-4,-36,21,14,-87,-58,4,73,73,73
39,34,-4,-36,21,14,-87,-53,4,73,73,73
39,34,-4,-36,21,14,-87,-48,4,73,73,73
39,29,-9,-34,24,9,-87,-48,4,73,73,73
39,29,-9,-34,24,9,-87,-48,4,73,68,73
39,34,-4,-36,21,14,-87,-48,4,78,68,73
39,34,-4,-36,21,14,-87,-48,4,82,68,73
39,29,-9,-34,24,9,-87,-48,4,82,68,73
39,24,-14,-31,26,4,-87,-53,4,82,68,73
34,24,-9,-29,21,7,-82,-53,0,82,68,68
34,24,-9,-29,21,7,-82,-53,0,78,68,68
34,29,-4,-31,19,12,-82,-53,4,78,73,68
29,34,4,-31,12,19,-82,-53,4,78,73,68
29,34,4,-31,12,19,-82,-48,0,78,73,68
34,34,0,-34,17,17,-82,-48,0,78,68,63
34,29,-4,-31,19,12,-82,-48,0,78,68,63
29,29,0,-29,14,14,-82,-48,0,73,63,63
24,29,4,-26,9,17,-82,-48,0,73,63,63
24,29,4,-26,9,17,-82,-48,0,68,58,58
24,29,4,-26,9,17,-78,-48,-4,68,58,58
19,29,9,-24,4,19,-78,-48,-4,63,58,58
19,29,9,-24,4,19,-78,-48,-9,63,58,53
19,29,9,-24,4,19,-78,-53,-9,58,58,48
19,24,4,-21,7,14,-78,-53,-9,58,53,48
19,24,4,-21,7,14,-73,-53,-9,53,48,48
14,24,9,-19,2,17,-73,-53,-9,53,48,48
14,24,9,-19,2,17,-73,-53,-9,53,48,48
9,19,9,-14,0,14,-73,-53,-9,48,48,39
4,19,14,-12,-4,17,-73,-53,-14,43,48,39
4,14,9,-9,-2,12,-73,-53,-14,43,43,39
4,9,4,-7,0,7,-73,-53,-14,43,43,39
4,4,0,-4,2,2,-73,-53,-14,43,43,39
4,4,0,-4,2,2,-73,-53,-19,43,43,39
4,4,0,-4,2,2,-68,-53,-24,39,43,34
4,4,0,-4,2,2,-68,-53,-24,34,43,34
4,4,0,-4,2,2,-68,-53,-24,34,39,34
4,9,4,-7,0,7,-63,-53,-29,39,39,34
4,14,9,-9,-2,12,-63,-53,-24,39,39,34
9,24,14,-17,-2,19,-63,-53,-19,39,39,34
9,29,19,-19,-4,24,-58,-48,-14,43,43,34
14,39,24,-26,-4,31,-53,-48,-9,48,53,39
24,43,19,-34,2,31,-53,-43,-9,58,53,48
24,68,43,-46,-9,56,-39,-43,0,63,63,53
29,78,48,-53,-9,63,-29,-34,14,68,68,58
29,87,58,-58,-14,73,-14,-29,24,78,78,63
43,102,58,-73,-7,80,-19,-19,34,92,87,78
58,117,58,-87,0,87,-29,-9,48,107,97,97
78,136,58,-107,9,97,-78,-24,48,107,107,102
97,156,58,-126,19,107,-126,-39,48,107,117,107
102,156,53,-129,24,104,-156,-53,39,107,117,107
107,156,48,-131,29,102,-180,-73,24,102,112,102
112,156,43,-134,34,100,-209,-97,14,97,112,102
112,156,43,-134,34,100,-219,-112,0,87,112,102
122,165,43,-143,39,104,-229,-112,-4,87,112,107
131,175,43,-153,43,109,-229,-122,-4,92,112,112
131,185,53,-158,39,119,-224,-126,-4,87,107,126
136,185,48,-161,43,117,-214,-126,-4,87,112,126
151,180,29,-165,61,104,-204,-112,4,92,122,131
161,165,4,-163,78,85,-190,-92,9,107,131,141
165,151,-14,-158,90,68,-180,-73,9,112,131,141
156,146,-9,-151,82,68,-165,-58,9,117,126,141
141,122,-19,-131,80,51,-161,-73,-14,87,102,122
112,92,-19,-102,65,36,-151,-87,-39,53,78,87
87,78,-9,-82,48,34,-146,-92,-43,53,68,82
58,53,-4,-56,31,24,-141,-102,-48,48,58,78
34,34,0,-34,17,17,-131,-102,-53,43,63,68
19,19,0,-19,9,9,-122,-102,-53,39,58,58
9,9,0,-9,4,4,-112,-102,-68,19,34,43
0,-9,-9,4,4,-9,-102,-102,-78,4,19,29
0,-24,-24,12,12,-24,-97,-102,-82,0,19,24
0,-29,-29,14,14,-29,-97,-102,-82,0,19,24
-4,-29,-24,17,9,-26,-97,-102,-82,0,19,24
-4,-34,-29,19,12,-31,-97,-102,-82,0,19,24
-4,-39,-34,21,14,-36,-87,-97,-82,4,19,24
-4,-43,-39,24,17,-41,-78,-92,-82,4,19,24
-9,-48,-39,29,14,-43,-73,-92,-82,4,19,24
-14,-48,-34,31,9,-41,-73,-87,-78,4,19,24
-14,-48,-34,31,9,-41,-73,-87,-78,4,14,24
-19,-53,-34,36,7,-43,-78,-87,-78,4,14,24
-19,-53,-34,36,7,-43,-73,-87,-78,9,14,24
-24,-53,-29,39,2,-41,-73,-82,-73,14,19,24
-24,-48,-24,36,0,-36,-73,-82,-68,14,19,29
-24,-43,-19,34,-2,-31,-73,-82,-63,14,19,34
-24,-43,-19,34,-2,-31,-73,-87,-63,19,19,34
-24,-43,-19,34,-2,-31,-73,-92,-63,19,19,34
-24,-43,-19,34,-2,-31,-68,-92,-68,14,24,29
-24,-43,-19,34,-2,-31,-68,-92,-73,9,24,29
-29,-29,0,29,-14,-14,-63,-92,-63,9,29,34
-29,0,29,14,-29,14,-48,-53,-4,68,68,68
0,48,48,-24,-24,48,-24,73,151,209,175,141
39,107,68,-73,-14,87,-24,170,312,395,336,263
73,141,68,-107,2,104,-24,214,400,522,453,361
126,175,48,-151,39,112,-24,297,488,624,566,448
161,234,73,-197,43,153,-4,419,629,771,688,556
209,317,107,-263,51,212,-9,478,741,893,800,668
317,336,19,-326,148,178,-39,517,766,922,863,746
434,405,-29,-419,231,187,-63,634,858,1015,961,849
556,595,39,-575,258,317,-117,732,980,1122,1083,966
692,766,73,-729,309,419,-209,751,1117,1327,1317,1190
795,839,43,-817,375,441,-214,990,1556,1903,1883,1678
829,912,82,-871,373,497,-224,1039,1903,2327,2283,2020
839,902,63,-871,387,483,-273,795,1883,2332,2298,2074
849,795,-53,-822,451,370,-287,634,1727,2152,2127,1991
912,751,-161,-832,536,295,-351,483,1615,2103,2117,2083
946,678,-268,-812,607,204,-385,341,1356,1873,1976,2078
688,556,-131,-622,409,212,-219,297,1215,1546,1629,1732
107,361,253,-234,-73,307,200,419,1215,1151,1000,927
-390,175,566,107,-478,370,580,634,1220,775,370,136
-546,68,614,239,-580,341,751,741,1112,497,53,-175
-492,14,507,239,-500,261,775,824,971,400,29,-180
-492,-58,434,275,-463,187,824,854,810,258,-34,-204
-512,-131,380,322,-446,124,907,819,683,126,-141,-253
-556,-180,375,368,-466,97,1005,785,590,4,-234,-322
-566,-180,385,373,-475,102,1068,746,566,-4,-234,-326
-575,-170,405,373,-490,117,1127,697,566,19,-185,-278
-585,-161,424,373,-505,131,1161,512,483,-14,-190,-268
-600,-156,444,378,-522,143,1190,312,385,-63,-214,-283
-649,-209,439,429,-544,114,1249,136,292,-131,-258,-317
-663,-273,390,468,-527,58,1268,29,175,-185,-278,-322
-697,-326,370,512,-534,21,1385,-117,-14,-273,-336,-351
-717,-395,322,556,-519,-36,1517,-234,-180,-361,-395,-385
-697,-444,253,570,-475,-95,1464,-336,-341,-429,-444,-414
-629,-458,170,544,-400,-143,1302,-341,-405,-444,-434,-400
-458,-380,78,419,-268,-151,888,-287,-385,-361,-331,-302
-263,-248,14,256,-139,-117,405,-195,-302,-234,-214,-190
-126,-141,-14,134,-56,-78,78,-126,-209,-146,-126,-117
-78,-92,-14,85,-31,-53,-48,-112,-161,-107,-87,-82
-68,-82,-14,75,-26,-48,-53,-107,-161,-102,-78,-73
-48,-78,-29,63,-9,-53,-73,-107,-170,-97,-68,-63
-48,-78,-29,63,-9,-53,-78,-117,-180,-97,-68,-58
-53,-78,-24,65,-14,-51,-87,-122,-185,-107,-82,-73
-53,-78,-24,65,-14,-51,-97,-122,-190,-112,-82,-73
-43,-78,-34,61,-4,-56,-107,-122,-190,-112,-87,-68
-43,-78,-34,61,-4,-56,-122,-122,-200,-112,-87,-68
-43,-78,-34,61,-4,-56,-136,-122,-209,-117,-97,-78
-43,-78,-34,61,-4,-56,-141,-122,-214,-126,-107,-87
-43,-82,-39,63,-2,-61,-146,-122,-219,-131,-117,-87
-43,-82,-39,63,-2,-61,-146,-126,-229,-136,-122,-92
-43,-87,-43,65,0,-65,-156,-126,-244,-141,-122,-107
-43,-97,-53,70,4,-75,-156,-126,-253,-151,-141,-117
-43,-97,-53,70,4,-75,-161,-136,-263,-170,-156,-131
-48,-102,-53,75,2,-78,-165,-136,-273,-185,-170,-131
-48,-107,-58,78,4,-82,-165,-146,-287,-200,-185,-141
-58,-112,-53,85,-2,-82,-170,-151,-317,-219,-204,-161
-63,-117,-53,90,-4,-85,-175,-156,-336,-248,-229,-185
-68,-126,-58,97,-4,-92,-180,-161,-346,-278,-258,-204
-73,-136,-63,104,-4,-100,-190,-170,-375,-302,-283,-229
-73,-146,-73,109,0,-109,-190,-180,-405,-331,-307,-263
-82,-156,-73,119,-4,-114,-190,-190,-429,-366,-341,-287
-87,-170,-82,129,-2,-126,-190,-200,-453,-400,-375,-307
-97,-180,-82,139,-7,-131,-185,-204,-483,-444,-409,-326
-102,-190,-87,146,-7,-139,-185,-224,-512,-478,-448,-361
-112,-204,-92,158,-9,-148,-190,-239,-546,-517,-492,-385
-122,-214,-92,168,-14,-153,-195,-244,-575,-556,-531,-419
-126,-224,-97,175,-14,-161,-200,-258,-605,-595,-561,-448
-136,-239,-102,187,-17,-170,-200,-268,-639,-639,-590,-478
-146,-248,-102,197,-21,-175,-204,-278,-663,-668,-624,-507
-146,-263,-117,204,-14,-190,-204,-287,-683,-697,-653,-531
-151,-268,-117,209,-17,-192,-204,-297,-702,-717,-673,-556
-151,-273,-122,212,-14,-197,-204,-297,-722,-732,-692,-570
-151,-273,-122,212,-14,-197,-200,-297,-736,-746,-707,-580
-146,-273,-126,209,-9,-200,-200,-297,-736,-746,-712,-580
-141,-273,-131,207,-4,-202,-200,-292,-722,-746,-707,-575
-131,-263,-131,197,0,-197,-200,-273,-702,-717,-683,-566
-122,-248,-126,185,2,-187,-195,-248,-678,-688,-658,-546
-102,-234,-131,168,14,-183,-190,-224,-639,-658,-639,-517
-87,-224,-136,156,24,-180,-180,-195,-605,-619,-600,-488
-73,-200,-126,136,26,-163,-175,-165,-551,-566,-546,-453
-53,-175,-122,114,34,-148,-170,-131,-492,-497,-492,-414
-34,-156,-122,95,43,-139,-170,-87,-429,-434,-434,-356
-14,-136,-122,75,53,-129,-165,-48,-370,-370,-370,-307
0,-112,-112,56,56,-112,-156,-19,-312,-297,-317,-253
14,-82,-97,34,56,-90,-156,4,-253,-229,-258,-209
24,-63,-87,19,56,-75,-141,24,-204,-170,-200,-161
34,-48,-82,7,58,-65,-131,34,-161,-122,-156,-122
43,-34,-78,-4,61,-56,-126,48,-117,-78,-107,-78
48,-19,-68,-14,58,-43,-117,53,-73,-29,-68,-39
48,-4,-53,-21,51,-29,-122,58,-48,4,-34,-4
48,4,-43,-26,46,-19,-112,53,-29,24,-4,9
48,14,-34,-31,41,-9,-107,48,-4,43,19,29
48,24,-24,-36,36,0,-107,39,9,68,39,48
48,24,-24,-36,36,0,-97,29,14,92,63,68
43,29,-14,-36,29,7,-87,14,19,102,73,82
39,29,-9,-34,24,9,-87,4,24,112,82,92
39,29,-9,-34,24,9,-87,-4,29,126,92,107
39,43,4,-41,17,24,-87,-14,29,131,107,112
39,43,4,-41,17,24,-87,-24,29,131,112,112
34,43,9,-39,12,26,-87,-34,29,131,112,117
34,43,9,-39,12,26,-87,-34,29,131,117,117
34,43,9,-39,12,26,-87,-34,24,131,122,126
34,39,4,-36,14,21,-87,-39,24,136,122,126
39,39,0,-39,19,19,-87,-39,24,136,117,126
39,39,0,-39,19,19,-87,-39,29,141,112,126
39,43,4,-41,17,24,-87,-39,34,141,122,131
39,43,4,-41,17,24,-87,-39,34,141,122,131
39,48,9,-43,14,29,-87,-43,34,141,126,131
39,48,9,-43,14,29,-87,-48,34,141,131,131
39,48,9,-43,14,29,-87,-48,34,141,126,131
39,53,14,-46,12,34,-87,-48,34,141,126,131
34,53,19,-43,7,36,-87,-43,34,141,126,131
29,53,24,-41,2,39,-87,-39,34,141,126,131
29,53,24,-41,2,39,-87,-43,34,141,122,131
24,53,29,-39,-2,41,-82,-43,29,141,117,126
29,48,19,-39,4,34,-82,-43,29,131,117,122
34,43,9,-39,12,26,-82,-43,34,126,122,117
29,43,14,-36,7,29,-82,-43,34,126,122,117
29,43,14,-36,7,29,-82,-39,29,126,122,117
34,43,9,-39,12,26,-82,-39,29,131,117,112
34,39,4,-36,14,21,-82,-39,29,136,117,112
29,39,9,-34,9,24,-82,-39,29,131,117,112
24,39,14,-31,4,26,-82,-39,29,131,122,112
24,39,14,-31,4,26,-82,-39,29,131,117,107
24,39,14,-31,4,26,-78,-39,24,136,117,107
19,39,19,-29,0,29,-78,-39,29,131,117,107
19,39,19,-29,0,29,-78,-39,29,131,117,102
19,39,19,-29,0,29,-78,-43,29,122,112,97
19,34,14,-26,2,24,-78,-43,29,117,102,97
19,34,14,-26,2,24,-73,-43,24,112,97,97
14,34,19,-24,-2,26,-73,-43,19,112,97,97
9,34,24,-21,-7,29,-73,-43,19,112,97,97
4,29,24,-17,-9,26,-73,-43,19,112,97,87
4,29,24,-17,-9,26,-68,-43,14,112,97,87
4,24,19,-14,-7,21,-63,-43,14,112,92,87
4,19,14,-12,-4,17,-63,-43,14,112,92,87
4,19,14,-12,-4,17,-63,-43,14,112,92,87
4,24,19,-14,-7,21,-68,-43,9,112,92,87
4,24,19,-14,-7,21,-68,-43,9,107,92,82
4,24,19,-14,-7,21,-68,-48,9,97,92,82
4,24,19,-14,-7,21,-68,-53,4,92,87,82
4,24,19,-14,-7,21,-63,-53,0,92,87,82
4,19,14,-12,-4,17,-63,-53,0,87,87,82
4,19,14,-12,-4,17,-63,-53,-4,87,82,82
0,19,19,-9,-9,19,-63,-48,-4,92,82,82
4,24,19,-14,-7,21,-63,-48,0,87,92,82
14,24,9,-19,2,17,-63,-43,0,87,92,87
14,48,34,-31,-9,41,-53,-43,14,102,102,92
19,58,39,-39,-9,48,-53,-39,24,112,102,97
19,73,53,-46,-17,63,-48,-34,24,112,107,97
19,87,68,-53,-24,78,-39,-29,24,117,107,102
24,82,58,-53,-17,70,-19,-24,29,122,117,107
34,97,63,-65,-14,80,-19,-19,48,136,131,122
39,102,63,-70,-12,82,-19,-4,58,146,141,126
48,107,58,-78,-4,82,-19,9,68,156,156,136
73,136,63,-104,4,100,-73,-14,68,156,156,141
97,165,68,-131,14,117,-126,-39,68,156,156,146
97,165,68,-131,14,117,-151,-48,68,156,156,146
97,165,68,-131,14,117,-175,-68,58,151,151,141
102,165,63,-134,19,114,-200,-87,48,146,151,141
102,165,63,-134,19,114,-209,-102,29,136,151,141
112,170,58,-141,26,114,-224,-102,24,136,151,141
122,175,53,-148,34,114,-229,-112,24,141,151,141
122,185,63,-153,29,124,-224,-112,24,141,151,156
126,185,58,-156,34,122,-214,-107,24,146,161,156
141,180,39,-161,51,109,-204,-92,34,146,170,161
151,165,14,-158,68,90,-190,-73,39,156,180,170
151,156,4,-153,73,80,-180,-63,39,156,180,170
136,156,19,-146,58,87,-165,-58,39,156,175,170
122,131,9,-126,56,70,-161,-73,14,126,146,151
92,102,9,-97,41,56,-151,-87,-9,92,117,117
73,87,14,-80,29,51,-141,-92,-14,92,107,112
48,63,14,-56,17,39,-131,-102,-19,87,97,107
24,43,19,-34,2,31,-122,-102,-24,82,102,97
9,29,19,-19,-4,24,-112,-102,-24,78,97,87
4,19,14,-12,-4,17,-107,-102,-39,58,73,73
0,0,0,0,0,0,-102,-102,-48,43,58,58
0,-9,-9,4,4,-9,-97,-102,-58,34,58,53
0,-9,-9,4,4,-9,-97,-102,-63,29,58,53
-4,-9,-4,7,0,-7,-97,-102,-63,29,58,53
-4,-14,-9,9,2,-12,-97,-102,-63,29,58,53
-4,-19,-14,12,4,-17,-92,-97,-63,34,53,48
-4,-24,-19,14,7,-21,-87,-92,-63,34,48,43
-9,-29,-19,19,4,-24,-82,-92,-58,34,48,43
-14,-29,-14,21,0,-21,-82,-87,-48,34,48,43
-14,-29,-14,21,0,-21,-78,-87,-48,34,43,43
-19,-34,-14,26,-2,-24,-78,-87,-48,34,43,43
-19,-34,-14,26,-2,-24,-73,-87,-48,34,43,43
-24,-34,-9,29,-7,-21,-73,-82,-43,34,48,43
-24,-34,-9,29,-7,-21,-73,-82,-43,34,48,43
-24,-34,-9,29,-7,-21,-73,-82,-43,34,48,43
-24,-39,-14,31,-4,-26,-73,-82,-43,34,48,43
-24,-43,-19,34,-2,-31,-73,-82,-43,29,48,43
-24,-39,-14,31,-4,-26,-68,-82,-43,29,48,43
-24,-34,-9,29,-7,-21,-68,-82,-43,29,43,48
-29,-24,4,26,-17,-9,-63,-82,-34,34,53,43
-29,0,29,14,-29,14,-48,-43,24,97,97,68
0,48,48,-24,-24,48,-19,82,175,234,200,146
39,107,68,-73,-14,87,-14,180,331,414,356,273
73,136,63,-104,4,100,-14,224,419,541,473,370
126,165,39,-146,43,102,-14,307,507,644,585,458
165,224,58,-195,53,141,4,424,639,780,707,566
219,307,87,-263,65,197,0,478,741,893,819,678
326,341,14,-334,156,178,-34,517,780,936,893,766
444,424,-19,-434,231,202,-63,634,888,1044,1000,878
556,624,68,-590,244,346,-122,727,1024,1171,1146,1015
683,805,122,-744,280,463,-219,741,1176,1395,1405,1259
790,863,73,-827,358,468,-224,956,1586,1952,1952,1737
829,922,92,-875,368,507,-234,980,1903,2357,2332,2069
839,897,58,-868,390,478,-287,756,1873,2342,2332,2113
849,775,-73,-812,461,351,-307,614,1708,2142,2147,2020
897,732,-165,-814,531,283,-366,468,1590,2088,2127,2093
917,658,-258,-788,588,200,-395,331,1327,1854,1976,2069
649,527,-122,-588,385,202,-219,297,1185,1507,1595,1683
58,322,263,-190,-102,292,209,429,1185,1093,932,839
-400,146,546,126,-473,346,566,649,1205,727,331,78
-517,48,566,234,-541,307,712,761,1112,458,43,-204
-463,0,463,231,-463,231,736,834,961,361,14,-204
-463,-68,395,265,-429,163,785,854,790,219,-53,-224
-483,-141,341,312,-412,100,868,824,663,92,-161,-278
-527,-190,336,358,-431,73,966,795,570,-24,-253,-351
-536,-190,346,363,-441,78,1029,756,546,-43,-263,-361
-546,-180,366,363,-456,92,1088,707,546,-29,-224,-317
-561,-175,385,368,-473,104,1117,522,473,-53,-219,-297
-580,-175,405,378,-492,114,1141,322,385,-92,-234,-302
-629,-219,409,424,-519,95,1210,146,283,-161,-278,-336
-644,-273,370,458,-507,48,1239,39,156,-214,-297,-341
-678,-326,351,502,-514,12,1356,-117,-24,-302,-351,-375
-697,-395,302,546,-500,-46,1488,-244,-180,-390,-405,-414
-697,-444,253,570,-475,-95,1459,-351,-346,-463,-463,-448
-649,-458,190,553,-419,-134,1322,-361,-414,-483,-463,-439
-468,-390,78,429,-273,-156,907,-312,-395,-400,-361,-341
-263,-268,-4,265,-129,-136,424,-224,-312,-273,-244,-229
-122,-151,-29,136,-46,-90,82,-141,-219,-185,-156,-156
-68,-92,-24,80,-21,-58,-58,-112,-170,-146,-117,-122
-58,-82,-24,70,-17,-53,-63,-107,-170,-141,-107,-112
-39,-78,-39,58,0,-58,-82,-107,-180,-136,-97,-102
-43,-73,-29,58,-7,-51,-87,-117,-190,-136,-97,-97
-53,-68,-14,61,-19,-41,-97,-122,-195,-146,-112,-112
-53,-68,-14,61,-19,-41,-107,-122,-200,-151,-112,-112
-43,-68,-24,56,-9,-46,-117,-122,-200,-151,-117,-107
-43,-73,-29,58,-7,-51,-126,-122,-209,-156,-117,-107
-43,-78,-34,61,-4,-56,-136,-122,-219,-165,-126,-117
-43,-78,-34,61,-4,-56,-141,-126,-224,-180,-136,-126
-43,-82,-39,63,-2,-61,-146,-131,-229,-190,-146,-126
-43,-82,-39,63,-2,-61,-146,-136,-234,-200,-156,-131
-43,-87,-43,65,0,-65,-156,-136,-244,-209,-161,-146
-43,-97,-53,70,4,-75,-156,-131,-253,-219,-180,-156
-43,-97,-53,70,4,-75,-161,-136,-263,-239,-195,-170
-48,-107,-58,78,4,-82,-165,-136,-278,-253,-209,-180
-48,-117,-68,82,9,-92,-165,-146,-297,-268,-224,-200
-58,-122,-63,90,2,-92,-170,-156,-326,-292,-248,-214
-63,-126,-63,95,0,-95,-175,-165,-346,-326,-278,-234
-68,-131,-63,100,-2,-97,-175,-170,-361,-356,-307,-253
-73,-136,-63,104,-4,-100,-180,-180,-395,-380,-331,-278
-73,-146,-73,109,0,-109,-180,-190,-424,-414,-361,-317
-82,-156,-73,119,-4,-114,-180,-200,-448,-453,-400,-346
-87,-170,-82,129,-2,-126,-190,-209,-478,-497,-439,-380
-97,-180,-82,139,-7,-131,-195,-214,-512,-551,-478,-414
-102,-190,-87,146,-7,-139,-195,-229,-541,-585,-517,-448
-112,-204,-92,158,-9,-148,-200,-239,-575,-624,-561,-473
-122,-214,-92,168,-14,-153,-200,-244,-605,-658,-605,-507
-126,-224,-97,175,-14,-161,-200,-258,-634,-692,-639,-536
-131,-239,-107,185,-12,-173,-200,-268,-668,-736,-668,-566
-136,-248,-112,192,-12,-180,-204,-278,-692,-766,-702,-595
-136,-263,-126,200,-4,-195,-200,-287,-712,-800,-732,-614
-141,-268,-126,204,-7,-197,-195,-297,-732,-824,-751,-634
-141,-273,-131,207,-4,-202,-195,-297,-746,-839,-775,-649
-141,-273,-131,207,-4,-202,-190,-297,-756,-854,-795,-658
-136,-273,-136,204,0,-204,-190,-292,-761,-854,-800,-663
-131,-273,-141,202,4,-207,-190,-283,-751,-854,-795,-663
-117,-263,-146,190,14,-204,-195,-268,-732,-829,-775,-649
-102,-248,-146,175,21,-197,-195,-248,-707,-805,-756,-624
-82,-229,-146,156,31,-187,-195,-224,-663,-766,-732,-595
-68,-214,-146,141,39,-180,-190,-195,-624,-717,-688,-566
-53,-190,-136,122,41,-163,-185,-165,-566,-658,-629,-527
-34,-165,-131,100,48,-148,-180,-131,-502,-585,-570,-483
-14,-146,-131,80,58,-139,-175,-87,-439,-522,-512,-424
4,-126,-131,61,68,-129,-165,-48,-380,-458,-448,-375
14,-107,-122,46,68,-114,-151,-24,-322,-390,-390,-322
24,-82,-107,29,65,-95,-146,-4,-263,-326,-326,-278
34,-63,-97,14,65,-80,-136,19,-214,-268,-268,-234
43,-48,-92,2,68,-70,-131,34,-170,-219,-224,-200
48,-39,-87,-4,68,-63,-126,43,-131,-175,-175,-156
48,-29,-78,-9,63,-53,-117,43,-92,-126,-136,-117
48,-14,-63,-17,56,-39,-117,48,-68,-87,-102,-78
48,-4,-53,-21,51,-29,-102,43,-48,-63,-73,-58
48,4,-43,-26,46,-19,-97,39,-24,-43,-48,-34
48,14,-34,-31,41,-9,-97,29,-9,-19,-29,-9
48,14,-34,-31,41,-9,-92,19,-4,-4,-4,4
43,19,-24,-31,34,-2,-87,4,0,-4,4,14
39,19,-19,-29,29,0,-87,-4,4,4,14,19
39,19,-19,-29,29,0,-87,-14,9,19,24,29
39,34,-4,-36,21,14,-87,-24,9,24,34,34
39,34,-4,-36,21,14,-87,-34,9,24,34,34
34,29,-4,-31,19,12,-87,-48,9,24,29,39
34,24,-9,-29,21,7,-87,-53,9,24,29,39
34,24,-9,-29,21,7,-87,-53,0,24,34,48
34,19,-14,-26,24,2,-87,-58,-4,29,34,48
34,24,-9,-29,21,7,-87,-58,-4,24,34,48
29,29,0,-29,14,14,-87,-58,0,24,34,48
29,34,4,-31,12,19,-87,-58,4,24,43,53
29,34,4,-31,12,19,-87,-58,4,24,43,53
29,34,4,-31,12,19,-87,-58,4,24,43,53
29,29,0,-29,14,14,-87,-58,4,24,43,53
29,29,0,-29,14,14,-87,-58,4,24,39,53
29,34,4,-31,12,19,-87,-58,4,24,39,53
29,34,4,-31,12,19,-87,-58,4,19,39,48
29,34,4,-31,12,19,-87,-58,4,14,39,43
29,29,0,-29,14,14,-87,-58,4,14,39,43
24,24,0,-24,12,12,-82,-53,0,14,39,39
24,24,0,-24,12,12,-82,-53,0,14,34,39
24,24,0,-24,12,12,-82,-53,4,19,34,39
19,29,9,-24,4,19,-82,-53,4,19,34,39
19,34,14,-26,2,24,-82,-48,0,19,34,39
24,34,9,-29,7,21,-82,-53,0,14,24,34
24,29,4,-26,9,17,-82,-58,0,9,19,34
19,29,9,-24,4,19,-82,-58,0,4,14,34
14,29,14,-21,0,21,-82,-58,0,4,14,34
14,24,9,-19,2,17,-82,-58,0,0,9,29
14,19,4,-17,4,12,-78,-58,-4,0,9,29
9,19,9,-14,0,14,-78,-58,-4,-4,9,29
9,19,9,-14,0,14,-78,-58,-9,-4,9,24
9,19,9,-14,0,14,-78,-63,-14,-9,9,14
9,14,4,-12,2,9,-78,-63,-19,-9,4,9
9,14,4,-12,2,9,-73,-63,-19,-14,0,9
4,14,9,-9,-2,12,-73,-63,-19,-14,0,9
4,14,9,-9,-2,12,-73,-63,-24,-19,-4,9
4,9,4,-7,0,7,-73,-63,-29,-24,-9,0
4,9,4,-7,0,7,-73,-63,-34,-24,-9,0
4,4,0,-4,2,2,-73,-63,-34,-24,-14,0
4,0,-4,-2,4,-2,-73,-63,-34,-29,-14,0
4,0,-4,-2,4,-2,-73,-63,-34,-34,-14,0
4,4,0,-4,2,2,-73,-68,-43,-34,-19,0
4,4,0,-4,2,2,-68,-73,-48,-39,-24,-4
4,4,0,-4,2,2,-73,-73,-43,-43,-24,-4
4,4,0,-4,2,2,-78,-73,-43,-43,-29,-4
4,9,4,-7,0,7,-73,-68,-48,-39,-34,-9
4,9,4,-7,0,7,-73,-63,-48,-39,-39,-14
14,14,0,-14,7,7,-68,-63,-48,-39,-39,-14
19,19,0,-19,9,9,-63,-58,-43,-34,-34,-14
24,29,4,-26,9,17,-63,-58,-34,-29,-19,-4
34,34,0,-34,17,17,-63,-53,-29,-19,-14,9
29,53,24,-41,2,39,-43,-53,-19,-14,-4,14
29,63,34,-46,-2,48,-34,-48,-14,-14,0,19
29,68,39,-48,-4,53,-24,-43,-9,-19,-4,14
34,78,43,-56,-4,61,-19,-43,-4,-24,-9,14
48,92,43,-70,2,68,-29,-39,0,-9,4,19
68,107,39,-87,14,73,-39,-39,0,0,19,29
82,122,39,-102,21,80,-92,-48,4,9,29,43
97,136,39,-117,29,87,-146,-58,9,19,39,58
97,136,39,-117,29,87,-165,-78,4,14,39,58
97,136,39,-117,29,87,-185,-97,-9,0,34,53
102,136,34,-119,34,85,-204,-117,-24,-9,34,53
112,146,34,-129,39,90,-219,-122,-34,-19,34,53
122,161,39,-141,41,100,-224,-131,-34,-14,34,53
122,175,53,-148,34,114,-224,-131,-34,-14,34,68
126,180,53,-153,36,117,-214,-136,-34,-9,43,68
141,180,39,-161,51,109,-204,-131,-24,-4,53,73
156,165,9,-161,73,87,-190,-102,-14,14,63,87
161,151,-9,-156,85,70,-180,-78,-9,19,63,92
151,146,-4,-148,78,70,-165,-63,-9,34,68,102
141,122,-19,-131,80,51,-161,-73,-34,19,53,92
112,92,-19,-102,65,36,-151,-87,-63,-29,14,43
92,78,-14,-85,53,31,-141,-92,-73,-43,-9,24
68,53,-14,-61,41,19,-131,-107,-78,-48,-19,19
43,34,-9,-39,26,12,-122,-112,-82,-53,-19,9
24,14,-9,-19,17,2,-112,-112,-82,-58,-29,0
14,0,-14,-7,14,-7,-107,-112,-97,-78,-53,-14
9,-19,-29,4,19,-24,-102,-112,-112,-97,-68,-29
9,-29,-39,9,24,-34,-97,-112,-122,-107,-68,-34
9,-29,-39,9,24,-34,-97,-112,-122,-107,-73,-34
4,-29,-34,12,19,-31,-97,-112,-122,-107,-78,-34
9,-34,-43,12,26,-39,-97,-112,-122,-107,-78,-39
14,-39,-53,12,34,-46,-92,-107,-122,-102,-78,-43
14,-43,-58,14,36,-51,-87,-102,-122,-102,-78,-43
9,-48,-58,19,34,-53,-82,-102,-122,-102,-78,-43
0,-53,-53,26,26,-53,-82,-97,-117,-102,-73,-43
-4,-58,-53,31,24,-56,-78,-97,-117,-102,-73,-43
-9,-63,-53,36,21,-58,-78,-97,-117,-102,-73,-43
-9,-63,-53,36,21,-58,-73,-97,-117,-102,-73,-43
-14,-63,-48,39,17,-56,-73,-92,-112,-102,-68,-43
-14,-63,-48,39,17,-56,-73,-92,-112,-102,-68,-43
-14,-63,-48,39,17,-56,-73,-92,-107,-102,-68,-43
-14,-63,-48,39,17,-56,-73,-92,-102,-97,-68,-43
-9,-63,-53,36,21,-58,-73,-92,-102,-97,-73,-43
-4,-58,-53,31,24,-56,-68,-92,-102,-97,-73,-43
-4,-63,-58,34,26,-61,-68,-102,-122,-117,-87,-48
-4,-58,-53,31,24,-56,-63,-107,-117,-117,-82,-48
-14,-48,-34,31,9,-41,-48,-92,-82,-78,-53,-34
0,-19,-19,9,9,-19,-24,4,34,24,34,19
34,53,19,-43,7,36,-19,112,214,229,200,146
63,102,39,-82,12,70,-14,165,322,375,317,244
112,122,9,-117,51,65,-14,248,409,478,429,331
151,165,14,-158,68,90,0,366,541,610,551,444
185,248,63,-217,61,156,0,409,644,732,673,561
268,292,24,-280,122,158,-24,439,683,790,756,649
375,356,-19,-366,197,168,-34,575,775,854,819,727
473,507,34,-490,219,270,-73,688,912,971,951,858
614,722,107,-668,253,414,-195,683,1029,1176,1205,1102
722,829,107,-775,307,468,-224,824,1361,1634,1678,1522
756,917,161,-836,297,539,-234,873,1790,2176,2191,1961
780,922,141,-851,319,531,-278,741,1893,2337,2352,2137
800,795,-4,-797,402,395,-292,614,1751,2166,2171,2039
819,741,-78,-780,448,331,-326,488,1664,2108,2127,2069
961,688,-273,-824,617,207,-444,297,1332,1873,2069,2215
854,585,-268,-719,561,158,-375,214,1127,1556,1800,2010
170,356,185,-263,-7,270,117,361,1127,1073,1005,985
-331,161,492,85,-412,326,502,556,1122,658,317,126
-448,53,502,197,-475,278,658,688,1029,356,-34,-214
-444,-9,434,226,-439,212,717,790,912,224,-141,-322
-429,-87,341,258,-385,126,751,819,732,87,-185,-326
-434,-156,278,295,-356,61,814,795,600,-29,-263,-356
-488,-200,287,344,-387,43,917,756,492,-170,-390,-453
-507,-209,297,358,-402,43,990,702,439,-219,-439,-488
-517,-200,317,358,-417,58,1054,688,468,-175,-366,-419
-531,-200,331,366,-431,65,1093,546,409,-190,-351,-395
-551,-185,366,368,-458,90,1122,312,307,-229,-375,-409
-600,-209,390,405,-495,90,1190,107,204,-287,-414,-444
-624,-263,361,444,-492,48,1200,-14,102,-341,-424,-439
-663,-317,346,490,-505,14,1283,-170,-48,-419,-458,-453
-712,-409,302,561,-507,-53,1512,-312,-224,-512,-522,-497
-717,-468,248,592,-483,-109,1537,-414,-385,-580,-575,-531
-688,-512,175,600,-431,-168,1468,-409,-468,-624,-590,-541
-566,-478,87,522,-326,-195,1180,-370,-483,-585,-527,-478
-322,-317,4,319,-163,-156,570,-258,-390,-434,-385,-341
-156,-190,-34,173,-61,-112,161,-175,-307,-322,-283,-248
-97,-131,-34,114,-31,-82,14,-136,-239,-263,-234,-200
-58,-102,-43,80,-7,-73,-53,-107,-209,-239,-204,-170
-39,-97,-58,68,9,-78,-73,-107,-219,-234,-195,-161
-39,-97,-58,68,9,-78,-78,-117,-229,-234,-195,-161
-43,-97,-53,70,4,-75,-87,-122,-234,-244,-209,-180
-43,-97,-53,70,4,-75,-97,-122,-239,-248,-209,-180
-29,-97,-68,63,19,-82,-107,-122,-239,-248,-209,-175
-24,-97,-73,61,24,-85,-117,-122,-248,-253,-204,-175
-24,-97,-73,61,24,-85,-126,-122,-258,-258,-214,-185
-24,-97,-73,61,24,-85,-131,-122,-263,-263,-224,-195
-24,-102,-78,63,26,-90,-136,-117,-268,-268,-234,-195
-24,-102,-78,63,26,-90,-136,-117,-278,-278,-244,-200
-29,-107,-78,68,24,-92,-146,-117,-292,-287,-244,-209
-34,-117,-82,75,24,-100,-146,-117,-302,-297,-258,-214
-34,-112,-78,73,21,-95,-151,-126,-312,-317,-273,-229
-39,-117,-78,78,19,-97,-156,-126,-322,-331,-287,-239
-34,-126,-92,80,29,-109,-156,-131,-336,-346,-297,-258
-39,-131,-92,85,26,-112,-161,-131,-366,-370,-317,-278
-43,-136,-92,90,24,-114,-170,-136,-380,-400,-346,-302
-48,-146,-97,97,24,-122,-175,-141,-390,-424,-375,-322
-53,-156,-102,104,24,-129,-180,-151,-424,-448,-400,-346
-53,-165,-112,109,29,-139,-180,-161,-453,-483,-429,-380
-63,-175,-112,119,24,-143,-180,-170,-478,-522,-463,-405
-68,-190,-122,129,26,-156,-185,-180,-507,-556,-497,-434
-78,-204,-126,141,24,-165,-185,-185,-541,-600,-536,-458
-82,-219,-136,151,26,-178,-185,-200,-570,-634,-575,-488
-87,-234,-146,161,29,-190,-190,-209,-605,-673,-624,-512
-92,-244,-151,168,29,-197,-190,-214,-634,-712,-668,-551
-97,-253,-156,175,29,-204,-190,-229,-668,-751,-697,-590
-102,-268,-165,185,31,-217,-190,-239,-707,-795,-727,-624
-112,-278,-165,195,26,-222,-195,-248,-732,-829,-766,-653
-117,-287,-170,202,26,-229,-195,-258,-751,-863,-800,-673
-122,-287,-165,204,21,-226,-190,-268,-771,-888,-819,-692
-122,-292,-170,207,24,-231,-185,-268,-785,-907,-839,-707
-122,-297,-175,209,26,-236,-180,-268,-800,-922,-858,-722
-117,-302,-185,209,34,-244,-180,-263,-805,-922,-863,-727
-112,-302,-190,207,39,-246,-180,-263,-795,-932,-863,-732
-102,-292,-190,197,43,-241,-180,-253,-775,-912,-849,-727
-97,-278,-180,187,41,-229,-175,-229,-751,-883,-829,-702
-82,-258,-175,170,46,-217,-175,-204,-712,-844,-805,-668
-68,-244,-175,156,53,-209,-170,-175,-678,-800,-756,-639
-53,-219,-165,136,56,-192,-165,-146,-624,-741,-697,-600
-34,-195,-161,114,63,-178,-161,-112,-561,-668,-639,-556
-14,-175,-161,95,73,-168,-156,-73,-497,-610,-580,-502
4,-156,-161,75,82,-158,-146,-34,-439,-546,-517,-453
14,-136,-151,61,82,-143,-136,-4,-380,-473,-458,-400
24,-112,-136,43,80,-124,-136,14,-317,-400,-395,-351
34,-92,-126,29,80,-109,-126,34,-263,-336,-336,-297
43,-78,-122,17,82,-100,-122,43,-214,-283,-287,-258
53,-63,-117,4,85,-90,-117,53,-170,-234,-234,-214
58,-48,-107,-4,82,-78,-107,53,-131,-185,-195,-175
58,-34,-92,-12,75,-63,-107,53,-107,-151,-161,-136
58,-24,-82,-17,70,-53,-92,43,-87,-131,-131,-117
58,-14,-73,-21,65,-43,-87,39,-68,-112,-107,-97
58,0,-58,-29,58,-29,-87,29,-53,-78,-78,-73
58,4,-53,-31,56,-24,-82,19,-43,-48,-48,-53
53,9,-43,-31,48,-17,-78,4,-39,-43,-43,-43
48,9,-39,-29,43,-14,-78,-4,-34,-34,-34,-34
48,0,-48,-24,48,-24,-78,-14,-29,-19,-24,-19
48,4,-43,-26,46,-19,-78,-24,-29,-14,-9,-14
48,4,-43,-26,46,-19,-78,-34,-29,-14,-4,-14
43,4,-39,-24,41,-17,-78,-43,-29,-14,-4,-9
43,4,-39,-24,41,-17,-78,-48,-29,-14,0,-9
43,4,-39,-24,41,-17,-78,-53,-34,-14,4,0
43,4,-39,-24,41,-17,-78,-58,-34,-9,4,0
43,9,-34,-26,39,-12,-78,-58,-34,-9,4,0
39,9,-29,-24,34,-9,-78,-58,-29,-4,4,0
39,14,-24,-26,31,-4,-78,-58,-24,-4,14,4
39,14,-24,-26,31,-4,-78,-58,-24,-4,14,9
39,14,-24,-26,31,-4,-78,-58,-24,-4,14,14
34,9,-24,-21,29,-7,-73,-58,-24,-4,19,14
29,9,-19,-19,24,-4,-68,-58,-24,-4,19,14
29,9,-19,-19,24,-4,-68,-58,-24,0,19,14
29,4,-24,-17,26,-9,-68,-58,-24,4,19,14
34,4,-29,-19,31,-12,-73,-58,-19,4,19,14
39,4,-34,-21,36,-14,-78,-63,-14,4,19,14
34,4,-29,-19,31,-12,-73,-58,-19,4,14,9
34,4,-29,-19,31,-12,-73,-53,-19,0,9,9
34,4,-29,-19,31,-12,-73,-53,-14,0,14,9
29,4,-24,-17,26,-9,-73,-53,-14,0,14,9
24,9,-14,-17,19,-2,-73,-53,-19,0,14,9
24,14,-9,-19,17,2,-73,-58,-19,0,9,4
24,9,-14,-17,19,-2,-73,-58,-24,0,14,0
19,9,-9,-14,14,0,-73,-58,-29,-4,14,-4
14,4,-9,-9,12,-2,-73,-58,-29,-4,14,-4
14,0,-14,-7,14,-7,-73,-58,-29,-9,9,-9
19,0,-19,-9,19,-9,-68,-58,-34,-9,9,-4
19,0,-19,-9,19,-9,-68,-58,-34,-14,9,0
19,0,-19,-9,19,-9,-68,-53,-39,-14,9,-4
19,0,-19,-9,19,-9,-68,-53,-39,-19,9,-9
19,-4,-24,-7,21,-14,-68,-53,-39,-19,4,-9
19,-4,-24,-7,21,-14,-63,-53,-39,-24,0,-9
9,-4,-14,-2,12,-9,-63,-53,-39,-24,0,-9
4,-4,-9,0,7,-7,-63,-53,-39,-24,0,-9
4,-9,-14,2,9,-12,-63,-58,-39,-24,0,-19
4,-9,-14,2,9,-12,-63,-63,-43,-24,0,-19
4,-14,-19,4,12,-17,-68,-63,-43,-29,-4,-19
4,-19,-24,7,14,-21,-73,-63,-43,-34,-4,-19
4,-19,-24,7,14,-21,-73,-63,-39,-34,-9,-19
4,-14,-19,4,12,-17,-73,-63,-39,-34,-14,-19
4,-14,-19,4,12,-17,-68,-63,-39,-39,-14,-24
4,-14,-19,4,12,-17,-68,-63,-34,-43,-14,-24
4,-14,-19,4,12,-17,-68,-63,-39,-43,-19,-24
4,-9,-14,2,9,-12,-63,-63,-48,-39,-19,-24
4,-14,-19,4,12,-17,-63,-63,-48,-43,-19,-24
9,-14,-24,2,17,-19,-63,-63,-48,-48,-19,-24
14,-9,-24,-2,19,-17,-63,-58,-48,-43,-19,-29
24,0,-24,-12,24,-12,-63,-58,-48,-39,-14,-29
34,4,-29,-19,31,-12,-63,-53,-48,-29,-14,-19
34,29,-4,-31,19,12,-48,-53,-39,-24,-4,-14
34,39,4,-36,14,21,-39,-48,-29,-24,-4,-9
29,43,14,-36,7,29,-29,-48,-24,-24,0,-9
29,48,19,-39,4,34,-19,-48,-24,-19,0,-4
48,63,14,-56,17,39,-24,-48,-9,-9,14,4
58,82,24,-70,17,53,-19,-34,0,0,24,14
68,107,39,-87,14,73,-19,-19,9,9,39,29
82,112,29,-97,26,70,-63,-34,9,14,43,34
97,117,19,-107,39,68,-107,-48,9,19,48,39
102,117,14,-109,43,65,-136,-58,4,19,48,39
107,117,9,-112,48,63,-161,-78,-4,14,43,34
112,117,4,-114,53,61,-190,-97,-14,9,43,34
112,117,4,-114,53,61,-200,-112,-29,0,43,34
122,126,4,-124,58,65,-209,-112,-34,0,43,34
131,136,4,-134,63,70,-209,-122,-34,4,43,34
131,146,14,-139,58,80,-204,-122,-34,4,43,53
136,146,9,-141,63,78,-195,-117,-34,9,53,58
151,146,-4,-148,78,70,-185,-107,-24,14,63,63
161,136,-24,-148,92,56,-170,-92,-19,29,73,73
161,122,-39,-141,100,41,-165,-78,-19,29,73,73
146,117,-29,-131,87,43,-156,-68,-19,29,68,73
131,92,-39,-112,85,26,-151,-82,-43,0,43,53
102,63,-39,-82,70,12,-141,-97,-68,-34,19,19
87,53,-34,-70,61,9,-131,-102,-73,-34,9,14
68,34,-34,-51,51,0,-122,-112,-78,-39,0,9
43,14,-29,-29,36,-7,-112,-112,-82,-43,0,0
29,0,-29,-14,29,-14,-102,-112,-82,-48,-9,-9
19,-14,-34,-2,26,-24,-97,-112,-97,-68,-34,-24
9,-39,-48,14,29,-43,-92,-112,-107,-82,-48,-39
9,-48,-58,19,34,-53,-87,-112,-112,-87,-48,-43
9,-48,-58,19,34,-53,-87,-112,-112,-87,-48,-43
4,-48,-53,21,29,-51,-87,-112,-112,-92,-48,-43
4,-53,-58,24,31,-56,-87,-112,-112,-97,-48,-43
4,-58,-63,26,34,-61,-82,-107,-112,-92,-48,-43
4,-63,-68,29,36,-65,-78,-102,-112,-92,-48,-43
0,-68,-68,34,34,-68,-73,-102,-112,-87,-48,-43
-4,-68,-63,36,29,-65,-73,-97,-107,-82,-48,-43
-4,-68,-63,36,29,-65,-68,-97,-107,-82,-53,-43
-9,-73,-63,41,26,-68,-68,-97,-107,-82,-53,-43
-9,-73,-63,41,26,-68,-63,-97,-107,-82,-53,-43
-14,-73,-58,43,21,-65,-63,-92,-102,-82,-48,-43
-9,-68,-58,39,24,-63,-63,-92,-102,-82,-48,-43
-4,-63,-58,34,26,-61,-63,-92,-102,-82,-48,-43
-4,-63,-58,34,26,-61,-63,-92,-102,-78,-43,-43
-4,-63,-58,34,26,-61,-63,-92,-102,-78,-39,-43
-9,-63,-53,36,21,-58,-58,-97,-102,-78,-34,-43
-14,-63,-48,39,17,-56,-58,-102,-102,-78,-34,-39
-19,-48,-29,34,4,-39,-53,-102,-92,-78,-34,-43
-19,-19,0,19,-9,-9,-39,-63,-34,-19,0,-19
9,29,19,-19,-4,24,-14,63,122,122,112,58
48,87,39,-68,4,63,-14,161,283,307,278,185
78,122,43,-100,17,82,-14,200,370,439,395,283
126,156,29,-141,48,92,-14,278,458,546,507,370
161,204,43,-183,58,124,4,395,600,688,639,478
209,278,68,-244,70,173,0,448,712,805,761,590
317,297,-19,-307,168,139,-29,483,732,829,814,668
434,366,-68,-400,251,148,-53,595,819,917,902,771
546,561,14,-553,265,287,-112,688,941,1024,1024,893
673,736,63,-705,305,400,-209,702,1078,1229,1259,1122
775,814,39,-795,368,427,-219,907,1517,1820,1839,1625
810,893,82,-851,363,488,-234,922,1864,2259,2254,1981
819,878,58,-849,380,468,-278,702,1849,2269,2274,2039
829,766,-63,-797,446,351,-287,566,1698,2093,2108,1961
888,717,-170,-802,529,273,-356,414,1566,2034,2103,2059
917,639,-278,-778,597,180,-395,273,1288,1795,1966,2059
683,522,-161,-602,422,180,-234,234,1122,1429,1581,1693
126,331,204,-229,-39,268,180,361,1098,995,912,868
-375,141,517,117,-446,329,561,590,1117,610,263,48
-536,29,566,253,-551,297,732,712,1024,322,-73,-292
-473,-19,453,246,-463,217,756,795,883,234,-92,-292
-463,-87,375,275,-419,143,805,824,722,102,-151,-312
-483,-161,322,322,-402,80,883,771,595,-24,-253,-366
-527,-209,317,368,-422,53,976,717,502,-141,-341,-439
-536,-209,326,373,-431,58,1044,688,488,-151,-351,-439
-546,-200,346,373,-446,73,1107,649,497,-126,-312,-385
-561,-190,370,375,-466,90,1141,458,414,-156,-307,-375
-580,-185,395,383,-488,104,1171,253,317,-200,-322,-390
-629,-229,400,429,-514,85,1229,68,219,-268,-366,-424
-644,-283,361,463,-502,39,1249,-48,97,-322,-385,-429
-683,-341,341,512,-512,0,1376,-195,-78,-405,-429,-453
-707,-414,292,561,-500,-61,1517,-312,-229,-488,-473,-483
-692,-468,224,580,-458,-122,1493,-395,-390,-551,-527,-517
-629,-488,141,558,-385,-173,1361,-380,-453,-561,-522,-507
-458,-409,48,434,-253,-180,936,-322,-434,-478,-419,-409
-263,-278,-14,270,-124,-146,444,-224,-351,-351,-302,-297
-122,-165,-43,143,-39,-104,102,-141,-253,-253,-214,-214
-68,-112,-43,90,-12,-78,-39,-112,-200,-204,-175,-170
-58,-102,-43,80,-7,-73,-43,-107,-200,-200,-165,-161
-39,-97,-58,68,9,-78,-63,-107,-209,-195,-156,-151
-39,-97,-58,68,9,-78,-68,-117,-219,-195,-151,-151
-43,-97,-53,70,4,-75,-78,-122,-224,-204,-161,-170
-43,-97,-53,70,4,-75,-87,-122,-229,-209,-161,-170
-34,-97,-63,65,14,-80,-97,-122,-229,-209,-165,-165
-34,-97,-63,65,14,-80,-112,-122,-239,-214,-165,-165
-34,-97,-63,65,14,-80,-126,-122,-248,-224,-175,-175
-34,-97,-63,65,14,-80,-131,-122,-253,-234,-185,-185
-34,-102,-68,68,17,-85,-136,-122,-258,-239,-195,-185
-34,-102,-68,68,17,-85,-136,-126,-263,-248,-204,-190
-34,-107,-73,70,19,-90,-146,-126,-273,-258,-209,-204
-34,-117,-82,75,24,-100,-146,-126,-283,-268,-224,-214
-34,-117,-82,75,24,-100,-151,-136,-292,-287,-234,-229
-39,-126,-87,82,24,-107,-156,-131,-302,-302,-244,-234
-39,-136,-97,87,29,-117,-156,-136,-317,-317,-253,-248
-43,-141,-97,92,26,-119,-161,-141,-341,-331,-278,-263
-43,-146,-102,95,29,-124,-165,-146,-356,-356,-307,-283
-48,-151,-102,100,26,-126,-165,-146,-370,-385,-336,-302
-53,-156,-102,104,24,-129,-170,-151,-405,-409,-361,-326
-53,-165,-112,109,29,-139,-170,-161,-434,-444,-390,-356
-63,-175,-112,119,24,-143,-170,-170,-458,-483,-429,-375
-68,-190,-122,129,26,-156,-175,-180,-488,-517,-463,-405
-78,-200,-122,139,21,-161,-175,-185,-522,-561,-497,-434
-82,-209,-126,146,21,-168,-175,-200,-551,-595,-536,-468
-92,-224,-131,158,19,-178,-180,-209,-585,-634,-580,-492
-102,-234,-131,168,14,-183,-180,-219,-610,-673,-619,-531
-107,-244,-136,175,14,-190,-180,-239,-634,-712,-649,-566
-117,-258,-141,187,12,-200,-180,-248,-668,-756,-678,-595
-126,-268,-141,197,7,-204,-185,-258,-692,-785,-712,-624
-126,-278,-151,202,12,-214,-185,-268,-712,-814,-746,-644
-131,-278,-146,204,7,-212,-185,-278,-732,-834,-771,-663
-131,-283,-151,207,9,-217,-185,-283,-751,-849,-790,-683
-131,-283,-151,207,9,-217,-180,-287,-766,-863,-805,-697
-131,-283,-151,207,9,-217,-175,-287,-771,-868,-814,-697
-131,-283,-151,207,9,-217,-170,-283,-761,-873,-814,-692
-122,-273,-151,197,14,-212,-170,-263,-736,-844,-790,-683
-112,-258,-146,185,17,-202,-165,-239,-707,-814,-766,-663
-92,-239,-146,165,26,-192,-165,-214,-673,-780,-741,-634
-78,-224,-146,151,34,-185,-161,-185,-644,-736,-697,-605
-63,-204,-141,134,39,-173,-156,-156,-585,-683,-639,-566
-43,-185,-141,114,48,-163,-151,-122,-522,-614,-580,-522
-24,-165,-141,95,58,-153,-151,-82,-458,-551,-522,-463
-4,-146,-141,75,68,-143,-146,-48,-400,-488,-458,-414
4,-126,-131,61,68,-129,-136,-19,-341,-414,-405,-361
14,-102,-117,43,65,-109,-136,4,-283,-346,-346,-317
29,-82,-112,26,70,-97,-122,24,-234,-287,-287,-268
43,-68,-112,12,78,-90,-112,34,-190,-239,-244,-229
53,-53,-107,0,80,-80,-107,48,-146,-195,-195,-190
58,-39,-97,-9,78,-68,-97,53,-102,-146,-156,-156
58,-24,-82,-17,70,-53,-102,53,-78,-107,-122,-117
58,-14,-73,-21,65,-43,-92,43,-58,-82,-92,-97
58,-4,-63,-26,61,-34,-87,39,-39,-63,-63,-73
58,4,-53,-31,56,-24,-87,29,-29,-39,-39,-48
58,4,-53,-31,56,-24,-82,19,-24,-19,-19,-34
53,9,-43,-31,48,-17,-78,4,-19,-14,-14,-24
48,9,-39,-29,43,-14,-78,-4,-14,-4,-4,-14
48,9,-39,-29,43,-14,-78,-14,-9,9,4,0
48,24,-24,-36,36,0,-78,-24,-9,14,19,4
48,24,-24,-36,36,0,-78,-34,-9,14,24,4
43,19,-24,-31,34,-2,-78,-48,-9,19,24,9
43,14,-29,-29,36,-7,-78,-53,-9,24,29,9
43,14,-29,-29,36,-7,-78,-53,-14,24,34,19
43,9,-34,-26,39,-12,-78,-58,-14,29,34,19
43,14,-29,-29,36,-7,-78,-58,-19,29,34,19
39,19,-19,-29,29,0,-78,-58,-19,34,34,19
39,24,-14,-31,26,4,-78,-58,-14,29,43,24
39,24,-14,-31,26,4,-78,-58,-14,24,43,24
39,19,-19,-29,29,0,-78,-58,-14,24,43,24
39,9,-29,-24,34,-9,-78,-58,-14,24,43,24
39,9,-29,-24,34,-9,-78,-58,-14,24,39,24
39,14,-24,-26,31,-4,-78,-58,-14,24,39,24
39,19,-19,-29,29,0,-78,-58,-14,24,39,24
