I,II,III,aVR,aVL,aVF,V1,V2,V3,V4,V5,V6,
-175,-161,14,168,-95,-73,102,-107,-234,-273,-248,-209
-185,-165,19,175,-102,-73,102,-107,-234,-273,-258,-219
-185,-156,29,170,-107,-63,102,-107,-244,-283,-263,-234
-185,-156,29,170,-107,-63,102,-112,-244,-283,-263,-234
-185,-165,19,175,-102,-73,117,-112,-244,-283,-263,-234
-200,-165,34,183,-117,-65,122,-107,-244,-283,-268,-239
-204,-165,39,185,-122,-63,122,-107,-244,-283,-278,-248
-204,-165,39,185,-122,-63,126,-107,-244,-287,-278,-248
-204,-170,34,187,-119,-68,126,-107,-244,-287,-278,-248
-209,-175,34,192,-122,-70,131,-107,-248,-287,-283,-244
-209,-180,29,195,-119,-75,136,-102,-253,-287,-283,-244
-214,-185,29,200,-122,-78,131,-102,-253,-287,-283,-248
-214,-185,29,200,-122,-78,126,-102,-253,-287,-283,-248
-214,-175,39,195,-126,-68,131,-102,-258,-292,-292,-253
-214,-170,43,192,-129,-63,131,-102,-258,-292,-297,-258
-209,-170,39,190,-124,-65,136,-97,-258,-292,-297,-258
-209,-170,39,190,-124,-65,141,-97,-253,-292,-297,-258
-209,-175,34,192,-122,-70,146,-97,-253,-297,-302,-258
-209,-185,24,197,-117,-80,151,-97,-253,-297,-302,-258
-214,-185,29,200,-122,-78,156,-92,-253,-297,-302,-258
-219,-185,34,202,-126,-75,156,-92,-253,-292,-302,-263
-219,-185,34,202,-126,-75,161,-87,-248,-292,-297,-258
-219,-185,34,202,-126,-75,161,-78,-244,-292,-292,-253
-209,-175,34,192,-122,-70,156,-78,-239,-292,-292,-253
-195,-170,24,183,-109,-73,141,-73,-229,-278,-278,-244
-180,-146,34,163,-107,-56,97,-73,-214,-248,-248,-219
-136,-97,39,117,-87,-29,0,-97,-180,-204,-200,-175
-78,-78,0,78,-39,-39,-87,-126,-141,-141,-136,-122
-14,-29,-14,21,0,-21,-234,-234,-136,-112,-82,-58
73,19,-53,-46,63,-17,-414,-375,-136,-73,-4,29
214,122,-92,-168,153,14,-610,-502,-97,58,151,175
346,229,-117,-287,231,56,-839,-746,-63,165,302,326
492,366,-126,-429,309,119,-1137,-1317,-48,292,492,502
624,541,-82,-583,353,229,-1498,-2191,-97,419,692,707
732,746,14,-739,358,380,-1912,-3172,-219,556,936,941
854,932,78,-893,387,505,-2308,-4016,-336,727,1249,1215
1015,1073,58,-1044,478,566,-2596,-4489,-400,980,1629,1537
1298,1205,-92,-1251,695,556,-2864,-4714,-307,1390,2161,1952
1615,1346,-268,-1481,941,539,-3123,-4787,-53,1927,2786,2454
1898,1507,-390,-1703,1144,558,-3211,-4514,409,2654,3503,2981
2005,1625,-380,-1815,1193,622,-3240,-4245,658,3084,3967,3337
1952,1625,-326,-1788,1139,649,-3167,-4148,322,2864,3938,3459
1834,1449,-385,-1642,1110,531,-2918,-4030,-644,1556,3132,3245
1649,868,-780,-1259,1215,43,-2522,-3586,-1649,-87,1703,2547
1332,444,-888,-888,1110,-222,-2054,-3030,-2142,-1195,409,1712
888,341,-546,-614,717,-102,-1571,-2479,-2088,-1527,-356,976
566,283,-283,-424,424,0,-1102,-1795,-1639,-1302,-517,600
395,283,-112,-339,253,85,-780,-1283,-1205,-961,-414,448
244,200,-43,-222,143,78,-512,-888,-912,-785,-390,263
107,48,-58,-78,82,-4,-278,-575,-722,-663,-409,63
19,-19,-39,0,29,-29,-87,-297,-541,-531,-395,-48
-73,-87,-14,80,-29,-51,68,-92,-395,-448,-385,-156
-161,-131,29,146,-95,-51,180,53,-263,-366,-370,-234
-180,-156,24,168,-102,-65,244,165,-180,-302,-346,-268
-185,-156,29,170,-107,-63,287,229,-136,-278,-336,-278
-200,-161,39,180,-119,-61,297,263,-117,-263,-331,-283
-219,-180,39,200,-129,-70,317,287,-87,-253,-326,-292
-224,-180,43,202,-134,-68,322,312,-73,-244,-326,-302
-224,-180,43,202,-134,-68,331,336,-68,-234,-322,-312
-219,-185,34,202,-126,-75,341,366,-53,-224,-322,-312
-219,-190,29,204,-124,-80,346,390,-39,-214,-322,-317
-219,-195,24,207,-122,-85,351,400,-24,-209,-317,-317
-219,-195,24,207,-122,-85,351,419,-14,-200,-312,-322
-219,-190,29,204,-124,-80,351,434,-4,-195,-307,-322
-214,-185,29,200,-122,-78,351,444,4,-190,-307,-322
-214,-185,29,200,-122,-78,361,473,14,-185,-302,-322
-214,-185,29,200,-122,-78,366,502,29,-175,-297,-322
-209,-185,24,197,-117,-80,370,522,39,-170,-292,-322
-209,-185,24,197,-117,-80,370,541,53,-161,-292,-317
-209,-195,14,202,-112,-90,375,570,73,-151,-283,-317
-214,-200,14,207,-114,-92,380,595,92,-136,-283,-317
-209,-175,34,192,-122,-70,380,624,102,-122,-273,-317
-209,-151,58,180,-134,-46,380,649,117,-117,-273,-317
-204,-161,43,183,-124,-58,385,683,141,-102,-263,-317
-200,-165,34,183,-117,-65,390,722,165,-87,-258,-317
-195,-165,29,180,-112,-68,400,766,185,-63,-253,-317
-190,-170,19,180,-104,-75,414,814,214,-43,-239,-307
-180,-161,19,170,-100,-70,429,868,244,-24,-229,-307
-175,-161,14,168,-95,-73,439,922,283,-4,-224,-307
-165,-151,14,158,-90,-68,448,980,317,19,-214,-307
-161,-146,14,153,-87,-65,458,1049,356,43,-204,-307
-146,-146,0,146,-73,-73,478,1122,395,78,-180,-297
-141,-136,4,139,-73,-65,492,1195,434,112,-170,-292
-131,-131,0,131,-65,-65,507,1278,497,146,-161,-287
-122,-126,-4,124,-58,-65,522,1361,551,180,-136,-287
-102,-122,-19,112,-41,-70,546,1459,614,224,-117,-278
-87,-112,-24,100,-31,-68,570,1556,668,263,-97,-268
-73,-107,-34,90,-19,-70,595,1649,736,302,-78,-263
-58,-107,-48,82,-4,-78,619,1747,805,356,-48,-253
-43,-82,-39,63,-2,-61,639,1844,868,414,-19,-234
-14,-48,-34,31,9,-41,653,1937,932,458,4,-214
9,-34,-43,12,26,-39,663,2025,1005,507,39,-204
39,-24,-63,-7,51,-43,683,2117,1088,570,87,-175
58,-19,-78,-19,68,-48,688,2200,1151,629,126,-161
87,0,-87,-43,87,-43,688,2264,1215,692,175,-126
112,34,-78,-73,95,-21,692,2308,1273,746,209,-97
141,58,-82,-100,112,-12,692,2332,1327,795,253,-63
170,87,-82,-129,126,2,678,2318,1361,834,297,-29
195,117,-78,-156,136,19,653,2274,1376,868,346,19
219,141,-78,-180,148,31,610,2196,1371,883,385,63
244,175,-68,-209,156,53,566,2074,1351,888,419,107
263,195,-68,-229,165,63,502,1937,1312,888,458,151
278,214,-63,-246,170,75,439,1776,1234,878,478,195
287,229,-58,-258,173,85,390,1590,1141,839,488,239
287,229,-58,-258,173,85,326,1395,1044,780,488,263
278,229,-48,-253,163,90,278,1200,927,707,478,273
268,214,-53,-241,161,80,234,1034,805,634,444,273
239,200,-39,-219,139,80,190,868,688,556,395,253
219,175,-43,-197,131,65,161,717,590,478,346,219
185,146,-39,-165,112,53,131,580,488,385,283,180
146,122,-24,-134,85,48,107,473,380,312,219,151
117,97,-19,-107,68,39,102,375,292,239,156,117
82,63,-19,-73,51,21,92,292,219,170,102,73
48,43,-4,-46,26,19,82,214,156,102,58,24
19,14,-4,-17,12,4,82,161,97,48,9,-4
-9,0,9,4,-9,4,82,112,39,9,-39,-34
-24,-24,0,24,-12,-12,82,73,0,-29,-73,-58
-43,-43,0,43,-21,-21,92,34,-29,-58,-97,-82
-63,-58,4,61,-34,-26,97,9,-58,-82,-107,-92
-82,-63,19,73,-51,-21,97,-4,-87,-102,-131,-107
-92,-73,19,82,-56,-26,97,-29,-102,-122,-146,-122
-102,-78,24,90,-63,-26,102,-48,-117,-141,-156,-136
-107,-78,29,92,-68,-24,102,-58,-126,-161,-170,-146
-117,-82,34,100,-75,-24,102,-63,-146,-165,-185,-151
-117,-87,29,102,-73,-29,102,-73,-156,-175,-195,-161
-122,-87,34,104,-78,-26,102,-78,-156,-190,-200,-165
-122,-82,39,102,-80,-21,102,-82,-161,-195,-200,-170
-126,-82,43,104,-85,-19,102,-87,-165,-195,-204,-175
-126,-82,43,104,-85,-19,97,-87,-170,-200,-204,-180
-126,-82,43,104,-85,-19,97,-92,-170,-200,-204,-180
-126,-78,48,102,-87,-14,97,-92,-170,-200,-204,-180
-126,-78,48,102,-87,-14,97,-92,-170,-204,-209,-185
-126,-78,48,102,-87,-14,97,-92,-170,-204,-209,-185
-131,-82,48,107,-90,-17,102,-92,-165,-200,-209,-180
-131,-82,48,107,-90,-17,102,-87,-161,-195,-209,-175
-131,-97,34,114,-82,-31,102,-82,-161,-195,-204,-175
-131,-112,19,122,-75,-46,102,-78,-161,-195,-204,-175
-136,-97,39,117,-87,-29,102,-78,-161,-195,-204,-175
-136,-87,48,112,-92,-19,102,-78,-161,-200,-204,-180
-136,-92,43,114,-90,-24,102,-78,-165,-195,-204,-175
-136,-97,39,117,-87,-29,107,-78,-165,-190,-200,-170
-136,-97,39,117,-87,-29,107,-73,-161,-190,-200,-170
-136,-92,43,114,-90,-24,107,-73,-161,-190,-200,-170
-136,-92,43,114,-90,-24,112,-73,-161,-190,-200,-170
-136,-92,43,114,-90,-24,112,-73,-161,-190,-200,-170
-136,-102,34,119,-85,-34,112,-68,-161,-190,-200,-170
-141,-107,34,124,-87,-36,112,-68,-156,-185,-200,-170
-146,-107,39,126,-92,-34,112,-63,-156,-185,-200,-170
-151,-107,43,129,-97,-31,112,-58,-156,-190,-200,-170
-151,-102,48,126,-100,-26,112,-63,-161,-190,-200,-180
-151,-97,53,124,-102,-21,112,-63,-161,-195,-204,-185
-156,-92,63,124,-109,-14,112,-68,-161,-195,-209,-185
-156,-87,68,122,-112,-9,112,-73,-170,-200,-214,-185
-156,-87,68,122,-112,-9,112,-73,-170,-200,-214,-190
-156,-87,68,122,-112,-9,112,-73,-170,-200,-214,-190
-156,-92,63,124,-109,-14,112,-73,-175,-200,-214,-185
-156,-92,63,124,-109,-14,112,-78,-175,-204,-214,-185
-151,-102,48,126,-100,-26,117,-78,-170,-204,-214,-185
-146,-112,34,129,-90,-39,122,-78,-170,-209,-214,-185
-146,-122,24,134,-85,-48,117,-78,-170,-209,-214,-185
-151,-131,19,141,-85,-56,117,-82,-170,-209,-214,-190
-156,-117,39,136,-97,-39,117,-87,-180,-214,-219,-190
-161,-107,53,134,-107,-26,117,-87,-185,-219,-224,-190
-161,-112,48,136,-104,-31,117,-87,-185,-224,-224,-195
-161,-112,48,136,-104,-31,112,-87,-195,-229,-224,-200
-161,-112,48,136,-104,-31,107,-87,-195,-229,-224,-200
-161,-122,39,141,-100,-41,107,-87,-195,-234,-229,-204
-165,-112,53,139,-109,-29,107,-92,-200,-234,-229,-204
-165,-102,63,134,-114,-19,102,-97,-200,-239,-234,-209
-165,-112,53,139,-109,-29,102,-92,-204,-239,-234,-209
-165,-117,48,141,-107,-34,97,-92,-209,-234,-234,-209
-165,-122,43,143,-104,-39,97,-92,-209,-234,-234,-204
-165,-131,34,148,-100,-48,102,-92,-209,-234,-234,-200
-165,-131,34,148,-100,-48,107,-92,-204,-239,-239,-204
-165,-131,34,148,-100,-48,112,-97,-204,-239,-239,-204
-161,-131,29,146,-95,-51,117,-92,-204,-239,-239,-204
-156,-131,24,143,-90,-53,122,-87,-204,-239,-239,-204
-156,-92,63,124,-109,-14,122,-78,-200,-234,-234,-200
-151,-53,97,102,-124,21,131,-68,-200,-229,-229,-190
-151,-68,82,109,-117,7,141,-68,-190,-224,-224,-190
-146,-73,73,109,-109,0,156,-63,-180,-214,-219,-190
-146,-63,82,104,-114,9,165,-63,-175,-209,-209,-185
-141,-58,82,100,-112,12,165,-58,-170,-204,-204,-180
-126,-43,82,85,-104,19,165,-53,-161,-200,-204,-175
-107,-34,73,70,-90,19,156,-48,-151,-190,-190,-170
-97,-9,87,53,-92,39,126,-58,-151,-190,-190,-165
-92,14,107,39,-100,61,97,-68,-156,-190,-190,-161
-73,39,112,17,-92,75,58,-82,-151,-180,-175,-141
-58,68,126,-4,-92,97,19,-97,-146,-175,-165,-126
-53,68,122,-7,-87,95,19,-87,-146,-170,-161,-117
-48,68,117,-9,-82,92,19,-78,-146,-165,-156,-107
-48,68,117,-9,-82,92,19,-78,-146,-161,-146,-102
-53,58,112,-2,-82,85,19,-82,-151,-165,-146,-102
-58,53,112,2,-85,82,19,-92,-156,-170,-151,-107
-58,34,92,12,-75,63,29,-97,-165,-175,-156,-112
-58,9,68,24,-63,39,29,-107,-180,-190,-161,-112
-58,-24,34,41,-46,4,34,-122,-200,-214,-170,-122
-82,-58,24,70,-53,-17,48,-122,-214,-234,-200,-146
-102,-97,4,100,-53,-46,63,-117,-224,-248,-214,-180
-146,-131,14,139,-80,-58,78,-112,-224,-253,-244,-214
-165,-131,34,148,-100,-48,87,-107,-224,-253,-253,-224
-170,-131,39,151,-104,-46,87,-107,-224,-253,-258,-229
-170,-136,34,153,-102,-51,92,-107,-234,-263,-268,-234
-175,-141,34,158,-104,-53,92,-107,-234,-268,-268,-239
-185,-156,29,170,-107,-63,97,-107,-234,-273,-278,-244
-185,-161,24,173,-104,-68,97,-112,-244,-283,-278,-248
-185,-165,19,175,-102,-73,92,-117,-244,-283,-273,-244
-185,-180,4,183,-95,-87,107,-112,-244,-278,-273,-244
-195,-185,9,190,-102,-87,112,-107,-244,-273,-273,-244
-200,-185,14,192,-107,-85,122,-107,-244,-273,-278,-248
-204,-185,19,195,-112,-82,136,-107,-244,-278,-278,-248
-204,-185,19,195,-112,-82,126,-107,-244,-278,-283,-253
-209,-180,29,195,-119,-75,122,-107,-244,-278,-292,-258
-209,-180,29,195,-119,-75,126,-102,-244,-283,-292,-263
-214,-185,29,200,-122,-78,126,-102,-244,-287,-292,-268
-214,-180,34,197,-124,-73,126,-102,-244,-287,-292,-268
-214,-170,43,192,-129,-63,131,-102,-248,-292,-297,-268
-214,-170,43,192,-129,-63,136,-102,-248,-292,-297,-268
-214,-170,43,192,-129,-63,146,-97,-248,-292,-297,-268
-219,-175,43,197,-131,-65,151,-92,-244,-287,-292,-268
-219,-180,39,200,-129,-70,151,-87,-244,-287,-292,-268
-219,-185,34,202,-126,-75,151,-87,-239,-287,-292,-263
-219,-185,34,202,-126,-75,156,-82,-234,-287,-292,-258
-219,-185,34,202,-126,-75,156,-82,-234,-283,-292,-263
-219,-185,34,202,-126,-75,161,-82,-234,-283,-292,-263
-224,-185,39,204,-131,-73,161,-78,-244,-287,-297,-268
-224,-175,48,200,-136,-63,156,-78,-248,-292,-302,-273
-219,-175,43,197,-131,-65,156,-68,-239,-287,-302,-268
-209,-170,39,190,-124,-65,141,-63,-224,-273,-287,-248
-170,-151,19,161,-95,-65,87,-68,-190,-239,-244,-214
-122,-136,-14,129,-53,-75,29,-78,-156,-185,-190,-170
-78,-82,-4,80,-36,-43,-102,-165,-156,-175,-161,-126
-14,-39,-24,26,4,-31,-263,-283,-156,-151,-102,-63
117,39,-78,-78,97,-19,-424,-307,-112,-29,39,68
248,122,-126,-185,187,-2,-614,-439,-73,68,175,209
405,258,-146,-331,275,56,-873,-824,-34,180,341,366
541,434,-107,-488,324,163,-1190,-1527,-48,312,541,566
629,639,9,-634,309,324,-1600,-2654,-170,424,761,790
736,834,97,-785,319,466,-2005,-3669,-317,551,1034,1049
854,985,131,-919,361,558,-2318,-4348,-502,697,1351,1346
1068,1127,58,-1098,505,592,-2601,-4797,-546,1000,1830,1737
1405,1293,-112,-1349,758,590,-2908,-5016,-390,1493,2474,2249
1732,1468,-263,-1600,997,602,-3074,-4880,-19,2171,3211,2801
1917,1659,-258,-1788,1088,700,-3191,-4596,492,3045,4040,3342
1942,1722,-219,-1832,1080,751,-3201,-4392,502,3264,4313,3616
1864,1659,-204,-1761,1034,727,-3040,-4343,-390,2088,3723,3616
1737,1200,-536,-1468,1137,331,-2727,-3986,-1366,580,2518,3093
1459,639,-819,-1049,1139,-90,-2278,-3391,-2122,-917,854,2088
1044,409,-634,-727,839,-112,-1805,-2849,-2322,-1634,-248,1229
673,361,-312,-517,492,24,-1288,-2122,-1864,-1459,-512,751
458,341,-117,-400,287,112,-917,-1556,-1439,-1156,-507,502
307,239,-68,-273,187,85,-629,-1102,-1078,-922,-448,322
156,87,-68,-122,112,9,-380,-732,-819,-751,-434,122
63,9,-53,-36,58,-21,-170,-424,-619,-595,-414,-4
-29,-68,-39,48,4,-53,0,-190,-453,-488,-405,-122
-126,-117,9,122,-68,-53,122,-9,-297,-395,-390,-214
-161,-146,14,153,-87,-65,204,136,-190,-322,-366,-268
-165,-146,19,156,-92,-63,253,209,-146,-292,-356,-278
-175,-146,29,161,-102,-58,268,253,-126,-273,-351,-283
-200,-180,19,190,-109,-80,297,283,-87,-258,-341,-292
-214,-200,14,207,-114,-92,312,312,-63,-244,-336,-302
-214,-190,24,202,-119,-82,322,336,-58,-234,-331,-317
-214,-185,29,200,-122,-78,331,361,-43,-224,-331,-322
-214,-190,24,202,-119,-82,336,380,-29,-214,-331,-326
-209,-195,14,202,-112,-90,341,390,-14,-209,-326,-326
-209,-195,14,202,-112,-90,341,409,-9,-200,-322,-331
-209,-190,19,200,-114,-85,341,424,-4,-195,-317,-331
-204,-185,19,195,-112,-82,341,434,4,-190,-317,-331
-204,-185,19,195,-112,-82,346,458,14,-185,-312,-331
-204,-185,19,195,-112,-82,346,483,34,-170,-307,-331
-200,-185,14,192,-107,-85,351,502,48,-161,-302,-331
-200,-185,14,192,-107,-85,351,522,63,-151,-302,-326
-195,-185,9,190,-102,-87,356,551,82,-141,-292,-326
-195,-180,14,187,-104,-82,361,575,102,-126,-292,-326
-190,-180,9,185,-100,-85,366,605,117,-112,-283,-326
-190,-180,9,185,-100,-85,370,624,131,-112,-283,-326
-185,-180,4,183,-95,-87,375,653,151,-102,-273,-326
-180,-175,4,178,-92,-85,375,692,175,-92,-273,-326
-175,-170,4,173,-90,-82,375,732,195,-73,-273,-326
-170,-165,4,168,-87,-80,385,771,219,-53,-258,-317
-161,-151,9,156,-85,-70,395,814,244,-34,-248,-317
-161,-151,9,156,-85,-70,400,854,283,-14,-244,-317
-156,-141,14,148,-85,-63,409,902,317,9,-234,-317
-151,-146,4,148,-78,-70,419,971,356,34,-219,-317
-136,-156,-19,146,-58,-87,439,1044,400,68,-190,-307
-131,-151,-19,141,-56,-85,453,1117,444,102,-180,-302
-122,-151,-29,136,-46,-90,468,1200,507,136,-170,-297
-112,-146,-34,129,-39,-90,483,1283,556,165,-151,-297
-92,-141,-48,117,-21,-95,502,1371,614,209,-136,-287
-78,-126,-48,102,-14,-87,522,1454,663,253,-117,-283
-63,-107,-43,85,-9,-75,541,1542,727,292,-97,-283
-48,-97,-48,73,0,-73,561,1639,795,346,-73,-273
-34,-82,-48,58,7,-65,580,1737,868,409,-43,-253
-9,-63,-53,36,21,-58,595,1834,946,453,-14,-234
9,-53,-63,21,36,-58,605,1927,1024,502,19,-219
39,-43,-82,2,61,-63,624,2025,1107,570,63,-185
58,-29,-87,-14,73,-58,629,2113,1180,629,97,-170
87,0,-87,-43,87,-43,634,2186,1254,692,146,-141
112,24,-87,-68,100,-31,644,2239,1312,751,190,-112
141,39,-102,-90,122,-31,649,2283,1381,814,244,-78
170,68,-102,-119,136,-17,639,2303,1434,868,287,-48
195,97,-97,-146,146,0,619,2293,1464,912,341,0
219,122,-97,-170,158,12,590,2249,1473,941,390,48
248,156,-92,-202,170,31,561,2152,1473,956,429,102
268,170,-97,-219,183,36,512,2025,1449,956,468,151
278,185,-92,-231,185,46,458,1878,1376,961,497,200
287,200,-87,-244,187,56,414,1712,1283,936,527,248
297,209,-87,-253,192,61,351,1522,1190,893,546,287
292,219,-73,-256,183,73,297,1327,1083,834,546,312
278,209,-68,-244,173,70,253,1161,961,761,517,312
248,204,-43,-226,146,80,209,995,829,673,463,292
229,185,-43,-207,136,70,180,824,712,585,405,258
195,156,-39,-175,117,58,156,668,605,492,341,219
156,131,-24,-143,90,53,136,561,492,419,283,195
126,107,-19,-117,73,43,131,463,395,341,224,165
92,73,-19,-82,56,26,112,370,312,258,170,122
58,53,-4,-56,31,24,92,283,244,180,122,73
24,24,0,-24,12,12,92,229,185,126,68,43
-9,9,19,0,-14,14,92,180,122,78,19,9
-24,-19,4,21,-14,-7,92,126,63,24,-24,-19
-43,-39,4,41,-24,-17,97,73,19,-14,-63,-48
-63,-48,14,56,-39,-17,97,48,-9,-53,-78,-63
-82,-53,29,68,-56,-12,97,34,-43,-82,-107,-82
-92,-63,29,78,-61,-17,97,9,-68,-102,-131,-107
-102,-73,29,87,-65,-21,102,-9,-87,-122,-146,-126
-107,-78,29,92,-68,-24,102,-24,-97,-141,-165,-141
-117,-82,34,100,-75,-24,102,-34,-117,-146,-180,-146
-117,-87,29,102,-73,-29,102,-43,-126,-156,-185,-151
-122,-92,29,107,-75,-31,102,-48,-126,-165,-190,-156
-122,-92,29,107,-75,-31,102,-53,-131,-165,-190,-161
-126,-92,34,109,-80,-29,102,-58,-136,-165,-195,-161
-126,-92,34,109,-80,-29,97,-58,-141,-170,-195,-161
-126,-92,34,109,-80,-29,97,-63,-141,-170,-195,-161
-131,-92,39,112,-85,-26,102,-63,-141,-170,-195,-161
-136,-97,39,117,-87,-29,107,-63,-141,-175,-200,-165
-136,-97,39,117,-87,-29,107,-63,-141,-180,-200,-165
-141,-102,39,122,-90,-31,112,-63,-141,-185,-200,-165
-141,-102,39,122,-90,-31,112,-58,-146,-185,-200,-165
-141,-102,39,122,-90,-31,112,-58,-151,-185,-200,-165
-136,-102,34,119,-85,-34,112,-63,-151,-185,-204,-165
-136,-97,39,117,-87,-29,112,-68,-151,-185,-204,-165
-136,-97,39,117,-87,-29,112,-68,-151,-190,-204,-170
-136,-102,34,119,-85,-34,112,-68,-156,-190,-204,-170
-136,-107,29,122,-82,-39,117,-63,-151,-185,-195,-165
-136,-107,29,122,-82,-39,117,-53,-141,-180,-190,-161
-136,-102,34,119,-85,-34,117,-53,-141,-180,-190,-161
-136,-102,34,119,-85,-34,122,-53,-141,-180,-190,-161
-136,-102,34,119,-85,-34,122,-58,-141,-185,-195,-170
-136,-107,29,122,-82,-39,122,-58,-141,-190,-200,-180
-141,-107,34,124,-87,-36,122,-58,-141,-190,-200,-180
-141,-107,34,124,-87,-36,122,-58,-146,-195,-200,-180
-141,-102,39,122,-90,-31,122,-58,-156,-200,-204,-180
-141,-97,43,119,-92,-26,122,-63,-170,-200,-209,-185
-141,-97,43,119,-92,-26,122,-63,-161,-200,-214,-185
-146,-97,48,122,-97,-24,122,-63,-151,-195,-214,-185
-146,-102,43,124,-95,-29,122,-58,-156,-200,-204,-180
-146,-107,39,126,-92,-34,122,-53,-151,-200,-195,-180
-146,-107,39,126,-92,-34,117,-53,-151,-200,-195,-180
-146,-112,34,129,-90,-39,112,-53,-156,-200,-200,-180
-146,-97,48,122,-97,-24,112,-58,-156,-204,-204,-185
-146,-87,58,117,-102,-14,112,-58,-156,-204,-204,-185
-146,-107,39,126,-92,-34,117,-58,-161,-209,-204,-185
-146,-122,24,134,-85,-48,117,-58,-161,-209,-204,-185
-151,-122,29,136,-90,-46,117,-63,-165,-209,-214,-190
-151,-117,34,134,-92,-41,117,-68,-175,-214,-229,-190
-151,-117,34,134,-92,-41,117,-73,-175,-219,-234,-190
-151,-122,29,136,-90,-46,117,-78,-175,-219,-234,-190
-151,-117,34,134,-92,-41,112,-78,-185,-219,-229,-195
-151,-112,39,131,-95,-36,112,-78,-185,-219,-224,-200
-151,-122,29,136,-90,-46,117,-73,-185,-224,-229,-204
-156,-122,34,139,-95,-43,117,-73,-190,-224,-229,-204
-156,-122,34,139,-95,-43,112,-78,-190,-229,-234,-204
-156,-122,34,139,-95,-43,112,-78,-195,-234,-234,-200
-156,-122,34,139,-95,-43,107,-82,-200,-234,-229,-200
-156,-126,29,141,-92,-48,107,-82,-200,-234,-224,-200
-156,-136,19,146,-87,-58,112,-82,-190,-234,-224,-200
-156,-141,14,148,-85,-63,112,-82,-180,-239,-229,-204
-161,-141,19,151,-90,-61,112,-87,-195,-239,-234,-204
-165,-141,24,153,-95,-58,112,-87,-204,-239,-239,-204
-165,-131,34,148,-100,-48,107,-87,-204,-239,-239,-204
-165,-117,48,141,-107,-34,102,-82,-200,-239,-239,-204
-156,-102,53,129,-104,-24,112,-78,-195,-239,-239,-200
-151,-92,58,122,-104,-17,112,-78,-190,-239,-239,-200
-146,-82,63,114,-104,-9,126,-68,-190,-234,-239,-200
-146,-68,78,107,-112,4,146,-63,-185,-229,-229,-195
-141,-63,78,102,-109,7,146,-58,-180,-224,-224,-190
-136,-53,82,95,-109,14,156,-53,-170,-219,-224,-185
-131,-53,78,92,-104,12,156,-48,-161,-204,-209,-180
-126,-53,73,90,-100,9,161,-43,-161,-200,-200,-180
-117,-43,73,80,-95,14,156,-48,-161,-200,-195,-175
-107,-24,82,65,-95,29,141,-53,-156,-190,-190,-161
-92,0,92,46,-92,46,107,-58,-151,-185,-180,-146
-78,29,107,24,-92,68,73,-68,-151,-185,-175,-136
-68,48,117,9,-92,82,43,-73,-146,-180,-165,-126
-58,68,126,-4,-92,97,19,-78,-146,-175,-156,-117
-53,68,122,-7,-87,95,19,-78,-146,-175,-156,-112
-48,68,117,-9,-82,92,19,-78,-146,-175,-156,-107
-48,63,112,-7,-80,87,19,-78,-146,-170,-151,-102
-48,53,102,-2,-75,78,19,-82,-151,-175,-151,-102
-53,48,102,2,-78,75,19,-92,-156,-180,-156,-107
-48,34,82,7,-65,58,29,-97,-165,-185,-156,-112
-53,9,63,21,-58,36,34,-102,-180,-200,-165,-117
-58,-24,34,41,-46,4,43,-112,-200,-224,-180,-131
-82,-58,24,70,-53,-17,58,-112,-209,-244,-214,-156
-102,-97,4,100,-53,-46,73,-107,-214,-258,-234,-190
-141,-131,9,136,-75,-61,87,-102,-214,-263,-258,-214
-156,-131,24,143,-90,-53,97,-97,-214,-263,-263,-214
-161,-131,29,146,-95,-51,97,-97,-214,-263,-263,-214
-161,-136,24,148,-92,-56,102,-97,-224,-273,-268,-214
-165,-146,19,156,-92,-63,102,-92,-224,-273,-263,-219
-175,-165,9,170,-92,-78,107,-87,-224,-273,-268,-224
-175,-165,9,170,-92,-78,112,-87,-234,-278,-273,-224
-175,-165,9,170,-92,-78,112,-87,-234,-273,-273,-214
-175,-175,0,175,-87,-87,126,-82,-234,-273,-273,-224
-185,-175,9,180,-97,-82,131,-78,-234,-273,-273,-234
-185,-175,9,180,-97,-82,131,-78,-229,-273,-278,-239
-185,-175,9,180,-97,-82,136,-78,-224,-278,-278,-239
-185,-175,9,180,-97,-82,136,-78,-224,-283,-283,-239
-190,-170,19,180,-104,-75,141,-78,-224,-287,-292,-239
-190,-161,29,175,-109,-65,146,-73,-239,-297,-292,-244
-195,-156,39,175,-117,-58,146,-73,-253,-307,-292,-248
-195,-165,29,180,-112,-68,146,-73,-244,-297,-292,-248
-195,-170,24,183,-109,-73,151,-73,-239,-292,-297,-248
-195,-190,4,192,-100,-92,156,-68,-234,-283,-287,-244
-195,-209,-14,202,-90,-112,165,-58,-229,-273,-278,-239
-200,-200,0,200,-100,-100,170,-58,-224,-273,-278,-239
-200,-190,9,195,-104,-90,170,-58,-224,-278,-283,-239
-200,-190,9,195,-104,-90,165,-58,-224,-283,-283,-239
-200,-185,14,192,-107,-85,165,-53,-224,-287,-283,-239
-200,-175,24,187,-112,-75,165,-58,-229,-287,-287,-248
-200,-165,34,183,-117,-65,170,-63,-234,-292,-292,-253
-200,-180,19,190,-109,-80,175,-58,-234,-292,-292,-253
-195,-185,9,190,-102,-87,175,-58,-229,-292,-292,-253
-190,-185,4,187,-97,-90,175,-48,-214,-278,-278,-244
-180,-180,0,180,-90,-90,161,-43,-195,-253,-248,-219
-146,-146,0,146,-73,-73,82,-68,-161,-214,-200,-180
-102,-117,-14,109,-43,-65,0,-97,-126,-156,-141,-131
-63,-63,0,63,-31,-31,-131,-204,-136,-131,-102,-73
-4,-19,-14,12,4,-17,-292,-341,-146,-92,-34,4
117,73,-43,-95,80,14,-463,-409,-97,43,122,146
239,170,-68,-204,153,51,-663,-585,-53,156,273,297
380,307,-73,-344,226,117,-936,-1107,-29,307,483,478
502,483,-19,-492,261,231,-1268,-1947,-58,478,727,702
590,707,117,-649,236,412,-1668,-2971,-185,639,1000,951
697,922,224,-810,236,573,-2064,-3884,-336,814,1327,1234
810,1098,287,-954,261,692,-2361,-4445,-488,1068,1732,1576
1019,1263,244,-1141,387,753,-2630,-4777,-497,1478,2298,2010
1302,1420,117,-1361,592,768,-2923,-5021,-341,2083,3040,2581
1576,1586,9,-1581,783,797,-3074,-4909,29,2874,3874,3191
1722,1751,29,-1737,846,890,-3162,-4640,458,3596,4592,3674
1708,1790,82,-1749,812,936,-3142,-4450,385,3664,4753,3889
1634,1659,24,-1647,805,841,-2928,-4274,-561,2235,3996,3801
1512,1132,-380,-1322,946,375,-2562,-3791,-1590,473,2625,3191
1244,595,-649,-919,946,-26,-2103,-3176,-2235,-990,897,2127
839,390,-448,-614,644,-29,-1620,-2615,-2322,-1673,-268,1210
531,341,-190,-436,361,75,-1141,-1908,-1810,-1449,-483,751
380,322,-58,-351,219,131,-810,-1361,-1332,-1098,-429,522
258,219,-39,-239,148,90,-541,-946,-1000,-883,-400,336
136,68,-68,-102,102,0,-312,-614,-771,-732,-414,131
48,-4,-53,-21,51,-29,-112,-322,-570,-580,-395,0
-39,-78,-39,58,0,-58,48,-102,-405,-478,-385,-122
-126,-122,4,124,-65,-58,151,53,-258,-390,-370,-204
-151,-146,4,148,-78,-70,214,175,-161,-322,-346,-248
-156,-170,-14,163,-70,-92,278,248,-107,-283,-336,-258
-165,-195,-29,180,-68,-112,307,292,-78,-253,-331,-263
-180,-200,-19,190,-80,-109,317,317,-48,-244,-326,-273
-185,-190,-4,187,-90,-97,312,341,-34,-234,-326,-283
-185,-190,-4,187,-90,-97,322,366,-29,-229,-322,-292
-185,-195,-9,190,-87,-102,331,390,-14,-224,-322,-292
-190,-200,-9,195,-90,-104,336,409,0,-219,-322,-297
-190,-204,-14,197,-87,-109,341,419,14,-219,-317,-297
-190,-200,-9,195,-90,-104,341,434,19,-209,-317,-307
-190,-190,0,190,-95,-95,341,444,24,-204,-317,-312
-185,-185,0,185,-92,-92,341,453,34,-200,-317,-312
-185,-185,0,185,-92,-92,346,478,43,-195,-312,-312
-185,-190,-4,187,-90,-97,346,502,58,-185,-307,-312
-180,-195,-14,187,-82,-104,351,522,68,-180,-302,-312
-180,-195,-14,187,-82,-104,346,536,82,-170,-302,-307
-175,-195,-19,185,-78,-107,346,561,102,-161,-292,-307
-175,-190,-14,183,-80,-102,351,585,122,-146,-292,-307
-170,-190,-19,180,-75,-104,356,614,136,-131,-283,-307
-170,-185,-14,178,-78,-100,361,634,156,-131,-283,-307
-165,-180,-14,173,-75,-97,366,663,180,-122,-273,-307
-161,-175,-14,168,-73,-95,370,702,204,-107,-268,-307
-156,-170,-14,163,-70,-92,375,741,224,-82,-263,-307
-151,-175,-24,163,-63,-100,385,785,253,-63,-248,-292
-141,-170,-29,156,-56,-100,395,834,283,-43,-239,-287
-136,-170,-34,153,-51,-102,400,878,322,-24,-239,-287
-126,-161,-34,143,-46,-97,409,932,356,0,-234,-287
-126,-141,-14,134,-56,-78,414,995,395,24,-224,-292
-117,-126,-9,122,-53,-68,429,1063,439,58,-200,-287
-112,-131,-19,122,-46,-75,444,1137,488,102,-190,-283
-102,-141,-39,122,-31,-90,458,1220,556,146,-180,-278
-92,-141,-48,117,-21,-95,473,1302,614,180,-151,-273
-73,-141,-68,107,-2,-104,492,1390,683,229,-126,-258
-58,-131,-73,95,7,-102,512,1478,741,273,-107,-248
-43,-117,-73,80,14,-95,531,1571,814,312,-87,-244
-34,-107,-73,70,19,-90,551,1668,883,366,-58,-234
-24,-92,-68,58,21,-80,570,1766,956,429,-24,-214
0,-68,-68,34,34,-68,585,1859,1039,483,4,-195
19,-53,-73,17,46,-63,595,1947,1122,541,39,-180
48,-43,-92,-2,70,-68,614,2039,1205,610,87,-146
68,-29,-97,-19,82,-63,619,2122,1278,668,126,-131
92,4,-87,-48,90,-41,619,2186,1361,736,175,-107
112,34,-78,-73,95,-21,624,2230,1429,800,219,-82
141,48,-92,-95,117,-21,629,2269,1488,858,273,-43
170,78,-92,-124,131,-7,619,2283,1532,907,317,-9
195,107,-87,-151,141,9,600,2264,1561,961,375,39
219,131,-87,-175,153,21,570,2210,1571,1000,429,87
244,165,-78,-204,161,43,541,2117,1561,1024,473,141
258,180,-78,-219,168,51,492,1995,1527,1034,517,190
268,195,-73,-231,170,61,439,1849,1449,1029,541,234
278,209,-68,-244,173,70,395,1683,1351,995,566,278
278,209,-68,-244,173,70,336,1493,1244,936,575,307
263,209,-53,-236,158,78,287,1298,1122,863,566,322
253,209,-43,-231,148,82,244,1132,995,785,531,322
229,214,-14,-222,122,100,200,966,858,692,473,302
214,180,-34,-197,124,73,175,814,736,605,419,273
185,136,-48,-161,117,43,156,678,624,512,361,239
146,112,-34,-129,90,39,136,561,507,434,297,209
117,87,-29,-102,73,29,131,453,405,351,234,175
82,53,-29,-68,56,12,117,361,317,268,180,131
48,34,-14,-41,31,9,102,273,244,190,131,82
19,4,-14,-12,17,-4,102,214,180,131,73,53
-9,-9,0,9,-4,-4,102,161,112,78,19,19
-19,-29,-9,24,-4,-19,97,122,63,24,-24,-9
-34,-39,-4,36,-14,-21,97,82,29,-14,-63,-39
-53,-48,4,51,-29,-21,97,58,-4,-48,-78,-53
-73,-53,19,63,-46,-17,97,43,-43,-73,-107,-73
-87,-63,24,75,-56,-19,97,19,-63,-92,-126,-92
-102,-73,29,87,-65,-21,102,0,-78,-112,-136,-107
-107,-82,24,95,-65,-29,107,-9,-87,-136,-151,-122
-117,-92,24,104,-70,-34,112,-14,-107,-146,-161,-126
-117,-97,19,107,-68,-39,112,-24,-117,-156,-165,-131
-122,-102,19,112,-70,-41,112,-29,-117,-165,-170,-136
-122,-102,19,112,-70,-41,112,-34,-122,-165,-170,-141
-126,-102,24,114,-75,-39,112,-39,-126,-165,-175,-141
-126,-102,24,114,-75,-39,107,-43,-136,-170,-180,-141
-126,-102,24,114,-75,-39,107,-53,-141,-170,-185,-141
-126,-92,34,109,-80,-29,107,-53,-141,-170,-185,-141
-126,-87,39,107,-82,-24,107,-53,-141,-175,-190,-146
-122,-87,34,104,-78,-26,107,-53,-141,-175,-190,-146
-122,-92,29,107,-75,-31,112,-53,-141,-175,-190,-146
-122,-97,24,109,-73,-36,112,-43,-141,-175,-190,-146
-122,-102,19,112,-70,-41,112,-39,-141,-175,-190,-146
-122,-102,19,112,-70,-41,112,-39,-136,-175,-190,-146
-126,-97,29,112,-78,-34,112,-39,-131,-175,-185,-146
-126,-92,34,109,-80,-29,112,-43,-131,-180,-185,-151
-126,-92,34,109,-80,-29,112,-48,-136,-180,-185,-151
-126,-97,29,112,-78,-34,117,-48,-141,-180,-180,-151
-126,-97,29,112,-78,-34,117,-43,-141,-180,-180,-151
-131,-92,39,112,-85,-26,117,-43,-141,-180,-180,-151
-136,-92,43,114,-90,-24,122,-43,-141,-180,-180,-151
-136,-92,43,114,-90,-24,122,-48,-141,-180,-180,-151
-136,-97,39,117,-87,-29,122,-48,-141,-180,-180,-151
-141,-97,43,119,-92,-26,122,-48,-136,-175,-180,-151
-141,-97,43,119,-92,-26,122,-48,-136,-175,-180,-151
-141,-97,43,119,-92,-26,122,-43,-136,-180,-180,-146
-141,-97,43,119,-92,-26,122,-43,-141,-180,-180,-146
-136,-97,39,117,-87,-29,122,-43,-141,-185,-185,-146
-136,-97,39,117,-87,-29,122,-43,-141,-185,-185,-146
-136,-97,39,117,-87,-29,122,-48,-151,-190,-185,-151
-136,-97,39,117,-87,-29,122,-53,-151,-190,-185,-161
-141,-102,39,122,-90,-31,122,-53,-151,-190,-185,-161
-146,-112,34,129,-90,-39,122,-53,-156,-190,-190,-161
-146,-112,34,129,-90,-39,122,-58,-156,-195,-195,-165
-146,-117,29,131,-87,-43,122,-58,-156,-195,-195,-165
-146,-122,24,134,-85,-48,122,-58,-161,-200,-200,-170
-146,-122,24,134,-85,-48,117,-58,-161,-200,-204,-175
-151,-122,29,136,-90,-46,117,-63,-161,-200,-204,-180
-151,-117,34,134,-92,-41,117,-68,-165,-204,-209,-180
-151,-117,34,134,-92,-41,117,-68,-170,-209,-209,-180
-151,-122,29,136,-90,-46,117,-68,-175,-209,-204,-180
-151,-117,34,134,-92,-41,112,-68,-185,-209,-204,-180
-151,-112,39,131,-95,-36,112,-68,-185,-209,-204,-180
-151,-122,29,136,-90,-46,117,-68,-185,-214,-214,-185
-156,-122,34,139,-95,-43,117,-73,-190,-214,-219,-185
-156,-122,34,139,-95,-43,112,-78,-190,-219,-224,-190
-156,-122,34,139,-95,-43,112,-78,-195,-224,-224,-190
-156,-122,34,139,-95,-43,107,-82,-200,-224,-219,-190
-156,-126,29,141,-92,-48,107,-82,-200,-224,-214,-190
-156,-131,24,143,-90,-53,112,-82,-200,-224,-214,-190
-156,-131,24,143,-90,-53,112,-82,-200,-229,-219,-195
-156,-131,24,143,-90,-53,117,-82,-200,-229,-219,-190
-156,-131,24,143,-90,-53,122,-78,-195,-229,-219,-185
-151,-131,19,141,-85,-56,122,-78,-195,-224,-214,-185
-146,-126,19,136,-82,-53,122,-73,-190,-219,-209,-185
-141,-102,39,122,-90,-31,136,-63,-180,-209,-209,-175
-141,-82,58,112,-100,-12,141,-58,-170,-200,-209,-170
-136,-73,63,104,-100,-4,146,-53,-170,-204,-209,-170
-136,-58,78,97,-107,9,156,-53,-165,-209,-200,-165
-131,-48,82,90,-107,17,151,-53,-170,-204,-200,-165
-126,-34,92,80,-109,29,156,-53,-170,-200,-204,-165
-112,-19,92,65,-102,36,146,-48,-161,-190,-195,-161
-92,4,97,43,-95,51,141,-43,-161,-190,-185,-156
-87,4,92,41,-90,48,107,-53,-156,-180,-175,-141
-87,9,97,39,-92,53,78,-68,-156,-175,-165,-126
-73,24,97,24,-85,61,43,-73,-151,-170,-156,-112
-58,39,97,9,-78,68,9,-78,-146,-165,-146,-97
-53,53,107,0,-80,80,9,-78,-141,-161,-136,-97
-48,68,117,-9,-82,92,9,-78,-136,-156,-126,-97
-43,63,107,-9,-75,85,9,-78,-141,-156,-126,-92
-43,53,97,-4,-70,75,9,-82,-146,-161,-131,-92
-48,48,97,0,-73,73,14,-92,-156,-170,-141,-97
-48,34,82,7,-65,58,29,-97,-165,-175,-146,-102
-53,9,63,21,-58,36,29,-102,-180,-190,-156,-102
-58,-24,34,41,-46,4,34,-112,-200,-214,-170,-112
-82,-63,19,73,-51,-21,53,-112,-209,-229,-200,-136
-102,-107,-4,104,-48,-56,73,-107,-214,-239,-214,-170
-146,-141,4,143,-75,-68,87,-102,-214,-244,-234,-200
-165,-141,24,153,-95,-58,97,-97,-214,-244,-234,-204
-170,-141,29,156,-100,-56,97,-97,-214,-244,-234,-204
-170,-146,24,158,-97,-61,102,-97,-224,-253,-239,-204
-175,-156,19,165,-97,-68,102,-97,-224,-253,-239,-209
-185,-175,9,180,-97,-82,107,-97,-224,-253,-248,-214
-185,-175,9,180,-97,-82,112,-97,-234,-263,-258,-224
-185,-175,9,180,-97,-82,112,-97,-234,-263,-263,-224
-185,-180,4,183,-95,-87,126,-92,-234,-268,-268,-224
-195,-175,19,185,-107,-78,131,-87,-234,-273,-273,-224
-195,-175,19,185,-107,-78,131,-87,-234,-273,-278,-229
-195,-175,19,185,-107,-78,136,-87,-234,-278,-278,-229
-195,-190,4,192,-100,-92,131,-87,-234,-278,-278,-229
-200,-200,0,200,-100,-100,131,-87,-234,-278,-283,-229
-200,-190,9,195,-104,-90,136,-82,-234,-278,-283,-239
-204,-185,19,195,-112,-82,136,-82,-234,-278,-283,-248
-204,-185,19,195,-112,-82,141,-82,-234,-278,-283,-248
-204,-180,24,192,-114,-78,151,-82,-239,-283,-287,-248
-204,-185,19,195,-112,-82,151,-82,-239,-278,-278,-244
-204,-190,14,197,-109,-87,156,-78,-239,-273,-268,-239
-209,-190,19,200,-114,-85,161,-78,-234,-273,-268,-239
-209,-190,19,200,-114,-85,161,-78,-234,-278,-273,-239
-209,-190,19,200,-114,-85,156,-78,-234,-278,-278,-239
-209,-185,24,197,-117,-80,156,-73,-234,-278,-283,-239
-209,-185,24,197,-117,-80,156,-73,-234,-273,-283,-244
-209,-185,24,197,-117,-80,161,-73,-234,-273,-283,-244
-209,-185,24,197,-117,-80,161,-68,-239,-278,-283,-248
-204,-175,29,190,-117,-73,156,-68,-239,-283,-283,-253
-204,-185,19,195,-112,-82,161,-58,-229,-268,-278,-253
-200,-190,9,195,-104,-90,151,-53,-214,-244,-258,-239
-161,-156,4,158,-82,-75,87,-58,-180,-204,-214,-195
-112,-126,-14,119,-48,-70,19,-68,-146,-146,-161,-141
-68,-73,-4,70,-31,-39,-117,-170,-146,-141,-131,-97
-4,-29,-24,17,9,-26,-283,-302,-146,-122,-73,-34
122,63,-58,-92,90,2,-448,-336,-102,9,82,102
248,161,-87,-204,168,36,-644,-478,-63,117,234,248
395,283,-112,-339,253,85,-907,-912,-24,234,400,405
522,444,-78,-483,300,183,-1229,-1664,-39,370,600,605
610,649,39,-629,285,344,-1644,-2737,-151,502,834,829
717,844,126,-780,295,485,-2054,-3699,-287,649,1122,1088
839,1000,161,-919,339,580,-2366,-4313,-439,834,1449,1381
1058,1146,87,-1102,485,617,-2649,-4699,-448,1176,1937,1766
1385,1298,-87,-1342,736,605,-2957,-4919,-268,1722,2610,2298
1703,1459,-244,-1581,973,607,-3123,-4782,126,2454,3376,2869
1893,1668,-224,-1781,1058,722,-3235,-4514,649,3333,4206,3401
1922,1751,-170,-1837,1046,790,-3240,-4323,668,3557,4479,3664
1849,1664,-185,-1756,1017,739,-3059,-4274,-273,2318,3894,3674
1727,1180,-546,-1454,1137,317,-2727,-3918,-1298,746,2693,3162
1454,614,-839,-1034,1146,-112,-2269,-3337,-2078,-805,995,2161
1044,380,-663,-712,854,-141,-1786,-2810,-2303,-1576,-141,1307
673,341,-331,-507,502,4,-1283,-2083,-1834,-1410,-419,819
458,331,-126,-395,292,102,-927,-1517,-1400,-1117,-429,561
317,248,-68,-283,192,90,-639,-1078,-1058,-897,-400,370
175,117,-58,-146,117,29,-390,-722,-819,-741,-414,161
78,29,-48,-53,63,-9,-175,-409,-619,-590,-395,29
-19,-58,-39,39,9,-48,0,-170,-453,-488,-385,-92
-122,-131,-9,126,-56,-70,126,4,-292,-390,-366,-185
-161,-185,-24,173,-68,-104,214,146,-180,-312,-336,-239
-165,-175,-9,170,-78,-92,263,219,-131,-278,-326,-253
-175,-165,9,170,-92,-78,278,263,-107,-253,-322,-263
-195,-180,14,187,-104,-82,297,287,-78,-244,-317,-273
-204,-180,24,192,-114,-78,302,312,-63,-234,-317,-283
-204,-180,24,192,-114,-78,317,341,-53,-224,-312,-292
-204,-185,19,195,-112,-82,331,370,-34,-214,-312,-292
-209,-190,19,200,-114,-85,336,390,-19,-204,-312,-297
-209,-195,14,202,-112,-90,341,400,-4,-200,-307,-297
-209,-195,14,202,-112,-90,341,419,0,-190,-302,-307
-209,-190,19,200,-114,-85,341,434,4,-185,-297,-312
-209,-185,24,197,-117,-80,341,439,14,-180,-297,-312
-214,-185,29,200,-122,-78,346,458,24,-175,-292,-312
-214,-185,29,200,-122,-78,346,483,39,-165,-287,-312
-209,-185,24,197,-117,-80,351,502,48,-161,-283,-312
-209,-185,24,197,-117,-80,351,522,63,-151,-283,-302
-204,-185,19,195,-112,-82,356,551,82,-141,-273,-297
-204,-180,24,192,-114,-78,361,575,102,-126,-273,-297
-200,-180,19,190,-109,-80,366,605,117,-112,-263,-297
-195,-180,14,187,-104,-82,370,629,136,-107,-263,-297
-185,-180,4,183,-95,-87,375,663,161,-92,-253,-297
-180,-175,4,178,-92,-85,385,702,185,-78,-248,-302
-175,-170,4,173,-90,-82,395,741,204,-53,-244,-307
-175,-175,0,175,-87,-87,405,785,234,-34,-229,-297
-170,-170,0,170,-85,-85,414,834,263,-14,-219,-297
-165,-170,-4,168,-80,-87,419,883,302,4,-214,-297
-156,-161,-4,158,-75,-82,429,941,336,29,-204,-297
-151,-156,-4,153,-73,-80,434,1010,375,53,-195,-297
-136,-156,-19,146,-58,-87,448,1083,419,87,-170,-287
-131,-146,-14,139,-58,-80,463,1151,453,117,-161,-283
-122,-141,-19,131,-51,-80,478,1229,507,146,-151,-278
-117,-136,-19,126,-48,-78,492,1312,561,180,-131,-278
-102,-131,-29,117,-36,-80,512,1400,624,229,-117,-268
-87,-122,-34,104,-26,-78,531,1488,678,273,-97,-258
-73,-107,-34,90,-19,-70,551,1581,746,312,-78,-253
-58,-97,-39,78,-9,-68,580,1683,814,356,-53,-253
-43,-82,-39,63,-2,-61,610,1786,888,409,-24,-244
-19,-58,-39,39,9,-48,624,1878,956,458,4,-224
0,-43,-43,21,21,-43,634,1966,1024,512,39,-209
29,-34,-63,2,46,-48,658,2064,1107,580,87,-175
48,-19,-68,-14,58,-43,668,2152,1180,639,126,-161
78,9,-68,-43,73,-29,673,2225,1259,697,170,-131
102,34,-68,-68,85,-17,683,2278,1322,751,209,-102
126,48,-78,-87,102,-14,688,2318,1376,805,253,-68
151,78,-73,-114,112,2,678,2332,1415,849,287,-39
175,102,-73,-139,124,14,658,2318,1444,893,336,4
200,122,-78,-161,139,21,629,2269,1454,922,380,48
229,156,-73,-192,151,41,595,2176,1454,946,429,97
248,170,-78,-209,163,46,541,2054,1429,956,478,141
258,185,-73,-222,165,56,488,1908,1371,966,502,190
268,200,-68,-234,168,65,444,1742,1293,946,527,239
283,209,-73,-246,178,68,375,1551,1190,888,541,273
283,219,-63,-251,173,78,317,1356,1073,814,536,292
273,204,-68,-239,170,68,273,1180,951,746,517,307
248,195,-53,-222,151,70,229,1005,819,663,473,302
229,185,-43,-207,136,70,190,834,702,575,419,268
195,165,-29,-180,112,68,156,678,595,483,361,229
156,151,-4,-153,80,73,136,561,483,409,297,200
126,136,9,-131,58,73,131,453,385,331,234,165
92,87,-4,-90,48,41,122,366,307,258,180,126
58,53,-4,-56,31,24,112,283,244,190,131,82
29,24,-4,-26,17,9,107,224,180,136,78,53
0,9,9,-4,-4,9,102,170,112,87,29,19
-14,-24,-9,19,-2,-17,102,126,63,34,-4,-9
-34,-48,-14,41,-9,-31,107,82,29,-4,-34,-39
-53,-58,-4,56,-24,-31,107,58,0,-34,-53,-53
-73,-63,9,68,-41,-26,107,43,-34,-53,-87,-73
-82,-63,19,73,-51,-21,97,9,-58,-82,-107,-97
-92,-63,29,78,-61,-17,92,-19,-78,-112,-117,-117
-97,-53,43,75,-70,-4,92,-29,-87,-131,-131,-126
-107,-43,63,75,-85,9,92,-34,-107,-136,-141,-126
-107,-68,39,87,-73,-14,97,-43,-117,-141,-146,-131
-112,-92,19,102,-65,-36,102,-48,-117,-146,-151,-136
-112,-92,19,102,-65,-36,102,-53,-122,-146,-156,-146
-117,-92,24,104,-70,-34,102,-58,-126,-146,-165,-151
-122,-92,29,107,-75,-31,97,-63,-131,-156,-165,-151
-126,-92,34,109,-80,-29,97,-73,-131,-161,-165,-151
-126,-87,39,107,-82,-24,97,-73,-131,-161,-165,-151
-126,-87,39,107,-82,-24,97,-73,-131,-165,-170,-156
-126,-87,39,107,-82,-24,97,-68,-131,-165,-165,-151
-131,-92,39,112,-85,-26,102,-63,-131,-165,-161,-146
-131,-92,39,112,-85,-26,102,-58,-131,-165,-161,-146
-131,-92,39,112,-85,-26,102,-58,-131,-165,-161,-146
-131,-87,43,109,-87,-21,102,-58,-131,-165,-170,-146
-136,-78,58,107,-97,-9,102,-58,-131,-165,-175,-146
-136,-78,58,107,-97,-9,107,-58,-131,-170,-175,-151
-136,-82,53,109,-95,-14,112,-58,-136,-170,-175,-151
-136,-92,43,114,-90,-24,117,-63,-141,-170,-170,-151
-136,-97,39,117,-87,-29,117,-63,-141,-170,-170,-151
-136,-92,43,114,-90,-24,112,-63,-141,-170,-170,-151
-136,-92,43,114,-90,-24,112,-63,-141,-170,-170,-151
-136,-92,43,114,-90,-24,112,-63,-141,-170,-170,-151
-136,-97,39,117,-87,-29,112,-58,-141,-170,-170,-151
-141,-97,43,119,-92,-26,112,-58,-136,-165,-170,-151
-141,-97,43,119,-92,-26,112,-58,-136,-165,-170,-151
-141,-97,43,119,-92,-26,112,-58,-136,-170,-170,-151
-141,-97,43,119,-92,-26,112,-63,-141,-170,-170,-156
-141,-92,48,117,-95,-21,112,-63,-141,-175,-175,-156
-146,-87,58,117,-102,-14,112,-63,-141,-175,-175,-156
-146,-87,58,117,-102,-14,112,-63,-146,-180,-175,-156
-146,-87,58,117,-102,-14,112,-63,-141,-180,-175,-161
-146,-92,53,119,-100,-19,112,-58,-141,-180,-175,-161
-146,-102,43,124,-95,-29,112,-53,-146,-180,-180,-161
-146,-102,43,124,-95,-29,112,-58,-151,-185,-185,-165
-146,-107,39,126,-92,-34,112,-58,-156,-185,-185,-165
-146,-107,39,126,-92,-34,112,-58,-161,-190,-185,-165
-146,-102,43,124,-95,-29,107,-58,-161,-190,-185,-165
-151,-102,48,126,-100,-26,107,-68,-161,-190,-190,-170
-151,-97,53,124,-102,-21,107,-78,-165,-195,-200,-170
-151,-97,53,124,-102,-21,107,-78,-165,-200,-204,-170
-151,-102,48,126,-100,-26,107,-78,-165,-200,-204,-170
-151,-102,48,126,-100,-26,102,-78,-175,-200,-200,-170
-151,-102,48,126,-100,-26,102,-78,-175,-200,-195,-170
-151,-112,39,131,-95,-36,107,-78,-175,-204,-200,-175
-156,-112,43,134,-100,-34,107,-82,-180,-204,-200,-175
-156,-112,43,134,-100,-34,102,-87,-185,-214,-209,-180
-156,-112,43,134,-100,-34,102,-87,-195,-224,-214,-180
-156,-112,43,134,-100,-34,97,-92,-200,-224,-214,-180
-156,-117,39,136,-97,-39,97,-92,-200,-224,-214,-180
-156,-122,34,139,-95,-43,102,-92,-200,-214,-204,-180
-156,-122,34,139,-95,-43,102,-92,-200,-209,-200,-185
-156,-117,39,136,-97,-39,102,-102,-204,-219,-209,-185
-156,-112,43,134,-100,-34,102,-107,-204,-229,-219,-185
-161,-112,48,136,-104,-31,97,-107,-204,-229,-219,-190
-165,-107,58,136,-112,-24,92,-102,-200,-229,-219,-195
-161,-117,43,139,-102,-36,102,-92,-200,-229,-214,-190
-161,-131,29,146,-95,-51,102,-87,-200,-229,-209,-190
-156,-112,43,134,-100,-34,112,-82,-200,-224,-209,-190
-156,-87,68,122,-112,-9,126,-82,-195,-219,-200,-185
-151,-63,87,107,-119,12,126,-78,-190,-214,-200,-180
-146,-34,112,90,-129,39,136,-73,-180,-209,-204,-175
-141,-48,92,95,-117,21,141,-63,-170,-200,-195,-170
-136,-63,73,100,-104,4,151,-53,-170,-200,-190,-170
-126,-48,78,87,-102,14,156,-53,-170,-200,-185,-165
-122,-39,82,80,-102,21,156,-53,-165,-190,-180,-161
-117,-14,102,65,-109,43,146,-53,-165,-190,-185,-151
-102,4,107,48,-104,56,107,-63,-156,-180,-175,-146
-87,14,102,36,-95,58,82,-68,-151,-175,-161,-131
-78,24,102,26,-90,63,58,-73,-146,-170,-151,-117
-63,48,112,7,-87,80,34,-78,-146,-165,-141,-112
-48,78,126,-14,-87,102,9,-87,-146,-165,-136,-107
-48,78,126,-14,-87,102,9,-87,-146,-165,-136,-107
-48,78,126,-14,-87,102,9,-87,-146,-165,-136,-107
-48,68,117,-9,-82,92,9,-87,-151,-165,-136,-102
-53,53,107,0,-80,80,9,-97,-156,-170,-141,-102
-58,43,102,7,-80,73,9,-107,-165,-180,-151,-107
-58,24,82,17,-70,53,19,-117,-175,-185,-156,-112
-63,4,68,29,-65,36,19,-122,-190,-200,-165,-117
-68,-24,43,46,-56,9,24,-131,-209,-224,-180,-131
-92,-58,34,75,-63,-12,39,-131,-219,-234,-209,-156
-112,-97,14,104,-63,-41,53,-126,-224,-239,-224,-190
-151,-136,14,143,-82,-61,68,-122,-224,-244,-239,-209
-165,-141,24,153,-95,-58,78,-117,-224,-244,-234,-204
-170,-141,29,156,-100,-56,78,-117,-224,-244,-234,-204
-170,-146,24,158,-97,-61,82,-117,-234,-253,-239,-204
-175,-136,39,156,-107,-48,82,-117,-234,-258,-239,-214
-185,-136,48,161,-117,-43,87,-117,-234,-263,-248,-224
-190,-146,43,168,-117,-51,92,-117,-244,-273,-253,-234
-195,-156,39,175,-117,-58,92,-117,-244,-273,-253,-234
-195,-170,24,183,-109,-73,112,-112,-244,-268,-253,-234
-204,-175,29,190,-117,-73,122,-107,-244,-263,-253,-234
-204,-175,29,190,-117,-73,122,-107,-244,-263,-263,-239
-204,-175,29,190,-117,-73,126,-107,-244,-268,-268,-239
-204,-180,24,192,-114,-78,122,-107,-244,-268,-268,-239
-209,-180,29,195,-119,-75,122,-107,-244,-268,-273,-239
-209,-180,29,195,-119,-75,126,-102,-239,-268,-268,-239
-214,-185,29,200,-122,-78,126,-102,-234,-268,-263,-239
-214,-185,29,200,-122,-78,126,-102,-234,-268,-263,-239
-214,-180,34,197,-124,-73,131,-102,-239,-273,-268,-239
-214,-180,34,197,-124,-73,131,-102,-239,-273,-273,-244
-214,-180,34,197,-124,-73,136,-97,-239,-273,-278,-248
-219,-175,43,197,-131,-65,141,-97,-239,-273,-278,-248
-219,-170,48,195,-134,-61,141,-97,-244,-278,-283,-248
-219,-175,43,197,-131,-65,141,-97,-244,-278,-283,-248
-219,-175,43,197,-131,-65,146,-92,-244,-278,-283,-248
-219,-175,43,197,-131,-65,146,-92,-244,-273,-283,-253
-219,-175,43,197,-131,-65,151,-92,-244,-273,-283,-253
-219,-175,43,197,-131,-65,151,-87,-244,-278,-283,-253
-214,-165,48,190,-131,-58,146,-87,-239,-283,-283,-253
-204,-161,43,183,-124,-58,141,-78,-229,-273,-278,-253
-190,-151,39,170,-114,-56,122,-73,-214,-253,-258,-239
-151,-122,29,136,-90,-46,43,-82,-180,-214,-209,-195
-102,-97,4,100,-53,-46,-39,-97,-146,-156,-151,-141
-43,-53,-9,48,-17,-31,-170,-175,-146,-136,-112,-87
34,-19,-53,-7,43,-36,-331,-283,-146,-102,-43,-14
175,82,-92,-129,134,-4,-522,-351,-102,14,97,117
317,190,-126,-253,222,31,-741,-527,-63,107,234,258
463,312,-151,-387,307,80,-1010,-971,-34,209,385,409
590,473,-117,-531,353,178,-1337,-1732,-58,331,570,605
688,678,-9,-683,348,334,-1761,-2806,-180,429,780,814
805,873,68,-839,368,470,-2181,-3767,-326,541,1044,1058
946,1010,63,-978,441,536,-2474,-4372,-468,702,1346,1337
1185,1137,-48,-1161,617,544,-2737,-4748,-468,1019,1810,1708
1537,1288,-248,-1412,893,519,-3030,-4875,-248,1517,2420,2205
1878,1449,-429,-1664,1154,509,-3181,-4645,185,2200,3123,2742
2049,1629,-419,-1839,1234,605,-3259,-4372,639,2971,3860,3235
2059,1683,-375,-1871,1217,653,-3230,-4177,590,3089,4040,3459
1952,1586,-366,-1769,1159,610,-3054,-4172,-375,1873,3420,3406
1795,1093,-702,-1444,1249,195,-2727,-3860,-1424,326,2186,2830
1498,580,-917,-1039,1207,-168,-2269,-3294,-2103,-1005,688,1917
1063,400,-663,-732,863,-131,-1786,-2781,-2225,-1556,-248,1151
688,351,-336,-519,512,7,-1268,-2054,-1766,-1376,-468,717
468,331,-136,-400,302,97,-897,-1488,-1342,-1068,-419,512
312,239,-73,-275,192,82,-610,-1054,-1010,-854,-390,326
156,97,-58,-126,107,19,-361,-702,-780,-702,-405,122
63,14,-48,-39,56,-17,-156,-390,-590,-556,-385,4
-29,-68,-39,48,4,-53,9,-151,-434,-458,-375,-102
-131,-112,19,122,-75,-46,126,9,-287,-370,-361,-195
-170,-136,34,153,-102,-51,204,136,-190,-302,-336,-248
-175,-136,39,156,-107,-48,263,219,-136,-263,-322,-258
-185,-136,48,161,-117,-43,287,273,-107,-234,-312,-263
-204,-161,43,183,-124,-58,307,297,-78,-224,-307,-273
-214,-170,43,192,-129,-63,312,322,-63,-214,-307,-283
-214,-170,43,192,-129,-63,322,346,-58,-209,-302,-297
-214,-175,39,195,-126,-68,331,370,-43,-204,-302,-302
-219,-180,39,200,-129,-70,336,390,-24,-195,-302,-307
-219,-185,34,202,-126,-75,341,400,-4,-190,-297,-307
-219,-185,34,202,-126,-75,346,419,4,-175,-292,-312
-219,-180,39,200,-129,-70,351,434,14,-165,-287,-312
-214,-175,39,195,-126,-68,351,444,29,-156,-283,-312
-214,-175,39,195,-126,-68,356,468,43,-146,-273,-312
-214,-175,39,195,-126,-68,356,492,58,-136,-268,-312
-209,-175,34,192,-122,-70,361,512,68,-131,-263,-312
-209,-170,39,190,-124,-65,356,531,73,-131,-273,-307
-204,-165,39,185,-122,-63,356,561,82,-131,-273,-307
-204,-161,43,183,-124,-58,361,585,102,-117,-273,-307
-200,-161,39,180,-119,-61,366,614,117,-102,-263,-307
-200,-170,29,185,-114,-70,375,639,136,-97,-258,-307
-195,-180,14,187,-104,-82,385,673,161,-82,-244,-307
-190,-175,14,183,-102,-80,390,712,185,-68,-239,-307
-185,-170,14,178,-100,-78,395,751,204,-43,-234,-307
-180,-165,14,173,-97,-75,405,795,234,-24,-219,-297
-170,-151,19,161,-95,-65,414,844,263,-4,-209,-297
-165,-146,19,156,-92,-63,419,888,302,14,-209,-302
-156,-131,24,143,-90,-53,429,941,336,39,-204,-307
-151,-126,24,139,-87,-51,439,1010,370,63,-200,-307
-136,-126,9,131,-73,-58,458,1083,409,97,-180,-297
-131,-126,4,129,-68,-61,473,1156,453,131,-170,-292
-122,-131,-9,126,-56,-70,488,1239,517,165,-161,-287
-112,-126,-14,119,-48,-70,502,1327,570,195,-136,-287
-92,-122,-29,107,-31,-75,522,1420,634,239,-117,-278
-78,-112,-34,95,-21,-73,541,1507,688,283,-97,-268
-63,-97,-34,80,-14,-65,561,1600,756,322,-78,-263
-53,-87,-34,70,-9,-61,580,1703,819,361,-53,-263
-43,-73,-29,58,-7,-51,600,1805,888,409,-24,-253
-14,-48,-34,31,9,-41,619,1898,961,468,4,-234
9,-34,-43,12,26,-39,634,1986,1034,531,39,-219
39,-29,-68,-4,53,-48,658,2088,1117,600,87,-185
58,-19,-78,-19,68,-48,668,2181,1190,658,126,-170
87,9,-78,-48,82,-34,668,2254,1278,727,175,-136
112,34,-78,-73,95,-21,673,2308,1351,790,219,-102
141,48,-92,-95,117,-21,673,2342,1405,844,273,-63
170,78,-92,-124,131,-7,658,2352,1444,888,317,-29
195,117,-78,-156,136,19,634,2322,1464,927,366,19
219,151,-68,-185,143,41,600,2259,1464,951,409,68
248,175,-73,-212,161,51,575,2171,1464,971,448,122
268,180,-87,-224,178,46,531,2054,1439,976,488,170
278,195,-82,-236,180,56,468,1893,1366,971,507,214
287,209,-78,-248,183,65,414,1712,1273,936,527,258
297,224,-73,-261,185,75,351,1517,1171,878,536,283
292,239,-53,-265,173,92,297,1317,1054,805,527,292
278,224,-53,-251,165,85,253,1146,936,741,502,292
248,214,-34,-231,141,90,209,976,810,663,453,273
234,195,-39,-214,136,78,180,814,697,575,405,248
204,165,-39,-185,122,63,156,668,595,483,351,219
165,141,-24,-153,95,58,122,551,483,409,287,190
136,117,-19,-126,78,48,102,444,385,331,224,156
102,82,-19,-92,61,31,102,351,307,258,170,117
68,63,-4,-65,36,29,102,263,244,190,122,73
39,29,-9,-34,24,9,102,209,180,136,68,43
9,9,0,-9,4,4,102,161,112,87,19,9
-9,-14,-4,12,-2,-9,102,117,68,29,-19,-19
-34,-29,4,31,-19,-12,107,73,39,-14,-53,-48
-53,-39,14,46,-34,-12,107,48,9,-43,-68,-63
-73,-43,29,58,-51,-7,107,34,-24,-63,-97,-82
-82,-53,29,68,-56,-12,102,9,-43,-82,-122,-107
-92,-63,29,78,-61,-17,102,-9,-58,-102,-136,-126
-97,-63,34,80,-65,-14,97,-24,-78,-126,-161,-136
-107,-63,43,85,-75,-9,92,-34,-107,-136,-180,-136
-112,-68,43,90,-78,-12,92,-43,-117,-146,-175,-141
-122,-73,48,97,-85,-12,92,-48,-117,-156,-170,-146
-122,-82,39,102,-80,-21,102,-53,-122,-151,-165,-151
-126,-92,34,109,-80,-29,112,-58,-126,-146,-165,-151
-126,-92,34,109,-80,-29,107,-58,-126,-151,-165,-151
-126,-92,34,109,-80,-29,107,-63,-122,-151,-165,-151
-126,-87,39,107,-82,-24,107,-63,-122,-151,-165,-151
-126,-87,39,107,-82,-24,107,-63,-122,-156,-170,-156
-126,-82,43,104,-85,-19,102,-63,-131,-161,-175,-161
-131,-82,48,107,-90,-17,102,-63,-141,-165,-180,-165
-131,-82,48,107,-90,-17,102,-63,-141,-170,-180,-165
-131,-82,48,107,-90,-17,102,-68,-141,-175,-180,-165
-131,-82,48,107,-90,-17,102,-68,-141,-175,-190,-165
-136,-78,58,107,-97,-9,102,-68,-141,-175,-195,-165
-136,-78,58,107,-97,-9,102,-68,-141,-180,-195,-170
-136,-82,53,109,-95,-14,102,-68,-146,-180,-195,-170
-136,-82,53,109,-95,-14,107,-68,-146,-180,-190,-170
-136,-78,58,107,-97,-9,107,-63,-141,-180,-190,-170
-136,-73,63,104,-100,-4,107,-63,-141,-180,-190,-170
-136,-73,63,104,-100,-4,112,-63,-141,-180,-190,-170
-136,-78,58,107,-97,-9,112,-63,-141,-180,-185,-165
-136,-87,48,112,-92,-19,112,-58,-141,-180,-180,-161
-141,-87,53,114,-97,-17,112,-58,-136,-175,-180,-161
-141,-87,53,114,-97,-17,112,-58,-136,-175,-180,-161
-141,-92,48,117,-95,-21,112,-53,-136,-180,-180,-161
-141,-97,43,119,-92,-26,112,-53,-141,-180,-180,-165
-141,-97,43,119,-92,-26,112,-53,-141,-185,-190,-165
-146,-97,48,122,-97,-24,112,-53,-141,-185,-195,-165
-146,-87,58,117,-102,-14,112,-53,-151,-190,-195,-170
-146,-78,68,112,-107,-4,112,-53,-151,-190,-195,-180
-146,-87,58,117,-102,-14,112,-53,-151,-190,-195,-180
-146,-102,43,124,-95,-29,112,-53,-156,-190,-200,-180
-146,-112,34,129,-90,-39,117,-58,-151,-190,-200,-180
-146,-126,19,136,-82,-53,122,-58,-146,-185,-195,-175
-146,-117,29,131,-87,-43,122,-58,-151,-190,-195,-175
-146,-102,43,124,-95,-29,117,-58,-151,-190,-195,-175
-151,-102,48,126,-100,-26,112,-63,-156,-190,-200,-185
-151,-97,53,124,-102,-21,107,-68,-165,-195,-209,-190
-151,-87,63,119,-107,-12,107,-73,-165,-204,-214,-190
-151,-82,68,117,-109,-7,107,-78,-165,-209,-214,-190
-151,-82,68,117,-109,-7,102,-78,-175,-209,-214,-190
-151,-82,68,117,-109,-7,102,-78,-175,-209,-214,-190
-151,-117,34,134,-92,-41,117,-73,-170,-214,-219,-185
-156,-141,14,148,-85,-63,126,-73,-170,-214,-219,-175
-156,-126,29,141,-92,-48,112,-78,-170,-219,-224,-190
-156,-112,43,134,-100,-34,102,-78,-175,-224,-224,-200
-156,-102,53,129,-104,-24,97,-82,-180,-224,-224,-200
-156,-97,58,126,-107,-19,97,-82,-180,-224,-224,-200
-156,-102,53,129,-104,-24,102,-82,-185,-224,-224,-200
-156,-102,53,129,-104,-24,102,-82,-190,-229,-229,-204
-156,-107,48,131,-102,-29,102,-87,-195,-229,-229,-204
-156,-112,43,134,-100,-34,102,-87,-195,-229,-229,-204
-156,-122,34,139,-95,-43,102,-87,-195,-229,-229,-204
-156,-126,29,141,-92,-48,102,-82,-190,-229,-229,-204
-156,-122,34,139,-95,-43,107,-78,-195,-234,-229,-200
-161,-122,39,141,-100,-41,102,-78,-200,-239,-229,-200
-156,-112,43,134,-100,-34,107,-73,-200,-234,-229,-200
-156,-97,58,126,-107,-19,117,-73,-195,-229,-219,-195
-151,-87,63,119,-107,-12,126,-68,-185,-219,-204,-190
-146,-73,73,109,-109,0,146,-63,-170,-209,-195,-185
-141,-68,73,104,-107,2,151,-58,-161,-200,-195,-180
-136,-63,73,100,-104,4,161,-53,-161,-200,-200,-180
-136,-48,87,92,-112,19,161,-53,-165,-204,-200,-185
-141,-39,102,90,-122,31,156,-53,-165,-200,-200,-190
-131,-29,102,80,-117,36,161,-48,-165,-200,-200,-175
-122,-29,92,75,-107,31,156,-48,-161,-200,-195,-170
-107,-19,87,63,-97,34,122,-53,-151,-180,-180,-156
-92,4,97,43,-95,51,92,-63,-151,-170,-165,-136
-68,24,92,21,-80,58,48,-68,-146,-165,-156,-126
-48,48,97,0,-73,73,9,-78,-146,-165,-146,-117
-48,63,112,-7,-80,87,9,-82,-141,-165,-146,-117
-48,78,126,-14,-87,102,9,-87,-136,-165,-146,-117
-48,78,126,-14,-87,102,14,-87,-136,-165,-146,-112
-48,68,117,-9,-82,92,14,-87,-141,-165,-141,-107
-48,63,112,-7,-80,87,19,-87,-146,-165,-141,-102
-58,53,112,2,-85,82,19,-92,-156,-170,-151,-107
-58,24,82,17,-70,53,34,-97,-161,-175,-156,-112
-63,-9,53,36,-58,21,39,-102,-170,-190,-165,-117
-73,-43,29,58,-51,-7,43,-112,-190,-219,-180,-131
-102,-78,24,90,-63,-26,58,-112,-200,-239,-209,-156
-122,-107,14,114,-68,-46,73,-112,-209,-248,-224,-190
-161,-131,29,146,-95,-51,87,-112,-214,-253,-244,-214
-170,-131,39,151,-104,-46,97,-107,-214,-253,-244,-219
-170,-131,39,151,-104,-46,97,-107,-214,-253,-244,-224
-170,-136,34,153,-102,-51,102,-107,-224,-263,-253,-224
-175,-141,34,158,-104,-53,102,-107,-224,-263,-258,-229
-185,-156,29,170,-107,-63,107,-102,-224,-263,-268,-234
-185,-156,29,170,-107,-63,112,-97,-234,-273,-273,-244
-185,-161,24,173,-104,-68,112,-97,-234,-273,-273,-244
-185,-175,9,180,-97,-82,126,-92,-234,-273,-273,-244
-195,-175,19,185,-107,-78,131,-87,-234,-273,-273,-244
-195,-175,19,185,-107,-78,131,-87,-234,-273,-278,-248
-195,-170,24,183,-109,-73,136,-87,-234,-278,-278,-248
-195,-170,24,183,-109,-73,136,-87,-234,-278,-278,-248
-200,-170,29,185,-114,-70,141,-87,-234,-278,-283,-248
-200,-170,29,185,-114,-70,146,-82,-234,-278,-283,-253
-204,-175,29,190,-117,-73,141,-82,-234,-278,-283,-258
-204,-175,29,190,-117,-73,136,-82,-234,-278,-283,-258
-204,-170,34,187,-119,-68,141,-82,-239,-283,-287,-258
-204,-170,34,187,-119,-68,141,-82,-239,-283,-287,-258
-204,-175,29,190,-117,-73,146,-78,-239,-283,-287,-258
-209,-180,29,195,-119,-75,151,-78,-234,-283,-287,-258
-209,-180,29,195,-119,-75,151,-78,-229,-283,-292,-258
-209,-185,24,197,-117,-80,151,-78,-224,-278,-292,-258
-209,-185,24,197,-117,-80,156,-73,-224,-278,-292,-258
-209,-185,24,197,-117,-80,156,-73,-224,-273,-292,-263
-209,-180,29,195,-119,-75,161,-73,-229,-278,-297,-263
-209,-175,34,192,-122,-70,161,-68,-234,-283,-302,-263
-204,-165,39,185,-122,-63,165,-68,-229,-283,-302,-263
-195,-161,34,178,-114,-63,161,-63,-219,-268,-287,-253
-185,-156,29,170,-107,-63,131,-58,-204,-244,-258,-229
-146,-126,19,136,-82,-53,48,-78,-170,-204,-209,-185
-97,-102,-4,100,-46,-53,-24,-107,-141,-156,-156,-141
-43,-48,-4,46,-19,-26,-156,-214,-146,-141,-112,-87
19,0,-19,-9,19,-9,-322,-341,-146,-102,-34,-4
136,102,-34,-119,85,34,-502,-453,-107,29,122,136
263,209,-53,-236,158,78,-697,-614,-73,141,273,287
405,346,-58,-375,231,143,-961,-1102,-58,273,463,463
531,522,-9,-527,270,256,-1298,-1991,-87,429,692,692
634,727,92,-680,270,409,-1688,-2986,-190,595,966,951
722,927,204,-824,258,566,-2083,-3923,-356,746,1288,1234
849,1083,234,-966,307,658,-2371,-4489,-468,980,1678,1566
1088,1234,146,-1161,470,690,-2654,-4850,-502,1342,2230,1995
1361,1395,34,-1378,663,714,-2928,-5060,-375,1830,2874,2513
1673,1576,-97,-1625,885,739,-3064,-4821,97,2674,3718,3118
1810,1712,-97,-1761,954,807,-3142,-4587,356,3220,4309,3552
1786,1795,9,-1790,888,902,-3123,-4431,248,3220,4460,3786
1698,1703,4,-1700,846,854,-2928,-4255,-488,2132,3835,3684
1576,1044,-531,-1310,1054,256,-2547,-3757,-1595,258,2225,2947
1322,541,-780,-932,1051,-119,-2093,-3147,-2191,-1078,751,2074
878,424,-453,-651,666,-14,-1610,-2601,-2186,-1542,-214,1180
556,351,-204,-453,380,73,-1141,-1922,-1786,-1449,-575,649
400,326,-73,-363,236,126,-810,-1371,-1302,-1058,-453,502
263,219,-43,-241,153,87,-531,-936,-961,-834,-409,322
126,63,-63,-95,95,0,-302,-619,-756,-702,-424,102
39,-9,-48,-14,43,-29,-117,-336,-561,-561,-405,-29
-48,-87,-39,68,-4,-63,39,-107,-400,-468,-395,-136
-131,-141,-9,136,-61,-75,151,63,-253,-375,-380,-214
-156,-165,-9,161,-73,-87,214,175,-165,-302,-356,-253
-165,-165,0,165,-82,-82,258,239,-117,-268,-346,-268
-175,-161,14,168,-95,-73,268,278,-97,-253,-341,-278
-190,-170,19,180,-104,-75,287,307,-68,-244,-336,-292
-195,-170,24,183,-109,-73,302,331,-53,-234,-336,-302
-195,-170,24,183,-109,-73,322,356,-48,-224,-331,-312
-195,-185,9,190,-102,-87,336,380,-24,-200,-312,-307
-200,-200,0,200,-100,-100,346,400,0,-175,-292,-307
-200,-204,-4,202,-97,-104,351,409,14,-180,-297,-307
-200,-204,-4,202,-97,-104,351,429,24,-180,-302,-312
-200,-195,4,197,-102,-95,346,444,34,-175,-297,-312
-195,-185,9,190,-102,-87,341,453,43,-170,-297,-312
-195,-185,9,190,-102,-87,346,478,48,-170,-297,-312
-195,-185,9,190,-102,-87,346,502,58,-165,-297,-312
-190,-185,4,187,-97,-90,351,522,68,-161,-292,-312
-190,-185,4,187,-97,-90,351,541,82,-151,-292,-307
-185,-185,0,185,-92,-92,356,570,102,-136,-278,-307
-185,-180,4,183,-95,-87,361,595,122,-117,-273,-307
-180,-180,0,180,-90,-90,366,624,136,-102,-263,-307
-180,-180,0,180,-90,-90,370,649,156,-97,-263,-307
-175,-180,-4,178,-85,-92,375,683,185,-82,-258,-307
-170,-175,-4,173,-82,-90,380,722,214,-68,-258,-307
-165,-170,-4,168,-80,-87,385,751,234,-43,-253,-307
-161,-170,-9,165,-75,-90,395,785,263,-24,-239,-297
-151,-151,0,151,-75,-75,400,834,292,-4,-229,-297
-146,-141,4,143,-75,-68,400,883,331,14,-224,-297
-136,-146,-9,141,-63,-78,409,936,366,39,-214,-297
-131,-156,-24,143,-53,-90,419,1000,405,63,-204,-297
-122,-156,-34,139,-43,-95,439,1073,448,97,-180,-287
-122,-146,-24,134,-48,-85,453,1146,492,131,-170,-283
-112,-136,-24,124,-43,-80,468,1224,561,165,-156,-273
-102,-126,-24,114,-39,-75,483,1302,619,200,-126,-268
-82,-122,-39,102,-21,-80,497,1390,688,253,-107,-258
-68,-112,-43,90,-12,-78,512,1478,746,302,-87,-248
-53,-97,-43,75,-4,-70,531,1571,814,341,-73,-248
-39,-87,-48,63,4,-68,551,1668,883,395,-48,-244
-24,-73,-48,48,12,-61,570,1766,956,453,-19,-229
4,-48,-53,21,29,-51,585,1859,1029,497,4,-214
29,-34,-63,2,46,-48,595,1947,1102,551,39,-200
58,-24,-82,-17,70,-53,614,2039,1185,619,87,-165
78,-14,-92,-31,85,-53,624,2122,1268,683,131,-151
107,9,-97,-58,102,-43,629,2186,1351,751,185,-117
131,34,-97,-82,114,-31,634,2244,1420,814,229,-82
161,48,-112,-104,136,-31,634,2283,1483,873,283,-43
190,87,-102,-139,146,-7,624,2288,1532,932,331,-9
214,126,-87,-170,151,19,605,2264,1561,985,385,39
229,141,-87,-185,158,26,570,2210,1566,1010,434,87
244,165,-78,-204,161,43,536,2113,1556,1024,478,136
258,180,-78,-219,168,51,488,1991,1517,1029,527,190
268,195,-73,-231,170,61,439,1844,1439,1024,556,244
283,214,-68,-248,175,73,395,1668,1342,990,575,287
287,219,-68,-253,178,75,336,1483,1239,936,585,312
273,219,-53,-246,163,82,287,1288,1117,863,575,322
258,204,-53,-231,156,75,244,1122,990,790,541,322
229,195,-34,-212,131,80,200,956,854,702,488,307
209,175,-34,-192,122,70,170,805,736,614,434,278
185,156,-29,-170,107,63,146,658,624,517,370,239
156,141,-14,-148,85,63,126,541,507,439,307,209
126,107,-19,-117,73,43,126,444,414,361,244,175
92,63,-29,-78,61,17,122,361,336,287,190,131
53,34,-19,-43,36,7,112,283,263,214,141,82
19,-4,-24,-7,21,-14,112,229,195,156,87,53
-9,-9,0,9,-4,-4,107,170,122,92,29,14
-24,-24,0,24,-12,-12,102,122,68,29,-14,-19
-39,-39,0,39,-19,-19,107,82,34,-4,-43,-48
-53,-48,4,51,-29,-21,107,58,0,-34,-58,-63
-73,-48,24,61,-48,-12,107,43,-39,-68,-102,-87
-82,-53,29,68,-56,-12,107,19,-63,-102,-136,-112
-92,-63,29,78,-61,-17,112,0,-78,-122,-146,-126
-97,-68,29,82,-63,-19,112,-9,-87,-141,-161,-136
-112,-87,24,100,-68,-31,112,-14,-97,-131,-156,-131
-117,-107,9,112,-63,-48,112,-24,-97,-126,-146,-131
-122,-112,9,117,-65,-51,117,-29,-97,-136,-151,-136
-122,-112,9,117,-65,-51,122,-34,-102,-136,-151,-141
-126,-102,24,114,-75,-39,122,-39,-117,-151,-165,-146
-126,-92,34,109,-80,-29,117,-39,-131,-170,-175,-151
-126,-92,34,109,-80,-29,112,-43,-131,-170,-175,-151
-126,-87,39,107,-82,-24,107,-43,-131,-170,-175,-151
-126,-92,34,109,-80,-29,107,-43,-131,-170,-180,-156
-126,-97,29,112,-78,-34,107,-43,-131,-165,-180,-156
-131,-102,29,117,-80,-36,112,-43,-131,-165,-175,-156
-131,-102,29,117,-80,-36,112,-39,-131,-165,-170,-156
-131,-102,29,117,-80,-36,112,-43,-131,-165,-170,-156
-131,-102,29,117,-80,-36,112,-48,-131,-165,-175,-156
-136,-97,39,117,-87,-29,112,-48,-131,-170,-175,-156
-136,-97,39,117,-87,-29,112,-48,-131,-180,-175,-161
-136,-92,43,114,-90,-24,112,-48,-136,-180,-185,-161
-136,-87,48,112,-92,-19,117,-48,-136,-180,-190,-161
-136,-87,48,112,-92,-19,117,-43,-141,-180,-190,-161
-136,-82,53,109,-95,-14,117,-43,-151,-180,-190,-161
-136,-97,39,117,-87,-29,122,-43,-141,-180,-185,-156
-136,-112,24,124,-80,-43,122,-43,-131,-180,-180,-151
-136,-117,19,126,-78,-48,122,-39,-131,-180,-180,-151
-141,-117,24,129,-82,-46,122,-39,-126,-175,-180,-151
-141,-107,34,124,-87,-36,117,-39,-131,-175,-185,-156
-141,-97,43,119,-92,-26,112,-39,-136,-180,-190,-161
-141,-97,43,119,-92,-26,112,-43,-141,-180,-190,-165
-141,-97,43,119,-92,-26,112,-43,-141,-185,-195,-165
-146,-97,48,122,-97,-24,112,-48,-141,-185,-195,-165
-146,-97,48,122,-97,-24,112,-53,-151,-190,-195,-165
-146,-97,48,122,-97,-24,112,-53,-151,-190,-190,-170
-146,-97,48,122,-97,-24,112,-53,-151,-190,-185,-170
-146,-107,39,126,-92,-34,112,-53,-156,-190,-190,-170
-146,-112,34,129,-90,-39,112,-58,-156,-195,-195,-175
-146,-117,29,131,-87,-43,117,-58,-156,-195,-200,-175
-146,-122,24,134,-85,-48,122,-58,-161,-200,-204,-175
-141,-122,19,131,-80,-51,117,-53,-161,-200,-204,-175
-141,-122,19,131,-80,-51,117,-53,-161,-200,-204,-180
-141,-117,24,129,-82,-46,117,-58,-165,-195,-200,-180
-141,-117,24,129,-82,-46,117,-58,-165,-190,-195,-180
-141,-122,19,131,-80,-51,117,-58,-165,-200,-204,-185
-141,-122,19,131,-80,-51,112,-58,-175,-209,-214,-190
-141,-122,19,131,-80,-51,112,-58,-175,-209,-214,-190
-141,-131,9,136,-75,-61,117,-58,-175,-214,-219,-195
-146,-131,14,139,-80,-58,117,-63,-180,-214,-219,-195
-146,-131,14,139,-80,-58,112,-68,-180,-219,-224,-200
-146,-131,14,139,-80,-58,112,-68,-185,-224,-224,-200
-146,-126,19,136,-82,-53,107,-73,-190,-224,-224,-200
-146,-126,19,136,-82,-53,102,-78,-190,-224,-224,-200
-146,-131,14,139,-80,-58,102,-82,-190,-224,-224,-200
-146,-117,29,131,-87,-43,102,-82,-190,-229,-229,-204
-146,-102,43,124,-95,-29,102,-87,-195,-229,-229,-204
-146,-122,24,134,-85,-48,102,-87,-195,-229,-224,-204
-146,-141,4,143,-75,-68,102,-87,-195,-229,-219,-204
-151,-141,9,146,-80,-65,102,-82,-190,-229,-219,-204
-151,-141,9,146,-80,-65,112,-78,-190,-229,-219,-200
-151,-146,4,148,-78,-70,102,-78,-200,-239,-229,-204
-146,-141,4,143,-75,-68,97,-73,-209,-244,-239,-209
-146,-136,9,141,-78,-63,107,-73,-204,-239,-234,-204
-141,-136,4,139,-73,-65,107,-68,-200,-234,-234,-200
-141,-112,29,126,-85,-41,122,-63,-185,-224,-234,-195
-141,-97,43,119,-92,-26,126,-58,-170,-209,-224,-190
-136,-92,43,114,-90,-24,141,-48,-170,-209,-219,-190
-126,-78,48,102,-87,-14,151,-43,-170,-209,-214,-185
-131,-82,48,107,-90,-17,161,-43,-165,-200,-209,-185
-131,-73,58,102,-95,-7,165,-43,-165,-200,-209,-175
-126,-58,68,92,-97,4,165,-43,-161,-204,-209,-180
-117,-48,68,82,-92,9,151,-43,-151,-195,-200,-180
-112,-24,87,68,-100,31,141,-43,-151,-195,-190,-170
-92,0,92,46,-92,46,102,-58,-151,-190,-180,-156
-78,19,97,29,-87,58,63,-68,-146,-180,-165,-141
-68,39,107,14,-87,73,29,-78,-146,-175,-156,-126
-63,48,112,7,-87,80,14,-78,-141,-165,-146,-117
-58,58,117,0,-87,87,0,-78,-136,-156,-136,-107
-48,58,107,-4,-78,82,9,-73,-131,-156,-136,-97
-43,48,92,-2,-68,70,14,-73,-131,-156,-131,-92
-39,43,82,-2,-61,63,19,-73,-136,-161,-131,-87
-48,34,82,7,-65,58,19,-82,-146,-170,-141,-97
-48,29,78,9,-63,53,29,-87,-156,-175,-146,-102
-53,19,73,17,-63,46,29,-92,-170,-190,-156,-107
-58,-24,34,41,-46,4,34,-102,-190,-214,-170,-122
-82,-68,14,75,-48,-26,48,-102,-200,-229,-200,-146
-102,-107,-4,104,-48,-56,63,-97,-204,-239,-219,-185
-141,-141,0,141,-70,-70,78,-92,-204,-244,-244,-214
-156,-131,24,143,-90,-53,92,-87,-204,-253,-244,-214
-161,-122,39,141,-100,-41,97,-87,-204,-263,-244,-214
-156,-141,14,148,-85,-63,102,-87,-209,-263,-248,-214
-156,-161,-4,158,-75,-82,102,-87,-204,-253,-248,-219
-165,-175,-9,170,-78,-92,102,-87,-204,-253,-258,-224
-165,-175,-9,170,-78,-92,102,-87,-214,-263,-263,-234
-165,-165,0,165,-82,-82,102,-87,-219,-263,-263,-234
-165,-165,0,165,-82,-82,117,-82,-224,-263,-263,-234
-175,-180,-4,178,-85,-92,122,-78,-224,-263,-263,-234
-175,-195,-19,185,-78,-107,122,-78,-224,-263,-268,-239
-175,-175,0,175,-87,-87,126,-78,-224,-268,-268,-239
-175,-161,14,168,-95,-73,126,-78,-224,-268,-268,-239
-180,-170,9,175,-95,-80,131,-78,-224,-268,-273,-234
