I,II,III,aVR,aVL,aVF,V1,V2,V3,V4,V5,V6,
19,48,29,-34,-4,39,146,390,419,292,117,39
19,48,29,-34,-4,39,146,390,419,292,117,39
19,48,29,-34,-4,39,146,390,419,292,117,39
19,48,29,-34,-4,39,146,390,419,292,117,39
24,63,39,-43,-7,51,151,414,448,317,131,48
29,68,39,-48,-4,53,156,429,468,331,146,58
34,73,39,-53,-2,56,161,444,488,346,161,68
39,78,39,-58,0,58,165,458,507,361,175,78
29,87,58,-58,-14,73,165,468,531,380,185,92
29,97,68,-63,-19,82,165,478,546,390,195,97
29,107,78,-68,-24,92,165,488,561,400,204,102
29,117,87,-73,-29,102,165,497,575,409,214,107
34,126,92,-80,-29,109,170,522,600,439,229,122
39,136,97,-87,-29,117,175,536,624,458,244,126
43,146,102,-95,-29,124,180,551,649,478,258,131
48,156,107,-102,-29,131,185,566,673,497,273,136
58,180,122,-119,-31,151,175,575,688,507,287,146
58,195,136,-126,-39,165,175,585,702,517,292,156
58,209,151,-134,-46,180,175,595,717,527,297,165
58,224,165,-141,-53,195,175,605,732,536,302,175
73,234,161,-153,-43,197,185,624,756,556,317,185
78,244,165,-161,-43,204,185,634,771,575,331,195
82,253,170,-168,-43,212,185,644,785,595,346,204
87,263,175,-175,-43,219,185,653,800,614,361,214
78,273,195,-175,-58,234,175,668,819,634,375,239
78,283,204,-180,-63,244,175,673,829,644,390,253
78,292,214,-185,-68,253,175,678,839,653,405,268
78,302,224,-190,-73,263,175,683,849,663,419,283
92,312,219,-202,-63,265,165,688,858,673,434,297
97,322,224,-209,-63,273,165,692,868,683,448,302
102,331,229,-217,-63,280,165,697,878,692,463,307
107,341,234,-224,-63,287,165,702,888,702,478,312
107,346,239,-226,-65,292,151,697,883,702,483,326
107,351,244,-229,-68,297,146,692,878,702,488,341
107,356,248,-231,-70,302,141,688,873,702,492,356
107,361,253,-234,-73,307,136,683,868,702,497,370
112,375,263,-244,-75,319,126,658,854,688,507,380
117,380,263,-248,-73,322,117,644,839,683,507,380
122,385,263,-253,-70,324,107,629,824,678,507,380
126,390,263,-258,-68,326,97,614,810,673,507,380
112,385,273,-248,-80,329,87,590,780,653,492,390
107,380,273,-244,-82,326,78,566,751,634,488,390
102,375,273,-239,-85,324,68,541,722,614,483,390
97,370,273,-234,-87,322,58,517,692,595,478,390
97,351,253,-224,-78,302,43,478,649,561,458,370
97,341,244,-219,-73,292,39,448,614,536,448,361
97,331,234,-214,-68,283,34,419,580,512,439,351
97,322,224,-209,-63,273,29,390,546,488,429,341
82,297,214,-190,-65,256,24,351,507,448,405,326
78,283,204,-180,-63,244,19,322,468,419,380,312
73,268,195,-170,-61,231,14,292,429,390,356,297
68,253,185,-161,-58,219,9,263,390,361,331,283
53,224,170,-139,-58,197,4,229,351,322,307,253
48,204,156,-126,-53,180,0,204,312,292,283,234
43,185,141,-114,-48,163,-4,180,273,263,258,214
39,165,126,-102,-43,146,-9,156,234,234,234,195
34,136,102,-85,-34,119,0,126,204,204,209,175
29,117,87,-73,-29,102,0,107,175,175,185,156
24,97,73,-61,-24,85,0,87,146,146,161,136
19,78,58,-48,-19,68,0,68,117,117,136,117
14,53,39,-34,-12,46,-9,48,92,87,117,92
9,39,29,-24,-9,34,-9,29,68,68,97,78
4,24,19,-14,-7,21,-9,9,43,48,78,63
0,9,9,-4,-4,9,-9,-9,19,29,58,48
-9,0,9,4,-9,4,-9,-19,-4,4,43,29
-9,-9,0,9,-4,-4,-9,-29,-19,-9,29,19
-9,-19,-9,14,0,-14,-9,-39,-34,-24,14,9
-9,-29,-19,19,4,-24,-9,-48,-48,-39,0,0
-14,-39,-24,26,4,-31,-9,-58,-68,-58,-14,-14
-19,-48,-29,34,4,-39,-9,-68,-78,-68,-29,-19
-24,-58,-34,41,4,-46,-9,-78,-87,-78,-43,-24
-29,-68,-39,48,4,-53,-9,-87,-97,-87,-58,-29
-29,-73,-43,51,7,-58,0,-97,-112,-92,-63,-34
-29,-78,-48,53,9,-63,0,-97,-117,-97,-68,-39
-29,-82,-53,56,12,-68,0,-97,-122,-102,-73,-43
-29,-87,-58,58,14,-73,0,-97,-126,-107,-78,-48
-34,-97,-63,65,14,-80,-9,-102,-131,-122,-82,-63
-39,-97,-58,68,9,-78,-9,-107,-136,-126,-87,-68
-43,-97,-53,70,4,-75,-9,-112,-141,-131,-92,-73
-48,-97,-48,73,0,-73,-9,-117,-146,-136,-97,-78
-39,-102,-63,70,12,-82,0,-107,-146,-136,-97,-87
-39,-107,-68,73,14,-87,0,-107,-146,-136,-97,-87
-39,-112,-73,75,17,-92,0,-107,-146,-136,-97,-87
-39,-117,-78,78,19,-97,0,-107,-146,-136,-97,-87
-48,-117,-68,82,9,-92,-9,-117,-156,-146,-102,-87
-48,-117,-68,82,9,-92,-9,-117,-156,-146,-107,-87
-48,-117,-68,82,9,-92,-9,-117,-156,-146,-112,-87
-48,-117,-68,82,9,-92,-9,-117,-156,-146,-117,-87
-43,-126,-82,85,19,-104,0,-107,-156,-146,-117,-97
-39,-126,-87,82,24,-107,0,-107,-156,-146,-117,-97
-34,-126,-92,80,29,-109,0,-107,-156,-146,-117,-97
-29,-126,-97,78,34,-112,0,-107,-156,-146,-117,-97
-39,-117,-78,78,19,-97,-9,-117,-165,-146,-117,-97
-39,-117,-78,78,19,-97,-9,-117,-165,-146,-117,-97
-39,-117,-78,78,19,-97,-9,-117,-165,-146,-117,-97
-39,-117,-78,78,19,-97,-9,-117,-165,-146,-117,-97
-39,-126,-87,82,24,-107,0,-107,-156,-146,-117,-107
-39,-126,-87,82,24,-107,0,-107,-156,-146,-117,-107
-39,-126,-87,82,24,-107,0,-107,-156,-146,-117,-107
-39,-126,-87,82,24,-107,0,-107,-156,-146,-117,-107
-48,-136,-87,92,19,-112,0,-107,-156,-146,-126,-97
-48,-136,-87,92,19,-112,0,-107,-156,-146,-126,-97
-48,-136,-87,92,19,-112,0,-107,-156,-146,-126,-97
-48,-136,-87,92,19,-112,0,-107,-156,-146,-126,-97
-39,-126,-87,82,24,-107,0,-107,-146,-146,-117,-97
-39,-126,-87,82,24,-107,0,-107,-146,-146,-117,-97
-39,-126,-87,82,24,-107,0,-107,-146,-146,-117,-97
-39,-126,-87,82,24,-107,0,-107,-146,-146,-117,-97
-48,-136,-87,92,19,-112,0,-117,-156,-136,-117,-97
-48,-136,-87,92,19,-112,0,-117,-156,-136,-117,-97
-48,-136,-87,92,19,-112,0,-117,-156,-136,-117,-97
-48,-136,-87,92,19,-112,0,-117,-156,-136,-117,-97
-39,-131,-92,85,26,-112,0,-107,-156,-146,-126,-107
-39,-126,-87,82,24,-107,0,-107,-156,-146,-126,-107
-39,-122,-82,80,21,-102,0,-107,-156,-146,-126,-107
-39,-117,-78,78,19,-97,0,-107,-156,-146,-126,-107
-48,-117,-68,82,9,-92,-9,-117,-165,-146,-136,-107
-48,-117,-68,82,9,-92,-9,-117,-165,-146,-136,-107
-48,-117,-68,82,9,-92,-9,-117,-165,-146,-136,-107
-48,-117,-68,82,9,-92,-9,-117,-165,-146,-136,-107
-39,-117,-78,78,19,-97,0,-107,-156,-146,-136,-117
-39,-117,-78,78,19,-97,0,-107,-156,-146,-136,-117
-39,-117,-78,78,19,-97,0,-107,-156,-146,-136,-117
-39,-117,-78,78,19,-97,0,-107,-156,-146,-136,-117
-48,-122,-73,85,12,-97,0,-117,-156,-146,-126,-102
-48,-126,-78,87,14,-102,0,-117,-156,-146,-126,-97
-48,-131,-82,90,17,-107,0,-117,-156,-146,-126,-92
-48,-136,-87,92,19,-112,0,-117,-156,-146,-126,-87
-39,-131,-92,85,26,-112,0,-117,-165,-146,-126,-92
-39,-126,-87,82,24,-107,0,-117,-165,-146,-126,-97
-39,-122,-82,80,21,-102,0,-117,-165,-146,-126,-102
-39,-117,-78,78,19,-97,0,-117,-165,-146,-126,-107
-43,-126,-82,85,19,-104,-9,-117,-165,-156,-126,-97
-48,-126,-78,87,14,-102,-9,-117,-165,-156,-126,-97
-53,-126,-73,90,9,-100,-9,-117,-165,-156,-126,-97
-58,-126,-68,92,4,-97,-9,-117,-165,-156,-126,-97
-48,-136,-87,92,19,-112,-4,-107,-156,-146,-117,-107
-48,-136,-87,92,19,-112,0,-107,-156,-146,-117,-107
-48,-136,-87,92,19,-112,4,-107,-156,-146,-117,-107
-48,-136,-87,92,19,-112,9,-107,-156,-146,-117,-107
-48,-126,-78,87,14,-102,0,-117,-165,-156,-126,-97
-48,-126,-78,87,14,-102,0,-117,-165,-156,-126,-97
-48,-126,-78,87,14,-102,0,-117,-165,-156,-126,-97
-48,-126,-78,87,14,-102,0,-117,-165,-156,-126,-97
-48,-126,-78,87,14,-102,-9,-117,-165,-165,-136,-102
-48,-126,-78,87,14,-102,-9,-117,-165,-165,-136,-107
-48,-126,-78,87,14,-102,-9,-117,-165,-165,-136,-112
-48,-126,-78,87,14,-102,-9,-117,-165,-165,-136,-117
-48,-126,-78,87,14,-102,-9,-126,-175,-165,-136,-112
-48,-126,-78,87,14,-102,-9,-126,-175,-165,-136,-107
-48,-126,-78,87,14,-102,-9,-126,-175,-165,-136,-102
-48,-126,-78,87,14,-102,-9,-126,-175,-165,-136,-97
-48,-136,-87,92,19,-112,-9,-126,-175,-156,-136,-107
-48,-136,-87,92,19,-112,-9,-126,-175,-156,-136,-107
-48,-136,-87,92,19,-112,-9,-126,-175,-156,-136,-107
-48,-136,-87,92,19,-112,-9,-126,-175,-156,-136,-107
-48,-146,-97,97,24,-122,0,-117,-175,-165,-136,-117
-48,-146,-97,97,24,-122,0,-117,-175,-165,-136,-117
-48,-146,-97,97,24,-122,0,-117,-175,-165,-136,-117
-48,-146,-97,97,24,-122,0,-117,-175,-165,-136,-117
-58,-136,-78,97,9,-107,-9,-126,-185,-165,-136,-107
-58,-136,-78,97,9,-107,-9,-126,-185,-165,-136,-107
-58,-136,-78,97,9,-107,-9,-126,-185,-165,-136,-107
-58,-136,-78,97,9,-107,-9,-126,-185,-165,-136,-107
-53,-146,-92,100,19,-119,-9,-136,-190,-170,-136,-107
-48,-146,-97,97,24,-122,-9,-136,-195,-175,-136,-107
-43,-146,-102,95,29,-124,-9,-136,-200,-180,-136,-107
-39,-146,-107,92,34,-126,-9,-136,-204,-185,-136,-107
-48,-136,-87,92,19,-112,-19,-136,-204,-185,-146,-107
-48,-136,-87,92,19,-112,-19,-136,-204,-185,-146,-107
-48,-136,-87,92,19,-112,-19,-136,-204,-185,-146,-107
-48,-136,-87,92,19,-112,-19,-136,-204,-185,-146,-107
-39,-141,-102,90,31,-122,-9,-136,-195,-185,-146,-107
-39,-146,-107,92,34,-126,-9,-136,-195,-185,-146,-107
-39,-151,-112,95,36,-131,-9,-136,-195,-185,-146,-107
-39,-156,-117,97,39,-136,-9,-136,-195,-185,-146,-107
-48,-156,-107,102,29,-131,-9,-136,-204,-185,-146,-107
-48,-156,-107,102,29,-131,-9,-136,-204,-185,-146,-107
-48,-156,-107,102,29,-131,-9,-136,-204,-185,-146,-107
-48,-156,-107,102,29,-131,-9,-136,-204,-185,-146,-107
-39,-146,-107,92,34,-126,-9,-136,-214,-195,-146,-117
-39,-146,-107,92,34,-126,-9,-136,-214,-195,-146,-117
-39,-146,-107,92,34,-126,-9,-136,-214,-195,-146,-117
-39,-146,-107,92,34,-126,-9,-136,-214,-195,-146,-117
-43,-146,-102,95,29,-124,-19,-141,-224,-195,-156,-126
-48,-146,-97,97,24,-122,-19,-146,-224,-195,-156,-126
-53,-146,-92,100,19,-119,-19,-151,-224,-195,-156,-126
-58,-146,-87,102,14,-117,-19,-156,-224,-195,-156,-126
-48,-146,-97,97,24,-122,-9,-146,-214,-195,-156,-126
-48,-146,-97,97,24,-122,-9,-146,-214,-195,-156,-126
-48,-146,-97,97,24,-122,-9,-146,-214,-195,-156,-126
-48,-146,-97,97,24,-122,-9,-146,-214,-195,-156,-126
-58,-156,-97,107,19,-126,-19,-146,-224,-195,-165,-117
-58,-156,-97,107,19,-126,-19,-146,-224,-195,-165,-117
-58,-156,-97,107,19,-126,-19,-146,-224,-195,-165,-117
-58,-156,-97,107,19,-126,-19,-146,-224,-195,-165,-117
-53,-146,-92,100,19,-119,-9,-146,-214,-204,-165,-126
-48,-146,-97,97,24,-122,-9,-146,-214,-204,-165,-126
-43,-146,-102,95,29,-124,-9,-146,-214,-204,-165,-126
-39,-146,-107,92,34,-126,-9,-146,-214,-204,-165,-126
-53,-156,-102,104,24,-129,-19,-156,-219,-214,-170,-136
-58,-156,-97,107,19,-126,-19,-156,-224,-214,-175,-136
-63,-156,-92,109,14,-124,-19,-156,-229,-214,-180,-136
-68,-156,-87,112,9,-122,-19,-156,-234,-214,-185,-136
-63,-156,-92,109,14,-124,-9,-146,-224,-214,-175,-136
-58,-156,-97,107,19,-126,-9,-146,-224,-214,-175,-136
-53,-156,-102,104,24,-129,-9,-146,-224,-214,-175,-136
-48,-156,-107,102,29,-131,-9,-146,-224,-214,-175,-136
-58,-156,-97,107,19,-126,-19,-156,-224,-214,-165,-131
-58,-156,-97,107,19,-126,-19,-156,-224,-214,-165,-126
-58,-156,-97,107,19,-126,-19,-156,-224,-214,-165,-122
-58,-156,-97,107,19,-126,-19,-156,-224,-214,-165,-117
-53,-161,-107,107,26,-134,-9,-146,-214,-204,-156,-117
-48,-165,-117,107,34,-141,-9,-146,-214,-204,-156,-117
-43,-170,-126,107,41,-148,-9,-146,-214,-204,-156,-117
-39,-175,-136,107,48,-156,-9,-146,-214,-204,-156,-117
-43,-165,-122,104,39,-143,-19,-156,-224,-214,-165,-117
-48,-165,-117,107,34,-141,-19,-156,-224,-214,-165,-117
-53,-165,-112,109,29,-139,-19,-156,-224,-214,-165,-117
-58,-165,-107,112,24,-136,-19,-156,-224,-214,-165,-117
-48,-151,-102,100,26,-126,-9,-146,-214,-204,-156,-126
-48,-146,-97,97,24,-122,-9,-146,-214,-204,-156,-126
-48,-141,-92,95,21,-117,-9,-146,-214,-204,-156,-126
-48,-136,-87,92,19,-112,-9,-146,-214,-204,-156,-126
-48,-131,-82,90,17,-107,0,-146,-214,-195,-156,-122
-48,-126,-78,87,14,-102,0,-146,-214,-195,-156,-117
-48,-122,-73,85,12,-97,0,-146,-214,-195,-156,-112
-48,-117,-68,82,9,-92,0,-146,-214,-195,-156,-107
-43,-97,-53,70,4,-75,14,-126,-204,-185,-141,-102
-43,-82,-39,63,-2,-61,24,-126,-190,-175,-131,-97
-39,-68,-29,53,-4,-48,34,-126,-175,-161,-126,-87
-39,-58,-19,48,-9,-39,34,-122,-165,-151,-122,-87
-39,-58,-19,48,-9,-39,29,-126,-170,-156,-131,-87
-39,-58,-19,48,-9,-39,34,-126,-165,-156,-131,-82
-43,-58,-14,51,-14,-36,34,-122,-161,-156,-126,-82
-53,-58,-4,56,-24,-31,39,-117,-156,-146,-117,-73
-53,-58,-4,56,-24,-31,48,-117,-151,-151,-102,-82
-48,-53,-4,51,-21,-29,48,-112,-146,-146,-102,-82
-39,-53,-14,46,-12,-34,58,-102,-141,-141,-102,-82
-24,-53,-29,39,2,-41,68,-97,-136,-141,-102,-82
-34,-53,-19,43,-7,-36,63,-97,-141,-141,-112,-78
-34,-53,-19,43,-7,-36,63,-97,-141,-126,-107,-73
-39,-53,-14,46,-12,-34,58,-97,-136,-126,-97,-58
-43,-43,0,43,-21,-21,53,-97,-131,-126,-97,-48
-34,-34,0,34,-17,-17,39,-102,-126,-122,-92,-53
-29,-29,0,29,-14,-14,19,-117,-126,-122,-87,-48
-19,-14,4,17,-12,-4,-14,-141,-131,-122,-87,-48
-14,4,19,4,-17,12,-39,-156,-131,-117,-87,-48
-24,14,39,4,-31,26,-43,-151,-131,-107,-78,-39
-19,14,34,2,-26,24,-58,-161,-136,-107,-68,-24
-14,19,34,-2,-24,26,-73,-161,-141,-107,-63,-14
-14,24,39,-4,-26,31,-82,-161,-146,-117,-58,-9
-14,34,48,-9,-31,41,-92,-161,-141,-107,-53,-9
-14,29,43,-7,-29,36,-97,-161,-146,-107,-53,-9
-14,24,39,-4,-26,31,-97,-161,-161,-112,-53,-9
0,19,19,-9,-9,19,-97,-161,-165,-117,-53,-9
4,4,0,-4,2,2,-87,-151,-161,-122,-58,0
14,-4,-19,-4,17,-12,-92,-151,-175,-136,-58,0
14,-19,-34,2,24,-26,-92,-156,-180,-146,-68,0
14,-34,-48,9,31,-41,-87,-161,-190,-151,-73,-9
0,-48,-48,24,24,-48,-78,-161,-209,-161,-82,-24
-4,-58,-53,31,24,-56,-78,-161,-209,-165,-97,-34
-9,-68,-58,39,24,-63,-68,-161,-209,-165,-102,-39
-24,-87,-63,56,19,-75,-53,-151,-204,-170,-107,-48
-34,-92,-58,63,12,-75,-39,-146,-204,-175,-102,-63
-39,-102,-63,70,12,-82,-24,-146,-204,-175,-107,-82
-53,-112,-58,82,2,-85,-14,-146,-204,-185,-122,-92
-63,-117,-53,90,-4,-85,-14,-146,-209,-185,-126,-97
-58,-136,-78,97,9,-107,-24,-156,-219,-195,-131,-107
-58,-136,-78,97,9,-107,-34,-161,-234,-204,-151,-107
-63,-141,-78,102,7,-109,-43,-175,-253,-219,-165,-126
-63,-151,-87,107,12,-119,-48,-175,-268,-229,-180,-141
-53,-170,-117,112,31,-143,-34,-180,-273,-239,-200,-131
-48,-185,-136,117,43,-161,-34,-180,-273,-244,-200,-146
-48,-190,-141,119,46,-165,-34,-185,-278,-253,-209,-151
-53,-200,-146,126,46,-173,-34,-185,-278,-263,-219,-161
-63,-204,-141,134,39,-173,-34,-185,-283,-253,-209,-156
-73,-209,-136,141,31,-173,-34,-185,-283,-258,-214,-156
-73,-209,-136,141,31,-173,-34,-185,-283,-263,-219,-156
-78,-209,-131,143,26,-170,-34,-195,-292,-263,-224,-161
-73,-209,-136,141,31,-173,-34,-185,-292,-273,-214,-165
-63,-209,-146,136,41,-178,-34,-180,-287,-273,-209,-165
-58,-209,-151,134,46,-180,-29,-180,-287,-273,-209,-165
-53,-209,-156,131,51,-183,-29,-175,-287,-273,-209,-165
-68,-219,-151,143,41,-185,-29,-185,-292,-273,-219,-165
-73,-224,-151,148,39,-187,-29,-190,-292,-273,-219,-165
-78,-224,-146,151,34,-185,-29,-190,-287,-273,-219,-165
-82,-224,-141,153,29,-183,-29,-190,-287,-273,-224,-165
-73,-219,-146,146,36,-183,-29,-180,-297,-273,-224,-175
-68,-214,-146,141,39,-180,-29,-180,-297,-278,-229,-185
-58,-209,-151,134,46,-180,-29,-180,-292,-278,-229,-185
-53,-209,-156,131,51,-183,-24,-180,-292,-278,-224,-185
-63,-219,-156,141,46,-187,-34,-185,-302,-287,-234,-180
-68,-219,-151,143,41,-185,-34,-185,-302,-287,-239,-180
-68,-214,-146,141,39,-180,-34,-190,-302,-287,-239,-180
-68,-214,-146,141,39,-180,-34,-190,-302,-292,-244,-180
-58,-214,-156,136,48,-185,-29,-185,-297,-287,-229,-170
-58,-214,-156,136,48,-185,-24,-175,-292,-283,-224,-170
-58,-219,-161,139,51,-190,-19,-170,-287,-278,-214,-170
-58,-219,-161,139,51,-190,-9,-165,-278,-268,-209,-170
-68,-229,-161,148,46,-195,-19,-170,-287,-268,-209,-156
-68,-219,-151,143,41,-185,-19,-180,-287,-268,-209,-146
-73,-219,-146,146,36,-183,-19,-170,-287,-278,-229,-170
-73,-239,-165,156,46,-202,-14,-165,-283,-273,-229,-185
-68,-268,-200,168,65,-234,9,-146,-273,-268,-234,-200
-63,-273,-209,168,73,-241,43,-122,-268,-283,-263,-239
-78,-307,-229,192,75,-268,102,-97,-278,-317,-346,-326
-117,-395,-278,256,80,-336,185,-34,-263,-351,-424,-400
-151,-478,-326,314,87,-402,273,34,-224,-370,-497,-483
-175,-497,-322,336,73,-409,331,73,-200,-380,-570,-556
-180,-502,-322,341,70,-412,375,97,-170,-380,-610,-600
-180,-502,-322,341,70,-412,409,131,-141,-361,-619,-619
-161,-473,-312,317,75,-392,414,156,-117,-346,-600,-610
-117,-448,-331,283,107,-390,405,170,-112,-331,-570,-590
-68,-395,-326,231,129,-361,400,229,-48,-273,-507,-522
-19,-322,-302,170,141,-312,380,326,73,-156,-385,-395
34,-214,-248,90,141,-231,361,419,214,4,-214,-244
78,-107,-185,14,131,-146,331,502,356,161,-19,-73
141,29,-112,-85,126,-41,302,600,522,351,195,117
200,204,4,-202,97,104,273,717,761,600,458,336
263,375,112,-319,75,244,234,824,1000,858,761,580
331,556,224,-444,53,390,141,824,1137,1078,1054,834
390,756,366,-573,12,561,-14,707,1185,1254,1342,1107
439,980,541,-710,-51,761,-214,541,1200,1434,1664,1420
483,1254,771,-868,-143,1012,-458,307,1205,1654,2025,1766
507,1478,971,-993,-231,1224,-653,112,1195,1830,2342,2074
531,1464,932,-997,-200,1198,-761,19,1102,1854,2449,2186
546,1351,805,-949,-129,1078,-839,-82,878,1717,2352,2137
546,1302,756,-924,-104,1029,-888,-209,678,1532,2191,2044
492,1288,795,-890,-151,1041,-854,-307,595,1405,2000,1917
385,1215,829,-800,-222,1022,-736,-439,473,1180,1664,1664
244,1078,834,-661,-295,956,-610,-692,146,761,1146,1302
63,941,878,-502,-407,910,-546,-1029,-283,312,678,985
-78,858,936,-390,-507,897,-556,-1283,-624,-24,390,810
-102,746,849,-322,-475,797,-600,-1263,-775,-214,214,663
-63,531,595,-234,-329,563,-619,-1083,-795,-302,107,492
-48,302,351,-126,-200,326,-580,-902,-814,-370,0,336
-58,131,190,-36,-124,161,-478,-717,-805,-429,-102,180
-39,19,58,9,-48,39,-351,-527,-702,-429,-165,48
-19,-68,-48,43,14,-58,-268,-375,-575,-405,-214,-43
-4,-112,-107,58,51,-109,-229,-263,-478,-366,-214,-73
-4,-112,-107,58,51,-109,-204,-190,-366,-273,-175,-53
-4,-78,-73,41,34,-75,-170,-151,-273,-200,-131,-29
-14,-53,-39,34,12,-46,-146,-131,-224,-165,-112,-39
-29,-53,-24,41,-2,-39,-112,-117,-185,-136,-112,-53
-24,-78,-53,51,14,-65,-73,-82,-146,-117,-87,-73
-14,-97,-82,56,34,-90,-34,-48,-107,-97,-68,-68
-4,-122,-117,63,56,-119,0,-14,-82,-78,-68,-73
-4,-122,-117,63,56,-119,4,-9,-87,-87,-82,-78
-14,-126,-112,70,48,-119,0,-19,-97,-102,-92,-78
-19,-151,-131,85,56,-141,9,-14,-97,-102,-107,-87
-29,-156,-126,92,48,-141,14,-14,-97,-112,-112,-97
-39,-156,-117,97,39,-136,14,-14,-102,-117,-126,-107
-48,-156,-107,102,29,-131,14,-14,-102,-122,-131,-112
-43,-156,-112,100,34,-134,39,0,-92,-122,-122,-122
-39,-161,-122,100,41,-141,39,9,-92,-122,-126,-122
-34,-161,-126,97,46,-143,39,9,-92,-122,-126,-131
-24,-161,-136,92,56,-148,39,9,-87,-122,-131,-136
-29,-175,-146,102,58,-161,34,0,-97,-126,-136,-136
-39,-180,-141,109,51,-161,39,4,-92,-126,-141,-136
-43,-180,-136,112,46,-158,39,4,-92,-131,-151,-136
-53,-175,-122,114,34,-148,43,9,-92,-131,-161,-136
-48,-165,-117,107,34,-141,43,9,-82,-131,-161,-141
-39,-165,-126,102,43,-146,43,9,-82,-131,-156,-146
-34,-165,-131,100,48,-148,43,19,-73,-126,-151,-151
-29,-165,-136,97,53,-151,48,19,-68,-126,-151,-161
-34,-175,-141,104,53,-158,48,19,-78,-117,-141,-156
-34,-175,-141,104,53,-158,53,24,-73,-112,-136,-146
-34,-185,-151,109,58,-168,53,34,-68,-107,-136,-141
-34,-185,-151,109,58,-168,53,34,-68,-107,-131,-131
-24,-180,-156,102,65,-168,68,43,-58,-107,-122,-131
-29,-175,-146,102,58,-161,68,48,-53,-107,-122,-131
-29,-175,-146,102,58,-161,68,48,-48,-97,-122,-131
-14,-175,-161,95,73,-168,68,48,-39,-97,-122,-131
-24,-175,-151,100,63,-163,63,53,-48,-107,-131,-122
-29,-170,-141,100,56,-156,63,53,-43,-97,-126,-122
-34,-170,-136,102,51,-153,58,48,-39,-97,-126,-122
-34,-165,-131,100,48,-148,53,48,-39,-92,-126,-117
-24,-165,-141,95,58,-153,53,58,-29,-82,-122,-122
-24,-165,-141,95,58,-153,53,58,-19,-78,-122,-126
-19,-165,-146,92,63,-156,53,68,-14,-73,-122,-131
-19,-165,-146,92,63,-156,58,68,-9,-73,-117,-131
-19,-170,-151,95,65,-161,58,78,-4,-73,-112,-126
-19,-161,-141,90,61,-151,58,78,0,-63,-112,-122
-24,-161,-136,92,56,-148,58,78,4,-58,-112,-112
-34,-161,-126,97,46,-143,58,87,4,-58,-107,-102
-34,-156,-122,95,43,-139,63,82,4,-58,-97,-102
-29,-151,-122,90,46,-136,63,82,9,-43,-97,-107
-19,-136,-117,78,48,-126,63,82,14,-43,-92,-117
-14,-122,-107,68,46,-114,63,92,19,-43,-92,-122
-24,-141,-117,82,46,-129,53,97,34,-34,-87,-112
-19,-141,-122,80,51,-131,63,102,48,-29,-78,-107
-19,-141,-122,80,51,-131,63,112,48,-24,-78,-102
-19,-141,-122,80,51,-131,63,117,53,-19,-78,-102
-14,-122,-107,68,46,-114,63,117,58,-14,-82,-102
-14,-122,-107,68,46,-114,63,122,68,-9,-82,-107
-14,-112,-97,63,41,-104,63,122,73,-4,-78,-107
-9,-102,-92,56,41,-97,63,122,78,-4,-78,-112
-9,-102,-92,56,41,-97,63,131,87,4,-68,-97
-9,-102,-92,56,41,-97,68,141,102,14,-63,-92
-4,-102,-97,53,46,-100,68,146,102,19,-58,-87
-4,-97,-92,51,43,-95,68,146,107,24,-58,-73
-14,-97,-82,56,34,-90,73,146,117,39,-48,-82
-14,-97,-82,56,34,-90,73,161,126,48,-39,-78
-14,-87,-73,51,29,-80,73,165,131,53,-34,-73
-14,-87,-73,51,29,-80,73,170,146,58,-29,-73
-4,-97,-92,51,43,-95,78,175,156,63,-24,-68
-4,-87,-82,46,39,-85,78,185,161,68,-19,-58
0,-82,-82,41,41,-82,82,190,175,73,-14,-53
0,-78,-78,39,39,-78,82,195,180,78,-9,-39
0,-68,-68,34,34,-68,78,200,180,97,-4,-39
0,-63,-63,31,31,-63,78,200,185,102,-4,-43
0,-53,-53,26,26,-53,73,214,200,112,4,-43
0,-48,-48,24,24,-48,73,219,209,122,9,-43
0,-48,-48,24,24,-48,82,214,224,131,19,-43
0,-43,-43,21,21,-43,87,229,244,141,24,-39
4,-39,-43,17,24,-41,87,239,248,156,29,-29
4,-34,-39,14,21,-36,87,248,268,165,34,-24
-4,-19,-14,12,4,-17,87,263,278,175,39,-19
-4,-14,-9,9,2,-12,87,268,292,185,48,-14
-4,-9,-4,7,0,-7,92,283,297,195,63,-9
-4,-4,0,4,-2,-2,92,292,317,209,63,-4
9,-4,-14,-2,12,-9,92,307,336,229,78,4
14,4,-9,-9,12,-2,97,317,361,239,92,9
19,4,-14,-12,17,-4,97,326,380,253,107,29
24,14,-9,-19,17,2,97,341,400,268,122,39
14,19,4,-17,4,12,102,341,409,278,117,43
14,29,14,-21,0,21,102,351,424,292,122,48
14,29,14,-21,0,21,107,361,444,307,141,63
14,39,24,-26,-4,31,107,375,458,322,151,63
29,63,34,-46,-2,48,122,395,478,346,156,58
34,78,43,-56,-4,61,126,405,502,361,175,68
39,78,39,-58,0,58,126,419,522,375,195,78
39,92,53,-65,-7,73,131,434,541,390,209,87
39,107,68,-73,-14,87,122,439,551,405,209,102
39,126,87,-82,-24,107,122,448,575,419,219,117
39,136,97,-87,-29,117,122,453,595,439,234,126
39,141,102,-90,-31,122,117,468,614,453,253,136
53,170,117,-112,-31,143,117,478,634,468,268,141
68,185,117,-126,-24,151,117,488,649,483,278,151
68,195,126,-131,-29,161,122,507,673,502,297,161
68,209,141,-139,-36,175,122,522,692,522,312,170
58,219,161,-139,-51,190,117,517,712,536,326,190
63,229,165,-146,-51,197,117,536,727,556,336,204
63,234,170,-148,-53,202,112,541,741,570,351,214
68,244,175,-156,-53,209,112,546,761,585,356,224
78,263,185,-170,-53,224,122,561,785,619,375,248
87,278,190,-183,-51,234,122,575,810,634,395,258
92,287,195,-190,-51,241,126,585,829,649,419,273
92,292,200,-192,-53,246,131,595,844,663,434,287
82,307,224,-195,-70,265,126,590,844,668,434,302
87,326,239,-207,-75,283,112,585,844,673,439,317
87,346,258,-217,-85,302,107,585,844,683,448,326
87,356,268,-222,-90,312,97,580,854,692,463,341
102,356,253,-229,-75,305,102,590,873,712,483,351
102,361,258,-231,-78,309,97,590,873,722,492,356
107,370,263,-239,-78,317,92,590,873,722,502,366
117,380,263,-248,-73,322,92,590,873,722,512,375
112,390,278,-251,-82,334,73,570,868,717,517,385
107,400,292,-253,-92,346,58,561,854,712,517,400
107,405,297,-256,-95,351,53,541,834,702,517,409
102,414,312,-258,-104,363,43,527,814,692,517,414
112,409,297,-261,-92,353,39,517,790,673,527,409
112,409,297,-261,-92,353,34,502,775,663,527,414
122,405,283,-263,-80,344,34,492,761,658,531,419
112,400,287,-256,-87,344,34,463,732,639,531,419
107,400,292,-253,-92,346,14,439,692,619,522,419
107,395,287,-251,-90,341,-4,409,663,595,502,419
102,390,287,-246,-92,339,-14,375,629,561,483,419
87,375,287,-231,-100,331,-24,336,590,531,463,419
92,351,258,-222,-82,305,-29,322,546,497,434,390
87,346,258,-217,-85,302,-34,287,502,463,419,375
87,331,244,-209,-78,287,-34,268,463,434,405,346
82,307,224,-195,-70,265,-34,229,424,395,380,322
78,278,200,-178,-61,239,-34,209,385,361,356,307
68,244,175,-156,-53,209,-34,185,351,331,331,297
53,224,170,-139,-58,197,-34,161,312,297,297,273
39,200,161,-119,-61,180,-34,136,273,263,263,253
39,185,146,-112,-53,165,-29,117,239,219,234,224
34,165,131,-100,-48,148,-34,92,204,185,209,200
29,146,117,-87,-43,131,-34,73,165,156,190,175
29,136,107,-82,-39,122,-34,48,136,126,165,156
24,117,92,-70,-34,104,-34,24,92,102,141,141
9,87,78,-48,-34,82,-29,4,63,73,117,126
-4,68,73,-31,-39,70,-29,-4,43,53,97,112
-14,53,68,-19,-41,61,-34,-29,14,29,78,92
-14,53,68,-19,-41,61,-39,-43,0,0,63,63
-19,43,63,-12,-41,53,-34,-48,-24,-14,39,48
-14,24,39,-4,-26,31,-24,-53,-39,-29,24,34
-9,4,14,2,-12,9,-14,-58,-53,-39,4,14
-24,-4,19,14,-21,7,-14,-63,-68,-58,-14,14
-29,-19,9,24,-19,-4,-14,-68,-78,-68,-24,0
-29,-34,-4,31,-12,-19,-14,-78,-97,-82,-39,-9
-34,-39,-4,36,-14,-21,-14,-87,-112,-97,-53,-19
-34,-39,-4,36,-14,-21,-14,-87,-122,-102,-58,-29
-39,-53,-14,46,-12,-34,-14,-97,-126,-112,-73,-39
-43,-73,-29,58,-7,-51,-14,-97,-126,-117,-78,-43
-43,-78,-34,61,-4,-56,-14,-97,-126,-126,-78,-53
-43,-68,-24,56,-9,-46,-14,-112,-146,-131,-82,-58
-43,-68,-24,56,-9,-46,-14,-117,-156,-141,-87,-53
-43,-73,-29,58,-7,-51,-14,-122,-156,-146,-87,-53
-43,-87,-43,65,0,-65,-9,-126,-161,-146,-92,-48
-43,-82,-39,63,-2,-61,-9,-122,-156,-151,-97,-63
-43,-82,-39,63,-2,-61,-14,-126,-161,-151,-102,-68
-43,-82,-39,63,-2,-61,-14,-126,-170,-151,-102,-73
-43,-87,-43,65,0,-65,-14,-126,-170,-151,-102,-73
-43,-112,-68,78,12,-90,-9,-122,-156,-141,-102,-73
-39,-112,-73,75,17,-92,-9,-122,-156,-146,-102,-73
-39,-102,-63,70,12,-82,-9,-122,-165,-151,-102,-73
-39,-102,-63,70,12,-82,-9,-131,-165,-151,-112,-68
-48,-92,-43,70,-2,-68,-9,-131,-175,-156,-122,-68
-53,-92,-39,73,-7,-65,-9,-126,-175,-161,-126,-73
-53,-92,-39,73,-7,-65,-9,-126,-175,-165,-126,-87
-48,-102,-53,75,2,-78,-9,-126,-175,-170,-126,-92
-43,-102,-58,73,7,-80,0,-126,-165,-165,-117,-82
-39,-102,-63,70,12,-82,0,-126,-165,-165,-117,-82
-39,-102,-63,70,12,-82,0,-126,-175,-161,-117,-87
-43,-102,-58,73,7,-80,0,-126,-165,-156,-117,-87
-39,-107,-68,73,14,-87,0,-117,-165,-146,-107,-73
-43,-112,-68,78,12,-90,0,-117,-165,-146,-112,-73
-43,-122,-78,82,17,-100,0,-117,-170,-146,-117,-68
-39,-126,-87,82,24,-107,0,-117,-170,-146,-117,-68
-39,-112,-73,75,17,-92,-9,-126,-170,-156,-117,-87
-39,-102,-63,70,12,-82,-9,-126,-170,-156,-117,-92
-39,-97,-58,68,9,-78,-4,-126,-170,-156,-112,-92
-39,-92,-53,65,7,-73,-4,-126,-165,-156,-112,-87
-39,-112,-73,75,17,-92,-4,-126,-165,-156,-117,-82
-43,-112,-68,78,12,-90,-4,-126,-165,-156,-117,-82
-43,-107,-63,75,9,-85,-4,-126,-165,-156,-122,-87
-39,-107,-68,73,14,-87,-9,-126,-165,-156,-126,-87
-39,-107,-68,73,14,-87,0,-117,-165,-156,-117,-92
-39,-107,-68,73,14,-87,4,-117,-165,-156,-117,-92
-39,-112,-73,75,17,-92,4,-117,-165,-156,-117,-92
-34,-112,-78,73,21,-95,4,-112,-165,-156,-112,-87
-43,-107,-63,75,9,-85,-4,-112,-175,-156,-122,-87
-48,-107,-58,78,4,-82,-4,-112,-175,-156,-122,-87
-53,-107,-53,80,0,-80,-4,-117,-175,-156,-126,-87
-53,-102,-48,78,-2,-75,-4,-117,-175,-156,-126,-87
-39,-102,-63,70,12,-82,4,-117,-170,-146,-117,-87
-39,-107,-68,73,14,-87,4,-112,-161,-146,-112,-87
-39,-107,-68,73,14,-87,9,-112,-156,-146,-112,-92
-34,-107,-73,70,19,-90,9,-112,-151,-141,-112,-92
-39,-97,-58,68,9,-78,0,-122,-156,-151,-122,-82
-53,-97,-43,75,-4,-70,-9,-122,-161,-151,-126,-82
-58,-92,-34,75,-12,-63,-9,-126,-170,-161,-126,-82
-58,-92,-34,75,-12,-63,-4,-126,-175,-161,-126,-82
-53,-107,-53,80,0,-80,4,-117,-165,-146,-117,-82
-48,-102,-53,75,2,-78,4,-117,-165,-146,-117,-82
-43,-107,-63,75,9,-85,4,-112,-161,-146,-117,-82
-34,-117,-82,75,24,-100,4,-112,-161,-141,-112,-82
-39,-107,-68,73,14,-87,-4,-122,-161,-151,-122,-78
-48,-107,-58,78,4,-82,-9,-122,-161,-156,-126,-78
-58,-107,-48,82,-4,-78,-9,-122,-161,-156,-131,-78
-63,-107,-43,85,-9,-75,-9,-126,-165,-156,-131,-78
-58,-97,-39,78,-9,-68,0,-117,-165,-146,-117,-78
-48,-97,-48,73,0,-73,0,-117,-165,-146,-117,-87
-43,-92,-48,68,2,-70,4,-117,-165,-151,-117,-87
-34,-92,-58,63,12,-75,4,-117,-165,-151,-117,-87
-43,-102,-58,73,7,-80,-4,-117,-165,-151,-117,-73
-48,-102,-53,75,2,-78,-4,-117,-165,-151,-117,-73
-48,-102,-53,75,2,-78,-4,-117,-165,-151,-117,-73
-48,-102,-53,75,2,-78,-9,-117,-165,-151,-122,-73
-39,-102,-63,70,12,-82,0,-112,-170,-151,-112,-78
-39,-102,-63,70,12,-82,0,-112,-170,-151,-112,-82
-39,-102,-63,70,12,-82,0,-107,-170,-151,-112,-87
-34,-107,-73,70,19,-90,0,-107,-170,-151,-112,-92
-39,-112,-73,75,17,-92,-9,-117,-170,-151,-117,-92
-43,-112,-68,78,12,-90,-9,-122,-170,-151,-117,-87
-48,-112,-63,80,7,-87,-9,-126,-170,-151,-122,-78
-63,-112,-48,87,-7,-80,-9,-126,-180,-156,-122,-73
-58,-102,-43,80,-7,-73,-14,-126,-180,-165,-122,-78
-48,-97,-48,73,0,-73,-14,-126,-180,-165,-122,-82
-39,-92,-53,65,7,-73,-9,-122,-180,-165,-122,-87
-34,-92,-58,63,12,-75,-9,-122,-180,-165,-122,-97
-39,-97,-58,68,9,-78,-19,-131,-190,-161,-122,-102
-43,-97,-53,70,4,-75,-19,-136,-190,-161,-126,-97
-48,-102,-53,75,2,-78,-19,-136,-190,-161,-126,-82
-53,-107,-53,80,0,-80,-24,-136,-190,-161,-126,-73
-58,-102,-43,80,-7,-73,-14,-131,-190,-170,-126,-82
-53,-97,-43,75,-4,-70,-14,-131,-190,-170,-126,-87
-43,-97,-53,70,4,-75,-14,-131,-190,-170,-126,-92
-34,-92,-58,63,12,-75,-14,-131,-190,-175,-131,-92
-39,-107,-68,73,14,-87,-14,-126,-190,-175,-122,-87
-43,-112,-68,78,12,-90,-9,-126,-190,-175,-122,-82
-53,-117,-63,85,4,-90,-9,-131,-195,-175,-122,-73
-58,-126,-68,92,4,-97,-14,-136,-195,-180,-122,-68
-53,-122,-68,87,7,-95,-14,-136,-195,-170,-131,-82
-48,-117,-68,82,9,-92,-14,-131,-195,-170,-131,-87
-43,-117,-73,80,14,-95,-14,-131,-195,-170,-131,-92
-39,-112,-73,75,17,-92,-14,-131,-195,-170,-131,-107
-48,-112,-63,80,7,-87,-14,-136,-195,-180,-131,-102
-43,-112,-68,78,12,-90,-14,-136,-204,-185,-131,-97
-43,-107,-63,75,9,-85,-14,-136,-204,-190,-131,-87
-53,-107,-53,80,0,-80,-14,-141,-209,-190,-141,-82
-43,-117,-73,80,14,-95,-14,-141,-209,-190,-141,-87
-39,-117,-78,78,19,-97,-14,-141,-209,-190,-141,-92
-39,-117,-78,78,19,-97,-9,-141,-209,-190,-141,-97
-39,-122,-82,80,21,-102,-9,-141,-204,-190,-141,-107
-43,-131,-87,87,21,-109,-19,-151,-204,-180,-141,-97
-48,-126,-78,87,14,-102,-19,-151,-209,-180,-141,-102
-53,-126,-73,90,9,-100,-19,-151,-209,-185,-141,-87
-63,-136,-73,100,4,-104,-19,-151,-209,-185,-141,-78
-53,-126,-73,90,9,-100,-14,-141,-209,-185,-146,-78
-53,-122,-68,87,7,-95,-14,-146,-214,-185,-146,-82
-53,-122,-68,87,7,-95,-9,-146,-214,-185,-146,-97
-53,-122,-68,87,7,-95,-9,-146,-214,-185,-146,-107
-58,-131,-73,95,7,-102,-19,-146,-214,-190,-136,-102
-58,-131,-73,95,7,-102,-19,-146,-214,-190,-136,-102
-58,-141,-82,100,12,-112,-19,-146,-214,-185,-131,-97
-58,-131,-73,95,7,-102,-19,-156,-214,-185,-131,-92
-48,-112,-63,80,7,-87,-24,-156,-219,-200,-151,-102
-53,-112,-58,82,2,-85,-24,-156,-224,-200,-151,-102
-53,-122,-68,87,7,-95,-24,-151,-224,-204,-151,-102
-53,-122,-68,87,7,-95,-24,-151,-219,-204,-151,-102
-53,-122,-68,87,7,-95,-24,-161,-229,-204,-151,-102
-48,-126,-78,87,14,-102,-24,-151,-229,-204,-146,-102
-39,-126,-87,82,24,-107,-19,-151,-229,-200,-146,-102
-48,-126,-78,87,14,-102,-19,-151,-229,-200,-146,-102
-48,-122,-73,85,12,-97,-29,-156,-224,-195,-151,-112
-48,-117,-68,82,9,-92,-29,-156,-229,-200,-156,-112
-48,-117,-68,82,9,-92,-24,-156,-229,-200,-156,-112
-48,-117,-68,82,9,-92,-24,-156,-229,-204,-156,-112
-48,-126,-78,87,14,-102,-24,-156,-229,-204,-156,-112
-43,-126,-82,85,19,-104,-24,-156,-229,-204,-151,-112
-43,-126,-82,85,19,-104,-24,-156,-229,-204,-146,-107
-43,-122,-78,82,17,-100,-24,-156,-229,-200,-141,-97
-53,-131,-78,92,12,-104,-34,-165,-239,-200,-141,-102
-53,-126,-73,90,9,-100,-34,-165,-239,-204,-146,-107
-58,-126,-68,92,4,-97,-34,-165,-239,-204,-151,-112
-58,-126,-68,92,4,-97,-34,-165,-239,-204,-156,-112
-48,-136,-87,92,19,-112,-24,-156,-234,-204,-151,-107
-48,-136,-87,92,19,-112,-24,-156,-229,-204,-151,-102
-43,-126,-82,85,19,-104,-24,-156,-224,-204,-151,-107
-43,-126,-82,85,19,-104,-19,-156,-219,-204,-151,-102
-53,-117,-63,85,4,-90,-29,-165,-224,-214,-156,-112
-53,-117,-63,85,4,-90,-29,-161,-229,-214,-161,-112
-58,-126,-68,92,4,-97,-34,-161,-234,-214,-165,-107
-63,-126,-63,95,0,-95,-34,-165,-239,-214,-170,-107
-53,-136,-82,95,14,-109,-24,-156,-234,-204,-170,-107
-48,-131,-82,90,17,-107,-24,-156,-234,-204,-165,-107
-39,-131,-92,85,26,-112,-19,-156,-234,-200,-161,-107
-39,-131,-92,85,26,-112,-19,-156,-229,-200,-151,-107
-48,-141,-92,95,21,-117,-29,-165,-234,-209,-161,-107
-53,-141,-87,97,17,-114,-34,-165,-234,-209,-156,-107
-53,-136,-82,95,14,-109,-34,-161,-234,-209,-156,-107
-53,-136,-82,95,14,-109,-34,-161,-239,-209,-161,-107
-34,-126,-92,80,29,-109,-24,-146,-219,-200,-141,-107
-34,-112,-78,73,21,-95,-14,-146,-224,-200,-146,-112
-43,-112,-68,78,12,-90,-4,-146,-224,-190,-146,-107
-53,-112,-58,82,2,-85,-14,-156,-229,-190,-146,-97
-48,-97,-48,73,0,-73,-29,-165,-234,-204,-156,-97
-58,-97,-39,78,-9,-68,-24,-161,-229,-190,-151,-87
-58,-97,-39,78,-9,-68,-19,-156,-224,-185,-146,-87
-58,-97,-39,78,-9,-68,-14,-151,-219,-180,-141,-87
-58,-97,-39,78,-9,-68,-9,-146,-214,-175,-136,-87
-58,-73,-14,65,-21,-43,-4,-136,-204,-170,-122,-73
-53,-53,0,53,-26,-26,4,-136,-190,-165,-112,-68
-43,-34,9,39,-26,-12,14,-136,-175,-156,-107,-58
-39,-19,19,29,-29,0,14,-131,-165,-151,-102,-58
-39,-9,29,24,-34,9,4,-136,-165,-146,-107,-68
-39,-9,29,24,-34,9,14,-136,-165,-146,-112,-63
-43,-9,34,26,-39,12,19,-131,-165,-146,-112,-63
-53,-9,43,31,-48,17,29,-126,-165,-136,-107,-53
-53,-19,34,36,-43,7,39,-117,-151,-141,-92,-53
-48,-14,34,31,-41,9,39,-112,-146,-136,-92,-53
-39,-14,24,26,-31,4,48,-102,-141,-131,-92,-53
-24,-14,9,19,-17,-2,58,-97,-136,-131,-92,-53
-24,-14,9,19,-17,-2,58,-92,-141,-131,-102,-53
-24,-14,9,19,-17,-2,53,-97,-141,-117,-97,-53
-29,-14,14,21,-21,0,43,-102,-136,-117,-87,-43
-34,-4,29,19,-31,12,34,-107,-131,-117,-87,-39
-24,0,24,12,-24,12,14,-117,-126,-112,-73,-34
-19,0,19,9,-19,9,0,-126,-126,-112,-68,-29
-9,9,19,0,-14,14,-29,-146,-131,-112,-68,-29
-4,24,29,-9,-17,26,-48,-156,-131,-107,-68,-29
-19,34,53,-7,-36,43,-43,-151,-141,-107,-63,-14
-19,34,53,-7,-36,43,-58,-161,-146,-107,-58,-4
-19,39,58,-9,-39,48,-73,-161,-151,-107,-58,0
-24,43,68,-9,-46,56,-82,-161,-156,-117,-58,0
-9,43,53,-17,-31,48,-87,-161,-151,-117,-53,0
-4,39,43,-17,-24,41,-97,-161,-156,-117,-53,0
0,34,34,-17,-17,34,-102,-161,-170,-122,-53,0
19,29,9,-24,4,19,-107,-161,-175,-126,-53,0
19,14,-4,-17,12,4,-107,-151,-180,-122,-68,9
24,14,-9,-19,17,2,-112,-151,-195,-136,-68,9
19,9,-9,-14,14,0,-112,-156,-200,-146,-78,9
14,4,-9,-9,12,-2,-107,-161,-209,-151,-82,0
19,-14,-34,-2,26,-24,-102,-161,-214,-156,-82,-4
14,-19,-34,2,24,-26,-97,-161,-209,-156,-87,-14
9,-24,-34,7,21,-29,-82,-161,-204,-151,-82,-19
-4,-39,-34,21,14,-36,-63,-151,-195,-151,-78,-29
-19,-58,-39,39,9,-48,-58,-151,-209,-161,-97,-34
-29,-73,-43,51,7,-58,-43,-156,-214,-165,-107,-53
-48,-87,-39,68,-4,-63,-34,-161,-219,-180,-126,-63
-63,-97,-34,80,-14,-65,-34,-165,-229,-185,-136,-68
-53,-97,-43,75,-4,-70,-29,-165,-224,-185,-126,-73
-48,-97,-48,73,0,-73,-34,-170,-234,-195,-141,-78
-48,-102,-53,75,2,-78,-39,-185,-248,-209,-151,-102
-43,-112,-68,78,12,-90,-39,-185,-258,-219,-161,-122
-48,-131,-82,90,17,-107,-39,-180,-268,-229,-180,-117
-48,-146,-97,97,24,-122,-43,-180,-273,-234,-180,-126
-53,-151,-97,102,21,-124,-48,-185,-283,-244,-190,-126
-63,-161,-97,112,17,-129,-53,-185,-287,-253,-200,-131
-58,-156,-97,107,19,-126,-48,-185,-283,-244,-190,-146
-63,-161,-97,112,17,-129,-43,-185,-283,-248,-195,-146
-58,-161,-102,109,21,-131,-39,-185,-283,-253,-200,-146
-58,-161,-102,109,21,-131,-34,-195,-292,-253,-204,-151
-68,-170,-102,119,17,-136,-43,-195,-292,-253,-204,-151
-63,-170,-107,117,21,-139,-43,-190,-287,-253,-200,-146
-63,-170,-107,117,21,-139,-39,-190,-287,-253,-200,-141
-63,-170,-107,117,21,-139,-39,-185,-287,-253,-200,-136
-53,-170,-117,112,31,-143,-29,-185,-292,-253,-200,-146
-53,-175,-122,114,34,-148,-29,-190,-292,-253,-200,-146
-53,-175,-122,114,34,-148,-29,-190,-287,-253,-200,-146
-53,-175,-122,114,34,-148,-29,-190,-287,-253,-204,-146
-68,-185,-117,126,24,-151,-39,-190,-287,-253,-204,-136
-68,-185,-117,126,24,-151,-39,-190,-287,-258,-209,-146
-63,-185,-122,124,29,-153,-39,-190,-283,-258,-209,-146
-63,-190,-126,126,31,-158,-34,-190,-283,-258,-204,-146
-53,-180,-126,117,36,-153,-34,-185,-292,-258,-204,-151
-58,-180,-122,119,31,-151,-34,-185,-292,-258,-209,-151
-58,-175,-117,117,29,-146,-34,-190,-292,-258,-209,-151
-58,-175,-117,117,29,-146,-34,-190,-292,-263,-214,-151
-58,-175,-117,117,29,-146,-34,-190,-292,-263,-214,-151
-58,-175,-117,117,29,-146,-34,-185,-292,-263,-214,-151
-58,-180,-122,119,31,-151,-34,-185,-292,-263,-209,-151
-58,-180,-122,119,31,-151,-29,-185,-287,-258,-209,-151
-68,-190,-122,129,26,-156,-39,-180,-287,-258,-209,-146
-68,-180,-112,124,21,-146,-29,-170,-287,-258,-209,-156
-53,-180,-126,117,36,-153,-29,-170,-287,-258,-209,-161
-43,-200,-156,122,56,-178,-14,-165,-283,-253,-219,-175
-58,-219,-161,139,51,-190,9,-146,-273,-268,-234,-190
-82,-263,-180,173,48,-222,53,-122,-287,-292,-273,-229
-107,-317,-209,212,51,-263,102,-107,-317,-346,-366,-317
-146,-405,-258,275,56,-331,185,-73,-322,-409,-473,-409
-170,-448,-278,309,53,-363,283,-34,-322,-458,-566,-512
-185,-468,-283,326,48,-375,341,4,-317,-488,-629,-575
-180,-473,-292,326,56,-383,385,29,-297,-488,-658,-619
-170,-483,-312,326,70,-397,419,43,-278,-478,-668,-629
-151,-473,-322,312,85,-397,414,58,-263,-473,-658,-610
-117,-458,-341,287,112,-400,414,112,-239,-439,-619,-551
-78,-405,-326,241,124,-366,409,180,-165,-361,-536,-473
-29,-283,-253,156,112,-268,400,278,-43,-244,-414,-366
34,-185,-219,75,126,-202,400,380,107,-82,-253,-224
107,-87,-195,-9,151,-141,390,502,278,112,-39,-53
180,68,-112,-124,146,-21,370,629,502,341,214,146
248,253,4,-251,122,129,331,746,761,600,497,366
322,434,112,-378,104,273,244,795,971,868,800,619
390,624,234,-507,78,429,92,736,1078,1107,1102,883
448,834,385,-641,31,610,-122,619,1146,1322,1420,1166
497,1058,561,-778,-31,810,-361,463,1210,1551,1751,1478
531,1332,800,-932,-134,1066,-595,278,1312,1839,2142,1844
566,1517,951,-1041,-192,1234,-761,170,1381,2064,2469,2122
610,1464,854,-1037,-122,1159,-849,117,1307,2059,2537,2176
624,1361,736,-993,-56,1049,-917,4,1093,1873,2420,2117
595,1302,707,-949,-56,1005,-936,-112,912,1698,2259,2034
512,1229,717,-871,-102,973,-863,-239,761,1493,2020,1878
375,1098,722,-736,-173,910,-746,-458,424,1073,1566,1586
234,922,688,-578,-226,805,-678,-790,-107,497,971,1215
82,775,692,-429,-305,734,-712,-1127,-605,-9,492,907
0,634,634,-317,-317,634,-761,-1283,-917,-346,214,712
-4,453,458,-224,-231,456,-766,-1176,-1010,-488,58,556
34,287,253,-161,-109,270,-707,-956,-941,-507,-19,395
39,146,107,-92,-34,126,-590,-775,-863,-488,-78,258
19,53,34,-36,-7,43,-458,-600,-756,-468,-141,151
19,-29,-48,4,34,-39,-361,-419,-624,-429,-175,58
19,-68,-87,24,53,-78,-307,-297,-488,-366,-185,4
4,-53,-58,24,31,-56,-258,-224,-380,-287,-165,-14
14,-43,-58,14,36,-51,-204,-170,-297,-214,-136,-14
14,-48,-63,17,39,-56,-161,-141,-224,-151,-102,-19
4,-43,-48,19,26,-46,-117,-112,-175,-117,-82,-19
0,-24,-24,12,12,-24,-82,-87,-136,-97,-73,-34
4,-39,-43,17,24,-41,-53,-63,-107,-87,-68,-53
-4,-58,-53,31,24,-56,-24,-39,-87,-68,-68,-48
-14,-82,-68,48,26,-75,0,-14,-73,-58,-68,-34
-24,-102,-78,63,26,-90,4,-9,-68,-58,-73,-39
-34,-117,-82,75,24,-100,9,-19,-78,-73,-92,-58
-24,-126,-102,75,39,-114,29,-14,-68,-73,-87,-78
-29,-126,-97,78,34,-112,34,-14,-68,-82,-92,-87
-34,-122,-87,78,26,-104,34,-14,-73,-87,-107,-97
-39,-117,-78,78,19,-97,34,-14,-73,-92,-112,-102
-29,-122,-92,75,31,-107,43,-19,-82,-102,-122,-102
-29,-122,-92,75,31,-107,39,-9,-82,-102,-126,-102
-29,-117,-87,73,29,-102,34,-9,-82,-102,-126,-112
-24,-112,-87,68,31,-100,29,-9,-78,-102,-131,-117
-24,-117,-92,70,34,-104,34,0,-78,-97,-122,-117
-29,-122,-92,75,31,-107,39,4,-73,-97,-122,-117
-29,-122,-92,75,31,-107,39,4,-73,-102,-126,-117
-34,-117,-82,75,24,-100,43,9,-73,-102,-131,-117
-34,-126,-92,80,29,-109,53,19,-63,-92,-131,-117
-29,-126,-97,78,34,-112,53,19,-63,-92,-126,-117
-29,-126,-97,78,34,-112,53,29,-53,-87,-122,-117
-29,-126,-97,78,34,-112,58,29,-48,-87,-122,-122
-34,-117,-82,75,24,-100,48,29,-48,-87,-131,-122
-34,-117,-82,75,24,-100,53,34,-43,-82,-126,-117
-34,-126,-92,80,29,-109,53,43,-39,-78,-126,-117
-34,-126,-92,80,29,-109,53,43,-39,-78,-122,-112
-24,-112,-87,68,31,-100,58,43,-39,-78,-112,-112
-29,-107,-78,68,24,-92,58,48,-34,-78,-112,-112
-29,-107,-78,68,24,-92,58,48,-29,-68,-112,-112
-14,-107,-92,61,39,-100,58,48,-19,-68,-112,-112
-24,-117,-92,70,34,-104,58,58,-19,-68,-112,-112
-29,-112,-82,70,26,-97,63,63,-14,-58,-107,-112
-34,-112,-78,73,21,-95,63,63,-9,-58,-107,-112
-34,-107,-73,70,19,-90,63,68,-9,-53,-107,-107
-29,-117,-87,73,29,-102,63,78,0,-43,-92,-97
-24,-117,-92,70,34,-104,63,78,9,-39,-92,-97
-14,-117,-102,65,43,-109,63,87,14,-34,-92,-97
-9,-117,-107,63,48,-112,68,87,19,-34,-87,-92
-9,-102,-92,56,41,-97,68,87,14,-43,-87,-92
-9,-92,-82,51,36,-87,68,87,19,-34,-92,-92
-14,-92,-78,53,31,-85,68,87,24,-29,-97,-87
-24,-92,-68,58,21,-80,68,97,24,-29,-97,-82
-24,-97,-73,61,24,-85,82,112,39,-24,-92,-78
-19,-102,-82,61,31,-92,82,112,48,-4,-87,-78
-9,-97,-87,53,39,-92,82,112,58,0,-78,-82
-4,-92,-87,48,41,-90,82,122,68,4,-73,-82
-9,-97,-87,53,39,-92,73,122,68,9,-73,-82
-9,-92,-82,51,36,-87,82,122,78,9,-68,-78
-14,-87,-73,51,29,-80,82,126,73,9,-73,-73
-19,-82,-63,51,21,-73,82,126,73,9,-78,-73
-19,-82,-63,51,21,-73,92,131,82,24,-58,-68
-14,-82,-68,48,26,-75,92,141,97,29,-53,-68
-9,-73,-63,41,26,-68,92,146,107,34,-43,-63
0,-63,-63,31,31,-63,92,151,117,34,-39,-63
-4,-63,-58,34,26,-61,82,151,117,43,-34,-53
-9,-63,-53,36,21,-58,87,161,131,53,-34,-53
-9,-63,-53,36,21,-58,87,165,131,58,-34,-53
-14,-58,-43,36,14,-51,87,165,136,63,-39,-43
-4,-48,-43,26,19,-46,102,175,156,78,-29,-53
-4,-48,-43,26,19,-46,102,190,165,87,-19,-48
-4,-39,-34,21,14,-36,102,195,170,92,-14,-43
-4,-39,-34,21,14,-36,102,200,185,97,-9,-43
-9,-48,-39,29,14,-43,107,195,185,102,-14,-34
-14,-39,-24,26,4,-31,107,204,190,107,-9,-29
-14,-34,-19,24,2,-26,112,209,204,112,-4,-29
-19,-29,-9,24,-4,-19,112,214,209,117,0,-19
-14,-24,-9,19,-2,-17,117,229,229,126,14,-24
-9,-14,-4,12,-2,-9,117,229,234,131,14,-24
-4,0,4,2,-4,2,112,244,248,141,24,-19
0,9,9,-4,-4,9,112,248,258,151,29,-14
-9,9,19,0,-14,14,112,244,263,161,29,-4
-9,14,24,-2,-17,19,117,258,283,170,34,0
-4,19,24,-7,-14,21,117,268,287,185,39,9
-4,24,29,-9,-17,26,117,278,307,195,43,14
4,39,34,-21,-14,36,122,287,326,214,58,14
4,43,39,-24,-17,41,126,297,341,224,68,14
4,48,43,-26,-19,46,136,317,346,234,82,14
4,53,48,-29,-21,51,141,331,366,248,82,14
4,53,48,-29,-21,51,141,336,390,258,82,24
4,63,58,-34,-26,61,146,346,409,268,92,29
4,63,58,-34,-26,61,146,356,424,283,102,48
4,73,68,-39,-31,70,146,370,439,297,112,58
9,87,78,-48,-34,82,151,390,468,317,126,53
14,97,82,-56,-34,90,151,400,483,331,131,58
19,97,78,-58,-29,87,156,409,502,346,151,73
24,107,82,-65,-29,95,156,424,517,361,161,73
24,122,97,-73,-36,109,161,434,527,375,170,87
24,136,112,-80,-43,124,165,444,551,390,185,97
24,136,112,-80,-43,124,165,458,570,405,200,107
19,151,131,-85,-56,141,170,473,590,419,209,117
29,161,131,-95,-51,146,185,488,610,444,219,112
29,175,146,-102,-58,161,190,507,634,458,229,126
29,180,151,-104,-61,165,195,522,653,478,244,136
29,180,151,-104,-61,165,195,546,673,492,263,146
24,200,175,-112,-75,187,185,546,692,507,268,156
39,214,175,-126,-68,195,185,556,707,522,278,170
39,224,185,-131,-73,204,190,575,732,541,297,185
39,239,200,-139,-80,219,190,590,751,561,312,200
48,258,209,-153,-80,234,185,595,771,575,317,204
53,278,224,-165,-85,251,185,614,785,595,326,214
53,292,239,-173,-92,265,180,619,800,610,341,219
58,312,253,-185,-97,283,180,624,819,624,346,224
58,312,253,-185,-97,283,190,639,824,649,366,244
68,326,258,-197,-95,292,190,653,849,663,385,258
73,336,263,-204,-95,300,195,663,868,678,409,278
73,341,268,-207,-97,305,200,673,883,692,424,297
82,351,268,-217,-92,309,190,692,907,707,444,302
87,366,278,-226,-95,322,180,692,912,712,448,317
87,380,292,-234,-102,336,180,697,917,722,458,326
87,385,297,-236,-104,341,175,697,932,732,473,341
92,395,302,-244,-104,348,170,688,936,732,473,361
92,400,307,-246,-107,353,165,688,932,741,483,366
97,409,312,-253,-107,361,161,688,927,741,492,375
107,419,312,-263,-102,366,161,688,922,741,502,385
97,419,322,-258,-112,370,151,678,912,732,502,390
97,429,331,-263,-117,380,136,668,902,732,507,400
102,434,331,-268,-114,383,131,649,888,727,512,405
102,444,341,-273,-119,392,122,634,873,722,517,405
102,453,351,-278,-124,402,107,605,844,707,517,409
102,458,356,-280,-126,407,92,590,824,692,517,414
112,458,346,-285,-117,402,82,580,805,683,522,419
102,458,356,-280,-126,407,73,551,771,658,522,419
92,448,356,-270,-131,402,73,527,732,634,512,409
97,434,336,-265,-119,385,53,497,702,614,502,409
97,419,322,-258,-112,370,43,463,668,585,492,409
87,395,307,-241,-109,351,34,424,629,561,483,409
82,380,297,-231,-107,339,24,390,595,522,453,395
78,375,297,-226,-109,336,14,356,551,492,439,385
78,361,283,-219,-102,322,9,336,512,468,424,361
73,336,263,-204,-95,300,4,297,473,434,400,341
63,322,258,-192,-97,290,0,263,429,390,375,317
58,292,234,-175,-87,263,-4,234,390,361,351,307
48,278,229,-163,-90,253,-9,204,346,326,317,283
39,258,219,-148,-90,239,-14,175,302,292,283,263
34,229,195,-131,-80,212,-14,151,268,268,253,244
34,204,170,-119,-68,187,-14,131,234,234,229,219
34,180,146,-107,-56,163,-9,117,195,204,209,195
39,165,126,-102,-43,146,-4,97,165,175,185,175
29,146,117,-87,-43,131,-9,63,131,141,151,151
19,117,97,-68,-39,107,-9,43,102,112,126,136
9,97,87,-53,-39,92,-14,34,82,92,107,122
4,82,78,-43,-36,80,-24,9,53,68,87,102
9,73,63,-41,-26,68,-29,-9,29,39,68,92
0,63,63,-31,-31,63,-24,-19,4,24,48,78
0,43,43,-21,-21,43,-14,-29,-9,9,39,63
0,24,24,-12,-12,24,-4,-39,-24,0,24,43
-14,14,29,0,-21,21,-14,-63,-48,-19,4,34
-19,0,19,9,-19,9,-14,-68,-58,-29,-4,19
-19,-14,4,17,-12,-4,-14,-78,-78,-43,-19,9
-24,-19,4,21,-14,-7,-14,-87,-92,-58,-34,0
-14,-9,4,12,-9,-2,-4,-92,-102,-68,-34,0
-19,-24,-4,21,-7,-14,-4,-97,-107,-73,-43,-9
-24,-43,-19,34,-2,-31,-4,-92,-107,-73,-43,-14
-24,-48,-24,36,0,-36,-4,-87,-107,-78,-39,-24
-29,-39,-9,34,-9,-24,-14,-102,-126,-92,-63,-24
-34,-39,-4,36,-14,-21,-14,-107,-136,-102,-68,-24
-39,-43,-4,41,-17,-24,-14,-112,-136,-107,-68,-29
-43,-58,-14,51,-14,-36,-9,-117,-141,-107,-73,-29
-48,-53,-4,51,-21,-29,-9,-112,-136,-112,-78,-43
-43,-53,-9,48,-17,-31,-14,-117,-141,-112,-82,-48
-39,-53,-14,46,-12,-34,-14,-117,-151,-112,-82,-53
-34,-58,-24,46,-4,-41,-14,-117,-151,-112,-82,-53
-39,-82,-43,61,2,-63,-19,-122,-146,-112,-82,-53
-39,-82,-43,61,2,-63,-19,-122,-146,-117,-82,-53
-43,-73,-29,58,-7,-51,-19,-122,-156,-122,-82,-53
-48,-73,-24,61,-12,-48,-19,-131,-156,-122,-92,-48
-43,-73,-29,58,-7,-51,-9,-122,-146,-122,-82,-53
-43,-73,-29,58,-7,-51,-9,-117,-146,-122,-87,-53
-39,-73,-34,56,-2,-53,-9,-117,-146,-122,-87,-63
-29,-82,-53,56,12,-68,-9,-117,-146,-122,-87,-63
-39,-82,-43,61,2,-63,-9,-126,-156,-122,-97,-53
-39,-82,-43,61,2,-63,-9,-126,-156,-126,-97,-53
-43,-82,-39,63,-2,-61,-9,-126,-165,-126,-97,-58
-53,-82,-29,68,-12,-56,-9,-126,-156,-126,-97,-58
-43,-73,-29,58,-7,-51,-9,-117,-146,-126,-87,-58
-43,-73,-29,58,-7,-51,-9,-117,-146,-126,-92,-63
-39,-78,-39,58,0,-58,-9,-117,-151,-126,-97,-63
-29,-78,-48,53,9,-63,-9,-117,-151,-126,-97,-68
-34,-87,-53,61,9,-70,-19,-126,-161,-126,-107,-63
-39,-82,-43,61,2,-63,-19,-126,-161,-126,-107,-63
-43,-82,-39,63,-2,-61,-14,-126,-161,-126,-102,-58
-48,-82,-34,65,-7,-58,-14,-126,-156,-126,-102,-48
-43,-82,-39,63,-2,-61,-4,-117,-146,-126,-87,-48
-43,-82,-39,63,-2,-61,-4,-117,-146,-126,-87,-53
-39,-78,-39,58,0,-58,-4,-117,-146,-126,-92,-63
-29,-78,-48,53,9,-63,-9,-117,-146,-126,-97,-68
-34,-87,-53,61,9,-70,-9,-117,-146,-126,-107,-63
-39,-87,-48,63,4,-68,-4,-117,-146,-126,-107,-63
-43,-92,-48,68,2,-70,-4,-117,-146,-126,-107,-63
-43,-92,-48,68,2,-70,-4,-112,-146,-126,-102,-58
-34,-87,-53,61,9,-70,-4,-112,-146,-117,-102,-68
-39,-87,-48,63,4,-68,-4,-112,-146,-117,-102,-68
-43,-87,-43,65,0,-65,-4,-117,-146,-117,-107,-68
-43,-82,-39,63,-2,-61,-4,-117,-146,-117,-107,-68
-48,-92,-43,70,-2,-68,-4,-117,-146,-117,-107,-58
-48,-97,-48,73,0,-73,-4,-112,-141,-117,-102,-58
-48,-97,-48,73,0,-73,0,-112,-141,-117,-102,-63
-43,-97,-53,70,4,-75,0,-112,-141,-112,-102,-63
-34,-92,-58,63,12,-75,0,-112,-141,-112,-102,-73
-43,-87,-43,65,0,-65,-9,-112,-141,-112,-107,-73
-43,-78,-34,61,-4,-56,-9,-117,-146,-122,-107,-73
-39,-73,-34,56,-2,-53,-4,-117,-146,-122,-107,-73
-39,-92,-53,65,7,-73,-4,-126,-156,-126,-117,-63
-39,-82,-43,61,2,-63,-4,-126,-156,-126,-117,-63
-39,-82,-43,61,2,-63,-4,-122,-151,-126,-117,-63
-34,-87,-53,61,9,-70,-4,-122,-151,-122,-112,-63
-34,-87,-53,61,9,-70,-4,-112,-141,-122,-102,-63
-39,-87,-48,63,4,-68,-9,-112,-141,-126,-107,-68
-43,-87,-43,65,0,-65,-9,-112,-141,-126,-112,-73
-43,-87,-43,65,0,-65,-9,-117,-146,-126,-112,-78
-43,-97,-53,70,4,-75,-9,-117,-146,-117,-107,-73
-39,-97,-58,68,9,-78,-9,-117,-146,-117,-107,-78
-39,-92,-53,65,7,-73,-4,-117,-146,-122,-107,-73
-34,-92,-58,63,12,-75,-4,-117,-146,-122,-107,-68
-34,-82,-48,58,7,-65,-14,-117,-156,-131,-107,-68
-39,-82,-43,61,2,-63,-14,-117,-156,-131,-107,-73
-39,-82,-43,61,2,-63,-14,-117,-156,-131,-107,-78
-39,-82,-43,61,2,-63,-19,-117,-156,-131,-112,-82
-39,-82,-43,61,2,-63,-9,-122,-151,-131,-112,-73
-39,-82,-43,61,2,-63,-9,-122,-151,-131,-112,-73
-39,-82,-43,61,2,-63,-9,-117,-151,-131,-112,-73
-34,-87,-53,61,9,-70,-9,-117,-151,-131,-112,-73
-43,-82,-39,63,-2,-61,-9,-117,-161,-131,-117,-87
-43,-82,-39,63,-2,-61,-9,-122,-161,-131,-117,-87
-43,-82,-39,63,-2,-61,-9,-126,-161,-131,-122,-82
-53,-82,-29,68,-12,-56,-9,-126,-170,-136,-122,-82
-53,-87,-34,70,-9,-61,-4,-126,-165,-136,-117,-73
-48,-87,-39,68,-4,-63,-4,-126,-161,-136,-112,-73
-43,-87,-43,65,0,-65,0,-122,-156,-136,-107,-73
-43,-92,-48,68,2,-70,0,-122,-151,-136,-102,-78
-43,-92,-48,68,2,-70,-4,-131,-156,-141,-112,-87
-43,-87,-43,65,0,-65,-9,-136,-161,-141,-117,-87
-43,-87,-43,65,0,-65,-14,-136,-165,-141,-117,-78
-43,-87,-43,65,0,-65,-24,-136,-170,-141,-117,-73
-48,-87,-39,68,-4,-63,-14,-136,-175,-131,-117,-63
-43,-87,-43,65,0,-65,-14,-131,-170,-131,-117,-68
-34,-92,-58,63,12,-75,-14,-126,-165,-131,-117,-73
-24,-92,-68,58,21,-80,-14,-122,-161,-136,-122,-73
-29,-82,-53,56,12,-68,-24,-122,-170,-146,-131,-82
-34,-82,-48,58,7,-65,-19,-126,-170,-146,-131,-82
-43,-82,-39,63,-2,-61,-19,-136,-175,-146,-131,-78
-48,-87,-39,68,-4,-63,-24,-146,-175,-151,-131,-78
-39,-78,-39,58,0,-58,-14,-136,-175,-151,-122,-87
-39,-78,-39,58,0,-58,-14,-131,-175,-151,-122,-87
-39,-82,-43,61,2,-63,-14,-131,-175,-151,-122,-87
-39,-82,-43,61,2,-63,-14,-131,-175,-151,-122,-97
-43,-92,-48,68,2,-70,-24,-136,-185,-141,-122,-87
-43,-92,-48,68,2,-70,-24,-136,-195,-146,-122,-87
-48,-87,-39,68,-4,-63,-24,-136,-195,-151,-122,-82
-63,-87,-24,75,-19,-56,-24,-141,-200,-151,-131,-82
-48,-97,-48,73,0,-73,-29,-141,-195,-151,-122,-92
-39,-97,-58,68,9,-78,-24,-141,-190,-151,-122,-92
-34,-97,-63,65,14,-80,-14,-141,-185,-151,-122,-92
-29,-102,-73,65,21,-87,-9,-141,-175,-151,-122,-97
-34,-92,-58,63,12,-75,-19,-151,-180,-161,-131,-97
-39,-87,-48,63,4,-68,-19,-151,-190,-161,-131,-102
-43,-87,-43,65,0,-65,-19,-151,-195,-165,-131,-87
-53,-97,-43,75,-4,-70,-19,-151,-200,-165,-131,-78
-48,-97,-48,73,0,-73,-24,-141,-190,-165,-126,-82
-43,-92,-48,68,2,-70,-24,-146,-195,-165,-126,-82
-39,-92,-53,65,7,-73,-19,-146,-195,-165,-126,-92
-34,-92,-58,63,12,-75,-19,-146,-195,-165,-126,-97
-34,-97,-63,65,14,-80,-19,-156,-204,-161,-136,-97
-39,-102,-63,70,12,-82,-19,-156,-204,-161,-136,-92
-43,-117,-73,80,14,-95,-19,-156,-204,-156,-131,-82
-48,-112,-63,80,7,-87,-19,-165,-204,-156,-131,-73
-43,-92,-48,68,2,-70,-34,-156,-200,-170,-141,-87
-43,-82,-39,63,-2,-61,-34,-156,-204,-170,-141,-92
-39,-82,-43,61,2,-63,-34,-151,-204,-175,-141,-97
-34,-73,-39,53,2,-56,-34,-151,-200,-175,-141,-102
-48,-73,-24,61,-12,-48,-43,-170,-204,-185,-151,-92
-48,-78,-29,63,-9,-53,-43,-161,-209,-185,-146,-92
-43,-78,-34,61,-4,-56,-39,-161,-214,-180,-146,-92
-58,-78,-19,68,-19,-48,-39,-161,-219,-180,-146,-92
-53,-78,-24,65,-14,-51,-39,-156,-219,-175,-141,-102
-48,-78,-29,63,-9,-53,-39,-156,-219,-180,-146,-102
-43,-82,-39,63,-2,-61,-34,-156,-214,-180,-146,-102
-39,-87,-48,63,4,-68,-34,-156,-209,-185,-146,-102
-48,-78,-29,63,-9,-53,-43,-161,-214,-195,-161,-97
-43,-78,-34,61,-4,-56,-43,-165,-219,-195,-161,-102
-43,-78,-34,61,-4,-56,-43,-170,-224,-195,-161,-102
-43,-73,-29,58,-7,-51,-43,-175,-229,-190,-161,-97
-39,-73,-34,56,-2,-53,-43,-165,-219,-180,-146,-107
-34,-68,-34,51,0,-51,-43,-165,-219,-185,-146,-107
-34,-68,-34,51,0,-51,-43,-165,-219,-185,-146,-107
-29,-68,-39,48,4,-53,-43,-165,-219,-185,-146,-102
-34,-87,-53,61,9,-70,-43,-165,-229,-185,-151,-92
-39,-87,-48,63,4,-68,-43,-165,-229,-185,-151,-92
-39,-78,-39,58,0,-58,-43,-165,-229,-185,-151,-102
-43,-78,-34,61,-4,-56,-39,-165,-229,-185,-151,-102
-34,-87,-53,61,9,-70,-29,-165,-219,-185,-151,-112
-34,-87,-53,61,9,-70,-29,-161,-219,-185,-151,-112
-39,-97,-58,68,9,-78,-34,-161,-219,-185,-151,-107
-43,-97,-53,70,4,-75,-34,-165,-219,-185,-151,-107
-53,-97,-43,75,-4,-70,-43,-165,-224,-185,-156,-107
-48,-92,-43,70,-2,-68,-43,-165,-224,-185,-156,-107
-39,-92,-53,65,7,-73,-39,-165,-224,-180,-156,-107
-39,-92,-53,65,7,-73,-39,-165,-219,-180,-151,-107
-39,-102,-63,70,12,-82,-29,-165,-214,-190,-151,-107
-43,-102,-58,73,7,-80,-34,-165,-214,-190,-146,-107
-43,-97,-53,70,4,-75,-34,-161,-214,-190,-146,-107
-43,-97,-53,70,4,-75,-34,-161,-219,-190,-151,-107
-53,-102,-48,78,-2,-75,-34,-165,-219,-190,-151,-107
-53,-102,-48,78,-2,-75,-34,-165,-224,-190,-146,-102
-53,-107,-53,80,0,-80,-34,-165,-224,-190,-146,-97
-53,-112,-58,82,2,-85,-34,-165,-219,-190,-146,-97
-43,-112,-68,78,12,-90,-43,-175,-229,-190,-146,-112
-43,-107,-63,75,9,-85,-43,-175,-229,-190,-146,-117
-43,-107,-63,75,9,-85,-43,-175,-229,-190,-146,-117
-43,-117,-73,80,14,-95,-43,-175,-224,-190,-141,-112
-48,-117,-68,82,9,-92,-43,-175,-224,-185,-151,-102
-48,-102,-53,75,2,-78,-43,-170,-224,-185,-156,-102
-53,-112,-58,82,2,-85,-39,-170,-224,-185,-161,-102
-53,-112,-58,82,2,-85,-39,-170,-229,-190,-161,-102
-43,-102,-58,73,7,-80,-39,-180,-229,-190,-165,-102
-43,-92,-48,68,2,-70,-29,-170,-224,-185,-156,-102
-43,-87,-43,65,0,-65,-19,-161,-214,-170,-136,-97
-29,-87,-58,58,14,-73,-9,-156,-204,-165,-136,-97
-39,-87,-48,63,4,-68,-19,-156,-195,-175,-136,-87
-39,-87,-48,63,4,-68,-19,-156,-195,-175,-136,-87
-39,-87,-48,63,4,-68,-19,-156,-195,-175,-136,-87
-39,-87,-48,63,4,-68,-19,-156,-195,-175,-136,-87
-43,-68,-24,56,-9,-46,-4,-136,-180,-156,-126,-73
-43,-53,-9,48,-17,-31,4,-136,-170,-146,-112,-68
-39,-39,0,39,-19,-19,14,-136,-161,-131,-102,-58
-39,-29,9,34,-24,-9,14,-131,-156,-122,-92,-58
-34,-29,4,31,-19,-12,24,-126,-151,-117,-92,-58
-29,-29,0,29,-14,-14,34,-126,-146,-117,-92,-53
-29,-29,0,29,-14,-14,39,-122,-141,-117,-87,-53
-34,-29,4,31,-19,-12,48,-117,-136,-107,-78,-43
-39,-19,19,29,-29,0,39,-117,-131,-112,-78,-53
-39,-14,24,26,-31,4,39,-112,-126,-107,-82,-53
-34,-14,19,24,-26,2,48,-102,-122,-102,-87,-53
-24,-14,9,19,-17,-2,58,-97,-117,-102,-92,-53
-9,-24,-14,17,2,-19,63,-78,-112,-92,-87,-48
-4,-24,-19,14,7,-21,63,-78,-112,-78,-78,-43
-4,-24,-19,14,7,-21,58,-78,-107,-78,-63,-29
-4,-14,-9,9,2,-12,53,-78,-102,-78,-58,-19
-9,-9,0,9,-4,-4,34,-82,-107,-82,-63,-24
-9,-9,0,9,-4,-4,19,-97,-107,-82,-58,-19
-4,0,4,2,-4,2,-9,-122,-112,-82,-58,-19
-4,14,19,-4,-12,17,-29,-136,-112,-78,-58,-19
-4,24,29,-9,-17,26,-24,-136,-102,-68,-43,-14
0,24,24,-12,-12,24,-39,-141,-107,-68,-39,-4
4,29,24,-17,-9,26,-53,-136,-112,-68,-39,0
4,34,29,-19,-12,31,-63,-131,-117,-78,-39,0
4,29,24,-17,-9,26,-78,-151,-122,-78,-43,19
4,19,14,-12,-4,17,-87,-151,-126,-78,-43,19
4,9,4,-7,0,7,-92,-151,-141,-82,-43,19
19,0,-19,-9,19,-9,-97,-151,-146,-87,-43,19
34,9,-24,-21,29,-7,-107,-151,-151,-92,-48,9
43,14,-29,-29,36,-7,-112,-151,-165,-107,-48,9
43,14,-29,-29,36,-7,-112,-156,-170,-117,-58,9
43,14,-29,-29,36,-7,-107,-161,-180,-122,-63,0
29,4,-24,-17,26,-9,-107,-170,-200,-136,-68,0
24,0,-24,-12,24,-12,-107,-170,-200,-136,-78,-4
19,-4,-24,-7,21,-14,-97,-170,-200,-131,-78,-4
4,-19,-24,7,14,-21,-82,-161,-195,-131,-78,-9
-4,-39,-34,21,14,-36,-58,-156,-185,-136,-82,-24
-9,-53,-43,31,17,-48,-43,-156,-185,-136,-87,-43
-24,-68,-43,46,9,-56,-34,-156,-185,-146,-102,-53
-34,-78,-43,56,4,-61,-34,-156,-190,-146,-107,-58
-39,-97,-58,68,9,-78,-48,-165,-204,-156,-107,-58
-39,-97,-58,68,9,-78,-53,-170,-214,-165,-122,-58
-43,-102,-58,73,7,-80,-58,-185,-229,-180,-131,-78
-43,-112,-68,78,12,-90,-58,-185,-239,-190,-141,-92
-34,-122,-87,78,26,-104,-53,-180,-239,-190,-151,-92
-29,-136,-107,82,39,-122,-53,-180,-244,-195,-151,-107
-29,-141,-112,85,41,-126,-53,-185,-253,-204,-161,-112
-34,-151,-117,92,41,-134,-53,-185,-258,-214,-170,-122
-39,-165,-126,102,43,-146,-53,-185,-263,-214,-180,-117
-53,-170,-117,112,31,-143,-53,-185,-263,-219,-185,-117
-58,-170,-112,114,26,-141,-53,-185,-263,-224,-190,-117
-68,-170,-102,119,17,-136,-53,-195,-273,-224,-195,-122
-63,-170,-107,117,21,-139,-43,-195,-263,-224,-185,-136
-53,-170,-117,112,31,-143,-43,-190,-258,-224,-180,-136
-48,-170,-122,109,36,-146,-39,-190,-258,-224,-180,-136
-43,-170,-126,107,41,-148,-39,-185,-258,-224,-180,-136
-48,-180,-131,114,41,-156,-48,-195,-268,-234,-190,-126
-53,-185,-131,119,39,-158,-48,-200,-273,-234,-190,-126
-58,-185,-126,122,34,-156,-48,-200,-273,-234,-190,-126
-63,-185,-122,124,29,-153,-48,-200,-278,-234,-195,-126
-58,-175,-117,117,29,-146,-39,-195,-278,-224,-185,-136
-58,-175,-117,117,29,-146,-39,-190,-278,-229,-190,-146
-53,-175,-122,114,34,-148,-39,-185,-273,-229,-190,-146
-53,-180,-126,117,36,-153,-34,-180,-273,-229,-185,-146
-63,-180,-117,122,26,-148,-43,-185,-273,-239,-195,-131
-68,-180,-112,124,21,-146,-43,-185,-273,-239,-200,-131
-68,-175,-107,122,19,-141,-43,-190,-273,-239,-200,-131
-68,-175,-107,122,19,-141,-43,-190,-273,-244,-204,-131
-58,-175,-117,117,29,-146,-34,-190,-273,-234,-195,-141
-58,-175,-117,117,29,-146,-34,-185,-273,-234,-195,-141
-58,-180,-122,119,31,-151,-34,-185,-273,-234,-190,-141
-58,-180,-122,119,31,-151,-29,-185,-268,-229,-190,-141
-58,-180,-122,119,31,-151,-29,-180,-258,-229,-190,-136
-68,-180,-112,124,21,-146,-29,-180,-268,-229,-190,-126
-63,-200,-136,131,36,-168,-29,-170,-258,-229,-200,-131
-73,-200,-126,136,26,-163,-34,-175,-273,-234,-209,-146
-68,-190,-122,129,26,-156,-19,-175,-283,-248,-224,-170
-73,-204,-131,139,29,-168,4,-161,-278,-263,-253,-209
-78,-239,-161,158,41,-200,53,-136,-287,-297,-307,-268
-107,-297,-190,202,41,-244,126,-102,-302,-351,-395,-361
-141,-380,-239,261,48,-309,224,-63,-302,-400,-478,-434
-175,-439,-263,307,43,-351,312,-24,-297,-429,-551,-507
-200,-453,-253,326,26,-353,356,-9,-297,-448,-619,-561
-209,-453,-244,331,17,-348,390,4,-287,-448,-639,-580
-200,-424,-224,312,12,-324,405,19,-273,-453,-649,-580
-156,-409,-253,283,48,-331,395,43,-278,-448,-629,-570
-107,-414,-307,261,100,-361,400,112,-224,-390,-566,-512
-39,-361,-322,200,141,-341,419,219,-102,-273,-444,-414
24,-253,-278,114,151,-265,419,331,39,-131,-302,-283
87,-146,-234,29,161,-190,400,434,180,14,-136,-141
141,-19,-161,-61,151,-90,380,551,346,185,68,29
209,136,-73,-173,141,31,351,688,575,434,312,239
283,307,24,-295,129,165,292,785,814,702,595,473
351,488,136,-419,107,312,180,795,980,941,888,717
439,688,248,-563,95,468,4,727,1078,1146,1185,971
517,893,375,-705,70,634,-214,610,1151,1346,1488,1244
570,1137,566,-854,2,851,-458,453,1234,1605,1839,1561
605,1390,785,-997,-90,1088,-683,297,1332,1869,2225,1917
629,1483,854,-1056,-112,1168,-819,204,1327,1981,2410,2108
653,1400,746,-1027,-46,1073,-897,102,1141,1854,2342,2078
644,1283,639,-963,2,961,-966,-34,902,1639,2191,1995
590,1220,629,-905,-19,924,-941,-151,761,1454,2010,1878
492,1127,634,-810,-70,880,-844,-312,561,1190,1703,1664
361,980,619,-671,-129,800,-736,-585,146,712,1195,1332
219,814,595,-517,-187,705,-702,-941,-341,204,688,1005
87,692,605,-390,-258,649,-751,-1254,-741,-180,341,780
24,561,536,-292,-256,549,-805,-1312,-961,-419,126,634
24,385,361,-204,-168,373,-795,-1132,-990,-497,0,492
19,224,204,-122,-92,214,-697,-912,-912,-488,-58,356
9,122,112,-65,-51,117,-556,-736,-814,-468,-112,229
19,39,19,-29,0,29,-439,-556,-692,-439,-156,117
39,-29,-68,-4,53,-48,-356,-385,-556,-395,-185,34
43,-43,-87,0,65,-65,-297,-263,-429,-307,-165,-4
43,-43,-87,0,65,-65,-234,-190,-317,-234,-126,-14
34,-39,-73,2,53,-56,-190,-151,-234,-170,-92,0
14,-43,-58,14,36,-51,-156,-122,-185,-126,-92,9
0,-43,-43,21,21,-43,-112,-97,-146,-97,-82,4
-14,-58,-43,36,14,-51,-73,-73,-107,-78,-68,-14
-14,-58,-43,36,14,-51,-43,-48,-87,-68,-68,-29
-14,-53,-39,34,12,-46,-19,-24,-73,-68,-68,-43
-4,-53,-48,29,21,-51,-4,-9,-58,-68,-73,-48
-14,-87,-73,51,29,-80,9,0,-58,-63,-73,-48
-24,-97,-73,61,24,-85,14,0,-63,-73,-82,-58
-29,-97,-68,63,19,-82,14,-4,-68,-82,-92,-68
-34,-92,-58,63,12,-75,9,-9,-78,-87,-112,-78
-39,-87,-48,63,4,-68,4,-14,-82,-92,-122,-82
-29,-102,-73,65,21,-87,29,0,-73,-92,-117,-82
-29,-112,-82,70,26,-97,29,9,-73,-92,-117,-82
-29,-117,-87,73,29,-102,29,9,-73,-92,-112,-92
-24,-122,-97,73,36,-109,29,9,-68,-92,-112,-97
-34,-112,-78,73,21,-95,24,0,-68,-97,-122,-97
-39,-112,-73,75,17,-92,29,4,-63,-97,-122,-97
-39,-107,-68,73,14,-87,29,4,-63,-102,-126,-97
-43,-97,-53,70,4,-75,34,9,-63,-102,-131,-97
-34,-107,-73,70,19,-90,34,19,-63,-97,-122,-107
-29,-107,-78,68,24,-92,34,19,-63,-92,-117,-107
-29,-107,-78,68,24,-92,34,29,-53,-82,-112,-107
-29,-107,-78,68,24,-92,39,29,-48,-78,-112,-112
-34,-107,-73,70,19,-90,39,29,-58,-78,-122,-102
-34,-107,-73,70,19,-90,43,34,-53,-73,-117,-97
-34,-117,-82,75,24,-100,43,43,-48,-68,-117,-97
-34,-117,-82,75,24,-100,43,43,-48,-68,-112,-92
-24,-102,-78,63,26,-90,48,43,-39,-78,-112,-102
-29,-97,-68,63,19,-82,48,48,-34,-78,-112,-102
-29,-97,-68,63,19,-82,48,48,-29,-68,-112,-102
-14,-97,-82,56,34,-90,48,48,-19,-68,-112,-102
-24,-107,-82,65,29,-95,48,58,-19,-68,-102,-102
-29,-102,-73,65,21,-87,53,63,-14,-58,-97,-102
-34,-102,-68,68,17,-85,53,63,-9,-58,-97,-102
-34,-97,-63,65,14,-80,53,68,-9,-53,-97,-97
-24,-97,-73,61,24,-85,53,68,-19,-53,-102,-97
-24,-97,-73,61,24,-85,53,68,-9,-48,-102,-97
-19,-97,-78,58,29,-87,53,78,-4,-43,-102,-97
-19,-97,-78,58,29,-87,58,78,0,-43,-97,-92
-14,-92,-78,53,31,-85,68,87,14,-43,-92,-92
-9,-82,-73,46,31,-78,68,87,19,-34,-92,-92
-9,-82,-73,46,31,-78,68,87,24,-29,-92,-87
-14,-82,-68,48,26,-75,68,97,24,-29,-87,-82
-19,-82,-63,51,21,-73,63,102,24,-29,-87,-87
-19,-82,-63,51,21,-73,63,102,29,-14,-87,-87
-14,-73,-58,43,21,-65,63,102,34,-14,-82,-92
-14,-63,-48,39,17,-56,63,112,39,-14,-82,-92
-14,-63,-48,39,17,-56,63,117,43,-4,-78,-87
-9,-63,-53,36,21,-58,73,122,58,0,-68,-78
-9,-63,-53,36,21,-58,73,131,58,4,-68,-68
-9,-63,-53,36,21,-58,73,136,63,9,-68,-63
-14,-68,-53,41,19,-61,73,146,78,24,-63,-68
-14,-73,-58,43,21,-65,73,151,87,29,-63,-68
-14,-68,-53,41,19,-61,73,151,92,34,-58,-63
-9,-63,-53,36,21,-58,73,151,97,34,-58,-63
0,-58,-58,29,29,-58,82,151,107,43,-48,-63
0,-53,-53,26,26,-53,87,161,122,53,-43,-63
4,-48,-53,21,29,-51,87,165,122,58,-39,-63
4,-39,-43,17,24,-41,87,165,126,63,-39,-53
0,-29,-29,14,14,-29,82,156,126,58,-48,-53
-4,-29,-24,17,9,-26,82,170,136,68,-39,-48
-9,-19,-9,14,0,-14,82,175,141,73,-34,-43
-14,-19,-4,17,-4,-12,82,180,156,78,-29,-43
-4,-9,-4,7,0,-7,87,190,175,92,-14,-43
-4,0,4,2,-4,2,87,204,180,97,-9,-39
0,4,4,-2,-2,4,92,214,195,102,-4,-39
0,9,9,-4,-4,9,92,224,200,107,0,-29
-9,0,9,4,-9,4,97,229,209,117,4,-24
-9,4,14,2,-12,9,97,229,214,122,4,-24
-9,14,24,-2,-17,19,92,244,229,131,14,-19
-9,19,29,-4,-19,24,92,248,239,141,19,-14
0,19,19,-9,-9,19,112,253,263,151,29,-14
0,24,24,-12,-12,24,117,268,283,161,34,-9
4,29,24,-17,-9,26,117,278,287,175,39,0
4,34,29,-19,-12,31,117,287,307,185,43,4
-4,39,43,-17,-24,41,117,292,307,195,48,9
-4,43,48,-19,-26,46,117,297,322,204,58,14
-4,48,53,-21,-29,51,122,312,326,214,73,19
-4,53,58,-24,-31,56,122,322,346,229,73,24
14,73,58,-43,-21,65,131,346,370,248,92,29
14,82,68,-48,-26,75,136,356,390,258,102,29
14,82,68,-48,-26,75,136,366,405,273,112,43
14,92,78,-53,-31,85,136,380,419,287,122,48
4,97,92,-51,-43,95,131,390,429,297,117,53
4,107,102,-56,-48,104,131,400,444,312,122,58
4,107,102,-56,-48,104,136,409,463,326,141,73
4,117,112,-61,-53,114,136,424,478,341,151,73
14,131,117,-73,-51,124,146,444,507,366,161,78
24,146,122,-85,-48,134,156,453,531,380,175,87
34,146,112,-90,-39,129,161,468,551,395,190,97
39,161,122,-100,-41,141,170,483,570,409,200,107
29,170,141,-100,-56,156,170,483,570,414,200,112
29,185,156,-107,-63,170,170,497,595,429,209,126
29,190,161,-109,-65,175,170,507,614,448,224,136
29,190,161,-109,-65,175,165,527,634,463,244,146
43,209,165,-126,-61,187,175,546,663,488,248,141
58,224,165,-141,-53,195,175,556,678,502,258,151
58,234,175,-146,-58,204,180,575,702,522,278,161
58,248,190,-153,-65,219,180,590,722,541,292,170
48,253,204,-151,-78,229,185,605,741,556,307,185
53,268,214,-161,-80,241,185,624,756,575,317,204
53,278,224,-165,-85,251,180,629,771,590,331,219
58,292,234,-175,-87,263,180,634,790,605,336,234
68,312,244,-190,-87,278,180,649,805,629,346,239
78,326,248,-202,-85,287,180,663,829,644,366,248
82,336,253,-209,-85,295,185,673,849,658,390,263
82,341,258,-212,-87,300,190,683,863,673,405,278
73,356,283,-214,-104,319,180,692,878,678,414,292
78,375,297,-226,-109,336,170,692,883,683,419,307
78,395,317,-236,-119,356,170,697,888,692,429,317
78,405,326,-241,-124,366,165,697,902,702,444,331
92,414,322,-253,-114,368,170,697,912,722,463,331
92,419,326,-256,-117,373,165,697,912,732,473,336
97,429,331,-263,-117,380,161,697,912,732,483,346
107,439,331,-273,-112,385,161,697,912,732,492,356
97,439,341,-268,-122,390,141,692,912,732,492,375
97,448,351,-273,-126,400,126,688,902,732,497,390
102,453,351,-278,-124,402,122,673,888,727,502,400
102,463,361,-283,-129,412,112,663,873,722,507,405
112,468,356,-290,-122,412,102,644,849,702,507,400
112,468,356,-290,-122,412,92,629,834,692,507,405
122,463,341,-292,-109,402,87,619,819,688,512,409
112,458,346,-285,-117,402,82,590,790,668,512,409
102,453,351,-278,-124,402,73,561,761,653,512,419
107,444,336,-275,-114,390,53,536,732,634,502,419
107,434,326,-270,-109,380,43,507,697,605,492,419
97,414,317,-256,-109,366,34,473,658,580,483,419
92,409,317,-251,-112,363,24,439,624,551,453,400
87,405,317,-246,-114,361,14,405,580,522,439,395
87,390,302,-239,-107,346,9,385,541,497,424,375
82,366,283,-224,-100,324,4,346,502,463,400,361
82,351,268,-217,-92,309,0,312,453,429,380,346
78,322,244,-200,-82,283,-4,283,419,400,361,336
68,307,239,-187,-85,273,-9,253,380,366,331,312
58,287,229,-173,-85,258,-14,224,341,331,302,292
48,258,209,-153,-80,234,-9,185,297,287,273,263
43,234,190,-139,-73,212,-14,161,263,253,248,239
39,209,170,-124,-65,190,-14,141,224,224,229,214
39,195,156,-117,-58,175,-14,117,195,195,204,195
39,185,146,-112,-53,165,-24,82,161,170,180,170
29,156,126,-92,-48,141,-19,63,131,141,156,156
19,136,117,-78,-48,126,-19,53,112,122,136,141
14,122,107,-68,-46,114,-24,29,82,97,117,122
0,102,102,-51,-51,102,-34,0,53,63,92,102
-9,92,102,-41,-56,97,-34,-9,24,43,68,87
-9,73,82,-31,-46,78,-29,-19,4,24,53,73
-9,53,63,-21,-36,58,-24,-29,-14,9,34,53
-9,48,58,-19,-34,53,-24,-43,-19,-9,24,43
-9,39,48,-14,-29,43,-24,-48,-29,-19,14,29
-4,29,34,-12,-19,31,-24,-58,-48,-34,0,19
-4,29,34,-12,-19,31,-24,-68,-63,-48,-14,9
-9,29,39,-9,-24,34,-24,-87,-87,-53,-29,9
-19,14,34,2,-26,24,-24,-97,-97,-63,-43,0
-29,-4,24,17,-26,9,-24,-97,-102,-68,-48,-4
-34,-9,24,21,-29,7,-24,-97,-107,-78,-48,-14
-29,-19,9,24,-19,-4,-14,-92,-107,-82,-53,-24
-24,-19,4,21,-14,-7,-14,-97,-117,-92,-58,-24
-19,-24,-4,21,-7,-14,-14,-102,-117,-97,-58,-29
-14,-39,-24,26,4,-31,-9,-107,-122,-97,-63,-29
-34,-34,0,34,-17,-17,-19,-112,-136,-122,-87,-34
-34,-34,0,34,-17,-17,-24,-117,-141,-122,-92,-39
-34,-34,0,34,-17,-17,-24,-117,-151,-122,-92,-43
-34,-39,-4,36,-14,-21,-24,-117,-151,-122,-92,-43
-34,-63,-29,48,-2,-46,-9,-102,-136,-112,-82,-48
-29,-63,-34,46,2,-48,-9,-102,-136,-117,-82,-53
-29,-53,-24,41,-2,-39,-9,-102,-146,-122,-82,-58
-29,-53,-24,41,-2,-39,-9,-112,-146,-122,-92,-58
-39,-53,-14,46,-12,-34,-14,-122,-146,-122,-92,-53
-43,-53,-9,48,-17,-31,-19,-117,-146,-122,-97,-53
-43,-53,-9,48,-17,-31,-24,-117,-146,-122,-97,-63
-39,-63,-24,51,-7,-43,-29,-117,-146,-122,-97,-63
-24,-53,-29,39,2,-41,-19,-117,-146,-122,-97,-63
-19,-53,-34,36,7,-43,-19,-117,-146,-126,-97,-63
-19,-53,-34,36,7,-43,-19,-117,-156,-126,-97,-68
-24,-53,-29,39,2,-41,-19,-117,-146,-126,-97,-68
-39,-43,-4,41,-17,-24,-29,-126,-156,-126,-107,-63
-43,-43,0,43,-21,-21,-29,-126,-156,-126,-112,-63
-43,-48,-4,46,-19,-26,-29,-126,-161,-126,-117,-58
-39,-48,-9,43,-14,-29,-29,-126,-161,-126,-117,-58
-29,-53,-24,41,-2,-39,-19,-122,-151,-126,-112,-68
-29,-53,-24,41,-2,-39,-19,-117,-151,-126,-107,-73
-29,-58,-29,43,0,-43,-14,-112,-151,-126,-97,-73
-29,-63,-34,46,2,-48,-14,-107,-146,-126,-92,-68
-34,-73,-39,53,2,-56,-14,-117,-146,-126,-97,-63
-43,-73,-29,58,-7,-51,-14,-117,-146,-126,-97,-63
-48,-68,-19,58,-14,-43,-14,-117,-146,-126,-102,-68
-48,-68,-19,58,-14,-43,-19,-117,-146,-126,-107,-68
-39,-63,-24,51,-7,-43,-19,-117,-146,-126,-107,-82
-39,-58,-19,48,-9,-39,-14,-117,-146,-126,-107,-82
-39,-58,-19,48,-9,-39,-14,-117,-146,-126,-107,-82
-34,-53,-19,43,-7,-36,-14,-112,-146,-126,-102,-78
-43,-58,-14,51,-14,-36,-24,-112,-146,-126,-112,-68
-48,-58,-9,53,-19,-34,-24,-112,-146,-126,-112,-68
-53,-58,-4,56,-24,-31,-24,-117,-146,-126,-117,-68
-53,-53,0,53,-26,-26,-24,-117,-146,-126,-117,-68
-39,-53,-14,46,-12,-34,-14,-117,-146,-126,-117,-78
-39,-58,-19,48,-9,-39,-14,-112,-141,-126,-112,-78
-39,-58,-19,48,-9,-39,-9,-112,-141,-126,-112,-82
-34,-58,-24,46,-4,-41,-9,-112,-141,-122,-112,-82
-43,-68,-24,56,-9,-46,-9,-122,-141,-122,-112,-73
-53,-68,-14,61,-19,-41,-19,-122,-141,-122,-117,-73
-53,-63,-9,58,-21,-36,-19,-126,-146,-131,-117,-73
-48,-63,-14,56,-17,-39,-14,-126,-146,-131,-117,-73
-39,-68,-29,53,-4,-48,-14,-117,-146,-126,-107,-78
-39,-53,-14,46,-12,-34,-14,-117,-146,-126,-107,-82
-39,-48,-9,43,-14,-29,-14,-112,-141,-126,-107,-87
-34,-48,-14,41,-9,-31,-14,-112,-141,-122,-102,-92
-34,-58,-24,46,-4,-41,-14,-122,-151,-122,-112,-78
-39,-58,-19,48,-9,-39,-19,-122,-151,-126,-117,-78
-43,-58,-14,51,-14,-36,-19,-122,-151,-126,-122,-78
-43,-58,-14,51,-14,-36,-19,-126,-156,-126,-122,-78
-43,-58,-14,51,-14,-36,-19,-117,-146,-126,-117,-78
-39,-58,-19,48,-9,-39,-19,-117,-146,-126,-117,-87
-39,-53,-14,46,-12,-34,-14,-117,-146,-131,-117,-87
-34,-53,-19,43,-7,-36,-14,-117,-146,-131,-117,-87
-43,-63,-19,53,-12,-41,-14,-126,-156,-131,-117,-82
-48,-63,-14,56,-17,-39,-14,-126,-156,-131,-117,-82
-48,-63,-14,56,-17,-39,-14,-126,-156,-131,-117,-82
-48,-63,-14,56,-17,-39,-19,-126,-156,-131,-122,-82
-48,-63,-14,56,-17,-39,-9,-122,-151,-131,-122,-82
-48,-63,-14,56,-17,-39,-9,-122,-151,-131,-122,-82
-48,-63,-14,56,-17,-39,-9,-117,-151,-131,-122,-82
-43,-68,-24,56,-9,-46,-9,-117,-151,-131,-122,-82
-43,-73,-29,58,-7,-51,-19,-117,-151,-141,-107,-78
-43,-73,-29,58,-7,-51,-19,-122,-151,-141,-107,-78
-43,-73,-29,58,-7,-51,-19,-126,-151,-141,-112,-73
-53,-73,-19,63,-17,-46,-19,-126,-161,-146,-112,-73
-53,-58,-4,56,-24,-31,-24,-126,-161,-146,-112,-73
-48,-58,-9,53,-19,-34,-24,-126,-161,-146,-112,-73
-43,-58,-14,51,-14,-36,-19,-122,-161,-146,-112,-73
-43,-63,-19,53,-12,-41,-19,-122,-161,-146,-112,-78
-34,-63,-29,48,-2,-46,-29,-131,-161,-141,-122,-87
-34,-58,-24,46,-4,-41,-29,-136,-161,-141,-126,-87
-34,-58,-24,46,-4,-41,-29,-136,-161,-141,-126,-78
-34,-58,-24,46,-4,-41,-34,-136,-161,-141,-126,-73
-43,-58,-14,51,-14,-36,-24,-131,-170,-141,-117,-82
-43,-58,-14,51,-14,-36,-24,-131,-170,-141,-117,-87
-39,-63,-24,51,-7,-43,-24,-131,-170,-141,-117,-92
-34,-63,-29,48,-2,-46,-24,-131,-170,-146,-122,-92
-34,-73,-39,53,2,-56,-24,-126,-161,-146,-112,-82
-34,-73,-39,53,2,-56,-19,-126,-161,-146,-112,-82
-39,-73,-34,56,-2,-53,-19,-131,-165,-146,-112,-78
-39,-78,-39,58,0,-58,-24,-136,-165,-151,-112,-78
-43,-73,-29,58,-7,-51,-34,-146,-170,-161,-117,-87
-48,-68,-19,58,-14,-43,-34,-141,-175,-161,-122,-87
-53,-68,-14,61,-19,-41,-34,-141,-180,-161,-126,-87
-58,-63,-4,61,-26,-34,-34,-141,-185,-161,-131,-97
-53,-73,-19,63,-17,-46,-24,-136,-180,-151,-122,-87
-43,-73,-29,58,-7,-51,-24,-136,-185,-156,-122,-87
-39,-68,-29,53,-4,-48,-24,-136,-180,-161,-122,-82
-43,-68,-24,56,-9,-46,-24,-141,-180,-161,-131,-82
-53,-68,-14,61,-19,-41,-34,-151,-190,-161,-131,-92
-48,-68,-19,58,-14,-43,-34,-151,-190,-161,-131,-92
-48,-68,-19,58,-14,-43,-29,-151,-190,-161,-131,-92
-48,-73,-24,61,-12,-48,-29,-151,-185,-161,-131,-97
-39,-73,-34,56,-2,-53,-29,-141,-185,-161,-131,-92
-39,-68,-29,53,-4,-48,-29,-141,-190,-161,-131,-102
-39,-68,-29,53,-4,-48,-29,-141,-190,-165,-131,-92
-43,-78,-34,61,-4,-56,-29,-141,-190,-165,-131,-87
-53,-78,-24,65,-14,-51,-43,-151,-190,-165,-136,-82
-53,-73,-19,63,-17,-46,-43,-156,-195,-165,-136,-82
-53,-73,-19,63,-17,-46,-39,-156,-195,-165,-136,-92
-53,-73,-19,63,-17,-46,-39,-156,-195,-165,-136,-97
-39,-73,-34,56,-2,-53,-29,-146,-195,-170,-136,-102
-39,-73,-34,56,-2,-53,-29,-146,-195,-170,-136,-102
-39,-82,-43,61,2,-63,-29,-146,-195,-165,-131,-97
-39,-73,-34,56,-2,-53,-29,-156,-195,-165,-131,-92
-48,-73,-24,61,-12,-48,-34,-156,-200,-170,-141,-102
-53,-73,-19,63,-17,-46,-34,-156,-204,-170,-141,-102
-53,-82,-29,68,-12,-56,-34,-151,-204,-175,-141,-102
-53,-82,-29,68,-12,-56,-34,-151,-200,-175,-141,-102
-43,-73,-29,58,-7,-51,-34,-161,-200,-185,-141,-102
-39,-78,-39,58,0,-58,-34,-151,-200,-185,-136,-102
-29,-78,-48,53,9,-63,-29,-151,-200,-180,-136,-102
-39,-78,-39,58,0,-58,-29,-151,-200,-180,-136,-102
-43,-73,-29,58,-7,-51,-34,-165,-214,-175,-151,-102
-48,-68,-19,58,-14,-43,-39,-165,-219,-180,-156,-102
-53,-68,-14,61,-19,-41,-39,-165,-219,-180,-156,-102
-58,-68,-9,63,-24,-39,-43,-165,-219,-185,-156,-102
-53,-73,-19,63,-17,-46,-34,-156,-214,-175,-156,-107
-43,-78,-34,61,-4,-56,-34,-156,-209,-175,-151,-112
-39,-82,-43,61,2,-63,-34,-156,-204,-175,-146,-112
-34,-82,-48,58,7,-65,-34,-156,-200,-170,-141,-107
-39,-82,-43,61,2,-63,-43,-165,-209,-180,-146,-97
-43,-78,-34,61,-4,-56,-43,-165,-209,-185,-146,-97
-53,-78,-24,65,-14,-51,-43,-165,-209,-185,-146,-97
-58,-78,-19,68,-19,-48,-43,-165,-209,-185,-146,-92
-48,-78,-29,63,-9,-53,-34,-165,-209,-185,-141,-97
-48,-78,-29,63,-9,-53,-34,-165,-209,-185,-141,-102
-43,-68,-24,56,-9,-46,-34,-165,-209,-185,-141,-117
-43,-68,-24,56,-9,-46,-29,-165,-209,-185,-141,-122
-53,-68,-14,61,-19,-41,-39,-175,-219,-195,-151,-112
-53,-68,-14,61,-19,-41,-39,-170,-219,-195,-151,-112
-58,-78,-19,68,-19,-48,-43,-170,-219,-195,-151,-107
-63,-78,-14,70,-24,-46,-43,-175,-219,-195,-151,-107
-58,-87,-29,73,-14,-58,-34,-165,-214,-185,-156,-117
-48,-82,-34,65,-7,-58,-34,-165,-214,-185,-156,-117
-34,-82,-48,58,7,-65,-29,-165,-214,-180,-156,-117
-29,-82,-53,56,12,-68,-29,-165,-209,-180,-151,-117
-43,-82,-39,63,-2,-61,-39,-175,-214,-190,-161,-107
-53,-82,-29,68,-12,-56,-43,-175,-214,-190,-156,-107
-58,-78,-19,68,-19,-48,-43,-170,-214,-190,-156,-107
-63,-78,-14,70,-24,-46,-43,-170,-219,-190,-161,-107
-58,-78,-19,68,-19,-48,-34,-165,-219,-190,-161,-112
-53,-73,-19,63,-17,-46,-34,-165,-224,-190,-156,-112
-48,-73,-24,61,-12,-48,-34,-165,-224,-190,-156,-112
-43,-73,-29,58,-7,-51,-34,-165,-219,-190,-156,-117
-53,-73,-19,63,-17,-46,-43,-175,-219,-190,-156,-107
-53,-68,-14,61,-19,-41,-43,-175,-219,-190,-156,-107
-53,-68,-14,61,-19,-41,-43,-175,-219,-190,-156,-102
-53,-78,-24,65,-14,-51,-43,-175,-214,-190,-151,-92
-39,-87,-48,63,4,-68,-43,-175,-214,-195,-151,-97
-39,-73,-34,56,-2,-53,-43,-170,-214,-195,-156,-102
-43,-82,-39,63,-2,-61,-39,-170,-214,-195,-161,-107
-43,-82,-39,63,-2,-61,-39,-170,-219,-200,-161,-112
-43,-82,-39,63,-2,-61,-48,-170,-229,-200,-156,-112
-43,-73,-29,58,-7,-51,-48,-170,-224,-195,-156,-112
-43,-68,-24,56,-9,-46,-48,-170,-224,-190,-156,-107
-39,-68,-29,53,-4,-48,-48,-170,-214,-190,-146,-102
-39,-68,-29,53,-4,-48,-34,-170,-214,-190,-146,-107
-43,-73,-29,58,-7,-51,-34,-175,-214,-190,-146,-112
-43,-78,-34,61,-4,-56,-39,-175,-214,-185,-146,-117
-39,-82,-43,61,2,-63,-39,-170,-209,-185,-146,-117
-39,-92,-53,65,7,-73,-29,-156,-204,-175,-146,-102
-34,-73,-39,53,2,-56,-39,-165,-204,-185,-151,-102
-43,-39,4,41,-24,-17,-43,-175,-214,-190,-156,-102
-58,-48,9,53,-34,-19,-48,-175,-214,-195,-156,-97
-48,-58,-9,53,-19,-34,-43,-170,-204,-190,-151,-97
-48,-58,-9,53,-19,-34,-39,-165,-204,-185,-146,-97
-48,-58,-9,53,-19,-34,-34,-161,-204,-180,-141,-97
-48,-58,-9,53,-19,-34,-29,-156,-204,-175,-136,-97
-48,-43,4,46,-26,-19,-14,-136,-195,-165,-131,-82
-43,-24,19,34,-31,-2,-4,-136,-180,-156,-122,-78
-34,-4,29,19,-31,12,4,-136,-165,-141,-117,-68
-29,9,39,9,-34,24,4,-131,-156,-131,-112,-68
-34,19,53,7,-43,36,-4,-136,-161,-136,-112,-78
-29,19,48,4,-39,34,4,-136,-156,-136,-112,-73
-29,19,48,4,-39,34,9,-131,-151,-136,-107,-73
-34,19,53,7,-43,36,19,-126,-146,-126,-97,-63
-29,19,48,4,-39,34,29,-117,-136,-122,-82,-53
-29,24,53,2,-41,39,29,-112,-126,-117,-82,-53
-24,24,48,0,-36,36,39,-102,-117,-112,-82,-53
-14,24,39,-4,-26,31,48,-97,-107,-112,-82,-53
-9,24,34,-7,-21,29,43,-97,-107,-112,-92,-63
-4,24,29,-9,-17,26,43,-97,-112,-97,-87,-63
-4,24,29,-9,-17,26,39,-97,-112,-97,-78,-53
-4,34,39,-14,-21,36,34,-97,-112,-97,-78,-48
0,29,29,-14,-14,29,29,-92,-97,-92,-63,-34
0,29,29,-14,-14,29,19,-97,-97,-92,-58,-29
4,39,34,-21,-14,36,-4,-112,-102,-92,-58,-29
4,53,48,-29,-21,51,-19,-117,-102,-87,-58,-29
-4,68,73,-31,-39,70,-29,-126,-112,-97,-58,-34
0,73,73,-36,-36,73,-48,-141,-117,-97,-58,-24
4,82,78,-43,-36,80,-68,-146,-122,-97,-63,-19
4,92,87,-48,-41,90,-82,-151,-126,-107,-68,-19
9,82,73,-46,-31,78,-87,-156,-122,-102,-58,0
14,68,53,-41,-19,61,-97,-151,-126,-97,-53,0
19,53,34,-36,-7,43,-102,-146,-141,-97,-48,0
39,39,0,-39,19,19,-107,-141,-146,-97,-43,0
39,39,0,-39,19,19,-117,-146,-156,-112,-53,-9
43,43,0,-43,21,21,-122,-151,-175,-126,-58,-9
39,43,4,-41,17,24,-122,-161,-185,-136,-73,-9
34,43,9,-39,12,26,-117,-170,-200,-141,-82,-19
34,34,0,-34,17,17,-107,-161,-204,-136,-73,-9
34,29,-4,-31,19,12,-107,-161,-200,-136,-78,-14
34,24,-9,-29,21,7,-97,-161,-195,-131,-73,-14
24,9,-14,-17,19,-2,-82,-151,-185,-131,-68,-19
9,0,-9,-4,9,-4,-78,-156,-195,-146,-78,-24
0,-14,-14,7,7,-14,-63,-156,-195,-146,-87,-43
-19,-29,-9,24,-4,-19,-53,-156,-195,-156,-107,-53
-34,-39,-4,36,-14,-21,-53,-156,-200,-156,-117,-58
-29,-48,-19,39,-4,-34,-48,-165,-195,-156,-107,-68
-29,-48,-19,39,-4,-34,-53,-170,-204,-165,-122,-68
-34,-53,-19,43,-7,-36,-58,-185,-219,-180,-131,-87
-34,-63,-29,48,-2,-46,-58,-185,-229,-190,-141,-102
-39,-73,-34,56,-2,-53,-63,-190,-239,-209,-170,-92
-39,-87,-48,63,4,-68,-63,-190,-244,-214,-170,-107
-43,-92,-48,68,2,-70,-63,-195,-253,-224,-180,-112
-53,-102,-48,78,-2,-75,-63,-195,-258,-234,-190,-122
-48,-112,-63,80,7,-87,-53,-185,-263,-224,-180,-136
-53,-122,-68,87,7,-95,-53,-185,-263,-229,-185,-136
-48,-126,-78,87,14,-102,-53,-185,-263,-234,-190,-136
-48,-131,-82,90,17,-107,-53,-195,-273,-234,-195,-141
-53,-122,-68,87,7,-95,-63,-200,-283,-244,-204,-136
-53,-122,-68,87,7,-95,-63,-200,-278,-244,-200,-136
-58,-122,-63,90,2,-92,-58,-204,-278,-244,-200,-136
-63,-122,-58,92,-2,-90,-58,-204,-278,-244,-200,-136
-58,-131,-73,95,7,-102,-58,-195,-273,-244,-200,-141
-53,-136,-82,95,14,-109,-58,-200,-273,-244,-200,-146
-48,-136,-87,92,19,-112,-58,-200,-268,-244,-200,-151
-43,-136,-92,90,24,-114,-58,-200,-268,-244,-204,-156
-53,-146,-92,100,19,-119,-58,-200,-278,-244,-204,-151
-58,-146,-87,102,14,-117,-58,-200,-278,-248,-209,-156
-58,-146,-87,102,14,-117,-58,-200,-273,-248,-209,-151
-63,-151,-87,107,12,-119,-53,-200,-273,-248,-204,-146
-58,-141,-82,100,12,-112,-43,-195,-273,-239,-195,-146
-58,-141,-82,100,12,-112,-43,-195,-273,-239,-200,-151
-53,-136,-82,95,14,-109,-43,-200,-273,-239,-200,-156
-48,-136,-87,92,19,-112,-43,-200,-273,-244,-204,-161
-53,-141,-87,97,17,-114,-53,-200,-273,-244,-204,-156
-58,-146,-87,102,14,-117,-53,-195,-273,-244,-204,-151
-63,-156,-92,109,14,-124,-53,-195,-273,-244,-200,-146
-68,-161,-92,114,12,-126,-48,-195,-268,-239,-200,-141
-58,-122,-63,90,2,-92,-48,-200,-278,-248,-209,-165
-48,-112,-63,80,7,-87,-48,-200,-278,-248,-209,-175
-43,-122,-78,82,17,-100,-39,-190,-268,-248,-200,-161
-43,-151,-107,97,31,-129,-34,-185,-263,-244,-200,-156
-58,-170,-112,114,26,-141,-29,-175,-263,-239,-204,-161
-73,-175,-102,124,14,-139,-14,-170,-278,-253,-224,-180
-87,-209,-122,148,17,-165,24,-146,-287,-278,-268,-229
-117,-258,-141,187,12,-200,78,-122,-292,-322,-346,-302
-141,-322,-180,231,19,-251,165,-82,-302,-380,-439,-405
-156,-370,-214,263,29,-292,253,-43,-297,-409,-531,-497
-170,-414,-244,292,36,-329,336,-9,-278,-429,-580,-561
-180,-434,-253,307,36,-344,380,24,-258,-439,-610,-590
-180,-424,-244,302,31,-334,405,39,-244,-424,-610,-590
-175,-409,-234,292,29,-322,395,43,-239,-429,-619,-570
-136,-385,-248,261,56,-317,380,63,-244,-419,-595,-551
-87,-322,-234,204,73,-278,370,131,-180,-361,-531,-483
-24,-253,-229,139,102,-241,380,244,-48,-229,-400,-370
48,-165,-214,58,131,-190,380,366,102,-73,-234,-239
122,-58,-180,-31,151,-119,380,483,258,87,-48,-87
190,97,-92,-143,141,2,361,610,458,297,175,102
263,278,14,-270,124,146,322,736,697,546,439,326
322,429,107,-375,107,268,239,805,912,805,722,570
390,590,200,-490,95,395,102,775,1029,1019,1010,834
458,795,336,-627,61,566,-107,678,1093,1220,1283,1088
531,1029,497,-780,17,763,-351,522,1146,1410,1595,1366
575,1293,717,-934,-70,1005,-575,356,1244,1673,1981,1703
619,1483,863,-1051,-122,1173,-741,234,1317,1903,2303,1991
663,1468,805,-1066,-70,1137,-839,161,1239,1893,2361,2069
683,1351,668,-1017,7,1010,-917,43,1010,1698,2239,2005
649,1268,619,-958,14,944,-951,-92,800,1503,2069,1917
551,1205,653,-878,-51,929,-902,-224,658,1307,1849,1781
419,1098,678,-758,-129,888,-795,-439,380,956,1449,1517
268,922,653,-595,-192,788,-712,-766,-87,439,912,1161
126,790,663,-458,-268,727,-722,-1127,-546,-14,478,878
34,688,653,-361,-309,671,-766,-1342,-854,-312,224,692
34,541,507,-287,-236,524,-795,-1259,-971,-458,78,541
48,341,292,-195,-122,317,-756,-1039,-932,-497,-19,405
39,190,151,-114,-56,170,-644,-854,-854,-488,-73,287
19,97,78,-58,-29,87,-507,-673,-751,-468,-136,175
19,29,9,-24,4,19,-414,-492,-634,-434,-175,73
24,-14,-39,-4,31,-26,-346,-351,-517,-375,-195,14
24,-24,-48,0,36,-36,-283,-248,-395,-302,-165,-14
34,-9,-43,-12,39,-26,-219,-180,-292,-219,-122,-19
34,4,-29,-19,31,-12,-175,-141,-224,-165,-92,-19
19,4,-14,-12,17,-4,-131,-117,-165,-126,-73,-14
14,0,-14,-7,14,-7,-92,-92,-126,-107,-68,-24
4,-9,-14,2,9,-12,-73,-78,-107,-97,-78,-39
-4,-14,-9,9,2,-12,-48,-63,-92,-87,-78,-34
-14,-24,-9,19,-2,-17,-34,-39,-78,-78,-82,-39
-14,-39,-24,26,4,-31,-29,-29,-78,-92,-92,-58
-4,-53,-48,29,21,-51,-9,-24,-78,-82,-87,-78
-9,-58,-48,34,19,-53,-4,-24,-78,-92,-92,-87
-14,-58,-43,36,14,-51,-4,-24,-82,-97,-107,-97
-19,-58,-39,39,9,-48,-4,-24,-82,-102,-112,-102
-29,-78,-48,53,9,-63,19,-19,-82,-102,-112,-92
-29,-82,-53,56,12,-68,19,-9,-82,-102,-117,-92
-29,-82,-53,56,12,-68,19,-9,-82,-102,-117,-102
-24,-82,-58,53,17,-70,19,-9,-78,-102,-122,-107
-14,-97,-82,56,34,-90,24,0,-68,-97,-122,-117
-19,-102,-82,61,31,-92,29,4,-63,-97,-122,-117
-19,-102,-82,61,31,-92,29,4,-63,-102,-126,-117
-24,-97,-73,61,24,-85,34,9,-63,-102,-131,-117
-24,-92,-68,58,21,-80,24,9,-73,-102,-131,-117
-19,-87,-68,53,24,-78,24,9,-73,-102,-126,-117
-19,-82,-63,51,21,-73,24,19,-63,-97,-122,-117
-19,-78,-58,48,19,-68,29,19,-58,-97,-122,-122
-24,-87,-63,56,19,-75,39,19,-58,-97,-122,-131
-24,-87,-63,56,19,-75,43,24,-53,-92,-117,-126
-24,-97,-73,61,24,-85,43,34,-48,-87,-117,-126
-24,-97,-73,61,24,-85,43,34,-48,-87,-112,-122
-24,-82,-58,53,17,-70,48,34,-48,-87,-122,-112
-29,-78,-48,53,9,-63,48,39,-43,-87,-122,-112
-29,-78,-48,53,9,-63,48,39,-39,-78,-122,-112
-14,-78,-63,46,24,-70,48,39,-29,-78,-122,-112
-24,-78,-53,51,14,-65,39,39,-29,-87,-112,-122
-29,-73,-43,51,7,-58,43,43,-24,-78,-107,-122
-34,-73,-39,53,2,-56,43,43,-19,-78,-107,-122
-34,-68,-34,51,0,-51,43,48,-19,-73,-107,-117
-24,-73,-48,48,12,-61,53,53,-9,-63,-102,-107
-24,-78,-53,51,14,-65,53,58,0,-58,-102,-107
-19,-82,-63,51,21,-73,53,73,4,-53,-102,-107
-19,-87,-68,53,24,-78,58,78,9,-53,-97,-102
-24,-78,-53,51,14,-65,48,78,4,-63,-102,-112
-19,-63,-43,41,12,-53,48,78,9,-53,-102,-112
-19,-58,-39,39,9,-48,48,78,14,-48,-102,-107
-24,-53,-29,39,2,-41,48,87,14,-48,-97,-102
-19,-53,-34,36,7,-43,53,92,24,-39,-87,-97
-19,-53,-34,36,7,-43,53,92,29,-24,-87,-97
-14,-43,-29,29,7,-36,53,92,34,-24,-82,-102
-14,-34,-19,24,2,-26,53,102,39,-24,-82,-102
-24,-43,-19,34,-2,-31,53,107,43,-14,-87,-92
-19,-43,-24,31,2,-34,63,112,58,-9,-78,-87
-19,-43,-24,31,2,-34,63,122,58,-4,-78,-82
-19,-43,-24,31,2,-34,63,126,63,0,-78,-82
-14,-43,-29,29,7,-36,73,136,68,4,-68,-87
-14,-43,-29,29,7,-36,73,141,78,9,-63,-87
-14,-34,-19,24,2,-26,73,141,82,14,-53,-82
-9,-24,-14,17,2,-19,73,141,87,14,-48,-82
-19,-24,-4,21,-7,-14,63,141,97,14,-43,-82
-19,-24,-4,21,-7,-14,68,151,112,24,-43,-82
-14,-24,-9,19,-2,-17,68,156,112,29,-43,-82
-14,-19,-4,17,-4,-12,68,156,117,34,-48,-73
-9,-19,-9,14,0,-14,82,165,126,48,-39,-73
-4,-19,-14,12,4,-17,82,180,136,58,-29,-68
0,-9,-9,4,4,-9,82,185,141,63,-24,-63
4,-9,-14,2,9,-12,82,190,156,68,-19,-63
0,0,0,0,0,0,78,185,156,73,-24,-63
-4,9,14,-2,-9,12,78,195,161,78,-19,-58
-4,14,19,-4,-12,17,82,200,175,82,-14,-58
-9,19,29,-4,-19,24,82,204,180,87,-9,-48
0,9,9,-4,-4,9,97,219,195,107,4,-43
0,14,14,-7,-7,14,97,219,204,112,4,-43
0,24,24,-12,-12,24,92,234,224,122,14,-39
0,29,29,-14,-14,29,92,239,239,131,19,-34
-9,39,48,-14,-29,43,92,244,248,131,19,-34
-9,43,53,-17,-31,48,97,258,263,141,24,-29
-4,48,53,-21,-29,51,97,268,263,156,29,-19
-4,53,58,-24,-31,56,97,278,278,165,34,-14
0,58,58,-29,-29,58,107,292,297,185,48,-19
4,63,58,-34,-26,61,107,297,312,195,58,-14
9,68,58,-39,-24,63,112,312,317,204,73,-9
14,73,58,-43,-21,65,112,322,336,219,73,-4
9,82,73,-46,-31,78,112,326,341,219,73,-9
4,92,87,-48,-41,90,117,336,361,229,82,-9
0,92,92,-46,-46,92,117,346,375,244,92,4
-4,102,107,-48,-56,104,117,361,390,258,102,9
9,117,107,-63,-48,112,126,380,419,268,107,4
14,126,112,-70,-48,119,131,390,434,283,112,9
19,126,107,-73,-43,117,141,400,453,297,131,24
24,136,112,-80,-43,124,146,414,468,312,141,24
24,136,112,-80,-43,124,141,424,478,336,141,34
24,146,122,-85,-48,134,146,434,502,351,156,48
24,141,117,-82,-46,129,146,448,522,366,170,63
19,151,131,-85,-56,141,151,463,541,380,180,78
24,165,141,-95,-58,153,156,483,561,395,190,78
29,185,156,-107,-63,170,161,497,585,409,200,87
34,195,161,-114,-63,178,165,507,605,429,214,92
39,200,161,-119,-61,180,165,527,624,444,234,97
34,209,175,-122,-70,192,165,527,634,458,229,112
48,224,175,-136,-63,200,165,536,649,473,239,122
48,234,185,-141,-68,209,170,556,673,492,258,131
48,248,200,-148,-75,224,170,570,692,512,273,141
58,263,204,-161,-73,234,185,585,722,536,297,141
63,278,214,-170,-75,246,185,605,736,556,307,156
63,287,224,-175,-80,256,180,610,751,570,322,165
68,302,234,-185,-82,268,180,614,771,585,326,175
58,322,263,-190,-102,292,170,629,775,605,326,190
68,336,268,-202,-100,302,170,644,800,614,346,200
73,346,273,-209,-100,309,175,653,819,624,370,214
73,351,278,-212,-102,314,180,663,834,634,385,229
82,356,273,-219,-95,314,170,683,858,658,405,234
87,375,287,-231,-100,331,161,683,863,663,409,248
87,395,307,-241,-109,351,161,688,868,673,419,258
87,405,317,-246,-114,361,156,688,883,683,434,273
82,414,331,-248,-124,373,161,688,893,692,444,292
82,419,336,-251,-126,378,156,688,893,702,453,297
87,429,341,-258,-126,385,151,688,893,702,463,307
97,439,341,-268,-122,390,151,688,893,702,473,317
97,448,351,-273,-126,400,151,692,902,712,483,317
97,458,361,-278,-131,409,136,688,893,712,488,331
102,463,361,-283,-129,412,131,673,878,707,492,341
102,473,370,-287,-134,422,122,663,863,702,497,346
102,468,366,-285,-131,417,102,644,858,692,497,356
102,468,366,-285,-131,417,92,629,844,683,497,366
112,463,351,-287,-119,407,87,619,829,678,502,375
102,458,356,-280,-126,407,82,590,800,658,502,380
112,463,351,-287,-119,407,73,570,771,653,502,375
117,463,346,-290,-114,405,53,546,741,634,492,370
117,463,346,-290,-114,405,43,517,707,605,483,366
107,453,346,-280,-119,400,34,483,668,580,473,361
102,439,336,-270,-117,387,14,458,644,551,453,356
97,434,336,-265,-119,385,4,424,600,522,439,356
97,419,322,-258,-112,370,0,405,561,497,424,341
92,395,302,-244,-104,348,-4,366,522,463,400,331
92,380,287,-236,-97,334,-9,336,483,429,390,307
87,351,263,-219,-87,307,-14,302,448,400,370,297
78,336,258,-207,-90,297,-19,268,409,366,341,273
68,317,248,-192,-90,283,-24,234,370,331,312,253
58,287,229,-173,-85,258,-19,204,317,307,292,234
53,263,209,-158,-78,236,-24,180,283,273,268,209
48,239,190,-143,-70,214,-24,161,244,244,248,185
48,224,175,-136,-63,200,-24,136,214,214,224,165
39,214,175,-126,-68,195,-34,102,170,180,195,141
29,185,156,-107,-63,170,-29,82,141,151,165,126
19,165,146,-92,-63,156,-29,73,122,131,141,112
14,151,136,-82,-61,143,-34,48,92,107,117,92
19,141,122,-80,-51,131,-34,9,63,63,102,73
9,131,122,-70,-56,126,-34,0,34,43,78,58
9,112,102,-61,-46,107,-29,-9,14,24,63,43
9,92,82,-51,-36,87,-24,-19,-4,9,43,24
-4,82,87,-39,-46,85,-34,-43,-19,0,34,24
-9,68,78,-29,-43,73,-34,-48,-29,-9,24,9
-9,53,63,-21,-36,58,-34,-58,-48,-24,9,0
-14,48,63,-17,-39,56,-34,-68,-63,-39,-4,-9
-4,48,53,-21,-29,51,-24,-68,-68,-53,-9,-19
-9,34,43,-12,-26,39,-24,-78,-78,-63,-24,-29
-14,14,29,0,-21,21,-24,-78,-82,-68,-29,-34
-14,9,24,2,-19,17,-24,-78,-87,-78,-29,-43
-24,0,24,12,-24,12,-34,-87,-102,-92,-48,-63
-24,0,24,12,-24,12,-34,-97,-117,-102,-58,-63
-24,-4,19,14,-21,7,-34,-107,-122,-107,-63,-68
-24,-19,4,21,-14,-7,-29,-117,-131,-107,-73,-68
-24,-24,0,24,-12,-12,-19,-112,-126,-112,-78,-82
-24,-24,0,24,-12,-12,-24,-117,-131,-112,-82,-87
-24,-24,0,24,-12,-12,-24,-117,-141,-112,-82,-92
-24,-29,-4,26,-9,-17,-24,-117,-141,-112,-82,-92
-39,-53,-14,46,-12,-34,-19,-112,-146,-122,-92,-87
-39,-53,-14,46,-12,-34,-19,-112,-146,-126,-92,-92
-43,-43,0,43,-21,-21,-19,-112,-156,-131,-92,-97
-48,-43,4,46,-26,-19,-19,-122,-156,-131,-102,-97
-48,-39,9,43,-29,-14,-29,-122,-156,-141,-92,-102
-43,-34,9,39,-26,-12,-29,-117,-156,-141,-97,-102
-34,-29,4,31,-19,-12,-29,-117,-156,-141,-97,-112
-19,-34,-14,26,-2,-24,-29,-117,-156,-141,-97,-112
-19,-39,-19,29,0,-29,-29,-117,-156,-131,-107,-102
-19,-43,-24,31,2,-34,-29,-117,-156,-136,-107,-102
-24,-48,-24,36,0,-36,-29,-117,-165,-136,-107,-107
-34,-53,-19,43,-7,-36,-29,-117,-156,-136,-107,-107
-29,-43,-14,36,-7,-29,-19,-107,-146,-136,-97,-107
-34,-43,-9,39,-12,-26,-19,-107,-146,-136,-102,-112
-34,-48,-14,41,-9,-31,-19,-107,-151,-136,-107,-112
-29,-48,-19,39,-4,-34,-19,-107,-151,-136,-107,-117
-39,-48,-9,43,-14,-29,-29,-112,-156,-136,-117,-122
-39,-43,-4,41,-17,-24,-29,-117,-161,-136,-117,-122
-39,-43,-4,41,-17,-24,-24,-122,-165,-136,-112,-117
-39,-43,-4,41,-17,-24,-24,-126,-165,-136,-112,-107
-34,-43,-9,39,-12,-26,-14,-122,-161,-136,-107,-112
-34,-43,-9,39,-12,-26,-14,-117,-156,-136,-107,-112
-29,-39,-9,34,-9,-24,-14,-112,-151,-136,-112,-117
-19,-39,-19,29,0,-29,-19,-107,-146,-136,-117,-117
-24,-43,-19,34,-2,-31,-29,-117,-156,-146,-117,-112
-29,-48,-19,39,-4,-34,-24,-117,-156,-146,-117,-112
-34,-58,-24,46,-4,-41,-24,-117,-156,-146,-117,-112
-34,-63,-29,48,-2,-46,-24,-112,-156,-146,-112,-107
-24,-58,-34,41,4,-46,-14,-112,-146,-136,-102,-117
-29,-58,-29,43,0,-43,-14,-112,-146,-136,-102,-117
-34,-58,-24,46,-4,-41,-14,-117,-146,-136,-107,-117
-34,-53,-19,43,-7,-36,-14,-117,-146,-136,-107,-117
-34,-53,-19,43,-7,-36,-24,-126,-156,-146,-112,-117
-39,-58,-19,48,-9,-39,-24,-122,-151,-146,-112,-117
-43,-58,-14,51,-14,-36,-19,-122,-151,-146,-117,-122
-43,-58,-14,51,-14,-36,-19,-122,-151,-141,-122,-122
-29,-68,-39,48,4,-53,-14,-117,-141,-131,-112,-112
-34,-68,-34,51,0,-51,-19,-112,-141,-131,-117,-112
-29,-63,-34,46,2,-48,-14,-112,-146,-141,-117,-112
-19,-63,-43,41,12,-53,-4,-107,-146,-141,-117,-112
-34,-63,-29,48,-2,-46,-14,-117,-156,-136,-117,-112
-39,-53,-14,46,-12,-34,-14,-117,-156,-136,-117,-112
-43,-53,-9,48,-17,-31,-14,-112,-151,-136,-117,-112
-43,-58,-14,51,-14,-36,-14,-112,-151,-131,-112,-112
-34,-58,-24,46,-4,-41,-14,-112,-141,-131,-102,-112
-39,-58,-19,48,-9,-39,-19,-112,-141,-136,-107,-117
-43,-58,-14,51,-14,-36,-19,-112,-141,-136,-112,-122
-43,-58,-14,51,-14,-36,-19,-117,-146,-136,-112,-126
-53,-53,0,53,-26,-26,-29,-126,-151,-141,-122,-126
-48,-48,0,48,-24,-24,-29,-126,-156,-146,-126,-136
-48,-39,9,43,-29,-14,-24,-126,-161,-156,-131,-136
-43,-34,9,39,-26,-12,-24,-126,-165,-161,-136,-136
-39,-43,-4,41,-17,-24,-24,-117,-156,-156,-126,-131
-39,-43,-4,41,-17,-24,-24,-117,-156,-151,-126,-131
-34,-43,-9,39,-12,-26,-24,-117,-156,-146,-126,-131
-29,-43,-14,36,-7,-29,-29,-117,-156,-141,-131,-131
-39,-53,-14,46,-12,-34,-29,-122,-161,-141,-122,-126
-39,-53,-14,46,-12,-34,-29,-122,-161,-141,-122,-122
-39,-53,-14,46,-12,-34,-29,-117,-161,-141,-122,-117
-34,-58,-24,46,-4,-41,-29,-117,-161,-141,-122,-112
-34,-63,-29,48,-2,-46,-19,-107,-161,-151,-117,-117
-34,-63,-29,48,-2,-46,-19,-112,-161,-151,-117,-117
-34,-63,-29,48,-2,-46,-19,-117,-161,-151,-122,-112
-43,-63,-19,53,-12,-41,-19,-117,-170,-156,-122,-112
-43,-68,-24,56,-9,-46,-24,-126,-161,-146,-112,-112
-39,-68,-29,53,-4,-48,-24,-126,-161,-146,-112,-112
-34,-68,-34,51,0,-51,-19,-122,-161,-146,-112,-112
-34,-73,-39,53,2,-56,-19,-122,-161,-146,-112,-117
-34,-68,-34,51,0,-51,-29,-122,-165,-161,-122,-136
-34,-58,-24,46,-4,-41,-29,-126,-170,-161,-126,-136
-34,-53,-19,43,-7,-36,-29,-126,-175,-161,-126,-126
-34,-48,-14,41,-9,-31,-34,-126,-180,-161,-126,-122
-43,-58,-14,51,-14,-36,-34,-131,-180,-161,-126,-122
-43,-58,-14,51,-14,-36,-34,-131,-180,-161,-126,-126
-39,-63,-24,51,-7,-43,-34,-131,-180,-161,-126,-131
-34,-63,-29,48,-2,-46,-34,-131,-180,-165,-131,-131
-34,-53,-19,43,-7,-36,-34,-126,-180,-165,-131,-141
-34,-53,-19,43,-7,-36,-29,-126,-180,-165,-131,-141
-39,-53,-14,46,-12,-34,-29,-131,-185,-165,-131,-136
-39,-58,-19,48,-9,-39,-34,-136,-185,-170,-131,-136
-29,-68,-39,48,4,-53,-24,-126,-175,-161,-131,-126
-29,-68,-39,48,4,-53,-24,-122,-175,-161,-131,-126
-29,-73,-43,51,7,-58,-24,-122,-175,-161,-131,-126
-29,-73,-43,51,7,-58,-24,-122,-175,-161,-131,-136
-29,-73,-43,51,7,-58,-34,-136,-185,-161,-141,-146
-24,-73,-48,48,12,-61,-34,-136,-195,-165,-141,-146
-24,-68,-43,46,9,-56,-34,-136,-195,-170,-141,-141
-34,-68,-34,51,0,-51,-34,-141,-200,-170,-151,-141
-24,-58,-34,41,4,-46,-34,-141,-190,-170,-146,-131
-19,-58,-39,39,9,-48,-34,-141,-190,-170,-141,-131
-19,-58,-39,39,9,-48,-29,-141,-190,-170,-136,-131
-19,-63,-43,41,12,-53,-29,-141,-185,-170,-131,-136
-24,-68,-43,46,9,-56,-39,-141,-195,-180,-141,-136
-29,-68,-39,48,4,-53,-39,-141,-200,-180,-141,-141
-34,-73,-39,53,2,-56,-39,-141,-200,-185,-141,-126
-43,-87,-43,65,0,-65,-39,-141,-200,-185,-141,-117
-39,-78,-39,58,0,-58,-34,-141,-200,-175,-136,-117
-34,-73,-39,53,2,-56,-34,-146,-204,-175,-136,-122
-29,-73,-43,51,7,-58,-29,-146,-204,-175,-136,-136
-24,-73,-48,48,12,-61,-29,-146,-204,-175,-136,-146
-34,-63,-29,48,-2,-46,-39,-156,-214,-185,-146,-161
-39,-63,-24,51,-7,-43,-39,-156,-214,-190,-156,-161
-43,-73,-29,58,-7,-51,-39,-156,-214,-190,-161,-156
-48,-63,-14,56,-17,-39,-39,-165,-214,-195,-170,-151
-34,-53,-19,43,-7,-36,-34,-156,-209,-190,-165,-151
-34,-53,-19,43,-7,-36,-34,-156,-214,-190,-161,-151
-29,-63,-34,46,2,-48,-34,-151,-214,-195,-156,-151
-24,-63,-39,43,7,-51,-34,-151,-209,-195,-151,-151
-39,-73,-34,56,-2,-53,-43,-161,-219,-195,-151,-141
-39,-78,-39,58,0,-58,-43,-151,-219,-195,-146,-141
-34,-78,-43,56,4,-61,-39,-151,-219,-190,-146,-141
-48,-78,-29,63,-9,-53,-39,-151,-219,-190,-146,-141
-43,-78,-34,61,-4,-56,-29,-146,-209,-190,-146,-131
-39,-78,-39,58,0,-58,-29,-146,-209,-190,-146,-131
-34,-82,-48,58,7,-65,-24,-146,-204,-185,-141,-131
-29,-87,-58,58,14,-73,-24,-146,-200,-185,-136,-131
-43,-78,-34,61,-4,-56,-29,-156,-204,-195,-151,-136
-43,-78,-34,61,-4,-56,-34,-156,-209,-195,-151,-141
-48,-78,-29,63,-9,-53,-39,-156,-214,-195,-151,-141
-53,-73,-19,63,-17,-46,-43,-156,-219,-190,-151,-136
-43,-78,-34,61,-4,-56,-39,-156,-219,-190,-136,-136
-43,-78,-34,61,-4,-56,-34,-156,-219,-195,-136,-136
-48,-82,-34,65,-7,-58,-29,-156,-219,-195,-136,-136
-48,-87,-39,68,-4,-63,-24,-156,-219,-195,-136,-131
-48,-107,-58,78,4,-82,-34,-156,-229,-204,-156,-141
-48,-107,-58,78,4,-82,-34,-156,-229,-204,-161,-141
-43,-97,-53,70,4,-75,-34,-156,-229,-204,-165,-151
-43,-97,-53,70,4,-75,-29,-156,-229,-204,-170,-151
-34,-87,-53,61,9,-70,-19,-146,-219,-195,-161,-161
-34,-87,-53,61,9,-70,-19,-141,-219,-195,-161,-161
-39,-97,-58,68,9,-78,-24,-141,-219,-195,-161,-156
-43,-97,-53,70,4,-75,-24,-146,-219,-195,-161,-156
-48,-97,-48,73,0,-73,-29,-151,-234,-200,-175,-146
-48,-92,-43,70,-2,-68,-34,-156,-234,-204,-175,-146
-43,-92,-48,68,2,-70,-34,-161,-234,-204,-175,-146
-48,-92,-43,70,-2,-68,-39,-165,-229,-209,-170,-146
-43,-92,-48,68,2,-70,-34,-156,-214,-200,-161,-156
-43,-92,-48,68,2,-70,-34,-156,-214,-200,-156,-156
-39,-87,-48,63,4,-68,-29,-151,-214,-200,-156,-156
-34,-87,-53,61,9,-70,-24,-151,-219,-200,-161,-156
-43,-87,-43,65,0,-65,-29,-165,-229,-209,-170,-156
-43,-82,-39,63,-2,-61,-34,-165,-234,-209,-165,-151
-43,-82,-39,63,-2,-61,-39,-165,-234,-209,-165,-146
-43,-82,-39,63,-2,-61,-43,-165,-229,-209,-165,-146
-34,-87,-53,61,9,-70,-34,-156,-229,-200,-156,-151
-34,-87,-53,61,9,-70,-34,-156,-229,-200,-156,-156
-34,-92,-58,63,12,-75,-34,-156,-229,-200,-156,-156
-34,-107,-73,70,19,-90,-34,-156,-224,-200,-151,-151
-34,-107,-73,70,19,-90,-43,-161,-229,-200,-156,-151
-39,-92,-53,65,7,-73,-43,-161,-234,-204,-165,-151
-48,-102,-53,75,2,-78,-39,-165,-239,-209,-175,-151
-53,-102,-48,78,-2,-75,-39,-170,-248,-219,-180,-151
-43,-102,-58,73,7,-80,-29,-161,-244,-209,-175,-156
-43,-92,-48,68,2,-70,-29,-161,-234,-204,-175,-161
-43,-87,-43,65,0,-65,-29,-161,-229,-200,-175,-161
-39,-87,-48,63,4,-68,-29,-161,-214,-200,-165,-161
-48,-92,-43,70,-2,-68,-34,-161,-219,-204,-165,-151
-53,-92,-39,73,-7,-65,-34,-165,-224,-209,-165,-151
-53,-92,-39,73,-7,-65,-39,-165,-229,-209,-165,-151
-48,-92,-43,70,-2,-68,-39,-161,-229,-214,-165,-146
-39,-97,-58,68,9,-78,-39,-156,-234,-214,-175,-146
-34,-102,-68,68,17,-85,-39,-156,-234,-214,-170,-141
-34,-102,-68,68,17,-85,-34,-156,-234,-209,-165,-136
-39,-107,-68,73,14,-87,-34,-156,-244,-209,-165,-141
-39,-87,-48,63,4,-68,-34,-156,-234,-219,-175,-151
-43,-87,-43,65,0,-65,-34,-156,-229,-209,-165,-151
-53,-107,-53,80,0,-80,-34,-165,-224,-200,-165,-146
-53,-97,-43,75,-4,-70,-29,-165,-224,-200,-165,-136
-58,-68,-9,63,-24,-39,-39,-165,-224,-204,-165,-146
-43,-68,-24,56,-9,-46,-34,-161,-219,-195,-161,-146
-39,-68,-29,53,-4,-48,-29,-156,-214,-195,-156,-146
-34,-68,-34,51,0,-51,-24,-151,-209,-195,-151,-146
-29,-68,-39,48,4,-53,-19,-146,-204,-195,-146,-146
-43,-58,-14,51,-14,-36,-4,-136,-190,-185,-131,-126
-43,-43,0,43,-21,-21,4,-136,-180,-175,-122,-117
-39,-29,9,34,-24,-9,14,-136,-170,-161,-117,-102
-39,-19,19,29,-29,0,14,-131,-165,-151,-112,-97
-24,-19,4,21,-14,-7,4,-126,-170,-156,-122,-102
-19,-19,0,19,-9,-9,14,-126,-165,-156,-122,-102
-19,-19,0,19,-9,-9,19,-122,-161,-156,-117,-107
-24,-19,4,21,-14,-7,29,-117,-156,-146,-107,-102
-39,-29,9,34,-24,-9,39,-107,-141,-141,-102,-92
-39,-24,14,31,-26,-4,39,-102,-136,-136,-102,-92
-34,-24,9,29,-21,-7,48,-92,-131,-131,-102,-92
-24,-24,0,24,-12,-12,58,-87,-126,-131,-102,-92
-19,-19,0,19,-9,-9,53,-87,-122,-131,-92,-102
-14,-14,0,14,-7,-7,53,-87,-122,-117,-87,-102
-14,-9,4,12,-9,-2,48,-87,-117,-117,-78,-92
-14,4,19,4,-17,12,43,-87,-112,-117,-78,-87
-9,19,29,-4,-19,24,24,-97,-117,-112,-78,-73
-9,19,29,-4,-19,24,9,-107,-117,-112,-78,-68
-4,29,34,-12,-19,31,-19,-126,-122,-112,-82,-68
-4,43,48,-19,-26,46,-39,-136,-122,-107,-87,-68
-14,43,58,-14,-36,51,-48,-141,-131,-107,-82,-73
-9,43,53,-17,-31,48,-68,-151,-136,-107,-78,-63
-4,48,53,-21,-29,51,-87,-151,-141,-107,-78,-58
-4,53,58,-24,-31,56,-102,-151,-146,-117,-78,-58
4,48,43,-26,-19,46,-112,-151,-151,-126,-73,-58
4,39,34,-21,-14,36,-117,-151,-156,-126,-73,-58
4,29,24,-17,-9,26,-117,-151,-170,-131,-73,-58
19,19,0,-19,9,9,-117,-151,-175,-136,-73,-58
14,24,9,-19,2,17,-107,-156,-185,-151,-87,-68
24,24,0,-24,12,12,-112,-161,-204,-165,-87,-68
24,19,-4,-21,14,7,-112,-170,-214,-175,-97,-68
24,14,-9,-19,17,2,-107,-180,-229,-180,-102,-78
9,-9,-19,0,14,-14,-102,-175,-234,-185,-107,-68
4,-19,-24,7,14,-21,-97,-170,-229,-185,-117,-73
0,-29,-29,14,14,-29,-82,-165,-224,-180,-117,-73
-14,-48,-34,31,9,-41,-63,-151,-214,-180,-117,-78
-34,-48,-14,41,-9,-31,-58,-156,-204,-175,-122,-92
-39,-63,-24,51,-7,-43,-43,-156,-204,-175,-126,-112
-53,-78,-24,65,-14,-51,-34,-156,-204,-185,-141,-122
-63,-87,-24,75,-19,-56,-34,-156,-209,-185,-146,-126
-53,-97,-43,75,-4,-70,-39,-156,-224,-204,-136,-117
-48,-97,-48,73,0,-73,-43,-161,-234,-214,-151,-117
-48,-102,-53,75,2,-78,-48,-175,-248,-229,-161,-136
-43,-112,-68,78,12,-90,-48,-175,-258,-239,-170,-151
-48,-126,-78,87,14,-102,-48,-190,-278,-248,-190,-151
-48,-136,-87,92,19,-112,-53,-190,-283,-253,-190,-165
-53,-136,-82,95,14,-109,-58,-195,-292,-263,-200,-170
-63,-141,-78,102,7,-109,-63,-195,-297,-273,-209,-180
-58,-146,-87,102,14,-117,-53,-185,-297,-263,-204,-175
-63,-151,-87,107,12,-119,-53,-185,-292,-268,-204,-175
-58,-151,-92,104,17,-122,-53,-185,-287,-273,-204,-175
-58,-151,-92,104,17,-122,-53,-195,-292,-273,-204,-180
-63,-141,-78,102,7,-109,-63,-204,-302,-283,-214,-195
-63,-141,-78,102,7,-109,-63,-200,-297,-283,-219,-195
-68,-141,-73,104,2,-107,-58,-200,-297,-283,-229,-195
-73,-141,-68,107,-2,-104,-58,-195,-297,-283,-239,-195
-68,-156,-87,112,9,-122,-48,-185,-297,-278,-224,-195
-63,-165,-102,114,19,-134,-48,-190,-292,-273,-219,-195
-58,-170,-112,114,26,-141,-48,-190,-283,-268,-214,-195
-53,-175,-122,114,34,-148,-48,-190,-278,-263,-214,-195
-68,-170,-102,119,17,-136,-58,-200,-297,-263,-224,-195
-68,-165,-97,117,14,-131,-58,-200,-297,-268,-229,-204
-63,-161,-97,112,17,-129,-58,-200,-292,-268,-229,-204
-63,-161,-97,112,17,-129,-53,-200,-292,-268,-224,-204
-53,-165,-112,109,29,-139,-48,-190,-283,-268,-219,-190
-58,-170,-112,114,26,-141,-43,-185,-283,-268,-219,-190
-58,-170,-112,114,26,-141,-39,-185,-283,-268,-214,-190
-58,-175,-117,117,29,-146,-34,-180,-283,-273,-214,-190
-68,-175,-107,122,19,-141,-43,-190,-292,-283,-219,-200
-68,-175,-107,122,19,-141,-43,-185,-292,-283,-224,-200
-68,-180,-112,124,21,-146,-43,-185,-292,-283,-224,-200
-68,-180,-112,124,21,-146,-39,-185,-287,-278,-229,-200
-48,-170,-122,109,36,-146,-29,-180,-278,-268,-219,-204
-39,-180,-141,109,51,-161,-29,-170,-278,-268,-219,-204
-53,-190,-136,122,41,-163,-29,-161,-287,-268,-219,-209
-63,-190,-126,126,31,-158,-24,-165,-292,-273,-239,-224
-68,-209,-141,139,36,-175,-9,-156,-292,-278,-263,-248
-82,-253,-170,168,43,-212,34,-122,-278,-302,-322,-307
-107,-307,-200,207,46,-253,102,-87,-278,-346,-405,-395
-136,-375,-239,256,51,-307,185,-24,-253,-370,-483,-497
-141,-419,-278,280,68,-348,283,53,-214,-380,-556,-570
-146,-429,-283,287,68,-356,341,92,-190,-400,-600,-634
-151,-453,-302,302,75,-378,385,117,-151,-390,-619,-658
-161,-473,-312,317,75,-392,409,151,-112,-361,-600,-639
-151,-444,-292,297,70,-368,395,156,-107,-356,-600,-610
-117,-400,-283,258,82,-341,366,180,-102,-331,-570,-580
-68,-346,-278,207,104,-312,361,248,-19,-244,-488,-492
-9,-253,-244,131,117,-248,351,346,122,-97,-346,-366
53,-146,-200,46,126,-173,341,448,283,53,-165,-224
117,-39,-156,-39,136,-97,322,551,434,219,39,-63
180,126,-53,-153,117,36,283,649,629,429,273,146
239,331,92,-285,73,212,234,756,868,688,556,385
292,492,200,-392,46,346,165,824,1078,956,858,639
341,673,331,-507,4,502,53,766,1166,1156,1161,922
390,902,512,-646,-61,707,-122,610,1185,1332,1459,1195
439,1137,697,-788,-129,917,-341,414,1190,1532,1830,1537
463,1381,917,-922,-226,1149,-556,190,1205,1771,2239,1912
488,1527,1039,-1007,-275,1283,-702,43,1176,1917,2508,2161
531,1483,951,-1007,-209,1217,-800,-48,1034,1864,2537,2196
556,1390,834,-973,-139,1112,-868,-161,800,1708,2430,2156
527,1351,824,-939,-148,1088,-888,-268,658,1571,2278,2083
444,1327,883,-885,-219,1105,-824,-366,595,1434,2039,1927
317,1234,917,-775,-300,1076,-707,-536,414,1141,1595,1625
156,1088,932,-622,-387,1010,-600,-810,39,673,1039,1224
-4,990,995,-492,-500,993,-556,-1137,-390,234,610,927
-97,897,995,-400,-546,946,-566,-1293,-683,-63,351,751
-82,736,819,-326,-451,778,-590,-1185,-775,-224,195,585
-43,502,546,-229,-295,524,-600,-995,-785,-312,87,414
-48,292,341,-122,-195,317,-531,-814,-805,-380,-19,258
-58,122,180,-31,-119,151,-419,-639,-766,-429,-122,122
-48,19,68,14,-58,43,-322,-458,-653,-429,-195,0
-39,-39,0,39,-19,-19,-268,-336,-556,-414,-234,-82
-14,-53,-39,34,12,-46,-239,-244,-439,-346,-204,-102
4,-24,-29,9,17,-26,-214,-190,-326,-244,-146,-82
14,-9,-24,-2,19,-17,-170,-141,-224,-170,-102,-68
4,-24,-29,9,17,-26,-117,-112,-165,-126,-82,-58
0,-43,-43,21,21,-43,-92,-87,-136,-107,-82,-73
-14,-48,-34,31,9,-41,-73,-63,-117,-97,-78,-73
-14,-48,-34,31,9,-41,-53,-48,-107,-87,-78,-78
-24,-73,-48,48,12,-61,-39,-34,-92,-87,-87,-82
-34,-73,-39,53,2,-56,-24,-39,-87,-87,-102,-107
-24,-68,-43,46,9,-56,-19,-29,-97,-102,-112,-126
-14,-97,-82,56,34,-90,-4,-19,-92,-92,-112,-126
-19,-107,-87,63,34,-97,4,-14,-87,-102,-112,-136
-24,-112,-87,68,31,-100,9,-9,-87,-107,-122,-146
-29,-117,-87,73,29,-102,14,-4,-82,-112,-122,-151
-39,-126,-87,82,24,-107,24,-9,-92,-122,-131,-151
-39,-131,-92,85,26,-112,19,0,-92,-122,-136,-151
-39,-131,-92,85,26,-112,14,0,-92,-122,-136,-161
-34,-131,-97,82,31,-114,9,0,-87,-122,-141,-165
-24,-136,-112,80,43,-124,24,9,-78,-117,-131,-175
-29,-141,-112,85,41,-126,29,14,-73,-117,-131,-175
-29,-141,-112,85,41,-126,29,14,-73,-122,-136,-175
-34,-136,-102,85,34,-119,34,19,-73,-122,-141,-175
-43,-136,-92,90,24,-114,24,9,-82,-122,-151,-165
-39,-136,-97,87,29,-117,24,9,-82,-122,-146,-165
-39,-136,-97,87,29,-117,24,19,-73,-117,-141,-165
-39,-136,-97,87,29,-117,29,19,-68,-117,-141,-170
-24,-126,-102,75,39,-114,29,19,-58,-117,-151,-180
-24,-126,-102,75,39,-114,34,24,-53,-112,-146,-175
-24,-136,-112,80,43,-124,34,34,-48,-107,-146,-175
-24,-136,-112,80,43,-124,34,34,-48,-107,-141,-170
-34,-141,-107,87,36,-124,39,34,-48,-107,-141,-161
-39,-136,-97,87,29,-117,39,39,-43,-107,-141,-161
-39,-136,-97,87,29,-117,39,39,-39,-97,-141,-161
-24,-136,-112,80,43,-124,39,39,-29,-97,-141,-161
-14,-126,-112,70,48,-119,39,48,-29,-97,-131,-165
-19,-122,-102,70,41,-112,43,53,-24,-87,-126,-170
-24,-122,-97,73,36,-109,43,53,-19,-87,-126,-175
-24,-117,-92,70,34,-104,43,58,-19,-82,-126,-175
-24,-126,-102,75,39,-114,43,58,-19,-82,-131,-170
-24,-126,-102,75,39,-114,43,58,-9,-78,-131,-165
-19,-126,-107,73,43,-117,43,68,-4,-73,-131,-161
-19,-126,-107,73,43,-117,48,68,0,-73,-126,-151
-24,-112,-87,68,31,-100,48,78,4,-73,-112,-161
-19,-102,-82,61,31,-92,48,78,9,-63,-112,-161
-19,-102,-82,61,31,-92,48,78,14,-58,-112,-156
-24,-102,-78,63,26,-90,48,87,14,-58,-107,-151
-29,-107,-78,68,24,-92,53,92,24,-58,-107,-136
-29,-112,-82,70,26,-97,53,92,29,-43,-107,-136
-24,-107,-82,65,29,-95,53,92,34,-43,-102,-141
-24,-102,-78,63,26,-90,53,102,39,-43,-102,-141
-14,-107,-92,61,39,-100,43,97,43,-24,-97,-146
-9,-102,-92,56,41,-97,53,102,58,-19,-87,-146
-9,-97,-87,53,39,-92,53,112,58,-14,-87,-146
-9,-92,-82,51,36,-87,53,117,63,-9,-87,-151
-14,-87,-73,51,29,-80,53,126,78,-4,-73,-141
-14,-92,-78,53,31,-85,53,131,87,0,-73,-136
-14,-87,-73,51,29,-80,53,131,92,4,-68,-126
-9,-82,-73,46,31,-78,53,131,97,4,-68,-122
-9,-78,-68,43,29,-73,53,141,107,24,-68,-122
-9,-73,-63,41,26,-68,58,151,122,34,-63,-122
-4,-68,-63,36,29,-65,58,156,122,39,-58,-122
-4,-58,-53,31,24,-56,58,156,126,43,-58,-112
-4,-58,-53,31,24,-56,53,146,126,39,-58,-122
-4,-58,-53,31,24,-56,53,161,136,48,-48,-117
-4,-48,-43,26,19,-46,53,165,141,53,-43,-112
-4,-48,-43,26,19,-46,53,170,156,58,-39,-112
-4,-48,-43,26,19,-46,58,165,165,63,-34,-102
-4,-39,-34,21,14,-36,58,175,170,68,-29,-97
0,-34,-34,17,17,-34,63,180,185,73,-24,-97
0,-29,-29,14,14,-29,63,185,190,78,-19,-87
0,-39,-39,19,19,-39,78,200,209,102,-9,-73
0,-34,-34,17,17,-34,78,200,214,112,-4,-73
0,-24,-24,12,12,-24,73,214,229,126,9,-68
0,-19,-19,9,9,-19,73,219,239,141,19,-63
0,-19,-19,9,9,-19,73,214,244,141,19,-73
0,-14,-14,7,7,-14,78,229,263,151,24,-68
4,-9,-14,2,9,-12,78,239,268,165,29,-58
4,-4,-9,0,7,-7,78,248,287,175,34,-53
14,4,-9,-9,12,-2,78,263,297,185,48,-48
14,14,0,-14,7,7,78,268,312,195,58,-43
14,24,9,-19,2,17,82,283,317,204,73,-39
14,34,19,-24,-2,26,82,292,336,219,73,-34
14,34,19,-24,-2,26,82,297,351,229,82,-29
14,43,29,-29,-7,36,87,307,370,239,92,-29
14,43,29,-29,-7,36,87,317,385,253,102,-14
14,53,39,-34,-12,46,87,331,400,268,112,-9
19,68,48,-43,-14,58,102,351,429,297,122,4
24,78,53,-51,-14,65,102,361,444,312,131,9
29,78,48,-53,-9,63,107,370,463,326,156,24
34,87,53,-61,-9,70,107,385,478,341,170,24
29,102,73,-65,-21,87,97,390,492,346,161,29
34,117,82,-75,-24,100,97,395,512,361,175,39
39,117,78,-78,-19,97,92,405,527,375,190,48
39,131,92,-85,-26,112,92,414,541,390,200,58
48,131,82,-90,-17,107,107,434,556,409,219,73
48,146,97,-97,-24,122,112,448,585,429,229,87
48,151,102,-100,-26,126,117,458,610,453,244,97
48,151,102,-100,-26,126,117,478,634,473,263,107
48,180,131,-114,-41,156,107,483,653,488,278,122
58,195,136,-126,-39,165,107,488,668,502,287,131
53,204,151,-129,-48,178,112,502,692,522,307,141
48,219,170,-134,-61,195,112,512,712,541,322,151
53,244,190,-148,-68,217,117,517,732,566,336,161
63,258,195,-161,-65,226,117,536,746,585,346,175
68,268,200,-168,-65,234,112,541,761,600,361,185
78,283,204,-180,-63,244,112,546,780,614,366,195
73,292,219,-183,-73,256,102,551,795,639,380,219
78,307,229,-192,-75,268,102,566,819,653,405,229
78,317,239,-197,-80,278,107,575,839,668,434,244
73,322,248,-197,-87,285,112,585,854,683,453,258
78,346,268,-212,-95,307,112,585,878,697,463,263
87,366,278,-226,-95,322,102,585,883,702,468,278
92,385,292,-239,-100,339,102,590,888,712,478,287
97,395,297,-246,-100,346,97,590,902,722,492,302
92,400,307,-246,-107,353,82,580,902,732,502,317
92,400,307,-246,-107,353,78,580,902,741,512,326
97,405,307,-251,-104,356,73,580,902,741,522,341
107,409,302,-258,-97,356,73,580,902,741,531,356
107,414,307,-261,-100,361,73,566,902,741,541,356
107,429,322,-268,-107,375,58,561,893,741,546,370
112,439,326,-275,-107,383,53,546,878,736,551,380
112,453,341,-283,-114,397,43,536,863,732,556,385
107,458,351,-283,-122,405,34,507,844,712,551,390
102,458,356,-280,-126,407,24,492,824,702,546,395
107,453,346,-280,-119,400,19,483,805,697,546,400
92,448,356,-270,-131,402,14,453,771,678,541,400
102,444,341,-273,-119,392,9,439,741,663,551,390
107,434,326,-270,-109,380,-4,419,712,644,541,390
107,424,317,-265,-104,370,-9,395,678,614,531,390
97,405,307,-251,-104,356,-14,366,639,590,522,390
82,400,317,-241,-117,358,-34,331,595,556,488,370
78,395,317,-236,-119,356,-43,297,551,522,468,366
78,380,302,-229,-112,341,-48,278,512,492,448,346
73,356,283,-214,-104,319,-53,239,473,453,419,331
73,336,263,-204,-95,300,-53,219,434,409,400,312
68,302,234,-185,-82,268,-53,195,400,380,380,297
58,283,224,-170,-82,253,-53,170,361,346,351,268
48,258,209,-153,-80,234,-53,146,322,312,322,244
29,229,200,-129,-85,214,-53,122,278,278,283,234
24,204,180,-114,-78,192,-53,102,244,244,258,209
19,180,161,-100,-70,170,-48,87,204,214,239,185
19,165,146,-92,-63,156,-43,68,175,185,214,165
29,141,112,-85,-41,126,-34,48,146,161,190,131
19,107,87,-63,-34,97,-29,34,122,131,165,117
9,82,73,-46,-31,78,-29,29,107,112,146,102
4,63,58,-34,-26,61,-34,9,82,87,126,82
0,68,68,-34,-34,68,-43,-19,43,43,92,53
-9,63,73,-26,-41,68,-43,-29,14,24,68,39
-9,48,58,-19,-34,53,-39,-39,-4,4,53,24
-9,34,43,-12,-26,39,-34,-48,-24,-9,34,4
-14,14,29,0,-21,21,-24,-53,-39,-29,24,-14
-19,0,19,9,-19,9,-24,-58,-48,-39,14,-29
-19,-14,4,17,-12,-4,-24,-68,-68,-53,0,-39
-24,-19,4,21,-14,-7,-24,-78,-82,-68,-14,-48
-24,-19,4,21,-14,-7,-24,-87,-87,-73,-29,-53
-29,-34,-4,31,-12,-19,-24,-97,-97,-82,-43,-58
-34,-53,-19,43,-7,-36,-24,-97,-102,-87,-48,-58
-34,-58,-24,46,-4,-41,-24,-97,-107,-97,-48,-63
-34,-48,-14,41,-9,-31,-24,-92,-117,-102,-63,-82
-34,-48,-14,41,-9,-31,-24,-97,-126,-112,-68,-82
-34,-53,-19,43,-7,-36,-24,-102,-126,-117,-68,-87
-34,-68,-34,51,0,-51,-19,-107,-131,-117,-73,-87
-43,-73,-29,58,-7,-51,-19,-112,-146,-131,-87,-102
-43,-73,-29,58,-7,-51,-24,-117,-151,-131,-92,-107
-43,-73,-29,58,-7,-51,-24,-117,-161,-131,-92,-112
-43,-78,-34,61,-4,-56,-24,-117,-161,-131,-92,-112
-43,-92,-48,68,2,-70,-19,-112,-156,-141,-102,-117
-39,-92,-53,65,7,-73,-19,-112,-156,-146,-102,-122
-39,-82,-43,61,2,-63,-19,-112,-165,-151,-102,-126
-39,-82,-43,61,2,-63,-19,-122,-165,-151,-112,-126
-39,-92,-53,65,7,-73,-19,-122,-156,-151,-102,-112
-43,-92,-48,68,2,-70,-19,-117,-156,-151,-107,-112
-43,-92,-48,68,2,-70,-19,-117,-156,-151,-107,-122
-39,-102,-63,70,12,-82,-19,-117,-156,-151,-107,-122
-43,-102,-58,73,7,-80,-19,-117,-165,-141,-117,-131
-39,-102,-63,70,12,-82,-19,-117,-165,-146,-117,-131
-39,-102,-63,70,12,-82,-19,-117,-175,-146,-117,-136
-43,-102,-58,73,7,-80,-19,-117,-165,-146,-117,-136
-43,-102,-58,73,7,-80,-9,-107,-156,-146,-107,-131
-43,-102,-58,73,7,-80,-9,-107,-156,-146,-112,-131
-39,-107,-68,73,14,-87,-9,-107,-161,-146,-117,-126
-29,-107,-78,68,24,-92,-9,-107,-161,-146,-117,-126
-43,-107,-63,75,9,-85,-9,-117,-170,-156,-126,-136
-48,-102,-53,75,2,-78,-9,-117,-170,-156,-126,-141
-53,-102,-48,78,-2,-75,-4,-117,-170,-156,-122,-141
-58,-102,-43,80,-7,-73,-4,-117,-165,-156,-122,-136
-53,-102,-48,78,-2,-75,-4,-117,-165,-156,-117,-141
-53,-102,-48,78,-2,-75,-4,-117,-165,-156,-117,-141
-48,-97,-48,73,0,-73,-4,-117,-165,-156,-122,-146
-39,-97,-58,68,9,-78,-9,-117,-165,-156,-126,-146
-48,-107,-58,78,4,-82,-19,-117,-165,-156,-126,-141
-48,-107,-58,78,4,-82,-14,-117,-165,-156,-126,-141
-48,-112,-63,80,7,-87,-14,-117,-165,-156,-126,-141
-43,-112,-68,78,12,-90,-14,-112,-165,-156,-122,-136
-34,-97,-63,65,14,-80,-4,-112,-156,-156,-122,-146
-39,-97,-58,68,9,-78,-4,-112,-156,-156,-122,-146
-43,-97,-53,70,4,-75,-4,-117,-156,-156,-126,-146
-43,-92,-48,68,2,-70,-4,-117,-156,-156,-126,-146
-48,-92,-43,70,-2,-68,-14,-126,-165,-165,-136,-146
-48,-97,-48,73,0,-73,-14,-122,-161,-165,-131,-146
-48,-97,-48,73,0,-73,-9,-122,-161,-165,-131,-151
-43,-97,-53,70,4,-75,-9,-122,-161,-161,-131,-151
-34,-97,-63,65,14,-80,0,-117,-151,-151,-122,-151
-43,-97,-53,70,4,-75,-9,-112,-151,-151,-126,-151
-43,-92,-48,68,2,-70,-9,-112,-156,-161,-126,-151
-39,-92,-53,65,7,-73,-4,-107,-156,-161,-126,-151
-48,-112,-63,80,7,-87,-14,-112,-165,-156,-136,-141
-48,-102,-53,75,2,-78,-14,-117,-165,-156,-136,-141
-48,-102,-53,75,2,-78,-14,-117,-161,-156,-136,-141
-43,-107,-63,75,9,-85,-14,-122,-161,-151,-131,-141
-39,-97,-58,68,9,-78,-9,-112,-161,-151,-126,-146
-39,-97,-58,68,9,-78,-9,-112,-161,-156,-126,-146
-39,-97,-58,68,9,-78,-4,-112,-161,-156,-126,-146
-34,-97,-63,65,14,-80,0,-117,-165,-156,-122,-146
-39,-97,-58,68,9,-78,-4,-126,-175,-165,-122,-146
-39,-97,-58,68,9,-78,-9,-126,-175,-165,-126,-156
-43,-92,-48,68,2,-70,-9,-126,-175,-170,-131,-156
-43,-92,-48,68,2,-70,-14,-126,-175,-170,-136,-156
-34,-92,-58,63,12,-75,-4,-117,-170,-161,-126,-161
-39,-92,-53,65,7,-73,-4,-117,-165,-161,-126,-161
-39,-92,-53,65,7,-73,-4,-117,-161,-161,-126,-161
-39,-92,-53,65,7,-73,-9,-117,-156,-161,-131,-161
-43,-92,-48,68,2,-70,-14,-131,-165,-170,-141,-161
-48,-92,-43,70,-2,-68,-19,-131,-170,-170,-141,-161
-53,-92,-39,73,-7,-65,-24,-126,-175,-170,-141,-161
-53,-97,-43,75,-4,-70,-29,-126,-180,-170,-141,-161
-48,-112,-63,80,7,-87,-24,-122,-170,-161,-126,-156
-43,-112,-68,78,12,-90,-19,-122,-170,-161,-126,-156
-39,-112,-73,75,17,-92,-14,-122,-170,-161,-131,-151
-43,-112,-68,78,12,-90,-9,-117,-180,-165,-131,-151
-53,-97,-43,75,-4,-70,-24,-126,-180,-165,-141,-141
-48,-97,-48,73,0,-73,-24,-126,-180,-165,-141,-141
-43,-97,-53,70,4,-75,-19,-122,-180,-165,-141,-141
-43,-102,-58,73,7,-80,-19,-122,-180,-165,-141,-146
-34,-102,-68,68,17,-85,-19,-122,-180,-180,-131,-165
-34,-97,-63,65,14,-80,-19,-126,-180,-180,-136,-165
-34,-97,-63,65,14,-80,-19,-126,-180,-180,-136,-156
-34,-97,-63,65,14,-80,-24,-126,-180,-180,-136,-151
-43,-102,-58,73,7,-80,-24,-122,-190,-170,-126,-141
-43,-107,-63,75,9,-85,-24,-122,-190,-170,-126,-146
-39,-117,-78,78,19,-97,-24,-122,-190,-170,-126,-151
-34,-122,-87,78,26,-104,-24,-122,-190,-175,-131,-151
-34,-117,-82,75,24,-100,-24,-126,-180,-175,-141,-161
-34,-112,-78,73,21,-95,-19,-126,-180,-175,-141,-161
-39,-107,-68,73,14,-87,-19,-131,-185,-175,-141,-156
-39,-107,-68,73,14,-87,-24,-136,-185,-180,-141,-156
-39,-107,-68,73,14,-87,-24,-136,-195,-190,-141,-146
-39,-107,-68,73,14,-87,-24,-131,-195,-190,-141,-146
-39,-112,-73,75,17,-92,-24,-131,-195,-190,-141,-146
-39,-112,-73,75,17,-92,-24,-131,-195,-190,-141,-156
-39,-122,-82,80,21,-102,-24,-136,-195,-190,-151,-161
-34,-122,-87,78,26,-104,-24,-136,-204,-195,-151,-165
-34,-117,-82,75,24,-100,-24,-136,-204,-200,-151,-165
-43,-117,-73,80,14,-95,-24,-141,-209,-200,-161,-170
-43,-117,-73,80,14,-95,-34,-141,-209,-190,-151,-161
-39,-117,-78,78,19,-97,-34,-141,-209,-190,-151,-161
-39,-117,-78,78,19,-97,-29,-141,-209,-190,-151,-161
-39,-122,-82,80,21,-102,-29,-141,-204,-190,-151,-165
-29,-122,-92,75,31,-107,-29,-141,-204,-190,-141,-161
-29,-117,-87,73,29,-102,-29,-141,-209,-190,-141,-170
-29,-117,-87,73,29,-102,-29,-141,-209,-195,-141,-161
-34,-126,-92,80,29,-109,-29,-141,-209,-195,-141,-156
-34,-117,-82,75,24,-100,-34,-141,-200,-204,-156,-151
-34,-112,-78,73,21,-95,-34,-146,-204,-204,-156,-151
-34,-112,-78,73,21,-95,-29,-146,-204,-204,-156,-161
-34,-112,-78,73,21,-95,-29,-146,-204,-204,-156,-165
-39,-122,-82,80,21,-102,-29,-146,-214,-200,-156,-175
-39,-122,-82,80,21,-102,-29,-146,-214,-200,-156,-180
-39,-131,-92,85,26,-112,-29,-146,-214,-195,-151,-180
-39,-122,-82,80,21,-102,-29,-156,-214,-195,-151,-180
-29,-117,-87,73,29,-102,-24,-146,-219,-200,-161,-170
-34,-122,-87,78,26,-104,-24,-146,-224,-200,-161,-170
-34,-136,-102,85,34,-119,-24,-141,-224,-204,-161,-170
-34,-141,-107,87,36,-124,-24,-141,-219,-204,-161,-170
-39,-131,-92,85,26,-112,-34,-151,-219,-204,-161,-170
-39,-136,-97,87,29,-117,-34,-141,-219,-204,-156,-170
-34,-136,-102,85,34,-119,-29,-141,-219,-200,-156,-170
-48,-136,-87,92,19,-112,-29,-141,-219,-200,-156,-170
-39,-141,-102,90,31,-122,-29,-146,-214,-204,-151,-180
-39,-136,-97,87,29,-117,-29,-146,-219,-209,-156,-180
-39,-136,-97,87,29,-117,-24,-146,-219,-209,-156,-180
-39,-136,-97,87,29,-117,-24,-146,-219,-214,-156,-180
-48,-126,-78,87,14,-102,-29,-156,-229,-214,-170,-185
-43,-126,-82,85,19,-104,-34,-156,-229,-214,-170,-190
-43,-126,-82,85,19,-104,-39,-156,-229,-214,-170,-190
-43,-122,-78,82,17,-100,-43,-156,-229,-209,-170,-185
-34,-131,-97,82,31,-114,-34,-156,-229,-209,-156,-185
-34,-126,-92,80,29,-109,-34,-156,-229,-214,-156,-185
-39,-126,-87,82,24,-107,-34,-156,-229,-214,-156,-185
-39,-126,-87,82,24,-107,-34,-156,-229,-214,-156,-180
-43,-136,-92,90,24,-114,-43,-165,-239,-224,-170,-180
-48,-136,-87,92,19,-112,-43,-165,-239,-224,-170,-180
-48,-126,-78,87,14,-102,-43,-165,-239,-224,-170,-190
-53,-126,-73,90,9,-100,-39,-165,-239,-224,-170,-190
-48,-136,-87,92,19,-112,-29,-161,-229,-214,-161,-180
-43,-136,-92,90,24,-114,-29,-151,-229,-214,-161,-180
-43,-146,-102,95,29,-124,-34,-146,-229,-214,-161,-175
-43,-146,-102,95,29,-124,-34,-146,-229,-214,-161,-175
-48,-141,-92,95,21,-117,-43,-151,-244,-224,-175,-180
-48,-131,-82,90,17,-107,-43,-156,-244,-224,-175,-185
-43,-126,-82,85,19,-104,-39,-161,-244,-219,-175,-190
-48,-122,-73,85,12,-97,-39,-165,-239,-219,-170,-195
-39,-131,-92,85,26,-112,-29,-156,-234,-219,-161,-185
-43,-131,-87,87,21,-109,-34,-156,-234,-219,-156,-185
-43,-126,-82,85,19,-104,-34,-151,-234,-219,-156,-185
-43,-126,-82,85,19,-104,-34,-151,-239,-219,-161,-185
-53,-136,-82,95,14,-109,-34,-165,-239,-229,-165,-195
-53,-131,-78,92,12,-104,-34,-165,-244,-229,-165,-190
-53,-131,-78,92,12,-104,-34,-165,-244,-229,-170,-185
-53,-131,-78,92,12,-104,-34,-165,-239,-229,-175,-185
-48,-122,-73,85,12,-97,-34,-156,-239,-229,-175,-200
-43,-117,-73,80,14,-95,-34,-156,-239,-229,-175,-204
-39,-117,-78,78,19,-97,-34,-156,-239,-229,-175,-204
-34,-126,-92,80,29,-109,-34,-156,-234,-229,-170,-200
-34,-141,-107,87,36,-124,-43,-156,-234,-214,-161,-190
-39,-131,-92,85,26,-112,-43,-151,-234,-214,-165,-190
-48,-146,-97,97,24,-122,-39,-151,-234,-214,-170,-190
-53,-151,-97,102,21,-124,-39,-151,-239,-219,-170,-190
-48,-141,-92,95,21,-117,-29,-151,-248,-229,-165,-200
-43,-131,-87,87,21,-109,-29,-151,-244,-224,-165,-200
-39,-126,-87,82,24,-107,-29,-151,-244,-219,-165,-195
-29,-126,-97,78,34,-112,-29,-151,-234,-219,-156,-190
-34,-131,-97,82,31,-114,-34,-161,-244,-229,-161,-190
-43,-131,-87,87,21,-109,-34,-165,-244,-229,-165,-190
-48,-131,-82,90,17,-107,-39,-165,-244,-224,-170,-190
-48,-131,-82,90,17,-107,-39,-161,-239,-224,-175,-185
-43,-131,-87,87,21,-109,-29,-156,-234,-224,-175,-195
-34,-131,-97,82,31,-114,-29,-156,-234,-224,-170,-190
-29,-126,-97,78,34,-112,-24,-156,-234,-219,-165,-185
-29,-126,-97,78,34,-112,-24,-156,-244,-219,-165,-190
-34,-141,-107,87,36,-124,-24,-156,-244,-219,-165,-180
-34,-146,-112,90,39,-129,-24,-156,-239,-219,-175,-180
-39,-151,-112,95,36,-131,-24,-156,-234,-219,-165,-195
-43,-156,-112,100,34,-134,-29,-156,-234,-219,-165,-195
-34,-131,-97,82,31,-114,-29,-146,-244,-219,-170,-204
-39,-117,-78,78,19,-97,-29,-156,-239,-224,-170,-214
-29,-117,-87,73,29,-102,-24,-156,-224,-214,-161,-204
-19,-117,-97,68,39,-107,-24,-156,-224,-209,-151,-195
-29,-117,-87,73,29,-102,-19,-146,-224,-204,-156,-185
-39,-112,-73,75,17,-92,-19,-156,-224,-204,-165,-185
-39,-107,-68,73,14,-87,-19,-156,-224,-204,-165,-185
-39,-102,-63,70,12,-82,-19,-156,-224,-204,-165,-185
-39,-97,-58,68,9,-78,-19,-156,-224,-204,-165,-185
-39,-87,-48,63,4,-68,-9,-131,-209,-190,-151,-175
-34,-73,-39,53,2,-56,4,-126,-190,-175,-131,-165
-24,-58,-34,41,4,-46,19,-122,-170,-156,-117,-151
-19,-48,-29,34,4,-39,24,-112,-156,-141,-102,-146
-29,-29,0,29,-14,-14,9,-112,-156,-141,-107,-146
-29,-29,0,29,-14,-14,14,-117,-156,-146,-112,-141
-34,-29,4,31,-19,-12,14,-117,-156,-151,-112,-141
-43,-29,14,36,-29,-7,19,-117,-156,-146,-107,-131
-34,-29,4,31,-19,-12,34,-107,-141,-131,-102,-141
-29,-24,4,26,-17,-9,39,-102,-136,-126,-102,-141
-19,-24,-4,21,-7,-14,53,-92,-131,-122,-102,-141
