I,II,III,aVR,aVL,aVF,V1,V2,V3,V4,V5,V6,
-73,-107,-34,90,-19,-70,-4,-58,-92,-122,-97,-82
-73,-112,-39,92,-17,-75,-4,-58,-82,-117,-97,-82
-73,-112,-39,92,-17,-75,-4,-58,-78,-112,-97,-87
-82,-117,-34,100,-24,-75,-4,-53,-78,-112,-97,-87
-92,-126,-34,109,-29,-80,0,-48,-78,-117,-102,-87
-92,-126,-34,109,-29,-80,0,-48,-73,-117,-102,-87
-92,-126,-34,109,-29,-80,0,-48,-73,-112,-102,-82
-92,-126,-34,109,-29,-80,0,-58,-78,-112,-102,-82
-97,-131,-34,114,-31,-82,4,-63,-78,-112,-102,-87
-87,-146,-58,117,-14,-102,34,-4,-68,-141,-126,-112
-68,-141,-73,104,2,-107,43,39,-43,-141,-141,-117
-73,-117,-43,95,-14,-80,34,19,-19,-122,-122,-117
-53,-68,-14,61,-19,-41,39,58,53,-48,-68,-87
4,-34,-39,14,21,-36,107,209,229,92,29,-19
73,19,-53,-46,63,-17,170,361,395,258,151,68
146,204,58,-175,43,131,234,488,649,507,351,219
224,414,190,-319,17,302,195,478,722,732,575,419
361,663,302,-512,29,483,-97,219,458,927,873,732
414,771,356,-592,29,563,-400,-161,34,858,932,873
346,712,366,-529,-9,539,-707,-629,-522,522,736,819
287,488,200,-387,43,344,-844,-902,-902,122,419,605
146,-43,-190,-51,168,-117,-819,-1054,-1288,-458,-73,229
9,-326,-336,158,173,-331,-766,-1098,-1429,-751,-336,14
-19,-326,-307,173,143,-317,-644,-888,-1200,-663,-292,-4
-34,-307,-273,170,119,-290,-488,-629,-922,-570,-273,-58
-19,-190,-170,104,75,-180,-258,-331,-551,-380,-200,-68
-9,-146,-136,78,63,-141,-107,-136,-326,-258,-151,-78
-9,-146,-136,78,63,-141,-53,-58,-239,-219,-146,-92
-9,-146,-136,78,63,-141,-4,4,-165,-190,-136,-92
-24,-141,-117,82,46,-129,24,34,-92,-146,-122,-92
-39,-131,-92,85,26,-112,39,48,-43,-117,-102,-92
-48,-117,-68,82,9,-92,39,39,-43,-107,-97,-82
-48,-107,-58,78,4,-82,39,29,-43,-107,-92,-78
-48,-102,-53,75,2,-78,43,39,-19,-102,-92,-78
-53,-102,-48,78,-2,-75,58,53,4,-92,-92,-78
-53,-97,-43,75,-4,-70,58,53,4,-82,-82,-78
-48,-97,-48,73,0,-73,53,53,0,-78,-78,-78
-48,-97,-48,73,0,-73,53,53,0,-78,-82,-78
-58,-102,-43,80,-7,-73,58,53,9,-73,-82,-78
-63,-107,-43,85,-9,-75,58,63,9,-68,-78,-78
-63,-107,-43,85,-9,-75,58,63,4,-68,-78,-73
-63,-107,-43,85,-9,-75,58,63,9,-68,-78,-73
-63,-107,-43,85,-9,-75,63,68,14,-68,-73,-73
-58,-92,-34,75,-12,-63,68,73,19,-63,-73,-68
-53,-87,-34,70,-9,-61,73,73,24,-58,-68,-63
-43,-87,-43,65,0,-65,73,78,29,-58,-68,-63
-43,-87,-43,65,0,-65,73,82,29,-58,-68,-58
-48,-82,-34,65,-7,-58,68,87,34,-53,-68,-58
-48,-82,-34,65,-7,-58,68,87,39,-53,-63,-58
-48,-78,-29,63,-9,-53,68,87,39,-48,-63,-53
-39,-73,-34,56,-2,-53,68,92,43,-43,-58,-53
-39,-68,-29,53,-4,-48,68,102,53,-39,-53,-48
-39,-68,-29,53,-4,-48,68,102,58,-43,-53,-48
-43,-73,-29,58,-7,-51,68,102,53,-43,-48,-48
-48,-73,-24,61,-12,-48,68,107,58,-39,-48,-48
-48,-73,-24,61,-12,-48,68,117,68,-34,-43,-48
-43,-63,-19,53,-12,-41,68,126,78,-24,-43,-43
-34,-58,-24,46,-4,-41,73,136,82,-14,-34,-39
-34,-53,-19,43,-7,-36,82,151,97,-9,-34,-39
-29,-53,-24,41,-2,-39,82,161,102,0,-29,-29
-29,-48,-19,39,-4,-34,82,170,112,4,-24,-24
-19,-48,-29,34,4,-39,82,185,122,4,-19,-24
-14,-43,-29,29,7,-36,87,195,131,14,-9,-19
-4,-34,-29,19,12,-31,87,209,151,29,0,-9
0,-29,-29,14,14,-29,92,224,161,43,4,0
9,-19,-29,4,19,-24,92,244,175,53,19,9
19,-4,-24,-7,21,-14,92,268,185,73,34,14
29,9,-19,-19,24,-4,92,273,204,102,58,29
48,34,-14,-41,31,9,92,292,224,122,68,43
63,58,-4,-61,34,26,87,312,248,136,92,58
78,73,-4,-75,41,34,87,331,263,151,112,82
82,87,4,-85,39,46,82,346,287,175,126,102
92,107,14,-100,39,61,78,361,297,200,151,122
97,131,34,-114,31,82,73,366,307,219,165,131
107,146,39,-126,34,92,68,380,322,229,180,141
107,156,48,-131,29,102,63,385,326,244,190,156
117,161,43,-139,36,102,53,390,336,273,209,175
122,180,58,-151,31,119,48,395,341,283,219,190
122,185,63,-153,29,124,39,400,346,287,229,200
131,204,73,-168,29,139,43,390,351,307,244,214
141,219,78,-180,31,148,39,375,346,317,248,224
136,229,92,-183,21,161,29,346,331,307,253,229
131,224,92,-178,19,158,24,317,302,287,244,219
102,200,97,-151,2,148,14,292,268,263,224,204
82,175,92,-129,-4,134,9,248,234,234,195,180
63,146,82,-104,-9,114,9,209,200,209,170,165
53,122,68,-87,-7,95,9,175,165,165,146,141
34,92,58,-63,-12,75,9,151,136,126,112,112
14,63,48,-39,-17,56,9,117,102,92,82,87
-19,29,48,-4,-34,39,9,92,78,68,58,63
-34,9,43,12,-39,26,9,82,53,39,39,43
-24,14,39,4,-31,26,9,68,39,19,24,39
-24,4,29,9,-26,17,14,63,29,0,4,29
-34,-24,9,29,-21,-7,19,48,9,-19,-9,19
-43,-39,4,41,-24,-17,19,43,0,-34,-19,4
-53,-48,4,51,-29,-21,24,34,-9,-43,-29,0
-63,-68,-4,65,-29,-36,24,29,-19,-48,-34,-4
-68,-73,-4,70,-31,-39,24,24,-29,-48,-39,-9
-73,-78,-4,75,-34,-41,24,24,-29,-48,-43,-14
-82,-82,0,82,-41,-41,24,19,-29,-58,-43,-14
-92,-87,4,90,-48,-41,24,19,-29,-58,-43,-14
-73,-87,-14,80,-29,-51,24,19,-24,-58,-43,-14
-53,-82,-29,68,-12,-56,19,19,-19,-63,-43,-14
-53,-82,-29,68,-12,-56,19,19,-19,-73,-48,-19
-58,-87,-29,73,-14,-58,19,14,-29,-73,-48,-19
-63,-97,-34,80,-14,-65,14,14,-29,-73,-53,-24
-68,-97,-29,82,-19,-63,14,14,-29,-73,-53,-29
-68,-102,-34,85,-17,-68,14,9,-29,-73,-53,-29
-68,-107,-39,87,-14,-73,9,9,-29,-68,-53,-29
-78,-97,-19,87,-29,-58,14,9,-29,-63,-48,-19
-87,-97,-9,92,-39,-53,19,9,-29,-63,-48,-9
-78,-97,-19,87,-29,-58,24,9,-24,-63,-48,-9
-68,-97,-29,82,-19,-63,29,9,-19,-63,-48,-9
-63,-97,-34,80,-14,-65,29,14,-19,-63,-48,-9
-63,-97,-34,80,-14,-65,29,24,-19,-63,-48,-14
-63,-97,-34,80,-14,-65,29,24,-19,-68,-48,-19
-63,-97,-34,80,-14,-65,34,24,-24,-73,-48,-19
-78,-117,-39,97,-19,-78,29,19,-24,-73,-48,-19
-92,-126,-34,109,-29,-80,24,14,-24,-73,-48,-19
-82,-102,-19,92,-31,-61,24,14,-24,-53,-43,-9
-68,-73,-4,70,-31,-39,29,19,-19,-39,-39,-4
-63,-73,-9,68,-26,-41,29,19,-19,-53,-39,-9
-63,-73,-9,68,-26,-41,29,24,-19,-63,-39,-9
-68,-78,-9,73,-29,-43,34,24,-14,-63,-43,-14
-73,-102,-29,87,-21,-65,34,24,-14,-63,-48,-14
-73,-92,-19,82,-26,-56,34,24,-9,-63,-43,-14
-73,-82,-9,78,-31,-46,34,24,-9,-58,-39,-14
-73,-82,-9,78,-31,-46,34,24,-9,-53,-34,-9
-73,-78,-4,75,-34,-41,34,29,-9,-43,-29,-4
-78,-73,4,75,-41,-34,34,29,-9,-43,-29,-4
-78,-73,4,75,-41,-34,39,34,-9,-43,-29,-4
-78,-78,0,78,-39,-39,39,34,-4,-43,-34,0
-82,-78,4,80,-43,-36,39,34,-4,-43,-34,0
-82,-78,4,80,-43,-36,39,29,-4,-48,-34,0
-78,-78,0,78,-39,-39,43,29,-4,-48,-34,0
-78,-82,-4,80,-36,-43,43,29,0,-43,-29,0
-73,-82,-9,78,-31,-46,43,34,4,-43,-24,0
-73,-78,-4,75,-34,-41,39,34,9,-39,-19,0
-78,-78,0,78,-39,-39,39,34,9,-39,-19,4
-78,-78,0,78,-39,-39,39,29,9,-39,-24,4
-78,-78,0,78,-39,-39,34,24,9,-39,-24,0
-82,-87,-4,85,-39,-46,29,24,9,-43,-29,0
-82,-87,-4,85,-39,-46,29,24,0,-48,-29,0
-78,-87,-9,82,-34,-48,34,24,0,-43,-24,4
-73,-82,-9,78,-31,-46,39,19,0,-34,-19,9
-73,-78,-4,75,-34,-41,39,19,0,-34,-19,9
-68,-78,-9,73,-29,-43,39,24,4,-34,-19,9
-78,-87,-9,82,-34,-48,34,19,4,-34,-24,9
-92,-97,-4,95,-43,-51,34,14,0,-39,-29,9
-92,-102,-9,97,-41,-56,34,14,0,-39,-29,4
-92,-102,-9,97,-41,-56,29,14,0,-39,-29,4
-87,-92,-4,90,-41,-48,29,4,0,-39,-29,4
-82,-82,0,82,-41,-41,34,4,0,-43,-34,4
-78,-82,-4,80,-36,-43,34,4,0,-43,-34,4
-73,-87,-14,80,-29,-51,34,4,0,-43,-34,0
-78,-87,-9,82,-34,-48,34,4,0,-43,-34,0
-78,-87,-9,82,-34,-48,34,4,4,-43,-34,4
-92,-87,4,90,-48,-41,34,0,4,-43,-34,4
-107,-87,19,97,-63,-34,29,0,0,-43,-34,0
-107,-97,9,102,-58,-43,24,0,-9,-48,-39,-4
-107,-107,0,107,-53,-53,24,-4,-14,-48,-39,-4
-97,-97,0,97,-48,-48,24,0,-9,-48,-39,-4
-87,-87,0,87,-43,-43,29,0,-9,-48,-39,-9
-87,-82,4,85,-46,-39,34,4,-4,-39,-29,0
-87,-78,9,82,-48,-34,39,9,0,-29,-19,9
-87,-78,9,82,-48,-34,43,9,0,-29,-19,9
-82,-68,14,75,-48,-26,43,9,0,-24,-14,9
-82,-63,19,73,-51,-21,48,14,4,-24,-9,14
-78,-48,29,63,-53,-9,58,19,29,-14,4,29
-78,-34,43,56,-61,4,63,24,39,0,9,39
-78,-14,63,46,-70,24,63,29,48,9,24,48
-82,-14,68,48,-75,26,53,29,53,14,29,53
-87,-9,78,48,-82,34,43,29,58,24,29,58
-92,0,92,46,-92,46,34,24,58,24,29,68
-87,9,97,39,-92,53,29,24,73,34,39,73
-63,43,107,9,-85,75,29,29,82,53,53,82
-43,73,117,-14,-80,95,34,29,92,68,73,102
-43,82,126,-19,-85,104,9,19,87,68,78,102
-43,87,131,-21,-87,109,-4,14,82,68,78,107
-39,78,117,-19,-78,97,-9,9,73,63,78,107
-39,78,117,-19,-78,97,-14,0,63,58,73,102
-43,48,92,-2,-68,70,-14,0,39,39,53,92
-48,29,78,9,-63,53,-14,0,29,29,48,92
-53,24,78,14,-65,51,-19,-9,14,24,48,87
-53,9,63,21,-58,36,-24,-14,4,19,39,73
-48,0,48,24,-48,24,-24,-9,4,19,34,73
-48,-4,43,26,-46,19,-24,-9,0,14,34,73
-63,-9,53,36,-58,21,-14,-9,0,9,34,73
-73,-19,53,46,-63,17,-9,-14,0,9,34,68
-78,-4,73,41,-75,34,4,-14,4,9,34,82
-82,-14,68,48,-75,26,24,-14,-4,-9,9,73
-97,-92,4,95,-51,-43,29,-19,-29,-43,-34,14
-112,-131,-19,122,-46,-75,29,-29,-43,-63,-53,-19
-122,-146,-24,134,-48,-85,29,-34,-43,-73,-58,-19
-126,-151,-24,139,-51,-87,29,-34,-43,-78,-58,-19
-131,-146,-14,139,-58,-80,24,-29,-43,-78,-58,-19
-126,-136,-9,131,-58,-73,24,-29,-43,-73,-63,-14
-126,-141,-14,134,-56,-78,24,-29,-43,-73,-58,-14
-131,-146,-14,139,-58,-80,24,-29,-39,-73,-58,-14
-131,-141,-9,136,-61,-75,29,-29,-39,-73,-53,-19
-131,-141,-9,136,-61,-75,34,-24,-39,-73,-48,-19
-122,-136,-14,129,-53,-75,39,-19,-39,-78,-53,-19
-112,-126,-14,119,-48,-70,39,-19,-34,-78,-53,-19
-112,-126,-14,119,-48,-70,34,-24,-34,-73,-53,-14
-112,-126,-14,119,-48,-70,29,-29,-34,-73,-53,-14
-122,-141,-19,131,-51,-80,34,-29,-39,-73,-53,-19
-126,-161,-34,143,-46,-97,63,9,-24,-82,-63,-39
-126,-170,-43,148,-41,-107,73,29,0,-92,-92,-53
-131,-156,-24,143,-53,-90,73,29,39,-58,-68,-39
-112,-117,-4,114,-53,-61,73,97,112,24,-9,-4
-53,-43,9,48,-31,-17,107,214,258,175,107,78
53,53,0,-53,26,26,209,395,497,385,253,175
156,234,78,-195,39,156,244,483,668,595,439,331
239,478,239,-358,0,358,185,458,751,878,732,590
326,658,331,-492,-2,495,-39,263,546,1010,946,824
356,790,434,-573,-39,612,-409,-214,-14,888,985,976
297,722,424,-509,-63,573,-673,-624,-512,585,824,946
200,351,151,-275,24,251,-756,-854,-922,48,375,619
87,-53,-141,-17,114,-97,-746,-980,-1239,-409,-14,312
-34,-248,-214,141,90,-231,-683,-976,-1307,-610,-190,170
-82,-287,-204,185,61,-246,-575,-829,-1141,-575,-204,122
-68,-278,-209,173,70,-244,-385,-531,-800,-463,-204,34
-53,-219,-165,136,56,-192,-200,-278,-488,-331,-165,0
-48,-190,-141,119,46,-165,-87,-136,-297,-219,-117,-9
-39,-175,-136,107,48,-156,-19,-48,-180,-156,-97,-24
-39,-175,-136,107,48,-156,34,9,-112,-131,-87,-24
-53,-170,-117,112,31,-143,58,39,-53,-97,-78,-24
-68,-156,-87,112,9,-122,58,39,-14,-73,-63,-24
-78,-141,-63,109,-7,-102,58,29,-4,-58,-58,-19
-78,-131,-53,104,-12,-92,58,19,-4,-58,-53,-19
-73,-122,-48,97,-12,-85,63,29,14,-53,-53,-19
-73,-122,-48,97,-12,-85,78,43,34,-39,-48,-19
-73,-117,-43,95,-14,-80,78,43,34,-29,-39,-19
-78,-122,-43,100,-17,-82,73,43,29,-29,-39,-19
-87,-126,-39,107,-24,-82,73,43,29,-29,-43,-19
-97,-131,-34,114,-31,-82,78,43,39,-24,-43,-19
-97,-131,-34,114,-31,-82,78,53,43,-19,-39,-19
-87,-122,-34,104,-26,-78,82,53,48,-19,-39,-14
-82,-117,-34,100,-24,-75,87,48,58,-19,-39,-14
-82,-117,-34,100,-24,-75,92,48,63,-19,-34,-14
-82,-107,-24,95,-29,-65,92,53,63,-14,-34,-14
-87,-107,-19,97,-34,-63,92,48,58,-9,-29,-14
-82,-107,-24,95,-29,-65,92,48,58,-9,-29,-14
-82,-107,-24,95,-29,-65,92,53,58,-9,-29,-14
-87,-102,-14,95,-36,-58,92,58,63,-4,-29,-19
-68,-102,-34,85,-17,-68,97,58,68,-4,-24,-19
-48,-97,-48,73,0,-73,97,58,68,0,-24,-14
-48,-92,-43,70,-2,-68,97,63,73,4,-19,-9
-58,-87,-29,73,-14,-58,97,73,82,14,-14,0
-63,-92,-29,78,-17,-61,97,73,87,14,-14,0
-68,-97,-29,82,-19,-63,97,73,87,14,-9,0
-68,-92,-24,80,-21,-58,97,78,87,19,-9,0
-68,-92,-24,80,-21,-58,97,87,87,24,-4,0
-63,-82,-19,73,-21,-51,92,92,97,34,-9,4
-53,-78,-24,65,-14,-51,87,92,102,43,-4,9
-53,-73,-19,63,-17,-46,92,102,117,43,-4,9
-48,-73,-24,61,-12,-48,92,112,122,48,0,19
-43,-63,-19,53,-12,-41,97,122,131,53,4,24
-29,-53,-24,41,-2,-39,102,136,146,58,14,29
-24,-43,-19,34,-2,-31,107,146,161,73,24,39
-14,-29,-14,21,0,-21,107,161,180,87,29,48
-9,-24,-14,17,2,-19,112,175,190,102,34,58
0,-19,-19,9,9,-19,112,195,209,112,48,68
9,-4,-14,-2,12,-9,112,219,224,131,63,73
9,9,0,-9,4,4,112,224,244,161,87,87
19,24,4,-21,7,14,112,239,258,175,92,97
34,39,4,-36,14,21,107,253,278,190,112,107
48,53,4,-51,21,29,107,273,292,209,131,131
53,68,14,-61,19,41,102,283,317,234,146,151
63,87,24,-75,19,56,97,292,326,258,170,170
68,112,43,-90,12,78,92,292,336,278,185,180
78,126,48,-102,14,87,87,302,356,287,200,190
82,141,58,-112,12,100,82,307,366,302,214,204
102,161,58,-131,21,109,73,312,375,336,244,229
112,190,78,-151,17,134,68,312,375,351,258,248
112,195,82,-153,14,139,63,322,385,356,268,258
112,204,92,-158,9,148,68,317,390,366,278,268
102,209,107,-156,-2,158,58,297,375,370,278,273
87,209,122,-148,-17,165,48,268,356,361,273,273
92,200,107,-146,-7,153,43,234,326,341,258,258
73,180,107,-126,-17,143,39,209,292,317,244,239
53,161,107,-107,-26,134,34,170,253,283,214,209
39,136,97,-87,-29,117,29,141,219,253,185,195
34,112,78,-73,-21,95,29,117,190,209,156,170
19,82,63,-51,-21,73,29,92,165,175,122,141
-4,48,53,-21,-29,51,29,58,131,141,92,117
-39,9,48,14,-43,29,29,34,107,117,68,92
-43,-9,34,26,-39,12,29,24,82,87,48,73
-43,-14,29,29,-36,7,29,9,68,68,34,63
-48,-34,14,41,-31,-9,34,4,58,43,14,48
-53,-53,0,53,-26,-26,39,-9,39,24,0,39
-63,-63,0,63,-31,-31,43,-19,24,9,-14,24
-63,-73,-9,68,-26,-41,48,-34,14,-4,-29,19
-63,-87,-24,75,-19,-56,43,-39,9,-9,-34,14
-68,-92,-24,80,-21,-58,43,-43,0,-14,-39,9
-82,-97,-14,90,-34,-56,43,-43,0,-9,-34,4
-92,-97,-4,95,-43,-51,43,-48,0,-9,-24,4
-82,-97,-14,90,-34,-56,43,-48,0,-19,-39,0
-73,-97,-24,85,-24,-61,43,-48,0,-24,-53,-4
-73,-92,-19,82,-26,-56,39,-48,0,-24,-53,-4
-73,-92,-19,82,-26,-56,39,-48,0,-34,-58,-9
-78,-97,-19,87,-29,-58,39,-53,-9,-34,-58,-9
-78,-107,-29,92,-24,-68,39,-53,-9,-34,-63,-9
-82,-112,-29,97,-26,-70,34,-53,-9,-34,-63,-14
-87,-117,-29,102,-29,-73,24,-58,-9,-39,-63,-19
-87,-117,-29,102,-29,-73,19,-58,-9,-39,-63,-19
-82,-107,-24,95,-29,-65,19,-58,-9,-34,-58,-19
-73,-92,-19,82,-26,-56,24,-58,-9,-24,-53,-14
-68,-78,-9,73,-29,-43,29,-58,-9,-14,-48,-9
-68,-87,-19,78,-24,-53,34,-63,-9,-24,-48,-9
-68,-97,-29,82,-19,-63,39,-68,-9,-34,-48,-4
-82,-97,-14,90,-34,-56,39,-63,-9,-34,-53,-4
-92,-97,-4,95,-43,-51,39,-63,-4,-34,-58,-9
-82,-97,-14,90,-34,-56,39,-58,-4,-39,-58,-14
-78,-107,-29,92,-24,-68,34,-53,-4,-43,-58,-19
-82,-107,-24,95,-29,-65,34,-53,-4,-43,-63,-19
-82,-102,-19,92,-31,-61,34,-53,-4,-39,-68,-14
-82,-97,-14,90,-34,-56,39,-53,0,-39,-68,-14
-82,-102,-19,92,-31,-61,39,-58,0,-43,-68,-19
-82,-117,-34,100,-24,-75,39,-53,0,-43,-63,-19
-82,-122,-39,102,-21,-80,43,-53,4,-39,-58,-19
-78,-117,-39,97,-19,-78,43,-53,0,-39,-58,-14
-73,-102,-29,87,-21,-65,43,-53,0,-43,-53,-14
-73,-97,-24,85,-24,-61,43,-53,0,-39,-48,-14
-73,-92,-19,82,-26,-56,43,-53,0,-39,-48,-14
-73,-87,-14,80,-29,-51,48,-48,4,-19,-39,-14
-73,-82,-9,78,-31,-46,48,-48,9,-4,-29,-14
-68,-82,-14,75,-26,-48,48,-43,9,-14,-39,-14
-68,-87,-19,78,-24,-53,48,-43,14,-24,-48,-9
-73,-87,-14,80,-29,-51,43,-43,14,-24,-43,-9
-73,-87,-14,80,-29,-51,39,-48,14,-29,-43,-9
-68,-87,-19,78,-24,-53,43,-48,14,-29,-43,-9
-68,-87,-19,78,-24,-53,43,-48,14,-24,-43,-9
-63,-87,-24,75,-19,-56,43,-43,9,-24,-43,-4
-63,-87,-24,75,-19,-56,39,-43,9,-19,-39,0
-68,-87,-19,78,-24,-53,39,-43,9,-14,-34,4
-68,-92,-24,80,-21,-58,43,-48,9,-9,-34,4
-68,-97,-29,82,-19,-63,43,-53,9,-9,-34,-4
-73,-107,-34,90,-19,-70,39,-53,9,-14,-39,-9
-73,-117,-43,95,-14,-80,39,-53,0,-19,-39,-9
-73,-126,-53,100,-9,-90,39,-53,0,-19,-39,-9
-68,-107,-39,87,-14,-73,39,-58,0,-14,-39,-4
-63,-87,-24,75,-19,-56,39,-58,0,-14,-39,0
-58,-87,-29,73,-14,-58,39,-53,4,-14,-39,0
-58,-87,-29,73,-14,-58,39,-53,4,-14,-39,0
-68,-102,-34,85,-17,-68,43,-53,0,-19,-43,-4
-73,-122,-48,97,-12,-85,43,-53,0,-19,-48,-14
-73,-122,-48,97,-12,-85,39,-53,0,-19,-48,-14
-73,-122,-48,97,-12,-85,34,-63,-4,-19,-48,-14
-73,-122,-48,97,-12,-85,34,-63,-9,-24,-53,-14
-73,-122,-48,97,-12,-85,34,-63,-9,-24,-53,-14
-63,-107,-43,85,-9,-75,34,-58,-9,-24,-53,-19
-58,-87,-29,73,-14,-58,34,-53,-9,-24,-53,-19
-58,-97,-39,78,-9,-68,34,-53,-4,-29,-53,-14
-58,-107,-48,82,-4,-78,34,-53,-4,-34,-53,-14
-58,-112,-53,85,-2,-82,24,-53,-9,-34,-53,-19
-58,-112,-53,85,-2,-82,19,-58,-9,-34,-53,-19
-63,-122,-58,92,-2,-90,9,-63,-14,-34,-53,-24
-63,-117,-53,90,-4,-85,4,-58,-9,-29,-43,-14
-63,-122,-58,92,-2,-90,4,-58,-9,-29,-43,-9
-68,-126,-58,97,-4,-92,9,-58,-9,-29,-48,-9
-63,-122,-58,92,-2,-90,14,-53,-4,-29,-48,-9
-58,-117,-58,87,0,-87,19,-48,0,-29,-48,-9
-53,-117,-63,85,4,-90,19,-43,0,-29,-48,-9
-48,-97,-48,73,0,-73,19,-39,0,-19,-43,-4
-43,-82,-39,63,-2,-61,19,-34,4,-14,-39,0
-39,-48,-9,43,-14,-29,29,-29,29,4,-24,19
-29,-34,-4,31,-12,-19,34,-24,39,19,-19,29
-19,-14,4,17,-12,-4,34,-19,48,29,-4,39
-29,-14,14,21,-21,0,24,-24,48,29,4,34
-39,-9,29,24,-34,9,14,-29,48,34,9,29
-39,0,39,19,-39,19,4,-34,48,34,9,39
-29,9,39,9,-34,24,0,-34,63,43,19,43
-24,19,43,2,-34,31,-9,-29,63,48,14,43
-24,24,48,0,-36,36,-14,-29,63,48,14,53
-19,24,43,-2,-31,34,-29,-39,53,48,19,53
-14,19,34,-2,-24,26,-34,-43,43,48,19,58
-4,9,14,-2,-9,12,-39,-43,34,43,19,63
0,9,9,-4,-4,9,-43,-48,24,39,14,63
4,9,4,-7,0,7,-39,-48,9,24,4,53
9,19,9,-14,0,14,-34,-48,9,19,9,53
4,4,0,-4,2,2,-34,-48,0,14,9,53
4,-19,-24,7,14,-21,-34,-43,-4,9,0,43
9,-24,-34,7,21,-29,-29,-39,-9,9,-9,39
9,-24,-34,7,21,-29,-24,-39,-19,4,-14,34
-4,-29,-24,17,9,-26,-14,-39,-19,0,-14,34
-14,-39,-24,26,4,-31,-9,-43,-19,0,-14,29
-24,-58,-34,41,4,-46,-4,-43,-19,-14,-29,19
-34,-102,-68,68,17,-85,4,-43,-34,-48,-68,-14
-48,-165,-117,107,34,-141,9,-48,-58,-82,-112,-58
-63,-190,-126,126,31,-158,9,-58,-73,-102,-131,-78
-63,-195,-131,129,34,-163,14,-58,-73,-107,-136,-78
-58,-190,-131,124,36,-161,19,-53,-73,-107,-136,-78
-58,-180,-122,119,31,-151,19,-48,-73,-97,-122,-68
-48,-165,-117,107,34,-141,24,-48,-73,-82,-112,-53
-43,-165,-122,104,39,-143,24,-48,-73,-82,-107,-53
-43,-165,-122,104,39,-143,24,-48,-68,-82,-107,-53
-43,-161,-117,102,36,-139,19,-48,-68,-82,-107,-63
-43,-161,-117,102,36,-139,14,-43,-68,-82,-107,-68
-43,-165,-122,104,39,-143,19,-39,-68,-87,-112,-68
-43,-165,-122,104,39,-143,19,-39,-63,-87,-112,-68
-43,-165,-122,104,39,-143,19,-34,-63,-82,-117,-63
-43,-165,-122,104,39,-143,19,-29,-63,-82,-122,-63
-48,-170,-122,109,36,-146,29,-24,-48,-78,-122,-68
-48,-180,-131,114,41,-156,63,19,-14,-82,-131,-87
-34,-165,-131,100,48,-148,73,58,39,-39,-112,-68
-24,-126,-102,75,39,-114,73,78,107,48,-39,-19
4,-48,-53,21,29,-51,78,146,224,195,82,53
73,63,-9,-68,41,26,117,263,414,409,263,175
146,200,53,-173,46,126,136,336,531,619,458,341
214,419,204,-317,4,312,87,317,580,829,692,566
268,629,361,-448,-46,495,-39,190,444,946,883,775
326,775,448,-551,-61,612,-331,-107,19,912,995,961
302,722,419,-512,-58,570,-575,-463,-512,614,834,936
190,468,278,-329,-43,373,-712,-751,-980,136,473,732
122,175,53,-148,34,114,-727,-844,-1190,-263,122,463
39,-151,-190,56,114,-170,-649,-834,-1307,-585,-170,214
-34,-307,-273,170,119,-290,-541,-746,-1244,-688,-297,63
-34,-307,-273,170,119,-290,-390,-517,-946,-556,-263,4
-24,-278,-253,151,114,-265,-248,-302,-639,-424,-244,-58
-14,-200,-185,107,85,-192,-112,-131,-361,-273,-185,-68
-9,-185,-175,97,82,-180,-29,-34,-224,-195,-151,-73
0,-185,-185,92,92,-185,9,9,-161,-165,-146,-82
0,-185,-185,92,92,-185,48,43,-97,-141,-136,-82
-14,-180,-165,97,75,-173,58,48,-43,-107,-126,-82
-34,-170,-136,102,51,-153,58,43,-19,-87,-112,-82
-48,-161,-112,104,31,-136,58,29,-24,-78,-107,-78
-48,-156,-107,102,29,-131,53,19,-24,-78,-102,-82
-43,-151,-107,97,31,-129,53,29,-4,-73,-102,-87
-43,-151,-107,97,31,-129,63,43,9,-73,-112,-92
-43,-146,-102,95,29,-124,58,43,4,-78,-117,-97
-48,-161,-112,104,31,-136,53,43,0,-78,-117,-97
-58,-175,-117,117,29,-146,53,43,0,-78,-122,-97
-53,-165,-112,109,29,-139,63,43,9,-63,-117,-92
-39,-151,-112,95,36,-131,68,53,14,-48,-107,-87
-34,-146,-112,90,39,-129,68,53,14,-48,-107,-82
-34,-146,-112,90,39,-129,68,48,19,-48,-107,-82
-34,-146,-112,90,39,-129,73,48,24,-48,-102,-82
-34,-136,-102,85,34,-119,73,53,24,-43,-102,-82
-24,-136,-112,80,43,-124,73,53,24,-39,-97,-82
-4,-136,-131,70,63,-134,73,58,29,-39,-97,-82
-14,-136,-122,75,53,-129,73,63,29,-29,-87,-78
-29,-131,-102,80,36,-117,73,68,34,-14,-78,-78
-29,-131,-102,80,36,-117,78,68,39,-34,-82,-82
-29,-126,-97,78,34,-112,78,68,39,-48,-92,-82
-29,-141,-112,85,41,-126,73,68,43,-53,-97,-82
-39,-156,-117,97,39,-136,68,73,53,-53,-102,-78
-29,-136,-107,82,39,-122,68,73,58,-34,-92,-73
-19,-117,-97,68,39,-107,68,73,58,-14,-78,-68
-4,-112,-107,58,51,-109,73,78,68,-9,-78,-68
9,-112,-122,51,65,-117,78,87,78,-4,-73,-68
0,-102,-102,51,51,-102,78,97,87,4,-73,-63
-4,-97,-92,51,43,-95,78,102,92,14,-63,-58
-4,-92,-87,48,41,-90,82,112,107,9,-63,-58
0,-92,-92,46,46,-92,82,122,112,9,-58,-48
0,-87,-87,43,43,-87,82,126,122,24,-48,-43
9,-82,-92,36,51,-87,82,136,136,39,-34,-39
14,-68,-82,26,48,-75,82,146,151,53,-19,-29
24,-48,-73,12,48,-61,78,161,170,68,-9,-19
29,-39,-68,4,48,-53,82,165,180,87,-4,-9
39,-29,-68,-4,53,-48,82,175,200,102,9,0
43,-9,-53,-17,48,-31,82,200,219,122,24,4
39,9,-29,-24,34,-9,82,204,244,151,48,19
48,48,0,-48,24,24,82,214,263,180,63,34
63,87,24,-75,19,56,78,224,287,209,92,48
78,87,9,-82,34,48,78,244,297,219,112,73
82,87,4,-85,39,46,73,253,317,234,126,92
92,107,14,-100,39,61,68,258,326,258,146,112
97,131,34,-114,31,82,63,253,336,278,156,122
107,146,39,-126,34,92,58,263,351,292,170,131
112,161,48,-136,31,104,53,268,356,312,185,146
112,170,58,-141,26,114,43,268,361,341,209,165
102,190,87,-146,7,139,39,263,356,351,219,180
102,200,97,-151,2,148,34,263,356,356,229,190
102,214,112,-158,-4,163,39,248,351,366,239,200
117,219,102,-168,7,161,29,229,326,356,239,200
126,219,92,-173,17,156,19,200,297,331,234,195
122,209,87,-165,17,148,14,170,263,307,214,180
92,190,97,-141,-2,143,9,151,224,278,195,161
73,165,92,-119,-9,129,14,126,185,229,156,131
58,136,78,-97,-9,107,19,112,151,185,117,117
53,87,34,-70,9,61,24,102,117,126,78,87
39,34,-4,-36,21,14,29,92,87,78,34,53
24,19,-4,-21,14,7,29,58,53,53,4,29
0,0,0,0,0,0,29,34,29,39,-19,4
0,-9,-9,4,4,-9,29,34,9,9,-39,-19
4,-4,-9,0,7,-7,29,29,0,-9,-53,-34
4,-39,-43,17,24,-41,39,29,-9,-29,-73,-48
4,-73,-78,34,41,-75,48,19,-29,-43,-87,-58
-4,-78,-73,41,34,-75,48,14,-39,-43,-87,-68
-4,-82,-78,43,36,-80,48,4,-43,-43,-87,-68
0,-73,-73,36,36,-73,43,4,-39,-48,-92,-73
0,-53,-53,26,26,-53,43,4,-39,-53,-97,-78
-4,-58,-53,31,24,-56,43,4,-48,-68,-107,-82
-4,-58,-53,31,24,-56,43,0,-58,-87,-112,-82
-14,-63,-48,39,17,-56,39,-9,-63,-87,-112,-87
-24,-68,-43,46,9,-56,34,-19,-68,-82,-112,-92
-14,-63,-48,39,17,-56,29,-19,-68,-82,-112,-92
-4,-63,-58,34,26,-61,29,-19,-68,-92,-117,-97
-9,-68,-58,39,24,-63,39,-19,-63,-102,-122,-102
-9,-78,-68,43,29,-73,48,-14,-48,-112,-131,-107
-4,-73,-68,39,31,-70,43,-14,-58,-97,-131,-112
0,-68,-68,34,34,-68,34,-19,-68,-87,-131,-117
0,-68,-68,34,34,-68,29,-14,-68,-97,-131,-117
4,-58,-63,26,34,-61,29,-9,-68,-102,-126,-117
9,-73,-82,31,46,-78,29,-9,-68,-102,-126,-112
9,-87,-97,39,53,-92,29,-9,-68,-102,-126,-107
14,-73,-87,29,51,-80,29,-19,-68,-92,-117,-107
19,-58,-78,19,48,-68,29,-29,-68,-82,-107,-102
14,-48,-63,17,39,-56,24,-24,-68,-97,-117,-102
14,-39,-53,12,34,-46,19,-24,-63,-112,-126,-107
14,-29,-43,7,29,-36,24,-24,-73,-97,-126,-107
9,-29,-39,9,24,-34,24,-24,-82,-82,-126,-107
4,-53,-58,24,31,-56,34,-19,-73,-97,-126,-117
4,-73,-78,34,41,-75,43,-14,-63,-107,-126,-122
9,-68,-78,29,43,-73,48,-9,-58,-107,-131,-122
14,-73,-87,29,51,-80,48,-9,-58,-112,-136,-126
14,-73,-87,29,51,-80,43,-4,-58,-112,-136,-126
14,-63,-78,24,46,-70,43,-4,-53,-107,-136,-126
14,-68,-82,26,48,-75,43,-4,-53,-87,-122,-112
14,-63,-78,24,46,-70,43,-4,-48,-73,-102,-102
14,-48,-63,17,39,-56,39,-4,-48,-68,-97,-102
14,-34,-48,9,31,-41,34,-4,-48,-68,-97,-102
14,-53,-68,19,41,-61,34,-4,-58,-92,-122,-107
14,-73,-87,29,51,-80,29,-9,-68,-122,-146,-112
29,-53,-82,12,56,-68,29,-4,-58,-92,-126,-112
39,-39,-78,0,58,-58,29,-4,-43,-63,-107,-107
34,-39,-73,2,53,-56,34,0,-39,-63,-102,-107
34,-39,-73,2,53,-56,39,0,-34,-68,-102,-107
29,-39,-68,4,48,-53,43,0,-34,-68,-97,-102
19,-39,-58,9,39,-48,43,0,-34,-63,-92,-97
39,-19,-58,-9,48,-39,43,4,-34,-63,-92,-97
53,0,-53,-26,53,-26,39,4,-29,-58,-87,-97
48,-19,-68,-14,58,-43,39,9,-29,-63,-92,-97
48,-43,-92,-2,70,-68,43,9,-29,-68,-102,-102
48,-39,-87,-4,68,-63,43,4,-29,-68,-102,-107
43,-39,-82,-2,63,-61,39,4,-29,-73,-107,-107
43,-39,-82,-2,63,-61,39,4,-43,-78,-107,-107
43,-39,-82,-2,63,-61,39,4,-48,-78,-107,-107
43,-34,-78,-4,61,-56,39,0,-48,-73,-107,-107
43,-29,-73,-7,58,-51,39,0,-48,-73,-107,-107
48,-29,-78,-9,63,-53,39,4,-43,-73,-107,-107
48,-29,-78,-9,63,-53,39,4,-43,-73,-107,-107
48,-29,-78,-9,63,-53,43,4,-48,-73,-102,-107
53,-34,-87,-9,70,-61,43,4,-48,-68,-97,-112
53,-24,-78,-14,65,-51,39,4,-43,-68,-97,-112
53,-14,-68,-19,61,-41,34,-4,-43,-68,-97,-112
53,-39,-92,-7,73,-65,39,-4,-48,-87,-117,-112
53,-63,-117,4,85,-90,43,-4,-48,-102,-131,-112
53,-43,-97,-4,75,-70,43,-4,-48,-92,-122,-117
48,-19,-68,-14,58,-43,43,-4,-48,-82,-112,-117
48,-29,-78,-9,63,-53,39,-9,-48,-82,-112,-122
48,-39,-87,-4,68,-63,34,-9,-53,-82,-112,-131
48,-34,-82,-7,65,-58,24,-9,-53,-82,-112,-131
48,-29,-78,-9,63,-53,14,-9,-53,-87,-117,-136
48,-29,-78,-9,63,-53,14,-9,-58,-87,-117,-136
48,-29,-78,-9,63,-53,19,-9,-68,-87,-117,-136
48,-29,-78,-9,63,-53,9,-14,-68,-87,-117,-136
48,-29,-78,-9,63,-53,0,-19,-68,-87,-117,-136
58,-9,-68,-24,63,-39,9,-19,-63,-82,-112,-131
63,9,-53,-36,58,-21,19,-14,-43,-68,-97,-117
68,29,-39,-48,53,-4,29,-9,-29,-58,-82,-107
58,43,-14,-51,36,14,34,-4,-19,-39,-68,-97
58,73,14,-65,21,43,24,-14,-14,-29,-53,-87
58,92,34,-75,12,63,4,-29,-14,-24,-43,-82
68,112,43,-90,12,78,-4,-29,-9,-19,-39,-78
82,126,43,-104,19,85,-14,-34,-9,-24,-39,-68
97,136,39,-117,29,87,-14,-34,0,-14,-29,-68
102,151,48,-126,26,100,-19,-34,-4,-4,-24,-68
102,141,39,-122,31,90,-19,-39,-4,-29,-39,-63
102,126,24,-114,39,75,-29,-48,-9,-58,-58,-73
97,136,39,-117,29,87,-34,-48,-9,-29,-34,-53
102,136,34,-119,34,85,-39,-43,-14,-4,-9,-39
107,146,39,-126,34,92,-43,-48,-24,-9,-14,-43
107,136,29,-122,39,82,-43,-48,-43,-24,-29,-53
117,126,9,-122,53,68,-43,-43,-48,-29,-19,-53
122,122,0,-122,61,61,-43,-43,-58,-34,-9,-53
112,82,-29,-97,70,26,-34,-39,-58,-48,-39,-63
107,53,-53,-80,80,0,-19,-29,-53,-58,-63,-63
107,82,-24,-95,65,29,-24,-29,-58,-34,-43,-68
92,107,14,-100,39,61,-24,-29,-58,-9,-24,-73
87,82,-4,-85,46,39,-19,-34,-63,-53,-53,-87
87,58,-29,-73,58,14,-14,-34,-68,-102,-87,-102
82,14,-68,-48,75,-26,-4,-34,-82,-112,-107,-122
68,-58,-126,-4,97,-92,0,-39,-107,-131,-141,-156
53,-68,-122,7,87,-95,0,-48,-122,-136,-151,-175
43,-63,-107,9,75,-85,0,-53,-122,-126,-146,-175
39,-58,-97,9,68,-78,0,-58,-131,-136,-146,-175
39,-48,-87,4,63,-68,0,-58,-141,-146,-141,-175
58,-39,-97,-9,78,-68,4,-58,-131,-141,-141,-170
73,-39,-112,-17,92,-75,4,-58,-122,-141,-136,-170
73,-39,-112,-17,92,-75,4,-58,-117,-141,-136,-170
73,-34,-107,-19,90,-70,4,-58,-117,-141,-136,-175
68,-39,-107,-14,87,-73,4,-53,-117,-141,-141,-180
63,-48,-112,-7,87,-80,9,-48,-117,-146,-151,-185
63,-48,-112,-7,87,-80,9,-48,-112,-146,-151,-185
63,-48,-112,-7,87,-80,9,-48,-112,-141,-151,-180
68,-58,-126,-4,97,-92,9,-48,-107,-141,-151,-180
68,-73,-141,2,104,-107,14,-43,-97,-141,-151,-185
68,-53,-122,-7,95,-87,34,-14,-68,-136,-156,-204
78,-14,-92,-31,85,-53,34,0,-24,-102,-151,-204
82,34,-48,-58,65,-7,34,9,58,29,-34,-131
112,107,-4,-109,58,51,48,78,190,214,117,-29
161,263,102,-212,29,183,53,146,346,448,331,131
219,439,219,-329,0,329,53,214,492,707,570,312
268,624,356,-446,-43,490,29,239,478,893,795,527
322,834,512,-578,-95,673,-97,126,283,1054,1044,790
380,971,590,-675,-104,780,-331,-87,-141,961,1098,927
356,966,610,-661,-126,788,-575,-424,-727,605,912,893
287,668,380,-478,-46,524,-697,-649,-1137,82,517,678
229,204,-24,-217,126,90,-649,-678,-1371,-502,0,302
175,-170,-346,-2,261,-258,-580,-688,-1483,-849,-331,19
126,-297,-424,85,275,-361,-483,-590,-1351,-907,-434,-102
112,-239,-351,63,231,-295,-370,-458,-1054,-712,-361,-131
112,-161,-273,24,192,-217,-224,-278,-707,-512,-312,-195
107,-73,-180,-17,143,-126,-97,-117,-429,-361,-234,-195
97,-58,-156,-19,126,-107,-48,-58,-297,-278,-180,-195
97,-58,-156,-19,126,-107,-4,-19,-224,-234,-175,-204
97,-58,-156,-19,126,-107,34,4,-165,-200,-165,-200
92,-39,-131,-26,112,-85,34,9,-112,-156,-156,-195
87,-14,-102,-36,95,-58,19,0,-82,-126,-141,-190
78,-4,-82,-36,80,-43,19,-9,-82,-131,-136,-185
78,0,-78,-39,78,-39,19,-19,-82,-146,-131,-185
82,19,-63,-51,73,-21,14,-19,-68,-107,-107,-185
82,34,-48,-58,65,-7,19,-14,-53,-63,-82,-185
82,24,-58,-53,70,-17,19,-14,-53,-102,-112,-190
87,9,-78,-48,82,-34,14,-14,-58,-146,-146,-195
73,-9,-82,-31,78,-46,24,-14,-58,-126,-136,-195
48,-34,-82,-7,65,-58,39,-14,-48,-102,-122,-195
58,-4,-63,-26,61,-34,29,-4,-43,-97,-112,-195
73,29,-43,-51,58,-7,19,-4,-43,-97,-107,-190
73,9,-63,-41,68,-26,19,-9,-39,-97,-107,-190
73,-9,-82,-31,78,-46,24,-9,-34,-97,-102,-190
78,9,-68,-43,73,-29,24,-4,-29,-92,-102,-185
82,19,-63,-51,73,-21,24,-4,-24,-87,-97,-180
92,19,-73,-56,82,-26,29,0,-19,-87,-92,-180
92,19,-73,-56,82,-26,34,4,-19,-87,-87,-175
82,14,-68,-48,75,-26,34,9,-14,-82,-87,-175
78,4,-73,-41,75,-34,39,9,-9,-82,-82,-175
78,34,-43,-56,61,-4,34,4,-9,-58,-68,-170
87,63,-24,-75,56,19,29,4,-4,-34,-48,-170
87,53,-34,-70,61,9,29,14,4,-43,-58,-175
87,39,-48,-63,68,-4,29,14,9,-63,-73,-185
82,19,-63,-51,73,-21,34,14,14,-63,-68,-175
78,4,-73,-41,75,-34,39,19,29,-58,-68,-165
78,14,-63,-46,70,-24,39,29,39,-53,-63,-165
82,34,-48,-58,65,-7,39,39,48,-43,-63,-161
92,39,-53,-65,73,-7,39,43,58,-14,-43,-146
92,43,-48,-68,70,-2,43,53,78,9,-34,-136
97,48,-48,-73,73,0,39,58,82,9,-29,-136
97,58,-39,-78,68,9,34,63,92,4,-24,-141
107,63,-43,-85,75,9,34,73,107,9,-14,-136
112,73,-39,-92,75,17,39,78,122,24,0,-126
122,87,-34,-104,78,26,34,82,146,48,14,-117
126,97,-29,-112,78,34,34,87,161,73,24,-107
131,107,-24,-119,78,41,34,102,180,82,39,-97
136,122,-14,-129,75,53,34,122,195,102,53,-92
136,141,4,-139,65,73,29,117,214,136,82,-68
146,170,24,-158,61,97,24,126,234,161,97,-43
161,204,43,-183,58,124,14,136,258,190,131,-29
175,229,53,-202,61,141,9,146,273,219,161,-4
165,244,78,-204,43,161,4,151,292,248,175,14
161,263,102,-212,29,183,0,156,297,278,200,34
165,287,122,-226,21,204,-9,146,307,297,214,43
175,302,126,-239,24,214,-19,146,322,307,229,53
175,312,136,-244,19,224,-24,146,322,312,244,68
185,317,131,-251,26,224,-34,146,326,331,268,87
190,336,146,-263,21,241,-39,146,322,336,278,102
190,341,151,-265,19,246,-48,146,317,336,287,112
190,351,161,-270,14,256,-43,136,302,346,287,112
190,356,165,-273,12,261,-48,122,278,346,278,107
185,346,161,-265,12,253,-58,92,253,322,273,107
180,322,141,-251,19,231,-63,63,214,287,253,92
156,292,136,-224,9,214,-68,63,175,239,219,63
141,263,122,-202,9,192,-68,43,136,185,175,24
126,229,102,-178,12,165,-63,24,102,156,146,9
122,200,78,-161,21,139,-58,9,68,107,117,-14
117,170,53,-143,31,112,-58,0,39,68,82,-43
112,141,29,-126,41,85,-58,-19,4,34,53,-68
87,107,19,-97,34,63,-58,-43,-19,9,29,-92
82,87,4,-85,39,46,-58,-53,-43,-19,9,-112
82,63,-19,-73,51,21,-58,-53,-58,-48,-24,-131
73,24,-48,-48,61,-12,-53,-43,-68,-78,-63,-156
78,24,-53,-51,65,-14,-48,-58,-82,-78,-53,-151
82,39,-43,-61,63,-2,-48,-63,-87,-73,-39,-151
82,48,-34,-65,58,7,-43,-68,-82,-82,-48,-156
82,48,-34,-65,58,7,-43,-68,-78,-87,-53,-161
73,29,-43,-51,58,-7,-43,-73,-97,-97,-73,-175
63,9,-53,-36,58,-21,-43,-73,-107,-107,-92,-190
63,9,-53,-36,58,-21,-43,-78,-107,-117,-92,-190
63,9,-53,-36,58,-21,-43,-78,-107,-117,-92,-190
58,9,-48,-34,53,-19,-48,-82,-107,-112,-92,-190
53,14,-39,-34,46,-12,-58,-87,-107,-112,-92,-190
53,9,-43,-31,48,-17,-58,-87,-107,-122,-97,-195
48,0,-48,-24,48,-24,-58,-92,-117,-122,-97,-195
48,-9,-58,-19,53,-34,-58,-87,-117,-122,-102,-195
48,-9,-58,-19,53,-34,-53,-82,-117,-122,-102,-195
48,-9,-58,-19,53,-34,-53,-82,-112,-126,-102,-195
48,-9,-58,-19,53,-34,-58,-78,-107,-126,-102,-195
53,0,-53,-26,53,-26,-58,-78,-107,-112,-92,-195
58,0,-58,-29,58,-29,-58,-78,-107,-102,-87,-195
58,0,-58,-29,58,-29,-58,-78,-107,-102,-87,-195
58,0,-58,-29,58,-29,-58,-78,-107,-102,-87,-195
58,-9,-68,-24,63,-39,-58,-78,-107,-112,-87,-190
53,-19,-73,-17,63,-46,-58,-73,-107,-122,-87,-190
48,-19,-68,-14,58,-43,-58,-73,-102,-122,-87,-195
43,-19,-63,-12,53,-41,-53,-73,-102,-122,-87,-195
39,-29,-68,-4,53,-48,-53,-73,-102,-117,-87,-195
34,-29,-63,-2,48,-46,-53,-73,-102,-112,-87,-195
43,-19,-63,-12,53,-41,-53,-73,-97,-107,-87,-185
58,-4,-63,-26,61,-34,-48,-68,-87,-107,-87,-180
53,-4,-58,-24,56,-31,-48,-68,-87,-107,-78,-185
43,-4,-48,-19,46,-26,-48,-63,-87,-102,-68,-185
43,4,-39,-24,41,-17,-43,-63,-82,-97,-78,-190
43,-4,-48,-19,46,-26,-43,-63,-82,-92,-87,-190
43,-19,-63,-12,53,-41,-43,-63,-78,-97,-87,-190
43,-34,-78,-4,61,-56,-43,-63,-78,-97,-87,-190
43,-34,-78,-4,61,-56,-43,-68,-78,-97,-87,-190
43,-29,-73,-7,58,-51,-43,-68,-78,-92,-87,-190
39,-14,-53,-12,46,-34,-48,-68,-78,-82,-78,-185
39,-4,-43,-17,41,-24,-48,-63,-78,-73,-68,-180
39,-9,-48,-14,43,-29,-48,-63,-73,-73,-68,-175
34,-9,-43,-12,39,-26,-48,-63,-73,-73,-63,-175
34,0,-34,-17,34,-17,-53,-68,-68,-68,-63,-175
39,9,-29,-24,34,-9,-53,-68,-63,-58,-63,-175
39,0,-39,-19,39,-19,-53,-68,-63,-63,-63,-175
43,-4,-48,-19,46,-26,-53,-63,-63,-73,-63,-175
43,-4,-48,-19,46,-26,-58,-63,-58,-68,-63,-180
39,-9,-48,-14,43,-29,-58,-63,-58,-68,-68,-180
34,-14,-48,-9,41,-31,-58,-63,-58,-68,-73,-180
29,-19,-48,-4,39,-34,-63,-63,-58,-68,-73,-185
14,-34,-48,9,31,-41,-68,-63,-58,-73,-78,-185
4,-39,-43,17,24,-41,-68,-63,-68,-78,-78,-185
14,-39,-53,12,34,-46,-58,-58,-68,-73,-78,-185
24,-34,-58,4,41,-46,-48,-58,-68,-63,-78,-185
24,-19,-43,-2,34,-31,-48,-58,-68,-63,-78,-185
29,-9,-39,-9,34,-24,-48,-53,-63,-63,-78,-185
29,-19,-48,-4,39,-34,-48,-53,-58,-63,-78,-185
24,-29,-53,2,39,-41,-43,-53,-58,-68,-78,-185
34,-34,-68,0,51,-51,-43,-48,-58,-73,-78,-185
43,-34,-78,-4,61,-56,-48,-43,-58,-78,-78,-180
34,-39,-73,2,53,-56,-53,-53,-63,-78,-78,-180
24,-43,-68,9,46,-56,-53,-53,-68,-82,-82,-180
9,-58,-68,24,39,-63,-48,-48,-73,-78,-78,-180
0,-78,-78,39,39,-78,-48,-48,-78,-78,-78,-185
9,-68,-78,29,43,-73,-48,-48,-68,-78,-78,-185
19,-58,-78,19,48,-68,-48,-48,-58,-78,-78,-185
19,-58,-78,19,48,-68,-48,-48,-58,-78,-78,-185
24,-43,-68,9,46,-56,-48,-43,-53,-73,-73,-180
29,-29,-58,0,43,-43,-48,-43,-53,-68,-68,-180
39,0,-39,-19,39,-19,-39,-39,-29,-53,-53,-165
39,14,-24,-26,31,-4,-34,-39,-19,-34,-48,-151
39,34,-4,-36,21,14,-34,-39,-9,-19,-34,-136
29,39,9,-34,9,24,-39,-39,-4,-14,-24,-131
19,48,29,-34,-4,39,-43,-39,0,-4,-19,-126
24,58,34,-41,-4,46,-53,-43,0,-4,-19,-117
39,68,29,-53,4,48,-58,-43,14,4,-9,-112
43,78,34,-61,4,56,-68,-39,14,14,-4,-102
43,82,39,-63,2,61,-73,-39,14,19,4,-82
43,87,43,-65,0,65,-87,-48,9,19,9,-82
43,87,43,-65,0,65,-92,-53,4,19,9,-78
53,78,24,-65,14,51,-97,-53,-4,14,9,-78
58,78,19,-68,19,48,-102,-58,-14,9,4,-82
48,48,0,-48,24,24,-102,-58,-34,-4,-9,-92
39,29,-9,-34,24,9,-102,-58,-39,-9,-9,-92
43,24,-19,-34,31,2,-92,-53,-43,-14,0,-87
53,9,-43,-31,48,-17,-82,-43,-43,-19,0,-92
58,-4,-63,-26,61,-34,-78,-34,-43,-19,-4,-92
58,-14,-73,-21,65,-43,-73,-29,-48,-24,-4,-92
48,-4,-53,-21,51,-29,-68,-29,-48,-24,-4,-87
43,0,-43,-21,43,-21,-68,-34,-48,-19,-4,-87
39,-9,-48,-14,43,-29,-63,-34,-48,-24,-4,-82
34,-43,-78,4,56,-61,-53,-34,-63,-48,-29,-102
19,-107,-126,43,73,-117,-48,-39,-87,-82,-73,-156
4,-131,-136,63,70,-134,-48,-48,-102,-102,-92,-185
-9,-146,-136,78,63,-141,-48,-53,-102,-107,-102,-185
-19,-151,-131,85,56,-141,-48,-53,-102,-107,-107,-185
-24,-156,-131,90,53,-143,-48,-48,-102,-112,-102,-180
-19,-156,-136,87,58,-146,-43,-48,-102,-112,-102,-170
-14,-165,-151,90,68,-158,-43,-43,-102,-112,-97,-170
-14,-175,-161,95,73,-168,-43,-39,-97,-112,-97,-170
-9,-156,-146,82,68,-151,-39,-34,-92,-107,-92,-165
-4,-141,-136,73,65,-139,-34,-24,-87,-102,-87,-156
0,-146,-146,73,73,-146,-29,-19,-87,-107,-92,-156
4,-146,-151,70,78,-148,-29,-19,-82,-107,-92,-156
4,-151,-156,73,80,-153,-29,-24,-87,-102,-97,-151
4,-156,-161,75,82,-158,-29,-29,-92,-102,-102,-151
0,-165,-165,82,82,-165,-24,-29,-87,-107,-102,-156
0,-180,-180,90,90,-180,4,9,-63,-122,-112,-175
0,-185,-185,92,92,-185,14,34,-39,-122,-131,-185
-4,-165,-161,85,78,-163,14,39,0,-78,-97,-165
9,-112,-122,51,65,-117,29,82,92,34,-14,-117
63,-24,-87,-19,75,-56,78,175,258,214,126,-19
141,63,-78,-102,109,-7,146,326,458,424,287,87
214,234,19,-224,97,126,146,385,590,634,488,253
292,512,219,-402,36,366,48,346,575,917,795,536
375,727,351,-551,12,539,-214,136,273,1049,1024,795
395,810,414,-602,-9,612,-570,-302,-322,844,1005,907
326,692,366,-509,-19,529,-819,-673,-854,458,785,839
258,307,48,-283,104,178,-868,-834,-1200,-82,331,517
175,-112,-287,-31,231,-200,-824,-893,-1454,-546,-63,214
87,-292,-380,102,234,-336,-736,-858,-1464,-722,-229,68
73,-317,-390,122,231,-353,-605,-683,-1239,-663,-234,14
58,-287,-346,114,202,-317,-409,-424,-868,-512,-214,-63
43,-209,-253,82,148,-231,-219,-209,-527,-341,-156,-87
39,-195,-234,78,136,-214,-107,-87,-341,-244,-112,-97
39,-195,-234,78,136,-214,-39,-19,-229,-195,-97,-112
39,-195,-234,78,136,-214,9,34,-151,-165,-87,-112
24,-190,-214,82,119,-202,29,58,-82,-126,-78,-112
19,-180,-200,80,109,-190,29,63,-48,-107,-63,-112
19,-170,-190,75,104,-180,29,58,-43,-97,-58,-107
19,-165,-185,73,102,-175,29,48,-43,-97,-53,-107
24,-161,-185,68,104,-173,34,58,-24,-92,-53,-107
14,-161,-175,73,95,-168,48,73,-4,-82,-48,-102
4,-156,-161,75,82,-158,48,73,-4,-78,-39,-97
9,-156,-165,73,87,-161,39,68,-9,-78,-39,-97
9,-156,-165,73,87,-161,34,63,-9,-78,-43,-97
0,-161,-161,80,80,-161,39,63,0,-73,-48,-102
0,-161,-161,80,80,-161,39,73,4,-68,-48,-107
4,-165,-170,80,87,-168,39,73,4,-68,-48,-102
4,-175,-180,85,92,-178,39,68,9,-68,-48,-102
9,-161,-170,75,90,-165,48,73,19,-58,-39,-92
14,-136,-151,61,82,-143,53,82,24,-43,-34,-82
14,-136,-151,61,82,-143,53,82,24,-34,-29,-82
24,-136,-161,56,92,-148,53,87,29,-29,-29,-82
19,-136,-156,58,87,-146,53,92,29,-29,-29,-78
9,-131,-141,61,75,-136,53,97,34,-24,-29,-78
9,-131,-141,61,75,-136,58,97,39,-24,-14,-78
9,-126,-136,58,73,-131,58,97,39,-19,-4,-73
19,-131,-151,56,85,-141,58,102,43,-24,-9,-73
19,-136,-156,58,87,-146,58,112,53,-24,-14,-68
19,-136,-156,58,87,-146,58,112,58,-24,-14,-63
19,-136,-156,58,87,-146,58,112,58,-24,-9,-58
14,-141,-156,63,85,-148,58,117,68,-19,-9,-58
9,-151,-161,70,85,-156,58,126,78,-14,-4,-58
14,-131,-146,58,80,-139,63,141,87,-4,-4,-53
24,-117,-141,46,82,-129,68,151,92,4,4,-48
34,-102,-136,34,85,-119,73,161,107,19,9,-43
48,-92,-141,21,95,-117,73,170,112,39,19,-29
48,-87,-136,19,92,-112,73,180,122,43,24,-24
58,-82,-141,12,100,-112,73,195,136,48,34,-19
53,-82,-136,14,95,-109,82,200,151,58,43,-14
53,-78,-131,12,92,-104,87,209,170,68,48,-9
53,-68,-122,7,87,-95,92,224,180,82,48,0
58,-58,-117,0,87,-87,92,244,200,92,58,9
68,-43,-112,-12,90,-78,92,268,214,107,73,14
68,-29,-97,-19,82,-63,92,273,234,131,97,29
73,-4,-78,-34,75,-41,92,292,253,151,107,39
82,19,-63,-51,73,-21,87,312,278,170,131,48
97,34,-63,-65,80,-14,87,331,292,190,151,73
102,48,-53,-75,78,-2,82,341,317,214,165,92
117,68,-48,-92,82,9,78,356,331,239,190,112
126,92,-34,-109,80,29,73,361,346,258,204,122
136,117,-19,-126,78,48,68,370,361,268,219,131
141,141,0,-141,70,70,63,375,366,283,234,146
156,151,-4,-153,80,73,53,375,380,312,258,161
161,170,9,-165,75,90,48,370,385,322,268,170
156,175,19,-165,68,97,39,370,385,326,278,180
151,185,34,-168,58,109,39,356,380,336,287,190
151,195,43,-173,53,119,29,346,366,346,297,200
146,200,53,-173,46,126,19,326,346,341,302,204
156,190,34,-173,61,112,14,297,312,317,283,200
141,170,29,-156,56,100,9,278,273,287,263,190
112,146,34,-129,39,90,0,234,229,253,234,161
87,117,29,-102,29,73,-9,200,190,224,204,146
82,92,9,-87,36,51,-9,175,156,175,175,122
68,63,-4,-65,36,29,-9,151,126,136,141,92
53,34,-19,-43,36,7,-9,117,87,102,112,68
29,0,-29,-14,29,-14,-9,92,58,78,87,43
24,-19,-43,-2,34,-31,-9,78,34,48,73,24
24,-24,-48,0,36,-36,-9,58,19,29,63,14
9,-39,-48,14,29,-43,-9,53,4,9,43,0
-4,-53,-48,29,21,-51,-9,39,-19,-4,29,-9
-14,-58,-43,36,14,-51,-9,34,-34,-14,19,-24
-14,-63,-48,39,17,-56,-9,24,-43,-24,9,-29
-19,-82,-63,51,21,-73,-19,14,-48,-34,0,-34
-29,-92,-63,61,17,-78,-24,4,-58,-43,-9,-39
-34,-97,-63,65,14,-80,-24,4,-58,-48,-14,-43
-34,-97,-63,65,14,-80,-24,0,-58,-58,-14,-43
-29,-97,-68,63,19,-82,-19,4,-58,-58,-14,-39
-24,-97,-73,61,24,-85,-14,9,-58,-53,-14,-34
-24,-92,-68,58,21,-80,-19,9,-58,-53,-14,-34
-24,-92,-68,58,21,-80,-19,9,-58,-63,-19,-39
-29,-92,-63,61,17,-78,-19,4,-68,-63,-14,-39
-29,-97,-68,63,19,-82,-19,4,-68,-63,-14,-39
-29,-97,-68,63,19,-82,-19,4,-68,-63,-14,-39
-29,-97,-68,63,19,-82,-24,0,-68,-68,-14,-39
-43,-102,-58,73,7,-80,-29,-4,-68,-68,-19,-39
-53,-97,-43,75,-4,-70,-29,-9,-68,-63,-19,-39
-48,-97,-48,73,0,-73,-29,-9,-68,-63,-19,-39
-48,-97,-48,73,0,-73,-29,-9,-68,-63,-19,-39
-48,-97,-48,73,0,-73,-24,-9,-68,-58,-14,-39
-48,-97,-48,73,0,-73,-19,-9,-68,-53,-9,-34
-39,-82,-43,61,2,-63,-19,0,-63,-53,-9,-29
-24,-68,-43,46,9,-56,-19,4,-53,-53,-9,-29
-24,-58,-34,41,4,-46,-14,4,-53,-53,-9,-29
-29,-58,-29,43,0,-43,-14,4,-53,-53,-9,-29
-39,-73,-34,56,-2,-53,-14,4,-53,-53,-9,-29
-43,-82,-39,63,-2,-61,-14,4,-53,-48,-9,-24
-43,-73,-29,58,-7,-51,-9,9,-48,-48,-9,-24
-43,-73,-29,58,-7,-51,-9,9,-48,-53,-9,-29
-43,-73,-29,58,-7,-51,-9,14,-48,-53,-9,-29
-43,-63,-19,53,-12,-41,-4,14,-43,-48,-9,-29
-43,-73,-29,58,-7,-51,-4,14,-43,-43,-9,-24
-43,-73,-29,58,-7,-51,-4,14,-39,-43,-4,-24
-43,-73,-29,58,-7,-51,-4,9,-39,-39,0,-24
-43,-73,-29,58,-7,-51,-4,4,-39,-39,0,-24
-39,-58,-19,48,-9,-39,0,9,-34,-34,0,-24
-34,-43,-9,39,-12,-26,0,9,-29,-34,0,-24
-29,-43,-14,36,-7,-29,0,19,-29,-34,0,-24
-29,-48,-19,39,-4,-34,0,24,-24,-34,0,-19
-43,-48,-4,46,-19,-26,0,24,-24,-34,4,-19
-53,-48,4,51,-29,-21,0,19,-24,-39,4,-19
-48,-48,0,48,-24,-24,0,19,-24,-39,0,-19
-48,-48,0,48,-24,-24,-4,19,-24,-34,-4,-19
-43,-43,0,43,-21,-21,-4,24,-29,-34,-4,-24
-43,-39,4,41,-24,-17,-9,24,-29,-29,0,-29
-48,-34,14,41,-31,-9,-9,24,-29,-29,4,-24
-48,-34,14,41,-31,-9,-4,19,-29,-29,4,-24
-48,-39,9,43,-29,-14,-4,14,-29,-29,4,-29
-53,-48,4,51,-29,-21,-9,14,-29,-34,0,-29
-48,-48,0,48,-24,-24,-9,14,-39,-39,-4,-29
-43,-48,-4,46,-19,-26,-9,14,-39,-39,-9,-29
-43,-43,0,43,-21,-21,-9,9,-39,-34,-9,-24
-43,-39,4,41,-24,-17,-9,9,-39,-34,-9,-19
-43,-43,0,43,-21,-21,-9,14,-34,-34,-9,-19
-48,-48,0,48,-24,-24,-9,14,-34,-34,-9,-19
-58,-48,9,53,-34,-19,-4,14,-39,-34,-9,-19
-63,-53,9,58,-36,-21,-4,14,-39,-29,-9,-24
-63,-48,14,56,-39,-17,-9,14,-34,-29,-9,-19
-63,-43,19,53,-41,-12,-14,4,-34,-29,-9,-14
-63,-43,19,53,-41,-12,-14,4,-39,-34,-14,-14
-63,-43,19,53,-41,-12,-14,4,-39,-34,-14,-14
-63,-48,14,56,-39,-17,-14,0,-39,-34,-14,-19
-68,-48,19,58,-43,-14,-14,-4,-39,-34,-14,-19
-68,-48,19,58,-43,-14,-14,-4,-39,-39,-14,-14
-68,-48,19,58,-43,-14,-14,-4,-43,-43,-14,-14
-73,-53,19,63,-46,-17,-19,0,-48,-43,-14,-19
-78,-53,24,65,-51,-14,-19,0,-48,-43,-14,-19
-78,-53,24,65,-51,-14,-19,-4,-48,-43,-19,-24
-73,-39,34,56,-53,-2,-14,0,-39,-39,-14,-14
-73,-39,34,56,-53,-2,-9,-4,-43,-39,-9,-9
-78,-39,39,58,-58,0,-9,-9,-48,-39,-9,-9
-78,-43,34,61,-56,-4,-9,-9,-48,-39,-14,-9
-78,-48,29,63,-53,-9,-9,-9,-48,-39,-19,-9
-73,-43,29,58,-51,-7,-4,-4,-43,-39,-14,-9
-68,-39,29,53,-48,-4,0,0,-39,-39,-9,-9
-68,-29,39,48,-53,4,0,0,-39,-34,-4,-9
-63,-14,48,39,-56,17,4,4,-24,-24,4,0
-58,0,58,29,-58,29,9,9,-9,-14,14,9
-58,14,73,21,-65,43,14,14,0,0,19,19
-68,34,102,17,-85,68,19,19,14,14,34,29
-78,43,122,17,-100,82,14,19,24,24,43,34
-68,68,136,0,-102,102,4,24,29,34,48,39
-53,87,141,-17,-97,114,-4,24,29,34,48,48
-39,97,136,-29,-87,117,-9,24,43,43,58,53
-34,112,146,-39,-90,129,-19,24,43,53,63,58
-34,122,156,-43,-95,139,-24,19,43,53,73,73
-34,126,161,-46,-97,143,-39,9,39,48,78,73
-34,126,161,-46,-97,143,-53,4,34,48,78,78
-24,117,141,-46,-82,129,-68,4,24,43,78,78
-29,117,146,-43,-87,131,-73,-4,14,39,73,73
-39,97,136,-29,-87,117,-73,-9,-4,24,58,63
-39,87,126,-24,-82,107,-73,-9,-9,24,58,63
-43,82,126,-19,-85,104,-73,-14,-19,24,58,63
-29,73,102,-21,-65,87,-73,-9,-24,19,48,53
-9,73,82,-31,-46,78,-68,0,-24,19,43,53
-9,73,82,-31,-46,78,-68,0,-24,14,43,53
-24,68,92,-21,-58,80,-63,0,-19,9,43,53
-34,63,97,-14,-65,80,-58,-9,-19,19,48,58
-39,58,97,-9,-68,78,-53,-14,-19,24,48,63
-48,34,82,7,-65,58,-39,-14,-34,0,29,34
-68,-19,48,43,-58,14,-29,-19,-58,-34,-4,-9
-87,-63,24,75,-56,-19,-29,-29,-73,-63,-39,-39
-102,-92,9,97,-56,-41,-29,-34,-73,-78,-58,-48
-107,-92,14,100,-61,-39,-29,-34,-73,-78,-58,-48
-107,-87,19,97,-63,-34,-29,-29,-73,-78,-53,-48
-97,-78,19,87,-58,-29,-24,-29,-73,-73,-53,-39
-92,-78,14,85,-53,-31,-24,-29,-73,-73,-48,-34
-92,-78,14,85,-53,-31,-24,-29,-73,-68,-48,-34
-92,-73,19,82,-56,-26,-24,-29,-78,-63,-48,-39
-92,-73,19,82,-56,-26,-24,-24,-78,-63,-48,-39
-92,-78,14,85,-53,-31,-19,-19,-78,-68,-53,-39
-97,-78,19,87,-58,-29,-19,-19,-73,-73,-53,-39
-102,-78,24,90,-63,-26,-19,-19,-73,-73,-53,-34
-102,-78,24,90,-63,-26,-19,-19,-73,-73,-53,-34
-107,-82,24,95,-65,-29,-14,-14,-68,-73,-53,-39
-97,-97,0,97,-48,-48,14,29,-53,-97,-73,-63
-78,-92,-14,85,-31,-53,24,58,-24,-92,-82,-68
-92,-78,14,85,-53,-31,24,48,-4,-73,-68,-68
-82,-39,43,61,-63,2,39,97,63,0,-19,-39
-24,19,43,2,-34,31,102,229,253,156,92,34
43,97,53,-70,-4,75,161,361,434,336,229,126
117,278,161,-197,-21,219,204,458,649,585,429,278
195,483,287,-339,-46,385,146,419,683,810,653,478
336,751,414,-544,-39,583,-175,175,395,1005,956,800
395,878,483,-636,-43,680,-507,-190,-53,936,1019,951
322,771,448,-546,-63,610,-800,-629,-605,566,795,878
258,497,239,-378,9,368,-922,-873,-980,131,448,644
141,-19,-161,-61,151,-90,-868,-985,-1332,-424,-9,283
29,-287,-317,129,173,-302,-785,-990,-1439,-692,-239,82
0,-268,-268,134,134,-268,-644,-780,-1180,-590,-195,68
-14,-229,-214,122,100,-222,-468,-522,-873,-483,-175,19
-24,-126,-102,75,39,-114,-258,-263,-512,-307,-117,0
-39,-97,-58,68,9,-78,-126,-107,-297,-200,-82,-19
-39,-97,-58,68,9,-78,-58,-24,-204,-161,-78,-39
-39,-97,-58,68,9,-78,4,43,-126,-131,-68,-43
-53,-92,-39,73,-7,-65,24,68,-68,-97,-63,-43
-68,-82,-14,75,-26,-48,29,78,-34,-78,-53,-43
-78,-73,4,75,-41,-34,29,68,-29,-68,-48,-39
-78,-68,9,73,-43,-29,29,58,-24,-68,-43,-39
-73,-63,9,68,-41,-26,34,68,-4,-63,-39,-43
-73,-63,9,68,-41,-26,48,82,14,-53,-34,-48
-78,-58,19,68,-48,-19,53,82,19,-43,-29,-48
-78,-58,19,68,-48,-19,53,82,19,-39,-29,-48
-78,-58,19,68,-48,-19,53,82,19,-39,-34,-48
-87,-63,24,75,-56,-19,58,82,29,-34,-34,-48
-87,-63,24,75,-56,-19,53,92,34,-34,-34,-48
-82,-58,24,70,-53,-17,48,92,34,-39,-39,-43
-82,-73,9,78,-46,-31,48,87,39,-39,-39,-43
-82,-87,-4,85,-39,-46,53,87,43,-39,-34,-43
-82,-68,14,75,-48,-26,53,92,43,-34,-29,-43
-82,-58,24,70,-53,-17,53,92,43,-29,-19,-43
-73,-53,19,63,-46,-17,53,97,48,-24,-19,-43
-73,-48,24,61,-48,-12,53,102,48,-19,-19,-39
-78,-43,34,61,-56,-4,53,107,53,-14,-24,-39
-78,-43,34,61,-56,-4,58,107,58,-14,-24,-39
-82,-43,39,63,-61,-2,63,107,58,-14,-29,-34
-78,-43,34,61,-56,-4,68,112,63,-14,-29,-34
-78,-39,39,58,-58,0,68,122,73,-4,-24,-34
-78,-39,39,58,-58,0,68,122,78,-4,-24,-39
-78,-48,29,63,-53,-9,68,122,73,-4,-19,-39
-78,-53,24,65,-51,-14,68,126,78,0,-19,-39
-68,-39,29,53,-48,-4,68,141,87,0,-14,-34
-53,-14,39,34,-46,12,68,156,97,4,-14,-24
-43,-9,34,26,-39,12,68,161,102,14,-4,-19
-43,-4,39,24,-41,17,73,170,117,19,-4,-19
-43,-9,34,26,-39,12,78,180,122,29,0,-14
-48,-9,39,29,-43,14,82,190,131,34,4,-14
-39,-4,34,21,-36,14,82,209,146,39,9,-9
-34,4,39,14,-36,21,87,224,161,53,19,0
-29,14,43,7,-36,29,87,239,180,68,24,9
-29,19,48,4,-39,34,92,253,190,82,24,19
-19,29,48,-4,-34,39,92,273,209,92,39,24
-9,43,53,-17,-31,48,92,297,224,112,53,24
-9,58,68,-24,-39,63,97,302,244,141,78,39
0,82,82,-41,-41,82,102,322,263,161,87,53
14,107,92,-61,-39,100,97,346,292,180,112,63
29,122,92,-75,-31,107,97,370,312,200,131,82
39,136,97,-87,-29,117,97,380,336,214,141,102
53,156,102,-104,-24,129,97,390,346,229,161,122
58,180,122,-119,-31,151,92,400,361,258,175,136
68,195,126,-131,-29,161,87,419,380,278,190,151
73,209,136,-141,-31,173,82,424,390,292,204,165
87,219,131,-153,-21,175,73,429,405,322,229,185
92,239,146,-165,-26,192,68,429,405,331,239,200
92,244,151,-168,-29,197,58,429,405,336,248,209
92,253,161,-173,-34,207,58,414,405,351,263,219
92,258,165,-175,-36,212,48,395,395,356,268,224
87,263,175,-175,-43,219,29,366,375,346,273,229
82,253,170,-168,-43,212,14,336,341,326,263,219
58,234,175,-146,-58,204,9,312,302,302,244,209
43,214,170,-129,-63,192,9,268,263,273,214,190
29,185,156,-107,-63,170,9,234,229,244,185,175
24,161,136,-92,-56,148,9,204,195,195,156,151
9,131,122,-70,-56,126,4,180,161,151,117,122
-4,102,107,-48,-56,104,0,146,122,112,82,97
-34,63,97,-14,-65,80,0,117,92,87,58,73
-43,39,82,2,-63,61,0,102,63,58,39,53
-43,34,78,4,-61,56,0,87,48,39,24,39
-53,14,68,19,-61,41,4,82,39,19,4,19
-63,-14,48,39,-56,17,9,68,19,4,-9,9
-73,-29,43,51,-58,7,9,63,9,-4,-19,-4
-82,-34,48,58,-65,7,9,48,0,-19,-34,-9
-92,-48,43,70,-68,-2,4,39,-9,-29,-43,-14
-97,-53,43,75,-70,-4,4,34,-24,-39,-48,-19
-102,-58,43,80,-73,-7,4,34,-29,-48,-53,-24
-97,-58,39,78,-68,-9,4,29,-29,-58,-53,-24
-92,-58,34,75,-63,-12,4,29,-29,-58,-53,-24
-92,-58,34,75,-63,-12,4,29,-29,-53,-53,-24
-92,-53,39,73,-65,-7,0,29,-29,-53,-53,-24
-97,-58,39,78,-68,-9,0,29,-29,-63,-58,-29
-107,-68,39,87,-73,-14,0,24,-39,-63,-58,-29
-107,-78,29,92,-68,-24,0,24,-39,-63,-63,-29
-107,-78,29,92,-68,-24,4,24,-39,-63,-63,-29
-107,-78,29,92,-68,-24,4,19,-39,-68,-68,-29
-107,-78,29,92,-68,-24,0,19,-39,-68,-73,-29
-107,-68,39,87,-73,-14,0,19,-39,-68,-68,-29
-107,-68,39,87,-73,-14,0,19,-39,-73,-68,-29
-107,-68,39,87,-73,-14,0,19,-39,-73,-68,-29
-107,-68,39,87,-73,-14,0,19,-39,-73,-68,-29
-97,-63,34,80,-65,-14,0,24,-39,-68,-63,-24
-92,-58,34,75,-63,-12,0,34,-39,-63,-58,-24
-92,-58,34,75,-63,-12,0,34,-29,-63,-58,-29
-92,-58,34,75,-63,-12,4,34,-24,-63,-58,-29
-97,-68,29,82,-63,-19,4,34,-24,-63,-58,-29
-102,-68,34,85,-68,-17,4,34,-24,-63,-58,-29
-112,-78,34,95,-73,-21,4,34,-24,-58,-58,-24
-117,-82,34,100,-75,-24,9,39,-19,-58,-58,-24
-112,-82,29,97,-70,-26,9,39,-19,-63,-58,-29
-112,-82,29,97,-70,-26,9,43,-19,-63,-58,-29
-102,-63,39,82,-70,-12,14,43,-14,-58,-63,-29
-92,-63,29,78,-61,-17,14,43,-14,-53,-68,-24
-92,-63,29,78,-61,-17,14,43,-9,-53,-63,-24
-92,-63,29,78,-61,-17,14,43,-9,-48,-58,-24
-97,-73,24,85,-61,-24,14,43,-9,-48,-58,-24
-102,-78,24,90,-63,-26,14,48,-9,-43,-58,-24
-112,-73,39,92,-75,-17,9,48,-9,-43,-58,-24
-117,-73,43,95,-80,-14,9,53,-9,-43,-58,-24
-102,-68,34,85,-68,-17,14,53,-4,-43,-58,-19
-92,-58,34,75,-63,-12,19,53,-4,-43,-53,-19
-92,-58,34,75,-63,-12,19,48,-4,-48,-53,-19
-87,-58,29,73,-58,-14,24,48,-4,-48,-53,-19
-92,-68,24,80,-58,-21,24,48,-4,-48,-53,-19
-92,-73,19,82,-56,-26,24,53,-4,-53,-53,-19
-92,-68,24,80,-58,-21,19,58,0,-48,-48,-19
-97,-68,29,82,-63,-19,19,63,0,-48,-48,-14
-97,-68,29,82,-63,-19,24,58,0,-43,-53,-14
-97,-68,29,82,-63,-19,24,53,0,-39,-53,-19
-102,-78,24,90,-63,-26,19,53,4,-43,-58,-19
-102,-78,24,90,-63,-26,19,53,0,-48,-58,-19
-97,-78,19,87,-58,-29,24,53,0,-48,-58,-19
-92,-73,19,82,-56,-26,29,48,0,-43,-58,-19
-92,-68,24,80,-58,-21,29,48,0,-43,-58,-19
-87,-68,19,78,-53,-24,29,53,4,-43,-58,-19
-87,-73,14,80,-51,-29,24,53,4,-43,-58,-19
-92,-78,14,85,-53,-31,24,53,0,-48,-58,-19
-92,-82,9,87,-51,-36,24,53,0,-48,-58,-24
-92,-82,9,87,-51,-36,19,53,0,-48,-58,-24
-92,-82,9,87,-51,-36,14,43,-4,-48,-58,-24
-92,-82,9,87,-51,-36,14,43,-9,-53,-63,-24
-97,-82,14,90,-56,-34,14,43,-9,-53,-63,-24
-102,-87,14,95,-58,-36,14,43,-9,-53,-63,-29
-117,-97,19,107,-68,-39,14,39,-14,-58,-63,-29
-126,-107,19,117,-73,-43,14,34,-14,-63,-63,-24
-107,-97,9,102,-58,-43,19,34,-14,-63,-63,-24
-87,-87,0,87,-43,-43,19,39,-19,-63,-63,-29
-87,-82,4,85,-46,-39,19,39,-19,-63,-63,-29
-87,-78,9,82,-48,-34,24,34,-14,-58,-58,-24
-102,-78,24,90,-63,-26,19,34,-14,-58,-58,-24
-117,-82,34,100,-75,-24,19,39,-19,-58,-63,-29
-107,-82,24,95,-65,-29,19,39,-19,-58,-63,-29
-97,-87,9,92,-53,-39,19,39,-19,-58,-68,-29
-97,-87,9,92,-53,-39,19,39,-19,-58,-68,-29
-97,-87,9,92,-53,-39,19,39,-19,-58,-68,-29
-97,-78,19,87,-58,-29,19,39,-19,-58,-63,-29
-87,-63,24,75,-56,-19,24,43,-4,-48,-48,-19
-82,-48,34,65,-58,-7,34,48,9,-43,-39,-9
-78,-34,43,56,-61,4,43,53,19,-29,-29,0
-63,0,63,31,-63,31,48,63,34,-14,-14,9
-48,24,73,12,-61,48,43,68,43,-4,-4,14
-68,29,97,19,-82,63,34,68,48,4,0,19
-82,29,112,26,-97,70,24,63,48,4,0,29
-68,39,107,14,-87,73,19,63,63,14,9,34
-63,53,117,4,-90,85,9,63,63,24,14,39
-58,63,122,-2,-90,92,4,58,68,34,29,58
-53,68,122,-7,-87,95,-9,48,68,39,39,63
-53,68,122,-7,-87,95,-24,43,63,39,39,68
-43,58,102,-7,-73,80,-39,43,53,34,39,68
-39,58,97,-9,-68,78,-43,39,43,24,29,63
-39,39,78,0,-58,58,-43,39,24,4,9,53
-34,34,68,0,-51,51,-43,39,19,0,9,53
-34,34,68,0,-51,51,-43,34,9,-4,9,53
-34,19,53,7,-43,36,-43,29,0,-9,0,43
-29,14,43,7,-36,29,-39,29,-4,-9,-4,43
-29,4,34,12,-31,19,-34,29,-9,-14,-4,43
-43,-9,34,26,-39,12,-24,29,-9,-19,-4,43
-53,0,53,26,-53,26,-19,24,-4,-9,4,43
-58,9,68,24,-63,39,-14,24,0,-4,9,43
-63,-24,39,43,-51,7,-4,24,-4,-29,-9,24
-78,-87,-9,82,-34,-48,0,19,-19,-63,-43,-9
-97,-126,-29,112,-34,-78,0,9,-48,-87,-78,-43
-112,-151,-39,131,-36,-95,0,4,-63,-97,-97,-58
-117,-151,-34,134,-41,-92,0,4,-63,-97,-97,-58
-117,-146,-29,131,-43,-87,0,9,-63,-97,-92,-58
-107,-136,-29,122,-39,-82,9,9,-63,-92,-92,-53
-102,-136,-34,119,-34,-85,14,9,-63,-92,-87,-53
-107,-146,-39,126,-34,-92,14,9,-58,-92,-87,-53
-112,-151,-39,131,-36,-95,14,9,-58,-92,-87,-58
-112,-141,-29,126,-41,-85,9,9,-58,-92,-87,-58
-112,-136,-24,124,-43,-80,9,9,-58,-97,-92,-58
-107,-136,-29,122,-39,-82,9,9,-53,-97,-92,-58
-102,-136,-34,119,-34,-85,9,9,-53,-92,-92,-53
-102,-136,-34,119,-34,-85,9,4,-58,-92,-92,-53
-107,-141,-34,124,-36,-87,14,4,-58,-92,-92,-58
-112,-165,-53,139,-29,-109,43,48,-53,-122,-117,-87
-107,-170,-63,139,-21,-117,53,78,-34,-122,-131,-97
-112,-156,-43,134,-34,-100,53,63,-9,-107,-117,-92
-92,-117,-24,104,-34,-70,68,107,63,-39,-68,-58
-24,-53,-29,39,2,-41,131,248,239,107,34,4
53,29,-24,-41,39,2,190,390,405,278,161,87
117,195,78,-156,19,136,258,517,663,527,361,239
185,385,200,-285,-7,292,224,507,741,751,585,439
336,658,322,-497,7,490,-82,258,483,976,907,761
405,790,385,-597,9,588,-400,-112,63,936,990,912
326,727,400,-527,-36,563,-722,-580,-497,600,800,878
258,497,239,-378,9,368,-873,-854,-883,200,488,683
141,-58,-200,-41,170,-129,-839,-1000,-1278,-409,-24,283
29,-366,-395,168,212,-380,-775,-1039,-1429,-732,-307,43
0,-346,-346,173,173,-346,-649,-839,-1195,-639,-263,29
-14,-307,-292,161,139,-300,-488,-590,-912,-541,-244,-19
-14,-209,-195,112,90,-202,-253,-287,-531,-356,-180,-29
-19,-185,-165,102,73,-175,-97,-87,-297,-239,-141,-39
-19,-170,-151,95,65,-161,-39,-9,-204,-195,-131,-58
-19,-156,-136,87,58,-146,14,53,-126,-161,-117,-63
-34,-165,-131,100,48,-148,43,82,-58,-122,-107,-63
-48,-170,-122,109,36,-146,58,97,-14,-97,-92,-63
-73,-161,-87,117,7,-124,58,87,-14,-82,-87,-58
-87,-156,-68,122,-9,-112,58,78,-14,-78,-82,-58
-82,-151,-68,117,-7,-109,63,87,9,-73,-78,-58
-82,-151,-68,117,-7,-109,78,102,34,-63,-73,-58
-73,-136,-63,104,-4,-100,82,102,34,-58,-68,-58
-58,-126,-68,92,4,-97,82,102,29,-58,-68,-58
-58,-126,-68,92,4,-97,82,102,29,-58,-73,-58
-68,-131,-63,100,-2,-97,87,102,39,-53,-73,-58
-73,-131,-58,102,-7,-95,87,112,43,-43,-68,-58
-73,-126,-53,100,-9,-90,87,112,43,-39,-68,-53
-73,-126,-53,100,-9,-90,87,107,48,-39,-68,-53
-73,-126,-53,100,-9,-90,92,107,53,-39,-63,-53
-73,-122,-48,97,-12,-85,92,112,53,-39,-63,-53
-73,-126,-53,100,-9,-90,92,112,53,-39,-58,-53
-63,-126,-63,95,0,-95,92,117,58,-39,-58,-58
-63,-126,-63,95,0,-95,92,122,58,-39,-58,-58
-78,-126,-48,102,-14,-87,92,126,63,-34,-58,-58
-87,-131,-43,109,-21,-87,97,126,68,-34,-53,-58
-78,-126,-48,102,-14,-87,97,126,68,-29,-53,-53
-58,-122,-63,90,2,-92,97,131,73,-24,-48,-53
-58,-112,-53,85,-2,-82,97,141,82,-14,-43,-43
-58,-107,-48,82,-4,-78,97,141,87,-14,-43,-39
-58,-107,-48,82,-4,-78,97,141,82,-14,-39,-39
-58,-102,-43,80,-7,-73,97,146,87,-9,-39,-39
-58,-102,-43,80,-7,-73,97,156,97,-4,-34,-39
-53,-92,-39,73,-7,-65,97,165,107,4,-34,-34
-43,-87,-43,65,0,-65,97,165,112,14,-24,-29
-43,-82,-39,63,-2,-61,102,170,126,19,-24,-29
-39,-82,-43,61,2,-63,102,180,131,29,-19,-19
-39,-78,-39,58,0,-58,102,190,141,34,-14,-14
-24,-73,-48,48,12,-61,102,204,156,34,-9,-9
-14,-63,-48,39,17,-56,107,214,170,43,0,0
-4,-48,-43,26,19,-46,107,229,185,58,9,4
0,-39,-39,19,19,-39,112,244,190,73,14,9
9,-34,-43,12,26,-39,112,258,209,78,24,19
19,-24,-43,2,31,-34,112,278,224,92,34,24
19,-9,-29,-4,24,-19,112,283,244,122,58,39
29,14,-14,-21,21,0,112,302,263,141,68,53
43,39,-4,-41,24,17,112,326,287,161,92,63
58,53,-4,-56,31,24,117,351,302,180,112,82
58,63,4,-61,26,34,112,366,326,204,126,102
63,78,14,-70,24,46,107,380,336,229,151,122
68,102,34,-85,17,68,102,380,351,248,165,131
