I,II,III,aVR,aVL,aVF,V1,V2,V3,V4,V5,V6,
224,312,87,-268,68,200,39,614,341,234,126,78
224,312,87,-268,68,200,39,614,341,234,126,78
224,312,87,-268,68,200,39,614,341,234,126,78
224,312,87,-268,68,200,39,614,341,234,126,78
224,312,87,-268,68,200,29,600,331,234,126,78
224,312,87,-268,68,200,19,585,331,234,126,78
224,312,87,-268,68,200,9,570,331,234,126,78
224,312,87,-268,68,200,0,556,331,234,126,78
219,297,78,-258,70,187,-4,536,326,229,126,87
214,292,78,-253,68,185,-9,517,322,224,126,87
209,287,78,-248,65,183,-14,497,317,219,126,87
204,283,78,-244,63,180,-19,478,312,214,126,87
195,273,78,-234,58,175,-29,453,297,200,122,78
185,263,78,-224,53,170,-29,429,283,195,117,78
175,253,78,-214,48,165,-29,405,268,190,112,78
165,244,78,-204,43,161,-29,380,253,185,107,78
156,229,73,-192,41,151,-29,356,234,170,102,68
146,214,68,-180,39,141,-29,331,224,165,97,68
136,200,63,-168,36,131,-29,307,214,161,92,68
126,185,58,-156,34,122,-29,283,204,156,87,68
117,180,63,-148,26,122,-39,253,195,141,87,68
117,175,58,-146,29,117,-39,234,185,136,87,68
117,170,53,-143,31,112,-39,214,175,131,87,68
117,165,48,-141,34,107,-39,195,165,126,87,68
107,156,48,-131,29,102,-39,170,146,112,82,63
97,146,48,-122,24,97,-39,156,136,107,78,58
87,136,48,-112,19,92,-39,141,126,102,73,53
78,126,48,-102,14,87,-39,126,117,97,68,48
63,107,43,-85,9,75,-39,112,97,87,63,43
58,97,39,-78,9,68,-39,97,87,78,58,39
53,87,34,-70,9,61,-39,82,78,68,53,34
48,78,29,-63,9,53,-39,68,68,58,48,29
39,63,24,-51,7,43,-39,58,58,53,43,19
39,58,19,-48,9,39,-39,48,48,48,39,19
39,53,14,-46,12,34,-39,39,39,43,34,19
39,48,9,-43,14,29,-39,29,29,39,29,19
34,34,0,-34,17,17,-29,14,24,24,24,9
29,29,0,-29,14,14,-29,9,19,19,19,9
24,24,0,-24,12,12,-29,4,14,14,14,9
19,19,0,-19,9,9,-29,0,9,9,9,9
4,14,9,-9,-2,12,-29,-4,-4,0,9,9
0,9,9,-4,-4,9,-29,-9,-9,0,9,9
-4,4,9,0,-7,7,-29,-14,-14,0,9,9
-9,0,9,4,-9,4,-29,-19,-19,0,9,9
-19,-14,4,17,-12,-4,-29,-24,-29,-4,0,4
-19,-19,0,19,-9,-9,-29,-29,-29,-9,0,0
-19,-24,-4,21,-7,-14,-29,-34,-29,-14,0,-4
-19,-29,-9,24,-4,-19,-29,-39,-29,-19,0,-9
-9,-19,-9,14,0,-14,-19,-39,-39,-19,0,-9
-9,-19,-9,14,0,-14,-19,-39,-39,-19,0,-9
-9,-19,-9,14,0,-14,-19,-39,-39,-19,0,-9
-9,-19,-9,14,0,-14,-19,-39,-39,-19,0,-9
-19,-29,-9,24,-4,-19,-29,-39,-39,-29,-9,-19
-19,-29,-9,24,-4,-19,-29,-39,-39,-29,-9,-19
-19,-29,-9,24,-4,-19,-29,-39,-39,-29,-9,-19
-19,-29,-9,24,-4,-19,-29,-39,-39,-29,-9,-19
-29,-34,-4,31,-12,-19,-19,-48,-48,-39,-14,-29
-29,-39,-9,34,-9,-24,-19,-48,-48,-39,-19,-29
-29,-43,-14,36,-7,-29,-19,-48,-48,-39,-24,-29
-29,-48,-19,39,-4,-34,-19,-48,-48,-39,-29,-29
-34,-58,-24,46,-4,-41,-9,-58,-58,-39,-29,-29
-39,-58,-19,48,-9,-39,-9,-58,-58,-39,-29,-29
-43,-58,-14,51,-14,-36,-9,-58,-58,-39,-29,-29
-48,-58,-9,53,-19,-34,-9,-58,-58,-39,-29,-29
-58,-58,0,58,-29,-29,0,-58,-58,-48,-29,-29
-58,-58,0,58,-29,-29,0,-58,-58,-48,-29,-29
-58,-58,0,58,-29,-29,0,-58,-58,-48,-29,-29
-58,-58,0,58,-29,-29,0,-58,-58,-48,-29,-29
-43,-43,0,43,-21,-21,-9,-48,-48,-39,-19,-19
-39,-39,0,39,-19,-19,-9,-48,-48,-39,-19,-19
-34,-34,0,34,-17,-17,-9,-48,-48,-39,-19,-19
-29,-29,0,29,-14,-14,-9,-48,-48,-39,-19,-19
-19,-19,0,19,-9,-9,-9,-48,-39,-29,-9,-9
-19,-19,0,19,-9,-9,-9,-48,-39,-29,-9,-9
-19,-19,0,19,-9,-9,-9,-48,-39,-29,-9,-9
-19,-19,0,19,-9,-9,-9,-48,-39,-29,-9,-9
-24,-24,0,24,-12,-12,0,-48,-48,-39,-19,-19
-29,-29,0,29,-14,-14,0,-48,-48,-39,-19,-19
-34,-34,0,34,-17,-17,0,-48,-48,-39,-19,-19
-39,-39,0,39,-19,-19,0,-48,-48,-39,-19,-19
-53,-53,0,53,-26,-26,0,-58,-58,-48,-29,-29
-58,-58,0,58,-29,-29,0,-58,-58,-48,-29,-29
-63,-63,0,63,-31,-31,0,-58,-58,-48,-29,-29
-68,-68,0,68,-34,-34,0,-58,-58,-48,-29,-29
-68,-78,-9,73,-29,-43,9,-58,-68,-58,-39,-39
-68,-78,-9,73,-29,-43,9,-58,-68,-58,-39,-39
-68,-78,-9,73,-29,-43,9,-58,-68,-58,-39,-39
-68,-78,-9,73,-29,-43,9,-58,-68,-58,-39,-39
-58,-68,-9,63,-24,-39,9,-48,-58,-48,-39,-29
-58,-68,-9,63,-24,-39,9,-48,-58,-48,-39,-29
-58,-68,-9,63,-24,-39,9,-48,-58,-48,-39,-29
-58,-68,-9,63,-24,-39,9,-48,-58,-48,-39,-29
-53,-53,0,53,-26,-26,9,-39,-58,-39,-29,-29
-48,-48,0,48,-24,-24,9,-39,-58,-39,-29,-29
-43,-43,0,43,-21,-21,9,-39,-58,-39,-29,-29
-39,-39,0,39,-19,-19,9,-39,-58,-39,-29,-29
-29,-29,0,29,-14,-14,0,-29,-53,-39,-19,-19
-29,-29,0,29,-14,-14,0,-29,-48,-39,-19,-19
-29,-29,0,29,-14,-14,0,-29,-43,-39,-19,-19
-29,-29,0,29,-14,-14,0,-29,-39,-39,-19,-19
-29,-29,0,29,-14,-14,0,-29,-39,-39,-19,-19
-29,-29,0,29,-14,-14,0,-29,-39,-39,-19,-19
-29,-29,0,29,-14,-14,0,-29,-39,-39,-19,-19
-29,-29,0,29,-14,-14,0,-29,-39,-39,-19,-19
-34,-39,-4,36,-14,-21,9,-29,-48,-29,-19,-29
-39,-39,0,39,-19,-19,9,-29,-48,-29,-19,-29
-43,-39,4,41,-24,-17,9,-29,-48,-29,-19,-29
-48,-39,9,43,-29,-14,9,-29,-48,-29,-19,-29
-48,-39,9,43,-29,-14,9,-39,-48,-29,-19,-19
-48,-39,9,43,-29,-14,9,-39,-48,-29,-19,-19
-48,-39,9,43,-29,-14,9,-39,-48,-29,-19,-19
-48,-39,9,43,-29,-14,9,-39,-48,-29,-19,-19
-48,-39,9,43,-29,-14,0,-39,-39,-29,-19,-19
-48,-39,9,43,-29,-14,0,-39,-39,-29,-19,-19
-48,-39,9,43,-29,-14,0,-39,-39,-29,-19,-19
-48,-39,9,43,-29,-14,0,-39,-39,-29,-19,-19
-39,-39,0,39,-19,-19,9,-39,-39,-29,-19,-19
-39,-39,0,39,-19,-19,9,-39,-39,-29,-19,-19
-39,-39,0,39,-19,-19,9,-39,-39,-29,-19,-19
-39,-39,0,39,-19,-19,9,-39,-39,-29,-19,-19
-29,-39,-9,34,-9,-24,9,-29,-39,-39,-19,-19
-29,-39,-9,34,-9,-24,9,-29,-39,-39,-19,-19
-29,-39,-9,34,-9,-24,9,-29,-39,-39,-19,-19
-29,-39,-9,34,-9,-24,9,-29,-39,-39,-19,-19
-39,-48,-9,43,-14,-29,0,-29,-48,-39,-19,-19
-39,-48,-9,43,-14,-29,0,-29,-48,-39,-19,-19
-39,-48,-9,43,-14,-29,0,-29,-48,-39,-19,-19
-39,-48,-9,43,-14,-29,0,-29,-48,-39,-19,-19
-48,-58,-9,53,-19,-34,0,-39,-48,-39,-29,-29
-48,-58,-9,53,-19,-34,0,-39,-48,-39,-29,-29
-48,-58,-9,53,-19,-34,0,-39,-48,-39,-29,-29
-48,-58,-9,53,-19,-34,0,-39,-48,-39,-29,-29
-53,-58,-4,56,-24,-31,9,-43,-48,-39,-29,-29
-58,-58,0,58,-29,-29,9,-48,-48,-39,-29,-29
-63,-58,4,61,-34,-26,9,-53,-48,-39,-29,-29
-68,-58,9,63,-39,-24,9,-58,-48,-39,-29,-29
-68,-58,9,63,-39,-24,9,-58,-39,-29,-19,-29
-68,-58,9,63,-39,-24,9,-58,-39,-29,-19,-29
-68,-58,9,63,-39,-24,9,-58,-39,-29,-19,-29
-68,-58,9,63,-39,-24,9,-58,-39,-29,-19,-29
-58,-43,14,51,-36,-14,9,-58,-39,-29,-19,-19
-58,-39,19,48,-39,-9,9,-58,-39,-29,-19,-19
-58,-34,24,46,-41,-4,9,-58,-39,-29,-19,-19
-58,-29,29,43,-43,0,9,-58,-39,-29,-19,-19
-53,-14,39,34,-46,12,0,-58,-29,-19,-14,-14
-48,-9,39,29,-43,14,0,-58,-29,-19,-9,-9
-43,-4,39,24,-41,17,0,-58,-29,-19,-4,-4
-39,0,39,19,-39,19,0,-58,-29,-19,0,0
-39,-9,29,24,-34,9,-4,-58,-39,-19,0,0
-39,-9,29,24,-34,9,-9,-58,-39,-19,0,0
-39,-9,29,24,-34,9,-14,-58,-39,-19,0,0
-39,-9,29,24,-34,9,-19,-58,-39,-19,0,0
-43,-14,29,29,-36,7,-19,-58,-48,-29,-4,-4
-48,-19,29,34,-39,4,-19,-58,-48,-29,-9,-9
-53,-24,29,39,-41,2,-19,-58,-48,-29,-14,-14
-58,-29,29,43,-43,0,-19,-58,-48,-29,-19,-19
-63,-43,19,53,-41,-12,-14,-68,-58,-39,-29,-29
-68,-48,19,58,-43,-14,-9,-68,-58,-39,-29,-29
-73,-53,19,63,-46,-17,-4,-68,-58,-39,-29,-29
-78,-58,19,68,-48,-19,0,-68,-58,-39,-29,-29
-87,-63,24,75,-56,-19,9,-78,-68,-48,-39,-39
-87,-68,19,78,-53,-24,9,-78,-68,-48,-39,-39
-87,-73,14,80,-51,-29,9,-78,-68,-48,-39,-39
-87,-78,9,82,-48,-34,9,-78,-68,-48,-39,-39
-73,-68,4,70,-39,-31,9,-78,-78,-58,-48,-39
-68,-68,0,68,-34,-34,9,-78,-78,-58,-48,-39
-63,-68,-4,65,-29,-36,9,-78,-78,-58,-48,-39
-58,-68,-9,63,-24,-39,9,-78,-78,-58,-48,-39
-39,-58,-19,48,-9,-39,4,-73,-73,-53,-43,-29
-29,-48,-19,39,-4,-34,0,-68,-68,-48,-39,-29
-19,-39,-19,29,0,-29,-4,-63,-63,-43,-34,-29
-9,-29,-19,19,4,-24,-9,-58,-58,-39,-29,-29
0,-24,-24,12,12,-24,-14,-48,-48,-29,-19,-19
0,-19,-19,9,9,-19,-19,-48,-48,-29,-19,-19
0,-14,-14,7,7,-14,-24,-48,-48,-29,-19,-19
0,-9,-9,4,4,-9,-29,-48,-48,-29,-19,-19
-19,-24,-4,21,-7,-14,-29,-53,-58,-39,-29,-19
-29,-29,0,29,-14,-14,-29,-58,-58,-39,-29,-19
-39,-34,4,36,-21,-14,-29,-63,-58,-39,-29,-19
-48,-39,9,43,-29,-14,-29,-68,-58,-39,-29,-19
-63,-53,9,58,-36,-21,-19,-73,-68,-43,-39,-24
-78,-68,9,73,-43,-29,-19,-78,-68,-48,-39,-29
-92,-82,9,87,-51,-36,-19,-82,-68,-53,-39,-34
-107,-97,9,102,-58,-43,-19,-87,-68,-58,-39,-39
-112,-107,4,109,-58,-51,-9,-97,-78,-68,-48,-48
-117,-107,9,112,-63,-48,0,-97,-78,-68,-48,-48
-122,-107,14,114,-68,-46,9,-97,-78,-68,-48,-48
-126,-107,19,117,-73,-43,19,-97,-78,-68,-48,-48
-112,-107,4,109,-58,-51,29,-87,-87,-68,-48,-48
-107,-107,0,107,-53,-53,29,-87,-87,-68,-48,-48
-102,-107,-4,104,-48,-56,29,-87,-87,-68,-48,-48
-97,-107,-9,102,-43,-58,29,-87,-87,-68,-48,-48
-82,-102,-19,92,-31,-61,19,-78,-87,-68,-48,-48
-78,-97,-19,87,-29,-58,19,-78,-87,-68,-48,-48
-73,-92,-19,82,-26,-56,19,-78,-87,-68,-48,-48
-68,-87,-19,78,-24,-53,19,-78,-87,-68,-48,-48
-58,-73,-14,65,-21,-43,14,-68,-78,-63,-39,-39
-48,-68,-19,58,-14,-43,9,-68,-78,-58,-39,-39
-39,-63,-24,51,-7,-43,4,-68,-78,-53,-39,-39
-29,-58,-29,43,0,-43,0,-68,-78,-48,-39,-39
-19,-53,-34,36,7,-43,-4,-58,-73,-39,-29,-29
-19,-48,-29,34,4,-39,-9,-58,-68,-39,-29,-29
-19,-43,-24,31,2,-34,-14,-58,-63,-39,-29,-29
-19,-39,-19,29,0,-29,-19,-58,-58,-39,-29,-29
-24,-48,-24,36,0,-36,-19,-68,-58,-39,-29,-29
-29,-48,-19,39,-4,-34,-19,-68,-58,-39,-29,-29
-34,-48,-14,41,-9,-31,-19,-68,-58,-39,-29,-29
-39,-48,-9,43,-14,-29,-19,-68,-58,-39,-29,-29
-58,-68,-9,63,-24,-39,-14,-73,-63,-43,-34,-39
-68,-78,-9,73,-29,-43,-9,-78,-68,-48,-39,-39
-78,-87,-9,82,-34,-48,-4,-82,-73,-53,-43,-39
-87,-97,-9,92,-39,-53,0,-87,-78,-58,-48,-39
-102,-112,-9,107,-46,-61,4,-97,-87,-68,-48,-48
-107,-117,-9,112,-48,-63,9,-97,-87,-68,-48,-48
-112,-122,-9,117,-51,-65,14,-97,-87,-68,-48,-48
-117,-126,-9,122,-53,-68,19,-97,-87,-68,-48,-48
-112,-122,-9,117,-51,-65,19,-97,-87,-58,-48,-48
-107,-117,-9,112,-48,-63,19,-97,-87,-58,-48,-48
-102,-112,-9,107,-46,-61,19,-97,-87,-58,-48,-48
-97,-107,-9,102,-43,-58,19,-97,-87,-58,-48,-48
-92,-102,-9,97,-41,-56,9,-87,-82,-48,-39,-39
-87,-97,-9,92,-39,-53,9,-87,-78,-48,-39,-39
-82,-92,-9,87,-36,-51,9,-87,-73,-48,-39,-39
-78,-87,-9,82,-34,-48,9,-87,-68,-48,-39,-39
-73,-82,-9,78,-31,-46,0,-78,-68,-48,-29,-29
-68,-78,-9,73,-29,-43,0,-78,-68,-48,-29,-29
-63,-73,-9,68,-26,-41,0,-78,-68,-48,-29,-29
-58,-68,-9,63,-24,-39,0,-78,-68,-48,-29,-29
-43,-53,-9,48,-17,-31,0,-78,-58,-48,-29,-19
-39,-48,-9,43,-14,-29,0,-78,-58,-48,-29,-19
-34,-43,-9,39,-12,-26,0,-78,-58,-48,-29,-19
-29,-39,-9,34,-9,-24,0,-78,-58,-48,-29,-19
-29,-34,-4,31,-12,-19,-9,-68,-48,-43,-19,-9
-29,-29,0,29,-14,-14,-9,-68,-48,-39,-19,-9
-29,-24,4,26,-17,-9,-9,-68,-48,-34,-19,-9
-29,-19,9,24,-19,-4,-9,-68,-48,-29,-19,-9
-19,-9,9,14,-14,0,-9,-58,-39,-19,-14,0
-19,-9,9,14,-14,0,-9,-58,-39,-19,-9,0
-19,-9,9,14,-14,0,-9,-58,-39,-19,-4,0
-19,-9,9,14,-14,0,-9,-58,-39,-19,0,0
-29,-19,9,24,-19,-4,0,-58,-39,-19,0,9
-29,-19,9,24,-19,-4,0,-58,-39,-19,0,9
-29,-19,9,24,-19,-4,0,-58,-39,-19,0,9
-29,-19,9,24,-19,-4,0,-58,-39,-19,0,9
-29,-19,9,24,-19,-4,9,-58,-29,-19,0,9
-29,-19,9,24,-19,-4,9,-58,-29,-19,0,9
-29,-19,9,24,-19,-4,9,-58,-29,-19,0,9
-29,-19,9,24,-19,-4,9,-58,-29,-19,0,9
-39,-9,29,24,-34,9,0,-58,-29,-19,0,9
-39,-9,29,24,-34,9,0,-58,-29,-19,0,9
-39,-9,29,24,-34,9,0,-58,-29,-19,0,9
-39,-9,29,24,-34,9,0,-58,-29,-19,0,9
-29,0,29,14,-29,14,-14,-68,-29,-19,9,9
-29,0,29,14,-29,14,-19,-68,-29,-19,9,9
-29,0,29,14,-29,14,-24,-68,-29,-19,9,9
-29,0,29,14,-29,14,-29,-68,-29,-19,9,9
-19,-9,9,14,-14,0,-34,-78,-39,-19,9,9
-19,-9,9,14,-14,0,-39,-78,-39,-19,9,9
-19,-9,9,14,-14,0,-43,-78,-39,-19,9,9
-19,-9,9,14,-14,0,-48,-78,-39,-19,9,9
-19,-19,0,19,-9,-9,-48,-87,-39,-19,0,9
-19,-19,0,19,-9,-9,-48,-87,-39,-19,0,9
-19,-19,0,19,-9,-9,-48,-87,-39,-19,0,9
-19,-19,0,19,-9,-9,-48,-87,-39,-19,0,9
-19,-24,-4,21,-7,-14,-48,-97,-43,-29,0,9
-19,-29,-9,24,-4,-19,-43,-97,-48,-34,-9,0
-24,-34,-9,29,-7,-21,-43,-97,-48,-39,-9,-4
-29,-39,-9,34,-9,-24,-39,-97,-53,-39,-14,-4
-24,-34,-9,29,-7,-21,-34,-102,-58,-43,-19,-9
-24,-43,-19,34,-2,-31,-34,-102,-58,-48,-19,-9
-24,-48,-24,36,0,-36,-34,-102,-63,-48,-24,-14
-24,-53,-29,39,2,-41,-29,-102,-63,-48,-24,-14
-19,-48,-29,34,4,-39,-39,-92,-58,-48,-14,-4
-14,-48,-34,31,9,-41,-39,-92,-58,-53,-14,-4
-9,-43,-34,26,12,-39,-39,-92,-58,-53,-19,-4
-4,-39,-34,21,14,-36,-34,-87,-58,-53,-19,-9
4,-29,-34,12,19,-31,-43,-78,-48,-48,-19,0
4,-34,-39,14,21,-36,-43,-78,-53,-43,-19,0
9,-34,-43,12,26,-39,-43,-78,-53,-43,-19,0
9,-34,-43,12,26,-39,-43,-78,-53,-39,-19,0
0,-43,-43,21,21,-43,-43,-82,-63,-39,-19,-9
0,-43,-43,21,21,-43,-43,-82,-63,-39,-19,-9
4,-43,-48,19,26,-46,-43,-82,-63,-39,-19,-9
4,-43,-48,19,26,-46,-43,-82,-63,-39,-19,-9
-4,-63,-58,34,26,-61,-39,-82,-73,-43,-24,-24
-14,-68,-53,41,19,-61,-34,-82,-73,-48,-29,-24
-19,-78,-58,48,19,-68,-24,-82,-73,-53,-39,-24
-29,-87,-58,58,14,-73,-19,-82,-78,-58,-43,-24
-34,-102,-68,68,17,-85,-9,-92,-87,-68,-43,-39
-43,-102,-58,73,7,-80,-4,-92,-87,-68,-43,-43
-53,-107,-53,80,0,-80,-4,-97,-92,-68,-48,-43
-53,-112,-58,82,2,-85,0,-97,-92,-68,-48,-43
-58,-107,-48,82,-4,-78,0,-97,-92,-68,-48,-43
-63,-107,-43,85,-9,-75,4,-102,-92,-68,-48,-48
-68,-112,-43,90,-12,-78,4,-102,-92,-68,-48,-48
-73,-112,-39,92,-17,-75,4,-102,-92,-73,-53,-48
-68,-107,-39,87,-14,-73,-4,-102,-82,-73,-53,-39
-73,-102,-29,87,-21,-65,0,-102,-82,-73,-53,-43
-78,-102,-24,90,-26,-63,0,-102,-82,-73,-58,-43
-78,-97,-19,87,-29,-58,4,-102,-82,-73,-58,-43
-68,-92,-24,80,-21,-58,4,-92,-73,-63,-48,-43
-68,-92,-24,80,-21,-58,9,-92,-78,-63,-48,-43
-68,-97,-29,82,-19,-63,9,-92,-78,-63,-53,-48
-68,-97,-29,82,-19,-63,9,-92,-78,-63,-53,-48
-68,-97,-29,82,-19,-63,9,-92,-87,-73,-53,-48
-68,-97,-29,82,-19,-63,9,-92,-87,-73,-53,-48
-68,-97,-29,82,-19,-63,9,-92,-87,-78,-53,-53
-68,-97,-29,82,-19,-63,9,-92,-92,-78,-53,-53
-68,-102,-34,85,-17,-68,19,-82,-82,-78,-48,-53
-73,-102,-29,87,-21,-65,19,-82,-82,-78,-48,-53
-73,-102,-29,87,-21,-65,19,-82,-82,-78,-48,-53
-73,-102,-29,87,-21,-65,19,-82,-82,-78,-48,-53
-82,-97,-14,90,-34,-56,9,-92,-82,-68,-48,-43
-78,-97,-19,87,-29,-58,9,-92,-78,-68,-48,-43
-78,-97,-19,87,-29,-58,9,-92,-78,-68,-43,-43
-78,-97,-19,87,-29,-58,9,-92,-78,-68,-43,-39
-78,-97,-19,87,-29,-58,9,-97,-78,-68,-53,-48
-82,-102,-19,92,-31,-61,9,-97,-78,-68,-53,-48
-87,-107,-19,97,-34,-63,9,-97,-78,-68,-53,-48
-87,-107,-19,97,-34,-63,9,-97,-78,-68,-53,-48
-92,-122,-29,107,-31,-75,14,-97,-82,-73,-63,-58
-97,-126,-29,112,-34,-78,14,-97,-87,-78,-63,-58
-102,-131,-29,117,-36,-80,14,-97,-92,-82,-63,-58
-112,-136,-24,124,-43,-80,14,-97,-97,-87,-63,-58
-102,-141,-39,122,-31,-90,14,-97,-107,-87,-63,-58
-102,-141,-39,122,-31,-90,14,-97,-107,-87,-63,-58
-102,-141,-39,122,-31,-90,14,-97,-112,-87,-63,-58
-102,-141,-39,122,-31,-90,14,-97,-112,-92,-68,-63
-102,-136,-34,119,-34,-85,4,-97,-102,-82,-58,-53
-97,-131,-34,114,-31,-82,4,-97,-102,-82,-53,-53
-92,-126,-34,109,-29,-80,4,-97,-97,-82,-53,-48
-87,-122,-34,104,-26,-78,9,-97,-97,-78,-53,-48
-68,-107,-39,87,-14,-73,0,-87,-92,-68,-53,-39
-63,-97,-34,80,-14,-65,4,-87,-87,-68,-48,-39
-58,-87,-29,73,-14,-58,4,-87,-82,-63,-48,-39
-48,-73,-24,61,-12,-48,0,-87,-78,-63,-48,-39
-39,-63,-24,51,-7,-43,-14,-78,-73,-63,-39,-39
-39,-63,-24,51,-7,-43,-14,-78,-73,-63,-39,-39
-39,-63,-24,51,-7,-43,-19,-78,-73,-63,-43,-39
-39,-63,-24,51,-7,-43,-19,-78,-73,-63,-43,-39
-34,-68,-34,51,0,-51,-19,-73,-73,-63,-43,-39
-48,-73,-24,61,-12,-48,-14,-82,-73,-53,-43,-39
-63,-82,-19,73,-21,-51,-14,-78,-73,-63,-43,-39
-73,-97,-24,85,-24,-61,4,-78,-68,-63,-48,-53
-87,-107,-19,97,-34,-63,29,-73,-78,-73,-58,-58
-112,-126,-14,119,-48,-70,48,-68,-82,-73,-68,-63
-131,-126,4,129,-68,-61,63,-63,-82,-78,-63,-73
-146,-131,14,139,-80,-58,73,-63,-63,-68,-63,-68
-165,-117,48,141,-107,-34,92,-63,-43,-58,-58,-68
-165,-107,58,136,-112,-24,87,-63,-19,-34,-43,-63
-165,-68,97,117,-131,14,92,-63,24,-4,-29,-53
-161,-24,136,92,-148,56,87,-73,63,24,0,-29
-156,14,170,70,-163,92,78,-82,102,58,24,0
-126,63,190,31,-158,126,68,-97,131,92,43,19
-92,122,214,-14,-153,168,29,-112,165,136,78,53
-43,190,234,-73,-139,212,-39,-161,204,175,117,82
19,268,248,-143,-114,258,-112,-200,244,229,165,131
87,346,258,-217,-85,302,-200,-224,283,268,209,175
161,424,263,-292,-51,344,-302,-263,312,317,268,229
248,497,248,-373,0,373,-409,-307,341,366,307,278
341,585,244,-463,48,414,-527,-366,380,424,370,336
434,688,253,-561,90,470,-644,-424,429,488,434,409
517,771,253,-644,131,512,-746,-468,478,556,497,478
580,868,287,-724,146,578,-839,-517,536,619,561,551
624,941,317,-783,153,629,-907,-590,575,668,629,619
649,976,326,-812,161,651,-966,-678,585,692,663,658
653,951,297,-802,178,624,-976,-751,541,673,663,688
639,888,248,-763,195,568,-971,-829,453,619,653,688
614,780,165,-697,224,473,-946,-888,351,536,614,678
566,644,78,-605,244,361,-893,-907,214,419,541,624
522,458,-63,-490,292,197,-790,-878,58,278,439,536
488,287,-200,-387,344,43,-678,-805,-82,141,322,439
444,141,-302,-292,373,-80,-585,-741,-209,19,224,356
400,9,-390,-204,395,-190,-488,-673,-307,-82,141,283
346,-82,-429,-131,387,-256,-390,-600,-375,-151,82,224
283,-122,-405,-80,344,-263,-317,-531,-409,-185,53,190
224,-146,-370,-39,297,-258,-244,-463,-400,-190,34,165
175,-151,-326,-12,251,-239,-185,-385,-380,-180,19,146
136,-156,-292,9,214,-224,-141,-322,-356,-180,4,122
117,-165,-283,24,200,-224,-107,-268,-331,-180,0,92
78,-165,-244,43,161,-204,-68,-204,-283,-165,-29,63
63,-161,-224,48,143,-192,-48,-161,-253,-156,-34,34
43,-156,-200,56,122,-178,-19,-117,-219,-146,-43,14
19,-161,-180,70,100,-170,0,-92,-195,-136,-48,0
9,-165,-175,78,92,-170,19,-58,-170,-122,-63,-14
-19,-165,-146,92,63,-156,34,-39,-151,-117,-58,-34
-34,-141,-107,87,36,-124,39,-24,-131,-97,-58,-39
-34,-122,-87,78,26,-104,29,-14,-107,-82,-53,-39
-34,-102,-68,68,17,-85,24,-14,-87,-82,-53,-39
-34,-92,-58,63,12,-75,24,-9,-82,-78,-53,-39
-34,-92,-58,63,12,-75,29,-4,-73,-73,-53,-43
-39,-92,-53,65,7,-73,29,0,-73,-68,-48,-43
-39,-92,-53,65,7,-73,29,14,-68,-58,-39,-34
-43,-92,-48,68,2,-70,34,14,-68,-58,-39,-34
-43,-92,-48,68,2,-70,34,14,-68,-58,-39,-34
-43,-92,-48,68,2,-70,34,14,-68,-63,-43,-43
-63,-92,-29,78,-17,-61,43,4,-73,-68,-58,-43
-63,-92,-29,78,-17,-61,43,4,-73,-73,-58,-48
-68,-97,-29,82,-19,-63,43,4,-78,-73,-58,-53
-68,-102,-34,85,-17,-68,43,9,-78,-68,-58,-53
-73,-107,-34,90,-19,-70,58,0,-73,-73,-58,-63
-78,-107,-29,92,-24,-68,58,4,-73,-68,-58,-58
-82,-112,-29,97,-26,-70,58,4,-68,-68,-53,-58
-87,-117,-29,102,-29,-73,63,4,-68,-68,-53,-58
-87,-117,-29,102,-29,-73,53,-9,-68,-58,-63,-58
-87,-112,-24,100,-31,-68,53,-9,-68,-63,-68,-68
-87,-112,-24,100,-31,-68,53,-9,-68,-63,-68,-68
-87,-112,-24,100,-31,-68,53,-9,-68,-63,-68,-68
-78,-107,-29,92,-24,-68,53,0,-68,-63,-58,-53
-82,-112,-29,97,-26,-70,53,4,-68,-58,-58,-53
-82,-112,-29,97,-26,-70,58,4,-63,-58,-58,-53
-82,-112,-29,97,-26,-70,63,4,-63,-58,-58,-48
-73,-92,-19,82,-26,-56,63,14,-53,-58,-58,-48
-73,-92,-19,82,-26,-56,63,14,-53,-58,-58,-48
-73,-92,-19,82,-26,-56,58,14,-53,-58,-63,-53
-68,-87,-19,78,-24,-53,58,14,-53,-58,-63,-53
-58,-87,-29,73,-14,-58,58,19,-63,-68,-63,-53
-53,-87,-34,70,-9,-61,58,24,-63,-63,-58,-48
-53,-87,-34,70,-9,-61,58,24,-58,-63,-58,-48
-53,-82,-29,68,-12,-56,58,24,-58,-63,-58,-48
-48,-73,-24,61,-12,-48,48,34,-48,-58,-48,-39
-53,-78,-24,65,-14,-51,48,29,-48,-63,-48,-43
-58,-78,-19,68,-19,-48,48,29,-53,-58,-53,-48
-63,-87,-24,75,-19,-56,48,29,-53,-53,-53,-53
-63,-78,-14,70,-24,-46,48,29,-43,-48,-53,-53
-58,-73,-14,65,-21,-43,53,29,-39,-48,-53,-48
-53,-68,-14,61,-19,-41,58,34,-39,-34,-48,-39
-53,-58,-4,56,-24,-31,58,39,-34,-34,-43,-39
-34,-48,-14,41,-9,-31,48,39,-24,-29,-34,-39
-34,-48,-14,41,-9,-31,48,39,-24,-34,-34,-39
-34,-48,-14,41,-9,-31,48,39,-24,-39,-43,-48
-34,-53,-19,43,-7,-36,39,39,-24,-39,-43,-48
-43,-53,-9,48,-17,-31,39,34,-29,-39,-43,-58
-43,-48,-4,46,-19,-26,39,39,-24,-34,-48,-53
-39,-48,-9,43,-14,-29,43,43,-29,-34,-43,-43
-39,-43,-4,41,-17,-24,43,43,-29,-39,-48,-43
-39,-48,-9,43,-14,-29,43,53,-29,-43,-48,-43
-39,-53,-14,46,-12,-34,43,53,-29,-43,-48,-43
-39,-53,-14,46,-12,-34,34,53,-29,-43,-58,-53
-43,-58,-14,51,-14,-36,34,53,-34,-48,-58,-58
-53,-78,-24,65,-14,-51,43,63,-43,-58,-58,-58
-53,-82,-29,68,-12,-56,48,68,-43,-58,-58,-53
-53,-82,-29,68,-12,-56,48,73,-43,-53,-58,-53
-53,-82,-29,68,-12,-56,58,73,-43,-53,-53,-53
-53,-78,-24,65,-14,-51,68,68,-29,-43,-43,-48
-53,-78,-24,65,-14,-51,68,68,-29,-43,-43,-48
-48,-73,-24,61,-12,-48,68,68,-29,-43,-43,-48
-48,-73,-24,61,-12,-48,68,73,-29,-48,-53,-53
-48,-73,-24,61,-12,-48,68,73,-29,-58,-53,-58
-48,-78,-29,63,-9,-53,68,82,-29,-58,-48,-58
-48,-78,-29,63,-9,-53,73,87,-24,-48,-48,-58
-48,-78,-29,63,-9,-53,78,92,-24,-43,-43,-53
-58,-73,-14,65,-21,-43,78,82,-14,-34,-43,-53
-58,-73,-14,65,-21,-43,78,82,-14,-34,-39,-48
-58,-63,-4,61,-26,-34,78,82,-14,-34,-39,-48
-53,-63,-9,58,-21,-36,78,92,-14,-34,-39,-48
-63,-73,-9,68,-26,-41,78,92,-24,-34,-53,-63
-63,-73,-9,68,-26,-41,78,102,-24,-34,-53,-63
-63,-73,-9,68,-26,-41,78,107,-19,-34,-53,-63
-68,-73,-4,70,-31,-39,82,112,-14,-29,-53,-58
-68,-78,-9,73,-29,-43,82,117,-14,-24,-39,-58
-68,-68,0,68,-34,-34,82,122,-4,-24,-39,-53
-63,-63,0,63,-31,-31,87,126,0,-24,-43,-53
-58,-63,-4,61,-26,-34,87,131,0,-24,-43,-53
-48,-48,0,48,-24,-24,97,136,9,-24,-43,-53
-43,-48,-4,46,-19,-26,97,141,9,-24,-43,-53
-43,-43,0,43,-21,-21,97,151,9,-24,-39,-48
-39,-39,0,39,-19,-19,97,156,9,-19,-39,-48
-48,-48,0,48,-24,-24,97,170,14,-19,-39,-43
-48,-48,0,48,-24,-24,102,170,24,-9,-39,-43
-43,-39,4,41,-24,-17,102,175,29,-9,-39,-43
-43,-29,14,36,-29,-7,102,180,34,-9,-39,-43
-34,-19,14,26,-24,-2,97,185,24,-9,-29,-48
-24,-14,9,19,-17,-2,102,200,29,-9,-29,-48
-24,-14,9,19,-17,-2,107,209,34,0,-29,-43
-24,-4,19,14,-21,7,107,219,39,9,-24,-43
-34,-4,29,19,-31,12,107,224,43,0,-24,-43
-34,-9,24,21,-29,7,107,229,53,9,-24,-43
-39,-9,29,24,-34,9,107,239,58,9,-24,-48
-34,-9,24,21,-29,7,112,248,63,9,-24,-48
-24,4,29,9,-26,17,112,268,68,9,-24,-48
-24,9,34,7,-29,21,112,278,68,14,-24,-48
-24,9,34,7,-29,21,122,287,73,19,-19,-48
-19,0,19,9,-19,9,122,302,78,24,-19,-48
-4,19,24,-7,-14,21,122,312,87,34,-9,-43
-4,24,29,-9,-17,26,122,331,92,39,-4,-29
4,29,24,-17,-9,26,122,346,102,39,-4,-29
9,39,29,-24,-9,34,122,356,107,39,0,-29
24,53,29,-39,-2,41,112,370,102,48,0,-29
34,63,29,-48,2,46,112,385,112,48,0,-29
39,68,29,-53,4,48,112,400,117,58,4,-29
43,73,29,-58,7,51,122,414,126,63,4,-29
48,82,34,-65,7,58,136,434,131,68,14,-14
53,92,39,-73,7,65,136,448,146,78,19,-9
58,102,43,-80,7,73,131,458,156,82,24,-4
63,112,48,-87,7,80,131,473,161,87,29,-4
63,117,53,-90,4,85,117,488,165,82,29,-14
73,131,58,-102,7,95,117,502,170,92,29,-14
87,136,48,-112,19,92,117,517,180,97,29,-14
87,136,48,-112,19,92,117,531,190,102,29,-9
102,151,48,-126,26,100,126,546,209,112,29,-9
107,161,53,-134,26,107,126,561,219,122,34,0
112,165,53,-139,29,109,126,566,229,122,39,4
122,175,53,-148,34,114,131,575,234,126,39,9
131,185,53,-158,39,119,141,590,239,126,39,0
141,195,53,-168,43,124,131,600,248,126,43,0
151,200,48,-175,51,124,126,614,253,136,43,4
156,200,43,-178,56,122,122,624,258,141,53,4
161,219,58,-190,51,139,126,634,253,151,48,4
165,219,53,-192,56,136,122,644,263,156,53,14
170,219,48,-195,61,134,122,649,268,161,58,19
170,219,48,-195,61,134,117,649,273,161,58,19
175,229,53,-202,61,141,102,658,278,151,68,29
180,234,53,-207,63,143,97,658,278,156,68,24
185,239,53,-212,65,146,92,658,283,161,68,24
190,244,53,-217,68,148,87,658,283,170,73,34
204,263,58,-234,73,161,82,658,302,180,87,29
204,268,63,-236,70,165,78,658,307,190,92,34
209,273,63,-241,73,168,73,649,307,200,97,39
209,273,63,-241,73,168,63,644,307,204,102,43
195,273,78,-234,58,175,58,629,317,214,102,53
195,273,78,-234,58,175,48,619,317,214,102,53
195,278,82,-236,56,180,39,605,317,209,102,53
200,278,78,-239,61,178,39,590,312,209,102,63
200,268,68,-234,65,168,29,575,307,209,102,63
195,268,73,-231,61,170,19,556,302,209,107,63
190,263,73,-226,58,168,19,531,297,209,107,73
185,263,78,-224,53,170,19,512,297,209,112,73
190,253,63,-222,63,158,14,502,292,209,102,73
180,258,78,-219,51,168,9,473,283,200,102,73
175,258,82,-217,46,170,4,448,273,190,102,73
170,244,73,-207,48,158,-4,424,263,185,97,73
165,229,63,-197,51,146,-14,395,253,170,92,73
161,224,63,-192,48,143,-19,375,244,165,92,73
161,219,58,-190,51,139,-24,351,234,165,92,73
156,214,58,-185,48,136,-24,326,224,156,92,73
146,214,68,-180,39,141,-39,302,214,161,97,82
146,209,63,-178,41,136,-43,278,204,156,97,82
141,204,63,-173,39,134,-48,258,195,141,92,73
126,190,63,-158,31,126,-48,234,175,131,87,68
122,180,58,-151,31,119,-39,209,161,126,92,68
117,170,53,-143,31,112,-39,195,151,117,87,68
112,170,58,-141,26,114,-39,175,146,117,87,68
112,165,53,-139,29,109,-39,156,131,112,82,68
92,141,48,-117,21,95,-48,131,131,107,78,63
87,136,48,-112,19,92,-48,112,117,97,73,58
78,122,43,-100,17,82,-48,92,107,87,63,53
68,112,43,-90,12,78,-48,82,97,78,63,48
63,102,39,-82,12,70,-43,68,87,68,63,43
58,97,39,-78,9,68,-43,63,82,63,58,39
58,82,24,-70,17,53,-39,53,78,63,53,39
43,78,34,-61,4,56,-39,43,68,58,53,43
43,68,24,-56,9,46,-48,34,68,53,48,43
34,68,34,-51,0,51,-48,24,58,48,48,34
29,63,34,-46,-2,48,-43,14,48,39,43,34
29,58,29,-43,0,43,-43,4,48,34,39,29
29,53,24,-41,2,39,-34,-4,34,19,29,24
29,39,9,-34,9,24,-24,-14,19,14,24,24
24,34,9,-29,7,21,-24,-19,19,14,24,24
19,34,14,-26,2,24,-24,-19,14,14,24,19
14,24,9,-19,2,17,-24,-24,4,4,14,9
14,14,0,-14,7,7,-24,-29,-4,-4,4,9
9,9,0,-9,4,4,-24,-34,-9,-9,4,4
4,4,0,-4,2,2,-24,-39,-19,-14,4,4
0,0,0,0,0,0,-14,-43,-24,-14,0,4
0,-9,-9,4,4,-9,-9,-43,-29,-19,0,4
0,-14,-14,7,7,-14,-4,-43,-34,-19,0,4
0,-19,-19,9,9,-19,-4,-43,-34,-19,0,4
0,-9,-9,4,4,-9,-14,-43,-19,-9,9,9
-4,-9,-4,7,0,-7,-14,-43,-19,-9,9,14
-9,-9,0,9,-4,-4,-9,-53,-29,-19,9,9
-19,-9,9,14,-14,0,-9,-58,-34,-24,0,9
-9,-14,-4,12,-2,-9,-19,-48,-34,-24,4,9
-19,-9,9,14,-14,0,-19,-48,-29,-19,0,9
-19,-4,14,12,-17,4,-14,-48,-24,-14,-4,9
-19,0,19,9,-19,9,-14,-48,-19,-9,-4,9
-19,-14,4,17,-12,-4,-14,-48,-29,-19,-14,0
-14,-19,-4,17,-4,-12,-9,-48,-29,-19,-14,0
-14,-24,-9,19,-2,-17,-9,-48,-29,-24,-14,0
-14,-29,-14,21,0,-21,-9,-53,-29,-24,-14,0
-14,-29,-14,21,0,-21,-9,-43,-29,-34,-24,0
-19,-29,-9,24,-4,-19,-9,-43,-34,-34,-24,0
-19,-29,-9,24,-4,-19,-9,-43,-34,-34,-24,0
-24,-29,-4,26,-9,-17,-9,-43,-34,-34,-24,0
-24,-39,-14,31,-4,-26,0,-53,-43,-43,-24,0
-24,-39,-14,31,-4,-26,4,-53,-43,-43,-24,0
-24,-39,-14,31,-4,-26,4,-53,-43,-43,-24,0
-19,-39,-19,29,0,-29,9,-53,-43,-43,-24,0
-19,-39,-19,29,0,-29,9,-43,-53,-43,-24,0
-19,-39,-19,29,0,-29,4,-39,-53,-43,-24,0
-19,-39,-19,29,0,-29,4,-39,-53,-48,-24,0
-19,-39,-19,29,0,-29,4,-39,-53,-48,-24,0
-19,-39,-19,29,0,-29,9,-48,-43,-39,-24,0
-19,-39,-19,29,0,-29,9,-48,-43,-39,-24,0
-19,-39,-19,29,0,-29,9,-48,-43,-39,-24,0
-14,-39,-24,26,4,-31,4,-48,-43,-39,-24,0
-24,-39,-14,31,-4,-26,4,-48,-34,-24,-14,0
-34,-39,-4,36,-14,-21,4,-48,-34,-24,-14,0
-34,-39,-4,36,-14,-21,4,-48,-34,-24,-14,-4
-29,-34,-4,31,-12,-19,4,-48,-34,-24,-14,-4
-39,-34,4,36,-21,-14,9,-58,-34,-24,-14,-4
-43,-39,4,41,-24,-17,9,-58,-34,-24,-14,-4
-43,-39,4,41,-24,-17,9,-53,-34,-29,-14,-4
-43,-43,0,43,-21,-21,9,-53,-34,-29,-14,-4
-43,-53,-9,48,-17,-31,19,-53,-43,-39,-29,-14
-43,-53,-9,48,-17,-31,19,-53,-43,-39,-29,-14
-43,-53,-9,48,-17,-31,19,-53,-43,-39,-29,-14
-43,-53,-9,48,-17,-31,19,-53,-43,-39,-29,-14
-43,-53,-9,48,-17,-31,9,-53,-53,-48,-29,-14
-43,-53,-9,48,-17,-31,9,-48,-53,-48,-29,-14
-39,-53,-14,46,-12,-34,9,-48,-53,-43,-29,-14
-39,-48,-9,43,-14,-29,9,-48,-48,-43,-24,-14
-39,-39,0,39,-19,-19,19,-48,-39,-34,-24,-4
-34,-39,-4,36,-14,-21,19,-48,-39,-34,-24,-4
-29,-39,-9,34,-9,-24,19,-43,-39,-34,-24,-4
-29,-34,-4,31,-12,-19,19,-43,-39,-29,-24,-4
-29,-29,0,29,-14,-14,9,-43,-29,-29,-14,-4
-24,-24,0,24,-12,-12,9,-43,-24,-29,-14,-4
-24,-19,4,21,-14,-7,9,-39,-24,-29,-14,-4
-19,-14,4,17,-12,-4,14,-39,-24,-29,-14,-4
-29,-24,4,26,-17,-9,14,-39,-34,-29,-14,-14
-29,-24,4,26,-17,-9,14,-39,-34,-29,-14,-14
-29,-29,0,29,-14,-14,14,-39,-34,-29,-14,-14
-29,-29,0,29,-14,-14,9,-39,-34,-29,-14,-14
-39,-34,4,36,-21,-14,0,-39,-34,-39,-19,-29
-43,-39,4,41,-24,-17,0,-39,-34,-39,-29,-29
-43,-43,0,43,-21,-21,4,-39,-34,-39,-34,-29
-43,-48,-4,46,-19,-26,4,-39,-34,-43,-39,-29
-53,-63,-9,58,-21,-36,14,-39,-43,-53,-48,-39
-53,-68,-14,61,-19,-41,14,-39,-48,-53,-48,-39
-53,-78,-24,65,-14,-51,14,-39,-48,-53,-48,-39
-53,-82,-29,68,-12,-56,14,-39,-48,-53,-48,-39
-48,-82,-34,65,-7,-58,14,-39,-48,-58,-39,-29
-43,-78,-34,61,-4,-56,14,-39,-48,-58,-43,-34
-39,-73,-34,56,-2,-53,14,-39,-48,-58,-43,-34
-34,-68,-34,51,0,-51,14,-39,-48,-58,-43,-34
-24,-53,-29,39,2,-41,14,-34,-48,-48,-34,-24
-24,-48,-24,36,0,-36,19,-29,-48,-48,-34,-24
-14,-43,-29,29,7,-36,19,-24,-48,-48,-34,-24
-4,-39,-34,21,14,-36,19,-19,-48,-48,-34,-24
0,-29,-29,14,14,-29,9,-19,-39,-39,-24,-24
0,-24,-24,12,12,-24,4,-19,-39,-39,-24,-24
0,-24,-24,12,12,-24,4,-19,-39,-39,-24,-24
0,-24,-24,12,12,-24,4,-19,-39,-39,-24,-24
0,-34,-34,17,17,-34,4,-19,-29,-39,-24,-24
-4,-39,-34,21,14,-36,4,-24,-29,-39,-24,-24
-14,-43,-29,29,7,-36,4,-24,-29,-39,-24,-24
-19,-43,-24,31,2,-34,4,-24,-29,-39,-24,-24
-24,-48,-24,36,0,-36,4,-34,-39,-39,-34,-34
-29,-53,-24,41,-2,-39,4,-34,-43,-39,-34,-34
-34,-58,-24,46,-4,-41,4,-34,-43,-43,-39,-34
-34,-63,-29,48,-2,-46,9,-34,-43,-43,-39,-34
-34,-63,-29,48,-2,-46,19,-34,-43,-53,-39,-29
-34,-63,-29,48,-2,-46,19,-34,-43,-53,-39,-29
-34,-63,-29,48,-2,-46,19,-34,-43,-48,-39,-29
-34,-63,-29,48,-2,-46,19,-34,-48,-48,-39,-29
-24,-68,-43,46,9,-56,24,-34,-58,-63,-48,-39
-24,-68,-43,46,9,-56,24,-34,-58,-63,-48,-39
-24,-68,-43,46,9,-56,24,-39,-63,-63,-48,-39
-24,-73,-48,48,12,-61,24,-39,-63,-63,-48,-39
-19,-73,-53,46,17,-63,24,-29,-63,-63,-48,-39
-19,-73,-53,46,17,-63,24,-29,-63,-68,-48,-39
-24,-78,-53,51,14,-65,24,-29,-63,-68,-48,-39
-24,-82,-58,53,17,-70,24,-29,-68,-68,-48,-39
-34,-92,-58,63,12,-75,34,-39,-68,-68,-53,-48
-34,-87,-53,61,9,-70,34,-39,-68,-68,-53,-48
-34,-87,-53,61,9,-70,34,-39,-68,-68,-53,-53
-34,-87,-53,61,9,-70,34,-39,-68,-68,-53,-53
-48,-87,-39,68,-4,-63,34,-53,-68,-58,-53,-43
-48,-87,-39,68,-4,-63,34,-53,-68,-58,-53,-43
-48,-87,-39,68,-4,-63,34,-53,-68,-58,-53,-43
-48,-87,-39,68,-4,-63,34,-53,-68,-58,-53,-43
-48,-78,-29,63,-9,-53,34,-53,-53,-48,-43,-39
-48,-78,-29,63,-9,-53,34,-58,-53,-48,-43,-39
-48,-78,-29,63,-9,-53,34,-58,-53,-48,-39,-39
-48,-78,-29,63,-9,-53,34,-58,-53,-48,-39,-39
-58,-78,-19,68,-19,-48,24,-58,-63,-58,-43,-39
-58,-78,-19,68,-19,-48,24,-63,-63,-58,-43,-39
-58,-78,-19,68,-19,-48,24,-63,-63,-58,-43,-39
-58,-82,-24,70,-17,-53,24,-63,-63,-58,-43,-39
-58,-82,-24,70,-17,-53,14,-63,-63,-58,-43,-39
-58,-82,-24,70,-17,-53,19,-68,-68,-63,-43,-39
-58,-87,-29,73,-14,-58,19,-68,-68,-63,-43,-39
-58,-87,-29,73,-14,-58,14,-68,-73,-63,-43,-39
-63,-78,-14,70,-24,-46,14,-68,-63,-58,-43,-43
-63,-78,-14,70,-24,-46,14,-68,-68,-58,-48,-43
-58,-78,-19,68,-19,-48,14,-68,-68,-58,-48,-43
-58,-78,-19,68,-19,-48,14,-68,-68,-58,-48,-43
-58,-87,-29,73,-14,-58,14,-68,-68,-68,-48,-43
-53,-87,-34,70,-9,-61,14,-68,-68,-68,-48,-43
-48,-87,-39,68,-4,-63,14,-68,-68,-68,-48,-43
-43,-87,-43,65,0,-65,14,-68,-68,-68,-48,-43
-43,-87,-43,65,0,-65,4,-58,-68,-68,-48,-43
-43,-82,-39,63,-2,-61,4,-58,-68,-68,-48,-43
-39,-82,-43,61,2,-63,4,-58,-68,-68,-48,-43
-39,-82,-43,61,2,-63,4,-58,-68,-68,-48,-43
-43,-97,-53,70,4,-75,14,-68,-68,-68,-48,-43
-48,-97,-48,73,0,-73,9,-68,-68,-68,-48,-43
-48,-97,-48,73,0,-73,9,-68,-68,-68,-48,-43
-48,-97,-48,73,0,-73,9,-73,-68,-68,-48,-43
-48,-92,-43,70,-2,-68,19,-73,-68,-68,-48,-43
-48,-97,-48,73,0,-73,19,-73,-68,-68,-48,-43
-58,-97,-39,78,-9,-68,19,-78,-68,-68,-48,-43
-58,-102,-43,80,-7,-73,19,-78,-68,-68,-48,-43
-68,-102,-34,85,-17,-68,19,-82,-78,-68,-58,-48
-73,-102,-29,87,-21,-65,19,-82,-82,-73,-58,-48
-73,-102,-29,87,-21,-65,19,-82,-82,-73,-58,-48
-73,-102,-29,87,-21,-65,24,-78,-82,-73,-63,-43
-73,-112,-39,92,-17,-75,24,-87,-82,-73,-63,-53
-73,-112,-39,92,-17,-75,24,-87,-82,-73,-63,-53
-73,-112,-39,92,-17,-75,24,-92,-82,-73,-63,-58
-68,-112,-43,90,-12,-78,24,-92,-82,-73,-63,-58
-68,-102,-34,85,-17,-68,24,-87,-82,-73,-63,-48
-63,-97,-34,80,-14,-65,24,-87,-82,-73,-63,-48
-63,-97,-34,80,-14,-65,24,-87,-82,-73,-63,-48
-63,-97,-34,80,-14,-65,24,-87,-82,-73,-58,-48
-53,-87,-34,70,-9,-61,14,-78,-73,-68,-48,-39
-48,-87,-39,68,-4,-63,9,-78,-68,-68,-48,-39
-48,-87,-39,68,-4,-63,9,-78,-68,-68,-48,-34
-48,-87,-39,68,-4,-63,4,-78,-68,-68,-48,-34
-34,-82,-48,58,7,-65,4,-68,-58,-58,-43,-34
-34,-73,-39,53,2,-56,4,-68,-58,-58,-43,-34
-34,-63,-29,48,-2,-46,4,-68,-58,-58,-43,-34
-34,-58,-24,46,-4,-41,4,-68,-58,-53,-43,-34
-24,-39,-14,31,-4,-26,-4,-58,-48,-43,-34,-19
-19,-39,-19,29,0,-29,0,-58,-48,-39,-29,-19
-9,-39,-29,24,9,-34,-4,-58,-48,-48,-29,-19
-9,-39,-29,24,9,-34,-9,-58,-48,-48,-29,-19
-9,-39,-29,24,9,-34,-14,-58,-48,-48,-29,-19
-9,-39,-29,24,9,-34,-19,-58,-48,-48,-29,-19
-14,-48,-34,31,9,-41,-29,-58,-58,-48,-39,-29
-19,-48,-29,34,4,-39,-29,-58,-58,-48,-39,-29
-24,-48,-24,36,0,-36,-29,-58,-58,-48,-39,-29
-29,-48,-19,39,-4,-34,-29,-58,-58,-48,-39,-29
-43,-53,-9,48,-17,-31,-24,-63,-68,-58,-39,-39
-48,-58,-9,53,-19,-34,-19,-68,-68,-58,-39,-39
-53,-63,-9,58,-21,-36,-14,-73,-68,-58,-39,-39
-58,-68,-9,63,-24,-39,-9,-78,-68,-58,-39,-39
-68,-68,0,68,-34,-34,-4,-78,-68,-58,-39,-39
-68,-68,0,68,-34,-34,0,-78,-68,-58,-39,-39
-68,-68,0,68,-34,-34,4,-78,-68,-58,-39,-39
-68,-68,0,68,-34,-34,9,-78,-68,-58,-39,-39
-68,-58,9,63,-39,-24,19,-78,-63,-53,-39,-29
-68,-58,9,63,-39,-24,19,-78,-58,-48,-39,-29
-68,-58,9,63,-39,-24,19,-78,-53,-43,-39,-29
-68,-58,9,63,-39,-24,19,-78,-48,-39,-39,-29
-58,-53,4,56,-31,-24,29,-68,-39,-29,-29,-19
-58,-48,9,53,-34,-19,29,-68,-39,-29,-29,-19
-58,-43,14,51,-36,-14,29,-68,-39,-29,-29,-19
-58,-39,19,48,-39,-9,29,-68,-39,-29,-29,-19
-48,-39,9,43,-29,-14,19,-68,-39,-29,-29,-19
-48,-39,9,43,-29,-14,19,-68,-39,-29,-29,-19
-48,-39,9,43,-29,-14,19,-68,-39,-29,-29,-19
-48,-39,9,43,-29,-14,19,-68,-39,-29,-29,-19
-39,-39,0,39,-19,-19,9,-78,-39,-39,-29,-19
-39,-39,0,39,-19,-19,9,-78,-39,-39,-29,-19
-39,-39,0,39,-19,-19,9,-78,-39,-39,-29,-19
-39,-39,0,39,-19,-19,9,-78,-39,-39,-29,-19
-34,-24,9,29,-21,-7,-4,-78,-39,-29,-19,-9
-29,-19,9,24,-19,-4,-9,-78,-39,-29,-19,-9
-24,-14,9,19,-17,-2,-14,-78,-39,-29,-19,-9
-19,-9,9,14,-14,0,-19,-78,-39,-29,-19,-9
-14,0,14,7,-14,7,-34,-87,-39,-29,-9,0
-9,0,9,4,-9,4,-39,-87,-39,-29,-9,0
-4,0,4,2,-4,2,-43,-87,-39,-29,-9,0
0,0,0,0,0,0,-48,-87,-39,-29,-9,0
0,-9,-9,4,4,-9,-58,-97,-48,-39,-19,-9
0,-9,-9,4,4,-9,-58,-97,-48,-39,-19,-9
0,-9,-9,4,4,-9,-58,-97,-48,-39,-19,-9
0,-9,-9,4,4,-9,-58,-97,-48,-39,-19,-9
-9,-19,-9,14,0,-14,-58,-87,-53,-48,-19,-19
-9,-29,-19,19,4,-24,-53,-87,-58,-53,-29,-29
-14,-39,-24,26,4,-31,-53,-87,-58,-58,-29,-34
-19,-48,-29,34,4,-39,-48,-87,-63,-58,-34,-34
-24,-53,-29,39,2,-41,-43,-92,-68,-63,-39,-29
-24,-63,-39,43,7,-51,-43,-92,-68,-68,-39,-29
-24,-68,-43,46,9,-56,-43,-92,-73,-68,-43,-34
-24,-73,-48,48,12,-61,-39,-92,-73,-68,-43,-34
-24,-82,-58,53,17,-70,-29,-92,-87,-68,-43,-34
-24,-87,-63,56,19,-75,-29,-92,-87,-73,-43,-34
-24,-87,-63,56,19,-75,-29,-92,-87,-73,-48,-34
-24,-87,-63,56,19,-75,-24,-87,-87,-73,-48,-39
-24,-78,-53,51,14,-65,-24,-87,-87,-73,-48,-39
-24,-82,-58,53,17,-70,-24,-87,-92,-73,-48,-39
-19,-82,-63,51,21,-73,-24,-87,-92,-78,-48,-39
-19,-82,-63,51,21,-73,-24,-87,-92,-78,-48,-39
-9,-78,-68,43,29,-73,-24,-82,-82,-68,-39,-29
-9,-73,-63,41,26,-68,-24,-82,-82,-68,-39,-29
-4,-68,-63,36,29,-65,-24,-82,-82,-68,-39,-29
-4,-63,-58,34,26,-61,-24,-82,-82,-68,-39,-29
-9,-58,-48,34,19,-53,-24,-82,-82,-68,-39,-34
-14,-58,-43,36,14,-51,-24,-82,-82,-68,-39,-34
-14,-63,-48,39,17,-56,-19,-82,-82,-68,-43,-34
-19,-68,-48,43,14,-58,-19,-82,-87,-68,-43,-34
-34,-78,-43,56,4,-61,-14,-92,-87,-78,-53,-39
-43,-82,-39,63,-2,-61,-4,-92,-87,-78,-53,-43
-53,-92,-39,73,-7,-65,0,-97,-92,-78,-58,-43
-53,-102,-48,78,-2,-75,9,-97,-92,-78,-58,-43
-68,-117,-48,92,-9,-82,9,-97,-102,-87,-68,-53
-73,-117,-43,95,-14,-80,14,-102,-102,-87,-68,-58
-78,-122,-43,100,-17,-82,14,-102,-102,-87,-68,-58
-82,-122,-39,102,-21,-80,14,-102,-102,-92,-73,-58
-82,-112,-29,97,-26,-70,4,-92,-102,-92,-73,-58
-82,-112,-29,97,-26,-70,9,-92,-102,-92,-73,-63
-82,-117,-34,100,-24,-75,9,-92,-102,-92,-78,-63
-78,-117,-39,97,-19,-78,14,-92,-102,-92,-78,-63
-78,-112,-34,95,-21,-73,9,-92,-92,-92,-68,-63
-78,-112,-34,95,-21,-73,9,-92,-97,-92,-68,-63
-78,-117,-39,97,-19,-78,4,-92,-97,-92,-73,-68
-78,-117,-39,97,-19,-78,0,-92,-97,-92,-73,-68
-78,-117,-39,97,-19,-78,9,-82,-97,-92,-73,-68
-78,-117,-39,97,-19,-78,9,-82,-97,-92,-73,-68
-78,-117,-39,97,-19,-78,9,-82,-97,-97,-73,-73
-78,-117,-39,97,-19,-78,9,-82,-102,-97,-73,-73
-87,-131,-43,109,-21,-87,9,-92,-102,-97,-68,-73
-92,-131,-39,112,-26,-85,9,-92,-102,-97,-68,-73
-92,-131,-39,112,-26,-85,9,-92,-102,-97,-68,-73
-92,-131,-39,112,-26,-85,9,-92,-102,-97,-68,-73
-82,-117,-34,100,-24,-75,19,-92,-102,-97,-78,-73
-78,-117,-39,97,-19,-78,19,-92,-97,-97,-78,-73
-78,-117,-39,97,-19,-78,19,-92,-97,-97,-73,-73
-78,-117,-39,97,-19,-78,19,-92,-97,-97,-73,-68
-73,-112,-39,92,-17,-75,19,-87,-97,-87,-73,-58
-73,-112,-39,92,-17,-75,19,-87,-97,-87,-73,-58
-73,-112,-39,92,-17,-75,19,-87,-97,-87,-73,-58
-68,-107,-39,87,-14,-73,19,-87,-97,-87,-73,-58
-78,-117,-39,97,-19,-78,14,-87,-97,-87,-73,-58
-78,-117,-39,97,-19,-78,14,-87,-97,-87,-73,-58
-78,-117,-39,97,-19,-78,14,-87,-97,-87,-73,-58
-82,-117,-34,100,-24,-75,14,-87,-97,-87,-73,-58
-92,-122,-29,107,-31,-75,14,-87,-97,-97,-73,-68
-92,-122,-29,107,-31,-75,14,-87,-97,-97,-73,-68
-92,-122,-29,107,-31,-75,14,-87,-102,-97,-73,-68
-92,-122,-29,107,-31,-75,14,-87,-102,-102,-78,-73
-97,-131,-34,114,-31,-82,4,-87,-112,-102,-78,-73
-97,-131,-34,114,-31,-82,4,-87,-112,-102,-73,-73
-97,-131,-34,114,-31,-82,4,-87,-107,-102,-73,-68
-97,-131,-34,114,-31,-82,9,-87,-107,-97,-73,-68
-87,-117,-29,102,-29,-73,0,-87,-97,-97,-73,-68
-82,-117,-34,100,-24,-75,4,-87,-97,-97,-68,-68
-78,-117,-39,97,-19,-78,4,-87,-97,-92,-68,-68
-68,-112,-43,90,-12,-78,0,-87,-97,-92,-68,-68
-78,-112,-34,95,-21,-73,-4,-78,-92,-92,-68,-68
-78,-112,-34,95,-21,-73,-4,-78,-92,-92,-68,-68
-78,-112,-34,95,-21,-73,-9,-78,-92,-92,-73,-68
-78,-112,-34,95,-21,-73,-9,-78,-92,-92,-73,-68
-73,-107,-34,90,-19,-70,9,-82,-82,-82,-63,-68
-78,-112,-34,95,-21,-73,4,-82,-82,-82,-63,-68
-82,-112,-29,97,-26,-70,14,-87,-92,-82,-73,-68
-92,-126,-34,109,-29,-80,24,-78,-87,-82,-78,-82
-97,-136,-39,117,-29,-87,39,-73,-87,-92,-78,-87
-112,-126,-14,119,-48,-70,68,-58,-82,-82,-78,-92
-122,-126,-4,124,-58,-65,73,-63,-73,-78,-82,-92
-126,-112,14,119,-70,-48,82,-53,-53,-68,-73,-87
-126,-87,39,107,-82,-24,82,-53,-24,-48,-58,-78
-126,-58,68,92,-97,4,87,-53,9,-24,-43,-63
-117,-19,97,68,-107,39,73,-53,53,24,-19,-43
-102,34,136,34,-119,85,58,-73,102,63,19,-9
-87,92,180,-2,-134,136,39,-92,141,107,53,19
-68,151,219,-41,-143,185,9,-107,180,141,92,48
-24,219,244,-97,-134,231,-39,-131,234,185,126,82
14,287,273,-151,-129,280,-107,-180,273,244,175,131
78,366,287,-222,-104,326,-190,-229,312,287,234,180
136,444,307,-290,-85,375,-287,-273,351,336,278,234
209,522,312,-366,-51,417,-380,-312,380,395,336,287
278,595,317,-436,-19,456,-488,-366,409,444,385,346
351,673,322,-512,14,497,-595,-434,448,492,439,405
444,756,312,-600,65,534,-702,-492,488,556,502,468
507,849,341,-678,82,595,-785,-527,536,614,566,536
551,917,366,-734,92,641,-868,-575,585,668,619,590
575,980,405,-778,85,692,-927,-649,624,717,678,658
580,995,414,-788,82,705,-956,-727,624,732,702,697
575,961,385,-768,95,673,-956,-790,570,702,712,717
551,888,336,-719,107,612,-941,-849,483,649,683,707
527,780,253,-653,136,517,-888,-897,370,566,644,697
488,644,156,-566,165,400,-824,-897,234,448,570,644
453,468,14,-461,219,241,-722,-849,78,297,458,546
419,297,-122,-358,270,87,-610,-756,-73,151,341,448
375,151,-224,-263,300,-36,-507,-673,-190,29,244,366
331,29,-302,-180,317,-136,-419,-585,-287,-63,161,292
287,-53,-341,-117,314,-197,-331,-512,-346,-131,102,244
234,-92,-326,-70,280,-209,-258,-444,-370,-156,73,209
175,-97,-273,-39,224,-185,-204,-375,-351,-151,63,185
136,-102,-239,-17,187,-170,-156,-307,-331,-151,58,165
107,-97,-204,-4,156,-151,-112,-244,-297,-141,34,141
87,-97,-185,4,136,-141,-87,-190,-263,-141,19,112
68,-97,-165,14,117,-131,-58,-146,-234,-126,9,82
43,-102,-146,29,95,-124,-39,-112,-195,-117,-14,53
24,-107,-131,41,78,-119,-19,-78,-170,-117,-24,24
0,-122,-122,61,61,-122,0,-53,-156,-107,-39,9
-19,-136,-117,78,48,-126,9,-39,-141,-102,-43,-14
-39,-136,-97,87,29,-117,24,-29,-122,-87,-48,-24
-43,-122,-78,82,17,-100,29,-14,-102,-78,-48,-39
-53,-102,-48,78,-2,-75,29,4,-78,-63,-43,-39
-43,-92,-48,68,2,-70,24,-4,-68,-73,-43,-39
-43,-82,-39,63,-2,-61,24,0,-63,-68,-43,-39
-43,-82,-39,63,-2,-61,29,4,-53,-63,-43,-43
-48,-82,-34,65,-7,-58,29,9,-53,-58,-39,-43
-39,-82,-43,61,2,-63,39,4,-58,-58,-39,-34
-43,-82,-39,63,-2,-61,43,4,-58,-58,-39,-34
-43,-82,-39,63,-2,-61,43,4,-58,-58,-39,-34
-43,-82,-39,63,-2,-61,43,4,-58,-63,-43,-43
-48,-73,-24,61,-12,-48,34,4,-53,-58,-48,-43
-43,-73,-29,58,-7,-51,34,4,-53,-63,-48,-48
-43,-78,-34,61,-4,-56,34,4,-58,-63,-48,-53
-39,-82,-43,61,2,-63,34,9,-58,-58,-48,-53
-39,-82,-43,61,2,-63,39,19,-53,-53,-48,-43
-39,-78,-39,58,0,-58,39,24,-53,-48,-48,-39
-39,-78,-39,58,0,-58,39,24,-48,-48,-43,-39
-39,-78,-39,58,0,-58,43,24,-48,-48,-43,-39
-48,-87,-39,68,-4,-63,34,19,-48,-58,-43,-48
-48,-82,-34,65,-7,-58,34,19,-48,-63,-48,-58
-48,-82,-34,65,-7,-58,34,19,-48,-63,-48,-58
-48,-82,-34,65,-7,-58,34,19,-48,-63,-48,-58
-58,-97,-39,78,-9,-68,34,19,-48,-53,-48,-53
-63,-102,-39,82,-12,-70,34,24,-48,-48,-48,-53
-63,-102,-39,82,-12,-70,39,24,-43,-48,-48,-53
-63,-102,-39,82,-12,-70,43,24,-43,-48,-48,-48
-73,-92,-19,82,-26,-56,43,14,-43,-58,-48,-48
-73,-92,-19,82,-26,-56,43,14,-43,-58,-48,-48
-73,-92,-19,82,-26,-56,39,14,-43,-58,-53,-53
-68,-87,-19,78,-24,-53,39,14,-43,-58,-53,-53
-53,-78,-24,65,-14,-51,48,29,-43,-48,-53,-53
-43,-78,-34,61,-4,-56,48,34,-43,-43,-48,-48
-39,-78,-39,58,0,-58,48,34,-39,-43,-48,-48
-34,-73,-39,53,2,-56,48,34,-39,-43,-48,-48
-39,-63,-24,51,-7,-43,39,34,-39,-43,-48,-48
-43,-68,-24,56,-9,-46,39,29,-39,-53,-48,-53
-48,-68,-19,58,-14,-43,39,29,-43,-53,-53,-58
-53,-78,-24,65,-14,-51,39,29,-43,-53,-53,-63
-53,-87,-34,70,-9,-61,39,29,-43,-58,-53,-63
-48,-82,-34,65,-7,-58,43,29,-39,-58,-53,-58
-43,-78,-34,61,-4,-56,48,34,-39,-43,-48,-48
-43,-68,-24,56,-9,-46,48,39,-34,-43,-43,-48
-39,-78,-39,58,0,-58,58,29,-43,-48,-53,-58
-43,-78,-34,61,-4,-56,58,29,-43,-53,-53,-58
-48,-78,-29,63,-9,-53,58,29,-43,-58,-63,-68
-53,-82,-29,68,-12,-56,48,29,-43,-58,-63,-68
-63,-82,-19,73,-21,-51,58,34,-43,-63,-58,-78
-63,-78,-14,70,-24,-46,58,39,-34,-53,-58,-73
-58,-78,-19,68,-19,-48,63,43,-34,-48,-48,-63
-58,-73,-14,65,-21,-43,63,43,-29,-48,-48,-63
-58,-73,-14,65,-21,-43,73,34,-29,-43,-48,-53
-58,-73,-14,65,-21,-43,73,34,-29,-43,-48,-53
-58,-68,-9,63,-24,-39,63,34,-29,-43,-58,-63
-63,-68,-4,65,-29,-36,63,34,-34,-48,-58,-68
-53,-68,-14,61,-19,-41,63,43,-24,-48,-58,-68
-53,-73,-19,63,-17,-46,68,48,-24,-48,-58,-63
-53,-73,-19,63,-17,-46,68,53,-24,-43,-58,-63
-53,-73,-19,63,-17,-46,78,53,-24,-43,-53,-63
-53,-58,-4,56,-24,-31,68,58,-19,-43,-43,-58
-53,-58,-4,56,-24,-31,68,58,-19,-43,-43,-58
-48,-53,-4,51,-21,-29,68,58,-19,-43,-43,-58
-48,-53,-4,51,-21,-29,68,63,-19,-48,-53,-63
-39,-53,-14,46,-12,-34,58,63,-19,-48,-53,-58
-39,-58,-19,48,-9,-39,58,73,-19,-48,-48,-58
-39,-58,-19,48,-9,-39,63,78,-14,-39,-48,-58
-39,-58,-19,48,-9,-39,68,82,-14,-34,-43,-53
-48,-63,-14,56,-17,-39,68,82,-14,-34,-53,-63
-48,-63,-14,56,-17,-39,68,82,-14,-34,-48,-58
-48,-53,-4,51,-21,-29,68,82,-14,-34,-48,-58
-43,-53,-9,48,-17,-31,68,92,-14,-34,-48,-58
-48,-63,-14,56,-17,-39,68,82,-24,-34,-53,-63
-53,-63,-9,58,-21,-36,68,92,-24,-34,-53,-63
-58,-63,-4,61,-26,-34,68,97,-19,-34,-53,-63
-68,-63,4,65,-36,-29,73,102,-14,-29,-53,-58
-68,-58,9,63,-39,-24,73,107,-4,-24,-29,-58
-68,-48,19,58,-43,-14,73,112,4,-24,-29,-53
-63,-43,19,53,-41,-12,78,117,9,-24,-34,-53
-58,-43,14,51,-36,-14,78,122,9,-24,-34,-53
-48,-39,9,43,-29,-14,78,126,19,-14,-43,-63
-43,-39,4,41,-24,-17,78,131,19,-14,-43,-63
-43,-34,9,39,-26,-12,78,141,19,-14,-39,-58
-39,-29,9,34,-24,-9,78,146,19,-9,-39,-58
-34,-24,9,29,-21,-7,68,161,24,0,-29,-43
-29,-19,9,24,-19,-4,73,161,34,9,-29,-43
-19,-4,14,12,-17,4,73,165,39,9,-29,-43
-14,9,24,2,-19,17,73,170,43,9,-29,-43
-4,19,24,-7,-14,21,73,185,53,9,-29,-48
4,24,19,-14,-7,21,73,200,58,9,-29,-48
4,24,19,-14,-7,21,73,209,63,19,-29,-43
4,34,29,-19,-12,31,68,219,68,29,-24,-43
4,24,19,-14,-7,21,68,224,68,19,-14,-34
4,19,14,-12,-4,17,68,229,73,29,-14,-34
0,19,19,-9,-9,19,68,239,73,29,-14,-39
4,19,14,-12,-4,17,73,248,73,29,-14,-39
4,34,29,-19,-12,31,82,258,78,19,-14,-39
4,39,34,-21,-14,36,82,268,78,24,-14,-39
4,39,34,-21,-14,36,92,278,82,29,-9,-39
9,29,19,-19,-4,24,92,292,87,34,-9,-39
14,39,24,-26,-4,31,102,302,97,43,-9,-43
14,43,29,-29,-7,36,102,322,102,48,-4,-29
24,48,24,-36,0,36,102,336,112,48,-4,-29
29,58,29,-43,0,43,102,346,117,48,0,-29
39,82,43,-61,-2,63,102,361,131,68,9,-29
53,92,39,-73,7,65,102,375,141,68,9,-29
63,97,34,-80,14,65,102,390,146,78,14,-29
73,102,29,-87,21,65,112,405,156,82,14,-29
73,112,39,-92,17,75,117,414,161,87,24,-14
73,122,48,-97,12,85,117,429,175,97,29,-9
73,131,58,-102,7,95,112,439,185,102,34,-4
73,141,68,-107,2,104,112,453,190,107,39,-4
73,146,73,-109,0,109,107,458,204,112,39,4
82,161,78,-122,2,119,107,473,209,122,39,4
97,165,68,-131,14,117,107,488,219,126,39,4
97,165,68,-131,14,117,107,502,229,131,39,9
112,180,68,-146,21,124,107,517,239,141,48,9
117,190,73,-153,21,131,107,531,248,151,53,19
122,195,73,-158,24,134,107,536,258,151,58,24
131,204,73,-168,29,139,112,546,263,156,58,29
141,209,68,-175,36,139,112,551,258,156,58,19
151,224,73,-187,39,148,102,561,268,156,63,19
161,234,73,-197,43,153,97,575,273,165,63,24
165,239,73,-202,46,156,92,585,278,170,73,24
161,244,82,-202,39,163,87,595,273,170,68,14
165,239,73,-202,46,156,82,605,283,175,73,24
170,234,63,-202,53,148,82,610,287,180,78,29
170,229,58,-200,56,143,78,610,292,180,78,29
170,229,58,-200,56,143,73,610,287,170,78,29
170,234,63,-202,53,148,68,610,287,175,78,24
170,239,68,-204,51,153,63,610,292,180,78,24
170,244,73,-207,48,158,58,610,292,190,82,34
195,263,68,-229,63,165,63,600,312,204,87,39
195,268,73,-231,61,170,58,600,317,209,92,43
200,273,73,-236,63,173,53,590,317,214,97,48
200,273,73,-236,63,173,43,585,317,214,102,53
200,278,78,-239,61,178,29,570,317,214,112,63
204,283,78,-244,63,180,19,561,317,214,112,63
209,292,82,-251,63,187,9,546,317,209,112,63
219,297,78,-258,70,187,9,531,312,209,112,73
224,297,73,-261,75,185,-9,527,307,219,112,63
224,297,73,-261,75,185,-19,507,302,219,117,63
224,292,68,-258,78,180,-19,483,297,219,117,73
224,292,68,-258,78,180,-19,463,297,219,122,73
229,283,53,-256,87,168,-34,444,283,209,112,82
219,287,68,-253,75,178,-39,414,273,200,112,82
214,287,73,-251,70,180,-43,390,263,190,112,82
209,273,63,-241,73,168,-53,366,253,185,107,82
195,253,58,-224,68,156,-58,346,244,180,102,73
180,244,63,-212,58,153,-58,326,234,175,102,73
170,234,63,-202,53,148,-58,302,224,175,102,73
156,224,68,-190,43,146,-53,278,214,165,102,73
156,224,68,-190,43,146,-58,263,204,161,107,82
156,219,63,-187,46,141,-63,239,195,156,107,82
151,214,63,-183,43,139,-68,219,185,141,102,73
136,200,63,-168,36,131,-68,195,165,131,97,68
117,185,68,-151,24,126,-68,170,161,126,92,58
107,170,63,-139,21,117,-68,156,151,117,87,58
97,165,68,-131,14,117,-68,136,146,117,87,58
92,156,63,-124,14,109,-68,117,131,112,82,58
73,131,58,-102,7,95,-63,102,112,97,78,63
68,126,58,-97,4,92,-58,82,97,87,73,58
58,112,53,-85,2,82,-53,63,87,78,63,53
48,102,53,-75,-2,78,-48,53,78,68,63,48
34,87,53,-61,-9,70,-43,39,58,48,43,34
29,78,48,-53,-9,63,-43,34,53,43,39,29
29,58,29,-43,0,43,-39,24,48,43,34,29
14,48,34,-31,-9,41,-39,14,39,39,34,34
19,48,29,-34,-4,39,-29,14,29,34,29,34
14,48,34,-31,-9,41,-29,4,19,29,29,24
14,43,29,-29,-7,36,-24,-4,9,19,24,24
19,39,19,-29,0,29,-24,-14,9,14,19,19
14,39,24,-26,-4,31,-24,-4,4,9,9,14
19,29,9,-24,4,19,-14,-14,-9,4,4,14
19,29,9,-24,4,19,-14,-19,-9,4,4,14
19,34,14,-26,2,24,-14,-19,-14,4,4,9
24,29,4,-26,9,17,-24,-24,-9,14,14,19
24,24,0,-24,12,12,-24,-29,-14,4,4,19
19,24,4,-21,7,14,-24,-34,-14,0,4,14
14,24,9,-19,2,17,-24,-39,-19,-4,4,14
-4,19,24,-7,-14,21,-24,-43,-24,-14,9,4
-9,9,19,0,-14,14,-19,-43,-29,-19,9,4
-14,4,19,4,-17,12,-14,-43,-34,-19,9,4
-19,0,19,9,-19,9,-14,-43,-34,-19,9,4
-29,-14,14,21,-21,0,-14,-43,-29,-19,0,4
-34,-19,14,26,-24,-2,-14,-43,-29,-19,0,4
-39,-24,14,31,-26,-4,-9,-53,-39,-29,0,-4
-48,-29,19,39,-34,-4,-9,-58,-43,-34,-9,-9
-48,-48,0,48,-24,-24,-4,-68,-58,-39,-14,-19
-58,-48,9,53,-34,-19,0,-68,-58,-39,-19,-19
-58,-48,9,53,-34,-19,9,-68,-58,-39,-24,-19
-58,-48,9,53,-34,-19,14,-68,-58,-39,-24,-19
-48,-48,0,48,-24,-24,4,-58,-58,-39,-24,-19
-43,-48,-4,46,-19,-26,9,-58,-58,-39,-24,-19
-43,-48,-4,46,-19,-26,9,-58,-58,-43,-24,-19
-43,-48,-4,46,-19,-26,9,-63,-58,-43,-24,-19
-34,-48,-14,41,-9,-31,0,-63,-48,-43,-24,-19
-39,-48,-9,43,-14,-29,0,-63,-53,-43,-24,-19
-39,-48,-9,43,-14,-29,0,-63,-53,-43,-24,-19
-43,-48,-4,46,-19,-26,0,-63,-53,-43,-24,-19
-34,-39,-4,36,-14,-21,-9,-53,-53,-43,-24,-19
-34,-39,-4,36,-14,-21,-4,-53,-53,-43,-24,-19
-34,-39,-4,36,-14,-21,-4,-53,-53,-43,-24,-19
-29,-39,-9,34,-9,-24,0,-53,-53,-43,-24,-19
-39,-48,-9,43,-14,-29,-9,-63,-53,-43,-24,-19
-39,-48,-9,43,-14,-29,-14,-58,-53,-43,-24,-19
-39,-48,-9,43,-14,-29,-14,-58,-53,-48,-24,-19
-39,-48,-9,43,-14,-29,-14,-58,-53,-48,-24,-19
-39,-39,0,39,-19,-19,0,-58,-43,-39,-24,-19
-39,-39,0,39,-19,-19,0,-58,-43,-39,-24,-19
-39,-39,0,39,-19,-19,0,-58,-43,-39,-24,-19
-34,-39,-4,36,-14,-21,-4,-58,-43,-39,-24,-19
-43,-39,4,41,-24,-17,4,-58,-43,-34,-14,-19
-53,-39,14,46,-34,-12,4,-58,-43,-34,-14,-19
-53,-39,14,46,-34,-12,4,-58,-43,-34,-14,-24
-48,-34,14,41,-31,-9,4,-58,-43,-34,-14,-24
-39,-34,4,36,-21,-14,9,-58,-43,-34,-24,-24
-43,-39,4,41,-24,-17,9,-58,-43,-34,-24,-24
-43,-39,4,41,-24,-17,9,-53,-43,-39,-24,-24
-43,-43,0,43,-21,-21,9,-53,-43,-39,-24,-24
-43,-43,0,43,-21,-21,9,-53,-43,-39,-29,-24
-43,-43,0,43,-21,-21,9,-53,-43,-39,-29,-24
-43,-43,0,43,-21,-21,9,-53,-43,-39,-29,-24
-43,-43,0,43,-21,-21,9,-53,-43,-39,-29,-24
-43,-34,9,39,-26,-12,9,-43,-43,-39,-29,-24
-43,-34,9,39,-26,-12,9,-39,-43,-39,-29,-24
-39,-34,4,36,-21,-14,9,-39,-43,-34,-29,-24
-39,-29,9,34,-24,-9,9,-39,-39,-34,-24,-24
-39,-29,9,34,-24,-9,9,-39,-39,-34,-24,-14
-34,-29,4,31,-19,-12,9,-39,-39,-34,-24,-14
-29,-29,0,29,-14,-14,9,-34,-39,-34,-24,-14
-29,-24,4,26,-17,-9,9,-34,-39,-29,-24,-14
-34,-24,9,29,-21,-7,0,-34,-39,-29,-14,-14
-34,-24,9,29,-21,-7,0,-34,-34,-29,-14,-14
-39,-24,14,31,-26,-4,0,-29,-34,-29,-14,-14
-39,-24,14,31,-26,-4,4,-29,-34,-29,-14,-14
-48,-24,24,36,-36,0,4,-29,-24,-19,-14,-14
-48,-24,24,36,-36,0,4,-29,-24,-19,-14,-14
-48,-29,19,39,-34,-4,4,-29,-24,-19,-14,-14
-48,-29,19,39,-34,-4,0,-29,-24,-19,-14,-14
-48,-39,9,43,-29,-14,9,-29,-34,-29,-14,-19
-53,-39,14,46,-34,-12,9,-29,-34,-29,-19,-19
-53,-39,14,46,-34,-12,14,-29,-34,-29,-19,-19
-53,-39,14,46,-34,-12,14,-29,-34,-34,-19,-19
-53,-48,4,51,-29,-21,24,-39,-43,-43,-29,-29
-53,-48,4,51,-29,-21,24,-39,-48,-43,-29,-29
-53,-53,0,53,-26,-26,24,-39,-48,-43,-29,-29
-53,-53,0,53,-26,-26,24,-39,-48,-43,-29,-29
-48,-48,0,48,-24,-24,24,-39,-48,-48,-39,-29
-43,-48,-4,46,-19,-26,24,-39,-48,-48,-43,-34
-39,-48,-9,43,-14,-29,24,-39,-48,-48,-43,-34
-34,-48,-14,41,-9,-31,24,-39,-48,-48,-43,-34
-24,-39,-14,31,-4,-26,19,-29,-39,-39,-34,-34
-34,-39,-4,36,-14,-21,19,-29,-39,-39,-34,-34
-34,-39,-4,36,-14,-21,14,-29,-39,-39,-34,-34
-34,-39,-4,36,-14,-21,9,-29,-39,-39,-34,-34
-39,-48,-9,43,-14,-29,9,-39,-39,-39,-34,-34
-39,-43,-4,41,-17,-24,4,-39,-39,-39,-34,-34
-39,-43,-4,41,-17,-24,4,-39,-39,-39,-34,-34
-39,-43,-4,41,-17,-24,4,-39,-39,-39,-34,-34
-43,-48,-4,46,-19,-26,14,-39,-48,-48,-43,-34
-53,-58,-4,56,-24,-31,14,-43,-48,-48,-43,-34
-68,-68,0,68,-34,-34,14,-43,-48,-48,-43,-34
-78,-73,4,75,-41,-34,14,-43,-48,-48,-43,-34
-82,-82,0,82,-41,-41,24,-53,-48,-48,-43,-43
-87,-82,4,85,-46,-39,24,-53,-53,-48,-43,-43
-92,-82,9,87,-51,-36,24,-53,-53,-53,-48,-43
-92,-82,9,87,-51,-36,29,-53,-53,-53,-48,-43
-87,-73,14,80,-51,-29,19,-53,-53,-53,-48,-39
-82,-73,9,78,-46,-31,19,-53,-53,-53,-48,-39
-78,-73,4,75,-41,-34,19,-53,-53,-48,-48,-39
-73,-73,0,73,-36,-36,19,-53,-58,-48,-48,-39
-68,-73,-4,70,-31,-39,14,-43,-48,-53,-48,-39
-63,-68,-4,65,-29,-36,14,-43,-48,-53,-48,-39
-58,-63,-4,61,-26,-34,14,-48,-53,-53,-48,-39
-53,-63,-9,58,-21,-36,14,-48,-53,-53,-48,-39
-48,-58,-9,53,-19,-34,4,-39,-53,-53,-48,-39
-39,-53,-14,46,-12,-34,4,-39,-53,-58,-48,-39
-34,-53,-19,43,-7,-36,4,-39,-53,-58,-48,-39
-24,-53,-29,39,2,-41,4,-39,-58,-58,-48,-39
-24,-43,-19,34,-2,-31,-4,-29,-48,-48,-43,-29
-24,-39,-14,31,-4,-26,-4,-29,-48,-48,-43,-29
-24,-39,-14,31,-4,-26,-4,-29,-48,-48,-43,-34
-24,-39,-14,31,-4,-26,-4,-29,-48,-48,-43,-34
-39,-48,-9,43,-14,-29,-14,-43,-58,-48,-34,-24
-39,-48,-9,43,-14,-29,-14,-43,-58,-48,-34,-24
-39,-48,-9,43,-14,-29,-14,-43,-58,-48,-34,-24
-39,-48,-9,43,-14,-29,-14,-43,-58,-48,-34,-24
-43,-63,-19,53,-12,-41,-9,-53,-63,-58,-43,-24
-48,-68,-19,58,-14,-43,-4,-58,-63,-58,-43,-29
-53,-73,-19,63,-17,-46,0,-58,-63,-58,-39,-34
-58,-78,-19,68,-19,-48,4,-58,-63,-58,-39,-39
-73,-87,-14,80,-29,-51,9,-68,-63,-58,-53,-48
-78,-87,-9,82,-34,-48,14,-73,-63,-58,-53,-48
-82,-87,-4,85,-39,-46,19,-73,-63,-58,-53,-48
-87,-92,-4,90,-41,-48,24,-73,-63,-58,-53,-48
-78,-92,-14,85,-31,-53,24,-73,-63,-58,-53,-48
-78,-92,-14,85,-31,-53,29,-78,-68,-63,-53,-48
-78,-97,-19,87,-29,-58,29,-78,-68,-63,-53,-48
-78,-97,-19,87,-29,-58,24,-78,-73,-63,-53,-48
-68,-82,-14,75,-26,-48,24,-68,-68,-58,-43,-43
-63,-78,-14,70,-24,-46,24,-68,-68,-58,-48,-43
-53,-73,-19,63,-17,-46,24,-68,-63,-58,-48,-43
-48,-68,-19,58,-14,-43,24,-68,-58,-58,-48,-43
-39,-58,-19,48,-9,-39,14,-63,-48,-48,-39,-39
-24,-48,-24,36,0,-36,14,-58,-48,-48,-39,-34
-9,-39,-29,24,9,-34,14,-53,-48,-48,-39,-29
4,-29,-34,12,19,-31,14,-48,-48,-48,-39,-24
4,-39,-43,17,24,-41,0,-48,-58,-48,-39,-24
4,-34,-39,14,21,-36,-4,-48,-58,-48,-39,-24
9,-34,-43,12,26,-39,-9,-48,-58,-48,-39,-24
9,-34,-43,12,26,-39,-14,-48,-58,-48,-39,-24
-14,-48,-34,31,9,-41,-4,-58,-68,-53,-48,-34
-29,-58,-29,43,0,-43,-9,-58,-68,-58,-48,-34
-39,-68,-29,53,-4,-48,-9,-58,-68,-63,-48,-34
-48,-78,-29,63,-9,-53,-9,-63,-68,-68,-48,-34
-63,-92,-29,78,-17,-61,-4,-68,-73,-78,-58,-39
-78,-107,-29,92,-24,-68,0,-73,-78,-78,-58,-43
-102,-117,-14,109,-43,-65,4,-82,-82,-78,-58,-48
-117,-131,-14,124,-51,-73,9,-87,-87,-78,-58,-53
-117,-131,-14,124,-51,-73,14,-92,-78,-68,-58,-58
-122,-131,-9,126,-56,-70,19,-92,-82,-73,-58,-58
-122,-131,-9,126,-56,-70,24,-92,-82,-73,-58,-58
-122,-131,-9,126,-56,-70,34,-87,-82,-73,-63,-53
-107,-117,-9,112,-48,-63,24,-78,-82,-63,-53,-43
-102,-112,-9,107,-46,-61,24,-78,-82,-63,-53,-43
-97,-107,-9,102,-43,-58,24,-82,-82,-63,-53,-48
-87,-102,-14,95,-36,-58,24,-82,-82,-63,-53,-48
-73,-92,-19,82,-26,-56,24,-78,-82,-63,-53,-48
-63,-87,-24,75,-19,-56,24,-78,-82,-63,-53,-48
-58,-87,-29,73,-14,-58,24,-78,-82,-63,-53,-48
-53,-87,-34,70,-9,-61,24,-78,-82,-63,-48,-48
-48,-68,-19,58,-14,-43,14,-68,-82,-68,-48,-39
-39,-68,-29,53,-4,-48,9,-68,-78,-68,-48,-39
-34,-68,-34,51,0,-51,9,-68,-78,-68,-48,-34
-29,-68,-39,48,4,-53,4,-68,-78,-68,-48,-34
-34,-78,-43,56,4,-61,4,-68,-78,-58,-43,-34
-34,-73,-39,53,2,-56,4,-68,-78,-58,-43,-34
-34,-68,-34,51,0,-51,4,-68,-78,-58,-43,-34
-34,-68,-34,51,0,-51,4,-68,-78,-53,-43,-34
-34,-68,-34,51,0,-51,-4,-68,-78,-53,-43,-29
-39,-68,-29,53,-4,-48,0,-68,-78,-58,-48,-29
-48,-78,-29,63,-9,-53,0,-68,-78,-58,-48,-39
-48,-78,-29,63,-9,-53,0,-68,-78,-58,-48,-39
-48,-78,-29,63,-9,-53,0,-68,-78,-58,-48,-39
-48,-78,-29,63,-9,-53,0,-68,-78,-58,-48,-39
-63,-87,-24,75,-19,-56,0,-78,-78,-58,-48,-29
-68,-87,-19,78,-24,-53,0,-78,-78,-58,-48,-29
-73,-87,-14,80,-29,-51,0,-78,-78,-58,-48,-29
-78,-87,-9,82,-34,-48,0,-78,-78,-58,-48,-29
-78,-87,-9,82,-34,-48,9,-78,-78,-58,-48,-39
-78,-87,-9,82,-34,-48,9,-78,-78,-58,-48,-39
-78,-87,-9,82,-34,-48,9,-78,-78,-58,-48,-39
-78,-87,-9,82,-34,-48,9,-78,-78,-58,-48,-39
-68,-97,-29,82,-19,-63,9,-78,-78,-68,-48,-29
-68,-97,-29,82,-19,-63,9,-78,-78,-68,-48,-29
-68,-97,-29,82,-19,-63,9,-78,-78,-68,-48,-29
-68,-97,-29,82,-19,-63,9,-78,-78,-68,-48,-29
-63,-87,-24,75,-19,-56,9,-78,-87,-68,-58,-39
-58,-87,-29,73,-14,-58,9,-78,-87,-68,-58,-39
-53,-87,-34,70,-9,-61,9,-78,-87,-68,-58,-39
-48,-87,-39,68,-4,-63,9,-78,-87,-68,-58,-39
-43,-82,-39,63,-2,-61,0,-78,-87,-68,-48,-29
-39,-78,-39,58,0,-58,0,-78,-87,-68,-48,-29
-34,-73,-39,53,2,-56,0,-78,-87,-68,-48,-29
-29,-68,-39,48,4,-53,0,-78,-87,-68,-48,-29
-39,-68,-29,53,-4,-48,0,-68,-82,-58,-39,-29
-39,-68,-29,53,-4,-48,0,-68,-78,-58,-39,-29
-39,-68,-29,53,-4,-48,0,-68,-73,-58,-39,-29
-39,-68,-29,53,-4,-48,0,-68,-68,-58,-39,-29
-48,-58,-9,53,-19,-34,0,-78,-68,-48,-29,-19
-48,-58,-9,53,-19,-34,0,-78,-68,-48,-29,-19
-48,-58,-9,53,-19,-34,0,-78,-68,-48,-29,-19
-48,-58,-9,53,-19,-34,0,-78,-68,-48,-29,-19
-48,-58,-9,53,-19,-34,9,-78,-58,-39,-29,-19
-48,-58,-9,53,-19,-34,9,-78,-58,-39,-29,-19
-48,-58,-9,53,-19,-34,9,-78,-58,-39,-29,-19
-48,-58,-9,53,-19,-34,9,-78,-58,-39,-29,-19
-48,-53,-4,51,-21,-29,9,-78,-48,-29,-19,-14
-48,-48,0,48,-24,-24,9,-78,-48,-29,-19,-9
-48,-43,4,46,-26,-19,9,-78,-48,-29,-19,-4
-48,-39,9,43,-29,-14,9,-78,-48,-29,-19,0
-48,-39,9,43,-29,-14,19,-68,-39,-29,-19,0
-48,-39,9,43,-29,-14,19,-68,-39,-29,-19,0
-48,-39,9,43,-29,-14,19,-68,-39,-29,-19,0
-48,-39,9,43,-29,-14,19,-68,-39,-29,-19,0
-48,-39,9,43,-29,-14,9,-68,-39,-29,-19,-9
-48,-39,9,43,-29,-14,9,-68,-39,-29,-19,-9
-48,-39,9,43,-29,-14,9,-68,-39,-29,-19,-9
-48,-39,9,43,-29,-14,9,-68,-39,-29,-19,-9
-39,-48,-9,43,-14,-29,9,-68,-48,-39,-19,-19
-39,-48,-9,43,-14,-29,9,-68,-48,-39,-19,-19
-39,-48,-9,43,-14,-29,9,-68,-48,-39,-19,-19
-39,-48,-9,43,-14,-29,9,-68,-48,-39,-19,-19
-34,-43,-9,39,-12,-26,-4,-68,-48,-29,-19,-14
-29,-39,-9,34,-9,-24,-9,-68,-48,-29,-19,-9
-24,-34,-9,29,-7,-21,-14,-68,-48,-29,-19,-4
-19,-29,-9,24,-4,-19,-19,-68,-48,-29,-19,0
-14,-19,-4,17,-4,-12,-24,-68,-39,-29,-9,9
-9,-19,-9,14,0,-14,-29,-68,-39,-29,-9,9
-4,-19,-14,12,4,-17,-34,-68,-39,-29,-9,9
0,-19,-19,9,9,-19,-39,-68,-39,-29,-9,9
0,-19,-19,9,9,-19,-48,-78,-39,-29,-9,0
0,-19,-19,9,9,-19,-48,-78,-39,-29,-9,0
0,-19,-19,9,9,-19,-48,-78,-39,-29,-9,0
0,-19,-19,9,9,-19,-48,-78,-39,-29,-9,0
-4,-34,-29,19,12,-31,-48,-87,-43,-29,-9,0
-9,-39,-29,24,9,-34,-43,-87,-48,-34,-19,-9
-19,-43,-24,31,2,-34,-43,-87,-48,-39,-19,-14
-29,-48,-19,39,-4,-34,-39,-87,-53,-39,-24,-14
-43,-63,-19,53,-12,-41,-34,-92,-68,-43,-29,-19
-43,-73,-29,58,-7,-51,-34,-92,-68,-48,-29,-19
-43,-78,-34,61,-4,-56,-34,-92,-73,-48,-34,-24
-43,-82,-39,63,-2,-61,-29,-92,-73,-48,-34,-24
-34,-73,-39,53,2,-56,-29,-92,-87,-58,-34,-24
-34,-78,-43,56,4,-61,-29,-92,-87,-63,-34,-24
-34,-78,-43,56,4,-61,-29,-92,-87,-63,-39,-24
-34,-78,-43,56,4,-61,-24,-87,-87,-63,-39,-29
-24,-68,-43,46,9,-56,-34,-78,-87,-63,-39,-29
-14,-73,-58,43,21,-65,-34,-78,-92,-63,-39,-29
0,-73,-73,36,36,-73,-34,-78,-92,-68,-39,-29
9,-73,-82,31,46,-78,-34,-78,-92,-68,-39,-29
19,-63,-82,21,51,-73,-43,-63,-82,-68,-39,-29
19,-63,-82,21,51,-73,-43,-63,-82,-68,-39,-29
24,-63,-87,19,56,-75,-43,-63,-82,-68,-39,-29
24,-63,-87,19,56,-75,-43,-63,-82,-68,-39,-29
14,-73,-87,29,51,-80,-34,-73,-92,-68,-48,-34
4,-78,-82,36,43,-80,-34,-73,-92,-68,-48,-34
0,-87,-87,43,43,-87,-29,-73,-92,-68,-53,-34
-9,-97,-87,53,39,-92,-29,-73,-97,-68,-53,-34
-19,-112,-92,65,36,-102,-24,-82,-97,-78,-53,-39
-34,-112,-78,73,21,-95,-14,-82,-97,-78,-53,-43
-48,-117,-68,82,9,-92,-9,-87,-102,-78,-58,-43
-53,-122,-68,87,7,-95,0,-87,-102,-78,-58,-43
-68,-126,-58,97,-4,-92,19,-87,-92,-78,-58,-43
-73,-126,-53,100,-9,-90,24,-92,-92,-78,-58,-48
-78,-131,-53,104,-12,-92,24,-92,-92,-78,-58,-48
-82,-131,-48,107,-17,-90,24,-92,-92,-82,-63,-48
-78,-126,-48,102,-14,-87,24,-82,-82,-78,-58,-48
-82,-122,-39,102,-21,-80,29,-82,-82,-73,-53,-53
-87,-122,-34,104,-26,-78,29,-82,-82,-68,-53,-53
-87,-117,-29,102,-29,-73,34,-82,-82,-63,-48,-53
-78,-122,-43,100,-17,-82,29,-82,-92,-73,-48,-53
-78,-122,-43,100,-17,-82,29,-82,-97,-73,-48,-53
-78,-126,-48,102,-14,-87,24,-82,-97,-73,-53,-58
-78,-126,-48,102,-14,-87,19,-82,-97,-73,-53,-58
-87,-131,-43,109,-21,-87,19,-92,-107,-82,-58,-58
-87,-136,-48,112,-19,-92,19,-92,-107,-82,-63,-58
-87,-141,-53,114,-17,-97,19,-92,-107,-87,-68,-63
-87,-146,-58,117,-14,-102,19,-92,-112,-87,-73,-63
-87,-161,-73,124,-7,-117,19,-92,-122,-92,-78,-73
-92,-161,-68,126,-12,-114,19,-92,-122,-97,-78,-73
-92,-161,-68,126,-12,-114,19,-92,-122,-102,-78,-73
-92,-161,-68,126,-12,-114,19,-92,-122,-107,-78,-73
-82,-146,-63,114,-9,-104,19,-92,-122,-97,-78,-63
-78,-146,-68,112,-4,-107,19,-92,-117,-97,-78,-63
-78,-146,-68,112,-4,-107,19,-92,-117,-97,-73,-63
-78,-146,-68,112,-4,-107,19,-92,-117,-97,-73,-58
-63,-136,-73,100,4,-104,19,-78,-107,-87,-63,-58
-63,-131,-68,97,2,-100,19,-78,-107,-87,-63,-58
-63,-126,-63,95,0,-95,19,-78,-107,-87,-63,-58
-58,-117,-58,87,0,-87,19,-78,-107,-87,-63,-58
-68,-117,-48,92,-9,-82,14,-78,-97,-78,-63,-48
-68,-117,-48,92,-9,-82,14,-78,-97,-78,-63,-48
-68,-117,-48,92,-9,-82,14,-78,-97,-78,-63,-48
-73,-117,-43,95,-14,-80,14,-78,-97,-78,-63,-48
-73,-131,-58,102,-7,-95,14,-87,-97,-78,-63,-58
-73,-131,-58,102,-7,-95,14,-87,-97,-78,-63,-58
-73,-131,-58,102,-7,-95,14,-87,-102,-78,-63,-58
-73,-131,-58,102,-7,-95,14,-87,-102,-82,-68,-63
-87,-131,-43,109,-21,-87,24,-87,-102,-82,-68,-63
-87,-131,-43,109,-21,-87,24,-87,-102,-82,-63,-63
-87,-131,-43,109,-21,-87,24,-87,-97,-82,-63,-58
-87,-131,-43,109,-21,-87,29,-87,-97,-78,-63,-58
-82,-136,-53,109,-14,-95,29,-87,-97,-87,-63,-58
-82,-136,-53,109,-14,-95,34,-87,-97,-87,-58,-58
-82,-136,-53,109,-14,-95,34,-87,-97,-82,-58,-58
-78,-131,-53,104,-12,-92,29,-87,-97,-82,-58,-58
-87,-131,-43,109,-21,-87,14,-87,-102,-82,-58,-58
-87,-131,-43,109,-21,-87,14,-87,-102,-82,-58,-58
-87,-131,-43,109,-21,-87,9,-87,-102,-82,-63,-58
-87,-131,-43,109,-21,-87,9,-87,-102,-82,-63,-58
-73,-126,-53,100,-9,-90,19,-92,-102,-82,-63,-58
-78,-122,-43,100,-17,-82,24,-82,-102,-82,-63,-58
-82,-131,-48,107,-17,-90,24,-78,-102,-92,-73,-58
-82,-136,-53,109,-14,-95,43,-68,-107,-92,-78,-63
-87,-136,-48,112,-19,-92,58,-63,-97,-92,-68,-78
-92,-136,-43,114,-24,-90,68,-48,-92,-82,-78,-82
-102,-117,-14,109,-43,-65,73,-43,-73,-78,-73,-73
-107,-102,4,104,-56,-48,73,-43,-43,-58,-63,-68
-117,-78,39,97,-78,-19,73,-43,-24,-39,-48,-58
-117,-39,78,78,-97,19,68,-53,29,4,-24,-43
-117,9,126,53,-122,68,63,-63,73,43,9,-14
-102,63,165,19,-134,114,48,-82,122,92,48,19
-97,112,209,-7,-153,161,29,-102,170,126,73,48
-68,180,248,-56,-158,214,-19,-136,209,170,112,78
-24,258,283,-117,-153,270,-78,-180,253,224,156,122
34,336,302,-185,-134,319,-156,-239,302,273,214,161
107,414,307,-261,-100,361,-248,-268,331,326,263,219
175,502,326,-339,-75,414,-336,-312,370,375,317,273
258,580,322,-419,-31,451,-448,-361,419,434,366,326
346,683,336,-514,4,509,-566,-424,458,502,434,385
439,780,341,-610,48,561,-683,-473,517,570,497,453
512,873,361,-692,75,617,-790,-512,575,644,570,527
566,976,409,-771,78,692,-883,-556,634,702,634,595
610,1063,453,-836,78,758,-956,-634,692,766,707,668
634,1098,463,-866,85,780,-1005,-717,702,795,746,727
629,1083,453,-856,87,768,-1034,-775,683,780,761,746
614,1019,405,-817,104,712,-1024,-849,600,741,751,756
580,917,336,-749,122,627,-990,-907,502,658,712,736
536,780,244,-658,146,512,-936,-927,361,556,644,697
507,605,97,-556,204,351,-834,-888,214,409,541,614
463,439,-24,-451,244,207,-722,-810,58,278,429,517
429,287,-141,-358,285,73,-629,-736,-82,141,331,439
385,161,-224,-273,305,-31,-527,-663,-190,39,244,366
331,68,-263,-200,297,-97,-439,-595,-258,-34,180,312
278,24,-253,-151,265,-114,-361,-531,-297,-73,141,283
214,-14,-229,-100,222,-122,-287,-463,-302,-87,122,248
175,-29,-204,-73,190,-117,-234,-385,-292,-92,102,214
146,-53,-200,-46,173,-126,-185,-317,-283,-112,78,175
117,-58,-175,-29,146,-117,-141,-263,-268,-122,53,141
87,-68,-156,-9,122,-112,-107,-219,-234,-112,29,112
58,-68,-126,4,92,-97,-78,-165,-204,-107,9,92
43,-82,-126,19,85,-104,-58,-131,-175,-107,-4,53
24,-97,-122,36,73,-109,-39,-107,-161,-97,-14,34
0,-112,-112,56,56,-112,-19,-82,-146,-97,-29,9
-29,-117,-87,73,29,-102,0,-58,-131,-82,-34,-14
-48,-117,-68,82,9,-92,14,-39,-102,-78,-39,-14
-53,-92,-39,73,-7,-65,19,-24,-82,-58,-29,-19
-53,-82,-29,68,-12,-56,19,-24,-68,-53,-34,-29
-63,-78,-14,70,-24,-46,24,-14,-68,-63,-34,-39
-63,-73,-9,68,-26,-41,24,-9,-63,-58,-34,-39
-63,-78,-14,70,-24,-46,29,-4,-53,-53,-34,-43
-68,-82,-14,75,-26,-48,29,0,-53,-48,-29,-43
-68,-92,-24,80,-21,-58,39,4,-48,-48,-39,-43
-73,-92,-19,82,-26,-56,43,4,-48,-48,-39,-43
-73,-92,-19,82,-26,-56,43,4,-48,-48,-39,-43
-73,-92,-19,82,-26,-56,43,4,-48,-53,-43,-53
-73,-102,-29,87,-21,-65,43,4,-63,-68,-58,-63
-73,-102,-29,87,-21,-65,43,4,-63,-73,-58,-68
-78,-107,-29,92,-24,-68,43,4,-68,-73,-58,-73
-78,-112,-34,95,-21,-73,43,9,-68,-68,-58,-73
-73,-102,-29,87,-21,-65,58,9,-73,-73,-58,-63
-68,-97,-29,82,-19,-63,58,14,-73,-68,-58,-58
-63,-97,-34,80,-14,-65,58,14,-68,-68,-53,-58
-58,-97,-39,78,-9,-68,63,14,-68,-68,-53,-58
-58,-97,-39,78,-9,-68,63,19,-68,-68,-63,-58
-58,-92,-34,75,-12,-63,63,19,-68,-73,-68,-68
-58,-92,-34,75,-12,-63,63,19,-68,-73,-68,-68
-58,-92,-34,75,-12,-63,63,19,-68,-73,-68,-68
-58,-97,-39,78,-9,-68,63,19,-58,-63,-58,-63
-63,-102,-39,82,-12,-70,63,24,-58,-58,-58,-63
-63,-102,-39,82,-12,-70,68,24,-53,-58,-58,-63
-63,-102,-39,82,-12,-70,73,24,-53,-58,-58,-58
-73,-92,-19,82,-26,-56,63,24,-53,-58,-58,-68
-73,-92,-19,82,-26,-56,63,24,-53,-58,-58,-68
-73,-92,-19,82,-26,-56,58,24,-53,-58,-63,-73
-68,-87,-19,78,-24,-53,58,24,-53,-58,-63,-73
-78,-87,-9,82,-34,-48,58,29,-53,-58,-53,-63
-73,-87,-14,80,-29,-51,58,34,-53,-53,-48,-58
-73,-87,-14,80,-29,-51,58,34,-48,-53,-48,-58
-73,-82,-9,78,-31,-46,58,34,-48,-53,-48,-58
-87,-87,0,87,-43,-43,58,24,-48,-53,-58,-58
-92,-97,-4,95,-43,-51,58,19,-48,-63,-58,-63
-97,-102,-4,100,-46,-53,58,19,-53,-63,-63,-68
-102,-117,-14,109,-43,-65,58,19,-53,-63,-63,-73
-102,-107,-4,104,-48,-56,68,19,-43,-48,-53,-73
-97,-102,-4,100,-46,-53,73,19,-39,-48,-53,-68
-92,-97,-4,95,-43,-51,78,24,-39,-34,-48,-58
-92,-87,4,90,-48,-41,78,29,-34,-34,-43,-58
-73,-82,-9,78,-31,-46,68,29,-34,-39,-43,-58
-73,-78,-4,75,-34,-41,68,29,-34,-43,-43,-58
-73,-73,0,73,-36,-36,68,29,-34,-48,-53,-68
-73,-73,0,73,-36,-36,58,29,-34,-48,-53,-68
-68,-63,4,65,-36,-29,58,43,-34,-43,-48,-58
-63,-58,4,61,-34,-26,58,48,-24,-34,-48,-53
-53,-58,-4,56,-24,-31,63,53,-24,-29,-39,-43
-48,-53,-4,51,-21,-29,63,53,-19,-29,-39,-43
-39,-43,-4,41,-17,-24,53,43,-19,-34,-39,-43
-39,-43,-4,41,-17,-24,53,43,-19,-34,-39,-43
-39,-39,0,39,-19,-19,43,43,-19,-34,-48,-53
-43,-39,4,41,-24,-17,43,43,-24,-39,-48,-58
-48,-53,-4,51,-21,-29,43,43,-24,-39,-48,-58
-53,-63,-9,58,-21,-36,48,48,-24,-39,-48,-53
-58,-68,-9,63,-24,-39,48,53,-24,-34,-48,-53
-63,-73,-9,68,-26,-41,58,53,-24,-34,-43,-53
-73,-68,4,70,-39,-31,68,58,-19,-34,-43,-48
-73,-68,4,70,-39,-31,68,58,-19,-34,-43,-48
-68,-63,4,65,-36,-29,68,58,-19,-34,-43,-48
-68,-63,4,65,-36,-29,68,63,-19,-39,-53,-53
-68,-63,4,65,-36,-29,68,63,-19,-39,-43,-58
-68,-68,0,68,-34,-34,68,73,-19,-39,-39,-58
-68,-68,0,68,-34,-34,73,78,-14,-29,-39,-58
-68,-68,0,68,-34,-34,78,82,-14,-24,-34,-53
-58,-58,0,58,-29,-29,78,82,4,-24,-34,-53
-58,-53,4,56,-31,-24,78,82,4,-24,-29,-48
-58,-39,19,48,-39,-9,78,82,4,-24,-29,-48
-53,-34,19,43,-36,-7,78,92,4,-24,-29,-48
-53,-43,9,48,-31,-17,78,92,-4,-24,-34,-53
-53,-43,9,48,-31,-17,78,102,-4,-24,-34,-53
-53,-43,9,48,-31,-17,78,107,0,-24,-34,-53
-58,-43,14,51,-36,-14,82,112,4,-19,-34,-48
-58,-43,14,51,-36,-14,82,117,-4,-24,-24,-58
-58,-39,19,48,-39,-9,82,122,4,-24,-29,-53
-53,-39,14,46,-34,-12,87,126,9,-24,-39,-53
-48,-43,4,46,-26,-19,87,131,9,-24,-43,-53
-58,-48,9,53,-34,-19,97,126,9,-34,-53,-63
-53,-58,-4,56,-24,-31,97,131,9,-34,-53,-63
-53,-63,-9,58,-21,-36,97,141,9,-34,-48,-58
-48,-68,-19,58,-14,-43,97,146,9,-29,-48,-58
-58,-68,-9,63,-24,-39,97,161,4,-29,-39,-63
-58,-68,-9,63,-24,-39,102,161,14,-19,-39,-63
-53,-58,-4,56,-24,-31,102,165,19,-19,-39,-63
-53,-48,4,51,-29,-21,102,170,24,-19,-39,-63
-43,-29,14,36,-29,-7,107,185,34,-9,-29,-58
-34,-24,9,29,-21,-7,112,200,39,-9,-29,-58
-34,-24,9,29,-21,-7,117,209,43,0,-29,-53
-34,-14,19,24,-26,2,117,219,48,9,-24,-53
-19,-4,14,12,-17,4,107,224,63,19,-14,-34
-14,0,14,7,-14,7,107,229,73,29,-14,-34
-14,9,24,2,-19,17,107,239,78,29,-14,-39
-4,19,24,-7,-14,21,112,248,82,29,-14,-39
-14,43,58,-14,-36,51,112,258,97,39,-4,-29
-14,48,63,-17,-39,56,112,268,97,43,-4,-29
-14,48,63,-17,-39,56,122,278,102,48,0,-29
-9,39,48,-14,-29,43,122,292,107,53,0,-29
-4,48,53,-21,-29,51,122,302,107,53,9,-34
-4,53,58,-24,-31,56,122,322,112,58,14,-19
4,58,53,-31,-24,56,122,336,122,58,14,-19
9,68,58,-39,-24,63,122,346,126,58,19,-19
24,73,48,-48,-12,61,122,361,122,58,9,-29
34,82,48,-58,-7,65,122,375,131,58,9,-29
39,87,48,-63,-4,68,122,390,136,68,14,-29
43,92,48,-68,-2,70,131,405,146,73,14,-29
58,82,24,-70,17,53,126,434,141,68,19,-24
63,92,29,-78,17,61,126,448,156,78,19,-19
68,102,34,-85,17,68,122,458,165,82,19,-14
73,112,39,-92,17,75,122,473,170,87,19,-14
82,126,43,-104,19,85,117,488,180,102,29,-14
92,141,48,-117,21,95,117,502,190,112,29,-14
107,146,39,-126,34,92,117,517,204,117,29,-14
107,146,39,-126,34,92,117,531,219,122,29,-9
102,161,58,-131,21,109,126,546,239,141,48,0
107,170,63,-139,21,117,126,561,248,151,53,9
112,175,63,-143,24,119,126,566,258,151,58,14
122,185,63,-153,29,124,131,575,263,156,58,19
141,204,63,-173,39,134,122,590,268,165,58,19
151,224,73,-187,39,148,112,600,278,165,63,19
161,239,78,-200,41,158,107,614,283,175,63,24
165,248,82,-207,41,165,102,624,287,180,73,24
161,258,97,-209,31,178,107,634,302,190,87,24
165,258,92,-212,36,175,102,644,312,195,92,34
170,258,87,-214,41,173,102,649,317,200,97,39
170,258,87,-214,41,173,97,649,322,200,97,39
175,268,92,-222,41,180,102,639,326,200,97,39
180,273,92,-226,43,183,97,639,326,204,97,34
185,278,92,-231,46,185,92,639,331,209,97,34
190,283,92,-236,48,187,87,639,331,219,102,43
195,283,87,-239,53,185,73,639,331,214,97,39
195,287,92,-241,51,190,68,639,336,219,102,43
200,292,92,-246,53,192,63,629,336,224,107,48
200,292,92,-246,53,192,53,624,336,224,112,53
200,283,82,-241,58,183,58,610,322,219,102,53
204,283,78,-244,63,180,48,600,317,214,102,53
209,287,78,-248,65,183,39,585,312,204,102,53
219,287,68,-253,75,178,39,570,302,200,102,63
224,278,53,-251,85,165,19,566,297,200,102,63
224,278,53,-251,85,165,9,546,292,200,107,63
224,273,48,-248,87,161,9,522,287,200,107,73
224,273,48,-248,87,161,9,502,287,200,112,73
229,273,43,-251,92,158,4,483,273,200,102,73
219,278,58,-248,80,168,0,453,263,190,102,73
214,278,63,-246,75,170,-4,429,253,180,102,73
209,263,53,-236,78,158,-14,405,244,175,97,73
200,253,53,-226,73,153,-24,375,234,170,102,73
190,244,53,-217,68,148,-29,356,224,165,102,73
185,234,48,-209,68,141,-34,331,214,165,102,73
175,224,48,-200,63,136,-34,307,204,156,102,73
165,234,68,-200,48,151,-48,292,204,161,97,73
165,229,63,-197,51,146,-53,268,195,156,97,73
161,224,63,-192,48,143,-58,248,185,141,92,63
146,209,63,-178,41,136,-58,224,165,131,87,58
136,195,58,-165,39,126,-58,200,151,136,92,68
126,180,53,-153,36,117,-58,185,141,126,87,68
117,175,58,-146,29,117,-58,165,136,126,87,68
112,165,53,-139,29,109,-58,146,122,122,82,68
102,141,39,-122,31,90,-58,122,112,97,68,63
97,136,39,-117,29,87,-58,102,97,87,63,58
87,122,34,-104,26,78,-58,82,87,78,53,53
78,112,34,-95,21,73,-58,73,78,68,53,48
63,92,29,-78,17,61,-53,58,48,48,43,43
58,87,29,-73,14,58,-53,53,43,43,39,39
58,73,14,-65,21,43,-48,43,39,43,34,39
43,68,24,-56,9,46,-48,34,29,39,34,43
53,58,4,-56,24,31,-39,24,29,34,29,34
43,58,14,-51,14,36,-39,14,19,29,29,24
39,53,14,-46,12,34,-34,4,9,19,24,24
39,48,9,-43,14,29,-34,-4,9,14,19,19
24,34,9,-29,7,21,-34,-4,4,9,9,4
19,19,0,-19,9,9,-24,-14,-9,4,4,4
9,14,4,-12,2,9,-24,-19,-9,4,4,4
0,14,14,-7,-7,14,-24,-19,-14,4,4,0
-4,9,14,-2,-9,12,-24,-24,-9,4,14,9
-4,4,9,0,-7,7,-24,-29,-14,-4,4,9
-9,4,14,2,-12,9,-24,-34,-14,-9,4,4
-14,4,19,4,-17,12,-24,-39,-19,-14,4,4
-19,9,29,4,-24,19,-14,-43,-24,-4,9,4
-19,0,19,9,-19,9,-9,-43,-29,-9,9,4
-19,-4,14,12,-17,4,-4,-43,-34,-9,9,4
-19,-9,9,14,-14,0,-4,-43,-34,-9,9,4
-19,-24,-4,21,-7,-14,-4,-43,-39,-19,4,4
-24,-29,-4,26,-9,-17,-4,-43,-39,-19,0,4
-29,-34,-4,31,-12,-19,0,-53,-48,-29,-4,-4
-39,-39,0,39,-19,-19,0,-58,-53,-34,-19,-9
-39,-53,-14,46,-12,-34,0,-58,-68,-48,-24,-29
-48,-58,-9,53,-19,-34,0,-58,-68,-48,-29,-29
-48,-63,-14,56,-17,-39,4,-58,-68,-48,-34,-29
-48,-68,-19,58,-14,-43,4,-58,-68,-48,-34,-29
-48,-78,-29,63,-9,-53,-4,-58,-68,-58,-43,-29
-43,-78,-34,61,-4,-56,0,-58,-68,-58,-43,-29
-43,-78,-34,61,-4,-56,0,-58,-68,-63,-43,-29
-43,-78,-34,61,-4,-56,0,-63,-68,-63,-43,-29
-34,-68,-34,51,0,-51,0,-63,-58,-53,-34,-19
-39,-68,-29,53,-4,-48,0,-63,-63,-53,-34,-19
-39,-68,-29,53,-4,-48,0,-63,-63,-53,-34,-19
-43,-68,-24,56,-9,-46,0,-63,-63,-53,-34,-19
-34,-63,-29,48,-2,-46,0,-53,-53,-43,-24,-9
-34,-58,-24,46,-4,-41,4,-53,-53,-43,-24,-9
-34,-53,-19,43,-7,-36,4,-53,-53,-43,-24,-9
-29,-48,-19,39,-4,-34,9,-53,-53,-43,-24,-9
-19,-43,-24,31,2,-34,0,-53,-43,-39,-14,0
-19,-39,-19,29,0,-29,-4,-48,-43,-34,-14,0
-19,-34,-14,26,-2,-24,-4,-48,-43,-34,-14,0
-19,-29,-9,24,-4,-19,-4,-48,-43,-29,-14,0
-19,-29,-9,24,-4,-19,-9,-48,-43,-29,-14,0
-19,-29,-9,24,-4,-19,-9,-48,-43,-29,-14,0
-19,-29,-9,24,-4,-19,-9,-48,-43,-29,-14,0
-14,-29,-14,21,0,-21,-14,-48,-43,-29,-14,0
-24,-39,-14,31,-4,-26,-14,-48,-53,-34,-24,-9
-34,-39,-4,36,-14,-21,-14,-48,-53,-34,-24,-9
-34,-39,-4,36,-14,-21,-14,-48,-53,-34,-24,-14
-29,-34,-4,31,-12,-19,-14,-48,-53,-34,-24,-14
-39,-48,-9,43,-14,-29,-9,-58,-63,-43,-34,-24
-43,-58,-14,51,-14,-36,-9,-58,-63,-43,-34,-24
-43,-63,-19,53,-12,-41,-9,-53,-63,-48,-34,-24
-43,-73,-29,58,-7,-51,-9,-53,-63,-48,-34,-24
-43,-73,-29,58,-7,-51,0,-53,-63,-58,-39,-34
-43,-73,-29,58,-7,-51,0,-53,-63,-58,-39,-34
-43,-73,-29,58,-7,-51,0,-53,-63,-58,-39,-34
-43,-73,-29,58,-7,-51,0,-53,-63,-58,-39,-34
-43,-73,-29,58,-7,-51,9,-63,-63,-58,-39,-34
-43,-73,-29,58,-7,-51,9,-58,-63,-58,-39,-34
-39,-73,-34,56,-2,-53,9,-58,-63,-53,-39,-34
-39,-68,-29,53,-4,-48,9,-58,-58,-53,-34,-34
-39,-58,-19,48,-9,-39,19,-48,-58,-53,-34,-24
-34,-58,-24,46,-4,-41,19,-48,-58,-53,-34,-24
-29,-58,-29,43,0,-43,19,-43,-58,-53,-34,-24
-29,-53,-24,41,-2,-39,19,-43,-58,-48,-34,-24
-19,-48,-29,34,4,-39,9,-34,-58,-48,-34,-24
-14,-43,-29,29,7,-36,9,-34,-53,-48,-34,-24
-14,-39,-24,26,4,-31,9,-29,-53,-48,-34,-24
-9,-34,-24,21,7,-29,14,-29,-53,-48,-34,-24
-9,-24,-14,17,2,-19,9,-29,-43,-43,-24,-14
-9,-24,-14,17,2,-19,4,-29,-43,-39,-24,-14
-9,-29,-19,19,4,-24,0,-29,-43,-34,-24,-14
-9,-29,-19,19,4,-24,-9,-29,-43,-29,-24,-14
-24,-34,-9,29,-7,-21,-9,-39,-43,-29,-24,-29
-34,-39,-4,36,-14,-21,-9,-39,-43,-29,-29,-29
-39,-43,-4,41,-17,-24,-4,-39,-43,-29,-29,-29
-43,-48,-4,46,-19,-26,-4,-39,-43,-34,-29,-29
-48,-53,-4,51,-21,-29,9,-48,-53,-43,-39,-29
-53,-58,-4,56,-24,-31,14,-48,-58,-43,-39,-29
-58,-68,-9,63,-24,-39,19,-48,-58,-43,-39,-29
-63,-73,-9,68,-26,-41,24,-48,-58,-43,-39,-29
-73,-87,-14,80,-29,-51,34,-58,-58,-58,-39,-29
-73,-87,-14,80,-29,-51,34,-58,-58,-58,-43,-34
-73,-87,-14,80,-29,-51,34,-58,-58,-58,-43,-34
-73,-87,-14,80,-29,-51,34,-58,-58,-58,-43,-34
-68,-87,-19,78,-24,-53,24,-48,-58,-48,-43,-34
-73,-87,-14,80,-29,-51,29,-48,-58,-48,-43,-34
-68,-87,-19,78,-24,-53,29,-48,-58,-48,-43,-34
-63,-87,-24,75,-19,-56,29,-48,-58,-48,-43,-34
-48,-82,-34,65,-7,-58,19,-48,-48,-48,-43,-34
-48,-73,-24,61,-12,-48,14,-48,-48,-48,-43,-34
-48,-68,-19,58,-14,-43,14,-48,-48,-48,-43,-34
-48,-63,-14,56,-17,-39,14,-48,-48,-48,-43,-34
-34,-58,-24,46,-4,-41,4,-39,-48,-39,-34,-24
-34,-58,-24,46,-4,-41,4,-43,-48,-39,-34,-24
-39,-58,-19,48,-9,-39,4,-43,-48,-39,-34,-24
-39,-53,-14,46,-12,-34,4,-43,-48,-39,-34,-24
-39,-43,-4,41,-17,-24,-4,-43,-48,-48,-34,-24
-39,-43,-4,41,-17,-24,-4,-43,-53,-48,-34,-24
-39,-43,-4,41,-17,-24,-4,-43,-53,-53,-39,-24
-34,-43,-9,39,-12,-26,0,-43,-53,-53,-39,-24
-43,-53,-9,48,-17,-31,0,-43,-43,-43,-39,-29
-43,-53,-9,48,-17,-31,0,-43,-43,-43,-39,-29
-43,-53,-9,48,-17,-31,0,-43,-43,-39,-39,-29
-43,-53,-9,48,-17,-31,0,-43,-48,-39,-39,-29
-53,-68,-14,61,-19,-41,4,-53,-48,-43,-39,-29
-53,-68,-14,61,-19,-41,4,-53,-48,-43,-39,-29
-53,-68,-14,61,-19,-41,4,-58,-53,-43,-39,-29
-53,-73,-19,63,-17,-46,4,-58,-53,-43,-39,-29
-58,-73,-14,65,-21,-43,4,-58,-63,-43,-48,-29
-58,-73,-14,65,-21,-43,4,-58,-63,-48,-48,-29
-63,-78,-14,70,-24,-46,4,-58,-63,-48,-48,-29
-63,-82,-19,73,-21,-51,4,-58,-68,-48,-48,-29
-63,-92,-29,78,-17,-61,14,-58,-78,-58,-53,-39
-63,-87,-24,75,-19,-56,14,-58,-78,-58,-53,-39
-63,-87,-24,75,-19,-56,14,-58,-78,-58,-53,-43
-63,-87,-24,75,-19,-56,14,-58,-78,-58,-53,-43
-58,-87,-29,73,-14,-58,14,-63,-68,-58,-53,-43
-58,-87,-29,73,-14,-58,14,-63,-68,-58,-53,-43
-58,-87,-29,73,-14,-58,14,-63,-68,-58,-53,-43
-58,-87,-29,73,-14,-58,14,-63,-68,-58,-53,-43
-58,-78,-19,68,-19,-48,14,-63,-63,-48,-43,-39
-58,-78,-19,68,-19,-48,14,-68,-63,-48,-43,-39
-58,-78,-19,68,-19,-48,14,-68,-63,-48,-39,-39
-58,-78,-19,68,-19,-48,14,-68,-63,-48,-39,-39
-58,-68,-9,63,-24,-39,4,-68,-63,-48,-34,-29
-58,-68,-9,63,-24,-39,4,-73,-63,-48,-34,-29
-58,-68,-9,63,-24,-39,4,-73,-63,-48,-34,-29
-58,-73,-14,65,-21,-43,4,-73,-63,-48,-34,-29
-48,-63,-14,56,-17,-39,4,-63,-63,-48,-34,-29
-48,-63,-14,56,-17,-39,9,-68,-68,-53,-34,-29
-48,-68,-19,58,-14,-43,9,-68,-68,-53,-34,-29
-48,-68,-19,58,-14,-43,4,-68,-73,-53,-34,-29
-53,-68,-14,61,-19,-41,4,-68,-63,-58,-43,-43
-53,-68,-14,61,-19,-41,4,-68,-68,-58,-48,-43
-48,-68,-19,58,-14,-43,4,-68,-68,-58,-48,-43
-48,-68,-19,58,-14,-43,4,-68,-68,-58,-48,-43
-43,-68,-24,56,-9,-46,4,-78,-68,-58,-39,-34
-43,-68,-24,56,-9,-46,4,-78,-68,-58,-39,-34
-43,-68,-24,56,-9,-46,4,-78,-68,-58,-39,-34
-43,-68,-24,56,-9,-46,4,-78,-68,-58,-39,-34
-43,-68,-24,56,-9,-46,4,-68,-68,-58,-39,-34
-43,-63,-19,53,-12,-41,4,-68,-68,-58,-39,-34
-39,-63,-24,51,-7,-43,4,-68,-68,-58,-39,-34
-39,-63,-24,51,-7,-43,4,-68,-68,-58,-39,-34
-43,-68,-24,56,-9,-46,4,-68,-68,-48,-39,-34
-48,-68,-19,58,-14,-43,0,-68,-68,-48,-39,-34
-48,-68,-19,58,-14,-43,0,-68,-68,-48,-39,-34
-48,-68,-19,58,-14,-43,0,-73,-68,-48,-39,-34
-48,-73,-24,61,-12,-48,0,-73,-58,-48,-39,-34
-48,-78,-29,63,-9,-53,0,-73,-58,-48,-39,-34
-58,-78,-19,68,-19,-48,0,-78,-58,-48,-39,-34
-58,-82,-24,70,-17,-53,0,-78,-58,-48,-39,-34
-68,-92,-24,80,-21,-58,0,-82,-58,-48,-39,-39
-73,-92,-19,82,-26,-56,0,-82,-63,-53,-39,-39
-73,-92,-19,82,-26,-56,0,-82,-63,-53,-39,-39
-73,-92,-19,82,-26,-56,4,-78,-63,-53,-43,-34
-82,-92,-9,87,-36,-51,14,-87,-73,-53,-43,-43
-82,-92,-9,87,-36,-51,14,-87,-73,-53,-43,-43
-82,-92,-9,87,-36,-51,14,-92,-73,-53,-43,-48
-78,-92,-14,85,-31,-53,14,-92,-73,-53,-43,-48
-78,-92,-14,85,-31,-53,14,-87,-63,-53,-43,-39
-73,-87,-14,80,-29,-51,14,-87,-63,-53,-43,-39
-73,-87,-14,80,-29,-51,14,-87,-63,-53,-43,-39
-73,-87,-14,80,-29,-51,14,-87,-63,-53,-39,-39
-73,-87,-14,80,-29,-51,14,-78,-73,-58,-39,-48
-68,-87,-19,78,-24,-53,9,-78,-68,-58,-39,-48
-68,-87,-19,78,-24,-53,9,-78,-68,-58,-39,-43
-68,-87,-19,78,-24,-53,4,-78,-68,-58,-39,-43
-73,-87,-14,80,-29,-51,-4,-87,-68,-58,-43,-43
-73,-82,-9,78,-31,-46,-4,-87,-68,-58,-43,-43
-73,-78,-4,75,-34,-41,-4,-87,-68,-58,-43,-43
-73,-78,-4,75,-34,-41,-4,-87,-68,-53,-43,-43
-82,-78,4,80,-43,-36,4,-87,-58,-53,-34,-29
-78,-78,0,78,-39,-39,9,-87,-58,-48,-39,-29
-78,-87,-9,82,-34,-48,9,-87,-68,-58,-39,-29
-78,-87,-9,82,-34,-48,9,-87,-68,-58,-39,-29
-78,-87,-9,82,-34,-48,9,-87,-68,-58,-39,-29
-78,-87,-9,82,-34,-48,9,-87,-68,-58,-39,-29
-68,-78,-9,73,-29,-43,19,-87,-68,-58,-39,-29
-68,-78,-9,73,-29,-43,19,-87,-68,-58,-39,-29
-68,-78,-9,73,-29,-43,19,-87,-68,-58,-39,-29
-68,-78,-9,73,-29,-43,19,-87,-68,-58,-39,-29
-58,-78,-19,68,-19,-48,9,-87,-68,-58,-39,-29
-58,-78,-19,68,-19,-48,9,-87,-68,-58,-39,-29
-58,-78,-19,68,-19,-48,9,-87,-68,-58,-39,-29
-58,-78,-19,68,-19,-48,9,-87,-68,-58,-39,-29
-58,-78,-19,68,-19,-48,9,-87,-68,-58,-39,-29
-58,-78,-19,68,-19,-48,9,-87,-68,-58,-39,-29
-58,-78,-19,68,-19,-48,9,-87,-68,-58,-39,-29
-58,-78,-19,68,-19,-48,9,-87,-68,-58,-39,-29
-58,-68,-9,63,-24,-39,0,-87,-58,-48,-39,-29
-58,-68,-9,63,-24,-39,0,-87,-58,-48,-39,-29
-58,-68,-9,63,-24,-39,0,-87,-58,-48,-39,-29
-58,-68,-9,63,-24,-39,0,-87,-58,-48,-39,-29
-48,-58,-9,53,-19,-34,0,-87,-58,-48,-39,-29
-48,-58,-9,53,-19,-34,0,-87,-58,-48,-39,-29
-48,-58,-9,53,-19,-34,0,-87,-58,-48,-39,-29
-48,-58,-9,53,-19,-34,0,-87,-58,-48,-39,-29
-39,-43,-4,41,-17,-24,-9,-87,-48,-39,-29,-19
-39,-39,0,39,-19,-19,-9,-87,-48,-39,-29,-19
-39,-34,4,36,-21,-14,-9,-87,-48,-39,-29,-19
-39,-29,9,34,-24,-9,-9,-87,-48,-39,-29,-19
-29,-24,4,26,-17,-9,0,-78,-48,-29,-24,-14
-29,-19,9,24,-19,-4,0,-78,-48,-29,-19,-9
-29,-14,14,21,-21,0,0,-78,-48,-29,-14,-4
-29,-9,19,19,-24,4,0,-78,-48,-29,-9,0
-19,4,24,7,-21,14,0,-68,-43,-19,-4,9
-19,9,29,4,-24,19,0,-68,-39,-19,0,9
-19,14,34,2,-26,24,0,-68,-34,-19,4,9
-19,19,39,0,-29,29,0,-68,-29,-19,9,9
-9,29,39,-9,-24,34,0,-58,-24,-14,9,9
-9,29,39,-9,-24,34,0,-58,-19,-9,9,9
-9,29,39,-9,-24,34,0,-58,-14,-4,9,9
-9,29,39,-9,-24,34,0,-58,-9,0,9,9
-19,19,39,0,-29,29,-9,-58,-9,0,9,9
-19,19,39,0,-29,29,-9,-58,-9,0,9,9
-19,19,39,0,-29,29,-9,-58,-9,0,9,9
-19,19,39,0,-29,29,-9,-58,-9,0,9,9
-19,9,29,4,-24,19,-19,-63,-19,-9,9,9
-19,9,29,4,-24,19,-19,-68,-19,-9,9,9
-19,9,29,4,-24,19,-19,-73,-19,-9,9,9
-19,9,29,4,-24,19,-19,-78,-19,-9,9,9
-29,4,34,12,-31,19,-24,-87,-29,-14,0,9
-29,0,29,14,-29,14,-29,-87,-29,-19,0,9
-29,-4,24,17,-26,9,-34,-87,-29,-24,0,9
-29,-9,19,19,-24,4,-39,-87,-29,-29,0,9
-29,-9,19,19,-24,4,-39,-97,-29,-29,0,9
-29,-9,19,19,-24,4,-39,-97,-29,-29,0,9
-29,-9,19,19,-24,4,-39,-97,-29,-29,0,9
-29,-9,19,19,-24,4,-39,-97,-29,-29,0,9
-19,-4,14,12,-17,4,-48,-97,-34,-29,0,9
-19,-9,9,14,-14,0,-43,-97,-39,-34,-9,0
-24,-14,9,19,-17,-2,-43,-97,-39,-39,-9,-4
-29,-19,9,24,-19,-4,-39,-97,-43,-39,-14,-4
-29,-14,14,21,-21,0,-34,-92,-48,-34,-19,-9
-24,-24,0,24,-12,-12,-34,-92,-48,-39,-19,-9
-19,-29,-9,24,-4,-19,-34,-92,-53,-39,-24,-14
-14,-34,-19,24,2,-26,-29,-92,-53,-39,-24,-14
-24,-39,-14,31,-4,-26,-39,-92,-68,-43,-34,-24
-24,-48,-24,36,0,-36,-39,-92,-68,-53,-34,-24
-24,-53,-29,39,2,-41,-39,-92,-68,-58,-39,-24
-24,-58,-34,41,4,-46,-34,-87,-68,-63,-39,-29
-29,-63,-34,46,2,-48,-34,-97,-68,-53,-39,-29
-34,-73,-39,53,2,-56,-34,-97,-73,-53,-39,-29
-34,-78,-43,56,4,-61,-34,-97,-73,-58,-39,-29
-39,-82,-43,61,2,-63,-34,-97,-73,-58,-39,-29
-39,-73,-34,56,-2,-53,-24,-92,-73,-58,-39,-29
-39,-73,-34,56,-2,-53,-24,-92,-73,-58,-39,-29
-34,-73,-39,53,2,-56,-24,-92,-73,-58,-39,-29
-34,-73,-39,53,2,-56,-24,-92,-73,-58,-39,-29
-29,-68,-39,48,4,-53,-24,-92,-73,-58,-39,-24
-34,-68,-34,51,0,-51,-24,-92,-73,-58,-39,-24
-34,-73,-39,53,2,-56,-19,-92,-73,-58,-43,-24
-39,-78,-39,58,0,-58,-19,-92,-78,-58,-43,-24
-34,-78,-43,56,4,-61,-29,-92,-68,-58,-34,-29
-43,-73,-29,58,-7,-51,-24,-92,-68,-58,-34,-34
-53,-73,-19,63,-17,-46,-24,-97,-73,-58,-39,-34
-53,-73,-19,63,-17,-46,-19,-97,-73,-58,-39,-34
-48,-68,-19,58,-14,-43,-9,-87,-73,-58,-39,-24
-53,-68,-14,61,-19,-41,-4,-92,-73,-58,-39,-29
-58,-73,-14,65,-21,-43,-4,-92,-73,-58,-39,-29
-63,-73,-9,68,-26,-41,-4,-92,-73,-63,-43,-29
-58,-82,-24,70,-17,-53,-4,-92,-73,-63,-43,-29
-63,-82,-19,73,-21,-51,0,-92,-73,-63,-43,-34
-68,-87,-19,78,-24,-53,0,-92,-73,-63,-48,-34
-68,-87,-19,78,-24,-53,4,-92,-73,-63,-48,-34
-78,-92,-14,85,-31,-53,-4,-92,-82,-73,-58,-43
-78,-92,-14,85,-31,-53,0,-92,-87,-73,-58,-43
-78,-97,-19,87,-29,-58,0,-92,-87,-73,-63,-48
-78,-97,-19,87,-29,-58,0,-92,-87,-73,-63,-48
-87,-102,-14,95,-36,-58,0,-82,-87,-73,-63,-48
-87,-107,-19,97,-34,-63,0,-82,-87,-73,-63,-48
-87,-112,-24,100,-31,-68,0,-82,-87,-78,-63,-53
-87,-117,-29,102,-29,-73,0,-82,-92,-78,-63,-53
-78,-112,-34,95,-21,-73,9,-82,-82,-78,-68,-53
-82,-112,-29,97,-26,-70,9,-82,-82,-78,-68,-53
-82,-112,-29,97,-26,-70,9,-82,-82,-78,-68,-53
-82,-112,-29,97,-26,-70,9,-82,-82,-78,-68,-53
-78,-97,-19,87,-29,-58,0,-82,-82,-68,-58,-43
-68,-97,-29,82,-19,-63,0,-82,-78,-68,-58,-43
-63,-97,-34,80,-14,-65,0,-82,-78,-68,-53,-43
-58,-97,-39,78,-9,-68,0,-82,-78,-68,-53,-39
-53,-92,-39,73,-7,-65,0,-87,-87,-68,-53,-39
-53,-92,-39,73,-7,-65,0,-87,-87,-68,-53,-39
-53,-92,-39,73,-7,-65,0,-87,-87,-68,-53,-39
-48,-87,-39,68,-4,-63,0,-87,-87,-68,-53,-39
-58,-87,-29,73,-14,-58,4,-87,-87,-78,-53,-48
-58,-87,-29,73,-14,-58,4,-87,-87,-78,-53,-48
-58,-87,-29,73,-14,-58,4,-87,-87,-78,-53,-48
-63,-87,-24,75,-19,-56,4,-87,-87,-78,-53,-48
-73,-92,-19,82,-26,-56,14,-87,-78,-68,-53,-48
-73,-92,-19,82,-26,-56,14,-87,-78,-68,-53,-48
-73,-92,-19,82,-26,-56,14,-87,-82,-68,-53,-48
-73,-92,-19,82,-26,-56,14,-87,-82,-73,-58,-53
-78,-92,-14,85,-31,-53,14,-97,-82,-63,-48,-43
-78,-92,-14,85,-31,-53,14,-97,-82,-63,-43,-43
-78,-92,-14,85,-31,-53,14,-97,-78,-63,-43,-39
-78,-92,-14,85,-31,-53,19,-97,-78,-58,-43,-39
-78,-92,-14,85,-31,-53,19,-97,-78,-68,-53,-48
-82,-97,-14,90,-34,-56,24,-97,-78,-68,-48,-48
-87,-102,-14,95,-36,-58,24,-97,-78,-63,-48,-48
-87,-102,-14,95,-36,-58,19,-97,-78,-63,-48,-48
-87,-112,-24,100,-31,-68,14,-97,-82,-73,-58,-58
-87,-112,-24,100,-31,-68,14,-97,-82,-73,-58,-58
-87,-112,-24,100,-31,-68,9,-97,-82,-73,-63,-58
-87,-112,-24,100,-31,-68,9,-97,-82,-73,-63,-58
-82,-117,-34,100,-24,-75,9,-92,-82,-73,-63,-58
-87,-122,-34,104,-26,-78,4,-102,-82,-73,-63,-58
-92,-122,-29,107,-31,-75,14,-97,-82,-73,-63,-58
-92,-126,-34,109,-29,-80,24,-87,-87,-82,-68,-63
-97,-126,-29,112,-34,-78,39,-73,-87,-82,-78,-68
-102,-126,-24,114,-39,-75,58,-68,-82,-82,-78,-73
-112,-126,-14,119,-48,-70,73,-53,-73,-78,-73,-73
-126,-112,14,119,-70,-48,73,-53,-63,-68,-73,-68
-126,-97,29,112,-78,-34,82,-43,-34,-48,-58,-68
-126,-68,58,97,-92,-4,87,-43,0,-34,-43,-63
-126,-39,87,82,-107,24,82,-43,34,4,-29,-43
-122,14,136,53,-129,75,78,-53,82,43,9,-19
-107,53,161,26,-134,107,68,-63,122,78,34,9
-97,102,200,-2,-148,151,48,-78,151,112,63,39
-73,161,234,-43,-153,197,9,-92,185,146,97,63
-24,229,253,-102,-139,241,-48,-131,234,195,136,102
39,307,268,-173,-114,287,-131,-180,273,248,185,141
107,385,278,-246,-85,331,-219,-214,312,297,239,185
180,473,292,-326,-56,383,-312,-244,351,346,287,248
268,536,268,-402,0,402,-419,-297,380,395,336,297
351,624,273,-488,39,448,-527,-366,419,453,390,356
444,717,273,-580,85,495,-644,-414,458,507,453,419
507,800,292,-653,107,546,-736,-458,507,575,517,488
561,897,336,-729,112,617,-829,-517,566,639,580,561
605,961,356,-783,124,658,-897,-590,595,688,639,629
619,995,375,-807,122,685,-946,-678,595,702,683,668
614,961,346,-788,134,653,-966,-751,561,683,683,688
590,878,287,-734,151,583,-951,-819,473,629,653,688
556,780,224,-668,165,502,-917,-878,361,546,624,668
517,644,126,-580,195,385,-854,-907,224,429,541,634
483,468,-14,-475,248,226,-751,-868,58,278,439,536
439,287,-151,-363,295,68,-639,-785,-92,131,331,448
405,141,-263,-273,334,-61,-536,-712,-229,9,234,356
361,19,-341,-190,351,-161,-448,-644,-326,-102,141,283
307,-82,-390,-112,348,-236,-351,-561,-395,-170,82,224
244,-131,-375,-56,309,-253,-278,-502,-429,-195,43,190
195,-146,-341,-24,268,-244,-214,-434,-419,-200,34,156
156,-151,-307,-2,231,-229,-156,-356,-390,-200,19,146
136,-156,-292,9,214,-224,-112,-292,-366,-200,4,122
107,-146,-253,19,180,-200,-78,-229,-331,-190,0,92
87,-136,-224,24,156,-180,-48,-165,-292,-175,-19,73
63,-131,-195,34,129,-163,-29,-131,-253,-156,-34,43
43,-136,-180,46,112,-158,0,-107,-229,-156,-43,14
19,-141,-161,61,90,-151,9,-73,-204,-136,-48,0
0,-146,-146,73,73,-146,29,-58,-180,-131,-63,-24
-19,-146,-126,82,53,-136,43,-29,-161,-117,-68,-34
-34,-141,-107,87,36,-124,48,-24,-131,-107,-58,-39
-43,-112,-68,78,12,-90,39,-14,-107,-92,-53,-39
-53,-102,-48,78,-2,-75,43,-24,-87,-82,-63,-39
-53,-92,-39,73,-7,-65,43,-19,-82,-78,-63,-39
-53,-92,-39,73,-7,-65,48,-14,-73,-73,-63,-43
-58,-92,-34,75,-12,-63,48,-9,-73,-68,-58,-43
-58,-102,-43,80,-7,-73,39,-4,-68,-68,-48,-43
-63,-102,-39,82,-12,-70,43,-4,-68,-68,-48,-43
-63,-102,-39,82,-12,-70,43,-4,-68,-68,-48,-43
-63,-102,-39,82,-12,-70,43,-4,-68,-73,-53,-53
-68,-87,-19,78,-24,-53,43,-4,-73,-68,-58,-43
-63,-82,-19,73,-21,-51,43,-4,-73,-73,-58,-48
-63,-82,-19,73,-21,-51,43,-4,-78,-73,-58,-53
-58,-82,-24,70,-17,-53,43,0,-78,-68,-58,-53
-48,-73,-24,61,-12,-48,39,9,-63,-63,-48,-53
-48,-68,-19,58,-14,-43,39,14,-63,-58,-48,-48
-48,-68,-19,58,-14,-43,39,14,-58,-58,-43,-48
-48,-68,-19,58,-14,-43,43,14,-58,-58,-43,-48
-48,-78,-29,63,-9,-53,43,9,-68,-68,-53,-48
-48,-73,-24,61,-12,-48,43,9,-68,-73,-58,-58
-48,-73,-24,61,-12,-48,43,9,-68,-73,-58,-58
-48,-73,-24,61,-12,-48,43,9,-68,-73,-58,-58
-58,-78,-19,68,-19,-48,43,9,-68,-63,-58,-53
-63,-82,-19,73,-21,-51,43,14,-68,-58,-58,-53
-63,-82,-19,73,-21,-51,48,14,-63,-58,-58,-53
-63,-82,-19,73,-21,-51,53,14,-63,-58,-58,-48
-63,-63,0,63,-31,-31,53,14,-53,-58,-48,-48
-63,-63,0,63,-31,-31,53,14,-53,-58,-48,-48
-63,-63,0,63,-31,-31,48,14,-53,-58,-53,-53
-58,-58,0,58,-29,-29,48,14,-53,-58,-53,-53
-48,-48,0,48,-24,-24,48,19,-43,-58,-53,-43
-43,-48,-4,46,-19,-26,48,24,-43,-53,-48,-39
-43,-48,-4,46,-19,-26,48,24,-39,-53,-48,-39
-43,-43,0,43,-21,-21,48,24,-39,-53,-48,-39
-48,-48,0,48,-24,-24,39,24,-48,-53,-48,-48
-53,-58,-4,56,-24,-31,39,19,-48,-63,-48,-53
-58,-63,-4,61,-26,-34,39,19,-53,-63,-53,-58
-63,-78,-14,70,-24,-46,39,19,-53,-63,-53,-63
-73,-92,-19,82,-26,-56,48,19,-63,-68,-63,-73
-68,-92,-24,80,-21,-58,53,19,-58,-68,-63,-68
-63,-92,-29,78,-17,-61,58,24,-58,-53,-58,-58
-63,-87,-24,75,-19,-56,58,29,-53,-53,-53,-58
-58,-92,-34,75,-12,-63,68,19,-63,-68,-53,-58
-63,-97,-34,80,-14,-65,68,19,-63,-73,-53,-58
-68,-102,-34,85,-17,-68,68,19,-63,-78,-63,-68
-73,-112,-39,92,-17,-75,58,19,-63,-78,-63,-68
-73,-112,-39,92,-17,-75,68,24,-73,-73,-68,-78
-73,-107,-34,90,-19,-70,68,29,-63,-63,-68,-73
-68,-107,-39,87,-14,-73,73,34,-63,-58,-58,-63
-68,-102,-34,85,-17,-68,73,34,-58,-58,-58,-63
-58,-92,-34,75,-12,-63,82,43,-48,-53,-48,-58
-58,-92,-34,75,-12,-63,82,43,-48,-53,-48,-53
-58,-87,-29,73,-14,-58,73,43,-48,-53,-58,-58
-63,-87,-24,75,-19,-56,73,43,-53,-58,-58,-58
-58,-82,-24,70,-17,-53,63,53,-53,-58,-58,-58
-53,-82,-29,68,-12,-56,68,58,-53,-58,-58,-53
-48,-78,-29,63,-9,-53,68,63,-53,-53,-58,-53
-43,-73,-29,58,-7,-51,78,63,-53,-53,-53,-53
-43,-78,-34,61,-4,-56,78,68,-39,-53,-53,-48
-43,-78,-34,61,-4,-56,78,68,-39,-53,-53,-48
-39,-73,-34,56,-2,-53,78,68,-39,-53,-53,-48
-39,-73,-34,56,-2,-53,78,73,-39,-58,-63,-53
-39,-63,-24,51,-7,-43,68,63,-39,-58,-63,-58
-39,-68,-29,53,-4,-48,68,73,-39,-58,-58,-58
-39,-68,-29,53,-4,-48,73,78,-34,-48,-58,-58
-39,-68,-29,53,-4,-48,78,82,-34,-43,-53,-53
-39,-73,-34,56,-2,-53,87,92,-24,-43,-53,-63
-39,-73,-34,56,-2,-53,87,92,-24,-43,-48,-58
-39,-63,-24,51,-7,-43,87,92,-24,-43,-48,-58
-34,-63,-29,48,-2,-46,87,102,-24,-43,-48,-58
-43,-53,-9,48,-17,-31,87,92,-24,-43,-53,-63
-43,-53,-9,48,-17,-31,87,102,-24,-43,-53,-63
-43,-53,-9,48,-17,-31,87,107,-19,-43,-53,-63
-48,-53,-4,51,-21,-29,92,112,-14,-39,-53,-58
-39,-58,-19,48,-9,-39,92,117,-24,-34,-48,-58
-39,-48,-9,43,-14,-29,92,122,-14,-34,-48,-53
-34,-43,-9,39,-12,-26,97,126,-9,-34,-53,-53
-29,-43,-14,36,-7,-29,97,131,-9,-34,-53,-53
-29,-53,-24,41,-2,-39,97,146,-9,-43,-63,-63
-24,-58,-34,41,4,-46,97,151,-9,-43,-63,-63
-24,-58,-34,41,4,-46,97,161,-9,-43,-58,-58
-19,-58,-39,39,9,-48,97,165,-9,-39,-58,-58
-19,-58,-39,39,9,-48,107,190,-4,-39,-48,-53
-19,-58,-39,39,9,-48,112,190,4,-29,-48,-53
-14,-48,-34,31,9,-41,112,195,9,-29,-48,-53
-14,-39,-24,26,4,-31,112,200,14,-29,-48,-53
-14,-34,-19,24,2,-26,107,204,14,-29,-58,-68
-4,-34,-29,19,12,-31,112,219,19,-29,-58,-68
-4,-39,-34,21,14,-36,117,229,24,-19,-58,-63
-4,-34,-29,19,12,-31,117,239,29,-9,-53,-63
0,-29,-29,14,14,-29,117,253,34,-9,-34,-53
4,-29,-34,12,19,-31,117,258,43,0,-34,-53
4,-24,-29,9,17,-26,117,268,48,0,-34,-58
14,-19,-34,2,24,-26,122,278,53,0,-34,-58
14,4,-9,-9,12,-2,122,278,68,0,-34,-58
14,9,-4,-12,9,2,122,287,68,4,-34,-58
14,9,-4,-12,9,2,131,297,73,9,-29,-58
19,0,-19,-9,19,-9,131,312,78,14,-29,-58
24,19,-4,-21,14,7,141,312,87,34,-19,-53
24,24,0,-24,12,12,141,331,92,39,-14,-39
34,29,-4,-31,19,12,141,346,102,39,-14,-39
39,39,0,-39,19,19,141,356,107,39,-9,-39
34,63,29,-48,2,46,136,361,112,48,0,-29
43,73,29,-58,7,51,131,375,122,48,0,-29
48,78,29,-63,9,53,126,390,126,58,4,-29
53,82,29,-68,12,56,131,405,136,63,4,-29
48,78,29,-63,9,53,136,424,141,68,4,-34
53,82,29,-68,12,56,136,439,156,78,9,-29
58,87,29,-73,14,58,131,448,165,82,14,-24
63,92,29,-78,17,61,131,463,170,87,19,-24
63,97,34,-80,14,65,136,478,165,82,9,-24
73,112,39,-92,17,75,136,492,170,92,9,-24
87,117,29,-102,29,73,136,507,180,97,9,-24
87,117,29,-102,29,73,136,522,190,102,9,-19
92,112,19,-102,36,65,136,546,200,102,19,-29
97,122,24,-109,36,73,136,561,209,112,24,-19
102,126,24,-114,39,75,136,566,219,112,29,-14
112,136,24,-124,43,80,141,575,224,117,29,-9
131,151,19,-141,56,85,141,590,229,117,29,-9
141,165,24,-153,58,95,131,600,239,117,34,-9
151,175,24,-163,63,100,126,614,244,126,34,-4
156,180,24,-168,65,102,122,624,248,131,43,-4
170,190,19,-180,75,104,117,634,253,141,48,-4
175,190,14,-183,80,102,112,644,263,146,53,4
180,190,9,-185,85,100,112,649,268,151,58,9
180,190,9,-185,85,100,107,649,273,151,58,9
195,204,9,-200,92,107,102,649,287,161,68,19
200,214,14,-207,92,114,97,649,287,165,68,14
204,224,19,-214,92,122,92,649,292,170,68,14
209,234,24,-222,92,129,87,649,292,180,73,24
224,253,29,-239,97,141,82,658,302,195,87,29
224,258,34,-241,95,146,78,658,307,200,92,34
229,263,34,-246,97,148,73,649,307,204,97,39
229,263,34,-246,97,148,63,644,307,204,102,43
224,263,39,-244,92,151,58,619,307,204,102,43
224,263,39,-244,92,151,48,610,307,204,102,43
224,268,43,-246,90,156,39,595,307,200,102,43
229,268,39,-248,95,153,39,580,302,200,102,53
234,268,34,-251,100,151,29,575,297,209,102,53
234,268,34,-251,100,151,19,556,292,209,107,53
234,263,29,-248,102,146,19,531,287,209,107,63
234,263,29,-248,102,146,19,512,287,209,112,63
239,273,34,-256,102,153,9,492,292,200,112,73
229,278,48,-253,90,163,0,463,283,190,112,73
224,278,53,-251,85,165,-9,439,273,180,112,73
219,263,43,-241,87,153,-24,414,263,175,107,73
209,253,43,-231,82,148,-34,385,253,180,92,73
200,244,43,-222,78,143,-39,366,244,175,92,73
195,234,39,-214,78,136,-43,341,234,175,92,73
185,224,39,-204,73,131,-43,317,224,165,92,73
165,224,58,-195,53,141,-48,302,214,161,97,82
165,219,53,-192,56,136,-53,278,204,156,97,82
161,214,53,-187,53,134,-58,258,195,141,92,73
146,200,53,-173,46,126,-58,234,175,131,87,68
126,175,48,-151,39,112,-58,200,161,126,82,58
117,161,43,-139,36,102,-58,185,151,117,78,58
107,156,48,-131,29,102,-58,165,146,117,78,58
102,146,43,-124,29,95,-58,146,131,112,73,58
82,122,39,-102,21,80,-53,122,122,87,68,53
78,117,39,-97,19,78,-48,102,107,78,63,48
68,102,34,-85,17,68,-43,82,97,68,53,43
58,92,34,-75,12,63,-39,73,87,58,53,39
53,73,19,-63,17,46,-34,58,68,48,43,34
48,68,19,-58,14,43,-34,53,63,43,39,29
48,53,4,-51,21,29,-29,43,58,43,34,29
34,48,14,-41,9,31,-29,34,48,39,34,34
24,29,4,-26,9,17,-29,24,39,24,19,24
14,29,14,-21,0,21,-29,14,29,19,19,14
9,24,14,-17,-2,19,-24,4,19,9,14,14
9,19,9,-14,0,14,-24,-4,19,4,9,9
0,14,14,-7,-7,14,-24,-4,14,0,9,4
0,0,0,0,0,0,-14,-14,0,-4,4,4
-4,-4,0,4,-2,-2,-14,-19,0,-4,4,4
-9,-4,4,7,-7,0,-14,-19,-4,-4,4,0
-24,-19,4,21,-14,-7,-24,-24,0,4,4,0
-24,-24,0,24,-12,-12,-24,-29,-4,-4,-4,0
-29,-24,4,26,-17,-9,-24,-34,-4,-9,-4,-4
-34,-24,9,29,-21,-7,-24,-39,-9,-14,-4,-4
-29,-19,9,24,-19,-4,-24,-43,-14,-14,-9,-4
-29,-29,0,29,-14,-14,-19,-43,-19,-19,-9,-4
-29,-34,-4,31,-12,-19,-14,-43,-24,-19,-9,-4
-29,-39,-9,34,-9,-24,-14,-43,-24,-19,-9,-4
-29,-39,-9,34,-9,-24,-24,-53,-19,-19,-9,-4
-34,-39,-4,36,-14,-21,-24,-53,-19,-19,-9,-4
-39,-39,0,39,-19,-19,-19,-63,-29,-29,-9,-14
-48,-39,9,43,-29,-14,-19,-68,-34,-34,-19,-19
-39,-48,-9,43,-14,-29,-19,-68,-39,-39,-24,-29
-48,-48,0,48,-24,-24,-19,-68,-39,-39,-29,-29
-48,-48,0,48,-24,-24,-14,-68,-39,-39,-34,-29
-48,-48,0,48,-24,-24,-14,-68,-39,-39,-34,-29
-48,-48,0,48,-24,-24,-14,-68,-39,-39,-34,-29
-43,-48,-4,46,-19,-26,-9,-68,-39,-39,-34,-29
-43,-48,-4,46,-19,-26,-9,-68,-39,-43,-34,-29
-43,-48,-4,46,-19,-26,-9,-73,-39,-43,-34,-29
-43,-48,-4,46,-19,-26,0,-73,-39,-34,-34,-29
-48,-48,0,48,-24,-24,0,-73,-43,-34,-34,-29
-48,-48,0,48,-24,-24,0,-73,-43,-34,-34,-29
-53,-48,4,51,-29,-21,0,-73,-43,-34,-34,-29
-53,-48,4,51,-29,-21,-9,-73,-43,-34,-24,-19
-53,-48,4,51,-29,-21,-4,-73,-43,-34,-24,-19
-53,-48,4,51,-29,-21,-4,-73,-43,-34,-24,-19
-48,-48,0,48,-24,-24,0,-73,-43,-34,-24,-19
-39,-39,0,39,-19,-19,-9,-73,-34,-34,-24,-19
-39,-39,0,39,-19,-19,-14,-68,-34,-34,-24,-19
-39,-39,0,39,-19,-19,-14,-68,-34,-39,-24,-19
-39,-39,0,39,-19,-19,-14,-68,-34,-39,-24,-19
-39,-39,0,39,-19,-19,0,-58,-43,-39,-24,-29
-39,-39,0,39,-19,-19,0,-58,-43,-39,-24,-29
-39,-39,0,39,-19,-19,0,-58,-43,-39,-24,-29
-34,-39,-4,36,-14,-21,-4,-58,-43,-39,-24,-29
-43,-48,-4,46,-19,-26,-4,-58,-43,-43,-34,-29
-53,-48,4,51,-29,-21,-4,-58,-43,-43,-34,-29
-53,-48,4,51,-29,-21,-4,-58,-43,-43,-34,-34
-48,-43,4,46,-26,-19,-4,-58,-43,-43,-34,-34
-58,-48,9,53,-34,-19,9,-68,-53,-43,-34,-34
-63,-58,4,61,-34,-26,9,-68,-53,-43,-34,-34
-63,-63,0,63,-31,-31,9,-63,-53,-48,-34,-34
-63,-73,-9,68,-26,-41,9,-63,-53,-48,-34,-34
-63,-63,0,63,-31,-31,9,-63,-53,-48,-39,-34
-63,-63,0,63,-31,-31,9,-63,-53,-48,-39,-34
-63,-63,0,63,-31,-31,9,-63,-53,-48,-39,-34
-63,-63,0,63,-31,-31,9,-63,-53,-48,-39,-34
-63,-63,0,63,-31,-31,9,-63,-53,-48,-39,-34
-63,-63,0,63,-31,-31,9,-58,-53,-48,-39,-34
-58,-63,-4,61,-26,-34,9,-58,-53,-43,-39,-34
-58,-58,0,58,-29,-29,9,-58,-48,-43,-34,-34
-68,-68,0,68,-34,-34,19,-48,-39,-43,-24,-34
-63,-68,-4,65,-29,-36,19,-48,-39,-43,-24,-34
-58,-68,-9,63,-24,-39,19,-43,-39,-43,-24,-34
-58,-63,-4,61,-26,-34,19,-43,-39,-39,-24,-34
-63,-63,0,63,-31,-31,9,-53,-48,-39,-34,-34
-63,-63,0,63,-31,-31,9,-53,-43,-39,-34,-34
-68,-63,4,65,-36,-29,9,-48,-43,-39,-34,-34
-68,-63,4,65,-36,-29,14,-48,-43,-39,-34,-34
-58,-63,-4,61,-26,-34,14,-48,-43,-39,-34,-34
-58,-63,-4,61,-26,-34,14,-48,-43,-39,-34,-34
-58,-68,-9,63,-24,-39,14,-48,-43,-39,-34,-34
-58,-68,-9,63,-24,-39,9,-48,-43,-39,-34,-34
-53,-53,0,53,-26,-26,0,-39,-34,-29,-24,-29
-53,-48,4,51,-29,-21,0,-39,-34,-29,-29,-29
-48,-43,4,46,-26,-19,4,-39,-34,-29,-29,-29
-43,-39,4,41,-24,-17,4,-39,-34,-34,-29,-29
-34,-39,-4,36,-14,-21,0,-29,-34,-34,-29,-29
-34,-39,-4,36,-14,-21,-4,-29,-39,-34,-29,-29
-34,-43,-9,39,-12,-26,-9,-29,-39,-34,-29,-29
-34,-43,-9,39,-12,-26,-14,-29,-39,-34,-29,-29
-43,-58,-14,51,-14,-36,-14,-39,-48,-39,-29,-29
-43,-58,-14,51,-14,-36,-14,-39,-48,-39,-34,-34
-43,-58,-14,51,-14,-36,-14,-39,-48,-39,-34,-34
-43,-58,-14,51,-14,-36,-14,-39,-48,-39,-34,-34
-48,-63,-14,56,-17,-39,-9,-48,-48,-48,-43,-43
-63,-68,-4,65,-29,-36,0,-48,-48,-48,-43,-43
-68,-73,-4,70,-31,-39,4,-48,-48,-48,-43,-43
-73,-78,-4,75,-34,-41,9,-48,-48,-48,-43,-43
-58,-78,-19,68,-19,-48,14,-48,-48,-48,-43,-43
-58,-73,-14,65,-21,-43,14,-48,-48,-48,-43,-43
-58,-73,-14,65,-21,-43,19,-48,-48,-48,-43,-43
-58,-73,-14,65,-21,-43,24,-48,-48,-48,-43,-43
-43,-68,-24,56,-9,-46,24,-39,-48,-48,-34,-34
-43,-68,-24,56,-9,-46,24,-43,-48,-48,-34,-34
-48,-68,-19,58,-14,-43,24,-43,-48,-48,-34,-34
-48,-63,-14,56,-17,-39,24,-43,-48,-48,-34,-34
-39,-53,-14,46,-12,-34,14,-43,-48,-39,-34,-34
-39,-53,-14,46,-12,-34,14,-43,-53,-39,-34,-34
-39,-53,-14,46,-12,-34,14,-43,-53,-43,-39,-34
-34,-53,-19,43,-7,-36,19,-43,-53,-43,-39,-34
-39,-63,-24,51,-7,-43,9,-53,-43,-53,-39,-39
-43,-63,-19,53,-12,-41,9,-53,-43,-53,-39,-39
-48,-63,-14,56,-17,-39,9,-53,-43,-48,-39,-39
-53,-63,-9,58,-21,-36,9,-53,-48,-48,-39,-39
-58,-78,-19,68,-19,-48,4,-53,-58,-53,-39,-48
-63,-78,-14,70,-24,-46,4,-53,-58,-53,-39,-48
-68,-78,-9,73,-29,-43,4,-58,-63,-53,-39,-48
-73,-82,-9,78,-31,-46,4,-58,-63,-53,-39,-48
-78,-82,-4,80,-36,-43,4,-58,-63,-63,-39,-48
-78,-82,-4,80,-36,-43,4,-58,-63,-68,-39,-48
-82,-87,-4,85,-39,-46,4,-58,-63,-68,-39,-48
-82,-92,-9,87,-36,-51,4,-58,-68,-68,-39,-48
-78,-87,-9,82,-34,-48,4,-58,-58,-58,-34,-39
-73,-78,-4,75,-34,-41,4,-58,-58,-58,-34,-39
-68,-73,-4,70,-31,-39,4,-58,-58,-58,-34,-43
-63,-68,-4,65,-29,-36,4,-58,-58,-58,-34,-43
-63,-58,4,61,-34,-26,4,-63,-58,-48,-34,-34
-58,-58,0,58,-29,-29,4,-63,-58,-48,-34,-34
-53,-58,-4,56,-24,-31,4,-63,-58,-48,-34,-34
-48,-58,-9,53,-19,-34,4,-63,-58,-48,-34,-34
-39,-48,-9,43,-14,-29,4,-63,-53,-48,-34,-39
-39,-48,-9,43,-14,-29,4,-68,-53,-48,-34,-39
-39,-48,-9,43,-14,-29,4,-68,-53,-48,-29,-39
-39,-48,-9,43,-14,-29,4,-68,-53,-48,-29,-39
-48,-58,-9,53,-19,-34,-4,-58,-53,-48,-34,-39
-48,-58,-9,53,-19,-34,-4,-63,-53,-48,-34,-39
-48,-58,-9,53,-19,-34,-4,-63,-53,-48,-34,-39
-48,-63,-14,56,-17,-39,-4,-63,-53,-48,-34,-39
-48,-63,-14,56,-17,-39,-4,-63,-53,-48,-43,-39
-48,-63,-14,56,-17,-39,0,-68,-58,-53,-43,-39
-48,-68,-19,58,-14,-43,0,-68,-58,-53,-43,-39
-48,-68,-19,58,-14,-43,-4,-68,-63,-53,-43,-39
-58,-78,-19,68,-19,-48,4,-78,-63,-58,-43,-43
-63,-78,-14,70,-24,-46,4,-78,-68,-58,-48,-43
-63,-78,-14,70,-24,-46,4,-78,-68,-58,-48,-43
-68,-78,-9,73,-29,-43,4,-78,-68,-58,-48,-43
-63,-68,-4,65,-29,-36,4,-78,-68,-58,-39,-34
-63,-68,-4,65,-29,-36,4,-78,-68,-58,-39,-34
-63,-68,-4,65,-29,-36,4,-78,-68,-58,-39,-34
-63,-68,-4,65,-29,-36,4,-78,-68,-58,-39,-34
-63,-68,-4,65,-29,-36,-4,-78,-58,-48,-39,-34
-63,-63,0,63,-31,-31,-4,-78,-58,-48,-39,-34
-58,-63,-4,61,-26,-34,-4,-78,-58,-48,-39,-34
-58,-63,-4,61,-26,-34,-4,-78,-58,-48,-39,-34
-53,-58,-4,56,-24,-31,4,-78,-58,-48,-39,-34
-58,-58,0,58,-29,-29,0,-78,-58,-48,-39,-34
-58,-58,0,58,-29,-29,0,-78,-58,-48,-39,-34
-58,-58,0,58,-29,-29,0,-82,-58,-48,-39,-34
-63,-68,-4,65,-29,-36,0,-82,-68,-58,-39,-43
-68,-78,-9,73,-29,-43,0,-82,-68,-58,-39,-43
-82,-82,0,82,-41,-41,0,-87,-68,-58,-39,-43
-87,-92,-4,90,-41,-48,0,-87,-68,-58,-39,-43
-87,-102,-14,95,-36,-58,9,-102,-78,-68,-48,-48
-92,-102,-9,97,-41,-56,9,-102,-82,-73,-48,-48
-92,-102,-9,97,-41,-56,9,-102,-82,-73,-48,-48
-92,-102,-9,97,-41,-56,14,-97,-82,-73,-53,-43
-102,-102,0,102,-51,-51,14,-97,-82,-73,-53,-53
-102,-102,0,102,-51,-51,14,-97,-82,-73,-53,-53
-102,-102,0,102,-51,-51,14,-102,-82,-73,-53,-58
-97,-102,-4,100,-46,-53,14,-102,-82,-73,-53,-58
-87,-92,-4,90,-41,-48,4,-97,-82,-63,-53,-48
-82,-87,-4,85,-39,-46,4,-97,-82,-63,-53,-48
-82,-87,-4,85,-39,-46,4,-97,-82,-63,-53,-48
-82,-87,-4,85,-39,-46,4,-97,-82,-63,-48,-48
-73,-68,4,70,-39,-31,4,-87,-78,-48,-39,-39
-68,-68,0,68,-34,-34,0,-87,-68,-48,-39,-39
-68,-68,0,68,-34,-34,0,-87,-63,-48,-39,-34
-68,-68,0,68,-34,-34,-4,-87,-58,-48,-39,-34
-53,-58,-4,56,-24,-31,-4,-78,-58,-48,-34,-34
-53,-53,0,53,-26,-26,-4,-78,-58,-48,-34,-34
-53,-48,4,51,-29,-21,-4,-78,-58,-48,-34,-34
-53,-48,4,51,-29,-21,-4,-78,-58,-43,-34,-34
-43,-48,-4,46,-19,-26,-4,-78,-58,-43,-34,-29
-48,-48,0,48,-24,-24,0,-78,-58,-39,-29,-29
-48,-58,-9,53,-19,-34,-9,-87,-68,-48,-39,-29
-48,-58,-9,53,-19,-34,-9,-87,-68,-48,-39,-29
-48,-58,-9,53,-19,-34,-9,-87,-68,-48,-39,-29
-48,-58,-9,53,-19,-34,-9,-87,-68,-48,-39,-29
-48,-63,-14,56,-17,-39,-9,-87,-78,-53,-39,-39
-48,-68,-19,58,-14,-43,-9,-87,-78,-58,-39,-39
-48,-73,-24,61,-12,-48,-9,-87,-78,-63,-39,-39
-48,-78,-29,63,-9,-53,-9,-87,-78,-68,-39,-39
-58,-78,-19,68,-19,-48,-9,-87,-78,-68,-48,-39
-58,-78,-19,68,-19,-48,-9,-87,-78,-68,-48,-39
-58,-78,-19,68,-19,-48,-9,-87,-78,-68,-48,-39
-58,-78,-19,68,-19,-48,-9,-87,-78,-68,-48,-39
-68,-78,-9,73,-29,-43,0,-87,-68,-58,-39,-39
-68,-78,-9,73,-29,-43,0,-87,-68,-58,-39,-39
-68,-78,-9,73,-29,-43,0,-87,-68,-58,-39,-39
-68,-78,-9,73,-29,-43,0,-87,-68,-58,-39,-39
-53,-68,-14,61,-19,-41,0,-78,-63,-53,-34,-34
-48,-58,-9,53,-19,-34,0,-78,-58,-48,-29,-29
-43,-48,-4,46,-19,-26,0,-78,-53,-43,-24,-24
-39,-39,0,39,-19,-19,0,-78,-48,-39,-19,-19
-34,-19,14,26,-24,-2,-9,-78,-34,-34,-14,-14
-29,-9,19,19,-24,4,-9,-78,-29,-29,-9,-9
-24,0,24,12,-24,12,-9,-78,-24,-24,-4,-4
-19,9,29,4,-24,19,-9,-78,-19,-19,0,0
-29,9,39,9,-34,24,0,-68,-19,-9,9,9
-29,9,39,9,-34,24,0,-68,-19,-9,9,9
-29,9,39,9,-34,24,0,-68,-19,-9,9,9
-29,9,39,9,-34,24,0,-68,-19,-9,9,9
-34,-4,29,19,-31,12,9,-78,-24,-14,4,0
-39,-9,29,24,-34,9,9,-78,-29,-19,0,0
-43,-14,29,29,-36,7,9,-78,-34,-24,-4,0
-48,-19,29,34,-39,4,9,-78,-39,-29,-9,0
-58,-34,24,46,-41,-4,19,-78,-48,-39,-14,-4
-58,-39,19,48,-39,-9,19,-78,-48,-39,-19,-9
-58,-43,14,51,-36,-14,19,-78,-48,-39,-24,-14
-58,-48,9,53,-34,-19,19,-78,-48,-39,-29,-19
-48,-39,9,43,-29,-14,19,-78,-48,-39,-19,-19
-48,-39,9,43,-29,-14,19,-78,-48,-39,-19,-19
-48,-39,9,43,-29,-14,19,-78,-48,-39,-19,-19
-48,-39,9,43,-29,-14,19,-78,-48,-39,-19,-19
-43,-24,19,34,-31,-2,9,-78,-39,-34,-9,-14
-39,-19,19,29,-29,0,0,-78,-39,-29,-9,-9
-34,-14,19,24,-26,2,-9,-78,-39,-24,-9,-4
-29,-9,19,19,-24,4,-19,-78,-39,-19,-9,0
-19,4,24,7,-21,14,-34,-78,-29,-9,-4,4
-9,9,19,0,-14,14,-39,-78,-29,-9,0,9
0,14,14,-7,-7,14,-43,-78,-29,-9,4,14
9,19,9,-14,0,14,-48,-78,-29,-9,9,19
14,29,14,-21,0,21,-58,-87,-29,-9,9,19
19,29,9,-24,4,19,-58,-87,-29,-9,9,19
24,29,4,-26,9,17,-58,-87,-29,-9,9,19
29,29,0,-29,14,14,-58,-87,-29,-9,9,19
19,24,4,-21,7,14,-58,-87,-39,-19,0,9
19,14,-4,-17,12,4,-58,-87,-43,-19,0,9
19,4,-14,-12,17,-4,-53,-87,-48,-24,-9,0
14,-4,-19,-4,17,-12,-53,-87,-48,-29,-9,-4
0,-14,-14,7,7,-14,-39,-97,-63,-39,-24,-14
-4,-24,-19,14,7,-21,-34,-102,-68,-43,-29,-19
-4,-39,-34,21,14,-36,-34,-102,-68,-48,-29,-19
-4,-48,-43,26,19,-46,-34,-102,-73,-48,-34,-24
-9,-63,-53,36,21,-58,-19,-102,-73,-48,-34,-24
-14,-63,-48,39,17,-56,-19,-102,-78,-48,-34,-24
-19,-68,-48,43,14,-58,-19,-102,-78,-53,-34,-24
-24,-68,-43,46,9,-56,-19,-102,-78,-53,-39,-24
-14,-68,-53,41,19,-61,-14,-97,-78,-63,-39,-29
-14,-68,-53,41,19,-61,-14,-97,-78,-63,-39,-29
-14,-73,-58,43,21,-65,-14,-97,-82,-63,-39,-29
-9,-73,-63,41,26,-68,-14,-97,-82,-68,-39,-29
-9,-82,-73,46,31,-78,-14,-97,-82,-68,-39,-29
-9,-82,-73,46,31,-78,-14,-92,-82,-68,-39,-29
-9,-82,-73,46,31,-78,-14,-92,-82,-68,-39,-29
-4,-82,-78,43,36,-80,-14,-92,-82,-68,-39,-29
-4,-73,-68,39,31,-70,-24,-82,-82,-68,-39,-29
-9,-78,-68,43,29,-73,-24,-82,-82,-68,-39,-34
-14,-78,-63,46,24,-70,-24,-82,-82,-68,-39,-34
-14,-82,-68,48,26,-75,-19,-82,-82,-68,-43,-34
-29,-78,-48,53,9,-63,-19,-92,-87,-68,-43,-43
-34,-82,-48,58,7,-65,-19,-92,-87,-78,-43,-48
-43,-82,-39,63,-2,-61,-14,-92,-87,-78,-43,-53
-53,-87,-34,70,-9,-61,-14,-97,-92,-78,-48,-53
-53,-92,-39,73,-7,-65,-9,-87,-92,-78,-58,-43
-58,-97,-39,78,-9,-68,0,-87,-92,-78,-58,-43
-63,-97,-34,80,-14,-65,4,-92,-92,-78,-58,-48
-68,-102,-34,85,-17,-68,4,-92,-92,-78,-58,-48
-73,-112,-39,92,-17,-75,4,-92,-92,-73,-53,-58
-78,-112,-34,95,-21,-73,4,-92,-92,-73,-53,-58
-82,-112,-29,97,-26,-70,9,-92,-92,-73,-53,-63
-87,-117,-29,102,-29,-73,9,-92,-92,-73,-58,-63
-78,-107,-29,92,-24,-68,14,-92,-92,-82,-58,-53
-78,-112,-34,95,-21,-73,14,-92,-92,-82,-58,-53
-78,-112,-34,95,-21,-73,19,-92,-97,-82,-58,-53
-78,-117,-39,97,-19,-78,19,-92,-97,-82,-63,-58
-68,-117,-48,92,-9,-82,19,-92,-97,-82,-53,-58
-68,-117,-48,92,-9,-82,19,-92,-97,-82,-53,-58
-68,-117,-48,92,-9,-82,19,-92,-97,-82,-53,-58
-68,-117,-48,92,-9,-82,19,-92,-97,-87,-53,-63
-68,-107,-39,87,-14,-73,19,-82,-92,-78,-53,-53
-68,-112,-43,90,-12,-78,19,-82,-92,-78,-58,-53
-73,-112,-39,92,-17,-75,19,-82,-92,-78,-58,-53
-73,-112,-39,92,-17,-75,19,-82,-92,-78,-58,-53
-63,-102,-39,82,-12,-70,9,-82,-102,-78,-58,-53
-63,-97,-34,80,-14,-65,9,-82,-102,-78,-58,-53
-58,-97,-39,78,-9,-68,9,-82,-97,-78,-58,-53
-58,-97,-39,78,-9,-68,9,-82,-97,-78,-53,-53
-58,-97,-39,78,-9,-68,9,-82,-87,-78,-63,-58
-53,-92,-39,73,-7,-65,9,-78,-87,-78,-63,-58
-53,-92,-39,73,-7,-65,9,-78,-87,-78,-63,-58
-53,-92,-39,73,-7,-65,9,-78,-87,-78,-63,-58
-58,-92,-34,75,-12,-63,9,-87,-97,-87,-63,-58
-58,-97,-39,78,-9,-68,4,-87,-97,-87,-63,-58
-58,-102,-43,80,-7,-73,4,-87,-97,-87,-63,-58
-58,-107,-48,82,-4,-78,4,-87,-97,-87,-63,-58
-73,-117,-43,95,-14,-80,14,-87,-97,-87,-73,-68
-73,-122,-48,97,-12,-85,14,-87,-97,-87,-73,-68
-73,-122,-48,97,-12,-85,14,-87,-97,-87,-73,-68
-73,-122,-48,97,-12,-85,14,-87,-102,-87,-73,-68
-73,-122,-48,97,-12,-85,14,-87,-102,-92,-78,-63
-78,-122,-43,100,-17,-82,14,-87,-102,-92,-78,-63
-78,-122,-43,100,-17,-82,14,-87,-102,-92,-73,-63
-78,-122,-43,100,-17,-82,14,-87,-97,-92,-73,-58
-78,-131,-53,104,-12,-92,19,-87,-97,-87,-73,-58
-73,-126,-53,100,-9,-90,19,-87,-97,-87,-73,-58
-73,-126,-53,100,-9,-90,24,-87,-97,-87,-68,-58
-73,-126,-53,100,-9,-90,24,-87,-97,-82,-68,-58
-78,-122,-43,100,-17,-82,19,-87,-97,-82,-68,-58
-78,-122,-43,100,-17,-82,14,-87,-92,-82,-68,-58
-78,-122,-43,100,-17,-82,14,-87,-92,-82,-68,-58
-78,-122,-43,100,-17,-82,9,-87,-92,-82,-73,-58
-78,-122,-43,100,-17,-82,19,-97,-92,-82,-73,-58
-92,-126,-34,109,-29,-80,29,-92,-92,-82,-63,-58
-97,-131,-34,114,-31,-82,34,-92,-102,-82,-73,-68
-112,-141,-29,126,-41,-85,43,-87,-102,-92,-73,-78
-122,-146,-24,134,-48,-85,63,-87,-97,-92,-78,-73
-126,-146,-19,136,-53,-82,68,-73,-87,-82,-78,-78
-141,-136,4,139,-73,-65,87,-68,-73,-73,-78,-82
-151,-117,34,134,-92,-41,92,-63,-53,-58,-73,-82
-146,-92,53,119,-100,-19,82,-73,-24,-39,-53,-68
-146,-58,87,102,-117,14,73,-73,4,-9,-29,-48
-136,-9,126,73,-131,58,58,-82,48,24,-4,-24
-117,48,165,34,-141,107,43,-92,102,73,39,4
-92,112,204,-9,-148,158,19,-112,161,122,68,39
-78,170,248,-46,-163,209,-19,-131,209,165,112,68
-39,239,278,-100,-158,258,-68,-165,248,209,141,107
4,317,312,-161,-153,314,-136,-219,283,263,185,151
63,385,322,-224,-129,353,-224,-278,331,312,244,200
136,473,336,-305,-100,405,-317,-317,361,366,292,248
214,551,336,-383,-61,444,-405,-351,400,414,346,312
297,639,341,-468,-21,490,-517,-409,439,463,395,356
385,722,336,-553,24,529,-634,-473,478,522,453,424
468,800,331,-634,68,566,-741,-522,517,580,517,483
531,893,361,-712,85,627,-839,-561,566,644,580,556
585,976,390,-780,97,683,-912,-605,614,692,644,624
619,1054,434,-836,92,744,-966,-673,663,746,697,688
644,1078,434,-861,104,756,-1005,-736,663,766,736,727
639,1054,414,-846,112,734,-1005,-795,624,751,741,756
624,980,356,-802,134,668,-985,-858,541,702,722,746
590,888,297,-739,146,592,-951,-907,444,619,683,736
546,741,195,-644,175,468,-888,-917,302,507,624,688
497,566,68,-531,214,317,-785,-868,146,370,512,595
463,400,-63,-431,263,168,-673,-790,0,229,400,497
419,258,-161,-339,290,48,-570,-707,-122,102,292,419
366,131,-234,-248,300,-51,-478,-624,-229,0,214,336
312,48,-263,-180,287,-107,-380,-546,-287,-73,151,283
258,4,-253,-131,256,-124,-312,-483,-317,-102,122,253
195,-24,-219,-85,207,-122,-248,-424,-312,-107,112,229
146,-39,-185,-53,165,-112,-195,-356,-302,-102,92,204
117,-43,-161,-36,139,-102,-156,-297,-283,-112,78,165
97,-48,-146,-24,122,-97,-122,-234,-248,-102,53,141
68,-48,-117,-9,92,-82,-87,-180,-204,-102,39,112
48,-48,-97,0,73,-73,-58,-146,-175,-97,19,73
24,-53,-78,14,51,-65,-39,-112,-156,-97,4,53
14,-68,-82,26,48,-75,-19,-87,-141,-87,-14,34
0,-82,-82,41,41,-82,0,-63,-126,-87,-19,9
-9,-87,-78,48,34,-82,19,-39,-122,-73,-34,-4
-19,-78,-58,48,19,-68,24,-19,-92,-68,-29,-14
4,-53,-58,24,31,-56,19,-4,-73,-48,-29,-9
14,-34,-48,9,31,-41,19,4,-58,-43,-24,-19
9,-39,-48,14,29,-43,14,-4,-53,-48,-29,-29
4,-34,-39,14,21,-36,14,0,-53,-48,-34,-29
0,-39,-39,19,19,-39,19,4,-48,-48,-39,-34
-9,-43,-34,26,12,-39,19,9,-53,-48,-39,-34
-24,-53,-29,39,2,-41,29,14,-53,-58,-48,-43
-34,-63,-29,48,-2,-46,34,14,-58,-58,-48,-43
-39,-73,-34,56,-2,-53,34,14,-63,-58,-48,-43
-43,-82,-39,63,-2,-61,34,14,-68,-63,-53,-53
-58,-92,-34,75,-12,-63,34,0,-82,-68,-68,-63
-63,-92,-29,78,-17,-61,34,-4,-82,-73,-68,-68
-73,-97,-24,85,-24,-61,34,-9,-87,-73,-68,-73
-78,-102,-24,90,-26,-63,34,-9,-87,-68,-68,-73
-87,-112,-24,100,-31,-68,43,-9,-73,-63,-58,-63
-87,-107,-19,97,-34,-63,48,-4,-73,-58,-58,-58
-87,-107,-19,97,-34,-63,53,-4,-68,-58,-53,-58
-87,-107,-19,97,-34,-63,63,-4,-68,-58,-53,-58
-82,-102,-19,92,-31,-61,53,-4,-68,-68,-53,-58
-78,-92,-14,85,-31,-53,53,0,-68,-73,-58,-68
-73,-87,-14,80,-29,-51,53,4,-68,-73,-58,-68
-68,-82,-14,75,-26,-48,53,9,-68,-73,-58,-68
-58,-97,-39,78,-9,-68,53,9,-68,-63,-58,-63
-63,-102,-39,82,-12,-70,53,14,-68,-58,-58,-63
-63,-102,-39,82,-12,-70,58,14,-63,-58,-58,-63
-63,-102,-39,82,-12,-70,63,14,-63,-58,-58,-58
-73,-102,-29,87,-21,-65,63,4,-63,-68,-68,-68
-73,-102,-29,87,-21,-65,63,4,-63,-68,-68,-68
-73,-102,-29,87,-21,-65,58,4,-63,-68,-73,-73
-68,-97,-29,82,-19,-63,58,4,-63,-68,-73,-73
-73,-102,-29,87,-21,-65,58,19,-73,-78,-73,-73
-73,-107,-34,90,-19,-70,58,24,-73,-73,-68,-68
-78,-112,-34,95,-21,-73,58,24,-68,-73,-68,-68
-82,-112,-29,97,-26,-70,58,24,-68,-73,-68,-68
-78,-112,-34,95,-21,-73,58,14,-68,-73,-78,-68
-82,-117,-34,100,-24,-75,58,9,-68,-82,-78,-73
-87,-117,-29,102,-29,-73,58,9,-73,-82,-82,-78
-92,-126,-34,109,-29,-80,58,9,-73,-82,-82,-82
-87,-112,-24,100,-31,-68,58,19,-63,-73,-78,-73
-78,-102,-24,90,-26,-63,63,19,-58,-68,-73,-68
-68,-92,-24,80,-21,-58,68,24,-58,-48,-63,-58
-63,-78,-14,70,-24,-46,68,29,-53,-43,-53,-58
-53,-68,-14,61,-19,-41,58,29,-53,-48,-53,-58
-53,-68,-14,61,-19,-41,58,29,-53,-53,-53,-58
-53,-68,-14,61,-19,-41,58,29,-53,-58,-63,-68
-53,-73,-19,63,-17,-46,48,29,-53,-58,-63,-68
-63,-82,-19,73,-21,-51,58,34,-53,-53,-58,-68
-63,-78,-14,70,-24,-46,58,39,-43,-43,-58,-63
-58,-78,-19,68,-19,-48,63,43,-43,-39,-48,-53
-58,-73,-14,65,-21,-43,63,43,-39,-39,-48,-53
-68,-78,-9,73,-29,-43,63,43,-39,-53,-58,-53
-68,-82,-14,75,-26,-48,63,43,-39,-53,-58,-53
-68,-82,-14,75,-26,-48,53,43,-39,-53,-68,-63
-73,-87,-14,80,-29,-51,53,43,-43,-58,-68,-68
-73,-87,-14,80,-29,-51,53,43,-34,-58,-58,-68
-73,-92,-19,82,-26,-56,58,48,-34,-58,-58,-63
-73,-92,-19,82,-26,-56,58,53,-34,-53,-58,-63
-73,-92,-19,82,-26,-56,68,53,-34,-53,-53,-63
-68,-82,-14,75,-26,-48,68,58,-19,-43,-43,-48
-63,-78,-14,70,-24,-46,68,58,-19,-43,-43,-48
-53,-68,-14,61,-19,-41,68,58,-19,-43,-43,-48
-48,-63,-14,56,-17,-39,68,63,-19,-48,-53,-53
-39,-58,-19,48,-9,-39,58,73,-9,-39,-43,-48
-39,-58,-19,48,-9,-39,58,82,-9,-39,-39,-48
-39,-53,-14,46,-12,-34,63,87,-4,-29,-39,-48
-39,-48,-9,43,-14,-29,68,92,-4,-24,-34,-43
-39,-43,-4,41,-17,-24,58,92,4,-24,-43,-53
-39,-43,-4,41,-17,-24,58,92,4,-24,-39,-48
-39,-34,4,36,-21,-14,58,92,4,-24,-39,-48
-34,-34,0,34,-17,-17,58,102,4,-24,-39,-48
-24,-34,-9,29,-7,-21,58,102,4,-14,-34,-53
-24,-34,-9,29,-7,-21,58,112,4,-14,-34,-53
-24,-34,-9,29,-7,-21,58,117,9,-14,-34,-53
-29,-34,-4,31,-12,-19,63,122,14,-9,-34,-48
-39,-39,0,39,-19,-19,63,126,14,-14,-29,-48
-39,-29,9,34,-24,-9,63,131,24,-14,-29,-43
-34,-24,9,29,-21,-7,68,136,29,-14,-34,-43
-29,-24,4,26,-17,-9,68,141,29,-14,-34,-43
-39,-24,14,31,-26,-4,78,136,29,-14,-34,-53
-34,-29,4,31,-19,-12,78,141,29,-14,-34,-53
-34,-29,4,31,-19,-12,78,151,29,-14,-29,-48
-29,-29,0,29,-14,-14,78,156,29,-9,-29,-48
-34,-34,0,34,-17,-17,78,170,24,-19,-24,-53
-39,-39,0,39,-19,-19,82,170,34,-9,-29,-53
-39,-34,4,36,-21,-14,82,175,39,-9,-34,-53
-43,-29,14,36,-29,-7,82,180,43,-9,-39,-53
-53,-34,19,43,-36,-7,97,175,34,-19,-48,-68
-43,-34,9,39,-26,-12,102,190,39,-19,-48,-68
-43,-39,4,41,-24,-17,107,200,43,-9,-48,-63
-43,-34,9,39,-26,-12,107,209,48,0,-43,-63
-39,-29,9,34,-24,-9,107,234,53,0,-34,-43
-34,-29,4,31,-19,-12,107,239,63,9,-34,-43
-34,-24,9,29,-21,-7,107,248,68,9,-34,-48
-24,-19,4,21,-14,-7,112,258,73,9,-34,-48
-24,0,24,12,-24,12,112,258,78,19,-24,-48
-24,9,34,7,-29,21,112,268,78,24,-24,-48
-24,14,39,4,-31,26,122,278,82,29,-19,-48
-19,9,29,4,-24,19,122,292,87,34,-19,-48
-9,24,34,-7,-21,29,122,312,102,53,0,-34
-4,34,39,-14,-21,36,122,331,112,58,4,-19
9,43,34,-26,-12,39,122,346,126,58,4,-19
19,58,39,-39,-9,48,122,356,136,58,9,-19
34,78,43,-56,-4,61,112,370,141,78,19,-9
43,92,48,-68,-2,70,112,385,151,78,19,-9
48,102,53,-75,-2,78,112,400,156,87,24,-9
53,112,58,-82,-2,85,122,414,165,92,24,-9
58,112,53,-85,2,82,126,434,170,97,24,-4
63,122,58,-92,2,90,126,448,185,107,29,0
68,131,63,-100,2,97,122,458,195,112,34,4
73,141,68,-107,2,104,122,473,200,117,39,4
73,151,78,-112,-2,114,117,478,204,117,29,-4
82,161,78,-122,2,119,117,492,209,122,29,-4
97,161,63,-129,17,112,117,507,219,122,29,-4
97,156,58,-126,19,107,117,522,229,122,29,0
102,151,48,-126,26,100,117,527,229,131,39,0
107,161,53,-134,26,107,117,541,239,141,43,9
112,165,53,-139,29,109,117,546,248,141,48,14
122,175,53,-148,34,114,122,556,253,146,48,19
141,195,53,-168,43,124,122,570,258,156,58,19
151,214,63,-183,43,139,112,580,268,156,63,19
161,229,68,-195,46,148,107,595,273,165,63,24
165,239,73,-202,46,156,102,605,278,170,73,24
180,253,73,-217,53,163,97,624,287,190,82,34
185,258,73,-222,56,165,92,634,302,195,92,43
190,263,73,-226,58,168,92,639,312,200,102,48
190,268,78,-229,56,173,87,639,322,200,107,48
195,278,82,-236,56,180,73,639,317,200,97,48
200,283,82,-241,58,183,68,639,317,204,97,43
204,287,82,-246,61,185,63,639,322,209,97,43
209,292,82,-251,63,187,58,639,322,219,102,53
224,297,73,-261,75,185,53,629,322,214,107,58
224,297,73,-261,75,185,48,629,326,219,112,63
229,297,68,-263,80,183,43,619,326,224,117,68
229,292,63,-261,82,178,34,614,326,224,122,73
219,278,58,-248,80,168,29,595,322,219,117,68
214,273,58,-244,78,165,19,580,317,214,112,63
209,273,63,-241,73,168,9,561,312,204,107,58
209,268,58,-239,75,163,9,541,302,200,102,63
209,258,48,-234,80,153,9,517,297,200,102,63
204,258,53,-231,75,156,0,497,292,200,107,63
200,253,53,-226,73,153,0,473,287,200,107,73
195,253,58,-224,68,156,0,453,287,200,112,73
185,248,63,-217,61,156,4,424,273,190,102,63
170,248,78,-209,46,163,0,395,263,180,102,63
161,244,82,-202,39,163,-4,370,253,170,102,63
151,224,73,-187,39,148,-14,346,244,165,97,63
141,214,73,-178,34,143,-14,326,224,161,92,63
131,204,73,-168,29,139,-19,307,214,156,92,63
126,195,68,-161,29,131,-24,283,204,156,92,63
117,185,68,-151,24,126,-24,258,195,146,92,63
117,185,68,-151,24,126,-29,244,185,141,97,73
117,180,63,-148,26,122,-34,219,175,136,97,73
112,175,63,-143,24,119,-39,200,165,122,92,63
97,161,63,-129,17,112,-39,175,146,112,87,58
102,156,53,-129,24,104,-39,161,141,117,82,58
97,141,43,-119,26,92,-39,146,131,107,78,58
92,136,43,-114,24,90,-39,126,126,107,78,58
92,126,34,-109,29,80,-39,107,112,102,73,58
92,122,29,-107,31,75,-48,102,102,78,68,53
87,117,29,-102,29,73,-48,82,87,68,63,48
78,102,24,-90,26,63,-48,63,78,58,53,43
68,92,24,-80,21,58,-48,53,68,48,53,39
53,73,19,-63,17,46,-43,39,58,48,43,34
48,68,19,-58,14,43,-43,34,53,43,39,29
48,53,4,-51,21,29,-39,24,48,43,34,29
34,48,14,-41,9,31,-39,14,39,39,34,34
24,29,4,-26,9,17,-39,4,29,24,29,24
14,29,14,-21,0,21,-39,-4,19,19,29,14
9,24,14,-17,-2,19,-34,-14,9,9,24,14
9,19,9,-14,0,14,-34,-24,9,4,19,9
9,14,4,-12,2,9,-34,-24,-4,0,9,4
9,0,-9,-4,9,-4,-24,-34,-19,-4,4,4
4,-4,-9,0,7,-7,-24,-39,-19,-4,4,4
0,-4,-4,2,2,-4,-24,-39,-24,-4,4,0
4,-9,-14,2,9,-12,-24,-34,-19,-4,4,0
4,-14,-19,4,12,-17,-24,-39,-24,-14,-4,0
0,-14,-14,7,7,-14,-24,-43,-24,-19,-4,-4
-4,-14,-9,9,2,-12,-24,-48,-29,-24,-4,-4
-4,-14,-9,9,2,-12,-24,-43,-24,-14,-9,-4
0,-19,-19,9,9,-19,-19,-43,-29,-19,-9,-4
4,-19,-24,7,14,-21,-14,-43,-34,-19,-9,-4
9,-19,-29,4,19,-24,-14,-43,-34,-19,-9,-4
9,-19,-29,4,19,-24,-24,-34,-29,-19,0,4
4,-19,-24,7,14,-21,-24,-34,-29,-19,0,4
0,-19,-19,9,9,-19,-19,-43,-39,-29,0,-4
-9,-19,-9,14,0,-14,-19,-48,-43,-34,-9,-9
-14,-39,-24,26,4,-31,-29,-48,-48,-39,-14,-19
-29,-39,-9,34,-9,-24,-29,-48,-48,-39,-19,-19
-34,-39,-4,36,-14,-21,-24,-48,-48,-39,-24,-19
-39,-39,0,39,-19,-19,-24,-48,-48,-39,-24,-19
-48,-48,0,48,-24,-24,-24,-58,-48,-29,-14,-19
-43,-48,-4,46,-19,-26,-19,-58,-48,-29,-14,-19
-43,-48,-4,46,-19,-26,-19,-58,-48,-34,-14,-19
-43,-48,-4,46,-19,-26,-19,-63,-48,-34,-14,-19
-53,-53,0,53,-26,-26,-19,-63,-48,-43,-24,-19
-58,-58,0,58,-29,-29,-19,-63,-53,-43,-24,-19
-58,-63,-4,61,-26,-34,-19,-63,-53,-43,-24,-19
-63,-68,-4,65,-29,-36,-19,-63,-53,-43,-24,-19
-63,-78,-14,70,-24,-46,-9,-63,-63,-43,-34,-29
-63,-78,-14,70,-24,-46,-4,-63,-63,-43,-34,-29
-63,-78,-14,70,-24,-46,-4,-63,-63,-43,-34,-29
-58,-78,-19,68,-19,-48,0,-63,-63,-43,-34,-29
-58,-78,-19,68,-19,-48,9,-73,-63,-53,-34,-29
-58,-78,-19,68,-19,-48,4,-68,-63,-53,-34,-29
-58,-78,-19,68,-19,-48,4,-68,-63,-58,-34,-29
-58,-78,-19,68,-19,-48,4,-68,-63,-58,-34,-29
-48,-73,-24,61,-12,-48,9,-58,-53,-48,-24,-19
-48,-68,-19,58,-14,-43,9,-58,-53,-48,-24,-19
-48,-63,-14,56,-17,-39,9,-58,-53,-48,-24,-19
-43,-58,-14,51,-14,-36,4,-58,-53,-48,-24,-19
-34,-48,-14,41,-9,-31,4,-48,-53,-34,-24,-19
-43,-48,-4,46,-19,-26,4,-48,-53,-34,-24,-19
-43,-48,-4,46,-19,-26,4,-48,-53,-34,-24,-24
-39,-43,-4,41,-17,-24,4,-48,-53,-34,-24,-24
-39,-34,4,36,-21,-14,0,-58,-43,-34,-14,-14
-43,-39,4,41,-24,-17,0,-58,-43,-34,-14,-14
-43,-39,4,41,-24,-17,0,-53,-43,-39,-14,-14
-43,-43,0,43,-21,-21,0,-53,-43,-39,-14,-14
-43,-43,0,43,-21,-21,9,-63,-43,-39,-19,-24
-43,-43,0,43,-21,-21,9,-63,-43,-39,-19,-24
-43,-43,0,43,-21,-21,9,-63,-43,-39,-19,-24
-43,-43,0,43,-21,-21,9,-63,-43,-39,-19,-24
-53,-53,0,53,-26,-26,19,-63,-43,-39,-29,-24
-53,-53,0,53,-26,-26,19,-58,-43,-39,-29,-24
-48,-53,-4,51,-21,-29,19,-58,-43,-34,-29,-24
-48,-48,0,48,-24,-24,19,-58,-39,-34,-24,-24
-48,-48,0,48,-24,-24,9,-58,-48,-34,-24,-24
-43,-48,-4,46,-19,-26,9,-58,-48,-34,-24,-24
-39,-48,-9,43,-14,-29,9,-53,-48,-34,-24,-24
-39,-43,-4,41,-17,-24,9,-53,-48,-29,-24,-24
-39,-39,0,39,-19,-19,0,-53,-39,-29,-14,-24
-34,-34,0,34,-17,-17,0,-53,-34,-29,-14,-24
-34,-29,4,31,-19,-12,0,-48,-34,-29,-14,-24
-29,-24,4,26,-17,-9,4,-48,-34,-29,-14,-24
-19,-9,9,14,-14,0,-4,-39,-24,-19,-4,-14
-19,-4,14,12,-17,4,-4,-39,-24,-19,-4,-14
-19,-4,14,12,-17,4,-4,-39,-24,-19,-4,-14
-19,0,19,9,-19,9,-9,-39,-24,-19,-4,-14
-9,9,19,0,-14,14,-19,-48,-19,-9,4,-9
-14,9,24,2,-19,17,-19,-48,-14,-9,0,-9
-14,9,24,2,-19,17,-14,-48,-9,-9,0,-9
-14,9,24,2,-19,17,-14,-48,-4,-14,0,-9
-29,9,39,9,-34,24,-14,-48,4,-4,0,-9
-34,9,43,12,-39,26,-14,-48,0,-4,0,-9
-39,4,43,17,-41,24,-14,-48,0,-4,0,-9
-43,4,48,19,-46,26,-14,-48,0,-4,0,-9
-53,0,53,26,-53,26,-14,-58,-9,0,0,-9
-53,0,53,26,-53,26,-14,-58,-9,0,-4,-14
-53,0,53,26,-53,26,-14,-58,-9,0,-4,-14
-53,0,53,26,-53,26,-14,-58,-9,0,-4,-14
-43,-9,34,26,-39,12,-9,-58,-19,-9,-4,-14
-53,-9,43,31,-48,17,0,-58,-19,-9,-4,-14
-53,-9,43,31,-48,17,4,-58,-19,-9,-4,-14
-53,-9,43,31,-48,17,9,-58,-19,-9,-4,-14
-39,-14,24,26,-31,4,0,-58,-24,-14,-14,-24
-39,-14,24,26,-31,4,-4,-58,-29,-19,-14,-24
-39,-19,19,29,-29,0,-4,-58,-34,-24,-14,-24
-39,-24,14,31,-26,-4,-4,-58,-39,-29,-14,-24
-43,-34,9,39,-26,-12,4,-58,-48,-39,-24,-24
-43,-39,4,41,-24,-17,4,-63,-48,-39,-24,-24
-48,-43,4,46,-26,-19,4,-63,-48,-39,-24,-24
-48,-43,4,46,-26,-19,4,-63,-48,-39,-24,-24
-58,-43,14,51,-36,-14,4,-53,-48,-39,-24,-24
-58,-43,14,51,-36,-14,4,-53,-53,-39,-24,-24
-58,-43,14,51,-36,-14,4,-53,-53,-43,-29,-24
-53,-43,9,48,-31,-17,9,-53,-53,-43,-29,-24
-63,-53,9,58,-36,-21,9,-63,-43,-43,-29,-29
-63,-53,9,58,-36,-21,9,-63,-43,-43,-29,-29
-63,-53,9,58,-36,-21,9,-63,-43,-39,-29,-29
