I,II,III,aVR,aVL,aVF,V1,V2,V3,V4,V5,V6,
0,-48,-48,24,24,-48,9,0,-58,-97,-87,-9
0,-48,-48,24,24,-48,9,0,-53,-97,-82,-9
0,-48,-48,24,24,-48,9,0,-48,-97,-78,-9
0,-43,-43,21,21,-43,9,0,-48,-97,-78,-9
0,-39,-39,19,19,-39,9,0,-48,-97,-78,-9
4,-39,-43,17,24,-41,9,0,-48,-97,-78,-9
9,-39,-48,14,29,-43,9,0,-48,-97,-78,-9
9,-34,-43,12,26,-39,9,0,-48,-92,-73,0
9,-34,-43,12,26,-39,9,0,-48,-87,-73,0
9,-34,-43,12,26,-39,9,4,-48,-87,-73,4
9,-34,-43,12,26,-39,14,9,-48,-87,-73,4
9,-39,-48,14,29,-43,14,9,-48,-87,-82,9
9,-43,-53,17,31,-48,14,9,-48,-87,-87,19
14,-39,-53,12,34,-46,9,9,-43,-87,-73,19
14,-39,-53,12,34,-46,9,9,-43,-87,-63,19
14,-43,-58,14,36,-51,9,9,-48,-82,-63,19
14,-29,-43,7,29,-36,9,14,-43,-82,-63,24
19,-24,-43,2,31,-34,4,14,-34,-68,-53,29
29,-9,-39,-9,34,-24,0,4,-19,-53,-53,39
29,9,-19,-19,24,-4,-4,0,0,-43,-43,43
29,29,0,-29,14,14,-9,0,9,-34,-34,58
24,29,4,-26,9,17,-9,0,19,-24,-19,58
24,29,4,-26,9,17,-9,0,29,-24,-14,63
24,29,4,-26,9,17,-4,9,29,-19,-14,68
39,29,-9,-34,24,9,-4,14,24,-19,-9,73
48,34,-14,-41,31,9,-14,14,24,-14,0,82
53,34,-19,-43,36,7,-24,0,9,-19,-9,82
53,29,-24,-41,39,2,-34,-19,-9,-39,-19,87
48,9,-39,-29,43,-14,-39,-24,-34,-68,-43,78
48,-9,-58,-19,53,-34,-34,-29,-63,-92,-68,63
53,-9,-63,-21,58,-36,-34,-34,-68,-92,-68,63
53,9,-43,-31,48,-17,-34,-34,-63,-82,-53,73
53,19,-34,-36,43,-7,-34,-34,-63,-82,-53,73
53,9,-43,-31,48,-17,-29,-29,-58,-82,-48,78
63,0,-63,-31,63,-31,-24,-14,-63,-73,-39,78
63,0,-63,-31,63,-31,-24,-9,-53,-63,-29,87
58,4,-53,-31,56,-24,-19,-9,-48,-58,-29,87
48,19,-29,-34,39,-4,-14,-9,-29,-43,-14,92
34,24,-9,-29,21,7,-9,-9,-24,-39,-9,97
19,9,-9,-14,14,0,0,-4,-24,-53,-29,78
14,-24,-39,4,26,-31,9,0,-43,-73,-58,58
14,-53,-68,19,41,-61,24,14,-63,-97,-82,24
9,-68,-78,29,43,-73,29,19,-73,-112,-102,9
9,-68,-78,29,43,-73,24,19,-73,-112,-102,4
9,-68,-78,29,43,-73,19,19,-73,-112,-102,4
9,-68,-78,29,43,-73,24,19,-82,-117,-102,0
9,-78,-87,34,48,-82,24,19,-82,-117,-102,-4
9,-82,-92,36,51,-87,34,24,-87,-126,-102,-4
9,-78,-87,34,48,-82,39,29,-87,-136,-97,-4
9,-92,-102,41,56,-97,39,29,-92,-141,-126,-29
9,-58,-68,24,39,-63,19,19,-53,-92,-87,-4
9,131,122,-70,-56,126,-39,-43,78,78,102,146
53,434,380,-244,-163,407,-136,-107,322,419,478,429
131,780,649,-456,-258,714,-244,-156,624,878,951,766
200,1034,834,-617,-317,934,-322,-200,834,1190,1288,1010
268,1366,1098,-817,-414,1232,-444,-297,1034,1488,1678,1332
409,1708,1298,-1058,-444,1503,-595,-395,1171,1771,2098,1717
663,2098,1434,-1381,-385,1766,-849,-561,1176,2010,2586,2249
741,2239,1498,-1490,-378,1869,-995,-717,1034,2044,2898,2654
697,2108,1410,-1403,-356,1759,-1000,-790,824,1991,3035,2835
610,2039,1429,-1324,-409,1734,-980,-814,756,2010,3167,2976
502,1805,1302,-1154,-400,1554,-883,-756,595,1737,2874,2747
322,1312,990,-817,-334,1151,-673,-585,273,1005,1898,1956
117,546,429,-331,-156,488,-322,-273,-92,63,419,668
39,63,24,-51,7,43,-97,-68,-268,-336,-292,14
34,-170,-204,68,119,-187,29,63,-307,-409,-419,-131
29,-263,-292,117,161,-278,102,151,-283,-405,-453,-195
29,-239,-268,104,148,-253,102,175,-200,-307,-366,-170
14,-214,-229,100,122,-222,97,175,-136,-234,-312,-156
4,-190,-195,92,100,-192,87,117,-126,-219,-278,-141
-4,-170,-165,87,80,-168,87,92,-117,-219,-268,-136
-9,-170,-161,90,75,-165,82,92,-102,-209,-258,-136
-19,-156,-136,87,58,-146,82,78,-87,-200,-244,-136
-19,-156,-136,87,58,-146,82,78,-82,-190,-234,-136
-19,-156,-136,87,58,-146,82,78,-78,-190,-229,-136
-19,-146,-126,82,53,-136,82,78,-73,-180,-229,-146
-19,-136,-117,78,48,-126,82,68,-68,-165,-224,-156
-24,-131,-107,78,41,-119,82,68,-58,-165,-219,-161
-24,-126,-102,75,39,-114,78,68,-48,-161,-209,-161
-24,-126,-102,75,39,-114,78,63,-43,-161,-209,-151
-24,-126,-102,75,39,-114,78,58,-39,-156,-204,-151
-24,-126,-102,75,39,-114,78,53,-39,-156,-204,-146
-24,-126,-102,75,39,-114,78,53,-34,-151,-200,-141
-24,-117,-92,70,34,-104,73,53,-29,-146,-204,-136
-24,-107,-82,65,29,-95,73,53,-29,-141,-204,-131
-24,-107,-82,65,29,-95,73,53,-24,-141,-204,-126
-24,-102,-78,63,26,-90,68,53,-19,-136,-200,-126
-34,-102,-68,68,17,-85,68,53,-19,-131,-195,-122
-39,-102,-63,70,12,-82,68,58,-14,-126,-195,-122
-39,-102,-63,70,12,-82,68,58,-9,-122,-190,-122
-39,-97,-58,68,9,-78,63,53,-4,-117,-185,-122
-34,-97,-63,65,14,-80,63,53,-4,-122,-190,-126
-34,-92,-58,63,12,-75,63,53,0,-122,-190,-126
-34,-92,-58,63,12,-75,63,53,0,-112,-180,-126
-34,-87,-53,61,9,-70,63,53,0,-102,-180,-126
-34,-82,-48,58,7,-65,63,53,4,-102,-165,-131
-34,-78,-43,56,4,-61,63,53,14,-97,-161,-141
-34,-73,-39,53,2,-56,63,53,24,-87,-151,-151
-34,-73,-39,53,2,-56,63,53,29,-82,-146,-156
-39,-58,-19,48,-9,-39,63,53,43,-73,-141,-151
-43,-48,-4,46,-19,-26,63,53,48,-63,-136,-146
-43,-43,0,43,-21,-21,63,53,58,-63,-136,-151
-43,-39,4,41,-24,-17,63,48,63,-53,-126,-146
-39,-39,0,39,-19,-19,63,48,63,-53,-126,-146
-39,-39,0,39,-19,-19,63,48,73,-43,-126,-141
-34,-29,4,31,-19,-12,63,53,78,-39,-122,-136
-34,-24,9,29,-21,-7,63,53,87,-29,-117,-131
-34,-19,14,26,-24,-2,63,48,92,-29,-112,-126
-34,-14,19,24,-26,2,63,48,97,-19,-112,-126
-34,-14,19,24,-26,2,63,53,97,-14,-112,-126
-34,-9,24,21,-29,7,63,53,102,-14,-112,-126
-39,-4,34,21,-36,14,63,53,107,-14,-112,-131
-39,-4,34,21,-36,14,63,53,112,-19,-117,-136
-39,-4,34,21,-36,14,73,63,117,-24,-117,-151
-39,-4,34,21,-36,14,73,68,117,-29,-131,-156
-43,-9,34,26,-39,12,73,73,117,-34,-141,-170
-43,-14,29,29,-36,7,78,73,112,-39,-151,-185
-43,-29,14,36,-29,-7,73,73,102,-53,-170,-195
-48,-39,9,43,-29,-14,68,68,92,-73,-190,-209
-53,-48,4,51,-29,-21,78,73,82,-87,-209,-234
-63,-63,0,63,-31,-31,78,73,73,-117,-244,-253
-68,-78,-9,73,-29,-43,87,73,58,-131,-268,-273
-68,-102,-34,85,-17,-68,97,78,39,-161,-292,-287
-78,-112,-34,95,-21,-73,107,78,24,-185,-322,-307
-82,-126,-43,104,-19,-85,112,82,9,-209,-346,-326
-82,-141,-58,112,-12,-100,112,82,-9,-239,-370,-336
-87,-161,-73,124,-7,-117,117,82,-29,-263,-400,-346
-87,-180,-92,134,2,-136,122,87,-53,-287,-429,-366
-87,-195,-107,141,9,-151,122,92,-78,-317,-453,-380
-87,-209,-122,148,17,-165,122,92,-102,-341,-478,-390
-87,-229,-141,158,26,-185,122,92,-126,-366,-497,-400
-87,-253,-165,170,39,-209,122,92,-146,-385,-522,-405
-87,-268,-180,178,46,-224,126,92,-170,-400,-531,-414
-82,-283,-200,183,58,-241,131,92,-185,-409,-536,-414
-73,-292,-219,183,73,-256,131,87,-195,-414,-536,-409
-73,-292,-219,183,73,-256,131,87,-200,-419,-527,-400
-68,-292,-224,180,78,-258,126,87,-204,-405,-502,-380
-58,-287,-229,173,85,-258,112,87,-204,-380,-473,-361
-53,-273,-219,163,82,-246,107,82,-190,-366,-444,-346
-43,-253,-209,148,82,-231,97,73,-185,-336,-409,-312
-34,-234,-200,134,82,-217,92,63,-170,-307,-366,-273
-29,-219,-190,124,80,-204,82,58,-151,-273,-322,-239
-19,-195,-175,107,78,-185,73,48,-126,-239,-283,-209
-14,-170,-156,92,70,-163,68,48,-117,-204,-244,-185
-4,-156,-151,80,73,-153,58,43,-107,-175,-214,-165
0,-126,-126,63,63,-126,48,39,-92,-151,-175,-141
4,-102,-107,48,56,-104,39,34,-73,-131,-151,-122
4,-87,-92,41,48,-90,39,29,-68,-117,-131,-112
9,-78,-87,34,48,-82,39,29,-58,-102,-112,-112
9,-68,-78,29,43,-73,34,24,-53,-92,-87,-97
14,-63,-78,24,46,-70,29,19,-48,-78,-68,-78
14,-53,-68,19,41,-61,19,19,-43,-63,-58,-68
19,-43,-63,12,41,-53,14,14,-39,-48,-48,-58
19,-39,-58,9,39,-48,9,14,-29,-48,-39,-48
19,-39,-58,9,39,-48,9,14,-29,-39,-34,-39
19,-34,-53,7,36,-43,9,9,-29,-39,-24,-34
19,-29,-48,4,34,-39,4,9,-24,-34,-19,-29
19,-19,-39,0,29,-29,4,4,-19,-34,-19,-34
19,-14,-34,-2,26,-24,4,0,-19,-24,-14,-34
24,-14,-39,-4,31,-26,4,0,-19,-24,-14,-29
24,-9,-34,-7,29,-21,0,0,-14,-19,-9,-29
19,-9,-29,-4,24,-19,0,-4,-14,-24,-9,-34
19,-4,-24,-7,21,-14,0,-4,-9,-24,-9,-39
19,-4,-24,-7,21,-14,0,-4,-9,-24,-9,-39
19,-4,-24,-7,21,-14,0,-4,-9,-19,-4,-39
19,-4,-24,-7,21,-14,0,-4,-4,-14,-4,-39
19,-4,-24,-7,21,-14,0,0,-4,-9,-4,-39
19,0,-19,-9,19,-9,0,0,-4,-4,0,-34
19,0,-19,-9,19,-9,0,0,-4,-4,0,-34
14,0,-14,-7,14,-7,0,0,-4,-9,0,-29
9,0,-9,-4,9,-4,0,0,-4,-14,-4,-29
9,0,-9,-4,9,-4,0,4,-4,-14,-9,-29
9,0,-9,-4,9,-4,0,4,-4,-14,-9,-29
14,4,-9,-9,12,-2,0,0,-4,-14,-4,-24
14,4,-9,-9,12,-2,0,-4,-4,-14,0,-19
14,4,-9,-9,12,-2,0,-4,-4,-14,0,-19
14,4,-9,-9,12,-2,4,-4,-4,-19,0,-19
14,0,-14,-7,14,-7,4,0,-9,-19,-9,-19
14,-9,-24,-2,19,-17,4,4,-9,-24,-24,-19
14,-14,-29,0,21,-21,4,4,-14,-29,-29,-24
14,-19,-34,2,24,-26,4,4,-14,-29,-29,-29
14,-24,-39,4,26,-31,9,4,-19,-34,-34,-34
14,-24,-39,4,26,-31,9,4,-19,-39,-34,-39
9,-34,-43,12,26,-39,9,9,-24,-43,-39,-43
4,-34,-39,14,21,-36,9,9,-29,-43,-43,-43
4,-34,-39,14,21,-36,9,9,-29,-48,-43,-58
4,-39,-43,17,24,-41,14,9,-29,-53,-53,-58
0,-48,-48,24,24,-48,14,4,-34,-53,-63,-63
0,-48,-48,24,24,-48,14,4,-39,-53,-73,-68
0,-58,-58,29,29,-58,14,9,-39,-53,-68,-73
0,-63,-63,31,31,-63,19,9,-43,-63,-63,-73
4,-68,-73,31,39,-70,19,9,-43,-73,-68,-68
4,-68,-73,31,39,-70,19,14,-43,-78,-68,-63
0,-63,-63,31,31,-63,14,14,-48,-78,-78,-68
0,-58,-58,29,29,-58,9,14,-53,-82,-78,-68
0,-58,-58,29,29,-58,9,9,-53,-82,-78,-68
0,-63,-63,31,31,-63,9,9,-53,-82,-82,-73
0,-63,-63,31,31,-63,9,9,-53,-82,-82,-68
0,-63,-63,31,31,-63,9,9,-53,-82,-82,-63
0,-73,-73,36,36,-73,19,9,-58,-87,-87,-68
0,-78,-78,39,39,-78,24,9,-58,-87,-87,-68
0,-78,-78,39,39,-78,19,9,-58,-87,-82,-73
0,-78,-78,39,39,-78,19,9,-58,-87,-82,-73
0,-78,-78,39,39,-78,19,9,-58,-87,-87,-68
0,-82,-82,41,41,-82,19,9,-63,-87,-87,-68
0,-82,-82,41,41,-82,19,9,-63,-87,-87,-68
-4,-82,-78,43,36,-80,19,9,-63,-87,-87,-68
-4,-82,-78,43,36,-80,19,9,-63,-87,-87,-68
-4,-82,-78,43,36,-80,19,9,-63,-87,-82,-78
-4,-82,-78,43,36,-80,24,14,-63,-87,-78,-78
-4,-82,-78,43,36,-80,24,19,-63,-87,-78,-78
-4,-78,-73,41,34,-75,24,19,-63,-87,-78,-68
-4,-73,-68,39,31,-70,24,19,-63,-87,-78,-58
-4,-73,-68,39,31,-70,19,14,-63,-87,-78,-68
-9,-73,-63,41,26,-68,19,9,-63,-82,-73,-68
-9,-73,-63,41,26,-68,19,9,-63,-82,-73,-68
-9,-73,-63,41,26,-68,19,9,-58,-73,-73,-63
-4,-73,-68,39,31,-70,19,9,-58,-82,-73,-58
-4,-73,-68,39,31,-70,19,9,-58,-82,-73,-53
-4,-73,-68,39,31,-70,19,9,-58,-82,-73,-53
-4,-73,-68,39,31,-70,19,9,-58,-82,-73,-53
-4,-73,-68,39,31,-70,19,9,-58,-78,-73,-48
-4,-73,-68,39,31,-70,19,9,-58,-78,-68,-43
-4,-73,-68,39,31,-70,14,4,-58,-78,-68,-43
-9,-68,-58,39,24,-63,9,0,-58,-78,-68,-39
-9,-68,-58,39,24,-63,9,0,-58,-78,-63,-34
-9,-73,-63,41,26,-68,9,4,-58,-78,-63,-34
-9,-73,-63,41,26,-68,9,4,-58,-78,-63,-39
-9,-73,-63,41,26,-68,9,4,-58,-78,-63,-39
-9,-73,-63,41,26,-68,9,4,-58,-78,-58,-34
-9,-73,-63,41,26,-68,9,4,-58,-68,-58,-34
-9,-73,-63,41,26,-68,14,0,-58,-78,-63,-39
-9,-68,-58,39,24,-63,14,0,-58,-78,-63,-43
-9,-73,-63,41,26,-68,14,0,-58,-73,-63,-43
-9,-78,-68,43,29,-73,14,-4,-58,-73,-63,-39
-9,-78,-68,43,29,-73,14,-4,-58,-73,-58,-39
-9,-78,-68,43,29,-73,19,0,-58,-68,-53,-43
-4,-68,-63,36,29,-65,14,0,-58,-68,-53,-39
0,-58,-58,29,29,-58,9,0,-58,-68,-58,-39
-4,-58,-53,31,24,-56,9,0,-63,-68,-58,-39
-9,-58,-48,34,19,-53,9,0,-68,-68,-58,-39
-9,-68,-58,39,24,-63,9,0,-68,-68,-58,-39
-9,-78,-68,43,29,-73,9,0,-68,-68,-58,-39
-9,-78,-68,43,29,-73,9,0,-68,-68,-58,-39
-9,-78,-68,43,29,-73,9,0,-68,-68,-58,-39
-9,-73,-63,41,26,-68,9,0,-68,-68,-53,-34
-9,-73,-63,41,26,-68,9,0,-68,-68,-53,-29
-9,-73,-63,41,26,-68,9,0,-68,-68,-53,-29
-9,-73,-63,41,26,-68,9,0,-68,-68,-53,-34
-9,-73,-63,41,26,-68,19,0,-63,-68,-58,-39
-9,-73,-63,41,26,-68,24,0,-58,-68,-63,-43
-9,-78,-68,43,29,-73,24,0,-58,-68,-58,-39
-4,-78,-73,41,34,-75,19,0,-53,-68,-53,-39
-4,-78,-73,41,34,-75,14,0,-53,-68,-48,-34
-4,-78,-73,41,34,-75,9,0,-53,-63,-43,-29
-4,-58,-53,31,24,-56,9,4,-48,-63,-43,-24
0,-48,-48,24,24,-48,4,4,-43,-48,-29,-19
4,-29,-34,12,19,-31,0,-4,-29,-34,-24,-9
0,-9,-9,4,4,-9,-4,-9,-9,-24,-14,-4
0,9,9,-4,-4,9,-4,-9,4,-14,-4,9
-4,9,14,-2,-9,12,0,-9,14,-4,4,9
-4,9,14,-2,-9,12,0,-9,19,0,4,14
-4,9,14,-2,-9,12,0,-4,19,9,4,14
9,9,0,-9,4,4,-4,-4,14,9,9,9
19,9,-9,-14,14,0,-14,-4,9,9,19,14
24,4,-19,-14,21,-7,-24,-19,-9,0,14,14
24,0,-24,-12,24,-12,-29,-39,-29,-19,9,14
24,-19,-43,-2,34,-31,-29,-43,-53,-48,-14,4
24,-39,-63,7,43,-51,-24,-43,-78,-73,-39,-4
24,-39,-63,7,43,-51,-24,-43,-78,-73,-43,-4
24,-29,-53,2,39,-41,-24,-43,-73,-63,-34,4
24,-24,-48,0,36,-36,-24,-43,-73,-63,-34,4
24,-19,-43,-2,34,-31,-24,-43,-63,-58,-29,14
34,-19,-53,-7,43,-36,-24,-34,-63,-43,-14,19
34,-19,-53,-7,43,-36,-24,-29,-53,-34,0,29
29,-14,-43,-7,36,-29,-19,-24,-48,-29,0,29
19,-4,-24,-7,21,-14,-14,-19,-34,-19,9,29
4,-9,-14,2,9,-12,-9,-19,-34,-19,9,34
-9,-29,-19,19,4,-24,0,-14,-34,-34,-9,19
-14,-63,-48,39,17,-56,9,-9,-53,-48,-39,0
-14,-92,-78,53,31,-85,24,4,-68,-63,-53,-24
-19,-107,-87,63,34,-97,29,9,-73,-73,-63,-29
-19,-107,-87,63,34,-97,29,9,-73,-73,-63,-34
-19,-107,-87,63,34,-97,29,9,-73,-73,-58,-34
-19,-107,-87,63,34,-97,34,9,-82,-78,-58,-39
-19,-117,-97,68,39,-107,34,9,-87,-78,-63,-43
-19,-117,-97,68,39,-107,39,9,-92,-78,-63,-43
-19,-112,-92,65,36,-102,39,9,-87,-87,-73,-48
-19,-78,-58,48,19,-68,24,0,-58,-58,-58,-34
-24,4,29,9,-26,17,-9,-19,14,24,39,34
-9,239,248,-114,-129,244,-87,-92,190,253,292,229
53,590,536,-322,-241,563,-204,-165,478,673,736,556
131,936,805,-534,-336,871,-317,-224,756,1107,1200,893
200,1190,990,-695,-395,1090,-395,-278,946,1395,1522,1137
302,1512,1210,-907,-453,1361,-531,-385,1102,1683,1912,1478
478,1859,1381,-1168,-451,1620,-702,-483,1195,1966,2352,1888
673,2122,1449,-1398,-387,1786,-897,-610,1141,2142,2757,2322
702,2122,1420,-1412,-358,1771,-990,-746,936,2093,2986,2635
644,1952,1307,-1298,-331,1629,-961,-790,741,1981,3010,2693
531,1849,1317,-1190,-392,1583,-907,-780,683,1942,3025,2732
409,1512,1102,-961,-346,1307,-761,-668,478,1532,2542,2357
214,912,697,-563,-241,805,-497,-439,107,644,1322,1366
48,273,224,-161,-87,248,-195,-170,-195,-131,97,317
9,-87,-97,39,53,-92,-19,-9,-297,-351,-336,-78
4,-253,-258,124,131,-256,68,87,-307,-380,-414,-175
0,-273,-273,136,136,-273,102,141,-248,-326,-385,-185
0,-239,-239,119,119,-239,102,141,-175,-253,-307,-161
-14,-200,-185,107,85,-192,97,117,-126,-204,-263,-146
-24,-180,-156,102,65,-168,87,78,-117,-190,-239,-136
-39,-170,-131,104,46,-151,87,73,-107,-190,-239,-141
-43,-170,-126,107,41,-148,82,73,-97,-180,-234,-151
-48,-156,-107,102,29,-131,78,58,-87,-170,-224,-156
-48,-156,-107,102,29,-131,73,58,-82,-161,-214,-156
-48,-156,-107,102,29,-131,73,63,-78,-161,-209,-156
-48,-151,-102,100,26,-126,73,68,-73,-156,-209,-161
-48,-146,-97,97,24,-122,73,58,-68,-146,-204,-161
-53,-141,-87,97,17,-114,73,58,-63,-146,-204,-161
-53,-136,-82,95,14,-109,68,63,-58,-141,-200,-161
-53,-136,-82,95,14,-109,68,68,-53,-141,-200,-151
-53,-131,-78,92,12,-104,68,68,-48,-136,-195,-146
-53,-126,-73,90,9,-100,68,63,-48,-136,-195,-136
-53,-126,-73,90,9,-100,68,58,-43,-131,-190,-131
-53,-117,-63,85,4,-90,63,53,-39,-126,-190,-126
-53,-112,-58,82,2,-85,63,53,-39,-117,-185,-122
-53,-117,-63,85,4,-90,63,53,-34,-112,-185,-112
-53,-112,-58,82,2,-85,58,53,-29,-107,-180,-107
-58,-107,-48,82,-4,-78,58,53,-29,-102,-175,-102
-58,-102,-43,80,-7,-73,58,58,-24,-97,-175,-97
-58,-97,-39,78,-9,-68,58,58,-19,-92,-170,-92
-58,-87,-29,73,-14,-58,53,53,-14,-87,-161,-92
-58,-87,-29,73,-14,-58,53,53,-9,-87,-156,-92
-63,-82,-19,73,-21,-51,53,53,-4,-82,-151,-92
-63,-82,-19,73,-21,-51,53,53,-4,-73,-141,-97
-63,-78,-14,70,-24,-46,53,58,0,-63,-146,-102
-63,-73,-9,68,-26,-41,53,63,4,-63,-141,-107
-63,-68,-4,65,-29,-36,53,63,14,-63,-141,-112
-63,-63,0,63,-31,-31,53,63,24,-58,-131,-112
-63,-63,0,63,-31,-31,53,63,29,-53,-126,-117
-63,-53,9,58,-36,-21,53,63,39,-43,-122,-112
-63,-48,14,56,-39,-17,53,58,43,-34,-117,-102
-63,-43,19,53,-41,-12,53,58,58,-34,-117,-107
-63,-39,24,51,-43,-7,53,58,63,-24,-107,-97
-58,-39,19,48,-39,-9,53,58,63,-24,-107,-97
-58,-39,19,48,-39,-9,48,58,73,-14,-107,-92
-58,-29,29,43,-43,0,43,63,78,-9,-102,-87
-63,-24,39,43,-51,7,43,63,87,0,-97,-87
-63,-19,43,41,-53,12,43,58,92,0,-92,-87
-63,-14,48,39,-56,17,48,58,97,9,-92,-87
-63,-14,48,39,-56,17,53,63,97,14,-92,-87
-63,-9,53,36,-58,21,53,63,102,14,-92,-92
-68,-4,63,36,-65,29,53,63,107,19,-92,-102
-68,-4,63,36,-65,29,48,68,112,19,-97,-112
-68,-4,63,36,-65,29,53,78,117,14,-97,-131
-63,-4,58,34,-61,26,53,78,117,9,-112,-136
-63,-9,53,36,-58,21,53,82,117,0,-122,-151
-63,-14,48,39,-56,17,58,78,107,-9,-131,-170
-63,-29,34,46,-48,2,58,78,92,-24,-151,-185
-73,-39,34,56,-53,-2,58,78,82,-43,-170,-200
-78,-48,29,63,-53,-9,68,82,73,-58,-190,-219
-82,-63,19,73,-51,-21,73,87,63,-87,-224,-234
-87,-73,14,80,-51,-29,82,92,48,-102,-248,-248
-82,-97,-14,90,-34,-56,87,97,29,-131,-273,-253
-87,-112,-24,100,-31,-68,97,97,14,-156,-302,-263
-92,-126,-34,109,-29,-80,102,107,0,-180,-326,-278
-92,-141,-48,117,-21,-95,102,112,-19,-209,-351,-287
-97,-165,-68,131,-14,-117,107,112,-39,-234,-380,-292
-97,-190,-92,143,-2,-141,112,112,-63,-258,-405,-297
-97,-204,-107,151,4,-156,112,107,-92,-287,-424,-302
-97,-219,-122,158,12,-170,112,102,-117,-312,-448,-307
-97,-239,-141,168,21,-190,112,102,-136,-336,-468,-312
-97,-263,-165,180,34,-214,112,102,-156,-356,-488,-317
-97,-278,-180,187,41,-229,117,102,-180,-370,-492,-322
-92,-287,-195,190,51,-241,117,102,-195,-380,-497,-317
-82,-292,-209,187,63,-251,112,97,-204,-385,-497,-312
-82,-292,-209,187,63,-251,112,97,-209,-385,-488,-297
-78,-292,-214,185,68,-253,107,92,-214,-366,-463,-268
-68,-283,-214,175,73,-248,92,87,-214,-341,-434,-244
-63,-263,-200,163,68,-231,87,82,-200,-326,-405,-229
-53,-244,-190,148,68,-217,78,73,-195,-297,-370,-204
-43,-224,-180,134,68,-202,73,63,-180,-268,-326,-175
-39,-209,-170,124,65,-190,63,58,-165,-234,-287,-146
-29,-185,-156,107,63,-170,53,48,-141,-200,-248,-122
-24,-161,-136,92,56,-148,48,48,-126,-170,-204,-97
-19,-146,-126,82,53,-136,39,39,-117,-146,-175,-87
-19,-126,-107,73,43,-117,29,29,-107,-122,-141,-73
-14,-112,-97,63,41,-104,19,24,-92,-102,-126,-53
-14,-97,-82,56,34,-90,19,19,-87,-87,-112,-39
-9,-87,-78,48,34,-82,19,19,-78,-73,-92,-34
-9,-78,-68,43,29,-73,14,14,-73,-63,-73,-19
-4,-73,-68,39,31,-70,9,9,-68,-48,-58,-4
-4,-63,-58,34,26,-61,4,9,-63,-39,-48,0
0,-58,-58,29,29,-58,4,4,-58,-29,-39,9
0,-58,-58,29,29,-58,0,4,-48,-29,-29,19
0,-58,-58,29,29,-58,0,4,-48,-14,-24,29
0,-53,-53,26,26,-53,0,0,-48,-9,-14,34
0,-48,-48,24,24,-48,-4,0,-43,-4,-9,39
0,-43,-43,21,21,-43,-4,0,-39,-4,-9,39
0,-39,-39,19,19,-39,-4,0,-39,4,-4,39
4,-34,-39,14,21,-36,-4,0,-39,4,-4,39
4,-29,-34,12,19,-31,-9,0,-34,9,0,39
0,-29,-29,14,14,-29,-9,-4,-34,9,4,39
0,-24,-24,12,12,-24,-9,-4,-29,14,9,43
0,-24,-24,12,12,-24,-9,-4,-29,14,9,48
0,-24,-24,12,12,-24,-9,-4,-29,19,14,48
0,-24,-24,12,12,-24,-9,-4,-24,19,14,48
0,-24,-24,12,12,-24,-9,0,-24,14,14,43
0,-19,-19,9,9,-19,-9,0,-24,14,19,43
0,-24,-24,12,12,-24,-9,0,-19,14,19,43
0,-29,-29,14,14,-29,-9,0,-14,14,19,53
0,-34,-34,17,17,-34,-9,0,-14,14,14,58
0,-39,-39,19,19,-39,-9,4,-14,14,9,58
0,-39,-39,19,19,-39,-9,4,-14,14,9,58
0,-39,-39,19,19,-39,-9,4,-14,14,9,63
-4,-43,-39,24,17,-41,-9,4,-19,14,9,63
-4,-43,-39,24,17,-41,-9,4,-24,14,9,58
-4,-43,-39,24,17,-41,-4,4,-24,9,9,58
-4,-43,-39,24,17,-41,-4,4,-29,9,4,58
-4,-48,-43,26,19,-46,-4,9,-29,4,-4,58
-4,-53,-48,29,21,-51,-4,14,-34,0,-9,53
-4,-58,-53,31,24,-56,-4,14,-34,0,-9,48
-4,-63,-58,34,26,-61,0,14,-39,-4,-14,43
-4,-63,-58,34,26,-61,0,14,-39,-9,-14,39
-4,-73,-68,39,31,-70,0,19,-43,-14,-19,34
-4,-73,-68,39,31,-70,0,19,-48,-14,-24,34
-4,-73,-68,39,31,-70,0,19,-48,-19,-24,19
-4,-78,-73,41,34,-75,4,19,-43,-24,-34,19
-9,-87,-78,48,34,-82,4,14,-43,-24,-34,14
-9,-87,-78,48,34,-82,4,4,-48,-24,-34,9
-9,-92,-82,51,36,-87,4,0,-48,-24,-39,4
-9,-92,-82,51,36,-87,9,9,-53,-29,-43,4
-4,-97,-92,51,43,-95,9,19,-53,-34,-48,4
-4,-97,-92,51,43,-95,9,24,-53,-39,-43,4
-9,-97,-87,53,39,-92,9,24,-58,-39,-48,0
-9,-102,-92,56,41,-97,9,24,-63,-43,-48,0
-9,-107,-97,58,43,-102,9,19,-63,-43,-48,0
-4,-112,-107,58,51,-109,9,19,-63,-43,-53,-4
0,-112,-112,56,56,-112,9,19,-63,-43,-53,-4
0,-112,-112,56,56,-112,14,19,-63,-43,-53,-4
0,-117,-117,58,58,-117,24,19,-68,-48,-58,-9
-4,-117,-112,61,53,-114,24,14,-68,-48,-58,-14
-9,-117,-107,63,48,-112,19,9,-68,-48,-53,-24
-9,-117,-107,63,48,-112,19,9,-68,-48,-53,-24
-9,-117,-107,63,48,-112,19,9,-68,-48,-58,-24
-4,-122,-117,63,56,-119,19,9,-73,-43,-58,-29
0,-122,-122,61,61,-122,19,9,-73,-39,-58,-29
-4,-122,-117,63,56,-119,19,9,-73,-39,-58,-34
-4,-122,-117,63,56,-119,19,9,-73,-39,-58,-39
-4,-117,-112,61,53,-114,19,9,-68,-39,-53,-53
-4,-112,-107,58,51,-109,19,9,-63,-39,-48,-58
-4,-112,-107,58,51,-109,19,14,-63,-43,-48,-58
-4,-112,-107,58,51,-109,24,19,-63,-48,-48,-63
-4,-117,-112,61,53,-114,24,19,-68,-48,-48,-68
-4,-122,-117,63,56,-119,24,19,-73,-48,-48,-78
-9,-122,-112,65,51,-117,24,19,-73,-43,-43,-82
-9,-122,-112,65,51,-117,19,19,-73,-43,-43,-87
-9,-122,-112,65,51,-117,19,19,-68,-34,-34,-87
-4,-122,-117,63,56,-119,19,19,-68,-43,-24,-92
-4,-122,-117,63,56,-119,19,19,-68,-43,-34,-97
-4,-122,-117,63,56,-119,19,19,-68,-43,-43,-102
-4,-122,-117,63,56,-119,19,19,-63,-43,-43,-102
-4,-122,-117,63,56,-119,19,19,-58,-39,-43,-102
-4,-117,-112,61,53,-114,19,19,-58,-39,-39,-102
-4,-112,-107,58,51,-109,19,14,-58,-39,-39,-107
-9,-102,-92,56,41,-97,19,9,-58,-39,-43,-107
-9,-97,-87,53,39,-92,19,9,-58,-39,-43,-107
-9,-102,-92,56,41,-97,19,14,-58,-39,-43,-117
-9,-102,-92,56,41,-97,19,14,-58,-39,-43,-126
-4,-97,-92,51,43,-95,19,14,-58,-39,-39,-126
0,-92,-92,46,46,-92,19,14,-58,-39,-29,-122
0,-92,-92,46,46,-92,19,14,-63,-29,-29,-126
0,-92,-92,46,46,-92,19,9,-68,-39,-34,-131
0,-87,-87,43,43,-87,14,9,-68,-43,-39,-136
0,-87,-87,43,43,-87,14,9,-68,-48,-43,-141
0,-87,-87,43,43,-87,14,4,-68,-53,-43,-136
0,-87,-87,43,43,-87,14,9,-68,-53,-43,-136
0,-82,-82,41,41,-82,14,9,-68,-48,-43,-146
-4,-82,-78,43,36,-80,14,9,-68,-43,-48,-156
-4,-78,-73,41,34,-75,9,4,-68,-43,-48,-161
-9,-78,-68,43,29,-73,9,0,-68,-48,-48,-165
-9,-78,-68,43,29,-73,9,0,-68,-48,-48,-165
-9,-78,-68,43,29,-73,9,0,-68,-48,-48,-165
-9,-73,-63,41,26,-68,9,0,-68,-48,-48,-165
-9,-68,-58,39,24,-63,9,0,-68,-48,-48,-165
-9,-68,-58,39,24,-63,9,0,-68,-48,-48,-165
-9,-68,-58,39,24,-63,9,0,-68,-48,-48,-165
-9,-68,-58,39,24,-63,9,0,-68,-48,-48,-165
-9,-68,-58,39,24,-63,9,0,-68,-48,-48,-165
-9,-68,-58,39,24,-63,4,0,-68,-48,-43,-165
-9,-68,-58,39,24,-63,0,0,-68,-48,-43,-165
-9,-73,-63,41,26,-68,0,4,-68,-48,-43,-165
-9,-73,-63,41,26,-68,0,9,-68,-48,-43,-170
-9,-68,-58,39,24,-63,4,9,-68,-53,-48,-170
-9,-63,-53,36,21,-58,4,9,-68,-58,-53,-170
-9,-63,-53,36,21,-58,4,4,-73,-58,-48,-165
-4,-58,-53,31,24,-56,0,0,-73,-58,-43,-165
-4,-58,-53,31,24,-56,0,0,-73,-58,-43,-161
-4,-58,-53,31,24,-56,0,0,-73,-53,-43,-156
-4,-43,-39,24,17,-41,4,9,-63,-53,-43,-151
0,-39,-39,19,19,-39,4,14,-53,-39,-29,-146
9,-19,-29,4,19,-24,0,4,-39,-24,-24,-136
9,0,-9,-4,9,-4,-4,0,-19,-14,-14,-131
9,29,19,-19,-4,24,-14,-4,-4,-4,-4,-117
4,39,34,-21,-14,36,-19,-9,4,4,4,-117
4,39,34,-21,-14,36,-19,-9,9,4,4,-112
4,39,34,-21,-14,36,-19,-4,9,9,4,-112
19,39,19,-29,0,29,-24,0,4,9,9,-112
29,39,9,-34,9,24,-34,4,0,9,19,-102
34,34,0,-34,17,17,-43,-9,-24,0,9,-102
34,29,-4,-31,19,12,-48,-29,-48,-19,0,-102
29,9,-19,-19,24,-4,-48,-39,-73,-48,-24,-117
24,-9,-34,-7,29,-21,-43,-43,-97,-73,-48,-131
24,-9,-34,-7,29,-21,-43,-43,-97,-78,-53,-136
24,0,-24,-12,24,-12,-43,-43,-92,-73,-43,-131
24,0,-24,-12,24,-12,-43,-43,-92,-73,-43,-131
24,0,-24,-12,24,-12,-43,-43,-82,-68,-39,-122
39,0,-39,-19,39,-19,-43,-34,-82,-53,-29,-107
43,0,-43,-21,43,-21,-43,-29,-73,-43,-19,-87
39,4,-34,-21,36,-14,-39,-29,-68,-39,-19,-87
29,14,-14,-21,21,0,-34,-29,-53,-29,-9,-87
14,19,4,-17,4,12,-29,-29,-53,-24,-4,-82
0,9,9,-4,-4,9,-19,-24,-53,-34,-19,-97
-4,-24,-19,14,7,-21,-9,-19,-73,-53,-48,-112
-4,-53,-48,29,21,-51,4,-4,-87,-73,-63,-131
-14,-68,-53,41,19,-61,9,0,-92,-87,-73,-136
-19,-68,-48,43,14,-58,9,0,-92,-92,-73,-141
-19,-68,-48,43,14,-58,9,0,-92,-92,-78,-141
-19,-68,-48,43,14,-58,14,0,-102,-97,-87,-146
-24,-82,-58,53,17,-70,14,0,-102,-97,-92,-151
-29,-87,-58,58,14,-73,19,0,-102,-97,-92,-151
-29,-97,-68,63,19,-82,24,4,-107,-117,-102,-156
-29,-78,-48,53,9,-63,14,0,-87,-97,-87,-141
-34,-29,4,31,-19,-12,-4,-19,-53,-53,-43,-112
-19,170,190,-75,-104,180,-68,-92,82,136,156,43
39,531,492,-285,-226,512,-185,-165,385,561,595,370
112,888,775,-500,-331,832,-297,-224,678,1000,1054,707
161,1141,980,-651,-409,1061,-370,-273,883,1293,1376,932
244,1464,1220,-854,-488,1342,-502,-375,1054,1586,1766,1254
444,1830,1385,-1137,-470,1607,-683,-468,1190,1898,2210,1659
663,2113,1449,-1388,-392,1781,-888,-590,1180,2103,2620,2088
717,2137,1420,-1427,-351,1778,-1000,-741,961,2064,2884,2444
683,1991,1307,-1337,-312,1649,-990,-800,751,1961,2942,2547
580,1981,1400,-1281,-409,1690,-966,-829,756,2069,3147,2737
468,1737,1268,-1102,-400,1503,-849,-756,614,1805,2854,2513
253,1112,858,-683,-302,985,-585,-517,209,839,1581,1493
68,448,380,-258,-156,414,-283,-239,-126,-14,302,414
14,24,9,-19,2,17,-73,-53,-268,-302,-234,-68
-4,-204,-200,104,97,-202,48,68,-317,-400,-414,-253
-9,-239,-229,124,109,-234,87,131,-263,-346,-400,-268
-9,-219,-209,114,100,-214,92,141,-195,-273,-336,-248
-24,-185,-161,104,68,-173,87,117,-141,-214,-278,-234
-34,-170,-136,102,51,-153,78,78,-126,-190,-239,-224
-43,-161,-117,102,36,-139,78,73,-117,-190,-239,-219
-43,-161,-117,102,36,-139,73,73,-107,-180,-234,-219
-48,-146,-97,97,24,-122,73,58,-97,-170,-229,-224
-48,-146,-97,97,24,-122,73,58,-92,-161,-224,-224
-48,-146,-97,97,24,-122,73,58,-87,-161,-219,-219
-48,-141,-92,95,21,-117,73,58,-82,-156,-219,-219
-48,-136,-87,92,19,-112,73,48,-78,-146,-209,-224
-53,-131,-78,92,12,-104,73,48,-73,-146,-204,-229
-53,-126,-73,90,9,-100,68,48,-68,-141,-200,-229
-53,-126,-73,90,9,-100,68,48,-63,-141,-200,-219
-53,-126,-73,90,9,-100,68,48,-53,-136,-195,-214
-53,-126,-73,90,9,-100,68,43,-48,-136,-195,-204
-53,-126,-73,90,9,-100,68,43,-43,-131,-190,-200
-53,-117,-63,85,4,-90,63,43,-39,-126,-190,-195
-53,-107,-53,80,0,-80,63,43,-39,-117,-185,-190
-53,-107,-53,80,0,-80,63,43,-34,-112,-185,-180
-48,-102,-53,75,2,-78,58,43,-29,-107,-180,-170
-48,-97,-48,73,0,-73,58,43,-29,-102,-175,-161
-48,-97,-48,73,0,-73,58,48,-24,-97,-175,-156
-48,-97,-48,73,0,-73,58,48,-19,-92,-170,-151
-53,-87,-34,70,-9,-61,53,43,-14,-87,-161,-146
-58,-87,-29,73,-14,-58,53,43,-9,-87,-156,-141
-63,-78,-14,70,-24,-46,53,43,0,-82,-151,-136
-63,-73,-9,68,-26,-41,53,43,4,-73,-141,-136
-63,-68,-4,65,-29,-36,53,43,9,-63,-141,-126
-63,-63,0,63,-31,-31,53,43,14,-63,-131,-117
-63,-63,0,63,-31,-31,58,43,24,-58,-131,-122
-63,-63,0,63,-31,-31,63,43,34,-48,-122,-122
-63,-63,0,63,-31,-31,63,43,39,-43,-117,-117
-63,-53,9,58,-36,-21,63,43,48,-34,-112,-102
-63,-48,14,56,-39,-17,63,43,48,-24,-107,-87
-63,-43,19,53,-41,-12,63,48,58,-24,-107,-87
-63,-39,24,51,-43,-7,63,48,63,-9,-97,-73
-58,-39,19,48,-39,-9,63,48,63,-4,-97,-68
-58,-39,19,48,-39,-9,63,48,73,4,-97,-53
-58,-29,29,43,-43,0,63,53,78,9,-92,-39
-63,-29,34,46,-48,2,63,53,87,19,-87,-34
-63,-29,34,46,-48,2,63,48,92,19,-82,-29
-63,-24,39,43,-51,7,63,48,102,34,-78,-29
-63,-24,39,43,-51,7,63,53,107,43,-73,-29
-63,-19,43,41,-53,12,63,58,112,43,-73,-24
-68,-14,53,41,-61,19,63,63,117,48,-73,-24
-68,-14,53,41,-61,19,63,63,122,53,-73,-29
-68,-14,53,41,-61,19,73,68,126,53,-68,-43
-68,-14,53,41,-61,19,73,68,131,48,-82,-48
-73,-19,53,46,-63,17,73,73,136,39,-92,-63
-73,-24,48,48,-61,12,78,73,131,29,-102,-78
-73,-39,34,56,-53,-2,78,78,122,14,-122,-87
-78,-48,29,63,-53,-9,78,78,112,0,-131,-102
-78,-58,19,68,-48,-19,87,82,102,-9,-141,-122
-82,-73,9,78,-46,-31,87,82,92,-39,-175,-131
-87,-82,4,85,-46,-39,92,82,78,-53,-200,-141
-87,-102,-14,95,-36,-58,97,87,58,-82,-224,-151
-97,-112,-14,104,-41,-63,107,87,43,-107,-253,-165
-102,-126,-24,114,-39,-75,112,92,29,-126,-278,-175
-102,-141,-39,122,-31,-90,112,92,9,-151,-302,-180
-107,-161,-53,134,-26,-107,117,87,-9,-175,-331,-185
-107,-180,-73,143,-17,-126,122,82,-34,-200,-356,-190
-107,-195,-87,151,-9,-141,122,82,-58,-229,-380,-195
-107,-209,-102,158,-2,-156,122,82,-78,-253,-409,-200
-107,-229,-122,168,7,-175,122,82,-102,-283,-429,-204
-107,-253,-146,180,19,-200,122,82,-126,-307,-448,-209
-107,-273,-165,190,29,-219,126,82,-151,-322,-458,-219
-102,-287,-185,195,41,-236,126,82,-165,-331,-468,-219
-92,-292,-200,192,53,-246,122,78,-180,-341,-473,-224
-92,-292,-200,192,53,-246,122,78,-190,-346,-468,-219
-92,-297,-204,195,56,-251,117,78,-195,-326,-444,-195
-87,-292,-204,190,58,-248,102,78,-195,-302,-414,-175
-82,-273,-190,178,53,-231,97,73,-180,-292,-390,-161
-73,-253,-180,163,53,-217,87,63,-175,-268,-361,-136
-63,-234,-170,148,53,-202,82,53,-161,-239,-317,-112
-58,-219,-161,139,51,-190,73,48,-146,-204,-278,-87
-48,-195,-146,122,48,-170,63,39,-126,-170,-244,-63
-43,-170,-126,107,41,-148,58,39,-117,-141,-204,-39
-29,-156,-126,92,48,-141,48,34,-107,-117,-175,-19
-19,-136,-117,78,48,-126,39,29,-97,-92,-141,4
-14,-122,-107,68,46,-114,29,24,-82,-73,-122,24
-14,-107,-92,61,39,-100,29,19,-78,-58,-102,39
-9,-97,-87,53,39,-92,29,19,-68,-43,-82,39
-9,-87,-78,48,34,-82,24,14,-63,-34,-63,48
-4,-82,-78,43,36,-80,19,9,-58,-19,-43,68
-4,-73,-68,39,31,-70,14,9,-53,-9,-29,78
0,-63,-63,31,31,-63,14,4,-48,0,-19,82
0,-58,-58,29,29,-58,9,4,-39,0,-9,87
0,-63,-63,31,31,-63,9,4,-39,14,-4,92
0,-63,-63,31,31,-63,9,0,-39,19,4,92
0,-58,-58,29,29,-58,4,0,-34,24,9,97
0,-53,-53,26,26,-53,4,0,-29,24,9,97
0,-48,-48,24,24,-48,4,0,-24,34,14,102
4,-43,-48,19,26,-46,4,0,-19,34,14,107
4,-39,-43,17,24,-41,0,4,-14,39,19,102
0,-39,-39,19,19,-39,0,4,-14,39,24,97
0,-34,-34,17,17,-34,0,4,-9,43,24,97
0,-34,-34,17,17,-34,0,4,-9,43,19,97
0,-34,-34,17,17,-34,0,0,-9,48,24,97
0,-34,-34,17,17,-34,0,-4,-4,48,24,97
0,-34,-34,17,17,-34,0,0,-4,48,29,97
0,-29,-29,14,14,-29,0,0,-4,53,39,102
0,-24,-24,12,12,-24,-4,0,-4,53,39,102
0,-19,-19,9,9,-19,-9,0,-4,53,39,112
0,-19,-19,9,9,-19,-9,0,-9,53,34,117
0,-19,-19,9,9,-19,-9,4,-14,53,29,117
0,-19,-19,9,9,-19,-9,4,-19,48,24,112
0,-19,-19,9,9,-19,-9,4,-24,43,19,112
-4,-29,-24,17,9,-26,-4,4,-24,43,19,117
-4,-34,-29,19,12,-31,0,4,-24,43,19,117
-4,-34,-29,19,12,-31,4,4,-19,39,24,112
-4,-34,-29,19,12,-31,4,4,-19,39,24,107
-4,-34,-29,19,12,-31,0,4,-19,34,14,107
-4,-34,-29,19,12,-31,-4,4,-24,29,9,102
-4,-39,-34,21,14,-36,-4,4,-24,29,9,92
-4,-43,-39,24,17,-41,0,4,-29,24,4,82
-4,-43,-39,24,17,-41,0,0,-29,19,4,78
-4,-53,-48,29,21,-51,0,0,-34,14,0,73
-4,-53,-48,29,21,-51,0,0,-39,14,0,73
-4,-53,-48,29,21,-51,0,0,-39,9,4,58
-4,-58,-53,31,24,-56,4,4,-39,4,-4,53
-9,-68,-58,39,24,-63,4,4,-43,4,-4,43
-9,-68,-58,39,24,-63,4,4,-48,4,-4,34
-9,-73,-63,41,26,-68,4,9,-48,4,-9,24
-9,-73,-63,41,26,-68,9,4,-53,-4,-14,19
-4,-78,-73,41,34,-75,9,0,-53,-14,-19,14
-4,-78,-73,41,34,-75,9,4,-53,-19,-19,9
-9,-78,-68,43,29,-73,9,4,-58,-19,-29,0
-9,-82,-73,46,31,-78,14,9,-63,-19,-29,0
-9,-87,-78,48,34,-82,19,9,-63,-14,-29,0
-9,-92,-82,51,36,-87,19,9,-63,-14,-34,-4
-9,-92,-82,51,36,-87,19,9,-63,-14,-34,-4
-9,-92,-82,51,36,-87,19,9,-58,-14,-34,-14
-9,-97,-87,53,39,-92,24,9,-58,-19,-39,-29
-9,-92,-82,51,36,-87,24,4,-58,-19,-39,-34
-9,-87,-78,48,34,-82,19,0,-58,-19,-34,-43
-9,-87,-78,48,34,-82,19,0,-58,-19,-34,-48
-9,-87,-78,48,34,-82,19,0,-58,-19,-39,-53
-9,-92,-82,51,36,-87,14,0,-63,-19,-39,-68
-9,-92,-82,51,36,-87,9,0,-63,-19,-39,-78
-14,-92,-78,53,31,-85,9,0,-63,-24,-43,-87
-14,-92,-78,53,31,-85,9,0,-63,-29,-48,-97
-14,-97,-82,56,34,-90,14,4,-63,-29,-43,-107
-14,-102,-87,58,36,-95,19,9,-63,-29,-39,-107
-14,-102,-87,58,36,-95,14,9,-63,-29,-39,-107
-14,-102,-87,58,36,-95,14,9,-63,-29,-39,-112
-14,-97,-82,56,34,-90,9,4,-68,-29,-39,-117
-14,-92,-78,53,31,-85,4,0,-73,-29,-39,-126
-24,-92,-68,58,21,-80,9,0,-73,-24,-34,-136
-29,-92,-63,61,17,-78,9,0,-73,-24,-34,-146
-29,-92,-63,61,17,-78,9,0,-63,-9,-34,-141
-24,-92,-68,58,21,-80,9,0,-58,-14,-34,-141
-24,-92,-68,58,21,-80,9,0,-58,-14,-34,-151
-24,-92,-68,58,21,-80,9,0,-58,-14,-34,-161
-24,-92,-68,58,21,-80,9,0,-58,-19,-34,-165
-24,-92,-68,58,21,-80,9,0,-58,-19,-34,-170
-24,-97,-73,61,24,-85,9,0,-58,-19,-29,-170
-24,-102,-78,63,26,-90,9,-4,-58,-19,-29,-175
-29,-97,-68,63,19,-82,9,-9,-58,-19,-29,-180
-29,-97,-68,63,19,-82,9,-9,-58,-19,-24,-185
-29,-97,-68,63,19,-82,9,-9,-58,-19,-24,-190
-29,-92,-63,61,17,-78,9,-14,-58,-19,-24,-195
-29,-92,-63,61,17,-78,9,-14,-58,-19,-24,-195
-29,-92,-63,61,17,-78,9,-14,-58,-19,-19,-190
-29,-92,-63,61,17,-78,9,-9,-58,-4,-14,-190
-29,-92,-63,61,17,-78,9,-9,-58,-9,-14,-190
-29,-87,-58,58,14,-73,4,-9,-58,-9,-14,-190
-29,-87,-58,58,14,-73,4,-9,-58,-9,-14,-190
-29,-97,-68,63,19,-82,4,-14,-58,-19,-19,-185
-29,-107,-78,68,24,-92,4,-9,-58,-24,-24,-185
-29,-102,-73,65,21,-87,4,-9,-58,-24,-24,-190
-34,-102,-68,68,17,-85,4,-9,-58,-24,-29,-195
-29,-97,-68,63,19,-82,4,-9,-58,-24,-29,-200
-29,-97,-68,63,19,-82,9,-9,-58,-29,-29,-204
-29,-97,-68,63,19,-82,9,-14,-58,-24,-19,-204
-29,-97,-68,63,19,-82,9,-19,-58,-19,-9,-204
-29,-92,-63,61,17,-78,4,-19,-58,-19,-9,-204
-29,-87,-58,58,14,-73,0,-19,-58,-19,-9,-204
-29,-87,-58,58,14,-73,0,-19,-58,-19,-14,-204
-29,-87,-58,58,14,-73,0,-19,-58,-19,-19,-204
-29,-87,-58,58,14,-73,0,-19,-58,-19,-19,-204
-29,-87,-58,58,14,-73,0,-19,-58,-19,-19,-204
-29,-82,-53,56,12,-68,0,-19,-58,-34,-24,-214
-29,-82,-53,56,12,-68,0,-19,-58,-34,-29,-214
-29,-82,-53,56,12,-68,-4,-19,-58,-39,-34,-219
-29,-82,-53,56,12,-68,-4,-19,-58,-29,-34,-209
-29,-82,-53,56,12,-68,-4,-19,-58,-29,-34,-209
-29,-82,-53,56,12,-68,-4,-19,-58,-29,-29,-204
-24,-78,-53,51,14,-65,-9,-19,-53,-24,-19,-204
-24,-78,-53,51,14,-65,-9,-19,-53,-19,-14,-204
-24,-78,-53,51,14,-65,-9,-19,-53,-14,-14,-204
-24,-58,-34,41,4,-46,-9,-14,-43,-14,-14,-200
-19,-48,-29,34,4,-39,-14,-14,-34,-4,0,-195
-9,-29,-19,19,4,-24,-19,-24,-19,4,4,-185
-9,-4,4,7,-7,0,-24,-29,0,14,14,-180
-9,19,29,-4,-19,24,-29,-29,9,24,24,-165
-14,19,34,-2,-24,26,-29,-24,14,34,24,-161
-14,19,34,-2,-24,26,-29,-19,19,34,14,-151
-14,4,19,4,-17,12,-19,-14,19,39,14,-151
0,-9,-9,4,4,-9,-14,-14,14,39,19,-151
9,4,-4,-7,7,0,-34,-19,14,43,39,-131
14,14,0,-14,7,7,-53,-39,0,39,39,-122
14,9,-4,-12,9,2,-58,-58,-19,19,29,-112
9,-9,-19,0,14,-14,-58,-63,-43,-9,4,-117
4,-43,-48,19,26,-46,-53,-63,-73,-39,-19,-131
4,-58,-63,26,34,-61,-53,-63,-78,-43,-19,-131
4,-34,-39,14,21,-36,-58,-63,-73,-34,-4,-117
4,-19,-24,7,14,-21,-63,-63,-73,-34,-4,-112
4,-19,-24,7,14,-21,-63,-63,-68,-39,-9,-102
14,-19,-34,2,24,-26,-63,-53,-73,-34,-9,-97
14,-29,-43,7,29,-36,-58,-48,-63,-24,-9,-87
9,-34,-43,12,26,-39,-48,-48,-58,-19,-19,-87
0,-14,-14,7,7,-14,-43,-53,-43,-4,4,-73
-14,-4,9,9,-12,2,-39,-58,-43,0,19,-58
-29,-9,19,19,-24,4,-34,-53,-43,-14,0,-73
-34,-34,0,34,-17,-17,-29,-48,-63,-34,-29,-87
-34,-78,-43,56,4,-61,-14,-29,-78,-58,-48,-112
-39,-107,-68,73,14,-87,-9,-19,-82,-73,-63,-117
-39,-107,-68,73,14,-87,-9,-19,-82,-73,-63,-122
-39,-107,-68,73,14,-87,-9,-19,-82,-73,-63,-122
-39,-107,-68,73,14,-87,-4,-19,-92,-78,-68,-122
-39,-117,-78,78,19,-97,-4,-19,-92,-78,-73,-122
-43,-117,-73,80,14,-95,0,-19,-92,-82,-73,-122
-48,-107,-58,78,4,-82,0,-19,-87,-87,-68,-122
-48,-122,-73,85,12,-97,4,-14,-102,-107,-107,-151
-48,-87,-39,68,-4,-63,-9,-19,-73,-73,-78,-131
-39,97,136,-29,-87,117,-73,-82,68,107,112,19
14,395,380,-204,-183,387,-175,-146,322,458,488,302
92,751,658,-422,-283,705,-287,-200,619,912,966,639
161,1015,854,-588,-346,934,-370,-248,824,1220,1307,883
244,1337,1093,-790,-424,1215,-492,-346,1024,1512,1668,1185
400,1668,1268,-1034,-434,1468,-644,-444,1161,1790,2059,1551
673,2049,1376,-1361,-351,1712,-902,-605,1156,2034,2537,2064
771,2181,1410,-1476,-319,1795,-1054,-756,1005,2074,2840,2449
712,2049,1337,-1381,-312,1693,-1049,-839,810,2025,2971,2615
610,1981,1371,-1295,-380,1676,-1019,-873,756,2049,3098,2742
488,1771,1283,-1129,-397,1527,-927,-810,624,1815,2893,2586
292,1302,1010,-797,-358,1156,-722,-634,331,1122,2005,1869
78,531,453,-305,-187,492,-356,-307,-53,146,512,585
-9,43,53,-17,-31,48,-117,-87,-248,-287,-214,-63
-14,-200,-185,107,85,-192,4,34,-297,-366,-361,-209
-19,-302,-283,161,131,-292,73,112,-283,-366,-414,-273
-19,-268,-248,143,114,-258,73,131,-200,-273,-322,-248
-34,-234,-200,134,82,-217,68,126,-136,-204,-263,-234
-48,-209,-161,129,56,-185,58,73,-122,-190,-234,-219
-63,-190,-126,126,31,-158,58,53,-107,-190,-229,-214
-68,-190,-122,129,26,-156,53,53,-97,-180,-224,-219
-78,-175,-97,126,9,-136,53,39,-87,-170,-214,-224
-78,-175,-97,126,9,-136,53,34,-82,-161,-204,-214
-78,-175,-97,126,9,-136,53,29,-78,-161,-200,-204
-73,-170,-97,122,12,-134,58,29,-73,-156,-200,-204
-68,-165,-97,117,14,-131,63,19,-68,-146,-195,-204
-73,-161,-87,117,7,-124,63,24,-63,-146,-195,-204
-73,-156,-82,114,4,-119,58,29,-58,-141,-190,-200
-73,-156,-82,114,4,-119,58,29,-53,-141,-195,-190
-73,-156,-82,114,4,-119,58,29,-48,-136,-195,-190
-73,-156,-82,114,4,-119,53,24,-48,-136,-195,-185
-73,-156,-82,114,4,-119,48,24,-43,-131,-190,-180
-73,-151,-78,112,2,-114,43,24,-39,-126,-190,-175
-73,-146,-73,109,0,-109,43,24,-39,-122,-185,-170
-73,-146,-73,109,0,-109,48,24,-34,-126,-185,-161
-73,-141,-68,107,-2,-104,48,24,-29,-126,-180,-156
-78,-136,-58,107,-9,-97,48,24,-29,-122,-175,-156
-78,-131,-53,104,-12,-92,48,29,-24,-117,-175,-161
-78,-131,-53,104,-12,-92,48,29,-19,-112,-180,-161
-78,-126,-48,102,-14,-87,43,24,-14,-107,-185,-161
-78,-126,-48,102,-14,-87,43,24,-9,-107,-175,-161
-82,-122,-39,102,-21,-80,43,24,0,-102,-161,-156
-82,-117,-34,100,-24,-75,43,24,4,-92,-151,-156
-82,-107,-24,95,-29,-65,43,24,9,-82,-151,-156
-82,-102,-19,92,-31,-61,39,24,14,-82,-146,-156
-82,-97,-14,90,-34,-56,34,24,24,-78,-151,-161
-82,-92,-9,87,-36,-51,34,24,34,-73,-141,-175
-82,-92,-9,87,-36,-51,34,24,39,-73,-136,-185
-82,-82,0,82,-41,-41,34,24,48,-63,-131,-170
-82,-78,4,80,-43,-36,34,24,48,-53,-126,-156
-82,-73,9,78,-46,-31,34,29,58,-53,-126,-156
-82,-68,14,75,-48,-26,34,29,63,-43,-117,-146
-78,-68,9,73,-43,-29,34,29,63,-43,-117,-146
-78,-68,9,73,-43,-29,34,29,73,-34,-117,-141
-78,-53,24,65,-51,-14,34,34,78,-29,-117,-136
-82,-43,39,63,-61,-2,34,34,87,-19,-117,-131
-82,-39,43,61,-63,2,34,29,92,-24,-112,-122
-82,-34,48,58,-65,7,34,29,97,-19,-112,-117
-82,-34,48,58,-65,7,34,34,97,-14,-107,-117
-82,-29,53,56,-68,12,34,34,102,-14,-102,-117
-87,-19,68,53,-78,24,34,34,107,-9,-102,-122
-87,-14,73,51,-80,29,34,34,112,-9,-107,-126
-87,-14,73,51,-80,29,43,39,117,-9,-107,-141
-87,-14,73,51,-80,29,43,39,117,-9,-122,-146
-92,-19,73,56,-82,26,43,43,117,-19,-131,-161
-92,-24,68,58,-80,21,48,43,112,-29,-141,-175
-92,-29,63,61,-78,17,43,43,102,-43,-161,-190
-97,-29,68,63,-82,19,39,39,92,-63,-180,-209
-97,-34,63,65,-80,14,48,43,87,-78,-195,-234
-102,-43,58,73,-80,7,48,43,82,-107,-224,-253
-107,-53,53,80,-80,0,53,43,68,-122,-248,-268
-107,-73,34,90,-70,-19,58,48,48,-151,-273,-278
-117,-87,29,102,-73,-29,68,48,34,-180,-307,-302
-122,-107,14,114,-68,-46,73,53,19,-209,-336,-326
-122,-122,0,122,-61,-61,73,53,0,-239,-366,-346
-126,-141,-14,134,-56,-78,78,53,-19,-263,-400,-366
-126,-161,-34,143,-46,-97,82,53,-43,-283,-424,-380
-126,-175,-48,151,-39,-112,82,53,-68,-307,-444,-390
-126,-195,-68,161,-29,-131,92,58,-87,-331,-468,-395
-126,-219,-92,173,-17,-156,102,63,-107,-356,-488,-400
-126,-244,-117,185,-4,-180,102,63,-126,-380,-512,-405
-126,-258,-131,192,2,-195,107,63,-151,-400,-522,-414
-122,-273,-151,197,14,-212,107,63,-165,-409,-531,-414
-112,-283,-170,197,29,-226,102,58,-175,-414,-536,-409
-112,-283,-170,197,29,-226,102,58,-180,-419,-531,-395
-107,-283,-175,195,34,-229,97,58,-185,-405,-512,-370
-97,-278,-180,187,41,-229,87,63,-185,-380,-483,-351
-92,-263,-170,178,39,-217,87,63,-170,-366,-453,-336
-82,-244,-161,163,39,-202,78,53,-170,-341,-419,-312
-73,-224,-151,148,39,-187,73,43,-161,-317,-375,-283
-68,-200,-131,134,31,-165,58,39,-146,-283,-336,-244
-58,-165,-107,112,24,-136,43,29,-126,-248,-302,-209
-48,-141,-92,95,21,-117,39,29,-117,-224,-263,-185
-34,-126,-92,80,29,-109,29,24,-107,-204,-234,-165
-29,-112,-82,70,26,-97,19,19,-97,-180,-200,-136
-24,-102,-78,63,26,-90,9,14,-82,-161,-180,-112
-24,-87,-63,56,19,-75,9,9,-78,-141,-161,-82
-19,-78,-58,48,19,-68,9,9,-68,-122,-141,-63
-19,-63,-43,41,12,-53,4,4,-58,-112,-117,-63
-14,-53,-39,34,12,-46,0,0,-48,-97,-97,-58
-9,-43,-34,26,12,-39,0,0,-43,-87,-87,-48
0,-34,-34,17,17,-34,4,-4,-39,-78,-78,-39
0,-29,-29,14,14,-29,0,-4,-29,-78,-68,-24
0,-29,-29,14,14,-29,0,-4,-29,-68,-63,-9
0,-24,-24,12,12,-24,0,-9,-29,-68,-48,-4
0,-19,-19,9,9,-19,-4,-9,-24,-63,-39,0
0,-9,-9,4,4,-9,-4,-9,-19,-58,-39,-4
0,-4,-4,2,2,-4,-4,-9,-19,-43,-34,-4
4,-4,-9,0,7,-7,-4,-9,-19,-43,-34,0
4,0,-4,-2,4,-2,-9,-9,-14,-39,-29,0
0,0,0,0,0,0,-9,-14,-14,-43,-24,0
0,4,4,-2,-2,4,-9,-14,-9,-43,-19,0
0,4,4,-2,-2,4,-9,-14,-9,-43,-24,-4
0,4,4,-2,-2,4,-9,-14,-9,-39,-24,-9
0,4,4,-2,-2,4,-9,-14,-4,-39,-24,-9
0,4,4,-2,-2,4,-9,-9,-4,-39,-24,-9
0,9,9,-4,-4,9,-9,-9,0,-34,-19,-4
0,9,9,-4,-4,9,-9,-9,4,-34,-19,-4
0,9,9,-4,-4,9,-9,-9,4,-34,-14,9
0,9,9,-4,-4,9,-9,-9,4,-34,-14,19
0,9,9,-4,-4,9,-9,0,4,-34,-19,19
0,9,9,-4,-4,9,-9,4,4,-34,-19,19
4,9,4,-7,0,7,-4,4,4,-39,-24,24
4,4,0,-4,2,2,0,4,4,-43,-29,29
4,4,0,-4,2,2,0,4,4,-43,-29,34
4,4,0,-4,2,2,4,4,4,-48,-29,39
4,9,4,-7,0,7,4,4,0,-48,-34,39
4,9,4,-7,0,7,4,4,0,-53,-43,39
4,4,0,-4,2,2,4,9,-4,-58,-48,39
4,0,-4,-2,4,-2,4,14,-4,-58,-48,39
4,-9,-14,2,9,-12,9,14,-9,-63,-53,39
4,-14,-19,4,12,-17,9,14,-9,-68,-53,39
4,-34,-39,14,21,-36,9,19,-14,-73,-58,34
4,-43,-48,19,26,-46,9,19,-19,-73,-63,34
4,-34,-39,14,21,-36,9,19,-19,-78,-63,24
4,-29,-34,12,19,-31,14,19,-19,-82,-73,29
4,-34,-39,14,21,-36,14,9,-24,-82,-73,29
9,-29,-39,9,24,-34,14,4,-29,-82,-73,29
9,-34,-43,12,26,-39,9,9,-29,-78,-78,24
9,-34,-43,12,26,-39,9,9,-34,-82,-82,24
14,-39,-53,12,34,-46,9,14,-34,-92,-87,24
14,-39,-53,12,34,-46,9,24,-34,-97,-87,24
9,-43,-53,17,31,-48,14,24,-39,-97,-97,19
9,-48,-58,19,34,-53,19,24,-43,-102,-97,19
9,-48,-58,19,34,-53,19,19,-43,-102,-97,19
9,-53,-63,21,36,-58,19,19,-43,-102,-102,14
9,-53,-63,21,36,-58,19,24,-43,-102,-102,14
9,-53,-63,21,36,-58,19,29,-43,-102,-102,14
9,-58,-68,24,39,-63,24,29,-48,-107,-107,9
9,-58,-68,24,39,-63,24,29,-48,-107,-107,9
9,-58,-68,24,39,-63,19,29,-43,-107,-102,4
9,-58,-68,24,39,-63,19,29,-39,-107,-102,4
9,-58,-68,24,39,-63,19,29,-39,-107,-102,4
9,-63,-73,26,41,-68,19,29,-43,-107,-97,0
9,-63,-73,26,41,-68,24,29,-48,-107,-97,0
4,-63,-68,29,36,-65,29,29,-53,-107,-97,0
4,-68,-73,31,39,-70,29,29,-53,-107,-102,4
4,-73,-78,34,41,-75,29,29,-53,-107,-102,0
4,-73,-78,34,41,-75,29,29,-53,-107,-97,0
4,-73,-78,34,41,-75,24,29,-53,-107,-97,0
4,-68,-73,31,39,-70,24,29,-48,-107,-92,9
4,-63,-68,29,36,-65,24,29,-43,-107,-87,19
9,-63,-73,26,41,-68,24,29,-43,-112,-87,19
9,-63,-73,26,41,-68,29,29,-43,-112,-82,29
9,-68,-78,29,43,-73,29,29,-48,-112,-92,29
9,-73,-82,31,46,-78,29,29,-48,-102,-102,34
14,-73,-87,29,51,-80,29,29,-48,-107,-92,34
14,-73,-87,29,51,-80,29,29,-48,-102,-82,34
14,-73,-87,29,51,-80,29,29,-48,-102,-82,34
14,-73,-87,29,51,-80,29,29,-48,-102,-82,34
14,-68,-82,26,48,-75,29,29,-48,-97,-82,34
14,-63,-78,24,46,-70,29,29,-48,-97,-78,34
14,-63,-78,24,46,-70,29,24,-43,-97,-78,29
9,-58,-68,24,39,-63,29,19,-39,-97,-78,29
9,-58,-68,24,39,-63,29,19,-39,-97,-73,24
9,-63,-73,26,41,-68,29,24,-39,-97,-73,14
9,-63,-73,26,41,-68,24,24,-39,-97,-73,9
9,-63,-73,26,41,-68,19,24,-39,-97,-73,9
9,-63,-73,26,41,-68,19,19,-39,-97,-68,14
9,-63,-73,26,41,-68,19,14,-39,-87,-68,14
9,-63,-73,26,41,-68,24,9,-39,-97,-73,14
9,-58,-68,24,39,-63,24,9,-39,-97,-73,14
9,-63,-73,26,41,-68,24,14,-43,-97,-73,14
9,-68,-78,29,43,-73,24,14,-48,-102,-73,19
9,-68,-78,29,43,-73,24,14,-48,-102,-73,19
9,-68,-78,29,43,-73,29,19,-48,-97,-73,14
14,-63,-78,24,46,-70,24,19,-48,-97,-68,9
19,-58,-78,19,48,-68,19,19,-48,-97,-68,9
19,-58,-78,19,48,-68,19,19,-48,-97,-68,9
19,-58,-78,19,48,-68,19,19,-48,-97,-68,9
14,-58,-73,21,43,-65,19,19,-48,-97,-68,9
9,-58,-68,24,39,-63,19,19,-48,-97,-68,9
9,-58,-68,24,39,-63,19,19,-48,-97,-68,4
9,-58,-68,24,39,-63,19,19,-48,-97,-68,0
9,-58,-68,24,39,-63,19,19,-48,-97,-73,-9
9,-53,-63,21,36,-58,24,19,-48,-97,-73,-14
9,-53,-63,21,36,-58,24,19,-48,-97,-73,-14
9,-53,-63,21,36,-58,24,19,-48,-97,-68,-9
14,-53,-68,19,41,-61,19,19,-43,-97,-63,-9
14,-58,-73,21,43,-65,19,19,-43,-97,-63,-9
14,-58,-73,21,43,-65,19,19,-43,-87,-63,-14
14,-39,-53,12,34,-46,19,24,-34,-82,-63,-14
19,-29,-48,4,34,-39,14,24,-24,-68,-48,-9
29,-9,-39,-9,34,-24,9,14,-9,-53,-43,0
29,4,-24,-17,26,-9,4,9,9,-43,-34,-4
29,19,-9,-24,19,4,0,9,19,-34,-24,0
24,19,-4,-21,14,7,0,9,19,-24,-14,0
24,19,-4,-21,14,7,0,9,19,-24,-14,4
24,19,-4,-21,14,7,4,14,19,-19,-14,4
39,19,-19,-29,29,0,4,14,14,-19,-9,4
48,24,-24,-36,36,0,-4,14,19,-14,4,14
53,24,-29,-39,41,-2,-14,0,9,-19,0,14
53,19,-34,-36,43,-7,-24,-19,-9,-39,-9,14
48,0,-48,-24,48,-24,-29,-24,-34,-68,-34,0
43,-19,-63,-12,53,-41,-24,-24,-63,-92,-58,-14
43,-19,-63,-12,53,-41,-24,-24,-68,-92,-58,-14
43,-9,-53,-17,48,-31,-24,-24,-63,-82,-43,-4
43,-9,-53,-17,48,-31,-24,-24,-63,-82,-43,-4
43,-9,-53,-17,48,-31,-24,-24,-53,-82,-43,4
53,-9,-63,-21,58,-36,-24,-14,-53,-73,-39,9
58,-9,-68,-24,63,-39,-24,-9,-43,-63,-29,19
58,-4,-63,-26,61,-34,-19,-9,-39,-58,-29,19
48,9,-39,-29,43,-14,-14,-9,-24,-43,-14,24
34,14,-19,-24,26,-2,-9,-9,-24,-39,-9,29
14,0,-14,-7,14,-7,0,-4,-24,-53,-29,9
4,-34,-39,14,21,-36,9,0,-43,-73,-58,-9
4,-63,-68,29,36,-65,24,14,-58,-92,-73,-39
0,-78,-78,39,39,-78,29,19,-63,-102,-82,-48
0,-78,-78,39,39,-78,29,19,-63,-102,-82,-53
0,-78,-78,39,39,-78,29,19,-63,-102,-82,-53
0,-78,-78,39,39,-78,34,24,-78,-112,-92,-63
0,-87,-87,43,43,-87,34,29,-82,-117,-102,-73
0,-102,-102,51,51,-102,43,29,-82,-117,-102,-73
0,-107,-107,53,53,-107,48,29,-78,-117,-97,-73
-4,-97,-92,51,43,-95,48,24,-78,-112,-107,-78
-9,-39,-29,24,9,-34,29,9,-34,-53,-48,-34
4,170,165,-87,-80,168,-48,-63,117,136,161,136
63,492,429,-278,-183,461,-165,-136,380,497,556,439
131,849,717,-490,-292,783,-273,-190,683,961,1044,775
190,1112,922,-651,-366,1017,-351,-239,893,1278,1395,1019
273,1444,1171,-858,-448,1307,-483,-336,1078,1576,1786,1361
429,1786,1356,-1107,-463,1571,-644,-434,1200,1859,2205,1766
663,2132,1468,-1398,-402,1800,-878,-585,1176,2074,2674,2269
722,2230,1507,-1476,-392,1869,-1005,-727,1005,2083,2967,2644
678,2093,1415,-1385,-368,1754,-1000,-795,810,2020,3079,2796
590,2020,1429,-1305,-419,1725,-971,-814,756,2030,3186,2908
478,1742,1263,-1110,-392,1503,-854,-732,570,1703,2815,2615
292,1205,912,-749,-309,1058,-624,-536,224,917,1761,1761
97,468,370,-283,-136,419,-278,-234,-117,14,336,531
29,14,-14,-21,21,0,-58,-39,-268,-346,-322,-63
24,-204,-229,90,126,-217,48,82,-297,-395,-424,-195
19,-283,-302,131,161,-292,102,161,-263,-366,-434,-244
19,-248,-268,114,143,-258,107,165,-185,-283,-341,-219
4,-214,-219,104,112,-217,107,146,-126,-224,-283,-204
-4,-200,-195,102,95,-197,97,107,-117,-209,-258,-190
-14,-190,-175,102,80,-183,97,102,-107,-209,-258,-185
-19,-190,-170,104,75,-180,92,102,-92,-195,-253,-190
-29,-175,-146,102,58,-161,92,87,-78,-180,-244,-195
-29,-170,-141,100,56,-156,92,82,-73,-170,-234,-195
-29,-165,-136,97,53,-151,92,78,-68,-170,-229,-195
-34,-161,-126,97,46,-143,92,78,-58,-165,-224,-200
-39,-156,-117,97,39,-136,92,68,-48,-156,-214,-204
-43,-151,-107,97,31,-129,92,68,-43,-156,-214,-214
-43,-146,-102,95,29,-124,87,68,-39,-151,-209,-219
-39,-146,-107,92,34,-126,87,68,-39,-151,-209,-209
-34,-146,-112,90,39,-129,87,68,-39,-146,-204,-209
-34,-146,-112,90,39,-129,87,63,-39,-146,-204,-204
-34,-146,-112,90,39,-129,87,63,-34,-141,-200,-200
-39,-136,-97,87,29,-117,82,63,-29,-136,-200,-195
-43,-126,-82,85,19,-104,82,63,-29,-131,-195,-190
-43,-126,-82,85,19,-104,82,63,-24,-131,-195,-180
-43,-122,-78,82,17,-100,78,63,-19,-126,-190,-175
-48,-117,-68,82,9,-92,78,63,-19,-122,-185,-170
-48,-112,-63,80,7,-87,78,68,-14,-117,-185,-170
-48,-107,-58,78,4,-82,78,68,-9,-112,-180,-170
-48,-97,-48,73,0,-73,73,63,-4,-107,-175,-170
-48,-92,-43,70,-2,-68,68,58,0,-107,-175,-175
-53,-82,-29,68,-12,-56,63,53,9,-102,-170,-175
-53,-82,-29,68,-12,-56,63,53,14,-92,-161,-175
-53,-78,-24,65,-14,-51,63,53,19,-82,-161,-175
-53,-73,-19,63,-17,-46,63,53,19,-82,-151,-175
-53,-68,-14,61,-19,-41,63,53,24,-78,-151,-180
-48,-63,-14,56,-17,-39,63,53,34,-68,-141,-185
-43,-63,-19,53,-12,-41,63,53,39,-63,-136,-185
-43,-53,-9,48,-17,-31,63,53,48,-58,-131,-180
-43,-48,-4,46,-19,-26,63,53,48,-53,-126,-175
-43,-43,0,43,-21,-21,63,58,58,-53,-126,-175
-43,-39,4,41,-24,-17,63,58,63,-43,-117,-165
-39,-39,0,39,-19,-19,63,58,63,-39,-117,-161
-39,-39,0,39,-19,-19,63,58,73,-24,-117,-151
-39,-29,9,34,-24,-9,63,63,78,-19,-112,-141
-43,-24,19,34,-31,-2,63,63,87,-9,-107,-131
-48,-19,29,34,-39,4,63,63,92,-9,-102,-122
-53,-14,39,34,-46,12,63,68,97,0,-102,-117
-53,-19,34,36,-43,7,63,73,97,4,-102,-112
-53,-19,34,36,-43,7,63,73,102,4,-102,-107
-58,-14,43,36,-51,14,63,73,107,9,-97,-107
-58,-14,43,36,-51,14,63,73,112,9,-97,-107
-58,-9,48,34,-53,19,73,73,117,4,-97,-122
-58,-4,53,31,-56,24,73,68,117,0,-112,-126
-58,-4,53,31,-56,24,73,73,117,-9,-131,-146
-53,-4,48,29,-51,21,78,73,112,-19,-151,-165
-53,-19,34,36,-43,7,78,78,107,-29,-161,-175
-58,-29,29,43,-43,0,78,78,102,-43,-170,-190
-63,-43,19,53,-41,-12,87,82,92,-58,-190,-209
-73,-63,9,68,-41,-26,87,82,82,-87,-224,-224
-78,-73,4,75,-41,-34,92,82,68,-102,-248,-239
-78,-92,-14,85,-31,-53,97,87,48,-131,-273,-248
-87,-107,-19,97,-34,-63,107,87,34,-156,-302,-263
-92,-126,-34,109,-29,-80,112,92,19,-180,-326,-278
-92,-141,-48,117,-21,-95,112,92,-4,-209,-351,-292
-97,-161,-63,129,-17,-112,117,92,-29,-234,-380,-307
-97,-180,-82,139,-7,-131,122,97,-53,-258,-409,-317
-97,-195,-97,146,0,-146,122,102,-78,-287,-434,-322
-97,-209,-112,153,7,-161,122,102,-97,-312,-458,-326
-97,-229,-131,163,17,-180,122,102,-117,-336,-478,-331
-97,-253,-156,175,29,-204,122,97,-136,-361,-497,-326
-97,-268,-170,183,36,-219,126,92,-161,-380,-502,-326
-92,-283,-190,187,48,-236,131,92,-175,-390,-507,-326
-82,-292,-209,187,63,-251,131,87,-185,-395,-507,-322
-82,-292,-209,187,63,-251,131,87,-195,-395,-497,-312
-78,-292,-214,185,68,-253,126,87,-204,-375,-473,-292
-68,-283,-214,175,73,-248,112,87,-204,-351,-444,-273
-63,-263,-200,163,68,-231,107,82,-190,-336,-414,-258
-48,-244,-195,146,73,-219,97,73,-185,-307,-380,-234
-34,-224,-190,129,78,-207,92,63,-170,-278,-336,-204
-29,-209,-180,119,75,-195,82,58,-151,-244,-297,-175
-19,-185,-165,102,73,-175,73,48,-126,-209,-263,-151
-14,-156,-141,85,63,-148,63,48,-117,-180,-224,-131
-4,-136,-131,70,63,-134,48,43,-107,-156,-195,-117
0,-117,-117,58,58,-117,39,39,-97,-126,-156,-92
4,-102,-107,48,56,-104,29,34,-82,-102,-131,-73
4,-87,-92,41,48,-90,29,24,-78,-87,-112,-58
9,-78,-87,34,48,-82,29,19,-68,-73,-92,-53
9,-68,-78,29,43,-73,24,14,-63,-63,-73,-39
14,-63,-78,24,46,-70,19,9,-58,-48,-58,-19
14,-53,-68,19,41,-61,14,9,-53,-39,-48,-14
19,-43,-63,12,41,-53,14,4,-48,-29,-39,-9
19,-34,-53,7,36,-43,4,4,-39,-29,-29,0
19,-29,-48,4,34,-39,0,4,-39,-19,-24,9
19,-24,-43,2,31,-34,0,0,-39,-19,-14,14
19,-19,-39,0,29,-29,-4,0,-34,-14,-9,19
14,-14,-29,0,21,-21,-4,0,-29,-14,-4,19
9,-14,-24,2,17,-19,-4,0,-29,-4,4,24
14,-14,-29,0,21,-21,-4,0,-29,-4,4,29
14,-9,-24,-2,19,-17,-9,0,-24,0,9,29
14,-9,-24,-2,19,-17,-9,-4,-24,0,9,24
19,-4,-24,-7,21,-14,-9,-4,-19,4,9,19
19,-4,-24,-7,21,-14,-9,-4,-19,4,9,19
19,-4,-24,-7,21,-14,-9,-4,-19,9,14,19
19,-4,-24,-7,21,-14,-9,-4,-14,4,14,19
19,-4,-24,-7,21,-14,-9,0,-14,0,14,19
19,0,-19,-9,19,-9,-9,4,-14,4,19,24
19,0,-19,-9,19,-9,-9,9,-14,4,19,24
19,0,-19,-9,19,-9,-9,9,-14,9,19,34
19,0,-19,-9,19,-9,-9,9,-14,14,14,39
14,0,-14,-7,14,-7,-9,9,-14,14,9,39
9,0,-9,-4,9,-4,-9,4,-14,14,9,39
9,0,-9,-4,9,-4,-9,4,-14,9,9,43
4,-4,-9,0,7,-7,-9,4,-14,4,9,48
4,-9,-14,2,9,-12,-9,4,-14,4,9,48
4,-14,-19,4,12,-17,-4,4,-14,0,9,48
4,-14,-19,4,12,-17,-4,4,-19,4,4,48
4,-19,-24,7,14,-21,-4,4,-19,4,-4,48
4,-24,-29,9,17,-26,-4,4,-24,0,-9,43
4,-29,-34,12,19,-31,-4,4,-24,0,-9,39
4,-29,-34,12,19,-31,0,4,-29,-4,-14,34
4,-24,-29,9,17,-26,0,4,-29,-9,-14,29
4,-34,-39,14,21,-36,0,9,-34,-14,-19,24
4,-34,-39,14,21,-36,0,9,-39,-14,-24,24
4,-39,-43,17,24,-41,0,9,-39,-19,-24,9
4,-48,-53,21,29,-51,4,9,-39,-24,-34,9
0,-58,-58,29,29,-58,4,4,-43,-29,-34,9
0,-58,-58,29,29,-58,4,4,-48,-34,-34,9
0,-63,-63,31,31,-63,4,14,-48,-34,-39,4
0,-63,-63,31,31,-63,9,19,-53,-43,-43,4
4,-68,-73,31,39,-70,9,19,-53,-53,-53,9
4,-68,-73,31,39,-70,9,24,-53,-58,-58,14
0,-73,-73,36,36,-73,14,24,-58,-58,-68,9
0,-78,-78,39,39,-78,19,24,-63,-63,-68,9
0,-78,-78,39,39,-78,19,19,-63,-63,-63,14
0,-82,-82,41,41,-82,19,19,-63,-63,-63,14
0,-78,-78,39,39,-78,14,14,-63,-63,-63,14
0,-73,-73,36,36,-73,9,9,-63,-63,-63,14
0,-78,-78,39,39,-78,14,9,-73,-68,-68,14
0,-78,-78,39,39,-78,14,9,-78,-68,-68,19
0,-78,-78,39,39,-78,9,9,-78,-68,-68,14
0,-78,-78,39,39,-78,9,9,-78,-68,-73,14
0,-78,-78,39,39,-78,9,9,-78,-68,-78,19
0,-82,-82,41,41,-82,9,9,-82,-68,-78,19
4,-82,-87,39,46,-85,4,9,-82,-68,-73,19
4,-82,-87,39,46,-85,0,9,-82,-68,-68,19
4,-82,-87,39,46,-85,0,9,-82,-68,-68,24
4,-82,-87,39,46,-85,0,9,-82,-68,-63,19
0,-82,-82,41,41,-82,4,9,-82,-68,-63,19
-4,-82,-78,43,36,-80,4,9,-82,-68,-68,19
-4,-82,-78,43,36,-80,4,9,-78,-68,-68,19
-4,-82,-78,43,36,-80,4,9,-73,-68,-68,19
-4,-82,-78,43,36,-80,4,9,-73,-68,-68,14
-9,-82,-73,46,31,-78,9,9,-73,-63,-63,19
-9,-82,-73,46,31,-78,9,9,-78,-63,-58,19
-9,-82,-73,46,31,-78,9,9,-78,-53,-53,24
-4,-82,-78,43,36,-80,4,4,-78,-58,-53,24
-4,-82,-78,43,36,-80,0,0,-78,-53,-53,24
-4,-82,-78,43,36,-80,0,0,-78,-53,-53,24
-4,-82,-78,43,36,-80,0,0,-78,-53,-53,24
0,-82,-82,41,41,-82,4,4,-78,-48,-53,24
4,-82,-87,39,46,-85,9,9,-78,-48,-48,24
4,-82,-87,39,46,-85,9,4,-78,-48,-48,19
0,-78,-78,39,39,-78,9,0,-78,-48,-48,19
0,-78,-78,39,39,-78,9,0,-78,-48,-43,19
0,-82,-82,41,41,-82,9,4,-78,-48,-43,14
0,-82,-82,41,41,-82,9,4,-78,-48,-43,9
0,-82,-82,41,41,-82,9,4,-78,-48,-43,9
0,-87,-87,43,43,-87,9,4,-73,-48,-39,14
0,-92,-92,46,46,-92,9,4,-68,-39,-39,14
0,-92,-92,46,46,-92,9,0,-68,-43,-43,9
0,-87,-87,43,43,-87,4,0,-68,-39,-43,4
0,-87,-87,43,43,-87,4,0,-68,-39,-39,0
0,-87,-87,43,43,-87,4,-4,-68,-43,-34,0
-4,-87,-82,46,39,-85,4,-4,-68,-43,-34,0
-9,-87,-78,48,34,-82,9,0,-68,-39,-34,-4
-9,-87,-78,48,34,-82,4,0,-73,-43,-34,-4
-9,-87,-78,48,34,-82,0,0,-78,-48,-39,-9
-9,-87,-78,48,34,-82,4,0,-78,-48,-39,-9
-9,-87,-78,48,34,-82,9,0,-78,-48,-39,-9
-9,-87,-78,48,34,-82,9,0,-73,-43,-39,-9
-9,-87,-78,48,34,-82,9,0,-68,-39,-39,-9
-9,-87,-78,48,34,-82,9,0,-68,-39,-39,-9
-9,-87,-78,48,34,-82,9,0,-68,-39,-39,-9
-4,-82,-78,43,36,-80,4,-4,-73,-39,-39,-9
0,-78,-78,39,39,-78,0,-9,-78,-39,-39,-9
0,-78,-78,39,39,-78,0,-9,-78,-39,-39,-9
0,-78,-78,39,39,-78,0,-9,-78,-39,-39,-9
-4,-82,-78,43,36,-80,4,-9,-78,-39,-39,-14
-4,-87,-82,46,39,-85,4,-4,-78,-39,-39,-19
-9,-97,-87,53,39,-92,9,-4,-78,-39,-43,-24
-9,-102,-92,56,41,-97,9,0,-78,-39,-43,-34
-9,-102,-92,56,41,-97,14,0,-78,-39,-43,-34
-9,-102,-92,56,41,-97,14,0,-78,-39,-43,-34
-9,-102,-92,56,41,-97,14,0,-78,-43,-39,-34
-4,-97,-92,51,43,-95,9,0,-73,-48,-34,-39
-4,-97,-92,51,43,-95,9,0,-73,-48,-39,-53
-4,-97,-92,51,43,-95,9,0,-73,-43,-43,-68
-4,-82,-78,43,36,-80,9,4,-68,-48,-43,-68
0,-78,-78,39,39,-78,4,4,-63,-39,-29,-68
9,-58,-68,24,39,-63,0,-4,-48,-24,-24,-58
9,-39,-48,14,29,-43,-4,-9,-29,-14,-14,-53
9,-9,-19,0,14,-14,-9,-9,-14,-4,-4,-48
4,0,-4,-2,4,-2,-9,-9,-4,4,4,-58
4,0,-4,-2,4,-2,-9,-9,0,9,9,-58
4,0,-4,-2,4,-2,-9,-4,0,19,14,-63
19,0,-19,-9,19,-9,-14,0,0,24,19,-63
29,0,-29,-14,29,-14,-24,4,0,29,29,-53
39,0,-39,-19,39,-19,-34,-9,-19,19,24,-53
43,0,-43,-21,43,-21,-39,-29,-39,0,19,-53
39,-19,-58,-9,48,-39,-39,-39,-63,-29,-4,-73
34,-39,-73,2,53,-56,-34,-43,-87,-53,-29,-92
29,-43,-73,7,51,-58,-34,-43,-92,-63,-39,-102
24,-39,-63,7,43,-51,-34,-43,-92,-63,-34,-102
24,-39,-63,7,43,-51,-34,-43,-92,-63,-34,-112
24,-39,-63,7,43,-51,-34,-43,-82,-58,-29,-112
39,-39,-78,0,58,-58,-34,-34,-82,-43,-19,-107
43,-39,-82,-2,63,-61,-34,-29,-73,-34,-9,-97
39,-29,-68,-4,53,-48,-34,-34,-68,-24,-4,-97
29,-14,-43,-7,36,-29,-34,-39,-53,-9,9,-97
14,-9,-24,-2,19,-17,-29,-39,-48,-9,14,-102
0,-19,-19,9,9,-19,-19,-34,-43,-24,0,-126
-9,-53,-43,31,17,-48,-9,-29,-63,-43,-29,-146
-14,-82,-68,48,26,-75,4,-14,-78,-63,-43,-170
-19,-97,-78,58,29,-87,9,-9,-82,-73,-58,-180
-19,-97,-78,58,29,-87,9,-9,-82,-73,-63,-190
-19,-107,-87,63,34,-97,9,-9,-82,-73,-63,-190
-19,-117,-97,68,39,-107,14,-9,-92,-78,-68,-195
-19,-136,-117,78,48,-126,19,-4,-97,-78,-73,-200
-19,-146,-126,82,53,-136,29,0,-102,-78,-73,-200
-19,-151,-131,85,56,-141,34,4,-117,-102,-92,-219
