I,II,III,aVR,aVL,aVF,V1,V2,V3,V4,V5,V6,
-97,-117,-19,107,-39,-68,78,39,-126,-165,-146,-126
-97,-117,-19,107,-39,-68,78,39,-126,-165,-146,-126
-97,-117,-19,107,-39,-68,78,39,-126,-165,-146,-126
-97,-107,-9,102,-43,-58,78,39,-131,-170,-146,-126
-97,-97,0,97,-48,-48,78,39,-136,-175,-146,-126
-102,-97,4,100,-53,-46,78,34,-141,-175,-146,-131
-107,-97,9,102,-58,-43,78,29,-146,-175,-146,-136
-107,-102,4,104,-56,-48,78,29,-146,-175,-151,-136
-107,-107,0,107,-53,-53,78,29,-146,-175,-156,-136
-117,-112,4,114,-61,-53,73,19,-156,-185,-161,-141
-126,-117,9,122,-68,-53,68,9,-165,-195,-165,-146
-131,-117,14,124,-73,-51,68,9,-175,-204,-170,-146
-136,-117,19,126,-78,-48,68,9,-185,-214,-175,-146
-146,-117,29,131,-87,-43,68,4,-190,-224,-180,-156
-156,-117,39,136,-97,-39,68,0,-195,-234,-185,-165
-165,-126,39,146,-102,-43,68,0,-214,-244,-200,-175
-175,-136,39,156,-107,-48,68,0,-234,-253,-214,-185
-180,-141,39,161,-109,-51,68,0,-244,-268,-219,-190
-185,-146,39,165,-112,-53,68,0,-253,-283,-224,-195
-195,-151,43,173,-119,-53,78,-14,-278,-302,-239,-204
-204,-156,48,180,-126,-53,87,-29,-302,-322,-253,-214
-229,-170,58,200,-143,-56,87,-48,-336,-356,-283,-239
-253,-185,68,219,-161,-58,87,-68,-370,-390,-312,-263
-273,-195,78,234,-175,-58,92,-82,-390,-414,-326,-273
-292,-204,87,248,-190,-58,97,-97,-409,-439,-341,-283
-302,-209,92,256,-197,-58,107,-112,-448,-473,-366,-302
-312,-214,97,263,-204,-58,117,-126,-488,-507,-390,-322
-326,-219,107,273,-217,-56,117,-126,-507,-527,-409,-336
-341,-224,117,283,-229,-53,117,-126,-527,-546,-429,-351
-356,-239,117,297,-236,-61,117,-141,-561,-580,-453,-370
-370,-253,117,312,-244,-68,117,-156,-595,-614,-478,-390
-370,-253,117,312,-244,-68,117,-156,-605,-634,-492,-400
-370,-253,117,312,-244,-68,117,-156,-614,-653,-507,-409
-375,-263,112,319,-244,-75,126,-161,-624,-668,-522,-419
-380,-273,107,326,-244,-82,136,-165,-634,-683,-536,-429
-380,-273,107,326,-244,-82,126,-165,-634,-683,-536,-429
-380,-273,107,326,-244,-82,117,-165,-634,-683,-536,-429
-356,-268,87,312,-222,-90,112,-156,-610,-668,-527,-424
-331,-263,68,297,-200,-97,107,-146,-585,-653,-517,-419
-307,-253,53,280,-180,-100,92,-122,-541,-619,-488,-395
-283,-244,39,263,-161,-102,78,-97,-497,-585,-458,-370
-244,-229,14,236,-129,-107,73,-78,-453,-541,-424,-346
-204,-214,-9,209,-97,-112,68,-58,-409,-497,-390,-322
-175,-200,-24,187,-75,-112,63,-48,-356,-448,-361,-292
-146,-185,-39,165,-53,-112,58,-39,-302,-400,-331,-263
-122,-175,-53,148,-34,-114,53,-19,-258,-351,-292,-234
-97,-165,-68,131,-14,-117,48,0,-214,-302,-253,-204
-73,-146,-73,109,0,-109,48,4,-170,-263,-224,-180
-48,-126,-78,87,14,-102,48,9,-126,-224,-195,-156
-34,-117,-82,75,24,-100,48,24,-92,-185,-165,-136
-19,-107,-87,63,34,-97,48,39,-58,-146,-136,-117
-9,-102,-92,56,41,-97,39,39,-34,-122,-112,-102
0,-97,-97,48,48,-97,29,39,-9,-97,-87,-87
9,-87,-97,39,53,-92,29,43,4,-73,-73,-73
19,-78,-97,29,58,-87,29,48,19,-48,-58,-58
19,-73,-92,26,56,-82,19,48,29,-34,-48,-53
19,-68,-87,24,53,-78,9,48,39,-19,-39,-48
19,-63,-82,21,51,-73,9,43,43,-14,-29,-39
19,-58,-78,19,48,-68,9,39,48,-9,-19,-29
19,-58,-78,19,48,-68,9,39,48,0,-14,-24
19,-58,-78,19,48,-68,9,39,48,9,-9,-19
19,-58,-78,19,48,-68,0,34,48,9,-9,-19
19,-58,-78,19,48,-68,-9,29,48,9,-9,-19
19,-58,-78,19,48,-68,4,29,48,9,-9,-19
19,-58,-78,19,48,-68,19,29,48,9,-9,-19
19,-58,-78,19,48,-68,9,29,48,4,-9,-24
19,-58,-78,19,48,-68,0,29,48,0,-9,-29
19,-58,-78,19,48,-68,0,29,43,0,-14,-29
19,-58,-78,19,48,-68,0,29,39,0,-19,-29
19,-58,-78,19,48,-68,4,24,39,0,-19,-29
19,-58,-78,19,48,-68,9,19,39,0,-19,-29
14,-58,-73,21,43,-65,9,19,34,0,-19,-29
9,-58,-68,24,39,-63,9,19,29,0,-19,-29
4,-58,-63,26,34,-61,9,19,29,0,-19,-29
0,-58,-58,29,29,-58,9,19,29,0,-19,-29
0,-58,-58,29,29,-58,14,24,29,0,-19,-29
0,-58,-58,29,29,-58,19,29,29,0,-19,-29
4,-39,-43,17,24,-41,29,34,39,9,-9,-19
9,-19,-29,4,19,-24,39,39,48,19,0,-9
14,-9,-24,-2,19,-17,29,48,58,24,4,-4
19,0,-19,-9,19,-9,19,58,68,29,9,0
24,4,-19,-14,21,-7,19,68,73,34,9,0
29,9,-19,-19,24,-4,19,78,78,39,9,0
43,19,-24,-31,34,-2,34,92,92,43,19,9
58,29,-29,-43,43,0,48,107,107,48,29,19
58,29,-29,-43,43,0,39,97,107,48,29,19
58,39,-19,-48,39,9,19,73,102,48,34,29
58,48,-9,-53,34,19,0,48,97,53,39,39
63,63,0,-63,31,31,-34,4,87,58,48,43
78,78,0,-78,39,39,-53,-14,78,68,63,53
92,87,-4,-90,48,41,-58,-29,78,73,73,68
126,131,4,-129,61,68,-73,-19,87,78,82,82
165,156,-9,-161,87,73,-97,-9,97,97,92,92
180,156,-24,-168,102,65,-107,-24,73,87,97,97
180,146,-34,-163,107,56,-107,-29,53,87,97,97
180,122,-58,-151,119,31,-107,-29,53,73,87,97
151,82,-68,-117,109,7,-82,-24,48,63,78,87
122,78,-43,-100,82,17,-58,-14,53,63,68,78
82,53,-29,-68,56,12,-39,-9,58,53,53,63
58,9,-48,-34,53,-19,-29,0,43,24,24,29
43,-24,-68,-9,56,-46,-29,-9,24,0,-4,4
19,-63,-82,21,51,-73,-24,-9,4,-24,-24,-24
14,-73,-87,29,51,-80,-24,-4,4,-24,-29,-29
0,-82,-82,41,41,-82,-19,4,9,-24,-29,-29
-4,-92,-87,48,41,-90,-19,4,9,-29,-34,-34
-4,-92,-87,48,41,-90,-19,4,4,-29,-34,-43
-4,-92,-87,48,41,-90,-19,0,4,-29,-39,-48
-9,-97,-87,53,39,-92,-19,-4,4,-29,-39,-48
-9,-102,-92,56,41,-97,-14,-4,9,-34,-39,-53
-14,-102,-87,58,36,-95,0,-4,9,-34,-39,-53
-14,-102,-87,58,36,-95,14,-4,9,-29,-39,-53
-9,-107,-97,58,43,-102,14,0,9,-24,-39,-53
-4,-107,-102,56,48,-104,19,0,9,-19,-43,-53
-4,-107,-102,56,48,-104,9,0,9,-19,-43,-53
-4,-107,-102,56,48,-104,0,0,9,-19,-39,-53
-4,-107,-102,56,48,-104,4,0,9,-19,-39,-48
-4,-107,-102,56,48,-104,4,0,9,-19,-34,-43
-4,-107,-102,56,48,-104,4,0,14,-14,-34,-39
-4,-107,-102,56,48,-104,4,0,14,-14,-34,-39
-4,-107,-102,56,48,-104,4,9,14,-14,-34,-43
-4,-107,-102,56,48,-104,0,14,19,-9,-34,-43
-9,-107,-97,58,43,-102,0,9,19,-9,-34,-43
-14,-107,-92,61,39,-100,0,9,19,-9,-29,-43
-14,-112,-97,63,41,-104,-19,4,14,-9,-29,-48
-9,-122,-112,65,51,-117,0,34,34,-4,-34,-58
-14,-151,-136,82,61,-143,87,136,112,4,-48,-97
9,-161,-170,75,90,-165,175,302,292,112,-14,-87
39,-131,-170,46,104,-151,312,531,566,297,87,-43
102,-112,-214,4,158,-163,517,893,883,492,185,4
248,-53,-302,-97,275,-178,673,1234,1259,751,366,122
395,58,-336,-226,366,-139,649,1302,1503,995,566,297
551,224,-326,-387,439,-51,502,1200,1581,1180,751,478
736,546,-190,-641,463,178,219,888,1556,1371,1010,761
912,1073,161,-993,375,617,-385,0,1234,1512,1361,1185
1093,1517,424,-1305,334,971,-971,-702,1000,1751,1771,1649
1210,1790,580,-1500,314,1185,-1346,-1005,1034,2074,2142,1991
1278,2059,780,-1668,248,1420,-1659,-1298,1112,2361,2454,2293
1244,2034,790,-1639,226,1412,-1625,-1278,1288,2552,2586,2376
1127,1776,649,-1451,239,1212,-1400,-1005,1395,2449,2415,2205
814,1327,512,-1071,151,919,-1093,-790,1039,1888,1854,1678
331,824,492,-578,-80,658,-678,-600,566,1200,1102,980
-97,409,507,-156,-302,458,-297,-385,204,522,385,307
-161,151,312,4,-236,231,-146,-244,39,156,58,29
-151,-9,141,80,-146,65,-53,-126,-92,-68,-82,-73
-126,-112,14,119,-70,-48,29,-29,-170,-180,-151,-122
-102,-117,-14,109,-43,-65,29,4,-156,-185,-156,-122
-97,-117,-19,107,-39,-68,19,-19,-156,-185,-146,-117
-97,-112,-14,104,-41,-63,24,-4,-136,-170,-141,-117
-102,-126,-24,114,-39,-75,48,24,-126,-161,-141,-122
-102,-131,-29,117,-36,-80,53,48,-126,-161,-141,-122
-92,-131,-39,112,-26,-85,53,39,-122,-161,-141,-122
-92,-131,-39,112,-26,-85,53,39,-112,-151,-136,-122
-92,-136,-43,114,-24,-90,58,48,-102,-151,-136,-122
-92,-136,-43,114,-24,-90,58,58,-102,-151,-136,-122
-92,-136,-43,114,-24,-90,58,58,-102,-151,-131,-122
-87,-136,-48,112,-19,-92,63,53,-102,-151,-131,-117
-82,-136,-53,109,-14,-95,63,53,-97,-146,-131,-117
-82,-136,-53,109,-14,-95,68,58,-97,-146,-131,-122
-82,-136,-53,109,-14,-95,68,53,-97,-146,-131,-126
-87,-131,-43,109,-21,-87,63,48,-97,-146,-131,-126
-92,-131,-39,112,-26,-85,63,48,-97,-146,-126,-126
-92,-126,-34,109,-29,-80,63,58,-97,-146,-126,-126
-92,-126,-34,109,-29,-80,63,63,-92,-146,-126,-126
-92,-122,-29,107,-31,-75,63,63,-92,-146,-126,-126
-97,-122,-24,109,-36,-73,63,58,-97,-146,-126,-126
-97,-122,-24,109,-36,-73,63,53,-97,-151,-126,-126
-97,-122,-24,109,-36,-73,63,48,-97,-151,-126,-126
-97,-122,-24,109,-36,-73,63,48,-97,-151,-131,-126
-102,-122,-19,112,-41,-70,58,48,-97,-156,-131,-126
-107,-117,-9,112,-48,-63,58,48,-102,-156,-131,-131
-112,-117,-4,114,-53,-61,58,53,-102,-156,-136,-131
-112,-117,-4,114,-53,-61,63,53,-97,-156,-136,-126
-112,-117,-4,114,-53,-61,68,43,-107,-161,-136,-122
-117,-117,0,117,-58,-58,78,43,-107,-161,-136,-122
-117,-117,0,117,-58,-58,78,43,-107,-165,-141,-126
-122,-126,-4,124,-58,-65,68,43,-112,-170,-141,-126
-122,-131,-9,126,-56,-70,53,43,-117,-175,-146,-131
-131,-131,0,131,-65,-65,53,34,-126,-180,-151,-131
-136,-131,4,134,-70,-63,53,34,-131,-185,-151,-131
-136,-126,9,131,-73,-58,92,29,-136,-190,-156,-141
-136,-126,9,131,-73,-58,117,24,-146,-195,-161,-141
-146,-131,14,139,-80,-58,112,19,-151,-200,-165,-151
-151,-131,19,141,-85,-56,112,9,-161,-204,-175,-151
-161,-141,19,151,-90,-61,107,4,-175,-214,-185,-165
-165,-146,19,156,-92,-63,92,-4,-180,-224,-195,-170
-175,-146,29,161,-102,-58,82,-4,-200,-248,-204,-180
-185,-151,34,168,-109,-58,78,-4,-219,-253,-214,-185
-204,-156,48,180,-126,-53,82,-9,-234,-278,-224,-195
-219,-170,48,195,-134,-61,82,-9,-253,-302,-234,-204
-234,-180,53,207,-143,-63,82,-19,-278,-322,-253,-219
-248,-185,63,217,-156,-61,87,-29,-302,-336,-273,-229
-263,-195,68,229,-165,-63,78,-48,-326,-366,-287,-248
-273,-209,63,241,-168,-73,78,-58,-346,-385,-302,-263
-283,-214,68,248,-175,-73,102,-68,-370,-409,-322,-278
-302,-224,78,263,-190,-73,122,-78,-405,-444,-341,-297
-322,-234,87,278,-204,-73,112,-97,-448,-473,-366,-307
-336,-244,92,290,-214,-75,102,-112,-473,-502,-385,-322
-346,-253,92,300,-219,-80,107,-117,-497,-527,-409,-336
-361,-263,97,312,-229,-82,112,-126,-531,-556,-429,-356
-375,-273,102,324,-239,-85,126,-141,-556,-585,-453,-375
-385,-287,97,336,-241,-95,146,-151,-566,-605,-473,-390
-390,-287,102,339,-246,-92,136,-156,-575,-619,-492,-405
-390,-287,102,339,-246,-92,126,-156,-595,-644,-502,-414
-390,-292,97,341,-244,-97,126,-156,-605,-653,-512,-419
-390,-292,97,341,-244,-97,122,-156,-605,-653,-512,-419
-385,-292,92,339,-239,-100,122,-151,-590,-653,-512,-424
-370,-287,82,329,-226,-102,122,-151,-580,-649,-502,-419
-356,-283,73,319,-214,-104,112,-141,-556,-624,-488,-409
-331,-283,48,307,-190,-117,102,-126,-531,-605,-468,-400
-292,-263,29,278,-161,-117,92,-102,-492,-561,-444,-366
-263,-248,14,256,-139,-117,78,-78,-439,-507,-409,-331
-229,-234,-4,231,-112,-119,73,-63,-390,-468,-380,-312
-190,-219,-29,204,-80,-124,68,-43,-336,-419,-341,-287
-156,-200,-43,178,-56,-122,53,-24,-283,-370,-302,-248
-131,-175,-43,153,-43,-109,48,-9,-229,-317,-263,-219
-102,-156,-53,129,-24,-104,43,0,-185,-273,-234,-195
-73,-146,-73,109,0,-109,39,19,-146,-239,-204,-175
-53,-131,-78,92,12,-104,43,29,-107,-200,-175,-151
-34,-107,-73,70,19,-90,58,39,-73,-161,-146,-131
-19,-97,-78,58,29,-87,48,43,-39,-131,-122,-107
0,-87,-87,43,43,-87,39,43,-9,-97,-102,-92
4,-82,-87,39,46,-85,29,48,4,-78,-82,-82
14,-68,-82,26,48,-75,24,48,19,-58,-63,-63
9,-68,-78,29,43,-73,24,48,34,-34,-48,-53
14,-58,-73,21,43,-65,19,48,43,-14,-43,-43
19,-53,-73,17,46,-63,24,48,53,-9,-34,-39
19,-53,-73,17,46,-63,14,48,58,4,-24,-34
24,-43,-68,9,46,-56,14,48,58,14,-9,-24
24,-39,-63,7,43,-51,14,48,63,19,-4,-19
24,-43,-68,9,46,-56,0,53,68,19,-4,-19
24,-48,-73,12,48,-61,-9,53,73,19,-4,-19
19,-43,-63,12,41,-53,-4,48,73,24,-4,-19
19,-43,-63,12,41,-53,0,48,73,24,0,-14
19,-39,-58,9,39,-48,-4,53,78,29,4,-14
19,-39,-58,9,39,-48,-9,58,78,29,9,-14
19,-39,-58,9,39,-48,-24,53,73,29,4,-9
19,-39,-58,9,39,-48,-39,53,73,29,4,-4
14,-39,-53,12,34,-46,-19,43,63,29,4,-4
14,-39,-53,12,34,-46,-9,34,58,24,4,-4
14,-39,-53,12,34,-46,9,34,58,19,4,-14
9,-43,-53,17,31,-48,29,29,53,14,0,-19
9,-43,-53,17,31,-48,39,29,48,9,-4,-19
9,-43,-53,17,31,-48,39,29,48,4,-9,-19
4,-43,-48,19,26,-46,29,24,48,9,-9,-24
4,-39,-43,17,24,-41,14,24,43,9,-14,-24
4,-43,-48,19,26,-46,9,24,43,9,-14,-24
9,-39,-48,14,29,-43,9,24,43,9,-14,-24
9,-29,-39,9,24,-34,14,34,53,14,-4,-14
14,0,-14,-7,14,-7,29,48,73,29,9,4
24,14,-9,-19,17,2,29,68,78,39,14,4
39,29,-9,-34,24,9,34,87,87,48,19,9
48,34,-14,-41,31,9,34,97,97,53,24,14
58,39,-19,-48,39,9,39,107,107,58,29,19
63,48,-14,-56,39,17,39,112,117,63,39,24
68,58,-9,-63,39,24,39,117,126,68,48,29
68,58,-9,-63,39,24,24,107,126,73,48,29
68,68,0,-68,34,34,-4,87,122,78,53,39
73,78,4,-75,34,41,-34,68,117,82,58,48
82,92,9,-87,36,51,-82,34,107,87,68,53
97,107,9,-102,43,58,-102,4,97,87,78,63
112,117,4,-114,53,61,-107,-19,97,82,82,78
141,146,4,-143,68,75,-92,-19,102,82,92,92
175,156,-19,-165,97,68,-87,-19,107,97,102,102
190,156,-34,-173,112,61,-97,-29,92,87,107,107
190,146,-43,-168,117,51,-97,-29,82,87,107,107
190,131,-58,-161,124,36,-102,-29,82,78,97,102
161,102,-58,-131,109,21,-82,-24,78,73,87,87
126,97,-29,-112,78,34,-63,-4,78,73,78,78
82,73,-9,-78,46,31,-48,9,78,63,63,63
58,29,-29,-43,43,0,-39,19,63,34,34,29
43,-4,-48,-19,46,-26,-39,9,43,9,4,4
19,-43,-63,12,41,-53,-24,4,24,-14,-14,-24
14,-53,-68,19,41,-61,-14,4,24,-14,-19,-29
4,-63,-68,29,36,-65,-9,9,29,-14,-19,-24
4,-73,-78,34,41,-75,-9,4,29,-19,-24,-24
4,-73,-78,34,41,-75,-9,4,24,-19,-24,-29
4,-73,-78,34,41,-75,-9,0,24,-19,-29,-29
0,-78,-78,39,39,-78,-9,0,24,-19,-29,-34
0,-82,-82,41,41,-82,-4,4,29,-24,-29,-43
-4,-82,-78,43,36,-80,-9,4,29,-24,-29,-48
-4,-82,-78,43,36,-80,-14,4,29,-19,-29,-53
-9,-87,-78,48,34,-82,-14,9,14,-19,-29,-53
-14,-87,-73,51,29,-80,-9,9,0,-19,-34,-53
-14,-87,-73,51,29,-80,-9,14,14,-14,-34,-48
-14,-87,-73,51,29,-80,-9,19,29,-9,-29,-43
-14,-87,-73,51,29,-80,-4,19,29,-9,-29,-43
-14,-87,-73,51,29,-80,-4,19,29,-9,-24,-43
-14,-87,-73,51,29,-80,0,14,34,-4,-24,-39
-14,-87,-73,51,29,-80,4,9,34,-4,-24,-39
-9,-82,-73,46,31,-78,4,14,34,-4,-24,-39
-4,-78,-73,41,34,-75,0,14,39,0,-24,-34
-4,-78,-73,41,34,-75,9,9,39,0,-24,-34
-4,-78,-73,41,34,-75,19,9,39,0,-19,-34
-4,-82,-78,43,36,-80,4,14,43,4,-19,-39
0,-92,-92,46,46,-92,29,53,73,14,-24,-48
0,-112,-112,56,56,-112,117,180,170,43,-24,-78
29,-112,-141,41,85,-126,204,370,370,170,24,-58
73,-73,-146,0,109,-109,322,614,653,366,136,-4
151,-43,-195,-53,173,-119,507,990,980,570,244,53
297,29,-268,-163,283,-119,624,1263,1307,814,424,180
444,156,-287,-300,366,-65,561,1263,1503,1044,624,366
600,346,-253,-473,427,46,390,1044,1522,1215,819,561
785,692,-92,-739,439,300,82,614,1439,1390,1088,858
951,1171,219,-1061,366,695,-522,-253,1098,1503,1405,1259
1122,1566,444,-1344,339,1005,-1107,-936,844,1712,1781,1698
1215,1790,575,-1503,319,1183,-1420,-1190,878,1986,2103,1991
1259,2010,751,-1634,253,1381,-1668,-1434,956,2225,2366,2244
1190,1932,741,-1561,224,1337,-1595,-1346,1102,2352,2425,2259
1039,1620,580,-1329,229,1100,-1332,-1005,1180,2186,2181,2020
722,1180,458,-951,131,819,-1010,-766,873,1654,1634,1493
234,688,453,-461,-109,570,-580,-551,448,995,897,795
-146,322,468,-87,-307,395,-224,-336,141,405,268,204
-161,112,273,24,-217,192,-97,-195,29,126,29,9
-151,-24,126,87,-139,51,-24,-92,-87,-73,-97,-82
-126,-102,24,114,-75,-39,39,-9,-151,-161,-151,-122
-102,-107,-4,104,-48,-56,39,19,-131,-165,-151,-122
-97,-107,-9,102,-43,-58,29,-9,-126,-165,-136,-117
-97,-107,-9,102,-43,-58,43,4,-107,-151,-131,-117
-102,-126,-24,114,-39,-75,78,34,-97,-141,-131,-122
-102,-131,-29,117,-36,-80,68,53,-97,-141,-131,-122
-92,-131,-39,112,-26,-85,53,39,-92,-141,-131,-122
-92,-126,-34,109,-29,-80,48,34,-87,-131,-126,-126
-92,-126,-34,109,-29,-80,48,39,-82,-131,-126,-131
-92,-126,-34,109,-29,-80,73,39,-87,-131,-126,-131
-92,-126,-34,109,-29,-80,97,29,-92,-131,-122,-131
-92,-126,-34,109,-29,-80,87,39,-92,-131,-122,-126
-92,-126,-34,109,-29,-80,73,53,-87,-126,-122,-126
-92,-126,-34,109,-29,-80,68,63,-82,-126,-122,-126
-92,-126,-34,109,-29,-80,58,63,-78,-126,-122,-126
-92,-122,-29,107,-31,-75,53,58,-78,-126,-126,-126
-92,-122,-29,107,-31,-75,53,58,-78,-126,-126,-126
-92,-117,-24,104,-34,-70,53,63,-73,-126,-126,-126
-92,-117,-24,104,-34,-70,53,63,-63,-126,-126,-126
-92,-117,-24,104,-34,-70,58,63,-63,-126,-126,-122
-97,-122,-24,109,-36,-73,63,58,-68,-126,-126,-117
-97,-122,-24,109,-36,-73,63,58,-73,-131,-126,-117
-97,-122,-24,109,-36,-73,63,58,-78,-131,-126,-117
-97,-122,-24,109,-36,-73,63,58,-78,-131,-131,-117
-102,-122,-19,112,-41,-70,58,58,-78,-136,-131,-117
-107,-117,-9,112,-48,-63,58,53,-82,-136,-131,-122
-112,-117,-4,114,-53,-61,58,53,-82,-136,-136,-122
-112,-117,-4,114,-53,-61,68,53,-82,-136,-136,-122
-112,-117,-4,114,-53,-61,78,43,-97,-141,-136,-122
-117,-112,4,114,-61,-53,87,43,-92,-136,-131,-122
-117,-107,9,112,-63,-48,87,43,-87,-136,-131,-126
-122,-112,9,117,-65,-51,82,43,-92,-141,-131,-126
-122,-112,9,117,-65,-51,73,43,-97,-146,-136,-131
-131,-122,9,126,-70,-56,73,34,-112,-156,-146,-136
-136,-131,4,134,-70,-63,73,34,-122,-165,-151,-141
-141,-122,19,131,-80,-51,87,34,-126,-175,-156,-151
-146,-117,29,131,-87,-43,87,34,-136,-185,-161,-151
-156,-122,34,139,-95,-43,82,29,-141,-190,-165,-161
-161,-122,39,141,-100,-41,82,19,-151,-195,-175,-161
-170,-131,39,151,-104,-46,92,19,-165,-200,-180,-170
-175,-136,39,156,-107,-48,92,14,-170,-204,-185,-170
-185,-141,43,163,-114,-48,82,14,-185,-229,-195,-180
-195,-151,43,173,-119,-53,78,14,-200,-234,-204,-185
-209,-156,53,183,-131,-51,82,0,-214,-253,-214,-195
-219,-170,48,195,-134,-61,82,-9,-234,-273,-224,-204
-234,-180,53,207,-143,-63,97,-19,-258,-297,-244,-219
-248,-185,63,217,-156,-61,117,-29,-283,-317,-263,-229
-263,-190,73,226,-168,-58,117,-48,-312,-351,-283,-248
-273,-200,73,236,-173,-63,126,-58,-336,-375,-302,-263
-283,-204,78,244,-180,-63,131,-63,-361,-395,-322,-278
-302,-214,87,258,-195,-63,131,-68,-395,-424,-341,-297
-322,-224,97,273,-209,-63,122,-82,-429,-453,-366,-312
-336,-234,102,285,-219,-65,112,-92,-444,-483,-385,-331
-346,-244,102,295,-224,-70,131,-97,-463,-507,-409,-346
-361,-253,107,307,-234,-73,151,-107,-492,-536,-429,-366
-375,-258,117,317,-246,-70,131,-117,-517,-561,-448,-380
-385,-268,117,326,-251,-75,117,-122,-527,-575,-463,-390
-395,-268,126,331,-261,-70,117,-131,-541,-590,-488,-405
-400,-268,131,334,-265,-68,117,-136,-566,-614,-502,-414
-400,-273,126,336,-263,-73,131,-136,-575,-629,-512,-419
-400,-273,126,336,-263,-73,141,-136,-575,-634,-512,-419
-390,-278,112,334,-251,-82,141,-131,-561,-629,-512,-419
-370,-278,92,324,-231,-92,141,-131,-551,-619,-502,-409
-351,-268,82,309,-217,-92,131,-122,-527,-595,-488,-400
-322,-263,58,292,-190,-102,122,-107,-502,-575,-468,-390
-283,-244,39,263,-161,-102,117,-92,-463,-541,-444,-361
-253,-229,24,241,-139,-102,107,-78,-409,-497,-409,-331
-219,-214,4,217,-112,-104,102,-63,-370,-463,-380,-312
-180,-200,-19,190,-80,-109,97,-43,-326,-419,-341,-287
-146,-180,-34,163,-56,-107,78,-24,-278,-370,-302,-248
-122,-156,-34,139,-43,-95,68,-9,-229,-317,-263,-219
-92,-136,-43,114,-24,-90,63,-4,-185,-273,-234,-195
-63,-126,-63,95,0,-95,58,9,-146,-239,-204,-175
-43,-122,-78,82,17,-100,48,19,-107,-200,-175,-151
-24,-107,-82,65,29,-95,48,29,-73,-161,-146,-131
-14,-97,-82,56,34,-90,39,34,-43,-136,-122,-107
0,-87,-87,43,43,-87,29,34,-19,-107,-102,-92
4,-82,-87,39,46,-85,24,39,-4,-87,-82,-87
14,-68,-82,26,48,-75,24,39,9,-68,-63,-73
14,-68,-82,26,48,-75,24,43,24,-48,-48,-63
24,-58,-82,17,53,-70,19,48,34,-34,-43,-53
29,-53,-82,12,56,-68,14,48,43,-29,-39,-48
29,-53,-82,12,56,-68,-4,48,48,-14,-34,-43
34,-43,-78,4,56,-61,-4,48,48,-4,-19,-34
34,-39,-73,2,53,-56,-4,48,53,0,-14,-29
34,-34,-68,0,51,-51,-4,43,53,0,-9,-24
34,-29,-63,-2,48,-46,0,34,53,0,-4,-19
29,-24,-53,-2,41,-39,4,29,53,4,-4,-19
29,-24,-53,-2,41,-39,9,29,53,4,0,-14
34,-24,-58,-4,46,-41,9,29,58,9,0,-14
39,-29,-68,-4,53,-48,9,29,58,9,0,-14
39,-34,-73,-2,56,-53,9,24,53,4,-9,-19
39,-39,-78,0,58,-58,9,24,53,0,-14,-24
29,-39,-68,4,48,-53,9,24,48,0,-19,-29
24,-39,-63,7,43,-51,0,24,48,-4,-24,-34
24,-34,-58,4,41,-46,0,24,43,-4,-24,-39
19,-34,-53,7,36,-43,0,19,34,-4,-29,-39
19,-34,-53,7,36,-43,9,19,29,-9,-24,-34
19,-34,-53,7,36,-43,9,19,29,-14,-19,-29
14,-39,-53,12,34,-46,9,14,34,-14,-19,-34
14,-39,-53,12,34,-46,4,14,34,-19,-24,-34
14,-39,-53,12,34,-46,0,14,34,-19,-29,-34
19,-29,-48,4,34,-39,0,14,34,-19,-34,-34
19,-19,-39,0,29,-29,9,24,39,-9,-24,-29
24,9,-14,-17,19,-2,29,39,53,9,-9,-14
24,19,-4,-21,14,7,29,48,58,14,-4,-4
29,29,0,-29,14,14,34,58,68,19,0,0
48,34,-14,-41,31,9,43,68,78,24,4,4
68,39,-29,-53,48,4,58,78,87,29,9,9
73,53,-19,-63,46,17,43,82,97,39,19,9
78,68,-9,-73,43,29,29,87,107,48,29,9
78,73,-4,-75,41,34,0,78,107,48,29,9
78,82,4,-80,36,43,-24,58,102,48,34,24
82,97,14,-90,34,56,-48,39,97,53,39,39
92,112,19,-102,36,65,-73,4,87,58,48,53
107,126,19,-117,43,73,-82,-19,78,63,63,63
122,136,14,-129,53,75,-78,-39,78,63,73,78
146,161,14,-153,65,87,-82,-39,78,63,82,92
175,165,-9,-170,92,78,-97,-39,78,78,92,102
185,161,-24,-173,104,68,-107,-43,68,68,92,102
180,146,-34,-163,107,56,-107,-39,63,68,87,97
180,126,-53,-153,117,36,-107,-34,63,53,78,87
151,92,-58,-122,104,17,-82,-24,58,43,68,68
122,73,-48,-97,85,12,-58,-9,53,43,53,58
82,34,-48,-58,65,-7,-39,0,48,34,34,43
63,0,-63,-31,63,-31,-29,0,34,4,4,9
53,-24,-78,-14,65,-51,-29,-19,14,-19,-24,-14
29,-58,-87,14,58,-73,-19,-24,-4,-43,-43,-43
24,-63,-87,19,56,-75,-14,-24,-4,-43,-48,-48
14,-73,-87,29,51,-80,-9,-14,-4,-43,-53,-48
14,-82,-97,34,56,-90,-9,-14,-9,-48,-63,-53
14,-82,-97,34,56,-90,-9,-14,-14,-48,-63,-58
14,-82,-97,34,56,-90,-9,-19,-14,-48,-68,-58
14,-82,-97,34,56,-90,-9,-14,-9,-48,-63,-53
19,-82,-102,31,61,-92,-4,-4,0,-53,-58,-53
14,-82,-97,34,56,-90,-4,-4,0,-53,-53,-53
14,-82,-97,34,56,-90,-4,-4,0,-48,-48,-53
14,-87,-102,36,58,-95,-4,-4,0,-48,-48,-53
14,-87,-102,36,58,-95,0,-9,0,-48,-53,-53
9,-87,-97,39,53,-92,-4,-9,-4,-48,-58,-53
4,-87,-92,41,48,-90,-9,-9,-9,-48,-58,-53
4,-92,-97,43,51,-95,-4,-9,-9,-48,-58,-58
4,-97,-102,46,53,-100,-4,-9,-9,-48,-53,-63
4,-97,-102,46,53,-100,-4,-9,-4,-43,-53,-58
4,-97,-102,46,53,-100,-4,-9,-4,-43,-53,-58
4,-97,-102,46,53,-100,0,-4,-4,-43,-53,-58
4,-97,-102,46,53,-100,0,-4,0,-39,-53,-53
4,-97,-102,46,53,-100,0,-4,4,-34,-48,-53
4,-97,-102,46,53,-100,0,0,9,-29,-39,-53
9,-112,-122,51,65,-117,14,39,39,-9,-39,-58
19,-131,-151,56,85,-141,68,112,92,14,-43,-68
34,-131,-165,48,100,-148,165,258,234,78,-14,-78
78,-112,-190,17,134,-151,263,468,478,239,63,-39
141,-73,-214,-34,178,-143,380,692,775,448,195,39
239,-43,-283,-97,261,-163,566,1049,1117,668,322,122
385,63,-322,-224,353,-129,634,1249,1385,897,512,263
531,224,-307,-378,419,-41,522,1176,1522,1112,722,463
678,473,-204,-575,441,134,297,922,1532,1317,961,707
854,878,24,-866,414,451,-63,458,1439,1527,1273,1054
1010,1337,326,-1173,341,832,-629,-292,1205,1708,1615,1444
1171,1712,541,-1442,314,1127,-1176,-858,1058,1986,2015,1873
1229,1849,619,-1539,305,1234,-1429,-1054,1093,2220,2274,2103
1239,1981,741,-1610,248,1361,-1620,-1239,1171,2420,2474,2293
1107,1810,702,-1459,202,1256,-1512,-1205,1151,2366,2371,2166
893,1405,512,-1149,190,958,-1215,-917,1063,2020,1966,1786
595,1005,409,-800,92,707,-893,-702,741,1468,1415,1273
126,551,424,-339,-148,488,-463,-512,302,790,673,590
-190,224,414,-17,-302,319,-165,-307,29,248,122,78
-141,53,195,43,-168,124,-97,-175,-48,19,-39,-39
-131,-63,68,97,-100,2,-24,-78,-141,-151,-146,-122
-107,-122,-14,114,-46,-68,39,0,-180,-209,-180,-151
-82,-122,-39,102,-21,-80,39,24,-165,-209,-180,-146
-78,-117,-39,97,-19,-78,29,-9,-165,-204,-165,-136
-78,-117,-39,97,-19,-78,24,4,-151,-190,-161,-136
-82,-136,-53,109,-14,-95,39,34,-146,-180,-161,-141
-87,-146,-58,117,-14,-102,43,48,-146,-180,-161,-141
-82,-151,-68,117,-7,-109,43,29,-141,-180,-161,-141
-82,-146,-63,114,-9,-104,53,29,-131,-170,-156,-141
-82,-146,-63,114,-9,-104,68,39,-122,-170,-156,-141
-78,-146,-68,112,-4,-107,68,48,-122,-175,-156,-141
-73,-146,-73,109,0,-109,68,48,-122,-180,-151,-141
-73,-146,-73,109,0,-109,73,43,-122,-180,-151,-136
-73,-146,-73,109,0,-109,73,43,-117,-175,-151,-136
-73,-146,-73,109,0,-109,78,53,-117,-175,-156,-136
-73,-146,-73,109,0,-109,78,53,-117,-175,-161,-136
-78,-141,-63,109,-7,-102,73,48,-117,-175,-161,-136
-82,-141,-58,112,-12,-100,73,48,-117,-175,-156,-136
-82,-136,-53,109,-14,-95,73,53,-117,-175,-156,-136
-82,-136,-53,109,-14,-95,73,53,-112,-175,-156,-136
-78,-131,-53,104,-12,-92,73,63,-112,-175,-151,-136
-78,-131,-53,104,-12,-92,73,68,-117,-175,-146,-136
-78,-131,-53,104,-12,-92,73,58,-122,-180,-146,-136
-78,-131,-53,104,-12,-92,73,48,-126,-180,-146,-136
-82,-131,-48,107,-17,-90,73,48,-126,-180,-151,-136
-92,-131,-39,112,-26,-85,68,48,-126,-185,-151,-136
-97,-131,-34,114,-31,-82,68,43,-131,-185,-151,-136
-102,-136,-34,119,-34,-85,68,43,-131,-185,-156,-131
-102,-136,-34,119,-34,-85,68,43,-131,-185,-156,-131
-102,-136,-34,119,-34,-85,68,34,-146,-190,-156,-131
-107,-136,-29,122,-39,-82,73,34,-146,-190,-156,-136
-107,-136,-29,122,-39,-82,68,34,-146,-195,-161,-146
-112,-141,-29,126,-41,-85,68,29,-151,-200,-165,-146
-112,-141,-29,126,-41,-85,63,24,-156,-204,-175,-151
-122,-141,-19,131,-51,-80,68,14,-170,-209,-180,-151
-126,-141,-14,134,-56,-78,73,14,-180,-214,-180,-151
-131,-141,-9,136,-61,-75,87,14,-185,-224,-185,-161
-136,-146,-9,141,-63,-78,87,14,-195,-234,-190,-161
-146,-151,-4,148,-70,-78,82,9,-200,-244,-195,-165
-151,-151,0,151,-75,-75,82,0,-209,-253,-204,-161
-161,-161,0,161,-80,-80,97,-9,-229,-263,-214,-175
-165,-165,0,165,-82,-82,102,-24,-239,-273,-224,-180
-175,-165,9,170,-92,-78,97,-24,-258,-297,-234,-190
-185,-170,14,178,-100,-78,97,-24,-278,-302,-244,-195
-200,-175,24,187,-112,-75,102,-34,-297,-322,-253,-209
-209,-190,19,200,-114,-85,102,-39,-322,-341,-263,-224
-224,-200,24,212,-124,-87,92,-48,-346,-366,-287,-239
-239,-204,34,222,-136,-85,87,-58,-370,-385,-312,-248
-268,-214,53,241,-161,-80,87,-82,-405,-419,-331,-268
-292,-229,63,261,-178,-82,97,-97,-434,-444,-351,-283
-302,-239,63,270,-183,-87,102,-107,-458,-473,-375,-297
-322,-253,68,287,-195,-92,102,-117,-492,-512,-400,-317
-336,-263,73,300,-204,-95,92,-136,-541,-541,-424,-331
-346,-273,73,309,-209,-100,82,-151,-570,-570,-444,-351
-356,-283,73,319,-214,-104,97,-165,-590,-595,-468,-366
-370,-292,78,331,-224,-107,112,-185,-619,-624,-488,-385
-385,-297,87,341,-236,-104,112,-195,-653,-649,-507,-400
-395,-307,87,351,-241,-109,117,-200,-673,-663,-522,-409
-395,-307,87,351,-241,-109,117,-204,-673,-678,-541,-424
-390,-307,82,348,-236,-112,117,-204,-683,-702,-551,-434
-385,-312,73,348,-229,-119,122,-200,-688,-712,-556,-434
-380,-312,68,346,-224,-122,122,-195,-683,-712,-551,-429
-370,-307,63,339,-217,-122,107,-180,-658,-697,-546,-424
-351,-297,53,324,-202,-122,92,-170,-639,-678,-531,-409
-331,-287,43,309,-187,-122,102,-161,-605,-649,-512,-400
-302,-283,19,292,-161,-131,112,-146,-570,-624,-488,-390
-263,-263,0,263,-131,-131,102,-112,-512,-580,-458,-361
-234,-248,-14,241,-109,-131,87,-78,-439,-527,-419,-331
-204,-234,-29,219,-87,-131,68,-63,-390,-488,-390,-312
-170,-219,-48,195,-61,-134,48,-43,-336,-439,-351,-287
-136,-209,-73,173,-31,-141,53,-24,-283,-385,-307,-248
-112,-195,-82,153,-14,-139,68,-9,-229,-326,-263,-219
-87,-165,-78,126,-4,-122,73,-4,-185,-278,-234,-190
-63,-146,-82,104,9,-114,78,9,-146,-239,-204,-165
-43,-136,-92,90,24,-114,58,19,-107,-200,-175,-141
-24,-117,-92,70,34,-104,48,29,-73,-161,-146,-122
-14,-107,-92,61,39,-100,39,39,-43,-131,-126,-102
0,-97,-97,48,48,-97,29,43,-19,-97,-112,-92
4,-92,-97,43,51,-95,24,48,0,-78,-92,-82
14,-78,-92,31,53,-85,24,48,19,-58,-73,-63
9,-78,-87,34,48,-82,24,48,34,-39,-58,-58
14,-68,-82,26,48,-75,19,48,43,-24,-53,-53
19,-68,-87,24,53,-78,19,43,48,-19,-43,-48
19,-73,-92,26,56,-82,4,39,48,-4,-34,-43
24,-63,-87,19,56,-75,14,39,48,4,-24,-34
24,-58,-82,17,53,-70,24,39,53,9,-24,-29
24,-63,-87,19,56,-75,19,43,58,9,-24,-29
24,-68,-92,21,58,-80,19,43,63,9,-24,-29
19,-63,-82,21,51,-73,14,39,63,14,-19,-29
19,-63,-82,21,51,-73,9,39,63,14,-9,-24
19,-58,-78,19,48,-68,9,39,68,14,-9,-24
19,-58,-78,19,48,-68,9,39,68,9,-9,-24
19,-58,-78,19,48,-68,9,34,58,9,-19,-24
19,-58,-78,19,48,-68,9,34,53,9,-24,-24
14,-58,-73,21,43,-65,9,34,39,9,-24,-24
14,-58,-73,21,43,-65,0,34,29,4,-24,-24
14,-58,-73,21,43,-65,0,34,39,4,-24,-29
9,-63,-73,26,41,-68,0,29,43,4,-29,-29
9,-68,-78,29,43,-73,4,29,43,0,-29,-29
9,-73,-82,31,46,-78,0,29,48,-4,-29,-29
4,-73,-78,34,41,-75,0,24,48,-4,-29,-34
4,-68,-73,31,39,-70,-4,24,43,-9,-34,-34
4,-53,-58,24,31,-56,9,24,43,0,-24,-24
9,-24,-34,7,21,-29,34,29,48,14,-9,-9
14,-4,-19,-4,17,-12,48,43,63,19,-4,-4
24,9,-14,-17,19,-2,63,58,78,24,-4,-4
34,14,-19,-24,26,-2,58,73,92,29,0,0
48,19,-29,-34,39,-4,58,87,107,39,9,9
48,19,-29,-34,39,-4,58,97,112,43,14,9
48,19,-29,-34,39,-4,58,107,117,48,19,9
53,24,-29,-39,41,-2,48,102,122,48,19,9
58,34,-24,-46,41,4,29,82,117,48,24,19
63,48,-14,-56,39,17,9,68,117,53,29,34
73,63,-9,-68,41,26,-24,34,107,58,39,43
82,78,-4,-80,43,36,-78,9,92,68,48,53
92,87,-4,-90,48,41,-117,-9,87,73,53,68
117,117,0,-117,58,58,-112,-9,87,73,63,82
146,126,-19,-136,82,53,-117,-9,87,87,73,92
170,131,-39,-151,104,46,-112,-29,78,78,82,102
180,126,-53,-153,117,36,-97,-39,73,78,87,107
185,112,-73,-148,129,19,-92,-39,78,68,78,102
161,82,-78,-122,119,2,-63,-34,78,63,68,87
131,82,-48,-107,90,17,-39,-19,78,68,63,82
92,63,-29,-78,61,17,-19,-9,78,63,53,73
63,19,-43,-41,53,-12,-14,4,63,34,24,39
43,-14,-58,-14,51,-36,-19,0,43,9,-4,14
19,-58,-78,19,48,-68,-14,-4,19,-14,-29,-19
14,-73,-87,29,51,-80,-14,-4,14,-14,-39,-29
4,-82,-87,39,46,-85,-9,4,19,-14,-39,-29
4,-92,-97,43,51,-95,-9,4,19,-19,-43,-34
4,-97,-102,46,53,-100,-14,4,14,-19,-43,-39
4,-102,-107,48,56,-104,-19,0,14,-19,-48,-39
0,-107,-107,53,53,-107,-19,0,9,-24,-48,-39
0,-112,-112,56,56,-112,-14,4,9,-34,-48,-43
-4,-112,-107,58,51,-109,-9,4,9,-34,-48,-43
-4,-112,-107,58,51,-109,-4,4,9,-29,-48,-43
-4,-117,-112,61,53,-114,-4,4,9,-29,-48,-43
-4,-117,-112,61,53,-114,0,0,9,-29,-53,-43
-9,-117,-107,63,48,-112,0,0,9,-29,-53,-43
-14,-117,-102,65,43,-109,0,0,9,-29,-48,-43
-14,-117,-102,65,43,-109,9,4,14,-29,-48,-43
-14,-117,-102,65,43,-109,14,9,19,-29,-43,-43
-9,-112,-102,61,46,-107,14,9,29,-24,-43,-39
-4,-107,-102,56,48,-104,14,9,34,-24,-43,-39
-4,-107,-102,56,48,-104,9,14,34,-24,-43,-43
-4,-107,-102,56,48,-104,0,14,39,-19,-43,-43
-9,-112,-102,61,46,-107,-4,19,34,-19,-48,-43
-14,-117,-102,65,43,-109,-9,29,29,-19,-48,-43
-14,-122,-107,68,46,-114,-14,0,9,-24,-48,-48
-9,-131,-122,70,56,-126,19,4,14,-24,-53,-58
-19,-156,-136,87,58,-146,97,102,73,-24,-73,-97
0,-161,-161,80,80,-161,175,263,234,73,-43,-87
24,-131,-156,53,90,-143,283,488,517,253,48,-53
82,-112,-195,14,139,-153,458,844,844,444,136,-14
224,-78,-302,-73,263,-190,644,1220,1220,697,312,87
366,9,-356,-187,361,-173,649,1322,1464,936,507,248
512,151,-361,-331,436,-104,566,1249,1571,1127,678,409
688,448,-239,-568,463,104,346,966,1576,1322,922,673
868,976,107,-922,380,541,-307,24,1190,1415,1254,1088
1054,1420,366,-1237,344,893,-941,-732,893,1605,1644,1542
1190,1712,522,-1451,334,1117,-1317,-1054,902,1932,2025,1898
1278,2000,722,-1639,278,1361,-1629,-1366,956,2225,2347,2215
1263,2025,761,-1644,251,1393,-1625,-1356,1185,2483,2557,2366
1166,1815,649,-1490,258,1232,-1429,-1093,1346,2449,2464,2264
883,1376,492,-1129,195,934,-1137,-849,1039,1937,1932,1776
429,883,453,-656,-12,668,-736,-629,614,1298,1210,1117
-48,448,497,-200,-273,473,-326,-400,244,595,453,390
-161,170,331,-4,-246,251,-146,-244,68,204,87,58
-151,0,151,75,-151,75,-73,-117,-73,-39,-73,-58
-126,-112,14,119,-70,-48,-9,-9,-161,-170,-161,-122
-102,-126,-24,114,-39,-75,4,19,-151,-180,-165,-122
-97,-136,-39,117,-29,-87,9,-9,-156,-185,-156,-117
-97,-126,-29,112,-34,-78,34,-4,-141,-175,-151,-117
-102,-136,-34,119,-34,-85,78,14,-136,-170,-151,-122
-102,-141,-39,122,-31,-90,82,34,-136,-170,-151,-122
-92,-141,-48,117,-21,-95,82,19,-131,-170,-151,-122
-92,-146,-53,119,-19,-100,73,24,-117,-156,-146,-122
-92,-156,-63,124,-14,-109,68,39,-102,-151,-146,-122
-92,-156,-63,124,-14,-109,68,53,-97,-151,-146,-122
-92,-156,-63,124,-14,-109,68,58,-92,-151,-141,-122
-92,-151,-58,122,-17,-104,73,53,-92,-151,-141,-117
-92,-146,-53,119,-19,-100,73,53,-87,-146,-141,-117
-92,-146,-53,119,-19,-100,78,63,-87,-146,-141,-117
-92,-146,-53,119,-19,-100,78,63,-87,-146,-141,-117
-92,-146,-53,119,-19,-100,73,58,-87,-146,-141,-117
-92,-151,-58,122,-17,-104,73,58,-87,-146,-136,-117
-92,-146,-53,119,-19,-100,78,63,-87,-146,-136,-117
-92,-146,-53,119,-19,-100,82,63,-82,-146,-136,-117
-92,-141,-48,117,-21,-95,82,63,-87,-146,-136,-117
-97,-141,-43,119,-26,-92,82,58,-97,-146,-136,-117
-102,-136,-34,119,-34,-85,78,58,-97,-151,-136,-122
-107,-131,-24,119,-41,-78,73,58,-97,-151,-136,-126
-107,-131,-24,119,-41,-78,68,58,-97,-151,-141,-126
-112,-131,-19,122,-46,-75,58,58,-97,-156,-141,-126
-112,-131,-19,122,-46,-75,58,53,-97,-156,-141,-131
-112,-136,-24,124,-43,-80,58,53,-92,-156,-146,-131
-112,-136,-24,124,-43,-80,63,53,-92,-156,-146,-131
-112,-136,-24,124,-43,-80,68,43,-107,-161,-146,-131
-117,-136,-19,126,-48,-78,92,43,-107,-161,-146,-131
-117,-136,-19,126,-48,-78,107,43,-107,-165,-151,-136
-122,-141,-19,131,-51,-80,107,48,-107,-165,-151,-136
-122,-141,-19,131,-51,-80,102,53,-107,-165,-156,-141
-131,-141,-9,136,-61,-75,97,43,-117,-170,-161,-136
-136,-141,-4,139,-65,-73,92,43,-122,-175,-161,-131
-141,-146,-4,143,-68,-75,107,43,-126,-185,-161,-141
-146,-156,-9,151,-68,-82,107,43,-136,-195,-161,-141
-156,-161,-4,158,-75,-82,97,39,-146,-200,-165,-151
-161,-161,0,161,-80,-80,92,29,-161,-204,-175,-151
-170,-165,4,168,-87,-80,102,29,-175,-214,-185,-165
-175,-165,9,170,-92,-78,102,24,-180,-224,-195,-170
-185,-165,19,175,-102,-73,87,24,-195,-248,-204,-180
-195,-170,24,183,-109,-73,78,24,-209,-253,-214,-185
-209,-175,34,192,-122,-70,82,14,-224,-273,-224,-195
-219,-190,29,204,-124,-80,82,9,-244,-292,-234,-204
-234,-200,34,217,-134,-82,87,-4,-268,-312,-253,-219
-248,-204,43,226,-146,-80,97,-19,-292,-326,-273,-229
-263,-209,53,236,-158,-78,102,-39,-317,-361,-292,-248
-273,-219,53,246,-163,-82,117,-48,-336,-385,-312,-263
-283,-224,58,253,-170,-82,141,-58,-361,-405,-331,-278
-302,-234,68,268,-185,-82,161,-68,-395,-434,-351,-297
-322,-244,78,283,-200,-82,151,-87,-439,-463,-375,-312
-336,-253,82,295,-209,-85,141,-102,-463,-492,-395,-331
-346,-258,87,302,-217,-85,141,-107,-483,-517,-414,-341
-361,-263,97,312,-229,-82,141,-117,-512,-546,-429,-356
-375,-273,102,324,-239,-85,136,-126,-536,-570,-448,-370
-385,-287,97,336,-241,-95,136,-131,-546,-585,-463,-380
-395,-297,97,346,-246,-100,136,-136,-556,-600,-488,-400
-400,-307,92,353,-246,-107,136,-136,-575,-624,-502,-414
-405,-312,92,358,-248,-109,141,-141,-590,-644,-517,-419
-409,-312,97,361,-253,-107,141,-146,-595,-653,-522,-419
-405,-312,92,358,-248,-109,136,-141,-590,-649,-527,-429
-390,-307,82,348,-236,-112,131,-141,-590,-639,-522,-429
-370,-297,73,334,-222,-112,112,-131,-561,-614,-507,-419
-341,-292,48,317,-195,-122,92,-117,-531,-595,-488,-409
-307,-273,34,290,-170,-119,82,-97,-497,-566,-463,-380
-283,-258,24,270,-153,-117,68,-78,-448,-527,-429,-351
-248,-244,4,246,-126,-119,87,-68,-405,-488,-400,-331
-209,-229,-19,219,-95,-124,107,-53,-356,-439,-361,-307
-175,-209,-34,192,-70,-122,97,-34,-302,-390,-322,-268
-151,-185,-34,168,-58,-109,97,-19,-248,-336,-283,-239
-122,-165,-43,143,-39,-104,87,-9,-204,-292,-253,-214
-92,-156,-63,124,-14,-109,78,9,-165,-258,-224,-195
-68,-141,-73,104,2,-107,68,19,-126,-219,-195,-170
-43,-117,-73,80,14,-95,68,29,-92,-180,-165,-151
-34,-107,-73,70,19,-90,58,39,-58,-146,-141,-126
-19,-97,-78,58,29,-87,48,43,-29,-107,-122,-112
-14,-92,-78,53,31,-85,39,48,-14,-87,-102,-97
-4,-78,-73,41,34,-75,34,48,0,-68,-82,-73
-4,-78,-73,41,34,-75,29,48,19,-43,-63,-63
4,-68,-73,31,39,-70,19,48,34,-24,-53,-53
9,-63,-73,26,41,-68,19,48,48,-19,-43,-48
9,-63,-73,26,41,-68,4,48,58,-4,-34,-43
14,-48,-63,17,39,-56,4,48,58,9,-19,-29
14,-39,-53,12,34,-46,4,48,63,19,-14,-19
19,-39,-58,9,39,-48,0,43,58,19,-14,-19
24,-39,-63,7,43,-51,0,34,53,19,-14,-19
19,-34,-53,7,36,-43,4,29,53,24,-14,-19
19,-34,-53,7,36,-43,9,29,53,24,-9,-14
19,-34,-53,7,36,-43,9,29,58,24,-9,-19
19,-39,-58,9,39,-48,9,29,58,19,-9,-24
14,-43,-58,14,36,-51,14,24,53,19,-14,-24
9,-48,-58,19,34,-53,19,24,53,19,-14,-24
4,-48,-53,21,29,-51,19,29,53,19,-14,-24
4,-48,-53,21,29,-51,9,34,58,14,-14,-24
4,-43,-48,19,26,-46,0,34,58,14,-14,-29
0,-43,-43,21,21,-43,-9,29,53,14,-19,-29
0,-43,-43,21,21,-43,0,24,48,14,-19,-29
0,-43,-43,21,21,-43,0,19,48,14,-19,-29
-4,-48,-43,26,19,-46,0,14,48,14,-19,-34
-4,-48,-43,26,19,-46,-4,14,43,9,-24,-34
-4,-48,-43,26,19,-46,-4,24,39,4,-24,-34
0,-39,-39,19,19,-39,0,34,34,0,-24,-34
0,-29,-29,14,14,-29,14,34,43,9,-14,-24
4,0,-4,-2,4,-2,39,39,63,29,0,-4
9,9,0,-9,4,4,39,53,63,34,0,0
19,19,0,-19,9,9,43,68,68,39,0,0
29,24,-4,-26,17,9,39,78,78,43,4,4
39,29,-9,-34,24,9,39,87,87,48,9,9
43,34,-9,-39,26,12,29,97,102,63,19,9
48,39,-9,-43,29,14,19,107,117,78,29,9
48,39,-9,-43,29,14,29,97,117,78,29,14
53,48,-4,-51,29,21,24,73,112,78,34,24
58,58,0,-58,29,29,19,53,107,82,39,39
73,73,0,-73,36,36,-4,14,97,87,48,43
87,87,0,-87,43,43,-43,-4,92,92,58,53
102,97,-4,-100,53,46,-68,-19,97,92,63,68
126,126,0,-126,63,63,-78,-19,97,92,73,82
156,136,-19,-146,87,58,-97,-19,97,107,82,92
175,146,-29,-161,102,58,-117,-34,82,97,92,102
180,146,-34,-163,107,56,-126,-39,73,97,97,107
190,131,-58,-161,124,36,-122,-39,73,87,92,102
170,102,-68,-136,119,17,-92,-34,68,82,87,87
131,92,-39,-112,85,26,-58,-19,68,82,78,78
82,63,-19,-73,51,21,-29,-9,68,73,63,63
58,19,-39,-39,48,-9,-19,0,53,43,34,29
43,-14,-58,-14,51,-36,-19,-9,34,19,4,4
14,-53,-68,19,41,-61,-9,-14,14,-4,-19,-24
4,-63,-68,29,36,-65,-4,-14,14,-4,-29,-29
-4,-73,-68,39,31,-70,0,-4,19,-4,-29,-29
-4,-82,-78,43,36,-80,0,-4,19,-9,-34,-34
-4,-82,-78,43,36,-80,-4,0,14,-9,-34,-43
-4,-82,-78,43,36,-80,-9,0,14,-9,-39,-48
-9,-92,-82,51,36,-87,-19,0,14,-9,-39,-48
-9,-102,-92,56,41,-97,-24,4,19,-14,-39,-53
-9,-102,-92,56,41,-97,-9,4,19,-14,-39,-53
-4,-102,-97,53,46,-100,4,4,19,-9,-39,-53
-4,-107,-102,56,48,-104,4,4,19,-9,-39,-53
-4,-107,-102,56,48,-104,9,0,19,-9,-43,-53
-4,-107,-102,56,48,-104,9,0,19,-9,-43,-53
-4,-107,-102,56,48,-104,9,0,19,-9,-39,-53
-4,-102,-97,53,46,-100,14,0,19,-9,-39,-48
-4,-97,-92,51,43,-95,14,0,19,-9,-34,-43
-4,-97,-92,51,43,-95,14,0,24,-4,-34,-39
-4,-97,-92,51,43,-95,14,0,24,-4,-34,-39
-4,-102,-97,53,46,-100,14,4,24,-4,-34,-39
-4,-107,-102,56,48,-104,9,4,29,0,-34,-34
-4,-107,-102,56,48,-104,4,0,29,0,-34,-34
-4,-107,-102,56,48,-104,0,0,29,0,-29,-34
-4,-112,-107,58,51,-109,-14,-4,24,4,-29,-39
0,-122,-122,61,61,-122,9,24,43,14,-34,-48
-4,-141,-136,73,65,-139,107,136,117,24,-43,-82
19,-141,-161,61,90,-151,204,312,292,131,-4,-68
58,-107,-165,24,112,-136,326,551,575,317,97,-24
131,-82,-214,-24,173,-148,517,922,902,512,195,24
278,-34,-312,-122,295,-173,649,1259,1254,756,366,136
424,68,-356,-246,390,-143,600,1322,1473,985,556,307
580,229,-351,-405,466,-61,483,1185,1546,1161,741,483
766,546,-219,-656,492,163,229,839,1517,1342,1000,761
941,1068,126,-1005,407,597,-395,-87,1156,1454,1322,1166
1122,1507,385,-1315,368,946,-1000,-829,883,1664,1703,1610
1239,1756,517,-1498,361,1137,-1361,-1127,893,1952,2044,1932
1307,2000,692,-1654,307,1346,-1659,-1415,946,2205,2327,2215
1273,1976,702,-1625,285,1339,-1625,-1351,1137,2396,2469,2303
1156,1717,561,-1437,297,1139,-1400,-1034,1259,2293,2308,2137
829,1278,448,-1054,190,863,-1078,-800,956,1786,1776,1629
331,785,453,-558,-61,619,-649,-590,536,1151,1054,951
-97,390,488,-146,-292,439,-263,-375,195,502,361,292
-161,151,312,4,-236,231,-107,-234,48,165,58,29
-151,-4,146,78,-148,70,-34,-117,-82,-53,-87,-73
-126,-102,24,114,-75,-39,29,-19,-161,-161,-161,-122
-107,-112,-4,109,-51,-58,34,9,-146,-165,-161,-122
-107,-117,-9,112,-48,-63,29,-19,-146,-165,-146,-117
-107,-117,-9,112,-48,-63,29,0,-126,-151,-141,-117
-112,-136,-24,124,-43,-80,48,34,-117,-141,-141,-122
-107,-141,-34,124,-36,-87,53,53,-117,-146,-146,-126
-92,-141,-48,117,-21,-95,53,39,-112,-151,-151,-131
-92,-136,-43,114,-24,-90,68,39,-102,-141,-146,-131
-92,-136,-43,114,-24,-90,87,48,-92,-141,-146,-131
-92,-136,-43,114,-24,-90,87,58,-92,-141,-146,-131
-92,-136,-43,114,-24,-90,87,58,-92,-141,-141,-131
-92,-136,-43,114,-24,-90,82,53,-92,-141,-141,-126
-92,-136,-43,114,-24,-90,73,53,-87,-136,-141,-126
-92,-131,-39,112,-26,-85,78,63,-87,-136,-141,-126
-92,-126,-34,109,-29,-80,78,63,-87,-136,-141,-126
-92,-122,-29,107,-31,-75,78,58,-87,-136,-146,-126
-92,-122,-29,107,-31,-75,82,58,-87,-136,-146,-126
-92,-122,-29,107,-31,-75,82,63,-87,-136,-146,-126
-92,-126,-34,109,-29,-80,82,63,-82,-136,-146,-126
-92,-126,-34,109,-29,-80,82,63,-82,-136,-141,-126
-97,-131,-34,114,-31,-82,82,58,-87,-136,-136,-126
-97,-131,-34,114,-31,-82,78,58,-87,-141,-131,-126
-97,-131,-34,114,-31,-82,73,58,-87,-141,-126,-126
-97,-131,-34,114,-31,-82,73,58,-87,-141,-131,-122
-102,-131,-29,117,-36,-80,68,58,-87,-146,-131,-117
-107,-126,-19,117,-43,-73,63,58,-92,-146,-131,-122
-112,-126,-14,119,-48,-70,58,63,-92,-146,-136,-122
-112,-126,-14,119,-48,-70,58,63,-92,-146,-136,-122
-112,-126,-14,119,-48,-70,58,53,-107,-151,-136,-122
-117,-126,-9,122,-53,-68,87,48,-107,-151,-136,-122
-117,-126,-9,122,-53,-68,107,43,-107,-156,-141,-126
-117,-131,-14,124,-51,-73,97,43,-112,-161,-141,-126
-112,-131,-19,122,-46,-75,82,43,-117,-165,-146,-131
-122,-126,-4,124,-58,-65,82,29,-126,-170,-151,-136
-126,-122,4,124,-65,-58,82,24,-131,-175,-151,-141
-131,-122,9,126,-70,-56,92,24,-136,-185,-156,-151
-136,-126,9,131,-73,-58,87,24,-146,-195,-161,-151
-146,-131,14,139,-80,-58,82,24,-151,-195,-165,-161
-151,-131,19,141,-85,-56,82,19,-161,-195,-175,-161
-161,-141,19,151,-90,-61,92,14,-175,-204,-185,-175
-165,-146,19,156,-92,-63,92,4,-180,-214,-195,-180
-175,-146,29,161,-102,-58,87,4,-204,-239,-204,-190
-185,-151,34,168,-109,-58,87,4,-229,-244,-214,-195
-200,-151,48,175,-124,-51,92,-4,-244,-263,-224,-200
-209,-161,48,185,-129,-56,92,-9,-263,-283,-234,-204
-224,-170,53,197,-139,-58,97,-19,-278,-302,-248,-219
-239,-175,63,207,-151,-56,107,-29,-292,-317,-263,-229
-263,-185,78,224,-170,-53,107,-43,-317,-351,-283,-248
-283,-200,82,241,-183,-58,117,-48,-336,-375,-302,-263
-287,-204,82,246,-185,-61,122,-58,-361,-400,-326,-278
-302,-214,87,258,-195,-63,122,-68,-395,-434,-351,-297
-322,-219,102,270,-212,-58,136,-87,-439,-463,-375,-312
-336,-224,112,280,-224,-56,151,-102,-463,-492,-395,-331
-346,-234,112,290,-229,-61,146,-112,-488,-517,-419,-346
-361,-244,117,302,-239,-63,141,-126,-522,-546,-439,-366
-375,-253,122,314,-248,-65,136,-136,-546,-570,-458,-380
-385,-268,117,326,-251,-75,136,-141,-556,-585,-473,-390
-395,-273,122,334,-258,-75,136,-146,-570,-605,-497,-405
-400,-278,122,339,-261,-78,136,-146,-595,-634,-512,-414
-405,-283,122,344,-263,-80,131,-146,-605,-649,-522,-419
-409,-283,126,346,-268,-78,122,-146,-605,-653,-522,-419
-400,-283,117,341,-258,-82,122,-141,-590,-649,-522,-419
-380,-278,102,329,-241,-87,122,-141,-580,-639,-512,-409
-361,-268,92,314,-226,-87,117,-131,-556,-619,-502,-405
-331,-263,68,297,-200,-97,112,-117,-531,-605,-488,-400
-297,-244,53,270,-175,-95,102,-97,-497,-570,-463,-370
-273,-229,43,251,-158,-92,87,-78,-448,-527,-429,-341
-239,-219,19,229,-129,-100,87,-68,-405,-488,-400,-326
-200,-209,-9,204,-95,-109,87,-53,-356,-439,-361,-307
-161,-190,-29,175,-65,-109,92,-34,-302,-390,-322,-268
-131,-165,-34,148,-48,-100,107,-19,-248,-336,-283,-239
-97,-151,-53,124,-21,-102,92,-9,-204,-292,-253,-214
-63,-146,-82,104,9,-114,78,9,-165,-258,-224,-195
-43,-136,-92,90,24,-114,58,19,-126,-219,-195,-170
-24,-117,-92,70,34,-104,48,29,-92,-180,-165,-151
-14,-102,-87,58,36,-95,39,39,-63,-151,-141,-126
0,-87,-87,43,43,-87,29,43,-39,-117,-122,-112
4,-82,-87,39,46,-85,19,48,-24,-97,-102,-97
14,-68,-82,26,48,-75,14,48,-9,-78,-82,-73
14,-68,-82,26,48,-75,14,48,4,-58,-68,-63
24,-58,-82,17,53,-70,9,48,14,-43,-63,-53
29,-53,-82,12,56,-68,9,48,29,-39,-53,-48
29,-53,-82,12,56,-68,-4,48,39,-24,-43,-43
34,-48,-82,7,58,-65,-19,48,39,-14,-29,-34
34,-48,-82,7,58,-65,-34,48,43,-9,-24,-29
34,-48,-82,7,58,-65,-19,48,43,-9,-24,-29
34,-48,-82,7,58,-65,0,43,43,-9,-24,-29
29,-39,-68,4,48,-53,14,29,43,-4,-24,-29
29,-34,-63,2,46,-48,29,19,43,-4,-19,-24
34,-34,-68,0,51,-51,29,19,48,0,-19,-19
39,-39,-78,0,58,-58,29,19,48,0,-19,-14
39,-39,-78,0,58,-58,29,19,43,0,-24,-14
39,-39,-78,0,58,-58,29,24,43,0,-24,-14
34,-39,-73,2,53,-56,29,24,39,0,-24,-14
34,-39,-73,2,53,-56,19,24,39,-4,-24,-14
34,-39,-73,2,53,-56,9,29,39,-4,-19,-19
29,-43,-73,7,51,-58,0,29,34,-4,-19,-19
29,-78,-107,24,68,-92,9,39,29,0,-19,-19
29,-112,-141,41,85,-126,9,48,29,4,-19,-19
19,-73,-92,26,56,-82,9,29,29,-4,-19,-29
14,-29,-43,7,29,-36,4,14,24,-19,-24,-34
14,-19,-34,2,24,-26,4,14,24,-19,-24,-34
19,0,-19,-9,19,-9,9,14,24,-19,-24,-34
19,0,-19,-9,19,-9,19,24,29,-9,-19,-29
24,19,-4,-21,14,7,39,39,43,9,-9,-14
34,24,-9,-29,21,7,43,48,48,14,-4,0
48,29,-19,-39,34,4,48,58,58,19,0,9
58,29,-29,-43,43,0,48,78,82,29,9,9
68,29,-39,-48,53,-4,48,97,107,39,19,9
73,43,-29,-58,51,7,39,97,107,43,24,14
78,53,-24,-65,51,14,19,87,102,43,24,19
82,63,-19,-73,51,21,4,78,102,48,29,29
82,87,4,-85,39,46,-9,48,87,53,39,48
92,102,9,-97,41,56,-43,14,78,58,48,53
107,117,9,-112,48,63,-73,-4,68,63,58,63
122,126,4,-124,58,65,-97,-19,68,63,63,73
146,156,9,-151,68,82,-112,-19,68,63,73,82
175,161,-14,-168,95,73,-117,-19,68,73,82,92
190,156,-34,-173,112,61,-117,-34,53,58,87,97
180,141,-39,-161,109,51,-117,-34,43,58,78,92
170,122,-48,-146,109,36,-112,-29,43,48,58,82
141,92,-48,-117,95,21,-82,-24,39,43,48,68
112,87,-24,-100,68,31,-58,-9,39,43,39,58
78,63,-14,-70,46,24,-39,-4,39,34,24,43
58,19,-39,-39,48,-9,-29,0,24,4,-4,9
43,-14,-58,-14,51,-36,-39,-9,9,-19,-34,-14
19,-53,-73,17,46,-63,-39,-14,-4,-43,-53,-43
19,-58,-78,19,48,-68,-19,-14,-4,-43,-53,-48
14,-63,-78,24,46,-70,0,-4,0,-43,-48,-48
14,-73,-87,29,51,-80,4,-4,-4,-48,-53,-48
14,-73,-87,29,51,-80,9,-4,-14,-48,-53,-48
14,-78,-92,31,53,-85,9,-9,-14,-48,-58,-48
9,-87,-97,39,53,-92,9,-9,-14,-48,-58,-48
9,-92,-102,41,56,-97,9,0,-9,-48,-58,-53
4,-92,-97,43,51,-95,4,4,-9,-43,-58,-53
4,-97,-102,46,53,-100,0,4,-4,-39,-58,-53
4,-107,-112,51,58,-109,-4,9,0,-39,-58,-53
4,-107,-112,51,58,-109,0,9,0,-39,-63,-53
4,-107,-112,51,58,-109,0,9,0,-39,-63,-53
4,-107,-112,51,58,-109,-4,9,0,-39,-58,-53
4,-107,-112,51,58,-109,-4,9,0,-39,-58,-53
4,-107,-112,51,58,-109,-4,9,0,-39,-53,-53
4,-107,-112,51,58,-109,-4,9,4,-34,-53,-48
4,-107,-112,51,58,-109,0,4,4,-34,-53,-48
4,-107,-112,51,58,-109,4,4,4,-34,-53,-48
9,-107,-117,48,63,-112,0,4,9,-24,-48,-43
14,-107,-122,46,68,-114,0,0,9,-19,-43,-43
14,-107,-122,46,68,-114,0,19,19,-19,-39,-39
14,-112,-126,48,70,-119,0,43,34,-14,-39,-39
24,-122,-146,48,85,-134,58,92,97,14,-34,-43
29,-141,-170,56,100,-156,165,229,229,63,-24,-68
63,-141,-204,39,134,-173,287,448,444,204,34,-48
117,-102,-219,-7,168,-161,439,717,741,414,156,4
204,-63,-268,-70,236,-165,561,1034,1058,624,278,82
356,19,-336,-187,346,-158,610,1254,1376,873,473,229
502,180,-322,-341,412,-70,512,1205,1527,1102,688,439
658,414,-244,-536,451,85,307,941,1512,1278,902,663
839,780,-58,-810,448,361,-24,531,1459,1488,1205,980
1000,1273,273,-1137,363,773,-649,-307,1156,1649,1566,1400
1146,1644,497,-1395,324,1071,-1171,-912,980,1893,1937,1810
1220,1839,619,-1529,300,1229,-1415,-1102,1073,2196,2239,2069
1234,1981,746,-1607,244,1363,-1610,-1283,1127,2376,2430,2254
1132,1825,692,-1478,219,1259,-1483,-1146,1234,2410,2415,2200
936,1488,551,-1212,192,1019,-1190,-863,1195,2127,2069,1878
566,1024,458,-795,53,741,-844,-673,771,1488,1405,1268
151,570,419,-361,-134,495,-468,-488,356,858,732,658
-146,239,385,-46,-265,312,-170,-297,73,297,180,146
-151,53,204,48,-178,129,-73,-161,-19,48,-24,-29
-131,-58,73,95,-102,7,-24,-58,-117,-112,-122,-92
-107,-131,-24,119,-41,-78,39,0,-180,-195,-175,-126
-82,-126,-43,104,-19,-85,39,0,-165,-195,-170,-122
-78,-126,-48,102,-14,-87,48,-19,-165,-195,-156,-117
-78,-126,-48,102,-14,-87,68,4,-146,-180,-151,-117
-82,-146,-63,114,-9,-104,73,34,-136,-170,-151,-122
-82,-151,-68,117,-7,-109,63,53,-136,-170,-151,-122
-78,-151,-73,114,-2,-112,58,39,-131,-170,-151,-122
-82,-146,-63,114,-9,-104,58,39,-122,-161,-146,-122
-82,-146,-63,114,-9,-104,63,48,-112,-156,-146,-122
-82,-146,-63,114,-9,-104,58,58,-112,-151,-146,-122
-82,-146,-63,114,-9,-104,53,58,-112,-151,-141,-122
-82,-146,-63,114,-9,-104,53,53,-112,-151,-141,-117
-82,-141,-58,112,-12,-100,53,53,-107,-151,-141,-117
-82,-136,-53,109,-14,-95,58,63,-107,-156,-141,-117
-82,-136,-53,109,-14,-95,68,63,-107,-156,-146,-122
-82,-131,-48,107,-17,-90,73,58,-107,-156,-151,-126
-82,-131,-48,107,-17,-90,53,58,-107,-156,-146,-126
-82,-126,-43,104,-19,-85,34,63,-107,-156,-146,-126
-82,-126,-43,104,-19,-85,43,58,-107,-156,-146,-126
-82,-122,-39,102,-21,-80,53,53,-112,-156,-146,-126
-87,-117,-29,102,-29,-73,68,48,-117,-156,-146,-126
-87,-112,-24,100,-31,-68,82,48,-117,-161,-146,-126
-87,-107,-19,97,-34,-63,82,48,-122,-161,-146,-126
-87,-102,-14,95,-36,-58,82,48,-126,-161,-151,-126
-92,-102,-9,97,-41,-56,78,48,-126,-170,-151,-126
-97,-97,0,97,-48,-48,78,43,-131,-175,-151,-131
-102,-97,4,100,-53,-46,73,43,-126,-175,-156,-131
-102,-97,4,100,-53,-46,68,43,-122,-175,-156,-131
-102,-97,4,100,-53,-46,68,34,-136,-180,-156,-131
-107,-97,9,102,-58,-43,78,34,-136,-180,-156,-131
-107,-97,9,102,-58,-43,73,34,-136,-185,-161,-136
-112,-102,9,107,-61,-46,68,34,-141,-190,-161,-136
-117,-102,14,109,-65,-43,63,34,-146,-195,-165,-146
-131,-102,29,117,-80,-36,63,24,-156,-200,-170,-151
-136,-102,34,119,-85,-34,53,24,-165,-204,-175,-151
-141,-102,39,122,-90,-31,58,24,-175,-214,-185,-161
-141,-107,34,124,-87,-36,58,24,-185,-224,-190,-161
-146,-112,34,129,-90,-39,53,19,-190,-229,-195,-170
-151,-112,39,131,-95,-36,53,9,-204,-234,-204,-170
-161,-122,39,141,-100,-41,63,4,-224,-244,-214,-185
-170,-131,39,151,-104,-46,73,-14,-229,-253,-224,-190
-185,-136,48,161,-117,-43,78,-24,-248,-278,-234,-200
-195,-141,53,168,-124,-43,78,-29,-273,-287,-244,-204
-209,-146,63,178,-136,-41,82,-43,-292,-312,-253,-214
-219,-161,58,190,-139,-51,82,-48,-312,-331,-263,-224
-234,-170,63,202,-148,-53,82,-58,-336,-351,-283,-239
-244,-175,68,209,-156,-53,87,-58,-361,-366,-297,-248
-263,-185,78,224,-170,-53,87,-68,-385,-400,-312,-268
-283,-200,82,241,-183,-58,97,-78,-409,-424,-331,-283
-292,-204,87,248,-190,-58,102,-87,-439,-448,-351,-297
-317,-214,102,265,-209,-56,97,-102,-473,-483,-375,-317
-341,-224,117,283,-229,-53,92,-126,-517,-512,-405,-331
-356,-234,122,295,-239,-56,92,-141,-541,-541,-424,-351
-366,-244,122,305,-244,-61,97,-146,-561,-566,-448,-366
-375,-248,126,312,-251,-61,107,-161,-595,-595,-468,-385
-385,-253,131,319,-258,-61,112,-175,-624,-619,-488,-400
-395,-268,126,331,-261,-70,117,-180,-634,-634,-502,-409
-400,-268,131,334,-265,-68,117,-185,-644,-649,-522,-424
-400,-268,131,334,-265,-68,117,-180,-653,-673,-531,-434
-400,-273,126,336,-263,-73,122,-175,-653,-683,-541,-439
-400,-273,126,336,-263,-73,112,-175,-653,-683,-541,-439
-390,-273,117,331,-253,-78,102,-170,-639,-678,-541,-439
-366,-268,97,317,-231,-85,102,-170,-619,-663,-527,-419
-341,-258,82,300,-212,-87,92,-161,-580,-634,-507,-400
-312,-248,63,280,-187,-92,82,-146,-551,-610,-483,-390
-273,-224,48,248,-161,-87,73,-126,-512,-566,-453,-361
-244,-209,34,226,-139,-87,68,-102,-453,-517,-419,-331
-209,-195,14,202,-112,-90,73,-82,-405,-478,-390,-312
-170,-185,-14,178,-78,-100,68,-58,-356,-429,-351,-287
-136,-170,-34,153,-51,-102,58,-34,-302,-380,-312,-248
-117,-146,-29,131,-43,-87,48,-14,-239,-317,-268,-219
-92,-126,-34,109,-29,-80,34,0,-185,-263,-234,-195
-63,-112,-48,87,-7,-80,43,19,-146,-229,-204,-175
-43,-97,-53,70,4,-75,48,29,-107,-190,-175,-151
-24,-78,-53,51,14,-65,48,39,-73,-156,-151,-131
-14,-68,-53,41,19,-61,39,43,-43,-131,-131,-107
-4,-58,-53,31,24,-56,19,39,-24,-97,-112,-92
-4,-53,-48,29,21,-51,4,39,-14,-78,-92,-82
4,-39,-43,17,24,-41,14,39,0,-58,-73,-68
4,-39,-43,17,24,-41,24,39,14,-39,-58,-63
14,-29,-43,7,29,-36,19,39,24,-24,-53,-53
19,-24,-43,2,31,-34,19,39,34,-19,-43,-48
19,-24,-43,2,31,-34,-9,39,39,-4,-34,-43
24,-14,-39,-4,31,-26,-24,39,39,4,-19,-34
24,-14,-39,-4,31,-26,-9,39,43,9,-14,-29
24,-19,-43,-2,34,-31,0,39,43,9,-14,-29
24,-19,-43,-2,34,-31,4,34,43,9,-14,-29
19,-14,-34,-2,26,-24,14,29,43,14,-14,-29
19,-14,-34,-2,26,-24,19,29,43,14,-9,-24
19,-14,-34,-2,26,-24,19,29,48,19,-9,-24
19,-24,-43,2,31,-34,9,29,48,19,-9,-29
19,-29,-48,4,34,-39,0,24,43,19,-14,-34
19,-29,-48,4,34,-39,0,29,43,19,-14,-34
14,-29,-43,7,29,-36,0,34,39,19,-14,-34
9,-24,-34,7,21,-29,-19,34,39,14,-14,-29
4,-19,-24,7,14,-21,-29,34,39,14,-14,-29
0,-24,-24,12,12,-24,-9,29,34,14,-19,-29
0,-24,-24,12,12,-24,19,29,29,9,-19,-29
4,-24,-29,9,17,-26,9,29,34,4,-14,-24
4,-24,-29,9,17,-26,0,24,39,4,-9,-24
4,-19,-24,7,14,-21,-4,24,39,0,-14,-24
4,-19,-24,7,14,-21,-4,24,43,0,-14,-24
9,-9,-19,0,14,-14,9,24,43,0,-19,-24
14,14,0,-14,7,7,39,39,63,19,-9,-4
19,29,9,-24,4,19,48,43,63,34,4,-4
29,48,19,-39,4,34,58,48,68,48,19,-9
43,48,4,-46,19,26,63,68,78,48,19,0
58,48,-9,-53,34,19,68,87,87,48,19,9
63,53,-9,-58,36,21,68,97,102,53,24,9
68,53,-14,-61,41,19,48,97,112,58,24,9
73,58,-14,-65,43,21,29,97,122,63,29,14
73,78,4,-75,34,41,0,78,117,73,39,29
78,92,14,-85,31,53,-34,43,107,78,48,34
87,107,19,-97,34,63,-63,24,97,82,58,43
102,117,14,-109,43,65,-82,4,97,82,63,63
126,146,19,-136,53,82,-92,0,97,82,73,82
161,161,0,-161,80,80,-112,0,97,107,87,97
180,165,-14,-173,97,75,-126,-14,82,107,97,107
190,165,-24,-178,107,70,-131,-24,73,97,102,112
200,161,-39,-180,119,61,-131,-29,73,78,97,112
170,131,-39,-151,104,46,-102,-29,68,73,87,97
141,126,-14,-134,78,56,-78,-19,68,73,78,87
102,102,0,-102,51,51,-58,-9,68,63,63,68
78,58,-19,-68,48,19,-48,0,53,34,34,29
58,19,-39,-39,48,-9,-39,-9,29,9,0,4
29,-24,-53,-2,41,-39,-19,-14,4,-14,-24,-24
24,-34,-58,4,41,-46,-14,-19,4,-14,-29,-34
14,-43,-58,14,36,-51,-9,-14,9,-14,-29,-39
14,-53,-68,19,41,-61,0,-14,9,-19,-34,-43
14,-53,-68,19,41,-61,9,-14,4,-19,-34,-48
14,-53,-68,19,41,-61,-4,-14,4,-19,-39,-48
9,-58,-68,24,39,-63,-19,-9,4,-19,-39,-48
4,-68,-73,31,39,-70,-14,0,9,-24,-39,-53
-4,-73,-68,39,31,-70,-14,4,9,-24,-39,-53
-4,-73,-68,39,31,-70,-14,4,9,-19,-39,-48
-4,-78,-73,41,34,-75,-14,9,9,-19,-39,-43
-4,-78,-73,41,34,-75,-19,9,9,-19,-43,-43
-4,-78,-73,41,34,-75,-29,9,9,-19,-43,-43
-4,-78,-73,41,34,-75,-29,4,9,-19,-39,-43
-4,-78,-73,41,34,-75,-24,0,9,-19,-39,-43
-4,-78,-73,41,34,-75,4,0,9,-19,-34,-48
-4,-78,-73,41,34,-75,34,0,14,-14,-34,-48
0,-78,-78,39,39,-78,24,0,14,-14,-34,-48
4,-78,-82,36,43,-80,14,4,14,-14,-34,-48
4,-78,-82,36,43,-80,0,14,19,-9,-34,-43
4,-78,-82,36,43,-80,-9,19,19,-9,-34,-43
0,-78,-78,39,39,-78,-9,0,14,-9,-29,-39
-4,-82,-78,43,36,-80,-9,-14,14,-4,-29,-39
-4,-92,-87,48,41,-90,4,-19,-4,-24,-48,-48
-9,-112,-102,61,46,-107,68,63,43,-24,-63,-78
0,-126,-126,63,63,-126,131,209,195,63,-34,-78
29,-102,-131,36,80,-117,224,405,429,219,58,-43
87,-102,-190,7,139,-146,463,849,775,405,126,-29
209,-58,-268,-75,239,-163,629,1195,1122,629,268,53
356,14,-341,-185,348,-163,649,1342,1410,873,458,209
512,161,-351,-336,431,-95,561,1273,1532,1063,649,380
697,468,-229,-583,463,119,346,966,1527,1244,873,624
863,902,39,-883,412,470,-161,229,1273,1376,1156,971
1068,1376,307,-1222,380,841,-858,-614,907,1561,1571,1468
1200,1673,473,-1437,363,1073,-1278,-1044,810,1805,1917,1815
1312,2034,722,-1673,295,1378,-1664,-1434,897,2176,2318,2205
1307,2098,790,-1703,258,1444,-1727,-1507,1039,2400,2513,2357
1263,1864,600,-1564,331,1232,-1507,-1156,1268,2400,2449,2274
1044,1503,458,-1273,292,980,-1234,-897,1112,2044,2069,1903
444,941,497,-692,-26,719,-751,-678,614,1317,1229,1122
-39,502,541,-231,-290,522,-346,-453,248,658,512,439
-112,239,351,-63,-231,295,-185,-287,92,278,180,141
-161,48,209,56,-185,129,-73,-156,-68,-14,-43,-43
-136,-58,78,97,-107,9,9,-53,-156,-136,-131,-102
-112,-87,24,100,-68,-31,29,-9,-165,-175,-161,-122
-102,-87,14,95,-58,-36,19,-39,-165,-175,-146,-117
-97,-87,9,92,-53,-39,19,-24,-146,-161,-141,-117
-102,-107,-4,104,-48,-56,48,19,-131,-151,-141,-122
-102,-112,-9,107,-46,-61,63,53,-126,-151,-141,-122
-87,-112,-24,100,-31,-68,53,39,-122,-151,-141,-122
-82,-107,-24,95,-29,-65,48,39,-112,-141,-136,-122
-82,-107,-24,95,-29,-65,58,48,-102,-141,-136,-122
-82,-107,-24,95,-29,-65,58,58,-102,-141,-136,-122
-82,-107,-24,95,-29,-65,53,58,-102,-141,-131,-122
-82,-107,-24,95,-29,-65,53,53,-102,-141,-131,-117
-82,-107,-24,95,-29,-65,53,53,-97,-136,-131,-117
-82,-107,-24,95,-29,-65,58,63,-97,-136,-131,-117
-82,-107,-24,95,-29,-65,68,63,-97,-136,-131,-117
-82,-102,-19,92,-31,-61,73,58,-97,-136,-131,-117
-82,-107,-24,95,-29,-65,73,58,-97,-136,-126,-117
-82,-107,-24,95,-29,-65,73,63,-97,-136,-126,-117
-82,-107,-24,95,-29,-65,73,63,-92,-136,-126,-117
-82,-102,-19,92,-31,-61,73,63,-92,-136,-126,-117
-87,-102,-14,95,-36,-58,63,58,-92,-131,-126,-117
-87,-102,-14,95,-36,-58,53,58,-87,-131,-126,-117
-87,-102,-14,95,-36,-58,53,53,-87,-131,-126,-117
-87,-102,-14,95,-36,-58,53,48,-87,-131,-131,-117
-92,-107,-14,100,-39,-61,63,48,-92,-141,-131,-117
-97,-107,-9,102,-43,-58,78,43,-102,-146,-131,-122
-107,-107,0,107,-53,-53,78,48,-102,-146,-136,-122
-112,-107,4,109,-58,-51,78,53,-102,-146,-136,-122
-112,-102,9,107,-61,-46,58,43,-117,-151,-136,-117
-117,-97,19,107,-68,-39,48,43,-117,-151,-136,-112
-112,-97,14,104,-63,-41,73,34,-117,-151,-141,-117
-112,-102,9,107,-61,-46,97,24,-122,-151,-141,-117
-112,-102,9,107,-61,-46,92,24,-126,-156,-146,-122
-122,-102,19,112,-70,-41,92,14,-136,-161,-151,-122
-126,-107,19,117,-73,-43,73,29,-131,-161,-146,-122
-131,-112,19,122,-75,-46,68,43,-126,-165,-146,-131
-136,-117,19,126,-78,-48,78,43,-136,-175,-151,-131
-146,-122,24,134,-85,-48,82,39,-141,-180,-156,-141
-151,-117,34,134,-92,-41,82,29,-151,-185,-161,-136
-161,-122,39,141,-100,-41,92,24,-165,-195,-165,-146
-165,-126,39,146,-102,-43,87,14,-170,-200,-175,-151
-175,-126,48,151,-112,-39,78,14,-190,-219,-185,-161
-185,-131,53,158,-119,-39,78,14,-204,-224,-195,-170
-200,-136,63,168,-131,-36,82,4,-214,-244,-204,-185
-209,-151,58,180,-134,-46,87,0,-234,-263,-214,-195
-224,-161,63,192,-143,-48,92,-9,-258,-283,-234,-209
-239,-165,73,202,-156,-46,97,-19,-283,-297,-253,-219
-263,-175,87,219,-175,-43,97,-39,-307,-331,-273,-239
-283,-190,92,236,-187,-48,107,-48,-331,-356,-292,-253
-292,-195,97,244,-195,-48,112,-58,-361,-380,-312,-268
-312,-204,107,258,-209,-48,112,-68,-395,-414,-331,-283
-331,-214,117,273,-224,-48,112,-87,-439,-444,-356,-292
-346,-224,122,285,-234,-51,117,-102,-458,-473,-375,-312
-356,-234,122,295,-239,-56,126,-107,-473,-497,-400,-326
-370,-244,126,307,-248,-58,136,-122,-502,-527,-419,-346
-385,-253,131,319,-258,-61,141,-136,-527,-551,-439,-361
-395,-268,126,331,-261,-70,146,-141,-541,-566,-458,-375
-400,-268,131,334,-265,-68,146,-146,-556,-580,-483,-395
-400,-268,131,334,-265,-68,146,-141,-575,-605,-492,-405
-400,-273,126,336,-263,-73,151,-136,-585,-614,-502,-409
-405,-273,131,339,-268,-70,146,-136,-590,-624,-502,-409
-400,-273,126,336,-263,-73,141,-131,-580,-629,-502,-409
-385,-273,112,329,-248,-80,141,-136,-580,-624,-502,-405
-370,-268,102,319,-236,-82,131,-131,-561,-605,-497,-400
-346,-263,82,305,-214,-90,122,-122,-536,-595,-478,-395
-312,-244,68,278,-190,-87,112,-107,-502,-566,-453,-370
-283,-229,53,256,-168,-87,97,-87,-448,-517,-424,-341
-248,-214,34,231,-141,-90,92,-73,-405,-478,-400,-322
-204,-204,0,204,-102,-102,78,-53,-361,-434,-361,-297
-165,-190,-24,178,-70,-107,58,-34,-312,-390,-322,-258
-141,-165,-24,153,-58,-95,53,-19,-258,-336,-283,-229
-112,-146,-34,129,-39,-90,43,-9,-214,-292,-253,-204
-82,-131,-48,107,-17,-90,39,9,-170,-258,-224,-185
-63,-117,-53,90,-4,-85,29,19,-126,-219,-195,-161
-34,-97,-63,65,14,-80,29,29,-92,-180,-165,-141
-14,-87,-73,51,29,-80,19,34,-63,-151,-141,-117
0,-78,-78,39,39,-78,29,34,-39,-112,-117,-97
4,-73,-78,34,41,-75,43,39,-24,-87,-92,-82
14,-58,-73,21,43,-65,53,39,-4,-63,-73,-63
14,-58,-73,21,43,-65,63,39,14,-39,-58,-53
24,-48,-73,12,48,-61,43,39,24,-24,-53,-43
29,-43,-73,7,51,-58,29,39,34,-19,-43,-39
29,-43,-73,7,51,-58,14,43,43,-4,-34,-34
34,-34,-68,0,51,-51,14,48,48,4,-19,-24
34,-29,-63,-2,48,-46,9,48,53,9,-9,-19
34,-29,-63,-2,48,-46,0,48,53,9,-4,-19
39,-29,-68,-4,53,-48,-9,43,48,9,-4,-19
39,-24,-63,-7,51,-43,-14,39,43,14,-4,-19
39,-24,-63,-7,51,-43,-9,34,43,14,-4,-14
39,-24,-63,-7,51,-43,-9,29,48,19,-9,-14
39,-29,-68,-4,53,-48,-9,29,48,14,-9,-14
