I,II,III,aVR,aVL,aVF,V1,V2,V3,V4,V5,V6,
-19,-78,-58,48,19,-68,-107,-165,-48,-39,-126,-48
-19,-78,-58,48,19,-68,-107,-165,-48,-39,-126,-48
-19,-78,-58,48,19,-68,-107,-165,-48,-39,-126,-48
-19,-78,-58,48,19,-68,-107,-165,-48,-39,-126,-48
-9,-68,-58,39,24,-63,-97,-165,-58,-39,-126,-48
-9,-68,-58,39,24,-63,-97,-165,-58,-39,-126,-48
-9,-68,-58,39,24,-63,-97,-165,-58,-39,-126,-48
-9,-68,-58,39,24,-63,-97,-165,-58,-39,-126,-48
-9,-68,-58,39,24,-63,-87,-156,-48,-39,-126,-48
-9,-68,-58,39,24,-63,-87,-156,-48,-39,-126,-48
-9,-68,-58,39,24,-63,-87,-156,-48,-39,-126,-48
-9,-68,-58,39,24,-63,-87,-156,-48,-39,-126,-48
-9,-78,-68,43,29,-73,-97,-156,-58,-39,-126,-48
-9,-78,-68,43,29,-73,-97,-156,-58,-39,-126,-48
-9,-78,-68,43,29,-73,-97,-156,-58,-39,-126,-48
-9,-78,-68,43,29,-73,-97,-156,-58,-39,-126,-48
-19,-87,-68,53,24,-78,-87,-156,-68,-29,-117,-48
-19,-87,-68,53,24,-78,-87,-156,-68,-29,-117,-48
-19,-87,-68,53,24,-78,-87,-156,-68,-29,-117,-48
-19,-87,-68,53,24,-78,-87,-156,-68,-29,-117,-48
-19,-87,-68,53,24,-78,-97,-156,-68,-39,-117,-48
-19,-87,-68,53,24,-78,-97,-156,-68,-39,-117,-48
-19,-87,-68,53,24,-78,-97,-156,-68,-39,-117,-48
-19,-87,-68,53,24,-78,-97,-156,-68,-39,-117,-48
-9,-78,-68,43,29,-73,-87,-156,-68,-29,-107,-39
-9,-78,-68,43,29,-73,-87,-156,-68,-29,-107,-39
-9,-78,-68,43,29,-73,-87,-156,-68,-29,-107,-39
-9,-78,-68,43,29,-73,-87,-156,-68,-29,-107,-39
-9,-87,-78,48,34,-82,-97,-156,-68,-39,-117,-39
-9,-87,-78,48,34,-82,-97,-156,-68,-39,-117,-39
-9,-87,-78,48,34,-82,-97,-156,-68,-39,-117,-39
-9,-87,-78,48,34,-82,-97,-156,-68,-39,-117,-39
-14,-97,-82,56,34,-90,-97,-165,-78,-39,-117,-48
-19,-97,-78,58,29,-87,-97,-165,-78,-39,-117,-48
-24,-97,-73,61,24,-85,-97,-165,-78,-39,-117,-48
-29,-97,-68,63,19,-82,-97,-165,-78,-39,-117,-48
-24,-87,-63,56,19,-75,-97,-156,-68,-39,-112,-43
-19,-87,-68,53,24,-78,-97,-156,-68,-39,-107,-39
-14,-87,-73,51,29,-80,-97,-156,-68,-39,-102,-34
-9,-87,-78,48,34,-82,-97,-156,-68,-39,-97,-29
-9,-87,-78,48,34,-82,-87,-156,-68,-39,-97,-39
-9,-87,-78,48,34,-82,-87,-156,-68,-39,-97,-39
-9,-87,-78,48,34,-82,-87,-156,-68,-39,-97,-39
-9,-87,-78,48,34,-82,-87,-156,-68,-39,-97,-39
-9,-87,-78,48,34,-82,-87,-156,-78,-39,-97,-39
-9,-87,-78,48,34,-82,-87,-156,-78,-39,-97,-39
-9,-87,-78,48,34,-82,-87,-156,-78,-39,-97,-39
-9,-87,-78,48,34,-82,-87,-156,-78,-39,-97,-39
0,-87,-87,43,43,-87,-87,-156,-78,-39,-97,-48
0,-87,-87,43,43,-87,-87,-156,-78,-39,-97,-48
0,-87,-87,43,43,-87,-87,-156,-78,-39,-97,-48
0,-87,-87,43,43,-87,-87,-156,-78,-39,-97,-48
0,-87,-87,43,43,-87,-97,-156,-78,-29,-97,-39
0,-87,-87,43,43,-87,-97,-156,-78,-29,-97,-39
0,-87,-87,43,43,-87,-97,-156,-78,-29,-97,-39
0,-87,-87,43,43,-87,-97,-156,-78,-29,-97,-39
-9,-87,-78,48,34,-82,-97,-156,-87,-29,-87,-39
-9,-87,-78,48,34,-82,-97,-156,-87,-29,-87,-39
-9,-87,-78,48,34,-82,-97,-156,-87,-29,-87,-39
-9,-87,-78,48,34,-82,-97,-156,-87,-29,-87,-39
0,-78,-78,39,39,-78,-97,-156,-87,-29,-87,-39
0,-78,-78,39,39,-78,-97,-156,-87,-29,-87,-39
0,-78,-78,39,39,-78,-97,-156,-87,-29,-87,-39
0,-78,-78,39,39,-78,-97,-156,-87,-29,-87,-39
-9,-68,-58,39,24,-63,-87,-146,-78,-19,-78,-29
-9,-68,-58,39,24,-63,-87,-146,-78,-19,-78,-29
-9,-68,-58,39,24,-63,-87,-146,-78,-19,-78,-29
-9,-68,-58,39,24,-63,-87,-146,-78,-19,-78,-29
0,-63,-63,31,31,-63,-78,-146,-68,-9,-68,-19
0,-58,-58,29,29,-58,-78,-146,-68,-9,-68,-19
0,-53,-53,26,26,-53,-78,-146,-68,-9,-68,-19
0,-48,-48,24,24,-48,-78,-146,-68,-9,-68,-19
9,-34,-43,12,26,-39,-63,-141,-63,0,-63,-14
9,-29,-39,9,24,-34,-58,-136,-58,0,-58,-9
9,-24,-34,7,21,-29,-53,-131,-53,0,-53,-4
9,-19,-29,4,19,-24,-48,-126,-48,0,-48,0
4,-29,-34,12,19,-31,-43,-117,-39,9,-48,0
0,-29,-29,14,14,-29,-39,-117,-39,9,-48,0
-4,-29,-24,17,9,-26,-34,-117,-39,9,-48,0
-9,-29,-19,19,4,-24,-29,-117,-39,9,-48,0
-9,-29,-19,19,4,-24,-39,-126,-39,9,-48,0
-9,-29,-19,19,4,-24,-39,-126,-39,9,-48,0
-9,-29,-19,19,4,-24,-39,-126,-39,9,-48,0
-9,-29,-19,19,4,-24,-39,-126,-39,9,-48,0
-4,-24,-19,14,7,-21,-53,-136,-39,9,-48,0
0,-19,-19,9,9,-19,-58,-136,-39,9,-48,0
4,-14,-19,4,12,-17,-63,-136,-39,9,-48,0
9,-9,-19,0,14,-14,-68,-136,-39,9,-48,0
9,-24,-34,7,21,-29,-78,-141,-43,4,-48,0
9,-29,-39,9,24,-34,-87,-146,-48,0,-48,0
9,-39,-48,14,29,-43,-102,-156,-63,-9,-53,0
14,-48,-63,17,39,-56,-112,-165,-73,-14,-58,-4
14,-43,-58,14,36,-51,-112,-161,-78,-14,-63,-14
14,-43,-58,14,36,-51,-117,-161,-78,-14,-68,-19
9,-43,-53,17,31,-48,-122,-165,-78,-14,-68,-24
9,-53,-63,21,36,-58,-126,-165,-78,-19,-68,-24
4,-58,-63,26,34,-61,-131,-180,-87,-34,-78,-24
4,-63,-68,29,36,-65,-136,-185,-97,-39,-92,-29
4,-73,-78,34,41,-75,-151,-195,-117,-43,-97,-34
4,-78,-82,36,43,-80,-156,-204,-131,-48,-97,-34
-4,-82,-78,43,36,-80,-156,-214,-126,-63,-102,-48
-4,-82,-78,43,36,-80,-156,-214,-131,-63,-102,-48
0,-82,-82,41,41,-82,-161,-209,-131,-68,-107,-48
4,-73,-78,34,41,-75,-161,-204,-131,-68,-112,-43
14,-68,-82,26,48,-75,-161,-214,-136,-68,-102,-48
14,-63,-78,24,46,-70,-161,-209,-131,-63,-97,-48
24,-58,-82,17,53,-70,-161,-209,-131,-58,-97,-48
34,-53,-87,9,61,-70,-165,-214,-131,-58,-97,-48
29,-58,-87,14,58,-73,-165,-204,-122,-58,-82,-34
29,-58,-87,14,58,-73,-175,-204,-122,-58,-82,-34
34,-68,-102,17,68,-85,-180,-219,-131,-58,-87,-39
34,-68,-102,17,68,-85,-185,-224,-141,-73,-102,-39
39,-58,-97,9,68,-78,-190,-229,-151,-82,-102,-48
39,-58,-97,9,68,-78,-195,-239,-151,-82,-102,-53
34,-58,-92,12,63,-75,-195,-248,-156,-87,-112,-58
29,-58,-87,14,58,-73,-195,-248,-161,-87,-112,-58
19,-58,-78,19,48,-68,-175,-239,-151,-82,-97,-48
9,-58,-68,24,39,-63,-175,-234,-146,-73,-87,-43
4,-58,-63,26,34,-61,-165,-224,-141,-63,-82,-34
0,-48,-48,24,24,-48,-156,-224,-131,-53,-73,-34
9,-48,-58,19,34,-53,-141,-214,-122,-43,-73,-19
4,-48,-53,21,29,-51,-136,-204,-112,-34,-63,-19
0,-53,-53,26,26,-53,-126,-200,-112,-29,-63,-19
0,-53,-53,26,26,-53,-126,-195,-112,-29,-68,-24
-9,-63,-53,36,21,-58,-122,-195,-126,-39,-73,-24
-14,-78,-63,46,24,-70,-122,-195,-126,-43,-73,-24
-14,-97,-82,56,34,-90,-117,-190,-131,-43,-78,-39
-19,-107,-87,63,34,-97,-112,-190,-131,-48,-82,-39
-24,-112,-87,68,31,-100,-117,-195,-141,-53,-87,-48
-24,-112,-87,68,31,-100,-112,-195,-141,-58,-92,-53
-24,-112,-87,68,31,-100,-112,-195,-141,-63,-97,-53
-19,-112,-92,65,36,-102,-112,-195,-136,-58,-102,-48
-9,-107,-97,58,43,-102,-107,-185,-136,-58,-92,-53
-9,-107,-97,58,43,-102,-107,-185,-141,-58,-92,-53
-14,-112,-97,63,41,-104,-112,-190,-146,-63,-102,-58
-14,-107,-92,61,39,-100,-117,-190,-146,-63,-102,-68
-19,-102,-82,61,31,-92,-107,-190,-136,-73,-92,-68
-19,-102,-82,61,31,-92,-107,-190,-136,-73,-92,-68
-14,-102,-87,58,36,-95,-107,-190,-141,-68,-97,-68
-9,-97,-87,53,39,-92,-107,-190,-141,-68,-102,-68
-9,-97,-87,53,39,-92,-107,-200,-151,-78,-102,-68
-14,-102,-87,58,36,-95,-107,-200,-151,-78,-97,-63
-19,-107,-87,63,34,-97,-107,-200,-151,-73,-92,-63
-19,-107,-87,63,34,-97,-107,-200,-151,-73,-92,-68
-19,-107,-87,63,34,-97,-107,-190,-151,-73,-92,-68
-19,-107,-87,63,34,-97,-107,-190,-146,-68,-92,-68
-14,-102,-87,58,36,-95,-107,-185,-146,-63,-92,-63
-14,-102,-87,58,36,-95,-107,-185,-146,-53,-92,-63
-14,-102,-87,58,36,-95,-112,-190,-136,-53,-87,-53
-14,-107,-92,61,39,-100,-112,-190,-136,-53,-82,-58
-14,-107,-92,61,39,-100,-112,-190,-136,-53,-78,-63
-14,-102,-87,58,36,-95,-117,-190,-141,-53,-73,-63
-14,-92,-78,53,31,-85,-107,-190,-151,-63,-82,-68
-14,-92,-78,53,31,-85,-107,-185,-146,-58,-78,-68
-14,-92,-78,53,31,-85,-107,-185,-146,-58,-78,-63
-14,-92,-78,53,31,-85,-107,-185,-146,-53,-78,-63
-14,-97,-82,56,34,-90,-107,-185,-146,-53,-78,-63
-14,-97,-82,56,34,-90,-107,-185,-141,-53,-73,-63
-14,-92,-78,53,31,-85,-107,-180,-141,-58,-73,-63
-14,-92,-78,53,31,-85,-107,-180,-141,-58,-73,-63
-14,-107,-92,61,39,-100,-107,-180,-141,-58,-73,-63
-19,-97,-78,58,29,-87,-107,-190,-141,-63,-78,-63
-9,-97,-87,53,39,-92,-102,-180,-151,-63,-78,-63
-9,-102,-92,56,41,-97,-92,-180,-151,-63,-78,-68
0,-117,-117,58,58,-117,-82,-180,-156,-68,-87,-78
0,-136,-136,68,68,-136,-82,-195,-165,-82,-112,-97
-19,-146,-126,82,53,-136,-78,-204,-175,-112,-131,-117
-29,-156,-126,92,48,-141,-63,-214,-190,-126,-151,-126
-29,-165,-136,97,53,-151,-39,-234,-209,-151,-175,-146
-43,-175,-131,109,43,-153,-9,-224,-214,-156,-185,-170
-58,-195,-136,126,39,-165,24,-209,-229,-170,-200,-190
-58,-204,-146,131,43,-175,39,-200,-229,-175,-209,-204
-43,-190,-146,117,51,-168,39,-195,-229,-175,-214,-195
-43,-180,-136,112,46,-158,39,-204,-219,-170,-209,-185
-29,-161,-131,95,51,-146,24,-214,-209,-165,-190,-170
-4,-117,-112,61,53,-114,-4,-219,-190,-117,-126,-112
14,-58,-73,21,43,-65,-24,-214,-136,-39,-58,-24
14,-24,-39,4,26,-31,-14,-185,-82,24,19,43
29,19,-9,-24,19,4,-9,-141,-34,82,92,112
53,92,39,-73,7,65,-9,-112,24,170,175,204
87,204,117,-146,-14,161,-19,-48,141,302,312,336
126,361,234,-244,-53,297,4,97,312,478,502,522
170,551,380,-361,-104,466,43,273,522,692,722,736
209,746,536,-478,-163,641,92,424,727,917,956,961
244,917,673,-580,-214,795,122,561,912,1127,1176,1171
273,1102,829,-688,-278,966,156,697,1102,1317,1390,1376
322,1268,946,-795,-312,1107,170,834,1298,1522,1600,1586
346,1429,1083,-888,-368,1256,185,966,1468,1717,1795,1776
351,1600,1249,-976,-448,1424,209,1112,1668,1922,2020,1995
351,1786,1434,-1068,-541,1610,253,1307,1908,2161,2274,2225
307,1893,1586,-1100,-639,1739,361,1581,2142,2381,2493,2420
248,1878,1629,-1063,-690,1754,527,1878,2322,2488,2601,2503
214,1761,1546,-988,-666,1654,668,2147,2396,2488,2581,2469
200,1590,1390,-895,-595,1490,761,2337,2337,2366,2444,2322
175,1400,1224,-788,-524,1312,814,2454,2235,2200,2254,2127
156,1239,1083,-697,-463,1161,883,2537,2166,2049,2078,1937
117,1093,976,-605,-429,1034,927,2547,2113,1908,1903,1737
78,946,868,-512,-395,907,961,2464,2010,1722,1688,1507
29,800,771,-414,-370,785,990,2293,1883,1551,1478,1288
-24,658,683,-317,-353,671,1000,1971,1688,1327,1224,1058
-92,497,590,-202,-341,544,990,1556,1366,1000,868,751
-146,302,448,-78,-297,375,990,1195,971,639,517,409
-165,117,283,24,-224,200,1024,985,678,380,273,190
-185,-29,156,107,-170,63,1063,868,488,224,126,68
-209,-146,63,178,-136,-41,1102,810,346,112,19,-34
-219,-219,0,219,-109,-109,1171,819,283,34,-48,-102
-209,-258,-48,234,-80,-153,1234,839,278,24,-58,-131
-219,-283,-63,251,-78,-173,1288,814,273,9,-73,-146
-239,-297,-58,268,-90,-178,1327,746,239,-24,-102,-170
-258,-317,-58,287,-100,-187,1381,688,190,-48,-131,-204
-263,-341,-78,302,-92,-209,1449,639,170,-68,-146,-214
-278,-361,-82,319,-97,-222,1507,590,136,-92,-170,-229
-297,-380,-82,339,-107,-231,1551,507,78,-131,-209,-263
-312,-390,-78,351,-117,-234,1551,375,24,-165,-229,-292
-331,-400,-68,366,-131,-234,1537,239,-24,-195,-248,-302
-351,-419,-68,385,-141,-244,1551,141,-73,-229,-283,-331
-366,-429,-63,397,-151,-246,1581,48,-126,-263,-302,-341
-370,-444,-73,407,-148,-258,1581,-29,-161,-292,-322,-351
-370,-434,-63,402,-153,-248,1537,-87,-190,-307,-331,-370
-346,-419,-73,383,-136,-246,1488,-107,-190,-297,-322,-351
-326,-400,-73,363,-126,-236,1468,-78,-170,-273,-297,-322
-312,-380,-68,346,-122,-224,1424,-58,-156,-263,-283,-307
-297,-361,-63,329,-117,-212,1361,-68,-165,-258,-268,-292
-287,-336,-48,312,-119,-192,1288,-78,-165,-248,-253,-273
-263,-307,-43,285,-109,-175,1249,-58,-141,-224,-224,-239
-244,-273,-29,258,-107,-151,1180,-39,-112,-190,-190,-204
-219,-258,-39,239,-90,-148,1093,-34,-97,-175,-175,-190
-195,-239,-43,217,-75,-141,961,-39,-107,-161,-161,-190
-180,-214,-34,197,-73,-124,829,-48,-112,-151,-146,-175
-156,-209,-53,183,-51,-131,717,-58,-122,-151,-136,-161
-126,-204,-78,165,-24,-141,614,-58,-131,-151,-126,-146
-97,-195,-97,146,0,-146,512,-68,-141,-151,-122,-151
-87,-175,-87,131,0,-131,419,-73,-141,-146,-112,-131
-87,-175,-87,131,0,-131,341,-73,-146,-146,-112,-126
-63,-165,-102,114,19,-134,273,-78,-156,-141,-112,-126
-48,-165,-117,107,34,-141,214,-78,-156,-151,-117,-122
-43,-161,-117,102,36,-139,151,-73,-151,-141,-102,-112
-24,-151,-126,87,51,-139,97,-68,-151,-131,-92,-112
-9,-141,-131,75,61,-136,63,-68,-151,-131,-87,-102
-9,-151,-141,80,65,-146,48,-68,-161,-122,-87,-102
-19,-151,-131,85,56,-141,34,-73,-165,-126,-87,-107
-19,-156,-136,87,58,-146,24,-73,-170,-126,-82,-107
-14,-156,-141,85,63,-148,14,-73,-170,-126,-82,-107
0,-141,-141,70,70,-141,4,-73,-161,-126,-73,-97
0,-141,-141,70,70,-141,-4,-73,-165,-126,-73,-97
4,-141,-146,68,75,-143,-14,-78,-165,-131,-78,-102
4,-146,-151,70,78,-148,-29,-78,-165,-131,-78,-102
0,-136,-136,68,68,-136,-29,-78,-161,-131,-78,-112
0,-141,-141,70,70,-141,-43,-78,-161,-136,-82,-117
0,-146,-146,73,73,-146,-48,-82,-161,-141,-82,-117
0,-146,-146,73,73,-146,-48,-82,-165,-141,-82,-122
-4,-141,-136,73,65,-139,-43,-78,-175,-131,-82,-122
0,-141,-141,70,70,-141,-48,-78,-175,-131,-82,-117
0,-141,-141,70,70,-141,-48,-78,-175,-131,-82,-117
0,-136,-136,68,68,-136,-53,-78,-175,-146,-82,-112
0,-122,-122,61,61,-122,-53,-68,-180,-136,-78,-102
4,-122,-126,58,65,-124,-58,-68,-180,-136,-73,-102
9,-122,-131,56,70,-126,-58,-68,-180,-136,-68,-102
14,-122,-136,53,75,-129,-63,-68,-180,-136,-63,-102
9,-122,-131,56,70,-126,-68,-73,-185,-141,-68,-112
9,-126,-136,58,73,-131,-68,-73,-185,-146,-73,-107
9,-131,-141,61,75,-136,-68,-73,-185,-151,-73,-112
9,-131,-141,61,75,-136,-68,-73,-185,-151,-78,-117
0,-141,-141,70,70,-141,-78,-82,-200,-161,-82,-112
0,-141,-141,70,70,-141,-78,-82,-200,-165,-92,-117
0,-141,-141,70,70,-141,-78,-78,-200,-165,-92,-117
0,-141,-141,70,70,-141,-78,-78,-200,-165,-97,-122
4,-141,-146,68,75,-143,-78,-68,-204,-161,-92,-117
9,-136,-146,63,78,-141,-78,-68,-209,-156,-87,-117
9,-136,-146,63,78,-141,-78,-68,-209,-151,-82,-112
9,-136,-146,63,78,-141,-78,-68,-209,-141,-73,-112
4,-151,-156,73,80,-153,-82,-68,-200,-151,-82,-126
4,-151,-156,73,80,-153,-82,-68,-200,-151,-92,-136
4,-151,-156,73,80,-153,-82,-63,-204,-161,-92,-141
4,-156,-161,75,82,-158,-82,-63,-204,-161,-87,-141
14,-156,-170,70,92,-163,-78,-53,-204,-161,-78,-146
9,-156,-165,73,87,-161,-78,-53,-204,-161,-82,-146
9,-156,-165,73,87,-161,-87,-48,-209,-161,-82,-146
14,-156,-170,70,92,-163,-87,-48,-209,-165,-87,-146
24,-156,-180,65,102,-168,-78,-48,-214,-165,-87,-136
24,-156,-180,65,102,-168,-78,-48,-214,-165,-87,-146
24,-156,-180,65,102,-168,-78,-43,-214,-161,-87,-146
24,-156,-180,65,102,-168,-78,-43,-214,-161,-92,-151
14,-175,-190,80,102,-183,-82,-39,-219,-161,-82,-151
9,-185,-195,87,102,-190,-82,-39,-224,-161,-87,-151
4,-185,-190,90,97,-187,-82,-39,-224,-156,-87,-151
0,-185,-185,92,92,-185,-82,-34,-229,-146,-87,-151
4,-170,-175,82,90,-173,-82,-29,-229,-156,-87,-151
9,-170,-180,80,95,-175,-87,-29,-229,-156,-92,-156
9,-165,-175,78,92,-170,-87,-24,-229,-156,-92,-156
9,-165,-175,78,92,-170,-87,-19,-229,-156,-92,-156
19,-165,-185,73,102,-175,-87,-14,-229,-161,-102,-161
19,-165,-185,73,102,-175,-92,-9,-234,-161,-97,-161
19,-165,-185,73,102,-175,-92,-4,-239,-161,-97,-156
14,-165,-180,75,97,-173,-92,0,-239,-161,-97,-156
14,-170,-185,78,100,-178,-92,0,-239,-165,-87,-151
14,-170,-185,78,100,-178,-92,4,-239,-161,-87,-151
19,-170,-190,75,104,-180,-92,9,-239,-156,-87,-161
24,-165,-190,70,107,-178,-92,19,-239,-156,-97,-161
24,-156,-180,65,102,-168,-92,34,-244,-156,-97,-161
24,-161,-185,68,104,-173,-92,39,-244,-156,-97,-165
29,-161,-190,65,109,-175,-92,48,-248,-161,-102,-165
29,-161,-190,65,109,-175,-87,58,-248,-161,-102,-165
39,-161,-200,61,119,-180,-87,73,-244,-165,-102,-165
43,-161,-204,58,124,-183,-92,73,-244,-161,-102,-165
43,-161,-204,58,124,-183,-97,87,-244,-161,-102,-165
48,-165,-214,58,131,-190,-97,97,-244,-165,-102,-170
48,-161,-209,56,129,-185,-97,107,-253,-165,-102,-170
48,-161,-209,56,129,-185,-97,117,-253,-165,-107,-170
53,-156,-209,51,131,-183,-102,126,-253,-165,-107,-170
53,-156,-209,51,131,-183,-102,141,-248,-165,-107,-165
48,-156,-204,53,126,-180,-102,146,-248,-165,-107,-165
53,-156,-209,51,131,-183,-102,161,-248,-165,-112,-170
63,-151,-214,43,139,-183,-107,180,-248,-161,-112,-170
68,-151,-219,41,143,-185,-107,195,-248,-161,-112,-170
68,-151,-219,41,143,-185,-107,214,-248,-161,-107,-170
68,-151,-219,41,143,-185,-107,229,-248,-156,-107,-170
73,-151,-224,39,148,-187,-107,248,-248,-156,-107,-170
78,-141,-219,31,148,-180,-107,263,-248,-156,-107,-170
73,-141,-214,34,143,-178,-107,292,-239,-156,-102,-170
78,-136,-214,29,146,-175,-107,312,-239,-151,-102,-170
82,-136,-219,26,151,-178,-107,326,-229,-151,-97,-165
87,-141,-229,26,158,-185,-107,346,-229,-151,-97,-165
102,-136,-239,17,170,-187,-122,356,-234,-151,-97,-165
107,-136,-244,14,175,-190,-122,370,-234,-146,-97,-165
112,-126,-239,7,175,-183,-126,385,-229,-146,-97,-165
112,-122,-234,4,173,-178,-126,409,-224,-136,-97,-165
126,-107,-234,-9,180,-170,-126,434,-219,-141,-97,-161
131,-107,-239,-12,185,-173,-131,444,-214,-136,-92,-161
131,-107,-239,-12,185,-173,-136,458,-209,-131,-92,-161
141,-107,-248,-17,195,-178,-136,473,-209,-131,-87,-146
136,-87,-224,-24,180,-156,-141,502,-209,-117,-73,-141
141,-82,-224,-29,183,-153,-141,512,-209,-117,-73,-136
141,-78,-219,-31,180,-148,-146,522,-209,-117,-73,-136
151,-73,-224,-39,187,-148,-146,536,-200,-122,-73,-136
156,-73,-229,-41,192,-151,-136,541,-195,-112,-73,-122
161,-68,-229,-46,195,-148,-146,551,-195,-102,-68,-122
165,-63,-229,-51,197,-146,-146,566,-195,-97,-68,-117
170,-53,-224,-58,197,-139,-156,570,-185,-97,-58,-117
165,-39,-204,-63,185,-122,-156,566,-180,-82,-48,-107
165,-34,-200,-65,183,-117,-156,566,-180,-78,-39,-102
165,-29,-195,-68,180,-112,-156,566,-175,-73,-34,-87
170,-19,-190,-75,180,-104,-161,566,-170,-73,-24,-82
180,-14,-195,-82,187,-104,-170,556,-165,-63,-19,-73
180,-4,-185,-87,183,-95,-170,556,-161,-53,-14,-58
185,4,-180,-95,183,-87,-180,546,-156,-48,-9,-53
185,19,-165,-102,175,-73,-185,531,-156,-43,-4,-53
180,19,-161,-100,170,-70,-180,517,-156,-34,9,-53
180,29,-151,-104,165,-61,-180,502,-146,-29,19,-43
180,34,-146,-107,163,-56,-185,483,-146,-24,19,-39
180,43,-136,-112,158,-46,-185,463,-146,-14,29,-24
180,53,-126,-117,153,-36,-185,434,-146,0,34,-24
175,63,-112,-119,143,-24,-185,409,-136,9,43,-9
175,68,-107,-122,141,-19,-185,390,-136,19,53,-4
175,82,-92,-129,134,-4,-185,366,-136,24,58,0
175,82,-92,-129,134,-4,-185,346,-126,24,63,9
170,82,-87,-126,129,-2,-180,322,-122,29,73,19
165,82,-82,-124,124,0,-175,302,-112,29,78,29
165,92,-73,-129,119,9,-175,283,-107,29,78,34
156,92,-63,-124,109,14,-165,253,-112,39,87,29
151,92,-58,-122,104,17,-156,234,-107,43,87,29
146,92,-53,-119,100,19,-146,219,-102,48,92,29
141,82,-58,-112,100,12,-141,195,-102,53,92,29
131,73,-58,-102,95,7,-126,175,-107,68,97,34
122,73,-48,-97,85,12,-122,161,-102,68,97,39
112,78,-34,-95,73,21,-112,141,-97,68,97,39
102,78,-24,-90,63,26,-107,122,-97,63,102,34
102,78,-24,-90,63,26,-102,97,-92,73,107,34
92,63,-29,-78,61,17,-92,82,-87,73,107,39
92,58,-34,-75,63,12,-92,68,-87,78,107,43
92,58,-34,-75,63,12,-87,63,-87,78,102,43
92,63,-29,-78,61,17,-73,48,-92,68,102,34
82,63,-19,-73,51,21,-63,39,-92,73,112,34
78,53,-24,-65,51,14,-58,34,-82,78,122,39
78,48,-29,-63,53,9,-58,24,-82,78,112,39
68,43,-24,-56,46,9,-63,19,-73,87,112,39
68,39,-29,-53,48,4,-63,14,-73,87,112,39
68,34,-34,-51,51,0,-58,4,-73,87,107,34
63,34,-29,-48,46,2,-53,-4,-78,82,107,29
68,34,-34,-51,51,0,-48,-9,-78,73,112,24
63,29,-34,-46,48,-2,-48,-19,-78,73,112,24
58,24,-34,-41,46,-4,-48,-24,-82,73,107,24
58,19,-39,-39,48,-9,-48,-34,-87,73,92,14
53,14,-39,-34,46,-12,-53,-34,-82,73,102,9
53,9,-43,-31,48,-17,-53,-39,-82,73,102,9
53,9,-43,-31,48,-17,-53,-43,-78,63,102,14
53,9,-43,-31,48,-17,-58,-53,-78,63,102,14
34,4,-29,-19,31,-12,-48,-58,-87,73,92,14
34,4,-29,-19,31,-12,-48,-58,-92,73,92,14
34,4,-29,-19,31,-12,-48,-58,-92,73,92,4
34,0,-34,-17,34,-17,-48,-63,-97,73,92,0
39,-4,-43,-17,41,-24,-58,-78,-107,63,82,-4
39,-4,-43,-17,41,-24,-58,-82,-107,63,82,-4
34,-4,-39,-14,36,-21,-58,-82,-102,68,82,-4
34,0,-34,-17,34,-17,-58,-87,-102,68,87,-4
24,-9,-34,-7,29,-21,-48,-97,-102,68,82,0
29,-14,-43,-7,36,-29,-48,-97,-102,68,82,0
34,-14,-48,-9,41,-31,-48,-97,-102,68,82,-4
34,-24,-58,-4,46,-41,-53,-97,-102,68,78,-14
34,-19,-53,-7,43,-36,-43,-87,-102,73,78,-4
34,-14,-48,-9,41,-31,-39,-92,-102,78,82,-4
34,-4,-39,-14,36,-21,-39,-92,-102,82,82,-4
24,0,-24,-12,24,-12,-39,-87,-102,87,87,-4
24,-9,-34,-7,29,-21,-48,-78,-107,87,87,-9
24,-9,-34,-7,29,-21,-48,-82,-107,92,92,-4
24,-9,-34,-7,29,-21,-48,-82,-112,92,97,-4
24,-9,-34,-7,29,-21,-48,-82,-112,92,97,-4
24,-19,-43,-2,34,-31,-48,-82,-102,92,87,-4
24,-19,-43,-2,34,-31,-48,-82,-97,97,87,-4
29,-19,-48,-4,39,-34,-48,-82,-97,97,87,-9
29,-19,-48,-4,39,-34,-43,-78,-102,92,87,-9
14,-24,-39,4,26,-31,-43,-87,-112,92,92,-9
14,-24,-39,4,26,-31,-43,-87,-107,102,92,-9
14,-29,-43,7,29,-36,-39,-87,-107,102,97,-4
14,-29,-43,7,29,-36,-34,-82,-107,102,102,0
24,-19,-43,-2,34,-31,-29,-73,-97,112,102,0
24,-19,-43,-2,34,-31,-29,-73,-97,112,102,0
24,-19,-43,-2,34,-31,-29,-73,-97,112,97,0
24,-19,-43,-2,34,-31,-29,-73,-97,112,97,0
24,-19,-43,-2,34,-31,-29,-73,-107,122,107,4
19,-19,-39,0,29,-29,-24,-73,-107,117,107,4
19,-19,-39,0,29,-29,-24,-73,-102,112,107,4
19,-19,-39,0,29,-29,-24,-68,-102,112,112,4
29,-9,-39,-9,34,-24,-24,-63,-102,122,112,4
29,-9,-39,-9,34,-24,-24,-63,-102,122,112,4
29,-9,-39,-9,34,-24,-29,-63,-102,122,112,4
29,-14,-43,-7,36,-29,-29,-63,-102,117,112,4
24,-24,-48,0,36,-36,-24,-68,-102,117,107,4
24,-19,-43,-2,34,-31,-19,-68,-97,117,107,4
24,-19,-43,-2,34,-31,-14,-58,-97,117,107,4
19,-24,-43,2,31,-34,-14,-58,-97,117,107,4
9,-24,-34,7,21,-29,-14,-53,-97,122,102,4
9,-24,-34,7,21,-29,-14,-53,-97,122,102,0
9,-19,-29,4,19,-24,-14,-53,-97,117,97,0
9,-19,-29,4,19,-24,-14,-48,-92,117,97,0
19,-19,-39,0,29,-29,-4,-43,-92,117,97,0
19,-24,-43,2,31,-34,-9,-43,-87,107,97,4
19,-24,-43,2,31,-34,-9,-43,-87,107,97,4
19,-24,-43,2,31,-34,-4,-43,-87,102,97,0
29,-24,-53,-2,41,-39,-4,-43,-87,112,107,-9
29,-24,-53,-2,41,-39,-4,-39,-82,117,107,-9
29,-24,-53,-2,41,-39,0,-29,-82,117,112,-4
34,-19,-53,-7,43,-36,0,-29,-87,117,112,-4
24,-29,-53,2,39,-41,0,-39,-78,122,117,0
24,-29,-53,2,39,-41,0,-39,-78,112,112,0
24,-29,-53,2,39,-41,0,-34,-78,107,112,0
24,-29,-53,2,39,-41,0,-34,-78,107,112,0
34,-29,-63,-2,48,-46,0,-24,-78,102,102,-4
34,-29,-63,-2,48,-46,0,-24,-78,102,107,-4
34,-29,-63,-2,48,-46,0,-24,-78,102,107,-4
34,-29,-63,-2,48,-46,0,-19,-82,102,107,-4
24,-29,-53,2,39,-41,0,-19,-92,102,107,-4
24,-34,-58,4,41,-46,4,-19,-92,97,107,-4
24,-39,-63,7,43,-51,4,-19,-92,97,107,-4
24,-39,-63,7,43,-51,4,-19,-92,97,107,-4
24,-29,-53,2,39,-41,4,-29,-97,97,107,-4
24,-24,-48,0,36,-36,9,-24,-97,97,107,-9
24,-24,-48,0,36,-36,9,-24,-97,92,107,-9
24,-29,-53,2,39,-41,4,-29,-97,87,102,-9
19,-39,-58,9,39,-48,-4,-19,-97,87,92,-9
19,-43,-63,12,41,-53,-4,-24,-97,87,92,-9
19,-43,-63,12,41,-53,-4,-24,-97,87,102,-9
19,-43,-63,12,41,-53,-4,-24,-97,87,102,-9
14,-43,-58,14,36,-51,4,-24,-87,97,112,0
14,-39,-53,12,34,-46,0,-24,-87,97,112,-4
19,-34,-53,7,36,-43,0,-19,-87,97,107,-4
19,-24,-43,2,31,-34,0,-19,-87,92,102,0
29,-24,-53,-2,41,-39,0,-34,-82,102,112,9
24,-24,-48,0,36,-36,0,-34,-82,102,112,9
24,-24,-48,0,36,-36,0,-34,-82,107,107,9
29,-24,-53,-2,41,-39,0,-34,-82,107,107,9
29,-24,-53,-2,41,-39,0,-34,-92,107,112,4
29,-24,-53,-2,41,-39,-4,-39,-92,112,112,4
29,-24,-53,-2,41,-39,-4,-43,-97,112,107,4
29,-24,-53,-2,41,-39,-4,-48,-97,112,107,4
29,-24,-53,-2,41,-39,-14,-39,-97,102,107,4
29,-24,-53,-2,41,-39,-14,-39,-97,107,107,0
29,-24,-53,-2,41,-39,-19,-43,-97,107,107,0
29,-19,-48,-4,39,-34,-19,-43,-97,102,107,0
29,-19,-48,-4,39,-34,-19,-53,-107,102,102,0
29,-19,-48,-4,39,-34,-19,-53,-107,97,102,0
29,-19,-48,-4,39,-34,-24,-58,-107,92,97,0
29,-19,-48,-4,39,-34,-24,-58,-107,87,92,0
19,-19,-39,0,29,-29,-24,-58,-107,87,97,-4
14,-19,-34,2,24,-26,-24,-68,-112,87,97,-4
14,-19,-34,2,24,-26,-29,-68,-117,78,97,-4
19,-19,-39,0,29,-29,-29,-68,-117,78,102,-4
29,-14,-43,-7,36,-29,-19,-58,-112,82,102,-14
29,-14,-43,-7,36,-29,-24,-58,-112,87,107,-9
29,-19,-48,-4,39,-34,-24,-68,-112,87,107,-9
29,-19,-48,-4,39,-34,-24,-68,-117,82,107,-9
29,-9,-39,-9,34,-24,-24,-78,-126,82,107,-9
29,-9,-39,-9,34,-24,-24,-78,-122,82,102,-9
29,-9,-39,-9,34,-24,-29,-78,-122,82,102,-14
29,-9,-39,-9,34,-24,-29,-87,-126,82,97,-24
19,-14,-34,-2,26,-24,-39,-92,-131,78,92,-19
19,-19,-39,0,29,-29,-39,-92,-136,73,92,-19
19,-24,-43,2,31,-34,-43,-97,-136,73,92,-19
19,-29,-48,4,34,-39,-43,-97,-136,73,92,-19
19,-19,-39,0,29,-29,-34,-97,-131,63,87,-19
19,-19,-39,0,29,-29,-34,-97,-131,63,87,-14
19,-24,-43,2,31,-34,-39,-102,-131,63,87,-14
19,-24,-43,2,31,-34,-39,-102,-126,63,92,-14
19,-24,-43,2,31,-34,-48,-102,-126,63,102,-24
19,-24,-43,2,31,-34,-43,-102,-126,68,102,-24
19,-24,-43,2,31,-34,-43,-107,-136,68,97,-24
19,-24,-43,2,31,-34,-43,-107,-136,63,97,-24
9,-24,-34,7,21,-29,-43,-107,-136,63,107,-24
9,-24,-34,7,21,-29,-48,-107,-131,63,107,-24
9,-24,-34,7,21,-29,-53,-112,-131,68,107,-19
9,-24,-34,7,21,-29,-53,-112,-136,68,107,-19
19,-14,-34,-2,26,-24,-53,-117,-136,63,97,-24
19,-14,-34,-2,26,-24,-53,-117,-136,58,97,-24
19,-14,-34,-2,26,-24,-53,-117,-136,53,92,-29
19,-14,-34,-2,26,-24,-53,-122,-136,48,92,-29
9,-24,-34,7,21,-29,-53,-122,-136,48,92,-29
9,-24,-34,7,21,-29,-53,-122,-136,43,87,-29
9,-29,-39,9,24,-34,-58,-126,-136,43,87,-29
9,-29,-39,9,24,-34,-58,-126,-141,43,87,-29
19,-14,-34,-2,26,-24,-53,-136,-141,34,97,-29
19,-14,-34,-2,26,-24,-53,-141,-141,39,97,-24
19,-14,-34,-2,26,-24,-53,-141,-141,39,97,-24
14,-19,-34,2,24,-26,-58,-141,-146,34,97,-24
14,-19,-34,2,24,-26,-58,-136,-146,43,107,-19
14,-24,-39,4,26,-31,-58,-136,-146,43,107,-19
14,-24,-39,4,26,-31,-58,-136,-146,43,102,-19
14,-29,-43,7,29,-36,-58,-136,-141,48,102,-19
9,-19,-29,4,19,-24,-58,-136,-151,39,97,-29
9,-19,-29,4,19,-24,-58,-136,-151,34,92,-29
9,-24,-34,7,21,-29,-63,-136,-151,29,87,-29
9,-24,-34,7,21,-29,-68,-136,-151,24,82,-29
9,-14,-24,2,17,-19,-68,-151,-151,29,92,-34
9,-19,-29,4,19,-24,-63,-151,-151,29,87,-39
0,-19,-19,9,9,-19,-63,-156,-151,34,87,-39
0,-19,-19,9,9,-19,-63,-156,-151,39,87,-34
14,-19,-34,2,24,-26,-53,-146,-151,39,102,-34
19,-14,-34,-2,26,-24,-53,-146,-156,43,102,-29
19,-9,-29,-4,24,-19,-58,-146,-156,43,102,-29
19,-9,-29,-4,24,-19,-58,-151,-151,48,102,-29
19,-14,-34,-2,26,-24,-58,-151,-151,39,92,-19
19,-14,-34,-2,26,-24,-58,-151,-156,39,92,-24
19,-14,-34,-2,26,-24,-58,-151,-156,39,87,-24
19,-14,-34,-2,26,-24,-58,-151,-156,39,87,-24
19,-14,-34,-2,26,-24,-68,-161,-161,29,87,-29
19,-14,-34,-2,26,-24,-68,-161,-161,34,87,-29
19,-14,-34,-2,26,-24,-68,-161,-161,34,87,-29
19,-14,-34,-2,26,-24,-68,-161,-161,34,92,-29
9,-14,-24,2,17,-19,-53,-151,-151,43,92,-19
19,-14,-34,-2,26,-24,-63,-161,-161,34,92,-29
9,-24,-34,7,21,-29,-68,-170,-161,39,92,-34
0,-34,-34,17,17,-34,-68,-156,-161,39,97,-24
0,-39,-39,19,19,-39,-68,-156,-156,39,97,-29
9,-34,-43,12,26,-39,-78,-165,-156,39,87,-29
9,-29,-39,9,24,-34,-78,-165,-156,39,87,-29
9,-24,-34,7,21,-29,-78,-165,-156,39,87,-29
9,-19,-29,4,19,-24,-78,-165,-156,39,87,-29
9,-19,-29,4,19,-24,-78,-165,-156,39,87,-19
9,-19,-29,4,19,-24,-78,-165,-156,39,87,-19
9,-19,-29,4,19,-24,-78,-165,-156,39,87,-19
9,-19,-29,4,19,-24,-78,-165,-156,39,87,-19
19,-9,-29,-4,24,-19,-78,-165,-156,48,92,-9
19,-9,-29,-4,24,-19,-78,-165,-156,48,97,-9
19,-9,-29,-4,24,-19,-78,-165,-156,48,102,-9
19,-9,-29,-4,24,-19,-78,-165,-156,48,107,-9
19,-19,-39,0,29,-29,-78,-175,-156,43,102,-14
19,-19,-39,0,29,-29,-78,-175,-156,39,97,-19
19,-19,-39,0,29,-29,-78,-175,-156,34,92,-24
19,-19,-39,0,29,-29,-78,-175,-156,29,87,-29
9,-9,-19,0,14,-14,-78,-175,-156,39,87,-29
9,-9,-19,0,14,-14,-78,-175,-156,39,87,-29
9,-9,-19,0,14,-14,-78,-175,-156,39,87,-29
9,-9,-19,0,14,-14,-78,-175,-156,39,87,-29
9,-9,-19,0,14,-14,-78,-175,-156,48,92,-24
9,-9,-19,0,14,-14,-78,-175,-156,48,97,-19
9,-9,-19,0,14,-14,-78,-175,-156,48,102,-14
9,-9,-19,0,14,-14,-78,-175,-156,48,107,-9
19,-9,-29,-4,24,-19,-78,-175,-156,39,102,-24
19,-9,-29,-4,24,-19,-78,-175,-156,39,97,-29
19,-9,-29,-4,24,-19,-78,-175,-156,39,92,-34
19,-9,-29,-4,24,-19,-78,-175,-156,39,87,-39
9,-9,-19,0,14,-14,-78,-175,-156,39,87,-29
9,-9,-19,0,14,-14,-78,-175,-156,39,87,-29
9,-9,-19,0,14,-14,-78,-175,-156,39,87,-29
9,-9,-19,0,14,-14,-78,-175,-156,39,87,-29
19,0,-19,-9,19,-9,-87,-185,-165,39,87,-19
19,0,-19,-9,19,-9,-87,-185,-165,39,87,-19
19,0,-19,-9,19,-9,-87,-185,-165,39,87,-19
19,0,-19,-9,19,-9,-87,-185,-165,39,87,-19
9,0,-9,-4,9,-4,-87,-185,-156,48,97,-19
9,0,-9,-4,9,-4,-87,-185,-156,48,97,-19
9,0,-9,-4,9,-4,-87,-185,-156,48,97,-19
9,0,-9,-4,9,-4,-87,-185,-156,48,97,-19
19,-9,-29,-4,24,-19,-87,-175,-165,39,92,-29
19,-9,-29,-4,24,-19,-87,-175,-165,39,87,-29
19,-9,-29,-4,24,-19,-87,-175,-165,39,82,-29
19,-9,-29,-4,24,-19,-87,-175,-165,39,78,-29
9,0,-9,-4,9,-4,-87,-185,-156,43,92,-19
9,0,-9,-4,9,-4,-87,-185,-156,48,97,-19
9,0,-9,-4,9,-4,-87,-185,-156,53,102,-19
9,0,-9,-4,9,-4,-87,-185,-156,58,107,-19
9,-9,-19,0,14,-14,-87,-185,-156,68,117,-9
9,-9,-19,0,14,-14,-87,-185,-156,68,117,-9
9,-9,-19,0,14,-14,-87,-185,-156,68,117,-9
9,-9,-19,0,14,-14,-87,-185,-156,68,117,-9
9,-19,-29,4,19,-24,-87,-185,-156,58,117,0
9,-19,-29,4,19,-24,-87,-185,-156,58,117,0
9,-19,-29,4,19,-24,-87,-185,-156,58,117,0
9,-19,-29,4,19,-24,-87,-185,-156,58,117,0
9,-9,-19,0,14,-14,-87,-185,-156,68,122,9
9,-9,-19,0,14,-14,-87,-185,-156,68,126,9
9,-9,-19,0,14,-14,-87,-185,-156,68,131,9
9,-9,-19,0,14,-14,-87,-185,-156,68,136,9
9,-19,-29,4,19,-24,-87,-185,-156,58,131,4
9,-19,-29,4,19,-24,-87,-185,-156,58,126,0
9,-19,-29,4,19,-24,-87,-185,-156,58,122,-4
9,-19,-29,4,19,-24,-87,-185,-156,58,117,-9
9,-19,-29,4,19,-24,-87,-175,-146,58,117,-9
9,-19,-29,4,19,-24,-87,-175,-146,58,117,-9
9,-19,-29,4,19,-24,-87,-175,-146,58,117,-9
9,-19,-29,4,19,-24,-87,-175,-146,58,117,-9
9,-19,-29,4,19,-24,-87,-185,-156,48,112,-14
9,-19,-29,4,19,-24,-87,-185,-156,48,107,-19
9,-19,-29,4,19,-24,-87,-185,-156,48,102,-24
9,-19,-29,4,19,-24,-87,-185,-156,48,97,-29
0,-19,-19,9,9,-19,-87,-195,-165,39,97,-29
0,-19,-19,9,9,-19,-87,-195,-165,39,97,-29
0,-19,-19,9,9,-19,-87,-195,-165,39,97,-29
0,-19,-19,9,9,-19,-87,-195,-165,39,97,-29
0,-29,-29,14,14,-29,-87,-185,-156,48,107,-19
0,-29,-29,14,14,-29,-87,-185,-156,48,107,-19
0,-29,-29,14,14,-29,-87,-185,-156,48,107,-19
0,-29,-29,14,14,-29,-87,-185,-156,48,107,-19
0,-19,-19,9,9,-19,-87,-185,-146,48,107,-19
0,-19,-19,9,9,-19,-87,-185,-146,48,107,-19
0,-19,-19,9,9,-19,-87,-185,-146,48,107,-19
0,-19,-19,9,9,-19,-87,-185,-146,48,107,-19
9,-19,-29,4,19,-24,-97,-195,-156,48,107,-9
9,-19,-29,4,19,-24,-97,-195,-156,48,107,-9
9,-19,-29,4,19,-24,-97,-195,-156,48,107,-9
9,-19,-29,4,19,-24,-97,-195,-156,48,107,-9
9,-14,-24,2,17,-19,-87,-195,-156,48,107,-19
9,-9,-19,0,14,-14,-87,-195,-156,48,107,-19
9,-4,-14,-2,12,-9,-87,-195,-156,48,107,-19
9,0,-9,-4,9,-4,-87,-195,-156,48,107,-19
0,0,0,0,0,0,-97,-185,-146,58,112,-14
0,0,0,0,0,0,-97,-185,-146,58,117,-9
0,0,0,0,0,0,-97,-185,-146,58,122,-4
0,0,0,0,0,0,-97,-185,-146,58,126,0
0,0,0,0,0,0,-97,-185,-146,68,136,9
0,0,0,0,0,0,-97,-185,-146,68,136,9
0,0,0,0,0,0,-97,-185,-146,68,136,9
0,0,0,0,0,0,-97,-185,-146,68,136,9
9,-9,-19,0,14,-14,-87,-185,-156,53,122,4
9,-9,-19,0,14,-14,-87,-185,-156,48,117,0
9,-9,-19,0,14,-14,-87,-185,-156,43,112,-4
9,-9,-19,0,14,-14,-87,-185,-156,39,107,-9
9,-9,-19,0,14,-14,-87,-185,-156,29,102,-14
9,-9,-19,0,14,-14,-87,-185,-156,29,97,-19
9,-9,-19,0,14,-14,-87,-185,-156,29,92,-24
9,-9,-19,0,14,-14,-87,-185,-156,29,87,-29
9,0,-9,-4,9,-4,-87,-175,-146,39,92,-24
9,0,-9,-4,9,-4,-87,-175,-146,39,97,-19
9,0,-9,-4,9,-4,-87,-175,-146,39,102,-14
9,0,-9,-4,9,-4,-87,-175,-146,39,107,-9
9,-9,-19,0,14,-14,-87,-185,-156,39,97,-19
9,-9,-19,0,14,-14,-87,-185,-156,39,97,-19
9,-9,-19,0,14,-14,-87,-185,-156,39,97,-19
9,-9,-19,0,14,-14,-87,-185,-156,39,97,-19
0,-19,-19,9,9,-19,-87,-175,-146,48,107,-9
0,-19,-19,9,9,-19,-87,-175,-146,48,107,-9
0,-19,-19,9,9,-19,-87,-175,-146,48,107,-9
0,-19,-19,9,9,-19,-87,-175,-146,48,107,-9
-9,-19,-9,14,0,-14,-97,-175,-136,39,107,0
-9,-19,-9,14,0,-14,-97,-175,-136,39,107,0
-9,-19,-9,14,0,-14,-97,-175,-136,39,107,0
-9,-19,-9,14,0,-14,-97,-175,-136,39,107,0
0,-9,-9,4,4,-9,-87,-165,-136,29,97,-9
0,-9,-9,4,4,-9,-87,-165,-136,29,97,-9
0,-9,-9,4,4,-9,-87,-165,-136,29,97,-9
0,-9,-9,4,4,-9,-87,-165,-136,29,97,-9
0,-9,-9,4,4,-9,-97,-175,-136,39,107,0
0,-9,-9,4,4,-9,-97,-175,-136,39,107,0
0,-9,-9,4,4,-9,-97,-175,-136,39,107,0
0,-9,-9,4,4,-9,-97,-175,-136,39,107,0
0,-9,-9,4,4,-9,-97,-175,-126,48,112,9
0,-9,-9,4,4,-9,-97,-175,-126,48,117,9
0,-9,-9,4,4,-9,-97,-175,-126,48,122,9
0,-9,-9,4,4,-9,-97,-175,-126,48,126,9
0,-19,-19,9,9,-19,-97,-175,-131,43,112,0
0,-19,-19,9,9,-19,-97,-175,-136,39,107,0
0,-19,-19,9,9,-19,-97,-175,-141,34,102,0
0,-19,-19,9,9,-19,-97,-175,-146,29,97,0
0,-9,-9,4,4,-9,-97,-175,-146,24,92,-9
0,-9,-9,4,4,-9,-97,-175,-146,19,87,-9
0,-9,-9,4,4,-9,-97,-175,-146,14,82,-9
0,-9,-9,4,4,-9,-97,-175,-146,9,78,-9
9,0,-9,-4,9,-4,-97,-175,-136,19,87,-9
9,0,-9,-4,9,-4,-97,-175,-136,19,87,-9
9,0,-9,-4,9,-4,-97,-175,-136,19,87,-9
9,0,-9,-4,9,-4,-97,-175,-136,19,87,-9
9,0,-9,-4,9,-4,-107,-175,-126,24,102,-4
9,0,-9,-4,9,-4,-107,-175,-126,29,107,0
9,0,-9,-4,9,-4,-107,-175,-126,34,112,4
9,0,-9,-4,9,-4,-107,-175,-126,39,117,9
0,0,0,0,0,0,-97,-165,-126,34,112,0
0,0,0,0,0,0,-97,-165,-126,29,107,0
0,0,0,0,0,0,-97,-165,-126,24,102,0
0,0,0,0,0,0,-97,-165,-126,19,97,0
9,9,0,-9,4,4,-87,-165,-117,29,102,14
9,9,0,-9,4,4,-87,-165,-117,29,107,19
9,9,0,-9,4,4,-87,-165,-117,29,112,24
9,9,0,-9,4,4,-87,-165,-117,29,117,29
9,19,9,-14,0,14,-82,-165,-112,34,126,39
9,19,9,-14,0,14,-78,-165,-107,39,126,39
9,19,9,-14,0,14,-73,-165,-102,43,126,39
9,19,9,-14,0,14,-68,-165,-97,48,126,39
9,24,14,-17,-2,19,-63,-161,-92,53,141,43
9,29,19,-19,-4,24,-58,-156,-87,58,146,48
9,34,24,-21,-7,29,-53,-151,-82,63,151,53
9,39,29,-24,-9,34,-48,-146,-78,68,156,58
9,43,34,-26,-12,39,-43,-136,-68,63,141,48
9,48,39,-29,-14,43,-39,-136,-68,58,136,48
9,53,43,-31,-17,48,-34,-136,-68,53,131,48
9,58,48,-34,-19,53,-29,-136,-68,48,126,48
9,68,58,-39,-24,63,-34,-136,-68,58,136,48
9,68,58,-39,-24,63,-39,-136,-68,58,136,48
9,68,58,-39,-24,63,-43,-136,-68,58,136,48
9,68,58,-39,-24,63,-48,-136,-68,58,136,48
19,58,39,-39,-9,48,-68,-141,-78,48,126,48
19,58,39,-39,-9,48,-78,-146,-78,48,126,48
19,58,39,-39,-9,48,-87,-151,-78,48,126,48
19,58,39,-39,-9,48,-97,-156,-78,48,126,48
19,48,29,-34,-4,39,-107,-170,-97,34,112,43
24,39,14,-31,4,26,-112,-175,-102,34,107,34
24,29,4,-26,9,17,-117,-180,-107,34,102,29
24,24,0,-24,12,12,-126,-180,-107,34,97,19
19,34,14,-26,2,24,-131,-185,-107,34,102,19
19,24,4,-21,7,14,-136,-185,-107,29,107,24
14,19,4,-17,4,12,-141,-190,-112,24,102,19
14,14,0,-14,7,7,-146,-195,-117,19,92,19
4,4,0,-4,2,2,-161,-204,-122,14,87,14
4,0,-4,-2,4,-2,-165,-214,-131,9,87,14
4,-4,-9,0,7,-7,-165,-224,-136,4,87,9
4,-4,-9,0,7,-7,-165,-224,-141,4,92,9
9,-14,-24,2,17,-19,-170,-229,-141,9,92,9
14,-4,-19,-4,17,-12,-170,-224,-141,9,92,14
14,0,-14,-7,14,-7,-170,-224,-136,9,92,19
14,4,-9,-9,12,-2,-170,-219,-131,14,97,19
24,19,-4,-21,14,7,-170,-219,-131,29,97,29
34,24,-9,-29,21,7,-175,-224,-131,29,97,29
39,29,-9,-34,24,9,-175,-224,-131,29,102,34
39,29,-9,-34,24,9,-185,-224,-131,29,102,34
43,9,-34,-26,39,-12,-190,-239,-141,24,87,19
43,9,-34,-26,39,-12,-195,-244,-151,4,73,19
48,9,-39,-29,43,-14,-200,-248,-151,-9,73,9
48,9,-39,-29,43,-14,-204,-258,-151,-14,73,4
53,9,-43,-31,48,-17,-204,-268,-156,-29,58,-4
48,9,-39,-29,43,-14,-204,-268,-161,-29,53,-9
39,9,-29,-24,34,-9,-195,-268,-161,-29,48,-14
29,9,-19,-19,24,-4,-195,-263,-156,-24,48,-14
14,9,-4,-12,9,2,-175,-244,-141,-9,58,4
9,19,9,-14,0,14,-165,-244,-131,-4,63,4
9,19,9,-14,0,14,-151,-234,-131,0,73,9
4,19,14,-12,-4,17,-146,-224,-122,4,82,9
9,14,4,-12,2,9,-146,-209,-112,4,82,9
9,14,4,-12,2,9,-146,-204,-112,0,78,4
9,9,0,-9,4,4,-141,-204,-117,0,73,4
4,0,-4,-2,4,-2,-141,-204,-117,-4,73,4
-4,-4,0,4,-2,-2,-136,-209,-122,-4,68,0
-9,-9,0,9,-4,-4,-131,-209,-122,-9,63,0
-14,-24,-9,19,-2,-17,-126,-204,-122,-9,63,0
-14,-24,-9,19,-2,-17,-122,-204,-122,-9,63,-4
-14,-24,-9,19,-2,-17,-122,-204,-112,0,68,4
-9,-24,-14,17,2,-19,-122,-204,-107,9,73,9
-9,-24,-14,17,2,-19,-117,-204,-107,9,87,14
-9,-29,-19,19,4,-24,-117,-204,-112,9,92,14
-4,-39,-34,21,14,-36,-112,-209,-117,-4,73,19
-4,-39,-34,21,14,-36,-117,-209,-117,-4,73,9
-9,-34,-24,21,7,-29,-117,-209,-117,-4,73,9
-9,-34,-24,21,7,-29,-117,-209,-117,-4,73,9
-14,-43,-29,29,7,-36,-126,-200,-122,0,78,0
-9,-39,-29,24,9,-34,-126,-200,-122,0,73,0
-9,-39,-29,24,9,-34,-126,-200,-122,0,73,0
-14,-43,-29,29,7,-36,-126,-200,-122,0,78,4
-29,-53,-24,41,-2,-39,-117,-200,-122,-4,73,-4
-29,-58,-29,43,0,-43,-117,-200,-122,-4,63,-9
-29,-63,-34,46,2,-48,-117,-200,-122,-9,53,-9
-29,-68,-39,48,4,-53,-117,-200,-117,-9,43,-9
-14,-58,-43,36,14,-51,-126,-204,-107,-9,48,4
-14,-53,-39,34,12,-46,-126,-204,-107,-4,53,4
-14,-48,-34,31,9,-41,-122,-209,-107,-4,58,4
-14,-48,-34,31,9,-41,-122,-209,-107,-4,63,0
-14,-48,-34,31,9,-41,-122,-209,-107,4,73,-4
-14,-43,-29,29,7,-36,-126,-209,-112,4,73,-4
-14,-43,-29,29,7,-36,-126,-209,-112,4,73,0
-14,-43,-29,29,7,-36,-126,-204,-107,9,78,0
-14,-34,-19,24,2,-26,-126,-204,-97,9,87,14
-14,-34,-19,24,2,-26,-126,-204,-97,14,87,14
-14,-29,-14,21,0,-21,-126,-204,-97,24,87,14
-14,-29,-14,21,0,-21,-126,-204,-92,24,92,14
-14,-29,-14,21,0,-21,-117,-200,-97,4,82,0
-14,-34,-19,24,2,-26,-117,-200,-102,0,73,-4
-14,-43,-29,29,7,-36,-117,-200,-107,-4,63,-9
-9,-48,-39,29,14,-43,-117,-200,-112,-14,48,-14
-19,-58,-39,39,9,-48,-122,-200,-102,4,68,4
-9,-53,-43,31,17,-48,-112,-200,-102,-4,68,-9
0,-58,-58,29,29,-58,-112,-190,-117,-19,48,-9
0,-78,-78,39,39,-78,-102,-195,-126,-34,43,-19
-19,-87,-68,53,24,-78,-97,-214,-136,-53,24,-39
-29,-97,-68,63,19,-82,-92,-224,-151,-68,-4,-58
-19,-97,-78,58,29,-87,-68,-234,-161,-82,-29,-87
-43,-97,-53,70,4,-75,-39,-234,-156,-97,-58,-112
-58,-117,-58,87,0,-87,-4,-229,-161,-112,-63,-122
-48,-117,-68,82,9,-92,9,-219,-170,-126,-73,-126
-24,-102,-78,63,26,-90,9,-214,-170,-126,-68,-117
-24,-92,-68,58,21,-80,9,-214,-161,-112,-63,-107
-29,-92,-63,61,17,-78,4,-224,-151,-97,-53,-92
-24,-58,-34,41,4,-46,-24,-229,-122,-58,0,-34
-4,-9,-4,7,0,-7,-43,-224,-68,9,78,43
4,34,29,-19,-12,31,-34,-185,-14,73,156,122
29,78,48,-53,-9,63,-39,-151,34,141,229,190
63,170,107,-117,-21,139,-39,-122,92,219,312,273
97,283,185,-190,-43,234,-29,-48,190,341,439,414
136,429,292,-283,-78,361,-4,87,361,517,619,600
180,600,419,-390,-119,509,24,253,561,722,849,805
219,785,566,-502,-173,675,63,414,766,936,1073,1029
253,966,712,-610,-229,839,92,551,951,1146,1302,1249
283,1141,858,-712,-287,1000,107,688,1151,1356,1527,1473
331,1317,985,-824,-326,1151,141,844,1337,1561,1737,1683
366,1488,1122,-927,-378,1305,165,976,1507,1747,1922,1864
390,1659,1268,-1024,-439,1464,180,1122,1698,1942,2127,2054
380,1834,1454,-1107,-536,1644,224,1327,1947,2181,2391,2293
336,1952,1615,-1144,-639,1783,331,1620,2181,2410,2630,2498
287,1927,1639,-1107,-675,1783,497,1927,2352,2518,2727,2581
244,1810,1566,-1027,-661,1688,639,2186,2396,2469,2669,2508
219,1649,1429,-934,-605,1539,732,2366,2337,2337,2493,2332
204,1449,1244,-827,-519,1346,775,2483,2225,2152,2274,2108
175,1268,1093,-722,-458,1180,824,2557,2156,2000,2098,1917
136,1132,995,-634,-429,1063,888,2576,2093,1869,1932,1737
87,985,897,-536,-405,941,932,2513,2000,1703,1737,1527
39,839,800,-439,-380,819,951,2342,1893,1542,1537,1317
-14,697,712,-341,-363,705,961,2030,1708,1337,1302,1088
-73,546,619,-236,-346,583,951,1605,1405,1029,976,800
-136,361,497,-112,-317,429,951,1224,1049,688,634,497
-175,185,361,-4,-268,273,976,1005,766,429,400,278
-195,48,244,73,-219,146,1005,888,575,273,244,146
-200,-58,141,129,-170,41,1044,810,434,151,136,43
-190,-141,48,165,-119,-46,1112,829,370,73,58,-43
-209,-190,19,200,-114,-85,1185,858,366,53,39,-73
-229,-224,4,226,-117,-109,1229,834,361,48,34,-87
-258,-239,19,248,-139,-109,1288,766,326,14,-4,-112
-268,-248,19,258,-143,-114,1342,707,278,-29,-34,-146
-283,-273,9,278,-146,-131,1400,668,248,-48,-48,-156
-307,-302,4,305,-156,-148,1468,639,224,-63,-63,-170
-317,-322,-4,319,-156,-163,1522,556,175,-102,-102,-195
-322,-341,-19,331,-151,-180,1532,424,102,-146,-141,-224
-341,-351,-9,346,-165,-180,1517,287,53,-195,-170,-253
-361,-370,-9,366,-175,-190,1522,180,4,-219,-195,-263
-366,-380,-14,373,-175,-197,1551,87,-29,-234,-204,-273
-380,-385,-4,383,-187,-195,1571,0,-63,-244,-195,-253
-390,-395,-4,392,-192,-200,1546,-78,-92,-258,-195,-253
-385,-380,4,383,-195,-187,1517,-97,-102,-268,-204,-263
-356,-341,14,348,-185,-163,1488,-58,-92,-263,-209,-273
-331,-331,0,331,-165,-165,1464,-39,-87,-253,-204,-258
-317,-331,-14,324,-151,-173,1410,-48,-97,-248,-190,-244
-307,-307,0,307,-153,-153,1366,-58,-97,-239,-195,-234
-283,-268,14,275,-148,-126,1317,-29,-73,-224,-156,-200
-253,-224,29,239,-141,-97,1268,-9,-34,-180,-112,-156
-229,-200,29,214,-129,-85,1180,-4,-19,-146,-78,-131
-214,-190,24,202,-119,-82,1058,-19,-19,-141,-63,-122
-180,-175,4,178,-92,-85,907,-29,-14,-122,-39,-97
-156,-151,4,153,-80,-73,766,-39,-14,-102,-19,-73
-146,-146,0,146,-73,-73,663,-48,-43,-112,-19,-68
-126,-146,-19,136,-53,-82,561,-58,-63,-131,-34,-73
-107,-136,-29,122,-39,-82,448,-73,-73,-136,-43,-82
-97,-126,-29,112,-34,-78,361,-82,-68,-136,-53,-78
-82,-117,-34,100,-24,-75,283,-87,-78,-131,-43,-68
-58,-97,-39,78,-9,-68,214,-87,-78,-131,-29,-53
-43,-82,-39,63,-2,-61,151,-82,-63,-112,-14,-34
-24,-73,-48,48,12,-61,97,-68,-53,-92,4,-14
-9,-73,-63,41,26,-68,53,-68,-53,-82,9,-14
-9,-73,-63,41,26,-68,24,-68,-58,-97,-4,-29
-19,-73,-53,46,17,-63,4,-73,-68,-107,-9,-39
-19,-78,-58,48,19,-68,-9,-73,-78,-112,-9,-43
-14,-78,-63,46,24,-70,-24,-73,-82,-117,-14,-48
-19,-73,-53,46,17,-63,-24,-73,-73,-117,-4,-43
-19,-73,-53,46,17,-63,-34,-73,-78,-117,-4,-39
-14,-73,-58,43,21,-65,-43,-78,-78,-122,-9,-39
-14,-78,-63,46,24,-70,-58,-78,-78,-122,-9,-34
-19,-78,-58,48,19,-68,-58,-87,-82,-131,-19,-43
-19,-82,-63,51,21,-73,-73,-87,-82,-136,-24,-48
-19,-87,-68,53,24,-78,-78,-92,-82,-141,-24,-48
-19,-87,-68,53,24,-78,-78,-92,-87,-141,-24,-53
-4,-82,-78,43,36,-80,-82,-87,-78,-141,-34,-48
0,-82,-82,41,41,-82,-87,-87,-78,-141,-34,-48
0,-82,-82,41,41,-82,-87,-87,-78,-141,-34,-53
0,-78,-78,39,39,-78,-92,-87,-78,-156,-34,-53
-14,-78,-63,46,24,-70,-92,-87,-82,-156,-34,-63
-14,-82,-68,48,26,-75,-97,-87,-82,-156,-34,-63
-14,-87,-73,51,29,-80,-97,-87,-82,-156,-34,-63
-14,-92,-78,53,31,-85,-102,-87,-82,-156,-34,-63
-19,-92,-73,56,26,-82,-107,-82,-82,-151,-24,-43
-19,-97,-78,58,29,-87,-107,-82,-78,-146,-14,-29
-19,-102,-82,61,31,-92,-107,-82,-73,-141,0,-24
-19,-102,-82,61,31,-92,-107,-82,-68,-131,9,-19
-9,-92,-82,51,36,-87,-107,-82,-73,-151,-9,-39
-9,-92,-82,51,36,-87,-107,-82,-73,-156,-24,-48
-9,-92,-82,51,36,-87,-107,-78,-73,-156,-29,-53
-9,-92,-82,51,36,-87,-107,-78,-73,-156,-39,-63
-4,-92,-87,48,41,-90,-117,-78,-87,-161,-43,-68
0,-87,-87,43,43,-87,-117,-78,-92,-165,-48,-68
0,-87,-87,43,43,-87,-117,-78,-92,-170,-53,-63
0,-87,-87,43,43,-87,-117,-78,-92,-170,-53,-63
-4,-92,-87,48,41,-90,-112,-78,-102,-170,-63,-68
-4,-92,-87,48,41,-90,-112,-78,-102,-170,-73,-78
-4,-92,-87,48,41,-90,-112,-73,-107,-180,-73,-82
-4,-97,-92,51,43,-95,-112,-73,-107,-180,-68,-82
-14,-97,-82,56,34,-90,-117,-73,-92,-165,-53,-63
-19,-97,-78,58,29,-87,-117,-73,-87,-161,-53,-58
-19,-97,-78,58,29,-87,-126,-68,-87,-156,-48,-53
-14,-97,-82,56,34,-90,-126,-68,-82,-156,-48,-48
-4,-107,-102,56,48,-104,-126,-68,-92,-170,-63,-63
-4,-107,-102,56,48,-104,-126,-68,-97,-175,-68,-78
-4,-107,-102,56,48,-104,-126,-63,-102,-175,-73,-82
-4,-107,-102,56,48,-104,-126,-63,-107,-180,-82,-92
-9,-117,-107,63,48,-112,-122,-58,-112,-190,-82,-102
-9,-126,-117,68,53,-122,-122,-58,-117,-190,-87,-102
-9,-126,-117,68,53,-122,-122,-58,-117,-185,-87,-102
-9,-126,-117,68,53,-122,-122,-53,-122,-175,-87,-102
-4,-122,-117,63,56,-119,-131,-48,-112,-175,-82,-97
0,-122,-122,61,61,-122,-136,-48,-112,-175,-82,-97
0,-117,-117,58,58,-117,-136,-43,-112,-175,-78,-92
0,-117,-117,58,58,-117,-136,-39,-112,-175,-73,-87
-9,-107,-97,58,43,-102,-136,-43,-107,-180,-73,-92
-9,-107,-97,58,43,-102,-141,-39,-107,-180,-68,-92
-9,-107,-97,58,43,-102,-141,-34,-107,-180,-68,-87
-14,-107,-92,61,39,-100,-141,-29,-102,-180,-68,-87
-4,-112,-107,58,51,-109,-141,-19,-107,-190,-73,-92
-4,-112,-107,58,51,-109,-141,-14,-112,-190,-78,-92
0,-112,-112,56,56,-112,-141,-9,-117,-190,-82,-102
4,-107,-112,51,58,-109,-141,0,-122,-195,-97,-102
4,-112,-117,53,61,-114,-151,-4,-117,-204,-107,-112
4,-122,-126,58,65,-124,-151,0,-117,-204,-107,-117
9,-126,-136,58,73,-131,-151,9,-122,-209,-112,-117
9,-131,-141,61,75,-136,-146,19,-122,-209,-112,-117
0,-122,-122,61,61,-122,-146,24,-117,-204,-107,-112
4,-122,-126,58,65,-124,-151,24,-117,-200,-102,-107
4,-122,-126,58,65,-124,-156,39,-117,-200,-97,-102
9,-126,-136,58,73,-131,-156,48,-117,-204,-92,-102
19,-131,-151,56,85,-141,-156,58,-126,-214,-97,-117
19,-131,-151,56,85,-141,-156,68,-126,-214,-107,-122
24,-126,-151,51,87,-139,-161,78,-126,-214,-112,-126
24,-126,-151,51,87,-139,-161,92,-122,-214,-117,-126
29,-117,-146,43,87,-131,-161,107,-117,-204,-107,-117
34,-117,-151,41,92,-134,-161,122,-112,-204,-112,-122
43,-112,-156,34,100,-134,-165,141,-107,-200,-112,-122
48,-112,-161,31,104,-136,-165,156,-102,-200,-112,-122
48,-112,-161,31,104,-136,-175,165,-92,-190,-102,-117
48,-112,-161,31,104,-136,-175,180,-92,-185,-97,-112
53,-112,-165,29,109,-139,-175,200,-92,-185,-92,-107
58,-102,-161,21,109,-131,-175,214,-92,-185,-87,-102
73,-97,-170,12,122,-134,-175,224,-102,-200,-107,-112
78,-87,-165,4,122,-126,-175,244,-112,-209,-122,-122
82,-82,-165,0,124,-124,-175,258,-112,-224,-131,-126
87,-82,-170,-2,129,-126,-175,278,-122,-239,-146,-136
82,-87,-170,2,126,-129,-185,297,-122,-229,-141,-131
87,-87,-175,0,131,-131,-190,312,-117,-224,-136,-126
92,-78,-170,-7,131,-124,-200,326,-107,-224,-131,-122
92,-73,-165,-9,129,-119,-204,351,-97,-214,-126,-117
97,-68,-165,-14,131,-117,-204,356,-102,-219,-122,-122
102,-68,-170,-17,136,-119,-209,366,-97,-214,-122,-122
102,-68,-170,-17,136,-119,-214,380,-92,-209,-126,-122
112,-68,-180,-21,146,-124,-214,395,-92,-209,-126,-107
126,-48,-175,-39,151,-112,-219,414,-82,-204,-122,-112
131,-43,-175,-43,153,-109,-219,424,-82,-204,-122,-107
131,-39,-170,-46,151,-104,-224,434,-82,-204,-122,-107
141,-34,-175,-53,158,-104,-224,448,-73,-209,-122,-107
136,-24,-161,-56,148,-92,-224,444,-78,-209,-112,-97
141,-19,-161,-61,151,-90,-234,453,-78,-200,-107,-92
146,-14,-161,-65,153,-87,-234,468,-78,-195,-107,-82
151,-4,-156,-73,153,-80,-244,473,-68,-195,-97,-78
156,0,-156,-78,156,-78,-253,478,-53,-185,-92,-68
156,4,-151,-80,153,-73,-253,478,-53,-175,-78,-63
156,9,-146,-82,151,-68,-253,478,-48,-165,-68,-48
161,19,-141,-90,151,-61,-258,478,-43,-161,-53,-43
161,34,-126,-97,143,-46,-268,458,-48,-170,-63,-43
161,43,-117,-102,139,-36,-268,458,-43,-161,-63,-29
165,53,-112,-109,139,-29,-278,448,-39,-156,-63,-24
165,68,-97,-117,131,-14,-283,434,-39,-151,-63,-24
170,78,-92,-124,131,-7,-278,419,-19,-136,-58,-24
170,87,-82,-129,126,2,-278,405,-9,-136,-48,-14
170,92,-78,-131,124,7,-283,385,-9,-136,-48,-9
170,102,-68,-136,119,17,-283,366,-9,-131,-39,4
170,112,-58,-141,114,26,-283,346,-4,-122,-19,9
165,122,-43,-143,104,39,-283,322,9,-107,-4,29
165,126,-39,-146,102,43,-283,302,14,-92,9,39
165,141,-24,-153,95,58,-283,278,19,-82,19,48
165,141,-24,-153,95,58,-273,258,9,-87,9,39
161,141,-19,-151,90,61,-268,234,14,-87,14,48
156,141,-14,-148,85,63,-263,214,24,-92,14,58
156,151,-4,-153,80,73,-263,195,29,-97,9,63
136,141,4,-139,65,73,-244,185,43,-82,29,78
131,141,9,-136,61,75,-234,165,48,-73,29,78
126,141,14,-134,56,78,-224,151,53,-63,34,78
122,131,9,-126,56,70,-219,126,53,-53,34,78
112,141,29,-126,41,85,-204,117,63,-39,53,87
102,141,39,-122,31,90,-200,102,73,-39,58,97
92,146,53,-119,19,100,-190,82,82,-39,63,102
82,146,63,-114,9,104,-185,63,87,-43,73,102
82,136,53,-109,14,95,-170,58,102,-39,68,97
73,122,48,-97,12,85,-161,43,107,-34,68,97
73,117,43,-95,14,80,-161,29,107,-24,68,97
73,117,43,-95,14,80,-156,24,107,-19,63,92
63,117,53,-90,4,85,-151,9,102,-24,48,92
53,122,68,-87,-7,95,-141,0,102,-24,53,92
48,117,68,-82,-9,92,-136,-4,112,-24,58,97
48,117,68,-82,-9,92,-136,-14,112,-29,43,97
48,122,73,-85,-12,97,-131,-19,112,-19,53,97
48,117,68,-82,-9,92,-131,-24,112,-19,53,97
48,112,63,-80,-7,87,-126,-34,112,-19,48,92
43,112,68,-78,-12,90,-122,-43,107,-24,48,87
29,102,73,-65,-21,87,-117,-48,122,-24,48,92
24,97,73,-61,-24,85,-117,-58,126,-24,53,92
19,92,73,-56,-26,82,-117,-63,126,-24,53,92
19,87,68,-53,-24,78,-117,-73,126,-24,43,82
14,73,58,-43,-21,65,-112,-73,112,-29,29,63
14,68,53,-41,-19,61,-112,-78,112,-34,24,58
14,68,53,-41,-19,61,-112,-82,117,-48,19,58
14,68,53,-41,-19,61,-117,-92,117,-53,14,53
4,73,68,-39,-31,70,-117,-87,131,-39,29,68
4,73,68,-39,-31,70,-117,-87,131,-34,34,73
4,73,68,-39,-31,70,-117,-87,136,-29,39,68
4,68,63,-36,-29,65,-117,-92,136,-24,43,68
9,73,63,-41,-26,68,-107,-97,122,-39,19,53
9,73,63,-41,-26,68,-107,-102,117,-43,14,53
4,73,68,-39,-31,70,-107,-102,117,-43,9,53
4,78,73,-41,-34,75,-107,-107,112,-48,9,53
-4,78,82,-36,-43,80,-107,-107,112,-48,14,68
0,73,73,-36,-36,73,-107,-107,112,-48,14,68
4,73,68,-39,-31,70,-107,-107,112,-48,14,63
4,63,58,-34,-26,61,-112,-107,112,-48,9,53
4,53,48,-29,-21,51,-102,-107,122,-48,-4,48
4,53,48,-29,-21,51,-97,-112,122,-48,-4,43
4,58,53,-31,-24,56,-97,-112,122,-48,-9,39
-4,58,63,-26,-34,61,-97,-107,122,-48,-9,34
-4,48,53,-21,-29,51,-97,-107,126,-39,0,43
-4,48,53,-21,-29,51,-97,-112,126,-34,4,53
-4,48,53,-21,-29,51,-97,-112,122,-34,9,58
-4,48,53,-21,-29,51,-97,-112,122,-34,9,63
-4,58,63,-26,-34,61,-107,-112,122,-24,9,63
-4,58,63,-26,-34,61,-107,-112,126,-19,9,63
0,58,58,-29,-29,58,-107,-112,126,-19,9,58
0,58,58,-29,-29,58,-102,-107,122,-24,9,58
-4,58,63,-26,-34,61,-102,-107,122,-29,-9,53
-4,63,68,-29,-36,65,-102,-107,126,-24,-14,48
-4,63,68,-29,-36,65,-97,-107,126,-29,-14,48
-4,68,73,-31,-39,70,-92,-102,126,-34,-14,48
-4,73,78,-34,-41,75,-97,-102,131,-24,-4,63
-4,78,82,-36,-43,80,-97,-102,136,-14,4,68
-4,82,87,-39,-46,85,-97,-102,141,-4,9,73
-4,87,92,-41,-48,90,-97,-102,146,4,19,78
-4,78,82,-36,-43,80,-107,-112,141,-9,0,63
-9,78,87,-34,-48,82,-102,-112,136,-19,-9,53
-9,78,87,-34,-48,82,-102,-112,136,-29,-19,43
-9,78,87,-34,-48,82,-102,-107,131,-34,-24,34
-9,78,87,-34,-48,82,-92,-102,136,-19,-14,48
-9,78,87,-34,-48,82,-92,-102,141,-14,-4,53
-9,78,87,-34,-48,82,-97,-102,146,-9,4,58
-9,73,82,-31,-46,78,-97,-102,151,-9,14,63
-4,73,78,-34,-41,75,-92,-97,146,-24,0,58
-4,78,82,-36,-43,80,-87,-97,146,-29,-9,53
-4,78,82,-36,-43,80,-82,-87,141,-34,-19,48
-9,73,82,-31,-46,78,-82,-87,136,-39,-29,43
0,73,73,-36,-36,73,-82,-92,146,-29,-24,43
0,73,73,-36,-36,73,-82,-92,146,-24,-24,39
0,78,78,-39,-39,78,-82,-92,146,-24,-29,39
0,78,78,-39,-39,78,-82,-87,151,-19,-29,39
-4,87,92,-41,-48,90,-82,-82,151,-9,-24,53
-9,82,92,-36,-51,87,-87,-82,156,-19,-19,63
-14,82,97,-34,-56,90,-87,-82,156,-19,-14,68
-19,82,102,-31,-61,92,-82,-82,156,-24,-9,68
-29,73,102,-21,-65,87,-82,-82,156,-24,-14,58
-29,73,102,-21,-65,87,-82,-78,161,-19,-19,48
-29,73,102,-21,-65,87,-78,-68,161,-19,-19,43
-24,78,102,-26,-63,90,-78,-68,156,-19,-24,34
-24,68,92,-21,-58,80,-78,-78,146,-24,-39,39
-24,68,92,-21,-58,80,-78,-78,146,-34,-43,39
-24,68,92,-21,-58,80,-78,-73,146,-39,-43,39
-24,68,92,-21,-58,80,-78,-73,146,-39,-43,39
-24,78,102,-26,-63,90,-78,-73,156,-24,-43,34
-24,78,102,-26,-63,90,-78,-73,156,-24,-39,34
-24,78,102,-26,-63,90,-78,-73,156,-24,-39,34
-24,78,102,-26,-63,90,-78,-68,151,-24,-39,34
-14,78,92,-31,-53,85,-78,-58,161,-34,-48,34
-14,73,87,-29,-51,80,-73,-58,161,-39,-48,34
-14,68,82,-26,-48,75,-73,-58,161,-39,-48,34
-14,68,82,-26,-48,75,-73,-58,161,-39,-48,34
-14,68,82,-26,-48,75,-73,-58,175,-29,-58,43
-14,73,87,-29,-51,80,-68,-53,175,-29,-58,39
-14,73,87,-29,-51,80,-68,-53,175,-34,-58,39
-14,68,82,-26,-48,75,-73,-58,175,-39,-63,39
-19,68,87,-24,-53,78,-73,-58,170,-29,-58,43
-19,63,82,-21,-51,73,-73,-63,165,-29,-53,48
-19,63,82,-21,-51,73,-73,-63,161,-29,-39,53
-19,63,82,-21,-51,73,-73,-63,156,-29,-34,58
-24,58,82,-17,-53,70,-73,-73,156,-39,-43,48
-24,58,82,-17,-53,70,-78,-73,156,-39,-53,34
-19,58,78,-19,-48,68,-78,-68,156,-39,-68,24
-19,63,82,-21,-51,73,-78,-68,156,-43,-82,19
-19,63,82,-21,-51,73,-87,-82,151,-43,-78,24
-24,63,87,-19,-56,75,-87,-82,151,-43,-73,29
-24,63,87,-19,-56,75,-87,-82,151,-39,-73,34
-19,63,82,-21,-51,73,-87,-82,151,-39,-68,39
-29,63,92,-17,-61,78,-78,-73,161,-39,-73,39
-29,63,92,-17,-61,78,-82,-78,161,-34,-73,34
-29,63,92,-17,-61,78,-82,-82,156,-34,-78,29
-29,63,92,-17,-61,78,-82,-87,156,-34,-78,24
-19,73,92,-26,-56,82,-82,-87,165,-29,-73,29
-19,73,92,-26,-56,82,-82,-87,165,-19,-68,29
-19,73,92,-26,-56,82,-87,-92,165,-14,-63,34
-19,78,97,-29,-58,87,-87,-92,165,-14,-58,39
-19,78,97,-29,-58,87,-87,-92,165,0,-43,48
-19,78,97,-29,-58,87,-87,-92,165,0,-43,48
-19,78,97,-29,-58,87,-92,-97,165,0,-48,48
-19,78,97,-29,-58,87,-92,-97,165,0,-53,48
-29,78,107,-24,-68,92,-92,-97,156,-4,-68,34
-34,78,112,-21,-73,95,-92,-107,151,-9,-78,24
-34,78,112,-21,-73,95,-97,-107,146,-24,-87,14
-29,78,107,-24,-68,92,-97,-107,146,-29,-92,4
-29,73,102,-21,-65,87,-97,-117,161,-14,-82,14
-29,73,102,-21,-65,87,-102,-117,161,-9,-78,19
-29,68,97,-19,-63,82,-102,-126,161,-9,-78,19
-29,68,97,-19,-63,82,-102,-126,156,-14,-78,19
-39,58,97,-9,-68,78,-112,-126,156,-4,-87,29
-39,58,97,-9,-68,78,-112,-126,161,-4,-92,29
-39,58,97,-9,-68,78,-117,-126,161,-4,-92,24
-39,58,97,-9,-68,78,-117,-136,156,-4,-97,14
-39,68,107,-14,-73,87,-107,-131,161,-9,-102,9
-39,68,107,-14,-73,87,-107,-131,156,-14,-102,9
-39,68,107,-14,-73,87,-112,-136,156,-14,-102,9
-39,68,107,-14,-73,87,-112,-136,156,-14,-102,9
-39,78,117,-19,-78,97,-112,-136,161,-9,-92,19
-39,78,117,-19,-78,97,-112,-136,161,-4,-87,24
-39,73,112,-17,-75,92,-117,-141,161,0,-82,24
-39,73,112,-17,-75,92,-117,-141,165,4,-73,24
-29,82,112,-26,-70,97,-126,-151,165,4,-78,24
-29,82,112,-26,-70,97,-122,-151,165,9,-82,24
-29,82,112,-26,-70,97,-122,-156,156,9,-92,24
-29,82,112,-26,-70,97,-122,-156,156,4,-97,24
-39,82,122,-21,-80,102,-112,-156,146,4,-87,24
-39,82,122,-21,-80,102,-117,-156,151,4,-87,24
-39,82,122,-21,-80,102,-122,-161,151,9,-87,29
-39,82,122,-21,-80,102,-122,-161,146,9,-87,29
-29,92,122,-31,-75,107,-131,-165,146,0,-97,14
-29,92,122,-31,-75,107,-131,-165,146,0,-97,14
-29,92,122,-31,-75,107,-131,-165,146,0,-102,9
-29,92,122,-31,-75,107,-131,-170,146,0,-102,9
-39,82,122,-21,-80,102,-122,-170,146,-9,-117,0
-39,82,122,-21,-80,102,-122,-170,146,-14,-126,0
-39,78,117,-19,-78,97,-126,-175,146,-14,-131,0
-39,78,117,-19,-78,97,-126,-175,141,-14,-136,0
-39,82,122,-21,-80,102,-131,-175,151,-4,-122,4
-39,82,122,-21,-80,102,-131,-180,151,0,-117,14
-39,82,122,-21,-80,102,-131,-180,151,0,-112,19
-43,78,122,-17,-82,100,-136,-180,146,-4,-107,24
-43,87,131,-21,-87,109,-136,-185,146,-14,-117,9
-43,82,126,-19,-85,104,-136,-185,146,-14,-117,9
-43,82,126,-19,-85,104,-136,-185,146,-14,-122,9
-43,78,122,-17,-82,100,-136,-185,151,-9,-122,9
-39,78,117,-19,-78,97,-136,-195,141,-9,-131,4
-39,78,117,-19,-78,97,-136,-195,141,-14,-131,0
-39,73,112,-17,-75,92,-141,-195,141,-19,-131,-4
-39,73,112,-17,-75,92,-146,-195,141,-24,-131,-9
-29,73,102,-21,-65,87,-146,-190,131,-14,-131,-14
-29,68,97,-19,-63,82,-141,-190,131,-19,-136,-19
-39,68,107,-14,-73,87,-141,-195,131,-19,-136,-19
-39,68,107,-14,-73,87,-141,-195,131,-19,-136,-14
-34,68,102,-17,-68,85,-141,-195,131,-19,-122,-9
-29,73,102,-21,-65,87,-141,-195,126,-14,-122,0
-29,78,107,-24,-68,92,-146,-195,126,-14,-122,4
-29,78,107,-24,-68,92,-146,-200,131,-9,-122,9
-39,82,122,-21,-80,102,-146,-200,141,0,-112,9
-39,82,122,-21,-80,102,-146,-200,136,0,-112,4
-39,82,122,-21,-80,102,-146,-200,136,0,-117,4
-39,82,122,-21,-80,102,-146,-200,136,0,-117,4
-39,82,122,-21,-80,102,-146,-209,131,-9,-117,9
-39,82,122,-21,-80,102,-146,-209,131,-4,-117,9
-39,82,122,-21,-80,102,-146,-209,131,-4,-117,9
-39,82,122,-21,-80,102,-146,-209,131,-4,-112,9
-29,92,122,-31,-75,107,-151,-209,131,-4,-122,0
-29,102,131,-36,-80,117,-151,-200,131,-4,-122,0
-39,92,131,-26,-85,112,-146,-200,131,-9,-131,-4
-29,82,112,-26,-70,97,-136,-204,131,-9,-136,-4
-29,78,107,-24,-68,92,-136,-204,136,-19,-136,0
-29,68,97,-19,-63,82,-146,-204,126,-9,-136,-9
-29,68,97,-19,-63,82,-146,-204,126,-9,-136,-9
-29,68,97,-19,-63,82,-146,-204,126,-9,-136,-9
-29,68,97,-19,-63,82,-146,-204,126,-9,-136,-9
-29,78,107,-24,-68,92,-146,-214,126,-19,-136,0
-29,78,107,-24,-68,92,-146,-214,126,-19,-136,0
-29,78,107,-24,-68,92,-146,-214,126,-19,-136,0
-29,78,107,-24,-68,92,-146,-214,126,-19,-136,0
-34,68,102,-17,-68,85,-146,-204,126,-9,-126,9
-39,68,107,-14,-73,87,-146,-204,126,-9,-126,9
-43,68,112,-12,-78,90,-146,-204,126,-9,-126,9
-48,68,117,-9,-82,92,-146,-204,126,-9,-126,9
-39,78,117,-19,-78,97,-156,-214,117,-19,-131,4
-39,78,117,-19,-78,97,-156,-214,117,-19,-136,0
-39,78,117,-19,-78,97,-156,-214,117,-19,-141,-4
-39,78,117,-19,-78,97,-156,-214,117,-19,-146,-9
-29,78,107,-24,-68,92,-146,-214,117,-19,-136,-9
-29,78,107,-24,-68,92,-146,-214,117,-19,-136,-9
-29,78,107,-24,-68,92,-146,-214,117,-19,-136,-9
-29,78,107,-24,-68,92,-146,-214,117,-19,-136,-9
-39,78,117,-19,-78,97,-156,-214,107,-19,-136,0
-39,78,117,-19,-78,97,-156,-214,107,-19,-136,0
-39,78,117,-19,-78,97,-156,-214,107,-19,-136,0
-39,78,117,-19,-78,97,-156,-214,107,-19,-136,0
-39,87,126,-24,-82,107,-156,-214,107,-9,-126,9
-39,87,126,-24,-82,107,-156,-214,107,-9,-126,9
-39,87,126,-24,-82,107,-156,-214,107,-9,-126,9
-39,87,126,-24,-82,107,-156,-214,107,-9,-126,9
-39,87,126,-24,-82,107,-156,-214,97,-19,-136,9
-39,87,126,-24,-82,107,-156,-214,97,-19,-136,9
-39,87,126,-24,-82,107,-156,-214,97,-19,-136,9
-39,87,126,-24,-82,107,-156,-214,97,-19,-136,9
-39,87,126,-24,-82,107,-146,-214,97,-9,-126,14
-39,87,126,-24,-82,107,-146,-214,97,-9,-126,19
-39,87,126,-24,-82,107,-146,-214,97,-9,-126,24
-39,87,126,-24,-82,107,-146,-214,97,-9,-126,29
-39,78,117,-19,-78,97,-156,-224,97,-9,-131,19
-39,78,117,-19,-78,97,-156,-224,97,-9,-136,9
-39,78,117,-19,-78,97,-156,-224,97,-9,-141,0
-39,78,117,-19,-78,97,-156,-224,97,-9,-146,-9
-39,78,117,-19,-78,97,-156,-224,87,-9,-146,0
-39,78,117,-19,-78,97,-156,-224,87,-9,-146,0
-39,78,117,-19,-78,97,-156,-224,87,-9,-146,0
-39,78,117,-19,-78,97,-156,-224,87,-9,-146,0
-39,87,126,-24,-82,107,-156,-224,87,-4,-141,4
-39,87,126,-24,-82,107,-156,-224,87,0,-136,9
-39,87,126,-24,-82,107,-156,-224,87,4,-131,14
-39,87,126,-24,-82,107,-156,-224,87,9,-126,19
-48,78,126,-14,-87,102,-156,-224,87,14,-117,29
-48,78,126,-14,-87,102,-156,-224,87,19,-117,29
-48,78,126,-14,-87,102,-156,-224,87,24,-117,29
-48,78,126,-14,-87,102,-156,-224,87,29,-117,29
-39,78,117,-19,-78,97,-156,-214,78,19,-122,19
-39,78,117,-19,-78,97,-156,-214,78,19,-126,19
-39,78,117,-19,-78,97,-156,-214,78,19,-131,19
-39,78,117,-19,-78,97,-156,-214,78,19,-136,19
-39,68,107,-14,-73,87,-156,-224,78,19,-136,9
-39,68,107,-14,-73,87,-156,-224,78,19,-136,9
-39,68,107,-14,-73,87,-156,-224,78,19,-136,9
-39,68,107,-14,-73,87,-156,-224,78,19,-136,9
-34,78,112,-21,-73,95,-156,-224,68,29,-126,14
-29,78,107,-24,-68,92,-156,-224,68,29,-126,19
-24,78,102,-26,-63,90,-156,-224,68,29,-126,24
-19,78,97,-29,-58,87,-156,-224,68,29,-126,29
-19,87,107,-34,-63,97,-156,-224,68,34,-122,39
-19,87,107,-34,-63,97,-156,-224,68,39,-117,39
-19,87,107,-34,-63,97,-156,-224,68,43,-112,39
-19,87,107,-34,-63,97,-156,-224,68,48,-107,39
-29,78,107,-24,-68,92,-156,-224,68,39,-97,39
-29,78,107,-24,-68,92,-156,-224,68,39,-97,39
-29,78,107,-24,-68,92,-156,-224,68,39,-97,39
-29,78,107,-24,-68,92,-156,-224,68,39,-97,39
-29,87,117,-29,-73,102,-156,-224,68,39,-107,39
-29,87,117,-29,-73,102,-156,-224,68,39,-107,39
-29,87,117,-29,-73,102,-156,-224,68,39,-107,39
-29,87,117,-29,-73,102,-156,-224,68,39,-107,39
-29,87,117,-29,-73,102,-156,-224,58,39,-107,34
-29,87,117,-29,-73,102,-156,-224,58,39,-107,29
-29,87,117,-29,-73,102,-156,-224,58,39,-107,24
-29,87,117,-29,-73,102,-156,-224,58,39,-107,19
-29,78,107,-24,-68,92,-156,-234,48,39,-97,24
-29,78,107,-24,-68,92,-156,-234,48,39,-97,29
-29,78,107,-24,-68,92,-156,-234,48,39,-97,34
-29,78,107,-24,-68,92,-156,-234,48,39,-97,39
-29,78,107,-24,-68,92,-156,-234,39,34,-107,29
-29,78,107,-24,-68,92,-156,-234,39,29,-107,29
-29,78,107,-24,-68,92,-156,-234,39,24,-107,29
-29,78,107,-24,-68,92,-156,-234,39,19,-107,29
-29,87,117,-29,-73,102,-156,-224,39,19,-117,29
-29,87,117,-29,-73,102,-156,-224,39,19,-117,29
-29,87,117,-29,-73,102,-156,-224,39,19,-117,29
-29,87,117,-29,-73,102,-156,-224,39,19,-117,29
-39,78,117,-19,-78,97,-156,-234,39,29,-112,39
-39,78,117,-19,-78,97,-156,-234,39,29,-107,39
-39,78,117,-19,-78,97,-156,-234,39,29,-102,39
-39,78,117,-19,-78,97,-156,-234,39,29,-97,39
-29,82,112,-26,-70,97,-156,-234,29,19,-87,48
-29,87,117,-29,-73,102,-156,-234,29,19,-87,48
-29,92,122,-31,-75,107,-156,-234,29,19,-87,48
-29,97,126,-34,-78,112,-156,-234,29,19,-87,48
-29,107,136,-39,-82,122,-156,-224,29,29,-78,48
-29,107,136,-39,-82,122,-156,-224,29,29,-78,48
-29,107,136,-39,-82,122,-156,-224,29,29,-78,48
-29,107,136,-39,-82,122,-156,-224,29,29,-78,48
-19,97,117,-39,-68,107,-156,-224,19,24,-78,48
-19,97,117,-39,-68,107,-156,-224,19,19,-78,48
-19,97,117,-39,-68,107,-156,-224,19,14,-78,48
-19,97,117,-39,-68,107,-156,-224,19,9,-78,48
-24,97,122,-36,-73,109,-156,-234,19,9,-78,58
-29,97,126,-34,-78,112,-156,-234,19,9,-78,58
-34,97,131,-31,-82,114,-156,-234,19,9,-78,58
-39,97,136,-29,-87,117,-156,-234,19,9,-78,58
-34,97,131,-31,-82,114,-146,-234,9,0,-82,48
-29,97,126,-34,-78,112,-146,-234,9,0,-87,48
-24,97,122,-36,-73,109,-146,-234,9,0,-92,48
-19,97,117,-39,-68,107,-146,-234,9,0,-97,48
-29,97,126,-34,-78,112,-156,-234,19,4,-82,53
-29,97,126,-34,-78,112,-156,-234,19,9,-78,58
-29,97,126,-34,-78,112,-156,-234,19,14,-73,63
-29,97,126,-34,-78,112,-156,-234,19,19,-68,68
-29,97,126,-34,-78,112,-165,-234,9,9,-68,58
-29,97,126,-34,-78,112,-165,-234,9,9,-68,58
-29,97,126,-34,-78,112,-165,-234,9,9,-68,58
-29,97,126,-34,-78,112,-165,-234,9,9,-68,58
-19,107,126,-43,-73,117,-161,-234,0,4,-73,48
-19,107,126,-43,-73,117,-156,-234,0,0,-78,48
-19,107,126,-43,-73,117,-151,-234,0,-4,-82,48
-19,107,126,-43,-73,117,-146,-234,0,-9,-87,48
-19,112,131,-46,-75,122,-136,-224,9,0,-78,48
-19,117,136,-48,-78,126,-136,-224,9,0,-78,48
-19,122,141,-51,-80,131,-136,-224,9,0,-78,48
-19,126,146,-53,-82,136,-136,-224,9,0,-78,48
-19,136,156,-58,-87,146,-126,-214,19,9,-73,58
-19,136,156,-58,-87,146,-126,-214,19,9,-68,58
-19,136,156,-58,-87,146,-126,-214,19,9,-63,58
-19,136,156,-58,-87,146,-126,-214,19,9,-58,58
-19,151,170,-65,-95,161,-117,-204,29,19,-53,63
-19,156,175,-68,-97,165,-117,-204,29,19,-48,68
-19,161,180,-70,-100,170,-117,-204,29,19,-43,73
-19,165,185,-73,-102,175,-117,-204,29,19,-39,78
-19,180,200,-80,-109,190,-112,-195,39,24,-29,82
-19,185,204,-82,-112,195,-107,-195,39,29,-29,87
-19,190,209,-85,-114,200,-102,-195,39,34,-29,92
-19,195,214,-87,-117,204,-97,-195,39,39,-29,97
-9,204,214,-97,-112,209,-87,-195,39,39,-19,107
-9,204,214,-97,-112,209,-87,-195,39,39,-19,107
-9,204,214,-97,-112,209,-87,-195,39,39,-19,107
-9,204,214,-97,-112,209,-87,-195,39,39,-19,107
0,204,204,-102,-102,204,-107,-204,34,29,-9,107
0,204,204,-102,-102,204,-117,-204,29,29,-9,107
0,204,204,-102,-102,204,-126,-204,24,29,-9,107
0,204,204,-102,-102,204,-136,-204,19,29,-9,107
0,195,195,-97,-97,195,-151,-209,9,24,-19,97
0,195,195,-97,-97,195,-156,-214,9,19,-19,97
0,190,190,-95,-95,190,-165,-224,0,9,-24,97
4,185,180,-95,-87,183,-170,-234,-4,4,-29,92
-4,170,175,-82,-90,173,-180,-239,-19,0,-24,82
-4,170,175,-82,-90,173,-185,-239,-19,-4,-29,78
-9,170,180,-80,-95,175,-190,-244,-19,-9,-29,73
-9,161,170,-75,-90,165,-195,-244,-19,-19,-29,73
-4,165,170,-80,-87,168,-200,-258,-34,-34,-48,53
-4,161,165,-78,-85,163,-204,-263,-39,-39,-63,48
-4,151,156,-73,-80,153,-219,-273,-53,-43,-68,43
-4,146,151,-70,-78,148,-224,-283,-63,-48,-68,43
-14,136,151,-61,-82,143,-214,-283,-68,-53,-78,29
-14,131,146,-58,-80,139,-214,-283,-73,-53,-73,29
-9,126,136,-58,-73,131,-219,-278,-73,-58,-73,29
-4,131,136,-63,-70,134,-219,-273,-73,-58,-73,34
0,141,141,-70,-70,141,-229,-283,-78,-63,-82,29
4,151,146,-78,-70,148,-229,-278,-73,-63,-78,29
19,161,141,-90,-61,151,-229,-278,-73,-63,-78,29
34,170,136,-102,-51,153,-234,-283,-73,-68,-78,29
29,175,146,-102,-58,161,-224,-273,-63,-63,-68,39
29,175,146,-102,-58,161,-234,-273,-63,-58,-63,43
34,165,131,-100,-48,148,-239,-287,-73,-53,-63,43
34,165,131,-100,-48,148,-244,-292,-82,-63,-73,48
29,165,136,-97,-53,151,-258,-307,-87,-73,-68,39
29,165,136,-97,-53,151,-263,-317,-92,-73,-63,34
24,165,141,-95,-58,153,-263,-326,-102,-78,-68,29
19,165,146,-92,-63,156,-263,-326,-112,-78,-63,29
14,175,161,-95,-73,168,-253,-317,-102,-87,-68,19
9,175,165,-92,-78,170,-253,-312,-97,-82,-68,24
9,175,165,-92,-78,170,-244,-302,-92,-78,-73,34
9,185,175,-97,-82,180,-234,-302,-82,-73,-73,34
0,175,175,-87,-87,175,-209,-292,-82,-68,-63,48
-4,175,180,-85,-92,178,-204,-283,-73,-63,-53,48
-9,170,180,-80,-95,175,-195,-278,-73,-63,-53,48
-9,170,180,-80,-95,175,-195,-273,-73,-68,-58,43
0,175,175,-87,-87,175,-190,-273,-68,-58,-58,53
-4,165,170,-80,-87,168,-190,-273,-68,-63,-53,53
-4,151,156,-73,-80,153,-185,-268,-73,-63,-53,39
-9,146,156,-68,-82,151,-180,-268,-73,-68,-53,39
-24,131,156,-53,-90,143,-175,-263,-82,-68,-43,39
-24,131,156,-53,-90,143,-170,-263,-82,-68,-43,34
-24,131,156,-53,-90,143,-170,-263,-82,-68,-43,34
-19,131,151,-56,-85,141,-170,-263,-78,-58,-43,39
-19,131,151,-56,-85,141,-175,-263,-78,-68,-39,34
-19,126,146,-53,-82,136,-175,-263,-82,-68,-43,34
-24,117,141,-46,-82,129,-180,-268,-87,-73,-58,29
-24,117,141,-46,-82,129,-185,-268,-87,-73,-63,19
-29,131,161,-51,-95,146,-175,-268,-97,-78,-63,9
-29,131,161,-51,-95,146,-175,-268,-97,-82,-63,9
-24,131,156,-53,-90,143,-175,-268,-102,-82,-68,9
-19,136,156,-58,-87,146,-175,-268,-102,-87,-73,9
-29,126,156,-48,-92,141,-175,-268,-112,-97,-73,0
-34,122,156,-43,-95,139,-175,-268,-112,-97,-68,4
-39,117,156,-39,-97,136,-175,-268,-112,-92,-63,4
-39,117,156,-39,-97,136,-175,-268,-112,-92,-63,0
-29,117,146,-43,-87,131,-175,-268,-112,-97,-73,0
-29,117,146,-43,-87,131,-175,-268,-107,-97,-73,0
-24,122,146,-48,-85,134,-175,-263,-107,-97,-73,4
-24,122,146,-48,-85,134,-175,-263,-107,-92,-73,4
-14,131,146,-58,-80,139,-180,-268,-117,-82,-63,14
-14,126,141,-56,-78,134,-180,-268,-117,-82,-63,9
-14,126,141,-56,-78,134,-180,-268,-117,-82,-63,4
-14,131,146,-58,-80,139,-185,-268,-122,-82,-63,4
-24,131,156,-53,-90,143,-185,-268,-122,-92,-63,9
-24,131,156,-53,-90,143,-185,-263,-117,-87,-58,9
-24,131,156,-53,-90,143,-185,-263,-117,-87,-58,14
-24,131,156,-53,-90,143,-185,-263,-117,-82,-58,14
-24,136,161,-56,-92,148,-175,-263,-117,-82,-58,14
-24,136,161,-56,-92,148,-175,-263,-112,-82,-53,14
-24,141,165,-58,-95,153,-175,-258,-112,-87,-53,14
-24,141,165,-58,-95,153,-175,-258,-112,-87,-53,14
-14,136,151,-61,-82,143,-175,-258,-112,-78,-34,14
-19,136,156,-58,-87,146,-175,-258,-112,-82,-39,14
-29,136,165,-53,-97,151,-170,-258,-122,-92,-39,14
-19,131,151,-56,-85,141,-170,-258,-122,-102,-48,9
-19,126,146,-53,-82,136,-161,-248,-126,-117,-68,0
-29,107,136,-39,-82,122,-151,-263,-146,-131,-82,-9
-29,97,126,-34,-78,112,-156,-273,-156,-151,-92,-29
-19,87,107,-34,-63,97,-141,-283,-170,-156,-112,-48
-39,68,107,-14,-73,87,-126,-292,-190,-180,-136,-78
-53,68,122,-7,-87,95,-97,-302,-195,-204,-156,-92
-58,68,126,-4,-92,97,-63,-278,-200,-219,-180,-122
-48,58,107,-4,-78,82,-48,-268,-209,-234,-200,-136
-63,53,117,4,-90,85,-48,-273,-219,-234,-204,-126
-63,63,126,0,-95,95,-39,-263,-209,-229,-190,-117
-58,73,131,-7,-95,102,-43,-263,-200,-214,-170,-102
-34,97,131,-31,-82,114,-63,-278,-180,-185,-136,-63
-14,146,161,-65,-87,153,-102,-283,-136,-117,-68,14
4,200,195,-102,-95,197,-102,-253,-92,-53,9,82
19,244,224,-131,-102,234,-87,-209,-43,4,82,151
34,307,273,-170,-119,290,-78,-180,4,82,165,234
68,409,341,-239,-136,375,-87,-126,102,195,283,356
107,536,429,-322,-161,483,-73,-9,263,351,463,522
151,717,566,-434,-207,641,-34,156,463,566,683,736
180,912,732,-546,-275,822,4,317,678,800,917,971
204,1083,878,-644,-336,980,43,463,873,1010,1146,1190
234,1268,1034,-751,-400,1151,68,600,1063,1220,1371,1405
283,1444,1161,-863,-439,1302,82,736,1249,1424,1590,1615
326,1615,1288,-971,-480,1451,97,868,1429,1610,1786,1795
351,1776,1424,-1063,-536,1600,112,995,1620,1805,1991,1986
331,1952,1620,-1141,-644,1786,146,1161,1830,2034,2225,2215
307,2088,1781,-1198,-736,1934,234,1395,2074,2254,2454,2430
248,2113,1864,-1180,-807,1988,380,1693,2274,2410,2601,2542
195,2015,1820,-1105,-812,1917,522,1971,2376,2440,2620,2537
170,1864,1693,-1017,-761,1778,624,2181,2376,2366,2522,2420
165,1673,1507,-919,-671,1590,697,2308,2283,2200,2332,2225
146,1503,1356,-824,-605,1429,746,2391,2205,2030,2137,2034
107,1356,1249,-732,-570,1302,790,2420,2152,1898,1971,1854
58,1220,1161,-639,-551,1190,834,2366,2069,1732,1776,1634
19,1073,1054,-546,-517,1063,873,2235,1952,1551,1556,1405
-14,941,956,-463,-485,949,883,1971,1776,1337,1312,1176
-82,780,863,-348,-473,822,883,1566,1473,1039,985,878
-146,595,741,-224,-444,668,873,1185,1098,678,614,546
-175,409,585,-117,-380,497,897,936,775,380,331,297
-195,283,478,-43,-336,380,936,810,556,214,175,156
-209,175,385,17,-297,280,976,722,405,92,58,53
-219,63,283,78,-251,173,1034,702,302,-14,-29,-43
-229,-4,224,117,-226,109,1117,751,278,-53,-58,-82
-248,-29,219,139,-234,95,1161,736,273,-58,-63,-97
-258,-43,214,151,-236,85,1200,678,248,-82,-92,-122
-268,-63,204,165,-236,70,1254,610,200,-117,-122,-156
-283,-68,214,175,-248,73,1312,551,141,-146,-146,-175
-297,-97,200,197,-248,51,1371,502,117,-161,-170,-180
-317,-126,190,222,-253,31,1434,439,78,-190,-190,-214
-331,-146,185,239,-258,19,1454,317,14,-234,-229,-234
-341,-146,195,244,-268,24,1429,190,-43,-263,-248,-253
-351,-156,195,253,-273,19,1434,82,-82,-297,-273,-273
-366,-165,200,265,-283,17,1473,0,-117,-331,-302,-292
-380,-180,200,280,-290,9,1493,-78,-151,-351,-331,-312
-390,-200,190,295,-290,-4,1478,-146,-190,-375,-341,-322
-385,-195,190,290,-287,-2,1439,-185,-209,-385,-341,-312
-356,-165,190,261,-273,12,1410,-165,-209,-370,-326,-302
-341,-146,195,244,-268,24,1366,-136,-195,-351,-312,-278
-326,-136,190,231,-258,26,1322,-126,-195,-356,-297,-263
-317,-112,204,214,-261,46,1259,-136,-195,-346,-283,-253
-292,-73,219,183,-256,73,1210,-136,-180,-322,-263,-229
-273,-19,253,146,-263,117,1151,-117,-151,-287,-219,-185
-239,14,253,112,-246,134,1083,-92,-136,-263,-185,-161
-214,24,239,95,-226,131,980,-97,-126,-239,-170,-151
-200,48,248,75,-224,148,839,-107,-131,-229,-156,-136
-185,53,239,65,-212,146,697,-117,-141,-229,-156,-122
-165,58,224,53,-195,141,585,-126,-151,-229,-146,-117
-136,58,195,39,-165,126,483,-136,-170,-239,-151,-112
-117,68,185,24,-151,126,380,-151,-180,-244,-151,-112
-107,68,175,19,-141,122,292,-151,-185,-234,-141,-107
-92,78,170,7,-131,124,224,-146,-185,-229,-131,-97
-87,87,175,0,-131,131,156,-146,-175,-219,-126,-92
-73,92,165,-9,-119,129,102,-141,-170,-209,-112,-73
-43,102,146,-29,-95,124,58,-136,-170,-190,-102,-73
-29,112,141,-41,-85,126,4,-126,-170,-190,-97,-63
-19,122,141,-51,-80,131,-29,-126,-170,-190,-97,-63
-29,122,151,-46,-90,136,-43,-131,-175,-195,-97,-68
-29,117,146,-43,-87,131,-53,-131,-180,-195,-92,-68
-24,117,141,-46,-82,129,-63,-131,-180,-195,-92,-68
-19,122,141,-51,-80,131,-73,-131,-180,-195,-82,-58
-19,122,141,-51,-80,131,-82,-131,-185,-195,-82,-58
-14,122,136,-53,-75,129,-92,-136,-185,-200,-87,-63
-14,117,131,-51,-73,124,-107,-136,-185,-200,-87,-63
-14,122,136,-53,-75,129,-107,-136,-180,-209,-78,-73
-9,122,131,-56,-70,126,-122,-136,-180,-214,-82,-78
-4,122,126,-58,-65,124,-126,-141,-180,-219,-82,-78
0,126,126,-63,-63,126,-126,-141,-185,-219,-82,-82
0,122,122,-61,-61,122,-131,-146,-185,-229,-92,-78
0,122,122,-61,-61,122,-136,-146,-185,-229,-92,-78
-4,122,126,-58,-65,124,-136,-146,-185,-229,-92,-82
-9,126,136,-58,-73,131,-141,-146,-185,-244,-92,-82
-4,131,136,-63,-70,134,-141,-136,-200,-244,-92,-73
-4,131,136,-63,-70,134,-146,-136,-200,-244,-92,-73
-4,131,136,-63,-70,134,-146,-136,-200,-244,-92,-73
-4,131,136,-63,-70,134,-151,-136,-200,-244,-92,-73
-9,122,131,-56,-70,126,-146,-131,-214,-248,-92,-73
-9,117,126,-53,-68,122,-146,-131,-214,-253,-92,-68
-9,112,122,-51,-65,117,-146,-131,-214,-258,-87,-73
-9,112,122,-51,-65,117,-146,-131,-214,-258,-87,-78
-9,117,126,-53,-68,122,-146,-122,-214,-263,-92,-82
-9,122,131,-56,-70,126,-146,-122,-209,-263,-102,-87
-9,126,136,-58,-73,131,-146,-117,-204,-258,-102,-87
-9,131,141,-61,-75,136,-146,-117,-200,-253,-107,-92
-4,126,131,-61,-68,129,-156,-117,-214,-268,-112,-102
0,126,126,-63,-63,126,-156,-117,-219,-273,-117,-107
0,122,122,-61,-61,122,-156,-117,-219,-278,-122,-107
0,117,117,-58,-58,117,-156,-117,-219,-278,-122,-112
-4,112,117,-53,-61,114,-161,-126,-229,-287,-122,-117
-4,112,117,-53,-61,114,-161,-126,-229,-287,-131,-126
-4,112,117,-53,-61,114,-161,-122,-234,-297,-131,-131
-4,107,112,-51,-58,109,-161,-122,-234,-297,-126,-131
-4,107,112,-51,-58,109,-156,-122,-224,-287,-126,-126
-9,107,117,-48,-63,112,-156,-122,-224,-287,-131,-126
-9,107,117,-48,-63,112,-165,-117,-229,-287,-131,-126
-4,107,112,-51,-58,109,-165,-117,-229,-292,-136,-126
-4,107,112,-51,-58,109,-165,-107,-244,-292,-136,-126
-4,107,112,-51,-58,109,-165,-107,-244,-292,-136,-136
-4,107,112,-51,-58,109,-165,-102,-244,-287,-136,-136
-4,107,112,-51,-58,109,-165,-102,-244,-287,-141,-141
-9,102,112,-46,-61,107,-170,-97,-239,-307,-141,-141
-9,97,107,-43,-58,102,-170,-97,-244,-307,-146,-141
-9,102,112,-46,-61,107,-170,-97,-244,-302,-146,-141
-9,107,117,-48,-63,112,-170,-92,-248,-292,-146,-141
-4,102,107,-48,-56,104,-170,-97,-258,-302,-146,-141
0,102,102,-51,-51,102,-175,-97,-258,-302,-151,-146
0,107,107,-53,-53,107,-175,-92,-258,-302,-151,-146
0,107,107,-53,-53,107,-175,-87,-258,-302,-151,-146
0,107,107,-53,-53,107,-175,-73,-258,-317,-151,-151
0,107,107,-53,-53,107,-180,-68,-263,-317,-146,-151
0,107,107,-53,-53,107,-180,-63,-268,-317,-146,-146
-4,107,112,-51,-58,109,-180,-58,-268,-317,-146,-146
4,102,97,-53,-46,100,-180,-58,-268,-322,-146,-151
4,102,97,-53,-46,100,-180,-53,-268,-317,-146,-151
9,102,92,-56,-41,97,-180,-48,-268,-312,-146,-161
14,107,92,-61,-39,100,-180,-39,-268,-312,-156,-161
14,117,102,-65,-43,109,-180,-34,-263,-312,-156,-161
14,112,97,-63,-41,104,-180,-29,-263,-312,-156,-165
19,112,92,-65,-36,102,-180,-19,-268,-317,-161,-165
19,112,92,-65,-36,102,-175,-9,-268,-317,-161,-165
29,112,82,-70,-26,97,-165,4,-263,-322,-170,-165
34,112,78,-73,-21,95,-170,4,-263,-317,-170,-165
34,112,78,-73,-21,95,-175,19,-263,-317,-170,-165
39,107,68,-73,-14,87,-175,29,-263,-322,-170,-170
39,92,53,-65,-7,73,-175,48,-273,-331,-161,-180
39,92,53,-65,-7,73,-175,58,-273,-331,-165,-180
43,97,53,-70,-4,75,-180,68,-273,-331,-165,-180
43,97,53,-70,-4,75,-180,82,-268,-331,-165,-175
43,97,53,-70,-4,75,-190,97,-268,-331,-165,-175
43,97,53,-70,-4,75,-190,112,-268,-331,-170,-180
48,102,53,-75,-2,78,-195,131,-268,-326,-170,-180
48,102,53,-75,-2,78,-195,146,-268,-326,-170,-180
58,112,53,-85,2,82,-185,165,-268,-326,-165,-180
58,112,53,-85,2,82,-185,180,-268,-322,-165,-180
63,112,48,-87,7,80,-185,200,-268,-322,-165,-180
68,122,53,-95,7,87,-185,214,-268,-322,-165,-180
73,122,48,-97,12,85,-195,234,-268,-322,-170,-180
78,126,48,-102,14,87,-195,253,-268,-317,-170,-180
82,126,43,-104,19,85,-195,268,-258,-317,-165,-175
87,122,34,-104,26,78,-195,287,-258,-317,-165,-175
92,117,24,-104,34,70,-200,307,-253,-317,-156,-175
97,117,19,-107,39,68,-200,322,-253,-312,-156,-175
102,126,24,-114,39,75,-204,336,-248,-312,-156,-175
102,131,29,-117,36,80,-204,361,-244,-302,-156,-175
97,136,39,-117,29,87,-204,375,-248,-307,-156,-170
102,136,34,-119,34,85,-209,385,-244,-302,-151,-170
102,136,34,-119,34,85,-214,400,-239,-297,-151,-170
112,136,24,-124,43,80,-214,414,-239,-297,-146,-156
126,156,29,-141,48,92,-219,444,-239,-283,-141,-161
131,161,29,-146,51,95,-219,453,-239,-283,-141,-156
131,165,34,-148,48,100,-224,463,-239,-283,-141,-156
141,170,29,-156,56,100,-224,478,-229,-287,-141,-156
156,180,24,-168,65,102,-224,492,-224,-287,-151,-151
161,185,24,-173,68,104,-234,502,-224,-278,-146,-151
165,190,24,-178,70,107,-234,517,-224,-273,-146,-146
170,200,29,-185,70,114,-244,522,-214,-273,-136,-146
165,204,39,-185,63,122,-234,527,-219,-268,-126,-136
165,209,43,-187,61,126,-234,527,-219,-263,-117,-131
165,214,48,-190,58,131,-234,527,-214,-258,-112,-117
170,224,53,-197,58,139,-239,527,-209,-258,-102,-112
161,234,73,-197,43,153,-248,517,-204,-248,-97,-112
161,239,78,-200,41,158,-248,517,-200,-239,-92,-97
165,244,78,-204,43,161,-258,507,-195,-234,-87,-92
165,253,87,-209,39,170,-263,492,-195,-229,-82,-92
170,273,102,-222,34,187,-258,478,-185,-219,-68,-73
170,283,112,-226,29,197,-258,463,-175,-214,-58,-63
170,287,117,-229,26,202,-263,444,-175,-209,-58,-58
170,297,126,-234,21,212,-263,424,-175,-200,-48,-43
170,297,126,-234,21,212,-273,395,-175,-195,-43,-43
165,307,141,-236,12,224,-273,370,-165,-185,-34,-29
165,312,146,-239,9,229,-273,351,-165,-175,-24,-24
165,326,161,-246,2,244,-273,326,-165,-170,-19,-19
156,336,180,-246,-12,258,-263,297,-175,-170,-14,-29
151,336,185,-244,-17,261,-258,273,-170,-165,-4,-19
146,336,190,-241,-21,263,-253,253,-161,-165,0,-9
146,346,200,-246,-26,273,-253,234,-156,-165,0,-4
146,356,209,-251,-31,283,-253,209,-151,-165,0,0
141,356,214,-248,-36,285,-244,185,-146,-161,0,0
136,356,219,-246,-41,287,-234,165,-141,-156,4,0
131,346,214,-239,-41,280,-229,136,-141,-151,4,0
122,341,219,-231,-48,280,-214,117,-136,-136,0,-4
112,336,224,-224,-56,280,-209,102,-131,-136,0,0
102,336,234,-219,-65,285,-200,82,-126,-136,0,0
92,331,239,-212,-73,285,-195,63,-126,-141,4,-4
92,331,239,-212,-73,285,-190,48,-122,-141,19,-4
82,317,234,-200,-75,275,-180,34,-117,-141,19,0
82,312,229,-197,-73,270,-180,19,-117,-136,19,4
82,312,229,-197,-73,270,-175,14,-117,-136,14,4
73,317,244,-195,-85,280,-161,0,-112,-126,14,4
63,317,253,-190,-95,285,-151,-9,-112,-122,24,4
58,307,248,-183,-95,278,-146,-14,-102,-117,34,9
58,302,244,-180,-92,273,-146,-24,-102,-117,24,9
58,307,248,-183,-95,278,-131,-39,-112,-126,24,0
58,302,244,-180,-92,273,-131,-43,-112,-126,24,0
58,297,239,-178,-90,268,-126,-53,-112,-126,19,-4
53,297,244,-175,-95,270,-122,-63,-117,-131,19,-9
48,287,239,-168,-95,263,-126,-68,-107,-131,14,-14
43,283,239,-163,-97,261,-126,-78,-107,-131,14,-14
39,278,239,-158,-100,258,-126,-82,-112,-131,9,-14
39,273,234,-156,-97,253,-126,-92,-117,-131,-4,-24
24,268,244,-146,-109,256,-122,-102,-112,-131,-4,-39
24,263,239,-143,-107,251,-122,-107,-112,-131,-4,-39
24,263,239,-143,-107,251,-122,-112,-107,-141,-4,-34
24,263,239,-143,-107,251,-126,-122,-107,-141,-4,-34
14,258,244,-136,-114,251,-126,-117,-117,-151,-4,-34
14,258,244,-136,-114,251,-126,-117,-122,-151,-4,-34
14,258,244,-136,-114,251,-126,-117,-122,-151,-4,-43
14,253,239,-134,-112,246,-126,-122,-126,-151,-4,-48
19,248,229,-134,-104,239,-117,-126,-126,-141,-14,-48
19,248,229,-134,-104,239,-117,-131,-126,-141,-14,-43
14,248,234,-131,-109,241,-117,-131,-122,-136,-14,-39
14,253,239,-134,-112,246,-117,-136,-122,-136,-9,-34
4,244,239,-124,-117,241,-117,-146,-131,-146,-14,-34
9,239,229,-124,-109,234,-117,-146,-131,-146,-14,-39
14,239,224,-126,-104,231,-117,-146,-131,-146,-14,-48
14,229,214,-122,-100,222,-122,-146,-131,-146,-19,-63
14,229,214,-122,-100,222,-122,-146,-131,-146,-14,-53
14,229,214,-122,-100,222,-117,-151,-131,-146,-14,-53
14,234,219,-124,-102,226,-117,-151,-131,-146,-19,-53
4,234,229,-119,-112,231,-117,-146,-131,-146,-19,-53
14,234,219,-124,-102,226,-126,-146,-136,-156,-29,-53
14,234,219,-124,-102,226,-126,-151,-136,-151,-24,-53
14,234,219,-124,-102,226,-126,-151,-141,-151,-19,-58
14,234,219,-124,-102,226,-126,-151,-141,-151,-19,-63
14,234,219,-124,-102,226,-117,-151,-131,-141,-19,-63
14,234,219,-124,-102,226,-117,-151,-126,-136,-19,-63
19,234,214,-126,-97,224,-117,-151,-126,-136,-19,-68
19,234,214,-126,-97,224,-112,-146,-131,-141,-19,-68
4,229,224,-117,-109,226,-122,-146,-136,-151,-34,-78
4,229,224,-117,-109,226,-122,-146,-136,-141,-34,-78
4,224,219,-114,-107,222,-117,-146,-141,-141,-29,-73
4,224,219,-114,-107,222,-112,-141,-146,-141,-24,-68
4,224,219,-114,-107,222,-107,-131,-136,-131,-24,-68
4,224,219,-114,-107,222,-107,-131,-136,-131,-24,-68
4,224,219,-114,-107,222,-107,-131,-136,-131,-29,-68
4,224,219,-114,-107,222,-107,-131,-136,-131,-29,-68
4,214,209,-109,-102,212,-107,-131,-136,-122,-19,-73
0,214,214,-107,-107,214,-102,-131,-136,-126,-19,-73
0,214,214,-107,-107,214,-102,-131,-131,-131,-19,-73
0,214,214,-107,-107,214,-102,-126,-131,-131,-14,-73
9,224,214,-117,-102,219,-92,-122,-122,-131,-14,-73
9,224,214,-117,-102,219,-92,-122,-122,-131,-14,-73
9,224,214,-117,-102,219,-97,-122,-122,-131,-14,-73
9,219,209,-114,-100,214,-97,-122,-122,-136,-14,-73
14,209,195,-112,-90,202,-92,-117,-131,-126,-9,-63
14,214,200,-114,-92,207,-87,-117,-126,-126,-9,-63
14,214,200,-114,-92,207,-82,-107,-126,-126,-9,-63
9,209,200,-109,-95,204,-82,-107,-126,-126,-9,-63
0,200,200,-100,-100,200,-82,-112,-126,-131,-24,-73
0,200,200,-100,-100,200,-82,-112,-126,-131,-24,-78
0,204,204,-102,-102,204,-82,-112,-126,-136,-29,-78
0,204,204,-102,-102,204,-82,-107,-122,-136,-29,-78
9,204,195,-107,-92,200,-73,-92,-122,-126,-24,-78
9,200,190,-104,-90,195,-78,-92,-117,-136,-19,-73
9,200,190,-104,-90,195,-78,-92,-117,-136,-14,-73
9,200,190,-104,-90,195,-73,-92,-117,-141,-9,-78
9,200,190,-104,-90,195,-73,-102,-126,-141,-19,-87
9,200,190,-104,-90,195,-73,-97,-122,-136,-19,-87
9,200,190,-104,-90,195,-68,-87,-122,-136,-14,-82
14,204,190,-109,-87,197,-68,-87,-126,-136,-14,-82
14,204,190,-109,-87,197,-68,-87,-117,-151,-29,-87
14,204,190,-109,-87,197,-68,-87,-117,-161,-34,-87
14,204,190,-109,-87,197,-68,-82,-117,-165,-34,-87
14,204,190,-109,-87,197,-68,-82,-117,-165,-34,-87
14,195,180,-104,-82,187,-68,-82,-126,-161,-43,-92
14,195,180,-104,-82,187,-68,-82,-126,-161,-39,-92
14,195,180,-104,-82,187,-68,-82,-126,-161,-39,-92
14,195,180,-104,-82,187,-68,-78,-131,-161,-39,-92
14,204,190,-109,-87,197,-68,-78,-122,-161,-39,-92
14,200,185,-107,-85,192,-63,-78,-122,-165,-39,-92
14,195,180,-104,-82,187,-63,-78,-122,-165,-39,-92
14,195,180,-104,-82,187,-63,-78,-122,-165,-39,-92
14,195,180,-104,-82,187,-63,-78,-126,-165,-39,-92
14,200,185,-107,-85,192,-58,-73,-126,-165,-39,-97
14,200,185,-107,-85,192,-58,-73,-126,-170,-39,-97
14,195,180,-104,-82,187,-63,-78,-126,-175,-43,-97
29,204,175,-117,-73,190,-63,-78,-126,-175,-43,-97
29,200,170,-114,-70,185,-63,-82,-126,-175,-43,-97
29,200,170,-114,-70,185,-63,-82,-126,-175,-34,-97
29,200,170,-114,-70,185,-63,-82,-126,-175,-34,-97
14,204,190,-109,-87,197,-63,-82,-117,-165,-34,-97
14,204,190,-109,-87,197,-68,-82,-117,-165,-34,-102
19,204,185,-112,-82,195,-68,-78,-117,-165,-39,-102
19,209,190,-114,-85,200,-68,-78,-117,-170,-43,-97
9,204,195,-107,-92,200,-78,-82,-131,-180,-43,-97
4,200,195,-102,-95,197,-78,-82,-131,-180,-43,-97
4,195,190,-100,-92,192,-78,-82,-131,-175,-48,-97
9,190,180,-100,-85,185,-78,-82,-131,-175,-48,-97
19,200,180,-109,-80,190,-78,-82,-131,-170,-43,-102
19,200,180,-109,-80,190,-82,-87,-131,-170,-43,-102
19,200,180,-109,-80,190,-82,-92,-136,-175,-48,-102
19,200,180,-109,-80,190,-82,-97,-136,-180,-48,-102
9,200,190,-104,-90,195,-73,-87,-146,-190,-58,-112
9,200,190,-104,-90,195,-73,-87,-146,-185,-58,-117
9,200,190,-104,-90,195,-78,-92,-146,-185,-58,-117
9,204,195,-107,-92,200,-78,-92,-146,-190,-58,-117
9,204,195,-107,-92,200,-78,-92,-136,-185,-43,-107
9,204,195,-107,-92,200,-78,-92,-136,-185,-43,-107
9,204,195,-107,-92,200,-82,-97,-136,-185,-48,-107
9,204,195,-107,-92,200,-82,-97,-136,-185,-53,-107
19,204,185,-112,-82,195,-82,-107,-146,-185,-68,-112
14,204,190,-109,-87,197,-82,-117,-151,-185,-68,-112
14,204,190,-109,-87,197,-87,-117,-156,-195,-68,-112
19,204,185,-112,-82,195,-87,-117,-156,-195,-63,-112
19,209,190,-114,-85,200,-87,-117,-161,-200,-63,-122
19,209,190,-114,-85,200,-92,-117,-161,-195,-58,-117
19,204,185,-112,-82,195,-92,-126,-161,-195,-58,-117
19,204,185,-112,-82,195,-92,-126,-165,-200,-58,-117
19,204,185,-112,-82,195,-102,-126,-165,-200,-58,-117
19,204,185,-112,-82,195,-102,-126,-161,-200,-63,-117
19,204,185,-112,-82,195,-107,-126,-161,-200,-63,-122
19,204,185,-112,-82,195,-107,-136,-165,-200,-68,-131
9,204,195,-107,-92,200,-97,-131,-170,-204,-73,-126
9,204,195,-107,-92,200,-97,-131,-175,-209,-73,-126
9,204,195,-107,-92,200,-102,-136,-175,-209,-73,-126
9,204,195,-107,-92,200,-102,-136,-175,-209,-73,-126
19,195,175,-107,-78,185,-102,-136,-170,-219,-78,-136
19,195,175,-107,-78,185,-102,-136,-170,-219,-78,-131
19,190,170,-104,-75,180,-107,-141,-170,-219,-78,-131
19,190,170,-104,-75,180,-107,-141,-165,-219,-73,-131
9,180,170,-95,-80,175,-107,-141,-175,-219,-73,-141
9,180,170,-95,-80,175,-102,-141,-175,-214,-73,-141
9,180,170,-95,-80,175,-102,-146,-185,-214,-78,-141
9,180,170,-95,-80,175,-102,-146,-185,-219,-78,-141
19,190,170,-104,-75,180,-102,-156,-185,-229,-87,-151
19,190,170,-104,-75,180,-107,-156,-180,-229,-87,-151
19,190,170,-104,-75,180,-112,-161,-180,-224,-87,-146
19,190,170,-104,-75,180,-112,-161,-185,-224,-87,-146
19,190,170,-104,-75,180,-112,-156,-185,-229,-87,-151
19,190,170,-104,-75,180,-112,-156,-185,-234,-87,-151
19,190,170,-104,-75,180,-112,-156,-185,-239,-92,-156
19,190,170,-104,-75,180,-112,-161,-185,-244,-92,-156
19,190,170,-104,-75,180,-102,-161,-185,-244,-82,-156
19,190,170,-104,-75,180,-102,-161,-185,-248,-87,-156
19,185,165,-102,-73,175,-107,-165,-185,-248,-87,-156
19,185,165,-102,-73,175,-107,-165,-190,-248,-87,-156
19,180,161,-100,-70,170,-112,-175,-190,-258,-87,-156
19,180,161,-100,-70,170,-112,-180,-190,-253,-87,-151
19,180,161,-100,-70,170,-112,-180,-190,-253,-87,-151
14,175,161,-95,-73,168,-117,-180,-195,-258,-87,-151
4,175,170,-90,-82,173,-117,-175,-204,-268,-87,-156
4,170,165,-87,-80,168,-117,-175,-204,-268,-87,-156
4,170,165,-87,-80,168,-117,-175,-204,-268,-92,-156
4,165,161,-85,-78,163,-117,-175,-200,-263,-92,-156
19,175,156,-97,-68,165,-117,-185,-200,-253,-92,-165
19,175,156,-97,-68,165,-117,-185,-200,-258,-92,-165
19,170,151,-95,-65,161,-122,-185,-200,-263,-92,-165
19,170,151,-95,-65,161,-126,-185,-200,-268,-92,-165
9,170,161,-90,-75,165,-117,-180,-200,-268,-102,-170
9,165,156,-87,-73,161,-112,-180,-200,-273,-107,-175
0,165,165,-82,-82,165,-112,-185,-200,-273,-107,-175
0,165,165,-82,-82,165,-112,-185,-200,-273,-107,-170
4,175,170,-90,-82,173,-112,-185,-200,-273,-92,-170
9,180,170,-95,-80,175,-112,-185,-204,-268,-92,-165
9,185,175,-97,-82,180,-117,-185,-204,-268,-92,-165
9,185,175,-97,-82,180,-117,-190,-200,-263,-92,-165
9,170,161,-90,-75,165,-126,-200,-209,-268,-92,-175
9,170,161,-90,-75,165,-126,-200,-214,-273,-92,-180
9,170,161,-90,-75,165,-126,-200,-214,-278,-97,-180
9,170,161,-90,-75,165,-126,-200,-214,-283,-97,-180
9,180,170,-95,-80,175,-117,-190,-209,-283,-87,-165
9,180,170,-95,-80,175,-117,-190,-209,-278,-87,-165
9,180,170,-95,-80,175,-117,-190,-209,-278,-87,-165
9,180,170,-95,-80,175,-117,-190,-209,-278,-82,-165
9,180,170,-95,-80,175,-131,-200,-209,-278,-82,-175
9,180,170,-95,-80,175,-131,-200,-209,-278,-92,-175
19,180,161,-100,-70,170,-126,-190,-209,-283,-82,-170
19,170,151,-95,-65,161,-126,-204,-209,-283,-87,-170
9,175,165,-92,-78,170,-126,-204,-224,-283,-87,-185
9,175,165,-92,-78,170,-126,-204,-214,-292,-97,-185
9,175,165,-92,-78,170,-126,-204,-214,-292,-97,-185
9,175,165,-92,-78,170,-126,-204,-214,-292,-97,-185
9,175,165,-92,-78,170,-126,-204,-214,-292,-97,-185
9,165,156,-87,-73,161,-117,-204,-224,-292,-107,-185
9,165,156,-87,-73,161,-117,-204,-224,-292,-107,-185
9,165,156,-87,-73,161,-117,-204,-224,-292,-107,-185
9,165,156,-87,-73,161,-117,-204,-224,-292,-107,-185
9,165,156,-87,-73,161,-126,-204,-224,-302,-117,-195
9,165,156,-87,-73,161,-126,-204,-224,-302,-117,-195
9,165,156,-87,-73,161,-126,-204,-224,-302,-117,-195
9,165,156,-87,-73,161,-126,-204,-224,-302,-117,-195
9,165,156,-87,-73,161,-126,-204,-224,-302,-117,-195
9,165,156,-87,-73,161,-126,-204,-224,-302,-117,-195
9,165,156,-87,-73,161,-126,-204,-224,-302,-117,-195
9,165,156,-87,-73,161,-126,-204,-224,-302,-117,-195
9,156,146,-82,-68,151,-126,-204,-224,-302,-107,-195
9,156,146,-82,-68,151,-126,-204,-224,-302,-107,-195
9,156,146,-82,-68,151,-126,-204,-224,-302,-107,-195
9,156,146,-82,-68,151,-126,-204,-224,-302,-107,-195
0,146,146,-73,-73,146,-126,-214,-224,-312,-107,-195
0,146,146,-73,-73,146,-126,-214,-224,-312,-107,-195
0,146,146,-73,-73,146,-126,-214,-224,-312,-107,-195
0,146,146,-73,-73,146,-126,-214,-224,-312,-107,-195
9,146,136,-78,-63,141,-126,-214,-224,-312,-107,-185
9,146,136,-78,-63,141,-126,-214,-224,-312,-107,-185
9,146,136,-78,-63,141,-126,-214,-224,-312,-107,-185
9,146,136,-78,-63,141,-126,-214,-224,-312,-107,-185
9,146,136,-78,-63,141,-126,-214,-234,-312,-117,-190
9,146,136,-78,-63,141,-126,-214,-234,-312,-117,-195
9,146,136,-78,-63,141,-126,-214,-234,-312,-117,-200
9,146,136,-78,-63,141,-126,-214,-234,-312,-117,-204
19,156,136,-87,-58,146,-126,-214,-229,-302,-107,-195
19,156,136,-87,-58,146,-126,-214,-224,-302,-107,-195
19,156,136,-87,-58,146,-126,-214,-219,-302,-107,-195
19,156,136,-87,-58,146,-126,-214,-214,-302,-107,-195
19,146,126,-82,-53,136,-126,-214,-219,-312,-97,-195
19,146,126,-82,-53,136,-126,-214,-224,-312,-97,-195
19,146,126,-82,-53,136,-126,-214,-229,-312,-97,-195
19,146,126,-82,-53,136,-126,-214,-234,-312,-97,-195
19,146,126,-82,-53,136,-126,-214,-224,-322,-102,-204
19,146,126,-82,-53,136,-126,-214,-224,-322,-107,-204
19,146,126,-82,-53,136,-126,-214,-224,-322,-112,-204
19,146,126,-82,-53,136,-126,-214,-224,-322,-117,-204
9,146,136,-78,-63,141,-136,-214,-234,-322,-117,-214
9,146,136,-78,-63,141,-136,-214,-234,-322,-117,-214
9,146,136,-78,-63,141,-136,-214,-234,-322,-117,-214
9,146,136,-78,-63,141,-136,-214,-234,-322,-117,-214
9,141,131,-75,-61,136,-136,-224,-239,-336,-122,-219
9,136,126,-73,-58,131,-136,-224,-244,-341,-126,-224
9,131,122,-70,-56,126,-136,-224,-248,-346,-131,-229
9,126,117,-68,-53,122,-136,-224,-253,-351,-136,-234
19,136,117,-78,-48,126,-126,-214,-248,-346,-126,-229
19,136,117,-78,-48,126,-126,-214,-244,-341,-126,-224
19,136,117,-78,-48,126,-126,-214,-239,-336,-126,-219
19,136,117,-78,-48,126,-126,-214,-234,-331,-126,-214
29,136,107,-82,-39,122,-126,-214,-224,-331,-117,-214
29,136,107,-82,-39,122,-126,-214,-224,-331,-117,-214
29,136,107,-82,-39,122,-126,-214,-224,-331,-117,-214
29,136,107,-82,-39,122,-126,-214,-224,-331,-117,-214
24,126,102,-75,-39,114,-126,-214,-229,-341,-117,-224
19,126,107,-73,-43,117,-126,-214,-234,-341,-117,-224
14,126,112,-70,-48,119,-126,-214,-239,-341,-117,-224
9,126,117,-68,-53,122,-126,-214,-244,-341,-117,-224
9,136,126,-73,-58,131,-126,-214,-234,-331,-117,-214
9,136,126,-73,-58,131,-126,-214,-234,-331,-117,-214
9,136,126,-73,-58,131,-126,-214,-234,-331,-117,-214
9,136,126,-73,-58,131,-126,-214,-234,-331,-117,-214
19,126,107,-73,-43,117,-126,-214,-234,-341,-117,-214
19,126,107,-73,-43,117,-126,-214,-234,-341,-117,-214
19,126,107,-73,-43,117,-126,-214,-234,-341,-117,-214
19,126,107,-73,-43,117,-126,-214,-234,-341,-117,-214
9,117,107,-63,-48,112,-126,-214,-234,-331,-107,-214
9,117,107,-63,-48,112,-126,-214,-234,-331,-107,-214
9,117,107,-63,-48,112,-126,-214,-234,-331,-107,-214
9,117,107,-63,-48,112,-126,-214,-234,-331,-107,-214
9,107,97,-58,-43,102,-126,-214,-244,-336,-112,-224
9,107,97,-58,-43,102,-126,-214,-244,-341,-117,-224
9,107,97,-58,-43,102,-126,-214,-244,-346,-122,-224
9,107,97,-58,-43,102,-126,-214,-244,-351,-126,-224
19,107,87,-63,-34,97,-117,-204,-244,-351,-117,-224
19,107,87,-63,-34,97,-117,-204,-244,-351,-117,-224
19,107,87,-63,-34,97,-117,-204,-244,-351,-117,-224
19,107,87,-63,-34,97,-117,-204,-244,-351,-117,-224
19,107,87,-63,-34,97,-126,-214,-234,-341,-112,-214
19,107,87,-63,-34,97,-126,-214,-234,-341,-107,-214
19,107,87,-63,-34,97,-126,-214,-234,-341,-102,-214
19,107,87,-63,-34,97,-126,-214,-234,-341,-97,-214
19,107,87,-63,-34,97,-117,-204,-234,-341,-107,-224
19,107,87,-63,-34,97,-117,-204,-234,-341,-107,-224
19,107,87,-63,-34,97,-117,-204,-234,-341,-107,-224
19,107,87,-63,-34,97,-117,-204,-234,-341,-107,-224
19,97,78,-58,-29,87,-117,-214,-244,-351,-107,-234
19,97,78,-58,-29,87,-117,-214,-244,-351,-107,-234
19,97,78,-58,-29,87,-117,-214,-244,-351,-107,-234
19,97,78,-58,-29,87,-117,-214,-244,-351,-107,-234
19,107,87,-63,-34,97,-117,-204,-234,-341,-97,-229
19,107,87,-63,-34,97,-117,-204,-234,-341,-97,-224
19,107,87,-63,-34,97,-117,-204,-234,-341,-97,-219
19,107,87,-63,-34,97,-117,-204,-234,-341,-97,-214
9,102,92,-56,-41,97,-117,-204,-234,-351,-107,-224
9,97,87,-53,-39,92,-117,-204,-234,-351,-107,-224
9,92,82,-51,-36,87,-117,-204,-234,-351,-107,-224
9,87,78,-48,-34,82,-117,-204,-234,-351,-107,-224
19,78,58,-48,-19,68,-117,-204,-234,-341,-97,-224
19,78,58,-48,-19,68,-117,-204,-234,-341,-97,-224
19,78,58,-48,-19,68,-117,-204,-234,-341,-97,-224
19,78,58,-48,-19,68,-117,-204,-234,-341,-97,-224
29,87,58,-58,-14,73,-117,-204,-234,-351,-107,-224
29,87,58,-58,-14,73,-117,-204,-234,-351,-107,-224
29,87,58,-58,-14,73,-117,-204,-234,-351,-107,-224
29,87,58,-58,-14,73,-117,-204,-234,-351,-107,-224
19,87,68,-53,-24,78,-117,-204,-244,-341,-97,-224
19,87,68,-53,-24,78,-117,-204,-244,-341,-97,-224
19,87,68,-53,-24,78,-117,-204,-244,-341,-97,-224
19,87,68,-53,-24,78,-117,-204,-244,-341,-97,-224
9,82,73,-46,-31,78,-117,-195,-234,-351,-107,-234
9,78,68,-43,-29,73,-117,-195,-234,-351,-107,-234
9,73,63,-41,-26,68,-117,-195,-234,-351,-107,-234
9,68,58,-39,-24,63,-117,-195,-234,-351,-107,-234
19,78,58,-48,-19,68,-107,-204,-224,-341,-102,-224
19,78,58,-48,-19,68,-107,-204,-224,-341,-97,-224
19,78,58,-48,-19,68,-107,-204,-224,-341,-92,-224
19,78,58,-48,-19,68,-107,-204,-224,-341,-87,-224
19,73,53,-46,-17,63,-117,-204,-229,-346,-102,-229
19,68,48,-43,-14,58,-117,-204,-234,-351,-107,-234
19,63,43,-41,-12,53,-117,-204,-239,-356,-112,-239
19,58,39,-39,-9,48,-117,-204,-244,-361,-117,-244
19,58,39,-39,-9,48,-107,-204,-234,-361,-112,-239
19,58,39,-39,-9,48,-107,-204,-234,-361,-107,-234
19,58,39,-39,-9,48,-107,-204,-234,-361,-102,-229
19,58,39,-39,-9,48,-107,-204,-234,-361,-97,-224
29,58,29,-43,0,43,-107,-195,-224,-356,-87,-224
29,58,29,-43,0,43,-107,-195,-224,-351,-87,-224
29,58,29,-43,0,43,-107,-195,-224,-346,-87,-224
29,58,29,-43,0,43,-107,-195,-224,-341,-87,-224
29,58,29,-43,0,43,-107,-195,-234,-351,-97,-234
29,58,29,-43,0,43,-107,-195,-234,-351,-97,-234
29,58,29,-43,0,43,-107,-195,-234,-351,-97,-234
29,58,29,-43,0,43,-107,-195,-234,-351,-97,-234
29,48,19,-39,4,34,-107,-195,-234,-361,-107,-234
29,48,19,-39,4,34,-107,-195,-234,-361,-107,-234
29,48,19,-39,4,34,-107,-195,-234,-361,-107,-234
29,48,19,-39,4,34,-107,-195,-234,-361,-107,-234
39,53,14,-46,12,34,-97,-185,-224,-356,-102,-224
39,58,19,-48,9,39,-97,-185,-224,-351,-97,-224
39,63,24,-51,7,43,-97,-185,-224,-346,-92,-224
39,68,29,-53,4,48,-97,-185,-224,-341,-87,-224
29,68,39,-48,-4,53,-92,-175,-209,-326,-73,-209
29,68,39,-48,-4,53,-87,-175,-204,-322,-68,-204
29,68,39,-48,-4,53,-82,-175,-200,-317,-63,-200
29,68,39,-48,-4,53,-78,-175,-195,-312,-58,-195
39,73,34,-56,2,53,-63,-165,-185,-322,-63,-195
39,78,39,-58,0,58,-58,-165,-185,-322,-68,-195
39,82,43,-61,-2,63,-53,-165,-185,-322,-73,-195
39,87,48,-63,-4,68,-48,-165,-185,-322,-78,-195
34,78,43,-56,-4,61,-43,-161,-175,-322,-68,-185
29,78,48,-53,-9,63,-39,-156,-175,-322,-68,-185
24,78,53,-51,-14,65,-34,-151,-175,-322,-68,-185
19,78,58,-48,-19,68,-29,-146,-175,-322,-68,-185
29,87,58,-58,-14,73,-29,-146,-165,-312,-58,-185
29,87,58,-58,-14,73,-29,-146,-165,-312,-58,-185
29,87,58,-58,-14,73,-29,-146,-165,-312,-58,-185
29,87,58,-58,-14,73,-29,-146,-165,-312,-58,-185
39,87,48,-63,-4,68,-48,-151,-165,-312,-58,-180
39,87,48,-63,-4,68,-58,-156,-165,-312,-58,-175
39,87,48,-63,-4,68,-68,-161,-165,-312,-58,-170
39,87,48,-63,-4,68,-78,-165,-165,-312,-58,-165
39,78,39,-58,0,58,-92,-175,-165,-322,-58,-175
39,73,34,-56,2,53,-102,-180,-175,-326,-63,-175
43,68,24,-56,9,46,-107,-185,-180,-326,-68,-180
43,63,19,-53,12,41,-112,-190,-185,-326,-73,-180
43,63,19,-53,12,41,-117,-190,-195,-341,-82,-190
39,63,24,-51,7,43,-122,-195,-195,-346,-87,-200
39,53,14,-46,12,34,-126,-195,-195,-356,-92,-204
34,48,14,-41,9,31,-131,-200,-200,-366,-107,-219
34,34,0,-34,17,17,-136,-204,-204,-370,-112,-214
34,24,-9,-29,21,7,-151,-214,-219,-375,-117,-219
34,19,-14,-26,24,2,-156,-224,-229,-380,-117,-219
34,14,-19,-24,26,-2,-156,-234,-234,-385,-117,-224
24,9,-14,-17,19,-2,-146,-234,-229,-375,-107,-219
29,4,-24,-17,26,-9,-151,-229,-229,-380,-102,-214
34,9,-24,-21,29,-7,-151,-224,-229,-380,-97,-204
34,9,-24,-21,29,-7,-151,-224,-224,-380,-92,-195
24,14,-9,-19,17,2,-161,-229,-219,-375,-92,-200
34,19,-14,-26,24,2,-161,-229,-219,-370,-97,-204
43,24,-19,-34,31,2,-165,-234,-219,-370,-102,-209
48,29,-19,-39,34,4,-165,-234,-219,-370,-102,-209
58,29,-29,-43,43,0,-165,-224,-219,-375,-102,-219
63,19,-43,-41,53,-12,-170,-239,-229,-380,-107,-224
63,19,-43,-41,53,-12,-175,-244,-239,-400,-122,-224
68,19,-48,-43,58,-14,-180,-248,-239,-414,-122,-234
68,19,-48,-43,58,-14,-185,-248,-239,-405,-122,-234
63,19,-43,-41,53,-12,-185,-258,-244,-409,-131,-234
58,19,-39,-39,48,-9,-185,-258,-248,-409,-131,-229
48,19,-29,-34,39,-4,-175,-258,-248,-409,-131,-224
39,19,-19,-29,29,0,-175,-253,-234,-405,-126,-219
34,19,-14,-26,24,2,-165,-244,-229,-400,-126,-209
29,29,0,-29,14,14,-156,-244,-219,-395,-122,-209
29,29,0,-29,14,14,-141,-234,-219,-390,-112,-204
24,19,-4,-21,14,7,-126,-224,-209,-395,-112,-204
19,14,-4,-17,12,4,-117,-219,-209,-395,-112,-204
19,14,-4,-17,12,4,-117,-214,-209,-400,-117,-209
19,9,-9,-14,14,0,-112,-214,-214,-400,-122,-209
24,9,-14,-17,19,-2,-122,-204,-204,-405,-112,-209
24,-4,-29,-9,26,-17,-117,-200,-209,-405,-117,-224
19,-9,-29,-4,24,-19,-112,-200,-209,-409,-122,-224
14,-24,-39,4,26,-31,-107,-195,-209,-409,-122,-224
14,-24,-39,4,26,-31,-102,-204,-209,-419,-117,-224
14,-24,-39,4,26,-31,-102,-204,-209,-419,-112,-219
19,-24,-43,2,31,-34,-102,-204,-204,-409,-107,-209
19,-24,-43,2,31,-34,-97,-204,-204,-409,-92,-200
19,-29,-48,4,34,-39,-87,-204,-219,-419,-97,-209
14,-39,-53,12,34,-46,-92,-209,-224,-424,-112,-214
14,-39,-53,12,34,-46,-97,-209,-224,-424,-117,-224
9,-34,-43,12,26,-39,-97,-209,-224,-424,-122,-224
0,-43,-43,21,21,-43,-97,-209,-214,-424,-117,-224
4,-43,-48,19,26,-46,-97,-209,-219,-419,-117,-224
9,-39,-48,14,29,-43,-97,-209,-219,-419,-117,-224
9,-39,-48,14,29,-43,-97,-209,-219,-419,-112,-224
-4,-43,-39,24,17,-41,-97,-209,-209,-419,-107,-209
-9,-48,-39,29,14,-43,-97,-209,-209,-414,-102,-209
-9,-48,-39,29,14,-43,-97,-209,-209,-414,-102,-214
-9,-48,-39,29,14,-43,-97,-209,-209,-419,-102,-214
0,-58,-58,29,29,-58,-97,-200,-214,-429,-112,-224
4,-53,-58,24,31,-56,-97,-195,-214,-429,-112,-219
4,-53,-58,24,31,-56,-97,-195,-214,-424,-112,-219
4,-53,-58,24,31,-56,-92,-200,-214,-424,-112,-219
14,-68,-82,26,48,-75,-92,-200,-204,-434,-117,-234
14,-68,-82,26,48,-75,-92,-200,-204,-434,-122,-239
14,-63,-78,24,46,-70,-97,-200,-209,-434,-126,-239
14,-63,-78,24,46,-70,-97,-200,-209,-434,-131,-234
14,-73,-87,29,51,-80,-97,-195,-204,-429,-126,-244
14,-73,-87,29,51,-80,-97,-195,-204,-429,-126,-239
14,-73,-87,29,51,-80,-97,-195,-204,-424,-126,-239
14,-68,-82,26,48,-75,-97,-195,-204,-414,-126,-239
4,-68,-73,31,39,-70,-97,-195,-190,-409,-107,-224
4,-63,-68,29,36,-65,-97,-190,-190,-409,-102,-219
4,-63,-68,29,36,-65,-97,-190,-190,-405,-97,-214
4,-68,-73,31,39,-70,-97,-190,-190,-400,-92,-209
0,-78,-78,39,39,-78,-97,-190,-190,-405,-97,-219
0,-78,-78,39,39,-78,-92,-190,-190,-414,-117,-219
9,-73,-82,31,46,-78,-92,-190,-200,-434,-126,-224
29,-68,-97,19,63,-82,-82,-180,-214,-448,-136,-224
29,-87,-117,29,73,-102,-73,-185,-214,-453,-141,-234
9,-107,-117,48,63,-112,-68,-195,-214,-453,-151,-244
0,-126,-126,63,63,-126,-63,-214,-229,-468,-161,-253
-9,-136,-126,73,58,-131,-48,-224,-248,-492,-175,-283
-24,-136,-112,80,43,-124,-29,-234,-263,-517,-195,-297
-39,-136,-97,87,29,-117,14,-219,-258,-522,-219,-307
-48,-156,-107,102,29,-131,39,-209,-268,-546,-239,-331
-43,-180,-136,112,46,-158,39,-214,-278,-546,-244,-341
-34,-170,-136,102,51,-153,48,-214,-258,-531,-239,-322
-29,-141,-112,85,41,-126,43,-214,-248,-527,-229,-307
-14,-117,-102,65,43,-109,24,-219,-239,-507,-204,-278
14,-78,-92,31,53,-85,-4,-224,-214,-458,-146,-209
34,-24,-58,-4,46,-41,-14,-204,-161,-385,-68,-131
48,19,-29,-34,39,-4,-9,-170,-112,-326,4,-63
73,73,0,-73,36,36,0,-141,-53,-258,78,9
97,156,58,-126,19,107,0,-97,24,-156,185,112
146,273,126,-209,9,200,4,0,165,-19,346,258
190,444,253,-317,-31,348,34,175,366,175,546,453
219,629,409,-424,-95,519,73,336,570,400,761,668
253,810,556,-531,-151,683,112,483,746,590,971,878
283,995,712,-639,-214,854,136,619,927,790,1195,1083
312,1171,858,-741,-273,1015,161,766,1122,995,1415,1312
356,1342,985,-849,-314,1163,185,917,1302,1190,1620,1522
390,1493,1102,-941,-356,1298,200,1044,1483,1376,1805,1703
409,1678,1268,-1044,-429,1473,224,1210,1693,1586,2030,1912
385,1834,1449,-1110,-531,1642,302,1444,1937,1825,2259,2137
336,1898,1561,-1117,-612,1729,448,1761,2147,2000,2435,2288
283,1820,1537,-1051,-627,1678,610,2069,2278,2069,2503,2322
239,1678,1439,-958,-600,1559,722,2298,2308,2025,2435,2235
224,1498,1273,-861,-524,1385,795,2454,2235,1869,2264,2059
204,1317,1112,-761,-453,1215,844,2547,2137,1698,2069,1849
175,1180,1005,-678,-414,1093,897,2605,2074,1556,1903,1678
136,1034,897,-585,-380,966,961,2591,2000,1410,1717,1488
87,878,790,-483,-351,834,1000,2498,1903,1239,1507,1268
34,736,702,-385,-334,719,1019,2274,1766,1054,1293,1049
-34,575,610,-270,-322,592,1010,1888,1532,785,1015,780
-107,390,497,-141,-302,444,1000,1459,1166,434,653,448
-146,195,341,-24,-244,268,1015,1141,814,117,331,170
-165,39,204,63,-185,122,1044,966,585,-78,146,0
-170,-87,82,129,-126,-2,1083,858,424,-219,29,-102
-180,-180,0,180,-90,-90,1141,829,312,-317,-58,-190
-190,-239,-48,214,-70,-143,1215,858,268,-356,-107,-229
-200,-283,-82,241,-58,-183,1278,863,273,-361,-102,-244
-219,-307,-87,263,-65,-197,1327,824,268,-375,-112,-258
-229,-317,-87,273,-70,-202,1371,756,229,-409,-141,-302
-244,-351,-107,297,-68,-229,1439,707,180,-439,-175,-331
-258,-370,-112,314,-73,-241,1498,668,156,-473,-219,-356
-278,-390,-112,334,-82,-251,1561,624,117,-512,-258,-400
-302,-419,-117,361,-92,-268,1590,512,63,-566,-297,-429
-322,-439,-117,380,-102,-278,1576,375,-4,-605,-336,-458
-331,-448,-117,390,-107,-283,1561,239,-53,-639,-361,-468
-356,-468,-112,412,-122,-290,1590,146,-97,-673,-380,-478
-361,-473,-112,417,-124,-292,1620,58,-131,-692,-390,-497
-361,-483,-122,422,-119,-302,1615,-29,-161,-717,-400,-497
-366,-478,-112,422,-126,-295,1566,-78,-190,-707,-390,-488
-356,-448,-92,402,-131,-270,1546,-68,-180,-692,-375,-468
-341,-429,-87,385,-126,-258,1522,-29,-156,-683,-361,-463
-317,-419,-102,368,-107,-261,1478,-19,-156,-678,-356,-448
-307,-414,-107,361,-100,-261,1424,-29,-165,-678,-341,-419
-273,-375,-102,324,-85,-239,1376,-29,-161,-653,-312,-385
-244,-322,-78,283,-82,-200,1327,-9,-122,-610,-268,-341
-219,-287,-68,253,-75,-178,1268,24,-87,-585,-234,-317
-204,-278,-73,241,-65,-175,1176,29,-68,-570,-219,-317
-180,-263,-82,222,-48,-173,1034,9,-82,-570,-224,-322
-146,-248,-102,197,-21,-175,893,-9,-112,-590,-234,-317
-136,-244,-107,190,-14,-175,771,-19,-122,-600,-234,-312
-126,-244,-117,185,-4,-180,658,-19,-122,-580,-209,-287
-97,-224,-126,161,14,-175,546,-24,-122,-575,-200,-278
-78,-214,-136,146,29,-175,458,-34,-126,-566,-200,-273
-73,-214,-141,143,34,-178,380,-48,-126,-570,-190,-263
-68,-214,-146,141,39,-180,312,-58,-126,-570,-175,-258
-53,-200,-146,126,46,-173,239,-53,-122,-551,-161,-239
-34,-200,-165,117,65,-183,175,-48,-122,-531,-141,-219
-19,-200,-180,109,80,-190,131,-39,-112,-531,-126,-200
-4,-195,-190,100,92,-192,102,-39,-117,-536,-136,-214
-9,-190,-180,100,85,-185,82,-43,-126,-546,-146,-224
-4,-190,-185,97,90,-187,68,-43,-136,-551,-151,-229
4,-185,-190,90,97,-187,53,-43,-141,-556,-161,-234
9,-180,-190,85,100,-185,34,-43,-131,-556,-161,-234
9,-180,-190,85,100,-185,24,-43,-136,-556,-161,-234
14,-180,-195,82,104,-187,14,-48,-136,-561,-165,-239
14,-185,-200,85,107,-192,0,-48,-136,-561,-165,-239
9,-180,-190,85,100,-185,0,-48,-141,-561,-156,-229
9,-180,-190,85,100,-185,-14,-48,-141,-566,-161,-234
9,-180,-190,85,100,-185,-19,-53,-141,-570,-161,-234
9,-175,-185,82,97,-180,-19,-53,-146,-570,-161,-239
4,-180,-185,87,95,-183,-34,-48,-136,-580,-161,-234
9,-180,-190,85,100,-185,-39,-48,-136,-580,-161,-234
9,-180,-190,85,100,-185,-39,-48,-136,-580,-161,-239
9,-175,-185,82,97,-180,-43,-48,-136,-595,-161,-239
4,-185,-190,90,97,-187,-34,-48,-151,-605,-170,-239
4,-190,-195,92,100,-192,-39,-48,-151,-605,-170,-239
4,-195,-200,95,102,-197,-39,-48,-151,-605,-170,-239
4,-200,-204,97,104,-202,-43,-48,-151,-605,-170,-239
4,-185,-190,90,97,-187,-48,-43,-146,-600,-156,-234
9,-185,-195,87,102,-190,-48,-43,-146,-605,-151,-224
14,-185,-200,85,107,-192,-48,-43,-146,-610,-141,-224
19,-180,-200,80,109,-190,-48,-43,-146,-610,-136,-224
9,-185,-195,87,102,-190,-58,-43,-156,-629,-161,-244
9,-190,-200,90,104,-195,-58,-43,-161,-634,-180,-253
9,-195,-204,92,107,-200,-58,-39,-165,-634,-190,-258
9,-200,-209,95,109,-204,-58,-39,-170,-634,-204,-268
14,-209,-224,97,119,-217,-58,-39,-170,-624,-200,-268
19,-204,-224,92,122,-214,-58,-39,-170,-624,-195,-263
19,-204,-224,92,122,-214,-58,-39,-165,-624,-190,-253
19,-204,-224,92,122,-214,-58,-39,-161,-619,-180,-248
14,-219,-234,102,124,-226,-63,-48,-161,-610,-170,-248
14,-219,-234,102,124,-226,-63,-48,-161,-610,-180,-253
14,-219,-234,102,124,-226,-63,-43,-165,-619,-180,-253
14,-224,-239,104,126,-231,-63,-43,-165,-619,-175,-248
14,-224,-239,104,126,-231,-58,-43,-175,-624,-190,-258
9,-224,-234,107,122,-229,-58,-43,-175,-629,-200,-263
9,-224,-234,107,122,-229,-68,-39,-180,-634,-204,-268
14,-224,-239,104,126,-231,-68,-39,-180,-644,-214,-273
14,-234,-248,109,131,-241,-58,-29,-175,-639,-200,-258
14,-234,-248,109,131,-241,-58,-29,-175,-634,-195,-263
14,-234,-248,109,131,-241,-58,-24,-175,-624,-190,-258
14,-234,-248,109,131,-241,-58,-24,-175,-619,-190,-258
9,-244,-253,117,131,-248,-73,-19,-170,-629,-195,-263
9,-253,-263,122,136,-258,-73,-19,-175,-629,-204,-268
9,-253,-263,122,136,-258,-73,-19,-175,-624,-209,-273
9,-253,-263,122,136,-258,-73,-14,-180,-614,-214,-278
14,-239,-253,112,134,-246,-73,-19,-190,-629,-214,-278
19,-239,-258,109,139,-248,-78,-19,-190,-634,-219,-283
19,-234,-253,107,136,-244,-78,-14,-190,-639,-219,-283
19,-234,-253,107,136,-244,-78,-9,-190,-644,-219,-283
29,-234,-263,102,146,-248,-78,-4,-185,-639,-219,-278
29,-234,-263,102,146,-248,-82,0,-185,-639,-214,-278
29,-234,-263,102,146,-248,-82,4,-185,-639,-214,-273
24,-234,-258,104,141,-246,-82,9,-180,-639,-214,-273
14,-248,-263,117,139,-256,-82,19,-180,-639,-214,-268
14,-248,-263,117,139,-256,-82,24,-180,-639,-214,-268
19,-248,-268,114,143,-258,-82,29,-180,-639,-214,-278
24,-244,-268,109,146,-256,-82,39,-180,-644,-224,-278
24,-253,-278,114,151,-265,-92,34,-185,-653,-224,-268
24,-258,-283,117,153,-270,-92,39,-185,-653,-224,-273
29,-258,-287,114,158,-273,-92,48,-190,-658,-229,-273
29,-258,-287,114,158,-273,-87,58,-190,-658,-229,-273
29,-258,-287,114,158,-273,-78,63,-195,-658,-234,-283
34,-258,-292,112,163,-275,-82,63,-195,-658,-239,-283
34,-258,-292,112,163,-275,-87,78,-195,-663,-244,-283
39,-263,-302,112,170,-283,-87,87,-195,-673,-248,-287
29,-258,-287,114,158,-273,-87,97,-185,-663,-234,-278
29,-258,-287,114,158,-273,-87,107,-185,-663,-234,-278
34,-253,-287,109,161,-270,-92,117,-185,-663,-229,-278
34,-253,-287,109,161,-270,-92,131,-180,-663,-224,-273
39,-263,-302,112,170,-283,-92,136,-190,-668,-229,-283
43,-263,-307,109,175,-285,-92,151,-190,-673,-239,-287
53,-258,-312,102,183,-285,-97,170,-190,-673,-244,-287
58,-258,-317,100,187,-287,-97,185,-190,-678,-248,-287
48,-268,-317,109,183,-292,-107,185,-190,-688,-248,-297
48,-268,-317,109,183,-292,-107,200,-190,-683,-253,-297
53,-268,-322,107,187,-295,-107,219,-190,-683,-258,-297
58,-258,-317,100,187,-287,-107,234,-190,-683,-263,-297
73,-258,-331,92,202,-295,-117,253,-180,-668,-248,-283
78,-253,-331,87,204,-292,-117,273,-180,-658,-239,-278
82,-253,-336,85,209,-295,-117,287,-170,-653,-224,-268
87,-258,-346,85,217,-302,-117,307,-170,-649,-214,-263
82,-258,-341,87,212,-300,-122,326,-170,-653,-229,-268
87,-263,-351,87,219,-307,-122,341,-165,-653,-234,-273
92,-258,-351,82,222,-305,-126,356,-156,-658,-239,-278
92,-258,-351,82,222,-305,-126,380,-146,-653,-244,-283
112,-248,-361,68,236,-305,-126,395,-141,-658,-244,-278
122,-244,-366,61,244,-305,-131,405,-136,-653,-239,-278
126,-239,-366,56,246,-302,-136,419,-131,-649,-239,-278
141,-234,-375,46,258,-305,-136,434,-131,-649,-234,-263
136,-224,-361,43,248,-292,-151,444,-141,-634,-219,-244
141,-219,-361,39,251,-290,-151,453,-141,-634,-219,-234
141,-214,-356,36,248,-285,-156,463,-141,-634,-219,-229
151,-209,-361,29,256,-285,-156,478,-131,-639,-219,-224
146,-209,-356,31,251,-283,-156,483,-131,-644,-224,-234
151,-204,-356,26,253,-280,-165,492,-136,-639,-224,-239
156,-200,-356,21,256,-278,-165,507,-141,-639,-229,-239
161,-190,-351,14,256,-270,-175,512,-136,-644,-224,-244
156,-185,-341,14,248,-263,-175,517,-131,-639,-214,-224
156,-180,-336,12,246,-258,-175,517,-131,-634,-204,-219
156,-175,-331,9,244,-253,-175,517,-126,-629,-200,-204
161,-165,-326,2,244,-246,-180,517,-122,-629,-190,-200
170,-165,-336,-2,253,-251,-180,512,-112,-624,-175,-180
170,-161,-331,-4,251,-246,-180,517,-102,-610,-170,-165
175,-156,-331,-9,253,-244,-190,512,-92,-600,-165,-161
175,-146,-322,-14,248,-234,-195,502,-87,-590,-161,-161
190,-131,-322,-29,256,-226,-200,488,-68,-575,-156,-161
190,-117,-307,-36,248,-212,-200,473,-58,-575,-146,-151
190,-107,-297,-41,244,-202,-204,453,-58,-575,-146,-146
190,-92,-283,-48,236,-187,-204,434,-58,-570,-136,-131
185,-87,-273,-48,229,-180,-204,414,-58,-570,-146,-131
175,-82,-258,-46,217,-170,-204,390,-48,-566,-141,-117
170,-82,-253,-43,212,-168,-204,370,-48,-561,-136,-112
165,-73,-239,-46,202,-156,-204,346,-48,-561,-136,-107
175,-73,-248,-51,212,-161,-204,336,-43,-536,-122,-102
170,-73,-244,-48,207,-158,-200,312,-34,-527,-102,-87
165,-73,-239,-46,202,-156,-195,292,-19,-522,-87,-73
165,-63,-229,-51,197,-146,-195,273,-9,-517,-78,-63
146,-63,-209,-41,178,-136,-185,253,-4,-507,-58,-53
141,-63,-204,-39,173,-134,-175,234,0,-502,-58,-48
136,-63,-200,-36,168,-131,-165,219,4,-497,-53,-43
131,-73,-204,-29,168,-139,-161,195,4,-492,-53,-39
131,-63,-195,-34,163,-129,-136,185,9,-497,-58,-34
122,-63,-185,-29,153,-124,-131,170,14,-497,-58,-29
112,-58,-170,-26,141,-114,-122,151,19,-497,-58,-29
102,-58,-161,-21,131,-109,-117,131,19,-502,-53,-34
92,-68,-161,-12,126,-114,-102,122,34,-492,-58,-43
82,-82,-165,0,124,-124,-92,112,39,-492,-58,-39
82,-87,-170,2,126,-129,-92,102,39,-488,-58,-34
82,-87,-170,2,126,-129,-87,102,39,-488,-63,-34
73,-82,-156,4,114,-119,-73,87,53,-478,-53,-24
63,-82,-146,9,104,-114,-63,78,53,-473,-43,-24
58,-92,-151,17,104,-122,-58,73,63,-468,-34,-19
58,-97,-156,19,107,-126,-58,63,63,-468,-43,-19
48,-112,-161,31,104,-136,-43,58,73,-458,-39,-19
48,-117,-165,34,107,-141,-43,53,73,-458,-34,-19
48,-122,-170,36,109,-146,-39,43,73,-458,-34,-24
43,-122,-165,39,104,-143,-34,34,68,-463,-29,-29
39,-122,-161,41,100,-141,-29,19,68,-473,-39,-34
34,-126,-161,46,97,-143,-29,9,68,-473,-43,-34
29,-131,-161,51,95,-146,-29,4,63,-473,-53,-34
29,-136,-165,53,97,-151,-29,-4,58,-473,-73,-43
14,-131,-146,58,80,-139,-34,-4,53,-473,-68,-39
14,-136,-151,61,82,-143,-34,-9,53,-473,-63,-39
14,-136,-151,61,82,-143,-34,-14,58,-483,-58,-34
14,-136,-151,61,82,-143,-39,-24,58,-483,-53,-34
9,-151,-161,70,85,-156,-29,-29,58,-492,-63,-34
14,-151,-165,68,90,-158,-29,-29,53,-492,-63,-34
19,-151,-170,65,95,-161,-29,-29,53,-492,-63,-43
24,-156,-180,65,102,-168,-29,-34,48,-492,-63,-48
19,-161,-180,70,100,-170,-19,-29,58,-502,-78,-58
19,-161,-180,70,100,-170,-19,-34,58,-502,-82,-63
14,-161,-175,73,95,-168,-19,-34,63,-497,-87,-68
14,-156,-170,70,92,-163,-19,-39,63,-497,-87,-73
4,-146,-151,70,78,-148,-19,-39,78,-488,-68,-63
9,-151,-161,70,85,-156,-19,-39,82,-478,-63,-58
14,-151,-165,68,90,-158,-19,-39,87,-468,-58,-58
14,-161,-175,73,95,-168,-24,-39,92,-458,-58,-63
14,-170,-185,78,100,-178,-34,-48,73,-478,-82,-68
14,-170,-185,78,100,-178,-29,-53,63,-488,-92,-73
14,-165,-180,75,97,-173,-29,-53,53,-497,-107,-78
4,-165,-170,80,87,-168,-29,-48,43,-507,-117,-82
4,-165,-170,80,87,-168,-29,-48,53,-492,-107,-63
4,-165,-170,80,87,-168,-29,-53,58,-483,-92,-53
4,-165,-170,80,87,-168,-29,-53,58,-478,-78,-48
4,-165,-170,80,87,-168,-29,-53,63,-473,-68,-43
4,-175,-180,85,92,-178,-29,-53,53,-473,-68,-34
4,-175,-180,85,92,-178,-29,-53,58,-468,-68,-34
9,-175,-185,82,97,-180,-29,-53,58,-468,-68,-39
9,-175,-185,82,97,-180,-24,-48,53,-473,-68,-39
0,-180,-180,90,90,-180,-24,-48,58,-463,-82,-48
-4,-180,-175,92,85,-178,-24,-48,68,-453,-82,-48
-9,-185,-175,97,82,-180,-19,-48,73,-453,-78,-43
-14,-185,-170,100,78,-178,-14,-43,78,-453,-73,-39
-4,-185,-180,95,87,-183,-9,-34,68,-458,-82,-53
-4,-185,-180,95,87,-183,-9,-34,68,-463,-92,-58
-4,-185,-180,95,87,-183,-9,-34,68,-468,-107,-63
-4,-185,-180,95,87,-183,-9,-34,68,-473,-117,-68
4,-185,-190,90,97,-187,-9,-34,68,-468,-107,-73
0,-185,-185,92,92,-185,-4,-34,68,-468,-107,-73
0,-185,-185,92,92,-185,-4,-34,73,-468,-107,-73
0,-185,-185,92,92,-185,-4,-29,73,-463,-102,-73
-9,-185,-175,97,82,-180,-4,-24,82,-448,-87,-63
-9,-185,-175,97,82,-180,-4,-24,82,-444,-82,-53
-9,-185,-175,97,82,-180,-9,-24,82,-439,-78,-43
-9,-190,-180,100,85,-185,-9,-24,82,-439,-73,-34
-4,-190,-185,97,90,-187,-4,-19,97,-429,-53,-29
-4,-185,-180,95,87,-183,0,-19,107,-419,-48,-24
-4,-185,-180,95,87,-183,4,-9,112,-409,-43,-19
-9,-190,-180,100,85,-185,4,-9,117,-400,-39,-14
-19,-200,-180,109,80,-190,4,-14,102,-414,-58,-29
-19,-200,-180,109,80,-190,4,-14,97,-424,-73,-39
-19,-195,-175,107,78,-185,4,-14,92,-439,-92,-43
-19,-195,-175,107,78,-185,4,-9,92,-448,-107,-48
-19,-195,-175,107,78,-185,4,-4,82,-439,-107,-58
-19,-200,-180,109,80,-190,0,-4,87,-448,-107,-53
-19,-200,-180,109,80,-190,0,-4,87,-448,-107,-53
-19,-200,-180,109,80,-190,4,-4,87,-453,-107,-58
-19,-209,-190,114,85,-200,4,-4,87,-453,-117,-68
-19,-209,-190,114,85,-200,4,0,92,-448,-117,-68
-19,-209,-190,114,85,-200,9,9,92,-448,-112,-63
-14,-204,-190,109,87,-197,9,9,87,-448,-112,-63
-9,-195,-185,102,87,-190,9,9,97,-448,-112,-63
-4,-195,-190,100,92,-192,9,9,97,-453,-112,-58
0,-195,-195,97,97,-195,9,14,97,-453,-107,-53
4,-195,-200,95,102,-197,9,14,97,-448,-102,-48
0,-200,-200,100,100,-200,9,14,107,-439,-92,-39
-4,-204,-200,104,97,-202,9,14,107,-434,-87,-34
-9,-209,-200,109,95,-204,9,14,107,-429,-87,-29
-14,-214,-200,114,92,-207,9,19,102,-424,-87,-24
-24,-214,-190,119,82,-202,0,9,92,-434,-107,-34
-24,-219,-195,122,85,-207,4,9,92,-439,-107,-34
-24,-224,-200,124,87,-212,4,9,92,-439,-107,-34
-24,-224,-200,124,87,-212,4,9,92,-439,-107,-34
-14,-209,-195,112,90,-202,4,19,107,-429,-112,-43
-14,-200,-185,107,85,-192,9,24,107,-429,-117,-48
-14,-195,-180,104,82,-187,9,24,107,-434,-122,-48
-14,-195,-180,104,82,-187,4,19,107,-439,-131,-48
-19,-204,-185,112,82,-195,14,19,107,-439,-131,-48
-19,-209,-190,114,85,-200,14,14,107,-439,-131,-48
-19,-209,-190,114,85,-200,14,14,107,-439,-122,-48
-19,-209,-190,114,85,-200,14,14,107,-439,-122,-48
-34,-219,-185,126,75,-202,14,14,117,-424,-131,-58
-34,-224,-190,129,78,-207,9,14,117,-419,-131,-63
-29,-229,-200,129,85,-214,9,19,117,-414,-136,-63
-29,-229,-200,129,85,-214,9,19,117,-414,-141,-58
-19,-219,-200,119,90,-209,9,14,102,-405,-136,-53
-24,-219,-195,122,85,-207,9,14,102,-405,-131,-48
-24,-219,-195,122,85,-207,9,14,102,-400,-131,-43
-19,-219,-200,119,90,-209,9,14,102,-400,-126,-39
-29,-219,-190,124,80,-204,9,14,112,-390,-122,-43
-29,-219,-190,124,80,-204,4,9,112,-385,-122,-43
-29,-219,-190,124,80,-204,4,4,107,-385,-126,-43
-29,-219,-190,124,80,-204,4,0,107,-385,-126,-43
-19,-229,-209,124,95,-219,4,0,107,-385,-136,-53
-19,-229,-209,124,95,-219,4,0,107,-380,-136,-58
-19,-229,-209,124,95,-219,0,-4,107,-380,-136,-58
-19,-224,-204,122,92,-214,0,-4,107,-385,-136,-58
-29,-234,-204,131,87,-219,0,-14,117,-366,-122,-48
-29,-234,-204,131,87,-219,0,-14,117,-361,-122,-48
-29,-234,-204,131,87,-219,-4,-19,117,-356,-126,-48
-29,-234,-204,131,87,-219,-4,-19,117,-351,-131,-48
-29,-224,-195,126,82,-209,-14,-19,117,-361,-151,-58
-34,-224,-190,129,78,-207,-14,-29,112,-361,-156,-63
-34,-224,-190,129,78,-207,-19,-29,107,-370,-161,-68
-29,-224,-195,126,82,-209,-19,-29,107,-370,-161,-73
-39,-219,-180,129,70,-200,-9,-29,122,-356,-156,-58
-39,-219,-180,129,70,-200,-14,-29,122,-341,-146,-48
-39,-224,-185,131,73,-204,-14,-39,122,-331,-141,-43
-39,-224,-185,131,73,-204,-14,-39,117,-326,-136,-39
-39,-224,-185,131,73,-204,-24,-39,117,-322,-126,-29
-39,-224,-185,131,73,-204,-24,-39,122,-317,-131,-29
-39,-224,-185,131,73,-204,-29,-39,122,-312,-131,-34
-39,-224,-185,131,73,-204,-29,-48,117,-307,-136,-43
-39,-229,-190,134,75,-209,-29,-53,122,-302,-151,-48
-39,-234,-195,136,78,-214,-29,-53,117,-307,-151,-48
-39,-239,-200,139,80,-219,-34,-58,117,-307,-151,-48
-39,-244,-204,141,82,-224,-34,-58,117,-307,-151,-48
-39,-234,-195,136,78,-214,-24,-58,107,-307,-165,-63
-39,-234,-195,136,78,-214,-24,-58,102,-307,-165,-63
-39,-239,-200,139,80,-219,-29,-63,97,-307,-165,-68
-39,-239,-200,139,80,-219,-29,-63,97,-307,-161,-73
-39,-239,-200,139,80,-219,-29,-63,102,-302,-151,-63
-39,-239,-200,139,80,-219,-24,-63,107,-292,-151,-63
-39,-239,-200,139,80,-219,-24,-68,102,-287,-156,-63
-39,-239,-200,139,80,-219,-24,-68,107,-287,-156,-63
-39,-239,-200,139,80,-219,-14,-68,107,-287,-161,-73
-39,-239,-200,139,80,-219,-19,-68,112,-287,-165,-73
-39,-239,-200,139,80,-219,-24,-73,112,-283,-170,-68
-39,-239,-200,139,80,-219,-24,-73,107,-283,-175,-68
-29,-248,-219,139,95,-234,-24,-78,107,-273,-175,-82
-29,-248,-219,139,95,-234,-24,-78,107,-273,-175,-82
-29,-248,-219,139,95,-234,-24,-78,107,-273,-180,-87
-29,-248,-219,139,95,-234,-24,-82,107,-273,-180,-87
-39,-248,-209,143,85,-229,-24,-73,112,-263,-175,-82
-39,-248,-209,143,85,-229,-24,-73,117,-258,-175,-78
-39,-253,-214,146,87,-234,-29,-78,122,-248,-170,-73
-39,-253,-214,146,87,-234,-29,-78,122,-239,-165,-68
-29,-239,-209,134,90,-224,-34,-78,122,-239,-156,-53
-29,-239,-209,134,90,-224,-34,-82,122,-234,-156,-43
-29,-239,-209,134,90,-224,-34,-82,122,-234,-156,-39
-34,-244,-209,139,87,-226,-39,-82,117,-239,-156,-34
-43,-248,-204,146,80,-226,-29,-87,107,-248,-170,-53
-43,-258,-214,151,85,-236,-29,-87,107,-248,-175,-58
-43,-263,-219,153,87,-241,-29,-87,107,-248,-185,-63
-43,-273,-229,158,92,-251,-29,-87,112,-244,-190,-68
-48,-283,-234,165,92,-258,-29,-87,122,-229,-185,-58
-48,-283,-234,165,92,-258,-29,-87,122,-229,-180,-58
-48,-287,-239,168,95,-263,-34,-87,122,-229,-175,-58
-48,-287,-239,168,95,-263,-39,-87,122,-229,-170,-58
-39,-287,-248,163,104,-268,-39,-92,112,-219,-180,-68
-39,-292,-253,165,107,-273,-34,-92,112,-224,-195,-78
-48,-292,-244,170,97,-268,-34,-97,112,-224,-204,-82
-48,-292,-244,170,97,-268,-34,-97,112,-224,-214,-82
-43,-283,-239,163,97,-261,-34,-87,122,-214,-200,-82
-39,-278,-239,158,100,-258,-34,-87,117,-209,-200,-78
-39,-273,-234,156,97,-253,-39,-87,117,-209,-200,-78
-39,-273,-234,156,97,-253,-39,-92,122,-204,-200,-78
-43,-278,-234,161,95,-256,-39,-102,122,-204,-209,-87
-48,-278,-229,163,90,-253,-39,-102,117,-204,-209,-92
-53,-278,-224,165,85,-251,-39,-102,117,-204,-214,-92
-58,-278,-219,168,80,-248,-39,-102,117,-204,-214,-92
-53,-278,-224,165,85,-251,-39,-102,112,-204,-214,-78
-48,-278,-229,163,90,-253,-39,-102,112,-200,-214,-78
-43,-278,-234,161,95,-256,-39,-102,112,-200,-214,-78
-39,-278,-239,158,100,-258,-39,-102,112,-200,-209,-78
-48,-287,-239,168,95,-263,-34,-102,131,-180,-190,-78
-48,-287,-239,168,95,-263,-34,-102,122,-180,-209,-87
-39,-278,-239,158,100,-258,-48,-102,122,-185,-229,-102
-39,-268,-229,153,95,-248,-39,-97,122,-195,-244,-112
-39,-273,-234,156,97,-253,-39,-107,126,-195,-224,-107
-48,-273,-224,161,87,-248,-39,-107,126,-185,-204,-92
-48,-273,-224,161,87,-248,-39,-107,126,-175,-195,-78
-48,-273,-224,161,87,-248,-39,-107,126,-165,-185,-63
-48,-273,-224,161,87,-248,-39,-107,126,-156,-175,-48
-58,-268,-209,163,75,-239,-48,-117,126,-161,-195,-63
-58,-263,-204,161,73,-234,-48,-117,126,-165,-204,-78
-58,-258,-200,158,70,-229,-48,-117,126,-170,-214,-92
-58,-253,-195,156,68,-224,-48,-117,126,-175,-224,-107
-48,-263,-214,156,82,-239,-48,-117,117,-175,-234,-117
-48,-263,-214,156,82,-239,-48,-117,117,-175,-234,-117
-48,-263,-214,156,82,-239,-48,-117,117,-175,-234,-117
-48,-263,-214,156,82,-239,-48,-117,117,-175,-234,-117
-48,-268,-219,158,85,-244,-58,-117,131,-170,-234,-117
-48,-273,-224,161,87,-248,-58,-117,136,-165,-234,-117
-48,-278,-229,163,90,-253,-58,-117,141,-161,-234,-117
-48,-283,-234,165,92,-258,-58,-117,146,-156,-234,-117
-58,-278,-219,168,80,-248,-58,-126,136,-156,-244,-107
-58,-273,-214,165,78,-244,-58,-126,126,-156,-244,-107
-58,-268,-209,163,75,-239,-58,-126,117,-156,-244,-107
-58,-263,-204,161,73,-234,-58,-126,107,-156,-244,-107
-48,-253,-204,151,78,-229,-58,-126,112,-146,-239,-97
-48,-253,-204,151,78,-229,-58,-126,117,-146,-234,-97
-48,-253,-204,151,78,-229,-58,-126,122,-146,-229,-97
-48,-253,-204,151,78,-229,-58,-126,126,-146,-224,-97
-48,-253,-204,151,78,-229,-58,-126,126,-146,-229,-107
-48,-253,-204,151,78,-229,-58,-126,126,-146,-234,-107
-48,-253,-204,151,78,-229,-58,-126,126,-146,-239,-107
-48,-253,-204,151,78,-229,-58,-126,126,-146,-244,-107
-39,-248,-209,143,85,-229,-58,-126,117,-136,-253,-117
-39,-244,-204,141,82,-224,-58,-126,117,-136,-253,-117
-39,-239,-200,139,80,-219,-58,-126,117,-136,-253,-117
-39,-234,-195,136,78,-214,-58,-126,117,-136,-253,-117
-48,-248,-200,148,75,-224,-58,-136,126,-126,-263,-126
-48,-253,-204,151,78,-229,-58,-136,126,-126,-263,-126
-48,-258,-209,153,80,-234,-58,-136,126,-126,-263,-126
-48,-263,-214,156,82,-239,-58,-136,126,-126,-263,-126
-58,-263,-204,161,73,-234,-68,-136,136,-112,-258,-117
-58,-263,-204,161,73,-234,-68,-136,136,-107,-253,-117
-58,-263,-204,161,73,-234,-68,-136,136,-102,-248,-117
-58,-263,-204,161,73,-234,-68,-136,136,-97,-244,-117
-53,-248,-195,151,70,-222,-58,-126,126,-107,-253,-117
-48,-244,-195,146,73,-219,-58,-126,126,-107,-253,-117
-43,-239,-195,141,75,-217,-58,-126,126,-107,-253,-117
