I,II,III,aVR,aVL,aVF,V1,V2,V3,V4,V5,V6,
0,-58,-58,29,29,-58,-48,-78,-78,-78,-97,-48
9,-58,-68,24,39,-63,-48,-78,-82,-78,-97,-48
19,-58,-78,19,48,-68,-48,-78,-87,-78,-97,-48
19,-63,-82,21,51,-73,-48,-73,-87,-78,-97,-53
19,-68,-87,24,53,-78,-48,-68,-87,-78,-97,-58
14,-78,-92,31,53,-85,-34,-68,-87,-82,-97,-63
9,-87,-97,39,53,-92,-19,-68,-87,-87,-97,-68
-4,-87,-82,46,39,-85,-14,-68,-87,-87,-97,-73
-19,-87,-68,53,24,-78,-9,-68,-87,-87,-97,-78
-29,-92,-63,61,17,-78,0,-68,-87,-87,-102,-82
-34,-102,-68,68,17,-85,9,-68,-87,-87,-102,-87
-43,-112,-68,78,12,-90,19,-73,-92,-92,-107,-92
-48,-122,-73,85,12,-97,24,-68,-92,-97,-117,-97
-48,-126,-78,87,14,-102,29,-63,-92,-97,-122,-97
-48,-131,-82,90,17,-107,29,-63,-97,-97,-126,-97
-48,-136,-87,92,19,-112,29,-63,-97,-102,-126,-97
-48,-136,-87,92,19,-112,29,-58,-97,-102,-126,-92
-53,-131,-78,92,12,-104,29,-58,-92,-102,-122,-92
-53,-126,-73,90,9,-100,34,-58,-92,-102,-122,-92
-48,-126,-78,87,14,-102,34,-58,-92,-102,-122,-92
-48,-131,-82,90,17,-107,34,-58,-92,-102,-122,-92
-48,-136,-87,92,19,-112,39,-58,-92,-102,-126,-92
-48,-141,-92,95,21,-117,39,-58,-92,-102,-126,-92
-53,-141,-87,97,17,-114,39,-58,-92,-102,-126,-97
-58,-141,-82,100,12,-112,39,-53,-92,-102,-131,-97
-58,-141,-82,100,12,-112,39,-53,-92,-102,-131,-102
-63,-141,-78,102,7,-109,34,-53,-92,-102,-131,-107
-63,-141,-78,102,7,-109,34,-53,-92,-107,-136,-107
-58,-141,-82,100,12,-112,34,-53,-92,-112,-136,-107
-53,-141,-87,97,17,-114,39,-53,-92,-112,-136,-107
-48,-141,-92,95,21,-117,43,-53,-92,-112,-136,-107
-48,-146,-97,97,24,-122,43,-53,-92,-112,-131,-107
-53,-146,-92,100,19,-119,48,-53,-92,-112,-131,-107
-53,-146,-92,100,19,-119,48,-53,-92,-112,-131,-107
-53,-141,-87,97,17,-114,48,-48,-87,-112,-126,-107
-58,-141,-82,100,12,-112,43,-48,-87,-112,-126,-107
-58,-141,-82,100,12,-112,43,-48,-87,-112,-126,-107
-58,-141,-82,100,12,-112,48,-48,-92,-112,-122,-107
-58,-141,-82,100,12,-112,48,-48,-92,-112,-117,-107
-58,-141,-82,100,12,-112,48,-53,-92,-112,-117,-107
-58,-141,-82,100,12,-112,48,-53,-87,-112,-117,-107
-58,-141,-82,100,12,-112,48,-48,-87,-107,-112,-107
-58,-141,-82,100,12,-112,48,-48,-87,-102,-107,-107
-58,-141,-82,100,12,-112,48,-48,-87,-102,-102,-107
-58,-141,-82,100,12,-112,48,-48,-87,-102,-102,-107
-53,-136,-82,95,14,-109,48,-48,-87,-102,-102,-107
-48,-136,-87,92,19,-112,48,-48,-82,-102,-102,-107
-48,-136,-87,92,19,-112,48,-48,-82,-102,-97,-107
-53,-136,-82,95,14,-109,48,-48,-82,-102,-97,-107
-58,-141,-82,100,12,-112,58,-53,-87,-112,-117,-122
-73,-165,-92,119,9,-129,73,-58,-87,-131,-151,-146
-92,-195,-102,143,4,-148,87,-43,-102,-161,-190,-200
-92,-214,-122,153,14,-168,92,-24,-112,-165,-195,-200
-82,-204,-122,143,19,-163,97,9,-48,-78,-92,-112
-34,-87,-53,61,9,-70,48,19,92,112,117,82
63,39,-24,-51,43,7,-19,34,165,268,302,268
175,214,39,-195,68,126,-122,-14,180,414,512,488
312,458,146,-385,82,302,-273,-68,224,614,805,785
492,722,229,-607,131,475,-512,-200,209,795,1117,1112
683,971,287,-827,197,629,-814,-463,39,858,1351,1390
780,1029,248,-905,265,639,-1000,-712,-258,673,1263,1400
736,785,48,-761,344,417,-917,-717,-605,258,854,1088
463,717,253,-590,104,485,-746,-732,-619,112,634,883
92,522,429,-307,-168,475,-522,-761,-551,-82,278,497
-97,302,400,-102,-248,351,-331,-688,-561,-322,-78,136
-87,136,224,-24,-156,180,-204,-463,-522,-380,-190,-19
-63,9,73,26,-68,41,-107,-234,-444,-341,-214,-92
-39,-73,-34,56,-2,-53,-39,-58,-322,-263,-185,-122
-29,-112,-82,70,26,-97,19,19,-214,-200,-165,-146
-29,-102,-73,65,21,-87,34,19,-141,-141,-136,-126
-34,-97,-63,65,14,-80,39,19,-102,-117,-107,-102
-34,-97,-63,65,14,-80,43,24,-68,-92,-87,-92
-39,-97,-58,68,9,-78,53,29,-34,-73,-78,-92
-43,-107,-63,75,9,-85,68,34,-34,-73,-78,-102
-48,-122,-73,85,12,-97,78,34,-39,-78,-82,-112
-48,-122,-73,85,12,-97,78,39,-39,-78,-82,-117
-48,-122,-73,85,12,-97,78,43,-24,-78,-82,-117
-48,-126,-78,87,14,-102,82,43,-19,-73,-78,-117
-48,-126,-78,87,14,-102,82,43,-19,-73,-68,-117
-48,-131,-82,90,17,-107,82,48,-19,-73,-68,-117
-48,-131,-82,90,17,-107,82,48,-19,-68,-68,-117
-48,-131,-82,90,17,-107,82,53,-14,-68,-63,-117
-48,-136,-87,92,19,-112,82,53,-9,-68,-58,-117
-48,-136,-87,92,19,-112,82,53,-9,-63,-58,-117
-48,-131,-82,90,17,-107,82,58,-4,-63,-53,-112
-48,-131,-82,90,17,-107,82,58,0,-63,-43,-112
-48,-131,-82,90,17,-107,87,63,0,-58,-34,-112
-48,-131,-82,90,17,-107,87,63,0,-53,-29,-107
-43,-131,-87,87,21,-109,87,73,4,-53,-19,-102
-43,-131,-87,87,21,-109,87,73,9,-48,-14,-102
-43,-131,-87,87,21,-109,87,73,9,-48,-9,-102
-43,-131,-87,87,21,-109,87,78,14,-48,-4,-107
-39,-126,-87,82,24,-107,82,82,19,-48,-4,-107
-39,-122,-82,80,21,-102,82,87,24,-43,-4,-107
-39,-122,-82,80,21,-102,87,92,24,-39,0,-102
-39,-122,-82,80,21,-102,87,107,29,-34,4,-102
-34,-122,-87,78,26,-104,87,112,39,-24,4,-102
-29,-117,-87,73,29,-102,87,122,48,-19,9,-97
-24,-117,-92,70,34,-104,87,126,53,-9,14,-92
-19,-107,-87,63,34,-97,82,136,63,0,14,-87
-14,-102,-87,58,36,-95,82,151,73,9,19,-87
-9,-92,-82,51,36,-87,82,161,78,19,14,-82
-9,-87,-78,48,34,-82,82,175,87,34,14,-78
-4,-82,-78,43,36,-80,82,185,102,53,29,-68
0,-73,-73,36,36,-73,82,200,122,68,39,-58
4,-63,-68,29,36,-65,82,214,141,78,43,-48
9,-48,-58,19,34,-53,78,239,161,92,53,-39
19,-39,-58,9,39,-48,78,258,175,107,63,-29
29,-24,-53,-2,41,-39,73,278,190,131,73,-19
34,-9,-43,-12,39,-26,73,297,214,156,87,4
43,9,-34,-26,39,-12,73,317,244,185,112,24
53,29,-24,-41,39,2,68,351,273,214,131,43
63,53,-9,-58,36,21,58,370,297,244,161,63
73,73,0,-73,36,36,53,390,326,283,190,82
82,92,9,-87,36,51,53,409,351,317,214,107
82,112,29,-97,26,70,48,419,380,346,248,136
97,141,43,-119,26,92,34,434,405,375,283,156
107,161,53,-134,26,107,34,439,429,405,307,175
112,185,73,-148,19,129,24,444,453,424,336,200
122,204,82,-163,19,143,24,448,478,448,361,219
122,224,102,-173,9,163,19,448,492,468,390,239
126,248,122,-187,2,185,9,439,502,488,409,258
126,268,141,-197,-7,204,0,429,502,497,414,283
122,278,156,-200,-17,217,-14,409,512,502,429,287
117,287,170,-202,-26,229,-29,380,507,507,434,297
112,297,185,-204,-36,241,-39,346,488,497,439,297
102,302,200,-202,-48,251,-43,307,458,473,434,292
97,297,200,-197,-51,248,-48,268,419,434,400,283
82,283,200,-183,-58,241,-48,224,385,400,366,263
78,253,175,-165,-48,214,-48,175,331,351,331,244
68,224,156,-146,-43,190,-48,136,287,302,287,219
53,195,141,-124,-43,168,-39,107,239,248,244,185
43,161,117,-102,-36,139,-39,82,204,204,204,151
34,131,97,-82,-31,114,-29,53,170,170,170,117
24,102,78,-63,-26,90,-29,29,136,131,136,92
14,73,58,-43,-21,65,-19,19,102,92,102,68
4,43,39,-24,-17,41,-14,4,78,63,68,39
-4,29,34,-12,-19,31,-9,-4,58,43,43,14
-4,9,14,-2,-9,12,-9,-14,34,14,24,-4
-9,-14,-4,12,-2,-9,-4,-14,9,-4,4,-14
-9,-29,-19,19,4,-24,0,-24,0,-14,-14,-34
-19,-39,-19,29,0,-29,4,-34,-14,-24,-29,-43
-29,-48,-19,39,-4,-34,4,-39,-19,-39,-39,-53
-29,-53,-24,41,-2,-39,9,-39,-24,-48,-48,-58
-34,-63,-29,48,-2,-46,9,-43,-29,-63,-58,-63
-34,-63,-29,48,-2,-46,9,-43,-34,-63,-58,-68
-34,-63,-29,48,-2,-46,14,-43,-39,-63,-63,-68
-34,-63,-29,48,-2,-46,14,-43,-43,-68,-68,-78
-39,-68,-29,53,-4,-48,14,-43,-48,-73,-73,-82
-39,-73,-34,56,-2,-53,14,-43,-53,-73,-73,-82
-39,-73,-34,56,-2,-53,14,-43,-53,-73,-73,-87
-39,-73,-34,56,-2,-53,14,-43,-53,-68,-73,-82
-34,-73,-39,53,2,-56,19,-43,-53,-68,-78,-78
-34,-73,-39,53,2,-56,19,-43,-48,-68,-82,-78
-34,-73,-39,53,2,-56,19,-39,-48,-68,-82,-82
-29,-73,-43,51,7,-58,14,-39,-48,-68,-82,-82
-24,-73,-48,48,12,-61,9,-39,-43,-63,-87,-82
-24,-73,-48,48,12,-61,9,-39,-43,-63,-87,-82
-24,-78,-53,51,14,-65,9,-34,-43,-63,-87,-78
-34,-78,-43,56,4,-61,14,-34,-43,-63,-82,-78
-39,-78,-39,58,0,-58,19,-34,-39,-63,-78,-78
-34,-82,-48,58,7,-65,19,-29,-34,-58,-73,-73
-34,-82,-48,58,7,-65,19,-29,-29,-58,-73,-68
-34,-82,-48,58,7,-65,19,-29,-29,-58,-68,-68
-34,-82,-48,58,7,-65,19,-24,-29,-58,-68,-68
-34,-78,-43,56,4,-61,24,-24,-24,-53,-63,-68
-34,-73,-39,53,2,-56,24,-24,-24,-43,-63,-68
-34,-73,-39,53,2,-56,24,-24,-24,-43,-63,-63
-34,-73,-39,53,2,-56,24,-24,-24,-43,-58,-63
-34,-73,-39,53,2,-56,24,-19,-19,-39,-58,-63
-34,-78,-43,56,4,-61,24,-19,-19,-39,-58,-63
-34,-78,-43,56,4,-61,24,-19,-19,-43,-58,-63
-34,-78,-43,56,4,-61,24,-19,-24,-43,-58,-63
-29,-73,-43,51,7,-58,24,-19,-24,-43,-58,-63
-24,-73,-48,48,12,-61,24,-19,-24,-43,-58,-63
-24,-73,-48,48,12,-61,24,-19,-24,-43,-68,-63
-24,-73,-48,48,12,-61,24,-19,-24,-48,-73,-63
-24,-78,-53,51,14,-65,24,-19,-24,-48,-73,-63
-24,-78,-53,51,14,-65,24,-19,-24,-48,-78,-63
-24,-78,-53,51,14,-65,24,-24,-19,-43,-73,-63
-24,-78,-53,51,14,-65,24,-24,-19,-39,-73,-63
-24,-78,-53,51,14,-65,24,-24,-19,-39,-73,-58
-24,-82,-58,53,17,-70,24,-24,-19,-39,-78,-58
-24,-82,-58,53,17,-70,24,-24,-24,-43,-78,-58
-24,-82,-58,53,17,-70,24,-24,-24,-43,-78,-58
-24,-82,-58,53,17,-70,24,-24,-24,-43,-82,-58
-24,-87,-63,56,19,-75,24,-24,-24,-48,-82,-58
-24,-82,-58,53,17,-70,24,-29,-29,-48,-78,-58
-29,-78,-48,53,9,-63,29,-29,-29,-48,-73,-58
-29,-78,-48,53,9,-63,29,-29,-29,-48,-73,-63
-29,-78,-48,53,9,-63,29,-29,-34,-53,-73,-63
-29,-78,-48,53,9,-63,24,-29,-34,-53,-73,-58
-29,-78,-48,53,9,-63,24,-34,-34,-53,-73,-53
-29,-82,-53,56,12,-68,24,-34,-34,-48,-73,-53
-29,-87,-58,58,14,-73,24,-34,-34,-48,-73,-58
-29,-92,-63,61,17,-78,24,-34,-34,-48,-73,-58
-29,-92,-63,61,17,-78,24,-34,-39,-48,-73,-58
-29,-92,-63,61,17,-78,29,-39,-34,-53,-73,-58
-29,-92,-63,61,17,-78,29,-39,-34,-53,-73,-58
-29,-92,-63,61,17,-78,29,-39,-34,-53,-68,-58
-29,-92,-63,61,17,-78,29,-39,-34,-53,-63,-63
-29,-87,-58,58,14,-73,29,-39,-34,-48,-63,-63
-29,-82,-53,56,12,-68,29,-39,-34,-43,-63,-58
-29,-73,-43,51,7,-58,29,-39,-29,-43,-58,-53
-29,-63,-34,46,2,-48,29,-39,-29,-39,-58,-48
-29,-53,-24,41,-2,-39,34,-39,-19,-39,-53,-43
-29,-48,-19,39,-4,-34,34,-34,-14,-34,-53,-43
-29,-48,-19,39,-4,-34,39,-29,-9,-29,-48,-39
-29,-48,-19,39,-4,-34,48,-29,-4,-24,-43,-39
-24,-48,-24,36,0,-36,48,-19,0,-19,-39,-34
-24,-43,-19,34,-2,-31,53,-9,0,-19,-39,-29
-19,-39,-19,29,0,-29,53,-4,9,-9,-29,-29
-14,-29,-14,21,0,-21,53,-4,19,-4,-24,-24
-9,-24,-14,17,2,-19,43,-4,19,0,-19,-19
-4,-24,-19,14,7,-21,39,-9,24,4,-14,-19
0,-24,-24,12,12,-24,19,-14,9,0,-19,-19
4,-29,-34,12,19,-31,0,-29,-9,-9,-29,-24
4,-29,-34,12,19,-31,-9,-34,-14,-9,-34,-24
9,-34,-43,12,26,-39,-19,-39,-19,-14,-39,-24
9,-39,-48,14,29,-43,-39,-48,-24,-19,-34,-19
14,-34,-48,9,31,-41,-43,-58,-29,-29,-34,-19
14,-34,-48,9,31,-41,-48,-68,-39,-34,-34,-24
14,-34,-48,9,31,-41,-53,-73,-39,-34,-39,-24
14,-34,-48,9,31,-41,-53,-78,-48,-39,-39,-24
19,-34,-53,7,36,-43,-58,-78,-58,-53,-43,-19
19,-39,-58,9,39,-48,-58,-82,-68,-53,-43,-24
19,-43,-63,12,41,-53,-53,-73,-78,-58,-39,-24
14,-53,-68,19,41,-61,-34,-68,-73,-63,-48,-24
9,-68,-78,29,43,-73,-19,-68,-68,-68,-58,-29
-4,-68,-63,36,29,-65,-19,-68,-68,-68,-58,-39
-19,-68,-48,43,14,-58,-19,-68,-68,-68,-58,-48
-24,-68,-43,46,9,-56,-14,-68,-68,-68,-63,-48
-29,-73,-43,51,7,-58,-4,-68,-68,-68,-68,-48
-39,-82,-43,61,2,-63,0,-73,-73,-73,-78,-53
-39,-92,-53,65,7,-73,9,-73,-73,-73,-78,-53
-39,-102,-63,70,12,-82,14,-68,-73,-78,-87,-63
-39,-102,-63,70,12,-82,19,-63,-73,-78,-87,-68
-39,-102,-63,70,12,-82,19,-68,-78,-78,-87,-68
-39,-107,-68,73,14,-87,19,-73,-78,-82,-87,-73
-39,-107,-68,73,14,-87,19,-68,-78,-82,-87,-68
-43,-107,-63,75,9,-85,19,-68,-73,-82,-87,-63
-43,-107,-63,75,9,-85,24,-68,-73,-82,-92,-63
-43,-107,-63,75,9,-85,24,-68,-73,-82,-92,-63
-48,-112,-63,80,7,-87,24,-68,-73,-82,-87,-63
-48,-112,-63,80,7,-87,29,-68,-73,-82,-87,-63
-48,-107,-58,78,4,-82,29,-68,-73,-82,-87,-68
-48,-102,-53,75,2,-78,29,-68,-73,-82,-87,-78
-48,-102,-53,75,2,-78,29,-63,-73,-82,-92,-78
-48,-102,-53,75,2,-78,34,-63,-73,-82,-92,-78
-53,-107,-53,80,0,-80,34,-63,-73,-82,-92,-73
-53,-112,-58,82,2,-85,34,-63,-73,-82,-97,-68
-48,-112,-63,80,7,-87,34,-63,-73,-82,-97,-68
-48,-112,-63,80,7,-87,34,-63,-73,-82,-97,-68
-48,-107,-58,78,4,-82,29,-63,-73,-82,-97,-68
-48,-107,-58,78,4,-82,24,-63,-73,-82,-97,-68
-53,-107,-53,80,0,-80,29,-63,-73,-82,-102,-68
-53,-107,-53,80,0,-80,29,-63,-73,-82,-102,-68
-53,-102,-48,78,-2,-75,29,-58,-68,-82,-97,-68
-53,-102,-48,78,-2,-75,24,-58,-68,-82,-97,-68
-48,-102,-53,75,2,-78,24,-58,-68,-82,-97,-68
-48,-102,-53,75,2,-78,29,-58,-73,-82,-92,-68
-48,-102,-53,75,2,-78,29,-58,-73,-82,-92,-73
-48,-102,-53,75,2,-78,29,-63,-73,-82,-97,-78
-48,-102,-53,75,2,-78,29,-63,-68,-82,-97,-78
-48,-102,-53,75,2,-78,29,-58,-68,-82,-92,-78
-48,-102,-53,75,2,-78,29,-58,-68,-82,-92,-78
-48,-102,-53,75,2,-78,29,-58,-68,-82,-97,-78
-48,-102,-53,75,2,-78,29,-58,-73,-87,-102,-78
-48,-97,-48,73,0,-73,29,-58,-78,-92,-102,-78
-48,-97,-48,73,0,-73,29,-58,-73,-92,-102,-78
-48,-97,-48,73,0,-73,29,-58,-73,-92,-102,-78
-53,-97,-43,75,-4,-70,29,-58,-73,-87,-107,-78
-58,-102,-43,80,-7,-73,39,-58,-78,-92,-126,-92
-73,-126,-53,100,-9,-90,53,-53,-73,-112,-156,-112
-82,-146,-63,114,-9,-104,63,-34,-68,-112,-151,-126
-68,-146,-78,107,4,-112,63,-14,-58,-78,-107,-78
-39,-87,-48,63,4,-68,48,9,19,48,43,58
24,78,53,-51,-14,65,-19,9,180,268,292,287
126,239,112,-183,7,175,-107,4,248,424,502,497
244,439,195,-341,24,317,-229,-63,248,570,746,741
380,673,292,-527,43,483,-400,-156,248,741,1024,1029
551,922,370,-736,90,646,-658,-341,180,888,1293,1337
668,1068,400,-868,134,734,-873,-575,-39,839,1361,1473
688,1024,336,-856,175,680,-956,-780,-375,536,1112,1337
575,766,190,-671,192,478,-824,-761,-634,156,688,976
248,668,419,-458,-85,544,-619,-741,-570,43,448,712
-34,444,478,-204,-256,461,-414,-712,-527,-151,102,326
-122,214,336,-46,-229,275,-248,-580,-551,-380,-209,4
-92,78,170,7,-131,124,-151,-366,-497,-400,-263,-87
-63,-9,53,36,-58,21,-82,-165,-405,-317,-239,-107
-39,-58,-19,48,-9,-39,-29,-34,-283,-234,-200,-117
-24,-73,-48,48,12,-61,19,9,-175,-165,-165,-122
-19,-63,-43,41,12,-53,34,9,-112,-107,-126,-97
-24,-58,-34,41,4,-46,34,9,-82,-87,-97,-73
-24,-58,-34,41,4,-46,34,14,-53,-68,-87,-63
-29,-58,-29,43,0,-43,43,19,-24,-53,-82,-63
-34,-68,-34,51,0,-51,53,24,-24,-53,-78,-73
-43,-82,-39,63,-2,-61,58,24,-24,-58,-82,-82
-48,-82,-34,65,-7,-58,58,29,-19,-58,-82,-87
-48,-82,-34,65,-7,-58,63,34,-4,-58,-82,-87
-48,-87,-39,68,-4,-63,73,34,0,-53,-78,-87
-48,-87,-39,68,-4,-63,73,34,0,-53,-68,-87
-48,-92,-43,70,-2,-68,73,39,0,-53,-68,-87
-48,-92,-43,70,-2,-68,68,39,0,-48,-68,-82
-48,-92,-43,70,-2,-68,63,43,4,-48,-68,-78
-48,-97,-48,73,0,-73,63,43,9,-48,-68,-78
-48,-97,-48,73,0,-73,63,43,9,-43,-68,-78
-43,-92,-48,68,2,-70,68,48,14,-43,-63,-73
-39,-92,-53,65,7,-73,73,48,19,-43,-53,-73
-39,-92,-53,65,7,-73,78,53,14,-39,-43,-73
-39,-92,-53,65,7,-73,78,53,9,-34,-39,-73
-39,-92,-53,65,7,-73,73,63,14,-34,-34,-73
-43,-92,-48,68,2,-70,68,63,19,-29,-34,-73
-43,-92,-48,68,2,-70,68,63,24,-29,-34,-73
-43,-92,-48,68,2,-70,68,68,34,-24,-34,-73
-39,-87,-48,63,4,-68,68,73,39,-24,-34,-73
-39,-82,-43,61,2,-63,73,78,43,-24,-34,-78
-39,-82,-43,61,2,-63,78,82,43,-19,-29,-73
-39,-82,-43,61,2,-63,78,97,48,-14,-24,-73
-29,-82,-53,56,12,-68,73,102,58,-4,-24,-68
-24,-78,-53,51,14,-65,68,112,68,0,-24,-58
-24,-82,-58,53,17,-70,68,117,73,9,-24,-53
-19,-78,-58,48,19,-68,63,126,82,19,-24,-43
-14,-73,-58,43,21,-65,68,141,92,29,-19,-39
-9,-63,-53,36,21,-58,73,151,102,39,-14,-34
-9,-58,-48,34,19,-53,73,165,112,53,-4,-29
0,-53,-53,26,26,-53,73,180,122,73,9,-19
9,-43,-53,17,31,-48,73,200,141,87,19,-9
14,-34,-48,9,31,-41,73,214,161,102,29,0
19,-19,-39,0,29,-29,68,239,180,122,43,4
29,-9,-39,-9,34,-24,68,258,200,141,63,14
39,4,-34,-21,36,-14,63,278,219,170,82,29
43,19,-24,-31,34,-2,63,297,244,195,102,53
53,39,-14,-46,34,12,63,317,273,224,131,78
63,58,-4,-61,34,26,58,341,302,253,151,102
73,82,9,-78,31,46,48,351,326,283,180,122
82,102,19,-92,31,61,43,370,356,317,209,141
92,117,24,-104,34,70,43,390,380,346,234,161
92,131,39,-112,26,85,39,400,409,375,268,185
107,161,53,-134,26,107,24,414,434,405,302,204
112,180,68,-146,21,124,24,419,453,434,326,224
112,204,92,-158,9,148,14,424,473,453,356,248
122,224,102,-173,9,163,9,424,492,478,375,268
122,244,122,-183,0,183,0,419,502,497,400,292
126,263,136,-195,-4,200,-9,405,512,512,419,312
126,278,151,-202,-12,214,-19,390,512,517,424,331
122,287,165,-204,-21,226,-29,366,512,517,434,336
117,297,180,-207,-31,239,-39,331,497,517,434,346
112,302,190,-207,-39,246,-48,297,473,497,429,346
102,302,200,-202,-48,251,-53,258,439,463,414,336
97,292,195,-195,-48,244,-58,219,400,424,380,317
78,273,195,-175,-58,234,-58,175,366,390,346,292
68,244,175,-156,-53,209,-58,136,312,341,312,268
58,214,156,-136,-48,185,-58,107,268,292,268,244
43,185,141,-114,-48,163,-48,78,219,239,224,214
34,151,117,-92,-41,134,-48,53,185,195,185,180
24,122,97,-73,-36,109,-39,29,151,161,151,146
14,92,78,-53,-31,85,-39,9,117,122,117,122
4,68,63,-36,-29,65,-29,0,82,82,82,97
-4,43,48,-19,-26,46,-24,-14,58,53,43,68
-14,29,43,-7,-29,36,-19,-24,43,39,19,48
-14,14,29,0,-21,21,-19,-34,24,14,4,29
-19,0,19,9,-19,9,-14,-34,4,-4,-14,14
-19,-9,9,14,-14,0,-9,-43,0,-14,-29,-4
-24,-19,4,21,-14,-7,-4,-48,-14,-24,-34,-14
-29,-29,0,29,-14,-14,-4,-48,-19,-39,-39,-24
-29,-34,-4,31,-12,-19,0,-48,-24,-43,-48,-29
-34,-48,-14,41,-9,-31,0,-53,-29,-53,-58,-34
-34,-53,-19,43,-7,-36,0,-53,-34,-53,-58,-39
-34,-53,-19,43,-7,-36,4,-53,-43,-53,-63,-39
-34,-53,-19,43,-7,-36,4,-53,-48,-58,-63,-43
-39,-58,-19,48,-9,-39,4,-53,-48,-63,-58,-43
-39,-63,-24,51,-7,-43,4,-53,-53,-63,-53,-43
-39,-63,-24,51,-7,-43,4,-53,-53,-63,-53,-48
-39,-63,-24,51,-7,-43,4,-53,-53,-63,-53,-48
-34,-63,-29,48,-2,-46,9,-53,-53,-68,-63,-53
-34,-63,-29,48,-2,-46,9,-53,-53,-68,-73,-58
-34,-58,-24,46,-4,-41,9,-48,-58,-68,-73,-63
-34,-53,-19,43,-7,-36,9,-48,-58,-68,-73,-63
-34,-53,-19,43,-7,-36,9,-48,-53,-63,-78,-58
-34,-53,-19,43,-7,-36,9,-48,-53,-63,-78,-53
-34,-58,-24,46,-4,-41,9,-43,-53,-63,-78,-48
-39,-58,-19,48,-9,-39,9,-43,-53,-63,-78,-48
-39,-63,-24,51,-7,-43,9,-43,-43,-63,-78,-48
-34,-68,-34,51,0,-51,9,-39,-39,-58,-73,-48
-34,-63,-29,48,-2,-46,9,-39,-39,-58,-73,-48
-34,-63,-29,48,-2,-46,9,-39,-39,-58,-68,-48
-34,-63,-29,48,-2,-46,9,-34,-39,-58,-63,-48
-34,-63,-29,48,-2,-46,14,-34,-34,-58,-53,-48
-34,-63,-29,48,-2,-46,14,-29,-34,-53,-53,-48
-34,-63,-29,48,-2,-46,14,-24,-34,-53,-53,-43
-34,-63,-29,48,-2,-46,14,-24,-34,-53,-53,-43
-34,-63,-29,48,-2,-46,14,-19,-29,-48,-58,-43
-34,-68,-34,51,0,-51,14,-19,-29,-48,-58,-43
-34,-68,-34,51,0,-51,14,-19,-24,-48,-58,-43
-34,-68,-34,51,0,-51,14,-19,-24,-43,-58,-43
-34,-63,-29,48,-2,-46,14,-19,-24,-43,-58,-43
-34,-63,-29,48,-2,-46,14,-19,-24,-43,-58,-43
-34,-63,-29,48,-2,-46,14,-19,-24,-43,-63,-43
-34,-58,-24,46,-4,-41,14,-19,-24,-48,-63,-43
-34,-58,-24,46,-4,-41,14,-19,-24,-48,-63,-43
-34,-58,-24,46,-4,-41,14,-24,-29,-53,-68,-43
-34,-58,-24,46,-4,-41,14,-34,-34,-58,-68,-43
-34,-58,-24,46,-4,-41,14,-34,-39,-58,-73,-43
-34,-58,-24,46,-4,-41,14,-34,-39,-58,-73,-43
-34,-63,-29,48,-2,-46,14,-34,-39,-58,-78,-48
-34,-63,-29,48,-2,-46,14,-34,-43,-63,-78,-48
-34,-63,-29,48,-2,-46,14,-34,-43,-63,-73,-48
-34,-63,-29,48,-2,-46,14,-34,-43,-63,-73,-48
-34,-68,-34,51,0,-51,14,-34,-39,-68,-73,-48
-34,-68,-34,51,0,-51,14,-39,-39,-68,-73,-48
-39,-68,-29,53,-4,-48,19,-39,-39,-68,-73,-53
-39,-68,-29,53,-4,-48,19,-39,-39,-68,-73,-63
-39,-68,-29,53,-4,-48,19,-39,-48,-73,-73,-63
-39,-68,-29,53,-4,-48,14,-39,-53,-73,-73,-63
-39,-68,-29,53,-4,-48,14,-43,-53,-73,-73,-63
-39,-68,-29,53,-4,-48,14,-43,-53,-73,-73,-63
-39,-68,-29,53,-4,-48,14,-43,-53,-78,-73,-68
-39,-73,-34,56,-2,-53,14,-43,-53,-78,-73,-68
-39,-78,-39,58,0,-58,14,-43,-58,-78,-73,-68
-39,-82,-43,61,2,-63,19,-48,-58,-82,-73,-68
-39,-82,-43,61,2,-63,19,-48,-58,-82,-78,-68
-39,-82,-43,61,2,-63,19,-48,-53,-82,-82,-68
-39,-68,-29,53,-4,-48,19,-48,-53,-82,-82,-73
-39,-53,-14,46,-12,-34,19,-48,-53,-82,-82,-73
-39,-53,-14,46,-12,-34,24,-48,-48,-78,-78,-68
-39,-48,-9,43,-14,-29,29,-48,-39,-73,-68,-68
-39,-43,-4,41,-17,-24,29,-43,-39,-68,-68,-68
-39,-34,4,36,-21,-14,34,-39,-29,-68,-63,-63
-39,-34,4,36,-21,-14,34,-34,-24,-63,-63,-63
-39,-34,4,36,-21,-14,39,-29,-19,-58,-58,-58
-39,-29,9,34,-24,-9,43,-29,-14,-53,-53,-58
-34,-29,4,31,-19,-12,39,-24,-9,-48,-48,-53
-29,-19,9,24,-19,-4,39,-24,-9,-48,-48,-48
-24,-9,14,17,-19,2,34,-24,0,-39,-43,-48
-24,0,24,12,-24,12,29,-24,4,-39,-43,-43
-19,4,24,7,-21,14,19,-19,0,-39,-39,-39
-19,-14,4,17,-12,-4,9,-29,-9,-43,-43,-43
-19,-29,-9,24,-4,-19,-9,-39,-24,-53,-48,-43
-14,-29,-14,21,0,-21,-19,-48,-29,-58,-48,-48
-14,-29,-14,21,0,-21,-29,-53,-34,-58,-53,-53
-9,-29,-19,19,4,-24,-29,-58,-39,-63,-58,-53
-9,-34,-24,21,7,-29,-43,-68,-48,-68,-58,-53
-4,-34,-29,19,12,-31,-48,-78,-63,-78,-63,-53
-4,-34,-29,19,12,-31,-53,-87,-78,-82,-63,-53
-4,-34,-29,19,12,-31,-63,-87,-78,-82,-68,-48
-4,-34,-29,19,12,-31,-63,-87,-92,-97,-73,-48
0,-34,-34,17,17,-34,-53,-82,-97,-97,-73,-53
9,-39,-48,14,29,-43,-43,-82,-102,-102,-78,-58
0,-48,-48,24,24,-48,-29,-78,-97,-102,-82,-63
-9,-58,-48,34,19,-53,-19,-78,-97,-107,-87,-68
-24,-58,-34,41,4,-46,-14,-78,-92,-107,-87,-73
-39,-58,-19,48,-9,-39,-9,-78,-87,-107,-87,-78
-43,-63,-19,53,-12,-41,-4,-78,-87,-107,-92,-82
-43,-73,-29,58,-7,-51,0,-78,-87,-107,-92,-87
-48,-87,-39,68,-4,-63,9,-82,-92,-112,-97,-92
-48,-102,-53,75,2,-78,14,-78,-92,-117,-107,-97
-48,-102,-53,75,2,-78,19,-73,-92,-117,-107,-97
-48,-102,-53,75,2,-78,19,-73,-97,-117,-107,-97
-48,-107,-58,78,4,-82,19,-73,-97,-122,-107,-102
-48,-107,-58,78,4,-82,19,-68,-97,-122,-107,-102
-53,-107,-53,80,0,-80,19,-68,-97,-126,-102,-102
-53,-107,-53,80,0,-80,24,-68,-102,-131,-102,-102
-53,-102,-48,78,-2,-75,24,-68,-102,-131,-102,-102
-58,-102,-43,80,-7,-73,24,-68,-102,-131,-102,-102
-58,-102,-43,80,-7,-73,29,-68,-102,-131,-107,-102
-58,-102,-43,80,-7,-73,29,-68,-102,-131,-107,-102
-58,-102,-43,80,-7,-73,24,-68,-102,-131,-107,-107
-58,-102,-43,80,-7,-73,19,-63,-102,-131,-112,-107
-58,-102,-43,80,-7,-73,24,-63,-102,-131,-107,-107
-63,-102,-39,82,-12,-70,24,-63,-102,-131,-102,-107
-63,-102,-39,82,-12,-70,29,-63,-102,-126,-107,-107
-58,-102,-43,80,-7,-73,34,-63,-102,-122,-107,-107
-58,-102,-43,80,-7,-73,34,-63,-102,-122,-107,-107
-58,-102,-43,80,-7,-73,34,-63,-102,-122,-107,-107
-58,-107,-48,82,-4,-78,34,-63,-102,-126,-107,-112
-63,-107,-43,85,-9,-75,39,-63,-102,-131,-112,-117
-63,-107,-43,85,-9,-75,39,-63,-102,-136,-112,-117
-63,-102,-39,82,-12,-70,39,-58,-97,-141,-107,-117
-63,-102,-39,82,-12,-70,34,-58,-92,-141,-107,-117
-58,-102,-43,80,-7,-73,34,-58,-87,-141,-107,-117
-58,-107,-48,82,-4,-78,39,-58,-92,-136,-102,-117
-58,-112,-53,85,-2,-82,39,-58,-92,-131,-97,-117
-58,-112,-53,85,-2,-82,39,-63,-97,-131,-97,-117
-58,-112,-53,85,-2,-82,39,-63,-97,-131,-97,-117
-58,-112,-53,85,-2,-82,39,-58,-97,-131,-97,-112
-58,-112,-53,85,-2,-82,39,-58,-97,-131,-97,-107
-58,-112,-53,85,-2,-82,39,-58,-97,-131,-97,-107
-58,-112,-53,85,-2,-82,39,-58,-97,-131,-102,-107
-58,-107,-48,82,-4,-78,39,-58,-97,-131,-102,-107
-58,-107,-48,82,-4,-78,39,-58,-92,-131,-102,-107
-58,-107,-48,82,-4,-78,39,-58,-92,-131,-102,-107
-63,-107,-43,85,-9,-75,39,-58,-92,-131,-107,-107
-68,-112,-43,90,-12,-78,48,-58,-97,-141,-126,-122
-82,-136,-53,109,-14,-95,63,-58,-97,-161,-161,-146
-97,-161,-63,129,-17,-112,78,-43,-107,-180,-185,-190
-92,-175,-82,134,-4,-129,82,-24,-112,-175,-175,-180
-82,-146,-63,114,-9,-104,82,4,-39,-68,-48,-73
-34,-9,24,21,-29,7,29,9,112,141,185,141
58,131,73,-95,-7,102,-43,19,185,307,395,351
165,322,156,-244,4,239,-151,-34,200,463,629,595
292,570,278,-431,7,424,-307,-102,239,668,932,907
463,839,375,-651,43,607,-551,-248,219,854,1254,1249
634,1058,424,-846,104,741,-824,-507,9,868,1434,1483
712,1088,375,-900,168,732,-980,-751,-326,634,1293,1449
649,824,175,-736,236,500,-883,-741,-639,224,854,1093
356,736,380,-546,-12,558,-697,-741,-619,82,605,844
34,522,488,-278,-226,505,-483,-751,-570,-131,229,439
-107,283,390,-87,-248,336,-302,-658,-600,-390,-146,58
-92,136,229,-21,-161,183,-190,-444,-556,-439,-234,-73
-63,29,92,17,-78,61,-107,-224,-473,-390,-234,-122
-39,-43,-4,41,-17,-24,-43,-68,-341,-297,-200,-136
-29,-73,-43,51,7,-58,9,-9,-224,-219,-175,-146
-29,-63,-34,46,2,-48,24,-4,-151,-156,-136,-122
-34,-58,-24,46,-4,-41,29,0,-112,-126,-97,-92
-34,-58,-24,46,-4,-41,34,4,-78,-107,-82,-82
-39,-58,-19,48,-9,-39,43,9,-43,-92,-78,-82
-43,-68,-24,56,-9,-46,53,14,-43,-92,-78,-92
-48,-82,-34,65,-7,-58,58,14,-48,-97,-82,-102
-48,-82,-34,65,-7,-58,58,19,-48,-92,-87,-107
-48,-82,-34,65,-7,-58,58,24,-34,-87,-92,-107
-48,-87,-39,68,-4,-63,63,24,-29,-82,-87,-107
-48,-87,-39,68,-4,-63,63,24,-29,-82,-78,-107
-48,-92,-43,70,-2,-68,63,29,-29,-82,-82,-107
-48,-92,-43,70,-2,-68,63,29,-29,-78,-87,-107
-48,-92,-43,70,-2,-68,68,34,-24,-78,-87,-107
-48,-97,-48,73,0,-73,73,34,-19,-78,-87,-107
-48,-97,-48,73,0,-73,73,34,-19,-73,-87,-107
-48,-92,-43,70,-2,-68,73,39,-14,-73,-82,-102
-48,-92,-43,70,-2,-68,73,39,-9,-73,-73,-102
-48,-92,-43,70,-2,-68,78,43,-9,-68,-63,-102
-48,-92,-43,70,-2,-68,78,43,-9,-63,-58,-102
-43,-92,-48,68,2,-70,78,53,-4,-63,-48,-102
-43,-92,-48,68,2,-70,78,58,4,-58,-43,-102
-43,-92,-48,68,2,-70,78,63,9,-58,-39,-102
-43,-92,-48,68,2,-70,78,68,14,-53,-34,-107
-39,-87,-48,63,4,-68,73,73,19,-48,-34,-107
-39,-82,-43,61,2,-63,73,78,24,-43,-39,-107
-39,-82,-43,61,2,-63,78,82,24,-39,-39,-102
-39,-82,-43,61,2,-63,78,97,24,-34,-34,-102
-34,-82,-48,58,7,-65,78,102,29,-24,-34,-102
-34,-78,-43,56,4,-61,78,112,39,-24,-34,-97
-34,-78,-43,56,4,-61,78,117,43,-19,-34,-92
-29,-68,-39,48,4,-53,73,122,53,-9,-34,-82
-24,-63,-39,43,7,-51,73,131,63,0,-29,-78
-19,-53,-34,36,7,-43,73,141,73,9,-24,-73
-19,-48,-29,34,4,-39,73,156,87,24,-14,-68
-9,-48,-39,29,14,-43,73,170,102,43,0,-58
0,-43,-43,21,21,-43,73,190,122,58,9,-48
4,-34,-39,14,21,-36,73,200,141,73,14,-39
9,-19,-29,4,19,-24,68,219,161,92,24,-29
19,-9,-29,-4,24,-19,68,239,180,112,43,-19
29,4,-24,-17,26,-9,63,258,200,141,63,-9
29,19,-9,-24,19,4,63,278,224,165,82,14
34,39,4,-36,14,21,63,297,253,195,112,34
43,58,14,-51,14,36,58,322,283,224,131,53
53,82,29,-68,12,56,48,331,307,253,161,73
63,102,39,-82,12,70,43,351,336,287,190,92
73,122,48,-97,12,85,43,370,361,317,214,117
73,141,68,-107,2,104,39,380,390,346,244,146
87,170,82,-129,2,126,24,395,414,375,273,165
92,190,97,-141,-2,143,24,400,434,405,297,185
92,214,122,-153,-14,168,14,405,453,424,326,209
102,239,136,-170,-17,187,9,405,473,448,346,229
102,263,161,-183,-29,212,0,400,483,468,370,248
107,283,175,-195,-34,229,-9,390,497,483,395,263
107,297,190,-202,-41,244,-19,380,502,488,405,283
107,307,200,-207,-46,253,-29,361,502,492,414,287
107,317,209,-212,-51,263,-39,331,488,497,414,297
102,322,219,-212,-58,270,-48,297,468,478,409,302
92,322,229,-207,-68,275,-53,258,439,444,395,302
87,317,229,-202,-70,273,-58,219,400,405,366,287
73,302,229,-187,-78,265,-58,175,366,370,336,263
68,273,204,-170,-68,239,-58,136,312,322,302,239
58,244,185,-151,-63,214,-58,107,268,273,258,209
43,214,170,-129,-63,192,-48,78,219,219,214,175
34,180,146,-107,-56,163,-48,53,185,175,175,141
24,151,126,-87,-51,139,-39,29,151,141,141,107
14,122,107,-68,-46,114,-39,9,117,102,107,82
4,97,92,-51,-43,95,-29,0,78,63,73,58
-4,73,78,-34,-41,75,-24,-14,48,34,39,29
-14,58,73,-21,-43,65,-19,-24,34,19,14,9
-14,39,53,-12,-34,46,-19,-34,14,-4,-4,-4
-19,14,34,2,-26,24,-14,-34,-4,-24,-24,-14
-19,0,19,9,-19,9,-9,-43,-9,-34,-43,-34
-24,-9,14,17,-19,2,-4,-48,-24,-43,-53,-43
-29,-19,9,24,-19,-4,-4,-48,-29,-58,-58,-53
-34,-24,9,29,-21,-7,0,-48,-34,-63,-68,-58
-43,-34,9,39,-26,-12,0,-53,-39,-73,-78,-63
-43,-34,9,39,-26,-12,-4,-53,-43,-73,-82,-68
-43,-34,9,39,-26,-12,-4,-53,-48,-73,-92,-68
-39,-34,4,36,-21,-14,-4,-53,-53,-78,-97,-73
-39,-39,0,39,-19,-19,-4,-53,-58,-82,-102,-73
-39,-43,-4,41,-17,-24,-4,-53,-63,-87,-102,-78
-39,-43,-4,41,-17,-24,-4,-53,-63,-92,-102,-87
-39,-43,-4,41,-17,-24,-4,-53,-63,-92,-102,-87
-34,-43,-9,39,-12,-26,0,-53,-63,-97,-107,-87
-34,-43,-9,39,-12,-26,0,-53,-63,-97,-112,-82
-34,-43,-9,39,-12,-26,0,-48,-68,-97,-112,-82
-34,-43,-9,39,-12,-26,0,-53,-68,-97,-112,-82
-34,-43,-9,39,-12,-26,0,-58,-63,-92,-117,-82
-34,-39,-4,36,-14,-21,0,-58,-63,-92,-117,-87
-34,-39,-4,36,-14,-21,0,-53,-63,-92,-117,-87
-39,-39,0,39,-19,-19,0,-48,-63,-92,-117,-87
-39,-39,0,39,-19,-19,0,-43,-58,-92,-117,-87
-34,-39,-4,36,-14,-21,0,-39,-58,-87,-112,-87
-34,-34,0,34,-17,-17,0,-39,-58,-87,-112,-87
-34,-34,0,34,-17,-17,0,-43,-58,-87,-107,-87
-34,-34,0,34,-17,-17,0,-43,-58,-87,-107,-87
-34,-39,-4,36,-14,-21,4,-43,-53,-87,-102,-87
-34,-43,-9,39,-12,-26,4,-43,-53,-82,-102,-87
-34,-43,-9,39,-12,-26,4,-43,-53,-82,-102,-82
-34,-43,-9,39,-12,-26,4,-43,-53,-82,-97,-82
-34,-39,-4,36,-14,-21,4,-39,-48,-78,-97,-82
-34,-39,-4,36,-14,-21,4,-39,-48,-78,-97,-82
-34,-39,-4,36,-14,-21,4,-39,-43,-78,-97,-82
-34,-39,-4,36,-14,-21,4,-39,-43,-73,-97,-82
-29,-34,-4,31,-12,-19,4,-39,-43,-73,-97,-82
-24,-34,-9,29,-7,-21,4,-39,-43,-73,-97,-82
-24,-34,-9,29,-7,-21,4,-39,-43,-73,-102,-82
-24,-34,-9,29,-7,-21,4,-39,-43,-78,-102,-82
-24,-39,-14,31,-4,-26,4,-39,-43,-78,-102,-82
-24,-39,-14,31,-4,-26,4,-39,-43,-78,-107,-82
-24,-39,-14,31,-4,-26,4,-48,-43,-78,-107,-82
-24,-39,-14,31,-4,-26,4,-53,-48,-78,-112,-82
-29,-39,-9,34,-9,-24,4,-53,-48,-78,-112,-82
-34,-43,-9,39,-12,-26,4,-53,-48,-78,-117,-87
-34,-43,-9,39,-12,-26,4,-48,-53,-82,-117,-87
-34,-43,-9,39,-12,-26,4,-43,-53,-82,-117,-87
-34,-43,-9,39,-12,-26,4,-43,-53,-82,-122,-87
-34,-48,-14,41,-9,-31,4,-43,-53,-87,-122,-87
-34,-48,-14,41,-9,-31,4,-48,-58,-87,-122,-87
-39,-48,-9,43,-14,-29,9,-48,-58,-87,-122,-87
-39,-48,-9,43,-14,-29,9,-48,-58,-87,-122,-92
-39,-48,-9,43,-14,-29,9,-48,-63,-92,-122,-92
-39,-53,-14,46,-12,-34,9,-48,-63,-92,-122,-92
-39,-58,-19,48,-9,-39,14,-53,-63,-92,-122,-92
-39,-58,-19,48,-9,-39,14,-53,-63,-92,-122,-92
-39,-58,-19,48,-9,-39,14,-53,-63,-97,-122,-97
-39,-58,-19,48,-9,-39,9,-53,-63,-97,-122,-97
-39,-53,-14,46,-12,-34,4,-53,-68,-97,-122,-97
-39,-53,-14,46,-12,-34,9,-58,-68,-102,-122,-97
-39,-53,-14,46,-12,-34,9,-58,-73,-102,-122,-97
-39,-53,-14,46,-12,-34,14,-58,-73,-97,-122,-92
-39,-53,-14,46,-12,-34,19,-58,-73,-92,-122,-92
-39,-48,-9,43,-14,-29,19,-58,-73,-92,-117,-92
-39,-43,-4,41,-17,-24,19,-58,-73,-92,-112,-87
-39,-39,0,39,-19,-19,19,-58,-63,-87,-102,-87
-39,-34,4,36,-21,-14,19,-58,-58,-78,-97,-87
-39,-24,14,31,-26,-4,24,-53,-48,-78,-92,-82
-39,-19,19,29,-29,0,24,-43,-43,-73,-92,-82
-34,-14,19,24,-26,2,29,-39,-39,-73,-92,-78
-29,-9,19,19,-24,4,39,-39,-34,-73,-92,-78
-24,-9,14,17,-19,2,34,-34,-29,-68,-87,-73
-24,-4,19,14,-21,7,34,-29,-29,-68,-87,-68
-24,4,29,9,-26,17,29,-24,-19,-58,-78,-68
-24,19,43,2,-34,31,24,-24,-9,-53,-73,-63
-19,24,43,-2,-31,34,19,-24,-14,-48,-68,-58
-14,24,39,-4,-26,31,19,-29,-14,-43,-63,-58
-9,14,24,-2,-17,19,0,-34,-24,-53,-68,-53
-4,0,4,2,-4,2,-19,-48,-39,-68,-78,-53
-4,0,4,2,-4,2,-29,-53,-43,-68,-82,-58
0,-4,-4,2,2,-4,-39,-58,-48,-73,-87,-63
0,-14,-14,7,7,-14,-58,-68,-58,-78,-87,-63
4,-14,-19,4,12,-17,-63,-78,-68,-87,-92,-68
4,-14,-19,4,12,-17,-68,-87,-82,-92,-92,-73
4,-14,-19,4,12,-17,-73,-92,-87,-92,-97,-73
9,-14,-24,2,17,-19,-73,-97,-97,-97,-97,-78
19,-19,-39,0,29,-29,-78,-102,-112,-112,-107,-82
14,-19,-34,2,24,-26,-68,-92,-107,-107,-107,-78
9,-19,-29,4,19,-24,-58,-87,-107,-107,-107,-78
9,-29,-39,9,24,-34,-48,-82,-107,-107,-107,-78
9,-39,-48,14,29,-43,-39,-78,-107,-107,-107,-78
-9,-39,-29,24,9,-34,-34,-78,-102,-107,-107,-78
-24,-43,-19,34,-2,-31,-24,-82,-102,-107,-112,-82
-43,-53,-9,48,-17,-31,-19,-87,-102,-112,-122,-92
-48,-63,-14,56,-17,-39,-9,-92,-102,-112,-126,-102
-48,-78,-29,63,-9,-53,-4,-87,-102,-117,-136,-107
-48,-82,-34,65,-7,-58,0,-82,-102,-117,-136,-107
-48,-82,-34,65,-7,-58,4,-82,-107,-117,-136,-107
-48,-87,-39,68,-4,-63,9,-82,-107,-122,-136,-112
-48,-87,-39,68,-4,-63,9,-78,-112,-122,-136,-112
-53,-87,-34,70,-9,-61,9,-78,-112,-122,-136,-112
-48,-87,-39,68,-4,-63,14,-78,-112,-126,-141,-112
-43,-87,-43,65,0,-65,14,-78,-112,-131,-141,-112
-48,-97,-48,73,0,-73,14,-78,-107,-131,-141,-112
-48,-102,-53,75,2,-78,19,-78,-102,-131,-146,-112
-48,-102,-53,75,2,-78,19,-78,-102,-131,-146,-112
-48,-102,-53,75,2,-78,19,-78,-102,-131,-146,-117
-53,-102,-48,78,-2,-75,24,-73,-102,-131,-151,-117
-58,-102,-43,80,-7,-73,34,-73,-102,-131,-151,-117
-63,-102,-39,82,-12,-70,34,-73,-102,-131,-151,-117
-63,-102,-39,82,-12,-70,34,-73,-102,-131,-156,-117
-58,-102,-43,80,-7,-73,29,-73,-102,-131,-156,-117
-58,-102,-43,80,-7,-73,24,-73,-102,-131,-156,-117
-58,-102,-43,80,-7,-73,24,-73,-102,-131,-156,-117
-58,-107,-48,82,-4,-78,24,-73,-102,-131,-156,-117
-63,-107,-43,85,-9,-75,29,-73,-102,-131,-161,-117
-63,-107,-43,85,-9,-75,29,-73,-102,-131,-161,-117
-63,-102,-39,82,-12,-70,29,-68,-97,-131,-156,-117
-63,-102,-39,82,-12,-70,24,-68,-97,-131,-156,-117
-58,-102,-43,80,-7,-73,24,-68,-97,-131,-156,-117
-58,-102,-43,80,-7,-73,29,-68,-102,-131,-151,-117
-58,-102,-43,80,-7,-73,29,-68,-102,-131,-146,-117
-58,-102,-43,80,-7,-73,29,-73,-102,-131,-146,-117
-53,-102,-48,78,-2,-75,29,-73,-102,-131,-146,-117
-48,-102,-53,75,2,-78,29,-68,-107,-131,-141,-117
-48,-102,-53,75,2,-78,29,-68,-107,-131,-136,-117
-48,-102,-53,75,2,-78,29,-68,-107,-131,-136,-117
-48,-102,-53,75,2,-78,29,-68,-107,-131,-141,-117
-48,-97,-48,73,0,-73,29,-68,-107,-131,-141,-117
-48,-97,-48,73,0,-73,29,-68,-102,-131,-141,-117
-48,-97,-48,73,0,-73,29,-68,-102,-131,-141,-117
-53,-92,-39,73,-7,-65,29,-73,-102,-122,-131,-117
-58,-92,-34,75,-12,-63,39,-78,-107,-122,-136,-131
-78,-117,-39,97,-19,-78,53,-78,-112,-156,-195,-161
-92,-136,-43,114,-24,-90,63,-63,-117,-170,-219,-185
-97,-195,-97,146,0,-146,87,-43,-151,-209,-258,-219
-87,-195,-107,141,9,-151,97,-19,-117,-156,-190,-165
-39,-68,-29,53,-4,-48,48,-4,58,63,39,43
48,53,4,-51,21,29,-19,4,141,219,229,234
146,229,82,-187,31,156,-107,-34,151,351,439,439
263,439,175,-351,43,307,-244,-97,161,507,683,688
483,766,283,-624,100,524,-536,-234,190,790,1107,1122
649,990,341,-819,153,666,-785,-419,68,878,1332,1385
805,1015,209,-910,297,612,-995,-692,-346,595,1171,1361
829,824,-4,-827,417,409,-990,-741,-683,234,834,1112
468,790,322,-629,73,556,-785,-766,-614,156,649,922
151,629,478,-390,-163,553,-580,-780,-566,-4,356,610
-29,366,395,-168,-212,380,-370,-692,-610,-322,-78,170
-92,195,287,-51,-190,241,-229,-522,-575,-429,-253,-39
-63,63,126,0,-95,95,-146,-263,-483,-366,-248,-82
-39,-29,9,34,-24,-9,-78,-73,-361,-302,-229,-117
-24,-53,-29,39,2,-41,-9,-9,-244,-229,-209,-136
-19,-53,-34,36,7,-43,24,9,-170,-165,-185,-126
-24,-48,-24,36,0,-36,29,9,-136,-141,-156,-102
-24,-48,-24,36,0,-36,34,14,-102,-117,-146,-92
-29,-48,-19,39,-4,-34,43,19,-68,-97,-141,-92
-34,-58,-24,46,-4,-41,53,24,-63,-92,-136,-102
-39,-78,-39,58,0,-58,58,24,-68,-97,-141,-112
-39,-82,-43,61,2,-63,58,29,-68,-97,-141,-117
-39,-82,-43,61,2,-63,58,34,-48,-97,-141,-117
-39,-87,-48,63,4,-68,63,34,-39,-92,-136,-117
-39,-87,-48,63,4,-68,63,34,-39,-92,-126,-117
-39,-92,-53,65,7,-73,63,39,-39,-92,-126,-117
-39,-92,-53,65,7,-73,63,39,-39,-87,-126,-117
-39,-92,-53,65,7,-73,63,43,-34,-87,-126,-117
-43,-97,-53,70,4,-75,63,43,-29,-87,-126,-117
-48,-97,-48,73,0,-73,63,43,-29,-82,-126,-117
-48,-87,-39,68,-4,-63,63,48,-24,-82,-122,-112
-48,-82,-34,65,-7,-58,63,48,-19,-82,-112,-112
-48,-82,-34,65,-7,-58,68,53,-19,-78,-102,-112
-48,-82,-34,65,-7,-58,68,53,-19,-73,-97,-112
-43,-82,-39,63,-2,-61,68,63,-14,-73,-82,-112
-43,-82,-39,63,-2,-61,68,63,-9,-68,-73,-112
-43,-87,-43,65,0,-65,68,63,-9,-68,-68,-112
-43,-92,-48,68,2,-70,68,68,-4,-63,-63,-112
-39,-87,-48,63,4,-68,63,73,4,-58,-58,-107
-39,-82,-43,61,2,-63,63,78,14,-53,-53,-107
-34,-82,-48,58,7,-65,68,82,14,-48,-48,-102
-29,-82,-53,56,12,-68,68,97,19,-43,-43,-102
-24,-82,-58,53,17,-70,68,102,29,-34,-43,-97
-24,-78,-53,51,14,-65,68,112,39,-29,-43,-87
-29,-78,-48,53,9,-63,73,122,43,-19,-39,-82
-29,-68,-39,48,4,-53,73,136,53,-9,-34,-73
-24,-63,-39,43,7,-51,73,151,63,0,-29,-73
-19,-53,-34,36,7,-43,73,161,73,9,-24,-73
-19,-48,-29,34,4,-39,73,170,82,19,-19,-68
-9,-43,-34,26,12,-39,73,180,92,34,-9,-58
0,-34,-34,17,17,-34,73,200,112,48,0,-48
4,-24,-29,9,17,-26,73,214,131,63,9,-39
9,-9,-19,0,14,-14,68,234,146,82,19,-29
19,0,-19,-9,19,-9,68,248,161,102,34,-14
29,14,-14,-21,21,0,63,268,180,126,48,-4
34,29,-4,-31,19,12,63,287,204,146,63,14
43,43,0,-43,21,21,63,312,234,175,92,34
53,58,4,-56,24,31,58,341,263,204,112,53
63,82,19,-73,21,51,48,351,287,234,136,73
73,102,29,-87,21,65,43,370,317,268,161,92
82,122,39,-102,21,80,43,390,341,297,185,117
82,141,58,-112,12,100,39,400,370,326,219,146
97,170,73,-134,12,122,24,419,395,356,258,165
102,190,87,-146,7,139,24,429,414,385,287,185
102,219,117,-161,-7,168,14,434,434,405,317,209
112,244,131,-178,-9,187,9,434,453,429,336,229
112,263,151,-187,-19,207,4,439,468,453,361,248
117,283,165,-200,-24,224,0,434,483,473,380,263
122,297,175,-209,-26,236,-9,424,492,488,395,287
122,307,185,-214,-31,246,-19,405,502,497,414,297
117,322,204,-219,-43,263,-29,370,492,502,419,312
112,331,219,-222,-53,275,-39,336,473,488,419,317
102,336,234,-219,-65,285,-53,297,439,458,409,317
97,331,234,-214,-68,283,-68,258,400,424,380,307
82,317,234,-200,-75,275,-68,209,375,395,351,287
78,292,214,-185,-68,253,-68,165,331,351,322,268
73,263,190,-168,-58,226,-68,131,278,302,278,239
63,234,170,-148,-53,202,-58,97,219,248,234,204
53,200,146,-126,-46,173,-58,68,185,200,195,170
43,170,126,-107,-41,148,-48,39,151,161,161,136
29,136,107,-82,-39,122,-48,19,112,122,126,112
14,107,92,-61,-39,100,-39,9,73,82,92,87
4,78,73,-41,-34,75,-34,-4,48,48,53,58
-4,58,63,-26,-34,61,-29,-14,34,29,29,39
-4,39,43,-17,-24,41,-29,-24,9,0,14,19
-9,19,29,-4,-19,24,-24,-24,-14,-24,-4,4
-9,9,19,0,-14,14,-19,-39,-19,-34,-29,-14
-14,0,14,7,-14,7,-14,-48,-34,-43,-43,-24
-24,-9,14,17,-19,2,-14,-53,-39,-58,-48,-39
-29,-14,14,21,-21,0,-9,-58,-43,-63,-58,-48
-34,-29,4,31,-19,-12,-4,-63,-48,-73,-68,-53
-34,-34,0,34,-17,-17,0,-63,-53,-73,-68,-58
-29,-34,-4,31,-12,-19,4,-58,-58,-73,-78,-58
-24,-34,-9,29,-7,-21,4,-53,-58,-78,-82,-63
-29,-39,-9,34,-9,-24,4,-53,-58,-82,-82,-63
-29,-43,-14,36,-7,-29,4,-53,-63,-82,-82,-63
-34,-43,-9,39,-12,-26,4,-53,-63,-82,-78,-68
-39,-43,-4,41,-17,-24,4,-53,-63,-82,-73,-68
-34,-43,-9,39,-12,-26,4,-53,-63,-87,-78,-68
-34,-43,-9,39,-12,-26,0,-53,-63,-87,-82,-68
-34,-43,-9,39,-12,-26,0,-48,-68,-87,-87,-73
-34,-43,-9,39,-12,-26,0,-48,-68,-87,-92,-73
-34,-43,-9,39,-12,-26,0,-48,-63,-82,-97,-78
-34,-43,-9,39,-12,-26,0,-48,-63,-82,-97,-82
-29,-48,-19,39,-4,-34,0,-43,-63,-82,-97,-78
-29,-48,-19,39,-4,-34,0,-43,-63,-82,-97,-78
-29,-48,-19,39,-4,-34,4,-48,-58,-82,-97,-78
-24,-48,-24,36,0,-36,9,-48,-58,-78,-92,-78
-29,-43,-14,36,-7,-29,9,-48,-58,-78,-92,-78
-34,-43,-9,39,-12,-26,9,-48,-58,-78,-87,-78
-34,-43,-9,39,-12,-26,4,-39,-58,-78,-87,-78
-34,-43,-9,39,-12,-26,4,-34,-53,-78,-82,-78
-34,-43,-9,39,-12,-26,4,-34,-53,-73,-82,-78
-34,-43,-9,39,-12,-26,4,-34,-53,-73,-82,-73
-34,-43,-9,39,-12,-26,4,-34,-53,-73,-78,-73
-34,-43,-9,39,-12,-26,4,-29,-48,-68,-78,-73
-34,-48,-14,41,-9,-31,4,-29,-53,-73,-78,-73
-34,-48,-14,41,-9,-31,4,-29,-53,-78,-78,-73
-34,-53,-19,43,-7,-36,4,-29,-53,-73,-73,-73
-34,-53,-19,43,-7,-36,4,-29,-53,-73,-68,-73
-34,-53,-19,43,-7,-36,4,-29,-53,-73,-68,-73
-34,-53,-19,43,-7,-36,4,-29,-53,-73,-73,-73
-34,-53,-19,43,-7,-36,4,-29,-53,-73,-73,-73
-34,-58,-24,46,-4,-41,4,-29,-53,-68,-73,-73
-34,-58,-24,46,-4,-41,9,-29,-53,-68,-78,-73
-34,-58,-24,46,-4,-41,14,-34,-53,-68,-78,-73
-34,-53,-19,43,-7,-36,14,-39,-58,-73,-82,-73
-34,-48,-14,41,-9,-31,14,-43,-58,-78,-82,-73
-34,-53,-19,43,-7,-36,14,-43,-58,-78,-87,-78
-34,-53,-19,43,-7,-36,14,-43,-63,-82,-87,-78
-39,-53,-14,46,-12,-34,14,-43,-63,-78,-92,-78
-43,-53,-9,48,-17,-31,14,-43,-63,-73,-102,-78
-43,-58,-14,51,-14,-36,14,-43,-63,-78,-102,-78
-43,-58,-14,51,-14,-36,14,-48,-68,-78,-102,-78
-43,-58,-14,51,-14,-36,19,-48,-68,-78,-102,-78
-39,-58,-19,48,-9,-39,19,-48,-68,-78,-102,-82
-39,-58,-19,48,-9,-39,19,-43,-73,-82,-102,-82
-39,-58,-19,48,-9,-39,14,-39,-73,-82,-102,-82
-39,-58,-19,48,-9,-39,14,-43,-73,-82,-102,-82
-39,-58,-19,48,-9,-39,14,-43,-73,-82,-102,-82
-39,-58,-19,48,-9,-39,14,-48,-73,-87,-102,-87
-39,-63,-24,51,-7,-43,14,-53,-73,-87,-102,-87
-39,-63,-24,51,-7,-43,9,-53,-73,-87,-102,-87
-39,-63,-24,51,-7,-43,9,-58,-68,-92,-102,-87
-39,-68,-29,53,-4,-48,9,-58,-73,-92,-102,-87
-39,-73,-34,56,-2,-53,9,-58,-73,-92,-102,-87
-39,-73,-34,56,-2,-53,9,-58,-78,-92,-97,-92
-39,-73,-34,56,-2,-53,9,-58,-82,-92,-92,-92
-39,-78,-39,58,0,-58,9,-58,-82,-97,-92,-87
-39,-78,-39,58,0,-58,9,-58,-78,-102,-87,-87
-39,-73,-34,56,-2,-53,9,-58,-82,-97,-92,-87
-39,-63,-24,51,-7,-43,14,-58,-78,-97,-92,-82
-39,-58,-19,48,-9,-39,14,-53,-73,-92,-92,-82
-39,-53,-14,46,-12,-34,19,-48,-68,-87,-87,-78
-39,-43,-4,41,-17,-24,29,-48,-58,-82,-78,-78
-34,-39,-4,36,-14,-21,29,-43,-48,-78,-68,-73
-34,-34,0,34,-17,-17,39,-39,-48,-78,-68,-68
-34,-29,4,31,-19,-12,43,-34,-39,-68,-63,-68
-34,-19,14,26,-24,-2,43,-34,-29,-63,-68,-68
-29,-14,14,21,-21,0,39,-29,-29,-58,-68,-68
-24,-14,9,19,-17,-2,43,-24,-19,-48,-63,-68
-19,-9,9,14,-14,0,39,-19,-14,-43,-58,-63
-14,0,14,7,-14,7,34,-19,-9,-43,-48,-58
-14,9,24,2,-19,17,29,-14,-4,-39,-43,-53
-9,4,14,2,-12,9,29,-19,-9,-43,-48,-53
-9,-4,4,7,-7,0,14,-29,-19,-48,-48,-53
-4,-9,-4,7,0,-7,-9,-43,-34,-58,-53,-58
-4,-14,-9,9,2,-12,-34,-58,-48,-63,-53,-63
-4,-14,-9,9,2,-12,-48,-68,-48,-63,-58,-63
-4,-14,-9,9,2,-12,-53,-78,-58,-68,-58,-68
-4,-14,-9,9,2,-12,-63,-82,-68,-87,-63,-68
-9,-19,-9,14,0,-14,-68,-97,-78,-92,-68,-73
-9,-24,-14,17,2,-19,-73,-97,-87,-92,-68,-73
0,-29,-29,14,14,-29,-68,-92,-97,-102,-73,-68
9,-34,-43,12,26,-39,-58,-87,-97,-102,-78,-73
19,-39,-58,9,39,-48,-53,-87,-97,-107,-82,-78
9,-43,-53,17,31,-48,-43,-82,-102,-107,-82,-82
0,-48,-48,24,24,-48,-39,-78,-107,-107,-87,-87
-9,-53,-43,31,17,-48,-34,-78,-107,-107,-87,-92
-19,-58,-39,39,9,-48,-29,-78,-107,-107,-87,-97
-34,-63,-29,48,-2,-46,-14,-78,-102,-112,-92,-97
-39,-73,-34,56,-2,-53,0,-78,-102,-117,-97,-102
-48,-87,-39,68,-4,-63,9,-82,-102,-122,-102,-107
-48,-102,-53,75,2,-78,14,-78,-102,-126,-117,-117
-53,-102,-48,78,-2,-75,19,-73,-102,-126,-117,-117
-58,-102,-43,80,-7,-73,19,-73,-107,-126,-117,-117
-58,-107,-48,82,-4,-78,19,-73,-107,-131,-117,-122
-58,-107,-48,82,-4,-78,19,-68,-107,-131,-117,-122
-58,-107,-48,82,-4,-78,19,-68,-107,-131,-117,-122
-53,-107,-53,80,0,-80,24,-68,-112,-131,-122,-122
-53,-107,-53,80,0,-80,24,-68,-112,-131,-122,-122
-58,-112,-53,85,-2,-82,24,-68,-112,-131,-122,-122
-58,-112,-53,85,-2,-82,29,-68,-112,-131,-126,-122
-58,-112,-53,85,-2,-82,29,-68,-112,-131,-126,-122
-58,-112,-53,85,-2,-82,29,-68,-112,-131,-126,-126
-58,-112,-53,85,-2,-82,29,-63,-112,-131,-131,-126
-58,-112,-53,85,-2,-82,34,-63,-107,-131,-131,-126
-63,-112,-48,87,-7,-80,34,-63,-102,-131,-131,-126
-63,-112,-48,87,-7,-80,34,-63,-102,-131,-136,-126
-58,-112,-53,85,-2,-82,34,-63,-102,-131,-136,-126
-58,-112,-53,85,-2,-82,34,-63,-102,-131,-136,-126
-58,-112,-53,85,-2,-82,34,-63,-102,-131,-136,-126
-58,-117,-58,87,0,-87,34,-63,-102,-131,-136,-131
-63,-117,-53,90,-4,-85,39,-63,-102,-131,-141,-136
-63,-117,-53,90,-4,-85,39,-63,-102,-131,-146,-136
-63,-112,-48,87,-7,-80,39,-58,-97,-131,-146,-136
-63,-112,-48,87,-7,-80,34,-58,-97,-131,-146,-136
-58,-112,-53,85,-2,-82,34,-58,-97,-131,-146,-136
-58,-112,-53,85,-2,-82,39,-63,-102,-131,-141,-136
-58,-112,-53,85,-2,-82,39,-68,-102,-131,-136,-136
-58,-112,-53,85,-2,-82,34,-73,-102,-131,-136,-136
-58,-112,-53,85,-2,-82,29,-73,-97,-131,-136,-136
-58,-112,-53,85,-2,-82,29,-68,-97,-131,-131,-136
-58,-112,-53,85,-2,-82,29,-68,-97,-131,-126,-136
-58,-117,-58,87,0,-87,34,-63,-102,-131,-126,-136
-58,-122,-63,90,2,-92,39,-58,-107,-131,-131,-136
-58,-117,-58,87,0,-87,39,-58,-107,-131,-131,-136
-58,-117,-58,87,0,-87,39,-58,-102,-131,-131,-136
-58,-112,-53,85,-2,-82,39,-68,-102,-131,-131,-131
-63,-107,-43,85,-9,-75,39,-78,-102,-131,-136,-126
-68,-112,-43,90,-12,-78,48,-78,-107,-141,-156,-141
-82,-136,-53,109,-14,-95,63,-78,-107,-161,-190,-165
-102,-165,-63,134,-19,-114,78,-63,-122,-190,-224,-214
-102,-185,-82,143,-9,-134,82,-43,-131,-195,-224,-209
-92,-175,-82,134,-4,-129,87,-9,-68,-102,-126,-126
-43,-58,-14,51,-14,-36,39,0,73,92,78,63
48,68,19,-58,14,43,-24,14,151,248,273,248
156,244,87,-200,34,165,-122,-34,170,395,492,468
292,488,195,-390,48,341,-273,-92,214,600,785,771
473,751,278,-612,97,514,-512,-229,200,785,1098,1102
663,1005,341,-834,161,673,-814,-492,29,849,1332,1390
761,1068,307,-915,226,688,-1000,-741,-268,663,1244,1410
727,814,87,-771,319,451,-922,-746,-619,248,824,1088
463,736,273,-600,95,505,-756,-761,-639,102,595,873
92,531,439,-312,-173,485,-527,-785,-570,-97,239,478
-97,302,400,-102,-248,351,-331,-707,-580,-341,-117,107
-87,141,229,-26,-158,185,-209,-488,-546,-405,-234,-48
-63,19,82,21,-73,51,-117,-263,-473,-370,-263,-122
-39,-58,-19,48,-9,-39,-48,-82,-351,-292,-234,-146
-29,-92,-63,61,17,-78,9,0,-244,-229,-214,-165
-29,-82,-53,56,12,-68,29,4,-165,-161,-185,-146
-34,-78,-43,56,4,-61,39,9,-122,-126,-156,-122
-34,-73,-39,53,2,-56,43,14,-87,-107,-136,-107
-39,-68,-29,53,-4,-48,53,19,-53,-92,-126,-102
-43,-78,-34,61,-4,-56,63,24,-48,-92,-126,-112
-48,-92,-43,70,-2,-68,68,24,-48,-97,-131,-122
-48,-97,-48,73,0,-73,68,29,-48,-97,-131,-126
-48,-102,-53,75,2,-78,68,34,-34,-97,-131,-126
-48,-107,-58,78,4,-82,73,34,-29,-92,-131,-126
-48,-107,-58,78,4,-82,73,34,-29,-92,-126,-126
-48,-112,-63,80,7,-87,73,39,-29,-92,-126,-126
-48,-112,-63,80,7,-87,73,39,-29,-87,-126,-126
-48,-112,-63,80,7,-87,78,43,-24,-87,-122,-126
-48,-117,-68,82,9,-92,82,43,-19,-87,-117,-126
-48,-117,-68,82,9,-92,82,43,-19,-82,-117,-126
-48,-112,-63,80,7,-87,82,48,-14,-82,-112,-122
-48,-112,-63,80,7,-87,78,48,-9,-82,-107,-122
-48,-112,-63,80,7,-87,78,53,-9,-78,-102,-122
-48,-112,-63,80,7,-87,78,53,-14,-73,-97,-122
-43,-112,-68,78,12,-90,78,63,-14,-73,-87,-122
-43,-112,-68,78,12,-90,78,63,-9,-68,-82,-122
-43,-112,-68,78,12,-90,78,63,-9,-68,-78,-122
-43,-112,-68,78,12,-90,82,68,-4,-63,-73,-122
-39,-107,-68,73,14,-87,82,73,0,-58,-73,-117
-39,-102,-63,70,12,-82,82,78,4,-53,-73,-117
-39,-102,-63,70,12,-82,87,82,4,-48,-68,-112
-39,-102,-63,70,12,-82,82,97,9,-43,-63,-112
-34,-102,-68,68,17,-85,78,102,19,-34,-63,-112
-34,-97,-63,65,14,-80,78,112,29,-29,-58,-112
-34,-97,-63,65,14,-80,78,117,34,-19,-53,-112
-34,-87,-53,61,9,-70,73,126,43,-9,-53,-102
-34,-82,-48,58,7,-65,73,141,53,0,-48,-97
-29,-73,-43,51,7,-58,73,151,63,4,-53,-92
-29,-68,-39,48,4,-53,73,165,78,14,-53,-87
-19,-68,-48,43,14,-58,73,175,87,34,-39,-78
-9,-63,-53,36,21,-58,73,190,102,48,-29,-68
-4,-53,-48,29,21,-51,73,204,122,63,-19,-58
0,-39,-39,19,19,-39,68,229,141,82,-4,-48
9,-29,-39,9,24,-34,73,248,161,102,14,-34
19,-14,-34,-2,26,-24,73,268,180,131,34,-19
24,0,-24,-12,24,-12,73,292,204,151,53,4
34,19,-14,-26,24,2,73,317,234,175,82,24
48,39,-9,-43,29,14,68,341,263,204,102,43
63,63,0,-63,31,31,58,351,287,234,131,63
73,82,9,-78,31,46,48,370,317,268,161,78
82,102,19,-92,31,61,43,390,341,297,185,97
78,122,43,-100,17,82,39,400,370,326,219,126
87,151,63,-119,12,107,24,414,395,356,253,146
92,170,78,-131,7,124,29,419,414,385,278,165
92,195,102,-143,-4,148,24,424,434,405,307,190
107,214,107,-161,0,161,19,434,453,434,326,214
112,234,122,-173,-4,178,9,439,463,458,351,239
117,258,141,-187,-12,200,0,424,478,478,375,253
117,278,161,-197,-21,219,-9,409,483,488,385,273
112,287,175,-200,-31,231,-19,390,488,492,395,278
107,297,190,-202,-41,244,-29,361,478,497,395,287
102,307,204,-204,-51,256,-39,326,463,483,395,292
92,312,219,-202,-63,265,-43,287,439,453,385,292
87,302,214,-195,-63,258,-48,248,400,414,356,283
73,283,209,-178,-68,246,-48,204,366,380,326,263
68,253,185,-161,-58,219,-48,161,312,336,292,239
58,224,165,-141,-53,195,-48,126,268,292,248,209
43,195,151,-119,-53,173,-39,97,219,239,204,175
34,161,126,-97,-46,143,-39,73,185,195,165,141
24,131,107,-78,-41,119,-29,48,151,156,131,107
14,102,87,-58,-36,95,-29,29,117,112,97,82
4,78,73,-41,-34,75,-19,14,78,73,63,58
-4,53,58,-24,-31,56,-14,-4,48,43,29,29
-19,34,53,-7,-36,43,-9,-14,34,24,4,9
-24,9,34,7,-29,21,-9,-24,14,-4,-14,-4
-29,-9,19,19,-24,4,-4,-24,-4,-24,-34,-14
-29,-19,9,24,-19,-4,0,-34,-9,-34,-53,-34
-34,-29,4,31,-19,-12,4,-39,-24,-43,-63,-48
-39,-39,0,39,-19,-19,4,-39,-29,-58,-68,-63
-39,-43,-4,41,-17,-24,9,-43,-39,-68,-78,-68
-43,-53,-9,48,-17,-31,9,-53,-48,-82,-87,-73
-39,-58,-19,48,-9,-39,9,-53,-53,-82,-92,-78
-34,-63,-29,48,-2,-46,14,-53,-58,-82,-102,-78
-34,-63,-29,48,-2,-46,14,-53,-58,-87,-102,-82
-39,-68,-29,53,-4,-48,14,-53,-58,-92,-102,-82
-39,-73,-34,56,-2,-53,14,-53,-63,-92,-102,-82
-39,-73,-34,56,-2,-53,14,-53,-63,-92,-102,-87
-39,-73,-34,56,-2,-53,14,-53,-63,-92,-102,-87
-34,-73,-39,53,2,-56,19,-53,-63,-97,-107,-87
-34,-73,-39,53,2,-56,19,-53,-63,-97,-112,-87
-34,-73,-39,53,2,-56,19,-48,-68,-97,-112,-92
-34,-73,-39,53,2,-56,19,-48,-68,-97,-112,-92
-34,-73,-39,53,2,-56,19,-48,-63,-92,-117,-92
-39,-73,-34,56,-2,-53,14,-48,-63,-92,-117,-92
-43,-78,-34,61,-4,-56,9,-43,-63,-92,-117,-87
-48,-73,-24,61,-12,-48,9,-43,-63,-92,-112,-87
-48,-68,-19,58,-14,-43,9,-43,-58,-92,-107,-87
-43,-68,-24,56,-9,-46,9,-39,-58,-87,-102,-87
-43,-63,-19,53,-12,-41,9,-39,-58,-87,-102,-87
-43,-63,-19,53,-12,-41,9,-39,-58,-87,-97,-87
-43,-63,-19,53,-12,-41,9,-34,-58,-87,-97,-87
-39,-63,-24,51,-7,-43,14,-34,-53,-87,-92,-92
-34,-63,-29,48,-2,-46,14,-34,-53,-82,-92,-97
-34,-63,-29,48,-2,-46,14,-34,-53,-82,-92,-92
-34,-63,-29,48,-2,-46,14,-34,-53,-82,-87,-92
-39,-58,-19,48,-9,-39,14,-29,-48,-78,-87,-92
-43,-58,-14,51,-14,-36,14,-29,-48,-78,-87,-92
-43,-58,-14,51,-14,-36,14,-29,-43,-78,-87,-87
-43,-58,-14,51,-14,-36,14,-29,-43,-73,-87,-82
-39,-53,-14,46,-12,-34,14,-29,-48,-73,-92,-82
-34,-53,-19,43,-7,-36,14,-29,-53,-73,-97,-82
-34,-48,-14,41,-9,-31,14,-29,-53,-78,-107,-87
-34,-43,-9,39,-12,-26,14,-29,-53,-87,-112,-92
-39,-48,-9,43,-14,-29,14,-29,-53,-87,-112,-92
-43,-48,-4,46,-19,-26,14,-29,-53,-87,-117,-92
-43,-53,-9,48,-17,-31,14,-39,-53,-87,-117,-92
-43,-58,-14,51,-14,-36,14,-43,-58,-87,-122,-92
-39,-58,-19,48,-9,-39,14,-43,-58,-87,-122,-92
-34,-63,-29,48,-2,-46,14,-43,-58,-87,-126,-97
-34,-63,-29,48,-2,-46,14,-43,-63,-92,-126,-97
-34,-63,-29,48,-2,-46,14,-43,-63,-92,-126,-97
-34,-63,-29,48,-2,-46,14,-43,-63,-87,-131,-92
-34,-68,-34,51,0,-51,14,-43,-63,-87,-131,-87
-34,-68,-34,51,0,-51,14,-48,-68,-87,-131,-87
-39,-68,-29,53,-4,-48,19,-48,-68,-87,-131,-87
-39,-68,-29,53,-4,-48,19,-48,-68,-87,-126,-92
-39,-68,-29,53,-4,-48,19,-48,-73,-92,-122,-92
-39,-68,-29,53,-4,-48,14,-43,-73,-97,-122,-92
-39,-68,-29,53,-4,-48,14,-43,-73,-102,-122,-92
-43,-63,-19,53,-12,-41,14,-43,-73,-102,-126,-97
-48,-58,-9,53,-19,-34,14,-43,-73,-107,-131,-107
-48,-63,-14,56,-17,-39,14,-43,-73,-107,-131,-107
-48,-63,-14,56,-17,-39,14,-43,-78,-107,-131,-107
-48,-68,-19,58,-14,-43,19,-48,-78,-112,-131,-107
-48,-73,-24,61,-12,-48,19,-48,-82,-112,-131,-107
-43,-73,-29,58,-7,-51,19,-53,-82,-112,-131,-107
-39,-73,-34,56,-2,-53,19,-58,-82,-112,-131,-112
-39,-73,-34,56,-2,-53,19,-58,-82,-112,-131,-112
-39,-73,-34,56,-2,-53,19,-58,-82,-112,-131,-107
-39,-68,-29,53,-4,-48,19,-58,-78,-112,-126,-107
-39,-63,-24,51,-7,-43,19,-58,-78,-107,-126,-107
-43,-48,-4,46,-19,-26,24,-53,-68,-107,-117,-102
-48,-39,9,43,-29,-14,24,-43,-63,-102,-112,-102
-48,-34,14,41,-31,-9,29,-39,-58,-97,-107,-97
-48,-29,19,39,-34,-4,39,-39,-53,-92,-102,-97
-43,-34,9,39,-26,-12,43,-34,-48,-87,-102,-92
-43,-34,9,39,-26,-12,53,-29,-48,-87,-107,-87
-43,-29,14,36,-29,-7,53,-24,-39,-78,-102,-87
-43,-19,24,31,-34,2,53,-24,-29,-73,-102,-82
-39,-9,29,24,-34,9,48,-19,-24,-68,-97,-73
-34,-4,29,19,-31,12,48,-19,-14,-63,-92,-68
-29,0,29,14,-29,14,39,-14,-14,-58,-82,-63
-24,0,24,12,-24,12,29,-19,-19,-58,-78,-63
-24,-4,19,14,-21,7,19,-24,-24,-58,-82,-63
-19,-14,4,17,-12,-4,9,-29,-29,-63,-87,-63
-19,-24,-4,21,-7,-14,-19,-43,-39,-78,-87,-63
-14,-24,-9,19,-2,-17,-34,-58,-48,-97,-92,-68
-14,-24,-9,19,-2,-17,-43,-68,-58,-92,-92,-73
-14,-24,-9,19,-2,-17,-53,-73,-58,-82,-97,-73
-14,-24,-9,19,-2,-17,-53,-78,-68,-87,-97,-78
-9,-24,-14,17,2,-19,-58,-78,-78,-102,-102,-78
-9,-24,-14,17,2,-19,-58,-92,-87,-107,-117,-82
-9,-24,-14,17,2,-19,-53,-92,-97,-117,-126,-82
0,-34,-34,17,17,-34,-48,-87,-102,-122,-122,-87
14,-43,-58,14,36,-51,-48,-87,-107,-126,-122,-92
0,-48,-48,24,24,-48,-39,-82,-107,-126,-122,-87
-9,-58,-48,34,19,-53,-29,-78,-107,-126,-126,-87
-19,-58,-39,39,9,-48,-19,-78,-107,-126,-131,-97
-29,-58,-29,43,0,-43,-9,-78,-107,-126,-136,-107
-39,-63,-24,51,-7,-43,-4,-78,-107,-126,-141,-107
-43,-73,-29,58,-7,-51,0,-78,-107,-126,-141,-112
-53,-87,-34,70,-9,-61,9,-82,-112,-131,-146,-117
-58,-102,-43,80,-7,-73,14,-78,-112,-136,-156,-126
-58,-102,-43,80,-7,-73,19,-73,-112,-136,-156,-126
-58,-102,-43,80,-7,-73,19,-73,-117,-136,-156,-126
-58,-107,-48,82,-4,-78,19,-78,-117,-141,-156,-131
-58,-107,-48,82,-4,-78,19,-78,-117,-141,-156,-131
-63,-107,-43,85,-9,-75,19,-78,-112,-141,-156,-126
-63,-107,-43,85,-9,-75,24,-78,-112,-141,-161,-122
-63,-102,-39,82,-12,-70,24,-73,-112,-141,-161,-122
-68,-102,-34,85,-17,-68,24,-68,-112,-141,-161,-122
-68,-102,-34,85,-17,-68,29,-68,-112,-141,-165,-122
-68,-102,-34,85,-17,-68,29,-68,-112,-141,-165,-122
-63,-102,-39,82,-12,-70,29,-68,-112,-141,-161,-131
-58,-102,-43,80,-7,-73,29,-63,-112,-141,-161,-136
-58,-102,-43,80,-7,-73,29,-63,-112,-141,-161,-136
-63,-102,-39,82,-12,-70,24,-63,-112,-141,-161,-136
-68,-97,-29,82,-19,-63,24,-63,-112,-141,-161,-131
-68,-92,-24,80,-21,-58,24,-63,-112,-141,-156,-126
-68,-92,-24,80,-21,-58,24,-63,-112,-141,-156,-126
-68,-92,-24,80,-21,-58,24,-63,-112,-141,-156,-126
-63,-97,-34,80,-14,-65,24,-63,-112,-141,-156,-126
-63,-97,-34,80,-14,-65,29,-63,-112,-141,-161,-126
-63,-102,-39,82,-12,-70,34,-63,-112,-141,-161,-126
-63,-102,-39,82,-12,-70,39,-58,-107,-141,-156,-126
-63,-102,-39,82,-12,-70,34,-58,-102,-141,-156,-126
-58,-102,-43,80,-7,-73,34,-58,-97,-141,-156,-126
-58,-102,-43,80,-7,-73,39,-58,-102,-136,-151,-126
-58,-102,-43,80,-7,-73,39,-58,-102,-131,-146,-126
-58,-102,-43,80,-7,-73,39,-63,-102,-131,-146,-122
-58,-102,-43,80,-7,-73,39,-63,-97,-131,-146,-117
-58,-102,-43,80,-7,-73,39,-58,-97,-131,-141,-117
-58,-102,-43,80,-7,-73,39,-58,-97,-131,-136,-117
-58,-102,-43,80,-7,-73,39,-58,-97,-131,-136,-117
-58,-102,-43,80,-7,-73,39,-58,-97,-131,-141,-117
-58,-97,-39,78,-9,-68,39,-58,-97,-131,-141,-117
-58,-97,-39,78,-9,-68,39,-58,-92,-131,-141,-117
-58,-97,-39,78,-9,-68,39,-58,-92,-131,-136,-112
-63,-97,-34,80,-14,-65,39,-58,-92,-131,-136,-107
-68,-102,-34,85,-17,-68,48,-58,-97,-141,-156,-122
-82,-126,-43,104,-19,-85,63,-58,-97,-161,-190,-146
-97,-156,-58,126,-19,-107,78,-43,-107,-175,-214,-190
-92,-175,-82,134,-4,-129,82,-24,-112,-165,-204,-180
-78,-136,-58,107,-9,-97,78,4,-29,-48,-78,-68
-24,9,34,7,-29,21,19,9,131,170,156,151
63,146,82,-104,-9,114,-48,29,214,331,375,361
165,331,165,-248,0,248,-151,-14,239,483,619,605
302,590,287,-446,7,439,-312,-87,278,702,927,922
483,868,385,-675,48,627,-561,-239,258,902,1254,1268
639,1078,439,-858,100,758,-829,-502,58,907,1424,1498
702,1098,395,-900,153,746,-980,-751,-268,663,1273,1459
639,829,190,-734,224,509,-878,-741,-600,244,829,1093
346,736,390,-541,-21,563,-688,-741,-600,92,575,834
24,512,488,-268,-231,500,-468,-741,-561,-131,190,414
-117,263,380,-73,-248,322,-283,-639,-600,-400,-195,19
-102,117,219,-7,-161,168,-180,-444,-561,-448,-287,-107
-73,9,82,31,-78,46,-107,-244,-483,-400,-292,-151
-48,-58,-9,53,-19,-34,-43,-73,-346,-302,-244,-156
-39,-82,-43,61,2,-63,9,0,-224,-219,-204,-156
-34,-73,-39,53,2,-56,24,0,-156,-161,-175,-136
-34,-68,-34,51,0,-51,29,0,-122,-136,-146,-112
-34,-68,-34,51,0,-51,34,9,-87,-112,-126,-102
-39,-68,-29,53,-4,-48,43,19,-53,-92,-117,-102
-43,-78,-34,61,-4,-56,58,24,-53,-92,-117,-112
-48,-92,-43,70,-2,-68,68,24,-58,-97,-122,-122
-48,-92,-43,70,-2,-68,68,29,-53,-97,-122,-126
-48,-92,-43,70,-2,-68,68,34,-34,-97,-122,-126
-48,-97,-48,73,0,-73,73,34,-29,-92,-117,-126
-48,-97,-48,73,0,-73,73,34,-29,-92,-107,-126
-48,-102,-53,75,2,-78,73,39,-29,-92,-107,-122
-48,-102,-53,75,2,-78,73,39,-29,-87,-107,-117
-48,-102,-53,75,2,-78,73,43,-24,-87,-107,-117
-48,-107,-58,78,4,-82,73,43,-19,-87,-107,-117
-48,-107,-58,78,4,-82,73,43,-19,-82,-107,-117
-48,-102,-53,75,2,-78,73,48,-14,-82,-102,-112
-48,-102,-53,75,2,-78,73,48,-9,-82,-97,-112
-48,-102,-53,75,2,-78,78,53,-9,-78,-92,-112
-48,-102,-53,75,2,-78,78,53,-9,-73,-87,-112
-43,-102,-58,73,7,-80,78,63,-4,-73,-78,-112
-43,-102,-58,73,7,-80,78,63,0,-63,-73,-112
-43,-102,-58,73,7,-80,78,63,0,-58,-68,-112
-43,-102,-58,73,7,-80,78,68,4,-53,-63,-112
-39,-97,-58,68,9,-78,73,73,9,-48,-63,-107
-39,-92,-53,65,7,-73,73,78,14,-48,-63,-107
-39,-92,-53,65,7,-73,78,82,14,-48,-58,-102
-39,-92,-53,65,7,-73,78,97,19,-43,-53,-102
-34,-92,-58,63,12,-75,78,102,29,-34,-53,-102
-34,-87,-53,61,9,-70,78,112,39,-29,-53,-97
-34,-87,-53,61,9,-70,78,117,43,-19,-53,-92
-29,-78,-48,53,9,-63,73,122,53,-9,-58,-82
-24,-73,-48,48,12,-61,73,131,63,0,-58,-78
-19,-63,-43,41,12,-53,73,141,73,9,-53,-73
-19,-58,-39,39,9,-48,73,156,87,24,-43,-68
-9,-58,-48,34,19,-53,73,170,102,43,-29,-58
0,-53,-53,26,26,-53,73,190,122,58,-19,-48
4,-43,-48,19,26,-46,73,200,136,73,-9,-39
9,-29,-39,9,24,-34,68,219,151,92,4,-29
19,-19,-39,0,29,-29,68,239,170,112,24,-19
29,-4,-34,-12,31,-19,63,258,190,141,43,-9
34,9,-24,-21,29,-7,63,278,214,165,68,14
43,29,-14,-36,29,7,63,297,244,195,102,34
48,48,0,-48,24,24,58,326,273,224,122,53
53,73,19,-63,17,46,48,341,297,253,151,73
63,87,24,-75,19,56,43,361,326,287,180,92
73,102,29,-87,21,65,43,380,351,317,204,117
78,122,43,-100,17,82,39,390,380,346,239,146
97,151,53,-124,21,102,24,405,405,375,273,165
102,170,68,-136,17,119,29,409,424,405,297,185
102,195,92,-148,4,143,24,414,444,424,326,209
112,214,102,-163,4,158,19,419,468,448,346,234
112,234,122,-173,-4,178,9,419,483,468,370,258
117,253,136,-185,-9,195,0,405,492,488,395,273
117,268,151,-192,-17,209,-9,390,492,497,405,292
112,283,170,-197,-29,226,-19,361,497,497,414,302
107,297,190,-202,-41,244,-29,322,488,497,414,317
102,307,204,-204,-51,256,-43,287,468,483,414,317
92,312,219,-202,-63,265,-53,248,439,453,405,312
87,302,214,-195,-63,258,-58,219,400,419,370,302
73,283,209,-178,-68,246,-58,185,366,390,336,283
68,253,185,-161,-58,219,-58,146,312,341,307,258
58,224,165,-141,-53,195,-58,117,268,292,268,229
43,200,156,-122,-56,178,-48,87,214,234,224,195
34,170,136,-102,-51,153,-48,63,175,185,185,161
24,146,122,-85,-48,134,-39,34,141,151,151,126
14,122,107,-68,-46,114,-39,9,107,112,117,102
4,97,92,-51,-43,95,-29,0,73,68,78,73
-4,73,78,-34,-41,75,-24,-14,48,34,39,39
-14,58,73,-21,-43,65,-19,-24,29,19,19,19
-14,39,53,-12,-34,46,-19,-34,4,-4,4,4
-19,14,34,2,-26,24,-14,-34,-14,-24,-14,-4
-19,0,19,9,-19,9,-9,-43,-19,-34,-34,-24
-24,-9,14,17,-19,2,-4,-48,-34,-43,-43,-34
-29,-19,9,24,-19,-4,-4,-48,-39,-58,-48,-43
-29,-24,4,26,-17,-9,0,-48,-43,-63,-58,-48
-34,-34,0,34,-17,-17,0,-53,-48,-73,-68,-53
-34,-34,0,34,-17,-17,0,-53,-53,-73,-68,-58
-34,-34,0,34,-17,-17,4,-53,-58,-73,-73,-58
-34,-34,0,34,-17,-17,4,-53,-58,-78,-73,-63
-39,-39,0,39,-19,-19,4,-53,-58,-82,-73,-63
-39,-43,-4,41,-17,-24,4,-53,-63,-87,-73,-63
-39,-43,-4,41,-17,-24,4,-53,-63,-92,-73,-68
-39,-48,-9,43,-14,-29,4,-53,-63,-92,-73,-68
-34,-53,-19,43,-7,-36,9,-53,-63,-97,-78,-68
-34,-53,-19,43,-7,-36,9,-53,-63,-97,-82,-68
-34,-53,-19,43,-7,-36,9,-48,-68,-97,-82,-73
-34,-48,-14,41,-9,-31,9,-48,-68,-97,-78,-73
-34,-43,-9,39,-12,-26,9,-48,-63,-92,-78,-73
-34,-43,-9,39,-12,-26,9,-48,-58,-92,-78,-73
-34,-48,-14,41,-9,-31,9,-43,-53,-92,-78,-68
-39,-48,-9,43,-14,-29,9,-43,-53,-87,-78,-68
-39,-48,-9,43,-14,-29,9,-43,-48,-82,-78,-68
-34,-48,-14,41,-9,-31,9,-39,-48,-78,-73,-68
-34,-43,-9,39,-12,-26,9,-39,-48,-78,-73,-68
-34,-43,-9,39,-12,-26,9,-39,-53,-78,-68,-68
-34,-43,-9,39,-12,-26,9,-34,-58,-78,-68,-68
-34,-43,-9,39,-12,-26,14,-34,-53,-78,-63,-68
-34,-43,-9,39,-12,-26,14,-34,-53,-73,-63,-68
-34,-48,-14,41,-9,-31,14,-34,-48,-73,-63,-63
-34,-53,-19,43,-7,-36,14,-34,-43,-73,-58,-63
-34,-53,-19,43,-7,-36,14,-29,-39,-68,-58,-63
-34,-58,-24,46,-4,-41,14,-29,-39,-68,-58,-63
-34,-58,-24,46,-4,-41,14,-29,-34,-68,-58,-63
-34,-58,-24,46,-4,-41,14,-29,-34,-63,-58,-63
-34,-53,-19,43,-7,-36,14,-29,-34,-63,-58,-63
-34,-53,-19,43,-7,-36,14,-29,-34,-63,-58,-63
-34,-53,-19,43,-7,-36,14,-29,-34,-63,-63,-63
-34,-53,-19,43,-7,-36,14,-29,-34,-68,-63,-63
-34,-58,-24,46,-4,-41,14,-29,-34,-68,-63,-63
-34,-58,-24,46,-4,-41,14,-29,-34,-68,-68,-63
-34,-58,-24,46,-4,-41,14,-34,-34,-68,-68,-63
-34,-58,-24,46,-4,-41,14,-34,-39,-68,-73,-63
-34,-58,-24,46,-4,-41,14,-29,-39,-68,-68,-63
-34,-63,-29,48,-2,-46,14,-24,-39,-68,-68,-68
-34,-63,-29,48,-2,-46,14,-24,-43,-73,-68,-68
-34,-63,-29,48,-2,-46,14,-24,-43,-73,-68,-68
-34,-63,-29,48,-2,-46,14,-29,-43,-73,-73,-68
-34,-68,-34,51,0,-51,14,-34,-43,-78,-73,-68
-34,-68,-34,51,0,-51,14,-39,-48,-78,-68,-68
-39,-68,-29,53,-4,-48,19,-39,-48,-78,-63,-68
-39,-68,-29,53,-4,-48,19,-39,-48,-78,-63,-73
-39,-68,-29,53,-4,-48,19,-39,-53,-82,-63,-73
-34,-68,-34,51,0,-51,14,-39,-53,-82,-63,-73
-29,-68,-39,48,4,-53,14,-43,-53,-82,-63,-73
-29,-68,-39,48,4,-53,14,-43,-53,-82,-63,-73
-29,-68,-39,48,4,-53,14,-43,-53,-87,-63,-78
-29,-73,-43,51,7,-58,14,-43,-53,-87,-63,-78
-29,-73,-43,51,7,-58,14,-43,-58,-87,-63,-78
-29,-73,-43,51,7,-58,19,-48,-58,-92,-63,-78
-29,-73,-43,51,7,-58,19,-48,-63,-92,-63,-78
-34,-73,-39,53,2,-56,19,-48,-63,-92,-63,-78
-39,-73,-34,56,-2,-53,19,-48,-63,-92,-63,-82
-39,-73,-34,56,-2,-53,14,-48,-63,-92,-63,-82
-39,-73,-34,56,-2,-53,9,-48,-63,-92,-63,-78
-39,-68,-29,53,-4,-48,9,-48,-63,-97,-58,-78
-39,-63,-24,51,-7,-43,9,-48,-68,-97,-58,-78
-34,-53,-19,43,-7,-36,14,-48,-58,-97,-53,-73
-29,-48,-19,39,-4,-34,14,-43,-53,-92,-53,-73
-29,-39,-9,34,-9,-24,19,-39,-48,-82,-48,-68
-29,-29,0,29,-14,-14,29,-39,-43,-73,-43,-68
-29,-29,0,29,-14,-14,29,-34,-39,-68,-39,-63
-34,-24,9,29,-21,-7,34,-29,-39,-68,-39,-58
-34,-24,9,29,-21,-7,39,-29,-29,-58,-34,-58
-34,-19,14,26,-24,-2,43,-34,-19,-53,-34,-53
-29,-14,14,21,-21,0,39,-29,-14,-48,-29,-48
-24,-14,9,19,-17,-2,39,-29,-4,-43,-24,-48
-19,0,19,9,-19,9,34,-24,4,-39,-14,-43
-14,9,24,2,-19,17,29,-29,9,-39,-9,-43
-14,9,24,2,-19,17,19,-34,4,-39,-14,-43
-9,4,14,2,-12,9,9,-39,0,-43,-19,-43
-9,-9,0,9,-4,-4,-19,-48,-14,-48,-19,-43
-4,-14,-9,9,2,-12,-34,-58,-29,-58,-24,-48
-4,-14,-9,9,2,-12,-43,-68,-39,-63,-24,-53
-4,-14,-9,9,2,-12,-53,-73,-39,-63,-29,-53
-4,-14,-9,9,2,-12,-53,-78,-48,-68,-29,-58
0,-14,-14,7,7,-14,-58,-78,-58,-82,-34,-58
0,-19,-19,9,9,-19,-63,-92,-73,-82,-39,-63
0,-24,-24,12,12,-24,-63,-92,-87,-87,-39,-63
9,-24,-34,7,21,-29,-58,-87,-92,-92,-39,-63
24,-24,-48,0,36,-36,-58,-87,-97,-97,-43,-63
9,-29,-39,9,24,-34,-48,-82,-97,-97,-43,-53
0,-39,-39,19,19,-39,-39,-78,-97,-97,-48,-48
-4,-39,-34,21,14,-36,-34,-78,-92,-97,-53,-58
-9,-39,-29,24,9,-34,-29,-78,-87,-97,-58,-68
-24,-43,-19,34,-2,-31,-24,-78,-87,-102,-63,-73
-34,-53,-19,43,-7,-36,-14,-78,-87,-107,-63,-78
-43,-68,-24,56,-9,-46,-9,-82,-92,-112,-68,-87
