I,II,III,aVR,aVL,aVF,V1,V2,V3,V4,V5,V6,
-136,-68,68,102,-102,0,39,-97,-351,-507,-419,-312
-126,-63,63,95,-95,0,39,-97,-341,-488,-405,-307
-117,-58,58,87,-87,0,39,-97,-331,-468,-390,-302
-112,-53,58,82,-85,2,34,-97,-322,-453,-375,-292
-107,-48,58,78,-82,4,29,-97,-312,-439,-361,-283
-107,-48,58,78,-82,4,24,-92,-292,-414,-341,-263
-107,-48,58,78,-82,4,19,-87,-273,-390,-322,-244
-92,-48,43,70,-68,-2,19,-78,-248,-361,-297,-224
-78,-48,29,63,-53,-9,19,-68,-224,-331,-273,-204
-73,-34,39,53,-56,2,14,-63,-204,-302,-248,-185
-68,-19,48,43,-58,14,9,-58,-185,-273,-224,-165
-58,-14,43,36,-51,14,4,-53,-156,-229,-195,-146
-48,-9,39,29,-43,14,0,-48,-126,-185,-165,-126
-39,-9,29,24,-34,9,0,-34,-107,-175,-151,-117
-29,-9,19,19,-24,4,0,-19,-87,-165,-136,-107
-29,-9,19,19,-24,4,-19,-19,-73,-146,-126,-97
-29,-9,19,19,-24,4,-39,-19,-58,-126,-117,-87
-29,-9,19,19,-24,4,-24,-19,-43,-97,-87,-68
-29,-9,19,19,-24,4,-9,-19,-29,-68,-58,-48
-4,9,14,-2,-9,12,4,-4,-14,-43,-39,-34
19,29,9,-24,4,19,19,9,0,-19,-19,-19
9,29,19,-19,-4,24,19,9,9,-19,-14,-14
0,29,29,-14,-14,29,19,9,19,-19,-9,-9
-4,29,34,-12,-19,31,9,4,19,-9,-4,-9
-9,29,39,-9,-24,34,0,0,19,0,0,-9
-9,29,39,-9,-24,34,0,0,24,4,0,-9
-9,29,39,-9,-24,34,0,0,29,9,0,-9
-4,29,34,-12,-19,31,4,0,29,9,4,-4
0,29,29,-14,-14,29,9,0,29,9,9,0
9,29,19,-19,-4,24,9,0,29,14,14,0
19,29,9,-24,4,19,9,0,29,19,19,0
4,24,19,-14,-7,21,0,0,24,19,19,4
-9,19,29,-4,-19,24,-9,0,19,19,19,9
-9,19,29,-4,-19,24,-9,0,14,14,19,9
-9,19,29,-4,-19,24,-9,0,9,9,19,9
-9,19,29,-4,-19,24,0,0,9,4,9,4
-9,19,29,-4,-19,24,9,0,9,0,0,0
-9,24,34,-7,-21,29,9,0,4,-4,-4,-4
-9,29,39,-9,-24,34,9,0,0,-9,-9,-9
-9,29,39,-9,-24,34,4,0,0,-14,-14,-14
-9,29,39,-9,-24,34,0,0,0,-19,-19,-19
-14,24,39,-4,-26,31,-14,0,-4,-24,-24,-29
-19,19,39,0,-29,29,-29,0,-9,-29,-29,-39
-19,9,29,4,-24,19,-29,0,-9,-34,-29,-39
-19,0,19,9,-19,9,-29,0,-9,-39,-29,-39
-19,-9,9,14,-14,0,-24,0,-9,-39,-29,-39
-19,-19,0,19,-9,-9,-19,0,-9,-39,-29,-39
-9,14,24,-2,-17,19,-4,-9,-19,-39,-34,-39
0,48,48,-24,-24,48,9,-19,-29,-39,-39,-39
0,39,39,-19,-19,39,9,-19,-29,-39,-39,-39
0,29,29,-14,-14,29,9,-19,-29,-39,-39,-39
0,24,24,-12,-12,24,9,-14,-24,-29,-34,-34
0,19,19,-9,-9,19,9,-9,-19,-19,-29,-29
0,19,19,-9,-9,19,-4,-9,-19,-19,-29,-29
0,19,19,-9,-9,19,-19,-9,-19,-19,-29,-29
0,0,0,0,0,0,-4,-4,-14,-24,-34,-34
0,-19,-19,9,9,-19,9,0,-9,-29,-39,-39
0,-19,-19,9,9,-19,9,0,-9,-29,-39,-39
0,-19,-19,9,9,-19,9,0,-9,-29,-39,-39
0,-9,-9,4,4,-9,9,0,-9,-29,-39,-39
0,0,0,0,0,0,9,0,-9,-29,-39,-39
0,0,0,0,0,0,0,0,-9,-29,-34,-39
0,0,0,0,0,0,-9,0,-9,-29,-29,-39
0,0,0,0,0,0,-9,0,-9,-29,-29,-39
0,0,0,0,0,0,-9,0,-9,-29,-29,-39
0,4,4,-2,-2,4,-4,0,0,-19,-19,-34
0,9,9,-4,-4,9,0,0,9,-9,-9,-29
0,9,9,-4,-4,9,0,0,9,-4,-9,-24
0,9,9,-4,-4,9,0,0,9,0,-9,-19
0,19,19,-9,-9,19,-9,0,4,0,-9,-19
0,29,29,-14,-14,29,-19,0,0,0,-9,-19
0,14,14,-7,-7,14,-19,0,0,-4,-14,-24
0,0,0,0,0,0,-19,0,0,-9,-19,-29
0,0,0,0,0,0,-19,0,0,-9,-19,-29
0,0,0,0,0,0,-19,0,0,-9,-19,-29
14,14,0,-14,7,7,-14,0,4,-4,-14,-24
29,29,0,-29,14,14,-9,0,9,0,-9,-19
19,14,-4,-17,12,4,-9,0,9,0,-9,-19
9,0,-9,-4,9,-4,-9,0,9,0,-9,-19
9,14,4,-12,2,9,-9,0,9,-9,-19,-19
9,29,19,-19,-4,24,-9,0,9,-19,-29,-19
4,-4,-9,0,7,-7,-4,4,9,-4,-19,-9
0,-39,-39,19,19,-39,0,9,9,9,-9,0
0,-14,-14,7,7,-14,0,9,9,9,-9,-14
0,9,9,-4,-4,9,0,9,9,9,-9,-29
0,-4,-4,2,2,-4,0,9,9,14,-4,-14
0,-19,-19,9,9,-19,0,9,9,19,0,0
0,0,0,0,0,0,-4,9,9,19,0,-9
0,19,19,-9,-9,19,-9,9,9,19,0,-19
9,19,9,-14,0,14,-9,14,14,9,0,-19
19,19,0,-19,9,9,-9,19,19,0,0,-19
19,19,0,-19,9,9,-4,19,24,9,4,-9
19,19,0,-19,9,9,0,19,29,19,9,0
9,24,14,-17,-2,19,0,19,29,29,9,4
0,29,29,-14,-14,29,0,19,29,39,9,9
14,43,29,-29,-7,36,0,29,43,48,24,14
29,58,29,-43,0,43,0,39,58,58,39,19
29,58,29,-43,0,43,14,43,63,63,39,19
29,58,29,-43,0,43,29,48,68,68,39,19
29,53,24,-41,2,39,29,48,68,68,39,19
29,48,19,-39,4,34,29,48,68,68,39,19
39,48,9,-43,14,29,19,48,68,68,39,19
48,48,0,-48,24,24,9,48,68,68,39,19
48,43,-4,-46,26,19,0,48,68,58,34,19
48,29,-19,-39,34,4,-4,43,63,53,29,19
48,14,-34,-31,41,-9,-9,43,58,48,24,19
53,-4,-58,-24,56,-31,-14,39,53,48,24,19
53,9,-43,-31,48,-17,-19,39,53,39,19,14
53,34,-19,-43,36,7,-19,39,53,39,19,14
53,19,-34,-36,43,-7,-19,39,48,34,14,14
53,9,-43,-31,48,-17,-24,39,48,24,-4,4
68,-14,-82,-26,75,-48,-24,39,43,19,-9,4
73,-43,-117,-14,95,-80,-29,39,43,19,-9,0
73,-53,-126,-9,100,-90,-19,39,39,19,-9,-4
73,-53,-126,-9,100,-90,-14,39,34,19,-9,-9
68,-53,-122,-7,95,-87,-24,34,29,14,-14,-9
58,-58,-117,0,87,-87,-29,29,24,4,-14,-14
58,-39,-97,-9,78,-68,-39,19,14,14,-14,-14
53,-39,-92,-7,73,-65,-43,14,14,14,-14,-14
29,-39,-68,4,48,-53,-29,14,9,9,-19,-14
14,-39,-53,12,34,-46,-29,4,4,-4,-29,-24
0,-43,-43,21,21,-43,-19,4,4,-4,-29,-24
0,-43,-43,21,21,-43,-19,9,9,-4,-29,-24
4,-43,-48,19,26,-46,-4,14,9,-4,-29,-24
4,-43,-48,19,26,-46,9,14,14,0,-29,-24
4,-43,-48,19,26,-46,14,14,9,-4,-29,-29
-4,-43,-39,24,17,-41,19,9,4,-9,-29,-34
-4,-43,-39,24,17,-41,19,4,4,-9,-29,-34
-4,-29,-24,17,9,-26,9,0,0,-9,-29,-34
-4,-24,-19,14,7,-21,9,0,0,-9,-29,-29
0,-24,-24,12,12,-24,9,0,0,-9,-29,-24
9,-24,-34,7,21,-29,4,4,4,-4,-29,-24
14,-24,-39,4,26,-31,4,9,9,-4,-34,-24
-4,-34,-29,19,12,-31,4,9,4,0,-29,-29
-14,-43,-29,29,7,-36,4,-4,0,4,-24,-29
-14,-34,-19,24,2,-26,9,-4,0,4,-24,-29
-14,-48,-34,31,9,-41,9,4,9,9,-24,-29
-4,-39,-34,21,14,-36,4,9,4,0,-29,-34
0,-29,-29,14,14,-29,-4,19,4,-4,-34,-39
0,-39,-39,19,19,-39,-9,9,4,0,-34,-39
-4,-53,-48,29,21,-51,-9,9,4,0,-29,-39
-14,-53,-39,34,12,-46,-9,9,4,0,-24,-29
-14,-39,-24,26,4,-31,-4,9,4,0,-24,-24
-9,-39,-29,24,9,-34,4,19,19,4,-24,-24
-9,-43,-34,26,12,-39,14,48,39,9,-19,-24
-14,-73,-58,43,21,-65,29,78,63,24,-24,-34
9,-34,-43,12,26,-39,19,102,136,97,29,0
73,-19,-92,-26,82,-56,9,185,312,273,165,102
146,9,-136,-78,141,-63,0,297,546,527,361,239
273,78,-195,-175,234,-58,-4,473,824,810,595,419
400,156,-244,-278,322,-43,-43,527,1010,1029,805,595
536,278,-258,-407,397,9,-131,453,1068,1210,1005,771
610,405,-204,-507,407,100,-229,292,1054,1356,1171,946
570,531,-39,-551,305,246,-361,-34,849,1381,1254,1054
531,556,24,-544,253,290,-448,-258,629,1288,1229,1068
463,448,-14,-456,239,217,-424,-331,463,1117,1122,985
405,361,-43,-383,224,158,-409,-370,351,971,1005,897
361,331,-29,-346,195,151,-375,-390,292,888,922,819
292,283,-9,-287,151,136,-326,-390,195,722,761,673
180,219,39,-200,70,129,-263,-375,102,541,575,507
107,117,9,-112,48,63,-214,-326,43,366,395,351
39,-24,-63,-7,51,-43,-161,-283,-107,97,122,126
-48,-126,-78,87,14,-102,-97,-234,-244,-136,-112,-68
-82,-112,-29,97,-26,-70,-24,-165,-258,-219,-190,-136
-87,-92,-4,90,-41,-48,19,-107,-204,-209,-185,-146
-73,-87,-14,80,-29,-51,19,-48,-131,-146,-151,-117
-48,-92,-43,70,-2,-68,19,-19,-92,-102,-107,-92
-34,-58,-24,46,-4,-41,4,-9,-68,-82,-92,-87
-43,-58,-14,51,-14,-36,24,-4,-63,-78,-87,-78
-48,-58,-9,53,-19,-34,34,4,-53,-73,-82,-78
-48,-58,-9,53,-19,-34,24,14,-43,-68,-78,-68
-48,-58,-9,53,-19,-34,14,14,-39,-63,-78,-68
-43,-53,-9,48,-17,-31,9,14,-39,-63,-78,-68
-43,-53,-9,48,-17,-31,14,14,-39,-63,-73,-68
-39,-48,-9,43,-14,-29,14,19,-34,-58,-73,-68
-34,-58,-24,46,-4,-41,29,24,-24,-48,-68,-68
-34,-63,-29,48,-2,-46,48,29,-19,-43,-68,-68
-39,-78,-39,58,0,-58,48,29,-14,-43,-68,-68
-39,-92,-53,65,7,-73,53,29,-9,-39,-63,-68
-39,-68,-29,53,-4,-48,48,24,-19,-43,-68,-73
-39,-58,-19,48,-9,-39,39,19,-24,-48,-73,-68
-34,-39,-4,36,-14,-21,34,19,-24,-48,-73,-68
-24,-24,0,24,-12,-12,29,19,-24,-48,-73,-73
-29,-39,-9,34,-9,-24,29,24,-19,-39,-68,-68
-34,-53,-19,43,-7,-36,29,29,-9,-19,-58,-58
-34,-53,-19,43,-7,-36,29,29,-9,-19,-53,-58
-34,-53,-19,43,-7,-36,29,29,-9,-14,-53,-58
-29,-53,-24,41,-2,-39,29,29,-9,-14,-53,-58
-24,-48,-24,36,0,-36,29,29,-4,-14,-53,-53
-24,-43,-19,34,-2,-31,39,34,-4,-14,-53,-48
-24,-39,-14,31,-4,-26,48,34,-4,-19,-53,-48
-34,-48,-14,41,-9,-31,48,34,-4,-19,-53,-53
-34,-48,-14,41,-9,-31,48,34,-4,-19,-53,-58
-29,-43,-14,36,-7,-29,48,34,-9,-24,-53,-63
-29,-48,-19,39,-4,-34,48,34,-9,-29,-48,-63
-34,-53,-19,43,-7,-36,43,34,-9,-29,-48,-58
-34,-53,-19,43,-7,-36,43,29,-14,-29,-53,-58
-24,-29,-4,26,-9,-17,29,24,-19,-39,-58,-58
-24,-24,0,24,-12,-12,19,19,-19,-39,-58,-58
-24,-24,0,24,-12,-12,29,19,-19,-39,-58,-63
-34,-19,14,26,-24,-2,39,19,-34,-48,-63,-68
-48,-29,19,39,-34,-4,29,14,-39,-43,-63,-78
-58,-39,19,48,-39,-9,39,14,-48,-48,-73,-78
-58,-39,19,48,-39,-9,39,9,-53,-58,-78,-78
-63,-43,19,53,-41,-12,39,9,-63,-63,-78,-78
-73,-63,9,68,-41,-26,39,9,-68,-82,-87,-78
-73,-73,0,73,-36,-36,43,4,-73,-92,-97,-87
-73,-63,9,68,-41,-26,43,-9,-82,-102,-107,-92
-82,-53,29,68,-56,-12,39,-14,-92,-117,-117,-102
-87,-53,34,70,-61,-9,34,-24,-117,-131,-131,-117
-87,-48,39,68,-63,-4,34,-29,-136,-146,-151,-126
-87,-48,39,68,-63,-4,34,-29,-146,-165,-161,-136
-97,-53,43,75,-70,-4,39,-43,-156,-180,-180,-146
-107,-63,43,85,-75,-9,39,-48,-180,-209,-190,-156
-117,-78,39,97,-78,-19,43,-58,-204,-234,-204,-161
-126,-78,48,102,-87,-14,48,-63,-239,-268,-229,-180
-126,-78,48,102,-87,-14,48,-73,-273,-292,-248,-200
-126,-73,53,100,-90,-9,48,-78,-287,-322,-273,-214
-131,-73,58,102,-95,-7,53,-87,-312,-351,-297,-234
-146,-92,53,119,-100,-19,53,-97,-341,-380,-312,-244
-146,-97,48,122,-97,-24,53,-102,-351,-400,-331,-258
-156,-102,53,129,-104,-24,48,-112,-375,-414,-356,-278
-156,-102,53,129,-104,-24,48,-117,-395,-439,-375,-287
-151,-102,48,126,-100,-26,43,-131,-414,-458,-390,-297
-151,-102,48,126,-100,-26,43,-136,-429,-483,-400,-302
-151,-126,24,139,-87,-51,63,-131,-429,-483,-400,-302
-151,-136,14,143,-82,-61,73,-131,-429,-492,-400,-302
-141,-126,14,134,-78,-56,63,-131,-424,-478,-380,-292
-136,-112,24,124,-80,-43,53,-131,-419,-463,-361,-283
-131,-112,19,122,-75,-46,43,-126,-405,-453,-366,-278
-131,-112,19,122,-75,-46,39,-126,-400,-453,-361,-268
-122,-117,4,119,-63,-56,24,-117,-370,-439,-341,-258
-122,-112,9,117,-65,-51,9,-117,-361,-424,-331,-253
-112,-112,0,112,-56,-56,14,-107,-336,-400,-317,-239
-102,-112,-9,107,-46,-61,24,-97,-317,-370,-287,-214
-87,-82,4,85,-46,-39,24,-87,-287,-336,-268,-195
-82,-63,19,73,-51,-21,29,-78,-258,-297,-244,-170
-68,-63,4,65,-36,-29,29,-63,-229,-268,-214,-151
-58,-78,-19,68,-19,-48,24,-48,-200,-239,-195,-131
-53,-78,-24,65,-14,-51,4,-39,-175,-204,-175,-112
-43,-73,-29,58,-7,-51,-4,-34,-146,-170,-146,-92
-34,-43,-9,39,-12,-26,-4,-24,-122,-151,-131,-87
-29,-34,-4,31,-12,-19,0,-19,-97,-126,-107,-68
-24,-34,-9,29,-7,-21,9,-4,-68,-97,-87,-58
-9,-24,-14,17,2,-19,14,-4,-53,-78,-73,-43
-19,-24,-4,21,-7,-14,14,-4,-43,-53,-48,-34
-19,-24,-4,21,-7,-14,14,0,-19,-39,-39,-29
-9,-24,-14,17,2,-19,14,9,0,-19,-24,-19
-9,-24,-14,17,2,-19,4,9,4,-4,-9,-14
4,-9,-14,2,9,-12,9,19,24,14,4,4
24,4,-19,-14,21,-7,14,29,39,29,19,19
14,-4,-19,-4,17,-12,14,29,39,24,24,19
4,-19,-24,7,14,-21,14,29,43,29,29,24
-4,-24,-19,14,7,-21,9,24,43,34,24,19
-14,-24,-9,19,-2,-17,4,19,39,34,19,19
-14,-14,0,14,-7,-7,0,19,39,34,19,19
-14,-14,0,14,-7,-7,-4,19,39,39,24,19
-9,-4,4,7,-7,0,0,19,39,48,29,29
-4,9,14,-2,-9,12,0,19,39,39,29,29
-4,-4,0,4,-2,-2,0,19,43,39,34,19
-9,-24,-14,17,2,-19,0,19,48,43,43,19
-4,-19,-14,12,4,-17,0,14,43,43,43,19
-9,4,14,2,-12,9,-4,9,34,39,34,9
-9,4,14,2,-12,9,-9,9,29,24,24,9
-4,4,9,0,-7,7,-9,9,29,24,24,4
-4,-4,0,4,-2,-2,4,4,24,24,24,4
-4,-9,-4,7,0,-7,14,0,14,14,14,0
-19,-19,0,19,-9,-9,4,0,4,14,9,0
-29,-19,9,24,-19,-4,-9,-4,0,4,4,0
-24,-14,9,19,-17,-2,0,-4,0,0,0,-4
-24,-14,9,19,-17,-2,4,-4,-4,-4,0,-4
-9,-9,0,9,-4,-4,14,-4,0,-4,-4,-4
0,-4,-4,2,2,-4,24,-4,-4,-9,-4,-4
-4,-14,-9,9,2,-12,14,-9,-4,-14,-9,-14
-4,-14,-9,9,2,-12,14,-9,-4,-14,-9,-14
-4,-19,-14,12,4,-17,14,-9,-14,-14,-9,-9
-4,-24,-19,14,7,-21,14,-9,-14,-19,-9,-9
-4,-24,-19,14,7,-21,4,-9,-19,-19,-9,-9
-4,-34,-29,19,12,-31,-4,-9,-19,-19,-9,-9
-4,-19,-14,12,4,-17,-9,-14,-19,-19,-9,-14
-9,-14,-4,12,-2,-9,-9,-14,-19,-24,-9,-19
-24,-19,4,21,-14,-7,-14,-9,-19,-24,-9,-14
-29,-19,9,24,-19,-4,-14,-9,-14,-24,-4,-14
-14,-19,-4,17,-4,-12,-14,-9,-14,-24,-9,-14
-4,-19,-14,12,4,-17,-14,-9,-9,-24,-14,-14
-4,-24,-19,14,7,-21,0,0,-4,-19,-14,-14
-4,-24,-19,14,7,-21,9,4,-4,-19,-14,-14
-4,-24,-19,14,7,-21,4,4,-4,-19,-9,-9
-4,-24,-19,14,7,-21,4,4,-4,-19,-9,-9
-4,-14,-9,9,2,-12,-9,0,-4,-19,-9,-9
-4,-24,-19,14,7,-21,-4,0,0,-9,-9,-4
-9,-29,-19,19,4,-24,-4,4,9,-4,0,-4
-9,-19,-9,14,0,-14,-9,4,9,-4,0,-4
0,-19,-19,9,9,-19,-9,4,9,-4,0,-4
0,-19,-19,9,9,-19,-9,4,14,4,4,0
0,-9,-9,4,4,-9,-9,0,14,9,9,0
-4,-4,0,4,-2,-2,-9,-4,14,9,9,-4
-4,-4,0,4,-2,-2,-9,-4,14,4,4,-4
0,0,0,0,0,0,-4,0,19,4,0,4
0,0,0,0,0,0,0,-4,19,14,9,0
4,9,4,-7,0,7,-4,-4,19,14,9,-4
4,9,4,-7,0,7,-4,-4,19,19,9,0
0,0,0,0,0,0,-14,-4,19,19,9,0
0,-14,-14,7,7,-14,-14,4,24,24,19,9
0,-19,-19,9,9,-19,-14,14,29,29,29,19
0,-19,-19,9,9,-19,-9,14,29,24,29,19
0,-19,-19,9,9,-19,-4,14,29,24,29,19
0,-4,-4,2,2,-4,0,9,34,24,29,14
0,4,4,-2,-2,4,4,0,34,19,24,9
0,4,4,-2,-2,4,4,0,34,14,24,9
0,9,9,-4,-4,9,4,0,34,14,19,9
4,0,-4,-2,4,-2,4,9,39,14,19,14
4,-9,-14,2,9,-12,4,14,39,14,19,14
0,-24,-24,12,12,-24,-9,9,39,19,19,14
-9,-34,-24,21,7,-29,-19,9,39,24,19,14
-9,-19,-9,14,0,-14,-19,14,39,24,19,14
-9,0,9,4,-9,4,-19,14,39,24,24,14
14,34,19,-24,-2,26,-19,14,48,43,39,34
29,58,29,-43,0,43,-14,19,63,58,48,48
29,68,39,-48,-4,53,0,24,63,63,53,48
29,68,39,-48,-4,53,19,24,68,73,68,53
9,39,29,-24,-9,34,19,24,82,78,78,58
-4,24,29,-9,-17,26,19,29,87,82,82,53
14,34,19,-24,-2,26,14,39,87,78,73,48
39,48,9,-43,14,29,9,48,87,78,68,48
39,48,9,-43,14,29,9,48,87,78,73,53
39,48,9,-43,14,29,9,48,87,78,78,58
48,48,0,-48,24,24,0,48,92,78,78,58
53,34,-19,-43,36,7,-4,48,92,78,73,58
58,24,-34,-41,46,-4,-9,48,92,78,73,58
63,4,-58,-34,61,-26,-14,48,92,78,73,58
53,4,-48,-29,51,-21,-14,43,82,68,68,48
43,14,-29,-29,36,-7,-9,39,73,68,68,43
43,0,-43,-21,43,-21,-4,39,68,63,68,43
43,-9,-53,-17,48,-31,-4,39,68,53,53,34
53,-14,-68,-19,61,-41,-9,39,63,43,43,34
53,-24,-78,-14,65,-51,-19,39,63,39,39,29
53,-34,-87,-9,70,-61,-19,43,63,39,39,24
53,-34,-87,-9,70,-61,-24,48,63,39,39,19
53,-34,-87,-9,70,-61,-34,43,58,29,34,19
48,-39,-87,-4,68,-63,-39,39,53,14,34,14
53,-19,-73,-17,63,-46,-39,29,43,24,34,19
53,-19,-73,-17,63,-46,-34,24,43,24,34,24
29,-19,-48,-4,39,-34,-19,24,39,24,29,24
14,-19,-34,2,24,-26,-19,14,34,14,19,14
-4,-29,-24,17,9,-26,-9,9,29,9,14,9
-9,-34,-24,21,7,-29,-9,9,29,4,9,4
-4,-39,-34,21,14,-36,-9,14,29,4,9,4
-4,-43,-39,24,17,-41,-9,14,34,9,9,4
-4,-43,-39,24,17,-41,-4,14,34,9,9,4
-14,-43,-29,29,7,-36,0,9,34,9,9,4
-14,-39,-24,26,4,-31,0,9,34,9,9,4
-14,-19,-4,17,-4,-12,-9,9,29,9,9,4
-14,-19,-4,17,-4,-12,-9,9,29,9,14,4
-9,-24,-14,17,2,-19,-9,9,29,9,19,4
-9,-39,-29,24,9,-34,-14,9,29,19,19,4
-14,-53,-39,34,12,-46,-14,9,29,24,14,4
-19,-29,-9,24,-4,-19,-9,9,24,14,14,0
-14,-4,9,9,-12,2,-4,-4,19,4,14,0
-14,-4,9,9,-12,2,4,-4,19,0,14,0
-14,-29,-14,21,0,-21,9,4,29,0,14,0
-4,-24,-19,14,7,-21,14,9,29,0,14,0
0,-19,-19,9,9,-19,14,19,34,4,14,0
0,-19,-19,9,9,-19,9,9,34,9,9,0
-4,-24,-19,14,7,-21,9,9,34,9,9,0
-19,-43,-24,31,2,-34,0,9,34,9,9,0
-24,-48,-24,36,0,-36,-4,9,34,9,4,-4
-29,-48,-19,39,-4,-34,-4,4,34,4,-4,-4
-39,-53,-14,46,-12,-34,-4,19,39,0,-9,-4
-39,-73,-34,56,-2,-53,29,39,39,0,-14,-24
-9,-24,-14,17,2,-19,39,53,87,58,39,0
43,-4,-48,-19,46,-26,29,107,214,185,141,87
107,29,-78,-68,92,-24,19,190,400,390,302,209
185,73,-112,-129,148,-19,19,380,692,702,546,375
263,126,-136,-195,200,-4,-14,448,893,951,766,536
429,248,-180,-339,305,34,-97,424,980,1146,976,722
531,375,-156,-453,344,109,-190,312,995,1307,1151,907
497,497,0,-497,248,248,-307,-9,800,1356,1263,1029
463,517,53,-490,204,285,-380,-229,590,1288,1268,1058
400,448,48,-424,175,248,-385,-331,380,1083,1146,980
346,400,53,-373,146,226,-400,-400,224,902,1015,897
283,341,58,-312,112,200,-356,-439,165,824,932,819
195,263,68,-229,63,165,-297,-458,68,663,771,673
122,209,87,-165,17,148,-234,-424,0,497,585,517
87,117,29,-102,29,73,-185,-356,-34,336,405,370
34,-19,-53,-7,43,-36,-141,-297,-146,78,141,146
-39,-117,-78,78,19,-97,-87,-234,-244,-146,-82,-48
-78,-136,-58,107,-9,-97,-29,-161,-258,-244,-175,-126
-87,-151,-63,119,-12,-107,0,-97,-204,-248,-185,-146
-73,-102,-29,87,-21,-65,0,-43,-122,-175,-151,-117
-48,-63,-14,56,-17,-39,0,-19,-73,-122,-107,-92
-34,-29,4,31,-19,-12,-4,-14,-48,-97,-87,-82
-43,-29,14,36,-29,-7,24,-14,-43,-87,-78,-68
-58,-34,24,46,-41,-4,34,-4,-34,-82,-73,-68
-68,-39,29,53,-48,-4,24,4,-24,-78,-68,-58
-58,-39,19,48,-39,-9,19,4,-19,-73,-63,-58
-43,-34,9,39,-26,-12,19,4,-19,-73,-58,-58
-43,-34,9,39,-26,-12,29,4,-19,-73,-53,-58
-39,-29,9,34,-24,-9,34,9,-14,-68,-53,-58
-34,-29,4,31,-19,-12,29,14,-9,-63,-48,-58
-34,-24,9,29,-21,-7,29,19,-9,-63,-48,-58
-39,-9,29,24,-34,9,34,19,0,-58,-48,-53
-39,4,43,17,-41,24,43,19,9,-48,-43,-48
-39,-24,14,31,-26,-4,43,24,9,-43,-43,-48
-39,-68,-29,53,-4,-48,39,29,14,-39,-43,-39
-43,-48,-4,46,-19,-26,39,29,14,-39,-48,-39
-43,-34,9,39,-26,-12,39,29,14,-39,-53,-43
-43,-19,24,31,-34,2,34,24,9,-43,-53,-48
-43,-4,39,24,-41,17,29,19,9,-39,-48,-48
-43,-19,24,31,-34,2,29,19,9,-39,-43,-48
-43,-34,9,39,-26,-12,29,19,9,-34,-43,-48
-43,-34,9,39,-26,-12,29,19,14,-29,-39,-48
-43,-29,14,36,-29,-7,29,19,24,-24,-34,-43
-39,-24,14,31,-26,-4,29,24,24,-24,-34,-39
-34,-19,14,26,-24,-2,29,24,24,-29,-34,-39
-39,-19,19,29,-29,0,29,24,24,-29,-34,-39
-34,-9,24,21,-29,7,29,24,24,-29,-34,-39
-29,0,29,14,-29,14,24,29,19,-29,-34,-43
-29,0,29,14,-29,14,19,34,19,-29,-29,-43
-39,-19,19,29,-29,0,19,34,19,-29,-29,-43
-43,-34,9,39,-26,-12,24,29,14,-29,-34,-48
-34,-14,19,24,-26,2,34,29,9,-39,-39,-48
-34,-14,19,24,-26,2,48,29,9,-39,-39,-48
-24,-9,14,17,-19,2,48,29,19,-34,-39,-43
-24,0,24,12,-24,12,48,29,14,-39,-43,-39
-29,0,29,14,-29,14,39,24,14,-39,-43,-48
-29,0,29,14,-29,14,48,24,9,-48,-53,-48
-29,0,29,14,-29,14,48,19,4,-58,-58,-53
-34,-4,29,19,-31,12,48,19,-4,-63,-58,-58
-53,-19,34,36,-43,7,43,19,-9,-78,-68,-58
-63,-24,39,43,-51,7,43,14,-14,-82,-78,-68
-63,-29,34,46,-48,2,48,4,-24,-92,-87,-73
-73,-34,39,53,-56,2,48,4,-34,-107,-97,-82
-78,-24,53,51,-65,14,43,0,-53,-122,-112,-97
-78,-9,68,43,-73,29,43,0,-68,-136,-131,-107
-78,-19,58,48,-68,19,43,0,-78,-156,-141,-117
-87,-34,53,61,-70,9,48,-14,-87,-170,-161,-126
-97,-43,53,70,-75,4,43,-19,-107,-200,-175,-141
-107,-58,48,82,-78,-4,43,-29,-126,-224,-195,-151
-117,-58,58,87,-87,0,48,-34,-151,-253,-219,-170
-117,-58,58,87,-87,0,48,-43,-175,-273,-239,-190
-117,-58,58,87,-87,0,48,-48,-190,-302,-263,-204
-122,-63,58,92,-90,-2,53,-58,-214,-331,-287,-224
-136,-82,53,109,-95,-14,53,-63,-239,-361,-302,-234
-136,-87,48,112,-92,-19,53,-63,-244,-380,-322,-248
-141,-92,48,117,-95,-21,53,-73,-268,-400,-341,-263
-136,-92,43,114,-90,-24,58,-78,-287,-429,-356,-268
-131,-92,39,112,-85,-26,58,-92,-307,-444,-375,-283
-131,-92,39,112,-85,-26,63,-97,-322,-463,-390,-292
-131,-107,24,119,-78,-41,78,-92,-322,-463,-390,-292
-131,-107,24,119,-78,-41,82,-92,-322,-473,-390,-292
-126,-102,24,114,-75,-39,73,-92,-322,-478,-390,-292
-126,-92,34,109,-80,-29,63,-92,-322,-483,-390,-292
-122,-92,29,107,-75,-31,53,-87,-317,-468,-390,-287
-122,-92,29,107,-75,-31,48,-87,-322,-463,-380,-278
-112,-102,9,107,-61,-46,43,-78,-292,-444,-361,-268
-112,-102,9,107,-61,-46,39,-78,-283,-424,-351,-263
-102,-102,0,102,-51,-51,34,-73,-263,-400,-336,-248
-92,-102,-9,97,-41,-56,34,-68,-248,-370,-307,-224
-82,-82,0,82,-41,-41,29,-68,-229,-346,-287,-209
-82,-73,9,78,-46,-31,29,-68,-209,-317,-263,-190
-68,-53,14,61,-41,-19,29,-58,-185,-287,-234,-175
-58,-48,9,53,-34,-19,24,-48,-161,-258,-214,-161
-53,-48,4,51,-29,-21,14,-39,-146,-229,-195,-141
-43,-43,0,43,-21,-21,14,-34,-126,-200,-165,-122
-34,-14,19,24,-26,2,4,-24,-107,-180,-151,-117
-29,-4,24,17,-26,9,0,-19,-87,-156,-126,-97
-24,-14,9,19,-17,-2,9,-4,-63,-122,-102,-82
-9,-14,-4,12,-2,-9,14,-4,-53,-97,-82,-63
-19,-14,4,17,-12,-4,14,-4,-43,-73,-53,-48
-19,-14,4,17,-12,-4,14,0,-19,-58,-39,-39
-9,0,9,4,-9,4,14,9,0,-39,-29,-29
-9,14,24,-2,-17,19,4,9,4,-24,-19,-24
-9,14,24,-2,-17,19,4,9,19,-14,-9,-14
-4,14,19,-4,-12,17,4,9,29,-9,0,-9
-4,14,19,-4,-12,17,4,9,29,-4,4,-9
-4,9,14,-2,-9,12,4,9,34,9,9,-4
-4,4,9,0,-7,7,4,9,34,14,14,-4
-4,4,9,0,-7,7,4,9,29,14,19,0
-4,39,43,-17,-24,41,0,0,29,19,19,0
-4,63,68,-29,-36,65,-4,-9,29,29,24,0
-9,34,43,-12,-26,39,0,0,34,39,29,9
-14,9,24,2,-19,17,0,9,39,29,29,9
-14,9,24,2,-19,17,0,9,39,19,19,0
-19,4,24,7,-21,14,0,9,39,14,14,0
-19,-9,9,14,-14,0,0,4,34,14,14,0
-29,-4,24,17,-26,9,-4,0,24,9,4,-9
-29,-4,24,17,-26,9,-9,0,19,-4,-4,-9
-24,-4,19,14,-21,7,-9,0,19,-4,-4,-14
-24,0,24,12,-24,12,-4,0,19,-4,-4,-14
-24,9,34,7,-29,21,-4,0,14,-14,-14,-19
-24,0,24,12,-24,12,-4,4,14,-4,-14,-19
-19,0,19,9,-19,9,-9,4,19,-4,-14,-19
-14,4,19,4,-17,12,-9,4,19,-9,-14,-24
-14,4,19,4,-17,12,-14,4,14,-14,-9,-24
-14,-4,9,9,-12,2,-9,0,14,-19,-19,-24
-19,-14,4,17,-12,-4,-4,-4,4,-29,-24,-24
-24,-24,0,24,-12,-12,9,-19,0,-34,-29,-34
-24,-24,0,24,-12,-12,34,-29,-4,-34,-29,-34
-24,-19,4,21,-14,-7,48,-19,-14,-34,-29,-34
-24,-14,9,19,-17,-2,63,-9,-14,-39,-29,-39
-24,-9,14,17,-19,2,48,-9,-14,-48,-34,-39
-24,-14,9,19,-17,-2,34,-9,-9,-58,-39,-39
-19,0,19,9,-19,9,24,-14,-9,-53,-39,-43
-19,4,24,7,-21,14,19,-14,-9,-53,-39,-48
-19,0,19,9,-19,9,9,-9,-9,-43,-39,-43
-9,0,9,4,-9,4,4,-9,-4,-34,-34,-43
-4,-4,0,4,-2,-2,4,-4,-4,-29,-34,-34
-4,-9,-4,7,0,-7,4,0,0,-24,-34,-24
-4,-9,-4,7,0,-7,0,4,4,-19,-24,-24
-4,-4,0,4,-2,-2,-9,4,4,-19,-14,-24
-14,-24,-9,19,-2,-17,-14,0,0,-29,-19,-24
-24,-43,-19,34,-2,-31,-14,-4,-4,-39,-29,-29
-24,-24,0,24,-12,-12,-19,-4,-4,-39,-29,-29
-24,-24,0,24,-12,-12,-4,0,0,-29,-29,-24
-29,-14,14,21,-21,0,-4,4,9,-19,-14,-24
-29,9,39,9,-34,24,-9,4,9,-14,-9,-24
-19,14,34,2,-26,24,-14,9,14,-9,-9,-19
-19,19,39,0,-29,29,-19,14,24,4,-4,-9
-9,29,39,-9,-24,34,-19,14,34,19,9,0
-4,34,39,-14,-21,36,-19,14,43,29,19,4
-4,39,43,-17,-24,41,-9,14,43,34,29,4
0,48,48,-24,-24,48,4,19,48,43,39,14
14,48,34,-31,-9,41,34,29,58,53,48,19
34,58,24,-46,4,41,53,43,68,53,48,24
29,58,29,-43,0,43,53,43,68,53,43,29
19,43,24,-31,-2,34,43,43,68,48,39,29
19,29,9,-24,4,19,24,39,63,39,34,24
19,19,0,-19,9,9,9,39,58,29,29,19
19,14,-4,-17,12,4,4,29,43,19,14,9
19,9,-9,-14,14,0,0,19,29,9,0,0
19,0,-19,-9,19,-9,-9,4,29,9,0,0
24,-4,-29,-9,26,-17,-14,4,29,9,0,0
29,-14,-43,-7,36,-29,-19,9,29,14,4,0
43,-14,-58,-14,51,-36,-24,29,34,19,14,0
43,-29,-73,-7,58,-51,-24,29,34,14,14,0
43,-34,-78,-4,61,-56,-19,29,34,19,19,4
48,-29,-78,-9,63,-53,-14,29,29,14,19,4
53,-19,-73,-17,63,-46,-14,29,29,4,4,-4
63,-24,-87,-19,75,-56,-14,29,24,0,0,-4
63,-34,-97,-14,80,-65,-19,29,24,0,0,-9
63,-63,-126,0,95,-95,-19,34,29,0,0,-9
63,-82,-146,9,104,-114,-24,39,34,0,0,-9
63,-58,-122,-2,92,-90,-39,34,29,-4,-9,-9
58,-39,-97,-9,78,-68,-48,29,24,-14,-14,-14
58,-19,-78,-19,68,-48,-48,14,14,-4,-14,-14
53,-19,-73,-17,63,-46,-43,4,14,-4,-14,-14
19,-24,-43,2,31,-34,-9,4,9,0,-9,-14
-4,-29,-24,17,9,-26,9,-4,4,-4,-9,-24
-9,-39,-29,24,9,-34,19,0,4,-4,-9,-19
0,-43,-43,21,21,-43,19,9,9,-4,-9,-14
4,-39,-43,17,24,-41,19,14,9,-4,-9,-14
4,-34,-39,14,21,-36,19,14,14,0,-9,-14
4,-19,-24,7,14,-21,14,9,14,0,-9,-14
-4,-4,0,4,-2,-2,9,0,14,0,-9,-14
-4,-19,-14,12,4,-17,9,0,14,0,-14,-14
-4,-19,-14,12,4,-17,0,0,9,0,-19,-14
-9,-19,-9,14,0,-14,0,0,9,0,-19,-19
-9,-24,-14,17,2,-19,0,0,9,0,-19,-24
-9,-19,-9,14,0,-14,-4,0,9,0,-19,-24
-14,-14,0,14,-7,-7,-4,0,9,-4,-24,-24
-24,-14,9,19,-17,-2,-4,0,4,-4,-24,-29
-24,-14,9,19,-17,-2,-4,-14,0,-4,-24,-29
-19,4,24,7,-21,14,0,-14,0,-4,-19,-29
-14,0,14,7,-14,7,0,-4,9,0,-14,-29
-4,-24,-19,14,7,-21,4,4,14,4,-9,-24
0,-48,-48,24,24,-48,4,19,24,14,-4,-19
0,-34,-34,17,17,-34,0,9,24,19,-9,-19
-4,-24,-19,14,7,-21,0,9,24,19,-9,-19
-19,-39,-19,29,0,-29,0,9,19,9,-9,-14
-24,-39,-14,31,-4,-26,4,9,14,0,-14,-14
-24,-39,-14,31,-4,-26,14,9,19,0,-14,-14
-29,-43,-14,36,-7,-29,24,29,29,0,-9,-14
-34,-78,-43,56,4,-61,39,58,34,-4,-29,-39
-9,-43,-34,26,12,-39,29,82,87,48,9,-19
43,-29,-73,-7,58,-51,9,141,229,180,117,68
107,0,-107,-53,107,-53,-9,229,429,390,283,190
234,68,-165,-151,200,-48,-4,444,746,712,527,370
361,146,-214,-253,287,-34,-34,536,971,971,746,546
522,258,-263,-390,392,-2,-117,507,1073,1156,946,712
619,375,-244,-497,431,65,-209,390,1102,1307,1112,878
595,507,-87,-551,341,209,-351,43,922,1371,1234,1019
570,536,-34,-553,302,251,-448,-200,727,1317,1249,1068
502,453,-48,-478,275,202,-434,-307,517,1141,1132,990
444,390,-53,-417,248,168,-429,-380,361,990,1005,907
380,341,-39,-361,209,151,-405,-429,287,897,922,834
292,273,-19,-283,156,126,-366,-458,175,722,761,692
200,224,24,-212,87,124,-287,-424,107,580,614,556
146,136,-9,-141,78,63,-224,-356,73,444,473,429
92,24,-68,-58,80,-21,-165,-297,-48,190,214,214
19,-48,-68,14,43,-58,-97,-234,-156,-29,-4,29
-43,-78,-34,61,-4,-56,-19,-165,-214,-161,-122,-78
-78,-102,-24,90,-26,-63,29,-107,-204,-200,-156,-126
-78,-87,-9,82,-34,-48,29,-53,-131,-136,-126,-97
-68,-82,-14,75,-26,-48,29,-29,-92,-92,-87,-73
-39,-39,0,39,-19,-19,9,-19,-63,-68,-73,-68
-34,-29,4,31,-19,-12,24,-14,-53,-58,-68,-58
-39,-29,9,34,-24,-9,34,0,-43,-53,-63,-58
-39,-29,9,34,-24,-9,24,14,-34,-48,-58,-48
-43,-43,0,43,-21,-21,19,19,-24,-43,-58,-48
-43,-53,-9,48,-17,-31,19,24,-19,-43,-58,-48
-43,-53,-9,48,-17,-31,34,24,-19,-43,-48,-48
-39,-48,-9,43,-14,-29,43,29,-14,-39,-43,-48
-34,-39,-4,36,-14,-21,39,29,-14,-29,-39,-48
-34,-24,9,29,-21,-7,39,29,-19,-24,-39,-48
-39,-19,19,29,-29,0,39,29,-14,-24,-39,-48
-39,-14,24,26,-31,4,43,29,-9,-19,-34,-48
-39,-19,19,29,-29,0,34,29,-9,-19,-34,-48
-39,-39,0,39,-19,-19,19,29,-4,-19,-34,-39
-43,-43,0,43,-21,-21,29,34,-4,-19,-39,-39
-43,-53,-9,48,-17,-31,39,39,-4,-19,-43,-43
-39,-48,-9,43,-14,-29,39,39,-4,-19,-48,-43
-34,-43,-9,39,-12,-26,39,39,0,-9,-48,-39
-34,-34,0,34,-17,-17,34,39,0,-9,-43,-39
-34,-24,9,29,-21,-7,29,39,0,-4,-43,-39
-34,-24,9,29,-21,-7,29,39,0,0,-34,-39
-34,-19,14,26,-24,-2,29,39,4,4,-24,-34
-34,-24,9,29,-21,-7,34,43,4,4,-24,-29
-34,-29,4,31,-19,-12,39,43,4,0,-24,-29
-43,-39,4,41,-24,-17,39,39,0,-9,-34,-39
-43,-39,4,41,-24,-17,39,34,-4,-19,-43,-48
-39,-29,9,34,-24,-9,24,34,-9,-19,-43,-53
-39,-29,9,34,-24,-9,9,34,-9,-19,-39,-53
-43,-29,14,36,-29,-7,19,39,-4,-9,-34,-43
-43,-24,19,34,-31,-2,34,39,-4,0,-34,-39
-34,-14,19,24,-26,2,34,39,-9,-9,-39,-39
-34,-24,9,29,-21,-7,39,39,-9,-9,-39,-39
-34,-29,4,31,-19,-12,39,39,-9,-14,-43,-39
-43,-29,14,36,-29,-7,39,39,-24,-29,-53,-39
-53,-39,14,46,-34,-12,34,34,-24,-29,-53,-48
-58,-48,9,53,-34,-19,48,34,-29,-39,-63,-48
-58,-29,29,43,-43,0,48,24,-39,-43,-58,-53
-63,-14,48,39,-56,17,48,19,-53,-43,-48,-58
-73,-24,48,48,-61,12,43,19,-58,-58,-58,-58
-73,-24,48,48,-61,12,43,14,-63,-63,-68,-68
-73,-29,43,51,-58,7,48,4,-73,-73,-82,-73
-82,-34,48,58,-65,7,48,4,-82,-87,-97,-82
-87,-39,48,63,-68,4,43,-9,-112,-117,-117,-97
-87,-39,48,63,-68,4,43,-19,-136,-146,-141,-107
-87,-39,48,63,-68,4,48,-24,-151,-165,-151,-117
-97,-43,53,70,-75,4,58,-43,-165,-180,-170,-126
-107,-48,58,78,-82,4,63,-48,-195,-209,-180,-141
-117,-58,58,87,-87,0,73,-58,-224,-234,-195,-151
-131,-58,73,95,-102,7,78,-73,-253,-263,-219,-175
-136,-58,78,97,-107,9,78,-92,-283,-283,-239,-200
-136,-58,78,97,-107,9,73,-97,-307,-317,-263,-214
-141,-63,78,102,-109,7,73,-107,-341,-351,-287,-234
-156,-92,63,124,-109,-14,73,-117,-370,-380,-302,-244
-156,-107,48,131,-102,-29,73,-122,-380,-400,-322,-258
-165,-102,63,134,-114,-19,63,-136,-409,-424,-351,-278
-165,-92,73,129,-119,-9,58,-146,-434,-458,-375,-287
-165,-92,73,129,-119,-9,48,-161,-453,-473,-390,-297
-170,-92,78,131,-124,-7,43,-165,-468,-492,-400,-302
-170,-117,53,143,-112,-31,53,-161,-468,-492,-400,-302
-170,-126,43,148,-107,-41,53,-161,-468,-502,-400,-302
-165,-141,24,153,-95,-58,34,-156,-463,-502,-400,-302
-165,-151,14,158,-90,-68,14,-151,-458,-502,-400,-302
-161,-122,39,141,-100,-41,9,-146,-444,-483,-395,-297
-161,-92,68,126,-114,-12,9,-146,-439,-473,-380,-287
-146,-92,53,119,-100,-19,29,-136,-409,-458,-366,-278
-141,-82,58,112,-100,-12,48,-136,-400,-444,-361,-273
-131,-97,34,114,-82,-31,43,-126,-375,-419,-346,-258
-122,-112,9,117,-65,-51,43,-117,-356,-390,-317,-234
-102,-97,4,100,-53,-46,43,-97,-317,-356,-283,-209
-92,-92,0,92,-46,-46,48,-78,-278,-317,-244,-180
-73,-68,4,70,-39,-31,48,-68,-253,-287,-229,-165
-58,-58,0,58,-29,-29,43,-58,-229,-258,-224,-151
-53,-58,-4,56,-24,-31,29,-48,-195,-219,-185,-122
-43,-53,-9,48,-17,-31,24,-43,-156,-180,-136,-92
-34,-39,-4,36,-14,-21,24,-34,-136,-161,-136,-97
-29,-43,-14,36,-7,-29,29,-29,-117,-136,-126,-87
-24,-48,-24,36,0,-36,29,-4,-82,-102,-107,-78
-9,-43,-34,26,12,-39,24,4,-63,-78,-92,-63
-14,-43,-29,29,7,-36,24,4,-53,-43,-58,-43
-9,-43,-34,26,12,-39,24,9,-29,-19,-39,-29
0,-34,-34,17,17,-34,14,19,-9,-9,-29,-19
0,-24,-24,12,12,-24,-4,19,-4,-4,-19,-14
0,-24,-24,12,12,-24,-4,24,4,4,-9,-4
4,-24,-29,9,17,-26,-4,29,9,9,0,0
9,-9,-19,0,14,-14,0,29,14,9,-4,-9
14,0,-14,-7,14,-7,4,29,24,19,-9,-14
9,-4,-14,-2,12,-9,9,29,29,24,-4,-14
4,-4,-9,0,7,-7,14,29,29,24,0,-9
4,4,0,-4,2,2,14,29,29,29,4,0
4,4,0,-4,2,2,14,29,29,39,14,9
-4,-14,-9,9,2,-12,19,29,29,48,19,19
-14,-29,-14,21,0,-21,19,29,29,39,19,19
-14,-39,-24,26,4,-31,9,29,29,34,14,9
-19,-53,-34,36,7,-43,0,29,29,34,14,9
-14,-48,-34,31,9,-41,0,29,24,34,14,9
-19,-24,-4,21,-7,-14,-4,29,14,29,4,0
-19,-24,-4,21,-7,-14,-9,29,9,14,-4,0
-14,-24,-9,19,-2,-17,-9,29,9,14,-4,-4
-14,-29,-14,21,0,-21,-4,19,9,19,0,-4
-14,-29,-14,21,0,-21,-4,9,4,14,-4,-9
-19,-43,-24,31,2,-34,9,19,0,14,-4,-9
-19,-48,-29,34,4,-39,19,24,0,4,-4,-9
-14,-43,-29,29,7,-36,4,24,0,0,-9,-14
-14,-43,-29,29,7,-36,-14,24,-4,-4,-9,-14
0,-43,-43,21,21,-43,-4,24,0,-9,-29,-14
9,-43,-53,17,31,-48,4,24,-4,-19,-43,-14
-4,-58,-53,31,24,-56,19,19,-4,-24,-48,-24
-14,-63,-48,39,17,-56,43,19,-4,-24,-48,-24
-14,-63,-48,39,17,-56,29,19,-14,-19,-43,-24
-14,-63,-48,39,17,-56,14,19,-14,-19,-39,-29
-9,-43,-34,26,12,-39,24,19,-14,-19,-39,-29
-4,-34,-29,19,12,-31,34,19,-9,-19,-39,-29
-4,-34,-29,19,12,-31,29,9,-9,-14,-29,-29
-9,-43,-34,26,12,-39,29,4,-9,-14,-19,-29
-14,-48,-34,31,9,-41,19,9,-14,-14,-29,-24
-9,-48,-39,29,14,-43,14,9,-14,-14,-34,-24
-4,-48,-43,26,19,-46,9,9,-14,-14,-34,-24
-4,-48,-43,26,19,-46,4,9,-9,-14,-34,-24
-4,-48,-43,26,19,-46,9,14,-4,-9,-34,-24
-4,-43,-39,24,17,-41,9,14,-4,-9,-34,-24
0,-43,-43,21,21,-43,4,14,-4,-9,-29,-19
4,-43,-48,19,26,-46,4,14,-4,-9,-29,-19
4,-34,-39,14,21,-36,-4,14,-4,-14,-34,-19
4,-43,-48,19,26,-46,4,19,0,-9,-39,-14
9,-43,-53,17,31,-48,0,24,14,-4,-29,-14
19,-29,-48,4,34,-39,-9,24,19,-4,-29,-14
14,-48,-63,17,39,-56,-14,24,19,-4,-29,-14
0,-68,-68,34,34,-68,-19,24,24,4,-24,-9
-9,-58,-48,34,19,-53,-29,19,19,9,-19,-9
-24,-53,-29,39,2,-41,-39,14,14,9,-19,-14
-14,-53,-39,34,12,-46,-24,9,9,4,-19,-14
0,-48,-48,24,24,-48,-4,9,9,4,-19,-4
0,-48,-48,24,24,-48,19,9,9,14,-9,-4
4,-39,-43,17,24,-41,34,14,9,14,-9,-4
4,-34,-39,14,21,-36,39,14,9,19,-9,-4
0,-39,-39,19,19,-39,34,14,9,19,-9,-9
0,-48,-48,24,24,-48,34,14,9,19,-9,-9
0,-48,-48,24,24,-48,34,14,9,19,-9,-9
0,-48,-48,24,24,-48,24,14,14,14,-9,-4
0,-48,-48,24,24,-48,14,14,19,14,-9,0
0,-58,-58,29,29,-58,9,14,24,19,-4,0
0,-73,-73,36,36,-73,4,9,24,19,-4,0
0,-53,-53,26,26,-53,0,9,24,14,-4,0
0,-29,-29,14,14,-29,-4,9,24,14,-9,0
4,-29,-34,12,19,-31,-4,14,24,14,-9,0
4,-29,-34,12,19,-31,-4,14,19,14,-9,-4
4,-34,-39,14,21,-36,-19,9,19,14,-9,-9
0,-34,-34,17,17,-34,-29,9,19,14,-9,-14
-4,-48,-43,26,19,-46,-29,14,19,9,-19,-14
-9,-58,-48,34,19,-53,-29,14,19,4,-24,-14
4,-58,-63,26,34,-61,-24,14,24,14,-14,-4
9,-68,-78,29,43,-73,-14,19,34,19,-9,0
9,-29,-39,9,24,-34,-4,24,34,24,-4,0
9,0,-9,-4,9,-4,9,24,39,34,9,4
4,4,0,-4,2,2,9,24,48,39,19,14
4,24,19,-14,-7,21,9,24,48,43,24,14
4,24,19,-14,-7,21,9,34,58,58,29,24
4,19,14,-12,-4,17,14,43,68,68,34,34
4,4,0,-4,2,2,19,48,78,82,43,34
4,-4,-9,0,7,-7,19,53,73,92,53,29
14,4,-9,-9,12,-2,19,53,73,78,43,24
29,19,-9,-24,19,4,19,58,78,68,39,19
29,9,-19,-19,24,-4,19,58,78,68,39,24
29,0,-29,-14,29,-14,19,58,78,68,39,29
43,0,-43,-21,43,-21,19,58,78,68,39,29
48,0,-48,-24,48,-24,9,53,73,63,29,24
58,-4,-63,-26,61,-34,4,53,68,58,24,24
63,-4,-68,-29,65,-36,-14,48,63,48,14,19
43,-19,-63,-12,53,-41,-19,34,58,39,9,14
24,-24,-48,0,36,-36,-19,19,53,39,9,14
34,-39,-73,2,53,-56,-14,29,48,34,9,14
43,-48,-92,2,68,-70,-14,39,48,24,-4,4
53,-53,-107,0,80,-80,-24,39,43,19,-9,4
53,-63,-117,4,85,-90,-39,39,43,19,-9,0
53,-73,-126,9,90,-100,-39,39,43,19,-9,0
53,-73,-126,9,90,-100,-43,39,43,19,-9,0
53,-58,-112,2,82,-85,-58,34,39,14,-14,0
48,-48,-97,0,73,-73,-68,29,34,4,-14,-4
48,-39,-87,-4,68,-63,-68,14,24,14,-14,-4
43,-48,-92,2,68,-70,-63,4,24,14,-14,-4
19,-48,-68,14,43,-58,-34,4,19,9,-14,-4
4,-48,-53,21,29,-51,-19,-4,14,-4,-19,-14
-9,-58,-48,34,19,-53,0,-4,14,-4,-19,-14
-9,-63,-53,36,21,-58,9,0,19,-4,-19,-14
0,-53,-53,26,26,-53,-9,4,14,-4,-14,-14
4,-43,-48,19,26,-46,-29,4,14,0,-9,-14
4,-53,-58,24,31,-56,-14,4,14,0,-9,-14
-4,-63,-58,34,26,-61,0,0,14,0,-9,-14
-14,-63,-48,39,17,-56,4,-4,14,0,-19,-19
-24,-48,-24,36,0,-36,0,-9,9,0,-29,-24
-34,-48,-14,41,-9,-31,0,-9,9,0,-19,-24
-39,-53,-14,46,-12,-34,0,-9,9,0,-9,-24
-9,-53,-43,31,17,-48,-4,0,14,9,-9,-19
14,-53,-68,19,41,-61,-4,9,19,14,-14,-14
-4,-53,-48,29,21,-51,-14,9,14,4,-14,-19
-14,-53,-39,34,12,-46,-24,-4,9,-4,-14,-19
-14,-43,-29,29,7,-36,-19,-4,9,-4,-14,-19
-14,-58,-43,36,14,-51,-19,4,19,0,-14,-19
-4,-43,-39,24,17,-41,-9,4,19,9,-9,-14
0,-29,-29,14,14,-29,-4,9,24,24,-4,-9
0,-29,-29,14,14,-29,-4,0,19,19,-9,-9
-4,-34,-29,19,12,-31,0,0,14,9,-9,-9
-14,-48,-34,31,9,-41,0,0,14,4,-9,-9
-14,-48,-34,31,9,-41,4,0,14,0,-14,-14
-14,-53,-39,34,12,-46,14,4,24,4,-19,-19
-19,-63,-43,41,12,-53,24,29,39,9,-19,-24
-19,-82,-63,51,21,-73,43,63,68,29,-14,-29
9,-34,-43,12,26,-39,39,92,146,107,48,9
63,-14,-78,-24,70,-46,19,165,297,263,175,117
126,19,-107,-73,117,-43,0,268,507,497,361,258
248,87,-161,-168,204,-36,-14,453,805,810,605,439
370,165,-204,-268,287,-19,-63,517,1010,1058,824,614
497,283,-214,-390,356,34,-161,444,1058,1224,1019,785
561,405,-156,-483,358,124,-268,283,1034,1356,1180,956
522,512,-9,-517,265,251,-375,-39,829,1390,1263,1054
483,517,34,-500,224,275,-439,-258,610,1307,1239,1058
424,453,29,-439,197,241,-424,-336,439,1117,1122,976
375,409,34,-392,170,222,-419,-380,322,951,995,888
312,331,19,-322,146,175,-375,-405,263,873,902,805
224,234,9,-229,107,122,-317,-409,165,712,732,653
141,195,53,-168,43,124,-253,-395,68,531,566,507
97,117,19,-107,39,68,-204,-346,4,356,405,370
43,-14,-58,-14,51,-36,-141,-292,-122,97,141,151
-29,-107,-78,68,24,-92,-68,-234,-234,-126,-82,-39
-73,-107,-34,90,-19,-70,-19,-165,-258,-214,-161,-107
-87,-102,-14,95,-36,-58,0,-107,-214,-209,-156,-117
-82,-97,-14,90,-34,-56,0,-48,-126,-136,-122,-87
-68,-102,-34,85,-17,-68,0,-19,-73,-82,-78,-63
-43,-48,-4,46,-19,-26,-9,-14,-53,-63,-63,-58
-43,-29,14,36,-29,-7,14,-14,-53,-58,-58,-48
-48,-43,4,46,-26,-19,39,-4,-39,-53,-53,-48
-48,-58,-9,53,-19,-34,43,4,-24,-48,-48,-39
-53,-58,-4,56,-24,-31,29,4,-19,-43,-48,-39
-53,-53,0,53,-26,-26,19,4,-19,-43,-48,-39
-53,-53,0,53,-26,-26,24,4,-19,-39,-39,-39
-48,-48,0,48,-24,-24,24,9,-14,-29,-34,-39
-34,-34,0,34,-17,-17,19,14,-9,-24,-29,-34
-24,-14,9,19,-17,-2,19,19,-9,-24,-29,-29
-29,-24,4,26,-17,-9,19,19,-4,-29,-29,-29
-29,-34,-4,31,-12,-19,24,19,0,-29,-24,-29
-29,-39,-9,34,-9,-24,19,19,0,-24,-24,-34
-29,-58,-29,43,0,-43,9,19,4,-19,-24,-29
-34,-29,4,31,-19,-12,9,19,4,-19,-29,-29
-34,-4,29,19,-31,12,9,19,4,-19,-34,-34
-34,-24,9,29,-21,-7,24,19,4,-19,-34,-34
-34,-43,-9,39,-12,-26,39,19,9,-9,-29,-29
-34,-34,0,34,-17,-17,39,19,9,-9,-24,-24
-34,-24,9,29,-21,-7,39,19,9,-4,-24,-19
-29,-24,4,26,-17,-9,29,19,9,-4,-19,-19
-24,-19,4,21,-14,-7,19,19,14,-4,-14,-14
-24,-19,4,21,-14,-7,19,24,9,-4,-14,-9
-24,-19,4,21,-14,-7,19,24,4,-9,-14,-9
-39,-39,0,39,-19,-19,29,24,4,-9,-14,-14
-43,-48,-4,46,-19,-26,39,24,4,-9,-14,-19
-39,-29,9,34,-24,-9,39,24,0,-9,-14,-24
-39,-19,19,29,-29,0,39,24,0,-9,-9,-24
-39,-19,19,29,-29,0,34,24,4,-4,-9,-19
-34,-14,19,24,-26,2,34,19,4,0,-14,-19
-24,-4,19,14,-21,7,34,19,0,-9,-19,-19
-24,-14,9,19,-17,-2,39,19,0,-9,-19,-19
-24,-24,0,24,-12,-12,34,19,0,-9,-19,-19
-34,-29,4,31,-19,-12,29,19,-14,-19,-24,-19
-39,-14,24,26,-31,4,14,9,-14,-19,-29,-29
-39,0,39,19,-39,19,19,4,-19,-29,-43,-29
-39,4,43,17,-41,24,14,0,-24,-39,-48,-34
-43,4,48,19,-46,26,9,0,-34,-43,-48,-39
-53,-9,43,31,-48,17,9,0,-39,-53,-43,-34
-53,-14,39,34,-46,12,14,-4,-43,-53,-39,-39
-63,-29,34,46,-48,2,24,-14,-53,-63,-58,-43
-82,-43,39,63,-61,-2,29,-14,-63,-78,-78,-53
-78,-34,43,56,-61,4,24,-19,-87,-102,-92,-68
-68,-19,48,43,-58,14,24,-19,-107,-126,-112,-78
-68,-19,48,43,-58,14,34,-19,-117,-146,-117,-87
-78,-24,53,51,-65,14,48,-34,-126,-161,-131,-97
-87,-43,43,65,-65,0,48,-39,-151,-185,-146,-112
-97,-68,29,82,-63,-19,53,-48,-175,-204,-165,-122
-107,-53,53,80,-80,0,58,-53,-195,-234,-185,-136
-107,-39,68,73,-87,14,58,-63,-214,-253,-200,-151
-102,-39,63,70,-82,12,58,-68,-229,-278,-219,-165
-102,-43,58,73,-80,7,63,-78,-253,-302,-239,-185
-117,-68,48,92,-82,-9,63,-87,-283,-331,-253,-195
-117,-78,39,97,-78,-19,63,-92,-292,-351,-273,-209
-131,-82,48,107,-90,-17,58,-102,-317,-366,-292,-224
-136,-82,53,109,-95,-14,58,-107,-336,-390,-307,-229
-131,-82,48,107,-90,-17,48,-117,-356,-405,-322,-239
-131,-82,48,107,-90,-17,43,-117,-370,-424,-331,-244
-131,-97,34,114,-82,-31,53,-112,-370,-424,-331,-248
-131,-97,34,114,-82,-31,53,-112,-370,-434,-331,-253
-131,-97,34,114,-82,-31,39,-112,-370,-444,-336,-253
-136,-92,43,114,-90,-24,24,-112,-370,-453,-341,-253
-131,-92,39,112,-85,-26,19,-107,-356,-434,-336,-248
-131,-92,39,112,-85,-26,19,-107,-351,-424,-322,-239
-107,-87,19,97,-63,-34,14,-97,-322,-405,-302,-224
-92,-73,19,82,-56,-26,9,-97,-312,-385,-292,-214
-102,-73,29,87,-65,-21,4,-92,-292,-370,-283,-204
-112,-73,39,92,-75,-17,4,-87,-278,-351,-258,-185
-92,-58,34,75,-63,-12,4,-78,-244,-317,-239,-170
-82,-53,29,68,-56,-12,9,-68,-209,-278,-214,-151
-68,-48,19,58,-43,-14,24,-58,-185,-248,-180,-131
-58,-58,0,58,-29,-29,34,-48,-161,-219,-156,-112
-48,-39,9,43,-29,-14,14,-39,-136,-185,-136,-92
-34,-14,19,24,-26,2,4,-34,-107,-151,-107,-73
-24,-4,19,14,-21,7,4,-24,-87,-131,-92,-68
-19,-14,4,17,-12,-4,9,-19,-68,-107,-68,-48
-14,-14,0,14,-7,-7,9,-4,-43,-82,-48,-39
0,-4,-4,2,2,-4,4,-4,-34,-68,-34,-24
-9,9,19,0,-14,14,0,-4,-24,-43,-9,-9
-9,24,34,-7,-21,29,-4,0,0,-29,0,0
0,19,19,-9,-9,19,-4,14,19,-9,9,14
0,14,14,-7,-7,14,-14,19,24,4,19,24
-4,4,9,0,-7,7,-9,19,34,14,29,34
-4,-4,0,4,-2,-2,-4,19,39,19,39,39
-4,9,14,-2,-9,12,-4,14,39,24,39,34
-4,19,24,-7,-14,21,-4,9,43,39,39,34
-9,14,24,-2,-17,19,-14,9,48,39,39,34
-14,14,29,0,-21,21,-24,9,48,34,39,39
-9,24,34,-7,-21,29,-24,9,48,39,39,39
-4,24,29,-9,-17,26,-24,9,48,48,43,39
-4,19,24,-7,-14,21,-4,9,48,58,48,43
-4,19,24,-7,-14,21,9,9,48,48,48,39
-4,19,24,-7,-14,21,9,9,48,43,43,29
-9,14,24,-2,-17,19,9,9,48,43,43,29
0,4,4,-2,-2,4,9,4,43,43,43,29
0,14,14,-7,-7,14,4,0,34,39,34,19
-9,14,24,-2,-17,19,0,0,29,24,24,19
-14,14,29,0,-21,21,0,0,29,24,24,14
-14,9,24,2,-19,17,4,0,29,24,24,14
-14,9,24,2,-19,17,4,0,24,14,14,9
-24,0,24,12,-24,12,4,0,14,9,14,4
-29,0,29,14,-29,14,0,-4,9,-4,14,0
-24,4,29,9,-26,17,-4,-4,9,-9,9,-4
-24,4,29,9,-26,17,-14,-4,4,-14,9,-4
-14,4,19,4,-17,12,-14,-4,9,-14,0,-4
-9,4,14,2,-12,9,-14,-4,4,-19,-4,-4
-14,-14,0,14,-7,-7,-4,-9,4,-24,-9,-14
-14,-24,-9,19,-2,-17,14,-9,4,-24,-9,-14
-14,4,19,4,-17,12,4,-9,-4,-24,-9,-14
-14,34,48,-9,-31,41,-4,-9,-4,-29,-9,-19
-19,0,19,9,-19,9,-4,-4,-4,-29,-9,-19
-24,-43,-19,34,-2,-31,-4,0,0,-29,-9,-19
-24,-34,-9,29,-7,-21,-9,-4,0,-24,-14,-19
-29,-34,-4,31,-12,-19,-9,-4,0,-24,-19,-19
-19,-19,0,19,-9,-9,-4,-4,0,-29,-24,-14
0,0,0,0,0,0,4,-9,4,-34,-24,-14
-9,-9,0,9,-4,-4,4,-9,0,-34,-24,-14
-24,-19,4,21,-14,-7,4,-9,0,-34,-24,-14
-24,-19,4,21,-14,-7,4,-4,0,-29,-29,-19
-24,-14,9,19,-17,-2,0,-4,-4,-29,-34,-24
-19,-4,14,12,-17,4,-4,-4,-4,-29,-29,-19
-14,4,19,4,-17,12,-4,-4,-4,-29,-29,-19
-14,14,29,0,-21,21,-4,-4,-4,-34,-24,-19
-14,4,19,4,-17,12,14,0,0,-29,-19,-14
-19,-19,0,19,-9,-9,14,4,9,-24,-9,-14
-19,-29,-9,24,-4,-19,9,4,9,-24,-9,-14
-4,-14,-9,9,2,-12,9,4,9,-24,-9,-14
0,0,0,0,0,0,9,4,14,-14,-4,-9
0,0,0,0,0,0,9,4,19,-9,0,-9
-4,-4,0,4,-2,-2,9,4,24,-9,0,-14
-9,-19,-9,14,0,-14,0,4,24,-14,-4,-19
-9,-29,-19,19,4,-24,-4,9,29,-14,-9,-14
-14,-19,-4,17,-4,-12,-9,4,24,-9,-4,-14
-14,0,14,7,-14,7,-24,4,19,-14,-9,-14
-9,0,9,4,-9,4,-9,4,19,-9,-9,-9
-9,-9,0,9,-4,-4,-4,4,19,-9,-9,-9
-9,-19,-9,14,0,-14,-4,4,19,-9,-9,-9
-9,-19,-9,14,0,-14,-4,4,19,-9,-9,-9
-9,-19,-9,14,0,-14,-4,9,24,-9,-9,-9
-9,-19,-9,14,0,-14,-4,14,29,-4,-9,-9
-9,-19,-9,14,0,-14,4,14,34,0,-4,-9
-9,-24,-14,17,2,-19,14,9,34,0,-4,-9
-14,-34,-19,24,2,-26,0,4,34,-9,-4,-9
-19,-39,-19,29,0,-29,-14,0,34,-14,-9,-9
-14,-29,-14,21,0,-21,-14,4,29,-14,-9,-9
-14,-19,-4,17,-4,-12,-14,4,19,-14,-9,-14
-9,-9,0,9,-4,-4,-14,-4,19,-14,-9,-14
-9,4,14,2,-12,9,-9,-9,19,-14,-9,-14
-9,-4,4,7,-7,0,-4,-4,19,-14,-14,-14
-9,-9,0,9,-4,-4,0,-4,19,-14,-14,-14
0,0,0,0,0,0,0,0,24,-4,-4,-4
0,0,0,0,0,0,4,9,34,0,0,0
0,9,9,-4,-4,9,9,14,34,9,4,0
0,9,9,-4,-4,9,19,14,39,24,19,4
4,34,29,-19,-12,31,19,14,53,34,29,14
14,73,58,-43,-21,65,19,14,58,43,34,14
14,73,58,-43,-21,65,24,19,63,53,39,24
14,68,53,-41,-19,61,34,24,73,58,43,34
14,58,43,-36,-14,51,24,24,68,48,39,29
19,48,29,-34,-4,39,19,29,68,43,34,24
24,43,19,-34,2,31,9,39,73,43,34,24
29,39,9,-34,9,24,0,48,78,48,39,29
29,39,9,-34,9,24,0,48,78,48,39,29
29,39,9,-34,9,24,0,48,78,48,39,29
29,34,4,-31,12,19,-4,43,78,43,34,24
29,29,0,-29,14,14,-14,39,68,39,29,19
34,24,-9,-29,21,7,-24,34,63,39,24,19
34,9,-24,-21,29,-7,-34,29,53,29,19,14
34,0,-34,-17,34,-17,-29,29,53,29,14,9
34,-9,-43,-12,39,-26,-24,29,48,24,9,4
34,-9,-43,-12,39,-26,-19,29,48,9,-9,-4
43,-14,-58,-14,51,-36,-14,29,43,0,-19,-4
43,-14,-58,-14,51,-36,-14,29,43,0,-19,-9
43,-14,-58,-14,51,-36,-9,29,43,0,-19,-9
39,-29,-68,-4,53,-48,-14,29,43,0,-14,-9
34,-39,-73,2,53,-56,-24,24,39,-4,-14,-9
29,-39,-68,4,48,-53,-39,19,34,-14,-14,-14
29,-19,-48,-4,39,-34,-48,9,24,-4,-14,-14
43,-19,-63,-12,53,-41,-43,14,24,-4,-14,-14
39,-19,-58,-9,48,-39,-24,24,19,-4,-14,-14
14,-19,-34,2,24,-26,-19,4,14,-19,-19,-29
-9,-29,-19,19,4,-24,-9,-4,14,-24,-19,-34
-24,-43,-19,34,-2,-31,-9,0,14,-24,-19,-34
-34,-53,-19,43,-7,-36,-9,4,9,-24,-19,-34
-19,-39,-19,29,0,-29,0,4,14,-19,-19,-29
-4,-24,-19,14,7,-21,14,4,14,-19,-19,-24
-14,-24,-9,19,-2,-17,29,0,14,-19,-19,-24
-14,-24,-9,19,-2,-17,39,0,14,-19,-19,-24
-29,-19,9,24,-19,-4,14,0,9,-24,-24,-29
-43,-29,14,36,-29,-7,0,0,9,-29,-29,-34
-29,-34,-4,31,-12,-19,9,0,9,-29,-29,-34
-19,-34,-14,26,-2,-24,14,0,9,-29,-29,-34
-24,-24,0,24,-12,-12,14,0,9,-34,-34,-34
-34,-14,19,24,-26,2,14,0,4,-34,-34,-39
-39,-24,14,31,-26,-4,9,-14,-9,-43,-43,-39
-43,-24,19,34,-31,-2,9,-14,-19,-53,-53,-39
-43,-39,4,41,-24,-17,9,-4,0,-34,-43,-39
-34,-29,4,31,-19,-12,14,0,9,-19,-29,-34
-24,-14,9,19,-17,-2,14,9,14,-14,-24,-29
-19,-9,9,14,-14,0,9,0,14,-9,-24,-29
-19,-14,4,17,-12,-4,4,0,14,-9,-19,-29
-24,-29,-4,26,-9,-17,0,0,14,-9,-19,-29
-24,-29,-4,26,-9,-17,0,-9,9,-14,-24,-34
-19,-29,-9,24,-4,-19,4,-9,19,-14,-24,-34
-39,-34,4,36,-21,-14,14,9,14,-34,-39,-43
-48,-53,-4,51,-21,-29,29,39,39,-19,-39,-43
-34,-24,9,29,-21,-7,24,39,73,39,4,-19
14,-9,-24,-2,19,-17,9,87,185,180,117,68
82,39,-43,-61,63,-2,0,200,419,429,322,214
175,107,-68,-141,122,19,-9,331,658,702,556,390
283,170,-112,-226,197,29,-19,409,858,961,785,566
390,268,-122,-329,256,73,-73,375,927,1151,985,727
463,414,-48,-439,256,183,-190,224,907,1317,1185,932
453,531,78,-492,187,305,-297,-24,741,1351,1283,1039
414,527,112,-470,151,319,-366,-248,502,1234,1239,1034
346,453,107,-400,119,280,-356,-351,317,1073,1137,971
302,405,102,-353,100,253,-361,-395,185,907,1005,883
253,361,107,-307,73,234,-331,-429,107,795,902,790
165,258,92,-212,36,175,-268,-434,19,624,727,624
82,170,87,-126,-2,129,-204,-405,-53,453,546,468
58,68,9,-63,24,39,-170,-336,-58,297,375,336
24,-34,-58,4,41,-46,-136,-283,-126,78,146,151
-48,-97,-48,73,0,-73,-78,-224,-248,-185,-122,-73
-78,-97,-19,87,-29,-58,-19,-156,-273,-297,-244,-175
-87,-92,-4,90,-41,-48,14,-97,-204,-258,-214,-165
-82,-78,4,80,-43,-36,19,-48,-131,-195,-180,-136
-58,-73,-14,65,-21,-43,19,-14,-82,-141,-126,-107
-43,-39,4,41,-24,-17,9,4,-53,-112,-102,-97
-53,-34,19,43,-36,-7,29,-4,-53,-107,-97,-87
-58,-29,29,43,-43,0,34,-4,-43,-102,-92,-87
-53,-19,34,36,-43,7,24,4,-34,-92,-87,-78
-48,-9,39,29,-43,14,19,4,-29,-82,-87,-78
-43,-4,39,24,-41,17,19,4,-29,-82,-87,-78
-43,-4,39,24,-41,17,24,4,-29,-82,-82,-78
-39,-9,29,24,-34,9,34,9,-19,-73,-78,-73
-34,-19,14,26,-24,-2,39,14,-9,-63,-68,-68
-34,-14,19,24,-26,2,39,19,-9,-63,-68,-68
-39,-14,24,26,-31,4,39,19,-4,-63,-68,-68
-39,-14,24,26,-31,4,39,9,0,-58,-63,-68
-39,-19,19,29,-29,0,34,0,0,-53,-63,-68
-43,-39,4,41,-24,-17,29,0,0,-48,-63,-58
-53,-29,24,41,-39,-2,29,0,-4,-48,-63,-58
-53,-14,39,34,-46,12,29,4,-4,-48,-63,-63
-48,0,48,24,-48,24,29,9,-4,-48,-63,-63
-43,4,48,19,-46,26,29,9,0,-39,-58,-58
-43,4,48,19,-46,26,29,9,0,-39,-53,-58
-43,-4,39,24,-41,17,29,9,0,-34,-48,-58
-43,-14,29,29,-36,7,29,9,0,-34,-43,-58
-34,9,43,12,-39,26,29,9,9,-34,-43,-53
-24,29,53,-2,-39,41,29,14,14,-34,-43,-48
-24,29,53,-2,-39,41,24,14,14,-39,-43,-48
-34,19,53,7,-43,36,19,14,14,-39,-43,-53
-43,4,48,19,-46,26,19,14,14,-39,-43,-58
-48,0,48,24,-48,24,19,14,9,-39,-43,-63
-48,9,58,19,-53,34,19,14,9,-34,-39,-63
-53,14,68,19,-61,41,19,14,9,-29,-39,-58
-48,14,63,17,-56,39,34,9,4,-29,-39,-58
-34,24,58,4,-46,41,43,9,0,-39,-39,-58
-34,14,48,9,-41,31,48,9,4,-39,-39,-58
-34,14,48,9,-41,31,48,9,9,-39,-39,-58
-43,9,53,17,-48,31,43,14,0,-48,-48,-58
-48,0,48,24,-48,24,29,14,4,-48,-53,-68
-48,0,48,24,-48,24,29,14,0,-58,-63,-68
-48,4,53,21,-51,29,19,9,-4,-68,-68,-73
-48,4,53,21,-51,29,34,9,-14,-73,-68,-78
-53,-4,48,29,-51,21,48,9,-19,-87,-78,-78
-53,9,63,21,-58,36,43,4,-24,-92,-87,-82
-53,19,73,17,-63,46,39,-4,-34,-102,-97,-82
-63,14,78,24,-70,46,39,0,-39,-107,-102,-92
-68,14,82,26,-75,48,34,-4,-58,-117,-112,-107
-63,19,82,21,-73,51,39,-9,-78,-136,-131,-117
-58,19,78,19,-68,48,43,-9,-87,-156,-141,-126
-68,14,82,26,-75,48,48,-19,-92,-170,-161,-136
-78,4,82,36,-80,43,48,-19,-112,-200,-175,-151
-92,-24,68,58,-80,21,48,-29,-131,-224,-195,-161
-107,-39,68,73,-87,14,48,-34,-151,-253,-219,-180
-112,-39,73,75,-92,17,43,-43,-175,-268,-239,-200
-117,-39,78,78,-97,19,39,-48,-190,-292,-263,-214
-122,-39,82,80,-102,21,43,-58,-219,-322,-287,-234
-136,-53,82,95,-109,14,43,-68,-248,-351,-302,-244
-136,-58,78,97,-107,9,43,-73,-253,-375,-322,-258
-146,-63,82,104,-114,9,39,-82,-278,-395,-341,-273
-146,-73,73,109,-109,0,48,-87,-297,-429,-361,-283
-141,-82,58,112,-100,-12,53,-97,-312,-453,-380,-297
-141,-68,73,104,-107,2,53,-97,-326,-473,-395,-302
-141,-68,73,104,-107,2,63,-92,-331,-473,-400,-302
-122,-68,53,95,-87,-7,68,-92,-331,-473,-400,-302
-97,-68,29,82,-63,-19,63,-92,-331,-463,-400,-302
-107,-63,43,85,-75,-9,53,-102,-346,-478,-405,-302
-112,-63,48,87,-80,-7,48,-107,-346,-473,-405,-297
-126,-73,53,100,-90,-9,39,-107,-346,-463,-390,-287
-126,-82,43,104,-85,-19,29,-97,-322,-444,-370,-273
-122,-73,48,97,-85,-12,39,-97,-312,-429,-361,-263
-112,-73,39,92,-75,-17,43,-92,-292,-409,-346,-248
-102,-73,29,87,-65,-21,43,-87,-283,-385,-322,-234
-92,-58,34,75,-63,-12,39,-78,-263,-366,-307,-229
-97,-53,43,75,-70,-4,34,-73,-244,-336,-283,-209
-87,-39,48,63,-68,4,29,-68,-224,-307,-253,-195
-78,-39,39,58,-58,0,24,-58,-200,-278,-234,-180
-73,-39,34,56,-53,-2,14,-48,-175,-244,-214,-161
-48,-24,24,36,-36,0,14,-43,-141,-200,-170,-126
-24,4,29,9,-26,17,14,-34,-117,-170,-141,-107
-29,-4,24,17,-26,9,19,-29,-97,-146,-117,-87
-34,-14,19,24,-26,2,19,-14,-73,-117,-97,-78
-19,-4,14,12,-17,4,14,-14,-63,-102,-87,-63
-29,-4,24,17,-26,9,14,-14,-53,-82,-68,-48
-24,-4,19,14,-21,7,34,-9,-29,-68,-58,-39
-9,4,14,2,-12,9,53,0,-9,-48,-48,-29
-9,19,29,-4,-19,24,29,0,-4,-29,-39,-24
-9,24,34,-7,-21,29,14,0,4,-14,-29,-14
-4,24,29,-9,-17,26,9,0,14,-9,-19,-9
-4,24,29,-9,-17,26,4,0,19,-4,-14,-9
0,19,19,-9,-9,19,4,0,24,4,-9,-4
0,14,14,-7,-7,14,4,0,29,4,-4,-4
-4,14,19,-4,-12,17,14,4,29,4,0,0
-4,24,29,-9,-17,26,24,9,29,9,0,0
-4,29,34,-12,-19,31,24,9,29,24,9,0
-4,29,34,-12,-19,31,29,9,29,39,19,9
-4,29,34,-12,-19,31,24,4,24,29,19,9
-4,29,34,-12,-19,31,19,0,19,24,14,0
-9,24,34,-7,-21,29,19,0,19,24,14,0
-9,14,24,-2,-17,19,19,-4,14,24,14,0
-19,24,43,-2,-31,34,9,-9,9,19,4,-9
-19,24,43,-2,-31,34,0,-9,9,4,-4,-9
-14,19,34,-2,-24,26,0,-9,9,4,-4,-14
-14,9,24,2,-19,17,4,-9,9,4,-4,-14
-9,9,19,0,-14,14,4,-4,9,0,-9,-19
-9,0,9,4,-9,4,9,0,9,4,-4,-19
-9,0,9,4,-9,4,4,0,9,0,-4,-14
-4,4,9,0,-7,7,0,4,9,0,-9,-14
-9,4,14,2,-12,9,-9,4,4,-4,-9,-14
-9,4,14,2,-12,9,-14,4,4,-4,-19,-14
-14,0,14,7,-14,7,-24,4,-4,-14,-24,-14
-24,-14,9,19,-17,-2,-34,0,-4,-24,-29,-24
-24,-14,9,19,-17,-2,-24,-4,-4,-24,-29,-24
-24,-14,9,19,-17,-2,-24,-9,-14,-24,-29,-24
-19,4,24,7,-21,14,-4,-9,-19,-29,-29,-29
-14,24,39,-4,-26,31,14,-9,-24,-29,-29,-29
-14,4,19,4,-17,12,19,-9,-19,-29,-29,-29
-14,4,19,4,-17,12,19,-14,-19,-24,-29,-29
-19,0,19,9,-19,9,19,-14,-19,-24,-29,-34
-19,-9,9,14,-14,0,14,-9,-19,-24,-29,-34
-9,-9,0,9,-4,-4,14,-9,-14,-24,-29,-34
-4,-9,-4,7,0,-7,14,-9,-14,-24,-34,-34
-4,-9,-4,7,0,-7,0,-9,-14,-24,-34,-34
-4,-9,-4,7,0,-7,-9,-4,-14,-19,-34,-34
-4,-4,0,4,-2,-2,-9,-4,-14,-19,-29,-29
-4,-4,0,4,-2,-2,-14,-4,-14,-19,-19,-19
-4,-4,0,4,-2,-2,-14,-9,-14,-19,-19,-19
-4,4,9,0,-7,7,-24,-14,-14,-19,-19,-19
-4,-4,0,4,-2,-2,-14,-9,-9,-9,-19,-14
-9,-4,4,7,-7,0,-14,-4,0,-4,-9,-14
-9,9,19,0,-14,14,-9,0,9,-4,-4,-9
0,9,9,-4,-4,9,0,4,19,-4,0,-4
4,34,29,-19,-12,31,9,4,24,9,4,0
9,58,48,-34,-19,53,19,4,24,19,9,0
4,53,48,-29,-21,51,19,9,29,24,19,-4
4,53,48,-29,-21,51,19,14,34,24,29,-4
9,58,48,-34,-19,53,19,19,43,43,39,14
9,58,48,-34,-19,53,29,19,48,73,58,24
14,73,58,-43,-21,65,29,29,53,58,48,24
19,78,58,-48,-19,68,24,34,58,48,39,29
19,68,48,-43,-14,58,14,34,58,48,39,29
19,58,39,-39,-9,48,14,34,58,48,39,29
24,24,0,-24,12,12,9,39,63,53,34,29
29,-9,-39,-9,34,-24,9,48,68,58,29,29
29,4,-24,-17,26,-9,-9,29,48,48,29,19
29,19,-9,-24,19,4,-29,9,29,39,29,9
43,34,-9,-39,26,12,-29,9,29,34,24,9
48,34,-14,-41,31,9,-29,9,24,29,14,9
58,34,-24,-46,41,4,-29,14,24,24,9,9
63,24,-39,-43,51,-7,-34,19,24,19,4,9
53,-4,-58,-24,56,-31,-43,19,24,9,0,0
43,-24,-68,-9,56,-46,-48,19,24,9,0,-4
39,-34,-73,-2,56,-53,-43,19,19,4,0,-4
34,-39,-73,2,53,-56,-43,19,19,-4,-14,-14
43,-43,-87,0,65,-65,-29,24,14,-9,-19,-14
43,-53,-97,4,70,-75,-19,29,14,-9,-19,-19
53,-53,-107,0,80,-80,-14,29,19,-4,-14,-19
63,-43,-107,-9,85,-75,-14,29,24,0,-9,-19
63,-39,-102,-12,82,-70,-24,24,19,9,-4,-9
58,-39,-97,-9,78,-68,-29,19,14,14,4,-4
63,-19,-82,-21,73,-51,-29,9,9,24,4,-4
63,-19,-82,-21,73,-51,-24,4,14,24,4,-4
39,-14,-53,-12,46,-34,-9,4,9,14,0,-4
24,-9,-34,-7,29,-21,-9,-4,4,-4,-9,-14
4,-19,-24,7,14,-21,0,-4,4,-4,-9,-14
0,-24,-24,12,12,-24,0,0,9,-4,-9,-14
4,-29,-34,12,19,-31,-4,4,9,-4,-9,-14
4,-34,-39,14,21,-36,-9,4,14,0,-9,-14
4,-39,-43,17,24,-41,-4,4,14,0,-9,-14
-4,-43,-39,24,17,-41,0,0,14,0,-9,-14
-4,-43,-39,24,17,-41,0,0,14,4,-4,-14
-4,-29,-24,17,9,-26,-9,0,9,9,0,-14
-9,-29,-19,19,4,-24,-9,0,9,9,0,-14
-9,-34,-24,21,7,-29,-9,0,9,9,0,-14
-9,-29,-19,19,4,-24,-14,0,9,0,-4,-14
-14,-24,-9,19,-2,-17,-14,0,9,-14,-14,-14
-24,-24,0,24,-12,-12,-14,0,4,-4,-14,-19
-24,-24,0,24,-12,-12,-14,-14,0,4,-14,-19
-24,-14,9,19,-17,-2,-9,-14,0,4,-14,-24
-24,-29,-4,26,-9,-17,-9,-4,9,9,-14,-29
-4,-9,-4,7,0,-7,-4,4,9,9,-9,-24
9,9,0,-9,4,4,-4,19,14,14,-4,-19
9,-9,-19,0,14,-14,-9,9,14,19,-4,-19
4,-34,-39,14,21,-36,-9,9,14,19,0,-19
-19,-48,-29,34,4,-39,-9,9,14,14,0,-19
-34,-48,-14,41,-9,-31,-4,9,14,9,-4,-24
-14,-39,-24,26,4,-31,14,14,29,14,-4,-24
0,-34,-34,17,17,-34,34,39,48,19,0,-24
0,-53,-53,26,26,-53,53,68,73,39,0,-24
29,-4,-34,-12,31,-19,48,92,146,117,58,19
102,14,-87,-58,95,-36,29,185,336,297,200,136
185,48,-136,-117,161,-43,9,307,585,556,400,287
307,117,-190,-212,248,-36,-4,473,854,849,634,463
429,195,-234,-312,331,-19,-53,517,1029,1078,844,634
556,307,-248,-431,402,29,-151,444,1083,1234,1024,795
619,424,-195,-522,407,114,-258,283,1063,1356,1171,956
585,522,-63,-553,324,229,-380,-43,858,1381,1259,1058
551,517,-34,-534,292,241,-458,-268,639,1288,1239,1068
483,434,-48,-458,265,192,-434,-336,468,1117,1122,985
424,370,-53,-397,239,158,-419,-370,351,971,995,897
370,331,-39,-351,204,146,-380,-400,287,878,907,814
292,273,-19,-283,156,126,-326,-409,185,702,741,663
190,209,19,-200,85,114,-263,-375,102,531,556,507
126,107,-19,-117,73,43,-214,-307,53,366,375,361
63,0,-63,-31,63,-31,-165,-273,-92,107,131,141
