I,II,III,aVR,aVL,aVF,V1,V2,V3,V4,V5,V6,
-507,-409,97,458,-302,-156,478,185,-361,-605,-663,-663
-546,-434,112,490,-329,-161,488,165,-405,-663,-722,-722
-585,-458,126,522,-356,-165,497,146,-448,-722,-780,-780
-614,-483,131,549,-373,-175,512,136,-497,-775,-839,-834
-644,-507,136,575,-390,-185,527,126,-546,-829,-897,-888
-678,-541,136,610,-407,-202,531,102,-590,-888,-951,-941
-712,-575,136,644,-424,-219,536,78,-634,-946,-1005,-995
-736,-590,146,663,-441,-222,536,58,-673,-990,-1054,-1039
-761,-605,156,683,-458,-224,536,39,-712,-1034,-1102,-1083
-775,-619,156,697,-466,-231,527,9,-751,-1073,-1141,-1117
-790,-634,156,712,-473,-239,517,-19,-790,-1112,-1180,-1151
-790,-644,146,717,-468,-248,512,-29,-805,-1127,-1190,-1166
-790,-653,136,722,-463,-258,507,-39,-819,-1141,-1200,-1180
-780,-644,136,712,-458,-253,483,-58,-819,-1141,-1200,-1180
-771,-634,136,702,-453,-248,458,-78,-819,-1141,-1200,-1180
-751,-624,126,688,-439,-248,444,-78,-805,-1107,-1171,-1146
-732,-614,117,673,-424,-248,429,-78,-790,-1073,-1141,-1112
-692,-585,107,639,-400,-239,405,-78,-751,-1034,-1093,-1068
-653,-556,97,605,-375,-229,380,-78,-712,-995,-1044,-1024
-619,-522,97,570,-358,-212,356,-68,-663,-927,-980,-961
-585,-488,97,536,-341,-195,331,-58,-614,-858,-917,-897
-531,-453,78,492,-305,-187,302,-48,-551,-780,-839,-824
-478,-419,58,448,-268,-180,273,-39,-488,-702,-761,-751
-429,-375,53,402,-241,-161,248,-19,-424,-619,-673,-663
-380,-331,48,356,-214,-141,224,0,-361,-536,-585,-575
-331,-292,39,312,-185,-126,200,9,-307,-468,-512,-502
-283,-253,29,268,-156,-112,175,19,-253,-400,-439,-429
-239,-219,19,229,-129,-100,156,29,-204,-326,-370,-366
-195,-185,9,190,-102,-87,136,39,-156,-253,-302,-302
-161,-156,4,158,-82,-75,122,43,-117,-204,-239,-244
-126,-126,0,126,-63,-63,107,48,-78,-156,-175,-185
-92,-97,-4,95,-43,-51,87,53,-43,-102,-131,-131
-58,-68,-9,63,-24,-39,68,58,-9,-48,-87,-78
-39,-53,-14,46,-12,-34,58,58,14,-19,-48,-48
-19,-39,-19,29,0,-29,48,58,39,9,-9,-19
-4,-29,-24,17,9,-26,39,63,53,29,14,9
9,-19,-29,4,19,-24,29,68,68,48,39,39
19,-9,-29,-4,24,-19,24,68,78,63,53,48
29,0,-29,-14,29,-14,19,68,87,78,68,58
39,0,-39,-19,39,-19,14,63,87,82,78,68
48,0,-48,-24,48,-24,9,58,87,87,87,78
48,0,-48,-24,48,-24,9,58,87,92,87,82
48,0,-48,-24,48,-24,9,58,87,97,87,87
48,0,-48,-24,48,-24,9,58,87,97,87,87
48,0,-48,-24,48,-24,9,58,87,97,87,87
43,0,-43,-21,43,-21,9,58,87,92,82,82
39,0,-39,-19,39,-19,9,58,87,87,78,78
34,-4,-39,-14,36,-21,9,53,82,82,73,73
29,-9,-39,-9,34,-24,9,48,78,78,68,68
29,-9,-39,-9,34,-24,14,48,73,73,63,63
29,-9,-39,-9,34,-24,19,48,68,68,58,58
24,-9,-34,-7,29,-21,19,48,63,58,48,48
19,-9,-29,-4,24,-19,19,48,58,48,39,39
14,-14,-29,0,21,-21,24,48,53,43,39,39
9,-19,-29,4,19,-24,29,48,48,39,39,39
4,-29,-34,12,19,-31,34,48,48,34,29,29
0,-39,-39,19,19,-39,39,48,48,29,19,19
-4,-43,-39,24,17,-41,39,48,39,24,14,14
-9,-48,-39,29,14,-43,39,48,29,19,9,9
-14,-53,-39,34,12,-46,43,43,24,14,4,4
-19,-58,-39,39,9,-48,48,39,19,9,0,0
-19,-58,-39,39,9,-48,48,39,19,4,-4,-4
-19,-58,-39,39,9,-48,48,39,19,0,-9,-9
-19,-63,-43,41,12,-53,43,39,14,-4,-14,-14
-19,-68,-48,43,14,-58,39,39,9,-9,-19,-19
-19,-68,-48,43,14,-58,39,39,4,-9,-19,-19
-19,-68,-48,43,14,-58,39,39,0,-9,-19,-19
-19,-68,-48,43,14,-58,43,39,0,-14,-19,-19
-19,-68,-48,43,14,-58,48,39,0,-19,-19,-19
-19,-73,-53,46,17,-63,48,39,0,-19,-24,-19
-19,-78,-58,48,19,-68,48,39,0,-19,-29,-19
-19,-78,-58,48,19,-68,48,39,0,-19,-29,-19
-19,-78,-58,48,19,-68,48,39,0,-19,-29,-19
-19,-78,-58,48,19,-68,43,43,9,-14,-24,-19
-19,-78,-58,48,19,-68,39,48,19,-9,-19,-19
-14,-78,-63,46,24,-70,39,48,19,-4,-14,-14
-9,-78,-68,43,29,-73,39,48,19,0,-9,-9
-9,-78,-68,43,29,-73,39,48,19,0,-9,-4
-9,-78,-68,43,29,-73,39,48,19,0,-9,0
-4,-68,-63,36,29,-65,39,48,19,0,-9,0
0,-58,-58,29,29,-58,39,48,19,0,-9,0
0,-58,-58,29,29,-58,39,48,24,9,-4,4
0,-58,-58,29,29,-58,39,48,29,19,0,9
0,-58,-58,29,29,-58,39,48,34,24,4,14
0,-58,-58,29,29,-58,39,48,39,29,9,19
0,-58,-58,29,29,-58,39,48,39,29,14,19
0,-58,-58,29,29,-58,39,48,39,29,19,19
4,-53,-58,24,31,-56,34,48,39,34,24,19
9,-48,-58,19,34,-53,29,48,39,39,29,19
9,-48,-58,19,34,-53,29,48,43,43,34,24
9,-48,-58,19,34,-53,29,48,48,48,39,29
9,-48,-58,19,34,-53,29,53,53,53,43,39
9,-48,-58,19,34,-53,29,58,58,58,48,48
14,-39,-53,12,34,-46,34,58,58,58,48,48
19,-29,-48,4,34,-39,39,58,58,58,48,48
24,-14,-39,-4,31,-26,48,63,68,68,63,53
29,0,-29,-14,29,-14,58,68,78,78,78,58
34,9,-24,-21,29,-7,68,78,87,87,82,68
39,19,-19,-29,29,0,78,87,97,97,87,78
43,29,-14,-36,29,7,82,97,107,97,92,82
48,39,-9,-43,29,14,87,107,117,97,97,87
48,24,-24,-36,36,0,87,107,117,97,97,87
53,29,-24,-41,39,2,68,97,112,97,97,87
63,39,-24,-51,43,7,48,87,112,97,97,87
78,63,-14,-70,46,24,9,68,107,97,102,92
87,78,-9,-82,48,34,-19,53,107,102,102,92
97,87,-9,-92,53,39,-29,43,107,107,107,102
102,97,-4,-100,53,46,-39,29,97,107,107,102
102,102,0,-102,51,51,-43,19,97,102,107,102
102,107,4,-104,48,56,-53,19,102,102,112,107
102,107,4,-104,48,56,-58,9,102,97,117,107
102,97,-4,-100,53,46,-58,4,92,92,107,107
102,78,-24,-90,63,26,-53,9,92,92,107,107
112,53,-58,-82,85,-2,-48,9,87,97,107,102
117,39,-78,-78,97,-19,-48,9,82,102,102,102
117,34,-82,-75,100,-24,-39,19,82,102,102,102
97,29,-68,-63,82,-19,-14,29,82,92,102,97
58,29,-29,-43,43,0,-4,39,87,92,87,87
34,19,-14,-26,24,2,4,48,92,82,87,87
29,-9,-39,-9,34,-24,4,43,73,73,73,78
24,-29,-53,2,39,-41,4,43,63,58,63,63
24,-43,-68,9,46,-56,4,34,58,58,53,53
14,-48,-63,17,39,-56,4,29,53,58,48,43
9,-53,-63,21,36,-58,9,34,53,58,48,43
4,-63,-68,29,36,-65,9,39,53,58,53,43
4,-63,-68,29,36,-65,14,43,53,58,53,48
4,-63,-68,29,36,-65,14,48,53,58,53,53
4,-63,-68,29,36,-65,14,48,58,58,58,53
4,-63,-68,29,36,-65,19,48,58,58,58,53
0,-68,-68,34,34,-68,19,53,58,58,58,48
0,-68,-68,34,34,-68,19,53,58,58,58,43
0,-68,-68,34,34,-68,24,58,58,58,53,43
0,-68,-68,34,34,-68,24,58,58,58,53,43
0,-68,-68,34,34,-68,24,53,58,58,53,43
0,-68,-68,34,34,-68,29,53,63,58,53,43
0,-68,-68,34,34,-68,29,53,63,58,53,48
-4,-68,-63,36,29,-65,29,53,63,58,53,53
-4,-73,-68,39,31,-70,29,53,63,58,53,53
-4,-78,-73,41,34,-75,34,58,63,58,53,53
-14,-82,-68,48,26,-75,34,58,48,39,39,43
-14,-87,-73,51,29,-80,34,63,48,39,34,39
4,-78,-82,36,43,-80,43,92,87,78,63,63
87,-29,-117,-29,102,-73,24,136,200,204,185,175
244,92,-151,-168,197,-29,-58,170,366,414,409,390
400,273,-126,-336,263,73,-219,68,497,634,634,619
473,448,-24,-461,248,212,-385,-141,551,795,814,790
624,751,126,-688,248,439,-692,-429,639,1015,1049,1029
907,1146,239,-1027,334,692,-1063,-653,858,1376,1444,1420
1268,1561,292,-1415,488,927,-1473,-844,1102,1781,1898,1869
1649,1932,283,-1790,683,1107,-1898,-961,1342,2220,2357,2332
2030,2259,229,-2144,900,1244,-2332,-1088,1493,2576,2762,2737
2469,2537,68,-2503,1200,1302,-2766,-1239,1586,2884,3147,3128
2752,2688,-63,-2720,1407,1312,-2991,-1337,1625,3064,3386,3386
2952,2459,-492,-2705,1722,983,-2918,-1185,1654,3128,3503,3538
2903,2074,-829,-2488,1866,622,-2732,-1068,1454,2864,3264,3342
2581,1859,-722,-2220,1651,568,-2459,-1083,1000,2230,2620,2732
2005,1693,-312,-1849,1159,690,-2030,-1039,605,1590,1922,2059
1137,1454,317,-1295,409,885,-1503,-1063,112,810,1029,1146
439,1141,702,-790,-131,922,-1063,-1073,-326,136,283,390
165,614,448,-390,-141,531,-668,-795,-473,-219,-102,9
-19,185,204,-82,-112,195,-287,-458,-400,-312,-239,-175
-112,-53,58,82,-85,2,-29,-156,-234,-234,-214,-185
-136,-141,-4,139,-65,-73,63,-4,-136,-185,-185,-175
-136,-156,-19,146,-58,-87,87,19,-92,-156,-156,-165
-131,-156,-24,143,-53,-90,117,34,-78,-136,-141,-151
-131,-151,-19,141,-56,-85,131,53,-73,-131,-136,-141
-131,-146,-14,139,-58,-80,136,73,-63,-122,-126,-136
-131,-146,-14,139,-58,-80,146,92,-48,-112,-126,-136
-131,-146,-14,139,-58,-80,151,97,-39,-107,-117,-131
-131,-161,-29,146,-51,-95,165,97,-39,-107,-117,-126
-131,-170,-39,151,-46,-104,170,107,-34,-102,-112,-122
-131,-170,-39,151,-46,-104,170,112,-29,-97,-112,-122
-131,-170,-39,151,-46,-104,170,117,-29,-97,-112,-122
-131,-165,-34,148,-48,-100,175,122,-24,-97,-107,-122
-126,-165,-39,146,-43,-102,175,122,-24,-92,-107,-122
-126,-165,-39,146,-43,-102,180,122,-24,-92,-107,-117
-126,-165,-39,146,-43,-102,180,126,-19,-92,-102,-117
-126,-165,-39,146,-43,-102,180,126,-14,-92,-102,-117
-126,-165,-39,146,-43,-102,180,131,-14,-87,-102,-117
-126,-161,-34,143,-46,-97,180,131,-9,-82,-102,-117
-126,-156,-29,141,-48,-92,180,136,-4,-78,-102,-117
-126,-151,-24,139,-51,-87,180,136,-4,-78,-102,-112
-126,-151,-24,139,-51,-87,180,136,0,-78,-97,-112
-126,-151,-24,139,-51,-87,180,136,-4,-78,-97,-112
-126,-151,-24,139,-51,-87,180,136,-9,-82,-97,-112
-126,-141,-14,134,-56,-78,180,141,-9,-82,-102,-112
-131,-136,-4,134,-63,-70,180,141,-9,-82,-102,-112
-131,-136,-4,134,-63,-70,185,141,-9,-87,-102,-117
-131,-141,-9,136,-61,-75,185,146,-9,-87,-102,-117
-131,-141,-9,136,-61,-75,185,146,-9,-87,-107,-117
-136,-141,-4,139,-65,-73,190,146,-9,-92,-112,-117
-136,-141,-4,139,-65,-73,185,151,-14,-97,-117,-122
-136,-141,-4,139,-65,-73,180,151,-14,-102,-122,-126
-141,-146,-4,143,-68,-75,185,146,-14,-107,-122,-131
-141,-146,-4,143,-68,-75,185,146,-19,-112,-126,-136
-146,-151,-4,148,-70,-78,190,151,-19,-117,-136,-136
-156,-151,4,153,-80,-73,195,151,-19,-122,-141,-146
-156,-151,4,153,-80,-73,200,161,-19,-117,-136,-151
-156,-156,0,156,-78,-78,204,170,-24,-117,-141,-156
-161,-156,4,158,-82,-75,214,175,-24,-131,-146,-156
-165,-165,0,165,-82,-82,229,180,-24,-131,-161,-161
-170,-165,4,168,-87,-80,239,185,-24,-141,-165,-165
-180,-165,14,173,-97,-75,248,190,-34,-151,-175,-175
-185,-170,14,178,-100,-78,248,195,-39,-161,-185,-185
-195,-175,19,185,-107,-78,258,200,-39,-170,-195,-200
-204,-180,24,192,-114,-78,268,209,-48,-180,-209,-209
-214,-175,39,195,-126,-68,278,209,-58,-190,-224,-229
-229,-180,48,204,-139,-65,292,209,-63,-209,-239,-244
-244,-185,58,214,-151,-63,307,214,-73,-224,-258,-258
-258,-190,68,224,-163,-61,317,214,-87,-244,-278,-283
-273,-200,73,236,-173,-63,336,219,-97,-268,-302,-302
-292,-209,82,251,-187,-63,356,224,-112,-287,-331,-331
-307,-224,82,265,-195,-70,370,224,-136,-312,-356,-361
-336,-244,92,290,-214,-75,385,224,-156,-341,-390,-390
-361,-253,107,307,-234,-73,400,224,-185,-380,-429,-429
-390,-273,117,331,-253,-78,424,224,-214,-414,-468,-468
-419,-297,122,358,-270,-87,439,219,-244,-453,-507,-507
-448,-326,122,387,-285,-102,458,209,-273,-497,-551,-546
-483,-351,131,417,-307,-109,473,195,-307,-541,-595,-600
-512,-375,136,444,-324,-119,483,185,-346,-590,-653,-653
-546,-409,136,478,-341,-136,497,175,-390,-644,-702,-702
-580,-429,151,505,-366,-139,507,165,-439,-697,-761,-761
-619,-453,165,536,-392,-143,517,146,-478,-756,-814,-814
-649,-488,161,568,-405,-163,527,131,-527,-814,-868,-868
-678,-512,165,595,-422,-173,536,117,-570,-873,-922,-917
-707,-541,165,624,-436,-187,541,97,-614,-922,-971,-966
-732,-570,161,651,-446,-204,546,68,-653,-971,-1019,-1015
-756,-585,170,671,-463,-207,541,39,-697,-1015,-1068,-1054
-780,-595,185,688,-483,-204,527,19,-741,-1058,-1102,-1093
-785,-619,165,702,-475,-226,517,0,-766,-1083,-1137,-1122
-790,-639,151,714,-470,-244,507,-24,-785,-1102,-1156,-1141
-790,-639,151,714,-470,-244,497,-39,-800,-1117,-1166,-1156
-780,-634,146,707,-463,-244,488,-53,-805,-1122,-1171,-1161
-775,-629,146,702,-461,-241,468,-63,-805,-1107,-1161,-1141
-756,-619,136,688,-446,-241,439,-73,-785,-1083,-1137,-1112
-732,-605,126,668,-429,-239,419,-73,-766,-1054,-1102,-1088
-702,-590,112,646,-407,-239,395,-73,-746,-1015,-1068,-1054
-663,-561,102,612,-383,-229,370,-73,-702,-966,-1015,-1000
-619,-527,92,573,-356,-217,346,-58,-653,-902,-951,-932
-575,-488,87,531,-331,-200,317,-53,-600,-834,-883,-863
-527,-444,82,485,-305,-180,292,-43,-541,-761,-810,-795
-473,-409,63,441,-268,-173,273,-29,-483,-683,-727,-717
-424,-375,48,400,-236,-163,244,-9,-419,-605,-644,-634
-380,-346,34,363,-207,-156,229,0,-356,-522,-566,-556
-336,-312,24,324,-180,-143,195,4,-307,-453,-497,-492
-287,-268,19,278,-153,-124,170,14,-258,-380,-424,-424
-248,-229,19,239,-134,-104,156,29,-209,-317,-346,-351
-204,-195,9,200,-107,-92,136,34,-161,-253,-278,-278
-165,-165,0,165,-82,-82,117,39,-117,-204,-224,-224
-126,-141,-14,134,-56,-78,97,48,-82,-146,-175,-175
-97,-117,-19,107,-39,-68,78,53,-43,-97,-126,-122
-63,-97,-34,80,-14,-65,68,58,-9,-53,-73,-73
-39,-82,-43,61,2,-63,53,63,14,-19,-24,-39
-19,-63,-43,41,12,-53,43,63,29,4,-4,-14
0,-48,-48,24,24,-48,34,63,43,24,24,14
9,-29,-39,9,24,-34,19,63,58,48,48,39
19,-24,-43,2,31,-34,9,63,68,58,63,53
29,-14,-43,-7,36,-29,4,63,73,73,73,63
29,-14,-43,-7,36,-29,4,63,78,92,82,73
34,-14,-48,-9,41,-31,0,53,78,92,87,78
34,-9,-43,-12,39,-26,0,48,82,97,87,78
39,-4,-43,-17,41,-24,0,48,82,92,87,78
39,4,-34,-21,36,-14,0,48,82,87,92,82
39,9,-29,-24,34,-9,-4,48,82,87,92,82
43,14,-29,-29,36,-7,-4,43,78,82,87,82
39,9,-29,-24,34,-9,0,43,78,78,82,68
39,9,-29,-24,34,-9,4,43,68,73,73,68
29,4,-24,-17,26,-9,4,43,68,68,73,58
24,0,-24,-12,24,-12,9,39,58,63,68,53
19,-4,-24,-7,21,-14,4,39,53,53,58,48
9,-14,-24,2,17,-19,4,39,53,48,53,48
9,-19,-29,4,19,-24,14,39,48,43,53,48
4,-19,-24,7,14,-21,14,39,39,39,48,43
0,-29,-29,14,14,-29,14,39,34,29,39,34
-9,-34,-24,21,7,-29,14,39,29,19,34,24
-9,-39,-29,24,9,-34,19,39,19,14,24,14
-9,-39,-29,24,9,-34,19,34,19,9,24,9
-9,-39,-29,24,9,-34,29,34,14,9,14,0
-14,-43,-29,29,7,-36,34,34,9,9,9,-4
-24,-48,-24,36,0,-36,34,34,9,4,4,-4
-24,-48,-24,36,0,-36,39,34,4,-4,0,-9
-24,-53,-29,39,2,-41,39,34,0,-9,-4,-9
-24,-58,-34,41,4,-46,43,34,0,-14,-4,-9
-29,-63,-34,46,2,-48,43,34,0,-14,-14,-14
-29,-63,-34,46,2,-48,39,34,0,-19,-19,-14
-34,-73,-39,53,2,-56,39,34,0,-19,-19,-19
-39,-82,-43,61,2,-63,43,34,0,-19,-19,-19
-39,-82,-43,61,2,-63,43,34,0,-19,-19,-19
-39,-82,-43,61,2,-63,43,34,0,-19,-19,-19
-34,-82,-48,58,7,-65,43,34,0,-19,-19,-14
-34,-82,-48,58,7,-65,43,39,0,-19,-19,-14
-29,-82,-53,56,12,-68,43,39,0,-14,-14,-14
-24,-82,-58,53,17,-70,43,39,4,-14,-14,-9
-24,-82,-58,53,17,-70,39,39,4,-9,-9,-9
-19,-82,-63,51,21,-73,39,43,9,-9,-4,-4
-24,-82,-58,53,17,-70,39,39,9,-4,-4,-4
-24,-78,-53,51,14,-65,39,34,14,0,0,0
-19,-73,-53,46,17,-63,34,34,14,0,0,4
-19,-73,-53,46,17,-63,34,34,19,4,4,4
-19,-73,-53,46,17,-63,34,39,19,9,9,9
-14,-73,-58,43,21,-65,34,43,24,14,14,14
-14,-68,-53,41,19,-61,34,48,29,14,14,14
-14,-68,-53,41,19,-61,34,48,29,19,19,24
-9,-68,-58,39,24,-63,29,43,29,19,24,24
-9,-63,-53,36,21,-58,29,43,34,24,24,24
0,-63,-63,31,31,-63,29,39,34,29,29,29
4,-58,-63,26,34,-61,29,34,34,29,29,34
4,-58,-63,26,34,-61,29,39,39,34,34,34
9,-53,-63,21,36,-58,29,39,43,39,39,34
4,-58,-63,26,34,-61,24,34,43,39,43,34
4,-63,-68,29,36,-65,19,34,39,43,48,39
0,-58,-58,29,29,-58,14,34,48,39,53,43
4,-53,-58,24,31,-56,19,43,48,39,53,43
4,-48,-53,21,29,-51,24,48,53,39,53,43
9,-43,-53,17,31,-48,34,53,48,43,58,53
14,-43,-58,14,36,-51,34,58,53,48,58,48
19,-34,-53,7,36,-43,34,58,68,63,63,63
24,-24,-48,0,36,-36,39,63,78,73,78,68
39,-4,-43,-17,41,-24,34,63,78,78,78,68
39,9,-29,-24,34,-9,53,73,87,87,82,73
39,29,-9,-34,24,9,78,87,97,97,87,78
48,34,-14,-41,31,9,78,92,102,97,92,82
58,39,-19,-48,39,9,78,97,107,97,97,87
58,39,-19,-48,39,9,73,97,107,102,102,92
63,39,-24,-51,43,7,58,92,102,102,102,92
68,43,-24,-56,46,9,43,87,102,107,107,97
82,68,-14,-75,48,26,9,68,102,107,107,97
97,87,-9,-92,53,39,-24,48,97,102,112,102
107,97,-9,-102,58,43,-43,34,97,102,112,102
117,107,-9,-112,63,48,-48,24,97,107,112,107
122,112,-9,-117,65,51,-58,14,87,107,107,102
122,107,-14,-114,68,46,-63,9,87,102,107,102
122,102,-19,-112,70,41,-68,9,87,102,107,102
122,97,-24,-109,73,36,-68,0,82,97,107,97
122,87,-34,-104,78,26,-68,0,73,92,97,97
117,68,-48,-92,82,9,-63,9,73,92,97,97
117,43,-73,-80,95,-14,-58,9,73,92,97,92
117,34,-82,-75,100,-24,-58,9,73,92,97,92
102,34,-68,-68,85,-17,-48,19,73,92,102,92
68,29,-39,-48,53,-4,-24,29,73,82,102,92
39,24,-14,-31,26,4,-14,29,73,82,87,82
24,4,-19,-14,21,-7,-4,34,73,73,82,78
19,-29,-48,4,34,-39,-4,34,53,63,63,68
14,-48,-63,17,39,-56,-4,34,43,48,53,53
14,-58,-73,21,43,-65,-4,29,43,48,48,53
4,-58,-63,26,34,-61,-4,24,48,48,53,53
4,-58,-63,26,34,-61,0,24,53,48,58,53
4,-63,-68,29,36,-65,4,29,53,48,63,48
4,-63,-68,29,36,-65,14,29,53,48,63,43
4,-63,-68,29,36,-65,14,29,48,48,63,43
4,-63,-68,29,36,-65,14,29,48,48,63,43
4,-63,-68,29,36,-65,19,29,48,48,58,48
0,-68,-68,34,34,-68,19,34,48,48,58,53
0,-68,-68,34,34,-68,19,39,48,53,58,53
0,-68,-68,34,34,-68,24,48,48,58,58,53
0,-68,-68,34,34,-68,24,48,48,58,63,53
0,-68,-68,34,34,-68,24,48,48,58,63,53
0,-68,-68,34,34,-68,29,53,53,53,63,48
0,-68,-68,34,34,-68,29,53,53,48,63,43
0,-68,-68,34,34,-68,24,48,53,48,63,43
4,-68,-73,31,39,-70,19,43,53,48,63,43
4,-63,-68,29,36,-65,24,48,53,48,63,48
4,-58,-63,26,34,-61,24,48,53,48,63,58
14,-53,-68,19,41,-61,24,63,73,78,82,73
68,-14,-82,-26,75,-48,4,102,136,156,161,141
195,63,-131,-129,163,-34,-53,122,268,312,322,297
361,214,-146,-287,253,34,-175,73,434,527,551,522
517,429,-87,-473,302,170,-380,-97,566,756,780,756
649,658,9,-653,319,334,-605,-317,649,956,1000,971
878,1005,126,-941,375,566,-976,-605,766,1210,1288,1268
1210,1385,175,-1298,517,780,-1366,-810,985,1586,1708,1683
1615,1771,156,-1693,729,963,-1776,-966,1224,2000,2161,2132
2010,2093,82,-2052,963,1088,-2196,-1063,1415,2381,2566,2547
2391,2366,-24,-2379,1207,1171,-2596,-1171,1517,2664,2908,2898
2757,2522,-234,-2640,1495,1144,-2893,-1268,1556,2859,3172,3181
2947,2537,-409,-2742,1678,1063,-2981,-1317,1522,2908,3259,3298
2996,2259,-736,-2627,1866,761,-2815,-1171,1420,2776,3157,3225
2752,1893,-858,-2322,1805,517,-2552,-1083,1107,2342,2723,2830
2244,1708,-536,-1976,1390,585,-2205,-1112,663,1693,2034,2161
1537,1517,-19,-1527,778,749,-1717,-1068,283,1054,1327,1454
771,1210,439,-990,165,824,-1224,-1029,-117,390,575,673
219,849,629,-534,-204,739,-824,-956,-424,-107,19,107
39,375,336,-207,-148,356,-468,-644,-453,-302,-204,-122
-78,24,102,26,-90,63,-136,-302,-302,-283,-229,-200
-136,-122,14,129,-75,-53,48,-73,-175,-204,-195,-185
-136,-131,4,134,-70,-63,78,9,-122,-165,-165,-165
-136,-136,0,136,-68,-68,97,29,-87,-141,-141,-156
-131,-136,-4,134,-63,-70,126,43,-78,-126,-131,-141
-131,-136,-4,134,-63,-70,141,63,-73,-122,-126,-131
-131,-136,-4,134,-63,-70,146,82,-63,-112,-117,-126
-131,-146,-14,139,-58,-80,156,97,-48,-102,-117,-126
-131,-161,-29,146,-51,-95,161,97,-39,-97,-107,-122
-131,-165,-34,148,-48,-100,170,97,-39,-97,-107,-117
-131,-161,-29,146,-51,-95,170,107,-34,-97,-102,-112
-131,-161,-29,146,-51,-95,170,112,-29,-97,-102,-112
-131,-161,-29,146,-51,-95,170,117,-29,-97,-102,-112
-131,-156,-24,143,-53,-90,175,122,-24,-97,-97,-112
-126,-156,-29,141,-48,-92,175,122,-19,-87,-97,-112
-126,-156,-29,141,-48,-92,180,122,-14,-82,-97,-107
-126,-156,-29,141,-48,-92,180,126,-9,-82,-92,-107
-126,-156,-29,141,-48,-92,180,126,-4,-82,-92,-107
-126,-151,-24,139,-51,-87,180,131,-4,-78,-92,-107
-126,-146,-19,136,-53,-82,180,131,-4,-78,-92,-107
-126,-146,-19,136,-53,-82,180,136,-9,-78,-92,-107
-126,-141,-14,134,-56,-78,180,136,-14,-78,-92,-102
-126,-141,-14,134,-56,-78,180,136,-9,-82,-87,-102
-126,-141,-14,134,-56,-78,180,136,-9,-82,-87,-102
-131,-141,-9,136,-61,-75,180,136,-9,-82,-87,-102
-136,-136,0,136,-68,-68,180,141,-9,-82,-92,-102
-141,-136,4,139,-73,-65,180,141,-9,-78,-92,-102
-141,-136,4,139,-73,-65,185,141,-9,-78,-92,-107
-141,-141,0,141,-70,-70,185,146,-9,-78,-92,-107
-141,-141,0,141,-70,-70,185,146,-9,-78,-92,-107
-141,-141,0,141,-70,-70,190,146,-9,-82,-92,-107
-136,-141,-4,139,-65,-73,190,151,-14,-82,-97,-112
-136,-141,-4,139,-65,-73,190,151,-14,-87,-102,-117
-141,-146,-4,143,-68,-75,195,151,-14,-97,-102,-122
-141,-146,-4,143,-68,-75,195,156,-19,-102,-107,-126
-146,-151,-4,148,-70,-78,200,161,-19,-107,-117,-126
-156,-151,4,153,-80,-73,204,161,-19,-107,-122,-131
-156,-151,4,153,-80,-73,209,165,-19,-102,-122,-131
-156,-156,0,156,-78,-78,214,170,-19,-107,-131,-136
-165,-156,9,161,-87,-73,219,175,-19,-122,-136,-141
-175,-165,9,170,-92,-78,229,180,-24,-122,-151,-151
-180,-165,14,173,-97,-75,239,185,-24,-131,-156,-156
-190,-165,24,178,-107,-70,248,190,-34,-136,-161,-165
-195,-170,24,183,-109,-73,253,195,-39,-141,-165,-175
-200,-175,24,187,-112,-75,273,200,-39,-151,-175,-190
-204,-185,19,195,-112,-82,287,209,-48,-161,-190,-200
-214,-185,29,200,-122,-78,297,214,-58,-170,-204,-219
-229,-195,34,212,-131,-80,312,224,-63,-190,-219,-234
-248,-204,43,226,-146,-80,326,234,-73,-204,-239,-248
-268,-209,58,239,-163,-75,336,234,-87,-224,-258,-273
-283,-219,63,251,-173,-78,356,239,-97,-248,-283,-292
-307,-229,78,268,-192,-75,375,244,-112,-273,-312,-322
-326,-244,82,285,-204,-80,385,239,-136,-302,-336,-351
-356,-263,92,309,-224,-85,395,234,-156,-331,-370,-380
-380,-273,107,326,-244,-82,409,234,-185,-370,-409,-419
-409,-292,117,351,-263,-87,434,234,-214,-405,-448,-458
-439,-317,122,378,-280,-97,448,234,-244,-444,-488,-497
-468,-341,126,405,-297,-107,468,229,-278,-492,-536,-536
-502,-361,141,431,-322,-109,483,214,-312,-536,-580,-590
-531,-385,146,458,-339,-119,492,204,-346,-580,-634,-644
-566,-419,146,492,-356,-136,507,195,-390,-634,-683,-688
-600,-439,161,519,-380,-139,517,180,-439,-683,-741,-741
-639,-463,175,551,-407,-143,527,151,-478,-736,-795,-795
-668,-497,170,583,-419,-163,536,126,-527,-790,-849,-849
-697,-522,175,610,-436,-173,546,107,-570,-839,-897,-897
-727,-551,175,639,-451,-187,546,87,-614,-883,-941,-946
-751,-575,175,663,-463,-200,546,58,-653,-932,-990,-995
-771,-585,185,678,-478,-200,541,34,-688,-971,-1034,-1029
-790,-595,195,692,-492,-200,527,19,-722,-1010,-1063,-1058
-795,-610,185,702,-490,-212,517,0,-746,-1034,-1093,-1078
-800,-619,180,710,-490,-219,507,-24,-761,-1049,-1102,-1088
-800,-619,180,710,-490,-219,492,-39,-766,-1054,-1102,-1093
-785,-614,170,700,-478,-222,478,-53,-766,-1054,-1102,-1093
-766,-605,161,685,-463,-222,458,-63,-766,-1034,-1088,-1073
-736,-590,146,663,-441,-222,429,-73,-746,-1010,-1058,-1044
-707,-566,141,636,-424,-212,409,-73,-717,-980,-1019,-1010
-673,-541,131,607,-402,-204,380,-73,-688,-936,-980,-971
-634,-512,122,573,-378,-195,351,-73,-644,-883,-922,-922
-590,-478,112,534,-351,-183,326,-58,-595,-814,-854,-854
-546,-439,107,492,-326,-165,297,-53,-541,-746,-785,-785
-497,-395,102,446,-300,-146,273,-43,-488,-673,-717,-717
-444,-361,82,402,-263,-139,253,-29,-434,-595,-639,-639
-395,-336,58,366,-226,-139,224,-9,-370,-522,-556,-556
-346,-307,39,326,-192,-134,209,0,-307,-448,-478,-478
-297,-253,43,275,-170,-104,170,0,-263,-395,-419,-424
-248,-209,39,229,-143,-85,141,4,-219,-331,-361,-366
-209,-180,29,195,-119,-75,126,19,-170,-268,-287,-292
-165,-146,19,156,-92,-63,107,24,-126,-209,-224,-229
-126,-117,9,122,-68,-53,87,29,-92,-165,-175,-190
-92,-92,0,92,-46,-46,68,39,-68,-112,-126,-146
-68,-68,0,68,-34,-34,48,43,-34,-68,-82,-92
-39,-48,-9,43,-14,-29,39,43,0,-29,-43,-48
-19,-34,-14,26,-2,-24,24,39,24,-4,-4,-19
0,-19,-19,9,9,-19,14,34,34,14,14,4
19,-9,-29,-4,24,-19,4,34,43,34,43,29
29,9,-19,-19,24,-4,-4,34,58,58,63,43
39,14,-24,-26,31,-4,-9,34,63,68,73,53
48,24,-24,-36,36,0,-14,34,63,73,82,63
48,24,-24,-36,36,0,-14,39,68,82,92,78
53,24,-29,-39,41,-2,-19,39,68,82,97,87
53,29,-24,-41,39,2,-19,39,73,87,92,87
58,29,-29,-43,43,0,-19,39,73,87,87,87
58,34,-24,-46,41,4,-14,34,73,82,92,87
53,34,-19,-43,36,7,-14,29,73,78,92,82
48,34,-14,-41,31,9,-14,24,68,73,87,82
39,29,-9,-34,24,9,-9,24,68,68,82,68
39,29,-9,-34,24,9,-4,29,58,68,73,73
29,24,-4,-26,17,9,-4,34,58,68,73,68
24,19,-4,-21,14,7,0,29,48,63,68,63
19,14,-4,-17,12,4,0,29,43,53,58,58
9,4,-4,-7,7,0,0,29,43,48,53,53
9,0,-9,-4,9,-4,4,29,39,43,48,43
4,0,-4,-2,4,-2,4,24,34,39,39,34
0,-9,-9,4,4,-9,4,19,34,29,29,24
-9,-14,-4,12,-2,-9,4,19,29,19,24,14
-9,-19,-9,14,0,-14,9,19,19,14,14,9
-9,-19,-9,14,0,-14,9,14,14,9,14,9
-9,-19,-9,14,0,-14,14,14,4,4,4,0
-14,-24,-9,19,-2,-17,14,14,0,0,-4,-4
-24,-29,-4,26,-9,-17,14,14,0,-4,-14,-9
-24,-34,-9,29,-7,-21,24,14,-4,-14,-19,-19
-24,-43,-19,34,-2,-31,29,14,-9,-14,-24,-19
-24,-48,-24,36,0,-36,34,14,-9,-14,-24,-19
-29,-53,-24,41,-2,-39,34,14,-9,-14,-29,-24
-29,-53,-24,41,-2,-39,29,14,-9,-19,-29,-24
-29,-58,-29,43,0,-43,29,14,-9,-19,-29,-29
-34,-63,-29,48,-2,-46,34,14,-9,-19,-29,-29
-39,-63,-24,51,-7,-43,34,14,-9,-19,-29,-29
-39,-63,-24,51,-7,-43,34,14,-9,-19,-29,-34
-34,-63,-29,48,-2,-46,34,14,-9,-19,-29,-34
-29,-63,-34,46,2,-48,34,19,-9,-19,-29,-34
-24,-63,-39,43,7,-51,34,19,-9,-14,-24,-34
-24,-63,-39,43,7,-51,34,19,-4,-14,-24,-29
-24,-63,-39,43,7,-51,29,19,-4,-9,-19,-29
-19,-63,-43,41,12,-53,29,24,0,-9,-14,-24
-19,-63,-43,41,12,-53,29,24,0,-4,-14,-24
-14,-58,-43,36,14,-51,29,24,4,0,-9,-19
-9,-53,-43,31,17,-48,24,24,4,0,-9,-14
-9,-53,-43,31,17,-48,24,24,9,4,-4,-14
-9,-53,-43,31,17,-48,24,24,9,9,0,-9
-4,-53,-48,29,21,-51,24,24,14,14,4,-4
-4,-48,-43,26,19,-46,24,29,19,14,4,-4
-4,-53,-48,29,21,-51,24,34,19,19,9,4
0,-58,-58,29,29,-58,19,34,19,19,14,4
-4,-53,-48,29,21,-51,19,34,24,19,14,4
-4,-53,-48,29,21,-51,19,34,24,19,19,9
-4,-48,-43,26,19,-46,19,29,24,19,19,14
-4,-48,-43,26,19,-46,19,29,29,24,24,19
0,-43,-43,21,21,-43,19,29,29,29,24,24
0,-43,-43,21,21,-43,19,29,29,29,24,24
4,-53,-58,24,31,-56,9,24,29,29,29,24
4,-48,-53,21,29,-51,0,19,39,29,34,24
9,-48,-58,19,34,-53,9,29,39,34,34,24
4,-53,-58,24,31,-56,14,29,48,34,34,24
9,-43,-53,17,31,-48,24,34,43,43,39,34
14,-43,-58,14,36,-51,24,39,43,48,43,34
19,-34,-53,7,36,-43,24,43,58,63,53,53
29,-19,-48,-4,39,-34,19,48,68,73,68,58
34,0,-34,-17,34,-17,34,58,68,78,68,58
39,14,-24,-26,31,-4,48,68,73,82,73,63
43,24,-19,-34,31,2,63,78,82,87,78,68
48,39,-9,-43,29,14,78,87,97,97,87,78
53,39,-14,-46,34,12,82,92,102,97,87,82
58,39,-19,-48,39,9,87,97,107,97,87,87
58,39,-19,-48,39,9,78,92,107,97,92,87
63,48,-14,-56,39,17,53,82,102,97,92,87
73,58,-14,-65,43,21,29,73,102,102,97,87
87,73,-14,-80,51,29,-9,58,97,107,102,92
97,97,0,-97,48,48,-34,43,97,112,102,92
107,117,9,-112,48,63,-39,34,97,117,107,102
112,122,9,-117,51,65,-48,24,87,117,107,102
112,122,9,-117,51,65,-53,19,87,112,107,102
112,122,9,-117,51,65,-63,19,87,112,107,102
112,117,4,-114,53,61,-68,9,82,107,107,97
112,107,-4,-109,58,51,-68,4,73,102,97,97
112,87,-24,-100,68,31,-63,9,73,102,97,97
122,58,-63,-90,92,-2,-58,9,73,92,97,92
126,39,-87,-82,107,-24,-58,9,73,82,92,92
112,34,-78,-73,95,-21,-48,19,73,92,92,92
78,29,-48,-53,63,-9,-24,29,73,92,92,87
43,29,-14,-36,29,7,-14,29,73,92,78,73
24,19,-4,-21,14,7,-4,29,73,82,78,68
19,-9,-29,-4,24,-19,-4,24,53,73,63,58
14,-29,-43,7,29,-36,-4,24,43,58,53,43
14,-43,-58,14,36,-51,-4,19,43,53,48,43
4,-48,-53,21,29,-51,-4,19,43,48,48,43
4,-48,-53,21,29,-51,0,24,43,48,48,39
4,-53,-58,24,31,-56,0,29,43,48,53,34
4,-43,-48,19,26,-46,9,29,43,48,53,34
4,-34,-39,14,21,-36,14,29,43,48,53,34
4,-48,-53,21,29,-51,14,29,48,53,53,39
4,-63,-68,29,36,-65,19,29,48,58,48,43
0,-68,-68,34,34,-68,19,34,48,58,48,43
0,-68,-68,34,34,-68,19,34,48,58,48,43
0,-68,-68,34,34,-68,24,39,48,58,48,43
0,-68,-68,34,34,-68,24,39,48,58,53,43
0,-68,-68,34,34,-68,19,39,48,53,48,43
0,-68,-68,34,34,-68,19,43,53,48,43,43
0,-68,-68,34,34,-68,19,43,53,48,43,43
-4,-68,-63,36,29,-65,19,43,53,48,43,43
-4,-68,-63,36,29,-65,24,43,53,48,43,39
-4,-68,-63,36,29,-65,34,48,53,48,43,34
-9,-68,-58,39,24,-63,34,48,43,39,39,34
-4,-68,-63,36,29,-65,34,53,48,48,43,39
39,-58,-97,9,68,-78,29,87,92,97,92,82
146,-9,-156,-68,151,-82,-4,136,209,234,234,214
302,131,-170,-217,236,-19,-97,141,395,448,463,434
458,331,-126,-395,292,102,-268,9,546,673,692,668
561,527,-34,-544,297,246,-444,-190,614,849,888,858
741,849,107,-795,317,478,-761,-468,717,1083,1137,1117
1044,1244,200,-1144,422,722,-1117,-688,936,1449,1527,1503
1424,1659,234,-1542,595,946,-1512,-873,1180,1859,1976,1947
1820,2010,190,-1915,814,1100,-1956,-1015,1390,2259,2405,2391
2215,2318,102,-2266,1056,1210,-2410,-1166,1512,2576,2781,2776
2620,2566,-53,-2593,1337,1256,-2840,-1342,1556,2820,3098,3103
2869,2688,-180,-2779,1525,1254,-3059,-1464,1546,2937,3269,3298
3010,2474,-536,-2742,1773,968,-2957,-1312,1517,2932,3308,3367
2903,2103,-800,-2503,1851,651,-2742,-1195,1259,2601,2991,3089
2498,1873,-624,-2186,1561,624,-2420,-1185,839,1995,2366,2483
1839,1693,-146,-1766,993,773,-1942,-1117,478,1385,1688,1815
1010,1405,395,-1207,307,900,-1415,-1088,43,683,878,980
351,1044,692,-697,-170,868,-976,-1044,-336,87,214,302
107,527,419,-317,-156,473,-595,-751,-453,-229,-131,-39
-48,107,156,-29,-102,131,-229,-400,-351,-283,-229,-185
-126,-82,43,104,-85,-19,0,-126,-209,-214,-204,-195
-136,-122,14,129,-75,-53,63,-4,-136,-175,-175,-185
-136,-141,-4,139,-65,-73,87,19,-97,-151,-151,-175
-131,-146,-14,139,-58,-80,117,34,-87,-136,-141,-161
-131,-146,-14,139,-58,-80,136,53,-82,-131,-141,-151
-131,-146,-14,139,-58,-80,146,73,-73,-122,-136,-146
-131,-156,-24,143,-53,-90,156,87,-58,-112,-136,-146
-131,-165,-34,148,-48,-100,161,87,-48,-107,-126,-141
-131,-165,-34,148,-48,-100,170,87,-48,-107,-126,-136
-131,-161,-29,146,-51,-95,170,97,-43,-102,-122,-131
-131,-161,-29,146,-51,-95,170,102,-34,-97,-122,-126
-131,-161,-29,146,-51,-95,170,107,-29,-97,-122,-122
-131,-156,-24,143,-53,-90,175,117,-24,-97,-117,-122
-126,-156,-29,141,-48,-92,175,122,-24,-92,-117,-122
-126,-156,-29,141,-48,-92,180,122,-24,-92,-112,-117
-126,-156,-29,141,-48,-92,180,126,-19,-92,-102,-117
-126,-161,-34,143,-46,-97,180,122,-14,-92,-102,-117
-126,-165,-39,146,-43,-102,180,122,-14,-87,-102,-117
-126,-165,-39,146,-43,-102,180,122,-14,-87,-102,-117
-126,-165,-39,146,-43,-102,180,126,-14,-87,-102,-117
-126,-161,-34,143,-46,-97,180,126,-14,-87,-102,-112
-126,-161,-34,143,-46,-97,180,126,-9,-87,-97,-112
-126,-156,-29,141,-48,-92,180,126,-9,-82,-97,-112
-126,-151,-24,139,-51,-87,180,126,-9,-82,-97,-112
-126,-146,-19,136,-53,-82,180,131,-9,-82,-102,-112
-131,-146,-14,139,-58,-80,180,131,-9,-82,-102,-112
-131,-146,-14,139,-58,-80,185,131,-9,-87,-102,-122
-131,-151,-19,141,-56,-85,185,136,-9,-87,-102,-126
-131,-151,-19,141,-56,-85,185,136,-9,-87,-102,-126
-136,-151,-14,143,-61,-82,190,136,-9,-92,-102,-126
-136,-151,-14,143,-61,-82,190,141,-19,-92,-107,-131
-136,-151,-14,143,-61,-82,190,141,-24,-92,-112,-136
-141,-156,-14,148,-63,-85,195,141,-24,-97,-112,-136
-141,-156,-14,148,-63,-85,195,146,-29,-102,-117,-136
-146,-161,-14,153,-65,-87,200,151,-29,-102,-126,-136
-156,-161,-4,158,-75,-82,204,151,-29,-102,-131,-146
-156,-161,-4,158,-75,-82,209,156,-29,-102,-131,-151
-156,-165,-9,161,-73,-87,214,161,-34,-107,-141,-156
-165,-161,4,163,-85,-78,214,165,-39,-126,-146,-165
-175,-165,9,170,-92,-78,219,170,-43,-131,-161,-180
-180,-165,14,173,-97,-75,224,170,-43,-141,-165,-185
-190,-165,24,178,-107,-70,229,170,-53,-151,-175,-195
-195,-170,24,183,-109,-73,234,175,-58,-161,-185,-200
-204,-175,29,190,-117,-73,248,180,-58,-170,-195,-209
-214,-185,29,200,-122,-78,263,195,-68,-180,-204,-219
-224,-185,39,204,-131,-73,278,200,-78,-190,-214,-239
-234,-195,39,214,-136,-78,292,204,-82,-204,-229,-253
-244,-204,39,224,-141,-82,307,214,-92,-214,-248,-268
-258,-209,48,234,-153,-80,317,214,-102,-234,-263,-292
-273,-219,53,246,-163,-82,336,219,-107,-258,-283,-312
-297,-234,63,265,-180,-85,356,224,-117,-283,-312,-336
-317,-253,63,285,-190,-95,370,224,-136,-312,-336,-361
-346,-273,73,309,-209,-100,385,224,-156,-341,-370,-390
-370,-283,87,326,-229,-97,400,224,-185,-380,-409,-429
-400,-297,102,348,-251,-97,419,224,-214,-414,-448,-473
-429,-317,112,373,-270,-102,429,219,-244,-453,-488,-517
-458,-341,117,400,-287,-112,448,209,-278,-502,-536,-556
-492,-361,131,427,-312,-114,463,195,-317,-551,-585,-610
-517,-380,136,448,-326,-122,473,190,-356,-595,-644,-663
-546,-409,136,478,-341,-136,488,185,-400,-644,-692,-712
-580,-429,151,505,-366,-139,502,175,-448,-692,-751,-766
-619,-453,165,536,-392,-143,517,156,-488,-746,-805,-814
-653,-488,165,570,-409,-161,527,136,-536,-805,-858,-868
-688,-512,175,600,-431,-168,536,117,-580,-863,-912,-917
-717,-536,180,627,-448,-178,536,87,-624,-912,-966,-976
-741,-561,180,651,-461,-190,536,48,-663,-961,-1019,-1034
-761,-575,185,668,-473,-195,531,24,-702,-1005,-1068,-1068
-780,-585,195,683,-488,-195,517,9,-741,-1049,-1102,-1102
-790,-605,185,697,-488,-209,512,-4,-766,-1073,-1132,-1127
-800,-619,180,710,-490,-219,507,-24,-785,-1093,-1146,-1141
-805,-619,185,712,-495,-217,492,-39,-800,-1107,-1156,-1161
-800,-614,185,707,-492,-214,478,-53,-805,-1112,-1161,-1171
-785,-610,175,697,-480,-217,458,-63,-810,-1102,-1156,-1156
-756,-600,156,678,-456,-222,429,-73,-795,-1083,-1137,-1132
-727,-580,146,653,-436,-217,414,-73,-766,-1049,-1098,-1098
-692,-561,131,627,-412,-214,395,-73,-736,-1005,-1058,-1054
-658,-531,126,595,-392,-202,370,-78,-697,-951,-1005,-1005
-619,-497,122,558,-370,-187,346,-68,-653,-883,-941,-941
-575,-458,117,517,-346,-170,317,-63,-600,-819,-873,-873
-527,-414,112,470,-319,-151,292,-53,-541,-751,-800,-805
-473,-375,97,424,-285,-139,273,-39,-483,-673,-717,-727
-424,-336,87,380,-256,-124,244,-19,-419,-595,-634,-644
-370,-297,73,334,-222,-112,229,-9,-351,-512,-556,-561
-317,-253,63,285,-190,-95,195,-4,-297,-444,-488,-492
-268,-219,48,244,-158,-85,161,4,-248,-370,-419,-424
-229,-190,39,209,-134,-75,136,19,-200,-307,-346,-351
-190,-156,34,173,-112,-61,117,24,-151,-244,-273,-283
-156,-126,29,141,-92,-48,97,29,-107,-195,-214,-234
-122,-107,14,114,-68,-46,82,39,-78,-141,-165,-185
-97,-87,9,92,-53,-39,68,43,-43,-97,-117,-131
-63,-68,-4,65,-29,-36,58,43,-9,-53,-73,-82
-39,-53,-14,46,-12,-34,43,43,14,-19,-34,-48
-19,-34,-14,26,-2,-24,29,43,24,4,-14,-24
0,-19,-19,9,9,-19,14,43,34,24,14,4
14,0,-14,-7,14,-7,4,43,48,53,39,24
29,4,-24,-17,26,-9,0,43,58,68,53,34
39,14,-24,-26,31,-4,-4,43,68,73,63,43
39,14,-24,-26,31,-4,-4,43,78,82,73,53
43,14,-29,-29,36,-7,-9,39,78,82,78,63
43,19,-24,-31,34,-2,-9,39,82,87,78,68
48,14,-34,-31,41,-9,-9,39,82,87,78,68
48,14,-34,-31,41,-9,-9,39,82,87,82,73
43,9,-34,-26,39,-12,-9,43,82,87,82,73
43,4,-39,-24,41,-17,-4,43,78,82,78,73
39,0,-39,-19,39,-19,0,43,78,78,73,63
39,0,-39,-19,39,-19,4,43,68,73,63,68
29,4,-24,-17,26,-9,4,43,68,68,63,58
24,9,-14,-17,19,-2,9,39,58,63,58,53
19,4,-14,-12,17,-4,9,34,53,53,48,43
9,-4,-14,-2,12,-9,14,29,53,48,43,39
9,-14,-24,2,17,-19,24,29,48,43,39,34
4,-19,-24,7,14,-21,24,29,39,39,29,24
0,-29,-29,14,14,-29,24,29,34,29,19,14
-9,-34,-24,21,7,-29,24,29,29,19,14,4
-9,-39,-29,24,9,-34,29,29,19,14,4,0
-9,-39,-29,24,9,-34,29,24,19,9,4,0
-9,-39,-29,24,9,-34,34,24,9,4,-4,-9
-14,-43,-29,29,7,-36,34,24,0,0,-9,-14
-24,-48,-24,36,0,-36,34,29,0,-4,-14,-19
-24,-48,-24,36,0,-36,39,34,-4,-14,-19,-29
-24,-58,-34,41,4,-46,39,34,-9,-14,-24,-29
-24,-68,-43,46,9,-56,43,34,-9,-14,-24,-29
-29,-73,-43,51,7,-58,43,34,-9,-19,-34,-34
-29,-73,-43,51,7,-58,39,34,-9,-29,-39,-34
-29,-73,-43,51,7,-58,39,34,-9,-29,-39,-39
-29,-73,-43,51,7,-58,43,34,-9,-29,-39,-39
-29,-73,-43,51,7,-58,43,34,-9,-29,-39,-39
-29,-73,-43,51,7,-58,43,34,-9,-29,-39,-39
-24,-78,-53,51,14,-65,43,34,-9,-29,-34,-34
-24,-82,-58,53,17,-70,43,39,-9,-29,-29,-34
-24,-82,-58,53,17,-70,43,39,-9,-19,-24,-34
-24,-82,-58,53,17,-70,43,39,-4,-14,-24,-29
-24,-82,-58,53,17,-70,39,39,-4,-9,-24,-29
-19,-82,-63,51,21,-73,39,43,0,-9,-24,-24
-19,-82,-63,51,21,-73,39,43,0,-9,-24,-24
-14,-78,-63,46,24,-70,39,43,4,-9,-19,-19
-9,-73,-63,41,26,-68,34,43,4,-9,-14,-14
-9,-73,-63,41,26,-68,34,43,9,-4,-4,-14
-9,-73,-63,41,26,-68,34,43,9,0,0,-9
-4,-73,-68,39,31,-70,34,43,14,4,4,-4
-4,-63,-58,34,26,-61,34,48,19,4,0,-4
-4,-58,-53,31,24,-56,34,48,19,9,0,4
0,-58,-58,29,29,-58,29,43,24,9,4,4
0,-53,-53,26,26,-53,29,43,34,14,4,4
4,-53,-58,24,31,-56,29,43,34,19,9,4
4,-48,-53,21,29,-51,29,43,34,19,9,4
4,-48,-53,21,29,-51,34,48,39,24,14,9
9,-43,-53,17,31,-48,39,48,43,29,19,14
9,-43,-53,17,31,-48,39,48,48,34,29,19
14,-43,-58,14,36,-51,39,53,48,43,39,29
14,-29,-43,7,29,-36,34,58,58,48,43,34
24,-9,-34,-7,29,-21,43,78,63,63,43,34
34,4,-29,-19,31,-12,53,82,78,63,48,43
48,19,-29,-34,39,-4,68,87,97,68,58,58
48,19,-29,-34,39,-4,78,97,97,82,73,68
48,19,-29,-34,39,-4,87,107,97,97,87,78
53,19,-34,-36,43,-7,87,107,97,97,87,78
58,19,-39,-39,48,-9,73,102,92,97,87,78
63,24,-39,-43,51,-7,63,97,92,97,87,78
73,48,-24,-61,48,12,29,78,92,97,87,78
87,73,-14,-80,51,29,-4,58,87,97,92,82
97,87,-9,-92,53,39,-24,43,87,102,92,82
107,97,-9,-102,58,43,-29,34,87,107,97,92
112,102,-9,-107,61,46,-39,24,78,107,97,92
112,102,-9,-107,61,46,-48,19,78,102,97,92
112,102,-9,-107,61,46,-58,19,78,102,97,92
112,97,-14,-104,63,41,-58,9,73,97,97,87
112,87,-24,-100,68,31,-58,9,63,92,87,87
112,68,-43,-90,78,12,-53,19,63,92,87,87
117,43,-73,-80,95,-14,-48,19,63,92,87,82
117,29,-87,-73,102,-29,-48,19,63,92,82,82
102,24,-78,-63,90,-26,-39,29,63,92,82,82
68,19,-48,-43,58,-14,-14,39,63,82,82,82
39,14,-24,-26,31,-4,-4,39,63,82,68,73
24,4,-19,-14,21,-7,4,39,63,73,68,68
19,-19,-39,0,29,-29,4,34,43,63,53,58
14,-39,-53,12,34,-46,4,34,39,43,43,43
14,-48,-63,17,39,-56,4,29,43,39,39,43
4,-48,-53,21,29,-51,4,29,43,39,39,43
4,-48,-53,21,29,-51,9,34,43,39,39,43
4,-53,-58,24,31,-56,9,39,43,39,43,43
4,-53,-58,24,31,-56,14,39,43,39,43,43
4,-53,-58,24,31,-56,14,39,39,39,43,39
4,-53,-58,24,31,-56,14,39,39,39,43,34
4,-53,-58,24,31,-56,19,39,39,43,39,34
0,-58,-58,29,29,-58,19,43,39,48,39,34
0,-58,-58,29,29,-58,19,43,39,48,39,34
0,-58,-58,29,29,-58,24,48,39,48,39,34
0,-58,-58,29,29,-58,24,43,39,48,43,34
0,-58,-58,29,29,-58,24,39,39,48,43,34
0,-58,-58,29,29,-58,29,43,43,48,43,34
0,-58,-58,29,29,-58,29,43,43,48,43,34
-4,-63,-58,34,26,-61,29,43,48,48,43,34
-4,-68,-63,36,29,-65,29,43,53,48,43,34
-4,-68,-63,36,29,-65,34,53,53,48,48,39
-4,-68,-63,36,29,-65,34,58,53,48,53,48
9,-58,-68,24,39,-63,29,63,78,82,73,68
68,-14,-82,-26,75,-48,4,92,146,165,151,141
185,63,-122,-124,153,-29,-48,122,278,326,322,302
341,214,-126,-278,234,43,-165,82,444,546,561,531
492,434,-58,-463,275,187,-366,-78,575,780,795,766
619,668,48,-644,285,358,-585,-287,658,985,1019,980
829,1019,190,-924,319,605,-936,-570,775,1249,1307,1283
1141,1405,263,-1273,439,834,-1307,-771,995,1634,1727,1703
1527,1805,278,-1666,624,1041,-1717,-941,1239,2054,2191,2161
1903,2142,239,-2022,832,1190,-2137,-1054,1434,2440,2605,2586
2264,2410,146,-2337,1058,1278,-2542,-1171,1537,2737,2967,2947
2610,2562,-48,-2586,1329,1256,-2845,-1278,1576,2947,3250,3240
2796,2591,-204,-2693,1500,1193,-2947,-1332,1556,3015,3362,3386
2840,2327,-512,-2583,1676,907,-2796,-1190,1468,2903,3284,3342
2640,1942,-697,-2291,1668,622,-2527,-1073,1156,2449,2835,2932
2176,1737,-439,-1956,1307,649,-2176,-1073,712,1781,2132,2249
1503,1546,43,-1525,729,795,-1698,-1029,322,1132,1400,1527
771,1239,468,-1005,151,854,-1215,-990,-87,458,624,732
219,878,658,-549,-219,768,-814,-936,-414,-73,39,136
39,405,366,-222,-163,385,-458,-644,-463,-302,-214,-122
-78,43,122,17,-100,82,-136,-302,-312,-292,-244,-209
-136,-112,24,124,-80,-43,39,-73,-185,-224,-214,-204
-136,-126,9,131,-73,-58,73,9,-126,-185,-185,-185
-136,-136,0,136,-68,-68,97,29,-87,-161,-161,-175
-131,-136,-4,134,-63,-70,126,39,-78,-146,-151,-161
-131,-136,-4,134,-63,-70,141,53,-73,-141,-146,-151
-131,-136,-4,134,-63,-70,146,73,-63,-131,-131,-146
-131,-146,-14,139,-58,-80,156,87,-48,-122,-126,-146
-131,-156,-24,143,-53,-90,161,92,-39,-112,-117,-141
-131,-156,-24,143,-53,-90,170,97,-39,-107,-117,-136
-131,-151,-19,141,-56,-85,170,107,-34,-102,-112,-131
-131,-151,-19,141,-56,-85,170,112,-29,-97,-112,-131
-131,-156,-24,143,-53,-90,170,117,-29,-102,-117,-131
-131,-156,-24,143,-53,-90,175,122,-24,-107,-117,-131
-126,-156,-29,141,-48,-92,170,122,-24,-102,-117,-131
-126,-156,-29,141,-48,-92,170,122,-24,-102,-117,-126
-126,-156,-29,141,-48,-92,170,122,-24,-102,-112,-126
-126,-156,-29,141,-48,-92,170,117,-24,-102,-112,-126
-126,-151,-24,139,-51,-87,170,122,-24,-97,-112,-126
-126,-146,-19,136,-53,-82,170,122,-24,-97,-112,-126
-126,-146,-19,136,-53,-82,170,126,-19,-92,-112,-126
-126,-141,-14,134,-56,-78,170,126,-14,-87,-112,-122
-126,-146,-19,136,-53,-82,170,131,-9,-87,-107,-122
-126,-151,-24,139,-51,-87,170,136,-9,-82,-107,-122
-126,-151,-24,139,-51,-87,175,136,-9,-87,-107,-122
-126,-146,-19,136,-53,-82,180,141,-9,-92,-112,-122
-126,-146,-19,136,-53,-82,180,141,-9,-92,-112,-122
-122,-146,-24,134,-48,-85,185,141,-9,-97,-112,-126
-122,-156,-34,139,-43,-95,185,146,-9,-92,-112,-126
-122,-161,-39,141,-41,-100,185,146,-9,-87,-112,-126
-131,-161,-29,146,-51,-95,190,146,-9,-92,-112,-126
-136,-161,-24,148,-56,-92,190,151,-14,-92,-117,-131
-136,-156,-19,146,-58,-87,190,151,-19,-92,-122,-136
-141,-156,-14,148,-63,-85,195,151,-24,-97,-122,-141
-141,-156,-14,148,-63,-85,195,156,-29,-102,-126,-146
-146,-161,-14,153,-65,-87,200,161,-29,-107,-136,-146
-156,-161,-4,158,-75,-82,204,161,-29,-112,-141,-156
-156,-161,-4,158,-75,-82,209,165,-29,-112,-141,-161
-156,-170,-14,163,-70,-92,214,170,-34,-117,-146,-165
-165,-175,-9,170,-78,-92,219,175,-39,-131,-146,-170
-175,-190,-14,183,-80,-102,229,180,-43,-131,-161,-180
-180,-195,-14,187,-82,-104,239,185,-43,-141,-165,-185
-190,-195,-4,192,-92,-100,248,190,-53,-156,-180,-195
-195,-200,-4,197,-95,-102,253,195,-58,-170,-195,-204
-204,-195,9,200,-107,-92,268,195,-58,-180,-209,-219
-214,-195,19,204,-117,-87,278,200,-68,-190,-229,-229
-224,-190,34,207,-129,-78,287,200,-82,-204,-244,-253
-239,-195,43,217,-141,-75,302,204,-92,-229,-258,-273
-253,-204,48,229,-151,-78,317,214,-102,-244,-278,-287
-268,-209,58,239,-163,-75,326,214,-117,-263,-297,-312
-283,-219,63,251,-173,-78,346,219,-126,-287,-326,-331
-307,-229,78,268,-192,-75,366,224,-141,-312,-361,-361
-326,-239,87,283,-207,-75,380,219,-165,-341,-385,-395
-356,-253,102,305,-229,-75,395,214,-185,-370,-419,-429
-380,-263,117,322,-248,-73,405,209,-219,-419,-463,-468
-409,-283,126,346,-268,-78,424,204,-253,-463,-507,-507
-444,-307,136,375,-290,-85,439,200,-287,-502,-546,-551
-478,-331,146,405,-312,-92,458,190,-326,-551,-595,-595
-512,-356,156,434,-334,-100,473,175,-366,-600,-644,-649
-541,-385,156,463,-348,-114,483,165,-405,-649,-702,-702
-575,-419,156,497,-366,-131,497,156,-444,-702,-751,-751
-610,-439,170,524,-390,-134,507,141,-488,-751,-810,-810
-649,-473,175,561,-412,-148,522,122,-527,-805,-863,-858
-678,-517,161,597,-419,-178,536,107,-575,-858,-917,-907
-707,-541,165,624,-436,-187,546,87,-619,-912,-971,-956
-736,-570,165,653,-451,-202,546,68,-663,-961,-1019,-1005
-756,-600,156,678,-456,-222,546,39,-702,-1010,-1068,-1054
-771,-614,156,692,-463,-229,541,14,-736,-1049,-1112,-1088
-790,-614,175,702,-483,-219,522,-4,-771,-1088,-1141,-1122
-795,-619,175,707,-485,-222,507,-29,-795,-1112,-1171,-1146
-800,-629,170,714,-485,-229,497,-53,-814,-1127,-1185,-1161
-800,-629,170,714,-485,-229,483,-68,-824,-1132,-1190,-1171
-790,-624,165,707,-478,-229,468,-78,-819,-1132,-1185,-1171
-775,-614,161,695,-468,-226,448,-82,-814,-1112,-1166,-1151
-746,-595,151,671,-448,-222,419,-92,-795,-1083,-1137,-1122
-717,-566,151,641,-434,-207,400,-92,-766,-1049,-1098,-1088
-683,-541,141,612,-412,-200,375,-92,-736,-1005,-1058,-1044
-644,-512,131,578,-387,-190,351,-92,-692,-951,-1000,-990
-600,-478,122,539,-361,-178,326,-78,-639,-873,-927,-912
-556,-439,117,497,-336,-161,297,-73,-580,-795,-854,-834
-507,-395,112,451,-309,-141,273,-58,-522,-722,-775,-766
-453,-361,92,407,-273,-134,253,-39,-463,-644,-688,-688
-405,-331,73,368,-239,-129,224,-19,-395,-561,-605,-600
-356,-297,58,326,-207,-119,209,-9,-326,-478,-527,-517
-307,-253,53,280,-180,-100,175,-4,-278,-414,-453,-453
-258,-219,39,239,-148,-90,151,4,-229,-341,-380,-385
-219,-190,29,204,-124,-80,136,19,-180,-278,-307,-312
-175,-156,19,165,-97,-68,117,24,-136,-219,-244,-248
-136,-122,14,129,-75,-53,97,29,-97,-175,-195,-204
-102,-92,9,97,-56,-41,78,39,-68,-122,-146,-156
-78,-68,9,73,-43,-29,53,43,-34,-78,-97,-102
-48,-48,0,48,-24,-24,39,43,0,-39,-53,-58
-29,-34,-4,31,-12,-19,24,43,24,-9,-14,-29
-9,-19,-9,14,0,-14,14,43,34,14,4,-4
9,-14,-24,2,17,-19,4,43,43,34,34,24
19,0,-19,-9,19,-9,-4,43,58,58,53,43
29,4,-24,-17,26,-9,-9,43,68,68,63,53
39,14,-24,-26,31,-4,-14,43,73,73,73,63
39,14,-24,-26,31,-4,-9,43,78,82,82,73
43,14,-29,-29,36,-7,-9,39,78,82,87,78
39,19,-19,-29,29,0,-4,39,78,87,87,78
39,19,-19,-29,29,0,0,39,73,87,87,78
39,24,-14,-31,26,4,0,39,73,87,92,82
34,24,-9,-29,21,7,-4,39,73,87,92,82
34,24,-9,-29,21,7,-4,34,73,82,87,82
29,19,-9,-24,19,4,0,34,78,78,82,68
34,19,-14,-26,24,2,0,34,68,78,73,68
29,14,-14,-21,21,0,-4,34,68,78,73,58
24,9,-14,-17,19,-2,0,34,58,73,68,53
19,4,-14,-12,17,-4,0,39,53,63,58,48
9,-4,-14,-2,12,-9,4,39,53,58,53,48
9,-9,-19,0,14,-14,14,39,48,53,48,43
4,-9,-14,2,9,-12,14,39,39,48,39,34
0,-19,-19,9,9,-19,14,39,34,39,29,24
-9,-24,-14,17,2,-19,14,39,29,24,24,14
-9,-29,-19,19,4,-24,19,39,19,14,14,9
-9,-29,-19,19,4,-24,19,34,19,9,14,9
-9,-29,-19,19,4,-24,24,34,14,4,4,0
-14,-34,-19,24,2,-26,24,29,4,0,0,-4
-24,-39,-14,31,-4,-26,24,24,0,-4,-4,-9
-29,-39,-9,34,-9,-24,29,24,-4,-14,-14,-19
-34,-43,-9,39,-12,-26,29,24,-9,-14,-24,-19
-34,-43,-9,39,-12,-26,34,24,-9,-14,-24,-19
-39,-43,-4,41,-17,-24,34,24,-9,-14,-29,-24
-39,-43,-4,41,-17,-24,29,24,-9,-19,-29,-24
-39,-48,-9,43,-14,-29,29,24,-9,-19,-29,-29
-39,-68,-29,53,-4,-48,34,29,-9,-19,-24,-29
-39,-82,-43,61,2,-63,34,34,-9,-19,-19,-29
-39,-63,-24,51,-7,-43,29,34,-9,-19,-19,-29
-34,-43,-9,39,-12,-26,24,34,-9,-19,-19,-24
-29,-43,-14,36,-7,-29,24,34,-9,-19,-19,-24
-24,-43,-19,34,-2,-31,24,29,-9,-14,-14,-24
-24,-48,-24,36,0,-36,29,29,-4,-14,-14,-19
-24,-53,-29,39,2,-41,29,29,-4,-9,-9,-19
-19,-63,-43,41,12,-53,29,34,4,-4,0,-9
-19,-73,-53,46,17,-63,29,34,9,4,4,-4
-14,-68,-53,41,19,-61,34,39,14,9,9,0
-9,-63,-53,36,21,-58,34,43,14,9,9,4
-9,-63,-53,36,21,-58,34,43,19,14,14,4
-9,-63,-53,36,21,-58,34,43,19,19,19,9
-9,-58,-48,34,19,-53,29,39,24,19,19,14
-14,-48,-34,31,9,-41,24,39,29,14,14,14
-14,-48,-34,31,9,-41,24,39,29,19,19,24
-9,-48,-39,29,14,-43,19,34,29,19,24,24
-9,-48,-39,29,14,-43,19,34,34,24,24,24
-4,-53,-48,29,21,-51,19,34,34,29,29,29
-4,-48,-43,26,19,-46,19,34,34,29,29,29
-4,-48,-43,26,19,-46,19,39,39,34,34,29
0,-43,-43,21,21,-43,19,39,43,39,39,34
0,-43,-43,21,21,-43,19,39,48,39,43,34
4,-48,-53,21,29,-51,14,34,43,43,48,39
4,-39,-43,17,24,-41,9,29,48,48,53,43
14,-24,-39,4,26,-31,19,43,48,58,53,43
14,-14,-29,0,21,-21,24,48,58,63,53,43
19,0,-19,-9,19,-9,34,53,58,73,58,53
29,9,-19,-19,24,-4,34,58,73,87,68,63
39,19,-19,-29,29,0,48,68,82,92,82,73
48,29,-19,-39,34,4,68,78,97,97,97,87
48,29,-19,-39,34,4,73,87,102,102,102,92
48,29,-19,-39,34,4,78,97,107,107,107,97
53,29,-24,-41,39,2,78,97,107,107,107,97
58,29,-29,-43,43,0,63,92,102,107,107,97
63,34,-29,-48,46,2,53,87,102,107,107,97
73,58,-14,-65,43,21,19,68,102,107,107,97
87,78,-9,-82,48,34,-19,48,97,107,112,102
97,87,-9,-92,53,39,-43,34,97,112,112,102
107,97,-9,-102,58,43,-48,24,97,117,117,112
112,102,-9,-107,61,46,-58,14,87,117,117,112
112,102,-9,-107,61,46,-63,9,87,112,117,112
112,102,-9,-107,61,46,-68,9,87,112,117,112
112,102,-9,-107,61,46,-68,0,82,107,117,107
112,97,-14,-104,63,41,-68,0,73,102,107,107
112,78,-34,-95,73,21,-63,9,73,102,107,107
117,53,-63,-85,90,-4,-58,9,73,102,107,102
117,39,-78,-78,97,-19,-58,9,73,102,102,102
102,34,-68,-68,85,-17,-48,19,73,102,102,102
73,34,-39,-53,56,-2,-24,29,73,92,102,97
48,34,-14,-41,31,9,-14,29,73,92,87,82
34,19,-14,-26,24,2,-4,29,73,82,87,78
29,-9,-39,-9,34,-24,-4,24,53,73,73,68
19,-39,-58,9,39,-48,-4,24,43,58,63,53
14,-58,-73,21,43,-65,-4,19,43,58,58,53
4,-58,-63,26,34,-61,-4,19,43,58,58,53
4,-58,-63,26,34,-61,0,24,43,58,58,53
4,-63,-68,29,36,-65,0,29,43,58,63,53
4,-63,-68,29,36,-65,4,29,43,58,63,53
4,-63,-68,29,36,-65,4,29,43,58,63,53
4,-63,-68,29,36,-65,4,29,48,58,63,53
4,-58,-63,26,34,-61,9,29,48,58,58,53
0,-58,-58,29,29,-58,9,34,48,58,58,53
0,-58,-58,29,29,-58,9,34,48,58,58,53
0,-58,-58,29,29,-58,14,39,48,58,58,53
0,-63,-63,31,31,-63,14,39,48,58,63,53
0,-68,-68,34,34,-68,14,39,48,58,63,53
0,-73,-73,36,36,-73,24,43,53,58,63,53
0,-78,-78,39,39,-78,29,43,53,58,63,53
-4,-156,-151,80,73,-153,53,68,73,78,82,73
-4,-234,-229,119,112,-231,78,92,92,97,102,92
-4,-214,-209,109,102,-212,73,97,92,97,102,92
-4,-195,-190,100,92,-192,63,97,92,97,102,97
4,-151,-156,73,80,-153,53,92,97,102,102,92
58,-73,-131,7,95,-102,24,112,146,156,161,141
175,4,-170,-90,173,-82,-29,146,273,312,317,292
331,156,-175,-244,253,-9,-146,112,434,527,541,512
488,370,-117,-429,302,126,-351,-68,556,746,766,741
619,600,-19,-610,319,290,-575,-297,629,936,980,951
839,946,107,-893,366,527,-936,-585,746,1190,1254,1234
1161,1327,165,-1244,497,746,-1317,-790,966,1566,1659,1634
1566,1727,161,-1647,702,944,-1727,-951,1210,1976,2117,2088
1961,2064,102,-2013,929,1083,-2147,-1054,1405,2352,2527,2508
2342,2342,0,-2342,1171,1171,-2557,-1161,1512,2654,2888,2874
2708,2503,-204,-2605,1456,1149,-2864,-1259,1556,2869,3172,3172
2913,2542,-370,-2727,1642,1085,-2976,-1317,1546,2942,3289,3318
2976,2288,-688,-2632,1832,800,-2835,-1180,1468,2835,3215,3274
2781,1903,-878,-2342,1830,512,-2586,-1083,1161,2415,2806,2903
2322,1698,-624,-2010,1473,536,-2254,-1102,722,1781,2142,2259
1610,1532,-78,-1571,844,727,-1766,-1073,322,1132,1410,1537
839,1249,409,-1044,214,829,-1273,-1049,-97,458,634,741
253,888,634,-570,-190,761,-868,-985,-424,-68,48,146
39,414,375,-226,-168,395,-507,-683,-473,-292,-204,-112
-78,48,126,14,-102,87,-161,-331,-317,-283,-234,-195
-136,-112,24,124,-80,-43,39,-92,-185,-214,-204,-185
-136,-131,4,134,-70,-63,73,-4,-126,-170,-175,-165
-136,-146,-9,141,-63,-78,97,19,-87,-141,-151,-156
-136,-141,-4,139,-65,-73,126,34,-78,-126,-136,-141
-141,-136,4,139,-73,-65,141,53,-73,-122,-126,-131
-141,-136,4,139,-73,-65,146,73,-63,-112,-117,-126
-141,-146,-4,143,-68,-75,156,87,-48,-102,-117,-126
-141,-156,-14,148,-63,-85,161,87,-39,-97,-107,-122
-141,-156,-14,148,-63,-85,170,87,-39,-97,-107,-117
-141,-151,-9,146,-65,-80,170,97,-34,-92,-102,-112
-141,-151,-9,146,-65,-80,170,102,-29,-87,-102,-112
-141,-151,-9,146,-65,-80,170,107,-29,-87,-102,-112
-141,-146,-4,143,-68,-75,175,112,-24,-87,-97,-112
-131,-146,-14,139,-58,-80,175,117,-24,-82,-97,-112
-126,-146,-19,136,-53,-82,180,122,-24,-82,-97,-107
-126,-146,-19,136,-53,-82,180,126,-19,-82,-92,-107
-126,-146,-19,136,-53,-82,180,126,-14,-82,-92,-107
-131,-146,-14,139,-58,-80,180,126,-14,-78,-92,-107
-136,-146,-9,141,-63,-78,180,122,-14,-78,-92,-107
-136,-146,-9,141,-63,-78,180,126,-9,-78,-92,-107
-136,-141,-4,139,-65,-73,180,126,-4,-78,-92,-102
-136,-141,-4,139,-65,-73,180,131,0,-78,-87,-102
-136,-141,-4,139,-65,-73,180,136,0,-73,-87,-102
-136,-146,-9,141,-63,-78,180,136,0,-73,-87,-102
-136,-146,-9,141,-63,-78,180,141,0,-73,-92,-102
-141,-146,-4,143,-68,-75,180,141,0,-68,-92,-102
-141,-146,-4,143,-68,-75,185,141,0,-68,-92,-107
-141,-151,-9,146,-65,-80,185,146,0,-68,-92,-107
-141,-151,-9,146,-65,-80,185,146,0,-68,-92,-107
-146,-151,-4,148,-70,-78,190,146,0,-78,-92,-107
-146,-151,-4,148,-70,-78,190,151,-4,-82,-97,-112
-146,-151,-4,148,-70,-78,190,151,-4,-82,-102,-117
-151,-156,-4,153,-73,-80,195,151,-4,-87,-102,-122
-151,-156,-4,153,-73,-80,195,156,-9,-92,-107,-126
-156,-161,-4,158,-75,-82,200,161,-9,-97,-117,-126
-165,-161,4,163,-85,-78,204,161,-9,-102,-122,-136
-165,-161,4,163,-85,-78,209,165,-9,-102,-122,-141
-161,-165,-4,163,-78,-85,214,170,-14,-102,-126,-146
-165,-165,0,165,-82,-82,219,175,-19,-112,-126,-151
-175,-175,0,175,-87,-87,229,180,-24,-112,-141,-161
-180,-175,4,178,-92,-85,239,185,-24,-122,-146,-165
-190,-175,14,183,-102,-80,248,190,-34,-131,-156,-170
-195,-180,14,187,-104,-82,253,195,-39,-141,-165,-175
-204,-185,19,195,-112,-82,273,200,-39,-151,-175,-190
-214,-195,19,204,-117,-87,287,209,-48,-161,-190,-200
-224,-195,29,209,-126,-82,297,214,-58,-170,-204,-219
-239,-204,34,222,-136,-85,312,224,-63,-190,-219,-234
-253,-214,39,234,-146,-87,326,234,-73,-204,-239,-248
-268,-219,48,244,-158,-85,336,234,-87,-224,-258,-273
-283,-229,53,256,-168,-87,356,239,-97,-248,-283,-292
-307,-239,68,273,-187,-85,375,244,-112,-273,-312,-322
-326,-253,73,290,-200,-90,390,244,-136,-302,-336,-351
-356,-273,82,314,-219,-95,405,244,-156,-331,-370,-380
-380,-283,97,331,-239,-92,419,244,-185,-370,-409,-419
-409,-302,107,356,-258,-97,444,244,-214,-405,-448,-458
-439,-326,112,383,-275,-107,458,239,-244,-439,-488,-497
-468,-351,117,409,-292,-117,478,229,-278,-483,-536,-536
-507,-370,136,439,-322,-117,492,214,-312,-531,-580,-585
-541,-395,146,468,-344,-124,502,204,-346,-580,-634,-634
-575,-429,146,502,-361,-141,517,195,-390,-634,-678,-683
-610,-448,161,529,-385,-143,527,180,-439,-683,-732,-741
-649,-468,180,558,-414,-143,536,156,-473,-736,-785,-790
-678,-497,180,588,-429,-158,546,136,-517,-790,-839,-839
-707,-522,185,614,-446,-168,556,117,-561,-839,-893,-888
-736,-551,185,644,-461,-183,556,97,-605,-883,-941,-936
-756,-580,175,668,-466,-202,556,68,-644,-932,-990,-985
-771,-595,175,683,-473,-209,551,43,-678,-971,-1034,-1019
-790,-610,180,700,-485,-214,536,29,-712,-1005,-1058,-1054
-795,-629,165,712,-480,-231,527,9,-736,-1024,-1083,-1078
-800,-639,161,719,-480,-239,517,-14,-756,-1044,-1098,-1093
-800,-639,161,719,-480,-239,502,-29,-766,-1054,-1102,-1102
-790,-634,156,712,-473,-239,483,-43,-766,-1054,-1102,-1102
-775,-624,151,700,-463,-236,458,-53,-766,-1034,-1088,-1083
-746,-610,136,678,-441,-236,429,-63,-746,-1005,-1058,-1054
-717,-585,131,651,-424,-226,409,-63,-717,-971,-1019,-1019
-683,-556,126,619,-405,-214,385,-63,-688,-932,-985,-980
-644,-522,122,583,-383,-200,361,-63,-644,-883,-932,-932
-600,-488,112,544,-356,-187,336,-48,-595,-819,-863,-863
-556,-448,107,502,-331,-170,307,-43,-541,-756,-795,-795
-507,-400,107,453,-307,-146,278,-39,-488,-683,-727,-732
-453,-361,92,407,-273,-134,253,-29,-434,-605,-649,-658
-405,-326,78,366,-241,-124,224,-9,-370,-527,-566,-575
-356,-287,68,322,-212,-109,209,0,-307,-448,-488,-497
-307,-244,63,275,-185,-90,175,4,-263,-390,-424,-434
-258,-209,48,234,-153,-80,151,14,-219,-322,-361,-366
-219,-180,39,200,-129,-70,136,29,-170,-258,-287,-292
-175,-146,29,161,-102,-58,117,34,-126,-200,-224,-229
-136,-117,19,126,-78,-48,97,39,-87,-156,-175,-190
-102,-92,9,97,-56,-41,78,48,-58,-102,-126,-146
-78,-73,4,75,-41,-34,58,53,-24,-58,-82,-92
-48,-58,-9,53,-19,-34,48,53,9,-19,-43,-48
-29,-43,-14,36,-7,-29,34,48,34,4,-4,-24
-9,-29,-19,19,4,-24,24,43,43,24,14,-4
9,-19,-29,4,19,-24,14,43,53,39,39,24
19,0,-19,-9,19,-9,4,43,68,58,53,43
29,9,-19,-19,24,-4,0,43,73,68,63,53
39,24,-14,-31,26,4,-4,43,73,73,73,63
39,24,-14,-31,26,4,-4,43,78,82,82,73
43,24,-19,-34,31,2,-9,39,78,82,87,78
43,24,-19,-34,31,2,-9,39,82,87,87,78
48,19,-29,-34,39,-4,-9,39,82,87,87,78
48,19,-29,-34,39,-4,-4,39,82,87,92,82
43,14,-29,-29,36,-7,-4,39,82,87,92,82
39,14,-24,-26,31,-4,-4,34,78,82,87,82
29,9,-19,-19,24,-4,0,34,78,78,82,68
29,14,-14,-21,21,0,4,34,68,73,73,68
19,14,-4,-17,12,4,4,34,68,68,73,58
14,9,-4,-12,9,2,9,29,53,63,68,53
9,4,-4,-7,7,0,9,29,43,53,58,48
0,4,4,-2,-2,4,9,29,43,48,53,48
0,9,9,-4,-4,9,14,29,39,43,48,43
0,9,9,-4,-4,9,14,29,34,39,39,34
0,0,0,0,0,0,14,29,34,29,29,24
-9,-9,0,9,-4,-4,14,29,29,19,24,14
-9,-19,-9,14,0,-14,19,29,19,14,14,9
-9,-19,-9,14,0,-14,19,24,19,9,14,9
-9,-19,-9,14,0,-14,24,24,14,4,4,0
-14,-24,-9,19,-2,-17,24,24,9,0,-4,-9
-24,-29,-4,26,-9,-17,24,24,9,-4,-14,-19
-24,-29,-4,26,-9,-17,29,24,4,-14,-19,-29
-24,-34,-9,29,-7,-21,29,24,0,-14,-24,-29
-24,-39,-14,31,-4,-26,34,24,0,-14,-19,-29
-29,-43,-14,36,-7,-29,34,24,0,-14,-19,-34
-29,-43,-14,36,-7,-29,29,24,0,-19,-19,-34
-29,-48,-19,39,-4,-34,29,24,0,-19,-19,-39
-29,-53,-24,41,-2,-39,34,24,0,-19,-19,-34
-29,-53,-24,41,-2,-39,34,24,0,-19,-19,-29
-29,-53,-24,41,-2,-39,34,24,0,-19,-19,-29
-24,-53,-29,39,2,-41,34,24,0,-19,-19,-24
-24,-53,-29,39,2,-41,34,29,0,-19,-19,-24
-24,-53,-29,39,2,-41,34,29,0,-14,-14,-24
-24,-58,-34,41,4,-46,34,29,4,-14,-14,-19
-24,-63,-39,43,7,-51,29,29,4,-9,-9,-19
-19,-63,-43,41,12,-53,29,34,9,-9,-4,-14
-19,-63,-43,41,12,-53,29,34,9,-4,-4,-14
-14,-58,-43,36,14,-51,29,34,14,0,0,-9
-9,-53,-43,31,17,-48,24,34,14,0,0,-4
-9,-58,-48,34,19,-53,24,34,19,4,4,-4
-9,-63,-53,36,21,-58,24,34,19,9,9,0
-4,-63,-58,34,26,-61,24,34,24,14,14,4
-4,-58,-53,31,24,-56,24,39,29,14,14,4
-4,-53,-48,29,21,-51,24,39,29,19,19,14
0,-48,-48,24,24,-48,19,34,29,19,24,14
0,-43,-43,21,21,-43,19,34,34,24,24,14
4,-43,-48,19,26,-46,19,34,34,29,29,19
4,-43,-48,19,26,-46,19,34,34,29,29,19
4,-48,-53,21,29,-51,19,39,39,34,34,19
9,-43,-53,17,31,-48,19,34,43,39,39,24
9,-43,-53,17,31,-48,19,29,48,39,43,24
14,-43,-58,14,36,-51,14,29,43,39,43,29
14,-29,-43,7,29,-36,9,29,48,39,43,34
19,-29,-48,4,34,-39,14,34,43,43,43,34
14,-34,-48,9,31,-41,14,29,48,43,43,34
14,-24,-39,4,26,-31,24,34,43,43,43,39
14,-24,-39,4,26,-31,24,39,43,39,43,34
19,-24,-43,2,31,-34,29,48,58,53,53,53
29,-19,-48,-4,39,-34,29,58,68,63,68,58
34,4,-29,-19,31,-12,43,63,78,78,73,63
39,34,-4,-36,21,14,58,68,92,92,82,73
48,29,-19,-39,34,4,68,78,97,92,92,78
58,29,-29,-43,43,0,78,87,107,97,107,87
58,34,-24,-46,41,4,82,97,107,102,107,87
58,39,-19,-48,39,9,87,107,107,107,107,87
63,39,-24,-51,43,7,78,102,107,107,107,92
73,48,-24,-61,48,12,53,87,102,107,107,92
82,63,-19,-73,51,21,29,78,102,107,107,97
97,82,-14,-90,56,34,-9,58,97,107,112,102
107,97,-9,-102,58,43,-34,43,97,112,112,102
117,107,-9,-112,63,48,-39,34,97,117,117,112
122,117,-4,-119,63,56,-53,24,87,117,117,112
122,122,0,-122,61,61,-63,19,87,112,117,112
122,122,0,-122,61,61,-68,19,87,112,117,112
122,117,-4,-119,63,56,-68,9,82,107,117,107
122,107,-14,-114,68,46,-68,9,73,97,107,107
122,87,-34,-104,78,26,-63,19,73,92,107,107
131,63,-68,-97,100,-2,-63,14,73,92,107,102
136,48,-87,-92,112,-19,-68,9,73,92,102,102
122,39,-82,-80,102,-21,-58,19,78,92,102,102
87,29,-58,-58,73,-14,-34,29,82,82,102,97
53,24,-29,-39,41,-2,-24,29,82,82,82,82
34,9,-24,-21,29,-7,-14,29,82,73,78,78
29,-19,-48,-4,39,-34,-14,24,58,63,63,68
24,-39,-63,7,43,-51,-14,24,43,48,53,53
19,-48,-68,14,43,-58,-9,19,43,48,48,48
4,-48,-53,21,29,-51,-4,19,43,48,48,43
4,-48,-53,21,29,-51,0,24,43,48,48,43
4,-53,-58,24,31,-56,0,29,43,48,53,43
4,-53,-58,24,31,-56,4,29,43,48,53,43
4,-53,-58,24,31,-56,4,29,43,48,53,43
4,-53,-58,24,31,-56,4,29,48,48,53,43
4,-53,-58,24,31,-56,9,29,48,48,48,43
-4,-63,-58,34,26,-61,9,34,48,48,48,43
-9,-68,-58,39,24,-63,9,34,48,48,48,43
-9,-68,-58,39,24,-63,14,39,48,48,48,43
-9,-68,-58,39,24,-63,14,39,48,48,53,43
-9,-63,-53,36,21,-58,14,39,48,48,53,43
-9,-58,-48,34,19,-53,19,43,53,48,53,43
-4,-58,-53,31,24,-56,19,39,53,48,53,43
-4,-58,-53,31,24,-56,19,34,53,48,53,43
-4,-58,-53,31,24,-56,19,34,53,48,48,39
-4,-58,-53,31,24,-56,24,39,53,48,43,34
-14,-63,-48,39,17,-56,29,39,39,34,34,29
-14,-68,-53,41,19,-61,34,43,39,39,34,29
14,-58,-73,21,43,-65,39,78,68,68,58,53
107,-9,-117,-48,112,-63,14,126,170,185,175,165
263,117,-146,-190,204,-14,-63,161,361,400,400,380
