I,II,III,aVR,aVL,aVF,V1,V2,V3,V4,V5,V6,
9,-78,-87,34,48,-82,-19,9,19,48,-19,-39
9,-78,-87,34,48,-82,-19,9,19,48,-19,-39
9,-78,-87,34,48,-82,-19,9,19,48,-19,-39
9,-78,-87,34,48,-82,-19,9,19,48,-19,-39
0,-78,-78,39,39,-78,-4,19,48,73,0,-29
-9,-78,-68,43,29,-73,9,19,78,97,19,-19
-19,-78,-58,48,19,-68,24,19,107,122,39,-9
-29,-78,-48,53,9,-63,39,19,136,146,58,0
-4,-19,-14,12,4,-17,48,19,253,292,146,58
9,39,29,-24,-9,34,48,19,370,429,234,117
24,97,73,-61,-24,85,48,19,488,566,322,175
39,156,117,-97,-39,136,48,19,605,702,409,234
122,326,204,-224,-41,265,58,29,946,1068,629,385
195,488,292,-341,-48,390,68,29,1288,1424,839,527
268,649,380,-458,-56,514,78,29,1629,1781,1049,668
341,810,468,-575,-63,639,87,29,1971,2137,1259,810
414,1049,634,-732,-109,841,24,-34,2215,2508,1512,1005
478,1288,810,-883,-165,1049,-29,-97,2459,2879,1756,1190
541,1527,985,-1034,-222,1256,-82,-161,2703,3250,2000,1376
605,1766,1161,-1185,-278,1464,-136,-224,2947,3620,2244,1561
561,1956,1395,-1259,-417,1676,-229,-366,2869,3811,2400,1722
517,2147,1629,-1332,-556,1888,-322,-507,2801,3991,2547,1873
473,2337,1864,-1405,-695,2100,-414,-649,2732,4172,2693,2025
429,2527,2098,-1478,-834,2313,-507,-790,2664,4352,2840,2176
375,2562,2186,-1468,-905,2374,-600,-873,2386,4206,2786,2196
322,2596,2274,-1459,-976,2435,-683,-956,2108,4069,2742,2205
268,2630,2361,-1449,-1046,2496,-766,-1039,1830,3933,2698,2215
214,2664,2449,-1439,-1117,2557,-849,-1122,1551,3796,2654,2225
175,2444,2269,-1310,-1046,2357,-883,-1054,1166,3220,2318,2015
136,2225,2088,-1180,-976,2156,-917,-985,790,2654,1991,1805
97,2005,1908,-1051,-905,1956,-951,-917,414,2088,1664,1595
58,1786,1727,-922,-834,1756,-985,-849,39,1522,1337,1385
43,1517,1473,-780,-714,1495,-907,-717,-165,1063,1019,1132
39,1259,1220,-649,-590,1239,-839,-595,-370,605,702,888
34,1000,966,-517,-466,983,-771,-473,-575,146,385,644
29,741,712,-385,-341,727,-702,-351,-780,-312,68,400
4,556,551,-280,-273,553,-566,-268,-707,-366,-19,258
-9,370,380,-180,-195,375,-439,-185,-644,-409,-107,126
-24,185,209,-80,-117,197,-312,-102,-580,-453,-195,-4
-39,0,39,19,-39,19,-185,-19,-517,-497,-283,-136
-43,-48,-4,46,-19,-26,-126,4,-444,-453,-268,-156
-48,-97,-48,73,0,-73,-78,19,-380,-419,-263,-165
-53,-146,-92,100,19,-119,-29,34,-317,-385,-258,-175
-58,-195,-136,126,39,-165,19,48,-253,-351,-253,-185
-68,-209,-141,139,36,-175,29,48,-234,-326,-248,-190
-68,-224,-156,146,43,-190,39,48,-214,-302,-244,-195
-68,-239,-170,153,51,-204,48,48,-195,-278,-239,-200
-68,-253,-185,161,58,-219,58,48,-175,-253,-234,-204
-68,-258,-190,163,61,-224,68,48,-165,-268,-224,-204
-68,-263,-195,165,63,-229,68,48,-165,-273,-224,-204
-68,-268,-200,168,65,-234,68,48,-165,-278,-224,-204
-68,-273,-204,170,68,-239,68,48,-165,-283,-224,-204
-68,-283,-214,175,73,-248,68,48,-151,-273,-224,-209
-68,-283,-214,175,73,-248,68,48,-146,-263,-224,-214
-68,-283,-214,175,73,-248,68,48,-141,-253,-224,-219
-68,-283,-214,175,73,-248,68,48,-136,-244,-224,-224
-78,-283,-204,180,63,-244,78,48,-146,-253,-214,-214
-78,-283,-204,180,63,-244,78,48,-146,-253,-214,-214
-78,-283,-204,180,63,-244,78,48,-146,-253,-214,-214
-78,-283,-204,180,63,-244,78,48,-146,-253,-214,-214
-78,-292,-214,185,68,-253,78,48,-136,-244,-224,-214
-78,-292,-214,185,68,-253,78,48,-136,-244,-224,-214
-78,-292,-214,185,68,-253,78,48,-136,-244,-224,-214
-78,-292,-214,185,68,-253,78,48,-136,-244,-224,-214
-78,-283,-204,180,63,-244,87,48,-146,-253,-214,-204
-78,-283,-204,180,63,-244,87,48,-146,-253,-214,-204
-78,-283,-204,180,63,-244,87,48,-146,-253,-214,-204
-78,-283,-204,180,63,-244,87,48,-146,-253,-214,-204
-87,-287,-200,187,56,-244,97,58,-141,-253,-214,-214
-87,-292,-204,190,58,-248,97,58,-136,-253,-214,-214
-87,-297,-209,192,61,-253,97,58,-131,-253,-214,-214
-87,-302,-214,195,63,-258,97,58,-126,-253,-214,-214
-78,-292,-214,185,68,-253,97,58,-131,-253,-214,-204
-78,-292,-214,185,68,-253,97,58,-136,-253,-214,-204
-78,-292,-214,185,68,-253,97,58,-141,-253,-214,-204
-78,-292,-214,185,68,-253,97,58,-146,-253,-214,-204
-87,-297,-209,192,61,-253,97,68,-136,-258,-219,-209
-87,-302,-214,195,63,-258,97,68,-136,-263,-224,-214
-87,-307,-219,197,65,-263,97,68,-136,-268,-229,-219
-87,-312,-224,200,68,-268,97,68,-136,-273,-234,-224
-87,-312,-224,200,68,-268,97,68,-146,-263,-224,-214
-87,-312,-224,200,68,-268,97,68,-146,-263,-224,-214
-87,-312,-224,200,68,-268,97,68,-146,-263,-224,-214
-87,-312,-224,200,68,-268,97,68,-146,-263,-224,-214
-87,-322,-234,204,73,-278,107,68,-146,-268,-234,-219
-87,-322,-234,204,73,-278,107,68,-146,-273,-234,-224
-87,-322,-234,204,73,-278,107,68,-146,-278,-234,-229
-87,-322,-234,204,73,-278,107,68,-146,-283,-234,-234
-97,-322,-224,209,63,-273,107,68,-156,-283,-224,-224
-97,-322,-224,209,63,-273,107,68,-156,-283,-224,-224
-97,-322,-224,209,63,-273,107,68,-156,-283,-224,-224
-97,-322,-224,209,63,-273,107,68,-156,-283,-224,-224
-97,-326,-229,212,65,-278,117,78,-156,-287,-229,-229
-97,-331,-234,214,68,-283,117,78,-156,-292,-234,-234
-97,-336,-239,217,70,-287,117,78,-156,-297,-239,-239
-97,-341,-244,219,73,-292,117,78,-156,-302,-244,-244
-97,-341,-244,219,73,-292,117,68,-165,-302,-244,-239
-97,-341,-244,219,73,-292,117,68,-165,-302,-244,-234
-97,-341,-244,219,73,-292,117,68,-165,-302,-244,-229
-97,-341,-244,219,73,-292,117,68,-165,-302,-244,-224
-107,-351,-244,229,68,-297,126,78,-175,-317,-248,-229
-107,-351,-244,229,68,-297,126,78,-175,-322,-253,-234
-107,-351,-244,229,68,-297,126,78,-175,-326,-258,-239
-107,-351,-244,229,68,-297,126,78,-175,-331,-263,-244
-117,-351,-234,234,58,-292,117,78,-185,-331,-253,-244
-117,-351,-234,234,58,-292,117,78,-185,-331,-253,-244
-117,-351,-234,234,58,-292,117,78,-185,-331,-253,-244
-117,-351,-234,234,58,-292,117,78,-185,-331,-253,-244
-126,-361,-234,244,53,-297,126,78,-190,-346,-258,-248
-126,-361,-234,244,53,-297,126,78,-195,-351,-263,-253
-126,-361,-234,244,53,-297,126,78,-200,-356,-268,-258
-126,-361,-234,244,53,-297,126,78,-204,-361,-273,-263
-126,-366,-239,246,56,-302,126,78,-219,-361,-263,-253
-126,-370,-244,248,58,-307,126,78,-224,-361,-263,-253
-126,-375,-248,251,61,-312,126,78,-229,-361,-263,-253
-126,-380,-253,253,63,-317,126,78,-234,-361,-263,-253
-131,-390,-258,261,63,-324,136,68,-239,-375,-278,-258
-136,-390,-253,263,58,-322,136,68,-244,-390,-283,-263
-141,-390,-248,265,53,-319,136,68,-248,-405,-287,-268
-146,-390,-244,268,48,-317,136,68,-253,-419,-292,-273
-156,-390,-234,273,39,-312,146,78,-268,-429,-292,-273
-156,-390,-234,273,39,-312,146,78,-273,-429,-292,-273
-156,-390,-234,273,39,-312,146,78,-278,-429,-292,-273
-156,-390,-234,273,39,-312,146,78,-283,-429,-292,-273
-165,-400,-234,283,34,-317,146,78,-292,-453,-312,-278
-165,-400,-234,283,34,-317,146,78,-302,-468,-322,-283
-165,-400,-234,283,34,-317,146,78,-312,-483,-331,-287
-165,-400,-234,283,34,-317,146,78,-322,-497,-341,-292
-175,-405,-229,290,26,-317,146,68,-341,-512,-341,-297
-175,-409,-234,292,29,-322,146,68,-351,-517,-341,-302
-175,-414,-239,295,31,-326,146,68,-361,-522,-341,-307
-175,-419,-244,297,34,-331,146,68,-370,-527,-341,-312
-180,-429,-248,305,34,-339,151,68,-385,-551,-361,-322
-185,-429,-244,307,29,-336,156,68,-400,-575,-370,-322
-190,-429,-239,309,24,-334,161,68,-414,-600,-380,-322
-195,-429,-234,312,19,-331,165,68,-429,-624,-390,-322
-204,-434,-229,319,12,-331,165,68,-444,-634,-395,-326
-204,-439,-234,322,14,-336,165,68,-458,-644,-400,-331
-204,-444,-239,324,17,-341,165,68,-473,-653,-405,-336
-204,-448,-244,326,19,-346,165,68,-488,-663,-409,-341
-209,-458,-248,334,19,-353,175,68,-512,-697,-429,-341
-214,-458,-244,336,14,-351,175,68,-527,-722,-439,-341
-219,-458,-239,339,9,-348,175,68,-541,-746,-448,-341
-224,-458,-234,341,4,-346,175,68,-556,-771,-458,-341
-234,-468,-234,351,0,-351,175,68,-575,-780,-463,-356
-234,-468,-234,351,0,-351,175,68,-585,-790,-468,-361
-234,-468,-234,351,0,-351,175,68,-595,-800,-473,-366
-234,-468,-234,351,0,-351,175,68,-605,-810,-478,-370
-234,-468,-234,351,0,-351,175,68,-624,-839,-483,-370
-234,-468,-234,351,0,-351,175,68,-634,-858,-488,-370
-234,-468,-234,351,0,-351,175,68,-644,-878,-492,-370
-234,-468,-234,351,0,-351,175,68,-653,-897,-497,-370
-229,-463,-234,346,2,-348,165,68,-658,-907,-512,-375
-224,-458,-234,341,4,-346,165,68,-663,-907,-517,-380
-219,-453,-234,336,7,-344,165,68,-668,-907,-522,-385
-214,-448,-234,331,9,-341,165,68,-673,-907,-527,-390
-200,-444,-244,322,21,-344,165,78,-673,-912,-517,-385
-195,-439,-244,317,24,-341,165,78,-673,-917,-517,-380
-190,-434,-244,312,26,-339,165,78,-673,-922,-517,-375
-185,-429,-244,307,29,-336,165,78,-673,-927,-517,-370
-170,-419,-248,295,39,-334,161,78,-653,-907,-512,-366
-165,-409,-244,287,39,-326,156,78,-644,-897,-507,-361
-161,-400,-239,280,39,-319,151,78,-634,-888,-502,-356
-156,-390,-234,273,39,-312,146,78,-624,-878,-497,-351
-146,-375,-229,261,41,-302,141,78,-600,-858,-483,-331
-136,-361,-224,248,43,-292,136,78,-585,-839,-468,-322
-126,-346,-219,236,46,-283,131,78,-570,-819,-453,-312
-117,-331,-214,224,48,-273,126,78,-556,-800,-439,-302
-107,-312,-204,209,48,-258,117,87,-522,-766,-419,-287
-97,-302,-204,200,53,-253,117,87,-497,-741,-409,-283
-87,-292,-204,190,58,-248,117,87,-473,-717,-400,-278
-78,-283,-204,180,63,-244,117,87,-448,-692,-390,-273
-58,-263,-204,161,73,-234,102,78,-419,-649,-370,-258
-48,-244,-195,146,73,-219,97,78,-390,-614,-351,-244
-39,-224,-185,131,73,-204,92,78,-361,-580,-331,-229
-29,-204,-175,117,73,-190,87,78,-331,-546,-312,-214
-14,-185,-170,100,78,-178,82,68,-292,-502,-287,-195
-9,-175,-165,92,78,-170,78,68,-263,-468,-273,-185
-4,-165,-161,85,78,-163,73,68,-234,-434,-258,-175
0,-156,-156,78,78,-156,68,68,-204,-400,-244,-165
14,-131,-146,58,80,-139,53,58,-170,-356,-219,-151
19,-117,-136,48,78,-126,48,58,-146,-322,-195,-136
24,-102,-126,39,75,-114,43,58,-122,-287,-170,-122
29,-87,-117,29,73,-102,39,58,-97,-253,-146,-107
39,-73,-112,17,75,-92,29,53,-73,-219,-136,-92
39,-68,-107,14,73,-87,29,48,-58,-195,-126,-87
39,-63,-102,12,70,-82,29,43,-43,-170,-117,-82
39,-58,-97,9,68,-78,29,39,-29,-146,-107,-78
43,-48,-92,2,68,-70,14,39,-9,-117,-92,-68
48,-39,-87,-4,68,-63,9,39,0,-97,-78,-58
53,-29,-82,-12,68,-56,4,39,9,-78,-63,-48
58,-19,-78,-19,68,-48,0,39,19,-58,-48,-39
58,-14,-73,-21,65,-43,0,29,34,-48,-43,-34
58,-9,-68,-24,63,-39,0,29,39,-39,-39,-29
58,-4,-63,-26,61,-34,0,29,43,-29,-34,-24
58,0,-58,-29,58,-29,0,29,48,-19,-29,-19
58,4,-53,-31,56,-24,-4,19,53,0,-14,-4
58,9,-48,-34,53,-19,-9,19,58,9,-9,0
58,14,-43,-36,51,-14,-14,19,63,19,-4,4
58,19,-39,-39,48,-9,-19,19,68,29,0,9
68,19,-48,-43,58,-14,-19,19,78,39,9,0
68,19,-48,-43,58,-14,-19,19,78,39,9,0
68,19,-48,-43,58,-14,-19,19,78,39,9,0
68,19,-48,-43,58,-14,-19,19,78,39,9,0
58,29,-29,-43,43,0,-29,9,87,43,19,9
58,29,-29,-43,43,0,-29,9,87,48,19,9
58,29,-29,-43,43,0,-29,9,87,53,19,9
58,29,-29,-43,43,0,-29,9,87,58,19,9
68,29,-39,-48,53,-4,-29,19,87,68,19,9
68,29,-39,-48,53,-4,-29,19,87,68,19,9
68,29,-39,-48,53,-4,-29,19,87,68,19,9
68,29,-39,-48,53,-4,-29,19,87,68,19,9
68,29,-39,-48,53,-4,-29,19,87,68,19,9
68,29,-39,-48,53,-4,-29,19,87,68,19,9
68,29,-39,-48,53,-4,-29,19,87,68,19,9
68,29,-39,-48,53,-4,-29,19,87,68,19,9
68,29,-39,-48,53,-4,-39,9,87,78,29,9
68,29,-39,-48,53,-4,-39,9,87,78,29,9
68,29,-39,-48,53,-4,-39,9,87,78,29,9
68,29,-39,-48,53,-4,-39,9,87,78,29,9
58,29,-29,-43,43,0,-39,9,78,68,29,9
58,29,-29,-43,43,0,-39,9,78,68,29,9
58,29,-29,-43,43,0,-39,9,78,68,29,9
58,29,-29,-43,43,0,-39,9,78,68,29,9
58,29,-29,-43,43,0,-39,9,78,78,29,9
58,29,-29,-43,43,0,-39,9,78,78,29,9
58,29,-29,-43,43,0,-39,9,78,78,29,9
58,29,-29,-43,43,0,-39,9,78,78,29,9
58,29,-29,-43,43,0,-39,9,78,68,29,9
58,29,-29,-43,43,0,-39,9,78,68,29,9
58,29,-29,-43,43,0,-39,9,78,68,29,9
58,29,-29,-43,43,0,-39,9,78,68,29,9
48,19,-29,-34,39,-4,-29,9,78,68,19,9
48,19,-29,-34,39,-4,-29,9,78,68,19,9
48,19,-29,-34,39,-4,-29,9,78,68,19,9
48,19,-29,-34,39,-4,-29,9,78,68,19,9
48,19,-29,-34,39,-4,-29,9,68,63,19,9
48,19,-29,-34,39,-4,-29,9,68,58,19,9
48,19,-29,-34,39,-4,-29,9,68,53,19,9
48,19,-29,-34,39,-4,-29,9,68,48,19,9
39,19,-19,-29,29,0,-29,0,58,48,9,9
39,19,-19,-29,29,0,-29,0,58,48,9,9
39,19,-19,-29,29,0,-29,0,58,48,9,9
39,19,-19,-29,29,0,-29,0,58,48,9,9
39,9,-29,-24,34,-9,-29,0,58,39,9,9
39,9,-29,-24,34,-9,-29,0,58,39,9,9
39,9,-29,-24,34,-9,-29,0,58,39,9,9
39,9,-29,-24,34,-9,-29,0,58,39,9,9
39,9,-29,-24,34,-9,-29,0,48,39,0,0
39,9,-29,-24,34,-9,-29,0,48,39,0,0
39,9,-29,-24,34,-9,-29,0,48,39,0,0
39,9,-29,-24,34,-9,-29,0,48,39,0,0
29,9,-19,-19,24,-4,-29,0,39,29,0,0
29,9,-19,-19,24,-4,-29,0,39,29,0,0
29,9,-19,-19,24,-4,-29,0,39,29,0,0
29,9,-19,-19,24,-4,-29,0,39,29,0,0
29,9,-19,-19,24,-4,-29,0,29,19,-9,-9
29,9,-19,-19,24,-4,-29,0,29,19,-9,-9
29,9,-19,-19,24,-4,-29,0,29,19,-9,-9
29,9,-19,-19,24,-4,-29,0,29,19,-9,-9
29,9,-19,-19,24,-4,-29,0,29,19,0,0
29,9,-19,-19,24,-4,-24,0,24,19,0,0
29,9,-19,-19,24,-4,-24,0,24,14,0,4
29,9,-19,-19,24,-4,-24,0,24,14,0,4
19,9,-9,-14,14,0,-14,0,24,24,0,4
19,14,-4,-17,12,4,-14,0,24,24,4,4
24,19,-4,-21,14,7,-4,0,34,29,4,9
24,24,0,-24,12,12,0,0,39,29,4,9
24,29,4,-26,9,17,4,4,39,39,14,19
24,34,9,-29,7,21,9,4,43,39,24,19
29,39,9,-34,9,24,14,4,48,39,24,24
34,43,9,-39,12,26,19,4,53,43,24,24
34,48,14,-41,9,31,29,4,63,39,24,24
34,53,19,-43,7,36,39,4,68,43,29,29
43,63,19,-53,12,41,43,4,73,48,34,34
43,68,24,-56,9,46,48,9,78,53,39,39
48,73,24,-61,12,48,53,9,82,68,48,43
48,78,29,-63,9,53,58,9,87,73,53,43
53,82,29,-68,12,56,58,9,92,73,53,43
53,87,34,-70,9,61,58,9,97,73,53,43
63,92,29,-78,17,61,58,9,107,78,53,43
63,92,29,-78,17,61,58,9,107,78,58,48
68,92,24,-80,21,58,48,9,107,82,58,48
68,97,29,-82,19,63,34,0,112,82,58,53
73,97,24,-85,24,61,24,9,102,82,58,43
73,102,29,-87,21,65,14,4,102,82,58,43
73,102,29,-87,21,65,4,0,92,78,53,43
78,102,24,-90,26,63,-14,-4,87,73,43,43
78,102,24,-90,26,63,-29,-19,82,68,43,39
78,102,24,-90,26,63,-43,-19,78,63,39,34
78,97,19,-87,29,58,-48,-19,63,58,34,34
82,97,14,-90,34,56,-58,-19,63,53,29,29
82,87,4,-85,39,46,-78,-19,48,48,24,29
82,82,0,-82,41,41,-78,-19,48,43,24,29
82,82,0,-82,41,41,-82,-19,39,39,19,24
82,78,-4,-80,43,36,-87,-19,34,34,19,24
82,87,4,-85,39,46,-92,-19,29,29,14,24
82,87,4,-85,39,46,-92,-19,24,24,14,19
82,87,4,-85,39,46,-92,-19,19,24,14,19
82,87,4,-85,39,46,-92,-19,19,29,14,19
87,87,0,-87,43,43,-92,-24,19,29,14,19
87,87,0,-87,43,43,-92,-24,19,29,19,19
87,92,4,-90,41,48,-92,-29,19,29,19,19
87,92,4,-90,41,48,-92,-29,19,29,19,19
87,97,9,-92,39,53,-82,-29,19,29,9,19
87,97,9,-92,39,53,-82,-29,19,29,9,19
87,97,9,-92,39,53,-78,-29,19,29,9,19
87,97,9,-92,39,53,-78,-29,19,39,9,19
87,97,9,-92,39,53,-87,-29,19,39,0,19
82,87,4,-85,39,46,-78,-29,19,39,4,19
78,82,4,-80,36,43,-73,-29,19,39,4,19
73,78,4,-75,34,41,-73,-29,19,39,4,19
58,73,14,-65,21,43,-68,-29,29,29,14,19
53,58,4,-56,24,31,-63,-24,29,29,4,9
48,48,0,-48,24,24,-58,-24,29,24,0,4
39,39,0,-39,19,19,-58,-19,29,24,0,4
43,29,-14,-36,29,7,-48,-19,19,34,4,9
39,19,-19,-29,29,0,-48,-19,19,34,0,4
34,9,-24,-21,29,-7,-43,-14,19,29,0,0
29,0,-29,-14,29,-14,-43,-14,19,24,-4,-4
19,-9,-29,-4,24,-19,-53,-14,14,24,4,-4
19,-9,-29,-4,24,-19,-48,-14,14,24,-4,-9
19,-14,-34,-2,26,-24,-48,-9,14,19,-4,-14
14,-19,-34,2,24,-26,-48,-4,9,19,-4,-19
14,-24,-39,4,26,-31,-48,-4,9,19,-14,-29
14,-29,-43,7,29,-36,-48,-4,4,19,-14,-29
14,-29,-43,7,29,-36,-48,-4,4,19,-19,-29
14,-29,-43,7,29,-36,-48,-4,4,19,-19,-29
14,-29,-43,7,29,-36,-48,-4,4,9,-29,-29
14,-34,-48,9,31,-41,-48,-4,0,9,-29,-29
14,-34,-48,9,31,-41,-48,0,0,9,-29,-29
14,-34,-48,9,31,-41,-48,0,0,9,-24,-29
24,-34,-58,4,41,-46,-48,0,9,19,-14,-29
24,-34,-58,4,41,-46,-48,0,14,24,-14,-29
24,-34,-58,4,41,-46,-48,0,14,24,-14,-29
24,-34,-58,4,41,-46,-48,0,14,24,-14,-29
19,-34,-53,7,36,-43,-48,0,14,29,-14,-19
9,-34,-43,12,26,-39,-48,0,9,19,-19,-29
9,-43,-53,17,31,-48,-39,0,9,19,-19,-19
14,-43,-58,14,36,-51,-39,4,9,19,-24,-29
14,-58,-73,21,43,-65,-24,24,9,9,-39,-39
14,-78,-92,31,53,-85,-9,39,24,19,-39,-48
9,-87,-97,39,53,-92,4,48,39,29,-24,-48
-24,-78,-53,51,14,-65,24,39,73,58,9,-24
-48,-53,-4,51,-21,-29,34,19,126,122,53,19
-48,-19,29,34,-39,4,48,0,204,209,112,63
-34,29,63,2,-48,46,58,9,302,307,180,107
4,87,82,-46,-39,85,58,29,429,458,263,156
68,185,117,-126,-24,151,58,43,614,673,390,248
141,322,180,-231,-19,251,58,63,883,956,546,356
219,478,258,-348,-19,368,92,87,1239,1307,751,488
307,678,370,-492,-31,524,131,87,1703,1742,995,653
395,907,512,-651,-58,710,141,78,2176,2186,1268,849
492,1156,663,-824,-85,910,102,34,2571,2620,1537,1049
570,1424,854,-997,-141,1139,24,-34,2830,2981,1786,1244
639,1664,1024,-1151,-192,1344,-63,-107,2942,3264,1991,1415
658,1869,1210,-1263,-275,1539,-141,-195,2957,3494,2152,1561
644,2049,1405,-1346,-380,1727,-229,-312,2918,3674,2308,1698
600,2239,1639,-1420,-519,1939,-322,-458,2903,3884,2469,1864
517,2444,1927,-1481,-705,2186,-419,-644,2845,4079,2620,2025
395,2620,2225,-1507,-915,2422,-527,-863,2693,4182,2742,2176
307,2742,2435,-1525,-1063,2588,-634,-1034,2469,4201,2791,2274
287,2801,2513,-1544,-1112,2657,-751,-1132,2200,4084,2752,2283
278,2742,2464,-1510,-1093,2603,-834,-1141,1893,3845,2620,2225
229,2620,2391,-1424,-1080,2505,-883,-1112,1507,3464,2444,2113
156,2444,2288,-1300,-1066,2366,-941,-1088,1063,2942,2200,1961
107,2200,2093,-1154,-993,2147,-985,-1024,634,2322,1844,1747
68,1927,1859,-997,-895,1893,-1029,-936,263,1659,1434,1468
48,1659,1610,-854,-780,1634,-1039,-810,-24,1132,1054,1205
48,1390,1342,-719,-646,1366,-995,-678,-248,629,741,956
48,1141,1093,-595,-522,1117,-917,-541,-473,151,395,727
43,883,839,-463,-397,861,-814,-414,-717,-253,117,473
34,644,610,-339,-287,627,-673,-297,-849,-551,-68,263
14,409,395,-212,-190,402,-512,-190,-805,-634,-214,102
-9,190,200,-90,-104,195,-361,-92,-663,-575,-283,-58
-34,34,68,0,-51,51,-239,-29,-517,-522,-287,-136
-48,-39,9,43,-29,-14,-146,9,-429,-434,-287,-156
-58,-82,-24,70,-17,-53,-92,24,-366,-380,-258,-161
-58,-131,-73,95,7,-102,-43,43,-307,-380,-244,-151
-58,-161,-102,109,21,-131,0,58,-258,-346,-263,-161
-58,-190,-131,124,36,-161,19,53,-219,-331,-248,-190
-63,-219,-156,141,46,-187,39,53,-180,-331,-248,-180
-73,-229,-156,151,41,-192,43,48,-170,-283,-258,-200
-73,-244,-170,158,48,-207,53,48,-165,-268,-214,-200
-73,-253,-180,163,53,-217,53,48,-165,-253,-214,-180
-73,-239,-165,156,46,-202,53,58,-165,-219,-204,-185
-63,-248,-185,156,61,-217,43,58,-165,-268,-170,-180
-68,-248,-180,158,56,-214,53,58,-165,-283,-224,-161
-78,-248,-170,163,46,-209,58,48,-161,-273,-234,-200
-73,-263,-190,168,58,-226,63,48,-151,-302,-234,-200
-82,-263,-180,173,48,-222,63,58,-141,-253,-258,-200
-73,-273,-200,173,63,-236,63,58,-136,-244,-219,-224
-73,-273,-200,173,63,-236,63,48,-136,-244,-200,-190
-73,-258,-185,165,56,-222,63,48,-136,-200,-209,-190
-73,-258,-185,165,56,-222,63,48,-141,-219,-180,-185
-73,-268,-195,170,61,-231,63,58,-141,-258,-209,-170
-78,-268,-190,173,56,-229,68,48,-141,-258,-234,-190
-78,-278,-200,178,61,-239,73,58,-141,-283,-224,-204
-78,-283,-204,180,63,-244,73,48,-131,-268,-248,-200
-78,-283,-204,180,63,-244,73,48,-126,-224,-224,-219
-78,-292,-214,185,68,-253,82,58,-117,-229,-190,-200
-78,-283,-204,180,63,-244,82,48,-126,-209,-200,-190
-78,-278,-200,178,61,-239,82,48,-136,-209,-185,-190
-78,-278,-200,178,61,-239,82,48,-141,-248,-185,-175
-78,-268,-190,173,56,-229,82,48,-141,-253,-214,-185
-78,-283,-204,180,63,-244,92,48,-141,-273,-214,-204
-78,-287,-209,183,65,-248,92,48,-131,-287,-224,-204
-82,-292,-209,187,63,-251,92,48,-122,-239,-234,-214
-82,-292,-209,187,63,-251,92,53,-122,-234,-200,-214
-82,-292,-209,187,63,-251,92,53,-122,-224,-200,-180
-82,-287,-204,185,61,-246,92,53,-131,-190,-195,-180
-82,-287,-204,185,61,-246,92,53,-136,-248,-170,-175
-82,-287,-204,185,61,-246,92,53,-136,-258,-214,-175
-87,-287,-200,187,56,-244,102,53,-136,-263,-214,-200
-87,-297,-209,192,61,-253,102,58,-126,-292,-214,-200
-87,-302,-214,195,63,-258,102,58,-126,-248,-253,-204
-87,-307,-219,197,65,-263,102,58,-126,-244,-214,-229
-87,-307,-219,197,65,-263,102,58,-117,-244,-204,-195
-87,-302,-214,195,63,-258,97,58,-126,-219,-204,-190
-87,-302,-214,195,63,-258,97,58,-131,-244,-185,-185
-87,-297,-209,192,61,-253,102,63,-136,-268,-204,-175
-97,-297,-200,197,51,-248,102,63,-146,-273,-224,-204
-97,-307,-209,202,56,-258,112,63,-136,-302,-224,-214
-97,-312,-214,204,58,-263,112,63,-136,-287,-248,-214
-97,-317,-219,207,61,-268,112,63,-131,-258,-234,-229
-97,-317,-219,207,61,-268,112,63,-131,-248,-209,-219
-97,-317,-219,207,61,-268,107,63,-136,-239,-209,-214
-97,-312,-214,204,58,-263,107,63,-146,-239,-200,-214
-97,-312,-214,204,58,-263,107,68,-151,-273,-200,-200
-97,-312,-214,204,58,-263,107,68,-151,-287,-234,-204
-102,-317,-214,209,56,-265,117,68,-151,-297,-234,-219
-102,-331,-229,217,63,-280,117,68,-151,-317,-244,-219
-107,-331,-224,219,58,-278,117,68,-146,-273,-253,-234
-107,-331,-224,219,58,-278,117,58,-146,-268,-214,-234
-107,-331,-224,219,58,-278,117,63,-146,-268,-214,-219
-107,-331,-224,219,58,-278,117,63,-161,-244,-214,-219
-107,-331,-224,219,58,-278,117,63,-170,-297,-200,-214
-107,-331,-224,219,58,-278,117,68,-170,-302,-234,-204
-107,-331,-224,219,58,-278,117,68,-170,-302,-244,-229
-107,-341,-234,224,63,-287,126,73,-170,-341,-244,-229
-112,-346,-234,229,61,-290,126,73,-165,-302,-268,-234
-112,-351,-239,231,63,-295,126,63,-165,-292,-244,-248
-112,-351,-239,231,63,-295,126,63,-165,-292,-239,-234
-112,-346,-234,229,61,-290,122,63,-185,-278,-239,-234
-112,-346,-234,229,61,-290,122,63,-195,-302,-219,-229
-112,-346,-234,229,61,-290,126,73,-209,-336,-248,-219
-117,-346,-229,231,56,-287,126,73,-209,-346,-263,-239
-122,-356,-234,239,56,-295,136,73,-209,-375,-263,-244
-122,-366,-244,244,61,-305,136,73,-209,-356,-287,-248
-131,-366,-234,248,51,-300,136,63,-200,-331,-273,-263
-131,-370,-239,251,53,-305,136,68,-214,-331,-263,-253
-131,-370,-239,251,53,-305,136,68,-219,-331,-263,-248
-131,-370,-239,251,53,-305,136,68,-229,-336,-258,-248
-131,-370,-239,251,53,-305,136,68,-248,-385,-258,-239
-141,-370,-229,256,43,-300,136,68,-258,-390,-287,-253
-141,-375,-234,258,46,-305,141,68,-258,-414,-287,-268
-141,-380,-239,261,48,-309,141,68,-258,-439,-297,-268
-146,-385,-239,265,46,-312,141,78,-263,-405,-302,-273
-146,-400,-253,273,53,-326,141,78,-268,-405,-283,-273
-151,-400,-248,275,48,-324,141,78,-273,-414,-283,-258
-151,-395,-244,273,46,-319,146,78,-287,-395,-283,-268
-151,-395,-244,273,46,-319,146,78,-302,-444,-273,-258
-161,-395,-234,278,36,-314,151,78,-312,-468,-312,-258
-165,-409,-244,287,39,-326,151,78,-326,-483,-326,-278
-170,-424,-253,297,41,-339,156,78,-331,-522,-331,-287
-175,-424,-248,300,36,-336,156,78,-331,-488,-351,-292
-175,-424,-248,300,36,-336,156,78,-346,-488,-326,-312
-175,-429,-253,302,39,-341,156,78,-356,-502,-326,-292
-180,-429,-248,305,34,-339,156,78,-375,-502,-336,-292
-185,-429,-244,307,29,-336,156,78,-380,-531,-326,-292
-190,-429,-239,309,24,-334,161,78,-395,-566,-351,-283
-190,-429,-239,309,24,-334,161,78,-419,-585,-370,-307
-195,-448,-253,322,29,-351,170,78,-424,-629,-375,-322
-209,-448,-239,329,14,-344,170,73,-419,-629,-409,-322
-209,-453,-244,331,17,-348,165,73,-434,-619,-409,-336
-209,-453,-244,331,17,-348,165,73,-453,-634,-400,-322
-219,-448,-229,334,4,-339,165,73,-473,-644,-409,-322
-219,-458,-239,339,9,-348,175,73,-502,-658,-400,-322
-219,-458,-239,339,9,-348,175,73,-522,-702,-409,-322
-224,-463,-239,344,7,-351,175,73,-536,-732,-448,-336
-224,-468,-244,346,9,-356,185,73,-551,-761,-453,-346
-229,-473,-244,351,7,-358,175,73,-556,-790,-468,-346
-229,-478,-248,353,9,-363,175,73,-566,-775,-483,-361
-229,-478,-248,353,9,-363,175,73,-580,-785,-468,-370
-229,-478,-248,353,9,-363,175,73,-590,-790,-468,-356
-229,-478,-248,353,9,-363,180,73,-614,-790,-473,-356
-229,-478,-248,353,9,-363,180,78,-629,-844,-473,-356
-229,-478,-248,353,9,-363,180,78,-644,-863,-502,-346
-224,-478,-253,351,14,-366,180,78,-649,-878,-507,-370
-224,-488,-263,356,19,-375,190,87,-649,-902,-512,-370
-224,-488,-263,356,19,-375,190,87,-649,-878,-536,-375
-214,-483,-268,348,26,-375,180,87,-649,-878,-512,-385
-209,-478,-268,344,29,-373,180,87,-649,-878,-512,-366
-195,-463,-268,329,36,-366,175,87,-668,-873,-512,-370
-190,-458,-268,324,39,-363,170,92,-668,-893,-497,-366
-185,-448,-263,317,39,-356,165,92,-663,-902,-507,-351
-180,-439,-258,309,39,-348,165,92,-658,-902,-507,-361
-180,-439,-258,309,39,-348,165,92,-644,-912,-497,-370
-175,-424,-248,300,36,-336,161,92,-624,-893,-512,-366
-161,-414,-253,287,46,-334,156,92,-610,-854,-488,-366
-151,-405,-253,278,51,-329,151,97,-595,-834,-468,-346
-131,-385,-253,258,61,-319,146,97,-590,-805,-473,-326
-122,-366,-244,244,61,-305,141,97,-575,-785,-444,-322
-112,-351,-239,231,63,-295,136,97,-551,-780,-434,-302
-102,-336,-234,219,65,-285,131,92,-531,-766,-434,-302
-102,-336,-234,219,65,-285,126,92,-517,-751,-424,-302
-92,-322,-229,207,68,-275,122,92,-483,-741,-409,-287
-82,-307,-224,195,70,-265,122,92,-453,-683,-409,-283
-73,-292,-219,183,73,-256,117,92,-424,-649,-370,-268
-53,-273,-219,163,82,-246,107,92,-395,-614,-351,-244
-43,-248,-204,146,80,-226,97,87,-370,-561,-326,-224
-29,-229,-200,129,85,-214,92,87,-341,-551,-297,-204
-19,-209,-190,114,85,-200,87,82,-312,-527,-297,-185
-14,-200,-185,107,85,-192,82,82,-283,-488,-292,-190
-4,-190,-185,97,90,-187,82,82,-244,-478,-268,-175
-4,-175,-170,90,82,-173,78,73,-204,-409,-268,-165
0,-161,-161,80,80,-161,73,68,-180,-366,-219,-161
19,-146,-165,63,92,-156,63,73,-151,-331,-185,-136
24,-122,-146,48,85,-134,48,68,-131,-283,-170,-117
29,-102,-131,36,80,-117,48,63,-112,-263,-136,-107
34,-92,-126,29,80,-109,43,63,-92,-248,-126,-82
43,-87,-131,21,87,-109,39,58,-68,-219,-126,-82
43,-82,-126,19,85,-104,34,53,-53,-209,-117,-78
48,-78,-126,14,87,-102,34,53,-29,-180,-117,-78
53,-68,-122,7,87,-95,29,53,-9,-136,-92,-78
58,-53,-112,-2,85,-82,14,43,9,-102,-63,-63
63,-39,-102,-12,82,-70,9,39,14,-73,-53,-53
63,-24,-87,-19,75,-56,4,34,14,-63,-29,-43
63,-19,-82,-21,73,-51,0,29,19,-63,-29,-29
63,-9,-73,-26,68,-41,0,39,34,-58,-34,-29
63,-9,-73,-26,68,-41,0,39,39,-53,-29,-29
63,-4,-68,-29,65,-36,0,39,48,-53,-34,-29
63,-4,-68,-29,65,-36,-9,34,58,-9,-39,-29
63,-4,-68,-29,65,-36,-14,34,58,9,-14,-19
63,4,-58,-34,61,-26,-19,29,63,24,-4,4
68,9,-58,-39,63,-24,-19,29,63,48,-4,4
68,14,-53,-41,61,-19,-19,29,63,29,19,9
68,19,-48,-43,58,-14,-19,19,63,19,0,14
68,19,-48,-43,58,-14,-19,19,63,19,0,-4
68,19,-48,-43,58,-14,-19,14,73,9,0,4
68,19,-48,-43,58,-14,-19,14,73,34,-14,4
58,19,-39,-39,48,-9,-24,19,82,53,14,-4
58,19,-39,-39,48,-9,-24,19,82,53,14,4
58,19,-39,-39,48,-9,-24,19,82,58,19,4
58,19,-39,-39,48,-9,-24,19,82,58,19,4
58,19,-39,-39,48,-9,-34,19,82,58,24,4
58,24,-34,-41,46,-4,-34,19,82,63,24,4
58,24,-34,-41,46,-4,-34,19,82,63,29,9
58,24,-34,-41,46,-4,-34,19,82,63,29,9
58,24,-34,-41,46,-4,-29,9,73,63,19,9
58,24,-34,-41,46,-4,-29,9,73,63,19,9
58,24,-34,-41,46,-4,-29,4,73,63,19,9
58,24,-34,-41,46,-4,-29,4,78,68,19,9
58,24,-34,-41,46,-4,-29,14,78,58,19,19
58,24,-34,-41,46,-4,-29,14,73,58,19,19
58,24,-34,-41,46,-4,-29,14,73,58,19,19
58,24,-34,-41,46,-4,-29,14,73,58,19,19
58,24,-34,-41,46,-4,-29,14,82,68,19,9
58,24,-34,-41,46,-4,-29,14,82,68,19,9
53,24,-29,-39,41,-2,-29,14,82,68,19,14
53,24,-29,-39,41,-2,-29,14,82,63,19,14
53,24,-29,-39,41,-2,-29,4,78,73,29,24
53,24,-29,-39,41,-2,-29,4,78,73,29,24
53,24,-29,-39,41,-2,-29,4,78,73,29,24
53,24,-29,-39,41,-2,-29,4,73,73,29,24
53,24,-29,-39,41,-2,-29,4,73,73,29,14
48,24,-24,-36,36,0,-29,4,73,68,29,14
48,24,-24,-36,36,0,-29,4,73,68,29,14
48,24,-24,-36,36,0,-29,4,73,68,24,9
48,24,-24,-36,36,0,-34,4,73,58,24,19
43,19,-24,-31,34,-2,-34,4,68,58,24,19
43,19,-24,-31,34,-2,-34,4,68,58,24,19
43,19,-24,-31,34,-2,-34,0,68,58,24,19
43,19,-24,-31,34,-2,-34,9,63,58,24,9
43,14,-29,-29,36,-7,-34,9,63,53,24,9
43,14,-29,-29,36,-7,-34,9,63,53,19,9
39,14,-24,-26,31,-4,-34,9,63,53,19,4
39,14,-24,-26,31,-4,-24,9,58,53,19,4
39,14,-24,-26,31,-4,-24,9,58,48,19,4
39,14,-24,-26,31,-4,-24,9,48,48,14,4
34,14,-19,-24,26,-2,-24,9,48,48,14,4
43,24,-19,-34,31,2,-24,0,48,48,14,4
39,19,-19,-29,29,0,-24,0,48,39,14,4
39,19,-19,-29,29,0,-24,0,48,34,14,4
39,19,-19,-29,29,0,-24,0,43,34,9,4
29,19,-9,-24,19,4,-24,0,43,43,9,4
24,14,-9,-19,17,2,-24,0,43,43,9,4
24,14,-9,-19,17,2,-24,0,39,43,4,0
24,14,-9,-19,17,2,-24,0,39,39,4,0
24,4,-19,-14,21,-7,-29,0,39,29,4,0
19,4,-14,-12,17,-4,-29,0,34,29,4,0
19,0,-19,-9,19,-9,-29,0,34,24,4,0
19,0,-19,-9,19,-9,-24,0,34,24,4,0
19,0,-19,-9,19,-9,-24,0,34,24,4,-4
19,0,-19,-9,19,-9,-24,0,34,24,4,-4
19,0,-19,-9,19,-9,-24,0,34,19,0,-4
19,0,-19,-9,19,-9,-19,0,29,19,0,0
19,0,-19,-9,19,-9,-19,0,19,19,0,-9
19,0,-19,-9,19,-9,-19,0,19,19,0,-9
19,0,-19,-9,19,-9,-19,0,19,19,0,-9
19,0,-19,-9,19,-9,-19,0,19,19,0,-9
19,0,-19,-9,19,-9,-19,0,19,19,0,-19
19,0,-19,-9,19,-9,-14,0,14,19,0,-19
19,0,-19,-9,19,-9,-14,0,14,14,0,-14
19,0,-19,-9,19,-9,-14,0,14,14,0,-14
19,9,-9,-14,14,0,-14,9,14,24,9,-4
19,14,-4,-17,12,4,-14,9,14,24,14,-4
24,19,-4,-21,14,7,-4,9,24,29,14,0
24,24,0,-24,12,12,0,9,29,29,14,0
34,29,-4,-31,19,12,14,14,29,39,14,9
34,34,0,-34,17,17,19,14,34,39,24,9
39,39,0,-39,19,19,24,14,39,39,24,14
43,43,0,-43,21,21,29,14,43,43,24,14
43,48,4,-46,19,26,29,14,53,48,34,24
43,53,9,-48,17,31,39,14,58,53,39,29
53,63,9,-58,21,36,43,14,63,58,43,34
53,68,14,-61,19,41,48,19,68,63,48,39
48,73,24,-61,12,48,53,19,73,68,48,43
48,78,29,-63,9,53,58,19,78,73,53,43
53,82,29,-68,12,56,58,19,82,73,53,43
53,87,34,-70,9,61,58,19,87,73,53,43
63,92,29,-78,17,61,58,9,87,78,53,43
63,92,29,-78,17,61,58,9,87,78,58,48
68,92,24,-80,21,58,48,9,87,82,58,48
68,97,29,-82,19,63,34,0,92,82,58,53
73,107,34,-90,19,70,24,9,92,78,58,43
73,112,39,-92,17,75,14,4,92,73,58,43
73,112,39,-92,17,75,4,0,82,63,53,43
78,112,34,-95,21,73,-14,-4,78,53,43,43
78,112,34,-95,21,73,-29,-19,73,48,43,39
78,112,34,-95,21,73,-43,-19,68,43,39,34
78,107,29,-92,24,68,-48,-19,53,39,34,34
82,107,24,-95,29,65,-58,-19,53,34,29,29
82,97,14,-90,34,56,-68,-19,39,29,24,29
82,92,9,-87,36,51,-68,-19,39,24,24,29
82,92,9,-87,36,51,-73,-19,29,19,19,24
82,87,4,-85,39,46,-78,-19,24,14,19,24
82,87,4,-85,39,46,-82,-19,19,24,14,24
82,87,4,-85,39,46,-82,-19,14,24,14,19
82,87,4,-85,39,46,-82,-19,9,29,14,19
82,87,4,-85,39,46,-82,-19,9,39,14,19
87,87,0,-87,43,43,-82,-24,9,39,14,19
87,87,0,-87,43,43,-82,-24,9,39,19,19
87,92,4,-90,41,48,-82,-29,9,39,19,19
87,92,4,-90,41,48,-82,-29,9,39,19,19
87,107,19,-97,34,63,-82,-29,19,48,29,29
87,107,19,-97,34,63,-82,-29,19,48,29,29
87,107,19,-97,34,63,-78,-29,19,48,29,29
87,107,19,-97,34,63,-78,-29,19,58,29,29
87,107,19,-97,34,63,-78,-29,19,48,19,29
82,97,14,-90,34,56,-68,-29,19,48,24,29
78,92,14,-85,31,53,-63,-29,19,48,24,29
73,87,14,-80,29,51,-63,-29,19,48,24,29
58,73,14,-65,21,43,-58,-29,19,39,34,29
53,58,4,-56,24,31,-53,-24,19,39,24,19
48,48,0,-48,24,24,-48,-24,19,34,19,14
39,39,0,-39,19,19,-48,-19,19,34,19,14
34,39,4,-36,14,21,-39,-19,9,34,4,9
29,29,0,-29,14,14,-39,-19,9,34,0,4
24,19,-4,-21,14,7,-34,-14,9,29,0,0
19,9,-9,-14,14,0,-34,-14,9,24,-4,-4
19,-9,-29,-4,24,-19,-43,-14,4,24,-4,-4
19,-9,-29,-4,24,-19,-39,-14,4,24,-14,-9
19,-14,-34,-2,26,-24,-39,-9,4,19,-14,-14
14,-19,-34,2,24,-26,-39,-4,0,19,-14,-19
14,-14,-29,0,21,-21,-39,-4,0,19,-14,-19
14,-19,-34,2,24,-26,-39,-4,-4,19,-14,-19
14,-19,-34,2,24,-26,-39,-4,-4,19,-19,-19
14,-19,-34,2,24,-26,-39,-4,-4,19,-19,-19
14,-19,-34,2,24,-26,-39,-4,-14,19,-9,-29
14,-24,-39,4,26,-31,-39,-4,-19,19,-9,-29
14,-24,-39,4,26,-31,-39,0,-19,19,-9,-29
14,-24,-39,4,26,-31,-39,0,-19,19,-4,-29
14,-24,-39,4,26,-31,-39,0,-9,19,-4,-19
14,-24,-39,4,26,-31,-39,0,-4,24,-4,-19
14,-24,-39,4,26,-31,-39,0,-4,24,-4,-19
14,-24,-39,4,26,-31,-39,0,-4,24,-4,-19
9,-24,-34,7,21,-29,-39,0,4,39,-14,-19
9,-24,-34,7,21,-29,-39,0,9,39,-9,-19
9,-34,-43,12,26,-39,-29,0,9,48,-9,-19
4,-34,-39,14,21,-36,-29,4,19,48,-14,-19
4,-48,-53,21,29,-51,-24,14,19,48,-19,-19
4,-48,-53,21,29,-51,0,29,43,58,0,-29
0,-58,-58,29,29,-58,14,39,68,87,14,-19
-24,-39,-14,31,-4,-26,24,29,122,136,48,14
-39,-4,34,21,-36,14,34,9,204,239,122,58
-48,39,87,4,-68,63,48,0,292,346,200,102
-34,87,122,-26,-78,104,48,0,409,492,297,165
4,165,161,-85,-78,163,48,9,556,673,409,234
68,273,204,-170,-68,239,48,24,761,917,546,326
141,419,278,-280,-68,348,48,34,1039,1229,732,453
219,566,346,-392,-63,456,73,48,1405,1600,946,595
297,766,468,-531,-85,617,102,58,1869,2054,1210,761
375,995,619,-685,-122,807,122,39,2342,2537,1503,976
463,1263,800,-863,-168,1032,82,-24,2737,2991,1771,1176
522,1522,1000,-1022,-239,1261,-4,-92,2986,3362,2030,1371
570,1761,1190,-1166,-309,1476,-92,-185,3079,3664,2235,1551
590,1956,1366,-1273,-387,1661,-170,-273,3054,3884,2396,1708
566,2137,1571,-1351,-502,1854,-248,-380,2986,4045,2552,1844
512,2318,1805,-1415,-646,2061,-341,-527,2923,4226,2703,2000
409,2513,2103,-1461,-846,2308,-439,-712,2806,4362,2845,2161
287,2669,2381,-1478,-1046,2525,-536,-912,2615,4416,2947,2303
200,2781,2581,-1490,-1190,2681,-634,-1073,2352,4377,2967,2381
161,2820,2659,-1490,-1249,2740,-732,-1151,2074,4230,2908,2391
151,2762,2610,-1456,-1229,2686,-795,-1151,1737,3933,2757,2322
122,2620,2498,-1371,-1188,2559,-844,-1112,1322,3503,2542,2191
58,2425,2366,-1241,-1154,2396,-893,-1058,858,2913,2259,2020
9,2171,2161,-1090,-1076,2166,-927,-995,409,2235,1873,1776
-19,1869,1888,-924,-954,1878,-961,-897,48,1542,1444,1488
-29,1590,1620,-780,-824,1605,-961,-771,-229,995,1044,1205
-29,1322,1351,-646,-690,1337,-927,-629,-434,463,702,936
-19,1054,1073,-517,-546,1063,-839,-492,-649,-14,346,697
-4,795,800,-395,-402,797,-736,-366,-873,-400,68,434
-14,546,561,-265,-287,553,-595,-258,-976,-697,-126,234
-24,331,356,-153,-190,344,-453,-151,-912,-751,-273,63
-29,122,151,-46,-90,136,-302,-63,-741,-683,-331,-97
-43,-43,0,43,-21,-21,-180,9,-585,-590,-336,-165
-48,-97,-48,73,0,-73,-117,29,-478,-492,-326,-185
-58,-131,-73,95,7,-102,-63,43,-395,-429,-297,-200
-58,-170,-112,114,26,-141,-24,63,-326,-400,-273,-180
-48,-190,-141,119,46,-165,19,68,-278,-366,-283,-190
-48,-209,-161,129,56,-185,39,73,-239,-351,-268,-209
-63,-239,-175,151,56,-207,58,63,-209,-361,-268,-200
-63,-248,-185,156,61,-217,53,58,-190,-302,-268,-219
-73,-253,-180,163,53,-217,63,58,-175,-287,-234,-219
-63,-253,-190,158,63,-222,63,58,-175,-273,-234,-200
-63,-248,-185,156,61,-217,53,58,-185,-229,-224,-204
-63,-248,-185,156,61,-217,53,58,-175,-278,-190,-200
-58,-248,-190,153,65,-219,63,48,-175,-283,-234,-180
-58,-258,-200,158,70,-229,68,48,-170,-283,-244,-219
-63,-273,-209,168,73,-241,73,48,-161,-312,-234,-209
-63,-273,-209,168,73,-241,73,48,-151,-263,-268,-209
-63,-273,-209,168,73,-241,73,48,-146,-253,-229,-234
-63,-273,-209,168,73,-241,73,48,-146,-244,-219,-190
-63,-258,-195,161,65,-226,63,48,-146,-209,-219,-190
-63,-258,-195,161,65,-226,73,48,-161,-239,-190,-195
-63,-258,-195,161,65,-226,73,48,-161,-268,-219,-170
-68,-258,-190,163,61,-224,78,48,-161,-268,-234,-190
-68,-268,-200,168,65,-234,82,48,-151,-302,-224,-204
-68,-273,-204,170,68,-239,82,48,-141,-278,-248,-200
-68,-263,-195,165,63,-229,82,48,-136,-253,-224,-219
-68,-273,-204,170,68,-239,82,58,-136,-248,-200,-200
-68,-273,-204,170,68,-239,82,58,-146,-239,-209,-200
-68,-268,-200,168,65,-234,82,58,-156,-239,-195,-200
-68,-268,-200,168,65,-234,82,58,-161,-278,-195,-185
-68,-258,-190,163,61,-224,82,58,-161,-283,-224,-195
-68,-283,-214,175,73,-248,92,58,-170,-302,-234,-214
-68,-287,-219,178,75,-253,92,58,-161,-317,-244,-214
-73,-292,-219,183,73,-256,92,58,-151,-268,-253,-224
-73,-292,-219,183,73,-256,92,63,-151,-263,-219,-224
-73,-292,-219,183,73,-256,82,63,-151,-263,-224,-209
-73,-287,-214,180,70,-251,82,63,-161,-229,-224,-209
-73,-287,-214,180,70,-251,82,63,-165,-287,-204,-204
-73,-287,-214,180,70,-251,82,63,-165,-297,-253,-204
-78,-287,-209,183,65,-248,92,53,-165,-292,-244,-229
-78,-297,-219,187,70,-258,92,58,-156,-322,-244,-229
-78,-302,-224,190,73,-263,92,58,-156,-278,-283,-234
-78,-307,-229,192,75,-268,92,58,-156,-273,-244,-258
-78,-307,-229,192,75,-268,102,58,-146,-273,-224,-214
-78,-302,-224,190,73,-263,97,58,-156,-248,-224,-209
-78,-302,-224,190,73,-263,97,58,-161,-273,-204,-204
-78,-297,-219,187,70,-258,102,63,-165,-297,-224,-195
-87,-287,-200,187,56,-244,102,63,-165,-302,-234,-214
-87,-297,-209,192,61,-253,112,63,-156,-331,-234,-224
-87,-302,-214,195,63,-258,112,63,-156,-317,-258,-224
-87,-307,-219,197,65,-263,112,63,-151,-287,-244,-239
-78,-317,-239,197,80,-278,112,63,-161,-297,-219,-219
-78,-317,-239,197,80,-278,107,63,-165,-287,-219,-214
-78,-312,-234,195,78,-273,107,63,-175,-287,-209,-214
-78,-312,-234,195,78,-273,107,68,-180,-322,-209,-200
-87,-312,-224,200,68,-268,107,68,-170,-317,-253,-224
-92,-317,-224,204,65,-270,117,68,-170,-326,-253,-239
-92,-331,-239,212,73,-285,117,68,-170,-346,-263,-239
-97,-331,-234,214,68,-283,117,68,-165,-302,-273,-253
-97,-331,-234,214,68,-283,107,58,-175,-307,-253,-253
-97,-331,-234,214,68,-283,107,63,-175,-307,-253,-239
-97,-331,-234,214,68,-283,107,63,-190,-283,-253,-239
-97,-331,-234,214,68,-283,107,63,-200,-336,-239,-234
-97,-331,-234,214,68,-283,117,58,-190,-341,-273,-224
-97,-331,-234,214,68,-283,117,58,-190,-341,-283,-248
-97,-341,-244,219,73,-292,126,63,-190,-380,-283,-248
-102,-346,-244,224,70,-295,126,63,-185,-341,-307,-253
-102,-351,-248,226,73,-300,126,63,-185,-341,-273,-268
-102,-351,-248,226,73,-300,126,63,-185,-341,-268,-253
-102,-346,-244,224,70,-295,122,63,-204,-326,-268,-253
-102,-346,-244,224,70,-295,122,63,-214,-351,-248,-248
-102,-356,-253,229,75,-305,126,73,-219,-375,-278,-239
-107,-356,-248,231,70,-302,126,73,-219,-385,-292,-258
-112,-366,-253,239,70,-309,136,73,-219,-414,-292,-263
-112,-375,-263,244,75,-319,136,73,-219,-395,-317,-268
-112,-375,-263,244,75,-319,126,73,-219,-380,-312,-283
-112,-380,-268,246,78,-324,126,78,-234,-380,-302,-273
-112,-380,-268,246,78,-324,126,78,-239,-380,-302,-268
-112,-380,-268,246,78,-324,126,78,-248,-385,-297,-268
-122,-370,-248,246,63,-309,126,78,-258,-434,-307,-258
-131,-370,-239,251,53,-305,126,78,-268,-439,-336,-273
-131,-375,-244,253,56,-309,131,78,-268,-463,-336,-287
-131,-380,-248,256,58,-314,131,78,-268,-488,-346,-287
-126,-395,-268,261,70,-331,131,78,-283,-463,-361,-302
-126,-409,-283,268,78,-346,131,78,-287,-463,-341,-302
-131,-409,-278,270,73,-344,131,78,-292,-473,-341,-287
-131,-405,-273,268,70,-339,136,78,-307,-453,-341,-297
-131,-395,-263,263,65,-329,136,87,-322,-522,-331,-297
-141,-395,-253,268,56,-324,141,87,-331,-546,-370,-297
-146,-409,-263,278,58,-336,141,87,-346,-561,-385,-317
-151,-424,-273,287,61,-348,146,87,-351,-600,-390,-326
-156,-434,-278,295,61,-356,146,87,-351,-575,-429,-331
-156,-434,-278,295,61,-356,146,87,-366,-575,-405,-351
-156,-439,-283,297,63,-361,146,87,-375,-590,-405,-331
-161,-439,-278,300,58,-358,146,87,-395,-590,-414,-331
-156,-439,-283,297,63,-361,146,78,-419,-639,-400,-331
-161,-439,-278,300,58,-358,151,78,-434,-673,-429,-322
-161,-439,-278,300,58,-358,151,78,-458,-692,-453,-346
-165,-458,-292,312,63,-375,161,78,-463,-736,-463,-361
-170,-458,-287,314,58,-373,161,82,-458,-741,-497,-370
-170,-463,-292,317,61,-378,156,82,-473,-736,-497,-385
-170,-463,-292,317,61,-378,156,82,-492,-756,-488,-370
-180,-458,-278,319,48,-368,156,82,-512,-771,-497,-370
-180,-468,-287,324,53,-378,156,82,-541,-805,-502,-375
-180,-468,-287,324,53,-378,156,82,-561,-849,-517,-380
-185,-473,-287,329,51,-380,156,82,-575,-878,-561,-400
-185,-478,-292,331,53,-385,165,82,-590,-907,-570,-414
-190,-492,-302,341,56,-397,165,82,-595,-956,-595,-414
-190,-497,-307,344,58,-402,165,82,-605,-941,-610,-429
-190,-497,-307,344,58,-402,165,82,-619,-951,-595,-439
-190,-497,-307,344,58,-402,165,82,-629,-956,-595,-424
-190,-488,-297,339,53,-392,161,82,-644,-946,-590,-424
-190,-488,-297,339,53,-392,161,87,-658,-1000,-590,-424
-190,-488,-297,339,53,-392,161,87,-673,-1019,-619,-414
-185,-488,-302,336,58,-395,161,87,-678,-1034,-624,-439
-185,-488,-302,336,58,-395,161,87,-678,-1068,-619,-439
-185,-488,-302,336,58,-395,161,87,-678,-1044,-644,-444
-175,-483,-307,329,65,-395,151,87,-678,-1044,-619,-453
-170,-478,-307,324,68,-392,151,87,-678,-1044,-619,-434
-165,-463,-297,314,65,-380,146,87,-697,-1029,-619,-439
-161,-458,-297,309,68,-378,141,92,-697,-1049,-605,-434
-156,-448,-292,302,68,-370,136,92,-692,-1058,-614,-419
-151,-439,-287,295,68,-363,136,92,-688,-1058,-614,-429
-151,-439,-287,295,68,-363,136,92,-673,-1058,-614,-429
-146,-424,-278,285,65,-351,131,92,-653,-1039,-629,-424
-131,-414,-283,273,75,-348,126,92,-639,-1000,-605,-424
-122,-405,-283,263,80,-344,122,97,-624,-980,-585,-405
-112,-375,-263,244,75,-319,117,87,-610,-946,-580,-385
-102,-356,-253,229,75,-305,112,87,-595,-922,-551,-380
-92,-341,-248,217,78,-295,107,87,-570,-912,-541,-361
-82,-326,-244,204,80,-285,102,82,-551,-893,-541,-361
-73,-317,-244,195,85,-280,87,82,-527,-873,-527,-351
-63,-302,-239,183,87,-270,82,82,-492,-858,-507,-336
-53,-287,-234,170,90,-261,82,82,-463,-795,-502,-331
-43,-273,-229,158,92,-251,78,82,-434,-756,-458,-317
-43,-244,-200,143,78,-222,78,73,-385,-707,-429,-283
-34,-219,-185,126,75,-202,68,68,-361,-649,-405,-263
-19,-200,-180,109,80,-190,63,68,-331,-634,-375,-244
-9,-180,-170,95,80,-175,58,63,-302,-605,-375,-224
-4,-170,-165,87,80,-168,53,73,-283,-551,-356,-219
4,-161,-165,78,85,-163,53,73,-244,-536,-326,-204
4,-146,-151,70,78,-148,48,63,-204,-463,-322,-195
9,-131,-141,61,75,-136,43,58,-180,-414,-268,-190
19,-126,-146,53,82,-136,34,53,-141,-366,-234,-156
24,-102,-126,39,75,-114,19,48,-122,-312,-219,-136
29,-82,-112,26,70,-97,19,43,-102,-287,-185,-126
34,-73,-107,19,70,-90,14,43,-82,-268,-175,-102
34,-58,-92,12,63,-75,9,39,-58,-234,-161,-92
34,-53,-87,9,61,-70,4,34,-43,-219,-146,-87
39,-48,-87,4,63,-68,4,34,-19,-185,-141,-87
43,-39,-82,-2,63,-61,0,34,0,-136,-112,-87
48,-34,-82,-7,65,-58,-14,34,19,-107,-82,-53
53,-19,-73,-17,63,-46,-19,29,24,-73,-73,-43
53,-4,-58,-24,56,-31,-24,24,24,-58,-48,-34
53,0,-53,-26,53,-26,-29,19,29,-53,-48,-19
53,9,-43,-31,48,-17,-19,19,43,-39,-48,-19
53,9,-43,-31,48,-17,-19,19,48,-34,-39,-19
53,14,-39,-34,46,-12,-19,19,58,-34,-39,-19
53,14,-39,-34,46,-12,-29,14,68,9,-39,-19
53,4,-48,-29,51,-21,-34,14,68,29,-14,-9
53,14,-39,-34,46,-12,-39,9,73,43,-4,14
58,19,-39,-39,48,-9,-39,9,73,68,-4,14
58,24,-34,-41,46,-4,-39,9,73,48,19,19
58,39,-19,-48,39,9,-39,9,63,48,0,34
58,39,-19,-48,39,9,-39,9,63,48,0,14
58,39,-19,-48,39,9,-39,4,73,39,0,24
58,39,-19,-48,39,9,-39,4,73,63,-14,24
48,39,-9,-43,29,14,-43,0,73,63,14,14
48,39,-9,-43,29,14,-43,0,73,63,14,24
48,39,-9,-43,29,14,-43,0,73,68,19,24
48,39,-9,-43,29,14,-43,0,73,68,19,24
48,39,-9,-43,29,14,-43,0,73,68,24,24
48,43,-4,-46,26,19,-43,0,73,73,24,24
48,43,-4,-46,26,19,-43,0,73,73,29,29
48,43,-4,-46,26,19,-43,0,73,73,29,29
48,43,-4,-46,26,19,-48,0,63,73,29,29
48,43,-4,-46,26,19,-48,0,63,73,29,29
48,43,-4,-46,26,19,-48,-4,63,73,29,29
48,43,-4,-46,26,19,-48,-4,68,78,29,29
48,43,-4,-46,26,19,-48,-4,68,87,39,29
48,43,-4,-46,26,19,-48,-4,63,87,39,29
48,43,-4,-46,26,19,-48,-4,63,87,39,29
48,43,-4,-46,26,19,-48,-4,63,87,39,29
48,43,-4,-46,26,19,-48,-14,63,78,29,29
48,43,-4,-46,26,19,-48,-14,63,78,29,29
43,43,0,-43,21,21,-48,-14,63,78,29,34
43,43,0,-43,21,21,-48,-14,63,73,29,34
43,43,0,-43,21,21,-48,-4,58,82,29,24
43,43,0,-43,21,21,-48,-4,58,82,29,24
43,43,0,-43,21,21,-48,-4,58,82,29,24
43,43,0,-43,21,21,-48,-4,53,82,29,24
43,34,-9,-39,26,12,-48,-4,53,73,29,34
39,34,-4,-36,21,14,-48,-4,53,68,29,34
39,34,-4,-36,21,14,-48,-4,53,68,29,34
39,34,-4,-36,21,14,-48,-4,53,68,24,29
39,34,-4,-36,21,14,-43,-4,53,68,24,29
34,29,-4,-31,19,12,-43,-4,48,68,24,29
34,29,-4,-31,19,12,-43,-4,48,68,24,29
34,29,-4,-31,19,12,-43,-9,48,68,24,29
34,29,-4,-31,19,12,-43,0,43,68,24,19
34,24,-9,-29,21,7,-43,0,43,63,24,19
34,24,-9,-29,21,7,-43,0,43,63,19,19
29,24,-4,-26,17,9,-43,0,43,63,19,14
29,24,-4,-26,17,9,-43,0,48,73,19,24
29,24,-4,-26,17,9,-43,0,48,68,19,24
29,24,-4,-26,17,9,-43,0,39,68,14,24
24,24,0,-24,12,12,-43,0,39,68,14,24
34,24,-9,-29,21,7,-43,-9,39,68,14,24
29,19,-9,-24,19,4,-43,-9,39,58,14,24
29,19,-9,-24,19,4,-43,-9,39,53,14,24
29,19,-9,-24,19,4,-43,-9,34,53,9,24
29,29,0,-29,14,14,-34,-9,24,43,9,24
24,24,0,-24,12,12,-34,-9,24,43,9,24
24,24,0,-24,12,12,-34,-9,19,43,4,19
24,24,0,-24,12,12,-34,-9,19,39,4,19
24,24,0,-24,12,12,-39,-9,19,39,14,19
19,14,-4,-17,12,4,-39,-9,14,29,4,19
19,19,0,-19,9,9,-29,-9,14,24,4,19
19,19,0,-19,9,9,-29,-9,19,29,0,9
9,9,0,-9,4,4,-29,-9,19,29,0,9
9,9,0,-9,4,4,-29,-9,19,29,0,9
9,9,0,-9,4,4,-29,-9,19,29,0,9
9,9,0,-9,4,4,-29,-9,19,29,0,9
9,9,0,-9,4,4,-39,0,19,29,0,9
9,9,0,-9,4,4,-34,0,14,29,0,9
9,9,0,-9,4,4,-34,0,14,24,0,14
9,9,0,-9,4,4,-34,0,14,24,0,14
9,9,0,-9,4,4,-24,0,14,24,0,4
9,14,4,-12,2,9,-24,0,14,24,4,4
14,19,4,-17,4,12,-14,0,24,29,4,9
14,24,9,-19,2,17,-9,0,29,29,4,9
24,29,4,-26,9,17,-4,4,29,39,4,9
24,34,9,-29,7,21,0,4,34,39,14,9
29,39,9,-34,9,24,4,4,39,39,14,14
34,43,9,-39,12,26,9,4,43,43,14,14
24,48,24,-36,0,36,9,4,53,48,14,14
24,53,29,-39,-2,41,19,4,58,53,19,19
34,63,29,-48,2,46,24,4,63,58,24,24
34,68,34,-51,0,51,29,9,68,63,29,29
39,73,34,-56,2,53,24,0,73,68,39,34
39,78,39,-58,0,58,29,0,78,73,43,34
43,82,39,-63,2,61,29,0,82,73,43,34
43,87,43,-65,0,65,29,0,87,73,43,34
43,92,48,-68,-2,70,29,-9,87,68,34,43
43,92,48,-68,-2,70,29,-9,87,68,39,48
48,92,43,-70,2,68,19,-9,87,73,39,48
48,97,48,-73,0,73,4,-19,92,73,39,53
53,97,43,-75,4,70,-4,-9,92,82,48,53
53,102,48,-78,2,75,-14,-14,92,82,48,53
53,102,48,-78,2,75,-24,-19,82,78,43,53
58,102,43,-80,7,73,-43,-24,78,73,34,53
58,112,53,-85,2,82,-48,-29,82,78,43,48
58,112,53,-85,2,82,-63,-29,78,73,39,43
58,107,48,-82,4,78,-68,-29,63,68,34,43
63,107,43,-85,9,75,-78,-29,63,63,29,39
63,107,43,-85,9,75,-87,-29,48,68,34,48
63,102,39,-82,12,70,-87,-29,48,63,34,48
63,102,39,-82,12,70,-92,-29,39,58,29,43
63,97,34,-80,14,65,-97,-29,34,53,29,43
63,107,43,-85,9,75,-92,-29,29,48,24,43
63,107,43,-85,9,75,-92,-29,24,43,24,39
63,107,43,-85,9,75,-92,-29,19,43,24,39
63,107,43,-85,9,75,-92,-29,19,48,24,39
68,107,39,-87,14,73,-92,-34,19,48,24,48
68,107,39,-87,14,73,-92,-34,19,48,29,48
68,112,43,-90,12,78,-92,-39,19,48,29,48
68,112,43,-90,12,78,-92,-39,19,48,29,48
68,117,48,-92,9,82,-82,-39,19,39,29,48
68,117,48,-92,9,82,-82,-39,19,39,29,48
68,117,48,-92,9,82,-78,-39,19,39,29,48
68,117,48,-92,9,82,-78,-39,19,48,29,48
68,117,48,-92,9,82,-87,-39,19,48,29,48
63,107,43,-85,9,75,-78,-39,19,48,34,48
58,102,43,-80,7,73,-73,-39,19,48,34,48
53,97,43,-75,4,70,-73,-39,19,48,34,48
48,82,34,-65,7,58,-58,-39,19,48,34,39
43,68,24,-56,9,46,-53,-34,19,48,24,29
39,58,19,-48,9,39,-48,-34,19,43,19,24
29,48,19,-39,4,34,-48,-29,19,43,19,24
34,48,14,-41,9,31,-48,-29,9,43,14,19
29,39,9,-34,9,24,-48,-29,9,43,9,14
24,29,4,-26,9,17,-43,-24,9,39,9,9
19,19,0,-19,9,9,-43,-24,9,34,4,4
9,9,0,-9,4,4,-43,-24,4,34,-4,4
9,9,0,-9,4,4,-39,-24,4,34,-14,0
9,4,-4,-7,7,0,-39,-19,4,29,-14,-4
4,0,-4,-2,4,-2,-39,-14,0,29,-14,-9
4,-14,-19,4,12,-17,-39,-14,0,29,-24,-9
4,-19,-24,7,14,-21,-39,-14,-4,29,-24,-9
4,-19,-24,7,14,-21,-39,-14,-4,29,-29,-9
4,-19,-24,7,14,-21,-39,-14,-4,29,-29,-9
4,-19,-24,7,14,-21,-48,-14,-4,29,-29,0
4,-24,-29,9,17,-26,-48,-14,-9,29,-29,0
4,-24,-29,9,17,-26,-48,-9,-9,29,-29,0
4,-24,-29,9,17,-26,-48,-9,-9,29,-24,0
4,-24,-29,9,17,-26,-39,-9,0,29,-24,-9
4,-24,-29,9,17,-26,-39,-9,4,34,-24,-9
4,-24,-29,9,17,-26,-39,-9,4,34,-24,-9
4,-24,-29,9,17,-26,-39,-9,4,34,-24,-9
9,-14,-24,2,17,-19,-48,-19,-4,39,-14,-9
0,-14,-14,7,7,-14,-48,-9,0,39,-9,0
0,-24,-24,12,12,-24,-39,-9,0,39,-9,-9
-4,-34,-29,19,12,-31,-39,-4,0,39,-14,-19
4,-48,-53,21,29,-51,-24,4,0,39,-19,-29
-4,-58,-53,31,24,-56,0,29,14,39,-19,-29
0,-68,-68,34,34,-68,4,29,29,58,4,-29
-34,-58,-24,46,-4,-41,14,19,73,107,39,4
-58,-24,34,41,-46,4,24,-9,126,180,102,48
-68,19,87,24,-78,53,29,-29,204,287,180,92
-53,68,122,-7,-87,95,29,-29,302,414,258,146
-14,126,141,-56,-78,134,19,-19,439,575,370,214
48,234,185,-141,-68,209,19,4,634,819,507,307
112,361,248,-236,-68,305,19,14,902,1132,692,434
190,517,326,-353,-68,422,34,29,1278,1522,927,575
268,707,439,-488,-85,573,73,29,1751,1986,1200,751
356,946,590,-651,-117,768,82,19,2235,2488,1503,966
444,1215,771,-829,-163,993,43,-34,2630,2952,1790,1176
522,1483,961,-1002,-219,1222,-34,-102,2888,3352,2059,1381
580,1722,1141,-1151,-280,1432,-112,-175,2991,3664,2283,1571
590,1927,1337,-1259,-373,1632,-200,-263,2996,3923,2464,1727
575,2108,1532,-1342,-478,1820,-278,-370,2947,4123,2640,1873
531,2308,1776,-1420,-622,2042,-361,-507,2903,4343,2810,2049
448,2532,2083,-1490,-817,2308,-458,-692,2825,4548,2991,2220
336,2698,2361,-1517,-1012,2530,-536,-893,2644,4631,3103,2381
248,2820,2571,-1534,-1161,2696,-624,-1054,2391,4621,3132,2479
219,2879,2659,-1549,-1220,2769,-712,-1132,2113,4474,3093,2488
200,2830,2630,-1515,-1215,2730,-775,-1141,1776,4206,2942,2430
161,2708,2547,-1434,-1193,2627,-814,-1102,1371,3777,2727,2318
97,2522,2425,-1310,-1163,2474,-863,-1058,907,3196,2444,2147
39,2259,2220,-1149,-1090,2239,-897,-995,458,2508,2049,1912
9,1966,1956,-988,-973,1961,-932,-907,78,1795,1600,1615
0,1678,1678,-839,-839,1678,-941,-780,-209,1200,1180,1322
0,1410,1410,-705,-705,1410,-907,-639,-424,658,829,1054
9,1132,1122,-570,-556,1127,-829,-492,-649,131,453,795
14,873,858,-444,-422,866,-727,-375,-873,-302,126,522
4,614,610,-309,-302,612,-595,-268,-1005,-629,-78,292
-14,380,395,-183,-204,387,-444,-151,-941,-722,-253,112
-29,161,190,-65,-109,175,-312,-63,-780,-673,-331,-58
-43,-14,29,29,-36,7,-200,9,-624,-610,-346,-146
-48,-78,-29,63,-9,-53,-126,29,-517,-522,-356,-175
-48,-122,-73,85,12,-97,-82,53,-444,-468,-326,-180
-48,-151,-102,100,26,-126,-34,63,-366,-448,-302,-170
-48,-180,-131,114,41,-156,9,78,-297,-405,-312,-180
-48,-209,-161,129,56,-185,39,73,-258,-380,-287,-200
-63,-239,-175,151,56,-207,48,73,-219,-390,-287,-200
-63,-239,-175,151,56,-207,63,68,-190,-322,-297,-219
-73,-253,-180,163,53,-217,63,68,-185,-297,-253,-219
-63,-253,-190,158,63,-222,63,68,-175,-283,-244,-190
-63,-248,-185,156,61,-217,63,68,-175,-239,-234,-195
-63,-248,-185,156,61,-217,63,68,-175,-287,-200,-190
-68,-248,-180,158,56,-214,63,58,-175,-302,-253,-170
-68,-258,-190,163,61,-224,68,58,-170,-292,-253,-200
-63,-273,-209,168,73,-241,73,68,-161,-322,-244,-200
-73,-273,-200,173,63,-236,82,58,-151,-273,-278,-200
-73,-273,-200,173,63,-236,73,58,-146,-263,-229,-234
-63,-273,-209,168,73,-241,73,58,-136,-263,-219,-190
-63,-268,-204,165,70,-236,73,58,-146,-229,-219,-190
-63,-268,-204,165,70,-236,73,58,-151,-248,-190,-185
-73,-268,-195,170,61,-231,73,58,-151,-268,-219,-170
-68,-268,-200,168,65,-234,87,58,-161,-278,-244,-190
-68,-278,-209,173,70,-244,92,58,-151,-312,-234,-204
-68,-283,-214,175,73,-248,82,58,-141,-287,-248,-200
-68,-283,-214,175,73,-248,82,58,-136,-253,-234,-219
-68,-292,-224,180,78,-258,92,68,-136,-258,-219,-200
-68,-283,-214,175,73,-248,82,58,-136,-239,-229,-200
-68,-278,-209,173,70,-244,82,58,-146,-239,-214,-200
-68,-278,-209,173,70,-244,82,58,-151,-278,-214,-185
-68,-268,-200,168,65,-234,82,58,-151,-283,-244,-195
-78,-292,-214,185,68,-253,92,58,-151,-292,-244,-214
-78,-297,-219,187,70,-258,92,58,-141,-307,-253,-214
-82,-302,-219,192,68,-261,92,58,-131,-258,-263,-224
-82,-302,-219,192,68,-261,92,63,-131,-253,-229,-224
-82,-302,-219,192,68,-261,92,63,-131,-253,-229,-200
-82,-297,-214,190,65,-256,92,63,-141,-219,-224,-200
-82,-297,-214,190,65,-256,92,63,-146,-278,-200,-195
-82,-297,-214,190,65,-256,92,63,-146,-287,-244,-195
-87,-297,-209,192,61,-253,112,63,-146,-292,-244,-219
-87,-307,-219,197,65,-263,112,68,-136,-322,-244,-219
-87,-312,-224,200,68,-268,112,68,-136,-278,-283,-224
-87,-317,-229,202,70,-273,112,68,-136,-273,-244,-248
-87,-317,-229,202,70,-273,112,58,-136,-273,-234,-214
-87,-312,-224,200,68,-268,107,58,-146,-248,-234,-209
-87,-312,-224,200,68,-268,107,58,-151,-273,-214,-204
-87,-307,-219,197,65,-263,112,63,-156,-297,-234,-195
-97,-307,-209,202,56,-258,102,63,-156,-302,-253,-214
-97,-317,-219,207,61,-268,112,63,-146,-331,-253,-224
-97,-322,-224,209,63,-273,112,63,-146,-317,-278,-224
-97,-326,-229,212,65,-278,112,63,-141,-287,-263,-239
-97,-326,-229,212,65,-278,112,63,-141,-287,-239,-229
-97,-326,-229,212,65,-278,107,63,-146,-278,-239,-224
-97,-322,-224,209,63,-273,107,63,-156,-278,-229,-224
-97,-322,-224,209,63,-273,107,68,-161,-312,-229,-209
-97,-322,-224,209,63,-273,107,78,-161,-317,-253,-214
-102,-326,-224,214,61,-275,117,78,-161,-326,-253,-229
-102,-341,-239,222,68,-290,117,78,-161,-346,-263,-229
-107,-341,-234,224,63,-287,117,78,-156,-302,-273,-244
-97,-341,-244,219,73,-292,117,68,-156,-297,-239,-244
-97,-341,-244,219,73,-292,117,73,-156,-297,-234,-229
-97,-341,-244,219,73,-292,117,73,-170,-273,-229,-229
-97,-341,-244,219,73,-292,117,73,-180,-326,-209,-224
-107,-341,-234,224,63,-287,117,78,-180,-331,-253,-214
-107,-341,-234,224,63,-287,117,78,-180,-331,-263,-239
-107,-351,-244,229,68,-297,126,82,-180,-370,-263,-239
-112,-356,-244,234,65,-300,126,82,-175,-331,-287,-244
-112,-361,-248,236,68,-305,126,73,-175,-322,-263,-258
-112,-361,-248,236,68,-305,126,73,-175,-322,-258,-244
-112,-356,-244,234,65,-300,122,73,-195,-307,-258,-244
-112,-356,-244,234,65,-300,122,73,-204,-331,-239,-239
-112,-356,-244,234,65,-300,126,73,-209,-356,-268,-229
-117,-356,-239,236,61,-297,126,73,-209,-366,-283,-248
-122,-366,-244,244,61,-305,136,73,-209,-395,-283,-253
-122,-375,-253,248,65,-314,136,73,-209,-375,-307,-258
-122,-366,-244,244,61,-305,126,73,-209,-361,-292,-273
-122,-370,-248,246,63,-309,126,78,-224,-361,-283,-263
-122,-370,-248,246,63,-309,126,78,-229,-361,-283,-258
-122,-370,-248,246,63,-309,126,78,-239,-366,-278,-258
-131,-370,-239,251,53,-305,136,78,-248,-405,-287,-248
-141,-370,-229,256,43,-300,136,78,-258,-409,-317,-263
-141,-375,-234,258,46,-305,141,78,-258,-434,-317,-278
-141,-380,-239,261,48,-309,141,78,-258,-458,-326,-278
-146,-385,-239,265,46,-312,141,78,-263,-424,-331,-292
-146,-400,-253,273,53,-326,141,78,-268,-424,-312,-292
-151,-400,-248,275,48,-324,141,78,-273,-434,-312,-278
-151,-395,-244,273,46,-319,146,78,-287,-414,-312,-287
-151,-395,-244,273,46,-319,136,78,-302,-463,-302,-278
-161,-395,-234,278,36,-314,141,78,-312,-488,-341,-278
-165,-409,-244,287,39,-326,141,78,-326,-502,-356,-297
-170,-424,-253,297,41,-339,146,78,-331,-541,-361,-307
-165,-424,-258,295,46,-341,146,68,-331,-527,-390,-302
-165,-424,-258,295,46,-341,146,68,-346,-527,-366,-322
-165,-429,-263,297,48,-346,146,68,-356,-541,-366,-302
-170,-429,-258,300,43,-344,146,68,-375,-541,-375,-302
-175,-429,-253,302,39,-341,146,68,-390,-570,-366,-302
-180,-429,-248,305,34,-339,151,68,-405,-605,-390,-292
-180,-429,-248,305,34,-339,151,68,-429,-624,-409,-317
-185,-448,-263,317,39,-356,161,68,-434,-668,-414,-331
-190,-448,-258,319,34,-353,161,63,-439,-678,-448,-341
-190,-453,-263,322,36,-358,156,63,-453,-668,-448,-356
-190,-453,-263,322,36,-358,156,63,-473,-683,-439,-341
-200,-448,-248,324,24,-348,156,63,-492,-692,-448,-341
-200,-439,-239,319,19,-339,156,63,-522,-707,-439,-331
-200,-439,-239,319,19,-339,156,63,-541,-751,-448,-331
-204,-444,-239,324,17,-341,156,63,-556,-780,-488,-346
-204,-448,-244,326,19,-346,165,63,-570,-810,-492,-356
-209,-463,-253,336,21,-358,156,63,-566,-849,-507,-366
-209,-468,-258,339,24,-363,156,63,-575,-834,-522,-380
-209,-468,-258,339,24,-363,156,63,-590,-844,-507,-390
-209,-468,-258,339,24,-363,156,63,-600,-849,-507,-375
-209,-458,-248,334,19,-353,161,63,-634,-839,-512,-375
-209,-458,-248,334,19,-353,161,68,-649,-893,-512,-375
-209,-458,-248,334,19,-353,161,68,-663,-912,-541,-366
-204,-458,-253,331,24,-356,161,68,-668,-927,-546,-390
-204,-468,-263,336,29,-366,161,68,-668,-961,-551,-380
-204,-468,-263,336,29,-366,161,68,-668,-936,-575,-385
-195,-463,-268,329,36,-366,151,68,-668,-936,-551,-395
-190,-458,-268,324,39,-363,151,68,-668,-936,-551,-375
-185,-444,-258,314,36,-351,146,58,-688,-922,-551,-380
-180,-439,-258,309,39,-348,141,63,-688,-941,-536,-375
-175,-429,-253,302,39,-341,136,63,-683,-951,-546,-361
-170,-419,-248,295,39,-334,136,63,-678,-951,-546,-370
-170,-419,-248,295,39,-334,136,63,-663,-961,-546,-370
-165,-405,-239,285,36,-322,131,63,-644,-941,-561,-366
-151,-395,-244,273,46,-319,126,63,-629,-902,-536,-366
-141,-385,-244,263,51,-314,122,68,-614,-883,-517,-346
-131,-366,-234,248,51,-300,117,68,-610,-858,-512,-326
-122,-346,-224,234,51,-285,112,68,-595,-834,-483,-322
-112,-331,-219,222,53,-275,107,68,-570,-824,-473,-302
-102,-317,-214,209,56,-265,102,63,-551,-805,-473,-302
-92,-317,-224,204,65,-270,97,63,-527,-780,-458,-312
-82,-302,-219,192,68,-261,92,63,-492,-771,-439,-297
-73,-287,-214,180,70,-251,92,63,-463,-712,-434,-292
-63,-273,-209,168,73,-241,87,63,-434,-678,-390,-278
-53,-263,-209,158,78,-236,87,73,-395,-624,-370,-253
-43,-239,-195,141,75,-217,78,68,-370,-570,-346,-234
-29,-219,-190,124,80,-204,73,68,-341,-561,-317,-214
-19,-200,-180,109,80,-190,68,63,-312,-536,-317,-195
-4,-190,-185,97,90,-187,63,63,-273,-502,-292,-200
4,-180,-185,87,95,-183,63,63,-234,-488,-268,-185
4,-165,-170,80,87,-168,58,53,-195,-414,-268,-175
9,-151,-161,70,85,-156,53,48,-170,-366,-219,-170
19,-146,-165,63,92,-156,43,53,-141,-322,-200,-146
24,-122,-146,48,85,-134,29,48,-122,-273,-190,-126
29,-102,-131,36,80,-117,29,43,-102,-253,-161,-117
34,-92,-126,29,80,-109,24,43,-82,-239,-156,-92
34,-87,-122,26,78,-104,29,39,-68,-209,-146,-92
34,-82,-117,24,75,-100,24,34,-53,-200,-136,-87
39,-78,-117,19,78,-97,24,34,-29,-170,-136,-87
43,-68,-112,12,78,-90,19,34,-9,-126,-112,-87
48,-63,-112,7,80,-87,14,34,9,-102,-82,-63
53,-48,-102,-2,78,-75,9,29,14,-73,-73,-53
53,-34,-87,-9,70,-61,4,24,14,-63,-48,-43
53,-29,-82,-12,68,-56,0,19,19,-63,-48,-29
53,-29,-82,-12,68,-56,0,29,24,-58,-58,-39
53,-29,-82,-12,68,-56,0,29,29,-53,-48,-39
53,-24,-78,-14,65,-51,0,29,39,-53,-48,-39
53,-24,-78,-14,65,-51,-9,24,48,-9,-48,-39
63,-24,-87,-19,75,-56,-14,24,58,9,-14,-29
63,-14,-78,-24,70,-46,-19,19,63,24,-4,-4
68,-9,-78,-29,73,-43,-19,19,63,48,-4,-4
68,-4,-73,-31,70,-39,-19,19,63,29,19,0
58,9,-48,-34,53,-19,-19,19,63,29,0,14
58,9,-48,-34,53,-19,-19,19,63,29,0,-4
58,9,-48,-34,53,-19,-19,14,73,19,0,4
58,9,-48,-34,53,-19,-19,14,73,43,-14,4
58,9,-48,-34,53,-19,-24,9,82,53,4,-4
58,9,-48,-34,53,-19,-24,9,82,53,4,4
58,9,-48,-34,53,-19,-24,9,82,58,9,4
58,9,-48,-34,53,-19,-24,9,82,58,9,4
58,9,-48,-34,53,-19,-24,9,82,68,14,4
58,14,-43,-36,51,-14,-24,9,82,73,14,4
58,14,-43,-36,51,-14,-24,9,82,73,19,9
58,14,-43,-36,51,-14,-24,9,82,73,19,9
58,14,-43,-36,51,-14,-29,9,82,63,19,9
58,14,-43,-36,51,-14,-29,9,82,63,19,9
58,14,-43,-36,51,-14,-29,4,82,63,19,9
58,14,-43,-36,51,-14,-29,4,87,68,19,9
58,14,-43,-36,51,-14,-29,14,87,78,9,0
58,14,-43,-36,51,-14,-29,14,82,78,9,0
58,14,-43,-36,51,-14,-29,14,82,78,9,0
58,14,-43,-36,51,-14,-29,14,82,78,9,0
58,14,-43,-36,51,-14,-29,4,82,68,9,0
58,14,-43,-36,51,-14,-29,4,82,68,9,0
53,14,-39,-34,46,-12,-29,4,82,68,9,4
53,14,-39,-34,46,-12,-29,4,82,63,9,4
63,14,-48,-39,56,-17,-29,4,78,63,0,4
63,14,-48,-39,56,-17,-29,4,78,63,0,4
63,14,-48,-39,56,-17,-29,4,78,63,0,4
63,14,-48,-39,56,-17,-29,4,73,63,0,4
63,14,-48,-39,56,-17,-29,4,63,63,9,4
58,14,-43,-36,51,-14,-29,4,63,58,9,4
58,14,-43,-36,51,-14,-29,4,63,58,9,4
58,14,-43,-36,51,-14,-29,4,63,58,4,0
58,4,-53,-31,56,-24,-24,4,63,58,4,0
53,0,-53,-26,53,-26,-24,4,58,58,4,0
53,0,-53,-26,53,-26,-24,4,58,58,4,0
53,0,-53,-26,53,-26,-24,0,58,58,4,0
53,9,-43,-31,48,-17,-24,0,63,58,14,0
53,4,-48,-29,51,-21,-24,0,63,53,14,0
53,4,-48,-29,51,-21,-24,0,63,53,9,0
48,4,-43,-26,46,-19,-24,0,63,53,9,-4
48,4,-43,-26,46,-19,-24,0,58,53,9,-14
48,4,-43,-26,46,-19,-24,0,58,48,9,-14
48,4,-43,-26,46,-19,-24,0,48,48,4,-14
43,4,-39,-24,41,-17,-24,0,48,48,4,-14
43,4,-39,-24,41,-17,-24,0,48,48,14,-9
39,0,-39,-19,39,-19,-24,0,48,39,14,-4
39,0,-39,-19,39,-19,-24,0,48,34,14,0
39,0,-39,-19,39,-19,-24,0,43,34,9,4
39,0,-39,-19,39,-19,-24,0,43,34,9,4
34,-4,-39,-14,36,-21,-24,0,43,34,9,4
34,-4,-39,-14,36,-21,-24,0,39,34,4,0
34,-4,-39,-14,36,-21,-24,0,39,29,4,0
24,-4,-29,-9,26,-17,-19,0,39,39,14,0
29,-4,-34,-12,31,-19,-19,0,34,29,4,0
29,0,-29,-14,29,-14,-19,0,34,24,4,0
29,0,-29,-14,29,-14,-24,0,34,24,-4,0
29,0,-29,-14,29,-14,-19,0,29,19,0,0
19,0,-19,-9,19,-9,-19,0,29,19,-4,-9
19,0,-19,-9,19,-9,-19,0,29,19,-9,-9
19,0,-19,-9,19,-9,-19,0,29,19,-14,-9
19,0,-19,-9,19,-9,-19,0,29,19,-19,-9
19,-9,-29,-4,24,-19,-29,0,29,19,-19,-19
19,-9,-29,-4,24,-19,-24,0,24,19,-19,-19
19,-9,-29,-4,24,-19,-24,0,24,14,-19,-14
19,-9,-29,-4,24,-19,-24,0,24,14,-19,-14
29,0,-29,-14,29,-14,-14,0,24,14,-14,-14
29,4,-24,-17,26,-9,-14,0,24,14,-4,-14
34,9,-24,-21,29,-7,-4,0,34,19,0,-9
34,14,-19,-24,26,-2,0,0,39,19,4,-9
34,19,-14,-26,24,2,4,4,39,29,4,9
34,24,-9,-29,21,7,9,4,43,29,14,9
39,29,-9,-34,24,9,14,4,48,29,14,14
43,34,-9,-39,26,12,19,4,53,34,14,14
43,39,-4,-41,24,17,29,4,63,39,24,14
43,43,0,-43,21,21,39,4,68,43,29,19
53,53,0,-53,26,26,43,4,73,48,34,24
53,58,4,-56,24,31,48,9,78,53,39,29
58,73,14,-65,21,43,53,9,92,68,48,34
58,78,19,-68,19,48,58,9,97,73,53,34
63,82,19,-73,21,51,58,9,102,73,53,34
63,87,24,-75,19,56,58,9,107,73,53,34
63,82,19,-73,21,51,58,0,107,78,53,43
63,82,19,-73,21,51,58,0,107,78,58,48
68,82,14,-75,26,48,48,0,107,82,58,48
68,87,19,-78,24,53,34,-9,112,82,58,53
73,87,14,-80,29,51,24,0,102,82,58,43
73,92,19,-82,26,56,14,-4,102,82,58,43
73,92,19,-82,26,56,4,-9,92,78,53,43
78,92,14,-85,31,53,-14,-14,87,73,43,43
78,92,14,-85,31,53,-29,-19,82,68,43,39
78,92,14,-85,31,53,-43,-19,78,63,39,34
78,87,9,-82,34,48,-48,-19,63,58,34,34
82,87,4,-85,39,46,-58,-19,63,53,29,29
82,87,4,-85,39,46,-68,-19,39,48,24,29
82,82,0,-82,41,41,-68,-19,39,43,24,29
82,82,0,-82,41,41,-73,-19,29,39,19,24
82,78,-4,-80,43,36,-78,-19,24,34,19,24
82,78,-4,-80,43,36,-82,-19,19,29,14,24
82,78,-4,-80,43,36,-82,-19,14,24,14,19
82,78,-4,-80,43,36,-82,-19,9,24,14,19
82,78,-4,-80,43,36,-82,-19,9,29,14,19
87,78,-9,-82,48,34,-82,-24,9,29,14,19
87,78,-9,-82,48,34,-82,-24,9,29,19,19
87,82,-4,-85,46,39,-82,-29,9,29,19,19
87,82,-4,-85,46,39,-82,-29,9,29,19,19
87,87,0,-87,43,43,-73,-39,19,29,19,29
87,87,0,-87,43,43,-73,-39,19,29,19,29
87,87,0,-87,43,43,-68,-39,19,29,19,29
87,87,0,-87,43,43,-68,-39,19,39,19,29
78,87,9,-82,34,48,-78,-29,19,39,19,29
73,78,4,-75,34,41,-68,-29,19,39,24,29
68,73,4,-70,31,39,-63,-29,19,39,24,29
63,68,4,-65,29,36,-63,-29,19,39,24,29
58,63,4,-61,26,34,-58,-29,19,39,24,29
53,48,-4,-51,29,21,-53,-24,19,39,14,19
48,39,-9,-43,29,14,-48,-24,19,34,9,14
39,29,-9,-34,24,9,-48,-19,19,34,9,14
34,19,-14,-26,24,2,-48,-19,9,34,14,9
29,9,-19,-19,24,-4,-48,-19,9,34,9,4
24,0,-24,-12,24,-12,-43,-14,9,29,9,0
19,-9,-29,-4,24,-19,-43,-14,9,24,4,-4
19,-19,-39,0,29,-29,-43,-14,4,14,-4,-14
19,-19,-39,0,29,-29,-39,-14,4,14,-14,-19
19,-24,-43,2,31,-34,-39,-9,4,9,-14,-24
14,-29,-43,7,29,-36,-39,-4,0,9,-14,-29
14,-34,-48,9,31,-41,-39,-4,0,9,-14,-29
14,-39,-53,12,34,-46,-39,-4,-4,9,-14,-29
14,-39,-53,12,34,-46,-39,-4,-4,9,-19,-29
14,-39,-53,12,34,-46,-39,-4,-4,9,-19,-29
14,-39,-53,12,34,-46,-39,-4,-4,9,-29,-29
14,-43,-58,14,36,-51,-39,-4,-9,9,-29,-29
14,-43,-58,14,36,-51,-39,0,-9,9,-29,-29
14,-43,-58,14,36,-51,-39,0,-9,9,-24,-29
14,-43,-58,14,36,-51,-39,0,0,19,-24,-29
14,-43,-58,14,36,-51,-39,0,4,24,-24,-29
14,-43,-58,14,36,-51,-39,0,4,24,-24,-29
14,-43,-58,14,36,-51,-39,0,4,24,-24,-29
19,-43,-63,12,41,-53,-29,0,4,29,-14,-29
9,-43,-53,17,31,-48,-29,0,0,19,-9,-19
9,-53,-63,21,36,-58,-39,0,9,29,-19,-29
4,-53,-58,24,31,-56,-29,4,9,19,-14,-29
14,-68,-82,26,48,-75,-14,24,0,9,-29,-39
4,-78,-82,36,43,-80,0,39,14,19,-29,-39
0,-87,-87,43,43,-87,14,48,39,29,-14,-39
-24,-78,-53,51,14,-65,34,39,92,87,29,-14
-39,-43,-4,41,-17,-24,43,19,156,161,82,29
-48,0,48,24,-48,24,58,9,244,258,151,82
-24,58,82,-17,-53,70,68,9,351,385,229,126
14,126,112,-70,-48,119,68,19,497,536,322,195
87,244,156,-165,-34,200,58,34,692,761,458,287
161,380,219,-270,-29,300,68,53,951,1054,634,405
239,536,297,-387,-29,417,92,68,1317,1415,839,546
326,727,400,-527,-36,563,122,68,1771,1849,1093,712
414,976,561,-695,-73,768,122,58,2244,2313,1366,917
502,1244,741,-873,-119,993,82,4,2630,2747,1644,1127
570,1503,932,-1037,-180,1217,4,-73,2869,3108,1883,1312
639,1742,1102,-1190,-231,1422,-92,-156,2962,3391,2088,1493
658,1937,1278,-1298,-309,1607,-170,-253,2947,3601,2239,1639
644,2108,1464,-1376,-409,1786,-258,-351,2888,3762,2386,1766
590,2298,1708,-1444,-558,2003,-351,-497,2835,3952,2537,1932
488,2493,2005,-1490,-758,2249,-458,-702,2757,4128,2688,2093
375,2649,2274,-1512,-949,2461,-566,-902,2576,4201,2791,2225
287,2762,2474,-1525,-1093,2618,-683,-1073,2342,4201,2810,2303
258,2801,2542,-1529,-1141,2671,-780,-1161,2083,4074,2762,2303
248,2752,2503,-1500,-1127,2627,-863,-1161,1766,3816,2620,2235
209,2610,2400,-1410,-1095,2505,-912,-1132,1371,3425,2425,2113
136,2425,2288,-1281,-1076,2357,-961,-1088,936,2884,2171,1942
87,2171,2083,-1129,-997,2127,-995,-1015,507,2235,1805,1727
58,1888,1830,-973,-885,1859,-1039,-917,156,1571,1395,1439
39,1600,1561,-819,-761,1581,-1039,-800,-122,1044,1015,1176
39,1332,1293,-685,-627,1312,-985,-658,-326,541,702,927
39,1083,1044,-561,-502,1063,-907,-522,-541,73,366,688
34,834,800,-434,-383,817,-795,-395,-766,-312,87,444
14,585,570,-300,-278,578,-644,-278,-888,-600,-87,244
-4,370,375,-183,-190,373,-473,-170,-814,-663,-234,82
-29,151,180,-61,-104,165,-322,-73,-663,-595,-283,-78
-43,-4,39,24,-41,17,-190,-19,-507,-522,-287,-146
-58,-78,-19,68,-19,-48,-117,19,-419,-434,-287,-165
-58,-112,-53,85,-2,-82,-63,34,-356,-380,-248,-170
-68,-151,-82,109,7,-117,-14,43,-297,-370,-234,-161
-68,-180,-112,124,21,-146,19,48,-258,-336,-253,-180
-68,-209,-141,139,36,-175,39,53,-229,-322,-239,-190
-73,-229,-156,151,41,-192,48,53,-200,-331,-248,-190
-82,-239,-156,161,36,-197,53,48,-180,-283,-258,-209
-82,-244,-161,163,39,-202,53,48,-175,-268,-224,-219
-82,-253,-170,168,43,-212,53,48,-175,-263,-214,-190
-73,-248,-175,161,51,-212,53,48,-185,-219,-214,-195
-73,-248,-175,161,51,-212,53,48,-185,-268,-180,-190
-68,-239,-170,153,51,-204,63,48,-175,-283,-234,-180
-68,-258,-190,163,61,-224,68,48,-180,-283,-244,-200
-73,-273,-200,173,63,-236,73,48,-161,-312,-234,-200
-73,-273,-200,173,63,-236,73,48,-151,-273,-268,-200
-73,-273,-200,173,63,-236,63,48,-146,-253,-219,-234
-73,-273,-200,173,63,-236,73,48,-146,-253,-200,-200
-73,-268,-195,170,61,-231,73,48,-146,-219,-200,-190
-73,-278,-204,175,65,-241,63,48,-151,-239,-180,-195
-73,-278,-204,175,65,-241,73,48,-151,-268,-200,-170
-78,-268,-190,173,56,-229,68,48,-151,-268,-234,-190
-78,-287,-209,183,65,-248,73,48,-151,-302,-224,-204
-78,-283,-204,180,63,-244,82,58,-141,-278,-248,-200
-78,-283,-204,180,63,-244,82,58,-136,-234,-224,-229
-78,-292,-214,185,68,-253,82,58,-136,-239,-190,-200
-78,-283,-204,180,63,-244,73,58,-136,-219,-200,-190
-78,-278,-200,178,61,-239,73,58,-146,-219,-185,-190
-78,-278,-200,178,61,-239,73,58,-151,-258,-185,-175
-78,-268,-190,173,56,-229,73,58,-151,-263,-214,-185
-78,-283,-204,180,63,-244,92,58,-151,-273,-224,-204
-78,-287,-209,183,65,-248,92,58,-141,-287,-234,-204
-82,-292,-209,187,63,-251,92,58,-131,-239,-244,-214
-82,-292,-209,187,63,-251,92,63,-131,-234,-209,-214
-92,-292,-200,192,53,-246,92,53,-131,-234,-209,-190
-92,-287,-195,190,51,-241,92,53,-141,-200,-204,-190
-92,-287,-195,190,51,-241,92,53,-146,-258,-180,-185
-92,-287,-195,190,51,-241,92,53,-146,-268,-224,-185
-97,-287,-190,192,46,-239,102,63,-146,-273,-224,-209
-97,-297,-200,197,51,-248,102,68,-136,-302,-224,-209
-97,-302,-204,200,53,-253,102,68,-136,-258,-263,-214
-97,-307,-209,202,56,-258,102,68,-136,-253,-224,-239
-97,-307,-209,202,56,-258,102,68,-136,-253,-204,-204
-97,-302,-204,200,53,-253,97,68,-146,-229,-204,-200
-97,-302,-204,200,53,-253,97,68,-151,-253,-185,-195
-97,-297,-200,197,51,-248,102,73,-156,-278,-204,-185
-97,-297,-200,197,51,-248,102,73,-156,-273,-234,-214
-97,-307,-209,202,56,-258,112,73,-146,-302,-234,-224
-97,-312,-214,204,58,-263,112,73,-146,-287,-258,-224
-97,-317,-219,207,61,-268,112,73,-141,-258,-244,-239
-97,-317,-219,207,61,-268,112,73,-141,-258,-209,-219
-97,-317,-219,207,61,-268,107,73,-146,-248,-209,-214
-97,-312,-214,204,58,-263,107,73,-156,-248,-200,-214
-97,-312,-214,204,58,-263,107,78,-161,-283,-200,-200
-97,-312,-214,204,58,-263,107,78,-161,-287,-234,-214
-102,-317,-214,209,56,-265,117,78,-161,-297,-234,-229
-102,-331,-229,217,63,-280,117,78,-161,-317,-244,-229
-107,-331,-224,219,58,-278,117,78,-156,-273,-253,-244
-107,-331,-224,219,58,-278,117,78,-156,-278,-214,-244
-107,-331,-224,219,58,-278,117,82,-156,-278,-214,-229
-107,-331,-224,219,58,-278,117,82,-170,-253,-214,-229
-107,-331,-224,219,58,-278,117,82,-180,-307,-200,-224
-117,-331,-214,224,48,-273,117,78,-180,-312,-244,-214
-117,-331,-214,224,48,-273,117,78,-180,-312,-253,-239
-117,-341,-224,229,53,-283,126,82,-180,-351,-253,-239
-122,-346,-224,234,51,-285,126,82,-175,-312,-278,-244
-122,-351,-229,236,53,-290,126,73,-175,-302,-244,-248
-122,-351,-229,236,53,-290,126,73,-175,-302,-239,-234
-122,-346,-224,234,51,-285,122,73,-195,-287,-239,-234
-122,-346,-224,234,51,-285,122,73,-204,-312,-219,-229
-122,-346,-224,234,51,-285,126,73,-209,-336,-258,-219
-126,-346,-219,236,46,-283,126,73,-209,-346,-273,-239
-131,-356,-224,244,46,-290,136,73,-209,-375,-273,-244
-131,-366,-234,248,51,-300,136,73,-209,-356,-297,-248
-141,-366,-224,253,41,-295,136,73,-200,-331,-273,-263
-141,-370,-229,256,43,-300,136,78,-214,-331,-263,-253
-141,-370,-229,256,43,-300,136,78,-219,-331,-263,-248
-141,-370,-229,256,43,-300,136,78,-229,-336,-258,-248
-141,-361,-219,251,39,-290,136,78,-239,-375,-258,-239
-151,-361,-209,256,29,-285,136,78,-248,-380,-287,-253
-151,-366,-214,258,31,-290,141,78,-248,-405,-287,-268
-151,-370,-219,261,34,-295,141,78,-248,-429,-297,-268
-156,-375,-219,265,31,-297,151,78,-253,-395,-302,-283
-156,-390,-234,273,39,-312,151,78,-258,-395,-283,-283
-161,-390,-229,275,34,-309,151,78,-263,-405,-283,-268
-161,-385,-224,273,31,-305,156,78,-278,-385,-283,-278
-161,-375,-214,268,26,-295,146,78,-292,-444,-273,-268
-170,-375,-204,273,17,-290,151,78,-302,-468,-312,-268
-175,-390,-214,283,19,-302,151,78,-317,-483,-326,-287
-180,-405,-224,292,21,-314,156,78,-322,-522,-331,-297
-185,-424,-239,305,26,-331,156,78,-322,-497,-361,-292
-185,-424,-239,305,26,-331,156,78,-336,-497,-336,-312
-185,-429,-244,307,29,-336,156,78,-346,-512,-336,-292
-190,-429,-239,309,24,-334,156,78,-366,-512,-346,-292
-195,-429,-234,312,19,-331,165,78,-380,-546,-336,-292
-200,-429,-229,314,14,-329,170,78,-395,-575,-361,-283
-200,-429,-229,314,14,-329,170,78,-419,-590,-380,-307
-204,-448,-244,326,19,-346,180,78,-424,-629,-385,-322
-219,-448,-229,334,4,-339,180,73,-419,-629,-419,-331
-219,-453,-234,336,7,-344,175,73,-434,-619,-419,-346
-219,-453,-234,336,7,-344,175,73,-453,-634,-409,-331
-229,-448,-219,339,-4,-334,175,73,-473,-644,-419,-331
-229,-458,-229,344,0,-344,175,73,-492,-658,-409,-331
-229,-458,-229,344,0,-344,175,73,-512,-702,-419,-331
-234,-463,-229,348,-2,-346,175,73,-527,-732,-458,-346
-234,-468,-234,351,0,-351,185,73,-541,-761,-463,-356
-239,-473,-234,356,-2,-353,185,73,-536,-790,-478,-356
-239,-478,-239,358,0,-358,185,73,-546,-775,-492,-370
-239,-478,-239,358,0,-358,185,73,-561,-785,-478,-380
-239,-478,-239,358,0,-358,185,73,-570,-790,-478,-366
-229,-468,-239,348,4,-353,190,73,-595,-790,-483,-366
-229,-468,-239,348,4,-353,190,78,-610,-844,-483,-366
-229,-468,-239,348,4,-353,190,78,-624,-863,-512,-356
-224,-468,-244,346,9,-356,190,78,-629,-878,-517,-380
-224,-478,-253,351,14,-366,200,87,-639,-902,-512,-380
-224,-478,-253,351,14,-366,200,87,-639,-878,-536,-385
-214,-473,-258,344,21,-366,190,87,-639,-878,-512,-395
-209,-468,-258,339,24,-363,190,87,-639,-878,-512,-375
-204,-453,-248,329,21,-351,185,87,-649,-863,-512,-380
-200,-448,-248,324,24,-348,180,92,-649,-883,-497,-375
-195,-439,-244,317,24,-341,175,92,-644,-893,-507,-361
-190,-429,-239,309,24,-334,175,92,-639,-893,-507,-370
-180,-429,-248,305,34,-339,175,92,-624,-902,-507,-370
-175,-414,-239,295,31,-326,170,92,-605,-883,-522,-366
-161,-405,-244,283,41,-324,165,92,-590,-844,-497,-366
-151,-395,-244,273,46,-319,161,97,-575,-824,-478,-346
-141,-375,-234,258,46,-305,156,97,-570,-800,-473,-326
-131,-356,-224,244,46,-290,151,97,-556,-775,-444,-322
-122,-341,-219,231,48,-280,146,97,-531,-766,-434,-302
-112,-326,-214,219,51,-270,141,92,-512,-746,-434,-302
-102,-326,-224,214,61,-275,136,102,-488,-732,-429,-312
-92,-312,-219,202,63,-265,131,102,-453,-722,-409,-297
-82,-297,-214,190,65,-256,131,102,-424,-663,-405,-292
-73,-283,-209,178,68,-246,126,102,-395,-629,-361,-278
-53,-263,-209,158,78,-236,117,92,-366,-585,-351,-253
-43,-239,-195,141,75,-217,107,87,-341,-531,-326,-234
-29,-219,-190,124,80,-204,102,87,-312,-522,-297,-214
-19,-200,-180,109,80,-190,97,82,-283,-497,-297,-195
-14,-190,-175,102,80,-183,82,92,-253,-458,-283,-190
-4,-180,-175,92,85,-178,82,92,-214,-448,-258,-175
-4,-165,-161,85,78,-163,78,82,-175,-380,-258,-165
0,-151,-151,75,75,-151,73,78,-151,-336,-209,-161
9,-136,-146,63,78,-141,63,73,-131,-302,-170,-136
14,-112,-126,48,70,-119,48,68,-112,-253,-161,-117
19,-92,-112,36,65,-102,48,63,-92,-234,-131,-107
24,-82,-107,29,65,-95,43,63,-73,-219,-126,-82
34,-78,-112,21,73,-95,29,58,-58,-190,-126,-82
34,-73,-107,19,70,-90,24,53,-43,-180,-117,-78
39,-68,-107,14,73,-87,24,53,-19,-151,-117,-78
43,-58,-102,7,73,-80,19,53,0,-107,-92,-78
48,-53,-102,2,75,-78,4,43,9,-82,-73,-53
53,-39,-92,-7,73,-65,0,39,14,-53,-63,-43
53,-24,-78,-14,65,-51,-4,34,14,-43,-39,-34
53,-19,-73,-17,63,-46,-9,29,19,-43,-39,-19
53,-9,-63,-21,58,-36,-9,29,24,-48,-48,-29
53,-9,-63,-21,58,-36,-9,29,29,-43,-39,-29
53,-4,-58,-24,56,-31,-9,29,39,-43,-39,-29
53,-4,-58,-24,56,-31,-19,24,48,0,-39,-29
63,-4,-68,-29,65,-36,-24,24,58,9,-14,-19
63,4,-58,-34,61,-26,-29,19,63,24,-4,4
68,9,-58,-39,63,-24,-29,19,63,48,-4,4
68,14,-53,-41,61,-19,-29,19,63,29,19,9
58,19,-39,-39,48,-9,-29,19,63,29,0,14
58,19,-39,-39,48,-9,-29,19,63,29,0,-4
58,19,-39,-39,48,-9,-29,14,73,19,0,4
58,19,-39,-39,48,-9,-29,14,73,43,-14,4
58,29,-29,-43,43,0,-34,9,73,63,14,4
58,29,-29,-43,43,0,-34,9,73,63,14,14
58,29,-29,-43,43,0,-34,9,73,68,19,14
58,29,-29,-43,43,0,-34,9,73,68,19,14
58,29,-29,-43,43,0,-34,9,73,68,24,14
58,34,-24,-46,41,4,-34,9,73,73,24,14
58,34,-24,-46,41,4,-34,9,73,73,29,19
58,34,-24,-46,41,4,-34,9,73,73,29,19
58,34,-24,-46,41,4,-39,9,73,63,19,9
58,34,-24,-46,41,4,-39,9,73,63,19,9
58,34,-24,-46,41,4,-39,4,73,63,19,9
58,34,-24,-46,41,4,-39,4,78,68,19,9
58,34,-24,-46,41,4,-39,4,78,68,19,9
58,34,-24,-46,41,4,-39,4,73,68,19,9
58,34,-24,-46,41,4,-39,4,73,68,19,9
58,34,-24,-46,41,4,-39,4,73,68,19,9
58,34,-24,-46,41,4,-39,4,73,68,19,9
58,34,-24,-46,41,4,-39,4,73,68,19,9
53,34,-19,-43,36,7,-39,4,73,68,19,14
53,34,-19,-43,36,7,-39,4,73,63,19,14
53,24,-29,-39,41,-2,-39,4,68,63,9,14
53,24,-29,-39,41,-2,-39,4,68,63,9,14
53,24,-29,-39,41,-2,-39,4,68,63,9,14
53,24,-29,-39,41,-2,-39,4,63,63,9,14
63,24,-39,-43,51,-7,-39,4,63,63,9,14
58,24,-34,-41,46,-4,-39,4,63,58,9,14
58,24,-34,-41,46,-4,-39,4,63,58,9,14
58,24,-34,-41,46,-4,-39,4,63,58,4,9
58,24,-34,-41,46,-4,-34,4,63,58,14,9
53,19,-34,-36,43,-7,-34,4,58,58,14,9
53,19,-34,-36,43,-7,-34,4,58,58,14,9
53,19,-34,-36,43,-7,-34,0,58,58,14,9
53,19,-34,-36,43,-7,-34,0,53,58,24,9
53,14,-39,-34,46,-12,-34,0,53,53,24,9
53,14,-39,-34,46,-12,-34,0,53,53,19,9
48,14,-34,-31,41,-9,-34,0,53,53,19,4
48,14,-34,-31,41,-9,-34,0,48,43,19,4
48,14,-34,-31,41,-9,-34,0,48,39,19,4
48,14,-34,-31,41,-9,-34,0,39,39,14,4
43,14,-29,-29,36,-7,-34,0,39,39,14,4
43,14,-29,-29,36,-7,-34,0,39,48,4,4
39,9,-29,-24,34,-9,-34,0,39,39,4,4
39,9,-29,-24,34,-9,-34,0,39,34,4,4
39,9,-29,-24,34,-9,-34,0,34,34,0,4
39,9,-29,-24,34,-9,-34,0,43,34,0,4
34,4,-29,-19,31,-12,-34,0,43,34,0,4
34,4,-29,-19,31,-12,-34,0,39,34,-4,0
34,4,-29,-19,31,-12,-34,0,39,29,-4,0
34,4,-29,-19,31,-12,-29,0,39,29,4,9
29,4,-24,-17,26,-9,-29,0,34,19,4,0
29,0,-29,-14,29,-14,-29,0,34,14,-4,0
29,0,-29,-14,29,-14,-24,0,24,14,-14,0
19,0,-19,-9,19,-9,-29,0,29,9,-9,0
19,0,-19,-9,19,-9,-29,0,19,9,-9,0
19,0,-19,-9,19,-9,-29,0,19,9,-9,0
19,0,-19,-9,19,-9,-29,0,19,9,-9,0
19,0,-19,-9,19,-9,-29,0,19,9,-9,0
19,0,-19,-9,19,-9,-29,0,19,9,-9,0
19,0,-19,-9,19,-9,-24,0,14,9,-9,0
19,0,-19,-9,19,-9,-24,0,14,4,-9,4
19,0,-19,-9,19,-9,-24,0,14,4,-9,4
19,9,-9,-14,14,0,-14,0,4,4,0,4
19,14,-4,-17,12,4,-14,0,4,4,4,4
24,19,-4,-21,14,7,-4,0,14,9,4,9
24,24,0,-24,12,12,0,0,19,9,4,9
24,29,4,-26,9,17,4,4,19,19,4,9
24,34,9,-29,7,21,9,4,24,19,14,9
29,39,9,-34,9,24,14,4,29,19,14,14
34,43,9,-39,12,26,19,4,34,24,14,14
34,48,14,-41,9,31,29,4,53,29,24,14
34,53,19,-43,7,36,39,4,58,34,29,19
43,63,19,-53,12,41,43,4,63,39,34,24
43,68,24,-56,9,46,48,9,68,43,39,29
48,73,24,-61,12,48,53,9,73,48,39,43
48,78,29,-63,9,53,58,9,78,53,43,43
53,82,29,-68,12,56,58,9,82,53,43,43
53,87,34,-70,9,61,58,9,87,53,43,43
63,92,29,-78,17,61,68,9,87,68,43,43
63,92,29,-78,17,61,68,9,87,68,48,48
68,92,24,-80,21,58,58,9,87,73,48,48
68,97,29,-82,19,63,43,0,92,73,48,53
73,97,24,-85,24,61,34,0,92,63,48,43
73,102,29,-87,21,65,24,-4,92,63,48,43
73,102,29,-87,21,65,14,-9,82,58,43,43
78,102,24,-90,26,63,-4,-14,78,53,34,43
78,102,24,-90,26,63,-19,-19,73,48,34,39
78,102,24,-90,26,63,-34,-19,68,43,29,34
78,97,19,-87,29,58,-39,-19,53,39,24,34
82,97,14,-90,34,56,-48,-19,53,34,19,29
82,97,14,-90,34,56,-68,-29,29,29,14,29
82,92,9,-87,36,51,-68,-29,29,24,14,29
82,92,9,-87,36,51,-73,-29,19,19,9,24
82,87,4,-85,39,46,-78,-29,14,14,9,24
82,87,4,-85,39,46,-82,-29,9,9,-4,24
82,87,4,-85,39,46,-82,-29,4,4,-4,19
82,87,4,-85,39,46,-82,-29,0,4,-4,19
82,87,4,-85,39,46,-82,-29,0,9,-4,19
87,87,0,-87,43,43,-82,-34,0,9,-4,19
87,87,0,-87,43,43,-82,-34,0,9,0,19
87,92,4,-90,41,48,-82,-39,0,9,0,19
87,92,4,-90,41,48,-82,-39,0,9,0,19
87,87,0,-87,43,43,-82,-29,9,19,9,19
87,87,0,-87,43,43,-82,-29,9,19,9,19
87,87,0,-87,43,43,-78,-29,9,19,9,19
87,87,0,-87,43,43,-78,-29,9,29,9,19
87,87,0,-87,43,43,-78,-29,19,29,9,29
82,78,-4,-80,43,36,-68,-29,19,29,14,29
78,73,-4,-75,41,34,-63,-29,19,29,14,29
73,68,-4,-70,39,31,-63,-29,19,29,14,29
68,63,-4,-65,36,29,-58,-29,19,19,14,29
63,48,-14,-56,39,17,-53,-24,19,19,4,19
58,39,-19,-48,39,9,-48,-24,19,14,0,14
48,29,-19,-39,34,4,-48,-19,19,14,0,14
43,29,-14,-36,29,7,-48,-19,19,14,-4,9
39,19,-19,-29,29,0,-48,-19,19,14,-9,4
34,9,-24,-21,29,-7,-43,-14,19,9,-9,0
29,0,-29,-14,29,-14,-43,-14,19,4,-14,-4
19,-9,-29,-4,24,-19,-43,-14,4,4,-24,-4
19,-9,-29,-4,24,-19,-39,-14,4,4,-34,-9
19,-14,-34,-2,26,-24,-39,-9,4,0,-34,-14
14,-19,-34,2,24,-26,-39,-4,0,0,-34,-19
24,-24,-48,0,36,-36,-39,-14,0,0,-34,-29
24,-29,-53,2,39,-41,-39,-14,-4,0,-34,-29
24,-29,-53,2,39,-41,-39,-14,-4,0,-39,-29
24,-29,-53,2,39,-41,-39,-14,-4,0,-39,-29
24,-29,-53,2,39,-41,-39,-4,-14,0,-29,-29
24,-34,-58,4,41,-46,-39,-4,-19,0,-29,-29
24,-34,-58,4,41,-46,-39,0,-19,0,-29,-29
24,-34,-58,4,41,-46,-39,0,-19,0,-24,-29
24,-34,-58,4,41,-46,-39,-9,-9,0,-24,-29
24,-34,-58,4,41,-46,-39,-9,-4,4,-24,-29
24,-34,-58,4,41,-46,-39,-9,-4,4,-24,-29
24,-34,-58,4,41,-46,-39,-9,-4,4,-24,-29
19,-34,-53,7,36,-43,-39,-9,-4,9,-14,-19
19,-34,-53,7,36,-43,-39,0,0,0,0,-19
19,-43,-63,12,41,-53,-29,0,0,9,-19,-19
14,-43,-58,14,36,-51,-29,4,0,0,-24,-29
14,-58,-73,21,43,-65,-24,14,-9,-19,-39,-39
14,-78,-92,31,53,-85,0,29,4,-9,-39,-39
9,-78,-87,34,48,-82,14,39,19,0,-34,-48
-24,-68,-43,46,9,-56,24,29,63,48,0,-24
-39,-43,-4,41,-17,-24,34,9,126,112,53,19
-48,0,48,24,-48,24,48,0,204,200,112,63
-24,39,63,-7,-43,51,58,9,302,317,180,107
14,107,92,-61,-39,100,58,19,429,458,273,165
78,214,136,-146,-29,175,58,43,614,673,390,258
151,341,190,-246,-19,265,68,53,873,946,556,366
229,488,258,-358,-14,373,92,78,1239,1307,761,507
317,678,361,-497,-21,519,131,87,1693,1732,1005,673
414,917,502,-666,-43,710,141,78,2166,2186,1288,868
492,1185,692,-839,-100,939,102,34,2552,2610,1546,1058
580,1454,873,-1017,-146,1163,34,-43,2801,2971,1795,1254
639,1683,1044,-1161,-202,1363,-53,-117,2903,3245,1991,1434
668,1888,1220,-1278,-275,1554,-141,-214,2898,3455,2152,1571
644,2059,1415,-1351,-385,1737,-229,-322,2849,3616,2298,1717
600,2249,1649,-1424,-524,1949,-322,-478,2825,3825,2459,1873
507,2464,1956,-1485,-724,2210,-429,-673,2766,4011,2620,2044
385,2620,2235,-1503,-924,2427,-527,-883,2605,4104,2732,2186
297,2742,2444,-1520,-1073,2593,-644,-1054,2371,4113,2771,2274
268,2791,2522,-1529,-1127,2657,-751,-1151,2122,3996,2732,2283
258,2742,2483,-1500,-1112,2613,-834,-1161,1805,3757,2601,2225
219,2610,2391,-1415,-1085,2501,-883,-1132,1429,3376,2415,2113
146,2425,2278,-1285,-1066,2352,-932,-1098,985,2835,2171,1952
87,2181,2093,-1134,-1002,2137,-976,-1034,556,2215,1805,1727
58,1898,1839,-978,-890,1869,-1019,-936,204,1561,1405,1459
39,1629,1590,-834,-775,1610,-1029,-819,-82,1044,1034,1195
29,1361,1332,-695,-651,1346,-985,-678,-297,541,722,936
39,1102,1063,-570,-512,1083,-907,-541,-522,82,385,707
34,863,829,-448,-397,846,-805,-414,-756,-312,97,453
24,624,600,-324,-287,612,-663,-297,-878,-600,-87,253
4,390,385,-197,-190,387,-492,-190,-814,-663,-234,92
-19,170,190,-75,-104,180,-341,-82,-663,-595,-283,-68
-34,14,48,9,-41,31,-219,-29,-517,-531,-287,-136
-48,-58,-9,53,-19,-34,-136,9,-429,-444,-287,-146
-58,-102,-43,80,-7,-73,-82,24,-356,-380,-258,-161
-58,-141,-82,100,12,-112,-34,43,-307,-380,-234,-141
-58,-170,-112,114,26,-141,9,48,-258,-346,-253,-161
-68,-200,-131,134,31,-165,29,63,-219,-331,-239,-180
-73,-229,-156,151,41,-192,48,53,-190,-341,-248,-180
-73,-239,-165,156,46,-202,53,48,-170,-283,-258,-200
-73,-253,-180,163,53,-217,53,58,-175,-268,-214,-200
-73,-253,-180,163,53,-217,53,58,-165,-263,-204,-180
-73,-248,-175,161,51,-212,53,48,-175,-229,-195,-185
-73,-248,-175,161,51,-212,53,58,-175,-278,-170,-180
-68,-248,-180,158,56,-214,63,58,-165,-283,-214,-170
-68,-258,-190,163,61,-224,68,48,-161,-273,-224,-190
-73,-263,-190,168,58,-226,73,58,-161,-312,-214,-200
-73,-273,-200,173,63,-236,73,48,-151,-263,-248,-200
-73,-273,-200,173,63,-236,73,48,-146,-253,-200,-234
-73,-283,-209,178,68,-246,73,48,-136,-253,-190,-190
-73,-268,-195,170,61,-231,73,48,-146,-209,-190,-190
-63,-268,-204,165,70,-236,73,48,-151,-239,-170,-185
-73,-268,-195,170,61,-231,73,48,-151,-268,-190,-170
-68,-268,-200,168,65,-234,78,48,-151,-258,-214,-190
-68,-278,-209,173,70,-244,82,48,-151,-292,-214,-195
-68,-283,-214,175,73,-248,82,48,-141,-268,-229,-200
-68,-283,-214,175,73,-248,82,48,-136,-234,-214,-219
-78,-292,-214,185,68,-253,82,48,-126,-239,-190,-200
-78,-292,-214,185,68,-253,82,48,-136,-219,-200,-190
-78,-287,-209,183,65,-248,82,48,-146,-219,-185,-190
-78,-287,-209,183,65,-248,82,48,-151,-258,-185,-175
-78,-278,-200,178,61,-239,82,48,-151,-263,-214,-185
-78,-283,-204,180,63,-244,92,48,-141,-273,-214,-204
-78,-287,-209,183,65,-248,92,48,-131,-287,-224,-204
-82,-292,-209,187,63,-251,92,48,-122,-239,-234,-214
-82,-292,-209,187,63,-251,92,53,-122,-234,-200,-214
-82,-292,-209,187,63,-251,92,53,-131,-244,-209,-190
-82,-287,-204,185,61,-246,92,53,-141,-209,-204,-190
-82,-287,-204,185,61,-246,92,53,-146,-268,-180,-185
-82,-287,-204,185,61,-246,92,53,-146,-278,-224,-185
-87,-287,-200,187,56,-244,102,53,-146,-273,-214,-209
-87,-297,-209,192,61,-253,102,58,-136,-302,-214,-209
-87,-302,-214,195,63,-258,102,58,-136,-258,-253,-214
-87,-307,-219,197,65,-263,102,58,-136,-253,-214,-239
-87,-307,-219,197,65,-263,102,58,-126,-253,-195,-204
-87,-302,-214,195,63,-258,97,58,-136,-229,-195,-200
-87,-302,-214,195,63,-258,97,58,-141,-253,-175,-195
-87,-297,-209,192,61,-253,102,63,-146,-278,-195,-185
-97,-297,-200,197,51,-248,92,63,-146,-273,-214,-214
-97,-307,-209,202,56,-258,102,63,-136,-302,-214,-224
-97,-312,-214,204,58,-263,102,63,-136,-287,-239,-224
-97,-317,-219,207,61,-268,102,63,-131,-258,-224,-239
-97,-307,-209,202,56,-258,102,63,-141,-258,-209,-209
-97,-307,-209,202,56,-258,97,63,-146,-248,-209,-204
-97,-302,-204,200,53,-253,97,63,-156,-248,-200,-204
-97,-302,-204,200,53,-253,97,68,-161,-283,-200,-190
-97,-302,-204,200,53,-253,97,68,-161,-297,-234,-204
-102,-307,-204,204,51,-256,107,68,-161,-307,-234,-219
-102,-322,-219,212,58,-270,107,68,-161,-326,-244,-219
-107,-322,-214,214,53,-268,107,68,-156,-283,-253,-234
-97,-331,-234,214,68,-283,107,68,-156,-278,-224,-234
-97,-331,-234,214,68,-283,107,73,-156,-278,-224,-219
-97,-331,-234,214,68,-283,107,73,-170,-253,-224,-219
-97,-331,-234,214,68,-283,107,73,-180,-307,-209,-214
-117,-331,-214,224,48,-273,117,68,-180,-312,-244,-204
-117,-331,-214,224,48,-273,117,68,-180,-312,-253,-229
-117,-341,-224,229,53,-283,126,73,-180,-351,-253,-229
-122,-346,-224,234,51,-285,126,73,-175,-312,-278,-234
-112,-341,-229,226,58,-285,126,73,-165,-302,-244,-258
-112,-341,-229,226,58,-285,126,73,-165,-302,-239,-244
-112,-336,-224,224,56,-280,122,73,-185,-287,-239,-244
-112,-336,-224,224,56,-280,122,73,-195,-312,-219,-239
-122,-336,-214,229,46,-275,117,73,-200,-326,-248,-219
-126,-336,-209,231,41,-273,117,73,-200,-336,-263,-239
-131,-346,-214,239,41,-280,126,73,-200,-366,-263,-244
-131,-356,-224,244,46,-290,126,73,-200,-346,-287,-248
-131,-356,-224,244,46,-290,126,63,-200,-322,-273,-263
-131,-361,-229,246,48,-295,126,68,-214,-322,-263,-253
-131,-361,-229,246,48,-295,126,68,-219,-322,-263,-248
-131,-361,-229,246,48,-295,126,68,-229,-326,-258,-248
-131,-361,-229,246,48,-295,126,68,-248,-366,-268,-229
-141,-361,-219,251,39,-290,126,68,-258,-370,-297,-244
-141,-366,-224,253,41,-295,131,68,-258,-395,-297,-258
-141,-370,-229,256,43,-300,131,68,-258,-419,-307,-258
-146,-375,-229,261,41,-302,131,68,-263,-385,-322,-273
-146,-390,-244,268,48,-317,131,68,-268,-385,-302,-273
-151,-390,-239,270,43,-314,131,68,-273,-395,-302,-258
-151,-385,-234,268,41,-309,136,68,-287,-375,-302,-268
-151,-375,-224,263,36,-300,136,68,-292,-424,-297,-258
-161,-375,-214,268,26,-295,141,68,-302,-448,-331,-258
-165,-390,-224,278,29,-307,141,68,-317,-463,-341,-278
-170,-405,-234,287,31,-319,146,68,-322,-502,-341,-287
-175,-414,-239,295,31,-326,146,68,-322,-468,-370,-292
-175,-414,-239,295,31,-326,146,68,-336,-468,-346,-312
-175,-419,-244,297,34,-331,146,68,-346,-483,-346,-292
-180,-419,-239,300,29,-329,146,68,-366,-483,-356,-292
-195,-419,-224,307,14,-322,146,68,-370,-512,-346,-292
-200,-419,-219,309,9,-319,151,68,-385,-546,-370,-283
-200,-419,-219,309,9,-319,151,68,-409,-566,-390,-307
-204,-439,-234,322,14,-336,161,68,-414,-610,-395,-322
-209,-439,-229,324,9,-334,161,63,-419,-600,-409,-322
-209,-444,-234,326,12,-339,156,63,-434,-590,-409,-336
-209,-444,-234,326,12,-339,156,63,-453,-605,-400,-322
-219,-439,-219,329,0,-329,156,63,-473,-614,-409,-322
-219,-448,-229,334,4,-339,156,73,-492,-639,-400,-322
-219,-448,-229,334,4,-339,156,73,-512,-683,-409,-322
-224,-453,-229,339,2,-341,156,73,-527,-712,-448,-336
-224,-458,-234,341,4,-346,165,73,-541,-741,-453,-346
-229,-463,-234,346,2,-348,165,73,-536,-775,-468,-346
-229,-468,-239,348,4,-353,165,73,-546,-756,-483,-361
-229,-468,-239,348,4,-353,165,73,-561,-761,-468,-370
-229,-468,-239,348,4,-353,165,73,-570,-761,-468,-356
-229,-468,-239,348,4,-353,161,73,-585,-761,-473,-356
-229,-468,-239,348,4,-353,161,78,-600,-814,-473,-356
-229,-468,-239,348,4,-353,161,78,-614,-834,-502,-346
-224,-468,-244,346,9,-356,161,78,-619,-849,-507,-370
-224,-468,-244,346,9,-356,170,78,-624,-873,-502,-380
-224,-468,-244,346,9,-356,170,78,-629,-849,-527,-385
-214,-463,-248,339,17,-356,161,78,-634,-849,-502,-395
-209,-458,-248,334,19,-353,161,78,-639,-849,-502,-375
-204,-444,-239,324,17,-341,156,78,-649,-844,-512,-370
-200,-439,-239,319,19,-339,151,82,-649,-863,-497,-366
-195,-429,-234,312,19,-331,146,82,-644,-873,-507,-351
-190,-419,-229,305,19,-324,146,82,-639,-873,-507,-361
-180,-419,-239,300,29,-329,146,82,-634,-883,-507,-361
-175,-405,-229,290,26,-317,141,82,-614,-863,-522,-356
-161,-395,-234,278,36,-314,136,82,-600,-824,-497,-356
-151,-385,-234,268,41,-309,131,87,-585,-805,-478,-336
-141,-375,-234,258,46,-305,117,87,-580,-775,-483,-326
-131,-356,-224,244,46,-290,112,87,-566,-756,-453,-322
-122,-341,-219,231,48,-280,107,87,-541,-751,-444,-302
-112,-326,-214,219,51,-270,102,82,-522,-736,-444,-302
-92,-326,-234,209,70,-280,97,92,-497,-722,-439,-302
-82,-312,-229,197,73,-270,92,92,-463,-712,-419,-287
-73,-297,-224,185,75,-261,92,92,-434,-653,-414,-283
-63,-283,-219,173,78,-251,87,92,-405,-619,-370,-268
-53,-263,-209,158,78,-236,78,92,-370,-585,-361,-244
-43,-239,-195,141,75,-217,68,87,-351,-531,-336,-224
-29,-219,-190,124,80,-204,63,87,-326,-522,-307,-204
-19,-200,-180,109,80,-190,58,82,-302,-497,-307,-185
-14,-180,-165,97,75,-173,53,82,-273,-463,-292,-185
-4,-170,-165,87,80,-168,53,82,-234,-448,-268,-175
-4,-156,-151,80,73,-153,48,73,-195,-375,-268,-170
0,-141,-141,70,70,-141,43,68,-170,-326,-219,-170
9,-126,-136,58,73,-131,34,63,-151,-302,-190,-136
14,-102,-117,43,65,-109,19,58,-131,-253,-180,-117
19,-82,-102,31,61,-92,19,53,-112,-234,-151,-107
24,-73,-97,24,61,-85,14,53,-92,-219,-146,-82
24,-68,-92,21,58,-80,19,48,-68,-190,-136,-92
24,-63,-87,19,56,-75,14,43,-53,-180,-126,-87
29,-58,-87,14,58,-73,14,43,-29,-151,-126,-87
34,-48,-82,7,58,-65,9,43,-9,-107,-102,-87
48,-43,-92,-2,70,-68,-4,34,0,-92,-82,-53
53,-29,-82,-12,68,-56,-9,29,4,-63,-73,-43
53,-14,-68,-19,61,-41,-14,24,4,-53,-48,-34
53,-9,-63,-21,58,-36,-19,19,9,-53,-48,-19
53,-9,-63,-21,58,-36,-19,19,24,-48,-58,-29
53,-9,-63,-21,58,-36,-19,19,29,-43,-48,-29
53,-4,-58,-24,56,-31,-19,19,39,-43,-48,-29
53,-4,-58,-24,56,-31,-29,14,48,0,-48,-29
53,-4,-58,-24,56,-31,-34,14,48,9,-14,-24
53,4,-48,-29,51,-21,-39,9,53,24,-4,4
58,9,-48,-34,53,-19,-39,9,53,48,-4,9
58,14,-43,-36,51,-14,-39,9,53,29,19,19
58,19,-39,-39,48,-9,-39,9,53,29,0,24
58,19,-39,-39,48,-9,-39,9,53,29,0,4
58,19,-39,-39,48,-9,-39,4,63,19,0,14
58,19,-39,-39,48,-9,-39,4,63,43,-14,14
48,19,-29,-34,39,-4,-43,0,73,63,14,4
48,19,-29,-34,39,-4,-43,0,73,63,14,14
48,19,-29,-34,39,-4,-43,0,73,68,19,14
48,19,-29,-34,39,-4,-43,0,73,68,19,14
48,29,-19,-39,34,4,-43,0,73,68,14,14
48,34,-14,-41,31,9,-43,0,73,73,14,14
48,34,-14,-41,31,9,-43,0,73,73,19,19
48,34,-14,-41,31,9,-43,0,73,73,19,19
58,34,-24,-46,41,4,-48,0,63,63,9,19
58,34,-24,-46,41,4,-48,0,63,63,9,19
58,34,-24,-46,41,4,-48,-4,63,63,9,19
58,34,-24,-46,41,4,-48,-4,68,68,9,19
58,34,-24,-46,41,4,-48,4,68,68,9,19
58,34,-24,-46,41,4,-48,4,63,68,9,19
58,34,-24,-46,41,4,-48,4,63,68,9,19
58,34,-24,-46,41,4,-48,4,63,68,9,19
48,34,-14,-41,31,9,-48,4,63,58,9,19
48,34,-14,-41,31,9,-48,4,63,58,9,19
43,34,-9,-39,26,12,-48,4,63,58,9,24
43,34,-9,-39,26,12,-48,4,63,53,9,24
53,34,-19,-43,36,7,-48,4,58,53,9,14
53,34,-19,-43,36,7,-48,4,58,53,9,14
53,34,-19,-43,36,7,-48,4,58,53,9,14
53,34,-19,-43,36,7,-48,4,53,53,9,14
43,34,-9,-39,26,12,-48,-4,53,53,9,14
39,34,-4,-36,21,14,-48,-4,53,48,9,14
39,34,-4,-36,21,14,-48,-4,53,48,9,14
39,34,-4,-36,21,14,-48,-4,53,48,4,9
39,24,-14,-31,26,4,-43,-4,53,48,4,9
34,19,-14,-26,24,2,-43,-4,48,48,4,9
34,19,-14,-26,24,2,-43,-4,48,48,4,9
34,19,-14,-26,24,2,-43,-9,48,48,4,9
34,29,-4,-31,19,12,-43,0,53,48,14,9
34,24,-9,-29,21,7,-43,0,53,43,14,9
34,24,-9,-29,21,7,-43,0,53,43,9,9
29,24,-4,-26,17,9,-43,0,53,43,9,4
29,14,-14,-21,21,0,-43,0,48,43,9,4
29,14,-14,-21,21,0,-43,0,48,39,9,4
29,14,-14,-21,21,0,-43,0,39,39,4,4
24,14,-9,-19,17,2,-43,0,39,39,4,4
34,14,-19,-24,26,-2,-34,0,39,48,-4,4
29,9,-19,-19,24,-4,-34,0,39,39,-4,4
29,9,-19,-19,24,-4,-34,0,39,34,-4,4
29,9,-19,-19,24,-4,-34,0,34,34,-9,4
29,9,-19,-19,24,-4,-34,-9,34,34,-19,4
24,4,-19,-14,21,-7,-34,-9,34,34,-19,4
24,4,-19,-14,21,-7,-34,-9,29,34,-24,0
24,4,-19,-14,21,-7,-34,-9,29,29,-24,0
24,4,-19,-14,21,-7,-29,-9,29,29,-14,9
19,9,-9,-14,14,0,-29,-9,29,29,-19,0
19,0,-19,-9,19,-9,-29,-9,29,19,-19,0
19,0,-19,-9,19,-9,-29,-9,29,19,-19,0
19,0,-19,-9,19,-9,-29,-9,29,19,-19,0
19,0,-19,-9,19,-9,-29,-9,29,19,-19,0
9,0,-9,-4,9,-4,-29,-9,29,19,-9,0
9,0,-9,-4,9,-4,-24,-9,24,19,-9,0
9,0,-9,-4,9,-4,-24,-9,24,14,-9,4
9,0,-9,-4,9,-4,-24,-9,24,14,-9,4
9,0,-9,-4,9,-4,-24,-9,14,14,0,4
9,4,-4,-7,7,0,-24,-9,14,14,4,4
14,9,-4,-12,9,2,-14,-9,24,19,4,9
14,14,0,-14,7,7,-9,-9,29,19,4,9
14,19,4,-17,4,12,4,-4,29,29,4,9
14,24,9,-19,2,17,9,-4,34,29,14,9
19,29,9,-24,4,19,14,-4,39,29,14,14
24,34,9,-29,7,21,19,-4,43,34,14,14
24,39,14,-31,4,26,29,4,43,29,24,24
24,43,19,-34,2,31,39,4,48,34,29,29
34,53,19,-43,7,36,43,4,53,39,34,34
34,58,24,-46,4,41,48,9,58,43,39,39
39,73,34,-56,2,53,53,9,73,48,29,43
39,78,39,-58,0,58,58,9,78,53,34,43
43,82,39,-63,2,61,58,9,82,53,34,43
43,87,43,-65,0,65,58,9,87,53,34,43
53,82,29,-68,12,56,68,9,87,58,43,43
53,82,29,-68,12,56,68,9,87,58,48,48
58,82,24,-70,17,53,58,9,87,63,48,48
58,87,29,-73,14,58,43,0,92,63,48,53
63,87,24,-75,19,56,34,0,92,63,48,43
63,92,29,-78,17,61,24,-4,92,63,48,43
63,92,29,-78,17,61,14,-9,82,58,43,43
68,92,24,-80,21,58,-4,-14,78,53,34,43
68,92,24,-80,21,58,-19,-29,73,48,34,48
68,92,24,-80,21,58,-34,-29,68,43,29,43
68,87,19,-78,24,53,-39,-29,53,39,24,43
73,87,14,-80,29,51,-48,-29,53,34,19,39
73,87,14,-80,29,51,-68,-29,39,29,4,29
73,82,9,-78,31,46,-68,-29,39,24,4,29
73,82,9,-78,31,46,-73,-29,29,19,0,24
73,78,4,-75,34,41,-78,-29,24,14,0,24
73,87,14,-80,29,51,-82,-39,9,9,-4,24
73,87,14,-80,29,51,-82,-39,4,4,-4,19
73,87,14,-80,29,51,-82,-39,0,4,-4,19
73,87,14,-80,29,51,-82,-39,0,9,-4,19
78,87,9,-82,34,48,-82,-34,0,0,-4,19
78,87,9,-82,34,48,-82,-34,0,0,0,19
78,92,14,-85,31,53,-82,-39,0,0,0,19
78,92,14,-85,31,53,-82,-39,0,0,0,19
87,97,9,-92,39,53,-82,-39,0,9,9,19
87,97,9,-92,39,53,-82,-39,0,9,9,19
87,97,9,-92,39,53,-78,-39,0,9,9,19
87,97,9,-92,39,53,-78,-39,0,19,9,19
78,87,9,-82,34,48,-87,-39,9,19,0,19
73,78,4,-75,34,41,-78,-39,9,19,4,19
68,73,4,-70,31,39,-73,-39,9,19,4,19
63,68,4,-65,29,36,-73,-39,9,19,4,19
58,63,4,-61,26,34,-68,-39,9,19,14,19
53,48,-4,-51,29,21,-63,-34,9,19,4,9
48,39,-9,-43,29,14,-58,-34,9,14,0,4
39,29,-9,-34,24,9,-58,-29,9,14,0,4
34,29,-4,-31,19,12,-48,-29,9,14,-4,0
29,19,-9,-24,19,4,-48,-29,9,14,-9,-4
24,9,-14,-17,19,-2,-43,-24,9,9,-9,-9
19,0,-19,-9,19,-9,-43,-24,9,4,-14,-14
9,-19,-29,4,19,-24,-53,-24,-4,4,-14,-14
9,-19,-29,4,19,-24,-48,-24,-4,4,-24,-19
9,-24,-34,7,21,-29,-48,-19,-4,0,-24,-24
4,-29,-34,12,19,-31,-48,-14,-9,0,-24,-29
4,-34,-39,14,21,-36,-39,-14,-9,0,-34,-29
4,-39,-43,17,24,-41,-39,-14,-14,0,-34,-29
4,-39,-43,17,24,-41,-39,-14,-14,0,-39,-29
4,-39,-43,17,24,-41,-39,-14,-14,0,-39,-29
4,-39,-43,17,24,-41,-39,-14,-14,0,-39,-29
4,-43,-48,19,26,-46,-39,-14,-19,0,-39,-29
4,-43,-48,19,26,-46,-39,-9,-19,0,-39,-29
4,-43,-48,19,26,-46,-39,-9,-19,0,-34,-29
14,-43,-58,14,36,-51,-39,-9,-19,-9,-43,-29
14,-43,-58,14,36,-51,-39,-9,-14,-4,-43,-29
14,-43,-58,14,36,-51,-39,-9,-14,-4,-43,-29
14,-43,-58,14,36,-51,-39,-9,-14,-4,-43,-29
9,-43,-53,17,31,-48,-39,0,-4,0,-24,-29
9,-43,-53,17,31,-48,-39,-9,0,9,-29,-29
9,-43,-53,17,31,-48,-39,-9,0,9,-19,-19
4,-43,-48,19,26,-46,-29,-14,0,19,-14,-19
-4,-48,-43,26,19,-46,-24,-4,9,9,-19,-29
4,-58,-63,26,34,-61,-19,9,4,9,-29,-29
9,-78,-87,34,48,-82,4,19,19,19,-34,-39
4,-78,-82,36,43,-80,14,29,53,39,0,-34
-19,-63,-43,41,12,-53,24,29,107,92,43,0
-39,-29,9,34,-24,-9,39,9,175,180,102,43
-34,29,63,2,-48,46,48,0,273,278,170,97
-24,78,102,-26,-63,90,48,0,380,409,253,146
29,156,126,-92,-48,141,48,14,517,556,351,219
92,273,180,-183,-43,226,48,24,697,780,478,317
170,419,248,-295,-39,334,53,48,956,1054,653,429
248,570,322,-409,-36,446,73,58,1302,1400,849,566
326,771,444,-549,-58,607,102,68,1747,1815,1083,732
424,1010,585,-717,-80,797,112,53,2210,2269,1361,932
502,1278,775,-890,-136,1027,73,-4,2596,2688,1620,1137
570,1537,966,-1054,-197,1251,-4,-78,2815,3020,1854,1327
629,1771,1141,-1200,-256,1456,-92,-165,2898,3289,2044,1503
644,1971,1327,-1307,-341,1649,-180,-263,2869,3459,2191,1639
629,2132,1503,-1381,-436,1817,-263,-361,2786,3591,2322,1766
566,2298,1732,-1432,-583,2015,-351,-507,2727,3747,2454,1917
473,2493,2020,-1483,-773,2257,-458,-697,2625,3899,2596,2059
346,2635,2288,-1490,-971,2461,-546,-907,2449,3957,2684,2196
248,2732,2483,-1490,-1117,2608,-653,-1073,2200,3947,2703,2264
219,2771,2552,-1495,-1166,2662,-746,-1161,1942,3816,2659,2264
209,2698,2488,-1454,-1139,2593,-824,-1151,1625,3542,2513,2181
156,2552,2396,-1354,-1119,2474,-863,-1117,1239,3147,2308,2059
97,2357,2259,-1227,-1080,2308,-897,-1063,790,2596,2049,1883
48,2093,2044,-1071,-997,2069,-932,-985,370,1961,1678,1654
9,1786,1776,-897,-883,1781,-961,-897,34,1317,1268,1361
0,1507,1507,-753,-753,1507,-966,-766,-219,824,897,1093
-9,1249,1259,-619,-634,1254,-927,-619,-405,346,600,854
-14,980,995,-483,-505,988,-844,-483,-600,-87,273,619
-4,741,746,-368,-375,744,-741,-356,-810,-453,0,370
-14,507,522,-246,-268,514,-600,-248,-922,-712,-165,180
-29,287,317,-129,-173,302,-439,-141,-849,-751,-302,29
-34,82,117,-24,-75,100,-287,-48,-673,-658,-336,-126
-58,-58,0,58,-29,-29,-175,9,-507,-561,-326,-185
-68,-122,-53,95,-7,-87,-102,34,-405,-448,-307,-190
-68,-151,-82,109,7,-117,-53,53,-336,-370,-253,-190
-68,-180,-112,124,21,-146,0,58,-278,-356,-234,-161
-68,-209,-141,139,36,-175,29,63,-239,-322,-239,-180
-73,-229,-156,151,41,-192,48,63,-200,-322,-229,-190
-73,-248,-175,161,51,-212,63,58,-170,-331,-239,-180
-73,-263,-190,168,58,-226,63,48,-156,-268,-244,-200
-82,-273,-190,178,53,-231,63,58,-156,-263,-214,-209
-82,-268,-185,175,51,-226,63,58,-156,-248,-204,-185
-73,-268,-195,170,61,-231,63,58,-156,-200,-200,-180
-68,-258,-190,163,61,-224,63,58,-156,-253,-175,-180
-68,-258,-190,163,61,-224,68,58,-161,-263,-214,-161
-73,-263,-190,168,58,-226,73,48,-161,-253,-224,-190
-73,-273,-200,173,63,-236,82,58,-151,-302,-219,-200
-82,-283,-200,183,58,-241,82,58,-136,-244,-248,-195
-82,-283,-200,183,58,-241,82,58,-136,-234,-209,-229
-82,-287,-204,185,61,-246,82,58,-126,-229,-200,-190
-73,-278,-204,175,65,-241,73,48,-131,-190,-200,-195
-73,-278,-204,175,65,-241,73,58,-141,-209,-170,-190
-78,-278,-200,178,61,-239,78,58,-141,-239,-195,-170
-78,-278,-200,178,61,-239,82,58,-141,-244,-224,-185
-78,-292,-214,185,68,-253,82,58,-131,-278,-219,-200
-78,-292,-214,185,68,-253,92,58,-126,-253,-244,-190
-78,-292,-214,185,68,-253,92,58,-117,-229,-219,-219
-78,-287,-209,183,65,-248,92,58,-117,-204,-204,-204
-78,-287,-209,183,65,-248,92,58,-126,-200,-185,-200
-78,-292,-214,185,68,-253,92,58,-131,-234,-180,-180
-78,-287,-209,183,65,-248,92,58,-131,-234,-204,-185
-78,-292,-214,185,68,-253,92,58,-141,-248,-214,-195
-78,-297,-219,187,70,-258,92,58,-131,-268,-224,-195
-82,-302,-219,192,68,-261,92,58,-122,-224,-234,-204
-82,-302,-219,192,68,-261,92,63,-122,-224,-200,-204
-82,-302,-219,192,68,-261,92,63,-112,-214,-200,-185
-82,-297,-214,190,65,-256,92,63,-122,-180,-195,-190
-82,-297,-214,190,65,-256,92,63,-126,-239,-170,-190
-82,-297,-214,190,65,-256,92,63,-126,-248,-214,-195
-87,-287,-200,187,56,-244,102,63,-136,-263,-214,-204
-87,-297,-209,192,61,-253,102,68,-126,-292,-214,-200
-87,-302,-214,195,63,-258,102,68,-126,-248,-253,-200
-87,-307,-219,197,65,-263,102,68,-126,-244,-214,-219
-87,-317,-229,202,70,-273,112,68,-122,-239,-204,-200
-87,-312,-224,200,68,-268,107,68,-126,-209,-204,-200
-87,-312,-224,200,68,-268,107,68,-126,-229,-185,-200
-87,-307,-219,197,65,-263,112,73,-126,-248,-204,-195
-87,-297,-209,192,61,-253,102,73,-136,-263,-214,-209
-87,-307,-219,197,65,-263,112,73,-126,-292,-214,-214
-87,-312,-224,200,68,-268,112,73,-126,-278,-239,-209
-87,-317,-229,202,70,-273,112,73,-122,-248,-224,-219
-87,-326,-239,207,75,-283,122,73,-112,-239,-209,-214
-87,-326,-239,207,75,-283,117,73,-117,-229,-209,-214
-87,-322,-234,204,73,-278,117,73,-126,-229,-200,-219
-87,-322,-234,204,73,-278,117,78,-131,-263,-200,-209
-87,-312,-224,200,68,-268,107,78,-141,-278,-229,-219
-92,-317,-224,204,65,-270,117,78,-141,-287,-224,-229
-92,-331,-239,212,73,-285,117,78,-141,-307,-229,-224
-97,-331,-234,214,68,-283,117,78,-136,-263,-234,-234
-97,-341,-244,219,73,-292,126,78,-126,-258,-219,-244
-97,-341,-244,219,73,-292,126,82,-126,-258,-224,-229
-97,-341,-244,219,73,-292,126,82,-141,-234,-229,-229
-97,-341,-244,219,73,-292,126,82,-151,-287,-219,-224
-107,-331,-224,219,58,-278,117,78,-161,-292,-244,-204
-107,-331,-224,219,58,-278,117,78,-161,-292,-244,-229
-107,-341,-234,224,63,-287,126,82,-161,-331,-234,-229
-112,-346,-234,229,61,-290,126,82,-156,-292,-248,-234
-112,-361,-248,236,68,-305,136,82,-146,-292,-224,-258
-112,-361,-248,236,68,-305,136,82,-146,-292,-229,-244
-112,-356,-244,234,65,-300,131,82,-165,-278,-239,-244
-112,-356,-244,234,65,-300,131,82,-175,-302,-229,-239
-112,-346,-234,229,61,-290,126,82,-190,-322,-244,-219
-117,-346,-229,231,56,-287,126,82,-190,-326,-253,-239
-122,-356,-234,239,56,-295,136,82,-190,-351,-248,-244
-122,-366,-244,244,61,-305,136,82,-190,-326,-268,-248
-122,-375,-253,248,65,-314,136,82,-180,-317,-268,-273
-122,-380,-258,251,68,-319,136,87,-195,-322,-263,-263
-122,-380,-258,251,68,-319,136,87,-200,-326,-268,-258
-122,-380,-258,251,68,-319,136,87,-209,-336,-268,-258
-122,-380,-258,251,68,-319,136,87,-219,-366,-263,-239
-131,-380,-248,256,58,-314,136,87,-229,-361,-287,-253
-131,-385,-253,258,61,-319,141,87,-229,-375,-283,-268
-131,-390,-258,261,63,-324,141,87,-229,-390,-287,-268
-136,-385,-248,261,56,-317,151,87,-234,-375,-312,-292
-136,-400,-263,268,63,-331,151,87,-239,-385,-292,-292
-141,-400,-258,270,58,-329,151,87,-244,-405,-292,-278
-141,-395,-253,268,56,-324,156,87,-258,-395,-292,-287
-131,-385,-253,258,61,-319,146,87,-273,-434,-287,-283
-141,-385,-244,263,51,-314,151,87,-283,-448,-322,-278
-146,-400,-253,273,53,-326,151,87,-297,-453,-331,-292
-151,-414,-263,283,56,-339,156,87,-302,-483,-331,-297
-156,-424,-268,290,56,-346,156,87,-302,-468,-361,-302
-156,-424,-268,290,56,-346,156,87,-317,-478,-336,-322
-156,-429,-273,292,58,-351,156,87,-326,-502,-336,-302
-161,-429,-268,295,53,-348,156,87,-346,-512,-346,-302
-165,-419,-253,292,43,-336,156,87,-361,-531,-336,-292
-170,-419,-248,295,39,-334,161,87,-375,-556,-361,-283
-170,-419,-248,295,39,-334,161,87,-400,-566,-380,-307
-175,-439,-263,307,43,-351,170,87,-405,-600,-385,-322
-180,-448,-268,314,43,-358,180,82,-419,-614,-409,-331
-180,-453,-273,317,46,-363,175,82,-434,-610,-409,-346
-180,-453,-273,317,46,-363,175,82,-453,-629,-400,-331
-190,-448,-258,319,34,-353,175,82,-473,-644,-409,-331
-190,-448,-258,319,34,-353,165,82,-488,-658,-400,-331
-190,-448,-258,319,34,-353,165,82,-502,-692,-409,-331
-195,-453,-258,324,31,-356,165,82,-512,-712,-448,-346
-195,-458,-263,326,34,-361,175,82,-522,-732,-453,-356
-200,-473,-273,336,36,-373,175,82,-536,-780,-478,-366
-200,-478,-278,339,39,-378,175,82,-546,-766,-492,-380
-200,-478,-278,339,39,-378,175,82,-561,-775,-478,-390
-200,-478,-278,339,39,-378,175,82,-570,-780,-478,-375
-200,-478,-278,339,39,-378,170,82,-595,-771,-473,-366
-200,-478,-278,339,39,-378,170,87,-610,-824,-473,-366
-200,-478,-278,339,39,-378,170,87,-624,-844,-502,-356
-195,-478,-283,336,43,-380,170,87,-629,-858,-507,-380
-204,-478,-273,341,34,-375,180,97,-634,-897,-512,-390
-204,-478,-273,341,34,-375,180,97,-639,-878,-536,-395
-195,-473,-278,334,41,-375,170,97,-644,-883,-512,-405
-190,-468,-278,329,43,-373,170,97,-649,-888,-512,-385
-185,-453,-268,319,41,-361,165,87,-658,-873,-512,-380
-180,-448,-268,314,43,-358,161,92,-658,-893,-497,-375
-175,-439,-263,307,43,-351,156,92,-653,-902,-507,-361
-170,-429,-258,300,43,-344,156,92,-649,-902,-507,-370
-161,-419,-258,290,48,-339,156,92,-639,-907,-507,-380
-156,-405,-248,280,46,-326,151,92,-624,-893,-522,-375
-141,-395,-253,268,56,-324,146,92,-614,-858,-497,-375
-131,-385,-253,258,61,-319,141,97,-605,-844,-478,-356
-122,-375,-253,248,65,-314,126,107,-600,-819,-483,-346
-112,-356,-244,234,65,-300,122,107,-585,-795,-453,-341
-102,-341,-239,222,68,-290,117,107,-561,-785,-444,-322
-92,-326,-234,209,70,-280,112,102,-541,-766,-444,-322
-82,-317,-234,200,75,-275,107,102,-527,-746,-434,-322
-73,-302,-229,187,78,-265,102,102,-492,-741,-419,-307
-63,-287,-224,175,80,-256,102,102,-463,-688,-419,-302
-53,-273,-219,163,82,-246,97,102,-434,-658,-380,-287
-34,-263,-229,148,97,-246,97,102,-395,-614,-361,-273
-24,-239,-214,131,95,-226,87,97,-370,-561,-336,-253
-9,-219,-209,114,100,-214,82,97,-341,-551,-307,-234
0,-200,-200,100,100,-200,78,92,-312,-527,-307,-214
4,-190,-195,92,100,-192,73,102,-292,-488,-302,-200
14,-180,-195,82,104,-187,73,102,-253,-478,-278,-185
14,-165,-180,75,97,-173,68,92,-214,-409,-278,-175
19,-151,-170,65,95,-161,63,87,-190,-366,-229,-170
39,-146,-185,53,112,-165,63,82,-151,-331,-200,-156
43,-122,-165,39,104,-143,48,78,-131,-283,-190,-136
48,-102,-151,26,100,-126,48,73,-112,-263,-161,-126
53,-92,-146,19,100,-119,43,73,-92,-248,-156,-102
53,-78,-131,12,92,-104,39,68,-87,-229,-136,-97
53,-73,-126,9,90,-100,34,63,-73,-219,-126,-87
58,-68,-126,4,92,-97,34,63,-48,-190,-126,-82
63,-58,-122,-2,92,-90,29,63,-29,-146,-102,-78
68,-53,-122,-7,95,-87,14,63,-14,-112,-92,-58
73,-39,-112,-17,92,-75,9,58,-4,-82,-82,-53
73,-24,-97,-24,85,-61,4,53,0,-73,-58,-48
73,-19,-92,-26,82,-56,0,48,9,-73,-58,-39
82,-9,-92,-36,87,-51,-9,48,14,-68,-48,-29
82,-9,-92,-36,87,-51,-9,48,19,-63,-39,-29
82,-4,-87,-39,85,-46,-9,48,29,-63,-39,-29
82,-4,-87,-39,85,-46,-19,43,39,-19,-39,-29
73,-4,-78,-34,75,-41,-14,43,43,0,-19,-39
73,4,-68,-39,70,-31,-19,39,53,14,-14,-14
78,9,-68,-43,73,-29,-19,39,58,39,-19,-14
78,14,-63,-46,70,-24,-19,39,63,19,0,-9
78,29,-48,-53,63,-9,-19,29,63,29,-14,14
78,29,-48,-53,63,-9,-19,29,63,29,-9,-4
78,29,-48,-53,63,-9,-19,24,73,19,-4,4
78,29,-48,-53,63,-9,-19,24,73,43,-14,4
78,29,-48,-53,63,-9,-24,29,73,53,4,-4
78,29,-48,-53,63,-9,-24,29,73,53,4,4
78,29,-48,-53,63,-9,-24,29,73,58,9,4
78,29,-48,-53,63,-9,-24,29,73,58,9,4
68,19,-48,-43,58,-14,-24,19,73,58,14,4
68,24,-43,-46,56,-9,-24,19,73,63,14,4
68,24,-43,-46,56,-9,-24,19,73,63,19,9
68,24,-43,-46,56,-9,-24,19,73,63,19,9
68,24,-43,-46,56,-9,-29,19,73,73,19,9
68,24,-43,-46,56,-9,-29,19,73,73,19,9
68,24,-43,-46,56,-9,-29,14,73,73,19,9
68,24,-43,-46,56,-9,-29,14,78,78,19,9
58,24,-34,-41,46,-4,-29,24,78,78,29,9
58,24,-34,-41,46,-4,-29,24,73,78,29,9
58,24,-34,-41,46,-4,-29,24,73,78,29,9
58,24,-34,-41,46,-4,-29,24,73,78,29,9
58,24,-34,-41,46,-4,-29,14,73,78,19,9
58,24,-34,-41,46,-4,-29,14,73,78,19,9
53,24,-29,-39,41,-2,-29,14,73,78,19,14
53,24,-29,-39,41,-2,-29,14,73,73,19,14
53,24,-29,-39,41,-2,-39,14,58,63,19,14
53,24,-29,-39,41,-2,-39,14,58,63,19,14
53,24,-29,-39,41,-2,-39,14,58,63,19,14
53,24,-29,-39,41,-2,-39,14,53,63,19,14
53,24,-29,-39,41,-2,-39,14,53,53,9,14
48,24,-24,-36,36,0,-39,14,53,48,9,14
48,24,-24,-36,36,0,-39,14,53,48,9,14
48,24,-24,-36,36,0,-39,14,53,48,4,9
48,34,-14,-41,31,9,-34,14,53,58,14,9
43,29,-14,-36,29,7,-34,14,48,58,14,9
43,29,-14,-36,29,7,-34,14,48,58,14,9
43,29,-14,-36,29,7,-34,9,48,58,14,9
43,29,-14,-36,29,7,-34,9,43,68,24,19
43,24,-19,-34,31,2,-34,9,43,63,24,19
43,24,-19,-34,31,2,-34,9,43,63,19,19
39,24,-14,-31,26,4,-34,9,43,63,19,14
39,34,-4,-36,21,14,-34,9,48,63,19,14
39,24,-14,-31,26,4,-34,9,48,68,19,14
39,24,-14,-31,26,4,-34,9,39,68,24,14
34,24,-9,-29,21,7,-34,9,39,68,24,14
29,29,0,-29,14,14,-29,9,39,68,19,19
29,19,-9,-24,19,4,-29,0,29,58,9,19
29,19,-9,-24,19,4,-29,0,29,58,9,19
29,19,-9,-24,19,4,-29,0,29,58,9,19
29,19,-9,-24,19,4,-29,0,29,58,9,19
19,19,0,-19,9,9,-19,0,29,48,9,9
19,19,0,-19,9,9,-14,0,24,48,9,9
19,19,0,-19,9,9,-14,0,24,43,9,14
19,19,0,-19,9,9,-14,0,24,43,9,14
19,19,0,-19,9,9,-4,0,24,43,9,14
19,24,4,-21,7,14,-4,0,24,43,14,14
24,29,4,-26,9,17,4,0,34,48,14,19
24,34,9,-29,7,21,9,0,39,48,14,19
24,39,14,-31,4,26,14,4,29,48,4,19
24,43,19,-34,2,31,19,4,34,48,14,19
29,48,19,-39,4,34,24,4,39,48,14,24
34,53,19,-43,7,36,29,4,43,53,14,24
24,58,34,-41,-4,46,29,4,43,58,24,24
24,63,39,-43,-7,51,39,4,48,63,29,29
34,73,39,-53,-2,56,43,4,53,68,34,34
34,78,43,-56,-4,61,48,9,58,73,39,39
29,73,43,-51,-7,58,43,0,53,78,39,43
29,78,48,-53,-9,63,48,0,58,82,43,43
34,82,48,-58,-7,65,48,0,63,82,43,43
34,87,53,-61,-9,70,48,0,68,82,43,43
34,92,58,-63,-12,75,39,0,58,78,53,53
34,92,58,-63,-12,75,39,0,58,78,58,58
39,92,53,-65,-7,73,29,0,58,82,58,58
39,97,58,-68,-9,78,14,-9,63,82,58,63
43,97,53,-70,-4,75,-4,-9,63,82,68,63
43,102,58,-73,-7,80,-14,-14,63,82,68,63
43,102,58,-73,-7,80,-24,-19,53,78,63,63
48,102,53,-75,-2,78,-43,-24,48,73,53,63
48,112,63,-80,-7,87,-53,-29,53,78,58,68
48,112,63,-80,-7,87,-63,-29,48,73,58,63
48,107,58,-78,-4,82,-63,-29,34,68,58,63
53,107,53,-80,0,80,-68,-29,34,63,58,58
53,107,53,-80,0,80,-87,-29,19,58,43,58
53,102,48,-78,2,75,-87,-29,19,53,43,58
53,102,48,-78,2,75,-92,-29,9,48,39,53
53,97,43,-75,4,70,-97,-29,4,43,39,53
63,107,43,-85,9,75,-92,-29,0,39,34,53
63,107,43,-85,9,75,-92,-29,-4,34,34,48
63,107,43,-85,9,75,-92,-29,-9,34,34,48
63,107,43,-85,9,75,-92,-29,-9,39,34,48
68,97,29,-82,19,63,-92,-34,-19,34,24,39
68,97,29,-82,19,63,-92,-34,-19,29,29,39
68,102,34,-85,17,68,-92,-39,-19,24,29,39
68,102,34,-85,17,68,-92,-39,-19,19,29,39
78,117,39,-97,19,78,-92,-48,-19,19,29,39
78,117,39,-97,19,78,-92,-48,-19,19,29,39
78,117,39,-97,19,78,-87,-48,-19,19,29,39
78,117,39,-97,19,78,-87,-48,-19,29,29,39
78,126,48,-102,14,87,-97,-48,-19,29,19,48
73,117,43,-95,14,80,-87,-48,-19,29,24,48
68,112,43,-90,12,78,-82,-48,-19,29,24,48
63,107,43,-85,9,75,-82,-48,-19,29,24,48
58,112,53,-85,2,82,-78,-48,-9,39,24,48
53,97,43,-75,4,70,-73,-43,-9,39,14,39
48,87,39,-68,4,63,-68,-43,-9,34,9,34
39,78,39,-58,0,58,-68,-39,-9,34,9,34
34,58,24,-46,4,41,-63,-39,-9,34,4,29
29,48,19,-39,4,34,-58,-39,-9,34,0,24
24,39,14,-31,4,26,-48,-34,-9,29,0,19
19,29,9,-24,4,19,-43,-34,-9,24,-4,14
9,9,0,-9,4,4,-34,-24,-24,24,4,4
9,9,0,-9,4,4,-29,-24,-24,24,-4,0
9,4,-4,-7,7,0,-29,-19,-24,19,-4,-4
4,0,-4,-2,4,-2,-29,-14,-29,19,-4,-9
4,-9,-14,2,9,-12,-29,-4,-29,19,-4,-19
4,-19,-24,7,14,-21,-29,-4,-34,19,-4,-19
4,-24,-29,9,17,-26,-29,-4,-34,19,-9,-19
4,-29,-34,12,19,-31,-29,-4,-34,19,-9,-19
4,-29,-34,12,19,-31,-29,-4,-34,19,-19,-19
4,-34,-39,14,21,-36,-29,-4,-39,19,-19,-19
4,-34,-39,14,21,-36,-29,0,-39,19,-19,-19
4,-34,-39,14,21,-36,-29,0,-39,19,-14,-19
4,-34,-39,14,21,-36,-29,-9,-39,14,-14,-19
4,-34,-39,14,21,-36,-29,-9,-34,14,-14,-19
4,-34,-39,14,21,-36,-29,-9,-34,9,-14,-19
4,-34,-39,14,21,-36,-29,-9,-34,4,-14,-19
0,-34,-34,17,17,-34,-29,-19,-24,29,-14,-19
0,-24,-24,12,12,-24,-29,-9,-19,29,0,-19
9,-34,-43,12,26,-39,-29,-9,-19,39,9,-9
-4,-34,-29,19,12,-31,-19,-4,-9,48,4,-19
-4,-48,-43,26,19,-46,-14,4,0,48,9,-19
4,-58,-63,26,34,-61,9,19,24,68,19,-19
0,-58,-58,29,29,-58,24,29,68,97,34,-9
-24,-39,-14,31,-4,-26,34,19,131,185,97,34
-48,-4,43,26,-46,19,34,-19,224,297,161,78
-48,48,97,0,-73,73,48,-29,331,434,258,141
-34,97,131,-31,-82,114,48,-29,458,600,356,204
14,185,170,-100,-78,178,39,-29,614,790,488,283
78,302,224,-190,-73,263,29,-24,819,1054,644,385
141,448,307,-295,-82,378,29,-14,1098,1376,839,522
219,614,395,-417,-87,505,43,0,1464,1786,1073,673
287,805,517,-546,-114,661,73,0,1927,2249,1346,858
366,1054,688,-710,-161,871,82,-29,2400,2752,1649,1073
434,1322,888,-878,-226,1105,53,-82,2786,3215,1947,1293
502,1581,1078,-1041,-287,1329,-34,-161,3015,3606,2225,1498
541,1820,1278,-1180,-368,1549,-122,-253,3079,3899,2440,1688
551,2015,1464,-1283,-456,1739,-200,-341,3025,4108,2601,1844
527,2186,1659,-1356,-566,1922,-278,-448,2928,4250,2757,1971
463,2366,1903,-1415,-719,2135,-370,-585,2835,4411,2898,2137
361,2562,2200,-1461,-919,2381,-458,-761,2698,4538,3030,2298
239,2708,2469,-1473,-1115,2588,-546,-951,2479,4572,3123,2430
151,2810,2659,-1481,-1254,2735,-634,-1112,2205,4523,3123,2498
112,2840,2727,-1476,-1307,2784,-732,-1190,1917,4357,3064,2498
112,2781,2669,-1446,-1278,2725,-785,-1180,1571,4040,2903,2420
73,2640,2566,-1356,-1246,2603,-834,-1132,1146,3581,2649,2278
19,2435,2415,-1227,-1198,2425,-873,-1078,683,2971,2357,2088
-29,2171,2200,-1071,-1115,2186,-907,-1005,244,2254,1952,1854
-48,1869,1917,-910,-983,1893,-941,-897,-107,1551,1483,1537
-48,1571,1620,-761,-834,1595,-941,-761,-366,976,1063,1244
-39,1293,1332,-627,-685,1312,-897,-619,-551,453,722,966
-29,1024,1054,-497,-541,1039,-819,-473,-736,-24,356,717
-14,775,790,-380,-402,783,-717,-356,-941,-429,68,444
-14,536,551,-261,-283,544,-585,-248,-1044,-707,-136,234
-24,302,326,-139,-175,314,-434,-141,-961,-771,-302,53
-29,92,122,-31,-75,107,-283,-53,-780,-712,-370,-117
-43,-63,-19,53,-12,-41,-161,9,-624,-629,-375,-185
-48,-136,-87,92,19,-112,-97,39,-497,-522,-375,-224
-48,-170,-122,109,36,-146,-53,53,-414,-439,-326,-219
-48,-200,-151,124,51,-175,-14,63,-336,-400,-302,-200
-48,-219,-170,134,61,-195,19,68,-287,-366,-302,-219
-48,-229,-180,139,65,-204,39,73,-248,-341,-287,-219
-53,-248,-195,151,70,-222,58,63,-219,-351,-287,-219
-53,-248,-195,151,70,-222,63,58,-200,-302,-287,-229
-63,-263,-200,163,68,-231,53,58,-195,-287,-253,-229
-63,-263,-200,163,68,-231,53,58,-185,-283,-244,-200
-63,-258,-195,161,65,-226,53,58,-185,-229,-234,-195
-53,-258,-204,156,75,-231,53,58,-185,-278,-200,-190
-58,-258,-200,158,70,-229,63,48,-195,-273,-234,-170
-58,-258,-200,158,70,-229,68,48,-190,-273,-234,-190
-63,-273,-209,168,73,-241,73,48,-180,-312,-234,-190
-63,-273,-209,168,73,-241,73,58,-170,-273,-268,-190
-63,-283,-219,173,78,-251,73,58,-165,-273,-229,-224
-63,-283,-219,173,78,-251,82,58,-156,-263,-229,-190
-63,-278,-214,170,75,-246,73,48,-156,-229,-239,-190
-63,-278,-214,170,75,-246,73,58,-161,-248,-200,-195
-63,-278,-214,170,75,-246,82,58,-170,-258,-229,-170
-58,-287,-229,173,85,-258,78,58,-170,-268,-244,-200
-58,-287,-229,173,85,-258,82,58,-170,-302,-234,-195
-58,-292,-234,175,87,-263,92,58,-161,-287,-258,-200
-68,-292,-224,180,78,-258,82,58,-156,-273,-244,-219
-68,-292,-224,180,78,-258,92,58,-156,-258,-239,-200
-68,-292,-224,180,78,-258,82,58,-156,-239,-239,-200
-68,-287,-219,178,75,-253,82,58,-165,-239,-224,-200
-68,-287,-219,178,75,-253,82,58,-170,-278,-224,-185
-68,-278,-209,173,70,-244,82,58,-170,-283,-253,-195
-58,-283,-224,170,82,-253,92,48,-180,-297,-253,-224
-58,-287,-229,173,85,-258,92,48,-170,-317,-263,-224
-63,-292,-229,178,82,-261,92,48,-161,-273,-273,-234
-63,-292,-229,178,82,-261,92,53,-161,-273,-239,-234
-73,-292,-219,183,73,-256,82,43,-161,-273,-248,-209
-73,-287,-214,180,70,-251,82,43,-170,-239,-244,-209
-73,-287,-214,180,70,-251,82,43,-175,-297,-219,-204
-73,-287,-214,180,70,-251,82,43,-175,-307,-263,-204
-68,-297,-229,183,80,-263,92,53,-185,-322,-253,-229
-68,-307,-239,187,85,-273,92,58,-175,-351,-253,-229
-68,-312,-244,190,87,-278,92,58,-175,-307,-292,-234
-68,-317,-248,192,90,-283,92,58,-175,-302,-253,-258
-68,-317,-248,192,90,-283,92,58,-170,-292,-244,-224
-68,-312,-244,190,87,-278,87,58,-175,-268,-244,-219
-68,-312,-244,190,87,-278,87,58,-175,-292,-224,-214
-68,-307,-239,187,85,-273,92,63,-175,-317,-244,-204
-78,-307,-229,192,75,-268,92,63,-175,-312,-253,-224
-78,-317,-239,197,80,-278,102,63,-165,-341,-253,-234
-78,-322,-244,200,82,-283,102,63,-165,-326,-278,-234
-78,-326,-248,202,85,-287,102,63,-161,-297,-263,-248
-87,-326,-239,207,75,-283,102,63,-161,-297,-248,-239
-87,-326,-239,207,75,-283,97,63,-165,-287,-248,-234
-87,-322,-234,204,73,-278,97,63,-175,-287,-239,-234
-87,-322,-234,204,73,-278,97,68,-180,-322,-239,-219
-87,-312,-224,200,68,-268,107,68,-190,-336,-273,-224
-92,-317,-224,204,65,-270,117,68,-190,-346,-273,-239
-92,-331,-239,212,73,-285,117,68,-190,-366,-283,-239
-97,-331,-234,214,68,-283,117,68,-185,-322,-292,-253
-97,-331,-234,214,68,-283,107,68,-185,-326,-273,-263
-97,-331,-234,214,68,-283,107,73,-185,-326,-273,-248
-97,-331,-234,214,68,-283,107,73,-200,-302,-273,-248
-97,-331,-234,214,68,-283,107,73,-209,-356,-258,-244
-97,-341,-244,219,73,-292,107,68,-209,-380,-292,-234
-97,-341,-244,219,73,-292,107,68,-209,-380,-302,-258
-97,-351,-253,224,78,-302,117,73,-209,-419,-302,-258
-102,-356,-253,229,75,-305,117,73,-204,-380,-326,-263
-102,-361,-258,231,78,-309,117,73,-204,-380,-302,-287
-102,-361,-258,231,78,-309,117,73,-204,-380,-297,-273
-102,-356,-253,229,75,-305,112,73,-224,-366,-297,-273
-102,-356,-253,229,75,-305,112,73,-234,-390,-278,-268
-102,-356,-253,229,75,-305,117,82,-239,-414,-297,-248
-107,-356,-248,231,70,-302,117,82,-239,-424,-312,-268
-112,-366,-253,239,70,-309,126,82,-239,-453,-312,-273
-112,-375,-263,244,75,-319,126,82,-239,-434,-336,-278
-112,-366,-253,239,70,-309,117,73,-229,-414,-322,-292
-112,-370,-258,241,73,-314,117,78,-244,-419,-312,-283
-112,-370,-258,241,73,-314,117,78,-248,-424,-312,-278
-112,-370,-258,241,73,-314,117,78,-258,-434,-307,-278
-112,-370,-258,241,73,-314,117,78,-268,-473,-312,-268
-122,-370,-248,246,63,-309,117,78,-278,-478,-346,-283
-122,-375,-253,248,65,-314,122,78,-278,-502,-351,-297
-122,-380,-258,251,68,-319,122,78,-278,-527,-366,-297
-126,-395,-268,261,70,-331,131,78,-292,-507,-390,-322
-126,-409,-283,268,78,-346,131,78,-297,-512,-370,-322
-131,-409,-278,270,73,-344,131,78,-302,-527,-370,-307
-131,-405,-273,268,70,-339,136,78,-317,-512,-370,-317
-131,-409,-278,270,73,-344,136,87,-322,-561,-370,-317
-141,-414,-273,278,65,-344,141,87,-331,-585,-409,-317
-146,-434,-287,290,70,-361,141,87,-346,-600,-424,-336
-151,-453,-302,302,75,-378,146,87,-351,-639,-429,-346
-146,-463,-317,305,85,-390,146,87,-361,-624,-463,-361
-146,-463,-317,305,85,-390,146,87,-375,-634,-444,-380
-146,-468,-322,307,87,-395,146,87,-385,-658,-448,-361
-151,-468,-317,309,82,-392,146,87,-405,-668,-463,-361
-156,-468,-312,312,78,-390,146,87,-409,-697,-448,-361
-161,-468,-307,314,73,-387,151,87,-424,-732,-478,-351
-161,-468,-307,314,73,-387,151,87,-448,-751,-502,-375
-165,-488,-322,326,78,-405,161,87,-453,-795,-512,-390
-161,-488,-326,324,82,-407,161,92,-458,-810,-546,-400
-161,-492,-331,326,85,-412,156,92,-473,-805,-546,-414
-161,-492,-331,326,85,-412,156,92,-492,-824,-536,-400
-170,-488,-317,329,73,-402,156,92,-512,-839,-546,-400
-170,-497,-326,334,78,-412,156,92,-531,-863,-556,-405
-170,-497,-326,334,78,-412,156,92,-551,-907,-566,-409
-175,-502,-326,339,75,-414,156,92,-566,-936,-605,-429
-175,-507,-331,341,78,-419,165,92,-580,-966,-610,-444
-180,-512,-331,346,75,-422,156,92,-585,-1010,-629,-453
-180,-517,-336,348,78,-427,156,92,-595,-1000,-649,-468
-180,-517,-336,348,78,-427,156,92,-610,-1015,-639,-478
-180,-517,-336,348,78,-427,156,92,-619,-1024,-644,-463
