I,II,III,aVR,aVL,aVF,V1,V2,V3,V4,V5,V6,
-117,48,165,34,-141,107,78,9,107,48,19,-9
-117,48,165,34,-141,107,78,9,107,48,19,-9
-117,48,165,34,-141,107,78,9,107,48,19,-9
-117,48,165,34,-141,107,78,9,107,48,19,-9
-126,58,185,34,-156,122,68,9,117,58,19,-9
-126,58,185,34,-156,122,68,9,117,58,19,-9
-126,58,185,34,-156,122,68,9,117,58,19,-9
-126,58,185,34,-156,122,68,9,117,58,19,-9
-126,58,185,34,-156,122,68,9,126,58,19,-9
-126,58,185,34,-156,122,68,9,126,58,19,-9
-126,58,185,34,-156,122,68,9,126,58,19,-9
-126,58,185,34,-156,122,68,9,126,58,19,-9
-117,68,185,24,-151,126,78,19,131,63,29,0
-117,68,185,24,-151,126,78,19,136,68,29,0
-117,68,185,24,-151,126,78,19,141,73,29,0
-117,68,185,24,-151,126,78,19,146,78,29,0
-126,68,195,29,-161,131,68,29,151,87,39,-9
-126,68,195,29,-161,131,68,29,156,87,39,-9
-126,68,195,29,-161,131,68,29,161,87,39,-9
-126,68,195,29,-161,131,68,29,165,87,39,-9
-126,78,204,24,-165,141,68,39,170,92,39,0
-126,78,204,24,-165,141,68,39,175,97,39,0
-126,78,204,24,-165,141,68,39,180,102,39,0
-126,78,204,24,-165,141,68,39,185,107,39,0
-126,87,214,19,-170,151,68,43,200,112,48,0
-126,87,214,19,-170,151,68,48,204,117,48,0
-126,87,214,19,-170,151,68,53,209,122,48,0
-126,87,214,19,-170,151,68,58,214,126,48,0
-117,97,214,9,-165,156,58,68,229,131,53,0
-117,97,214,9,-165,156,58,68,234,136,58,0
-117,97,214,9,-165,156,58,68,239,141,63,0
-117,97,214,9,-165,156,58,68,244,146,68,0
-107,102,209,2,-158,156,58,73,263,151,78,0
-107,107,214,0,-161,161,58,78,273,156,78,0
-107,112,219,-2,-163,165,58,82,283,161,78,0
-107,117,224,-4,-165,170,58,87,292,165,78,0
-107,126,234,-9,-170,180,58,102,312,175,82,9
-107,126,234,-9,-170,180,58,107,322,185,87,9
-107,126,234,-9,-170,180,58,112,331,195,92,9
-107,126,234,-9,-170,180,58,117,341,204,97,9
-102,131,234,-14,-168,183,58,131,361,214,107,19
-97,136,234,-19,-165,185,58,136,370,224,107,19
-92,141,234,-24,-163,187,58,141,380,234,107,19
-87,146,234,-29,-161,190,58,146,390,244,107,19
-87,161,248,-36,-168,204,48,161,414,258,112,19
-87,165,253,-39,-170,209,48,165,429,263,117,19
-87,170,258,-41,-173,214,48,170,444,268,122,19
-87,175,263,-43,-175,219,48,175,458,273,126,19
-73,185,258,-56,-165,222,39,185,483,292,141,19
-68,185,253,-58,-161,219,39,195,497,302,146,19
-63,185,248,-61,-156,217,39,204,512,312,151,19
-58,185,244,-63,-151,214,39,214,527,322,156,19
-43,190,234,-73,-139,212,29,224,541,331,161,24
-39,195,234,-78,-136,214,29,234,556,341,165,29
-34,200,234,-82,-134,217,29,244,570,351,170,34
-29,204,234,-87,-131,219,29,253,585,361,175,39
-19,209,229,-95,-124,219,19,263,600,370,180,48
-9,214,224,-102,-117,219,19,273,614,380,185,48
0,219,219,-109,-109,219,19,283,629,390,190,48
9,224,214,-117,-102,219,19,292,644,400,195,48
19,234,214,-126,-97,224,14,297,663,409,200,58
29,234,204,-131,-87,219,9,302,673,419,204,58
39,234,195,-136,-78,214,4,307,683,429,209,58
48,234,185,-141,-68,209,0,312,692,439,214,58
58,239,180,-148,-61,209,-14,322,697,444,229,58
68,244,175,-156,-53,209,-19,322,702,448,234,58
78,248,170,-163,-46,209,-24,322,707,453,239,58
87,253,165,-170,-39,209,-29,322,712,458,244,58
97,253,156,-175,-29,204,-34,312,702,468,244,63
107,253,146,-180,-19,200,-39,312,702,468,244,68
117,253,136,-185,-9,195,-43,312,702,468,244,73
126,253,126,-190,0,190,-48,312,702,468,244,78
136,253,117,-195,9,185,-63,297,688,463,244,87
136,253,117,-195,9,185,-68,292,673,458,244,87
136,253,117,-195,9,185,-73,287,658,453,244,87
136,253,117,-195,9,185,-78,283,644,448,244,87
146,253,107,-200,19,180,-87,258,614,434,244,92
146,253,107,-200,19,180,-87,244,595,429,244,97
146,253,107,-200,19,180,-87,229,575,424,244,102
146,253,107,-200,19,180,-87,214,556,419,244,107
131,244,112,-187,9,178,-97,195,517,405,234,117
126,244,117,-185,4,180,-97,175,488,390,234,117
122,244,122,-183,0,183,-97,156,458,375,234,117
117,244,126,-180,-4,185,-97,136,429,361,234,117
107,234,126,-170,-9,180,-97,112,395,341,224,126
107,234,126,-170,-9,180,-97,97,370,331,224,126
107,234,126,-170,-9,180,-97,82,346,322,224,126
107,234,126,-170,-9,180,-97,68,322,312,224,126
97,219,122,-158,-12,170,-87,48,292,292,209,126
87,214,126,-151,-19,170,-87,39,263,273,204,126
78,209,131,-143,-26,170,-87,29,234,253,200,126
68,204,136,-136,-34,170,-87,19,204,234,195,126
53,190,136,-122,-41,163,-82,4,185,214,180,126
48,185,136,-117,-43,161,-78,0,165,204,175,126
43,180,136,-112,-46,158,-73,-4,146,195,170,126
39,175,136,-107,-48,156,-68,-9,126,185,165,126
29,161,131,-95,-51,146,-63,-24,107,161,156,122
19,156,136,-87,-58,146,-58,-29,87,146,146,117
9,151,141,-80,-65,146,-53,-34,68,131,136,112
0,146,146,-73,-73,146,-48,-39,48,117,126,107
-14,141,156,-63,-85,148,-43,-48,34,102,122,97
-19,136,156,-58,-87,146,-39,-48,29,97,117,97
-24,131,156,-53,-90,143,-34,-48,24,92,112,97
-29,126,156,-48,-92,141,-29,-48,19,87,107,97
-34,112,146,-39,-90,129,-19,-53,9,78,92,87
-39,107,146,-34,-92,126,-19,-58,0,68,87,87
-43,102,146,-29,-95,124,-19,-63,-9,58,82,87
-48,97,146,-24,-97,122,-19,-68,-19,48,78,87
-53,87,141,-17,-97,114,-9,-58,-29,39,68,82
-58,87,146,-14,-102,117,-9,-58,-29,39,68,78
-63,87,151,-12,-107,119,-9,-58,-29,39,68,73
-68,87,156,-9,-112,122,-9,-58,-29,39,68,68
-68,78,146,-4,-107,112,0,-68,-34,34,63,58
-68,78,146,-4,-107,112,0,-68,-39,29,58,58
-68,78,146,-4,-107,112,0,-68,-43,24,53,58
-68,78,146,-4,-107,112,0,-68,-48,19,48,58
-68,68,136,0,-102,102,0,-68,-48,9,48,48
-68,68,136,0,-102,102,0,-68,-48,9,48,48
-68,68,136,0,-102,102,0,-68,-48,9,48,48
-68,68,136,0,-102,102,0,-68,-48,9,48,48
-78,68,146,4,-112,107,9,-68,-48,9,48,48
-78,68,146,4,-112,107,9,-68,-48,9,48,48
-78,68,146,4,-112,107,9,-68,-48,9,48,48
-78,68,146,4,-112,107,9,-68,-48,9,48,48
-78,58,136,9,-107,97,9,-78,-48,9,39,48
-78,58,136,9,-107,97,9,-78,-48,9,39,48
-78,58,136,9,-107,97,9,-78,-48,9,39,48
-78,58,136,9,-107,97,9,-78,-48,9,39,48
-78,58,136,9,-107,97,9,-68,-48,9,29,48
-78,58,136,9,-107,97,9,-68,-48,9,29,48
-78,58,136,9,-107,97,9,-68,-48,9,29,48
-78,58,136,9,-107,97,9,-68,-48,9,29,48
-78,48,126,14,-102,87,19,-68,-58,9,39,48
-78,48,126,14,-102,87,19,-68,-58,9,39,48
-78,48,126,14,-102,87,19,-68,-58,9,39,48
-78,48,126,14,-102,87,19,-68,-58,9,39,48
-87,39,126,24,-107,82,19,-68,-48,9,39,39
-87,39,126,24,-107,82,19,-68,-48,9,39,39
-87,39,126,24,-107,82,19,-68,-48,9,39,39
-87,39,126,24,-107,82,19,-68,-48,9,39,39
-78,43,122,17,-100,82,9,-68,-58,0,29,29
-78,48,126,14,-102,87,9,-68,-58,0,29,29
-78,53,131,12,-104,92,9,-68,-58,0,29,29
-78,58,136,9,-107,97,9,-68,-58,0,29,29
-78,48,126,14,-102,87,19,-68,-48,0,39,29
-78,48,126,14,-102,87,19,-68,-48,0,39,29
-78,48,126,14,-102,87,19,-68,-48,0,39,29
-78,48,126,14,-102,87,19,-68,-48,0,39,29
-78,48,126,14,-102,87,9,-68,-58,0,29,29
-78,48,126,14,-102,87,9,-68,-58,0,29,29
-78,48,126,14,-102,87,9,-68,-58,0,29,29
-78,48,126,14,-102,87,9,-68,-58,0,29,29
-78,58,136,9,-107,97,9,-68,-58,0,19,29
-78,58,136,9,-107,97,9,-68,-58,0,19,29
-78,58,136,9,-107,97,9,-68,-58,0,19,29
-78,58,136,9,-107,97,9,-68,-58,0,19,29
-87,48,136,19,-112,92,19,-78,-48,0,29,29
-87,48,136,19,-112,92,19,-78,-48,0,29,29
-87,48,136,19,-112,92,19,-78,-48,0,29,29
-87,48,136,19,-112,92,19,-78,-48,0,29,29
-87,48,136,19,-112,92,19,-68,-48,9,29,29
-87,48,136,19,-112,92,19,-68,-48,9,29,29
-87,48,136,19,-112,92,19,-68,-48,9,29,29
-87,48,136,19,-112,92,19,-68,-48,9,29,29
-78,48,126,14,-102,87,19,-68,-48,9,29,29
-78,48,126,14,-102,87,19,-68,-48,9,29,29
-78,48,126,14,-102,87,19,-68,-48,9,29,29
-78,48,126,14,-102,87,19,-68,-48,9,29,29
-78,48,126,14,-102,87,19,-68,-48,9,29,19
-78,48,126,14,-102,87,19,-68,-48,9,29,19
-78,48,126,14,-102,87,19,-68,-48,9,29,19
-78,48,126,14,-102,87,19,-68,-48,9,29,19
-87,48,136,19,-112,92,29,-58,-43,9,29,29
-87,48,136,19,-112,92,29,-58,-39,9,29,29
-87,48,136,19,-112,92,29,-58,-34,9,29,29
-87,48,136,19,-112,92,29,-58,-29,9,29,29
-87,58,146,14,-117,102,19,-58,-29,19,39,29
-87,58,146,14,-117,102,19,-58,-29,19,39,29
-87,58,146,14,-117,102,19,-58,-29,19,39,29
-87,58,146,14,-117,102,19,-58,-29,19,39,29
-87,58,146,14,-117,102,19,-68,-29,19,39,29
-87,58,146,14,-117,102,19,-68,-29,19,39,29
-87,58,146,14,-117,102,19,-68,-29,19,39,29
-87,58,146,14,-117,102,19,-68,-29,19,39,29
-87,68,156,9,-122,112,29,-58,-19,19,39,29
-87,68,156,9,-122,112,29,-58,-19,19,39,29
-87,68,156,9,-122,112,29,-58,-19,19,39,29
-87,68,156,9,-122,112,29,-58,-19,19,39,29
-78,73,151,2,-114,112,24,-58,-14,24,48,34
-78,78,156,0,-117,117,19,-58,-9,29,48,39
-78,82,161,-2,-119,122,14,-58,-4,34,48,43
-78,87,165,-4,-122,126,9,-58,0,39,48,48
-63,97,161,-17,-112,129,-4,-58,9,53,63,58
-58,107,165,-24,-112,136,-9,-58,9,58,68,58
-53,117,170,-31,-112,143,-14,-58,9,63,73,58
-48,126,175,-39,-112,151,-19,-58,9,68,78,58
-39,136,175,-48,-107,156,-19,-48,24,73,82,63
-34,146,180,-56,-107,163,-24,-48,34,82,92,73
-29,161,190,-65,-109,175,-24,-48,43,87,102,82
-29,161,190,-65,-109,175,-24,-48,53,97,107,87
-24,161,185,-68,-104,173,-34,-43,53,107,107,78
-24,161,185,-68,-104,173,-34,-39,58,107,107,82
-19,161,180,-70,-100,170,-43,-39,58,107,107,82
-19,161,180,-70,-100,170,-48,-39,58,107,107,82
-9,175,185,-82,-97,180,-53,-48,68,117,117,102
-9,175,185,-82,-97,180,-58,-48,73,122,122,102
-4,175,180,-85,-92,178,-73,-53,73,122,126,102
0,180,180,-90,-90,180,-87,-68,63,122,126,107
4,190,185,-97,-90,187,-117,-87,48,122,136,107
9,195,185,-102,-87,190,-141,-112,39,122,136,112
14,204,190,-109,-87,197,-156,-126,29,122,141,117
29,209,180,-119,-75,195,-156,-126,19,122,141,117
29,209,180,-119,-75,195,-165,-136,14,122,136,126
39,214,175,-126,-68,195,-175,-141,9,122,136,136
53,214,161,-134,-53,187,-175,-141,9,122,136,146
63,224,161,-143,-48,192,-175,-136,9,122,146,156
73,244,170,-158,-48,207,-175,-126,14,141,151,151
82,248,165,-165,-41,207,-170,-112,24,141,156,156
82,248,165,-165,-41,207,-161,-112,29,141,161,156
78,244,165,-161,-43,204,-156,-107,29,141,161,156
73,234,161,-153,-43,197,-141,-107,29,131,151,165
68,229,161,-148,-46,195,-131,-112,24,131,151,165
63,224,161,-143,-48,192,-122,-112,19,126,141,165
58,214,156,-136,-48,185,-112,-107,14,117,136,156
48,214,165,-131,-58,190,-102,-107,9,112,141,151
39,204,165,-122,-63,185,-97,-107,4,112,136,146
29,204,175,-117,-73,190,-92,-107,0,107,131,141
24,190,165,-107,-70,178,-87,-107,-4,102,122,136
29,175,146,-102,-58,161,-73,-107,4,97,117,122
14,156,141,-85,-63,148,-68,-107,4,92,107,107
-4,131,136,-63,-70,134,-48,-102,-4,78,97,97
-39,107,146,-34,-92,126,-29,-92,-9,58,78,78
-63,87,151,-12,-107,119,-14,-87,-24,34,63,68
-73,78,151,-2,-112,114,0,-87,-29,29,53,58
-82,63,146,9,-114,104,14,-82,-29,24,48,53
-87,58,146,14,-117,102,19,-78,-29,24,48,53
-87,48,136,19,-112,92,29,-73,-24,29,39,39
-87,48,136,19,-112,92,29,-68,-24,29,39,39
-87,48,136,19,-112,92,34,-68,-24,29,39,34
-87,43,131,21,-109,87,39,-63,-24,29,29,29
-97,29,126,34,-112,78,43,-48,-24,19,34,39
-97,29,126,34,-112,78,43,-48,-24,19,29,29
-97,24,122,36,-109,73,43,-48,-24,19,29,29
-97,19,117,39,-107,68,48,-43,-24,14,29,29
-92,19,112,36,-102,65,58,-53,-24,14,29,19
-92,19,112,36,-102,65,63,-53,-24,14,29,19
-92,19,112,36,-102,65,63,-53,-29,14,29,19
-97,19,117,39,-107,68,63,-53,-29,9,29,19
-107,9,117,48,-112,63,53,-53,-29,9,19,14
-107,4,112,51,-109,58,53,-53,-29,9,14,14
-107,4,112,51,-109,58,53,-53,-29,9,14,14
-107,4,112,51,-109,58,53,-53,-29,9,14,14
-107,4,112,51,-109,58,68,-53,-29,9,14,14
-112,0,112,56,-112,56,68,-53,-29,4,9,14
-112,0,112,56,-112,56,68,-53,-34,4,9,9
-112,0,112,56,-112,56,73,-53,-34,4,9,9
-102,4,107,48,-104,56,63,-53,-34,-4,9,9
-102,4,107,48,-104,56,63,-53,-34,-4,4,9
-102,4,107,48,-104,56,68,-53,-34,-4,4,9
-112,4,117,53,-114,61,68,-53,-34,-9,4,4
-112,-4,107,58,-109,51,68,-53,-39,0,4,4
-112,-9,102,61,-107,46,68,-53,-39,0,4,4
-112,-9,102,61,-107,46,68,-53,-34,0,4,4
-112,-9,102,61,-107,46,73,-53,-34,0,4,4
-112,-9,102,61,-107,46,73,-53,-24,4,14,4
-112,-9,102,61,-107,46,73,-53,-24,9,14,4
-122,0,122,61,-122,61,82,-53,-29,14,24,9
-112,14,126,48,-119,70,68,-53,-19,29,34,19
-112,29,141,41,-126,85,68,-68,-14,39,43,34
-112,53,165,29,-139,109,68,-73,-14,58,63,48
-122,78,200,21,-161,139,63,-82,-14,97,87,68
-146,117,263,14,-204,190,53,-112,-24,141,131,97
-146,161,307,-7,-226,234,34,-146,-78,170,170,146
-156,224,380,-34,-268,302,24,-180,-126,190,219,185
-165,302,468,-68,-317,385,14,-209,-156,209,268,234
-165,351,517,-92,-341,434,0,-248,-209,219,312,287
-141,375,517,-117,-329,446,-39,-292,-317,200,356,356
-97,390,488,-146,-292,439,-97,-351,-483,136,395,409
-48,390,439,-170,-244,414,-146,-414,-688,39,405,458
14,375,361,-195,-173,368,-204,-444,-873,-48,409,497
102,326,224,-214,-61,275,-263,-444,-1010,-136,429,546
239,239,0,-239,119,119,-317,-405,-1073,-224,444,580
366,165,-200,-265,283,-17,-370,-356,-1093,-268,463,629
488,117,-370,-302,429,-126,-424,-346,-1117,-283,502,678
600,63,-536,-331,568,-236,-473,-326,-1146,-297,502,712
736,-9,-746,-363,741,-378,-517,-287,-1195,-370,424,702
819,-112,-932,-353,875,-522,-536,-234,-1283,-522,229,570
839,-287,-1127,-275,983,-707,-512,-180,-1385,-775,-131,297
834,-473,-1307,-180,1071,-890,-463,-102,-1464,-1019,-502,14
878,-653,-1532,-112,1205,-1093,-434,-39,-1473,-1200,-736,-180
927,-849,-1776,-39,1351,-1312,-414,29,-1459,-1371,-951,-375
936,-1049,-1986,56,1461,-1517,-380,102,-1434,-1546,-1180,-590
936,-1239,-2176,151,1556,-1708,-312,151,-1429,-1703,-1376,-790
917,-1424,-2342,253,1629,-1883,-244,180,-1405,-1825,-1532,-966
878,-1571,-2449,346,1664,-2010,-185,185,-1366,-1864,-1634,-1102
834,-1654,-2488,409,1661,-2071,-141,204,-1293,-1834,-1659,-1195
805,-1654,-2459,424,1632,-2056,-112,219,-1190,-1751,-1620,-1220
795,-1590,-2386,397,1590,-1988,-97,204,-1112,-1644,-1546,-1176
771,-1546,-2318,387,1544,-1932,-82,195,-1044,-1576,-1478,-1141
717,-1532,-2249,407,1483,-1891,-53,190,-1000,-1512,-1439,-1132
639,-1507,-2147,434,1393,-1827,-39,156,-971,-1459,-1395,-1098
546,-1454,-2000,453,1273,-1727,-14,112,-961,-1405,-1346,-1068
473,-1405,-1878,466,1176,-1642,9,82,-936,-1351,-1298,-1058
395,-1371,-1766,488,1080,-1568,34,53,-922,-1298,-1259,-1039
331,-1312,-1644,490,988,-1478,48,9,-902,-1234,-1200,-1005
278,-1234,-1512,478,895,-1373,68,-43,-873,-1156,-1132,-956
224,-1141,-1366,458,795,-1254,78,-82,-819,-1078,-1073,-907
180,-1049,-1229,434,705,-1139,92,-117,-761,-1000,-990,-844
131,-961,-1093,414,612,-1027,102,-126,-697,-917,-907,-775
82,-873,-956,395,519,-915,112,-126,-614,-839,-819,-697
39,-775,-814,368,427,-795,102,-117,-517,-722,-717,-614
19,-639,-658,309,339,-649,87,-112,-419,-570,-575,-497
19,-497,-517,239,268,-507,78,-87,-307,-424,-439,-380
9,-375,-385,183,197,-380,68,-68,-219,-317,-322,-297
-19,-307,-287,163,134,-297,68,-58,-175,-239,-258,-244
-43,-248,-204,146,80,-226,87,-58,-122,-204,-219,-209
-53,-195,-141,124,43,-168,102,-39,-53,-146,-170,-165
-73,-136,-63,104,-4,-100,102,-14,4,-97,-122,-122
-92,-107,-14,100,-39,-61,102,-9,39,-48,-68,-87
-92,-82,9,87,-51,-36,112,14,78,-4,-39,-63
-92,-68,24,80,-58,-21,112,24,87,24,-14,-53
-97,-68,29,82,-63,-19,117,29,87,34,-4,-43
-107,-48,58,78,-82,4,117,19,78,24,-4,-53
-107,-43,63,75,-85,9,117,14,78,24,-9,-53
-112,-39,73,75,-92,17,117,9,78,19,-14,-53
-117,-39,78,78,-97,19,117,9,78,19,-19,-53
-117,-34,82,75,-100,24,107,9,87,19,-19,-53
-117,-29,87,73,-102,29,107,9,87,29,-9,-48
-117,-24,92,70,-104,34,107,9,92,34,-9,-48
-117,-19,97,68,-107,39,107,9,92,39,-9,-43
-107,-14,92,61,-100,39,107,24,92,34,-9,-34
-107,-14,92,61,-100,39,107,24,92,34,-9,-34
-107,-14,92,61,-100,39,107,24,92,34,-9,-34
-107,-14,92,61,-100,39,107,24,92,29,-9,-39
-107,0,107,53,-107,53,107,19,92,39,-9,-39
-107,0,107,53,-107,53,107,19,92,39,-9,-39
-107,0,107,53,-107,53,107,19,97,39,-9,-39
-107,0,107,53,-107,53,102,19,97,43,-9,-34
-117,-4,112,61,-114,53,102,29,107,48,-4,-34
-117,-4,112,61,-114,53,102,34,112,48,-4,-34
-117,-4,112,61,-114,53,102,34,112,48,-4,-34
-117,-4,112,61,-114,53,102,34,112,48,-4,-34
-117,0,117,58,-117,58,102,29,112,48,-9,-43
-112,0,112,56,-112,56,102,29,117,48,-9,-43
-112,0,112,56,-112,56,102,29,117,53,-9,-43
-112,0,112,56,-112,56,97,29,117,53,-9,-43
-102,0,102,51,-102,51,97,19,117,53,-9,-34
-102,0,102,51,-102,51,92,19,122,53,-9,-34
-102,4,107,48,-104,56,92,19,122,58,-9,-34
-102,4,107,48,-104,56,92,19,122,58,-9,-34
-112,4,117,53,-114,61,92,29,126,68,0,-34
-107,4,112,51,-109,58,92,34,126,68,0,-34
-107,9,117,48,-112,63,92,34,126,73,0,-29
-107,9,117,48,-112,63,87,34,126,73,4,-29
-107,9,117,48,-112,63,87,19,131,63,4,-29
-107,9,117,48,-112,63,87,19,131,63,4,-29
-107,9,117,48,-112,63,87,24,131,68,4,-29
-107,14,122,46,-114,68,87,24,136,68,4,-29
-97,14,112,41,-104,63,87,24,136,68,-4,-29
-97,14,112,41,-104,63,87,24,146,68,-4,-24
-97,14,112,41,-104,63,82,24,151,78,0,-24
-102,14,117,43,-109,65,82,24,151,78,0,-24
-112,19,131,46,-122,75,82,34,156,87,9,-24
-112,19,131,46,-122,75,82,34,161,87,9,-24
-107,24,131,41,-119,78,82,39,165,97,9,-24
-107,24,131,41,-119,78,82,39,165,97,9,-24
-97,24,122,36,-109,73,92,39,165,97,14,-24
-102,24,126,39,-114,75,92,39,170,102,14,-24
-102,29,131,36,-117,80,92,39,170,102,14,-24
-102,29,131,36,-117,80,87,43,180,107,14,-24
-102,24,126,39,-114,75,78,43,195,117,19,-34
-97,24,122,36,-109,73,78,48,200,126,19,-34
-97,29,126,34,-112,78,78,48,204,131,19,-34
-97,29,126,34,-112,78,78,48,209,136,19,-34
-97,34,131,31,-114,82,78,53,214,131,24,-24
-97,43,141,26,-119,92,78,53,224,136,24,-24
-97,48,146,24,-122,97,73,63,229,141,29,-24
-97,58,156,19,-126,107,73,63,239,146,29,-24
-92,48,141,21,-117,95,82,68,244,156,34,-19
-92,58,151,17,-122,104,82,73,253,161,34,-19
-97,58,156,19,-126,107,82,78,268,170,43,-19
-97,58,156,19,-126,107,82,82,278,175,43,-19
-97,68,165,14,-131,117,73,78,283,170,43,-19
-97,73,170,12,-134,122,73,82,292,175,48,-14
-92,73,165,9,-129,119,73,82,302,185,48,-14
-92,82,175,4,-134,129,73,87,312,190,53,-14
-92,87,180,2,-136,134,73,92,322,204,53,-14
-87,87,175,0,-131,131,73,97,331,214,63,-14
-87,92,180,-2,-134,136,68,102,346,224,68,-14
-87,97,185,-4,-136,141,68,112,361,229,73,-9
-82,102,185,-9,-134,143,68,126,380,253,87,0
-82,107,190,-12,-136,148,68,136,385,258,92,0
-82,107,190,-12,-136,148,63,146,405,268,97,0
-82,112,195,-14,-139,153,63,146,414,278,102,0
-63,131,195,-34,-129,163,63,151,439,287,117,4
-63,136,200,-36,-131,168,58,165,453,297,122,4
-58,141,200,-41,-129,170,58,175,468,307,126,4
-48,146,195,-48,-122,170,58,185,488,317,131,9
-53,151,204,-48,-129,178,58,180,502,336,136,19
-53,151,204,-48,-129,178,58,190,522,346,141,19
-48,156,204,-53,-126,180,58,200,536,361,146,19
-39,161,200,-61,-119,180,58,209,551,370,151,19
-34,165,200,-65,-117,183,63,224,575,385,156,14
-29,165,195,-68,-112,180,53,234,595,395,161,14
-24,170,195,-73,-109,183,53,234,610,405,165,14
-14,180,195,-82,-104,187,48,253,629,414,175,19
-9,185,195,-87,-102,190,34,253,634,439,180,19
0,190,190,-95,-95,190,29,253,653,448,190,19
4,195,190,-100,-92,192,29,263,663,458,195,24
19,200,180,-109,-80,190,24,268,673,468,200,24
29,204,175,-117,-73,190,19,273,697,478,214,34
39,204,165,-122,-63,185,19,278,707,488,219,39
48,209,161,-129,-56,185,14,287,722,497,224,43
58,214,156,-136,-48,185,9,292,732,507,229,48
78,219,141,-148,-31,180,4,297,732,527,234,48
87,219,131,-153,-21,175,0,302,741,531,239,48
92,219,126,-156,-17,173,-4,307,741,536,244,53
97,219,122,-158,-12,170,-9,312,746,541,248,53
107,219,112,-163,-2,165,-14,302,751,546,263,68
112,224,112,-168,0,168,-14,302,751,551,268,68
117,224,107,-170,4,165,-24,302,751,556,268,73
117,224,107,-170,4,165,-29,297,751,556,268,73
122,224,102,-173,9,163,-34,307,736,551,273,68
131,224,92,-178,19,158,-34,297,732,551,273,73
136,219,82,-178,26,151,-39,292,712,551,273,78
141,219,78,-180,31,148,-43,278,692,541,273,82
136,219,82,-178,26,151,-39,258,663,531,263,87
136,219,82,-178,26,151,-43,244,639,522,263,92
136,219,82,-178,26,151,-48,229,614,502,263,92
131,214,82,-173,24,148,-53,214,590,488,263,92
141,214,73,-178,34,143,-53,209,566,483,253,102
136,214,78,-175,29,146,-53,190,536,463,248,102
131,214,82,-173,24,148,-58,170,507,453,244,107
126,214,87,-170,19,151,-58,151,478,439,239,112
122,214,92,-168,14,153,-58,131,444,414,234,117
122,204,82,-163,19,143,-63,112,409,400,234,122
112,204,92,-158,9,148,-63,97,380,385,229,122
102,200,97,-151,2,148,-63,78,346,366,224,126
92,185,92,-139,0,139,-63,78,326,341,219,131
92,180,87,-136,2,134,-63,63,292,322,214,131
78,175,97,-126,-9,136,-58,53,278,307,209,131
73,170,97,-122,-12,134,-58,34,244,283,204,131
63,170,107,-117,-21,139,-58,29,214,248,190,122
53,165,112,-109,-29,139,-58,24,185,239,180,122
48,156,107,-102,-29,131,-48,14,161,224,175,122
39,146,107,-92,-34,126,-43,4,146,209,175,122
29,126,97,-78,-34,112,-34,0,136,190,151,107
19,117,97,-68,-39,107,-24,-4,117,175,141,107
14,112,97,-63,-41,104,-24,-9,107,165,136,102
4,102,97,-53,-46,100,-19,-14,92,151,131,97
0,97,97,-48,-48,97,-14,-19,78,126,117,92
0,97,97,-48,-48,97,-9,-24,58,122,112,87
-9,87,97,-39,-53,92,-4,-29,48,112,107,82
-14,82,97,-34,-56,90,0,-29,34,102,102,78
-24,68,92,-21,-58,80,0,-29,39,102,82,78
-29,63,92,-17,-61,78,4,-29,29,92,82,73
-34,58,92,-12,-63,75,9,-29,24,82,73,68
-39,53,92,-7,-65,73,9,-29,14,78,68,68
-43,58,102,-7,-73,80,9,-29,4,73,73,58
-48,53,102,-2,-75,78,14,-29,0,68,68,53
-48,48,97,0,-73,73,14,-29,-4,63,68,48
-53,48,102,2,-78,75,19,-29,-9,58,63,48
-53,43,97,4,-75,70,19,-43,-4,43,48,48
-53,39,92,7,-73,65,19,-43,-9,39,48,48
-58,39,97,9,-78,68,24,-43,-9,34,39,48
-63,34,97,14,-80,65,24,-43,-14,34,39,48
-63,34,97,14,-80,65,14,-43,-24,19,29,43
-63,34,97,14,-80,65,19,-43,-24,19,29,39
-63,34,97,14,-80,65,19,-48,-29,19,24,39
-73,34,107,19,-90,70,19,-48,-29,14,24,39
-63,19,82,21,-73,51,19,-48,-29,24,24,43
-58,19,78,19,-68,48,19,-48,-29,14,24,43
-58,19,78,19,-68,48,19,-48,-29,14,24,43
-58,19,78,19,-68,48,19,-48,-29,19,24,43
-63,19,82,21,-73,51,19,-48,-34,19,14,29
-63,19,82,21,-73,51,19,-48,-34,14,14,29
-63,14,78,24,-70,46,24,-48,-34,14,14,34
-63,14,78,24,-70,46,24,-48,-34,14,9,34
-73,14,87,29,-80,51,24,-48,-34,4,19,24
-73,14,87,29,-80,51,24,-48,-34,4,19,24
-73,14,87,29,-80,51,24,-48,-34,4,14,19
-73,14,87,29,-80,51,24,-48,-34,4,14,19
-73,9,82,31,-78,46,24,-39,-24,0,9,29
-73,9,82,31,-78,46,24,-39,-24,0,9,24
-73,9,82,31,-78,46,24,-39,-24,0,9,24
-73,14,87,29,-80,51,24,-39,-29,0,9,24
-73,14,87,29,-80,51,24,-43,-39,0,9,24
-73,14,87,29,-80,51,24,-43,-39,0,9,24
-73,14,87,29,-80,51,24,-43,-39,0,14,19
-73,14,87,29,-80,51,24,-39,-39,0,14,19
-73,19,92,26,-82,56,24,-48,-39,9,9,19
-73,19,92,26,-82,56,24,-48,-34,4,9,19
-73,19,92,26,-82,56,24,-48,-34,4,9,14
-73,19,92,26,-82,56,24,-48,-34,4,9,14
-73,14,87,29,-80,51,24,-48,-34,4,9,14
-73,14,87,29,-80,51,24,-48,-39,4,9,14
-73,14,87,29,-80,51,24,-48,-39,4,4,14
-73,14,87,29,-80,51,24,-48,-34,4,4,14
-82,4,87,39,-85,46,24,-48,-34,4,4,14
-87,4,92,41,-90,48,24,-48,-39,4,4,14
-87,4,92,41,-90,48,24,-48,-39,4,4,14
-87,4,92,41,-90,48,24,-48,-34,4,4,14
-78,14,92,31,-85,53,24,-48,-34,4,4,14
-78,14,92,31,-85,53,24,-48,-34,4,4,14
-78,14,92,31,-85,53,24,-48,-34,4,4,14
-78,14,92,31,-85,53,24,-48,-34,4,4,14
-87,14,102,36,-95,58,34,-48,-34,4,4,14
-87,14,102,36,-95,58,34,-48,-34,4,4,14
-87,14,102,36,-95,58,34,-48,-34,4,4,9
-87,19,107,34,-97,63,34,-48,-34,4,4,9
-78,19,97,29,-87,58,24,-48,-34,4,4,0
-78,19,97,29,-87,58,24,-48,-34,4,4,0
-78,19,97,29,-87,58,24,-48,-34,4,0,0
-78,19,97,29,-87,58,24,-48,-34,4,0,0
-78,19,97,29,-87,58,24,-48,-34,4,0,0
-78,19,97,29,-87,58,24,-48,-34,4,0,4
-82,19,102,31,-92,61,24,-48,-29,9,0,4
-82,19,102,31,-92,61,24,-48,-29,9,4,4
-82,19,102,31,-92,61,24,-39,-29,9,4,4
-82,19,102,31,-92,61,29,-39,-29,9,4,9
-82,24,107,29,-95,65,29,-39,-29,9,4,14
-82,24,107,29,-95,65,29,-39,-29,9,4,19
-82,14,97,34,-90,56,29,-48,-29,9,9,19
-82,14,97,34,-90,56,29,-48,-29,14,9,19
-82,14,97,34,-90,56,29,-48,-29,14,14,19
-82,14,97,34,-90,56,29,-48,-24,14,14,19
-82,14,97,34,-90,56,29,-48,-14,14,14,9
-82,14,97,34,-90,56,29,-48,-14,14,14,14
-82,14,97,34,-90,56,29,-48,-14,14,19,14
-82,19,102,31,-92,61,29,-48,-9,19,19,14
-82,29,112,26,-97,70,29,-48,-19,19,9,4
-82,29,112,26,-97,70,29,-43,-19,19,9,4
-82,29,112,26,-97,70,29,-43,-14,24,14,4
-82,24,107,29,-95,65,29,-43,-14,24,14,4
-73,14,87,29,-80,51,39,-43,-14,24,14,14
-78,19,97,29,-87,58,39,-43,-14,24,14,14
-82,24,107,29,-95,65,39,-43,-14,24,14,14
-82,24,107,29,-95,65,39,-43,-14,29,14,14
-73,29,102,21,-87,65,34,-34,-14,29,19,24
-73,34,107,19,-90,70,29,-34,-9,29,24,24
-73,39,112,17,-92,75,24,-34,-4,34,29,29
-73,43,117,14,-95,80,19,-34,-4,34,34,29
-63,63,126,0,-95,95,9,-43,9,53,43,29
-48,87,136,-19,-92,112,0,-39,9,58,48,39
-39,97,136,-29,-87,117,-4,-39,14,68,58,48
-39,97,136,-29,-87,117,-9,-39,19,68,58,48
-39,97,136,-29,-87,117,-14,-39,24,68,58,48
-39,97,136,-29,-87,117,-19,-39,29,68,58,48
-43,117,161,-36,-102,139,-34,-39,43,87,68,63
-39,131,170,-46,-104,151,-34,-39,48,92,78,68
-39,131,170,-46,-104,151,-34,-39,53,102,82,68
-34,131,165,-48,-100,148,-34,-34,53,107,87,68
-34,141,175,-53,-104,158,-34,-39,58,107,87,73
-29,141,170,-56,-100,156,-43,-39,58,107,87,73
-29,141,170,-56,-100,156,-48,-39,58,107,87,73
-19,146,165,-63,-92,156,-53,-39,68,117,97,82
-19,136,156,-58,-87,146,-48,-29,73,122,102,73
-14,136,151,-61,-82,143,-63,-34,73,122,107,73
-9,141,151,-65,-80,146,-78,-48,63,122,107,78
-4,151,156,-73,-80,153,-107,-68,48,122,107,87
0,156,156,-78,-78,156,-131,-92,48,122,117,102
4,165,161,-85,-78,163,-146,-107,39,122,122,107
19,170,151,-95,-65,161,-146,-107,29,122,122,107
19,180,161,-100,-70,170,-156,-117,24,122,126,107
29,185,156,-107,-63,170,-175,-131,9,112,117,117
43,185,141,-114,-48,163,-175,-131,9,112,117,126
53,195,141,-124,-43,168,-175,-126,9,112,126,136
63,204,141,-134,-39,173,-175,-117,14,122,131,141
73,219,146,-146,-36,183,-170,-102,24,131,136,146
73,219,146,-146,-36,183,-161,-102,29,131,141,146
68,214,146,-141,-39,180,-156,-97,29,131,141,146
63,204,141,-134,-39,173,-141,-97,29,131,141,146
68,200,131,-134,-31,165,-131,-102,24,131,151,146
63,195,131,-129,-34,163,-122,-102,19,126,141,146
58,185,126,-122,-34,156,-112,-97,14,117,136,136
48,175,126,-112,-39,151,-102,-97,9,102,131,131
39,165,126,-102,-43,146,-107,-87,4,102,126,136
29,165,136,-97,-53,151,-102,-87,0,97,122,131
24,151,126,-87,-51,139,-97,-87,-4,92,112,126
19,146,126,-82,-53,136,-82,-87,-4,87,107,122
4,126,122,-65,-58,124,-68,-97,-4,82,97,107
-14,102,117,-43,-65,109,-48,-92,-14,68,87,97
-48,78,126,-14,-87,102,-29,-82,-19,48,68,78
-63,58,122,2,-92,90,-14,-78,-24,34,53,58
-73,39,112,17,-92,75,0,-78,-29,29,34,39
-82,24,107,29,-95,65,14,-73,-29,24,29,34
-87,19,107,34,-97,63,19,-68,-29,24,29,34
-87,19,107,34,-97,63,29,-63,-24,29,29,29
-87,29,117,29,-102,73,19,-58,-24,19,29,29
-87,29,117,29,-102,73,24,-58,-24,19,29,24
-87,24,112,31,-100,68,29,-53,-24,19,19,19
-87,9,97,39,-92,53,34,-48,-24,9,14,19
-97,9,107,43,-102,58,34,-48,-34,9,9,9
-97,4,102,46,-100,53,34,-48,-34,9,9,9
-97,0,97,48,-97,48,39,-43,-34,4,9,9
-102,0,102,51,-102,51,39,-43,-34,4,9,9
-102,-9,92,56,-97,41,53,-43,-24,4,0,9
-102,-9,92,56,-97,41,53,-43,-29,4,0,9
-107,-9,97,58,-102,43,53,-43,-29,0,0,9
-107,-9,97,58,-102,43,53,-43,-29,0,0,4
-97,-14,82,56,-90,34,53,-34,-39,-9,-4,4
-97,-14,82,56,-90,34,53,-34,-39,-9,-4,4
-97,-14,82,56,-90,34,53,-34,-39,-9,-4,4
-97,-14,82,56,-90,34,58,-34,-39,-9,-4,4
-112,-19,92,65,-102,36,58,-43,-39,-4,-9,-4
-112,-19,92,65,-102,36,58,-43,-43,-4,-9,-9
-112,-19,92,65,-102,36,63,-43,-43,-4,-9,-9
-112,-24,87,68,-100,31,63,-43,-43,-4,-9,-9
-112,-34,78,73,-95,21,63,-34,-34,-4,-4,0
-112,-34,78,73,-95,21,68,-34,-34,-4,-4,0
-122,-34,87,78,-104,26,68,-34,-34,-9,-4,-4
-122,-34,87,78,-104,26,68,-34,-39,-9,-4,-4
-122,-29,92,75,-107,31,78,-43,-39,-9,-14,-4
-122,-29,92,75,-107,31,78,-43,-34,-9,-14,-4
-122,-29,92,75,-107,31,82,-43,-34,-9,-14,-4
-122,-29,92,75,-107,31,82,-43,-34,-4,-14,-4
-112,-19,92,65,-102,36,82,-43,-34,0,-4,-4
-112,-29,82,70,-97,26,73,-43,-29,14,4,0
-122,-14,107,68,-114,46,68,-43,-19,19,14,0
-122,-9,112,65,-117,51,68,-48,-24,39,14,4
-122,14,136,53,-129,75,78,-63,-34,48,24,29
-131,58,190,36,-161,124,63,-82,-34,68,58,58
-136,107,244,14,-190,175,43,-102,-53,112,102,87
-146,151,297,-2,-222,224,34,-136,-107,122,131,126
-156,204,361,-24,-258,283,24,-170,-165,141,180,165
-175,263,439,-43,-307,351,4,-209,-214,170,229,204
-165,322,488,-78,-326,405,-19,-248,-278,170,283,258
-151,356,507,-102,-329,431,-58,-292,-375,141,326,326
-117,370,488,-126,-302,429,-97,-351,-541,78,346,380
-78,380,458,-151,-268,419,-146,-405,-736,-19,366,429
-14,366,380,-175,-197,373,-204,-453,-912,-107,390,488
82,317,234,-200,-75,275,-273,-444,-1039,-175,419,536
209,239,29,-224,90,134,-326,-395,-1073,-234,453,600
336,165,-170,-251,253,-2,-380,-346,-1083,-248,492,649
448,117,-331,-283,390,-107,-444,-336,-1107,-244,551,707
570,82,-488,-326,529,-202,-483,-317,-1127,-248,570,741
688,9,-678,-348,683,-334,-536,-268,-1156,-292,531,741
790,-73,-863,-358,827,-468,-566,-224,-1205,-405,395,668
829,-209,-1039,-309,934,-624,-541,-161,-1278,-610,73,463
844,-375,-1220,-234,1032,-797,-512,-82,-1337,-863,-326,180
868,-556,-1424,-156,1146,-990,-483,-19,-1346,-1044,-600,-34
927,-741,-1668,-92,1298,-1205,-453,68,-1312,-1195,-785,-219
956,-951,-1908,-2,1432,-1429,-409,170,-1278,-1371,-1005,-453
946,-1171,-2117,112,1532,-1644,-331,239,-1273,-1556,-1239,-673
917,-1376,-2293,229,1605,-1834,-263,258,-1268,-1698,-1415,-849
878,-1512,-2391,317,1634,-1952,-195,263,-1239,-1766,-1537,-985
834,-1615,-2449,390,1642,-2032,-131,292,-1166,-1756,-1590,-1088
805,-1634,-2440,414,1622,-2037,-92,317,-1073,-1693,-1571,-1141
795,-1581,-2376,392,1586,-1978,-87,292,-995,-1595,-1507,-1117
771,-1537,-2308,383,1539,-1922,-92,263,-966,-1517,-1439,-1083
727,-1532,-2259,402,1493,-1895,-73,239,-941,-1473,-1400,-1073
658,-1507,-2166,424,1412,-1837,-48,195,-922,-1439,-1366,-1068
585,-1464,-2049,439,1317,-1756,-24,151,-922,-1385,-1327,-1058
483,-1424,-1908,470,1195,-1666,9,131,-897,-1332,-1298,-1039
405,-1390,-1795,492,1100,-1593,43,102,-883,-1298,-1268,-1019
351,-1322,-1673,485,1012,-1498,58,48,-873,-1234,-1220,-985
297,-1244,-1542,473,919,-1393,58,-4,-854,-1166,-1151,-946
224,-1171,-1395,473,810,-1283,68,-53,-819,-1088,-1073,-897
180,-1088,-1268,453,724,-1178,73,-78,-761,-1010,-1000,-844
151,-1000,-1151,424,651,-1076,82,-87,-707,-946,-927,-785
112,-932,-1044,409,578,-988,102,-87,-634,-868,-849,-717
68,-824,-893,378,480,-858,112,-78,-536,-751,-746,-644
39,-688,-727,324,383,-707,107,-73,-429,-619,-634,-536
29,-536,-566,253,297,-551,87,-68,-326,-473,-488,-419
9,-414,-424,202,217,-419,78,-68,-239,-346,-370,-326
-9,-317,-307,163,148,-312,78,-68,-185,-268,-287,-263
-24,-268,-244,146,109,-256,68,-58,-151,-224,-239,-229
-43,-214,-170,129,63,-192,73,-48,-112,-175,-200,-204
-82,-175,-92,129,4,-134,92,-24,-43,-117,-141,-161
-92,-126,-34,109,-29,-80,112,9,29,-58,-87,-117
-102,-92,9,97,-56,-41,122,34,68,-14,-48,-82
-112,-78,34,95,-73,-21,122,34,87,4,-34,-63
-117,-68,48,92,-82,-9,117,29,87,14,-24,-53
-117,-48,68,82,-92,9,117,19,82,14,-29,-58
-117,-43,73,80,-95,14,117,14,78,14,-29,-63
-122,-39,82,80,-102,21,117,9,73,9,-29,-68
-126,-39,87,82,-107,24,117,9,68,9,-29,-73
-126,-43,82,85,-104,19,117,9,87,9,-29,-63
-126,-39,87,82,-107,24,117,9,87,19,-19,-58
-126,-34,92,80,-109,29,117,9,92,24,-19,-58
-126,-29,97,78,-112,34,117,9,92,29,-19,-53
-126,-14,112,70,-119,48,107,14,82,34,-19,-43
-126,-14,112,70,-119,48,107,14,82,34,-19,-43
-126,-14,112,70,-119,48,107,14,82,34,-19,-43
-126,-14,112,70,-119,48,107,14,82,29,-19,-48
-117,-9,107,63,-112,48,107,19,82,29,-19,-48
-117,-9,107,63,-112,48,107,19,82,29,-19,-48
-117,-9,107,63,-112,48,107,19,87,29,-19,-48
-117,-9,107,63,-112,48,102,19,87,34,-19,-43
-126,-4,122,65,-124,58,102,19,97,39,-14,-43
-126,-4,122,65,-124,58,102,24,102,39,-14,-43
-126,-4,122,65,-124,58,102,24,102,39,-14,-43
-126,-4,122,65,-124,58,102,24,102,39,-14,-43
-126,-9,117,68,-122,53,102,29,102,39,-9,-53
-122,-9,112,65,-117,51,102,29,107,39,-9,-53
-122,-9,112,65,-117,51,102,29,107,43,-9,-53
-122,-9,112,65,-117,51,97,29,107,43,-9,-53
-122,0,122,61,-122,61,97,29,107,43,-9,-43
-122,0,122,61,-122,61,92,29,112,43,-9,-43
-122,4,126,58,-124,65,92,29,112,48,-9,-43
-122,4,126,58,-124,65,92,29,112,48,-9,-43
-122,4,126,58,-124,65,92,19,117,48,-9,-43
-117,4,122,56,-119,63,92,24,117,48,-9,-43
-117,9,126,53,-122,68,92,24,117,53,-9,-39
-117,9,126,53,-122,68,87,24,117,53,-4,-39
-117,9,126,53,-122,68,87,19,122,53,-4,-39
-117,9,126,53,-122,68,87,19,122,53,-4,-39
-117,9,126,53,-122,68,87,24,122,58,-4,-39
-117,14,131,51,-124,73,87,24,126,58,-4,-39
-117,14,131,51,-124,73,97,24,126,58,-4,-39
-117,14,131,51,-124,73,97,24,136,58,-4,-34
-117,14,131,51,-124,73,92,24,141,68,0,-34
-122,14,136,53,-129,75,92,24,141,68,0,-34
-122,19,141,51,-131,80,82,34,146,78,0,-43
-122,19,141,51,-131,80,82,34,151,78,0,-43
-117,24,141,46,-129,82,82,39,156,87,0,-43
-117,24,141,46,-129,82,82,39,156,87,0,-43
-117,34,151,41,-134,92,82,29,165,87,4,-34
-122,34,156,43,-139,95,82,29,170,92,4,-34
-122,39,161,41,-141,100,82,29,170,92,4,-34
-122,39,161,41,-141,100,78,34,180,97,4,-34
-122,34,156,43,-139,95,78,34,175,97,9,-43
-117,34,151,41,-134,92,78,39,180,107,9,-43
-117,39,156,39,-136,97,78,39,185,112,9,-43
-117,39,156,39,-136,97,78,39,190,117,9,-43
-117,48,165,34,-141,107,78,43,195,112,14,-43
-117,53,170,31,-143,112,78,43,204,117,14,-43
-117,53,170,31,-143,112,73,53,209,122,19,-43
-117,58,175,29,-146,117,73,53,219,126,19,-43
-112,58,170,26,-141,114,73,58,224,136,24,-29
-112,68,180,21,-146,124,73,63,234,141,24,-29
-117,68,185,24,-151,126,73,68,248,151,34,-29
-117,68,185,24,-151,126,73,73,258,156,34,-29
-117,78,195,19,-156,136,73,68,263,161,34,-29
-117,82,200,17,-158,141,73,73,273,165,39,-24
-112,82,195,14,-153,139,73,73,283,175,39,-24
-112,92,204,9,-158,148,73,78,292,180,43,-24
-112,97,209,7,-161,153,73,92,312,195,53,-14
-107,97,204,4,-156,151,73,97,322,204,63,-14
-107,102,209,2,-158,156,68,102,336,214,68,-14
-107,107,214,0,-161,161,68,112,351,219,73,-9
-92,112,204,-9,-148,158,78,117,361,224,68,-9
-92,117,209,-12,-151,163,78,126,366,229,73,-9
-92,117,209,-12,-151,163,73,136,385,239,78,-9
-92,122,214,-14,-153,168,73,136,395,248,82,-9
-92,131,224,-19,-158,178,63,141,414,268,87,-14
-92,136,229,-21,-161,183,58,156,434,278,92,-14
-87,141,229,-26,-158,185,58,165,453,287,97,-14
-78,146,224,-34,-151,185,58,175,478,297,102,-9
-82,151,234,-34,-158,192,58,170,483,317,117,0
-82,151,234,-34,-158,192,58,180,502,326,122,0
-78,156,234,-39,-156,195,58,190,517,341,126,0
-68,161,229,-46,-148,195,58,200,531,351,131,0
-63,165,229,-51,-146,197,53,214,556,366,146,4
-58,165,224,-53,-141,195,43,224,575,375,151,4
-53,170,224,-58,-139,197,43,224,590,385,156,4
-43,180,224,-68,-134,202,39,244,610,395,165,9
-29,195,224,-82,-126,209,39,253,624,409,170,9
-19,200,219,-90,-119,209,39,253,644,419,180,9
-14,204,219,-95,-117,212,43,263,653,429,185,14
0,209,209,-104,-104,209,43,268,663,439,190,14
4,214,209,-109,-102,212,29,283,688,448,195,24
9,214,204,-112,-97,209,29,287,697,458,200,29
14,219,204,-117,-95,212,24,297,712,468,204,34
19,224,204,-122,-92,214,19,302,722,478,209,39
39,219,180,-129,-70,200,14,297,722,488,214,29
48,219,170,-134,-61,195,9,302,732,492,219,29
53,219,165,-136,-56,192,4,307,732,497,224,34
58,219,161,-139,-51,190,0,312,736,502,229,34
73,219,146,-146,-36,183,-4,322,746,517,244,48
82,224,141,-153,-29,183,-4,322,751,522,248,48
92,224,131,-158,-19,178,-14,322,756,527,248,53
97,224,126,-161,-14,175,-19,317,761,527,248,53
102,224,122,-163,-9,173,-14,307,751,522,253,58
112,224,112,-168,0,168,-14,297,741,522,253,63
117,219,102,-168,7,161,-19,292,717,522,253,68
122,219,97,-170,12,158,-24,278,692,512,253,73
117,219,102,-168,7,161,-29,278,673,507,253,78
117,219,102,-168,7,161,-34,263,649,502,253,82
117,219,102,-168,7,161,-39,248,624,488,253,82
112,214,102,-163,4,158,-43,234,600,478,253,82
122,214,92,-168,14,153,-53,219,570,453,244,92
117,214,97,-165,9,156,-53,200,536,434,239,92
112,214,102,-163,4,158,-58,180,502,424,234,97
107,214,107,-161,0,161,-58,161,468,409,229,102
102,214,112,-158,-4,163,-58,141,444,395,224,107
102,204,102,-153,0,153,-63,122,409,380,224,112
92,204,112,-148,-9,158,-63,107,380,366,219,112
82,200,117,-141,-17,158,-63,87,346,346,214,117
73,195,122,-134,-24,158,-63,78,322,312,209,122
73,190,117,-131,-21,153,-63,63,283,292,204,122
58,185,126,-122,-34,156,-58,53,263,278,200,122
53,180,126,-117,-36,153,-58,34,224,253,195,122
43,170,126,-107,-41,148,-58,29,214,229,185,122
34,165,131,-100,-48,148,-58,24,185,219,170,122
29,156,126,-92,-48,141,-48,14,161,204,161,122
19,146,126,-82,-53,136,-43,4,146,190,156,122
9,146,136,-78,-63,141,-43,0,117,170,151,107
0,136,136,-68,-68,136,-34,-4,97,156,141,107
-4,131,136,-63,-70,134,-34,-9,87,146,136,102
-14,122,136,-53,-75,129,-29,-14,73,131,131,97
-19,112,131,-46,-75,122,-24,-19,68,117,117,92
-19,107,126,-43,-73,117,-19,-24,48,112,112,87
-29,92,122,-31,-75,107,-14,-29,39,102,107,82
-34,82,117,-24,-75,100,-9,-29,24,92,102,78
-34,78,112,-21,-73,95,-9,-39,9,73,92,68
-39,73,112,-17,-75,92,-4,-39,0,63,92,63
-43,68,112,-12,-78,90,0,-39,-4,53,82,58
-48,63,112,-7,-80,87,0,-39,-14,48,78,58
-53,68,122,-7,-87,95,-9,-48,-14,43,73,58
-58,63,122,-2,-90,92,-4,-48,-19,39,68,53
-58,58,117,0,-87,87,-4,-48,-24,34,68,48
-63,58,122,2,-92,90,0,-48,-29,29,63,48
-63,53,117,4,-90,85,9,-43,-34,34,58,48
-63,48,112,7,-87,80,9,-43,-39,29,58,48
-68,48,117,9,-92,82,14,-43,-39,24,48,48
-73,43,117,14,-95,80,14,-43,-43,24,48,48
-73,34,107,19,-90,70,14,-43,-34,9,39,53
-73,34,107,19,-90,70,19,-43,-34,9,39,48
-73,34,107,19,-90,70,19,-48,-39,9,34,48
-82,34,117,24,-100,75,19,-48,-39,4,34,48
-82,29,112,26,-97,70,19,-48,-39,14,34,43
-78,29,107,24,-92,68,19,-48,-39,4,34,43
-78,29,107,24,-92,68,19,-48,-39,4,34,43
-78,29,107,24,-92,68,19,-48,-39,9,34,43
-82,29,112,26,-97,70,19,-39,-43,0,34,39
-82,29,112,26,-97,70,19,-39,-43,-4,34,39
-82,24,107,29,-95,65,24,-39,-43,-4,34,43
-82,24,107,29,-95,65,24,-39,-43,-4,29,43
-82,24,107,29,-95,65,14,-48,-53,-4,29,34
-82,24,107,29,-95,65,14,-48,-53,-4,29,34
-82,24,107,29,-95,65,14,-48,-53,-4,24,29
-82,24,107,29,-95,65,14,-48,-53,-4,24,29
-82,29,112,26,-97,70,14,-48,-53,-9,19,29
-82,29,112,26,-97,70,14,-48,-53,-9,19,24
-82,29,112,26,-97,70,14,-48,-53,-9,19,24
-82,34,117,24,-100,75,14,-48,-58,-9,19,24
-73,24,97,24,-85,61,4,-53,-48,-9,19,34
-73,24,97,24,-85,61,4,-53,-48,-9,19,34
-73,24,97,24,-85,61,4,-53,-48,-9,24,29
-73,24,97,24,-85,61,4,-48,-48,-9,24,29
-73,29,102,21,-87,65,14,-48,-58,-9,19,29
-73,29,102,21,-87,65,14,-48,-53,-14,19,29
-73,29,102,21,-87,65,14,-48,-53,-14,19,24
-73,29,102,21,-87,65,14,-48,-53,-14,19,24
-82,24,107,29,-95,65,14,-48,-43,-14,19,24
-82,24,107,29,-95,65,14,-48,-48,-14,19,24
-82,24,107,29,-95,65,14,-48,-48,-14,14,24
-82,24,107,29,-95,65,14,-48,-43,-14,14,24
-82,24,107,29,-95,65,24,-48,-43,-14,14,14
-87,24,112,31,-100,68,24,-48,-48,-14,14,14
-87,24,112,31,-100,68,24,-48,-48,-14,14,14
-87,24,112,31,-100,68,24,-48,-43,-14,14,14
-87,34,122,26,-104,78,14,-48,-43,-4,4,24
-87,34,122,26,-104,78,14,-48,-43,-4,4,24
-87,34,122,26,-104,78,14,-48,-43,-4,4,24
-87,34,122,26,-104,78,14,-48,-43,-4,4,24
-87,34,122,26,-104,78,14,-48,-43,-14,14,24
-87,34,122,26,-104,78,14,-48,-43,-14,14,24
-87,34,122,26,-104,78,14,-48,-43,-14,14,19
-87,39,126,24,-107,82,14,-48,-43,-14,14,19
-78,39,117,19,-97,78,14,-58,-53,-14,14,19
-78,39,117,19,-97,78,14,-58,-53,-14,14,19
-78,39,117,19,-97,78,14,-58,-53,-14,9,19
-78,39,117,19,-97,78,14,-58,-53,-14,9,19
-87,29,117,29,-102,73,24,-58,-43,-14,9,19
-87,29,117,29,-102,73,24,-58,-43,-14,9,24
-92,29,122,31,-107,75,24,-58,-39,-9,9,24
-92,29,122,31,-107,75,24,-58,-39,-9,14,24
-92,39,131,26,-112,85,14,-58,-48,0,4,19
-92,39,131,26,-112,85,19,-58,-48,0,4,19
-92,43,136,24,-114,90,19,-58,-48,0,4,19
-92,43,136,24,-114,90,19,-58,-48,0,4,19
-102,34,136,34,-119,85,19,-48,-39,-9,4,19
-102,34,136,34,-119,85,19,-48,-39,-4,9,19
-102,34,136,34,-119,85,19,-48,-39,-4,19,19
-102,34,136,34,-119,85,19,-48,-34,-4,24,19
-92,34,126,29,-109,80,29,-58,-34,-4,14,9
-92,34,126,29,-109,80,29,-58,-34,-4,14,14
-92,34,126,29,-109,80,29,-58,-34,-4,19,14
-92,39,131,26,-112,85,29,-58,-29,0,19,14
-92,39,131,26,-112,85,19,-58,-29,9,19,24
-92,39,131,26,-112,85,19,-53,-29,9,19,24
-92,39,131,26,-112,85,19,-53,-24,14,24,24
-92,34,126,29,-109,80,19,-53,-24,14,24,24
-82,34,117,24,-100,75,19,-53,-24,4,24,34
-87,39,126,24,-107,82,19,-53,-24,4,24,34
-92,43,136,24,-114,90,19,-53,-24,4,24,34
-92,43,136,24,-114,90,19,-53,-24,9,24,34
-92,34,126,29,-109,80,19,-53,-24,19,34,34
-92,34,126,29,-109,80,19,-53,-19,19,34,34
-92,34,126,29,-109,80,19,-53,-14,24,34,39
-92,34,126,29,-109,80,19,-53,-14,24,34,39
-82,34,117,24,-100,75,19,-53,-19,24,34,39
-82,39,122,21,-102,80,14,-53,-19,24,34,39
-82,39,122,21,-102,80,14,-53,-19,29,39,39
-82,39,122,21,-102,80,14,-53,-14,29,39,39
-73,58,131,7,-102,95,4,-43,-4,39,53,48
-73,63,136,4,-104,100,4,-39,4,48,53,48
-73,73,146,0,-109,109,4,-39,14,48,63,53
-63,92,156,-14,-109,124,-14,-48,4,53,63,53
-48,97,146,-24,-97,122,-19,-48,9,58,78,58
-48,102,151,-26,-100,126,-19,-39,19,63,87,68
-48,107,156,-29,-102,131,-19,-39,19,68,87,68
-48,112,161,-31,-104,136,-19,-39,19,73,87,68
-48,117,165,-34,-107,141,-19,-39,19,78,87,68
-43,136,180,-46,-112,158,-34,-39,29,82,92,82
-39,151,190,-56,-114,170,-34,-39,39,82,97,87
-39,151,190,-56,-114,170,-34,-39,48,87,97,87
-34,151,185,-58,-109,168,-34,-34,53,87,97,87
-24,141,165,-58,-95,153,-34,-29,58,97,107,92
-19,141,161,-61,-90,151,-43,-29,58,97,107,92
-19,141,161,-61,-90,151,-48,-29,58,97,107,92
-9,146,156,-68,-82,151,-53,-29,68,107,117,102
-19,156,175,-68,-97,165,-68,-39,73,112,112,102
-14,156,170,-70,-92,163,-82,-43,73,112,117,102
-9,161,170,-75,-90,165,-97,-58,63,112,117,107
-4,170,175,-82,-90,173,-126,-78,48,112,117,117
9,165,156,-87,-73,161,-141,-112,34,112,126,122
14,175,161,-95,-73,168,-156,-126,19,112,131,126
29,180,151,-104,-61,165,-156,-126,4,112,131,126
29,190,161,-109,-65,175,-165,-136,-4,112,136,126
39,195,156,-117,-58,175,-175,-131,0,102,136,136
53,195,141,-124,-43,168,-175,-131,0,102,136,146
63,204,141,-134,-39,173,-175,-126,0,102,146,156
73,214,141,-143,-34,178,-175,-117,4,112,151,161
82,219,136,-151,-26,178,-170,-102,14,112,156,165
82,219,136,-151,-26,178,-161,-102,19,112,161,165
78,214,136,-146,-29,175,-156,-97,19,112,161,165
73,204,131,-139,-29,168,-141,-97,19,112,161,165
68,200,131,-134,-31,165,-131,-102,14,112,151,165
63,195,131,-129,-34,163,-122,-102,9,107,141,165
58,185,126,-122,-34,156,-112,-97,4,97,136,156
48,175,126,-112,-39,151,-102,-97,0,82,131,151
29,165,136,-97,-53,151,-87,-97,-4,82,126,136
19,165,146,-92,-63,156,-82,-97,-9,78,122,131
14,151,136,-82,-61,143,-78,-97,-14,73,112,126
9,146,136,-78,-63,141,-63,-97,-14,68,107,122
-4,126,131,-61,-68,129,-58,-97,-14,63,97,107
-24,102,126,-39,-75,114,-39,-92,-24,48,87,97
-58,78,136,-9,-97,107,-19,-82,-29,29,68,78
-73,58,131,7,-102,95,-4,-78,-34,14,53,58
-73,58,131,7,-102,95,9,-78,-29,19,53,58
-82,43,126,19,-104,85,24,-73,-29,14,48,53
-87,39,126,24,-107,82,29,-68,-29,14,48,53
-87,39,126,24,-107,82,39,-63,-24,19,48,48
-87,39,126,24,-107,82,29,-58,-34,9,39,48
-87,39,126,24,-107,82,34,-58,-34,9,39,43
-87,34,122,26,-104,78,39,-53,-34,9,29,39
-87,19,107,34,-97,63,43,-48,-34,0,24,39
-97,19,117,39,-107,68,53,-48,-34,9,29,29
-97,14,112,41,-104,63,53,-48,-34,9,29,29
-97,9,107,43,-102,58,58,-43,-34,4,29,29
-102,9,112,46,-107,61,58,-43,-34,4,29,29
-112,0,112,56,-112,56,53,-34,-34,-4,24,19
-112,0,112,56,-112,56,53,-34,-39,-4,19,19
-117,0,117,58,-117,58,53,-34,-39,-9,14,19
-117,0,117,58,-117,58,53,-34,-39,-9,9,14
-112,-4,107,58,-109,51,53,-43,-39,-9,4,14
-107,-4,102,56,-104,48,53,-43,-39,-9,4,14
-102,-4,97,53,-100,46,53,-43,-39,-9,4,14
-97,-4,92,51,-95,43,58,-43,-39,-9,4,14
-112,0,112,56,-112,56,58,-43,-39,-4,9,24
-112,0,112,56,-112,56,58,-43,-43,-4,9,19
-112,0,112,56,-112,56,63,-43,-43,-4,9,19
-112,-4,107,58,-109,51,63,-43,-43,-4,9,19
-112,-4,107,58,-109,51,63,-43,-43,-14,4,19
-112,-4,107,58,-109,51,68,-43,-43,-14,4,19
-122,-4,117,63,-119,56,68,-43,-43,-19,4,14
-122,-4,117,63,-119,56,68,-43,-48,-19,4,14
-112,-9,102,61,-107,46,78,-43,-48,-9,4,24
-112,-9,102,61,-107,46,78,-43,-43,-9,4,24
-112,-9,102,61,-107,46,82,-43,-43,-9,4,24
-112,-9,102,61,-107,46,82,-43,-43,-4,4,24
-112,0,112,56,-112,56,73,-43,-43,0,14,24
-112,0,112,56,-112,56,82,-43,-29,14,14,29
-112,14,126,48,-119,70,78,-53,-19,29,24,39
-122,39,161,41,-141,100,68,-58,-24,48,43,43
-131,73,204,29,-168,139,58,-73,-24,78,73,68
-131,117,248,7,-190,183,43,-102,-34,107,117,107
-146,165,312,-9,-229,239,34,-131,-82,131,161,146
-156,219,375,-31,-265,297,24,-165,-146,141,190,175
-165,273,439,-53,-302,356,4,-219,-195,170,229,224
-165,322,488,-78,-326,405,-14,-258,-253,180,268,283
-156,361,517,-102,-336,439,-48,-307,-356,151,322,336
-131,375,507,-122,-319,441,-97,-361,-522,92,356,395
-87,390,478,-151,-283,434,-146,-419,-717,9,375,458
-19,380,400,-180,-209,390,-204,-473,-912,-78,395,507
73,326,253,-200,-90,290,-263,-483,-1058,-165,409,546
209,248,39,-229,85,143,-331,-434,-1127,-244,419,595
336,180,-156,-258,246,12,-395,-395,-1132,-273,453,629
453,136,-317,-295,385,-90,-439,-375,-1141,-278,492,678
566,87,-478,-326,522,-195,-473,-346,-1166,-283,502,717
697,24,-673,-361,685,-324,-531,-297,-1195,-317,473,712
814,-58,-873,-378,844,-466,-566,-239,-1244,-419,346,653
858,-200,-1058,-329,958,-629,-556,-175,-1332,-619,53,453
858,-375,-1234,-241,1046,-805,-522,-112,-1405,-893,-326,180
893,-541,-1434,-175,1163,-988,-502,-34,-1434,-1088,-590,-24
956,-722,-1678,-117,1317,-1200,-473,48,-1395,-1239,-785,-209
985,-927,-1912,-29,1449,-1420,-424,136,-1361,-1410,-1010,-424
976,-1127,-2103,75,1539,-1615,-370,200,-1356,-1586,-1239,-658
956,-1307,-2264,175,1610,-1786,-302,229,-1351,-1712,-1405,-829
936,-1454,-2391,258,1664,-1922,-244,248,-1317,-1776,-1522,-976
897,-1571,-2469,336,1683,-2020,-185,273,-1249,-1786,-1576,-1093
863,-1605,-2469,370,1666,-2037,-131,302,-1146,-1727,-1571,-1156
834,-1566,-2400,366,1617,-1983,-122,297,-1054,-1625,-1512,-1141
814,-1512,-2327,348,1571,-1920,-117,263,-1015,-1546,-1449,-1098
771,-1507,-2278,368,1525,-1893,-102,234,-985,-1507,-1420,-1093
688,-1493,-2181,402,1434,-1837,-73,190,-971,-1473,-1390,-1083
610,-1459,-2069,424,1339,-1764,-48,146,-961,-1420,-1346,-1058
517,-1415,-1932,448,1224,-1673,-14,112,-951,-1366,-1307,-1049
444,-1366,-1810,461,1127,-1588,9,82,-927,-1312,-1268,-1029
385,-1302,-1688,458,1037,-1495,24,24,-922,-1249,-1210,-1000
322,-1244,-1566,461,944,-1405,39,-29,-902,-1185,-1151,-966
248,-1176,-1424,463,836,-1300,58,-73,-854,-1117,-1093,-907
195,-1083,-1278,444,736,-1180,68,-102,-800,-1039,-1015,-849
161,-990,-1151,414,656,-1071,82,-117,-732,-961,-941,-785
112,-912,-1024,400,568,-968,92,-117,-649,-878,-858,-717
73,-814,-888,370,480,-851,102,-107,-575,-771,-761,-639
48,-697,-746,324,397,-722,102,-87,-468,-644,-629,-536
29,-551,-580,261,305,-566,78,-73,-361,-502,-488,-429
9,-419,-429,204,219,-424,68,-68,-268,-385,-380,-322
-9,-336,-326,173,158,-331,68,-68,-209,-297,-292,-258
-29,-268,-239,148,104,-253,78,-58,-165,-248,-248,-214
-43,-219,-175,131,65,-197,87,-39,-112,-204,-200,-170
-73,-165,-92,119,9,-129,92,-29,-53,-146,-151,-126
-102,-117,-14,109,-43,-65,102,-4,4,-87,-92,-92
-112,-78,34,95,-73,-21,112,19,58,-29,-48,-68
-112,-43,68,78,-90,12,112,34,78,4,-19,-43
-112,-39,73,75,-92,17,112,43,78,14,-14,-34
-107,-39,68,73,-87,14,107,39,68,14,-4,-34
-107,-29,78,68,-92,24,107,29,68,4,-4,-34
-107,-24,82,65,-95,29,107,24,68,4,-9,-34
-112,-19,92,65,-102,36,107,19,68,0,-14,-34
-117,-19,97,68,-107,39,107,19,68,0,-19,-34
-126,-24,102,75,-114,39,107,19,87,9,-9,-34
-126,-19,107,73,-117,43,107,19,87,19,0,-29
-126,-14,112,70,-119,48,107,19,92,24,0,-29
-126,-9,117,68,-122,53,107,19,92,29,0,-24
-126,-4,122,65,-124,58,107,24,92,24,0,-14
-126,-4,122,65,-124,58,107,24,92,24,0,-14
-126,-4,122,65,-124,58,107,24,92,24,0,-14
-126,-4,122,65,-124,58,107,24,92,19,0,-19
-126,0,126,63,-126,63,107,29,92,24,-9,-19
-126,0,126,63,-126,63,107,29,92,29,-9,-19
-126,0,126,63,-126,63,107,29,97,34,-9,-19
-126,0,126,63,-126,63,102,29,97,43,-9,-14
-126,4,131,61,-129,68,92,29,97,39,-4,-14
-126,4,131,61,-129,68,92,34,102,39,-4,-14
-126,4,131,61,-129,68,92,34,102,39,-4,-14
-126,4,131,61,-129,68,92,34,102,39,-4,-14
-136,9,146,63,-141,78,102,19,102,39,0,-14
-131,9,141,61,-136,75,102,19,107,39,0,-14
-131,9,141,61,-136,75,102,19,107,43,0,-14
-131,9,141,61,-136,75,97,19,107,43,0,-14
-122,9,131,56,-126,70,97,19,107,43,9,-14
-122,9,131,56,-126,70,92,19,112,43,9,-14
-122,14,136,53,-129,75,92,19,112,48,9,-14
-122,14,136,53,-129,75,92,19,112,48,9,-14
-122,24,146,48,-134,85,92,19,117,58,9,-14
-117,24,141,46,-129,82,92,24,117,58,9,-14
-117,29,146,43,-131,87,92,24,117,63,9,-9
-117,29,146,43,-131,87,87,24,117,63,14,-9
-126,19,146,53,-136,82,87,19,131,63,14,-9
-126,19,146,53,-136,82,87,19,131,63,14,-9
-126,19,146,53,-136,82,87,24,131,68,14,-9
-126,24,151,51,-139,87,87,24,136,68,14,-9
-126,34,161,46,-143,97,78,24,126,68,14,-9
-126,34,161,46,-143,97,78,24,136,68,14,-4
-126,34,161,46,-143,97,73,24,141,78,19,-4
-131,34,165,48,-148,100,73,24,141,78,19,-4
-122,39,161,41,-141,100,73,24,146,78,29,-4
-122,39,161,41,-141,100,73,24,151,78,29,-4
-117,43,161,36,-139,102,73,29,156,87,29,-4
-117,43,161,36,-139,102,73,29,156,87,29,-4
-126,34,161,46,-143,97,73,39,156,87,24,-4
-131,34,165,48,-148,100,73,39,161,92,24,-4
-131,39,170,46,-151,104,73,39,161,92,24,-4
-131,39,170,46,-151,104,68,43,170,97,24,-4
-131,43,175,43,-153,109,68,43,185,97,29,-4
-126,43,170,41,-148,107,68,48,190,107,29,-4
-126,48,175,39,-151,112,68,48,195,112,29,-4
-126,48,175,39,-151,112,68,48,200,117,29,-4
-126,58,185,34,-156,122,78,43,204,122,43,-4
-126,63,190,31,-158,126,78,43,214,126,43,-4
-126,63,190,31,-158,126,73,53,219,131,48,-4
-126,68,195,29,-161,131,73,53,229,136,48,-4
-122,68,190,26,-156,129,73,58,234,146,53,0
-122,78,200,21,-161,139,73,63,244,151,53,0
-126,78,204,24,-165,141,73,68,258,161,63,0
-126,78,204,24,-165,141,73,73,268,165,63,0
-126,87,214,19,-170,151,63,87,273,161,63,0
-126,92,219,17,-173,156,63,92,283,165,68,4
-122,92,214,14,-168,153,63,92,292,175,68,4
-122,102,224,9,-173,163,63,97,302,180,73,4
-122,107,229,7,-175,168,73,102,322,195,82,14
-117,107,224,4,-170,165,73,107,331,204,92,14
-117,112,229,2,-173,170,68,112,346,214,97,14
-117,117,234,0,-175,175,68,122,361,219,102,19
-112,131,244,-9,-178,187,68,126,370,224,97,9
-112,136,248,-12,-180,192,68,136,375,229,102,9
-112,136,248,-12,-180,192,63,146,395,239,107,9
-112,141,253,-14,-183,197,63,146,405,248,112,9
-102,151,253,-24,-178,202,53,151,429,268,117,14
-102,156,258,-26,-180,207,48,165,444,278,122,14
-97,161,258,-31,-178,209,48,175,458,287,126,14
-87,165,253,-39,-170,209,48,185,478,297,131,19
-82,170,253,-43,-168,212,48,190,483,297,136,19
-82,170,253,-43,-168,212,48,200,502,307,141,19
-78,175,253,-48,-165,214,48,209,517,322,146,19
-68,180,248,-56,-158,214,48,219,531,331,151,19
-63,185,248,-61,-156,217,43,234,556,356,156,24
-58,185,244,-63,-151,214,34,244,575,366,161,24
-53,190,244,-68,-148,217,34,244,590,375,165,24
-43,200,244,-78,-143,222,29,263,610,385,175,29
-39,195,234,-78,-136,214,34,263,614,390,180,39
-29,200,229,-85,-129,214,29,263,634,400,190,39
-24,204,229,-90,-126,217,29,273,644,409,195,43
-9,209,219,-100,-114,214,24,278,653,419,200,43
0,224,224,-112,-112,224,19,292,668,429,204,43
9,224,214,-117,-102,219,19,297,678,439,209,48
19,229,209,-124,-95,219,14,307,692,448,214,53
29,234,204,-131,-87,219,9,312,702,458,219,58
48,239,190,-143,-70,214,4,307,712,468,224,58
58,239,180,-148,-61,209,0,312,722,473,229,58
63,239,175,-151,-56,207,-4,317,722,478,234,63
68,239,170,-153,-51,204,-9,322,727,483,239,63
73,229,156,-151,-41,192,-14,322,732,478,244,68
82,234,151,-158,-34,192,-14,322,732,483,248,68
92,234,141,-163,-24,187,-24,322,732,488,248,73
97,234,136,-165,-19,185,-29,317,732,488,248,73
102,234,131,-168,-14,183,-43,307,722,483,253,78
112,234,122,-173,-4,178,-43,297,712,483,253,82
117,229,112,-173,2,170,-48,292,688,483,253,87
122,229,107,-175,7,168,-53,278,663,473,253,92
126,229,102,-178,12,165,-48,268,634,458,244,97
126,229,102,-178,12,165,-53,253,610,453,244,102
126,229,102,-178,12,165,-58,239,585,439,244,102
122,224,102,-173,9,163,-63,224,561,429,244,102
112,224,112,-168,0,168,-63,200,527,414,253,112
107,224,117,-165,-4,170,-63,180,497,395,248,112
102,224,122,-163,-9,173,-68,161,468,385,244,117
97,224,126,-161,-14,175,-68,141,439,370,239,122
92,224,131,-158,-19,178,-68,122,405,356,224,126
92,214,122,-153,-14,168,-73,102,370,341,224,131
82,214,131,-148,-24,173,-73,87,341,326,219,131
73,209,136,-141,-31,173,-73,68,307,307,214,136
68,204,136,-136,-34,170,-73,58,278,278,219,141
73,200,126,-136,-26,163,-73,43,244,263,214,141
63,195,131,-129,-34,163,-68,34,229,253,209,141
63,190,126,-126,-31,158,-68,14,195,234,204,141
43,180,136,-112,-46,158,-68,9,185,219,195,131
34,175,141,-104,-53,158,-68,4,156,209,180,131
29,165,136,-97,-53,151,-58,-4,131,195,170,131
19,156,136,-87,-58,146,-53,-14,117,180,165,131
9,146,136,-78,-63,141,-53,-19,107,161,161,117
0,136,136,-68,-68,136,-43,-24,87,146,151,117
-4,131,136,-63,-70,134,-43,-29,78,136,146,112
-14,122,136,-53,-75,129,-39,-34,63,122,141,107
-19,107,126,-43,-73,117,-34,-39,48,107,126,112
-19,107,126,-43,-73,117,-29,-43,29,102,122,107
-29,97,126,-34,-78,112,-24,-48,19,92,117,102
-34,92,126,-29,-80,109,-19,-48,4,82,112,97
-34,97,131,-31,-82,114,-19,-48,4,82,102,87
-39,92,131,-26,-85,112,-14,-48,0,73,102,82
-43,87,131,-21,-87,109,-9,-48,0,63,92,78
-48,82,131,-17,-90,107,-9,-48,-4,58,87,78
-63,78,141,-7,-102,109,-9,-58,-14,53,92,87
-68,73,141,-2,-104,107,-4,-58,-19,48,87,82
-68,68,136,0,-102,102,-4,-58,-24,43,87,78
-73,68,141,2,-107,104,0,-58,-29,39,82,78
-73,63,136,4,-104,100,-9,-53,-24,43,78,68
-73,58,131,7,-102,95,-9,-53,-29,39,78,68
-78,58,136,9,-107,97,-4,-53,-29,34,68,68
-82,53,136,14,-109,95,-4,-53,-34,34,68,68
-73,53,126,9,-100,90,-4,-63,-43,29,68,63
-73,53,126,9,-100,90,0,-63,-43,29,68,58
-73,53,126,9,-100,90,0,-68,-48,29,63,58
-82,53,136,14,-109,95,0,-68,-48,24,63,58
-92,39,131,26,-112,85,9,-68,-39,24,53,63
-87,39,126,24,-107,82,9,-68,-39,14,53,63
-87,39,126,24,-107,82,9,-68,-39,14,53,63
-87,39,126,24,-107,82,9,-68,-39,19,53,63
-82,48,131,17,-107,90,0,-58,-53,9,43,58
-82,48,131,17,-107,90,0,-58,-53,4,43,58
-82,43,126,19,-104,85,4,-58,-53,4,43,63
-82,43,126,19,-104,85,4,-58,-53,4,39,63
-82,43,126,19,-104,85,4,-68,-43,14,48,63
-82,43,126,19,-104,85,4,-68,-43,14,48,63
-82,43,126,19,-104,85,4,-68,-43,14,43,58
-82,43,126,19,-104,85,4,-68,-43,14,43,58
-82,39,122,21,-102,80,-4,-58,-53,9,39,58
-82,39,122,21,-102,80,-4,-58,-53,9,39,53
-82,39,122,21,-102,80,-4,-58,-53,9,39,53
-82,43,126,19,-104,85,-4,-58,-58,9,39,53
-82,34,117,24,-100,75,4,-73,-48,9,39,53
-82,34,117,24,-100,75,4,-73,-48,9,39,53
-82,34,117,24,-100,75,4,-73,-48,9,43,48
-82,34,117,24,-100,75,4,-68,-48,9,43,48
-82,29,112,26,-97,70,4,-68,-48,9,39,48
-82,29,112,26,-97,70,4,-68,-43,4,39,48
-82,29,112,26,-97,70,4,-68,-43,4,39,43
-82,29,112,26,-97,70,4,-68,-43,4,39,43
-82,24,107,29,-95,65,4,-68,-43,4,39,43
-82,24,107,29,-95,65,4,-68,-48,4,39,43
-82,24,107,29,-95,65,4,-68,-48,4,34,43
-82,24,107,29,-95,65,4,-68,-43,4,34,43
-82,24,107,29,-95,65,4,-68,-43,4,34,43
-87,24,112,31,-100,68,4,-68,-48,4,34,43
-87,24,112,31,-100,68,4,-68,-48,4,34,43
-87,24,112,31,-100,68,4,-68,-43,4,34,43
-97,24,122,36,-109,73,14,-58,-43,4,34,43
-97,24,122,36,-109,73,14,-58,-43,4,34,43
-97,24,122,36,-109,73,14,-58,-43,4,34,43
-97,24,122,36,-109,73,14,-58,-43,4,34,43
-97,34,131,31,-114,82,4,-68,-43,4,34,53
-97,34,131,31,-114,82,4,-68,-43,4,34,53
-97,34,131,31,-114,82,4,-68,-43,4,34,48
-97,39,136,29,-117,87,4,-68,-43,4,34,48
-97,39,136,29,-117,87,14,-68,-43,4,43,48
-97,39,136,29,-117,87,14,-68,-43,4,43,48
-97,39,136,29,-117,87,14,-68,-43,4,39,48
-97,39,136,29,-117,87,14,-68,-43,4,39,48
-87,39,126,24,-107,82,14,-58,-43,4,39,39
-87,39,126,24,-107,82,14,-58,-43,4,39,43
-92,39,131,26,-112,85,14,-58,-39,9,39,43
-92,39,131,26,-112,85,14,-58,-39,9,43,43
-102,29,131,36,-117,80,14,-58,-29,9,43,39
-102,29,131,36,-117,80,19,-58,-29,9,43,39
-102,34,136,34,-119,85,19,-58,-29,9,43,39
-102,34,136,34,-119,85,19,-58,-29,9,43,39
-102,43,146,29,-124,95,19,-58,-29,9,39,48
-102,43,146,29,-124,95,19,-58,-29,14,39,48
-102,43,146,29,-124,95,19,-58,-29,14,43,48
-102,43,146,29,-124,95,19,-58,-24,14,43,48
-102,43,146,29,-124,95,19,-58,-24,14,34,39
-102,43,146,29,-124,95,19,-58,-24,14,34,43
-102,43,146,29,-124,95,19,-58,-24,14,39,43
-102,48,151,26,-126,100,19,-58,-19,19,39,43
-102,39,141,31,-122,90,19,-58,-19,29,48,53
-102,39,141,31,-122,90,19,-53,-19,29,48,53
-102,39,141,31,-122,90,19,-53,-14,34,53,53
-102,34,136,34,-119,85,19,-53,-14,34,53,53
-102,34,136,34,-119,85,19,-53,-14,34,53,53
-107,39,146,34,-126,92,19,-53,-14,34,53,53
-112,43,156,34,-134,100,19,-53,-14,34,53,53
-112,43,156,34,-134,100,19,-53,-14,39,53,53
-107,43,151,31,-129,97,9,-53,-14,39,53,53
-102,43,146,29,-124,95,9,-53,-9,39,53,53
-97,43,141,26,-119,92,9,-53,-4,43,53,58
-92,43,136,24,-114,90,9,-53,-4,43,53,58
-92,43,136,24,-114,90,19,-53,-9,34,53,48
-92,48,141,21,-117,95,14,-53,-9,34,53,48
-92,48,141,21,-117,95,14,-53,-9,39,58,48
-92,48,141,21,-117,95,14,-53,-4,39,58,48
-92,48,141,21,-117,95,4,-53,-4,39,53,48
-92,53,146,19,-119,100,4,-48,-4,39,53,48
-92,53,146,19,-119,100,4,-48,-4,39,53,53
-92,53,146,19,-119,100,4,-48,-4,43,53,53
-87,63,151,12,-119,107,14,-48,9,43,63,63
-87,63,151,12,-119,107,14,-48,9,43,63,63
-87,63,151,12,-119,107,9,-48,9,48,63,63
-87,63,151,12,-119,107,9,-48,9,48,63,63
-68,82,151,-7,-109,117,-9,-53,19,58,73,73
-73,92,165,-9,-119,129,-9,-63,19,58,78,73
-68,117,185,-24,-126,151,-19,-48,29,68,87,78
-63,122,185,-29,-124,153,-29,-48,39,73,92,87
-58,126,185,-34,-122,156,-29,-48,39,78,97,87
-53,131,185,-39,-119,158,-29,-48,39,82,102,87
-48,136,185,-43,-117,161,-29,-48,39,87,107,87
-34,146,180,-56,-107,163,-43,-48,43,102,112,102
-29,161,190,-65,-109,175,-43,-48,48,102,117,107
-29,161,190,-65,-109,175,-43,-48,53,107,117,107
-24,161,185,-68,-104,173,-43,-43,53,107,117,107
-24,151,175,-63,-100,163,-43,-29,68,107,126,112
-19,151,170,-65,-95,161,-53,-29,68,107,126,112
-19,151,170,-65,-95,161,-58,-29,68,107,126,112
-9,156,165,-73,-87,161,-63,-29,78,117,136,122
-9,156,165,-73,-87,161,-68,-39,82,122,131,122
-4,156,161,-75,-82,158,-82,-43,82,122,136,122
0,161,161,-80,-80,161,-97,-58,73,122,136,126
4,170,165,-87,-80,168,-126,-78,58,122,136,136
0,175,175,-87,-87,175,-151,-102,48,122,136,141
4,185,180,-95,-87,183,-165,-117,39,122,141,146
19,190,170,-104,-75,180,-165,-117,29,122,141,146
19,200,180,-109,-80,190,-175,-126,24,122,146,146
34,204,170,-119,-68,187,-185,-122,19,122,156,156
53,204,151,-129,-48,178,-185,-122,19,122,156,165
68,214,146,-141,-39,180,-185,-117,19,122,165,175
82,224,141,-153,-29,183,-185,-107,24,131,170,180
82,229,146,-156,-31,187,-170,-92,24,131,165,185
82,229,146,-156,-31,187,-161,-92,29,131,170,185
78,224,146,-151,-34,185,-156,-87,29,131,170,185
73,214,141,-143,-34,178,-141,-87,29,131,170,185
58,200,141,-129,-41,170,-131,-82,24,122,170,185
53,195,141,-124,-43,168,-122,-82,19,117,161,185
48,185,136,-117,-43,161,-112,-78,14,107,156,175
39,175,136,-107,-48,156,-102,-78,9,92,151,170
29,165,136,-97,-53,151,-97,-82,4,92,146,156
19,165,146,-92,-63,156,-92,-87,0,87,141,151
14,151,136,-82,-61,143,-87,-92,-4,82,131,146
9,146,136,-78,-63,141,-73,-97,-4,78,126,141
-4,126,131,-61,-68,129,-68,-87,-4,73,107,126
-24,102,126,-39,-75,114,-48,-82,-14,58,97,117
-58,78,136,-9,-97,107,-29,-73,-19,39,78,97
-73,58,131,7,-102,95,-14,-68,-24,24,63,78
-82,58,141,12,-112,100,0,-78,-29,29,58,78
-92,43,136,24,-114,90,14,-73,-29,24,58,73
-97,39,136,29,-117,87,19,-68,-29,24,63,73
-97,39,136,29,-117,87,29,-63,-24,29,68,68
-97,29,126,34,-112,78,29,-58,-14,29,68,68
-97,29,126,34,-112,78,34,-58,-14,29,68,63
-97,24,122,36,-109,73,39,-53,-14,29,58,58
-97,9,107,43,-102,58,43,-48,-14,19,53,58
-97,19,117,39,-107,68,43,-48,-14,19,39,48
-97,14,112,41,-104,63,43,-48,-14,19,39,48
-97,9,107,43,-102,58,48,-43,-14,14,39,48
-102,9,112,46,-107,61,48,-43,-14,14,39,48
-102,9,112,46,-107,61,53,-43,-14,14,39,39
-102,9,112,46,-107,61,53,-43,-19,14,39,39
-107,9,117,48,-112,63,53,-43,-19,9,39,39
-107,9,117,48,-112,63,53,-43,-19,9,39,34
-107,4,112,51,-109,58,53,-43,-29,0,34,34
-107,4,112,51,-109,58,53,-43,-29,0,34,34
-107,4,112,51,-109,58,53,-43,-29,0,34,34
-107,4,112,51,-109,58,58,-43,-29,0,34,34
-112,0,112,56,-112,56,58,-43,-29,4,29,34
-112,0,112,56,-112,56,58,-43,-34,4,29,29
-112,0,112,56,-112,56,63,-43,-34,4,29,29
-112,-4,107,58,-109,51,63,-43,-34,4,29,29
-112,-4,107,58,-109,51,53,-43,-34,4,24,29
-112,-4,107,58,-109,51,58,-43,-34,4,24,29
-122,-4,117,63,-119,56,58,-43,-34,0,24,24
-122,-4,117,63,-119,56,58,-43,-39,0,24,24
-122,0,122,61,-122,61,58,-43,-39,0,34,34
-122,0,122,61,-122,61,58,-43,-34,0,34,34
-122,0,122,61,-122,61,63,-43,-34,0,34,34
-122,0,122,61,-122,61,63,-43,-34,4,34,34
-122,0,122,61,-122,61,63,-43,-24,9,34,34
-122,0,122,61,-122,61,63,-53,-29,14,34,29
-122,14,136,53,-129,75,58,-53,-29,29,43,39
-131,29,161,51,-146,95,58,-58,-24,39,63,63
-141,63,204,39,-173,134,58,-73,-24,68,82,78
-151,87,239,31,-195,163,53,-82,-14,117,117,97
-146,126,273,9,-209,200,43,-112,-24,141,161,136
-156,170,326,-7,-241,248,24,-156,-78,151,200,165
-175,224,400,-24,-287,312,14,-190,-136,170,229,214
-195,283,478,-43,-336,380,14,-229,-175,200,278,273
-185,341,527,-78,-356,434,-9,-268,-239,200,331,336
-170,375,546,-102,-358,461,-58,-322,-366,161,366,375
-136,380,517,-122,-326,448,-117,-380,-551,97,375,429
-78,380,458,-151,-268,419,-165,-444,-756,9,395,478
14,356,341,-185,-163,348,-234,-483,-941,-87,400,507
112,287,175,-200,-31,231,-292,-483,-1058,-185,409,536
248,190,-58,-219,153,65,-336,-424,-1112,-263,414,580
385,117,-268,-251,326,-75,-380,-366,-1141,-287,444,629
517,87,-429,-302,473,-170,-444,-356,-1156,-292,463,658
649,34,-614,-341,631,-290,-502,-346,-1195,-326,453,683
775,-39,-814,-368,795,-427,-556,-297,-1244,-400,366,644
868,-151,-1019,-358,944,-585,-566,-244,-1332,-570,151,512
868,-307,-1176,-280,1022,-741,-541,-180,-1434,-814,-200,268
873,-483,-1356,-195,1115,-919,-502,-112,-1493,-1058,-522,14
927,-673,-1600,-126,1263,-1137,-483,-39,-1503,-1239,-736,-180
985,-849,-1834,-68,1410,-1342,-453,58,-1488,-1410,-951,-375
1005,-1019,-2025,7,1515,-1522,-409,131,-1464,-1566,-1161,-590
1005,-1210,-2215,102,1610,-1712,-351,170,-1449,-1712,-1356,-771
985,-1395,-2381,204,1683,-1888,-292,200,-1424,-1805,-1503,-946
956,-1522,-2479,283,1717,-2000,-244,204,-1376,-1834,-1595,-1093
912,-1595,-2508,341,1710,-2052,-190,224,-1293,-1805,-1620,-1185
883,-1595,-2479,356,1681,-2037,-161,239,-1180,-1722,-1571,-1200
854,-1542,-2396,344,1625,-1969,-146,234,-1112,-1634,-1498,-1156
810,-1517,-2327,353,1568,-1922,-131,204,-1073,-1556,-1449,-1132
746,-1512,-2259,383,1503,-1886,-92,180,-1029,-1512,-1420,-1132
658,-1488,-2147,414,1403,-1817,-68,156,-1000,-1468,-1376,-1107
566,-1434,-2000,434,1283,-1717,-43,112,-990,-1405,-1327,-1088
492,-1395,-1888,451,1190,-1642,-9,82,-976,-1361,-1298,-1068
414,-1342,-1756,463,1085,-1549,4,34,-961,-1307,-1259,-1049
351,-1283,-1634,466,993,-1459,19,-29,-941,-1244,-1200,-1015
287,-1205,-1493,458,890,-1349,48,-73,-902,-1166,-1132,-966
224,-1122,-1346,448,785,-1234,58,-112,-839,-1088,-1063,-907
161,-1039,-1200,439,680,-1119,73,-136,-780,-1010,-971,-824
112,-961,-1073,424,592,-1017,82,-136,-707,-927,-878,-756
73,-863,-936,395,505,-900,92,-126,-634,-839,-790,-688
39,-736,-775,348,407,-756,82,-117,-536,-712,-688,-595
29,-600,-629,285,329,-614,68,-112,-429,-570,-556,-488
19,-468,-488,224,253,-478,58,-97,-326,-434,-429,-370
-9,-366,-356,187,173,-361,58,-78,-239,-326,-322,-287
-39,-307,-268,173,114,-287,68,-68,-175,-258,-258,-234
-43,-248,-204,146,80,-226,78,-48,-131,-214,-209,-190
-63,-195,-131,129,34,-163,82,-39,-73,-165,-151,-146
-82,-136,-53,109,-14,-95,92,-14,-4,-107,-102,-102
-92,-78,14,85,-53,-31,92,9,39,-58,-58,-68
-92,-43,48,68,-70,2,92,14,68,-4,-9,-43
-102,-39,63,70,-82,12,92,24,78,14,4,-34
-107,-29,78,68,-92,24,97,19,78,24,4,-34
-117,-29,87,73,-102,29,97,19,78,14,0,-24
-117,-24,92,70,-104,34,97,14,78,14,0,-24
-122,-19,102,70,-112,41,97,9,78,9,0,-24
-126,-19,107,73,-117,43,97,9,78,9,0,-24
-126,-4,122,65,-124,58,97,19,78,9,0,-24
-126,0,126,63,-126,63,97,19,78,19,9,-19
-126,4,131,61,-129,68,97,19,82,24,9,-19
-126,9,136,58,-131,73,97,19,82,29,9,-14
-126,14,141,56,-134,78,97,14,92,34,9,-14
-126,14,141,56,-134,78,97,14,92,34,9,-14
-126,14,141,56,-134,78,97,14,92,34,9,-14
-126,14,141,56,-134,78,97,14,92,29,9,-19
-126,19,146,53,-136,82,97,19,92,39,9,-9
-126,19,146,53,-136,82,97,19,92,39,9,-9
-126,19,146,53,-136,82,97,19,97,39,9,-9
-126,19,146,53,-136,82,92,19,97,43,9,-4
-126,14,141,56,-134,78,92,19,97,48,14,-4
-126,14,141,56,-134,78,92,24,102,48,14,-4
-126,14,141,56,-134,78,92,24,102,48,14,-4
-126,14,141,56,-134,78,92,24,102,48,14,-4
-126,29,156,48,-141,92,92,19,102,48,19,-4
-122,29,151,46,-136,90,92,19,107,48,19,-4
-122,29,151,46,-136,90,92,19,107,53,19,-4
-122,29,151,46,-136,90,87,19,107,53,19,-4
-122,29,151,46,-136,90,87,9,107,53,29,-4
-122,29,151,46,-136,90,82,9,112,53,29,-4
-122,34,156,43,-139,95,82,9,112,58,29,-4
-122,34,156,43,-139,95,82,9,112,58,29,-4
-122,34,156,43,-139,95,73,9,117,58,19,-4
-117,34,151,41,-134,92,73,14,117,58,19,-4
-117,39,156,39,-136,97,73,14,117,63,19,0
-117,39,156,39,-136,97,68,14,117,63,24,0
-117,39,156,39,-136,97,68,9,122,63,34,0
-117,39,156,39,-136,97,68,9,122,63,34,0
-117,39,156,39,-136,97,68,14,122,68,34,0
-117,43,161,36,-139,102,68,14,126,68,34,0
-117,43,161,36,-139,102,68,14,126,68,34,-9
-117,43,161,36,-139,102,68,14,136,68,34,-4
-117,43,161,36,-139,102,63,14,141,78,39,-4
-122,43,165,39,-143,104,63,14,141,78,39,-4
-112,48,161,31,-136,104,73,24,146,78,39,4
-112,48,161,31,-136,104,73,24,151,78,39,4
-107,53,161,26,-134,107,73,29,156,87,39,4
-107,53,161,26,-134,107,73,29,156,87,39,4
-117,53,170,31,-143,112,63,29,156,87,43,4
-122,53,175,34,-148,114,63,29,161,92,43,4
-122,58,180,31,-151,119,63,29,161,92,43,4
-122,58,180,31,-151,119,58,34,170,97,43,4
-122,63,185,29,-153,124,68,34,175,97,48,4
-117,63,180,26,-148,122,68,39,180,107,48,4
-117,68,185,24,-151,126,68,39,185,112,48,4
-117,68,185,24,-151,126,68,39,190,117,48,4
-117,68,185,24,-151,126,68,43,195,112,53,4
-117,73,190,21,-153,131,68,43,204,117,53,4
-117,73,190,21,-153,131,63,53,209,122,58,4
-117,78,195,19,-156,136,63,53,219,126,58,4
-112,78,190,17,-151,134,63,58,224,126,63,9
-112,87,200,12,-156,143,63,63,234,131,63,9
-117,87,204,14,-161,146,63,68,248,141,73,9
-117,87,204,14,-161,146,63,73,258,146,73,9
-107,107,214,0,-161,161,53,78,263,151,73,9
-107,112,219,-2,-163,165,53,82,273,156,78,14
-102,112,214,-4,-158,163,53,82,283,165,78,14
-102,122,224,-9,-163,173,53,87,292,170,82,14
-112,117,229,-2,-170,173,63,92,302,185,82,24
-107,117,224,-4,-165,170,63,97,312,195,92,24
-107,122,229,-7,-168,175,58,102,326,204,97,24
-107,126,234,-9,-170,180,58,112,341,209,102,29
-102,141,244,-19,-173,192,48,117,361,214,107,29
-102,146,248,-21,-175,197,48,126,366,219,112,29
-102,146,248,-21,-175,197,43,136,385,229,117,29
-102,151,253,-24,-178,202,43,136,395,239,122,29
-92,151,244,-29,-168,197,43,141,409,248,126,24
-92,156,248,-31,-170,202,39,156,424,258,131,24
-87,161,248,-36,-168,204,39,165,439,268,136,24
-78,165,244,-43,-161,204,39,175,458,278,141,29
-63,180,244,-58,-153,212,39,180,473,287,146,29
-63,180,244,-58,-153,212,39,190,492,297,151,29
-58,185,244,-63,-151,214,39,200,507,312,156,29
-48,190,239,-70,-143,214,39,209,522,322,161,29
-53,185,239,-65,-146,212,34,224,536,326,165,43
-48,185,234,-68,-141,209,24,234,556,336,170,43
-43,190,234,-73,-139,212,24,234,570,346,175,43
-34,200,234,-82,-134,217,19,253,590,356,185,48
-19,204,224,-92,-122,214,14,263,595,370,190,39
-9,209,219,-100,-114,214,9,263,614,380,200,39
-4,214,219,-104,-112,217,9,273,624,390,204,43
9,219,209,-114,-100,214,4,278,634,400,209,43
19,224,204,-122,-92,214,0,292,649,400,204,43
29,224,195,-126,-82,209,0,297,658,409,209,48
39,229,190,-134,-75,209,-4,307,673,419,214,53
48,234,185,-141,-68,209,-9,312,683,429,219,58
58,239,180,-148,-61,209,-14,307,692,439,224,58
68,239,170,-153,-51,204,-19,312,702,444,229,58
73,239,165,-156,-46,202,-24,317,702,448,234,63
78,239,161,-158,-41,200,-29,322,707,453,239,63
92,239,146,-165,-26,192,-34,322,702,448,244,68
102,244,141,-173,-19,192,-34,322,702,453,248,68
112,244,131,-178,-9,187,-43,322,702,458,248,73
117,244,126,-180,-4,185,-48,317,702,458,248,73
122,244,122,-183,0,183,-53,307,688,453,253,78
131,244,112,-187,9,178,-53,297,683,453,253,82
136,239,102,-187,17,170,-58,292,663,453,253,87
141,239,97,-190,21,168,-63,278,644,444,253,92
136,239,102,-187,17,170,-68,258,624,439,253,97
136,239,102,-187,17,170,-73,244,600,434,253,102
136,239,102,-187,17,170,-78,229,575,419,253,102
131,234,102,-183,14,168,-82,214,551,409,253,102
131,244,112,-187,9,178,-82,200,527,405,253,102
126,244,117,-185,4,180,-82,180,497,385,248,102
122,244,122,-183,0,183,-87,161,468,375,244,107
117,244,126,-180,-4,185,-87,141,439,361,239,112
112,234,122,-173,-4,178,-87,122,405,346,234,117
112,224,112,-168,0,168,-92,102,370,331,234,122
102,224,122,-163,-9,173,-92,87,341,317,229,122
92,219,126,-156,-17,173,-92,68,307,297,224,126
92,214,122,-153,-14,168,-92,58,287,278,219,131
92,209,117,-151,-12,163,-92,43,253,263,214,131
78,204,126,-141,-24,165,-87,34,239,253,209,131
73,200,126,-136,-26,163,-87,14,204,234,204,131
53,200,146,-126,-46,173,-78,0,195,219,200,131
43,195,151,-119,-53,173,-78,-4,165,209,190,131
39,185,146,-112,-53,165,-68,-14,141,195,185,131
29,175,146,-102,-58,161,-63,-24,126,180,185,131
19,165,146,-92,-63,156,-73,-29,107,161,161,126
9,156,146,-82,-68,151,-63,-34,87,146,151,126
4,151,146,-78,-70,148,-63,-39,78,136,146,122
-4,141,146,-68,-75,143,-58,-43,63,122,141,117
-9,136,146,-63,-78,141,-53,-48,58,107,136,112
-9,136,146,-63,-78,141,-48,-53,39,102,131,107
-19,126,146,-53,-82,136,-43,-58,29,92,126,102
-24,122,146,-48,-85,134,-39,-58,14,82,122,97
-34,117,151,-41,-92,134,-39,-58,19,73,112,97
-39,112,151,-36,-95,131,-34,-58,9,63,112,92
-43,107,151,-31,-97,129,-29,-58,4,53,102,87
-48,102,151,-26,-100,126,-29,-58,-4,48,97,87
-53,87,141,-17,-97,114,-29,-68,-14,48,102,87
-58,82,141,-12,-100,112,-24,-68,-19,48,97,82
-58,78,136,-9,-97,107,-24,-68,-24,48,97,78
-63,78,141,-7,-102,109,-19,-68,-29,48,92,78
-63,82,146,-9,-104,114,-19,-73,-34,34,87,78
-63,78,141,-7,-102,109,-19,-73,-39,29,87,78
-68,78,146,-4,-107,112,-14,-73,-39,24,78,78
-73,73,146,0,-109,109,-14,-73,-43,24,78,78
-63,63,126,0,-95,95,-4,-73,-43,29,78,73
-63,63,126,0,-95,95,0,-73,-43,29,78,68
-63,63,126,0,-95,95,0,-78,-48,29,73,68
-73,63,136,4,-104,100,0,-78,-48,24,73,68
-82,58,141,12,-112,100,-9,-68,-48,24,73,63
-78,58,136,9,-107,97,-9,-68,-48,14,73,63
-78,58,136,9,-107,97,-9,-68,-48,14,73,63
-78,58,136,9,-107,97,-9,-68,-48,19,73,63
-73,58,131,7,-102,95,-9,-78,-43,19,63,58
-73,58,131,7,-102,95,-9,-78,-43,14,63,58
-73,53,126,9,-100,90,-4,-78,-43,14,63,63
-73,53,126,9,-100,90,-4,-78,-43,14,58,63
-73,53,126,9,-100,90,-4,-68,-43,4,68,63
-73,53,126,9,-100,90,-4,-68,-43,4,68,63
-73,53,126,9,-100,90,-4,-68,-43,4,63,58
-73,53,126,9,-100,90,-4,-68,-43,4,63,58
-73,58,131,7,-102,95,-4,-78,-53,9,48,58
-73,58,131,7,-102,95,-4,-78,-53,9,48,53
-73,58,131,7,-102,95,-4,-78,-53,9,48,53
-73,63,136,4,-104,100,-4,-78,-58,9,48,53
-82,53,136,14,-109,95,-4,-82,-48,9,48,53
-82,53,136,14,-109,95,-4,-82,-48,9,48,53
-82,53,136,14,-109,95,-4,-82,-48,9,53,48
-82,53,136,14,-109,95,-4,-78,-48,9,53,48
-82,48,131,17,-107,90,-4,-78,-48,9,48,58
-82,48,131,17,-107,90,-4,-78,-43,4,48,58
-82,48,131,17,-107,90,-4,-78,-43,4,48,53
-82,48,131,17,-107,90,-4,-78,-43,4,48,53
-73,53,126,9,-100,90,-4,-68,-53,4,48,53
-73,53,126,9,-100,90,-4,-68,-58,4,48,53
-73,53,126,9,-100,90,-4,-68,-58,4,43,53
-73,53,126,9,-100,90,-4,-68,-53,4,43,53
-73,53,126,9,-100,90,-4,-68,-53,4,53,53
-78,53,131,12,-104,92,-4,-68,-58,4,53,53
-78,53,131,12,-104,92,-4,-68,-58,4,53,53
-78,53,131,12,-104,92,-4,-68,-53,4,53,53
-78,63,141,7,-109,102,-4,-68,-53,4,53,53
-78,63,141,7,-109,102,-4,-68,-53,4,53,53
-78,63,141,7,-109,102,-4,-68,-53,4,53,53
-78,63,141,7,-109,102,-4,-68,-53,4,53,53
-87,53,141,17,-114,97,-4,-68,-53,4,43,43
-87,53,141,17,-114,97,-4,-68,-53,4,43,43
-87,53,141,17,-114,97,-4,-68,-53,4,43,39
-87,58,146,14,-117,102,-4,-68,-53,4,43,39
-87,58,146,14,-117,102,4,-68,-53,-4,53,48
-87,58,146,14,-117,102,4,-68,-53,-4,53,48
-87,58,146,14,-117,102,4,-68,-53,-4,48,48
-87,58,146,14,-117,102,4,-68,-53,-4,48,48
-78,68,146,4,-112,107,-4,-68,-43,4,48,39
-78,68,146,4,-112,107,-4,-68,-43,4,48,43
-82,68,151,7,-117,109,-4,-68,-39,9,48,43
-82,68,151,7,-117,109,-4,-68,-39,9,53,43
-92,63,156,14,-124,109,4,-68,-39,9,53,48
-92,58,151,17,-122,104,9,-68,-39,9,53,48
-92,58,151,17,-122,104,9,-68,-39,9,53,48
-92,53,146,19,-119,100,9,-68,-39,9,53,48
-92,58,151,17,-122,104,0,-68,-39,9,48,48
-92,63,156,14,-124,109,0,-68,-39,14,48,48
-92,68,161,12,-126,114,0,-68,-39,14,53,48
-92,73,165,9,-129,119,0,-68,-34,14,53,48
-82,63,146,9,-114,104,0,-68,-34,24,53,48
-82,63,146,9,-114,104,0,-68,-34,24,53,53
-82,63,146,9,-114,104,0,-68,-34,24,58,53
-82,68,151,7,-117,109,0,-68,-29,29,58,53
-82,58,141,12,-112,100,9,-68,-29,19,68,53
-82,58,141,12,-112,100,9,-63,-29,19,68,53
-82,58,141,12,-112,100,9,-63,-24,24,73,53
-82,53,136,14,-109,95,9,-63,-24,24,73,53
-82,63,146,9,-114,104,0,-63,-24,24,63,53
-87,68,156,9,-122,112,0,-63,-24,24,63,53
-92,73,165,9,-129,119,0,-63,-24,24,63,53
-92,73,165,9,-129,119,0,-63,-24,29,63,53
-82,73,156,4,-119,114,9,-63,-24,29,63,53
-82,73,156,4,-119,114,9,-63,-19,29,63,53
-82,73,156,4,-119,114,9,-63,-14,34,63,58
-82,73,156,4,-119,114,9,-63,-14,34,63,58
-92,63,156,14,-124,109,0,-63,-19,34,73,48
-92,68,161,12,-126,114,-4,-63,-19,34,73,48
-92,68,161,12,-126,114,-4,-63,-19,39,78,48
-92,68,161,12,-126,114,-4,-63,-14,39,78,48
-82,58,141,12,-112,100,4,-63,-14,39,73,48
-82,63,146,9,-114,104,4,-58,-14,39,73,48
-82,63,146,9,-114,104,4,-58,-14,39,73,53
-82,63,146,9,-114,104,4,-58,-14,43,73,53
-87,63,151,12,-119,107,14,-58,-9,43,82,63
-87,63,151,12,-119,107,14,-58,-9,43,82,63
-87,63,151,12,-119,107,9,-58,-9,48,82,63
-87,63,151,12,-119,107,9,-58,-9,48,82,63
-78,68,146,4,-112,107,0,-63,-9,48,73,53
-73,73,146,0,-109,109,0,-63,-9,48,78,53
-73,78,151,-2,-112,114,0,-58,-4,48,78,58
-73,82,156,-4,-114,119,0,-58,-4,53,82,58
-63,102,165,-19,-114,134,-9,-48,14,63,92,68
-63,112,175,-24,-119,143,-9,-58,14,63,92,73
-58,117,175,-29,-117,146,-19,-58,19,68,97,87
-48,131,180,-41,-114,156,-24,-58,29,73,107,97
-48,136,185,-43,-117,161,-29,-58,29,78,107,97
-48,141,190,-46,-119,165,-34,-58,29,82,107,97
-48,146,195,-48,-122,170,-39,-58,29,87,107,97
-34,156,190,-61,-112,173,-53,-58,34,92,122,102
-29,170,200,-70,-114,185,-53,-58,39,92,126,107
-29,170,200,-70,-114,185,-53,-58,43,97,126,107
-24,170,195,-73,-109,183,-53,-53,43,97,126,107
-24,170,195,-73,-109,183,-53,-48,48,97,126,112
-19,170,190,-75,-104,180,-63,-48,48,97,126,112
-19,170,190,-75,-104,180,-68,-48,48,97,126,112
-9,175,185,-82,-97,180,-73,-48,58,107,136,122
0,175,175,-87,-87,175,-87,-48,63,112,131,122
4,175,170,-90,-82,173,-102,-53,63,112,136,122
9,180,170,-95,-80,175,-117,-68,53,112,136,126
14,190,175,-102,-80,183,-146,-87,39,112,136,136
19,195,175,-107,-78,185,-161,-112,29,122,146,131
24,204,180,-114,-78,192,-175,-126,19,122,151,136
39,209,170,-124,-65,190,-175,-126,9,122,151,136
39,219,180,-129,-70,200,-185,-136,4,122,156,136
48,224,175,-136,-63,200,-195,-141,0,112,146,146
63,224,161,-143,-48,192,-195,-141,0,112,146,156
73,234,161,-153,-43,197,-195,-136,0,112,156,165
82,244,161,-163,-39,202,-195,-126,4,122,161,170
92,239,146,-165,-26,192,-190,-102,14,122,175,175
92,239,146,-165,-26,192,-180,-102,19,122,180,175
87,234,146,-161,-29,190,-175,-97,19,122,180,175
82,224,141,-153,-29,183,-161,-97,19,122,180,175
78,229,151,-153,-36,190,-141,-102,14,122,170,175
73,224,151,-148,-39,187,-131,-102,9,117,161,175
68,214,146,-141,-39,180,-122,-97,4,107,156,165
58,204,146,-131,-43,175,-112,-97,0,92,151,161
39,195,156,-117,-58,175,-117,-102,-14,92,146,156
29,195,165,-112,-68,180,-112,-107,-19,87,141,151
24,180,156,-102,-65,168,-107,-112,-24,82,131,146
19,175,156,-97,-68,165,-92,-117,-24,78,126,141
4,146,141,-75,-68,143,-78,-107,-14,73,117,126
-14,122,136,-53,-75,129,-58,-102,-24,58,107,117
-48,97,146,-24,-97,122,-39,-92,-29,39,87,97
-63,78,141,-7,-102,109,-24,-87,-34,24,73,78
-73,73,146,0,-109,109,-9,-87,-39,29,63,58
-82,63,146,9,-114,104,4,-82,-39,24,58,53
-87,63,151,12,-119,107,9,-78,-39,24,58,53
-87,68,156,9,-122,112,19,-73,-34,29,58,48
-87,58,146,14,-117,102,19,-68,-34,19,58,58
-87,58,146,14,-117,102,24,-68,-34,19,58,53
-87,53,141,17,-114,97,29,-63,-34,19,48,48
-87,39,126,24,-107,82,34,-58,-34,9,43,48
-87,48,136,19,-112,92,34,-68,-43,9,39,29
-87,43,131,21,-109,87,34,-68,-43,9,39,29
-87,39,126,24,-107,82,39,-63,-43,4,39,29
-92,39,131,26,-112,85,39,-63,-43,4,39,29
-92,39,131,26,-112,85,34,-63,-34,4,48,39
-92,39,131,26,-112,85,34,-63,-39,4,48,39
-97,39,136,29,-117,87,34,-63,-39,0,48,39
-97,39,136,29,-117,87,34,-63,-39,0,48,34
-97,24,122,36,-109,73,43,-53,-39,0,43,34
-97,24,122,36,-109,73,43,-53,-39,0,43,34
-97,24,122,36,-109,73,43,-53,-39,0,43,34
-97,24,122,36,-109,73,48,-53,-39,0,43,34
-102,19,122,41,-112,70,39,-63,-48,-4,29,34
-102,19,122,41,-112,70,39,-63,-53,-4,29,29
-102,19,122,41,-112,70,43,-63,-53,-4,29,29
-102,14,117,43,-109,65,43,-63,-53,-4,29,29
-102,14,117,43,-109,65,43,-63,-43,-4,34,29
-102,14,117,43,-109,65,48,-63,-43,-4,34,29
-112,14,126,48,-119,70,48,-63,-43,-9,34,24
-112,14,126,48,-119,70,48,-63,-48,-9,34,24
-112,9,122,51,-117,65,48,-63,-58,-9,24,24
-112,9,122,51,-117,65,48,-63,-53,-9,24,24
-112,9,122,51,-117,65,53,-63,-53,-9,24,24
-112,9,122,51,-117,65,53,-63,-53,-4,24,24
-112,9,122,51,-117,65,63,-63,-43,0,24,24
-112,19,131,46,-122,75,53,-63,-39,4,24,29
-112,34,146,39,-129,90,48,-63,-29,19,34,39
-112,39,151,36,-131,95,48,-78,-34,29,43,43
-122,53,175,34,-148,114,48,-82,-24,48,63,58
-131,87,219,21,-175,153,43,-92,-14,78,97,78
-136,136,273,0,-204,204,34,-112,-14,122,131,117
-136,200,336,-31,-236,268,14,-136,-58,151,180,156
-156,244,400,-43,-278,322,4,-180,-107,180,209,195
-185,292,478,-53,-331,385,4,-229,-136,209,268,253
-185,351,536,-82,-361,444,-9,-258,-180,229,322,307
-151,395,546,-122,-348,470,-48,-292,-258,219,375,356
-117,409,527,-146,-322,468,-87,-331,-414,175,395,409
-68,409,478,-170,-273,444,-146,-414,-629,78,405,458
-14,405,419,-195,-217,412,-195,-473,-834,-29,419,488
63,356,292,-209,-114,324,-253,-473,-990,-117,409,527
180,268,87,-224,46,178,-317,-444,-1073,-204,414,561
317,185,-131,-251,224,26,-370,-395,-1112,-268,424,610
458,117,-341,-287,400,-112,-424,-375,-1137,-283,444,649
590,73,-517,-331,553,-222,-483,-366,-1156,-307,453,673
736,9,-727,-373,732,-358,-536,-336,-1215,-390,395,653
829,-92,-922,-368,875,-507,-575,-292,-1332,-541,219,551
858,-248,-1107,-305,983,-678,-541,-239,-1454,-785,-112,317
844,-414,-1259,-214,1051,-836,-502,-161,-1542,-1039,-483,43
888,-595,-1483,-146,1185,-1039,-473,-97,-1581,-1239,-736,-170
936,-780,-1717,-78,1327,-1249,-453,-48,-1586,-1420,-951,-375
966,-971,-1937,2,1451,-1454,-429,14,-1561,-1576,-1171,-580
976,-1141,-2117,82,1546,-1629,-370,73,-1537,-1722,-1356,-771
966,-1337,-2303,185,1634,-1820,-312,122,-1512,-1834,-1503,-946
927,-1483,-2410,278,1668,-1947,-253,136,-1464,-1893,-1625,-1102
893,-1576,-2469,341,1681,-2022,-200,156,-1410,-1883,-1668,-1205
873,-1605,-2479,366,1676,-2042,-161,180,-1307,-1800,-1629,-1229
844,-1551,-2396,353,1620,-1973,-156,175,-1210,-1693,-1556,-1195
810,-1507,-2318,348,1564,-1912,-141,156,-1132,-1605,-1507,-1161
746,-1503,-2249,378,1498,-1876,-112,131,-1088,-1551,-1468,-1151
668,-1498,-2166,414,1417,-1832,-78,117,-1049,-1507,-1424,-1146
585,-1454,-2039,434,1312,-1747,-43,92,-1019,-1454,-1366,-1117
492,-1405,-1898,456,1195,-1651,-9,63,-1005,-1400,-1317,-1088
414,-1361,-1776,473,1095,-1568,14,34,-1000,-1337,-1288,-1068
361,-1302,-1664,470,1012,-1483,29,-9,-971,-1273,-1229,-1034
287,-1215,-1503,463,895,-1359,48,-73,-922,-1195,-1161,-976
214,-1132,-1346,458,780,-1239,58,-122,-868,-1107,-1083,-917
161,-1049,-1210,444,685,-1129,63,-165,-819,-1019,-1000,-844
122,-961,-1083,419,602,-1022,73,-175,-746,-936,-907,-766
82,-873,-956,395,519,-915,82,-165,-663,-858,-819,-697
48,-766,-814,358,431,-790,82,-156,-575,-751,-717,-624
29,-619,-649,295,339,-634,78,-131,-468,-610,-585,-517
19,-488,-507,234,263,-497,58,-117,-356,-473,-448,-400
0,-366,-366,183,183,-366,58,-97,-258,-356,-351,-307
-19,-297,-278,158,129,-287,68,-78,-195,-268,-287,-244
-43,-239,-195,141,75,-217,68,-68,-151,-224,-239,-209
-63,-185,-122,124,29,-153,73,-58,-92,-175,-180,-165
-82,-126,-43,104,-19,-85,82,-43,-43,-126,-122,-131
-92,-78,14,85,-53,-31,92,-9,9,-78,-68,-87
-92,-43,48,68,-70,2,102,4,48,-24,-29,-53
-92,-19,73,56,-82,26,102,14,68,4,-4,-43
-87,-19,68,53,-78,24,97,19,68,4,-14,-43
-107,-9,97,58,-102,43,97,19,68,14,-19,-34
-107,-4,102,56,-104,48,97,14,68,14,-19,-34
-112,0,112,56,-112,56,97,9,68,9,-19,-34
-117,0,117,58,-117,58,97,9,68,9,-19,-34
-117,0,117,58,-117,58,87,9,68,9,-19,-34
-117,0,117,58,-117,58,87,9,68,19,-9,-29
-117,0,117,58,-117,58,87,9,73,24,-9,-29
-117,0,117,58,-117,58,87,9,73,29,-9,-24
-107,9,117,48,-112,63,97,4,82,34,-9,-24
-107,14,122,46,-114,68,97,4,82,34,-9,-24
-107,19,126,43,-117,73,97,4,82,34,-9,-24
-107,24,131,41,-119,78,97,4,82,29,-9,-29
-117,29,146,43,-131,87,87,9,82,29,0,-19
-117,29,146,43,-131,87,87,9,82,29,0,-19
-117,29,146,43,-131,87,87,9,87,29,0,-19
-117,29,146,43,-131,87,82,9,87,34,0,-14
-117,24,141,46,-129,82,82,9,87,39,4,-4
-117,24,141,46,-129,82,82,14,92,39,4,-4
-117,24,141,46,-129,82,82,14,92,39,4,-4
-117,24,141,46,-129,82,82,14,92,39,4,-4
-117,29,146,43,-131,87,92,9,92,39,0,-9
-112,29,141,41,-126,85,92,9,97,39,0,-14
-112,29,141,41,-126,85,92,9,97,43,0,-19
-112,29,141,41,-126,85,87,9,97,43,0,-24
-112,39,151,36,-131,95,87,9,97,43,0,-14
-112,39,151,36,-131,95,82,9,102,43,0,-14
-112,43,156,34,-134,100,82,9,102,48,0,-14
-112,43,156,34,-134,100,82,9,102,48,0,-14
-112,34,146,39,-129,90,82,9,117,48,9,-14
-107,34,141,36,-124,87,82,14,117,48,9,-14
-107,39,146,34,-126,92,82,14,117,53,9,-9
-107,39,146,34,-126,92,78,14,117,53,14,-9
-107,39,146,34,-126,92,78,9,112,53,4,-9
-107,39,146,34,-126,92,78,9,112,53,4,-9
-107,39,146,34,-126,92,78,14,112,58,4,-9
-107,43,151,31,-129,97,78,14,117,58,4,-9
-107,43,151,31,-129,97,78,14,117,58,14,-19
-107,43,151,31,-129,97,78,14,126,58,14,-14
-107,43,151,31,-129,97,73,14,131,68,19,-14
-112,43,156,34,-134,100,73,14,131,68,19,-14
-112,48,161,31,-136,104,73,24,136,68,19,-4
-112,48,161,31,-136,104,73,24,141,68,19,-4
-107,53,161,26,-134,107,73,29,146,78,19,-4
-107,53,161,26,-134,107,73,29,146,78,19,-4
-107,43,151,31,-129,97,73,19,156,78,24,-14
-112,43,156,34,-134,100,73,19,161,82,24,-14
-112,48,161,31,-136,104,73,19,161,82,24,-14
-112,48,161,31,-136,104,68,24,170,87,24,-14
-112,63,175,24,-143,119,68,34,175,87,29,-4
-107,63,170,21,-139,117,68,39,180,97,29,-4
-107,68,175,19,-141,122,68,39,185,102,29,-4
-107,68,175,19,-141,122,68,39,190,107,29,-4
-117,68,185,24,-151,126,68,34,195,102,34,-14
-117,73,190,21,-153,131,68,34,204,107,34,-14
-117,73,190,21,-153,131,63,43,209,112,39,-14
-117,78,195,19,-156,136,63,43,219,117,39,-14
-102,78,180,12,-141,129,63,58,214,117,34,-9
-102,87,190,7,-146,139,63,63,224,122,34,-9
-107,87,195,9,-151,141,63,68,239,131,43,-9
-107,87,195,9,-151,141,63,73,248,136,43,-9
-107,97,204,4,-156,151,53,68,253,141,43,-9
-107,102,209,2,-158,156,53,73,263,146,48,-4
-102,102,204,0,-153,153,53,73,273,156,48,-4
-102,112,214,-4,-158,163,53,78,283,161,53,-4
-102,117,219,-7,-161,168,53,92,292,175,53,-14
-97,117,214,-9,-156,165,53,97,302,185,63,-14
-97,122,219,-12,-158,170,48,102,317,195,68,-14
-97,126,224,-14,-161,175,48,112,331,200,73,-9
-92,131,224,-19,-158,178,58,117,351,204,87,-4
-92,136,229,-21,-161,183,58,126,356,209,92,0
-92,136,229,-21,-161,183,53,136,375,219,97,4
-92,141,234,-24,-163,187,53,136,385,229,102,9
-82,151,234,-34,-158,192,53,141,400,248,107,14
-82,156,239,-36,-161,197,48,156,414,258,112,14
-78,161,239,-41,-158,200,48,165,429,268,117,14
-68,165,234,-48,-151,200,48,175,448,278,122,19
-63,161,224,-48,-143,192,48,180,473,278,126,19
-63,161,224,-48,-143,192,48,190,492,287,131,19
-58,165,224,-53,-141,195,48,200,507,302,136,19
-48,170,219,-61,-134,195,48,209,522,312,141,19
-43,175,219,-65,-131,197,43,224,536,336,146,24
-39,175,214,-68,-126,195,34,234,556,346,151,24
-34,180,214,-73,-124,197,34,234,570,356,156,24
-24,190,214,-82,-119,202,29,253,590,366,165,29
-19,195,214,-87,-117,204,34,263,605,370,170,29
-9,200,209,-95,-109,204,29,263,624,380,180,29
-4,204,209,-100,-107,207,29,273,634,390,185,34
9,209,200,-109,-95,204,24,278,644,400,190,34
19,204,185,-112,-82,195,9,283,649,419,195,34
29,204,175,-117,-73,190,9,287,658,429,200,39
39,209,170,-124,-65,190,4,297,673,439,204,43
48,214,165,-131,-58,190,0,302,683,448,209,48
58,229,170,-143,-56,200,-4,307,692,448,214,48
68,229,161,-148,-46,195,-9,312,702,453,219,48
73,229,156,-151,-41,192,-14,317,702,458,224,53
78,229,151,-153,-36,190,-19,322,707,463,229,53
92,229,136,-161,-21,183,-34,322,712,468,234,48
102,234,131,-168,-14,183,-34,322,712,473,239,48
112,234,122,-173,-4,178,-43,322,712,478,239,53
117,234,117,-175,0,175,-48,317,712,478,239,53
122,234,112,-178,4,173,-43,317,707,473,244,58
131,234,102,-183,14,168,-43,307,702,473,244,63
136,229,92,-183,21,161,-48,302,683,473,244,68
141,229,87,-185,26,158,-53,287,663,463,244,73
146,239,92,-192,26,165,-58,268,644,458,234,78
146,239,92,-192,26,165,-63,253,619,453,234,82
146,239,92,-192,26,165,-68,239,595,439,234,82
141,234,92,-187,24,163,-73,224,570,429,234,82
141,234,92,-187,24,163,-73,219,546,424,234,92
136,234,97,-185,19,165,-73,200,517,405,229,92
131,234,102,-183,14,168,-78,180,488,395,224,97
126,234,107,-180,9,170,-78,161,458,380,219,102
122,234,112,-178,4,173,-87,131,424,366,224,107
122,224,102,-173,9,163,-92,112,390,351,224,112
112,224,112,-168,0,168,-92,97,361,336,219,112
102,219,117,-161,-7,168,-92,78,326,317,214,117
92,204,112,-148,-9,158,-82,78,307,297,209,122
92,200,107,-146,-7,153,-82,63,273,283,204,122
78,195,117,-136,-19,156,-78,53,258,273,200,122
73,190,117,-131,-21,153,-78,34,224,253,195,122
63,190,126,-126,-31,158,-68,9,204,229,180,112
53,185,131,-119,-39,158,-68,4,175,219,170,112
48,175,126,-112,-39,151,-58,-4,151,204,165,112
39,165,126,-102,-43,146,-53,-14,136,190,165,112
19,165,146,-92,-63,156,-53,-9,117,170,151,107
9,156,146,-82,-68,151,-43,-14,97,156,141,107
4,151,146,-78,-70,148,-43,-19,87,146,136,102
-4,141,146,-68,-75,143,-39,-24,73,131,131,97
-19,126,146,-53,-82,136,-34,-39,68,117,117,92
-19,126,146,-53,-82,136,-29,-43,48,112,112,87
-29,117,146,-43,-87,131,-24,-48,39,102,107,82
-34,112,146,-39,-90,129,-19,-48,24,92,102,78
-34,107,141,-36,-87,124,-29,-48,19,92,92,78
-39,102,141,-31,-90,122,-24,-48,9,82,92,73
-43,97,141,-26,-92,119,-19,-48,4,73,82,68
-48,92,141,-21,-95,117,-19,-48,-4,68,78,68
-53,87,141,-17,-97,114,-9,-48,-14,53,63,68
-58,82,141,-12,-100,112,-4,-48,-19,48,58,63
-58,78,136,-9,-97,107,-4,-48,-24,43,58,58
-63,78,141,-7,-102,109,0,-48,-29,39,53,58
-53,63,117,-4,-85,90,9,-53,-24,34,53,58
-53,58,112,-2,-82,85,9,-53,-29,29,58,58
-58,58,117,0,-87,87,14,-53,-29,24,53,58
-63,53,117,4,-90,85,14,-53,-34,24,58,58
-63,53,117,4,-90,85,14,-53,-34,19,48,53
-63,53,117,4,-90,85,19,-53,-34,19,48,48
-63,53,117,4,-90,85,19,-58,-39,19,43,48
-73,53,126,9,-100,90,19,-58,-39,14,43,48
-82,48,131,17,-107,90,19,-58,-39,14,34,43
-78,48,126,14,-102,87,19,-58,-39,4,34,43
-78,48,126,14,-102,87,19,-58,-39,4,34,43
-78,48,126,14,-102,87,19,-58,-39,9,34,43
-73,48,122,12,-97,85,19,-58,-43,9,34,39
-73,48,122,12,-97,85,19,-58,-43,4,34,39
-73,43,117,14,-95,80,24,-58,-43,4,34,43
-73,43,117,14,-95,80,24,-58,-43,4,29,43
-73,43,117,14,-95,80,14,-58,-43,4,29,43
-73,43,117,14,-95,80,14,-58,-43,4,29,43
-73,43,117,14,-95,80,14,-58,-43,4,24,39
-73,43,117,14,-95,80,14,-58,-43,4,24,39
-73,39,112,17,-92,75,24,-58,-43,0,19,39
-73,39,112,17,-92,75,24,-58,-43,0,19,34
-73,39,112,17,-92,75,24,-58,-43,0,19,34
-73,43,117,14,-95,80,24,-58,-48,0,19,34
-73,43,117,14,-95,80,24,-63,-39,0,19,24
-73,43,117,14,-95,80,24,-63,-39,0,19,24
-73,43,117,14,-95,80,24,-63,-39,0,24,19
-73,43,117,14,-95,80,24,-58,-39,0,24,19
-82,39,122,21,-102,80,24,-58,-48,9,19,19
-82,39,122,21,-102,80,24,-58,-43,4,19,19
-82,39,122,21,-102,80,24,-58,-43,4,19,14
-82,39,122,21,-102,80,24,-58,-43,4,19,14
-73,34,107,19,-90,70,24,-58,-43,-4,9,14
-73,34,107,19,-90,70,24,-58,-48,-4,9,14
-73,34,107,19,-90,70,24,-58,-48,-4,4,14
-73,34,107,19,-90,70,24,-58,-43,-4,4,14
-73,34,107,19,-90,70,24,-58,-34,-4,14,14
-78,34,112,21,-95,73,24,-58,-39,-4,14,14
-78,34,112,21,-95,73,24,-58,-39,-4,14,14
-78,34,112,21,-95,73,24,-58,-34,-4,14,14
-78,34,112,21,-95,73,24,-58,-43,4,14,14
-78,34,112,21,-95,73,24,-58,-43,4,14,14
-78,34,112,21,-95,73,24,-58,-43,4,14,14
-78,34,112,21,-95,73,24,-58,-43,4,14,14
-78,34,112,21,-95,73,24,-58,-43,-4,14,14
-78,34,112,21,-95,73,24,-58,-43,-4,14,14
-78,34,112,21,-95,73,24,-58,-43,-4,14,9
-78,39,117,19,-97,78,24,-58,-43,-4,14,9
-78,48,126,14,-102,87,24,-58,-43,-4,14,9
-78,48,126,14,-102,87,24,-58,-43,-4,14,9
-78,48,126,14,-102,87,24,-58,-43,-4,9,9
-78,48,126,14,-102,87,24,-58,-43,-4,9,9
-78,39,117,19,-97,78,24,-58,-34,4,19,19
-78,39,117,19,-97,78,24,-58,-34,4,19,24
-82,39,122,21,-102,80,24,-58,-29,9,19,24
-82,39,122,21,-102,80,24,-58,-29,9,24,24
-73,39,112,17,-92,75,34,-48,-29,9,14,19
-73,39,112,17,-92,75,39,-48,-29,9,14,19
-73,43,117,14,-95,80,39,-48,-29,9,14,19
-73,43,117,14,-95,80,39,-48,-29,9,14,19
-82,43,126,19,-104,85,39,-58,-29,9,19,19
-82,43,126,19,-104,85,39,-58,-29,14,19,19
-82,43,126,19,-104,85,39,-58,-29,14,24,19
-82,43,126,19,-104,85,39,-58,-24,14,24,19
-92,39,131,26,-112,85,39,-48,-14,14,24,19
-92,34,126,29,-109,80,39,-48,-14,14,24,24
-92,29,122,31,-107,75,39,-48,-14,14,29,24
-92,29,122,31,-107,75,39,-48,-9,19,29,24
-92,39,131,26,-112,85,39,-58,-9,19,29,24
-92,39,131,26,-112,85,39,-53,-9,19,29,24
-92,39,131,26,-112,85,39,-53,-4,24,34,24
-92,34,126,29,-109,80,39,-53,-4,24,34,24
-87,24,112,31,-100,68,39,-43,-4,24,24,24
-87,29,117,29,-102,73,39,-43,-4,24,24,24
-87,34,122,26,-104,78,39,-43,-4,24,24,24
-82,34,117,24,-100,75,39,-43,-4,29,24,24
-82,43,126,19,-104,85,29,-43,-4,39,34,24
-82,43,126,19,-104,85,29,-43,0,39,34,24
-82,43,126,19,-104,85,29,-43,4,43,34,29
-82,43,126,19,-104,85,29,-43,4,43,34,29
-82,43,126,19,-104,85,39,-43,0,34,34,19
-82,48,131,17,-107,90,34,-43,0,34,34,19
-82,48,131,17,-107,90,34,-43,0,39,39,19
-82,48,131,17,-107,90,34,-43,4,39,39,19
-82,39,122,21,-102,80,24,-53,-4,39,34,19
-82,43,126,19,-104,85,24,-48,-4,39,34,19
-82,43,126,19,-104,85,24,-48,-4,39,34,24
-82,43,126,19,-104,85,24,-48,-4,43,34,24
-78,43,122,17,-100,82,34,-48,0,34,34,34
-78,43,122,17,-100,82,34,-48,0,34,34,34
-78,43,122,17,-100,82,29,-48,0,39,34,34
-78,43,122,17,-100,82,29,-48,0,39,34,34
-87,43,131,21,-109,87,29,-43,0,39,34,24
-82,43,126,19,-104,85,29,-43,0,39,39,24
-82,43,126,19,-104,85,29,-39,4,39,39,29
-82,43,126,19,-104,85,29,-39,4,43,43,29
-73,53,126,9,-100,90,29,-39,4,53,43,29
-73,53,126,9,-100,90,39,-39,14,53,53,43
-63,63,126,0,-95,95,29,-48,19,53,53,48
-68,73,141,-2,-104,107,19,-48,19,63,53,48
-58,87,146,-14,-102,117,19,-48,19,78,58,48
-48,102,151,-26,-100,126,4,-48,24,78,63,58
-48,107,156,-29,-102,131,0,-48,29,78,68,58
-48,112,161,-31,-104,136,-4,-48,34,78,73,58
-48,117,165,-34,-107,141,-9,-48,39,78,78,58
-34,126,161,-46,-97,143,-24,-39,43,92,82,73
-29,141,170,-56,-100,156,-24,-39,48,92,87,78
-29,141,170,-56,-100,156,-24,-39,53,97,87,78
-24,141,165,-58,-95,153,-24,-34,53,97,87,78
-34,141,175,-53,-104,158,-24,-39,58,97,87,82
-29,141,170,-56,-100,156,-34,-39,58,97,87,82
-29,141,170,-56,-100,156,-39,-39,58,97,87,82
-19,146,165,-63,-92,156,-43,-39,68,107,97,92
-9,146,156,-68,-82,151,-39,-39,73,112,102,82
-4,146,151,-70,-78,148,-53,-43,73,112,107,82
0,151,151,-75,-75,151,-68,-58,63,112,107,87
4,161,156,-82,-75,158,-97,-78,48,112,107,97
9,175,165,-92,-78,170,-131,-102,39,122,107,102
14,185,170,-100,-78,178,-146,-117,29,122,112,107
29,190,161,-109,-65,175,-146,-117,19,122,112,107
29,200,170,-114,-70,185,-156,-126,14,122,117,107
39,204,165,-122,-63,185,-165,-122,9,122,126,117
53,204,151,-129,-48,178,-165,-122,9,122,126,126
63,214,151,-139,-43,183,-165,-117,9,122,136,136
73,224,151,-148,-39,187,-165,-107,14,131,141,141
82,219,136,-151,-26,178,-161,-102,24,122,136,146
82,219,136,-151,-26,178,-151,-102,29,122,141,146
78,214,136,-146,-29,175,-146,-97,29,122,141,146
73,204,131,-139,-29,168,-131,-97,29,122,141,146
68,209,141,-139,-36,175,-122,-102,24,122,151,156
63,204,141,-134,-39,173,-112,-102,19,117,141,156
58,195,136,-126,-39,165,-102,-97,14,107,136,146
48,185,136,-117,-43,161,-92,-97,9,92,131,141
29,165,136,-97,-53,151,-87,-87,4,102,126,136
19,165,146,-92,-63,156,-82,-87,0,97,122,131
14,151,136,-82,-61,143,-78,-87,-4,92,112,126
9,146,136,-78,-63,141,-63,-87,-4,87,107,122
4,131,126,-68,-61,129,-68,-97,-4,73,97,107
-14,112,126,-48,-70,119,-48,-92,-14,58,87,97
-48,92,141,-21,-95,117,-29,-82,-19,39,68,78
-63,78,141,-7,-102,109,-14,-78,-24,24,53,58
-82,53,136,14,-109,95,9,-68,-19,19,34,43
-92,34,126,29,-109,80,24,-63,-19,14,29,34
-97,24,122,36,-109,73,29,-58,-19,14,29,29
-97,19,117,39,-107,68,39,-53,-14,19,29,19
-87,29,117,29,-102,73,39,-58,-14,9,29,29
-87,29,117,29,-102,73,43,-58,-14,9,29,24
-87,24,112,31,-100,68,48,-53,-14,9,19,19
-87,9,97,39,-92,53,53,-48,-14,0,14,19
-97,0,97,48,-97,48,63,-48,-24,0,9,9
-97,-4,92,51,-95,43,63,-48,-24,0,9,9
-97,-9,87,53,-92,39,68,-43,-24,-4,9,9
-102,-9,92,56,-97,41,68,-43,-24,-4,9,9
-92,0,92,46,-92,46,63,-43,-24,4,9,9
-92,0,92,46,-92,46,63,-43,-29,4,9,9
-97,0,97,48,-97,48,63,-43,-29,0,9,9
-97,0,97,48,-97,48,63,-43,-29,0,9,4
-97,-4,92,51,-95,43,63,-34,-39,0,4,4
-97,-4,92,51,-95,43,63,-34,-39,0,4,4
-97,-4,92,51,-95,43,63,-34,-39,0,4,4
-97,-4,92,51,-95,43,68,-34,-39,0,4,4
-102,-9,92,56,-97,41,68,-43,-29,4,0,4
-102,-9,92,56,-97,41,68,-43,-34,4,0,0
-102,-9,92,56,-97,41,73,-43,-34,4,0,0
-102,-14,87,58,-95,36,73,-43,-34,4,0,0
-102,-14,87,58,-95,36,73,-43,-34,-4,-4,0
-102,-14,87,58,-95,36,78,-43,-34,-4,-4,0
-112,-14,97,63,-104,41,78,-43,-34,-9,-4,-4
-112,-14,97,63,-104,41,78,-43,-39,-9,-4,-4
-112,-19,92,65,-102,36,78,-34,-39,0,-4,4
-112,-19,92,65,-102,36,78,-34,-34,0,-4,4
-112,-19,92,65,-102,36,82,-34,-34,0,-4,4
-112,-19,92,65,-102,36,82,-34,-34,4,-4,4
-102,-19,82,61,-92,31,73,-34,-24,9,4,4
-102,-9,92,56,-97,41,73,-34,-29,14,14,0
-102,-4,97,53,-100,46,78,-43,-19,29,14,9
-112,0,112,56,-112,56,78,-48,-24,39,24,14
-112,14,126,48,-119,70,68,-53,-24,48,34,29
-112,58,170,26,-141,114,63,-63,-24,87,68,58
-126,107,234,9,-180,170,63,-92,-34,131,112,97
-136,151,287,-7,-212,219,53,-126,-78,151,151,126
-146,204,351,-29,-248,278,34,-170,-136,170,190,165
-156,263,419,-53,-287,341,14,-200,-175,190,229,214
-156,331,488,-87,-322,409,0,-229,-219,200,283,278
-141,375,517,-117,-329,446,-29,-263,-307,190,336,326
-107,380,488,-136,-297,434,-78,-312,-463,136,375,380
-68,390,458,-161,-263,424,-136,-375,-649,58,405,448
-14,385,400,-185,-207,392,-195,-424,-824,-29,419,497
63,346,283,-204,-109,314,-253,-434,-961,-97,439,546
200,268,68,-234,65,168,-297,-395,-1024,-165,473,600
346,195,-151,-270,248,21,-351,-336,-1034,-219,492,649
458,136,-322,-297,390,-92,-414,-317,-1049,-234,522,697
570,92,-478,-331,524,-192,-453,-307,-1068,-239,551,722
697,29,-668,-363,683,-319,-507,-258,-1098,-283,512,732
800,-73,-873,-363,836,-473,-536,-204,-1185,-405,366,658
839,-229,-1068,-305,954,-649,-522,-151,-1288,-619,43,444
834,-414,-1249,-209,1041,-832,-463,-73,-1346,-873,-346,151
858,-595,-1454,-131,1156,-1024,-434,0,-1356,-1083,-639,-82
917,-800,-1717,-58,1317,-1259,-405,78,-1342,-1244,-844,-278
956,-1000,-1956,21,1456,-1478,-370,151,-1317,-1410,-1073,-502
946,-1190,-2137,122,1542,-1664,-302,209,-1302,-1586,-1288,-712
917,-1395,-2313,239,1615,-1854,-234,258,-1298,-1727,-1473,-897
878,-1551,-2430,336,1654,-1991,-165,273,-1278,-1805,-1586,-1054
844,-1644,-2488,400,1666,-2066,-112,283,-1224,-1805,-1639,-1156
814,-1664,-2479,424,1647,-2071,-82,287,-1141,-1732,-1610,-1190
795,-1620,-2415,412,1605,-2017,-87,273,-1054,-1625,-1537,-1146
780,-1566,-2347,392,1564,-1956,-82,244,-985,-1546,-1468,-1102
727,-1551,-2278,412,1503,-1915,-53,229,-951,-1493,-1439,-1093
668,-1537,-2205,434,1437,-1871,-29,214,-932,-1449,-1395,-1088
585,-1483,-2069,448,1327,-1776,-4,180,-902,-1395,-1346,-1058
502,-1444,-1947,470,1224,-1695,19,141,-897,-1342,-1307,-1049
424,-1410,-1834,492,1129,-1622,43,112,-893,-1307,-1268,-1039
361,-1351,-1712,495,1037,-1532,58,68,-883,-1244,-1220,-1005
297,-1263,-1561,483,929,-1412,68,4,-854,-1166,-1161,-966
244,-1171,-1415,463,829,-1293,87,-43,-810,-1078,-1083,-897
200,-1078,-1278,439,739,-1178,92,-87,-741,-990,-1000,-834
151,-1000,-1151,424,651,-1076,92,-97,-688,-917,-927,-766
112,-902,-1015,395,563,-958,102,-97,-614,-839,-839,-707
78,-795,-873,358,475,-834,102,-87,-517,-732,-736,-624
58,-658,-717,300,387,-688,97,-82,-409,-590,-595,-517
39,-517,-556,239,297,-536,87,-68,-307,-444,-458,-400
29,-395,-424,183,226,-409,68,-58,-219,-317,-341,-297
9,-317,-326,153,168,-322,68,-48,-165,-239,-278,-234
-14,-258,-244,136,114,-251,78,-39,-122,-195,-229,-209
-34,-204,-170,119,68,-187,82,-29,-63,-146,-180,-165
-63,-156,-92,109,14,-124,102,-4,-14,-87,-131,-131
-82,-117,-34,100,-24,-75,112,9,39,-39,-87,-107
-82,-82,0,82,-41,-41,122,34,68,-14,-58,-82
-92,-78,14,85,-53,-31,122,34,87,4,-43,-73
-97,-68,29,82,-63,-19,117,39,87,14,-34,-63
-97,-58,39,78,-68,-9,117,29,78,24,-39,-63
-97,-53,43,75,-70,-4,117,24,78,24,-39,-63
-102,-48,53,75,-78,2,117,19,78,19,-39,-63
-107,-48,58,78,-82,4,117,19,78,19,-39,-63
-117,-53,63,85,-90,4,117,29,87,19,-29,-53
-117,-48,68,82,-92,9,117,29,87,29,-19,-48
-117,-43,73,80,-95,14,117,29,92,34,-19,-48
-117,-39,78,78,-97,19,117,29,92,39,-19,-43
-107,-24,82,65,-95,29,117,24,102,34,-19,-43
-107,-24,82,65,-95,29,117,24,102,34,-19,-43
-107,-24,82,65,-95,29,117,24,102,34,-19,-43
-107,-24,82,65,-95,29,117,24,102,29,-19,-48
-107,-19,87,63,-97,34,107,19,92,39,-19,-48
-107,-19,87,63,-97,34,107,19,92,39,-19,-48
-107,-19,87,63,-97,34,107,19,97,39,-19,-48
-107,-19,87,63,-97,34,102,19,97,43,-19,-43
-107,-24,82,65,-95,29,102,19,107,58,-14,-34
-107,-24,82,65,-95,29,102,24,112,58,-14,-34
-107,-24,82,65,-95,29,102,24,112,58,-14,-34
-107,-24,82,65,-95,29,102,24,112,58,-14,-34
-107,-9,97,58,-102,43,102,19,102,48,-9,-43
-102,-9,92,56,-97,41,102,19,107,48,-9,-43
-102,-9,92,56,-97,41,102,19,107,53,-9,-43
-102,-9,92,56,-97,41,97,19,107,53,-9,-43
-102,-9,92,56,-97,41,97,29,117,53,-19,-34
-102,-9,92,56,-97,41,92,29,122,53,-19,-34
-102,-4,97,53,-100,46,92,29,122,58,-19,-34
-102,-4,97,53,-100,46,92,29,122,58,-19,-34
-112,-4,107,58,-109,51,102,29,126,58,-9,-34
-107,-4,102,56,-104,48,102,34,126,58,-9,-34
-107,0,107,53,-107,53,102,34,126,63,-9,-29
-107,0,107,53,-107,53,97,34,126,63,-4,-29
-97,-9,87,53,-92,39,87,29,131,63,-4,-29
-97,-9,87,53,-92,39,87,29,131,63,-4,-29
-97,-9,87,53,-92,39,87,34,131,68,-4,-29
-97,-4,92,51,-95,43,87,34,136,68,-4,-29
-97,-4,92,51,-95,43,97,34,126,68,-14,-39
-97,-4,92,51,-95,43,97,34,136,68,-14,-34
-97,-4,92,51,-95,43,92,34,141,78,-9,-34
-102,-4,97,53,-100,46,92,34,141,78,-9,-34
-102,9,112,46,-107,61,92,34,136,78,0,-34
-102,9,112,46,-107,61,92,34,141,78,0,-34
-97,14,112,41,-104,63,92,39,146,87,0,-34
-97,14,112,41,-104,63,92,39,146,87,0,-34
-97,14,112,41,-104,63,82,39,151,87,4,-34
-102,14,117,43,-109,65,82,39,161,92,4,-34
-102,19,122,41,-112,70,82,39,165,92,4,-34
-102,19,122,41,-112,70,78,43,180,97,4,-34
-102,14,117,43,-109,65,87,34,175,87,0,-34
-97,14,112,41,-104,63,87,39,180,97,0,-34
-97,19,117,39,-107,68,87,39,185,102,0,-34
-97,19,117,39,-107,68,87,39,190,107,0,-34
-97,19,117,39,-107,68,87,43,204,122,14,-34
-97,24,122,36,-109,73,87,43,214,126,14,-34
-97,24,122,36,-109,73,82,53,219,131,19,-34
-97,29,126,34,-112,78,82,53,229,136,19,-34
-92,39,131,26,-112,85,82,58,234,136,24,-29
-92,48,141,21,-117,95,82,63,244,141,24,-29
-97,48,146,24,-122,97,82,68,258,151,34,-29
-97,48,146,24,-122,97,82,73,268,156,34,-29
-97,58,156,19,-126,107,73,68,263,161,34,-29
-97,63,161,17,-129,112,73,73,273,165,39,-24
-92,63,156,14,-124,109,73,73,283,175,39,-24
-92,73,165,9,-129,119,73,78,292,180,43,-24
-92,78,170,7,-131,124,73,82,302,195,43,-24
-87,78,165,4,-126,122,73,87,312,204,53,-24
-87,82,170,2,-129,126,68,92,326,214,58,-24
-87,87,175,0,-131,131,68,102,341,219,63,-19
-82,102,185,-9,-134,143,68,117,361,234,68,-19
-82,107,190,-12,-136,148,68,126,366,239,73,-19
-82,107,190,-12,-136,148,63,136,385,248,78,-19
-82,112,195,-14,-139,153,63,136,395,258,82,-19
-73,112,185,-19,-129,148,73,131,419,268,87,-14
-73,117,190,-21,-131,153,68,146,434,278,92,-14
-68,122,190,-26,-129,156,68,156,448,287,97,-14
-58,126,185,-34,-122,156,68,165,468,297,102,-9
-53,141,195,-43,-124,168,58,170,473,317,107,-9
-53,141,195,-43,-124,168,58,180,492,326,112,-9
-48,146,195,-48,-122,170,58,190,507,341,117,-9
-39,151,190,-56,-114,170,58,200,522,351,122,-9
-43,156,200,-56,-122,178,53,204,546,366,126,-4
-39,156,195,-58,-117,175,43,214,566,375,131,-4
-34,161,195,-63,-114,178,43,214,580,385,136,-4
-24,170,195,-73,-109,183,39,234,600,395,146,0
-9,175,185,-82,-97,180,34,244,605,409,161,9
0,180,180,-90,-90,180,29,244,624,419,170,9
4,185,180,-95,-87,183,29,253,634,429,175,14
19,190,170,-104,-75,180,24,258,644,439,180,14
19,195,175,-107,-78,185,19,263,668,453,185,4
29,195,165,-112,-68,180,19,268,678,468,190,9
39,200,161,-119,-61,180,14,278,692,483,195,14
48,204,156,-126,-53,180,9,283,702,497,200,19
58,209,151,-134,-46,180,4,278,722,507,204,29
68,209,141,-139,-36,175,0,283,732,512,209,29
73,209,136,-141,-31,173,-4,287,732,517,214,34
78,209,131,-143,-26,170,-9,292,736,522,219,34
82,209,126,-146,-21,168,-4,302,741,536,234,39
92,214,122,-153,-14,168,-4,302,741,541,239,39
102,214,112,-158,-4,163,-14,302,741,546,239,43
107,214,107,-161,0,161,-19,297,741,546,239,43
122,214,92,-168,14,153,-24,307,746,541,234,48
131,214,82,-173,24,148,-24,297,741,541,234,53
136,209,73,-173,31,141,-29,292,722,541,234,58
141,209,68,-175,36,139,-34,278,702,531,234,63
146,209,63,-178,41,136,-39,268,683,527,244,78
146,209,63,-178,41,136,-43,253,658,522,244,82
146,209,63,-178,41,136,-48,239,634,507,244,82
141,204,63,-173,39,134,-53,224,610,497,244,82
141,204,63,-173,39,134,-43,219,585,483,234,82
136,204,68,-170,34,136,-43,200,556,463,229,82
131,204,73,-168,29,139,-48,180,527,453,224,87
126,204,78,-165,24,141,-48,161,497,439,219,92
122,204,82,-163,19,143,-58,141,453,419,224,97
122,195,73,-158,24,134,-63,122,419,400,224,102
112,195,82,-153,14,139,-63,107,390,380,219,102
102,190,87,-146,7,139,-63,87,356,356,214,107
92,185,92,-139,0,139,-63,87,326,326,200,112
92,180,87,-136,2,134,-63,73,292,312,195,112
78,175,97,-126,-9,136,-58,63,278,302,190,112
73,170,97,-122,-12,134,-58,43,244,283,185,112
63,170,107,-117,-21,139,-48,29,224,258,180,112
53,165,112,-109,-29,139,-48,24,195,248,170,112
48,156,107,-102,-29,131,-39,14,170,234,165,112
39,146,107,-92,-34,126,-34,4,156,219,165,112
39,146,107,-92,-34,126,-43,0,136,190,151,107
29,136,107,-82,-39,122,-34,-4,117,175,141,107
24,131,107,-78,-41,119,-34,-9,107,165,136,102
14,122,107,-68,-46,114,-29,-14,92,151,131,97
0,107,107,-53,-53,107,-24,-19,78,136,107,92
0,107,107,-53,-53,107,-19,-24,58,131,102,87
-9,97,107,-43,-58,102,-14,-29,48,122,97,82
-14,92,107,-39,-61,100,-9,-29,34,112,92,78
-14,87,102,-36,-58,95,-9,-39,39,92,82,78
-19,82,102,-31,-61,92,-4,-39,29,82,82,73
-24,78,102,-26,-63,90,0,-39,24,73,73,68
-29,73,102,-21,-65,87,0,-39,14,68,68,68
-34,68,102,-17,-68,85,0,-39,4,63,63,68
-39,63,102,-12,-70,82,4,-39,0,58,58,63
-39,58,97,-9,-68,78,4,-39,-4,53,58,58
-43,58,102,-7,-73,80,9,-39,-9,48,53,58
-43,53,97,-4,-70,75,9,-43,-14,43,48,48
-43,48,92,-2,-68,70,9,-43,-19,39,48,48
-48,48,97,0,-73,73,14,-43,-19,34,39,48
-53,43,97,4,-75,70,14,-43,-24,34,39,48
-63,43,107,9,-85,75,14,-43,-24,29,29,43
-63,43,107,9,-85,75,19,-43,-24,29,29,39
-63,43,107,9,-85,75,19,-48,-29,29,24,39
-73,43,117,14,-95,80,19,-48,-29,24,24,39
-73,39,112,17,-92,75,19,-48,-29,24,24,34
-68,39,107,14,-87,73,19,-48,-29,14,24,34
-68,39,107,14,-87,73,19,-48,-29,14,24,34
-68,39,107,14,-87,73,19,-48,-29,19,24,34
-63,29,92,17,-78,61,19,-48,-34,9,14,29
-63,29,92,17,-78,61,19,-48,-34,4,14,29
-63,24,87,19,-75,56,24,-48,-34,4,14,34
-63,24,87,19,-75,56,24,-48,-34,4,9,34
-63,34,97,14,-80,65,34,-48,-34,4,19,34
-63,34,97,14,-80,65,34,-48,-34,4,19,34
-63,34,97,14,-80,65,34,-48,-34,4,14,29
-63,34,97,14,-80,65,34,-48,-34,4,14,29
-63,19,82,21,-73,51,24,-48,-43,0,9,29
-63,19,82,21,-73,51,24,-48,-43,0,9,24
-63,19,82,21,-73,51,24,-48,-43,0,9,24
-63,24,87,19,-75,56,24,-48,-48,0,9,24
-63,24,87,19,-75,56,24,-53,-39,-9,0,14
-63,24,87,19,-75,56,24,-53,-39,-9,0,14
-63,24,87,19,-75,56,24,-53,-39,-9,4,9
-63,24,87,19,-75,56,24,-48,-39,-9,4,9
-73,19,92,26,-82,56,24,-48,-39,0,0,9
-73,19,92,26,-82,56,24,-48,-34,-4,0,9
-73,19,92,26,-82,56,24,-48,-34,-4,0,4
-73,19,92,26,-82,56,24,-48,-34,-4,0,4
-63,24,87,19,-75,56,24,-48,-34,4,0,4
-63,24,87,19,-75,56,24,-48,-39,4,0,4
-63,24,87,19,-75,56,24,-48,-39,4,-4,4
-63,24,87,19,-75,56,24,-48,-34,4,-4,4
-63,24,87,19,-75,56,24,-48,-34,4,-4,4
-68,24,92,21,-80,58,24,-48,-39,4,-4,4
-68,24,92,21,-80,58,24,-48,-39,4,-4,4
-68,24,92,21,-80,58,24,-48,-34,4,-4,4
-68,24,92,21,-80,58,24,-48,-34,-4,-4,4
-68,24,92,21,-80,58,24,-48,-34,-4,-4,4
-68,24,92,21,-80,58,24,-48,-34,-4,-4,4
-68,24,92,21,-80,58,24,-48,-34,-4,-4,4
-68,24,92,21,-80,58,24,-48,-34,-4,-4,4
-68,24,92,21,-80,58,24,-48,-34,-4,-4,4
-68,24,92,21,-80,58,24,-48,-34,-4,-4,0
-68,29,97,19,-82,63,24,-48,-34,-4,-4,0
-78,29,107,24,-92,68,24,-48,-34,-4,4,9
-78,29,107,24,-92,68,24,-48,-34,-4,4,9
-78,29,107,24,-92,68,24,-48,-34,-4,0,9
-78,29,107,24,-92,68,24,-48,-34,-4,0,9
-78,29,107,24,-92,68,24,-48,-43,-4,0,0
-78,29,107,24,-92,68,24,-48,-43,-4,0,4
-82,29,112,26,-97,70,24,-48,-39,0,0,4
-82,29,112,26,-97,70,24,-48,-39,0,4,4
-82,29,112,26,-97,70,24,-48,-29,0,4,0
-82,29,112,26,-97,70,29,-48,-29,0,4,0
-82,34,117,24,-100,75,29,-48,-29,0,4,0
-82,34,117,24,-100,75,29,-48,-29,0,4,0
-82,34,117,24,-100,75,29,-48,-29,0,0,0
-82,34,117,24,-100,75,29,-48,-29,4,0,0
-82,34,117,24,-100,75,29,-48,-29,4,4,0
-82,34,117,24,-100,75,29,-48,-24,4,4,0
-82,34,117,24,-100,75,29,-48,-24,4,4,0
-82,34,117,24,-100,75,29,-48,-24,4,4,4
-82,34,117,24,-100,75,29,-48,-24,4,9,4
-82,39,122,21,-102,80,29,-48,-19,9,9,4
-82,39,122,21,-102,80,29,-58,-19,9,19,14
-82,39,122,21,-102,80,29,-53,-19,9,19,14
-82,39,122,21,-102,80,29,-53,-14,14,24,14
-82,34,117,24,-100,75,29,-53,-14,14,24,14
-73,43,117,14,-95,80,19,-43,-14,14,24,14
-78,48,126,14,-102,87,19,-43,-14,14,24,14
-82,53,136,14,-109,95,19,-43,-14,14,24,14
-82,53,136,14,-109,95,19,-43,-14,19,24,14
-82,43,126,19,-104,85,29,-43,-14,19,24,14
-82,43,126,19,-104,85,29,-43,-9,19,24,14
-82,43,126,19,-104,85,29,-43,-4,24,24,19
-82,43,126,19,-104,85,29,-43,-4,24,24,19
-82,43,126,19,-104,85,29,-53,-9,24,14,9
-82,48,131,17,-107,90,24,-53,-9,24,14,9
-82,48,131,17,-107,90,24,-53,-9,29,19,9
-82,48,131,17,-107,90,24,-53,-4,29,19,9
-82,39,122,21,-102,80,24,-43,-4,29,24,9
-82,43,126,19,-104,85,24,-39,-4,29,24,9
-82,43,126,19,-104,85,24,-39,-4,29,24,14
-82,43,126,19,-104,85,24,-39,-4,34,24,14
-68,43,112,12,-90,78,24,-48,0,34,34,24
-68,43,112,12,-90,78,24,-48,0,34,34,24
-68,43,112,12,-90,78,19,-48,0,39,34,24
-68,43,112,12,-90,78,19,-48,0,39,34,24
-73,43,117,14,-95,80,19,-43,0,39,34,24
-73,43,117,14,-95,80,19,-43,0,39,39,24
-78,43,122,17,-100,82,19,-39,4,39,39,29
-82,43,126,19,-104,85,19,-39,4,43,43,29
-82,53,136,14,-109,95,19,-48,-4,43,34,19
-82,53,136,14,-109,95,19,-48,-4,43,34,24
-82,53,136,14,-109,95,19,-48,0,43,34,29
-78,53,131,12,-104,92,19,-48,0,43,34,29
-58,68,126,-4,-92,97,14,-48,0,53,34,29
-58,78,136,-9,-97,107,14,-43,9,58,43,29
-53,82,136,-14,-95,109,4,-43,19,63,53,39
-58,97,156,-19,-107,126,0,-48,19,58,58,48
-48,107,156,-29,-102,131,-9,-39,19,68,68,48
-48,107,156,-29,-102,131,-9,-39,19,68,68,48
-48,107,156,-29,-102,131,-9,-39,19,68,68,48
-48,107,156,-29,-102,131,-9,-39,19,68,68,48
-34,122,156,-43,-95,139,-19,-48,34,78,73,63
-29,141,170,-56,-100,156,-24,-48,39,82,78,68
-29,146,175,-58,-102,161,-29,-48,43,92,78,68
-24,151,175,-63,-100,163,-34,-43,43,97,78,68
-34,151,185,-58,-109,168,-34,-39,48,87,78,63
-29,151,180,-61,-104,165,-43,-39,48,87,78,63
-29,151,180,-61,-104,165,-48,-39,48,87,78,63
-19,156,175,-68,-97,165,-53,-39,58,97,87,73
-9,156,165,-73,-87,161,-58,-39,63,112,82,73
-4,156,161,-75,-82,158,-73,-43,63,112,87,73
0,161,161,-80,-80,161,-87,-58,53,112,87,78
4,170,165,-87,-80,168,-117,-78,39,112,87,87
0,175,175,-87,-87,175,-141,-112,29,112,92,92
4,185,180,-95,-87,183,-156,-126,19,112,102,97
19,190,170,-104,-75,180,-156,-126,9,112,107,97
19,200,180,-109,-80,190,-165,-136,4,112,117,97
29,204,175,-117,-73,190,-175,-131,9,112,117,112
43,204,161,-124,-58,183,-175,-131,9,112,117,126
53,214,161,-134,-53,187,-175,-126,9,112,126,141
63,224,161,-143,-48,192,-175,-117,14,122,131,151
82,229,146,-156,-31,187,-170,-112,14,122,136,146
82,229,146,-156,-31,187,-161,-112,19,122,141,146
78,224,146,-151,-34,185,-156,-107,19,122,141,146
73,214,141,-143,-34,178,-141,-107,19,122,141,146
58,200,141,-129,-41,170,-131,-102,24,122,141,146
53,195,141,-124,-43,168,-122,-102,19,117,131,146
48,185,136,-117,-43,161,-112,-97,14,107,126,136
39,175,136,-107,-48,156,-102,-97,9,92,122,131
39,175,136,-107,-48,156,-97,-97,-4,82,107,126
29,175,146,-102,-58,161,-92,-97,-9,78,102,122
24,161,136,-92,-56,148,-87,-97,-14,73,92,117
19,156,136,-87,-58,146,-73,-97,-14,68,87,112
-4,136,141,-65,-73,139,-68,-97,-14,73,87,97
-24,112,136,-43,-80,124,-48,-92,-24,58,78,87
-58,87,146,-14,-102,117,-29,-82,-29,39,58,68
-73,68,141,2,-107,104,-14,-78,-34,24,43,48
-73,48,122,12,-97,85,0,-78,-29,9,24,29
-82,34,117,24,-100,75,14,-73,-29,4,19,24
-87,29,117,29,-102,73,19,-68,-29,4,19,24
-87,29,117,29,-102,73,29,-63,-24,9,19,19
-87,29,117,29,-102,73,29,-58,-24,19,29,29
-87,29,117,29,-102,73,34,-58,-24,19,29,24
-87,24,112,31,-100,68,39,-53,-24,19,19,19
-87,9,97,39,-92,53,43,-48,-24,9,14,19
-87,9,97,39,-92,53,53,-39,-24,0,9,0
-87,4,92,41,-90,48,53,-39,-24,0,9,0
-87,0,87,43,-87,43,58,-34,-24,-4,9,0
-92,0,92,46,-92,46,58,-34,-24,-4,9,0
-92,0,92,46,-92,46,53,-43,-24,-4,0,0
-92,0,92,46,-92,46,53,-43,-29,-4,0,0
-97,0,97,48,-97,48,53,-43,-29,-9,0,0
-97,0,97,48,-97,48,53,-43,-29,-9,0,-4
-97,-4,92,51,-95,43,63,-34,-29,-9,-4,-4
-97,-4,92,51,-95,43,63,-34,-29,-9,-4,-4
-97,-4,92,51,-95,43,63,-34,-29,-9,-4,-4
-97,-4,92,51,-95,43,68,-34,-29,-9,-4,-4
-92,-9,82,51,-87,36,68,-34,-39,-14,-9,-4
-92,-9,82,51,-87,36,68,-34,-43,-14,-9,-9
-92,-9,82,51,-87,36,73,-34,-43,-14,-9,-9
-92,-14,78,53,-85,31,73,-34,-43,-14,-9,-9
-97,-14,82,56,-90,34,63,-34,-34,-4,-4,0
-102,-14,87,58,-95,36,68,-34,-34,-4,-4,0
-117,-14,102,65,-109,43,68,-34,-34,-9,-4,-4
-122,-14,107,68,-114,46,68,-34,-39,-9,-4,-4
-112,-19,92,65,-102,36,68,-34,-39,-19,-14,-14
-112,-19,92,65,-102,36,68,-34,-34,-19,-14,-14
-112,-19,92,65,-102,36,73,-34,-34,-19,-14,-14
-112,-19,92,65,-102,36,73,-34,-34,-14,-14,-14
-112,-9,102,61,-107,46,73,-34,-24,0,-4,-4
-122,-9,112,65,-117,51,73,-43,-29,14,4,0
-112,-4,107,58,-109,51,78,-43,-29,19,14,9
-102,19,122,41,-112,70,68,-48,-24,39,34,24
-122,53,175,34,-148,114,68,-63,-24,58,43,39
-122,87,209,17,-165,148,53,-82,-24,97,87,58
-126,136,263,-4,-195,200,43,-112,-53,122,122,87
-136,180,317,-21,-226,248,24,-156,-117,141,151,126
-146,244,390,-48,-268,317,14,-190,-175,151,190,165
-156,302,458,-73,-307,380,-4,-229,-224,161,239,224
-146,351,497,-102,-322,424,-29,-258,-307,161,292,297
-131,375,507,-122,-319,441,-68,-302,-434,131,346,366
-97,390,488,-146,-292,439,-126,-361,-600,68,385,419
-58,400,458,-170,-258,429,-185,-424,-795,-9,405,468
24,375,351,-200,-163,363,-244,-453,-961,-97,419,507
141,317,175,-229,-17,246,-302,-434,-1049,-175,448,566
278,229,-48,-253,163,90,-366,-375,-1073,-214,473,619
414,165,-248,-290,331,-41,-419,-336,-1073,-219,522,668
517,136,-380,-326,448,-122,-453,-317,-1088,-224,570,727
639,82,-556,-361,597,-236,-492,-268,-1098,-229,580,771
756,0,-756,-378,756,-378,-556,-219,-1127,-273,522,751
829,-102,-932,-363,880,-517,-566,-175,-1205,-414,317,639
849,-258,-1107,-295,978,-683,-541,-112,-1278,-658,-43,375
863,-444,-1307,-209,1085,-875,-502,-34,-1317,-902,-424,92
907,-624,-1532,-141,1220,-1078,-473,48,-1307,-1083,-668,-122
956,-829,-1786,-63,1371,-1307,-434,146,-1273,-1254,-873,-317
976,-1039,-2015,31,1495,-1527,-370,229,-1259,-1449,-1112,-541
966,-1239,-2205,136,1586,-1722,-302,268,-1263,-1615,-1317,-741
936,-1405,-2342,234,1639,-1873,-244,287,-1249,-1717,-1454,-897
888,-1542,-2430,326,1659,-1986,-185,302,-1200,-1747,-1546,-1024
844,-1625,-2469,390,1656,-2047,-131,322,-1127,-1717,-1581,-1127
814,-1615,-2430,400,1622,-2022,-102,317,-1044,-1654,-1542,-1151
795,-1551,-2347,378,1571,-1949,-97,292,-976,-1566,-1488,-1117
771,-1527,-2298,378,1534,-1912,-102,263,-936,-1507,-1429,-1083
727,-1522,-2249,397,1488,-1886,-63,248,-922,-1464,-1390,-1073
658,-1488,-2147,414,1403,-1817,-29,224,-912,-1410,-1346,-1049
575,-1454,-2030,439,1302,-1742,-14,180,-893,-1356,-1307,-1029
483,-1415,-1898,466,1190,-1656,19,151,-878,-1312,-1268,-1029
405,-1361,-1766,478,1085,-1564,43,92,-873,-1259,-1239,-1010
341,-1293,-1634,475,988,-1464,48,29,-854,-1205,-1190,-976
278,-1215,-1493,468,885,-1354,58,-34,-814,-1127,-1122,-936
224,-1122,-1346,448,785,-1234,68,-73,-780,-1058,-1054,-897
180,-1039,-1220,429,700,-1129,73,-97,-741,-990,-980,-824
141,-961,-1102,409,622,-1032,92,-97,-668,-917,-897,-766
102,-863,-966,380,534,-915,92,-78,-595,-819,-800,-688
68,-746,-814,339,441,-780,92,-68,-488,-692,-678,-595
39,-600,-639,280,339,-619,78,-63,-370,-531,-546,-468
29,-458,-488,214,258,-473,68,-58,-258,-385,-409,-361
9,-346,-356,168,183,-351,58,-58,-190,-297,-312,-287
-19,-287,-268,153,124,-278,78,-48,-146,-248,-268,-253
-34,-239,-204,136,85,-222,87,-29,-112,-204,-229,-209
