I,II,III,aVR,aVL,aVF,V1,V2,V3,V4,V5,V6,
-19,-58,-39,39,9,-48,-19,-68,-87,-68,-58,-39
-19,-58,-39,39,9,-48,-19,-68,-87,-73,-58,-39
-19,-58,-39,39,9,-48,-19,-68,-87,-78,-58,-39
-19,-58,-39,39,9,-48,-19,-68,-87,-78,-58,-39
-19,-58,-39,39,9,-48,-19,-68,-87,-78,-58,-39
-19,-58,-39,39,9,-48,-19,-73,-92,-78,-58,-39
-19,-58,-39,39,9,-48,-19,-78,-97,-78,-58,-39
-14,-53,-39,34,12,-46,-19,-78,-97,-78,-58,-39
-9,-48,-39,29,14,-43,-19,-78,-97,-78,-58,-39
-9,-48,-39,29,14,-43,-19,-78,-97,-78,-58,-43
-9,-48,-39,29,14,-43,-19,-78,-97,-78,-58,-48
-14,-53,-39,34,12,-46,-24,-78,-97,-78,-58,-48
-19,-58,-39,39,9,-48,-29,-78,-97,-78,-58,-48
-19,-58,-39,39,9,-48,-29,-78,-97,-78,-58,-48
-19,-58,-39,39,9,-48,-29,-78,-97,-78,-58,-48
-19,-53,-34,36,7,-43,-29,-78,-102,-78,-58,-48
-19,-48,-29,34,4,-39,-29,-78,-107,-78,-58,-48
-19,-48,-29,34,4,-39,-29,-78,-107,-78,-58,-43
-19,-48,-29,34,4,-39,-29,-78,-107,-78,-58,-39
-19,-48,-29,34,4,-39,-29,-78,-107,-78,-58,-39
-19,-48,-29,34,4,-39,-29,-78,-107,-78,-58,-39
-14,-43,-29,29,7,-36,-29,-78,-102,-73,-58,-34
-9,-39,-29,24,9,-34,-29,-78,-97,-68,-58,-29
0,-14,-14,7,7,-14,-24,-68,-87,-58,-48,-19
9,9,0,-9,4,4,-19,-58,-78,-48,-39,-9
14,19,4,-17,4,12,-9,-53,-58,-39,-24,0
19,29,9,-24,4,19,0,-48,-39,-29,-9,9
19,39,19,-29,0,29,14,-39,-34,-19,-4,14
19,48,29,-34,-4,39,29,-29,-29,-9,0,19
19,48,29,-34,-4,39,29,-29,-29,-9,0,19
19,48,29,-34,-4,39,29,-29,-29,-9,0,19
29,48,19,-39,4,34,19,-24,-29,-4,9,24
39,48,9,-43,14,29,9,-19,-29,0,19,29
48,53,4,-51,21,29,-9,-19,-29,0,19,29
58,58,0,-58,29,29,-29,-19,-29,0,19,29
68,58,-9,-63,39,24,-34,-19,-29,0,19,29
78,58,-19,-68,48,19,-39,-19,-29,0,19,29
68,43,-24,-56,46,9,-43,-29,-43,-19,4,19
58,29,-29,-43,43,0,-48,-39,-58,-39,-9,9
43,19,-24,-31,34,-2,-48,-43,-63,-39,-14,4
29,9,-19,-19,24,-4,-48,-48,-68,-39,-19,0
29,9,-19,-19,24,-4,-48,-48,-73,-39,-19,0
29,9,-19,-19,24,-4,-48,-48,-78,-39,-19,0
14,0,-14,-7,14,-7,-53,-68,-87,-53,-34,-9
0,-9,-9,4,4,-9,-58,-87,-97,-68,-48,-19
0,-29,-29,14,14,-29,-58,-87,-107,-73,-53,-24
9,-43,-53,17,31,-48,-63,-87,-117,-82,-63,-29
24,-58,-82,17,53,-70,-68,-92,-131,-97,-73,-39
34,-73,-107,19,70,-90,-73,-102,-151,-117,-87,-48
24,-87,-112,31,68,-100,-73,-117,-175,-136,-107,-73
14,-87,-102,36,58,-95,-63,-117,-175,-126,-112,-78
-14,-82,-68,48,26,-75,-53,-107,-151,-117,-97,-68
-34,-82,-48,58,7,-65,-48,-107,-141,-117,-97,-68
-34,-82,-48,58,7,-65,-43,-102,-136,-112,-92,-63
-34,-82,-48,58,7,-65,-43,-102,-136,-112,-92,-63
-34,-82,-48,58,7,-65,-39,-107,-136,-112,-92,-63
-39,-82,-43,61,2,-63,-39,-112,-136,-112,-92,-63
-39,-82,-43,61,2,-63,-39,-112,-136,-112,-92,-63
-39,-82,-43,61,2,-63,-39,-112,-141,-112,-92,-63
-39,-82,-43,61,2,-63,-34,-112,-141,-112,-92,-63
-39,-82,-43,61,2,-63,-34,-107,-141,-112,-92,-63
-39,-78,-39,58,0,-58,-34,-102,-136,-112,-87,-58
-34,-73,-39,53,2,-56,-34,-97,-131,-107,-82,-58
-34,-73,-39,53,2,-56,-34,-97,-131,-107,-82,-58
-34,-73,-39,53,2,-56,-34,-102,-131,-107,-82,-58
-29,-73,-43,51,7,-58,-29,-102,-131,-107,-87,-58
-29,-73,-43,51,7,-58,-29,-97,-131,-107,-92,-63
-34,-78,-43,56,4,-61,-29,-102,-131,-107,-92,-63
-43,-78,-34,61,-4,-56,-29,-107,-136,-107,-92,-58
-43,-78,-34,61,-4,-56,-29,-112,-141,-112,-92,-58
-43,-78,-34,61,-4,-56,-29,-112,-141,-117,-92,-63
-43,-78,-34,61,-4,-56,-29,-107,-141,-117,-92,-63
-43,-78,-34,61,-4,-56,-24,-107,-141,-117,-92,-63
-43,-82,-39,63,-2,-61,-24,-107,-141,-117,-92,-63
-48,-82,-34,65,-7,-58,-24,-107,-141,-112,-92,-58
-48,-78,-29,63,-9,-53,-24,-107,-141,-107,-87,-58
-43,-78,-34,61,-4,-56,-24,-107,-141,-107,-87,-58
-29,-68,-39,48,4,-53,-24,-102,-131,-102,-82,-53
-19,-63,-43,41,12,-53,-24,-97,-126,-97,-78,-48
-19,-63,-43,41,12,-53,-24,-92,-126,-92,-73,-48
-24,-63,-39,43,7,-51,-24,-87,-126,-97,-82,-53
-53,-78,-24,65,-14,-51,-4,-107,-136,-122,-102,-68
-122,-97,24,109,-73,-36,53,-156,-161,-175,-161,-112
-190,-112,78,151,-134,-17,87,-234,-190,-234,-200,-151
-268,-126,141,197,-204,7,141,-317,-200,-263,-224,-161
-351,-156,195,253,-273,19,248,-341,-224,-307,-278,-209
-370,-146,224,258,-297,39,361,-214,-68,-170,-170,-151
-312,-34,278,173,-295,122,439,0,268,131,92,39
-204,126,331,39,-268,229,448,165,590,478,409,273
-14,429,444,-207,-229,436,375,414,995,1005,927,673
258,717,458,-488,-100,588,146,634,1234,1385,1332,1019
527,1234,707,-880,-90,971,-458,239,1561,2015,2000,1620
600,1381,780,-990,-90,1080,-951,-517,1332,1869,1947,1683
605,634,29,-619,287,331,-1273,-1146,-141,209,400,600
492,161,-331,-326,412,-85,-1615,-1937,-1439,-1166,-805,-219
287,-234,-522,-26,405,-378,-1659,-2449,-2322,-2030,-1542,-741
278,-409,-688,65,483,-549,-1595,-2498,-2679,-2400,-1869,-971
463,-341,-805,-61,634,-573,-1439,-1961,-2308,-2034,-1629,-863
556,-287,-844,-134,700,-566,-1249,-1586,-2030,-1766,-1424,-756
561,-229,-790,-165,675,-509,-995,-1224,-1654,-1449,-1171,-634
527,-204,-732,-161,629,-468,-805,-941,-1332,-1185,-966,-536
292,-87,-380,-102,336,-234,-517,-639,-824,-732,-605,-307
58,-53,-112,-2,85,-82,-239,-380,-424,-395,-341,-165
-9,-102,-92,56,41,-97,-53,-180,-244,-248,-239,-165
-29,-112,-82,70,26,-97,39,-14,-107,-126,-151,-141
-24,-112,-87,68,31,-100,53,29,-73,-97,-117,-122
-24,-112,-87,68,31,-100,78,43,-58,-87,-92,-97
-39,-112,-73,75,17,-92,87,53,-43,-78,-82,-92
-43,-112,-68,78,12,-90,87,63,-29,-73,-82,-92
-48,-112,-63,80,7,-87,92,82,-19,-58,-73,-87
-53,-117,-63,85,4,-90,97,92,-4,-39,-68,-87
-53,-117,-63,85,4,-90,117,97,4,-39,-63,-87
-53,-117,-63,85,4,-90,122,102,9,-34,-63,-82
-53,-112,-58,82,2,-85,122,112,14,-34,-63,-82
-53,-107,-53,80,0,-80,126,112,19,-34,-58,-82
-53,-107,-53,80,0,-80,126,117,19,-29,-48,-82
-58,-102,-43,80,-7,-73,126,122,19,-24,-48,-78
-58,-102,-43,80,-7,-73,126,126,19,-19,-43,-73
-53,-92,-39,73,-7,-65,126,136,24,-14,-39,-73
-53,-92,-39,73,-7,-65,126,146,39,-9,-34,-73
-48,-92,-43,70,-2,-68,136,146,53,0,-24,-68
-48,-92,-43,70,-2,-68,136,151,63,9,-19,-68
-48,-92,-43,70,-2,-68,136,161,68,14,-14,-63
-48,-92,-43,70,-2,-68,146,165,68,19,-14,-63
-48,-92,-43,70,-2,-68,151,170,73,19,-14,-58
-48,-87,-39,68,-4,-63,156,180,87,24,-9,-58
-48,-87,-39,68,-4,-63,161,185,92,39,-4,-58
-48,-87,-39,68,-4,-63,161,195,102,39,-4,-53
-48,-87,-39,68,-4,-63,165,204,107,48,-4,-53
-48,-87,-39,68,-4,-63,170,214,117,53,4,-48
-48,-82,-34,65,-7,-58,175,224,131,58,14,-43
-48,-73,-24,61,-12,-48,180,234,141,68,24,-34
-53,-68,-14,61,-19,-41,185,248,156,78,29,-34
-53,-63,-9,58,-21,-36,190,268,170,92,39,-29
-53,-53,0,53,-26,-26,195,283,185,102,43,-29
-48,-53,-4,51,-21,-29,200,297,195,107,48,-24
-43,-48,-4,46,-19,-26,209,317,209,122,58,-24
-43,-43,0,43,-21,-21,209,331,224,136,63,-14
-39,-34,4,36,-21,-14,219,351,248,146,73,-9
-39,-24,14,31,-26,-4,229,370,263,156,82,0
-39,-14,24,26,-31,4,234,385,287,170,92,4
-39,-9,29,24,-34,9,239,400,302,190,107,4
-39,0,39,19,-39,19,248,419,317,204,117,19
-39,4,43,17,-41,24,253,434,336,219,126,29
-39,14,53,12,-46,34,258,453,361,234,136,39
-39,24,63,7,-51,43,268,473,380,253,151,43
-39,39,78,0,-58,58,273,492,405,268,165,53
-39,53,92,-7,-65,73,283,517,429,287,185,63
-39,68,107,-14,-73,87,283,536,453,307,200,73
-29,82,112,-26,-70,97,292,561,478,326,209,82
-24,107,131,-41,-78,119,297,575,502,351,224,92
-29,122,151,-46,-90,136,297,585,531,370,248,102
-34,141,175,-53,-104,158,302,600,551,390,268,117
-39,156,195,-58,-117,175,302,610,580,409,278,126
-43,170,214,-63,-129,192,302,624,600,419,292,136
-43,185,229,-70,-136,207,292,629,619,439,307,141
-43,200,244,-78,-143,222,287,629,624,444,322,151
-48,214,263,-82,-156,239,283,634,639,463,331,161
-58,229,287,-85,-173,258,273,624,649,478,336,170
-63,239,302,-87,-183,270,268,614,653,483,336,185
-63,244,307,-90,-185,275,263,600,658,483,336,190
-63,258,322,-97,-192,290,253,590,649,483,341,195
-63,273,336,-104,-200,305,234,570,639,483,341,195
-58,278,336,-109,-197,307,219,551,624,468,346,204
-58,278,336,-109,-197,307,204,527,605,463,346,209
-53,268,322,-107,-187,295,190,502,595,463,341,209
-48,258,307,-104,-178,283,170,478,580,458,331,204
-43,248,292,-102,-168,270,151,444,541,429,322,200
-39,229,268,-95,-153,248,136,405,502,409,312,200
-39,214,253,-87,-146,234,107,361,453,380,297,195
-34,200,234,-82,-134,217,78,317,405,346,278,185
-39,180,219,-70,-129,200,73,273,361,312,248,161
-39,161,200,-61,-119,180,53,224,317,278,224,146
-39,136,175,-48,-107,156,39,190,283,248,204,136
-29,117,146,-43,-87,131,29,156,234,209,170,117
-9,97,107,-43,-58,102,19,126,195,175,151,102
4,82,78,-43,-36,80,9,102,165,151,136,87
4,68,63,-36,-29,65,0,68,126,122,107,73
9,53,43,-31,-17,48,-4,48,92,92,82,63
9,39,29,-24,-9,34,-9,29,63,73,68,53
9,29,19,-19,-4,24,-19,4,39,53,53,43
4,19,14,-12,-4,17,-24,-4,4,29,34,34
0,9,9,-4,-4,9,-29,-24,-14,14,19,24
4,0,-4,-2,4,-2,-29,-24,-24,0,14,19
4,-9,-14,2,9,-12,-29,-34,-29,-19,9,4
4,-14,-19,4,12,-17,-29,-39,-39,-24,0,0
4,-19,-24,7,14,-21,-29,-43,-48,-24,0,0
4,-24,-29,9,17,-26,-29,-48,-48,-34,-9,-4
0,-34,-34,17,17,-34,-29,-48,-48,-34,-9,-4
4,-34,-39,14,21,-36,-29,-48,-53,-34,-9,-9
9,-34,-43,12,26,-39,-29,-48,-58,-39,-14,-14
9,-39,-48,14,29,-43,-24,-48,-63,-39,-19,-14
9,-43,-53,17,31,-48,-24,-48,-63,-43,-19,-14
4,-48,-53,21,29,-51,-24,-48,-63,-48,-19,-14
0,-48,-48,24,24,-48,-19,-48,-63,-48,-24,-19
4,-48,-53,21,29,-51,-19,-48,-68,-48,-29,-19
4,-48,-53,21,29,-51,-19,-48,-73,-53,-29,-19
0,-53,-53,26,26,-53,-19,-48,-73,-53,-29,-19
0,-53,-53,26,26,-53,-14,-43,-73,-53,-29,-29
-4,-58,-53,31,24,-56,-14,-48,-73,-53,-34,-34
-4,-63,-58,34,26,-61,-14,-53,-73,-58,-39,-34
-9,-58,-48,34,19,-53,-9,-53,-68,-58,-39,-34
-9,-53,-43,31,17,-48,-4,-48,-68,-53,-34,-34
-9,-53,-43,31,17,-48,-4,-43,-68,-58,-39,-34
-4,-53,-48,29,21,-51,0,-43,-68,-63,-48,-34
-4,-58,-53,31,24,-56,0,-43,-68,-63,-48,-34
-4,-63,-58,34,26,-61,0,-43,-68,-63,-48,-39
-9,-68,-58,39,24,-63,0,-43,-68,-63,-43,-43
-9,-68,-58,39,24,-63,0,-39,-68,-63,-39,-48
-14,-68,-53,41,19,-61,0,-34,-58,-58,-39,-48
-14,-68,-53,41,19,-61,0,-34,-53,-53,-39,-48
-14,-68,-53,41,19,-61,0,-34,-53,-48,-39,-43
-14,-68,-53,41,19,-61,0,-34,-53,-48,-39,-39
-14,-68,-53,41,19,-61,-4,-34,-58,-48,-39,-43
-19,-63,-43,41,12,-53,-4,-34,-63,-53,-43,-43
-19,-58,-39,39,9,-48,-4,-34,-63,-53,-43,-43
-19,-58,-39,39,9,-48,-4,-34,-63,-53,-43,-43
-19,-58,-39,39,9,-48,-4,-39,-63,-53,-43,-43
-19,-58,-39,39,9,-48,-4,-39,-63,-53,-43,-43
-19,-58,-39,39,9,-48,-4,-39,-63,-58,-43,-43
-19,-58,-39,39,9,-48,-9,-39,-63,-58,-43,-43
-19,-58,-39,39,9,-48,-9,-43,-53,-58,-43,-39
-19,-58,-39,39,9,-48,-9,-43,-53,-58,-43,-39
-24,-58,-34,41,4,-46,-9,-39,-53,-53,-43,-43
-24,-58,-34,41,4,-46,-9,-39,-53,-53,-48,-43
-24,-58,-34,41,4,-46,-4,-43,-58,-53,-48,-39
-24,-58,-34,41,4,-46,-4,-43,-68,-53,-48,-34
-24,-58,-34,41,4,-46,-4,-43,-68,-53,-43,-34
-24,-58,-34,41,4,-46,-4,-43,-73,-58,-43,-39
-24,-58,-34,41,4,-46,-14,-53,-73,-63,-43,-39
-24,-58,-34,41,4,-46,-19,-58,-78,-63,-48,-39
-24,-63,-39,43,7,-51,-19,-58,-82,-63,-53,-39
-24,-68,-43,46,9,-56,-19,-58,-82,-63,-53,-39
-19,-63,-43,41,12,-53,-19,-63,-82,-63,-53,-39
-19,-63,-43,41,12,-53,-14,-63,-82,-63,-53,-39
-24,-63,-39,43,7,-51,-14,-63,-82,-63,-58,-39
-24,-58,-34,41,4,-46,-14,-63,-82,-68,-58,-39
-19,-58,-39,39,9,-48,-14,-68,-87,-73,-58,-39
-19,-58,-39,39,9,-48,-14,-68,-92,-73,-58,-39
-19,-58,-39,39,9,-48,-14,-68,-92,-68,-53,-39
-19,-58,-39,39,9,-48,-14,-68,-92,-68,-48,-39
-19,-58,-39,39,9,-48,-14,-68,-92,-68,-48,-34
-19,-58,-39,39,9,-48,-14,-73,-92,-68,-48,-34
-19,-63,-43,41,12,-53,-14,-73,-92,-73,-48,-34
-19,-73,-53,46,17,-63,-14,-73,-92,-73,-48,-34
-19,-73,-53,46,17,-63,-19,-73,-92,-73,-48,-34
-19,-73,-53,46,17,-63,-24,-73,-92,-73,-48,-34
-19,-73,-53,46,17,-63,-24,-73,-87,-78,-53,-34
-14,-68,-53,41,19,-61,-24,-73,-87,-78,-53,-34
-9,-63,-53,36,21,-58,-29,-73,-87,-78,-58,-34
-9,-53,-43,31,17,-48,-29,-68,-92,-73,-53,-39
-4,-43,-39,24,17,-41,-24,-58,-87,-68,-48,-39
-4,-29,-24,17,9,-26,-14,-53,-82,-58,-43,-24
4,-14,-19,4,12,-17,-4,-43,-58,-34,-9,4
9,-4,-14,-2,12,-9,4,-34,-34,-14,9,24
9,4,-4,-7,7,0,19,-29,-24,-4,19,29
4,14,9,-9,-2,12,29,-29,-9,0,29,29
4,19,14,-12,-4,17,34,-24,-9,4,29,29
14,19,4,-17,4,12,39,-19,-9,4,29,34
14,29,14,-21,0,21,29,-14,-9,9,29,34
29,39,9,-34,9,24,24,-9,-9,9,29,34
48,48,0,-48,24,24,9,-4,-4,9,34,34
63,53,-9,-58,36,21,-9,-4,-4,9,39,39
63,48,-14,-56,39,17,-24,-4,-9,9,39,43
63,39,-24,-51,43,7,-39,-4,-9,14,43,43
58,29,-29,-43,43,0,-39,-14,-14,4,29,39
48,19,-29,-34,39,-4,-34,-29,-29,-9,24,24
29,4,-24,-17,26,-9,-34,-29,-43,-19,14,24
24,-9,-34,-7,29,-21,-34,-34,-53,-29,9,14
14,-14,-29,0,21,-21,-39,-43,-58,-34,0,14
9,-19,-29,4,19,-24,-43,-53,-63,-39,-4,14
4,-29,-34,12,19,-31,-43,-58,-73,-48,-9,4
0,-39,-39,19,19,-39,-48,-68,-87,-58,-19,0
0,-53,-53,26,26,-53,-48,-73,-112,-73,-34,-19
0,-68,-68,34,34,-68,-48,-78,-136,-87,-48,-39
4,-73,-78,34,41,-75,-53,-78,-141,-97,-58,-43
9,-82,-92,36,51,-87,-53,-82,-146,-107,-73,-48
14,-92,-107,39,61,-100,-58,-92,-156,-122,-87,-53
4,-107,-112,51,58,-109,-53,-107,-156,-131,-102,-68
-4,-107,-102,56,48,-104,-43,-107,-146,-117,-102,-68
-24,-102,-78,63,26,-90,-34,-97,-131,-107,-87,-58
-34,-102,-68,68,17,-85,-34,-97,-136,-107,-87,-58
-34,-102,-68,68,17,-85,-34,-92,-136,-102,-82,-53
-34,-102,-68,68,17,-85,-34,-92,-136,-102,-82,-53
-34,-102,-68,68,17,-85,-29,-92,-136,-102,-82,-53
-39,-102,-63,70,12,-82,-29,-92,-136,-107,-82,-58
-39,-97,-58,68,9,-78,-29,-92,-131,-112,-82,-63
-39,-92,-53,65,7,-73,-29,-92,-131,-112,-82,-63
-39,-92,-53,65,7,-73,-24,-92,-131,-112,-82,-63
-39,-92,-53,65,7,-73,-24,-87,-126,-102,-73,-58
-43,-92,-48,68,2,-70,-24,-87,-122,-92,-63,-48
-43,-92,-48,68,2,-70,-24,-87,-122,-87,-63,-48
-43,-92,-48,68,2,-70,-24,-87,-122,-87,-63,-48
-43,-97,-53,70,4,-75,-24,-92,-126,-92,-68,-48
-39,-102,-63,70,12,-82,-19,-92,-131,-97,-73,-48
-39,-102,-63,70,12,-82,-19,-87,-131,-97,-73,-53
-39,-102,-63,70,12,-82,-19,-87,-131,-97,-73,-53
-43,-92,-48,68,2,-70,-19,-87,-131,-92,-68,-48
-43,-87,-43,65,0,-65,-19,-92,-126,-87,-63,-48
-43,-87,-43,65,0,-65,-19,-92,-122,-87,-63,-53
-43,-87,-43,65,0,-65,-19,-87,-122,-87,-63,-53
-43,-87,-43,65,0,-65,-9,-87,-122,-97,-68,-53
-43,-92,-48,68,2,-70,-4,-87,-122,-112,-73,-53
-48,-92,-43,70,-2,-68,-4,-87,-122,-102,-73,-48
-48,-87,-39,68,-4,-63,-4,-87,-122,-87,-68,-48
-39,-87,-48,63,4,-68,-4,-87,-122,-87,-68,-48
-29,-82,-53,56,12,-68,-4,-87,-117,-87,-68,-48
-29,-82,-53,56,12,-68,-4,-87,-117,-92,-68,-48
-34,-82,-48,58,7,-65,0,-87,-117,-97,-68,-48
-48,-87,-39,68,-4,-63,4,-82,-117,-107,-87,-58
-82,-107,-24,95,-29,-65,29,-97,-126,-131,-112,-82
-151,-126,24,139,-87,-51,92,-141,-146,-185,-170,-131
-219,-141,78,180,-148,-31,136,-200,-161,-234,-209,-170
-292,-156,136,224,-214,-9,190,-263,-151,-244,-224,-175
-336,-156,180,246,-258,12,268,-239,-102,-209,-195,-170
-307,-107,200,207,-253,46,341,-68,107,-4,-14,-53
-214,58,273,78,-244,165,361,117,434,336,292,200
-87,263,351,-87,-219,307,331,214,722,707,653,488
102,566,463,-334,-180,514,185,292,1015,1171,1137,873
346,814,468,-580,-61,641,-68,287,1088,1395,1424,1156
502,1083,580,-793,-39,832,-546,-278,1019,1537,1644,1439
429,1034,605,-732,-87,819,-932,-1166,483,995,1195,1215
331,370,39,-351,146,204,-1161,-1781,-902,-575,-273,190
204,-9,-214,-97,209,-112,-1454,-2396,-2010,-1756,-1298,-507
102,-302,-405,100,253,-353,-1478,-2586,-2532,-2278,-1761,-863
185,-400,-585,107,385,-492,-1395,-2366,-2605,-2361,-1854,-956
361,-326,-688,-17,524,-507,-1254,-1790,-2171,-1927,-1546,-810
429,-258,-688,-85,558,-473,-1063,-1420,-1844,-1610,-1288,-658
400,-175,-575,-112,488,-375,-810,-1058,-1429,-1239,-990,-502
336,-146,-483,-95,409,-314,-619,-766,-1063,-941,-761,-405
141,-63,-204,-39,173,-134,-351,-463,-595,-541,-444,-234
-24,-58,-34,41,4,-46,-107,-224,-263,-263,-229,-136
-39,-112,-73,75,17,-92,19,-68,-131,-156,-156,-136
-39,-122,-82,80,21,-102,58,39,-48,-78,-102,-112
-34,-122,-87,78,26,-104,58,58,-39,-58,-87,-102
-34,-122,-87,78,26,-104,78,63,-29,-48,-73,-92
-43,-122,-78,82,17,-100,87,73,-19,-39,-63,-92
-43,-122,-78,82,17,-100,87,82,-4,-34,-63,-92
-43,-117,-73,80,14,-95,92,102,9,-24,-48,-82
-43,-117,-73,80,14,-95,97,112,24,-14,-39,-73
-43,-117,-73,80,14,-95,112,117,29,-19,-34,-68
-43,-117,-73,80,14,-95,107,117,24,-14,-34,-63
-43,-117,-73,80,14,-95,102,122,24,-9,-34,-63
-39,-112,-73,75,17,-92,107,122,29,0,-29,-63
-34,-107,-73,70,19,-90,107,126,39,9,-19,-63
-39,-102,-63,70,12,-82,107,131,48,14,-24,-63
-39,-102,-63,70,12,-82,112,136,48,19,-24,-63
-39,-92,-53,65,7,-73,117,146,48,19,-19,-63
-43,-92,-48,68,2,-70,117,156,53,19,-19,-63
-39,-97,-58,68,9,-78,126,156,63,29,-14,-58
-39,-102,-63,70,12,-82,126,161,73,34,-9,-58
-39,-102,-63,70,12,-82,126,170,82,34,0,-53
-39,-102,-63,70,12,-82,131,175,87,39,4,-53
-39,-102,-63,70,12,-82,131,185,92,39,4,-48
-39,-97,-58,68,9,-78,136,200,107,43,9,-48
-34,-92,-58,63,12,-75,141,204,112,58,14,-48
-29,-82,-53,56,12,-68,141,214,126,58,19,-43
-29,-78,-48,53,9,-63,146,224,136,68,24,-34
-29,-78,-48,53,9,-63,151,234,146,78,34,-19
-34,-78,-43,56,4,-61,156,244,161,87,43,-24
-34,-78,-43,56,4,-61,161,253,170,97,53,-24
-34,-82,-48,58,7,-65,165,268,185,107,58,-24
-34,-82,-48,58,7,-65,170,283,200,122,68,-19
-29,-73,-43,51,7,-58,175,292,214,131,73,-14
-24,-73,-48,48,12,-61,180,307,224,136,78,-4
-24,-58,-34,41,4,-46,190,326,239,151,97,4
-24,-43,-19,34,-2,-31,190,341,253,165,112,24
-14,-34,-19,24,2,-26,200,361,278,175,112,19
-9,-24,-14,17,2,-19,209,380,292,185,112,19
-9,-14,-4,12,-2,-9,209,395,317,200,122,24
-9,-9,0,9,-4,-4,209,414,336,219,136,24
-9,0,9,4,-9,4,214,439,356,239,146,34
-9,9,19,0,-14,14,214,453,375,258,156,39
-9,24,34,-7,-21,29,219,473,400,278,175,48
-9,34,43,-12,-26,39,229,492,419,307,200,53
-9,48,58,-19,-34,53,234,517,458,326,214,68
-9,63,73,-26,-41,68,244,541,497,346,234,82
-9,78,87,-34,-48,82,244,556,512,366,248,92
-4,92,97,-43,-51,95,248,575,527,380,258,102
0,117,117,-58,-58,117,244,580,551,400,273,117
0,131,131,-65,-65,131,239,585,575,419,292,131
-4,156,161,-75,-82,158,244,600,595,439,307,146
-4,175,180,-85,-92,178,244,605,624,458,317,156
-4,190,195,-92,-100,192,244,614,639,473,336,165
-4,204,209,-100,-107,207,234,619,658,497,356,175
0,214,214,-107,-107,214,229,614,658,502,370,190
0,224,224,-112,-112,224,224,610,668,517,380,200
-9,239,248,-114,-129,244,214,595,678,531,385,209
-14,248,263,-117,-139,256,204,585,678,541,390,219
-14,253,268,-119,-141,261,195,570,678,541,395,219
-14,258,273,-122,-143,265,185,561,668,541,400,224
-14,263,278,-124,-146,270,165,541,658,541,400,224
-9,268,278,-129,-143,273,151,517,644,527,400,229
-9,268,278,-129,-143,273,136,488,619,517,395,229
-4,258,263,-126,-134,261,122,458,590,502,385,229
-4,248,253,-122,-129,251,107,424,561,483,361,224
-4,239,244,-117,-124,241,92,385,522,444,336,214
0,219,219,-109,-109,219,78,346,483,414,322,209
0,204,204,-102,-102,204,58,302,434,380,307,204
4,190,185,-97,-90,187,39,258,380,346,287,195
4,170,165,-87,-80,168,34,224,331,312,258,175
4,151,146,-78,-70,148,19,185,287,278,234,161
0,126,126,-63,-63,126,9,151,248,248,214,146
4,107,102,-56,-48,104,0,117,195,209,180,126
9,87,78,-48,-34,82,-9,87,156,175,161,112
9,73,63,-41,-26,68,-14,63,126,151,146,92
4,58,53,-31,-24,56,-19,34,97,126,122,73
9,48,39,-29,-14,43,-24,19,73,102,97,63
9,39,29,-24,-9,34,-24,4,43,82,78,53
9,29,19,-19,-4,24,-29,-14,14,58,63,43
9,19,9,-14,0,14,-29,-19,-14,34,48,34
4,9,4,-7,0,7,-24,-39,-24,24,39,24
4,4,0,-4,2,2,-19,-43,-34,14,34,24
4,0,-4,-2,4,-2,-19,-53,-39,-4,24,14
4,-4,-9,0,7,-7,-19,-53,-48,-14,9,9
4,-14,-19,4,12,-17,-24,-53,-58,-14,9,9
4,-24,-29,9,17,-26,-29,-58,-58,-24,0,4
0,-34,-34,17,17,-34,-29,-58,-58,-24,0,9
0,-34,-34,17,17,-34,-29,-58,-63,-24,0,9
4,-34,-39,14,21,-36,-29,-53,-68,-24,-4,4
9,-34,-43,12,26,-39,-24,-48,-73,-19,-9,4
9,-29,-39,9,24,-34,-24,-48,-73,-24,-4,0
9,-29,-39,9,24,-34,-24,-48,-73,-29,0,-4
4,-29,-34,12,19,-31,-19,-48,-73,-29,-4,-9
4,-29,-34,12,19,-31,-19,-48,-73,-29,-9,-9
4,-29,-34,12,19,-31,-19,-53,-73,-43,-19,-9
0,-34,-34,17,17,-34,-19,-58,-73,-53,-29,-9
0,-39,-39,19,19,-39,-14,-53,-73,-53,-29,-19
-4,-48,-43,26,19,-46,-14,-53,-73,-53,-34,-24
-4,-53,-48,29,21,-51,-14,-48,-73,-48,-29,-24
-9,-53,-43,31,17,-48,-14,-43,-68,-39,-19,-24
-4,-48,-43,26,19,-46,-14,-39,-68,-34,-14,-24
0,-43,-43,21,21,-43,-14,-34,-68,-34,-14,-24
4,-43,-48,19,26,-46,-9,-34,-68,-34,-24,-24
4,-43,-48,19,26,-46,-9,-34,-68,-34,-29,-24
4,-43,-48,19,26,-46,-9,-34,-68,-34,-29,-29
0,-48,-48,24,24,-48,-9,-34,-68,-34,-29,-29
0,-48,-48,24,24,-48,-9,-29,-68,-34,-29,-29
-4,-48,-43,26,19,-46,-9,-29,-63,-34,-29,-29
-9,-48,-39,29,14,-43,-9,-34,-63,-34,-29,-29
-14,-48,-34,31,9,-41,-9,-34,-63,-29,-29,-29
-14,-48,-34,31,9,-41,-14,-34,-63,-29,-29,-29
-14,-53,-39,34,12,-46,-19,-34,-63,-29,-29,-34
-14,-53,-39,34,12,-46,-14,-34,-63,-34,-34,-34
-9,-48,-39,29,14,-43,-14,-34,-63,-34,-34,-34
-9,-48,-39,29,14,-43,-9,-34,-58,-34,-34,-29
-9,-48,-39,29,14,-43,-4,-39,-53,-34,-34,-24
-9,-48,-39,29,14,-43,-4,-39,-53,-34,-34,-24
-9,-48,-39,29,14,-43,-4,-39,-53,-39,-34,-24
-14,-48,-34,31,9,-41,-9,-43,-58,-39,-34,-29
-19,-48,-29,34,4,-39,-9,-53,-63,-39,-34,-29
-19,-48,-29,34,4,-39,-9,-53,-73,-43,-34,-29
-24,-48,-24,36,0,-36,-9,-53,-73,-48,-34,-34
-24,-48,-24,36,0,-36,-9,-58,-73,-53,-39,-34
-24,-48,-24,36,0,-36,-9,-63,-73,-53,-39,-34
-19,-39,-19,29,0,-29,-14,-63,-78,-48,-39,-34
-14,-29,-14,21,0,-21,-14,-63,-78,-43,-39,-34
-14,-29,-14,21,0,-21,-14,-63,-82,-48,-43,-39
-14,-29,-14,21,0,-21,-19,-68,-82,-53,-43,-39
-14,-34,-19,24,2,-26,-19,-68,-87,-53,-48,-39
-14,-39,-24,26,4,-31,-19,-68,-92,-53,-48,-39
-19,-39,-19,29,0,-29,-19,-68,-92,-58,-48,-39
-19,-34,-14,26,-2,-24,-24,-73,-92,-63,-53,-39
-19,-34,-14,26,-2,-24,-29,-73,-92,-63,-53,-39
-24,-39,-14,31,-4,-26,-34,-73,-92,-63,-58,-39
-24,-39,-14,31,-4,-26,-34,-73,-92,-63,-53,-39
-19,-39,-19,29,0,-29,-34,-78,-97,-63,-48,-39
-14,-34,-19,24,2,-26,-34,-78,-102,-63,-48,-39
-9,-29,-19,19,4,-24,-34,-78,-102,-58,-48,-39
-9,-29,-19,19,4,-24,-34,-78,-102,-58,-48,-34
-9,-29,-19,19,4,-24,-34,-78,-102,-58,-48,-24
-9,-29,-19,19,4,-24,-34,-82,-102,-58,-48,-24
-9,-24,-14,17,2,-19,-34,-82,-102,-63,-48,-24
-9,-24,-14,17,2,-19,-34,-82,-102,-63,-48,-24
-9,-24,-14,17,2,-19,-34,-82,-102,-63,-48,-24
-9,-19,-9,14,0,-14,-34,-78,-97,-58,-43,-19
-9,-14,-4,12,-2,-9,-34,-73,-87,-53,-39,-14
-4,0,4,2,-4,2,-19,-63,-73,-39,-24,-9
0,14,14,-7,-7,14,-9,-53,-53,-29,-14,0
0,24,24,-12,-12,24,-9,-48,-39,-14,4,9
4,34,29,-19,-12,31,-4,-39,-19,0,19,19
4,43,39,-24,-17,41,4,-39,-34,-4,14,19
14,53,39,-34,-12,46,14,-34,-34,0,29,29
19,53,34,-36,-7,43,14,-24,-19,14,34,43
24,53,29,-39,-2,41,14,-19,-14,24,39,48
34,63,29,-48,2,46,0,-24,-4,19,43,43
43,68,24,-56,9,46,-19,-24,-9,14,39,39
53,63,9,-58,21,36,-29,-24,-19,9,34,39
53,63,9,-58,21,36,-48,-29,-29,9,29,34
53,58,4,-56,24,31,-43,-39,-39,0,24,29
48,53,4,-51,21,29,-48,-48,-48,-9,19,24
48,43,-4,-46,26,19,-48,-53,-53,-9,19,29
43,24,-19,-34,31,2,-43,-53,-58,-14,14,24
29,19,-9,-24,19,4,-43,-63,-68,-24,0,14
14,14,0,-14,7,7,-43,-73,-82,-34,-9,9
9,4,-4,-7,7,0,-43,-78,-82,-34,-14,9
9,0,-9,-4,9,-4,-48,-87,-87,-39,-19,9
9,-14,-24,2,17,-19,-53,-87,-102,-58,-34,-9
9,-29,-39,9,24,-34,-58,-87,-117,-78,-48,-29
9,-43,-53,17,31,-48,-63,-87,-126,-87,-53,-34
9,-58,-68,24,39,-63,-68,-92,-141,-102,-63,-39
14,-73,-87,29,51,-80,-73,-102,-161,-117,-78,-48
4,-87,-92,41,48,-90,-73,-117,-175,-131,-92,-68
0,-87,-87,43,43,-87,-63,-117,-165,-117,-92,-68
-14,-82,-68,48,26,-75,-53,-107,-151,-107,-78,-58
-24,-82,-58,53,17,-70,-48,-107,-151,-107,-78,-58
-24,-82,-58,53,17,-70,-43,-102,-146,-102,-73,-53
-24,-82,-58,53,17,-70,-43,-102,-146,-102,-73,-53
-24,-82,-58,53,17,-70,-39,-102,-146,-102,-73,-53
-29,-82,-53,56,12,-68,-39,-102,-146,-102,-73,-58
-29,-78,-48,53,9,-63,-39,-102,-141,-102,-73,-63
-29,-73,-43,51,7,-58,-39,-102,-141,-107,-73,-63
-29,-73,-43,51,7,-58,-34,-102,-141,-112,-73,-63
-34,-73,-39,53,2,-56,-34,-97,-141,-112,-73,-63
-43,-73,-29,58,-7,-51,-34,-97,-141,-112,-73,-58
-43,-73,-29,58,-7,-51,-34,-97,-141,-107,-73,-58
-43,-73,-29,58,-7,-51,-34,-97,-141,-107,-73,-58
-43,-73,-29,58,-7,-51,-34,-102,-141,-102,-73,-53
-39,-73,-34,56,-2,-53,-29,-102,-141,-97,-73,-48
-39,-73,-34,56,-2,-53,-29,-102,-141,-97,-73,-53
-39,-73,-34,56,-2,-53,-29,-107,-141,-97,-73,-53
-39,-68,-29,53,-4,-48,-29,-107,-146,-97,-78,-48
-34,-68,-34,51,0,-51,-29,-112,-146,-97,-82,-48
-34,-68,-34,51,0,-51,-29,-112,-146,-102,-82,-53
-34,-68,-34,51,0,-51,-29,-107,-151,-107,-82,-53
-34,-68,-34,51,0,-51,-24,-107,-151,-107,-82,-53
-34,-73,-39,53,2,-56,-24,-107,-151,-112,-82,-53
-39,-73,-34,56,-2,-53,-24,-102,-146,-112,-82,-48
-39,-68,-29,53,-4,-48,-24,-97,-141,-107,-78,-48
-34,-68,-34,51,0,-51,-24,-97,-141,-102,-73,-48
-29,-63,-34,46,2,-48,-24,-97,-136,-97,-68,-48
-29,-58,-29,43,0,-43,-24,-97,-136,-97,-68,-48
-34,-53,-19,43,-7,-36,-19,-97,-136,-97,-68,-48
-34,-53,-19,43,-7,-36,-24,-92,-136,-107,-82,-53
-53,-68,-14,61,-19,-41,-9,-107,-146,-131,-102,-73
-122,-87,34,104,-78,-26,53,-156,-170,-190,-165,-126
-190,-102,87,146,-139,-7,97,-219,-190,-244,-209,-170
-278,-126,151,202,-214,12,161,-297,-209,-292,-268,-195
-336,-136,200,236,-268,31,248,-287,-190,-297,-283,-209
-326,-117,209,222,-268,46,341,-122,19,-107,-112,-126
-253,19,273,117,-263,146,380,58,346,219,185,92
-151,224,375,-36,-263,300,380,185,683,624,566,395
14,527,512,-270,-248,519,263,292,1024,1122,1068,795
297,844,546,-570,-124,695,4,429,1234,1542,1532,1195
492,1180,688,-836,-97,934,-478,4,1302,1878,1927,1595
483,1161,678,-822,-97,919,-902,-829,824,1410,1551,1439
448,527,78,-488,185,302,-1171,-1390,-502,-87,156,483
297,78,-219,-187,258,-70,-1483,-2147,-1834,-1512,-1063,-336
170,-283,-453,56,312,-368,-1527,-2479,-2581,-2278,-1722,-814
244,-400,-644,78,444,-522,-1444,-2313,-2703,-2415,-1878,-951
409,-346,-756,-31,583,-551,-1302,-1790,-2318,-2034,-1634,-849
492,-287,-780,-102,636,-534,-1122,-1434,-2000,-1737,-1385,-707
478,-214,-692,-131,585,-453,-878,-1088,-1595,-1385,-1098,-561
409,-170,-580,-119,495,-375,-697,-814,-1215,-1063,-858,-448
209,-73,-283,-68,246,-178,-439,-531,-732,-639,-531,-263
9,-58,-68,24,39,-63,-170,-287,-361,-341,-302,-165
-39,-102,-63,70,12,-82,-19,-126,-190,-214,-214,-165
-39,-112,-73,75,17,-92,29,-4,-82,-117,-141,-136
-34,-112,-78,73,21,-95,39,29,-48,-78,-107,-122
-34,-112,-78,73,21,-95,63,34,-39,-68,-92,-107
-43,-112,-68,78,12,-90,78,43,-29,-58,-82,-102
-43,-107,-63,75,9,-85,78,53,-14,-43,-82,-97
-43,-97,-53,70,4,-75,82,73,0,-24,-68,-82
-43,-97,-53,70,4,-75,87,82,14,-19,-58,-78
-43,-97,-53,70,4,-75,102,87,19,-29,-53,-78
-43,-97,-53,70,4,-75,102,92,19,-24,-53,-73
-43,-97,-53,70,4,-75,102,102,24,-19,-53,-73
-43,-97,-53,70,4,-75,107,102,29,-14,-48,-73
-43,-97,-53,70,4,-75,107,107,39,-9,-39,-73
-53,-97,-43,75,-4,-70,107,112,48,-4,-39,-68
-58,-102,-43,80,-7,-73,112,117,48,0,-34,-63
-53,-92,-39,73,-7,-65,117,126,48,4,-29,-68
-53,-92,-39,73,-7,-65,117,136,53,9,-29,-73
-43,-87,-43,65,0,-65,126,136,63,19,-24,-68
-39,-82,-43,61,2,-63,126,141,73,24,-19,-68
-39,-82,-43,61,2,-63,126,151,78,24,-14,-63
-39,-82,-43,61,2,-63,131,156,78,29,-14,-63
-39,-82,-43,61,2,-63,131,161,82,29,-14,-58
-39,-78,-39,58,0,-58,136,170,97,34,-9,-58
-39,-78,-39,58,0,-58,136,175,102,48,-4,-58
-39,-73,-34,56,-2,-53,131,185,117,48,0,-53
-39,-68,-29,53,-4,-48,136,195,126,58,4,-53
-39,-68,-29,53,-4,-48,141,204,136,68,14,-48
-39,-63,-24,51,-7,-43,151,214,151,78,24,-43
-34,-58,-24,46,-4,-41,161,224,161,87,34,-34
-34,-58,-24,46,-4,-41,165,239,175,97,39,-29
-34,-53,-19,43,-7,-36,170,253,190,112,48,-19
-39,-43,-4,41,-17,-24,175,263,209,122,53,-19
-43,-43,0,43,-21,-21,180,278,224,126,58,-14
-43,-39,4,41,-24,-17,190,297,239,141,68,-19
-43,-34,9,39,-26,-12,190,312,253,156,73,-14
-39,-24,14,31,-26,-4,200,331,278,165,82,-9
-39,-14,24,26,-31,4,209,351,292,175,92,0
-34,-4,29,19,-31,12,214,366,317,190,102,4
-29,0,29,14,-29,14,219,385,336,209,117,4
-29,9,39,9,-34,24,229,409,356,224,126,19
-29,19,48,4,-39,34,234,424,375,239,136,29
-29,34,63,-2,-46,48,239,444,400,253,146,39
-29,43,73,-7,-51,58,248,463,419,278,161,43
-34,53,87,-9,-61,70,253,478,444,297,175,53
-39,63,102,-12,-70,82,263,492,468,317,195,63
-39,78,117,-19,-78,97,263,507,492,336,209,73
-34,92,126,-29,-80,109,268,527,517,351,219,82
-29,122,151,-46,-90,136,268,541,541,370,239,92
-29,141,170,-56,-100,156,268,556,566,390,263,102
-34,161,195,-63,-114,178,273,570,580,409,278,117
-34,175,209,-70,-122,192,273,575,605,429,287,126
-39,185,224,-73,-131,204,273,585,619,439,297,136
-43,195,239,-75,-141,217,263,590,639,458,307,146
-43,209,253,-82,-148,231,258,585,644,463,322,161
-48,224,273,-87,-161,248,253,580,658,478,331,170
-58,239,297,-90,-178,268,244,566,668,488,336,180
-63,248,312,-92,-187,280,234,556,668,492,341,190
-63,253,317,-95,-190,285,224,541,668,492,346,190
-63,258,322,-97,-192,290,214,531,658,492,351,195
-63,263,326,-100,-195,295,195,517,653,492,351,195
-58,268,326,-104,-192,297,180,497,644,478,351,200
-58,268,326,-104,-192,297,165,468,624,473,346,200
-53,258,312,-102,-183,285,151,439,600,463,336,200
-48,248,297,-100,-173,273,131,409,570,448,322,195
-43,239,283,-97,-163,261,112,375,531,414,307,185
-39,224,263,-92,-151,244,97,336,492,390,292,180
-39,214,253,-87,-146,234,78,292,444,361,278,175
-29,200,229,-85,-129,214,58,248,395,326,263,170
-24,180,204,-78,-114,192,53,214,351,292,239,156
-19,161,180,-70,-100,170,34,175,302,258,214,146
-19,136,156,-58,-87,146,19,141,258,229,195,136
-14,117,131,-51,-73,124,9,112,204,190,161,117
-9,97,107,-43,-58,102,0,87,165,156,141,102
-4,82,87,-39,-46,85,-9,63,131,131,126,87
-4,68,73,-31,-39,70,-19,34,97,107,102,73
0,48,48,-24,-24,48,-24,19,73,82,82,63
0,29,29,-14,-14,29,-24,4,43,63,68,53
4,19,14,-12,-4,17,-29,-14,19,43,48,43
9,9,0,-9,4,4,-29,-19,-4,24,29,34
9,4,-4,-7,7,0,-29,-34,-14,14,19,24
14,4,-9,-9,12,-2,-29,-34,-24,4,14,24
9,0,-9,-4,9,-4,-34,-48,-29,-9,9,14
4,-4,-9,0,7,-7,-39,-53,-39,-14,0,9
4,-9,-14,2,9,-12,-39,-53,-48,-19,0,9
4,-14,-19,4,12,-17,-39,-58,-48,-34,-9,4
0,-29,-29,14,14,-29,-39,-58,-48,-34,-9,0
0,-34,-34,17,17,-34,-39,-58,-53,-34,-9,-9
0,-39,-39,19,19,-39,-39,-58,-58,-39,-14,-14
0,-43,-43,21,21,-43,-34,-58,-63,-39,-19,-14
0,-43,-43,21,21,-43,-34,-58,-68,-43,-19,-14
0,-48,-48,24,24,-48,-34,-58,-73,-48,-19,-14
4,-39,-43,17,24,-41,-29,-53,-73,-48,-24,-19
14,-29,-43,7,29,-36,-29,-48,-73,-48,-29,-19
14,-29,-43,7,29,-36,-29,-48,-73,-53,-29,-14
9,-34,-43,12,26,-39,-29,-48,-73,-53,-29,-9
4,-39,-43,17,24,-41,-19,-43,-73,-53,-29,-19
-4,-48,-43,26,19,-46,-14,-43,-73,-53,-34,-24
-4,-53,-48,29,21,-51,-14,-43,-73,-58,-39,-29
-9,-53,-43,31,17,-48,-14,-43,-68,-58,-39,-34
-4,-48,-43,26,19,-46,-14,-39,-63,-53,-34,-34
0,-43,-43,21,21,-43,-14,-34,-58,-53,-34,-34
4,-43,-48,19,26,-46,-9,-34,-58,-53,-39,-34
4,-43,-48,19,26,-46,-9,-34,-58,-53,-39,-34
0,-43,-43,21,21,-43,-9,-34,-58,-53,-39,-39
-9,-48,-39,29,14,-43,-9,-34,-58,-53,-39,-39
-9,-48,-39,29,14,-43,-9,-29,-58,-48,-39,-39
-14,-48,-34,31,9,-41,-9,-29,-53,-43,-39,-39
-14,-48,-34,31,9,-41,-9,-29,-53,-43,-39,-34
-14,-48,-34,31,9,-41,-9,-24,-53,-39,-39,-29
-9,-48,-39,29,14,-43,-9,-24,-53,-39,-34,-29
-4,-53,-48,29,21,-51,-9,-24,-53,-39,-29,-34
-9,-53,-43,31,17,-48,-4,-24,-53,-43,-34,-34
-9,-48,-39,29,14,-43,-4,-24,-53,-43,-34,-34
-14,-53,-39,34,12,-46,-4,-24,-53,-43,-39,-34
-19,-58,-39,39,9,-48,-4,-29,-53,-43,-43,-34
-19,-58,-39,39,9,-48,-4,-34,-53,-43,-43,-39
-19,-58,-39,39,9,-48,-4,-39,-53,-48,-43,-43
-19,-58,-39,39,9,-48,-9,-39,-53,-48,-43,-43
-19,-58,-39,39,9,-48,-9,-43,-53,-48,-43,-39
-14,-53,-39,34,12,-46,-9,-43,-63,-48,-43,-39
-14,-48,-34,31,9,-41,-9,-43,-63,-48,-43,-43
-14,-48,-34,31,9,-41,-9,-48,-63,-53,-43,-43
-14,-48,-34,31,9,-41,-9,-53,-63,-53,-39,-43
-14,-48,-34,31,9,-41,-14,-53,-68,-53,-39,-43
-14,-48,-34,31,9,-41,-14,-53,-68,-53,-39,-43
-14,-48,-34,31,9,-41,-14,-53,-73,-58,-43,-48
-14,-48,-34,31,9,-41,-19,-58,-73,-63,-43,-48
-14,-48,-34,31,9,-41,-19,-58,-78,-63,-53,-48
-14,-48,-34,31,9,-41,-19,-58,-82,-63,-58,-48
-14,-48,-34,31,9,-41,-19,-58,-82,-63,-53,-43
-9,-43,-34,26,12,-39,-24,-63,-82,-63,-53,-39
-14,-43,-29,29,7,-36,-24,-63,-87,-63,-53,-39
-24,-48,-24,36,0,-36,-24,-63,-92,-63,-58,-39
-24,-48,-24,36,0,-36,-29,-63,-92,-68,-58,-39
-19,-48,-29,34,4,-39,-34,-68,-97,-73,-58,-39
-19,-48,-29,34,4,-39,-34,-68,-102,-78,-58,-39
-19,-48,-29,34,4,-39,-34,-68,-102,-78,-58,-39
-19,-48,-29,34,4,-39,-34,-73,-102,-78,-58,-43
-19,-48,-29,34,4,-39,-34,-78,-102,-78,-58,-43
-19,-48,-29,34,4,-39,-34,-82,-102,-78,-58,-43
-19,-43,-24,31,2,-34,-34,-82,-102,-82,-58,-43
-19,-43,-24,31,2,-34,-29,-78,-102,-82,-58,-43
-19,-43,-24,31,2,-34,-24,-73,-102,-82,-58,-43
-19,-48,-29,34,4,-39,-24,-73,-102,-82,-58,-43
-19,-53,-34,36,7,-43,-24,-73,-97,-82,-58,-43
-14,-53,-39,34,12,-46,-29,-78,-97,-78,-53,-43
-9,-53,-43,31,17,-48,-39,-82,-92,-78,-53,-39
-9,-43,-34,26,12,-39,-39,-78,-92,-73,-43,-39
-4,-34,-29,19,12,-31,-34,-68,-87,-68,-39,-39
-4,-19,-14,12,4,-17,-24,-63,-82,-58,-43,-34
4,-4,-9,0,7,-7,-14,-53,-63,-39,-29,-19
9,14,4,-12,2,9,0,-43,-39,-24,-9,4
14,34,19,-24,-2,26,14,-39,-24,-14,9,19
14,43,29,-29,-7,36,24,-34,-9,-9,19,19
14,48,34,-31,-9,41,29,-24,-9,-4,19,19
24,48,24,-36,0,36,29,-19,-9,-4,19,24
24,53,29,-39,-2,41,19,-19,-9,0,19,24
39,63,24,-51,7,43,14,-19,-9,4,19,29
48,73,24,-61,12,48,0,-19,-9,9,19,34
58,73,14,-65,21,43,-24,-24,-14,9,24,39
63,68,4,-65,29,36,-39,-24,-19,4,24,39
68,58,-9,-63,39,24,-48,-19,-19,4,24,34
73,48,-24,-61,48,12,-48,-24,-24,-4,9,29
68,39,-29,-53,48,4,-43,-39,-39,-19,4,14
43,19,-24,-31,34,-2,-43,-39,-58,-34,-4,9
34,9,-24,-21,29,-7,-43,-39,-63,-34,-14,0
29,4,-24,-17,26,-9,-43,-43,-73,-39,-24,-4
19,0,-19,-9,19,-9,-43,-48,-73,-48,-19,0
9,0,-9,-4,9,-4,-48,-58,-78,-58,-19,0
4,-14,-19,4,12,-17,-53,-68,-92,-63,-34,-9
0,-29,-29,14,14,-29,-58,-78,-107,-68,-48,-19
4,-43,-48,19,26,-46,-63,-78,-117,-78,-53,-29
9,-58,-68,24,39,-63,-68,-82,-136,-97,-68,-39
19,-73,-92,26,56,-82,-73,-92,-156,-117,-82,-53
14,-87,-102,36,58,-95,-73,-107,-175,-141,-102,-78
4,-87,-92,41,48,-90,-63,-112,-165,-131,-107,-78
-14,-82,-68,48,26,-75,-53,-107,-151,-126,-97,-68
-29,-82,-53,56,12,-68,-48,-107,-151,-126,-97,-68
-34,-82,-48,58,7,-65,-43,-102,-146,-122,-92,-63
-34,-82,-48,58,7,-65,-48,-107,-146,-117,-92,-68
-34,-82,-48,58,7,-65,-48,-112,-146,-112,-92,-73
-39,-82,-43,61,2,-63,-48,-112,-146,-112,-92,-73
-39,-78,-39,58,0,-58,-48,-112,-141,-112,-92,-73
-34,-73,-39,53,2,-56,-43,-107,-141,-112,-92,-68
-29,-73,-43,51,7,-58,-34,-102,-141,-112,-92,-63
-29,-73,-43,51,7,-58,-34,-97,-141,-117,-92,-63
-34,-73,-39,53,2,-56,-34,-97,-141,-122,-92,-58
-39,-73,-34,56,-2,-53,-34,-102,-141,-117,-92,-58
-43,-73,-29,58,-7,-51,-34,-107,-141,-117,-92,-58
-43,-68,-24,56,-9,-46,-39,-112,-141,-117,-92,-58
-39,-63,-24,51,-7,-43,-39,-112,-141,-117,-92,-58
-39,-63,-24,51,-7,-43,-39,-102,-141,-117,-92,-68
-39,-63,-24,51,-7,-43,-39,-97,-141,-117,-92,-73
-43,-58,-14,51,-14,-36,-34,-97,-146,-117,-92,-68
-43,-58,-14,51,-14,-36,-29,-102,-146,-117,-92,-68
-43,-63,-19,53,-12,-41,-29,-107,-141,-117,-92,-68
-43,-68,-24,56,-9,-46,-29,-107,-141,-117,-92,-63
-43,-68,-24,56,-9,-46,-24,-107,-141,-117,-92,-63
-43,-73,-29,58,-7,-51,-24,-107,-141,-122,-92,-63
-48,-73,-24,61,-12,-48,-24,-102,-141,-117,-92,-58
-48,-68,-19,58,-14,-43,-24,-97,-141,-107,-87,-58
-39,-68,-29,53,-4,-48,-24,-97,-141,-107,-82,-58
-29,-63,-34,46,2,-48,-24,-97,-136,-107,-78,-58
-29,-63,-34,46,2,-48,-29,-97,-136,-107,-78,-58
-34,-63,-29,48,-2,-46,-29,-97,-136,-107,-78,-58
-34,-63,-29,48,-2,-46,-34,-92,-136,-112,-87,-58
-53,-78,-24,65,-14,-51,-19,-107,-146,-131,-102,-73
-122,-97,24,109,-73,-36,43,-156,-170,-185,-161,-122
-190,-112,78,151,-134,-17,87,-219,-190,-234,-200,-161
-287,-126,161,207,-224,17,151,-331,-229,-297,-263,-190
-356,-126,229,241,-292,51,239,-356,-229,-317,-283,-209
-361,-122,239,241,-300,58,366,-185,-39,-161,-156,-156
-302,0,302,151,-302,151,439,0,268,131,97,34
-209,175,385,17,-297,280,458,161,629,531,458,312
-53,448,502,-197,-278,475,361,302,995,1024,941,688
273,819,546,-546,-136,683,78,585,1322,1546,1488,1132
512,1210,697,-861,-92,954,-429,307,1507,1986,1966,1576
575,1249,673,-912,-48,961,-932,-527,1141,1683,1751,1537
614,673,58,-644,278,366,-1278,-1088,-73,351,517,697
439,161,-278,-300,358,-58,-1605,-1961,-1556,-1215,-829,-209
287,-263,-551,-12,419,-407,-1664,-2410,-2454,-2122,-1615,-775
326,-395,-722,34,524,-558,-1566,-2337,-2679,-2366,-1839,-941
458,-356,-814,-51,636,-585,-1410,-1908,-2396,-2093,-1664,-868
556,-287,-844,-134,700,-566,-1220,-1532,-2078,-1800,-1434,-741
556,-204,-761,-175,658,-483,-966,-1166,-1673,-1454,-1166,-610
507,-165,-673,-170,590,-419,-795,-907,-1322,-1156,-936,-497
326,-73,-400,-126,363,-236,-546,-639,-868,-756,-619,-312
68,-43,-112,-12,90,-78,-239,-370,-463,-424,-361,-190
-39,-73,-34,56,-2,-53,-48,-185,-258,-263,-244,-165
-43,-92,-48,68,2,-70,9,-34,-131,-156,-165,-141
-43,-102,-58,73,7,-80,29,29,-78,-107,-126,-131
-43,-102,-58,73,7,-80,58,34,-63,-92,-112,-117
-53,-102,-48,78,-2,-75,78,43,-48,-78,-102,-112
-48,-102,-53,75,2,-78,78,53,-39,-73,-102,-112
-43,-97,-53,70,4,-75,82,73,-29,-63,-87,-102
-43,-97,-53,70,4,-75,87,82,-9,-43,-73,-92
-43,-97,-53,70,4,-75,102,87,0,-39,-63,-87
-48,-97,-48,73,0,-73,107,92,0,-34,-63,-82
-53,-97,-43,75,-4,-70,112,102,4,-29,-63,-82
-53,-102,-48,78,-2,-75,117,102,9,-24,-58,-82
-53,-107,-53,80,0,-80,117,107,19,-19,-48,-82
-58,-102,-43,80,-7,-73,117,112,29,-14,-48,-78
-58,-102,-43,80,-7,-73,122,117,29,-9,-43,-73
-53,-87,-34,70,-9,-61,126,131,34,-4,-39,-73
-53,-82,-29,68,-12,-56,126,146,43,0,-39,-73
-48,-82,-34,65,-7,-58,136,146,53,9,-34,-68
-48,-82,-34,65,-7,-58,136,151,63,14,-29,-68
-53,-82,-29,68,-12,-56,136,156,73,14,-24,-63
-58,-82,-24,70,-17,-53,141,156,78,19,-24,-63
-58,-82,-24,70,-17,-53,141,161,82,19,-24,-58
-58,-78,-19,68,-19,-48,146,170,97,24,-19,-58
-58,-78,-19,68,-19,-48,151,175,102,39,-14,-58
-58,-73,-14,65,-21,-43,151,185,117,39,-9,-53
-53,-63,-9,58,-21,-36,156,195,126,48,-4,-53
-48,-58,-9,53,-19,-34,161,204,136,58,4,-48
-48,-53,-4,51,-21,-29,165,214,151,63,14,-43
-43,-48,-4,46,-19,-26,170,224,161,68,24,-34
-48,-53,-4,51,-21,-29,175,234,175,78,24,-34
-53,-53,0,53,-26,-26,180,244,190,92,29,-29
-53,-43,9,48,-31,-17,185,253,204,102,34,-29
-53,-43,9,48,-31,-17,190,268,214,107,39,-24
-53,-39,14,46,-34,-12,200,287,229,122,53,-24
-53,-34,19,43,-36,-7,200,302,244,136,63,-14
-48,-24,24,36,-36,0,214,322,268,146,73,-9
-48,-14,34,31,-41,9,229,341,283,156,82,0
-48,-4,43,26,-46,19,234,356,302,170,92,4
-48,0,48,24,-48,24,239,375,317,190,107,4
-48,9,58,19,-53,34,248,400,336,204,117,14
-48,19,68,14,-58,43,253,414,356,219,126,19
-48,34,82,7,-65,58,258,429,380,234,131,29
-48,43,92,2,-70,68,268,444,400,258,141,34
-53,53,107,0,-80,80,273,463,424,273,156,43
-58,63,122,-2,-90,92,283,483,448,287,175,53
-58,78,136,-9,-97,107,287,497,473,307,190,63
-53,92,146,-19,-100,119,297,517,497,322,200,73
-48,122,170,-36,-109,146,297,531,522,341,214,82
-48,141,190,-46,-119,165,297,546,546,361,234,92
-53,161,214,-53,-134,187,302,561,561,380,248,107
-53,175,229,-61,-141,202,302,566,585,400,258,117
-53,190,244,-68,-148,217,302,575,600,409,268,122
-53,204,258,-75,-156,231,292,580,619,429,278,126
-53,214,268,-80,-161,241,287,580,624,434,292,141
-58,224,283,-82,-170,253,283,580,639,448,302,151
-78,239,317,-80,-197,278,278,566,649,463,307,161
-92,248,341,-78,-217,295,273,556,649,473,312,170
-92,253,346,-80,-219,300,263,541,649,473,317,175
-92,258,351,-82,-222,305,253,531,639,473,322,185
-87,268,356,-90,-222,312,234,522,634,473,326,185
-78,278,356,-100,-217,317,219,507,624,458,331,190
-78,283,361,-102,-219,322,200,478,610,453,331,190
-73,278,351,-102,-212,314,180,448,590,444,326,190
-73,268,341,-97,-207,305,161,424,561,434,312,185
-73,258,331,-92,-202,295,141,395,522,405,297,175
-68,239,307,-85,-187,273,126,356,483,380,283,170
-68,224,292,-78,-180,258,107,312,434,351,268,165
-58,209,268,-75,-163,239,87,268,385,317,248,156
-53,190,244,-68,-148,217,82,234,341,283,219,136
-43,180,224,-68,-134,202,63,195,297,253,195,126
-39,165,204,-63,-122,185,48,161,258,229,175,117
-24,136,161,-56,-92,148,34,126,204,190,141,102
-9,107,117,-48,-63,112,19,97,165,156,122,92
-4,92,97,-43,-51,95,9,73,136,131,112,78
-4,78,82,-36,-43,80,0,43,107,107,92,63
0,63,63,-31,-31,63,-9,29,82,78,73,53
0,48,48,-24,-24,48,-14,14,53,53,58,43
0,39,39,-19,-19,39,-24,-9,29,34,43,34
0,29,29,-14,-14,29,-29,-19,4,14,29,24
0,19,19,-9,-9,19,-29,-34,-9,4,14,14
4,14,9,-9,-2,12,-29,-34,-24,-4,4,14
9,9,0,-9,4,4,-29,-43,-29,-19,0,4
14,4,-9,-9,12,-2,-29,-43,-39,-24,-9,0
14,0,-14,-7,14,-7,-29,-43,-48,-24,-9,0
14,-4,-19,-4,17,-12,-29,-48,-48,-34,-19,-4
4,-19,-24,7,14,-21,-29,-48,-48,-34,-19,-4
0,-24,-24,12,12,-24,-29,-48,-53,-34,-19,-9
0,-24,-24,12,12,-24,-34,-48,-58,-39,-24,-14
0,-24,-24,12,12,-24,-34,-48,-63,-39,-29,-14
0,-24,-24,12,12,-24,-34,-48,-63,-43,-29,-14
0,-29,-29,14,14,-29,-34,-48,-63,-48,-29,-14
4,-24,-29,9,17,-26,-24,-48,-63,-48,-34,-19
14,-19,-34,2,24,-26,-19,-48,-63,-48,-39,-19
14,-19,-34,2,24,-26,-19,-48,-63,-53,-39,-19
9,-24,-34,7,21,-29,-19,-48,-63,-53,-39,-19
9,-29,-39,9,24,-34,-14,-43,-63,-58,-39,-29
4,-39,-43,17,24,-41,-14,-43,-63,-63,-43,-34
4,-43,-48,19,26,-46,-14,-48,-63,-68,-48,-34
0,-43,-43,21,21,-43,-14,-53,-58,-68,-48,-34
-4,-43,-39,24,17,-41,-14,-48,-58,-63,-43,-34
-9,-43,-34,26,12,-39,-14,-43,-58,-63,-43,-34
-4,-43,-39,24,17,-41,-9,-39,-58,-58,-48,-34
-4,-43,-39,24,17,-41,-9,-34,-58,-53,-48,-34
-4,-43,-39,24,17,-41,-9,-34,-58,-53,-48,-39
-9,-48,-39,29,14,-43,-9,-34,-58,-53,-48,-39
-9,-48,-39,29,14,-43,-9,-29,-58,-53,-48,-39
-14,-48,-34,31,9,-41,-9,-29,-53,-53,-48,-39
-14,-48,-34,31,9,-41,-9,-34,-53,-58,-48,-39
-14,-48,-34,31,9,-41,-9,-34,-53,-58,-48,-39
-14,-48,-34,31,9,-41,-9,-34,-53,-58,-48,-34
-14,-53,-39,34,12,-46,-9,-34,-53,-58,-48,-34
-19,-58,-39,39,9,-48,-4,-34,-53,-58,-53,-34
-19,-58,-39,39,9,-48,-4,-34,-53,-53,-53,-34
-19,-58,-39,39,9,-48,-4,-34,-53,-53,-53,-39
-19,-58,-39,39,9,-48,-4,-39,-53,-53,-53,-43
-19,-53,-34,36,7,-43,-4,-39,-53,-53,-53,-43
-19,-48,-29,34,4,-39,-4,-39,-53,-58,-53,-43
-19,-48,-29,34,4,-39,-9,-39,-53,-58,-53,-43
-19,-48,-29,34,4,-39,-9,-43,-53,-58,-53,-39
-19,-53,-34,36,7,-43,-9,-43,-63,-58,-53,-39
-24,-58,-34,41,4,-46,-9,-43,-63,-58,-53,-43
-24,-58,-34,41,4,-46,-9,-48,-63,-63,-53,-43
-24,-58,-34,41,4,-46,-9,-53,-63,-63,-48,-43
-24,-58,-34,41,4,-46,-14,-53,-68,-63,-48,-43
-24,-58,-34,41,4,-46,-14,-53,-68,-63,-48,-43
-24,-58,-34,41,4,-46,-14,-53,-73,-63,-53,-48
-24,-58,-34,41,4,-46,-19,-58,-73,-63,-53,-48
-24,-53,-29,39,2,-41,-19,-58,-73,-63,-58,-43
-24,-48,-24,36,0,-36,-19,-58,-73,-63,-58,-39
-19,-48,-29,34,4,-39,-14,-58,-73,-68,-58,-39
-9,-43,-34,26,12,-39,-14,-63,-73,-73,-63,-39
-9,-48,-39,29,14,-43,-14,-63,-73,-73,-63,-39
-14,-58,-43,36,14,-51,-14,-63,-73,-73,-68,-39
-14,-58,-43,36,14,-51,-19,-63,-73,-78,-68,-43
-9,-58,-48,34,19,-53,-24,-68,-78,-82,-68,-48
-9,-58,-48,34,19,-53,-24,-68,-82,-82,-68,-48
-9,-58,-48,34,19,-53,-24,-68,-82,-78,-68,-48
-14,-58,-43,36,14,-51,-24,-68,-82,-78,-68,-48
-19,-58,-39,39,9,-48,-24,-68,-82,-78,-68,-43
-19,-58,-39,39,9,-48,-24,-73,-82,-78,-68,-43
-19,-53,-34,36,7,-43,-24,-73,-82,-82,-68,-43
-19,-53,-34,36,7,-43,-24,-73,-82,-82,-68,-43
-19,-53,-34,36,7,-43,-24,-73,-82,-82,-68,-43
-19,-53,-34,36,7,-43,-24,-78,-87,-82,-68,-43
-19,-53,-34,36,7,-43,-24,-82,-87,-82,-68,-43
-19,-58,-39,39,9,-48,-24,-82,-92,-78,-63,-43
-19,-63,-43,41,12,-53,-29,-82,-92,-78,-63,-39
-19,-58,-39,39,9,-48,-39,-82,-97,-82,-63,-43
-14,-53,-39,34,12,-46,-43,-78,-97,-87,-68,-48
-14,-39,-24,26,4,-31,-43,-73,-92,-78,-63,-39
-4,-24,-19,14,7,-21,-43,-63,-73,-58,-39,-19
4,-4,-9,0,7,-7,-19,-53,-48,-39,-29,-4
14,14,0,-14,7,7,4,-48,-34,-24,-19,0
14,24,9,-19,2,17,14,-43,-14,-14,0,9
14,29,14,-21,0,21,19,-34,-9,-4,9,19
19,29,9,-24,4,19,34,-29,-4,-4,9,24
14,34,19,-24,-2,26,39,-29,0,0,9,24
29,39,9,-34,9,24,34,-24,0,0,14,24
39,43,4,-41,17,24,19,-19,0,0,19,24
48,53,4,-51,21,29,0,-24,0,4,24,34
53,58,4,-56,24,31,-9,-24,0,4,24,39
68,58,-9,-63,39,24,-34,-14,0,9,24,39
82,58,-24,-70,53,17,-48,-14,-4,4,9,39
78,48,-29,-63,53,9,-43,-29,-19,-9,4,24
58,34,-24,-46,41,4,-43,-29,-34,-19,-4,24
48,14,-34,-31,41,-9,-39,-29,-39,-29,-4,19
39,-4,-43,-17,41,-24,-34,-34,-48,-29,-19,9
24,-9,-34,-7,29,-21,-39,-43,-53,-34,-24,4
14,-14,-29,0,21,-21,-43,-53,-58,-39,-29,4
9,-9,-19,0,14,-14,-43,-58,-68,-48,-34,0
9,-9,-19,0,14,-14,-48,-68,-78,-58,-39,-9
14,-24,-39,4,26,-31,-53,-73,-87,-63,-43,-14
19,-39,-58,9,39,-48,-58,-78,-97,-68,-48,-19
24,-48,-73,12,48,-61,-63,-78,-107,-82,-58,-34
24,-63,-87,19,56,-75,-68,-87,-122,-102,-73,-43
29,-78,-107,24,68,-92,-73,-97,-141,-122,-92,-58
14,-97,-112,41,63,-104,-73,-117,-156,-141,-112,-78
4,-97,-102,46,53,-100,-63,-117,-146,-126,-112,-78
-14,-92,-78,53,31,-85,-53,-107,-131,-117,-97,-68
-24,-92,-68,58,21,-80,-48,-107,-131,-117,-97,-68
-24,-92,-68,58,21,-80,-43,-102,-126,-112,-92,-63
-24,-92,-68,58,21,-80,-43,-102,-126,-112,-92,-63
-24,-92,-68,58,21,-80,-39,-102,-126,-112,-92,-63
-29,-92,-63,61,17,-78,-39,-102,-126,-112,-92,-63
-29,-87,-58,58,14,-73,-39,-102,-122,-112,-92,-63
-29,-82,-53,56,12,-68,-39,-102,-122,-112,-92,-63
-29,-82,-53,56,12,-68,-34,-102,-122,-112,-92,-63
-34,-82,-48,58,7,-65,-34,-97,-122,-112,-92,-63
-43,-82,-39,63,-2,-61,-34,-97,-122,-112,-92,-58
-43,-82,-39,63,-2,-61,-34,-97,-122,-107,-92,-58
-43,-82,-39,63,-2,-61,-34,-97,-122,-107,-92,-58
-43,-87,-43,65,0,-65,-34,-102,-122,-107,-92,-58
-39,-92,-53,65,7,-73,-29,-102,-122,-107,-92,-58
-39,-92,-53,65,7,-73,-29,-97,-122,-107,-92,-63
-39,-92,-53,65,7,-73,-29,-97,-122,-107,-92,-63
-39,-82,-43,61,2,-63,-29,-97,-126,-107,-92,-58
-34,-78,-43,56,4,-61,-29,-102,-126,-107,-92,-58
-34,-78,-43,56,4,-61,-29,-102,-122,-102,-92,-63
-34,-78,-43,56,4,-61,-29,-97,-122,-97,-92,-63
-34,-78,-43,56,4,-61,-24,-97,-122,-97,-92,-63
-34,-82,-48,58,7,-65,-24,-97,-122,-102,-92,-63
-39,-87,-48,63,4,-68,-24,-97,-122,-107,-92,-58
-39,-87,-48,63,4,-68,-24,-97,-122,-107,-87,-58
-43,-87,-43,65,0,-65,-24,-97,-122,-107,-87,-58
-48,-82,-34,65,-7,-58,-24,-97,-117,-107,-87,-58
-48,-82,-34,65,-7,-58,-24,-102,-117,-107,-87,-58
-53,-82,-29,68,-12,-56,-19,-107,-117,-107,-87,-58
-58,-78,-19,68,-19,-48,-9,-112,-112,-112,-97,-63
-82,-87,-4,85,-39,-46,19,-136,-117,-131,-112,-82
-151,-97,53,124,-102,-21,82,-190,-141,-185,-170,-126
-219,-102,117,161,-168,7,126,-258,-161,-234,-209,-161
-302,-117,185,209,-244,34,195,-326,-161,-253,-234,-170
-356,-117,239,236,-297,61,287,-307,-122,-229,-214,-170
-341,-82,258,212,-300,87,380,-126,102,-19,-29,-63
-263,68,331,97,-297,200,419,68,444,326,283,180
-122,273,395,-75,-258,334,380,229,780,722,644,478
82,575,492,-329,-204,534,224,370,1122,1210,1127,873
366,863,497,-614,-65,680,-122,448,1283,1522,1488,1185
561,1171,610,-866,-24,890,-692,-34,1302,1751,1781,1498
575,1093,517,-834,29,805,-1137,-868,751,1224,1351,1273
566,400,-165,-483,366,117,-1424,-1429,-649,-331,-97,248
424,-4,-429,-209,427,-217,-1654,-2137,-1830,-1571,-1166,-468
307,-322,-629,7,468,-475,-1615,-2420,-2425,-2152,-1673,-844
356,-414,-771,29,563,-592,-1493,-2254,-2522,-2274,-1786,-941
497,-336,-834,-80,666,-585,-1312,-1732,-2113,-1878,-1498,-800
551,-278,-829,-136,690,-553,-1122,-1390,-1820,-1605,-1288,-678
507,-204,-712,-151,610,-458,-868,-1058,-1439,-1278,-1039,-551
424,-165,-590,-129,507,-378,-678,-790,-1088,-990,-814,-439
209,-73,-283,-68,246,-178,-409,-512,-634,-600,-502,-253
9,-63,-73,26,41,-68,-146,-273,-297,-317,-283,-156
-39,-112,-73,75,17,-92,0,-117,-161,-204,-204,-156
-39,-112,-73,75,17,-92,48,4,-58,-117,-141,-122
-34,-102,-68,68,17,-85,58,39,-29,-87,-117,-102
-39,-102,-63,70,12,-82,78,43,-19,-78,-102,-97
-53,-102,-48,78,-2,-75,87,53,-9,-68,-92,-102
-53,-107,-53,80,0,-80,87,58,0,-63,-92,-102
-53,-107,-53,80,0,-80,92,73,9,-53,-78,-92
-58,-107,-48,82,-4,-78,97,82,29,-39,-68,-87
-63,-107,-43,85,-9,-75,112,87,39,-39,-63,-87
-63,-107,-43,85,-9,-75,112,97,39,-34,-63,-82
-63,-107,-43,85,-9,-75,112,112,43,-29,-63,-82
-63,-107,-43,85,-9,-75,117,112,48,-19,-53,-82
-63,-107,-43,85,-9,-75,117,117,58,-9,-39,-82
-63,-102,-39,82,-12,-70,117,122,68,-4,-39,-73
-58,-102,-43,80,-7,-73,122,126,68,0,-34,-63
-53,-92,-39,73,-7,-65,126,136,68,0,-29,-63
-53,-92,-39,73,-7,-65,126,146,73,0,-29,-63
-48,-92,-43,70,-2,-68,136,146,82,9,-29,-63
-48,-92,-43,70,-2,-68,136,151,92,14,-29,-68
-48,-92,-43,70,-2,-68,136,161,102,14,-24,-63
-48,-92,-43,70,-2,-68,141,165,107,19,-24,-63
-48,-92,-43,70,-2,-68,141,170,112,19,-19,-58
-48,-87,-39,68,-4,-63,146,180,126,24,-9,-58
-53,-92,-39,73,-7,-65,151,190,131,39,-4,-58
-58,-92,-34,75,-12,-63,151,204,146,39,0,-53
-58,-87,-29,73,-14,-58,161,214,156,48,4,-48
-58,-87,-29,73,-14,-58,170,224,165,58,14,-39
-53,-73,-19,63,-17,-46,175,234,180,68,24,-34
-43,-58,-14,51,-14,-36,180,244,190,78,34,-24
-43,-58,-14,51,-14,-36,190,258,204,87,39,-29
-43,-53,-9,48,-17,-31,200,273,219,102,48,-29
-43,-53,-9,48,-17,-31,204,283,234,112,53,-29
-43,-63,-19,53,-12,-41,209,297,244,117,58,-24
-48,-58,-9,53,-19,-34,214,317,258,131,68,-24
-53,-53,0,53,-26,-26,209,331,273,146,73,-14
-48,-43,4,46,-26,-19,219,351,292,151,73,-9
-48,-34,14,41,-31,-9,229,370,302,156,73,0
-43,-19,24,31,-34,2,234,385,322,170,82,4
-39,-9,29,24,-34,9,239,405,336,190,97,4
-39,0,39,19,-39,19,248,429,356,209,112,19
-39,9,48,14,-43,29,253,444,375,229,126,29
-39,24,63,7,-51,43,258,468,409,244,136,39
-39,34,73,2,-56,53,268,492,439,268,151,43
-39,48,87,-4,-63,68,278,512,463,287,165,53
-39,63,102,-12,-70,82,292,531,488,307,185,63
-39,78,117,-19,-78,97,292,546,507,326,200,68
-34,92,126,-29,-80,109,297,566,527,341,209,73
-34,117,151,-41,-92,134,292,575,551,356,224,82
-39,131,170,-46,-104,151,287,585,575,370,244,92
-43,151,195,-53,-119,173,292,600,595,390,258,112
-43,165,209,-61,-126,187,292,605,624,409,268,126
-53,180,234,-63,-143,207,292,614,639,424,287,136
-63,195,258,-65,-161,226,283,619,658,448,307,146
-53,209,263,-78,-158,236,278,619,663,453,322,161
-48,224,273,-87,-161,248,273,619,678,468,331,170
-53,239,292,-92,-173,265,268,610,688,478,336,180
-53,248,302,-97,-178,275,263,605,688,483,341,190
-53,253,307,-100,-180,280,253,590,688,483,346,190
-53,258,312,-102,-183,285,244,580,678,483,351,195
-58,258,317,-100,-187,287,224,561,673,483,351,195
-58,258,317,-100,-187,287,209,536,663,468,351,200
-58,258,317,-100,-187,287,190,507,644,458,341,195
-53,248,302,-97,-178,275,170,478,619,444,326,190
-53,239,292,-92,-173,265,151,448,595,429,312,185
-53,229,283,-87,-168,256,131,414,561,395,297,175
-48,209,258,-80,-153,234,117,370,522,375,283,170
-48,195,244,-73,-146,219,97,322,473,351,268,165
-39,180,219,-70,-129,200,78,278,424,317,253,161
-34,161,195,-63,-114,178,73,244,380,283,229,146
-29,141,170,-56,-100,156,53,204,336,248,204,136
-29,117,146,-43,-87,131,39,170,297,219,185,126
-19,97,117,-39,-68,107,29,136,244,180,151,112
-9,78,87,-34,-48,82,19,107,204,146,131,102
-4,68,73,-31,-39,70,9,82,175,126,117,87
-4,58,63,-26,-34,61,0,53,146,107,92,73
0,43,43,-21,-21,43,-9,34,122,82,73,58
0,29,29,-14,-14,29,-14,14,92,63,58,43
0,14,14,-7,-7,14,-24,-4,68,39,39,34
0,0,0,0,0,0,-29,-9,43,14,19,24
0,-9,-9,4,4,-9,-29,-29,34,4,9,14
4,-14,-19,4,12,-17,-29,-34,24,-4,4,14
9,-14,-24,2,17,-19,-24,-43,19,-19,4,4
14,-14,-29,0,21,-21,-19,-43,9,-24,0,0
14,-19,-34,2,24,-26,-19,-43,0,-24,0,0
14,-24,-39,4,26,-31,-19,-48,0,-34,-9,-4
9,-34,-43,12,26,-39,-19,-48,0,-34,-9,-4
9,-34,-43,12,26,-39,-19,-48,-4,-34,-9,-9
9,-39,-48,14,29,-43,-19,-48,-9,-39,-19,-14
9,-43,-53,17,31,-48,-14,-48,-14,-39,-29,-14
4,-48,-53,21,29,-51,-14,-48,-14,-43,-29,-14
0,-58,-58,29,29,-58,-14,-48,-14,-48,-29,-14
0,-58,-58,29,29,-58,-9,-48,-14,-48,-29,-19
4,-58,-63,26,34,-61,-9,-48,-14,-48,-29,-19
4,-53,-58,24,31,-56,-9,-48,-14,-53,-29,-19
0,-53,-53,26,26,-53,-9,-48,-14,-53,-29,-19
0,-53,-53,26,26,-53,-4,-43,-14,-53,-29,-29
-4,-58,-53,31,24,-56,-4,-43,-14,-53,-34,-34
-4,-63,-58,34,26,-61,-4,-43,-14,-58,-39,-34
-9,-63,-53,36,21,-58,-4,-43,-9,-58,-39,-34
-9,-63,-53,36,21,-58,-4,-39,-9,-53,-34,-34
-9,-63,-53,36,21,-58,-4,-34,-9,-53,-34,-34
-9,-63,-53,36,21,-58,0,-34,-9,-58,-43,-34
-14,-63,-48,39,17,-56,0,-34,-9,-63,-48,-34
-14,-63,-48,39,17,-56,0,-34,-4,-63,-48,-39
-19,-68,-48,43,14,-58,0,-34,0,-63,-48,-39
-14,-68,-53,41,19,-61,0,-29,0,-53,-43,-39
-14,-68,-53,41,19,-61,0,-29,4,-43,-39,-39
-14,-63,-48,39,17,-56,0,-34,4,-43,-39,-39
-14,-58,-43,36,14,-51,0,-34,4,-39,-39,-39
-14,-58,-43,36,14,-51,0,-34,4,-43,-43,-39
-14,-63,-48,39,17,-56,0,-34,4,-48,-48,-43
-19,-68,-48,43,14,-58,0,-34,4,-53,-53,-43
-19,-68,-48,43,14,-58,-4,-34,4,-53,-53,-43
-24,-68,-43,46,9,-56,-4,-34,4,-53,-53,-48
-29,-68,-39,48,4,-53,-4,-39,4,-53,-53,-53
-29,-68,-39,48,4,-53,0,-39,4,-53,-53,-53
-29,-68,-39,48,4,-53,4,-39,4,-58,-53,-53
-24,-63,-39,43,7,-51,0,-39,9,-58,-48,-48
-19,-58,-39,39,9,-48,0,-43,14,-58,-43,-39
-19,-58,-39,39,9,-48,-4,-43,4,-58,-43,-34
-24,-58,-34,41,4,-46,-9,-43,4,-58,-43,-34
-24,-58,-34,41,4,-46,-9,-48,4,-63,-48,-34
-24,-58,-34,41,4,-46,-9,-53,4,-63,-48,-34
-24,-63,-39,43,7,-51,-9,-53,0,-63,-48,-34
-24,-68,-43,46,9,-56,-4,-53,0,-63,-48,-34
-24,-68,-43,46,9,-56,-4,-53,-4,-68,-53,-43
-24,-68,-43,46,9,-56,-9,-58,-4,-73,-53,-48
-24,-68,-43,46,9,-56,-14,-58,-4,-68,-53,-48
-24,-68,-43,46,9,-56,-19,-58,-4,-63,-48,-48
-19,-68,-48,43,14,-58,-19,-58,-4,-63,-43,-48
-9,-63,-53,36,21,-58,-24,-63,-4,-63,-43,-48
-9,-63,-53,36,21,-58,-19,-63,-4,-68,-48,-48
-14,-68,-53,41,19,-61,-14,-63,-4,-73,-58,-48
-24,-68,-43,46,9,-56,-14,-63,-4,-78,-58,-48
-29,-68,-39,48,4,-53,-14,-68,-9,-82,-58,-48
-29,-68,-39,48,4,-53,-14,-68,-14,-82,-58,-43
-29,-68,-39,48,4,-53,-14,-68,-14,-78,-58,-39
-29,-73,-43,51,7,-58,-14,-68,-14,-73,-58,-39
-29,-78,-48,53,9,-63,-14,-68,-14,-68,-58,-34
-29,-78,-48,53,9,-63,-14,-73,-14,-68,-58,-39
-29,-73,-43,51,7,-58,-14,-73,-14,-73,-58,-43
-24,-68,-43,46,9,-56,-19,-73,-14,-73,-53,-43
-19,-63,-43,41,12,-53,-24,-73,-14,-73,-48,-43
-14,-53,-39,34,12,-46,-24,-73,-14,-73,-48,-39
-9,-43,-34,26,12,-39,-24,-73,-9,-73,-48,-34
-4,-29,-24,17,9,-26,-24,-73,-4,-58,-39,-29
0,-14,-14,7,7,-14,-29,-73,4,-48,-34,-19
0,-4,-4,2,2,-4,-14,-63,24,-34,-9,-4
4,4,0,-4,2,2,4,-48,48,-19,9,9
-4,9,14,-2,-9,12,14,-43,39,-19,0,9
-4,14,19,-4,-12,17,24,-34,43,-9,9,19
0,24,24,-12,-12,24,24,-24,63,-4,19,29
4,34,29,-19,-12,31,24,-19,73,-4,29,29
19,48,29,-34,-4,39,19,-19,82,0,39,29
34,58,24,-46,4,41,9,-14,78,4,39,29
43,58,14,-51,14,36,4,-14,78,4,39,34
43,63,19,-53,12,41,-9,-19,78,9,39,34
58,58,0,-58,29,29,-14,-19,78,4,29,29
68,53,-14,-61,41,19,-29,-19,78,0,19,24
53,43,-9,-48,31,17,-43,-29,63,-9,19,29
34,29,-4,-31,19,12,-48,-34,48,-24,14,29
34,19,-14,-26,24,2,-53,-34,48,-14,14,29
29,4,-24,-17,26,-9,-48,-53,34,-24,-4,19
24,4,-19,-14,21,-7,-43,-53,24,-29,-4,14
19,9,-9,-14,14,0,-39,-58,19,-39,-9,9
9,-4,-14,-2,12,-9,-39,-68,-4,-58,-24,-4
0,-19,-19,9,9,-19,-39,-78,-29,-78,-39,-19
0,-34,-34,17,17,-34,-43,-82,-48,-78,-43,-24
4,-43,-48,19,26,-46,-53,-87,-73,-87,-53,-34
14,-58,-73,21,43,-65,-63,-92,-97,-97,-63,-43
14,-73,-87,29,51,-80,-73,-102,-131,-117,-78,-58
4,-92,-97,43,51,-95,-73,-117,-146,-136,-97,-78
-4,-97,-92,51,43,-95,-63,-117,-136,-126,-102,-78
-24,-92,-68,58,21,-80,-53,-107,-122,-117,-87,-68
-34,-92,-58,63,12,-75,-48,-107,-122,-117,-87,-68
-34,-92,-58,63,12,-75,-43,-102,-117,-112,-82,-58
-34,-92,-58,63,12,-75,-43,-102,-117,-112,-82,-53
-34,-92,-58,63,12,-75,-39,-102,-117,-112,-82,-53
-39,-92,-53,65,7,-73,-39,-102,-117,-112,-82,-53
-39,-87,-48,63,4,-68,-39,-102,-107,-112,-82,-58
-39,-82,-43,61,2,-63,-39,-102,-102,-112,-82,-63
-39,-87,-48,63,4,-68,-29,-102,-102,-112,-82,-63
-39,-92,-53,65,7,-73,-24,-97,-102,-112,-82,-63
-43,-92,-48,68,2,-70,-24,-97,-107,-112,-82,-58
-43,-92,-48,68,2,-70,-24,-97,-112,-107,-82,-58
-43,-87,-43,65,0,-65,-29,-97,-112,-102,-78,-58
-43,-82,-39,63,-2,-61,-34,-102,-112,-97,-73,-58
-39,-82,-43,61,2,-63,-29,-102,-126,-97,-73,-58
-39,-82,-43,61,2,-63,-29,-97,-141,-97,-73,-63
-39,-82,-43,61,2,-63,-29,-97,-151,-97,-78,-63
-43,-78,-34,61,-4,-56,-29,-97,-165,-97,-82,-58
-43,-78,-34,61,-4,-56,-24,-102,-165,-97,-82,-58
-43,-78,-34,61,-4,-56,-19,-102,-161,-97,-82,-63
-43,-78,-34,61,-4,-56,-19,-97,-165,-102,-82,-63
-43,-78,-34,61,-4,-56,-14,-97,-170,-107,-82,-63
-43,-78,-34,61,-4,-56,-19,-97,-170,-112,-78,-63
-48,-73,-24,61,-12,-48,-24,-97,-170,-112,-73,-58
-48,-68,-19,58,-14,-43,-24,-97,-170,-102,-68,-53
-43,-68,-24,56,-9,-46,-24,-97,-170,-97,-68,-48
-39,-68,-29,53,-4,-48,-24,-92,-165,-97,-68,-48
-39,-73,-34,56,-2,-53,-24,-87,-165,-97,-68,-48
-34,-73,-39,53,2,-56,-19,-82,-165,-87,-58,-39
-34,-73,-39,53,2,-56,-14,-78,-165,-87,-63,-34
-53,-82,-29,68,-12,-56,-4,-82,-175,-112,-82,-53
-112,-97,14,104,-63,-41,43,-117,-200,-165,-141,-102
-180,-112,68,146,-124,-21,78,-190,-229,-234,-200,-161
-258,-126,131,192,-195,2,131,-268,-239,-273,-244,-190
-336,-175,161,256,-248,-7,209,-307,-302,-356,-326,-263
-351,-185,165,268,-258,-9,292,-195,-185,-258,-248,-229
-307,-82,224,195,-265,70,390,-9,122,24,0,-43
-214,68,283,73,-248,175,419,126,414,351,302,185
-58,351,409,-146,-234,380,400,346,810,873,814,585
180,619,439,-400,-129,529,224,536,1039,1249,1215,932
429,1176,746,-802,-158,961,-287,170,1434,1976,1991,1620
483,1361,878,-922,-197,1119,-688,-556,1273,1927,2044,1771
448,683,234,-566,107,458,-1005,-1234,-161,273,492,707
297,278,-19,-287,158,129,-1342,-2074,-1420,-1098,-717,-92
82,-170,-253,43,168,-212,-1473,-2615,-2396,-2054,-1542,-688
63,-400,-463,168,263,-431,-1498,-2693,-2845,-2518,-1956,-990
292,-346,-639,26,466,-492,-1395,-2127,-2488,-2171,-1732,-893
429,-307,-736,-61,583,-522,-1259,-1722,-2225,-1922,-1542,-795
458,-224,-683,-117,570,-453,-1005,-1332,-1820,-1556,-1249,-644
448,-175,-624,-136,536,-400,-814,-1019,-1468,-1244,-1005,-517
248,-68,-317,-90,283,-192,-531,-673,-927,-771,-629,-302
48,-43,-92,-2,70,-68,-258,-370,-492,-414,-351,-175
-24,-92,-68,58,21,-80,-68,-180,-302,-258,-234,-161
-48,-102,-53,75,2,-78,29,-24,-156,-126,-131,-122
-43,-112,-68,78,12,-90,39,24,-112,-82,-102,-112
-43,-122,-78,82,17,-100,58,43,-87,-58,-82,-97
-48,-122,-73,85,12,-97,73,58,-78,-48,-73,-92
-43,-122,-78,82,17,-100,78,73,-68,-43,-73,-92
-43,-107,-63,75,9,-85,82,92,-58,-39,-58,-82
-43,-97,-53,70,4,-75,87,102,-43,-29,-48,-78
-43,-97,-53,70,4,-75,102,107,-39,-29,-43,-82
-43,-97,-53,70,4,-75,102,112,-39,-24,-43,-82
-43,-102,-58,73,7,-80,102,122,-29,-19,-43,-82
