I,II,III,aVR,aVL,aVF,V1,V2,V3,V4,V5,V6,
-39,-185,-146,112,53,-165,-19,48,-9,-68,-97,-9
-39,-185,-146,112,53,-165,-19,48,-9,-68,-97,-9
-39,-185,-146,112,53,-165,-19,48,-9,-68,-97,-9
-39,-185,-146,112,53,-165,-19,48,-9,-68,-97,-9
-39,-175,-136,107,48,-156,-19,39,-9,-68,-107,-19
-39,-175,-136,107,48,-156,-19,39,-9,-68,-107,-19
-39,-175,-136,107,48,-156,-19,39,-9,-68,-107,-19
-39,-175,-136,107,48,-156,-19,39,-9,-68,-107,-19
-39,-180,-141,109,51,-161,-19,39,-19,-78,-117,-29
-39,-185,-146,112,53,-165,-19,39,-19,-78,-117,-29
-39,-190,-151,114,56,-170,-19,39,-19,-78,-117,-29
-39,-195,-156,117,58,-175,-19,39,-19,-78,-117,-29
-39,-185,-146,112,53,-165,-29,39,-19,-68,-112,-19
-39,-185,-146,112,53,-165,-29,39,-19,-68,-107,-19
-39,-185,-146,112,53,-165,-29,39,-19,-68,-102,-19
-39,-185,-146,112,53,-165,-29,39,-19,-68,-97,-19
-48,-195,-146,122,48,-170,-19,39,-19,-78,-107,-29
-48,-195,-146,122,48,-170,-19,39,-19,-78,-107,-29
-48,-195,-146,122,48,-170,-19,39,-19,-78,-107,-29
-48,-195,-146,122,48,-170,-19,39,-19,-78,-107,-29
-39,-200,-161,119,61,-180,-14,43,-14,-68,-107,-29
-39,-204,-165,122,63,-185,-9,48,-9,-68,-107,-29
-39,-209,-170,124,65,-190,-4,53,-4,-68,-107,-29
-39,-214,-175,126,68,-195,0,58,0,-68,-107,-29
-39,-214,-175,126,68,-195,9,68,-9,-58,-97,-29
-39,-214,-175,126,68,-195,9,68,-9,-58,-97,-29
-39,-214,-175,126,68,-195,9,68,-9,-58,-97,-29
-39,-214,-175,126,68,-195,9,68,-9,-58,-97,-29
-43,-204,-161,124,58,-183,9,58,-9,-68,-107,-39
-48,-204,-156,126,53,-180,9,58,-9,-68,-107,-39
-53,-204,-151,129,48,-178,9,58,-9,-68,-107,-39
-58,-204,-146,131,43,-175,9,58,-9,-68,-107,-39
-53,-200,-146,126,46,-173,9,58,-9,-78,-107,-39
-48,-195,-146,122,48,-170,9,58,-9,-78,-107,-39
-43,-190,-146,117,51,-168,9,58,-9,-78,-107,-39
-39,-185,-146,112,53,-165,9,58,-9,-78,-107,-39
-48,-180,-131,114,41,-156,0,48,-19,-78,-117,-48
-48,-175,-126,112,39,-151,0,48,-19,-78,-117,-48
-48,-170,-122,109,36,-146,0,48,-19,-78,-117,-48
-48,-165,-117,107,34,-141,0,48,-19,-78,-117,-48
-53,-175,-122,114,34,-148,4,48,-9,-68,-107,-39
-58,-185,-126,122,34,-156,9,48,-9,-68,-107,-39
-63,-195,-131,129,34,-163,14,48,-9,-68,-107,-39
-68,-204,-136,136,34,-170,19,48,-9,-68,-107,-39
-58,-190,-131,124,36,-161,19,58,0,-68,-107,-39
-58,-185,-126,122,34,-156,19,58,0,-68,-107,-39
-58,-180,-122,119,31,-151,19,58,0,-68,-107,-39
-58,-175,-117,117,29,-146,19,58,0,-68,-107,-39
-68,-180,-112,124,21,-146,24,68,9,-68,-117,-48
-68,-185,-117,126,24,-151,29,68,9,-68,-117,-48
-68,-190,-122,129,26,-156,34,68,9,-68,-117,-48
-68,-195,-126,131,29,-161,39,68,9,-68,-117,-48
-68,-195,-126,131,29,-161,29,68,0,-68,-117,-58
-68,-195,-126,131,29,-161,29,68,0,-68,-117,-58
-68,-195,-126,131,29,-161,29,68,0,-68,-117,-58
-68,-195,-126,131,29,-161,29,68,0,-68,-117,-58
-68,-204,-136,136,34,-170,39,68,0,-78,-107,-48
-68,-204,-136,136,34,-170,39,68,0,-78,-107,-48
-68,-204,-136,136,34,-170,39,68,0,-78,-107,-48
-68,-204,-136,136,34,-170,39,68,0,-78,-107,-48
-73,-204,-131,139,29,-168,39,58,0,-68,-107,-58
-78,-204,-126,141,24,-165,39,58,0,-68,-107,-58
-82,-204,-122,143,19,-163,39,58,0,-68,-107,-58
-87,-204,-117,146,14,-161,39,58,0,-68,-107,-58
-78,-214,-136,146,29,-175,39,58,0,-78,-117,-58
-78,-214,-136,146,29,-175,39,58,0,-78,-117,-58
-78,-214,-136,146,29,-175,39,58,0,-78,-117,-58
-78,-214,-136,146,29,-175,39,58,0,-78,-117,-58
-78,-219,-141,148,31,-180,43,63,9,-68,-117,-58
-78,-224,-146,151,34,-185,48,68,9,-68,-117,-58
-78,-229,-151,153,36,-190,53,73,9,-68,-117,-58
-78,-234,-156,156,39,-195,58,78,9,-68,-117,-58
-87,-219,-131,153,21,-175,48,68,9,-58,-112,-48
-87,-214,-126,151,19,-170,48,68,9,-58,-107,-48
-87,-209,-122,148,17,-165,48,68,9,-58,-102,-48
-87,-204,-117,146,14,-161,48,68,9,-58,-97,-48
-87,-204,-117,146,14,-161,48,58,0,-68,-97,-58
-87,-204,-117,146,14,-161,48,58,0,-68,-97,-58
-87,-204,-117,146,14,-161,48,58,0,-68,-97,-58
-87,-204,-117,146,14,-161,48,58,0,-68,-97,-58
-78,-214,-136,146,29,-175,58,68,0,-78,-107,-68
-78,-214,-136,146,29,-175,58,68,0,-78,-107,-68
-78,-214,-136,146,29,-175,58,68,0,-78,-107,-68
-78,-214,-136,146,29,-175,58,68,0,-78,-107,-68
-78,-229,-151,153,36,-190,58,58,-9,-78,-117,-68
-78,-234,-156,156,39,-195,58,58,-9,-78,-117,-68
-78,-239,-161,158,41,-200,58,58,-9,-78,-117,-68
-78,-244,-165,161,43,-204,58,58,-9,-78,-117,-68
-68,-229,-161,148,46,-195,48,58,-9,-73,-112,-58
-68,-224,-156,146,43,-190,48,58,-9,-68,-107,-58
-68,-219,-151,143,41,-185,48,58,-9,-63,-102,-58
-68,-214,-146,141,39,-180,48,58,-9,-58,-97,-58
-78,-209,-131,143,26,-170,48,58,-9,-68,-97,-58
-78,-204,-126,141,24,-165,48,58,-9,-68,-97,-58
-78,-200,-122,139,21,-161,48,58,-9,-68,-97,-58
-78,-195,-117,136,19,-156,48,58,-9,-68,-97,-58
-78,-204,-126,141,24,-165,48,58,-19,-58,-87,-48
-78,-214,-136,146,29,-175,48,58,-19,-58,-87,-48
-78,-224,-146,151,34,-185,48,58,-19,-58,-87,-48
-78,-234,-156,156,39,-195,48,58,-19,-58,-87,-48
-68,-224,-156,146,43,-190,48,58,-19,-58,-82,-58
-68,-224,-156,146,43,-190,48,58,-19,-58,-78,-58
-68,-224,-156,146,43,-190,48,58,-19,-58,-73,-58
-68,-224,-156,146,43,-190,48,58,-19,-58,-68,-58
-78,-224,-146,151,34,-185,48,58,-29,-68,-78,-58
-78,-224,-146,151,34,-185,48,58,-29,-68,-78,-58
-78,-224,-146,151,34,-185,48,58,-29,-68,-78,-58
-78,-224,-146,151,34,-185,48,58,-29,-68,-78,-58
-78,-224,-146,151,34,-185,48,48,-39,-78,-78,-58
-78,-224,-146,151,34,-185,48,48,-39,-78,-78,-58
-78,-224,-146,151,34,-185,48,48,-39,-78,-78,-58
-78,-224,-146,151,34,-185,48,48,-39,-78,-78,-58
-78,-219,-141,148,31,-180,48,39,-29,-73,-73,-58
-78,-214,-136,146,29,-175,48,39,-29,-68,-68,-58
-78,-209,-131,143,26,-170,48,39,-29,-63,-63,-58
-78,-204,-126,141,24,-165,48,39,-29,-58,-58,-58
-68,-204,-136,136,34,-170,48,48,-39,-58,-48,-58
-68,-204,-136,136,34,-170,48,48,-39,-58,-48,-58
-68,-204,-136,136,34,-170,48,48,-39,-58,-48,-58
-68,-204,-136,136,34,-170,48,48,-39,-58,-48,-58
-78,-214,-136,146,29,-175,53,58,-29,-48,-48,-48
-78,-214,-136,146,29,-175,58,58,-29,-48,-48,-48
-78,-214,-136,146,29,-175,63,58,-29,-48,-48,-48
-78,-214,-136,146,29,-175,68,58,-29,-48,-48,-48
-68,-204,-136,136,34,-170,58,48,-39,-48,-39,-48
-68,-204,-136,136,34,-170,58,48,-39,-48,-39,-48
-68,-204,-136,136,34,-170,58,48,-39,-48,-39,-48
-68,-204,-136,136,34,-170,58,48,-39,-48,-39,-48
-68,-195,-126,131,29,-161,58,48,-39,-39,-34,-48
-68,-195,-126,131,29,-161,58,48,-39,-39,-29,-48
-68,-195,-126,131,29,-161,58,48,-39,-39,-24,-48
-68,-195,-126,131,29,-161,58,48,-39,-39,-19,-48
-68,-204,-136,136,34,-170,48,48,-48,-48,-24,-58
-68,-204,-136,136,34,-170,48,48,-48,-48,-29,-58
-68,-204,-136,136,34,-170,48,48,-48,-48,-34,-58
-68,-204,-136,136,34,-170,48,48,-48,-48,-39,-58
-68,-219,-151,143,41,-185,53,58,-39,-39,-29,-48
-68,-224,-156,146,43,-190,58,58,-39,-39,-29,-48
-68,-229,-161,148,46,-195,63,58,-39,-39,-29,-48
-68,-234,-165,151,48,-200,68,58,-39,-39,-29,-48
-68,-219,-151,143,41,-185,58,48,-29,-39,-19,-48
-68,-214,-146,141,39,-180,58,48,-29,-39,-19,-48
-68,-209,-141,139,36,-175,58,48,-29,-39,-19,-48
-68,-204,-136,136,34,-170,58,48,-29,-39,-19,-48
-68,-204,-136,136,34,-170,63,53,-19,-34,-14,-43
-68,-204,-136,136,34,-170,68,58,-19,-29,-9,-39
-68,-204,-136,136,34,-170,73,63,-19,-24,-4,-34
-68,-204,-136,136,34,-170,78,68,-19,-19,0,-29
-63,-185,-122,124,29,-153,87,68,-4,-4,9,-24
-58,-165,-107,112,24,-136,87,68,0,0,19,-19
-53,-146,-92,100,19,-119,87,68,4,4,29,-14
-48,-126,-78,87,14,-102,87,68,9,9,39,-9
-48,-126,-78,87,14,-102,87,68,19,19,48,0
-58,-126,-68,92,4,-97,97,73,24,19,48,0
-63,-126,-63,95,0,-95,97,73,24,19,48,0
-63,-122,-58,92,-2,-90,97,73,24,24,48,0
-48,-102,-53,75,2,-78,97,73,19,24,48,0
-48,-97,-48,73,0,-73,92,68,19,24,48,4
-48,-97,-48,73,0,-73,87,68,19,24,58,4
-39,-92,-53,65,7,-73,82,68,19,24,63,14
-29,-87,-58,58,14,-73,87,78,19,29,58,19
-19,-78,-58,48,19,-68,87,68,29,34,68,24
-14,-68,-53,41,19,-61,73,58,29,39,73,19
-9,-63,-53,36,21,-58,63,53,24,39,78,19
-9,-48,-39,29,14,-43,53,43,34,43,87,29
-9,-53,-43,31,17,-48,43,34,24,39,82,29
0,-53,-53,26,26,-53,34,34,19,39,78,29
0,-53,-53,26,26,-53,34,24,9,43,78,29
9,-43,-53,17,31,-48,19,24,4,43,87,39
14,-43,-58,14,36,-51,14,14,4,43,92,39
24,-29,-53,2,39,-41,4,14,4,43,92,43
24,-14,-39,-4,31,-26,4,14,9,43,97,48
14,-14,-29,0,21,-21,-4,9,4,39,92,43
14,-24,-39,4,26,-31,0,4,0,34,87,39
4,-29,-34,12,19,-31,14,0,-4,34,82,34
0,-29,-29,14,14,-29,14,0,-9,29,78,29
4,-43,-48,19,26,-46,24,9,0,39,73,39
9,-48,-58,19,34,-53,24,9,-4,29,78,29
4,-58,-63,26,34,-61,34,14,-9,29,78,29
9,-78,-87,34,48,-82,39,24,-9,29,82,29
0,-87,-87,43,43,-87,43,19,-19,29,78,34
0,-92,-92,46,46,-92,48,24,-19,34,78,34
0,-102,-102,51,51,-102,53,34,-19,34,73,34
0,-117,-117,58,58,-117,53,34,-29,24,68,24
-4,-126,-122,65,58,-124,43,34,-39,4,43,4
-14,-131,-117,73,51,-124,53,34,-39,4,39,-4
-19,-131,-112,75,46,-122,58,39,-39,0,39,-4
-29,-136,-107,82,39,-122,63,39,-43,0,34,-9
-43,-151,-107,97,31,-129,73,29,-58,-4,24,-24
-58,-165,-107,112,24,-136,73,29,-73,-19,14,-34
-68,-175,-107,122,19,-141,73,34,-82,-34,4,-43
-68,-190,-122,129,26,-156,78,34,-82,-43,-4,-53
-63,-204,-141,134,39,-173,78,34,-87,-48,-14,-58
-63,-200,-136,131,36,-168,78,39,-87,-48,-14,-58
-63,-195,-131,129,34,-163,78,39,-87,-43,-14,-68
-63,-195,-131,129,34,-163,82,39,-87,-43,-14,-58
-73,-209,-136,141,31,-173,92,39,-92,-39,-9,-48
-73,-224,-151,148,39,-187,87,39,-92,-39,-9,-53
-73,-244,-170,158,48,-207,87,39,-97,-39,-4,-53
-78,-263,-185,170,53,-224,87,39,-97,-39,0,-53
-68,-248,-180,158,56,-214,78,29,-102,-48,-9,-53
-68,-244,-175,156,53,-209,78,29,-102,-48,-9,-53
-68,-234,-165,151,48,-200,78,29,-102,-48,-9,-53
-68,-229,-161,148,46,-195,78,24,-102,-53,-9,-53
-68,-229,-161,148,46,-195,78,24,-107,-53,-24,-68
-63,-234,-170,148,53,-202,78,24,-112,-53,-24,-68
-63,-234,-170,148,53,-202,78,29,-117,-53,-24,-68
-63,-229,-165,146,51,-197,82,29,-122,-53,-24,-68
-63,-239,-175,151,56,-207,82,19,-122,-63,-29,-68
-68,-239,-170,153,51,-204,82,19,-122,-68,-29,-73
-68,-239,-170,153,51,-204,82,19,-122,-68,-29,-73
-63,-229,-165,146,51,-197,82,19,-122,-68,-29,-73
-63,-229,-165,146,51,-197,82,19,-126,-68,-34,-73
-63,-229,-165,146,51,-197,82,19,-126,-68,-34,-73
-63,-234,-170,148,53,-202,82,19,-131,-68,-34,-73
-63,-234,-170,148,53,-202,82,19,-131,-68,-34,-73
-63,-224,-161,143,48,-192,82,19,-117,-58,-19,-73
-63,-219,-156,141,46,-187,82,19,-117,-53,-19,-68
-63,-214,-151,139,43,-183,82,19,-112,-53,-14,-68
-63,-209,-146,136,41,-178,87,19,-112,-48,-14,-68
-53,-200,-146,126,46,-173,87,24,-122,-48,-14,-68
-53,-204,-151,129,48,-178,87,24,-117,-48,-9,-63
-53,-204,-151,129,48,-178,87,24,-117,-39,-4,-63
-53,-204,-151,129,48,-178,87,24,-117,-39,-4,-63
-63,-224,-161,143,48,-192,87,34,-112,-34,-14,-73
-63,-234,-170,148,53,-202,92,34,-112,-34,-14,-73
-63,-234,-170,148,53,-202,92,34,-112,-34,-24,-73
-63,-234,-170,148,53,-202,87,34,-112,-34,-24,-73
-43,-195,-151,119,53,-173,97,24,-122,-43,-29,-78
-43,-195,-151,119,53,-173,102,34,-112,-34,-29,-78
-63,-229,-165,146,51,-197,107,43,-122,-48,-43,-87
-87,-244,-156,165,34,-200,136,48,-117,-58,-63,-97
-107,-253,-146,180,19,-200,151,63,-107,-63,-82,-126
-122,-263,-141,192,9,-202,180,73,-107,-82,-107,-161
-141,-287,-146,214,2,-217,219,97,-92,-102,-126,-195
-151,-307,-156,229,2,-231,244,107,-97,-122,-151,-229
-180,-317,-136,248,-21,-226,278,126,-78,-122,-161,-234
-190,-326,-136,258,-26,-231,312,161,-53,-112,-161,-244
-180,-326,-146,253,-17,-236,336,190,-24,-87,-131,-219
-151,-297,-146,224,-2,-222,361,239,24,-39,-87,-185
-126,-258,-131,192,2,-195,375,268,87,24,-19,-126
-87,-136,-48,112,-19,-92,370,287,190,146,112,-19
-48,-43,4,46,-26,-19,361,287,292,258,229,92
9,82,73,-46,-31,78,326,292,385,375,370,209
82,224,141,-153,-29,183,263,263,483,502,527,356
141,326,185,-234,-21,256,209,219,517,590,649,478
248,488,239,-368,4,363,43,92,546,736,873,697
361,639,278,-500,41,458,-107,4,566,873,1049,888
517,844,326,-680,95,585,-346,-151,546,1005,1283,1112
692,1088,395,-890,148,741,-653,-361,488,1176,1551,1385
858,1268,409,-1063,224,839,-878,-483,463,1317,1756,1590
1024,1468,444,-1246,290,956,-1112,-610,463,1537,2059,1883
1156,1610,453,-1383,351,1032,-1278,-692,478,1698,2274,2093
1273,1698,424,-1485,424,1061,-1405,-732,497,1854,2459,2269
1376,1727,351,-1551,512,1039,-1527,-771,488,1976,2591,2405
1444,1712,268,-1578,588,990,-1600,-839,395,1971,2620,2454
1415,1527,112,-1471,651,819,-1698,-976,234,1820,2488,2376
1385,1293,-92,-1339,739,600,-1668,-980,107,1664,2278,2225
1263,1000,-263,-1132,763,368,-1522,-927,-24,1449,1991,2020
1078,722,-356,-900,717,183,-1332,-873,-180,1141,1629,1751
907,522,-385,-714,646,68,-1185,-873,-419,736,1244,1439
692,239,-453,-466,573,-107,-971,-810,-712,156,644,941
551,82,-468,-317,509,-192,-800,-727,-844,-156,287,629
434,-14,-448,-209,441,-231,-639,-619,-858,-312,43,390
341,-73,-414,-134,378,-244,-488,-507,-800,-375,-97,209
287,-82,-370,-102,329,-226,-405,-434,-712,-326,-117,146
219,-107,-326,-56,273,-217,-287,-312,-541,-229,-97,107
161,-92,-253,-34,207,-173,-190,-239,-429,-161,-73,63
122,-78,-200,-21,161,-139,-107,-161,-326,-122,-68,24
73,-82,-156,4,114,-119,-29,-82,-244,-73,-58,-19
29,-126,-156,48,92,-141,34,-29,-175,-48,-58,-48
-14,-161,-146,87,65,-153,92,19,-136,-39,-58,-87
-43,-190,-146,117,51,-168,126,48,-107,-29,-68,-102
-58,-229,-170,143,56,-200,161,73,-82,-19,-68,-117
-73,-253,-180,163,53,-217,200,107,-53,-14,-68,-131
-68,-234,-165,151,48,-200,214,117,-53,4,-58,-126
-78,-209,-131,143,26,-170,209,102,-53,-14,-63,-146
-92,-200,-107,146,7,-153,209,92,-58,-34,-68,-151
-92,-204,-112,148,9,-158,214,97,-53,-34,-73,-151
-97,-209,-112,153,7,-161,209,102,-53,-34,-78,-151
-97,-209,-112,153,7,-161,204,107,-53,-34,-82,-156
-97,-224,-126,161,14,-175,214,117,-43,-24,-73,-146
-97,-229,-131,163,17,-180,219,117,-34,-24,-73,-146
-97,-229,-131,163,17,-180,224,117,-34,-19,-73,-146
-97,-234,-136,165,19,-185,224,122,-34,-19,-73,-146
-97,-229,-131,163,17,-180,234,122,-34,-29,-73,-146
-107,-244,-136,175,14,-190,234,122,-34,-34,-73,-141
-97,-244,-146,170,24,-195,234,126,-34,-34,-68,-141
-97,-244,-146,170,24,-195,239,126,-29,-29,-68,-141
-97,-253,-156,175,29,-204,239,141,-29,-29,-78,-146
-97,-248,-151,173,26,-200,244,141,-29,-29,-78,-146
-102,-248,-146,175,21,-197,244,141,-24,-29,-78,-151
-102,-244,-141,173,19,-192,244,141,-24,-24,-78,-151
-97,-234,-136,165,19,-185,239,136,-34,-24,-63,-151
-97,-234,-136,165,19,-185,239,136,-29,-24,-63,-151
-97,-234,-136,165,19,-185,234,131,-29,-24,-63,-151
-102,-234,-131,168,14,-183,229,126,-29,-24,-63,-141
-102,-234,-131,168,14,-183,239,141,-14,-34,-63,-141
-102,-234,-131,168,14,-183,239,141,-9,-29,-58,-141
-102,-234,-131,168,14,-183,244,141,-9,-24,-58,-136
-107,-234,-126,170,9,-180,244,141,-4,-24,-58,-136
-117,-229,-112,173,-2,-170,244,131,-14,-39,-68,-146
-117,-229,-112,173,-2,-170,244,131,-14,-39,-68,-151
-112,-229,-117,170,2,-173,248,136,-9,-39,-68,-151
-112,-229,-117,170,2,-173,248,136,-4,-34,-68,-146
-112,-234,-122,173,4,-178,258,151,4,-24,-68,-146
-112,-244,-131,178,9,-187,263,151,4,-24,-63,-146
-112,-248,-136,180,12,-192,263,151,9,-24,-63,-146
-112,-253,-141,183,14,-197,263,151,9,-24,-63,-146
-122,-253,-131,187,4,-192,258,141,0,-24,-63,-136
-122,-248,-126,185,2,-187,253,141,0,-24,-63,-141
-122,-248,-126,185,2,-187,248,141,0,-24,-63,-141
-126,-248,-122,187,-2,-185,244,141,0,-24,-63,-141
-117,-239,-122,178,2,-180,244,146,9,-34,-73,-151
-117,-248,-131,183,7,-190,244,151,14,-34,-73,-151
-117,-248,-131,183,7,-190,244,151,14,-34,-73,-151
-117,-244,-126,180,4,-185,244,151,19,-29,-73,-151
-107,-229,-122,168,7,-175,258,151,19,-24,-68,-146
-102,-229,-126,165,12,-178,258,156,24,-19,-63,-141
-102,-234,-131,168,14,-183,263,161,29,-9,-53,-136
-102,-234,-131,168,14,-183,263,161,29,-4,-48,-126
-102,-224,-122,163,9,-173,263,165,24,-14,-53,-131
-102,-224,-122,163,9,-173,263,165,24,-9,-58,-136
-102,-224,-122,163,9,-173,273,170,24,-9,-58,-136
-102,-219,-117,161,7,-168,273,175,34,0,-58,-141
-112,-219,-107,165,-2,-163,263,180,43,0,-58,-136
-112,-219,-107,165,-2,-163,263,180,48,0,-58,-136
-112,-209,-97,161,-7,-153,263,180,48,0,-58,-136
-112,-204,-92,158,-9,-148,263,185,48,0,-63,-146
-102,-214,-112,158,4,-163,268,195,53,0,-73,-146
-102,-219,-117,161,7,-168,278,200,53,9,-73,-146
-102,-229,-126,165,12,-178,278,204,63,14,-68,-146
-107,-244,-136,175,14,-190,283,209,68,14,-68,-146
-107,-229,-122,168,7,-175,283,214,73,14,-68,-141
-102,-214,-112,158,4,-163,287,219,82,14,-63,-141
-102,-209,-107,156,2,-158,292,224,87,14,-63,-141
-102,-214,-112,158,4,-163,292,229,92,14,-63,-141
-112,-224,-112,168,0,-168,292,224,97,24,-48,-136
-112,-229,-117,170,2,-173,297,224,102,24,-48,-136
-112,-219,-107,165,-2,-163,297,234,102,29,-48,-136
-112,-209,-97,161,-7,-153,297,234,107,34,-43,-136
-102,-195,-92,148,-4,-143,302,248,126,43,-43,-136
-102,-190,-87,146,-7,-139,302,253,136,48,-39,-136
-102,-185,-82,143,-9,-134,312,258,141,48,-39,-131
-97,-190,-92,143,-2,-141,317,273,151,53,-34,-131
-102,-190,-87,146,-7,-139,312,278,156,53,-34,-131
-107,-200,-92,153,-7,-146,312,283,161,63,-34,-131
-117,-200,-82,158,-17,-141,317,287,175,68,-24,-126
-122,-200,-78,161,-21,-139,322,292,185,73,-19,-126
-112,-195,-82,153,-14,-139,336,317,209,92,-14,-112
-107,-195,-87,151,-9,-141,346,322,219,97,-14,-112
-102,-185,-82,143,-9,-134,346,326,229,107,-14,-107
-97,-180,-82,139,-7,-131,346,336,234,112,-4,-102
-107,-175,-68,141,-19,-122,366,356,248,117,0,-107
-102,-175,-73,139,-14,-124,375,366,258,126,4,-107
-102,-180,-78,141,-12,-129,385,375,268,131,0,-107
-102,-175,-73,139,-14,-124,390,385,283,141,0,-102
-102,-161,-58,131,-21,-109,390,385,292,146,14,-102
-102,-151,-48,126,-26,-100,390,395,302,151,14,-97
-102,-151,-48,126,-26,-100,390,405,317,161,14,-92
-102,-161,-58,131,-21,-109,390,414,326,170,24,-92
-112,-146,-34,129,-39,-90,390,414,341,170,39,-92
-112,-131,-19,122,-46,-75,395,429,356,180,48,-87
-107,-117,-9,112,-48,-63,400,434,370,190,48,-87
-107,-112,-4,109,-51,-58,405,448,380,200,58,-82
-102,-102,0,102,-51,-51,419,458,409,219,63,-73
-92,-87,4,90,-48,-41,419,458,414,229,73,-68
-87,-78,9,82,-48,-34,419,463,434,239,82,-63
-82,-63,19,73,-51,-21,424,468,439,248,87,-58
-87,-53,34,70,-61,-9,429,483,468,258,92,-43
-87,-53,34,70,-61,-9,434,492,478,268,107,-39
-87,-53,34,70,-61,-9,434,492,492,278,117,-34
-87,-53,34,70,-61,-9,434,502,502,287,122,-29
-92,-29,63,61,-78,17,424,497,507,292,117,-24
-92,-19,73,56,-82,26,424,502,527,302,131,-9
-87,-4,82,46,-85,39,429,512,536,312,146,-4
-87,14,102,36,-95,58,429,512,551,326,151,0
-87,14,102,36,-95,58,439,527,570,346,170,14
-82,24,107,29,-95,65,439,531,580,356,180,24
-82,19,102,31,-92,61,439,531,590,370,195,34
-73,19,92,26,-82,56,434,531,600,380,204,43
-82,24,107,29,-95,65,434,531,610,390,229,58
-87,24,112,31,-100,68,429,522,614,395,234,73
-87,34,122,26,-104,78,424,517,619,405,244,87
-82,39,122,21,-102,80,414,512,629,405,258,97
-78,68,146,4,-112,107,405,492,624,409,263,92
-78,82,161,-2,-119,122,390,488,614,405,268,97
-78,97,175,-9,-126,136,375,473,610,400,263,102
-68,117,185,-24,-126,151,361,463,600,400,258,107
-53,117,170,-31,-112,143,346,463,595,409,273,107
-48,136,185,-43,-117,161,341,453,595,409,278,117
-43,136,180,-46,-112,158,331,439,585,419,287,126
-43,136,180,-46,-112,158,322,429,585,429,302,136
-53,131,185,-39,-119,158,302,424,580,419,312,151
-48,126,175,-39,-112,151,292,409,570,419,322,161
-48,136,185,-43,-117,161,278,390,556,419,326,165
-39,136,175,-48,-107,156,263,370,551,414,331,180
-48,126,175,-39,-112,151,258,361,551,414,336,170
-39,131,170,-46,-104,151,244,341,536,409,336,180
-34,136,170,-51,-102,153,229,322,517,405,336,190
-29,136,165,-53,-97,151,214,307,502,405,336,190
-29,146,175,-58,-102,161,209,297,478,375,336,200
-29,141,170,-56,-100,156,195,278,458,370,336,200
-24,136,161,-56,-92,148,180,263,439,356,331,195
-19,131,151,-56,-85,141,165,244,414,346,331,195
-14,131,146,-58,-80,139,151,224,380,326,317,175
-9,122,131,-56,-70,126,136,209,351,312,302,170
-4,117,122,-56,-63,119,131,190,326,287,287,161
0,107,107,-53,-53,107,122,180,307,273,268,151
9,102,92,-56,-41,97,102,165,278,253,268,151
9,78,68,-43,-29,73,92,151,258,239,258,141
9,68,58,-39,-24,63,92,136,234,219,239,136
9,58,48,-34,-19,53,87,126,209,204,224,122
0,43,43,-21,-21,43,78,122,190,170,200,112
-4,34,39,-14,-21,36,73,107,161,156,185,92
-4,19,24,-7,-14,21,68,102,141,136,170,87
-9,9,19,0,-14,14,58,87,122,122,156,68
-9,0,9,4,-9,4,68,82,117,112,131,63
-14,-24,-9,19,-2,-17,68,82,97,102,126,53
-19,-48,-29,34,4,-39,63,78,78,87,107,43
-19,-53,-34,36,7,-43,63,78,58,73,87,34
-19,-53,-34,36,7,-43,53,78,39,58,82,29
-19,-63,-43,41,12,-53,48,73,24,53,82,19
-24,-78,-53,51,14,-65,48,68,19,39,73,9
-29,-87,-58,58,14,-73,48,68,0,29,63,-4
-19,-92,-73,56,26,-82,58,73,0,24,48,-14
-19,-102,-82,61,31,-92,58,68,-9,19,43,-14
-24,-107,-82,65,29,-95,58,68,-14,14,43,-19
-29,-107,-78,68,24,-92,58,63,-24,4,34,-29
-29,-112,-82,70,26,-97,48,53,-24,-4,24,-24
-29,-117,-87,73,29,-102,48,48,-29,-4,19,-29
-34,-117,-82,75,24,-100,48,48,-43,-9,14,-34
-34,-122,-87,78,26,-104,48,48,-43,-14,9,-39
-29,-112,-82,70,26,-97,48,48,-58,-29,-4,-53
-29,-117,-87,73,29,-102,48,48,-58,-34,-4,-58
-29,-122,-92,75,31,-107,48,48,-58,-34,-9,-58
-29,-126,-97,78,34,-112,48,48,-58,-39,-14,-58
-29,-146,-117,87,43,-131,58,48,-53,-29,-4,-48
-34,-151,-117,92,41,-134,58,48,-53,-29,-9,-48
-34,-161,-126,97,46,-143,58,48,-58,-29,-9,-48
-34,-165,-131,100,48,-148,58,48,-58,-29,-14,-53
-34,-156,-122,95,43,-139,48,48,-63,-29,-14,-53
-34,-156,-122,95,43,-139,48,43,-63,-29,-19,-53
-34,-161,-126,97,46,-143,48,43,-63,-34,-19,-58
-34,-161,-126,97,46,-143,48,48,-63,-34,-19,-58
-34,-156,-122,95,43,-139,39,48,-73,-43,-24,-68
-34,-151,-117,92,41,-134,43,48,-73,-43,-24,-68
-34,-151,-117,92,41,-134,43,48,-73,-43,-24,-68
-34,-146,-112,90,39,-129,43,48,-73,-43,-24,-68
-34,-141,-107,87,36,-124,34,39,-73,-58,-39,-73
-34,-136,-102,85,34,-119,34,39,-73,-63,-43,-73
-39,-131,-92,85,26,-112,34,39,-82,-63,-43,-73
-39,-131,-92,85,26,-112,29,39,-82,-63,-48,-78
-39,-151,-112,95,36,-131,34,43,-78,-48,-58,-78
-39,-156,-117,97,39,-136,43,48,-78,-48,-58,-73
-39,-156,-117,97,39,-136,48,53,-78,-48,-58,-73
-34,-161,-126,97,46,-143,53,63,-78,-48,-53,-73
-34,-170,-136,102,51,-153,58,53,-73,-58,-53,-73
-34,-170,-136,102,51,-153,58,53,-73,-63,-53,-82
-34,-170,-136,102,51,-153,58,53,-78,-63,-53,-82
-34,-165,-131,100,48,-148,58,53,-78,-63,-58,-78
-24,-165,-141,95,58,-153,58,53,-68,-58,-48,-68
-24,-165,-141,95,58,-153,58,53,-73,-53,-48,-68
-24,-165,-141,95,58,-153,58,53,-73,-48,-48,-68
-29,-175,-146,102,58,-161,58,53,-68,-43,-48,-68
-29,-161,-131,95,51,-146,48,53,-78,-48,-58,-78
-24,-151,-126,87,51,-139,48,53,-73,-53,-53,-78
-24,-146,-122,85,48,-134,48,53,-73,-53,-53,-78
-29,-141,-112,85,41,-126,48,53,-73,-58,-53,-78
-29,-131,-102,80,36,-117,48,53,-82,-58,-48,-78
-29,-131,-102,80,36,-117,53,53,-73,-48,-48,-78
-29,-136,-107,82,39,-122,53,58,-73,-48,-48,-73
-29,-141,-112,85,41,-126,53,58,-73,-48,-48,-73
-34,-156,-122,95,43,-139,63,68,-73,-58,-63,-82
-34,-161,-126,97,46,-143,63,68,-73,-63,-63,-87
-34,-156,-122,95,43,-139,63,68,-73,-63,-63,-87
-39,-161,-122,100,41,-141,63,68,-73,-63,-63,-82
-39,-165,-126,102,43,-146,53,58,-73,-63,-73,-92
-39,-165,-126,102,43,-146,58,58,-68,-63,-73,-97
-39,-165,-126,102,43,-146,58,58,-68,-63,-73,-97
-43,-170,-126,107,41,-148,58,58,-68,-63,-78,-102
-34,-180,-146,107,56,-163,63,58,-78,-63,-78,-92
-34,-180,-146,107,56,-163,63,58,-78,-63,-78,-92
-34,-180,-146,107,56,-163,63,58,-78,-63,-73,-92
-39,-180,-141,109,51,-161,63,58,-78,-73,-73,-92
-48,-180,-131,114,41,-156,53,58,-68,-73,-73,-92
-48,-180,-131,114,41,-156,53,58,-68,-73,-73,-92
-48,-180,-131,114,41,-156,58,58,-73,-73,-78,-92
-48,-175,-126,112,39,-151,58,53,-73,-73,-78,-92
-48,-165,-117,107,34,-141,58,53,-73,-73,-78,-92
-58,-170,-112,114,26,-141,58,53,-73,-73,-78,-92
-58,-170,-112,114,26,-141,58,53,-73,-73,-78,-92
-53,-170,-117,112,31,-143,58,53,-68,-73,-78,-92
-53,-161,-107,107,26,-134,58,53,-68,-73,-82,-102
-53,-156,-102,104,24,-129,53,53,-68,-73,-82,-102
-63,-156,-92,109,14,-124,53,53,-73,-73,-82,-102
-63,-156,-92,109,14,-124,53,53,-73,-73,-82,-102
-48,-170,-122,109,36,-146,53,53,-63,-73,-82,-102
-48,-170,-122,109,36,-146,53,53,-58,-73,-82,-102
-48,-170,-122,109,36,-146,58,53,-58,-73,-82,-102
-58,-180,-122,119,31,-151,58,53,-58,-73,-82,-102
-58,-170,-112,114,26,-141,48,53,-58,-73,-87,-107
-58,-165,-107,112,24,-136,48,53,-58,-73,-92,-112
-58,-165,-107,112,24,-136,48,53,-58,-78,-97,-112
-58,-165,-107,112,24,-136,53,58,-58,-78,-97,-112
-58,-156,-97,107,19,-126,53,48,-68,-78,-92,-112
-58,-161,-102,109,21,-131,53,48,-68,-78,-92,-112
-58,-161,-102,109,21,-131,58,48,-68,-78,-97,-112
-58,-161,-102,109,21,-131,58,48,-68,-78,-97,-112
-68,-170,-102,119,17,-136,43,48,-58,-87,-107,-112
-68,-170,-102,119,17,-136,43,48,-63,-87,-107,-112
-68,-170,-102,119,17,-136,43,48,-63,-87,-107,-112
-68,-170,-102,119,17,-136,43,43,-63,-87,-107,-112
-58,-180,-122,119,31,-151,48,43,-63,-97,-117,-126
-58,-175,-117,117,29,-146,48,43,-63,-87,-117,-126
-48,-175,-126,112,39,-151,48,43,-63,-87,-112,-122
-48,-175,-126,112,39,-151,48,43,-63,-87,-112,-122
-58,-180,-122,119,31,-151,39,43,-73,-87,-112,-112
-63,-180,-117,122,26,-148,39,39,-73,-87,-112,-107
-63,-180,-117,122,26,-148,39,39,-73,-87,-112,-107
-68,-170,-102,119,17,-136,39,34,-73,-92,-112,-112
-58,-161,-102,109,21,-131,29,34,-68,-87,-107,-112
-63,-161,-97,112,17,-129,29,39,-68,-87,-107,-117
-63,-161,-97,112,17,-129,29,39,-68,-82,-107,-117
-63,-165,-102,114,19,-134,29,39,-68,-82,-107,-112
-48,-156,-107,102,29,-131,29,39,-73,-82,-117,-122
-43,-151,-107,97,31,-129,34,39,-73,-87,-117,-122
-43,-151,-107,97,31,-129,34,39,-78,-92,-122,-122
-48,-151,-102,100,26,-126,29,39,-78,-102,-122,-122
-58,-161,-102,109,21,-131,34,39,-82,-102,-126,-131
-68,-170,-102,119,17,-136,34,34,-82,-102,-126,-131
-58,-161,-102,109,21,-131,29,34,-82,-102,-126,-131
-53,-161,-107,107,26,-134,29,34,-82,-102,-126,-131
-53,-175,-122,114,34,-148,29,43,-73,-92,-117,-126
-53,-180,-126,117,36,-153,29,43,-73,-92,-117,-122
-53,-185,-131,119,39,-158,34,43,-78,-92,-117,-117
-53,-190,-136,122,41,-163,34,43,-78,-97,-117,-112
-53,-180,-126,117,36,-153,24,39,-78,-97,-126,-122
-53,-180,-126,117,36,-153,19,39,-78,-97,-126,-122
-48,-180,-131,114,41,-156,19,39,-78,-97,-126,-122
-48,-180,-131,114,41,-156,19,39,-78,-97,-126,-122
-48,-180,-131,114,41,-156,19,39,-78,-87,-117,-112
-48,-185,-136,117,43,-161,19,39,-78,-87,-112,-112
-53,-190,-136,122,41,-163,14,34,-78,-87,-112,-112
-53,-190,-136,122,41,-163,14,34,-78,-87,-117,-107
-58,-175,-117,117,29,-146,4,29,-68,-97,-126,-117
-58,-170,-112,114,26,-141,4,29,-68,-97,-126,-117
-58,-165,-107,112,24,-136,9,24,-68,-102,-122,-117
-58,-161,-102,109,21,-131,9,24,-68,-107,-122,-122
-48,-161,-112,104,31,-136,9,19,-73,-97,-117,-112
-48,-161,-112,104,31,-136,9,19,-73,-92,-117,-107
-53,-170,-117,112,31,-143,9,24,-73,-87,-117,-107
-53,-175,-122,114,34,-148,4,24,-73,-87,-117,-107
-63,-175,-112,119,24,-143,14,24,-73,-97,-131,-117
-63,-170,-107,117,21,-139,14,24,-73,-102,-136,-117
-63,-161,-97,112,17,-129,14,24,-73,-107,-146,-126
-63,-175,-112,119,24,-143,14,24,-73,-112,-151,-126
-53,-165,-112,109,29,-139,4,24,-73,-112,-141,-131
-48,-165,-117,107,34,-141,4,24,-73,-112,-141,-131
-48,-165,-117,107,34,-141,9,24,-73,-112,-136,-131
-43,-161,-117,102,36,-139,9,24,-73,-112,-131,-126
-43,-165,-122,104,39,-143,14,34,-63,-102,-122,-122
-43,-170,-126,107,41,-148,9,29,-68,-107,-126,-117
-43,-180,-136,112,46,-158,9,24,-68,-107,-126,-112
-43,-185,-141,114,48,-163,9,24,-68,-102,-126,-107
-43,-195,-151,119,53,-173,9,19,-68,-102,-136,-117
-43,-195,-151,119,53,-173,9,19,-68,-102,-136,-117
-43,-190,-146,117,51,-168,9,19,-68,-102,-136,-117
-43,-180,-136,112,46,-158,4,19,-68,-102,-136,-117
-43,-190,-146,117,51,-168,14,29,-58,-102,-126,-107
-43,-200,-156,122,56,-178,14,24,-58,-102,-126,-102
-43,-204,-161,124,58,-183,14,24,-58,-102,-126,-102
-43,-204,-161,124,58,-183,9,24,-58,-102,-126,-102
-43,-204,-161,124,58,-183,9,34,-63,-102,-126,-107
-43,-204,-161,124,58,-183,9,34,-63,-102,-126,-102
-43,-200,-156,122,56,-178,9,34,-58,-102,-126,-102
-39,-190,-151,114,56,-170,9,34,-58,-102,-126,-102
-48,-180,-131,114,41,-156,0,29,-58,-107,-126,-107
-48,-180,-131,114,41,-156,0,24,-58,-112,-131,-107
-48,-180,-131,114,41,-156,0,19,-58,-112,-131,-112
-48,-180,-131,114,41,-156,0,14,-53,-117,-131,-117
-48,-185,-136,117,43,-161,9,29,-43,-112,-126,-107
-43,-190,-146,117,51,-168,9,29,-43,-112,-126,-107
-43,-185,-141,114,48,-163,9,29,-43,-112,-126,-102
-39,-190,-151,114,56,-170,14,29,-43,-107,-122,-102
-34,-204,-170,119,68,-187,14,29,-43,-112,-126,-97
-34,-204,-170,119,68,-187,19,29,-43,-107,-126,-102
-34,-204,-170,119,68,-187,19,29,-43,-107,-131,-112
-48,-204,-156,126,53,-180,24,29,-43,-107,-131,-117
-39,-180,-141,109,51,-161,19,19,-48,-102,-122,-102
-39,-170,-131,104,46,-151,9,24,-39,-102,-117,-97
-39,-161,-122,100,41,-141,4,24,-34,-102,-117,-97
-39,-151,-112,95,36,-131,0,24,-34,-102,-117,-92
-34,-122,-87,78,26,-104,0,14,-24,-92,-107,-102
-19,-97,-78,58,29,-87,9,29,-9,-87,-107,-97
-19,-97,-78,58,29,-87,19,29,4,-82,-92,-82
-19,-97,-78,58,29,-87,19,29,9,-78,-87,-78
-19,-97,-78,58,29,-87,19,29,14,-73,-82,-73
-19,-97,-78,58,29,-87,19,29,19,-68,-78,-68
-29,-112,-82,70,26,-97,29,34,34,-68,-78,-78
-34,-117,-82,75,24,-100,29,34,34,-68,-78,-78
-34,-117,-82,75,24,-100,29,34,34,-63,-78,-78
-19,-112,-92,65,36,-102,29,34,39,-63,-78,-78
-19,-107,-87,63,34,-97,24,39,48,-53,-78,-63
-19,-107,-87,63,34,-97,19,39,48,-53,-68,-63
-9,-102,-92,56,41,-97,14,39,48,-53,-63,-53
0,-82,-82,41,41,-82,14,39,58,-39,-58,-43
9,-58,-68,24,39,-63,0,29,58,-39,-58,-39
14,-34,-48,9,31,-41,-19,19,58,-39,-53,-43
19,-14,-34,-2,26,-24,-34,14,53,-43,-48,-43
19,4,-14,-12,17,-4,-43,4,53,-48,-48,-48
19,-9,-29,-4,24,-19,-53,-14,43,-58,-53,-48
29,-19,-48,-4,39,-34,-63,-14,39,-63,-58,-48
29,-29,-58,0,43,-43,-63,-24,29,-63,-58,-48
39,-34,-73,-2,56,-53,-78,-24,24,-63,-58,-48
34,-24,-58,-4,46,-41,-73,-34,24,-63,-53,-39
43,-9,-53,-17,48,-31,-82,-34,24,-63,-53,-34
43,4,-39,-24,41,-17,-82,-34,29,-63,-48,-29
43,4,-39,-24,41,-17,-82,-34,29,-63,-48,-29
43,-4,-48,-19,46,-26,-78,-24,29,-53,-39,-29
34,-9,-43,-12,39,-26,-63,-24,29,-48,-39,-29
29,-9,-39,-9,34,-24,-63,-19,29,-48,-39,-29
29,-14,-43,-7,36,-29,-63,-19,29,-48,-48,-29
19,-24,-43,2,31,-34,-53,-19,24,-48,-39,-29
9,-39,-48,14,29,-43,-43,-14,19,-48,-43,-29
9,-63,-73,26,41,-68,-39,-4,19,-48,-43,-29
9,-78,-87,34,48,-82,-34,0,19,-48,-39,-24
24,-78,-102,26,63,-90,-39,4,29,-43,-39,-24
29,-82,-112,26,70,-97,-34,14,29,-43,-43,-24
34,-92,-126,29,80,-109,-34,14,19,-53,-48,-34
24,-102,-126,39,75,-114,-34,14,9,-63,-63,-43
4,-102,-107,48,56,-104,-14,14,0,-73,-78,-63
0,-107,-107,53,53,-107,-9,19,0,-78,-78,-63
-9,-117,-107,63,48,-112,-4,19,-4,-78,-82,-68
-14,-131,-117,73,51,-124,-4,9,-9,-82,-92,-82
-29,-136,-107,82,39,-122,-14,0,-34,-87,-102,-82
-39,-146,-107,92,34,-126,-14,4,-43,-102,-112,-92
-39,-161,-122,100,41,-141,-9,4,-43,-112,-122,-102
-43,-180,-136,112,46,-158,0,4,-48,-117,-131,-107
-43,-180,-136,112,46,-158,9,19,-48,-107,-122,-107
-43,-180,-136,112,46,-158,9,19,-48,-102,-122,-117
-43,-185,-141,114,48,-163,14,19,-48,-102,-122,-107
-43,-185,-141,114,48,-163,14,19,-53,-107,-122,-107
-43,-185,-141,114,48,-163,0,9,-53,-112,-126,-112
-43,-190,-146,117,51,-168,0,9,-58,-117,-126,-112
-48,-195,-146,122,48,-170,0,9,-58,-122,-126,-112
-48,-195,-146,122,48,-170,0,9,-63,-126,-126,-112
-48,-204,-156,126,53,-180,0,19,-63,-117,-126,-122
-48,-209,-161,129,56,-185,0,19,-63,-117,-126,-122
-48,-219,-170,134,61,-195,0,14,-63,-122,-126,-122
-48,-239,-190,143,70,-214,0,14,-63,-122,-131,-126
-43,-229,-185,136,70,-207,0,14,-53,-112,-122,-117
-43,-224,-180,134,68,-202,0,19,-53,-112,-122,-117
-43,-214,-170,129,63,-192,4,19,-53,-112,-122,-117
-43,-209,-165,126,61,-187,4,19,-53,-112,-126,-117
-48,-204,-156,126,53,-180,-4,9,-58,-126,-136,-131
-48,-200,-151,124,51,-175,-4,9,-63,-126,-136,-131
-43,-185,-141,114,48,-163,-4,9,-68,-126,-136,-131
-43,-180,-136,112,46,-158,-4,9,-78,-126,-141,-131
-53,-190,-136,122,41,-163,4,9,-68,-117,-131,-122
-53,-195,-141,124,43,-168,4,9,-73,-117,-131,-122
-53,-195,-141,124,43,-168,4,9,-73,-117,-131,-122
-53,-200,-146,126,46,-173,4,9,-68,-117,-126,-122
-43,-195,-151,119,53,-173,4,9,-68,-112,-126,-107
-43,-190,-146,117,51,-168,4,9,-63,-112,-122,-107
-43,-185,-141,114,48,-163,9,9,-63,-107,-122,-107
-43,-180,-136,112,46,-158,9,14,-63,-107,-122,-107
-43,-195,-151,119,53,-173,9,14,-68,-117,-117,-112
-43,-195,-151,119,53,-173,9,14,-68,-107,-112,-112
-43,-195,-151,119,53,-173,9,14,-68,-107,-112,-112
-43,-195,-151,119,53,-173,9,14,-63,-112,-112,-112
-53,-204,-151,129,48,-178,14,14,-53,-112,-112,-112
-53,-195,-141,124,43,-168,14,14,-53,-112,-122,-112
-53,-185,-131,119,39,-158,9,14,-53,-112,-122,-112
-53,-185,-131,119,39,-158,9,14,-53,-112,-117,-117
-34,-195,-161,114,63,-178,14,14,-53,-102,-117,-117
-53,-180,-126,117,36,-153,39,24,-53,-107,-122,-126
-58,-185,-126,122,34,-156,58,39,-48,-117,-122,-136
-78,-224,-146,151,34,-185,73,53,-39,-122,-151,-156
-112,-253,-141,183,14,-197,102,63,-48,-151,-185,-200
-131,-268,-136,200,2,-202,131,78,-34,-170,-204,-224
-151,-268,-117,209,-17,-192,165,97,-29,-180,-229,-258
-161,-268,-107,214,-26,-187,190,107,-19,-190,-239,-273
-170,-258,-87,214,-41,-173,214,131,4,-180,-229,-273
-190,-278,-87,234,-51,-183,248,170,34,-156,-200,-258
-170,-268,-97,219,-36,-183,273,200,73,-126,-175,-234
-117,-190,-73,153,-21,-131,278,239,156,-24,-78,-156
-78,-117,-39,97,-19,-78,292,278,258,68,24,-68
-39,-34,4,36,-21,-14,283,287,370,190,151,63
9,82,73,-46,-31,78,258,292,483,326,312,200
63,175,112,-119,-24,143,234,273,551,424,429,307
151,317,165,-234,-7,241,112,190,595,551,610,488
258,458,200,-358,29,329,4,112,634,678,775,649
380,658,278,-519,51,468,-195,-14,644,805,971,849
546,893,346,-719,100,619,-463,-190,605,936,1195,1083
673,1068,395,-871,139,732,-683,-351,546,1058,1395,1278
888,1307,419,-1098,234,863,-1005,-522,531,1278,1708,1590
1044,1468,424,-1256,309,946,-1190,-610,531,1449,1922,1815
1185,1610,424,-1398,380,1017,-1366,-683,556,1629,2156,2034
1342,1727,385,-1534,478,1056,-1532,-741,566,1805,2381,2239
1415,1747,331,-1581,541,1039,-1605,-761,566,1898,2483,2337
1483,1722,239,-1603,622,980,-1727,-878,444,1883,2503,2396
1503,1605,102,-1554,700,854,-1795,-966,322,1790,2420,2357
1444,1322,-122,-1383,783,600,-1756,-971,175,1615,2191,2196
1342,961,-380,-1151,861,290,-1620,-917,43,1381,1873,1971
1185,761,-424,-973,805,168,-1468,-863,-43,1200,1639,1800
936,453,-483,-695,710,-14,-1244,-844,-361,600,1058,1342
780,268,-512,-524,646,-122,-1078,-800,-585,185,634,990
619,131,-488,-375,553,-178,-888,-717,-727,-146,258,658
463,43,-419,-253,441,-187,-707,-610,-790,-380,-43,351
380,4,-375,-192,378,-185,-605,-536,-751,-424,-146,219
317,4,-312,-161,314,-153,-483,-434,-605,-336,-146,156
268,0,-268,-134,268,-134,-385,-341,-473,-268,-126,117
200,-14,-214,-92,207,-114,-287,-248,-341,-200,-112,73
131,-48,-180,-41,156,-114,-185,-151,-229,-151,-126,14
82,-82,-165,0,124,-124,-107,-92,-165,-131,-136,-29
48,-117,-165,34,107,-141,-34,-19,-97,-97,-136,-68
14,-141,-156,63,85,-148,14,19,-58,-87,-136,-97
-24,-161,-136,92,56,-148,48,48,-39,-87,-146,-122
-68,-190,-122,129,26,-156,82,73,-4,-78,-156,-146
-73,-195,-122,134,24,-158,112,97,14,-63,-156,-151
-87,-214,-126,151,19,-170,136,117,34,-63,-156,-146
-87,-219,-131,153,21,-175,141,122,34,-63,-151,-156
-92,-219,-126,156,17,-173,136,122,39,-63,-161,-161
-92,-224,-131,158,19,-178,146,126,43,-63,-161,-161
-97,-229,-131,163,17,-180,146,131,43,-63,-161,-161
-97,-229,-131,163,17,-180,146,136,43,-63,-161,-165
-97,-224,-126,161,14,-175,146,126,34,-73,-161,-156
-97,-219,-122,158,12,-170,151,126,43,-73,-161,-156
-97,-209,-112,153,7,-161,156,126,43,-68,-161,-156
-97,-204,-107,151,4,-156,156,131,43,-68,-161,-156
-102,-200,-97,151,-2,-148,156,131,34,-68,-170,-161
-117,-214,-97,165,-9,-156,156,131,34,-73,-170,-161
-112,-214,-102,163,-4,-158,156,136,34,-73,-165,-165
-117,-214,-97,165,-9,-156,161,136,39,-68,-165,-170
-117,-214,-97,165,-9,-156,151,151,48,-68,-156,-156
-117,-209,-92,163,-12,-151,156,151,48,-68,-156,-156
-122,-209,-87,165,-17,-148,156,151,53,-68,-156,-161
-122,-204,-82,163,-19,-143,156,151,53,-63,-156,-161
-117,-195,-78,156,-19,-136,156,141,53,-63,-161,-161
-117,-195,-78,156,-19,-136,161,146,58,-63,-161,-161
-117,-195,-78,156,-19,-136,161,146,58,-63,-161,-161
-122,-195,-73,158,-24,-134,161,146,58,-63,-161,-151
-112,-204,-92,158,-9,-148,170,161,63,-63,-151,-151
-112,-204,-92,158,-9,-148,170,161,68,-58,-146,-151
-112,-204,-92,158,-9,-148,175,161,68,-53,-146,-146
-117,-204,-87,161,-14,-146,175,161,73,-53,-146,-146
-107,-214,-107,161,0,-161,175,170,73,-48,-146,-146
-107,-219,-112,163,2,-165,175,170,73,-48,-146,-151
-102,-224,-122,163,9,-173,180,175,78,-48,-146,-151
-102,-229,-126,165,12,-178,180,175,82,-43,-146,-146
-107,-229,-122,168,7,-175,180,170,78,-53,-156,-156
-112,-234,-122,173,4,-178,185,170,73,-53,-151,-156
-117,-234,-117,175,0,-175,185,170,73,-53,-151,-156
-122,-234,-112,178,-4,-173,185,170,68,-53,-151,-156
-112,-214,-102,163,-4,-158,175,170,78,-43,-141,-146
-112,-200,-87,156,-12,-143,175,170,78,-43,-141,-151
-112,-190,-78,151,-17,-134,175,170,78,-43,-141,-151
-117,-180,-63,148,-26,-122,175,170,78,-43,-141,-151
-107,-170,-63,139,-21,-117,175,175,78,-53,-141,-151
-107,-180,-73,143,-17,-126,175,180,82,-53,-141,-151
-107,-180,-73,143,-17,-126,175,180,82,-53,-141,-151
-107,-175,-68,141,-19,-122,175,180,87,-48,-141,-151
-117,-175,-58,146,-29,-117,190,180,87,-39,-141,-151
-112,-180,-68,146,-21,-124,190,185,92,-39,-141,-151
-112,-190,-78,151,-17,-134,195,190,97,-34,-136,-151
-112,-195,-82,153,-14,-139,195,190,97,-34,-136,-146
-102,-185,-82,143,-9,-134,185,204,102,-34,-136,-146
-102,-185,-82,143,-9,-134,185,204,102,-29,-136,-146
-102,-185,-82,143,-9,-134,195,209,102,-29,-131,-141
-102,-180,-78,141,-12,-129,195,214,112,-19,-126,-141
-107,-190,-82,148,-12,-136,204,219,112,-29,-126,-146
-112,-190,-78,151,-17,-134,204,219,117,-29,-126,-146
-117,-180,-63,148,-26,-122,204,219,117,-29,-126,-146
-122,-175,-53,148,-34,-114,204,224,117,-29,-131,-156
-122,-175,-53,148,-34,-114,209,234,131,-19,-131,-146
-122,-180,-58,151,-31,-119,219,239,131,-9,-131,-146
-122,-190,-68,156,-26,-129,219,244,141,-4,-126,-146
-126,-204,-78,165,-24,-141,224,248,146,-4,-126,-146
-117,-190,-73,153,-21,-131,214,244,146,0,-136,-151
-112,-175,-63,143,-24,-119,219,248,151,-4,-131,-151
-112,-170,-58,141,-26,-114,224,253,151,-9,-131,-151
-112,-175,-63,143,-24,-119,224,258,151,-14,-131,-151
-117,-195,-78,156,-19,-136,234,263,165,-4,-117,-136
-122,-200,-78,161,-21,-139,239,263,170,-4,-117,-136
-126,-190,-63,158,-31,-126,239,273,170,0,-117,-136
-131,-180,-48,156,-41,-114,239,273,175,4,-112,-136
-126,-180,-53,153,-36,-117,244,278,195,24,-102,-126
-122,-180,-58,151,-31,-119,244,283,204,29,-97,-126
-117,-180,-63,148,-26,-122,253,287,209,29,-97,-122
-107,-190,-82,148,-12,-136,258,302,219,34,-92,-122
-117,-170,-53,143,-31,-112,253,307,214,24,-102,-131
-117,-170,-53,143,-31,-112,253,312,219,34,-102,-131
-122,-161,-39,141,-41,-100,258,317,234,39,-92,-126
-122,-151,-29,136,-46,-90,263,322,244,43,-87,-126
-107,-136,-29,122,-39,-82,268,336,258,53,-92,-131
-107,-136,-29,122,-39,-82,278,341,268,58,-92,-131
-107,-126,-19,117,-43,-73,278,346,278,68,-92,-126
-107,-122,-14,114,-46,-68,278,356,283,73,-82,-122
-107,-131,-24,119,-41,-78,297,385,302,82,-68,-112
-102,-136,-34,119,-34,-85,307,395,317,97,-53,-107
-102,-146,-43,124,-29,-95,317,405,331,107,-48,-102
-102,-146,-43,124,-29,-95,322,414,351,122,-39,-92
-102,-131,-29,117,-36,-80,336,424,361,126,-34,-92
-102,-122,-19,112,-41,-70,341,434,370,131,-34,-87
-102,-122,-19,112,-41,-70,346,444,385,141,-34,-82
-102,-131,-29,117,-36,-80,351,453,395,151,-24,-82
-102,-131,-29,117,-36,-80,361,453,409,161,-19,-82
-102,-122,-19,112,-41,-70,366,468,424,170,-9,-78
-97,-112,-14,104,-41,-63,370,473,439,180,-9,-78
-97,-112,-14,104,-41,-63,375,488,448,190,0,-73
-97,-102,-4,100,-46,-53,380,497,458,190,-4,-73
-92,-87,4,90,-48,-41,380,497,463,200,4,-68
-92,-78,14,85,-53,-31,380,502,483,209,14,-63
-92,-63,29,78,-61,-17,385,507,488,219,19,-58
-87,-48,39,68,-63,-4,380,522,517,239,34,-43
-87,-43,43,65,-65,0,385,531,527,248,48,-39
-87,-39,48,63,-68,4,385,531,541,258,58,-34
-87,-34,53,61,-70,9,385,541,551,268,63,-29
-92,-34,58,63,-75,12,385,546,556,283,78,-19
-92,-29,63,61,-78,17,385,551,575,292,92,0
-87,-19,68,53,-78,24,390,561,585,302,107,9
-87,-4,82,46,-85,39,390,561,600,317,112,19
-87,9,97,39,-92,53,390,556,610,326,112,14
-82,24,107,29,-95,65,390,561,619,336,122,24
-82,24,107,29,-95,65,390,561,629,351,136,34
-73,29,102,21,-87,65,385,561,639,361,146,43
-63,43,107,9,-85,75,375,561,649,370,161,53
-68,53,122,7,-95,87,370,551,653,375,165,63
-68,73,141,-2,-104,107,366,546,658,385,175,73
-63,87,151,-12,-107,119,356,541,668,385,190,78
-68,92,161,-12,-114,126,351,522,658,395,200,78
-68,102,170,-17,-119,136,341,517,653,395,209,87
-68,112,180,-21,-124,146,331,502,653,395,209,97
-58,126,185,-34,-122,156,322,492,649,400,209,107
-53,136,190,-41,-122,163,297,483,644,390,219,117
-48,156,204,-53,-126,180,292,473,644,390,229,126
-43,156,200,-56,-122,178,283,458,634,400,244,136
-43,156,200,-56,-122,178,273,448,634,409,263,146
-34,165,200,-65,-117,183,253,434,619,400,253,156
-29,165,195,-68,-112,180,244,419,610,400,263,161
-29,180,209,-75,-119,195,229,400,595,400,268,161
-19,185,204,-82,-112,195,214,380,590,395,273,170
-29,175,204,-73,-117,190,200,370,580,395,278,170
-19,180,200,-80,-109,190,185,351,566,390,278,180
-14,185,200,-85,-107,192,170,331,546,385,278,190
-9,185,195,-87,-102,190,156,317,531,385,278,190
-9,175,185,-82,-97,180,141,307,517,366,278,190
-9,170,180,-80,-95,175,126,287,497,361,278,190
-4,165,170,-80,-87,168,112,273,478,346,273,185
0,161,161,-80,-80,161,97,253,453,336,273,185
9,165,156,-87,-73,161,82,224,419,317,263,175
9,161,151,-85,-70,156,68,209,390,302,253,170
9,161,151,-85,-70,156,63,190,366,278,244,161
9,156,146,-82,-68,151,53,180,346,263,229,151
9,131,122,-70,-56,126,43,165,317,244,219,151
9,97,87,-53,-39,92,34,151,297,229,209,141
9,78,68,-43,-29,73,34,136,273,209,190,136
9,58,48,-34,-19,53,29,126,248,195,175,122
19,48,29,-34,-4,39,19,112,219,170,161,122
14,43,29,-29,-7,36,14,97,190,156,146,102
14,34,19,-24,-2,26,9,92,170,136,131,97
9,29,19,-19,-4,24,0,78,151,122,117,78
9,14,4,-12,2,9,0,78,136,102,102,73
4,-4,-9,0,7,-7,0,73,117,92,97,63
0,-24,-24,12,12,-24,-4,63,97,78,78,53
0,-24,-24,12,12,-24,-4,58,78,63,58,43
-9,-39,-29,24,9,-34,4,68,78,48,58,39
-9,-53,-43,31,17,-48,0,63,63,43,53,29
-14,-73,-58,43,21,-65,0,58,58,29,39,19
-19,-87,-68,53,24,-78,0,58,39,19,24,4
-9,-102,-92,56,41,-97,0,63,39,24,19,4
-9,-112,-102,61,46,-107,0,58,29,19,14,4
-14,-117,-102,65,43,-109,0,58,24,14,14,0
-19,-117,-97,68,39,-107,0,53,14,4,4,-9
-19,-107,-87,63,34,-97,0,43,4,-4,-4,-14
-19,-107,-87,63,34,-97,0,39,0,-4,-9,-19
-24,-102,-78,63,26,-90,0,39,-14,-9,-14,-24
-24,-102,-78,63,26,-90,0,39,-14,-14,-19,-29
-19,-102,-82,61,31,-92,9,39,-19,-19,-24,-34
-19,-107,-87,63,34,-97,9,39,-19,-24,-24,-39
-19,-112,-92,65,36,-102,9,39,-19,-24,-29,-39
-19,-117,-97,68,39,-107,9,39,-19,-29,-34,-39
-19,-117,-97,68,39,-107,0,29,-34,-39,-34,-48
-24,-112,-87,68,31,-100,0,29,-34,-39,-39,-48
-24,-112,-87,68,31,-100,0,29,-39,-39,-39,-48
-24,-107,-82,65,29,-95,0,29,-39,-39,-43,-53
-34,-117,-82,75,24,-100,0,39,-43,-39,-43,-53
-34,-126,-92,80,29,-109,0,34,-43,-39,-48,-53
-34,-141,-107,87,36,-124,0,34,-43,-43,-48,-58
-34,-151,-117,92,41,-134,0,39,-43,-43,-48,-58
-24,-161,-136,92,56,-148,0,39,-43,-43,-43,-48
-24,-161,-136,92,56,-148,4,39,-43,-43,-43,-48
-24,-165,-141,95,58,-153,4,39,-43,-43,-43,-48
-24,-165,-141,95,58,-153,4,39,-43,-43,-43,-48
-24,-156,-131,90,53,-143,14,39,-34,-39,-39,-53
-24,-156,-131,90,53,-143,14,39,-34,-43,-43,-53
-29,-156,-126,92,48,-141,14,39,-43,-43,-43,-53
-29,-161,-131,95,51,-146,9,39,-43,-43,-48,-58
-29,-156,-126,92,48,-141,0,29,-48,-48,-48,-68
-29,-156,-126,92,48,-141,4,29,-48,-48,-48,-63
-29,-151,-122,90,46,-136,4,29,-48,-48,-48,-63
-24,-151,-126,87,51,-139,4,34,-48,-48,-43,-63
-24,-170,-146,97,61,-158,19,43,-34,-39,-34,-58
-24,-170,-146,97,61,-158,19,43,-34,-43,-34,-63
-24,-170,-146,97,61,-158,19,43,-39,-43,-34,-58
-24,-165,-141,95,58,-153,19,43,-39,-43,-39,-48
-24,-146,-122,85,48,-134,19,43,-39,-43,-43,-58
-24,-146,-122,85,48,-134,19,43,-43,-43,-48,-58
-24,-146,-122,85,48,-134,19,43,-43,-43,-53,-58
-29,-156,-126,92,48,-141,19,43,-39,-43,-58,-58
-39,-170,-131,104,46,-151,29,43,-39,-43,-58,-58
-34,-170,-136,102,51,-153,29,43,-34,-43,-53,-58
-34,-175,-141,104,53,-158,29,43,-34,-39,-53,-58
-39,-180,-141,109,51,-161,29,43,-34,-39,-53,-58
-48,-175,-126,112,39,-151,19,34,-53,-58,-58,-78
-48,-170,-122,109,36,-146,24,34,-43,-48,-58,-78
-48,-170,-122,109,36,-146,24,39,-43,-48,-58,-73
-48,-170,-122,109,36,-146,24,39,-43,-48,-58,-73
-43,-161,-117,102,36,-139,24,29,-43,-48,-63,-73
-43,-161,-117,102,36,-139,24,29,-43,-53,-63,-78
-43,-151,-107,97,31,-129,24,29,-43,-53,-63,-78
-48,-151,-102,100,26,-126,24,29,-43,-53,-63,-73
-58,-161,-102,109,21,-131,24,29,-43,-53,-63,-73
-58,-165,-107,112,24,-136,29,29,-39,-53,-63,-78
-58,-170,-112,114,26,-141,29,29,-39,-53,-63,-78
-63,-180,-117,122,26,-148,29,29,-39,-53,-68,-82
-53,-170,-117,112,31,-143,43,39,-39,-43,-68,-82
-53,-170,-117,112,31,-143,43,39,-39,-43,-68,-82
-53,-170,-117,112,31,-143,43,39,-39,-43,-63,-82
-58,-170,-112,114,26,-141,43,39,-39,-53,-63,-82
-58,-161,-102,109,21,-131,43,29,-39,-53,-73,-82
-58,-161,-102,109,21,-131,43,29,-39,-53,-73,-82
-58,-161,-102,109,21,-131,48,29,-43,-53,-78,-82
-58,-156,-97,107,19,-126,48,24,-43,-53,-78,-82
-58,-161,-102,109,21,-131,48,24,-53,-63,-78,-82
-68,-170,-102,119,17,-136,48,24,-53,-63,-78,-82
-68,-175,-107,122,19,-141,48,24,-53,-63,-78,-82
-63,-180,-117,122,26,-148,48,24,-48,-63,-78,-82
-73,-180,-107,126,17,-143,48,24,-53,-73,-78,-92
-73,-175,-102,124,14,-139,43,24,-58,-73,-82,-92
-82,-175,-92,129,4,-134,43,24,-68,-73,-87,-92
-82,-175,-92,129,4,-134,43,24,-73,-73,-92,-92
-78,-175,-97,126,9,-136,43,14,-82,-73,-92,-92
-78,-170,-92,124,7,-131,43,14,-78,-73,-92,-92
-78,-165,-87,122,4,-126,48,14,-78,-73,-92,-92
-87,-170,-82,129,-2,-126,48,14,-78,-73,-92,-92
-87,-185,-97,136,4,-141,58,24,-78,-63,-97,-97
-87,-185,-97,136,4,-141,58,24,-78,-63,-102,-102
-87,-190,-102,139,7,-146,58,24,-78,-68,-107,-102
-87,-195,-107,141,9,-151,63,29,-78,-68,-107,-102
-82,-195,-112,139,14,-153,63,29,-68,-58,-92,-92
-78,-200,-122,139,21,-161,63,29,-68,-58,-92,-92
-73,-200,-126,136,26,-163,68,29,-68,-58,-97,-92
-68,-200,-131,134,31,-165,68,29,-68,-58,-97,-92
-73,-209,-136,141,31,-173,63,19,-68,-68,-97,-92
-78,-209,-131,143,26,-170,63,19,-73,-68,-97,-92
-82,-209,-126,146,21,-168,63,19,-73,-68,-97,-92
-87,-209,-122,148,17,-165,63,14,-73,-68,-97,-92
-87,-204,-117,146,14,-161,58,14,-73,-68,-97,-97
-87,-195,-107,141,9,-151,58,14,-73,-58,-97,-97
-78,-190,-112,134,17,-151,58,14,-73,-58,-92,-92
-78,-185,-107,131,14,-146,58,14,-73,-58,-92,-92
-78,-190,-112,134,17,-151,58,14,-63,-58,-102,-82
-82,-190,-107,136,12,-148,58,9,-63,-58,-102,-78
-82,-190,-107,136,12,-148,58,9,-63,-58,-102,-78
-87,-180,-92,134,2,-136,58,4,-63,-63,-102,-82
-87,-185,-97,136,4,-141,58,4,-78,-68,-97,-92
-92,-190,-97,141,2,-143,58,9,-78,-68,-97,-97
-92,-195,-102,143,4,-148,58,9,-78,-63,-97,-97
-92,-204,-112,148,9,-158,58,9,-78,-63,-97,-92
-78,-209,-131,143,26,-170,68,19,-63,-58,-97,-82
-73,-209,-136,141,31,-173,73,19,-63,-58,-97,-82
-73,-214,-141,143,34,-178,73,19,-68,-58,-102,-82
-78,-219,-141,148,31,-180,68,19,-68,-63,-102,-82
-78,-219,-141,148,31,-180,73,19,-63,-63,-107,-92
-87,-229,-141,158,26,-185,73,14,-63,-63,-107,-92
-78,-219,-141,148,31,-180,68,14,-63,-63,-107,-92
-73,-219,-146,146,36,-183,68,14,-63,-63,-107,-92
-82,-209,-126,146,21,-168,58,9,-73,-73,-97,-92
-82,-209,-126,146,21,-168,58,4,-73,-73,-97,-92
-82,-209,-126,146,21,-168,63,0,-78,-73,-97,-92
-82,-209,-126,146,21,-168,63,-4,-78,-78,-97,-92
-82,-195,-112,139,14,-153,53,-9,-78,-68,-97,-92
-82,-190,-107,136,12,-148,48,-9,-78,-68,-97,-92
-78,-185,-107,131,14,-146,48,-9,-78,-68,-97,-92
-78,-180,-102,129,12,-141,48,-9,-78,-68,-97,-92
-68,-190,-122,129,26,-156,58,-9,-68,-58,-97,-82
-68,-195,-126,131,29,-161,58,-9,-68,-58,-92,-82
-73,-200,-126,136,26,-163,53,-14,-68,-58,-92,-82
-73,-200,-126,136,26,-163,53,-14,-68,-58,-97,-78
-78,-200,-122,139,21,-161,53,-9,-78,-68,-107,-87
-78,-200,-122,139,21,-161,53,-9,-78,-68,-107,-87
-78,-200,-122,139,21,-161,58,-14,-78,-73,-102,-87
-78,-200,-122,139,21,-161,58,-14,-78,-78,-102,-92
-78,-190,-112,134,17,-151,48,-19,-82,-78,-107,-92
-78,-190,-112,134,17,-151,48,-19,-82,-73,-107,-87
-82,-200,-117,141,17,-158,48,-14,-82,-68,-107,-87
-82,-204,-122,143,19,-163,43,-14,-82,-68,-107,-87
-73,-204,-131,139,29,-168,43,-24,-73,-73,-97,-87
-73,-200,-126,136,26,-163,43,-24,-73,-73,-97,-87
-73,-190,-117,131,21,-153,43,-24,-73,-73,-102,-97
-73,-204,-131,139,29,-168,43,-24,-73,-73,-102,-97
-73,-209,-136,141,31,-173,53,-24,-73,-73,-112,-92
-68,-214,-146,141,39,-180,53,-24,-73,-73,-112,-92
-68,-219,-151,143,41,-185,58,-24,-73,-73,-107,-92
-63,-219,-156,141,46,-187,58,-24,-73,-73,-102,-87
-73,-209,-136,141,31,-173,63,-14,-73,-73,-92,-87
-73,-209,-136,141,31,-173,58,-19,-78,-78,-97,-87
-73,-214,-141,143,34,-178,58,-24,-78,-78,-97,-87
-73,-214,-141,143,34,-178,58,-24,-78,-73,-97,-87
-73,-204,-131,139,29,-168,48,-24,-87,-73,-97,-87
-73,-204,-131,139,29,-168,48,-29,-87,-73,-97,-87
-73,-200,-126,136,26,-163,48,-34,-87,-73,-97,-87
-73,-190,-117,131,21,-153,43,-39,-87,-73,-97,-87
-63,-190,-126,126,31,-158,43,-39,-87,-73,-97,-87
-63,-200,-136,131,36,-168,43,-43,-87,-73,-97,-82
-63,-204,-141,134,39,-173,43,-43,-87,-73,-97,-82
-63,-204,-141,134,39,-173,39,-43,-87,-73,-97,-82
-63,-214,-151,139,43,-183,48,-34,-82,-73,-97,-87
-63,-214,-151,139,43,-183,48,-34,-82,-73,-97,-82
-63,-209,-146,136,41,-178,48,-34,-78,-73,-97,-82
-58,-200,-141,129,41,-170,48,-34,-78,-73,-97,-82
-68,-209,-141,139,36,-175,48,-43,-87,-82,-102,-92
-68,-209,-141,139,36,-175,48,-43,-87,-82,-102,-87
-68,-209,-141,139,36,-175,48,-43,-87,-78,-97,-87
-68,-209,-141,139,36,-175,48,-43,-82,-78,-92,-87
-68,-219,-151,143,41,-185,48,-39,-82,-73,-97,-87
-63,-219,-156,141,46,-187,48,-39,-82,-73,-97,-87
-63,-209,-146,136,41,-178,48,-39,-82,-73,-97,-82
-58,-209,-151,134,46,-180,53,-39,-82,-68,-92,-82
-53,-200,-146,126,46,-173,43,-48,-82,-68,-87,-82
-53,-195,-141,124,43,-168,48,-48,-82,-68,-87,-82
-53,-190,-136,122,41,-163,48,-48,-82,-73,-92,-87
-68,-185,-117,126,24,-151,53,-48,-82,-78,-92,-87
-68,-180,-112,124,21,-146,53,-48,-87,-73,-102,-92
-68,-180,-112,124,21,-146,48,-43,-78,-73,-97,-87
-68,-180,-112,124,21,-146,48,-43,-73,-73,-97,-87
-68,-180,-112,124,21,-146,48,-43,-73,-73,-97,-82
-63,-180,-117,122,26,-148,48,-53,-73,-73,-97,-82
-58,-195,-136,126,39,-165,58,-43,-58,-53,-82,-63
-58,-185,-126,122,34,-156,68,-29,-43,-43,-68,-58
-48,-156,-107,102,29,-131,68,-29,-39,-39,-63,-43
-48,-136,-87,92,19,-112,78,-29,-29,-39,-58,-39
-58,-131,-73,95,7,-102,68,-39,-29,-39,-48,-39
-58,-126,-68,92,4,-97,68,-39,-29,-39,-48,-39
-58,-122,-63,90,2,-92,68,-39,-29,-39,-48,-39
-58,-117,-58,87,0,-87,68,-39,-29,-39,-48,-39
-63,-122,-58,92,-2,-90,87,-34,-9,-29,-39,-39
-63,-126,-63,95,0,-95,87,-34,-4,-29,-39,-39
-58,-126,-68,92,4,-97,87,-34,0,-24,-39,-39
-39,-122,-82,80,21,-102,87,-34,9,-24,-39,-39
-48,-117,-68,82,9,-92,82,-29,9,-24,-39,-34
-48,-117,-68,82,9,-92,78,-29,9,-24,-29,-34
-39,-112,-73,75,17,-92,73,-29,9,-24,-24,-24
-29,-92,-63,61,17,-78,73,-29,19,-9,-19,-14
-19,-78,-58,48,19,-68,68,-39,19,-14,-19,-4
-14,-63,-48,39,17,-56,48,-48,19,-9,-14,-4
-9,-53,-43,31,17,-48,34,-53,14,-9,-9,0
-9,-43,-34,26,12,-39,24,-63,14,-9,-9,0
0,-53,-53,26,26,-53,24,-63,14,-19,-14,0
9,-58,-68,24,39,-63,14,-63,9,-24,-19,0
9,-63,-73,26,41,-68,14,-73,0,-24,-19,0
19,-63,-82,21,51,-73,0,-73,-4,-24,-19,0
19,-63,-82,21,51,-73,-14,-87,-4,-14,-4,9
24,-48,-73,12,48,-61,-24,-92,-4,-14,-4,14
19,-34,-53,7,36,-43,-24,-97,0,-14,0,19
14,-34,-48,9,31,-41,-24,-102,0,-14,0,19
24,-43,-68,9,46,-56,-19,-92,9,-4,9,19
14,-48,-63,17,39,-56,-4,-92,9,0,9,19
9,-48,-58,19,34,-53,-4,-87,9,0,9,19
9,-53,-63,21,36,-58,-4,-87,9,0,0,19
0,-58,-58,29,29,-58,4,-87,-4,-19,-4,0
-9,-68,-58,39,24,-63,14,-82,-9,-19,-14,0
-9,-87,-78,48,34,-82,19,-73,-9,-19,-19,0
-9,-97,-87,53,39,-92,24,-68,-9,-19,-19,4
-9,-92,-82,51,36,-87,19,-73,-19,-14,-19,4
-9,-102,-92,56,41,-97,24,-63,-19,-14,-24,4
-9,-117,-107,63,48,-112,24,-63,-29,-24,-29,-4
-24,-131,-107,78,41,-119,24,-63,-39,-34,-43,-14
-24,-141,-117,82,46,-129,43,-58,-34,-34,-43,-14
-29,-146,-117,87,43,-131,48,-48,-29,-39,-39,-14
-39,-156,-117,97,39,-136,53,-43,-29,-39,-39,-19
-43,-170,-126,107,41,-148,53,-48,-29,-43,-43,-34
-68,-185,-117,126,24,-151,43,-58,-53,-58,-53,-53
-78,-195,-117,136,19,-156,43,-53,-63,-73,-63,-63
-78,-209,-131,143,26,-170,48,-53,-63,-82,-73,-73
-82,-229,-146,156,31,-187,58,-53,-68,-87,-82,-78
-82,-219,-136,151,26,-178,58,-48,-58,-87,-82,-78
-82,-219,-136,151,26,-178,58,-48,-58,-82,-82,-87
-82,-224,-141,153,29,-183,63,-48,-58,-82,-82,-78
-82,-224,-141,153,29,-183,63,-48,-63,-87,-82,-78
-82,-224,-141,153,29,-183,48,-58,-73,-97,-87,-82
-82,-229,-146,156,31,-187,48,-58,-78,-97,-87,-82
-87,-234,-146,161,29,-190,48,-58,-78,-97,-87,-82
-87,-234,-146,161,29,-190,48,-58,-82,-97,-87,-82
-78,-244,-165,161,43,-204,48,-48,-73,-87,-87,-82
-78,-239,-161,158,41,-200,48,-48,-73,-87,-87,-82
-78,-239,-161,158,41,-200,48,-53,-73,-92,-87,-82
-78,-248,-170,163,46,-209,48,-53,-73,-92,-92,-87
-82,-244,-161,163,39,-202,58,-53,-73,-92,-82,-87
-82,-244,-161,163,39,-202,58,-48,-73,-92,-82,-87
-82,-239,-156,161,36,-197,63,-48,-73,-92,-82,-87
-82,-239,-156,161,36,-197,63,-48,-73,-92,-87,-87
-78,-229,-151,153,36,-190,53,-48,-82,-97,-97,-92
-78,-229,-151,153,36,-190,53,-48,-82,-97,-97,-92
-73,-219,-146,146,36,-183,53,-48,-82,-97,-97,-92
-73,-219,-146,146,36,-183,53,-48,-87,-97,-102,-92
-82,-219,-136,151,26,-178,53,-58,-87,-107,-102,-92
-82,-224,-141,153,29,-183,53,-58,-92,-107,-102,-92
-82,-224,-141,153,29,-183,53,-58,-92,-107,-102,-92
-82,-229,-146,156,31,-187,53,-58,-87,-107,-97,-92
-73,-234,-161,153,43,-197,58,-48,-82,-97,-92,-82
-73,-239,-165,156,46,-202,63,-48,-73,-92,-82,-78
-73,-244,-170,158,48,-207,73,-48,-68,-82,-78,-73
-73,-248,-175,161,51,-212,78,-43,-63,-78,-73,-68
-78,-263,-185,170,53,-224,68,-43,-68,-82,-73,-73
-82,-263,-180,173,48,-222,68,-43,-68,-78,-73,-73
-87,-263,-175,175,43,-219,68,-43,-68,-82,-78,-73
-92,-263,-170,178,39,-217,68,-43,-63,-92,-82,-73
-82,-253,-170,168,43,-212,73,-43,-53,-82,-78,-73
-82,-244,-161,163,39,-202,73,-43,-53,-82,-82,-73
-82,-234,-151,158,34,-192,68,-43,-53,-82,-78,-73
-82,-234,-151,158,34,-192,68,-43,-53,-82,-68,-78
-82,-185,-102,134,9,-143,53,-53,-73,-92,-87,-87
-92,-209,-117,151,12,-163,68,-34,-63,-97,-92,-97
-97,-253,-156,175,29,-204,97,-29,-68,-107,-112,-107
-107,-273,-165,190,29,-219,122,-4,-58,-112,-122,-126
-131,-302,-170,217,19,-236,161,14,-48,-122,-136,-141
-161,-356,-195,258,17,-275,209,48,-34,-131,-175,-175
-190,-375,-185,283,-2,-280,234,68,-29,-151,-190,-200
-209,-356,-146,283,-31,-251,258,78,-9,-161,-200,-224
-229,-356,-126,292,-51,-241,273,92,-4,-161,-209,-234
-229,-356,-126,292,-51,-241,307,112,24,-156,-190,-229
-200,-326,-126,263,-36,-226,341,161,63,-117,-156,-195
-185,-297,-112,241,-36,-204,356,200,107,-73,-117,-165
-136,-195,-58,165,-39,-126,361,229,209,48,4,-68
-97,-102,-4,100,-46,-53,361,248,302,151,122,34
-48,4,53,21,-51,29,346,263,424,278,263,161
24,126,102,-75,-39,114,322,273,531,414,419,307
92,209,117,-151,-12,163,268,239,585,502,531,419
209,370,161,-290,24,265,131,141,624,639,727,610
322,502,180,-412,70,341,0,53,663,756,893,771
468,697,229,-583,119,463,-219,-92,663,897,1088,976
653,941,287,-797,183,614,-507,-273,624,1049,1327,1229
790,1112,322,-951,234,717,-741,-405,590,1180,1522,1434
1024,1342,317,-1183,353,829,-1024,-551,600,1410,1825,1737
1185,1493,307,-1339,439,900,-1210,-644,614,1581,2049,1956
1322,1610,287,-1466,517,949,-1366,-702,624,1737,2235,2152
1454,1717,263,-1586,595,990,-1517,-761,624,1878,2396,2318
1522,1673,151,-1598,685,912,-1590,-780,580,1922,2464,2376
1542,1605,63,-1573,739,834,-1737,-956,419,1830,2400,2376
1532,1410,-122,-1471,827,644,-1756,-1010,302,1712,2269,2293
1459,1117,-341,-1288,900,387,-1668,-985,180,1537,2010,2117
1312,819,-492,-1066,902,163,-1507,-922,43,1278,1688,1878
1122,619,-502,-871,812,58,-1351,-912,-136,951,1351,1615
888,326,-561,-607,724,-117,-1137,-897,-507,312,751,1137
717,170,-546,-444,631,-187,-976,-844,-697,-58,375,795
570,82,-488,-326,529,-202,-795,-746,-771,-283,102,517
429,14,-414,-222,422,-200,-624,-634,-761,-405,-97,297
366,-14,-380,-175,373,-197,-522,-551,-683,-375,-126,214
287,-58,-346,-114,317,-202,-375,-429,-522,-287,-107,165
219,-73,-292,-73,256,-183,-278,-336,-400,-229,-102,122
151,-87,-239,-31,195,-163,-175,-248,-287,-180,-107,73
82,-102,-185,9,134,-143,-78,-151,-185,-141,-107,9
48,-146,-195,48,122,-170,-14,-87,-126,-117,-107,-19
-4,-170,-165,87,80,-168,53,-29,-78,-97,-107,-58
-53,-209,-156,131,51,-183,87,9,-39,-87,-107,-73
-68,-248,-180,158,56,-214,131,43,-14,-78,-107,-87
-82,-263,-180,173,48,-222,161,68,14,-63,-107,-92
-97,-273,-175,185,39,-224,185,87,34,-43,-97,-97
-107,-268,-161,187,26,-214,200,92,34,-43,-92,-97
-122,-263,-141,192,9,-202,195,82,29,-58,-107,-117
-122,-263,-141,192,9,-202,204,87,34,-63,-112,-122
-126,-263,-136,195,4,-200,204,92,34,-68,-117,-126
-126,-258,-131,192,2,-195,204,97,34,-73,-122,-136
-131,-258,-126,195,-2,-192,204,97,24,-82,-131,-146
-136,-258,-122,197,-7,-190,209,97,34,-82,-131,-146
-141,-253,-112,197,-14,-183,214,97,34,-78,-131,-146
-146,-253,-107,200,-19,-180,214,102,34,-78,-131,-146
-136,-248,-112,192,-12,-180,224,112,39,-68,-126,-141
-146,-263,-117,204,-14,-190,224,112,43,-73,-122,-131
-136,-263,-126,200,-4,-195,224,117,48,-73,-112,-126
-136,-263,-126,200,-4,-195,229,117,58,-68,-107,-122
-126,-258,-131,192,2,-195,219,122,58,-68,-107,-126
-126,-248,-122,187,-2,-185,224,122,58,-68,-107,-126
-131,-244,-112,187,-9,-178,224,122,63,-68,-107,-131
-131,-234,-102,183,-14,-168,224,122,63,-63,-107,-131
-136,-234,-97,185,-19,-165,224,122,63,-73,-102,-131
-136,-234,-97,185,-19,-165,229,126,68,-73,-102,-131
-136,-234,-97,185,-19,-165,229,126,68,-73,-102,-131
-141,-234,-92,187,-24,-163,229,126,68,-73,-102,-122
-131,-244,-112,187,-9,-178,239,141,73,-73,-102,-122
-131,-244,-112,187,-9,-178,239,141,78,-68,-97,-122
-131,-244,-112,187,-9,-178,244,141,78,-63,-97,-117
-136,-244,-107,190,-14,-175,244,141,82,-63,-97,-117
-136,-239,-102,187,-17,-170,234,141,82,-68,-97,-107
-136,-239,-102,187,-17,-170,234,141,82,-68,-97,-112
-131,-239,-107,185,-12,-173,239,146,87,-68,-97,-112
-131,-239,-107,185,-12,-173,239,146,92,-63,-97,-107
-141,-239,-97,190,-21,-168,239,141,87,-73,-97,-117
-141,-244,-102,192,-19,-173,244,141,82,-73,-92,-117
-141,-244,-102,192,-19,-173,244,141,82,-73,-92,-117
-141,-244,-102,192,-19,-173,244,141,78,-73,-92,-117
-141,-229,-87,185,-26,-158,234,141,78,-73,-102,-117
-141,-219,-78,180,-31,-148,234,141,78,-73,-102,-122
-141,-214,-73,178,-34,-143,234,141,78,-73,-102,-122
-146,-209,-63,178,-41,-136,234,141,78,-73,-102,-122
-136,-224,-87,180,-24,-156,244,156,87,-63,-92,-117
-136,-239,-102,187,-17,-170,244,161,92,-63,-92,-112
-136,-244,-107,190,-14,-175,244,161,92,-63,-92,-107
-136,-244,-107,190,-14,-175,244,161,97,-58,-92,-102
-136,-224,-87,180,-24,-156,248,151,87,-68,-92,-112
-131,-219,-87,175,-21,-153,248,156,92,-68,-92,-112
-131,-219,-87,175,-21,-153,253,161,97,-63,-87,-112
-131,-214,-82,173,-24,-148,253,161,97,-63,-87,-107
-131,-219,-87,175,-21,-153,253,175,112,-63,-87,-107
-131,-224,-92,178,-19,-158,253,175,112,-58,-87,-107
-131,-229,-97,180,-17,-163,263,180,112,-58,-82,-102
-131,-229,-97,180,-17,-163,263,185,122,-48,-78,-102
-136,-229,-92,183,-21,-161,253,180,112,-58,-78,-107
-141,-229,-87,185,-26,-158,253,180,117,-58,-78,-107
-146,-219,-73,183,-36,-146,253,180,117,-58,-78,-107
-151,-214,-63,183,-43,-139,253,185,117,-58,-82,-117
-141,-214,-73,178,-34,-143,268,204,131,-58,-73,-107
-141,-219,-78,180,-31,-148,278,209,131,-48,-73,-107
-141,-229,-87,185,-26,-158,278,214,141,-43,-68,-107
-146,-244,-97,195,-24,-170,283,219,146,-43,-68,-107
-146,-224,-78,185,-34,-151,283,224,151,-34,-58,-92
-141,-214,-73,178,-34,-143,287,229,161,-34,-53,-92
-141,-214,-73,178,-34,-143,292,234,165,-34,-53,-92
-141,-224,-82,183,-29,-153,292,239,170,-34,-53,-92
-131,-219,-87,175,-21,-153,283,244,165,-34,-58,-97
-131,-219,-87,175,-21,-153,287,244,170,-34,-58,-97
-131,-204,-73,168,-29,-139,287,253,170,-29,-58,-97
-131,-190,-58,161,-36,-124,287,253,175,-24,-53,-97
-141,-190,-48,165,-46,-119,292,248,185,-24,-58,-107
-141,-190,-48,165,-46,-119,292,253,195,-19,-58,-107
-141,-190,-48,165,-46,-119,302,258,200,-19,-63,-102
-136,-200,-63,168,-36,-131,307,273,209,-14,-63,-102
-136,-195,-58,165,-39,-126,312,287,214,-14,-63,-102
-136,-200,-63,168,-36,-131,312,292,219,-4,-63,-102
-141,-195,-53,168,-43,-124,317,297,234,0,-53,-97
-141,-190,-48,165,-46,-119,322,302,244,4,-48,-97
-136,-190,-53,163,-41,-122,326,322,258,24,-39,-87
-136,-195,-58,165,-39,-126,336,331,268,29,-34,-82
-136,-190,-53,163,-41,-122,336,341,278,39,-29,-73
-136,-190,-53,163,-41,-122,336,356,283,43,-14,-63
-136,-170,-34,153,-51,-102,346,370,297,43,-9,-68
-131,-165,-34,148,-48,-100,356,375,307,48,-4,-68
-131,-165,-34,148,-48,-100,366,380,317,48,-9,-68
-131,-156,-24,143,-53,-90,370,385,331,53,-9,-63
-122,-151,-29,136,-46,-90,375,405,341,58,-4,-73
-122,-141,-19,131,-51,-80,380,414,351,63,-4,-68
-122,-141,-19,131,-51,-80,385,424,366,73,-4,-63
-122,-151,-29,136,-46,-90,390,434,375,82,4,-63
-131,-141,-9,136,-61,-75,390,434,390,92,9,-43
-131,-131,0,131,-65,-65,395,448,405,102,19,-39
-126,-122,4,124,-65,-58,400,453,419,112,19,-39
-126,-122,4,124,-65,-58,405,468,429,122,29,-34
-117,-97,19,107,-68,-39,409,478,439,122,34,-34
-112,-78,34,95,-73,-21,409,478,444,131,43,-29
-112,-63,48,87,-80,-7,409,483,463,141,53,-24
-112,-43,68,78,-90,12,414,488,468,151,58,-19
-107,-39,68,73,-87,14,429,512,488,161,63,-4
-107,-43,63,75,-85,9,434,522,497,170,78,0
-107,-48,58,78,-82,4,434,522,512,180,87,4
-107,-53,53,80,-80,0,434,531,522,190,92,9
-112,-53,58,82,-85,2,434,536,536,214,97,9
-112,-48,63,80,-87,7,434,541,556,224,112,29
-107,-39,68,73,-87,14,439,551,566,234,126,39
-107,-24,82,65,-95,29,439,551,580,248,131,48
-97,4,102,46,-100,53,439,566,600,258,141,53
-92,24,117,34,-104,70,439,570,610,268,151,63
-92,29,122,31,-107,75,439,570,619,283,165,73
-82,39,122,21,-102,80,434,570,629,292,175,82
-82,53,136,14,-109,95,424,570,629,292,190,92
-87,63,151,12,-119,107,419,561,634,297,195,102
-87,82,170,2,-129,126,414,556,639,307,204,112
-82,97,180,-7,-131,139,405,551,649,307,219,117
-87,97,185,-4,-136,141,400,541,649,326,239,122
-87,102,190,-7,-139,146,390,536,644,326,248,136
-87,107,195,-9,-141,151,380,522,644,326,248,151
-78,117,195,-19,-136,156,370,512,639,331,248,165
-63,117,180,-26,-122,148,356,502,634,331,263,165
-58,136,195,-39,-126,165,351,492,634,331,268,175
-53,136,190,-41,-122,163,341,478,624,341,278,185
-53,136,190,-41,-122,163,331,468,624,351,292,195
-43,151,195,-53,-119,173,302,444,619,341,292,214
-39,156,195,-58,-117,175,292,429,610,341,302,219
-39,175,214,-68,-126,195,278,409,595,341,307,219
-29,185,214,-78,-122,200,263,390,590,336,312,229
-39,185,224,-73,-131,204,248,380,570,326,307,219
-29,190,219,-80,-124,204,234,361,556,322,307,229
-24,195,219,-85,-122,207,219,341,536,317,307,239
-19,195,214,-87,-117,204,204,326,522,317,307,239
-19,204,224,-92,-122,214,180,307,507,297,307,239
-19,200,219,-90,-119,209,165,287,488,292,307,239
-14,195,209,-90,-112,202,151,273,468,278,302,234
-9,190,200,-90,-104,195,136,253,444,268,302,234
-19,180,200,-80,-109,190,126,234,429,248,283,234
-19,161,180,-70,-100,170,117,219,400,234,273,229
-19,146,165,-63,-92,156,117,200,375,209,263,219
-19,126,146,-53,-82,136,112,190,356,195,248,209
-9,126,136,-58,-73,131,92,165,317,165,229,190
-9,107,117,-48,-63,112,82,151,297,151,219,180
-9,102,112,-46,-61,107,82,136,273,131,200,175
-9,97,107,-43,-58,102,78,126,248,117,185,161
-9,82,92,-36,-51,87,58,112,229,92,170,151
-14,73,87,-29,-51,80,53,97,200,78,156,131
-14,58,73,-21,-43,65,48,92,180,58,141,126
-19,48,68,-14,-43,58,39,78,161,43,126,107
-19,39,58,-9,-39,48,48,78,146,24,112,102
-24,14,39,4,-31,26,48,73,126,14,107,92
-29,-9,19,19,-24,4,43,63,107,0,87,82
-29,-14,14,21,-21,0,43,58,87,-14,68,73
-29,-24,4,26,-17,-9,43,58,68,-39,58,58
-29,-34,-4,31,-12,-19,39,53,53,-43,53,48
-34,-48,-14,41,-9,-31,39,48,48,-58,39,39
-39,-58,-19,48,-9,-39,39,48,29,-68,24,24
-39,-63,-24,51,-7,-43,39,43,29,-82,19,24
-39,-73,-34,56,-2,-53,39,39,19,-87,14,24
-43,-78,-34,61,-4,-56,39,39,14,-92,14,19
-48,-78,-29,63,-9,-53,39,34,4,-102,4,9
-58,-73,-14,65,-21,-43,29,34,4,-102,-14,-4
-58,-78,-19,68,-19,-48,29,29,0,-102,-19,-9
-63,-78,-14,70,-24,-46,29,29,-14,-107,-24,-14
-63,-82,-19,73,-21,-51,29,29,-14,-112,-29,-19
-58,-73,-14,65,-21,-43,39,19,-29,-126,-34,-24
-58,-78,-19,68,-19,-48,39,19,-29,-131,-34,-29
-58,-82,-24,70,-17,-53,39,19,-29,-131,-39,-29
-58,-87,-29,73,-14,-58,39,19,-29,-136,-43,-29
-58,-97,-39,78,-9,-68,39,29,-34,-136,-43,-19
-63,-102,-39,82,-12,-70,39,29,-34,-136,-48,-19
-63,-112,-48,87,-7,-80,39,29,-39,-136,-48,-19
-63,-117,-53,90,-4,-85,39,29,-39,-136,-53,-24
-63,-112,-48,87,-7,-80,29,19,-43,-136,-53,-24
-63,-107,-43,85,-9,-75,29,14,-43,-136,-58,-24
-63,-107,-43,85,-9,-75,29,14,-43,-141,-58,-29
-63,-102,-39,82,-12,-70,29,19,-43,-141,-58,-29
-63,-112,-48,87,-7,-80,29,19,-43,-131,-43,-19
-63,-112,-48,87,-7,-80,34,19,-43,-131,-43,-19
-63,-117,-53,90,-4,-85,34,19,-43,-131,-43,-19
-63,-117,-53,90,-4,-85,34,19,-43,-131,-43,-19
-73,-122,-48,97,-12,-85,34,19,-43,-136,-58,-34
-73,-126,-53,100,-9,-90,34,19,-43,-141,-63,-34
-78,-131,-53,104,-12,-92,34,19,-53,-141,-63,-34
-78,-141,-63,109,-7,-102,29,19,-53,-141,-68,-39
-68,-136,-68,102,0,-102,19,19,-48,-141,-78,-48
-68,-126,-58,97,-4,-92,24,19,-48,-146,-78,-43
-68,-112,-43,90,-12,-78,24,19,-48,-151,-78,-43
-63,-102,-39,82,-12,-70,24,24,-48,-156,-73,-43
-63,-122,-58,92,-2,-90,39,24,-43,-146,-73,-43
-63,-122,-58,92,-2,-90,39,24,-43,-151,-73,-53
-63,-122,-58,92,-2,-90,39,24,-48,-151,-73,-53
-63,-117,-53,90,-4,-85,39,24,-48,-151,-78,-48
-63,-117,-53,90,-4,-85,39,24,-48,-151,-68,-39
-63,-117,-53,90,-4,-85,39,24,-53,-151,-68,-39
-63,-117,-53,90,-4,-85,39,24,-53,-151,-68,-39
-68,-126,-58,97,-4,-92,39,24,-48,-151,-68,-39
-68,-126,-58,97,-4,-92,39,24,-48,-161,-78,-39
-63,-122,-58,92,-2,-90,39,24,-43,-161,-73,-39
-63,-122,-58,92,-2,-90,39,24,-43,-156,-73,-39
-68,-122,-53,95,-7,-87,39,24,-43,-156,-73,-39
-63,-112,-48,87,-7,-80,39,34,-53,-165,-78,-48
-58,-112,-53,85,-2,-82,43,34,-43,-156,-78,-48
-53,-117,-63,85,4,-90,43,39,-43,-156,-78,-43
-48,-122,-73,85,12,-97,43,39,-43,-156,-78,-43
-58,-136,-78,97,9,-107,53,39,-43,-156,-73,-34
-63,-141,-78,102,7,-109,53,39,-43,-161,-73,-39
-68,-136,-68,102,0,-102,53,39,-43,-161,-73,-39
-78,-141,-63,109,-7,-102,53,39,-43,-161,-73,-34
-78,-136,-58,107,-9,-97,53,39,-43,-170,-82,-43
-78,-136,-58,107,-9,-97,58,39,-39,-170,-82,-48
-78,-136,-58,107,-9,-97,58,39,-39,-170,-82,-48
-82,-141,-58,112,-12,-100,58,39,-39,-170,-87,-53
-82,-136,-53,109,-14,-95,53,39,-39,-170,-87,-53
-82,-131,-48,107,-17,-90,53,39,-39,-170,-87,-53
-82,-126,-43,104,-19,-85,53,39,-39,-170,-82,-53
-87,-122,-34,104,-26,-78,53,39,-39,-180,-82,-53
-87,-131,-43,109,-21,-87,43,29,-48,-180,-102,-73
-87,-131,-43,109,-21,-87,43,29,-48,-180,-102,-73
-87,-131,-43,109,-21,-87,48,29,-53,-180,-107,-73
-87,-126,-39,107,-24,-82,48,24,-53,-180,-107,-73
-87,-126,-39,107,-24,-82,58,34,-43,-180,-97,-63
-97,-131,-34,114,-31,-82,58,34,-43,-180,-97,-63
-97,-131,-34,114,-31,-82,58,34,-43,-180,-97,-63
-92,-131,-39,112,-26,-85,58,34,-39,-180,-97,-63
-82,-122,-39,102,-21,-80,58,24,-48,-180,-92,-63
-82,-117,-34,100,-24,-75,53,24,-48,-180,-92,-63
-92,-117,-24,104,-34,-70,53,24,-53,-180,-92,-63
-92,-117,-24,104,-34,-70,53,24,-53,-180,-92,-63
-97,-126,-29,112,-34,-78,53,34,-43,-180,-102,-63
-97,-131,-34,114,-31,-82,53,34,-39,-180,-102,-63
-97,-136,-39,117,-29,-87,58,34,-39,-180,-102,-63
-107,-151,-43,129,-31,-97,58,34,-39,-180,-102,-63
-107,-146,-39,126,-34,-92,58,34,-48,-180,-107,-68
-107,-136,-29,122,-39,-82,58,34,-48,-180,-112,-73
-107,-131,-24,119,-41,-78,58,34,-48,-185,-117,-73
-107,-126,-19,117,-43,-73,63,39,-48,-185,-117,-73
-107,-131,-24,119,-41,-78,63,39,-39,-185,-102,-73
-107,-141,-34,124,-36,-87,63,39,-39,-185,-102,-73
-107,-146,-39,126,-34,-92,68,39,-39,-185,-107,-73
-107,-151,-43,129,-31,-97,68,39,-39,-185,-107,-73
-107,-146,-39,126,-34,-92,63,39,-48,-185,-117,-73
-107,-141,-34,124,-36,-87,63,39,-53,-185,-117,-73
-107,-136,-29,122,-39,-82,63,39,-53,-185,-117,-73
-107,-131,-24,119,-41,-78,63,34,-53,-185,-117,-73
-97,-131,-34,114,-31,-82,58,34,-53,-195,-126,-78
-97,-126,-29,112,-34,-78,58,34,-53,-185,-126,-78
-87,-126,-39,107,-24,-82,58,34,-53,-185,-122,-73
-87,-126,-39,107,-24,-82,58,34,-53,-185,-122,-73
-87,-141,-53,114,-17,-97,58,34,-53,-195,-112,-63
-92,-141,-48,117,-21,-95,58,29,-53,-195,-112,-58
-92,-141,-48,117,-21,-95,58,29,-53,-195,-112,-58
-97,-131,-34,114,-31,-82,58,24,-53,-200,-112,-63
-107,-141,-34,124,-36,-87,53,14,-58,-204,-117,-73
-112,-141,-29,126,-41,-85,48,19,-58,-204,-117,-78
-112,-141,-29,126,-41,-85,43,19,-58,-200,-117,-78
-112,-146,-34,129,-39,-90,39,19,-58,-200,-117,-73
-107,-156,-48,131,-29,-102,48,29,-43,-185,-117,-63
-102,-151,-48,126,-26,-100,53,29,-43,-185,-117,-63
-102,-151,-48,126,-26,-100,53,29,-48,-185,-122,-63
-107,-151,-43,129,-31,-97,48,29,-48,-190,-122,-63
-102,-136,-34,119,-34,-85,53,29,-63,-200,-126,-63
-107,-141,-34,124,-36,-87,53,24,-63,-200,-126,-63
-92,-126,-34,109,-29,-80,48,24,-63,-200,-126,-63
-82,-122,-39,102,-21,-80,48,24,-63,-200,-126,-63
-87,-131,-43,109,-21,-87,48,24,-63,-200,-117,-63
-92,-131,-39,112,-26,-85,48,24,-63,-200,-117,-63
-97,-131,-34,114,-31,-82,53,24,-68,-200,-117,-63
-102,-131,-29,117,-36,-80,53,24,-68,-204,-117,-63
-92,-131,-39,112,-26,-85,43,9,-68,-214,-126,-63
-92,-131,-39,112,-26,-85,39,9,-68,-214,-126,-63
-87,-131,-43,109,-21,-87,39,9,-68,-214,-126,-63
-87,-131,-43,109,-21,-87,39,9,-68,-214,-126,-63
-78,-126,-48,102,-14,-87,39,9,-78,-214,-126,-63
-78,-126,-48,102,-14,-87,39,9,-78,-214,-122,-63
-82,-126,-43,104,-19,-85,34,4,-78,-214,-122,-63
-82,-122,-39,102,-21,-80,34,4,-78,-214,-126,-58
-87,-126,-39,107,-24,-82,34,9,-68,-204,-126,-48
-87,-131,-43,109,-21,-87,34,9,-68,-204,-126,-48
-87,-136,-48,112,-19,-92,39,4,-68,-209,-122,-48
-87,-141,-53,114,-17,-97,39,4,-68,-214,-122,-53
-87,-131,-43,109,-21,-87,39,9,-73,-214,-117,-53
-87,-131,-43,109,-21,-87,39,9,-73,-209,-117,-48
-92,-141,-48,117,-21,-95,39,14,-73,-204,-117,-48
-92,-146,-53,119,-19,-100,34,14,-73,-204,-117,-48
-92,-141,-48,117,-21,-95,34,4,-82,-219,-126,-58
-92,-131,-39,112,-26,-85,34,4,-82,-219,-126,-58
-92,-117,-24,104,-34,-70,34,4,-82,-219,-131,-68
-92,-126,-34,109,-29,-80,34,4,-82,-219,-131,-68
-92,-126,-34,109,-29,-80,34,-4,-82,-219,-131,-63
-87,-126,-39,107,-24,-82,34,-4,-82,-219,-131,-63
-87,-126,-39,107,-24,-82,39,-4,-82,-219,-126,-63
-82,-122,-39,102,-21,-80,39,-4,-82,-219,-122,-58
-73,-131,-58,102,-7,-95,43,4,-73,-209,-122,-48
-73,-131,-58,102,-7,-95,39,0,-78,-214,-126,-48
-73,-136,-63,104,-4,-100,39,-4,-78,-214,-126,-48
-73,-136,-63,104,-4,-100,39,-4,-78,-209,-126,-48
-82,-141,-58,112,-12,-100,48,0,-78,-209,-117,-39
-82,-146,-63,114,-9,-104,48,0,-78,-209,-117,-39
-82,-146,-63,114,-9,-104,48,0,-78,-209,-117,-39
-82,-141,-58,112,-12,-100,43,0,-78,-209,-117,-39
-82,-131,-48,107,-17,-90,34,-9,-87,-219,-122,-48
-82,-141,-58,112,-12,-100,34,-14,-87,-219,-126,-43
-82,-146,-63,114,-9,-104,34,-14,-87,-219,-131,-43
-82,-146,-63,114,-9,-104,29,-14,-87,-219,-136,-43
-73,-141,-68,107,-2,-104,29,-14,-92,-209,-126,-43
-73,-136,-63,104,-4,-100,29,-14,-92,-200,-126,-43
-73,-126,-53,100,-9,-90,29,-14,-87,-190,-126,-48
-68,-112,-43,90,-12,-78,29,-14,-87,-180,-126,-53
-68,-122,-53,95,-7,-87,39,-9,-87,-175,-131,-53
-68,-122,-53,95,-7,-87,39,-4,-87,-170,-131,-48
-68,-122,-53,95,-7,-87,39,0,-87,-161,-126,-48
-68,-122,-53,95,-7,-87,39,4,-82,-156,-122,-48
-78,-112,-34,95,-21,-73,29,0,-82,-141,-126,-58
-73,-112,-39,92,-17,-75,29,0,-82,-141,-126,-58
-73,-102,-29,87,-21,-65,29,0,-82,-141,-126,-53
-68,-102,-34,85,-17,-68,34,0,-82,-136,-122,-53
-43,-48,-4,46,-19,-26,43,0,-63,-131,-117,-43
-53,-48,4,51,-29,-21,39,0,-53,-126,-107,-43
-63,-68,-4,65,-29,-36,48,9,-53,-117,-102,-39
-58,-68,-9,63,-24,-39,58,9,-48,-107,-87,-29
-48,-53,-4,51,-21,-29,58,9,-39,-97,-78,-19
-48,-48,0,48,-24,-24,58,9,-39,-97,-78,-19
-48,-43,4,46,-26,-19,58,9,-39,-97,-78,-19
-48,-39,9,43,-29,-14,58,9,-39,-97,-78,-19
-48,-24,24,36,-36,0,63,4,-24,-97,-78,-9
-53,-19,34,36,-43,7,58,4,-24,-97,-78,-9
-53,-9,43,31,-48,17,53,4,-24,-92,-78,-9
-39,4,43,17,-41,24,48,4,-19,-92,-78,-9
-39,0,39,19,-39,19,43,9,-19,-82,-78,-4
-39,0,39,19,-39,19,39,9,-19,-82,-68,-4
-29,4,34,12,-31,19,34,9,-19,-82,-63,4
-19,24,43,-2,-31,34,34,9,-9,-68,-58,14
-19,24,43,-2,-31,34,29,0,0,-63,-48,24
-14,34,48,-9,-31,41,9,-9,0,-58,-43,24
-9,39,48,-14,-29,43,-4,-14,-4,-58,-39,29
-9,43,53,-17,-31,48,-14,-24,-4,-58,-39,29
0,43,43,-21,-21,43,-14,-24,-14,-68,-43,29
9,39,29,-24,-9,34,-24,-24,-19,-73,-48,29
9,34,24,-21,-7,29,-24,-34,-29,-73,-48,29
19,34,14,-26,2,24,-39,-34,-34,-73,-48,29
24,43,19,-34,2,31,-34,-53,-34,-73,-34,29
34,58,24,-46,4,41,-43,-53,-34,-73,-34,34
34,73,39,-53,-2,56,-43,-53,-29,-73,-29,39
34,73,39,-53,-2,56,-43,-53,-29,-73,-29,39
34,78,43,-56,-4,61,-53,-63,-34,-92,-39,29
24,78,53,-51,-14,65,-43,-63,-39,-97,-39,29
19,82,63,-51,-21,73,-48,-58,-43,-107,-39,29
19,82,63,-51,-21,73,-53,-58,-48,-117,-48,29
29,63,34,-46,-2,48,-43,-48,-53,-136,-58,29
19,48,29,-34,-4,39,-34,-43,-58,-136,-63,29
19,24,4,-21,7,14,-29,-34,-58,-136,-63,29
19,9,-9,-14,14,0,-24,-29,-58,-136,-58,34
14,0,-14,-7,14,-7,-9,-24,-48,-131,-58,34
9,-14,-24,2,17,-19,-4,-14,-48,-131,-63,34
4,-34,-39,14,21,-36,-4,-14,-58,-141,-68,24
-14,-53,-39,34,12,-46,-4,-14,-68,-151,-82,14
-29,-68,-39,48,4,-53,4,-4,-78,-161,-87,4
-39,-78,-39,58,0,-58,9,0,-78,-165,-87,4
-53,-92,-39,73,-7,-65,14,0,-82,-165,-92,0
-63,-112,-48,87,-7,-80,14,-9,-87,-170,-102,-14
-73,-126,-53,100,-9,-90,24,0,-92,-185,-112,-24
-78,-136,-58,107,-9,-97,24,4,-102,-200,-122,-34
-73,-151,-78,112,2,-114,29,4,-102,-209,-131,-43
-73,-170,-97,122,12,-134,39,4,-107,-214,-141,-48
-73,-156,-82,114,4,-119,29,0,-117,-214,-141,-48
-73,-151,-78,112,2,-114,29,0,-117,-209,-141,-58
-73,-151,-78,112,2,-114,34,0,-117,-209,-141,-48
-73,-146,-73,109,0,-109,34,0,-122,-214,-141,-48
-73,-136,-63,104,-4,-100,29,-9,-122,-214,-146,-53
-73,-141,-68,107,-2,-104,29,-9,-126,-214,-146,-53
-78,-146,-68,112,-4,-107,29,-9,-126,-214,-146,-53
-78,-146,-68,112,-4,-107,29,-9,-131,-214,-146,-53
-78,-161,-82,119,2,-122,29,0,-122,-224,-136,-53
-78,-161,-82,119,2,-122,29,0,-122,-224,-136,-53
-78,-165,-87,122,4,-126,29,-4,-122,-229,-136,-53
-78,-180,-102,129,12,-141,29,-4,-122,-229,-141,-58
-73,-180,-107,126,17,-143,19,-4,-122,-219,-141,-58
-73,-175,-102,124,14,-139,19,0,-122,-219,-141,-58
-73,-165,-92,119,9,-129,24,0,-122,-219,-141,-58
-73,-161,-87,117,7,-124,24,0,-122,-219,-146,-58
-87,-161,-73,124,-7,-117,14,-9,-131,-234,-156,-73
-87,-161,-73,124,-7,-117,14,-9,-131,-234,-156,-73
-82,-151,-68,117,-7,-109,14,-9,-131,-234,-156,-73
-82,-151,-68,117,-7,-109,14,-9,-136,-234,-161,-73
-73,-156,-82,114,4,-119,24,-4,-126,-229,-156,-68
-73,-165,-92,119,9,-129,24,0,-131,-224,-151,-63
-73,-170,-97,122,12,-134,24,4,-131,-219,-146,-58
-73,-180,-107,126,17,-143,24,9,-126,-214,-136,-53
-82,-175,-92,129,4,-134,14,0,-126,-219,-146,-58
-82,-170,-87,126,2,-129,14,0,-122,-219,-141,-58
-82,-165,-82,124,0,-124,19,0,-122,-214,-141,-58
-82,-161,-78,122,-2,-119,19,4,-122,-214,-141,-58
-73,-165,-92,119,9,-129,19,4,-126,-214,-136,-53
-73,-165,-92,119,9,-129,19,4,-126,-204,-131,-53
-73,-165,-92,119,9,-129,19,4,-126,-204,-131,-53
-73,-165,-92,119,9,-129,19,4,-122,-209,-131,-53
-73,-156,-82,114,4,-119,24,4,-122,-209,-122,-53
-73,-146,-73,109,0,-109,24,4,-122,-209,-131,-53
-73,-136,-63,104,-4,-100,19,4,-122,-209,-131,-53
-73,-136,-63,104,-4,-100,19,4,-122,-209,-126,-58
-73,-146,-73,109,0,-109,34,14,-112,-209,-126,-58
-82,-161,-78,122,-2,-119,39,24,-112,-214,-141,-68
-97,-204,-107,151,4,-156,78,48,-107,-214,-141,-78
-117,-224,-107,170,-4,-165,82,53,-107,-229,-170,-97
-151,-224,-73,187,-39,-148,112,73,-107,-258,-204,-131
-180,-248,-68,214,-56,-158,161,97,-92,-268,-234,-165
-209,-268,-58,239,-75,-163,185,117,-78,-287,-258,-190
-209,-268,-58,239,-75,-163,229,146,-58,-287,-258,-214
-219,-258,-39,239,-90,-148,253,170,-43,-287,-258,-214
-229,-258,-29,244,-100,-143,278,200,-14,-253,-239,-200
-200,-229,-29,214,-85,-129,312,248,34,-214,-185,-165
-175,-200,-24,187,-75,-112,326,287,87,-141,-126,-107
-126,-117,9,122,-68,-53,341,326,219,0,14,9
-87,-34,53,61,-70,9,341,346,312,102,131,112
-19,82,102,-31,-61,92,317,361,424,219,273,239
73,224,151,-148,-39,187,273,361,522,346,419,375
131,317,185,-224,-26,251,209,307,556,434,531,488
278,497,219,-387,29,358,53,200,605,590,736,697
400,649,248,-524,75,448,-107,92,624,707,902,868
556,844,287,-700,134,566,-356,-73,614,839,1098,1083
761,1088,326,-924,217,707,-663,-283,556,990,1337,1327
927,1268,341,-1098,292,805,-897,-405,531,1122,1522,1532
1132,1459,326,-1295,402,893,-1180,-561,531,1332,1795,1805
1283,1600,317,-1442,483,958,-1356,-644,527,1483,1991,2005
1410,1688,278,-1549,566,983,-1512,-702,527,1620,2147,2171
1532,1727,195,-1629,668,961,-1644,-751,507,1732,2278,2308
1590,1693,102,-1642,744,897,-1727,-829,424,1727,2298,2357
1590,1537,-53,-1564,822,741,-1854,-976,253,1586,2166,2288
1571,1302,-268,-1437,919,517,-1844,-1000,117,1439,1966,2156
1468,1029,-439,-1249,954,295,-1717,-956,-14,1224,1688,1961
1273,741,-531,-1007,902,104,-1517,-893,-161,927,1337,1693
1083,512,-570,-797,827,-29,-1351,-873,-370,551,971,1390
849,258,-590,-553,719,-165,-1137,-839,-683,0,448,932
678,122,-556,-400,617,-217,-956,-766,-805,-292,141,649
541,43,-497,-292,519,-226,-785,-658,-829,-448,-63,429
419,-14,-434,-202,427,-224,-634,-536,-771,-502,-185,248
346,-34,-380,-156,363,-207,-531,-453,-683,-444,-185,204
268,-29,-297,-119,283,-163,-395,-331,-531,-366,-175,136
190,-24,-214,-82,202,-119,-297,-239,-429,-317,-170,92
131,-39,-170,-46,151,-104,-204,-151,-326,-278,-165,53
63,-73,-136,4,100,-104,-107,-63,-224,-248,-165,0
19,-126,-146,53,82,-136,-34,0,-165,-224,-165,-29
-4,-151,-146,78,70,-148,34,58,-117,-185,-156,-48
-34,-161,-126,97,46,-143,68,87,-87,-165,-146,-63
-58,-161,-102,109,21,-131,92,112,-63,-165,-156,-78
-92,-175,-82,134,-4,-129,112,126,-53,-170,-165,-92
-107,-185,-78,146,-14,-131,126,136,-43,-170,-165,-107
-107,-190,-82,148,-12,-136,151,161,-34,-161,-161,-107
-117,-200,-82,158,-17,-141,151,156,-34,-170,-170,-122
-122,-204,-82,163,-19,-143,156,156,-34,-170,-170,-122
-131,-209,-78,170,-26,-143,151,156,-39,-170,-170,-122
-136,-209,-73,173,-31,-141,146,156,-43,-170,-170,-126
-136,-209,-73,173,-31,-141,146,156,-43,-170,-170,-117
-136,-209,-73,173,-31,-141,151,156,-34,-170,-170,-117
-136,-204,-68,170,-34,-136,156,156,-34,-165,-170,-117
-136,-204,-68,170,-34,-136,156,161,-34,-165,-170,-117
-146,-190,-43,168,-51,-117,165,170,-24,-165,-170,-126
-156,-204,-48,180,-53,-126,165,170,-24,-170,-170,-122
-146,-204,-58,175,-43,-131,165,175,-24,-170,-165,-122
-146,-204,-58,175,-43,-131,170,175,-19,-165,-165,-122
-146,-200,-53,173,-46,-126,161,170,-19,-165,-156,-117
-146,-190,-43,168,-51,-117,165,170,-19,-165,-156,-117
-151,-185,-34,168,-58,-109,165,170,-14,-165,-156,-122
-151,-175,-24,163,-63,-100,165,170,-14,-161,-156,-122
-136,-185,-48,161,-43,-117,165,175,-14,-161,-151,-122
-136,-185,-48,161,-43,-117,170,185,-9,-161,-151,-122
-136,-185,-48,161,-43,-117,170,190,-9,-161,-151,-122
-141,-185,-43,163,-48,-114,170,195,-9,-161,-151,-112
-131,-175,-43,153,-43,-109,161,190,-14,-161,-151,-112
-131,-175,-43,153,-43,-109,161,190,-9,-156,-146,-112
-131,-175,-43,153,-43,-109,165,190,-9,-151,-146,-107
-136,-175,-39,156,-48,-107,165,190,-4,-151,-146,-107
-141,-180,-39,161,-51,-109,156,180,-14,-165,-156,-112
-146,-180,-34,163,-56,-107,156,180,-14,-165,-156,-122
-146,-180,-34,163,-56,-107,161,185,-9,-165,-156,-126
-151,-180,-29,165,-61,-104,161,185,-4,-161,-156,-126
-141,-180,-39,161,-51,-109,170,200,4,-151,-146,-122
-141,-185,-43,163,-48,-114,175,200,4,-151,-141,-117
-141,-185,-43,163,-48,-114,175,200,9,-151,-141,-112
-141,-185,-43,163,-48,-114,175,200,9,-151,-141,-107
-151,-195,-43,173,-53,-119,185,209,19,-141,-141,-107
-151,-190,-39,170,-56,-114,185,209,19,-141,-141,-112
-151,-190,-39,170,-56,-114,185,209,19,-141,-141,-112
-156,-190,-34,173,-61,-112,185,209,19,-141,-141,-112
-146,-190,-43,168,-51,-117,185,214,19,-141,-141,-112
-146,-200,-53,173,-46,-126,185,219,24,-141,-141,-112
-146,-200,-53,173,-46,-126,185,219,24,-141,-141,-112
-146,-195,-48,170,-48,-122,185,219,29,-136,-141,-112
-156,-190,-34,173,-61,-112,190,219,29,-136,-141,-112
-151,-190,-39,170,-56,-114,190,224,34,-136,-141,-112
-151,-195,-43,173,-53,-119,195,229,39,-131,-136,-112
-151,-195,-43,173,-53,-119,195,229,39,-131,-136,-107
-151,-204,-53,178,-48,-129,195,244,43,-122,-126,-107
-151,-204,-53,178,-48,-129,195,244,43,-117,-126,-107
-151,-204,-53,178,-48,-129,204,248,43,-117,-122,-102
-151,-200,-48,175,-51,-124,204,253,53,-107,-117,-102
-136,-185,-48,161,-43,-117,214,248,53,-117,-126,-97
-131,-180,-48,156,-41,-114,214,248,58,-117,-126,-97
-126,-165,-39,146,-43,-102,214,248,58,-117,-126,-97
-122,-156,-34,139,-43,-95,214,253,58,-117,-131,-107
-122,-161,-39,141,-41,-100,209,263,53,-117,-122,-97
-122,-161,-39,141,-41,-100,219,268,53,-107,-122,-97
-122,-165,-43,143,-39,-104,219,273,63,-102,-117,-97
-126,-175,-48,151,-39,-112,224,278,68,-102,-117,-97
-126,-165,-39,146,-43,-102,224,273,82,-82,-117,-92
-122,-156,-34,139,-43,-95,229,278,92,-82,-112,-92
-122,-156,-34,139,-43,-95,234,283,97,-82,-112,-92
-122,-165,-43,143,-39,-104,234,287,102,-82,-112,-92
-122,-161,-39,141,-41,-100,244,302,107,-82,-107,-87
-122,-161,-39,141,-41,-100,248,302,112,-82,-107,-87
-122,-146,-24,134,-48,-85,248,312,112,-78,-107,-87
-122,-131,-9,126,-56,-70,248,312,117,-73,-102,-87
-122,-131,-9,126,-56,-70,244,317,126,-73,-112,-92
-122,-131,-9,126,-56,-70,244,322,136,-68,-107,-97
-122,-131,-9,126,-56,-70,253,326,141,-68,-107,-97
-117,-141,-24,129,-46,-82,258,341,151,-63,-102,-102
-117,-141,-24,129,-46,-82,268,356,156,-53,-92,-97
-117,-151,-34,134,-41,-92,273,361,161,-43,-92,-92
-122,-151,-29,136,-46,-90,283,366,175,-39,-82,-82
-122,-151,-29,136,-46,-90,292,370,185,-34,-78,-78
-117,-146,-29,131,-43,-87,287,395,200,-24,-73,-73
-117,-146,-29,131,-43,-87,297,400,209,-19,-73,-73
-117,-136,-19,126,-48,-78,297,405,219,-9,-73,-68
-117,-131,-14,124,-51,-73,297,414,224,-4,-63,-63
-117,-122,-4,119,-56,-63,297,424,229,0,-63,-68
-112,-117,-4,114,-53,-61,307,434,239,9,-53,-68
-112,-117,-4,114,-53,-61,317,444,248,14,-53,-68
-112,-107,4,109,-58,-51,322,453,263,24,-48,-63
-122,-112,9,117,-65,-51,326,473,273,29,-34,-53
-122,-102,19,112,-70,-41,331,483,283,34,-34,-48
-122,-102,19,112,-70,-41,336,492,297,43,-34,-43
-122,-112,9,117,-65,-51,341,502,307,53,-24,-43
-112,-112,0,112,-56,-56,361,522,322,73,-9,-34
-112,-102,9,107,-61,-46,366,536,336,82,0,-29
-107,-92,14,100,-61,-39,370,541,351,92,0,-29
-107,-92,14,100,-61,-39,375,556,361,102,9,-24
-117,-92,24,104,-70,-34,390,566,370,102,4,-24
-112,-78,34,95,-73,-21,390,566,375,112,14,-19
-112,-68,43,90,-78,-12,390,570,395,122,24,-14
-112,-53,58,82,-85,2,395,575,400,131,29,-9
-97,-34,63,65,-80,14,400,590,429,141,34,4
-97,-24,73,61,-85,24,405,600,439,151,48,9
-97,-14,82,56,-90,34,405,600,453,161,58,14
-97,-4,92,51,-95,43,405,610,463,170,63,19
-82,14,97,34,-90,56,405,624,468,195,68,19
-82,19,102,31,-92,61,405,629,488,204,82,39
-78,29,107,24,-92,68,409,639,497,214,97,48
-78,43,122,17,-100,82,409,639,512,229,102,58
-82,43,126,19,-104,85,400,634,512,229,112,63
-82,53,136,14,-109,95,400,639,522,239,122,73
-87,48,136,19,-112,92,400,639,531,253,136,82
-82,48,131,17,-107,90,395,639,541,263,146,92
-82,48,131,17,-107,90,385,649,551,283,161,112
-87,53,141,17,-114,97,380,639,556,287,165,122
-87,68,156,9,-122,112,375,634,561,297,175,131
-82,78,161,2,-122,119,366,629,570,297,190,136
-68,97,165,-14,-117,131,351,610,561,307,200,126
-68,112,180,-21,-124,146,341,605,556,307,209,136
-68,126,195,-29,-131,161,331,590,556,307,209,146
-58,146,204,-43,-131,175,322,580,551,312,209,156
-53,146,200,-46,-126,173,307,561,536,302,204,161
-48,165,214,-58,-131,190,302,551,536,302,209,165
-43,165,209,-61,-126,187,292,536,527,312,219,170
-43,165,209,-61,-126,187,283,527,527,322,234,175
-34,175,209,-70,-122,192,263,512,522,312,234,195
-29,175,204,-73,-117,190,253,497,512,312,244,200
-29,190,219,-80,-124,204,239,478,497,312,248,200
-19,195,214,-87,-117,204,224,458,492,307,253,209
-29,185,214,-78,-122,200,200,439,492,297,258,209
-19,190,209,-85,-114,200,185,419,478,292,258,219
-14,195,209,-90,-112,202,170,400,458,287,258,229
-9,195,204,-92,-107,200,156,385,444,287,258,229
-4,204,209,-100,-107,207,141,356,429,278,258,219
0,200,200,-100,-100,200,126,336,409,273,258,219
9,195,185,-102,-87,190,112,322,390,258,253,214
19,190,170,-104,-75,180,97,302,366,248,253,214
14,180,165,-97,-75,173,82,283,341,239,244,214
9,161,151,-85,-70,156,68,268,312,224,234,209
4,146,141,-75,-68,143,63,248,287,200,224,200
0,126,126,-63,-63,126,53,239,268,185,209,190
19,122,102,-70,-41,112,43,234,248,175,200,180
19,97,78,-58,-29,87,34,219,229,161,190,170
19,87,68,-53,-24,78,34,204,204,141,170,165
19,78,58,-48,-19,68,29,195,180,126,156,151
19,53,34,-36,-7,43,29,180,170,102,141,141
14,43,29,-29,-7,36,24,165,141,87,126,122
14,29,14,-21,0,21,19,161,122,68,112,117
9,19,9,-14,0,14,9,146,102,53,97,97
0,24,24,-12,-12,24,0,126,78,34,73,82
-4,4,9,0,-7,7,0,122,58,24,68,73
-9,-14,-4,12,-2,-9,-4,112,39,9,48,63
-9,-14,-4,12,-2,-9,-4,107,19,-4,29,53
0,-9,-9,4,4,-9,-9,102,19,-19,24,48
0,-14,-14,7,7,-14,-19,92,4,-24,24,39
-4,-24,-19,14,7,-21,-24,82,0,-39,14,29
-9,-29,-19,19,4,-24,-29,78,-19,-48,4,14
-9,-39,-29,24,9,-34,-19,73,-19,-53,-9,14
-9,-53,-43,31,17,-48,-19,68,-29,-58,-14,14
-14,-63,-48,39,17,-56,-19,68,-34,-63,-14,9
-19,-68,-48,43,14,-58,-19,63,-43,-73,-24,0
-29,-87,-58,58,14,-73,-19,73,-43,-73,-34,-4
-29,-97,-68,63,19,-82,-19,68,-48,-73,-39,-9
-34,-102,-68,68,17,-85,-19,68,-63,-78,-43,-14
-34,-112,-78,73,21,-95,-19,68,-63,-82,-48,-19
-29,-112,-82,70,26,-97,-9,68,-58,-78,-43,-24
-29,-117,-87,73,29,-102,-9,68,-58,-82,-43,-29
-29,-122,-92,75,31,-107,-9,68,-58,-82,-48,-29
-29,-126,-97,78,34,-112,-9,68,-58,-87,-53,-29
-39,-117,-78,78,19,-97,-19,58,-73,-87,-53,-29
-43,-112,-68,78,12,-90,-19,58,-73,-87,-58,-29
-43,-112,-68,78,12,-90,-19,58,-78,-87,-58,-29
-43,-107,-63,75,9,-85,-19,58,-78,-87,-63,-34
-39,-117,-78,78,19,-97,-19,58,-73,-87,-53,-34
-34,-117,-82,75,24,-100,-19,53,-73,-87,-58,-34
-29,-122,-92,75,31,-107,-19,53,-73,-92,-58,-39
-24,-122,-97,73,36,-109,-19,58,-73,-92,-58,-39
-29,-126,-97,78,34,-112,-19,58,-82,-92,-63,-39
-34,-131,-97,82,31,-114,-14,58,-82,-92,-63,-39
-39,-141,-102,90,31,-122,-14,58,-82,-92,-63,-39
-43,-146,-102,95,29,-124,-14,58,-82,-92,-63,-39
-34,-156,-122,95,43,-139,-4,58,-82,-87,-58,-43
-34,-156,-122,95,43,-139,-4,58,-82,-92,-63,-43
-39,-156,-117,97,39,-136,-4,58,-92,-92,-63,-43
-39,-161,-122,100,41,-141,-9,58,-92,-92,-68,-48
-48,-175,-126,112,39,-151,-9,58,-87,-87,-68,-48
-48,-175,-126,112,39,-151,-4,58,-87,-87,-68,-43
-48,-170,-122,109,36,-146,-4,58,-87,-87,-68,-43
-43,-170,-126,107,41,-148,-4,63,-87,-87,-63,-43
-43,-175,-131,109,43,-153,0,63,-82,-82,-53,-34
-43,-170,-126,107,41,-148,0,63,-82,-82,-53,-43
-43,-165,-122,104,39,-143,0,63,-87,-78,-53,-43
-43,-156,-112,100,34,-134,0,63,-87,-73,-58,-39
-43,-156,-112,100,34,-134,0,63,-78,-82,-68,-39
-43,-156,-112,100,34,-134,0,63,-82,-82,-68,-39
-43,-156,-112,100,34,-134,0,63,-82,-82,-68,-39
-48,-165,-117,107,34,-141,0,63,-78,-82,-68,-39
-58,-175,-117,117,29,-146,9,63,-87,-82,-78,-48
-53,-170,-117,112,31,-143,9,63,-82,-82,-73,-48
-53,-170,-117,112,31,-143,9,63,-82,-78,-73,-48
-58,-170,-112,114,26,-141,9,63,-82,-78,-73,-48
-48,-156,-107,102,29,-131,0,63,-92,-97,-68,-58
-48,-151,-102,100,26,-126,4,63,-82,-87,-68,-58
-48,-151,-102,100,26,-126,4,68,-82,-87,-68,-53
-48,-151,-102,100,26,-126,4,68,-82,-87,-68,-53
-63,-161,-97,112,17,-129,14,58,-82,-78,-73,-53
-63,-170,-107,117,21,-139,14,58,-82,-82,-73,-58
-63,-170,-107,117,21,-139,14,58,-82,-82,-73,-58
-68,-180,-112,124,21,-146,14,58,-82,-82,-73,-53
-63,-180,-117,122,26,-148,4,58,-82,-82,-73,-53
-58,-175,-117,117,29,-146,9,58,-78,-82,-73,-58
-53,-170,-117,112,31,-143,9,58,-78,-82,-73,-58
-53,-170,-117,112,31,-143,9,58,-78,-82,-78,-63
-63,-170,-107,117,21,-139,14,58,-78,-82,-68,-63
-63,-170,-107,117,21,-139,14,58,-78,-82,-68,-63
-63,-170,-107,117,21,-139,14,58,-78,-82,-63,-63
-68,-170,-102,119,17,-136,14,58,-78,-92,-63,-63
-68,-165,-97,117,14,-131,4,48,-78,-92,-82,-82
-68,-161,-92,114,12,-126,4,48,-78,-92,-82,-82
-68,-156,-87,112,9,-122,9,48,-82,-92,-87,-82
-68,-146,-78,107,4,-112,9,43,-82,-92,-87,-82
-78,-151,-73,114,-2,-112,19,53,-82,-92,-87,-73
-87,-161,-73,124,-7,-117,19,53,-82,-92,-87,-73
-87,-165,-78,126,-4,-122,19,53,-82,-92,-87,-73
-82,-170,-87,126,2,-129,19,53,-78,-92,-87,-73
-73,-180,-107,126,17,-143,29,53,-68,-82,-73,-73
-73,-175,-102,124,14,-139,24,53,-68,-82,-73,-73
-82,-175,-92,129,4,-134,24,53,-73,-82,-73,-73
-82,-175,-92,129,4,-134,24,53,-73,-82,-73,-73
-87,-180,-92,134,2,-136,14,53,-82,-82,-73,-73
-87,-180,-92,134,2,-136,14,53,-78,-82,-73,-73
-87,-180,-92,134,2,-136,19,53,-78,-82,-73,-73
-97,-190,-92,143,-2,-141,19,53,-78,-82,-73,-73
-87,-185,-97,136,4,-141,19,53,-78,-82,-78,-78
-87,-175,-87,131,0,-131,19,53,-78,-82,-82,-82
-87,-170,-82,129,-2,-126,19,53,-78,-87,-87,-82
-87,-165,-78,126,-4,-122,24,58,-78,-87,-87,-82
-87,-180,-92,134,2,-136,24,58,-78,-78,-73,-73
-87,-190,-102,139,7,-146,24,58,-78,-78,-73,-73
-87,-195,-107,141,9,-151,29,58,-78,-78,-78,-73
-87,-200,-112,143,12,-156,29,58,-78,-78,-78,-73
-92,-200,-107,146,7,-153,24,58,-78,-78,-78,-82
-97,-200,-102,148,2,-151,24,58,-82,-78,-78,-82
-102,-200,-97,151,-2,-148,24,58,-82,-78,-78,-82
-107,-200,-92,153,-7,-146,24,53,-82,-78,-78,-82
-102,-185,-82,143,-9,-134,19,43,-82,-87,-87,-87
-97,-175,-78,136,-9,-126,19,43,-82,-78,-87,-87
-82,-170,-87,126,2,-129,19,43,-82,-78,-82,-82
-78,-165,-87,122,4,-126,19,43,-82,-78,-82,-82
-87,-190,-102,139,7,-146,19,53,-82,-68,-82,-82
-92,-190,-97,141,2,-143,19,48,-82,-68,-82,-78
-92,-190,-97,141,2,-143,19,48,-82,-68,-82,-78
-97,-180,-82,139,-7,-131,19,43,-82,-73,-82,-82
-87,-190,-102,139,7,-146,19,34,-87,-78,-87,-92
-92,-190,-97,141,2,-143,19,39,-87,-78,-87,-97
-92,-190,-97,141,2,-143,19,39,-87,-73,-87,-97
-92,-195,-102,143,4,-148,19,39,-87,-73,-87,-92
-97,-195,-97,146,0,-146,9,39,-92,-78,-87,-82
-92,-190,-97,141,2,-143,14,39,-92,-78,-87,-82
-92,-190,-97,141,2,-143,14,39,-97,-78,-92,-82
-97,-190,-92,143,-2,-141,9,39,-97,-82,-92,-82
-87,-190,-102,139,7,-146,4,39,-92,-73,-78,-82
-97,-200,-102,148,2,-151,4,34,-92,-73,-78,-82
-87,-190,-102,139,7,-146,0,34,-92,-73,-78,-82
-82,-190,-107,136,12,-148,0,34,-92,-73,-78,-82
-92,-190,-97,141,2,-143,-9,34,-102,-73,-82,-92
-92,-190,-97,141,2,-143,-9,34,-102,-73,-87,-92
-92,-190,-97,141,2,-143,-4,34,-107,-73,-92,-92
-92,-190,-97,141,2,-143,-4,34,-107,-78,-97,-92
-82,-204,-122,143,19,-163,0,39,-97,-68,-87,-92
-82,-209,-126,146,21,-168,0,39,-97,-68,-87,-92
-78,-214,-136,146,29,-175,4,39,-97,-68,-87,-92
-78,-219,-141,148,31,-180,9,39,-97,-68,-87,-92
-87,-209,-122,148,17,-165,9,39,-97,-68,-87,-82
-87,-214,-126,151,19,-170,9,39,-97,-68,-82,-82
-92,-219,-126,156,17,-173,4,34,-97,-68,-82,-82
-92,-219,-126,156,17,-173,4,34,-97,-68,-87,-78
-78,-204,-126,141,24,-165,4,39,-97,-58,-78,-78
-78,-200,-122,139,21,-161,4,39,-97,-58,-78,-78
-78,-195,-117,136,19,-156,9,34,-97,-63,-73,-78
-78,-190,-112,134,17,-151,9,34,-97,-68,-73,-82
-78,-200,-122,139,21,-161,0,19,-102,-68,-87,-92
-78,-200,-122,139,21,-161,0,19,-102,-63,-87,-87
-82,-209,-126,146,21,-168,0,24,-102,-58,-87,-87
-82,-214,-131,148,24,-173,-4,24,-102,-58,-87,-87
-82,-214,-131,148,24,-173,-14,14,-112,-63,-87,-78
-82,-209,-126,146,21,-168,-14,14,-112,-63,-87,-78
-82,-200,-117,141,17,-158,-14,14,-112,-63,-92,-87
-82,-214,-131,148,24,-173,-14,14,-112,-63,-92,-87
-92,-224,-131,158,19,-178,-14,24,-102,-63,-82,-82
-87,-224,-136,156,24,-180,-14,24,-102,-63,-82,-82
-87,-224,-136,156,24,-180,-9,24,-102,-63,-78,-82
-82,-219,-136,151,26,-178,-9,24,-102,-63,-73,-78
-92,-209,-117,151,12,-163,-4,24,-102,-53,-63,-78
-92,-209,-117,151,12,-163,-9,19,-107,-58,-68,-78
-92,-214,-122,153,14,-168,-9,14,-107,-58,-68,-78
-92,-214,-122,153,14,-168,-9,14,-107,-53,-68,-78
-82,-224,-141,153,29,-183,-9,19,-107,-63,-78,-87
-82,-224,-141,153,29,-183,-9,19,-107,-63,-78,-87
-82,-219,-136,151,26,-178,-9,19,-107,-63,-78,-87
-82,-209,-126,146,21,-168,-14,19,-107,-63,-78,-87
-92,-219,-126,156,17,-173,-4,19,-107,-53,-78,-87
-92,-229,-136,161,21,-183,-4,14,-107,-53,-78,-82
-92,-234,-141,163,24,-187,-4,14,-107,-53,-78,-82
-92,-234,-141,163,24,-187,-9,14,-107,-53,-78,-82
-82,-229,-146,156,31,-187,-9,4,-122,-53,-87,-87
-82,-224,-141,153,29,-183,-9,4,-122,-53,-87,-82
-82,-214,-131,148,24,-173,-9,4,-117,-53,-87,-82
-78,-200,-122,139,21,-161,-9,4,-117,-53,-87,-82
-78,-190,-112,134,17,-151,-19,4,-107,-43,-73,-73
-78,-190,-112,134,17,-151,-19,4,-107,-43,-73,-68
-78,-190,-112,134,17,-151,-19,4,-107,-39,-68,-68
-78,-190,-112,134,17,-151,-19,4,-102,-39,-63,-68
-58,-141,-82,100,12,-112,-9,9,-92,-24,-48,-58
-63,-151,-87,107,12,-119,0,19,-92,-24,-48,-58
-68,-146,-78,107,4,-112,0,19,-78,-19,-39,-48
-58,-141,-82,100,12,-112,0,19,-73,-14,-29,-39
-58,-136,-78,97,9,-107,0,19,-68,-9,-29,-39
-58,-131,-73,95,7,-102,0,19,-63,-4,-29,-39
-58,-126,-68,92,4,-97,0,19,-58,0,-29,-39
-78,-141,-63,109,-7,-102,19,24,-53,9,-29,-48
-82,-146,-63,114,-9,-104,19,24,-53,9,-29,-48
-82,-146,-63,114,-9,-104,19,24,-53,14,-29,-48
-68,-141,-73,104,2,-107,19,24,-48,14,-29,-48
-58,-122,-63,90,2,-92,14,9,-48,14,-29,-43
-58,-117,-58,87,0,-87,9,9,-48,14,-19,-43
-48,-107,-58,78,4,-82,4,9,-48,14,-14,-34
-39,-82,-43,61,2,-63,4,9,-39,29,-9,-24
-39,-68,-29,53,-4,-48,-9,0,-29,34,9,-4
-34,-53,-19,43,-7,-36,-29,-9,-29,39,14,-4
-29,-43,-14,36,-7,-29,-43,-14,-34,39,19,0
-29,-34,-4,31,-12,-19,-53,-24,-34,39,19,0
-19,-53,-34,36,7,-43,-63,-34,-34,39,14,0
-9,-58,-48,34,19,-53,-73,-34,-39,34,9,0
-9,-63,-53,36,21,-58,-73,-43,-48,34,9,0
0,-63,-63,31,31,-63,-87,-43,-53,34,9,0
4,-73,-78,34,41,-75,-92,-53,-58,24,4,0
14,-58,-73,21,43,-65,-102,-53,-63,24,4,4
14,-43,-58,14,36,-51,-102,-53,-63,24,9,9
14,-43,-58,14,36,-51,-102,-53,-68,24,9,9
19,-48,-68,14,43,-58,-107,-43,-58,24,19,9
14,-48,-63,17,39,-56,-92,-43,-58,29,19,9
14,-43,-58,14,36,-51,-92,-39,-58,29,19,9
19,-43,-63,12,41,-53,-92,-39,-58,29,9,9
9,-48,-58,19,34,-53,-92,-48,-63,19,0,-9
0,-58,-58,29,29,-58,-82,-43,-68,19,-4,-9
0,-78,-78,39,39,-78,-78,-34,-68,19,-4,-9
0,-87,-87,43,43,-87,-73,-29,-68,19,0,-4
0,-82,-82,41,41,-82,-58,-24,-58,24,9,4
0,-92,-92,46,46,-92,-53,-14,-58,24,4,4
0,-107,-107,53,53,-107,-53,-14,-68,14,0,-4
-14,-122,-107,68,46,-114,-53,-14,-78,4,-14,-14
-34,-117,-82,75,24,-100,-53,-24,-87,4,-29,-34
-39,-117,-78,78,19,-97,-48,-19,-87,0,-29,-34
-48,-122,-73,85,12,-97,-43,-19,-92,0,-34,-39
-53,-131,-78,92,12,-104,-43,-29,-97,-4,-43,-53
-58,-161,-102,109,21,-131,-43,-39,-112,-29,-53,-53
-68,-175,-107,122,19,-141,-43,-34,-122,-43,-63,-63
-68,-195,-126,131,29,-161,-39,-34,-122,-53,-73,-73
-73,-219,-146,146,36,-183,-29,-34,-126,-58,-82,-78
-82,-209,-126,146,21,-168,-29,-19,-126,-48,-73,-78
-82,-209,-126,146,21,-168,-29,-19,-126,-43,-73,-87
-82,-214,-131,148,24,-173,-24,-19,-126,-43,-73,-78
-82,-214,-131,148,24,-173,-24,-19,-131,-48,-73,-78
-82,-224,-141,153,29,-183,-29,-19,-122,-48,-78,-73
-82,-229,-146,156,31,-187,-29,-19,-126,-48,-78,-73
-87,-234,-146,161,29,-190,-29,-19,-126,-48,-78,-73
-87,-234,-146,161,29,-190,-29,-19,-131,-48,-78,-73
-97,-234,-136,165,19,-185,-29,-19,-141,-58,-82,-78
-97,-229,-131,163,17,-180,-29,-19,-141,-58,-87,-82
-97,-229,-131,163,17,-180,-29,-24,-141,-63,-92,-87
-97,-239,-141,168,21,-190,-29,-24,-141,-63,-102,-97
-87,-244,-156,165,34,-200,-29,-14,-141,-63,-92,-87
-82,-244,-161,163,39,-202,-29,-9,-141,-63,-92,-87
-78,-239,-161,158,41,-200,-24,-9,-141,-63,-92,-87
-73,-239,-165,156,46,-202,-24,-9,-141,-63,-97,-87
-87,-248,-161,168,36,-204,-14,-9,-131,-58,-97,-92
-87,-248,-161,168,36,-204,-14,-9,-131,-58,-97,-92
-82,-239,-156,161,36,-197,-14,-9,-131,-58,-97,-92
-82,-239,-156,161,36,-197,-14,-9,-136,-58,-102,-92
-82,-239,-156,161,36,-197,-24,-19,-136,-68,-97,-82
-82,-244,-161,163,39,-202,-24,-19,-141,-68,-92,-82
-82,-244,-161,163,39,-202,-24,-19,-141,-68,-87,-82
-82,-248,-165,165,41,-207,-24,-19,-136,-68,-78,-82
-73,-248,-175,161,51,-212,-14,-9,-136,-63,-92,-87
-73,-248,-175,161,51,-212,-14,-9,-131,-63,-92,-87
-73,-248,-175,161,51,-212,-9,-9,-131,-58,-97,-87
-73,-248,-175,161,51,-212,-9,-4,-131,-58,-102,-87
-73,-253,-180,163,53,-217,0,4,-126,-48,-97,-82
-73,-253,-180,163,53,-217,0,4,-126,-39,-92,-82
-73,-253,-180,163,53,-217,0,4,-126,-39,-92,-82
-73,-253,-180,163,53,-217,0,4,-122,-43,-92,-82
-82,-244,-161,163,39,-202,0,-9,-131,-53,-92,-82
-82,-224,-141,153,29,-183,-4,-14,-131,-53,-102,-82
-82,-204,-122,143,19,-163,-14,-19,-131,-53,-102,-82
-82,-195,-112,139,14,-153,-19,-24,-131,-53,-97,-87
-73,-214,-141,143,34,-178,4,4,-112,-43,-78,-68
-73,-200,-126,136,26,-163,9,4,-112,-48,-82,-78
-78,-204,-126,141,24,-165,19,9,-117,-68,-102,-97
-107,-234,-126,170,9,-180,24,14,-117,-73,-131,-126
-131,-263,-131,197,0,-197,53,34,-117,-92,-146,-151
-151,-287,-136,219,-7,-212,102,58,-112,-102,-165,-175
-190,-297,-107,244,-41,-202,126,78,-107,-122,-200,-219
-229,-336,-107,283,-61,-222,170,97,-78,-122,-209,-234
-239,-346,-107,292,-65,-226,185,112,-73,-131,-219,-253
-239,-336,-97,287,-70,-217,219,131,-53,-126,-219,-258
-229,-317,-87,273,-70,-202,253,180,-24,-97,-185,-244
-195,-297,-102,246,-46,-200,278,229,19,-53,-146,-195
-156,-244,-87,200,-34,-165,292,268,122,58,-34,-97
-117,-161,-43,139,-36,-102,302,297,224,161,73,-4
-58,-53,4,56,-31,-24,297,322,326,278,185,112
14,78,63,-46,-24,70,263,331,434,405,331,239
73,200,126,-136,-26,163,219,317,497,492,434,341
190,361,170,-275,9,265,102,229,546,629,610,522
302,492,190,-397,56,341,0,151,595,756,785,692
458,649,190,-553,134,419,-190,34,624,917,990,907
644,854,209,-749,217,531,-448,-126,624,1078,1239,1151
800,1044,244,-922,278,644,-683,-287,600,1190,1424,1346
1024,1283,258,-1154,383,771,-1015,-473,570,1381,1698,1629
1176,1454,278,-1315,448,866,-1229,-585,556,1532,1893,1839
1332,1590,258,-1461,536,924,-1415,-683,566,1688,2078,2034
1483,1688,204,-1586,639,946,-1586,-741,566,1839,2259,2210
1551,1683,131,-1617,710,907,-1678,-771,531,1903,2318,2288
1600,1644,43,-1622,778,844,-1825,-946,351,1820,2283,2308
1600,1488,-112,-1544,856,688,-1893,-1039,224,1712,2161,2235
1537,1205,-331,-1371,934,436,-1834,-1044,82,1537,1932,2078
1410,858,-551,-1134,980,153,-1703,-971,-63,1298,1620,1859
1249,658,-590,-954,919,34,-1537,-932,-175,1058,1351,1654
985,366,-619,-675,802,-126,-1322,-936,-556,419,751,1156
814,180,-634,-497,724,-226,-1151,-893,-756,29,375,824
639,43,-595,-341,617,-275,-961,-795,-849,-224,102,536
468,-53,-522,-207,495,-287,-771,-673,-849,-366,-107,297
405,-73,-478,-165,441,-275,-649,-570,-771,-346,-146,214
307,-78,-385,-114,346,-231,-522,-448,-629,-278,-146,146
239,-82,-322,-78,280,-202,-414,-356,-517,-229,-141,102
170,-87,-258,-41,214,-173,-302,-258,-395,-161,-126,63
112,-82,-195,-14,153,-139,-195,-161,-283,-112,-117,19
58,-126,-185,34,122,-156,-131,-107,-224,-97,-117,-19
24,-141,-165,58,95,-153,-53,-29,-146,-58,-117,-58
-24,-151,-126,87,51,-139,-9,9,-117,-48,-126,-82
-58,-190,-131,124,36,-161,34,53,-82,-39,-136,-97
-82,-253,-170,168,43,-212,82,87,-53,-24,-126,-102
-107,-273,-165,190,29,-219,97,97,-43,-24,-126,-126
-107,-239,-131,173,12,-185,92,102,-43,-34,-131,-136
-112,-239,-126,175,7,-183,107,102,-39,-43,-141,-141
-112,-244,-131,178,9,-187,117,107,-34,-43,-141,-141
-117,-248,-131,183,7,-190,117,112,-34,-43,-141,-141
-117,-248,-131,183,7,-190,117,117,-34,-43,-141,-146
-117,-239,-122,178,2,-180,117,117,-43,-43,-131,-136
-117,-239,-122,178,2,-180,122,117,-34,-43,-131,-136
-117,-234,-117,175,0,-175,126,117,-34,-39,-131,-136
-117,-234,-117,175,0,-175,126,122,-34,-39,-131,-136
-117,-209,-92,163,-12,-151,126,112,-43,-48,-141,-141
-126,-224,-97,175,-14,-161,126,112,-43,-53,-141,-141
-117,-224,-107,170,-4,-165,126,117,-43,-53,-136,-146
-117,-224,-107,170,-4,-165,131,117,-39,-48,-136,-151
-117,-229,-112,173,-2,-170,141,131,-34,-43,-126,-141
-117,-229,-112,173,-2,-170,146,131,-29,-39,-126,-136
-122,-234,-112,178,-4,-173,146,131,-19,-34,-126,-136
-122,-234,-112,178,-4,-173,146,131,-14,-24,-126,-131
-122,-244,-122,183,0,-183,141,122,-4,-34,-131,-122
-126,-244,-117,185,-4,-180,141,126,0,-34,-131,-122
-131,-244,-112,187,-9,-178,136,126,0,-34,-131,-122
-141,-244,-102,192,-19,-173,131,126,0,-34,-131,-112
-136,-234,-97,185,-19,-165,141,131,-4,-34,-131,-117
-131,-234,-102,183,-14,-168,141,131,0,-29,-126,-122
-126,-234,-107,180,-9,-170,146,131,0,-24,-126,-122
-126,-234,-107,180,-9,-170,146,131,4,-24,-126,-126
-136,-229,-92,183,-21,-161,146,131,4,-29,-126,-117
-136,-229,-92,183,-21,-161,146,131,4,-29,-126,-122
-131,-229,-97,180,-17,-163,151,136,9,-29,-126,-122
-131,-229,-97,180,-17,-163,151,136,14,-24,-126,-117
-131,-234,-102,183,-14,-168,161,151,14,-24,-126,-117
-131,-244,-112,187,-9,-178,165,151,14,-24,-122,-117
-131,-248,-117,190,-7,-183,165,151,19,-24,-122,-117
-131,-253,-122,192,-4,-187,165,151,19,-24,-122,-117
-126,-239,-112,183,-7,-175,161,151,19,-24,-122,-117
-122,-229,-107,175,-7,-168,156,151,19,-24,-122,-122
-117,-224,-107,170,-4,-165,151,151,19,-24,-122,-122
-117,-219,-102,168,-7,-161,146,151,19,-24,-122,-122
-117,-204,-87,161,-14,-146,156,146,19,-34,-122,-122
-117,-209,-92,163,-12,-151,156,151,24,-34,-122,-122
-117,-204,-87,161,-14,-146,156,151,24,-34,-122,-122
-117,-195,-78,156,-19,-136,156,151,29,-29,-122,-122
-117,-204,-87,161,-14,-146,161,161,39,-19,-112,-112
-112,-209,-97,161,-7,-153,161,165,43,-19,-112,-112
-112,-219,-107,165,-2,-163,165,170,48,-14,-107,-112
-112,-224,-112,168,0,-168,165,170,48,-14,-107,-107
-122,-234,-112,178,-4,-173,165,175,43,-14,-117,-117
-122,-234,-112,178,-4,-173,165,175,43,-9,-117,-117
-122,-234,-112,178,-4,-173,175,180,43,-9,-112,-112
-122,-229,-107,175,-7,-168,175,185,53,0,-107,-112
-122,-224,-102,173,-9,-163,165,180,53,0,-107,-117
-122,-219,-97,170,-12,-158,165,180,58,0,-107,-117
-122,-204,-82,163,-19,-143,165,180,58,0,-107,-117
-122,-195,-73,158,-24,-134,165,185,58,0,-112,-126
-131,-195,-63,163,-34,-129,170,195,63,-9,-122,-117
-131,-200,-68,165,-31,-134,180,200,63,0,-122,-117
-131,-209,-78,170,-26,-143,180,204,73,4,-117,-117
-136,-224,-87,180,-24,-156,185,209,78,4,-117,-117
-126,-229,-102,178,-12,-165,190,224,82,24,-107,-112
-122,-224,-102,173,-9,-163,200,229,92,24,-102,-112
-122,-229,-107,175,-7,-168,209,234,97,24,-102,-112
-122,-244,-122,183,0,-183,214,239,102,24,-102,-112
-122,-234,-112,178,-4,-173,214,234,107,24,-97,-107
-122,-229,-107,175,-7,-168,219,234,112,24,-97,-107
-122,-209,-87,165,-17,-148,219,244,112,29,-97,-107
-122,-190,-68,156,-26,-129,219,244,117,34,-92,-107
-122,-180,-58,151,-31,-119,214,248,126,53,-82,-97
-122,-180,-58,151,-31,-119,214,253,136,58,-78,-97
-122,-180,-58,151,-31,-119,224,258,141,58,-78,-92
-117,-190,-73,153,-21,-131,229,273,151,63,-73,-92
-107,-180,-73,143,-17,-126,234,278,146,58,-78,-102
-107,-190,-82,148,-12,-136,234,283,151,63,-82,-102
-112,-190,-78,151,-17,-134,239,287,165,63,-78,-97
-112,-190,-78,151,-17,-134,244,292,175,63,-78,-97
-107,-180,-73,143,-17,-126,258,307,190,73,-73,-92
-107,-175,-68,141,-19,-122,268,312,200,78,-73,-92
-107,-161,-53,134,-26,-107,268,317,209,87,-73,-87
-107,-151,-43,129,-31,-97,268,326,214,92,-63,-82
-112,-156,-43,134,-34,-100,278,346,229,97,-53,-78
-112,-156,-43,134,-34,-100,287,356,239,107,-43,-78
-117,-161,-43,139,-36,-102,297,366,248,112,-43,-78
-122,-156,-34,139,-43,-95,302,375,263,122,-39,-73
-117,-141,-24,129,-46,-82,307,385,273,126,-34,-73
-112,-131,-19,122,-46,-75,312,395,283,131,-34,-68
-107,-131,-24,119,-41,-78,317,405,297,141,-34,-63
-102,-141,-39,122,-31,-90,322,414,307,151,-24,-63
-102,-131,-29,117,-36,-80,331,434,312,151,-29,-63
-102,-122,-19,112,-41,-70,336,448,326,161,-19,-58
-97,-112,-14,104,-41,-63,341,453,341,170,-19,-58
-97,-112,-14,104,-41,-63,346,468,351,180,-9,-53
-87,-112,-24,100,-31,-68,351,478,370,200,4,-34
-82,-97,-14,90,-34,-56,351,478,375,209,14,-29
-82,-87,-4,85,-39,-46,351,483,395,219,24,-24
-82,-73,9,78,-46,-31,356,488,400,229,29,-19
-82,-63,19,73,-51,-21,361,502,419,239,24,-14
-87,-63,24,75,-56,-19,366,512,429,248,39,-9
-92,-63,29,78,-61,-17,366,512,444,258,48,-4
-97,-63,34,80,-65,-14,366,522,453,268,53,0
-82,-48,34,65,-58,-7,366,527,458,283,58,9
-82,-39,43,61,-63,2,366,531,478,292,73,29
-78,-24,53,51,-65,14,370,541,488,302,87,39
-78,-4,73,41,-75,34,370,541,502,317,92,48
-78,0,78,39,-78,39,380,556,522,326,112,53
-73,14,87,29,-80,51,380,561,531,336,122,63
-73,14,87,29,-80,51,380,561,541,351,136,73
-63,19,82,21,-73,51,375,561,551,361,146,82
-53,39,92,7,-73,65,366,561,551,361,156,82
-58,43,102,7,-80,73,361,551,556,366,156,92
-58,58,117,0,-87,87,356,546,561,375,161,102
-53,68,122,-7,-87,95,346,541,570,375,170,107
-39,87,126,-24,-82,107,341,531,570,385,190,117
-39,102,141,-31,-90,122,331,527,566,385,200,126
-39,117,156,-39,-97,136,322,512,566,385,200,136
-29,136,165,-53,-97,151,312,502,561,390,200,146
-34,126,161,-46,-97,143,307,502,566,395,214,156
-29,136,165,-53,-97,151,302,492,566,400,219,165
-24,126,151,-51,-87,139,292,478,556,414,229,175
-24,117,141,-46,-82,129,283,468,556,429,244,185
-24,126,151,-51,-87,139,253,448,541,414,234,185
-19,136,156,-58,-87,146,244,429,531,409,244,190
-19,161,180,-70,-100,170,229,405,517,405,248,190
-9,175,185,-82,-97,180,214,380,512,395,253,200
-9,175,185,-82,-97,180,200,370,512,390,258,200
0,180,180,-90,-90,180,185,351,497,390,258,209
4,185,180,-95,-87,183,170,331,478,390,258,219
9,185,175,-97,-82,180,156,317,463,395,258,219
9,175,165,-92,-78,170,151,307,458,375,258,229
9,170,161,-90,-75,165,136,287,439,370,258,229
14,165,151,-90,-68,158,122,273,419,356,253,224
19,161,141,-90,-61,151,107,253,395,346,253,224
29,170,141,-100,-56,156,92,224,370,336,234,214
29,161,131,-95,-51,146,78,209,341,322,224,209
29,156,126,-92,-48,141,73,190,317,297,214,200
29,146,117,-87,-43,131,63,180,297,283,200,190
29,136,107,-82,-39,122,53,165,268,253,180,170
29,107,78,-68,-24,92,43,151,248,239,170,161
29,92,63,-61,-17,78,43,136,224,219,151,156
29,78,48,-53,-9,63,39,126,200,204,136,141
39,63,24,-51,7,43,39,122,185,185,126,136
34,53,19,-43,7,36,34,107,161,175,117,122
34,39,4,-36,14,21,29,102,146,161,107,122
29,29,0,-29,14,14,19,87,131,151,97,107
19,14,-4,-17,12,4,9,78,107,122,73,92
14,-4,-19,-4,17,-12,9,73,87,112,68,82
9,-24,-34,7,21,-29,4,63,68,97,48,73
9,-24,-34,7,21,-29,4,58,48,82,29,63
9,-24,-34,7,21,-29,4,48,48,68,19,58
9,-34,-43,12,26,-39,0,43,34,63,14,48
4,-48,-53,21,29,-51,0,39,29,48,0,39
0,-58,-58,29,29,-58,0,39,9,39,-14,24
9,-48,-58,19,34,-53,-9,34,0,24,-24,4
9,-53,-63,21,36,-58,-9,29,-9,19,-34,4
4,-53,-58,24,31,-56,-9,29,-14,14,-39,0
0,-48,-48,24,24,-48,-9,24,-24,4,-53,-9
-9,-63,-53,36,21,-58,0,34,-24,0,-58,-9
-9,-78,-68,43,29,-73,0,29,-29,4,-58,-9
-14,-87,-73,51,29,-80,0,29,-43,4,-58,-9
-14,-102,-87,58,36,-95,0,29,-43,4,-58,-9
-19,-92,-73,56,26,-82,0,19,-48,0,-63,-14
-19,-97,-78,58,29,-87,0,19,-48,-4,-63,-19
-19,-102,-82,61,31,-92,0,19,-48,-4,-68,-19
-19,-107,-87,63,34,-97,0,19,-48,-9,-73,-19
-19,-117,-97,68,39,-107,9,29,-63,-19,-73,-29
-24,-122,-97,73,36,-109,9,29,-63,-19,-78,-29
-24,-131,-107,78,41,-119,9,29,-68,-19,-78,-29
-24,-136,-112,80,43,-124,9,29,-68,-19,-82,-34
-24,-131,-107,78,41,-119,0,19,-73,-29,-92,-34
-24,-126,-102,75,39,-114,0,14,-73,-29,-97,-34
-24,-126,-102,75,39,-114,0,14,-73,-34,-97,-39
-24,-122,-97,73,36,-109,0,19,-73,-34,-97,-39
-14,-107,-92,61,39,-100,-9,9,-82,-34,-92,-48
-14,-102,-87,58,36,-95,-4,9,-82,-34,-92,-48
-14,-102,-87,58,36,-95,-4,9,-82,-34,-92,-48
-14,-97,-82,56,34,-90,-4,9,-82,-34,-92,-48
-24,-97,-73,61,24,-85,-4,9,-73,-29,-87,-43
-24,-97,-73,61,24,-85,-4,9,-73,-34,-92,-43
-29,-97,-68,63,19,-82,-4,9,-82,-34,-92,-43
-29,-102,-73,65,21,-87,-9,9,-82,-34,-97,-48
-19,-122,-102,70,41,-112,-4,19,-78,-39,-87,-48
-19,-126,-107,73,43,-117,4,19,-78,-39,-87,-43
-19,-126,-107,73,43,-117,9,19,-78,-39,-87,-43
-14,-131,-117,73,51,-124,14,24,-78,-39,-82,-43
-24,-131,-107,78,41,-119,19,24,-73,-29,-73,-43
-24,-131,-107,78,41,-119,19,24,-73,-34,-73,-53
-24,-131,-107,78,41,-119,19,24,-78,-34,-73,-53
-24,-126,-102,75,39,-114,19,24,-78,-34,-78,-48
-14,-112,-97,63,41,-104,14,19,-87,-39,-78,-53
-14,-107,-92,61,39,-100,9,14,-92,-43,-78,-58
-14,-102,-87,58,36,-95,4,9,-92,-48,-78,-63
-19,-107,-87,63,34,-97,0,4,-87,-53,-78,-68
-19,-107,-87,63,34,-97,9,4,-78,-43,-73,-53
-14,-102,-87,58,36,-95,9,4,-73,-43,-63,-48
-14,-102,-87,58,36,-95,9,4,-73,-39,-58,-43
-19,-102,-82,61,31,-92,9,4,-73,-39,-53,-39
-19,-112,-92,65,36,-102,19,9,-82,-48,-63,-58
-19,-112,-92,65,36,-102,24,14,-73,-39,-68,-58
-19,-117,-97,68,39,-107,24,24,-73,-39,-73,-53
-19,-122,-102,70,41,-112,24,29,-73,-39,-78,-53
-34,-136,-102,85,34,-119,34,29,-63,-29,-73,-53
-34,-141,-107,87,36,-124,34,29,-63,-34,-73,-58
-34,-136,-102,85,34,-119,34,29,-63,-34,-73,-58
-39,-141,-102,90,31,-122,34,29,-63,-34,-73,-53
-29,-131,-102,80,36,-117,24,29,-73,-43,-63,-53
-29,-126,-97,78,34,-112,29,29,-68,-43,-63,-58
-29,-122,-92,75,31,-107,29,29,-68,-43,-63,-58
-34,-122,-87,78,26,-104,29,29,-68,-43,-68,-63
-34,-122,-87,78,26,-104,34,29,-58,-34,-68,-53
-34,-122,-87,78,26,-104,34,29,-58,-34,-68,-53
-34,-122,-87,78,26,-104,34,29,-58,-34,-63,-53
-39,-122,-82,80,21,-102,34,29,-58,-43,-63,-53
-39,-131,-92,85,26,-112,43,39,-58,-34,-63,-63
-39,-131,-92,85,26,-112,43,39,-58,-34,-63,-63
-39,-131,-92,85,26,-112,48,39,-63,-34,-68,-63
-39,-126,-87,82,24,-107,48,34,-63,-34,-68,-63
-29,-117,-87,73,29,-102,39,34,-63,-43,-78,-73
-39,-122,-82,80,21,-102,39,34,-63,-43,-78,-73
-39,-122,-82,80,21,-102,39,34,-63,-43,-78,-73
-34,-122,-87,78,26,-104,39,34,-58,-43,-78,-73
-34,-131,-97,82,31,-114,39,24,-58,-53,-73,-73
-34,-126,-92,80,29,-109,34,24,-58,-53,-73,-73
-43,-126,-82,85,19,-104,34,24,-63,-53,-73,-73
-43,-126,-82,85,19,-104,34,24,-63,-53,-73,-73
-39,-131,-92,85,26,-112,34,24,-63,-43,-73,-73
-39,-131,-92,85,26,-112,34,24,-58,-43,-73,-73
-39,-131,-92,85,26,-112,39,24,-58,-43,-73,-73
-48,-141,-92,95,21,-117,39,24,-58,-43,-73,-73
-48,-136,-87,92,19,-112,39,24,-58,-43,-68,-68
-48,-126,-78,87,14,-102,39,24,-58,-43,-73,-73
-48,-122,-73,85,12,-97,39,24,-58,-48,-78,-73
-48,-117,-68,82,9,-92,43,29,-58,-48,-78,-73
-58,-107,-48,82,-4,-78,43,19,-68,-58,-78,-78
-58,-112,-53,85,-2,-82,43,19,-68,-58,-82,-82
-58,-112,-53,85,-2,-82,48,19,-68,-58,-92,-87
-58,-112,-53,85,-2,-82,48,19,-68,-58,-97,-92
-58,-126,-68,92,4,-97,53,29,-58,-48,-87,-82
-58,-131,-73,95,7,-102,53,29,-63,-48,-87,-82
-58,-136,-78,97,9,-107,53,29,-63,-48,-87,-82
-58,-141,-82,100,12,-112,53,24,-63,-48,-87,-82
-48,-131,-82,90,17,-107,48,24,-53,-58,-82,-78
-48,-126,-78,87,14,-102,48,24,-53,-48,-78,-78
-39,-126,-87,82,24,-107,48,24,-53,-48,-68,-73
-39,-126,-87,82,24,-107,48,24,-53,-48,-63,-73
-39,-126,-87,82,24,-107,43,14,-58,-53,-78,-78
-43,-112,-68,78,12,-90,39,9,-63,-58,-82,-78
-43,-97,-53,70,4,-75,34,9,-68,-63,-87,-82
-48,-73,-24,61,-12,-48,29,4,-73,-73,-92,-92
-48,-97,-48,73,0,-73,39,9,-68,-68,-87,-82
-53,-112,-58,82,2,-85,39,19,-68,-68,-87,-87
-53,-126,-73,90,9,-100,39,24,-68,-63,-87,-87
-53,-146,-92,100,19,-119,39,29,-68,-63,-87,-82
-39,-136,-97,87,29,-117,48,29,-63,-48,-78,-82
-34,-131,-97,82,31,-114,53,29,-63,-48,-78,-82
-34,-131,-97,82,31,-114,53,29,-68,-48,-82,-82
-39,-131,-92,85,26,-112,48,29,-68,-53,-82,-82
-48,-136,-87,92,19,-112,43,29,-73,-63,-87,-82
-58,-151,-92,104,17,-122,43,24,-73,-63,-87,-82
-48,-146,-97,97,24,-122,39,24,-73,-63,-87,-82
-43,-151,-107,97,31,-129,39,24,-73,-63,-87,-82
-43,-136,-92,90,24,-114,39,14,-73,-63,-97,-92
-43,-131,-87,87,21,-109,39,14,-73,-63,-97,-92
-43,-126,-82,85,19,-104,43,14,-78,-63,-97,-92
-43,-122,-78,82,17,-100,43,14,-78,-68,-97,-92
-43,-112,-68,78,12,-90,34,9,-87,-68,-97,-92
-43,-112,-68,78,12,-90,29,9,-87,-68,-97,-92
-39,-112,-73,75,17,-92,29,9,-87,-68,-97,-92
-39,-112,-73,75,17,-92,29,9,-87,-68,-97,-92
-39,-112,-73,75,17,-92,39,19,-78,-58,-87,-82
-39,-117,-78,78,19,-97,39,19,-78,-58,-82,-82
-43,-122,-78,82,17,-100,34,14,-78,-58,-82,-82
-43,-122,-78,82,17,-100,34,14,-78,-58,-87,-78
-29,-126,-97,78,34,-112,34,9,-87,-58,-87,-78
-29,-122,-92,75,31,-107,34,9,-87,-58,-87,-78
-29,-117,-87,73,29,-102,39,4,-87,-63,-82,-78
-29,-112,-82,70,26,-97,39,4,-87,-68,-82,-82
-39,-122,-82,80,21,-102,39,0,-92,-68,-97,-82
-39,-122,-82,80,21,-102,39,0,-92,-63,-97,-78
-43,-131,-87,87,21,-109,39,4,-92,-58,-97,-78
-43,-136,-92,90,24,-114,34,4,-92,-58,-97,-78
-34,-126,-92,80,29,-109,43,14,-87,-53,-87,-68
-34,-122,-87,78,26,-104,43,14,-82,-53,-87,-68
-34,-112,-78,73,21,-95,43,14,-78,-53,-92,-78
-34,-126,-92,80,29,-109,43,14,-73,-53,-92,-78
-34,-126,-92,80,29,-109,34,4,-78,-63,-97,-78
-29,-126,-97,78,34,-112,34,4,-82,-63,-102,-82
-29,-126,-97,78,34,-112,39,4,-87,-63,-102,-87
-24,-122,-97,73,36,-109,39,4,-92,-63,-102,-87
-24,-122,-97,73,36,-109,34,14,-82,-63,-92,-87
-24,-122,-97,73,36,-109,29,9,-87,-68,-97,-87
-24,-126,-102,75,39,-114,29,4,-87,-68,-97,-87
-24,-126,-102,75,39,-114,29,4,-87,-63,-97,-87
-34,-117,-82,75,24,-100,29,0,-87,-63,-87,-78
-34,-117,-82,75,24,-100,29,0,-87,-63,-87,-78
-34,-112,-78,73,21,-95,29,0,-87,-63,-87,-78
-34,-102,-68,68,17,-85,24,0,-87,-63,-87,-78
-34,-112,-78,73,21,-95,34,4,-78,-53,-97,-78
-34,-131,-97,82,31,-114,34,4,-78,-53,-97,-73
-34,-146,-112,90,39,-129,34,9,-78,-53,-97,-73
-34,-156,-122,95,43,-139,29,14,-78,-53,-97,-73
-24,-141,-117,82,46,-129,39,4,-92,-53,-87,-78
-24,-136,-112,80,43,-124,39,4,-92,-53,-87,-73
-24,-126,-102,75,39,-114,39,4,-87,-53,-87,-73
-19,-112,-92,65,36,-102,39,4,-87,-53,-87,-73
-29,-112,-82,70,26,-97,39,4,-78,-43,-82,-73
-19,-92,-73,56,26,-82,48,14,-68,-34,-73,-68
-19,-73,-53,46,17,-63,48,4,-58,-29,-68,-58
-19,-63,-43,41,12,-53,48,14,-53,-19,-63,-48
0,-48,-48,24,24,-48,58,19,-39,0,-48,-39
0,-34,-34,17,17,-34,58,19,-29,-9,-48,-39
0,-29,-29,14,14,-29,58,19,-29,-9,-48,-39
0,-24,-24,12,12,-24,58,19,-29,-9,-48,-39
0,-19,-19,9,9,-19,58,19,-29,-9,-48,-39
0,-29,-29,14,14,-29,68,14,-24,0,-39,-39
-4,-29,-24,17,9,-26,68,14,-24,0,-39,-39
-4,-24,-19,14,7,-21,68,14,-24,4,-39,-39
9,-14,-24,2,17,-19,68,14,-19,4,-39,-39
0,0,0,0,0,0,53,0,-29,-4,-48,-43
0,0,0,0,0,0,48,0,-29,-4,-39,-43
9,4,-4,-7,7,0,43,0,-29,-4,-34,-34
19,24,4,-21,7,14,43,0,-19,9,-29,-24
39,48,9,-43,14,29,39,-9,0,24,-9,-9
43,63,19,-53,12,41,19,-19,0,29,-4,-4
48,73,24,-61,12,48,4,-24,-4,29,0,4
48,82,34,-65,7,58,-4,-34,-4,29,0,9
39,73,34,-56,2,53,-14,-43,-24,9,-4,0
48,68,19,-58,14,43,-24,-43,-29,4,-9,0
48,63,14,-56,17,39,-24,-53,-39,4,-9,0
58,63,4,-61,26,34,-39,-53,-43,4,-9,0
53,58,4,-56,24,31,-43,-63,-34,14,-4,0
63,68,4,-65,29,36,-53,-63,-34,14,-4,4
63,78,14,-70,24,46,-53,-63,-29,14,0,9
63,73,9,-68,26,41,-53,-63,-29,14,0,9
73,53,-19,-63,46,17,-39,-53,-29,14,-9,9
63,48,-14,-56,39,17,-24,-53,-29,19,-9,9
58,48,-9,-53,34,19,-24,-48,-29,19,-9,9
58,43,-14,-51,36,14,-24,-48,-29,19,-19,9
58,43,-14,-51,36,14,-34,-48,-34,19,-14,9
48,39,-9,-43,29,14,-24,-43,-39,19,-14,9
48,24,-24,-36,36,0,-19,-34,-39,19,-9,9
48,19,-29,-34,39,-4,-14,-29,-39,19,0,14
48,24,-24,-36,36,0,-9,-34,-29,14,-4,4
48,14,-34,-31,41,-9,-4,-24,-29,14,-14,4
48,0,-48,-24,48,-24,-4,-24,-39,4,-24,-4
34,-14,-48,-9,41,-31,-4,-24,-48,-4,-43,-14
34,-29,-63,-2,48,-46,4,-24,-58,4,-43,-24
29,-39,-68,4,48,-53,9,-19,-58,0,-39,-24
19,-53,-73,17,46,-63,14,-19,-63,0,-39,-29
14,-73,-87,29,51,-80,14,-29,-68,-4,-43,-43
-9,-73,-63,41,26,-68,4,-39,-73,-29,-53,-53
-19,-78,-58,48,19,-68,4,-34,-82,-43,-63,-63
-19,-87,-68,53,24,-78,9,-34,-82,-53,-73,-73
-24,-102,-78,63,26,-90,19,-34,-87,-58,-82,-78
-34,-112,-78,73,21,-95,29,-24,-97,-58,-87,-87
-34,-122,-87,78,26,-104,29,-19,-97,-53,-92,-97
-34,-136,-102,85,34,-119,34,-14,-97,-53,-97,-87
-34,-146,-112,90,39,-129,34,-9,-102,-58,-102,-87
-24,-146,-122,85,48,-134,39,0,-92,-58,-107,-92
-24,-151,-126,87,51,-139,39,0,-97,-58,-107,-92
-29,-156,-126,92,48,-141,39,0,-97,-58,-107,-92
-29,-156,-126,92,48,-141,39,0,-102,-58,-107,-92
-29,-146,-117,87,43,-131,39,0,-102,-58,-107,-92
-29,-141,-112,85,41,-126,39,0,-102,-58,-107,-92
-29,-141,-112,85,41,-126,39,-4,-102,-63,-107,-92
-29,-151,-122,90,46,-136,39,-4,-102,-63,-112,-97
-34,-156,-122,95,43,-139,29,-9,-107,-63,-112,-107
-34,-156,-122,95,43,-139,29,-9,-112,-63,-112,-107
-34,-151,-117,92,41,-134,34,-14,-117,-63,-112,-107
-34,-151,-117,92,41,-134,34,-19,-122,-63,-117,-107
-34,-156,-122,95,43,-139,34,-9,-112,-58,-107,-97
-29,-161,-131,95,51,-146,34,-9,-112,-58,-107,-92
-19,-156,-136,87,58,-146,34,-9,-112,-58,-107,-87
-14,-161,-146,87,65,-153,34,-9,-117,-58,-112,-82
-19,-151,-131,85,56,-141,34,-9,-117,-68,-122,-92
-24,-156,-131,90,53,-143,34,-9,-122,-68,-122,-92
-29,-156,-126,92,48,-141,34,-9,-122,-68,-122,-92
-34,-161,-126,97,46,-143,34,-9,-117,-68,-117,-92
-34,-161,-126,97,46,-143,34,0,-117,-63,-107,-87
-34,-161,-126,97,46,-143,34,0,-112,-63,-102,-87
-34,-161,-126,97,46,-143,39,0,-112,-58,-102,-87
-34,-161,-126,97,46,-143,39,4,-112,-58,-102,-87
-24,-170,-146,97,61,-158,43,14,-97,-48,-87,-73
-24,-175,-151,100,63,-163,48,14,-97,-39,-82,-73
-24,-180,-156,102,65,-168,53,14,-97,-39,-82,-73
-24,-185,-161,104,68,-173,58,14,-92,-43,-82,-73
-34,-175,-141,104,53,-158,58,4,-102,-53,-87,-82
-34,-165,-131,100,48,-148,53,4,-102,-53,-102,-82
-34,-156,-122,95,43,-139,43,4,-102,-53,-107,-82
-34,-156,-122,95,43,-139,39,4,-102,-53,-107,-87
-24,-146,-122,85,48,-134,53,4,-102,-53,-107,-87
-34,-161,-126,97,46,-143,68,14,-102,-58,-122,-107
-39,-175,-136,107,48,-156,87,29,-97,-68,-141,-136
-58,-214,-156,136,48,-185,102,34,-97,-82,-161,-156
-82,-253,-170,168,43,-212,141,73,-78,-92,-175,-170
-112,-278,-165,195,26,-222,180,87,-73,-102,-204,-195
-151,-297,-146,224,-2,-222,214,107,-68,-122,-219,-229
-190,-307,-117,248,-36,-212,239,117,-58,-131,-239,-244
-180,-278,-97,229,-41,-187,263,141,-43,-131,-248,-253
-170,-268,-97,219,-36,-183,287,170,-14,-107,-219,-248
-161,-258,-97,209,-31,-178,312,209,34,-68,-185,-224
-126,-200,-73,163,-26,-136,326,239,107,14,-107,-146
-78,-107,-29,92,-24,-68,341,268,219,126,24,-39
-39,-14,24,26,-31,4,322,287,322,239,141,73
39,112,73,-75,-17,92,297,302,444,385,322,229
112,224,112,-168,0,168,263,292,522,492,448,346
190,336,146,-263,21,241,180,239,575,619,590,497
287,468,180,-378,53,324,53,141,624,746,775,678
390,590,200,-490,95,395,-78,63,653,863,941,839
566,863,297,-714,134,580,-366,-141,614,1015,1176,1093
732,1078,346,-905,192,712,-624,-302,566,1137,1376,1307
917,1298,380,-1107,268,839,-897,-463,531,1307,1629,1551
1102,1517,414,-1310,344,966,-1151,-600,531,1517,1903,1825
1215,1639,424,-1427,395,1032,-1307,-673,536,1668,2108,2015
1381,1776,395,-1578,492,1085,-1483,-741,556,1825,2322,2220
1483,1805,322,-1644,580,1063,-1576,-780,536,1908,2425,2327
1522,1742,219,-1632,651,980,-1678,-868,434,1893,2435,2366
1532,1605,73,-1568,729,839,-1776,-985,283,1800,2371,2357
1512,1361,-151,-1437,832,605,-1756,-1010,175,1673,2200,2235
1381,980,-400,-1180,890,290,-1581,-927,53,1449,1873,2000
1215,741,-473,-978,844,134,-1429,-893,-102,1161,1561,1761
1005,502,-502,-753,753,0,-1254,-883,-370,697,1088,1390
790,258,-531,-524,661,-136,-1058,-858,-683,136,546,941
649,131,-517,-390,583,-192,-907,-785,-824,-156,229,658
492,34,-458,-263,475,-212,-707,-658,-829,-331,-34,370
409,-14,-424,-197,417,-219,-585,-566,-771,-356,-126,239
326,-34,-361,-146,344,-197,-473,-463,-653,-307,-146,165
258,-48,-307,-104,283,-178,-346,-351,-502,-229,-126,117
209,-73,-283,-68,246,-178,-258,-258,-390,-161,-102,82
141,-68,-209,-36,175,-139,-156,-161,-278,-112,-107,24
102,-73,-175,-14,139,-124,-78,-102,-195,-82,-107,-19
68,-97,-165,14,117,-131,-14,-39,-136,-58,-107,-48
34,-141,-175,53,104,-158,63,29,-78,-29,-97,-58
-24,-180,-156,102,65,-168,87,48,-48,-19,-97,-73
-48,-180,-131,114,41,-156,131,82,-34,-19,-107,-107
-63,-195,-131,129,34,-163,141,87,-24,-14,-117,-122
-58,-195,-136,126,39,-165,146,87,-24,-14,-126,-136
-68,-200,-131,134,31,-165,161,102,-24,-24,-122,-136
-82,-204,-122,143,19,-163,165,102,-9,-24,-131,-141
-82,-214,-131,148,24,-173,175,107,-4,-24,-131,-141
-87,-224,-136,156,24,-180,175,112,-4,-24,-131,-141
-87,-229,-141,158,26,-185,175,117,-4,-24,-131,-146
-87,-244,-156,165,34,-200,185,117,4,-14,-126,-141
-87,-248,-161,168,36,-204,190,117,14,-14,-122,-136
-87,-248,-161,168,36,-204,195,117,14,-9,-117,-131
-87,-253,-165,170,39,-209,195,122,14,-9,-112,-126
-78,-229,-151,153,36,-190,190,122,4,-19,-112,-136
-87,-234,-146,161,29,-190,185,122,4,-24,-112,-131
-78,-224,-146,151,34,-185,180,126,4,-24,-107,-131
-78,-214,-136,146,29,-175,180,126,9,-19,-107,-131
-78,-204,-126,141,24,-165,180,131,9,-19,-107,-126
-78,-200,-122,139,21,-161,185,131,9,-19,-107,-126
-82,-200,-117,141,17,-158,185,131,14,-19,-107,-131
-82,-195,-112,139,14,-153,185,131,14,-14,-107,-131
-87,-219,-131,153,21,-175,190,136,24,-9,-92,-122
-87,-234,-146,161,29,-190,200,146,29,-4,-92,-122
-87,-248,-161,168,36,-204,204,151,29,0,-92,-122
-92,-263,-170,178,39,-217,209,156,29,4,-92,-112
