I,II,III,aVR,aVL,aVF,V1,V2,V3,V4,V5,V6,
14,209,195,-112,-90,202,-87,-92,29,48,68,92
9,170,161,-90,-75,165,-78,-87,4,29,58,78
-4,136,141,-65,-73,139,-58,-82,-4,19,43,68
-9,97,107,-43,-58,102,-53,-73,-9,9,24,43
-24,68,92,-21,-58,80,-39,-73,-19,-4,14,24
-43,58,102,-7,-73,80,-29,-73,-29,-19,4,14
-48,39,87,4,-68,63,-19,-73,-34,-29,-4,4
-63,9,73,26,-68,41,-4,-73,-39,-43,-14,-4
-73,-9,63,41,-68,26,9,-73,-48,-48,-24,-14
-78,-14,63,46,-70,24,9,-73,-48,-53,-34,-19
-87,-24,63,56,-75,19,14,-73,-53,-58,-43,-24
-87,-34,53,61,-70,9,14,-68,-53,-58,-43,-29
-92,-39,53,65,-73,7,19,-68,-58,-63,-48,-39
-92,-39,53,65,-73,7,19,-73,-63,-68,-48,-39
-92,-43,48,68,-70,2,19,-78,-68,-78,-48,-39
-92,-43,48,68,-70,2,19,-78,-68,-78,-53,-39
-92,-48,43,70,-68,-2,24,-78,-68,-78,-53,-43
-87,-48,39,68,-63,-4,24,-68,-68,-78,-53,-43
-87,-48,39,68,-63,-4,24,-58,-68,-78,-53,-43
-87,-48,39,68,-63,-4,24,-68,-63,-78,-58,-43
-87,-48,39,68,-63,-4,24,-78,-63,-78,-58,-43
-87,-48,39,68,-63,-4,29,-78,-63,-78,-58,-43
-87,-48,39,68,-63,-4,29,-78,-63,-78,-58,-43
-92,-53,39,73,-65,-7,29,-78,-68,-78,-58,-43
-92,-53,39,73,-65,-7,29,-78,-73,-78,-58,-43
-92,-53,39,73,-65,-7,29,-78,-73,-78,-53,-43
-87,-53,34,70,-61,-9,29,-78,-73,-78,-53,-43
-92,-53,39,73,-65,-7,29,-78,-68,-78,-58,-43
-97,-53,43,75,-70,-4,29,-73,-68,-78,-63,-43
-97,-63,34,80,-65,-14,29,-78,-92,-97,-78,-53
-82,-63,19,73,-51,-21,29,-48,-63,-73,-53,-39
-53,9,63,21,-58,36,14,34,136,78,53,4
9,190,180,-100,-85,185,-19,117,414,370,287,151
131,302,170,-217,-19,236,-43,224,561,619,531,317
165,341,175,-253,-4,258,-43,263,595,741,668,395
63,390,326,-226,-131,358,4,200,697,814,663,351
73,639,566,-356,-246,602,-82,117,800,1010,854,531
351,1044,692,-697,-170,868,-414,-48,610,1215,1259,1005
795,1137,341,-966,226,739,-712,-48,224,1200,1464,1293
1273,756,-517,-1015,895,119,-897,24,-414,668,1073,1019
1210,292,-917,-751,1063,-312,-849,-175,-1044,-117,351,507
585,-48,-634,-268,610,-341,-541,-507,-1288,-741,-351,-9
146,-200,-346,26,246,-273,-302,-585,-1180,-902,-605,-209
-82,-146,-63,114,-9,-104,-190,-541,-922,-751,-517,-185
-268,-122,146,195,-207,12,-73,-478,-678,-595,-434,-170
-283,-82,200,183,-241,58,-29,-380,-468,-444,-346,-151
-258,-53,204,156,-231,75,-14,-292,-312,-326,-278,-136
-200,-53,146,126,-173,46,-9,-209,-219,-244,-209,-117
-146,-53,92,100,-119,19,-9,-156,-175,-195,-165,-97
-136,-68,68,102,-102,0,24,-112,-146,-170,-146,-92
-131,-78,53,104,-92,-12,43,-78,-117,-146,-126,-92
-117,-78,39,97,-78,-19,48,-53,-78,-112,-107,-82
-87,-78,9,82,-48,-34,53,-34,-63,-92,-87,-68
-82,-78,4,80,-43,-36,53,-24,-58,-87,-82,-68
-82,-78,4,80,-43,-36,58,-19,-48,-87,-82,-68
-82,-82,0,82,-41,-41,58,-9,-43,-82,-78,-68
-78,-82,-4,80,-36,-43,58,-9,-48,-78,-73,-68
-63,-78,-14,70,-24,-46,48,-4,-43,-78,-68,-68
-58,-78,-19,68,-19,-48,43,0,-43,-73,-68,-63
-58,-78,-19,68,-19,-48,43,0,-39,-68,-68,-63
-53,-78,-24,65,-14,-51,43,4,-39,-68,-68,-63
-48,-78,-29,63,-9,-53,43,9,-34,-68,-68,-63
-48,-73,-24,61,-12,-48,43,14,-34,-63,-63,-58
-39,-73,-34,56,-2,-53,43,14,-29,-63,-63,-58
-34,-73,-39,53,2,-56,39,14,-24,-63,-58,-58
-24,-78,-53,51,14,-65,39,19,-24,-58,-53,-58
-14,-78,-63,46,24,-70,34,24,-19,-58,-53,-58
-19,-78,-58,48,19,-68,34,29,-19,-53,-53,-53
-19,-73,-53,46,17,-63,34,29,-14,-43,-53,-53
-14,-68,-53,41,19,-61,29,39,-9,-43,-53,-53
-4,-63,-58,34,26,-61,29,39,-4,-34,-43,-53
-4,-63,-58,34,26,-61,29,48,0,-39,-39,-48
0,-58,-58,29,29,-58,29,53,4,-39,-34,-48
14,-58,-73,21,43,-65,29,58,9,-29,-29,-48
19,-58,-78,19,48,-68,29,63,19,-29,-24,-48
24,-58,-82,17,53,-70,29,73,19,-14,-19,-48
29,-58,-87,14,58,-73,24,73,24,-9,-14,-53
43,-53,-97,4,70,-75,19,82,29,-4,-14,-53
48,-53,-102,2,75,-78,19,87,29,0,-9,-48
53,-48,-102,-2,78,-75,19,92,34,0,-9,-48
53,-43,-97,-4,75,-70,19,97,39,9,-4,-48
53,-43,-97,-4,75,-70,14,107,48,19,0,-48
58,-43,-102,-7,80,-73,14,112,58,24,4,-43
63,-39,-102,-12,82,-70,14,122,58,29,9,-39
73,-39,-112,-17,92,-75,14,122,63,29,14,-34
78,-34,-112,-21,95,-73,4,131,73,39,19,-29
78,-29,-107,-24,92,-68,0,136,78,43,29,-29
87,-29,-117,-29,102,-73,0,141,78,48,29,-24
97,-24,-122,-36,109,-73,0,151,87,53,24,-24
97,-19,-117,-39,107,-68,0,156,92,58,29,-19
102,-14,-117,-43,109,-65,0,165,97,63,29,-19
112,-14,-126,-48,119,-70,-4,165,97,63,34,-19
122,-14,-136,-53,129,-75,-4,175,97,58,34,-14
131,-9,-141,-61,136,-75,-4,185,107,63,39,-14
136,-4,-141,-65,139,-73,-4,190,107,68,39,-14
146,0,-146,-73,146,-73,-9,200,112,73,43,-14
151,0,-151,-75,151,-75,-9,204,112,78,43,-14
156,9,-146,-82,151,-68,-9,214,122,78,43,-14
161,19,-141,-90,151,-61,-9,224,126,78,43,-14
165,19,-146,-92,156,-63,-9,229,131,78,43,-19
170,19,-151,-95,161,-65,-9,229,131,73,43,-24
175,19,-156,-97,165,-68,-9,234,131,73,43,-29
180,19,-161,-100,170,-70,-9,244,131,73,39,-34
180,19,-161,-100,170,-70,-9,248,131,73,34,-39
175,9,-165,-92,170,-78,-4,258,131,63,24,-48
170,4,-165,-87,168,-80,-4,263,131,58,19,-58
170,4,-165,-87,168,-80,0,263,126,48,9,-63
161,0,-161,-80,161,-80,0,253,122,39,-4,-73
151,-9,-161,-70,156,-85,4,244,107,29,-19,-78
141,-19,-161,-61,151,-90,4,239,102,19,-29,-92
131,-24,-156,-53,143,-90,4,229,97,14,-43,-102
122,-34,-156,-43,139,-95,9,214,78,-4,-58,-112
107,-43,-151,-31,129,-97,14,204,68,-24,-73,-122
87,-48,-136,-19,112,-92,19,190,53,-39,-87,-126
73,-58,-131,-7,102,-95,19,170,34,-53,-102,-136
53,-68,-122,7,87,-95,24,146,19,-73,-112,-141
39,-78,-117,19,78,-97,29,131,4,-82,-122,-146
19,-82,-102,31,61,-92,29,112,-4,-92,-131,-146
4,-87,-92,41,48,-90,34,92,-14,-102,-131,-151
-14,-92,-78,53,31,-85,39,73,-24,-117,-141,-151
-34,-92,-58,63,12,-75,39,53,-34,-122,-141,-151
-43,-92,-48,68,2,-70,43,34,-39,-122,-141,-146
-53,-82,-29,68,-12,-56,43,19,-39,-122,-136,-146
-68,-78,-9,73,-29,-43,39,4,-43,-122,-131,-136
-73,-68,4,70,-39,-31,34,-4,-43,-117,-126,-122
-78,-58,19,68,-48,-19,29,-19,-43,-112,-117,-112
-78,-53,24,65,-51,-14,24,-29,-43,-102,-107,-102
-78,-39,39,58,-58,0,24,-43,-39,-92,-97,-87
-82,-29,53,56,-68,12,19,-53,-34,-82,-82,-78
-82,-19,63,51,-73,21,14,-63,-39,-73,-73,-63
-78,-9,68,43,-73,29,9,-63,-39,-68,-63,-53
-78,0,78,39,-78,39,9,-73,-34,-58,-58,-48
-78,9,87,34,-82,48,4,-78,-34,-58,-48,-39
-78,14,92,31,-85,53,4,-78,-29,-53,-39,-29
-78,14,92,31,-85,53,4,-78,-29,-43,-39,-29
-73,19,92,26,-82,56,-4,-82,-24,-43,-29,-24
-73,24,97,24,-85,61,-9,-82,-24,-39,-29,-19
-78,29,107,24,-92,68,-9,-82,-24,-39,-24,-14
-82,29,112,26,-97,70,-9,-82,-24,-34,-19,-14
-82,29,112,26,-97,70,-9,-82,-19,-34,-14,-9
-82,34,117,24,-100,75,-4,-82,-19,-29,-9,-9
-78,34,112,21,-95,73,-4,-78,-19,-29,-4,-9
-68,34,102,17,-85,68,-4,-78,-14,-29,-4,-9
-68,34,102,17,-85,68,-9,-78,-14,-24,-9,-9
-73,34,107,19,-90,70,-9,-78,-14,-24,-14,-4
-73,34,107,19,-90,70,-9,-78,-14,-29,-14,-4
-73,34,107,19,-90,70,-9,-78,-14,-29,-14,-4
-73,34,107,19,-90,70,-4,-78,-14,-24,-14,-4
-73,34,107,19,-90,70,-4,-78,-14,-24,-14,-4
-73,34,107,19,-90,70,-4,-73,-14,-24,-14,-4
-73,34,107,19,-90,70,-9,-73,-14,-24,-14,-4
-73,34,107,19,-90,70,-9,-73,-14,-24,-14,-4
-78,34,112,21,-95,73,-9,-73,-14,-24,-14,-4
-78,34,112,21,-95,73,-4,-78,-14,-24,-14,-9
-73,34,107,19,-90,70,-4,-82,-14,-29,-14,-9
-68,29,97,19,-82,63,-4,-82,-14,-29,-14,-9
-63,29,92,17,-78,61,-4,-82,-19,-29,-14,-9
-63,29,92,17,-78,61,-4,-82,-24,-29,-14,-9
-63,29,92,17,-78,61,-4,-82,-29,-29,-14,-14
-63,34,97,14,-80,65,-4,-82,-29,-34,-14,-14
-63,34,97,14,-80,65,-4,-78,-29,-39,-14,-14
-63,34,97,14,-80,65,0,-78,-24,-39,-19,-14
-63,29,92,17,-78,61,0,-73,-19,-43,-19,-14
-68,19,87,24,-78,53,0,-73,-19,-43,-24,-14
-73,14,87,29,-80,51,-4,-73,-24,-43,-24,-19
-73,14,87,29,-80,51,-4,-73,-24,-39,-24,-19
-73,9,82,31,-78,46,0,-73,-29,-39,-29,-24
-73,14,87,29,-80,51,0,-73,-29,-39,-29,-24
-78,14,92,31,-85,53,0,-73,-29,-39,-29,-24
-78,14,92,31,-85,53,0,-73,-29,-39,-29,-24
-73,14,87,29,-80,51,0,-73,-34,-43,-29,-24
-73,9,82,31,-78,46,0,-73,-34,-43,-34,-29
-73,9,82,31,-78,46,0,-73,-34,-48,-34,-29
-73,4,78,34,-75,41,0,-73,-39,-48,-39,-34
-73,4,78,34,-75,41,4,-73,-43,-48,-43,-39
-73,0,73,36,-73,36,4,-73,-43,-53,-43,-39
-73,0,73,36,-73,36,4,-73,-43,-58,-48,-39
-68,-4,63,36,-65,29,4,-73,-43,-58,-48,-39
-68,-4,63,36,-65,29,9,-73,-43,-58,-48,-39
-68,-14,53,41,-61,19,9,-73,-53,-63,-48,-39
-68,-9,58,39,-63,24,4,-73,-48,-58,-43,-34
-68,-4,63,36,-65,29,4,-68,-48,-53,-39,-29
-68,0,68,34,-68,34,9,-68,-48,-48,-34,-29
-68,4,73,31,-70,39,9,-68,-43,-48,-29,-29
-68,9,78,29,-73,43,9,-68,-39,-48,-29,-29
-68,19,87,24,-78,53,4,-68,-34,-43,-24,-24
-68,29,97,19,-82,63,0,-68,-29,-39,-19,-19
-63,34,97,14,-80,65,0,-68,-24,-39,-19,-14
-58,39,97,9,-78,68,0,-68,-19,-34,-14,-4
-53,48,102,2,-78,75,4,-68,-14,-29,-9,0
-53,58,112,-2,-82,85,4,-73,-4,-19,0,9
-48,82,131,-17,-90,107,-4,-73,9,-9,9,19
-43,102,146,-29,-95,124,-14,-73,14,4,19,29
-39,122,161,-41,-100,141,-34,-82,24,9,29,34
-29,136,165,-53,-97,151,-43,-82,29,14,34,43
-14,141,156,-63,-85,148,-58,-82,29,14,39,48
-4,151,156,-73,-80,153,-73,-87,29,19,43,58
0,180,180,-90,-90,180,-73,-87,29,34,53,68
0,190,190,-95,-95,190,-73,-87,34,43,68,78
4,204,200,-104,-97,202,-78,-87,34,43,73,78
9,209,200,-109,-95,204,-82,-92,34,43,73,78
19,219,200,-119,-90,209,-87,-92,14,34,63,82
24,209,185,-117,-80,197,-87,-92,9,29,58,73
14,170,156,-92,-70,163,-78,-87,-9,9,48,58
-4,136,141,-65,-73,139,-58,-82,-14,0,34,48
-9,97,107,-43,-58,102,-53,-78,-19,-9,14,29
-24,68,92,-21,-58,80,-39,-82,-29,-24,4,14
-48,58,107,-4,-78,82,-29,-82,-39,-34,-4,4
-58,39,97,9,-78,68,-19,-82,-43,-39,-14,-4
-68,4,73,31,-70,39,-9,-82,-48,-53,-24,-14
-73,-19,53,46,-63,17,0,-82,-58,-58,-34,-24
-73,-24,48,48,-61,12,4,-82,-58,-63,-39,-34
-78,-34,43,56,-61,4,14,-82,-63,-68,-43,-43
-78,-39,39,58,-58,0,14,-78,-68,-68,-48,-43
-82,-39,43,61,-63,2,19,-78,-78,-73,-58,-48
-87,-39,48,63,-68,4,19,-78,-78,-73,-58,-48
-92,-43,48,68,-70,2,19,-78,-78,-78,-58,-48
-92,-43,48,68,-70,2,19,-78,-78,-78,-63,-48
-92,-48,43,70,-68,-2,24,-78,-78,-78,-63,-53
-92,-48,43,70,-68,-2,24,-78,-78,-78,-63,-53
-97,-48,48,73,-73,0,24,-78,-78,-78,-63,-53
-97,-48,48,73,-73,0,24,-78,-73,-78,-63,-53
-97,-48,48,73,-73,0,24,-78,-73,-78,-58,-53
-97,-48,48,73,-73,0,29,-78,-73,-82,-58,-53
-97,-48,48,73,-73,0,29,-78,-73,-87,-58,-53
-102,-53,48,78,-75,-2,29,-78,-73,-87,-63,-53
-102,-53,48,78,-75,-2,29,-78,-73,-87,-68,-53
-102,-53,48,78,-75,-2,29,-78,-73,-87,-63,-58
-97,-53,43,75,-70,-4,29,-78,-73,-87,-63,-63
-97,-53,43,75,-70,-4,29,-78,-73,-87,-63,-63
-97,-53,43,75,-70,-4,29,-73,-78,-87,-63,-63
-97,-58,39,78,-68,-9,29,-73,-87,-92,-73,-68
-82,-53,29,68,-56,-12,29,-39,-43,-53,-43,-48
-43,34,78,4,-61,56,14,43,156,107,73,9
29,229,200,-129,-85,214,-19,126,434,409,317,170
141,326,185,-234,-21,256,-43,224,575,644,546,322
165,351,185,-258,-9,268,-43,253,605,751,668,385
87,424,336,-256,-124,380,-14,175,688,824,688,370
122,697,575,-409,-226,636,-122,78,771,1019,902,580
414,1049,634,-732,-109,841,-453,-68,546,1185,1263,1010
873,1088,214,-980,329,651,-751,-48,126,1132,1424,1254
1268,697,-570,-983,919,63,-902,-9,-492,575,990,951
1122,224,-897,-673,1010,-336,-819,-244,-1102,-234,224,409
517,-82,-600,-217,558,-341,-512,-546,-1293,-785,-414,-63
97,-200,-297,51,197,-248,-273,-595,-1132,-873,-605,-219
-112,-146,-34,129,-39,-90,-175,-546,-883,-732,-517,-195
-278,-122,156,200,-217,17,-73,-478,-649,-585,-434,-180
-287,-82,204,185,-246,61,-24,-380,-448,-434,-346,-165
-258,-53,204,156,-231,75,-4,-292,-302,-317,-278,-156
-200,-53,146,126,-173,46,0,-209,-214,-244,-214,-136
-146,-53,92,100,-119,19,0,-156,-175,-204,-175,-117
-136,-68,68,102,-102,0,29,-117,-146,-180,-156,-112
-131,-78,53,104,-92,-12,43,-87,-117,-156,-136,-112
-112,-78,34,95,-73,-21,43,-63,-87,-122,-117,-102
-78,-78,0,78,-39,-39,43,-43,-82,-102,-97,-87
-73,-78,-4,75,-34,-41,43,-34,-78,-97,-92,-87
-73,-78,-4,75,-34,-41,48,-29,-68,-97,-92,-87
-73,-82,-9,78,-31,-46,48,-19,-58,-92,-87,-87
-68,-82,-14,75,-26,-48,48,-19,-58,-87,-82,-87
-58,-78,-19,68,-19,-48,43,-14,-53,-87,-78,-87
-58,-78,-19,68,-19,-48,43,-9,-53,-82,-78,-82
-58,-78,-19,68,-19,-48,39,-9,-48,-78,-73,-82
-53,-78,-24,65,-14,-51,34,-4,-48,-78,-68,-82
-43,-78,-34,61,-4,-56,34,0,-43,-82,-73,-82
-39,-73,-34,56,-2,-53,34,4,-43,-82,-73,-78
-34,-73,-39,53,2,-56,34,4,-39,-78,-73,-78
-34,-73,-39,53,2,-56,29,4,-34,-73,-68,-78
-24,-68,-43,46,9,-56,29,9,-34,-63,-63,-78
-14,-58,-43,36,14,-51,24,14,-29,-58,-63,-78
-14,-58,-43,36,14,-51,24,19,-29,-58,-63,-73
-9,-53,-43,31,17,-48,24,19,-24,-53,-63,-73
-9,-53,-43,31,17,-48,19,29,-19,-53,-58,-73
-4,-53,-48,29,21,-51,19,29,-14,-43,-43,-73
-4,-58,-53,31,24,-56,19,34,-9,-43,-39,-68
0,-58,-58,29,29,-58,19,34,-4,-39,-34,-68
9,-58,-68,24,39,-63,19,39,0,-29,-34,-68
9,-58,-68,24,39,-63,19,43,9,-29,-34,-68
14,-58,-73,21,43,-65,19,53,9,-19,-29,-63
19,-58,-78,19,48,-68,14,53,14,-19,-24,-63
34,-53,-87,9,61,-70,9,63,19,-19,-24,-63
39,-53,-92,7,65,-73,9,68,19,-19,-19,-58
48,-48,-97,0,73,-73,9,73,24,-19,-19,-58
53,-43,-97,-4,75,-70,9,78,29,-9,-14,-58
58,-43,-102,-7,80,-73,4,87,39,0,-9,-58
68,-43,-112,-12,90,-78,4,92,48,4,-4,-53
73,-39,-112,-17,92,-75,4,107,48,9,-4,-53
82,-39,-122,-21,102,-80,4,112,53,9,-4,-53
87,-34,-122,-26,104,-78,0,122,58,19,0,-48
87,-29,-117,-29,102,-73,0,126,58,24,9,-48
97,-29,-126,-34,112,-78,0,131,58,29,14,-43
107,-24,-131,-41,119,-78,0,141,68,34,14,-43
107,-19,-126,-43,117,-73,0,146,73,39,19,-39
112,-14,-126,-48,119,-70,0,156,78,43,19,-39
117,-14,-131,-51,124,-73,-9,156,87,48,24,-39
122,-14,-136,-53,129,-75,-14,165,97,48,24,-34
131,-4,-136,-63,134,-70,-14,170,107,53,29,-39
136,4,-131,-70,134,-63,-14,170,107,58,29,-43
146,9,-136,-78,141,-63,-19,180,112,63,34,-43
151,9,-141,-80,146,-65,-19,185,112,68,34,-43
156,9,-146,-82,151,-68,-19,195,117,68,29,-43
161,9,-151,-85,156,-70,-19,204,117,68,24,-43
161,9,-151,-85,156,-70,-14,214,122,68,24,-43
161,9,-151,-85,156,-70,-9,219,122,63,24,-43
165,9,-156,-87,161,-73,-9,224,122,63,24,-48
170,9,-161,-90,165,-75,-9,234,122,63,19,-53
170,14,-156,-92,163,-70,-9,234,122,63,14,-58
165,9,-156,-87,161,-73,-4,239,122,53,4,-68
161,4,-156,-82,158,-75,-9,244,122,48,0,-78
161,4,-156,-82,158,-75,-9,244,117,39,-9,-82
156,0,-156,-78,156,-78,-9,239,112,29,-19,-92
151,-9,-161,-70,156,-85,-4,234,97,19,-29,-97
141,-19,-161,-61,151,-90,-4,229,87,4,-39,-112
131,-24,-156,-53,143,-90,-4,219,78,-4,-53,-122
122,-34,-156,-43,139,-95,0,200,58,-24,-68,-131
107,-43,-151,-31,129,-97,4,185,48,-43,-82,-141
87,-48,-136,-19,112,-92,14,170,39,-53,-97,-146
73,-58,-131,-7,102,-95,19,151,24,-63,-112,-156
48,-68,-117,9,82,-92,29,122,9,-82,-122,-161
29,-78,-107,24,68,-92,39,102,-4,-92,-131,-165
9,-82,-92,36,51,-87,39,82,-14,-102,-141,-165
-4,-87,-82,46,39,-85,43,63,-24,-112,-141,-170
-24,-92,-68,58,21,-80,43,43,-34,-122,-151,-170
-43,-92,-48,68,2,-70,39,24,-43,-122,-151,-170
-53,-92,-39,73,-7,-65,39,4,-53,-122,-151,-161
-63,-82,-19,73,-21,-51,34,-9,-58,-122,-146,-156
-73,-78,-4,75,-34,-41,29,-24,-63,-126,-141,-151
-73,-68,4,70,-39,-31,24,-34,-63,-126,-136,-141
-78,-53,24,65,-51,-14,19,-48,-63,-122,-126,-131
-78,-43,34,61,-56,-4,14,-58,-63,-112,-117,-122
-78,-29,48,53,-63,9,14,-68,-58,-102,-107,-107
-82,-19,63,51,-73,21,9,-73,-53,-92,-92,-97
-82,-9,73,46,-78,31,4,-82,-53,-82,-82,-78
-78,0,78,39,-78,39,0,-82,-48,-78,-73,-63
-78,4,82,36,-80,43,4,-87,-43,-63,-68,-58
-78,9,87,34,-82,48,4,-87,-43,-58,-58,-48
-78,14,92,31,-85,53,4,-87,-39,-53,-43,-39
-78,14,92,31,-85,53,4,-87,-39,-43,-39,-39
-68,19,87,24,-78,53,-4,-92,-29,-43,-29,-34
-63,24,87,19,-75,56,-9,-92,-24,-39,-29,-29
-63,29,92,17,-78,61,-9,-92,-24,-39,-29,-24
-63,29,92,17,-78,61,-9,-92,-24,-34,-29,-24
-68,29,97,19,-82,63,-14,-92,-24,-34,-29,-19
-73,34,107,19,-90,70,-14,-92,-29,-29,-29,-19
-68,34,102,17,-85,68,-9,-92,-29,-34,-19,-19
-58,34,92,12,-75,63,-4,-97,-24,-39,-14,-19
-58,34,92,12,-75,63,-9,-92,-19,-34,-14,-19
-63,34,97,14,-80,65,-9,-87,-14,-34,-14,-14
-68,34,102,17,-85,68,-9,-87,-14,-34,-14,-9
-73,34,107,19,-90,70,-9,-87,-14,-29,-14,-4
-78,34,112,21,-95,73,-4,-87,-14,-24,-14,-4
-82,34,117,24,-100,75,-4,-87,-14,-24,-14,-4
-82,34,117,24,-100,75,-4,-82,-14,-24,-14,-4
-82,34,117,24,-100,75,-9,-82,-14,-24,-14,-4
-78,34,112,21,-95,73,-9,-82,-14,-24,-14,-4
-78,34,112,21,-95,73,-9,-82,-14,-24,-14,-4
-78,39,117,19,-97,78,-4,-82,-14,-24,-14,-9
-73,43,117,14,-95,80,-4,-82,-14,-29,-14,-9
-73,39,112,17,-92,75,-4,-82,-14,-29,-19,-9
-73,39,112,17,-92,75,-4,-82,-19,-29,-24,-9
-73,34,107,19,-90,70,-4,-82,-19,-29,-24,-9
-73,29,102,21,-87,65,-4,-82,-19,-29,-24,-14
-73,29,102,21,-87,65,-4,-82,-19,-29,-19,-14
-73,24,97,24,-85,61,-4,-78,-19,-29,-14,-14
-73,24,97,24,-85,61,0,-78,-19,-29,-19,-14
-73,19,92,26,-82,56,0,-73,-19,-34,-19,-14
-63,14,78,24,-70,46,0,-73,-19,-34,-24,-14
-53,14,68,19,-61,41,-4,-73,-24,-34,-24,-19
-63,14,78,24,-70,46,-4,-73,-24,-34,-24,-19
-73,9,82,31,-78,46,0,-73,-29,-39,-29,-24
-78,14,92,31,-85,53,0,-73,-29,-39,-29,-24
-87,14,102,36,-95,58,0,-73,-29,-39,-29,-24
-87,14,102,36,-95,58,0,-73,-29,-34,-29,-19
-82,14,97,34,-90,56,0,-73,-34,-34,-29,-14
-82,9,92,36,-87,51,0,-73,-34,-34,-34,-19
-82,9,92,36,-87,51,0,-73,-34,-39,-34,-19
-82,-4,78,43,-80,36,0,-73,-34,-43,-34,-19
-82,-14,68,48,-75,26,4,-73,-34,-48,-34,-19
-73,-14,58,43,-65,21,4,-73,-34,-48,-34,-24
-58,-9,48,34,-53,19,0,-73,-34,-48,-39,-29
-58,-4,53,31,-56,24,0,-68,-29,-43,-39,-29
-58,0,58,29,-58,29,0,-68,-29,-39,-39,-29
-58,9,68,24,-63,39,0,-68,-29,-39,-39,-29
-58,19,78,19,-68,48,0,-68,-29,-39,-39,-29
-58,24,82,17,-70,53,0,-68,-24,-39,-34,-19
-58,29,87,14,-73,58,0,-68,-14,-39,-29,-9
-58,39,97,9,-78,68,0,-68,-9,-39,-24,-4
-53,48,102,2,-78,75,0,-68,-4,-29,-19,0
-58,48,107,4,-82,78,4,-73,4,-19,-9,9
-53,63,117,-4,-85,90,4,-73,19,-9,0,19
-43,92,136,-24,-90,114,-4,-73,29,9,14,34
-39,122,161,-41,-100,141,-24,-82,39,19,29,43
-29,136,165,-53,-97,151,-39,-82,39,24,34,53
-19,141,161,-61,-90,151,-53,-82,39,24,39,58
-14,151,165,-68,-90,158,-68,-87,39,34,43,68
-9,175,185,-82,-97,180,-73,-87,39,48,53,78
-9,180,190,-85,-100,185,-73,-87,43,53,68,87
-4,190,195,-92,-100,192,-78,-87,43,53,68,87
0,200,200,-100,-100,200,-82,-92,48,53,68,92
4,209,204,-107,-100,207,-82,-92,34,43,63,97
14,195,180,-104,-82,187,-78,-92,29,43,58,82
14,161,146,-87,-65,153,-68,-87,9,29,48,68
-4,126,131,-61,-68,129,-48,-82,4,19,34,58
-9,92,102,-41,-56,97,-43,-73,0,9,14,39
-29,63,92,-17,-61,78,-29,-73,-9,-4,4,24
-53,48,102,2,-78,75,-19,-73,-19,-14,-4,14
-58,29,87,14,-73,58,-9,-73,-24,-19,-14,4
-68,4,73,31,-70,39,0,-73,-29,-34,-24,-4
-73,-14,58,43,-65,21,14,-73,-43,-43,-34,-14
-73,-24,48,48,-61,12,19,-73,-48,-53,-39,-19
-78,-34,43,56,-61,4,24,-73,-53,-58,-43,-24
-78,-39,39,58,-58,0,24,-68,-53,-58,-43,-24
-82,-39,43,61,-63,2,29,-58,-58,-63,-48,-29
-82,-39,43,61,-63,2,29,-48,-58,-63,-48,-29
-82,-43,39,63,-61,-2,29,-58,-58,-68,-53,-29
-82,-43,39,63,-61,-2,29,-68,-58,-68,-63,-29
-82,-48,34,65,-58,-7,34,-68,-58,-73,-63,-39
-82,-48,34,65,-58,-7,34,-68,-58,-78,-63,-43
-87,-48,39,68,-63,-4,29,-68,-58,-78,-63,-43
-87,-48,39,68,-63,-4,24,-68,-58,-78,-68,-43
-87,-48,39,68,-63,-4,24,-63,-58,-73,-63,-39
-87,-48,39,68,-63,-4,29,-58,-53,-68,-58,-34
-92,-48,43,70,-68,-2,34,-53,-53,-68,-58,-34
-102,-53,48,78,-75,-2,39,-48,-53,-68,-58,-34
-102,-53,48,78,-75,-2,39,-48,-53,-68,-58,-34
-102,-53,48,78,-75,-2,39,-48,-53,-68,-53,-34
-92,-53,39,73,-65,-7,39,-53,-53,-68,-53,-34
-87,-53,34,70,-61,-9,39,-58,-48,-68,-53,-34
-87,-58,29,73,-58,-14,39,-58,-58,-82,-58,-34
-78,-53,24,65,-51,-14,34,-58,-53,-78,-53,-29
-63,-82,-19,73,-21,-51,34,-29,-48,-78,-63,-39
-34,-43,-9,39,-12,-26,24,43,87,34,14,-9
39,175,136,-107,-48,156,-9,136,419,380,302,175
126,297,170,-212,-21,234,-34,214,590,624,531,326
117,258,141,-187,-12,200,0,244,600,712,605,336
73,302,229,-187,-78,265,19,195,649,785,634,331
43,702,658,-373,-307,680,-82,78,873,1098,951,610
229,1054,824,-641,-297,939,-331,-68,775,1293,1288,985
810,1151,341,-980,234,746,-688,4,336,1337,1595,1385
1195,912,-283,-1054,739,314,-863,48,-190,956,1356,1273
995,361,-634,-678,814,-136,-761,-244,-936,-43,405,600
531,29,-502,-280,517,-236,-536,-527,-1249,-678,-278,92
122,-97,-219,-12,170,-158,-297,-546,-1068,-775,-483,-87
-107,-107,0,107,-53,-53,-175,-517,-888,-741,-507,-146
-268,-92,175,180,-222,41,-68,-448,-658,-595,-429,-146
-297,-73,224,185,-261,75,-14,-351,-463,-458,-346,-146
-268,-53,214,161,-241,80,4,-258,-302,-336,-278,-136
-219,-53,165,136,-192,56,19,-175,-195,-244,-219,-117
-146,-53,92,100,-119,19,19,-117,-161,-195,-175,-92
-117,-68,48,92,-82,-9,48,-73,-126,-161,-146,-82
-112,-82,29,97,-70,-26,63,-48,-92,-136,-126,-82
-97,-87,9,92,-53,-39,63,-24,-58,-107,-107,-73
-63,-87,-24,75,-19,-56,63,0,-48,-87,-82,-53
-53,-87,-34,70,-9,-61,63,9,-39,-78,-73,-48
-53,-92,-39,73,-7,-65,68,9,-29,-73,-68,-48
-53,-102,-48,78,-2,-75,68,19,-19,-63,-63,-48
-48,-102,-53,75,2,-78,68,19,-19,-58,-63,-48
-39,-97,-58,68,9,-78,63,24,-14,-58,-58,-48
-39,-97,-58,68,9,-78,63,29,-14,-53,-58,-43
-39,-97,-58,68,9,-78,63,29,-9,-48,-53,-43
-43,-102,-58,73,7,-80,63,34,-9,-48,-48,-39
-48,-107,-58,78,4,-82,63,39,-4,-48,-48,-34
-39,-102,-63,70,12,-82,63,43,-4,-43,-43,-29
-24,-102,-78,63,26,-90,63,43,0,-39,-43,-29
-24,-102,-78,63,26,-90,58,43,9,-34,-39,-29
-14,-102,-87,58,36,-95,58,48,14,-29,-34,-29
-9,-102,-92,56,41,-97,53,53,19,-29,-34,-29
-14,-107,-92,61,39,-100,53,58,19,-29,-34,-24
-14,-102,-87,58,36,-95,53,63,24,-19,-29,-24
-14,-102,-87,58,36,-95,48,78,29,-14,-24,-24
-4,-97,-92,51,43,-95,48,78,34,-4,-14,-24
-4,-92,-87,48,41,-90,48,87,39,-4,-9,-19
4,-87,-92,41,48,-90,48,87,43,-4,-4,-19
19,-87,-107,34,63,-97,48,87,48,0,-4,-19
19,-87,-107,34,63,-97,48,92,58,0,-4,-19
24,-87,-112,31,68,-100,48,102,58,9,0,-14
29,-92,-122,31,75,-107,48,102,63,14,4,-14
43,-92,-136,24,90,-114,48,112,68,24,4,-14
48,-92,-141,21,95,-117,48,117,68,29,9,-9
53,-87,-141,17,97,-114,48,122,73,29,9,-9
53,-82,-136,14,95,-109,48,126,78,39,14,-9
58,-82,-141,12,100,-112,43,136,87,48,19,-9
63,-87,-151,12,107,-119,43,141,102,53,24,-4
63,-87,-151,12,107,-119,43,151,107,58,29,-4
73,-87,-161,7,117,-124,43,151,112,58,34,-4
78,-82,-161,2,119,-122,39,161,122,68,39,0
82,-78,-161,-2,122,-119,39,165,126,73,48,0
97,-78,-175,-9,136,-126,39,170,126,78,53,4
107,-73,-180,-17,143,-126,39,180,136,82,53,4
107,-68,-175,-19,141,-122,39,185,141,87,58,9
107,-58,-165,-24,136,-112,39,195,151,97,58,9
107,-53,-161,-26,134,-107,34,195,161,107,63,9
112,-53,-165,-29,139,-109,34,200,165,107,68,14
122,-48,-170,-36,146,-109,34,204,175,112,78,14
126,-48,-175,-39,151,-112,34,209,175,117,78,19
131,-48,-180,-41,156,-114,29,219,180,122,82,24
131,-48,-180,-41,156,-114,34,224,180,126,82,24
136,-43,-180,-46,158,-112,39,234,185,126,82,24
136,-43,-180,-46,158,-112,39,244,190,126,82,24
136,-48,-185,-43,161,-117,39,248,200,126,82,19
141,-48,-190,-46,165,-119,39,248,200,122,82,14
146,-48,-195,-48,170,-122,39,253,200,122,78,9
151,-53,-204,-48,178,-129,39,263,200,122,68,4
151,-58,-209,-46,180,-134,39,263,200,117,63,0
146,-68,-214,-39,180,-141,43,268,200,102,53,-9
141,-73,-214,-34,178,-143,43,273,200,97,48,-19
146,-73,-219,-36,183,-146,48,273,195,87,39,-24
141,-78,-219,-31,180,-148,48,263,190,78,24,-34
131,-87,-219,-21,175,-153,53,258,170,68,4,-39
122,-97,-219,-12,170,-158,53,258,156,53,-9,-53
112,-102,-214,-4,163,-158,53,248,146,43,-24,-63
102,-112,-214,4,158,-163,58,229,126,24,-39,-73
87,-122,-209,17,148,-165,63,214,117,0,-58,-87
68,-126,-195,29,131,-161,68,200,102,-19,-78,-97
53,-136,-190,41,122,-163,68,180,82,-34,-92,-107
29,-146,-175,58,102,-161,73,156,68,-53,-102,-112
9,-156,-165,73,87,-161,78,146,53,-63,-117,-117
-9,-156,-146,82,68,-151,78,131,43,-73,-131,-117
-24,-156,-131,90,53,-143,82,112,34,-87,-131,-122
-39,-161,-122,100,41,-141,87,92,24,-102,-141,-122
-53,-161,-107,107,26,-134,87,73,9,-102,-141,-122
-63,-161,-97,112,17,-129,87,53,0,-102,-141,-112
-87,-151,-63,119,-12,-107,87,39,0,-102,-136,-107
-112,-146,-34,129,-39,-90,87,24,-4,-102,-126,-97
-112,-131,-19,122,-46,-75,82,14,-4,-97,-117,-82
-117,-117,0,117,-58,-58,78,0,-4,-92,-107,-73
-97,-112,-14,104,-41,-63,63,-9,-9,-87,-97,-63
-78,-97,-19,87,-29,-58,53,-19,-9,-82,-87,-48
-73,-82,-9,78,-31,-46,48,-24,-4,-73,-73,-39
-63,-68,-4,65,-29,-36,43,-34,-4,-63,-63,-24
-68,-58,9,63,-39,-24,39,-34,0,-53,-53,-14
-78,-48,29,63,-53,-9,39,-39,4,-39,-48,-9
-78,-39,39,58,-58,0,34,-39,4,-39,-39,0
-78,-34,43,56,-61,4,34,-39,9,-34,-29,9
-78,-34,43,56,-61,4,34,-39,9,-24,-24,14
-73,-29,43,51,-58,7,29,-43,14,-24,-9,24
-73,-24,48,48,-61,12,29,-43,19,-14,-9,29
-73,-19,53,46,-63,17,29,-43,24,-9,-4,34
-78,-19,58,48,-68,19,29,-43,24,-4,0,34
-82,-19,63,51,-73,21,24,-43,29,-4,0,39
-82,-14,68,48,-75,26,24,-43,29,0,0,39
-78,-14,63,46,-70,24,24,-43,29,0,4,39
-68,-14,53,41,-61,19,24,-48,29,0,4,39
-68,-14,53,41,-61,19,19,-48,24,4,4,39
-78,-14,63,46,-70,24,19,-43,24,4,9,43
-82,-14,68,48,-75,26,19,-39,24,0,14,43
-82,-14,68,48,-75,26,19,-39,29,0,14,43
-82,-14,68,48,-75,26,24,-39,34,4,14,43
-82,-14,68,48,-75,26,24,-43,34,0,9,43
-82,-14,68,48,-75,26,24,-43,34,-4,4,43
-82,-14,68,48,-75,26,19,-43,34,-4,4,43
-82,-14,68,48,-75,26,19,-43,34,-4,4,43
-87,-14,73,51,-80,29,19,-43,34,0,4,43
-87,-14,73,51,-80,29,24,-43,34,4,4,39
-82,-14,68,48,-75,26,24,-43,34,0,4,39
-82,-19,63,51,-73,21,24,-43,34,0,4,39
-82,-19,63,51,-73,21,24,-43,29,0,4,39
-82,-19,63,51,-73,21,24,-43,29,0,4,39
-82,-19,63,51,-73,21,24,-43,29,-4,4,34
-82,-19,63,51,-73,21,24,-43,29,-9,4,34
-78,-24,53,51,-65,14,24,-39,24,-9,4,34
-73,-24,48,48,-61,12,29,-39,19,-9,0,34
-73,-24,48,48,-61,12,29,-34,19,-9,0,34
-73,-24,48,48,-61,12,29,-34,19,-4,-4,34
-73,-24,48,48,-61,12,24,-34,14,-4,0,29
-73,-24,48,48,-61,12,24,-34,14,-4,4,29
-73,-29,43,51,-58,7,29,-34,14,-9,0,24
-73,-29,43,51,-58,7,29,-34,19,-9,0,24
-78,-34,43,56,-61,4,29,-34,19,-9,0,24
-78,-34,43,56,-61,4,29,-34,19,-9,0,24
-73,-34,39,53,-56,2,29,-34,9,-19,0,24
-73,-39,34,56,-53,-2,29,-34,4,-24,-4,19
-68,-39,29,53,-48,-4,29,-29,9,-14,0,19
-68,-39,29,53,-48,-4,29,-29,19,-9,0,19
-68,-29,39,48,-53,4,29,-29,19,-9,0,19
-68,-19,48,43,-58,14,29,-29,19,-9,0,19
-68,-19,48,43,-58,14,29,-29,24,-9,4,24
-68,-14,53,41,-61,19,29,-29,29,-9,9,29
-73,-9,63,41,-68,26,29,-29,39,-9,14,34
-73,0,73,36,-73,36,29,-29,43,0,19,39
-73,9,82,31,-78,46,24,-39,53,9,24,48
-63,34,97,14,-80,65,14,-43,68,19,29,58
-53,58,112,-2,-82,85,4,-43,73,34,39,68
-48,82,131,-17,-90,107,-14,-53,78,39,48,73
-39,97,136,-29,-87,117,-24,-53,78,43,53,82
-29,102,131,-36,-80,117,-34,-53,78,43,58,87
-24,112,136,-43,-80,124,-43,-58,78,48,63,97
-19,136,156,-58,-87,146,-43,-58,78,58,73,107
-19,141,161,-61,-90,151,-43,-58,82,68,92,122
-14,151,165,-68,-90,158,-48,-58,82,73,97,126
-4,161,165,-78,-85,163,-63,-68,87,73,92,126
4,170,165,-87,-80,168,-73,-73,73,63,82,126
4,156,151,-80,-73,153,-68,-73,68,63,78,117
-4,122,126,-58,-65,124,-58,-68,48,48,68,107
-24,87,112,-31,-68,100,-34,-63,43,39,53,97
-29,53,82,-12,-56,68,-24,-53,39,29,34,78
-43,24,68,9,-56,46,-9,-53,24,14,24,63
-63,9,73,26,-68,41,0,-53,9,4,14,53
-73,-9,63,41,-68,26,9,-53,4,0,4,43
-87,-34,53,61,-70,9,19,-53,0,-14,-4,34
-92,-48,43,70,-68,-2,29,-53,-14,-24,-14,19
-92,-53,39,73,-65,-7,29,-53,-19,-34,-19,9
-87,-68,19,78,-53,-24,34,-53,-24,-43,-29,4
-78,-78,0,78,-39,-39,34,-48,-24,-48,-34,4
-82,-82,0,82,-41,-41,39,-43,-29,-53,-39,0
-82,-87,-4,85,-39,-46,39,-39,-29,-53,-39,0
-87,-92,-4,90,-41,-48,39,-39,-29,-58,-39,0
-92,-92,0,92,-46,-46,39,-39,-29,-58,-43,0
-92,-97,-4,95,-43,-51,43,-39,-29,-58,-43,-4
-92,-97,-4,95,-43,-51,43,-39,-29,-58,-43,-4
-97,-97,0,97,-48,-48,43,-39,-29,-58,-43,-9
-97,-97,0,97,-48,-48,43,-39,-29,-58,-48,-14
-97,-97,0,97,-48,-48,39,-39,-34,-58,-48,-14
-97,-97,0,97,-48,-48,39,-39,-34,-58,-48,-14
-97,-97,0,97,-48,-48,39,-39,-34,-58,-48,-14
-102,-102,0,102,-51,-51,39,-39,-34,-58,-48,-14
-102,-102,0,102,-51,-51,43,-39,-34,-58,-48,-14
-102,-102,0,102,-51,-51,48,-39,-34,-58,-43,-14
-102,-102,0,102,-51,-51,48,-43,-34,-58,-43,-14
-107,-102,4,104,-56,-48,48,-48,-29,-58,-43,-14
-107,-102,4,104,-56,-48,48,-48,-48,-73,-53,-19
-97,-92,4,95,-51,-43,43,-48,-53,-68,-53,-19
-78,-112,-34,95,-21,-73,43,-34,-43,-63,-58,-29
-43,-63,-19,53,-12,-41,34,24,97,53,24,0
29,161,131,-95,-51,146,0,131,439,400,317,185
117,287,170,-202,-26,229,-24,224,619,644,551,336
112,248,136,-180,-12,192,4,258,624,732,624,351
73,292,219,-183,-73,256,19,214,668,805,653,351
39,668,629,-353,-295,649,-82,97,854,1083,941,610
219,995,775,-607,-278,885,-331,-48,717,1244,1249,966
814,1093,278,-954,268,685,-692,34,283,1298,1561,1361
1215,854,-361,-1034,788,246,-873,87,-239,927,1327,1244
1039,287,-751,-663,895,-231,-766,-204,-1000,-92,361,566
600,-58,-658,-270,629,-358,-536,-488,-1327,-746,-336,53
170,-165,-336,-2,253,-251,-297,-527,-1122,-814,-517,-107
-78,-156,-78,117,0,-117,-175,-517,-917,-751,-517,-146
-253,-131,122,192,-187,-4,-68,-463,-673,-595,-434,-136
-297,-102,195,200,-246,46,-14,-380,-463,-448,-346,-126
-258,-73,185,165,-222,56,-4,-278,-307,-322,-268,-117
-200,-63,136,131,-168,36,0,-185,-204,-224,-200,-97
-136,-63,73,100,-104,4,0,-131,-165,-180,-161,-78
-117,-78,39,97,-78,-19,29,-92,-126,-151,-136,-73
-126,-97,29,112,-78,-34,48,-68,-92,-126,-117,-73
-126,-107,19,117,-73,-43,53,-43,-58,-97,-97,-63
-87,-107,-19,97,-34,-63,53,-19,-48,-78,-73,-43
-73,-107,-34,90,-19,-70,53,-9,-39,-68,-63,-39
-73,-107,-34,90,-19,-70,58,-4,-29,-68,-63,-39
-73,-112,-39,92,-17,-75,58,9,-19,-63,-63,-39
-63,-112,-48,87,-7,-80,58,9,-19,-58,-63,-39
-48,-107,-58,78,4,-82,53,14,-14,-58,-58,-39
-48,-107,-58,78,4,-82,53,14,-14,-53,-58,-34
-48,-107,-58,78,4,-82,53,9,-9,-48,-53,-34
-43,-107,-63,75,9,-85,53,14,-9,-48,-48,-34
-39,-107,-68,73,14,-87,53,19,-4,-48,-48,-34
-39,-102,-63,70,12,-82,53,24,-4,-43,-43,-29
-34,-102,-68,68,17,-85,53,24,0,-39,-43,-29
-39,-102,-63,70,12,-82,48,24,4,-34,-39,-29
-34,-102,-68,68,17,-85,48,29,4,-29,-34,-29
-29,-97,-68,63,19,-82,43,34,9,-29,-34,-34
-34,-97,-63,65,14,-80,43,39,9,-29,-34,-34
-29,-92,-63,61,17,-78,48,39,14,-24,-34,-34
-24,-92,-68,58,21,-80,48,48,19,-24,-34,-34
-14,-92,-78,53,31,-85,48,48,24,-14,-24,-34
-14,-92,-78,53,31,-85,48,58,29,-14,-19,-29
-4,-87,-82,46,39,-85,43,63,34,-9,-14,-29
9,-87,-97,39,53,-92,39,68,39,0,-14,-29
9,-87,-97,39,53,-92,39,73,48,0,-14,-29
14,-87,-102,36,58,-95,39,82,48,9,-9,-24
14,-87,-102,36,58,-95,34,82,53,9,-4,-24
24,-82,-107,29,65,-95,29,92,58,14,-4,-24
29,-82,-112,26,70,-97,34,97,58,19,0,-19
34,-78,-112,21,73,-95,39,102,63,19,0,-19
34,-73,-107,19,70,-90,39,107,68,29,4,-19
39,-73,-112,17,75,-92,34,117,78,39,9,-19
48,-73,-122,12,85,-97,34,122,87,43,14,-14
53,-68,-122,7,87,-95,34,131,87,48,19,-14
63,-68,-131,2,97,-100,34,131,92,48,24,-14
68,-63,-131,-2,100,-97,29,141,102,58,29,-9
68,-58,-126,-4,97,-92,24,146,107,63,39,-9
78,-58,-136,-9,107,-97,19,151,107,68,43,-4
92,-53,-146,-19,119,-100,19,161,122,78,43,-4
97,-48,-146,-24,122,-97,19,165,131,87,48,0
102,-43,-146,-29,124,-95,19,175,136,92,48,0
107,-43,-151,-31,129,-97,14,175,141,97,53,0
112,-43,-156,-34,134,-100,14,185,146,97,53,4
122,-39,-161,-41,141,-100,14,195,156,102,58,4
126,-34,-161,-46,143,-97,14,200,156,102,58,4
131,-29,-161,-51,146,-95,9,209,161,102,63,4
131,-29,-161,-51,146,-95,9,214,161,107,63,4
136,-24,-161,-56,148,-92,9,224,165,107,63,4
141,-19,-161,-61,151,-90,9,234,161,107,63,4
146,-19,-165,-63,156,-92,9,239,161,107,63,0
151,-19,-170,-65,161,-95,9,239,161,102,63,-4
156,-19,-175,-68,165,-97,9,244,161,102,58,-9
161,-19,-180,-70,170,-100,9,253,161,102,48,-14
161,-19,-180,-70,170,-100,9,253,161,97,43,-19
156,-29,-185,-63,170,-107,14,258,161,82,34,-29
151,-34,-185,-58,168,-109,14,263,161,78,29,-39
156,-34,-190,-61,173,-112,19,268,156,68,19,-43
151,-39,-190,-56,170,-114,19,263,151,58,4,-53
141,-48,-190,-46,165,-119,24,253,136,48,-9,-58
131,-58,-190,-36,161,-124,24,248,126,34,-19,-73
122,-58,-180,-31,151,-119,24,239,117,24,-34,-82
112,-63,-175,-24,143,-119,29,219,97,4,-48,-92
97,-73,-170,-12,134,-122,34,204,82,-14,-63,-102
78,-78,-156,0,117,-117,39,190,63,-29,-78,-107
63,-87,-151,12,107,-119,39,170,43,-43,-97,-117
39,-97,-136,29,87,-117,43,146,29,-63,-112,-122
19,-112,-131,46,75,-122,48,131,14,-73,-122,-126
0,-117,-117,58,58,-117,48,112,4,-82,-131,-126
-14,-117,-102,65,43,-109,53,87,-9,-97,-131,-136
-29,-122,-92,75,31,-107,58,63,-24,-112,-141,-141
-43,-122,-78,82,17,-100,58,43,-34,-112,-146,-141
-53,-122,-68,87,7,-95,58,24,-39,-112,-151,-131
-63,-112,-48,87,-7,-80,53,9,-39,-112,-146,-126
-73,-107,-34,90,-19,-70,48,-4,-43,-112,-136,-117
-73,-97,-24,85,-24,-61,43,-14,-43,-107,-126,-102
-78,-87,-9,82,-34,-48,39,-29,-43,-102,-117,-92
-82,-82,0,82,-41,-41,34,-34,-43,-92,-107,-82
-87,-68,19,78,-53,-24,34,-39,-39,-82,-97,-68
-92,-58,34,75,-63,-12,29,-43,-34,-73,-82,-58
-92,-48,43,70,-68,-2,24,-53,-34,-63,-73,-43
-87,-39,48,63,-68,4,19,-58,-29,-58,-63,-39
-87,-29,58,58,-73,14,19,-68,-24,-48,-58,-39
-87,-14,73,51,-80,29,14,-68,-24,-48,-48,-29
-87,-4,82,46,-85,39,14,-68,-19,-43,-39,-19
-82,-4,78,43,-80,36,14,-68,-19,-34,-39,-14
-73,0,73,36,-73,36,9,-73,-14,-34,-29,-4
-73,4,78,34,-75,41,9,-73,-14,-29,-29,0
-73,9,82,31,-78,46,9,-73,-14,-29,-24,4
-73,9,82,31,-78,46,9,-73,-19,-24,-19,4
-73,9,82,31,-78,46,4,-73,-19,-24,-19,9
-78,14,92,31,-85,53,4,-73,-19,-19,-19,9
-78,14,92,31,-85,53,4,-73,-19,-19,-14,9
-68,19,87,24,-78,53,4,-78,-14,-19,-14,9
-68,24,92,21,-80,58,0,-78,-14,-14,-14,9
-73,24,97,24,-85,61,0,-73,-14,-14,-14,14
-73,24,97,24,-85,61,0,-68,-14,-19,-14,14
-73,24,97,24,-85,61,0,-68,-14,-19,-14,14
-73,24,97,24,-85,61,4,-68,-14,-14,-14,14
-73,24,97,24,-85,61,4,-73,-14,-19,-14,9
-73,24,97,24,-85,61,4,-73,-14,-24,-14,4
-73,24,97,24,-85,61,0,-73,-14,-24,-14,4
-73,24,97,24,-85,61,0,-73,-14,-24,-14,4
-78,24,102,26,-90,63,0,-73,-14,-19,-14,4
-78,24,102,26,-90,63,4,-73,-14,-14,-14,0
-73,24,97,24,-85,61,4,-73,-14,-19,-14,0
-73,19,92,26,-82,56,4,-73,-14,-19,-14,0
-73,14,87,29,-80,51,4,-73,-19,-19,-14,0
-73,9,82,31,-78,46,4,-73,-19,-19,-14,0
-73,9,82,31,-78,46,4,-73,-19,-19,-19,-4
-73,9,82,31,-78,46,4,-73,-19,-19,-24,-4
-73,4,78,34,-75,41,4,-68,-19,-19,-24,-4
-73,4,78,34,-75,41,9,-68,-19,-19,-29,-4
-73,0,73,36,-73,36,9,-68,-19,-29,-29,-4
-73,-4,68,39,-70,31,9,-73,-19,-34,-34,-4
-73,-4,68,39,-70,31,4,-73,-24,-34,-34,-9
-73,-4,68,39,-70,31,4,-73,-24,-34,-34,-9
-73,-4,68,39,-70,31,9,-73,-29,-39,-39,-14
-73,0,73,36,-73,36,9,-73,-29,-39,-39,-14
-78,-4,73,41,-75,34,9,-73,-29,-34,-39,-14
-78,-4,73,41,-75,34,9,-73,-29,-29,-39,-14
-73,-4,68,39,-70,31,9,-68,-34,-34,-34,-14
-73,-9,63,41,-68,26,9,-63,-34,-34,-34,-19
-73,-9,63,41,-68,26,9,-63,-34,-39,-34,-19
-73,-14,58,43,-65,21,9,-63,-34,-39,-34,-19
-73,-4,68,39,-70,31,9,-58,-24,-43,-29,-14
-78,0,78,39,-78,39,9,-58,-19,-48,-29,-9
-78,0,78,39,-78,39,9,-58,-19,-39,-29,-9
-78,0,78,39,-78,39,9,-58,-19,-29,-29,-9
-73,4,78,34,-75,41,9,-63,-19,-29,-24,-4
-68,9,78,29,-73,43,9,-63,-14,-29,-19,0
-68,19,87,24,-78,53,9,-68,-9,-29,-14,4
-63,29,92,17,-78,61,9,-68,-4,-19,-9,9
-63,39,102,12,-82,70,4,-73,4,-9,0,19
-53,63,117,-4,-85,90,-4,-73,19,0,9,29
-43,82,126,-19,-85,104,-14,-73,24,14,19,39
-39,102,141,-31,-90,122,-34,-82,29,19,29,43
-29,117,146,-43,-87,131,-43,-82,29,24,34,48
-19,122,141,-51,-80,131,-53,-82,29,24,39,48
-14,131,146,-58,-80,139,-63,-87,29,29,43,58
-9,156,165,-73,-87,161,-63,-87,29,39,53,68
-4,165,170,-80,-87,168,-63,-87,34,48,68,82
4,180,175,-92,-85,178,-68,-87,34,53,68,87
9,185,175,-97,-82,180,-78,-92,34,53,63,87
14,190,175,-102,-80,183,-82,-92,14,43,53,87
14,180,165,-97,-75,173,-78,-92,9,39,53,78
4,151,146,-78,-70,148,-68,-87,-9,19,48,68
-14,117,131,-51,-73,124,-48,-82,-14,9,34,58
-19,82,102,-31,-61,92,-43,-73,-19,0,14,39
-34,53,87,-9,-61,70,-29,-73,-24,-14,4,24
-53,39,92,7,-73,65,-19,-73,-29,-24,-4,14
-63,14,78,24,-70,46,-4,-68,-34,-29,-14,4
-78,-14,63,46,-70,24,9,-63,-39,-43,-24,-4
-82,-29,53,56,-68,12,19,-63,-48,-48,-39,-19
-82,-34,48,58,-65,7,19,-63,-48,-53,-48,-29
-87,-43,43,65,-65,0,24,-63,-53,-58,-53,-34
-87,-48,39,68,-63,-4,24,-58,-53,-58,-53,-34
-92,-53,39,73,-65,-7,24,-63,-63,-63,-58,-39
-92,-58,34,75,-63,-12,19,-68,-68,-63,-58,-39
-92,-63,29,78,-61,-17,19,-68,-68,-68,-58,-39
-92,-63,29,78,-61,-17,19,-68,-68,-68,-63,-39
-92,-68,24,80,-58,-21,29,-68,-68,-68,-63,-43
-92,-68,24,80,-58,-21,34,-68,-68,-68,-63,-43
-97,-68,29,82,-63,-19,34,-68,-68,-73,-63,-43
-97,-68,29,82,-63,-19,34,-68,-68,-78,-68,-43
-97,-68,29,82,-63,-19,34,-68,-73,-78,-68,-43
-97,-68,29,82,-63,-19,39,-68,-73,-78,-68,-43
-97,-68,29,82,-63,-19,39,-68,-73,-78,-68,-43
-102,-73,29,87,-65,-21,39,-68,-73,-78,-68,-43
-102,-73,29,87,-65,-21,39,-68,-73,-73,-68,-43
-102,-73,29,87,-65,-21,39,-68,-73,-68,-63,-43
-97,-73,24,85,-61,-24,34,-68,-73,-68,-63,-43
-97,-73,24,85,-61,-24,29,-68,-68,-68,-63,-43
-97,-73,24,85,-61,-24,29,-68,-82,-87,-73,-48
-87,-63,24,75,-56,-19,24,-68,-82,-87,-73,-48
-82,-82,0,82,-41,-41,29,-43,-53,-73,-68,-48
-63,-34,29,48,-46,-2,24,24,107,53,24,-9
19,195,175,-107,-78,185,-9,131,444,409,312,180
117,326,209,-222,-46,268,-34,224,619,663,541,336
117,302,185,-209,-34,244,-14,248,624,751,639,361
82,361,278,-222,-97,319,-9,195,668,824,692,370
68,717,649,-392,-290,683,-122,73,805,1063,941,610
268,1024,756,-646,-244,890,-380,-78,619,1185,1210,946
873,1078,204,-976,334,641,-732,19,180,1215,1483,1302
1283,795,-488,-1039,885,153,-902,87,-346,819,1210,1146
1088,234,-854,-661,971,-309,-785,-204,-1088,-180,268,468
629,-107,-736,-261,683,-422,-546,-488,-1395,-814,-405,-43
185,-209,-395,12,290,-302,-307,-531,-1161,-858,-570,-180
-78,-195,-117,136,19,-156,-185,-527,-927,-771,-556,-195
-248,-156,92,202,-170,-31,-73,-473,-688,-610,-463,-180
-287,-112,175,200,-231,31,-14,-390,-483,-458,-366,-165
-263,-82,180,173,-222,48,-4,-292,-322,-336,-287,-151
-219,-73,146,146,-183,36,0,-204,-214,-244,-219,-126
-156,-73,82,114,-119,4,0,-146,-180,-200,-180,-107
-136,-87,48,112,-92,-19,29,-102,-146,-170,-156,-102
-131,-97,34,114,-82,-31,43,-78,-107,-141,-136,-97
-117,-97,19,107,-68,-39,43,-53,-68,-107,-117,-82
-82,-97,-14,90,-34,-56,48,-29,-63,-92,-92,-68
-73,-97,-24,85,-24,-61,53,-19,-58,-87,-82,-68
-73,-97,-24,85,-24,-61,58,-19,-48,-87,-82,-68
-73,-102,-29,87,-21,-65,58,-9,-39,-82,-82,-68
-68,-102,-34,85,-17,-68,58,-4,-39,-78,-82,-73
-58,-97,-39,78,-9,-68,53,4,-34,-78,-78,-78
-53,-97,-43,75,-4,-70,53,9,-34,-73,-78,-73
-48,-97,-48,73,0,-73,53,9,-29,-68,-73,-73
-43,-97,-53,70,4,-75,53,14,-29,-68,-68,-73
-39,-97,-58,68,9,-78,53,19,-24,-68,-68,-73
-43,-92,-48,68,2,-70,53,24,-24,-63,-63,-68
-43,-92,-48,68,2,-70,53,24,-19,-58,-63,-68
-53,-92,-39,73,-7,-65,48,24,-14,-48,-58,-63
-53,-92,-39,73,-7,-65,48,29,-14,-39,-53,-58
-34,-87,-53,61,9,-70,43,29,-9,-39,-53,-58
-24,-87,-63,56,19,-75,43,29,-9,-39,-53,-53
-14,-82,-68,48,26,-75,43,29,-4,-39,-53,-58
-4,-82,-78,43,36,-80,39,39,0,-43,-53,-63
4,-82,-87,39,46,-85,39,39,4,-34,-43,-63
4,-82,-87,39,46,-85,39,48,9,-34,-39,-58
4,-73,-78,34,41,-75,39,53,14,-29,-34,-58
9,-68,-78,29,43,-73,39,58,19,-19,-34,-58
9,-68,-78,29,43,-73,39,63,29,-19,-34,-58
14,-68,-82,26,48,-75,39,73,29,-9,-29,-53
19,-73,-92,26,56,-82,34,73,39,-9,-24,-48
34,-73,-107,19,70,-90,29,82,48,-4,-24,-43
39,-73,-112,17,75,-92,29,87,48,0,-19,-39
43,-68,-112,12,78,-90,29,92,53,0,-19,-39
43,-63,-107,9,75,-85,29,97,53,9,-14,-43
48,-63,-112,7,80,-87,24,107,58,19,-9,-48
58,-63,-122,2,90,-92,24,112,68,29,-4,-43
63,-58,-122,-2,92,-90,24,122,68,39,0,-43
73,-58,-131,-7,102,-95,24,122,73,39,4,-43
78,-53,-131,-12,104,-92,19,131,82,48,9,-39
78,-43,-122,-17,100,-82,19,136,87,48,19,-39
87,-39,-126,-24,107,-82,19,141,87,48,24,-34
97,-34,-131,-31,114,-82,19,151,97,53,24,-34
97,-29,-126,-34,112,-78,19,156,102,58,29,-29
102,-29,-131,-36,117,-80,19,165,112,68,29,-29
107,-34,-141,-36,124,-87,14,165,122,78,34,-29
112,-34,-146,-39,129,-90,14,175,126,78,34,-24
122,-29,-151,-46,136,-90,14,185,136,82,39,-24
126,-24,-151,-51,139,-87,14,190,136,87,39,-24
131,-19,-151,-56,141,-85,9,200,141,92,43,-24
131,-19,-151,-56,141,-85,9,204,141,97,43,-24
136,-14,-151,-61,143,-82,9,214,146,97,43,-24
141,-9,-151,-65,146,-80,9,224,146,97,43,-24
146,-9,-156,-68,151,-82,9,229,151,97,43,-29
156,-9,-165,-73,161,-87,9,229,151,92,43,-34
165,-9,-175,-78,170,-92,9,234,151,92,39,-39
170,-4,-175,-82,173,-90,4,248,151,92,29,-39
170,0,-170,-85,170,-85,0,253,151,87,24,-39
165,-9,-175,-78,170,-92,4,258,146,73,14,-48
161,-14,-175,-73,168,-95,4,263,141,68,9,-58
161,-14,-175,-73,168,-95,14,263,136,58,4,-63
151,-19,-170,-65,161,-95,19,253,131,48,-4,-73
141,-29,-170,-56,156,-100,24,244,122,39,-19,-78
131,-39,-170,-46,151,-104,24,239,117,24,-29,-92
122,-43,-165,-39,143,-104,24,229,107,19,-43,-102
112,-53,-165,-29,139,-109,29,209,87,4,-58,-112
97,-63,-161,-17,129,-112,34,195,78,-14,-73,-122
78,-68,-146,-4,112,-107,39,180,63,-29,-87,-126
63,-78,-141,7,102,-109,39,161,43,-43,-102,-136
39,-87,-126,24,82,-107,43,136,29,-63,-112,-141
19,-102,-122,41,70,-112,48,122,14,-73,-126,-146
0,-107,-107,53,53,-107,48,102,4,-82,-141,-146
-14,-107,-92,61,39,-100,48,82,-4,-92,-141,-151
-29,-112,-82,70,26,-97,48,63,-14,-102,-151,-151
-43,-112,-68,78,12,-90,48,43,-29,-107,-151,-151
-53,-112,-58,82,2,-85,48,24,-39,-112,-151,-141
-63,-102,-39,82,-12,-70,43,9,-39,-112,-151,-141
-73,-97,-24,85,-24,-61,39,-4,-43,-112,-146,-136
-78,-87,-9,82,-34,-48,39,-14,-43,-107,-136,-122
-87,-78,9,82,-48,-34,39,-29,-43,-102,-126,-112
-87,-73,14,80,-51,-29,34,-43,-43,-97,-117,-102
-87,-58,29,73,-58,-14,34,-58,-39,-92,-107,-87
-92,-48,43,70,-68,-2,34,-63,-34,-82,-92,-78
-92,-39,53,65,-73,7,34,-73,-34,-73,-82,-63
-87,-29,58,58,-73,14,29,-73,-29,-63,-73,-53
-87,-19,68,53,-78,24,29,-78,-24,-48,-68,-48
-87,-9,78,48,-82,34,19,-78,-24,-48,-58,-39
-87,-4,82,46,-85,39,14,-78,-19,-43,-48,-29
-82,-4,78,43,-80,36,9,-78,-19,-34,-48,-29
-73,0,73,36,-73,36,0,-82,-14,-34,-39,-24
-73,4,78,34,-75,41,0,-82,-14,-29,-39,-19
-73,9,82,31,-78,46,0,-82,-14,-29,-34,-14
-73,9,82,31,-78,46,4,-78,-14,-24,-29,-14
-73,9,82,31,-78,46,4,-73,-9,-24,-29,-9
-78,14,92,31,-85,53,4,-73,-9,-19,-29,-9
-78,14,92,31,-85,53,4,-73,-9,-19,-24,-9
-68,14,82,26,-75,48,4,-78,-4,-19,-24,-9
-68,14,82,26,-75,48,0,-78,-4,-14,-24,-9
-73,14,87,29,-80,51,0,-78,-4,-14,-24,-4
-73,14,87,29,-80,51,0,-78,-4,-19,-24,-4
-73,14,87,29,-80,51,0,-82,-9,-19,-24,-4
-73,14,87,29,-80,51,4,-87,-14,-14,-24,-4
-73,19,92,26,-82,56,4,-87,-14,-14,-24,-9
-73,24,97,24,-85,61,4,-82,-14,-14,-24,-14
-73,24,97,24,-85,61,0,-82,-14,-14,-24,-14
-73,24,97,24,-85,61,0,-82,-14,-14,-24,-14
-82,24,107,29,-95,65,0,-82,-14,-14,-24,-9
-87,24,112,31,-100,68,4,-82,-14,-14,-24,-9
-82,24,107,29,-95,65,4,-78,-14,-19,-24,-9
-82,19,102,31,-92,61,4,-73,-14,-19,-24,-9
-78,19,97,29,-87,58,4,-73,-19,-19,-24,-9
-73,19,92,26,-82,56,4,-73,-19,-19,-24,-9
-73,19,92,26,-82,56,4,-78,-19,-19,-24,-14
-73,19,92,26,-82,56,4,-82,-19,-19,-24,-14
-73,14,87,29,-80,51,4,-78,-19,-19,-24,-14
-73,14,87,29,-80,51,9,-78,-19,-19,-29,-14
-73,9,82,31,-78,46,9,-73,-19,-24,-29,-14
-73,4,78,34,-75,41,9,-73,-19,-24,-34,-14
-73,4,78,34,-75,41,4,-73,-24,-29,-34,-19
-73,4,78,34,-75,41,4,-73,-24,-34,-34,-19
-73,0,73,36,-73,36,9,-68,-29,-39,-39,-24
-73,0,73,36,-73,36,9,-63,-29,-39,-39,-24
-78,-4,73,41,-75,34,9,-63,-29,-34,-39,-24
-78,-4,73,41,-75,34,9,-63,-29,-29,-39,-24
-73,0,73,36,-73,36,9,-68,-34,-34,-39,-24
-73,0,73,36,-73,36,9,-73,-34,-34,-43,-29
-73,0,73,36,-73,36,9,-73,-34,-39,-43,-29
-73,-4,68,39,-70,31,9,-73,-34,-39,-43,-29
-73,-14,58,43,-65,21,14,-68,-34,-39,-43,-29
-73,-24,48,48,-61,12,14,-63,-34,-39,-43,-29
-73,-19,53,46,-63,17,14,-63,-34,-43,-48,-34
-68,-14,53,41,-61,19,9,-63,-34,-48,-48,-39
-68,-9,58,39,-63,24,9,-63,-34,-48,-43,-39
-68,-4,63,36,-65,29,9,-68,-34,-48,-43,-39
-68,0,68,34,-68,34,9,-68,-29,-43,-39,-34
-68,9,78,29,-73,43,9,-68,-29,-39,-39,-29
-63,19,82,21,-73,51,9,-68,-24,-29,-34,-19
-58,29,87,14,-73,58,9,-68,-19,-19,-29,-9
-58,34,92,12,-75,63,9,-68,-14,-19,-29,-9
-58,39,97,9,-78,68,9,-68,-9,-14,-24,-4
-58,48,107,4,-82,78,9,-68,-4,-9,-19,0
-63,58,122,2,-92,90,4,-73,4,0,-9,9
-53,82,136,-14,-95,109,-4,-73,19,9,0,19
-43,102,146,-29,-95,124,-14,-73,24,24,9,29
-39,122,161,-41,-100,141,-39,-82,29,29,19,34
-29,136,165,-53,-97,151,-53,-82,29,34,24,43
-19,141,161,-61,-90,151,-63,-82,29,34,29,48
-14,151,165,-68,-90,158,-73,-87,29,39,34,58
-9,175,185,-82,-97,180,-73,-87,29,48,43,68
-9,180,190,-85,-100,185,-73,-87,34,53,58,78
0,185,185,-92,-92,185,-78,-87,34,48,58,78
9,180,170,-95,-80,175,-82,-92,34,43,53,78
14,180,165,-97,-75,173,-82,-87,14,34,43,78
14,161,146,-87,-65,153,-78,-82,9,29,39,63
4,126,122,-65,-58,124,-63,-78,-9,14,29,48
-14,97,112,-41,-63,104,-39,-73,-14,9,14,39
-19,63,82,-21,-51,73,-34,-63,-19,0,-4,19
-34,39,73,-2,-53,56,-19,-63,-29,-14,-14,4
-53,29,82,12,-68,56,-9,-63,-39,-24,-24,-4
-58,9,68,24,-63,39,0,-63,-43,-29,-34,-14
-73,-14,58,43,-65,21,9,-68,-48,-43,-43,-24
-82,-29,53,56,-68,12,19,-73,-58,-48,-53,-34
-82,-34,48,58,-65,7,19,-73,-58,-53,-58,-39
-87,-43,43,65,-65,0,24,-73,-63,-58,-63,-43
-82,-48,34,65,-58,-7,24,-68,-63,-58,-63,-43
-82,-48,34,65,-58,-7,29,-68,-68,-63,-68,-48
-82,-48,34,65,-58,-7,29,-68,-68,-63,-68,-48
-82,-53,29,68,-56,-12,29,-68,-68,-68,-68,-48
-87,-53,34,70,-61,-9,29,-68,-68,-68,-73,-48
-92,-58,34,75,-63,-12,34,-68,-68,-68,-73,-53
-92,-63,29,78,-61,-17,34,-68,-68,-68,-68,-53
-97,-68,29,82,-63,-19,34,-68,-68,-68,-63,-53
-97,-68,29,82,-63,-19,29,-68,-63,-73,-68,-53
-97,-68,29,82,-63,-19,24,-68,-63,-78,-68,-53
-97,-68,29,82,-63,-19,29,-68,-63,-78,-68,-53
-97,-68,29,82,-63,-19,29,-68,-63,-78,-68,-53
-102,-68,34,85,-68,-17,29,-68,-63,-73,-73,-53
-102,-63,39,82,-70,-12,29,-68,-63,-68,-78,-53
-102,-63,39,82,-70,-12,29,-68,-63,-68,-73,-53
-97,-63,34,80,-65,-14,29,-68,-63,-68,-73,-53
-92,-63,29,78,-61,-17,34,-68,-58,-68,-68,-48
-87,-63,24,75,-56,-19,39,-63,-58,-68,-63,-43
-78,-48,29,63,-53,-9,34,-48,-34,-39,-43,-34
-53,-24,29,39,-41,2,29,0,43,34,14,0
-14,68,82,-26,-48,75,14,82,244,209,151,68
58,268,209,-163,-75,239,-19,165,522,527,414,239
146,370,224,-258,-39,297,-48,229,634,741,619,375
146,400,253,-273,-53,326,-53,224,634,829,717,424
131,507,375,-319,-122,441,-87,146,649,883,766,458
229,814,585,-522,-178,700,-258,48,663,1058,1010,717
522,1024,502,-773,9,763,-541,-78,366,1098,1229,1029
980,922,-58,-951,519,431,-790,-39,-126,917,1249,1156
1215,541,-673,-878,944,-65,-854,-34,-663,366,780,814
907,78,-829,-492,868,-375,-683,-302,-1190,-439,-19,234
366,-161,-527,-102,446,-344,-419,-556,-1283,-854,-522,-151
9,-209,-219,100,114,-214,-224,-556,-1024,-805,-575,-219
-161,-151,9,156,-85,-70,-136,-507,-790,-663,-488,-190
-287,-122,165,204,-226,21,-43,-439,-570,-517,-405,-170
-287,-92,195,190,-241,51,-4,-341,-390,-380,-322,-156
-248,-73,175,161,-212,51,4,-253,-263,-278,-258,-146
-190,-73,117,131,-153,21,9,-175,-185,-209,-200,-126
-136,-73,63,104,-100,-4,9,-126,-156,-175,-165,-107
-122,-87,34,104,-78,-26,39,-92,-126,-151,-151,-102
-112,-97,14,104,-63,-41,53,-68,-97,-126,-136,-102
-97,-92,4,95,-51,-43,53,-43,-68,-97,-117,-92
-68,-87,-19,78,-24,-53,53,-24,-63,-82,-97,-78
-68,-87,-19,78,-24,-53,53,-19,-58,-78,-92,-78
-73,-87,-14,80,-29,-51,58,-19,-48,-78,-92,-78
-73,-92,-19,82,-26,-56,58,-9,-39,-73,-87,-78
-68,-92,-24,80,-21,-58,58,-9,-39,-68,-82,-78
-58,-87,-29,73,-14,-58,53,-4,-34,-68,-78,-78
-58,-87,-29,73,-14,-58,53,0,-34,-63,-78,-73
-53,-87,-34,70,-9,-61,48,0,-34,-58,-73,-73
-43,-87,-43,65,0,-65,43,4,-39,-58,-68,-73
-39,-87,-48,63,4,-68,43,9,-34,-58,-68,-73
-39,-82,-43,61,2,-63,43,14,-34,-53,-63,-68
-34,-82,-48,58,7,-65,43,14,-29,-53,-63,-68
-34,-82,-48,58,7,-65,39,14,-24,-53,-58,-68
-24,-82,-58,53,17,-70,39,19,-19,-48,-53,-68
-14,-78,-63,46,24,-70,34,24,-9,-48,-53,-68
-14,-78,-63,46,24,-70,34,29,-9,-48,-53,-63
-9,-73,-63,41,26,-68,34,29,-4,-43,-53,-63
-4,-73,-68,39,31,-70,29,39,0,-39,-53,-63
4,-73,-78,34,41,-75,29,39,4,-24,-43,-63
4,-73,-78,34,41,-75,29,48,9,-24,-39,-58
9,-68,-78,29,43,-73,29,53,14,-19,-34,-58
19,-68,-87,24,53,-78,29,58,19,-9,-34,-58
19,-68,-87,24,53,-78,29,63,29,-9,-34,-58
19,-68,-87,24,53,-78,29,73,29,0,-29,-53
19,-68,-87,24,53,-78,24,73,34,0,-24,-53
34,-63,-97,14,65,-80,19,82,39,4,-24,-53
39,-63,-102,12,70,-82,19,87,39,9,-19,-48
48,-58,-107,4,78,-82,19,92,43,4,-19,-48
53,-53,-107,0,80,-80,19,97,48,9,-14,-48
58,-53,-112,-2,85,-82,14,107,58,19,-9,-48
68,-53,-122,-7,95,-87,14,112,68,24,-4,-43
73,-48,-122,-12,97,-85,19,126,68,29,0,-39
82,-48,-131,-17,107,-90,24,131,73,29,4,-34
87,-43,-131,-21,109,-87,19,141,82,39,9,-29
87,-39,-126,-24,107,-82,19,146,87,43,19,-29
97,-39,-136,-29,117,-87,14,151,87,48,24,-29
107,-34,-141,-36,124,-87,9,161,97,53,24,-34
107,-29,-136,-39,122,-82,9,165,97,58,29,-29
112,-24,-136,-43,124,-80,9,175,97,63,29,-29
117,-24,-141,-46,129,-82,9,175,102,68,34,-29
122,-24,-146,-48,134,-85,14,185,107,68,34,-24
126,-19,-146,-53,136,-82,14,195,117,73,39,-24
126,-14,-141,-56,134,-78,14,200,117,78,39,-24
131,-9,-141,-61,136,-75,9,209,122,82,43,-24
131,-9,-141,-61,136,-75,9,214,122,87,43,-24
136,-4,-141,-65,139,-73,4,224,126,87,39,-24
141,0,-141,-70,141,-70,0,234,126,87,34,-24
151,0,-151,-75,151,-75,0,239,131,87,34,-29
161,0,-161,-80,161,-80,0,239,131,82,34,-34
165,0,-165,-82,165,-82,0,239,131,82,34,-39
170,0,-170,-85,170,-85,0,244,131,82,29,-43
165,0,-165,-82,165,-82,4,244,131,78,24,-43
156,-9,-165,-73,161,-87,14,248,131,63,14,-48
151,-14,-165,-68,158,-90,14,253,131,58,9,-58
151,-14,-165,-68,158,-90,19,253,126,48,0,-63
141,-19,-161,-61,151,-90,14,244,122,39,-14,-73
131,-29,-161,-51,146,-95,14,234,107,29,-29,-78
126,-39,-165,-43,146,-102,14,229,97,14,-39,-92
122,-43,-165,-39,143,-104,14,219,87,4,-53,-102
112,-53,-165,-29,139,-109,19,200,68,-9,-68,-112
97,-63,-161,-17,129,-112,24,185,58,-24,-82,-122
78,-68,-146,-4,112,-107,29,170,43,-39,-97,-126
63,-78,-141,7,102,-109,29,151,24,-53,-112,-136
39,-87,-126,24,82,-107,34,126,9,-73,-122,-141
19,-97,-117,39,68,-107,39,112,-4,-82,-131,-146
0,-97,-97,48,48,-97,39,87,-14,-92,-141,-146
-14,-97,-82,56,34,-90,43,63,-24,-102,-141,-151
-29,-102,-73,65,21,-87,48,43,-34,-112,-151,-151
-43,-102,-58,73,7,-80,48,24,-43,-112,-151,-151
-58,-102,-43,80,-7,-73,48,4,-48,-112,-151,-141
-73,-92,-19,82,-26,-56,43,-9,-48,-112,-146,-136
-82,-87,-4,85,-39,-46,39,-24,-48,-112,-136,-126
-82,-78,4,80,-43,-36,34,-34,-43,-107,-126,-112
-87,-68,19,78,-53,-24,29,-43,-43,-102,-117,-102
-87,-63,24,75,-56,-19,24,-48,-43,-92,-107,-92
-87,-48,39,68,-63,-4,24,-58,-39,-82,-97,-78
-92,-39,53,65,-73,7,19,-63,-34,-73,-82,-68
-92,-29,63,61,-78,17,19,-73,-34,-58,-73,-53
-87,-19,68,53,-78,24,19,-73,-29,-48,-63,-43
-87,-9,78,48,-82,34,19,-78,-24,-39,-58,-34
-87,0,87,43,-87,43,14,-78,-24,-39,-48,-19
-87,4,92,41,-90,48,14,-78,-19,-39,-39,-9
-87,4,92,41,-90,48,14,-78,-19,-34,-39,-9
-82,9,92,36,-87,51,9,-82,-14,-34,-29,-9
-82,14,97,34,-90,56,9,-82,-14,-29,-29,-9
-78,19,97,29,-87,58,4,-82,-14,-29,-24,-4
-73,19,92,26,-82,56,0,-82,-14,-24,-19,-4
-73,19,92,26,-82,56,-4,-82,-9,-24,-19,0
-73,24,97,24,-85,61,-4,-82,-9,-19,-19,0
-68,24,92,21,-80,58,0,-82,-14,-19,-19,-4
-58,24,82,17,-70,53,4,-87,-14,-19,-24,-9
-63,24,87,19,-75,56,0,-82,-14,-14,-24,-9
-73,24,97,24,-85,61,0,-78,-14,-14,-24,-4
-73,24,97,24,-85,61,0,-78,-14,-19,-24,-4
-73,24,97,24,-85,61,0,-78,-14,-19,-24,-4
-73,24,97,24,-85,61,4,-82,-14,-19,-24,-4
-73,24,97,24,-85,61,4,-87,-14,-24,-24,-4
-73,24,97,24,-85,61,4,-82,-14,-24,-24,-4
-73,24,97,24,-85,61,0,-82,-14,-24,-24,-4
-68,24,92,21,-80,58,0,-82,-14,-24,-24,-4
-68,24,92,21,-80,58,0,-82,-14,-24,-24,-4
-68,19,87,24,-78,53,4,-82,-14,-24,-24,-9
-63,14,78,24,-70,46,4,-82,-14,-29,-24,-9
-63,9,73,26,-68,41,4,-82,-14,-29,-24,-9
-63,9,73,26,-68,41,4,-82,-19,-29,-24,-9
-68,9,78,29,-73,43,4,-82,-19,-29,-24,-4
-73,9,82,31,-78,46,4,-82,-19,-29,-24,-4
-73,9,82,31,-78,46,4,-82,-19,-24,-24,-4
-73,4,78,34,-75,41,4,-78,-19,-19,-24,-4
-73,4,78,34,-75,41,9,-78,-19,-19,-29,-4
-73,0,73,36,-73,36,9,-73,-19,-24,-29,-4
-73,-4,68,39,-70,31,9,-73,-19,-24,-34,-9
-73,-4,68,39,-70,31,4,-73,-24,-24,-34,-19
-73,-4,68,39,-70,31,4,-73,-24,-29,-34,-19
-73,-9,63,41,-68,26,9,-73,-29,-39,-39,-24
-73,-4,68,39,-70,31,9,-73,-29,-39,-39,-24
-78,-4,73,41,-75,34,9,-73,-29,-39,-39,-24
-78,-4,73,41,-75,34,9,-73,-29,-39,-39,-24
-73,-4,68,39,-70,31,9,-73,-34,-43,-39,-24
-73,-9,63,41,-68,26,9,-73,-34,-43,-43,-29
-73,-9,63,41,-68,26,9,-73,-34,-48,-43,-29
-73,-14,58,43,-65,21,9,-68,-34,-48,-43,-29
-73,-14,58,43,-65,21,14,-63,-34,-48,-43,-29
-73,-19,53,46,-63,17,14,-63,-34,-48,-43,-29
-73,-19,53,46,-63,17,14,-63,-34,-48,-48,-29
-68,-24,43,46,-56,9,9,-68,-39,-48,-48,-29
-68,-19,48,43,-58,14,9,-73,-43,-48,-43,-29
-68,-14,53,41,-61,19,9,-68,-39,-48,-39,-29
-68,-14,53,41,-61,19,9,-68,-39,-53,-34,-29
-68,-9,58,39,-63,24,4,-68,-39,-48,-29,-24
-68,-9,58,39,-63,24,0,-68,-39,-48,-29,-19
-63,4,68,29,-65,36,0,-68,-34,-39,-24,-9
-58,19,78,19,-68,48,0,-68,-29,-29,-19,0
-58,24,82,17,-70,53,0,-68,-19,-29,-19,0
-53,29,82,12,-68,56,0,-68,-9,-24,-14,0
-53,39,92,7,-73,65,4,-68,-4,-19,-9,4
-53,48,102,2,-78,75,4,-73,4,-9,0,9
-43,73,117,-14,-80,95,-4,-73,19,0,9,19
-34,92,126,-29,-80,109,-14,-73,24,14,19,29
-29,112,141,-41,-85,126,-34,-82,29,19,29,34
-19,126,146,-53,-82,136,-43,-82,29,24,34,43
-9,131,141,-61,-75,136,-58,-82,29,24,39,48
-4,141,146,-68,-75,143,-73,-87,29,29,43,58
0,165,165,-82,-82,165,-73,-87,29,43,53,68
0,170,170,-85,-85,170,-73,-87,34,53,68,78
4,180,175,-92,-85,178,-78,-87,34,53,68,78
9,180,170,-95,-80,175,-82,-92,34,53,63,78
14,185,170,-100,-78,178,-82,-92,19,43,58,82
14,170,156,-92,-70,163,-78,-92,19,39,58,73
4,131,126,-68,-61,129,-73,-87,0,19,48,58
-14,97,112,-41,-63,104,-58,-82,-4,9,34,48
-19,63,82,-21,-51,73,-53,-73,-14,0,14,29
-34,39,73,-2,-53,56,-39,-73,-29,-14,4,14
-53,34,87,9,-70,61,-24,-73,-39,-24,-4,4
-58,19,78,19,-68,48,-9,-73,-43,-29,-14,-4
-68,-4,63,36,-65,29,0,-73,-48,-43,-24,-19
-73,-19,53,46,-63,17,9,-73,-58,-48,-34,-34
-73,-29,43,51,-58,7,9,-73,-58,-58,-39,-39
-78,-43,34,61,-56,-4,14,-73,-63,-68,-43,-43
-82,-48,34,65,-58,-7,14,-68,-63,-68,-48,-43
-92,-48,43,70,-68,-2,19,-68,-68,-73,-58,-48
-92,-48,43,70,-68,-2,19,-68,-68,-73,-58,-48
-92,-53,39,73,-65,-7,19,-68,-68,-78,-58,-48
-87,-53,34,70,-61,-9,19,-68,-68,-78,-63,-48
-82,-58,24,70,-53,-17,24,-68,-68,-78,-63,-53
-82,-58,24,70,-53,-17,24,-68,-73,-78,-63,-53
-87,-58,29,73,-58,-14,24,-68,-78,-78,-63,-53
-92,-58,34,75,-63,-12,24,-68,-78,-78,-68,-53
-97,-58,39,78,-68,-9,24,-68,-82,-78,-68,-53
-97,-63,34,80,-65,-14,29,-68,-78,-78,-68,-53
-97,-68,29,82,-63,-19,29,-68,-73,-78,-68,-53
-102,-73,29,87,-65,-21,29,-68,-73,-73,-68,-53
-102,-73,29,87,-65,-21,29,-68,-73,-68,-68,-53
-102,-73,29,87,-65,-21,29,-68,-73,-68,-63,-53
-97,-73,24,85,-61,-24,29,-68,-73,-68,-63,-53
-97,-73,24,85,-61,-24,29,-73,-73,-68,-63,-53
-97,-73,24,85,-61,-24,29,-73,-78,-68,-63,-53
-92,-68,24,80,-58,-21,24,-68,-82,-68,-68,-58
-73,-53,19,63,-46,-17,19,-29,-34,-24,-34,-39
-34,34,68,0,-51,51,9,58,175,151,92,29
39,229,190,-134,-75,209,-19,146,463,468,346,200
136,322,185,-229,-24,253,-43,229,595,688,570,346
146,341,195,-244,-24,268,-43,244,614,780,688,405
82,424,341,-253,-129,383,-29,165,688,854,707,395
131,707,575,-419,-222,641,-151,68,761,1049,922,610
434,1034,600,-734,-82,817,-473,-68,517,1185,1259,1019
902,1049,146,-976,378,597,-761,-39,78,1102,1395,1244
1273,658,-614,-966,944,21,-897,0,-527,546,956,936
1102,185,-917,-644,1010,-366,-800,-234,-1122,-263,185,390
497,-117,-614,-190,556,-366,-497,-531,-1288,-785,-424,-68
78,-229,-307,75,192,-268,-263,-575,-1102,-844,-585,-209
-122,-165,-43,143,-39,-104,-170,-527,-858,-702,-502,-185
-278,-131,146,204,-212,7,-73,-458,-629,-556,-424,-170
-283,-92,190,187,-236,48,-29,-361,-434,-409,-336,-156
-248,-63,185,156,-217,61,-14,-273,-292,-297,-268,-146
-190,-63,126,126,-158,31,-9,-190,-204,-224,-204,-126
-136,-63,73,100,-104,4,-9,-136,-165,-185,-165,-107
-126,-78,48,102,-87,-14,24,-102,-136,-161,-146,-102
-122,-87,34,104,-78,-26,43,-78,-107,-136,-126,-102
-107,-87,19,97,-63,-34,43,-48,-78,-102,-107,-92
-78,-87,-9,82,-34,-48,43,-24,-73,-82,-87,-78
-73,-87,-14,80,-29,-51,43,-19,-68,-78,-82,-78
-73,-87,-14,80,-29,-51,48,-19,-58,-78,-82,-78
-73,-92,-19,82,-26,-56,48,-9,-48,-73,-82,-78
-68,-92,-24,80,-21,-58,48,-9,-48,-68,-82,-78
-53,-87,-34,70,-9,-61,43,-4,-43,-68,-78,-78
-48,-87,-39,68,-4,-63,43,0,-43,-63,-78,-73
-48,-87,-39,68,-4,-63,43,0,-34,-58,-73,-73
-43,-87,-43,65,0,-65,43,4,-29,-58,-68,-73
-43,-87,-43,65,0,-65,43,9,-24,-58,-63,-73
-48,-82,-34,65,-7,-58,43,14,-24,-53,-53,-68
-43,-82,-39,63,-2,-61,43,14,-24,-48,-53,-68
-43,-82,-39,63,-2,-61,39,14,-24,-43,-48,-68
-34,-82,-48,58,7,-65,39,19,-24,-39,-48,-68
