I,II,III,aVR,aVL,aVF,V1,V2,V3,V4,V5,V6,
53,48,-4,-51,29,21,-39,-43,-9,14,39,48
53,43,-9,-48,31,17,-34,-53,-14,9,39,48
43,39,-4,-41,24,17,-34,-48,-19,9,39,39
34,34,0,-34,17,17,-39,-48,-24,4,34,39
43,34,-9,-39,26,12,-43,-48,-24,4,39,39
43,29,-14,-36,29,7,-43,-43,-24,0,34,34
39,29,-9,-34,24,9,-39,-48,-29,-4,19,34
34,29,-4,-31,19,12,-34,-53,-29,-4,14,34
24,19,-4,-21,14,7,-34,-48,-34,-9,14,29
14,14,0,-14,7,7,-39,-48,-34,-9,14,29
24,14,-9,-19,17,2,-43,-53,-34,-9,14,29
34,14,-19,-24,26,-2,-43,-53,-34,-4,19,29
34,24,-9,-29,21,7,-29,-53,-34,-4,24,29
34,29,-4,-31,19,12,-24,-53,-34,-4,24,29
34,19,-14,-26,24,2,-24,-53,-34,-9,19,29
29,14,-14,-21,21,0,-24,-53,-34,-9,19,24
29,14,-14,-21,21,0,-34,-53,-34,-4,19,24
29,19,-9,-24,19,4,-43,-53,-29,-4,19,24
19,9,-9,-14,14,0,-39,-53,-29,-4,14,29
9,0,-9,-4,9,-4,-29,-48,-29,0,14,29
4,0,-4,-2,4,-2,-39,-48,-24,9,14,24
4,0,-4,-2,4,-2,-48,-43,-24,14,14,24
14,4,-9,-9,12,-2,-48,-34,-24,14,19,24
24,14,-9,-19,17,2,-48,-24,-24,9,24,24
19,9,-9,-14,14,0,-34,-39,-24,4,24,24
14,9,-4,-12,9,2,-19,-53,-19,4,24,19
14,9,-4,-12,9,2,-29,-48,-19,4,24,19
19,4,-14,-12,17,-4,-29,-48,-19,4,24,19
14,4,-9,-9,12,-2,-9,-39,-19,4,24,19
4,4,0,-4,2,2,-14,-39,-24,4,19,19
4,9,4,-7,0,7,-19,-39,-24,0,14,14
4,9,4,-7,0,7,-34,-34,-24,-4,9,14
-4,4,9,0,-7,7,-34,-39,-24,-9,4,9
-14,0,14,7,-14,7,-29,-43,-24,-14,4,4
-9,4,14,2,-12,9,-19,-43,-34,-9,0,0
4,9,4,-7,0,7,-14,-48,-34,-14,-4,0
0,19,19,-9,-9,19,-19,-48,-34,-14,0,0
0,24,24,-12,-12,24,-19,-53,-34,-14,4,0
0,9,9,-4,-4,9,-19,-53,-34,-14,4,0
4,-4,-9,0,7,-7,-24,-53,-34,-14,4,0
4,-4,-9,0,7,-7,-39,-48,-29,-14,4,0
0,-9,-9,4,4,-9,-48,-43,-29,-14,0,0
-9,-9,0,9,-4,-4,-24,-43,-29,-19,-4,0
-9,-14,-4,12,-2,-9,-29,-43,-43,-24,-9,0
-4,-14,-9,9,2,-12,-29,-53,-43,-29,-9,0
-4,-9,-4,7,0,-7,-14,-58,-43,-34,-9,0
4,0,-4,-2,4,-2,-9,-58,-43,-34,-9,0
14,9,-4,-12,9,2,-9,-58,-43,-34,-14,-4
14,9,-4,-12,9,2,-9,-58,-48,-29,-14,-4
14,9,-4,-12,9,2,-9,-58,-53,-24,-14,-4
9,9,0,-9,4,4,-9,-58,-53,-29,-14,-4
4,4,0,-4,2,2,-19,-63,-53,-34,-19,-9
-4,-19,-14,12,4,-17,-34,-68,-58,-34,-19,-14
-19,-29,-9,24,-4,-19,-43,-68,-58,-34,-19,-14
-19,-29,-9,24,-4,-19,-78,-63,-58,-34,-14,-14
-24,-39,-14,31,-4,-26,-92,-58,-63,-34,-9,-14
0,-14,-14,7,7,-14,-48,-58,-63,-34,-9,-9
19,0,-19,-9,19,-9,-4,-68,-63,-34,-9,-4
19,-4,-24,-7,21,-14,9,-73,-63,-39,-9,-4
24,-4,-29,-9,26,-17,24,-78,-68,-39,-14,-4
24,0,-24,-12,24,-12,19,-78,-68,-39,-14,-4
24,0,-24,-12,24,-12,9,-78,-68,-43,-14,-4
14,0,-14,-7,14,-7,0,-78,-68,-43,-14,-4
9,-4,-14,-2,12,-9,-9,-78,-68,-43,-14,-9
4,-14,-19,4,12,-17,-29,-78,-73,-43,-19,-9
-4,-29,-24,17,9,-26,-58,-78,-78,-43,-24,-4
-34,-43,-9,39,-12,-26,-82,-78,-78,-48,-24,-4
-43,-53,-9,48,-17,-31,-102,-78,-78,-53,-24,-4
-24,-39,-14,31,-4,-26,-78,-68,-73,-53,-24,-4
-4,-24,-19,14,7,-21,-48,-63,-68,-48,-24,-4
24,9,-14,-17,19,-2,-9,-73,-68,-48,-19,-4
43,24,-19,-34,31,2,24,-73,-73,-48,-14,-4
29,9,-19,-19,24,-4,24,-73,-73,-53,-14,-4
14,4,-9,-9,12,-2,19,-73,-68,-53,-14,-9
19,9,-9,-14,14,0,4,-73,-68,-48,-14,-9
29,19,-9,-24,19,4,-9,-78,-68,-48,-19,-9
14,4,-9,-9,12,-2,-14,-78,-68,-48,-19,-9
0,-9,-9,4,4,-9,-19,-78,-68,-48,-19,-9
-4,-9,-4,7,0,-7,-34,-78,-68,-48,-24,-9
-9,-9,0,9,-4,-4,-48,-78,-68,-48,-29,-9
-19,-14,4,17,-12,-4,-78,-78,-68,-48,-29,-14
-29,-19,9,24,-19,-4,-107,-78,-68,-48,-29,-19
-14,-19,-4,17,-4,-12,-92,-78,-73,-48,-29,-19
0,-19,-19,9,9,-19,-78,-78,-78,-48,-29,-19
9,-4,-14,-2,12,-9,-34,-78,-78,-48,-29,-14
19,9,-9,-14,14,0,9,-78,-78,-48,-29,-9
19,9,-9,-14,14,0,9,-78,-78,-48,-29,-9
19,9,-9,-14,14,0,9,-78,-78,-48,-29,-9
14,4,-9,-9,12,-2,-4,-82,-78,-48,-29,-9
9,0,-9,-4,9,-4,-19,-87,-78,-48,-29,-9
9,0,-9,-4,9,-4,-19,-87,-78,-48,-29,-9
9,0,-9,-4,9,-4,-19,-87,-78,-48,-29,-9
9,0,-9,-4,9,-4,-19,-82,-73,-48,-24,-9
9,0,-9,-4,9,-4,-19,-78,-68,-48,-19,-9
9,0,-9,-4,9,-4,-24,-78,-68,-48,-19,-9
9,0,-9,-4,9,-4,-29,-78,-68,-48,-19,-9
4,0,-4,-2,4,-2,-29,-78,-73,-48,-24,-9
0,0,0,0,0,0,-29,-78,-78,-48,-29,-9
0,0,0,0,0,0,-29,-82,-78,-53,-29,-9
0,0,0,0,0,0,-29,-87,-78,-58,-29,-9
0,0,0,0,0,0,-34,-87,-78,-58,-29,-9
0,0,0,0,0,0,-39,-87,-78,-58,-29,-9
4,0,-4,-2,4,-2,-39,-87,-78,-53,-29,-9
9,0,-9,-4,9,-4,-39,-87,-78,-48,-29,-9
9,0,-9,-4,9,-4,-39,-87,-78,-48,-29,-9
9,0,-9,-4,9,-4,-39,-87,-78,-48,-29,-9
9,0,-9,-4,9,-4,-19,-82,-78,-48,-24,-9
9,0,-9,-4,9,-4,0,-78,-78,-48,-19,-9
14,9,-4,-12,9,2,0,-78,-73,-43,-19,-9
19,19,0,-19,9,9,0,-78,-68,-39,-19,-9
34,34,0,-34,17,17,0,-58,-58,-29,-9,-4
48,48,0,-48,24,24,0,-39,-48,-19,0,0
48,48,0,-48,24,24,0,-24,-34,-9,4,9
48,48,0,-48,24,24,0,-9,-19,0,9,19
48,48,0,-48,24,24,4,-4,-14,0,14,24
48,48,0,-48,24,24,9,0,-9,0,19,29
48,53,4,-51,21,29,9,9,-4,9,29,34
48,58,9,-53,19,34,9,19,0,19,39,39
58,58,0,-58,29,29,-9,19,0,19,39,39
68,58,-9,-63,39,24,-29,19,0,19,39,39
73,58,-14,-65,43,21,-34,-9,-14,14,34,39
78,58,-19,-68,48,19,-39,-39,-29,9,29,39
78,58,-19,-68,48,19,-58,-68,-43,-4,19,34
78,58,-19,-68,48,19,-78,-97,-58,-19,9,29
78,58,-19,-68,48,19,-87,-97,-63,-19,9,29
78,58,-19,-68,48,19,-97,-97,-68,-19,9,29
82,68,-14,-75,48,26,-97,-97,-68,-19,9,34
87,78,-9,-82,48,34,-97,-97,-68,-19,9,39
87,68,-19,-78,53,24,-63,-97,-68,-24,9,39
87,58,-29,-73,58,14,-29,-97,-68,-29,9,39
78,53,-24,-65,51,14,-29,-97,-68,-29,9,39
68,48,-19,-58,43,14,-29,-97,-68,-29,9,39
68,39,-29,-53,48,4,-43,-97,-68,-24,14,39
68,29,-39,-48,53,-4,-58,-97,-68,-19,19,39
73,24,-48,-48,61,-12,-58,-82,-63,-24,14,34
63,19,-43,-41,53,-12,-58,-82,-68,-34,0,24
53,14,-39,-34,46,-12,-58,-87,-73,-43,-9,14
24,0,-24,-12,24,-12,-48,-102,-87,-58,-24,0
0,-9,-9,4,4,-9,-34,-97,-87,-58,-39,-14
-24,-14,9,19,-17,-2,-29,-97,-87,-58,-48,-19
-24,-14,9,19,-17,-2,-34,-82,-87,-58,-39,-19
-19,-14,4,17,-12,-4,-43,-78,-87,-63,-34,-19
-9,-19,-9,14,0,-14,-34,-78,-87,-63,-34,-19
-9,-14,-4,12,-2,-9,-34,-92,-92,-63,-34,-19
-14,-19,-4,17,-4,-12,-19,-97,-92,-63,-34,-19
-14,-24,-9,19,-2,-17,-14,-102,-92,-63,-34,-14
-14,-29,-14,21,0,-21,-14,-102,-97,-68,-34,-14
-19,-29,-9,24,-4,-19,-19,-102,-97,-78,-34,-19
-24,-34,-9,29,-7,-21,-24,-102,-97,-78,-43,-24
-24,-34,-9,29,-7,-21,-34,-102,-97,-78,-48,-29
-19,-24,-4,21,-7,-14,-39,-107,-97,-78,-48,-29
-19,-19,0,19,-9,-9,-39,-107,-102,-78,-48,-29
-24,-24,0,24,-12,-12,-34,-107,-102,-78,-48,-29
-24,-24,0,24,-12,-12,-24,-107,-102,-78,-48,-24
-24,-24,0,24,-12,-12,-24,-107,-102,-78,-48,-24
-29,-24,4,26,-17,-9,-34,-102,-102,-82,-48,-24
-29,-34,-4,31,-12,-19,-43,-107,-102,-82,-43,-24
-29,-39,-9,34,-9,-24,-53,-117,-102,-82,-43,-29
-29,-39,-9,34,-9,-24,-24,-117,-102,-82,-43,-29
-29,-39,-9,34,-9,-24,4,-112,-97,-78,-43,-24
-19,-24,-4,21,-7,-14,4,-102,-97,-78,-39,-24
-19,-19,0,19,-9,-9,0,-92,-97,-78,-39,-24
-24,-29,-4,26,-9,-17,-9,-92,-97,-78,-43,-29
-29,-29,0,29,-14,-14,-14,-97,-102,-78,-48,-34
-29,-24,4,26,-17,-9,-14,-97,-102,-78,-48,-34
-29,-19,9,24,-19,-4,-19,-92,-97,-78,-48,-34
-24,-14,9,19,-17,-2,-29,-92,-97,-78,-48,-34
-24,-14,9,19,-17,-2,-29,-87,-97,-73,-48,-34
-19,-14,4,17,-12,-4,-34,-87,-97,-68,-39,-24
-14,-19,-4,17,-4,-12,-39,-87,-97,-63,-29,-14
-14,-24,-9,19,-2,-17,-43,-87,-97,-53,-29,-14
-24,-24,0,24,-12,-12,-39,-87,-97,-48,-34,-24
-73,-24,48,48,-61,12,-4,-107,-131,-97,-82,-58
-126,-19,107,73,-117,43,39,-146,-170,-146,-122,-78
-185,14,200,85,-192,107,73,-175,-204,-180,-146,-102
-200,82,283,58,-241,183,126,-92,-131,-122,-117,-87
-219,78,297,70,-258,187,170,53,-9,-39,-78,-92
-117,92,209,12,-163,151,175,224,195,175,107,19
170,180,9,-175,80,95,78,346,527,668,595,356
375,283,-92,-329,234,95,-82,244,614,936,883,595
507,570,63,-539,222,317,-336,-78,541,1112,1141,883
585,629,43,-607,270,336,-546,-458,195,810,961,863
561,24,-536,-292,549,-256,-541,-814,-624,-439,-224,58
414,-405,-819,-4,617,-612,-541,-1244,-1351,-1322,-1015,-483
102,-556,-658,226,380,-607,-653,-1717,-1820,-1659,-1215,-600
-156,-570,-414,363,129,-492,-561,-1698,-1800,-1600,-1166,-585
-195,-453,-258,324,31,-356,-448,-1376,-1488,-1307,-946,-483
-195,-356,-161,275,-17,-258,-351,-1058,-1161,-1015,-722,-370
-175,-248,-73,212,-51,-161,-224,-756,-839,-741,-551,-287
-161,-151,9,156,-85,-70,-141,-507,-551,-483,-380,-209
-146,-87,58,117,-102,-14,-117,-341,-366,-326,-248,-146
-136,-68,68,102,-102,0,-63,-229,-258,-239,-180,-126
-107,-48,58,78,-82,4,-19,-136,-170,-161,-141,-102
-92,-39,53,65,-73,7,-4,-68,-97,-92,-97,-82
-68,-39,29,53,-48,-4,4,-43,-68,-68,-63,-63
-58,-39,19,48,-39,-9,14,-29,-58,-63,-58,-63
-58,-43,14,51,-36,-14,34,-14,-53,-63,-58,-63
-53,-43,9,48,-31,-17,43,-9,-43,-48,-58,-58
-53,-43,9,48,-31,-17,43,-9,-39,-48,-53,-58
-48,-43,4,46,-26,-19,43,-9,-39,-48,-48,-53
-48,-43,4,46,-26,-19,43,-4,-39,-48,-48,-53
-48,-39,9,43,-29,-14,43,0,-39,-43,-48,-53
-43,-39,4,41,-24,-17,43,4,-24,-39,-48,-48
-43,-39,4,41,-24,-17,48,9,-19,-34,-43,-43
-43,-34,9,39,-26,-12,34,19,-14,-34,-43,-43
-48,-29,19,39,-34,-4,19,29,-9,-34,-43,-43
-53,-34,19,43,-36,-7,29,24,-9,-34,-43,-48
-53,-34,19,43,-36,-7,43,19,-9,-34,-43,-53
-48,-29,19,39,-34,-4,43,19,-9,-34,-43,-58
-48,-29,19,39,-34,-4,48,19,-9,-34,-43,-58
-48,-34,14,41,-31,-9,43,19,-19,-34,-43,-58
-53,-34,19,43,-36,-7,34,24,-24,-34,-48,-63
-53,-34,19,43,-36,-7,24,24,-19,-34,-48,-63
-53,-34,19,43,-36,-7,14,29,-19,-39,-48,-63
-53,-34,19,43,-36,-7,19,24,-19,-39,-53,-58
-53,-29,24,41,-39,-2,24,14,-19,-39,-53,-58
-53,-29,24,41,-39,-2,39,14,-14,-39,-53,-58
-53,-34,19,43,-36,-7,53,19,-14,-34,-53,-58
-58,-39,19,48,-39,-9,58,29,-9,-34,-53,-58
-58,-43,14,51,-36,-14,63,34,-4,-34,-58,-63
-63,-43,19,53,-41,-12,63,34,-4,-34,-58,-63
-63,-43,19,53,-41,-12,68,43,-4,-34,-58,-68
-43,-43,0,43,-21,-21,58,58,4,-34,-58,-68
-48,-43,4,46,-26,-19,48,73,14,-34,-63,-68
-63,-53,9,58,-36,-21,53,73,14,-34,-63,-78
-78,-58,19,68,-48,-19,53,87,14,-29,-63,-82
-78,-53,24,65,-51,-14,48,92,29,-29,-63,-82
-78,-53,24,65,-51,-14,48,107,34,-24,-58,-82
-73,-58,14,65,-43,-21,58,102,39,-19,-58,-78
-82,-58,24,70,-53,-17,73,102,43,-14,-58,-73
-82,-53,29,68,-56,-12,73,102,43,-9,-63,-82
-78,-48,29,63,-53,-9,78,112,43,-9,-63,-82
-73,-48,24,61,-48,-12,78,122,53,-9,-58,-87
-73,-48,24,61,-48,-12,82,131,63,-4,-58,-87
-73,-48,24,61,-48,-12,97,146,73,4,-53,-87
-73,-43,29,58,-51,-7,112,161,82,14,-48,-87
-73,-43,29,58,-51,-7,112,170,87,9,-48,-87
-78,-43,34,61,-56,-4,112,175,97,19,-48,-87
-78,-43,34,61,-56,-4,112,190,107,19,-43,-87
-73,-39,34,56,-53,-2,117,209,122,29,-39,-87
-73,-34,39,53,-56,2,126,248,151,43,-34,-87
-73,-34,39,53,-56,2,136,283,175,58,-29,-82
-68,-29,39,48,-53,4,141,297,185,63,-24,-82
-68,-24,43,46,-56,9,136,322,204,73,-14,-78
-63,-19,43,41,-53,12,151,341,229,87,-9,-78
-63,-19,43,41,-53,12,165,361,239,102,-4,-78
-63,-14,48,39,-56,17,175,385,258,117,4,-73
-58,-14,43,36,-51,14,175,405,273,122,4,-68
-58,-14,43,36,-51,14,190,424,283,131,19,-68
-58,-9,48,34,-53,19,195,434,297,141,29,-63
-48,0,48,24,-48,24,200,478,331,161,39,-53
-48,0,48,24,-48,24,214,512,366,180,48,-48
-43,9,53,17,-48,31,219,536,385,190,58,-48
-39,14,53,12,-46,34,224,561,405,204,68,-39
-34,29,63,2,-48,46,224,575,424,219,68,-39
-29,34,63,-2,-46,48,234,595,429,244,78,-34
-29,43,73,-7,-51,58,234,614,458,258,87,-24
-29,53,82,-12,-56,68,244,619,473,273,102,-19
-29,58,87,-14,-58,73,234,624,488,283,112,-9
-19,63,82,-21,-51,73,224,624,512,297,126,0
-14,68,82,-26,-48,75,229,624,527,326,141,9
-4,78,82,-36,-43,80,229,614,531,336,161,24
-9,78,87,-34,-48,82,224,605,541,356,170,39
-4,73,78,-34,-41,75,219,600,551,370,185,58
9,78,68,-43,-29,73,200,585,556,380,200,68
19,82,63,-51,-21,73,170,566,556,390,214,87
43,107,63,-75,-9,85,156,546,561,400,224,97
68,122,53,-95,7,87,136,522,561,409,239,107
78,122,43,-100,17,82,112,492,546,409,248,117
78,122,43,-100,17,82,92,463,531,409,253,122
82,112,29,-97,26,70,82,429,517,405,258,126
82,102,19,-92,31,61,73,395,497,390,258,131
87,97,9,-92,39,53,68,361,463,380,253,136
92,97,4,-95,43,51,48,326,429,356,244,136
92,97,4,-95,43,51,24,292,390,341,234,141
97,97,0,-97,48,48,9,263,356,317,224,141
97,92,-4,-95,51,43,0,229,322,292,209,141
97,82,-14,-90,56,34,-14,209,278,263,195,131
102,82,-19,-92,61,31,-14,156,239,229,175,122
102,82,-19,-92,61,31,-19,117,204,204,156,117
92,82,-9,-87,51,36,-19,82,165,170,136,107
87,68,-19,-78,53,24,-19,63,141,141,122,97
87,68,-19,-78,53,24,-24,43,117,126,112,87
92,68,-24,-80,58,21,-24,29,92,112,102,87
92,68,-24,-80,58,21,-24,9,68,92,92,78
87,63,-24,-75,56,19,-19,4,53,82,82,78
68,53,-14,-61,41,19,-29,0,48,68,73,68
58,39,-19,-48,39,9,-39,-14,34,48,58,58
53,39,-14,-46,34,12,-39,-19,24,39,53,53
48,39,-9,-43,29,14,-34,-34,9,19,43,53
48,39,-9,-43,29,14,-39,-34,0,14,39,48
53,34,-19,-43,36,7,-43,-34,-4,9,39,48
53,34,-19,-43,36,7,-43,-39,-9,9,39,39
53,34,-19,-43,36,7,-48,-48,-14,4,34,39
53,34,-19,-43,36,7,-43,-48,-19,4,39,39
43,29,-14,-36,29,7,-34,-43,-24,0,34,34
39,29,-9,-34,24,9,-29,-48,-29,-4,19,29
34,29,-4,-31,19,12,-24,-53,-29,-4,14,24
34,19,-14,-26,24,2,-29,-48,-34,-9,14,19
34,14,-19,-24,26,-2,-39,-48,-34,-9,14,19
34,14,-19,-24,26,-2,-43,-53,-29,-9,9,19
34,14,-19,-24,26,-2,-43,-53,-24,-4,9,19
29,19,-9,-24,19,4,-39,-53,-24,-4,14,19
24,19,-4,-21,14,7,-43,-53,-24,-4,14,19
24,9,-14,-17,19,-2,-43,-53,-29,-9,9,19
19,4,-14,-12,17,-4,-43,-53,-34,-9,9,14
24,4,-19,-14,21,-7,-43,-43,-34,-4,9,14
29,9,-19,-19,24,-4,-43,-34,-29,-4,9,14
29,9,-19,-19,24,-4,-24,-34,-29,-9,9,19
29,9,-19,-19,24,-4,0,-29,-29,-9,14,19
24,14,-9,-19,17,2,-4,-39,-24,-4,14,14
24,19,-4,-21,14,7,-9,-43,-24,-4,14,14
24,14,-9,-19,17,2,-9,-43,-24,0,14,14
24,14,-9,-19,17,2,-9,-43,-24,0,14,14
29,9,-19,-19,24,-4,-14,-43,-24,0,14,14
34,9,-24,-21,29,-7,-19,-43,-19,4,14,9
24,9,-14,-17,19,-2,-39,-34,-19,4,14,9
19,4,-14,-12,17,-4,-48,-29,-19,4,14,9
4,-9,-14,2,9,-12,-24,-29,-19,4,14,9
-14,-24,-9,19,-2,-17,-24,-39,-24,4,9,9
-4,-9,-4,7,0,-7,-14,-34,-19,4,14,4
4,0,-4,-2,4,-2,-14,-24,-14,4,19,4
9,4,-4,-7,7,0,-24,-24,-14,0,14,0
14,9,-4,-12,9,2,-29,-24,-14,-4,14,-4
4,9,4,-7,0,7,-29,-29,-29,-4,4,-9
4,9,4,-7,0,7,-34,-39,-34,-14,-4,-9
0,9,9,-4,-4,9,-24,-43,-34,-14,-4,-9
0,4,4,-2,-2,4,-9,-53,-34,-14,-4,-9
4,4,0,-4,2,2,0,-53,-34,-14,-4,-9
14,4,-9,-9,12,-2,4,-53,-34,-14,-4,-9
9,-4,-14,-2,12,-9,9,-53,-29,-14,-4,-9
0,-19,-19,9,9,-19,19,-53,-29,-14,-9,-9
-9,-4,4,7,-7,0,24,-53,-29,-19,-9,-9
-9,4,14,2,-12,9,0,-53,-43,-24,-9,-9
-4,-4,0,4,-2,-2,-19,-53,-43,-24,-4,-9
-4,-9,-4,7,0,-7,-24,-48,-43,-24,0,-9
-4,-9,-4,7,0,-7,-19,-48,-43,-24,0,-4
-4,-9,-4,7,0,-7,-19,-48,-43,-24,-4,-4
-4,-9,-4,7,0,-7,-14,-48,-48,-24,-9,-4
-4,-9,-4,7,0,-7,-9,-48,-53,-24,-14,-4
-4,-9,-4,7,0,-7,-9,-68,-53,-29,-14,-9
-4,-14,-9,9,2,-12,-19,-92,-53,-34,-19,-19
-9,-29,-19,19,4,-24,-34,-73,-53,-34,-19,-19
-19,-29,-9,24,-4,-19,-43,-48,-48,-34,-19,-14
-9,-19,-9,14,0,-14,-53,-48,-48,-34,-19,-14
-4,-19,-14,12,4,-17,-43,-48,-53,-34,-19,-14
0,-9,-9,4,4,-9,-34,-53,-58,-34,-19,-14
0,-9,-9,4,4,-9,-24,-68,-63,-34,-19,-14
0,-14,-14,7,7,-14,-24,-68,-63,-39,-19,-14
4,-14,-19,4,12,-17,-24,-68,-68,-39,-24,-14
4,-9,-14,2,9,-12,-4,-68,-68,-39,-24,-14
4,-9,-14,2,9,-12,9,-68,-68,-43,-24,-14
0,-9,-9,4,4,-9,-4,-73,-68,-43,-24,-14
0,-14,-14,7,7,-14,-19,-78,-68,-43,-24,-19
0,-9,-9,4,4,-9,-14,-78,-68,-43,-24,-19
-4,-9,-4,7,0,-7,-19,-78,-68,-43,-24,-14
-19,-9,9,14,-14,0,-24,-78,-68,-43,-24,-14
-14,-4,9,9,-12,2,-24,-78,-68,-43,-24,-14
-14,-9,4,12,-9,-2,-24,-73,-68,-43,-19,-14
-14,-14,0,14,-7,-7,-19,-73,-68,-39,-14,-14
-4,-4,0,4,-2,-2,-14,-78,-68,-39,-14,-14
-4,-14,-9,9,2,-12,-14,-73,-73,-39,-14,-14
-9,-29,-19,19,4,-24,-19,-73,-73,-48,-24,-14
-14,-34,-19,24,2,-26,-29,-73,-68,-53,-34,-19
-4,-14,-9,9,2,-12,-34,-73,-68,-43,-24,-14
0,0,0,0,0,0,-39,-78,-68,-39,-19,-9
0,0,0,0,0,0,-24,-68,-68,-39,-19,-9
0,0,0,0,0,0,-9,-58,-68,-39,-19,-9
0,0,0,0,0,0,-9,-68,-68,-43,-19,-9
0,0,0,0,0,0,-9,-78,-68,-48,-19,-9
0,-4,-4,2,2,-4,-9,-78,-68,-48,-19,-9
0,-9,-9,4,4,-9,-9,-78,-68,-48,-19,-9
0,-9,-9,4,4,-9,-9,-78,-73,-48,-24,-9
0,-9,-9,4,4,-9,-9,-78,-78,-48,-29,-9
0,-9,-9,4,4,-9,-39,-78,-78,-48,-29,-14
0,-9,-9,4,4,-9,-68,-78,-78,-48,-29,-19
0,-9,-9,4,4,-9,-68,-82,-78,-48,-29,-19
0,-9,-9,4,4,-9,-68,-87,-78,-48,-29,-19
0,-9,-9,4,4,-9,-48,-87,-78,-48,-29,-19
0,-9,-9,4,4,-9,-29,-87,-78,-48,-29,-19
0,-9,-9,4,4,-9,-24,-78,-78,-48,-29,-19
0,-9,-9,4,4,-9,-19,-68,-78,-48,-29,-19
0,-9,-9,4,4,-9,-19,-78,-82,-53,-34,-19
0,-9,-9,4,4,-9,-19,-87,-87,-58,-39,-19
-4,-9,-4,7,0,-7,-19,-87,-87,-58,-39,-19
-9,-9,0,9,-4,-4,-19,-87,-87,-58,-39,-19
-9,-9,0,9,-4,-4,-34,-87,-82,-53,-34,-19
-9,-9,0,9,-4,-4,-48,-87,-78,-48,-29,-19
-9,-9,0,9,-4,-4,-29,-82,-78,-48,-29,-14
-9,-9,0,9,-4,-4,-9,-78,-78,-48,-29,-9
-4,-9,-4,7,0,-7,-9,-73,-73,-48,-24,-9
0,-9,-9,4,4,-9,-9,-68,-68,-48,-19,-9
0,-9,-9,4,4,-9,-29,-68,-68,-48,-19,-9
0,-9,-9,4,4,-9,-48,-68,-68,-48,-19,-9
-9,-9,0,9,-4,-4,-48,-78,-73,-53,-29,-14
-19,-9,9,14,-14,0,-48,-87,-78,-58,-39,-19
-4,-4,0,4,-2,-2,-34,-87,-78,-58,-29,-19
9,0,-9,-4,9,-4,-19,-87,-78,-58,-19,-19
19,19,0,-19,9,9,-14,-68,-63,-39,-9,-9
29,39,9,-34,9,24,-9,-48,-48,-19,0,0
29,39,9,-34,9,24,-9,-34,-43,-14,4,4
29,39,9,-34,9,24,-9,-19,-39,-9,9,9
29,39,9,-34,9,24,4,-19,-29,-4,9,14
29,39,9,-34,9,24,19,-19,-19,0,9,19
39,43,4,-41,17,24,29,-14,-14,0,14,19
48,48,0,-48,24,24,39,-9,-9,0,19,19
53,53,0,-53,26,26,29,0,0,4,24,29
58,58,0,-58,29,29,19,9,9,9,29,39
73,58,-14,-65,43,21,-9,-4,0,9,29,43
87,58,-29,-73,58,14,-39,-19,-9,9,29,48
87,58,-29,-73,58,14,-63,-43,-24,4,29,48
87,58,-29,-73,58,14,-87,-68,-39,0,29,48
82,58,-24,-70,53,17,-97,-78,-48,-9,19,43
78,58,-19,-68,48,19,-107,-87,-58,-19,9,39
73,53,-19,-63,46,17,-107,-102,-78,-29,4,24
68,48,-19,-58,43,14,-107,-117,-97,-39,0,9
68,48,-19,-58,43,14,-82,-102,-78,-29,0,19
68,48,-19,-58,43,14,-58,-87,-58,-19,0,29
68,48,-19,-58,43,14,-43,-73,-53,-19,4,34
68,48,-19,-58,43,14,-29,-58,-48,-19,9,39
68,34,-34,-51,51,0,-39,-68,-48,-19,9,39
68,19,-48,-43,58,-14,-48,-78,-48,-19,9,39
73,19,-53,-46,63,-17,-48,-82,-58,-19,9,39
78,19,-58,-48,68,-19,-48,-87,-68,-19,9,39
73,14,-58,-43,65,-21,-39,-97,-78,-29,4,34
48,9,-39,-29,43,-14,-39,-102,-87,-39,-4,19
24,4,-19,-14,21,-7,-39,-107,-97,-48,-19,9
-24,-9,14,17,-19,2,-39,-102,-107,-58,-34,-9
-29,-24,4,26,-17,-9,-29,-92,-97,-58,-39,-19
-34,-34,0,34,-17,-17,-29,-87,-87,-58,-39,-19
-34,-34,0,34,-17,-17,-39,-78,-87,-58,-39,-24
-29,-34,-4,31,-12,-19,-53,-78,-87,-63,-43,-29
-19,-39,-19,29,0,-29,-43,-82,-92,-73,-48,-34
-19,-34,-14,26,-2,-24,-43,-102,-102,-82,-53,-39
-24,-34,-9,29,-7,-21,-39,-102,-102,-82,-53,-39
-24,-34,-9,29,-7,-21,-43,-102,-102,-82,-53,-34
-24,-34,-9,29,-7,-21,-43,-97,-102,-68,-43,-29
-29,-29,0,29,-14,-14,-48,-92,-97,-58,-34,-29
-34,-34,0,34,-17,-17,-43,-92,-97,-68,-39,-29
-34,-34,0,34,-17,-17,-43,-92,-97,-78,-39,-29
-29,-29,0,29,-14,-14,-43,-102,-97,-78,-39,-29
-29,-29,0,29,-14,-14,-39,-107,-102,-78,-39,-29
-34,-34,0,34,-17,-17,-19,-107,-102,-73,-39,-34
-34,-34,0,34,-17,-17,4,-107,-102,-68,-39,-34
-34,-34,0,34,-17,-17,14,-107,-102,-68,-39,-34
-39,-34,4,36,-21,-14,14,-102,-102,-73,-39,-34
-39,-34,4,36,-21,-14,-9,-102,-102,-73,-39,-29
-39,-29,9,34,-24,-9,-34,-107,-102,-73,-43,-29
-48,-34,14,41,-31,-9,-48,-107,-102,-78,-48,-29
-58,-39,19,48,-39,-9,-63,-102,-97,-78,-53,-24
-48,-39,9,43,-29,-14,-53,-102,-97,-78,-48,-24
-48,-48,0,48,-24,-24,-48,-102,-97,-78,-48,-24
-43,-48,-4,46,-19,-26,-48,-102,-97,-73,-43,-24
-39,-39,0,39,-19,-19,-43,-107,-102,-68,-39,-24
-34,-29,4,31,-19,-12,-29,-107,-102,-68,-39,-24
-29,-19,9,24,-19,-4,-19,-102,-97,-68,-39,-24
-29,-19,9,24,-19,-4,-29,-102,-97,-73,-43,-29
-34,-24,9,29,-21,-7,-29,-97,-97,-73,-48,-34
-34,-14,19,24,-26,2,-14,-97,-97,-73,-48,-34
-34,-9,24,21,-29,7,0,-97,-97,-73,-48,-34
-34,-19,14,26,-24,-2,9,-97,-97,-73,-48,-34
-43,-24,19,34,-31,-2,29,-97,-97,-78,-53,-43
-92,-19,73,56,-82,26,34,-112,-141,-117,-97,-78
-146,-9,136,78,-141,63,48,-146,-190,-156,-131,-97
-190,24,214,82,-202,119,78,-126,-165,-141,-117,-97
-190,92,283,48,-236,187,126,4,-34,-34,-48,-58
-151,92,244,29,-197,168,146,161,131,131,73,0
9,112,102,-61,-46,107,126,341,380,429,341,175
239,209,-29,-224,134,90,0,346,605,814,736,468
385,322,-63,-353,224,129,-190,126,585,976,932,663
458,458,0,-458,229,229,-375,-190,361,863,907,741
478,366,-112,-422,295,126,-517,-566,-136,273,444,512
385,-156,-541,-114,463,-348,-492,-902,-868,-795,-551,-165
170,-502,-673,165,422,-588,-473,-1312,-1507,-1498,-1151,-580
-53,-561,-507,307,226,-534,-575,-1654,-1810,-1673,-1229,-624
-224,-483,-258,353,17,-370,-473,-1503,-1625,-1454,-1058,-536
-239,-395,-156,317,-41,-275,-370,-1190,-1317,-1171,-858,-448
-214,-326,-112,270,-51,-219,-283,-883,-995,-888,-653,-351
-190,-234,-43,212,-73,-139,-170,-614,-707,-644,-492,-278
-170,-151,19,161,-95,-65,-102,-400,-453,-414,-331,-209
-151,-73,78,112,-114,2,-78,-258,-287,-268,-204,-136
-136,-39,97,87,-117,29,-24,-170,-200,-190,-141,-107
-107,-39,68,73,-87,14,9,-102,-136,-131,-112,-87
-92,-48,43,70,-68,-2,14,-58,-87,-82,-78,-73
-73,-48,24,61,-48,-12,34,-39,-63,-63,-53,-53
-68,-48,19,58,-43,-14,53,-29,-58,-63,-58,-53
-68,-53,14,61,-41,-19,43,-19,-53,-63,-58,-53
-63,-53,9,58,-36,-21,24,-19,-43,-48,-58,-48
-82,-63,19,73,-51,-21,0,-19,-39,-48,-53,-48
-97,-73,24,85,-61,-24,-24,-19,-39,-48,-48,-43
-87,-73,14,80,-51,-29,-39,-14,-39,-48,-48,-48
-78,-68,9,73,-43,-29,-53,-9,-39,-43,-48,-53
-68,-58,9,63,-39,-24,-4,-9,-29,-39,-48,-53
-63,-48,14,56,-39,-17,48,-9,-29,-34,-43,-53
-58,-48,9,53,-34,-19,58,0,-19,-34,-43,-48
-58,-48,9,53,-34,-19,68,9,-9,-34,-43,-43
-53,-53,0,53,-26,-26,48,9,-9,-29,-43,-43
-43,-53,-9,48,-17,-31,34,9,-9,-24,-43,-43
-48,-48,0,48,-24,-24,34,9,-9,-24,-43,-48
-58,-48,9,53,-34,-19,39,9,-9,-24,-43,-48
-58,-53,4,56,-31,-24,34,4,-14,-24,-39,-43
-63,-53,9,58,-36,-21,24,4,-14,-24,-39,-43
-63,-53,9,58,-36,-21,24,4,-9,-24,-39,-43
-63,-53,9,58,-36,-21,24,9,-9,-29,-39,-43
-68,-58,9,63,-39,-24,24,14,-9,-29,-48,-48
-73,-58,14,65,-43,-21,24,14,-9,-29,-53,-58
-73,-58,14,65,-43,-21,29,14,-4,-29,-53,-58
-73,-63,9,68,-41,-26,34,19,-4,-24,-53,-58
-73,-58,14,65,-43,-21,39,24,-4,-29,-53,-58
-68,-53,14,61,-41,-19,43,24,-4,-34,-58,-63
-73,-53,19,63,-46,-17,43,24,-4,-34,-58,-63
-73,-53,19,63,-46,-17,48,34,-4,-34,-58,-68
-63,-53,9,58,-36,-21,48,39,0,-34,-58,-68
-78,-53,24,65,-51,-14,48,43,4,-34,-63,-68
-82,-58,24,70,-53,-17,53,43,9,-29,-63,-73
-87,-58,29,73,-58,-14,53,58,14,-19,-63,-73
-87,-53,34,70,-61,-9,48,63,29,-19,-63,-73
-87,-53,34,70,-61,-9,48,78,34,-14,-58,-73
-82,-58,24,70,-53,-17,53,82,39,-9,-53,-73
-92,-58,34,75,-63,-12,63,92,43,-4,-48,-73
-87,-58,29,73,-58,-14,58,92,48,0,-53,-78
-78,-58,19,68,-48,-19,58,102,53,0,-53,-73
-73,-58,14,65,-43,-21,58,112,63,0,-48,-73
-73,-58,14,65,-43,-21,63,122,73,4,-48,-68
-78,-58,19,68,-48,-19,73,136,82,14,-43,-68
-82,-53,29,68,-56,-12,82,151,92,24,-39,-68
-92,-58,34,75,-63,-12,73,175,102,24,-39,-68
-107,-63,43,85,-75,-9,63,195,117,39,-39,-68
-107,-63,43,85,-75,-9,39,209,126,39,-39,-73
-102,-58,43,80,-73,-7,19,229,141,48,-39,-78
-87,-43,43,65,-65,0,68,248,156,53,-34,-78
-73,-34,39,53,-56,2,117,263,165,58,-29,-73
-68,-19,48,43,-58,14,146,273,175,63,-24,-73
-68,-4,63,36,-65,29,165,292,195,73,-14,-68
-68,0,68,34,-68,34,161,317,219,92,-9,-63
-73,0,73,36,-73,36,156,341,229,112,-4,-58
-73,0,73,36,-73,36,165,370,258,126,4,-53
-68,-4,63,36,-65,29,165,395,283,131,4,-48
-68,-4,63,36,-65,29,175,424,302,146,19,-53
-68,0,68,34,-68,34,175,444,326,161,29,-53
-58,9,68,24,-63,39,175,478,351,180,39,-43
-58,9,68,24,-63,39,185,502,375,200,48,-39
-58,19,78,19,-68,48,185,522,395,209,58,-39
-58,24,82,17,-70,53,185,541,414,224,68,-29
-63,34,97,14,-80,65,185,556,439,239,78,-24
-68,34,102,17,-85,68,195,575,448,263,97,-14
-53,43,97,4,-75,70,195,595,488,278,107,-4
-39,53,92,-7,-65,73,204,600,512,292,122,0
-39,58,97,-9,-68,78,200,600,512,302,131,9
-29,63,92,-17,-61,78,195,595,522,317,146,19
-19,68,87,-24,-53,78,195,590,536,346,156,34
-4,78,82,-36,-43,80,190,575,541,356,170,53
-4,82,87,-39,-46,85,185,556,541,370,180,63
4,82,78,-43,-36,80,180,541,541,380,195,78
14,78,63,-46,-24,70,165,522,546,395,209,82
19,73,53,-46,-17,63,141,497,546,409,224,97
24,82,58,-53,-17,70,117,478,551,419,234,107
29,82,53,-56,-12,68,87,453,551,429,248,117
39,87,48,-63,-4,68,48,424,536,424,253,126
39,92,53,-65,-7,73,14,395,522,419,253,131
53,92,39,-73,7,65,29,366,502,414,258,136
63,92,29,-78,17,61,43,336,478,400,258,141
68,87,19,-78,24,53,43,302,444,385,253,146
73,87,14,-80,29,51,29,268,409,356,244,146
73,87,14,-80,29,51,14,244,375,341,239,146
78,87,9,-82,34,48,9,224,346,317,234,141
78,82,4,-80,36,43,0,190,312,292,219,146
78,73,-4,-75,41,34,-14,170,268,263,204,141
78,73,-4,-75,41,34,-14,131,234,229,185,136
73,73,0,-73,36,36,-19,107,204,204,165,136
58,73,14,-65,21,43,-34,73,165,170,146,126
48,58,9,-53,19,34,-48,53,141,141,131,117
43,53,9,-48,17,31,-58,29,112,117,117,97
43,48,4,-46,19,26,-63,9,82,92,102,87
43,48,4,-46,19,26,-53,-9,53,73,92,78
39,43,4,-41,17,24,-39,-14,34,63,82,78
29,39,9,-34,9,24,-39,-14,29,53,73,68
29,29,0,-29,14,14,-39,-24,14,39,58,58
24,34,9,-29,7,21,-43,-24,4,34,48,53
19,39,19,-29,0,29,-43,-34,-9,19,34,53
19,39,19,-29,0,29,-43,-39,-19,14,24,43
24,34,9,-29,7,21,-43,-43,-24,9,19,39
24,34,9,-29,7,21,-43,-53,-29,9,19,29
24,34,9,-29,7,21,-48,-68,-34,4,14,29
24,34,9,-29,7,21,-48,-68,-29,4,24,29
14,29,14,-21,0,21,-43,-63,-24,0,24,24
4,24,19,-14,-7,21,-48,-58,-29,-4,9,24
-4,19,24,-7,-14,21,-53,-53,-29,-4,4,24
-4,14,19,-4,-12,17,-53,-48,-34,-9,9,24
-4,14,19,-4,-12,17,-58,-48,-34,-9,14,29
-4,14,19,-4,-12,17,-53,-53,-34,-9,9,29
-4,14,19,-4,-12,17,-43,-53,-34,-4,9,29
-4,19,24,-7,-14,21,-34,-53,-34,-4,14,29
-4,19,24,-7,-14,21,-34,-53,-34,-4,14,29
-4,9,14,-2,-9,12,-34,-48,-34,-9,9,29
-9,4,14,2,-12,9,-34,-43,-34,-9,9,24
-9,4,14,2,-12,9,-39,-43,-34,-4,9,24
-9,9,19,0,-14,14,-43,-43,-29,-4,9,24
0,9,9,-4,-4,9,-39,-48,-29,-4,9,29
9,9,0,-9,4,4,-29,-48,-29,0,14,29
-4,4,9,0,-7,7,-39,-48,-24,4,14,24
-14,0,14,7,-14,7,-48,-43,-24,4,14,24
-14,-4,9,9,-12,2,-43,-48,-24,4,14,24
-14,-4,9,9,-12,2,-39,-53,-24,0,14,24
-14,-4,9,9,-12,2,-39,-53,-24,0,14,24
-14,0,14,7,-14,7,-39,-53,-19,4,14,19
-14,4,19,4,-17,12,-39,-39,-14,4,19,19
-9,4,14,2,-12,9,-29,-29,-9,4,24,19
-4,4,9,0,-7,7,0,-29,-9,4,24,19
-4,4,9,0,-7,7,4,-39,-14,4,19,19
-4,9,14,-2,-9,12,0,-39,-14,4,19,14
-4,9,14,-2,-9,12,-14,-34,-14,4,19,14
-9,4,14,2,-12,9,-19,-34,-14,4,14,14
-14,0,14,7,-14,7,-19,-34,-14,4,14,14
-24,-9,14,17,-19,2,-24,-34,-24,4,9,9
-24,-19,4,21,-14,-7,-34,-39,-24,-4,4,9
-29,-9,19,19,-24,4,-39,-39,-24,-4,4,9
-29,-4,24,17,-26,9,-39,-43,-24,-4,4,9
-19,0,19,9,-19,9,-34,-43,-24,-4,4,9
-4,4,9,0,-7,7,-34,-43,-24,-4,4,9
-4,4,9,0,-7,7,-29,-63,-34,-4,0,4
-9,0,9,4,-9,4,-19,-82,-48,-4,-9,0
-19,-4,14,12,-17,4,14,-73,-39,-9,-9,0
-19,-14,4,17,-12,-4,19,-63,-43,-14,-9,0
-14,-14,0,14,-7,-7,4,-68,-43,-14,-9,4
-14,-9,4,12,-9,-2,4,-68,-43,-14,-9,9
-19,-14,4,17,-12,-4,-4,-53,-39,-14,-9,9
-24,-19,4,21,-14,-7,-19,-39,-34,-14,-14,4
-24,-19,4,21,-14,-7,-34,-39,-39,-19,-14,0
-24,-19,4,21,-14,-7,-48,-39,-43,-24,-14,-4
-24,-14,9,19,-17,-2,-29,-48,-48,-29,-14,-4
-24,-14,9,19,-17,-2,-19,-63,-53,-34,-19,-9
-29,-29,0,29,-14,-14,-24,-68,-58,-34,-19,-9
-39,-29,9,34,-24,-9,-24,-68,-58,-34,-19,-4
-29,-19,9,24,-19,-4,-34,-68,-53,-34,-19,-4
-24,-19,4,21,-14,-7,-24,-68,-53,-34,-19,-4
-14,0,14,7,-14,7,-24,-43,-53,-24,-14,0
-9,9,19,0,-14,14,-24,-29,-53,-14,-9,4
-9,4,14,2,-12,9,-24,-48,-53,-29,-9,4
-4,4,9,0,-7,7,-24,-68,-58,-39,-14,4
-14,4,19,4,-17,12,-19,-73,-58,-39,-19,0
-24,0,24,12,-24,12,-19,-78,-58,-43,-24,-4
-19,0,19,9,-19,9,-19,-78,-58,-43,-24,-4
-9,-4,4,7,-7,0,-19,-78,-58,-43,-24,-9
-9,-4,4,7,-7,0,-14,-78,-58,-43,-19,-9
-14,-9,4,12,-9,-2,-19,-78,-58,-43,-14,-4
-29,-14,14,21,-21,0,-34,-73,-58,-43,-14,0
-24,-14,9,19,-17,-2,-43,-68,-58,-43,-14,4
-24,-14,9,19,-17,-2,-43,-63,-58,-43,-19,4
-24,-14,9,19,-17,-2,-39,-63,-58,-39,-24,4
-14,-14,0,14,-7,-7,-19,-73,-58,-39,-24,4
-14,-34,-19,24,2,-26,-4,-73,-63,-39,-24,4
-19,-24,-4,21,-7,-14,-9,-68,-63,-43,-24,4
-24,-4,19,14,-21,7,-19,-63,-58,-43,-24,0
-19,-9,9,14,-14,0,-19,-68,-58,-34,-14,0
-19,-19,0,19,-9,-9,-19,-78,-58,-29,-9,0
-9,-9,0,9,-4,-4,-19,-78,-58,-34,-9,0
0,0,0,0,0,0,-19,-78,-58,-39,-9,0
0,0,0,0,0,0,-19,-78,-63,-39,-9,0
0,0,0,0,0,0,-19,-78,-68,-39,-9,0
-14,-9,4,12,-9,-2,-19,-78,-68,-39,-14,0
-29,-19,9,24,-19,-4,-19,-78,-68,-39,-19,0
-19,-19,0,19,-9,-9,-34,-78,-68,-39,-19,0
-9,-19,-9,14,0,-14,-48,-78,-68,-39,-19,0
-9,-19,-9,14,0,-14,-48,-78,-68,-39,-19,0
-9,-19,-9,14,0,-14,-48,-78,-68,-39,-19,0
-14,-19,-4,17,-4,-12,-48,-78,-68,-39,-19,0
-19,-19,0,19,-9,-9,-48,-78,-68,-39,-19,0
-19,-19,0,19,-9,-9,-34,-73,-68,-39,-14,0
-19,-19,0,19,-9,-9,-19,-68,-68,-39,-9,0
-4,-19,-14,12,4,-17,-29,-68,-68,-39,-9,0
9,-19,-29,4,19,-24,-39,-68,-68,-39,-9,0
-4,-19,-14,12,4,-17,-53,-68,-68,-39,-14,0
-19,-19,0,19,-9,-9,-68,-68,-68,-39,-19,0
-19,-19,0,19,-9,-9,-34,-78,-68,-43,-19,0
-19,-19,0,19,-9,-9,0,-87,-68,-48,-19,0
-4,-9,-4,7,0,-7,9,-87,-68,-48,-14,4
9,0,-9,-4,9,-4,19,-87,-68,-48,-9,9
-4,0,4,2,-4,2,4,-82,-68,-43,-9,9
-19,0,19,9,-19,9,-9,-78,-68,-39,-9,9
-19,-9,9,14,-14,0,-19,-78,-68,-39,-9,9
-19,-19,0,19,-9,-9,-29,-78,-68,-39,-9,9
-14,-4,9,9,-12,2,-29,-63,-58,-34,-9,14
-9,9,19,0,-14,14,-29,-48,-48,-29,-9,19
4,19,14,-12,-4,17,-14,-43,-39,-19,4,24
19,29,9,-24,4,19,0,-39,-29,-9,19,29
24,29,4,-26,9,17,4,-29,-24,-4,24,34
29,29,0,-29,14,14,9,-19,-19,0,29,39
34,39,4,-36,14,21,14,-9,-9,4,29,39
39,48,9,-43,14,29,19,0,0,9,29,39
43,48,4,-46,19,26,19,14,4,19,39,48
48,48,0,-48,24,24,19,29,9,29,48,58
53,48,-4,-51,29,21,-14,19,9,29,48,58
58,48,-9,-53,34,19,-48,9,9,29,48,58
58,48,-9,-53,34,19,-78,-29,-14,9,39,53
58,48,-9,-53,34,19,-107,-68,-39,-9,29,48
63,53,-9,-58,36,21,-92,-92,-53,-14,24,48
68,58,-9,-63,39,24,-78,-117,-68,-19,19,48
68,58,-9,-63,39,24,-78,-117,-68,-19,14,48
68,58,-9,-63,39,24,-78,-117,-68,-19,9,48
68,58,-9,-63,39,24,-63,-102,-68,-19,9,43
68,58,-9,-63,39,24,-48,-87,-68,-19,9,39
68,43,-24,-56,46,9,-48,-78,-63,-19,14,39
68,29,-39,-48,53,-4,-48,-68,-58,-19,19,39
58,24,-34,-41,46,-4,-53,-78,-58,-19,19,39
48,19,-29,-34,39,-4,-58,-87,-58,-19,19,39
48,9,-39,-29,43,-14,-58,-87,-58,-19,24,39
48,0,-48,-24,48,-24,-58,-87,-58,-19,29,39
58,0,-58,-29,58,-29,-58,-78,-58,-19,29,39
43,-4,-48,-19,46,-26,-58,-82,-68,-24,19,34
34,-9,-43,-12,39,-26,-58,-87,-78,-34,9,29
14,-14,-29,0,21,-21,-58,-87,-78,-39,-4,14
-14,-29,-14,21,0,-21,-48,-82,-82,-48,-14,0
-19,-39,-19,29,0,-29,-39,-78,-87,-48,-19,-9
-24,-43,-19,34,-2,-31,-19,-87,-87,-53,-19,-9
-24,-43,-19,34,-2,-31,-4,-87,-87,-58,-19,-9
-19,-48,-29,34,4,-39,-24,-87,-87,-63,-24,-9
-9,-53,-43,31,17,-48,-24,-87,-87,-63,-24,-9
-9,-43,-34,26,12,-39,-29,-102,-92,-63,-24,-9
-14,-43,-29,29,7,-36,-19,-102,-92,-63,-24,-9
-4,-39,-34,21,14,-36,-14,-102,-92,-63,-29,-4
4,-39,-43,17,24,-41,-14,-102,-97,-63,-34,-4
0,-39,-39,19,19,-39,-19,-97,-97,-68,-34,-9
-4,-43,-39,24,17,-41,-19,-92,-97,-68,-39,-9
-24,-48,-24,36,0,-36,-14,-92,-92,-68,-39,-9
-39,-48,-9,43,-14,-29,-9,-97,-87,-68,-39,-9
-29,-48,-19,39,-4,-34,-19,-97,-92,-68,-39,-9
-24,-53,-29,39,2,-41,-29,-97,-92,-68,-39,-14
-24,-53,-29,39,2,-41,-39,-107,-92,-68,-39,-14
-24,-53,-29,39,2,-41,-53,-117,-92,-68,-39,-14
-29,-53,-24,41,-2,-39,-53,-102,-92,-73,-39,-14
-29,-53,-24,41,-2,-39,-43,-92,-92,-73,-39,-14
-29,-39,-9,34,-9,-24,-39,-97,-92,-68,-39,-19
-29,-29,0,29,-14,-14,-24,-97,-92,-63,-34,-19
-29,-39,-9,34,-9,-24,-4,-92,-87,-58,-34,-14
-19,-39,-19,29,0,-29,4,-92,-87,-58,-29,-14
-19,-39,-19,29,0,-29,-19,-92,-87,-63,-34,-14
-19,-48,-29,34,4,-39,-43,-92,-87,-68,-39,-14
-19,-48,-29,34,4,-39,-34,-102,-97,-68,-39,-14
-19,-43,-24,31,2,-34,-19,-107,-102,-68,-39,-14
-19,-39,-19,29,0,-29,-14,-102,-97,-68,-39,-14
-19,-39,-19,29,0,-29,-19,-102,-97,-68,-39,-14
-19,-43,-24,31,2,-34,-19,-92,-92,-63,-39,-14
-14,-43,-29,29,7,-36,-14,-87,-87,-63,-39,-14
-14,-43,-29,29,7,-36,-19,-87,-87,-63,-34,-9
-14,-39,-24,26,4,-31,-19,-87,-87,-63,-29,-4
-14,-34,-19,24,2,-26,-4,-87,-87,-58,-34,-14
-53,-29,24,41,-39,-2,0,-102,-122,-87,-78,-48
-117,-29,87,73,-102,29,19,-165,-185,-156,-131,-82
-170,-4,165,87,-168,80,48,-180,-195,-170,-136,-97
-204,63,268,70,-236,165,107,-53,-97,-92,-97,-82
-195,73,268,61,-231,170,136,78,29,29,-9,-48
-29,92,122,-31,-75,107,146,297,317,341,268,126
204,180,-24,-192,114,78,43,361,580,746,673,414
385,331,-53,-358,219,139,-151,170,629,1019,971,673
507,502,-4,-505,256,248,-351,-131,478,1029,1054,819
595,463,-131,-529,363,165,-536,-527,9,492,653,658
551,-4,-556,-273,553,-280,-551,-854,-668,-507,-273,48
346,-444,-790,48,568,-617,-556,-1332,-1439,-1371,-1019,-468
107,-600,-707,246,407,-653,-639,-1703,-1854,-1698,-1234,-610
-156,-556,-400,356,122,-478,-512,-1542,-1654,-1464,-1058,-522
-239,-473,-234,356,-2,-353,-419,-1268,-1361,-1190,-863,-424
-200,-361,-161,280,-19,-261,-322,-946,-1034,-907,-644,-312
-165,-244,-78,204,-43,-161,-195,-663,-746,-663,-473,-239
-151,-151,0,151,-75,-75,-102,-424,-468,-409,-307,-165
-131,-82,48,107,-90,-17,-58,-263,-287,-253,-195,-107
-117,-68,48,92,-82,-9,-4,-180,-204,-190,-146,-97
-87,-58,29,73,-58,-14,29,-112,-136,-131,-112,-78
-73,-63,9,68,-41,-26,24,-68,-78,-78,-78,-63
-53,-68,-14,61,-19,-41,14,-43,-43,-53,-48,-43
-53,-68,-14,61,-19,-41,4,-14,-39,-53,-43,-43
-58,-68,-9,63,-24,-39,4,9,-34,-53,-39,-43
-53,-63,-9,58,-21,-36,14,9,-24,-34,-39,-39
-53,-63,-9,58,-21,-36,24,9,-19,-29,-34,-39
-43,-58,-14,51,-14,-36,39,4,-19,-29,-29,-34
-39,-53,-14,46,-12,-34,53,4,-19,-29,-29,-34
-39,-48,-9,43,-14,-29,53,9,-19,-24,-29,-34
-34,-48,-14,41,-9,-31,53,9,-9,-19,-29,-34
-39,-53,-14,46,-12,-34,43,9,-9,-14,-24,-39
-43,-58,-14,51,-14,-36,29,19,-4,-14,-24,-43
-48,-58,-9,53,-19,-34,29,29,0,-14,-24,-43
-53,-63,-9,58,-21,-36,19,29,0,-14,-24,-43
-53,-63,-9,58,-21,-36,14,34,0,-14,-29,-43
-48,-58,-9,53,-19,-34,14,39,0,-14,-34,-48
-43,-53,-9,48,-17,-31,24,39,0,-19,-34,-48
-39,-53,-14,46,-12,-34,34,34,-4,-24,-34,-48
-43,-53,-9,48,-17,-31,39,24,-9,-24,-39,-53
-43,-53,-9,48,-17,-31,43,14,-9,-24,-39,-53
-43,-53,-9,48,-17,-31,43,19,-9,-29,-39,-53
-43,-53,-9,48,-17,-31,48,24,-9,-29,-43,-53
-48,-48,0,48,-24,-24,53,29,-4,-24,-43,-58
-53,-48,4,51,-29,-21,58,34,4,-19,-43,-58
-53,-53,0,53,-26,-26,58,39,4,-14,-43,-58
-58,-53,4,56,-31,-24,53,43,9,-14,-43,-58
-58,-48,9,53,-34,-19,53,39,14,-19,-48,-63
-63,-43,19,53,-41,-12,53,34,14,-24,-48,-63
-63,-43,19,53,-41,-12,58,43,9,-24,-48,-68
-53,-43,9,48,-31,-17,58,48,9,-24,-48,-68
-68,-48,19,58,-43,-14,58,53,14,-24,-53,-68
-68,-58,9,63,-39,-24,63,53,14,-24,-53,-73
-68,-58,9,63,-39,-24,63,68,14,-14,-53,-73
-68,-53,14,61,-41,-19,58,73,29,-9,-53,-73
-53,-53,0,53,-26,-26,53,97,43,-4,-48,-73
-39,-58,-19,48,-9,-39,53,112,58,0,-48,-73
-68,-63,4,65,-36,-29,48,122,63,4,-48,-63
-82,-68,14,75,-48,-26,34,122,68,9,-53,-63
-78,-68,9,73,-43,-29,58,122,63,4,-53,-73
-73,-68,4,70,-39,-31,78,122,63,0,-48,-82
-68,-63,4,65,-36,-29,82,131,73,4,-48,-78
-63,-58,4,61,-34,-26,92,146,82,14,-43,-78
-63,-48,14,56,-39,-17,117,161,97,24,-39,-78
-63,-43,19,53,-41,-12,131,180,112,24,-39,-78
-68,-43,24,56,-46,-9,131,195,126,39,-34,-73
-68,-43,24,56,-46,-9,131,209,136,39,-24,-68
-68,-39,29,53,-48,-4,126,229,146,48,-19,-68
-73,-34,39,53,-56,2,126,253,161,58,-14,-68
-73,-34,39,53,-56,2,136,273,175,68,-9,-63
-68,-29,39,48,-53,4,146,287,185,73,-4,-63
-68,-24,43,46,-56,9,146,312,204,82,4,-58
-63,-19,43,41,-53,12,161,336,229,97,9,-58
-63,-19,43,41,-53,12,175,361,239,112,14,-58
-63,-14,48,39,-56,17,185,385,263,126,24,-53
-58,-14,43,36,-51,14,180,405,283,131,19,-48
-58,-9,48,34,-53,19,185,434,302,146,29,-48
-63,-4,58,34,-61,26,185,458,326,161,39,-43
-58,0,58,29,-58,29,190,497,351,180,48,-34
-58,0,58,29,-58,29,204,522,375,195,58,-29
-58,9,68,24,-63,39,209,541,395,200,68,-29
-58,14,73,21,-65,43,214,561,414,214,78,-19
-53,24,78,14,-65,51,214,575,439,229,82,-14
-48,24,73,12,-61,48,224,595,448,253,97,-9
-43,34,78,4,-61,56,224,614,478,268,107,-4
-34,43,78,-4,-56,61,253,619,492,283,122,0
-29,48,78,-9,-53,63,263,624,502,292,131,9
-14,58,73,-21,-43,65,253,629,522,307,146,19
-4,68,73,-31,-39,70,248,634,536,331,156,29
4,78,73,-41,-34,75,229,624,541,336,165,43
4,82,78,-43,-36,80,214,605,541,351,170,53
9,82,73,-46,-31,78,209,590,541,366,185,68
19,87,68,-53,-24,78,200,570,546,380,200,78
29,92,63,-61,-17,78,180,551,551,390,214,97
39,102,63,-70,-12,82,165,536,556,400,224,107
48,102,53,-75,-2,78,151,512,551,405,239,117
58,102,43,-80,7,73,131,483,536,400,244,126
58,102,43,-80,7,73,122,448,517,400,244,131
68,102,34,-85,17,68,117,414,497,395,248,136
73,102,29,-87,21,65,82,385,478,390,253,141
78,97,19,-87,29,58,58,351,444,385,253,146
82,97,14,-90,34,56,39,326,414,356,244,146
87,97,9,-92,39,53,24,297,380,336,234,146
97,107,9,-102,43,58,14,253,346,307,224,141
97,112,14,-104,41,63,0,209,312,283,209,141
87,87,0,-87,43,43,-14,190,268,253,195,131
78,73,-4,-75,41,34,-14,151,234,224,175,122
82,73,-9,-78,46,31,-19,131,209,204,161,122
82,73,-9,-78,46,31,-24,102,175,170,146,117
97,73,-24,-85,61,24,-29,82,151,141,131,107
112,82,-29,-97,70,26,-39,63,126,126,122,97
102,68,-34,-85,68,17,-39,43,97,112,112,97
92,58,-34,-75,63,12,-34,19,68,92,102,87
87,53,-34,-70,61,9,-29,14,53,82,92,87
78,48,-29,-63,53,9,-29,9,48,68,82,78
78,39,-39,-58,58,0,-29,-9,34,48,68,68
73,39,-34,-56,53,2,-29,-14,24,43,63,63
68,39,-29,-53,48,4,-24,-24,9,29,53,63
63,39,-24,-51,43,7,-24,-24,0,24,48,58
63,34,-29,-48,46,2,-34,-24,-4,19,48,58
63,34,-29,-48,46,2,-43,-29,-9,19,48,48
63,29,-34,-46,48,-2,-48,-39,-14,14,43,48
63,24,-39,-43,51,-7,-48,-39,-14,14,43,48
53,19,-34,-36,43,-7,-39,-39,-14,9,39,39
48,19,-29,-34,39,-4,-29,-43,-19,4,29,34
39,19,-19,-29,29,0,-24,-43,-19,4,24,34
34,14,-19,-24,26,-2,-24,-39,-24,0,24,29
34,14,-19,-24,26,-2,-39,-39,-24,0,24,29
34,14,-19,-24,26,-2,-53,-43,-24,0,19,29
39,24,-14,-31,26,4,-53,-43,-24,4,19,29
43,39,-4,-41,24,17,-43,-43,-24,4,24,29
43,48,4,-46,19,26,-53,-48,-24,4,24,29
43,48,4,-46,19,26,-63,-53,-24,0,19,29
39,34,-4,-36,21,14,-39,-53,-24,0,19,24
39,24,-14,-31,26,4,-14,-53,-24,4,19,24
39,24,-14,-31,26,4,-9,-53,-19,4,19,24
39,19,-19,-29,29,0,0,-53,-19,4,19,29
39,19,-19,-29,29,0,9,-43,-19,9,24,29
34,19,-14,-26,24,2,0,-39,-14,14,24,24
34,14,-19,-24,26,-2,-24,-34,-19,9,19,19
34,4,-29,-19,31,-12,-39,-34,-24,4,14,14
19,4,-14,-12,17,-4,-58,-39,-24,0,4,14
0,0,0,0,0,0,-78,-43,-24,0,-4,14
9,9,0,-9,4,4,-63,-43,-14,4,4,14
24,24,0,-24,12,12,-48,-39,-9,4,14,19
29,24,-4,-26,17,9,-19,-39,-9,9,19,24
29,24,-4,-26,17,9,24,-39,-9,14,24,29
24,24,0,-24,12,12,24,-43,-14,14,19,29
24,29,4,-26,9,17,19,-39,-14,14,19,24
24,29,4,-26,9,17,-4,-34,-14,14,19,24
24,24,0,-24,12,12,-14,-34,-14,9,14,19
19,14,-4,-17,12,4,-14,-34,-14,4,14,14
4,9,4,-7,0,7,-19,-34,-24,4,9,9
0,0,0,0,0,0,-39,-39,-24,-4,0,4
-9,-9,0,9,-4,-4,-58,-39,-24,-4,-4,0
-19,-14,4,17,-12,-4,-58,-43,-34,-9,-4,0
-24,-14,9,19,-17,-2,-53,-43,-43,-14,-4,0
-4,-9,-4,7,0,-7,-39,-58,-43,-14,-4,0
4,-4,-9,0,7,-7,-19,-73,-39,-14,-4,0
14,4,-9,-9,12,-2,4,-58,-34,-9,-4,4
19,19,0,-19,9,9,34,-43,-29,-9,0,9
19,24,4,-21,7,14,29,-34,-39,-14,0,9
24,34,9,-29,7,21,24,-29,-34,-14,0,9
24,24,0,-24,12,12,0,-39,-34,-19,0,9
24,9,-14,-17,19,-2,-19,-48,-34,-24,0,9
19,4,-14,-12,17,-4,-19,-48,-34,-24,-4,4
14,0,-14,-7,14,-7,-19,-48,-39,-24,-4,4
9,-4,-14,-2,12,-9,-34,-48,-43,-24,-4,0
4,-9,-14,2,9,-12,-48,-48,-43,-29,-4,-4
0,-14,-14,7,7,-14,-78,-48,-48,-34,-14,-14
-9,-29,-19,19,4,-24,-102,-48,-58,-34,-19,-19
-19,-24,-4,21,-7,-14,-68,-48,-58,-34,-19,-14
-9,-9,0,9,-4,-4,-43,-48,-58,-34,-19,-14
0,-9,-9,4,4,-9,-14,-58,-63,-34,-14,-4
9,0,-9,-4,9,-4,9,-68,-63,-34,-9,4
9,0,-9,-4,9,-4,14,-78,-58,-29,-9,4
9,-4,-14,-2,12,-9,14,-78,-53,-29,-9,4
14,-4,-19,-4,17,-12,0,-63,-53,-29,-9,4
14,0,-14,-7,14,-7,-9,-48,-48,-29,-4,4
14,0,-14,-7,14,-7,-14,-48,-48,-34,-4,4
9,0,-9,-4,9,-4,-19,-48,-48,-34,-4,4
-4,-14,-9,9,2,-12,-19,-63,-58,-39,-9,-4
-19,-24,-4,21,-7,-14,-24,-78,-68,-43,-14,-9
-14,-29,-14,21,0,-21,-39,-78,-68,-43,-19,-14
-14,-29,-14,21,0,-21,-43,-78,-68,-43,-24,-24
0,-9,-9,4,4,-9,-43,-58,-63,-39,-24,-9
4,4,0,-4,2,2,-34,-34,-58,-34,-24,4
4,4,0,-4,2,2,-19,-43,-58,-29,-24,4
14,14,0,-14,7,7,-14,-63,-58,-29,-24,4
14,4,-9,-9,12,-2,-4,-73,-63,-29,-24,4
9,0,-9,-4,9,-4,-4,-82,-63,-34,-24,4
9,0,-9,-4,9,-4,-24,-78,-58,-29,-19,0
14,4,-9,-9,12,-2,-48,-73,-58,-24,-14,0
9,0,-9,-4,9,-4,-53,-63,-58,-29,-14,0
9,0,-9,-4,9,-4,-58,-58,-58,-39,-19,0
0,-4,-4,2,2,-4,-43,-68,-63,-43,-19,-4
-9,-9,0,9,-4,-4,-29,-78,-68,-48,-19,-9
-9,-9,0,9,-4,-4,-19,-78,-68,-48,-19,-9
-9,-9,0,9,-4,-4,-9,-78,-68,-48,-19,-9
-4,-9,-4,7,0,-7,-19,-78,-68,-48,-24,-9
0,-9,-9,4,4,-9,-29,-78,-68,-48,-29,-9
0,-9,-9,4,4,-9,-29,-78,-68,-48,-29,-9
0,-9,-9,4,4,-9,-29,-78,-68,-48,-29,-9
0,-4,-4,2,2,-4,-29,-78,-68,-48,-24,-9
0,0,0,0,0,0,-29,-78,-68,-48,-19,-9
0,4,4,-2,-2,4,-29,-73,-68,-48,-19,-9
0,9,9,-4,-4,9,-29,-68,-68,-48,-19,-9
0,9,9,-4,-4,9,-29,-58,-68,-48,-19,-9
0,9,9,-4,-4,9,-29,-48,-68,-48,-19,-9
0,9,9,-4,-4,9,-29,-63,-68,-48,-19,-9
0,9,9,-4,-4,9,-29,-78,-68,-48,-19,-9
0,9,9,-4,-4,9,-24,-78,-68,-48,-19,-9
0,9,9,-4,-4,9,-19,-78,-68,-48,-19,-9
0,9,9,-4,-4,9,-19,-73,-68,-48,-19,-4
0,9,9,-4,-4,9,-19,-68,-68,-48,-19,0
0,0,0,0,0,0,-19,-68,-68,-48,-19,0
0,-9,-9,4,4,-9,-19,-68,-68,-48,-19,0
-4,-9,-4,7,0,-7,-19,-78,-73,-48,-19,0
-9,-9,0,9,-4,-4,-19,-87,-78,-48,-19,0
-9,-9,0,9,-4,-4,-39,-87,-78,-48,-19,0
-9,-9,0,9,-4,-4,-58,-87,-78,-48,-19,0
-19,-29,-9,24,-4,-19,-58,-78,-73,-43,-19,0
-29,-48,-19,39,-4,-34,-58,-68,-68,-39,-19,0
-19,-29,-9,24,-4,-19,-48,-63,-68,-39,-19,0
-9,-9,0,9,-4,-4,-39,-58,-68,-39,-19,0
14,4,-9,-9,12,-2,-34,-58,-63,-39,-14,0
39,19,-19,-29,29,0,-29,-58,-58,-39,-9,0
24,19,-4,-21,14,7,-14,-63,-58,-39,-9,0
9,19,9,-14,0,14,0,-68,-58,-39,-9,0
9,9,0,-9,4,4,0,-68,-58,-39,-9,0
9,0,-9,-4,9,-4,0,-68,-58,-39,-9,0
14,9,-4,-12,9,2,0,-48,-48,-29,-4,4
19,19,0,-19,9,9,0,-29,-39,-19,0,9
29,19,-9,-24,19,4,-4,-29,-34,-14,4,14
39,19,-19,-29,29,0,-9,-29,-29,-9,9,19
43,24,-19,-34,31,2,-9,-14,-19,-4,14,24
48,29,-19,-39,34,4,-9,0,-9,0,19,29
53,43,-9,-48,31,17,0,9,4,9,29,34
58,58,0,-58,29,29,9,19,19,19,39,39
68,63,-4,-65,36,29,19,9,9,19,39,39
78,68,-9,-73,43,29,29,0,0,19,39,39
87,68,-19,-78,53,24,9,-4,0,19,39,43
97,68,-29,-82,63,19,-9,-9,0,19,39,48
97,68,-29,-82,63,19,-43,-34,-14,9,34,48
97,68,-29,-82,63,19,-78,-58,-29,0,29,48
97,68,-29,-82,63,19,-87,-78,-48,-9,19,43
97,68,-29,-82,63,19,-97,-97,-68,-19,9,39
87,68,-19,-78,53,24,-97,-97,-68,-29,9,39
78,68,-9,-73,43,29,-97,-97,-68,-39,9,39
63,58,-4,-61,34,26,-107,-87,-63,-29,9,34
48,48,0,-48,24,24,-117,-78,-58,-19,9,29
58,48,-9,-53,34,19,-102,-78,-58,-19,14,29
68,48,-19,-58,43,14,-87,-78,-58,-19,19,29
68,39,-29,-53,48,4,-53,-78,-58,-19,19,34
68,29,-39,-48,53,-4,-19,-78,-58,-19,19,39
73,24,-48,-48,61,-12,-19,-68,-53,-14,24,43
78,19,-58,-48,68,-19,-19,-58,-48,-9,29,48
78,14,-63,-46,70,-24,-29,-78,-58,-14,24,43
58,4,-53,-31,56,-24,-34,-87,-63,-24,9,29
39,0,-39,-19,39,-19,-39,-102,-73,-34,-4,14
-4,-19,-14,12,4,-17,-29,-102,-78,-48,-24,-9
-9,-29,-19,19,4,-24,-24,-97,-78,-48,-29,-19
-14,-34,-19,24,2,-26,-29,-97,-78,-48,-29,-19
-29,-39,-9,34,-9,-24,-58,-87,-82,-53,-34,-19
-39,-43,-4,41,-17,-24,-92,-87,-87,-63,-43,-19
-29,-43,-14,36,-7,-29,-73,-87,-87,-63,-43,-19
-29,-34,-4,31,-12,-19,-63,-102,-92,-63,-43,-19
-14,-24,-9,19,-2,-17,-24,-102,-87,-58,-34,-14
4,-14,-19,4,12,-17,4,-102,-82,-53,-24,-4
4,-19,-24,7,14,-21,9,-97,-87,-53,-24,-4
0,-19,-19,9,9,-19,9,-92,-87,-58,-24,-9
-9,-29,-19,19,4,-24,9,-92,-87,-58,-29,-9
-14,-34,-19,24,2,-26,4,-92,-87,-58,-29,-9
-9,-29,-19,19,4,-24,-4,-92,-87,-58,-29,-9
-9,-29,-19,19,4,-24,-9,-87,-92,-58,-29,-9
-14,-39,-24,26,4,-31,-24,-87,-92,-58,-29,-14
-14,-43,-29,29,7,-36,-34,-87,-92,-58,-29,-14
-29,-58,-29,43,0,-43,-43,-87,-92,-58,-34,-19
-48,-73,-24,61,-12,-48,-63,-82,-92,-63,-39,-24
-48,-73,-24,61,-12,-48,-63,-82,-97,-68,-39,-29
-48,-68,-19,58,-14,-43,-63,-87,-102,-73,-43,-39
-39,-48,-9,43,-14,-29,-39,-107,-102,-73,-43,-39
-29,-29,0,29,-14,-14,-14,-122,-97,-68,-43,-34
-19,-14,4,17,-12,-4,14,-112,-92,-58,-39,-29
-19,-9,9,14,-14,0,39,-102,-87,-48,-39,-24
-14,-19,-4,17,-4,-12,24,-92,-87,-58,-39,-24
-9,-19,-9,14,0,-14,14,-87,-92,-68,-39,-24
-9,-14,-4,12,-2,-9,9,-87,-92,-68,-39,-24
-9,-9,0,9,-4,-4,0,-82,-87,-68,-39,-24
-14,-14,0,14,-7,-7,-19,-87,-87,-68,-39,-24
-24,-24,0,24,-12,-12,-29,-87,-87,-63,-39,-24
-24,-34,-9,29,-7,-21,-29,-87,-87,-63,-39,-24
-24,-48,-24,36,0,-36,-29,-87,-87,-63,-39,-24
-9,-34,-24,21,7,-29,-19,-78,-82,-53,-24,-19
-4,-14,-9,9,2,-12,0,-68,-78,-48,-14,-24
-63,-24,39,43,-51,7,-9,-92,-112,-87,-68,-58
-126,-29,97,78,-112,34,-9,-136,-151,-126,-112,-78
-190,4,195,92,-192,100,53,-136,-161,-141,-117,-92
-209,73,283,68,-246,178,136,-24,-63,-63,-68,-68
-180,82,263,48,-222,173,180,107,63,43,0,-43
-29,112,141,-41,-85,126,185,263,273,283,214,97
229,209,-19,-219,124,95,53,326,551,732,673,419
405,322,-82,-363,244,119,-141,165,585,956,932,644
527,541,14,-534,256,278,-375,-190,429,1010,1068,844
595,531,-63,-563,329,234,-566,-605,0,585,766,736
551,-43,-595,-253,573,-319,-561,-932,-771,-595,-361,-39
385,-444,-829,29,607,-636,-561,-1332,-1449,-1410,-1093,-551
73,-570,-644,248,358,-607,-644,-1727,-1830,-1664,-1229,-629
-185,-561,-375,373,95,-468,-522,-1629,-1722,-1522,-1117,-575
-214,-444,-229,329,7,-336,-409,-1298,-1400,-1224,-893,-458
-204,-346,-141,275,-31,-244,-312,-971,-1063,-927,-663,-331
-185,-248,-63,217,-61,-156,-185,-678,-751,-668,-497,-258
-170,-161,9,165,-90,-75,-102,-439,-473,-424,-331,-190
-156,-97,58,126,-107,-19,-78,-283,-297,-273,-209,-126
-146,-78,68,112,-107,-4,-24,-180,-200,-190,-151,-107
-117,-68,48,92,-82,-9,9,-112,-136,-131,-122,-87
-102,-68,34,85,-68,-17,14,-68,-87,-82,-87,-73
-73,-68,4,70,-39,-31,0,-19,-48,-53,-48,-53
-58,-68,-9,63,-24,-39,-14,19,-29,-43,-39,-53
-58,-58,0,58,-29,-29,4,19,-24,-43,-39,-53
-53,-43,9,48,-31,-17,14,9,-14,-29,-39,-48
-53,-43,9,48,-31,-17,48,9,-9,-29,-34,-48
-48,-43,4,46,-26,-19,82,9,-9,-29,-29,-43
-48,-43,4,46,-26,-19,82,4,-14,-29,-34,-43
-48,-39,9,43,-29,-14,82,0,-19,-24,-39,-43
-39,-39,0,39,-19,-19,68,0,-9,-19,-39,-43
-34,-39,-4,36,-14,-21,58,0,-9,-14,-34,-43
-34,-39,-4,36,-14,-21,58,9,-4,-14,-34,-43
-39,-39,0,39,-19,-19,58,19,0,-14,-34,-43
-53,-53,0,53,-26,-26,43,24,0,-19,-34,-43
-63,-63,0,63,-31,-31,34,29,0,-24,-34,-43
-68,-58,9,63,-39,-24,19,34,0,-24,-34,-48
-78,-58,19,68,-48,-19,9,39,0,-24,-34,-48
-68,-58,9,63,-39,-24,14,34,-4,-24,-34,-48
-63,-53,9,58,-36,-21,14,34,-4,-24,-39,-53
-58,-48,9,53,-34,-19,29,24,0,-19,-39,-53
-53,-43,9,48,-31,-17,43,19,0,-19,-39,-53
-53,-39,14,46,-34,-12,58,39,4,-19,-43,-53
-53,-29,24,41,-39,-2,73,53,9,-19,-43,-58
-53,-29,24,41,-39,-2,78,53,14,-19,-43,-58
-53,-34,19,43,-36,-7,82,58,14,-14,-43,-58
-58,-43,14,51,-36,-14,63,53,14,-14,-43,-58
-58,-53,4,56,-31,-24,43,43,14,-14,-48,-63
-73,-53,19,63,-46,-17,58,43,14,-14,-48,-63
-82,-53,29,68,-56,-12,78,53,14,-14,-48,-68
-73,-53,19,63,-46,-17,68,58,19,-14,-48,-68
-87,-53,34,70,-61,-9,58,63,24,-14,-53,-68
-82,-58,24,70,-53,-17,63,63,24,-14,-53,-73
-78,-58,19,68,-48,-19,63,78,24,-9,-53,-73
-78,-53,24,65,-51,-14,58,82,39,-9,-53,-73
-78,-53,24,65,-51,-14,58,97,43,-4,-48,-73
-78,-58,19,68,-48,-19,63,102,48,-4,-48,-73
-92,-58,34,75,-63,-12,73,112,53,-4,-48,-73
-92,-58,34,75,-63,-12,73,107,53,0,-53,-82
-87,-58,29,73,-58,-14,78,112,53,0,-53,-82
-82,-58,24,70,-53,-17,73,122,63,0,-48,-82
-82,-58,24,70,-53,-17,73,131,73,4,-48,-78
-82,-48,34,65,-58,-7,73,151,87,14,-43,-78
-82,-34,48,58,-65,7,73,170,102,24,-39,-78
-82,-48,34,65,-58,-7,73,190,112,24,-39,-78
-87,-63,24,75,-56,-19,73,204,126,39,-39,-78
-87,-63,24,75,-56,-19,92,219,136,39,-34,-78
-82,-58,24,70,-53,-17,117,239,151,48,-29,-78
-82,-48,34,65,-58,-7,131,263,170,58,-24,-78
-82,-43,39,63,-61,-2,146,283,185,68,-19,-73
-78,-39,39,58,-58,0,156,287,190,73,-14,-73
-78,-34,43,56,-61,4,156,302,204,82,-4,-68
-73,-29,43,51,-58,7,156,326,229,97,-4,-68
-73,-29,43,51,-58,7,156,351,239,112,-4,-68
-73,-24,48,48,-61,12,165,380,263,126,4,-63
-68,-24,43,46,-56,9,165,405,283,131,4,-58
-68,-19,48,43,-58,14,190,434,297,146,24,-58
-68,-9,58,39,-63,24,204,453,317,161,39,-53
-58,0,58,29,-58,29,219,488,341,180,48,-43
-58,0,58,29,-58,29,244,512,366,200,58,-39
-58,9,68,24,-63,39,234,536,385,209,68,-39
-58,14,73,21,-65,43,224,561,405,224,78,-29
-53,24,78,14,-65,51,219,580,434,239,82,-24
-48,24,73,12,-61,48,224,605,448,263,97,-14
-43,34,78,4,-61,56,224,624,478,278,107,-4
-39,43,82,-2,-61,63,234,629,492,292,122,0
-39,53,92,-7,-65,73,224,634,502,302,131,4
-29,63,92,-17,-61,78,214,634,522,317,146,9
-29,68,97,-19,-63,82,209,634,536,341,156,19
-24,78,102,-26,-63,90,200,624,541,346,170,34
-29,73,102,-21,-65,87,204,605,541,361,175,43
-24,63,87,-19,-56,75,209,590,541,370,185,58
-9,78,87,-34,-48,82,200,575,551,380,200,68
0,92,92,-46,-46,92,180,556,556,390,214,87
24,107,82,-65,-29,95,156,536,556,400,229,102
48,112,63,-80,-7,87,126,512,551,409,248,117
58,112,53,-85,2,82,122,483,536,409,253,126
58,112,53,-85,2,82,122,453,522,409,253,131
58,102,43,-80,7,73,107,424,507,405,258,131
53,92,39,-73,7,65,92,395,488,390,258,131
58,87,29,-73,14,58,68,361,458,375,253,136
63,87,24,-75,19,56,29,326,429,346,244,136
68,87,19,-78,24,53,14,287,390,326,234,141
78,87,9,-82,34,48,9,253,356,297,224,141
87,87,0,-87,43,43,4,219,326,278,214,146
97,82,-14,-90,56,34,-4,200,287,253,204,141
107,82,-24,-95,65,29,0,161,253,224,185,131
112,82,-29,-97,70,26,0,136,224,204,165,126
92,87,-4,-90,48,41,-4,102,180,170,146,117
78,78,0,-78,39,39,-9,82,151,141,131,107
73,73,0,-73,36,36,-19,63,126,126,122,97
73,68,-4,-70,39,31,-24,48,102,112,112,97
68,63,-4,-65,36,29,-34,19,78,92,97,82
58,53,-4,-56,31,24,-39,4,63,82,82,78
48,43,-4,-46,26,19,-39,0,53,63,73,68
48,29,-19,-39,34,4,-39,-14,34,39,58,58
43,29,-14,-36,29,7,-48,-14,24,34,53,53
39,29,-9,-34,24,9,-53,-24,9,19,43,53
34,29,-4,-31,19,12,-34,-24,4,14,39,48
34,24,-9,-29,21,7,-14,-24,4,9,39,48
34,29,-4,-31,19,12,-14,-34,0,9,39,39
34,34,0,-34,17,17,-19,-48,-4,4,34,39
34,34,0,-34,17,17,-24,-48,-9,4,34,39
24,29,4,-26,9,17,-24,-43,-14,0,24,34
19,29,9,-24,4,19,-24,-43,-19,-4,14,34
14,29,14,-21,0,21,-24,-43,-19,-4,14,34
14,24,9,-19,2,17,-24,-39,-24,-9,14,29
14,24,9,-19,2,17,-29,-39,-24,-9,14,29
19,29,9,-24,4,19,-34,-43,-24,-9,9,29
24,34,9,-29,7,21,-34,-43,-24,-4,9,29
24,39,14,-31,4,26,-24,-43,-24,-4,19,29
24,39,14,-31,4,26,-24,-43,-24,-4,24,29
19,29,9,-24,4,19,-24,-43,-24,-9,19,24
9,24,14,-17,-2,19,-24,-43,-24,-9,19,14
9,14,4,-12,2,9,-19,-53,-29,-9,9,9
9,9,0,-9,4,4,-14,-63,-29,-14,0,4
9,9,0,-9,4,4,-9,-63,-29,-14,0,9
9,9,0,-9,4,4,0,-58,-29,-9,4,9
4,14,9,-9,-2,12,-24,-53,-19,-4,4,4
4,19,14,-12,-4,17,-48,-43,-14,-4,4,4
9,14,4,-12,2,9,-39,-43,-14,-4,4,4
14,14,0,-14,7,7,-29,-43,-14,-9,4,4
9,9,0,-9,4,4,-29,-43,-14,-9,4,14
4,9,4,-7,0,7,-29,-43,-9,-4,4,19
-4,14,19,-4,-12,17,-29,-39,-9,-4,9,19
-9,14,24,-2,-17,19,-19,-39,-9,-4,14,19
0,14,14,-7,-7,14,14,-39,-9,0,19,19
4,14,9,-9,-2,12,24,-48,-14,4,19,19
4,19,14,-12,-4,17,9,-48,-14,4,19,14
4,19,14,-12,-4,17,-14,-43,-14,4,19,14
0,14,14,-7,-7,14,-14,-39,-14,0,9,9
-4,9,14,-2,-9,12,-9,-34,-14,-4,4,4
-14,14,29,0,-21,21,-14,-34,-29,-4,0,0
-14,19,34,-2,-24,26,-24,-39,-34,-14,-4,0
-19,19,39,0,-29,29,-29,-43,-34,-14,-4,-4
-19,14,34,2,-26,24,-29,-53,-34,-14,-4,-9
-24,0,24,12,-24,12,-14,-63,-43,-19,-4,-9
-24,-14,9,19,-17,-2,-4,-73,-53,-24,-4,-9
-14,-4,9,9,-12,2,-9,-63,-39,-24,-4,-9
-9,0,9,4,-9,4,-9,-53,-29,-24,-9,-9
-19,0,19,9,-19,9,-4,-48,-29,-29,-9,-9
-19,-4,14,12,-17,4,-29,-43,-43,-34,-9,-9
-14,-4,9,9,-12,2,-43,-48,-43,-34,-9,-9
-14,0,14,7,-14,7,-43,-48,-43,-34,-9,-9
-9,0,9,4,-9,4,-19,-48,-39,-34,-9,-9
-4,0,4,2,-4,2,0,-48,-34,-34,-14,-14
0,4,4,-2,-2,4,0,-48,-39,-29,-14,-14
4,9,4,-7,0,7,0,-48,-43,-24,-14,-14
4,9,4,-7,0,7,0,-48,-43,-29,-14,-14
4,4,0,-4,2,2,-9,-53,-43,-34,-19,-19
-4,-9,-4,7,0,-7,-14,-58,-48,-34,-19,-14
-19,-9,9,14,-14,0,-14,-58,-48,-34,-19,-4
-9,-4,4,7,-7,0,-43,-58,-48,-34,-19,-4
-4,-9,-4,7,0,-7,-53,-58,-53,-34,-19,-4
0,0,0,0,0,0,-39,-63,-58,-39,-24,-9
0,0,0,0,0,0,-24,-78,-63,-43,-29,-14
-14,-14,0,14,-7,-7,-14,-78,-63,-48,-29,-14
-24,-24,0,24,-12,-12,-4,-78,-68,-48,-34,-14
-4,0,4,2,-4,2,-9,-78,-63,-48,-34,-14
14,19,4,-17,4,12,-19,-78,-58,-53,-34,-14
9,9,0,-9,4,4,-19,-78,-58,-53,-34,-19
9,-4,-14,-2,12,-9,-19,-78,-58,-53,-34,-29
9,-4,-14,-2,12,-9,-24,-73,-58,-48,-34,-29
4,-9,-14,2,9,-12,-39,-68,-58,-43,-34,-24
-4,-9,-4,7,0,-7,-43,-68,-58,-43,-34,-19
4,-4,-9,0,7,-7,-43,-68,-58,-43,-34,-14
-4,-4,0,4,-2,-2,-24,-63,-58,-48,-34,-14
-14,-4,9,9,-12,2,0,-63,-58,-48,-34,-14
-4,4,9,0,-7,7,-4,-78,-63,-48,-34,-14
-4,-4,0,4,-2,-2,-14,-82,-73,-48,-34,-14
0,-9,-9,4,4,-9,-19,-82,-73,-53,-34,-14
4,-4,-9,0,7,-7,-29,-82,-68,-53,-34,-19
0,-4,-4,2,2,-4,-14,-78,-68,-48,-29,-19
-9,-9,0,9,-4,-4,0,-78,-68,-48,-29,-19
-9,-9,0,9,-4,-4,-19,-78,-68,-48,-29,-19
-9,-9,0,9,-4,-4,-39,-78,-68,-48,-29,-19
-9,-9,0,9,-4,-4,-48,-78,-68,-48,-29,-19
-9,-9,0,9,-4,-4,-58,-78,-68,-48,-29,-19
-9,-9,0,9,-4,-4,-29,-78,-73,-48,-34,-19
-9,-9,0,9,-4,-4,0,-78,-78,-48,-39,-19
-9,-9,0,9,-4,-4,0,-78,-78,-48,-39,-24
-9,-9,0,9,-4,-4,0,-78,-78,-48,-39,-29
-4,-4,0,4,-2,-2,-14,-78,-73,-53,-39,-29
0,0,0,0,0,0,-29,-78,-68,-58,-39,-29
0,0,0,0,0,0,-34,-78,-68,-58,-34,-24
0,0,0,0,0,0,-39,-78,-68,-58,-29,-19
0,0,0,0,0,0,-39,-78,-68,-53,-29,-19
0,0,0,0,0,0,-39,-78,-68,-48,-29,-19
0,-4,-4,2,2,-4,-29,-78,-68,-48,-29,-19
0,-9,-9,4,4,-9,-19,-78,-68,-48,-29,-19
-9,-9,0,9,-4,-4,-19,-78,-68,-53,-29,-19
-19,-9,9,14,-14,0,-19,-78,-68,-58,-29,-19
-9,-9,0,9,-4,-4,-29,-78,-73,-58,-29,-19
0,-9,-9,4,4,-9,-39,-78,-78,-58,-29,-19
0,-4,-4,2,2,-4,-39,-92,-78,-58,-34,-19
0,0,0,0,0,0,-39,-107,-78,-58,-39,-19
0,0,0,0,0,0,-24,-97,-78,-58,-39,-19
0,0,0,0,0,0,-9,-87,-78,-58,-39,-19
0,0,0,0,0,0,-24,-82,-78,-53,-34,-19
0,0,0,0,0,0,-39,-78,-78,-48,-29,-19
-4,-9,-4,7,0,-7,-39,-78,-78,-48,-29,-19
-9,-19,-9,14,0,-14,-39,-78,-78,-48,-29,-19
-9,-19,-9,14,0,-14,-39,-78,-78,-48,-29,-19
-9,-19,-9,14,0,-14,-39,-78,-78,-48,-29,-19
-4,-9,-4,7,0,-7,-39,-78,-78,-48,-29,-19
0,0,0,0,0,0,-39,-78,-78,-48,-29,-19
0,0,0,0,0,0,-24,-78,-73,-48,-29,-19
0,0,0,0,0,0,-9,-78,-68,-48,-29,-19
0,4,4,-2,-2,4,-4,-73,-63,-39,-19,-9
0,9,9,-4,-4,9,0,-68,-58,-29,-9,0
19,9,-9,-14,14,0,0,-58,-48,-24,0,0
39,9,-29,-24,34,-9,0,-48,-39,-19,9,0
39,14,-24,-26,31,-4,0,-29,-24,-9,14,9
39,19,-19,-29,29,0,0,-9,-9,0,19,19
43,39,-4,-41,24,17,9,-4,-4,4,19,19
48,58,9,-53,19,34,19,0,0,9,19,19
53,58,4,-56,24,31,9,0,0,9,19,19
58,58,0,-58,29,29,0,0,0,9,19,19
68,53,-14,-61,41,19,-19,-4,-4,9,19,24
78,48,-29,-63,53,9,-39,-9,-9,9,19,29
78,48,-29,-63,53,9,-48,-48,-34,0,19,34
78,48,-29,-63,53,9,-58,-87,-58,-9,19,39
78,58,-19,-68,48,19,-63,-92,-58,-9,19,39
78,68,-9,-73,43,29,-68,-97,-58,-9,19,39
73,68,-4,-70,39,31,-82,-97,-63,-14,14,34
68,68,0,-68,34,34,-97,-97,-68,-19,9,29
68,63,-4,-65,36,29,-97,-97,-68,-19,9,29
68,58,-9,-63,39,24,-97,-97,-68,-19,9,29
68,53,-14,-61,41,19,-92,-87,-63,-19,9,29
68,48,-19,-58,43,14,-87,-78,-58,-19,9,29
68,39,-29,-53,48,4,-73,-78,-58,-19,9,29
68,29,-39,-48,53,-4,-58,-78,-58,-19,9,29
78,24,-53,-51,65,-14,-53,-78,-63,-19,4,29
87,19,-68,-53,78,-24,-48,-78,-68,-19,0,29
78,19,-58,-48,68,-19,-43,-87,-73,-34,0,24
53,4,-48,-29,51,-21,-34,-102,-82,-43,-4,14
29,-4,-34,-12,31,-19,-29,-117,-97,-53,-14,9
4,-24,-29,9,17,-26,-19,-117,-97,-48,-24,-4
-24,-39,-14,31,-4,-26,-29,-107,-92,-58,-34,-19
-29,-48,-19,39,-4,-34,-39,-97,-87,-58,-39,-29
-39,-53,-14,46,-12,-34,-73,-92,-87,-58,-39,-29
-43,-53,-9,48,-17,-31,-112,-78,-87,-58,-39,-29
-39,-53,-14,46,-12,-34,-136,-78,-87,-68,-48,-29
-29,-53,-24,41,-2,-39,-141,-78,-87,-73,-53,-29
-19,-39,-19,29,0,-29,-73,-107,-97,-73,-53,-29
-14,-34,-19,24,2,-26,9,-122,-102,-73,-53,-29
-14,-34,-19,24,2,-26,24,-122,-102,-73,-53,-24
-14,-39,-24,26,4,-31,34,-122,-107,-73,-53,-24
-19,-34,-14,26,-2,-24,19,-112,-102,-73,-43,-29
-24,-34,-9,29,-7,-21,9,-102,-97,-68,-39,-29
-24,-34,-9,29,-7,-21,-4,-102,-97,-68,-39,-29
-19,-29,-9,24,-4,-19,-19,-107,-97,-68,-39,-29
-24,-29,-4,26,-9,-17,-24,-107,-107,-73,-43,-29
-34,-34,0,34,-17,-17,-29,-107,-112,-78,-48,-34
-34,-34,0,34,-17,-17,-24,-107,-112,-78,-48,-34
-34,-34,0,34,-17,-17,-24,-107,-112,-78,-48,-34
-34,-34,0,34,-17,-17,-39,-102,-107,-78,-48,-34
-29,-34,-4,31,-12,-19,-43,-102,-102,-73,-48,-34
-29,-29,0,29,-14,-14,-43,-107,-102,-73,-53,-39
-29,-29,0,29,-14,-14,-34,-107,-102,-73,-53,-39
-34,-29,4,31,-19,-12,-24,-102,-97,-73,-53,-34
-29,-19,9,24,-19,-4,-24,-102,-97,-78,-48,-34
-29,-24,4,26,-17,-9,-39,-97,-97,-78,-48,-34
-29,-39,-9,34,-9,-24,-53,-92,-97,-78,-48,-34
-29,-39,-9,34,-9,-24,-53,-97,-102,-78,-43,-34
-29,-34,-4,31,-12,-19,-48,-97,-102,-78,-39,-34
-24,-24,0,24,-12,-12,-29,-102,-102,-78,-39,-34
-19,-19,0,19,-9,-9,-19,-112,-107,-78,-39,-34
-24,-24,0,24,-12,-12,-19,-107,-107,-73,-48,-39
-24,-24,0,24,-12,-12,-14,-107,-107,-73,-58,-43
-24,-29,-4,26,-9,-17,-9,-107,-107,-73,-58,-43
-24,-29,-4,26,-9,-17,0,-107,-107,-73,-58,-43
-34,-24,9,29,-21,-7,9,-97,-97,-78,-63,-53
-82,-19,63,51,-73,21,9,-102,-122,-117,-107,-87
-141,-19,122,80,-131,51,24,-151,-175,-161,-146,-107
-190,4,195,92,-192,100,48,-151,-175,-151,-136,-107
-200,73,273,63,-236,173,97,-9,-53,-43,-78,-78
-165,82,248,41,-207,165,117,136,97,107,29,-29
-14,97,112,-41,-63,104,112,336,356,400,302,146
204,180,-24,-192,114,78,-4,380,590,785,702,434
356,322,-34,-339,195,143,-180,161,605,1000,946,663
448,483,34,-466,207,258,-361,-170,419,951,976,780
497,409,-87,-453,292,161,-512,-536,-78,361,512,551
414,-92,-507,-161,461,-300,-492,-834,-785,-692,-478,-126
209,-463,-673,126,441,-568,-483,-1293,-1483,-1468,-1141,-575
-29,-551,-522,290,246,-536,-551,-1644,-1825,-1708,-1273,-649
-224,-497,-273,361,24,-385,-444,-1493,-1644,-1488,-1102,-575
-239,-405,-165,322,-36,-285,-370,-1229,-1371,-1229,-912,-492
-214,-341,-126,278,-43,-234,-287,-922,-1044,-946,-702,-380
-195,-273,-78,234,-58,-175,-175,-653,-756,-702,-541,-307
-170,-175,-4,173,-82,-90,-102,-424,-478,-439,-361,-224
-141,-102,39,122,-90,-31,-78,-273,-297,-273,-234,-156
-126,-82,43,104,-85,-19,-24,-190,-219,-209,-180,-136
-97,-68,29,82,-63,-19,9,-122,-156,-151,-141,-107
-92,-63,29,78,-61,-17,14,-68,-92,-92,-102,-92
-82,-58,24,70,-53,-17,14,-34,-53,-63,-68,-73
-78,-58,19,68,-48,-19,19,-19,-48,-63,-63,-63
-78,-58,19,68,-48,-19,34,-9,-43,-63,-58,-53
-63,-48,14,56,-39,-17,34,-19,-34,-43,-53,-48
-53,-43,9,48,-31,-17,34,-29,-29,-39,-43,-48
-39,-43,-4,41,-17,-24,34,-19,-29,-39,-39,-43
-29,-43,-14,36,-7,-29,34,-4,-29,-39,-39,-43
-43,-43,0,43,-21,-21,24,0,-29,-34,-39,-43
-53,-48,4,51,-29,-21,14,0,-19,-29,-39,-43
-53,-48,4,51,-29,-21,19,0,-19,-24,-34,-43
-53,-48,4,51,-29,-21,19,9,-14,-24,-34,-43
-58,-48,9,53,-34,-19,29,14,-14,-24,-34,-43
-63,-53,9,58,-36,-21,29,9,-19,-24,-34,-43
-63,-53,9,58,-36,-21,24,9,-19,-24,-34,-43
-58,-48,9,53,-34,-19,24,9,-19,-24,-34,-48
-58,-48,9,53,-34,-19,29,14,-19,-24,-39,-53
-58,-53,4,56,-31,-24,34,14,-24,-24,-43,-58
-63,-58,4,61,-34,-26,14,14,-24,-34,-53,-63
-63,-63,0,63,-31,-31,-4,14,-19,-43,-58,-63
-68,-78,-9,73,-29,-43,-29,19,-19,-48,-58,-63
-73,-92,-19,82,-26,-56,-48,24,-19,-48,-63,-63
-73,-73,0,73,-36,-36,-9,14,-19,-48,-63,-68
-73,-58,14,65,-43,-21,29,4,-14,-48,-63,-68
-68,-53,14,61,-41,-19,48,9,-14,-43,-58,-68
-68,-43,24,56,-46,-9,63,14,-9,-43,-53,-68
-63,-43,19,53,-41,-12,63,34,0,-34,-58,-73
-63,-43,19,53,-41,-12,63,53,4,-24,-58,-73
-63,-48,14,56,-39,-17,58,53,4,-24,-58,-78
-53,-53,0,53,-26,-26,48,48,9,-24,-58,-78
-68,-53,14,61,-41,-19,48,53,14,-24,-63,-73
-68,-58,9,63,-39,-24,53,53,14,-24,-63,-73
-68,-53,14,61,-41,-19,53,68,14,-19,-63,-73
-68,-43,24,56,-46,-9,48,73,29,-19,-63,-73
-68,-43,24,56,-46,-9,48,82,29,-19,-63,-78
-68,-48,19,58,-43,-14,53,82,29,-19,-68,-82
-87,-58,29,73,-58,-14,63,92,34,-14,-68,-82
-92,-68,24,80,-58,-21,63,92,39,-9,-73,-92
-87,-68,19,78,-53,-24,58,107,48,-4,-63,-87
-82,-68,14,75,-48,-26,48,122,63,0,-48,-82
-82,-68,14,75,-48,-26,53,131,73,4,-48,-78
-82,-68,14,75,-48,-26,63,146,82,14,-43,-78
-82,-63,19,73,-51,-21,92,161,92,19,-39,-78
-82,-63,19,73,-51,-21,112,180,102,14,-39,-78
-82,-48,34,65,-58,-7,112,195,117,29,-39,-78
-78,-34,43,56,-61,4,112,209,126,29,-34,-78
-73,-29,43,51,-58,7,107,214,131,43,-29,-78
-73,-24,48,48,-61,12,107,224,141,58,-24,-78
-73,-34,39,53,-56,2,107,253,170,68,-19,-73
-68,-39,29,53,-48,-4,107,278,195,73,-14,-73
-73,-34,39,53,-56,2,97,312,214,82,-4,-68
-73,-29,43,51,-58,7,102,346,239,97,0,-68
-73,-29,43,51,-58,7,131,361,244,117,4,-68
-73,-24,48,48,-61,12,156,375,263,136,14,-63
-58,-24,34,41,-46,4,156,395,283,141,9,-58
-48,-19,29,34,-39,4,165,424,302,156,19,-58
-58,-9,48,34,-53,19,165,444,326,165,29,-58
-58,0,58,29,-58,29,170,478,351,180,39,-53
-58,-4,53,31,-56,24,185,507,375,200,48,-48
-58,0,58,29,-58,29,190,531,395,209,58,-48
-58,4,63,26,-61,34,195,551,419,229,68,-39
-53,14,68,19,-61,41,195,566,448,248,73,-34
-48,19,68,14,-58,43,204,580,458,273,92,-19
-43,34,78,4,-61,56,204,595,488,287,107,-4
-39,43,82,-2,-61,63,214,600,502,307,122,0
-39,48,87,-4,-63,68,204,605,512,322,131,9
-29,53,82,-12,-56,68,195,605,531,336,146,19
-24,58,82,-17,-53,70,190,605,546,361,156,29
-19,63,82,-21,-51,73,180,590,551,366,170,43
-24,63,87,-19,-56,75,175,566,551,380,180,53
-14,63,78,-24,-46,70,156,551,551,390,195,68
0,68,68,-34,-34,68,131,531,556,400,209,78
14,73,58,-43,-21,65,126,512,556,409,224,97
29,82,53,-56,-12,68,126,497,556,419,234,107
39,92,53,-65,-7,73,107,473,556,429,248,117
48,102,53,-75,-2,78,82,444,546,429,253,126
48,92,43,-70,2,68,63,419,531,429,258,131
58,82,24,-70,17,53,48,395,517,424,268,136
63,82,19,-73,21,51,34,366,497,414,268,141
68,78,9,-73,29,43,29,331,463,405,263,146
68,82,14,-75,26,48,24,297,429,375,253,146
68,87,19,-78,24,53,24,258,390,356,244,146
78,87,9,-82,34,48,9,224,356,317,234,141
78,82,4,-80,36,43,-9,190,322,283,219,141
78,78,0,-78,39,39,-24,170,278,253,204,131
78,82,4,-80,36,43,-24,131,244,224,185,122
73,82,9,-78,31,46,-29,107,209,204,161,117
63,82,19,-73,21,51,-34,73,165,170,136,107
58,58,0,-58,29,29,-34,53,136,136,117,97
53,43,-9,-48,31,17,-39,34,107,117,102,87
53,39,-14,-46,34,12,-43,19,82,102,92,87
53,39,-14,-46,34,12,-43,0,58,82,82,78
48,43,-4,-46,26,19,-39,-4,43,73,78,78
39,48,9,-43,14,29,-39,-9,39,58,73,68
39,39,0,-39,19,19,-39,-19,24,39,58,58
34,39,4,-36,14,21,-39,-14,14,34,53,53
29,34,4,-31,12,19,-48,-24,0,19,43,53
24,29,4,-26,9,17,-63,-24,-9,14,39,48
24,19,-4,-21,14,7,-53,-29,-14,4,39,48
24,14,-9,-19,17,2,-43,-39,-19,0,39,39
24,14,-9,-19,17,2,-48,-48,-24,-4,34,39
24,14,-9,-19,17,2,-48,-48,-24,-4,34,39
14,9,-4,-12,9,2,-48,-43,-24,-9,29,34
9,9,0,-9,4,4,-48,-43,-29,-14,19,34
4,9,4,-7,0,7,-43,-43,-29,-14,14,29
4,4,0,-4,2,2,-43,-39,-34,-19,14,19
4,4,0,-4,2,2,-43,-43,-34,-19,14,19
4,4,0,-4,2,2,-43,-53,-34,-19,9,19
4,4,0,-4,2,2,-39,-58,-39,-14,9,19
4,9,4,-7,0,7,-24,-63,-43,-14,14,19
14,9,-4,-12,9,2,-24,-63,-43,-14,14,19
24,0,-24,-12,24,-12,-24,-63,-43,-19,9,19
4,-4,-9,0,7,-7,-39,-58,-43,-19,9,14
-9,-4,4,7,-7,0,-53,-53,-43,-14,9,14
0,9,9,-4,-4,9,-43,-43,-29,-9,9,19
9,19,9,-14,0,14,-29,-34,-19,-4,9,29
9,19,9,-14,0,14,-19,-29,-19,0,14,29
4,19,14,-12,-4,17,-29,-29,-14,4,14,24
4,19,14,-12,-4,17,-43,-29,-19,4,14,24
4,14,9,-9,-2,12,-48,-34,-24,4,14,24
4,4,0,-4,2,2,-48,-34,-24,0,14,24
0,-9,-9,4,4,-9,-48,-34,-24,0,14,24
-4,-9,-4,7,0,-7,-48,-34,-19,4,14,19
-4,-4,0,4,-2,-2,-48,-29,-19,4,14,19
0,-4,-4,2,2,-4,-39,-34,-19,0,14,19
0,-4,-4,2,2,-4,-14,-39,-19,-4,14,19
-9,-4,4,7,-7,0,-4,-48,-24,-4,9,19
-14,0,14,7,-14,7,0,-48,-24,-4,9,14
-14,0,14,7,-14,7,-24,-43,-24,-4,9,14
-14,-4,9,9,-12,2,-34,-43,-24,-9,4,9
-9,-9,0,9,-4,-4,-29,-43,-24,-14,4,4
-14,-9,4,12,-9,-2,-29,-43,-34,-14,0,0
-9,-9,0,9,-4,-4,-29,-48,-34,-24,-4,0
-9,-9,0,9,-4,-4,-29,-48,-34,-24,-4,0
-9,-4,4,7,-7,0,-29,-48,-34,-24,-4,0
-4,4,9,0,-7,7,-24,-43,-34,-24,-4,0
4,4,0,-4,2,2,-24,-39,-34,-19,-4,0
4,4,0,-4,2,2,-19,-34,-29,-14,-4,0
-4,-4,0,4,-2,-2,-14,-34,-29,-14,-9,-4
-19,-9,9,14,-14,0,-4,-34,-29,-19,-9,-9
-19,-14,4,17,-12,-4,-29,-43,-48,-29,-14,-9
-14,-14,0,14,-7,-7,-53,-58,-53,-34,-19,-9
-14,-9,4,12,-9,-2,-43,-58,-53,-34,-19,-4
-14,-9,4,12,-9,-2,-29,-58,-53,-34,-19,0
-14,-9,4,12,-9,-2,-24,-58,-53,-34,-24,-4
-14,-9,4,12,-9,-2,-19,-58,-58,-34,-24,-4
-14,-9,4,12,-9,-2,-9,-58,-58,-34,-19,-4
-14,-9,4,12,-9,-2,0,-58,-53,-39,-14,-4
-14,-14,0,14,-7,-7,0,-63,-53,-43,-19,-9
-19,-29,-9,24,-4,-19,4,-68,-58,-43,-19,-9
-29,-34,-4,31,-12,-19,-19,-68,-63,-43,-19,-4
-19,-29,-9,24,-4,-19,-53,-68,-68,-43,-19,-4
-14,-29,-14,21,0,-21,-53,-68,-73,-43,-19,-4
-9,-19,-9,14,0,-14,-58,-68,-73,-43,-19,-4
-14,-14,0,14,-7,-7,-43,-78,-73,-43,-19,-4
-19,-14,4,17,-12,-4,-34,-78,-73,-48,-19,-4
-14,-14,0,14,-7,-7,-29,-78,-78,-48,-24,-4
-14,-9,4,12,-9,-2,-19,-78,-78,-48,-24,-4
-4,-4,0,4,-2,-2,-19,-73,-68,-53,-24,-4
0,0,0,0,0,0,-19,-68,-58,-53,-24,-4
0,-4,-4,2,2,-4,-19,-68,-58,-53,-24,-9
0,-4,-4,2,2,-4,-24,-68,-58,-53,-24,-9
-4,-9,-4,7,0,-7,-29,-82,-68,-58,-24,-4
-14,-9,4,12,-9,-2,-24,-97,-78,-63,-24,-4
-4,-4,0,4,-2,-2,-34,-87,-78,-63,-24,-4
-4,-4,0,4,-2,-2,-34,-73,-78,-63,-24,-4
-14,-14,0,14,-7,-7,-29,-73,-78,-53,-24,-4
-14,-14,0,14,-7,-7,-34,-82,-78,-48,-24,-4
-14,-24,-9,19,-2,-17,-34,-78,-82,-48,-24,-9
-19,-29,-9,24,-4,-19,-43,-73,-82,-53,-24,-14
-19,-29,-9,24,-4,-19,-39,-78,-78,-53,-24,-9
-24,-34,-9,29,-7,-21,-39,-82,-78,-53,-24,-9
-19,-29,-9,24,-4,-19,-34,-82,-78,-53,-29,-14
-19,-29,-9,24,-4,-19,-29,-87,-78,-58,-39,-19
-19,-29,-9,24,-4,-19,-29,-87,-78,-58,-39,-19
-19,-29,-9,24,-4,-19,-29,-87,-78,-58,-39,-19
-14,-19,-4,17,-4,-12,-29,-87,-73,-53,-29,-14
-9,-9,0,9,-4,-4,-29,-87,-68,-48,-19,-9
-9,-9,0,9,-4,-4,-29,-73,-68,-48,-19,-9
-9,-9,0,9,-4,-4,-29,-58,-68,-48,-19,-9
-9,-9,0,9,-4,-4,-24,-68,-73,-53,-19,-4
-9,-9,0,9,-4,-4,-19,-78,-78,-58,-19,0
-9,-9,0,9,-4,-4,-19,-78,-78,-58,-19,0
-9,-9,0,9,-4,-4,-19,-78,-78,-58,-19,0
-14,-9,4,12,-9,-2,-19,-78,-78,-58,-19,0
-19,-9,9,14,-14,0,-19,-78,-78,-58,-19,0
-19,-9,9,14,-14,0,-29,-78,-78,-58,-24,-4
-19,-9,9,14,-14,0,-39,-78,-78,-58,-29,-9
-19,-9,9,14,-14,0,-39,-82,-78,-58,-29,-9
-19,-9,9,14,-14,0,-39,-87,-78,-58,-29,-9
-19,-9,9,14,-14,0,-39,-87,-78,-58,-29,-9
-19,-9,9,14,-14,0,-39,-87,-78,-58,-29,-9
-19,-9,9,14,-14,0,-39,-87,-78,-58,-29,-9
-19,-9,9,14,-14,0,-39,-87,-78,-58,-29,-9
-19,-9,9,14,-14,0,-29,-82,-78,-58,-29,-9
-19,-9,9,14,-14,0,-19,-78,-78,-58,-29,-9
-19,-9,9,14,-14,0,-19,-78,-82,-58,-29,-9
-19,-9,9,14,-14,0,-19,-78,-87,-58,-29,-9
-14,-4,9,9,-12,2,-19,-82,-87,-58,-29,-9
-9,0,9,4,-9,4,-19,-87,-87,-58,-29,-9
-9,0,9,4,-9,4,-19,-87,-82,-58,-24,-4
-9,0,9,4,-9,4,-19,-87,-78,-58,-19,0
-4,14,19,-4,-12,17,-14,-63,-63,-43,-9,4
0,29,29,-14,-14,29,-9,-39,-48,-29,0,9
9,29,19,-19,-4,24,-9,-39,-43,-24,0,9
