I,II,III,aVR,aVL,aVF,V1,V2,V3,V4,V5,V6,
58,136,78,-97,-9,107,19,234,97,97,136,117
58,146,87,-102,-14,117,9,229,97,107,151,131
58,156,97,-107,-19,126,0,224,97,117,165,146
58,165,107,-112,-24,136,-4,214,97,126,170,156
58,175,117,-117,-29,146,-9,204,97,136,175,165
58,175,117,-117,-29,146,-14,195,97,141,185,165
58,175,117,-117,-29,146,-19,185,97,146,195,165
53,175,122,-114,-34,148,-19,170,102,146,195,165
48,175,126,-112,-39,151,-19,156,107,146,195,165
43,175,131,-109,-43,153,-24,141,107,146,190,165
39,175,136,-107,-48,156,-29,126,107,146,185,165
39,165,126,-102,-43,146,-29,112,102,141,170,156
39,156,117,-97,-39,136,-29,97,97,136,156,146
39,156,117,-97,-39,136,-29,87,92,126,146,136
39,156,117,-97,-39,136,-29,78,87,117,136,126
29,141,112,-85,-41,126,-29,68,82,112,126,117
19,126,107,-73,-43,117,-29,58,78,107,117,107
14,117,102,-65,-43,109,-24,58,78,102,107,102
9,107,97,-58,-43,102,-19,58,78,97,97,97
9,97,87,-53,-39,92,-14,43,73,82,82,82
9,87,78,-48,-34,82,-9,29,68,68,68,68
9,78,68,-43,-29,73,-9,29,63,63,63,58
9,68,58,-39,-24,63,-9,29,58,58,58,48
4,63,58,-34,-26,61,-9,24,58,48,43,39
0,58,58,-29,-29,58,-9,19,58,39,29,29
0,48,48,-24,-24,48,-4,19,48,34,19,24
0,39,39,-19,-19,39,0,19,39,29,9,19
0,34,34,-17,-17,34,0,19,39,24,9,14
0,29,29,-14,-14,29,0,19,39,19,9,9
-4,24,29,-9,-17,26,0,19,34,9,4,4
-9,19,29,-4,-19,24,0,19,29,0,0,0
-9,14,24,-2,-17,19,0,19,29,0,-9,-4
-9,9,19,0,-14,14,0,19,29,0,-19,-9
-9,4,14,2,-12,9,4,19,24,-4,-19,-9
-9,0,9,4,-9,4,9,19,19,-9,-19,-9
-9,0,9,4,-9,4,9,19,19,-9,-19,-14
-9,0,9,4,-9,4,9,19,19,-9,-19,-19
-9,0,9,4,-9,4,9,19,19,-9,-24,-19
-9,0,9,4,-9,4,9,19,19,-9,-29,-19
-9,-4,4,7,-7,0,9,19,19,-14,-34,-24
-9,-9,0,9,-4,-4,9,19,19,-19,-39,-29
-9,-9,0,9,-4,-4,9,19,19,-19,-39,-29
-9,-9,0,9,-4,-4,9,19,19,-19,-39,-29
-14,-9,4,12,-9,-2,14,24,19,-19,-34,-29
-19,-9,9,14,-14,0,19,29,19,-19,-29,-29
-19,-9,9,14,-14,0,19,29,19,-19,-29,-29
-19,-9,9,14,-14,0,19,29,19,-19,-29,-29
-14,-9,4,12,-9,-2,19,24,19,-19,-34,-29
-9,-9,0,9,-4,-4,19,19,19,-19,-39,-29
-9,-9,0,9,-4,-4,19,19,19,-19,-39,-29
-9,-9,0,9,-4,-4,19,19,19,-19,-39,-29
-14,-9,4,12,-9,-2,19,19,14,-19,-39,-29
-19,-9,9,14,-14,0,19,19,9,-19,-39,-29
-19,-14,4,17,-12,-4,19,19,4,-19,-39,-29
-19,-19,0,19,-9,-9,19,19,0,-19,-39,-29
-14,-19,-4,17,-4,-12,19,9,0,-24,-39,-29
-9,-19,-9,14,0,-14,19,0,0,-29,-39,-29
-9,-19,-9,14,0,-14,19,0,0,-29,-39,-29
-9,-19,-9,14,0,-14,19,0,0,-29,-39,-29
-14,-24,-9,19,-2,-17,19,0,-4,-29,-43,-29
-19,-29,-9,24,-4,-19,19,0,-9,-29,-48,-29
-19,-29,-9,24,-4,-19,14,-4,-9,-34,-48,-34
-19,-29,-9,24,-4,-19,9,-9,-9,-39,-48,-39
-19,-29,-9,24,-4,-19,9,-14,-14,-39,-48,-39
-19,-29,-9,24,-4,-19,9,-19,-19,-39,-48,-39
-19,-34,-14,26,-2,-24,9,-19,-19,-43,-48,-39
-19,-39,-19,29,0,-29,9,-19,-19,-48,-48,-39
-19,-39,-19,29,0,-29,9,-19,-24,-48,-48,-39
-19,-39,-19,29,0,-29,9,-19,-29,-48,-48,-39
-19,-43,-24,31,2,-34,9,-19,-29,-53,-53,-43
-19,-48,-29,34,4,-39,9,-19,-29,-58,-58,-48
-19,-48,-29,34,4,-39,9,-19,-29,-58,-58,-48
-19,-48,-29,34,4,-39,9,-19,-29,-58,-58,-48
-19,-53,-34,36,7,-43,9,-24,-34,-58,-58,-43
-19,-58,-39,39,9,-48,9,-29,-39,-58,-58,-39
-19,-58,-39,39,9,-48,9,-34,-39,-63,-63,-39
-19,-58,-39,39,9,-48,9,-39,-39,-68,-68,-39
-14,-58,-43,36,14,-51,4,-39,-43,-68,-68,-43
-9,-58,-48,34,19,-53,0,-39,-48,-68,-68,-48
-9,-58,-48,34,19,-53,0,-39,-48,-68,-68,-48
-9,-58,-48,34,19,-53,0,-39,-48,-68,-68,-48
-14,-58,-43,36,14,-51,0,-43,-53,-68,-68,-48
-19,-58,-39,39,9,-48,0,-48,-58,-68,-68,-48
-19,-58,-39,39,9,-48,0,-48,-58,-68,-68,-48
-19,-58,-39,39,9,-48,0,-48,-58,-68,-68,-48
-19,-58,-39,39,9,-48,0,-48,-58,-73,-68,-48
-19,-58,-39,39,9,-48,0,-48,-58,-78,-68,-48
-19,-58,-39,39,9,-48,0,-48,-58,-78,-68,-53
-19,-58,-39,39,9,-48,0,-48,-58,-78,-68,-58
-19,-63,-43,41,12,-53,0,-48,-63,-78,-68,-58
-19,-68,-48,43,14,-58,0,-48,-68,-78,-68,-58
-19,-68,-48,43,14,-58,0,-48,-68,-78,-68,-58
-19,-68,-48,43,14,-58,0,-48,-68,-78,-68,-58
-19,-68,-48,43,14,-58,0,-48,-68,-78,-68,-58
-19,-68,-48,43,14,-58,0,-48,-68,-78,-68,-58
-19,-68,-48,43,14,-58,0,-48,-68,-78,-68,-58
-19,-68,-48,43,14,-58,0,-48,-68,-78,-68,-58
-19,-68,-48,43,14,-58,0,-48,-68,-78,-68,-58
-19,-68,-48,43,14,-58,0,-48,-68,-78,-68,-58
-19,-68,-48,43,14,-58,0,-48,-68,-78,-68,-58
-19,-68,-48,43,14,-58,0,-48,-68,-78,-68,-58
-19,-68,-48,43,14,-58,0,-48,-68,-82,-68,-58
-19,-68,-48,43,14,-58,0,-48,-68,-87,-68,-58
-19,-68,-48,43,14,-58,0,-48,-68,-87,-73,-58
-19,-68,-48,43,14,-58,0,-48,-68,-87,-78,-58
-19,-68,-48,43,14,-58,0,-48,-68,-87,-78,-58
-19,-68,-48,43,14,-58,0,-48,-68,-87,-78,-58
-19,-68,-48,43,14,-58,0,-53,-68,-87,-78,-58
-19,-68,-48,43,14,-58,0,-58,-68,-87,-78,-58
-14,-68,-53,41,19,-61,0,-58,-68,-87,-78,-58
-9,-68,-58,39,24,-63,0,-58,-68,-87,-78,-58
-9,-68,-58,39,24,-63,0,-53,-68,-87,-78,-58
-9,-68,-58,39,24,-63,0,-48,-68,-87,-78,-58
-9,-73,-63,41,26,-68,0,-48,-68,-87,-78,-58
-9,-78,-68,43,29,-73,0,-48,-68,-87,-78,-58
-9,-78,-68,43,29,-73,0,-48,-68,-82,-78,-58
-9,-78,-68,43,29,-73,0,-48,-68,-78,-78,-58
-14,-78,-63,46,24,-70,0,-48,-68,-78,-78,-58
-19,-78,-58,48,19,-68,0,-48,-68,-78,-78,-58
-19,-78,-58,48,19,-68,4,-48,-68,-82,-78,-58
-19,-78,-58,48,19,-68,9,-48,-68,-87,-78,-58
-19,-78,-58,48,19,-68,9,-48,-68,-87,-78,-58
-19,-78,-58,48,19,-68,9,-48,-68,-87,-78,-58
-19,-78,-58,48,19,-68,9,-48,-68,-87,-78,-58
-19,-78,-58,48,19,-68,9,-48,-68,-87,-78,-58
-19,-78,-58,48,19,-68,9,-48,-68,-87,-78,-58
-19,-78,-58,48,19,-68,9,-48,-68,-87,-78,-58
-19,-78,-58,48,19,-68,9,-48,-68,-87,-78,-58
-19,-78,-58,48,19,-68,9,-48,-68,-87,-78,-58
-19,-78,-58,48,19,-68,14,-43,-63,-82,-73,-58
-19,-78,-58,48,19,-68,19,-39,-58,-78,-68,-58
-9,-58,-48,34,19,-53,24,-29,-48,-68,-63,-48
0,-39,-39,19,19,-39,29,-19,-39,-58,-58,-39
0,-24,-24,12,12,-24,39,-9,-24,-48,-48,-34
0,-9,-9,4,4,-9,48,0,-9,-39,-39,-29
4,4,0,-4,2,2,53,9,-4,-34,-29,-19
9,9,0,-9,4,4,53,19,0,-29,-24,-14
14,19,4,-17,4,12,58,34,4,-24,-19,-9
14,24,9,-19,2,17,39,43,4,-19,-14,0
14,24,9,-19,2,17,19,43,4,-19,-14,-4
14,39,24,-26,-4,31,0,48,9,-9,-9,4
14,68,53,-41,-19,61,-9,53,34,19,19,29
19,87,68,-53,-24,78,-24,48,43,29,29,39
24,92,68,-58,-21,80,-24,24,43,34,34,43
24,102,78,-63,-26,90,-24,9,39,34,34,48
14,102,87,-58,-36,95,-24,-19,24,29,34,48
9,78,68,-43,-29,73,-19,-29,4,9,19,39
4,68,63,-36,-29,65,-9,-29,4,4,24,43
4,58,53,-31,-24,56,-9,-24,0,4,19,43
0,39,39,-19,-19,39,-9,-24,-9,-4,19,34
-9,14,24,-2,-17,19,-4,-24,-19,-14,4,24
-14,-19,-4,17,-4,-12,4,-29,-39,-43,-29,-14
-24,-68,-43,46,9,-56,4,-43,-63,-68,-58,-39
-24,-82,-58,53,17,-70,0,-63,-73,-78,-68,-48
-24,-92,-68,58,21,-80,0,-63,-78,-87,-73,-48
-24,-97,-73,61,24,-85,0,-63,-78,-92,-78,-48
-24,-102,-78,63,26,-90,0,-63,-82,-97,-82,-58
-29,-112,-82,70,26,-97,0,-68,-92,-102,-87,-63
-29,-117,-87,73,29,-102,0,-73,-92,-102,-87,-63
-24,-117,-92,70,34,-104,4,-78,-92,-107,-87,-68
-24,-122,-97,73,36,-109,4,-78,-97,-107,-92,-68
-24,-126,-102,75,39,-114,4,-78,-97,-112,-97,-73
-24,-131,-107,78,41,-119,4,-73,-97,-112,-107,-73
-29,-131,-102,80,36,-117,9,-68,-92,-112,-107,-78
-29,-131,-102,80,36,-117,9,-63,-92,-112,-112,-87
-29,-131,-102,80,36,-117,9,-63,-92,-117,-112,-87
-29,-131,-102,80,36,-117,9,-63,-92,-117,-112,-87
-29,-131,-102,80,36,-117,9,-63,-97,-117,-112,-87
-29,-131,-102,80,36,-117,9,-63,-97,-117,-112,-87
-34,-131,-97,82,31,-114,9,-63,-97,-117,-107,-87
-39,-131,-92,85,26,-112,14,-63,-97,-117,-102,-87
-39,-131,-92,85,26,-112,14,-63,-97,-117,-102,-87
-39,-131,-92,85,26,-112,14,-58,-97,-117,-102,-87
-34,-126,-92,80,29,-109,14,-58,-92,-117,-102,-87
-29,-126,-97,78,34,-112,14,-58,-87,-117,-102,-87
-29,-122,-92,75,31,-107,14,-53,-87,-117,-102,-82
-24,-146,-122,85,48,-134,14,-43,-102,-146,-126,-102
-14,-200,-185,107,85,-192,29,-9,-117,-190,-175,-141
-14,-253,-239,134,112,-246,48,87,-102,-224,-229,-190
-9,-307,-297,158,143,-302,68,141,-78,-263,-287,-248
14,-297,-312,141,163,-305,73,214,29,-204,-278,-253
87,-107,-195,9,141,-151,43,385,283,63,-107,-151
170,292,122,-231,24,207,-82,375,590,531,244,92
214,800,585,-507,-185,692,-253,161,814,1049,673,419
214,1185,971,-700,-378,1078,-507,-424,736,1415,1044,741
204,1459,1254,-832,-524,1356,-873,-1263,458,1693,1381,1078
151,1654,1503,-902,-675,1578,-1122,-1888,204,1937,1678,1376
87,1625,1537,-856,-724,1581,-1273,-2303,-165,1922,1805,1546
97,1044,946,-570,-424,995,-1215,-2122,-512,1405,1576,1420
117,273,156,-195,-19,214,-941,-1483,-629,771,1093,1034
43,4,-39,-24,41,-17,-629,-1019,-600,248,644,702
-19,-92,-73,56,26,-82,-351,-673,-527,-170,175,317
-48,-78,-29,63,-9,-53,-185,-434,-375,-170,24,131
-48,-48,0,48,-24,-24,-78,-229,-190,-82,9,68
-43,-24,19,34,-31,-2,-39,-112,-92,-34,4,39
-24,-29,-4,26,-9,-17,-19,-58,-73,-24,-4,14
-19,-39,-19,29,0,-29,14,-14,-78,-34,-14,-4
-24,-63,-39,43,7,-51,53,14,-63,-58,-34,-19
-24,-87,-63,56,19,-75,53,29,-53,-87,-63,-48
-24,-97,-73,61,24,-85,53,29,-53,-92,-78,-68
-24,-97,-73,61,24,-85,53,34,-53,-97,-82,-82
-29,-107,-78,68,24,-92,68,48,-53,-107,-87,-82
-34,-112,-78,73,21,-95,78,58,-43,-107,-97,-92
-34,-112,-78,73,21,-95,78,63,-43,-112,-102,-97
-34,-112,-78,73,21,-95,78,68,-39,-112,-107,-97
-34,-112,-78,73,21,-95,78,73,-34,-112,-107,-97
-34,-112,-78,73,21,-95,82,78,-34,-112,-112,-102
-34,-112,-78,73,21,-95,82,78,-29,-112,-112,-102
-34,-117,-82,75,24,-100,82,78,-29,-117,-117,-107
-34,-117,-82,75,24,-100,87,82,-24,-117,-117,-107
-34,-117,-82,75,24,-100,87,82,-24,-122,-117,-112
-29,-117,-87,73,29,-102,87,87,-24,-122,-117,-112
-29,-117,-87,73,29,-102,87,92,-24,-122,-122,-112
-29,-122,-92,75,31,-107,87,92,-24,-122,-122,-112
-29,-122,-92,75,31,-107,87,92,-19,-122,-122,-112
-29,-122,-92,75,31,-107,87,92,-19,-122,-126,-117
-29,-122,-92,75,31,-107,92,92,-19,-122,-126,-117
-34,-122,-87,78,26,-104,92,97,-14,-126,-126,-117
-39,-126,-87,82,24,-107,92,97,-14,-131,-131,-117
-39,-126,-87,82,24,-107,92,97,-14,-136,-131,-117
-39,-126,-87,82,24,-107,92,102,-14,-136,-131,-122
-39,-126,-87,82,24,-107,92,102,-14,-136,-136,-126
-39,-126,-87,82,24,-107,92,102,-14,-136,-136,-126
-39,-126,-87,82,24,-107,92,107,-9,-136,-136,-126
-39,-126,-87,82,24,-107,92,107,-9,-141,-141,-126
-34,-126,-92,80,29,-109,92,107,-9,-136,-141,-126
-34,-126,-92,80,29,-109,92,117,-9,-131,-141,-131
-34,-126,-92,80,29,-109,92,117,-9,-131,-146,-131
-34,-131,-97,82,31,-114,92,117,-4,-136,-146,-131
-34,-131,-97,82,31,-114,92,122,-4,-136,-151,-136
-34,-131,-97,82,31,-114,87,122,-4,-131,-151,-136
-34,-131,-97,82,31,-114,87,122,0,-131,-146,-141
-29,-126,-97,78,34,-112,87,126,0,-131,-146,-146
-34,-126,-92,80,29,-109,87,131,0,-131,-151,-146
-39,-126,-87,82,24,-107,87,136,0,-131,-151,-146
-39,-126,-87,82,24,-107,87,141,4,-136,-146,-146
-39,-126,-87,82,24,-107,87,141,4,-136,-146,-146
-34,-122,-87,78,26,-104,87,141,4,-131,-146,-146
-29,-122,-92,75,31,-107,87,141,4,-131,-146,-146
-29,-117,-87,73,29,-102,92,146,9,-117,-136,-141
-29,-117,-87,73,29,-102,92,151,14,-112,-136,-131
-29,-112,-82,70,26,-97,92,151,14,-112,-136,-131
-24,-107,-82,65,29,-95,92,161,19,-102,-131,-131
-24,-107,-82,65,29,-95,97,165,19,-102,-131,-126
-24,-102,-78,63,26,-90,97,170,24,-97,-126,-117
-24,-92,-68,58,21,-80,97,180,24,-92,-117,-117
-19,-87,-68,53,24,-78,97,180,29,-92,-117,-117
-19,-78,-58,48,19,-68,97,185,39,-82,-107,-112
-14,-68,-53,41,19,-61,97,200,43,-78,-102,-102
-14,-63,-48,39,17,-56,97,204,48,-73,-92,-102
-9,-58,-48,34,19,-53,97,209,53,-68,-82,-87
-9,-48,-39,29,14,-43,97,219,53,-58,-73,-82
-4,-39,-34,21,14,-36,97,229,58,-53,-63,-73
-4,-29,-24,17,9,-26,92,234,63,-43,-58,-63
-4,-19,-14,12,4,-17,92,239,63,-39,-43,-48
0,-9,-9,4,4,-9,87,239,63,-29,-24,-39
4,0,-4,-2,4,-2,78,239,68,-19,-14,-29
4,9,4,-7,0,7,78,239,68,-9,-4,-24
9,19,9,-14,0,14,73,239,73,0,9,-14
19,34,14,-26,2,24,68,244,78,4,19,0
29,43,14,-36,7,29,63,244,82,14,34,9
29,53,24,-41,2,39,58,244,82,24,48,19
29,58,29,-43,0,43,58,244,82,34,68,29
34,68,34,-51,0,51,48,244,82,48,82,43
34,78,43,-56,-4,61,48,244,78,58,92,53
39,87,48,-63,-4,68,39,244,82,68,102,73
39,97,58,-68,-9,78,39,244,82,78,117,78
43,107,63,-75,-9,85,29,239,82,87,131,87
48,117,68,-82,-9,92,24,239,82,92,141,102
53,131,78,-92,-12,104,24,239,87,102,156,117
53,136,82,-95,-14,109,24,244,92,117,170,126
53,151,97,-102,-21,124,19,234,92,126,185,146
48,156,107,-102,-29,131,4,229,97,131,195,151
48,165,117,-107,-34,141,0,214,92,131,204,165
48,165,117,-107,-34,141,-4,200,92,141,214,175
48,170,122,-109,-36,146,-4,180,92,146,209,175
48,170,122,-109,-36,146,-9,165,92,146,209,175
43,170,126,-107,-41,148,-14,151,92,146,209,175
39,170,131,-104,-46,151,-14,146,92,151,204,175
39,175,136,-107,-48,156,-24,131,87,151,200,170
34,165,131,-100,-48,148,-29,117,87,146,190,161
34,161,126,-97,-46,143,-29,102,87,131,175,151
29,151,122,-90,-46,136,-29,92,87,122,156,146
24,141,117,-82,-46,129,-24,82,82,122,151,131
19,136,117,-78,-48,126,-24,73,82,117,141,126
14,126,112,-70,-48,119,-19,63,78,112,136,117
9,117,107,-63,-48,112,-19,58,78,102,122,112
4,112,107,-58,-51,109,-14,58,78,97,112,102
4,102,97,-53,-46,100,-14,63,68,92,102,92
0,87,87,-43,-43,87,-9,48,63,87,87,78
0,78,78,-39,-39,78,-9,48,63,78,78,73
-4,68,73,-31,-39,70,-4,39,58,68,63,63
-9,58,68,-24,-39,63,-4,19,53,58,58,53
-9,48,58,-19,-34,53,-4,19,48,48,48,48
-9,43,53,-17,-31,48,4,14,39,39,34,39
-14,24,39,-4,-26,31,4,14,34,34,24,29
-14,19,34,-2,-24,26,4,19,29,29,24,24
-14,9,24,2,-19,17,9,19,29,19,14,14
-14,4,19,4,-17,12,9,14,34,14,9,9
-14,4,19,4,-17,12,9,14,34,9,0,0
-14,0,14,7,-14,7,9,19,29,9,0,-4
-19,-4,14,12,-17,4,14,19,29,9,0,-9
-19,-9,9,14,-14,0,19,24,29,0,-4,-9
-19,-9,9,14,-14,0,19,24,29,0,-9,-14
-19,-19,0,19,-9,-9,24,24,29,0,-14,-14
-19,-19,0,19,-9,-9,24,24,24,-4,-14,-19
-19,-24,-4,21,-7,-14,24,24,24,-4,-14,-19
-24,-24,0,24,-12,-12,29,29,24,-4,-19,-24
-24,-24,0,24,-12,-12,34,29,19,-9,-19,-24
-19,-29,-9,24,-4,-19,34,29,19,-9,-19,-24
-19,-39,-19,29,0,-29,34,29,19,-9,-19,-24
-19,-29,-9,24,-4,-19,39,34,19,-9,-19,-24
-19,-24,-4,21,-7,-14,39,34,19,-14,-24,-24
-19,-24,-4,21,-7,-14,39,34,19,-14,-24,-29
-19,-24,-4,21,-7,-14,39,34,19,-14,-24,-29
-19,-19,0,19,-9,-9,39,34,19,-14,-19,-29
-19,-19,0,19,-9,-9,34,34,19,-14,-19,-24
-19,-19,0,19,-9,-9,29,29,14,-14,-19,-24
-19,-24,-4,21,-7,-14,24,24,14,-14,-19,-24
-19,-29,-9,24,-4,-19,24,24,14,-14,-24,-29
-19,-29,-9,24,-4,-19,24,24,9,-19,-24,-29
-19,-29,-9,24,-4,-19,24,19,9,-19,-24,-29
-24,-34,-9,29,-7,-21,24,19,9,-19,-24,-29
-24,-34,-9,29,-7,-21,24,9,4,-24,-24,-29
-19,-34,-14,26,-2,-24,24,9,0,-24,-29,-29
-19,-34,-14,26,-2,-24,24,9,0,-24,-29,-24
-19,-39,-19,29,0,-29,24,9,0,-24,-29,-24
-19,-34,-14,26,-2,-24,19,4,-4,-24,-34,-29
-19,-34,-14,26,-2,-24,19,0,-9,-39,-34,-29
-19,-34,-14,26,-2,-24,19,0,-14,-39,-34,-29
-24,-34,-9,29,-7,-21,19,-4,-14,-39,-34,-34
-24,-39,-14,31,-4,-26,19,-4,-19,-39,-39,-34
-29,-43,-14,36,-7,-29,19,-9,-24,-39,-39,-34
-29,-48,-19,39,-4,-34,19,-14,-34,-48,-39,-34
-29,-53,-24,41,-2,-39,19,-14,-34,-48,-43,-34
-24,-53,-29,39,2,-41,19,-14,-34,-48,-43,-39
-24,-53,-29,39,2,-41,19,-14,-34,-48,-43,-39
-24,-58,-34,41,4,-46,14,-19,-34,-48,-48,-39
-24,-63,-39,43,7,-51,14,-19,-43,-53,-48,-39
-24,-63,-39,43,7,-51,14,-24,-43,-53,-48,-39
-24,-63,-39,43,7,-51,14,-29,-43,-58,-48,-43
-24,-63,-39,43,7,-51,14,-29,-43,-63,-48,-43
-24,-58,-34,41,4,-46,14,-34,-43,-63,-53,-43
-24,-63,-39,43,7,-51,14,-34,-43,-68,-58,-43
-24,-63,-39,43,7,-51,14,-34,-48,-68,-58,-43
-24,-63,-39,43,7,-51,14,-34,-48,-68,-58,-43
-29,-63,-34,46,2,-48,14,-34,-48,-68,-58,-43
-29,-63,-34,46,2,-48,14,-34,-48,-68,-58,-48
-29,-63,-34,46,2,-48,14,-39,-53,-73,-58,-48
-29,-68,-39,48,4,-53,14,-39,-53,-78,-63,-48
-29,-68,-39,48,4,-53,14,-43,-53,-78,-68,-48
-29,-68,-39,48,4,-53,9,-43,-53,-78,-68,-48
-29,-68,-39,48,4,-53,9,-43,-63,-78,-68,-48
-24,-68,-43,46,9,-56,9,-43,-63,-78,-68,-48
-24,-68,-43,46,9,-56,9,-43,-63,-78,-68,-48
-24,-68,-43,46,9,-56,9,-43,-58,-82,-68,-53
-24,-68,-43,46,9,-56,9,-43,-58,-82,-68,-53
-29,-73,-43,51,7,-58,9,-43,-58,-82,-68,-53
-29,-73,-43,51,7,-58,9,-48,-58,-82,-68,-53
-29,-73,-43,51,7,-58,9,-48,-58,-82,-68,-53
-29,-73,-43,51,7,-58,9,-48,-63,-87,-73,-53
-29,-78,-48,53,9,-63,4,-48,-68,-87,-73,-48
-29,-78,-48,53,9,-63,4,-48,-73,-87,-73,-48
-29,-78,-48,53,9,-63,9,-53,-73,-87,-73,-48
-29,-78,-48,53,9,-63,9,-53,-73,-87,-73,-48
-29,-78,-48,53,9,-63,4,-48,-68,-82,-68,-53
-29,-78,-48,53,9,-63,4,-48,-68,-82,-68,-58
-24,-78,-53,51,14,-65,0,-48,-68,-82,-68,-58
-19,-78,-58,48,19,-68,0,-48,-68,-87,-68,-58
-19,-78,-58,48,19,-68,0,-48,-68,-87,-73,-58
-19,-78,-58,48,19,-68,0,-48,-68,-87,-78,-58
-19,-78,-58,48,19,-68,4,-48,-68,-87,-78,-58
-19,-78,-58,48,19,-68,9,-48,-68,-87,-78,-58
-19,-82,-63,51,21,-73,9,-48,-68,-87,-78,-58
-19,-87,-68,53,24,-78,9,-48,-68,-87,-78,-58
-24,-87,-63,56,19,-75,9,-48,-73,-87,-78,-58
-29,-87,-58,58,14,-73,9,-48,-78,-87,-78,-58
-29,-87,-58,58,14,-73,4,-48,-78,-87,-78,-58
-29,-87,-58,58,14,-73,0,-48,-78,-87,-78,-58
-29,-87,-58,58,14,-73,0,-48,-78,-87,-78,-58
-29,-87,-58,58,14,-73,0,-48,-78,-87,-78,-58
-29,-87,-58,58,14,-73,0,-48,-78,-87,-78,-58
-29,-87,-58,58,14,-73,0,-48,-78,-87,-78,-58
-29,-87,-58,58,14,-73,0,-53,-78,-87,-78,-58
-29,-87,-58,58,14,-73,0,-58,-78,-87,-78,-58
-24,-87,-63,56,19,-75,4,-58,-78,-92,-78,-58
-19,-87,-68,53,24,-78,9,-58,-78,-97,-78,-58
-19,-87,-68,53,24,-78,9,-53,-78,-97,-78,-58
-19,-87,-68,53,24,-78,9,-48,-78,-97,-78,-58
-24,-87,-63,56,19,-75,9,-48,-82,-92,-78,-58
-29,-87,-58,58,14,-73,9,-48,-87,-87,-78,-58
-29,-87,-58,58,14,-73,9,-48,-87,-87,-78,-58
-29,-87,-58,58,14,-73,9,-48,-87,-87,-78,-58
-29,-87,-58,58,14,-73,9,-48,-87,-87,-78,-58
-29,-87,-58,58,14,-73,9,-48,-87,-87,-78,-58
-29,-87,-58,58,14,-73,9,-48,-87,-87,-78,-58
-29,-87,-58,58,14,-73,9,-48,-87,-87,-78,-58
-19,-78,-58,48,19,-68,9,-48,-82,-87,-78,-58
-9,-68,-58,39,24,-63,9,-48,-78,-87,-78,-58
-9,-53,-43,31,17,-48,19,-43,-68,-82,-68,-53
-9,-39,-29,24,9,-34,29,-39,-58,-78,-58,-48
-9,-19,-9,14,0,-14,39,-24,-48,-68,-53,-39
-9,0,9,4,-9,4,48,-9,-39,-58,-48,-29
-9,14,24,-2,-17,19,53,0,-24,-48,-39,-24
-4,19,24,-7,-14,21,53,9,-14,-39,-34,-19
0,29,29,-14,-14,29,58,24,-4,-34,-29,-19
4,34,29,-19,-12,31,39,34,-4,-29,-24,-9
9,29,19,-19,-4,24,19,34,-9,-29,-19,-9
14,39,24,-26,-4,31,0,39,-9,-19,-9,4
14,68,53,-41,-19,61,-9,48,14,9,19,29
19,87,68,-53,-24,78,-24,48,24,19,29,39
24,97,73,-61,-24,85,-24,24,24,24,39,43
24,112,87,-68,-31,100,-24,9,19,24,43,48
14,112,97,-63,-41,104,-24,-24,4,19,43,48
9,87,78,-48,-34,82,-19,-39,-14,0,29,39
4,78,73,-41,-34,75,-9,-39,-14,-4,29,39
4,68,63,-36,-29,65,-9,-34,-19,-4,19,34
0,48,48,-24,-24,48,-9,-34,-29,-14,19,24
-9,24,34,-7,-21,29,-4,-34,-39,-24,4,14
-14,-9,4,12,-9,-2,4,-39,-58,-53,-29,-24
-24,-58,-34,41,4,-46,4,-53,-82,-78,-58,-48
-24,-73,-48,48,12,-61,0,-73,-92,-87,-68,-58
-24,-82,-58,53,17,-70,0,-73,-97,-97,-73,-58
-24,-87,-63,56,19,-75,0,-73,-97,-102,-78,-58
-24,-92,-68,58,21,-80,0,-73,-102,-107,-82,-68
-34,-102,-68,68,17,-85,0,-73,-112,-112,-87,-73
-39,-107,-68,73,14,-87,0,-73,-112,-112,-87,-73
-34,-107,-73,70,19,-90,4,-78,-112,-117,-92,-78
-34,-112,-78,73,21,-95,4,-78,-117,-117,-102,-78
-34,-117,-82,75,24,-100,4,-78,-117,-126,-102,-82
-34,-122,-87,78,26,-104,4,-73,-117,-131,-107,-82
-39,-122,-82,80,21,-102,9,-73,-117,-131,-107,-82
-39,-122,-82,80,21,-102,9,-73,-122,-131,-112,-87
-39,-122,-82,80,21,-102,9,-73,-122,-136,-112,-87
-39,-122,-82,80,21,-102,9,-73,-122,-136,-112,-87
-39,-122,-82,80,21,-102,9,-73,-122,-131,-112,-87
-39,-122,-82,80,21,-102,9,-73,-117,-126,-112,-87
-39,-122,-82,80,21,-102,9,-68,-117,-126,-107,-87
-39,-122,-82,80,21,-102,14,-63,-117,-126,-102,-87
-34,-122,-87,78,26,-104,14,-63,-117,-126,-102,-87
-29,-122,-92,75,31,-107,14,-58,-117,-126,-102,-87
-29,-117,-87,73,29,-102,14,-63,-117,-126,-102,-87
-29,-117,-87,73,29,-102,14,-68,-117,-126,-102,-87
-34,-112,-78,73,21,-95,9,-68,-117,-122,-102,-82
-34,-136,-102,85,34,-119,4,-63,-131,-146,-126,-102
-24,-190,-165,107,70,-178,19,-29,-151,-190,-175,-141
-24,-244,-219,134,97,-231,39,68,-141,-224,-229,-190
-19,-312,-292,165,136,-302,63,122,-136,-292,-307,-263
4,-317,-322,156,163,-319,73,195,-48,-263,-317,-283
73,-165,-239,46,156,-202,63,400,214,-4,-146,-190
151,195,43,-173,53,119,-43,424,531,453,204,43
200,732,531,-466,-165,631,-195,268,800,980,624,366
204,1146,941,-675,-368,1044,-429,-258,766,1356,985,683
195,1444,1249,-819,-527,1346,-814,-1141,502,1659,1337,1034
141,1664,1522,-902,-690,1593,-1083,-1810,263,1927,1649,1346
78,1688,1610,-883,-766,1649,-1273,-2313,-131,1966,1830,1561
87,1161,1073,-624,-492,1117,-1254,-2220,-502,1503,1654,1478
112,341,229,-226,-58,285,-980,-1566,-639,854,1171,1093
43,24,-19,-34,31,2,-668,-1088,-629,317,722,761
-19,-87,-68,53,24,-78,-380,-727,-570,-151,219,356
-48,-87,-39,68,-4,-63,-204,-473,-434,-200,34,151
-48,-53,-4,51,-21,-29,-92,-258,-239,-102,24,78
-43,-24,19,34,-31,-2,-48,-131,-131,-43,24,39
-29,-24,4,26,-17,-9,-29,-73,-107,-34,14,14
-29,-29,0,29,-14,-14,4,-24,-107,-43,4,-4
-34,-58,-24,46,-4,-41,48,4,-92,-63,-19,-19
-34,-87,-53,61,9,-70,53,19,-82,-87,-53,-48
-34,-97,-63,65,14,-80,53,24,-82,-92,-68,-63
-34,-97,-63,65,14,-80,53,34,-82,-97,-73,-73
-34,-107,-73,70,19,-90,68,48,-82,-107,-82,-73
-34,-112,-78,73,21,-95,78,58,-73,-107,-97,-82
-34,-112,-78,73,21,-95,78,63,-73,-117,-102,-92
-34,-112,-78,73,21,-95,78,68,-68,-122,-107,-97
-34,-112,-78,73,21,-95,78,73,-63,-122,-107,-97
-34,-112,-78,73,21,-95,82,78,-63,-122,-112,-102
-34,-112,-78,73,21,-95,82,78,-58,-122,-112,-102
-34,-117,-82,75,24,-100,82,78,-58,-126,-117,-107
-34,-117,-82,75,24,-100,87,82,-53,-126,-117,-102
-34,-117,-82,75,24,-100,87,82,-53,-131,-117,-102
-29,-112,-82,70,26,-97,87,87,-53,-131,-117,-102
-29,-107,-78,68,24,-92,87,92,-53,-131,-122,-102
-29,-112,-82,70,26,-97,87,92,-53,-131,-122,-107
-29,-112,-82,70,26,-97,87,92,-48,-131,-122,-112
-34,-117,-82,75,24,-100,87,92,-48,-131,-126,-117
-39,-122,-82,80,21,-102,92,92,-48,-131,-126,-117
-39,-122,-82,80,21,-102,92,97,-43,-131,-126,-117
-39,-126,-87,82,24,-107,92,97,-43,-131,-131,-117
-29,-126,-97,78,34,-112,92,92,-43,-141,-131,-117
-19,-126,-107,73,43,-117,92,92,-43,-146,-131,-122
-19,-126,-107,73,43,-117,92,92,-43,-146,-136,-126
-19,-126,-107,73,43,-117,92,92,-43,-146,-136,-126
-29,-126,-97,78,34,-112,92,97,-39,-141,-136,-126
-39,-126,-87,82,24,-107,92,97,-39,-141,-141,-126
-34,-126,-92,80,29,-109,92,97,-39,-141,-141,-126
-34,-126,-92,80,29,-109,92,107,-39,-141,-141,-131
-34,-122,-87,78,26,-104,92,107,-39,-141,-146,-131
-34,-122,-87,78,26,-104,92,107,-34,-146,-146,-131
-34,-122,-87,78,26,-104,92,112,-34,-146,-151,-136
-34,-122,-87,78,26,-104,87,112,-34,-141,-151,-136
-34,-122,-87,78,26,-104,87,112,-29,-141,-146,-136
-29,-117,-87,73,29,-102,87,117,-29,-141,-146,-136
-24,-117,-92,70,34,-104,87,122,-29,-141,-151,-136
-19,-117,-97,68,39,-107,87,126,-29,-141,-151,-136
-19,-117,-97,68,39,-107,87,131,-24,-141,-146,-136
-19,-117,-97,68,39,-107,87,131,-24,-136,-146,-136
-19,-112,-92,65,36,-102,87,136,-24,-126,-146,-136
-19,-112,-92,65,36,-102,87,141,-24,-122,-146,-136
-19,-107,-87,63,34,-97,92,146,-19,-112,-131,-136
-19,-107,-87,63,34,-97,92,151,-14,-112,-126,-131
-19,-107,-87,63,34,-97,92,151,-14,-112,-126,-131
-14,-107,-92,61,39,-100,92,161,-9,-102,-122,-131
-14,-107,-92,61,39,-100,92,165,-9,-107,-122,-126
-14,-102,-87,58,36,-95,87,170,-4,-107,-117,-117
-14,-92,-78,53,31,-85,87,180,-4,-97,-112,-117
-9,-87,-78,48,34,-82,87,180,0,-92,-117,-117
-9,-78,-68,43,29,-73,87,185,4,-78,-107,-112
-4,-68,-63,36,29,-65,87,200,4,-68,-102,-102
0,-63,-63,31,31,-63,87,204,9,-63,-92,-102
9,-58,-68,24,39,-63,87,209,14,-58,-82,-87
9,-48,-58,19,34,-53,87,214,14,-48,-73,-82
14,-39,-53,12,34,-46,87,219,19,-43,-63,-73
9,-24,-34,7,21,-29,82,224,29,-34,-58,-68
4,-9,-14,2,9,-12,82,229,34,-29,-43,-58
9,0,-9,-4,9,-4,82,234,34,-19,-24,-48
14,9,-4,-12,9,2,78,239,39,-9,-14,-39
14,19,4,-17,4,12,78,239,39,-4,-4,-29
19,29,9,-24,4,19,73,239,43,0,9,-14
24,43,19,-34,2,31,68,244,43,4,19,0
29,53,24,-41,2,39,63,244,43,14,34,9
29,63,34,-46,-2,48,58,239,43,24,43,19
29,68,39,-48,-4,53,58,234,43,34,58,29
34,78,43,-56,-4,61,48,234,48,48,73,43
34,87,53,-61,-9,70,48,234,48,58,82,53
39,97,58,-68,-9,78,43,239,53,68,92,73
39,107,68,-73,-14,87,48,244,53,78,107,78
43,117,73,-80,-14,95,39,239,53,87,122,87
48,126,78,-87,-14,102,34,239,53,92,131,102
53,141,87,-97,-17,114,24,234,53,102,141,117
53,146,92,-100,-19,119,14,234,53,117,151,126
58,161,102,-109,-21,131,9,224,53,126,165,146
58,165,107,-112,-24,136,-4,219,58,131,175,151
58,175,117,-117,-29,146,-9,209,58,131,190,165
58,175,117,-117,-29,146,-14,200,63,141,204,175
58,185,126,-122,-34,156,-14,180,63,146,204,175
58,190,131,-124,-36,161,-19,165,63,146,209,175
53,190,136,-122,-41,163,-24,151,63,146,209,175
48,190,141,-119,-46,165,-24,146,63,151,204,175
48,190,141,-119,-46,165,-29,131,58,151,200,170
43,175,131,-109,-43,153,-29,117,58,146,190,161
43,170,126,-107,-41,148,-29,102,63,141,180,151
39,161,122,-100,-41,141,-29,92,68,141,165,146
34,151,117,-92,-41,134,-24,82,63,141,161,136
29,146,117,-87,-43,131,-24,73,63,136,151,136
24,136,112,-80,-43,124,-19,63,58,126,141,122
19,126,107,-73,-43,117,-19,58,58,112,122,112
14,122,107,-68,-46,114,-14,53,58,107,112,102
14,112,97,-63,-41,104,-14,53,48,102,102,92
9,97,87,-53,-39,92,-9,39,43,97,87,78
9,87,78,-48,-34,82,-9,39,43,87,78,73
4,78,73,-41,-34,75,-4,39,39,78,63,63
0,68,68,-34,-34,68,-4,29,34,68,58,53
0,53,53,-26,-26,53,-9,29,34,53,48,43
0,43,43,-21,-21,43,-4,24,29,39,34,29
-9,29,39,-9,-24,34,-4,19,24,34,24,19
-14,29,43,-7,-29,36,-4,19,19,29,24,14
-14,19,34,-2,-24,26,4,19,14,19,14,4
-14,14,29,0,-21,21,9,14,14,14,9,0
-9,14,24,-2,-17,19,9,14,14,9,-4,-4
-4,9,14,-2,-9,12,9,19,9,9,-9,-4
-9,4,14,2,-12,9,14,19,9,9,-9,-9
-9,0,9,4,-9,4,19,24,9,0,-14,-9
-14,0,14,7,-14,7,19,24,9,0,-19,-14
-19,-9,9,14,-14,0,24,24,9,0,-24,-14
-19,-9,9,14,-14,0,24,24,9,-4,-24,-24
-19,-14,4,17,-12,-4,24,24,14,-4,-24,-29
-24,-14,9,19,-17,-2,24,29,14,-4,-29,-34
-24,-14,9,19,-17,-2,24,29,9,-9,-29,-34
-19,-9,9,14,-14,0,24,29,9,-9,-29,-29
-19,-9,9,14,-14,0,24,29,9,-9,-29,-24
-14,-9,4,12,-9,-2,29,34,9,-9,-29,-24
-9,-14,-4,12,-2,-9,29,34,9,-14,-34,-24
-9,-14,-4,12,-2,-9,29,34,9,-14,-34,-29
-9,-14,-4,12,-2,-9,29,34,9,-14,-34,-29
-14,-14,0,14,-7,-7,29,34,9,-14,-29,-29
-19,-19,0,19,-9,-9,24,34,9,-14,-29,-24
-19,-19,0,19,-9,-9,24,29,4,-14,-29,-24
-19,-24,-4,21,-7,-14,24,24,4,-14,-29,-24
-19,-24,-4,21,-7,-14,24,24,9,-14,-29,-29
-19,-19,0,19,-9,-9,24,24,9,-19,-24,-29
-19,-19,0,19,-9,-9,24,24,9,-14,-24,-29
-24,-24,0,24,-12,-12,24,29,9,-9,-24,-29
-24,-24,0,24,-12,-12,24,19,9,-14,-24,-29
-19,-24,-4,21,-7,-14,24,19,9,-14,-29,-29
-19,-24,-4,21,-7,-14,24,19,9,-14,-34,-24
-19,-29,-9,24,-4,-19,24,19,9,-14,-39,-24
-14,-29,-14,21,0,-21,19,9,9,-19,-43,-29
-9,-34,-24,21,7,-29,19,0,9,-39,-43,-29
-9,-34,-24,21,7,-29,19,0,4,-39,-43,-29
-14,-34,-19,24,2,-26,19,-4,4,-39,-43,-34
-14,-39,-24,26,4,-31,19,-4,4,-39,-48,-34
-19,-43,-24,31,2,-34,19,-9,4,-39,-48,-34
-19,-43,-24,31,2,-34,19,-14,-4,-48,-48,-34
-19,-43,-24,31,2,-34,19,-14,-4,-48,-53,-34
-14,-43,-29,29,7,-36,19,-14,-4,-48,-53,-39
-14,-43,-29,29,7,-36,19,-14,-4,-48,-53,-39
-14,-48,-34,31,9,-41,14,-19,-4,-48,-58,-39
-14,-53,-39,34,12,-46,14,-19,-14,-53,-58,-39
-14,-53,-39,34,12,-46,14,-24,-14,-53,-58,-39
-14,-53,-39,34,12,-46,14,-29,-14,-58,-58,-43
-14,-58,-43,36,14,-51,14,-29,-9,-58,-53,-43
-14,-58,-43,36,14,-51,14,-34,-4,-53,-53,-43
-14,-63,-48,39,17,-56,14,-34,-4,-58,-58,-43
-14,-63,-48,39,17,-56,14,-34,-9,-58,-58,-43
-14,-63,-48,39,17,-56,14,-34,-9,-63,-63,-43
-19,-63,-43,41,12,-53,14,-34,-9,-68,-68,-43
-19,-63,-43,41,12,-53,14,-34,-9,-68,-68,-48
-19,-63,-43,41,12,-53,14,-39,-14,-73,-68,-48
-19,-68,-48,43,14,-58,14,-39,-14,-78,-68,-48
-19,-68,-48,43,14,-58,14,-43,-14,-78,-68,-48
-19,-68,-48,43,14,-58,4,-43,-9,-78,-68,-48
-19,-68,-48,43,14,-58,0,-43,-14,-78,-68,-48
-19,-68,-48,43,14,-58,0,-43,-14,-78,-73,-48
-24,-68,-43,46,9,-56,0,-43,-14,-78,-78,-48
-24,-68,-43,46,9,-56,4,-43,-9,-82,-78,-53
-24,-68,-43,46,9,-56,9,-43,-9,-82,-78,-53
-29,-73,-43,51,7,-58,9,-43,-9,-82,-78,-53
-29,-73,-43,51,7,-58,9,-48,-9,-82,-78,-53
-29,-73,-43,51,7,-58,9,-48,-4,-82,-73,-53
-29,-73,-43,51,7,-58,9,-48,-4,-87,-73,-53
-29,-78,-48,53,9,-63,4,-48,-4,-87,-73,-53
-29,-78,-48,53,9,-63,4,-48,-4,-87,-73,-58
-29,-78,-48,53,9,-63,9,-53,-4,-87,-78,-58
-29,-78,-48,53,9,-63,9,-53,-4,-87,-82,-58
-24,-73,-48,48,12,-61,4,-48,-4,-87,-82,-63
-19,-68,-48,43,14,-58,4,-48,-9,-92,-87,-68
-14,-73,-58,43,21,-65,0,-48,-9,-87,-87,-63
-9,-78,-68,43,29,-73,0,-48,-9,-87,-87,-58
-14,-78,-63,46,24,-70,0,-48,-9,-87,-87,-58
-19,-78,-58,48,19,-68,0,-48,-9,-87,-87,-58
-19,-78,-58,48,19,-68,0,-48,-9,-82,-82,-58
-19,-78,-58,48,19,-68,0,-48,-9,-78,-78,-58
-19,-78,-58,48,19,-68,0,-48,-14,-78,-78,-58
-19,-78,-58,48,19,-68,0,-48,-19,-78,-78,-58
-19,-78,-58,48,19,-68,0,-48,-19,-78,-78,-58
-19,-78,-58,48,19,-68,0,-48,-19,-78,-78,-58
-19,-78,-58,48,19,-68,0,-48,-14,-78,-78,-58
-19,-78,-58,48,19,-68,0,-48,-9,-78,-78,-58
-19,-78,-58,48,19,-68,0,-48,-9,-82,-78,-58
-19,-78,-58,48,19,-68,0,-48,-9,-87,-78,-58
-19,-78,-58,48,19,-68,0,-53,-14,-87,-82,-63
-19,-78,-58,48,19,-68,0,-58,-19,-87,-87,-68
-19,-78,-58,48,19,-68,0,-58,-19,-87,-87,-68
-19,-78,-58,48,19,-68,0,-58,-19,-87,-87,-68
-19,-78,-58,48,19,-68,0,-58,-14,-87,-82,-63
-19,-78,-58,48,19,-68,0,-58,-9,-87,-78,-58
-19,-78,-58,48,19,-68,0,-58,-9,-87,-78,-58
-19,-78,-58,48,19,-68,0,-58,-9,-87,-78,-58
-19,-78,-58,48,19,-68,4,-58,-9,-87,-78,-58
-19,-78,-58,48,19,-68,9,-58,-9,-87,-78,-58
-19,-78,-58,48,19,-68,9,-53,-9,-92,-78,-63
-19,-78,-58,48,19,-68,9,-48,-9,-97,-78,-68
-19,-68,-48,43,14,-58,9,-48,-9,-97,-78,-68
-19,-58,-39,39,9,-48,9,-48,-9,-97,-78,-68
-19,-53,-34,36,7,-43,24,-39,4,-82,-73,-58
-19,-48,-29,34,4,-39,39,-29,19,-68,-68,-48
-9,-29,-19,19,4,-24,43,-14,29,-53,-53,-39
0,-9,-9,4,4,-9,48,0,39,-39,-39,-29
0,4,4,-2,-2,4,53,4,48,-34,-34,-24
0,9,9,-4,-4,9,53,14,53,-29,-29,-19
4,19,14,-12,-4,17,58,24,63,-24,-29,-19
4,24,19,-14,-7,21,39,34,63,-19,-24,-9
9,29,19,-19,-4,24,24,34,68,-19,-14,-4
14,48,34,-31,-9,41,9,39,78,-9,0,14
19,78,58,-48,-19,68,0,48,102,19,29,39
29,97,68,-63,-19,82,-14,48,112,29,39,48
34,107,73,-70,-19,90,-19,24,112,34,43,48
34,122,87,-78,-26,104,-24,9,107,34,43,48
19,122,102,-70,-41,112,-24,-19,92,29,43,48
9,97,87,-53,-39,92,-19,-29,73,9,29,39
4,87,82,-46,-39,85,-9,-29,68,4,29,39
4,78,73,-41,-34,75,-9,-24,58,4,19,34
4,53,48,-29,-21,51,-9,-24,48,-4,19,24
0,24,24,-12,-12,24,-4,-24,39,-14,4,14
-4,-9,-4,7,0,-7,4,-29,24,-39,-29,-24
-14,-58,-43,36,14,-51,4,-43,4,-58,-58,-48
-14,-73,-58,43,21,-65,0,-63,-4,-68,-68,-58
-14,-82,-68,48,26,-75,0,-63,-9,-78,-73,-58
-14,-87,-73,51,29,-80,0,-63,-9,-92,-82,-58
-14,-92,-78,53,31,-85,0,-63,-14,-107,-92,-68
-19,-102,-82,61,31,-92,0,-63,-24,-112,-97,-73
-19,-107,-87,63,34,-97,0,-63,-24,-112,-97,-73
-14,-107,-92,61,39,-100,4,-68,-24,-112,-97,-78
-14,-112,-97,63,41,-104,4,-68,-29,-107,-102,-78
-14,-117,-102,65,43,-109,4,-73,-29,-112,-102,-82
-14,-122,-107,68,46,-114,4,-73,-29,-112,-107,-82
-19,-122,-102,70,41,-112,9,-73,-29,-112,-107,-82
-19,-122,-102,70,41,-112,9,-73,-34,-112,-112,-87
-19,-122,-102,70,41,-112,9,-68,-34,-117,-112,-87
-19,-122,-102,70,41,-112,9,-63,-34,-117,-112,-87
-19,-122,-102,70,41,-112,9,-63,-34,-117,-107,-82
-19,-122,-102,70,41,-112,9,-63,-29,-117,-102,-78
-19,-122,-102,70,41,-112,9,-63,-24,-117,-102,-78
-19,-122,-102,70,41,-112,14,-63,-19,-117,-102,-78
-19,-122,-102,70,41,-112,14,-63,-19,-122,-107,-78
-19,-122,-102,70,41,-112,14,-58,-19,-126,-112,-78
-24,-117,-92,70,34,-104,14,-63,-19,-126,-112,-78
-29,-117,-87,73,29,-102,14,-68,-19,-126,-112,-78
-29,-117,-87,73,29,-102,14,-63,-19,-122,-112,-78
-24,-146,-122,85,48,-134,14,-53,-34,-146,-136,-102
-14,-204,-190,109,87,-197,29,-24,-53,-190,-185,-141
-14,-263,-248,139,117,-256,48,68,-43,-224,-239,-190
-9,-326,-317,168,153,-322,63,122,-29,-283,-307,-258
14,-326,-341,156,178,-334,63,195,68,-244,-307,-273
82,-161,-244,39,163,-202,53,395,336,29,-136,-190
161,214,53,-187,53,134,-53,414,658,502,214,34
200,751,551,-475,-175,651,-200,273,946,1054,634,356
195,1166,971,-680,-387,1068,-429,-239,932,1454,995,673
185,1488,1302,-836,-558,1395,-805,-1102,649,1766,1342,1019
131,1732,1600,-932,-734,1666,-1063,-1751,390,2044,1649,1327
68,1737,1668,-902,-800,1703,-1239,-2254,-24,2069,1830,1546
78,1190,1112,-634,-517,1151,-1205,-2161,-414,1590,1654,1468
107,351,244,-229,-68,297,-946,-1517,-556,888,1156,1073
43,14,-29,-29,36,-7,-649,-1049,-551,297,692,732
-14,-92,-78,53,31,-85,-366,-692,-488,-151,195,326
-39,-87,-48,63,4,-68,-195,-444,-346,-180,14,122
-39,-53,-14,46,-12,-34,-82,-244,-141,-92,4,58
-34,-24,9,29,-21,-7,-39,-131,-24,-43,4,29
-19,-24,-4,21,-7,-14,-19,-73,4,-29,-4,9
-19,-29,-9,24,-4,-19,14,-24,9,-34,-14,-4
-24,-53,-29,39,2,-41,53,4,24,-58,-34,-19
-24,-78,-53,51,14,-65,53,19,34,-87,-63,-48
-24,-92,-68,58,21,-80,53,19,34,-92,-78,-63
-24,-97,-73,61,24,-85,53,24,34,-97,-82,-73
-24,-107,-82,65,29,-95,68,39,34,-107,-92,-73
-24,-112,-87,68,31,-100,78,48,43,-107,-107,-82
-24,-112,-87,68,31,-100,73,53,43,-112,-107,-92
-24,-112,-87,68,31,-100,68,58,48,-112,-107,-97
-24,-112,-87,68,31,-100,68,63,53,-117,-112,-97
-24,-112,-87,68,31,-100,73,68,53,-122,-122,-102
-24,-112,-87,68,31,-100,73,68,58,-122,-122,-102
-24,-117,-92,70,34,-104,73,68,58,-126,-126,-107
-24,-117,-92,70,34,-104,78,73,63,-122,-126,-107
-24,-117,-92,70,34,-104,78,73,63,-122,-126,-112
-24,-117,-92,70,34,-104,82,78,68,-122,-126,-112
-29,-117,-87,73,29,-102,87,82,73,-122,-131,-112
-29,-122,-92,75,31,-107,87,82,73,-122,-126,-112
-29,-122,-92,75,31,-107,87,82,78,-122,-122,-112
-29,-122,-92,75,31,-107,82,82,73,-122,-126,-117
-29,-122,-92,75,31,-107,82,82,68,-122,-126,-117
-29,-122,-92,75,31,-107,82,87,73,-131,-131,-117
-29,-126,-97,78,34,-112,82,87,73,-141,-141,-117
-29,-126,-97,78,34,-112,82,87,73,-146,-141,-117
-29,-126,-97,78,34,-112,82,92,73,-146,-141,-122
-29,-126,-97,78,34,-112,82,92,73,-141,-146,-126
-29,-126,-97,78,34,-112,82,92,73,-136,-146,-126
-29,-126,-97,78,34,-112,82,97,78,-136,-146,-126
-29,-126,-97,78,34,-112,82,97,78,-141,-151,-126
-24,-131,-107,78,41,-119,82,97,78,-141,-151,-126
-24,-136,-112,80,43,-124,82,107,78,-141,-151,-131
-24,-136,-112,80,43,-124,82,107,78,-141,-156,-131
-24,-141,-117,82,46,-129,82,107,82,-146,-156,-131
-24,-141,-117,82,46,-129,87,112,82,-146,-161,-136
-24,-141,-117,82,46,-129,87,112,82,-141,-161,-136
-24,-141,-117,82,46,-129,87,112,87,-136,-156,-131
-19,-136,-117,78,48,-126,87,117,87,-131,-156,-126
-19,-131,-112,75,46,-122,82,122,87,-131,-156,-126
-19,-126,-107,73,43,-117,78,126,87,-131,-151,-126
-19,-126,-107,73,43,-117,78,131,92,-136,-146,-126
-19,-126,-107,73,43,-117,78,131,92,-136,-146,-126
-19,-122,-102,70,41,-112,78,136,92,-131,-146,-126
-19,-122,-102,70,41,-112,78,141,92,-131,-146,-126
-19,-117,-97,68,39,-107,82,156,97,-122,-136,-126
-19,-117,-97,68,39,-107,82,170,102,-122,-136,-122
-19,-112,-92,65,36,-102,82,161,97,-122,-141,-122
-14,-107,-92,61,39,-100,82,161,97,-112,-141,-122
-14,-107,-92,61,39,-100,82,165,97,-112,-141,-117
-14,-102,-87,58,36,-95,78,170,102,-107,-136,-107
-14,-92,-78,53,31,-85,78,180,102,-92,-122,-107
-9,-87,-78,48,34,-82,78,180,107,-82,-117,-107
-9,-78,-68,43,29,-73,78,185,112,-73,-107,-102
-4,-68,-63,36,29,-65,78,200,112,-68,-102,-92
-4,-63,-58,34,26,-61,78,204,112,-68,-97,-92
0,-58,-58,29,29,-58,78,209,112,-68,-92,-78
0,-53,-53,26,26,-53,78,214,112,-58,-82,-73
4,-48,-53,21,29,-51,78,219,117,-53,-73,-63
4,-39,-43,17,24,-41,73,224,122,-43,-63,-58
4,-29,-34,12,19,-31,73,229,122,-39,-43,-48
9,-19,-29,4,19,-24,73,234,117,-29,-24,-43
14,-9,-24,-2,19,-17,68,239,117,-19,-14,-39
14,0,-14,-7,14,-7,68,239,117,-14,-4,-29
19,9,-9,-14,14,0,63,239,122,-9,9,-14
24,24,0,-24,12,12,58,248,122,-4,19,0
29,34,4,-31,12,19,53,253,122,4,34,9
29,43,14,-36,7,29,48,253,122,19,43,24
29,48,19,-39,4,34,48,253,122,34,58,39
34,58,24,-46,4,41,39,253,122,43,73,53
34,68,34,-51,0,51,39,253,117,48,82,63
39,78,39,-58,0,58,24,253,117,58,92,82
39,87,48,-63,-4,68,19,253,112,68,107,87
39,97,58,-68,-9,78,9,244,112,78,122,97
39,107,68,-73,-14,87,4,239,112,82,131,112
43,126,82,-85,-19,104,0,234,112,92,146,126
43,136,92,-90,-24,114,-4,234,112,107,161,136
58,151,92,-104,-17,122,-4,224,112,122,175,156
68,156,87,-112,-9,122,-14,219,117,131,185,161
58,165,107,-112,-24,136,-19,214,117,136,195,175
48,165,117,-107,-34,141,-24,209,122,151,204,185
48,175,126,-112,-39,151,-24,190,122,156,204,185
48,180,131,-114,-41,156,-29,175,122,156,209,185
43,180,136,-112,-46,158,-29,161,122,156,209,185
39,180,141,-109,-51,161,-24,156,122,161,204,185
39,180,141,-109,-51,161,-29,141,117,161,200,180
34,165,131,-100,-48,148,-29,126,117,156,190,170
34,161,126,-97,-46,143,-29,112,117,146,180,156
29,151,122,-90,-46,136,-29,102,117,141,165,146
29,141,112,-85,-41,126,-24,92,112,141,161,131
29,136,107,-82,-39,122,-24,82,112,136,151,126
24,126,102,-75,-39,114,-19,73,107,126,141,112
19,117,97,-68,-39,107,-19,68,107,112,122,102
14,112,97,-63,-41,104,-14,63,107,107,112,92
14,102,87,-58,-36,95,-14,63,97,102,102,82
9,87,78,-48,-34,82,-4,48,92,97,87,68
9,78,68,-43,-29,73,0,48,92,87,78,63
0,68,68,-34,-34,68,4,48,87,78,58,53
-9,58,68,-24,-39,63,4,39,82,68,48,43
-9,53,63,-21,-36,58,4,39,82,63,39,39
-9,53,63,-21,-36,58,14,34,78,58,24,29
-14,39,53,-12,-34,46,14,29,73,53,14,19
-14,39,53,-12,-34,46,14,29,68,48,14,14
-14,29,43,-7,-29,36,19,29,63,34,4,4
-14,24,39,-4,-26,31,19,24,63,24,0,0
-14,24,39,-4,-26,31,19,24,63,19,-9,-4
-14,19,34,-2,-24,26,19,29,58,19,-9,-4
-14,14,29,0,-21,21,19,29,53,14,-9,-9
-9,9,19,0,-14,14,19,34,48,0,-14,-9
-9,9,19,0,-14,14,19,34,48,0,-19,-14
-9,0,9,4,-9,4,24,34,48,0,-24,-14
-19,-4,14,12,-17,4,24,34,43,-4,-24,-19
-29,-14,14,21,-21,0,24,34,43,-4,-24,-19
-34,-14,19,24,-26,2,24,39,43,-4,-29,-24
-34,-14,19,24,-26,2,24,39,39,-9,-29,-24
-24,0,24,12,-24,12,24,34,39,-9,-29,-24
-19,9,29,4,-24,19,24,29,39,-9,-29,-24
-19,0,19,9,-19,9,24,34,39,-9,-29,-24
-19,-14,4,17,-12,-4,19,34,39,-14,-34,-24
-19,-14,4,17,-12,-4,19,34,39,-14,-34,-24
-19,-14,4,17,-12,-4,19,34,39,-14,-34,-19
-19,-4,14,12,-17,4,24,39,39,-14,-24,-19
-19,0,19,9,-19,9,24,43,39,-14,-19,-14
-19,0,19,9,-19,9,24,39,34,-14,-19,-14
-19,-4,14,12,-17,4,24,34,34,-14,-19,-14
-24,-14,9,19,-17,-2,24,34,34,-14,-24,-24
-29,-19,9,24,-19,-4,24,34,29,-19,-24,-29
-29,-19,9,24,-19,-4,24,29,29,-19,-24,-29
-34,-24,9,29,-21,-7,24,29,29,-19,-24,-29
-24,-19,4,21,-14,-7,24,19,24,-19,-24,-29
-9,-14,-4,12,-2,-9,24,19,19,-14,-29,-29
-9,-14,-4,12,-2,-9,24,14,19,-14,-29,-24
-9,-19,-9,14,0,-14,24,9,19,-14,-29,-24
-14,-24,-9,19,-2,-17,14,4,19,-14,-34,-29
-19,-34,-14,26,-2,-24,9,0,19,-29,-34,-29
-19,-34,-14,26,-2,-24,9,0,14,-29,-39,-29
-24,-34,-9,29,-7,-21,9,-4,14,-29,-43,-34
-24,-39,-14,31,-4,-26,9,-4,9,-29,-48,-34
-29,-43,-14,36,-7,-29,9,-9,4,-29,-48,-34
-29,-43,-14,36,-7,-29,9,-14,-4,-39,-43,-34
-29,-43,-14,36,-7,-29,9,-14,-4,-39,-43,-34
-24,-43,-19,34,-2,-31,14,-14,-4,-39,-43,-39
-24,-43,-19,34,-2,-31,19,-14,-4,-39,-43,-39
-24,-48,-24,36,0,-36,14,-19,-4,-39,-48,-39
-24,-53,-29,39,2,-41,14,-19,-14,-43,-48,-39
-24,-53,-29,39,2,-41,9,-24,-14,-43,-53,-39
-24,-53,-29,39,2,-41,4,-29,-14,-48,-58,-43
-24,-58,-34,41,4,-46,4,-29,-14,-53,-58,-43
-24,-58,-34,41,4,-46,4,-34,-14,-53,-63,-43
-24,-58,-34,41,4,-46,4,-34,-14,-58,-63,-43
-24,-53,-29,39,2,-41,4,-34,-19,-58,-58,-43
-19,-53,-34,36,7,-43,4,-34,-19,-58,-58,-43
-19,-53,-34,36,7,-43,4,-34,-19,-58,-58,-43
-19,-53,-34,36,7,-43,4,-34,-19,-58,-58,-48
-19,-53,-34,36,7,-43,4,-39,-24,-63,-58,-48
-24,-63,-39,43,7,-51,4,-39,-29,-68,-63,-53
-29,-68,-39,48,4,-53,4,-43,-34,-68,-68,-58
-29,-68,-39,48,4,-53,0,-43,-34,-73,-68,-58
-29,-68,-39,48,4,-53,0,-43,-43,-78,-68,-58
-19,-63,-43,41,12,-53,0,-43,-43,-78,-68,-58
-14,-58,-43,36,14,-51,0,-43,-43,-78,-68,-58
-14,-58,-43,36,14,-51,0,-43,-39,-82,-68,-63
-14,-58,-43,36,14,-51,0,-43,-39,-82,-68,-63
-19,-63,-43,41,12,-53,4,-43,-34,-78,-68,-63
-19,-63,-43,41,12,-53,9,-48,-29,-73,-68,-63
-19,-63,-43,41,12,-53,9,-48,-29,-73,-73,-63
-19,-63,-43,41,12,-53,9,-48,-34,-78,-82,-63
-19,-68,-48,43,14,-58,0,-48,-34,-82,-82,-63
-19,-68,-48,43,14,-58,-4,-48,-34,-87,-82,-68
-24,-73,-48,48,12,-61,0,-53,-39,-87,-82,-68
-29,-78,-48,53,9,-63,0,-53,-43,-87,-82,-68
-24,-78,-53,51,14,-65,0,-53,-39,-82,-78,-63
-19,-78,-58,48,19,-68,-4,-58,-39,-82,-78,-58
-14,-68,-53,41,19,-61,0,-53,-39,-82,-78,-58
-9,-58,-48,34,19,-53,0,-48,-39,-87,-78,-58
-9,-68,-58,39,24,-63,0,-48,-39,-87,-78,-58
-9,-78,-68,43,29,-73,0,-48,-39,-87,-78,-58
-9,-78,-68,43,29,-73,0,-53,-39,-87,-82,-58
-9,-78,-68,43,29,-73,0,-58,-39,-87,-87,-58
-9,-78,-68,43,29,-73,0,-58,-39,-87,-87,-63
-9,-78,-68,43,29,-73,0,-58,-39,-87,-87,-68
-19,-78,-58,48,19,-68,0,-58,-39,-87,-87,-68
-29,-78,-48,53,9,-63,0,-58,-39,-87,-87,-68
-29,-78,-48,53,9,-63,0,-58,-39,-87,-87,-68
-29,-78,-48,53,9,-63,0,-58,-39,-87,-87,-68
-19,-78,-58,48,19,-68,0,-58,-39,-87,-87,-68
-9,-78,-68,43,29,-73,0,-58,-39,-87,-87,-68
-9,-78,-68,43,29,-73,-4,-58,-39,-87,-87,-68
-9,-78,-68,43,29,-73,-9,-58,-39,-87,-87,-68
-19,-78,-58,48,19,-68,-9,-58,-39,-87,-87,-68
-29,-78,-48,53,9,-63,-9,-58,-39,-87,-87,-68
-19,-78,-58,48,19,-68,-9,-63,-43,-87,-87,-68
-9,-78,-68,43,29,-73,-9,-68,-48,-87,-87,-68
-9,-78,-68,43,29,-73,-9,-68,-48,-87,-87,-68
-9,-78,-68,43,29,-73,-9,-68,-48,-87,-87,-68
-9,-78,-68,43,29,-73,-4,-68,-48,-87,-87,-68
-9,-78,-68,43,29,-73,0,-68,-48,-87,-87,-68
-9,-68,-58,39,24,-63,4,-58,-43,-82,-82,-63
-9,-58,-48,34,19,-53,9,-48,-39,-78,-78,-58
-4,-48,-43,26,19,-46,14,-43,-34,-78,-78,-53
0,-39,-39,19,19,-39,19,-39,-29,-78,-78,-48
0,-14,-14,7,7,-14,29,-24,-14,-63,-63,-43
0,9,9,-4,-4,9,39,-9,0,-48,-48,-39
0,19,19,-9,-9,19,43,-9,9,-43,-43,-34
4,24,19,-14,-7,21,43,-4,14,-39,-39,-29
9,29,19,-19,-4,24,48,0,24,-34,-39,-29
14,34,19,-24,-2,26,29,4,24,-29,-34,-19
19,34,14,-26,2,24,9,9,24,-24,-29,-19
24,48,24,-36,0,36,-9,19,29,-9,-19,-4
24,78,53,-51,-14,65,-19,29,53,19,9,19
29,97,68,-63,-19,82,-34,29,63,29,19,29
34,107,73,-70,-19,90,-34,4,63,34,24,34
34,122,87,-78,-26,104,-34,-9,58,34,24,39
24,122,97,-73,-36,109,-34,-39,43,29,24,39
19,97,78,-58,-29,87,-29,-48,24,9,9,29
19,87,68,-53,-24,78,-19,-48,24,4,9,34
24,78,53,-51,-14,65,-19,-43,19,4,0,34
19,58,39,-39,-9,48,-19,-39,9,-4,0,24
9,34,24,-21,-7,29,-14,-34,0,-14,-14,14
4,0,-4,-2,4,-2,-4,-39,-24,-48,-48,-29
-4,-48,-43,26,19,-46,-4,-53,-53,-78,-78,-58
-9,-68,-58,39,24,-63,-9,-78,-63,-87,-82,-68
-14,-82,-68,48,26,-75,-9,-82,-68,-97,-82,-68
-14,-87,-73,51,29,-80,-9,-82,-68,-102,-87,-68
-14,-92,-78,53,31,-85,-9,-82,-73,-107,-92,-78
-19,-102,-82,61,31,-92,-9,-82,-82,-112,-97,-82
-19,-107,-87,63,34,-97,-9,-82,-82,-112,-97,-82
-14,-107,-92,61,39,-100,-4,-87,-82,-117,-97,-87
-14,-112,-97,63,41,-104,-4,-87,-87,-117,-102,-87
-14,-117,-102,65,43,-109,-4,-87,-87,-122,-102,-92
-14,-122,-107,68,46,-114,-4,-82,-87,-122,-107,-92
-14,-122,-107,68,46,-114,0,-82,-87,-122,-107,-92
-9,-122,-112,65,51,-117,0,-82,-92,-122,-112,-97
-9,-126,-117,68,53,-122,0,-78,-97,-126,-117,-97
-9,-131,-122,70,56,-126,0,-73,-102,-126,-122,-97
-9,-131,-122,70,56,-126,0,-73,-102,-126,-122,-97
-9,-131,-122,70,56,-126,0,-73,-97,-126,-122,-97
-9,-126,-117,68,53,-122,0,-73,-92,-126,-122,-97
-9,-122,-112,65,51,-117,4,-73,-87,-126,-122,-97
-9,-122,-112,65,51,-117,4,-73,-87,-126,-122,-97
-9,-122,-112,65,51,-117,4,-68,-87,-126,-122,-97
-9,-117,-107,63,48,-112,4,-73,-87,-122,-122,-97
-9,-117,-107,63,48,-112,4,-78,-87,-117,-122,-97
-9,-112,-102,61,46,-107,4,-78,-87,-117,-112,-87
-4,-136,-131,70,63,-134,4,-73,-102,-146,-126,-102
0,-190,-190,95,95,-190,19,-48,-117,-190,-175,-141
-4,-244,-239,124,117,-241,39,39,-102,-224,-229,-190
-4,-326,-322,165,158,-324,58,82,-97,-312,-322,-268
14,-346,-361,165,187,-353,63,146,-9,-302,-346,-292
82,-214,-297,65,190,-256,63,366,244,-68,-219,-239
161,126,-34,-143,97,46,-34,405,551,366,87,-43
209,673,463,-441,-126,568,-180,297,849,932,527,278
214,1098,883,-656,-334,990,-409,-180,844,1346,907,595
219,1424,1205,-822,-492,1315,-800,-1063,561,1688,1268,946
180,1673,1493,-927,-656,1583,-1073,-1732,302,1995,1590,1259
102,1756,1654,-929,-775,1705,-1288,-2298,-97,2108,1839,1527
97,1288,1190,-692,-546,1239,-1293,-2269,-473,1717,1732,1498
136,409,273,-273,-68,341,-1019,-1610,-629,1015,1249,1122
82,34,-48,-58,65,-7,-707,-1127,-639,424,800,800
14,-82,-97,34,56,-90,-414,-766,-585,-102,253,370
-19,-87,-68,53,24,-78,-234,-512,-453,-209,24,141
-19,-53,-34,36,7,-43,-112,-292,-239,-112,9,63
-14,-24,-9,19,-2,-17,-58,-161,-112,-53,4,19
0,-24,-24,12,12,-24,-39,-97,-82,-34,-4,-4
0,-29,-29,14,14,-29,-4,-43,-78,-34,-14,-24
-9,-53,-43,31,17,-48,39,-14,-63,-58,-39,-39
-14,-78,-63,46,24,-70,43,0,-53,-87,-73,-68
-14,-87,-73,51,29,-80,43,4,-53,-92,-87,-82
-14,-87,-73,51,29,-80,43,14,-53,-97,-92,-92
-14,-97,-82,56,34,-90,58,29,-48,-112,-97,-92
-14,-102,-87,58,36,-95,68,39,-34,-117,-107,-102
-14,-102,-87,58,36,-95,68,43,-34,-122,-112,-107
-14,-102,-87,58,36,-95,68,48,-29,-122,-117,-107
-14,-102,-87,58,36,-95,68,53,-24,-122,-117,-107
-14,-102,-87,58,36,-95,73,58,-24,-122,-122,-112
-9,-102,-92,56,41,-97,73,58,-19,-122,-117,-112
-4,-107,-102,56,48,-104,73,58,-19,-126,-117,-117
-4,-107,-102,56,48,-104,78,63,-14,-126,-117,-117
-4,-107,-102,56,48,-104,78,63,-14,-131,-117,-122
-9,-107,-97,58,43,-102,82,68,-14,-131,-117,-122
-19,-107,-87,63,34,-97,87,73,-14,-131,-122,-122
-19,-112,-92,65,36,-102,87,73,-14,-131,-126,-122
-19,-112,-92,65,36,-102,87,73,-9,-131,-131,-122
-19,-112,-92,65,36,-102,87,73,-9,-131,-136,-126
-19,-112,-92,65,36,-102,92,73,-9,-131,-136,-126
-19,-112,-92,65,36,-102,92,78,-4,-131,-131,-126
-19,-117,-97,68,39,-107,92,78,-4,-131,-131,-126
-14,-117,-102,65,43,-109,92,78,-4,-136,-131,-126
-9,-117,-107,63,48,-112,92,82,-4,-136,-131,-131
-9,-117,-107,63,48,-112,92,82,-4,-136,-141,-136
-9,-117,-107,63,48,-112,92,82,-4,-136,-146,-136
-9,-117,-107,63,48,-112,92,87,0,-136,-146,-136
-9,-117,-107,63,48,-112,92,87,0,-141,-151,-136
-4,-117,-112,61,53,-114,87,87,0,-141,-151,-136
-4,-117,-112,61,53,-114,82,97,0,-141,-151,-141
-4,-112,-107,58,51,-109,82,97,0,-141,-156,-141
-4,-112,-107,58,51,-109,82,97,4,-146,-156,-141
-4,-112,-107,58,51,-109,87,107,4,-146,-161,-146
-4,-112,-107,58,51,-109,87,112,4,-141,-161,-146
-4,-117,-112,61,53,-114,87,112,9,-141,-151,-146
0,-117,-117,58,58,-117,87,117,9,-141,-146,-146
0,-117,-117,58,58,-117,87,122,9,-141,-151,-146
0,-117,-117,58,58,-117,87,126,9,-141,-151,-146
0,-117,-117,58,58,-117,87,131,14,-141,-146,-146
0,-117,-117,58,58,-117,87,131,14,-136,-146,-146
0,-112,-112,56,56,-112,87,136,14,-131,-146,-146
0,-112,-112,56,56,-112,87,141,14,-131,-146,-146
-4,-107,-102,56,48,-104,92,146,19,-122,-141,-146
-9,-107,-97,58,43,-102,92,151,24,-122,-146,-141
-9,-102,-92,56,41,-97,92,151,24,-122,-146,-141
-4,-97,-92,51,43,-95,92,161,29,-112,-141,-141
0,-97,-97,48,48,-97,92,165,29,-112,-141,-136
4,-92,-97,43,51,-95,87,170,34,-107,-136,-126
4,-82,-87,39,46,-85,87,180,29,-97,-126,-126
9,-78,-87,34,48,-82,87,180,29,-92,-126,-126
4,-68,-73,31,39,-70,87,185,34,-82,-117,-122
4,-58,-63,26,34,-61,87,200,34,-78,-112,-112
4,-53,-58,24,31,-56,87,204,39,-73,-102,-112
9,-48,-58,19,34,-53,87,209,43,-68,-92,-97
4,-39,-43,17,24,-41,87,214,43,-58,-82,-92
4,-29,-34,12,19,-31,87,219,48,-53,-73,-82
4,-19,-24,7,14,-21,82,229,53,-39,-68,-78
4,-9,-14,2,9,-12,82,239,53,-29,-53,-68
9,0,-9,-4,9,-4,82,244,53,-19,-34,-58
14,9,-4,-12,9,2,78,248,58,-9,-24,-48
19,19,0,-19,9,9,78,248,53,0,-14,-39
29,29,0,-29,14,14,73,248,53,9,0,-24
34,43,9,-39,12,26,73,253,53,14,9,-9
39,53,14,-46,12,34,73,253,53,24,24,0
39,63,24,-51,7,43,68,253,53,29,34,9
39,68,29,-53,4,48,68,253,53,34,48,19
43,78,34,-61,4,56,58,253,58,43,63,34
43,87,43,-65,0,65,58,253,58,48,73,43
48,97,48,-73,0,73,48,253,63,58,82,63
48,107,58,-78,-4,82,48,253,63,68,97,68
53,117,63,-85,-4,90,39,248,63,82,112,78
58,126,68,-92,-4,97,34,248,63,92,122,92
63,141,78,-102,-7,109,29,244,63,102,136,107
63,146,82,-104,-9,114,24,244,63,117,151,117
68,161,92,-114,-12,126,19,234,63,126,165,136
68,165,97,-117,-14,131,4,229,68,131,175,141
68,180,112,-124,-21,146,0,219,68,136,185,156
68,185,117,-126,-24,151,-4,209,73,151,195,165
68,195,126,-131,-29,161,-4,190,73,156,195,165
68,200,131,-134,-31,165,-9,175,73,156,200,165
63,200,136,-131,-36,168,-14,161,73,156,204,165
58,200,141,-129,-41,170,-14,156,73,161,204,165
58,200,141,-129,-41,170,-19,141,68,161,200,165
53,185,131,-119,-39,158,-19,126,68,156,190,161
53,180,126,-117,-36,153,-24,112,68,146,180,151
48,170,122,-109,-36,146,-29,102,68,141,165,146
43,161,117,-102,-36,139,-24,92,63,141,161,131
39,156,117,-97,-39,136,-24,82,63,136,151,126
29,146,117,-87,-43,131,-19,73,58,126,141,112
19,136,117,-78,-48,126,-19,68,58,112,122,102
14,131,117,-73,-51,124,-14,63,63,107,112,92
14,122,107,-68,-46,114,-14,63,58,102,102,82
9,107,97,-58,-43,102,-9,43,53,97,87,68
9,97,87,-53,-39,92,-9,39,53,87,78,63
4,87,82,-46,-39,85,-4,39,43,78,63,53
0,78,78,-39,-39,78,-4,29,34,68,58,43
0,68,68,-34,-34,68,-4,29,34,58,48,39
0,63,63,-31,-31,63,4,24,29,48,34,29
-4,48,53,-21,-29,51,4,19,24,43,24,24
-4,48,53,-21,-29,51,4,19,19,39,24,24
-4,39,43,-17,-24,41,14,24,14,29,14,14
-4,34,39,-14,-21,36,19,24,14,24,9,9
-4,34,39,-14,-21,36,19,24,14,19,0,0
-4,29,34,-12,-19,31,19,29,9,19,0,-4
-9,24,34,-7,-21,29,19,24,4,19,0,-9
-9,19,29,-4,-19,24,19,24,0,9,-4,-9
-9,19,29,-4,-19,24,19,24,0,9,-9,-14
-9,9,19,0,-14,14,24,24,0,9,-14,-14
-9,9,19,0,-14,14,24,24,-4,4,-14,-19
-9,4,14,2,-12,9,24,24,-4,4,-14,-19
-14,4,19,4,-17,12,29,29,-4,4,-19,-24
-14,4,19,4,-17,12,34,29,-9,0,-19,-24
-9,9,19,0,-14,14,34,29,-9,0,-19,-24
-9,9,19,0,-14,14,34,29,-9,0,-19,-24
-9,9,19,0,-14,14,39,34,-4,0,-19,-24
-9,4,14,2,-12,9,39,34,0,-4,-24,-24
-9,0,9,4,-9,4,39,34,0,-4,-24,-29
-9,-4,4,7,-7,0,39,34,0,-4,-24,-29
-9,0,9,4,-9,4,39,34,0,-4,-19,-29
-9,0,9,4,-9,4,34,34,0,-4,-19,-24
-14,0,14,7,-14,7,34,29,-4,-4,-19,-24
-19,-4,14,12,-17,4,34,24,-4,-4,-19,-24
-19,-9,9,14,-14,0,34,24,-4,0,-24,-24
-19,-9,9,14,-14,0,34,24,-9,0,-24,-19
-19,-9,9,14,-14,0,34,24,-9,0,-24,-19
-24,-14,9,19,-17,-2,34,29,-9,0,-24,-19
-24,-14,9,19,-17,-2,34,19,-14,-9,-24,-24
-19,-14,4,17,-12,-4,34,19,-19,-14,-29,-29
-19,-14,4,17,-12,-4,34,19,-24,-14,-29,-24
-19,-19,0,19,-9,-9,34,19,-29,-14,-29,-24
-19,-19,0,19,-9,-9,29,9,-29,-14,-34,-29
-19,-24,-4,21,-7,-14,29,0,-29,-29,-34,-29
-19,-24,-4,21,-7,-14,29,0,-29,-29,-34,-29
-24,-24,0,24,-12,-12,29,-4,-24,-29,-34,-34
-24,-29,-4,26,-9,-17,29,0,-29,-29,-39,-34
-29,-34,-4,31,-12,-19,29,0,-34,-29,-39,-34
-29,-34,-4,31,-12,-19,29,-4,-43,-39,-39,-34
-29,-34,-4,31,-12,-19,29,-4,-43,-39,-43,-34
-24,-34,-9,29,-7,-21,29,-9,-43,-39,-43,-39
-24,-34,-9,29,-7,-21,29,-14,-43,-39,-43,-39
-24,-39,-14,31,-4,-26,24,-19,-43,-39,-48,-39
-24,-43,-19,34,-2,-31,24,-19,-53,-43,-48,-39
-24,-43,-19,34,-2,-31,24,-24,-53,-43,-48,-39
-24,-43,-19,34,-2,-31,24,-29,-53,-48,-48,-43
-24,-48,-24,36,0,-36,24,-29,-53,-53,-48,-43
-24,-48,-24,36,0,-36,24,-34,-53,-53,-53,-43
-24,-53,-29,39,2,-41,24,-34,-53,-58,-58,-43
-24,-53,-29,39,2,-41,24,-34,-58,-58,-58,-43
-24,-53,-29,39,2,-41,19,-34,-58,-58,-58,-43
-29,-53,-24,41,-2,-39,14,-34,-58,-58,-58,-43
-24,-53,-29,39,2,-41,14,-34,-58,-58,-58,-48
-19,-53,-34,36,7,-43,14,-39,-63,-63,-58,-48
-19,-58,-39,39,9,-48,14,-39,-63,-68,-63,-48
-19,-58,-39,39,9,-48,14,-43,-63,-68,-68,-48
-24,-58,-34,41,4,-46,14,-43,-58,-68,-68,-48
-29,-58,-29,43,0,-43,19,-43,-63,-68,-68,-48
-24,-53,-29,39,2,-41,19,-43,-63,-68,-68,-48
-24,-48,-24,36,0,-36,19,-43,-63,-68,-68,-48
-24,-48,-24,36,0,-36,19,-43,-63,-73,-63,-53
-24,-48,-24,36,0,-36,19,-43,-68,-73,-58,-53
-29,-58,-29,43,0,-43,19,-43,-68,-73,-58,-53
-29,-63,-34,46,2,-48,19,-48,-68,-73,-58,-53
-29,-63,-34,46,2,-48,19,-48,-68,-73,-58,-53
-29,-63,-34,46,2,-48,19,-48,-73,-78,-63,-53
-29,-63,-34,46,2,-48,14,-48,-73,-78,-68,-53
-29,-58,-29,43,0,-43,14,-48,-73,-78,-73,-58
-29,-58,-29,43,0,-43,19,-53,-73,-78,-73,-58
-29,-58,-29,43,0,-43,19,-53,-73,-78,-73,-58
-29,-63,-34,46,2,-48,14,-48,-68,-73,-68,-58
-29,-68,-39,48,4,-53,14,-48,-68,-73,-68,-58
-29,-68,-39,48,4,-53,9,-48,-68,-73,-68,-53
-29,-68,-39,48,4,-53,9,-48,-68,-78,-68,-48
-29,-68,-39,48,4,-53,9,-48,-73,-78,-68,-48
-29,-68,-39,48,4,-53,9,-48,-78,-78,-68,-48
-29,-68,-39,48,4,-53,9,-48,-78,-78,-68,-48
-29,-68,-39,48,4,-53,9,-48,-78,-78,-68,-48
-29,-68,-39,48,4,-53,9,-48,-78,-78,-68,-53
-29,-68,-39,48,4,-53,9,-48,-78,-78,-68,-58
-29,-68,-39,48,4,-53,9,-48,-78,-78,-68,-58
-29,-68,-39,48,4,-53,9,-48,-78,-78,-68,-58
-29,-68,-39,48,4,-53,9,-48,-78,-78,-68,-58
-29,-68,-39,48,4,-53,9,-48,-78,-78,-68,-58
-29,-68,-39,48,4,-53,9,-48,-78,-78,-68,-58
-29,-68,-39,48,4,-53,9,-48,-78,-78,-68,-58
-29,-68,-39,48,4,-53,9,-48,-82,-78,-68,-58
-29,-68,-39,48,4,-53,9,-48,-87,-78,-68,-58
-29,-68,-39,48,4,-53,4,-48,-87,-78,-68,-58
-29,-68,-39,48,4,-53,0,-48,-87,-78,-68,-58
-29,-68,-39,48,4,-53,0,-53,-87,-78,-68,-58
-29,-68,-39,48,4,-53,0,-58,-87,-78,-68,-58
-29,-73,-43,51,7,-58,4,-58,-87,-78,-68,-58
-29,-78,-48,53,9,-63,9,-58,-87,-78,-68,-58
-29,-78,-48,53,9,-63,9,-58,-87,-78,-73,-58
-29,-78,-48,53,9,-63,9,-58,-87,-78,-78,-58
-29,-78,-48,53,9,-63,9,-58,-87,-82,-78,-58
-29,-78,-48,53,9,-63,9,-58,-87,-87,-78,-58
-29,-78,-48,53,9,-63,9,-53,-87,-87,-78,-58
-29,-78,-48,53,9,-63,9,-48,-87,-87,-78,-58
-29,-73,-43,51,7,-58,9,-48,-87,-82,-73,-58
-29,-68,-39,48,4,-53,9,-48,-87,-78,-68,-58
-29,-58,-29,43,0,-43,19,-43,-78,-73,-63,-58
-29,-48,-19,39,-4,-34,29,-39,-68,-68,-58,-58
-24,-29,-4,26,-9,-17,34,-29,-58,-58,-53,-48
-19,-9,9,14,-14,0,39,-19,-48,-48,-48,-39
-19,9,29,4,-24,19,48,-9,-39,-39,-39,-29
-14,19,34,-2,-24,26,53,0,-29,-29,-34,-24
-9,29,39,-9,-24,34,63,14,-24,-24,-29,-19
-4,34,39,-14,-21,36,48,24,-24,-19,-24,-9
0,29,29,-14,-14,29,29,24,-24,-19,-29,-14
4,39,34,-21,-14,36,9,29,-19,-9,-29,-4
4,68,63,-36,-29,65,0,48,4,19,9,19
9,87,78,-48,-34,82,-14,58,14,29,29,29
14,92,78,-53,-31,85,-24,34,24,39,39,39
14,102,87,-58,-36,95,-34,19,29,43,43,48
4,117,112,-61,-53,114,-34,-19,14,39,43,48
0,107,107,-53,-53,107,-29,-39,-4,19,29,39
-4,97,102,-46,-53,100,-19,-39,-4,14,29,43
-4,87,92,-41,-48,90,-19,-34,-9,14,19,43
-9,73,82,-31,-46,78,-19,-34,-19,9,24,39
-19,53,73,-17,-46,63,-14,-34,-29,4,14,34
-24,19,43,2,-34,31,0,-29,-48,-24,-19,-4
-34,-29,4,31,-19,-12,4,-34,-73,-48,-48,-29
-34,-48,-14,41,-9,-31,0,-63,-82,-58,-63,-43
-34,-63,-29,48,-2,-46,0,-73,-87,-68,-73,-48
-34,-73,-39,53,2,-56,0,-73,-87,-73,-78,-48
-34,-82,-48,58,7,-65,0,-73,-92,-78,-82,-58
-39,-92,-53,65,7,-73,0,-73,-107,-82,-87,-63
-39,-97,-58,68,9,-78,0,-73,-112,-82,-87,-63
-34,-97,-63,65,14,-80,4,-78,-112,-92,-87,-68
-34,-102,-68,68,17,-85,4,-78,-117,-97,-92,-68
-34,-112,-78,73,21,-95,4,-78,-117,-107,-92,-73
-34,-122,-87,78,26,-104,4,-73,-117,-112,-97,-73
-39,-122,-82,80,21,-102,9,-73,-117,-112,-97,-73
-39,-122,-82,80,21,-102,9,-73,-122,-112,-102,-78
-39,-122,-82,80,21,-102,9,-73,-122,-117,-102,-82
-39,-122,-82,80,21,-102,9,-73,-122,-117,-102,-87
-39,-122,-82,80,21,-102,9,-73,-126,-117,-102,-87
-39,-122,-82,80,21,-102,9,-73,-126,-117,-102,-87
-39,-122,-82,80,21,-102,9,-78,-126,-117,-102,-87
-39,-122,-82,80,21,-102,14,-82,-126,-117,-102,-87
-39,-122,-82,80,21,-102,14,-82,-126,-117,-102,-87
-39,-122,-82,80,21,-102,14,-78,-126,-117,-102,-87
-39,-117,-78,78,19,-97,14,-78,-126,-112,-102,-87
-39,-117,-78,78,19,-97,14,-78,-126,-107,-102,-87
-39,-97,-58,68,9,-78,14,-78,-117,-92,-87,-73
-34,-107,-73,70,19,-90,14,-73,-122,-107,-97,-82
-24,-161,-136,92,56,-148,29,-53,-151,-151,-146,-112
-24,-214,-190,119,82,-202,48,29,-151,-185,-200,-151
-39,-322,-283,180,122,-302,73,63,-180,-307,-312,-253
-34,-366,-331,200,148,-348,82,117,-126,-331,-356,-302
34,-292,-326,129,180,-309,97,366,107,-156,-273,-273
112,-9,-122,-51,117,-65,14,434,395,219,-9,-102
180,546,366,-363,-92,456,-102,414,761,800,434,209
204,980,775,-592,-285,878,-302,24,824,1229,819,517
214,1342,1127,-778,-456,1234,-722,-897,580,1586,1200,888
180,1625,1444,-902,-631,1534,-1024,-1605,361,1908,1542,1220
87,1834,1747,-961,-829,1790,-1298,-2327,-43,2142,1873,1561
68,1493,1424,-780,-678,1459,-1361,-2454,-424,1873,1849,1605
126,541,414,-334,-143,478,-1112,-1776,-624,1185,1390,1244
92,92,0,-92,46,46,-824,-1273,-678,610,966,936
9,-63,-73,26,41,-68,-492,-878,-644,-4,361,473
-39,-107,-68,73,14,-87,-273,-590,-531,-200,73,209
-43,-63,-19,53,-12,-41,-131,-341,-302,-102,48,117
-43,-24,19,34,-31,-2,-58,-180,-161,-43,34,58
-29,-19,9,24,-19,-4,-39,-107,-126,-19,24,29
-29,-19,9,24,-19,-4,-4,-43,-117,-14,14,4
-39,-43,-4,41,-17,-24,43,-9,-97,-39,-9,-9
-43,-68,-24,56,-9,-46,53,9,-82,-68,-43,-39
-43,-78,-34,61,-4,-56,53,9,-82,-73,-68,-58
-43,-78,-34,61,-4,-56,53,14,-82,-78,-82,-73
-39,-92,-53,65,7,-73,68,34,-87,-92,-87,-73
-34,-102,-68,68,17,-85,78,48,-82,-97,-97,-82
-34,-102,-68,68,17,-85,78,58,-82,-102,-97,-87
-34,-102,-68,68,17,-85,78,68,-78,-102,-97,-87
-34,-102,-68,68,17,-85,82,73,-68,-102,-97,-92
-34,-102,-68,68,17,-85,92,78,-63,-102,-102,-102
-34,-102,-68,68,17,-85,92,78,-58,-102,-102,-102
-34,-107,-73,70,19,-90,92,78,-58,-107,-107,-107
-34,-107,-73,70,19,-90,97,82,-53,-107,-107,-102
-34,-107,-73,70,19,-90,97,82,-53,-112,-107,-102
-34,-107,-73,70,19,-90,97,87,-53,-112,-107,-102
-39,-107,-68,73,14,-87,97,92,-53,-112,-112,-102
-39,-112,-73,75,17,-92,97,92,-53,-112,-112,-102
-39,-112,-73,75,17,-92,97,92,-48,-112,-112,-102
-39,-112,-73,75,17,-92,97,92,-48,-112,-117,-107
-39,-112,-73,75,17,-92,102,92,-48,-112,-117,-107
-39,-112,-73,75,17,-92,102,97,-43,-112,-117,-107
-39,-117,-78,78,19,-97,102,97,-43,-112,-122,-107
-39,-117,-78,78,19,-97,102,97,-43,-117,-122,-107
-39,-117,-78,78,19,-97,102,102,-43,-117,-122,-112
-39,-117,-78,78,19,-97,102,102,-43,-112,-126,-117
-39,-117,-78,78,19,-97,102,102,-43,-107,-126,-117
-39,-117,-78,78,19,-97,102,107,-39,-107,-126,-117
-39,-117,-78,78,19,-97,102,107,-39,-112,-131,-117
-34,-117,-82,75,24,-100,102,107,-39,-112,-131,-117
-34,-117,-82,75,24,-100,102,117,-39,-112,-131,-122
-34,-117,-82,75,24,-100,102,117,-39,-112,-136,-122
-34,-122,-87,78,26,-104,102,117,-34,-117,-136,-122
-34,-122,-87,78,26,-104,102,122,-34,-122,-141,-126
-34,-122,-87,78,26,-104,97,122,-34,-122,-141,-126
-34,-122,-87,78,26,-104,97,122,-24,-122,-136,-131
-29,-117,-87,73,29,-102,97,126,-19,-122,-136,-136
-29,-117,-87,73,29,-102,97,131,-19,-122,-141,-136
-29,-117,-87,73,29,-102,97,136,-19,-122,-141,-136
-29,-122,-92,75,31,-107,97,141,-14,-122,-136,-136
-29,-126,-97,78,34,-112,97,141,-14,-117,-136,-136
-29,-122,-92,75,31,-107,97,146,-14,-112,-136,-136
-29,-122,-92,75,31,-107,97,151,-14,-112,-136,-136
-29,-112,-82,70,26,-97,102,156,-9,-102,-131,-136
-29,-107,-78,68,24,-92,102,161,-4,-102,-136,-131
-29,-102,-73,65,21,-87,102,156,-4,-102,-136,-131
-24,-97,-73,61,24,-85,102,161,0,-92,-131,-131
-24,-97,-73,61,24,-85,102,165,0,-92,-131,-126
-24,-92,-68,58,21,-80,97,170,4,-87,-126,-117
-24,-87,-63,56,19,-75,97,180,9,-78,-117,-117
-19,-87,-68,53,24,-78,97,180,19,-73,-117,-117
-19,-78,-58,48,19,-68,97,185,24,-63,-107,-112
-14,-68,-53,41,19,-61,97,200,24,-58,-102,-102
-14,-63,-48,39,17,-56,97,209,29,-53,-92,-102
-9,-58,-48,34,19,-53,97,219,34,-48,-82,-87
-9,-48,-39,29,14,-43,97,224,34,-39,-73,-82
-4,-39,-34,21,14,-36,97,229,39,-34,-63,-73
-4,-29,-24,17,9,-26,92,234,43,-24,-58,-68
-4,-19,-14,12,4,-17,92,239,43,-19,-43,-58
0,-9,-9,4,4,-9,92,244,43,-9,-24,-48
4,0,-4,-2,4,-2,87,248,48,0,-14,-39
4,9,4,-7,0,7,87,248,48,9,-9,-34
9,19,9,-14,0,14,82,248,53,19,0,-24
14,39,24,-26,-4,31,78,248,53,19,9,-9
19,53,34,-36,-7,43,73,244,53,24,24,0
19,63,43,-41,-12,53,68,244,53,34,34,9
19,68,48,-43,-14,58,68,244,53,43,48,19
24,78,53,-51,-14,65,63,244,58,53,68,34
24,87,63,-56,-19,75,68,244,58,58,82,43
29,97,68,-63,-19,82,58,244,63,68,92,63
29,107,78,-68,-24,92,58,244,63,78,107,68
34,112,78,-73,-21,95,48,244,63,87,122,78
39,117,78,-78,-19,97,43,248,63,92,131,92
43,131,87,-87,-21,109,39,244,63,102,146,107
43,136,92,-90,-24,114,34,244,63,117,161,117
48,151,102,-100,-26,126,29,234,63,126,175,136
48,156,107,-102,-29,131,14,229,68,131,185,141
48,170,122,-109,-36,146,4,219,68,136,195,156
48,175,126,-112,-39,151,-4,209,73,151,204,165
48,185,136,-117,-43,161,-4,190,73,156,204,175
48,190,141,-119,-46,165,-9,175,73,156,209,185
43,190,146,-117,-51,168,-14,161,73,156,214,185
39,190,151,-114,-56,170,-14,156,73,161,214,185
39,190,151,-114,-56,170,-19,141,68,165,209,180
34,175,141,-104,-53,158,-19,126,68,165,200,170
34,170,136,-102,-51,153,-19,112,63,156,190,161
29,161,131,-95,-51,146,-19,102,58,151,175,156
24,151,126,-87,-51,139,-14,92,53,151,170,141
19,146,126,-82,-53,136,-14,82,53,146,161,136
19,136,117,-78,-48,126,-9,73,48,136,151,122
19,126,107,-73,-43,117,-9,68,48,122,131,112
14,122,107,-68,-46,114,-4,63,48,117,122,102
14,112,97,-63,-41,104,-4,63,39,112,112,92
9,97,87,-53,-39,92,0,48,34,107,102,78
9,87,78,-48,-34,82,0,48,34,97,97,73
4,78,73,-41,-34,75,4,48,29,87,82,63
0,68,68,-34,-34,68,4,39,24,78,78,53
0,58,58,-29,-29,58,4,39,24,68,63,48
0,53,53,-26,-26,53,14,34,19,58,43,39
-4,39,43,-17,-24,41,14,29,14,53,34,29
-4,39,43,-17,-24,41,14,29,9,48,34,24
-4,24,29,-9,-17,26,19,29,0,39,24,14
-4,14,19,-4,-12,17,19,24,-4,34,19,9
-4,14,19,-4,-12,17,19,19,-4,29,4,4
-4,9,14,-2,-9,12,19,19,-9,29,0,4
-9,4,14,2,-12,9,19,19,-9,29,0,0
-9,0,9,4,-9,4,19,24,-9,19,-4,0
-14,0,14,7,-14,7,19,24,-9,14,-9,-4
-19,-9,9,14,-14,0,24,24,-9,9,-14,-4
-19,-9,9,14,-14,0,29,24,-14,4,-14,-9
-19,-14,4,17,-12,-4,34,24,-14,4,-14,-9
-24,-19,4,21,-14,-7,34,34,-14,4,-24,-14
-24,-24,0,24,-12,-12,34,39,-19,0,-29,-14
-19,-19,0,19,-9,-9,34,39,-19,0,-29,-14
-19,-19,0,19,-9,-9,34,39,-19,0,-29,-14
-19,-19,0,19,-9,-9,39,43,-19,0,-24,-19
-19,-24,-4,21,-7,-14,39,43,-19,-4,-24,-24
-19,-24,-4,21,-7,-14,39,43,-19,-4,-24,-29
-19,-24,-4,21,-7,-14,39,43,-19,-4,-24,-29
-19,-19,0,19,-9,-9,39,43,-19,-4,-19,-29
-19,-19,0,19,-9,-9,34,43,-19,-4,-19,-24
-19,-19,0,19,-9,-9,34,39,-24,-4,-19,-24
-19,-24,-4,21,-7,-14,34,34,-24,-4,-19,-24
-14,-29,-14,21,0,-21,34,34,-24,-4,-24,-29
-9,-29,-19,19,4,-24,34,34,-29,-9,-24,-29
-9,-29,-19,19,4,-24,34,29,-29,-9,-24,-29
-14,-34,-19,24,2,-26,34,29,-29,-9,-24,-29
-14,-34,-19,24,2,-26,34,19,-34,-14,-24,-29
-9,-34,-24,21,7,-29,34,19,-39,-14,-29,-29
-9,-34,-24,21,7,-29,34,19,-39,-14,-29,-24
-9,-39,-29,24,9,-34,34,19,-39,-14,-29,-24
-14,-39,-24,26,4,-31,29,14,-39,-14,-34,-29
-19,-43,-24,31,2,-34,29,9,-39,-29,-34,-29
-19,-43,-24,31,2,-34,29,9,-43,-29,-39,-24
-24,-43,-19,34,-2,-31,29,4,-43,-29,-43,-24
-24,-48,-24,36,0,-36,29,4,-48,-29,-48,-24
-29,-53,-24,41,-2,-39,29,0,-53,-29,-48,-24
-29,-58,-29,43,0,-43,29,-4,-63,-39,-43,-24
-29,-63,-34,46,2,-48,29,-4,-63,-39,-43,-24
-19,-63,-43,41,12,-53,29,-4,-63,-39,-43,-29
-14,-63,-48,39,17,-56,29,-4,-63,-39,-43,-29
-14,-68,-53,41,19,-61,24,-9,-58,-39,-48,-34
-14,-73,-58,43,21,-65,24,-9,-63,-43,-48,-39
-19,-73,-53,46,17,-63,24,-14,-63,-43,-48,-39
-24,-73,-48,48,12,-61,24,-19,-63,-48,-48,-43
-24,-73,-48,48,12,-61,24,-14,-63,-53,-48,-43
-24,-68,-43,46,9,-56,24,-14,-63,-53,-53,-43
-24,-73,-48,48,12,-61,24,-14,-63,-58,-58,-43
-24,-73,-48,48,12,-61,24,-14,-68,-58,-58,-43
-24,-73,-48,48,12,-61,24,-14,-68,-58,-58,-43
-29,-73,-43,51,7,-58,24,-14,-68,-58,-58,-43
-24,-78,-53,51,14,-65,24,-14,-68,-58,-58,-43
-19,-82,-63,51,21,-73,24,-19,-73,-63,-58,-39
-19,-87,-68,53,24,-78,24,-24,-73,-68,-63,-39
-19,-87,-68,53,24,-78,24,-34,-73,-68,-68,-39
-24,-87,-63,56,19,-75,19,-34,-73,-68,-68,-39
-29,-87,-58,58,14,-73,19,-34,-82,-68,-68,-39
-24,-87,-63,56,19,-75,19,-34,-82,-68,-68,-39
-24,-87,-63,56,19,-75,19,-34,-82,-68,-68,-39
-24,-87,-63,56,19,-75,19,-34,-78,-73,-68,-43
-24,-87,-63,56,19,-75,19,-34,-78,-73,-68,-43
-24,-92,-68,58,21,-80,19,-34,-78,-73,-68,-48
-19,-92,-73,56,26,-82,19,-39,-78,-73,-68,-53
-19,-92,-73,56,26,-82,19,-39,-78,-73,-68,-53
-19,-92,-73,56,26,-82,19,-39,-82,-78,-73,-53
-19,-97,-78,58,29,-87,14,-39,-82,-78,-73,-53
-19,-97,-78,58,29,-87,14,-39,-82,-78,-73,-58
-24,-97,-73,61,24,-85,19,-43,-82,-78,-73,-58
-29,-97,-68,63,19,-82,19,-43,-82,-78,-73,-58
-29,-97,-68,63,19,-82,19,-39,-78,-78,-73,-58
-29,-97,-68,63,19,-82,24,-39,-78,-82,-78,-58
-29,-97,-68,63,19,-82,19,-39,-82,-78,-73,-53
-29,-97,-68,63,19,-82,19,-39,-87,-78,-68,-48
-29,-97,-68,63,19,-82,19,-39,-87,-78,-68,-48
-29,-97,-68,63,19,-82,19,-39,-87,-78,-68,-48
-29,-97,-68,63,19,-82,19,-39,-87,-78,-68,-48
-29,-97,-68,63,19,-82,19,-39,-87,-78,-68,-48
-29,-97,-68,63,19,-82,19,-39,-87,-78,-73,-48
-29,-97,-68,63,19,-82,19,-39,-87,-78,-78,-48
-29,-97,-68,63,19,-82,19,-39,-87,-78,-78,-53
-29,-97,-68,63,19,-82,19,-39,-87,-78,-78,-58
-29,-97,-68,63,19,-82,19,-39,-87,-78,-78,-58
-29,-97,-68,63,19,-82,19,-39,-87,-78,-78,-58
-29,-97,-68,63,19,-82,19,-39,-82,-78,-78,-58
-29,-97,-68,63,19,-82,19,-39,-78,-78,-78,-58
-29,-97,-68,63,19,-82,19,-39,-78,-78,-78,-58
-29,-97,-68,63,19,-82,19,-39,-78,-78,-78,-58
-29,-97,-68,63,19,-82,19,-43,-78,-78,-78,-58
-29,-97,-68,63,19,-82,19,-48,-78,-78,-78,-58
-24,-97,-73,61,24,-85,19,-48,-78,-78,-78,-58
-19,-97,-78,58,29,-87,19,-48,-78,-78,-78,-58
-19,-97,-78,58,29,-87,19,-48,-78,-78,-78,-58
-19,-97,-78,58,29,-87,19,-48,-78,-78,-78,-58
-24,-97,-73,61,24,-85,19,-48,-78,-78,-78,-58
-29,-97,-68,63,19,-82,19,-48,-78,-78,-78,-58
-29,-92,-63,61,17,-78,19,-48,-78,-82,-78,-58
-29,-87,-58,58,14,-73,19,-48,-78,-87,-78,-58
-24,-87,-63,56,19,-75,19,-48,-78,-87,-78,-58
-19,-87,-68,53,24,-78,19,-48,-78,-87,-78,-58
