I,II,III,aVR,aVL,aVF,V1,V2,V3,V4,V5,V6,
29,48,19,-39,4,34,-48,-78,-39,-4,24,29
29,48,19,-39,4,34,-48,-78,-39,-9,19,29
29,43,14,-36,7,29,-48,-82,-43,-9,19,29
29,39,9,-34,9,24,-48,-87,-48,-9,19,29
19,39,19,-29,0,29,-43,-87,-48,-9,19,24
9,39,29,-24,-9,34,-39,-87,-48,-9,19,19
9,39,29,-24,-9,34,-39,-87,-48,-9,14,19
9,39,29,-24,-9,34,-39,-87,-48,-9,9,19
9,39,29,-24,-9,34,-34,-87,-43,-9,9,24
9,39,29,-24,-9,34,-29,-87,-39,-9,9,29
9,39,29,-24,-9,34,-29,-82,-39,-9,9,29
9,39,29,-24,-9,34,-29,-78,-39,-9,9,29
14,39,24,-26,-4,31,-29,-78,-39,-9,9,24
19,39,19,-29,0,29,-29,-78,-39,-9,9,19
19,39,19,-29,0,29,-29,-78,-34,-9,9,19
19,39,19,-29,0,29,-29,-78,-29,-9,9,19
14,34,19,-24,-2,26,-29,-73,-24,-14,9,19
9,29,19,-19,-4,24,-29,-68,-19,-19,9,19
9,29,19,-19,-4,24,-24,-68,-19,-19,9,14
9,29,19,-19,-4,24,-19,-68,-19,-19,9,9
9,29,19,-19,-4,24,-19,-63,-19,-14,9,9
9,29,19,-19,-4,24,-19,-58,-19,-9,9,9
4,29,24,-17,-9,26,-14,-58,-19,-9,9,4
0,29,29,-14,-14,29,-9,-58,-19,-9,9,0
0,29,29,-14,-14,29,-9,-58,-19,-9,4,0
0,29,29,-14,-14,29,-9,-58,-19,-9,0,0
0,29,29,-14,-14,29,-9,-58,-19,-9,0,0
0,29,29,-14,-14,29,-9,-58,-19,-9,0,0
0,29,29,-14,-14,29,-9,-58,-14,-9,0,0
0,29,29,-14,-14,29,-9,-58,-9,-9,0,0
-4,29,34,-12,-19,31,-4,-53,-9,-9,0,0
-9,29,39,-9,-24,34,0,-48,-9,-9,0,0
-9,29,39,-9,-24,34,0,-48,-4,-9,0,0
-9,29,39,-9,-24,34,0,-48,0,-9,0,0
-9,29,39,-9,-24,34,0,-48,0,-4,0,0
-9,29,39,-9,-24,34,0,-48,0,0,0,0
-14,29,43,-7,-29,36,0,-43,0,0,0,0
-19,29,48,-4,-34,39,0,-39,0,0,0,0
-19,29,48,-4,-34,39,0,-39,4,0,4,0
-19,29,48,-4,-34,39,0,-39,9,0,9,0
-19,29,48,-4,-34,39,0,-39,9,0,9,0
-19,29,48,-4,-34,39,0,-39,9,0,9,0
-14,29,43,-7,-29,36,0,-39,4,0,9,0
-9,29,39,-9,-24,34,0,-39,0,0,9,0
-9,29,39,-9,-24,34,0,-43,-4,0,4,0
-9,29,39,-9,-24,34,0,-48,-9,0,0,0
-9,29,39,-9,-24,34,-4,-48,-9,0,0,0
-9,29,39,-9,-24,34,-9,-48,-9,0,0,0
-9,29,39,-9,-24,34,-9,-48,-14,0,0,0
-9,29,39,-9,-24,34,-9,-48,-19,0,0,0
-9,29,39,-9,-24,34,-9,-53,-19,-4,0,0
-9,29,39,-9,-24,34,-9,-58,-19,-9,0,0
-4,29,34,-12,-19,31,-14,-63,-24,-9,0,0
0,29,29,-14,-14,29,-19,-68,-29,-9,0,0
0,29,29,-14,-14,29,-19,-68,-34,-9,0,0
0,29,29,-14,-14,29,-19,-68,-39,-9,0,0
-4,29,34,-12,-19,31,-19,-73,-39,-14,0,0
-9,29,39,-9,-24,34,-19,-78,-39,-19,0,0
-9,29,39,-9,-24,34,-19,-82,-39,-19,-4,0
-9,29,39,-9,-24,34,-19,-87,-39,-19,-9,0
-9,29,39,-9,-24,34,-24,-92,-43,-19,-9,0
-9,29,39,-9,-24,34,-29,-97,-48,-19,-9,0
-9,29,39,-9,-24,34,-29,-97,-53,-24,-9,0
-9,29,39,-9,-24,34,-29,-97,-58,-29,-9,0
-14,29,43,-7,-29,36,-29,-97,-58,-29,-9,0
-19,29,48,-4,-34,39,-29,-97,-58,-29,-9,0
-19,29,48,-4,-34,39,-34,-102,-58,-29,-9,0
-19,29,48,-4,-34,39,-39,-107,-58,-29,-9,0
-14,29,43,-7,-29,36,-39,-107,-58,-29,-9,0
-9,29,39,-9,-24,34,-39,-107,-58,-29,-9,0
-9,29,39,-9,-24,34,-39,-112,-63,-34,-9,0
-9,29,39,-9,-24,34,-39,-117,-68,-39,-9,0
-9,24,34,-7,-21,29,-39,-117,-68,-39,-9,0
-9,19,29,-4,-19,24,-39,-117,-68,-39,-9,0
-9,19,29,-4,-19,24,-39,-117,-68,-39,-9,0
-9,19,29,-4,-19,24,-39,-117,-68,-39,-9,0
-9,19,29,-4,-19,24,-39,-117,-68,-39,-9,0
-9,19,29,-4,-19,24,-39,-117,-68,-39,-9,0
-9,19,29,-4,-19,24,-39,-117,-68,-39,-9,0
-9,19,29,-4,-19,24,-39,-117,-68,-39,-9,0
-14,19,34,-2,-24,26,-43,-117,-68,-39,-9,0
-19,19,39,0,-29,29,-48,-117,-68,-39,-9,0
-19,19,39,0,-29,29,-48,-117,-68,-39,-9,0
-19,19,39,0,-29,29,-48,-117,-68,-39,-9,0
-19,19,39,0,-29,29,-48,-122,-68,-39,-9,0
-19,19,39,0,-29,29,-48,-126,-68,-39,-9,0
-19,19,39,0,-29,29,-43,-126,-68,-39,-9,0
-19,19,39,0,-29,29,-39,-126,-68,-39,-9,0
-19,19,39,0,-29,29,-39,-126,-68,-39,-9,0
-19,19,39,0,-29,29,-39,-126,-68,-39,-9,0
-19,19,39,0,-29,29,-43,-126,-68,-43,-9,-4
-19,19,39,0,-29,29,-48,-126,-68,-48,-9,-9
-14,19,34,-2,-24,26,-48,-126,-73,-48,-9,-9
-9,19,29,-4,-19,24,-48,-126,-78,-48,-9,-9
-9,19,29,-4,-19,24,-48,-126,-78,-43,-9,-4
-9,19,29,-4,-19,24,-48,-126,-78,-39,-9,0
-9,19,29,-4,-19,24,-48,-126,-78,-39,-9,0
-9,19,29,-4,-19,24,-48,-126,-78,-39,-9,0
-14,19,34,-2,-24,26,-48,-126,-78,-39,-9,0
-19,19,39,0,-29,29,-48,-126,-78,-39,-9,0
-19,19,39,0,-29,29,-48,-131,-78,-39,-9,0
-19,19,39,0,-29,29,-48,-136,-78,-39,-9,0
-14,19,34,-2,-24,26,-48,-136,-78,-39,-9,0
-9,19,29,-4,-19,24,-48,-136,-78,-39,-9,0
-9,14,24,-2,-17,19,-48,-136,-78,-39,-9,0
-9,9,19,0,-14,14,-48,-136,-78,-39,-9,0
-9,9,19,0,-14,14,-48,-136,-78,-39,-9,0
-9,9,19,0,-14,14,-48,-136,-78,-39,-9,0
-9,14,24,-2,-17,19,-48,-136,-78,-39,-9,0
-9,19,29,-4,-19,24,-48,-136,-78,-39,-9,0
-9,19,29,-4,-19,24,-48,-136,-78,-39,-9,0
-9,19,29,-4,-19,24,-48,-136,-78,-39,-9,0
-14,19,34,-2,-24,26,-48,-136,-78,-39,-9,0
-19,19,39,0,-29,29,-48,-136,-78,-39,-9,0
-19,19,39,0,-29,29,-48,-136,-78,-39,-9,0
-19,19,39,0,-29,29,-48,-136,-78,-39,-9,0
-19,19,39,0,-29,29,-48,-136,-78,-43,-9,0
-19,19,39,0,-29,29,-48,-136,-78,-48,-9,0
-19,19,39,0,-29,29,-48,-136,-78,-48,-9,0
-19,19,39,0,-29,29,-48,-136,-78,-48,-9,0
-19,19,39,0,-29,29,-48,-131,-78,-43,-9,0
-19,19,39,0,-29,29,-48,-126,-78,-39,-9,0
-19,19,39,0,-29,29,-48,-126,-78,-39,-9,0
-19,19,39,0,-29,29,-48,-126,-78,-39,-9,0
-19,19,39,0,-29,29,-48,-131,-78,-39,-9,0
-19,19,39,0,-29,29,-48,-136,-78,-39,-9,0
-19,19,39,0,-29,29,-48,-136,-78,-39,-9,0
-19,19,39,0,-29,29,-48,-136,-78,-39,-9,0
-19,19,39,0,-29,29,-48,-136,-78,-39,-9,0
-19,19,39,0,-29,29,-48,-136,-78,-39,-9,0
-19,19,39,0,-29,29,-48,-136,-78,-39,-9,0
-19,19,39,0,-29,29,-48,-136,-78,-39,-9,0
-14,19,34,-2,-24,26,-48,-136,-78,-39,-9,0
-9,19,29,-4,-19,24,-48,-136,-78,-39,-9,0
-9,19,29,-4,-19,24,-48,-136,-78,-39,-9,0
-9,19,29,-4,-19,24,-48,-136,-78,-39,-9,0
-9,24,34,-7,-21,29,-48,-136,-82,-39,-9,-4
-9,29,39,-9,-24,34,-48,-136,-87,-39,-9,-9
-9,29,39,-9,-24,34,-48,-136,-87,-39,-9,-9
-9,29,39,-9,-24,34,-48,-136,-87,-39,-9,-9
-14,24,39,-4,-26,31,-48,-136,-82,-39,-9,-9
-19,19,39,0,-29,29,-48,-136,-78,-39,-9,-9
-19,19,39,0,-29,29,-48,-136,-78,-39,-9,-4
-19,19,39,0,-29,29,-48,-136,-78,-39,-9,0
-19,19,39,0,-29,29,-48,-136,-78,-39,-9,0
-19,19,39,0,-29,29,-48,-136,-78,-39,-9,0
-14,24,39,-4,-26,31,-48,-131,-78,-39,-9,0
-9,29,39,-9,-24,34,-48,-126,-78,-39,-9,0
-4,34,39,-14,-21,36,-43,-126,-73,-34,-9,0
0,39,39,-19,-19,39,-39,-126,-68,-29,-9,0
0,48,48,-24,-24,48,-34,-112,-53,-24,4,9
0,58,58,-29,-29,58,-29,-97,-39,-19,19,19
0,68,68,-34,-34,68,-19,-92,-34,-9,24,19
0,78,78,-39,-39,78,-9,-87,-29,0,29,19
4,82,78,-43,-36,80,-4,-82,-24,0,29,19
9,87,78,-48,-34,82,0,-78,-19,0,29,19
14,92,78,-53,-31,85,0,-68,-9,4,34,24
19,97,78,-58,-29,87,0,-58,0,9,39,29
34,107,73,-70,-19,90,-4,-58,0,19,43,29
48,117,68,-82,-9,92,-9,-58,0,29,48,29
48,126,78,-87,-14,102,-19,-63,0,29,48,43
48,136,87,-92,-19,112,-29,-68,0,29,48,58
48,136,87,-92,-19,112,-48,-87,-9,24,48,58
48,136,87,-92,-19,112,-68,-107,-19,19,48,58
48,136,87,-92,-19,112,-78,-112,-34,14,48,58
43,136,92,-90,-24,114,-82,-112,-39,9,48,58
43,136,92,-90,-24,114,-87,-117,-48,4,48,58
48,146,97,-97,-24,122,-92,-117,-48,9,58,63
48,156,107,-102,-29,131,-92,-122,-48,9,58,68
48,141,92,-95,-21,117,-92,-131,-63,4,53,68
43,117,73,-80,-14,95,-87,-141,-78,-9,39,48
39,97,58,-68,-9,78,-87,-141,-82,-19,19,39
19,68,48,-43,-14,58,-78,-141,-82,-24,9,29
0,53,53,-26,-26,53,-73,-141,-82,-29,4,14
-4,58,63,-26,-34,61,-63,-141,-82,-29,9,19
-14,48,63,-17,-39,56,-63,-141,-82,-34,4,14
-14,39,53,-12,-34,46,-58,-141,-87,-39,-4,4
-14,34,48,-9,-31,41,-58,-146,-92,-43,-9,-4
-24,19,43,2,-34,31,-58,-156,-102,-58,-24,-9
-34,4,39,14,-36,21,-58,-161,-102,-58,-29,-14
-39,4,43,17,-41,24,-58,-161,-107,-58,-29,-14
-39,4,43,17,-41,24,-58,-161,-107,-58,-29,-14
-34,4,39,14,-36,21,-63,-161,-107,-58,-29,-9
-34,0,34,17,-34,17,-68,-156,-107,-58,-24,-4
-34,0,34,17,-34,17,-68,-156,-107,-58,-24,-4
-34,0,34,17,-34,17,-68,-156,-107,-58,-24,-4
-34,0,34,17,-34,17,-68,-156,-107,-58,-24,-9
-34,0,34,17,-34,17,-68,-161,-107,-63,-24,-14
-34,0,34,17,-34,17,-63,-161,-107,-63,-29,-14
-34,0,34,17,-34,17,-58,-161,-107,-63,-34,-14
-34,-4,29,19,-31,12,-58,-156,-107,-63,-34,-14
-34,-9,24,21,-29,7,-58,-156,-107,-63,-34,-14
-39,-9,29,24,-34,9,-58,-156,-107,-63,-34,-14
-43,-9,34,26,-39,12,-58,-156,-107,-63,-34,-14
-39,-9,29,24,-34,9,-58,-156,-107,-63,-34,-14
-39,-9,29,24,-34,9,-58,-156,-107,-63,-34,-14
-34,-9,24,21,-29,7,-58,-156,-102,-58,-29,-14
-34,-9,24,21,-29,7,-58,-156,-97,-53,-24,-14
-39,-4,34,21,-36,14,-58,-156,-92,-53,-19,-9
-58,-4,53,31,-56,24,-34,-165,-92,-73,-34,-19
-141,-9,131,75,-136,61,39,-214,-82,-107,-68,-53
-239,-34,204,136,-222,85,146,-268,-78,-180,-126,-107
-287,-92,195,190,-241,51,248,-248,-63,-229,-190,-185
-273,-73,200,173,-236,63,297,-170,4,-175,-151,-185
-204,9,214,97,-209,112,326,48,190,29,-24,-117
-73,190,263,-58,-168,226,341,317,429,326,190,19
151,434,283,-292,-65,358,253,424,541,600,453,229
448,683,234,-566,107,458,97,507,595,902,722,448
722,839,117,-780,302,478,-141,507,522,1049,878,658
800,854,53,-827,373,453,-434,156,258,912,883,795
619,736,117,-678,251,427,-639,-346,39,639,795,893
614,253,-361,-434,488,-53,-824,-561,-405,273,536,824
644,-278,-922,-183,783,-600,-1029,-907,-995,-297,102,580
522,-702,-1224,90,873,-963,-1083,-1390,-1439,-790,-312,244
214,-849,-1063,317,639,-956,-912,-1581,-1517,-1029,-522,9
-29,-790,-761,409,366,-775,-678,-1366,-1327,-936,-512,-73
-107,-600,-492,353,192,-546,-424,-927,-902,-649,-370,-73
-117,-463,-346,290,114,-405,-214,-531,-556,-434,-287,-102
-117,-346,-229,231,56,-287,-97,-287,-317,-283,-229,-136
-92,-229,-136,161,21,-183,-78,-185,-204,-185,-146,-112
-58,-170,-112,114,26,-141,-19,-78,-122,-126,-122,-97
-53,-146,-92,100,19,-119,19,-39,-87,-107,-112,-78
-48,-97,-48,73,0,-73,34,0,-34,-73,-82,-63
-48,-58,-9,53,-19,-34,24,0,-29,-58,-58,-58
-48,-58,-9,53,-19,-34,24,0,-24,-58,-58,-58
-48,-73,-24,61,-12,-48,39,4,-19,-58,-63,-58
-48,-63,-14,56,-17,-39,39,19,-4,-58,-63,-58
-48,-48,0,48,-24,-24,39,19,0,-48,-63,-58
-43,-48,-4,46,-19,-26,39,19,0,-48,-53,-58
-43,-48,-4,46,-19,-26,39,19,0,-48,-53,-58
-43,-48,-4,46,-19,-26,43,24,0,-43,-53,-53
-48,-43,4,46,-26,-19,43,29,-4,-43,-53,-53
-48,-43,4,46,-26,-19,48,34,0,-39,-53,-53
-48,-39,9,43,-29,-14,53,39,0,-34,-53,-58
-43,-39,4,41,-24,-17,53,39,4,-34,-53,-58
-43,-39,4,41,-24,-17,53,43,9,-34,-53,-58
-43,-39,4,41,-24,-17,53,43,9,-34,-53,-58
-43,-43,0,43,-21,-21,53,43,14,-39,-53,-58
-48,-43,4,46,-26,-19,53,43,14,-39,-48,-58
-53,-48,4,51,-29,-21,58,48,14,-39,-43,-58
-58,-48,9,53,-34,-19,58,53,19,-34,-43,-58
-58,-48,9,53,-34,-19,58,53,19,-29,-43,-58
-58,-48,9,53,-34,-19,63,53,19,-29,-43,-58
-58,-48,9,53,-34,-19,63,53,24,-29,-43,-58
-58,-48,9,53,-34,-19,58,58,29,-34,-48,-63
-58,-53,4,56,-31,-24,58,58,29,-34,-58,-63
-58,-53,4,56,-31,-24,58,63,34,-34,-58,-63
-58,-53,4,56,-31,-24,58,63,34,-34,-58,-63
-58,-53,4,56,-31,-24,68,68,39,-34,-58,-68
-58,-53,4,56,-31,-24,73,73,39,-34,-58,-68
-68,-53,14,61,-41,-19,73,73,43,-34,-58,-68
-68,-58,9,63,-39,-24,78,78,48,-34,-58,-68
-68,-58,9,63,-39,-24,82,87,48,-34,-58,-73
-73,-58,14,65,-43,-21,87,92,53,-34,-63,-78
-73,-63,9,68,-41,-26,87,97,53,-29,-58,-78
-73,-63,9,68,-41,-26,92,102,58,-24,-53,-78
-78,-63,14,70,-46,-24,92,112,58,-24,-53,-78
-78,-68,9,73,-43,-29,97,117,63,-24,-58,-82
-78,-68,9,73,-43,-29,102,122,68,-29,-63,-82
-78,-73,4,75,-41,-34,102,131,78,-34,-68,-82
-78,-73,4,75,-41,-34,107,141,82,-29,-68,-82
-82,-73,9,78,-46,-31,112,151,87,-29,-68,-87
-82,-68,14,75,-48,-26,122,161,92,-24,-68,-87
-82,-68,14,75,-48,-26,122,170,97,-24,-73,-92
-82,-68,14,75,-48,-26,126,180,102,-14,-73,-92
-82,-68,14,75,-48,-26,136,195,112,-9,-73,-92
-82,-73,9,78,-46,-31,141,209,126,-4,-73,-92
-82,-78,4,80,-43,-36,146,224,141,0,-73,-97
-82,-78,4,80,-43,-36,151,244,151,0,-73,-97
-87,-82,4,85,-46,-39,161,258,156,4,-73,-97
-87,-87,0,87,-43,-43,170,283,170,9,-73,-97
-87,-87,0,87,-43,-43,180,302,180,14,-73,-102
-87,-87,0,87,-43,-43,190,331,195,19,-73,-102
-87,-92,-4,90,-41,-48,190,356,204,29,-73,-112
-87,-92,-4,90,-41,-48,200,385,224,39,-73,-112
-82,-92,-9,87,-36,-51,214,414,239,43,-73,-112
-82,-92,-9,87,-36,-51,224,444,244,53,-73,-112
-78,-92,-14,85,-31,-53,234,478,263,58,-73,-112
-68,-97,-29,82,-19,-63,239,507,278,63,-73,-117
-63,-97,-34,80,-14,-65,244,546,292,73,-73,-117
-63,-97,-34,80,-14,-65,253,580,312,82,-68,-117
-63,-102,-39,82,-12,-70,253,624,326,92,-68,-122
-53,-102,-48,78,-2,-75,263,663,351,107,-68,-122
-53,-102,-48,78,-2,-75,268,707,366,126,-63,-122
-53,-102,-48,78,-2,-75,268,751,390,136,-58,-117
-43,-102,-58,73,7,-80,273,790,409,156,-53,-117
-34,-97,-63,65,14,-80,278,834,419,165,-48,-112
-24,-87,-63,56,19,-75,278,863,439,185,-39,-107
-14,-82,-68,48,26,-75,273,893,453,200,-29,-97
-14,-78,-63,46,24,-70,273,912,463,219,-19,-87
0,-68,-68,34,34,-68,263,932,473,239,-9,-73
19,-53,-73,17,46,-63,248,927,473,244,4,-63
24,-39,-63,7,43,-51,234,927,473,258,19,-53
34,-29,-63,-2,48,-46,214,907,458,253,29,-39
43,-14,-58,-14,51,-36,190,873,453,253,39,-29
48,4,-43,-26,46,-19,161,834,434,258,48,-14
48,24,-24,-36,36,0,141,780,400,258,58,4
53,34,-19,-43,36,7,112,712,370,248,68,19
58,58,0,-58,29,29,87,634,336,239,73,24
63,68,4,-65,29,36,68,551,302,229,78,43
63,82,19,-73,21,51,39,473,268,214,87,48
63,87,24,-75,19,56,24,405,234,195,92,58
63,92,29,-78,17,61,9,336,204,180,97,68
63,92,29,-78,17,61,0,268,170,165,97,73
58,97,39,-78,9,68,-14,219,136,146,92,73
53,97,43,-75,4,70,-24,165,117,126,87,73
53,92,39,-73,7,65,-29,122,92,107,82,73
48,82,34,-65,7,58,-34,82,73,97,73,78
48,78,29,-63,9,53,-43,48,48,82,63,73
48,73,24,-61,12,48,-43,24,34,68,63,68
43,68,24,-56,9,46,-43,0,19,58,58,63
39,63,24,-51,7,43,-43,-24,14,48,48,53
34,53,19,-43,7,36,-43,-34,4,39,43,53
19,48,29,-34,-4,39,-43,-39,-4,29,39,53
19,53,34,-36,-7,43,-43,-53,-14,19,34,53
19,53,34,-36,-7,43,-43,-63,-19,9,34,48
19,48,29,-34,-4,39,-43,-68,-24,9,29,43
14,48,34,-31,-9,41,-43,-78,-24,4,24,43
9,39,29,-24,-9,34,-39,-78,-24,4,19,43
9,34,24,-21,-7,29,-29,-78,-29,4,19,39
9,34,24,-21,-7,29,-29,-82,-29,-4,19,34
9,34,24,-21,-7,29,-29,-82,-29,-9,14,24
9,29,19,-19,-4,24,-34,-82,-29,-19,9,24
9,29,19,-19,-4,24,-39,-82,-34,-19,9,19
9,29,19,-19,-4,24,-39,-87,-34,-19,4,24
4,29,24,-17,-9,26,-34,-87,-34,-19,0,29
4,24,19,-14,-7,21,-34,-87,-34,-19,0,24
4,14,9,-9,-2,12,-29,-82,-39,-19,-4,24
4,14,9,-9,-2,12,-29,-82,-39,-19,0,19
-4,9,14,-2,-9,12,-29,-82,-34,-24,4,14
-4,4,9,0,-7,7,-24,-82,-34,-24,0,14
-4,4,9,0,-7,7,-19,-78,-29,-24,0,14
-4,4,9,0,-7,7,-19,-78,-29,-19,0,19
-4,4,9,0,-7,7,-19,-73,-24,-14,0,24
-9,4,14,2,-12,9,-14,-68,-24,-9,0,24
-9,4,14,2,-12,9,-14,-68,-19,-9,0,19
-14,4,19,4,-17,12,-14,-73,-19,-14,-4,14
-14,4,19,4,-17,12,-9,-68,-19,-19,-9,4
-14,4,19,4,-17,12,-9,-68,-19,-19,-9,4
-14,4,19,4,-17,12,-9,-68,-14,-19,-9,4
-19,4,24,7,-21,14,-4,-58,-14,-14,-9,4
-19,4,24,7,-21,14,-4,-53,-9,-4,-4,4
-19,4,24,7,-21,14,-4,-48,0,-4,0,4
-29,4,34,12,-31,19,0,-48,4,0,4,4
-29,4,34,12,-31,19,0,-43,4,0,4,4
-24,4,29,9,-26,17,0,-39,9,4,4,4
-24,4,29,9,-26,17,0,-39,14,4,4,4
-24,4,29,9,-26,17,0,-34,14,4,4,4
-19,4,24,7,-21,14,4,-29,14,4,4,0
-14,4,19,4,-17,12,4,-24,14,0,4,0
-14,4,19,4,-17,12,0,-24,19,0,4,0
-14,4,19,4,-17,12,0,-24,19,4,4,0
-14,4,19,4,-17,12,0,-19,19,9,9,0
-19,4,24,7,-21,14,0,-19,19,14,9,4
-24,4,29,9,-26,17,0,-14,24,14,9,9
-29,4,34,12,-31,19,0,-9,24,19,14,14
-29,9,39,9,-34,24,0,-4,24,14,14,14
-29,14,43,7,-36,29,0,-4,24,9,14,14
-24,14,39,4,-31,26,0,-14,14,9,14,9
-19,14,34,2,-26,24,-4,-19,9,9,9,4
-19,4,24,7,-21,14,-4,-19,9,9,9,4
-19,-4,14,12,-17,4,-4,-24,4,9,14,4
-19,-4,14,12,-17,4,-4,-24,4,14,14,4
-19,-4,14,12,-17,4,0,-29,4,19,14,4
-24,0,24,12,-24,12,0,-29,0,14,9,4
-24,0,24,12,-24,12,0,-39,0,14,4,4
-19,0,19,9,-19,9,-4,-39,-4,14,0,-4
-19,0,19,9,-19,9,-4,-43,-9,14,0,-9
-19,0,19,9,-19,9,-9,-48,-9,9,0,-9
-14,0,14,7,-14,7,-14,-48,-9,4,0,-9
-14,0,14,7,-14,7,-19,-48,-9,4,0,-4
-19,-4,14,12,-17,4,-19,-53,-4,4,0,0
-19,-4,14,12,-17,4,-14,-63,-9,0,0,0
-19,-4,14,12,-17,4,-9,-63,-14,-9,-4,0
-19,-4,14,12,-17,4,-9,-73,-14,-9,-4,0
-19,-4,14,12,-17,4,-14,-73,-19,-9,-9,0
-19,-4,14,12,-17,4,-19,-73,-24,-14,-9,0
-19,-9,9,14,-14,0,-24,-73,-24,-14,-9,-4
-14,-9,4,12,-9,-2,-24,-78,-24,-14,-9,-4
-14,-4,9,9,-12,2,-24,-78,-24,-14,-9,0
-14,-4,9,9,-12,2,-24,-87,-29,-14,-4,0
-14,-4,9,9,-12,2,-24,-87,-34,-9,0,-4
-19,-9,9,14,-14,0,-19,-87,-34,-9,0,0
-19,-9,9,14,-14,0,-19,-87,-34,-9,0,4
-19,-9,9,14,-14,0,-19,-92,-34,-14,0,4
-19,-9,9,14,-14,0,-19,-92,-34,-14,0,4
-19,-9,9,14,-14,0,-19,-92,-39,-14,0,0
-19,-9,9,14,-14,0,-19,-92,-39,-14,0,-4
-19,-14,4,17,-12,-4,-19,-92,-39,-14,0,-4
-19,-19,0,19,-9,-9,-19,-87,-39,-19,0,-4
-19,-19,0,19,-9,-9,-24,-87,-39,-19,0,-4
-19,-19,0,19,-9,-9,-24,-87,-39,-19,0,-4
-19,-19,0,19,-9,-9,-24,-92,-43,-19,0,-4
-19,-19,0,19,-9,-9,-24,-92,-48,-19,-4,-4
-14,-14,0,14,-7,-7,-24,-92,-48,-19,0,0
-9,-9,0,9,-4,-4,-29,-97,-48,-19,0,0
-14,-9,4,12,-9,-2,-29,-97,-48,-24,-4,0
-19,-9,9,14,-14,0,-29,-97,-48,-29,-9,0
-19,-14,4,17,-12,-4,-29,-97,-48,-29,-9,0
-19,-19,0,19,-9,-9,-29,-97,-48,-29,-9,0
-19,-19,0,19,-9,-9,-29,-97,-48,-29,-9,0
-19,-19,0,19,-9,-9,-29,-97,-48,-29,-9,0
-19,-19,0,19,-9,-9,-29,-97,-48,-29,-9,0
-19,-19,0,19,-9,-9,-29,-97,-48,-29,-9,0
-19,-19,0,19,-9,-9,-34,-97,-48,-24,-9,0
-19,-19,0,19,-9,-9,-39,-97,-48,-19,-9,0
-19,-19,0,19,-9,-9,-39,-102,-53,-19,-9,-4
-19,-19,0,19,-9,-9,-39,-107,-58,-19,-9,-9
-19,-19,0,19,-9,-9,-34,-107,-58,-24,-9,-9
-19,-19,0,19,-9,-9,-29,-107,-58,-29,-9,-9
-19,-19,0,19,-9,-9,-29,-107,-58,-29,-9,-9
-19,-19,0,19,-9,-9,-29,-107,-58,-29,-9,-9
-24,-19,4,21,-14,-7,-29,-107,-58,-29,-9,-9
-29,-19,9,24,-19,-4,-29,-107,-58,-29,-9,-9
-29,-19,9,24,-19,-4,-29,-107,-58,-29,-9,-9
-29,-19,9,24,-19,-4,-29,-107,-58,-29,-9,-9
-24,-19,4,21,-14,-7,-29,-107,-58,-29,-9,-9
-19,-19,0,19,-9,-9,-29,-107,-58,-29,-9,-9
-19,-19,0,19,-9,-9,-29,-107,-58,-29,-9,-9
-19,-19,0,19,-9,-9,-29,-107,-58,-29,-9,-9
-19,-19,0,19,-9,-9,-29,-107,-58,-29,-9,-9
-19,-19,0,19,-9,-9,-29,-107,-58,-29,-9,-9
-19,-19,0,19,-9,-9,-29,-107,-58,-29,-9,-14
-19,-19,0,19,-9,-9,-29,-107,-58,-29,-9,-19
-19,-19,0,19,-9,-9,-34,-107,-58,-29,-9,-19
-19,-19,0,19,-9,-9,-39,-107,-58,-29,-9,-19
-14,-19,-4,17,-4,-12,-39,-107,-58,-29,-9,-14
-9,-19,-9,14,0,-14,-39,-107,-58,-29,-9,-9
-9,-19,-9,14,0,-14,-39,-107,-58,-29,-9,-9
-9,-19,-9,14,0,-14,-39,-107,-58,-29,-9,-9
-14,-19,-4,17,-4,-12,-39,-107,-58,-29,-9,-9
-19,-19,0,19,-9,-9,-39,-107,-58,-29,-9,-9
-19,-19,0,19,-9,-9,-39,-107,-63,-29,-9,-9
-19,-19,0,19,-9,-9,-39,-107,-68,-29,-9,-9
-14,-19,-4,17,-4,-12,-39,-112,-68,-29,-9,-14
-9,-19,-9,14,0,-14,-39,-117,-68,-29,-9,-19
-9,-19,-9,14,0,-14,-39,-117,-63,-29,-9,-19
-9,-19,-9,14,0,-14,-39,-117,-58,-29,-9,-19
-14,-19,-4,17,-4,-12,-39,-117,-58,-29,-9,-14
-19,-19,0,19,-9,-9,-39,-117,-58,-29,-9,-9
-19,-19,0,19,-9,-9,-39,-117,-63,-29,-9,-9
-19,-19,0,19,-9,-9,-39,-117,-68,-29,-9,-9
-19,-19,0,19,-9,-9,-39,-117,-68,-29,-9,-9
-19,-19,0,19,-9,-9,-39,-117,-68,-29,-9,-9
-19,-19,0,19,-9,-9,-39,-117,-68,-29,-9,-9
-19,-19,0,19,-9,-9,-39,-117,-68,-29,-9,-9
-19,-19,0,19,-9,-9,-39,-117,-68,-29,-9,-9
-19,-19,0,19,-9,-9,-39,-117,-68,-29,-9,-9
-19,-19,0,19,-9,-9,-39,-117,-68,-29,-9,-9
-19,-19,0,19,-9,-9,-39,-117,-68,-29,-9,-9
-19,-19,0,19,-9,-9,-39,-117,-68,-29,-9,-9
-19,-19,0,19,-9,-9,-39,-117,-68,-29,-9,-9
-19,-19,0,19,-9,-9,-39,-117,-68,-29,-9,-9
-19,-19,0,19,-9,-9,-39,-117,-68,-29,-9,-9
-14,-19,-4,17,-4,-12,-39,-117,-68,-29,-9,-9
-9,-19,-9,14,0,-14,-39,-117,-68,-29,-9,-9
-9,-14,-4,12,-2,-9,-39,-117,-68,-29,-9,-9
-9,-9,0,9,-4,-4,-39,-117,-68,-29,-9,-9
-9,-9,0,9,-4,-4,-34,-117,-68,-34,-9,-9
-9,-9,0,9,-4,-4,-29,-117,-68,-39,-9,-9
-9,-9,0,9,-4,-4,-29,-117,-68,-39,-9,-9
-9,-9,0,9,-4,-4,-29,-117,-68,-39,-9,-9
-9,0,9,4,-9,4,-29,-112,-63,-29,-4,-4
-9,9,19,0,-14,14,-29,-107,-58,-19,0,0
-4,24,29,-9,-17,26,-19,-97,-43,-14,9,4
0,39,39,-19,-19,39,-9,-87,-29,-9,19,9
4,43,39,-24,-17,41,-4,-87,-29,-4,19,9
9,48,39,-29,-14,43,0,-87,-29,0,19,9
9,48,39,-29,-14,43,4,-73,-19,4,24,14
9,48,39,-29,-14,43,9,-58,-9,9,29,19
19,53,34,-36,-7,43,9,-48,-4,14,34,19
29,58,29,-43,0,43,9,-39,0,19,39,19
34,68,34,-51,0,51,9,-39,0,24,39,24
39,78,39,-58,0,58,9,-39,0,29,39,29
39,87,48,-63,-4,68,0,-53,0,29,43,34
39,97,58,-68,-9,78,-9,-68,0,29,48,39
39,97,58,-68,-9,78,-34,-82,-9,24,48,43
39,97,58,-68,-9,78,-48,-92,-19,14,48,43
39,97,58,-68,-9,78,-68,-102,-29,9,48,48
39,97,58,-68,-9,78,-68,-107,-29,4,48,48
53,112,58,-82,-2,85,-78,-107,-29,9,58,53
58,126,68,-92,-4,97,-82,-112,-29,9,58,58
58,112,53,-85,2,82,-82,-122,-48,4,53,58
53,87,34,-70,9,61,-78,-131,-68,-9,43,43
48,68,19,-58,14,43,-78,-131,-73,-19,29,39
29,39,9,-34,9,24,-68,-131,-73,-24,19,29
9,24,14,-17,-2,19,-63,-131,-73,-29,14,14
4,24,19,-14,-7,21,-53,-131,-73,-29,14,14
-4,9,14,-2,-9,12,-53,-131,-73,-29,4,4
-4,0,4,2,-4,2,-48,-131,-78,-29,-4,-4
-9,-4,4,7,-7,0,-48,-136,-82,-34,-9,-14
-19,-14,4,17,-12,-4,-48,-146,-92,-48,-19,-19
-24,-29,-4,26,-9,-17,-48,-151,-92,-53,-19,-24
-29,-34,-4,31,-12,-19,-48,-151,-97,-58,-19,-24
-29,-34,-4,31,-12,-19,-48,-151,-97,-58,-19,-24
-24,-34,-9,29,-7,-21,-48,-151,-97,-58,-24,-24
-24,-39,-14,31,-4,-26,-48,-146,-97,-58,-24,-24
-24,-39,-14,31,-4,-26,-48,-146,-97,-58,-24,-24
-24,-39,-14,31,-4,-26,-48,-146,-97,-58,-24,-24
-24,-39,-14,31,-4,-26,-48,-146,-97,-58,-24,-24
-24,-39,-14,31,-4,-26,-48,-151,-97,-63,-24,-24
-24,-39,-14,31,-4,-26,-48,-151,-97,-63,-24,-24
-24,-39,-14,31,-4,-26,-48,-151,-97,-63,-24,-24
-24,-39,-14,31,-4,-26,-48,-146,-97,-63,-24,-24
-24,-39,-14,31,-4,-26,-48,-146,-97,-63,-24,-24
-24,-39,-14,31,-4,-26,-48,-146,-97,-63,-24,-24
-24,-39,-14,31,-4,-26,-48,-146,-97,-63,-29,-24
-19,-39,-19,29,0,-29,-48,-146,-97,-63,-34,-24
-14,-39,-24,26,4,-31,-48,-146,-97,-63,-34,-24
-9,-39,-29,24,9,-34,-48,-146,-97,-63,-34,-24
-14,-39,-24,26,4,-31,-48,-141,-97,-58,-29,-24
-19,-39,-19,29,0,-29,-48,-136,-92,-53,-24,-24
-19,-39,-19,29,0,-29,-48,-146,-92,-63,-34,-34
-78,-39,39,58,-58,0,0,-190,-82,-92,-58,-63
-195,-63,131,129,-163,34,122,-258,-92,-200,-131,-117
-268,-122,146,195,-207,12,239,-258,-92,-278,-209,-195
-268,-141,126,204,-197,-7,297,-224,-58,-273,-214,-229
-229,-97,131,163,-180,17,336,-48,92,-117,-126,-195
-151,68,219,41,-185,143,380,263,366,180,78,-82
19,302,283,-161,-131,292,331,424,522,473,331,107
317,595,278,-456,19,436,224,590,653,883,663,346
619,795,175,-707,222,485,24,663,653,1137,897,575
766,917,151,-841,307,534,-287,322,434,1083,980,761
644,917,273,-780,185,595,-517,-200,253,893,971,932
658,458,-200,-558,429,129,-736,-419,-161,600,780,966
702,-82,-785,-309,744,-434,-971,-727,-736,43,370,780
610,-629,-1239,9,924,-934,-1083,-1307,-1346,-634,-161,385
331,-902,-1234,285,783,-1068,-976,-1629,-1610,-1054,-492,82
39,-902,-941,431,490,-922,-756,-1512,-1512,-1044,-546,-58
-82,-736,-653,409,285,-695,-512,-1137,-1122,-795,-439,-92
-97,-575,-478,336,190,-527,-263,-663,-702,-546,-346,-122
-107,-434,-326,270,109,-380,-107,-356,-409,-361,-273,-151
-82,-292,-209,187,63,-251,-87,-234,-268,-229,-175,-122
-53,-219,-165,136,56,-192,-29,-102,-151,-141,-136,-107
-53,-195,-141,124,43,-168,19,-43,-97,-112,-122,-87
-48,-141,-92,95,21,-117,43,9,-34,-73,-92,-73
-43,-92,-48,68,2,-70,34,9,-24,-58,-63,-68
-39,-87,-48,63,4,-68,34,9,-19,-58,-58,-68
-39,-102,-63,70,12,-82,48,14,-19,-58,-63,-68
-39,-92,-53,65,7,-73,48,29,-4,-58,-63,-68
-43,-78,-34,61,-4,-56,48,29,0,-48,-63,-63
-43,-78,-34,61,-4,-56,48,29,0,-48,-53,-58
-43,-78,-34,61,-4,-56,48,29,0,-48,-53,-58
-39,-78,-39,58,0,-58,53,34,4,-43,-53,-53
-39,-73,-34,56,-2,-53,53,39,4,-43,-53,-53
-39,-73,-34,56,-2,-53,53,39,9,-43,-53,-53
-39,-68,-29,53,-4,-48,53,34,9,-43,-53,-58
-39,-68,-29,53,-4,-48,53,29,9,-43,-53,-58
-43,-68,-24,56,-9,-46,53,34,9,-43,-53,-58
-43,-68,-24,56,-9,-46,53,34,9,-39,-53,-58
-43,-68,-24,56,-9,-46,53,39,14,-39,-53,-63
-43,-63,-19,53,-12,-41,53,43,14,-39,-53,-68
-39,-68,-29,53,-4,-48,58,48,14,-39,-53,-68
-39,-68,-29,53,-4,-48,58,53,19,-39,-53,-68
-39,-68,-29,53,-4,-48,58,53,19,-39,-53,-68
-39,-68,-29,53,-4,-48,63,53,19,-39,-53,-68
-43,-68,-24,56,-9,-46,63,53,24,-39,-53,-63
-48,-68,-19,58,-14,-43,63,58,29,-39,-53,-63
-48,-68,-19,58,-14,-43,63,58,29,-34,-58,-63
-48,-63,-14,56,-17,-39,58,63,34,-34,-58,-63
-48,-63,-14,56,-17,-39,58,63,34,-34,-58,-68
-48,-63,-14,56,-17,-39,63,68,39,-34,-58,-78
-43,-63,-19,53,-12,-41,63,73,39,-34,-58,-78
-48,-63,-14,56,-17,-39,63,73,43,-34,-58,-78
-48,-68,-19,58,-14,-43,68,73,48,-34,-58,-78
-48,-68,-19,58,-14,-43,73,78,48,-34,-58,-82
-53,-68,-14,61,-19,-41,78,82,53,-34,-63,-87
-53,-73,-19,63,-17,-46,78,87,53,-34,-63,-87
-53,-73,-19,63,-17,-46,82,92,58,-34,-63,-87
-58,-73,-14,65,-21,-43,82,102,58,-34,-63,-87
-58,-78,-19,68,-19,-48,87,107,63,-34,-68,-92
-58,-78,-19,68,-19,-48,92,112,68,-34,-68,-92
-58,-82,-24,70,-17,-53,92,122,78,-34,-73,-92
-58,-82,-24,70,-17,-53,97,131,82,-29,-78,-92
-63,-82,-19,73,-21,-51,102,141,87,-29,-78,-97
-63,-82,-19,73,-21,-51,112,151,92,-24,-78,-97
-63,-92,-29,78,-17,-61,112,161,97,-24,-82,-102
-63,-97,-34,80,-14,-65,117,170,102,-19,-82,-102
-63,-97,-34,80,-14,-65,126,185,112,-19,-78,-102
-63,-97,-34,80,-14,-65,131,200,122,-14,-73,-102
-68,-97,-29,82,-19,-63,136,214,131,-9,-73,-107
-73,-97,-24,85,-24,-61,141,234,141,-9,-73,-107
-78,-102,-24,90,-26,-63,151,248,146,-4,-78,-107
-78,-107,-29,92,-24,-68,161,273,161,0,-82,-107
-78,-107,-29,92,-24,-68,170,292,165,0,-82,-112
-78,-107,-29,92,-24,-68,180,317,175,0,-82,-112
-78,-112,-34,95,-21,-73,185,331,185,9,-82,-122
-78,-112,-34,95,-21,-73,200,356,204,19,-82,-122
-73,-112,-39,92,-17,-75,214,385,224,29,-82,-122
-73,-112,-39,92,-17,-75,224,414,239,43,-82,-122
-68,-112,-43,90,-12,-78,234,448,263,48,-82,-122
-63,-117,-53,90,-4,-85,244,478,278,58,-82,-126
-63,-117,-53,90,-4,-85,253,517,292,73,-82,-126
-63,-117,-53,90,-4,-85,263,551,312,82,-78,-126
-63,-122,-58,92,-2,-90,263,595,326,92,-78,-131
-53,-122,-68,87,7,-95,273,634,351,107,-78,-131
-53,-122,-68,87,7,-95,278,678,366,126,-73,-131
-53,-122,-68,87,7,-95,278,722,390,136,-68,-126
-43,-122,-78,82,17,-100,283,771,414,156,-63,-126
-34,-117,-82,75,24,-100,287,824,429,165,-58,-122
-24,-107,-82,65,29,-95,292,854,448,190,-43,-117
-14,-102,-87,58,36,-95,287,883,463,209,-29,-107
-14,-97,-82,56,34,-90,283,902,478,229,-19,-97
-4,-87,-82,46,39,-85,273,927,497,248,-9,-82
9,-68,-78,29,43,-73,258,932,502,253,4,-73
14,-48,-63,17,39,-56,244,936,502,273,19,-63
24,-39,-63,7,43,-51,224,922,492,273,29,-48
34,-24,-58,-4,46,-41,200,893,492,273,39,-39
39,-4,-43,-17,41,-24,170,858,473,278,48,-24
39,14,-24,-26,31,-4,151,810,439,278,58,-4
43,24,-19,-34,31,2,122,741,409,273,68,14
48,48,0,-48,24,24,97,668,375,263,73,24
53,58,4,-56,24,31,78,590,341,248,78,43
53,73,19,-63,17,46,48,512,302,234,87,48
53,82,29,-68,12,56,34,439,258,214,92,58
53,92,39,-73,7,65,19,366,224,200,97,68
53,92,39,-73,7,65,4,297,190,185,97,73
53,97,43,-75,4,70,-14,248,151,165,92,73
53,92,39,-73,7,65,-24,190,126,146,87,68
53,87,34,-70,9,61,-29,141,102,122,82,58
48,82,34,-65,7,58,-34,102,82,102,73,58
48,78,29,-63,9,53,-43,68,58,82,63,53
53,78,24,-65,14,51,-43,43,39,68,63,53
53,78,24,-65,14,51,-43,19,19,58,58,53
48,73,24,-61,12,48,-43,-9,9,48,48,43
43,63,19,-53,12,41,-43,-29,-4,39,43,43
29,58,29,-43,0,43,-43,-39,-14,29,39,39
29,58,29,-43,0,43,-43,-53,-24,19,34,34
29,48,19,-39,4,34,-43,-63,-29,9,34,29
29,39,9,-34,9,24,-43,-68,-34,9,29,24
24,39,14,-31,4,26,-48,-82,-34,0,24,24
19,34,14,-26,2,24,-53,-87,-34,-4,19,24
19,34,14,-26,2,24,-48,-87,-39,-4,14,19
19,34,14,-26,2,24,-48,-92,-39,-9,9,19
19,34,14,-26,2,24,-43,-92,-39,-9,4,14
19,29,9,-24,4,19,-39,-92,-39,-19,0,14
19,34,14,-26,2,24,-39,-92,-43,-19,4,9
19,39,19,-29,0,29,-39,-97,-43,-19,9,9
14,39,24,-26,-4,31,-34,-92,-43,-19,9,14
14,39,24,-26,-4,31,-34,-87,-39,-19,9,14
9,34,24,-21,-7,29,-29,-82,-39,-19,4,14
4,34,29,-19,-12,31,-29,-82,-39,-19,4,14
-4,29,34,-12,-19,31,-29,-82,-34,-24,4,14
-4,24,29,-9,-17,26,-24,-82,-34,-24,0,14
4,29,24,-17,-9,26,-19,-78,-29,-24,0,14
14,34,19,-24,-2,26,-19,-78,-29,-24,0,14
14,34,19,-24,-2,26,-19,-73,-24,-24,0,14
9,34,24,-21,-7,29,-14,-68,-24,-19,0,14
4,29,24,-17,-9,26,-14,-68,-19,-19,0,9
0,24,24,-12,-12,24,-14,-68,-19,-19,0,9
4,24,19,-14,-7,21,-9,-58,-19,-14,0,4
4,24,19,-14,-7,21,-9,-58,-19,-9,0,4
4,24,19,-14,-7,21,-9,-58,-14,-9,0,4
0,24,24,-12,-12,24,-4,-53,-14,-9,0,4
0,19,19,-9,-9,19,-4,-53,-9,-9,4,4
0,14,14,-7,-7,14,-4,-48,-4,-14,4,4
-14,14,29,0,-21,21,0,-53,-4,-9,4,4
-19,14,34,2,-26,24,0,-53,-4,-9,4,4
-14,14,29,0,-21,21,0,-48,0,-4,4,4
-14,14,29,0,-21,21,0,-48,4,-4,4,4
-14,19,34,-2,-24,26,0,-43,4,-4,4,4
-14,24,39,-4,-26,31,4,-39,4,0,4,0
-14,24,39,-4,-26,31,4,-34,4,0,4,0
-14,24,39,-4,-26,31,0,-34,9,0,4,0
-9,24,34,-7,-21,29,0,-29,9,4,4,0
-4,24,29,-9,-17,26,0,-19,9,4,9,0
-9,24,34,-7,-21,29,0,-19,4,4,4,4
-9,24,34,-7,-21,29,0,-19,4,4,0,4
-9,24,34,-7,-21,29,0,-19,4,9,4,4
-9,24,34,-7,-21,29,0,-14,4,9,4,4
-9,24,34,-7,-21,29,0,-14,9,9,9,4
-9,24,34,-7,-21,29,0,-19,9,9,14,4
-9,24,34,-7,-21,29,-4,-24,9,9,9,4
-9,24,34,-7,-21,29,-4,-29,9,9,9,4
-9,24,34,-7,-21,29,-4,-34,4,9,14,4
-9,24,34,-7,-21,29,-9,-34,4,9,14,4
-9,24,34,-7,-21,29,-9,-39,4,9,14,4
-14,24,39,-4,-26,31,-9,-39,0,4,14,4
-14,19,34,-2,-24,26,-9,-48,0,9,14,4
-9,19,29,-4,-19,24,-14,-48,-4,14,9,0
-9,24,34,-7,-21,29,-14,-53,-9,14,9,0
-9,29,39,-9,-24,34,-14,-58,-9,9,9,0
-4,29,34,-12,-19,31,-14,-58,-9,4,9,4
-4,29,34,-12,-19,31,-19,-58,-14,4,9,9
-9,24,34,-7,-21,29,-19,-58,-14,4,9,9
-9,24,34,-7,-21,29,-19,-63,-19,4,9,9
-9,24,34,-7,-21,29,-19,-63,-24,0,4,9
-9,24,34,-7,-21,29,-19,-73,-24,0,4,9
-9,24,34,-7,-21,29,-24,-78,-29,0,0,9
-9,24,34,-7,-21,29,-24,-82,-34,-4,0,9
-9,19,29,-4,-19,24,-24,-82,-34,-4,4,4
-9,19,29,-4,-19,24,-24,-87,-34,-4,9,4
-14,24,39,-4,-26,31,-24,-87,-34,-4,9,9
-14,24,39,-4,-26,31,-24,-97,-39,-9,9,9
-14,24,39,-4,-26,31,-24,-97,-43,-9,4,4
-14,19,34,-2,-24,26,-24,-97,-43,-9,0,4
-9,19,29,-4,-19,24,-29,-97,-43,-9,0,4
-9,19,29,-4,-19,24,-29,-102,-43,-14,0,4
-9,19,29,-4,-19,24,-29,-102,-43,-14,0,0
-9,19,29,-4,-19,24,-29,-102,-48,-14,0,-4
-9,19,29,-4,-19,24,-29,-102,-48,-14,0,-4
-9,19,29,-4,-19,24,-29,-107,-48,-14,0,-4
-9,19,29,-4,-19,24,-29,-107,-48,-24,0,-4
-9,19,29,-4,-19,24,-34,-107,-48,-29,0,-4
-9,19,29,-4,-19,24,-34,-107,-48,-29,0,-4
-9,19,29,-4,-19,24,-34,-112,-53,-29,0,-4
-9,14,24,-2,-17,19,-39,-112,-58,-29,0,0
-9,9,19,0,-14,14,-43,-117,-63,-29,-4,0
-9,14,24,-2,-17,19,-39,-117,-53,-29,0,0
-9,19,29,-4,-19,24,-39,-117,-48,-29,0,0
-9,19,29,-4,-19,24,-39,-117,-53,-29,0,0
-9,19,29,-4,-19,24,-39,-117,-58,-29,0,0
-9,19,29,-4,-19,24,-39,-117,-58,-29,0,0
-9,19,29,-4,-19,24,-39,-117,-58,-29,0,0
-9,14,24,-2,-17,19,-39,-117,-58,-29,-4,0
-9,9,19,0,-14,14,-39,-117,-58,-29,-9,0
-9,9,19,0,-14,14,-39,-117,-58,-29,-9,-4
-9,9,19,0,-14,14,-39,-117,-58,-29,-9,-9
-9,9,19,0,-14,14,-39,-117,-63,-29,-9,-9
-9,9,19,0,-14,14,-39,-117,-68,-29,-9,-9
-14,9,24,2,-19,17,-39,-117,-68,-29,-9,-9
-19,9,29,4,-24,19,-39,-117,-68,-29,-9,-9
-19,9,29,4,-24,19,-39,-117,-63,-29,-9,-9
-19,9,29,4,-24,19,-39,-117,-58,-29,-9,-9
-14,9,24,2,-19,17,-39,-117,-58,-29,-9,-9
-9,9,19,0,-14,14,-39,-117,-58,-29,-9,-9
-9,9,19,0,-14,14,-34,-117,-58,-29,-9,-4
-9,9,19,0,-14,14,-29,-117,-58,-29,-9,0
-9,14,24,-2,-17,19,-29,-117,-63,-34,-9,0
-9,19,29,-4,-19,24,-29,-117,-68,-39,-9,0
-9,19,29,-4,-19,24,-34,-117,-68,-39,-9,0
-9,19,29,-4,-19,24,-39,-117,-68,-39,-9,0
-9,19,29,-4,-19,24,-39,-117,-68,-34,-9,0
-9,19,29,-4,-19,24,-39,-117,-68,-29,-9,0
-9,19,29,-4,-19,24,-39,-117,-68,-29,-9,0
-9,19,29,-4,-19,24,-39,-117,-68,-29,-9,0
-9,19,29,-4,-19,24,-39,-117,-68,-34,-9,0
-9,19,29,-4,-19,24,-39,-117,-68,-39,-9,0
-9,19,29,-4,-19,24,-39,-117,-68,-39,-4,0
-9,19,29,-4,-19,24,-39,-117,-68,-39,0,0
-9,19,29,-4,-19,24,-39,-117,-68,-39,0,0
-9,19,29,-4,-19,24,-39,-117,-68,-39,0,0
-9,19,29,-4,-19,24,-39,-117,-68,-39,-4,0
-9,19,29,-4,-19,24,-39,-117,-68,-39,-9,0
-9,24,34,-7,-21,29,-39,-122,-68,-39,-9,0
-9,29,39,-9,-24,34,-39,-126,-68,-39,-9,0
-9,29,39,-9,-24,34,-39,-126,-68,-39,-9,0
-9,29,39,-9,-24,34,-39,-126,-68,-39,-9,0
-9,24,34,-7,-21,29,-39,-126,-68,-39,-9,0
-9,19,29,-4,-19,24,-39,-126,-68,-39,-9,0
-9,19,29,-4,-19,24,-39,-126,-68,-34,-9,0
-9,19,29,-4,-19,24,-39,-126,-68,-29,-9,0
-9,19,29,-4,-19,24,-39,-126,-68,-29,-9,0
-9,19,29,-4,-19,24,-39,-126,-68,-29,-9,0
-9,24,34,-7,-21,29,-39,-126,-68,-29,-9,0
-9,29,39,-9,-24,34,-39,-126,-68,-29,-9,0
-4,29,34,-12,-19,31,-39,-126,-68,-29,-9,0
0,29,29,-14,-14,29,-39,-126,-68,-29,-9,0
0,29,29,-14,-14,29,-39,-126,-68,-29,-9,0
0,29,29,-14,-14,29,-39,-126,-68,-29,-9,0
0,29,29,-14,-14,29,-34,-126,-68,-34,-9,0
0,29,29,-14,-14,29,-29,-126,-68,-39,-9,0
0,24,24,-12,-12,24,-29,-126,-68,-39,-9,0
0,19,19,-9,-9,19,-29,-126,-68,-39,-9,0
0,19,19,-9,-9,19,-29,-126,-68,-39,-9,0
0,19,19,-9,-9,19,-29,-126,-68,-39,-9,0
0,19,19,-9,-9,19,-29,-126,-68,-39,-9,0
0,19,19,-9,-9,19,-29,-126,-68,-39,-9,0
0,19,19,-9,-9,19,-29,-126,-68,-39,-9,0
0,19,19,-9,-9,19,-29,-126,-68,-39,-9,0
0,19,19,-9,-9,19,-34,-126,-68,-39,-9,0
0,19,19,-9,-9,19,-39,-126,-68,-39,-9,0
0,19,19,-9,-9,19,-39,-126,-68,-39,-9,0
0,19,19,-9,-9,19,-39,-126,-68,-39,-9,0
0,24,24,-12,-12,24,-39,-126,-68,-39,-9,0
0,29,29,-14,-14,29,-39,-126,-68,-39,-9,0
0,29,29,-14,-14,29,-39,-126,-68,-39,-9,0
0,29,29,-14,-14,29,-39,-126,-68,-39,-9,0
0,29,29,-14,-14,29,-39,-122,-63,-34,-9,0
0,29,29,-14,-14,29,-39,-117,-58,-29,-9,0
9,43,34,-26,-12,39,-34,-107,-48,-24,0,9
19,58,39,-39,-9,48,-29,-97,-39,-19,9,19
19,68,48,-43,-14,58,-19,-87,-34,-9,19,24
19,78,58,-48,-19,68,-9,-78,-29,0,29,29
19,78,58,-48,-19,68,0,-78,-24,0,29,29
19,78,58,-48,-19,68,9,-78,-19,0,29,29
24,87,63,-56,-19,75,9,-68,-9,4,29,29
29,97,68,-63,-19,82,9,-58,0,9,29,29
34,97,63,-65,-14,80,4,-53,4,19,34,34
39,97,58,-68,-9,78,0,-48,9,29,39,39
48,122,73,-85,-12,97,-4,-48,9,29,43,43
58,146,87,-102,-14,117,-9,-48,9,29,48,48
58,146,87,-102,-14,117,-29,-68,0,29,48,53
58,146,87,-102,-14,117,-48,-87,-9,29,48,58
58,141,82,-100,-12,112,-63,-97,-24,19,48,58
58,136,78,-97,-9,107,-73,-102,-29,9,48,58
58,136,78,-97,-9,107,-82,-107,-39,4,48,58
68,146,78,-107,-4,112,-92,-107,-39,9,58,63
68,165,97,-117,-14,131,-92,-112,-34,14,58,73
68,161,92,-114,-12,126,-92,-122,-43,14,53,78
68,136,68,-102,0,102,-82,-131,-58,0,48,63
68,117,48,-92,9,82,-78,-131,-63,-9,39,58
48,87,39,-68,4,63,-68,-131,-63,-14,29,48
29,73,43,-51,-7,58,-63,-131,-63,-19,24,34
24,73,48,-48,-12,61,-53,-131,-63,-19,24,34
14,58,43,-36,-14,51,-53,-131,-63,-24,14,24
14,48,34,-31,-9,41,-53,-131,-68,-29,4,9
14,43,29,-29,-7,36,-58,-136,-73,-34,0,-4
9,29,19,-19,-4,24,-58,-146,-82,-48,-14,-9
4,14,9,-9,-2,12,-58,-151,-82,-48,-19,-14
0,14,14,-7,-7,14,-53,-151,-87,-48,-19,-14
0,14,14,-7,-7,14,-48,-151,-87,-48,-19,-14
0,14,14,-7,-7,14,-48,-156,-87,-48,-24,-14
-4,9,14,-2,-9,12,-48,-156,-87,-48,-24,-14
-4,9,14,-2,-9,12,-48,-156,-87,-53,-24,-14
-4,9,14,-2,-9,12,-48,-156,-87,-58,-24,-14
-4,9,14,-2,-9,12,-53,-151,-92,-58,-24,-14
-4,9,14,-2,-9,12,-58,-151,-97,-63,-24,-14
-4,4,9,0,-7,7,-58,-151,-97,-63,-24,-14
-4,0,4,2,-4,2,-58,-151,-97,-63,-24,-14
-4,0,4,2,-4,2,-58,-151,-97,-63,-24,-14
-4,0,4,2,-4,2,-58,-156,-97,-63,-24,-14
-9,-4,4,7,-7,0,-58,-156,-97,-63,-24,-14
-14,-9,4,12,-9,-2,-58,-156,-97,-63,-24,-14
-9,-9,0,9,-4,-4,-58,-156,-97,-63,-24,-14
-9,-9,0,9,-4,-4,-58,-156,-97,-63,-24,-14
-9,-4,4,7,-7,0,-58,-156,-97,-58,-24,-14
-14,0,14,7,-14,7,-58,-156,-97,-53,-24,-14
0,0,0,0,0,0,-78,-141,-97,-43,-9,-4
0,-4,-4,2,2,-4,-73,-136,-102,-53,-14,-9
-78,4,82,36,-80,43,-29,-200,-92,-78,-34,-24
-170,-4,165,87,-168,80,48,-268,-87,-141,-78,-58
-263,-102,161,183,-212,29,185,-317,-131,-278,-209,-180
-292,-122,170,207,-231,24,268,-307,-122,-312,-239,-224
-292,-107,185,200,-239,39,331,-102,48,-180,-175,-214
-229,4,234,112,-231,119,380,151,273,43,-24,-136
-63,253,317,-95,-190,285,370,341,473,361,244,53
175,507,331,-341,-78,419,292,507,614,707,517,253
619,775,156,-697,231,466,53,717,639,1049,795,492
868,902,34,-885,417,468,-239,575,473,1107,922,658
644,995,351,-819,146,673,-473,-34,375,971,980,897
595,722,126,-658,234,424,-688,-356,53,741,868,971
732,29,-702,-380,717,-336,-1005,-688,-673,58,366,736
717,-556,-1273,-80,995,-915,-1171,-1156,-1254,-546,-117,409
370,-897,-1268,263,819,-1083,-1063,-1639,-1615,-1039,-502,68
87,-1034,-1122,473,605,-1078,-893,-1717,-1708,-1200,-668,-122
-53,-805,-751,429,348,-778,-600,-1249,-1224,-878,-497,-107
-126,-629,-502,378,187,-566,-351,-824,-819,-629,-385,-122
-126,-463,-336,295,104,-400,-175,-478,-488,-409,-302,-151
-102,-297,-195,200,46,-246,-97,-273,-283,-244,-195,-122
-63,-214,-151,139,43,-183,-39,-131,-170,-170,-156,-107
-53,-165,-112,109,29,-139,0,-58,-107,-136,-131,-87
-48,-107,-58,78,4,-82,24,-4,-43,-92,-102,-73
-48,-58,-9,53,-19,-34,24,9,-29,-68,-78,-68
-48,-58,-9,53,-19,-34,24,0,-29,-68,-73,-68
-48,-73,-24,61,-12,-48,39,-4,-29,-68,-73,-68
-48,-63,-14,56,-17,-39,39,9,-9,-68,-73,-68
-48,-48,0,48,-24,-24,39,9,0,-58,-73,-68
-48,-48,0,48,-24,-24,39,9,0,-53,-58,-68
-53,-48,4,51,-29,-21,39,9,0,-48,-53,-68
-48,-53,-4,51,-21,-29,43,14,4,-43,-53,-63
-48,-53,-4,51,-21,-29,43,19,4,-43,-53,-63
-43,-53,-9,48,-17,-31,43,19,9,-43,-58,-63
-39,-48,-9,43,-14,-29,43,19,9,-43,-63,-68
-39,-43,-4,41,-17,-24,43,19,9,-43,-63,-63
-43,-39,4,41,-24,-17,43,24,9,-43,-63,-58
-43,-39,4,41,-24,-17,43,24,9,-39,-63,-58
-43,-43,0,43,-21,-21,43,24,14,-39,-63,-58
-43,-43,0,43,-21,-21,43,24,14,-39,-58,-63
-43,-48,-4,46,-19,-26,48,29,14,-39,-53,-68
-48,-48,0,48,-24,-24,48,39,19,-39,-53,-68
-48,-48,0,48,-24,-24,48,43,19,-39,-53,-68
-48,-48,0,48,-24,-24,53,43,19,-39,-53,-68
-48,-48,0,48,-24,-24,53,43,24,-39,-53,-68
-53,-48,4,51,-29,-21,53,48,29,-39,-53,-68
-58,-53,4,56,-31,-24,58,48,29,-34,-58,-63
-58,-53,4,56,-31,-24,58,58,34,-34,-58,-63
-58,-53,4,56,-31,-24,58,63,34,-34,-58,-63
-58,-53,4,56,-31,-24,63,68,39,-34,-58,-68
-58,-53,4,56,-31,-24,63,73,39,-34,-58,-68
-68,-53,14,61,-41,-19,63,68,43,-34,-58,-68
-68,-58,9,63,-39,-24,68,68,48,-34,-58,-68
-68,-58,9,63,-39,-24,73,78,48,-34,-58,-73
-73,-58,14,65,-43,-21,78,82,53,-34,-63,-78
-68,-63,4,65,-36,-29,78,87,53,-29,-63,-78
-63,-63,0,63,-31,-31,82,92,58,-24,-63,-78
-68,-63,4,65,-36,-29,82,102,58,-24,-63,-78
-68,-68,0,68,-34,-34,87,107,63,-24,-68,-82
-68,-63,4,65,-36,-29,97,112,68,-24,-68,-82
-68,-63,4,65,-36,-29,102,122,78,-24,-68,-82
-68,-63,4,65,-36,-29,107,131,82,-19,-68,-82
-73,-63,9,68,-41,-26,112,141,87,-19,-68,-87
-73,-63,9,68,-41,-26,122,151,92,-14,-68,-87
-73,-68,4,70,-39,-31,122,161,97,-14,-73,-92
-78,-68,9,73,-43,-29,126,170,102,-9,-73,-92
-82,-68,14,75,-48,-26,136,185,112,-9,-73,-92
-82,-68,14,75,-48,-26,141,200,122,-4,-73,-92
-82,-68,14,75,-48,-26,146,214,131,0,-73,-97
-78,-68,9,73,-43,-29,146,234,141,-4,-78,-97
-78,-73,4,75,-41,-34,151,248,146,-4,-82,-97
-78,-78,0,78,-39,-39,161,268,161,0,-82,-97
-78,-78,0,78,-39,-39,170,283,170,4,-82,-102
-78,-78,0,78,-39,-39,180,307,185,9,-78,-102
-78,-82,-4,80,-36,-43,180,326,195,19,-73,-112
-82,-82,0,82,-41,-41,190,356,214,29,-73,-112
-82,-82,0,82,-41,-41,204,385,229,34,-73,-112
-87,-82,4,85,-46,-39,214,409,234,43,-73,-112
-87,-82,4,85,-46,-39,224,439,253,48,-73,-112
-82,-87,-4,85,-39,-46,239,468,268,53,-78,-117
-82,-87,-4,85,-39,-46,253,507,283,63,-82,-117
-78,-87,-9,82,-34,-48,263,541,302,73,-78,-117
-73,-92,-19,82,-26,-56,263,585,317,82,-78,-122
-63,-92,-29,78,-17,-61,273,624,341,97,-78,-122
-63,-92,-29,78,-17,-61,278,668,356,117,-73,-122
-68,-92,-24,80,-21,-58,283,712,380,126,-63,-122
-63,-92,-29,78,-17,-61,292,751,400,146,-53,-126
-53,-87,-34,70,-9,-61,297,800,409,156,-48,-122
-43,-78,-34,61,-4,-56,297,834,429,175,-39,-117
-34,-73,-39,53,2,-56,292,868,448,190,-29,-107
-34,-68,-34,51,0,-51,292,893,463,209,-19,-97
-24,-58,-34,41,4,-46,283,922,478,229,-9,-82
-9,-43,-34,26,12,-39,268,927,483,234,4,-73
-4,-29,-24,17,9,-26,253,936,492,258,19,-63
4,-19,-24,7,14,-21,234,927,488,263,29,-48
14,-4,-19,-4,17,-12,214,902,488,263,39,-39
19,14,-4,-17,12,4,190,873,473,268,48,-24
19,34,14,-26,2,24,170,829,444,273,58,-4
24,43,19,-34,2,31,141,771,419,268,68,9
34,73,39,-53,-2,56,117,697,385,253,73,14
43,87,43,-65,0,65,97,619,351,239,78,34
43,102,58,-73,-7,80,58,531,302,224,87,39
43,107,63,-75,-9,85,34,453,253,204,92,48
43,112,68,-78,-12,90,14,380,224,190,97,58
43,112,68,-78,-12,90,0,307,190,175,97,63
43,117,73,-80,-14,95,-14,253,151,156,92,63
43,117,73,-80,-14,95,-24,195,126,136,87,63
43,117,73,-80,-14,95,-29,151,102,112,82,58
39,112,73,-75,-17,92,-34,112,82,97,73,58
39,107,68,-73,-14,87,-48,73,48,82,63,58
39,102,63,-70,-12,82,-53,43,24,68,63,58
43,97,53,-70,-4,75,-53,19,9,53,58,53
48,92,43,-70,2,68,-53,-4,4,39,48,43
43,82,39,-63,2,61,-53,-29,-4,29,43,39
29,78,48,-53,-9,63,-53,-48,-14,19,39,34
29,78,48,-53,-9,63,-58,-63,-24,9,34,34
29,73,43,-51,-7,58,-63,-73,-29,0,34,29
29,63,34,-46,-2,48,-63,-78,-34,0,29,24
24,58,34,-41,-4,46,-63,-87,-34,-4,24,24
19,53,34,-36,-7,43,-63,-87,-39,-4,24,24
19,53,34,-36,-7,43,-58,-87,-48,-4,29,19
14,53,39,-34,-12,46,-58,-92,-48,-9,29,19
9,53,43,-31,-17,48,-58,-92,-48,-9,24,14
9,48,39,-29,-14,43,-58,-92,-48,-19,14,14
9,48,39,-29,-14,43,-58,-92,-53,-19,9,9
9,48,39,-29,-14,43,-58,-97,-53,-19,9,9
4,48,43,-26,-19,46,-53,-97,-53,-19,9,9
4,48,43,-26,-19,46,-53,-97,-48,-19,9,9
4,43,39,-24,-17,41,-48,-92,-48,-19,4,14
4,48,43,-26,-19,46,-48,-97,-48,-19,4,14
-4,48,53,-21,-29,51,-48,-102,-43,-24,4,14
-4,43,48,-19,-26,46,-43,-102,-43,-24,0,9
-4,43,48,-19,-26,46,-39,-97,-39,-24,0,4
-4,43,48,-19,-26,46,-39,-97,-39,-24,0,4
-4,43,48,-19,-26,46,-39,-92,-34,-24,0,4
-9,43,53,-17,-31,48,-34,-87,-34,-24,0,4
-9,43,53,-17,-31,48,-34,-87,-29,-29,0,0
-9,43,53,-17,-31,48,-29,-87,-29,-29,0,0
-4,43,48,-19,-26,46,-19,-78,-29,-29,0,-4
-9,43,53,-17,-31,48,-19,-78,-29,-29,0,-4
-14,43,58,-14,-36,51,-19,-78,-24,-29,0,-4
-19,43,63,-12,-41,53,-14,-73,-24,-29,0,-4
-19,43,63,-12,-41,53,-14,-73,-19,-24,4,-4
-14,43,58,-14,-36,51,-14,-68,-14,-24,4,-4
-19,43,63,-12,-41,53,-9,-68,-14,-19,4,-4
-19,43,63,-12,-41,53,-9,-63,-14,-19,4,-4
-14,43,58,-14,-36,51,-9,-58,-9,-14,4,-4
-14,43,58,-14,-36,51,-9,-63,-4,-14,0,-4
-14,43,58,-14,-36,51,-9,-63,-4,-14,-4,-4
-14,39,53,-12,-34,46,-4,-58,-4,-9,-4,-9
-14,34,48,-9,-31,41,-4,-53,-4,-9,-4,-9
-14,34,48,-9,-31,41,-9,-48,0,-9,0,-9
-14,34,48,-9,-31,41,-9,-43,0,-4,4,-9
-14,34,48,-9,-31,41,-9,-39,0,-4,9,-9
-19,34,53,-7,-36,43,-9,-39,0,-4,9,-4
-19,39,58,-9,-39,48,-9,-39,4,-4,9,-4
-19,43,63,-12,-41,53,-9,-39,4,0,14,-4
-24,43,68,-9,-46,56,-9,-34,4,0,9,-9
-29,43,73,-7,-51,58,-9,-34,4,0,4,-14
-29,43,73,-7,-51,58,-9,-39,0,-4,4,-14
-29,43,73,-7,-51,58,-14,-39,0,-9,0,-14
-19,43,63,-12,-41,53,-14,-39,0,-9,0,-9
-9,43,53,-17,-31,48,-14,-43,-4,-9,4,-4
-9,43,53,-17,-31,48,-19,-43,-4,-4,4,-4
-9,43,53,-17,-31,48,-19,-48,-4,0,4,-4
-19,39,58,-9,-39,48,-19,-48,-9,-4,4,-4
-24,29,53,-2,-39,41,-19,-58,-9,-4,4,-4
-19,29,48,-4,-34,39,-24,-53,-14,-4,4,-9
-19,29,48,-4,-34,39,-24,-53,-19,-4,9,-9
-24,29,53,-2,-39,41,-24,-58,-19,-9,9,-9
-24,29,53,-2,-39,41,-24,-58,-19,-14,9,-9
-24,29,53,-2,-39,41,-29,-58,-24,-14,9,-9
-29,24,53,2,-41,39,-29,-63,-24,-14,9,-9
-24,29,53,-2,-39,41,-29,-73,-29,-14,9,-9
-19,34,53,-7,-36,43,-29,-73,-34,-19,4,-9
-19,34,53,-7,-36,43,-29,-82,-34,-19,4,-9
-19,34,53,-7,-36,43,-34,-82,-39,-19,0,-9
-19,29,48,-4,-34,39,-34,-82,-43,-24,0,-9
-19,19,39,0,-29,29,-34,-82,-43,-24,0,-14
-19,19,39,0,-29,29,-34,-87,-43,-24,0,-14
-24,24,48,0,-36,36,-34,-87,-43,-24,0,-9
-24,24,48,0,-36,36,-34,-97,-48,-29,0,-4
-24,24,48,0,-36,36,-34,-97,-53,-29,0,-4
-29,19,48,4,-39,34,-34,-97,-53,-29,0,-4
-29,19,48,4,-39,34,-39,-97,-53,-29,0,-4
-29,19,48,4,-39,34,-39,-102,-53,-34,-4,-4
-29,19,48,4,-39,34,-39,-102,-53,-34,-9,-4
-29,19,48,4,-39,34,-39,-102,-58,-29,-9,-4
-29,19,48,4,-39,34,-39,-102,-58,-24,-9,-4
-29,19,48,4,-39,34,-34,-107,-58,-24,-9,-4
-29,19,48,4,-39,34,-29,-107,-58,-29,-9,-4
-29,19,48,4,-39,34,-34,-107,-58,-29,-9,-9
-29,19,48,4,-39,34,-34,-107,-58,-29,-9,-14
-29,19,48,4,-39,34,-34,-112,-63,-29,-9,-14
-29,19,48,4,-39,34,-34,-112,-68,-29,-14,-14
-29,19,48,4,-39,34,-34,-107,-58,-29,-4,-9
-29,19,48,4,-39,34,-39,-107,-48,-29,0,-9
-29,19,48,4,-39,34,-39,-107,-53,-34,-4,-9
-29,19,48,4,-39,34,-39,-107,-58,-39,-9,-9
-29,19,48,4,-39,34,-39,-112,-63,-39,-9,-9
-29,19,48,4,-39,34,-39,-117,-68,-39,-9,-9
-29,19,48,4,-39,34,-39,-117,-68,-39,-9,-9
-29,19,48,4,-39,34,-39,-117,-68,-39,-9,-9
-29,14,43,7,-36,29,-39,-117,-63,-39,-9,-9
-29,9,39,9,-34,24,-39,-117,-58,-39,-9,-9
-34,9,43,12,-39,26,-39,-117,-58,-39,-9,-9
-39,9,48,14,-43,29,-39,-117,-58,-39,-9,-9
-39,9,48,14,-43,29,-39,-117,-58,-39,-9,-4
-39,9,48,14,-43,29,-39,-117,-58,-39,-9,0
-34,9,43,12,-39,26,-39,-117,-58,-39,-9,0
-29,9,39,9,-34,24,-39,-117,-58,-39,-9,0
-29,9,39,9,-34,24,-39,-117,-58,-39,-9,0
-29,9,39,9,-34,24,-39,-117,-58,-39,-9,0
-29,9,39,9,-34,24,-39,-117,-58,-39,-9,0
-29,9,39,9,-34,24,-39,-117,-58,-39,-9,0
-34,9,43,12,-39,26,-39,-117,-58,-39,-4,0
-39,9,48,14,-43,29,-39,-117,-58,-39,0,0
-39,9,48,14,-43,29,-39,-117,-63,-39,0,0
-39,9,48,14,-43,29,-39,-117,-68,-39,0,0
-39,9,48,14,-43,29,-39,-117,-68,-39,-4,0
-39,9,48,14,-43,29,-39,-117,-68,-39,-9,0
-39,4,43,17,-41,24,-39,-117,-68,-39,-9,0
-39,0,39,19,-39,19,-39,-117,-68,-39,-9,0
-39,0,39,19,-39,19,-39,-122,-68,-39,-9,0
-39,0,39,19,-39,19,-39,-126,-68,-39,-9,0
-39,4,43,17,-41,24,-39,-126,-68,-39,-9,-4
-39,9,48,14,-43,29,-39,-126,-68,-39,-9,-9
-39,9,48,14,-43,29,-39,-126,-68,-39,-9,-9
-39,9,48,14,-43,29,-39,-126,-68,-39,-9,-9
-39,4,43,17,-41,24,-39,-122,-68,-39,-9,-9
-39,0,39,19,-39,19,-39,-117,-68,-39,-9,-9
-39,0,39,19,-39,19,-39,-117,-68,-39,-9,-9
-39,0,39,19,-39,19,-39,-117,-68,-39,-9,-9
-39,-4,34,21,-36,14,-39,-117,-68,-39,-9,-9
-39,-9,29,24,-34,9,-39,-117,-68,-39,-9,-9
-39,-9,29,24,-34,9,-39,-117,-68,-39,-9,-4
-39,-9,29,24,-34,9,-39,-117,-68,-39,-9,0
-39,-4,34,21,-36,14,-39,-117,-68,-39,-9,0
-39,0,39,19,-39,19,-39,-117,-68,-39,-9,0
-39,0,39,19,-39,19,-39,-117,-68,-39,-4,0
-39,0,39,19,-39,19,-39,-117,-68,-39,0,0
-34,4,39,14,-36,21,-39,-117,-68,-39,0,0
-29,9,39,9,-34,24,-39,-117,-68,-39,0,0
-29,9,39,9,-34,24,-39,-117,-68,-39,-4,-4
-29,9,39,9,-34,24,-39,-117,-68,-39,-9,-9
-34,4,39,14,-36,21,-39,-117,-63,-39,-9,-9
-39,0,39,19,-39,19,-39,-117,-58,-39,-9,-9
-39,0,39,19,-39,19,-39,-117,-58,-39,-9,-4
-39,0,39,19,-39,19,-39,-117,-58,-39,-9,0
-39,0,39,19,-39,19,-39,-117,-63,-39,-9,0
-39,0,39,19,-39,19,-39,-117,-68,-39,-9,0
-39,0,39,19,-39,19,-39,-117,-68,-39,-9,0
-39,0,39,19,-39,19,-39,-117,-68,-39,-9,0
-29,0,29,14,-29,14,-39,-122,-68,-39,-14,-4
-19,0,19,9,-19,9,-39,-126,-68,-39,-19,-9
-19,0,19,9,-19,9,-39,-126,-68,-39,-19,-9
-19,0,19,9,-19,9,-39,-126,-68,-39,-19,-9
-19,0,19,9,-19,9,-39,-126,-68,-39,-19,-4
-19,0,19,9,-19,9,-39,-126,-68,-39,-19,0
-24,-4,19,14,-21,7,-39,-126,-68,-39,-14,0
-29,-9,19,19,-24,4,-39,-126,-68,-39,-9,0
-29,-9,19,19,-24,4,-39,-126,-68,-39,-9,0
-29,-9,19,19,-24,4,-39,-126,-68,-39,-9,0
-29,-4,24,17,-26,9,-39,-126,-68,-34,-9,0
-29,0,29,14,-29,14,-39,-126,-68,-29,-9,0
-24,0,24,12,-24,12,-39,-126,-63,-29,-9,0
-19,0,19,9,-19,9,-39,-126,-58,-29,-9,0
-19,9,29,4,-24,19,-34,-117,-58,-29,-4,4
-19,19,39,0,-29,29,-29,-107,-58,-29,0,9
-9,39,48,-14,-29,43,-24,-97,-48,-24,4,14
0,58,58,-29,-29,58,-19,-87,-39,-19,9,19
0,63,63,-31,-31,63,-9,-82,-29,-14,9,19
0,68,68,-34,-34,68,0,-78,-19,-9,9,19
0,68,68,-34,-34,68,4,-73,-14,-4,14,19
0,68,68,-34,-34,68,9,-68,-9,0,19,19
9,73,63,-41,-26,68,9,-58,-4,4,24,24
19,78,58,-48,-19,68,9,-48,0,9,29,29
29,87,58,-58,-14,73,4,-48,4,14,39,34
39,97,58,-68,-9,78,0,-48,9,19,48,39
39,112,73,-75,-17,92,-14,-58,9,19,48,43
39,126,87,-82,-24,107,-29,-68,9,19,48,48
39,126,87,-82,-24,107,-43,-87,-4,19,43,48
39,122,82,-80,-21,102,-53,-97,-14,14,39,48
39,122,82,-80,-21,102,-68,-107,-29,14,39,53
39,117,78,-78,-19,97,-68,-107,-29,14,39,58
48,126,78,-87,-14,102,-78,-107,-29,19,48,63
48,136,87,-92,-19,112,-82,-112,-29,19,48,68
48,122,73,-85,-12,97,-82,-122,-43,9,43,68
43,97,53,-70,-4,75,-78,-131,-58,-9,34,53
39,78,39,-58,0,58,-78,-131,-68,-19,19,43
19,48,29,-34,-4,39,-68,-131,-73,-24,9,29
0,29,29,-14,-14,29,-63,-131,-73,-29,4,14
-4,24,29,-9,-17,26,-53,-131,-73,-29,4,14
-19,9,29,4,-24,19,-53,-131,-73,-34,-4,9
-24,0,24,12,-24,12,-48,-131,-78,-39,-14,4
-24,-4,19,14,-21,7,-48,-136,-82,-43,-19,-4
-29,-14,14,21,-21,0,-48,-146,-92,-58,-29,-9
-29,-24,4,26,-17,-9,-48,-151,-92,-58,-29,-14
-29,-24,4,26,-17,-9,-48,-151,-97,-58,-29,-14
-29,-24,4,26,-17,-9,-48,-151,-97,-58,-29,-14
-24,-24,0,24,-12,-12,-48,-151,-97,-58,-34,-14
-24,-29,-4,26,-9,-17,-48,-141,-97,-58,-34,-14
-24,-29,-4,26,-9,-17,-48,-136,-97,-58,-34,-14
-24,-29,-4,26,-9,-17,-48,-136,-97,-58,-34,-14
-24,-29,-4,26,-9,-17,-48,-136,-97,-58,-34,-14
-24,-29,-4,26,-9,-17,-48,-146,-97,-63,-34,-14
-24,-29,-4,26,-9,-17,-48,-151,-97,-63,-34,-14
-29,-29,0,29,-14,-14,-48,-151,-92,-63,-34,-14
-34,-29,4,31,-19,-12,-48,-146,-87,-63,-34,-14
-34,-29,4,31,-19,-12,-48,-146,-87,-63,-34,-14
-34,-29,4,31,-19,-12,-48,-146,-87,-63,-34,-14
-34,-29,4,31,-19,-12,-48,-146,-87,-63,-34,-14
-29,-29,0,29,-14,-14,-48,-146,-87,-63,-34,-14
-29,-24,4,26,-17,-9,-48,-146,-87,-63,-34,-14
-29,-19,9,24,-19,-4,-48,-146,-87,-63,-34,-14
-29,-19,9,24,-19,-4,-48,-141,-87,-63,-29,-14
-29,-19,9,24,-19,-4,-48,-136,-82,-63,-24,-14
-29,-24,4,26,-17,-9,-39,-136,-82,-68,-34,-24
-87,-29,58,58,-73,14,19,-170,-73,-92,-58,-53
-200,-58,141,129,-170,41,126,-239,-73,-190,-131,-107
-268,-122,146,195,-207,12,229,-239,-63,-258,-209,-185
-268,-141,126,204,-197,-7,287,-195,-34,-253,-204,-214
-229,-97,131,163,-180,17,326,-9,112,-97,-107,-175
-141,63,204,39,-173,134,366,287,385,200,92,-58
39,292,253,-165,-107,273,312,434,541,492,341,136
351,590,239,-470,56,414,209,580,653,873,658,370
668,795,126,-732,270,461,14,634,634,1098,878,595
785,912,126,-849,329,519,-287,312,419,1029,956,780
634,907,273,-771,180,590,-507,-190,244,824,941,951
644,478,-165,-561,405,156,-722,-400,-170,541,761,985
683,-34,-717,-324,700,-375,-951,-697,-746,-4,361,800
590,-551,-1141,-19,866,-846,-1068,-1288,-1312,-629,-136,424
312,-795,-1107,241,710,-951,-966,-1620,-1532,-995,-434,141
24,-805,-829,390,427,-817,-746,-1488,-1444,-990,-497,-9
-92,-649,-556,370,231,-602,-502,-1098,-1063,-746,-400,-53
-107,-531,-424,319,158,-478,-263,-644,-663,-522,-326,-97
-117,-434,-317,275,100,-375,-117,-356,-390,-361,-273,-141
-92,-292,-200,192,53,-246,-92,-244,-263,-239,-185,-126
-63,-219,-156,141,46,-187,-29,-122,-161,-161,-156,-126
-58,-195,-136,126,39,-165,19,-58,-102,-126,-136,-97
-48,-141,-92,95,21,-117,43,0,-34,-82,-102,-73
-48,-82,-34,65,-7,-58,34,0,-24,-68,-68,-63
-48,-68,-19,58,-14,-43,34,0,-19,-68,-58,-58
-48,-82,-34,65,-7,-58,48,4,-19,-63,-63,-58
-48,-73,-24,61,-12,-48,48,19,-4,-58,-63,-58
-48,-58,-9,53,-19,-34,48,19,0,-48,-63,-58
-43,-58,-14,51,-14,-36,48,19,0,-48,-53,-58
-43,-58,-14,51,-14,-36,48,24,0,-48,-53,-58
-39,-58,-19,48,-9,-39,53,34,4,-43,-53,-53
-39,-53,-14,46,-12,-34,53,39,4,-48,-58,-53
-39,-53,-14,46,-12,-34,53,39,9,-53,-63,-53
-39,-48,-9,43,-14,-29,53,39,9,-53,-63,-58
-39,-48,-9,43,-14,-29,53,39,9,-53,-63,-58
-43,-48,-4,46,-19,-26,53,43,9,-53,-63,-58
-43,-48,-4,46,-19,-26,53,43,9,-48,-63,-58
-43,-53,-9,48,-17,-31,53,43,14,-48,-63,-58
-43,-53,-9,48,-17,-31,53,43,14,-48,-63,-58
-43,-58,-14,51,-14,-36,58,48,14,-48,-63,-58
-48,-58,-9,53,-19,-34,58,53,19,-48,-63,-58
-48,-58,-9,53,-19,-34,58,53,19,-48,-63,-58
-48,-58,-9,53,-19,-34,63,53,19,-48,-63,-58
-48,-53,-4,51,-21,-29,63,53,24,-48,-63,-58
-48,-48,0,48,-24,-24,63,58,29,-48,-63,-63
-48,-53,-4,51,-21,-29,68,58,29,-43,-68,-63
-48,-53,-4,51,-21,-29,68,63,34,-43,-68,-63
-48,-53,-4,51,-21,-29,68,58,34,-43,-68,-63
-48,-53,-4,51,-21,-29,73,58,39,-43,-68,-68
-48,-58,-9,53,-19,-34,73,63,34,-43,-68,-68
-58,-63,-4,61,-26,-34,73,63,34,-43,-68,-68
-58,-68,-9,63,-24,-39,78,68,39,-43,-68,-68
-58,-68,-9,63,-24,-39,82,78,39,-43,-68,-73
-63,-68,-4,65,-29,-36,87,82,43,-43,-73,-78
-63,-73,-9,68,-26,-41,87,87,43,-43,-73,-78
-58,-73,-14,65,-21,-43,92,92,48,-43,-73,-78
-58,-73,-14,65,-21,-43,92,102,48,-43,-73,-78
-58,-78,-19,68,-19,-48,97,107,53,-43,-78,-82
-58,-78,-19,68,-19,-48,102,112,58,-43,-78,-82
-58,-82,-24,70,-17,-53,97,122,68,-43,-78,-82
-58,-82,-24,70,-17,-53,97,131,73,-39,-78,-82
-68,-82,-14,75,-26,-48,102,141,78,-39,-78,-87
-73,-82,-9,78,-31,-46,112,151,82,-34,-78,-87
-73,-87,-14,80,-29,-51,112,161,87,-34,-82,-92
-73,-87,-14,80,-29,-51,117,170,92,-29,-82,-92
-73,-87,-14,80,-29,-51,126,185,102,-29,-82,-92
-73,-87,-14,80,-29,-51,131,200,112,-24,-82,-92
-73,-87,-14,80,-29,-51,136,209,122,-24,-82,-102
-73,-87,-14,80,-29,-51,141,224,131,-29,-82,-107
-78,-92,-14,85,-31,-53,151,239,136,-24,-82,-107
-78,-97,-19,87,-29,-58,161,263,151,-19,-82,-107
-78,-97,-19,87,-29,-58,170,283,161,-14,-82,-112
-78,-97,-19,87,-29,-58,180,307,175,-9,-82,-112
-78,-102,-24,90,-26,-63,180,326,180,0,-82,-122
-78,-102,-24,90,-26,-63,190,356,195,9,-82,-122
-68,-102,-34,85,-17,-68,200,380,209,14,-82,-122
-63,-102,-39,82,-12,-70,204,405,219,24,-82,-122
-58,-102,-43,80,-7,-73,214,439,244,34,-82,-117
-53,-107,-53,80,0,-80,224,468,258,48,-82,-117
-53,-107,-53,80,0,-80,234,507,273,63,-82,-117
-53,-107,-53,80,0,-80,244,541,292,73,-78,-117
-53,-112,-58,82,2,-85,244,585,307,73,-78,-122
-43,-112,-68,78,12,-90,253,624,331,78,-78,-122
-48,-117,-68,82,9,-92,258,663,346,97,-78,-122
-53,-122,-68,87,7,-95,258,702,370,107,-78,-117
-43,-122,-78,82,17,-100,263,741,390,126,-73,-117
-34,-117,-82,75,24,-100,268,785,400,136,-68,-112
-19,-107,-87,63,34,-97,273,814,414,151,-63,-117
-4,-102,-97,53,46,-100,268,844,424,161,-58,-117
-4,-97,-92,51,43,-95,263,863,434,180,-48,-107
4,-87,-92,41,48,-90,253,888,448,200,-39,-92
19,-73,-92,26,56,-82,239,893,453,204,-24,-82
24,-58,-82,17,53,-70,224,897,453,224,-9,-73
34,-53,-87,9,61,-70,209,888,444,234,0,-58
43,-43,-87,0,65,-65,190,863,444,244,9,-48
48,-24,-73,-12,61,-48,165,834,434,248,24,-34
48,-4,-53,-21,51,-29,151,790,409,248,39,-14
53,4,-48,-29,51,-21,122,727,380,244,48,4
58,29,-29,-43,43,0,97,658,346,234,53,14
63,39,-24,-51,43,7,73,580,312,219,58,34
63,53,-9,-58,36,21,39,502,273,204,68,39
63,58,-4,-61,34,26,24,434,239,185,73,48
63,63,0,-63,31,31,9,366,214,170,78,58
58,63,4,-61,26,34,4,297,180,156,82,68
53,68,14,-61,19,41,-4,248,141,136,82,73
53,73,19,-63,17,46,-14,195,122,122,78,73
53,78,24,-65,14,51,-19,151,102,102,73,68
48,78,29,-63,9,53,-24,107,82,87,63,68
48,78,29,-63,9,53,-34,68,58,73,53,63
53,73,19,-63,17,46,-34,43,39,58,53,58
53,68,14,-61,19,41,-34,19,19,48,48,53
48,63,14,-56,17,39,-34,-4,14,39,39,43
43,53,9,-48,17,31,-34,-19,4,29,34,43
24,43,19,-34,2,31,-34,-29,-4,19,29,43
19,39,19,-29,0,29,-34,-43,-14,9,24,43
19,34,14,-26,2,24,-34,-53,-19,0,24,39
19,29,9,-24,4,19,-34,-58,-24,0,19,34
14,29,14,-21,0,21,-34,-73,-24,-4,14,34
9,24,14,-17,-2,19,-34,-78,-24,-4,9,34
9,24,14,-17,-2,19,-29,-78,-29,-4,9,24
9,24,14,-17,-2,19,-29,-82,-29,-9,9,19
9,24,14,-17,-2,19,-29,-82,-29,-9,4,14
9,19,9,-14,0,14,-29,-82,-29,-19,0,14
9,19,9,-14,0,14,-29,-82,-39,-19,0,14
9,19,9,-14,0,14,-29,-87,-43,-19,0,19
4,19,14,-12,-4,17,-24,-87,-43,-19,0,19
4,19,14,-12,-4,17,-24,-87,-39,-19,0,14
4,14,9,-9,-2,12,-14,-82,-39,-19,-4,14
4,14,9,-9,-2,12,-9,-82,-39,-19,-4,14
-4,9,14,-2,-9,12,-9,-82,-34,-24,-4,9
-4,4,9,0,-7,7,-4,-82,-34,-24,-9,4
-4,4,9,0,-7,7,0,-78,-29,-24,-4,4
-4,4,9,0,-7,7,0,-78,-29,-24,0,4
-4,4,9,0,-7,7,0,-73,-24,-24,0,9
-9,4,14,2,-12,9,4,-68,-24,-19,0,14
-9,4,14,2,-12,9,4,-68,-19,-24,-4,9
-9,4,14,2,-12,9,4,-68,-19,-29,-9,9
-4,4,9,0,-7,7,4,-58,-19,-29,-9,0
-4,4,9,0,-7,7,0,-58,-19,-29,-9,-4
0,4,4,-2,-2,4,0,-58,-9,-24,-9,-4
0,4,4,-2,-2,4,4,-53,-4,-19,-9,-4
0,9,9,-4,-4,9,4,-48,0,-14,-4,-4
0,14,14,-7,-7,14,4,-39,4,-14,-4,-4
-9,14,24,-2,-17,19,9,-39,4,-9,0,-4
-9,14,24,-2,-17,19,9,-34,4,-9,4,-4
-4,14,19,-4,-12,17,9,-29,9,-4,4,-4
-4,14,19,-4,-12,17,9,-29,14,-4,4,-4
-4,14,19,-4,-12,17,9,-24,14,-4,4,0
-4,14,19,-4,-12,17,14,-19,14,0,4,0
-4,14,19,-4,-12,17,14,-14,14,0,4,0
-4,14,19,-4,-12,17,9,-14,19,0,4,0
-4,14,19,-4,-12,17,9,-14,19,9,4,0
-4,14,19,-4,-12,17,9,-9,19,14,9,0
-9,14,24,-2,-17,19,9,-9,19,14,9,4
-9,14,24,-2,-17,19,9,-9,24,14,9,4
-9,9,19,0,-14,14,9,-9,24,19,14,4
-9,4,14,2,-12,9,9,-4,24,19,14,4
-9,0,9,4,-9,4,9,-4,29,19,14,4
-9,-4,4,7,-7,0,9,-9,29,19,14,4
-9,-4,4,7,-7,0,4,-9,29,19,9,4
-9,-4,4,7,-7,0,4,-9,29,19,9,4
-9,-4,4,7,-7,0,4,-14,19,19,14,4
-9,-4,4,7,-7,0,0,-14,14,19,14,4
-9,0,9,4,-9,4,0,-19,14,19,14,4
-14,4,19,4,-17,12,0,-19,9,14,14,4
-14,0,14,7,-14,7,-4,-29,9,9,14,4
-9,0,9,4,-9,4,-14,-29,4,4,9,0
-9,0,9,4,-9,4,-14,-34,-4,4,4,0
-9,0,9,4,-9,4,-14,-39,-9,0,0,0
-4,0,4,2,-4,2,-14,-39,-9,-4,0,0
-4,0,4,2,-4,2,-19,-39,-14,-4,0,0
-9,-4,4,7,-7,0,-19,-43,-14,-4,0,0
-9,-4,4,7,-7,0,-19,-53,-19,-4,0,0
-9,-4,4,7,-7,0,-19,-53,-24,-9,0,0
-9,-4,4,7,-7,0,-19,-63,-24,-9,4,0
-9,-4,4,7,-7,0,-24,-63,-24,-9,0,0
-9,-4,4,7,-7,0,-24,-63,-24,-14,0,0
-9,-9,0,9,-4,-4,-24,-63,-24,-14,0,-4
-9,-9,0,9,-4,-4,-24,-68,-24,-14,0,-4
-14,-4,9,9,-12,2,-24,-68,-24,-14,0,0
-14,-4,9,9,-12,2,-24,-78,-29,-19,0,0
-14,0,14,7,-14,7,-24,-82,-34,-19,-4,-4
-14,0,14,7,-14,7,-24,-87,-34,-19,-9,-4
-9,0,9,4,-9,4,-29,-87,-39,-19,-9,-4
-9,0,9,4,-9,4,-29,-92,-43,-24,-9,-4
-9,-4,4,7,-7,0,-29,-92,-43,-24,-4,-4
-9,-9,0,9,-4,-4,-29,-92,-48,-24,0,-4
-9,-9,0,9,-4,-4,-29,-92,-48,-24,0,-4
-9,-9,0,9,-4,-4,-29,-97,-48,-24,0,-4
-9,-9,0,9,-4,-4,-29,-97,-48,-29,0,-4
-9,-9,0,9,-4,-4,-34,-97,-48,-29,0,-4
-9,-9,0,9,-4,-4,-34,-97,-48,-29,0,-4
-9,-9,0,9,-4,-4,-34,-102,-53,-29,0,-4
-9,-4,4,7,-7,0,-34,-102,-48,-29,0,-4
-9,0,9,4,-9,4,-34,-107,-43,-29,-4,-9
-9,0,9,4,-9,4,-34,-107,-43,-24,0,-9
-9,0,9,4,-9,4,-39,-107,-48,-19,0,-9
-9,-4,4,7,-7,0,-39,-107,-48,-19,0,-9
-9,-9,0,9,-4,-4,-39,-107,-48,-19,0,-9
-14,-9,4,12,-9,-2,-39,-107,-53,-24,-4,-9
-19,-9,9,14,-14,0,-39,-107,-58,-29,-9,-9
-19,-9,9,14,-14,0,-39,-107,-58,-29,-9,-9
-19,-9,9,14,-14,0,-39,-107,-58,-29,-9,-9
-14,-9,4,12,-9,-2,-34,-107,-58,-29,-9,-9
-9,-9,0,9,-4,-4,-29,-107,-58,-29,-9,-9
-9,-9,0,9,-4,-4,-29,-107,-58,-29,-9,-9
-9,-9,0,9,-4,-4,-29,-107,-58,-29,-9,-9
-9,-9,0,9,-4,-4,-34,-107,-58,-29,-9,-9
-9,-9,0,9,-4,-4,-39,-107,-58,-29,-9,-9
-9,-9,0,9,-4,-4,-39,-107,-58,-29,-9,-9
-9,-9,0,9,-4,-4,-39,-107,-58,-29,-9,-9
-14,-9,4,12,-9,-2,-39,-107,-58,-29,-9,-9
-19,-9,9,14,-14,0,-39,-107,-58,-29,-9,-9
-19,-9,9,14,-14,0,-39,-107,-58,-29,-9,-9
-19,-9,9,14,-14,0,-39,-107,-58,-29,-9,-9
-14,-9,4,12,-9,-2,-39,-107,-58,-29,-9,-9
-9,-9,0,9,-4,-4,-39,-107,-58,-29,-9,-9
-9,-9,0,9,-4,-4,-39,-107,-58,-29,-9,-9
-9,-9,0,9,-4,-4,-39,-107,-58,-29,-9,-9
-9,-9,0,9,-4,-4,-39,-107,-63,-34,-9,-9
-9,-9,0,9,-4,-4,-39,-107,-68,-39,-9,-9
-9,-9,0,9,-4,-4,-39,-107,-68,-39,-9,-9
-9,-9,0,9,-4,-4,-39,-107,-68,-39,-9,-9
-9,-9,0,9,-4,-4,-39,-107,-68,-39,-9,-9
-9,-9,0,9,-4,-4,-39,-107,-68,-39,-9,-9
-9,-9,0,9,-4,-4,-34,-112,-68,-39,-9,-9
-9,-9,0,9,-4,-4,-29,-117,-68,-39,-9,-9
-9,-9,0,9,-4,-4,-29,-117,-68,-39,-9,-9
-9,-9,0,9,-4,-4,-29,-117,-68,-39,-9,-9
-9,-9,0,9,-4,-4,-29,-117,-68,-34,-9,-9
-9,-9,0,9,-4,-4,-29,-117,-68,-29,-9,-9
-9,-9,0,9,-4,-4,-34,-117,-68,-29,-9,-9
-9,-9,0,9,-4,-4,-39,-117,-68,-29,-9,-9
-9,-9,0,9,-4,-4,-39,-117,-68,-29,-9,-9
-9,-9,0,9,-4,-4,-39,-117,-68,-29,-9,-9
-9,-9,0,9,-4,-4,-39,-117,-68,-29,-9,-9
-9,-9,0,9,-4,-4,-39,-117,-68,-29,-9,-9
-9,-9,0,9,-4,-4,-39,-117,-68,-29,-9,-9
-9,-9,0,9,-4,-4,-39,-117,-68,-29,-9,-9
-9,-9,0,9,-4,-4,-39,-117,-68,-34,-9,-9
-9,-9,0,9,-4,-4,-39,-117,-68,-39,-9,-9
-9,-4,4,7,-7,0,-39,-117,-68,-39,-9,-9
-9,0,9,4,-9,4,-39,-117,-68,-39,-9,-9
-9,0,9,4,-9,4,-39,-117,-68,-39,-9,-9
-9,0,9,4,-9,4,-39,-117,-68,-39,-9,-9
-9,0,9,4,-9,4,-39,-117,-68,-39,-9,-9
-9,0,9,4,-9,4,-39,-117,-68,-39,-9,-9
-9,0,9,4,-9,4,-39,-117,-68,-39,-9,-9
-9,0,9,4,-9,4,-39,-117,-68,-39,-9,-9
-9,0,9,4,-9,4,-39,-117,-73,-39,-9,-9
-9,0,9,4,-9,4,-39,-117,-78,-39,-9,-9
-9,-4,4,7,-7,0,-39,-117,-78,-39,-9,-9
-9,-9,0,9,-4,-4,-39,-117,-78,-39,-9,-9
-9,-9,0,9,-4,-4,-39,-117,-73,-39,-9,-9
-9,-9,0,9,-4,-4,-39,-117,-68,-39,-9,-9
-9,-9,0,9,-4,-4,-39,-117,-68,-39,-9,-9
-9,-9,0,9,-4,-4,-39,-117,-68,-39,-9,-9
-9,-9,0,9,-4,-4,-39,-122,-68,-39,-9,-9
-9,-9,0,9,-4,-4,-39,-126,-68,-39,-9,-9
-9,-4,4,7,-7,0,-39,-126,-73,-39,-9,-9
-9,0,9,4,-9,4,-39,-126,-78,-39,-9,-9
-9,0,9,4,-9,4,-39,-126,-78,-39,-9,-9
-9,0,9,4,-9,4,-39,-126,-78,-39,-9,-9
-9,4,14,2,-12,9,-39,-122,-73,-34,-9,-9
-9,9,19,0,-14,14,-39,-117,-68,-29,-9,-9
0,19,19,-9,-9,19,-34,-112,-58,-24,0,-9
9,29,19,-19,-4,24,-29,-107,-48,-19,9,-9
9,43,34,-26,-12,39,-19,-92,-39,-9,14,0
9,58,48,-34,-19,53,-9,-78,-29,0,19,9
9,58,48,-34,-19,53,0,-78,-24,0,24,9
9,58,48,-34,-19,53,9,-78,-19,0,29,9
14,58,43,-36,-14,51,9,-73,-14,4,29,14
19,58,39,-39,-9,48,9,-68,-9,9,29,19
34,68,34,-51,0,51,4,-58,-4,14,34,24
48,78,29,-63,9,53,0,-48,0,19,39,29
48,92,43,-70,2,68,-4,-48,0,19,43,34
48,107,58,-78,-4,82,-9,-48,0,19,48,39
48,107,58,-78,-4,82,-24,-68,-4,19,48,43
48,107,58,-78,-4,82,-39,-87,-9,19,48,48
48,107,58,-78,-4,82,-53,-97,-19,14,48,48
48,107,58,-78,-4,82,-63,-102,-29,9,48,48
48,107,58,-78,-4,82,-78,-107,-39,4,48,48
48,107,58,-78,-4,82,-78,-107,-39,4,48,48
58,117,58,-87,0,87,-82,-107,-39,9,58,53
58,126,68,-92,-4,97,-82,-112,-39,9,58,58
58,117,58,-87,0,87,-82,-122,-53,4,53,58
53,97,43,-75,4,70,-78,-131,-68,-9,43,43
48,78,29,-63,9,53,-78,-131,-73,-19,29,39
29,48,19,-39,4,34,-68,-131,-73,-24,19,29
9,34,24,-21,-7,29,-63,-131,-73,-29,14,14
4,34,29,-19,-12,31,-53,-131,-73,-29,14,14
-4,19,24,-7,-14,21,-53,-131,-73,-34,4,4
-4,9,14,-2,-9,12,-48,-131,-78,-39,-4,-4
-4,4,9,0,-7,7,-48,-136,-82,-43,-9,-14
-9,-4,4,7,-7,0,-48,-146,-92,-58,-19,-19
-14,-19,-4,17,-4,-12,-48,-151,-92,-58,-19,-19
-19,-24,-4,21,-7,-14,-48,-151,-97,-58,-19,-14
-24,-24,0,24,-12,-12,-48,-156,-97,-58,-19,-14
-24,-24,0,24,-12,-12,-48,-161,-97,-58,-24,-14
-24,-29,-4,26,-9,-17,-53,-156,-102,-58,-24,-14
-24,-29,-4,26,-9,-17,-58,-156,-107,-58,-24,-14
-19,-29,-9,24,-4,-19,-58,-156,-107,-58,-29,-14
-14,-29,-14,21,0,-21,-58,-156,-107,-58,-34,-14
-14,-29,-14,21,0,-21,-58,-161,-107,-63,-34,-14
-14,-29,-14,21,0,-21,-58,-161,-107,-63,-34,-14
-14,-24,-9,19,-2,-17,-58,-161,-107,-63,-34,-19
-14,-19,-4,17,-4,-12,-58,-156,-107,-63,-34,-24
-14,-19,-4,17,-4,-12,-58,-156,-102,-63,-34,-24
-14,-19,-4,17,-4,-12,-58,-156,-97,-63,-34,-24
-14,-19,-4,17,-4,-12,-58,-156,-97,-63,-34,-24
-9,-19,-9,14,0,-14,-58,-156,-97,-63,-34,-24
-9,-19,-9,14,0,-14,-53,-156,-97,-63,-34,-24
-9,-19,-9,14,0,-14,-48,-156,-97,-63,-34,-24
-14,-24,-9,19,-2,-17,-48,-156,-97,-63,-34,-24
-19,-29,-9,24,-4,-19,-48,-156,-92,-63,-34,-24
-34,-34,0,34,-17,-17,-24,-161,-92,-87,-53,-43
-107,-39,68,73,-87,14,48,-200,-82,-131,-87,-82
-200,-58,141,129,-170,41,156,-248,-78,-214,-146,-136
-248,-112,136,180,-192,12,258,-229,-63,-268,-209,-214
-234,-92,141,163,-187,24,307,-151,4,-214,-170,-214
-180,-9,170,95,-175,80,336,68,190,-9,-39,-146
-78,170,248,-46,-163,209,356,336,434,302,185,-9
117,419,302,-268,-92,361,283,453,561,610,458,204
400,673,273,-536,63,473,136,566,634,956,746,434
688,834,146,-761,270,490,-102,585,575,1146,936,653
795,854,58,-824,368,456,-405,214,317,1029,966,805
634,751,117,-692,258,434,-624,-336,97,775,902,941
634,278,-356,-456,495,-39,-814,-580,-346,429,663,902
663,-278,-941,-192,802,-610,-1019,-912,-951,-180,204,644
536,-732,-1268,97,902,-1000,-1068,-1381,-1429,-746,-258,283
224,-912,-1137,344,680,-1024,-897,-1590,-1561,-1054,-522,14
-19,-868,-849,444,414,-858,-668,-1395,-1405,-995,-541,-92
-92,-658,-566,375,236,-612,-414,-941,-956,-697,-400,-92
-92,-507,-414,300,161,-461,-204,-531,-585,-473,-317,-122
-87,-375,-287,231,100,-331,-87,-287,-341,-312,-253,-151
-63,-248,-185,156,61,-217,-68,-185,-219,-200,-161,-122
-34,-190,-156,112,61,-173,-9,-73,-122,-131,-126,-107
-34,-165,-131,100,48,-148,29,-29,-78,-107,-112,-87
-29,-112,-82,70,26,-97,43,9,-24,-73,-82,-73
-29,-68,-39,48,4,-53,29,9,-19,-58,-58,-73
-29,-68,-39,48,4,-53,24,9,-19,-58,-58,-78
-29,-82,-53,56,12,-68,39,14,-19,-58,-63,-78
-29,-73,-43,51,7,-58,39,29,-4,-58,-63,-78
-29,-58,-29,43,0,-43,39,24,0,-48,-68,-73
-24,-58,-34,41,4,-46,39,19,0,-48,-63,-68
-24,-58,-34,41,4,-46,39,19,0,-48,-63,-68
-19,-58,-39,39,9,-48,43,24,4,-43,-63,-63
-19,-53,-34,36,7,-43,43,34,4,-43,-58,-63
-19,-53,-34,36,7,-43,43,39,9,-43,-53,-63
-19,-48,-29,34,4,-39,43,39,9,-48,-53,-68
-19,-48,-29,34,4,-39,43,39,9,-53,-53,-68
-24,-48,-24,36,0,-36,43,43,9,-53,-58,-68
-24,-48,-24,36,0,-36,43,43,9,-48,-63,-68
-24,-53,-29,39,2,-41,43,43,14,-48,-63,-68
-24,-53,-29,39,2,-41,43,43,14,-48,-63,-68
-24,-58,-34,41,4,-46,48,48,19,-43,-63,-68
-29,-58,-29,43,0,-43,48,53,29,-39,-63,-68
-29,-58,-29,43,0,-43,48,53,29,-39,-63,-68
-29,-58,-29,43,0,-43,53,53,29,-39,-63,-68
-29,-58,-29,43,0,-43,53,53,34,-39,-63,-68
-29,-58,-29,43,0,-43,53,58,39,-39,-63,-73
-29,-63,-34,46,2,-48,58,58,39,-34,-68,-73
-29,-63,-34,46,2,-48,58,63,43,-34,-68,-73
-29,-63,-34,46,2,-48,63,63,43,-34,-68,-73
-29,-63,-34,46,2,-48,73,68,48,-34,-68,-78
-29,-63,-34,46,2,-48,73,73,48,-34,-68,-78
-39,-63,-24,51,-7,-43,73,73,53,-34,-68,-78
-43,-68,-24,56,-9,-46,78,78,58,-34,-68,-78
-48,-68,-19,58,-14,-43,82,87,58,-34,-68,-82
-53,-68,-14,61,-19,-41,87,92,63,-34,-73,-87
-53,-73,-19,63,-17,-46,87,97,63,-34,-73,-87
-48,-73,-24,61,-12,-48,87,102,68,-34,-73,-87
-48,-73,-24,61,-12,-48,82,112,68,-34,-73,-87
-48,-78,-29,63,-9,-53,87,112,73,-34,-78,-92
-48,-78,-29,63,-9,-53,92,112,78,-34,-78,-92
-48,-82,-34,65,-7,-58,92,122,87,-34,-78,-92
-48,-82,-34,65,-7,-58,97,131,92,-29,-78,-92
-53,-82,-29,68,-12,-56,102,141,97,-29,-78,-92
-53,-82,-29,68,-12,-56,112,151,102,-24,-78,-87
-53,-87,-34,70,-9,-61,112,165,107,-24,-78,-92
-53,-87,-34,70,-9,-61,117,180,112,-19,-73,-92
-58,-87,-29,73,-14,-58,126,195,122,-19,-73,-97
-63,-87,-24,75,-19,-56,131,209,131,-14,-73,-102
-63,-87,-24,75,-19,-56,136,219,141,-9,-73,-107
-63,-87,-24,75,-19,-56,141,234,151,-9,-73,-107
-63,-92,-29,78,-17,-61,156,248,156,-4,-73,-107
-58,-97,-39,78,-9,-68,170,273,170,0,-73,-107
-53,-97,-43,75,-4,-70,180,292,180,4,-73,-112
-48,-97,-48,73,0,-73,190,317,195,9,-73,-112
-48,-97,-48,73,0,-73,190,336,204,19,-73,-117
-48,-92,-43,70,-2,-68,200,366,224,29,-73,-112
-48,-92,-43,70,-2,-68,214,395,239,34,-68,-112
-53,-92,-39,73,-7,-65,224,424,248,43,-63,-112
-48,-92,-43,70,-2,-68,234,458,273,48,-63,-112
-43,-97,-53,70,4,-75,244,488,287,58,-63,-117
-43,-97,-53,70,4,-75,253,527,302,73,-63,-117
-43,-97,-53,70,4,-75,263,561,322,82,-58,-117
-43,-107,-63,75,9,-85,263,610,336,92,-58,-122
-34,-112,-78,73,21,-95,273,653,361,107,-58,-122
-34,-112,-78,73,21,-95,278,697,380,131,-53,-122
-34,-112,-78,73,21,-95,278,741,409,146,-48,-117
-24,-112,-87,68,31,-100,283,780,429,165,-43,-117
-14,-107,-92,61,39,-100,287,824,439,175,-39,-112
-9,-92,-82,51,36,-87,287,854,458,195,-29,-107
-4,-82,-78,43,36,-80,278,883,473,209,-19,-97
-4,-78,-73,41,34,-75,273,902,483,229,-9,-87
4,-68,-73,31,39,-70,263,927,497,248,0,-73
19,-53,-73,17,46,-63,248,927,502,253,14,-63
24,-39,-63,7,43,-51,234,927,502,273,29,-53
34,-29,-63,-2,48,-46,214,907,492,278,39,-39
43,-14,-58,-14,51,-36,190,873,492,283,48,-29
53,4,-48,-29,51,-21,161,839,473,287,58,-14
58,24,-34,-41,46,-4,141,790,439,287,68,4
63,34,-29,-48,46,2,107,722,405,273,78,19
68,58,-9,-63,39,24,78,649,366,253,82,24
73,73,0,-73,36,36,58,566,326,239,87,43
73,92,19,-82,26,56,29,483,283,224,97,48
73,97,24,-85,24,61,14,414,244,204,102,58
73,102,29,-87,21,65,0,346,214,190,107,68
73,102,29,-87,21,65,-9,278,180,170,107,73
73,107,34,-90,19,70,-24,229,141,146,102,73
73,107,34,-90,19,70,-34,175,117,126,97,68
73,107,34,-90,19,70,-39,131,92,102,92,58
63,102,39,-82,12,70,-43,92,73,87,82,58
58,97,39,-78,9,68,-53,58,48,73,73,53
58,92,34,-75,12,63,-53,34,29,58,73,53
53,87,34,-70,9,61,-53,9,9,48,68,53
48,82,34,-65,7,58,-53,-14,4,39,58,43
43,73,29,-58,7,51,-53,-29,-4,29,53,43
34,68,34,-51,0,51,-53,-39,-14,19,43,43
39,68,29,-53,4,48,-53,-53,-24,9,34,43
39,63,24,-51,7,43,-53,-68,-29,0,34,39
39,58,19,-48,9,39,-53,-78,-34,0,29,34
34,58,24,-46,4,41,-53,-87,-34,-4,24,29
29,53,24,-41,2,39,-53,-87,-34,-4,19,24
29,48,19,-39,4,34,-48,-82,-39,-4,24,19
29,43,14,-36,7,29,-48,-82,-39,-9,29,19
24,43,19,-34,2,31,-48,-82,-39,-9,24,19
19,39,19,-29,0,29,-48,-82,-39,-19,19,24
19,39,19,-29,0,29,-48,-87,-43,-19,19,19
19,39,19,-29,0,29,-48,-97,-43,-19,19,19
19,43,24,-31,-2,34,-43,-97,-43,-19,19,19
24,48,24,-36,0,36,-43,-97,-39,-19,19,14
24,43,19,-34,2,31,-39,-92,-39,-19,14,14
24,43,19,-34,2,31,-39,-92,-39,-19,14,14
14,39,24,-26,-4,31,-39,-92,-34,-24,14,14
14,34,19,-24,-2,26,-34,-92,-34,-24,9,14
14,34,19,-24,-2,26,-29,-87,-29,-24,9,14
14,34,19,-24,-2,26,-29,-87,-29,-24,9,14
14,34,19,-24,-2,26,-29,-78,-24,-24,9,14
9,34,24,-21,-7,29,-24,-68,-24,-19,9,14
4,34,29,-19,-12,31,-24,-68,-19,-19,9,9
0,34,34,-17,-17,34,-24,-68,-19,-19,9,9
4,34,29,-19,-12,31,-19,-58,-19,-19,9,4
4,34,29,-19,-12,31,-19,-58,-19,-19,9,4
4,34,29,-19,-12,31,-19,-63,-14,-19,9,4
0,34,34,-17,-17,34,-14,-63,-14,-19,9,4
0,34,34,-17,-17,34,-14,-63,-9,-14,14,4
0,34,34,-17,-17,34,-14,-58,-4,-14,14,4
-9,34,43,-12,-26,39,-9,-58,-4,-9,14,4
-9,34,43,-12,-26,39,-9,-53,-4,-9,14,4
-4,34,39,-14,-21,36,-9,-48,0,-4,14,4
-4,34,39,-14,-21,36,-9,-48,4,-4,14,4
-4,34,39,-14,-21,36,-9,-43,4,-4,14,4
-4,34,39,-14,-21,36,-4,-39,4,0,14,0
-4,34,39,-14,-21,36,-4,-34,4,0,14,0
-4,34,39,-14,-21,36,-9,-34,9,0,14,0
-4,34,39,-14,-21,36,-9,-34,9,4,14,0
-4,34,39,-14,-21,36,-9,-29,9,4,19,0
-9,39,48,-14,-29,43,-9,-29,9,4,14,4
-9,43,53,-17,-31,48,-9,-29,14,4,9,4
-9,43,53,-17,-31,48,-9,-29,14,9,14,4
-9,43,53,-17,-31,48,-9,-24,14,9,14,4
-9,39,48,-14,-29,43,-9,-24,14,4,14,4
-9,34,43,-12,-26,39,-9,-29,9,0,14,4
-9,34,43,-12,-26,39,-14,-29,9,0,9,4
-9,34,43,-12,-26,39,-14,-29,9,0,9,4
-9,34,43,-12,-26,39,-14,-34,0,0,14,0
-9,34,43,-12,-26,39,-19,-34,-4,0,14,-4
-9,34,43,-12,-26,39,-19,-39,-4,0,14,-4
-14,34,48,-9,-31,41,-19,-39,-9,-4,14,-4
-14,29,43,-7,-29,36,-14,-48,-9,-4,14,0
-9,29,39,-9,-24,34,-14,-48,-14,-4,9,0
-9,29,39,-9,-24,34,-14,-53,-19,-4,9,0
-9,29,39,-9,-24,34,-14,-58,-19,-9,9,0
-4,29,34,-12,-19,31,-14,-58,-19,-14,9,0
-4,29,34,-12,-19,31,-19,-58,-24,-14,9,0
-9,24,34,-7,-21,29,-19,-63,-24,-14,9,0
-9,24,34,-7,-21,29,-19,-73,-29,-14,9,0
-9,24,34,-7,-21,29,-19,-73,-34,-19,4,0
-9,24,34,-7,-21,29,-19,-82,-34,-19,4,0
-9,24,34,-7,-21,29,-24,-87,-39,-19,0,0
-9,24,34,-7,-21,29,-24,-92,-43,-24,0,0
-9,19,29,-4,-19,24,-24,-92,-43,-24,0,-4
-9,19,29,-4,-19,24,-24,-97,-43,-24,0,-4
-14,24,39,-4,-26,31,-29,-97,-43,-24,0,0
-14,24,39,-4,-26,31,-34,-107,-48,-29,0,0
-14,29,43,-7,-29,36,-34,-107,-53,-29,0,-4
-14,29,43,-7,-29,36,-34,-107,-53,-29,0,-4
-9,29,39,-9,-24,34,-39,-107,-53,-29,0,-4
-9,29,39,-9,-24,34,-39,-112,-53,-34,0,-4
-14,29,43,-7,-29,36,-39,-112,-53,-34,0,-4
-19,29,48,-4,-34,39,-39,-112,-58,-34,0,-4
-19,29,48,-4,-34,39,-39,-107,-58,-29,0,-4
-19,29,48,-4,-34,39,-39,-107,-58,-24,0,-4
-14,29,43,-7,-29,36,-34,-107,-58,-29,0,-4
-9,29,39,-9,-24,34,-34,-107,-58,-29,0,-4
-9,24,34,-7,-21,29,-34,-107,-58,-29,0,-4
-9,19,29,-4,-19,24,-34,-112,-63,-29,0,-4
-14,19,34,-2,-24,26,-39,-112,-63,-29,0,0
-19,19,39,0,-29,29,-43,-117,-63,-29,-4,0
-9,19,29,-4,-19,24,-39,-117,-63,-34,0,0
0,19,19,-9,-9,19,-39,-117,-68,-39,0,0
0,19,19,-9,-9,19,-39,-117,-68,-39,0,-4
0,19,19,-9,-9,19,-39,-117,-68,-39,0,-9
-4,19,24,-7,-14,21,-43,-117,-68,-39,0,-9
-9,19,29,-4,-19,24,-48,-117,-68,-39,0,-9
-9,19,29,-4,-19,24,-48,-117,-68,-39,0,-9
-9,19,29,-4,-19,24,-48,-117,-68,-39,0,-9
-9,19,29,-4,-19,24,-43,-117,-68,-39,-4,-9
-9,19,29,-4,-19,24,-39,-117,-68,-39,-9,-9
-9,19,29,-4,-19,24,-39,-117,-68,-39,-9,-4
-9,19,29,-4,-19,24,-39,-117,-68,-39,-9,0
-9,19,29,-4,-19,24,-39,-117,-68,-39,-9,0
-9,19,29,-4,-19,24,-39,-117,-68,-39,-9,0
-9,24,34,-7,-21,29,-39,-117,-68,-34,-9,0
-9,29,39,-9,-24,34,-39,-117,-68,-29,-9,0
-9,29,39,-9,-24,34,-39,-117,-68,-29,-9,0
-9,29,39,-9,-24,34,-39,-117,-68,-29,-9,0
-9,29,39,-9,-24,34,-39,-117,-68,-34,-9,0
-9,29,39,-9,-24,34,-39,-117,-68,-39,-9,0
-9,29,39,-9,-24,34,-43,-117,-68,-39,-9,0
-9,29,39,-9,-24,34,-48,-117,-68,-39,-9,0
-9,29,39,-9,-24,34,-48,-122,-68,-39,-4,0
-9,29,39,-9,-24,34,-48,-126,-68,-39,0,0
-9,29,39,-9,-24,34,-48,-126,-68,-39,0,0
-9,29,39,-9,-24,34,-48,-126,-68,-39,0,0
-9,29,39,-9,-24,34,-48,-126,-68,-39,0,0
-9,29,39,-9,-24,34,-48,-126,-68,-39,0,0
-9,29,39,-9,-24,34,-48,-126,-68,-39,0,0
-9,29,39,-9,-24,34,-48,-126,-68,-39,0,0
-9,29,39,-9,-24,34,-48,-126,-68,-39,0,0
-9,29,39,-9,-24,34,-48,-126,-68,-39,0,0
-9,29,39,-9,-24,34,-48,-126,-68,-39,0,0
-9,29,39,-9,-24,34,-48,-126,-68,-39,0,0
-9,29,39,-9,-24,34,-48,-126,-73,-39,0,0
-9,29,39,-9,-24,34,-48,-126,-78,-39,0,0
-9,24,34,-7,-21,29,-48,-126,-78,-39,-4,0
-9,19,29,-4,-19,24,-48,-126,-78,-39,-9,0
-14,19,34,-2,-24,26,-48,-126,-78,-39,-9,0
-19,19,39,0,-29,29,-48,-126,-78,-39,-9,0
-19,19,39,0,-29,29,-43,-126,-78,-39,-4,0
-19,19,39,0,-29,29,-39,-126,-78,-39,0,0
-14,24,39,-4,-26,31,-39,-126,-78,-39,0,0
-9,29,39,-9,-24,34,-39,-126,-78,-39,0,0
-9,29,39,-9,-24,34,-39,-126,-78,-39,0,0
-9,29,39,-9,-24,34,-39,-126,-78,-39,0,0
-9,29,39,-9,-24,34,-39,-126,-78,-39,-4,-4
-9,29,39,-9,-24,34,-39,-126,-78,-39,-9,-9
-4,29,34,-12,-19,31,-39,-131,-78,-39,-9,-9
0,29,29,-14,-14,29,-39,-136,-78,-39,-9,-9
0,29,29,-14,-14,29,-39,-136,-78,-39,-9,-9
0,29,29,-14,-14,29,-39,-136,-78,-39,-9,-9
-4,24,29,-9,-17,26,-43,-136,-78,-39,-9,-9
-9,19,29,-4,-19,24,-48,-136,-78,-39,-9,-9
-9,19,29,-4,-19,24,-48,-131,-78,-39,-4,-4
-9,19,29,-4,-19,24,-48,-126,-78,-39,0,0
-9,19,29,-4,-19,24,-43,-126,-78,-39,0,0
-9,19,29,-4,-19,24,-39,-126,-78,-39,0,0
-9,19,29,-4,-19,24,-39,-126,-78,-39,-4,0
-9,19,29,-4,-19,24,-39,-126,-78,-39,-9,0
-9,19,29,-4,-19,24,-39,-126,-78,-39,-9,0
-9,19,29,-4,-19,24,-39,-126,-78,-39,-9,0
-14,19,34,-2,-24,26,-39,-126,-78,-39,-9,0
-19,19,39,0,-29,29,-39,-126,-78,-39,-9,0
-19,24,43,-2,-31,34,-39,-126,-78,-39,-9,0
-19,29,48,-4,-34,39,-39,-126,-78,-39,-9,0
-14,29,43,-7,-29,36,-39,-126,-78,-39,-9,0
-9,29,39,-9,-24,34,-39,-126,-78,-39,-9,0
-9,29,39,-9,-24,34,-43,-126,-78,-39,-9,0
-9,29,39,-9,-24,34,-48,-126,-78,-39,-9,0
-9,29,39,-9,-24,34,-48,-126,-78,-39,-9,0
-9,29,39,-9,-24,34,-48,-126,-78,-39,-9,0
-4,34,39,-14,-21,36,-43,-122,-73,-34,-4,4
