I,II,III,aVR,aVL,aVF,V1,V2,V3,V4,V5,V6,
-68,-68,0,68,-34,-34,0,-146,-165,-107,-97,-48
-68,-68,0,68,-34,-34,0,-146,-165,-107,-97,-48
-68,-68,0,68,-34,-34,0,-146,-165,-107,-97,-48
-68,-68,0,68,-34,-34,0,-146,-165,-107,-97,-48
-68,-58,9,63,-39,-24,9,-146,-175,-117,-107,-58
-68,-58,9,63,-39,-24,9,-146,-175,-117,-107,-58
-68,-58,9,63,-39,-24,9,-146,-175,-117,-107,-58
-68,-58,9,63,-39,-24,9,-146,-175,-117,-107,-58
-68,-48,19,58,-43,-14,9,-146,-165,-126,-107,-58
-68,-48,19,58,-43,-14,9,-146,-165,-126,-107,-58
-68,-48,19,58,-43,-14,9,-146,-165,-126,-107,-58
-68,-48,19,58,-43,-14,9,-146,-165,-126,-107,-58
-68,-39,29,53,-48,-4,9,-146,-175,-117,-107,-68
-68,-39,29,53,-48,-4,9,-146,-175,-117,-107,-68
-68,-39,29,53,-48,-4,9,-146,-175,-117,-107,-68
-68,-39,29,53,-48,-4,9,-146,-175,-117,-107,-68
-68,-34,34,51,-51,0,0,-156,-175,-126,-117,-78
-68,-29,39,48,-53,4,0,-156,-175,-126,-117,-78
-68,-24,43,46,-56,9,0,-156,-175,-126,-117,-78
-68,-19,48,43,-58,14,0,-156,-175,-126,-117,-78
-78,-39,39,58,-58,0,4,-151,-161,-117,-117,-68
-78,-48,29,63,-53,-9,9,-146,-156,-117,-117,-68
-78,-58,19,68,-48,-19,14,-141,-151,-117,-117,-68
-78,-68,9,73,-43,-29,19,-136,-146,-117,-117,-68
-68,-58,9,63,-39,-24,29,-126,-156,-107,-107,-68
-68,-58,9,63,-39,-24,29,-126,-156,-107,-107,-68
-68,-58,9,63,-39,-24,29,-126,-156,-107,-107,-68
-68,-58,9,63,-39,-24,29,-126,-156,-107,-107,-68
-68,-58,9,63,-39,-24,19,-136,-156,-117,-107,-78
-68,-58,9,63,-39,-24,19,-136,-156,-117,-107,-78
-68,-58,9,63,-39,-24,19,-136,-156,-117,-107,-78
-68,-58,9,63,-39,-24,19,-136,-156,-117,-107,-78
-68,-58,9,63,-39,-24,19,-126,-156,-117,-117,-78
-68,-58,9,63,-39,-24,19,-126,-156,-117,-117,-78
-68,-58,9,63,-39,-24,19,-126,-156,-117,-117,-78
-68,-58,9,63,-39,-24,19,-126,-156,-117,-117,-78
-78,-58,19,68,-48,-19,9,-126,-156,-117,-117,-78
-78,-58,19,68,-48,-19,9,-126,-156,-117,-117,-78
-78,-58,19,68,-48,-19,9,-126,-156,-117,-117,-78
-78,-58,19,68,-48,-19,9,-126,-156,-117,-117,-78
-78,-63,14,70,-46,-24,14,-126,-146,-107,-107,-68
-78,-68,9,73,-43,-29,19,-126,-146,-107,-107,-68
-78,-73,4,75,-41,-34,24,-126,-146,-107,-107,-68
-78,-78,0,78,-39,-39,29,-126,-146,-107,-107,-68
-68,-73,-4,70,-31,-39,19,-126,-156,-117,-117,-78
-68,-68,0,68,-34,-34,19,-126,-156,-117,-117,-78
-68,-63,4,65,-36,-29,19,-126,-156,-117,-117,-78
-68,-58,9,63,-39,-24,19,-126,-156,-117,-117,-78
-68,-58,9,63,-39,-24,14,-131,-165,-126,-126,-87
-68,-58,9,63,-39,-24,9,-136,-165,-126,-126,-87
-68,-58,9,63,-39,-24,4,-141,-165,-126,-126,-87
-68,-58,9,63,-39,-24,0,-146,-165,-126,-126,-87
-68,-68,0,68,-34,-34,0,-146,-165,-126,-126,-87
-68,-68,0,68,-34,-34,0,-146,-165,-126,-126,-87
-68,-68,0,68,-34,-34,0,-146,-165,-126,-126,-87
-68,-68,0,68,-34,-34,0,-146,-165,-126,-126,-87
-68,-58,9,63,-39,-24,9,-146,-165,-126,-126,-78
-68,-58,9,63,-39,-24,9,-146,-165,-126,-126,-78
-68,-58,9,63,-39,-24,9,-146,-165,-126,-126,-78
-68,-58,9,63,-39,-24,9,-146,-165,-126,-126,-78
-68,-68,0,68,-34,-34,9,-156,-175,-126,-126,-87
-68,-68,0,68,-34,-34,9,-156,-175,-126,-126,-87
-68,-68,0,68,-34,-34,9,-156,-175,-126,-126,-87
-68,-68,0,68,-34,-34,9,-156,-175,-126,-126,-87
-78,-58,19,68,-48,-19,9,-156,-175,-126,-126,-87
-78,-58,19,68,-48,-19,9,-156,-175,-126,-126,-87
-78,-58,19,68,-48,-19,9,-156,-175,-126,-126,-87
-78,-58,19,68,-48,-19,9,-156,-175,-126,-126,-87
-78,-58,19,68,-48,-19,9,-156,-175,-126,-126,-78
-78,-58,19,68,-48,-19,9,-156,-175,-126,-126,-78
-78,-58,19,68,-48,-19,9,-156,-175,-126,-126,-78
-78,-58,19,68,-48,-19,9,-156,-175,-126,-126,-78
-68,-48,19,58,-43,-14,9,-156,-165,-126,-117,-68
-68,-39,29,53,-48,-4,9,-156,-165,-126,-117,-68
-68,-29,39,48,-53,4,9,-156,-165,-126,-117,-68
-68,-19,48,43,-58,14,9,-156,-165,-126,-117,-68
-68,-14,53,41,-61,19,19,-151,-156,-112,-112,-58
-68,-9,58,39,-63,24,19,-146,-156,-107,-107,-58
-68,-4,63,36,-65,29,19,-141,-156,-102,-102,-58
-68,0,68,34,-68,34,19,-136,-156,-97,-97,-58
-58,9,68,24,-63,39,19,-136,-156,-107,-107,-58
-58,9,68,24,-63,39,19,-136,-156,-107,-107,-58
-58,9,68,24,-63,39,19,-136,-156,-107,-107,-58
-58,9,68,24,-63,39,19,-136,-156,-107,-107,-58
-48,4,53,21,-51,29,24,-122,-146,-97,-92,-43
-48,0,48,24,-48,24,29,-117,-136,-87,-87,-39
-48,-4,43,26,-46,19,34,-112,-126,-78,-82,-34
-48,-9,39,29,-43,14,39,-107,-117,-68,-78,-29
-39,0,39,19,-39,19,29,-107,-102,-63,-63,-24
-39,9,48,14,-43,29,29,-107,-97,-58,-58,-19
-34,39,73,-2,-53,56,19,-107,-87,-43,-48,-9
-34,73,107,-19,-70,90,9,-107,-82,-34,-34,4
-29,87,117,-29,-73,102,-19,-126,-97,-43,-43,0
-29,102,131,-36,-80,117,-34,-141,-112,-43,-43,4
-29,107,136,-39,-82,122,-48,-161,-112,-48,-48,4
-24,107,131,-41,-78,119,-63,-170,-117,-48,-48,4
-14,107,122,-46,-68,114,-68,-170,-131,-48,-48,4
-4,112,117,-53,-61,114,-78,-175,-131,-48,-43,9
-4,107,112,-51,-58,109,-87,-170,-136,-48,-43,9
-4,112,117,-53,-61,114,-92,-165,-141,-48,-43,9
-9,97,107,-43,-58,102,-78,-156,-136,-39,-34,14
0,87,87,-43,-43,87,-68,-156,-126,-39,-29,24
9,82,73,-46,-31,78,-63,-146,-117,-39,-29,29
14,78,63,-46,-24,70,-58,-141,-112,-34,-29,39
19,63,43,-41,-12,53,-68,-141,-122,-34,-29,29
24,63,39,-43,-7,51,-68,-141,-131,-34,-29,29
29,58,29,-43,0,43,-73,-146,-141,-48,-34,29
29,58,29,-43,0,43,-82,-156,-151,-58,-39,24
19,53,34,-36,-7,43,-82,-170,-161,-78,-63,14
19,43,24,-31,-2,34,-78,-170,-170,-87,-63,14
19,39,19,-29,0,29,-78,-180,-175,-87,-68,14
9,34,24,-21,-7,29,-78,-190,-185,-92,-73,9
0,24,24,-12,-12,24,-68,-190,-185,-97,-78,14
-4,29,34,-12,-19,31,-68,-190,-190,-102,-78,14
-14,29,43,-7,-29,36,-63,-195,-195,-102,-82,9
-24,19,43,2,-34,31,-63,-200,-200,-107,-82,4
-24,14,39,4,-31,26,-58,-209,-195,-112,-97,-4
-34,14,48,9,-41,31,-53,-209,-200,-117,-107,-19
-43,14,58,14,-51,36,-48,-209,-200,-122,-112,-29
-53,9,63,21,-58,36,-39,-204,-200,-126,-117,-43
-63,-14,48,39,-56,17,-29,-195,-214,-131,-117,-58
-68,-34,34,51,-51,0,-19,-195,-219,-136,-126,-68
-82,-53,29,68,-56,-12,-14,-195,-224,-141,-136,-78
-97,-68,29,82,-63,-19,-4,-195,-229,-156,-151,-87
-102,-78,24,90,-63,-26,0,-204,-234,-165,-170,-97
-112,-82,29,97,-70,-26,0,-209,-248,-175,-180,-107
-112,-82,29,97,-70,-26,4,-214,-248,-185,-185,-117
-112,-97,14,104,-63,-41,4,-214,-248,-185,-195,-122
-117,-92,24,104,-70,-34,0,-224,-263,-190,-195,-131
-117,-97,19,107,-68,-39,0,-224,-263,-190,-195,-136
-117,-92,24,104,-70,-34,4,-224,-263,-195,-204,-141
-122,-87,34,104,-78,-26,4,-224,-263,-200,-204,-146
-117,-92,24,104,-70,-34,-4,-214,-263,-200,-209,-146
-112,-97,14,104,-63,-41,0,-214,-268,-200,-209,-146
-112,-107,4,109,-58,-51,0,-214,-268,-200,-214,-146
-107,-112,-4,109,-51,-58,0,-214,-268,-200,-214,-141
-117,-126,-9,122,-53,-68,4,-204,-263,-190,-200,-126
-117,-131,-14,124,-51,-73,9,-204,-258,-190,-200,-126
-117,-136,-19,126,-48,-78,14,-204,-253,-190,-200,-126
-117,-141,-24,129,-46,-82,19,-204,-248,-190,-200,-126
-117,-136,-19,126,-48,-78,14,-214,-263,-200,-209,-141
-117,-126,-9,122,-53,-68,14,-214,-263,-200,-214,-141
-117,-117,0,117,-58,-58,14,-214,-263,-204,-214,-141
-117,-102,14,109,-65,-43,14,-214,-263,-204,-219,-146
-117,-117,0,117,-58,-58,24,-204,-253,-195,-209,-141
-117,-122,-4,119,-56,-63,24,-204,-253,-200,-209,-136
-117,-126,-9,122,-53,-68,24,-204,-258,-200,-209,-131
-117,-136,-19,126,-48,-78,24,-204,-258,-200,-209,-126
-117,-146,-29,131,-43,-87,34,-204,-258,-209,-209,-126
-117,-146,-29,131,-43,-87,34,-204,-258,-209,-209,-131
-117,-146,-29,131,-43,-87,34,-204,-253,-209,-214,-141
-117,-146,-29,131,-43,-87,34,-204,-253,-209,-214,-146
-126,-131,-4,129,-61,-68,24,-214,-268,-209,-219,-146
-126,-131,-4,129,-61,-68,24,-214,-268,-209,-219,-146
-126,-126,0,126,-63,-63,24,-214,-268,-209,-219,-146
-126,-122,4,124,-65,-58,24,-214,-268,-209,-219,-146
-117,-112,4,114,-61,-53,14,-214,-268,-209,-219,-146
-117,-112,4,114,-61,-53,19,-214,-268,-209,-219,-146
-122,-107,14,114,-68,-46,19,-214,-268,-209,-219,-146
-122,-107,14,114,-68,-46,19,-214,-268,-209,-219,-146
-122,-107,14,114,-68,-46,29,-214,-268,-204,-224,-146
-122,-107,14,114,-68,-46,29,-214,-268,-204,-224,-146
-122,-107,14,114,-68,-46,24,-214,-268,-200,-219,-146
-122,-107,14,114,-68,-46,24,-214,-268,-200,-219,-146
-122,-112,9,117,-65,-51,29,-209,-253,-190,-209,-141
-122,-122,0,122,-61,-61,34,-204,-253,-190,-209,-136
-122,-126,-4,124,-58,-65,34,-200,-253,-190,-204,-131
-122,-131,-9,126,-56,-70,29,-190,-248,-185,-204,-122
-112,-112,0,112,-56,-56,19,-190,-239,-180,-204,-122
-102,-87,14,95,-58,-36,0,-185,-219,-180,-204,-131
-102,-78,24,90,-63,-26,-4,-165,-204,-165,-190,-117
-87,-82,4,85,-46,-39,-14,-136,-175,-146,-170,-112
-73,-87,-14,80,-29,-51,-9,-97,-126,-126,-161,-102
-82,-82,0,82,-41,-41,9,-68,-97,-112,-156,-112
-82,-92,-9,87,-36,-51,39,-58,-87,-117,-165,-126
-82,-107,-24,95,-29,-65,43,-43,-73,-107,-165,-112
-92,-107,-14,100,-39,-61,53,-63,-53,-78,-146,-102
-126,-87,39,107,-82,-24,58,-175,-87,-53,-136,-102
-161,-58,102,109,-131,21,19,-341,-180,-39,-107,-73
-165,-39,126,102,-146,43,-53,-488,-239,0,-39,-19
-146,-19,126,82,-136,53,-141,-610,-258,78,63,58
-122,29,151,46,-136,90,-258,-766,-317,151,180,136
-92,92,185,0,-139,139,-400,-961,-434,214,307,253
-9,180,190,-85,-100,185,-556,-1107,-522,297,458,395
73,263,190,-168,-58,226,-688,-1234,-575,405,624,551
180,361,180,-270,0,270,-844,-1366,-639,512,814,717
287,453,165,-370,61,309,-1029,-1498,-697,663,1029,912
405,556,151,-480,126,353,-1215,-1605,-707,829,1283,1132
541,663,122,-602,209,392,-1371,-1649,-697,971,1517,1346
683,746,63,-714,309,405,-1512,-1620,-639,1088,1732,1551
829,834,4,-832,412,419,-1654,-1576,-556,1200,1908,1732
941,936,-4,-939,473,466,-1781,-1566,-502,1229,2010,1839
1005,1024,19,-1015,492,522,-1859,-1551,-502,1161,1961,1873
1034,1063,29,-1049,502,546,-1888,-1532,-546,971,1786,1815
1044,1044,0,-1044,522,522,-1883,-1522,-634,692,1483,1664
1005,956,-48,-980,527,453,-1834,-1537,-775,331,1102,1449
922,819,-102,-871,512,358,-1742,-1561,-956,-43,683,1171
805,668,-136,-736,470,265,-1605,-1605,-1146,-385,307,897
663,497,-165,-580,414,165,-1429,-1639,-1327,-683,-14,663
492,341,-151,-417,322,95,-1268,-1698,-1512,-936,-292,448
302,273,-29,-287,165,122,-1122,-1795,-1717,-1137,-502,307
126,273,146,-200,-9,209,-990,-1888,-1917,-1273,-629,224
-9,283,292,-136,-151,287,-873,-1888,-1976,-1312,-668,185
-92,317,409,-112,-251,363,-771,-1737,-1805,-1185,-605,200
-126,366,492,-119,-309,429,-634,-1478,-1478,-961,-453,209
-175,390,566,-107,-370,478,-502,-1249,-1205,-775,-361,200
-214,366,580,-75,-397,473,-400,-1093,-1034,-649,-312,161
-229,336,566,-53,-397,451,-341,-946,-888,-561,-273,117
-234,326,561,-46,-397,444,-287,-810,-751,-473,-258,78
-244,317,561,-36,-402,439,-239,-712,-663,-434,-273,19
-244,244,488,0,-366,366,-195,-610,-590,-400,-278,-14
-229,170,400,29,-314,285,-141,-522,-517,-370,-273,-39
-214,122,336,46,-275,229,-107,-439,-448,-351,-283,-82
-204,82,287,61,-246,185,-73,-370,-390,-331,-283,-112
-190,53,244,68,-217,148,-34,-307,-346,-322,-287,-136
-165,43,209,61,-187,126,-4,-248,-302,-287,-287,-156
-151,24,175,63,-163,100,9,-190,-248,-263,-283,-151
-141,-14,126,78,-134,56,29,-146,-200,-229,-263,-151
-131,-43,87,87,-109,21,43,-87,-165,-204,-244,-141
-102,-58,43,80,-73,-7,63,-43,-117,-180,-229,-141
-87,-78,9,82,-48,-34,82,-4,-82,-156,-214,-146
-87,-107,-19,97,-34,-63,117,29,-58,-151,-219,-161
-87,-126,-39,107,-24,-82,131,48,-48,-146,-209,-161
-73,-136,-63,104,-4,-100,141,63,-48,-146,-209,-161
-73,-136,-63,104,-4,-100,141,68,-43,-141,-209,-156
-73,-136,-63,104,-4,-100,141,68,-43,-136,-209,-151
-73,-146,-73,109,0,-109,141,78,-29,-131,-209,-141
-78,-136,-58,107,-9,-97,146,78,-19,-136,-204,-146
-78,-141,-63,109,-7,-102,146,87,-9,-126,-204,-151
-78,-146,-68,112,-4,-107,141,97,-9,-126,-204,-156
-78,-146,-68,112,-4,-107,136,107,-4,-131,-204,-165
-78,-146,-68,112,-4,-107,146,107,-9,-122,-214,-165
-73,-141,-68,107,-2,-104,146,117,-4,-117,-214,-165
-73,-141,-68,107,-2,-104,146,122,0,-117,-214,-170
-73,-136,-63,104,-4,-100,146,122,0,-112,-214,-170
-73,-136,-63,104,-4,-100,146,117,4,-102,-214,-161
-73,-136,-63,104,-4,-100,146,126,14,-97,-209,-156
-73,-146,-73,109,0,-109,151,136,29,-97,-209,-156
-73,-151,-78,112,2,-114,151,146,29,-97,-204,-156
-73,-146,-73,109,0,-109,161,156,39,-97,-214,-165
-68,-141,-73,104,2,-107,161,165,39,-92,-214,-165
-68,-136,-68,102,0,-102,161,170,43,-92,-214,-165
-63,-131,-68,97,2,-100,161,175,48,-82,-214,-165
-63,-136,-73,100,4,-104,161,185,63,-82,-204,-165
-63,-136,-73,100,4,-104,161,190,68,-78,-200,-165
-63,-131,-68,97,2,-100,161,195,73,-78,-200,-165
-63,-131,-68,97,2,-100,165,209,87,-73,-200,-165
-68,-141,-73,104,2,-107,175,219,97,-68,-195,-156
-68,-141,-73,104,2,-107,175,229,112,-63,-195,-156
-68,-136,-68,102,0,-102,180,239,112,-58,-195,-156
-63,-131,-68,97,2,-100,180,248,126,-58,-190,-156
-63,-122,-58,92,-2,-90,180,253,136,-53,-185,-156
-58,-122,-63,90,2,-92,180,268,146,-43,-185,-156
-58,-122,-63,90,2,-92,180,278,156,-39,-185,-151
-58,-117,-58,87,0,-87,185,287,165,-34,-180,-151
-58,-107,-48,82,-4,-78,175,287,165,-29,-180,-161
-58,-107,-48,82,-4,-78,180,307,175,-24,-175,-161
-58,-107,-48,82,-4,-78,185,312,185,-19,-175,-161
-53,-107,-53,80,0,-80,185,331,200,-4,-165,-156
-43,-117,-73,80,14,-95,195,346,224,-4,-161,-156
-39,-122,-82,80,21,-102,200,361,234,9,-156,-151
-39,-122,-82,80,21,-102,200,375,253,9,-156,-151
-29,-107,-78,68,24,-92,209,385,263,19,-156,-151
-39,-117,-78,78,19,-97,214,409,273,34,-146,-141
-39,-117,-78,78,19,-97,219,424,292,43,-141,-141
-34,-126,-92,80,29,-109,224,444,307,48,-136,-136
-24,-117,-92,70,34,-104,239,458,322,63,-131,-131
-24,-107,-82,65,29,-95,239,473,322,58,-131,-141
-24,-102,-78,63,26,-90,239,488,336,68,-136,-141
-24,-102,-78,63,26,-90,239,517,356,73,-131,-136
-14,-97,-82,56,34,-90,239,531,370,78,-131,-136
-14,-102,-87,58,36,-95,248,546,390,97,-117,-136
-9,-97,-87,53,39,-92,258,566,414,107,-117,-131
-4,-97,-92,51,43,-95,263,590,429,117,-112,-131
0,-87,-87,43,43,-87,273,605,448,117,-107,-131
4,-82,-87,39,46,-85,268,634,473,131,-107,-131
9,-82,-92,36,51,-87,273,658,488,141,-102,-126
9,-87,-97,39,53,-92,283,688,512,156,-97,-122
14,-87,-102,36,58,-95,297,712,536,170,-92,-122
19,-87,-107,34,63,-97,302,727,551,180,-78,-107
24,-87,-112,31,68,-100,302,756,570,190,-68,-107
29,-82,-112,26,70,-97,312,780,600,200,-63,-102
34,-73,-107,19,70,-90,317,805,614,219,-48,-102
29,-68,-97,19,63,-82,322,829,639,229,-48,-112
34,-63,-97,14,65,-80,326,849,658,239,-43,-107
39,-63,-102,12,70,-82,331,873,678,253,-39,-107
43,-63,-107,9,75,-85,341,912,712,263,-29,-97
48,-68,-117,9,82,-92,356,951,746,292,-34,-82
58,-68,-126,4,92,-97,366,985,775,302,-19,-78
63,-63,-126,0,95,-95,370,1015,805,317,-9,-78
73,-53,-126,-9,100,-90,375,1039,829,331,0,-78
82,-48,-131,-17,107,-90,390,1058,844,336,14,-87
87,-43,-131,-21,109,-87,395,1088,878,351,24,-78
97,-39,-136,-29,117,-87,400,1127,897,366,34,-73
107,-24,-131,-41,119,-78,405,1166,932,385,43,-63
112,-29,-141,-41,126,-85,405,1190,971,409,53,-58
122,-39,-161,-41,141,-100,409,1220,1000,434,63,-53
126,-43,-170,-41,148,-107,414,1254,1034,444,73,-48
141,-48,-190,-46,165,-119,419,1283,1063,463,82,-43
151,-29,-180,-61,165,-104,419,1307,1102,478,97,-29
161,-24,-185,-68,173,-104,419,1337,1127,492,107,-24
165,-24,-190,-70,178,-107,424,1361,1151,512,122,-14
180,-14,-195,-82,187,-104,424,1385,1176,527,131,-9
180,-19,-200,-80,190,-109,439,1410,1215,556,151,0
190,-14,-204,-87,197,-109,439,1434,1239,570,161,9
200,-9,-209,-95,204,-109,439,1454,1263,590,180,19
209,0,-209,-104,209,-104,439,1464,1288,605,185,24
219,9,-209,-114,214,-100,439,1478,1307,619,204,24
229,9,-219,-119,224,-104,434,1493,1327,634,214,29
229,4,-224,-117,226,-109,434,1503,1337,649,224,39
244,4,-239,-124,241,-117,429,1512,1351,663,234,53
244,24,-219,-134,231,-97,414,1507,1361,673,239,73
248,29,-219,-139,234,-95,405,1507,1371,683,248,73
258,43,-214,-151,236,-85,395,1498,1371,683,258,82
263,43,-219,-153,241,-87,385,1483,1371,692,268,92
263,53,-209,-158,236,-78,366,1468,1361,688,263,97
268,63,-204,-165,236,-70,351,1439,1351,692,273,107
268,73,-195,-170,231,-61,341,1395,1332,692,283,112
268,82,-185,-175,226,-51,326,1346,1307,692,292,117
278,82,-195,-180,236,-56,322,1312,1288,702,302,131
268,78,-190,-173,229,-56,302,1268,1254,697,307,146
263,78,-185,-170,224,-53,283,1224,1215,683,307,156
258,82,-175,-170,217,-46,263,1180,1171,663,307,165
263,82,-180,-173,222,-48,248,1132,1132,653,317,170
258,82,-175,-170,217,-46,229,1068,1093,634,307,175
253,97,-156,-175,204,-29,209,1000,1039,614,307,180
239,97,-141,-168,190,-21,190,936,980,590,297,185
219,97,-122,-158,170,-12,165,883,917,561,292,190
204,97,-107,-151,156,-4,156,819,863,536,278,195
195,92,-102,-143,148,-4,146,756,805,507,273,195
175,78,-97,-126,136,-9,131,692,746,478,253,195
170,73,-97,-122,134,-12,107,629,678,453,234,190
161,73,-87,-117,124,-7,97,566,629,424,219,180
151,73,-78,-112,114,-2,82,502,566,385,200,175
141,73,-68,-107,104,2,68,439,512,356,180,161
131,82,-48,-107,90,17,53,385,448,317,161,156
117,87,-29,-102,73,29,39,331,390,287,141,146
102,82,-19,-92,61,31,39,283,341,258,122,126
87,82,-4,-85,46,39,29,244,292,229,102,122
63,78,14,-70,24,46,14,204,244,190,73,102
53,63,9,-58,21,36,14,161,200,165,53,92
48,63,14,-56,17,39,9,126,170,146,48,87
34,48,14,-41,9,31,0,92,136,122,29,78
29,43,14,-36,7,29,4,73,112,97,14,73
14,34,19,-24,-2,26,4,39,78,73,-9,63
9,29,19,-19,-4,24,4,24,43,58,-19,48
4,14,9,-9,-2,12,4,0,19,43,-39,43
4,19,14,-12,-4,17,-9,-24,-4,24,-58,24
4,14,9,-9,-2,12,-9,-39,-29,4,-73,14
-4,4,9,0,-7,7,-9,-53,-39,-4,-78,9
-19,0,19,9,-19,9,-9,-63,-58,-19,-87,-4
-19,9,29,4,-24,19,-9,-97,-78,-39,-87,-9
-24,4,29,9,-26,17,-9,-107,-87,-48,-97,-14
-29,4,34,12,-31,19,-9,-117,-102,-53,-107,-19
-34,4,39,14,-36,21,-9,-122,-117,-63,-117,-24
-39,4,43,17,-41,24,-9,-122,-136,-73,-131,-29
-43,0,43,21,-43,21,-9,-126,-141,-73,-141,-34
-48,0,48,24,-48,24,-9,-126,-141,-87,-141,-39
-48,-4,43,26,-46,19,-9,-136,-146,-92,-141,-43
-53,0,53,26,-53,26,-9,-151,-156,-97,-146,-43
-58,0,58,29,-58,29,-9,-156,-156,-102,-151,-48
-58,0,58,29,-58,29,-9,-161,-165,-107,-156,-53
-58,0,58,29,-58,29,-9,-161,-170,-107,-161,-58
-58,-9,48,34,-53,19,0,-151,-161,-97,-161,-48
-58,-29,29,43,-43,0,4,-151,-165,-97,-165,-48
-63,-39,24,51,-43,-7,4,-156,-165,-102,-165,-48
-63,-58,4,61,-34,-26,4,-156,-165,-102,-165,-48
-73,-48,24,61,-48,-12,4,-156,-165,-112,-156,-48
-73,-53,19,63,-46,-17,4,-156,-170,-112,-156,-48
-78,-53,24,65,-51,-14,4,-161,-175,-117,-156,-48
-78,-48,29,63,-53,-9,9,-165,-175,-117,-156,-48
-78,-39,39,58,-58,0,4,-175,-180,-117,-165,-58
-78,-34,43,56,-61,4,-4,-175,-185,-126,-170,-58
-78,-29,48,53,-63,9,-9,-175,-190,-126,-170,-58
-78,-19,58,48,-68,19,-14,-175,-195,-126,-170,-58
-78,-14,63,46,-70,24,-4,-175,-190,-117,-175,-63
-78,-14,63,46,-70,24,-4,-175,-190,-117,-175,-63
-78,-24,53,51,-65,14,-4,-175,-190,-117,-175,-63
-78,-24,53,51,-65,14,-4,-175,-185,-112,-175,-63
-68,-29,39,48,-53,4,-14,-175,-185,-112,-175,-58
-68,-24,43,46,-56,9,-19,-175,-190,-112,-175,-58
-68,-29,39,48,-53,4,-19,-175,-190,-117,-175,-58
-68,-43,24,56,-46,-9,-14,-175,-190,-117,-175,-58
-68,-39,29,53,-48,-4,-24,-175,-200,-122,-185,-68
-68,-34,34,51,-51,0,-24,-175,-200,-126,-190,-68
-68,-29,39,48,-53,4,-24,-175,-200,-131,-190,-68
-68,-29,39,48,-53,4,-19,-170,-200,-136,-185,-68
-68,-29,39,48,-53,4,-14,-170,-190,-126,-175,-68
-68,-29,39,48,-53,4,-9,-170,-185,-126,-175,-68
-68,-29,39,48,-53,4,-4,-170,-185,-126,-175,-68
-68,-19,48,43,-58,14,0,-170,-190,-126,-175,-68
-68,-24,43,46,-56,9,0,-161,-180,-117,-175,-58
-68,-34,34,51,-51,0,0,-161,-175,-117,-175,-58
-73,-39,34,56,-53,-2,0,-161,-175,-117,-175,-58
-73,-43,29,58,-51,-7,4,-161,-175,-117,-180,-58
-73,-43,29,58,-51,-7,4,-161,-170,-122,-180,-58
-73,-43,29,58,-51,-7,4,-156,-170,-122,-180,-58
-73,-43,29,58,-51,-7,4,-156,-170,-122,-180,-58
-73,-43,29,58,-51,-7,4,-156,-170,-122,-180,-63
-73,-39,34,56,-53,-2,4,-165,-170,-117,-190,-73
-73,-39,34,56,-53,-2,4,-161,-170,-117,-190,-73
-68,-34,34,51,-51,0,9,-156,-170,-117,-190,-73
-68,-34,34,51,-51,0,9,-156,-170,-117,-190,-73
-78,-34,43,56,-61,4,9,-156,-180,-126,-190,-63
-78,-29,48,53,-63,9,9,-156,-175,-126,-190,-68
-78,-29,48,53,-63,9,9,-156,-175,-126,-190,-68
-78,-34,43,56,-61,4,9,-156,-175,-122,-190,-68
-82,-39,43,61,-63,2,19,-165,-175,-112,-195,-73
-82,-34,48,58,-65,7,14,-165,-175,-117,-195,-73
-82,-39,43,61,-63,2,14,-165,-175,-117,-195,-68
-82,-53,29,68,-56,-12,19,-161,-175,-112,-195,-68
-73,-48,24,61,-48,-12,14,-161,-175,-122,-204,-78
-73,-43,29,58,-51,-7,9,-161,-175,-122,-204,-82
-73,-34,39,53,-56,2,4,-161,-175,-126,-204,-82
-73,-29,43,51,-58,7,0,-161,-175,-126,-204,-82
-73,-29,43,51,-58,7,0,-170,-175,-126,-204,-82
-73,-29,43,51,-58,7,0,-170,-175,-126,-204,-87
-73,-29,43,51,-58,7,0,-170,-175,-126,-204,-87
-73,-39,34,56,-53,-2,4,-165,-175,-126,-204,-82
-73,-48,24,61,-48,-12,14,-156,-170,-122,-204,-82
-73,-43,29,58,-51,-7,14,-156,-170,-122,-204,-82
-73,-43,29,58,-51,-7,14,-156,-170,-122,-204,-78
-73,-53,19,63,-46,-17,14,-156,-165,-122,-204,-78
-82,-53,29,68,-56,-12,24,-146,-156,-122,-195,-68
-82,-53,29,68,-56,-12,24,-146,-156,-126,-195,-68
-82,-43,39,63,-61,-2,24,-146,-156,-126,-195,-78
-82,-34,48,58,-65,7,24,-146,-161,-126,-195,-78
-82,-34,48,58,-65,7,14,-156,-170,-126,-204,-87
-82,-43,39,63,-61,-2,24,-156,-170,-126,-204,-87
-82,-48,34,65,-58,-7,24,-151,-165,-126,-204,-87
-82,-48,34,65,-58,-7,24,-151,-165,-126,-204,-87
-82,-43,39,63,-61,-2,19,-161,-165,-131,-204,-92
-82,-39,43,61,-63,2,14,-161,-165,-131,-200,-92
-82,-29,53,56,-68,12,9,-161,-161,-131,-200,-92
-82,-14,68,48,-75,26,4,-161,-161,-131,-200,-92
-82,-24,58,53,-70,17,14,-161,-161,-131,-200,-92
-82,-29,53,56,-68,12,14,-161,-161,-126,-200,-92
-78,-34,43,56,-61,4,14,-161,-161,-126,-200,-87
-78,-43,34,61,-56,-4,14,-161,-161,-126,-195,-87
-87,-58,29,73,-58,-14,14,-161,-161,-131,-204,-82
-87,-63,24,75,-56,-19,19,-156,-165,-131,-200,-78
-82,-58,24,70,-53,-17,19,-156,-170,-131,-200,-78
-82,-63,19,73,-51,-21,19,-151,-170,-126,-200,-73
-92,-73,19,82,-56,-26,19,-161,-170,-136,-204,-82
-87,-68,19,78,-53,-24,19,-161,-165,-131,-200,-82
-87,-63,24,75,-56,-19,19,-161,-165,-131,-200,-82
-87,-48,39,68,-63,-4,19,-161,-161,-131,-200,-82
-87,-34,53,61,-70,9,19,-170,-175,-131,-204,-87
-82,-39,43,61,-63,2,14,-170,-175,-136,-204,-87
-82,-34,48,58,-65,7,9,-165,-180,-131,-204,-87
-78,-29,48,53,-63,9,4,-161,-180,-131,-204,-87
-87,-43,43,65,-65,0,9,-170,-185,-131,-209,-92
-78,-48,29,63,-53,-9,4,-170,-180,-136,-204,-92
-73,-48,24,61,-48,-12,4,-165,-175,-141,-200,-87
-73,-43,29,58,-51,-7,4,-165,-175,-141,-190,-87
-82,-53,29,68,-56,-12,0,-161,-175,-146,-200,-87
-82,-53,29,68,-56,-12,4,-161,-175,-136,-195,-78
-82,-34,48,58,-65,7,9,-165,-175,-131,-190,-82
-78,-14,63,46,-70,24,-4,-165,-185,-131,-190,-82
-68,-9,58,39,-63,24,0,-170,-180,-126,-200,-82
-68,-4,63,36,-65,29,4,-170,-175,-126,-185,-78
-63,0,63,31,-63,31,4,-165,-170,-117,-185,-73
-63,0,63,31,-63,31,0,-161,-165,-117,-185,-73
-73,9,82,31,-78,46,9,-151,-156,-107,-175,-73
-68,9,78,29,-73,43,4,-161,-170,-107,-175,-73
-63,14,78,24,-70,46,4,-161,-170,-117,-175,-68
-68,19,87,24,-78,53,9,-165,-175,-126,-175,-68
-58,9,68,24,-63,39,29,-151,-151,-107,-165,-63
-53,9,63,21,-58,36,24,-141,-151,-107,-161,-53
-43,34,78,4,-61,56,29,-141,-141,-97,-161,-53
-43,19,63,12,-53,41,29,-131,-141,-87,-161,-58
-39,-9,29,24,-34,9,29,-117,-126,-78,-146,-48
-29,9,39,9,-34,24,19,-117,-122,-73,-141,-39
-29,19,48,4,-39,34,19,-117,-117,-68,-136,-39
-29,29,58,0,-43,43,19,-117,-112,-63,-131,-39
-29,39,68,-4,-48,53,19,-117,-107,-58,-126,-39
-24,73,97,-24,-61,85,9,-117,-92,-58,-112,-24
-24,102,126,-39,-75,114,0,-117,-92,-53,-102,-14
-19,122,141,-51,-80,131,-19,-126,-97,-53,-102,-9
-19,141,161,-61,-90,151,-34,-141,-112,-53,-102,-4
-29,141,170,-56,-100,156,-39,-151,-102,-48,-107,-4
-24,136,161,-56,-92,148,-53,-161,-107,-48,-107,-4
-24,117,141,-46,-82,129,-58,-165,-122,-58,-107,-4
-14,112,126,-48,-70,119,-68,-175,-122,-58,-102,0
-14,102,117,-43,-65,109,-68,-175,-126,-58,-92,9
-14,102,117,-43,-65,109,-73,-175,-131,-58,-92,9
-9,102,112,-46,-61,107,-73,-175,-131,-58,-92,9
0,97,97,-48,-48,97,-68,-175,-126,-58,-87,14
9,102,92,-56,-41,97,-78,-156,-112,-58,-78,14
14,107,92,-61,-39,100,-78,-151,-112,-53,-78,19
19,107,87,-63,-34,97,-78,-151,-112,-53,-78,19
24,112,87,-68,-31,100,-78,-151,-122,-53,-78,19
29,97,68,-63,-19,82,-82,-165,-141,-58,-82,9
29,97,68,-63,-19,82,-92,-175,-151,-68,-87,4
29,82,53,-56,-12,68,-92,-190,-161,-78,-102,4
29,73,43,-51,-7,58,-87,-190,-170,-87,-102,4
29,63,34,-46,-2,48,-78,-190,-165,-87,-97,14
19,53,34,-36,-7,43,-78,-200,-175,-92,-102,9
9,48,39,-29,-14,43,-78,-209,-175,-97,-107,4
4,48,43,-26,-19,46,-78,-209,-180,-102,-107,4
4,63,58,-34,-26,61,-82,-224,-185,-102,-122,-9
-4,58,63,-26,-34,61,-82,-229,-190,-107,-122,-14
-14,53,68,-19,-41,61,-68,-229,-195,-112,-126,-19
-24,53,78,-14,-51,65,-63,-229,-200,-117,-136,-29
-34,43,78,-4,-56,61,-58,-219,-200,-112,-131,-34
-43,29,73,7,-58,51,-48,-214,-200,-117,-136,-43
-53,9,63,21,-58,36,-39,-214,-204,-122,-146,-58
-58,-14,43,36,-51,14,-29,-214,-209,-126,-156,-68
-82,-24,58,53,-70,17,-24,-224,-214,-141,-165,-78
-97,-39,58,68,-78,9,-14,-224,-219,-156,-180,-87
-102,-48,53,75,-78,2,-9,-224,-224,-165,-190,-97
-112,-53,58,82,-85,2,-9,-229,-239,-175,-200,-107
-102,-58,43,80,-73,-7,-4,-234,-239,-185,-204,-117
-102,-78,24,90,-63,-26,-4,-234,-239,-185,-214,-122
-107,-92,14,100,-61,-39,0,-234,-244,-190,-214,-122
-107,-107,0,107,-53,-53,0,-234,-244,-190,-214,-126
-117,-107,9,112,-63,-48,14,-224,-244,-195,-214,-122
-122,-107,14,114,-68,-46,14,-224,-244,-200,-214,-126
-122,-107,14,114,-68,-46,14,-224,-244,-200,-219,-131
-122,-107,14,114,-68,-46,19,-224,-248,-200,-219,-136
-126,-102,24,114,-75,-39,19,-234,-258,-200,-214,-141
-126,-102,24,114,-75,-39,19,-234,-258,-200,-214,-141
-126,-102,24,114,-75,-39,19,-234,-258,-200,-209,-136
-126,-102,24,114,-75,-39,19,-234,-258,-200,-209,-136
-126,-107,19,117,-73,-43,19,-234,-248,-200,-209,-136
-126,-112,14,119,-70,-48,19,-234,-248,-200,-209,-136
-126,-122,4,124,-65,-58,24,-234,-253,-200,-209,-141
-126,-126,0,126,-63,-63,24,-234,-253,-200,-214,-141
-126,-122,4,124,-65,-58,24,-234,-263,-204,-214,-141
-126,-112,14,119,-70,-48,24,-234,-263,-204,-219,-146
-126,-107,19,117,-73,-43,24,-234,-263,-204,-219,-146
-126,-102,24,114,-75,-39,24,-234,-263,-209,-219,-146
-126,-102,24,114,-75,-39,14,-234,-258,-219,-219,-156
-126,-107,19,117,-73,-43,14,-234,-258,-219,-219,-156
-126,-107,19,117,-73,-43,14,-234,-258,-219,-219,-151
-126,-107,19,117,-73,-43,14,-234,-258,-219,-219,-151
-126,-117,9,122,-68,-53,14,-224,-253,-209,-214,-146
-126,-117,9,122,-68,-53,14,-224,-253,-209,-214,-146
-126,-117,9,122,-68,-53,14,-224,-258,-209,-209,-146
-126,-122,4,124,-65,-58,14,-224,-258,-209,-209,-146
-126,-117,9,122,-68,-53,14,-234,-258,-219,-209,-156
-126,-112,14,119,-70,-48,14,-234,-258,-219,-209,-156
-126,-107,19,117,-73,-43,14,-234,-258,-219,-209,-156
-126,-102,24,114,-75,-39,19,-234,-258,-219,-209,-156
-131,-92,39,112,-85,-26,9,-234,-268,-219,-219,-165
-131,-87,43,109,-87,-21,9,-234,-268,-219,-219,-165
-131,-82,48,107,-90,-17,9,-234,-268,-224,-224,-165
-131,-78,53,104,-92,-12,9,-234,-268,-224,-224,-165
-131,-92,39,112,-85,-26,14,-224,-258,-209,-209,-156
-131,-97,34,114,-82,-31,14,-224,-258,-209,-209,-156
-131,-102,29,117,-80,-36,19,-224,-253,-209,-209,-156
-131,-112,19,122,-75,-46,24,-224,-253,-209,-209,-156
-131,-141,-9,136,-61,-75,34,-214,-244,-200,-195,-136
-131,-141,-9,136,-61,-75,39,-219,-239,-185,-185,-131
-122,-122,0,122,-61,-61,29,-209,-229,-180,-185,-141
-112,-107,4,109,-58,-51,19,-195,-209,-180,-175,-131
-112,-97,14,104,-63,-41,4,-185,-195,-175,-161,-126
-97,-92,4,95,-51,-43,-14,-165,-175,-156,-141,-122
-92,-78,14,85,-53,-31,-19,-136,-146,-136,-141,-112
-82,-63,19,73,-51,-21,-9,-97,-126,-131,-156,-112
-82,-43,39,63,-61,-2,0,-87,-126,-146,-165,-136
-92,-68,24,80,-58,-21,34,-73,-102,-136,-165,-151
-102,-107,-4,104,-48,-56,53,-53,-63,-97,-136,-122
-126,-117,9,122,-68,-53,78,-117,-48,-63,-107,-102
-170,-87,82,129,-126,-2,58,-273,-112,-48,-87,-92
-185,-58,126,122,-156,34,4,-458,-200,-29,-39,-58
-165,-19,146,92,-156,63,-82,-590,-229,29,34,19
-141,29,170,56,-156,100,-200,-736,-278,102,141,97
-122,102,224,9,-173,163,-351,-932,-375,156,258,204
-58,180,239,-61,-148,209,-507,-1117,-473,219,380,326
34,263,229,-148,-97,246,-639,-1254,-546,297,527,463
131,331,200,-231,-34,265,-775,-1385,-610,405,717,610
229,405,175,-317,26,290,-951,-1537,-678,517,922,795
356,507,151,-431,102,329,-1146,-1683,-717,663,1156,1015
492,624,131,-558,180,378,-1322,-1776,-736,814,1381,1229
624,707,82,-666,270,395,-1483,-1795,-727,932,1595,1444
780,814,34,-797,373,424,-1644,-1781,-683,1015,1771,1634
922,936,14,-929,453,475,-1800,-1771,-639,1063,1893,1771
1005,1034,29,-1019,488,531,-1917,-1776,-639,1024,1903,1825
1063,1083,19,-1073,522,551,-1947,-1766,-663,902,1776,1795
1083,1073,-9,-1078,546,531,-1952,-1747,-732,663,1542,1673
1063,995,-68,-1029,566,463,-1912,-1761,-863,331,1180,1468
980,878,-102,-929,541,387,-1830,-1776,-1034,-43,771,1210
854,736,-117,-795,485,309,-1683,-1810,-1215,-366,395,946
712,546,-165,-629,439,190,-1517,-1834,-1385,-653,73,712
541,380,-161,-461,351,109,-1356,-1854,-1551,-917,-214,497
370,292,-78,-331,224,107,-1210,-1912,-1727,-1127,-434,326
185,273,87,-229,48,180,-1068,-2005,-1898,-1254,-570,204
19,292,273,-156,-126,283,-941,-2025,-1976,-1302,-639,146
-82,336,419,-126,-251,378,-829,-1922,-1873,-1224,-595,131
-126,366,492,-119,-309,429,-702,-1673,-1595,-1029,-473,161
-185,390,575,-102,-380,483,-561,-1405,-1302,-834,-361,180
-234,395,629,-80,-431,512,-448,-1210,-1102,-678,-292,161
-248,366,614,-58,-431,490,-370,-1054,-946,-580,-253,136
-253,346,600,-46,-427,473,-326,-917,-800,-492,-229,97
-263,307,570,-21,-417,439,-268,-800,-702,-444,-224,48
-253,263,517,-4,-385,390,-224,-688,-600,-409,-209,4
-248,219,468,14,-358,344,-180,-590,-536,-380,-214,-39
-214,180,395,17,-305,287,-136,-507,-468,-361,-224,-82
-204,141,346,31,-275,244,-92,-429,-419,-341,-224,-122
-190,82,273,53,-231,178,-34,-356,-366,-322,-239,-136
-185,43,229,70,-207,136,4,-278,-312,-297,-229,-136
-161,14,175,73,-168,95,19,-219,-258,-263,-224,-141
-151,4,156,73,-153,80,19,-175,-219,-229,-204,-141
-151,-4,146,78,-148,70,34,-136,-185,-214,-195,-151
-131,-19,112,75,-122,46,53,-82,-136,-200,-180,-161
-107,-58,48,82,-78,-4,73,-24,-92,-185,-175,-165
-107,-87,19,97,-63,-34,107,9,-78,-170,-170,-170
-97,-107,-9,102,-43,-58,131,29,-58,-156,-161,-170
-92,-102,-9,97,-41,-56,136,39,-68,-165,-170,-185
-92,-97,-4,95,-43,-51,131,39,-63,-161,-170,-185
-92,-92,0,92,-46,-46,126,34,-63,-156,-170,-185
-92,-97,-4,95,-43,-51,122,39,-48,-151,-170,-180
-97,-107,-9,102,-43,-58,122,53,-29,-136,-156,-175
-97,-122,-24,109,-36,-73,126,68,-19,-126,-156,-170
-97,-136,-39,117,-29,-87,126,82,-19,-126,-156,-165
-97,-146,-48,122,-24,-97,126,97,-14,-131,-156,-165
-97,-141,-43,119,-26,-92,126,92,-19,-131,-156,-175
-92,-131,-39,112,-26,-85,126,97,-14,-126,-156,-175
-92,-126,-34,109,-29,-80,126,97,-9,-126,-156,-180
-92,-117,-24,104,-34,-70,126,92,-9,-122,-156,-180
-82,-131,-48,107,-17,-90,131,112,4,-112,-146,-170
-82,-136,-53,109,-14,-95,136,126,14,-107,-141,-165
-82,-151,-68,117,-7,-109,146,141,29,-107,-141,-165
-82,-161,-78,122,-2,-119,151,156,29,-107,-136,-165
-82,-146,-63,114,-9,-104,161,161,39,-107,-136,-165
-78,-141,-63,109,-7,-102,161,165,39,-102,-136,-165
-78,-136,-58,107,-9,-97,161,165,43,-102,-136,-165
-73,-131,-58,102,-7,-95,161,165,48,-92,-136,-165
-73,-122,-48,97,-12,-85,151,175,53,-92,-146,-175
-73,-117,-43,95,-14,-80,151,180,58,-87,-141,-175
-73,-107,-34,90,-19,-70,151,185,63,-87,-141,-175
-73,-102,-29,87,-21,-65,156,200,78,-82,-141,-175
-68,-112,-43,90,-12,-78,165,209,78,-78,-136,-175
-68,-112,-43,90,-12,-78,165,219,92,-73,-136,-175
-68,-107,-39,87,-14,-73,170,229,92,-68,-136,-175
-63,-102,-39,82,-12,-70,170,239,107,-68,-131,-175
-63,-112,-48,87,-7,-80,170,244,126,-63,-122,-175
-58,-112,-53,85,-2,-82,170,258,136,-53,-117,-175
-58,-112,-53,85,-2,-82,170,268,146,-48,-112,-170
-58,-107,-48,82,-4,-78,175,278,156,-43,-102,-170
-58,-107,-48,82,-4,-78,175,297,165,-39,-112,-161
-58,-107,-48,82,-4,-78,180,317,175,-34,-107,-161
-58,-107,-48,82,-4,-78,185,322,185,-29,-107,-161
-53,-107,-53,80,0,-80,185,341,200,-14,-97,-156
-53,-117,-63,85,4,-90,195,346,214,-14,-82,-156
-48,-122,-73,85,12,-97,200,361,224,0,-78,-151
-48,-122,-73,85,12,-97,200,375,244,0,-78,-151
-39,-107,-68,73,14,-87,209,385,253,9,-78,-151
-29,-92,-63,61,17,-78,200,400,253,4,-78,-161
-29,-87,-58,58,14,-73,200,414,273,14,-73,-161
-24,-92,-68,58,21,-80,200,434,287,19,-68,-156
-14,-78,-63,46,24,-70,209,448,302,34,-63,-151
-24,-87,-63,56,19,-75,224,473,322,43,-58,-151
-24,-92,-68,58,21,-80,229,488,336,58,-58,-151
-24,-102,-78,63,26,-90,234,517,356,68,-48,-146
-14,-107,-92,61,39,-100,239,531,370,78,-43,-146
-14,-112,-97,63,41,-104,244,566,390,87,-29,-146
-9,-107,-97,58,43,-102,248,585,414,97,-29,-141
-4,-107,-102,56,48,-104,248,610,429,107,-24,-141
0,-97,-97,48,48,-97,253,624,448,107,-19,-141
4,-82,-87,39,46,-85,248,634,453,122,-19,-141
9,-73,-82,31,46,-78,253,658,468,131,-14,-136
9,-68,-78,29,43,-73,263,688,492,146,-9,-131
14,-58,-73,21,43,-65,278,712,517,161,-4,-131
29,-68,-97,19,63,-82,283,736,541,170,9,-126
34,-68,-102,17,68,-85,283,766,561,180,19,-126
39,-63,-102,12,70,-82,292,790,590,190,24,-122
43,-53,-97,4,70,-75,297,814,605,209,39,-122
39,-58,-97,9,68,-78,302,849,639,219,39,-122
43,-53,-97,4,70,-75,307,868,658,229,43,-117
48,-53,-102,2,75,-78,312,893,678,244,48,-117
53,-53,-107,0,80,-80,322,932,712,253,58,-107
58,-43,-102,-7,80,-73,326,961,727,263,53,-102
68,-39,-107,-14,87,-73,336,995,756,273,68,-97
73,-29,-102,-21,87,-65,341,1024,785,287,78,-97
82,-14,-97,-34,90,-56,346,1049,810,302,87,-97
92,-19,-112,-36,102,-65,351,1078,834,326,92,-97
97,-24,-122,-36,109,-73,356,1107,868,341,102,-87
107,-29,-136,-39,122,-82,361,1146,888,356,112,-82
117,-24,-141,-46,129,-82,366,1185,922,375,122,-73
131,-24,-156,-53,143,-90,375,1220,951,390,141,-58
141,-29,-170,-56,156,-100,380,1249,980,414,151,-53
146,-29,-175,-58,161,-102,385,1283,1015,424,161,-48
161,-29,-190,-65,175,-109,390,1312,1044,444,170,-43
161,-19,-180,-70,170,-100,400,1337,1073,448,175,-48
170,-14,-185,-78,178,-100,400,1366,1098,463,185,-43
175,-14,-190,-80,183,-102,405,1390,1122,483,200,-34
190,-4,-195,-92,192,-100,405,1415,1146,497,209,-29
190,-9,-200,-90,195,-104,409,1439,1166,517,219,-19
200,-4,-204,-97,202,-104,409,1464,1190,531,229,-9
209,0,-209,-104,209,-104,409,1483,1215,551,248,0
219,9,-209,-114,214,-100,409,1493,1239,566,253,4
239,29,-209,-134,224,-90,400,1507,1249,580,273,14
248,29,-219,-139,234,-95,395,1522,1268,595,283,19
248,24,-224,-136,236,-100,395,1532,1278,610,292,29
263,24,-239,-143,251,-107,390,1542,1293,624,302,43
273,24,-248,-148,261,-112,385,1546,1307,634,326,63
278,29,-248,-153,263,-109,375,1546,1322,644,336,63
287,43,-244,-165,265,-100,366,1537,1327,644,346,73
292,43,-248,-168,270,-102,356,1522,1332,653,356,82
292,43,-248,-168,270,-102,356,1503,1332,658,361,92
297,43,-253,-170,275,-104,341,1478,1322,663,370,107
297,43,-253,-170,275,-104,331,1439,1302,663,380,117
297,43,-253,-170,275,-104,317,1395,1278,663,390,126
297,68,-229,-183,263,-80,292,1361,1239,663,380,131
287,78,-209,-183,248,-65,273,1307,1205,658,385,136
283,92,-190,-187,236,-48,253,1254,1166,644,385,136
278,112,-165,-195,222,-26,234,1200,1122,624,385,136
273,122,-151,-197,212,-14,209,1141,1073,595,385,141
268,122,-146,-195,207,-12,190,1078,1034,575,375,146
263,136,-126,-200,195,4,170,1010,980,556,375,151
248,136,-112,-192,180,12,151,946,922,531,366,156
239,122,-117,-180,178,2,146,893,873,522,366,165
224,117,-107,-170,165,4,136,829,824,507,356,175
214,107,-107,-161,161,0,126,766,771,488,356,180
195,87,-107,-141,151,-9,112,702,717,468,341,185
195,82,-112,-139,153,-14,87,639,658,424,341,190
180,82,-97,-131,139,-7,78,575,610,395,326,180
165,82,-82,-124,124,0,63,512,546,356,307,175
151,82,-68,-117,109,7,48,448,492,326,287,161
131,97,-34,-114,82,31,43,385,429,297,263,146
117,97,-19,-107,68,39,29,331,370,268,239,136
102,87,-14,-95,58,36,29,283,322,239,214,117
87,82,-4,-85,46,39,19,244,273,209,190,112
82,68,-14,-75,48,26,14,204,244,180,180,102
73,53,-19,-63,46,17,14,161,200,156,161,92
68,53,-14,-61,41,19,9,126,170,136,156,87
53,39,-14,-46,34,12,0,92,136,112,136,78
39,48,9,-43,14,29,-4,63,102,97,122,53
24,43,19,-34,2,31,-4,29,68,73,97,43
19,43,24,-31,-2,34,-4,14,34,58,87,29
14,34,19,-24,-2,26,-4,-9,9,43,68,24
-4,43,48,-19,-26,46,-19,-43,-9,19,48,4
-4,43,48,-19,-26,46,-19,-58,-39,-4,34,-4
-14,39,53,-12,-34,46,-19,-73,-53,-19,29,-9
-29,39,68,-4,-48,53,-19,-82,-78,-39,19,-24
-29,24,53,2,-41,39,-9,-102,-92,-43,19,-24
-34,14,48,9,-41,31,-9,-107,-97,-48,9,-24
-39,9,48,14,-43,29,-9,-112,-107,-48,0,-24
-43,4,48,19,-46,26,-9,-112,-117,-53,-9,-24
-39,4,43,17,-41,24,-9,-126,-126,-73,-14,-39
-43,0,43,21,-43,21,-9,-136,-131,-73,-24,-43
-48,0,48,24,-48,24,-9,-141,-131,-87,-24,-48
-48,-4,43,26,-46,19,-9,-156,-136,-92,-24,-53
-53,-19,34,36,-43,7,-9,-151,-146,-87,-39,-53
-58,-19,39,39,-48,9,-9,-156,-146,-92,-43,-58
-58,-19,39,39,-48,9,-9,-161,-156,-97,-48,-63
-58,-19,39,39,-48,9,-9,-161,-161,-97,-53,-68
-68,-29,39,48,-53,4,0,-161,-151,-97,-48,-58
-68,-39,29,53,-48,-4,4,-161,-156,-97,-48,-58
-73,-39,34,56,-53,-2,4,-165,-156,-102,-43,-58
-73,-48,24,61,-48,-12,4,-165,-156,-102,-39,-58
-73,-34,39,53,-56,2,-4,-175,-165,-102,-48,-58
-73,-34,39,53,-56,2,-4,-175,-170,-102,-48,-58
-78,-29,48,53,-63,9,-4,-180,-175,-107,-48,-58
-78,-19,58,48,-68,19,0,-185,-175,-107,-48,-58
-78,-14,63,46,-70,24,0,-185,-175,-107,-58,-68
-78,-14,63,46,-70,24,-4,-185,-175,-117,-63,-68
-78,-14,63,46,-70,24,-4,-185,-175,-117,-63,-68
-78,-9,68,43,-73,29,-4,-185,-175,-117,-63,-68
-78,-14,63,46,-70,24,-4,-185,-180,-117,-58,-73
-78,-14,63,46,-70,24,-4,-185,-180,-117,-58,-73
-78,-24,53,51,-65,14,-4,-185,-180,-117,-58,-73
-78,-24,53,51,-65,14,-4,-185,-175,-112,-58,-73
-78,-24,53,51,-65,14,-4,-195,-185,-122,-68,-78
-78,-14,63,46,-70,24,-9,-195,-190,-122,-68,-78
-78,-14,63,46,-70,24,-9,-195,-190,-126,-68,-78
-78,-24,53,51,-65,14,-4,-195,-190,-126,-68,-78
-87,-29,58,58,-73,14,4,-185,-180,-117,-58,-68
-87,-34,53,61,-70,9,4,-185,-180,-117,-63,-68
-87,-39,48,63,-68,4,4,-185,-180,-117,-63,-68
-87,-48,39,68,-63,-4,9,-180,-180,-117,-58,-68
-78,-39,39,58,-58,0,0,-180,-180,-117,-58,-68
-78,-39,39,58,-58,0,0,-180,-175,-117,-58,-68
-78,-39,39,58,-58,0,0,-180,-175,-117,-58,-68
-78,-29,48,53,-63,9,0,-180,-180,-117,-58,-68
-78,-24,53,51,-65,14,-4,-190,-190,-126,-68,-78
-78,-24,53,51,-65,14,-9,-190,-185,-126,-68,-78
-82,-19,63,51,-73,21,-14,-190,-185,-126,-68,-78
-82,-14,68,48,-75,26,-14,-190,-185,-126,-73,-78
-82,-19,63,51,-73,21,-4,-180,-180,-122,-63,-78
-82,-24,58,53,-70,17,-4,-175,-180,-122,-63,-78
-82,-29,53,56,-68,12,-4,-175,-180,-122,-63,-78
-82,-34,48,58,-65,7,-4,-175,-180,-122,-63,-82
-82,-24,58,53,-70,17,4,-185,-180,-117,-63,-73
-82,-29,53,56,-68,12,4,-180,-180,-117,-63,-73
-78,-29,48,53,-63,9,9,-175,-180,-117,-63,-73
-78,-34,43,56,-61,4,9,-175,-180,-117,-63,-73
-78,-29,48,53,-63,9,0,-175,-180,-126,-73,-82
-78,-19,58,48,-68,19,0,-175,-175,-126,-73,-87
-78,-14,63,46,-70,24,0,-175,-175,-126,-73,-87
-78,-14,63,46,-70,24,0,-175,-175,-122,-73,-87
-82,-19,63,51,-73,21,9,-165,-165,-112,-73,-82
-82,-14,68,48,-75,26,4,-165,-165,-117,-68,-82
-82,-19,63,51,-73,21,4,-165,-165,-117,-63,-78
-82,-34,48,58,-65,7,9,-161,-165,-112,-58,-78
-82,-34,48,58,-65,7,9,-151,-165,-112,-58,-68
-82,-34,48,58,-65,7,9,-151,-165,-112,-58,-73
-82,-29,53,56,-68,12,9,-151,-165,-117,-58,-73
-82,-29,53,56,-68,12,9,-151,-165,-117,-58,-73
-82,-24,58,53,-70,17,0,-156,-165,-126,-63,-78
-82,-19,63,51,-73,21,0,-161,-165,-126,-68,-87
-82,-14,68,48,-75,26,0,-165,-165,-126,-73,-92
-82,-19,63,51,-73,21,4,-165,-165,-126,-78,-92
-82,-29,53,56,-68,12,14,-161,-161,-112,-68,-82
-82,-24,58,53,-70,17,14,-156,-161,-112,-68,-82
-82,-24,58,53,-70,17,14,-151,-161,-112,-68,-78
-82,-34,48,58,-65,7,14,-146,-156,-112,-68,-78
-82,-43,39,63,-61,-2,14,-156,-156,-112,-68,-78
-82,-43,39,63,-61,-2,14,-156,-156,-117,-68,-78
-82,-34,48,58,-65,7,14,-156,-156,-117,-68,-87
-82,-24,58,53,-70,17,14,-156,-161,-117,-68,-87
-82,-14,68,48,-75,26,-4,-156,-161,-126,-68,-97
-82,-24,58,53,-70,17,4,-156,-161,-126,-68,-97
-82,-29,53,56,-68,12,4,-151,-156,-126,-68,-97
-82,-29,53,56,-68,12,4,-151,-156,-126,-68,-97
-82,-39,43,61,-63,2,4,-151,-165,-122,-78,-92
-82,-39,43,61,-63,2,4,-151,-165,-122,-73,-92
-82,-34,48,58,-65,7,4,-151,-161,-122,-73,-92
-82,-24,58,53,-70,17,4,-151,-161,-122,-73,-92
-82,-24,58,53,-70,17,14,-141,-151,-122,-73,-92
-82,-29,53,56,-68,12,14,-141,-151,-117,-73,-92
-78,-34,43,56,-61,4,14,-141,-151,-117,-73,-87
-78,-43,34,61,-56,-4,14,-141,-151,-117,-68,-87
-87,-43,43,65,-65,0,14,-146,-151,-122,-78,-87
-87,-43,43,65,-65,0,19,-146,-156,-122,-73,-87
-82,-34,48,58,-65,7,19,-151,-161,-122,-73,-92
-82,-34,48,58,-65,7,19,-151,-161,-117,-73,-92
-92,-43,48,68,-70,2,14,-161,-170,-126,-73,-102
-87,-39,48,63,-68,4,9,-161,-165,-122,-73,-102
-87,-34,53,61,-70,9,4,-161,-165,-122,-78,-102
-87,-19,68,53,-78,24,0,-161,-161,-122,-82,-102
-97,-19,78,58,-87,29,14,-170,-170,-122,-92,-102
-92,-39,53,65,-73,7,14,-170,-165,-126,-87,-97
-92,-48,43,70,-68,-2,14,-165,-165,-122,-82,-92
-87,-58,29,73,-58,-14,14,-161,-161,-122,-78,-87
-97,-43,53,70,-75,4,9,-170,-170,-122,-87,-87
-87,-39,48,63,-68,4,4,-170,-170,-126,-87,-92
-82,-29,53,56,-68,12,4,-165,-170,-131,-87,-92
-82,-14,68,48,-75,26,4,-165,-175,-131,-82,-97
-82,-19,63,51,-73,21,0,-170,-165,-136,-82,-97
-82,-24,58,53,-70,17,4,-170,-165,-126,-78,-87
-82,-9,73,46,-78,31,9,-175,-165,-122,-73,-92
-78,4,82,36,-80,43,-4,-175,-175,-122,-73,-92
-87,-4,82,46,-85,39,-4,-175,-170,-122,-63,-82
-87,-4,82,46,-85,39,4,-170,-165,-117,-48,-78
-82,-4,78,43,-80,36,9,-161,-161,-102,-48,-73
-82,-9,73,46,-78,31,9,-151,-156,-97,-48,-73
-87,-4,82,46,-85,39,9,-151,-146,-97,-58,-82
-78,0,78,39,-78,39,4,-161,-161,-97,-58,-82
-68,9,78,29,-73,43,4,-161,-161,-107,-58,-78
-68,19,87,24,-78,53,9,-165,-165,-117,-58,-78
-58,39,97,9,-78,68,29,-141,-141,-97,-48,-73
-53,39,92,7,-73,65,34,-131,-131,-87,-53,-63
-53,34,87,9,-70,61,19,-131,-131,-87,-53,-63
-48,29,78,9,-63,53,19,-126,-126,-87,-39,-68
-39,34,73,2,-56,53,19,-117,-122,-82,-29,-63
-39,39,78,0,-58,58,19,-117,-117,-78,-29,-58
-39,43,82,-2,-61,63,19,-117,-112,-73,-29,-53
-39,48,87,-4,-63,68,19,-117,-107,-68,-29,-48
-34,58,92,-12,-63,75,14,-112,-87,-53,-19,-34
-34,82,117,-24,-75,100,9,-107,-82,-43,-4,-24
-29,97,126,-34,-78,112,-4,-112,-82,-39,0,-19
-29,112,141,-41,-85,126,-14,-122,-92,-34,4,-14
-29,131,161,-51,-95,146,-39,-131,-92,-39,0,-14
-24,136,161,-56,-92,148,-53,-141,-97,-39,0,-14
-24,126,151,-51,-87,139,-58,-146,-112,-48,0,-14
-14,131,146,-58,-80,139,-68,-156,-112,-48,4,-9
-4,131,136,-63,-70,134,-87,-161,-126,-48,-4,-9
-4,131,136,-63,-70,134,-92,-165,-131,-48,-4,-9
0,131,131,-65,-65,131,-92,-170,-131,-48,-4,-9
9,126,117,-68,-53,122,-87,-175,-126,-48,0,-4
9,117,107,-63,-48,112,-78,-156,-112,-48,9,4
14,117,102,-65,-43,109,-78,-151,-112,-43,9,9
19,112,92,-65,-36,102,-78,-151,-112,-43,9,9
24,112,87,-68,-31,100,-78,-151,-122,-43,9,9
29,107,78,-68,-24,92,-82,-156,-122,-48,4,0
29,107,78,-68,-24,92,-92,-165,-131,-58,0,-4
29,92,63,-61,-17,78,-92,-180,-141,-68,-14,-4
29,82,53,-56,-12,68,-87,-180,-151,-78,-14,-4
39,87,48,-63,-4,68,-97,-200,-165,-87,-19,-4
29,82,53,-56,-12,68,-97,-209,-175,-92,-24,-9
19,82,63,-51,-21,73,-97,-219,-175,-97,-29,-14
14,87,73,-51,-29,80,-97,-219,-180,-102,-29,-14
4,73,68,-39,-31,70,-82,-214,-175,-92,-24,-9
-4,58,63,-26,-34,61,-82,-219,-180,-97,-24,-14
-14,43,58,-14,-36,51,-68,-219,-185,-102,-29,-19
-24,34,58,-4,-41,46,-63,-219,-190,-107,-39,-29
-34,43,78,-4,-56,61,-68,-219,-190,-112,-43,-24
-43,39,82,2,-63,61,-58,-214,-190,-117,-48,-34
-53,29,82,12,-68,56,-48,-214,-195,-122,-58,-48
-58,14,73,21,-65,43,-39,-214,-200,-126,-68,-58
-73,-4,68,39,-70,31,-34,-224,-195,-131,-78,-68
-87,-19,68,53,-78,24,-24,-224,-200,-146,-92,-78
-92,-29,63,61,-78,17,-19,-224,-204,-156,-102,-87
-102,-34,68,68,-85,17,-19,-229,-219,-165,-112,-97
-112,-43,68,78,-90,12,-14,-224,-229,-175,-107,-107
-112,-58,53,85,-82,-2,-14,-224,-229,-175,-117,-112
-117,-68,48,92,-82,-9,-9,-224,-234,-180,-117,-112
-117,-78,39,97,-78,-19,-9,-224,-234,-180,-117,-117
-107,-78,29,92,-68,-24,4,-224,-234,-185,-136,-131
-112,-78,34,95,-73,-21,4,-224,-234,-190,-136,-136
-112,-78,34,95,-73,-21,4,-224,-234,-190,-141,-141
-112,-78,34,95,-73,-21,9,-224,-239,-190,-141,-146
-126,-73,53,100,-90,-9,19,-224,-239,-190,-146,-141
-126,-73,53,100,-90,-9,19,-224,-239,-190,-146,-141
-126,-73,53,100,-90,-9,19,-224,-239,-190,-141,-136
-126,-73,53,100,-90,-9,19,-224,-239,-190,-141,-136
-126,-73,53,100,-90,-9,19,-224,-239,-190,-151,-146
-126,-73,53,100,-90,-9,19,-224,-239,-190,-151,-146
-126,-78,48,102,-87,-14,24,-224,-244,-190,-151,-151
-126,-78,48,102,-87,-14,24,-224,-244,-190,-156,-151
-117,-78,39,97,-78,-19,14,-224,-244,-195,-156,-151
-117,-73,43,95,-80,-14,14,-224,-244,-195,-161,-156
-117,-73,43,95,-80,-14,14,-224,-244,-195,-161,-156
-117,-73,43,95,-80,-14,14,-224,-244,-200,-161,-156
-117,-63,53,90,-85,-4,14,-234,-258,-209,-170,-165
-117,-68,48,92,-82,-9,14,-234,-258,-209,-170,-165
-117,-68,48,92,-82,-9,14,-234,-258,-209,-170,-161
-117,-68,48,92,-82,-9,14,-234,-258,-209,-170,-161
-126,-78,48,102,-87,-14,14,-224,-253,-209,-165,-156
-126,-78,48,102,-87,-14,14,-224,-253,-209,-165,-156
-126,-78,48,102,-87,-14,14,-224,-258,-209,-161,-156
-126,-82,43,104,-85,-19,14,-224,-258,-209,-161,-156
-126,-82,43,104,-85,-19,19,-224,-248,-200,-161,-156
-126,-82,43,104,-85,-19,24,-224,-248,-200,-161,-156
-126,-82,43,104,-85,-19,29,-224,-248,-200,-161,-156
-126,-82,43,104,-85,-19,39,-224,-248,-200,-161,-156
-122,-73,48,97,-85,-12,34,-234,-258,-209,-170,-165
-122,-68,53,95,-87,-7,29,-234,-258,-209,-170,-165
-122,-63,58,92,-90,-2,24,-234,-258,-214,-175,-165
-122,-58,63,90,-92,2,19,-234,-258,-214,-175,-165
-122,-68,53,95,-87,-7,14,-224,-258,-209,-170,-156
-122,-68,53,95,-87,-7,14,-224,-258,-209,-170,-156
-122,-68,53,95,-87,-7,19,-224,-253,-209,-170,-156
-122,-73,48,97,-85,-12,24,-224,-253,-209,-170,-156
-122,-92,29,107,-75,-31,24,-214,-234,-190,-146,-146
-112,-63,48,87,-80,-7,19,-229,-248,-195,-156,-161
-112,-73,39,92,-75,-17,19,-219,-239,-200,-146,-161
-112,-68,43,90,-78,-12,19,-214,-229,-190,-146,-141
-102,-39,63,70,-82,12,4,-195,-214,-175,-131,-126
-87,-43,43,65,-65,0,-4,-185,-204,-156,-122,-122
-82,-58,24,70,-53,-17,-19,-165,-185,-136,-102,-112
-73,-43,29,58,-51,-7,-19,-136,-146,-131,-87,-112
-73,-24,48,48,-61,12,0,-97,-117,-117,-87,-117
-73,-39,34,56,-53,-2,24,-73,-102,-117,-107,-131
-73,-48,24,61,-48,-12,34,-53,-92,-117,-117,-141
-87,-48,39,68,-63,-4,48,-48,-68,-102,-117,-151
-102,-29,73,65,-87,21,68,-107,-63,-78,-87,-131
-156,-9,146,82,-151,68,63,-273,-112,-58,-58,-107
-175,9,185,82,-180,97,14,-444,-170,-29,-14,-68
-170,29,200,70,-185,114,-73,-561,-200,24,63,0
-161,82,244,39,-202,163,-175,-717,-239,107,170,87
-126,151,278,-12,-202,214,-312,-932,-346,170,283,190
-53,224,278,-85,-165,251,-473,-1127,-448,219,400,307
34,263,229,-148,-97,246,-600,-1268,-512,307,561,463
141,326,185,-234,-21,256,-736,-1400,-561,409,736,629
268,409,141,-339,63,275,-902,-1566,-649,517,941,819
395,536,141,-466,126,339,-1107,-1727,-717,629,1156,1015
517,658,141,-588,187,400,-1307,-1854,-766,746,1371,1220
653,766,112,-710,270,439,-1488,-1908,-790,829,1556,1410
805,868,63,-836,370,466,-1654,-1908,-766,907,1717,1595
956,946,-9,-951,483,468,-1800,-1912,-736,946,1825,1727
1063,1015,-48,-1039,556,483,-1908,-1932,-741,912,1834,1795
1112,1054,-58,-1083,585,497,-1961,-1942,-790,771,1698,1751
1122,1063,-58,-1093,590,502,-1981,-1947,-873,527,1434,1615
1098,1034,-63,-1066,580,485,-1956,-1961,-1024,190,1063,1395
1019,941,-78,-980,549,431,-1878,-1986,-1195,-180,658,1122
878,790,-87,-834,483,351,-1742,-2020,-1376,-497,287,858
717,605,-112,-661,414,246,-1571,-2010,-1522,-761,-9,624
536,390,-146,-463,341,122,-1385,-2000,-1649,-980,-278,414
361,273,-87,-317,224,92,-1205,-2025,-1790,-1146,-473,263
175,263,87,-219,43,175,-1049,-2074,-1917,-1244,-580,185
4,297,292,-151,-143,295,-917,-2078,-1961,-1263,-614,141
-87,336,424,-124,-256,380,-810,-1947,-1849,-1185,-570,131
-136,380,517,-122,-326,448,-697,-1688,-1576,-990,-448,151
-195,434,629,-119,-412,531,-566,-1424,-1288,-785,-351,161
-248,444,692,-97,-470,568,-448,-1229,-1073,-649,-283,136
-253,434,688,-90,-470,561,-375,-1063,-917,-551,-229,117
-253,424,678,-85,-466,551,-317,-917,-790,-473,-204,78
-253,380,634,-63,-444,507,-263,-795,-678,-409,-200,43
-248,307,556,-29,-402,431,-209,-688,-585,-361,-195,0
-224,239,463,-7,-344,351,-165,-585,-517,-341,-185,-34
-204,200,405,2,-305,302,-131,-497,-448,-322,-195,-73
-190,180,370,4,-280,275,-92,-414,-405,-312,-200,-107
-185,151,336,17,-261,244,-43,-336,-351,-297,-209,-136
-180,102,283,39,-231,192,0,-258,-287,-263,-204,-141
-161,73,234,43,-197,153,19,-195,-239,-229,-195,-141
-141,43,185,48,-163,114,34,-146,-195,-204,-185,-131
-131,19,151,56,-141,85,53,-112,-165,-180,-161,-131
-107,0,107,53,-107,53,63,-63,-122,-156,-156,-146
-78,-19,58,48,-68,19,78,-19,-78,-151,-151,-151
-78,-29,48,53,-63,9,92,9,-68,-146,-151,-161
-82,-48,34,65,-58,-7,107,29,-58,-146,-151,-175
-82,-58,24,70,-53,-17,112,39,-53,-141,-151,-175
-82,-68,14,75,-48,-26,117,43,-53,-136,-151,-175
-82,-87,-4,85,-39,-46,122,58,-39,-131,-151,-170
-68,-97,-29,82,-19,-63,131,78,-29,-117,-156,-161
-68,-102,-34,85,-17,-68,136,87,-19,-107,-156,-161
-68,-107,-39,87,-14,-73,136,97,-19,-107,-156,-161
-68,-107,-39,87,-14,-73,136,107,-14,-112,-156,-165
-78,-92,-14,85,-31,-53,136,97,-19,-122,-165,-170
-73,-82,-9,78,-31,-46,136,107,-14,-117,-165,-175
-73,-78,-4,75,-34,-41,136,112,-9,-117,-165,-185
-73,-68,4,70,-39,-31,136,112,-9,-112,-165,-190
-73,-58,14,65,-43,-21,136,107,-4,-107,-165,-190
-73,-58,14,65,-43,-21,136,117,4,-107,-161,-185
-73,-68,4,70,-39,-31,141,126,19,-112,-161,-185
-73,-73,0,73,-36,-36,141,136,19,-117,-156,-185
-82,-82,0,82,-41,-41,161,156,39,-107,-146,-175
-78,-92,-14,85,-31,-53,161,165,39,-102,-146,-175
-78,-102,-24,90,-26,-63,161,170,43,-102,-146,-175
-73,-112,-39,92,-17,-75,161,175,48,-92,-146,-175
-73,-107,-34,90,-19,-70,161,185,53,-92,-146,-175
-73,-107,-34,90,-19,-70,161,190,58,-87,-141,-175
-73,-102,-29,87,-21,-65,161,195,63,-87,-141,-175
-73,-102,-29,87,-21,-65,165,209,78,-82,-141,-175
-63,-92,-29,78,-17,-61,156,209,87,-68,-136,-175
-58,-92,-34,75,-12,-63,156,219,102,-63,-136,-175
-53,-87,-34,70,-9,-61,161,229,102,-58,-136,-175
-43,-82,-39,63,-2,-61,161,239,117,-58,-131,-175
-53,-82,-29,68,-12,-56,151,244,117,-63,-136,-185
-48,-82,-34,65,-7,-58,151,258,126,-53,-136,-185
-48,-82,-34,65,-7,-58,151,268,136,-48,-136,-180
-48,-78,-29,63,-9,-53,156,278,146,-43,-131,-180
-48,-68,-19,58,-14,-43,165,287,156,-48,-122,-180
-48,-68,-19,58,-14,-43,170,307,165,-43,-117,-180
-48,-68,-19,58,-14,-43,175,312,175,-39,-117,-180
-43,-68,-24,56,-9,-46,175,331,190,-24,-107,-175
-43,-73,-29,58,-7,-51,185,356,204,-19,-102,-165
-39,-82,-43,61,2,-63,190,370,214,0,-97,-161
-39,-87,-48,63,4,-68,190,385,234,4,-97,-161
-29,-78,-48,53,9,-63,200,395,244,19,-97,-161
-39,-78,-39,58,0,-58,200,409,253,14,-97,-161
-39,-78,-39,58,0,-58,200,424,273,24,-92,-161
-34,-87,-53,61,9,-70,200,444,287,29,-87,-156
-24,-78,-53,51,14,-65,209,458,302,43,-82,-151
-24,-82,-58,53,17,-70,214,492,312,53,-73,-141
-24,-82,-58,53,17,-70,219,507,326,68,-68,-141
-24,-87,-63,56,19,-75,224,536,346,78,-53,-136
-14,-87,-73,51,29,-80,229,551,361,87,-43,-136
-14,-73,-58,43,21,-65,234,570,380,87,-48,-136
-9,-68,-58,39,24,-63,239,585,405,97,-48,-131
-4,-68,-63,36,29,-65,239,605,419,107,-43,-131
0,-58,-58,29,29,-58,244,614,439,107,-39,-131
4,-43,-48,19,26,-46,244,634,444,122,-29,-141
9,-43,-53,17,31,-48,244,658,458,131,-24,-136
9,-48,-58,19,34,-53,248,688,483,146,-19,-131
14,-48,-63,17,39,-56,258,712,507,161,-14,-131
19,-48,-68,14,43,-58,268,736,531,170,-9,-117
24,-48,-73,12,48,-61,273,766,551,180,0,-117
29,-43,-73,7,51,-58,287,790,580,190,4,-112
34,-34,-68,0,51,-51,297,814,595,209,19,-112
48,-43,-92,-2,70,-68,292,849,619,219,19,-112
53,-43,-97,-4,75,-70,297,868,639,229,24,-107
58,-48,-107,-4,82,-78,302,893,658,244,29,-107
63,-53,-117,-4,90,-85,312,932,692,253,39,-97
68,-34,-102,-17,85,-68,307,951,707,263,34,-97
78,-29,-107,-24,92,-68,317,985,736,273,48,-97
82,-19,-102,-31,92,-61,322,1015,766,287,58,-102
92,-4,-97,-43,95,-51,326,1039,790,302,68,-107
102,-14,-117,-43,109,-65,341,1078,814,317,73,-102
107,-14,-122,-46,114,-68,346,1107,849,331,82,-87
117,-14,-131,-51,124,-73,351,1146,868,346,92,-78
126,-4,-131,-61,129,-68,356,1185,902,366,102,-63
131,-14,-146,-58,139,-80,366,1220,932,380,122,-68
141,-19,-161,-61,151,-90,370,1249,961,405,131,-63
146,-19,-165,-63,156,-92,375,1283,995,414,141,-58
161,-19,-180,-70,170,-100,380,1312,1024,434,151,-53
170,0,-170,-85,170,-85,370,1327,1049,439,161,-58
180,14,-165,-97,173,-75,370,1356,1068,453,165,-53
185,24,-161,-104,173,-68,375,1381,1088,473,175,-43
200,43,-156,-122,178,-56,375,1405,1107,488,180,-39
209,43,-165,-126,187,-61,390,1439,1146,507,190,-29
219,43,-175,-131,197,-65,390,1464,1171,522,200,-19
229,43,-185,-136,207,-70,390,1483,1195,541,219,-9
239,48,-190,-143,214,-70,390,1493,1220,556,224,-4
248,48,-200,-148,224,-75,390,1517,1239,570,253,14
258,48,-209,-153,234,-80,385,1532,1259,585,263,19
258,43,-214,-151,236,-85,385,1542,1268,600,273,29
273,43,-229,-158,251,-92,380,1551,1283,614,283,43
283,43,-239,-163,261,-97,375,1566,1302,624,287,53
287,48,-239,-168,263,-95,366,1566,1312,634,297,53
297,63,-234,-180,265,-85,356,1556,1312,634,307,63
302,63,-239,-183,270,-87,346,1542,1312,644,317,73
302,63,-239,-183,270,-87,346,1542,1322,649,322,82
307,63,-244,-185,275,-90,331,1517,1312,653,331,97
307,63,-244,-185,275,-90,322,1478,1293,653,341,107
307,63,-244,-185,275,-90,307,1434,1268,653,351,117
307,73,-234,-190,270,-80,292,1395,1244,663,361,117
297,78,-219,-187,258,-70,273,1346,1215,658,366,126
292,87,-204,-190,248,-58,253,1298,1180,644,366,131
287,102,-185,-195,236,-41,234,1249,1141,624,366,136
292,117,-175,-204,234,-29,219,1200,1098,614,366,151
287,122,-165,-204,226,-21,200,1137,1063,595,356,156
283,141,-141,-212,212,0,180,1068,1015,575,356,161
268,146,-122,-207,195,12,161,1005,961,551,346,165
258,146,-112,-202,185,17,146,932,917,536,351,170
244,146,-97,-195,170,24,136,868,863,517,336,175
234,141,-92,-187,163,24,126,805,805,492,331,175
214,126,-87,-170,151,19,112,741,746,468,312,175
214,131,-82,-173,148,24,107,688,697,439,312,180
200,131,-68,-165,134,31,97,624,649,414,297,170
185,131,-53,-158,119,39,82,561,585,380,278,165
170,131,-39,-151,104,46,68,497,531,356,258,151
151,131,-19,-141,85,56,43,439,478,326,239,146
136,126,-9,-131,73,58,29,380,419,297,219,136
122,112,-9,-117,65,51,29,326,370,268,200,117
107,102,-4,-104,56,48,19,283,322,239,180,112
82,102,19,-92,31,61,14,234,273,200,151,102
73,92,19,-82,26,56,14,190,229,175,131,92
68,97,29,-82,19,63,9,156,200,156,126,87
53,87,34,-70,9,61,0,122,165,131,107,78
29,78,48,-53,-9,63,-4,87,131,107,102,63
14,73,58,-43,-21,65,-4,48,97,82,78,53
9,73,63,-41,-26,68,-4,29,63,68,68,39
4,63,58,-34,-26,61,-4,0,39,53,48,34
-14,48,63,-17,-39,56,-9,-24,14,34,39,24
-14,43,58,-14,-36,51,-9,-39,-9,14,24,14
-24,34,58,-4,-41,46,-9,-53,-19,4,19,9
-39,29,68,4,-53,48,-9,-63,-39,-9,9,-4
-39,39,78,0,-58,58,-19,-97,-68,-24,-9,-19
-43,34,78,4,-61,56,-19,-107,-78,-39,-19,-24
-48,34,82,7,-65,58,-19,-117,-92,-48,-29,-29
-53,34,87,9,-70,61,-19,-122,-107,-63,-39,-34
-58,24,82,17,-70,53,-9,-131,-107,-63,-43,-39
-63,19,82,21,-73,51,-9,-136,-112,-63,-53,-43
-68,19,87,24,-78,53,-9,-136,-112,-78,-53,-48
-68,14,82,26,-75,48,-9,-146,-117,-82,-53,-53
-63,19,82,21,-73,51,-19,-161,-131,-87,-58,-53
-68,19,87,24,-78,53,-19,-165,-136,-92,-63,-58
-68,19,87,24,-78,53,-19,-170,-151,-97,-68,-63
-68,19,87,24,-78,53,-19,-170,-161,-97,-73,-68
-68,14,82,26,-75,48,-19,-170,-161,-97,-82,-68
-68,0,68,34,-68,34,-14,-170,-165,-97,-87,-68
-73,-4,68,39,-70,31,-14,-175,-165,-102,-87,-68
-73,-19,53,46,-63,17,-14,-175,-165,-102,-87,-68
-82,-19,63,51,-73,21,-4,-175,-165,-102,-87,-68
-82,-24,58,53,-70,17,-4,-175,-170,-102,-87,-68
-87,-24,63,56,-75,19,-4,-180,-175,-107,-87,-68
-87,-19,68,53,-78,24,0,-185,-175,-107,-87,-68
-78,-4,73,41,-75,34,0,-175,-175,-107,-78,-68
-78,-4,73,41,-75,34,-4,-175,-175,-117,-82,-68
-78,-4,73,41,-75,34,-4,-175,-175,-117,-82,-68
-78,0,78,39,-78,39,-4,-175,-175,-117,-82,-68
-87,-4,82,46,-85,39,-4,-185,-180,-117,-87,-82
-87,-4,82,46,-85,39,-4,-185,-180,-117,-87,-82
-87,-14,73,51,-80,29,-4,-185,-180,-117,-87,-82
-87,-14,73,51,-80,29,-4,-185,-175,-112,-87,-82
-87,-14,73,51,-80,29,-4,-185,-175,-112,-87,-78
-87,-4,82,46,-85,39,-9,-185,-180,-112,-87,-78
-87,-4,82,46,-85,39,-9,-185,-180,-117,-87,-78
-87,-14,73,51,-80,29,-4,-185,-180,-117,-87,-78
-87,-9,78,48,-82,34,-14,-185,-190,-126,-97,-78
-87,-4,82,46,-85,39,-14,-185,-190,-126,-102,-78
-87,0,87,43,-87,43,-14,-185,-190,-126,-102,-78
-87,0,87,43,-87,43,-9,-180,-190,-126,-97,-78
-87,-4,82,46,-85,39,0,-180,-190,-117,-97,-78
-87,-9,78,48,-82,34,0,-180,-185,-117,-97,-78
-87,-14,73,51,-80,29,0,-180,-185,-117,-97,-78
-87,-9,78,48,-82,34,0,-180,-190,-117,-97,-78
-87,-19,68,53,-78,24,0,-170,-180,-107,-87,-68
-87,-24,63,56,-75,19,0,-170,-175,-107,-87,-68
-92,-24,68,58,-80,21,0,-170,-175,-107,-87,-68
-92,-24,68,58,-80,21,4,-170,-175,-107,-92,-68
-92,-29,63,61,-78,17,4,-170,-170,-102,-82,-58
-92,-34,58,63,-75,12,4,-165,-170,-102,-82,-58
-92,-39,53,65,-73,7,4,-165,-170,-102,-82,-58
-92,-43,48,68,-70,2,4,-165,-170,-102,-82,-63
-92,-29,63,61,-78,17,-4,-175,-180,-117,-92,-68
-92,-29,63,61,-78,17,-4,-170,-180,-117,-92,-73
-87,-24,63,56,-75,19,0,-165,-180,-117,-92,-78
-87,-24,63,56,-75,19,0,-165,-180,-117,-92,-82
-97,-24,73,61,-85,24,9,-165,-180,-117,-92,-82
-97,-19,78,58,-87,29,9,-165,-175,-117,-92,-87
-97,-19,78,58,-87,29,9,-165,-175,-117,-92,-87
-97,-24,73,61,-85,24,9,-165,-175,-112,-92,-87
-92,-24,68,58,-80,21,0,-165,-175,-112,-97,-92
-92,-14,78,53,-85,31,-4,-165,-175,-117,-97,-92
-92,-14,78,53,-85,31,-4,-165,-175,-117,-97,-87
-92,-24,68,58,-80,21,0,-161,-175,-112,-97,-87
-92,-24,68,58,-80,21,-9,-161,-165,-112,-87,-87
-92,-24,68,58,-80,21,-9,-161,-165,-112,-87,-92
-92,-19,73,56,-82,26,-9,-161,-165,-117,-87,-92
-92,-19,73,56,-82,26,-9,-161,-165,-117,-87,-92
-92,-9,82,51,-87,36,0,-161,-165,-117,-97,-92
-92,-9,82,51,-87,36,0,-161,-165,-117,-97,-97
-92,-9,82,51,-87,36,0,-161,-165,-117,-97,-97
-92,-19,73,56,-82,26,4,-156,-165,-117,-97,-92
-92,-34,58,63,-75,12,9,-151,-151,-112,-87,-82
-92,-34,58,63,-75,12,14,-146,-151,-112,-87,-82
-92,-39,53,65,-73,7,19,-141,-151,-112,-87,-78
-92,-53,39,73,-65,-7,24,-136,-146,-112,-87,-78
-92,-48,43,70,-68,-2,14,-141,-156,-102,-87,-87
-92,-43,48,68,-70,2,14,-146,-156,-107,-87,-87
-92,-29,63,61,-78,17,14,-151,-156,-107,-87,-97
-92,-14,78,53,-85,31,14,-156,-161,-107,-87,-97
-92,-4,87,48,-90,41,4,-156,-170,-117,-97,-97
-92,-14,78,53,-85,31,14,-156,-170,-117,-97,-97
-92,-19,73,56,-82,26,14,-151,-165,-117,-97,-97
-92,-19,73,56,-82,26,14,-151,-165,-117,-97,-97
-92,-24,68,58,-80,21,24,-141,-156,-112,-97,-102
-92,-29,63,61,-78,17,24,-141,-156,-112,-92,-102
-92,-29,63,61,-78,17,24,-141,-151,-112,-92,-102
-92,-24,68,58,-80,21,24,-141,-151,-112,-92,-102
-92,-34,58,63,-75,12,24,-141,-151,-112,-92,-92
-92,-39,53,65,-73,7,24,-141,-151,-107,-92,-92
-87,-43,43,65,-65,0,24,-141,-151,-107,-92,-87
-87,-53,34,70,-61,-9,24,-141,-151,-107,-87,-87
-97,-53,43,75,-70,-4,19,-146,-151,-107,-92,-87
-97,-53,43,75,-70,-4,19,-146,-156,-112,-92,-87
-92,-43,48,68,-70,2,14,-151,-161,-117,-97,-92
-92,-43,48,68,-70,2,9,-151,-161,-117,-102,-92
-92,-34,58,63,-75,12,9,-156,-170,-126,-102,-102
-87,-29,58,58,-73,14,9,-161,-165,-122,-102,-102
-87,-24,63,56,-75,19,9,-165,-165,-122,-107,-102
-87,-9,78,48,-82,34,9,-170,-161,-122,-112,-102
-87,-9,78,48,-82,34,14,-170,-170,-126,-122,-112
-82,-19,63,51,-73,21,14,-170,-165,-126,-117,-107
-82,-19,63,51,-73,21,14,-165,-165,-117,-112,-102
-78,-19,58,48,-68,19,14,-161,-161,-112,-107,-97
-82,-19,63,51,-73,21,19,-170,-165,-117,-102,-102
-78,-19,58,48,-68,19,14,-170,-161,-117,-97,-102
-78,-14,63,46,-70,24,14,-165,-156,-117,-92,-97
-82,-4,78,43,-80,36,14,-165,-156,-112,-82,-97
-82,-9,73,46,-78,31,14,-156,-136,-97,-73,-82
-82,-14,68,48,-75,26,24,-151,-136,-87,-68,-68
-82,0,82,41,-82,41,34,-151,-136,-82,-63,-68
-78,14,92,31,-85,53,24,-146,-146,-82,-63,-63
-78,24,102,26,-90,63,19,-151,-136,-97,-73,-73
-78,24,102,26,-90,63,24,-151,-136,-97,-58,-68
-73,24,97,24,-85,61,24,-146,-136,-87,-58,-63
-73,19,92,26,-82,56,19,-141,-136,-87,-58,-63
-68,24,92,21,-80,58,43,-131,-126,-68,-58,-63
-58,29,87,14,-73,58,43,-122,-122,-68,-58,-53
-48,29,78,9,-63,53,39,-117,-117,-68,-58,-58
-39,39,78,0,-58,58,39,-107,-112,-58,-53,-48
-39,39,78,0,-58,58,39,-107,-107,-58,-48,-48
-39,39,78,0,-58,58,39,-107,-102,-58,-43,-48
-39,39,78,0,-58,58,39,-107,-97,-58,-39,-48
-34,58,92,-12,-63,75,39,-102,-87,-43,-24,-34
-34,82,117,-24,-75,100,29,-97,-82,-34,-14,-24
-29,97,126,-34,-78,112,9,-102,-82,-29,-14,-19
-29,112,141,-41,-85,126,-4,-112,-92,-24,-14,-14
-29,102,131,-36,-80,117,-9,-122,-87,-19,-4,-9
-24,97,122,-36,-73,109,-24,-131,-87,-19,0,-4
-24,78,102,-26,-63,90,-29,-136,-97,-29,4,0
-14,73,87,-29,-51,80,-39,-146,-92,-29,14,9
-14,78,92,-31,-53,85,-63,-151,-102,-34,0,4
-14,92,107,-39,-61,100,-73,-156,-112,-39,-4,0
-9,107,117,-48,-63,112,-78,-161,-117,-43,-9,-4
0,117,117,-58,-58,117,-78,-165,-117,-48,-9,-4
0,107,107,-53,-53,107,-68,-156,-112,-48,0,4
4,107,102,-56,-48,104,-68,-151,-112,-43,0,9
9,102,92,-56,-41,97,-68,-151,-112,-43,0,9
14,102,87,-58,-36,95,-68,-151,-122,-43,0,9
29,87,58,-58,-14,73,-73,-146,-126,-53,4,9
29,87,58,-58,-14,73,-82,-156,-131,-58,0,4
29,73,43,-51,-7,58,-82,-170,-136,-63,-14,4
29,63,34,-46,-2,48,-78,-170,-141,-68,-14,4
29,58,29,-43,0,43,-87,-190,-146,-68,-9,4
19,53,34,-36,-7,43,-87,-200,-156,-73,-14,0
9,53,43,-31,-17,48,-87,-209,-156,-78,-19,-4
4,58,53,-31,-24,56,-87,-209,-161,-82,-19,-4
0,58,58,-29,-29,58,-92,-214,-175,-82,-34,-9
-4,48,53,-21,-29,51,-92,-219,-180,-87,-34,-14
-9,39,48,-14,-29,43,-78,-219,-185,-92,-39,-19
-14,34,48,-9,-31,41,-73,-219,-190,-97,-48,-29
-34,43,78,-4,-56,61,-78,-229,-200,-112,-53,-34
-43,39,82,2,-63,61,-68,-224,-200,-117,-58,-43
-53,29,82,12,-68,56,-58,-224,-204,-122,-68,-58
-58,14,73,21,-65,43,-48,-224,-209,-126,-78,-68
-73,-9,63,41,-68,26,-39,-214,-209,-126,-82,-68
-87,-29,58,58,-73,14,-24,-214,-209,-136,-92,-78
-92,-43,48,68,-70,2,-14,-214,-209,-141,-97,-87
-102,-53,48,78,-75,-2,-9,-219,-219,-146,-102,-97
-107,-53,53,80,-80,0,4,-224,-229,-165,-117,-117
-112,-68,43,90,-78,-12,4,-224,-229,-165,-126,-122
-122,-78,43,100,-82,-17,9,-224,-234,-170,-126,-122
-126,-87,39,107,-82,-24,9,-224,-234,-170,-126,-126
-126,-97,29,112,-78,-34,14,-224,-234,-175,-136,-131
-131,-97,34,114,-82,-31,14,-224,-234,-180,-136,-136
-131,-97,34,114,-82,-31,14,-224,-234,-180,-141,-141
-131,-97,34,114,-82,-31,19,-224,-239,-180,-141,-146
-136,-92,43,114,-90,-24,9,-224,-239,-190,-156,-151
-136,-92,43,114,-90,-24,9,-224,-239,-190,-156,-151
-136,-92,43,114,-90,-24,9,-224,-239,-190,-151,-146
-136,-92,43,114,-90,-24,9,-224,-239,-190,-151,-146
-146,-92,53,119,-100,-19,19,-234,-239,-190,-151,-146
-146,-92,53,119,-100,-19,19,-234,-239,-190,-151,-146
-146,-97,48,122,-97,-24,24,-234,-244,-190,-151,-151
-146,-97,48,122,-97,-24,24,-234,-244,-190,-156,-151
-146,-112,34,129,-90,-39,24,-229,-244,-185,-146,-141
-146,-112,34,129,-90,-39,24,-224,-244,-185,-151,-146
-146,-117,29,131,-87,-43,24,-219,-244,-185,-151,-146
-146,-122,24,134,-85,-48,24,-214,-244,-190,-151,-146
-146,-117,29,131,-87,-43,24,-219,-248,-190,-161,-156
-146,-117,29,131,-87,-43,24,-224,-248,-190,-161,-156
-146,-112,34,129,-90,-39,24,-229,-248,-190,-161,-151
-146,-107,39,126,-92,-34,24,-234,-248,-190,-161,-151
-136,-117,19,126,-78,-48,24,-224,-244,-190,-165,-156
-136,-117,19,126,-78,-48,24,-224,-244,-190,-165,-156
-136,-117,19,126,-78,-48,24,-224,-248,-190,-161,-156
-136,-122,14,129,-75,-53,24,-224,-248,-190,-161,-156
-146,-117,29,131,-87,-43,24,-224,-258,-200,-170,-156
-146,-112,34,129,-90,-39,24,-224,-258,-200,-170,-156
-146,-107,39,126,-92,-34,24,-224,-258,-200,-170,-156
-146,-102,43,124,-95,-29,29,-224,-258,-200,-170,-156
-141,-107,34,124,-87,-36,29,-224,-248,-190,-170,-156
-141,-107,34,124,-87,-36,29,-224,-248,-190,-170,-156
-141,-107,34,124,-87,-36,29,-224,-248,-195,-175,-156
-141,-107,34,124,-87,-36,29,-224,-248,-195,-175,-156
-141,-112,29,126,-85,-41,34,-224,-239,-190,-161,-156
-141,-117,24,129,-82,-46,34,-224,-239,-190,-161,-156
-141,-122,19,131,-80,-51,39,-224,-234,-190,-161,-156
-141,-131,9,136,-75,-61,43,-224,-234,-190,-161,-156
-141,-102,39,122,-90,-31,34,-224,-244,-200,-165,-156
-141,-112,29,126,-85,-41,39,-219,-239,-195,-165,-151
-141,-122,19,131,-80,-51,39,-219,-239,-190,-156,-141
-131,-117,14,124,-73,-51,29,-214,-229,-180,-146,-141
-131,-117,14,124,-73,-51,24,-204,-214,-165,-141,-146
-126,-112,14,119,-70,-48,14,-204,-214,-165,-131,-141
-102,-78,24,90,-63,-26,-9,-195,-214,-165,-131,-141
-102,-73,29,87,-65,-21,-9,-165,-185,-151,-117,-122
-102,-92,9,97,-56,-41,0,-107,-126,-117,-97,-117
-102,-97,4,100,-53,-46,14,-63,-112,-117,-97,-122
-102,-107,-4,104,-48,-56,34,-63,-112,-126,-117,-141
-117,-117,0,117,-58,-58,58,-58,-87,-112,-126,-141
-131,-107,24,119,-78,-41,87,-58,-43,-68,-97,-131
-165,-78,87,122,-126,4,102,-165,-63,-48,-68,-117
-204,-58,146,131,-175,43,73,-356,-141,-29,-43,-97
-219,-58,161,139,-190,51,4,-512,-180,14,24,-39
-200,-24,175,112,-187,75,-97,-649,-200,87,122,39
-175,53,229,61,-202,141,-224,-844,-278,141,224,141
-131,97,229,17,-180,163,-366,-1058,-390,190,341,248
-43,146,190,-51,-117,168,-512,-1220,-483,258,483,385
63,248,185,-156,-61,217,-649,-1371,-561,341,649,541
180,351,170,-265,4,261,-814,-1546,-639,429,814,702
307,448,141,-378,82,295,-1010,-1727,-717,551,1019,897
439,570,131,-505,153,351,-1200,-1883,-766,668,1244,1112
575,678,102,-627,236,390,-1381,-1976,-819,771,1449,1322
717,761,43,-739,336,402,-1566,-2005,-834,839,1620,1517
878,849,-29,-863,453,409,-1732,-2020,-814,888,1756,1678
995,946,-48,-971,522,448,-1878,-2049,-819,883,1815,1786
1063,1034,-29,-1049,546,502,-1961,-2088,-849,790,1747,1781
1093,1054,-39,-1073,566,507,-1991,-2074,-902,605,1551,1683
1088,1005,-82,-1046,585,461,-1966,-2078,-1024,317,1229,1512
1029,922,-107,-976,568,407,-1917,-2113,-1195,-43,824,1249
917,800,-117,-858,517,341,-1810,-2127,-1376,-380,434,976
756,634,-122,-695,439,256,-1649,-2127,-1522,-663,107,732
595,458,-136,-527,366,161,-1473,-2098,-1659,-912,-190,502
400,331,-68,-366,234,131,-1302,-2103,-1781,-1117,-414,302
204,253,48,-229,78,151,-1137,-2122,-1898,-1224,-561,175
24,239,214,-131,-95,226,-985,-2137,-1971,-1273,-614,122
-97,258,356,-80,-226,307,-839,-2054,-1917,-1215,-600,122
-146,302,448,-78,-297,375,-717,-1834,-1703,-1058,-497,151
-185,356,541,-85,-363,448,-605,-1551,-1395,-854,-380,161
-239,375,614,-68,-427,495,-478,-1317,-1161,-697,-302,136
-292,385,678,-46,-485,531,-395,-1141,-985,-590,-258,107
-292,375,668,-41,-480,522,-336,-995,-858,-502,-224,97
-292,341,634,-24,-463,488,-292,-863,-736,-439,-200,63
-297,297,595,0,-446,446,-239,-746,-644,-390,-195,9
-273,248,522,12,-397,385,-195,-644,-556,-351,-185,-34
-253,200,453,26,-353,326,-151,-546,-488,-322,-195,-63
-219,151,370,34,-295,261,-102,-463,-424,-312,-200,-97
-204,122,326,41,-265,224,-53,-385,-370,-287,-200,-126
-190,92,283,48,-236,187,-9,-307,-317,-263,-195,-141
-180,53,234,63,-207,143,9,-224,-268,-239,-185,-141
-170,14,185,78,-178,100,24,-175,-214,-204,-175,-131
-161,0,161,80,-161,80,43,-141,-175,-190,-151,-131
-136,-9,126,73,-131,58,63,-92,-141,-165,-146,-146
-126,-19,107,73,-117,43,68,-48,-117,-161,-151,-161
-117,-39,78,78,-97,19,82,-9,-87,-146,-141,-180
-102,-63,39,82,-70,-12,97,19,-82,-146,-151,-185
-102,-68,34,85,-68,-17,102,29,-73,-141,-151,-185
-102,-73,29,87,-65,-21,107,34,-68,-136,-151,-185
-102,-87,14,95,-58,-36,112,48,-48,-131,-151,-180
-97,-97,0,97,-48,-48,131,68,-29,-117,-136,-170
-97,-112,-14,104,-41,-63,136,78,-19,-107,-136,-170
-97,-126,-29,112,-34,-78,136,87,-19,-107,-136,-170
-97,-136,-39,117,-29,-87,136,97,-14,-112,-136,-175
-97,-146,-48,122,-24,-97,146,107,-9,-112,-136,-175
-92,-141,-48,117,-21,-95,146,117,-4,-107,-136,-175
-92,-141,-48,117,-21,-95,146,122,0,-107,-136,-180
-92,-136,-43,114,-24,-90,146,122,0,-102,-136,-180
-82,-126,-43,104,-19,-85,136,122,-4,-97,-146,-190
-82,-117,-34,100,-24,-75,136,126,4,-97,-141,-185
-82,-117,-34,100,-24,-75,141,131,19,-102,-141,-185
-82,-112,-29,97,-26,-70,141,136,19,-107,-136,-185
-92,-122,-29,107,-31,-75,161,151,39,-102,-136,-175
-87,-131,-43,109,-21,-87,161,165,39,-92,-136,-175
-87,-141,-53,114,-17,-97,161,175,43,-87,-136,-175
-82,-151,-68,117,-7,-109,161,185,48,-73,-136,-175
-73,-146,-73,109,0,-109,161,195,53,-82,-136,-175
-73,-146,-73,109,0,-109,161,200,58,-78,-131,-175
-73,-141,-68,107,-2,-104,161,204,63,-78,-131,-175
-73,-141,-68,107,-2,-104,165,219,78,-73,-131,-175
-78,-151,-73,114,-2,-112,175,229,78,-58,-126,-165
-78,-151,-73,114,-2,-112,175,239,92,-53,-126,-165
-78,-146,-68,112,-4,-107,180,248,92,-48,-126,-165
-73,-141,-68,107,-2,-104,180,258,107,-48,-122,-165
-63,-141,-78,102,7,-109,180,263,117,-53,-117,-175
-58,-141,-82,100,12,-112,180,278,126,-43,-117,-175
-58,-141,-82,100,12,-112,180,287,136,-39,-117,-170
-58,-136,-78,97,9,-107,185,297,146,-34,-112,-170
-58,-136,-78,97,9,-107,185,317,156,-19,-102,-165
-58,-136,-78,97,9,-107,190,336,165,-14,-97,-161
-58,-136,-78,97,9,-107,195,341,175,-9,-97,-156
-53,-136,-82,95,14,-109,195,361,190,4,-87,-146
-63,-136,-73,100,4,-104,204,370,195,-4,-82,-156
-58,-141,-82,100,12,-112,209,380,204,9,-78,-151
-58,-141,-82,100,12,-112,209,390,224,9,-78,-151
-48,-126,-78,87,14,-102,219,395,234,19,-78,-151
-39,-126,-87,82,24,-107,219,414,253,24,-78,-141
-39,-126,-87,82,24,-107,219,434,273,34,-73,-141
-34,-136,-102,85,34,-119,219,458,287,39,-68,-136
-24,-126,-102,75,39,-114,229,478,302,53,-63,-131
-14,-112,-97,63,41,-104,229,497,302,53,-58,-141
-14,-112,-97,63,41,-104,229,507,317,68,-58,-141
-14,-117,-102,65,43,-109,229,531,336,78,-48,-136
-4,-117,-112,61,53,-114,229,541,351,87,-43,-136
-14,-112,-97,63,41,-104,234,566,361,97,-39,-136
-9,-107,-97,58,43,-102,239,585,385,107,-39,-131
-4,-107,-102,56,48,-104,239,610,400,117,-34,-131
0,-97,-97,48,48,-97,244,624,419,117,-29,-131
4,-92,-97,43,51,-95,258,644,434,122,-19,-131
9,-92,-102,41,56,-97,263,668,448,131,-14,-126
9,-97,-107,43,58,-102,273,697,473,146,-9,-122
14,-97,-112,41,63,-104,287,722,497,161,-4,-122
29,-87,-117,29,73,-102,283,756,512,170,0,-117
34,-87,-122,26,78,-104,283,785,531,180,9,-117
39,-82,-122,21,80,-102,292,810,561,190,14,-112
43,-73,-117,14,80,-95,297,834,575,209,29,-112
48,-58,-107,4,78,-82,302,858,600,209,19,-112
53,-53,-107,0,80,-80,307,878,619,219,24,-107
58,-53,-112,-2,85,-82,312,902,639,234,29,-107
63,-53,-117,-4,90,-85,322,941,673,244,39,-97
58,-58,-117,0,87,-87,336,980,697,273,53,-92
68,-68,-136,0,102,-102,346,1015,727,283,68,-87
73,-73,-146,0,109,-109,351,1044,756,297,78,-87
82,-73,-156,-4,119,-114,356,1068,780,312,87,-87
102,-63,-165,-19,134,-114,361,1107,805,326,92,-87
107,-63,-170,-21,139,-117,366,1137,839,341,102,-78
117,-63,-180,-26,148,-122,370,1176,858,356,112,-73
126,-53,-180,-36,153,-117,375,1215,893,375,122,-63
131,-48,-180,-41,156,-114,375,1234,907,385,122,-63
141,-48,-190,-46,165,-119,380,1259,932,405,131,-63
146,-43,-190,-51,168,-117,385,1288,961,409,141,-63
161,-39,-200,-61,180,-119,390,1312,985,424,151,-63
161,-39,-200,-61,180,-119,390,1346,1015,429,156,-58
170,-34,-204,-68,187,-119,390,1376,1039,444,165,-53
175,-34,-209,-70,192,-122,395,1400,1063,463,180,-43
190,-24,-214,-82,202,-119,395,1424,1088,478,190,-39
209,-29,-239,-90,224,-134,409,1454,1117,497,200,-19
219,-24,-244,-97,231,-134,409,1483,1141,512,209,-9
229,-19,-248,-104,239,-134,409,1507,1166,531,229,0
239,-9,-248,-114,244,-129,409,1522,1190,546,234,4
248,9,-239,-129,244,-114,409,1546,1215,561,253,4
258,9,-248,-134,253,-119,405,1561,1239,575,263,9
258,4,-253,-131,256,-124,405,1571,1254,590,273,19
273,4,-268,-139,270,-131,400,1581,1273,605,283,34
283,4,-278,-143,280,-136,400,1590,1293,624,307,48
287,0,-287,-143,287,-143,395,1595,1302,634,317,53
297,4,-292,-151,295,-143,390,1590,1302,634,326,68
302,-4,-307,-148,305,-156,385,1581,1302,644,336,82
312,9,-302,-161,307,-146,375,1576,1317,653,341,87
317,14,-302,-165,309,-143,361,1556,1312,663,351,97
317,19,-297,-168,307,-139,351,1522,1298,668,361,102
317,24,-292,-170,305,-134,336,1483,1278,673,370,107
317,43,-273,-180,295,-114,322,1444,1254,673,370,117
307,48,-258,-178,283,-104,302,1395,1224,668,375,126
302,58,-244,-180,273,-92,283,1346,1190,653,375,131
297,73,-224,-185,261,-75,263,1298,1151,634,375,136
302,73,-229,-187,265,-78,253,1254,1112,629,380,151
297,73,-224,-185,261,-75,239,1195,1083,614,375,156
292,87,-204,-190,248,-58,224,1132,1039,600,380,161
278,87,-190,-183,234,-51,209,1073,990,580,375,165
268,78,-190,-173,229,-56,190,1010,946,556,380,170
253,78,-175,-165,214,-48,175,946,893,536,366,175
244,73,-170,-158,207,-48,161,883,834,512,361,175
224,58,-165,-141,195,-53,141,819,775,488,341,175
204,68,-136,-136,170,-34,136,751,717,458,331,180
190,73,-117,-131,153,-21,126,683,668,434,317,170
175,78,-97,-126,136,-9,112,614,605,400,297,165
161,82,-78,-122,119,2,97,546,551,375,278,151
151,78,-73,-114,112,2,73,488,497,336,258,156
136,78,-58,-107,97,9,58,429,439,307,239,146
122,68,-53,-95,87,7,58,375,390,278,219,126
107,63,-43,-85,75,9,48,331,341,248,200,122
92,48,-43,-70,68,2,43,287,302,229,190,112
82,34,-48,-58,65,-7,43,239,258,204,170,102
78,34,-43,-56,61,-4,39,200,229,185,165,97
63,19,-43,-41,53,-12,29,161,195,161,146,87
39,19,-19,-29,29,0,14,122,161,136,131,82
24,14,-9,-19,17,2,14,87,126,112,107,73
19,14,-4,-17,12,4,14,73,92,97,97,58
14,4,-9,-9,12,-2,14,48,68,82,78,53
4,4,0,-4,2,2,9,9,39,53,58,34
4,4,0,-4,2,2,9,-9,9,34,43,24
-4,0,4,2,-4,2,9,-29,-4,24,39,19
-19,0,19,9,-19,9,9,-43,-29,9,29,4
-19,-4,14,12,-17,4,19,-58,-39,0,19,0
-24,-14,9,19,-17,-2,19,-68,-48,-9,9,-4
-29,-19,9,24,-19,-4,19,-78,-63,-14,0,-9
-34,-24,9,29,-21,-7,19,-82,-78,-24,-9,-14
-48,-34,14,41,-31,-9,9,-97,-97,-34,-14,-19
-53,-39,14,46,-34,-12,9,-107,-102,-34,-24,-24
-58,-39,19,48,-39,-9,9,-112,-102,-48,-24,-29
-58,-43,14,51,-36,-14,9,-126,-107,-53,-24,-34
-63,-43,19,53,-41,-12,9,-141,-122,-68,-39,-43
-68,-39,29,53,-48,-4,9,-146,-126,-73,-43,-48
-68,-34,34,51,-51,0,9,-151,-141,-78,-48,-53
-68,-29,39,48,-53,4,9,-151,-151,-78,-53,-58
-68,-19,48,43,-58,14,9,-161,-151,-78,-53,-58
-68,-29,39,48,-53,4,14,-161,-156,-78,-58,-58
-73,-29,43,51,-58,7,14,-165,-156,-82,-58,-58
-73,-39,34,56,-53,-2,14,-165,-156,-82,-58,-58
-73,-29,43,51,-58,7,4,-165,-165,-92,-68,-68
-73,-34,39,53,-56,2,4,-165,-170,-92,-68,-68
-78,-34,43,56,-61,4,4,-170,-175,-97,-68,-68
-78,-29,48,53,-63,9,9,-175,-175,-97,-68,-68
-87,-29,58,58,-73,14,19,-175,-165,-87,-68,-68
-87,-34,53,61,-70,9,14,-175,-165,-97,-73,-68
-87,-39,48,63,-68,4,14,-175,-165,-97,-73,-68
-87,-39,48,63,-68,4,14,-175,-165,-97,-73,-68
-87,-43,43,65,-65,0,24,-165,-161,-97,-68,-63
-87,-43,43,65,-65,0,24,-165,-161,-97,-68,-63
-87,-53,34,70,-61,-9,24,-165,-161,-97,-68,-63
-87,-53,34,70,-61,-9,24,-165,-156,-92,-68,-63
-87,-68,19,78,-53,-24,34,-156,-156,-92,-58,-58
-87,-63,24,75,-56,-19,29,-156,-161,-92,-58,-58
-87,-68,19,78,-53,-24,29,-156,-161,-97,-58,-58
-87,-82,4,85,-46,-39,34,-156,-161,-97,-58,-58
-78,-78,0,78,-39,-39,24,-165,-161,-97,-68,-58
-78,-73,4,75,-41,-34,24,-165,-161,-97,-73,-58
-78,-68,9,73,-43,-29,24,-165,-161,-97,-73,-58
-78,-68,9,73,-43,-29,29,-161,-161,-97,-68,-58
-87,-58,29,73,-58,-14,19,-170,-170,-97,-78,-68
-87,-58,29,73,-58,-14,19,-170,-165,-97,-78,-68
-87,-58,29,73,-58,-14,19,-170,-165,-97,-78,-68
-87,-48,39,68,-63,-4,19,-170,-170,-97,-78,-68
-87,-39,48,63,-68,4,19,-170,-170,-107,-78,-78
-87,-43,43,65,-65,0,19,-170,-165,-107,-78,-78
-92,-43,48,68,-70,2,19,-170,-165,-107,-78,-78
-92,-43,48,68,-70,2,24,-170,-165,-107,-82,-78
-82,-43,39,63,-61,-2,24,-170,-161,-102,-73,-78
-82,-43,39,63,-61,-2,24,-165,-161,-102,-73,-78
-82,-43,39,63,-61,-2,24,-165,-161,-102,-73,-78
-82,-43,39,63,-61,-2,24,-165,-161,-102,-73,-82
-92,-53,39,73,-65,-7,24,-156,-161,-107,-82,-73
-92,-58,34,75,-63,-12,24,-151,-161,-107,-82,-73
-87,-58,29,73,-58,-14,29,-146,-161,-107,-82,-73
-87,-63,24,75,-56,-19,29,-146,-161,-107,-82,-73
-97,-73,24,85,-61,-24,29,-146,-151,-97,-73,-63
-97,-68,29,82,-63,-19,29,-146,-146,-97,-73,-68
-97,-68,29,82,-63,-19,29,-146,-146,-97,-73,-68
-97,-73,24,85,-61,-24,29,-146,-146,-92,-73,-68
-92,-82,9,87,-51,-36,39,-146,-146,-92,-78,-73
-92,-73,19,82,-56,-26,34,-146,-146,-97,-78,-73
-92,-73,19,82,-56,-26,34,-146,-146,-97,-78,-68
-92,-82,9,87,-51,-36,39,-141,-146,-92,-78,-68
-92,-82,9,87,-51,-36,48,-141,-146,-92,-78,-68
-92,-82,9,87,-51,-36,48,-141,-146,-92,-78,-73
-92,-78,14,85,-53,-31,48,-141,-146,-97,-78,-73
-92,-78,14,85,-53,-31,48,-141,-146,-97,-78,-73
-102,-68,34,85,-68,-17,39,-151,-156,-97,-87,-82
-102,-68,34,85,-68,-17,39,-151,-156,-97,-87,-87
-102,-68,34,85,-68,-17,39,-151,-156,-97,-87,-87
-102,-78,24,90,-63,-26,43,-146,-156,-97,-87,-82
-102,-68,34,85,-68,-17,34,-146,-151,-102,-87,-92
-102,-63,39,82,-70,-12,34,-146,-151,-102,-87,-92
-102,-63,39,82,-70,-12,34,-146,-151,-102,-87,-87
-102,-73,29,87,-65,-21,34,-146,-146,-102,-87,-87
-92,-87,4,90,-48,-41,43,-141,-136,-92,-78,-82
-92,-92,0,92,-46,-46,43,-136,-136,-97,-78,-78
-92,-87,4,90,-48,-41,43,-131,-136,-97,-78,-82
-92,-82,9,87,-51,-36,43,-126,-141,-97,-78,-78
-102,-78,24,90,-63,-26,34,-136,-141,-97,-87,-78
-102,-82,19,92,-61,-31,43,-136,-141,-97,-87,-78
-102,-82,19,92,-61,-31,43,-131,-136,-97,-87,-78
-102,-78,24,90,-63,-26,43,-131,-136,-97,-87,-78
-92,-92,0,92,-46,-46,43,-131,-146,-92,-78,-82
-92,-97,-4,95,-43,-51,43,-131,-146,-92,-73,-82
-92,-97,-4,95,-43,-51,43,-131,-141,-92,-73,-82
-92,-92,0,92,-46,-46,43,-131,-141,-92,-73,-82
-102,-92,9,97,-56,-41,43,-141,-141,-102,-78,-92
-102,-87,14,95,-58,-36,43,-141,-141,-97,-82,-92
-97,-82,14,90,-56,-34,43,-141,-141,-97,-87,-87
-97,-82,14,90,-56,-34,43,-141,-141,-97,-87,-87
-97,-68,29,82,-63,-19,39,-146,-141,-97,-92,-87
-97,-63,34,80,-65,-14,39,-146,-146,-102,-92,-87
-92,-48,43,70,-68,-2,34,-151,-151,-107,-97,-92
-92,-43,48,68,-70,2,29,-151,-151,-107,-102,-92
-92,-58,34,75,-63,-12,34,-146,-141,-97,-92,-87
-87,-58,29,73,-58,-14,39,-141,-136,-92,-82,-82
-87,-58,29,73,-58,-14,43,-136,-136,-92,-78,-78
-87,-48,39,68,-63,-4,48,-131,-131,-92,-73,-73
-87,-29,58,58,-73,14,53,-131,-131,-87,-73,-73
-82,-39,43,61,-63,2,53,-131,-126,-87,-68,-68
-82,-39,43,61,-63,2,53,-126,-126,-78,-63,-63
-78,-39,39,58,-58,0,53,-122,-122,-73,-58,-58
-78,-39,39,58,-58,0,53,-122,-117,-68,-53,-53
-68,-39,29,53,-48,-4,53,-122,-112,-68,-48,-53
-63,-34,29,48,-46,-2,58,-117,-107,-68,-43,-48
-63,-24,39,43,-51,7,63,-117,-107,-63,-34,-48
-53,-19,34,36,-43,7,73,-102,-97,-58,-43,-43
-53,-24,29,39,-41,2,73,-92,-97,-58,-39,-48
-58,-19,39,39,-48,9,68,-97,-87,-48,-39,-48
-58,-9,48,34,-53,19,68,-87,-78,-39,-29,-39
-58,-9,48,34,-53,19,68,-87,-78,-39,-29,-39
-58,-9,48,34,-53,19,68,-87,-78,-39,-29,-39
-58,-9,48,34,-53,19,68,-87,-78,-39,-29,-39
-43,9,53,17,-48,31,68,-78,-68,-24,-19,-29
-43,34,78,4,-61,56,58,-78,-63,-14,-4,-14
-39,48,87,-4,-63,68,39,-87,-63,-9,0,-4
-39,63,102,-12,-70,82,24,-102,-73,-4,4,4
-39,82,122,-21,-80,102,0,-122,-82,-19,0,4
-34,87,122,-26,-78,104,-14,-131,-87,-19,0,4
-34,78,112,-21,-73,95,-19,-136,-102,-29,0,4
-24,82,107,-29,-65,95,-29,-146,-102,-29,4,9
-24,58,82,-17,-53,70,-39,-146,-97,-19,4,9
-24,53,78,-14,-51,65,-43,-146,-102,-19,4,9
-19,48,68,-14,-43,58,-43,-146,-102,-19,4,9
-9,39,48,-14,-29,43,-39,-146,-97,-19,9,14
9,48,39,-29,-14,43,-39,-136,-82,-19,19,14
14,48,34,-31,-9,41,-39,-131,-82,-14,19,19
19,43,24,-31,-2,34,-39,-131,-82,-14,19,19
24,43,19,-34,2,31,-39,-131,-92,-14,19,19
19,39,19,-29,0,29,-43,-136,-102,-29,4,29
19,39,19,-29,0,29,-53,-146,-112,-39,0,24
19,24,4,-21,7,14,-53,-161,-122,-48,-14,24
19,14,-4,-17,12,4,-48,-161,-131,-58,-14,24
19,14,-4,-17,12,4,-58,-180,-146,-58,-19,24
9,14,4,-12,2,9,-58,-190,-156,-63,-24,19
0,19,19,-9,-9,19,-58,-200,-156,-68,-29,14
-4,29,34,-12,-19,31,-58,-200,-161,-73,-29,14
-4,19,24,-7,-14,21,-53,-204,-165,-73,-34,9
-14,9,24,2,-19,17,-53,-209,-170,-78,-34,4
-24,0,24,12,-24,12,-39,-209,-175,-82,-39,0
-34,-4,29,19,-31,12,-34,-209,-180,-87,-48,-9
-48,-24,24,36,-36,0,-19,-200,-180,-92,-43,-14
-63,-39,24,51,-43,-7,-9,-195,-180,-97,-48,-24
-78,-58,19,68,-48,-19,0,-195,-185,-102,-58,-39
-87,-82,4,85,-46,-39,9,-195,-190,-107,-68,-48
-92,-87,4,90,-48,-41,9,-204,-195,-112,-87,-68
-107,-97,9,102,-58,-43,14,-204,-200,-126,-102,-78
-112,-102,9,107,-61,-46,14,-204,-204,-136,-112,-87
-122,-102,19,112,-70,-41,9,-209,-219,-146,-122,-97
-131,-102,29,117,-80,-36,24,-214,-219,-156,-117,-97
-131,-117,14,124,-73,-51,24,-214,-219,-156,-126,-102
-136,-126,9,131,-73,-58,29,-214,-224,-161,-126,-102
-136,-136,0,136,-68,-68,29,-214,-224,-161,-126,-107
-126,-141,-14,134,-56,-78,24,-214,-224,-165,-146,-122
-131,-146,-14,139,-58,-80,24,-214,-224,-170,-146,-126
-131,-151,-19,141,-56,-85,24,-214,-224,-170,-151,-131
-131,-156,-24,143,-53,-90,29,-214,-229,-170,-151,-136
-146,-151,-4,148,-70,-78,39,-214,-239,-170,-156,-131
-146,-151,-4,148,-70,-78,39,-214,-239,-170,-156,-131
-146,-151,-4,148,-70,-78,39,-214,-239,-170,-151,-126
-146,-151,-4,148,-70,-78,39,-214,-239,-170,-151,-126
-136,-141,-4,139,-65,-73,29,-224,-239,-175,-161,-136
-136,-141,-4,139,-65,-73,29,-224,-239,-180,-161,-136
-136,-146,-9,141,-63,-78,34,-224,-244,-185,-161,-141
-136,-146,-9,141,-63,-78,34,-224,-244,-190,-165,-141
-136,-146,-9,141,-63,-78,34,-214,-244,-185,-165,-151
-136,-141,-4,139,-65,-73,34,-214,-244,-185,-170,-156
-136,-141,-4,139,-65,-73,34,-214,-244,-185,-170,-156
-136,-141,-4,139,-65,-73,34,-214,-244,-190,-170,-156
-146,-146,0,146,-73,-73,39,-214,-239,-180,-161,-151
-146,-156,-9,151,-68,-82,43,-214,-239,-180,-161,-146
-146,-161,-14,153,-65,-87,48,-214,-239,-180,-161,-136
-146,-165,-19,156,-63,-92,53,-214,-239,-180,-161,-131
-136,-161,-24,148,-56,-92,43,-224,-244,-185,-175,-146
-136,-156,-19,146,-58,-87,43,-224,-244,-190,-175,-146
-136,-151,-14,143,-61,-82,43,-224,-248,-195,-170,-146
-136,-151,-14,143,-61,-82,43,-224,-248,-200,-170,-146
-141,-156,-14,148,-63,-85,53,-214,-239,-190,-161,-146
-146,-161,-14,153,-65,-87,53,-214,-239,-190,-161,-146
-151,-165,-14,158,-68,-90,53,-214,-239,-190,-161,-146
-156,-170,-14,163,-70,-92,58,-214,-239,-190,-161,-146
-151,-175,-24,163,-63,-100,58,-204,-239,-180,-161,-136
-151,-175,-24,163,-63,-100,58,-204,-239,-180,-161,-136
-151,-175,-24,163,-63,-100,58,-204,-239,-185,-165,-136
-151,-175,-24,163,-63,-100,58,-204,-239,-185,-165,-136
-151,-170,-19,161,-65,-95,43,-214,-248,-190,-170,-146
-151,-165,-14,158,-68,-90,43,-214,-248,-190,-170,-146
-151,-161,-9,156,-70,-85,48,-214,-244,-190,-170,-146
-151,-161,-9,156,-70,-85,53,-214,-244,-190,-170,-146
-141,-131,9,136,-75,-61,34,-214,-244,-190,-165,-156
-141,-141,0,141,-70,-70,39,-219,-239,-195,-156,-151
-141,-161,-19,151,-61,-90,48,-209,-229,-180,-156,-131
-141,-165,-24,153,-58,-95,39,-195,-209,-170,-146,-122
-131,-165,-34,148,-48,-100,34,-185,-204,-156,-131,-126
-117,-161,-43,139,-36,-102,24,-175,-195,-146,-122,-112
-112,-146,-34,129,-39,-90,9,-156,-165,-126,-112,-102
-102,-122,-19,112,-41,-70,9,-117,-126,-112,-97,-92
-102,-131,-29,117,-36,-80,19,-78,-97,-97,-97,-107
-102,-146,-43,124,-29,-95,34,-53,-92,-107,-107,-122
-102,-156,-53,129,-24,-104,63,-43,-82,-107,-117,-122
-117,-146,-29,131,-43,-87,87,-39,-48,-92,-97,-122
-161,-136,24,148,-92,-56,97,-117,-53,-58,-68,-112
-204,-117,87,161,-146,-14,92,-283,-102,-29,-39,-78
-224,-107,117,165,-170,4,43,-444,-161,0,4,-29
-200,-68,131,134,-165,31,-43,-580,-190,63,82,29
-170,-14,156,92,-163,70,-156,-756,-248,126,190,117
-146,53,200,46,-173,126,-312,-1000,-366,180,302,229
-73,126,200,-26,-136,163,-473,-1205,-478,239,439,366
24,195,170,-109,-73,183,-600,-1356,-551,307,600,512
122,278,156,-200,-17,217,-736,-1507,-629,409,775,678
239,370,131,-305,53,251,-902,-1683,-707,527,980,868
385,507,122,-446,131,314,-1107,-1854,-766,649,1205,1083
517,619,102,-568,207,361,-1298,-1981,-814,756,1420,1298
663,707,43,-685,309,375,-1468,-2034,-839,849,1615,1498
814,771,-43,-793,429,363,-1634,-2054,-834,907,1766,1673
936,849,-87,-893,512,380,-1790,-2098,-834,927,1864,1815
1015,927,-87,-971,551,419,-1908,-2137,-858,863,1825,1854
1044,966,-78,-1005,561,444,-1942,-2147,-917,692,1659,1781
1044,956,-87,-1000,566,434,-1932,-2152,-1010,419,1356,1615
1010,897,-112,-954,561,392,-1888,-2166,-1171,53,956,1366
902,795,-107,-849,505,344,-1790,-2171,-1351,-297,541,1073
761,663,-97,-712,429,283,-1664,-2176,-1512,-595,190,810
610,497,-112,-553,361,192,-1503,-2156,-1649,-858,-117,566
439,322,-117,-380,278,102,-1327,-2127,-1776,-1078,-385,366
244,214,-29,-229,136,92,-1156,-2142,-1898,-1224,-561,214
48,185,136,-117,-43,161,-990,-2161,-1976,-1283,-639,146
-102,190,292,-43,-197,241,-839,-2088,-1942,-1244,-634,131
-165,209,375,-21,-270,292,-712,-1888,-1761,-1117,-551,151
-204,263,468,-29,-336,366,-610,-1620,-1478,-922,-429,161
-253,307,561,-26,-407,434,-488,-1366,-1220,-746,-331,151
-278,326,605,-24,-441,466,-409,-1180,-1034,-629,-283,126
-283,346,629,-31,-456,488,-346,-1034,-888,-531,-239,107
-302,336,639,-17,-470,488,-297,-907,-771,-453,-214,68
-302,283,585,9,-444,434,-244,-795,-658,-400,-209,24
-278,209,488,34,-383,348,-190,-668,-575,-370,-195,-9
-263,131,395,65,-329,263,-146,-566,-488,-331,-185,-34
-244,73,317,85,-280,195,-92,-468,-419,-312,-185,-73
-209,53,263,78,-236,158,-43,-375,-366,-292,-200,-97
-195,24,219,85,-207,122,-24,-297,-322,-268,-209,-117
-180,4,185,87,-183,95,0,-248,-268,-253,-204,-131
-180,-4,175,92,-178,85,9,-195,-229,-219,-195,-131
-161,-4,156,82,-158,75,14,-156,-185,-195,-175,-131
-141,-19,122,80,-131,51,34,-112,-156,-170,-161,-141
-117,-68,48,92,-82,-9,73,-43,-102,-146,-146,-146
-97,-117,-19,107,-39,-68,117,19,-58,-131,-141,-141
-97,-146,-48,122,-24,-97,141,58,-39,-126,-141,-151
-92,-165,-73,129,-9,-119,141,63,-48,-126,-141,-156
-92,-165,-73,129,-9,-119,141,68,-43,-122,-141,-156
-92,-165,-73,129,-9,-119,141,68,-43,-117,-141,-156
-92,-175,-82,134,-4,-129,141,78,-29,-112,-141,-151
-97,-165,-68,131,-14,-117,146,78,-19,-117,-136,-161
-97,-170,-73,134,-12,-122,146,87,-9,-107,-136,-161
-97,-175,-78,136,-9,-126,141,97,-9,-107,-136,-161
-97,-175,-78,136,-9,-126,136,107,-4,-112,-136,-165
-97,-165,-68,131,-14,-117,146,117,0,-122,-146,-165
-92,-161,-68,126,-12,-114,146,126,4,-117,-146,-165
-92,-161,-68,126,-12,-114,146,131,9,-117,-146,-170
-92,-156,-63,124,-14,-109,146,131,9,-112,-146,-170
-82,-156,-73,119,-4,-114,146,126,4,-102,-146,-170
-82,-156,-73,119,-4,-114,146,136,14,-97,-141,-165
-82,-165,-82,124,0,-124,151,146,29,-97,-141,-165
-82,-170,-87,126,2,-129,151,156,29,-97,-136,-165
-92,-180,-87,136,-2,-134,170,175,48,-97,-136,-165
-87,-180,-92,134,2,-136,170,185,48,-92,-136,-165
-87,-180,-92,134,2,-136,170,190,53,-92,-136,-165
-82,-180,-97,131,7,-139,170,195,58,-82,-136,-165
-82,-165,-82,124,0,-124,161,200,63,-82,-136,-165
-82,-165,-82,124,0,-124,161,200,68,-78,-131,-165
-82,-161,-78,122,-2,-119,161,200,73,-78,-131,-165
-82,-161,-78,122,-2,-119,165,209,87,-73,-131,-165
-68,-170,-102,119,17,-136,175,224,97,-58,-126,-165
-68,-170,-102,119,17,-136,175,239,112,-53,-126,-165
-68,-165,-97,117,14,-131,180,253,112,-48,-126,-165
-63,-161,-97,112,17,-129,180,268,126,-48,-122,-165
-73,-165,-92,119,9,-129,190,263,136,-43,-107,-156
-68,-170,-102,119,17,-136,190,278,146,-34,-107,-156
-68,-175,-107,122,19,-141,190,287,156,-29,-107,-151
-68,-175,-107,122,19,-141,195,297,165,-24,-102,-151
-63,-170,-107,117,21,-139,190,317,175,-29,-102,-151
-58,-165,-107,112,24,-136,190,336,185,-24,-97,-151
-53,-161,-107,107,26,-134,190,341,195,-19,-97,-151
-43,-156,-112,100,34,-134,185,361,209,-4,-87,-146
-53,-146,-92,100,19,-119,185,366,214,-4,-92,-146
-48,-151,-102,100,26,-126,190,380,224,9,-87,-141
-48,-151,-102,100,26,-126,190,395,244,9,-87,-141
-39,-136,-97,87,29,-117,200,405,253,19,-87,-141
-39,-136,-97,87,29,-117,209,429,253,14,-78,-151
-39,-136,-97,87,29,-117,209,444,273,24,-73,-151
-34,-146,-112,90,39,-129,209,463,287,29,-68,-146
-24,-136,-112,80,43,-124,219,478,302,43,-63,-141
-24,-141,-117,82,46,-129,224,492,317,48,-58,-131
-24,-141,-117,82,46,-129,229,507,336,68,-58,-131
-24,-146,-122,85,48,-134,234,536,361,82,-48,-126
-14,-146,-131,80,58,-139,239,551,380,97,-43,-126
-14,-131,-117,73,51,-124,244,585,390,97,-29,-126
-9,-126,-117,68,53,-122,248,605,414,107,-29,-122
-4,-126,-122,65,58,-124,248,629,429,117,-24,-122
0,-117,-117,58,58,-117,253,644,448,117,-19,-122
4,-122,-126,58,65,-124,248,663,463,131,-19,-122
9,-122,-131,56,70,-126,253,688,478,141,-14,-117
9,-126,-136,58,73,-131,263,717,502,156,-9,-112
14,-126,-141,56,78,-134,278,741,527,170,-4,-112
19,-117,-136,48,78,-126,283,775,551,180,0,-107
24,-117,-141,46,82,-129,283,805,570,190,9,-107
29,-112,-141,41,85,-126,292,829,600,200,14,-102
34,-102,-136,34,85,-119,297,854,614,219,29,-102
39,-107,-146,34,92,-126,302,878,629,229,29,-112
43,-102,-146,29,95,-124,307,897,649,239,34,-107
48,-102,-151,26,100,-126,312,922,668,253,39,-107
53,-102,-156,24,104,-129,322,961,702,263,48,-97
48,-102,-151,26,100,-126,336,990,727,292,63,-82
58,-107,-165,24,112,-136,346,1024,756,302,78,-78
63,-107,-170,21,117,-139,351,1054,785,317,87,-78
73,-102,-175,14,124,-139,356,1078,810,331,97,-78
92,-112,-204,9,148,-158,351,1117,834,336,112,-68
97,-112,-209,7,153,-161,356,1146,868,351,122,-58
107,-112,-219,2,163,-165,361,1185,888,366,131,-53
117,-102,-219,-7,168,-161,366,1224,922,385,141,-43
136,-92,-229,-21,183,-161,370,1244,946,390,146,-43
151,-87,-239,-31,195,-163,370,1268,971,414,151,-43
161,-78,-239,-41,200,-158,370,1298,1000,424,156,-43
180,-68,-248,-56,214,-158,370,1322,1024,444,161,-43
180,-63,-244,-58,212,-153,380,1356,1063,458,185,-29
190,-63,-253,-63,222,-158,380,1385,1088,473,195,-24
195,-68,-263,-63,229,-165,385,1410,1112,492,209,-14
209,-63,-273,-73,241,-168,385,1434,1137,507,219,-9
219,-48,-268,-85,244,-158,380,1459,1156,517,219,-9
229,-43,-273,-92,251,-158,380,1483,1180,531,229,0
239,-39,-278,-100,258,-158,380,1503,1205,551,248,9
248,-29,-278,-109,263,-153,380,1512,1229,566,253,14
258,-9,-268,-124,263,-139,370,1517,1244,570,263,24
268,0,-268,-134,268,-134,366,1532,1259,585,273,29
268,4,-263,-136,265,-129,366,1542,1263,600,283,39
283,14,-268,-148,275,-126,361,1551,1273,614,292,53
287,4,-283,-146,285,-139,370,1566,1298,629,317,73
287,-9,-297,-139,292,-153,366,1566,1312,644,326,73
292,-14,-307,-139,300,-161,361,1556,1317,649,336,82
292,-34,-326,-129,309,-180,356,1542,1322,663,346,92
302,-24,-326,-139,314,-175,336,1522,1312,658,341,92
307,-14,-322,-146,314,-168,322,1498,1302,663,351,107
307,-4,-312,-151,309,-158,312,1459,1283,663,361,117
307,4,-302,-156,305,-148,297,1415,1259,663,370,126
307,14,-292,-161,300,-139,292,1381,1229,663,370,136
297,19,-278,-158,287,-129,273,1327,1195,658,375,146
292,29,-263,-161,278,-117,253,1273,1156,644,375,151
287,43,-244,-165,265,-100,234,1220,1112,624,375,156
273,53,-219,-163,246,-82,229,1166,1078,610,385,170
268,53,-214,-161,241,-80,209,1107,1044,595,375,175
263,68,-195,-165,229,-63,190,1044,995,580,375,180
248,68,-180,-158,214,-56,170,985,941,561,366,185
248,78,-170,-163,209,-46,146,917,878,527,361,180
234,78,-156,-156,195,-39,136,849,824,507,346,185
224,73,-151,-148,187,-39,126,780,766,483,341,185
204,58,-146,-131,175,-43,112,712,707,458,322,185
195,53,-141,-124,168,-43,107,658,653,434,312,190
180,53,-126,-117,153,-36,97,595,610,405,297,180
165,53,-112,-109,139,-29,82,531,551,366,278,175
151,53,-97,-102,124,-21,68,468,502,336,258,161
141,53,-87,-97,114,-17,58,414,448,317,248,156
126,48,-78,-87,102,-14,48,361,390,287,229,146
112,34,-78,-73,95,-21,53,312,341,258,209,126
97,24,-73,-61,85,-24,48,273,292,229,190,122
78,19,-58,-48,68,-19,43,224,263,200,170,122
63,4,-58,-34,61,-26,43,180,219,175,151,112
53,4,-48,-29,51,-21,39,146,190,156,146,107
34,-9,-43,-12,39,-26,29,112,156,131,126,97
19,0,-19,-9,19,-9,14,73,122,107,112,73
4,-4,-9,0,7,-7,14,39,87,82,87,63
0,-4,-4,2,2,-4,14,24,53,68,78,48
-4,-14,-9,9,2,-12,14,0,29,53,58,43
-14,-19,-4,17,-4,-12,9,-24,4,34,39,24
-14,-24,-9,19,-2,-17,9,-39,-19,14,24,14
-24,-34,-9,29,-7,-21,9,-53,-29,4,19,9
-39,-39,0,39,-19,-19,9,-63,-48,-9,9,-4
-48,-39,9,43,-29,-14,9,-87,-58,-19,0,0
-53,-43,9,48,-31,-17,9,-97,-68,-29,-9,-4
-58,-43,14,51,-36,-14,9,-107,-82,-34,-19,-9
-63,-43,19,53,-41,-12,9,-112,-97,-43,-29,-14
-58,-53,4,56,-31,-24,19,-112,-107,-43,-24,-19
-63,-68,-4,65,-29,-36,19,-117,-112,-43,-34,-24
-68,-78,-9,73,-29,-43,19,-117,-112,-58,-34,-29
-68,-92,-24,80,-21,-58,19,-126,-117,-63,-34,-34
-82,-92,-9,87,-36,-51,19,-141,-126,-68,-39,-34
-87,-87,0,87,-43,-43,19,-146,-126,-73,-43,-39
-87,-82,4,85,-46,-39,19,-151,-136,-78,-48,-43
-87,-78,9,82,-48,-34,19,-151,-141,-78,-53,-48
-87,-63,24,75,-56,-19,9,-156,-151,-87,-63,-53
-87,-68,19,78,-53,-24,14,-161,-156,-87,-68,-58
-92,-63,29,78,-61,-17,14,-170,-156,-92,-68,-63
-92,-68,24,80,-58,-21,14,-175,-156,-92,-68,-68
-102,-73,29,87,-65,-21,24,-165,-146,-92,-68,-58
-102,-82,19,92,-61,-31,24,-165,-151,-92,-68,-58
-107,-87,19,97,-63,-34,24,-170,-156,-97,-68,-58
-107,-87,19,97,-63,-34,29,-175,-156,-97,-68,-58
-97,-82,14,90,-56,-34,29,-175,-165,-97,-68,-58
-97,-82,14,90,-56,-34,24,-175,-165,-107,-73,-58
-97,-82,14,90,-56,-34,24,-175,-165,-107,-73,-58
-97,-78,19,87,-58,-29,24,-175,-165,-107,-73,-58
-87,-73,14,80,-51,-29,14,-175,-161,-107,-78,-63
-87,-73,14,80,-51,-29,14,-175,-161,-107,-78,-63
-87,-82,4,85,-46,-39,14,-175,-161,-107,-78,-63
-87,-82,4,85,-46,-39,14,-175,-156,-102,-78,-63
-97,-82,14,90,-56,-34,14,-175,-165,-102,-78,-68
-97,-73,24,85,-61,-24,9,-175,-170,-102,-78,-68
-97,-73,24,85,-61,-24,9,-175,-170,-107,-78,-68
-97,-82,14,90,-56,-34,14,-175,-170,-107,-78,-68
-97,-92,4,95,-51,-43,24,-165,-161,-97,-68,-58
-97,-92,4,95,-51,-43,24,-165,-161,-97,-73,-58
-97,-92,4,95,-51,-43,24,-165,-161,-97,-73,-58
-97,-97,0,97,-48,-48,29,-161,-161,-97,-68,-58
-97,-92,4,95,-51,-43,29,-170,-170,-107,-73,-68
-97,-87,9,92,-53,-39,29,-170,-165,-107,-78,-68
-97,-82,14,90,-56,-34,29,-170,-165,-107,-82,-68
-97,-68,29,82,-63,-19,29,-170,-170,-107,-87,-68
-97,-78,19,87,-58,-29,29,-161,-161,-97,-78,-58
-97,-82,14,90,-56,-34,29,-161,-156,-97,-78,-58
-102,-82,19,92,-61,-31,29,-161,-156,-97,-78,-58
-102,-82,19,92,-61,-31,34,-161,-156,-97,-82,-58
-102,-73,29,87,-65,-21,24,-161,-161,-102,-82,-68
-102,-73,29,87,-65,-21,24,-156,-161,-102,-82,-68
-102,-73,29,87,-65,-21,24,-156,-161,-102,-82,-68
-102,-73,29,87,-65,-21,24,-156,-161,-102,-82,-73
-102,-82,19,92,-61,-31,34,-156,-151,-107,-73,-63
-102,-87,14,95,-58,-36,34,-151,-151,-107,-73,-63
-97,-87,9,92,-53,-39,39,-146,-151,-107,-73,-63
-97,-92,4,95,-51,-43,39,-146,-151,-107,-73,-63
-87,-92,-4,90,-41,-48,39,-146,-151,-97,-82,-63
-87,-87,0,87,-43,-43,39,-146,-146,-97,-82,-68
-87,-87,0,87,-43,-43,39,-146,-146,-97,-82,-68
-87,-92,-4,90,-41,-48,39,-146,-146,-92,-82,-68
-92,-78,14,85,-53,-31,29,-156,-156,-102,-87,-82
-92,-63,29,78,-61,-17,24,-156,-156,-107,-87,-82
-92,-58,34,75,-63,-12,24,-156,-156,-107,-87,-78
-92,-63,29,78,-61,-17,29,-151,-156,-102,-87,-78
-102,-68,34,85,-68,-17,29,-141,-146,-102,-78,-68
-102,-73,29,87,-65,-21,29,-141,-146,-102,-78,-73
-102,-73,29,87,-65,-21,29,-141,-146,-107,-78,-73
-102,-78,24,90,-63,-26,29,-141,-146,-107,-78,-73
-92,-92,0,92,-46,-46,34,-131,-136,-97,-68,-63
-92,-97,-4,95,-43,-51,39,-131,-136,-97,-68,-68
-92,-102,-9,97,-41,-56,43,-131,-136,-97,-68,-68
-92,-117,-24,104,-34,-70,53,-126,-136,-97,-68,-63
-102,-107,-4,104,-48,-56,48,-136,-141,-102,-73,-68
-102,-92,9,97,-56,-41,43,-136,-141,-102,-78,-73
-102,-82,19,92,-61,-31,39,-136,-141,-102,-82,-73
-102,-82,19,92,-61,-31,34,-136,-136,-102,-87,-78
-102,-73,29,87,-65,-21,34,-136,-146,-102,-87,-78
-102,-73,29,87,-65,-21,34,-136,-146,-107,-87,-78
-102,-63,39,82,-70,-12,34,-136,-146,-107,-87,-87
-102,-53,48,78,-75,-2,34,-136,-151,-107,-87,-87
-92,-68,24,80,-58,-21,34,-126,-141,-97,-87,-78
-92,-82,9,87,-51,-36,43,-126,-141,-97,-87,-78
-92,-92,0,92,-46,-46,43,-122,-136,-97,-87,-78
-92,-97,-4,95,-43,-51,43,-122,-136,-97,-87,-78
-92,-97,-4,95,-43,-51,34,-131,-146,-92,-87,-82
-92,-97,-4,95,-43,-51,34,-131,-146,-92,-82,-82
-92,-92,0,92,-46,-46,34,-131,-141,-92,-82,-82
-92,-82,9,87,-51,-36,34,-131,-141,-92,-82,-82
-92,-63,29,78,-61,-17,34,-131,-131,-102,-82,-73
-92,-58,34,75,-63,-12,34,-131,-131,-97,-82,-73
-87,-53,34,70,-61,-9,34,-131,-131,-97,-82,-68
-87,-53,34,70,-61,-9,34,-131,-131,-97,-78,-68
-87,-43,43,65,-65,0,34,-131,-117,-87,-68,-63
-87,-43,43,65,-65,0,39,-126,-117,-82,-63,-58
-82,-34,48,58,-65,7,39,-126,-117,-78,-63,-58
-82,-34,48,58,-65,7,39,-122,-112,-68,-63,-53
-73,-43,29,58,-51,-7,43,-112,-122,-68,-58,-53
-68,-39,29,53,-48,-4,48,-112,-117,-63,-53,-53
-68,-34,34,51,-51,0,53,-112,-117,-63,-53,-53
-68,-19,48,43,-58,14,58,-112,-112,-63,-53,-53
-58,0,58,29,-58,29,53,-102,-112,-68,-53,-53
-68,0,68,34,-68,34,58,-107,-117,-68,-58,-58
-63,-4,58,34,-61,26,68,-102,-107,-63,-53,-53
-58,-9,48,34,-53,19,68,-97,-97,-58,-48,-48
-53,-14,39,34,-46,12,68,-92,-87,-53,-43,-43
-48,-19,29,34,-39,4,68,-87,-78,-48,-39,-39
-43,-4,39,24,-41,17,68,-73,-58,-24,-24,-19
-43,14,58,14,-51,36,58,-68,-53,-14,-4,-4
-39,24,63,7,-51,43,39,-73,-53,-9,4,4
-39,34,73,2,-56,53,24,-82,-63,-4,14,14
-29,53,82,-12,-56,68,9,-92,-53,0,19,14
-24,58,82,-17,-53,70,-4,-102,-58,0,19,14
-24,48,73,-12,-48,61,-9,-107,-73,-9,19,14
-14,53,68,-19,-41,61,-19,-117,-73,-9,24,19
-24,53,78,-14,-51,65,-34,-131,-82,-14,19,14
-24,53,78,-14,-51,65,-43,-136,-92,-19,14,9
-19,53,73,-17,-46,63,-48,-141,-97,-24,9,4
-9,48,58,-19,-34,53,-48,-146,-97,-29,9,4
0,58,58,-29,-29,58,-58,-146,-102,-29,9,14
4,58,53,-31,-24,56,-58,-141,-102,-24,9,19
9,53,43,-31,-17,48,-58,-141,-102,-24,9,19
14,53,39,-34,-12,46,-58,-141,-112,-24,9,19
29,63,34,-46,-2,48,-63,-136,-117,-34,14,19
29,68,39,-48,-4,53,-73,-146,-122,-39,9,14
29,58,29,-43,0,43,-73,-161,-126,-43,-4,14
29,53,24,-41,2,39,-68,-161,-131,-48,-4,14
39,29,-9,-34,24,9,-68,-161,-136,-48,0,19
29,14,-14,-21,21,0,-68,-170,-146,-53,-4,19
19,4,-14,-12,17,-4,-68,-180,-146,-58,-9,19
14,0,-14,-7,14,-7,-68,-180,-151,-63,-9,24
4,14,9,-9,-2,12,-73,-200,-165,-68,-19,14
-4,9,14,-2,-9,12,-73,-209,-170,-78,-24,4
-14,4,19,4,-17,12,-58,-214,-175,-87,-34,-4
-24,4,29,9,-26,17,-53,-219,-180,-97,-48,-19
-34,9,43,12,-39,26,-58,-209,-180,-92,-48,-19
-43,0,43,21,-43,21,-48,-204,-180,-97,-48,-24
-53,-14,39,34,-46,12,-39,-204,-185,-102,-53,-34
-58,-34,24,46,-41,-4,-29,-204,-190,-107,-58,-39
-82,-43,39,63,-61,-2,-24,-204,-185,-102,-78,-48
-97,-58,39,78,-68,-9,-14,-204,-190,-117,-92,-58
-102,-68,34,85,-68,-17,-9,-204,-195,-126,-102,-68
-112,-73,39,92,-75,-17,-9,-209,-209,-136,-112,-78
-122,-82,39,102,-80,-21,0,-214,-209,-146,-117,-87
-122,-107,14,114,-68,-46,4,-214,-209,-146,-126,-92
-126,-126,0,126,-63,-63,14,-214,-214,-151,-126,-92
-126,-146,-19,136,-53,-82,19,-214,-214,-151,-126,-97
-136,-146,-9,141,-63,-78,24,-214,-224,-165,-146,-112
-141,-146,-4,143,-68,-75,24,-214,-224,-170,-146,-117
-141,-146,-4,143,-68,-75,24,-214,-224,-170,-151,-122
-141,-146,-4,143,-68,-75,29,-214,-229,-170,-151,-126
-136,-151,-14,143,-61,-82,29,-214,-239,-180,-165,-131
-136,-151,-14,143,-61,-82,29,-214,-239,-180,-165,-131
-136,-151,-14,143,-61,-82,29,-214,-239,-180,-161,-126
-136,-151,-14,143,-61,-82,29,-214,-239,-180,-161,-126
-146,-151,-4,148,-70,-78,29,-214,-229,-180,-161,-126
-146,-151,-4,148,-70,-78,29,-214,-229,-180,-161,-126
-146,-156,-9,151,-68,-82,34,-214,-234,-180,-161,-131
-146,-156,-9,151,-68,-82,34,-214,-234,-180,-165,-131
-146,-156,-9,151,-68,-82,34,-224,-244,-185,-165,-131
-146,-151,-4,148,-70,-78,34,-224,-244,-185,-170,-136
-146,-151,-4,148,-70,-78,34,-224,-244,-185,-170,-136
-146,-151,-4,148,-70,-78,34,-224,-244,-190,-170,-136
-146,-141,4,143,-75,-68,34,-224,-239,-190,-170,-146
-146,-146,0,146,-73,-73,34,-224,-239,-190,-170,-146
-146,-146,0,146,-73,-73,34,-224,-239,-190,-170,-141
-146,-146,0,146,-73,-73,34,-224,-239,-190,-170,-141
-146,-136,9,141,-78,-63,34,-234,-244,-200,-185,-146
-146,-136,9,141,-78,-63,34,-234,-244,-200,-185,-146
-146,-136,9,141,-78,-63,34,-234,-248,-200,-180,-146
-146,-141,4,143,-75,-68,34,-234,-248,-200,-180,-146
-146,-146,0,146,-73,-73,34,-224,-239,-190,-170,-136
-146,-151,-4,148,-70,-78,34,-224,-239,-190,-170,-136
-146,-156,-9,151,-68,-82,34,-224,-239,-190,-170,-136
-146,-161,-14,153,-65,-87,39,-224,-239,-190,-170,-136
-151,-165,-14,158,-68,-90,48,-214,-239,-180,-170,-146
-151,-165,-14,158,-68,-90,48,-214,-239,-180,-170,-146
-151,-165,-14,158,-68,-90,48,-214,-239,-185,-175,-146
-151,-165,-14,158,-68,-90,48,-214,-239,-185,-175,-146
-151,-161,-9,156,-70,-85,43,-214,-248,-190,-170,-156
-151,-156,-4,153,-73,-80,43,-214,-248,-190,-170,-156
-151,-151,0,151,-75,-75,48,-214,-244,-190,-170,-156
-151,-151,0,151,-75,-75,53,-214,-244,-190,-170,-156
-161,-209,-48,185,-56,-129,73,-204,-224,-180,-156,-136
-161,-209,-48,185,-56,-129,68,-200,-219,-175,-156,-131
-161,-180,-19,170,-70,-100,58,-200,-229,-180,-156,-141
-151,-165,-14,158,-68,-90,48,-204,-229,-180,-156,-131
-141,-165,-24,153,-58,-95,43,-195,-214,-175,-151,-126
-136,-161,-24,148,-56,-92,24,-195,-214,-165,-141,-131
-122,-136,-14,129,-53,-75,0,-185,-204,-156,-141,-122
-102,-112,-9,107,-46,-61,-19,-165,-175,-141,-126,-112
-92,-92,0,92,-46,-46,-9,-117,-136,-126,-117,-117
-102,-97,4,100,-53,-46,14,-73,-112,-117,-117,-122
-102,-126,-24,114,-39,-75,43,-53,-102,-117,-126,-122
-117,-165,-48,141,-34,-107,78,-29,-68,-92,-126,-122
-131,-175,-43,153,-43,-109,97,-39,-43,-68,-97,-112
-175,-156,19,165,-97,-68,102,-185,-82,-58,-87,-107
-214,-126,87,170,-151,-19,73,-385,-161,-48,-53,-78
-219,-87,131,153,-175,21,-4,-531,-209,4,14,-19
-180,-34,146,107,-163,56,-97,-668,-239,68,112,58
-165,24,190,70,-178,107,-224,-883,-317,122,214,151
-131,87,219,21,-175,153,-375,-1107,-448,161,312,248
-63,146,209,-41,-136,178,-522,-1288,-551,219,444,385
43,209,165,-126,-61,187,-639,-1449,-629,302,610,551
161,273,112,-217,24,192,-785,-1625,-717,400,795,722
287,380,92,-334,97,236,-980,-1815,-805,502,1000,917
419,492,73,-456,173,283,-1190,-1981,-873,610,1224,1132
566,600,34,-583,265,317,-1371,-2074,-897,722,1439,1342
717,702,-14,-710,366,344,-1546,-2103,-912,800,1610,1527
878,819,-58,-849,468,380,-1722,-2127,-902,839,1737,1688
985,917,-68,-951,527,424,-1878,-2166,-927,834,1786,1786
1044,966,-78,-1005,561,444,-1961,-2196,-956,741,1708,1790
1073,966,-107,-1019,590,429,-1971,-2191,-1010,556,1512,1703
1068,927,-141,-997,605,392,-1956,-2186,-1112,268,1200,1522
1019,844,-175,-932,597,334,-1908,-2200,-1273,-92,805,1259
907,722,-185,-814,546,268,-1800,-2225,-1444,-429,405,976
766,575,-190,-671,478,192,-1639,-2205,-1590,-692,68,722
595,400,-195,-497,395,102,-1454,-2156,-1708,-941,-219,492
409,253,-156,-331,283,48,-1273,-2132,-1830,-1137,-453,312
204,185,-19,-195,112,82,-1107,-2152,-1937,-1263,-610,175
14,190,175,-102,-80,183,-966,-2166,-2010,-1302,-673,112
-107,239,346,-65,-226,292,-839,-2083,-1947,-1244,-649,102
-175,283,458,-53,-317,370,-717,-1864,-1722,-1088,-546,131
-214,326,541,-56,-378,434,-595,-1590,-1415,-863,-400,161
-258,356,614,-48,-436,485,-468,-1346,-1171,-697,-322,146
-292,356,649,-31,-470,502,-385,-1161,-1005,-580,-268,126
-302,336,639,-17,-470,488,-326,-1005,-858,-502,-234,107
-302,322,624,-9,-463,473,-273,-873,-746,-439,-219,73
-297,287,585,4,-441,436,-229,-756,-644,-390,-214,19
-283,239,522,21,-402,380,-185,-644,-556,-361,-214,-14
-263,180,444,41,-353,312,-141,-556,-478,-331,-204,-43
-229,131,361,48,-295,246,-102,-473,-414,-312,-200,-78
-204,82,287,61,-246,185,-53,-375,-361,-278,-200,-107
-190,43,234,73,-212,139,-9,-287,-297,-253,-195,-112
-180,4,185,87,-183,95,19,-204,-239,-209,-185,-112
-170,-34,136,102,-153,51,43,-146,-204,-175,-175,-112
-170,-48,122,109,-146,36,53,-102,-165,-170,-161,-112
-156,-68,87,112,-122,9,73,-63,-122,-156,-146,-117
-136,-97,39,117,-87,-29,87,-19,-78,-141,-141,-122
-117,-117,0,117,-58,-58,112,19,-48,-126,-141,-141
-102,-141,-39,122,-31,-90,126,48,-48,-136,-151,-151
-102,-146,-43,124,-29,-95,131,58,-43,-131,-151,-156
-102,-151,-48,126,-26,-100,136,63,-43,-126,-151,-161
-102,-165,-63,134,-19,-114,141,78,-29,-122,-151,-161
-97,-175,-78,136,-9,-126,141,78,-29,-117,-156,-151
-97,-180,-82,139,-7,-131,146,87,-19,-107,-156,-151
-97,-185,-87,141,-4,-136,146,97,-19,-107,-156,-151
-97,-185,-87,141,-4,-136,146,107,-14,-112,-156,-156
-107,-175,-68,141,-19,-122,156,117,-9,-112,-156,-165
-102,-170,-68,136,-17,-119,156,126,-4,-107,-156,-165
-102,-170,-68,136,-17,-119,156,131,0,-107,-156,-170
-102,-165,-63,134,-19,-114,156,131,0,-102,-156,-170
-102,-175,-73,139,-14,-124,156,136,14,-92,-146,-161
-102,-175,-73,139,-14,-124,156,146,24,-87,-141,-156
-102,-185,-82,143,-9,-134,161,156,39,-87,-141,-156
-102,-190,-87,146,-7,-139,161,165,39,-87,-136,-156
-102,-180,-78,141,-12,-129,170,165,48,-87,-146,-165
-97,-180,-82,139,-7,-131,170,175,48,-82,-146,-165
-97,-180,-82,139,-7,-131,170,180,53,-82,-146,-165
-92,-180,-87,136,-2,-134,170,185,58,-73,-146,-165
-92,-175,-82,134,-4,-129,170,204,68,-73,-156,-165
-92,-175,-82,134,-4,-129,170,209,68,-68,-151,-165
-92,-170,-78,131,-7,-124,170,214,68,-68,-151,-165
-92,-170,-78,131,-7,-124,175,229,78,-63,-151,-165
-78,-165,-87,122,4,-126,170,229,87,-68,-146,-175
-78,-161,-82,119,2,-122,165,239,102,-63,-146,-175
-78,-151,-73,114,-2,-112,165,248,102,-58,-146,-175
-73,-141,-68,107,-2,-104,161,258,117,-58,-141,-175
-63,-131,-68,97,2,-100,161,263,117,-53,-136,-175
-58,-131,-73,95,7,-102,161,278,126,-43,-136,-175
-58,-131,-73,95,7,-102,161,287,136,-39,-136,-170
-58,-126,-68,92,4,-97,165,297,146,-34,-131,-170
-68,-141,-73,104,2,-107,180,312,170,-24,-126,-156
-68,-156,-87,112,9,-122,190,336,185,-14,-117,-151
-68,-170,-102,119,17,-136,200,346,200,-4,-112,-146
-63,-185,-122,124,29,-153,204,370,219,14,-97,-136
-53,-170,-117,112,31,-143,204,370,224,0,-97,-151
-48,-161,-112,104,31,-136,200,380,224,9,-97,-151
-48,-146,-97,97,24,-122,190,390,234,4,-102,-156
-39,-117,-78,78,19,-97,190,395,234,9,-107,-161
-48,-126,-78,87,14,-102,195,414,248,19,-87,-156
-48,-136,-87,92,19,-112,200,434,273,34,-82,-151
-43,-156,-112,100,34,-134,204,458,292,43,-78,-141
-34,-156,-122,95,43,-139,219,478,312,63,-73,-131
-34,-141,-107,87,36,-124,224,502,322,63,-68,-131
-34,-141,-107,87,36,-124,229,517,336,78,-68,-131
-34,-146,-112,90,39,-129,234,546,356,87,-58,-126
-24,-146,-122,85,48,-134,239,561,370,97,-53,-126
-14,-131,-117,73,51,-124,234,575,380,97,-48,-136
-9,-117,-107,63,48,-112,239,595,405,107,-48,-131
-4,-107,-102,56,48,-104,239,619,419,117,-43,-131
0,-87,-87,43,43,-87,244,634,439,117,-39,-131
4,-87,-92,41,48,-90,248,658,463,141,-29,-122
9,-92,-102,41,56,-97,253,688,478,151,-24,-117
9,-102,-112,46,61,-107,263,722,502,165,-19,-112
14,-107,-122,46,68,-114,278,751,527,180,-14,-112
29,-97,-126,34,78,-112,283,775,541,190,0,-107
34,-97,-131,31,82,-114,283,805,561,200,9,-107
39,-92,-131,26,85,-112,292,829,590,209,14,-102
43,-82,-126,19,85,-104,297,854,605,229,29,-102
48,-78,-126,14,87,-102,302,888,619,239,19,-102
53,-73,-126,9,90,-100,307,907,639,248,24,-97
58,-73,-131,7,95,-102,312,932,658,263,29,-97
63,-73,-136,4,100,-104,322,971,692,273,39,-87
78,-68,-146,-4,112,-107,317,1000,717,292,43,-82
87,-68,-156,-9,122,-112,326,1034,746,302,58,-78
92,-63,-156,-14,124,-109,331,1063,775,317,68,-78
102,-53,-156,-24,129,-104,336,1088,800,331,78,-78
112,-43,-156,-34,134,-100,351,1117,824,336,82,-78
117,-43,-161,-36,139,-102,356,1146,858,351,92,-68
126,-43,-170,-41,148,-107,361,1185,878,366,102,-63
136,-34,-170,-51,153,-102,366,1224,912,385,112,-53
151,-43,-195,-53,173,-119,375,1259,941,400,122,-48
161,-48,-209,-56,185,-129,380,1288,971,424,131,-43
165,-48,-214,-58,190,-131,385,1322,1005,434,141,-39
180,-48,-229,-65,204,-139,390,1351,1034,453,151,-34
180,-48,-229,-65,204,-139,400,1376,1063,468,165,-29
190,-43,-234,-73,212,-139,400,1405,1088,483,175,-24
195,-43,-239,-75,217,-141,405,1429,1112,502,190,-14
209,-34,-244,-87,226,-139,405,1454,1137,517,200,-9
219,-19,-239,-100,229,-129,400,1478,1156,536,209,0
229,-14,-244,-107,236,-129,400,1503,1180,551,219,9
239,-9,-248,-114,244,-129,400,1522,1205,570,239,19
248,0,-248,-124,248,-124,400,1532,1229,585,244,24
268,19,-248,-143,258,-114,390,1546,1249,590,253,24
278,19,-258,-148,268,-119,385,1561,1268,605,263,29
278,14,-263,-146,270,-124,385,1571,1278,619,273,39
292,14,-278,-153,285,-131,380,1581,1293,634,283,53
292,34,-258,-163,275,-112,375,1586,1302,644,287,63
297,39,-258,-168,278,-109,366,1586,1312,653,297,63
307,53,-253,-180,280,-100,356,1576,1312,653,307,73
312,53,-258,-183,285,-102,346,1561,1312,663,317,82
317,39,-278,-178,297,-119,341,1561,1317,668,331,92
326,34,-292,-180,309,-129,331,1537,1312,673,341,107
331,29,-302,-180,317,-136,326,1498,1298,673,351,117
336,24,-312,-180,324,-143,317,1454,1278,673,361,126
336,39,-297,-187,317,-129,302,1415,1259,673,351,126
326,48,-278,-187,302,-114,283,1366,1224,668,356,136
322,63,-258,-192,290,-97,263,1317,1185,653,356,141
317,82,-234,-200,275,-75,244,1268,1141,634,356,146
312,78,-234,-195,273,-78,234,1215,1098,619,361,161
307,73,-234,-190,270,-80,219,1156,1063,605,356,165
302,82,-219,-192,261,-68,204,1093,1015,590,361,170
287,78,-209,-183,248,-65,190,1034,961,570,356,175
278,78,-200,-178,239,-61,165,961,917,556,361,190
263,78,-185,-170,224,-53,156,897,863,536,346,195
253,73,-180,-163,217,-53,146,834,805,512,341,195
234,58,-175,-146,204,-58,131,771,746,488,322,195
224,63,-161,-143,192,-48,107,697,688,453,312,190
209,73,-136,-141,173,-31,97,634,639,424,297,180
195,82,-112,-139,153,-14,82,570,575,385,278,175
180,92,-87,-136,134,2,68,507,522,356,258,161
165,87,-78,-126,122,4,68,453,473,331,248,161
146,78,-68,-112,107,4,58,400,419,307,229,156
126,58,-68,-92,97,-4,63,351,375,283,209,141
107,43,-63,-75,85,-9,58,312,331,258,190,141
92,48,-43,-70,68,2,43,268,283,219,170,122
82,34,-48,-58,65,-7,43,219,239,195,151,112
78,34,-43,-56,61,-4,39,180,209,175,146,107
63,19,-43,-41,53,-12,29,141,175,151,126,97
58,34,-24,-46,41,4,14,97,141,126,102,73
43,34,-9,-39,26,12,14,58,107,102,78,63
39,39,0,-39,19,19,14,39,73,87,68,48
34,34,0,-34,17,17,14,9,48,73,48,43
14,14,0,-14,7,7,14,-4,24,63,39,34
14,4,-9,-9,12,-2,19,-19,0,43,24,24
4,-9,-14,2,9,-12,24,-34,-9,34,19,19
-9,-19,-9,14,0,-14,29,-43,-29,19,9,4
-19,-19,0,19,-9,-9,24,-78,-58,0,0,0
-24,-24,0,24,-12,-12,19,-87,-68,-9,-9,-4
-29,-24,4,26,-17,-9,14,-97,-82,-14,-19,-9
-34,-24,9,29,-21,-7,9,-102,-97,-24,-29,-14
-39,-14,24,26,-31,4,0,-122,-107,-43,-34,-19
-43,-19,24,31,-34,2,0,-126,-112,-43,-43,-24
-48,-19,29,34,-39,4,0,-126,-112,-58,-43,-29
-48,-24,24,36,-36,0,0,-136,-117,-63,-43,-34
-63,-19,43,41,-53,12,4,-141,-126,-68,-58,-34
-68,-19,48,43,-58,14,9,-146,-126,-73,-63,-39
-68,-19,48,43,-58,14,14,-151,-136,-78,-68,-43
-68,-19,48,43,-58,14,19,-151,-141,-78,-73,-48
-68,-24,43,46,-56,9,9,-141,-141,-78,-73,-48
-68,-39,29,53,-48,-4,14,-141,-146,-78,-78,-48
-73,-43,29,58,-51,-7,14,-146,-146,-82,-78,-48
-73,-58,14,65,-43,-21,14,-146,-146,-82,-78,-48
-82,-63,19,73,-51,-21,24,-156,-146,-82,-78,-48
-82,-73,9,78,-46,-31,24,-156,-151,-82,-78,-48
-87,-78,9,82,-48,-34,24,-161,-156,-87,-78,-48
-87,-78,9,82,-48,-34,29,-165,-156,-87,-78,-48
-78,-68,9,73,-43,-29,29,-165,-156,-78,-78,-58
-78,-63,14,70,-46,-24,24,-165,-156,-87,-82,-58
-78,-58,19,68,-48,-19,24,-165,-156,-87,-82,-58
-78,-48,29,63,-53,-9,24,-165,-156,-87,-82,-58
-78,-53,24,65,-51,-14,24,-165,-161,-97,-87,-63
-78,-53,24,65,-51,-14,24,-165,-161,-97,-87,-63
-78,-63,14,70,-46,-24,24,-165,-161,-97,-87,-63
-78,-63,14,70,-46,-24,24,-165,-156,-92,-87,-63
-78,-63,14,70,-46,-24,24,-165,-156,-102,-87,-68
-78,-53,24,65,-51,-14,19,-165,-161,-102,-87,-68
-78,-53,24,65,-51,-14,19,-165,-161,-107,-87,-68
-78,-63,14,70,-46,-24,24,-165,-161,-107,-87,-68
-78,-53,24,65,-51,-14,24,-165,-170,-97,-87,-68
-78,-53,24,65,-51,-14,24,-165,-170,-97,-92,-68
-78,-53,24,65,-51,-14,24,-165,-170,-97,-92,-68
-78,-58,19,68,-48,-19,29,-161,-170,-97,-87,-68
-78,-48,29,63,-53,-9,19,-170,-170,-97,-87,-68
-78,-48,29,63,-53,-9,19,-170,-165,-97,-87,-68
-78,-48,29,63,-53,-9,19,-170,-165,-97,-87,-68
-78,-39,39,58,-58,0,19,-170,-170,-97,-87,-68
-87,-43,43,65,-65,0,29,-161,-170,-97,-87,-68
-87,-53,34,70,-61,-9,29,-161,-165,-97,-87,-68
-92,-58,34,75,-63,-12,29,-161,-165,-97,-87,-68
-92,-63,29,78,-61,-17,34,-161,-165,-97,-92,-68
-82,-63,19,73,-51,-21,24,-161,-161,-102,-92,-68
-82,-63,19,73,-51,-21,24,-156,-161,-102,-92,-68
-82,-63,19,73,-51,-21,24,-156,-161,-102,-92,-68
-82,-63,19,73,-51,-21,24,-156,-161,-102,-92,-73
-92,-58,34,75,-63,-12,24,-165,-161,-97,-92,-73
-92,-58,34,75,-63,-12,24,-161,-161,-97,-92,-73
-87,-53,34,70,-61,-9,29,-156,-161,-97,-92,-73
-87,-53,34,70,-61,-9,29,-156,-161,-97,-92,-73
-87,-68,19,78,-53,-24,34,-146,-151,-87,-92,-73
-87,-68,19,78,-53,-24,39,-146,-146,-87,-92,-78
-87,-73,14,80,-51,-29,43,-146,-146,-87,-92,-78
-87,-82,4,85,-46,-39,48,-146,-146,-82,-92,-78
-92,-82,9,87,-51,-36,39,-146,-146,-92,-97,-73
-92,-73,19,82,-56,-26,34,-146,-146,-97,-97,-73
-92,-73,19,82,-56,-26,34,-146,-146,-97,-97,-68
-92,-82,9,87,-51,-36,39,-141,-146,-92,-97,-68
-92,-78,14,85,-53,-31,29,-141,-146,-92,-97,-78
-92,-73,19,82,-56,-26,29,-141,-146,-92,-97,-82
-92,-63,29,78,-61,-17,29,-141,-146,-97,-97,-82
-92,-58,34,75,-63,-12,29,-141,-146,-97,-97,-82
-82,-68,14,75,-48,-26,29,-141,-156,-107,-107,-82
-82,-68,14,75,-48,-26,29,-141,-156,-107,-107,-87
-82,-68,14,75,-48,-26,29,-141,-156,-107,-107,-87
-82,-78,4,80,-43,-36,34,-136,-156,-107,-107,-82
-82,-78,4,80,-43,-36,34,-136,-141,-102,-97,-82
-82,-73,9,78,-46,-31,34,-136,-141,-102,-97,-82
-82,-73,9,78,-46,-31,34,-136,-141,-102,-97,-78
-82,-82,0,82,-41,-41,34,-136,-136,-102,-97,-78
-82,-73,9,78,-46,-31,34,-146,-146,-92,-97,-78
-82,-73,9,78,-46,-31,34,-146,-146,-97,-97,-78
-82,-63,19,73,-51,-21,34,-146,-146,-97,-97,-87
-82,-53,29,68,-56,-12,34,-146,-151,-97,-97,-87
-82,-53,29,68,-56,-12,24,-136,-141,-107,-97,-87
-82,-63,19,73,-51,-21,34,-136,-141,-107,-97,-87
-82,-68,14,75,-48,-26,34,-131,-136,-107,-97,-87
-82,-68,14,75,-48,-26,34,-131,-136,-107,-97,-87
-82,-58,24,70,-53,-17,43,-122,-126,-97,-87,-78
-82,-58,24,70,-53,-17,43,-122,-126,-92,-82,-73
-82,-53,29,68,-56,-12,43,-122,-122,-87,-82,-68
-82,-43,39,63,-61,-2,43,-122,-122,-82,-82,-63
-78,-24,53,51,-65,14,43,-112,-122,-73,-73,-63
-73,-19,53,46,-63,17,43,-112,-122,-68,-73,-63
-63,-14,48,39,-56,17,43,-112,-122,-68,-73,-58
-58,-14,43,36,-51,14,43,-112,-122,-68,-68,-58
-58,-4,53,31,-56,24,43,-112,-107,-63,-78,-53
-58,-4,53,31,-56,24,48,-107,-107,-63,-73,-48
-53,4,58,24,-56,31,48,-107,-107,-63,-73,-48
-53,4,58,24,-56,31,48,-102,-102,-58,-73,-43
-53,14,68,19,-61,41,48,-92,-102,-58,-68,-53
-39,9,48,14,-43,29,48,-87,-97,-58,-58,-48
-39,4,43,17,-41,24,58,-82,-87,-43,-43,-34
-39,0,39,19,-39,19,58,-78,-78,-39,-39,-29
-39,-4,34,21,-36,14,58,-73,-68,-34,-34,-24
-39,-9,29,24,-34,9,58,-68,-58,-29,-29,-19
-34,24,58,4,-46,41,48,-68,-53,-9,-14,-14
-34,53,87,-9,-61,70,39,-68,-53,-4,-4,-4
-29,73,102,-21,-65,87,19,-78,-58,-4,-4,0
-29,92,122,-31,-75,107,4,-92,-73,-4,-4,4
-19,102,122,-41,-70,112,-19,-122,-73,-19,-9,4
-14,107,122,-46,-68,114,-34,-131,-78,-19,-9,4
-14,97,112,-41,-63,104,-39,-136,-92,-29,-9,4
-4,102,107,-48,-56,104,-48,-146,-92,-29,-4,9
-14,78,92,-31,-53,85,-48,-136,-87,-29,-4,19
-14,73,87,-29,-51,80,-53,-136,-92,-29,-4,19
-9,68,78,-29,-43,73,-53,-136,-92,-29,-4,19
0,58,58,-29,-29,58,-48,-136,-87,-29,0,24
9,68,58,-39,-24,63,-53,-136,-82,-19,9,24
14,68,53,-41,-19,61,-58,-131,-82,-14,9,29
19,63,43,-41,-12,53,-63,-131,-82,-14,9,29
24,63,39,-43,-7,51,-68,-131,-92,-14,9,29
29,48,19,-39,4,34,-68,-136,-112,-29,-4,19
29,48,19,-39,4,34,-73,-146,-122,-39,-9,14
29,34,4,-31,12,19,-68,-161,-131,-48,-24,14
29,24,-4,-26,17,9,-58,-161,-141,-58,-24,14
19,24,4,-21,7,14,-63,-175,-151,-63,-34,4
9,24,14,-17,-2,19,-68,-190,-165,-73,-43,0
0,29,29,-14,-14,29,-73,-204,-170,-82,-53,-4
-4,39,43,-17,-24,41,-78,-209,-180,-92,-58,-4
-4,39,43,-17,-24,41,-73,-214,-175,-82,-53,-4
-14,29,43,-7,-29,36,-73,-219,-180,-87,-53,-4
-24,19,43,2,-34,31,-58,-219,-185,-92,-58,-4
-34,14,48,9,-41,31,-53,-219,-190,-97,-68,-9
-34,0,34,17,-34,17,-48,-219,-190,-102,-63,-4
-43,-9,34,26,-39,12,-39,-214,-190,-107,-68,-14
-53,-24,29,39,-41,2,-29,-214,-195,-112,-78,-29
-58,-43,14,51,-36,-14,-19,-214,-200,-117,-87,-39
-78,-73,4,75,-41,-34,-4,-214,-195,-112,-87,-58
-97,-87,9,92,-53,-39,4,-214,-200,-126,-102,-68
-107,-97,9,102,-58,-43,9,-214,-204,-136,-112,-78
-122,-102,19,112,-70,-41,9,-219,-219,-146,-122,-87
-112,-92,19,102,-65,-36,4,-224,-219,-156,-126,-97
-112,-107,4,109,-58,-51,4,-224,-219,-156,-136,-102
-117,-117,0,117,-58,-58,9,-224,-224,-161,-136,-102
-117,-126,-9,122,-53,-68,9,-224,-224,-161,-136,-107
-126,-126,0,126,-63,-63,24,-214,-224,-165,-156,-112
-131,-126,4,129,-68,-61,24,-214,-224,-170,-156,-117
-131,-126,4,129,-68,-61,24,-214,-224,-170,-161,-122
-131,-126,4,129,-68,-61,29,-214,-229,-170,-161,-126
-126,-122,4,124,-65,-58,19,-224,-239,-180,-175,-141
-126,-122,4,124,-65,-58,19,-224,-239,-180,-175,-141
-126,-122,4,124,-65,-58,19,-224,-239,-180,-170,-136
-126,-122,4,124,-65,-58,19,-224,-239,-180,-170,-136
-126,-131,-4,129,-61,-68,19,-224,-248,-180,-161,-136
-126,-131,-4,129,-61,-68,19,-224,-248,-180,-161,-136
-126,-136,-9,131,-58,-73,24,-224,-253,-180,-161,-141
-126,-136,-9,131,-58,-73,24,-224,-253,-180,-165,-141
-136,-136,0,136,-68,-68,34,-214,-244,-185,-165,-141
-136,-131,4,134,-70,-63,34,-214,-244,-185,-170,-146
-136,-131,4,134,-70,-63,34,-214,-244,-185,-170,-146
-136,-131,4,134,-70,-63,34,-214,-244,-190,-170,-146
-136,-131,4,134,-70,-63,24,-224,-248,-190,-170,-136
-136,-136,0,136,-68,-68,24,-224,-248,-190,-170,-136
-136,-136,0,136,-68,-68,24,-224,-248,-190,-170,-131
-136,-136,0,136,-68,-68,24,-224,-248,-190,-170,-131
-146,-136,9,141,-78,-63,34,-214,-244,-190,-175,-146
-146,-136,9,141,-78,-63,34,-214,-244,-190,-175,-146
-146,-136,9,141,-78,-63,34,-214,-248,-190,-170,-146
-146,-141,4,143,-75,-68,34,-214,-248,-190,-170,-146
-136,-131,4,134,-70,-63,24,-224,-258,-200,-180,-156
-136,-131,4,134,-70,-63,24,-224,-258,-200,-180,-156
-136,-131,4,134,-70,-63,24,-224,-258,-200,-180,-156
-136,-131,4,134,-70,-63,29,-224,-258,-200,-180,-156
-141,-126,14,134,-78,-56,29,-224,-258,-190,-180,-156
-141,-126,14,134,-78,-56,29,-224,-258,-190,-180,-156
-141,-126,14,134,-78,-56,29,-224,-258,-195,-185,-156
-141,-126,14,134,-78,-56,29,-224,-258,-195,-185,-156
-141,-136,4,139,-73,-65,34,-219,-248,-180,-170,-151
-141,-146,-4,143,-68,-75,34,-214,-248,-180,-170,-146
-141,-156,-14,148,-63,-85,39,-209,-244,-180,-170,-141
-141,-170,-29,156,-56,-100,43,-204,-244,-180,-170,-136
-131,-161,-29,146,-51,-95,43,-214,-244,-190,-165,-136
-131,-141,-9,136,-61,-75,39,-219,-248,-185,-165,-141
-131,-131,0,131,-65,-65,39,-209,-239,-180,-165,-141
-131,-126,4,129,-68,-61,29,-204,-239,-170,-165,-131
-131,-117,14,124,-73,-51,14,-204,-224,-165,-161,-136
-117,-122,-4,119,-56,-63,4,-185,-204,-156,-141,-122
-102,-126,-24,114,-39,-75,-9,-165,-175,-136,-122,-112
-92,-122,-29,107,-31,-75,-9,-126,-146,-122,-117,-112
-92,-102,-9,97,-41,-56,9,-87,-107,-107,-117,-107
-92,-107,-14,100,-39,-61,43,-63,-82,-107,-126,-112
-102,-107,-4,104,-48,-56,43,-63,-82,-117,-136,-122
-107,-107,0,107,-53,-53,58,-58,-58,-92,-126,-122
-131,-87,43,109,-87,-21,68,-117,-63,-48,-97,-112
-175,-48,126,112,-151,39,53,-283,-122,-29,-68,-97
-204,-19,185,112,-195,82,4,-473,-209,-9,-14,-68
-190,-19,170,104,-180,75,-63,-600,-229,53,73,9
-161,4,165,78,-163,85,-165,-727,-268,117,180,107
-126,73,200,26,-163,136,-312,-941,-375,161,273,209
-73,126,200,-26,-136,163,-463,-1137,-478,229,400,336
24,156,131,-90,-53,143,-590,-1259,-522,317,570,502
131,200,68,-165,31,134,-717,-1381,-590,419,746,668
258,292,34,-275,112,163,-873,-1527,-658,517,932,839
395,409,14,-402,190,212,-1068,-1678,-727,639,1156,1044
536,561,24,-549,256,292,-1278,-1815,-795,736,1361,1239
673,688,14,-680,329,351,-1459,-1888,-839,800,1537,1420
824,780,-43,-802,434,368,-1615,-1908,-854,849,1678,1595
966,849,-117,-907,541,366,-1771,-1932,-854,858,1776,1727
1054,907,-146,-980,600,380,-1888,-1961,-878,814,1766,1786
1102,966,-136,-1034,619,414,-1932,-1971,-917,683,1629,1751
1102,966,-136,-1034,619,414,-1942,-1976,-1010,439,1366,1605
1068,897,-170,-983,619,363,-1917,-2010,-1180,82,985,1366
971,795,-175,-883,573,309,-1839,-2054,-1371,-287,570,1083
829,663,-165,-746,497,248,-1712,-2088,-1522,-605,200,829
658,497,-161,-578,409,168,-1542,-2078,-1649,-858,-97,585
478,312,-165,-395,322,73,-1366,-2069,-1786,-1098,-375,385
273,214,-58,-244,165,78,-1195,-2103,-1927,-1263,-580,224
87,204,117,-146,-14,161,-1039,-2152,-2025,-1332,-668,156
-43,248,292,-102,-168,270,-907,-2108,-2030,-1302,-663,141
-117,268,385,-75,-251,326,-790,-1947,-1878,-1195,-600,141
-165,292,458,-63,-312,375,-668,-1678,-1586,-990,-458,170
-224,326,551,-51,-387,439,-527,-1415,-1298,-785,-341,180
-268,356,624,-43,-446,490,-409,-1210,-1093,-649,-283,156
-283,346,629,-31,-456,488,-356,-1054,-936,-561,-248,126
-292,336,629,-21,-461,483,-326,-917,-810,-473,-214,107
-292,312,605,-9,-448,458,-273,-805,-697,-419,-209,53
-278,278,556,0,-417,417,-229,-697,-614,-380,-204,9
-244,229,473,7,-358,351,-175,-614,-536,-351,-195,-24
-224,170,395,26,-309,283,-131,-517,-478,-331,-204,-53
-200,122,322,39,-261,222,-82,-434,-424,-322,-219,-97
-185,92,278,46,-231,185,-43,-356,-370,-317,-229,-136
-180,34,214,73,-197,124,0,-268,-317,-292,-224,-141
-170,-14,156,92,-163,70,29,-195,-248,-248,-214,-131
-151,-43,107,97,-129,31,43,-146,-195,-214,-185,-131
-141,-48,92,95,-117,21,53,-102,-156,-190,-180,-131
-126,-78,48,102,-87,-14,73,-53,-122,-156,-165,-136
-107,-126,-19,117,-43,-73,97,0,-78,-141,-161,-141
-97,-146,-48,122,-24,-97,112,39,-58,-136,-151,-141
-92,-141,-48,117,-21,-95,122,53,-58,-146,-161,-156
-92,-136,-43,114,-24,-90,122,58,-53,-141,-161,-156
