I,II,III,aVR,aVL,aVF,V1,V2,V3,V4,V5,V6,
48,48,0,-48,24,24,-9,117,68,58,58,78
39,43,4,-41,17,24,-4,112,78,68,68,78
29,39,9,-34,9,24,0,107,87,78,78,78
29,29,0,-29,14,14,0,102,87,78,78,73
29,19,-9,-24,19,4,0,97,87,78,78,68
19,9,-9,-14,14,0,4,87,87,78,73,63
9,0,-9,-4,9,-4,9,78,87,78,68,58
4,-4,-9,0,7,-7,9,73,82,78,68,53
0,-9,-9,4,4,-9,9,68,78,78,68,48
-4,-14,-9,9,2,-12,9,63,78,78,63,43
-9,-19,-9,14,0,-14,9,58,78,78,58,39
-9,-19,-9,14,0,-14,9,58,73,73,58,34
-9,-19,-9,14,0,-14,9,58,68,68,58,29
-9,-24,-14,17,2,-19,9,58,63,63,53,29
-9,-29,-19,19,4,-24,9,58,58,58,48,29
-9,-29,-19,19,4,-24,9,53,58,58,43,24
-9,-29,-19,19,4,-24,9,48,58,58,39,19
-9,-29,-19,19,4,-24,9,48,53,58,39,19
-9,-29,-19,19,4,-24,9,48,48,58,39,19
-9,-34,-24,21,7,-29,9,43,43,53,39,14
-9,-39,-29,24,9,-34,9,39,39,48,39,9
-9,-39,-29,24,9,-34,9,39,39,43,34,9
-9,-39,-29,24,9,-34,9,39,39,39,29,9
-9,-39,-29,24,9,-34,4,39,34,39,29,9
-9,-39,-29,24,9,-34,0,39,29,39,29,9
-9,-39,-29,24,9,-34,0,34,29,39,29,9
-9,-39,-29,24,9,-34,0,29,29,39,29,9
-4,-39,-34,21,14,-36,0,29,29,39,29,9
0,-39,-39,19,19,-39,0,29,29,39,29,9
0,-39,-39,19,19,-39,-4,29,29,39,29,14
0,-39,-39,19,19,-39,-9,29,29,39,29,19
-4,-34,-29,19,12,-31,-9,29,29,43,29,19
-9,-29,-19,19,4,-24,-9,29,29,48,29,19
-9,-29,-19,19,4,-24,-9,24,29,48,34,19
-9,-29,-19,19,4,-24,-9,19,29,48,39,19
-9,-29,-19,19,4,-24,-9,19,29,48,39,19
-9,-29,-19,19,4,-24,-9,19,29,48,39,19
-9,-29,-19,19,4,-24,-9,19,34,48,39,19
-9,-29,-19,19,4,-24,-9,19,39,48,39,19
-9,-29,-19,19,4,-24,-9,19,39,53,39,19
-9,-29,-19,19,4,-24,-9,19,39,58,39,19
-9,-29,-19,19,4,-24,-9,19,43,58,43,24
-9,-29,-19,19,4,-24,-9,19,48,58,48,29
-9,-29,-19,19,4,-24,-9,19,48,63,48,29
-9,-29,-19,19,4,-24,-9,19,48,68,48,29
-14,-29,-14,21,0,-21,-9,19,53,68,48,24
-19,-29,-9,24,-4,-19,-9,19,58,68,48,19
-19,-29,-9,24,-4,-19,-9,9,58,68,48,19
-19,-29,-9,24,-4,-19,-9,0,58,68,48,19
-14,-29,-14,21,0,-21,-9,0,58,73,48,19
-9,-29,-19,19,4,-24,-9,0,58,78,48,19
-9,-29,-19,19,4,-24,-9,0,58,78,48,19
-9,-29,-19,19,4,-24,-9,0,58,78,48,19
-14,-29,-14,21,0,-21,-9,0,58,73,48,19
-19,-29,-9,24,-4,-19,-9,0,58,68,48,19
-24,-29,-4,26,-9,-17,-9,-4,58,68,43,19
-29,-29,0,29,-14,-14,-9,-9,58,68,39,19
-29,-24,4,26,-17,-9,-9,-14,58,68,39,19
-29,-19,9,24,-19,-4,-9,-19,58,68,39,19
-29,-19,9,24,-19,-4,-4,-19,58,68,39,19
-29,-19,9,24,-19,-4,0,-19,58,68,39,19
-29,-19,9,24,-19,-4,0,-14,58,68,39,19
-29,-9,19,19,-24,4,0,-9,63,73,43,19
-34,0,34,17,-34,17,4,-9,73,78,48,24
-34,19,53,7,-43,36,9,4,92,87,58,29
-24,39,63,-7,-43,51,19,9,102,102,73,34
-19,43,63,-12,-41,53,19,9,102,107,73,39
-9,48,58,-19,-34,53,19,19,107,107,73,43
-4,53,58,-24,-31,56,14,24,112,112,78,48
-4,63,68,-29,-36,65,14,24,112,117,78,48
-4,73,78,-34,-41,75,14,24,112,117,78,48
0,73,73,-36,-36,73,-4,4,107,112,78,48
0,68,68,-34,-34,68,-24,-9,97,102,73,48
4,63,58,-34,-26,61,-34,-24,87,97,73,48
9,63,53,-36,-21,58,-39,-24,87,97,68,48
24,58,34,-41,-4,46,-48,-24,82,87,68,48
34,58,24,-46,4,41,-58,-19,78,87,68,58
43,63,19,-53,12,41,-63,-19,78,87,73,63
53,87,34,-70,9,61,-63,-9,82,97,87,78
58,102,43,-80,7,73,-58,-9,87,107,102,97
63,102,39,-82,12,70,-39,-14,92,107,107,97
48,102,53,-75,-2,78,-19,-14,92,107,107,97
29,73,43,-51,-7,58,-14,-19,68,78,78,58
4,43,39,-24,-17,41,-4,-43,34,48,48,34
-9,34,43,-12,-26,39,0,-48,24,39,43,24
-14,9,24,2,-19,17,0,-48,14,24,24,4
-14,0,14,7,-14,7,4,-48,9,14,14,0
-14,-9,4,12,-9,-2,4,-48,9,14,4,-9
-24,-14,9,19,-17,-2,9,-48,0,9,4,-9
-24,-19,4,21,-14,-7,14,-48,0,4,4,-9
-29,-29,0,29,-14,-14,14,-53,-9,-4,-9,-24
-24,-29,-4,26,-9,-17,14,-53,-19,-14,-19,-29
-24,-39,-14,31,-4,-26,14,-58,-19,-14,-19,-34
-24,-39,-14,31,-4,-26,9,-58,-19,-14,-19,-34
-24,-39,-14,31,-4,-26,9,-53,-14,-14,-19,-34
-24,-43,-19,34,-2,-31,9,-53,-14,-14,-24,-34
-24,-48,-24,36,0,-36,9,-53,-14,-14,-29,-34
-29,-48,-19,39,-4,-34,14,-53,-14,-19,-39,-43
-34,-19,14,26,-24,-2,19,-48,4,9,-24,-34
-34,34,68,0,-51,51,34,-9,78,82,53,14
-34,97,131,-31,-82,114,39,29,161,190,175,112
-24,161,185,-68,-104,173,39,48,234,317,322,244
-4,253,258,-124,-131,256,24,87,331,463,478,380
58,380,322,-219,-131,351,9,195,507,668,722,600
146,473,326,-309,-90,400,-14,258,600,814,966,878
263,541,278,-402,-7,409,-29,331,658,936,1195,1176
346,468,122,-407,112,295,-29,326,653,922,1151,1171
336,287,-48,-312,192,119,-29,87,541,746,800,790
195,151,-43,-173,119,53,-58,-385,92,263,307,346
29,-102,-131,36,80,-117,-97,-819,-722,-561,-400,-195
-107,-361,-253,234,73,-307,-136,-1127,-1298,-1156,-922,-605
-112,-697,-585,405,236,-641,-151,-1137,-1537,-1473,-1244,-902
-78,-844,-766,461,344,-805,-180,-995,-1464,-1434,-1234,-932
-43,-771,-727,407,341,-749,-190,-756,-1215,-1176,-1024,-790
-14,-653,-639,334,312,-646,-170,-512,-951,-917,-810,-634
9,-512,-522,251,265,-517,-73,-283,-663,-668,-614,-507
24,-370,-395,173,209,-383,-9,-112,-429,-453,-434,-370
34,-278,-312,122,173,-295,9,-9,-273,-297,-302,-283
39,-200,-239,80,139,-219,9,39,-151,-180,-209,-200
34,-122,-156,43,95,-139,9,39,-92,-117,-146,-146
24,-87,-112,31,68,-100,9,19,-73,-97,-117,-122
4,-82,-87,39,46,-85,14,9,-63,-87,-107,-117
-4,-78,-73,41,34,-75,14,9,-53,-78,-97,-102
-4,-63,-58,34,26,-61,19,9,-43,-63,-82,-87
-4,-43,-39,24,17,-41,24,0,-34,-48,-78,-73
-4,-39,-34,21,14,-36,24,0,-29,-43,-68,-68
-9,-39,-29,24,9,-34,24,-4,-24,-43,-68,-68
-9,-29,-19,19,4,-24,19,-4,-24,-43,-63,-68
-9,-24,-14,17,2,-19,19,-9,-19,-43,-63,-68
-9,-14,-4,12,-2,-9,19,-19,-19,-39,-63,-68
-9,-9,0,9,-4,-4,24,-24,-19,-39,-58,-68
-9,-9,0,9,-4,-4,24,-24,-19,-39,-53,-68
-9,-9,0,9,-4,-4,24,-24,-19,-39,-53,-68
-9,-9,0,9,-4,-4,24,-24,-14,-39,-53,-68
-9,-9,0,9,-4,-4,24,-19,-9,-39,-53,-68
-9,-9,0,9,-4,-4,24,-19,-9,-34,-53,-68
-9,-9,0,9,-4,-4,29,-19,-9,-34,-53,-68
-4,-9,-4,7,0,-7,29,-19,-14,-34,-53,-73
-4,-9,-4,7,0,-7,29,-14,-14,-34,-53,-73
-4,-9,-4,7,0,-7,29,-14,-9,-34,-58,-73
-4,-9,-4,7,0,-7,29,-9,-9,-34,-58,-73
-9,-14,-4,12,-2,-9,29,-4,-9,-34,-63,-73
-14,-19,-4,17,-4,-12,29,-4,-9,-34,-63,-73
-9,-19,-9,14,0,-14,24,-4,-9,-34,-63,-78
-9,-24,-14,17,2,-19,19,-4,-9,-39,-68,-78
-4,-24,-19,14,7,-21,19,0,-9,-39,-68,-82
4,-29,-34,12,19,-31,19,0,-14,-39,-68,-82
4,-29,-34,12,19,-31,19,0,-14,-43,-68,-82
4,-29,-34,12,19,-31,19,0,-19,-48,-78,-82
4,-29,-34,12,19,-31,19,0,-19,-43,-78,-87
9,-29,-39,9,24,-34,14,0,-19,-43,-82,-87
9,-29,-39,9,24,-34,14,4,-19,-48,-82,-87
9,-34,-43,12,26,-39,14,4,-24,-53,-87,-97
9,-39,-48,14,29,-43,14,9,-34,-63,-92,-97
4,-43,-48,19,26,-46,14,9,-39,-68,-92,-102
4,-43,-48,19,26,-46,14,9,-53,-78,-102,-107
14,-43,-58,14,36,-51,9,9,-58,-87,-112,-107
19,-39,-58,9,39,-48,9,9,-63,-92,-117,-107
24,-39,-63,7,43,-51,0,14,-68,-102,-126,-112
29,-39,-68,4,48,-53,-9,14,-78,-107,-136,-122
34,-34,-68,0,51,-51,-14,14,-87,-122,-146,-126
34,-34,-68,0,51,-51,-14,14,-92,-131,-151,-126
39,-24,-63,-7,51,-43,-29,4,-97,-136,-151,-126
43,-14,-58,-14,51,-36,-34,4,-107,-141,-156,-122
48,-4,-53,-21,51,-29,-43,4,-112,-146,-161,-117
48,0,-48,-24,48,-24,-43,4,-112,-151,-161,-112
58,4,-53,-31,56,-24,-48,4,-112,-151,-161,-102
63,14,-48,-39,56,-17,-58,4,-112,-151,-156,-102
73,24,-48,-48,61,-12,-58,4,-107,-151,-156,-97
82,34,-48,-58,65,-7,-63,4,-102,-136,-141,-82
92,43,-48,-68,70,-2,-63,19,-87,-126,-122,-63
92,53,-39,-73,65,7,-68,24,-82,-102,-102,-39
102,68,-34,-85,68,17,-73,29,-63,-82,-78,-14
97,82,-14,-90,56,34,-73,34,-43,-53,-48,4
97,87,-9,-92,53,39,-73,43,-24,-24,-24,29
107,102,-4,-104,56,48,-73,48,0,0,0,48
107,107,0,-107,53,53,-68,63,19,24,19,63
107,107,0,-107,53,53,-68,68,39,39,43,73
107,112,4,-109,51,58,-68,78,63,53,58,82
102,112,9,-107,46,61,-63,87,73,68,68,87
97,112,14,-104,41,63,-53,87,87,82,78,87
87,107,19,-97,34,63,-48,87,97,92,87,92
78,97,19,-87,29,58,-48,87,97,102,97,92
78,102,24,-90,26,63,-48,78,97,102,97,92
68,97,29,-82,19,63,-43,73,97,107,97,82
68,87,19,-78,24,53,-39,68,102,107,97,78
58,87,29,-73,14,58,-34,63,102,107,97,68
58,73,14,-65,21,43,-34,58,102,107,97,58
58,68,9,-63,24,39,-34,58,102,107,92,58
53,68,14,-61,19,41,-34,58,102,107,87,58
48,63,14,-56,17,39,-34,53,97,102,82,53
43,53,9,-48,17,31,-34,48,97,102,82,43
39,48,9,-43,14,29,-29,43,92,97,78,39
39,48,9,-43,14,29,-24,39,82,97,73,39
39,39,0,-39,19,19,-24,39,78,92,73,34
34,34,0,-34,17,17,-24,34,78,87,68,34
34,29,-4,-31,19,12,-24,34,73,78,63,24
29,19,-9,-24,19,4,-24,29,63,73,53,19
24,14,-9,-19,17,2,-24,24,58,73,48,14
24,9,-14,-17,19,-2,-29,24,48,68,48,14
24,9,-14,-17,19,-2,-34,24,48,68,43,9
29,9,-19,-19,24,-4,-34,24,43,63,39,9
29,9,-19,-19,24,-4,-34,24,34,53,39,4
29,4,-24,-17,26,-9,-34,19,34,48,34,4
29,4,-24,-17,26,-9,-34,19,34,43,34,4
29,0,-29,-14,29,-14,-34,19,24,43,34,0
29,0,-29,-14,29,-14,-34,19,24,39,24,0
34,0,-34,-17,34,-17,-34,9,19,39,19,0
39,0,-39,-19,39,-19,-34,4,9,39,19,0
39,-4,-43,-17,41,-24,-34,9,9,39,19,0
39,-4,-43,-17,41,-24,-34,9,4,34,19,4
39,-4,-43,-17,41,-24,-34,9,0,29,19,4
43,-4,-48,-19,46,-26,-34,4,0,29,19,4
43,-4,-48,-19,46,-26,-39,0,0,29,19,0
43,-4,-48,-19,46,-26,-39,-4,0,29,19,0
39,-4,-43,-17,41,-24,-39,-4,4,24,14,-4
39,-4,-43,-17,41,-24,-39,-4,0,24,19,-4
39,-9,-48,-14,43,-29,-39,-4,0,29,19,-4
39,-9,-48,-14,43,-29,-39,-4,0,29,19,-4
39,-9,-48,-14,43,-29,-39,-4,4,29,19,0
39,-9,-48,-14,43,-29,-39,-4,9,29,19,4
39,-9,-48,-14,43,-29,-39,-4,9,29,19,4
39,-9,-48,-14,43,-29,-39,-4,14,29,19,4
39,-9,-48,-14,43,-29,-34,-9,14,34,19,4
39,-9,-48,-14,43,-29,-29,-14,14,39,19,4
39,-9,-48,-14,43,-29,-29,-14,14,39,19,0
39,-9,-48,-14,43,-29,-29,-14,24,39,19,0
39,-9,-48,-14,43,-29,-34,-14,24,39,19,-4
39,-9,-48,-14,43,-29,-39,-19,24,39,19,-4
29,-9,-39,-9,34,-24,-39,-19,24,39,19,-4
29,-9,-39,-9,34,-24,-39,-19,24,39,24,-4
34,-9,-43,-12,39,-26,-39,-24,24,43,24,-4
29,-9,-39,-9,34,-24,-39,-24,24,43,24,0
24,-4,-29,-9,26,-17,-34,-24,24,43,24,0
24,-4,-29,-9,26,-17,-34,-29,29,48,24,0
19,0,-19,-9,19,-9,-29,-29,29,48,19,0
19,0,-19,-9,19,-9,-29,-29,29,48,19,0
19,0,-19,-9,19,-9,-29,-29,29,48,19,0
19,0,-19,-9,19,-9,-29,-29,29,48,19,0
19,0,-19,-9,19,-9,-29,-29,29,53,19,0
19,9,-9,-14,14,0,-24,-24,34,58,24,4
19,19,0,-19,9,9,-24,-24,39,68,29,9
24,39,14,-31,4,26,-19,-4,53,78,39,19
29,53,24,-41,2,39,-9,0,63,87,53,24
29,53,24,-41,2,39,-9,0,63,87,53,29
34,58,24,-46,4,41,-4,4,68,82,53,29
34,63,29,-48,2,46,-4,4,73,82,58,29
34,73,39,-53,-2,56,-9,4,73,87,58,29
34,82,48,-58,-7,65,-14,4,73,87,58,29
43,82,39,-63,2,61,-34,-9,68,82,58,29
48,78,29,-63,9,53,-53,-19,58,73,53,29
53,73,19,-63,17,46,-58,-34,48,68,53,29
58,73,14,-65,21,43,-58,-34,48,68,48,29
73,63,-9,-68,41,26,-68,-39,43,63,48,29
82,58,-24,-70,53,17,-78,-39,39,68,48,39
92,58,-34,-75,63,12,-87,-43,39,68,53,43
102,78,-24,-90,63,26,-92,-39,43,78,68,58
102,97,-4,-100,53,46,-87,-34,43,87,78,78
102,102,0,-102,51,51,-68,-34,43,87,78,78
87,102,14,-95,36,58,-43,-34,43,87,78,78
68,73,4,-70,31,39,-34,-39,19,58,48,39
39,43,4,-41,17,24,-24,-63,-9,24,14,14
19,34,14,-26,2,24,-19,-68,-14,9,4,4
14,9,-4,-12,9,2,-24,-73,-29,-9,-14,-19
14,0,-14,-7,14,-7,-24,-78,-39,-24,-24,-29
14,-9,-24,-2,19,-17,-24,-78,-39,-24,-34,-39
4,-14,-19,4,12,-17,-19,-78,-48,-29,-34,-39
4,-24,-29,9,17,-26,-9,-78,-48,-34,-34,-34
0,-39,-39,19,19,-39,-4,-82,-58,-43,-48,-43
0,-39,-39,19,19,-39,-4,-82,-73,-53,-58,-48
-4,-48,-43,26,19,-46,-4,-87,-78,-53,-58,-53
-4,-48,-43,26,19,-46,-9,-87,-78,-53,-58,-53
-4,-48,-43,26,19,-46,-9,-82,-73,-53,-58,-53
-4,-53,-48,29,21,-51,-9,-82,-73,-53,-58,-53
-4,-58,-53,31,24,-56,-9,-82,-73,-53,-58,-53
-9,-53,-43,31,17,-48,-4,-82,-68,-58,-63,-63
-14,-19,-4,17,-4,-12,0,-78,-43,-29,-43,-53
-14,29,43,-7,-29,36,14,-39,29,48,34,-4
-14,87,102,-36,-58,95,19,0,112,161,156,92
-4,151,156,-73,-80,153,19,19,175,287,302,234
14,244,229,-129,-107,236,4,58,263,434,458,380
78,370,292,-224,-107,331,-9,165,444,629,692,590
165,463,297,-314,-65,380,-34,229,541,766,927,858
287,527,239,-407,24,383,-48,292,590,873,1132,1132
375,448,73,-412,151,261,-48,278,575,844,1063,1102
356,273,-82,-314,219,95,-48,19,463,663,712,717
204,141,-63,-173,134,39,-78,-473,14,175,219,268
34,-112,-146,39,90,-129,-112,-897,-780,-614,-458,-239
-107,-370,-263,239,78,-317,-146,-1195,-1337,-1176,-951,-614
-117,-702,-585,409,234,-644,-170,-1200,-1576,-1483,-1263,-917
-87,-844,-756,466,334,-800,-209,-1054,-1503,-1434,-1244,-951
-43,-775,-732,409,344,-753,-209,-810,-1244,-1176,-1034,-810
-4,-663,-658,334,326,-661,-180,-561,-971,-917,-819,-653
24,-522,-546,248,285,-534,-92,-331,-692,-673,-629,-522
43,-380,-424,168,234,-402,-39,-161,-468,-463,-453,-380
48,-287,-336,119,192,-312,-14,-58,-317,-317,-317,-287
48,-209,-258,80,153,-234,-9,-9,-200,-209,-219,-200
43,-131,-175,43,109,-153,-9,-4,-136,-141,-161,-151
34,-97,-131,31,82,-114,-9,-19,-112,-117,-136,-131
19,-92,-112,36,65,-102,-9,-34,-102,-107,-122,-122
14,-87,-102,36,58,-95,-14,-39,-92,-97,-107,-102
14,-73,-87,29,51,-80,-14,-39,-82,-87,-92,-92
14,-53,-68,19,41,-61,-14,-48,-73,-78,-87,-82
14,-48,-63,17,39,-56,-14,-48,-68,-73,-78,-78
9,-48,-58,19,34,-53,-14,-53,-63,-73,-78,-78
9,-43,-53,17,31,-48,-14,-48,-63,-63,-73,-73
9,-43,-53,17,31,-48,-9,-48,-58,-53,-73,-68
9,-39,-48,14,29,-43,-9,-53,-58,-48,-73,-63
9,-39,-48,14,29,-43,-4,-53,-58,-48,-68,-58
9,-39,-48,14,29,-43,-4,-53,-58,-48,-58,-58
9,-39,-48,14,29,-43,-4,-53,-58,-48,-53,-58
9,-34,-43,12,26,-39,-4,-53,-53,-48,-53,-58
9,-29,-39,9,24,-34,-4,-48,-48,-48,-53,-58
9,-29,-39,9,24,-34,-4,-48,-48,-43,-53,-58
9,-29,-39,9,24,-34,0,-48,-48,-43,-53,-58
14,-34,-48,9,31,-41,0,-48,-48,-43,-53,-63
14,-39,-53,12,34,-46,0,-43,-43,-43,-53,-63
14,-39,-53,12,34,-46,0,-43,-39,-43,-58,-68
14,-39,-53,12,34,-46,0,-39,-39,-43,-58,-73
14,-39,-53,12,34,-46,0,-39,-39,-48,-68,-73
14,-39,-53,12,34,-46,0,-43,-39,-53,-73,-73
19,-39,-58,9,39,-48,0,-43,-43,-53,-73,-78
19,-43,-63,12,41,-53,0,-43,-48,-58,-78,-78
19,-43,-63,12,41,-53,-4,-34,-48,-63,-78,-82
24,-48,-73,12,48,-61,-9,-29,-53,-68,-78,-82
24,-48,-73,12,48,-61,-9,-29,-53,-73,-78,-82
24,-48,-73,12,48,-61,-9,-29,-58,-78,-87,-82
24,-48,-73,12,48,-61,-9,-34,-63,-78,-87,-87
29,-48,-78,9,53,-63,-14,-39,-68,-82,-92,-87
29,-48,-78,9,53,-63,-14,-34,-73,-92,-97,-92
29,-53,-82,12,56,-68,-14,-34,-82,-102,-107,-107
34,-58,-92,12,63,-75,-14,-29,-92,-112,-117,-107
34,-63,-97,14,65,-80,-14,-29,-97,-117,-122,-112
34,-63,-97,14,65,-80,-14,-29,-112,-126,-131,-117
43,-63,-107,9,75,-85,-19,-29,-117,-136,-141,-117
43,-63,-107,9,75,-85,-19,-34,-126,-141,-141,-117
43,-68,-112,12,78,-90,-29,-34,-136,-151,-146,-122
48,-68,-117,9,82,-92,-34,-34,-146,-156,-156,-131
53,-63,-117,4,85,-90,-34,-34,-156,-170,-165,-136
53,-73,-126,9,90,-100,-34,-34,-161,-185,-170,-136
58,-73,-131,7,95,-102,-48,-43,-165,-195,-170,-136
68,-63,-131,-2,100,-97,-53,-43,-175,-200,-175,-136
78,-53,-131,-12,104,-92,-63,-43,-180,-204,-180,-136
78,-48,-126,-14,102,-87,-63,-43,-180,-209,-180,-131
87,-43,-131,-21,109,-87,-68,-43,-180,-209,-180,-122
87,-34,-122,-26,104,-78,-82,-43,-180,-209,-175,-117
92,-24,-117,-34,104,-70,-87,-43,-175,-209,-175,-107
102,-14,-117,-43,109,-65,-92,-43,-170,-195,-161,-92
112,-4,-117,-53,114,-61,-92,-29,-156,-185,-141,-73
112,4,-107,-58,109,-51,-97,-24,-146,-161,-122,-53
122,19,-102,-70,112,-41,-102,-19,-122,-141,-97,-34
122,34,-87,-78,104,-26,-102,-4,-97,-112,-68,-14
126,39,-87,-82,107,-24,-102,14,-73,-82,-43,9
131,58,-73,-95,102,-7,-102,19,-48,-58,-19,29
126,68,-58,-97,92,4,-97,34,-29,-34,0,43
126,68,-58,-97,92,4,-97,34,-9,-9,24,48
126,73,-53,-100,90,9,-97,39,14,14,39,53
126,68,-58,-97,92,4,-97,48,24,29,48,58
126,63,-63,-95,95,0,-92,48,39,43,58,58
117,58,-58,-87,87,0,-82,48,48,53,68,68
107,48,-58,-78,82,-4,-78,48,48,63,78,73
102,48,-53,-75,78,-2,-78,39,53,63,78,73
87,39,-48,-63,68,-4,-73,34,58,68,78,63
87,29,-58,-58,73,-14,-68,29,63,68,68,53
78,29,-48,-53,63,-9,-63,24,63,68,58,39
78,19,-58,-48,68,-19,-63,14,63,68,58,29
78,19,-58,-48,68,-19,-63,9,63,68,53,29
73,19,-53,-46,63,-17,-63,9,63,68,53,29
68,14,-53,-41,61,-19,-63,4,58,63,53,24
63,0,-63,-31,63,-31,-63,0,58,63,53,14
58,-9,-68,-24,63,-39,-58,-4,53,58,48,9
58,-9,-68,-24,63,-39,-58,-9,43,58,43,14
58,-19,-78,-19,68,-48,-63,-9,39,53,43,14
53,-19,-73,-17,63,-46,-63,-14,39,48,39,14
53,-19,-73,-17,63,-46,-63,-14,34,39,34,4
53,-24,-78,-14,65,-51,-63,-14,29,34,24,0
53,-24,-78,-14,65,-51,-63,-14,29,34,19,-4
53,-29,-82,-12,68,-56,-68,-19,19,19,19,-9
53,-29,-82,-12,68,-56,-73,-24,19,9,14,-19
53,-29,-82,-12,68,-56,-73,-24,14,9,4,-24
48,-29,-78,-9,63,-53,-73,-24,4,4,0,-34
48,-34,-82,-7,65,-58,-73,-24,4,4,-4,-34
48,-34,-82,-7,65,-58,-73,-19,4,4,-4,-34
53,-43,-97,-4,75,-70,-73,-19,-4,4,0,-34
58,-48,-107,-4,82,-78,-73,-19,-4,0,-4,-29
58,-48,-107,-4,82,-78,-73,-24,-4,-4,-9,-29
58,-48,-107,-4,82,-78,-73,-24,-9,-9,-9,-29
58,-53,-112,-2,85,-82,-73,-24,-14,-9,-9,-34
58,-53,-112,-2,85,-82,-73,-29,-24,-14,-9,-34
58,-53,-112,-2,85,-82,-78,-29,-29,-19,-9,-34
63,-53,-117,-4,90,-85,-82,-34,-29,-19,-9,-34
63,-53,-117,-4,90,-85,-82,-34,-29,-14,-9,-39
63,-53,-117,-4,90,-85,-78,-34,-29,-9,-9,-39
58,-53,-112,-2,85,-82,-78,-34,-19,-14,-14,-39
58,-53,-112,-2,85,-82,-78,-34,-19,-14,-9,-34
58,-58,-117,0,87,-87,-78,-34,-19,-9,-9,-34
58,-58,-117,0,87,-87,-78,-34,-19,-9,-9,-34
58,-58,-117,0,87,-87,-78,-34,-19,-9,-9,-34
58,-58,-117,0,87,-87,-78,-34,-19,-9,-9,-34
58,-58,-117,0,87,-87,-73,-34,-19,-4,-9,-39
58,-58,-117,0,87,-87,-68,-34,-14,0,-9,-43
53,-63,-117,4,85,-90,-68,-34,-14,0,-9,-43
48,-68,-117,9,82,-92,-68,-34,-14,0,-9,-43
48,-68,-117,9,82,-92,-68,-34,-14,0,-9,-48
48,-68,-117,9,82,-92,-68,-34,-4,0,-9,-48
48,-68,-117,9,82,-92,-68,-34,-4,0,-14,-53
48,-68,-117,9,82,-92,-68,-39,-4,0,-19,-53
43,-68,-112,12,78,-90,-68,-39,-4,0,-19,-53
48,-68,-117,9,82,-92,-68,-43,-4,4,-14,-53
48,-58,-107,4,78,-82,-68,-43,0,0,-14,-48
53,-53,-107,0,80,-80,-68,-48,0,0,-19,-48
48,-48,-97,0,73,-73,-68,-53,0,0,-19,-53
48,-48,-97,0,73,-73,-68,-58,0,0,-19,-58
43,-48,-92,2,68,-70,-68,-58,0,-4,-24,-63
39,-48,-87,4,63,-68,-68,-58,0,-9,-29,-68
39,-48,-87,4,63,-68,-68,-53,4,-4,-29,-68
34,-39,-73,2,53,-56,-63,-48,14,4,-24,-58
34,-29,-63,-2,48,-46,-63,-48,24,14,-19,-53
34,-9,-43,-12,39,-26,-58,-34,43,29,-9,-39
39,4,-34,-21,36,-14,-48,-29,48,39,4,-34
39,4,-34,-21,36,-14,-48,-29,43,39,4,-29
39,9,-29,-24,34,-9,-48,-24,48,34,0,-29
34,14,-19,-24,26,-2,-53,-24,53,34,0,-29
34,24,-9,-29,21,7,-58,-24,53,39,0,-29
34,34,0,-34,17,17,-63,-24,53,39,0,-29
43,34,-9,-39,26,12,-82,-39,53,39,4,-29
48,29,-19,-39,34,4,-102,-48,48,34,4,-29
53,24,-29,-39,41,-2,-107,-58,43,29,9,-29
58,24,-34,-41,46,-4,-107,-53,48,29,9,-29
73,19,-53,-46,63,-17,-117,-53,43,24,14,-29
82,19,-63,-51,73,-21,-126,-48,39,29,19,-19
97,19,-78,-58,87,-29,-131,-48,39,29,24,-4
112,39,-73,-75,92,-17,-131,-39,43,39,39,19
112,53,-58,-82,85,-2,-126,-39,39,43,43,29
112,53,-58,-82,85,-2,-107,-43,34,39,39,19
97,53,-43,-75,70,4,-87,-43,34,39,39,19
78,24,-53,-51,65,-14,-82,-48,9,9,9,-19
48,-4,-53,-21,51,-29,-73,-73,-19,-19,-24,-43
29,-14,-43,-7,36,-29,-68,-78,-24,-29,-34,-53
24,-39,-63,7,43,-51,-68,-78,-34,-43,-53,-73
24,-48,-73,12,48,-61,-63,-78,-39,-53,-63,-78
24,-58,-82,17,53,-70,-63,-78,-39,-58,-78,-92
14,-63,-78,24,46,-70,-58,-78,-48,-68,-82,-97
9,-78,-87,34,48,-82,-53,-78,-48,-73,-82,-97
0,-97,-97,48,48,-97,-53,-82,-58,-82,-97,-112
0,-97,-97,48,48,-97,-53,-82,-73,-92,-107,-117
-4,-107,-102,56,48,-104,-53,-87,-78,-92,-107,-122
-4,-107,-102,56,48,-104,-53,-87,-78,-92,-107,-122
-4,-107,-102,56,48,-104,-48,-82,-73,-92,-107,-122
-4,-107,-102,56,48,-104,-48,-82,-73,-97,-107,-122
-4,-107,-102,56,48,-104,-48,-82,-73,-102,-107,-122
-9,-102,-92,56,41,-97,-43,-82,-68,-102,-107,-126
-14,-68,-53,41,19,-61,-39,-78,-43,-68,-82,-112
-14,-9,4,12,-9,-2,-29,-43,24,9,-4,-63
-14,58,73,-21,-43,65,-29,-9,102,122,117,34
-9,126,136,-58,-73,131,-24,4,165,239,263,175
4,224,219,-114,-107,222,-34,39,253,375,419,322
68,356,287,-212,-109,322,-48,136,419,570,653,541
156,453,297,-305,-70,375,-73,190,502,707,888,819
263,512,248,-387,7,380,-92,239,561,839,1137,1132
336,429,92,-383,122,261,-97,209,556,834,1112,1141
326,248,-78,-287,202,85,-97,-29,400,639,751,746
185,112,-73,-148,129,19,-126,-502,-92,136,248,287
24,-175,-200,75,112,-187,-156,-873,-868,-683,-478,-268
-107,-468,-361,287,126,-414,-185,-1117,-1405,-1273,-1019,-692
-107,-795,-688,451,290,-741,-200,-1107,-1625,-1566,-1327,-985
-68,-932,-863,500,397,-897,-229,-946,-1532,-1503,-1302,-1010
-34,-854,-819,444,392,-836,-234,-717,-1273,-1254,-1102,-878
-4,-732,-727,368,361,-729,-209,-483,-1000,-1005,-897,-732
19,-590,-610,285,314,-600,-126,-273,-727,-756,-707,-605
34,-448,-483,207,258,-466,-78,-122,-507,-541,-531,-468
39,-356,-395,158,217,-375,-48,-19,-346,-395,-395,-375
39,-278,-317,119,178,-297,-39,29,-219,-287,-297,-287
29,-200,-229,85,129,-214,-39,29,-156,-209,-234,-234
14,-165,-180,75,97,-173,-39,9,-131,-175,-204,-209
0,-161,-161,80,80,-161,-39,-4,-122,-165,-195,-204
-4,-156,-151,80,73,-153,-43,-9,-112,-156,-185,-190
-4,-141,-136,73,65,-139,-43,-9,-102,-146,-170,-180
-4,-122,-117,63,56,-119,-43,-19,-92,-136,-165,-170
-4,-117,-112,61,53,-114,-43,-19,-92,-131,-151,-165
-9,-117,-107,63,48,-112,-43,-24,-92,-131,-146,-165
-9,-107,-97,58,43,-102,-48,-24,-92,-131,-141,-161
-9,-102,-92,56,41,-97,-48,-29,-87,-131,-141,-156
-9,-92,-82,51,36,-87,-48,-34,-87,-126,-146,-156
-9,-87,-78,48,34,-82,-43,-34,-87,-126,-146,-156
-9,-87,-78,48,34,-82,-43,-34,-87,-122,-141,-151
-9,-87,-78,48,34,-82,-43,-34,-87,-117,-141,-146
-9,-87,-78,48,34,-82,-43,-29,-78,-117,-141,-146
-9,-87,-78,48,34,-82,-43,-19,-68,-117,-141,-146
-14,-87,-73,51,29,-80,-43,-19,-68,-112,-141,-146
-19,-87,-68,53,24,-78,-39,-19,-68,-112,-141,-146
-14,-87,-73,51,29,-80,-39,-19,-78,-112,-141,-156
-14,-87,-73,51,29,-80,-39,-14,-82,-112,-141,-161
-14,-87,-73,51,29,-80,-39,-19,-78,-112,-146,-161
-14,-87,-73,51,29,-80,-39,-19,-78,-112,-146,-161
-19,-92,-73,56,26,-82,-39,-14,-73,-112,-151,-161
-24,-97,-73,61,24,-85,-39,-14,-68,-112,-151,-161
-19,-97,-78,58,29,-87,-39,-9,-68,-112,-146,-156
-19,-102,-82,61,31,-92,-39,-4,-68,-117,-146,-146
-24,-97,-73,61,24,-85,-39,0,-68,-117,-146,-151
-24,-97,-73,61,24,-85,-39,0,-73,-117,-146,-151
-24,-97,-73,61,24,-85,-39,0,-73,-122,-146,-156
-24,-97,-73,61,24,-85,-39,0,-78,-126,-156,-161
-19,-92,-73,56,26,-82,-39,0,-82,-126,-156,-165
-9,-87,-78,48,34,-82,-43,0,-87,-131,-161,-165
-9,-87,-78,48,34,-82,-43,4,-82,-136,-161,-165
-9,-92,-82,51,36,-87,-43,4,-82,-141,-165,-175
-4,-92,-87,48,41,-90,-43,9,-92,-151,-175,-175
-4,-92,-87,48,41,-90,-43,9,-97,-156,-180,-180
-9,-92,-82,51,36,-87,-43,9,-112,-165,-190,-185
-4,-92,-87,48,41,-90,-48,9,-117,-175,-200,-185
-4,-92,-87,48,41,-90,-48,4,-122,-180,-204,-185
-4,-97,-92,51,43,-95,-58,4,-126,-190,-214,-190
0,-97,-97,48,48,-97,-63,4,-136,-195,-224,-195
4,-92,-97,43,51,-95,-63,4,-146,-209,-234,-195
4,-92,-97,43,51,-95,-58,4,-156,-224,-239,-195
9,-82,-92,36,51,-87,-68,-4,-165,-234,-239,-195
14,-73,-87,29,51,-80,-73,-4,-175,-239,-248,-200
19,-63,-82,21,51,-73,-82,-4,-180,-244,-258,-204
19,-58,-78,19,48,-68,-82,-9,-180,-253,-258,-200
29,-53,-82,12,56,-68,-87,-14,-180,-258,-258,-190
29,-43,-73,7,51,-58,-97,-14,-185,-258,-253,-185
34,-34,-68,0,51,-51,-97,-14,-185,-258,-253,-175
43,-24,-68,-9,56,-46,-102,-19,-180,-244,-239,-161
53,-14,-68,-19,61,-41,-102,-9,-165,-234,-219,-141
53,0,-53,-26,53,-26,-107,-4,-156,-209,-200,-126
63,19,-43,-41,53,-12,-112,0,-131,-190,-175,-112
58,34,-24,-46,41,4,-112,14,-112,-161,-146,-92
58,39,-19,-48,39,9,-112,34,-92,-131,-122,-68
68,53,-14,-61,41,19,-107,39,-68,-107,-97,-48
68,58,-9,-63,39,24,-97,53,-48,-82,-78,-34
63,58,-4,-61,34,26,-97,53,-39,-63,-53,-24
58,63,4,-61,26,34,-97,58,-24,-43,-39,-14
53,63,9,-58,21,36,-97,68,-14,-29,-29,-4
48,63,14,-56,17,39,-92,68,0,-14,-19,0
39,58,19,-48,9,39,-82,73,19,-4,-9,4
29,48,19,-39,4,34,-78,78,29,4,0,4
24,48,24,-36,0,36,-78,68,29,4,0,4
9,39,29,-24,-9,34,-73,63,29,9,0,-4
9,29,19,-19,-4,24,-68,58,34,14,4,-4
0,29,29,-14,-14,29,-63,53,34,19,9,-9
0,14,14,-7,-7,14,-58,48,34,19,9,-19
0,9,9,-4,-4,9,-53,48,34,19,4,-19
-4,14,19,-4,-12,17,-53,48,34,19,0,-24
-9,14,24,-2,-17,19,-53,43,29,14,-4,-34
-9,4,14,2,-12,9,-53,39,29,14,-4,-43
-9,0,9,4,-9,4,-48,34,24,9,-9,-48
-9,0,9,4,-9,4,-48,34,19,9,-14,-48
-9,-9,0,9,-4,-4,-53,39,19,4,-14,-53
-19,-9,9,14,-14,0,-48,34,19,9,-14,-53
-24,-9,14,17,-19,2,-43,34,14,9,-14,-63
-24,-14,9,19,-17,-2,-43,34,9,4,-19,-63
-24,-14,9,19,-17,-2,-43,34,9,4,-19,-63
-24,-19,4,21,-14,-7,-48,34,0,0,-24,-58
-24,-19,4,21,-14,-7,-53,34,0,0,-34,-58
-19,-19,0,19,-9,-9,-53,39,0,0,-39,-58
-19,-19,0,19,-9,-9,-53,43,-4,-4,-39,-63
-19,-24,-4,21,-7,-14,-53,43,-4,-4,-39,-63
-19,-24,-4,21,-7,-14,-53,48,-4,-4,-34,-63
-19,-24,-4,21,-7,-14,-53,48,-9,-4,-24,-68
-19,-19,0,19,-9,-9,-53,48,-4,-9,-24,-68
-19,-19,0,19,-9,-9,-53,43,-4,-9,-29,-63
-19,-19,0,19,-9,-9,-53,43,-9,-9,-29,-58
-14,-24,-9,19,-2,-17,-53,48,-4,-4,-29,-58
-9,-24,-14,17,2,-19,-53,48,-4,-4,-29,-53
-14,-24,-9,19,-2,-17,-53,48,-9,-9,-29,-53
-14,-24,-9,19,-2,-17,-53,43,-9,-9,-29,-53
-14,-24,-9,19,-2,-17,-53,43,-9,-4,-29,-58
-14,-24,-9,19,-2,-17,-48,43,-9,0,-29,-58
-19,-19,0,19,-9,-9,-48,43,0,-4,-29,-58
-19,-14,4,17,-12,-4,-48,43,0,-4,-19,-53
-24,-19,4,21,-14,-7,-48,43,0,4,-19,-53
-29,-19,9,24,-19,-4,-48,43,0,9,-19,-53
-29,-19,9,24,-19,-4,-48,43,0,9,-19,-53
-29,-19,9,24,-19,-4,-48,43,0,9,-19,-53
-29,-14,14,21,-21,0,-48,43,0,9,-19,-58
-29,-9,19,19,-24,4,-48,43,4,9,-19,-63
-34,-9,24,21,-29,7,-48,43,4,9,-24,-63
-39,-9,29,24,-34,9,-48,43,4,9,-29,-63
-39,-9,29,24,-34,9,-48,43,4,9,-29,-68
-39,-9,29,24,-34,9,-48,43,14,9,-29,-68
-34,-9,24,21,-29,7,-48,43,14,9,-29,-73
-34,-9,24,21,-29,7,-48,39,14,9,-29,-73
-39,-14,24,26,-31,4,-43,34,14,9,-29,-68
-43,-24,19,34,-31,-2,-39,34,19,14,-29,-68
-43,-19,24,31,-34,2,-39,34,19,9,-29,-68
-48,-19,29,34,-39,4,-39,39,19,9,-29,-68
-48,-19,29,34,-39,4,-39,39,19,9,-29,-68
-48,-19,29,34,-39,4,-39,39,19,9,-29,-68
-48,-19,29,34,-39,4,-39,0,14,0,-34,-68
-48,-9,39,29,-43,14,-34,-39,19,4,-29,-63
-53,0,53,26,-53,26,-34,-78,24,9,-29,-58
-53,19,73,17,-63,46,-29,-102,43,29,-19,-48
-48,43,92,2,-70,68,-14,-102,58,43,4,-43
-48,53,102,-2,-75,78,-9,-107,63,48,14,-39
-43,48,92,-2,-68,70,-4,-102,68,48,14,-39
-43,43,87,0,-65,65,-4,-102,73,53,19,-39
-48,53,102,-2,-75,78,-9,-102,78,58,14,-43
-53,63,117,-4,-85,90,-14,-102,82,58,9,-48
-48,73,122,-12,-85,97,-29,-117,78,53,9,-48
-48,78,126,-14,-87,102,-43,-126,68,43,4,-48
-43,73,117,-14,-80,95,-48,-141,58,43,9,-48
-39,73,112,-17,-75,92,-48,-141,58,48,9,-48
-24,68,92,-21,-58,80,-58,-146,53,39,9,-48
-14,68,82,-26,-48,75,-68,-146,48,39,9,-39
-4,58,63,-26,-34,61,-78,-146,48,39,9,-34
4,68,63,-36,-29,65,-82,-136,53,48,19,-19
9,97,87,-53,-39,92,-87,-126,53,58,29,0
14,112,97,-63,-41,104,-78,-122,53,58,29,0
4,122,117,-63,-56,119,-58,-122,68,73,43,19
-9,102,112,-46,-61,107,-53,-126,58,58,29,0
-34,63,97,-14,-65,80,-43,-151,19,19,-9,-34
-48,43,92,2,-70,68,-39,-156,4,0,-24,-53
-53,19,73,17,-63,46,-39,-151,-4,-14,-43,-73
-53,9,63,21,-58,36,-34,-146,-9,-24,-53,-78
-53,0,53,26,-53,26,-34,-146,-9,-24,-63,-87
-63,-4,58,34,-61,26,-29,-146,-19,-29,-63,-87
-63,-14,48,39,-56,17,-24,-141,-14,-34,-63,-87
-68,-29,39,48,-53,4,-24,-141,-19,-43,-78,-102
-73,-34,39,53,-56,2,-19,-141,-29,-58,-92,-112
-82,-48,34,65,-58,-7,-14,-146,-29,-63,-97,-122
-82,-48,34,65,-58,-7,-14,-146,-34,-63,-97,-122
-82,-48,34,65,-58,-7,-9,-141,-34,-63,-97,-122
-78,-48,29,63,-53,-9,-9,-141,-34,-63,-97,-122
-73,-48,24,61,-48,-12,-9,-141,-34,-63,-97,-122
-78,-58,19,68,-48,-19,-4,-151,-48,-87,-122,-141
-82,-39,43,61,-63,2,0,-156,-43,-78,-122,-141
-87,19,107,34,-97,63,9,-122,14,-19,-68,-122
-92,87,180,2,-136,134,9,-87,82,73,29,-53
-97,141,239,-21,-168,190,9,-92,136,185,165,73
-92,224,317,-65,-204,270,-4,-78,214,317,312,204
-63,380,444,-158,-253,412,-19,19,400,512,531,385
-9,502,512,-246,-261,507,-43,73,502,649,751,624
117,649,531,-383,-207,590,-58,180,600,868,1171,1127
209,653,444,-431,-117,549,-58,209,634,951,1317,1327
263,453,190,-358,36,322,-53,87,634,917,1078,1029
185,297,112,-241,36,204,-78,-268,297,575,697,668
14,24,9,-19,2,17,-107,-712,-600,-361,-136,24
-126,-253,-126,190,0,-190,-136,-1029,-1259,-1068,-785,-488
-161,-673,-512,417,175,-592,-136,-1083,-1590,-1512,-1263,-912
-156,-902,-746,529,295,-824,-151,-985,-1610,-1600,-1410,-1068
-122,-863,-741,492,309,-802,-170,-780,-1366,-1342,-1200,-932
-92,-780,-688,436,297,-734,-161,-570,-1107,-1083,-985,-780
-68,-624,-556,346,244,-590,-78,-341,-800,-819,-780,-653
-53,-468,-414,261,180,-441,-29,-170,-546,-590,-590,-517
-48,-361,-312,204,131,-336,0,-53,-356,-409,-429,-409
-48,-268,-219,158,85,-244,9,9,-200,-268,-307,-307
-48,-165,-117,107,34,-141,9,9,-122,-180,-229,-234
-53,-107,-53,80,0,-80,9,-9,-82,-136,-185,-190
-68,-102,-34,85,-17,-68,14,-24,-73,-126,-170,-185
-73,-97,-24,85,-24,-61,14,-29,-63,-117,-156,-170
-82,-78,4,80,-43,-36,14,-29,-53,-102,-141,-161
-92,-53,39,73,-65,-7,14,-39,-43,-87,-136,-151
-92,-48,43,70,-68,-2,14,-39,-39,-82,-126,-146
-97,-48,48,73,-73,0,14,-43,-34,-82,-126,-146
-97,-39,58,68,-78,9,9,-43,-34,-78,-122,-146
-97,-34,63,65,-80,14,9,-48,-29,-73,-122,-146
-102,-29,73,65,-87,21,9,-53,-29,-68,-122,-146
-107,-29,78,68,-92,24,14,-53,-29,-68,-117,-146
-107,-29,78,68,-92,24,14,-53,-29,-68,-107,-141
-107,-29,78,68,-92,24,14,-53,-29,-68,-102,-136
-107,-24,82,65,-95,29,14,-53,-24,-68,-102,-136
-107,-19,87,63,-97,34,14,-48,-19,-68,-102,-136
-107,-19,87,63,-97,34,14,-48,-19,-63,-107,-136
-107,-19,87,63,-97,34,19,-48,-19,-63,-112,-136
-102,-19,82,61,-92,31,19,-48,-19,-63,-112,-141
-102,-19,82,61,-92,31,19,-43,-14,-63,-112,-141
-102,-19,82,61,-92,31,19,-43,-9,-58,-107,-136
-102,-19,82,61,-92,31,19,-39,-9,-53,-97,-131
-102,-19,82,61,-92,31,19,-34,-9,-53,-102,-131
-102,-19,82,61,-92,31,19,-34,-9,-53,-102,-131
-97,-19,78,58,-87,29,19,-34,-9,-58,-107,-136
-97,-24,73,61,-85,24,19,-34,-9,-68,-117,-136
-97,-24,73,61,-85,24,19,-24,-9,-68,-117,-141
-92,-29,63,61,-78,17,19,-19,-14,-68,-117,-141
-92,-29,63,61,-78,17,24,-19,-4,-63,-112,-141
-92,-29,63,61,-78,17,29,-19,0,-58,-117,-141
-97,-29,68,63,-82,19,29,-19,-4,-58,-117,-146
-97,-29,68,63,-82,19,24,-19,-9,-63,-122,-146
-97,-24,73,61,-85,24,24,-14,-4,-68,-122,-146
-97,-24,73,61,-85,24,24,-14,-4,-73,-126,-156
-92,-24,68,58,-80,21,24,-4,-4,-73,-126,-146
-92,-24,68,58,-80,21,24,0,0,-68,-122,-141
-92,-24,68,58,-80,21,24,0,-14,-78,-126,-146
-82,-24,58,53,-70,17,19,0,-19,-87,-131,-146
-82,-19,63,51,-73,21,19,0,-24,-92,-136,-146
-82,-19,63,51,-73,21,9,4,-29,-102,-146,-151
-78,-19,58,48,-68,19,4,4,-39,-107,-161,-161
-73,-14,58,43,-65,21,4,4,-48,-122,-175,-165
-68,-14,53,41,-61,19,4,4,-53,-136,-185,-165
-58,-4,53,31,-56,24,-9,-4,-58,-146,-190,-165
-58,4,63,26,-61,34,-14,-4,-73,-156,-195,-170
-58,14,73,21,-65,43,-24,-4,-82,-165,-200,-175
-58,19,78,19,-68,48,-19,-4,-82,-170,-204,-175
-48,24,73,12,-61,48,-19,-4,-82,-170,-209,-170
-48,34,82,7,-65,58,-29,-9,-82,-180,-209,-165
-43,43,87,0,-65,65,-29,-14,-78,-190,-214,-156
-39,53,92,-7,-65,73,-34,-14,-78,-175,-204,-146
-34,63,97,-14,-65,80,-34,0,-68,-165,-190,-131
-34,68,102,-17,-68,85,-39,4,-63,-146,-175,-112
-24,78,102,-26,-63,90,-43,9,-43,-131,-156,-92
-24,92,117,-34,-70,104,-43,19,-29,-102,-126,-73
-19,97,117,-39,-68,107,-43,34,-14,-73,-102,-48
-9,117,126,-53,-68,122,-43,39,9,-48,-73,-24
-9,126,136,-58,-73,131,-39,53,29,-24,-48,-4
-9,126,136,-58,-73,131,-34,53,43,-4,-24,4
-9,131,141,-61,-75,136,-29,58,63,14,-9,14
-14,131,146,-58,-80,139,-29,68,78,29,4,29
-19,131,151,-56,-85,141,-24,68,97,43,19,39
-29,131,161,-51,-95,146,-19,73,112,58,34,43
-39,126,165,-43,-102,146,-19,78,117,73,48,43
-39,131,170,-46,-104,151,-19,68,117,73,48,48
-48,126,175,-39,-112,151,-14,63,117,78,48,43
-48,117,165,-34,-107,141,-4,58,117,78,48,39
-58,117,175,-29,-117,146,4,53,112,78,48,29
-63,102,165,-19,-114,134,4,48,112,78,53,19
-68,97,165,-14,-117,131,4,48,112,78,53,19
-73,97,170,-12,-122,134,4,48,112,82,48,24
-78,92,170,-7,-124,131,4,43,107,82,43,24
-82,82,165,0,-124,124,4,43,107,82,43,14
-87,78,165,4,-126,122,9,43,102,78,39,9
-78,78,156,0,-117,117,9,39,97,78,39,9
-68,68,136,0,-102,102,4,39,97,73,43,4
-73,68,141,2,-107,104,4,34,97,78,39,9
-73,68,141,2,-107,104,4,34,92,78,34,4
-73,63,136,4,-104,100,4,34,92,73,29,4
-73,63,136,4,-104,100,4,34,97,73,29,4
-73,58,131,7,-102,95,4,34,87,68,34,4
-73,58,131,7,-102,95,4,34,87,68,34,0
-68,63,131,2,-100,97,9,34,87,68,29,0
-68,68,136,0,-102,102,14,34,82,63,29,-4
-68,63,131,2,-100,97,14,29,87,63,29,0
-68,63,131,2,-100,97,14,29,92,63,34,4
-68,58,126,4,-97,92,14,34,82,68,39,4
-68,58,126,4,-97,92,14,39,82,68,34,9
-68,58,126,4,-97,92,14,34,87,68,34,9
-68,58,126,4,-97,92,14,34,87,68,39,9
-68,53,122,7,-95,87,14,39,87,73,39,9
-68,53,122,7,-95,87,14,39,82,73,39,14
-68,58,126,4,-97,92,14,39,78,68,39,14
-63,63,126,0,-95,95,14,34,78,68,39,14
-63,63,126,0,-95,95,14,34,78,73,39,14
-63,63,126,0,-95,95,19,34,78,78,39,19
-63,63,126,0,-95,95,19,34,87,73,39,19
-58,63,122,-2,-90,92,19,34,87,73,48,24
-58,58,117,0,-87,87,19,34,92,78,53,24
-58,58,117,0,-87,87,19,34,97,78,58,24
-58,58,117,0,-87,87,19,34,97,82,58,29
-58,58,117,0,-87,87,19,34,97,87,58,34
-58,58,117,0,-87,87,19,43,97,87,63,34
-58,58,117,0,-87,87,19,53,102,87,68,34
-63,58,122,2,-92,90,19,63,102,92,63,39
-68,58,126,4,-97,92,19,73,102,97,58,43
-68,58,126,4,-97,92,19,78,97,97,58,39
-68,58,126,4,-97,92,19,82,102,97,58,39
-63,58,122,2,-92,90,19,82,102,92,58,34
-63,58,122,2,-92,90,19,78,102,87,58,34
-68,58,126,4,-97,92,24,78,102,87,58,34
-73,63,136,4,-104,100,29,82,107,92,58,39
-73,58,131,7,-102,95,29,78,102,92,58,39
-78,58,136,9,-107,97,29,78,97,97,58,39
-73,58,131,7,-102,95,29,78,97,87,53,34
-68,58,126,4,-97,92,29,78,97,78,48,29
-68,58,126,4,-97,92,24,78,97,82,48,29
-68,68,136,0,-102,102,24,78,102,87,53,34
-73,78,151,-2,-112,114,24,78,112,97,58,39
-73,97,170,-12,-122,134,29,92,131,107,68,48
-68,117,185,-24,-126,151,43,97,141,117,82,58
-68,122,190,-26,-129,156,48,97,141,117,82,68
-63,126,190,-31,-126,158,48,102,146,117,82,68
-63,131,195,-34,-129,163,43,102,151,122,87,68
-63,141,204,-39,-134,173,48,102,156,126,87,68
-63,151,214,-43,-139,183,53,102,161,126,87,68
-58,156,214,-48,-136,185,34,87,156,122,87,68
-58,156,214,-48,-136,185,14,78,146,112,82,68
-58,151,209,-46,-134,180,14,63,126,107,82,63
-58,151,209,-46,-134,180,19,63,117,107,78,58
-43,141,185,-48,-114,163,9,53,112,97,78,58
-34,136,170,-51,-102,153,0,48,107,97,78,68
-24,136,161,-56,-92,148,-14,48,107,97,82,73
-14,156,170,-70,-92,163,-24,58,112,107,97,87
-4,175,180,-85,-92,178,-24,68,112,117,107,112
4,180,175,-92,-85,178,-9,73,112,117,107,117
-4,195,200,-95,-102,197,9,73,117,131,117,131
-19,180,200,-80,-109,190,14,68,97,117,97,107
-43,141,185,-48,-114,163,24,43,68,78,68,73
-58,122,180,-31,-119,151,29,39,63,58,63,53
-68,92,161,-12,-114,126,29,39,48,43,43,34
-73,78,151,-2,-112,114,34,39,39,34,34,29
-73,68,141,2,-107,104,34,39,39,34,19,19
-82,63,146,9,-114,104,39,39,29,29,14,19
-82,53,136,14,-109,95,43,39,29,24,14,19
-87,39,126,24,-107,82,43,34,19,14,0,4
-87,39,126,24,-107,82,48,34,9,0,-9,0
-92,29,122,31,-107,75,53,29,9,-4,-9,-4
-92,24,117,34,-104,70,53,24,4,-4,-9,-4
-92,19,112,36,-102,65,58,24,4,-4,-9,-4
-92,19,112,36,-102,65,58,24,4,-4,-9,-4
-92,19,112,36,-102,65,58,24,4,-4,-9,-4
-97,4,102,46,-100,53,63,14,-9,-34,-34,-19
-102,19,122,41,-112,70,68,9,-4,-29,-34,-14
-107,68,175,19,-141,122,78,43,63,29,9,0
-112,126,239,-7,-175,183,78,78,141,122,97,63
-117,180,297,-31,-207,239,87,87,190,229,229,170
-112,263,375,-75,-244,319,82,117,263,356,370,283
-73,405,478,-165,-275,441,68,214,458,575,605,468
-9,512,522,-251,-265,517,43,268,570,736,839,712
126,649,522,-387,-197,585,29,395,678,956,1249,1190
229,644,414,-436,-92,529,29,444,722,1039,1385,1366
292,444,151,-368,70,297,39,317,727,995,1117,1068
224,287,63,-256,80,175,19,-43,395,644,707,707
34,43,9,-39,12,26,-29,-546,-522,-287,-92,107
-126,-204,-78,165,-24,-141,-78,-922,-1200,-990,-707,-361
-156,-605,-448,380,146,-527,-92,-985,-1532,-1429,-1161,-771
-146,-814,-668,480,261,-741,-122,-897,-1551,-1512,-1283,-912
-117,-771,-653,444,268,-712,-131,-668,-1293,-1254,-1073,-780
-92,-683,-590,387,248,-636,-112,-434,-1019,-995,-858,-634
-68,-527,-458,297,195,-492,-19,-200,-707,-717,-649,-497
-53,-370,-317,212,131,-344,39,-24,-448,-473,-453,-351
-48,-273,-224,161,87,-248,63,87,-273,-307,-297,-253
-48,-190,-141,119,46,-165,68,146,-131,-180,-180,-161
-48,-92,-43,70,-2,-68,68,146,-63,-97,-112,-97
-53,-39,14,46,-34,-12,68,126,-34,-58,-78,-63
-68,-34,34,51,-51,0,73,112,-24,-48,-68,-58
-73,-29,43,51,-58,7,73,107,-14,-39,-58,-43
-73,-14,58,43,-65,21,73,102,0,-29,-39,-34
-73,4,78,34,-75,41,73,87,14,-19,-29,-24
-73,9,82,31,-78,46,73,87,14,-14,-19,-19
-78,9,87,34,-82,48,73,82,14,-14,-19,-19
-78,19,97,29,-87,58,68,82,14,-9,-14,-14
-78,24,102,26,-90,63,68,78,19,-4,-14,-9
-78,29,107,24,-92,68,68,73,19,0,-14,-4
-78,29,107,24,-92,68,73,73,19,0,-9,0
-78,29,107,24,-92,68,73,73,19,0,-4,0
-78,29,107,24,-92,68,73,73,19,0,-4,0
-78,29,107,24,-92,68,73,73,19,0,-4,0
-78,29,107,24,-92,68,73,78,19,0,-4,0
-78,29,107,24,-92,68,73,78,19,4,-4,0
-78,29,107,24,-92,68,78,78,19,4,-4,0
-73,29,102,21,-87,65,78,78,19,4,-4,-4
-73,29,102,21,-87,65,78,82,24,4,-4,-4
-73,34,107,19,-90,70,78,82,29,4,-4,-4
-73,39,112,17,-92,75,78,87,29,4,0,-4
-73,39,112,17,-92,75,78,92,34,4,-4,-4
-73,39,112,17,-92,75,78,92,39,4,-4,-4
-68,39,107,14,-87,73,82,92,39,4,-4,-4
-68,34,102,17,-85,68,87,92,39,0,-9,0
-73,34,107,19,-90,70,87,102,39,4,-9,-4
-73,29,102,21,-87,65,87,107,34,9,-9,-4
-73,29,102,21,-87,65,87,107,39,4,-9,-9
-73,29,102,21,-87,65,87,107,39,0,-19,-14
-73,29,102,21,-87,65,92,107,34,4,-19,-19
-68,29,97,19,-82,63,92,107,29,4,-24,-19
-68,29,97,19,-82,63,92,112,34,4,-19,-14
-68,24,92,21,-80,58,92,112,34,4,-19,-19
-63,24,87,19,-75,56,92,117,34,-4,-24,-19
-63,24,87,19,-75,56,92,117,39,-9,-24,-24
-68,24,92,21,-80,58,92,122,24,-14,-29,-29
-63,24,87,19,-75,56,87,126,19,-19,-34,-29
-63,24,87,19,-75,56,87,122,14,-24,-39,-24
-63,19,82,21,-73,51,78,122,9,-34,-48,-24
-53,19,73,17,-63,46,73,122,4,-39,-58,-34
-43,24,68,9,-56,46,73,122,0,-53,-68,-39
-43,24,68,9,-56,46,73,126,-4,-63,-73,-39
-39,34,73,2,-56,53,58,122,-9,-68,-73,-39
-34,43,78,-4,-56,61,58,122,-19,-73,-78,-43
-29,53,82,-12,-56,68,53,122,-24,-78,-82,-48
-29,58,87,-14,-58,73,53,122,-29,-82,-82,-43
-19,63,82,-21,-51,73,48,122,-34,-82,-82,-34
-19,73,92,-26,-56,82,39,122,-34,-87,-78,-29
-14,82,97,-34,-56,90,39,122,-29,-92,-78,-19
-4,87,92,-41,-48,90,34,122,-24,-78,-73,-9
4,92,87,-48,-41,90,34,136,-9,-68,-63,4
4,102,97,-53,-46,100,29,141,-4,-48,-43,24
14,117,102,-65,-43,109,24,146,14,-34,-19,43
9,131,122,-70,-56,126,24,156,34,-4,9,63
9,136,126,-73,-58,131,24,170,53,24,34,87
19,156,136,-87,-58,146,24,175,78,53,63,107
19,165,146,-92,-63,156,29,190,97,82,87,122
19,165,146,-92,-63,156,29,190,112,102,112,136
19,170,151,-95,-65,161,29,195,131,122,126,151
14,170,156,-92,-70,163,29,200,141,136,141,161
9,170,161,-90,-75,165,34,195,156,151,156,165
0,165,165,-82,-82,165,39,195,165,161,165,175
-9,156,165,-73,-87,161,39,195,165,170,175,180
-9,156,165,-73,-87,161,39,185,165,170,175,180
-19,146,165,-63,-92,156,43,180,165,175,175,170
-19,136,156,-58,-87,146,48,170,170,180,175,170
-29,136,165,-53,-97,151,53,161,170,185,175,165
-29,122,151,-46,-90,136,53,156,165,185,180,156
-29,117,146,-43,-87,131,53,156,161,185,180,156
-34,117,151,-41,-92,134,58,156,161,185,175,156
-39,112,151,-36,-95,131,63,151,156,180,170,151
-43,102,146,-29,-95,124,63,146,156,180,170,141
-48,97,146,-24,-97,122,68,141,151,175,165,136
-48,97,146,-24,-97,122,68,136,146,175,161,136
-48,87,136,-19,-92,112,63,136,146,170,161,131
-53,87,141,-17,-97,114,63,131,151,170,156,131
-53,87,141,-17,-97,114,63,131,151,165,151,122
-53,82,136,-14,-95,109,63,131,146,161,146,122
-53,82,136,-14,-95,109,63,131,146,161,146,122
-53,78,131,-12,-92,104,63,131,136,156,146,122
-53,78,131,-12,-92,104,63,131,136,156,141,117
-48,78,126,-14,-87,102,63,131,136,156,136,117
-48,78,126,-14,-87,102,63,131,131,151,136,112
-48,68,117,-9,-82,92,68,126,131,146,131,112
-48,63,112,-7,-80,87,73,126,131,141,131,112
-53,58,112,-2,-82,85,73,126,117,136,136,107
-58,58,117,0,-87,87,73,126,112,126,131,107
-58,63,122,-2,-90,92,73,122,112,126,126,107
-58,68,126,-4,-92,97,73,122,107,126,126,107
-58,63,122,-2,-90,92,73,126,107,126,126,107
-58,63,122,-2,-90,92,73,126,102,122,126,112
-63,58,122,2,-92,90,73,126,97,117,126,112
-63,53,117,4,-90,85,73,122,97,117,126,112
-63,53,117,4,-90,85,73,122,97,122,126,107
-63,53,117,4,-90,85,78,122,97,126,126,107
-68,58,126,4,-97,92,78,122,107,122,122,107
-68,63,131,2,-100,97,78,122,107,122,126,112
-68,58,126,4,-97,92,78,122,107,126,126,112
-68,58,126,4,-97,92,78,122,107,126,126,112
-68,53,122,7,-95,87,78,117,107,131,126,117
-68,48,117,9,-92,82,78,112,107,136,126,122
-68,48,117,9,-92,82,78,112,112,136,136,122
-68,48,117,9,-92,82,78,112,122,136,146,122
-73,48,122,12,-97,85,78,112,122,136,141,122
-78,48,126,14,-102,87,78,112,122,136,136,122
-82,48,131,17,-107,90,82,112,122,141,141,122
-87,48,136,19,-112,92,87,112,131,146,146,126
-87,48,136,19,-112,92,87,112,131,146,146,122
-87,48,136,19,-112,92,87,107,131,146,146,122
-97,48,146,24,-122,97,87,107,131,151,146,122
-97,48,146,24,-122,97,87,107,131,156,151,122
-92,43,136,24,-114,90,87,102,131,161,151,122
-97,39,136,29,-117,87,87,102,131,161,151,126
-97,39,136,29,-117,87,92,97,131,156,151,126
-102,43,146,29,-124,95,102,97,136,156,151,126
-97,43,141,26,-119,92,97,92,136,156,146,126
-97,48,146,24,-122,97,97,87,136,156,146,126
-97,48,146,24,-122,97,97,92,141,156,146,126
-97,48,146,24,-122,97,97,97,146,156,146,126
-97,53,151,21,-124,102,97,97,146,161,146,126
-97,63,161,17,-129,112,97,97,151,165,151,131
-97,78,175,9,-136,126,102,97,161,175,156,136
-92,97,190,-2,-141,143,107,112,180,185,165,146
-87,112,200,-12,-143,156,117,117,185,195,180,151
-87,112,200,-12,-143,156,117,117,180,195,180,156
-82,112,195,-14,-139,153,117,122,185,195,180,156
-82,112,195,-14,-139,153,112,122,190,200,185,156
-82,122,204,-19,-143,163,107,122,190,204,185,156
-82,131,214,-24,-148,173,102,122,190,204,185,156
-73,126,200,-26,-136,163,82,107,185,200,185,156
-68,117,185,-24,-126,151,63,97,175,190,180,156
-63,112,175,-24,-119,143,58,78,165,185,180,156
-58,112,170,-26,-114,141,58,73,165,185,175,156
-43,112,156,-34,-100,134,48,68,161,180,175,156
-34,117,151,-41,-92,134,39,68,156,185,175,165
-24,117,141,-46,-82,129,34,73,156,185,180,170
-14,136,151,-61,-82,143,34,87,161,195,195,185
-14,146,161,-65,-87,153,39,92,161,200,200,200
-14,141,156,-63,-85,148,58,92,161,195,195,195
-34,141,175,-53,-104,158,78,92,161,195,195,195
-58,112,170,-26,-114,141,82,87,136,165,165,156
-82,82,165,0,-124,124,92,63,107,136,136,131
-97,73,170,12,-134,122,97,58,102,126,131,122
-102,53,156,24,-129,104,97,53,92,107,112,102
-102,48,151,26,-126,100,102,48,87,92,102,97
-102,39,141,31,-122,90,102,48,87,92,92,87
-112,34,146,39,-129,90,107,48,78,87,92,87
-112,24,136,43,-124,80,112,48,78,82,92,87
-117,9,126,53,-122,68,112,43,68,73,78,73
-117,9,126,53,-122,68,112,39,58,63,68,68
-122,0,122,61,-122,61,112,29,58,63,68,63
-122,0,122,61,-122,61,117,29,58,63,68,68
-122,0,122,61,-122,61,126,34,63,63,68,73
-122,0,122,61,-122,61,126,34,63,63,73,73
-122,0,122,61,-122,61,126,34,63,63,78,73
-126,4,131,61,-129,68,131,39,68,63,78,73
-131,39,170,46,-151,104,136,48,92,97,102,92
-131,97,229,17,-180,163,146,87,165,180,185,146
-131,165,297,-17,-214,231,146,126,248,297,312,248
-122,234,356,-56,-239,295,141,151,322,424,473,395
-102,331,434,-114,-268,383,122,195,419,570,644,546
-24,444,468,-209,-246,456,107,292,575,761,868,761
78,522,444,-300,-183,483,82,346,649,893,1093,1034
170,556,385,-363,-107,470,78,370,668,946,1224,1220
229,448,219,-339,4,334,87,317,624,863,1083,1102
195,248,53,-222,70,151,87,48,409,595,673,707
29,92,63,-61,-17,78,58,-453,-141,19,122,248
-112,-170,-58,141,-26,-114,19,-810,-844,-697,-492,-234
-224,-439,-214,331,-4,-326,-19,-1039,-1307,-1185,-922,-585
-214,-717,-502,466,143,-610,-34,-995,-1459,-1395,-1156,-814
-165,-805,-639,485,236,-722,-63,-800,-1298,-1249,-1058,-775
-131,-712,-580,422,224,-646,-63,-570,-1039,-990,-839,-634
-102,-575,-473,339,185,-524,-34,-336,-766,-732,-614,-478
-78,-434,-356,256,139,-395,48,-131,-497,-497,-434,-351
-63,-292,-229,178,82,-261,97,14,-283,-297,-268,-214
-58,-209,-151,134,46,-180,117,97,-151,-165,-146,-131
-58,-141,-82,100,12,-112,117,126,-53,-73,-63,-53
-63,-78,-14,70,-24,-46,117,126,0,-9,-9,-4
-73,-58,14,65,-43,-21,117,107,14,9,9,14
-87,-53,34,70,-61,-9,122,92,24,19,19,19
-92,-48,43,70,-68,-2,122,87,34,29,29,34
-92,-34,58,63,-75,12,122,87,43,39,43,43
-92,-14,78,53,-85,31,122,78,53,48,48,53
-92,-9,82,51,-87,36,122,78,53,53,58,58
-97,-9,87,53,-92,39,122,73,53,53,58,58
-97,-4,92,51,-95,43,117,73,53,58,63,63
-97,-4,92,51,-95,43,117,68,58,63,63,68
-97,0,97,48,-97,48,117,68,58,68,63,68
-97,0,97,48,-97,48,122,73,58,68,68,68
-97,0,97,48,-97,48,122,73,58,68,73,68
-97,0,97,48,-97,48,122,73,58,68,73,68
-97,0,97,48,-97,48,122,68,63,68,68,68
-97,0,97,48,-97,48,122,68,68,68,63,68
-92,0,92,46,-92,46,122,68,68,73,63,68
-87,0,87,43,-87,43,126,68,68,73,63,68
-82,0,82,41,-82,41,126,68,68,73,63,63
-82,0,82,41,-82,41,126,73,73,73,63,63
-82,0,82,41,-82,41,126,73,78,68,63,63
-82,0,82,41,-82,41,126,78,78,63,68,63
-82,0,82,41,-82,41,126,82,78,63,63,63
-82,0,82,41,-82,41,126,82,78,63,63,63
-78,0,78,39,-78,39,126,82,78,63,58,58
-78,-4,73,41,-75,34,126,82,78,58,48,58
-78,-9,68,43,-73,29,126,87,78,58,48,53
-73,-19,53,46,-63,17,126,87,73,58,48,53
-73,-19,53,46,-63,17,126,87,73,53,48,48
-73,-19,53,46,-63,17,126,87,68,48,39,43
-73,-24,48,48,-61,12,126,87,63,48,39,39
-68,-29,39,48,-53,4,122,87,58,43,34,39
-68,-29,39,48,-53,4,122,92,58,34,34,39
-68,-34,34,51,-51,0,122,92,53,24,29,29
-63,-29,34,46,-48,2,122,92,43,14,19,29
-63,-24,39,43,-51,7,122,87,39,9,14,24
-63,-24,39,43,-51,7,122,87,24,0,4,19
-53,-24,29,39,-41,2,117,87,19,-9,-4,19
-48,-24,24,36,-36,0,117,82,14,-14,-9,19
-43,-29,14,36,-29,-7,107,82,9,-24,-19,14
-39,-29,9,34,-24,-9,102,87,0,-29,-24,4
-34,-24,9,29,-21,-7,102,92,-9,-43,-29,0
-34,-24,9,29,-21,-7,102,92,-14,-53,-34,0
-29,-14,14,21,-21,0,87,82,-19,-58,-34,0
-24,-9,14,17,-19,2,82,78,-29,-63,-39,4
-19,-4,14,12,-17,4,73,73,-34,-68,-43,9
-19,0,19,9,-19,9,73,73,-34,-68,-39,14
-9,4,14,2,-12,9,68,73,-34,-63,-34,24
-4,19,24,-7,-14,21,53,78,-34,-63,-29,34
4,34,29,-19,-12,31,48,82,-29,-63,-29,48
14,43,29,-29,-7,36,43,82,-19,-43,-14,63
24,53,29,-39,-2,41,43,97,0,-29,4,82
24,63,39,-43,-7,51,39,102,9,-4,24,102
34,78,43,-56,-4,61,34,107,34,14,48,122
34,92,58,-63,-12,75,39,117,53,48,82,141
39,97,58,-68,-9,78,43,131,73,82,112,165
43,112,68,-78,-12,90,43,136,97,107,136,180
39,117,78,-78,-19,97,48,151,117,131,156,190
39,112,73,-75,-17,92,48,151,131,146,175,200
39,112,73,-75,-17,92,48,156,151,161,185,209
34,112,78,-73,-21,95,48,161,156,175,195,214
29,112,82,-70,-26,97,53,156,165,190,204,214
19,107,87,-63,-34,97,58,156,175,200,209,214
9,97,87,-53,-39,92,58,156,175,209,214,209
9,97,87,-53,-39,92,58,146,175,209,209,209
0,87,87,-43,-43,87,63,141,175,214,204,200
-4,78,82,-36,-43,80,68,136,180,209,204,195
-19,78,97,-29,-58,87,73,131,180,204,204,185
-19,63,82,-21,-51,73,73,122,180,204,204,175
-19,58,78,-19,-48,68,73,117,180,204,200,175
-24,53,78,-14,-51,65,73,117,180,204,195,175
-29,43,73,-7,-51,58,73,112,175,200,190,170
-29,34,63,-2,-46,48,73,107,175,200,190,161
-29,29,58,0,-43,43,78,102,170,195,185,156
-29,29,58,0,-43,43,78,97,165,195,180,156
-29,19,48,4,-39,34,73,97,165,190,180,151
-34,19,53,7,-43,36,73,92,165,190,175,151
-34,19,53,7,-43,36,73,92,161,185,170,141
-34,9,43,12,-39,26,73,92,156,180,165,141
-34,4,39,14,-36,21,73,92,156,180,165,141
-39,0,39,19,-39,19,73,92,146,175,165,141
-43,0,43,21,-43,21,73,92,146,175,161,136
-43,0,43,21,-43,21,73,92,141,170,156,136
-48,0,48,24,-48,24,73,92,131,161,156,131
-48,-4,43,26,-46,19,73,87,131,156,151,131
-48,-4,43,26,-46,19,73,87,131,151,151,131
-43,-14,29,29,-36,7,73,87,117,151,151,126
-39,-19,19,29,-29,0,73,87,112,146,141,126
-39,-19,19,29,-29,0,73,78,112,141,136,126
-39,-19,19,29,-29,0,73,73,107,136,136,126
-39,-24,14,31,-26,-4,73,78,107,136,136,122
-39,-24,14,31,-26,-4,73,78,102,131,136,122
-43,-24,19,34,-31,-2,73,78,97,126,136,122
-43,-24,19,34,-31,-2,73,73,97,126,136,122
-43,-24,19,34,-31,-2,73,73,97,126,131,117
-43,-24,19,34,-31,-2,78,73,97,126,126,117
-48,-24,24,36,-36,0,78,68,107,122,126,117
-48,-24,24,36,-36,0,78,63,107,122,136,122
-48,-29,19,39,-34,-4,78,63,107,126,136,122
-48,-29,19,39,-34,-4,78,63,107,126,136,122
-48,-29,19,39,-34,-4,73,63,107,126,136,122
-48,-29,19,39,-34,-4,68,63,107,126,136,122
-48,-29,19,39,-34,-4,68,58,107,126,136,117
-48,-29,19,39,-34,-4,68,53,112,126,136,112
-53,-29,24,41,-39,-2,73,53,112,126,131,112
-58,-29,29,43,-43,0,78,53,112,126,126,112
-58,-34,24,46,-41,-4,78,53,112,131,131,107
-58,-39,19,48,-39,-9,78,53,122,136,136,107
-58,-39,19,48,-39,-9,78,53,122,136,136,102
-58,-39,19,48,-39,-9,78,48,122,136,136,102
-68,-39,29,53,-48,-4,78,53,122,136,136,102
-68,-39,29,53,-48,-4,78,58,122,136,141,102
-63,-39,24,51,-43,-7,78,53,122,141,136,102
-63,-39,24,51,-43,-7,78,53,122,141,131,107
-68,-39,29,53,-48,-4,78,53,122,141,131,107
-68,-39,29,53,-48,-4,82,43,122,141,136,102
-73,-39,34,56,-53,-2,78,34,122,141,131,102
-78,-39,39,58,-58,0,78,29,126,146,126,107
-78,-39,39,58,-58,0,78,29,126,141,126,107
-78,-39,39,58,-58,0,78,29,126,136,126,107
-73,-39,34,56,-53,-2,78,29,126,136,126,107
-68,-34,34,51,-51,0,73,29,126,141,126,107
-68,-34,34,51,-51,0,73,34,126,146,126,107
-73,-19,53,46,-63,17,73,39,141,156,136,117
-73,0,73,36,-73,36,78,58,161,165,146,126
-68,14,82,26,-75,48,87,68,170,175,161,131
-63,14,78,24,-70,46,87,68,170,180,161,136
-53,19,73,17,-63,46,87,73,175,185,161,136
-53,24,78,14,-65,51,87,73,185,190,165,136
-53,34,87,9,-70,61,87,73,190,195,165,136
-53,43,97,4,-75,70,82,73,195,195,165,136
-43,43,87,0,-65,65,63,58,195,190,165,136
-34,39,73,-2,-53,56,43,48,185,180,161,136
-24,34,58,-4,-41,46,39,34,175,175,161,136
-19,34,53,-7,-36,43,34,34,170,175,156,131
-4,29,34,-12,-19,31,19,29,161,165,156,126
4,29,24,-17,-9,26,9,29,156,165,156,136
14,29,14,-21,0,21,4,29,156,165,161,141
29,48,19,-39,4,34,4,39,165,175,175,156
34,63,29,-48,2,46,9,43,170,185,185,175
34,63,29,-48,2,46,29,43,170,185,185,180
19,63,43,-41,-12,53,48,43,170,185,185,185
0,34,34,-17,-17,34,53,39,146,156,156,146
-24,4,29,9,-26,17,63,14,117,126,126,122
-43,-4,39,24,-41,17,68,9,112,117,122,112
-53,-29,24,41,-39,-2,68,9,102,102,102,92
-53,-39,14,46,-34,-12,73,9,92,92,92,82
-53,-48,4,51,-29,-21,73,9,87,92,82,68
-63,-53,9,58,-36,-21,78,4,78,87,82,68
-63,-63,0,63,-31,-31,82,0,78,82,82,68
-68,-82,-14,75,-26,-48,82,-4,68,68,68,48
-68,-87,-19,78,-24,-53,82,-4,58,53,58,39
-73,-97,-24,85,-24,-61,87,-9,58,53,53,34
-73,-97,-24,85,-24,-61,92,-9,58,53,48,34
-73,-97,-24,85,-24,-61,97,-4,63,53,48,34
-73,-97,-24,85,-24,-61,97,-4,63,53,48,34
-73,-102,-29,87,-21,-65,97,-4,58,53,48,34
-78,-102,-24,90,-26,-63,102,-4,58,53,48,34
-82,-78,4,80,-43,-36,107,0,73,63,48,34
-82,-29,53,56,-68,12,117,39,136,122,107,68
-82,29,112,26,-97,70,117,78,214,229,219,161
-73,87,161,-7,-117,124,117,97,283,346,366,297
-63,185,248,-61,-156,217,102,126,370,492,517,419
-9,312,322,-151,-165,317,87,214,527,688,732,610
87,434,346,-261,-129,390,63,292,639,849,1010,932
204,512,307,-358,-51,409,48,356,707,976,1249,1229
312,444,131,-378,90,287,48,390,766,1024,1254,1254
326,268,-58,-297,192,104,48,224,692,888,951,932
161,156,-4,-158,82,75,24,-297,253,414,458,483
-4,-68,-63,36,29,-65,0,-717,-468,-322,-185,-29
-156,-375,-219,265,31,-297,-29,-1049,-1137,-1000,-766,-488
-185,-717,-531,451,173,-624,-43,-1117,-1459,-1381,-1137,-824
-146,-893,-746,519,300,-819,-97,-980,-1410,-1361,-1151,-873
-112,-873,-761,492,324,-817,-122,-785,-1224,-1176,-1005,-780
-78,-751,-673,414,297,-712,-102,-527,-941,-907,-790,-624
-48,-610,-561,329,256,-585,-29,-292,-658,-658,-600,-497
-24,-463,-439,244,207,-451,39,-112,-419,-439,-414,-346
-9,-366,-356,187,173,-361,78,4,-248,-278,-273,-244
-4,-283,-278,143,136,-280,78,58,-112,-151,-165,-146
-4,-200,-195,102,95,-197,78,78,-39,-68,-92,-82
-14,-161,-146,87,65,-153,78,58,-14,-48,-63,-58
-29,-151,-122,90,46,-136,82,43,4,-39,-48,-48
-34,-146,-112,90,39,-129,78,43,14,-24,-34,-34
-34,-131,-97,82,31,-114,73,48,24,-9,-14,-24
-34,-107,-73,70,19,-90,73,39,34,0,-9,-14
-34,-97,-63,65,14,-80,73,39,34,4,0,-9
-43,-97,-53,70,4,-75,73,29,34,4,0,-9
-48,-87,-39,68,-4,-63,68,24,34,9,4,-4
-48,-82,-34,65,-7,-58,68,19,43,14,4,0
-48,-78,-29,63,-9,-53,68,14,48,19,4,0
-48,-78,-29,63,-9,-53,78,14,48,19,9,0
-48,-78,-29,63,-9,-53,82,14,48,19,14,0
-48,-78,-29,63,-9,-53,82,14,43,19,14,0
-48,-78,-29,63,-9,-53,82,14,43,19,14,0
-48,-78,-29,63,-9,-53,82,19,48,19,14,0
-48,-78,-29,63,-9,-53,82,19,48,24,14,0
-48,-78,-29,63,-9,-53,87,19,48,24,9,0
-43,-78,-34,61,-4,-56,87,19,48,24,4,-4
-43,-78,-34,61,-4,-56,87,24,53,24,4,-4
-43,-78,-34,61,-4,-56,87,24,58,24,0,-4
-43,-82,-39,63,-2,-61,87,29,58,24,0,-9
-43,-87,-43,65,0,-65,87,34,58,24,-4,-14
-43,-87,-43,65,0,-65,87,34,53,19,-4,-14
-39,-87,-48,63,4,-68,87,34,48,14,-4,-19
-43,-87,-43,65,0,-65,87,34,48,9,-9,-19
-48,-82,-34,65,-7,-58,87,39,48,9,-9,-24
-43,-87,-43,65,0,-65,82,39,39,4,-14,-24
-43,-87,-43,65,0,-65,78,39,34,-4,-19,-24
-39,-87,-48,63,4,-68,78,39,29,-9,-29,-24
-34,-87,-53,61,9,-70,78,39,24,-9,-29,-29
-29,-87,-58,58,14,-73,73,39,19,-9,-34,-29
-29,-87,-58,58,14,-73,73,43,19,-14,-34,-29
-29,-92,-63,61,17,-78,73,39,14,-24,-34,-43
-24,-92,-68,58,21,-80,73,39,4,-34,-39,-48
-24,-92,-68,58,21,-80,68,39,0,-39,-43,-53
-24,-92,-68,58,21,-80,63,39,-14,-48,-53,-58
-14,-92,-78,53,31,-85,58,43,-19,-58,-63,-58
-14,-92,-78,53,31,-85,58,43,-24,-63,-68,-58
-19,-97,-78,58,29,-87,48,43,-29,-73,-73,-53
-19,-97,-78,58,29,-87,43,43,-39,-78,-78,-53
-14,-92,-78,53,31,-85,43,43,-48,-92,-87,-58
-14,-92,-78,53,31,-85,43,43,-53,-102,-92,-58
-4,-87,-82,46,39,-85,29,34,-58,-107,-92,-53
0,-82,-82,41,41,-82,24,34,-68,-112,-97,-48
4,-73,-78,34,41,-75,14,29,-78,-117,-102,-48
9,-68,-78,29,43,-73,14,24,-82,-122,-102,-43
19,-58,-78,19,48,-68,9,24,-82,-122,-102,-34
19,-43,-63,12,41,-53,0,24,-82,-122,-97,-29
24,-34,-58,4,41,-46,0,24,-78,-126,-97,-29
34,-24,-58,-4,46,-41,-4,24,-73,-117,-82,-24
48,-9,-58,-19,53,-34,-4,39,-58,-107,-63,-4
53,4,-48,-29,51,-21,-9,43,-48,-82,-43,14
63,19,-43,-41,53,-12,-14,53,-24,-63,-19,39
63,34,-29,-48,46,2,-14,68,-4,-34,9,63
63,39,-24,-51,43,7,-14,82,14,-4,34,87
68,53,-14,-61,41,19,-14,87,39,19,58,107
63,58,-4,-61,34,26,-4,102,58,43,73,122
58,58,0,-58,29,29,0,102,73,63,92,131
58,63,4,-61,26,34,0,107,92,82,107,136
53,63,9,-58,21,36,0,117,102,97,117,136
48,63,14,-56,17,39,4,117,122,117,126,136
39,58,19,-48,9,39,9,117,136,131,136,141
29,48,19,-39,4,34,9,117,141,141,146,141
29,48,19,-39,4,34,9,107,146,141,146,141
14,39,24,-26,-4,31,14,102,146,146,146,131
9,29,19,-19,-4,24,19,97,151,146,146,126
0,29,29,-14,-14,29,24,92,151,146,146,117
0,14,14,-7,-7,14,24,87,151,146,146,107
0,4,4,-2,-2,4,24,87,151,146,141,107
-4,0,4,2,-4,2,24,87,151,146,136,107
-9,-4,4,7,-7,0,24,82,146,141,126,102
-14,-14,0,14,-7,-7,24,78,146,141,122,92
-19,-24,-4,21,-7,-14,29,73,141,136,117,82
-19,-29,-9,24,-4,-19,29,68,136,136,112,78
-19,-39,-19,29,0,-29,29,68,136,131,117,73
-24,-39,-14,31,-4,-26,34,63,136,131,117,73
-24,-39,-14,31,-4,-26,34,58,131,126,112,63
-24,-43,-19,34,-2,-31,34,53,126,122,107,63
-24,-43,-19,34,-2,-31,34,53,126,117,102,63
-24,-48,-24,36,0,-36,34,53,117,107,97,63
-24,-48,-24,36,0,-36,29,53,117,107,92,58
-19,-48,-29,34,4,-39,24,53,112,107,87,58
-19,-48,-29,34,4,-39,24,53,102,102,87,53
-19,-53,-34,36,7,-43,24,48,102,97,82,53
-19,-53,-34,36,7,-43,24,48,97,92,82,53
-19,-58,-39,39,9,-48,24,48,82,92,82,48
-19,-58,-39,39,9,-48,24,48,82,82,73,43
-19,-58,-39,39,9,-48,24,43,82,78,68,39
-19,-58,-39,39,9,-48,24,43,78,78,68,39
-19,-63,-43,41,12,-53,24,48,78,78,68,39
-19,-68,-48,43,14,-58,24,48,73,78,68,43
-24,-73,-48,48,12,-61,24,48,68,78,68,43
-24,-73,-48,48,12,-61,24,43,68,78,68,48
-24,-73,-48,48,12,-61,24,43,68,78,68,48
-24,-73,-48,48,12,-61,29,43,68,82,68,48
-29,-73,-43,51,7,-58,29,43,78,82,68,48
-29,-73,-43,51,7,-58,29,43,78,82,78,48
-29,-78,-48,53,9,-63,29,43,78,87,78,43
-29,-78,-48,53,9,-63,29,43,78,87,73,43
-29,-78,-48,53,9,-63,29,43,78,87,68,43
-29,-78,-48,53,9,-63,29,39,82,87,68,43
-29,-78,-48,53,9,-63,29,34,87,87,68,39
-29,-73,-43,51,7,-58,29,34,92,92,78,39
-29,-68,-39,48,4,-53,29,34,92,97,82,43
-29,-68,-39,48,4,-53,29,34,92,97,78,43
-29,-68,-39,48,4,-53,29,34,92,97,78,39
-29,-68,-39,48,4,-53,29,34,102,97,73,39
-29,-68,-39,48,4,-53,29,34,102,97,68,34
-29,-68,-39,48,4,-53,29,29,102,97,68,34
-39,-68,-29,53,-4,-48,29,29,102,97,68,34
-39,-68,-29,53,-4,-48,29,29,102,97,73,34
-34,-68,-34,51,0,-51,29,24,102,102,73,34
-34,-68,-34,51,0,-51,29,24,102,102,68,39
-39,-68,-29,53,-4,-48,29,24,102,102,63,39
-39,-68,-29,53,-4,-48,34,24,102,97,68,34
-39,-68,-29,53,-4,-48,34,24,97,92,63,34
-39,-63,-24,51,-7,-43,29,14,97,87,58,24
-39,-58,-19,48,-9,-39,29,9,97,87,58,19
-39,-53,-14,46,-12,-34,29,9,92,82,53,14
-39,-48,-9,43,-14,-29,29,9,87,78,48,9
-39,-48,-9,43,-14,-29,29,4,87,78,48,9
-39,-48,-9,43,-14,-29,29,0,87,82,48,9
-39,-48,-9,43,-14,-29,29,0,87,87,48,9
-43,-39,4,41,-24,-17,34,0,102,97,58,19
-43,-19,24,31,-34,2,39,19,122,107,68,29
-39,-4,34,21,-36,14,48,29,131,117,82,34
-39,0,39,19,-39,19,48,34,131,117,82,39
-34,9,43,12,-39,26,48,43,136,117,82,39
-34,14,48,9,-41,31,43,43,146,122,87,39
-34,24,58,4,-46,41,39,43,151,126,87,39
-34,39,73,-2,-53,56,34,43,151,126,87,39
-24,43,68,-9,-46,56,14,29,146,122,87,39
-19,39,58,-9,-39,48,-4,19,131,112,78,39
-14,34,48,-9,-31,41,-9,4,117,107,73,39
-9,34,43,-12,-26,39,-9,4,117,107,68,34
4,29,24,-17,-9,26,-19,0,112,97,68,29
