I,II,III,aVR,aVL,aVF,V1,V2,V3,V4,V5,V6,
-78,-112,-34,95,-21,-73,-53,-141,-117,-117,-102,-78
-78,-112,-34,95,-21,-73,-53,-141,-117,-117,-102,-78
-78,-112,-34,95,-21,-73,-53,-151,-117,-122,-102,-82
-78,-117,-39,97,-19,-78,-53,-151,-117,-122,-102,-82
-78,-117,-39,97,-19,-78,-58,-156,-122,-122,-97,-73
-78,-117,-39,97,-19,-78,-63,-161,-126,-122,-97,-73
-78,-112,-34,95,-21,-73,-68,-161,-131,-122,-102,-73
-78,-112,-34,95,-21,-73,-73,-165,-136,-126,-107,-68
-82,-122,-39,102,-21,-80,-68,-161,-136,-117,-107,-78
-82,-126,-43,104,-19,-85,-63,-161,-136,-112,-107,-78
-82,-126,-43,104,-19,-85,-58,-161,-131,-112,-102,-82
-82,-126,-43,104,-19,-85,-58,-161,-131,-112,-97,-82
-73,-122,-48,97,-12,-85,-68,-161,-136,-117,-97,-82
-73,-122,-48,97,-12,-85,-68,-161,-141,-117,-97,-78
-73,-122,-48,97,-12,-85,-68,-161,-141,-117,-97,-78
-73,-122,-48,97,-12,-85,-68,-170,-136,-117,-97,-78
-82,-122,-39,102,-21,-80,-68,-151,-126,-107,-87,-78
-82,-122,-39,102,-21,-80,-73,-151,-126,-107,-92,-82
-82,-122,-39,102,-21,-80,-73,-156,-126,-107,-92,-82
-82,-122,-39,102,-21,-80,-73,-156,-126,-107,-92,-82
-82,-122,-39,102,-21,-80,-73,-156,-126,-112,-92,-73
-82,-112,-29,97,-26,-70,-82,-156,-136,-122,-82,-73
-82,-107,-24,95,-29,-65,-82,-170,-141,-117,-92,-73
-73,-112,-39,92,-17,-75,-82,-175,-151,-122,-92,-73
-82,-112,-29,97,-26,-70,-87,-195,-146,-117,-92,-78
-82,-102,-19,92,-31,-61,-102,-200,-146,-126,-102,-82
-87,-107,-19,97,-34,-63,-107,-214,-156,-126,-112,-82
-92,-122,-29,107,-31,-75,-107,-229,-180,-136,-117,-87
-92,-122,-29,107,-31,-75,-107,-239,-190,-156,-117,-87
-87,-122,-34,104,-26,-78,-97,-234,-190,-146,-107,-82
-68,-107,-39,87,-14,-73,-87,-209,-165,-122,-73,-58
-43,-78,-34,61,-4,-56,-92,-170,-126,-68,-39,-24
4,-39,-43,17,24,-41,-87,-117,-63,0,24,24
58,14,-43,-36,51,-14,-73,-24,24,78,107,82
131,82,-48,-107,90,17,-53,63,126,161,185,151
209,122,-87,-165,148,17,-43,141,209,239,258,204
268,180,-87,-224,178,46,-53,180,258,297,326,258
346,248,-97,-297,222,75,-58,224,297,356,395,326
419,307,-112,-363,265,97,-68,283,326,400,439,380
483,346,-136,-414,309,104,-73,322,351,409,463,419
536,414,-122,-475,329,146,-78,356,370,424,502,468
590,512,-78,-551,334,217,-92,390,395,453,556,527
649,600,-48,-624,348,275,-102,424,424,473,580,566
683,629,-53,-656,368,287,-112,439,409,463,575,585
692,639,-53,-666,373,292,-107,444,375,409,531,575
663,639,-24,-651,344,307,-82,473,351,361,478,556
610,653,43,-631,283,348,-19,561,390,351,458,556
522,629,107,-575,207,368,122,775,531,405,453,527
409,536,126,-473,141,331,302,1024,697,463,409,448
292,448,156,-370,68,302,414,1156,756,458,326,346
170,414,244,-292,-36,329,488,1166,761,429,283,302
-24,385,409,-180,-217,397,575,1166,761,424,248,258
-253,326,580,-36,-417,453,688,1151,746,405,190,180
-414,297,712,58,-563,505,751,1088,717,385,146,122
-492,312,805,90,-649,558,761,995,653,356,146,112
-527,331,858,97,-692,595,712,863,585,326,151,122
-536,297,834,119,-685,566,678,775,536,292,131,97
-512,204,717,153,-614,461,683,766,517,263,92,34
-478,136,614,170,-546,375,741,834,546,263,68,-14
-463,78,541,192,-502,309,819,946,605,283,53,-48
-434,-9,424,222,-429,207,888,1058,653,283,29,-92
-414,-102,312,258,-363,104,946,1156,697,273,-4,-146
-400,-195,204,297,-302,4,995,1239,712,263,-43,-195
-395,-297,97,346,-246,-100,1054,1307,717,253,-78,-239
-395,-395,0,395,-197,-197,1117,1390,732,229,-107,-287
-400,-444,-43,422,-178,-244,1151,1454,766,239,-117,-317
-409,-458,-48,434,-180,-253,1200,1478,780,244,-126,-317
-419,-492,-73,456,-173,-283,1259,1542,795,234,-131,-326
-429,-536,-107,483,-161,-322,1332,1620,814,229,-136,-341
-429,-585,-156,507,-136,-370,1400,1712,834,229,-156,-361
-434,-619,-185,527,-124,-402,1473,1820,839,219,-165,-375
-448,-668,-219,558,-114,-444,1566,1947,858,204,-175,-400
-463,-741,-278,602,-92,-509,1668,2069,868,200,-200,-424
-483,-814,-331,649,-75,-573,1771,2191,878,180,-229,-453
-502,-883,-380,692,-61,-631,1854,2298,878,146,-263,-488
-517,-932,-414,724,-51,-673,1942,2381,868,117,-287,-517
-541,-976,-434,758,-53,-705,2015,2420,863,107,-312,-531
-551,-995,-444,773,-53,-719,2034,2400,834,87,-317,-531
-551,-971,-419,761,-65,-695,2015,2318,780,68,-317,-527
-551,-932,-380,741,-85,-656,1991,2225,732,58,-302,-502
-527,-897,-370,712,-78,-634,1956,2137,702,53,-287,-478
-512,-844,-331,678,-90,-588,1912,2039,668,58,-273,-439
-507,-790,-283,649,-112,-536,1888,1952,649,58,-244,-419
-502,-741,-239,622,-131,-490,1869,1898,629,78,-224,-395
-483,-673,-190,578,-146,-431,1839,1815,614,97,-195,-366
-448,-600,-151,524,-148,-375,1756,1683,575,92,-170,-322
-405,-502,-97,453,-153,-300,1610,1498,527,92,-131,-263
-356,-409,-53,383,-151,-231,1410,1268,458,87,-102,-209
-326,-356,-29,341,-148,-192,1244,1058,375,58,-87,-180
-312,-331,-19,322,-146,-175,1098,863,292,24,-87,-175
-278,-292,-14,285,-131,-153,932,673,204,0,-82,-161
-239,-239,0,239,-119,-119,761,488,146,-29,-87,-136
-219,-214,4,217,-112,-104,614,326,87,-43,-87,-117
-190,-185,4,187,-97,-90,458,165,19,-68,-87,-112
-146,-151,-4,148,-70,-78,268,4,-48,-97,-78,-102
-107,-107,0,107,-53,-53,117,-107,-107,-102,-68,-78
-73,-82,-9,78,-31,-46,34,-151,-131,-102,-63,-58
-53,-63,-9,58,-21,-36,-14,-170,-151,-112,-58,-48
-43,-53,-9,48,-17,-31,-73,-190,-161,-117,-53,-43
-34,-53,-19,43,-7,-36,-97,-204,-151,-97,-48,-34
-29,-43,-14,36,-7,-29,-112,-219,-146,-102,-48,-43
-29,-43,-14,36,-7,-29,-122,-234,-156,-97,-48,-39
-24,-39,-14,31,-4,-26,-141,-244,-156,-92,-43,-39
-19,-34,-14,26,-2,-24,-151,-253,-161,-92,-43,-39
-14,-29,-14,21,0,-21,-165,-273,-180,-97,-34,-24
-9,-24,-14,17,2,-19,-175,-287,-190,-97,-34,-24
-9,-19,-9,14,0,-14,-185,-297,-190,-97,-34,-14
-4,-14,-9,9,2,-12,-195,-302,-190,-92,-34,-14
0,-9,-9,4,4,-9,-195,-312,-185,-82,-43,-19
4,-4,-9,0,7,-7,-200,-322,-195,-82,-39,-24
4,-4,-9,0,7,-7,-204,-331,-195,-82,-39,-24
4,-4,-9,0,7,-7,-204,-331,-195,-82,-39,-24
19,4,-14,-12,17,-4,-209,-341,-214,-92,-34,-19
19,4,-14,-12,17,-4,-214,-356,-219,-97,-24,-9
19,9,-9,-14,14,0,-224,-356,-219,-102,-24,0
24,9,-14,-17,19,-2,-229,-366,-219,-102,-24,4
19,14,-4,-17,12,4,-224,-366,-214,-92,-24,-9
19,19,0,-19,9,9,-224,-380,-214,-92,-19,-9
19,19,0,-19,9,9,-224,-380,-209,-92,-19,-4
24,19,-4,-21,14,7,-229,-385,-204,-92,-19,0
29,29,0,-29,14,14,-239,-400,-209,-102,-14,9
39,39,0,-39,19,19,-248,-405,-224,-107,-14,9
39,43,4,-41,17,24,-258,-409,-229,-107,-9,14
43,48,4,-46,19,26,-273,-414,-234,-107,-9,14
43,43,0,-43,21,21,-273,-409,-224,-97,-4,9
48,48,0,-48,24,24,-278,-414,-229,-92,-4,9
48,53,4,-51,21,29,-287,-424,-229,-92,-4,9
58,58,0,-58,29,29,-297,-429,-229,-92,0,14
63,63,0,-63,31,31,-297,-434,-239,-97,0,34
63,68,4,-65,29,36,-312,-444,-244,-97,4,34
68,73,4,-70,31,39,-326,-448,-248,-97,14,39
73,78,4,-75,34,41,-341,-453,-248,-92,14,48
73,82,9,-78,31,46,-356,-463,-239,-82,4,48
78,92,14,-85,31,53,-366,-468,-244,-82,4,53
82,97,14,-90,34,56,-380,-478,-244,-82,14,53
87,102,14,-95,36,58,-390,-488,-244,-78,19,53
92,107,14,-100,39,61,-409,-497,-253,-87,29,68
97,112,14,-104,41,63,-424,-502,-268,-87,34,73
102,117,14,-109,43,65,-439,-512,-273,-87,39,78
107,131,24,-119,41,78,-439,-522,-273,-87,39,87
112,122,9,-117,51,65,-448,-517,-268,-78,34,78
117,131,14,-124,51,73,-458,-527,-268,-78,39,82
122,136,14,-129,53,75,-468,-536,-278,-78,43,87
126,141,14,-134,56,78,-478,-546,-278,-78,43,92
146,151,4,-148,70,78,-483,-566,-287,-82,48,107
151,156,4,-153,73,80,-497,-575,-287,-82,48,112
156,161,4,-158,75,82,-502,-585,-292,-87,58,112
161,175,14,-168,73,95,-507,-595,-307,-87,58,122
156,180,24,-168,65,102,-517,-605,-302,-73,58,112
161,190,29,-175,65,109,-522,-624,-302,-73,58,117
165,190,24,-178,70,107,-531,-629,-307,-73,58,122
175,195,19,-185,78,107,-536,-639,-307,-73,68,122
185,200,14,-192,85,107,-546,-653,-317,-82,78,136
190,209,19,-200,85,114,-551,-658,-322,-78,82,141
195,214,19,-204,87,117,-551,-668,-326,-78,82,146
200,219,19,-209,90,119,-556,-678,-336,-78,92,151
204,229,24,-217,90,126,-570,-688,-331,-78,92,161
209,239,29,-224,90,134,-575,-702,-331,-78,87,165
209,239,29,-224,90,134,-580,-707,-336,-78,87,165
209,244,34,-226,87,139,-585,-717,-336,-78,92,165
214,248,34,-231,90,141,-585,-727,-341,-78,92,165
224,253,29,-239,97,141,-595,-732,-341,-78,92,165
229,263,34,-246,97,148,-600,-741,-346,-78,97,165
234,268,34,-251,100,151,-610,-746,-351,-78,97,170
234,273,39,-253,97,156,-610,-746,-356,-63,102,170
234,278,43,-256,95,161,-610,-751,-356,-63,102,175
234,283,48,-258,92,165,-614,-751,-356,-63,102,175
234,287,53,-261,90,170,-619,-751,-356,-63,107,175
239,283,43,-261,97,163,-619,-751,-346,-58,112,190
244,283,39,-263,102,161,-619,-751,-336,-53,112,190
248,287,39,-268,104,163,-624,-751,-336,-48,112,190
248,292,43,-270,102,168,-624,-751,-336,-48,122,190
244,307,63,-275,90,185,-624,-751,-336,-58,122,200
244,312,68,-278,87,190,-624,-746,-336,-53,122,200
244,312,68,-278,87,190,-619,-741,-326,-43,122,200
244,312,68,-278,87,190,-610,-732,-317,-39,131,204
244,312,68,-278,87,190,-610,-722,-307,-34,141,204
244,312,68,-278,87,190,-610,-717,-297,-24,146,204
244,312,68,-278,87,190,-605,-707,-287,-24,146,204
244,312,68,-278,87,190,-595,-697,-287,-19,146,204
253,307,53,-280,100,180,-595,-688,-283,-14,136,214
244,307,63,-275,90,185,-580,-678,-273,-9,141,214
234,302,68,-268,82,185,-575,-663,-263,-4,141,214
234,302,68,-268,82,185,-561,-649,-248,0,141,214
224,307,82,-265,70,195,-551,-634,-234,9,141,200
219,297,78,-258,70,187,-541,-619,-214,14,146,195
219,297,78,-258,70,187,-531,-605,-209,19,146,190
214,297,82,-256,65,190,-522,-585,-204,24,141,190
219,292,73,-256,73,183,-517,-570,-204,19,141,195
209,283,73,-246,68,178,-507,-551,-195,19,141,195
204,273,68,-239,68,170,-488,-536,-185,24,136,190
200,268,68,-234,65,168,-473,-512,-170,29,136,190
190,258,68,-224,61,163,-448,-488,-151,39,141,175
185,248,63,-217,61,156,-439,-473,-146,43,141,170
185,248,63,-217,61,156,-434,-453,-126,43,141,161
180,239,58,-209,61,148,-419,-434,-117,48,136,156
180,229,48,-204,65,139,-409,-424,-122,48,136,161
170,219,48,-195,61,134,-395,-400,-117,53,131,156
161,209,48,-185,56,129,-375,-380,-107,53,126,151
156,204,48,-180,53,126,-361,-356,-92,53,126,151
141,195,53,-168,43,124,-336,-326,-78,53,112,131
126,185,58,-156,34,122,-322,-312,-68,53,112,122
122,175,53,-148,34,114,-302,-292,-63,53,107,117
117,161,43,-139,36,102,-287,-273,-53,58,102,102
122,161,39,-141,41,100,-278,-263,-58,48,102,112
112,151,39,-131,36,95,-263,-248,-48,48,97,107
102,141,39,-122,31,90,-248,-234,-39,48,92,102
92,131,39,-112,26,85,-234,-219,-34,48,87,97
87,112,24,-100,31,68,-219,-200,-19,58,82,78
73,102,29,-87,21,65,-200,-180,-9,58,78,68
63,92,29,-78,17,61,-185,-151,0,53,73,58
58,82,24,-70,17,53,-175,-131,0,43,68,53
58,82,24,-70,17,53,-170,-126,-4,39,63,58
53,73,19,-63,17,46,-156,-122,-4,39,58,53
43,68,24,-56,9,46,-146,-112,-9,39,53,53
39,58,19,-48,9,39,-141,-102,-14,34,48,48
34,53,19,-43,7,36,-122,-82,-4,39,48,43
29,34,4,-31,12,19,-112,-73,0,34,43,34
24,29,4,-26,9,17,-102,-63,9,34,39,29
19,19,0,-19,9,9,-92,-63,14,34,34,19
24,19,-4,-21,14,7,-102,-63,9,19,29,29
19,14,-4,-17,12,4,-92,-58,4,14,29,29
19,9,-9,-14,14,0,-92,-53,-9,14,29,29
19,4,-14,-12,17,-4,-82,-48,-14,14,29,29
4,0,-4,-2,4,-2,-73,-43,-9,14,24,14
0,-4,-4,2,2,-4,-63,-39,0,9,19,9
0,-9,-9,4,4,-9,-58,-34,4,9,14,0
-4,-14,-9,9,2,-12,-53,-24,9,9,14,0
-4,-19,-14,12,4,-17,-58,-24,4,0,9,0
-4,-19,-14,12,4,-17,-58,-29,0,0,9,0
-4,-24,-19,14,7,-21,-58,-34,-14,0,4,0
-4,-24,-19,14,7,-21,-58,-34,-19,0,4,0
-9,-24,-14,17,2,-19,-48,-24,-9,9,4,-9
-9,-34,-24,21,7,-29,-43,-24,0,9,4,-9
-9,-34,-24,21,7,-29,-39,-24,0,0,0,-14
-9,-34,-24,21,7,-29,-34,-24,-9,0,0,-19
-9,-34,-24,21,7,-29,-34,-34,-9,-9,-9,-9
-14,-39,-24,26,4,-31,-34,-34,-9,-9,-9,-9
-14,-39,-24,26,4,-31,-39,-34,-9,-9,-9,-4
-14,-39,-24,26,4,-31,-39,-29,-14,-9,-9,-4
-29,-39,-9,34,-9,-24,-39,-19,-14,0,-9,-19
-29,-39,-9,34,-9,-24,-39,-24,-14,-9,-9,-19
-29,-39,-9,34,-9,-24,-39,-24,-9,-9,-14,-19
-29,-39,-9,34,-9,-24,-39,-19,-4,-14,-14,-24
-19,-43,-24,31,2,-34,-39,-29,-14,-14,-4,-14
-19,-43,-24,31,2,-34,-39,-29,-19,-9,-4,-14
-14,-43,-29,29,7,-36,-43,-29,-19,-9,-4,-14
-14,-43,-29,29,7,-36,-53,-29,-24,-9,-4,-9
-14,-43,-29,29,7,-36,-48,-24,-14,-4,-9,-19
-19,-43,-24,31,2,-34,-53,-24,-9,-4,-9,-24
-19,-48,-29,34,4,-39,-58,-24,-9,-4,-9,-24
-19,-48,-29,34,4,-39,-58,-24,-9,-9,-9,-24
-14,-48,-34,31,9,-41,-58,-34,-19,-19,-9,-24
-14,-48,-34,31,9,-41,-58,-34,-19,-14,-9,-24
-14,-48,-34,31,9,-41,-68,-34,-24,-14,-9,-24
-14,-48,-34,31,9,-41,-73,-34,-24,-14,-9,-24
-14,-58,-43,36,14,-51,-73,-24,-24,-4,-19,-24
-14,-58,-43,36,14,-51,-68,-29,-24,-4,-19,-24
-14,-58,-43,36,14,-51,-63,-29,-24,-9,-19,-24
-14,-58,-43,36,14,-51,-53,-29,-19,-9,-19,-24
-14,-53,-39,34,12,-46,-63,-24,-19,-19,-9,-14
-14,-53,-39,34,12,-46,-63,-24,-14,-19,-9,-19
-14,-53,-39,34,12,-46,-63,-34,-19,-19,-9,-19
-14,-53,-39,34,12,-46,-78,-34,-34,-19,-14,-19
-14,-53,-39,34,12,-46,-78,-43,-24,-9,-24,-24
-14,-53,-39,34,12,-46,-82,-48,-24,-9,-24,-24
-14,-53,-39,34,12,-46,-82,-48,-29,-9,-24,-29
-14,-53,-39,34,12,-46,-82,-48,-34,-19,-24,-29
-14,-63,-48,39,17,-56,-78,-39,-43,-19,-14,-29
-14,-63,-48,39,17,-56,-78,-39,-39,-19,-19,-29
-14,-63,-48,39,17,-56,-82,-43,-34,-14,-19,-29
-14,-63,-48,39,17,-56,-92,-53,-34,-14,-19,-29
-24,-53,-29,39,2,-41,-92,-63,-43,-14,-19,-29
-24,-53,-29,39,2,-41,-97,-63,-48,-24,-19,-29
-24,-53,-29,39,2,-41,-97,-63,-48,-24,-19,-34
-24,-53,-29,39,2,-41,-97,-63,-48,-29,-19,-34
-14,-63,-48,39,17,-56,-92,-68,-39,-29,-34,-34
-14,-63,-48,39,17,-56,-92,-68,-39,-29,-34,-34
-14,-63,-48,39,17,-56,-97,-73,-39,-29,-34,-34
-14,-63,-48,39,17,-56,-97,-73,-39,-29,-34,-39
-14,-53,-39,34,12,-46,-97,-78,-53,-29,-34,-29
-19,-58,-39,39,9,-48,-97,-78,-53,-34,-34,-29
-19,-58,-39,39,9,-48,-97,-78,-58,-34,-34,-24
-19,-58,-39,39,9,-48,-97,-78,-58,-34,-34,-24
-19,-58,-39,39,9,-48,-92,-73,-48,-34,-34,-34
-19,-58,-39,39,9,-48,-92,-73,-48,-34,-34,-39
-19,-58,-39,39,9,-48,-97,-78,-53,-34,-34,-39
-19,-58,-39,39,9,-48,-97,-82,-53,-34,-39,-39
-19,-58,-39,39,9,-48,-107,-92,-58,-43,-43,-39
-19,-63,-43,41,12,-53,-117,-97,-73,-43,-43,-39
-24,-63,-39,43,7,-51,-117,-97,-78,-48,-43,-39
-24,-63,-39,43,7,-51,-112,-97,-82,-53,-48,-43
-24,-73,-48,48,12,-61,-102,-87,-82,-43,-39,-48
-24,-73,-48,48,12,-61,-102,-92,-78,-48,-39,-48
-24,-78,-53,51,14,-65,-102,-92,-73,-48,-39,-43
-24,-78,-53,51,14,-65,-102,-92,-63,-48,-39,-43
-24,-73,-48,48,12,-61,-112,-102,-68,-68,-53,-34
-24,-68,-43,46,9,-56,-112,-102,-82,-68,-53,-34
-29,-63,-34,46,2,-48,-112,-102,-87,-58,-53,-34
-29,-58,-29,43,0,-43,-117,-102,-92,-58,-53,-34
-39,-68,-29,53,-4,-48,-107,-97,-87,-53,-43,-39
-39,-68,-29,53,-4,-48,-107,-97,-82,-53,-48,-43
-39,-68,-29,53,-4,-48,-107,-102,-78,-58,-48,-48
-39,-73,-34,56,-2,-53,-107,-102,-73,-58,-48,-53
-29,-68,-39,48,4,-53,-112,-112,-82,-68,-48,-48
-29,-63,-34,46,2,-48,-112,-112,-82,-68,-48,-43
-29,-58,-29,43,0,-43,-112,-112,-92,-63,-48,-43
-34,-53,-19,43,-7,-36,-112,-112,-97,-63,-48,-39
-24,-53,-29,39,2,-41,-107,-102,-92,-58,-53,-48
-24,-53,-29,39,2,-41,-107,-102,-82,-58,-53,-48
-19,-53,-34,36,7,-43,-112,-107,-73,-58,-53,-48
-19,-53,-34,36,7,-43,-112,-107,-68,-58,-53,-48
-14,-53,-39,34,12,-46,-117,-117,-68,-68,-43,-39
-4,-48,-43,26,19,-46,-117,-112,-73,-63,-39,-39
-4,-48,-43,26,19,-46,-117,-112,-82,-63,-39,-29
0,-48,-48,24,24,-48,-117,-112,-87,-63,-39,-29
-4,-53,-48,29,21,-51,-107,-97,-73,-58,-34,-29
-4,-53,-48,29,21,-51,-102,-92,-68,-53,-34,-29
-4,-53,-48,29,21,-51,-92,-78,-58,-48,-34,-34
-4,-53,-48,29,21,-51,-92,-68,-48,-43,-34,-34
9,-43,-53,17,31,-48,-87,-63,-48,-43,-19,-29
24,-39,-63,7,43,-51,-78,-58,-43,-34,-19,-24
34,-24,-58,-4,46,-41,-73,-43,-43,-34,-9,-9
43,-14,-58,-14,51,-36,-73,-39,-39,-24,-4,0
48,0,-48,-24,48,-24,-82,-29,-24,-19,-4,-4
58,14,-43,-36,51,-14,-82,-24,-19,-9,0,0
58,24,-34,-41,46,-4,-82,-24,-14,0,4,4
53,34,-19,-43,36,7,-78,-29,-4,4,9,9
53,39,-14,-46,34,12,-78,-34,-9,0,14,24
58,43,-14,-51,36,14,-82,-43,-14,-4,19,34
63,53,-9,-58,36,21,-87,-53,-19,-4,24,39
63,58,-4,-61,34,26,-92,-58,-24,-4,24,48
73,53,-19,-63,46,17,-102,-53,-14,4,24,39
73,48,-24,-61,48,12,-107,-63,-19,0,29,39
82,43,-39,-63,61,2,-112,-63,-24,0,29,39
87,39,-48,-63,68,-4,-112,-63,-24,-4,29,39
97,39,-58,-68,78,-9,-131,-87,-39,-14,14,39
102,34,-68,-68,85,-17,-136,-87,-48,-19,24,39
97,39,-58,-68,78,-9,-136,-87,-58,-19,29,48
87,34,-53,-61,70,-9,-126,-97,-58,-29,24,43
87,29,-58,-58,73,-14,-126,-97,-58,-29,19,39
87,24,-63,-56,75,-19,-126,-97,-58,-29,14,34
87,19,-68,-53,78,-24,-126,-97,-58,-29,9,29
68,4,-63,-36,65,-29,-122,-102,-58,-29,-4,19
58,0,-58,-29,58,-29,-117,-102,-58,-29,-4,19
48,0,-48,-24,48,-24,-107,-102,-58,-29,0,19
48,0,-48,-24,48,-24,-107,-107,-63,-29,0,24
39,14,-24,-26,31,-4,-117,-112,-68,-29,9,24
29,14,-14,-21,21,0,-117,-117,-68,-34,4,24
4,-4,-9,0,7,-7,-117,-117,-68,-43,0,19
-9,-19,-9,14,0,-14,-112,-126,-78,-53,-14,0
-29,-43,-14,36,-7,-29,-102,-131,-78,-63,-34,-9
-34,-58,-24,46,-4,-41,-102,-141,-82,-68,-43,-19
-43,-78,-34,61,-4,-56,-102,-141,-92,-78,-53,-29
-48,-92,-43,70,-2,-68,-92,-141,-97,-82,-63,-39
-48,-97,-48,73,0,-73,-92,-131,-117,-102,-63,-53
-48,-102,-53,75,2,-78,-87,-131,-117,-102,-68,-53
-53,-112,-58,82,2,-85,-87,-131,-117,-102,-68,-58
-58,-112,-53,85,-2,-82,-82,-131,-112,-102,-73,-63
-68,-117,-48,92,-9,-82,-82,-131,-102,-97,-82,-58
-68,-122,-53,95,-7,-87,-73,-136,-102,-97,-82,-63
-68,-122,-53,95,-7,-87,-82,-136,-102,-97,-82,-63
-68,-122,-53,95,-7,-87,-82,-136,-102,-102,-82,-63
-68,-122,-53,95,-7,-87,-82,-146,-122,-112,-78,-63
-68,-122,-53,95,-7,-87,-78,-141,-122,-112,-78,-63
-68,-122,-53,95,-7,-87,-78,-141,-117,-112,-78,-63
-68,-122,-53,95,-7,-87,-73,-141,-117,-107,-73,-58
-78,-122,-43,100,-17,-82,-73,-131,-117,-107,-82,-68
-78,-122,-43,100,-17,-82,-73,-141,-117,-112,-82,-73
-78,-126,-48,102,-14,-87,-73,-141,-117,-112,-82,-73
-78,-126,-48,102,-14,-87,-73,-141,-117,-112,-78,-73
-68,-126,-58,97,-4,-92,-82,-151,-126,-112,-78,-73
-68,-122,-53,95,-7,-87,-82,-146,-126,-112,-82,-73
-68,-122,-53,95,-7,-87,-82,-146,-126,-117,-87,-68
-73,-122,-48,97,-12,-85,-82,-151,-126,-117,-87,-68
-73,-136,-63,104,-4,-100,-78,-141,-117,-102,-87,-78
-73,-136,-63,104,-4,-100,-73,-141,-112,-102,-82,-82
-73,-136,-63,104,-4,-100,-73,-141,-112,-102,-78,-82
-73,-131,-58,102,-7,-95,-68,-141,-117,-107,-78,-82
-73,-131,-58,102,-7,-95,-78,-151,-131,-117,-78,-68
-73,-131,-58,102,-7,-95,-78,-151,-131,-117,-78,-68
-73,-131,-58,102,-7,-95,-78,-161,-126,-117,-78,-68
-73,-131,-58,102,-7,-95,-78,-151,-126,-117,-78,-68
-82,-131,-48,107,-17,-90,-82,-151,-122,-117,-82,-82
-82,-131,-48,107,-17,-90,-82,-156,-117,-117,-82,-82
-82,-131,-48,107,-17,-90,-82,-156,-112,-117,-82,-82
-82,-131,-48,107,-17,-90,-82,-156,-107,-112,-82,-82
-73,-131,-58,102,-7,-95,-92,-156,-126,-122,-82,-73
-73,-126,-53,100,-9,-90,-92,-151,-131,-117,-73,-63
-73,-122,-48,97,-12,-85,-92,-165,-131,-112,-73,-63
-73,-112,-39,92,-17,-75,-107,-175,-136,-117,-82,-68
-82,-102,-19,92,-31,-61,-112,-190,-136,-117,-82,-63
-87,-107,-19,97,-34,-63,-107,-195,-136,-117,-82,-73
-92,-112,-19,102,-36,-65,-107,-209,-151,-126,-87,-78
-92,-122,-29,107,-31,-75,-107,-219,-161,-136,-97,-78
-87,-131,-43,109,-21,-87,-107,-214,-170,-136,-87,-82
-68,-117,-48,92,-9,-82,-107,-200,-156,-122,-63,-58
-34,-87,-53,61,9,-70,-102,-170,-126,-78,-29,-24
-4,-48,-43,26,19,-46,-97,-117,-63,-19,34,34
58,4,-53,-31,56,-24,-82,-34,14,68,107,82
131,63,-68,-97,100,-2,-63,53,107,161,185,141
200,122,-78,-161,139,21,-63,131,200,239,258,195
258,170,-87,-214,173,41,-53,190,258,297,326,258
326,229,-97,-278,212,65,-68,234,297,346,395,317
390,287,-102,-339,246,92,-87,273,326,380,448,380
463,346,-117,-405,290,114,-92,312,341,390,473,409
527,405,-122,-466,324,141,-97,346,361,405,492,458
590,502,-87,-546,339,207,-112,370,385,434,536,517
639,580,-58,-610,348,261,-122,405,405,463,580,566
683,629,-53,-656,368,287,-141,419,409,453,585,575
683,639,-43,-661,363,297,-126,434,385,409,551,575
663,639,-24,-651,344,307,-102,453,361,351,488,556
629,644,14,-636,307,329,-58,522,370,341,458,546
551,639,87,-595,231,363,63,717,502,395,453,536
439,566,126,-502,156,346,244,976,668,453,419,468
331,478,146,-405,92,312,375,1117,746,458,356,375
209,434,224,-322,-7,329,439,1137,751,429,312,322
24,414,390,-219,-183,402,527,1137,751,414,278,278
-204,366,570,-80,-387,468,629,1132,746,414,229,200
-385,326,712,29,-549,519,712,1088,727,395,175,131
-483,331,814,75,-649,573,732,1005,673,366,165,122
-527,351,878,87,-702,614,692,883,605,346,170,141
-536,326,863,104,-700,595,658,775,546,312,161,117
-512,244,756,134,-634,500,653,756,517,283,112,63
-478,165,644,156,-561,405,702,824,536,263,78,4
-463,107,570,178,-517,339,780,927,605,283,73,-29
-434,29,463,202,-448,246,858,1039,653,292,58,-73
-414,-73,341,244,-378,134,917,1146,697,292,24,-126
-400,-175,224,287,-312,24,966,1239,732,283,-14,-175
-395,-278,117,336,-256,-80,1024,1307,736,263,-48,-219
-395,-366,29,380,-212,-168,1078,1381,751,248,-78,-268
-400,-434,-34,417,-183,-234,1132,1444,775,248,-97,-297
-400,-448,-48,424,-175,-248,1171,1478,780,253,-97,-297
-419,-463,-43,441,-187,-253,1229,1522,795,244,-102,-317
-439,-507,-68,473,-185,-287,1293,1610,824,239,-117,-331
-439,-556,-117,497,-161,-336,1361,1693,844,239,-126,-351
-444,-600,-156,522,-143,-378,1434,1790,858,229,-136,-356
-448,-649,-200,549,-124,-424,1537,1917,878,224,-146,-370
-463,-722,-258,592,-102,-490,1620,2049,878,209,-161,-395
-473,-785,-312,629,-80,-549,1712,2171,888,190,-190,-424
-502,-854,-351,678,-75,-602,1815,2288,897,156,-224,-468
-527,-922,-395,724,-65,-658,1903,2361,888,136,-258,-497
-541,-976,-434,758,-53,-705,1976,2410,883,126,-273,-522
-551,-985,-434,768,-58,-710,2015,2400,854,107,-297,-522
-561,-980,-419,771,-70,-700,1995,2327,800,87,-297,-527
-551,-951,-400,751,-75,-675,1971,2244,761,68,-292,-512
-536,-917,-380,727,-78,-649,1947,2156,732,63,-278,-478
-522,-863,-341,692,-90,-602,1893,2059,688,68,-253,-439
-507,-810,-302,658,-102,-556,1869,1981,658,68,-234,-409
-502,-761,-258,631,-122,-509,1859,1917,658,87,-204,-385
-483,-702,-219,592,-131,-461,1830,1834,644,97,-185,-356
-458,-629,-170,544,-143,-400,1766,1722,614,102,-161,-322
-414,-541,-126,478,-143,-334,1649,1566,575,112,-122,-263
-375,-439,-63,407,-156,-251,1468,1346,517,107,-82,-209
-336,-375,-39,356,-148,-207,1283,1127,434,87,-68,-180
-312,-341,-29,326,-141,-185,1146,932,341,63,-68,-156
-287,-312,-24,300,-131,-168,990,751,263,29,-63,-141
-248,-268,-19,258,-114,-143,810,546,195,-9,-68,-126
-219,-234,-14,226,-102,-124,653,385,126,-34,-68,-107
-200,-204,-4,202,-97,-104,507,234,68,-48,-68,-102
-165,-180,-14,173,-75,-97,326,73,0,-68,-58,-92
-126,-136,-9,131,-58,-73,156,-58,-48,-92,-58,-78
-92,-102,-9,97,-41,-56,53,-122,-82,-102,-43,-58
-63,-82,-19,73,-21,-51,-4,-151,-102,-102,-39,-39
-43,-63,-19,53,-12,-41,-63,-180,-112,-97,-34,-34
-34,-53,-19,43,-7,-36,-97,-195,-122,-87,-39,-34
-29,-43,-14,36,-7,-29,-112,-200,-122,-82,-39,-34
-29,-43,-14,36,-7,-29,-122,-214,-126,-78,-39,-29
-24,-39,-14,31,-4,-26,-141,-224,-122,-73,-34,-29
-19,-34,-14,26,-2,-24,-151,-234,-122,-73,-34,-29
-4,-29,-24,17,9,-26,-175,-263,-136,-78,-24,-14
0,-24,-24,12,12,-24,-185,-278,-151,-78,-24,-14
0,-19,-19,9,9,-19,-195,-287,-156,-78,-24,-4
4,-14,-19,4,12,-17,-204,-292,-161,-73,-24,-4
0,-19,-19,9,9,-19,-204,-292,-156,-63,-24,-14
4,-14,-19,4,12,-17,-209,-302,-165,-63,-19,-14
4,-14,-19,4,12,-17,-214,-312,-165,-63,-19,-9
4,-14,-19,4,12,-17,-214,-312,-165,-63,-19,-4
19,4,-14,-12,17,-4,-219,-331,-180,-73,-24,-4
19,4,-14,-12,17,-4,-224,-346,-190,-78,-14,0
19,9,-9,-14,14,0,-234,-346,-195,-82,-14,4
24,9,-14,-17,19,-2,-239,-356,-200,-82,-14,4
29,4,-24,-17,26,-9,-244,-346,-190,-82,-14,0
29,9,-19,-19,24,-4,-244,-361,-195,-82,-9,0
29,9,-19,-19,24,-4,-244,-361,-195,-82,-9,4
34,9,-24,-21,29,-7,-248,-366,-195,-82,-9,9
39,19,-19,-29,29,0,-253,-380,-204,-92,-4,29
48,29,-19,-39,34,4,-258,-385,-214,-97,-4,29
48,34,-14,-41,31,9,-263,-390,-214,-97,0,34
53,39,-14,-46,34,12,-273,-395,-214,-97,0,34
43,43,0,-43,21,21,-283,-390,-204,-87,4,29
48,48,0,-48,24,24,-287,-395,-209,-82,4,29
48,53,4,-51,21,29,-297,-405,-209,-82,4,29
58,58,0,-58,29,29,-307,-409,-209,-82,9,34
63,53,-9,-58,36,21,-317,-424,-219,-87,9,43
63,58,-4,-61,34,26,-331,-434,-224,-87,14,43
68,63,-4,-65,36,29,-346,-439,-229,-87,24,48
73,68,-4,-70,39,31,-361,-444,-229,-82,24,58
73,63,-9,-68,41,26,-366,-444,-229,-82,24,58
78,73,-4,-75,41,34,-375,-448,-234,-82,24,63
82,78,-4,-80,43,36,-390,-458,-234,-82,34,63
87,82,-4,-85,46,39,-400,-468,-234,-78,39,63
92,97,4,-95,43,51,-409,-488,-234,-78,29,68
97,102,4,-100,46,53,-424,-492,-248,-78,34,73
102,107,4,-104,48,56,-439,-502,-253,-78,39,78
107,122,14,-114,46,68,-439,-512,-253,-78,39,87
122,112,-9,-117,65,51,-458,-507,-258,-68,43,87
126,122,-4,-124,65,58,-468,-517,-258,-68,48,92
131,126,-4,-129,68,61,-478,-527,-268,-68,53,97
136,131,-4,-134,70,63,-488,-536,-268,-68,53,102
146,141,-4,-143,75,68,-492,-556,-268,-73,58,107
151,146,-4,-148,78,70,-507,-566,-268,-73,58,112
156,151,-4,-153,80,73,-512,-575,-273,-78,68,112
161,165,4,-163,78,85,-517,-585,-287,-78,68,122
156,170,14,-163,70,92,-527,-585,-292,-73,78,131
161,180,19,-170,70,100,-531,-605,-292,-73,78,136
165,180,14,-173,75,97,-541,-610,-297,-73,78,141
175,185,9,-180,82,97,-546,-619,-297,-73,87,141
185,190,4,-187,90,97,-546,-634,-297,-73,78,136
190,200,9,-195,90,104,-551,-639,-302,-68,82,141
195,204,9,-200,92,107,-551,-649,-307,-68,82,146
200,209,9,-204,95,109,-556,-658,-317,-68,92,151
204,219,14,-212,95,117,-570,-668,-322,-68,92,161
209,229,19,-219,95,124,-575,-683,-322,-68,87,165
209,229,19,-219,95,124,-580,-688,-326,-68,87,165
209,234,24,-222,92,129,-585,-697,-326,-68,92,165
204,239,34,-222,85,136,-585,-707,-322,-68,92,165
214,244,29,-229,92,136,-595,-712,-322,-68,92,165
219,253,34,-236,92,143,-600,-722,-326,-68,97,165
224,258,34,-241,95,146,-610,-727,-331,-68,97,170
234,263,29,-248,102,146,-619,-736,-326,-63,102,180
234,268,34,-251,100,151,-619,-741,-326,-63,102,185
234,273,39,-253,97,156,-624,-741,-326,-63,102,185
234,278,43,-256,95,161,-629,-741,-326,-63,107,185
239,283,43,-261,97,163,-629,-732,-326,-58,112,180
244,283,39,-263,102,161,-629,-732,-317,-53,112,180
248,287,39,-268,104,163,-634,-732,-317,-48,112,180
248,292,43,-270,102,168,-634,-732,-317,-48,122,180
244,297,53,-270,95,175,-634,-741,-317,-48,122,200
244,302,58,-273,92,180,-634,-736,-317,-43,122,200
244,302,58,-273,92,180,-629,-732,-307,-34,122,200
244,302,58,-273,92,180,-619,-722,-297,-29,131,204
244,302,58,-273,92,180,-619,-712,-278,-24,131,195
244,302,58,-273,92,180,-619,-707,-268,-14,136,195
244,302,58,-273,92,180,-614,-697,-258,-14,136,195
244,302,58,-273,92,180,-605,-688,-258,-9,136,195
244,307,63,-275,90,185,-600,-678,-253,-4,136,204
234,307,73,-270,80,190,-590,-668,-244,0,141,204
224,302,78,-263,73,190,-590,-653,-234,4,141,204
224,302,78,-263,73,190,-580,-639,-219,9,141,204
234,297,63,-265,85,180,-570,-624,-204,9,141,190
229,287,58,-258,85,173,-561,-610,-185,14,146,185
229,287,58,-258,85,173,-551,-595,-180,19,146,180
224,287,63,-256,80,175,-541,-575,-175,24,141,180
219,283,63,-251,78,173,-527,-556,-170,19,141,180
209,273,63,-241,73,168,-517,-541,-165,19,141,185
204,263,58,-234,73,161,-497,-531,-161,24,136,185
200,258,58,-229,70,158,-483,-512,-151,29,136,190
195,239,43,-217,75,141,-468,-492,-136,34,131,175
185,229,43,-207,70,136,-458,-473,-126,43,131,170
180,229,48,-204,65,139,-453,-448,-102,48,131,161
170,219,48,-195,61,134,-439,-424,-87,58,126,156
165,219,53,-192,56,136,-419,-414,-87,48,136,151
161,209,48,-185,56,129,-405,-390,-87,53,131,146
156,200,43,-178,56,122,-385,-370,-82,53,126,141
156,195,39,-175,58,117,-370,-346,-73,53,126,141
151,185,34,-168,58,109,-356,-317,-63,63,117,122
136,175,39,-156,48,107,-341,-302,-48,63,112,112
131,165,34,-148,48,100,-322,-283,-39,63,102,107
126,151,24,-139,51,87,-307,-263,-24,68,92,92
122,141,19,-131,51,80,-287,-253,-24,58,92,102
112,131,19,-122,46,75,-273,-239,-19,58,87,97
102,122,19,-112,41,70,-258,-224,-14,58,82,92
92,112,19,-102,36,65,-244,-209,-14,58,78,87
82,102,19,-92,31,61,-229,-185,0,58,73,78
73,92,19,-82,26,56,-209,-170,9,58,68,68
68,82,14,-75,26,48,-195,-146,19,53,63,58
68,73,4,-70,31,39,-185,-131,19,43,58,53
58,73,14,-65,21,43,-180,-117,14,29,63,58
53,63,9,-58,21,36,-165,-112,14,29,58,53
43,58,14,-51,14,36,-156,-102,9,29,53,53
39,48,9,-43,14,29,-151,-92,4,24,48,48
34,39,4,-36,14,21,-131,-73,14,24,39,34
29,24,-4,-26,17,9,-122,-63,19,24,34,24
24,24,0,-24,12,12,-112,-53,29,29,29,19
19,19,0,-19,9,9,-102,-53,34,34,24,9
24,9,-14,-17,19,-2,-112,-48,24,19,19,9
19,4,-14,-12,17,-4,-102,-48,24,14,19,9
19,0,-19,-9,19,-9,-102,-48,14,14,19,9
19,-4,-24,-7,21,-14,-92,-48,14,14,19,9
4,-9,-14,2,9,-12,-82,-43,24,14,14,4
0,-14,-14,7,7,-14,-73,-39,29,9,9,0
0,-19,-19,9,9,-19,-68,-34,29,9,4,-9
-4,-24,-19,14,7,-21,-63,-24,29,9,4,-9
-14,-29,-14,21,0,-21,-58,-29,19,0,0,-9
-14,-29,-14,21,0,-21,-58,-29,19,0,0,-9
-14,-34,-19,24,2,-26,-58,-29,9,0,-4,-9
-14,-34,-19,24,2,-26,-58,-24,9,0,-4,-9
-9,-34,-24,21,7,-29,-58,-24,9,0,-4,-9
-9,-43,-34,26,12,-39,-53,-24,19,0,-4,-9
-9,-43,-34,26,12,-39,-48,-24,19,-9,-9,-14
-9,-43,-34,26,12,-39,-43,-24,9,-9,-9,-19
-9,-34,-24,21,7,-29,-53,-24,9,0,-9,-19
-14,-39,-24,26,4,-31,-53,-24,9,0,-9,-19
-14,-39,-24,26,4,-31,-58,-24,9,0,-9,-14
-14,-39,-24,26,4,-31,-58,-19,4,0,-9,-14
-19,-48,-29,34,4,-39,-48,-19,4,0,-9,-19
-19,-48,-29,34,4,-39,-48,-24,4,-9,-9,-19
-19,-48,-29,34,4,-39,-48,-24,9,-9,-14,-19
-19,-48,-29,34,4,-39,-48,-19,14,-14,-14,-24
-19,-53,-34,36,7,-43,-58,-19,14,-14,-14,-24
-19,-53,-34,36,7,-43,-58,-19,9,-9,-14,-24
-14,-53,-39,34,12,-46,-63,-19,9,-9,-14,-24
-14,-53,-39,34,12,-46,-73,-19,4,-9,-14,-19
-14,-53,-39,34,12,-46,-73,-24,-4,-4,-9,-19
-19,-53,-34,36,7,-43,-73,-24,0,-4,-9,-24
-19,-58,-39,39,9,-48,-73,-24,0,-4,-9,-24
-19,-58,-39,39,9,-48,-68,-24,0,-9,-9,-24
-24,-58,-34,41,4,-46,-68,-24,9,0,-9,-24
-24,-58,-34,41,4,-46,-68,-24,9,4,-9,-24
-24,-58,-34,41,4,-46,-78,-24,4,4,-9,-24
-24,-58,-34,41,4,-46,-82,-24,4,4,-9,-24
-14,-58,-43,36,14,-51,-87,-24,0,-4,-19,-24
-14,-58,-43,36,14,-51,-87,-29,-4,-4,-19,-24
-14,-58,-43,36,14,-51,-87,-29,-9,-9,-19,-24
-14,-58,-43,36,14,-51,-82,-29,-9,-9,-19,-24
-14,-63,-48,39,17,-56,-82,-24,-4,-9,-19,-24
-14,-63,-48,39,17,-56,-82,-24,4,-9,-19,-29
-14,-63,-48,39,17,-56,-82,-34,4,-9,-19,-29
-14,-63,-48,39,17,-56,-97,-34,-4,-9,-24,-29
-14,-53,-39,34,12,-46,-97,-34,-9,-9,-14,-24
-14,-53,-39,34,12,-46,-102,-39,-14,-9,-14,-24
-14,-53,-39,34,12,-46,-102,-39,-24,-9,-14,-29
-14,-53,-39,34,12,-46,-102,-39,-34,-19,-14,-29
-14,-53,-39,34,12,-46,-97,-39,-24,-19,-24,-29
-14,-53,-39,34,12,-46,-97,-39,-19,-19,-29,-29
-14,-53,-39,34,12,-46,-102,-43,-14,-14,-29,-29
-14,-53,-39,34,12,-46,-112,-53,-14,-14,-29,-29
-14,-43,-29,29,7,-36,-112,-63,-34,-14,-19,-29
-14,-43,-29,29,7,-36,-117,-63,-39,-24,-19,-29
-14,-43,-29,29,7,-36,-117,-63,-39,-24,-19,-34
-14,-43,-29,29,7,-36,-117,-63,-39,-29,-19,-34
-14,-53,-39,34,12,-46,-112,-58,-29,-19,-34,-34
-14,-53,-39,34,12,-46,-112,-58,-29,-19,-34,-34
-14,-53,-39,34,12,-46,-117,-63,-29,-19,-34,-34
-14,-53,-39,34,12,-46,-117,-63,-29,-19,-34,-39
-4,-43,-39,24,17,-41,-117,-78,-39,-29,-34,-39
-9,-48,-39,29,14,-43,-117,-78,-43,-34,-34,-39
-9,-48,-39,29,14,-43,-117,-78,-53,-34,-34,-34
-9,-48,-39,29,14,-43,-117,-78,-58,-34,-34,-34
-19,-58,-39,39,9,-48,-112,-73,-43,-34,-34,-43
-19,-58,-39,39,9,-48,-112,-73,-39,-34,-34,-48
-19,-58,-39,39,9,-48,-117,-78,-39,-34,-34,-48
-19,-58,-39,39,9,-48,-117,-82,-34,-34,-39,-48
-19,-58,-39,39,9,-48,-117,-82,-39,-43,-34,-39
-19,-63,-43,41,12,-53,-126,-87,-53,-43,-34,-39
-24,-63,-39,43,7,-51,-126,-87,-58,-48,-34,-39
-24,-63,-39,43,7,-51,-122,-87,-63,-53,-39,-43
-24,-63,-39,43,7,-51,-122,-87,-63,-48,-48,-48
-24,-63,-39,43,7,-51,-122,-92,-58,-48,-48,-48
-24,-68,-43,46,9,-56,-122,-92,-53,-43,-48,-43
-24,-68,-43,46,9,-56,-122,-92,-43,-39,-48,-43
-14,-68,-53,41,19,-61,-131,-102,-48,-58,-43,-34
-14,-68,-53,41,19,-61,-131,-102,-63,-58,-43,-34
-19,-68,-48,43,14,-58,-131,-102,-68,-48,-43,-34
-19,-68,-48,43,14,-58,-136,-102,-73,-48,-43,-34
-29,-68,-39,48,4,-53,-126,-97,-63,-53,-43,-43
-29,-68,-39,48,4,-53,-126,-97,-63,-53,-48,-43
-29,-68,-39,48,4,-53,-126,-102,-63,-58,-48,-43
-29,-73,-43,51,7,-58,-126,-102,-63,-58,-48,-43
-19,-73,-53,46,17,-63,-131,-112,-73,-68,-48,-34
-19,-73,-53,46,17,-63,-131,-112,-73,-68,-48,-34
-19,-73,-53,46,17,-63,-131,-112,-82,-63,-48,-39
-24,-73,-48,48,12,-61,-131,-112,-87,-63,-48,-39
-24,-73,-48,48,12,-61,-126,-102,-78,-58,-53,-48
-24,-73,-48,48,12,-61,-126,-102,-73,-58,-53,-48
-19,-73,-53,46,17,-63,-131,-107,-68,-58,-53,-48
-19,-73,-53,46,17,-63,-131,-107,-68,-58,-53,-48
-14,-63,-48,39,17,-56,-136,-117,-68,-68,-53,-48
-4,-58,-53,31,24,-56,-136,-112,-73,-63,-48,-48
-4,-58,-53,31,24,-56,-136,-112,-82,-63,-48,-39
0,-58,-58,29,29,-58,-136,-112,-87,-63,-48,-39
-4,-53,-48,29,21,-51,-146,-102,-82,-53,-43,-39
-4,-53,-48,29,21,-51,-141,-102,-78,-53,-43,-39
-4,-53,-48,29,21,-51,-131,-92,-68,-53,-43,-43
-4,-53,-48,29,21,-51,-131,-87,-58,-53,-43,-43
-4,-58,-53,31,24,-56,-126,-92,-53,-63,-39,-34
4,-58,-63,26,34,-61,-117,-87,-53,-53,-39,-34
9,-48,-58,19,34,-53,-112,-73,-58,-53,-29,-24
14,-43,-58,14,36,-51,-112,-68,-58,-43,-24,-19
24,-39,-63,7,43,-51,-107,-43,-39,-39,-24,-14
39,-24,-63,-7,51,-43,-102,-34,-29,-29,-19,-9
43,-14,-58,-14,51,-36,-97,-29,-19,-19,-14,-4
43,-4,-48,-19,46,-26,-87,-29,-4,-14,-9,0
53,4,-48,-29,51,-21,-87,-29,-14,-14,4,14
58,14,-43,-36,51,-14,-92,-34,-14,-14,9,24
63,29,-34,-46,48,-2,-97,-39,-14,-9,14,29
63,39,-24,-51,43,7,-102,-39,-14,-4,14,39
63,43,-19,-53,41,12,-102,-43,-4,4,24,29
63,48,-14,-56,39,17,-107,-53,-9,0,29,29
73,53,-19,-63,46,17,-112,-53,-14,0,29,29
78,58,-19,-68,48,19,-112,-53,-14,-4,29,29
78,58,-19,-68,48,19,-131,-58,-29,-4,24,29
82,53,-29,-68,56,12,-136,-68,-29,-9,24,29
82,53,-29,-68,56,12,-151,-78,-34,-9,24,29
87,48,-39,-68,63,4,-165,-87,-39,-14,19,29
102,43,-58,-73,80,-7,-165,-97,-58,-34,19,34
102,53,-48,-78,75,2,-165,-87,-53,-24,19,34
97,48,-48,-73,73,0,-156,-78,-39,-19,9,29
92,43,-48,-68,70,-2,-156,-82,-39,-29,0,24
87,39,-48,-63,68,-4,-156,-87,-39,-29,0,19
82,34,-48,-58,65,-7,-156,-92,-39,-29,0,14
78,29,-48,-53,63,-9,-156,-97,-39,-29,0,9
68,19,-48,-43,58,-14,-141,-102,-53,-39,4,4
58,19,-39,-39,48,-9,-136,-102,-58,-39,4,9
48,24,-24,-36,36,0,-126,-102,-63,-39,9,14
48,29,-19,-39,34,4,-126,-107,-73,-39,9,24
29,29,0,-29,14,14,-126,-112,-73,-39,0,14
19,24,4,-21,7,14,-126,-117,-68,-43,-4,14
-4,0,4,2,-4,2,-126,-117,-63,-53,-9,9
-19,-19,0,19,-9,-9,-122,-126,-68,-63,-24,-9
-19,-24,-4,21,-7,-14,-131,-131,-82,-82,-24,-19
-24,-39,-14,31,-4,-26,-131,-141,-92,-87,-34,-29
-34,-58,-24,46,-4,-41,-131,-141,-107,-97,-43,-39
-39,-73,-34,56,-2,-53,-122,-141,-117,-102,-53,-48
-58,-78,-19,68,-19,-48,-112,-141,-122,-107,-63,-63
-58,-82,-24,70,-17,-53,-107,-141,-117,-102,-68,-63
-63,-92,-29,78,-17,-61,-107,-141,-112,-97,-68,-68
-68,-92,-24,80,-21,-58,-102,-141,-102,-92,-73,-73
-58,-97,-39,78,-9,-68,-112,-141,-107,-102,-73,-68
-58,-102,-43,80,-7,-73,-102,-146,-112,-107,-73,-73
-58,-102,-43,80,-7,-73,-112,-146,-117,-112,-73,-73
-58,-102,-43,80,-7,-73,-112,-146,-122,-122,-73,-73
-68,-102,-34,85,-17,-68,-102,-146,-126,-112,-78,-82
-68,-102,-34,85,-17,-68,-97,-141,-122,-112,-78,-82
-68,-102,-34,85,-17,-68,-97,-141,-112,-112,-78,-82
-68,-102,-34,85,-17,-68,-92,-141,-107,-107,-73,-78
-68,-102,-34,85,-17,-68,-102,-151,-112,-117,-73,-68
-68,-102,-34,85,-17,-68,-102,-161,-117,-122,-73,-73
-68,-107,-39,87,-14,-73,-102,-161,-122,-122,-73,-73
-68,-107,-39,87,-14,-73,-102,-161,-126,-122,-68,-73
-68,-117,-48,92,-9,-82,-102,-151,-122,-117,-78,-82
-68,-112,-43,90,-12,-78,-102,-146,-117,-112,-82,-82
-68,-112,-43,90,-12,-78,-102,-146,-112,-112,-87,-78
-73,-112,-39,92,-17,-75,-102,-151,-107,-107,-87,-78
-63,-117,-53,90,-4,-85,-102,-161,-112,-112,-78,-78
-63,-117,-53,90,-4,-85,-102,-161,-112,-112,-73,-82
-63,-117,-53,90,-4,-85,-107,-161,-117,-112,-68,-82
-63,-112,-48,87,-7,-80,-107,-161,-126,-117,-68,-82
-73,-112,-39,92,-17,-75,-107,-156,-126,-107,-78,-87
-73,-112,-39,92,-17,-75,-107,-151,-122,-107,-78,-87
-73,-112,-39,92,-17,-75,-107,-156,-112,-107,-78,-87
-73,-112,-39,92,-17,-75,-107,-141,-107,-107,-78,-87
-73,-112,-39,92,-17,-75,-112,-146,-112,-117,-73,-82
-73,-112,-39,92,-17,-75,-112,-156,-117,-117,-73,-82
-73,-112,-39,92,-17,-75,-112,-161,-122,-117,-73,-82
-73,-112,-39,92,-17,-75,-112,-165,-126,-112,-73,-82
-63,-112,-48,87,-7,-80,-112,-156,-126,-112,-73,-73
-63,-107,-43,85,-9,-75,-112,-161,-112,-107,-73,-82
-73,-112,-39,92,-17,-75,-122,-165,-112,-112,-73,-82
-73,-102,-29,87,-21,-65,-117,-175,-117,-117,-73,-78
-73,-102,-29,87,-21,-65,-122,-190,-136,-117,-73,-82
-78,-107,-29,92,-24,-68,-126,-214,-156,-136,-73,-82
-82,-112,-29,97,-26,-70,-136,-229,-180,-146,-78,-78
-73,-112,-39,92,-17,-75,-136,-229,-180,-146,-78,-68
-68,-92,-24,80,-21,-58,-136,-204,-161,-117,-68,-63
-39,-78,-39,58,0,-58,-126,-170,-117,-92,-43,-48
-14,-39,-24,26,4,-31,-112,-131,-58,-39,9,-14
43,9,-34,-26,39,-12,-107,-68,14,39,73,43
107,63,-43,-85,75,9,-92,24,102,126,165,112
180,122,-58,-151,119,31,-82,102,165,200,244,180
248,170,-78,-209,163,46,-82,161,229,258,307,234
307,239,-68,-273,187,85,-102,200,268,317,366,297
375,297,-78,-336,226,109,-117,244,307,356,424,356
448,346,-102,-397,275,122,-117,292,346,380,458,390
512,385,-126,-448,319,129,-112,341,370,400,483,429
585,473,-112,-529,348,180,-126,375,390,424,531,488
639,570,-68,-605,353,251,-141,390,414,453,575,546
688,639,-48,-663,368,295,-161,405,405,444,580,575
722,668,-53,-695,387,307,-170,409,380,405,566,595
712,668,-43,-690,378,312,-146,424,336,351,512,566
673,658,-14,-666,344,322,-102,473,341,322,468,546
600,663,63,-631,268,363,-9,619,448,361,458,527
502,610,107,-556,197,358,161,883,619,424,444,478
390,517,126,-453,131,322,302,1083,736,453,380,390
283,458,175,-370,53,317,375,1117,746,429,326,317
131,434,302,-283,-85,368,448,1117,732,409,302,283
-92,395,488,-151,-290,441,546,1107,732,405,258,239
-312,346,658,-17,-485,502,649,1083,707,385,209,170
-434,346,780,43,-607,563,692,1010,678,366,175,131
-492,370,863,61,-678,617,673,907,634,356,185,141
-527,361,888,82,-707,624,634,805,585,336,180,131
-517,297,814,109,-666,556,629,756,546,302,151,78
-483,214,697,134,-590,456,663,785,546,283,102,14
-468,146,614,161,-541,380,732,873,585,283,78,-14
-444,87,531,178,-488,309,800,985,634,292,73,-48
-405,0,405,202,-405,202,858,1088,663,283,48,-92
-385,-102,283,244,-334,90,917,1185,697,283,14,-146
-380,-214,165,297,-273,-24,976,1268,722,273,-24,-204
-385,-317,68,351,-226,-124,1034,1337,746,263,-68,-268
-395,-395,0,395,-197,-197,1088,1410,780,248,-87,-297
-400,-424,-24,412,-187,-224,1132,1454,795,248,-97,-307
-400,-429,-29,414,-185,-229,1171,1488,800,244,-97,-307
-419,-453,-34,436,-192,-244,1229,1542,805,234,-102,-326
-419,-507,-87,463,-165,-297,1293,1620,805,229,-117,-341
-419,-556,-136,488,-141,-346,1361,1722,824,219,-126,-351
-434,-600,-165,517,-134,-383,1444,1839,849,209,-136,-366
-448,-668,-219,558,-114,-444,1546,1966,868,204,-156,-390
-463,-732,-268,597,-97,-500,1649,2098,897,200,-180,-424
-483,-805,-322,644,-80,-563,1742,2220,897,170,-219,-473
-492,-863,-370,678,-61,-617,1825,2308,878,146,-253,-497
-517,-922,-405,719,-56,-663,1893,2371,868,117,-268,-517
-531,-956,-424,744,-53,-690,1947,2381,834,87,-283,-531
-541,-956,-414,749,-63,-685,1956,2332,785,68,-297,-522
-541,-941,-400,741,-70,-671,1937,2249,751,58,-287,-517
-531,-902,-370,717,-80,-636,1912,2166,722,58,-283,-492
-527,-868,-341,697,-92,-605,1878,2088,692,53,-268,-478
-512,-814,-302,663,-104,-558,1844,2000,678,58,-253,-439
-497,-761,-263,629,-117,-512,1830,1932,658,58,-224,-409
-483,-702,-219,592,-131,-461,1800,1849,639,68,-204,-385
-453,-634,-180,544,-136,-407,1761,1756,595,68,-165,-336
-419,-551,-131,485,-143,-341,1668,1615,556,73,-131,-283
-385,-453,-68,419,-158,-261,1512,1429,497,73,-92,-234
-336,-370,-34,353,-151,-202,1332,1200,439,68,-73,-200
-307,-326,-19,317,-143,-173,1176,1010,366,39,-68,-180
-292,-302,-9,297,-141,-156,1039,834,302,14,-68,-175
-268,-273,-4,270,-131,-139,873,634,224,-9,-63,-151
-229,-229,0,229,-114,-114,702,448,146,-29,-58,-126
-200,-195,4,197,-102,-95,546,297,78,-63,-58,-107
-170,-165,4,168,-87,-80,380,126,0,-87,-58,-92
-126,-122,4,124,-65,-58,200,-24,-68,-107,-58,-82
-87,-78,9,82,-48,-34,58,-107,-107,-122,-58,-68
-63,-63,0,63,-31,-31,-4,-151,-112,-112,-53,-58
-43,-53,-9,48,-17,-31,-53,-170,-112,-102,-48,-58
-34,-43,-9,39,-12,-26,-92,-180,-112,-97,-43,-43
-24,-24,0,24,-12,-12,-126,-195,-112,-97,-39,-43
-19,-14,4,17,-12,-4,-141,-219,-122,-102,-29,-34
-19,-14,4,17,-12,-4,-151,-234,-136,-97,-29,-29
-14,-9,4,12,-9,-2,-170,-244,-141,-92,-24,-29
-9,-4,4,7,-7,0,-180,-253,-151,-92,-24,-29
-4,0,4,2,-4,2,-195,-263,-151,-87,-24,-24
0,4,4,-2,-2,4,-204,-278,-161,-87,-24,-24
0,9,9,-4,-4,9,-214,-287,-161,-87,-24,-14
4,14,9,-9,-2,12,-224,-292,-161,-82,-24,-14
19,19,0,-19,9,9,-224,-312,-175,-82,-24,-14
24,24,0,-24,12,12,-229,-322,-185,-82,-19,-14
24,24,0,-24,12,12,-234,-331,-185,-82,-19,-9
24,24,0,-24,12,12,-234,-331,-185,-82,-19,-4
19,34,14,-26,2,24,-239,-341,-185,-82,-14,-14
19,34,14,-26,2,24,-244,-356,-190,-87,-4,-9
19,39,19,-29,0,29,-253,-356,-190,-92,-4,-4
24,39,14,-31,4,26,-258,-366,-190,-92,-4,-4
34,43,9,-39,12,26,-263,-366,-200,-102,-4,0
39,48,9,-43,14,29,-263,-380,-204,-102,0,0
43,48,4,-46,19,26,-263,-380,-204,-102,0,4
53,48,-4,-51,29,21,-268,-385,-204,-102,0,9
53,48,-4,-51,29,21,-273,-390,-204,-92,4,19
58,58,0,-58,29,29,-278,-395,-214,-97,4,19
53,63,9,-58,21,36,-283,-400,-214,-97,9,24
53,68,14,-61,19,41,-292,-405,-214,-97,9,24
53,73,19,-63,17,46,-302,-409,-214,-87,14,29
58,78,19,-68,19,48,-307,-414,-219,-82,14,29
58,82,24,-70,17,53,-317,-424,-219,-82,14,29
68,87,19,-78,24,53,-326,-429,-219,-82,19,34
73,92,19,-82,26,56,-326,-434,-209,-87,19,43
73,97,24,-85,24,61,-341,-444,-214,-87,24,43
78,102,24,-90,26,63,-356,-448,-219,-87,34,48
82,107,24,-95,29,65,-370,-453,-219,-82,34,58
92,112,19,-102,36,65,-385,-453,-229,-82,24,68
97,122,24,-109,36,73,-395,-458,-234,-82,24,73
102,126,24,-114,39,75,-409,-468,-234,-82,34,73
107,131,24,-119,41,78,-419,-478,-234,-78,39,73
112,136,24,-124,43,80,-429,-488,-234,-78,39,78
117,141,24,-129,46,82,-444,-492,-248,-78,43,82
122,146,24,-134,48,85,-458,-502,-253,-78,48,87
126,161,34,-143,46,97,-458,-512,-253,-78,48,97
122,161,39,-141,41,100,-468,-527,-248,-78,53,87
126,170,43,-148,41,107,-478,-536,-248,-78,58,92
131,175,43,-153,43,109,-488,-546,-258,-78,63,97
136,180,43,-158,46,112,-497,-556,-258,-78,63,102
156,190,34,-173,61,112,-502,-566,-263,-73,68,107
161,195,34,-178,63,114,-517,-575,-268,-73,68,112
165,200,34,-183,65,117,-522,-585,-278,-78,78,112
170,214,43,-192,63,129,-527,-595,-297,-78,78,122
165,219,53,-192,56,136,-527,-595,-297,-73,87,122
170,229,58,-200,56,143,-531,-614,-292,-73,87,126
175,229,53,-202,61,141,-541,-619,-292,-73,87,131
185,234,48,-209,68,141,-546,-629,-287,-73,97,131
195,239,43,-217,75,141,-556,-653,-292,-82,87,141
200,248,48,-224,75,148,-561,-658,-302,-78,92,151
204,253,48,-229,78,151,-561,-668,-312,-78,92,161
209,258,48,-234,80,153,-566,-678,-326,-78,102,170
214,268,53,-241,80,161,-570,-678,-326,-73,102,175
219,278,58,-248,80,168,-575,-692,-322,-68,97,175
219,278,58,-248,80,168,-580,-697,-322,-63,97,170
219,283,63,-251,78,173,-585,-707,-317,-58,102,165
224,297,73,-261,75,185,-595,-727,-326,-68,112,175
234,302,68,-268,82,185,-605,-732,-331,-68,112,175
239,312,73,-275,82,192,-610,-741,-341,-68,117,175
244,317,73,-280,85,195,-619,-746,-351,-68,117,180
234,312,78,-273,78,195,-610,-736,-341,-63,112,180
234,317,82,-275,75,200,-610,-741,-336,-63,112,185
234,322,87,-278,73,204,-614,-741,-331,-63,112,185
234,326,92,-280,70,209,-619,-741,-326,-63,117,185
248,331,82,-290,82,207,-629,-746,-331,-58,131,200
253,331,78,-292,87,204,-629,-751,-326,-53,131,200
258,336,78,-297,90,207,-634,-756,-331,-48,131,200
258,341,82,-300,87,212,-634,-761,-336,-48,141,200
253,346,92,-300,80,219,-624,-756,-322,-48,131,200
253,351,97,-302,78,224,-624,-746,-317,-43,131,200
253,351,97,-302,78,224,-619,-736,-302,-34,131,200
253,351,97,-302,78,224,-610,-722,-287,-29,141,204
253,351,97,-302,78,224,-610,-722,-292,-24,151,214
253,351,97,-302,78,224,-610,-717,-287,-14,156,214
253,351,97,-302,78,224,-605,-707,-283,-14,156,214
253,351,97,-302,78,224,-595,-697,-287,-9,156,214
244,356,112,-300,65,234,-585,-678,-268,-4,146,204
234,356,122,-295,56,239,-570,-668,-253,0,151,204
224,351,126,-287,48,239,-566,-653,-239,4,151,204
224,351,126,-287,48,239,-551,-639,-219,9,151,204
234,346,112,-290,61,229,-551,-624,-219,0,151,209
229,336,107,-283,61,222,-541,-610,-204,4,156,204
229,336,107,-283,61,222,-531,-595,-204,9,156,200
224,336,112,-280,56,224,-522,-575,-204,14,151,200
219,331,112,-275,53,222,-497,-551,-190,19,151,185
209,322,112,-265,48,217,-488,-531,-175,19,151,185
204,312,107,-258,48,209,-468,-517,-161,24,146,180
200,307,107,-253,46,207,-453,-492,-141,29,146,180
200,297,97,-248,51,197,-439,-488,-141,29,151,185
195,287,92,-241,51,190,-429,-473,-136,34,151,180
195,287,92,-241,51,190,-424,-453,-117,34,151,170
190,278,87,-234,51,183,-409,-434,-107,39,146,165
170,268,97,-219,36,183,-380,-405,-97,43,146,151
161,258,97,-209,31,178,-366,-380,-87,53,141,146
151,248,97,-200,26,173,-346,-361,-73,58,136,141
146,244,97,-195,24,170,-331,-336,-53,63,136,141
141,234,92,-187,24,163,-317,-317,-53,63,131,141
126,224,97,-175,14,161,-302,-302,-48,63,131,131
122,214,92,-168,14,153,-283,-283,-48,63,126,126
117,200,82,-158,17,141,-268,-263,-43,68,122,112
122,190,68,-156,26,129,-248,-234,-34,68,112,112
112,180,68,-146,21,124,-234,-219,-19,68,107,107
102,170,68,-136,17,119,-219,-204,-4,68,102,102
92,161,68,-126,12,114,-204,-190,4,68,97,97
92,151,58,-122,17,104,-190,-175,4,58,92,87
82,141,58,-112,12,100,-170,-161,9,58,87,78
78,131,53,-104,12,92,-156,-136,14,53,82,68
78,122,43,-100,17,82,-146,-122,9,43,78,63
58,112,53,-85,2,82,-131,-107,9,39,73,58
53,102,48,-78,2,75,-117,-102,14,39,68,53
43,97,53,-70,-4,75,-107,-92,14,39,63,53
39,87,48,-63,-4,68,-102,-82,14,34,58,48
43,78,34,-61,4,56,-92,-73,19,39,58,34
39,63,24,-51,7,43,-82,-63,19,34,53,24
34,63,29,-48,2,46,-73,-53,24,34,48,19
29,58,29,-43,0,43,-63,-53,24,34,43,9
24,58,34,-41,-4,46,-53,-43,24,39,39,9
19,53,34,-36,-7,43,-43,-39,24,34,39,9
19,48,29,-34,-4,39,-43,-34,14,34,39,9
19,43,24,-31,-2,34,-34,-29,14,34,39,9
14,48,34,-31,-9,41,-34,-29,14,24,24,4
9,43,34,-26,-12,39,-24,-29,19,19,19,0
9,39,29,-24,-9,34,-19,-29,19,19,14,-9
4,34,29,-19,-12,31,-14,-24,19,19,14,-9
-4,19,24,-7,-14,21,-9,-19,9,19,9,0
-4,19,24,-7,-14,21,-9,-19,9,19,9,0
-4,14,19,-4,-12,17,-9,-19,0,19,4,0
-4,14,19,-4,-12,17,-9,-14,0,19,4,0
-9,14,24,-2,-17,19,-4,-14,9,19,4,-9
-9,4,14,2,-12,9,4,-14,19,19,4,-9
-9,4,14,2,-12,9,14,-14,19,9,0,-14
-9,4,14,2,-12,9,24,-14,9,9,0,-19
-9,14,24,-2,-17,19,14,-24,9,0,-9,-19
-14,9,24,2,-19,17,14,-24,9,0,-9,-19
-14,9,24,2,-19,17,9,-24,9,0,-9,-14
-14,9,24,2,-19,17,9,-19,4,0,-9,-14
-19,0,19,9,-19,9,9,-9,14,9,0,-19
-19,0,19,9,-19,9,9,-14,14,0,0,-19
-19,0,19,9,-19,9,9,-14,19,0,-4,-19
-19,0,19,9,-19,9,9,-9,24,-4,-4,-24
-19,-4,14,12,-17,4,0,-19,19,-4,-4,-14
-19,-4,14,12,-17,4,0,-19,9,0,-4,-14
-14,-4,9,9,-12,2,-4,-19,4,0,-4,-14
-14,-4,9,9,-12,2,-14,-19,-4,0,-4,-9
-14,-14,0,14,-7,-7,-14,-24,4,4,-9,-19
-19,-14,4,17,-12,-4,-14,-24,9,4,-9,-24
-19,-19,0,19,-9,-9,-14,-24,9,4,-9,-24
-19,-19,0,19,-9,-9,-9,-24,9,0,-9,-24
-4,-19,-14,12,4,-17,-9,-34,4,0,-9,-14
-4,-19,-14,12,4,-17,-9,-34,0,4,-9,-14
-4,-19,-14,12,4,-17,-19,-34,-9,4,-9,-14
-4,-19,-14,12,4,-17,-24,-34,-14,4,-9,-14
-14,-19,-4,17,-4,-12,-24,-29,-4,14,-9,-24
-14,-19,-4,17,-4,-12,-19,-29,-4,14,-9,-24
-14,-19,-4,17,-4,-12,-14,-24,-4,9,-9,-24
-14,-19,-4,17,-4,-12,-4,-19,0,9,-9,-24
-14,-24,-9,19,-2,-17,-14,-24,-9,0,-9,-14
-14,-24,-9,19,-2,-17,-14,-24,-4,0,-9,-19
-14,-24,-9,19,-2,-17,-14,-34,-9,0,-9,-19
-14,-24,-9,19,-2,-17,-29,-34,-24,0,-14,-19
-14,-24,-9,19,-2,-17,-24,-24,-9,0,-24,-24
-14,-24,-9,19,-2,-17,-24,-29,-4,0,-24,-24
-14,-24,-9,19,-2,-17,-19,-29,-4,0,-24,-29
-14,-24,-9,19,-2,-17,-14,-29,-4,-9,-24,-29
-4,-34,-29,19,12,-31,-19,-39,-19,-9,-14,-19
-4,-34,-29,19,12,-31,-19,-39,-19,-9,-19,-19
-4,-34,-29,19,12,-31,-24,-43,-19,-4,-19,-19
-4,-34,-29,19,12,-31,-34,-53,-24,-4,-19,-19
-14,-34,-19,24,2,-26,-24,-53,-29,-4,-29,-29
-14,-34,-19,24,2,-26,-29,-53,-29,-14,-29,-29
-14,-34,-19,24,2,-26,-29,-53,-24,-14,-29,-34
-14,-34,-19,24,2,-26,-29,-53,-19,-19,-29,-34
-4,-34,-29,19,12,-31,-24,-68,-34,-19,-24,-24
-4,-34,-29,19,12,-31,-24,-68,-39,-19,-24,-24
-4,-34,-29,19,12,-31,-29,-73,-43,-19,-24,-24
-4,-34,-29,19,12,-31,-29,-73,-48,-19,-24,-29
-14,-43,-29,29,7,-36,-19,-68,-43,-14,-24,-39
-19,-48,-29,34,4,-39,-19,-68,-34,-14,-24,-39
-19,-48,-29,34,4,-39,-19,-68,-29,-9,-24,-34
-19,-48,-29,34,4,-39,-19,-68,-19,-4,-24,-34
-9,-39,-29,24,9,-34,-24,-82,-24,-19,-24,-24
-9,-39,-29,24,9,-34,-24,-82,-29,-24,-24,-29
-9,-39,-29,24,9,-34,-29,-87,-39,-29,-24,-29
-9,-39,-29,24,9,-34,-29,-92,-43,-34,-29,-29
-19,-48,-29,34,4,-39,-19,-82,-34,-34,-43,-39
-19,-53,-34,36,7,-43,-29,-87,-43,-34,-43,-39
-24,-53,-29,39,2,-41,-29,-87,-43,-39,-43,-39
-24,-53,-29,39,2,-41,-24,-87,-43,-43,-48,-43
-24,-53,-29,39,2,-41,-24,-87,-58,-53,-48,-48
-24,-53,-29,39,2,-41,-24,-92,-58,-58,-48,-48
-24,-58,-34,41,4,-46,-24,-92,-58,-58,-48,-43
-24,-58,-34,41,4,-46,-24,-92,-53,-58,-48,-43
-24,-58,-34,41,4,-46,-14,-92,-43,-58,-53,-43
-24,-58,-34,41,4,-46,-14,-92,-53,-58,-53,-43
-29,-58,-29,43,0,-43,-14,-92,-53,-48,-53,-43
-29,-58,-29,43,0,-43,-19,-92,-53,-48,-53,-43
-29,-58,-29,43,0,-43,-19,-97,-58,-63,-53,-43
-29,-58,-29,43,0,-43,-19,-97,-63,-63,-58,-43
-29,-58,-29,43,0,-43,-19,-102,-68,-68,-58,-43
-29,-63,-34,46,2,-48,-19,-102,-73,-68,-58,-43
-29,-63,-34,46,2,-48,-14,-102,-73,-68,-68,-43
-29,-63,-34,46,2,-48,-14,-102,-73,-68,-68,-43
-29,-63,-34,46,2,-48,-14,-102,-82,-63,-68,-48
-34,-63,-29,48,-2,-46,-14,-102,-87,-63,-68,-48
-34,-63,-29,48,-2,-46,-19,-112,-87,-58,-63,-48
-34,-63,-29,48,-2,-46,-19,-112,-82,-58,-63,-48
-29,-63,-34,46,2,-48,-24,-117,-78,-58,-63,-48
-29,-63,-34,46,2,-48,-24,-117,-78,-58,-63,-48
-24,-53,-29,39,2,-41,-9,-107,-63,-58,-63,-48
-14,-48,-34,31,9,-41,-9,-102,-63,-53,-58,-48
-14,-48,-34,31,9,-41,-9,-102,-68,-53,-58,-39
-9,-48,-39,29,14,-43,-9,-102,-68,-53,-58,-39
-4,-53,-48,29,21,-51,-9,-92,-68,-53,-63,-39
-4,-53,-48,29,21,-51,-4,-92,-68,-53,-63,-39
-4,-53,-48,29,21,-51,4,-82,-63,-53,-63,-43
-4,-53,-48,29,21,-51,4,-78,-58,-53,-63,-43
-4,-48,-43,26,19,-46,9,-82,-48,-53,-58,-43
4,-48,-53,21,29,-51,19,-78,-43,-43,-58,-43
9,-39,-48,14,29,-43,24,-63,-43,-43,-48,-34
14,-34,-48,9,31,-41,24,-58,-39,-34,-43,-29
34,-29,-63,-2,48,-46,29,-34,-14,-29,-34,-24
48,-14,-63,-17,56,-39,34,-24,-9,-19,-29,-19
53,-4,-58,-24,56,-31,39,-19,-4,-9,-24,-14
53,4,-48,-29,51,-21,48,-19,4,-4,-19,-9
43,14,-29,-29,36,-7,53,-19,4,-4,-14,4
48,24,-24,-36,36,0,53,-24,4,-4,-9,14
53,39,-14,-46,34,12,53,-29,4,0,-4,19
53,48,-4,-51,29,21,53,-29,4,4,-4,29
53,58,4,-56,24,31,48,-24,14,4,-14,19
53,58,4,-56,24,31,48,-34,9,0,-9,19
63,58,-4,-61,34,26,48,-34,4,0,-9,19
68,58,-9,-63,39,24,53,-34,4,-4,-9,19
78,58,-19,-68,48,19,43,-48,-9,-14,-14,19
82,53,-29,-68,56,12,39,-58,-9,-19,-14,19
82,53,-29,-68,56,12,24,-68,-14,-19,-14,19
87,48,-39,-68,63,4,9,-78,-19,-24,-19,19
92,43,-48,-68,70,-2,29,-68,-9,-24,-29,4
92,43,-48,-68,70,-2,29,-68,-14,-24,-19,14
87,39,-48,-63,68,-4,29,-68,-9,-19,-9,19
82,29,-53,-56,68,-12,29,-73,-24,-24,-19,19
78,29,-48,-53,63,-9,29,-78,-29,-29,-19,19
73,29,-43,-51,58,-7,29,-82,-34,-34,-19,19
68,29,-39,-48,53,-4,29,-87,-39,-39,-19,19
58,9,-48,-34,53,-19,43,-92,-29,-39,-34,0
48,9,-39,-29,43,-14,48,-92,-29,-39,-34,0
39,14,-24,-26,31,-4,58,-92,-29,-39,-29,0
39,19,-19,-29,29,0,58,-97,-34,-39,-29,4
29,14,-14,-21,21,0,58,-112,-43,-39,-29,4
19,14,-4,-17,12,4,58,-117,-48,-43,-34,4
-4,-4,0,4,-2,-2,58,-117,-53,-53,-39,0
-19,-19,0,19,-9,-9,63,-126,-68,-63,-53,-19
-29,-34,-4,31,-12,-19,73,-122,-73,-68,-63,-29
-34,-48,-14,41,-9,-31,73,-131,-73,-68,-73,-39
-43,-68,-24,56,-9,-46,73,-131,-78,-73,-82,-48
-48,-82,-34,65,-7,-58,82,-131,-78,-73,-92,-58
-58,-87,-29,73,-14,-58,82,-131,-97,-87,-92,-63
-58,-92,-34,75,-12,-63,87,-131,-97,-92,-97,-63
-63,-102,-39,82,-12,-70,87,-131,-97,-97,-97,-68
-68,-102,-34,85,-17,-68,92,-131,-92,-102,-102,-73
-68,-97,-29,82,-19,-63,92,-122,-82,-107,-112,-87
-68,-102,-34,85,-17,-68,102,-126,-82,-107,-112,-92
-68,-102,-34,85,-17,-68,92,-126,-82,-107,-112,-92
-68,-102,-34,85,-17,-68,92,-126,-82,-112,-112,-92
-68,-112,-43,90,-12,-78,102,-136,-102,-122,-117,-92
-68,-112,-43,90,-12,-78,107,-131,-102,-122,-117,-92
-68,-112,-43,90,-12,-78,107,-131,-97,-122,-117,-92
-68,-112,-43,90,-12,-78,112,-131,-97,-117,-112,-87
-68,-112,-43,90,-12,-78,112,-131,-87,-117,-122,-87
-68,-112,-43,90,-12,-78,112,-141,-87,-122,-122,-92
-68,-117,-48,92,-9,-82,112,-141,-87,-122,-122,-92
-68,-117,-48,92,-9,-82,112,-141,-87,-122,-117,-92
-68,-117,-48,92,-9,-82,122,-141,-97,-112,-107,-92
-68,-112,-43,90,-12,-78,122,-136,-97,-112,-112,-92
-68,-112,-43,90,-12,-78,122,-136,-97,-117,-117,-87
-73,-112,-39,92,-17,-75,122,-141,-97,-117,-117,-87
-73,-117,-43,95,-14,-80,131,-131,-97,-122,-126,-87
-73,-117,-43,95,-14,-80,131,-131,-92,-122,-122,-92
-73,-117,-43,95,-14,-80,126,-131,-92,-122,-117,-92
-73,-112,-39,92,-17,-75,126,-131,-97,-126,-117,-92
-73,-112,-39,92,-17,-75,126,-141,-92,-126,-117,-87
-73,-112,-39,92,-17,-75,126,-141,-92,-126,-117,-87
-73,-112,-39,92,-17,-75,126,-151,-87,-126,-117,-87
-73,-112,-39,92,-17,-75,126,-141,-87,-126,-117,-87
-73,-112,-39,92,-17,-75,131,-141,-87,-117,-112,-92
-73,-112,-39,92,-17,-75,131,-146,-87,-117,-112,-92
-73,-112,-39,92,-17,-75,131,-146,-87,-117,-112,-92
-73,-112,-39,92,-17,-75,131,-146,-87,-112,-112,-92
-82,-102,-19,92,-31,-61,141,-136,-68,-112,-112,-92
-73,-107,-34,90,-19,-70,122,-151,-82,-117,-112,-92
-73,-102,-29,87,-21,-65,112,-165,-112,-122,-112,-82
-73,-82,-9,78,-31,-46,97,-185,-126,-126,-112,-68
-73,-73,0,73,-36,-36,102,-190,-136,-126,-112,-73
-68,-78,-9,73,-29,-43,107,-195,-136,-126,-112,-73
-82,-92,-9,87,-36,-51,107,-190,-122,-126,-117,-78
-82,-102,-19,92,-31,-61,117,-180,-112,-117,-107,-68
-58,-82,-24,70,-17,-53,117,-165,-92,-97,-87,-63
-39,-48,-9,43,-14,-29,117,-131,-58,-63,-43,-29
14,0,-14,-7,14,-7,112,-92,-9,-9,19,24
92,48,-43,-70,68,2,117,-19,53,68,102,92
156,102,-53,-129,104,24,131,73,151,165,185,161
219,151,-68,-185,143,41,131,151,234,239,253,219
278,190,-87,-234,183,51,131,200,287,297,326,273
336,248,-87,-292,212,80,122,239,336,346,375,326
405,297,-107,-351,256,95,117,273,366,375,414,366
478,346,-131,-412,305,107,117,322,385,390,439,400
541,424,-117,-483,329,153,102,341,390,400,473,458
605,541,-63,-573,334,239,78,366,400,424,522,536
658,619,-39,-639,348,290,53,370,405,434,566,585
697,658,-39,-678,368,309,43,395,405,424,561,614
692,668,-24,-680,358,322,53,409,380,385,517,595
673,639,-34,-656,353,302,87,444,366,322,434,546
634,619,-14,-627,324,302,151,531,419,322,400,507
551,585,34,-568,258,309,283,736,556,370,390,478
444,522,78,-483,183,300,434,961,688,405,346,409
341,458,117,-400,112,287,517,1054,727,395,292,331
234,439,204,-336,14,322,570,1039,697,370,248,297
53,414,361,-234,-153,387,663,1039,692,361,204,244
-180,356,536,-87,-358,446,780,1039,692,356,141,151
-361,326,688,17,-524,507,854,995,688,336,102,92
-434,366,800,34,-617,583,858,893,649,326,97,82
-483,380,863,51,-673,622,819,790,595,317,97,92
-488,341,829,73,-658,585,800,717,546,278,82,73
-458,268,727,95,-592,497,805,707,517,244,53,19
-434,195,629,119,-531,412,858,766,527,234,24,-34
-419,136,556,141,-488,346,917,854,575,244,9,-63
-395,58,453,168,-424,256,985,956,624,244,-4,-97
-385,-39,346,212,-366,153,1054,1078,683,263,-29,-141
-375,-141,234,258,-305,46,1112,1176,727,263,-63,-195
-351,-234,117,292,-234,-58,1161,1239,741,234,-112,-263
-346,-346,0,346,-173,-173,1210,1298,746,214,-146,-317
-346,-405,-58,375,-143,-231,1263,1361,761,200,-156,-336
-351,-414,-63,383,-143,-239,1288,1395,766,200,-156,-326
-341,-429,-87,385,-126,-258,1317,1429,771,185,-165,-336
-351,-463,-112,407,-119,-287,1385,1503,775,185,-180,-346
-351,-517,-165,434,-92,-341,1449,1590,795,180,-195,-361
-351,-566,-214,458,-68,-390,1527,1693,824,170,-204,-390
-356,-619,-263,488,-46,-441,1600,1810,849,161,-224,-414
-370,-678,-307,524,-31,-492,1693,1947,868,156,-244,-439
-375,-732,-356,553,-9,-544,1776,2069,878,141,-268,-473
-375,-795,-419,585,21,-607,1859,2181,868,122,-287,-492
-405,-863,-458,634,26,-661,1942,2288,858,97,-322,-517
-429,-912,-483,671,26,-697,2039,2371,858,78,-346,-536
-444,-946,-502,695,29,-724,2103,2410,854,68,-361,-561
-453,-956,-502,705,24,-729,2113,2381,834,58,-375,-561
-463,-941,-478,702,7,-710,2103,2318,810,48,-366,-556
-463,-912,-448,688,-7,-680,2088,2254,790,58,-351,-531
-448,-878,-429,663,-9,-653,2064,2166,751,53,-336,-507
-444,-834,-390,639,-26,-612,2039,2098,717,48,-322,-478
-448,-780,-331,614,-58,-556,2034,2039,688,58,-283,-439
-434,-712,-278,573,-78,-495,2015,1976,678,68,-263,-405
-424,-644,-219,534,-102,-431,1995,1903,653,78,-234,-375
-400,-580,-180,490,-109,-380,1922,1790,634,82,-200,-331
-366,-483,-117,424,-124,-300,1786,1615,595,92,-161,-273
-326,-390,-63,358,-131,-226,1605,1385,527,87,-141,-239
-297,-336,-39,317,-129,-187,1439,1166,444,58,-126,-219
-273,-312,-39,292,-117,-175,1302,961,351,24,-117,-195
-248,-273,-24,261,-112,-148,1137,751,253,-9,-112,-161
-229,-229,0,229,-114,-114,976,556,165,-39,-107,-136
-200,-195,4,197,-102,-95,819,385,97,-63,-107,-126
-170,-175,-4,173,-82,-90,653,214,29,-87,-117,-112
-136,-141,-4,139,-65,-73,483,53,-29,-107,-117,-112
-107,-97,9,102,-58,-43,361,-48,-58,-122,-107,-97
-82,-73,9,78,-46,-31,287,-102,-73,-122,-92,-78
-73,-53,19,63,-46,-17,229,-131,-92,-112,-87,-58
-43,-43,0,43,-21,-21,180,-161,-122,-117,-82,-43
-24,-34,-9,29,-7,-21,156,-185,-131,-126,-87,-43
-29,-34,-4,31,-12,-19,151,-200,-126,-112,-78,-43
-29,-34,-4,31,-12,-19,141,-214,-136,-107,-78,-39
-24,-29,-4,26,-9,-17,122,-224,-136,-102,-73,-39
-19,-24,-4,21,-7,-14,112,-234,-141,-102,-73,-39
-24,-9,14,17,-19,2,107,-253,-151,-97,-73,-34
-19,-4,14,12,-17,4,97,-268,-161,-97,-73,-34
-19,0,19,9,-19,9,87,-278,-161,-97,-73,-24
-14,4,19,4,-17,12,78,-283,-161,-92,-73,-24
-9,9,19,0,-14,14,78,-302,-175,-102,-63,-24
-4,14,19,-4,-12,17,73,-312,-185,-102,-58,-24
-4,14,19,-4,-12,17,68,-322,-185,-102,-58,-19
-4,14,19,-4,-12,17,68,-322,-185,-102,-58,-14
9,14,4,-12,2,9,73,-322,-190,-102,-63,-14
9,14,4,-12,2,9,68,-336,-190,-107,-53,-9
9,19,9,-14,0,14,58,-336,-185,-112,-53,-4
14,19,4,-17,4,12,53,-346,-180,-112,-53,-4
19,24,4,-21,7,14,39,-346,-185,-122,-53,0
19,29,9,-24,4,19,39,-361,-195,-122,-48,0
19,29,9,-24,4,19,39,-361,-200,-122,-48,4
24,29,4,-26,9,17,34,-366,-204,-122,-48,9
19,29,9,-24,4,19,29,-380,-200,-117,-43,9
29,39,9,-34,9,24,24,-385,-204,-117,-43,9
29,43,14,-36,7,29,19,-390,-200,-112,-39,14
34,48,14,-41,9,31,9,-395,-195,-107,-39,14
43,63,19,-53,12,41,-9,-400,-204,-97,-34,29
48,68,19,-58,14,43,-14,-405,-209,-92,-34,29
48,73,24,-61,12,48,-24,-414,-209,-92,-34,29
58,78,19,-68,19,48,-34,-419,-209,-92,-29,34
53,73,19,-63,17,46,-39,-414,-200,-87,-39,34
53,78,24,-65,14,51,-48,-424,-204,-87,-34,34
58,82,24,-70,17,53,-58,-429,-209,-87,-24,39
63,87,24,-75,19,56,-68,-434,-209,-82,-24,48
63,92,29,-78,17,61,-73,-444,-219,-92,-14,58
68,102,34,-85,17,68,-82,-448,-224,-92,-14,63
73,107,34,-90,19,70,-97,-458,-224,-92,-4,63
78,112,34,-95,21,73,-107,-468,-224,-87,0,63
82,117,34,-100,24,75,-117,-478,-219,-78,-9,58
87,122,34,-104,26,78,-131,-483,-229,-78,-4,63
92,126,34,-109,29,80,-146,-492,-229,-78,0,68
97,141,43,-119,26,92,-146,-502,-224,-78,0,78
102,141,39,-122,31,90,-156,-517,-234,-78,14,87
107,151,43,-129,31,97,-165,-527,-239,-78,19,92
112,156,43,-134,34,100,-175,-536,-253,-78,24,97
117,161,43,-139,36,102,-185,-546,-258,-78,24,102
117,170,53,-143,31,112,-185,-546,-248,-82,19,97
122,175,53,-148,34,114,-195,-556,-248,-82,19,102
126,180,53,-153,36,117,-195,-566,-253,-87,29,102
131,195,63,-163,34,129,-195,-575,-268,-87,29,112
146,209,63,-178,41,136,-209,-595,-278,-82,39,122
151,219,68,-185,41,143,-219,-614,-283,-82,39,126
156,219,63,-187,46,141,-234,-619,-292,-82,39,131
165,224,58,-195,53,141,-244,-629,-297,-82,48,131
156,229,73,-192,41,151,-248,-634,-287,-73,39,126
161,239,78,-200,41,158,-248,-639,-292,-68,43,131
165,244,78,-204,43,161,-244,-649,-297,-68,43,136
170,248,78,-209,46,163,-244,-658,-307,-68,53,141
185,258,73,-222,56,165,-258,-673,-317,-73,53,151
190,268,78,-229,56,173,-263,-692,-322,-78,48,156
190,268,78,-229,56,173,-268,-702,-331,-82,48,156
190,273,82,-231,53,178,-273,-717,-336,-87,53,156
190,278,87,-234,51,183,-273,-717,-322,-82,63,156
195,283,87,-239,53,185,-283,-722,-322,-78,63,156
195,292,97,-244,48,195,-287,-732,-326,-73,68,156
195,297,102,-246,46,200,-297,-736,-331,-68,68,161
195,292,97,-244,48,195,-297,-746,-336,-68,63,170
195,297,102,-246,46,200,-297,-751,-336,-73,63,175
195,302,107,-248,43,204,-302,-751,-336,-78,63,175
195,307,112,-251,41,209,-307,-751,-336,-82,68,175
200,312,112,-256,43,212,-307,-751,-317,-78,63,180
204,312,107,-258,48,209,-307,-751,-307,-73,63,180
209,317,107,-263,51,212,-312,-751,-307,-68,63,180
209,322,112,-265,48,217,-312,-751,-307,-68,73,180
204,326,122,-265,41,224,-312,-741,-317,-68,82,190
204,331,126,-268,39,229,-312,-736,-317,-63,82,190
204,331,126,-268,39,229,-307,-732,-307,-53,82,190
204,331,126,-268,39,229,-297,-722,-297,-48,92,195
195,331,136,-263,29,234,-297,-702,-287,-43,82,185
195,331,136,-263,29,234,-297,-697,-278,-34,87,185
195,331,136,-263,29,234,-292,-688,-268,-34,87,185
195,331,136,-263,29,234,-283,-678,-268,-29,87,185
204,326,122,-265,41,224,-283,-678,-263,-34,87,185
195,326,131,-261,31,229,-268,-668,-253,-29,92,185
185,322,136,-253,24,229,-263,-653,-244,-24,92,185
185,322,136,-253,24,229,-248,-639,-229,-19,92,185
175,326,151,-251,12,239,-248,-624,-214,-14,92,180
170,317,146,-244,12,231,-239,-610,-195,-4,97,175
170,317,146,-244,12,231,-229,-595,-190,4,97,170
165,317,151,-241,7,234,-219,-575,-185,14,92,170
170,302,131,-236,19,217,-204,-551,-165,9,102,156
161,292,131,-226,14,212,-195,-531,-156,9,102,156
156,283,126,-219,14,204,-175,-517,-146,14,97,151
151,278,126,-214,12,202,-161,-492,-131,19,97,151
141,278,136,-209,2,207,-136,-478,-122,19,82,146
136,268,131,-202,2,200,-126,-463,-117,24,82,141
136,268,131,-202,2,200,-122,-444,-97,24,82,131
131,258,126,-195,2,192,-107,-424,-87,29,78,126
122,248,126,-185,-2,187,-87,-405,-82,19,68,122
112,239,126,-175,-7,183,-73,-380,-78,24,63,117
102,229,126,-165,-12,178,-53,-361,-68,24,58,112
97,224,126,-161,-14,175,-39,-336,-53,24,58,112
102,204,102,-153,0,153,-14,-307,-48,24,43,102
87,195,107,-141,-9,151,0,-292,-39,24,43,92
82,185,102,-134,-9,143,19,-273,-34,24,39,87
78,170,92,-124,-7,131,34,-253,-24,29,34,73
73,170,97,-122,-12,134,43,-224,-19,29,34,73
63,161,97,-112,-17,129,58,-209,-9,29,29,68
53,151,97,-102,-21,124,73,-195,0,29,24,63
43,141,97,-92,-26,119,87,-180,4,29,19,58
43,141,97,-92,-26,119,102,-175,0,29,14,48
34,131,97,-82,-31,114,122,-161,9,29,9,39
29,122,92,-75,-31,107,136,-136,19,24,4,29
29,112,82,-70,-26,97,146,-122,19,14,0,24
9,102,92,-56,-41,97,151,-97,19,9,-14,9
4,92,87,-48,-41,90,165,-92,24,9,-19,4
-4,87,92,-41,-48,90,175,-82,24,9,-24,4
-9,78,87,-34,-48,82,180,-73,24,4,-29,0
-9,78,87,-34,-48,82,180,-68,19,9,-29,4
-9,63,73,-26,-41,68,190,-63,19,4,-34,-4
-9,63,73,-26,-41,68,200,-58,24,4,-39,-9
-9,58,68,-24,-39,63,209,-63,24,4,-43,-19
-14,48,63,-17,-39,56,219,-43,34,9,-48,-29
-19,43,63,-12,-41,53,229,-39,34,4,-48,-29
-19,39,58,-9,-39,48,229,-34,24,4,-48,-29
-19,34,53,-7,-36,43,239,-29,24,4,-48,-29
-24,39,63,-7,-43,51,244,-39,19,-4,-43,-24
-29,34,63,-2,-46,48,248,-39,19,-9,-48,-29
-29,29,58,0,-43,43,248,-39,14,-9,-53,-39
-34,24,58,4,-46,41,248,-34,9,-9,-53,-39
-34,9,43,12,-39,26,263,-19,14,-19,-68,-48
-34,9,43,12,-39,26,263,-19,19,-19,-68,-48
-34,4,39,14,-36,21,263,-19,14,-19,-73,-48
-34,4,39,14,-36,21,263,-14,19,-19,-73,-48
-39,4,43,17,-41,24,263,-14,14,-29,-82,-39
-39,-4,34,21,-36,14,268,-14,19,-29,-82,-39
-39,-4,34,21,-36,14,273,-14,14,-39,-87,-43
-39,-4,34,21,-36,14,278,-14,0,-39,-87,-48
-48,-14,34,31,-41,9,278,-14,4,-29,-78,-58
-53,-19,34,36,-43,7,278,-14,9,-29,-78,-58
-53,-19,34,36,-43,7,273,-14,14,-29,-78,-53
-53,-19,34,36,-43,7,273,-9,14,-29,-78,-53
-48,-9,39,29,-43,14,263,-14,0,-19,-68,-48
-48,-9,39,29,-43,14,263,-24,-4,-29,-68,-48
-48,-9,39,29,-43,14,263,-29,-4,-29,-73,-48
-48,-9,39,29,-43,14,263,-29,-4,-34,-73,-53
-48,-14,34,31,-41,9,268,-24,9,-34,-78,-63
-48,-14,34,31,-41,9,273,-19,9,-29,-82,-63
-43,-14,29,29,-36,7,273,-14,14,-29,-87,-63
-43,-14,29,29,-36,7,268,-9,14,-29,-92,-58
-43,-14,29,29,-36,7,273,-14,9,-29,-97,-48
-48,-14,34,31,-41,9,268,-14,9,-34,-97,-53
-48,-19,29,34,-39,4,263,-14,4,-39,-97,-53
-48,-19,29,34,-39,4,263,-14,0,-48,-97,-53
-43,-29,14,36,-29,-7,273,-4,4,-43,-97,-53
-43,-29,14,36,-29,-7,273,-4,9,-34,-97,-53
-43,-29,14,36,-29,-7,263,-4,9,-29,-97,-53
-43,-29,14,36,-29,-7,258,-4,14,-24,-97,-53
-53,-29,24,41,-39,-2,253,-14,0,-34,-97,-53
-53,-29,24,41,-39,-2,253,-19,-4,-34,-97,-53
-53,-29,24,41,-39,-2,253,-19,-9,-39,-97,-53
-53,-29,24,41,-39,-2,258,-19,-9,-39,-97,-53
-53,-34,19,43,-36,-7,258,-4,4,-29,-107,-63
-53,-34,19,43,-36,-7,258,-4,14,-29,-107,-68
-53,-34,19,43,-36,-7,258,-14,14,-29,-107,-68
-53,-34,19,43,-36,-7,244,-14,4,-29,-112,-68
-53,-43,9,48,-31,-17,253,-14,-4,-39,-102,-53
-53,-43,9,48,-31,-17,248,-19,-4,-39,-102,-53
-53,-43,9,48,-31,-17,248,-19,-9,-39,-102,-58
-53,-43,9,48,-31,-17,248,-19,-14,-48,-102,-58
-53,-43,9,48,-31,-17,244,-19,-14,-43,-102,-68
-53,-43,9,48,-31,-17,244,-19,-9,-39,-107,-68
-53,-43,9,48,-31,-17,239,-24,-4,-29,-107,-68
-53,-43,9,48,-31,-17,229,-34,-4,-24,-107,-68
-53,-34,19,43,-36,-7,229,-39,-24,-24,-107,-68
-53,-34,19,43,-36,-7,224,-43,-29,-34,-107,-68
-53,-34,19,43,-36,-7,224,-48,-29,-34,-107,-73
-53,-34,19,43,-36,-7,224,-53,-29,-39,-107,-73
-43,-34,9,39,-26,-12,229,-48,-19,-39,-112,-73
-43,-34,9,39,-26,-12,229,-48,-19,-39,-112,-73
-43,-34,9,39,-26,-12,224,-53,-19,-39,-112,-73
-43,-34,9,39,-26,-12,224,-53,-19,-39,-112,-78
-43,-34,9,39,-26,-12,224,-58,-34,-48,-122,-68
-48,-39,9,43,-29,-14,224,-58,-34,-53,-122,-68
-48,-39,9,43,-29,-14,224,-58,-39,-53,-122,-63
-48,-39,9,43,-29,-14,224,-58,-39,-53,-122,-63
-48,-39,9,43,-29,-14,219,-73,-29,-53,-122,-73
-48,-39,9,43,-29,-14,219,-73,-29,-53,-122,-78
-48,-39,9,43,-29,-14,214,-78,-34,-53,-122,-78
-48,-39,9,43,-29,-14,214,-82,-34,-53,-126,-78
-48,-48,0,48,-24,-24,214,-73,-34,-63,-122,-68
-48,-53,-4,51,-21,-29,204,-78,-43,-63,-122,-68
-53,-53,0,53,-26,-26,204,-78,-43,-68,-122,-68
-53,-53,0,53,-26,-26,209,-78,-43,-73,-126,-73
-53,-63,-9,58,-21,-36,200,-87,-58,-73,-136,-78
-53,-63,-9,58,-21,-36,200,-92,-58,-78,-136,-78
-53,-68,-14,61,-19,-41,200,-92,-58,-78,-136,-73
-53,-68,-14,61,-19,-41,200,-92,-53,-78,-136,-73
-53,-68,-14,61,-19,-41,200,-102,-53,-78,-151,-82
-53,-68,-14,61,-19,-41,200,-102,-63,-78,-151,-82
-58,-68,-9,63,-24,-39,200,-102,-63,-68,-151,-82
-58,-68,-9,63,-24,-39,195,-102,-63,-68,-151,-82
-48,-68,-19,58,-14,-43,195,-97,-73,-82,-141,-92
-48,-68,-19,58,-14,-43,195,-97,-73,-82,-146,-92
-48,-68,-19,58,-14,-43,195,-102,-73,-87,-146,-92
-48,-73,-24,61,-12,-48,195,-102,-73,-87,-146,-92
-58,-63,-4,61,-26,-34,200,-92,-63,-97,-156,-82
-58,-63,-4,61,-26,-34,200,-92,-63,-97,-156,-82
-58,-63,-4,61,-26,-34,200,-92,-73,-92,-156,-87
-63,-63,0,63,-31,-31,200,-92,-78,-92,-156,-87
-53,-73,-19,63,-17,-46,204,-102,-78,-97,-161,-87
-53,-73,-19,63,-17,-46,204,-102,-73,-97,-161,-87
-48,-73,-24,61,-12,-48,200,-107,-68,-97,-161,-87
-48,-73,-24,61,-12,-48,200,-107,-68,-97,-161,-87
-53,-73,-19,63,-17,-46,195,-97,-53,-87,-161,-87
-43,-68,-24,56,-9,-46,195,-92,-53,-82,-156,-87
-43,-68,-24,56,-9,-46,195,-92,-58,-82,-156,-78
-39,-68,-29,53,-4,-48,195,-92,-58,-82,-156,-78
-34,-53,-19,43,-7,-36,204,-92,-68,-73,-141,-68
-34,-53,-19,43,-7,-36,209,-92,-68,-73,-141,-68
-34,-53,-19,43,-7,-36,219,-82,-63,-73,-141,-73
-34,-53,-19,43,-7,-36,219,-78,-58,-73,-141,-73
-24,-58,-34,41,4,-46,224,-68,-43,-68,-126,-63
-14,-58,-43,36,14,-51,234,-58,-34,-53,-126,-63
-9,-48,-39,29,14,-43,239,-39,-29,-48,-117,-53
-4,-43,-39,24,17,-41,239,-29,-19,-34,-112,-48
-4,-34,-29,19,12,-31,239,-29,-14,-39,-92,-34
9,-14,-24,2,17,-19,239,-24,-9,-29,-87,-29
14,0,-14,-7,14,-7,239,-24,-4,-19,-82,-24
14,14,0,-14,7,7,244,-29,4,-14,-78,-19
4,24,19,-14,-7,21,239,-29,4,-24,-78,-19
9,34,24,-21,-7,29,239,-34,4,-24,-78,-14
14,48,34,-31,-9,41,239,-39,4,-19,-78,-14
14,58,43,-36,-14,51,239,-39,4,-14,-82,-9
14,53,39,-34,-12,46,219,-53,0,-24,-92,-9
14,48,34,-31,-9,41,214,-63,-9,-29,-87,-9
24,43,19,-34,2,31,209,-63,-19,-29,-87,-9
29,39,9,-34,9,24,209,-63,-24,-34,-87,-9
48,39,-9,-43,29,14,200,-68,-19,-34,-92,-19
43,24,-19,-34,31,2,204,-68,-9,-29,-102,-19
34,24,-9,-29,21,7,200,-68,-14,-39,-102,-9
39,29,-9,-34,24,9,195,-78,-19,-39,-97,-9
39,19,-19,-29,29,0,185,-87,-34,-43,-107,-9
39,19,-19,-29,29,0,185,-87,-39,-48,-107,-9
39,19,-19,-29,29,0,185,-87,-43,-53,-107,-9
39,19,-19,-29,29,0,185,-87,-48,-58,-107,-9
19,4,-14,-12,17,-4,195,-82,-39,-58,-122,-24
9,0,-9,-4,9,-4,204,-82,-39,-58,-122,-29
0,0,0,0,0,0,219,-82,-39,-58,-117,-34
0,0,0,0,0,0,224,-87,-43,-58,-117,-34
0,14,14,-7,-7,14,214,-97,-53,-68,-107,-24
-9,14,24,-2,-17,19,214,-107,-58,-73,-112,-24
-34,-4,29,19,-31,12,214,-112,-63,-82,-117,-29
-48,-19,29,34,-39,4,219,-126,-78,-92,-131,-48
-58,-43,14,51,-36,-14,209,-122,-82,-102,-151,-58
-63,-58,4,61,-34,-26,209,-131,-82,-107,-161,-68
-73,-78,-4,75,-34,-41,209,-131,-87,-117,-170,-78
-78,-92,-14,85,-31,-53,219,-131,-87,-122,-180,-87
-78,-87,-9,82,-34,-48,209,-141,-102,-141,-180,-92
-78,-92,-14,85,-31,-53,214,-141,-107,-141,-185,-92
-82,-102,-19,92,-31,-61,214,-141,-112,-141,-185,-97
-87,-102,-14,95,-36,-58,219,-141,-112,-141,-190,-102
-97,-117,-19,107,-39,-68,229,-136,-107,-136,-200,-107
-97,-122,-24,109,-36,-73,239,-136,-102,-136,-200,-112
-97,-122,-24,109,-36,-73,229,-131,-97,-136,-200,-112
-97,-122,-24,109,-36,-73,229,-126,-92,-141,-200,-112
-97,-122,-24,109,-36,-73,219,-131,-107,-141,-195,-112
-97,-122,-24,109,-36,-73,224,-131,-112,-141,-195,-112
-97,-122,-24,109,-36,-73,224,-136,-112,-141,-195,-112
-97,-122,-24,109,-36,-73,229,-141,-117,-136,-190,-107
-97,-122,-24,109,-36,-73,229,-131,-112,-126,-200,-117
-97,-122,-24,109,-36,-73,229,-141,-107,-131,-200,-122
-97,-126,-29,112,-34,-78,229,-141,-102,-131,-200,-122
-97,-126,-29,112,-34,-78,229,-141,-97,-131,-195,-122
-97,-126,-29,112,-34,-78,229,-151,-107,-141,-195,-112
-97,-122,-24,109,-36,-73,229,-146,-107,-141,-200,-112
-97,-122,-24,109,-36,-73,229,-146,-107,-146,-204,-107
-102,-122,-19,112,-41,-70,229,-151,-107,-146,-204,-107
-102,-136,-34,119,-34,-85,229,-141,-107,-141,-214,-117
-102,-136,-34,119,-34,-85,229,-141,-102,-141,-209,-122
-102,-136,-34,119,-34,-85,224,-141,-102,-141,-204,-122
-102,-131,-29,117,-36,-80,224,-141,-107,-146,-204,-122
-102,-122,-19,112,-41,-70,224,-141,-122,-156,-204,-117
-102,-122,-19,112,-41,-70,224,-141,-122,-156,-204,-117
-102,-122,-19,112,-41,-70,224,-151,-117,-156,-204,-117
-102,-122,-19,112,-41,-70,224,-141,-117,-156,-204,-117
-102,-122,-19,112,-41,-70,219,-131,-107,-146,-200,-122
-102,-122,-19,112,-41,-70,219,-136,-107,-146,-200,-122
-102,-122,-19,112,-41,-70,219,-136,-107,-146,-200,-122
-102,-122,-19,112,-41,-70,219,-136,-107,-141,-200,-122
-112,-131,-19,122,-46,-75,239,-136,-97,-141,-200,-112
-102,-136,-34,119,-34,-85,229,-161,-112,-156,-200,-112
-92,-122,-29,107,-31,-75,209,-175,-131,-161,-200,-112
-92,-102,-9,97,-41,-56,195,-185,-146,-165,-200,-107
-92,-102,-9,97,-41,-56,200,-200,-146,-156,-190,-92
-97,-107,-9,102,-43,-58,195,-214,-156,-156,-190,-102
-102,-112,-9,107,-46,-61,195,-209,-151,-165,-195,-107
-92,-112,-19,102,-36,-65,195,-200,-141,-156,-195,-107
-78,-102,-24,90,-26,-63,195,-175,-122,-126,-175,-82
-48,-78,-29,63,-9,-53,204,-151,-87,-92,-131,-58
-14,-39,-24,26,4,-31,200,-102,-48,-48,-68,-4
43,9,-34,-26,39,-12,214,-39,24,29,14,73
107,63,-43,-85,75,9,219,53,112,126,107,141
170,112,-58,-141,114,26,229,151,214,229,195,209
229,161,-68,-195,148,46,239,219,307,317,278,263
278,229,-48,-253,163,90,239,278,375,385,346,326
346,278,-68,-312,207,104,234,341,424,434,414,395
419,307,-112,-363,265,97,224,390,453,468,458,439
483,375,-107,-429,295,134,209,429,468,468,492,497
536,483,-53,-509,295,214,185,444,478,492,541,566
580,580,0,-580,290,290,170,458,492,522,595,624
619,629,9,-624,305,319,151,483,502,522,610,663
634,639,4,-636,314,322,151,497,488,492,575,653
614,619,4,-617,305,312,175,522,473,419,492,605
566,590,24,-578,270,307,229,590,488,390,429,556
492,566,73,-529,209,319,331,727,575,409,400,527
414,492,78,-453,168,285,473,951,727,444,346,458
331,390,58,-361,136,224,585,1112,805,434,263,361
234,341,107,-287,63,224,639,1137,795,400,200,287
82,317,234,-200,-75,275,712,1127,771,370,146,224
-122,248,370,-63,-246,309,810,1107,751,336,43,102
-302,180,483,61,-392,331,883,1063,717,287,-73,-34
-424,170,595,126,-509,383,917,980,649,239,-126,-92
-473,175,649,148,-561,412,888,858,575,200,-126,-92
-478,165,644,156,-561,405,839,756,507,170,-122,-92
-448,102,551,173,-500,326,824,717,468,136,-141,-126
-424,39,463,192,-444,251,849,736,458,117,-170,-170
-409,-9,400,209,-405,195,907,834,507,126,-165,-180
-395,-48,346,222,-370,148,976,936,566,146,-161,-204
-366,-126,239,246,-302,56,1034,1039,624,165,-185,-239
-356,-200,156,278,-256,-21,1093,1137,678,175,-200,-273
-351,-273,78,312,-214,-97,1141,1210,702,185,-219,-302
-336,-366,-29,351,-153,-197,1190,1288,717,165,-244,-346
-326,-453,-126,390,-100,-290,1234,1351,732,141,-273,-385
-322,-502,-180,412,-70,-341,1268,1395,727,131,-283,-395
-331,-517,-185,424,-73,-351,1307,1429,732,126,-283,-395
-341,-541,-200,441,-70,-370,1366,1493,756,126,-297,-414
-341,-585,-244,463,-48,-414,1420,1581,775,122,-302,-429
-341,-634,-292,488,-24,-463,1478,1664,795,112,-322,-458
-346,-688,-341,517,-2,-514,1561,1790,829,112,-331,-473
-351,-756,-405,553,26,-580,1654,1927,849,107,-351,-488
-346,-810,-463,578,58,-636,1737,2049,849,82,-375,-522
-366,-863,-497,614,65,-680,1820,2171,849,63,-395,-541
-385,-932,-546,658,80,-739,1903,2308,849,48,-419,-566
-400,-990,-590,695,95,-790,2010,2430,858,39,-444,-585
-424,-1044,-619,734,97,-832,2093,2518,873,29,-458,-610
-444,-1063,-619,753,87,-841,2132,2518,863,19,-463,-619
-453,-1049,-595,751,70,-822,2132,2474,839,9,-463,-614
-463,-1000,-536,732,36,-768,2127,2410,819,9,-458,-600
-458,-966,-507,712,24,-736,2083,2313,780,4,-434,-566
-453,-932,-478,692,12,-705,2039,2205,717,-9,-419,-536
-458,-868,-409,663,-24,-639,2015,2117,697,-9,-390,-497
-453,-810,-356,631,-48,-583,2015,2074,697,0,-361,-463
-444,-741,-297,592,-73,-519,1986,2000,683,19,-322,-424
-429,-668,-239,549,-95,-453,1903,1878,644,34,-297,-390
-395,-570,-175,483,-109,-373,1766,1703,614,43,-258,-341
-356,-468,-112,412,-122,-290,1586,1473,556,48,-209,-278
-317,-385,-68,351,-124,-226,1390,1224,473,39,-195,-239
-302,-351,-48,326,-126,-200,1234,1010,380,4,-185,-214
-278,-312,-34,295,-122,-173,1058,800,283,-29,-170,-190
-248,-258,-9,253,-119,-134,888,605,195,-48,-165,-165
-219,-224,-4,222,-107,-114,732,424,117,-63,-165,-156
-190,-195,-4,192,-92,-100,566,244,48,-87,-165,-141
-156,-151,4,153,-80,-73,385,63,-19,-117,-165,-122
-126,-117,9,122,-68,-53,244,-58,-68,-131,-156,-107
-112,-102,9,107,-61,-46,161,-112,-92,-131,-151,-97
-92,-82,9,87,-51,-36,112,-151,-112,-122,-136,-78
-82,-63,19,73,-51,-21,53,-180,-141,-126,-131,-63
-63,-53,9,58,-36,-21,19,-195,-151,-126,-126,-63
-68,-53,14,61,-41,-19,4,-209,-146,-122,-126,-63
-68,-53,14,61,-41,-19,-4,-224,-156,-117,-126,-58
-63,-48,14,56,-39,-17,-24,-234,-156,-112,-122,-58
-58,-43,14,51,-36,-14,-34,-244,-161,-112,-122,-58
-53,-48,4,51,-29,-21,-58,-273,-180,-112,-112,-53
-48,-43,4,46,-26,-19,-68,-287,-190,-117,-112,-53
-48,-39,9,43,-29,-14,-78,-297,-190,-122,-112,-43
-43,-34,9,39,-26,-12,-87,-302,-190,-122,-112,-43
-39,-19,19,29,-29,0,-102,-322,-204,-122,-112,-43
-34,-14,19,24,-26,2,-112,-331,-214,-122,-107,-43
-34,-14,19,24,-26,2,-122,-341,-214,-122,-107,-39
-34,-14,19,24,-26,2,-126,-341,-214,-122,-107,-34
-29,-4,24,17,-26,9,-136,-341,-214,-122,-102,-34
-29,-4,24,17,-26,9,-146,-356,-219,-126,-92,-29
-29,0,29,14,-29,14,-161,-356,-219,-131,-92,-24
-24,0,24,12,-24,12,-170,-366,-219,-131,-92,-24
-19,4,24,7,-21,14,-185,-375,-229,-131,-92,-19
-19,9,29,4,-24,19,-185,-390,-234,-131,-87,-19
-19,9,29,4,-24,19,-185,-390,-234,-131,-87,-14
-14,9,24,2,-19,17,-190,-395,-234,-131,-87,-9
-9,9,19,0,-14,14,-204,-390,-234,-122,-92,-9
0,19,19,-9,-9,19,-209,-395,-244,-126,-92,-9
0,24,24,-12,-12,24,-214,-400,-244,-126,-87,-4
4,29,24,-17,-9,26,-224,-405,-244,-126,-87,-4
4,34,29,-19,-12,31,-239,-419,-253,-136,-73,9
9,39,29,-24,-9,34,-248,-424,-258,-131,-73,9
9,43,34,-26,-12,39,-263,-434,-258,-131,-73,9
19,48,29,-34,-4,39,-278,-439,-258,-131,-68,14
14,53,39,-34,-12,46,-287,-434,-248,-117,-58,14
14,58,43,-36,-14,51,-302,-444,-253,-117,-53,14
19,63,43,-41,-12,53,-317,-448,-258,-117,-43,19
24,68,43,-46,-9,56,-331,-453,-258,-112,-43,29
34,73,39,-53,-2,56,-356,-473,-273,-122,-53,39
39,82,43,-61,-2,63,-366,-478,-283,-122,-53,43
43,87,43,-65,0,65,-380,-488,-287,-122,-43,43
48,92,43,-70,2,68,-390,-497,-292,-117,-39,43
43,87,43,-65,0,65,-400,-497,-278,-107,-39,48
48,92,43,-70,2,68,-414,-502,-287,-107,-34,53
53,97,43,-75,4,70,-429,-512,-287,-107,-29,58
58,112,53,-85,2,82,-429,-522,-283,-107,-29,68
63,122,58,-92,2,90,-444,-536,-302,-107,-14,68
68,131,63,-100,2,97,-458,-546,-307,-107,-9,73
73,136,63,-104,4,100,-473,-556,-322,-107,-4,78
78,141,63,-109,7,102,-488,-566,-326,-107,-4,82
78,141,63,-109,7,102,-492,-575,-326,-92,0,78
82,146,63,-114,9,104,-507,-585,-326,-92,0,82
87,151,63,-119,12,107,-512,-595,-331,-97,9,82
92,165,73,-129,9,119,-517,-605,-346,-97,9,92
107,170,63,-139,21,117,-531,-624,-361,-102,19,102
112,180,68,-146,21,124,-541,-644,-361,-102,19,107
117,180,63,-148,26,122,-556,-649,-366,-102,19,112
126,185,58,-156,34,122,-566,-658,-366,-102,29,112
126,200,73,-163,26,136,-585,-673,-356,-102,19,107
131,209,78,-170,26,143,-590,-678,-361,-97,24,112
136,214,78,-175,29,146,-590,-688,-366,-97,24,117
141,219,78,-180,31,148,-595,-697,-375,-97,34,122
146,229,82,-187,31,156,-605,-717,-385,-107,43,131
151,239,87,-195,31,163,-614,-732,-390,-107,39,136
151,239,87,-195,31,163,-624,-736,-400,-107,39,136
151,244,92,-197,29,168,-634,-746,-405,-107,43,136
146,239,92,-192,26,165,-634,-746,-390,-107,43,136
156,244,87,-200,34,165,-644,-751,-390,-107,43,136
161,253,92,-207,34,173,-649,-761,-395,-107,48,136
165,258,92,-212,36,175,-658,-766,-400,-107,48,141
175,253,78,-214,48,165,-668,-775,-414,-112,53,161
175,258,82,-217,46,170,-668,-780,-414,-112,53,165
175,263,87,-219,43,175,-673,-780,-414,-112,53,165
175,268,92,-222,41,180,-678,-780,-414,-112,58,165
170,283,112,-226,29,197,-688,-780,-395,-97,63,170
175,283,107,-229,34,195,-688,-780,-385,-92,63,170
180,287,107,-234,36,197,-692,-780,-385,-87,63,170
180,292,112,-236,34,202,-692,-780,-385,-87,73,170
185,287,102,-236,41,195,-697,-790,-395,-97,82,180
185,292,107,-239,39,200,-702,-785,-395,-92,82,180
185,292,107,-239,39,200,-702,-780,-385,-82,82,180
185,292,107,-239,39,200,-697,-771,-375,-78,92,185
180,292,112,-236,34,202,-697,-751,-366,-63,82,175
175,292,117,-234,29,204,-697,-746,-356,-53,87,175
170,292,122,-231,24,207,-692,-736,-346,-53,87,175
165,292,126,-229,19,209,-683,-727,-346,-48,87,175
175,297,122,-236,26,209,-678,-717,-351,-53,97,185
165,297,131,-231,17,214,-668,-707,-341,-48,102,185
156,292,136,-224,9,214,-668,-692,-331,-43,102,185
156,292,136,-224,9,214,-658,-678,-317,-39,102,185
146,287,141,-217,2,214,-658,-663,-302,-34,102,170
141,278,136,-209,2,207,-649,-649,-283,-24,107,165
141,278,136,-209,2,207,-639,-634,-278,-14,107,161
136,278,141,-207,-2,209,-629,-614,-273,-4,102,161
141,283,141,-212,0,212,-619,-595,-263,-9,102,156
131,273,141,-202,-4,207,-614,-580,-253,-9,102,156
126,263,136,-195,-4,200,-600,-570,-244,-4,97,151
122,258,136,-190,-7,197,-590,-551,-229,0,97,151
112,248,136,-180,-12,192,-585,-531,-209,9,92,146
107,239,131,-173,-12,185,-575,-512,-204,14,92,141
107,239,131,-173,-12,185,-570,-488,-185,14,92,131
102,229,126,-165,-12,178,-556,-463,-175,19,87,126
102,219,117,-161,-7,168,-546,-453,-170,14,87,122
92,209,117,-151,-12,163,-531,-429,-165,14,82,117
82,200,117,-141,-17,158,-512,-409,-156,9,78,112
78,195,117,-136,-19,156,-497,-385,-141,4,78,112
82,185,102,-134,-9,143,-492,-356,-146,14,63,92
68,175,107,-122,-19,141,-478,-341,-136,14,63,82
63,165,102,-114,-19,134,-458,-322,-131,14,58,78
58,151,92,-104,-17,122,-444,-302,-122,19,53,63
53,141,87,-97,-17,114,-434,-283,-117,9,53,63
43,131,87,-87,-21,109,-419,-268,-107,9,48,58
34,122,87,-78,-26,104,-405,-253,-97,9,43,53
24,112,87,-68,-31,100,-390,-239,-92,9,39,48
24,102,78,-63,-26,90,-380,-214,-92,9,43,48
14,92,78,-53,-31,85,-366,-200,-87,9,39,39
9,82,73,-46,-31,78,-356,-175,-82,4,34,29
9,73,63,-41,-26,68,-351,-161,-87,-4,29,24
0,73,73,-36,-36,73,-346,-146,-82,0,24,9
-4,63,68,-29,-36,65,-331,-141,-73,0,19,4
-14,58,73,-21,-43,65,-322,-131,-68,0,14,4
-19,48,68,-14,-43,58,-317,-122,-63,-4,9,0
-14,48,63,-17,-39,56,-317,-112,-68,-9,9,4
-19,34,53,-7,-36,43,-307,-102,-68,-14,4,-4
-24,34,58,-4,-41,46,-297,-92,-63,-14,0,-9
-29,29,58,0,-43,43,-287,-92,-63,-14,-4,-19
-24,19,43,2,-34,31,-297,-73,-58,-19,-9,-29
-29,14,43,7,-36,29,-287,-68,-53,-24,-9,-29
-29,9,39,9,-34,24,-287,-63,-58,-24,-9,-29
-29,4,34,12,-31,19,-278,-58,-53,-24,-9,-29
-34,0,34,17,-34,17,-273,-58,-63,-24,-4,-29
-39,-4,34,21,-36,14,-268,-58,-58,-29,-9,-29
-39,-9,29,24,-34,9,-268,-58,-58,-29,-14,-34
-43,-14,29,29,-36,7,-268,-53,-58,-29,-14,-29
-43,-29,14,36,-29,-7,-273,-39,-48,-29,-19,-39
-43,-29,14,36,-29,-7,-273,-39,-48,-29,-19,-39
-43,-34,9,39,-26,-12,-273,-39,-58,-29,-24,-39
-43,-34,9,39,-26,-12,-273,-34,-58,-29,-24,-39
-58,-24,34,41,-46,4,-273,-43,-68,-29,-24,-29
-58,-34,24,46,-41,-4,-268,-43,-58,-29,-24,-29
-58,-34,24,46,-41,-4,-263,-43,-58,-39,-29,-34
-58,-34,24,46,-41,-4,-258,-43,-68,-39,-29,-39
-58,-43,14,51,-36,-14,-268,-34,-63,-29,-29,-48
-63,-48,14,56,-39,-17,-268,-34,-58,-29,-29,-48
-63,-48,14,56,-39,-17,-273,-34,-53,-29,-29,-43
-63,-48,14,56,-39,-17,-273,-29,-53,-29,-29,-43
-63,-48,14,56,-39,-17,-283,-34,-68,-29,-19,-39
-58,-48,9,53,-34,-19,-283,-43,-73,-39,-19,-39
-53,-48,4,51,-29,-21,-283,-48,-73,-39,-24,-39
-48,-48,0,48,-24,-24,-283,-48,-73,-43,-24,-43
-58,-53,4,56,-31,-24,-283,-39,-68,-43,-34,-53
-58,-53,4,56,-31,-24,-283,-39,-68,-39,-34,-53
-53,-53,0,53,-26,-26,-287,-39,-63,-39,-34,-53
-53,-53,0,53,-26,-26,-297,-39,-63,-39,-34,-48
-43,-53,-9,48,-17,-31,-302,-53,-68,-43,-29,-39
-48,-53,-4,51,-21,-29,-307,-53,-68,-43,-29,-43
-48,-58,-9,53,-19,-34,-312,-53,-73,-43,-29,-43
-48,-58,-9,53,-19,-34,-312,-53,-78,-48,-29,-43
-53,-58,-4,56,-24,-31,-302,-43,-73,-39,-39,-53
-53,-58,-4,56,-24,-31,-302,-43,-68,-34,-39,-53
-53,-58,-4,56,-24,-31,-312,-43,-68,-34,-39,-53
-53,-58,-4,56,-24,-31,-317,-43,-63,-34,-39,-53
-53,-58,-4,56,-24,-31,-331,-43,-68,-43,-29,-48
-53,-58,-4,56,-24,-31,-331,-48,-73,-43,-29,-43
-53,-58,-4,56,-24,-31,-331,-48,-78,-48,-29,-39
-53,-58,-4,56,-24,-31,-326,-48,-78,-48,-29,-34
-43,-53,-9,48,-17,-31,-336,-43,-63,-39,-29,-39
-43,-53,-9,48,-17,-31,-336,-43,-53,-39,-29,-48
-43,-53,-9,48,-17,-31,-336,-53,-53,-39,-29,-53
-43,-53,-9,48,-17,-31,-351,-53,-63,-39,-34,-58
-43,-53,-9,48,-17,-31,-351,-53,-68,-39,-34,-43
-43,-53,-9,48,-17,-31,-356,-58,-73,-39,-34,-43
-43,-53,-9,48,-17,-31,-356,-58,-82,-39,-34,-48
-43,-53,-9,48,-17,-31,-356,-58,-92,-48,-34,-48
-43,-63,-19,53,-12,-41,-361,-48,-87,-39,-34,-48
-43,-63,-19,53,-12,-41,-361,-48,-78,-39,-39,-48
-43,-63,-19,53,-12,-41,-366,-53,-68,-34,-39,-48
-43,-63,-19,53,-12,-41,-375,-63,-63,-34,-39,-48
-43,-53,-9,48,-17,-31,-375,-73,-82,-34,-29,-39
-43,-53,-9,48,-17,-31,-380,-73,-87,-43,-29,-39
-43,-53,-9,48,-17,-31,-380,-73,-87,-43,-29,-43
-43,-53,-9,48,-17,-31,-380,-73,-87,-48,-29,-43
-43,-63,-19,53,-12,-41,-385,-68,-78,-48,-34,-53
-43,-63,-19,53,-12,-41,-385,-68,-78,-48,-34,-53
-43,-63,-19,53,-12,-41,-390,-73,-78,-48,-34,-53
-43,-63,-19,53,-12,-41,-390,-73,-78,-48,-34,-58
-43,-53,-9,48,-17,-31,-390,-87,-92,-58,-43,-58
-48,-58,-9,53,-19,-34,-390,-87,-92,-63,-43,-58
-48,-58,-9,53,-19,-34,-390,-87,-97,-63,-43,-53
-48,-58,-9,53,-19,-34,-390,-87,-97,-63,-43,-53
-48,-58,-9,53,-19,-34,-395,-92,-87,-63,-43,-63
-48,-58,-9,53,-19,-34,-395,-92,-87,-63,-43,-68
-48,-58,-9,53,-19,-34,-400,-97,-92,-63,-43,-68
-48,-58,-9,53,-19,-34,-400,-102,-92,-63,-48,-68
-39,-58,-19,48,-9,-39,-400,-112,-102,-63,-43,-58
-39,-63,-24,51,-7,-43,-409,-117,-112,-63,-43,-58
-43,-63,-19,53,-12,-41,-409,-117,-112,-68,-43,-58
-43,-63,-19,53,-12,-41,-405,-117,-112,-73,-48,-63
-53,-63,-9,58,-21,-36,-414,-107,-107,-63,-48,-58
-53,-63,-9,58,-21,-36,-414,-112,-107,-68,-48,-58
-53,-68,-14,61,-19,-41,-414,-112,-107,-68,-48,-53
-53,-68,-14,61,-19,-41,-414,-112,-102,-68,-48,-53
-43,-78,-34,61,-4,-56,-414,-122,-102,-78,-43,-63
-43,-78,-34,61,-4,-56,-414,-122,-112,-78,-43,-63
-48,-78,-29,63,-9,-53,-414,-122,-112,-68,-43,-63
-48,-78,-29,63,-9,-53,-419,-122,-112,-68,-43,-63
-58,-78,-19,68,-19,-48,-419,-117,-112,-73,-43,-63
-58,-78,-19,68,-19,-48,-419,-117,-112,-73,-48,-63
-58,-78,-19,68,-19,-48,-419,-122,-112,-78,-48,-63
-58,-82,-24,70,-17,-53,-419,-122,-112,-78,-48,-63
-48,-73,-24,61,-12,-48,-424,-122,-112,-87,-58,-73
-48,-73,-24,61,-12,-48,-424,-122,-112,-87,-58,-73
-48,-73,-24,61,-12,-48,-424,-122,-122,-82,-58,-78
-53,-73,-19,63,-17,-46,-424,-122,-126,-82,-58,-78
-53,-73,-19,63,-17,-46,-419,-131,-136,-78,-53,-68
-53,-73,-19,63,-17,-46,-419,-131,-131,-78,-53,-68
-48,-73,-24,61,-12,-48,-424,-136,-126,-78,-53,-68
-48,-73,-24,61,-12,-48,-424,-136,-126,-78,-53,-68
-53,-73,-19,63,-17,-46,-424,-136,-112,-87,-53,-78
-43,-68,-24,56,-9,-46,-429,-131,-112,-82,-48,-78
-43,-68,-24,56,-9,-46,-434,-131,-117,-82,-48,-68
-39,-68,-29,53,-4,-48,-439,-131,-117,-82,-48,-68
-34,-63,-29,48,-2,-46,-439,-131,-117,-82,-43,-63
-34,-63,-29,48,-2,-46,-434,-131,-117,-82,-43,-58
-34,-63,-29,48,-2,-46,-424,-122,-112,-82,-43,-58
-34,-63,-29,48,-2,-46,-424,-117,-107,-82,-43,-53
-34,-68,-34,51,0,-51,-419,-112,-97,-82,-48,-63
-24,-68,-43,46,9,-56,-409,-107,-92,-73,-48,-63
-19,-58,-39,39,9,-48,-405,-92,-92,-73,-39,-53
-14,-53,-39,34,12,-46,-405,-87,-87,-63,-34,-48
-4,-48,-43,26,19,-46,-400,-63,-73,-48,-24,-34
9,-34,-43,12,26,-39,-395,-53,-68,-39,-19,-29
14,-24,-39,4,26,-31,-390,-48,-63,-29,-14,-24
14,-14,-29,0,21,-21,-380,-48,-53,-24,-9,-19
14,-4,-19,-4,17,-12,-385,-48,-43,-24,4,-24
19,4,-14,-12,17,-4,-385,-53,-43,-24,9,-14
24,19,-4,-21,14,7,-385,-58,-43,-19,14,-9
24,29,4,-26,9,17,-385,-58,-43,-14,14,0
24,39,14,-31,4,26,-395,-63,-53,-24,14,0
24,39,14,-31,4,26,-400,-73,-58,-29,19,0
34,39,4,-36,14,21,-405,-73,-63,-29,19,0
39,39,0,-39,19,19,-405,-73,-63,-34,19,0
39,39,0,-39,19,19,-405,-68,-58,-39,14,0
43,34,-9,-39,26,12,-409,-78,-58,-39,14,0
43,34,-9,-39,26,12,-424,-87,-63,-34,14,0
48,29,-19,-39,34,4,-439,-97,-68,-34,9,0
63,24,-39,-43,51,-7,-448,-107,-87,-53,9,4
68,29,-39,-48,53,-4,-448,-107,-97,-48,19,9
63,24,-39,-43,51,-7,-439,-107,-87,-39,14,0
58,19,-39,-39,48,-9,-439,-107,-87,-39,9,0
53,14,-39,-34,46,-12,-439,-107,-87,-39,4,0
48,9,-39,-29,43,-14,-439,-107,-87,-39,0,0
39,-9,-48,-14,43,-29,-424,-112,-87,-48,-4,-9
29,-9,-39,-9,34,-24,-419,-112,-87,-48,-4,-9
19,-4,-24,-7,21,-14,-409,-112,-87,-48,0,-9
19,0,-19,-9,19,-9,-409,-117,-92,-48,0,-4
9,14,4,-12,2,9,-409,-122,-97,-39,0,-4
0,14,14,-7,-7,14,-409,-126,-97,-43,-4,-4
-24,-4,19,14,-21,7,-409,-126,-97,-53,-9,-9
-39,-19,19,29,-29,0,-405,-136,-107,-63,-24,-29
-48,-34,14,41,-31,-9,-405,-141,-107,-82,-34,-39
-53,-48,4,51,-29,-21,-405,-151,-112,-87,-43,-48
-63,-68,-4,65,-29,-36,-405,-151,-122,-97,-53,-58
-68,-82,-14,75,-26,-48,-395,-151,-126,-102,-63,-68
-78,-97,-19,87,-29,-58,-395,-161,-146,-122,-63,-82
-78,-102,-24,90,-26,-63,-390,-161,-146,-122,-68,-82
-82,-112,-29,97,-26,-70,-390,-161,-146,-122,-68,-87
-87,-112,-24,100,-31,-68,-385,-161,-141,-122,-73,-92
-97,-117,-19,107,-39,-68,-375,-151,-141,-117,-73,-87
-97,-122,-24,109,-36,-73,-366,-156,-141,-117,-73,-92
-97,-122,-24,109,-36,-73,-375,-156,-141,-117,-73,-92
-97,-122,-24,109,-36,-73,-375,-156,-141,-122,-73,-92
-87,-122,-34,104,-26,-78,-375,-165,-151,-131,-78,-92
-87,-122,-34,104,-26,-78,-370,-161,-151,-131,-78,-92
-87,-122,-34,104,-26,-78,-370,-161,-146,-131,-78,-92
-87,-122,-34,104,-26,-78,-366,-161,-146,-126,-73,-87
-97,-131,-34,114,-31,-82,-366,-151,-136,-126,-82,-97
-97,-131,-34,114,-31,-82,-366,-161,-136,-131,-82,-102
-97,-136,-39,117,-29,-87,-366,-161,-136,-131,-82,-102
-97,-136,-39,117,-29,-87,-366,-161,-136,-131,-78,-102
-87,-126,-39,107,-24,-82,-356,-170,-151,-131,-78,-102
-87,-122,-34,104,-26,-78,-356,-165,-156,-131,-82,-102
-87,-122,-34,104,-26,-78,-356,-165,-161,-136,-87,-97
-92,-122,-29,107,-31,-75,-356,-170,-165,-136,-87,-97
-102,-126,-24,114,-39,-75,-346,-161,-156,-131,-87,-97
-102,-126,-24,114,-39,-75,-346,-161,-151,-131,-82,-102
-102,-126,-24,114,-39,-75,-351,-161,-151,-131,-78,-102
-102,-122,-19,112,-41,-70,-351,-161,-156,-136,-78,-102
-92,-122,-29,107,-31,-75,-361,-170,-170,-146,-78,-97
-92,-122,-29,107,-31,-75,-361,-170,-170,-146,-78,-97
-92,-122,-29,107,-31,-75,-361,-180,-165,-146,-78,-97
-92,-122,-29,107,-31,-75,-361,-170,-165,-146,-78,-97
-92,-122,-29,107,-31,-75,-356,-161,-161,-136,-82,-112
-92,-122,-29,107,-31,-75,-356,-165,-156,-136,-82,-112
-92,-122,-29,107,-31,-75,-356,-165,-151,-136,-82,-112
-92,-122,-29,107,-31,-75,-356,-165,-146,-131,-82,-112
-92,-122,-29,107,-31,-75,-346,-175,-156,-131,-82,-92
-92,-117,-24,104,-34,-70,-346,-180,-170,-136,-82,-92
-82,-112,-29,97,-26,-70,-356,-185,-170,-141,-82,-92
-82,-112,-29,97,-26,-70,-370,-195,-175,-136,-82,-97
-92,-112,-19,102,-36,-65,-366,-200,-165,-136,-82,-92
-97,-107,-9,102,-43,-58,-361,-214,-165,-136,-82,-92
-102,-112,-9,107,-46,-61,-361,-229,-190,-146,-87,-97
-92,-122,-29,107,-31,-75,-370,-239,-209,-156,-87,-97
-87,-112,-24,100,-31,-68,-370,-224,-209,-146,-78,-92
-68,-97,-29,82,-19,-63,-361,-200,-185,-122,-53,-58
-24,-58,-34,41,4,-46,-356,-170,-136,-78,0,-24
14,-19,-34,2,24,-26,-351,-107,-63,0,53,24
68,34,-34,-51,51,0,-326,-4,43,87,136,82
131,92,-39,-112,85,26,-307,92,136,190,234,151
209,151,-58,-180,134,46,-297,170,219,268,307,214
268,200,-68,-234,168,65,-297,219,287,346,395,278
326,258,-68,-292,197,95,-312,273,336,405,463,346
400,317,-82,-358,241,117,-312,322,375,439,517,400
483,356,-126,-419,305,114,-317,370,390,458,541,439
536,424,-112,-480,324,156,-322,414,419,483,570,488
590,531,-58,-561,324,236,-326,448,453,522,634,546
629,610,-19,-619,324,295,-336,473,473,531,668,605
673,649,-24,-661,348,312,-346,488,458,512,653,624
673,649,-24,-661,348,312,-341,502,434,458,610,595
634,639,4,-636,314,322,-297,531,409,400,546,566
580,624,43,-602,268,334,-224,619,448,380,507,556
483,600,117,-541,183,358,-82,834,580,434,483,517
380,507,126,-444,126,317,97,1083,736,473,419,429
283,419,136,-351,73,278,200,1215,795,458,346,326
151,385,234,-268,-41,309,273,1224,790,439,292,273
-43,336,380,-146,-212,358,380,1224,790,424,248,209
-263,268,531,-2,-397,400,483,1200,766,395,170,112
-424,219,644,102,-534,431,546,1146,717,346,97,24
-502,234,736,134,-619,485,556,1034,644,297,78,4
-536,244,780,146,-658,512,507,902,566,258,73,14
-527,209,736,158,-631,473,473,805,507,234,63,-9
-502,126,629,187,-566,378,478,795,488,204,24,-63
-488,58,546,214,-517,302,536,863,517,204,0,-112
-463,9,473,226,-468,241,605,966,575,224,-4,-136
-434,-48,385,241,-409,168,673,1068,634,234,-9,-161
-405,-131,273,268,-339,70,732,1185,678,244,-24,-204
-390,-204,185,297,-287,-9,780,1268,702,244,-43,-234
-375,-297,78,336,-226,-109,839,1337,707,224,-87,-278
-375,-395,-19,385,-178,-207,902,1420,732,219,-117,-326
-380,-453,-73,417,-153,-263,956,1493,756,229,-126,-356
-380,-478,-97,429,-141,-287,995,1527,771,214,-136,-356
-390,-502,-112,446,-139,-307,1054,1571,795,204,-151,-366
-400,-546,-146,473,-126,-346,1117,1668,814,209,-156,-390
-400,-585,-185,492,-107,-385,1185,1771,834,200,-165,-409
-395,-639,-244,517,-75,-441,1278,1888,849,200,-175,-414
-409,-707,-297,558,-56,-502,1381,2034,868,195,-185,-439
-414,-771,-356,592,-29,-563,1473,2166,888,180,-209,-463
-424,-824,-400,624,-12,-612,1566,2288,897,161,-239,-492
-444,-902,-458,673,7,-680,1668,2405,907,146,-273,-527
-478,-951,-473,714,-2,-712,1766,2498,907,126,-297,-556
-502,-985,-483,744,-9,-734,1839,2537,902,107,-312,-570
-512,-1005,-492,758,-9,-749,1859,2498,863,87,-326,-580
-512,-980,-468,746,-21,-724,1839,2415,819,78,-317,-556
-512,-951,-439,732,-36,-695,1825,2342,780,68,-292,-522
-507,-907,-400,707,-53,-653,1781,2235,732,63,-278,-497
-492,-863,-370,678,-61,-617,1737,2127,697,58,-263,-478
-488,-810,-322,649,-82,-566,1712,2039,678,58,-244,-448
-483,-741,-258,612,-112,-500,1693,1976,658,68,-224,-414
-453,-673,-219,563,-117,-446,1634,1873,634,87,-195,-375
-429,-590,-161,509,-134,-375,1532,1722,595,82,-161,-331
-375,-502,-126,439,-124,-314,1356,1507,536,73,-131,-283
-336,-409,-73,373,-131,-241,1166,1278,448,68,-92,-229
-307,-366,-58,336,-124,-212,990,1049,366,39,-78,-200
-283,-331,-48,307,-117,-190,834,854,283,4,-78,-185
-258,-283,-24,270,-117,-153,668,653,204,-19,-73,-161
-219,-248,-29,234,-95,-139,507,468,136,-39,-68,-146
-200,-224,-24,212,-87,-124,361,307,78,-63,-68,-126
-170,-185,-14,178,-78,-100,195,136,0,-87,-68,-122
-136,-141,-4,139,-65,-73,4,-14,-68,-107,-58,-102
-97,-117,-19,107,-39,-68,-107,-107,-107,-122,-48,-87
-73,-92,-19,82,-26,-56,-170,-151,-131,-122,-43,-68
-53,-73,-19,63,-17,-46,-219,-170,-151,-122,-39,-58
-43,-63,-19,53,-12,-41,-258,-190,-151,-117,-34,-53
-34,-63,-29,48,-2,-46,-273,-204,-151,-107,-39,-53
-39,-53,-14,46,-12,-34,-278,-219,-146,-102,-39,-53
-39,-53,-14,46,-12,-34,-287,-234,-156,-97,-39,-48
-34,-48,-14,41,-9,-31,-307,-244,-156,-92,-34,-48
-29,-43,-14,36,-7,-29,-317,-253,-161,-92,-34,-48
-24,-39,-14,31,-4,-26,-322,-283,-185,-97,-34,-34
-19,-34,-14,26,-2,-24,-331,-297,-200,-97,-34,-34
-19,-29,-9,24,-4,-19,-341,-307,-204,-97,-34,-24
-14,-24,-9,19,-2,-17,-351,-312,-209,-92,-34,-24
-9,-29,-19,19,4,-24,-351,-312,-209,-82,-34,-34
-4,-24,-19,14,7,-21,-356,-322,-214,-82,-29,-34
-4,-24,-19,14,7,-21,-361,-331,-209,-82,-29,-29
-4,-24,-19,14,7,-21,-361,-331,-204,-82,-29,-24
0,-4,-4,2,2,-4,-366,-351,-224,-92,-24,-14
0,-4,-4,2,2,-4,-370,-366,-229,-97,-14,-9
0,0,0,0,0,0,-380,-366,-229,-102,-14,-4
4,0,-4,-2,4,-2,-385,-375,-229,-102,-14,-4
9,4,-4,-7,7,0,-380,-366,-224,-92,-14,-19
9,9,0,-9,4,4,-380,-380,-224,-92,-9,-19
9,9,0,-9,4,4,-380,-380,-219,-92,-9,-14
14,9,-4,-12,9,2,-385,-385,-214,-92,-9,-9
19,9,-9,-14,14,0,-400,-400,-219,-102,-4,0
29,19,-9,-24,19,4,-405,-405,-234,-107,-4,0
29,24,-4,-26,17,9,-409,-409,-239,-107,0,4
34,29,-4,-31,19,12,-419,-414,-244,-107,0,4
24,24,0,-24,12,12,-419,-409,-234,-97,-4,9
29,29,0,-29,14,14,-424,-414,-239,-92,-4,9
29,34,4,-31,12,19,-434,-424,-239,-92,-4,9
39,39,0,-39,19,19,-444,-429,-239,-92,0,14
53,43,-9,-48,31,17,-463,-434,-244,-97,0,24
53,48,-4,-51,29,21,-478,-444,-253,-97,4,24
58,53,-4,-56,31,24,-492,-448,-263,-97,14,29
63,58,-4,-61,34,26,-507,-453,-268,-92,14,39
53,73,19,-63,17,46,-517,-463,-263,-92,14,39
58,82,24,-70,17,53,-522,-468,-263,-92,14,43
63,87,24,-75,19,56,-531,-478,-258,-92,24,43
68,92,24,-80,21,58,-536,-488,-253,-87,29,43
82,97,14,-90,34,56,-556,-497,-263,-87,29,48
87,102,14,-95,36,58,-570,-502,-278,-87,34,53
92,107,14,-100,39,61,-585,-512,-283,-87,39,58
97,122,24,-109,36,73,-585,-522,-283,-87,39,68
92,122,29,-107,31,75,-595,-527,-278,-78,43,68
97,131,34,-114,31,82,-605,-536,-278,-78,48,73
102,136,34,-119,34,85,-614,-546,-287,-78,53,78
107,141,34,-124,36,87,-624,-556,-287,-78,53,82
117,161,43,-139,36,102,-629,-575,-297,-82,58,87
122,165,43,-143,39,104,-644,-585,-297,-82,58,92
126,170,43,-148,41,107,-649,-595,-302,-87,68,92
131,185,53,-158,39,119,-653,-605,-317,-87,68,102
146,180,34,-163,56,107,-663,-605,-322,-73,78,102
151,190,39,-170,56,114,-668,-624,-322,-73,78,107
156,190,34,-173,61,112,-678,-629,-326,-73,78,112
165,195,29,-180,68,112,-683,-639,-326,-73,87,112
165,209,43,-187,61,126,-692,-663,-326,-73,87,117
170,219,48,-195,61,134,-697,-668,-331,-68,92,122
175,224,48,-200,63,136,-697,-678,-336,-68,92,126
180,229,48,-204,65,139,-702,-688,-346,-68,102,131
185,239,53,-212,65,146,-707,-688,-341,-68,92,141
190,248,58,-219,65,153,-712,-702,-341,-68,87,146
190,248,58,-219,65,153,-717,-707,-346,-68,87,146
190,253,63,-222,63,158,-722,-717,-346,-68,92,146
195,268,73,-231,61,170,-722,-727,-351,-68,102,156
204,273,68,-239,68,170,-732,-732,-351,-68,102,156
209,283,73,-246,68,178,-736,-741,-356,-68,107,156
214,287,73,-251,70,180,-746,-746,-361,-68,107,161
204,283,78,-244,63,180,-746,-746,-356,-53,112,161
204,287,82,-246,61,185,-746,-751,-356,-53,112,165
204,292,87,-248,58,190,-751,-751,-356,-53,112,165
204,297,92,-251,56,195,-756,-751,-356,-53,117,165
209,302,92,-256,58,197,-746,-761,-346,-58,122,170
214,302,87,-258,63,195,-746,-761,-336,-53,122,170
219,307,87,-263,65,197,-751,-761,-336,-48,122,170
219,312,92,-265,63,202,-751,-761,-336,-48,131,170
224,317,92,-270,65,204,-751,-761,-346,-48,122,180
224,322,97,-273,63,209,-751,-756,-346,-43,122,180
224,322,97,-273,63,209,-746,-751,-336,-34,122,180
224,322,97,-273,63,209,-736,-741,-326,-29,131,185
214,322,107,-268,53,214,-727,-732,-307,-24,131,185
214,322,107,-268,53,214,-727,-727,-297,-14,136,185
214,322,107,-268,53,214,-722,-717,-287,-14,136,185
214,322,107,-268,53,214,-712,-707,-287,-9,136,185
214,326,112,-270,51,219,-702,-697,-283,-14,136,185
204,326,122,-265,41,224,-688,-688,-273,-9,141,185
195,322,126,-258,34,224,-683,-673,-263,-4,141,185
195,322,126,-258,34,224,-668,-658,-248,0,141,185
195,317,122,-256,36,219,-649,-644,-234,9,131,180
190,307,117,-248,36,212,-639,-629,-214,14,136,175
190,307,117,-248,36,212,-629,-614,-209,19,136,170
185,307,122,-246,31,214,-619,-595,-204,24,131,170
190,302,112,-246,39,207,-605,-580,-200,29,141,165
180,292,112,-236,34,202,-595,-561,-195,29,141,165
175,283,107,-229,34,195,-575,-546,-190,34,136,161
170,278,107,-224,31,192,-561,-522,-180,39,136,161
165,268,102,-217,31,185,-536,-497,-161,39,131,146
156,258,102,-207,26,180,-527,-483,-156,43,131,141
151,258,107,-204,21,183,-522,-463,-136,43,131,131
141,248,107,-195,17,178,-507,-444,-126,48,126,126
136,248,112,-192,12,180,-497,-434,-131,48,126,131
131,239,107,-185,12,173,-483,-409,-126,53,122,126
126,229,102,-178,12,165,-463,-390,-117,53,117,122
126,224,97,-175,14,161,-448,-366,-102,53,117,122
112,204,92,-158,9,148,-429,-346,-92,53,102,102
97,195,97,-146,0,146,-409,-331,-78,53,102,92
92,185,92,-139,0,139,-385,-312,-68,53,97,87
87,170,82,-129,2,126,-366,-292,-53,58,92,73
92,170,78,-131,7,124,-366,-273,-63,48,82,82
82,161,78,-122,2,119,-351,-258,-58,48,78,78
73,151,78,-112,-2,114,-336,-244,-53,48,73,73
63,141,78,-102,-7,109,-322,-229,-53,48,68,68
63,131,68,-97,-2,100,-297,-204,-39,58,63,58
53,122,68,-87,-7,95,-278,-190,-29,58,58,48
48,112,63,-80,-7,87,-263,-165,-19,53,53,39
48,102,53,-75,-2,78,-253,-151,-19,43,48,34
39,102,63,-70,-12,82,-258,-146,-29,29,53,29
34,92,58,-63,-12,75,-244,-141,-24,29,48,24
24,87,63,-56,-19,75,-234,-131,-24,29,43,24
19,78,58,-48,-19,68,-229,-122,-24,24,39,19
14,68,53,-41,-19,61,-209,-107,-9,29,29,14
9,53,43,-31,-17,48,-200,-92,-9,24,24,4
4,53,48,-29,-21,51,-190,-78,-4,24,19,0
0,48,48,-24,-24,48,-180,-73,-4,24,14,-9
4,48,43,-26,-19,46,-190,-68,-14,9,19,-9
0,43,43,-21,-21,43,-180,-68,-14,4,19,-9
0,39,39,-19,-19,39,-180,-68,-24,4,19,-9
0,34,34,-17,-17,34,-170,-68,-24,4,19,-9
-14,29,43,-7,-29,36,-161,-58,-14,14,4,-14
-19,24,43,-2,-31,34,-151,-58,-9,9,0,-19
-19,19,39,0,-29,29,-146,-58,-9,9,-4,-29
-24,14,39,4,-31,26,-141,-53,-9,9,-4,-29
-14,9,24,2,-19,17,-146,-58,-19,4,0,-19
-14,9,24,2,-19,17,-146,-58,-19,0,0,-19
-14,4,19,4,-17,12,-146,-58,-29,-4,-4,-19
-14,4,19,4,-17,12,-146,-53,-29,-9,-4,-19
-29,4,34,12,-31,19,-136,-43,-19,-4,-4,-29
-29,-4,24,17,-26,9,-131,-43,-9,0,-4,-29
-29,-4,24,17,-26,9,-126,-43,-9,-4,-9,-34
-29,-4,24,17,-26,9,-122,-43,-19,0,-9,-39
-19,-4,14,12,-17,4,-122,-43,-29,-9,-9,-39
-24,-9,14,17,-19,2,-122,-43,-29,-9,-9,-39
-24,-9,14,17,-19,2,-126,-43,-29,-9,-9,-34
-24,-9,14,17,-19,2,-126,-39,-34,-9,-9,-34
-29,-19,9,24,-19,-4,-126,-39,-24,0,-19,-39
-29,-19,9,24,-19,-4,-126,-43,-24,-9,-19,-39
-29,-19,9,24,-19,-4,-126,-43,-19,-9,-24,-39
-29,-19,9,24,-19,-4,-126,-39,-14,-14,-24,-43
-39,-24,14,31,-26,-4,-117,-39,-24,-14,-14,-34
-39,-24,14,31,-26,-4,-117,-39,-29,-9,-14,-34
-34,-24,9,29,-21,-7,-122,-39,-29,-9,-14,-34
-34,-24,9,29,-21,-7,-131,-39,-34,-9,-14,-29
-34,-24,9,29,-21,-7,-131,-43,-24,-4,-19,-39
-39,-24,14,31,-26,-4,-131,-43,-19,-4,-19,-43
-39,-29,9,34,-24,-9,-131,-43,-19,-4,-19,-43
-39,-29,9,34,-24,-9,-126,-43,-19,-9,-19,-43
-34,-29,4,31,-19,-12,-126,-43,-19,-9,-19,-43
-34,-29,4,31,-19,-12,-126,-43,-19,-4,-19,-43
-34,-29,4,31,-19,-12,-136,-43,-24,-4,-19,-43
-34,-29,4,31,-19,-12,-141,-43,-24,-4,-19,-43
-34,-29,4,31,-19,-12,-136,-43,-19,-4,-19,-34
-34,-29,4,31,-19,-12,-136,-48,-24,-4,-19,-34
-34,-29,4,31,-19,-12,-136,-48,-29,-9,-19,-34
-34,-29,4,31,-19,-12,-131,-48,-29,-9,-19,-34
-34,-34,0,34,-17,-17,-141,-34,-34,-9,-19,-43
-34,-34,0,34,-17,-17,-141,-34,-24,-9,-19,-48
-34,-34,0,34,-17,-17,-141,-43,-24,-9,-19,-48
-34,-34,0,34,-17,-17,-156,-43,-34,-9,-24,-48
-34,-34,0,34,-17,-17,-146,-43,-34,-9,-24,-43
-34,-34,0,34,-17,-17,-151,-48,-34,-9,-24,-43
-34,-34,0,34,-17,-17,-151,-48,-39,-9,-24,-48
-34,-34,0,34,-17,-17,-151,-48,-43,-19,-24,-48
-43,-34,9,39,-26,-12,-156,-48,-43,-19,-24,-48
-43,-34,9,39,-26,-12,-156,-48,-39,-19,-29,-48
-43,-34,9,39,-26,-12,-161,-53,-34,-14,-29,-48
-43,-34,9,39,-26,-12,-170,-63,-34,-14,-29,-48
-34,-34,0,34,-17,-17,-161,-63,-53,-14,-29,-39
-34,-34,0,34,-17,-17,-165,-63,-58,-24,-29,-39
-34,-34,0,34,-17,-17,-165,-63,-58,-24,-29,-43
-34,-34,0,34,-17,-17,-165,-63,-58,-29,-29,-43
-34,-43,-9,39,-12,-26,-151,-68,-48,-29,-34,-53
-34,-43,-9,39,-12,-26,-151,-68,-48,-29,-34,-53
-34,-43,-9,39,-12,-26,-156,-73,-48,-29,-34,-53
-34,-43,-9,39,-12,-26,-156,-73,-48,-29,-34,-58
-24,-34,-9,29,-7,-21,-165,-78,-63,-29,-43,-48
-29,-39,-9,34,-9,-24,-165,-78,-63,-34,-43,-48
-29,-39,-9,34,-9,-24,-165,-78,-68,-34,-43,-43
-29,-39,-9,34,-9,-24,-165,-78,-68,-34,-43,-43
-39,-39,0,39,-19,-19,-161,-82,-58,-34,-43,-53
-39,-39,0,39,-19,-19,-161,-82,-58,-34,-43,-58
-39,-39,0,39,-19,-19,-165,-87,-63,-34,-43,-58
-39,-39,0,39,-19,-19,-165,-92,-63,-34,-48,-58
-39,-39,0,39,-19,-19,-156,-92,-73,-43,-43,-48
-39,-43,-4,41,-17,-24,-165,-97,-82,-43,-43,-48
-43,-43,0,43,-21,-21,-165,-97,-82,-48,-43,-48
-43,-43,0,43,-21,-21,-161,-97,-82,-53,-48,-53
-43,-43,0,43,-21,-21,-151,-97,-82,-48,-58,-58
-43,-43,0,43,-21,-21,-151,-102,-78,-48,-58,-58
-43,-48,-4,46,-19,-26,-151,-102,-73,-43,-58,-53
-43,-48,-4,46,-19,-26,-151,-102,-63,-39,-58,-53
-34,-48,-14,41,-9,-31,-161,-112,-68,-58,-53,-43
-34,-48,-14,41,-9,-31,-161,-112,-82,-58,-53,-43
-39,-48,-9,43,-14,-29,-161,-112,-87,-48,-53,-43
-39,-48,-9,43,-14,-29,-165,-112,-92,-48,-53,-43
-48,-48,0,48,-24,-24,-156,-107,-82,-43,-63,-48
-48,-48,0,48,-24,-24,-156,-107,-82,-43,-68,-53
-48,-48,0,48,-24,-24,-156,-112,-82,-48,-68,-58
-48,-53,-4,51,-21,-29,-156,-112,-82,-48,-68,-63
-39,-53,-14,46,-12,-34,-151,-122,-92,-58,-68,-53
-39,-53,-14,46,-12,-34,-151,-122,-92,-58,-68,-53
-39,-53,-14,46,-12,-34,-151,-122,-102,-53,-68,-58
-43,-53,-9,48,-17,-31,-151,-122,-107,-53,-68,-58
-43,-53,-9,48,-17,-31,-151,-112,-102,-58,-63,-68
-43,-53,-9,48,-17,-31,-146,-112,-92,-58,-63,-68
-39,-53,-14,46,-12,-34,-146,-117,-82,-58,-63,-68
-39,-53,-14,46,-12,-34,-141,-117,-78,-58,-63,-68
-34,-53,-19,43,-7,-36,-141,-126,-78,-68,-63,-58
-24,-48,-24,36,0,-36,-146,-122,-82,-63,-58,-58
-24,-48,-24,36,0,-36,-151,-122,-92,-63,-58,-48
-19,-48,-29,34,4,-39,-156,-122,-97,-63,-58,-48
-24,-43,-19,34,-2,-31,-156,-122,-92,-53,-53,-58
-24,-43,-19,34,-2,-31,-151,-122,-87,-53,-53,-58
-24,-43,-19,34,-2,-31,-141,-112,-78,-53,-53,-63
-24,-43,-19,34,-2,-31,-141,-107,-68,-53,-53,-63
-14,-39,-24,26,4,-31,-136,-102,-63,-58,-48,-53
-4,-39,-34,21,14,-36,-126,-97,-63,-53,-48,-53
0,-29,-29,14,14,-29,-122,-82,-68,-58,-39,-43
4,-24,-29,9,17,-26,-122,-78,-68,-53,-34,-39
4,-19,-24,7,14,-21,-117,-53,-48,-39,-29,-39
19,-4,-24,-7,21,-14,-112,-43,-39,-29,-29,-39
24,4,-19,-14,21,-7,-107,-39,-29,-19,-29,-39
24,14,-9,-19,17,2,-97,-39,-14,-14,-29,-39
34,34,0,-34,17,17,-97,-48,-24,-14,-14,-29
39,43,4,-41,17,24,-102,-53,-24,-14,-9,-14
43,58,14,-51,14,36,-107,-58,-24,-9,-4,-4
43,68,24,-56,9,46,-112,-58,-24,-4,-4,9
34,68,34,-51,0,51,-112,-53,-14,-4,-4,9
34,68,34,-51,0,51,-117,-63,-19,-9,0,9
43,68,24,-56,9,46,-122,-63,-24,-9,0,9
48,68,19,-58,14,43,-122,-63,-24,-14,0,9
68,68,0,-68,34,34,-141,-78,-34,-14,-4,9
73,63,-9,-68,41,26,-146,-87,-39,-19,-4,9
73,63,-9,-68,41,26,-161,-97,-48,-19,-4,9
78,58,-19,-68,48,19,-175,-107,-58,-24,-9,9
92,53,-39,-73,65,7,-175,-107,-78,-34,-9,4
78,58,-19,-68,48,19,-165,-97,-68,-19,0,9
73,53,-19,-63,46,17,-156,-97,-58,-29,-4,4
68,48,-19,-58,43,14,-156,-97,-58,-29,-9,0
63,43,-19,-53,41,12,-156,-97,-58,-29,-14,-4
58,39,-19,-48,39,9,-156,-97,-58,-29,-19,-9
58,19,-39,-39,48,-9,-161,-107,-63,-34,-24,-9
48,19,-29,-34,39,-4,-156,-112,-68,-39,-24,-9
39,24,-14,-31,26,4,-146,-117,-73,-43,-19,-9
39,29,-9,-34,24,9,-146,-126,-82,-48,-19,-4
19,34,14,-26,2,24,-136,-122,-82,-39,-19,-14
9,34,24,-21,-7,29,-136,-126,-78,-43,-24,-14
-14,14,29,0,-21,21,-136,-126,-73,-53,-29,-19
-29,0,29,14,-29,14,-131,-136,-78,-63,-43,-39
-29,-4,24,17,-26,9,-141,-151,-92,-82,-43,-43
-34,-19,14,26,-24,-2,-141,-161,-102,-87,-53,-48
-43,-39,4,41,-24,-17,-141,-161,-117,-97,-63,-53
-48,-53,-4,51,-21,-29,-131,-161,-126,-102,-73,-58
-68,-68,0,68,-34,-34,-122,-151,-122,-102,-82,-68
-68,-73,-4,70,-31,-39,-117,-151,-117,-102,-87,-73
-73,-82,-9,78,-31,-46,-117,-151,-112,-102,-87,-82
-78,-82,-4,80,-36,-43,-112,-151,-102,-102,-92,-92
-78,-97,-19,87,-29,-58,-122,-161,-117,-117,-92,-92
-78,-102,-24,90,-26,-63,-112,-165,-122,-117,-92,-92
-78,-102,-24,90,-26,-63,-122,-165,-126,-117,-92,-87
-78,-102,-24,90,-26,-63,-122,-165,-131,-122,-92,-82
-78,-102,-24,90,-26,-63,-112,-165,-131,-122,-107,-87
-78,-102,-24,90,-26,-63,-107,-161,-131,-122,-107,-92
-78,-102,-24,90,-26,-63,-107,-161,-126,-122,-107,-97
-78,-102,-24,90,-26,-63,-102,-161,-126,-117,-102,-97
-78,-92,-14,85,-31,-53,-102,-161,-131,-126,-92,-87
-78,-92,-14,85,-31,-53,-102,-170,-136,-131,-92,-92
-78,-97,-19,87,-29,-58,-102,-170,-141,-131,-92,-92
-78,-97,-19,87,-29,-58,-102,-170,-146,-131,-87,-92
-78,-97,-19,87,-29,-58,-102,-170,-136,-122,-97,-102
-78,-92,-14,85,-31,-53,-102,-165,-136,-122,-102,-102
-78,-92,-14,85,-31,-53,-102,-165,-136,-126,-107,-97
-82,-92,-9,87,-36,-51,-102,-170,-136,-126,-107,-97
-82,-97,-14,90,-34,-56,-112,-170,-146,-131,-107,-87
-82,-97,-14,90,-34,-56,-112,-170,-141,-131,-102,-92
-82,-97,-14,90,-34,-56,-117,-170,-141,-131,-97,-92
-82,-92,-9,87,-36,-51,-117,-170,-146,-136,-97,-92
-92,-92,0,92,-46,-46,-107,-161,-141,-126,-97,-92
-92,-92,0,92,-46,-46,-107,-161,-141,-126,-97,-97
-92,-92,0,92,-46,-46,-107,-170,-136,-126,-97,-102
-92,-92,0,92,-46,-46,-107,-161,-136,-126,-97,-107
-82,-92,-9,87,-36,-51,-122,-170,-146,-136,-102,-107
-82,-92,-9,87,-36,-51,-122,-175,-146,-136,-102,-102
-82,-92,-9,87,-36,-51,-122,-175,-146,-136,-102,-97
-82,-92,-9,87,-36,-51,-122,-175,-146,-131,-102,-92
-82,-92,-9,87,-36,-51,-112,-175,-146,-122,-102,-82
-82,-97,-14,90,-34,-56,-112,-170,-141,-126,-102,-92
-92,-102,-9,97,-41,-56,-112,-175,-141,-122,-102,-92
-92,-102,-9,97,-41,-56,-117,-185,-136,-126,-102,-97
-92,-82,9,87,-51,-36,-131,-209,-146,-126,-102,-92
-97,-78,19,87,-58,-29,-136,-224,-165,-136,-102,-82
-92,-82,9,87,-51,-36,-136,-239,-190,-156,-107,-87
-82,-92,-9,87,-36,-51,-146,-248,-209,-165,-107,-87
-87,-92,-4,90,-41,-48,-146,-234,-200,-156,-97,-82
-78,-78,0,78,-39,-39,-126,-209,-165,-122,-73,-68
-53,-58,-4,56,-24,-31,-112,-170,-117,-68,-39,-34
-4,-9,-4,7,0,-7,-107,-117,-43,0,14,4
48,43,-4,-46,26,19,-92,-34,34,68,97,63
122,102,-19,-112,70,41,-82,63,117,151,185,131
200,161,-39,-180,119,61,-92,131,190,239,258,204
268,209,-58,-239,163,75,-92,190,248,307,336,268
326,278,-48,-302,187,114,-87,244,307,375,405,326
409,326,-82,-368,246,122,-97,292,356,419,458,380
473,375,-97,-424,285,139,-92,341,380,439,483,409
536,434,-102,-485,319,165,-97,385,409,453,512,448
590,541,-48,-566,319,246,-112,419,434,483,566,527
639,629,-9,-634,324,309,-131,434,444,492,600,585
692,678,-14,-685,353,331,-151,448,429,473,605,605
702,688,-14,-695,358,336,-146,453,395,439,570,595
683,678,-4,-680,344,336,-112,473,370,380,507,566
629,683,53,-656,287,368,-58,551,400,361,468,546
531,658,126,-595,202,392,73,756,541,414,453,527
419,575,156,-497,131,366,263,1015,707,463,409,448
302,478,175,-390,63,326,395,1176,785,458,346,346
190,444,253,-317,-31,348,458,1205,780,429,292,292
24,414,390,-219,-183,402,546,1195,761,424,258,248
-204,356,561,-75,-383,458,649,1180,736,395,190,180
-385,307,692,39,-539,500,732,1137,707,366,126,102
-483,302,785,90,-634,544,751,1054,663,336,107,63
-536,322,858,107,-697,590,722,941,605,307,112,63
-546,307,854,119,-700,580,678,824,546,283,92,48
-522,224,746,148,-634,485,673,785,517,253,53,-14
-497,136,634,180,-566,385,722,844,536,234,29,-63
-473,87,561,192,-517,324,790,936,585,253,24,-78
-444,29,473,207,-458,251,858,1039,614,263,19,-102
-414,-63,351,239,-383,143,917,1156,658,263,-14,-146
-400,-146,253,273,-326,53,976,1259,712,263,-43,-195
-405,-248,156,326,-280,-46,1044,1337,727,253,-78,-248
-405,-346,58,375,-231,-143,1107,1410,751,239,-117,-307
-400,-424,-24,412,-187,-224,1161,1483,785,239,-136,-336
-400,-439,-39,419,-180,-239,1200,1527,800,244,-126,-336
-419,-463,-43,441,-187,-253,1249,1571,795,234,-131,-346
-419,-497,-78,458,-170,-287,1312,1649,805,209,-146,-351
-429,-536,-107,483,-161,-322,1381,1742,824,219,-156,-370
-434,-590,-156,512,-139,-373,1464,1849,839,219,-165,-385
-439,-639,-200,539,-119,-419,1566,1995,868,214,-185,-419
-453,-712,-258,583,-97,-485,1678,2127,897,200,-209,-444
-473,-785,-312,629,-80,-549,1771,2259,917,190,-248,-483
-492,-854,-361,673,-65,-607,1864,2366,917,156,-283,-517
-507,-912,-405,710,-51,-658,1942,2440,897,136,-297,-536
-522,-946,-424,734,-48,-685,2005,2479,873,107,-312,-561
-531,-966,-434,749,-48,-700,2025,2440,824,87,-317,-551
-531,-941,-409,736,-61,-675,2005,2357,780,78,-317,-536
-531,-912,-380,722,-75,-646,1991,2283,751,68,-312,-522
-527,-878,-351,702,-87,-614,1956,2196,732,73,-297,-497
-512,-824,-312,668,-100,-568,1912,2088,697,68,-273,-478
-517,-771,-253,644,-131,-512,1898,2010,678,78,-253,-448
-502,-722,-219,612,-141,-470,1869,1937,658,87,-234,-405
-473,-653,-180,563,-146,-417,1810,1834,614,78,-214,-375
-439,-570,-131,505,-153,-351,1717,1683,566,82,-180,-322
-385,-473,-87,429,-148,-280,1561,1488,507,73,-141,-273
-346,-380,-34,363,-156,-207,1361,1268,439,78,-112,-219
-326,-336,-9,331,-158,-173,1195,1058,366,58,-97,-200
-312,-302,9,307,-161,-146,1049,863,292,34,-97,-195
-278,-273,4,275,-141,-134,883,673,234,0,-92,-180
-239,-229,9,234,-124,-109,722,488,156,-29,-87,-156
-209,-195,14,202,-112,-90,566,317,87,-53,-87,-136
-180,-165,14,173,-97,-75,390,146,9,-78,-87,-122
-136,-122,14,129,-75,-53,200,-14,-68,-107,-78,-102
-97,-87,9,92,-53,-39,68,-107,-107,-112,-68,-78
-82,-63,19,73,-51,-21,-4,-141,-112,-112,-63,-78
-63,-53,9,58,-36,-21,-53,-170,-122,-102,-68,-68
-53,-34,19,43,-36,-7,-92,-180,-122,-97,-53,-63
-34,-34,0,34,-17,-17,-117,-195,-131,-97,-48,-63
-29,-24,4,26,-17,-9,-131,-214,-146,-97,-48,-58
-29,-24,4,26,-17,-9,-141,-234,-156,-97,-48,-48
-24,-19,4,21,-14,-7,-161,-248,-156,-97,-43,-43
-19,-14,4,17,-12,-4,-170,-263,-161,-102,-43,-39
-24,-9,14,17,-19,2,-175,-273,-170,-87,-43,-43
-19,-4,14,12,-17,4,-185,-287,-180,-87,-43,-43
-19,0,19,9,-19,9,-195,-297,-180,-87,-43,-34
-14,4,19,4,-17,12,-204,-302,-180,-82,-43,-34
0,9,9,-4,-4,9,-214,-312,-185,-92,-43,-34
4,14,9,-9,-2,12,-219,-322,-195,-92,-39,-34
4,14,9,-9,-2,12,-224,-331,-195,-92,-39,-29
4,14,9,-9,-2,12,-224,-331,-195,-92,-39,-24
9,24,14,-17,-2,19,-229,-341,-204,-82,-43,-24
9,24,14,-17,-2,19,-234,-356,-209,-87,-34,-19
9,29,19,-19,-4,24,-244,-356,-209,-92,-34,-14
14,29,14,-21,0,21,-248,-366,-209,-92,-34,-14
19,34,14,-26,2,24,-244,-366,-209,-102,-34,-19
19,39,19,-29,0,29,-244,-380,-214,-102,-29,-19
19,39,19,-29,0,29,-244,-380,-214,-102,-29,-14
24,39,14,-31,4,26,-248,-385,-214,-102,-29,-9
29,48,19,-39,4,34,-263,-400,-224,-102,-24,0
39,58,19,-48,9,39,-268,-405,-234,-107,-24,0
39,63,24,-51,7,43,-273,-409,-234,-107,-19,4
43,68,24,-56,9,46,-283,-414,-234,-107,-19,4
34,63,29,-48,2,46,-283,-409,-224,-97,-14,9
39,68,29,-53,4,48,-287,-414,-229,-92,-14,9
39,73,34,-56,2,53,-297,-424,-229,-92,-14,9
48,78,29,-63,9,53,-307,-429,-229,-92,-9,14
63,82,19,-73,21,51,-326,-444,-239,-97,-9,24
63,87,24,-75,19,56,-341,-453,-244,-97,-4,24
68,92,24,-80,21,58,-356,-458,-248,-97,4,29
73,97,24,-85,24,61,-370,-463,-248,-92,4,39
63,102,39,-82,12,70,-375,-463,-239,-82,-4,29
68,112,43,-90,12,78,-385,-468,-244,-82,-4,34
73,117,43,-95,14,80,-400,-478,-244,-82,4,34
78,122,43,-100,17,82,-409,-488,-244,-78,9,34
82,126,43,-104,19,85,-429,-497,-253,-87,9,48
87,131,43,-109,21,87,-444,-502,-268,-87,14,53
92,136,43,-114,24,90,-458,-512,-273,-87,19,58
97,151,53,-124,21,102,-458,-522,-273,-87,19,68
102,151,48,-126,26,100,-458,-517,-273,-78,24,58
107,161,53,-134,26,107,-468,-527,-268,-78,29,63
112,165,53,-139,29,109,-478,-536,-273,-78,34,68
117,170,53,-143,31,112,-488,-546,-268,-78,34,73
136,180,43,-158,46,112,-502,-566,-273,-82,48,87
141,185,43,-163,48,114,-517,-575,-278,-82,48,92
146,190,43,-168,51,117,-522,-585,-287,-87,58,92
151,204,53,-178,48,129,-527,-595,-307,-87,58,102
146,209,63,-178,41,136,-527,-595,-297,-73,58,92
151,219,68,-185,41,143,-531,-614,-292,-73,58,97
156,219,63,-187,46,141,-541,-619,-292,-73,58,102
165,224,58,-195,53,141,-546,-629,-287,-73,68,102
175,239,63,-207,56,151,-556,-653,-302,-82,68,117
180,248,68,-214,56,158,-561,-658,-312,-78,73,122
185,253,68,-219,58,161,-561,-668,-322,-78,73,126
190,258,68,-224,61,163,-566,-678,-336,-78,82,131
185,258,73,-222,56,165,-570,-678,-326,-68,82,131
190,268,78,-229,56,173,-575,-692,-322,-68,78,136
190,268,78,-229,56,173,-580,-697,-322,-68,78,136
190,273,82,-231,53,178,-585,-707,-317,-68,82,136
204,287,82,-246,61,185,-595,-717,-326,-68,92,141
214,292,78,-253,68,185,-605,-722,-331,-68,92,146
219,302,82,-261,68,192,-610,-732,-341,-68,97,151
224,307,82,-265,70,195,-619,-736,-351,-68,97,161
224,302,78,-263,73,190,-619,-736,-341,-63,102,165
224,307,82,-265,70,195,-619,-741,-336,-63,102,165
224,312,87,-268,68,200,-624,-741,-331,-63,102,161
224,317,92,-270,65,204,-629,-741,-326,-63,107,156
229,322,92,-275,68,207,-629,-751,-331,-58,102,165
234,322,87,-278,73,204,-629,-751,-326,-53,102,170
239,326,87,-283,75,207,-634,-751,-331,-48,102,175
239,331,92,-285,73,212,-634,-751,-336,-48,112,180
234,336,102,-285,65,219,-634,-741,-322,-39,112,180
234,341,107,-287,63,224,-634,-736,-317,-34,112,180
234,341,107,-287,63,224,-629,-732,-302,-24,112,180
234,341,107,-287,63,224,-619,-722,-287,-19,122,185
234,341,107,-287,63,224,-619,-722,-292,-19,131,185
234,341,107,-287,63,224,-619,-717,-287,-14,136,185
234,341,107,-287,63,224,-614,-707,-283,-19,136,185
234,341,107,-287,63,224,-605,-697,-287,-19,136,185
234,346,112,-290,61,229,-595,-688,-278,-4,126,175
224,346,122,-285,51,234,-580,-678,-263,0,131,175
214,341,126,-278,43,234,-575,-663,-248,4,131,175
214,341,126,-278,43,234,-561,-649,-229,9,131,175
214,336,122,-275,46,229,-551,-634,-229,9,131,175
209,326,117,-268,46,222,-541,-619,-214,14,136,175
209,326,117,-268,46,222,-531,-605,-214,19,136,175
204,326,122,-265,41,224,-522,-585,-214,24,131,180
200,312,112,-256,43,212,-507,-561,-195,29,131,165
190,302,112,-246,39,207,-497,-541,-185,29,131,165
185,292,107,-239,39,200,-478,-527,-175,34,126,161
180,287,107,-234,36,197,-463,-502,-161,39,126,161
180,283,102,-231,39,192,-458,-497,-161,39,131,156
175,278,102,-226,36,190,-448,-483,-156,43,131,151
175,283,107,-229,34,195,-444,-463,-136,43,131,141
170,278,107,-224,31,192,-429,-444,-126,48,126,136
161,258,97,-209,31,178,-400,-424,-112,48,117,131
151,248,97,-200,26,173,-385,-400,-107,53,112,126
141,239,97,-190,21,168,-366,-380,-97,53,107,122
136,234,97,-185,19,165,-351,-356,-82,53,107,122
131,224,92,-178,19,158,-346,-336,-87,43,102,122
117,214,97,-165,9,156,-331,-322,-78,43,102,112
112,204,92,-158,9,148,-312,-302,-73,43,97,107
107,190,82,-148,12,136,-297,-283,-63,48,92,92
102,180,78,-141,12,129,-283,-253,-48,48,82,82
92,170,78,-131,7,124,-263,-239,-39,48,78,78
82,161,78,-122,2,119,-244,-224,-29,48,73,73
73,151,78,-112,-2,114,-224,-209,-24,48,68,68
73,141,68,-107,2,104,-219,-195,-24,48,63,68
63,131,68,-97,-2,100,-200,-180,-19,48,58,58
58,122,63,-90,-2,92,-185,-156,-14,43,53,48
58,112,53,-85,2,82,-175,-141,-19,34,48,43
48,102,53,-75,-2,78,-170,-126,-19,39,43,39
43,92,48,-68,-2,70,-156,-122,-14,39,39,34
34,87,53,-61,-9,70,-146,-112,-14,39,34,34
29,78,48,-53,-9,63,-141,-102,-14,34,29,29
34,78,43,-56,-4,61,-131,-92,-9,29,39,34
29,63,34,-46,-2,48,-122,-82,-9,24,34,24
24,63,39,-43,-7,51,-112,-73,-4,24,29,19
19,58,39,-39,-9,48,-102,-73,-4,24,24,9
14,58,43,-36,-14,51,-102,-63,-4,19,19,0
9,53,43,-31,-17,48,-92,-58,-4,14,19,0
9,48,39,-29,-14,43,-92,-53,-14,14,19,0
9,43,34,-26,-12,39,-82,-48,-14,14,19,0
-4,29,34,-12,-19,31,-82,-48,-4,14,14,-14
-9,24,34,-7,-21,29,-73,-48,0,9,9,-19
-9,19,29,-4,-19,24,-68,-48,0,9,4,-29
-14,14,29,0,-21,21,-63,-43,0,9,4,-29
-14,19,34,-2,-24,26,-58,-39,-9,0,0,-19
-14,19,34,-2,-24,26,-58,-39,-9,0,0,-19
-14,14,29,0,-21,21,-58,-39,-19,0,-4,-19
-14,14,29,0,-21,21,-58,-34,-19,0,-4,-19
-19,14,34,2,-26,24,-48,-24,-19,0,-14,-29
-19,4,24,7,-21,14,-43,-24,-9,0,-14,-29
-19,4,24,7,-21,14,-39,-24,-9,-9,-19,-34
-19,4,24,7,-21,14,-34,-24,-19,-9,-19,-39
-19,4,24,7,-21,14,-43,-34,-29,-9,-9,-29
-24,0,24,12,-24,12,-43,-34,-29,-9,-9,-29
-24,0,24,12,-24,12,-48,-34,-29,-9,-9,-24
-24,0,24,12,-24,12,-48,-29,-34,-9,-9,-24
-29,0,29,14,-29,14,-39,-29,-29,-4,-19,-39
-29,0,29,14,-29,14,-39,-34,-24,-9,-19,-39
-29,0,29,14,-29,14,-39,-34,-14,-4,-24,-39
-29,0,29,14,-29,14,-39,-29,-4,-4,-24,-43
-29,-4,24,17,-26,9,-48,-39,-9,-9,-24,-34
-29,-4,24,17,-26,9,-48,-39,-19,-9,-24,-34
-24,-4,19,14,-21,7,-53,-39,-24,-14,-24,-34
-24,-4,19,14,-21,7,-63,-39,-34,-19,-24,-29
-34,-4,29,19,-31,12,-63,-39,-29,-4,-29,-39
-39,-4,34,21,-36,14,-63,-34,-19,-4,-29,-43
-39,-9,29,24,-34,9,-63,-29,-14,-4,-29,-43
-39,-9,29,24,-34,9,-58,-24,-9,-9,-29,-43
-34,-9,24,21,-29,7,-53,-29,-14,-19,-19,-34
-34,-9,24,21,-29,7,-58,-34,-19,-14,-19,-34
-34,-9,24,21,-29,7,-73,-39,-29,-14,-19,-34
-34,-9,24,21,-29,7,-82,-43,-34,-14,-19,-34
-24,-9,14,17,-19,2,-78,-34,-24,-4,-29,-43
-24,-9,14,17,-19,2,-78,-39,-24,-4,-29,-43
-24,-9,14,17,-19,2,-78,-39,-24,-9,-29,-43
-24,-9,14,17,-19,2,-73,-39,-19,-9,-29,-43
-24,-14,9,19,-17,-2,-82,-43,-29,-9,-19,-39
-24,-14,9,19,-17,-2,-82,-43,-24,-9,-19,-39
-24,-14,9,19,-17,-2,-82,-53,-29,-9,-19,-34
-24,-14,9,19,-17,-2,-97,-53,-43,-9,-24,-29
-34,-14,19,24,-26,2,-87,-43,-29,0,-24,-34
-34,-14,19,24,-26,2,-92,-48,-24,0,-24,-34
-34,-14,19,24,-26,2,-92,-48,-24,0,-24,-39
-34,-14,19,24,-26,2,-92,-48,-24,-9,-24,-39
-24,-14,9,19,-17,-2,-97,-58,-39,-19,-24,-39
-24,-14,9,19,-17,-2,-97,-58,-39,-19,-29,-39
-24,-14,9,19,-17,-2,-102,-63,-39,-14,-29,-39
-24,-14,9,19,-17,-2,-112,-73,-43,-14,-29,-39
-24,-24,0,24,-12,-12,-107,-68,-39,-4,-29,-48
-24,-24,0,24,-12,-12,-107,-63,-39,-14,-29,-48
-24,-24,0,24,-12,-12,-102,-58,-34,-14,-29,-53
-24,-24,0,24,-12,-12,-97,-53,-29,-19,-29,-53
-24,-14,9,19,-17,-2,-97,-63,-43,-19,-34,-48
-24,-14,9,19,-17,-2,-102,-68,-48,-19,-34,-43
-24,-14,9,19,-17,-2,-112,-78,-53,-19,-34,-39
-24,-14,9,19,-17,-2,-117,-82,-58,-19,-34,-39
-24,-24,0,24,-12,-12,-107,-78,-58,-9,-34,-48
-29,-29,0,29,-14,-14,-107,-78,-53,-14,-34,-48
-29,-29,0,29,-14,-14,-107,-78,-53,-14,-34,-43
-29,-29,0,29,-14,-14,-107,-78,-48,-14,-34,-43
-29,-19,9,24,-19,-4,-112,-82,-58,-19,-34,-43
-29,-19,9,24,-19,-4,-112,-82,-58,-24,-34,-48
-29,-19,9,24,-19,-4,-117,-87,-63,-29,-34,-48
-29,-19,9,24,-19,-4,-117,-92,-63,-34,-39,-48
-29,-19,9,24,-19,-4,-107,-82,-53,-34,-43,-48
