I,II,III,aVR,aVL,aVF,V1,V2,V3,V4,V5,V6,
-117,-107,9,112,-63,-48,126,97,-19,-78,-97,-126
-117,-107,9,112,-63,-48,126,97,-19,-78,-97,-126
-117,-107,9,112,-63,-48,126,97,-19,-78,-97,-126
-117,-107,9,112,-63,-48,126,97,-19,-78,-97,-126
-126,-97,29,112,-78,-34,126,97,-19,-78,-97,-117
-126,-97,29,112,-78,-34,126,97,-19,-78,-97,-117
-126,-97,29,112,-78,-34,126,97,-19,-78,-97,-117
-126,-97,29,112,-78,-34,126,97,-19,-78,-97,-117
-126,-97,29,112,-78,-34,126,107,-9,-78,-97,-107
-126,-97,29,112,-78,-34,126,107,-9,-78,-97,-107
-126,-97,29,112,-78,-34,126,107,-9,-78,-97,-107
-126,-97,29,112,-78,-34,126,107,-9,-78,-97,-107
-126,-97,29,112,-78,-34,126,97,-9,-68,-87,-107
-126,-97,29,112,-78,-34,126,97,-9,-68,-87,-107
-126,-97,29,112,-78,-34,126,97,-9,-68,-87,-107
-126,-97,29,112,-78,-34,126,97,-9,-68,-87,-107
-117,-87,29,102,-73,-29,126,97,0,-68,-87,-107
-117,-87,29,102,-73,-29,126,97,0,-68,-87,-107
-117,-87,29,102,-73,-29,126,97,0,-68,-87,-107
-117,-87,29,102,-73,-29,126,97,0,-68,-87,-107
-117,-78,39,97,-78,-19,126,107,9,-68,-87,-97
-117,-78,39,97,-78,-19,126,107,9,-68,-87,-97
-117,-78,39,97,-78,-19,126,107,9,-68,-87,-97
-117,-78,39,97,-78,-19,126,107,9,-68,-87,-97
-126,-78,48,102,-87,-14,126,107,19,-58,-87,-107
-126,-78,48,102,-87,-14,126,107,19,-58,-87,-107
-126,-78,48,102,-87,-14,126,107,19,-58,-87,-107
-126,-78,48,102,-87,-14,126,107,19,-58,-87,-107
-117,-68,48,92,-82,-9,117,107,29,-58,-78,-97
-117,-68,48,92,-82,-9,117,107,29,-58,-78,-97
-117,-68,48,92,-82,-9,117,107,29,-58,-78,-97
-117,-68,48,92,-82,-9,117,107,29,-58,-78,-97
-117,-68,48,92,-82,-9,117,107,29,-58,-78,-97
-117,-68,48,92,-82,-9,117,107,29,-58,-78,-97
-117,-68,48,92,-82,-9,117,107,29,-58,-78,-97
-117,-68,48,92,-82,-9,117,107,29,-58,-78,-97
-126,-58,68,92,-97,4,117,117,39,-48,-78,-97
-126,-58,68,92,-97,4,117,117,39,-48,-78,-97
-126,-58,68,92,-97,4,117,117,39,-48,-78,-97
-126,-58,68,92,-97,4,117,117,39,-48,-78,-97
-126,-48,78,87,-102,14,117,117,48,-39,-68,-97
-126,-48,78,87,-102,14,117,117,48,-39,-68,-97
-126,-48,78,87,-102,14,117,117,48,-39,-68,-97
-126,-48,78,87,-102,14,117,117,48,-39,-68,-97
-126,-48,78,87,-102,14,117,126,58,-39,-68,-87
-126,-48,78,87,-102,14,117,126,58,-39,-68,-87
-126,-48,78,87,-102,14,117,126,58,-39,-68,-87
-126,-48,78,87,-102,14,117,126,58,-39,-68,-87
-126,-39,87,82,-107,24,117,131,58,-29,-68,-97
-126,-39,87,82,-107,24,117,136,58,-29,-68,-97
-126,-39,87,82,-107,24,117,141,58,-29,-68,-97
-126,-39,87,82,-107,24,117,146,58,-29,-68,-97
-126,-29,97,78,-112,34,117,156,63,-29,-58,-97
-126,-29,97,78,-112,34,117,156,68,-29,-58,-97
-126,-29,97,78,-112,34,117,156,73,-29,-58,-97
-126,-29,97,78,-112,34,117,156,78,-29,-58,-97
-136,-29,107,82,-122,39,117,161,87,-29,-58,-87
-136,-29,107,82,-122,39,117,165,87,-29,-58,-87
-136,-29,107,82,-122,39,117,170,87,-29,-58,-87
-136,-29,107,82,-122,39,117,175,87,-29,-58,-87
-136,-19,117,78,-126,48,126,185,92,-29,-58,-87
-136,-19,117,78,-126,48,126,185,97,-29,-58,-87
-136,-19,117,78,-126,48,126,185,102,-29,-58,-87
-136,-19,117,78,-126,48,126,185,107,-29,-58,-87
-146,-4,141,75,-143,68,126,190,117,-29,-68,-97
-146,0,146,73,-146,73,126,195,117,-29,-68,-97
-146,4,151,70,-148,78,126,200,117,-29,-68,-97
-146,9,156,68,-151,82,126,204,117,-29,-68,-97
-146,19,165,63,-156,92,126,209,126,-39,-78,-97
-146,19,165,63,-156,92,126,214,126,-39,-78,-97
-146,19,165,63,-156,92,126,219,126,-39,-78,-97
-146,19,165,63,-156,92,126,224,126,-39,-78,-97
-151,19,170,65,-161,95,136,224,126,-43,-78,-107
-156,19,175,68,-165,97,136,224,126,-48,-78,-107
-161,19,180,70,-170,100,136,224,126,-53,-78,-107
-165,19,185,73,-175,102,136,224,126,-58,-78,-107
-180,19,200,80,-190,109,146,224,122,-73,-92,-112
-185,19,204,82,-195,112,146,224,117,-78,-97,-117
-190,19,209,85,-200,114,146,224,112,-82,-102,-122
-195,19,214,87,-204,117,146,224,107,-87,-107,-126
-200,14,214,92,-207,114,156,214,92,-107,-117,-131
-204,9,214,97,-209,112,156,214,87,-117,-126,-136
-209,4,214,102,-212,109,156,214,82,-126,-136,-141
-214,0,214,107,-214,107,156,214,78,-136,-146,-146
-229,-4,224,117,-226,109,156,209,68,-151,-165,-156
-234,-9,224,122,-229,107,156,204,58,-165,-175,-165
-239,-14,224,126,-231,104,156,200,48,-180,-185,-175
-244,-19,224,131,-234,102,156,195,39,-195,-195,-185
-253,-34,219,143,-236,92,161,180,19,-219,-214,-200
-263,-39,224,151,-244,92,165,175,9,-234,-224,-204
-273,-43,229,158,-251,92,170,170,0,-248,-234,-209
-283,-48,234,165,-258,92,175,165,-9,-263,-244,-214
-297,-58,239,178,-268,90,185,151,-34,-283,-263,-224
-302,-68,234,185,-268,82,185,136,-48,-302,-273,-234
-307,-78,229,192,-268,75,185,122,-63,-322,-283,-244
-312,-87,224,200,-268,68,185,107,-78,-341,-292,-253
-317,-102,214,209,-265,56,195,87,-102,-361,-317,-273
-322,-117,204,219,-263,43,195,78,-117,-380,-331,-283
-326,-131,195,229,-261,31,195,68,-131,-400,-346,-292
-331,-146,185,239,-258,19,195,58,-146,-419,-361,-302
-346,-165,180,256,-263,7,195,43,-170,-434,-370,-312
-351,-175,175,263,-263,0,195,39,-185,-448,-380,-322
-356,-185,170,270,-263,-7,195,34,-200,-463,-390,-331
-361,-195,165,278,-263,-14,195,29,-214,-478,-400,-341
-351,-214,136,283,-244,-39,204,29,-224,-492,-414,-356
-351,-224,126,287,-239,-48,204,29,-234,-497,-419,-361
-351,-234,117,292,-234,-58,204,29,-244,-502,-424,-366
-351,-244,107,297,-229,-68,204,29,-253,-507,-429,-370
-341,-248,92,295,-217,-78,200,29,-258,-507,-439,-370
-331,-253,78,292,-204,-87,195,29,-263,-507,-439,-370
-322,-258,63,290,-192,-97,190,29,-268,-507,-439,-370
-312,-263,48,287,-180,-107,185,29,-273,-507,-439,-370
-297,-263,34,280,-165,-114,180,34,-263,-488,-419,-366
-283,-263,19,273,-151,-122,175,39,-263,-478,-409,-361
-268,-263,4,265,-136,-129,170,43,-263,-468,-400,-356
-253,-263,-9,258,-122,-136,165,48,-263,-458,-390,-351
-229,-248,-19,239,-104,-134,151,53,-244,-439,-375,-336
-214,-244,-29,229,-92,-136,146,58,-234,-419,-361,-322
-200,-239,-39,219,-80,-139,141,63,-224,-400,-346,-307
-185,-234,-48,209,-68,-141,136,68,-214,-380,-331,-292
-161,-214,-53,187,-53,-134,126,78,-195,-356,-302,-273
-146,-204,-58,175,-43,-131,117,78,-185,-331,-283,-253
-131,-195,-63,163,-34,-129,107,78,-175,-307,-263,-234
-117,-185,-68,151,-24,-126,97,78,-165,-283,-244,-214
-102,-175,-73,139,-14,-124,87,68,-151,-253,-224,-200
-87,-165,-78,126,-4,-122,78,68,-136,-234,-204,-185
-73,-156,-82,114,4,-119,68,68,-122,-214,-185,-170
-58,-146,-87,102,14,-117,58,68,-107,-195,-165,-156
-48,-131,-82,90,17,-107,43,68,-97,-175,-151,-141
-39,-126,-87,82,24,-107,39,68,-87,-156,-136,-126
-29,-122,-92,75,31,-107,34,68,-78,-136,-122,-112
-19,-117,-97,68,39,-107,29,68,-68,-117,-107,-97
-4,-107,-102,56,48,-104,24,58,-53,-97,-92,-87
0,-97,-97,48,48,-97,19,58,-48,-87,-78,-78
4,-87,-92,41,48,-90,14,58,-43,-78,-63,-68
9,-78,-87,34,48,-82,9,58,-39,-68,-48,-58
14,-73,-87,29,51,-80,4,48,-29,-58,-43,-43
19,-68,-87,24,53,-78,0,48,-29,-48,-39,-39
24,-63,-87,19,56,-75,-4,48,-29,-39,-34,-34
29,-58,-87,14,58,-73,-9,48,-29,-29,-29,-29
39,-48,-87,4,63,-68,-9,48,-24,-14,-14,-19
39,-48,-87,4,63,-68,-9,48,-19,-9,-9,-19
39,-48,-87,4,63,-68,-9,48,-14,-4,-4,-19
39,-48,-87,4,63,-68,-9,48,-9,0,0,-19
39,-43,-82,2,61,-63,-19,39,0,9,9,-9
39,-39,-78,0,58,-58,-19,39,0,9,9,-9
39,-34,-73,-2,56,-53,-19,39,0,9,9,-9
39,-29,-68,-4,53,-48,-19,39,0,9,9,-9
48,-29,-78,-9,63,-53,-19,39,0,19,19,0
48,-29,-78,-9,63,-53,-19,39,0,19,19,0
48,-29,-78,-9,63,-53,-19,39,0,19,19,0
48,-29,-78,-9,63,-53,-19,39,0,19,19,0
48,-29,-78,-9,63,-53,-19,39,9,29,19,9
48,-29,-78,-9,63,-53,-19,39,9,29,19,9
48,-29,-78,-9,63,-53,-19,39,9,29,19,9
48,-29,-78,-9,63,-53,-19,39,9,29,19,9
39,-19,-58,-9,48,-39,-19,29,19,39,29,9
39,-19,-58,-9,48,-39,-19,29,19,39,29,9
39,-19,-58,-9,48,-39,-19,29,19,39,29,9
39,-19,-58,-9,48,-39,-19,29,19,39,29,9
48,-19,-68,-14,58,-43,-19,29,29,39,29,9
48,-19,-68,-14,58,-43,-19,29,29,39,29,9
48,-19,-68,-14,58,-43,-19,29,29,39,29,9
48,-19,-68,-14,58,-43,-19,29,29,39,29,9
39,-9,-48,-14,43,-29,-29,39,29,39,29,19
39,-9,-48,-14,43,-29,-29,39,29,39,29,19
39,-9,-48,-14,43,-29,-29,39,29,39,29,19
39,-9,-48,-14,43,-29,-29,39,29,39,29,19
39,-9,-48,-14,43,-29,-19,39,29,39,39,9
39,-9,-48,-14,43,-29,-19,39,29,39,39,9
39,-9,-48,-14,43,-29,-19,39,29,39,39,9
39,-9,-48,-14,43,-29,-19,39,29,39,39,9
39,0,-39,-19,39,-19,-19,39,29,39,29,9
39,0,-39,-19,39,-19,-19,39,29,39,29,9
39,0,-39,-19,39,-19,-19,39,29,39,29,9
39,0,-39,-19,39,-19,-19,39,29,39,29,9
29,-9,-39,-9,34,-24,-19,39,29,39,29,9
29,-9,-39,-9,34,-24,-19,39,29,39,29,9
29,-9,-39,-9,34,-24,-19,39,29,39,29,9
29,-9,-39,-9,34,-24,-19,39,29,39,29,9
29,-9,-39,-9,34,-24,-9,39,29,39,29,9
29,-9,-39,-9,34,-24,-9,39,29,39,29,9
29,-9,-39,-9,34,-24,-9,39,29,39,29,9
29,-9,-39,-9,34,-24,-9,39,29,39,29,9
19,-9,-29,-4,24,-19,0,39,29,39,19,0
19,-9,-29,-4,24,-19,0,39,29,39,19,0
19,-9,-29,-4,24,-19,0,39,29,39,19,0
19,-9,-29,-4,24,-19,0,39,29,39,19,0
19,-9,-29,-4,24,-19,0,39,29,29,19,0
19,-9,-29,-4,24,-19,0,39,29,29,19,0
19,-9,-29,-4,24,-19,0,39,29,29,19,0
19,-9,-29,-4,24,-19,0,39,29,29,19,0
9,-19,-29,4,19,-24,0,39,29,29,9,-9
9,-19,-29,4,19,-24,0,39,29,29,9,-9
9,-19,-29,4,19,-24,0,39,29,29,9,-9
9,-19,-29,4,19,-24,0,39,29,29,9,-9
9,-19,-29,4,19,-24,0,48,19,19,9,-9
9,-19,-29,4,19,-24,0,48,19,19,9,-9
9,-19,-29,4,19,-24,0,48,19,19,9,-9
9,-19,-29,4,19,-24,0,48,19,19,9,-9
9,-19,-29,4,19,-24,9,39,9,9,0,-19
9,-19,-29,4,19,-24,9,39,9,9,0,-19
9,-19,-29,4,19,-24,9,39,9,9,0,-19
9,-19,-29,4,19,-24,9,39,9,9,0,-19
0,-29,-29,14,14,-29,9,39,9,9,0,-19
0,-29,-29,14,14,-29,9,39,9,9,0,-19
0,-29,-29,14,14,-29,9,39,9,9,0,-19
0,-29,-29,14,14,-29,9,39,9,9,0,-19
0,-29,-29,14,14,-29,9,39,9,9,0,-19
0,-29,-29,14,14,-29,9,39,9,9,0,-19
0,-29,-29,14,14,-29,9,39,9,9,0,-19
0,-29,-29,14,14,-29,9,39,9,9,0,-19
0,-39,-39,19,19,-39,9,48,0,0,-9,-29
0,-39,-39,19,19,-39,9,48,0,0,-9,-29
0,-39,-39,19,19,-39,9,48,0,0,-9,-29
0,-39,-39,19,19,-39,9,48,0,0,-9,-29
0,-48,-48,24,24,-48,19,39,0,0,-9,-29
0,-48,-48,24,24,-48,19,39,0,0,-9,-29
0,-48,-48,24,24,-48,19,39,0,0,-9,-29
0,-48,-48,24,24,-48,19,39,0,0,-9,-29
-9,-48,-39,29,14,-43,9,48,0,0,-19,-39
-9,-48,-39,29,14,-43,9,48,0,0,-19,-39
-9,-48,-39,29,14,-43,9,48,0,0,-19,-39
-9,-48,-39,29,14,-43,9,48,0,0,-19,-39
0,-48,-48,24,24,-48,9,39,-9,0,-19,-39
0,-48,-48,24,24,-48,9,39,-9,0,-19,-39
0,-48,-48,24,24,-48,9,39,-9,0,-19,-39
0,-48,-48,24,24,-48,9,39,-9,0,-19,-39
0,-48,-48,24,24,-48,9,39,-9,-9,-19,-39
0,-48,-48,24,24,-48,9,39,-9,-9,-19,-39
0,-48,-48,24,24,-48,9,39,-9,-9,-19,-39
0,-48,-48,24,24,-48,9,39,-9,-9,-19,-39
0,-48,-48,24,24,-48,9,39,-9,-9,-19,-39
0,-48,-48,24,24,-48,9,39,-9,-9,-19,-39
0,-48,-48,24,24,-48,9,39,-9,-9,-19,-39
0,-48,-48,24,24,-48,9,39,-9,-9,-19,-39
0,-48,-48,24,24,-48,9,39,-9,-9,-19,-39
0,-48,-48,24,24,-48,9,39,-9,-9,-19,-39
0,-48,-48,24,24,-48,9,39,-9,-9,-19,-39
0,-48,-48,24,24,-48,9,39,-9,-9,-19,-39
9,-48,-58,19,34,-53,19,39,-9,0,-19,-29
9,-48,-58,19,34,-53,19,39,-9,0,-19,-29
9,-48,-58,19,34,-53,19,39,-9,0,-19,-29
9,-48,-58,19,34,-53,19,39,-9,0,-19,-29
9,-48,-58,19,34,-53,9,39,-9,-9,-19,-29
9,-48,-58,19,34,-53,9,39,-9,-9,-19,-29
9,-48,-58,19,34,-53,9,39,-9,-9,-19,-29
9,-48,-58,19,34,-53,9,39,-9,-9,-19,-29
9,-58,-68,24,39,-63,9,39,-9,0,-9,-29
9,-58,-68,24,39,-63,9,39,-9,0,-9,-29
9,-58,-68,24,39,-63,9,39,-9,0,-9,-29
9,-58,-68,24,39,-63,9,39,-9,0,-9,-29
9,-58,-68,24,39,-63,9,39,-19,0,-19,-39
9,-58,-68,24,39,-63,9,39,-19,0,-19,-39
9,-58,-68,24,39,-63,9,39,-19,0,-19,-39
9,-58,-68,24,39,-63,9,39,-19,0,-19,-39
9,-48,-58,19,34,-53,9,39,-9,-9,-19,-29
9,-48,-58,19,34,-53,9,39,-9,-9,-19,-29
9,-48,-58,19,34,-53,9,39,-9,-9,-19,-29
9,-48,-58,19,34,-53,9,39,-9,-9,-19,-29
9,-58,-68,24,39,-63,9,29,-9,-9,-19,-29
9,-58,-68,24,39,-63,9,29,-9,-9,-19,-29
9,-58,-68,24,39,-63,9,29,-9,-9,-19,-29
9,-58,-68,24,39,-63,9,29,-9,-9,-19,-29
9,-48,-58,19,34,-53,9,29,-19,0,-19,-39
9,-48,-58,19,34,-53,9,29,-19,0,-19,-39
9,-48,-58,19,34,-53,9,29,-19,0,-19,-39
9,-48,-58,19,34,-53,9,29,-19,0,-19,-39
9,-48,-58,19,34,-53,9,39,-19,-9,-19,-39
9,-48,-58,19,34,-53,9,39,-19,-9,-19,-39
9,-48,-58,19,34,-53,9,39,-19,-9,-19,-39
9,-48,-58,19,34,-53,9,39,-19,-9,-19,-39
9,-58,-68,24,39,-63,9,39,-19,0,-9,-29
9,-58,-68,24,39,-63,9,39,-19,0,-9,-29
9,-58,-68,24,39,-63,9,39,-19,0,-9,-29
9,-58,-68,24,39,-63,9,39,-19,0,-9,-29
19,-58,-78,19,48,-68,9,29,-19,-9,-19,-39
19,-58,-78,19,48,-68,9,29,-19,-9,-19,-39
19,-58,-78,19,48,-68,9,29,-19,-9,-19,-39
19,-58,-78,19,48,-68,9,29,-19,-9,-19,-39
19,-58,-78,19,48,-68,14,29,-19,-9,-9,-39
19,-58,-78,19,48,-68,14,29,-19,-9,-9,-39
19,-58,-78,19,48,-68,9,29,-19,-9,-9,-39
19,-58,-78,19,48,-68,9,29,-19,-9,-9,-39
9,-58,-68,24,39,-63,14,39,-9,0,-9,-39
9,-58,-68,24,39,-63,14,39,-9,0,-9,-39
9,-58,-68,24,39,-63,9,39,-9,0,-9,-39
9,-58,-68,24,39,-63,9,39,-9,0,-9,-39
19,-58,-78,19,48,-68,9,34,-19,-4,-9,-29
19,-58,-78,19,48,-68,9,34,-19,-4,-9,-29
19,-58,-78,19,48,-68,9,34,-19,-4,-9,-29
19,-58,-78,19,48,-68,9,34,-19,-4,-9,-29
9,-58,-68,24,39,-63,9,34,-19,-4,-9,-29
9,-53,-63,21,36,-58,14,34,-14,-4,-9,-24
9,-53,-63,21,36,-58,14,34,-14,-4,-9,-24
9,-53,-63,21,36,-58,14,34,-14,-4,-9,-24
19,-53,-73,17,46,-63,14,43,-14,-4,-9,-34
24,-53,-78,14,51,-65,14,43,-14,-4,-9,-34
34,-53,-87,9,61,-70,14,43,-14,-4,-9,-34
39,-53,-92,7,65,-73,14,53,-9,-4,-9,-34
29,-63,-92,17,61,-78,19,58,-9,4,-9,-34
34,-53,-87,9,61,-70,19,63,-9,4,-4,-29
48,-48,-97,0,73,-73,24,78,-4,4,-4,-29
58,-43,-102,-7,80,-73,24,87,0,14,0,-29
68,-34,-102,-17,85,-68,24,117,4,9,0,-19
82,-14,-97,-34,90,-56,24,131,19,14,4,-14
87,-9,-97,-39,92,-53,19,136,29,24,9,-9
102,4,-97,-53,100,-46,9,136,34,29,14,-4
126,9,-117,-68,122,-53,0,126,39,43,19,4
136,9,-126,-73,131,-58,-4,131,43,48,24,9
146,19,-126,-82,136,-53,-9,131,48,53,29,14
156,39,-117,-97,136,-39,-29,131,58,68,43,19
165,63,-102,-114,134,-19,-43,131,87,87,63,43
175,87,-87,-131,131,0,-58,131,92,92,78,58
185,97,-87,-141,136,4,-82,131,97,102,82,68
195,97,-97,-146,146,0,-97,122,97,102,82,78
209,112,-97,-161,153,7,-107,122,97,107,87,82
209,117,-92,-163,151,12,-112,122,97,107,87,82
209,117,-92,-163,151,12,-112,102,87,107,87,82
200,117,-82,-158,141,17,-122,73,73,97,87,82
185,112,-73,-148,129,19,-122,43,48,87,78,73
185,92,-92,-139,139,0,-112,39,39,73,63,63
175,68,-107,-122,141,-19,-102,34,29,63,53,53
170,53,-117,-112,143,-31,-92,34,19,48,43,43
165,34,-131,-100,148,-48,-82,34,19,43,24,24
156,14,-141,-85,148,-63,-73,24,0,29,14,14
146,4,-141,-75,143,-68,-73,14,-4,29,9,9
146,4,-141,-75,143,-68,-73,9,-4,24,9,9
126,0,-126,-63,126,-63,-68,14,-19,14,9,14
107,-4,-112,-51,109,-58,-63,9,-19,14,9,14
92,-4,-97,-43,95,-51,-58,9,-14,14,9,9
82,-9,-92,-36,87,-51,-48,14,-14,14,4,4
78,-29,-107,-24,92,-68,-39,14,-14,4,-4,-4
63,-43,-107,-9,85,-75,-29,19,-24,-9,-14,-19
48,-63,-112,7,80,-87,-19,24,-34,-19,-29,-29
34,-68,-102,17,68,-85,-9,29,-34,-19,-34,-34
24,-68,-92,21,58,-80,0,39,-29,-14,-34,-43
14,-73,-87,29,51,-80,0,39,-29,-14,-29,-43
0,-78,-78,39,39,-78,0,24,-34,-14,-29,-43
-4,-78,-73,41,34,-75,0,9,-34,-19,-29,-43
-9,-68,-58,39,24,-63,0,0,-24,-19,-29,-43
-9,-63,-53,36,21,-58,0,4,-24,-19,-29,-43
-9,-63,-53,36,21,-58,0,4,-24,-19,-29,-43
-9,-63,-53,36,21,-58,0,4,-24,-19,-29,-48
0,-78,-78,39,39,-78,0,4,-24,-29,-39,-39
0,-78,-78,39,39,-78,4,9,-24,-29,-39,-39
0,-78,-78,39,39,-78,4,14,-24,-29,-39,-39
0,-78,-78,39,39,-78,9,14,-24,-29,-39,-39
-9,-78,-68,43,29,-73,9,14,-34,-19,-29,-34
-14,-78,-63,46,24,-70,9,14,-29,-14,-29,-34
-14,-78,-63,46,24,-70,9,14,-29,-14,-29,-34
-14,-78,-63,46,24,-70,14,9,-29,-14,-29,-39
-14,-78,-63,46,24,-70,14,19,-29,-14,-29,-39
-14,-78,-63,46,24,-70,14,19,-29,-19,-29,-39
-19,-78,-58,48,19,-68,14,19,-29,-19,-29,-39
-19,-78,-58,48,19,-68,14,19,-29,-19,-29,-39
-19,-78,-58,48,19,-68,14,19,-29,-14,-29,-39
-19,-78,-58,48,19,-68,14,19,-29,-14,-29,-39
-19,-78,-58,48,19,-68,14,24,-29,-14,-29,-39
-19,-78,-58,48,19,-68,14,24,-29,-14,-29,-39
-9,-68,-58,39,24,-63,14,24,-19,-24,-29,-39
-19,-78,-58,48,19,-68,14,24,-29,-24,-29,-39
-9,-87,-78,48,34,-82,24,24,-19,-14,-29,-39
-9,-78,-68,43,29,-73,14,24,-19,-4,-29,-48
0,-68,-68,34,34,-68,9,34,-9,0,-19,-39
4,-58,-63,26,34,-61,9,39,-4,14,-14,-39
29,-39,-68,4,48,-53,9,78,43,48,9,-34
43,-4,-48,-19,46,-26,9,112,122,112,43,-9
73,43,-29,-58,51,7,-9,122,214,204,117,43
141,122,-19,-131,80,51,-58,102,317,331,224,136
224,248,24,-236,100,136,-117,73,458,507,370,263
341,414,73,-378,134,244,-185,92,629,722,551,395
488,575,87,-531,200,331,-258,112,780,936,741,556
619,780,161,-700,229,470,-375,-29,897,1151,951,736
761,1034,273,-897,244,653,-551,-346,1019,1381,1195,966
897,1249,351,-1073,273,800,-732,-634,1083,1561,1405,1166
1039,1385,346,-1212,346,866,-907,-902,1044,1668,1566,1356
1180,1507,326,-1344,427,917,-1117,-1234,946,1756,1732,1551
1278,1639,361,-1459,458,1000,-1312,-1595,829,1810,1888,1761
1312,1668,356,-1490,478,1012,-1410,-1844,600,1766,1956,1903
1322,1561,239,-1442,541,900,-1449,-2000,268,1620,1942,1961
1322,1454,131,-1388,595,793,-1483,-2117,0,1498,1893,1986
1293,1400,107,-1346,592,753,-1493,-2156,-117,1444,1883,2010
1234,1356,122,-1295,556,739,-1478,-2093,-136,1439,1873,2000
1161,1293,131,-1227,514,712,-1439,-1966,-117,1424,1844,1976
1054,1234,180,-1144,436,707,-1385,-1830,-78,1390,1795,1932
922,1156,234,-1039,344,695,-1293,-1668,-29,1346,1727,1834
780,1034,253,-907,263,644,-1156,-1483,-19,1210,1546,1649
610,819,209,-714,200,514,-951,-1259,-92,932,1234,1337
414,536,122,-475,146,329,-722,-1029,-219,531,814,956
219,253,34,-236,92,143,-483,-814,-370,126,390,566
4,48,43,-26,-19,46,-258,-629,-458,-204,19,214
-185,-87,97,136,-141,4,-82,-497,-448,-370,-214,-58
-244,-136,107,190,-175,-14,-9,-385,-380,-370,-283,-146
-204,-117,87,161,-146,-14,-9,-302,-307,-312,-224,-117
-190,-112,78,151,-134,-17,0,-248,-248,-278,-200,-117
-190,-122,68,156,-129,-26,29,-195,-209,-253,-195,-136
-170,-102,68,136,-119,-17,39,-141,-180,-209,-175,-126
-146,-97,48,122,-97,-24,58,-102,-161,-175,-151,-117
-136,-87,48,112,-92,-19,78,-73,-136,-170,-151,-126
-136,-78,58,107,-97,-9,92,-29,-122,-156,-146,-122
-136,-87,48,112,-92,-19,92,4,-97,-146,-136,-122
-136,-102,34,119,-85,-34,97,14,-73,-131,-141,-122
-126,-102,24,114,-75,-39,102,39,-48,-126,-136,-126
-112,-112,0,112,-56,-56,92,39,-53,-112,-131,-126
-112,-112,0,112,-56,-56,102,39,-58,-112,-126,-126
-112,-112,0,112,-56,-56,102,48,-48,-97,-122,-126
-112,-112,0,112,-56,-56,112,63,-48,-97,-122,-126
-112,-112,0,112,-56,-56,117,68,-48,-97,-117,-126
-122,-112,9,117,-65,-51,117,78,-43,-97,-117,-122
-122,-112,9,117,-65,-51,117,78,-43,-92,-117,-122
-122,-112,9,117,-65,-51,126,82,-39,-92,-117,-126
-122,-112,9,117,-65,-51,126,82,-34,-92,-117,-126
-112,-112,0,112,-56,-56,117,82,-29,-97,-112,-126
-112,-112,0,112,-56,-56,117,92,-24,-97,-112,-126
-112,-107,4,109,-58,-51,122,92,-24,-92,-112,-126
-112,-107,4,109,-58,-51,122,92,-24,-92,-112,-122
-112,-107,4,109,-58,-51,131,92,-24,-102,-112,-122
-112,-107,4,109,-58,-51,131,92,-24,-97,-112,-122
-112,-107,4,109,-58,-51,131,97,-24,-97,-112,-122
-112,-107,4,109,-58,-51,131,97,-24,-97,-112,-122
-112,-107,4,109,-58,-51,136,97,-19,-87,-122,-122
-112,-107,4,109,-58,-51,136,97,-19,-87,-117,-122
-112,-107,4,109,-58,-51,136,97,-19,-87,-117,-122
-112,-107,4,109,-58,-51,136,97,-14,-87,-117,-122
-112,-97,14,104,-63,-41,136,102,-14,-92,-107,-131
-112,-97,14,104,-63,-41,136,102,-14,-92,-107,-131
-112,-92,19,102,-65,-36,136,102,-14,-92,-107,-131
-112,-92,19,102,-65,-36,136,102,-14,-92,-107,-131
-112,-92,19,102,-65,-36,136,102,-14,-92,-117,-122
-112,-87,24,100,-68,-31,136,102,-9,-92,-117,-122
-112,-87,24,100,-68,-31,136,102,-9,-87,-117,-122
-112,-87,24,100,-68,-31,136,102,-9,-87,-117,-122
-107,-97,9,102,-58,-43,126,102,-4,-87,-117,-122
-107,-92,14,100,-61,-39,126,102,-4,-87,-112,-122
-112,-92,19,102,-65,-36,126,102,-4,-87,-112,-122
-112,-92,19,102,-65,-36,126,102,-4,-87,-112,-122
-112,-92,19,102,-65,-36,126,102,-9,-87,-102,-131
-112,-92,19,102,-65,-36,126,102,-9,-87,-102,-131
-112,-87,24,100,-68,-31,126,102,-9,-87,-102,-131
-112,-87,24,100,-68,-31,126,102,-9,-82,-102,-131
-112,-78,34,95,-73,-21,131,102,-4,-82,-112,-131
-112,-73,39,92,-75,-17,131,102,-4,-82,-112,-126
-112,-73,39,92,-75,-17,131,102,-4,-82,-107,-126
-112,-73,39,92,-75,-17,131,102,0,-78,-107,-126
-112,-73,39,92,-75,-17,131,102,14,-78,-107,-126
-112,-78,34,95,-73,-21,131,102,14,-78,-107,-126
-112,-82,29,97,-70,-26,131,102,14,-78,-107,-126
-112,-87,24,100,-68,-31,131,107,14,-78,-102,-126
-112,-78,34,95,-73,-21,131,107,14,-78,-102,-126
-112,-78,34,95,-73,-21,131,107,19,-73,-102,-126
-112,-78,34,95,-73,-21,131,107,24,-73,-102,-126
-112,-73,39,92,-75,-17,131,112,24,-73,-102,-126
-112,-73,39,92,-75,-17,131,112,14,-73,-102,-126
-112,-68,43,90,-78,-12,131,112,14,-73,-102,-122
-112,-68,43,90,-78,-12,131,112,19,-68,-97,-122
-112,-68,43,90,-78,-12,126,112,24,-68,-97,-122
-122,-63,58,92,-90,-2,126,112,34,-78,-107,-122
-122,-63,58,92,-90,-2,126,117,34,-78,-107,-122
-122,-63,58,92,-90,-2,126,117,39,-78,-102,-122
-122,-58,63,90,-92,2,126,117,43,-73,-102,-122
-112,-68,43,90,-78,-12,126,117,34,-73,-102,-122
-112,-68,43,90,-78,-12,126,117,43,-73,-102,-122
-112,-68,43,90,-78,-12,126,126,43,-73,-102,-122
-112,-68,43,90,-78,-12,126,126,43,-73,-102,-117
-117,-63,53,90,-85,-4,126,131,53,-58,-92,-117
-117,-63,53,90,-85,-4,126,131,58,-58,-92,-117
-117,-58,58,87,-87,0,126,131,58,-58,-92,-117
-117,-53,63,85,-90,4,126,131,63,-58,-92,-117
-126,-43,82,85,-104,19,126,136,53,-63,-102,-122
-126,-43,82,85,-104,19,126,136,53,-63,-102,-126
-126,-43,82,85,-104,19,126,136,63,-63,-102,-131
-126,-43,82,85,-104,19,126,146,68,-63,-102,-136
-126,-39,87,82,-107,24,126,141,78,-63,-112,-136
-126,-34,92,80,-109,29,126,141,78,-63,-107,-131
-131,-34,97,82,-114,31,126,141,78,-63,-107,-126
-131,-34,97,82,-114,31,126,151,82,-63,-107,-117
-131,-29,102,80,-117,36,126,165,82,-63,-102,-126
-131,-19,112,75,-122,46,131,170,92,-63,-102,-126
-131,-19,112,75,-122,46,131,170,97,-63,-102,-126
-131,-19,112,75,-122,46,131,175,97,-63,-102,-126
-126,-14,112,70,-119,48,131,170,87,-73,-112,-117
-126,-4,122,65,-124,58,131,175,97,-73,-112,-122
-126,-4,122,65,-124,58,131,180,97,-73,-112,-122
-126,-4,122,65,-124,58,131,180,97,-73,-112,-122
-126,-4,122,65,-124,58,131,180,107,-63,-107,-122
-136,0,136,68,-136,68,136,180,112,-68,-107,-122
-136,0,136,68,-136,68,136,190,112,-68,-107,-122
-141,4,146,68,-143,75,141,190,117,-78,-112,-122
-151,4,156,73,-153,80,141,190,107,-73,-122,-126
-156,9,165,73,-161,87,141,195,107,-78,-122,-136
-161,9,170,75,-165,90,141,195,107,-87,-126,-151
-165,9,175,78,-170,92,141,195,107,-92,-131,-161
-170,9,180,80,-175,95,146,185,102,-97,-136,-151
-175,9,185,82,-180,97,146,185,97,-112,-141,-156
-180,9,190,85,-185,100,146,185,92,-131,-146,-156
-180,9,190,85,-185,100,151,185,92,-146,-156,-161
-185,0,185,92,-185,92,151,185,87,-156,-170,-165
-200,-4,195,102,-197,95,156,180,78,-175,-185,-180
-204,-9,195,107,-200,92,161,180,73,-185,-195,-180
-209,-14,195,112,-202,90,165,170,63,-200,-204,-185
-214,-19,195,117,-204,87,175,180,58,-214,-214,-195
-219,-24,195,122,-207,85,180,175,53,-224,-224,-204
-234,-29,204,131,-219,87,180,170,39,-239,-234,-204
-239,-34,204,136,-222,85,185,165,19,-253,-253,-219
-248,-39,209,143,-229,85,175,161,14,-278,-263,-229
-258,-43,214,151,-236,85,180,146,4,-292,-278,-239
-263,-58,204,161,-234,73,180,141,-9,-312,-292,-244
-273,-63,209,168,-241,73,180,131,-24,-331,-307,-253
-283,-82,200,183,-241,58,185,131,-48,-351,-331,-273
-292,-92,200,192,-246,53,185,117,-63,-370,-346,-283
-302,-102,200,202,-251,48,190,102,-87,-390,-361,-297
-307,-112,195,209,-251,41,190,87,-102,-419,-375,-307
-317,-112,204,214,-261,46,204,78,-122,-444,-400,-322
-326,-131,195,229,-261,31,204,63,-146,-473,-414,-326
-326,-146,180,236,-253,17,204,53,-161,-488,-429,-346
-341,-161,180,251,-261,9,214,48,-180,-507,-453,-351
-341,-175,165,258,-253,-4,214,48,-200,-517,-453,-370
-346,-190,156,268,-251,-17,214,39,-219,-536,-468,-375
-351,-204,146,278,-248,-29,214,29,-234,-551,-478,-385
-356,-219,136,287,-246,-41,219,29,-248,-561,-483,-390
-356,-219,136,287,-246,-41,214,29,-263,-580,-497,-390
-356,-229,126,292,-241,-51,214,24,-273,-590,-502,-400
-351,-239,112,295,-231,-63,214,24,-287,-600,-512,-409
-351,-248,102,300,-226,-73,214,24,-292,-600,-512,-409
-336,-268,68,302,-202,-100,224,29,-312,-600,-517,-414
-331,-278,53,305,-192,-112,224,29,-312,-600,-517,-414
-326,-283,43,305,-185,-119,219,34,-317,-600,-517,-414
-312,-283,29,297,-170,-126,219,34,-317,-600,-517,-409
-307,-283,24,295,-165,-129,214,39,-302,-585,-502,-400
-292,-283,9,287,-151,-136,209,48,-302,-570,-488,-400
-278,-283,-4,280,-136,-143,200,53,-302,-556,-473,-390
-263,-283,-19,273,-122,-151,195,68,-292,-536,-448,-380
-239,-268,-29,253,-104,-148,180,68,-287,-512,-448,-366
-219,-258,-39,239,-90,-148,180,73,-273,-488,-434,-356
-204,-253,-48,229,-78,-151,165,78,-263,-468,-414,-346
-185,-248,-63,217,-61,-156,161,78,-253,-444,-400,-331
-175,-239,-63,207,-56,-151,151,78,-234,-429,-380,-312
-161,-224,-63,192,-48,-143,141,82,-219,-400,-356,-297
-146,-214,-68,180,-39,-141,131,87,-209,-375,-336,-278
-122,-204,-82,163,-19,-143,122,87,-195,-346,-317,-263
-102,-195,-92,148,-4,-143,112,97,-175,-307,-278,-229
-87,-185,-97,136,4,-141,107,97,-161,-283,-263,-209
-73,-170,-97,122,12,-134,97,97,-146,-253,-244,-200
-58,-161,-102,109,21,-131,87,97,-131,-234,-224,-185
-58,-161,-102,109,21,-131,78,87,-126,-219,-204,-170
-43,-146,-102,95,29,-124,68,87,-117,-200,-180,-151
-39,-136,-97,87,29,-117,63,87,-107,-175,-161,-136
-24,-136,-112,80,43,-124,53,87,-97,-156,-151,-122
-4,-126,-122,65,58,-124,39,78,-82,-122,-131,-107
4,-112,-117,53,61,-114,39,78,-78,-102,-122,-102
4,-102,-107,48,56,-104,29,73,-68,-102,-112,-92
9,-97,-107,43,58,-102,24,73,-63,-92,-102,-82
9,-97,-107,43,58,-102,34,68,-58,-92,-92,-78
9,-87,-97,39,53,-92,29,68,-53,-82,-82,-68
14,-82,-97,34,56,-90,24,68,-48,-68,-73,-58
14,-78,-92,31,53,-85,19,68,-43,-53,-63,-48
24,-73,-97,24,61,-85,14,63,-39,-34,-48,-48
29,-68,-97,19,63,-82,14,58,-34,-34,-43,-43
29,-68,-97,19,63,-82,9,58,-29,-29,-39,-39
29,-58,-87,14,58,-73,9,58,-24,-24,-34,-34
39,-58,-97,9,68,-78,0,53,-24,-29,-39,-29
39,-58,-97,9,68,-78,0,53,-24,-24,-34,-24
39,-58,-97,9,68,-78,0,53,-19,-19,-29,-24
39,-58,-97,9,68,-78,0,53,-19,-14,-24,-19
29,-48,-78,9,53,-63,4,58,-19,0,-14,-9
34,-48,-82,7,58,-65,4,58,-19,4,-14,-9
34,-48,-82,7,58,-65,0,58,-14,4,-9,-9
34,-43,-78,4,56,-61,0,58,-9,4,-9,-4
34,-43,-78,4,56,-61,0,58,-9,14,-9,0
34,-43,-78,4,56,-61,0,58,-9,19,-9,0
34,-43,-78,4,56,-61,0,58,-9,19,-4,0
34,-39,-73,2,53,-56,0,58,-9,19,-4,0
34,-39,-73,2,53,-56,0,48,-9,9,-4,0
34,-39,-73,2,53,-56,0,48,-4,14,-4,4
34,-39,-73,2,53,-56,0,48,0,14,0,4
39,-39,-78,0,58,-58,0,48,0,14,0,4
39,-39,-78,0,58,-58,0,48,0,19,-9,4
39,-34,-73,-2,56,-53,0,48,0,19,-9,4
39,-29,-68,-4,53,-48,0,48,0,19,-9,4
39,-29,-68,-4,53,-48,-4,48,0,19,-4,4
39,-39,-78,0,58,-58,-4,48,0,19,-4,4
39,-39,-78,0,58,-58,0,48,4,19,-4,4
39,-39,-78,0,58,-58,0,48,4,19,-4,4
34,-39,-73,2,53,-56,0,48,4,24,-4,4
34,-29,-63,-2,48,-46,0,48,4,24,4,0
34,-29,-63,-2,48,-46,0,48,4,24,4,0
34,-29,-63,-2,48,-46,0,48,4,24,4,0
29,-29,-58,0,43,-43,0,48,4,24,4,0
29,-29,-58,0,43,-43,-4,58,9,24,4,9
29,-29,-58,0,43,-43,-4,58,9,24,4,9
29,-29,-58,0,43,-43,-4,58,9,24,4,4
29,-29,-58,0,43,-43,-4,58,9,24,4,4
19,-29,-48,4,34,-39,4,48,9,24,-4,-4
19,-29,-48,4,34,-39,0,48,9,24,-4,-4
14,-24,-39,4,26,-31,0,48,9,24,-4,-4
14,-24,-39,4,26,-31,4,48,9,24,-4,-4
24,-24,-48,0,36,-36,4,48,0,14,4,-4
19,-24,-43,2,31,-34,4,48,0,14,4,-9
19,-24,-43,2,31,-34,4,48,0,14,0,-9
19,-24,-43,2,31,-34,4,48,0,14,0,-9
19,-24,-43,2,31,-34,4,48,9,14,-9,-9
19,-24,-43,2,31,-34,4,48,9,14,-9,-9
14,-24,-39,4,26,-31,9,48,9,9,-9,-9
14,-29,-43,7,29,-36,9,48,9,9,-9,-9
14,-19,-34,2,24,-26,9,39,9,19,-19,-9
9,-19,-29,4,19,-24,9,39,9,14,-19,-14
9,-19,-29,4,19,-24,9,39,9,14,-19,-14
9,-19,-29,4,19,-24,9,39,9,14,-24,-14
9,-29,-39,9,24,-34,9,48,0,14,-24,-14
9,-29,-39,9,24,-34,9,48,0,9,-29,-19
4,-29,-34,12,19,-31,14,48,0,9,-29,-19
4,-29,-34,12,19,-31,14,48,0,9,-29,-19
4,-29,-34,12,19,-31,14,48,9,9,-29,-19
4,-34,-39,14,21,-36,14,53,9,9,-29,-19
4,-34,-39,14,21,-36,14,53,4,0,-29,-19
4,-34,-39,14,21,-36,19,53,4,0,-29,-19
-4,-29,-24,17,9,-26,19,43,4,0,-34,-24
-4,-29,-24,17,9,-26,19,43,4,0,-34,-24
-4,-29,-24,17,9,-26,19,43,0,0,-39,-24
-9,-29,-19,19,4,-24,24,43,0,-4,-39,-29
0,-39,-39,19,19,-39,24,43,0,-14,-39,-39
0,-39,-39,19,19,-39,24,43,0,-14,-43,-39
0,-43,-43,21,21,-43,24,43,4,-14,-43,-39
-4,-43,-39,24,17,-41,24,43,4,-19,-53,-39
-4,-48,-43,26,19,-46,24,43,-4,-19,-53,-34
-4,-48,-43,26,19,-46,24,43,-4,-19,-48,-34
-4,-48,-43,26,19,-46,24,43,-4,-24,-48,-34
-4,-48,-43,26,19,-46,29,43,-9,-24,-48,-34
-4,-53,-48,29,21,-51,29,43,-9,-24,-43,-39
-4,-53,-48,29,21,-51,29,43,-9,-24,-43,-39
-4,-53,-48,29,21,-51,29,43,-9,-29,-43,-39
-4,-58,-53,31,24,-56,29,43,-19,-34,-43,-39
-9,-48,-39,29,14,-43,29,43,-19,-24,-53,-39
-9,-48,-39,29,14,-43,29,43,-14,-24,-53,-43
-9,-48,-39,29,14,-43,29,43,-14,-24,-53,-43
-4,-48,-43,26,19,-46,29,43,-14,-24,-53,-43
-4,-58,-53,31,24,-56,29,43,-29,-34,-48,-43
-4,-58,-53,31,24,-56,29,43,-29,-34,-48,-48
-4,-58,-53,31,24,-56,29,43,-29,-34,-48,-48
-4,-58,-53,31,24,-56,29,43,-29,-34,-48,-48
-4,-58,-53,31,24,-56,19,53,-19,-24,-48,-39
-4,-58,-53,31,24,-56,19,53,-24,-29,-48,-39
-4,-63,-58,34,26,-61,19,53,-24,-29,-48,-39
-4,-63,-58,34,26,-61,19,53,-24,-29,-53,-39
-4,-63,-58,34,26,-61,19,53,-24,-39,-53,-48
-4,-63,-58,34,26,-61,19,53,-24,-39,-53,-48
-4,-63,-58,34,26,-61,19,48,-24,-39,-53,-48
-4,-63,-58,34,26,-61,19,48,-24,-39,-53,-48
-4,-53,-48,29,21,-51,19,48,-34,-39,-53,-39
-4,-58,-53,31,24,-56,19,48,-34,-39,-53,-39
-4,-58,-53,31,24,-56,19,48,-34,-39,-53,-39
-4,-58,-53,31,24,-56,19,48,-39,-39,-53,-34
0,-58,-58,29,29,-58,29,48,-39,-29,-53,-43
0,-58,-58,29,29,-58,29,48,-39,-29,-53,-43
0,-58,-58,29,29,-58,29,48,-39,-29,-53,-43
0,-58,-58,29,29,-58,24,48,-39,-29,-53,-43
0,-58,-58,29,29,-58,24,43,-39,-34,-53,-43
0,-58,-58,29,29,-58,24,43,-39,-34,-53,-43
0,-58,-58,29,29,-58,24,43,-39,-34,-53,-43
0,-58,-58,29,29,-58,24,43,-39,-29,-53,-43
0,-68,-68,34,34,-68,24,43,-39,-29,-53,-43
0,-68,-68,34,34,-68,24,43,-39,-29,-53,-43
0,-68,-68,34,34,-68,24,43,-39,-29,-53,-43
0,-68,-68,34,34,-68,24,43,-39,-29,-48,-43
0,-68,-68,34,34,-68,24,43,-39,-29,-58,-43
0,-68,-68,34,34,-68,24,43,-39,-29,-58,-43
4,-68,-73,31,39,-70,24,43,-39,-29,-58,-43
4,-68,-73,31,39,-70,24,43,-39,-29,-58,-43
4,-68,-73,31,39,-70,14,43,-39,-24,-58,-43
4,-68,-73,31,39,-70,14,43,-39,-24,-58,-43
4,-68,-73,31,39,-70,14,43,-39,-29,-58,-43
4,-68,-73,31,39,-70,14,43,-39,-29,-58,-43
4,-58,-63,26,34,-61,14,43,-39,-39,-48,-43
4,-58,-63,26,34,-61,14,43,-39,-39,-48,-39
4,-58,-63,26,34,-61,14,43,-39,-34,-48,-39
4,-58,-63,26,34,-61,14,43,-39,-34,-48,-39
4,-68,-73,31,39,-70,24,43,-29,-24,-48,-29
4,-68,-73,31,39,-70,24,43,-29,-24,-48,-29
4,-68,-73,31,39,-70,24,43,-29,-24,-48,-29
4,-68,-73,31,39,-70,24,39,-29,-24,-48,-29
4,-68,-73,31,39,-70,24,48,-29,-24,-48,-29
4,-68,-73,31,39,-70,14,48,-29,-24,-48,-29
0,-78,-78,39,39,-78,29,48,-19,-19,-39,-29
9,-68,-78,29,43,-73,19,39,-24,-29,-39,-29
9,-68,-78,29,43,-73,19,39,-29,-29,-39,-29
9,-68,-78,29,43,-73,19,39,-34,-29,-39,-29
9,-68,-78,29,43,-73,19,39,-39,-29,-39,-29
9,-58,-68,24,39,-63,14,39,-39,-19,-48,-39
9,-58,-68,24,39,-63,14,39,-39,-19,-48,-39
9,-58,-68,24,39,-63,9,39,-39,-19,-48,-39
9,-58,-68,24,39,-63,9,39,-39,-19,-48,-39
0,-68,-68,34,34,-68,14,48,-29,-19,-48,-29
0,-68,-68,34,34,-68,14,48,-29,-19,-48,-29
0,-68,-68,34,34,-68,9,48,-29,-19,-48,-29
0,-68,-68,34,34,-68,9,48,-29,-19,-48,-29
0,-68,-68,34,34,-68,19,43,-29,-24,-48,-29
0,-68,-68,34,34,-68,19,43,-29,-24,-48,-29
0,-68,-68,34,34,-68,19,43,-29,-24,-48,-29
0,-68,-68,34,34,-68,19,43,-29,-24,-48,-29
9,-78,-87,34,48,-82,9,34,-29,-24,-48,-29
9,-73,-82,31,46,-78,14,34,-24,-24,-48,-24
9,-73,-82,31,46,-78,14,34,-24,-24,-48,-24
9,-73,-82,31,46,-78,14,34,-24,-24,-48,-24
0,-63,-63,31,31,-63,24,43,-34,-24,-48,-34
4,-63,-68,29,36,-65,24,43,-34,-24,-48,-34
14,-63,-78,24,46,-70,24,43,-34,-24,-48,-34
19,-63,-82,21,51,-73,24,53,-29,-24,-48,-34
19,-73,-92,26,56,-82,19,58,-19,-14,-39,-34
24,-63,-87,19,56,-75,19,63,-19,-14,-34,-29
39,-58,-97,9,68,-78,24,78,-14,-14,-34,-29
48,-53,-102,2,75,-78,24,87,-9,-4,-29,-29
68,-48,-117,-9,92,-82,24,107,-14,0,-29,-19
82,-34,-117,-24,100,-75,24,122,0,4,-24,-14
87,-34,-122,-26,104,-78,19,126,9,14,-19,-9
102,-24,-126,-39,114,-75,9,126,14,19,-14,-4
107,-9,-117,-48,112,-63,9,126,19,24,-9,4
117,-9,-126,-53,122,-68,4,131,24,29,-4,9
126,0,-126,-63,126,-63,0,131,29,34,0,14
136,19,-117,-78,126,-48,-19,131,39,48,14,19
146,43,-102,-95,124,-29,-34,131,58,68,34,24
156,68,-87,-112,122,-9,-48,131,63,73,48,39
165,78,-87,-122,126,-4,-73,131,68,82,53,48
175,78,-97,-126,136,-9,-87,122,68,82,53,58
180,92,-87,-136,134,2,-87,117,78,97,58,68
180,97,-82,-139,131,7,-92,112,78,97,58,73
180,97,-82,-139,131,7,-92,87,68,97,58,78
170,97,-73,-134,122,12,-102,53,53,87,58,82
165,92,-73,-129,119,9,-102,29,48,78,53,63
165,73,-92,-119,129,-9,-92,29,39,63,43,53
156,48,-107,-102,131,-29,-82,29,29,53,39,43
151,34,-117,-92,134,-41,-73,34,19,39,34,34
146,14,-131,-80,139,-58,-73,43,0,24,14,34
136,-4,-141,-65,139,-73,-63,34,-19,9,4,24
126,-14,-141,-56,134,-78,-63,24,-24,9,0,19
126,-14,-141,-56,134,-78,-63,19,-24,4,0,19
117,-19,-136,-48,126,-78,-58,14,-29,4,0,14
97,-24,-122,-36,109,-73,-53,9,-29,4,0,14
82,-24,-107,-29,95,-65,-48,9,-24,4,0,9
73,-29,-102,-21,87,-65,-39,14,-24,4,-4,4
68,-29,-97,-19,82,-63,-39,24,-34,-4,-24,-4
53,-43,-97,-4,75,-70,-29,29,-43,-19,-34,-19
39,-63,-102,12,70,-82,-19,34,-53,-29,-48,-29
24,-68,-92,21,58,-80,-9,39,-53,-29,-53,-34
24,-78,-102,26,63,-90,0,29,-39,-24,-53,-43
14,-82,-97,34,56,-90,0,29,-39,-24,-48,-43
0,-87,-87,43,43,-87,0,14,-43,-24,-48,-43
-4,-87,-82,46,39,-85,0,0,-43,-29,-48,-43
-9,-87,-78,48,34,-82,9,9,-43,-29,-48,-34
-9,-82,-73,46,31,-78,9,14,-43,-29,-48,-34
-9,-82,-73,46,31,-78,9,14,-43,-29,-48,-34
-9,-82,-73,46,31,-78,9,14,-43,-29,-48,-39
-9,-87,-78,48,34,-82,0,14,-43,-29,-48,-39
-9,-87,-78,48,34,-82,4,19,-43,-29,-48,-39
-9,-87,-78,48,34,-82,4,24,-43,-29,-48,-39
-9,-87,-78,48,34,-82,9,24,-43,-29,-48,-39
-9,-87,-78,48,34,-82,9,24,-43,-29,-39,-34
-14,-87,-73,51,29,-80,9,24,-39,-24,-39,-34
-14,-87,-73,51,29,-80,9,24,-39,-24,-39,-34
-14,-87,-73,51,29,-80,14,19,-39,-24,-39,-39
-14,-87,-73,51,29,-80,14,19,-39,-24,-39,-39
-14,-87,-73,51,29,-80,14,19,-39,-29,-39,-39
-19,-87,-68,53,24,-78,14,19,-39,-29,-39,-39
-19,-87,-68,53,24,-78,14,19,-39,-29,-39,-39
-19,-87,-68,53,24,-78,14,19,-29,-24,-48,-48
-19,-87,-68,53,24,-78,14,19,-29,-24,-48,-48
-19,-87,-68,53,24,-78,14,24,-29,-24,-48,-48
-19,-87,-68,53,24,-78,14,24,-29,-24,-48,-48
-9,-78,-68,43,29,-73,14,24,-29,-24,-39,-39
-19,-78,-58,48,19,-68,14,24,-39,-24,-48,-39
-19,-78,-58,48,19,-68,24,24,-39,-14,-39,-39
-19,-87,-68,53,24,-78,14,24,-29,-14,-39,-39
-9,-87,-78,48,34,-82,9,34,-19,-9,-39,-39
4,-87,-92,41,48,-90,9,48,-4,4,-34,-39
19,-68,-87,24,53,-78,19,87,53,58,-9,-34
34,-24,-58,-4,46,-41,9,112,141,122,43,0
73,43,-29,-58,51,7,-19,102,234,214,126,53
131,141,9,-136,61,75,-68,73,336,361,244,146
214,268,53,-241,80,161,-126,53,497,556,390,273
331,424,92,-378,119,258,-185,73,668,780,580,414
458,595,136,-527,161,366,-268,43,819,1005,780,575
580,819,239,-700,170,529,-405,-146,946,1239,1019,785
702,1083,380,-893,161,732,-580,-444,1068,1498,1293,1034
839,1298,458,-1068,190,878,-761,-702,1122,1698,1512,1254
990,1434,444,-1212,273,939,-946,-961,1054,1805,1693,1444
1112,1566,453,-1339,329,1010,-1146,-1293,946,1893,1869,1659
1190,1708,517,-1449,336,1112,-1332,-1644,790,1947,2025,1859
1224,1717,492,-1471,366,1105,-1429,-1864,541,1893,2093,1981
1234,1610,375,-1422,429,993,-1468,-1991,209,1766,2078,2049
1224,1512,287,-1368,468,900,-1512,-2078,-29,1673,2059,2093
1185,1459,273,-1322,456,866,-1512,-2088,-107,1649,2059,2117
1137,1405,268,-1271,434,836,-1478,-2015,-107,1644,2059,2117
1073,1342,268,-1207,402,805,-1439,-1898,-78,1639,2039,2083
976,1283,307,-1129,334,795,-1376,-1771,-39,1595,1981,2020
844,1205,361,-1024,241,783,-1283,-1620,0,1512,1873,1912
712,1063,351,-888,180,707,-1137,-1434,-9,1327,1654,1698
551,829,278,-690,136,553,-932,-1220,-102,990,1293,1356
356,527,170,-441,92,348,-692,-990,-258,541,824,946
170,224,53,-197,58,139,-453,-766,-419,97,370,556
-24,19,43,2,-34,31,-258,-600,-488,-234,-9,204
-185,-107,78,146,-131,-14,-92,-478,-478,-409,-263,-68
-234,-136,97,185,-165,-19,-19,-366,-409,-419,-302,-165
-195,-117,78,156,-136,-19,-19,-292,-336,-341,-253,-126
-190,-122,68,156,-129,-26,0,-248,-278,-307,-229,-126
-190,-122,68,156,-129,-26,29,-195,-239,-283,-234,-146
-170,-112,58,141,-114,-26,39,-141,-209,-239,-204,-136
-146,-97,48,122,-97,-24,48,-102,-180,-214,-180,-126
-136,-107,29,122,-82,-39,68,-63,-156,-190,-170,-136
-136,-107,29,122,-82,-39,82,-19,-131,-175,-165,-131
-126,-117,9,122,-68,-53,82,14,-107,-165,-156,-122
-117,-122,-4,119,-56,-63,87,34,-82,-161,-161,-131
-117,-131,-14,124,-51,-73,92,39,-68,-146,-156,-136
-122,-122,0,122,-61,-61,92,39,-73,-141,-151,-136
-112,-122,-9,117,-51,-65,92,39,-78,-141,-146,-126
-112,-122,-9,117,-51,-65,92,48,-68,-126,-141,-126
-112,-122,-9,117,-51,-65,102,63,-68,-126,-141,-126
-112,-122,-9,117,-51,-65,107,68,-68,-126,-136,-126
-112,-122,-9,117,-51,-65,107,78,-53,-126,-136,-131
-112,-122,-9,117,-51,-65,107,78,-53,-122,-136,-131
-112,-122,-9,117,-51,-65,117,82,-48,-122,-136,-136
-112,-122,-9,117,-51,-65,117,82,-43,-122,-136,-136
-112,-122,-9,117,-51,-65,117,82,-48,-107,-131,-136
-112,-122,-9,117,-51,-65,117,92,-43,-107,-131,-136
-112,-117,-4,114,-53,-61,122,92,-43,-102,-131,-136
-112,-117,-4,114,-53,-61,122,92,-43,-102,-131,-131
-112,-117,-4,114,-53,-61,122,92,-34,-102,-131,-131
-112,-117,-4,114,-53,-61,122,92,-34,-97,-131,-131
-112,-117,-4,114,-53,-61,122,97,-34,-97,-131,-131
-112,-117,-4,114,-53,-61,122,97,-34,-97,-131,-131
-122,-117,4,119,-63,-56,126,97,-29,-97,-131,-131
-122,-117,4,119,-63,-56,126,97,-29,-97,-126,-131
-122,-117,4,119,-63,-56,126,97,-29,-97,-126,-131
-122,-117,4,119,-63,-56,126,97,-24,-97,-126,-131
-112,-107,4,109,-58,-51,126,102,-24,-92,-126,-131
-112,-107,4,109,-58,-51,126,102,-24,-92,-126,-131
-112,-102,9,107,-61,-46,126,102,-24,-92,-126,-131
-112,-102,9,107,-61,-46,126,102,-24,-92,-126,-131
-112,-112,0,112,-56,-56,126,102,-24,-102,-126,-122
-112,-107,4,109,-58,-51,126,102,-19,-102,-126,-122
-112,-107,4,109,-58,-51,126,102,-19,-97,-126,-122
-112,-107,4,109,-58,-51,126,102,-19,-97,-126,-122
-107,-107,0,107,-53,-53,126,102,-14,-97,-126,-122
-107,-102,4,104,-56,-48,126,102,-14,-97,-122,-122
-112,-102,9,107,-61,-46,126,102,-14,-97,-122,-122
-112,-102,9,107,-61,-46,126,102,-14,-97,-122,-122
-112,-102,9,107,-61,-46,117,92,-9,-87,-122,-122
-112,-102,9,107,-61,-46,117,92,-9,-87,-122,-122
-112,-97,14,104,-63,-41,117,92,-9,-87,-122,-122
-112,-97,14,104,-63,-41,117,92,-9,-82,-122,-122
-112,-97,14,104,-63,-41,122,102,-4,-82,-122,-122
-112,-92,19,102,-65,-36,122,102,-4,-82,-122,-117
-112,-92,19,102,-65,-36,122,102,-4,-82,-117,-117
-112,-92,19,102,-65,-36,122,102,0,-78,-117,-117
-112,-87,24,100,-68,-31,122,102,4,-87,-107,-117
-112,-87,24,100,-68,-31,122,102,4,-87,-107,-117
-112,-87,24,100,-68,-31,122,102,4,-87,-107,-117
-112,-87,24,100,-68,-31,122,107,4,-87,-102,-117
-112,-78,34,95,-73,-21,122,97,4,-78,-112,-117
-112,-78,34,95,-73,-21,122,97,9,-73,-112,-117
-112,-78,34,95,-73,-21,122,97,14,-73,-112,-117
-112,-73,39,92,-75,-17,122,102,14,-73,-112,-117
-112,-73,39,92,-75,-17,112,102,14,-73,-112,-126
-112,-68,43,90,-78,-12,112,102,14,-73,-112,-122
-112,-68,43,90,-78,-12,112,102,19,-68,-107,-122
-112,-68,43,90,-78,-12,107,102,24,-68,-107,-122
-122,-73,48,97,-85,-12,117,112,24,-68,-107,-112
-122,-73,48,97,-85,-12,117,117,24,-68,-107,-112
-122,-73,48,97,-85,-12,117,117,29,-68,-102,-112
-122,-68,53,95,-87,-7,117,117,34,-63,-102,-112
-112,-58,53,85,-82,-2,117,117,34,-63,-102,-112
-112,-58,53,85,-82,-2,117,117,43,-63,-102,-112
-112,-58,53,85,-82,-2,117,126,43,-63,-102,-112
-112,-58,53,85,-82,-2,117,126,43,-63,-102,-107
-117,-63,53,90,-85,-4,107,122,43,-68,-102,-117
-117,-63,53,90,-85,-4,107,122,48,-68,-102,-117
-117,-58,58,87,-87,0,107,122,48,-68,-102,-117
-117,-53,63,85,-90,4,107,122,53,-68,-102,-117
-117,-43,73,80,-95,14,117,126,53,-53,-102,-117
-117,-43,73,80,-95,14,117,126,53,-53,-102,-117
-117,-43,73,80,-95,14,117,126,63,-53,-102,-117
-117,-43,73,80,-95,14,117,136,68,-53,-102,-117
-117,-39,78,78,-97,19,117,141,68,-53,-102,-122
-117,-34,82,75,-100,24,117,141,68,-53,-97,-122
-122,-34,87,78,-104,26,117,141,68,-53,-97,-122
-122,-34,87,78,-104,26,117,151,73,-53,-97,-117
-131,-39,92,85,-112,26,107,146,73,-53,-102,-117
-131,-29,102,80,-117,36,112,151,82,-53,-102,-117
-131,-29,102,80,-117,36,112,151,87,-53,-102,-117
-131,-29,102,80,-117,36,112,156,87,-53,-102,-117
-136,-24,112,80,-124,43,112,161,87,-53,-102,-107
-136,-14,122,75,-129,53,112,165,97,-53,-102,-112
-136,-14,122,75,-129,53,112,170,97,-53,-102,-112
-136,-14,122,75,-129,53,112,170,97,-53,-102,-112
-136,-4,131,70,-134,63,122,170,97,-63,-107,-122
-146,0,146,73,-146,73,126,170,102,-68,-107,-122
-146,0,146,73,-146,73,126,180,102,-68,-107,-122
-151,4,156,73,-153,80,131,180,107,-78,-112,-122
-141,4,146,68,-143,75,122,180,107,-82,-122,-122
-146,9,156,68,-151,82,122,185,107,-87,-122,-126
-151,9,161,70,-156,85,122,185,107,-97,-126,-136
-156,9,165,73,-161,87,122,185,107,-102,-131,-141
-170,9,180,80,-175,95,126,185,92,-102,-136,-131
-175,9,185,82,-180,97,126,185,87,-112,-141,-136
-180,9,190,85,-185,100,126,185,82,-126,-146,-136
-180,9,190,85,-185,100,131,185,82,-136,-156,-141
-175,0,175,87,-175,87,131,175,78,-156,-170,-156
-190,-4,185,97,-187,90,136,170,68,-175,-185,-170
-195,-9,185,102,-190,87,141,170,63,-185,-195,-170
-200,-14,185,107,-192,85,146,161,53,-200,-204,-175
-204,-19,185,112,-195,82,156,170,39,-214,-204,-185
-209,-24,185,117,-197,80,161,165,34,-224,-214,-195
-224,-29,195,126,-209,82,161,161,19,-239,-224,-195
-229,-34,195,131,-212,80,165,156,0,-253,-244,-209
-248,-39,209,143,-229,85,165,151,-4,-278,-253,-219
-258,-43,214,151,-236,85,170,136,-14,-292,-268,-229
-263,-58,204,161,-234,73,170,131,-29,-312,-283,-234
-273,-63,209,168,-241,73,170,122,-43,-331,-297,-244
-273,-73,200,173,-236,63,175,112,-68,-361,-322,-253
-283,-82,200,183,-241,58,175,97,-82,-380,-336,-263
-292,-92,200,192,-246,53,180,82,-107,-400,-351,-278
-297,-102,195,200,-246,46,180,68,-122,-429,-366,-287
-317,-122,195,219,-256,36,185,68,-141,-444,-370,-292
-326,-141,185,234,-256,21,185,53,-165,-473,-385,-297
-326,-156,170,241,-248,7,185,43,-180,-488,-400,-317
-341,-170,170,256,-256,0,195,39,-200,-507,-424,-322
-331,-175,156,253,-244,-9,195,19,-229,-527,-444,-351
-336,-190,146,263,-241,-21,195,9,-248,-546,-458,-356
-341,-204,136,273,-239,-34,195,0,-263,-561,-468,-366
-346,-219,126,283,-236,-46,200,0,-278,-570,-473,-370
-346,-229,117,287,-231,-56,204,9,-283,-580,-478,-370
-346,-239,107,292,-226,-65,204,4,-292,-590,-483,-380
-341,-248,92,295,-217,-78,204,4,-307,-600,-492,-390
-341,-258,82,300,-212,-87,204,4,-312,-600,-492,-390
-336,-268,68,302,-202,-100,204,9,-322,-590,-497,-395
-331,-278,53,305,-192,-112,204,9,-322,-590,-497,-395
-326,-283,43,305,-185,-119,200,14,-326,-590,-497,-395
-312,-283,29,297,-170,-126,200,14,-326,-590,-497,-390
-297,-283,14,290,-156,-134,195,29,-312,-575,-492,-380
-283,-283,0,283,-141,-141,190,39,-312,-561,-478,-380
-268,-283,-14,275,-126,-148,180,43,-312,-546,-463,-370
-253,-283,-29,268,-112,-156,175,58,-302,-527,-439,-361
-239,-278,-39,258,-100,-158,161,58,-287,-507,-429,-336
-219,-268,-48,244,-85,-158,161,63,-273,-478,-414,-326
-204,-263,-58,234,-73,-161,146,68,-263,-453,-395,-317
-185,-258,-73,222,-56,-165,141,68,-253,-424,-380,-302
-175,-239,-63,207,-56,-151,131,68,-239,-409,-351,-292
-161,-224,-63,192,-48,-143,122,73,-219,-380,-326,-278
-146,-214,-68,180,-39,-141,112,78,-204,-356,-307,-258
-122,-204,-82,163,-19,-143,102,78,-185,-326,-287,-244
-102,-204,-102,153,0,-153,92,78,-175,-283,-258,-209
-87,-195,-107,141,9,-151,87,78,-161,-263,-244,-190
-73,-180,-107,126,17,-143,78,78,-146,-239,-224,-180
-58,-170,-112,114,26,-141,68,78,-131,-224,-204,-165
-48,-151,-102,100,26,-126,58,68,-117,-204,-185,-151
-34,-136,-102,85,34,-119,48,68,-107,-180,-161,-131
-29,-126,-97,78,34,-112,43,68,-97,-151,-141,-117
-14,-126,-112,70,48,-119,34,68,-87,-126,-131,-102
-14,-117,-102,65,43,-109,29,68,-73,-112,-112,-87
-4,-102,-97,53,46,-100,29,68,-68,-92,-102,-82
-4,-92,-87,48,41,-90,19,63,-58,-92,-92,-73
0,-87,-87,43,43,-87,14,63,-53,-82,-82,-63
9,-87,-97,39,53,-92,14,58,-48,-73,-73,-68
9,-78,-87,34,48,-82,9,58,-43,-63,-63,-58
14,-73,-87,29,51,-80,4,58,-39,-48,-53,-48
14,-68,-82,26,48,-75,0,58,-34,-34,-43,-39
24,-63,-87,19,56,-75,-4,53,-29,-24,-39,-39
29,-58,-87,14,58,-73,-4,48,-24,-24,-34,-34
29,-58,-87,14,58,-73,-9,48,-19,-19,-29,-29
29,-48,-78,9,53,-63,-9,48,-14,-14,-24,-24
39,-48,-87,4,63,-68,-9,43,-14,-9,-19,-19
39,-48,-87,4,63,-68,-9,43,-14,-4,-14,-14
39,-48,-87,4,63,-68,-9,43,-9,0,-9,-14
39,-48,-87,4,63,-68,-9,43,-9,4,-4,-9
29,-39,-68,4,48,-53,-14,48,-9,9,-4,0
34,-39,-73,2,53,-56,-14,48,-9,14,-4,0
34,-39,-73,2,53,-56,-19,48,-4,14,0,0
34,-34,-68,0,51,-51,-19,48,0,14,0,4
34,-34,-68,0,51,-51,-9,39,0,14,0,9
34,-34,-68,0,51,-51,-9,39,0,19,0,9
34,-34,-68,0,51,-51,-9,39,0,19,4,9
34,-29,-63,-2,48,-46,-9,39,0,19,4,9
34,-29,-63,-2,48,-46,-19,39,0,19,4,9
34,-29,-63,-2,48,-46,-19,39,4,24,4,14
34,-29,-63,-2,48,-46,-19,39,9,24,9,14
39,-29,-68,-4,53,-48,-19,39,9,24,9,14
39,-39,-78,0,58,-58,-19,39,9,29,9,4
39,-34,-73,-2,56,-53,-19,39,9,29,9,4
39,-29,-68,-4,53,-48,-19,39,9,29,9,4
39,-29,-68,-4,53,-48,-24,39,9,29,14,4
39,-29,-68,-4,53,-48,-24,39,9,29,14,14
39,-29,-68,-4,53,-48,-19,39,14,29,14,14
39,-29,-68,-4,53,-48,-19,39,14,29,14,14
34,-29,-63,-2,48,-46,-19,39,14,34,14,14
34,-19,-53,-7,43,-36,-19,48,24,43,14,9
34,-19,-53,-7,43,-36,-19,48,24,43,14,9
34,-19,-53,-7,43,-36,-19,48,24,43,14,9
29,-19,-48,-4,39,-34,-19,48,24,43,14,9
29,-19,-48,-4,39,-34,-4,39,29,34,14,9
29,-19,-48,-4,39,-34,-4,39,29,34,14,9
29,-19,-48,-4,39,-34,-4,39,29,34,14,4
29,-19,-48,-4,39,-34,-4,39,29,34,14,4
29,-19,-48,-4,39,-34,-4,39,19,34,14,14
29,-19,-48,-4,39,-34,-9,39,19,34,14,14
24,-14,-39,-4,31,-26,-9,39,19,34,14,14
24,-14,-39,-4,31,-26,-4,39,19,34,14,14
24,-14,-39,-4,31,-26,-4,39,29,34,14,4
19,-14,-34,-2,26,-24,-4,39,29,34,14,0
19,-14,-34,-2,26,-24,-4,39,29,34,9,0
19,-14,-34,-2,26,-24,-4,39,29,34,9,0
19,-14,-34,-2,26,-24,-4,48,29,34,9,0
19,-14,-34,-2,26,-24,-4,48,29,34,9,0
14,-14,-29,0,21,-21,0,48,29,29,9,0
14,-19,-34,2,24,-26,0,48,29,29,9,0
14,-19,-34,2,24,-26,-9,39,29,29,9,9
9,-19,-29,4,19,-24,-9,39,29,24,9,4
9,-19,-29,4,19,-24,-9,39,29,24,9,4
9,-19,-29,4,19,-24,-9,39,29,24,4,4
9,-19,-29,4,19,-24,-9,39,19,24,-4,-4
9,-19,-29,4,19,-24,-9,39,19,19,-9,-9
4,-19,-24,7,14,-21,-4,39,19,19,-9,-9
4,-19,-24,7,14,-21,-4,39,19,19,-9,-9
4,-19,-24,7,14,-21,-4,39,19,9,-9,-19
4,-24,-29,9,17,-26,-4,43,19,9,-9,-19
4,-24,-29,9,17,-26,-4,43,14,0,-9,-19
4,-24,-29,9,17,-26,0,43,14,0,-9,-19
4,-29,-34,12,19,-31,0,43,14,9,-14,-14
4,-29,-34,12,19,-31,0,43,14,9,-14,-14
4,-29,-34,12,19,-31,0,43,9,9,-19,-14
0,-29,-29,14,14,-29,4,43,9,4,-19,-19
0,-29,-29,14,14,-29,4,43,-9,4,-9,-19
0,-29,-29,14,14,-29,4,43,-9,4,-14,-19
0,-34,-34,17,17,-34,4,43,-4,4,-14,-19
-4,-34,-29,19,12,-31,4,43,-4,0,-24,-19
-4,-29,-24,17,9,-26,4,53,4,0,-24,-24
-4,-29,-24,17,9,-26,4,53,4,0,-19,-24
-4,-29,-24,17,9,-26,4,53,4,-4,-19,-24
-4,-29,-24,17,9,-26,9,53,0,-4,-19,-24
-4,-43,-39,24,17,-41,9,43,0,-4,-24,-19
-4,-43,-39,24,17,-41,9,43,0,-4,-24,-19
-4,-43,-39,24,17,-41,9,43,0,-9,-24,-19
-4,-48,-43,26,19,-46,9,43,-9,-14,-24,-19
-9,-48,-39,29,14,-43,9,43,-9,-14,-24,-19
-9,-48,-39,29,14,-43,9,43,-4,-14,-24,-24
-9,-48,-39,29,14,-43,9,43,-4,-14,-24,-24
-4,-48,-43,26,19,-46,9,43,-4,-14,-24,-24
4,-48,-53,21,29,-51,9,43,-9,-14,-29,-24
4,-48,-53,21,29,-51,9,43,-9,-14,-29,-29
4,-48,-53,21,29,-51,9,43,-9,-14,-29,-29
4,-48,-53,21,29,-51,9,43,-9,-14,-29,-29
4,-48,-53,21,29,-51,9,53,-9,-4,-19,-29
4,-48,-53,21,29,-51,9,53,-14,-9,-19,-29
4,-53,-58,24,31,-56,9,53,-14,-9,-19,-29
4,-53,-58,24,31,-56,9,53,-14,-9,-24,-29
4,-53,-58,24,31,-56,19,43,-14,-19,-24,-29
4,-53,-58,24,31,-56,19,43,-14,-19,-24,-29
4,-53,-58,24,31,-56,19,39,-14,-19,-24,-29
4,-53,-58,24,31,-56,19,39,-14,-19,-24,-29
14,-53,-68,19,41,-61,9,39,-14,-19,-34,-29
14,-58,-73,21,43,-65,9,39,-14,-19,-34,-29
14,-58,-73,21,43,-65,9,39,-14,-19,-34,-29
14,-58,-73,21,43,-65,9,39,-19,-19,-34,-24
9,-48,-58,19,34,-53,9,39,-9,-19,-24,-24
9,-48,-58,19,34,-53,9,39,-9,-19,-24,-24
9,-48,-58,19,34,-53,9,39,-9,-19,-24,-24
9,-48,-58,19,34,-53,4,39,-9,-19,-24,-24
0,-58,-58,29,29,-58,14,43,-19,-14,-14,-24
0,-58,-58,29,29,-58,14,43,-19,-14,-14,-24
0,-58,-58,29,29,-58,14,43,-19,-14,-14,-24
0,-58,-58,29,29,-58,14,43,-19,-9,-14,-24
9,-58,-68,24,39,-63,14,43,-19,-9,-24,-24
9,-58,-68,24,39,-63,14,43,-19,-9,-24,-24
9,-58,-68,24,39,-63,14,43,-19,-9,-24,-24
9,-58,-68,24,39,-63,14,43,-19,-9,-19,-24
9,-58,-68,24,39,-63,14,43,-19,-9,-19,-24
9,-58,-68,24,39,-63,14,43,-19,-9,-19,-24
14,-58,-73,21,43,-65,14,43,-19,-9,-19,-24
14,-58,-73,21,43,-65,14,43,-19,-9,-19,-24
14,-58,-73,21,43,-65,4,34,-19,-14,-19,-24
14,-58,-73,21,43,-65,4,34,-19,-14,-19,-24
14,-58,-73,21,43,-65,4,34,-19,-19,-19,-24
14,-58,-73,21,43,-65,4,34,-19,-19,-19,-24
14,-58,-73,21,43,-65,4,34,-19,-9,-19,-24
14,-58,-73,21,43,-65,4,34,-19,-9,-19,-19
14,-58,-73,21,43,-65,4,34,-19,-4,-19,-19
14,-58,-73,21,43,-65,4,34,-19,-4,-19,-19
4,-58,-63,26,34,-61,14,34,-19,-4,-9,-19
4,-58,-63,26,34,-61,14,34,-19,-4,-9,-19
4,-58,-63,26,34,-61,14,34,-19,-4,-9,-19
4,-58,-63,26,34,-61,14,29,-19,-4,-9,-19
4,-58,-63,26,34,-61,4,29,-19,-14,-9,-19
4,-58,-63,26,34,-61,4,29,-19,-14,-9,-19
4,-58,-63,26,34,-61,4,34,-19,-14,-9,-19
4,-58,-63,26,34,-61,4,34,-19,-14,-9,-19
14,-48,-63,17,39,-56,4,34,-19,-4,-14,-29
14,-48,-63,17,39,-56,-4,34,-19,-14,-14,-29
9,-48,-58,19,34,-53,0,29,-19,-9,-9,-19
9,-58,-68,24,39,-63,0,29,-19,0,-9,-19
9,-58,-68,24,39,-63,0,29,-19,0,-9,-19
9,-58,-68,24,39,-63,0,29,-19,0,-9,-19
9,-58,-68,24,39,-63,0,29,-19,0,-9,-19
9,-58,-68,24,39,-63,4,39,-19,0,-19,-19
9,-58,-68,24,39,-63,4,39,-19,0,-19,-19
9,-58,-68,24,39,-63,0,39,-19,0,-19,-19
9,-58,-68,24,39,-63,0,39,-19,0,-19,-19
9,-58,-68,24,39,-63,4,39,-19,-9,-19,-19
9,-58,-68,24,39,-63,4,39,-19,-9,-19,-19
9,-58,-68,24,39,-63,0,39,-19,-9,-19,-19
9,-58,-68,24,39,-63,0,39,-19,-9,-19,-19
9,-48,-58,19,34,-53,0,34,-19,-4,-19,-29
9,-48,-58,19,34,-53,0,34,-19,-4,-19,-29
9,-48,-58,19,34,-53,0,34,-19,-4,-19,-29
9,-48,-58,19,34,-53,0,34,-19,-4,-19,-29
9,-58,-68,24,39,-63,0,43,-19,-4,-19,-19
9,-53,-63,21,36,-58,4,43,-14,-4,-19,-14
9,-53,-63,21,36,-58,4,43,-14,-4,-19,-14
9,-53,-63,21,36,-58,4,43,-14,-4,-19,-14
9,-53,-63,21,36,-58,4,53,-4,-4,-9,-14
14,-53,-68,19,41,-61,4,53,-4,-4,-9,-14
24,-53,-78,14,51,-65,4,53,-4,-4,-9,-14
29,-53,-82,12,56,-68,4,63,0,-4,-9,-14
29,-53,-82,12,56,-68,19,68,0,4,-9,-14
34,-43,-78,4,56,-61,19,73,0,4,-4,-9
48,-39,-87,-4,68,-63,24,87,4,4,-4,-9
58,-34,-92,-12,75,-63,24,97,9,14,0,-9
87,-29,-117,-29,102,-73,14,126,14,29,9,0
102,-14,-117,-43,109,-65,14,141,29,34,14,4
107,-14,-122,-46,114,-68,9,146,39,43,19,9
122,-4,-126,-58,124,-65,0,146,43,48,24,14
126,9,-117,-68,122,-53,-9,136,48,43,29,14
136,9,-126,-73,131,-58,-14,141,53,48,34,19
146,19,-126,-82,136,-53,-19,141,58,53,39,24
156,39,-117,-97,136,-39,-39,141,68,68,53,29
175,73,-102,-124,139,-14,-63,141,87,97,73,53
185,97,-87,-141,136,4,-78,141,92,102,87,68
195,107,-87,-151,141,9,-102,141,97,112,92,78
204,107,-97,-156,151,4,-117,131,97,112,92,87
200,112,-87,-156,143,12,-117,117,87,107,87,82
200,117,-82,-158,141,17,-122,112,87,107,87,82
200,117,-82,-158,141,17,-122,87,78,107,87,82
190,117,-73,-153,131,21,-131,53,63,97,87,82
175,102,-73,-139,124,14,-122,29,48,87,78,63
175,82,-92,-129,134,-4,-112,29,39,73,63,53
165,58,-107,-112,136,-24,-102,29,29,63,53,43
161,43,-117,-102,139,-36,-92,34,19,48,43,34
156,14,-141,-85,148,-63,-92,43,19,34,24,34
146,-4,-151,-70,148,-78,-82,34,0,19,14,24
136,-14,-151,-61,143,-82,-82,24,-4,19,9,19
136,-14,-151,-61,143,-82,-82,19,-4,14,9,19
126,-19,-146,-53,136,-82,-68,4,-9,14,9,14
107,-24,-131,-41,119,-78,-63,0,-9,14,9,14
92,-24,-117,-34,104,-70,-58,0,-4,14,9,9
82,-29,-112,-26,97,-70,-48,4,-4,14,4,4
78,-29,-107,-24,92,-68,-48,14,-14,14,-4,-4
63,-43,-107,-9,85,-75,-39,19,-24,0,-14,-19
48,-63,-112,7,80,-87,-29,24,-34,-9,-29,-29
34,-68,-102,17,68,-85,-19,29,-34,-9,-34,-34
24,-68,-92,21,58,-80,0,29,-29,-14,-34,-34
14,-73,-87,29,51,-80,0,29,-29,-14,-29,-34
0,-78,-78,39,39,-78,0,14,-34,-14,-29,-34
-4,-78,-73,41,34,-75,0,0,-34,-19,-29,-34
-9,-87,-78,48,34,-82,0,9,-24,-19,-19,-34
-9,-82,-73,46,31,-78,0,14,-24,-19,-19,-34
-9,-82,-73,46,31,-78,0,14,-24,-19,-19,-34
-9,-82,-73,46,31,-78,0,14,-24,-19,-19,-39
-9,-78,-68,43,29,-73,-9,14,-34,-19,-29,-39
-9,-78,-68,43,29,-73,-4,19,-34,-19,-29,-39
-9,-78,-68,43,29,-73,-4,24,-34,-19,-29,-39
-9,-78,-68,43,29,-73,0,24,-34,-19,-29,-39
-9,-78,-68,43,29,-73,0,14,-34,-19,-19,-34
-14,-78,-63,46,24,-70,0,14,-29,-14,-19,-34
-14,-78,-63,46,24,-70,0,14,-29,-14,-19,-34
-14,-78,-63,46,24,-70,4,9,-29,-14,-19,-39
-14,-78,-63,46,24,-70,4,9,-29,-14,-29,-39
-14,-78,-63,46,24,-70,4,9,-29,-19,-29,-39
-19,-78,-58,48,19,-68,4,9,-29,-19,-29,-39
-19,-78,-58,48,19,-68,4,9,-29,-19,-29,-39
-19,-78,-58,48,19,-68,4,9,-29,-14,-19,-29
-19,-78,-58,48,19,-68,4,9,-29,-14,-19,-29
-19,-78,-58,48,19,-68,4,14,-29,-14,-19,-29
-19,-78,-58,48,19,-68,4,14,-29,-14,-19,-29
-9,-68,-58,39,24,-63,4,14,-29,-14,-29,-29
-19,-78,-58,48,19,-68,4,14,-29,-14,-19,-29
-9,-78,-68,43,29,-73,4,14,-29,-14,-19,-39
-19,-78,-58,48,19,-68,4,24,-29,-14,-19,-39
-9,-68,-58,39,24,-63,9,34,-19,0,-19,-29
4,-68,-73,31,39,-70,0,48,4,14,-4,-29
19,-48,-68,14,43,-58,0,78,53,48,9,-14
34,-14,-48,-9,41,-31,0,112,131,112,53,19
63,43,-19,-53,41,12,-19,112,214,214,126,73
131,131,0,-131,65,65,-58,82,307,341,234,146
224,258,34,-241,95,146,-126,53,448,507,390,263
341,424,82,-383,129,253,-195,63,619,722,561,405
458,585,126,-522,165,356,-268,53,761,927,741,546
590,790,200,-690,195,495,-395,-146,868,1132,951,746
722,1034,312,-878,204,673,-570,-453,971,1351,1185,976
868,1239,370,-1054,248,805,-751,-741,1005,1522,1395,1185
1029,1356,326,-1193,351,841,-927,-1010,936,1610,1546,1356
1161,1478,317,-1320,422,897,-1127,-1332,819,1678,1693,1551
1239,1600,361,-1420,439,980,-1312,-1693,673,1732,1839,1751
1273,1620,346,-1446,463,983,-1420,-1942,434,1678,1908,1893
1283,1522,239,-1403,522,880,-1468,-2108,141,1551,1893,1942
1273,1424,151,-1349,561,788,-1503,-2205,-78,1468,1883,1986
1244,1381,136,-1312,553,758,-1512,-2225,-156,1444,1893,2020
1195,1356,161,-1276,517,758,-1498,-2152,-146,1449,1893,2030
1132,1312,180,-1222,475,746,-1468,-2034,-117,1454,1883,2015
1024,1263,239,-1144,392,751,-1415,-1888,-78,1439,1844,1971
902,1205,302,-1054,300,753,-1312,-1717,-19,1395,1776,1883
761,1073,312,-917,224,692,-1176,-1532,-19,1239,1586,1688
600,839,239,-719,180,539,-971,-1307,-92,941,1254,1356
395,517,122,-456,136,319,-722,-1058,-239,512,795,936
200,214,14,-207,92,114,-483,-844,-400,87,351,527
-4,0,4,2,-4,2,-268,-668,-468,-234,-9,185
-185,-126,58,156,-122,-34,-92,-517,-458,-390,-234,-68
-244,-165,78,204,-161,-43,-19,-405,-390,-400,-292,-146
-214,-136,78,175,-146,-29,-9,-322,-326,-331,-234,-117
-200,-122,78,161,-139,-21,9,-268,-278,-278,-209,-126
-200,-122,78,161,-139,-21,29,-204,-229,-253,-204,-146
-180,-112,68,146,-124,-21,39,-161,-190,-219,-185,-126
-165,-107,58,136,-112,-24,48,-112,-151,-185,-161,-117
-146,-107,39,126,-92,-34,58,-73,-146,-170,-161,-126
-126,-107,19,117,-73,-43,82,-29,-122,-165,-146,-112
-126,-107,19,117,-73,-43,102,-4,-97,-146,-136,-112
-126,-112,14,119,-70,-48,107,24,-92,-141,-141,-122
-126,-112,14,119,-70,-48,102,29,-78,-136,-136,-126
-122,-112,9,117,-65,-51,102,39,-63,-122,-131,-126
-122,-112,9,117,-65,-51,102,48,-58,-112,-126,-117
-122,-112,9,117,-65,-51,102,58,-48,-97,-122,-117
-122,-112,9,117,-65,-51,112,73,-48,-97,-122,-117
-122,-112,9,117,-65,-51,117,78,-48,-97,-117,-117
-122,-112,9,117,-65,-51,117,87,-43,-107,-117,-122
-122,-112,9,117,-65,-51,117,87,-43,-102,-117,-122
-122,-112,9,117,-65,-51,126,92,-39,-102,-117,-126
-122,-112,9,117,-65,-51,126,92,-34,-102,-117,-126
-122,-112,9,117,-65,-51,126,82,-29,-87,-112,-126
-122,-112,9,117,-65,-51,126,92,-24,-87,-112,-126
-122,-107,14,114,-68,-46,131,92,-24,-82,-112,-126
-122,-107,14,114,-68,-46,131,92,-24,-82,-112,-122
-122,-107,14,114,-68,-46,131,92,-14,-92,-102,-122
-122,-107,14,114,-68,-46,131,92,-14,-87,-102,-122
-122,-107,14,114,-68,-46,131,97,-14,-87,-102,-122
-122,-107,14,114,-68,-46,131,97,-14,-87,-102,-122
-122,-107,14,114,-68,-46,136,107,-9,-78,-112,-122
-122,-107,14,114,-68,-46,136,107,-9,-78,-107,-122
-122,-107,14,114,-68,-46,136,107,-9,-78,-107,-122
-122,-107,14,114,-68,-46,136,107,-4,-78,-107,-122
-122,-107,14,114,-68,-46,136,102,-4,-73,-97,-122
-122,-107,14,114,-68,-46,136,102,-4,-73,-97,-122
-122,-102,19,112,-70,-41,136,102,-4,-73,-97,-122
-122,-102,19,112,-70,-41,136,102,-4,-73,-97,-122
-122,-102,19,112,-70,-41,126,112,-4,-73,-97,-122
-122,-97,24,109,-73,-36,126,112,0,-73,-97,-122
-122,-97,24,109,-73,-36,126,112,0,-68,-97,-122
-122,-97,24,109,-73,-36,126,112,0,-68,-97,-122
-117,-97,19,107,-68,-39,126,112,4,-78,-97,-122
-117,-92,24,104,-70,-34,126,112,4,-78,-92,-122
-122,-92,29,107,-75,-31,126,112,4,-78,-92,-122
-122,-92,29,107,-75,-31,126,112,4,-78,-92,-122
-122,-92,29,107,-75,-31,126,102,9,-68,-92,-112
-122,-92,29,107,-75,-31,126,102,9,-68,-92,-112
-122,-87,34,104,-78,-26,126,102,9,-68,-92,-112
-122,-87,34,104,-78,-26,126,102,9,-63,-92,-112
-122,-87,34,104,-78,-26,131,112,24,-63,-92,-112
-122,-82,39,102,-80,-21,131,112,24,-63,-92,-107
-122,-82,39,102,-80,-21,131,112,24,-63,-87,-107
-122,-82,39,102,-80,-21,131,112,29,-58,-87,-107
-122,-78,43,100,-82,-17,122,112,34,-68,-97,-117
-122,-78,43,100,-82,-17,122,112,34,-68,-97,-117
-122,-78,43,100,-82,-17,122,112,34,-68,-97,-117
-122,-78,43,100,-82,-17,122,117,34,-68,-92,-117
-122,-68,53,95,-87,-7,122,107,24,-58,-92,-117
-122,-68,53,95,-87,-7,122,107,29,-53,-92,-117
-122,-68,53,95,-87,-7,122,107,34,-53,-92,-117
-122,-63,58,92,-90,-2,122,112,34,-53,-92,-117
-122,-73,48,97,-85,-12,122,112,34,-53,-92,-117
-122,-68,53,95,-87,-7,122,112,34,-53,-92,-112
-122,-68,53,95,-87,-7,122,112,39,-48,-87,-112
-122,-68,53,95,-87,-7,117,112,43,-48,-87,-112
-122,-63,58,92,-90,-2,117,122,43,-48,-87,-102
-122,-63,58,92,-90,-2,117,126,43,-48,-87,-102
-122,-63,58,92,-90,-2,117,126,48,-48,-82,-102
-122,-58,63,90,-92,2,117,126,53,-43,-82,-102
-122,-48,73,85,-97,12,117,126,43,-53,-82,-102
-122,-48,73,85,-97,12,117,126,53,-53,-82,-102
-122,-48,73,85,-97,12,117,136,53,-53,-82,-102
-122,-48,73,85,-97,12,117,136,53,-53,-82,-97
-126,-53,73,90,-100,9,117,141,63,-39,-82,-107
-126,-53,73,90,-100,9,117,141,68,-39,-82,-107
-126,-48,78,87,-102,14,117,141,68,-39,-82,-107
-126,-43,82,85,-104,19,117,141,73,-39,-82,-107
-126,-34,92,80,-109,29,126,146,63,-34,-73,-107
-126,-34,92,80,-109,29,126,146,63,-34,-73,-107
-126,-34,92,80,-109,29,126,146,73,-34,-73,-107
-126,-34,92,80,-109,29,126,156,78,-34,-73,-107
-126,-29,97,78,-112,34,117,161,87,-34,-82,-102
-126,-24,102,75,-114,39,117,161,87,-34,-78,-102
-131,-24,107,78,-119,41,117,161,87,-34,-78,-102
-131,-24,107,78,-119,41,117,170,92,-34,-78,-97
-141,-29,112,85,-126,41,126,175,92,-34,-82,-97
-141,-19,122,80,-131,51,131,180,102,-34,-82,-97
-141,-19,122,80,-131,51,131,180,107,-34,-82,-97
-141,-19,122,80,-131,51,131,185,107,-34,-82,-97
-136,-4,131,70,-134,63,131,200,107,-34,-82,-107
-136,4,141,65,-139,73,131,204,117,-34,-82,-112
-136,4,141,65,-139,73,131,209,117,-34,-82,-112
-136,4,141,65,-139,73,131,209,117,-34,-82,-112
-136,4,141,65,-139,73,131,209,117,-34,-87,-112
-146,9,156,68,-151,82,136,209,122,-39,-87,-112
-146,9,156,68,-151,82,136,219,122,-39,-87,-112
-151,14,165,68,-158,90,141,219,126,-48,-92,-112
-151,4,156,73,-153,80,141,219,126,-53,-92,-112
-156,9,165,73,-161,87,141,224,126,-58,-92,-117
-161,9,170,75,-165,90,141,224,126,-68,-97,-126
-165,9,175,78,-170,92,141,224,126,-73,-102,-131
-170,19,190,75,-180,104,136,224,122,-63,-107,-131
-175,19,195,78,-185,107,136,224,117,-73,-112,-136
-180,19,200,80,-190,109,136,224,112,-87,-117,-136
-180,19,200,80,-190,109,141,224,112,-97,-126,-141
-185,19,204,82,-195,112,151,224,97,-117,-131,-136
-200,14,214,92,-207,114,156,219,87,-136,-146,-151
-204,9,214,97,-209,112,161,219,82,-146,-156,-151
-209,4,214,102,-212,109,165,209,73,-161,-165,-156
-214,0,214,107,-214,107,156,209,78,-165,-175,-175
-219,-4,214,112,-217,104,161,204,73,-175,-185,-185
-234,-9,224,122,-229,107,161,200,58,-190,-195,-185
-239,-14,224,126,-231,104,165,195,39,-204,-214,-200
-248,-19,229,134,-239,104,175,180,24,-239,-214,-200
-258,-24,234,141,-246,104,180,165,14,-253,-229,-209
-263,-39,224,151,-244,92,180,161,0,-273,-244,-214
-273,-43,229,158,-251,92,180,151,-14,-292,-258,-224
-283,-63,219,173,-251,78,185,141,-19,-302,-273,-234
-292,-73,219,183,-256,73,185,126,-34,-322,-287,-244
-302,-82,219,192,-261,68,190,112,-58,-341,-302,-258
-307,-92,214,200,-261,61,190,97,-73,-370,-317,-268
-317,-102,214,209,-265,56,185,87,-102,-385,-331,-283
-326,-122,204,224,-265,41,185,73,-126,-414,-346,-287
-326,-136,190,231,-258,26,185,63,-141,-429,-361,-307
-341,-151,190,246,-265,19,195,58,-161,-448,-385,-312
-341,-156,185,248,-263,14,204,39,-170,-468,-395,-341
-346,-170,175,258,-261,2,204,29,-190,-488,-409,-346
-351,-185,165,268,-258,-9,204,19,-204,-502,-419,-356
-356,-200,156,278,-256,-21,209,19,-219,-512,-424,-361
-356,-209,146,283,-251,-31,204,19,-234,-522,-439,-361
-356,-219,136,287,-246,-41,204,14,-244,-531,-444,-370
-351,-229,122,290,-236,-53,204,14,-258,-541,-453,-380
-351,-239,112,295,-231,-63,204,14,-263,-541,-453,-380
-346,-258,87,302,-217,-85,204,19,-283,-541,-458,-395
-341,-268,73,305,-207,-97,204,19,-283,-541,-458,-395
-336,-273,63,305,-200,-104,200,24,-287,-541,-458,-395
-322,-273,48,297,-185,-112,200,24,-287,-541,-458,-390
-307,-273,34,290,-170,-119,195,29,-283,-517,-453,-370
-292,-273,19,283,-156,-126,190,39,-283,-502,-439,-370
-278,-273,4,275,-141,-134,180,43,-283,-488,-424,-361
-263,-273,-9,268,-126,-141,175,58,-273,-468,-400,-351
-248,-258,-9,253,-119,-134,161,58,-258,-463,-400,-336
-229,-248,-19,239,-104,-134,161,63,-244,-439,-385,-326
-214,-244,-29,229,-92,-136,146,68,-234,-419,-366,-317
-195,-239,-43,217,-75,-141,141,68,-224,-395,-351,-302
-175,-239,-63,207,-56,-151,131,78,-214,-370,-331,-283
-161,-224,-63,192,-48,-143,122,82,-200,-341,-307,-268
-146,-214,-68,180,-39,-141,112,87,-190,-317,-287,-248
-122,-204,-82,163,-19,-143,102,87,-175,-287,-268,-234
-112,-185,-73,148,-19,-129,92,82,-156,-263,-239,-209
-97,-175,-78,136,-9,-126,87,78,-141,-244,-224,-190
-82,-161,-78,122,-2,-119,78,73,-126,-219,-204,-180
-68,-151,-82,109,7,-117,68,68,-112,-204,-185,-165
-48,-141,-92,95,21,-117,58,68,-107,-180,-175,-151
-34,-126,-92,80,29,-109,48,68,-97,-161,-151,-131
-29,-117,-87,73,29,-102,43,68,-87,-136,-131,-117
-14,-117,-102,65,43,-109,34,68,-78,-117,-122,-102
-4,-107,-102,56,48,-104,29,68,-73,-97,-102,-87
4,-92,-97,43,51,-95,29,68,-68,-82,-92,-82
4,-82,-87,39,46,-85,19,63,-58,-87,-82,-73
9,-78,-87,34,48,-82,14,63,-53,-82,-73,-63
19,-78,-97,29,58,-87,14,48,-39,-63,-63,-68
19,-68,-87,24,53,-78,9,48,-34,-53,-53,-58
24,-63,-87,19,56,-75,4,48,-29,-39,-43,-48
24,-58,-82,17,53,-70,0,48,-24,-24,-34,-39
24,-53,-78,14,51,-65,-4,43,-29,-24,-29,-29
29,-48,-78,9,53,-63,-4,39,-24,-24,-24,-24
29,-48,-78,9,53,-63,-9,39,-19,-19,-19,-19
29,-39,-68,4,48,-53,-9,39,-14,-14,-14,-14
39,-39,-78,0,58,-58,-9,43,-4,-9,-9,-19
39,-39,-78,0,58,-58,-9,43,-4,-4,-4,-14
39,-39,-78,0,58,-58,-9,43,0,0,0,-14
39,-39,-78,0,58,-58,-9,43,0,4,4,-9
39,-29,-68,-4,53,-48,-14,29,0,19,4,-9
43,-29,-73,-7,58,-51,-14,29,0,24,4,-9
43,-29,-73,-7,58,-51,-19,29,4,24,9,-9
43,-24,-68,-9,56,-46,-19,29,9,24,9,-4
43,-14,-58,-14,51,-36,-19,29,9,14,9,0
43,-14,-58,-14,51,-36,-19,29,9,19,9,0
43,-14,-58,-14,51,-36,-19,29,9,19,14,0
43,-9,-53,-17,48,-31,-19,29,9,19,14,0
34,-19,-53,-7,43,-36,-19,39,9,19,14,0
34,-19,-53,-7,43,-36,-19,39,14,24,14,4
34,-19,-53,-7,43,-36,-19,39,19,24,19,4
39,-19,-58,-9,48,-39,-19,39,19,24,19,4
39,-19,-58,-9,48,-39,-19,39,9,29,19,14
39,-14,-53,-12,46,-34,-19,39,9,29,19,14
39,-9,-48,-14,43,-29,-19,39,9,29,19,14
39,-9,-48,-14,43,-29,-24,39,9,29,24,14
39,-9,-48,-14,43,-29,-24,39,9,39,14,4
39,-9,-48,-14,43,-29,-19,39,14,39,14,4
39,-9,-48,-14,43,-29,-19,39,14,39,14,4
34,-9,-43,-12,39,-26,-19,39,14,43,14,4
34,-9,-43,-12,39,-26,-19,29,24,34,14,9
34,-9,-43,-12,39,-26,-19,29,24,34,14,9
34,-9,-43,-12,39,-26,-19,29,24,34,14,9
29,-9,-39,-9,34,-24,-19,29,24,34,14,9
29,0,-29,-14,29,-14,-14,39,29,34,14,9
29,0,-29,-14,29,-14,-14,39,29,34,14,9
29,0,-29,-14,29,-14,-14,39,29,34,14,4
29,0,-29,-14,29,-14,-14,39,29,34,14,4
39,-9,-48,-14,43,-29,-14,39,19,34,14,4
39,-9,-48,-14,43,-29,-19,39,19,34,14,4
34,-4,-39,-14,36,-21,-19,39,19,34,14,4
34,-4,-39,-14,36,-21,-14,39,19,34,14,4
34,-14,-48,-9,41,-31,-14,29,29,34,24,4
29,-14,-43,-7,36,-29,-14,29,29,34,24,0
29,-14,-43,-7,36,-29,-14,29,29,34,19,0
29,-14,-43,-7,36,-29,-14,29,29,34,19,0
19,-14,-34,-2,26,-24,-14,39,29,34,19,0
19,-14,-34,-2,26,-24,-14,39,29,34,19,0
14,-14,-29,0,21,-21,-9,39,29,29,19,0
14,-19,-34,2,24,-26,-9,39,29,29,19,0
24,-9,-34,-7,29,-21,-9,48,19,29,9,0
19,-9,-29,-4,24,-19,-9,48,19,24,9,-4
19,-9,-29,-4,24,-19,-9,48,19,24,9,-4
19,-9,-29,-4,24,-19,-9,48,19,24,4,-4
19,-9,-29,-4,24,-19,-9,39,19,24,14,-4
19,-9,-29,-4,24,-19,-9,39,19,19,9,-9
14,-9,-24,-2,19,-17,-4,39,19,19,9,-9
14,-9,-24,-2,19,-17,-4,39,19,19,9,-9
4,-9,-14,2,9,-12,-4,39,19,29,0,-9
4,-14,-19,4,12,-17,-4,43,19,29,0,-9
4,-14,-19,4,12,-17,-4,43,14,19,0,-9
4,-14,-19,4,12,-17,0,43,14,19,0,-9
4,-19,-24,7,14,-21,0,43,24,9,4,-14
4,-19,-24,7,14,-21,0,43,24,9,4,-14
4,-19,-24,7,14,-21,0,43,19,9,0,-14
0,-19,-19,9,9,-19,4,43,19,4,0,-19
0,-19,-19,9,9,-19,4,43,9,4,0,-29
0,-19,-19,9,9,-19,4,43,9,4,-4,-29
0,-24,-24,12,12,-24,4,43,14,4,-4,-29
-4,-24,-19,14,7,-21,4,43,14,0,-14,-29
-4,-29,-24,17,9,-26,4,43,4,9,-24,-34
-4,-29,-24,17,9,-26,4,43,4,9,-19,-34
-4,-29,-24,17,9,-26,4,43,4,4,-19,-34
-4,-29,-24,17,9,-26,9,43,0,4,-19,-34
-4,-34,-29,19,12,-31,9,43,0,4,-24,-29
-4,-34,-29,19,12,-31,9,43,0,4,-24,-29
-4,-34,-29,19,12,-31,9,43,0,0,-24,-29
-4,-39,-34,21,14,-36,9,43,-9,-4,-24,-29
-9,-39,-29,24,9,-34,9,43,-9,-14,-24,-29
-9,-39,-29,24,9,-34,9,43,-4,-14,-24,-34
-9,-39,-29,24,9,-34,9,43,-4,-14,-24,-34
-4,-39,-34,21,14,-36,9,43,-4,-14,-24,-34
-4,-48,-43,26,19,-46,9,43,-9,-14,-19,-34
-4,-48,-43,26,19,-46,9,43,-9,-14,-19,-39
-4,-48,-43,26,19,-46,9,43,-9,-14,-19,-39
-4,-48,-43,26,19,-46,9,43,-9,-14,-19,-39
-4,-48,-43,26,19,-46,9,43,-9,-4,-29,-39
-4,-48,-43,26,19,-46,9,43,-14,-9,-29,-39
-4,-53,-48,29,21,-51,9,43,-14,-9,-29,-39
-4,-53,-48,29,21,-51,9,43,-14,-9,-34,-39
-4,-43,-39,24,17,-41,9,43,-14,-19,-34,-39
-4,-43,-39,24,17,-41,9,43,-14,-19,-34,-39
-4,-43,-39,24,17,-41,9,39,-14,-19,-34,-39
-4,-43,-39,24,17,-41,9,39,-14,-19,-34,-39
-4,-43,-39,24,17,-41,9,39,-14,-19,-24,-39
-4,-48,-43,26,19,-46,9,39,-14,-19,-24,-39
-4,-48,-43,26,19,-46,9,39,-14,-19,-24,-39
-4,-48,-43,26,19,-46,9,39,-19,-19,-24,-34
0,-48,-48,24,24,-48,9,29,-9,-9,-24,-34
0,-48,-48,24,24,-48,9,29,-9,-9,-24,-34
0,-48,-48,24,24,-48,9,29,-9,-9,-24,-34
0,-48,-48,24,24,-48,4,29,-9,-9,-24,-34
0,-48,-48,24,24,-48,4,34,-19,-14,-24,-34
0,-48,-48,24,24,-48,4,34,-19,-14,-24,-34
0,-48,-48,24,24,-48,4,34,-19,-14,-24,-34
0,-48,-48,24,24,-48,4,34,-19,-9,-24,-34
0,-48,-48,24,24,-48,4,34,-19,-19,-24,-34
0,-48,-48,24,24,-48,4,34,-19,-19,-24,-34
0,-48,-48,24,24,-48,4,34,-19,-19,-24,-34
0,-48,-48,24,24,-48,4,34,-19,-19,-19,-34
0,-58,-58,29,29,-58,4,34,-19,-9,-29,-34
0,-58,-58,29,29,-58,4,34,-19,-9,-29,-34
4,-58,-63,26,34,-61,4,34,-19,-9,-29,-34
4,-58,-63,26,34,-61,4,34,-19,-9,-29,-34
4,-58,-63,26,34,-61,4,24,-19,-4,-19,-34
4,-58,-63,26,34,-61,4,24,-19,-4,-19,-34
4,-58,-63,26,34,-61,4,24,-19,-9,-19,-34
4,-58,-63,26,34,-61,4,24,-19,-9,-19,-34
4,-48,-53,21,29,-51,4,24,-19,-9,-29,-34
4,-48,-53,21,29,-51,4,24,-19,-9,-29,-29
4,-48,-53,21,29,-51,4,24,-19,-4,-29,-29
4,-48,-53,21,29,-51,4,24,-19,-4,-29,-29
4,-48,-53,21,29,-51,4,24,-19,-14,-29,-29
4,-48,-53,21,29,-51,4,24,-19,-14,-29,-29
4,-48,-53,21,29,-51,4,24,-19,-14,-29,-29
4,-48,-53,21,29,-51,4,19,-19,-14,-29,-29
4,-48,-53,21,29,-51,4,29,-19,-4,-19,-29
4,-48,-53,21,29,-51,4,29,-19,-4,-19,-29
4,-48,-53,21,29,-51,4,34,-19,-4,-19,-29
4,-48,-53,21,29,-51,4,34,-19,-4,-19,-29
4,-58,-63,26,34,-61,4,24,-19,-4,-24,-29
4,-58,-63,26,34,-61,4,24,-19,-4,-24,-29
4,-58,-63,26,34,-61,0,24,-19,-4,-24,-29
4,-58,-63,26,34,-61,0,19,-19,-4,-29,-29
14,-58,-73,21,43,-65,0,19,-19,-14,-29,-29
14,-58,-73,21,43,-65,0,19,-19,-14,-29,-29
14,-58,-73,21,43,-65,0,19,-19,-9,-29,-29
14,-58,-73,21,43,-65,4,19,-19,-9,-29,-29
4,-58,-63,26,34,-61,-4,19,-19,-9,-19,-29
4,-63,-68,29,36,-65,-4,24,-19,-9,-19,-29
4,-63,-68,29,36,-65,-4,24,-19,-9,-19,-29
4,-58,-63,26,34,-61,-4,24,-19,-9,-14,-29
14,-48,-63,17,39,-56,4,24,-9,-14,-14,-29
9,-48,-58,19,34,-53,0,29,-19,-9,-19,-19
9,-48,-58,19,34,-53,0,29,-19,-9,-19,-29
9,-48,-58,19,34,-53,0,29,-19,-9,-19,-29
9,-48,-58,19,34,-53,0,29,-19,-9,-19,-29
9,-48,-58,19,34,-53,0,29,-19,-9,-19,-29
9,-48,-58,19,34,-53,4,29,-19,0,-19,-29
9,-48,-58,19,34,-53,4,29,-19,0,-19,-29
9,-48,-58,19,34,-53,0,29,-19,0,-19,-29
9,-48,-58,19,34,-53,0,29,-19,0,-19,-29
9,-48,-58,19,34,-53,4,19,-19,-9,-29,-29
9,-48,-58,19,34,-53,4,19,-19,-9,-29,-29
9,-48,-58,19,34,-53,0,19,-19,-9,-29,-29
9,-48,-58,19,34,-53,0,19,-19,-9,-29,-29
9,-48,-58,19,34,-53,9,24,-19,-4,-29,-29
9,-48,-58,19,34,-53,9,24,-19,-4,-29,-29
9,-48,-58,19,34,-53,9,24,-19,-4,-29,-29
9,-48,-58,19,34,-53,9,24,-19,-4,-29,-29
9,-48,-58,19,34,-53,0,24,-19,-4,-19,-29
9,-43,-53,17,31,-48,4,24,-14,-4,-19,-24
9,-43,-53,17,31,-48,4,24,-14,-4,-19,-24
9,-43,-53,17,31,-48,4,24,-14,-4,-19,-24
9,-43,-53,17,31,-48,4,34,-14,-4,-19,-24
14,-43,-58,14,36,-51,4,34,-14,-4,-19,-24
24,-43,-68,9,46,-56,4,34,-14,-4,-19,-24
29,-43,-73,7,51,-58,4,43,-9,-4,-19,-24
29,-43,-73,7,51,-58,9,48,-9,4,-9,-24
34,-34,-68,0,51,-51,9,53,-9,4,-4,-19
48,-29,-78,-9,63,-53,14,68,-4,4,-4,-19
58,-24,-82,-17,70,-53,14,78,0,14,0,-19
78,-9,-87,-34,82,-48,14,107,4,19,0,-9
92,4,-87,-48,90,-41,14,122,19,24,4,-4
97,4,-92,-51,95,-43,9,126,29,34,9,0
112,14,-97,-63,104,-41,0,126,34,39,14,4
136,19,-117,-78,126,-48,-9,126,39,43,19,14
146,19,-126,-82,136,-53,-14,131,43,48,24,19
156,29,-126,-92,141,-48,-19,131,48,53,29,24
165,48,-117,-107,141,-34,-39,131,58,68,43,29
175,73,-102,-124,139,-14,-63,131,87,97,63,53
185,97,-87,-141,136,4,-78,131,92,102,78,68
195,107,-87,-151,141,9,-102,131,97,112,82,78
204,107,-97,-156,151,4,-117,122,97,112,82,87
219,122,-97,-170,158,12,-126,126,97,107,87,82
219,126,-92,-173,156,17,-131,122,97,107,87,82
219,126,-92,-173,156,17,-131,97,87,107,87,82
209,126,-82,-168,146,21,-141,63,73,97,87,82
185,112,-73,-148,129,19,-131,29,48,87,78,73
185,92,-92,-139,139,0,-122,29,39,73,63,63
175,68,-107,-122,141,-19,-112,29,29,63,53,53
170,53,-117,-112,143,-31,-102,34,19,48,43,43
165,34,-131,-100,148,-48,-102,24,0,34,24,34
156,14,-141,-85,148,-63,-92,14,-19,19,14,24
146,4,-141,-75,143,-68,-92,4,-24,19,9,19
146,4,-141,-75,143,-68,-92,0,-24,14,9,19
136,0,-136,-68,136,-68,-87,-4,-19,4,9,14
117,-4,-122,-56,119,-63,-82,-9,-19,4,9,14
102,-4,-107,-48,104,-56,-78,-9,-14,4,9,9
92,-9,-102,-41,97,-56,-68,-4,-14,4,4,4
87,-19,-107,-34,97,-63,-58,4,-14,4,4,-4
73,-34,-107,-19,90,-70,-48,9,-24,-9,-4,-19
58,-53,-112,-2,85,-82,-39,14,-34,-19,-19,-29
43,-58,-102,7,73,-80,-29,19,-34,-19,-24,-34
24,-68,-92,21,58,-80,-19,19,-29,-24,-34,-34
14,-73,-87,29,51,-80,-19,19,-29,-24,-29,-34
0,-78,-78,39,39,-78,-19,4,-34,-24,-29,-34
-4,-78,-73,41,34,-75,-19,-9,-34,-29,-29,-34
-9,-68,-58,39,24,-63,-9,-9,-34,-19,-29,-43
-9,-63,-53,36,21,-58,-9,-4,-34,-19,-29,-43
-9,-63,-53,36,21,-58,-9,-4,-34,-19,-29,-43
-9,-63,-53,36,21,-58,-9,-4,-34,-19,-29,-48
-9,-68,-58,39,24,-63,-9,-4,-34,-19,-29,-39
-9,-68,-58,39,24,-63,-4,0,-34,-19,-29,-39
-9,-68,-58,39,24,-63,-4,4,-34,-19,-29,-39
-9,-68,-58,39,24,-63,0,4,-34,-19,-29,-39
-9,-68,-58,39,24,-63,0,4,-24,-29,-29,-34
-14,-68,-53,41,19,-61,0,4,-19,-24,-29,-34
-14,-68,-53,41,19,-61,0,4,-19,-24,-29,-34
-14,-68,-53,41,19,-61,4,0,-19,-24,-29,-39
-24,-78,-53,51,14,-65,-4,9,-29,-14,-29,-39
-24,-78,-53,51,14,-65,-4,9,-29,-19,-29,-39
-29,-78,-48,53,9,-63,-4,9,-29,-19,-29,-39
-29,-78,-48,53,9,-63,-4,9,-29,-19,-29,-39
-19,-78,-58,48,19,-68,-4,0,-29,-24,-29,-39
-19,-78,-58,48,19,-68,-4,0,-29,-24,-29,-39
-19,-78,-58,48,19,-68,-4,4,-29,-24,-29,-39
-19,-78,-58,48,19,-68,-4,4,-29,-24,-29,-39
-19,-68,-48,43,14,-58,4,4,-29,-14,-19,-29
-19,-68,-48,43,14,-58,4,4,-29,-14,-19,-29
-19,-78,-58,48,19,-68,4,4,-29,-14,-19,-29
-19,-68,-48,43,14,-58,4,14,-29,-14,-19,-29
-19,-68,-48,43,14,-58,0,14,-29,-9,-19,-29
-14,-58,-43,36,14,-51,0,19,-14,4,-4,-19
0,-58,-58,29,29,-58,0,48,24,39,9,-14
24,-34,-58,4,41,-46,9,92,82,82,34,-9
53,14,-39,-34,46,-12,0,122,156,156,78,14
102,82,-19,-92,61,31,-39,112,248,263,175,87
185,200,14,-192,85,107,-107,73,361,400,292,195
283,346,63,-314,109,204,-165,53,522,585,453,317
409,497,87,-453,161,292,-229,92,683,790,634,458
541,673,131,-607,204,402,-317,19,800,985,814,629
683,897,214,-790,234,556,-483,-248,902,1195,1039,839
819,1122,302,-971,258,712,-663,-575,976,1395,1259,1058
971,1278,307,-1124,331,793,-829,-844,956,1512,1420,1239
1122,1390,268,-1256,427,829,-1019,-1156,858,1571,1546,1405
1249,1522,273,-1385,488,897,-1224,-1527,741,1625,1703,1605
1293,1600,307,-1446,492,954,-1371,-1854,561,1629,1810,1776
1312,1542,229,-1427,541,885,-1439,-2069,287,1522,1815,1864
1312,1434,122,-1373,595,778,-1493,-2215,0,1400,1786,1898
1273,1361,87,-1317,592,724,-1512,-2283,-146,1346,1786,1942
1215,1337,122,-1276,546,729,-1498,-2249,-165,1351,1795,1952
1161,1302,141,-1232,509,722,-1468,-2142,-136,1356,1795,1956
1083,1263,180,-1173,451,722,-1434,-2005,-97,1351,1776,1932
971,1224,253,-1098,358,739,-1361,-1854,-48,1337,1737,1873
839,1132,292,-985,273,712,-1244,-1668,-9,1249,1615,1747
678,956,278,-817,200,617,-1088,-1454,-34,1039,1371,1493
483,683,200,-583,141,441,-858,-1224,-141,688,980,1112
287,361,73,-324,107,217,-600,-980,-312,263,536,692
92,87,-4,-90,48,41,-375,-766,-429,-97,136,331
-117,-78,39,97,-78,-19,-170,-595,-458,-322,-156,29
-244,-156,87,200,-165,-34,-48,-463,-409,-400,-283,-146
-234,-156,78,195,-156,-39,-9,-361,-346,-341,-253,-156
-200,-141,58,170,-129,-41,0,-297,-278,-278,-200,-126
-209,-131,78,170,-143,-26,19,-244,-229,-253,-195,-136
-200,-112,87,156,-143,-12,29,-190,-200,-229,-185,-136
-175,-107,68,141,-122,-19,39,-141,-161,-204,-161,-126
-156,-107,48,131,-102,-29,58,-92,-136,-170,-141,-117
-156,-97,58,126,-107,-19,63,-48,-122,-146,-136,-122
-136,-87,48,112,-92,-19,73,-24,-107,-136,-136,-131
-126,-92,34,109,-80,-29,78,-4,-102,-141,-131,-131
-126,-102,24,114,-75,-39,92,19,-87,-136,-126,-136
-122,-102,19,112,-70,-41,92,29,-73,-122,-122,-126
-122,-102,19,112,-70,-41,92,29,-58,-122,-117,-126
-122,-102,19,112,-70,-41,92,39,-48,-107,-112,-126
-122,-102,19,112,-70,-41,102,53,-48,-107,-112,-126
-122,-102,19,112,-70,-41,107,58,-48,-107,-107,-126
-122,-102,19,112,-70,-41,107,78,-43,-97,-107,-122
-122,-102,19,112,-70,-41,107,78,-43,-92,-107,-122
-122,-102,19,112,-70,-41,117,82,-39,-92,-107,-126
-122,-102,19,112,-70,-41,117,82,-34,-92,-107,-126
-122,-102,19,112,-70,-41,117,73,-39,-87,-102,-126
-122,-102,19,112,-70,-41,117,82,-34,-87,-102,-126
-122,-97,24,109,-73,-36,122,82,-34,-82,-102,-126
-122,-97,24,109,-73,-36,122,82,-34,-82,-102,-122
-122,-97,24,109,-73,-36,122,82,-24,-82,-102,-122
-122,-97,24,109,-73,-36,122,82,-24,-78,-102,-122
-122,-97,24,109,-73,-36,122,87,-24,-78,-102,-122
-122,-97,24,109,-73,-36,122,87,-24,-78,-102,-122
-131,-97,34,114,-82,-31,117,97,-9,-78,-102,-122
-131,-97,34,114,-82,-31,117,97,-9,-78,-97,-122
-131,-97,34,114,-82,-31,117,97,-9,-78,-97,-122
-131,-97,34,114,-82,-31,117,97,-4,-78,-97,-122
-122,-97,24,109,-73,-36,126,92,-14,-82,-97,-122
-122,-97,24,109,-73,-36,126,92,-14,-82,-97,-122
-122,-92,29,107,-75,-31,126,92,-14,-82,-97,-122
-122,-92,29,107,-75,-31,126,92,-14,-82,-97,-122
-122,-92,29,107,-75,-31,117,92,-14,-73,-87,-112
-122,-87,34,104,-78,-26,117,92,-9,-73,-87,-112
-122,-87,34,104,-78,-26,117,92,-9,-68,-87,-112
-122,-87,34,104,-78,-26,117,92,-9,-68,-87,-112
-117,-78,39,97,-78,-19,126,102,-4,-78,-97,-122
-117,-73,43,95,-80,-14,126,102,-4,-78,-92,-122
-122,-73,48,97,-85,-12,126,102,-4,-78,-92,-122
-122,-73,48,97,-85,-12,126,102,-4,-78,-92,-122
-122,-73,48,97,-85,-12,117,102,0,-68,-92,-122
-122,-73,48,97,-85,-12,117,102,0,-68,-92,-122
-122,-68,53,95,-87,-7,117,102,0,-68,-92,-122
-122,-68,53,95,-87,-7,117,102,0,-63,-92,-122
-122,-78,43,100,-82,-17,112,102,4,-73,-92,-122
-122,-73,48,97,-85,-12,112,102,4,-73,-92,-117
-122,-73,48,97,-85,-12,112,102,4,-73,-87,-117
-122,-73,48,97,-85,-12,112,102,9,-68,-87,-117
-122,-68,53,95,-87,-7,122,102,14,-58,-87,-117
-122,-68,53,95,-87,-7,122,102,14,-58,-87,-117
-122,-68,53,95,-87,-7,122,102,14,-58,-87,-117
-122,-68,53,95,-87,-7,122,107,14,-58,-82,-117
-122,-58,63,90,-92,2,122,107,14,-58,-82,-107
-122,-58,63,90,-92,2,122,107,19,-53,-82,-107
-122,-58,63,90,-92,2,122,107,24,-53,-82,-107
-122,-53,68,87,-95,7,122,112,24,-53,-82,-107
-122,-63,58,92,-90,-2,122,102,24,-53,-82,-107
-122,-58,63,90,-92,2,122,102,24,-53,-82,-102
-122,-58,63,90,-92,2,122,102,29,-48,-78,-102
-122,-58,63,90,-92,2,117,102,34,-48,-78,-102
-122,-53,68,87,-95,7,117,112,34,-48,-68,-102
-122,-53,68,87,-95,7,117,117,34,-48,-68,-102
-122,-53,68,87,-95,7,117,117,39,-48,-63,-102
-122,-48,73,85,-97,12,117,117,43,-43,-63,-102
-122,-39,82,80,-102,21,117,117,43,-43,-73,-102
-122,-39,82,80,-102,21,117,117,53,-43,-73,-102
-122,-39,82,80,-102,21,117,126,53,-43,-73,-102
-122,-39,82,80,-102,21,117,126,53,-43,-73,-97
-126,-43,82,85,-104,19,117,131,53,-39,-73,-107
-126,-43,82,85,-104,19,117,131,58,-39,-73,-107
-126,-39,87,82,-107,24,117,131,58,-39,-73,-107
-126,-34,92,80,-109,29,117,131,63,-39,-73,-107
-126,-34,92,80,-109,29,107,146,63,-34,-63,-107
-126,-34,92,80,-109,29,107,146,63,-34,-63,-107
-126,-34,92,80,-109,29,107,146,73,-34,-63,-107
-126,-34,92,80,-109,29,107,156,78,-34,-63,-107
-126,-29,97,78,-112,34,117,161,78,-34,-63,-112
-126,-24,102,75,-114,39,117,161,78,-34,-58,-112
-131,-24,107,78,-119,41,117,161,78,-34,-58,-112
-131,-24,107,78,-119,41,117,170,82,-34,-58,-107
-131,-19,112,75,-122,46,117,175,82,-24,-63,-107
-131,-9,122,70,-126,56,122,180,92,-24,-63,-107
-131,-9,122,70,-126,56,122,180,97,-24,-63,-107
-131,-9,122,70,-126,56,122,185,97,-24,-63,-107
-136,-4,131,70,-134,63,122,190,97,-24,-63,-107
-136,4,141,65,-139,73,122,195,107,-24,-63,-112
-136,4,141,65,-139,73,122,200,107,-24,-63,-112
-136,4,141,65,-139,73,122,200,107,-24,-63,-112
-136,4,141,65,-139,73,122,200,107,-24,-68,-102
-146,9,156,68,-151,82,126,200,112,-29,-68,-102
-146,9,156,68,-151,82,126,209,112,-29,-68,-102
-151,14,165,68,-158,90,131,209,117,-39,-73,-102
-151,24,175,63,-163,100,131,219,117,-43,-73,-102
-156,29,185,63,-170,107,131,224,117,-48,-73,-107
-161,29,190,65,-175,109,131,224,117,-58,-78,-117
-165,29,195,68,-180,112,131,224,117,-63,-82,-122
-170,19,190,75,-180,104,146,234,122,-58,-78,-112
-175,19,195,78,-185,107,146,234,117,-63,-82,-117
-180,19,200,80,-190,109,146,234,112,-73,-87,-117
-180,19,200,80,-190,109,151,234,112,-78,-97,-122
-185,19,204,82,-195,112,141,224,97,-87,-112,-126
-200,14,214,92,-207,114,146,219,87,-107,-126,-141
-204,9,214,97,-209,112,151,219,82,-117,-136,-141
-209,4,214,102,-212,109,156,209,73,-131,-146,-146
-214,9,224,102,-219,117,156,219,78,-146,-146,-156
-219,4,224,107,-222,114,161,214,73,-156,-156,-165
-234,0,234,117,-234,117,161,209,58,-170,-165,-165
-239,-4,234,122,-236,114,165,204,39,-185,-185,-180
-248,-19,229,134,-239,104,165,200,29,-200,-185,-190
-258,-24,234,141,-246,104,170,185,24,-214,-200,-200
-263,-39,224,151,-244,92,170,180,14,-234,-214,-204
-273,-43,229,158,-251,92,170,170,4,-253,-229,-214
-283,-43,239,163,-261,97,175,161,-9,-263,-244,-224
-292,-53,239,173,-265,92,175,146,-24,-283,-258,-234
-302,-63,239,183,-270,87,180,131,-48,-302,-273,-248
-307,-73,234,190,-270,80,180,117,-63,-331,-287,-258
-317,-82,234,200,-275,75,185,97,-82,-346,-302,-263
-326,-102,224,214,-275,61,185,82,-107,-375,-317,-268
-326,-117,209,222,-268,46,185,73,-122,-390,-331,-287
-341,-131,209,236,-275,39,195,68,-141,-409,-356,-292
-341,-146,195,244,-268,24,195,58,-161,-429,-366,-322
-346,-161,185,253,-265,12,195,48,-180,-448,-380,-326
-351,-175,175,263,-263,0,195,39,-195,-463,-390,-336
-356,-190,165,273,-261,-12,200,39,-209,-473,-395,-341
-366,-200,165,283,-265,-17,204,29,-224,-483,-409,-351
-366,-209,156,287,-261,-26,204,24,-234,-492,-414,-361
-361,-219,141,290,-251,-39,204,24,-248,-502,-424,-370
-361,-229,131,295,-246,-48,204,24,-253,-502,-424,-370
-356,-239,117,297,-236,-61,204,29,-273,-512,-439,-375
-351,-248,102,300,-226,-73,204,29,-273,-512,-439,-375
-346,-253,92,300,-219,-80,200,34,-278,-512,-439,-375
-331,-253,78,292,-204,-87,200,34,-278,-512,-439,-370
-317,-263,53,290,-185,-104,195,29,-273,-502,-444,-370
-302,-263,39,283,-170,-112,190,39,-273,-492,-429,-370
-287,-263,24,275,-156,-119,180,43,-273,-483,-414,-361
-273,-263,9,268,-141,-126,175,58,-263,-468,-390,-351
-248,-258,-9,253,-119,-134,170,58,-253,-463,-390,-346
-229,-248,-19,239,-104,-134,170,63,-244,-439,-375,-336
-214,-244,-29,229,-92,-136,156,68,-239,-419,-356,-326
-195,-239,-43,217,-75,-141,151,68,-234,-395,-341,-312
-185,-239,-53,212,-65,-146,141,68,-224,-380,-331,-292
-170,-224,-53,197,-58,-139,131,73,-209,-351,-307,-278
-156,-214,-58,185,-48,-136,122,78,-200,-326,-287,-258
-131,-204,-73,168,-29,-139,112,78,-185,-297,-268,-244
-122,-185,-63,153,-29,-124,92,78,-175,-273,-239,-229
-107,-175,-68,141,-19,-122,87,78,-161,-253,-224,-209
-92,-161,-68,126,-12,-114,78,78,-146,-229,-204,-200
-78,-151,-73,114,-2,-112,68,78,-131,-214,-185,-185
-58,-141,-82,100,12,-112,58,68,-126,-200,-175,-161
-43,-126,-82,85,19,-104,48,68,-117,-180,-151,-141
-39,-117,-78,78,19,-97,43,68,-107,-156,-131,-126
-24,-117,-92,70,34,-104,34,68,-97,-136,-122,-112
-14,-117,-102,65,43,-109,29,68,-73,-112,-102,-107
-4,-102,-97,53,46,-100,29,68,-68,-92,-92,-102
-4,-92,-87,48,41,-90,19,63,-58,-92,-82,-92
0,-87,-87,43,43,-87,14,63,-53,-82,-73,-82
9,-78,-87,34,48,-82,24,58,-48,-73,-63,-68
9,-68,-78,29,43,-73,19,58,-43,-63,-53,-58
14,-63,-78,24,46,-70,14,58,-39,-48,-43,-48
14,-58,-73,21,43,-65,9,58,-34,-34,-34,-39
24,-63,-87,19,56,-75,4,53,-29,-24,-39,-39
29,-58,-87,14,58,-73,4,48,-24,-24,-34,-34
29,-58,-87,14,58,-73,0,48,-19,-19,-29,-29
29,-48,-78,9,53,-63,0,48,-14,-14,-24,-24
39,-39,-78,0,58,-58,-9,34,-14,-9,-9,-19
39,-39,-78,0,58,-58,-9,34,-14,-4,-4,-14
39,-39,-78,0,58,-58,-9,34,-9,0,0,-14
39,-39,-78,0,58,-58,-9,34,-9,4,4,-9
39,-19,-58,-9,48,-39,-14,29,-19,0,4,-9
43,-19,-63,-12,53,-41,-14,29,-19,4,4,-9
43,-19,-63,-12,53,-41,-19,29,-14,4,9,-9
43,-14,-58,-14,51,-36,-19,29,-9,4,9,-4
34,-24,-58,-4,46,-41,-9,39,0,14,9,9
34,-24,-58,-4,46,-41,-9,39,0,19,9,9
34,-24,-58,-4,46,-41,-9,39,0,19,14,9
34,-19,-53,-7,43,-36,-9,39,0,19,14,9
34,-19,-53,-7,43,-36,-19,29,-9,19,14,0
34,-19,-53,-7,43,-36,-19,29,-4,24,14,4
34,-19,-53,-7,43,-36,-19,29,0,24,19,4
39,-19,-58,-9,48,-39,-19,29,0,24,19,4
39,-19,-58,-9,48,-39,-19,39,0,29,19,4
39,-14,-53,-12,46,-34,-19,39,0,29,19,4
39,-9,-48,-14,43,-29,-19,39,0,29,19,4
39,-9,-48,-14,43,-29,-24,39,0,29,24,4
39,-9,-48,-14,43,-29,-24,39,9,39,24,14
39,-9,-48,-14,43,-29,-19,39,14,39,24,14
39,-9,-48,-14,43,-29,-19,39,14,39,24,14
34,-9,-43,-12,39,-26,-19,39,14,43,24,14
34,-9,-43,-12,39,-26,-19,39,24,34,24,9
34,-9,-43,-12,39,-26,-19,39,24,34,24,9
34,-9,-43,-12,39,-26,-19,39,24,34,24,9
29,-9,-39,-9,34,-24,-19,39,24,34,24,9
29,-9,-39,-9,34,-24,-14,39,19,34,24,0
29,-9,-39,-9,34,-24,-14,39,19,34,24,0
29,-9,-39,-9,34,-24,-14,39,19,34,24,-4
29,-9,-39,-9,34,-24,-14,39,19,34,24,-4
29,-9,-39,-9,34,-24,-14,39,19,24,14,4
29,-9,-39,-9,34,-24,-19,39,19,24,14,4
24,-4,-29,-9,26,-17,-19,39,19,24,14,4
24,-4,-29,-9,26,-17,-14,39,19,24,14,4
24,-4,-29,-9,26,-17,-14,39,19,24,24,4
19,-4,-24,-7,21,-14,-14,39,19,24,24,0
19,-4,-24,-7,21,-14,-14,39,19,24,19,0
19,-4,-24,-7,21,-14,-14,39,19,24,19,0
19,-4,-24,-7,21,-14,-4,39,19,34,19,9
19,-4,-24,-7,21,-14,-4,39,19,34,19,9
14,-4,-19,-4,17,-12,0,39,19,29,19,9
14,-9,-24,-2,19,-17,0,39,19,29,19,9
14,-9,-24,-2,19,-17,0,39,19,29,19,0
9,-9,-19,0,14,-14,0,39,19,24,19,-4
9,-9,-19,0,14,-14,0,39,19,24,19,-4
9,-9,-19,0,14,-14,0,39,19,24,14,-4
9,-9,-19,0,14,-14,0,39,19,24,14,-4
9,-9,-19,0,14,-14,0,39,19,19,9,-9
4,-9,-14,2,9,-12,4,39,19,19,9,-9
4,-9,-14,2,9,-12,4,39,19,19,9,-9
-4,-9,-4,7,0,-7,4,39,19,19,9,-9
-4,-14,-9,9,2,-12,4,43,19,19,9,-9
-4,-14,-9,9,2,-12,4,43,14,9,9,-9
-4,-14,-9,9,2,-12,9,43,14,9,9,-9
-4,-19,-14,12,4,-17,0,43,14,19,-4,-14
-4,-19,-14,12,4,-17,0,43,14,19,-4,-14
-4,-19,-14,12,4,-17,0,43,9,19,-9,-14
-9,-19,-9,14,0,-14,4,43,9,14,-9,-19
0,-29,-29,14,14,-29,4,43,0,4,-9,-19
0,-29,-29,14,14,-29,4,43,0,4,-14,-19
0,-34,-34,17,17,-34,4,43,4,4,-14,-19
-4,-34,-29,19,12,-31,4,43,4,0,-24,-19
-4,-39,-34,21,14,-36,14,43,-4,0,-24,-24
-4,-39,-34,21,14,-36,14,43,-4,0,-19,-24
-4,-39,-34,21,14,-36,14,43,-4,-4,-19,-24
-4,-39,-34,21,14,-36,19,43,-9,-4,-19,-24
-14,-43,-29,29,7,-36,19,43,0,4,-14,-29
-14,-43,-29,29,7,-36,19,43,0,4,-14,-29
-14,-43,-29,29,7,-36,19,43,0,0,-14,-29
-14,-48,-34,31,9,-41,19,43,-9,-4,-14,-29
-9,-39,-29,24,9,-34,19,43,-9,-14,-14,-29
-9,-39,-29,24,9,-34,19,43,-4,-14,-14,-34
-9,-39,-29,24,9,-34,19,43,-4,-14,-14,-34
-4,-39,-34,21,14,-36,19,43,-4,-14,-14,-34
-4,-39,-34,21,14,-36,19,43,-9,-14,-29,-34
-4,-39,-34,21,14,-36,19,43,-9,-14,-29,-39
-4,-39,-34,21,14,-36,19,43,-9,-14,-29,-39
-4,-39,-34,21,14,-36,19,43,-9,-14,-29,-39
-4,-39,-34,21,14,-36,19,43,-19,-14,-19,-48
-4,-39,-34,21,14,-36,19,43,-24,-19,-19,-48
-4,-43,-39,24,17,-41,19,43,-24,-19,-19,-48
-4,-43,-39,24,17,-41,19,43,-24,-19,-24,-48
-4,-43,-39,24,17,-41,19,43,-14,-19,-34,-48
-4,-43,-39,24,17,-41,19,43,-14,-19,-34,-48
-4,-43,-39,24,17,-41,19,39,-14,-19,-34,-48
-4,-43,-39,24,17,-41,19,39,-14,-19,-34,-48
-4,-43,-39,24,17,-41,19,39,-24,-19,-34,-39
-4,-48,-43,26,19,-46,19,39,-24,-19,-34,-39
-4,-48,-43,26,19,-46,19,39,-24,-19,-34,-39
-4,-48,-43,26,19,-46,19,39,-29,-19,-34,-34
0,-48,-48,24,24,-48,19,39,-19,-19,-24,-43
0,-48,-48,24,24,-48,19,39,-19,-19,-24,-43
0,-48,-48,24,24,-48,19,39,-19,-19,-24,-43
0,-48,-48,24,24,-48,14,39,-19,-19,-24,-43
0,-48,-48,24,24,-48,14,43,-19,-24,-24,-43
0,-48,-48,24,24,-48,14,43,-19,-24,-24,-43
0,-48,-48,24,24,-48,14,43,-19,-24,-24,-43
0,-48,-48,24,24,-48,14,43,-19,-19,-24,-43
0,-48,-48,24,24,-48,14,43,-19,-19,-34,-43
0,-48,-48,24,24,-48,14,43,-19,-19,-34,-43
0,-48,-48,24,24,-48,14,43,-19,-19,-34,-43
0,-48,-48,24,24,-48,14,43,-19,-19,-29,-43
0,-58,-58,29,29,-58,14,43,-19,-19,-29,-43
0,-58,-58,29,29,-58,14,43,-19,-19,-29,-43
4,-58,-63,26,34,-61,14,43,-19,-19,-29,-43
4,-58,-63,26,34,-61,14,43,-19,-19,-29,-43
4,-48,-53,21,29,-51,4,34,-19,-14,-29,-43
4,-48,-53,21,29,-51,4,34,-19,-14,-29,-43
4,-48,-53,21,29,-51,4,34,-19,-19,-29,-43
4,-48,-53,21,29,-51,4,34,-19,-19,-29,-43
4,-48,-53,21,29,-51,14,34,-19,-19,-39,-43
4,-48,-53,21,29,-51,14,34,-19,-19,-39,-39
4,-48,-53,21,29,-51,14,34,-19,-14,-39,-39
4,-48,-53,21,29,-51,14,34,-19,-14,-39,-39
4,-48,-53,21,29,-51,4,34,-19,-14,-29,-39
4,-48,-53,21,29,-51,4,34,-19,-14,-29,-39
4,-48,-53,21,29,-51,4,34,-19,-14,-29,-39
4,-48,-53,21,29,-51,4,29,-19,-14,-29,-39
4,-48,-53,21,29,-51,4,29,-19,-14,-29,-48
4,-48,-53,21,29,-51,4,29,-19,-14,-29,-48
4,-48,-53,21,29,-51,4,34,-19,-14,-29,-48
4,-48,-53,21,29,-51,4,34,-19,-14,-29,-48
4,-58,-63,26,34,-61,14,43,-19,-14,-24,-39
4,-58,-63,26,34,-61,14,43,-19,-14,-24,-39
4,-58,-63,26,34,-61,9,43,-19,-14,-24,-39
4,-58,-63,26,34,-61,9,39,-19,-14,-29,-39
4,-58,-63,26,34,-61,9,29,-19,-14,-29,-39
4,-58,-63,26,34,-61,9,29,-19,-14,-29,-39
4,-58,-63,26,34,-61,9,29,-19,-9,-29,-39
4,-58,-63,26,34,-61,14,29,-19,-9,-29,-39
4,-48,-53,21,29,-51,14,29,-19,-9,-19,-39
4,-53,-58,24,31,-56,14,34,-19,-9,-19,-39
14,-53,-68,19,41,-61,14,34,-19,-9,-29,-39
9,-58,-68,24,39,-63,9,39,-19,-9,-29,-39
9,-48,-58,19,34,-53,9,29,-29,-19,-29,-48
9,-48,-58,19,34,-53,9,29,-29,-19,-29,-48
9,-48,-58,19,34,-53,9,29,-29,-19,-29,-48
9,-48,-58,19,34,-53,9,29,-29,-19,-29,-48
9,-48,-58,19,34,-53,14,29,-19,-9,-29,-39
9,-48,-58,19,34,-53,14,29,-19,-9,-29,-39
9,-48,-58,19,34,-53,9,29,-19,-9,-29,-39
9,-48,-58,19,34,-53,9,29,-19,-9,-29,-39
9,-58,-68,24,39,-63,14,39,-19,-19,-29,-48
9,-58,-68,24,39,-63,14,39,-19,-19,-29,-48
9,-58,-68,24,39,-63,9,39,-19,-19,-29,-48
9,-58,-68,24,39,-63,9,39,-19,-19,-29,-48
9,-58,-68,24,39,-63,9,34,-29,-14,-29,-48
9,-58,-68,24,39,-63,9,34,-29,-14,-29,-48
9,-58,-68,24,39,-63,9,34,-29,-14,-29,-48
9,-58,-68,24,39,-63,9,34,-29,-14,-29,-48
9,-58,-68,24,39,-63,9,43,-19,-4,-29,-48
9,-53,-63,21,36,-58,14,43,-14,-4,-29,-43
9,-53,-63,21,36,-58,14,43,-14,-4,-29,-43
9,-53,-63,21,36,-58,14,43,-14,-4,-29,-43
9,-63,-73,26,41,-68,14,43,-14,-4,-19,-43
14,-63,-78,24,46,-70,14,43,-14,-4,-19,-43
24,-63,-87,19,56,-75,14,43,-14,-4,-19,-43
29,-63,-92,17,61,-78,14,53,-9,-4,-19,-43
29,-53,-82,12,56,-68,19,58,-19,4,-19,-43
34,-43,-78,4,56,-61,19,63,-19,4,-14,-39
48,-39,-87,-4,68,-63,24,78,-14,4,-14,-39
58,-34,-92,-12,75,-63,24,87,-9,14,-9,-39
78,-29,-107,-24,92,-68,14,117,4,19,-9,-19
92,-14,-107,-39,100,-61,14,131,19,24,-4,-14
97,-14,-112,-41,104,-63,9,136,29,34,0,-9
112,-4,-117,-53,114,-61,0,136,34,39,4,-4
126,0,-126,-63,126,-63,0,136,39,34,9,4
136,0,-136,-68,136,-68,-4,141,43,39,14,9
146,9,-136,-78,141,-63,-9,141,48,43,19,14
156,29,-126,-92,141,-48,-29,141,58,58,34,19
165,63,-102,-114,134,-19,-43,131,68,78,53,24
175,87,-87,-131,131,0,-58,131,73,82,68,39
185,97,-87,-141,136,4,-82,131,78,92,73,48
195,97,-97,-146,146,0,-97,122,78,92,73,58
200,102,-97,-151,148,2,-107,117,87,107,78,53
200,107,-92,-153,146,7,-112,112,87,107,78,53
200,107,-92,-153,146,7,-112,87,78,107,78,53
190,107,-82,-148,136,12,-122,53,63,97,78,53
175,92,-82,-134,129,4,-112,29,39,78,58,43
175,73,-102,-124,139,-14,-102,29,29,63,43,34
165,48,-117,-107,141,-34,-92,29,19,53,34,24
161,34,-126,-97,143,-46,-82,34,9,39,24,14
165,14,-151,-90,158,-68,-82,34,0,24,14,14
156,-4,-161,-75,158,-82,-73,24,-19,9,4,4
146,-14,-161,-65,153,-87,-73,14,-24,9,0,0
146,-14,-161,-65,153,-87,-73,9,-24,4,0,0
126,-9,-136,-58,131,-73,-58,14,-19,14,-9,-14
107,-14,-122,-46,114,-68,-53,9,-19,14,-9,-14
92,-14,-107,-39,100,-61,-48,9,-14,14,-9,-19
82,-19,-102,-31,92,-61,-39,14,-14,14,-14,-24
78,-39,-117,-19,97,-78,-29,24,-24,4,-14,-24
63,-53,-117,-4,90,-85,-19,29,-34,-9,-24,-39
48,-73,-122,12,85,-97,-9,34,-43,-19,-39,-48
34,-78,-112,21,73,-95,0,39,-43,-19,-43,-53
34,-68,-102,17,68,-85,0,39,-39,-24,-43,-43
24,-73,-97,24,61,-85,0,39,-39,-24,-39,-43
9,-78,-87,34,48,-82,0,24,-43,-24,-39,-43
4,-78,-82,36,43,-80,0,9,-43,-29,-39,-43
-9,-78,-68,43,29,-73,0,0,-43,-29,-39,-43
-9,-73,-63,41,26,-68,0,4,-43,-29,-39,-43
-9,-73,-63,41,26,-68,0,4,-43,-29,-39,-43
-9,-73,-63,41,26,-68,0,4,-43,-29,-39,-48
0,-78,-78,39,39,-78,0,14,-43,-29,-39,-58
0,-78,-78,39,39,-78,4,19,-43,-29,-39,-58
0,-78,-78,39,39,-78,4,24,-43,-29,-39,-58
0,-78,-78,39,39,-78,9,24,-43,-29,-39,-58
0,-68,-68,34,34,-68,9,24,-43,-19,-39,-53
-4,-68,-63,36,29,-65,9,24,-39,-14,-39,-53
-4,-68,-63,36,29,-65,9,24,-39,-14,-39,-53
-4,-68,-63,36,29,-65,14,19,-39,-14,-39,-58
-4,-78,-73,41,34,-75,4,19,-39,-14,-39,-58
-4,-78,-73,41,34,-75,4,19,-39,-19,-39,-58
-9,-78,-68,43,29,-73,4,19,-39,-19,-39,-58
-9,-78,-68,43,29,-73,4,19,-39,-19,-39,-58
-9,-78,-68,43,29,-73,14,19,-39,-24,-39,-58
-9,-78,-68,43,29,-73,14,19,-39,-24,-39,-58
-9,-78,-68,43,29,-73,14,24,-39,-24,-39,-58
-9,-78,-68,43,29,-73,14,24,-39,-24,-39,-58
-9,-78,-68,43,29,-73,14,24,-39,-24,-39,-48
-9,-78,-68,43,29,-73,14,24,-39,-14,-39,-48
-9,-78,-68,43,29,-73,14,34,-39,-14,-39,-48
-9,-78,-68,43,29,-73,14,24,-39,-24,-39,-58
0,-68,-68,34,34,-68,9,34,-29,-9,-29,-58
14,-58,-73,21,43,-65,0,48,4,14,-24,-58
39,-39,-78,0,58,-58,9,97,63,48,0,-34
43,-4,-48,-19,46,-26,9,122,141,131,53,0
82,43,-39,-63,61,2,-9,131,234,234,136,53
141,131,-9,-136,75,61,-58,102,346,370,253,146
253,268,14,-261,119,141,-126,82,488,556,409,263
380,434,53,-407,163,244,-195,102,658,780,590,414
517,605,87,-561,214,346,-278,102,810,1005,790,575
639,829,190,-734,224,509,-414,-87,956,1229,1029,785
780,1083,302,-932,239,692,-600,-405,1078,1459,1273,1024
927,1288,361,-1107,283,824,-780,-673,1112,1629,1483,1224
1068,1415,346,-1241,361,880,-956,-951,1044,1727,1634,1415
1200,1556,356,-1378,422,956,-1156,-1302,946,1834,1810,1620
1288,1688,400,-1488,444,1044,-1342,-1644,800,1888,1956,1820
1312,1688,375,-1500,468,1032,-1429,-1873,541,1815,2015,1942
1322,1571,248,-1446,536,910,-1468,-2000,219,1659,1981,2000
1312,1464,151,-1388,580,807,-1503,-2098,-39,1546,1942,2025
1273,1420,146,-1346,563,783,-1512,-2108,-136,1503,1932,2039
1215,1366,151,-1290,531,758,-1478,-2034,-146,1498,1922,2039
1132,1293,161,-1212,485,727,-1429,-1917,-126,1473,1903,2005
1015,1224,209,-1119,402,717,-1356,-1781,-87,1449,1844,1952
883,1137,253,-1010,314,695,-1254,-1620,-48,1376,1747,1834
741,995,253,-868,244,624,-1107,-1415,-48,1200,1546,1620
570,780,209,-675,180,495,-912,-1190,-131,893,1195,1288
375,497,122,-436,126,309,-673,-961,-268,463,746,878
190,234,43,-212,73,139,-444,-746,-409,48,312,488
-24,29,53,-2,-39,41,-229,-580,-478,-253,-48,146
-204,-97,107,151,-156,4,-63,-458,-458,-400,-263,-97
-234,-126,107,180,-170,-9,0,-346,-380,-380,-292,-156
-195,-107,87,151,-141,-9,0,-283,-307,-312,-224,-126
-190,-102,87,146,-139,-7,19,-229,-258,-278,-209,-136
-180,-102,78,141,-129,-12,39,-175,-219,-244,-204,-156
-151,-92,58,122,-104,-17,39,-122,-180,-219,-185,-146
-136,-87,48,112,-92,-19,48,-82,-161,-195,-170,-136
-136,-87,48,112,-92,-19,68,-53,-146,-180,-170,-136
-126,-97,29,112,-78,-34,82,-19,-131,-156,-165,-131
-117,-107,9,112,-63,-48,92,4,-107,-146,-156,-131
-126,-112,14,119,-70,-48,107,24,-82,-141,-151,-141
-126,-112,14,119,-70,-48,112,29,-78,-136,-146,-146
-122,-112,9,117,-65,-51,112,39,-63,-122,-141,-136
-112,-112,0,112,-56,-56,102,48,-58,-122,-136,-136
-112,-112,0,112,-56,-56,102,58,-48,-107,-131,-136
-112,-112,0,112,-56,-56,112,73,-48,-107,-131,-136
-112,-112,0,112,-56,-56,117,78,-48,-107,-126,-136
-112,-112,0,112,-56,-56,107,87,-43,-107,-126,-131
-112,-112,0,112,-56,-56,107,87,-43,-102,-126,-131
-112,-112,0,112,-56,-56,117,92,-39,-102,-126,-136
-112,-112,0,112,-56,-56,117,92,-34,-102,-126,-136
-112,-112,0,112,-56,-56,126,92,-29,-97,-122,-146
-112,-112,0,112,-56,-56,126,102,-24,-97,-122,-146
-112,-107,4,109,-58,-51,131,102,-24,-92,-122,-146
-112,-107,4,109,-58,-51,131,102,-24,-92,-122,-141
-112,-107,4,109,-58,-51,131,92,-24,-102,-122,-141
-112,-107,4,109,-58,-51,131,92,-24,-97,-122,-141
-112,-107,4,109,-58,-51,131,97,-24,-97,-122,-141
-112,-107,4,109,-58,-51,131,97,-24,-97,-122,-141
-112,-97,14,104,-63,-41,126,97,-19,-97,-122,-141
-112,-97,14,104,-63,-41,126,97,-19,-97,-117,-141
-112,-97,14,104,-63,-41,126,97,-19,-97,-117,-141
-112,-97,14,104,-63,-41,126,97,-14,-97,-117,-141
-112,-107,4,109,-58,-51,126,102,-14,-92,-126,-141
-112,-107,4,109,-58,-51,126,102,-14,-92,-126,-141
-112,-102,9,107,-61,-46,126,102,-14,-92,-126,-141
-112,-102,9,107,-61,-46,126,102,-14,-92,-126,-141
-112,-102,9,107,-61,-46,136,102,-24,-92,-126,-131
-112,-97,14,104,-63,-41,136,102,-19,-92,-126,-131
-112,-97,14,104,-63,-41,136,102,-19,-87,-126,-131
-112,-97,14,104,-63,-41,136,102,-19,-87,-126,-131
-107,-87,19,97,-63,-34,126,102,-14,-97,-126,-131
-107,-82,24,95,-65,-29,126,102,-14,-97,-122,-131
-112,-82,29,97,-70,-26,126,102,-14,-97,-122,-131
-112,-82,29,97,-70,-26,126,102,-14,-97,-122,-131
-112,-82,29,97,-70,-26,126,102,-19,-97,-122,-141
-112,-82,29,97,-70,-26,126,102,-19,-97,-122,-141
-112,-78,34,95,-73,-21,126,102,-19,-97,-122,-141
-112,-78,34,95,-73,-21,126,102,-19,-92,-122,-141
-102,-87,14,95,-58,-36,122,102,-4,-92,-131,-131
-102,-82,19,92,-61,-31,122,102,-4,-92,-131,-126
-102,-82,19,92,-61,-31,122,102,-4,-92,-126,-126
-102,-82,19,92,-61,-31,122,102,0,-87,-126,-126
-107,-78,29,92,-68,-24,112,102,4,-97,-117,-126
-112,-78,34,95,-73,-21,112,102,4,-97,-117,-126
-117,-78,39,97,-78,-19,112,102,4,-97,-117,-126
-122,-78,43,100,-82,-17,112,107,4,-97,-112,-126
-122,-78,43,100,-82,-17,112,107,4,-87,-122,-136
-122,-78,43,100,-82,-17,112,107,9,-82,-122,-136
-122,-78,43,100,-82,-17,112,107,14,-82,-122,-136
-122,-73,48,97,-85,-12,112,112,14,-82,-122,-136
-112,-73,39,92,-75,-17,122,122,14,-73,-112,-136
-112,-68,43,90,-78,-12,122,122,14,-73,-112,-131
-112,-68,43,90,-78,-12,122,122,19,-68,-107,-131
-112,-68,43,90,-78,-12,117,122,24,-68,-107,-131
-112,-63,48,87,-80,-7,117,122,24,-78,-117,-131
-112,-63,48,87,-80,-7,117,126,24,-78,-117,-131
-112,-63,48,87,-80,-7,117,126,29,-78,-112,-131
-112,-58,53,85,-82,-2,117,126,34,-73,-112,-131
-112,-58,53,85,-82,-2,117,117,34,-63,-112,-122
-112,-58,53,85,-82,-2,117,117,43,-63,-112,-122
-112,-58,53,85,-82,-2,117,126,43,-63,-112,-122
-112,-58,53,85,-82,-2,117,126,43,-63,-112,-117
-117,-53,63,85,-90,4,117,131,43,-58,-102,-117
-117,-53,63,85,-90,4,117,131,48,-58,-102,-117
-117,-48,68,82,-92,9,117,131,48,-58,-102,-117
-117,-43,73,80,-95,14,117,131,53,-58,-102,-117
-117,-43,73,80,-95,14,117,136,53,-63,-112,-126
-117,-43,73,80,-95,14,117,136,53,-63,-112,-126
-117,-43,73,80,-95,14,117,136,63,-63,-112,-126
-117,-43,73,80,-95,14,117,146,68,-63,-112,-126
-117,-39,78,78,-97,19,117,151,68,-63,-112,-131
-117,-34,82,75,-100,24,117,151,68,-63,-107,-131
-122,-34,87,78,-104,26,117,151,68,-63,-107,-131
-122,-34,87,78,-104,26,117,161,73,-63,-107,-126
-131,-29,102,80,-117,36,117,165,73,-53,-112,-126
-131,-19,112,75,-122,46,122,170,82,-53,-112,-126
-131,-19,112,75,-122,46,122,170,87,-53,-112,-126
-131,-19,112,75,-122,46,122,175,87,-53,-112,-126
-136,-14,122,75,-129,53,131,170,97,-63,-112,-117
-136,-4,131,70,-134,63,131,175,107,-63,-112,-122
-136,-4,131,70,-134,63,131,180,107,-63,-112,-122
-136,-4,131,70,-134,63,131,180,107,-63,-112,-122
-136,-4,131,70,-134,63,131,180,107,-73,-117,-122
-146,0,146,73,-146,73,136,180,112,-78,-117,-122
-146,0,146,73,-146,73,136,190,112,-78,-117,-122
-151,4,156,73,-153,80,141,190,117,-87,-122,-122
-151,4,156,73,-153,80,141,190,117,-92,-131,-131
-156,9,165,73,-161,87,141,195,117,-97,-131,-136
-161,9,170,75,-165,90,141,195,117,-107,-136,-146
-165,9,175,78,-170,92,141,195,117,-112,-141,-151
-170,0,170,85,-170,85,146,195,112,-112,-146,-151
-175,0,175,87,-175,87,146,195,107,-122,-151,-156
-180,0,180,90,-180,90,146,195,102,-136,-156,-156
-180,0,180,90,-180,90,151,195,102,-146,-165,-161
-185,0,185,92,-185,92,151,190,97,-156,-180,-165
-200,-4,195,102,-197,95,156,180,87,-175,-195,-180
-204,-9,195,107,-200,92,161,175,82,-185,-204,-180
-209,-14,195,112,-202,90,165,161,73,-200,-214,-185
-214,-19,195,117,-204,87,165,170,58,-224,-224,-195
-219,-24,195,122,-207,85,170,165,53,-234,-234,-204
-234,-29,204,131,-219,87,170,161,39,-248,-244,-204
-239,-34,204,136,-222,85,175,156,19,-263,-263,-219
-239,-39,200,139,-219,80,175,151,4,-287,-283,-239
-248,-43,204,146,-226,80,180,136,-4,-302,-297,-248
-253,-58,195,156,-224,68,180,131,-19,-322,-312,-253
-263,-63,200,163,-231,68,180,122,-34,-341,-326,-263
-273,-73,200,173,-236,63,185,122,-48,-370,-351,-273
-283,-82,200,183,-241,58,185,107,-63,-390,-366,-283
-292,-92,200,192,-246,53,190,92,-87,-409,-380,-297
-297,-102,195,200,-246,46,190,78,-102,-439,-395,-307
-307,-112,195,209,-251,41,195,78,-122,-453,-409,-322
-317,-131,185,224,-251,26,195,63,-146,-483,-424,-326
-317,-146,170,231,-244,12,195,53,-161,-497,-439,-346
-331,-161,170,246,-251,4,204,48,-180,-517,-463,-351
-331,-175,156,253,-244,-9,204,39,-200,-536,-473,-370
-336,-190,146,263,-241,-21,204,29,-219,-556,-488,-375
-341,-204,136,273,-239,-34,204,19,-234,-570,-497,-385
-346,-219,126,283,-236,-46,209,19,-248,-580,-502,-390
-346,-219,126,283,-236,-46,204,19,-268,-600,-517,-400
-346,-229,117,287,-231,-56,204,14,-283,-610,-522,-409
-341,-239,102,290,-222,-68,204,14,-302,-619,-531,-419
-341,-248,92,295,-217,-78,204,14,-312,-619,-531,-419
-336,-263,73,300,-204,-95,214,29,-312,-619,-536,-424
-331,-278,53,305,-192,-112,214,29,-312,-619,-536,-424
-326,-287,39,307,-183,-124,209,34,-317,-619,-536,-424
-312,-292,19,302,-165,-136,209,34,-317,-619,-536,-419
-287,-283,4,285,-146,-139,195,48,-312,-595,-531,-409
-273,-283,-9,278,-131,-146,190,58,-312,-580,-517,-409
-258,-283,-24,270,-117,-153,180,63,-312,-566,-502,-400
-244,-283,-39,263,-102,-161,175,78,-302,-546,-478,-390
-239,-278,-39,258,-100,-158,170,68,-287,-522,-458,-366
-219,-268,-48,244,-85,-158,170,73,-273,-497,-444,-356
-204,-263,-58,234,-73,-161,156,78,-263,-478,-424,-346
-185,-258,-73,222,-56,-165,151,78,-253,-453,-409,-331
-156,-239,-82,197,-36,-161,141,87,-244,-429,-380,-312
-141,-224,-82,183,-29,-153,131,92,-229,-400,-356,-297
-126,-214,-87,170,-19,-151,122,97,-219,-375,-336,-278
-102,-204,-102,153,0,-153,112,97,-204,-346,-317,-263
-97,-195,-97,146,0,-146,102,87,-175,-302,-287,-239
-87,-185,-97,136,4,-141,97,87,-161,-283,-273,-219
-78,-170,-92,124,7,-131,87,87,-146,-258,-253,-209
-68,-161,-92,114,12,-126,78,87,-131,-244,-234,-195
-48,-161,-112,104,31,-136,68,78,-126,-224,-214,-180
-34,-146,-112,90,39,-129,58,78,-117,-200,-190,-161
-29,-136,-107,82,39,-122,53,78,-107,-170,-170,-146
-14,-136,-122,75,53,-129,43,78,-97,-146,-161,-131
-14,-126,-112,70,48,-119,48,87,-73,-122,-131,-107
-4,-112,-107,58,51,-109,48,87,-68,-102,-122,-102
-4,-102,-97,53,46,-100,39,82,-58,-102,-112,-92
0,-97,-97,48,48,-97,34,82,-53,-92,-102,-82
19,-97,-117,39,68,-107,24,68,-58,-82,-102,-78
19,-87,-107,34,63,-97,19,68,-53,-73,-92,-68
24,-82,-107,29,65,-95,14,68,-48,-58,-82,-58
24,-78,-102,26,63,-90,9,68,-43,-43,-73,-48
24,-73,-97,24,61,-85,4,63,-39,-24,-63,-48
29,-68,-97,19,63,-82,4,58,-34,-24,-53,-43
29,-68,-97,19,63,-82,0,58,-29,-19,-43,-39
29,-58,-87,14,58,-73,0,58,-24,-14,-34,-34
29,-58,-87,14,58,-73,0,53,-14,-19,-39,-29
29,-58,-87,14,58,-73,0,53,-14,-14,-34,-24
29,-58,-87,14,58,-73,0,53,-9,-9,-29,-24
29,-58,-87,14,58,-73,0,53,-9,-4,-24,-19
29,-39,-68,4,48,-53,-4,58,-9,9,-14,-19
34,-39,-73,2,53,-56,-4,58,-9,14,-14,-19
34,-39,-73,2,53,-56,-9,58,-4,14,-9,-19
34,-34,-68,0,51,-51,-9,58,0,14,-9,-14
43,-34,-78,-4,61,-56,-9,48,-9,14,-19,-9
43,-34,-78,-4,61,-56,-9,48,-9,19,-19,-9
43,-34,-78,-4,61,-56,-9,48,-9,19,-14,-9
43,-29,-73,-7,58,-51,-9,48,-9,19,-14,-9
43,-29,-73,-7,58,-51,-9,48,0,19,-14,-9
43,-29,-73,-7,58,-51,-9,48,4,24,-14,-4
43,-29,-73,-7,58,-51,-9,48,9,24,-9,-4
48,-29,-78,-9,63,-53,-9,48,9,24,-9,-4
39,-39,-78,0,58,-58,-9,48,0,19,0,-4
39,-34,-73,-2,56,-53,-9,48,0,19,0,-4
39,-29,-68,-4,53,-48,-9,48,0,19,0,-4
39,-29,-68,-4,53,-48,-14,48,0,19,4,-4
39,-29,-68,-4,53,-48,-14,48,0,29,-4,-4
39,-29,-68,-4,53,-48,-9,48,4,29,-4,-4
39,-29,-68,-4,53,-48,-9,48,4,29,-4,-4
34,-29,-63,-2,48,-46,-9,48,4,34,-4,-4
34,-29,-63,-2,48,-46,-9,48,4,34,-4,0
34,-29,-63,-2,48,-46,-9,48,4,34,-4,0
34,-29,-63,-2,48,-46,-9,48,4,34,-4,0
29,-29,-58,0,43,-43,-9,48,4,34,-4,0
39,-29,-68,-4,53,-48,-4,48,19,34,-4,9
39,-29,-68,-4,53,-48,-4,48,19,34,-4,9
39,-29,-68,-4,53,-48,-4,48,19,34,-4,4
39,-29,-68,-4,53,-48,-4,48,19,34,-4,4
39,-29,-68,-4,53,-48,-4,48,19,24,-4,-4
39,-29,-68,-4,53,-48,-9,48,19,24,-4,-4
34,-24,-58,-4,46,-41,-9,48,19,24,-4,-4
34,-24,-58,-4,46,-41,-4,48,19,24,-4,-4
34,-24,-58,-4,46,-41,-4,48,19,24,-4,-4
29,-24,-53,-2,41,-39,-4,48,19,24,-4,-9
29,-24,-53,-2,41,-39,-4,48,19,24,-9,-9
29,-24,-53,-2,41,-39,-4,48,19,24,-9,-9
19,-24,-43,2,31,-34,-4,48,19,24,-9,-9
19,-24,-43,2,31,-34,-4,48,19,24,-9,-9
14,-24,-39,4,26,-31,0,48,19,19,-9,-9
14,-29,-43,7,29,-36,0,48,19,19,-9,-9
24,-29,-53,2,39,-41,0,39,9,19,-19,-9
19,-29,-48,4,34,-39,0,39,9,14,-19,-14
19,-29,-48,4,34,-39,0,39,9,14,-19,-14
19,-29,-48,4,34,-39,0,39,9,14,-24,-14
19,-29,-48,4,34,-39,0,48,9,14,-24,-14
19,-29,-48,4,34,-39,0,48,9,9,-29,-19
14,-29,-43,7,29,-36,4,48,9,9,-29,-19
14,-29,-43,7,29,-36,4,48,9,9,-29,-19
14,-29,-43,7,29,-36,4,39,9,9,-29,-29
14,-34,-48,9,31,-41,4,43,9,9,-29,-29
14,-34,-48,9,31,-41,4,43,4,0,-29,-29
14,-34,-48,9,31,-41,9,43,4,0,-29,-29
14,-39,-53,12,34,-46,9,53,4,0,-24,-24
14,-39,-53,12,34,-46,9,53,4,0,-24,-24
14,-39,-53,12,34,-46,9,53,0,0,-29,-24
9,-39,-48,14,29,-43,14,53,0,-4,-29,-29
0,-39,-39,19,19,-39,14,53,-9,-4,-29,-29
0,-39,-39,19,19,-39,14,53,-9,-4,-34,-29
0,-43,-43,21,21,-43,14,53,-4,-4,-34,-29
-4,-43,-39,24,17,-41,14,53,-4,-9,-43,-29
4,-48,-53,21,29,-51,14,43,-4,-9,-43,-34
4,-48,-53,21,29,-51,14,43,-4,-9,-39,-34
4,-48,-53,21,29,-51,14,43,-4,-14,-39,-34
4,-48,-53,21,29,-51,19,43,-9,-14,-39,-34
4,-53,-58,24,31,-56,19,53,0,-14,-43,-39
4,-53,-58,24,31,-56,19,53,0,-14,-43,-39
4,-53,-58,24,31,-56,19,53,0,-19,-43,-39
4,-58,-63,26,34,-61,19,53,-9,-24,-43,-39
0,-58,-58,29,29,-58,9,43,-9,-14,-43,-39
0,-58,-58,29,29,-58,9,43,-4,-14,-43,-43
0,-58,-58,29,29,-58,9,43,-4,-14,-43,-43
4,-58,-63,26,34,-61,9,43,-4,-14,-43,-43
4,-58,-63,26,34,-61,19,53,-9,-14,-48,-34
4,-58,-63,26,34,-61,19,53,-9,-14,-48,-39
4,-58,-63,26,34,-61,19,53,-9,-14,-48,-39
4,-58,-63,26,34,-61,19,53,-9,-14,-48,-39
4,-58,-63,26,34,-61,9,43,-19,-24,-48,-39
4,-58,-63,26,34,-61,9,43,-24,-29,-48,-39
4,-63,-68,29,36,-65,9,43,-24,-29,-48,-39
4,-63,-68,29,36,-65,9,43,-24,-29,-53,-39
4,-63,-68,29,36,-65,9,53,-24,-29,-53,-39
4,-63,-68,29,36,-65,9,53,-24,-29,-53,-39
4,-63,-68,29,36,-65,9,48,-24,-29,-53,-39
4,-63,-68,29,36,-65,9,48,-24,-29,-53,-39
-4,-63,-58,34,26,-61,19,58,-14,-19,-43,-39
-4,-68,-63,36,29,-65,19,58,-14,-19,-43,-39
-4,-68,-63,36,29,-65,19,58,-14,-19,-43,-39
-4,-68,-63,36,29,-65,19,58,-19,-19,-43,-34
0,-68,-68,34,34,-68,9,48,-19,-29,-43,-43
0,-68,-68,34,34,-68,9,48,-19,-29,-43,-43
0,-68,-68,34,34,-68,9,48,-19,-29,-43,-43
0,-68,-68,34,34,-68,4,48,-19,-29,-43,-43
9,-58,-68,24,39,-63,14,43,-29,-34,-53,-43
9,-58,-68,24,39,-63,14,43,-29,-34,-53,-43
9,-58,-68,24,39,-63,14,43,-29,-34,-53,-43
9,-58,-68,24,39,-63,14,43,-29,-29,-53,-43
9,-68,-78,29,43,-73,4,43,-29,-19,-53,-43
9,-68,-78,29,43,-73,4,43,-29,-19,-53,-43
9,-68,-78,29,43,-73,4,43,-29,-19,-53,-43
9,-68,-78,29,43,-73,4,43,-29,-19,-48,-43
0,-68,-68,34,34,-68,14,53,-29,-19,-48,-43
0,-68,-68,34,34,-68,14,53,-29,-19,-48,-43
4,-68,-73,31,39,-70,14,53,-29,-19,-48,-43
4,-68,-73,31,39,-70,14,53,-29,-19,-48,-43
4,-58,-63,26,34,-61,14,43,-29,-24,-48,-34
4,-58,-63,26,34,-61,14,43,-29,-24,-48,-34
4,-58,-63,26,34,-61,14,43,-29,-29,-48,-34
4,-58,-63,26,34,-61,14,43,-29,-29,-48,-34
4,-68,-73,31,39,-70,14,43,-29,-19,-39,-43
4,-68,-73,31,39,-70,14,43,-29,-19,-39,-39
4,-68,-73,31,39,-70,14,43,-29,-14,-39,-39
4,-68,-73,31,39,-70,14,43,-29,-14,-39,-39
14,-68,-82,26,48,-75,14,34,-29,-24,-39,-39
14,-68,-82,26,48,-75,14,34,-29,-24,-39,-39
14,-68,-82,26,48,-75,14,34,-29,-24,-39,-39
14,-68,-82,26,48,-75,14,29,-29,-24,-39,-39
14,-68,-82,26,48,-75,14,39,-19,-14,-29,-29
14,-68,-82,26,48,-75,14,39,-29,-14,-39,-29
19,-58,-78,19,48,-68,19,39,-29,-19,-29,-29
9,-68,-78,29,43,-73,9,39,-29,-19,-29,-39
9,-68,-78,29,43,-73,9,39,-29,-19,-29,-39
9,-68,-78,29,43,-73,9,39,-29,-19,-29,-39
9,-68,-78,29,43,-73,9,39,-29,-19,-29,-39
0,-68,-68,34,34,-68,14,39,-19,-19,-39,-39
0,-68,-68,34,34,-68,14,39,-19,-19,-39,-39
0,-68,-68,34,34,-68,9,39,-19,-19,-39,-39
0,-68,-68,34,34,-68,9,39,-19,-19,-39,-39
9,-68,-78,29,43,-73,14,39,-29,-19,-39,-29
9,-68,-78,29,43,-73,14,39,-29,-19,-39,-29
9,-68,-78,29,43,-73,9,39,-29,-19,-39,-29
9,-68,-78,29,43,-73,9,39,-29,-19,-39,-29
9,-68,-78,29,43,-73,9,43,-19,-14,-39,-29
9,-68,-78,29,43,-73,9,43,-19,-14,-39,-29
9,-68,-78,29,43,-73,9,43,-19,-14,-39,-29
9,-68,-78,29,43,-73,9,43,-19,-14,-39,-29
9,-68,-78,29,43,-73,9,34,-29,-14,-29,-29
9,-63,-73,26,41,-68,14,34,-24,-14,-29,-24
9,-63,-73,26,41,-68,14,34,-24,-14,-29,-24
9,-63,-73,26,41,-68,14,34,-24,-14,-29,-24
9,-63,-73,26,41,-68,14,43,-24,-14,-29,-34
14,-63,-78,24,46,-70,14,43,-24,-14,-29,-34
24,-63,-87,19,56,-75,14,43,-24,-14,-29,-34
29,-63,-92,17,61,-78,14,53,-19,-14,-29,-34
29,-63,-92,17,61,-78,19,68,-19,-4,-29,-24
34,-53,-87,9,61,-70,19,73,-19,-4,-24,-19
48,-48,-97,0,73,-73,24,87,-14,-4,-24,-19
58,-43,-102,-7,80,-73,24,97,-9,4,-19,-19
78,-39,-117,-19,97,-78,14,107,-4,9,-9,-9
92,-24,-117,-34,104,-70,14,122,9,14,-4,-4
97,-24,-122,-36,109,-73,9,126,19,24,0,0
112,-14,-126,-48,119,-70,0,126,24,29,4,4
117,0,-117,-58,117,-58,0,126,29,43,9,4
126,0,-126,-63,126,-63,-4,131,34,48,14,9
136,9,-126,-73,131,-58,-9,131,39,53,19,14
146,29,-117,-87,131,-43,-29,131,48,68,34,19
156,53,-102,-104,129,-24,-43,131,68,78,43,43
165,78,-87,-122,126,-4,-58,131,73,82,58,58
175,87,-87,-131,131,0,-82,131,78,92,63,68
185,87,-97,-136,141,-4,-97,122,78,92,63,78
180,102,-78,-141,129,12,-97,107,68,97,78,82
180,107,-73,-143,126,17,-102,102,68,97,78,82
180,107,-73,-143,126,17,-102,78,58,97,78,82
170,107,-63,-139,117,21,-112,43,43,87,78,82
165,82,-82,-124,124,0,-112,29,29,68,68,73
165,63,-102,-114,134,-19,-102,29,19,53,53,63
156,39,-117,-97,136,-39,-92,29,9,43,43,53
151,24,-126,-87,139,-51,-82,34,0,29,34,43
146,14,-131,-80,139,-58,-82,34,0,19,24,24
136,-4,-141,-65,139,-73,-73,24,-19,9,14,14
126,-14,-141,-56,134,-78,-73,14,-24,14,9,9
126,-14,-141,-56,134,-78,-73,9,-24,14,9,9
117,-9,-126,-53,122,-68,-68,14,-29,4,0,14
97,-14,-112,-41,104,-63,-63,9,-29,4,0,14
82,-14,-97,-34,90,-56,-58,9,-24,4,0,9
73,-19,-92,-26,82,-56,-48,14,-24,4,-4,4
68,-39,-107,-14,87,-73,-39,14,-24,-4,-14,-14
53,-53,-107,0,80,-80,-29,19,-34,-19,-24,-29
39,-73,-112,17,75,-92,-19,24,-43,-29,-39,-39
24,-78,-102,26,63,-90,-9,29,-43,-29,-43,-43
24,-78,-102,26,63,-90,0,29,-39,-24,-43,-34
14,-82,-97,34,56,-90,0,29,-39,-24,-39,-34
0,-87,-87,43,43,-87,0,14,-43,-24,-39,-34
-4,-87,-82,46,39,-85,0,0,-43,-29,-39,-34
-9,-87,-78,48,34,-82,0,0,-43,-29,-39,-34
-9,-82,-73,46,31,-78,0,4,-43,-29,-39,-34
-9,-82,-73,46,31,-78,0,4,-43,-29,-39,-34
-9,-82,-73,46,31,-78,0,4,-43,-29,-39,-39
-9,-78,-68,43,29,-73,0,14,-34,-19,-39,-39
-9,-78,-68,43,29,-73,4,19,-34,-19,-39,-39
-9,-78,-68,43,29,-73,4,24,-34,-19,-39,-39
-9,-78,-68,43,29,-73,9,24,-34,-19,-39,-39
-9,-78,-68,43,29,-73,0,14,-43,-29,-39,-34
-14,-78,-63,46,24,-70,0,14,-39,-24,-39,-34
-14,-78,-63,46,24,-70,0,14,-39,-24,-39,-34
-14,-78,-63,46,24,-70,4,9,-39,-24,-39,-39
-14,-87,-73,51,29,-80,4,19,-29,-24,-39,-39
-14,-87,-73,51,29,-80,4,19,-29,-29,-39,-39
-19,-87,-68,53,24,-78,4,19,-29,-29,-39,-39
-19,-87,-68,53,24,-78,4,19,-29,-29,-39,-39
-19,-78,-58,48,19,-68,4,9,-29,-24,-29,-29
-19,-78,-58,48,19,-68,4,9,-29,-24,-29,-29
-19,-78,-58,48,19,-68,4,14,-29,-24,-29,-29
-19,-78,-58,48,19,-68,4,14,-29,-24,-29,-29
-9,-78,-68,43,29,-73,4,14,-39,-14,-29,-29
-9,-78,-68,43,29,-73,4,24,-39,-14,-29,-39
-19,-78,-58,48,19,-68,4,34,-39,-14,-29,-39
-9,-78,-68,43,29,-73,4,34,-29,-4,-29,-39
0,-78,-78,39,39,-78,0,34,-19,0,-19,-29
14,-78,-92,31,53,-85,9,58,14,34,-4,-19
29,-48,-78,9,53,-63,19,97,82,87,19,-14
53,14,-39,-34,46,-12,0,112,180,170,82,29
102,92,-9,-97,56,41,-39,82,283,283,185,102
180,200,19,-190,80,109,-97,53,405,448,312,204
283,346,63,-314,109,204,-156,53,575,653,497,351
400,512,112,-456,143,312,-224,73,746,888,688,502
517,712,195,-614,161,453,-336,-24,878,1102,897,673
639,956,317,-797,161,636,-502,-302,1005,1356,1146,893
780,1200,419,-990,180,810,-688,-600,1098,1595,1390,1132
927,1366,439,-1146,244,902,-858,-849,1093,1737,1590,1332
1058,1503,444,-1281,307,973,-1044,-1137,985,1825,1751,1532
1171,1634,463,-1403,353,1049,-1244,-1488,858,1903,1917,1737
1220,1717,497,-1468,361,1107,-1390,-1781,663,1917,2044,1917
1234,1668,434,-1451,400,1051,-1449,-1942,375,1825,2083,2010
1244,1551,307,-1398,468,929,-1507,-2059,82,1698,2059,2069
1224,1473,248,-1349,488,861,-1532,-2127,-87,1634,2059,2103
1176,1449,273,-1312,451,861,-1522,-2108,-117,1639,2059,2117
1137,1395,258,-1266,439,827,-1478,-2005,-97,1634,2039,2108
1054,1332,278,-1193,387,805,-1429,-1869,-68,1610,2000,2064
936,1273,336,-1105,300,805,-1356,-1732,-19,1566,1932,1981
805,1166,361,-985,222,763,-1234,-1561,19,1444,1795,1834
653,985,331,-819,161,658,-1068,-1356,-29,1190,1517,1571
463,692,229,-578,117,461,-844,-1122,-170,785,1088,1171
278,380,102,-329,87,241,-585,-893,-346,307,600,741
92,117,24,-104,34,70,-366,-697,-468,-78,185,370
-112,-58,53,85,-82,-2,-161,-551,-497,-331,-146,48
-224,-146,78,185,-151,-34,-43,-429,-448,-429,-302,-136
-204,-146,58,175,-131,-43,-19,-336,-370,-380,-283,-136
-185,-126,58,156,-122,-34,-9,-263,-297,-302,-224,-107
-190,-131,58,161,-124,-36,19,-219,-248,-278,-219,-126
-180,-122,58,151,-119,-31,29,-165,-209,-253,-204,-136
-170,-112,58,141,-114,-26,39,-122,-170,-209,-175,-117
-156,-107,48,131,-102,-29,58,-73,-151,-195,-161,-126
-136,-107,29,122,-82,-39,78,-43,-136,-170,-161,-126
-126,-107,19,117,-73,-43,82,-9,-122,-156,-156,-122
-117,-117,0,117,-58,-58,92,14,-97,-146,-146,-122
-117,-122,-4,119,-56,-63,97,34,-73,-141,-151,-122
-117,-122,-4,119,-56,-63,92,39,-58,-136,-146,-126
-112,-122,-9,117,-51,-65,92,48,-53,-122,-141,-117
-112,-122,-9,117,-51,-65,102,48,-58,-122,-136,-126
-112,-122,-9,117,-51,-65,102,58,-48,-107,-131,-126
-112,-122,-9,117,-51,-65,112,73,-48,-107,-131,-126
-112,-122,-9,117,-51,-65,117,78,-48,-107,-126,-126
-112,-122,-9,117,-51,-65,107,78,-43,-107,-126,-122
-112,-122,-9,117,-51,-65,107,78,-43,-102,-126,-122
-112,-122,-9,117,-51,-65,117,82,-39,-102,-126,-126
-112,-122,-9,117,-51,-65,117,82,-34,-102,-126,-126
-122,-131,-9,126,-56,-70,126,82,-29,-97,-122,-117
-122,-131,-9,126,-56,-70,126,92,-24,-97,-122,-117
-122,-126,-4,124,-58,-65,131,92,-24,-92,-122,-117
-122,-126,-4,124,-58,-65,131,92,-24,-92,-122,-112
-112,-117,-4,114,-53,-61,122,92,-24,-102,-122,-122
-112,-117,-4,114,-53,-61,122,92,-24,-97,-122,-122
-112,-117,-4,114,-53,-61,122,97,-24,-97,-122,-122
-112,-117,-4,114,-53,-61,122,97,-24,-97,-122,-122
-112,-117,-4,114,-53,-61,126,97,-19,-97,-122,-122
-112,-117,-4,114,-53,-61,126,97,-19,-97,-117,-122
-112,-117,-4,114,-53,-61,126,97,-19,-97,-117,-122
-112,-117,-4,114,-53,-61,126,97,-14,-97,-117,-122
-112,-107,4,109,-58,-51,126,102,-14,-82,-117,-122
-112,-107,4,109,-58,-51,126,102,-14,-82,-117,-122
-112,-102,9,107,-61,-46,126,102,-14,-82,-117,-122
