I,II,III,aVR,aVL,aVF,V1,V2,V3,V4,V5,V6,
-24,-53,-29,39,2,-41,-48,-97,-68,-24,14,19
-29,-48,-19,39,-4,-34,-48,-97,-68,-24,9,19
-29,-48,-19,39,-4,-34,-43,-97,-68,-24,9,19
-29,-48,-19,39,-4,-34,-43,-97,-68,-24,9,14
-29,-43,-14,36,-7,-29,-43,-97,-68,-24,4,4
-29,-43,-14,36,-7,-29,-43,-97,-68,-24,4,4
-29,-43,-14,36,-7,-29,-43,-97,-68,-24,4,9
-29,-43,-14,36,-7,-29,-53,-92,-68,-24,9,9
-29,-48,-19,39,-4,-34,-58,-92,-68,-24,9,9
-24,-48,-24,36,0,-36,-53,-97,-68,-24,9,9
-19,-43,-24,31,2,-34,-53,-97,-68,-24,9,9
-19,-43,-24,31,2,-34,-53,-92,-68,-24,9,9
-24,-43,-19,34,-2,-31,-48,-92,-68,-19,9,9
-24,-48,-24,36,0,-36,-48,-92,-73,-19,9,9
-24,-48,-24,36,0,-36,-48,-92,-73,-19,9,9
-19,-43,-24,31,2,-34,-43,-92,-73,-19,9,9
-19,-34,-14,26,-2,-24,-43,-92,-73,-19,9,9
-19,-34,-14,26,-2,-24,-43,-92,-68,-19,9,14
-19,-34,-14,26,-2,-24,-43,-92,-63,-19,9,19
-14,-29,-14,21,0,-21,-48,-92,-58,-14,9,19
-9,-29,-19,19,4,-24,-53,-87,-58,-14,14,24
-4,-24,-19,14,7,-21,-58,-87,-63,-19,14,19
-4,-24,-19,14,7,-21,-58,-87,-68,-24,14,14
-19,-24,-4,21,-7,-14,-48,-92,-68,-24,14,14
-39,-24,14,31,-26,-4,-24,-126,-53,-24,14,14
-78,-43,34,61,-56,-4,4,-151,-63,-43,-14,-4
-82,-53,29,68,-56,-12,14,-126,-24,-4,4,9
-63,-39,24,51,-43,-7,19,-82,78,122,126,112
29,78,48,-53,-9,63,-29,43,307,429,439,361
185,234,48,-209,68,141,-126,224,517,736,775,639
419,375,-43,-397,231,165,-297,380,595,951,1039,854
771,624,-146,-697,458,239,-561,619,697,1268,1439,1205
1039,829,-209,-934,624,309,-854,688,639,1429,1712,1473
1239,1029,-209,-1134,724,409,-1151,590,395,1439,1859,1659
1385,1122,-263,-1254,824,429,-1424,326,-87,1093,1664,1615
1298,692,-605,-995,951,43,-1517,-204,-932,-43,478,663
1029,258,-771,-644,900,-256,-1629,-1112,-1786,-1137,-649,-244
668,122,-546,-395,607,-212,-1595,-1864,-2220,-1659,-1146,-570
527,43,-483,-285,505,-219,-1429,-1795,-2171,-1708,-1288,-683
380,97,-283,-239,331,-92,-1137,-1517,-1800,-1459,-1137,-614
234,175,-58,-204,146,58,-883,-1239,-1420,-1171,-932,-502
107,209,102,-158,2,156,-658,-936,-1039,-863,-688,-361
9,263,253,-136,-122,258,-448,-658,-697,-580,-458,-214
-39,234,273,-97,-156,253,-292,-502,-502,-424,-341,-156
-63,161,224,-48,-143,192,-175,-370,-361,-322,-268,-136
-53,112,165,-29,-109,139,-97,-195,-209,-195,-180,-107
-53,58,112,-2,-82,85,-24,-53,-97,-102,-117,-73
-53,-4,48,29,-51,21,48,-9,-58,-78,-92,-68
-48,-34,14,41,-31,-9,92,19,-34,-63,-78,-68
-53,-53,0,53,-26,-26,97,58,-4,-39,-68,-68
-63,-58,4,61,-34,-26,102,82,19,-19,-48,-63
-63,-58,4,61,-34,-26,97,73,24,-19,-48,-58
-63,-58,4,61,-34,-26,102,73,29,-19,-48,-58
-63,-78,-14,70,-24,-46,112,82,39,-19,-43,-58
-63,-82,-19,73,-21,-51,112,97,53,-14,-34,-58
-63,-82,-19,73,-21,-51,112,97,53,-9,-34,-53
-68,-82,-14,75,-26,-48,126,97,48,-9,-34,-53
-68,-82,-14,75,-26,-48,126,102,48,-4,-29,-53
-68,-82,-14,75,-26,-48,126,107,58,-4,-29,-53
-68,-87,-19,78,-24,-53,126,112,63,4,-29,-53
-73,-87,-14,80,-29,-51,131,117,68,9,-24,-53
-73,-87,-14,80,-29,-51,136,117,73,14,-24,-53
-78,-87,-9,82,-34,-48,136,117,73,14,-24,-58
-78,-87,-9,82,-34,-48,126,126,78,14,-29,-58
-78,-87,-9,82,-34,-48,122,126,78,14,-29,-58
-78,-87,-9,82,-34,-48,122,131,87,14,-29,-58
-82,-92,-9,87,-36,-51,126,136,92,19,-29,-58
-82,-92,-9,87,-36,-51,141,136,97,24,-24,-58
-82,-87,-4,85,-39,-46,151,136,97,24,-24,-58
-82,-87,-4,85,-39,-46,156,136,102,24,-29,-58
-82,-87,-4,85,-39,-46,161,141,112,24,-29,-63
-87,-92,-4,90,-41,-48,165,141,117,29,-29,-63
-92,-92,0,92,-46,-46,165,151,122,34,-34,-63
-92,-92,0,92,-46,-46,170,151,126,34,-34,-63
-92,-87,4,90,-48,-41,170,156,131,34,-34,-63
-97,-87,9,92,-53,-39,175,156,136,34,-29,-73
-102,-87,14,95,-58,-36,175,170,146,34,-29,-78
-107,-87,19,97,-63,-34,180,175,151,34,-29,-78
-112,-87,24,100,-68,-31,195,180,156,34,-29,-78
-112,-87,24,100,-68,-31,209,190,161,34,-29,-73
-122,-92,29,107,-75,-31,219,190,170,39,-29,-73
-126,-92,34,109,-80,-29,229,190,175,43,-34,-78
-126,-92,34,109,-80,-29,234,195,185,48,-34,-78
-131,-92,39,112,-85,-26,244,204,195,53,-29,-73
-131,-82,48,107,-90,-17,248,214,209,58,-29,-68
-131,-82,48,107,-90,-17,253,229,214,63,-29,-68
-136,-82,53,109,-95,-14,248,244,219,63,-29,-73
-136,-82,53,109,-95,-14,263,253,224,63,-34,-78
-146,-78,68,112,-107,-4,278,263,234,68,-39,-82
-151,-82,68,117,-109,-7,297,268,253,68,-39,-87
-156,-87,68,122,-112,-9,312,283,258,73,-39,-87
-165,-87,78,126,-122,-4,326,292,273,78,-43,-92
-175,-87,87,131,-131,0,346,302,287,82,-43,-97
-175,-82,92,129,-134,4,356,317,297,82,-48,-97
-185,-78,107,131,-146,14,375,331,322,82,-48,-102
-190,-73,117,131,-153,21,370,341,326,87,-53,-112
-200,-73,126,136,-163,26,390,351,331,92,-58,-112
-209,-73,136,141,-173,31,409,361,346,92,-63,-126
-229,-73,156,151,-192,41,429,370,366,87,-68,-131
-239,-68,170,153,-204,51,444,375,380,82,-78,-141
-253,-68,185,161,-219,58,463,380,390,78,-92,-161
-273,-63,209,168,-241,73,478,390,400,73,-102,-165
-287,-58,229,173,-258,85,488,390,400,63,-117,-175
-297,-63,234,180,-265,85,502,390,400,53,-131,-185
-307,-63,244,185,-275,90,512,385,405,39,-151,-204
-322,-73,248,197,-285,87,531,370,405,29,-170,-229
-331,-82,248,207,-290,82,541,361,390,14,-200,-248
-351,-82,268,217,-309,92,541,346,380,-4,-214,-258
-366,-87,278,226,-322,95,531,326,370,-24,-244,-273
-366,-87,278,226,-322,95,522,307,356,-53,-263,-292
-370,-87,283,229,-326,97,502,297,331,-73,-283,-312
-370,-87,283,229,-326,97,492,268,302,-92,-302,-317
-366,-87,278,226,-322,95,473,244,278,-112,-317,-322
-351,-78,273,214,-312,97,434,209,244,-122,-322,-326
-341,-78,263,209,-302,92,414,175,224,-136,-322,-326
-341,-68,273,204,-307,102,375,146,185,-146,-322,-317
-326,-63,263,195,-295,100,326,117,156,-151,-312,-302
-292,-58,234,175,-263,87,292,92,126,-156,-302,-283
-258,-48,209,153,-234,80,258,68,97,-156,-283,-263
-224,-43,180,134,-202,68,219,48,82,-151,-263,-244
-195,-34,161,114,-178,63,185,24,63,-141,-239,-214
-170,-24,146,97,-158,61,146,9,43,-122,-200,-180
-141,-14,126,78,-134,56,117,-4,34,-107,-165,-146
-122,-9,112,65,-117,51,92,-9,19,-82,-131,-122
-87,0,87,43,-87,43,63,-14,4,-68,-102,-97
-58,9,68,24,-63,39,29,-24,0,-53,-82,-68
-29,9,39,9,-34,24,14,-29,-4,-34,-48,-43
-14,9,24,2,-19,17,-14,-34,-9,-24,-29,-24
-4,4,9,0,-7,7,-39,-43,-9,-9,-9,-4
9,14,4,-12,2,9,-58,-43,-14,0,9,9
19,19,0,-19,9,9,-63,-48,-14,9,29,24
29,24,-4,-26,17,9,-68,-48,-24,4,34,29
29,29,0,-29,14,14,-73,-48,-29,14,43,39
29,29,0,-29,14,14,-78,-53,-29,14,53,43
34,29,-4,-31,19,12,-78,-53,-34,14,58,48
39,29,-9,-34,24,9,-87,-53,-29,24,58,58
39,29,-9,-34,24,9,-87,-53,-24,34,63,63
39,29,-9,-34,24,9,-87,-48,-19,34,68,63
34,29,-4,-31,19,12,-87,-48,-19,39,68,68
34,39,4,-36,14,21,-82,-48,-24,34,68,68
34,39,4,-36,14,21,-82,-48,-24,34,63,63
34,34,0,-34,17,17,-82,-48,-24,34,63,63
34,34,0,-34,17,17,-82,-43,-24,34,63,63
34,34,0,-34,17,17,-78,-43,-19,34,73,68
39,34,-4,-36,21,14,-73,-43,-19,34,82,73
43,29,-14,-36,29,7,-68,-39,-19,34,68,68
43,24,-19,-34,31,2,-68,-39,-19,34,58,63
43,24,-19,-34,31,2,-63,-34,-19,34,58,63
43,24,-19,-34,31,2,-63,-29,-19,34,58,63
34,24,-9,-29,21,7,-68,-29,-14,34,58,63
24,24,0,-24,12,12,-68,-29,-4,34,58,63
24,29,4,-26,9,17,-58,-29,-4,34,58,63
24,39,14,-31,4,26,-58,-24,-4,34,53,58
24,14,-9,-19,17,2,-53,-19,-4,39,58,53
19,0,-19,-9,19,-9,-48,-14,0,43,63,53
14,0,-14,-7,14,-7,-48,-14,0,43,58,53
14,0,-14,-7,14,-7,-48,-14,0,43,58,53
14,4,-9,-9,12,-2,-53,-14,0,39,53,53
9,9,0,-9,4,4,-58,-14,0,34,48,53
9,4,-4,-7,7,0,-48,-14,-4,34,48,43
9,4,-4,-7,7,0,-48,-9,-4,29,43,39
9,0,-9,-4,9,-4,-48,-14,-4,29,43,39
9,-9,-19,0,14,-14,-48,-24,-4,29,43,39
4,-9,-14,2,9,-12,-43,-24,-4,24,43,39
0,-9,-9,4,4,-9,-43,-24,-9,19,39,29
-4,-14,-9,9,2,-12,-43,-24,-14,9,29,24
-4,-19,-14,12,4,-17,-48,-24,-14,9,29,24
0,-19,-19,9,9,-19,-48,-24,-14,9,29,19
4,-19,-24,7,14,-21,-48,-29,-14,4,24,14
4,-19,-24,7,14,-21,-48,-34,-19,4,24,14
4,-19,-24,7,14,-21,-43,-39,-24,0,19,14
4,-14,-19,4,12,-17,-43,-39,-24,0,14,14
4,-9,-14,2,9,-12,-43,-43,-24,0,14,14
4,-9,-14,2,9,-12,-43,-43,-34,0,14,14
4,-14,-19,4,12,-17,-43,-43,-34,-4,14,14
0,-14,-14,7,7,-14,-43,-48,-34,-9,14,14
-4,-14,-9,9,2,-12,-39,-48,-39,-9,14,14
0,-14,-14,7,7,-14,-39,-48,-39,-4,14,9
0,-14,-14,7,7,-14,-39,-53,-39,0,14,9
0,-19,-19,9,9,-19,-48,-48,-43,-4,14,9
4,-24,-29,9,17,-26,-53,-43,-53,-9,9,9
4,-24,-29,9,17,-26,-53,-48,-53,-14,4,4
4,-24,-29,9,17,-26,-58,-48,-53,-19,4,4
4,-24,-29,9,17,-26,-58,-53,-53,-19,4,9
4,-24,-29,9,17,-26,-58,-53,-53,-19,4,9
4,-24,-29,9,17,-26,-58,-53,-53,-19,4,9
4,-24,-29,9,17,-26,-58,-53,-58,-19,0,9
4,-24,-29,9,17,-26,-63,-53,-58,-19,0,9
9,-24,-34,7,21,-29,-63,-53,-58,-19,4,9
9,-19,-29,4,19,-24,-68,-53,-58,-14,9,14
4,-14,-19,4,12,-17,-73,-58,-63,-14,14,19
4,-14,-19,4,12,-17,-73,-63,-63,-14,14,14
4,-14,-19,4,12,-17,-73,-63,-63,-14,14,14
4,-19,-24,7,14,-21,-63,-63,-68,-19,9,14
4,-24,-29,9,17,-26,-58,-68,-73,-24,4,9
4,-24,-29,9,17,-26,-53,-73,-73,-24,4,14
4,-24,-29,9,17,-26,-48,-78,-73,-24,9,14
4,-19,-24,7,14,-21,-53,-78,-68,-24,9,14
4,-14,-19,4,12,-17,-58,-78,-68,-24,4,14
9,-14,-24,2,17,-19,-63,-82,-68,-24,0,14
9,-14,-24,2,17,-19,-68,-82,-68,-24,-4,9
9,-14,-24,2,17,-19,-68,-82,-63,-24,-4,4
4,-14,-19,4,12,-17,-73,-82,-63,-24,-4,4
-4,-14,-9,9,2,-12,-68,-82,-63,-24,0,9
-9,-14,-4,12,-2,-9,-68,-78,-63,-24,9,14
-4,-14,-9,9,2,-12,-68,-78,-63,-24,9,14
-4,-19,-14,12,4,-17,-63,-78,-68,-24,4,14
-4,-24,-19,14,7,-21,-58,-82,-73,-34,0,9
-9,-29,-19,19,4,-24,-53,-82,-78,-43,0,4
-9,-29,-19,19,4,-24,-53,-82,-78,-34,0,4
-4,-19,-14,12,4,-17,-58,-82,-78,-24,0,4
-4,-19,-14,12,4,-17,-68,-82,-73,-24,4,14
0,-19,-19,9,9,-19,-78,-82,-73,-24,9,24
0,-19,-19,9,9,-19,-78,-82,-68,-24,9,24
0,-19,-19,9,9,-19,-78,-82,-68,-24,9,24
0,-14,-14,7,7,-14,-68,-87,-68,-24,9,19
0,-14,-14,7,7,-14,-58,-82,-63,-19,9,19
4,-14,-19,4,12,-17,-48,-73,-58,-14,9,19
14,-14,-29,0,21,-21,-43,-68,-58,-9,14,19
19,0,-19,-9,19,-9,-39,-63,-53,-4,19,29
29,9,-19,-19,24,-4,-39,-58,-48,0,29,39
24,24,0,-24,12,12,-29,-53,-34,14,43,48
19,39,19,-29,0,29,-19,-48,-19,29,58,58
19,43,24,-31,-2,34,-19,-39,-9,34,58,58
19,48,29,-34,-4,39,-19,-29,0,39,58,58
34,53,19,-43,7,36,-29,-29,0,39,58,58
48,58,9,-53,19,34,-39,-29,0,39,58,58
48,63,14,-56,17,39,-58,-34,-4,39,63,58
48,68,19,-58,14,43,-78,-39,-9,39,68,58
53,78,24,-65,14,51,-87,-43,-9,39,68,63
58,87,29,-73,14,58,-97,-48,-9,39,68,68
63,92,29,-78,17,61,-97,-48,-9,39,68,73
68,97,29,-82,19,63,-97,-48,-9,39,68,78
87,107,19,-97,34,63,-117,-63,-29,39,68,78
107,117,9,-112,48,63,-136,-78,-48,39,68,78
117,117,0,-117,58,58,-146,-78,-48,34,63,78
117,112,-4,-114,61,53,-146,-78,-48,29,58,78
122,107,-14,-114,68,46,-151,-78,-48,29,58,78
117,82,-34,-100,75,24,-146,-78,-53,19,58,73
126,68,-58,-97,92,4,-131,-78,-63,9,48,63
122,58,-63,-90,92,-2,-122,-73,-73,0,43,58
82,48,-34,-65,58,7,-107,-63,-63,4,43,58
53,43,-9,-48,31,17,-87,-48,-53,14,43,58
34,34,0,-34,17,17,-73,-43,-34,24,53,73
19,9,-9,-14,14,0,-68,-34,-29,29,53,68
0,-4,-4,2,2,-4,-68,-73,-58,0,24,34
-9,-19,-9,14,0,-14,-68,-97,-87,-29,0,9
-14,-39,-24,26,4,-31,-68,-97,-92,-39,-14,0
-19,-53,-34,36,7,-43,-68,-97,-97,-43,-24,-9
-19,-58,-39,39,9,-48,-63,-97,-97,-43,-19,-9
-19,-58,-39,39,9,-48,-63,-97,-97,-43,-19,-9
-19,-48,-29,34,4,-39,-63,-102,-97,-43,-19,-9
-19,-43,-24,31,2,-34,-63,-107,-97,-43,-14,-4
-19,-39,-19,29,0,-29,-68,-107,-92,-43,-14,0
-19,-34,-14,26,-2,-24,-73,-102,-87,-43,-9,0
-19,-39,-19,29,0,-29,-68,-102,-87,-43,-9,0
-19,-39,-19,29,0,-29,-63,-107,-87,-43,-9,0
-24,-43,-19,34,-2,-31,-53,-107,-87,-43,-9,0
-29,-53,-24,41,-2,-39,-48,-102,-87,-43,-9,0
-34,-53,-19,43,-7,-36,-48,-102,-87,-34,-9,0
-34,-58,-24,46,-4,-41,-48,-102,-87,-29,-9,0
-34,-58,-24,46,-4,-41,-48,-102,-82,-29,-9,0
-29,-58,-29,43,0,-43,-43,-102,-82,-29,-9,0
-29,-53,-24,41,-2,-39,-43,-102,-82,-34,-14,0
-29,-53,-24,41,-2,-39,-43,-102,-82,-39,-19,0
-29,-53,-24,41,-2,-39,-43,-102,-82,-39,-19,-4
-29,-48,-19,39,-4,-34,-43,-102,-78,-34,-19,-9
-24,-48,-24,36,0,-36,-48,-97,-82,-34,-14,-4
-14,-43,-29,29,7,-36,-58,-97,-87,-34,-14,-4
-14,-43,-29,29,7,-36,-63,-97,-87,-34,-14,-4
-29,-43,-14,36,-7,-29,-58,-102,-82,-34,-14,-4
-63,-43,19,53,-41,-12,-34,-141,-68,-43,-19,-4
-102,-53,48,78,-75,-2,-14,-156,-63,-43,-19,0
-92,-68,24,80,-58,-21,-9,-126,-29,-14,-9,0
-43,-39,4,41,-24,-17,-19,-63,68,107,112,102
58,92,34,-75,12,63,-53,82,326,448,448,370
219,239,19,-229,100,129,-131,253,527,756,775,644
478,375,-102,-427,290,136,-297,424,619,980,1058,873
785,614,-170,-700,478,222,-541,600,702,1249,1410,1185
1034,858,-175,-946,605,341,-834,600,663,1434,1698,1478
1185,1005,-180,-1095,683,412,-1093,409,366,1322,1693,1542
1283,1073,-209,-1178,746,431,-1351,73,-204,849,1390,1410
1161,751,-409,-956,785,170,-1444,-463,-956,-131,395,624
805,307,-497,-556,651,-95,-1581,-1517,-1878,-1254,-775,-302
468,151,-317,-309,392,-82,-1551,-2166,-2274,-1732,-1249,-634
400,87,-312,-244,356,-112,-1366,-1873,-2108,-1673,-1283,-688
283,112,-170,-197,226,-29,-1107,-1586,-1781,-1459,-1156,-644
146,175,29,-161,58,102,-849,-1293,-1400,-1161,-941,-531
53,195,141,-124,-43,168,-629,-980,-1044,-873,-712,-395
-19,239,258,-109,-139,248,-414,-668,-702,-590,-483,-244
-63,214,278,-75,-170,246,-248,-478,-492,-424,-361,-180
-73,141,214,-34,-143,178,-146,-351,-361,-331,-297,-165
-63,92,156,-14,-109,124,-78,-195,-224,-214,-209,-136
-63,34,97,14,-80,65,-14,-58,-112,-122,-141,-102
-63,-34,29,48,-46,-2,39,-4,-63,-87,-112,-97
-58,-63,-4,61,-26,-34,63,24,-43,-73,-97,-97
-58,-78,-19,68,-19,-48,68,63,-19,-53,-92,-97
-63,-78,-14,70,-24,-46,78,82,4,-39,-73,-92
-63,-78,-14,70,-24,-46,82,73,9,-39,-68,-87
-58,-78,-19,68,-19,-48,92,73,9,-39,-68,-87
-53,-92,-39,73,-7,-65,102,82,19,-34,-63,-87
-53,-92,-39,73,-7,-65,102,97,34,-24,-53,-87
-53,-92,-39,73,-7,-65,102,97,39,-19,-53,-82
-58,-97,-39,78,-9,-68,117,97,39,-19,-53,-82
-58,-102,-43,80,-7,-73,117,97,39,-14,-48,-82
-63,-102,-39,82,-12,-70,117,97,48,-14,-48,-82
-68,-107,-39,87,-14,-73,117,102,53,-9,-48,-82
-73,-107,-34,90,-19,-70,122,107,58,-9,-43,-82
-73,-107,-34,90,-19,-70,126,107,63,-4,-43,-82
-73,-107,-34,90,-19,-70,126,107,63,-4,-43,-87
-68,-107,-39,87,-14,-73,126,117,68,-4,-48,-87
-68,-107,-39,87,-14,-73,136,117,68,0,-43,-78
-68,-107,-39,87,-14,-73,141,122,78,4,-39,-68
-73,-112,-39,92,-17,-75,146,126,82,9,-39,-68
-73,-112,-39,92,-17,-75,151,131,87,14,-34,-68
-73,-107,-34,90,-19,-70,146,136,82,9,-34,-73
-73,-107,-34,90,-19,-70,146,136,82,4,-39,-78
-73,-107,-34,90,-19,-70,151,141,92,4,-43,-82
-78,-112,-34,95,-21,-73,156,141,97,9,-43,-82
-82,-112,-29,97,-26,-70,156,151,102,14,-43,-82
-82,-112,-29,97,-26,-70,161,151,107,14,-43,-82
-82,-107,-24,95,-29,-65,161,156,112,14,-43,-82
-82,-107,-24,95,-29,-65,170,156,117,14,-43,-87
-82,-107,-24,95,-29,-65,170,170,126,14,-48,-92
-87,-107,-19,97,-34,-63,170,175,131,19,-48,-97
-87,-107,-19,97,-34,-63,185,185,136,24,-48,-97
-82,-107,-24,95,-29,-65,195,200,141,24,-48,-97
-92,-117,-24,104,-34,-70,200,200,151,29,-43,-97
-97,-122,-24,109,-36,-73,209,204,156,29,-43,-97
-97,-122,-24,109,-36,-73,219,214,165,39,-43,-97
-102,-122,-19,112,-41,-70,234,224,175,53,-39,-97
-102,-112,-9,107,-46,-61,239,234,185,48,-43,-102
-107,-112,-4,109,-51,-58,248,244,190,43,-48,-107
-117,-112,4,114,-61,-53,248,253,200,43,-48,-112
-117,-112,4,114,-61,-53,263,263,209,48,-48,-112
-126,-102,24,114,-75,-39,278,273,224,58,-48,-107
-131,-97,34,114,-82,-31,297,283,244,58,-48,-107
-136,-97,39,117,-87,-29,312,302,248,63,-48,-107
-146,-97,48,122,-97,-24,326,312,263,68,-53,-112
-156,-92,63,124,-109,-14,341,326,283,78,-43,-112
-156,-87,68,122,-112,-9,346,346,297,82,-43,-112
-161,-87,73,124,-117,-7,366,361,322,82,-48,-122
-161,-82,78,122,-119,-2,366,370,331,87,-53,-131
-170,-87,82,129,-126,-2,395,380,341,92,-58,-131
-180,-92,87,136,-134,-2,419,390,356,92,-63,-146
-200,-92,107,146,-153,7,439,400,375,87,-68,-151
-209,-87,122,148,-165,17,448,405,385,82,-82,-161
-224,-87,136,156,-180,24,463,409,395,78,-102,-180
-244,-87,156,165,-200,34,478,419,409,73,-112,-190
-258,-87,170,173,-214,41,488,419,409,63,-126,-204
-268,-92,175,180,-222,41,502,419,409,53,-141,-214
-278,-92,185,185,-231,46,512,424,414,43,-161,-234
-292,-92,200,192,-246,53,522,419,414,34,-180,-253
-302,-92,209,197,-256,58,527,414,400,19,-204,-268
-317,-92,224,204,-270,65,531,405,390,4,-214,-278
-326,-97,229,212,-278,65,522,385,380,-14,-244,-292
-326,-102,224,214,-275,61,512,356,361,-43,-263,-312
-331,-112,219,222,-275,53,492,336,326,-73,-287,-341
-331,-117,214,224,-273,48,483,307,292,-102,-307,-356
-326,-117,209,222,-268,46,468,283,268,-122,-317,-361
-312,-107,204,209,-258,48,434,253,234,-131,-322,-361
-302,-107,195,204,-248,43,414,224,219,-141,-322,-356
-292,-97,195,195,-244,48,375,195,185,-146,-322,-346
-278,-92,185,185,-231,46,326,156,156,-151,-322,-331
-263,-87,175,175,-219,43,292,122,126,-156,-322,-312
-239,-73,165,156,-202,46,258,97,97,-161,-302,-292
-204,-63,141,134,-173,39,219,78,82,-156,-278,-268
-175,-53,122,114,-148,34,185,53,63,-141,-248,-234
-151,-43,107,97,-129,31,146,39,43,-122,-209,-200
-122,-34,87,78,-104,26,112,19,34,-107,-175,-165
-102,-29,73,65,-87,21,82,4,19,-82,-141,-136
-63,-19,43,41,-53,12,48,-9,4,-68,-112,-107
-39,-9,29,24,-34,9,9,-24,0,-53,-87,-78
-19,-9,9,14,-14,0,-4,-29,-4,-34,-48,-53
-4,-4,0,4,-2,-2,-24,-29,-9,-24,-29,-34
0,-9,-9,4,4,-9,-29,-39,-14,-9,-9,-14
9,-4,-14,-2,12,-9,-34,-43,-24,0,4,0
19,-4,-24,-7,21,-14,-34,-48,-24,0,14,14
29,-9,-39,-9,34,-24,-39,-48,-29,-9,14,19
24,-9,-34,-7,29,-21,-48,-48,-29,4,24,29
19,-9,-29,-4,24,-19,-58,-53,-29,4,34,34
24,0,-24,-12,24,-12,-58,-53,-34,9,43,43
29,9,-19,-19,24,-4,-68,-53,-34,19,48,53
34,9,-24,-21,29,-7,-68,-53,-34,24,53,53
39,9,-29,-24,34,-9,-68,-48,-29,24,58,53
34,4,-29,-19,31,-12,-68,-48,-29,29,58,58
34,9,-24,-21,29,-7,-63,-48,-29,29,63,63
34,9,-24,-21,29,-7,-68,-48,-24,34,63,63
34,4,-29,-19,31,-12,-73,-48,-24,34,63,63
34,9,-24,-21,29,-7,-73,-39,-19,34,63,63
34,14,-19,-24,26,-2,-73,-34,-9,34,63,63
39,14,-24,-26,31,-4,-73,-34,-9,34,63,63
39,9,-29,-24,34,-9,-68,-29,-9,34,58,58
34,-4,-39,-14,36,-21,-63,-29,-14,34,53,48
34,-14,-48,-9,41,-31,-53,-24,-19,34,48,43
34,-14,-48,-9,41,-31,-43,-24,-19,34,48,43
29,-14,-43,-7,36,-29,-34,-29,-19,34,48,43
24,-9,-34,-7,29,-21,-39,-29,-14,34,48,43
24,-9,-34,-7,29,-21,-39,-29,-14,34,48,43
24,-9,-34,-7,29,-21,-39,-24,-14,34,43,39
24,-19,-43,-2,34,-31,-39,-24,-14,34,43,34
19,-19,-39,0,29,-29,-29,-24,-4,34,48,34
14,-19,-34,2,24,-26,-19,-24,0,34,48,34
19,-9,-29,-4,24,-19,-29,-24,0,34,58,39
24,0,-24,-12,24,-12,-39,-24,0,29,63,43
19,-9,-29,-4,24,-19,-43,-19,0,24,48,43
19,-24,-43,2,31,-34,-39,-14,-4,24,39,34
19,-24,-43,2,31,-34,-39,-9,-4,19,34,29
19,-24,-43,2,31,-34,-39,-9,-4,19,34,29
19,-29,-48,4,34,-39,-34,-19,-4,29,34,29
19,-29,-48,4,34,-39,-29,-24,-4,34,34,29
19,-29,-48,4,34,-39,-34,-24,-9,19,29,19
14,-34,-48,9,31,-41,-34,-24,-14,0,19,14
14,-39,-53,12,34,-46,-43,-24,-14,0,19,14
14,-39,-53,12,34,-46,-48,-24,-14,4,24,14
14,-39,-53,12,34,-46,-48,-29,-14,4,24,9
14,-39,-53,12,34,-46,-48,-34,-19,4,24,4
14,-39,-53,12,34,-46,-43,-39,-29,-4,19,4
14,-39,-53,12,34,-46,-43,-39,-34,-9,14,4
9,-39,-48,14,29,-43,-39,-43,-34,-9,14,9
4,-39,-43,17,24,-41,-34,-43,-43,-9,14,14
4,-43,-48,19,26,-46,-34,-43,-43,-9,14,14
4,-43,-48,19,26,-46,-39,-48,-43,-9,14,14
4,-43,-48,19,26,-46,-39,-43,-48,-9,14,14
9,-43,-53,17,31,-48,-39,-39,-48,-9,14,9
9,-43,-53,17,31,-48,-39,-43,-43,-4,14,9
4,-43,-48,19,26,-46,-43,-43,-43,-4,14,9
4,-39,-43,17,24,-41,-48,-43,-53,-4,19,14
4,-34,-39,14,21,-36,-53,-48,-53,0,24,14
9,-34,-43,12,26,-39,-58,-48,-53,0,24,14
14,-34,-48,9,31,-41,-58,-53,-53,0,24,19
14,-34,-48,9,31,-41,-58,-53,-53,-9,19,19
14,-34,-48,9,31,-41,-58,-53,-53,-19,14,19
9,-34,-43,12,26,-39,-53,-58,-58,-19,9,19
4,-34,-39,14,21,-36,-53,-63,-58,-19,9,19
9,-34,-43,12,26,-39,-53,-63,-58,-14,14,19
9,-34,-43,12,26,-39,-53,-63,-58,-9,14,19
4,-48,-53,21,29,-51,-53,-63,-63,-14,14,19
4,-63,-68,29,36,-65,-53,-63,-63,-14,14,14
0,-53,-53,26,26,-53,-53,-63,-63,-14,14,9
-4,-43,-39,24,17,-41,-48,-63,-63,-14,14,9
-4,-43,-39,24,17,-41,-48,-68,-63,-14,14,9
-4,-43,-39,24,17,-41,-48,-68,-63,-14,14,14
-4,-43,-39,24,17,-41,-53,-68,-63,-14,19,14
-4,-43,-39,24,17,-41,-63,-68,-63,-14,19,14
-4,-43,-39,24,17,-41,-68,-68,-68,-14,14,19
0,-43,-43,21,21,-43,-68,-73,-68,-14,14,24
4,-43,-48,19,26,-46,-68,-73,-68,-14,14,19
9,-43,-53,17,31,-48,-63,-73,-63,-14,14,14
4,-43,-48,19,26,-46,-63,-78,-63,-14,14,19
0,-43,-43,21,21,-43,-58,-82,-63,-14,14,29
0,-48,-48,24,24,-48,-58,-78,-63,-14,19,34
4,-53,-58,24,31,-56,-63,-78,-63,-14,19,34
4,-58,-63,26,34,-61,-63,-78,-68,-14,14,29
4,-58,-63,26,34,-61,-63,-82,-68,-14,14,24
0,-58,-58,29,29,-58,-58,-78,-68,-14,19,24
0,-58,-58,29,29,-58,-53,-73,-68,-14,19,24
4,-43,-48,19,26,-46,-58,-73,-68,-14,19,24
4,-39,-43,17,24,-41,-58,-73,-63,-14,19,24
9,-39,-48,14,29,-43,-48,-73,-58,-4,19,29
9,-39,-48,14,29,-43,-39,-73,-53,4,19,34
14,-24,-39,4,26,-31,-39,-58,-48,9,34,39
19,-4,-24,-7,21,-14,-34,-48,-39,14,48,43
29,14,-14,-21,21,0,-34,-48,-24,24,58,58
34,39,4,-36,14,21,-24,-39,-9,34,73,82
34,39,4,-36,14,21,-29,-39,-9,43,73,82
39,39,0,-39,19,19,-39,-39,-9,58,78,87
39,39,0,-39,19,19,-39,-39,0,58,78,87
39,39,0,-39,19,19,-39,-39,9,58,78,87
43,39,-4,-41,24,17,-48,-48,0,58,78,87
48,39,-9,-43,29,14,-58,-58,-9,58,78,87
58,53,-4,-56,31,24,-78,-58,-9,58,78,87
68,68,0,-68,34,34,-97,-58,-9,58,78,87
82,78,-4,-80,43,36,-107,-63,-19,48,78,87
97,87,-9,-92,53,39,-117,-68,-29,39,78,87
102,87,-14,-95,58,36,-122,-73,-39,34,73,87
107,92,-14,-100,61,39,-126,-73,-43,29,68,87
112,97,-14,-104,63,41,-131,-78,-48,29,68,87
112,102,-9,-107,61,46,-141,-78,-48,29,68,87
107,73,-34,-90,70,19,-146,-78,-63,14,68,82
102,48,-53,-75,78,-2,-141,-78,-73,9,63,78
92,39,-53,-65,73,-7,-131,-73,-73,9,53,68
73,29,-43,-51,58,-7,-117,-68,-63,14,43,58
53,24,-29,-39,41,-2,-73,-48,-43,34,58,68
34,9,-24,-21,29,-7,-39,-53,-34,34,68,78
14,-19,-34,2,24,-26,-39,-63,-48,19,53,58
0,-34,-34,17,17,-34,-39,-82,-63,4,34,34
-4,-53,-48,29,21,-51,-53,-92,-87,-14,14,19
-14,-63,-48,39,17,-56,-68,-97,-97,-24,4,19
-19,-63,-43,41,12,-53,-68,-97,-97,-24,4,19
-19,-68,-48,43,14,-58,-63,-97,-97,-24,9,19
-19,-73,-53,46,17,-63,-58,-97,-92,-24,9,19
-19,-73,-53,46,17,-63,-53,-97,-87,-24,4,14
-19,-78,-58,48,19,-68,-53,-97,-87,-24,4,14
-19,-82,-63,51,21,-73,-53,-97,-87,-24,4,19
-19,-82,-63,51,21,-73,-48,-92,-87,-29,0,9
-19,-87,-68,53,24,-78,-39,-92,-87,-34,-9,0
-19,-87,-68,53,24,-78,-34,-97,-87,-34,-9,0
-19,-82,-63,51,21,-73,-34,-97,-87,-34,-9,0
-19,-82,-63,51,21,-73,-48,-102,-87,-34,-9,0
-24,-82,-58,53,17,-70,-58,-112,-87,-29,-9,0
-24,-87,-63,56,19,-75,-48,-102,-87,-29,-4,0
-24,-87,-63,56,19,-75,-39,-92,-82,-29,0,0
-19,-87,-68,53,24,-78,-34,-92,-82,-24,4,9
-19,-82,-63,51,21,-73,-34,-92,-82,-19,9,19
-19,-82,-63,51,21,-73,-39,-92,-82,-19,9,19
-19,-82,-63,51,21,-73,-43,-92,-82,-19,9,19
-19,-78,-58,48,19,-68,-43,-92,-78,-19,4,14
-19,-78,-58,48,19,-68,-43,-87,-78,-24,4,14
-14,-73,-58,43,21,-65,-48,-87,-78,-24,4,14
-14,-73,-58,43,21,-65,-48,-87,-78,-24,4,14
-29,-73,-43,51,7,-58,-39,-92,-78,-24,0,9
-48,-73,-24,61,-12,-48,-14,-126,-63,-24,-4,4
-78,-92,-14,85,-31,-53,9,-141,-68,-39,-19,-4
-73,-102,-29,87,-21,-65,14,-107,-24,4,14,19
-48,-78,-29,63,-9,-53,19,-58,87,146,151,131
48,48,0,-48,24,24,-29,73,326,468,478,390
195,190,-4,-192,100,92,-102,263,556,800,844,697
419,317,-102,-368,261,107,-248,429,653,1039,1137,941
741,610,-131,-675,436,239,-512,634,790,1390,1566,1317
980,858,-122,-919,551,368,-805,668,766,1586,1869,1610
1127,1044,-82,-1085,605,480,-1073,492,448,1498,1922,1737
1220,1122,-97,-1171,658,512,-1317,151,-107,1054,1634,1634
1093,717,-375,-905,734,170,-1405,-414,-1000,-117,409,663
785,307,-478,-546,631,-85,-1512,-1356,-1903,-1244,-756,-263
458,165,-292,-312,375,-63,-1498,-2030,-2303,-1737,-1224,-580
351,82,-268,-217,309,-92,-1351,-1883,-2220,-1756,-1337,-683
244,97,-146,-170,195,-24,-1068,-1590,-1849,-1517,-1200,-653
136,136,0,-136,68,68,-824,-1298,-1468,-1239,-1010,-580
43,156,112,-100,-34,134,-614,-956,-1078,-912,-751,-424
-19,195,214,-87,-117,204,-419,-639,-727,-610,-507,-263
-53,170,224,-58,-139,197,-263,-488,-531,-453,-390,-204
-63,102,165,-19,-114,134,-146,-361,-390,-351,-317,-185
-48,53,102,-2,-75,78,-78,-180,-229,-214,-214,-131
-43,0,43,21,-43,21,-14,-34,-107,-112,-136,-73
-43,-63,-19,53,-12,-41,53,4,-73,-87,-112,-82
-39,-92,-53,65,7,-73,92,29,-53,-73,-97,-97
-39,-112,-73,75,17,-92,97,63,-19,-53,-87,-97
-43,-117,-73,80,14,-95,102,82,9,-39,-68,-92
-48,-117,-68,82,9,-92,102,78,9,-34,-63,-78
-53,-117,-63,85,4,-90,112,82,9,-29,-58,-68
-53,-131,-78,92,12,-104,112,92,19,-24,-53,-68
-53,-131,-78,92,12,-104,102,107,34,-14,-43,-68
-53,-131,-78,92,12,-104,102,107,39,-9,-43,-63
-58,-131,-73,95,7,-102,117,107,39,-9,-43,-63
-53,-131,-78,92,12,-104,126,107,39,0,-39,-63
-48,-131,-82,90,17,-107,136,107,48,4,-39,-63
-48,-136,-87,92,19,-112,136,112,53,9,-39,-58
-53,-136,-82,95,14,-109,141,117,58,9,-34,-53
-53,-136,-82,95,14,-109,146,112,63,14,-34,-53
-58,-136,-78,97,9,-107,146,107,63,14,-34,-58
-58,-136,-78,97,9,-107,146,117,68,9,-39,-68
-58,-136,-78,97,9,-107,151,117,68,4,-39,-78
-58,-136,-78,97,9,-107,146,126,78,4,-39,-78
-63,-141,-78,102,7,-109,146,136,82,9,-39,-78
-63,-141,-78,102,7,-109,151,141,87,14,-34,-78
-63,-136,-73,100,4,-104,151,146,87,14,-34,-78
-63,-136,-73,100,4,-104,156,146,92,14,-39,-78
-63,-136,-73,100,4,-104,161,151,102,14,-39,-82
-68,-136,-68,102,0,-102,165,151,112,19,-34,-82
-73,-131,-58,102,-7,-95,165,161,122,24,-34,-82
-73,-131,-58,102,-7,-95,170,161,126,24,-34,-73
-73,-126,-53,100,-9,-90,170,165,131,24,-34,-63
-73,-131,-58,102,-7,-95,185,165,126,24,-34,-78
-73,-136,-63,104,-4,-100,195,180,126,24,-39,-87
-78,-136,-58,107,-9,-97,200,185,141,29,-39,-87
-82,-136,-53,109,-14,-95,214,190,156,34,-39,-87
-82,-131,-48,107,-17,-90,224,200,161,34,-39,-78
-92,-131,-39,112,-26,-85,229,200,170,39,-39,-73
-92,-131,-39,112,-26,-85,229,204,170,39,-48,-87
-87,-131,-43,109,-21,-87,224,214,175,39,-53,-97
-92,-131,-39,112,-26,-85,234,229,185,43,-48,-97
-92,-122,-29,107,-31,-75,239,244,200,48,-48,-97
-97,-122,-24,109,-36,-73,253,253,209,53,-43,-92
-107,-122,-14,114,-46,-68,258,263,219,53,-39,-92
-107,-122,-14,114,-46,-68,283,273,229,58,-39,-92
-117,-117,0,117,-58,-58,307,283,244,68,-39,-92
-122,-117,4,119,-63,-56,317,292,268,78,-39,-97
-126,-117,9,122,-68,-53,322,312,278,92,-39,-97
-131,-117,14,124,-73,-51,336,322,292,87,-43,-107
-136,-117,19,126,-78,-48,356,331,307,82,-43,-117
-136,-117,19,126,-78,-48,366,346,317,82,-53,-122
-146,-117,29,131,-87,-43,385,361,341,82,-58,-131
-161,-112,48,136,-104,-31,385,375,351,87,-63,-141
-180,-112,68,146,-124,-21,409,390,361,92,-68,-141
-180,-112,68,146,-124,-21,429,400,375,92,-73,-156
-190,-112,78,151,-134,-17,448,409,395,87,-78,-161
-200,-107,92,153,-146,-7,458,414,405,87,-92,-170
-214,-107,107,161,-161,0,473,419,409,87,-112,-190
-234,-107,126,170,-180,9,488,429,424,82,-122,-200
-248,-107,141,178,-195,17,497,429,429,73,-136,-214
-258,-112,146,185,-202,17,512,439,429,63,-151,-229
-268,-112,156,190,-212,21,522,444,434,48,-170,-253
-283,-112,170,197,-226,29,531,429,434,34,-190,-273
-292,-112,180,202,-236,34,531,419,419,14,-219,-287
-307,-107,200,207,-253,46,531,405,409,-4,-234,-292
-317,-107,209,212,-263,51,522,385,400,-24,-263,-302
-317,-112,204,214,-261,46,507,356,385,-53,-283,-322
-322,-117,204,219,-263,43,483,336,361,-73,-302,-341
-322,-117,204,219,-263,43,473,307,331,-92,-317,-346
-317,-117,200,217,-258,41,453,283,307,-112,-326,-351
-302,-102,200,202,-251,48,414,253,273,-122,-331,-351
-292,-97,195,195,-244,48,395,224,253,-136,-331,-346
-283,-87,195,185,-239,53,370,190,209,-151,-331,-336
-258,-82,175,170,-217,46,336,156,175,-161,-322,-322
-239,-87,151,163,-195,31,302,131,146,-165,-317,-302
-219,-87,131,153,-175,21,268,107,117,-165,-302,-283
-190,-82,107,136,-148,12,224,82,102,-156,-278,-258
-165,-73,92,119,-129,9,185,53,82,-141,-248,-224
-141,-63,78,102,-109,7,146,39,58,-122,-209,-190
-112,-53,58,82,-85,2,117,24,43,-107,-175,-156
-97,-48,48,73,-73,0,92,14,29,-87,-141,-126
-68,-39,29,53,-48,-4,63,4,14,-78,-112,-97
-48,-29,19,39,-34,-4,29,-14,9,-63,-87,-68
-29,-29,0,29,-14,-14,14,-29,4,-43,-48,-43
-14,-19,-4,17,-4,-12,-4,-29,-4,-29,-24,-24
-4,-14,-9,9,2,-12,-19,-34,-9,-9,0,-4
4,-4,-9,0,7,-7,-39,-34,-14,0,14,9
9,0,-9,-4,9,-4,-43,-39,-14,9,29,24
19,-4,-24,-7,21,-14,-48,-39,-19,9,34,34
19,-9,-29,-4,24,-19,-53,-39,-19,24,43,48
19,-9,-29,-4,24,-19,-48,-43,-19,19,53,53
24,-9,-34,-7,29,-21,-39,-43,-24,14,58,58
29,-9,-39,-9,34,-24,-48,-43,-24,19,58,63
29,-9,-39,-9,34,-24,-48,-43,-24,24,63,63
29,-4,-34,-12,31,-19,-53,-39,-19,29,68,63
24,0,-24,-12,24,-12,-58,-39,-19,39,68,68
24,9,-14,-17,19,-2,-53,-39,-19,39,73,73
24,9,-14,-17,19,-2,-53,-39,-14,43,73,73
24,4,-19,-14,21,-7,-53,-39,-9,43,73,73
24,4,-19,-14,21,-7,-53,-34,-4,43,73,73
24,4,-19,-14,21,-7,-53,-34,0,43,73,73
29,4,-24,-17,26,-9,-53,-34,0,43,73,73
29,0,-29,-14,29,-14,-43,-29,0,43,68,68
24,-4,-29,-9,26,-17,-39,-29,0,43,68,63
24,-4,-29,-9,26,-17,-34,-24,0,43,73,63
24,-4,-29,-9,26,-17,-34,-19,0,43,78,63
19,-4,-24,-7,21,-14,-39,-14,0,43,78,63
14,-4,-19,-4,17,-12,-39,-9,4,43,78,63
14,-9,-24,-2,19,-17,-29,-9,14,48,78,73
14,-9,-24,-2,19,-17,-29,-4,24,53,73,78
19,-14,-34,-2,26,-24,-29,-9,9,53,68,63
19,-9,-29,-4,24,-19,-29,-14,0,53,63,53
14,-9,-24,-2,19,-17,-24,-14,0,48,58,53
14,-9,-24,-2,19,-17,-19,-14,0,43,58,53
14,-9,-24,-2,19,-17,-19,-14,0,39,53,53
9,-9,-19,0,14,-14,-19,-14,0,34,48,53
9,-19,-29,4,19,-24,-9,-14,-4,39,48,43
9,-24,-34,7,21,-29,-9,-9,-4,39,43,39
0,-24,-24,12,12,-24,-9,-9,0,39,48,43
-9,-29,-19,19,4,-24,-9,-14,4,39,53,48
0,-24,-24,12,12,-24,-14,-19,4,34,53,48
9,-19,-29,4,19,-24,-24,-24,0,29,48,39
4,-24,-29,9,17,-26,-29,-24,-4,19,39,34
4,-29,-34,12,19,-31,-39,-24,-4,19,39,34
4,-39,-43,17,24,-41,-39,-19,-4,24,43,34
4,-48,-53,21,29,-51,-39,-19,-4,24,43,34
4,-39,-43,17,24,-41,-39,-24,-9,24,43,34
4,-29,-34,12,19,-31,-34,-29,-14,19,39,34
4,-29,-34,12,19,-31,-29,-29,-14,19,34,34
4,-29,-34,12,19,-31,-24,-34,-14,19,34,34
0,-29,-29,14,14,-29,-24,-34,-24,19,34,34
-4,-34,-29,19,12,-31,-24,-34,-24,14,34,34
-4,-34,-29,19,12,-31,-29,-39,-24,9,34,29
-4,-34,-29,19,12,-31,-29,-39,-29,9,34,24
0,-39,-39,19,19,-39,-29,-39,-29,9,34,19
0,-43,-43,21,21,-43,-29,-43,-29,9,34,19
-4,-43,-39,24,17,-41,-29,-48,-29,4,39,24
-4,-43,-39,24,17,-41,-24,-53,-34,0,39,29
-4,-39,-34,21,14,-36,-24,-58,-34,0,34,24
-4,-34,-29,19,12,-31,-29,-58,-34,0,34,24
0,-34,-34,17,17,-34,-34,-63,-39,0,34,29
4,-34,-39,14,21,-36,-39,-63,-43,0,34,29
4,-34,-39,14,21,-36,-43,-63,-43,-4,34,29
4,-34,-39,14,21,-36,-48,-63,-48,-9,29,29
4,-29,-34,12,19,-31,-53,-63,-48,-9,24,29
9,-24,-34,7,21,-29,-53,-63,-48,-9,24,29
4,-24,-29,9,17,-26,-53,-63,-48,-4,24,29
-4,-24,-19,14,7,-21,-53,-68,-53,-4,24,29
-4,-24,-19,14,7,-21,-53,-73,-53,-4,24,24
-4,-24,-19,14,7,-21,-53,-73,-53,-4,24,24
-4,-24,-19,14,7,-21,-48,-73,-48,-4,24,29
-4,-24,-19,14,7,-21,-48,-78,-43,-4,24,29
-4,-29,-24,17,9,-26,-48,-78,-43,-4,24,34
-4,-34,-29,19,12,-31,-48,-78,-43,-4,29,34
0,-34,-34,17,17,-34,-53,-78,-43,-4,29,34
4,-34,-39,14,21,-36,-58,-78,-48,-4,24,34
9,-34,-43,12,26,-39,-58,-82,-48,-4,29,34
9,-34,-43,12,26,-39,-58,-82,-48,-4,34,29
4,-34,-39,14,21,-36,-39,-82,-48,-4,34,24
-4,-34,-29,19,12,-31,-24,-82,-53,-4,34,24
-9,-29,-19,19,4,-24,-19,-82,-53,-4,29,29
-9,-24,-14,17,2,-19,-19,-78,-53,-4,29,34
0,-24,-24,12,12,-24,-39,-78,-53,-4,29,34
4,-29,-34,12,19,-31,-53,-78,-58,-4,24,34
4,-29,-34,12,19,-31,-53,-82,-58,-4,24,34
0,-29,-29,14,14,-29,-53,-82,-58,-4,29,34
0,-29,-29,14,14,-29,-48,-82,-58,-4,29,34
4,-19,-24,7,14,-21,-48,-82,-58,-4,29,34
4,-14,-19,4,12,-17,-43,-82,-53,-4,29,34
9,-9,-19,0,14,-14,-39,-82,-53,-4,29,34
14,-9,-24,-2,19,-17,-39,-78,-43,4,34,34
19,-9,-29,-4,24,-19,-39,-73,-39,14,39,34
19,9,-9,-14,14,0,-34,-63,-29,24,48,43
19,24,4,-21,7,14,-29,-43,-14,39,58,58
19,39,19,-29,0,29,-14,-39,-4,48,68,73
24,53,29,-39,-2,41,-4,-39,0,58,82,87
29,58,29,-43,0,43,-9,-39,9,63,87,92
39,68,29,-53,4,48,-19,-39,19,68,97,97
39,68,29,-53,4,48,-43,-39,19,63,97,97
39,68,29,-53,4,48,-68,-39,19,58,97,97
43,68,24,-56,9,46,-73,-43,9,58,92,97
48,68,19,-58,14,43,-78,-48,0,58,87,97
58,73,14,-65,21,43,-82,-53,0,53,87,97
68,78,9,-73,29,43,-87,-58,0,48,87,97
73,92,19,-82,26,56,-107,-68,-14,43,87,97
78,107,29,-92,24,68,-126,-78,-29,39,87,97
87,107,19,-97,34,63,-131,-78,-34,34,82,97
92,112,19,-102,36,65,-131,-78,-34,29,78,97
102,117,14,-109,43,65,-131,-78,-39,29,78,97
102,122,19,-112,41,70,-131,-78,-39,29,78,97
112,102,-9,-107,61,46,-136,-82,-48,19,78,92
122,87,-34,-104,78,26,-131,-87,-53,19,73,87
107,78,-29,-92,68,24,-122,-82,-53,19,73,87
82,68,-14,-75,48,26,-107,-78,-43,24,73,87
63,73,9,-68,26,41,-78,-53,-24,43,78,92
43,68,24,-56,9,46,-58,-53,-14,43,78,97
14,24,9,-19,2,17,-58,-48,-19,39,73,87
-9,-4,4,7,-7,0,-58,-53,-24,34,63,73
-9,-24,-14,17,2,-19,-58,-78,-53,4,34,43
-14,-34,-19,24,2,-26,-58,-97,-68,-14,14,29
-19,-43,-24,31,2,-34,-48,-102,-73,-24,4,24
-19,-58,-39,39,9,-48,-34,-107,-78,-34,0,19
-19,-58,-39,39,9,-48,-43,-107,-78,-34,0,19
-19,-53,-34,36,7,-43,-53,-107,-78,-34,-4,14
-19,-53,-34,36,7,-43,-53,-107,-78,-29,0,14
-19,-53,-34,36,7,-43,-53,-107,-78,-24,4,19
-19,-53,-34,36,7,-43,-53,-102,-78,-24,9,19
-19,-58,-39,39,9,-48,-48,-102,-78,-24,9,19
-19,-58,-39,39,9,-48,-43,-107,-78,-24,9,19
-19,-53,-34,36,7,-43,-43,-107,-78,-24,9,19
-19,-53,-34,36,7,-43,-48,-97,-73,-24,9,24
-24,-53,-29,39,2,-41,-48,-92,-68,-19,9,29
-29,-58,-29,43,0,-43,-43,-92,-68,-19,9,29
-34,-58,-24,46,-4,-41,-39,-92,-63,-19,9,29
-29,-58,-29,43,0,-43,-34,-92,-63,-24,9,24
-29,-53,-24,41,-2,-39,-34,-92,-63,-29,9,19
-29,-53,-24,41,-2,-39,-34,-92,-63,-29,9,19
-29,-53,-24,41,-2,-39,-34,-92,-63,-29,9,19
-29,-48,-19,39,-4,-34,-34,-97,-58,-19,14,19
-29,-48,-19,39,-4,-34,-34,-97,-58,-14,24,24
-19,-43,-24,31,2,-34,-39,-97,-58,-14,24,24
-14,-43,-29,29,7,-36,-39,-97,-58,-14,24,24
-29,-39,-9,34,-9,-24,-34,-102,-53,-14,24,24
-48,-34,14,41,-31,-9,-14,-136,-34,-14,24,24
-73,-39,34,56,-53,-2,4,-141,-14,14,43,43
-63,-34,29,48,-46,-2,4,-97,53,102,112,97
-9,14,24,-2,-17,19,-14,-19,190,292,307,263
117,165,48,-141,34,107,-87,141,453,663,692,575
297,351,53,-324,122,202,-219,331,634,985,1068,883
556,522,-34,-539,295,244,-424,497,683,1215,1371,1127
863,756,-107,-810,485,324,-697,658,702,1459,1703,1439
1088,946,-141,-1017,614,402,-1000,649,561,1546,1908,1668
1215,1005,-209,-1110,712,397,-1259,444,141,1263,1737,1595
1288,956,-331,-1122,810,312,-1493,73,-517,624,1224,1293
1141,566,-575,-854,858,-4,-1527,-492,-1298,-448,97,395
814,170,-644,-492,729,-236,-1581,-1434,-2088,-1478,-971,-458
502,82,-419,-292,461,-168,-1478,-1932,-2298,-1786,-1278,-668
409,53,-356,-231,383,-151,-1244,-1610,-2025,-1620,-1229,-663
273,97,-175,-185,224,-39,-961,-1342,-1649,-1361,-1058,-590
136,165,29,-151,53,97,-717,-1073,-1263,-1063,-834,-473
43,185,141,-114,-48,163,-527,-805,-907,-775,-614,-336
-19,224,244,-102,-131,234,-351,-561,-590,-512,-409,-195
-53,195,248,-70,-151,222,-214,-409,-414,-370,-302,-141
-63,122,185,-29,-124,153,-117,-283,-292,-283,-239,-126
-53,73,126,-9,-90,100,-53,-126,-156,-165,-156,-97
-53,19,73,17,-63,46,4,-4,-58,-82,-97,-63
-53,-43,9,48,-31,-17,58,29,-24,-58,-73,-63
-48,-73,-24,61,-12,-48,82,48,-4,-43,-58,-68
-48,-87,-39,68,-4,-63,92,78,19,-29,-53,-68
-53,-87,-34,70,-9,-61,102,92,39,-19,-39,-63
-53,-87,-34,70,-9,-61,102,82,34,-19,-39,-58
-53,-87,-34,70,-9,-61,112,82,29,-19,-39,-58
-58,-102,-43,80,-7,-73,122,92,39,-9,-34,-58
-63,-102,-39,82,-12,-70,122,107,53,4,-24,-58
-63,-102,-39,82,-12,-70,122,107,63,9,-24,-53
-68,-102,-34,85,-17,-68,136,107,68,9,-24,-53
-63,-102,-39,82,-12,-70,136,112,68,9,-24,-58
-58,-102,-43,80,-7,-73,136,117,78,4,-29,-63
-58,-107,-48,82,-4,-78,131,122,82,9,-29,-63
-63,-107,-43,85,-9,-75,131,126,87,9,-24,-63
-63,-107,-43,85,-9,-75,136,126,92,14,-24,-63
-68,-107,-39,87,-14,-73,136,126,92,14,-24,-68
-68,-102,-34,85,-17,-68,141,131,97,14,-24,-63
-68,-97,-29,82,-19,-63,151,126,97,14,-19,-58
-68,-97,-29,82,-19,-63,151,131,107,19,-19,-58
-73,-102,-29,87,-21,-65,156,136,112,29,-19,-58
-78,-107,-29,92,-24,-68,165,141,122,34,-14,-58
-82,-107,-24,95,-29,-65,170,146,126,34,-14,-58
-82,-107,-24,95,-29,-65,175,146,131,34,-19,-58
-82,-107,-24,95,-29,-65,180,151,141,34,-19,-63
-87,-107,-19,97,-34,-63,185,151,146,39,-14,-63
-92,-102,-9,97,-41,-56,185,161,151,43,-14,-63
-92,-102,-9,97,-41,-56,185,165,156,43,-14,-63
-92,-97,-4,95,-43,-51,180,175,161,43,-14,-63
-92,-97,-4,95,-43,-51,190,175,165,43,-14,-68
-92,-97,-4,95,-43,-51,195,190,175,43,-19,-68
-97,-97,0,97,-48,-48,200,190,180,48,-19,-68
-102,-97,4,100,-53,-46,214,190,185,53,-19,-68
-102,-97,4,100,-53,-46,229,200,190,53,-19,-68
-112,-102,9,107,-61,-46,239,200,200,58,-19,-73
-117,-102,14,109,-65,-43,253,204,204,58,-24,-78
-117,-102,14,109,-65,-43,263,214,214,58,-24,-78
-126,-102,24,114,-75,-39,273,224,224,68,-19,-78
-131,-92,39,112,-85,-26,278,234,239,78,-19,-78
-136,-92,43,114,-90,-24,283,244,248,82,-19,-78
-146,-92,53,119,-100,-19,278,253,258,82,-19,-82
-141,-92,48,117,-95,-21,292,263,268,82,-24,-87
-146,-87,58,117,-102,-14,307,273,283,87,-29,-92
-151,-87,63,119,-107,-12,326,283,302,87,-29,-97
-156,-87,68,122,-112,-9,341,302,307,92,-29,-97
-165,-87,78,126,-122,-4,361,312,322,97,-34,-97
-175,-87,87,131,-131,0,385,322,336,102,-34,-97
-175,-87,87,131,-131,0,395,336,346,102,-43,-102
-185,-87,97,136,-141,4,414,351,370,102,-48,-112
-195,-82,112,139,-153,14,414,361,380,102,-58,-126
-209,-82,126,146,-168,21,439,370,390,102,-68,-131
-219,-82,136,151,-178,26,458,375,400,102,-73,-146
-239,-82,156,161,-197,36,478,380,414,97,-78,-151
-244,-78,165,161,-204,43,488,385,424,92,-92,-161
-253,-78,175,165,-214,48,502,390,429,87,-112,-180
-273,-82,190,178,-231,53,517,400,439,82,-122,-190
-287,-87,200,187,-244,56,527,400,439,73,-136,-204
-297,-92,204,195,-251,56,536,395,434,58,-156,-214
-307,-92,214,200,-261,61,541,385,434,39,-180,-234
-322,-87,234,204,-278,73,546,366,429,24,-200,-253
-331,-82,248,207,-290,82,541,351,409,4,-229,-268
-346,-82,263,214,-305,90,541,336,400,-14,-239,-278
-356,-87,268,222,-312,90,531,317,390,-34,-263,-292
-356,-92,263,224,-309,85,531,287,370,-58,-278,-307
-361,-97,263,229,-312,82,522,268,341,-73,-292,-322
-361,-97,263,229,-312,82,502,239,312,-92,-307,-326
-356,-97,258,226,-307,80,473,214,287,-112,-317,-331
-336,-78,258,207,-297,90,419,185,253,-122,-322,-331
-322,-68,253,195,-287,92,385,156,234,-136,-322,-326
-312,-58,253,185,-283,97,356,126,195,-146,-322,-317
-287,-53,234,170,-261,90,317,97,165,-151,-312,-302
-263,-53,209,158,-236,78,283,78,136,-151,-297,-283
-239,-48,190,143,-214,70,248,58,107,-146,-273,-263
-204,-43,161,124,-183,58,209,43,92,-136,-248,-239
-175,-34,141,104,-158,53,175,24,73,-122,-219,-204
-151,-29,122,90,-136,46,136,9,53,-102,-175,-170
-122,-24,97,73,-109,36,107,-4,43,-87,-136,-136
-97,-19,78,58,-87,29,82,-14,29,-63,-102,-107
-58,-9,48,34,-53,19,53,-24,14,-48,-73,-78
-39,0,39,19,-39,19,19,-34,9,-34,-53,-48
-19,0,19,9,-19,9,4,-39,4,-14,-19,-24
-4,4,9,0,-7,7,-4,-34,0,-9,0,-4
4,4,0,-4,2,2,-9,-34,0,0,19,14
19,9,-9,-14,14,0,-24,-34,-4,9,34,29
29,9,-19,-19,24,-4,-24,-39,-4,19,48,43
39,9,-29,-24,34,-9,-34,-39,-9,19,53,48
39,9,-29,-24,34,-9,-43,-39,-9,34,63,58
34,9,-24,-21,29,-7,-48,-43,-9,39,73,63
34,9,-24,-21,29,-7,-48,-43,-14,43,78,68
39,14,-24,-26,31,-4,-58,-43,-9,48,78,73
39,19,-19,-29,29,0,-58,-43,-4,53,82,73
39,19,-19,-29,29,0,-58,-39,0,53,87,73
34,19,-14,-26,24,2,-58,-39,0,58,87,78
34,24,-9,-29,21,7,-53,-39,0,53,87,73
34,19,-14,-26,24,2,-53,-39,4,53,82,63
34,14,-19,-24,26,-2,-53,-34,4,53,82,73
34,14,-19,-24,26,-2,-53,-24,4,53,82,82
34,14,-19,-24,26,-2,-53,-24,9,53,87,82
39,14,-24,-26,31,-4,-53,-24,9,53,92,82
39,14,-24,-26,31,-4,-58,-24,9,53,87,78
34,14,-19,-24,26,-2,-68,-29,9,53,87,73
34,14,-19,-24,26,-2,-53,-24,9,53,82,73
34,14,-19,-24,26,-2,-43,-19,9,53,78,73
29,14,-14,-21,21,0,-43,-19,9,53,78,73
24,14,-9,-19,17,2,-39,-19,14,53,78,73
24,9,-14,-17,19,-2,-29,-19,9,53,78,68
24,9,-14,-17,19,-2,-29,-14,4,53,73,58
24,0,-24,-12,24,-12,-29,-14,4,48,68,53
19,0,-19,-9,19,-9,-29,-14,9,43,63,53
14,0,-14,-7,14,-7,-29,-14,9,43,58,53
14,0,-14,-7,14,-7,-29,-14,9,43,58,53
14,0,-14,-7,14,-7,-29,-14,9,43,58,53
9,0,-9,-4,9,-4,-29,-14,9,43,58,53
4,-4,-9,0,7,-7,-24,-14,4,48,58,43
0,-4,-4,2,2,-4,-29,-9,4,48,53,39
0,-4,-4,2,2,-4,-29,-9,9,48,53,39
0,-9,-9,4,4,-9,-29,-14,14,48,53,39
4,-9,-14,2,9,-12,-29,-14,14,39,53,43
9,-9,-19,0,14,-14,-34,-14,9,29,48,39
4,-14,-19,4,12,-17,-34,-14,4,19,39,34
4,-19,-24,7,14,-21,-39,-14,4,19,39,34
4,-19,-24,7,14,-21,-34,-14,0,24,43,29
4,-19,-24,7,14,-21,-29,-19,-4,24,43,24
9,-19,-29,4,19,-24,-29,-24,-9,19,39,24
14,-19,-34,2,24,-26,-24,-29,-14,9,29,24
14,-19,-34,2,24,-26,-29,-29,-14,9,24,24
14,-19,-34,2,24,-26,-34,-34,-14,9,24,24
9,-19,-29,4,19,-24,-34,-34,-19,14,29,24
4,-24,-29,9,17,-26,-34,-34,-14,14,34,24
4,-19,-24,7,14,-21,-39,-39,-14,14,39,29
4,-14,-19,4,12,-17,-39,-39,-19,19,43,34
9,-14,-24,2,17,-19,-39,-39,-19,19,43,29
9,-14,-24,2,17,-19,-39,-43,-19,19,43,29
4,-14,-19,4,12,-17,-43,-43,-24,9,39,24
4,-14,-19,4,12,-17,-43,-43,-34,0,29,19
9,-14,-24,2,17,-19,-43,-48,-34,0,24,14
14,-14,-29,0,21,-21,-48,-48,-34,0,24,14
14,-14,-29,0,21,-21,-48,-58,-34,0,24,19
14,-14,-29,0,21,-21,-48,-63,-34,0,24,19
14,-14,-29,0,21,-21,-48,-63,-39,0,24,19
14,-14,-29,0,21,-21,-48,-63,-48,0,19,19
9,-14,-24,2,17,-19,-53,-58,-48,0,19,19
9,-14,-24,2,17,-19,-53,-53,-48,0,24,19
9,-14,-24,2,17,-19,-53,-53,-48,0,19,19
4,-14,-19,4,12,-17,-53,-58,-53,-4,14,19
4,-14,-19,4,12,-17,-53,-63,-53,-4,14,14
4,-14,-19,4,12,-17,-53,-63,-53,-4,14,14
9,-14,-24,2,17,-19,-48,-63,-53,-4,14,19
14,-14,-29,0,21,-21,-48,-68,-53,-4,14,19
14,-19,-34,2,24,-26,-43,-68,-53,-4,14,24
14,-24,-39,4,26,-31,-39,-68,-53,-4,19,24
14,-24,-39,4,26,-31,-43,-68,-53,-4,19,24
14,-24,-39,4,26,-31,-48,-68,-58,-4,14,24
19,-19,-39,0,29,-29,-53,-73,-58,-4,19,24
19,-14,-34,-2,26,-24,-58,-73,-58,-4,24,19
14,-14,-29,0,21,-21,-53,-73,-53,-4,24,14
4,-14,-19,4,12,-17,-53,-73,-53,-4,24,14
0,-14,-14,7,7,-14,-48,-73,-53,-4,24,19
0,-14,-14,7,7,-14,-48,-68,-53,-4,29,24
4,-9,-14,2,9,-12,-58,-68,-53,-4,29,24
4,-9,-14,2,9,-12,-63,-68,-58,-4,24,24
4,-9,-14,2,9,-12,-63,-73,-58,-4,19,24
0,-9,-9,4,4,-9,-63,-73,-58,-4,19,24
0,-19,-19,9,9,-19,-53,-73,-58,-4,19,24
4,-19,-24,7,14,-21,-48,-73,-58,-4,19,24
4,-19,-24,7,14,-21,-48,-73,-53,-9,19,24
9,-19,-29,4,19,-24,-48,-73,-53,-14,19,24
9,-19,-29,4,19,-24,-53,-73,-53,-14,14,24
9,-19,-29,4,19,-24,-58,-73,-58,-14,9,24
4,-14,-19,4,12,-17,-53,-78,-63,-14,9,24
0,-14,-14,7,7,-14,-48,-73,-63,-9,9,29
0,-14,-14,7,7,-14,-48,-68,-58,-4,14,29
4,-14,-19,4,12,-17,-53,-68,-58,0,24,29
9,-4,-14,-2,12,-9,-48,-68,-53,4,29,39
19,0,-19,-9,19,-9,-48,-68,-48,9,39,48
29,9,-19,-19,24,-4,-43,-58,-43,14,39,48
39,19,-19,-29,29,0,-39,-48,-39,19,39,48
39,34,-4,-36,21,14,-34,-43,-24,29,53,53
39,48,9,-43,14,29,-29,-39,-9,39,68,58
43,63,19,-53,12,41,-29,-34,0,43,68,68
48,78,29,-63,9,53,-29,-29,9,48,68,78
48,78,29,-63,9,53,-29,-29,9,53,73,78
48,78,29,-63,9,53,-29,-29,9,58,78,78
53,78,24,-65,14,51,-48,-34,9,58,78,78
58,78,19,-68,19,48,-68,-39,9,58,78,78
68,78,9,-73,29,43,-87,-39,4,58,82,82
78,78,0,-78,39,39,-107,-39,0,58,87,87
82,87,4,-85,39,46,-112,-43,-4,58,87,87
87,97,9,-92,39,53,-117,-48,-9,58,87,87
97,102,4,-100,46,53,-126,-63,-24,43,78,82
107,107,0,-107,53,53,-136,-78,-39,29,68,78
117,107,-9,-112,63,48,-146,-78,-43,29,68,78
122,107,-14,-114,68,46,-146,-73,-43,29,68,78
131,112,-19,-122,75,46,-151,-73,-48,29,68,82
131,112,-19,-122,75,46,-151,-68,-48,29,68,87
126,92,-34,-109,80,29,-146,-68,-53,14,68,82
122,78,-43,-100,82,17,-131,-68,-53,9,63,78
102,68,-34,-85,68,17,-107,-63,-53,9,63,73
73,58,-14,-65,43,21,-78,-58,-43,14,63,68
53,53,0,-53,26,26,-58,-39,-34,29,63,68
34,39,4,-36,14,21,-48,-43,-34,24,58,68
14,4,-9,-9,12,-2,-53,-63,-48,9,43,48
0,-14,-14,7,7,-14,-58,-92,-63,-4,24,24
0,-29,-29,14,14,-29,-58,-97,-78,-19,9,9
-4,-34,-29,19,12,-31,-58,-97,-78,-24,4,9
-4,-34,-29,19,12,-31,-68,-97,-78,-24,4,9
0,-39,-39,19,19,-39,-73,-97,-78,-24,9,9
0,-29,-29,14,14,-29,-73,-97,-78,-24,9,9
0,-14,-14,7,7,-14,-73,-97,-78,-24,4,4
-9,-24,-14,17,2,-19,-63,-97,-78,-29,4,4
-19,-34,-14,26,-2,-24,-53,-97,-78,-34,4,9
-19,-34,-14,26,-2,-24,-53,-97,-78,-34,4,9
-19,-39,-19,29,0,-29,-48,-102,-78,-34,0,9
-14,-39,-24,26,4,-31,-43,-107,-78,-34,0,9
-9,-34,-24,21,7,-29,-43,-107,-78,-34,0,9
-9,-34,-24,21,7,-29,-48,-102,-78,-34,0,9
-14,-34,-19,24,2,-26,-48,-102,-78,-29,0,9
-14,-43,-29,29,7,-36,-39,-102,-82,-29,0,9
-14,-48,-34,31,9,-41,-29,-102,-82,-29,0,9
-9,-48,-39,29,14,-43,-34,-102,-82,-29,0,9
-9,-43,-34,26,12,-39,-43,-102,-82,-29,0,9
-14,-39,-24,26,4,-31,-43,-97,-78,-24,4,9
-19,-34,-14,26,-2,-24,-43,-92,-73,-19,9,9
-19,-29,-9,24,-4,-19,-43,-92,-68,-14,9,9
-19,-29,-9,24,-4,-19,-43,-87,-68,-14,14,14
-9,-24,-14,17,2,-19,-48,-87,-68,-14,14,14
-4,-24,-19,14,7,-21,-48,-87,-68,-14,14,14
-19,-24,-4,21,-7,-14,-39,-97,-68,-14,14,14
-39,-24,14,31,-26,-4,-14,-136,-53,-14,14,14
-68,-34,34,51,-51,0,4,-161,-58,-24,-4,0
-63,-34,29,48,-46,-2,4,-136,-14,24,24,19
-29,-4,24,17,-26,9,-9,-87,107,170,170,146
78,126,48,-102,14,87,-78,43,356,497,507,419
219,273,53,-246,82,163,-161,234,546,805,854,712
439,405,-34,-422,236,185,-317,400,605,1019,1127,941
790,668,-122,-729,456,273,-600,619,673,1317,1517,1283
1058,888,-170,-973,614,358,-912,668,580,1459,1781,1542
1239,1039,-200,-1139,719,419,-1200,551,302,1400,1844,1659
1366,1083,-283,-1224,824,400,-1464,268,-214,985,1566,1546
1273,663,-610,-968,941,26,-1542,-278,-1058,-161,361,585
1000,239,-761,-619,880,-261,-1639,-1200,-1912,-1263,-785,-331
649,117,-531,-383,590,-207,-1571,-1869,-2264,-1717,-1210,-629
517,53,-463,-285,490,-204,-1371,-1717,-2132,-1698,-1278,-712
370,102,-268,-236,319,-82,-1073,-1454,-1761,-1439,-1127,-634
224,175,-48,-200,136,63,-814,-1190,-1381,-1141,-922,-512
102,200,97,-151,2,148,-610,-897,-1005,-844,-683,-375
9,244,234,-126,-112,239,-419,-629,-668,-570,-458,-234
-34,219,253,-92,-143,236,-273,-478,-483,-414,-346,-175
-53,151,204,-48,-129,178,-165,-351,-351,-312,-278,-156
-43,102,146,-29,-95,124,-82,-185,-200,-195,-185,-126
-43,48,92,-2,-68,70,-4,-53,-87,-112,-117,-92
-48,-14,34,31,-41,9,58,-4,-48,-78,-87,-73
-48,-43,4,46,-26,-19,92,29,-24,-53,-68,-58
-48,-58,-9,53,-19,-34,87,63,0,-34,-63,-68
-53,-58,-4,56,-24,-31,82,82,19,-19,-48,-73
-48,-58,-9,53,-19,-34,73,73,19,-19,-53,-68
-43,-58,-14,51,-14,-36,73,73,19,-19,-58,-68
-43,-73,-29,58,-7,-51,97,82,29,-14,-53,-68
-43,-73,-29,58,-7,-51,112,97,43,-4,-43,-68
-43,-78,-34,61,-4,-56,112,97,48,0,-43,-68
-48,-82,-34,65,-7,-58,126,97,48,0,-43,-73
-53,-82,-29,68,-12,-56,126,97,48,4,-39,-73
-58,-82,-24,70,-17,-53,126,97,58,4,-39,-73
-58,-87,-29,73,-14,-58,126,102,63,9,-39,-68
-63,-87,-24,75,-19,-56,131,107,68,9,-34,-63
-63,-82,-19,73,-21,-51,136,107,73,14,-34,-63
-68,-78,-9,73,-29,-43,136,107,73,14,-34,-68
-68,-78,-9,73,-29,-43,131,117,78,14,-39,-68
-68,-78,-9,73,-29,-43,131,117,78,14,-39,-68
-68,-78,-9,73,-29,-43,131,122,87,14,-39,-68
-73,-82,-9,78,-31,-46,136,126,92,19,-39,-68
-73,-82,-9,78,-31,-46,136,131,102,24,-34,-68
-73,-78,-4,75,-34,-41,131,136,107,24,-34,-68
-73,-78,-4,75,-34,-41,136,136,112,24,-39,-68
-73,-78,-4,75,-34,-41,141,141,122,24,-39,-73
-78,-82,-4,80,-36,-43,151,141,122,29,-34,-73
-82,-82,0,82,-41,-41,156,151,122,34,-34,-73
-82,-82,0,82,-41,-41,161,151,126,34,-34,-73
-82,-78,4,80,-43,-36,161,156,131,34,-34,-73
-82,-78,4,80,-43,-36,170,156,141,34,-29,-78
-82,-78,4,80,-43,-36,175,170,156,34,-29,-78
-87,-78,9,82,-48,-34,180,175,161,39,-29,-78
-92,-78,14,85,-53,-31,195,180,165,43,-29,-78
-92,-73,19,82,-56,-26,209,185,170,43,-34,-78
-102,-73,29,87,-65,-21,219,180,180,48,-39,-82
-107,-73,34,90,-70,-19,229,185,185,53,-43,-87
-107,-73,34,90,-70,-19,234,195,195,58,-43,-87
-112,-73,39,92,-75,-17,244,204,204,63,-34,-87
-112,-63,48,87,-80,-7,248,214,219,68,-29,-87
-117,-63,53,90,-85,-4,258,224,229,68,-29,-87
-126,-63,63,95,-95,0,258,234,239,63,-29,-92
-126,-68,58,97,-92,-4,268,244,248,68,-34,-92
-136,-68,68,102,-102,0,278,253,263,78,-39,-92
-141,-68,73,104,-107,2,292,263,278,78,-39,-97
-146,-68,78,107,-112,4,302,283,278,82,-39,-97
-156,-63,92,109,-124,14,317,287,292,87,-43,-102
-165,-58,107,112,-136,24,336,292,307,92,-43,-107
-165,-58,107,112,-136,24,356,307,317,92,-53,-112
-175,-58,117,117,-146,29,385,322,341,92,-58,-122
-185,-53,131,119,-158,39,385,331,351,97,-63,-131
-200,-53,146,126,-173,46,409,341,361,102,-68,-131
-209,-63,146,136,-178,41,429,351,370,102,-73,-146
-229,-73,156,151,-192,41,448,361,385,97,-78,-151
-234,-68,165,151,-200,48,458,366,395,92,-87,-161
-244,-68,175,156,-209,53,473,370,400,87,-102,-180
-263,-63,200,163,-231,68,483,380,409,82,-112,-190
-278,-58,219,168,-248,80,488,380,409,73,-126,-204
-292,-63,229,178,-261,82,502,380,409,63,-141,-209
-307,-63,244,185,-275,90,512,375,414,48,-161,-224
-322,-63,258,192,-290,97,522,356,414,34,-180,-244
-331,-63,268,197,-300,102,522,341,400,14,-209,-258
-346,-63,283,204,-314,109,522,326,390,-4,-224,-268
-356,-68,287,212,-322,109,512,307,380,-24,-253,-283
-361,-73,287,217,-324,107,502,283,366,-53,-268,-302
-370,-78,292,224,-331,107,483,268,341,-73,-283,-322
-370,-78,292,224,-331,107,473,239,312,-92,-297,-322
-366,-78,287,222,-326,104,453,214,287,-112,-307,-322
-346,-68,278,207,-312,104,414,185,253,-122,-317,-322
-331,-68,263,200,-297,97,395,156,234,-136,-322,-317
-322,-58,263,190,-292,102,356,126,195,-146,-322,-312
-297,-53,244,175,-270,95,307,97,165,-151,-312,-302
-273,-48,224,161,-248,87,273,78,136,-156,-302,-283
-248,-39,209,143,-229,85,239,58,107,-156,-283,-263
-209,-34,175,122,-192,70,200,39,92,-146,-258,-239
-175,-24,151,100,-163,63,165,14,73,-131,-229,-204
-151,-14,136,82,-143,61,126,4,53,-112,-190,-170
-122,-4,117,63,-119,56,97,-4,43,-97,-156,-136
-102,0,102,51,-102,51,73,-9,29,-73,-122,-107
-68,9,78,29,-73,43,43,-14,14,-58,-92,-78
-43,19,63,12,-53,41,9,-24,9,-43,-68,-48
-19,19,39,0,-29,29,-4,-29,4,-24,-29,-24
-4,24,29,-9,-17,26,-24,-34,0,-14,-14,-9
4,24,19,-14,-7,21,-39,-43,0,0,0,4
19,29,9,-24,4,19,-53,-43,-4,9,14,19
29,29,0,-29,14,14,-53,-48,-4,19,29,34
39,29,-9,-34,24,9,-58,-48,-9,14,34,39
39,29,-9,-34,24,9,-63,-48,-9,24,43,48
39,29,-9,-34,24,9,-63,-53,-9,24,53,53
43,29,-14,-36,29,7,-58,-53,-14,24,58,58
48,34,-14,-41,31,9,-68,-53,-14,29,58,63
48,39,-9,-43,29,14,-68,-53,-14,34,63,63
48,39,-9,-43,29,14,-78,-43,-9,34,68,63
43,39,-4,-41,24,17,-87,-39,-9,39,68,68
43,48,4,-46,19,26,-82,-39,-9,39,73,73
43,48,4,-46,19,26,-82,-39,-4,43,73,73
43,43,0,-43,21,21,-82,-39,-4,43,73,73
43,43,0,-43,21,21,-82,-34,-4,43,73,73
43,43,0,-43,21,21,-78,-34,0,43,73,73
48,43,-4,-46,26,19,-73,-34,0,43,73,73
48,39,-9,-43,29,14,-68,-29,0,43,68,68
43,34,-9,-39,26,12,-68,-29,0,43,68,63
43,34,-9,-39,26,12,-73,-29,4,43,73,68
43,34,-9,-39,26,12,-82,-29,9,43,78,73
39,34,-4,-36,21,14,-73,-29,9,43,78,73
34,34,0,-34,17,17,-58,-29,14,43,78,73
34,29,-4,-31,19,12,-43,-29,9,43,68,68
34,29,-4,-31,19,12,-39,-24,4,43,53,58
34,19,-14,-26,24,2,-39,-24,4,43,53,53
29,19,-9,-24,19,4,-39,-24,9,43,53,53
24,19,-4,-21,14,7,-43,-24,9,43,53,53
24,19,-4,-21,14,7,-48,-24,9,43,58,53
24,14,-9,-19,17,2,-48,-24,9,39,53,53
19,9,-9,-14,14,0,-48,-24,9,34,48,53
19,4,-14,-12,17,-4,-39,-19,4,34,48,43
19,4,-14,-12,17,-4,-39,-9,4,29,43,39
19,4,-14,-12,17,-4,-39,-9,4,29,43,39
19,0,-19,-9,19,-9,-39,-14,4,29,43,39
19,0,-19,-9,19,-9,-39,-14,4,29,43,39
19,0,-19,-9,19,-9,-43,-14,0,29,39,29
14,-4,-19,-4,17,-12,-43,-14,-4,19,24,24
14,-9,-24,-2,19,-17,-48,-14,-4,19,19,24
14,-9,-24,-2,19,-17,-48,-14,-4,19,24,24
14,-9,-24,-2,19,-17,-48,-19,-4,14,24,24
14,-14,-29,0,21,-21,-53,-24,-9,14,29,24
14,-19,-34,2,24,-26,-53,-29,-14,9,29,24
14,-19,-34,2,24,-26,-53,-29,-14,9,24,24
14,-19,-34,2,24,-26,-53,-34,-14,9,24,24
14,-4,-19,-4,17,-12,-48,-34,-29,9,19,24
14,4,-9,-9,12,-2,-43,-34,-34,4,14,24
14,-4,-19,-4,17,-12,-48,-39,-34,0,14,24
14,-14,-29,0,21,-21,-48,-39,-39,0,14,24
9,-24,-34,7,21,-29,-48,-39,-34,0,14,19
0,-34,-34,17,17,-34,-48,-43,-29,0,14,19
4,-24,-29,9,17,-26,-53,-43,-34,-4,14,19
14,-14,-29,0,21,-21,-53,-43,-43,-9,9,19
14,-14,-29,0,21,-21,-53,-48,-43,-9,4,14
14,-14,-29,0,21,-21,-58,-48,-43,-9,4,14
14,-14,-29,0,21,-21,-58,-53,-43,-9,4,14
14,-14,-29,0,21,-21,-58,-53,-43,-9,4,9
14,-14,-29,0,21,-21,-58,-53,-43,-9,9,9
14,-14,-29,0,21,-21,-58,-53,-48,-9,9,9
14,-14,-29,0,21,-21,-58,-53,-48,-9,9,9
19,-14,-34,-2,26,-24,-53,-53,-48,-9,14,9
19,-14,-34,-2,26,-24,-53,-53,-48,-9,9,9
14,-14,-29,0,21,-21,-53,-58,-53,-14,4,9
14,-14,-29,0,21,-21,-58,-63,-53,-14,4,4
14,-14,-29,0,21,-21,-63,-63,-53,-14,4,4
14,-14,-29,0,21,-21,-58,-58,-53,-14,9,14
14,-14,-29,0,21,-21,-58,-58,-53,-14,14,19
14,-14,-29,0,21,-21,-58,-58,-53,-14,14,24
14,-14,-29,0,21,-21,-58,-58,-53,-14,19,24
14,-14,-29,0,21,-21,-63,-63,-53,-14,14,19
14,-14,-29,0,21,-21,-68,-68,-58,-14,4,14
19,-14,-34,-2,26,-24,-68,-73,-58,-14,4,14
19,-14,-34,-2,26,-24,-68,-73,-58,-14,4,9
19,-14,-34,-2,26,-24,-58,-73,-53,-14,4,4
14,-14,-29,0,21,-21,-53,-73,-53,-14,4,4
9,-14,-24,2,17,-19,-48,-73,-53,-14,4,9
9,-14,-24,2,17,-19,-48,-68,-53,-14,9,14
14,-14,-29,0,21,-21,-53,-63,-53,-14,9,14
14,-19,-34,2,24,-26,-53,-58,-58,-14,4,14
14,-19,-34,2,24,-26,-58,-63,-58,-14,0,14
9,-19,-29,4,19,-24,-63,-63,-58,-14,0,14
4,-19,-24,7,14,-21,-63,-63,-58,-14,0,14
4,-9,-14,2,9,-12,-68,-63,-58,-14,0,14
4,-9,-14,2,9,-12,-68,-63,-53,-14,0,14
9,-9,-19,0,14,-14,-68,-63,-53,-14,0,14
9,-9,-19,0,14,-14,-68,-68,-53,-19,0,9
9,-9,-19,0,14,-14,-68,-73,-58,-24,0,4
9,-9,-19,0,14,-14,-63,-78,-63,-29,0,4
9,-14,-24,2,17,-19,-58,-73,-63,-29,0,9
4,-19,-24,7,14,-21,-53,-68,-58,-19,4,14
4,-24,-29,9,17,-26,-53,-68,-58,-9,14,19
9,-14,-24,2,17,-19,-48,-68,-58,-4,19,19
19,-9,-29,-4,24,-19,-48,-68,-58,0,29,19
19,0,-19,-9,19,-9,-43,-63,-48,0,29,29
19,9,-9,-14,14,0,-39,-58,-39,0,29,39
24,29,4,-26,9,17,-29,-48,-29,9,39,43
29,48,19,-39,4,34,-19,-39,-19,19,48,48
34,58,24,-46,4,41,-19,-29,-9,29,53,53
39,68,29,-53,4,48,-19,-19,0,39,58,58
48,68,19,-58,14,43,-19,-19,0,43,63,58
58,68,9,-63,24,39,-19,-19,0,48,68,58
63,73,9,-68,26,41,-43,-24,0,48,73,63
68,78,9,-73,29,43,-68,-29,0,48,78,68
68,78,9,-73,29,43,-87,-34,0,48,78,73
68,78,9,-73,29,43,-107,-39,0,48,78,78
78,92,14,-85,31,53,-112,-39,-9,48,78,78
87,107,19,-97,34,63,-117,-39,-19,48,78,78
97,107,9,-102,43,58,-122,-53,-24,39,73,78
107,107,0,-107,53,53,-126,-68,-29,29,68,78
107,107,0,-107,53,53,-131,-68,-34,24,58,73
107,107,0,-107,53,53,-136,-68,-39,19,48,68
117,102,-14,-109,65,43,-136,-68,-48,14,48,63
122,97,-24,-109,73,36,-131,-68,-53,9,48,58
126,97,-29,-112,78,34,-126,-68,-58,9,48,58
122,92,-29,-107,75,31,-122,-68,-58,9,48,58
112,73,-39,-92,75,17,-112,-68,-58,4,48,53
102,58,-43,-80,73,7,-92,-68,-53,9,43,48
82,43,-39,-63,61,2,-82,-63,-53,9,43,48
53,29,-24,-41,39,2,-68,-58,-43,14,43,48
34,24,-9,-29,21,7,-58,-53,-39,24,43,48
14,9,-4,-12,9,2,-58,-73,-43,14,39,48
0,-19,-19,9,9,-19,-58,-82,-68,-4,19,24
-9,-34,-24,21,7,-29,-58,-102,-92,-24,-4,-4
-4,-43,-39,24,17,-41,-58,-107,-97,-39,-19,-19
-4,-43,-39,24,17,-41,-58,-107,-87,-43,-24,-19
-9,-34,-24,21,7,-29,-58,-102,-87,-43,-24,-14
-9,-29,-19,19,4,-24,-53,-97,-87,-43,-19,-9
-9,-39,-29,24,9,-34,-53,-97,-87,-43,-19,-9
-9,-43,-34,26,12,-39,-53,-97,-87,-43,-24,-14
-9,-43,-34,26,12,-39,-53,-97,-87,-43,-24,-14
-9,-43,-34,26,12,-39,-53,-97,-87,-43,-24,-9
-9,-43,-34,26,12,-39,-58,-92,-87,-39,-9,-4
-9,-48,-39,29,14,-43,-58,-92,-87,-34,0,0
-9,-48,-39,29,14,-43,-53,-97,-87,-24,0,0
-9,-43,-34,26,12,-39,-53,-97,-87,-14,0,0
-9,-34,-24,21,7,-29,-58,-92,-87,-24,-4,-4
-14,-24,-9,19,-2,-17,-58,-92,-87,-29,-9,-9
-14,-39,-24,26,4,-31,-53,-92,-87,-29,-9,-9
-14,-48,-34,31,9,-41,-48,-92,-82,-29,-9,-9
-9,-48,-39,29,14,-43,-43,-92,-82,-29,-9,-9
-9,-43,-34,26,12,-39,-43,-92,-82,-29,-9,-9
-9,-43,-34,26,12,-39,-43,-92,-82,-29,-9,-9
-9,-43,-34,26,12,-39,-43,-92,-82,-29,-9,-9
-9,-39,-29,24,9,-34,-43,-92,-78,-24,-9,-4
-9,-39,-29,24,9,-34,-43,-87,-78,-24,-4,4
-4,-24,-19,14,7,-21,-53,-87,-78,-24,-4,4
-4,-14,-9,9,2,-12,-58,-87,-78,-24,-4,4
-19,-14,4,17,-12,-4,-48,-92,-78,-29,-9,0
-39,-14,24,26,-31,4,-24,-126,-63,-34,-14,-4
-73,-39,34,56,-53,-2,-4,-146,-73,-48,-29,-19
-73,-53,19,63,-46,-17,-4,-117,-34,-4,4,0
-43,-29,14,36,-29,-7,0,-58,78,131,141,117
58,97,39,-78,9,68,-48,82,317,448,468,380
219,239,19,-229,100,129,-126,263,541,771,814,663
458,366,-92,-412,275,136,-278,419,634,1000,1088,883
780,639,-141,-710,461,248,-527,619,741,1312,1478,1234
1019,868,-151,-944,585,358,-805,649,688,1468,1742,1503
1171,1049,-122,-1110,646,463,-1083,458,390,1400,1805,1634
1268,1122,-146,-1195,707,488,-1337,102,-146,976,1527,1537
1146,722,-424,-934,785,148,-1439,-463,-1005,-151,356,600
844,317,-527,-580,685,-104,-1561,-1405,-1873,-1234,-756,-292
512,180,-331,-346,422,-75,-1546,-2059,-2264,-1717,-1215,-605
400,102,-297,-251,348,-97,-1400,-1893,-2171,-1727,-1317,-702
273,131,-141,-202,207,-4,-1102,-1590,-1800,-1478,-1166,-644
146,185,39,-165,53,112,-844,-1288,-1420,-1190,-961,-541
53,204,151,-129,-48,178,-629,-961,-1049,-883,-722,-405
-9,244,253,-117,-131,248,-429,-658,-717,-600,-497,-263
-43,214,258,-85,-151,236,-278,-492,-517,-444,-375,-195
-53,141,195,-43,-124,168,-165,-351,-370,-341,-297,-165
-43,97,141,-26,-92,119,-87,-175,-219,-209,-200,-136
-43,48,92,-2,-68,70,-14,-34,-107,-112,-126,-102
-43,-14,29,29,-36,7,48,4,-68,-87,-102,-92
-39,-43,-4,41,-17,-24,82,29,-43,-73,-87,-87
-39,-68,-29,53,-4,-48,87,63,-19,-48,-82,-87
-43,-78,-34,61,-4,-56,92,82,0,-29,-68,-82
-43,-78,-34,61,-4,-56,92,73,0,-29,-68,-78
-43,-78,-34,61,-4,-56,102,73,0,-29,-68,-78
-43,-97,-53,70,4,-75,112,82,9,-29,-68,-82
-43,-102,-58,73,7,-80,112,97,24,-24,-63,-87
-43,-102,-58,73,7,-80,107,102,29,-19,-63,-82
-48,-102,-53,75,2,-78,117,107,29,-19,-63,-82
-48,-97,-48,73,0,-73,117,112,34,-9,-48,-82
-48,-92,-43,70,-2,-68,117,117,48,-4,-39,-82
-48,-97,-48,73,0,-73,117,122,53,0,-39,-78
-53,-97,-43,75,-4,-70,122,126,58,0,-34,-73
-53,-97,-43,75,-4,-70,126,126,63,4,-34,-73
-58,-97,-39,78,-9,-68,126,126,63,4,-34,-78
-58,-97,-39,78,-9,-68,126,131,68,4,-43,-82
-58,-97,-39,78,-9,-68,131,126,68,4,-48,-87
-58,-97,-39,78,-9,-68,131,131,78,4,-48,-87
-63,-102,-39,82,-12,-70,136,136,82,9,-48,-87
-63,-102,-39,82,-12,-70,141,141,87,14,-43,-87
-63,-97,-34,80,-14,-65,141,146,87,14,-43,-87
-63,-97,-34,80,-14,-65,151,146,87,14,-48,-87
-63,-97,-34,80,-14,-65,161,151,92,14,-48,-92
-68,-102,-34,85,-17,-68,165,151,97,19,-43,-92
-73,-102,-29,87,-21,-65,165,161,102,24,-43,-92
-73,-107,-34,90,-19,-70,170,165,107,24,-39,-87
-73,-107,-34,90,-19,-70,170,175,112,24,-34,-82
-73,-107,-34,90,-19,-70,180,175,117,24,-34,-87
-73,-107,-34,90,-19,-70,185,190,126,24,-39,-87
-78,-107,-29,92,-24,-68,180,195,131,24,-48,-92
-82,-107,-24,95,-29,-65,185,200,136,24,-58,-97
-82,-102,-19,92,-31,-61,195,209,141,24,-58,-97
-92,-102,-9,97,-41,-56,200,209,151,29,-58,-102
-97,-102,-4,100,-46,-53,209,214,156,29,-63,-107
-97,-102,-4,100,-46,-53,214,224,165,29,-63,-107
-97,-107,-9,102,-43,-58,224,234,175,34,-58,-107
-92,-102,-9,97,-41,-56,229,244,190,39,-58,-107
-97,-102,-4,100,-46,-53,239,253,200,43,-58,-107
-107,-102,4,104,-56,-48,239,263,209,43,-58,-112
-107,-102,4,104,-56,-48,253,273,219,53,-53,-112
-117,-97,19,107,-68,-39,268,283,234,68,-48,-112
-122,-97,24,109,-73,-36,292,292,253,68,-48,-117
-126,-97,29,112,-78,-34,312,312,258,73,-48,-117
-136,-97,39,117,-87,-29,326,322,273,78,-53,-122
-146,-97,48,122,-97,-24,346,331,287,82,-53,-126
-146,-97,48,122,-97,-24,356,346,302,82,-63,-131
-156,-97,58,126,-107,-19,375,361,331,82,-68,-141
-161,-92,68,126,-114,-12,370,370,341,87,-73,-151
-170,-92,78,131,-124,-7,390,380,351,92,-78,-151
-180,-92,87,136,-134,-2,409,390,366,92,-82,-165
-200,-92,107,146,-153,7,429,400,385,87,-87,-170
-209,-87,122,148,-165,17,444,405,395,87,-97,-175
-224,-87,136,156,-180,24,463,409,400,87,-112,-190
-239,-87,151,163,-195,31,478,429,414,82,-122,-195
-248,-87,161,168,-204,36,488,439,419,73,-136,-204
-258,-92,165,175,-212,36,502,439,419,63,-146,-214
-268,-92,175,180,-222,41,512,434,424,48,-161,-234
-283,-92,190,187,-236,48,517,419,424,34,-180,-258
-292,-92,200,192,-246,53,512,409,409,14,-209,-278
-307,-97,209,202,-258,56,512,400,395,-9,-234,-292
-317,-107,209,212,-263,51,502,385,380,-34,-273,-312
-317,-112,204,214,-261,46,492,356,361,-63,-292,-331
-322,-117,204,219,-263,43,473,336,331,-82,-312,-351
-322,-117,204,219,-263,43,473,307,302,-102,-326,-356
-317,-117,200,217,-258,41,463,283,278,-122,-336,-361
-302,-107,195,204,-248,43,434,253,244,-131,-341,-361
-292,-107,185,200,-239,39,424,224,224,-146,-341,-356
-287,-97,190,192,-239,46,385,195,190,-156,-341,-351
-268,-92,175,180,-222,41,336,165,165,-161,-331,-341
-244,-87,156,165,-200,34,297,136,136,-170,-326,-322
-219,-78,141,148,-180,31,258,107,107,-175,-312,-302
-185,-68,117,126,-151,24,219,87,87,-165,-287,-278
-156,-53,102,104,-129,24,185,63,63,-151,-258,-244
-131,-43,87,87,-109,21,141,39,43,-131,-219,-204
-102,-34,68,68,-85,17,107,14,34,-117,-185,-165
-87,-24,63,56,-75,19,82,0,19,-92,-151,-136
-58,-9,48,34,-53,19,53,-14,4,-78,-122,-107
-43,0,43,21,-43,21,14,-24,0,-63,-97,-78
-29,0,29,14,-29,14,-4,-29,-4,-43,-58,-53
-14,0,14,7,-14,7,-24,-29,-9,-29,-34,-29
-4,-4,0,4,-2,-2,-39,-34,-9,-9,-9,-4
9,4,-4,-7,7,0,-53,-39,-19,0,4,9
19,9,-9,-14,14,0,-53,-48,-24,9,19,24
29,9,-19,-19,24,-4,-48,-48,-29,9,24,29
29,9,-19,-19,24,-4,-43,-48,-29,24,34,39
29,19,-9,-24,19,4,-58,-53,-29,24,43,43
34,29,-4,-31,19,12,-68,-53,-34,24,48,48
39,19,-19,-29,29,0,-78,-48,-29,29,48,53
39,9,-29,-24,34,-9,-78,-43,-24,34,53,53
43,9,-34,-26,39,-12,-78,-39,-19,34,58,53
43,9,-34,-26,39,-12,-78,-39,-19,39,58,58
43,19,-24,-31,34,-2,-73,-39,-19,39,63,58
43,19,-24,-31,34,-2,-73,-39,-14,43,63,53
39,14,-24,-26,31,-4,-68,-39,-14,43,63,53
34,14,-19,-24,26,-2,-63,-34,-14,43,63,53
34,9,-24,-21,29,-7,-63,-34,-9,43,63,53
39,4,-34,-21,36,-14,-63,-34,-9,43,63,53
39,0,-39,-19,39,-19,-58,-29,-9,43,58,53
34,-4,-39,-14,36,-21,-58,-29,-9,43,58,53
34,0,-34,-17,34,-17,-53,-24,-9,43,58,53
34,4,-29,-19,31,-12,-53,-19,-9,43,58,53
29,4,-24,-17,26,-9,-53,-19,-9,43,58,53
24,4,-19,-14,21,-7,-48,-19,-4,43,58,53
24,4,-19,-14,21,-7,-43,-19,-4,43,58,53
24,9,-14,-17,19,-2,-48,-14,-4,43,53,48
29,0,-29,-14,29,-14,-48,-14,-4,43,53,39
29,0,-29,-14,29,-14,-48,-14,0,43,53,34
24,0,-24,-12,24,-12,-43,-14,0,43,48,34
24,0,-24,-12,24,-12,-39,-14,0,43,48,34
24,0,-24,-12,24,-12,-39,-14,0,39,43,39
19,0,-19,-9,19,-9,-39,-14,0,34,39,43
19,-9,-29,-4,24,-19,-29,-19,-4,34,43,34
19,-14,-34,-2,26,-24,-29,-19,-4,29,43,29
19,-14,-34,-2,26,-24,-29,-19,-4,29,43,29
19,-19,-39,0,29,-29,-29,-24,-4,29,43,29
14,-19,-34,2,24,-26,-29,-24,-4,19,34,24
9,-19,-29,4,19,-24,-34,-24,-9,9,19,9
4,-24,-29,9,17,-26,-34,-24,-19,0,9,4
4,-29,-34,12,19,-31,-39,-24,-24,0,9,4
4,-29,-34,12,19,-31,-39,-24,-24,4,19,9
4,-29,-34,12,19,-31,-39,-29,-24,4,24,14
4,-29,-34,12,19,-31,-39,-34,-29,4,24,14
4,-29,-34,12,19,-31,-34,-39,-34,0,19,14
9,-29,-39,9,24,-34,-34,-39,-34,0,14,9
14,-29,-43,7,29,-36,-34,-43,-34,0,14,4
14,-29,-43,7,29,-36,-34,-43,-43,4,14,4
14,-34,-48,9,31,-41,-34,-43,-43,4,14,4
14,-29,-43,7,29,-36,-48,-48,-43,0,19,9
14,-24,-39,4,26,-31,-58,-48,-48,0,24,14
19,-24,-43,2,31,-34,-48,-48,-43,0,24,9
19,-24,-43,2,31,-34,-39,-53,-39,0,24,9
14,-29,-43,7,29,-36,-43,-53,-43,-9,19,4
14,-34,-48,9,31,-41,-43,-53,-53,-19,9,0
9,-34,-43,12,26,-39,-39,-58,-53,-19,4,-4
4,-34,-39,14,21,-36,-39,-58,-53,-19,4,-4
4,-34,-39,14,21,-36,-39,-63,-53,-19,4,4
4,-34,-39,14,21,-36,-39,-63,-53,-19,4,9
4,-34,-39,14,21,-36,-43,-63,-53,-19,4,9
4,-34,-39,14,21,-36,-48,-63,-58,-19,0,9
4,-39,-43,17,24,-41,-53,-63,-58,-19,0,4
9,-43,-53,17,31,-48,-53,-63,-58,-19,4,0
9,-43,-53,17,31,-48,-53,-63,-58,-14,4,0
4,-43,-48,19,26,-46,-53,-68,-63,-14,4,0
4,-43,-48,19,26,-46,-63,-73,-63,-14,4,0
4,-43,-48,19,26,-46,-73,-73,-63,-14,4,4
4,-43,-48,19,26,-46,-58,-68,-63,-14,9,9
4,-43,-48,19,26,-46,-48,-68,-63,-14,14,9
0,-39,-39,19,19,-39,-43,-68,-63,-14,14,14
-4,-34,-29,19,12,-31,-39,-68,-63,-14,19,14
-4,-34,-29,19,12,-31,-43,-68,-63,-14,19,14
-4,-34,-29,19,12,-31,-48,-68,-68,-14,14,14
0,-34,-34,17,17,-34,-48,-78,-68,-14,9,14
0,-34,-34,17,17,-34,-48,-82,-68,-14,4,9
0,-39,-39,19,19,-39,-43,-82,-63,-19,4,4
-4,-43,-39,24,17,-41,-43,-82,-63,-24,4,4
-4,-43,-39,24,17,-41,-43,-82,-63,-24,4,9
0,-43,-43,21,21,-43,-48,-78,-63,-24,9,14
4,-39,-43,17,24,-41,-53,-78,-63,-19,9,14
4,-39,-43,17,24,-41,-53,-78,-68,-14,4,14
4,-39,-43,17,24,-41,-53,-82,-68,-14,4,14
0,-39,-39,19,19,-39,-53,-82,-68,-14,9,14
-9,-43,-34,26,12,-39,-53,-82,-68,-14,9,14
-14,-39,-24,26,4,-31,-58,-82,-68,-14,9,14
-14,-39,-24,26,4,-31,-58,-78,-63,-14,9,14
-9,-39,-29,24,9,-34,-58,-73,-63,-14,9,14
-4,-39,-34,21,14,-36,-58,-73,-63,-14,4,9
0,-39,-39,19,19,-39,-58,-73,-68,-14,0,4
0,-34,-34,17,17,-34,-53,-82,-68,-19,0,4
0,-34,-34,17,17,-34,-48,-82,-63,-19,0,9
0,-39,-39,19,19,-39,-43,-78,-58,-14,4,14
