I,II,III,aVR,aVL,aVF,V1,V2,V3,V4,V5,V6,
48,9,-39,-29,43,-14,-39,0,-234,107,-165,78
48,9,-39,-29,43,-14,-39,0,-234,107,-165,78
48,9,-39,-29,43,-14,-39,0,-234,107,-165,78
48,9,-39,-29,43,-14,-34,0,-229,102,-165,73
48,9,-39,-29,43,-14,-29,0,-224,97,-165,68
43,4,-39,-24,41,-17,-29,0,-224,97,-165,68
39,0,-39,-19,39,-19,-29,0,-224,97,-165,68
34,-4,-39,-14,36,-21,-24,0,-229,92,-170,63
29,-9,-39,-9,34,-24,-19,0,-234,87,-175,58
29,-14,-43,-7,36,-29,-19,0,-234,87,-175,53
29,-19,-48,-4,39,-34,-19,0,-234,87,-175,48
24,-24,-48,0,36,-36,-14,0,-234,87,-180,43
19,-29,-48,4,34,-39,-9,0,-234,87,-185,39
19,-34,-53,7,36,-43,-9,0,-234,82,-185,39
19,-39,-58,9,39,-48,-9,0,-234,78,-185,39
19,-39,-58,9,39,-48,-4,4,-234,78,-185,34
19,-39,-58,9,39,-48,0,9,-234,78,-185,29
19,-39,-58,9,39,-48,0,9,-234,78,-190,29
19,-39,-58,9,39,-48,0,9,-234,78,-195,29
19,-39,-58,9,39,-48,0,9,-239,73,-195,24
19,-39,-58,9,39,-48,0,9,-244,68,-195,19
19,-43,-63,12,41,-53,0,9,-244,68,-195,19
19,-48,-68,14,43,-58,0,9,-244,68,-195,19
19,-48,-68,14,43,-58,0,9,-244,68,-195,19
19,-48,-68,14,43,-58,0,9,-244,68,-195,19
19,-48,-68,14,43,-58,0,9,-244,63,-195,19
19,-48,-68,14,43,-58,0,9,-244,58,-195,19
14,-48,-63,17,39,-56,0,9,-248,58,-195,19
9,-48,-58,19,34,-53,0,9,-253,58,-195,19
9,-43,-53,17,31,-48,-4,9,-253,58,-190,19
9,-39,-48,14,29,-43,-9,9,-253,58,-185,19
9,-39,-48,14,29,-43,-9,9,-253,58,-185,19
9,-39,-48,14,29,-43,-9,9,-253,58,-185,19
9,-39,-48,14,29,-43,-9,9,-253,58,-180,24
9,-39,-48,14,29,-43,-9,9,-253,58,-175,29
9,-39,-48,14,29,-43,-9,9,-253,58,-170,29
9,-39,-48,14,29,-43,-9,9,-253,58,-165,29
9,-39,-48,14,29,-43,-9,4,-253,58,-165,24
9,-39,-48,14,29,-43,-9,0,-253,58,-165,19
9,-39,-48,14,29,-43,-14,0,-258,58,-165,19
9,-39,-48,14,29,-43,-19,0,-263,58,-165,19
14,-29,-43,7,29,-36,-19,0,-263,53,-165,19
19,-19,-39,0,29,-29,-19,0,-263,48,-165,19
24,-19,-43,-2,34,-31,-19,0,-263,48,-161,24
29,-19,-48,-4,39,-34,-19,0,-263,48,-156,29
29,-19,-48,-4,39,-34,-24,-4,-263,48,-151,29
29,-19,-48,-4,39,-34,-29,-9,-263,48,-146,29
29,-19,-48,-4,39,-34,-29,-9,-263,48,-141,29
29,-19,-48,-4,39,-34,-29,-9,-263,48,-136,29
29,-19,-48,-4,39,-34,-29,-9,-263,48,-136,29
29,-19,-48,-4,39,-34,-29,-9,-263,48,-136,29
29,-19,-48,-4,39,-34,-29,-9,-263,43,-131,24
29,-19,-48,-4,39,-34,-29,-9,-263,39,-126,19
29,-19,-48,-4,39,-34,-29,-9,-263,39,-122,19
29,-19,-48,-4,39,-34,-29,-9,-263,39,-117,19
29,-19,-48,-4,39,-34,-29,-9,-263,43,-117,19
29,-19,-48,-4,39,-34,-29,-9,-263,48,-117,19
24,-9,-34,-7,29,-21,-29,-4,-263,48,-117,19
19,0,-19,-9,19,-9,-29,0,-263,48,-117,19
19,0,-19,-9,19,-9,-29,0,-263,48,-112,19
19,0,-19,-9,19,-9,-29,0,-263,48,-107,19
24,4,-19,-14,21,-7,-29,0,-258,48,-102,19
29,9,-19,-19,24,-4,-29,0,-253,48,-97,19
34,29,-4,-31,19,12,-29,0,-244,53,-87,29
39,48,9,-43,14,29,-29,0,-234,58,-78,39
39,53,14,-46,12,34,-29,0,-219,63,-73,39
39,58,19,-48,9,39,-29,0,-209,63,-63,39
39,63,24,-51,7,43,-29,4,-204,68,-58,39
39,68,29,-53,4,48,-24,9,-200,78,-53,39
48,63,14,-56,17,39,-39,4,-200,82,-48,39
58,73,14,-65,21,43,-73,-9,-200,82,-48,48
58,112,53,-85,2,82,-87,-24,-200,92,-29,58
63,146,82,-104,-9,114,-102,-39,-200,97,-19,73
63,156,92,-109,-14,124,-117,-53,-200,92,-9,82
63,161,97,-112,-17,129,-126,-68,-209,87,-4,87
73,161,87,-117,-7,124,-126,-68,-209,87,-4,87
78,156,78,-117,0,117,-126,-63,-224,78,-14,82
92,141,48,-117,21,95,-122,-53,-229,78,-19,82
97,141,43,-119,26,92,-112,-39,-229,78,-19,82
97,131,34,-114,31,82,-97,-29,-229,78,-19,82
68,122,53,-95,7,87,-78,-29,-229,73,-19,78
39,117,78,-78,-19,97,-63,-24,-224,73,-29,73
24,92,68,-58,-21,80,-48,-24,-224,63,-29,53
14,39,24,-26,-4,31,-34,-24,-229,43,-58,24
9,4,-4,-7,7,0,-24,-19,-239,19,-82,9
4,-4,-9,0,7,-7,-24,-14,-253,4,-97,-4
4,-29,-34,12,19,-31,-14,-4,-258,-9,-107,-19
-4,-39,-34,21,14,-36,-9,-4,-258,-14,-112,-24
-9,-48,-39,29,14,-43,-4,0,-258,-19,-112,-29
-9,-48,-39,29,14,-43,-4,0,-258,-19,-117,-29
-9,-48,-39,29,14,-43,0,0,-258,-19,-117,-29
-9,-53,-43,31,17,-48,0,0,-253,-14,-117,-29
-9,-53,-43,31,17,-48,0,0,-244,-9,-117,-29
-9,-53,-43,31,17,-48,0,4,-244,-9,-117,-29
-9,-53,-43,31,17,-48,4,4,-239,-9,-117,-24
-9,-53,-43,31,17,-48,4,4,-239,-9,-117,-29
-9,-53,-43,31,17,-48,4,9,-239,-9,-117,-29
-4,-53,-48,29,21,-51,9,9,-239,-9,-117,-29
0,-53,-53,26,26,-53,9,9,-234,-9,-117,-29
0,-53,-53,26,26,-53,9,9,-234,-4,-117,-29
0,-48,-48,24,24,-48,9,14,-229,0,-117,-24
-4,-48,-43,26,19,-46,9,14,-229,0,-117,-19
-9,-48,-39,29,14,-43,9,14,-224,0,-117,-14
-9,-43,-34,26,12,-39,14,19,-224,0,-117,-19
-9,-43,-34,26,12,-39,14,19,-214,0,-117,-19
-9,-53,-43,31,17,-48,14,19,-209,0,-117,-24
-4,-73,-68,39,31,-70,43,78,-190,-9,-141,-39
-4,-165,-161,85,78,-163,136,209,-117,-39,-214,-102
-9,-219,-209,114,100,-214,234,307,14,-29,-253,-161
-14,-204,-190,109,87,-197,302,405,170,43,-229,-165
14,-117,-131,51,73,-124,341,527,268,156,-161,-117
131,117,-14,-124,73,51,268,673,161,307,39,58
317,507,190,-412,63,348,34,668,-283,370,307,361
619,990,370,-805,124,680,-366,658,-771,536,697,800
1039,1468,429,-1254,305,949,-976,517,-1444,732,1137,1312
1444,1995,551,-1720,446,1273,-1586,190,-1952,961,1620,1888
1459,2727,1268,-2093,95,1998,-2059,-697,-2064,1468,2303,2557
1224,3357,2132,-2291,-453,2745,-2405,-1751,-2049,1839,2840,3128
941,3445,2503,-2193,-780,2974,-2361,-2117,-1898,1854,2849,3220
751,2825,2074,-1788,-661,2449,-1908,-1786,-1459,1546,2278,2723
595,1586,990,-1090,-197,1288,-1078,-932,-771,1078,1381,1820
326,741,414,-534,-43,578,-512,-434,-448,488,546,951
73,165,92,-119,-9,129,-126,-78,-253,82,-43,248
-78,-9,68,43,-73,29,63,68,-68,97,-117,4
-107,-43,63,75,-85,9,151,117,39,97,-117,-43
-87,-97,-9,92,-39,-53,170,146,24,73,-161,-73
-87,-131,-43,109,-21,-87,156,156,-4,73,-180,-107
-102,-117,-14,109,-43,-65,156,131,-4,73,-170,-107
-102,-117,-14,109,-43,-65,165,131,0,68,-161,-107
-102,-122,-19,112,-41,-70,165,131,0,53,-175,-107
-102,-122,-19,112,-41,-70,161,131,0,53,-175,-107
-102,-122,-19,112,-41,-70,161,131,0,53,-180,-112
-102,-122,-19,112,-41,-70,161,131,0,48,-180,-112
-102,-117,-14,109,-43,-65,170,131,-4,43,-180,-112
-102,-112,-9,107,-46,-61,170,131,-9,39,-180,-112
-107,-117,-9,112,-48,-63,170,131,-9,39,-180,-112
-107,-117,-9,112,-48,-63,175,136,-4,39,-180,-112
-102,-122,-19,112,-41,-70,175,141,4,43,-185,-107
-97,-126,-29,112,-34,-78,180,151,14,48,-185,-102
-97,-131,-34,114,-31,-82,180,151,19,48,-185,-107
-97,-136,-39,117,-29,-87,180,151,19,48,-195,-107
-102,-141,-39,122,-31,-90,185,151,19,48,-195,-107
-102,-151,-48,126,-26,-100,190,151,19,48,-195,-107
-102,-151,-48,126,-26,-100,190,161,19,48,-190,-107
-102,-151,-48,126,-26,-100,190,165,24,48,-195,-107
-102,-151,-48,126,-26,-100,195,165,29,48,-195,-107
-102,-151,-48,126,-26,-100,195,165,29,48,-200,-107
-107,-151,-43,129,-31,-97,195,165,39,48,-200,-112
-107,-151,-43,129,-31,-97,200,170,43,48,-209,-117
-107,-156,-48,131,-29,-102,195,175,48,48,-209,-117
-112,-156,-43,134,-34,-100,200,180,48,48,-214,-122
-112,-161,-48,136,-31,-104,200,175,53,48,-219,-122
-112,-146,-34,129,-39,-90,204,175,58,48,-224,-122
-117,-146,-29,131,-43,-87,204,175,63,43,-234,-122
-117,-151,-34,134,-41,-92,209,180,68,43,-239,-117
-122,-156,-34,139,-43,-95,209,180,68,39,-248,-126
-122,-156,-34,139,-43,-95,219,190,68,39,-253,-126
-126,-156,-29,141,-48,-92,224,190,68,24,-268,-131
-126,-151,-24,139,-51,-87,229,195,73,14,-283,-136
-131,-156,-24,143,-53,-90,229,200,73,9,-283,-141
-131,-161,-29,146,-51,-95,234,204,73,9,-287,-146
-141,-170,-29,156,-56,-100,239,204,82,4,-297,-156
-146,-175,-29,161,-58,-102,244,204,87,4,-307,-165
-151,-180,-29,165,-61,-104,244,209,87,-4,-317,-165
-156,-185,-29,170,-63,-107,248,219,87,-14,-326,-170
-161,-185,-24,173,-68,-104,258,224,97,-19,-336,-185
-165,-190,-24,178,-70,-107,263,234,92,-19,-346,-185
-165,-185,-19,175,-73,-102,268,239,102,-24,-346,-190
-175,-180,-4,178,-85,-92,283,244,107,-29,-361,-200
-175,-180,-4,178,-85,-92,287,248,122,-34,-370,-209
-185,-185,0,185,-92,-92,302,258,131,-39,-380,-214
-204,-200,4,202,-104,-97,312,268,136,-48,-390,-224
-224,-200,24,212,-124,-87,322,263,146,-63,-405,-234
-234,-209,24,222,-129,-92,331,278,151,-68,-419,-248
-244,-229,14,236,-129,-107,351,283,151,-78,-439,-268
-253,-239,14,246,-134,-112,366,283,156,-92,-463,-283
-263,-253,9,258,-136,-122,380,292,156,-112,-488,-297
-278,-268,9,273,-143,-129,390,297,156,-136,-507,-326
-287,-292,-4,290,-141,-148,405,307,156,-156,-531,-356
-307,-312,-4,309,-151,-158,419,312,161,-175,-561,-370
-326,-336,-9,331,-158,-173,434,317,161,-204,-605,-390
-341,-366,-24,353,-158,-195,444,322,161,-229,-639,-419
-346,-390,-43,368,-151,-217,453,326,156,-248,-663,-448
-356,-400,-43,378,-156,-222,458,331,151,-273,-697,-463
-356,-409,-53,383,-151,-231,458,331,146,-292,-722,-478
-356,-419,-63,387,-146,-241,453,331,141,-312,-746,-492
-351,-424,-73,387,-139,-248,448,336,136,-322,-761,-502
-336,-434,-97,385,-119,-265,444,341,122,-322,-761,-507
-317,-434,-117,375,-100,-275,419,346,112,-317,-761,-502
-292,-424,-131,358,-80,-278,405,341,102,-312,-761,-492
-258,-409,-151,334,-53,-280,361,341,92,-292,-736,-463
-229,-366,-136,297,-46,-251,326,336,63,-273,-707,-414
-180,-341,-161,261,-9,-251,278,317,39,-244,-668,-370
-151,-302,-151,226,0,-226,224,278,-14,-209,-614,-322
-112,-258,-146,185,17,-202,175,244,-48,-175,-570,-258
-82,-190,-107,136,12,-148,136,214,-78,-136,-517,-204
-48,-156,-107,102,29,-131,102,185,-112,-107,-453,-151
-24,-117,-92,70,34,-104,63,156,-136,-73,-409,-102
0,-78,-78,39,39,-78,24,126,-161,-39,-366,-53
14,-34,-48,9,31,-41,0,107,-180,-14,-331,-14
34,-9,-43,-12,39,-26,-14,82,-200,9,-302,9
43,9,-34,-26,39,-12,-34,63,-209,24,-278,29
68,34,-34,-51,51,0,-43,43,-224,39,-258,58
68,48,-19,-58,43,14,-58,34,-234,48,-244,73
73,58,-14,-65,43,21,-68,24,-244,63,-229,82
78,68,-9,-73,43,29,-78,9,-253,68,-224,87
78,78,0,-78,39,39,-82,4,-253,73,-214,97
78,78,0,-78,39,39,-87,0,-258,73,-209,102
82,87,4,-85,39,46,-92,-4,-258,73,-204,107
82,87,4,-85,39,46,-92,-4,-263,78,-200,112
87,87,0,-87,43,43,-92,-4,-268,78,-195,117
87,87,0,-87,43,43,-92,-9,-268,78,-195,117
87,92,4,-90,41,48,-87,-9,-268,78,-195,117
87,92,4,-90,41,48,-87,-9,-268,82,-200,122
87,92,4,-90,41,48,-87,-9,-268,82,-200,122
87,92,4,-90,41,48,-87,-9,-268,82,-204,117
87,92,4,-90,41,48,-87,-9,-268,82,-209,112
82,92,9,-87,36,51,-87,-9,-268,82,-204,112
82,92,9,-87,36,51,-87,-9,-268,82,-204,112
78,92,14,-85,31,53,-82,-9,-268,82,-204,112
73,92,19,-82,26,56,-82,-9,-268,82,-204,117
68,87,19,-78,24,53,-82,-9,-268,82,-200,117
68,87,19,-78,24,53,-78,-9,-268,82,-200,112
78,82,4,-80,36,43,-78,-9,-268,78,-200,112
82,78,-4,-80,43,36,-78,-9,-273,73,-200,112
78,78,0,-78,39,39,-78,-9,-273,73,-200,107
78,78,0,-78,39,39,-78,-9,-273,73,-200,107
73,78,4,-75,34,41,-68,-9,-273,78,-200,107
73,78,4,-75,34,41,-63,-9,-273,82,-200,107
63,68,4,-65,29,36,-63,-9,-273,82,-200,102
53,68,14,-61,19,41,-58,-9,-273,82,-200,102
53,68,14,-61,19,41,-58,-4,-268,78,-200,92
53,63,9,-58,21,36,-53,-4,-268,78,-200,92
53,63,9,-58,21,36,-43,-4,-263,78,-204,92
43,63,19,-53,12,41,-43,-4,-263,73,-204,82
43,63,19,-53,12,41,-39,-4,-263,73,-209,82
39,58,19,-48,9,39,-39,-4,-263,73,-209,78
39,48,9,-43,14,29,-29,0,-263,68,-209,73
39,48,9,-43,14,29,-24,0,-263,68,-214,73
39,39,0,-39,19,19,-14,4,-263,73,-214,73
34,29,-4,-31,19,12,-14,4,-263,73,-214,63
34,24,-9,-29,21,7,-14,4,-253,73,-209,58
34,24,-9,-29,21,7,-9,9,-248,73,-209,53
29,19,-9,-24,19,4,-9,14,-248,73,-209,53
29,19,-9,-24,19,4,-4,14,-248,68,-209,53
29,14,-14,-21,21,0,-4,19,-248,68,-209,53
29,9,-19,-19,24,-4,-4,19,-253,68,-209,48
29,4,-24,-17,26,-9,-4,19,-253,68,-209,48
29,4,-24,-17,26,-9,-4,19,-253,68,-209,48
29,0,-29,-14,29,-14,-4,24,-248,68,-204,48
24,-4,-29,-9,26,-17,-4,29,-244,68,-200,53
24,-9,-34,-7,29,-21,-4,29,-244,63,-200,53
24,-9,-34,-7,29,-21,-4,29,-244,63,-195,53
24,-9,-34,-7,29,-21,-4,29,-248,63,-190,53
24,-4,-29,-9,26,-17,-4,29,-248,63,-185,53
19,-4,-24,-7,21,-14,-9,29,-248,63,-180,53
19,-4,-24,-7,21,-14,-9,29,-244,63,-180,53
19,0,-19,-9,19,-9,-9,24,-248,58,-180,48
19,9,-9,-14,14,0,-9,24,-248,58,-175,43
19,9,-9,-14,14,0,-14,19,-253,58,-175,43
19,9,-9,-14,14,0,-14,14,-258,58,-170,43
19,9,-9,-14,14,0,-14,14,-258,58,-170,43
19,4,-14,-12,17,-4,-14,14,-258,58,-165,43
19,4,-14,-12,17,-4,-14,9,-258,58,-161,48
19,4,-14,-12,17,-4,-14,9,-258,58,-161,48
19,4,-14,-12,17,-4,-14,9,-263,53,-161,43
14,14,0,-14,7,7,-19,9,-263,48,-165,39
14,14,0,-14,7,7,-19,9,-268,43,-161,39
14,14,0,-14,7,7,-19,4,-273,39,-165,34
14,14,0,-14,7,7,-19,0,-273,43,-151,34
19,9,-9,-14,14,0,-19,0,-273,43,-146,39
19,14,-4,-17,12,4,-19,0,-268,48,-141,43
19,19,0,-19,9,9,-19,0,-268,48,-136,43
19,24,4,-21,7,14,-29,0,-268,48,-131,43
14,24,9,-19,2,17,-29,0,-268,48,-131,39
14,24,9,-19,2,17,-19,4,-268,43,-136,43
14,19,4,-17,4,12,-14,14,-268,43,-131,43
14,24,9,-19,2,17,-29,0,-268,43,-126,48
14,29,14,-21,0,21,-24,0,-268,43,-122,48
9,24,14,-17,-2,19,-19,0,-263,43,-122,43
9,19,9,-14,0,14,-19,0,-263,43,-122,39
9,29,19,-19,-4,24,-19,4,-253,43,-107,43
9,39,29,-24,-9,34,-19,9,-244,48,-97,48
9,43,34,-26,-12,39,-19,9,-229,58,-87,58
9,48,39,-29,-14,43,-19,9,-214,68,-78,68
4,58,53,-31,-24,56,-19,9,-214,68,-73,68
0,68,68,-34,-34,68,-19,9,-209,68,-68,63
0,78,78,-39,-39,78,-19,14,-209,73,-68,63
9,82,73,-46,-31,78,-34,14,-209,73,-63,58
19,92,73,-56,-26,82,-73,0,-204,73,-58,68
19,112,92,-65,-36,102,-87,-14,-200,82,-39,78
24,151,126,-87,-51,139,-107,-34,-200,92,-29,92
29,175,146,-102,-58,161,-122,-48,-200,97,-19,102
34,185,151,-109,-58,168,-131,-58,-209,97,-9,107
43,190,146,-117,-51,168,-136,-58,-209,97,-4,107
48,185,136,-117,-43,161,-141,-53,-224,87,-9,102
58,170,112,-114,-26,141,-141,-43,-229,82,-9,102
63,180,117,-122,-26,148,-131,-29,-229,78,-9,107
68,180,112,-124,-21,146,-117,-19,-229,78,-9,112
39,170,131,-104,-46,151,-97,-19,-229,73,0,107
9,161,151,-85,-70,156,-82,-14,-224,73,-4,102
-9,126,136,-58,-73,131,-63,-9,-219,73,-9,82
-24,68,92,-21,-58,80,-43,-4,-219,63,-39,53
-34,29,63,2,-48,46,-34,4,-229,39,-63,39
-43,14,58,14,-51,36,-34,9,-244,29,-73,24
-43,-14,29,29,-36,7,-24,14,-248,14,-82,4
-48,-24,24,36,-36,0,-19,14,-248,4,-92,-4
-48,-29,19,39,-34,-4,-14,19,-248,0,-92,-9
-48,-29,19,39,-34,-4,-14,19,-248,0,-97,-9
-43,-29,14,36,-29,-7,-9,19,-248,0,-97,-9
-39,-34,4,36,-21,-14,-9,19,-248,0,-97,-9
-39,-34,4,36,-21,-14,-9,19,-244,0,-102,-4
-39,-34,4,36,-21,-14,-9,24,-244,0,-107,-4
-39,-39,0,39,-19,-19,-9,24,-239,0,-107,-4
-39,-43,-4,41,-17,-24,-14,24,-239,0,-107,-9
-39,-43,-4,41,-17,-24,-14,29,-234,4,-107,-4
-39,-43,-4,41,-17,-24,-9,29,-229,9,-107,0
-39,-39,0,39,-19,-19,-9,34,-224,9,-107,4
-39,-39,0,39,-19,-19,-9,39,-224,9,-107,4
-39,-39,0,39,-19,-19,-9,48,-214,14,-107,4
-39,-39,0,39,-19,-19,-9,53,-209,19,-107,4
-39,-39,0,39,-19,-19,-14,53,-204,19,-107,9
-39,-34,4,36,-21,-14,-14,58,-204,19,-107,9
-39,-34,4,36,-21,-14,-14,48,-200,24,-102,14
-43,-43,0,43,-21,-21,-14,39,-200,29,-97,14
-39,-63,-24,51,-7,-43,4,97,-180,19,-112,9
-34,-156,-122,95,43,-139,87,229,-131,-19,-180,-53
-39,-219,-180,129,70,-200,185,317,-24,-29,-248,-136
-48,-229,-180,139,65,-204,268,405,156,29,-253,-161
-53,-204,-151,129,48,-178,361,541,346,136,-214,-151
24,-19,-43,-2,34,-31,341,692,326,287,-53,-29
165,336,170,-251,-2,253,180,712,-48,326,165,214
434,810,375,-622,29,592,-190,692,-507,424,488,614
897,1268,370,-1083,263,819,-805,653,-1263,551,873,1093
1381,1761,380,-1571,500,1071,-1395,546,-1834,756,1337,1649
1488,2576,1088,-2032,200,1832,-1971,-351,-2020,1307,2093,2410
1327,3318,1991,-2322,-331,2654,-2440,-1517,-2078,1766,2762,3103
1034,3689,2654,-2361,-810,3172,-2552,-2132,-2010,1917,2996,3425
819,3294,2474,-2056,-827,2884,-2230,-2020,-1673,1717,2591,3123
688,1952,1263,-1320,-287,1607,-1361,-1098,-927,1254,1654,2205
429,1005,575,-717,-73,790,-732,-527,-517,644,780,1288
131,326,195,-229,-31,261,-268,-122,-302,165,73,453
-63,48,112,7,-87,80,-19,68,-107,117,-122,87
-107,-14,92,61,-100,39,82,131,19,112,-131,9
-87,-78,9,82,-48,-34,112,180,29,82,-180,-34
-87,-112,-24,100,-31,-68,107,195,4,82,-200,-68
-102,-97,4,100,-53,-46,117,170,4,78,-200,-68
-107,-97,9,102,-58,-43,126,170,9,68,-200,-68
-112,-102,9,107,-61,-46,131,170,9,53,-214,-68
-112,-102,9,107,-61,-46,126,170,9,48,-214,-68
-112,-102,9,107,-61,-46,122,170,9,43,-219,-73
-107,-102,4,104,-56,-48,122,170,9,39,-219,-73
-102,-102,0,102,-51,-51,131,170,9,39,-224,-73
-102,-97,4,100,-53,-46,131,170,4,39,-224,-73
-107,-97,9,102,-58,-43,131,170,0,39,-224,-73
-107,-97,9,102,-58,-43,136,170,4,39,-229,-73
-107,-97,9,102,-58,-43,136,165,4,39,-234,-73
-107,-97,9,102,-58,-43,141,170,4,39,-234,-73
-107,-97,9,102,-58,-43,141,170,9,39,-234,-78
-107,-97,9,102,-58,-43,141,170,9,34,-248,-82
-112,-97,14,104,-63,-41,141,170,14,29,-253,-87
-112,-97,14,104,-63,-41,141,170,19,29,-253,-87
-112,-92,19,102,-65,-36,141,175,19,29,-253,-87
-112,-92,19,102,-65,-36,141,175,19,29,-263,-87
-112,-92,19,102,-65,-36,146,175,19,29,-263,-87
-122,-97,24,109,-73,-36,146,175,19,29,-268,-87
-136,-102,34,119,-85,-34,146,175,24,29,-268,-92
-126,-102,24,114,-75,-39,151,180,24,29,-278,-97
-117,-107,9,112,-63,-48,151,185,29,29,-278,-97
-122,-102,19,112,-70,-41,161,190,29,29,-278,-102
-122,-107,14,114,-68,-46,161,190,34,29,-278,-102
-122,-97,24,109,-73,-36,165,195,39,29,-278,-102
-126,-97,29,112,-78,-34,165,195,43,24,-278,-107
-126,-102,24,114,-75,-39,170,200,48,24,-278,-107
-131,-112,19,122,-75,-46,170,200,53,19,-283,-117
-131,-122,9,126,-70,-56,180,204,58,19,-287,-117
-136,-126,9,131,-73,-58,185,200,58,14,-297,-122
-136,-122,14,129,-75,-53,195,204,63,14,-302,-126
-141,-122,19,131,-80,-51,200,209,68,9,-302,-131
-141,-126,14,134,-78,-56,204,214,73,9,-307,-136
-151,-141,9,146,-80,-65,209,219,82,4,-312,-141
-156,-146,9,151,-82,-68,214,224,87,4,-317,-146
-161,-151,9,156,-85,-70,219,229,92,0,-322,-146
-165,-156,9,161,-87,-73,224,239,97,-4,-326,-151
-170,-156,14,163,-92,-70,229,244,112,-9,-336,-165
-175,-161,14,168,-95,-73,234,253,112,-9,-341,-161
-180,-165,14,173,-97,-75,239,258,122,-14,-341,-165
-195,-170,24,183,-109,-73,253,263,126,-19,-361,-180
-195,-175,19,185,-107,-78,258,268,136,-24,-370,-190
-204,-185,19,195,-112,-82,273,278,141,-24,-380,-195
-214,-200,14,207,-114,-92,283,292,146,-29,-390,-204
-219,-190,29,204,-124,-80,292,292,156,-43,-405,-214
-224,-190,34,207,-129,-78,302,307,161,-53,-419,-229
-234,-209,24,222,-129,-92,322,317,161,-68,-439,-248
-248,-219,29,234,-139,-95,336,322,165,-82,-463,-263
-263,-234,29,248,-146,-102,351,331,170,-92,-483,-273
-278,-248,29,263,-153,-109,361,336,175,-107,-497,-297
-287,-268,19,278,-153,-124,375,346,180,-126,-522,-326
-302,-283,19,292,-161,-131,390,351,185,-146,-551,-346
-317,-307,9,312,-163,-148,405,356,180,-170,-585,-366
-331,-336,-4,334,-163,-170,414,361,180,-190,-614,-390
-341,-356,-14,348,-163,-185,424,370,180,-209,-644,-419
-356,-366,-9,361,-173,-187,429,380,180,-234,-678,-439
-356,-380,-24,368,-165,-202,434,380,180,-253,-702,-458
-356,-390,-34,373,-161,-212,439,380,175,-273,-727,-473
-356,-405,-48,380,-153,-226,439,385,175,-283,-741,-483
-346,-424,-78,385,-134,-251,434,385,165,-287,-741,-483
-326,-424,-97,375,-114,-261,409,385,151,-292,-751,-492
-302,-414,-112,358,-95,-263,390,380,136,-292,-756,-492
-268,-409,-141,339,-63,-275,351,385,117,-278,-741,-463
-239,-370,-131,305,-53,-251,326,380,82,-258,-722,-419
-190,-341,-151,265,-19,-246,278,361,58,-229,-678,-370
-161,-292,-131,226,-14,-212,224,326,19,-195,-619,-322
-122,-248,-126,185,2,-187,175,292,-9,-165,-575,-263
-92,-190,-97,141,2,-143,136,258,-48,-131,-522,-209
-58,-161,-102,109,21,-131,97,224,-87,-97,-453,-151
-39,-117,-78,78,19,-97,53,190,-107,-58,-405,-102
-9,-68,-58,39,24,-63,14,156,-131,-19,-356,-48
14,-24,-39,4,26,-31,-9,136,-156,4,-317,-4
34,0,-34,-17,34,-17,-24,112,-175,29,-283,19
39,19,-19,-29,29,0,-48,97,-190,43,-258,39
58,58,0,-58,29,29,-68,78,-209,53,-244,68
58,87,29,-73,14,58,-87,63,-219,58,-229,82
63,87,24,-75,19,56,-97,53,-229,73,-209,97
68,87,19,-78,24,53,-102,43,-244,78,-204,107
73,97,24,-85,24,61,-102,39,-244,82,-195,117
78,97,19,-87,29,58,-107,29,-248,87,-190,122
82,107,24,-95,29,65,-112,24,-248,92,-185,126
82,107,24,-95,29,65,-112,24,-248,97,-180,131
87,107,19,-97,34,63,-112,24,-248,97,-175,136
87,107,19,-97,34,63,-117,19,-248,97,-175,136
87,107,19,-97,34,63,-117,14,-248,97,-175,136
87,102,14,-95,36,58,-117,9,-248,102,-175,141
87,102,14,-95,36,58,-117,9,-253,102,-175,141
87,102,14,-95,36,58,-117,9,-258,102,-180,141
87,102,14,-95,36,58,-117,4,-258,97,-185,136
82,102,19,-92,31,61,-117,0,-258,92,-185,131
82,97,14,-90,34,56,-117,0,-258,92,-185,131
82,92,9,-87,36,51,-112,0,-258,92,-185,131
82,92,9,-87,36,51,-112,0,-258,92,-185,136
78,87,9,-82,34,48,-112,0,-258,92,-180,136
78,87,9,-82,34,48,-107,0,-258,92,-180,131
78,87,9,-82,34,48,-107,0,-253,92,-180,131
78,92,14,-85,31,53,-107,0,-253,92,-180,131
78,97,19,-87,29,58,-107,0,-253,92,-180,126
78,97,19,-87,29,58,-107,0,-253,87,-180,126
73,97,24,-85,24,61,-102,0,-253,82,-180,126
73,97,24,-85,24,61,-102,0,-253,82,-180,126
68,87,19,-78,24,53,-102,0,-253,82,-180,122
63,87,24,-75,19,56,-97,0,-258,82,-185,122
63,87,24,-75,19,56,-97,4,-258,78,-190,112
58,82,24,-70,17,53,-92,4,-258,78,-195,112
53,78,24,-65,14,51,-82,4,-253,78,-204,112
43,73,29,-58,7,51,-78,4,-253,68,-204,102
43,73,29,-58,7,51,-68,4,-253,63,-209,102
39,68,29,-53,4,48,-68,0,-253,63,-214,97
39,58,19,-48,9,39,-63,0,-253,58,-219,92
39,58,19,-48,9,39,-63,0,-253,58,-224,92
39,53,14,-46,12,34,-53,4,-253,58,-224,92
34,48,14,-41,9,31,-53,4,-253,53,-224,82
34,43,9,-39,12,26,-53,4,-248,53,-224,78
34,43,9,-39,12,26,-48,4,-248,53,-229,73
29,39,9,-34,9,24,-48,4,-248,53,-229,73
29,39,9,-34,9,24,-43,4,-248,48,-234,73
29,34,4,-31,12,19,-43,9,-248,48,-239,73
29,29,0,-29,14,14,-39,9,-253,48,-239,68
29,24,-4,-26,17,9,-34,9,-253,43,-239,68
24,19,-4,-21,14,7,-34,4,-258,39,-244,63
19,14,-4,-17,12,4,-34,0,-263,39,-248,53
14,14,0,-14,7,7,-34,0,-263,39,-248,53
14,9,-4,-12,9,2,-34,0,-263,34,-248,53
14,4,-9,-9,12,-2,-34,0,-263,34,-244,53
14,-4,-19,-4,17,-12,-34,0,-268,34,-244,53
14,-4,-19,-4,17,-12,-34,0,-268,29,-244,53
14,-4,-19,-4,17,-12,-34,0,-273,24,-239,53
19,0,-19,-9,19,-9,-29,0,-268,24,-239,53
19,4,-14,-12,17,-4,-29,-4,-268,19,-239,53
19,9,-9,-14,14,0,-29,-4,-268,19,-234,53
19,9,-9,-14,14,0,-34,-4,-268,19,-234,53
19,9,-9,-14,14,0,-34,0,-268,19,-229,53
19,14,-4,-17,12,4,-34,4,-268,19,-229,53
19,4,-14,-12,17,-4,-34,9,-263,24,-219,53
19,-4,-24,-7,21,-14,-34,9,-258,29,-209,58
19,-4,-24,-7,21,-14,-34,9,-258,29,-209,58
24,-4,-29,-9,26,-17,-34,9,-258,29,-204,58
19,4,-14,-12,17,-4,-39,9,-253,29,-204,58
14,9,-4,-12,9,2,-39,9,-253,29,-195,63
14,9,-4,-12,9,2,-39,9,-253,29,-200,63
14,14,0,-14,7,7,-39,9,-253,34,-190,63
14,9,-4,-12,9,2,-39,9,-253,29,-185,63
9,4,-4,-7,7,0,-39,9,-248,29,-180,63
9,0,-9,-4,9,-4,-34,14,-248,29,-175,63
14,-4,-19,-4,17,-12,-39,19,-248,29,-170,68
9,-4,-14,-2,12,-9,-34,19,-248,29,-165,68
9,4,-4,-7,7,0,-24,14,-248,29,-156,73
9,4,-4,-7,7,0,-29,14,-244,34,-146,68
9,4,-4,-7,7,0,-34,19,-239,39,-136,68
9,9,0,-9,4,4,-24,29,-224,48,-126,73
9,19,9,-14,0,14,-19,39,-214,58,-117,78
14,34,19,-24,-2,26,-24,43,-200,68,-102,87
19,48,29,-34,-4,39,-29,48,-185,78,-87,97
19,48,29,-34,-4,39,-29,48,-180,78,-78,97
14,53,39,-34,-12,46,-29,53,-170,82,-68,97
14,58,43,-36,-14,51,-29,58,-165,87,-63,97
19,63,43,-41,-12,53,-43,63,-161,92,-53,97
29,82,53,-56,-12,68,-82,53,-156,97,-43,112
29,112,82,-70,-26,97,-97,43,-151,112,-19,126
34,136,102,-85,-34,119,-112,29,-146,122,-9,141
39,146,107,-92,-34,126,-122,19,-141,126,0,151
43,156,112,-100,-34,134,-131,4,-151,126,9,161
53,161,107,-107,-26,134,-136,0,-151,126,14,165
63,161,97,-112,-17,129,-136,0,-170,117,4,161
78,151,73,-114,2,112,-131,4,-180,112,0,161
87,156,68,-122,9,112,-122,19,-180,102,0,165
97,151,53,-124,21,102,-107,29,-180,97,0,170
68,141,73,-104,-2,107,-87,29,-175,92,0,165
39,131,92,-85,-26,112,-73,34,-165,92,-14,161
14,102,87,-58,-36,95,-53,34,-165,82,-19,141
-4,48,53,-21,-29,51,-34,34,-170,63,-48,112
-9,14,24,-2,-17,19,-24,39,-185,39,-78,92
-14,4,19,4,-17,12,-24,39,-204,29,-92,73
-14,-24,-9,19,-2,-17,-14,43,-209,14,-102,53
-19,-34,-14,26,-2,-24,-9,43,-209,4,-112,43
-19,-39,-19,29,0,-29,-4,48,-209,0,-112,39
-19,-39,-19,29,0,-29,-4,48,-209,0,-117,39
-19,-39,-19,29,0,-29,0,48,-209,-4,-117,34
-19,-43,-24,31,2,-34,0,48,-209,-9,-117,29
-19,-43,-24,31,2,-34,0,48,-204,-9,-117,29
-19,-43,-24,31,2,-34,0,53,-204,-9,-117,24
-14,-53,-39,34,12,-46,0,53,-195,-4,-122,24
-9,-63,-53,36,21,-58,-4,53,-190,0,-126,19
-9,-63,-53,36,21,-58,-4,58,-190,0,-126,19
-9,-63,-53,36,21,-58,0,58,-190,0,-126,19
-9,-58,-48,34,19,-53,0,53,-185,0,-126,19
-9,-58,-48,34,19,-53,0,48,-185,0,-126,14
-9,-58,-48,34,19,-53,0,53,-180,0,-126,14
-9,-58,-48,34,19,-53,0,53,-180,0,-126,14
-9,-58,-48,34,19,-53,-4,53,-175,0,-126,14
-9,-53,-43,31,17,-48,-4,58,-175,0,-126,9
-9,-53,-43,31,17,-48,-4,48,-165,0,-122,9
-14,-63,-48,39,17,-56,-4,39,-161,0,-117,4
-14,-82,-68,48,26,-75,14,92,-141,-9,-141,-9
-14,-175,-161,95,73,-168,97,219,-92,-48,-219,-82
-19,-234,-214,126,97,-224,195,317,14,-58,-273,-156
-29,-239,-209,134,90,-224,278,414,195,0,-263,-170
-19,-195,-175,107,78,-185,356,536,351,102,-219,-151
73,9,-63,-41,68,-26,322,673,297,248,-53,-19
224,375,151,-300,36,263,141,688,-87,297,180,239
502,858,356,-680,73,607,-248,663,-556,405,517,653
961,1312,351,-1137,305,832,-873,570,-1283,536,907,1137
1439,1800,361,-1620,539,1080,-1473,409,-1825,746,1376,1698
1517,2605,1088,-2061,214,1847,-2015,-468,-1976,1293,2113,2449
1327,3337,2010,-2332,-341,2674,-2449,-1615,-2000,1747,2762,3132
1044,3620,2576,-2332,-766,3098,-2518,-2156,-1903,1859,2942,3391
839,3137,2298,-1988,-729,2718,-2152,-1971,-1537,1620,2483,3025
683,1830,1146,-1256,-231,1488,-1288,-1063,-829,1166,1551,2103
400,917,517,-658,-58,717,-663,-507,-458,566,683,1180
122,258,136,-190,-7,197,-219,-117,-244,117,24,385
-53,0,53,26,-53,26,9,58,-48,97,-122,58
-102,-58,43,80,-73,-7,112,126,78,92,-126,-9
-87,-117,-29,102,-29,-73,141,180,87,63,-170,-43
-92,-151,-58,122,-17,-104,126,180,53,63,-190,-82
-112,-136,-24,124,-43,-80,126,141,43,58,-190,-87
-112,-136,-24,124,-43,-80,136,151,43,48,-190,-87
-112,-141,-29,126,-41,-85,141,161,39,34,-204,-87
-112,-156,-43,134,-34,-100,141,161,39,34,-204,-87
-112,-170,-58,141,-26,-114,141,161,39,34,-209,-92
-112,-170,-58,141,-26,-114,136,156,39,24,-209,-92
-112,-170,-58,141,-26,-114,141,151,39,19,-214,-92
-112,-170,-58,141,-26,-114,141,151,39,19,-219,-92
-117,-175,-58,146,-29,-117,141,151,39,19,-224,-92
-117,-180,-63,148,-26,-122,151,156,43,19,-224,-92
-117,-185,-68,151,-24,-126,156,156,43,19,-224,-92
-117,-195,-78,156,-19,-136,161,161,43,19,-224,-92
-117,-204,-87,161,-14,-146,161,161,48,19,-224,-97
-117,-185,-68,151,-24,-126,161,161,48,14,-234,-97
-122,-165,-43,143,-39,-104,161,161,53,9,-234,-97
-122,-170,-48,146,-36,-109,161,161,58,9,-234,-102
-122,-170,-48,146,-36,-109,161,165,58,9,-234,-107
-122,-180,-58,151,-31,-119,161,165,63,9,-239,-107
-122,-190,-68,156,-26,-129,165,165,68,9,-234,-107
-122,-190,-68,156,-26,-129,165,165,68,9,-239,-107
-126,-190,-63,158,-31,-126,165,165,73,9,-239,-112
-126,-185,-58,156,-34,-122,170,165,73,9,-248,-117
-126,-185,-58,156,-34,-122,170,165,78,9,-248,-117
-136,-185,-48,161,-43,-117,180,170,73,9,-248,-122
-141,-195,-53,168,-43,-124,180,170,73,9,-248,-122
-141,-185,-43,163,-48,-114,185,175,78,9,-253,-122
-146,-185,-39,165,-53,-112,185,175,82,4,-258,-126
-146,-190,-43,168,-51,-117,190,180,87,4,-258,-126
-151,-200,-48,175,-51,-124,190,180,92,0,-263,-136
-151,-204,-53,178,-48,-129,200,190,102,0,-263,-136
-156,-204,-48,180,-53,-126,204,190,107,-4,-268,-141
-156,-204,-48,180,-53,-126,214,195,112,-4,-273,-146
-161,-209,-48,185,-56,-129,219,200,117,-9,-273,-151
-161,-209,-48,185,-56,-129,224,204,117,-9,-278,-156
-170,-219,-48,195,-61,-134,229,209,122,-14,-283,-161
-175,-224,-48,200,-63,-136,234,214,126,-14,-283,-165
-180,-229,-48,204,-65,-139,239,219,131,-19,-283,-165
-185,-234,-48,209,-68,-141,248,224,126,-29,-287,-170
-190,-234,-43,212,-73,-139,258,224,131,-39,-297,-185
-195,-244,-48,219,-73,-146,258,234,131,-39,-307,-185
-200,-253,-53,226,-73,-153,258,239,141,-43,-312,-195
-214,-258,-43,236,-85,-151,273,244,146,-43,-331,-209
-214,-263,-48,239,-82,-156,278,248,156,-43,-341,-219
-224,-273,-48,248,-87,-161,292,258,161,-48,-351,-229
-234,-287,-53,261,-90,-170,302,273,165,-58,-361,-244
-244,-283,-39,263,-102,-161,312,268,170,-73,-375,-253
-253,-287,-34,270,-109,-161,322,278,170,-82,-390,-268
-263,-307,-43,285,-109,-175,341,283,170,-97,-405,-287
-278,-317,-39,297,-119,-178,356,283,175,-112,-424,-302
-302,-326,-24,314,-139,-175,370,292,180,-126,-444,-312
-326,-336,-9,331,-158,-173,380,297,185,-146,-458,-336
-336,-356,-19,346,-158,-187,395,307,185,-165,-483,-366
-351,-370,-19,361,-165,-195,409,312,185,-185,-512,-385
-366,-395,-29,380,-168,-212,424,317,185,-214,-541,-405
-380,-424,-43,402,-168,-234,434,322,190,-239,-566,-429
-385,-444,-58,414,-163,-251,448,326,185,-258,-595,-458
-395,-453,-58,424,-168,-256,458,331,180,-283,-629,-478
-400,-468,-68,434,-165,-268,458,331,180,-302,-653,-497
-405,-478,-73,441,-165,-275,458,331,175,-322,-678,-512
-400,-492,-92,446,-153,-292,463,341,170,-331,-697,-527
-385,-512,-126,448,-129,-319,463,346,156,-336,-702,-531
-370,-512,-141,441,-114,-326,444,346,141,-341,-707,-536
-351,-502,-151,427,-100,-326,429,341,126,-341,-707,-531
-317,-488,-170,402,-73,-329,380,341,112,-331,-692,-507
-287,-439,-151,363,-68,-295,346,331,82,-317,-673,-468
-239,-409,-170,324,-34,-290,307,307,48,-287,-629,-419
-209,-361,-151,285,-29,-256,263,268,0,-253,-570,-370
-170,-312,-141,241,-14,-226,204,234,-24,-219,-527,-312
-141,-248,-107,195,-17,-178,156,200,-58,-180,-473,-258
-102,-214,-112,158,4,-163,122,165,-97,-146,-405,-200
-78,-165,-87,122,4,-126,82,131,-117,-107,-356,-151
-53,-122,-68,87,7,-95,43,97,-141,-73,-307,-102
-34,-82,-48,58,7,-65,19,78,-165,-53,-268,-63
-14,-58,-43,36,14,-51,4,48,-180,-29,-234,-29
-9,-39,-29,24,9,-34,-19,29,-190,-14,-209,0
9,-14,-24,2,17,-19,-39,14,-209,0,-190,29
9,0,-9,-4,9,-4,-58,4,-219,9,-170,43
14,9,-4,-12,9,2,-68,-4,-224,24,-151,53
19,19,0,-19,9,9,-73,-14,-234,29,-146,58
24,29,4,-26,9,17,-73,-14,-234,34,-136,68
29,29,0,-29,14,14,-78,-19,-239,39,-131,73
34,39,4,-36,14,21,-82,-24,-239,43,-126,78
34,39,4,-36,14,21,-82,-24,-239,48,-122,82
34,39,4,-36,14,21,-82,-24,-244,48,-117,87
29,39,9,-34,9,24,-87,-29,-248,48,-117,87
29,43,14,-36,7,29,-87,-34,-253,43,-117,82
29,43,14,-36,7,29,-87,-39,-258,43,-117,82
29,48,19,-39,4,34,-87,-39,-258,43,-112,82
29,53,24,-41,2,39,-87,-39,-258,43,-112,82
29,53,24,-41,2,39,-82,-39,-258,43,-112,82
24,53,29,-39,-2,41,-78,-39,-258,43,-107,82
24,53,29,-39,-2,41,-78,-39,-258,43,-107,82
24,53,29,-39,-2,41,-73,-39,-258,43,-107,82
24,53,29,-39,-2,41,-73,-34,-253,43,-107,87
19,48,29,-34,-4,39,-73,-29,-248,43,-102,87
19,48,29,-34,-4,39,-68,-29,-248,43,-102,82
19,48,29,-34,-4,39,-68,-29,-244,43,-102,82
14,48,34,-31,-9,41,-68,-29,-248,43,-102,82
9,48,39,-29,-14,43,-68,-29,-253,43,-102,78
9,43,34,-26,-12,39,-68,-29,-253,43,-102,78
4,39,34,-21,-14,36,-63,-29,-253,43,-102,78
4,39,34,-21,-14,36,-63,-29,-253,43,-97,78
0,29,29,-14,-14,29,-63,-29,-253,43,-92,73
-4,34,39,-14,-21,36,-58,-29,-253,43,-92,78
-4,39,43,-17,-24,41,-58,-24,-248,39,-92,73
-4,39,43,-17,-24,41,-53,-24,-248,43,-87,73
-4,39,43,-17,-24,41,-43,-24,-244,48,-87,73
-14,34,48,-9,-31,41,-43,-24,-244,43,-87,63
-14,34,48,-9,-31,41,-39,-24,-244,43,-92,63
-19,29,48,-4,-34,39,-39,-24,-244,43,-92,58
-19,19,39,0,-29,29,-34,-19,-244,39,-92,53
-19,19,39,0,-29,29,-34,-19,-244,39,-97,53
-19,14,34,2,-26,24,-24,-14,-244,39,-97,53
-24,14,39,4,-31,26,-24,-19,-244,34,-97,43
-24,14,39,4,-31,26,-24,-24,-239,34,-97,39
-24,14,39,4,-31,26,-19,-19,-239,34,-102,34
-29,9,39,9,-34,24,-19,-14,-239,34,-102,34
-29,4,34,12,-31,19,-14,-14,-239,29,-102,34
-29,-4,24,17,-26,9,-14,-9,-239,29,-102,34
-24,-9,14,17,-19,2,-14,-9,-244,29,-102,24
-19,-14,4,17,-12,-4,-14,-9,-244,24,-102,19
-19,-9,9,14,-14,0,-14,-9,-244,19,-102,19
-19,-4,14,12,-17,4,-14,-9,-244,19,-102,14
-24,-4,19,14,-21,7,-14,-4,-244,19,-102,14
-24,-9,14,17,-19,2,-14,0,-244,14,-102,14
-24,-9,14,17,-19,2,-9,0,-244,14,-97,14
-24,-14,9,19,-17,-2,-4,0,-248,14,-97,14
-24,-14,9,19,-17,-2,-4,0,-248,14,-97,14
-24,-14,9,19,-17,-2,-4,0,-253,14,-92,14
-19,-19,0,19,-9,-9,0,0,-258,9,-92,14
-19,-24,-4,21,-7,-14,0,-4,-268,0,-92,14
-14,-19,-4,17,-4,-12,0,-4,-268,0,-87,14
-9,-19,-9,14,0,-14,-4,-4,-268,0,-87,14
-9,-19,-9,14,0,-14,-9,-4,-268,0,-82,14
-9,-14,-4,12,-2,-9,-14,-4,-268,0,-82,14
-9,-14,-4,12,-2,-9,-14,-4,-268,0,-78,14
-9,-14,-4,12,-2,-9,-14,-9,-268,0,-73,19
-9,-14,-4,12,-2,-9,-14,-14,-273,0,-73,19
-4,-14,-9,9,2,-12,-14,-19,-278,0,-68,19
-4,-9,-4,7,0,-7,-19,-19,-273,0,-73,14
-4,-9,-4,7,0,-7,-19,-19,-273,0,-68,14
-4,-9,-4,7,0,-7,-24,-24,-278,-4,-78,14
-4,-4,0,4,-2,-2,-29,-29,-283,-4,-73,14
-4,0,4,2,-4,2,-29,-29,-283,-9,-68,19
-9,4,14,2,-12,9,-29,-29,-278,-9,-58,24
-4,0,4,2,-4,2,-29,-24,-268,-9,-58,19
0,0,0,0,0,0,-29,-19,-263,-9,-58,19
0,19,19,-9,-9,19,-29,-19,-258,0,-48,24
0,39,39,-19,-19,39,-29,-19,-253,9,-39,29
4,43,39,-24,-17,41,-24,-19,-248,9,-39,34
4,48,43,-26,-19,46,-24,-19,-244,9,-34,34
9,53,43,-31,-17,48,-24,-19,-244,9,-29,39
9,58,48,-34,-19,53,-24,-19,-239,19,-24,39
19,63,43,-41,-12,53,-48,-24,-234,29,-14,39
29,82,53,-56,-12,68,-92,-39,-229,34,-9,48
29,112,82,-70,-26,97,-107,-48,-229,48,9,58
34,136,102,-85,-34,119,-122,-58,-229,58,19,73
39,146,107,-92,-34,126,-131,-68,-224,63,29,82
43,151,107,-97,-31,129,-136,-78,-229,68,34,87
53,161,107,-107,-26,134,-141,-78,-229,73,43,92
58,165,107,-112,-24,136,-146,-73,-244,68,43,92
73,156,82,-114,-4,119,-141,-63,-248,68,39,92
78,161,82,-119,-2,122,-131,-48,-248,68,39,92
78,151,73,-114,2,112,-117,-34,-244,68,39,92
48,141,92,-95,-21,117,-97,-29,-239,63,39,87
19,126,107,-73,-43,117,-82,-24,-234,63,24,82
4,92,87,-48,-41,90,-68,-24,-234,53,19,63
-4,39,43,-17,-24,41,-53,-29,-244,34,-14,34
-9,4,14,2,-12,9,-43,-29,-258,9,-43,19
-14,0,14,7,-14,7,-43,-29,-273,0,-53,4
-14,-19,-4,17,-4,-12,-34,-24,-278,-9,-58,-9
-19,-24,-4,21,-7,-14,-29,-24,-283,-14,-68,-14
-19,-29,-9,24,-4,-19,-24,-19,-287,-19,-73,-19
-19,-29,-9,24,-4,-19,-24,-19,-287,-19,-82,-19
-19,-29,-9,24,-4,-19,-19,-19,-287,-19,-87,-19
-19,-34,-14,26,-2,-24,-19,-19,-287,-19,-92,-19
-19,-34,-14,26,-2,-24,-19,-19,-283,-19,-97,-19
-19,-34,-14,26,-2,-24,-19,-14,-287,-19,-102,-19
-19,-34,-14,26,-2,-24,-14,-14,-287,-19,-107,-14
-19,-34,-14,26,-2,-24,-14,-14,-287,-19,-112,-19
-19,-34,-14,26,-2,-24,-14,-9,-287,-19,-117,-19
-19,-34,-14,26,-2,-24,-9,-9,-287,-19,-117,-19
-19,-34,-14,26,-2,-24,-9,-9,-283,-19,-117,-19
-19,-39,-19,29,0,-29,-4,-9,-283,-19,-122,-19
-19,-39,-19,29,0,-29,0,-4,-278,-19,-126,-14
-19,-34,-14,26,-2,-24,0,-4,-283,-19,-131,-14
-19,-29,-9,24,-4,-19,0,-4,-283,-19,-136,-14
-19,-14,4,17,-12,-4,4,0,-283,-19,-136,-19
-19,-4,14,12,-17,4,4,0,-273,-19,-136,-19
-24,-29,-4,26,-9,-17,0,0,-273,-24,-146,-24
-24,-63,-39,43,7,-51,24,58,-258,-39,-180,-39
-24,-146,-122,85,48,-134,117,185,-209,-78,-258,-112
-29,-190,-161,109,65,-175,214,278,-102,-78,-302,-180
-43,-190,-146,117,51,-168,302,375,82,-14,-287,-190
-24,-117,-92,70,34,-104,361,497,209,87,-229,-146
82,126,43,-104,19,85,302,624,126,229,-53,9
258,527,268,-392,-4,397,82,600,-292,283,190,292
561,1024,463,-793,48,744,-356,517,-800,395,546,732
980,1517,536,-1249,222,1027,-1005,302,-1493,536,951,1244
1420,2054,634,-1737,392,1344,-1605,58,-1961,766,1429,1834
1468,2796,1327,-2132,70,2061,-2069,-746,-2034,1273,2108,2518
1249,3425,2176,-2337,-463,2801,-2430,-1790,-2020,1654,2649,3113
980,3513,2532,-2247,-775,3023,-2400,-2147,-1869,1678,2664,3230
790,2884,2093,-1837,-651,2488,-1937,-1790,-1473,1395,2108,2727
634,1634,1000,-1134,-183,1317,-1098,-912,-829,951,1224,1820
351,790,439,-570,-43,614,-527,-434,-517,385,419,946
82,214,131,-148,-24,173,-136,-97,-331,4,-141,239
-82,34,117,24,-100,75,53,48,-146,34,-214,-9
-126,-4,122,65,-124,58,141,97,-39,48,-214,-63
-107,-58,48,82,-78,-4,161,126,-53,24,-258,-92
-107,-92,14,100,-61,-39,146,136,-82,24,-278,-126
-117,-78,39,97,-78,-19,146,112,-87,19,-278,-122
-112,-78,34,95,-73,-21,156,112,-87,9,-278,-117
-112,-82,29,97,-70,-26,161,112,-87,-4,-292,-117
-112,-82,29,97,-70,-26,161,112,-87,-4,-292,-117
-112,-82,29,97,-70,-26,161,117,-87,-4,-297,-122
-112,-82,29,97,-70,-26,161,122,-87,-9,-297,-122
-112,-82,29,97,-70,-26,170,122,-87,-9,-307,-122
-112,-82,29,97,-70,-26,170,122,-87,-9,-317,-122
-117,-87,29,102,-73,-29,170,117,-87,-9,-322,-122
-117,-87,29,102,-73,-29,175,117,-82,-9,-326,-122
-117,-87,29,102,-73,-29,175,117,-78,-9,-331,-117
-117,-87,29,102,-73,-29,180,122,-73,-9,-331,-112
-122,-87,34,104,-78,-26,180,122,-68,-9,-331,-117
-126,-87,39,107,-82,-24,180,122,-68,-9,-341,-117
-131,-87,43,109,-87,-21,180,122,-63,-4,-341,-117
-131,-92,39,112,-85,-26,180,122,-58,0,-341,-117
-131,-97,34,114,-82,-31,180,126,-58,0,-341,-117
-131,-102,29,117,-80,-36,180,126,-53,0,-351,-117
-131,-102,29,117,-80,-36,190,126,-43,0,-346,-117
-131,-102,29,117,-80,-36,195,126,-39,0,-346,-117
-131,-102,29,117,-80,-36,195,126,-34,0,-346,-117
-126,-102,24,114,-75,-39,200,131,-34,0,-356,-117
-126,-102,24,114,-75,-39,195,136,-29,0,-356,-117
-131,-97,34,114,-82,-31,200,141,-29,0,-361,-122
-136,-107,29,122,-82,-39,200,136,-24,0,-366,-126
-141,-97,43,119,-92,-26,204,136,-19,0,-370,-131
-146,-97,48,122,-97,-24,200,136,-14,-4,-375,-136
-146,-102,43,124,-95,-29,200,141,-9,-4,-375,-136
-151,-112,39,131,-95,-36,200,141,-4,-9,-385,-141
-151,-117,34,134,-92,-41,209,151,0,-9,-390,-136
-156,-122,34,139,-95,-43,224,156,4,-9,-395,-141
-156,-122,34,139,-95,-43,239,165,14,-4,-400,-146
-161,-122,39,141,-100,-41,239,170,19,-4,-400,-151
-161,-122,39,141,-100,-41,244,175,24,0,-405,-156
-170,-131,39,151,-104,-46,248,180,34,-4,-409,-161
-175,-136,39,156,-107,-48,253,185,39,-4,-414,-165
-180,-141,39,161,-109,-51,258,190,43,-9,-419,-165
-185,-146,39,165,-112,-53,268,200,48,-14,-424,-170
-190,-146,43,168,-117,-51,278,204,63,-19,-429,-185
-195,-151,43,173,-119,-53,283,214,63,-19,-434,-185
-200,-161,39,180,-119,-61,287,224,73,-19,-434,-190
-214,-170,43,192,-129,-63,302,234,78,-19,-448,-200
-214,-175,39,195,-126,-68,307,239,92,-24,-458,-209
-224,-185,39,204,-131,-73,322,248,102,-29,-468,-214
-234,-200,34,217,-134,-82,331,263,107,-34,-478,-224
-244,-200,43,222,-143,-78,341,263,117,-43,-492,-234
-253,-209,43,231,-148,-82,351,283,122,-53,-507,-244
-263,-229,34,246,-148,-97,370,292,122,-68,-527,-258
-273,-239,34,256,-153,-102,385,292,131,-78,-551,-273
-283,-253,29,268,-156,-112,400,302,136,-92,-575,-287
-297,-263,34,280,-165,-114,409,307,136,-112,-595,-312
-307,-283,24,295,-165,-129,424,317,136,-126,-619,-336
-322,-302,19,312,-170,-141,439,326,141,-141,-639,-356
-336,-326,9,331,-173,-158,453,336,141,-165,-673,-380
-351,-356,-4,353,-173,-180,463,341,141,-190,-702,-405
-356,-380,-24,368,-165,-202,473,346,136,-209,-722,-429
-366,-400,-34,383,-165,-217,483,356,131,-229,-756,-444
-366,-419,-53,392,-156,-236,488,361,126,-244,-780,-458
-366,-429,-63,397,-151,-246,488,361,122,-263,-805,-473
-361,-434,-73,397,-143,-253,488,366,117,-273,-819,-483
-351,-444,-92,397,-129,-268,483,361,97,-283,-824,-492
-336,-444,-107,390,-114,-275,458,356,82,-287,-829,-492
-312,-434,-122,373,-95,-278,444,346,68,-283,-824,-478
-278,-419,-141,348,-68,-280,400,341,53,-263,-795,-444
-248,-380,-131,314,-58,-256,366,331,19,-244,-761,-395
-200,-361,-161,280,-19,-261,317,307,-9,-214,-717,-351
-170,-312,-141,241,-14,-226,273,268,-48,-180,-658,-302
-131,-258,-126,195,-2,-192,234,234,-68,-146,-610,-239
-102,-195,-92,148,-4,-143,175,200,-97,-107,-561,-185
-68,-165,-97,117,14,-131,122,165,-131,-78,-502,-131
-48,-122,-73,85,12,-97,97,136,-156,-48,-453,-82
-29,-78,-48,53,9,-63,73,107,-180,-19,-405,-34
-14,-43,-29,29,7,-36,48,87,-195,4,-366,4
4,-29,-34,12,19,-31,34,63,-209,29,-331,29
9,0,-9,-4,9,-4,9,48,-219,43,-307,48
29,34,4,-31,12,19,-4,34,-234,58,-287,78
29,48,19,-39,4,34,-24,24,-239,68,-273,92
34,58,24,-46,4,41,-39,14,-244,82,-258,102
39,63,24,-51,7,43,-43,0,-258,87,-253,107
39,68,29,-53,4,48,-43,-4,-263,92,-244,117
39,68,29,-53,4,48,-48,-9,-268,92,-239,122
43,78,34,-61,4,56,-53,-14,-268,92,-234,126
43,73,29,-58,7,51,-53,-14,-268,97,-229,131
48,68,19,-58,14,43,-53,-14,-268,97,-224,136
43,68,24,-56,9,46,-58,-19,-268,102,-224,136
39,73,34,-56,2,53,-58,-19,-268,107,-224,136
39,73,34,-56,2,53,-58,-14,-263,112,-219,141
39,73,34,-56,2,53,-58,-9,-258,112,-209,141
43,73,29,-58,7,51,-58,-9,-258,112,-209,141
48,73,24,-61,12,48,-58,-9,-258,112,-209,141
43,68,24,-56,9,46,-58,-9,-258,112,-204,141
43,63,19,-53,12,41,-58,-9,-258,112,-204,141
43,63,19,-53,12,41,-53,-9,-253,112,-204,141
43,63,19,-53,12,41,-53,-9,-248,112,-204,146
39,58,19,-48,9,39,-53,-9,-248,117,-200,146
39,58,19,-48,9,39,-48,-9,-248,122,-200,141
39,58,19,-48,9,39,-48,-9,-244,122,-200,141
34,58,24,-46,4,41,-48,-9,-244,122,-200,141
29,58,29,-43,0,43,-48,-9,-244,122,-195,136
29,58,29,-43,0,43,-48,-9,-244,122,-190,136
24,58,34,-41,-4,46,-39,-4,-244,122,-190,136
24,58,34,-41,-4,46,-34,0,-244,122,-190,136
19,48,29,-34,-4,39,-34,0,-244,122,-190,131
14,48,34,-31,-9,41,-29,0,-244,122,-190,131
14,48,34,-31,-9,41,-29,4,-239,117,-190,122
14,43,29,-29,-7,36,-24,4,-239,117,-190,122
14,39,24,-26,-4,31,-14,4,-234,117,-195,126
4,34,29,-19,-12,31,-14,4,-234,112,-195,122
4,29,24,-17,-9,26,-9,4,-229,112,-195,122
0,19,19,-9,-9,19,-9,4,-224,112,-190,117
-4,9,14,-2,-9,12,-4,9,-224,112,-190,112
-9,9,19,0,-14,14,-4,9,-224,117,-195,112
-9,4,14,2,-12,9,4,14,-224,117,-195,112
-14,0,14,7,-14,7,4,14,-224,112,-195,102
-9,-4,4,7,-7,0,4,14,-219,112,-195,97
-4,-4,0,4,-2,-2,9,19,-219,112,-200,92
-9,-9,0,9,-4,-4,9,19,-219,112,-195,92
-9,-9,0,9,-4,-4,14,14,-219,107,-190,92
-9,-14,-4,12,-2,-9,14,19,-214,107,-190,92
-9,-19,-9,14,0,-14,14,19,-214,107,-190,87
-9,-24,-14,17,2,-19,14,19,-214,107,-190,87
-9,-24,-14,17,2,-19,14,19,-214,107,-190,87
-9,-19,-9,14,0,-14,9,19,-214,107,-185,82
-14,-14,0,14,-7,-7,4,19,-214,107,-180,82
-14,-19,-4,17,-4,-12,4,19,-214,102,-180,82
-14,-19,-4,17,-4,-12,4,19,-214,102,-175,82
-14,-24,-9,19,-2,-17,4,19,-219,102,-175,82
-14,-24,-9,19,-2,-17,4,19,-219,102,-175,82
-14,-24,-9,19,-2,-17,0,19,-224,102,-170,82
-9,-24,-14,17,2,-19,0,19,-224,102,-170,82
-4,-24,-19,14,7,-21,0,14,-229,97,-165,82
0,-19,-19,9,9,-19,0,14,-229,97,-156,82
0,-19,-19,9,9,-19,-4,14,-234,97,-156,82
0,-19,-19,9,9,-19,-4,14,-239,97,-151,82
0,-14,-14,7,7,-14,-4,9,-239,92,-156,82
0,-14,-14,7,7,-14,-4,4,-239,87,-156,82
4,-14,-19,4,12,-17,-4,0,-239,87,-151,82
9,-14,-24,2,17,-19,-4,0,-239,87,-151,78
14,-19,-34,2,24,-26,-4,4,-239,87,-146,78
14,-14,-29,0,21,-21,-9,9,-234,87,-146,78
9,-14,-24,2,17,-19,-14,9,-234,82,-136,82
4,-9,-14,2,9,-12,-19,4,-234,82,-126,82
9,-4,-14,-2,12,-9,-19,0,-229,82,-117,82
14,0,-14,-7,14,-7,-19,0,-224,87,-112,87
14,14,0,-14,7,7,-19,0,-219,92,-107,87
19,29,9,-24,4,19,-19,0,-214,97,-107,87
19,39,19,-29,0,29,-19,0,-209,102,-97,92
19,48,29,-34,-4,39,-19,0,-204,107,-87,97
24,48,24,-36,0,36,-19,0,-200,107,-82,102
24,53,29,-39,-2,41,-19,0,-195,112,-78,102
29,58,29,-43,0,43,-24,0,-190,117,-73,107
39,63,24,-51,7,43,-43,-4,-190,122,-63,107
48,82,34,-65,7,58,-82,-19,-190,122,-58,112
48,112,63,-80,-7,87,-97,-34,-190,131,-39,117
53,141,87,-97,-17,114,-112,-48,-190,136,-29,131
58,156,97,-107,-19,126,-122,-58,-190,136,-19,141
63,161,97,-112,-17,129,-136,-68,-200,136,-14,146
73,161,87,-117,-7,124,-146,-68,-200,136,-14,146
82,156,73,-119,4,114,-146,-63,-214,122,-19,146
97,141,43,-119,26,92,-141,-53,-219,112,-19,151
97,146,48,-122,24,97,-131,-39,-219,107,-14,151
97,141,43,-119,26,92,-117,-29,-219,107,-9,151
68,131,63,-100,2,97,-97,-29,-219,102,-4,146
39,122,82,-80,-21,102,-82,-24,-214,102,-14,141
24,92,68,-58,-21,80,-68,-24,-214,92,-19,122
14,39,24,-26,-4,31,-53,-24,-219,73,-48,92
9,4,-4,-7,7,0,-43,-24,-229,48,-73,78
4,-4,-9,0,7,-7,-43,-29,-244,39,-82,63
4,-29,-34,12,19,-31,-34,-24,-248,29,-87,48
0,-34,-34,17,17,-34,-29,-24,-248,24,-92,43
-4,-43,-39,24,17,-41,-24,-14,-248,19,-87,39
-9,-48,-39,29,14,-43,-24,-9,-248,19,-87,39
-9,-48,-39,29,14,-43,-19,-9,-248,14,-87,39
-9,-53,-43,31,17,-48,-19,-9,-248,9,-87,39
-4,-43,-39,24,17,-41,-19,-14,-244,9,-82,39
0,-34,-34,17,17,-34,-19,-14,-244,9,-78,34
0,-29,-29,14,14,-29,-14,-14,-239,9,-78,34
0,-24,-24,12,12,-24,-14,-14,-239,9,-78,29
0,-19,-19,9,9,-19,-14,-9,-239,4,-78,29
0,-14,-14,7,7,-14,-9,-9,-239,0,-78,29
0,-14,-14,7,7,-14,-9,-9,-234,0,-78,29
0,-19,-19,9,9,-19,-9,-9,-234,0,-78,24
0,-24,-24,12,12,-24,-9,-4,-229,0,-73,19
0,-29,-29,14,14,-29,-9,-4,-229,0,-68,14
0,-29,-29,14,14,-29,-9,-4,-224,0,-68,14
0,-24,-24,12,12,-24,-4,0,-224,0,-68,9
0,-24,-24,12,12,-24,-4,0,-219,0,-63,9
-4,-34,-29,19,12,-31,-4,0,-219,0,-58,4
-4,-53,-48,29,21,-51,29,58,-200,-9,-82,-9
-4,-146,-141,75,68,-143,126,190,-151,-48,-161,-82
-9,-200,-190,104,90,-195,229,287,-43,-48,-204,-151
-19,-200,-180,109,80,-190,317,385,136,19,-185,-161
4,-131,-136,63,70,-134,370,507,248,102,-126,-122
112,97,-14,-104,63,41,312,644,151,229,53,29
292,483,190,-387,51,336,82,629,-263,283,297,307
600,985,385,-793,107,685,-356,575,-761,395,644,741
1049,1488,439,-1268,305,963,-1000,390,-1454,546,1049,1244
1517,2025,507,-1771,505,1266,-1620,136,-1961,775,1532,1825
1566,2776,1210,-2171,178,1993,-2113,-688,-2034,1302,2225,2537
1346,3455,2108,-2400,-380,2781,-2498,-1781,-1981,1737,2830,3181
1073,3586,2513,-2330,-719,3050,-2479,-2186,-1839,1795,2898,3318
878,2952,2074,-1915,-597,2513,-2025,-1864,-1429,1503,2327,2830
697,1693,995,-1195,-148,1344,-1185,-1000,-785,1049,1434,1932
390,829,439,-610,-24,634,-585,-488,-478,448,605,1034
117,234,117,-175,0,175,-165,-122,-273,48,14,307
-53,39,92,7,-73,65,39,29,-87,78,-63,48
-97,-9,87,53,-92,39,131,82,19,78,-68,-14
-78,-58,19,68,-48,-19,151,122,9,53,-112,-43
-78,-92,-14,85,-31,-53,136,136,-19,53,-126,-78
-92,-78,14,85,-53,-31,136,112,-24,48,-122,-78
-92,-82,9,87,-51,-36,146,112,-19,39,-122,-78
-92,-92,0,92,-46,-46,151,112,-19,24,-136,-78
-92,-92,0,92,-46,-46,151,112,-19,24,-136,-78
-92,-92,0,92,-46,-46,151,112,-19,24,-141,-82
-92,-92,0,92,-46,-46,151,112,-19,19,-136,-82
-92,-92,0,92,-46,-46,161,112,-19,19,-136,-82
-92,-92,0,92,-46,-46,161,112,-19,19,-141,-82
-97,-97,0,97,-48,-48,161,112,-19,19,-146,-82
-97,-97,0,97,-48,-48,165,117,-14,19,-151,-82
-97,-97,0,97,-48,-48,165,117,-14,19,-156,-82
-97,-97,0,97,-48,-48,170,122,-14,19,-156,-82
-97,-97,0,97,-48,-48,170,122,-9,19,-156,-87
-97,-97,0,97,-48,-48,170,122,-9,19,-165,-87
-102,-97,4,100,-53,-46,170,122,-4,19,-165,-87
-102,-97,4,100,-53,-46,170,122,0,19,-165,-92
-102,-92,9,97,-56,-41,170,126,0,19,-165,-97
-102,-92,9,97,-56,-41,170,126,4,19,-175,-97
-102,-92,9,97,-56,-41,175,126,9,19,-175,-97
-102,-92,9,97,-56,-41,175,126,9,19,-180,-92
-107,-92,14,100,-61,-39,175,126,14,19,-180,-92
-107,-92,14,100,-61,-39,180,131,14,19,-190,-97
-107,-97,9,102,-58,-43,180,136,19,19,-190,-97
-112,-97,14,104,-63,-41,190,141,19,19,-195,-102
-112,-107,4,109,-58,-51,190,141,24,19,-200,-102
-112,-97,14,104,-63,-41,195,146,29,19,-200,-102
-117,-97,19,107,-68,-39,195,146,34,14,-200,-107
-117,-92,24,104,-70,-34,200,151,39,19,-200,-102
-122,-92,29,107,-75,-31,200,151,43,19,-204,-107
-126,-107,19,117,-73,-43,209,161,53,19,-209,-107
-136,-117,19,126,-78,-48,214,161,58,14,-219,-112
-136,-112,24,124,-80,-43,219,165,63,9,-224,-117
-141,-112,29,126,-85,-41,219,170,68,0,-224,-122
-141,-112,29,126,-85,-41,224,175,73,0,-234,-126
-151,-122,29,136,-90,-46,229,180,82,-4,-244,-131
-156,-126,29,141,-92,-48,234,185,87,-4,-248,-136
-161,-131,29,146,-95,-51,239,190,92,-9,-253,-136
-165,-136,29,151,-97,-53,248,200,97,-9,-258,-141
-170,-136,34,153,-102,-51,258,204,112,-9,-268,-156
-170,-141,29,156,-100,-56,263,214,112,-9,-278,-151
-170,-146,24,158,-97,-61,268,219,122,-14,-283,-156
-185,-151,34,168,-109,-58,283,224,126,-19,-302,-170
-185,-156,29,170,-107,-63,287,229,136,-24,-312,-180
-200,-165,34,183,-117,-65,302,239,136,-29,-322,-185
-214,-180,34,197,-124,-73,312,253,136,-39,-331,-195
-224,-180,43,202,-134,-68,322,253,146,-48,-346,-204
-234,-190,43,212,-139,-73,331,268,151,-53,-361,-219
-244,-209,34,226,-139,-87,356,278,156,-68,-380,-239
-258,-219,39,239,-148,-90,375,283,165,-82,-405,-253
-273,-229,43,251,-158,-92,390,292,165,-97,-429,-263
-287,-239,48,263,-168,-95,400,297,165,-117,-448,-287
-297,-258,39,278,-168,-109,414,307,165,-136,-468,-317
-312,-273,39,292,-175,-117,429,312,165,-156,-492,-336
-331,-297,34,314,-183,-131,444,317,161,-185,-536,-361
-351,-326,24,339,-187,-151,453,322,161,-209,-575,-390
-356,-356,0,356,-178,-178,463,326,156,-229,-600,-414
-366,-375,-9,370,-178,-192,468,331,151,-253,-629,-429
-366,-400,-34,383,-165,-217,468,331,151,-273,-653,-448
-366,-419,-53,392,-156,-236,468,331,146,-292,-678,-463
-361,-414,-53,387,-153,-234,468,336,141,-302,-692,-478
-346,-414,-68,380,-139,-241,463,336,126,-307,-692,-483
-326,-414,-87,370,-119,-251,439,336,112,-307,-697,-483
-302,-405,-102,353,-100,-253,419,331,97,-302,-697,-473
-268,-385,-117,326,-75,-251,370,326,78,-292,-673,-439
-239,-331,-92,285,-73,-212,336,312,43,-278,-644,-390
-185,-302,-117,244,-34,-209,287,287,14,-244,-600,-341
-151,-253,-102,202,-24,-178,234,248,-29,-204,-541,-292
-112,-214,-102,163,-4,-158,180,214,-48,-170,-497,-229
-82,-161,-78,122,-2,-119,136,180,-78,-131,-444,-170
-48,-126,-78,87,14,-102,102,146,-122,-102,-380,-112
-29,-78,-48,53,9,-63,63,112,-146,-68,-336,-63
-4,-34,-29,19,12,-31,24,78,-161,-29,-287,-14
14,4,-9,-9,12,-2,0,58,-175,-4,-248,24
34,29,-4,-31,19,12,-9,34,-190,19,-214,48
39,48,9,-43,14,29,-29,19,-200,34,-190,68
58,68,9,-63,24,39,-43,4,-214,48,-175,97
58,78,19,-68,19,48,-58,-4,-219,58,-161,112
63,87,24,-75,19,56,-68,-14,-224,73,-141,122
68,97,29,-82,19,63,-73,-24,-234,78,-136,126
68,107,39,-87,14,73,-78,-24,-234,82,-126,136
68,107,39,-87,14,73,-87,-29,-239,87,-122,141
73,117,43,-95,14,80,-92,-34,-239,92,-117,146
73,117,43,-95,14,80,-92,-34,-239,97,-112,151
78,117,39,-97,19,78,-92,-29,-239,97,-107,156
78,117,39,-97,19,78,-97,-29,-239,97,-107,156
78,122,43,-100,17,82,-97,-29,-239,97,-107,156
78,122,43,-100,17,82,-97,-29,-239,102,-107,161
78,122,43,-100,17,82,-97,-29,-239,102,-102,161
78,122,43,-100,17,82,-97,-29,-239,102,-102,161
78,122,43,-100,17,82,-97,-29,-239,102,-102,161
73,122,48,-97,12,85,-97,-29,-239,102,-97,161
73,122,48,-97,12,85,-97,-29,-239,102,-97,161
73,122,48,-97,12,85,-92,-29,-239,102,-97,161
73,122,48,-97,12,85,-92,-29,-239,102,-97,165
68,117,48,-92,9,82,-92,-29,-239,102,-92,165
68,117,48,-92,9,82,-87,-29,-239,102,-92,161
68,117,48,-92,9,82,-87,-29,-234,102,-92,161
63,122,58,-92,2,90,-87,-29,-234,102,-97,161
58,126,68,-92,-4,97,-87,-29,-234,102,-102,156
63,126,63,-95,0,95,-87,-29,-234,102,-102,156
63,126,63,-95,0,95,-82,-29,-234,102,-102,156
63,126,63,-95,0,95,-82,-24,-234,102,-102,156
58,117,58,-87,0,87,-82,-19,-234,102,-102,151
48,117,68,-82,-9,92,-78,-19,-234,102,-102,151
43,117,73,-80,-14,95,-78,-14,-229,97,-102,141
43,112,68,-78,-12,90,-73,-14,-229,102,-97,141
43,107,63,-75,-9,85,-63,-14,-224,107,-97,141
34,102,68,-68,-17,85,-63,-14,-219,102,-97,131
34,102,68,-68,-17,85,-58,-14,-214,102,-102,131
29,97,68,-63,-19,82,-58,-14,-214,102,-102,126
29,87,58,-58,-14,73,-53,-9,-214,97,-102,122
29,87,58,-58,-14,73,-53,-9,-214,97,-107,122
29,82,53,-56,-12,68,-43,-4,-214,97,-107,122
24,78,53,-51,-14,65,-43,-4,-219,92,-107,112
24,73,48,-48,-12,61,-43,-4,-219,92,-107,107
24,73,48,-48,-12,61,-39,0,-219,92,-112,102
19,68,48,-43,-14,58,-39,4,-219,92,-112,102
19,68,48,-43,-14,58,-34,4,-214,82,-112,102
19,63,43,-41,-12,53,-34,9,-209,78,-112,102
19,58,39,-39,-9,48,-34,4,-214,78,-117,97
19,53,34,-36,-7,43,-34,0,-214,73,-122,97
19,53,34,-36,-7,43,-34,0,-219,68,-122,97
19,53,34,-36,-7,43,-34,0,-224,68,-122,92
14,53,39,-34,-12,46,-34,0,-224,68,-122,87
14,48,34,-31,-9,41,-34,0,-224,63,-122,82
14,48,34,-31,-9,41,-34,0,-224,63,-117,82
14,43,29,-29,-7,36,-34,0,-229,63,-117,82
14,43,29,-29,-7,36,-34,0,-229,63,-117,82
14,43,29,-29,-7,36,-34,0,-234,63,-112,82
19,39,19,-29,0,29,-29,0,-234,63,-112,82
19,34,14,-26,2,24,-29,-4,-239,58,-112,82
19,34,14,-26,2,24,-29,-4,-239,53,-107,82
19,29,9,-24,4,19,-34,-4,-239,48,-107,82
19,29,9,-24,4,19,-34,-4,-239,48,-102,82
19,34,14,-26,2,24,-34,-4,-239,48,-102,82
14,34,19,-24,-2,26,-34,-4,-239,48,-97,82
9,34,24,-21,-7,29,-34,-9,-239,48,-92,87
9,34,24,-21,-7,29,-34,-9,-239,48,-92,87
14,39,24,-26,-4,31,-39,-9,-234,48,-87,87
14,53,39,-34,-12,46,-39,-9,-234,53,-82,92
19,68,48,-43,-14,58,-39,-9,-234,58,-78,97
19,78,58,-48,-19,68,-39,-9,-224,63,-68,102
19,87,68,-53,-24,78,-39,-9,-214,68,-58,107
24,87,63,-56,-19,75,-39,-9,-209,68,-58,107
24,87,63,-56,-19,75,-39,-9,-204,68,-53,107
29,87,58,-58,-14,73,-43,-9,-200,68,-48,107
29,87,58,-58,-14,73,-43,-9,-190,78,-43,107
34,92,58,-63,-12,75,-63,-14,-190,82,-34,107
39,112,73,-75,-17,92,-102,-29,-190,82,-29,117
39,146,107,-92,-34,126,-112,-43,-190,92,-9,126
43,175,131,-109,-43,153,-122,-58,-190,97,0,141
53,185,131,-119,-39,158,-131,-68,-185,102,14,151
63,190,126,-126,-31,158,-136,-78,-190,107,24,156
73,195,122,-134,-24,158,-141,-78,-190,107,24,156
78,195,117,-136,-19,156,-146,-73,-204,97,14,151
92,180,87,-136,2,134,-141,-63,-209,92,9,151
97,180,82,-139,7,131,-131,-48,-209,87,9,151
97,165,68,-131,14,117,-117,-34,-209,87,14,151
68,151,82,-109,-7,117,-97,-29,-209,82,19,146
29,141,112,-85,-41,126,-78,-24,-200,87,9,141
4,112,107,-58,-51,109,-58,-24,-195,82,9,122
-4,58,63,-26,-34,61,-39,-29,-200,63,-19,92
-9,24,34,-7,-21,29,-24,-29,-209,39,-43,78
-14,14,29,0,-21,21,-24,-29,-229,29,-53,63
-14,-9,4,12,-9,-2,-14,-24,-239,19,-58,48
-19,-24,-4,21,-7,-14,-14,-24,-239,9,-63,39
-19,-39,-19,29,0,-29,-14,-19,-239,0,-63,29
-19,-39,-19,29,0,-29,-14,-19,-234,0,-68,29
-19,-39,-19,29,0,-29,-9,-19,-229,0,-68,29
-19,-43,-24,31,2,-34,-9,-14,-229,0,-68,29
-19,-43,-24,31,2,-34,-9,-9,-224,0,-68,29
-19,-48,-29,34,4,-39,-9,-4,-224,0,-68,24
-19,-53,-34,36,7,-43,-4,-4,-219,0,-68,24
-19,-53,-34,36,7,-43,-4,-4,-219,0,-68,19
-19,-53,-34,36,7,-43,-4,0,-219,0,-68,19
-19,-53,-34,36,7,-43,0,0,-219,0,-68,14
-19,-53,-34,36,7,-43,0,0,-214,0,-68,9
-19,-58,-39,39,9,-48,0,0,-214,0,-63,4
-19,-58,-39,39,9,-48,0,4,-209,0,-58,4
-19,-58,-39,39,9,-48,0,4,-209,0,-58,4
-19,-58,-39,39,9,-48,0,4,-204,0,-58,4
-19,-53,-34,36,7,-43,4,9,-204,4,-58,0
-19,-53,-34,36,7,-43,4,9,-195,9,-58,0
-24,-48,-24,36,0,-36,-9,-14,-200,9,-43,4
-24,-53,-29,39,2,-41,4,19,-190,0,-53,0
-24,-170,-146,97,61,-158,97,151,-175,-58,-151,-82
-29,-248,-219,139,95,-234,195,248,-102,-78,-214,-161
-58,-292,-234,175,87,-263,312,346,131,-24,-229,-209
-53,-263,-209,158,78,-236,400,468,307,68,-200,-204
14,-112,-126,48,70,-119,429,668,336,219,-68,-126
151,195,43,-173,53,119,297,717,29,283,131,78
429,692,263,-561,82,478,-107,683,-478,351,439,473
824,1185,361,-1005,231,773,-722,517,-1171,448,795,941
1444,1712,268,-1578,588,990,-1424,439,-1776,639,1249,1532
1673,2444,771,-2059,451,1607,-1991,-200,-1986,1107,1903,2215
1464,3416,1952,-2440,-244,2684,-2527,-1551,-2010,1698,2752,3093
1205,3845,2640,-2525,-717,3242,-2674,-2215,-1898,1932,3074,3494
1015,3289,2274,-2152,-629,2781,-2298,-2000,-1561,1654,2571,3103
858,2113,1254,-1485,-197,1683,-1546,-1263,-976,1215,1742,2308
527,1093,566,-810,-19,829,-810,-649,-595,561,795,1293
209,341,131,-275,39,236,-253,-175,-341,92,92,444
-19,78,97,-29,-58,87,-19,9,-117,102,-24,107
-126,-43,82,85,-104,19,112,97,29,97,-68,-34
-97,-97,0,97,-48,-48,141,141,24,68,-122,-63
-87,-131,-43,109,-21,-87,136,165,4,63,-151,-97
-102,-122,-19,112,-41,-70,136,141,4,58,-141,-97
-102,-126,-24,114,-39,-75,146,141,9,48,-131,-97
-107,-131,-24,119,-41,-78,151,141,9,34,-146,-102
-112,-131,-19,122,-46,-75,151,141,9,34,-146,-107
-112,-136,-24,124,-43,-80,151,141,9,34,-156,-112
-112,-141,-29,126,-41,-85,151,141,9,29,-161,-112
-112,-141,-29,126,-41,-85,161,141,9,29,-165,-112
-112,-141,-29,126,-41,-85,161,141,9,29,-170,-112
-117,-141,-24,129,-46,-82,161,141,9,29,-175,-112
-117,-136,-19,126,-48,-78,165,146,14,29,-180,-112
-117,-136,-19,126,-48,-78,165,141,14,29,-185,-112
-117,-136,-19,126,-48,-78,170,141,14,29,-185,-112
-117,-136,-19,126,-48,-78,170,141,19,29,-185,-117
-117,-136,-19,126,-48,-78,170,141,19,29,-195,-117
-122,-136,-14,129,-53,-75,170,141,19,29,-195,-117
-122,-141,-19,131,-51,-80,170,141,19,29,-195,-117
-117,-141,-24,129,-46,-82,170,146,19,24,-190,-117
-112,-141,-29,126,-41,-85,170,146,24,19,-195,-117
-112,-141,-29,126,-41,-85,175,146,29,19,-195,-117
-112,-141,-29,126,-41,-85,175,146,29,19,-200,-117
-122,-141,-19,131,-51,-80,180,146,34,19,-204,-122
-126,-141,-14,134,-56,-78,190,151,34,19,-219,-126
-126,-146,-19,136,-53,-82,190,156,39,19,-219,-126
-131,-146,-14,139,-58,-80,200,161,39,19,-224,-131
-131,-156,-24,143,-53,-90,195,161,43,19,-229,-131
-131,-146,-14,139,-58,-80,195,165,48,19,-234,-131
-136,-146,-9,141,-63,-78,195,170,48,14,-239,-136
-136,-151,-14,143,-61,-82,200,180,48,14,-239,-136
-141,-156,-14,148,-63,-85,200,180,53,9,-244,-146
-141,-156,-14,148,-63,-85,209,190,58,9,-244,-146
-141,-156,-14,148,-63,-85,214,190,58,4,-248,-151
-136,-151,-14,143,-61,-82,219,195,63,4,-253,-156
-141,-151,-9,146,-65,-80,219,200,73,0,-253,-161
-141,-151,-9,146,-65,-80,224,204,82,0,-258,-165
-156,-161,-4,158,-75,-82,229,209,92,-4,-263,-170
-165,-165,0,165,-82,-82,234,214,97,-4,-268,-175
-170,-165,4,168,-87,-80,239,214,97,-9,-273,-175
-175,-165,9,170,-92,-78,248,219,97,-14,-278,-180
-175,-165,9,170,-92,-78,258,224,112,-14,-283,-195
-175,-170,4,173,-90,-82,263,234,112,-9,-287,-195
-180,-175,4,178,-92,-85,268,244,126,-14,-287,-204
-195,-180,14,187,-104,-82,283,253,136,-19,-302,-219
-195,-185,9,190,-102,-87,287,258,146,-24,-312,-229
-204,-195,9,200,-107,-92,302,268,151,-29,-322,-234
-214,-209,4,212,-109,-102,312,283,151,-39,-331,-244
-224,-209,14,217,-119,-97,322,283,156,-53,-346,-253
-234,-214,19,224,-126,-97,331,297,161,-63,-361,-268
-244,-229,14,236,-129,-107,351,302,161,-78,-380,-287
-258,-239,19,248,-139,-109,366,302,165,-87,-400,-302
-273,-253,19,263,-146,-117,380,312,165,-102,-419,-317
-287,-273,14,280,-151,-129,390,317,165,-126,-439,-341
-297,-302,-4,300,-146,-153,405,326,165,-146,-463,-366
-312,-322,-9,317,-151,-165,419,331,161,-170,-478,-385
-326,-346,-19,336,-153,-183,434,336,151,-204,-507,-409
-341,-375,-34,358,-153,-204,444,341,146,-234,-546,-444
-346,-400,-53,373,-146,-226,453,346,136,-258,-575,-478
-356,-419,-63,387,-146,-241,458,351,131,-287,-610,-497
-356,-439,-82,397,-136,-261,458,351,126,-312,-634,-517
-361,-448,-87,405,-136,-268,468,356,117,-331,-663,-531
-361,-453,-92,407,-134,-273,478,366,107,-341,-683,-541
-351,-468,-117,409,-117,-292,473,366,87,-351,-688,-551
-336,-473,-136,405,-100,-305,448,366,73,-356,-692,-551
-317,-473,-156,395,-80,-314,429,351,58,-361,-702,-551
