I,II,III,aVR,aVL,aVF,V1,V2,V3,V4,V5,V6,
19,19,0,-19,9,9,107,312,536,322,39,-78
29,29,0,-29,14,14,107,326,561,346,48,-68
39,39,0,-39,19,19,107,341,585,370,58,-58
43,48,4,-46,19,26,107,356,614,400,73,-53
48,58,9,-53,19,34,107,370,644,429,87,-48
58,63,4,-61,26,34,102,380,668,453,107,-43
68,68,0,-68,34,34,97,390,692,478,126,-39
78,82,4,-80,36,43,92,400,727,517,151,-19
87,97,9,-92,39,53,87,409,761,556,175,0
97,112,14,-104,41,63,82,419,780,590,195,14
107,126,19,-117,43,73,78,429,800,624,214,29
122,146,24,-134,48,85,68,429,819,658,248,48
136,165,29,-151,53,97,58,429,839,692,283,68
146,185,39,-165,53,112,43,424,854,727,302,87
156,204,48,-180,53,126,29,419,868,761,322,107
161,219,58,-190,51,139,14,405,868,790,356,131
165,234,68,-200,48,151,0,390,868,819,390,156
180,253,73,-217,53,163,-14,366,863,834,419,185
195,273,78,-234,58,175,-29,341,858,849,448,214
200,287,87,-244,56,187,-48,312,829,863,473,239
204,302,97,-253,53,200,-68,283,800,878,497,263
209,312,102,-261,53,207,-82,248,761,878,517,287
214,322,107,-268,53,214,-97,214,722,878,536,312
214,322,107,-268,53,214,-112,180,668,849,536,326
214,322,107,-268,53,214,-126,146,614,819,536,341
214,322,107,-268,53,214,-131,117,556,766,522,341
214,322,107,-268,53,214,-136,87,497,712,507,341
195,302,107,-248,43,204,-136,63,444,649,473,322
175,283,107,-229,34,195,-136,39,390,585,439,302
156,258,102,-207,26,180,-126,29,341,507,385,273
136,234,97,-185,19,165,-117,19,292,429,331,244
117,204,87,-161,14,146,-102,4,248,366,283,209
97,175,78,-136,9,126,-87,-9,204,302,234,175
82,151,68,-117,7,109,-78,-9,170,239,185,141
68,126,58,-97,4,92,-68,-9,136,175,136,107
48,102,53,-75,-2,78,-53,-9,107,131,97,78
29,78,48,-53,-9,63,-39,-9,78,87,58,48
14,53,39,-34,-12,46,-29,-9,58,48,29,24
0,29,29,-14,-14,29,-19,-9,39,9,0,0
-4,9,14,-2,-9,12,-9,-9,19,-14,-24,-14
-9,-9,0,9,-4,-4,0,-9,0,-39,-48,-29
-19,-19,0,19,-9,-9,9,-9,-14,-58,-63,-43
-29,-29,0,29,-14,-14,19,-9,-29,-78,-78,-58
-34,-39,-4,36,-14,-21,19,-9,-34,-87,-92,-63
-39,-48,-9,43,-14,-29,19,-9,-39,-97,-107,-68
-39,-53,-14,46,-12,-34,24,-9,-43,-107,-107,-78
-39,-58,-19,48,-9,-39,29,-9,-48,-117,-107,-87
-43,-63,-19,53,-12,-41,29,-9,-48,-122,-117,-87
-48,-68,-19,58,-14,-43,29,-9,-48,-126,-126,-87
-48,-68,-19,58,-14,-43,34,-9,-53,-126,-126,-87
-48,-68,-19,58,-14,-43,39,-9,-58,-126,-126,-87
-48,-68,-19,58,-14,-43,39,-9,-58,-126,-126,-87
-48,-68,-19,58,-14,-43,39,-9,-58,-126,-126,-87
-48,-68,-19,58,-14,-43,34,-9,-58,-126,-122,-87
-48,-68,-19,58,-14,-43,29,-9,-58,-126,-117,-87
-48,-63,-14,56,-17,-39,29,-9,-58,-126,-117,-87
-48,-58,-9,53,-19,-34,29,-9,-58,-126,-117,-87
-48,-58,-9,53,-19,-34,29,-9,-58,-126,-112,-87
-48,-58,-9,53,-19,-34,29,-9,-58,-126,-107,-87
-43,-58,-14,51,-14,-36,29,-9,-58,-126,-107,-87
-39,-58,-19,48,-9,-39,29,-9,-58,-126,-107,-87
-39,-58,-19,48,-9,-39,29,-9,-58,-126,-112,-87
-39,-58,-19,48,-9,-39,29,-9,-58,-126,-117,-87
-43,-58,-14,51,-14,-36,29,-9,-53,-126,-117,-87
-48,-58,-9,53,-19,-34,29,-9,-48,-126,-117,-87
-48,-58,-9,53,-19,-34,29,-9,-48,-126,-117,-87
-48,-58,-9,53,-19,-34,29,-9,-48,-126,-117,-87
-48,-58,-9,53,-19,-34,29,-9,-48,-126,-117,-87
-48,-58,-9,53,-19,-34,29,-9,-48,-126,-117,-87
-48,-58,-9,53,-19,-34,29,-9,-48,-131,-122,-92
-48,-58,-9,53,-19,-34,29,-9,-48,-136,-126,-97
-48,-58,-9,53,-19,-34,29,-9,-48,-136,-126,-97
-48,-58,-9,53,-19,-34,29,-9,-48,-136,-126,-97
-48,-58,-9,53,-19,-34,29,-4,-48,-136,-126,-97
-48,-58,-9,53,-19,-34,29,0,-48,-136,-126,-97
-48,-58,-9,53,-19,-34,29,0,-48,-136,-126,-97
-48,-58,-9,53,-19,-34,29,0,-48,-136,-126,-97
-48,-63,-14,56,-17,-39,29,0,-48,-136,-131,-97
-48,-68,-19,58,-14,-43,29,0,-48,-136,-136,-97
-48,-68,-19,58,-14,-43,29,0,-48,-136,-136,-97
-48,-68,-19,58,-14,-43,29,0,-48,-136,-136,-97
-48,-73,-24,61,-12,-48,34,0,-48,-136,-136,-102
-48,-78,-29,63,-9,-53,39,0,-48,-136,-136,-107
-48,-78,-29,63,-9,-53,39,0,-53,-141,-136,-107
-48,-78,-29,63,-9,-53,39,0,-58,-146,-136,-107
-48,-78,-29,63,-9,-53,39,0,-58,-146,-136,-107
-48,-78,-29,63,-9,-53,39,0,-58,-146,-136,-107
-48,-78,-29,63,-9,-53,39,4,-58,-146,-141,-107
-48,-78,-29,63,-9,-53,39,9,-58,-146,-146,-107
-48,-82,-34,65,-7,-58,39,9,-63,-151,-146,-107
-48,-87,-39,68,-4,-63,39,9,-68,-156,-146,-107
-53,-87,-34,70,-9,-61,39,9,-68,-156,-146,-112
-58,-87,-29,73,-14,-58,39,9,-68,-156,-146,-117
-58,-87,-29,73,-14,-58,39,4,-68,-161,-146,-117
-58,-87,-29,73,-14,-58,39,0,-68,-165,-146,-117
-58,-87,-29,73,-14,-58,43,0,-68,-165,-146,-117
-58,-87,-29,73,-14,-58,48,0,-68,-165,-146,-117
-58,-87,-29,73,-14,-58,48,4,-68,-165,-146,-117
-58,-87,-29,73,-14,-58,48,9,-68,-165,-146,-117
-58,-92,-34,75,-12,-63,48,9,-68,-165,-146,-117
-58,-97,-39,78,-9,-68,48,9,-68,-165,-146,-117
-58,-97,-39,78,-9,-68,48,9,-73,-165,-151,-117
-58,-97,-39,78,-9,-68,48,9,-78,-165,-156,-117
-58,-97,-39,78,-9,-68,48,9,-78,-165,-156,-117
-58,-97,-39,78,-9,-68,48,9,-78,-165,-156,-117
-53,-97,-43,75,-4,-70,43,9,-78,-165,-156,-117
-48,-97,-48,73,0,-73,39,9,-78,-165,-156,-117
-48,-102,-53,75,2,-78,39,14,-78,-165,-156,-122
-48,-107,-58,78,4,-82,39,19,-78,-165,-156,-126
-53,-107,-53,80,0,-80,43,19,-73,-165,-156,-126
-58,-107,-48,82,-4,-78,48,19,-68,-165,-156,-126
-58,-107,-48,82,-4,-78,48,19,-68,-165,-156,-126
-58,-107,-48,82,-4,-78,48,19,-68,-165,-156,-126
-58,-107,-48,82,-4,-78,48,19,-73,-170,-156,-126
-58,-107,-48,82,-4,-78,48,19,-78,-175,-156,-126
-58,-112,-53,85,-2,-82,48,19,-78,-175,-156,-126
-58,-117,-58,87,0,-87,48,19,-78,-175,-156,-126
-58,-117,-58,87,0,-87,48,19,-78,-175,-156,-122
-58,-117,-58,87,0,-87,48,19,-78,-175,-156,-117
-58,-112,-53,85,-2,-82,48,19,-78,-175,-156,-117
-58,-107,-48,82,-4,-78,48,19,-78,-175,-156,-117
-58,-107,-48,82,-4,-78,48,19,-78,-175,-156,-122
-58,-107,-48,82,-4,-78,48,19,-78,-175,-156,-126
-58,-112,-53,85,-2,-82,48,19,-78,-175,-156,-126
-58,-117,-58,87,0,-87,48,19,-78,-175,-156,-126
-58,-117,-58,87,0,-87,48,19,-78,-175,-156,-126
-58,-117,-58,87,0,-87,48,19,-78,-175,-156,-126
-58,-117,-58,87,0,-87,48,19,-78,-175,-156,-126
-58,-117,-58,87,0,-87,48,19,-78,-175,-156,-126
-58,-117,-58,87,0,-87,48,19,-78,-175,-156,-126
-58,-117,-58,87,0,-87,48,19,-78,-175,-156,-126
-58,-117,-58,87,0,-87,48,19,-78,-175,-156,-126
-58,-117,-58,87,0,-87,48,19,-78,-175,-156,-126
-58,-117,-58,87,0,-87,48,19,-78,-175,-156,-126
-58,-117,-58,87,0,-87,48,19,-78,-175,-156,-126
-53,-117,-63,85,4,-90,48,24,-78,-175,-156,-126
-48,-117,-68,82,9,-92,48,29,-78,-175,-156,-126
-48,-117,-68,82,9,-92,48,29,-78,-175,-156,-126
-48,-117,-68,82,9,-92,48,29,-78,-175,-156,-126
-48,-112,-63,80,7,-87,48,29,-73,-170,-156,-126
-48,-107,-58,78,4,-82,48,29,-68,-165,-156,-126
-43,-97,-53,70,4,-75,48,39,-63,-165,-151,-126
-39,-87,-48,63,4,-68,48,48,-58,-165,-146,-126
-29,-82,-53,56,12,-68,48,53,-48,-156,-136,-117
-19,-78,-58,48,19,-68,48,58,-39,-146,-126,-107
-19,-78,-58,48,19,-68,43,58,-39,-141,-126,-107
-14,-68,-53,41,19,-61,29,48,-39,-141,-126,-107
-14,-63,-48,39,17,-56,14,39,-39,-141,-126,-107
-9,-48,-39,29,14,-43,-9,24,-29,-141,-122,-107
14,-24,-39,4,26,-31,-24,24,0,-107,-97,-68
29,0,-29,-14,29,-14,-34,24,24,-78,-73,-48
63,14,-48,-39,56,-17,-34,43,43,-58,-58,-39
78,14,-63,-46,70,-24,-34,53,48,-48,-43,-29
87,9,-78,-48,82,-34,-34,58,43,-48,-39,-19
78,0,-78,-39,78,-39,-29,53,19,-63,-39,-19
68,-9,-78,-29,73,-43,-29,39,4,-73,-48,-24
58,-14,-73,-21,65,-43,-19,34,0,-78,-53,-34
34,-29,-63,-2,48,-46,-9,34,-4,-82,-63,-34
14,-43,-58,14,36,-51,4,29,-14,-87,-78,-39
14,-53,-68,19,41,-61,9,29,-19,-97,-87,-48
14,-53,-68,19,41,-61,9,29,-29,-102,-92,-48
19,-48,-68,14,43,-58,9,29,-29,-102,-87,-43
24,-43,-68,9,46,-56,9,34,-29,-107,-82,-39
19,-48,-68,14,43,-58,19,43,-29,-117,-87,-48
-19,-78,-58,48,19,-68,43,53,-29,-126,-117,-78
-34,-97,-63,65,14,-80,58,43,-43,-151,-136,-112
-48,-112,-63,80,7,-87,63,34,-53,-161,-151,-117
-58,-112,-53,85,-2,-82,63,34,-53,-161,-151,-122
-63,-112,-48,87,-7,-80,63,34,-53,-165,-156,-122
-63,-117,-53,90,-4,-85,63,34,-53,-165,-156,-122
-63,-122,-58,92,-2,-90,68,34,-58,-170,-156,-131
-63,-122,-58,92,-2,-90,68,34,-58,-170,-161,-136
-68,-122,-53,95,-7,-87,73,34,-58,-170,-165,-136
-68,-117,-48,92,-9,-82,73,34,-58,-175,-165,-136
-68,-117,-48,92,-9,-82,73,34,-63,-175,-165,-136
-73,-117,-43,95,-14,-80,78,34,-63,-175,-170,-136
-73,-117,-43,95,-14,-80,78,34,-68,-175,-180,-141
-73,-117,-43,95,-14,-80,78,34,-68,-180,-180,-141
-73,-117,-43,95,-14,-80,78,34,-68,-180,-180,-141
-73,-117,-43,95,-14,-80,78,34,-68,-180,-180,-146
-78,-117,-39,97,-19,-78,78,34,-63,-180,-180,-146
-78,-117,-39,97,-19,-78,78,34,-63,-180,-175,-146
-78,-117,-39,97,-19,-78,78,39,-63,-180,-170,-146
-78,-117,-39,97,-19,-78,78,39,-53,-180,-170,-146
-78,-117,-39,97,-19,-78,78,29,-48,-175,-170,-146
-78,-112,-34,95,-21,-73,78,29,-43,-156,-156,-141
-73,-112,-39,92,-17,-75,73,29,-24,-126,-141,-141
-73,-97,-24,85,-24,-61,68,24,48,-63,-112,-141
-73,-73,0,73,-36,-36,53,9,156,24,-68,-131
-73,9,82,31,-78,46,-9,-117,122,112,34,-73
-78,146,224,-34,-151,185,-117,-380,-39,156,190,39
-68,331,400,-131,-234,366,-292,-707,-263,214,400,214
0,502,502,-251,-251,502,-522,-1073,-722,287,717,497
73,658,585,-366,-256,622,-722,-1356,-1307,405,1132,824
170,814,644,-492,-236,729,-907,-1605,-1864,590,1620,1200
283,976,692,-629,-204,834,-1083,-1795,-2225,897,2210,1629
307,1088,780,-697,-236,934,-1195,-1937,-2552,976,2513,1869
268,1176,907,-722,-319,1041,-1254,-2103,-2786,658,2322,1903
185,1127,941,-656,-378,1034,-1215,-2127,-2845,-58,1527,1600
34,819,785,-427,-375,802,-1029,-1927,-2791,-1039,331,1000
-68,488,556,-209,-312,522,-873,-1673,-2659,-1873,-702,390
-19,244,263,-112,-141,253,-741,-1400,-2400,-1932,-897,200
73,87,14,-80,29,51,-624,-1078,-1947,-1605,-766,180
136,-107,-244,-14,190,-175,-458,-727,-1454,-1205,-590,156
156,-209,-366,26,261,-287,-322,-473,-1088,-897,-444,126
131,-209,-341,39,236,-275,-214,-317,-790,-653,-331,87
63,-136,-200,36,131,-168,-126,-200,-517,-453,-253,34
-24,-58,-34,41,4,-46,-58,-112,-258,-287,-180,-29
-39,-24,14,31,-26,-4,-24,-58,-102,-180,-136,-68
-39,-34,4,36,-21,-14,24,9,-14,-87,-92,-73
-34,-48,-14,41,-9,-31,58,58,34,-48,-82,-78
-34,-48,-14,41,-9,-31,58,78,73,-43,-82,-78
-48,-53,-4,51,-21,-29,58,82,97,-39,-87,-97
-48,-58,-9,53,-19,-34,68,92,112,-24,-87,-107
-48,-58,-9,53,-19,-34,82,112,126,-4,-87,-112
-48,-53,-4,51,-21,-29,92,117,151,0,-82,-107
-48,-48,0,48,-24,-24,97,122,170,9,-82,-102
-48,-48,0,48,-24,-24,97,122,175,19,-78,-107
-48,-48,0,48,-24,-24,102,131,185,29,-78,-107
-48,-48,0,48,-24,-24,102,141,200,34,-73,-107
-48,-43,4,46,-26,-19,97,141,214,34,-68,-107
-48,-43,4,46,-26,-19,102,141,229,43,-68,-107
-48,-39,9,43,-29,-14,102,146,234,53,-68,-107
-48,-39,9,43,-29,-14,102,151,244,58,-68,-107
-48,-34,14,41,-31,-9,102,156,253,58,-63,-107
-48,-29,19,39,-34,-4,107,161,263,68,-53,-107
-48,-29,19,39,-34,-4,107,165,273,78,-48,-107
-48,-29,19,39,-34,-4,107,165,283,78,-48,-107
-43,-24,19,34,-31,-2,107,170,292,87,-48,-107
-43,-24,19,34,-31,-2,112,175,302,97,-43,-107
-43,-24,19,34,-31,-2,117,180,312,97,-43,-107
-43,-19,24,31,-34,2,112,180,322,112,-39,-107
-39,-19,19,29,-29,0,112,190,331,117,-39,-102
-39,-14,24,26,-31,4,112,204,351,126,-34,-102
-34,-14,19,24,-26,2,112,214,366,141,-29,-102
-34,-14,19,24,-26,2,112,219,375,151,-29,-102
-29,-9,19,19,-24,4,107,229,395,165,-19,-102
-29,-9,19,19,-24,4,107,239,405,175,-19,-102
-24,-9,14,17,-19,2,107,253,424,190,-14,-102
-19,-4,14,12,-17,4,112,258,439,204,-9,-97
-14,-4,9,9,-12,2,117,268,468,224,0,-97
-9,-4,4,7,-7,0,117,278,483,234,4,-92
-4,-4,0,4,-2,-2,117,292,502,258,14,-92
0,0,0,0,0,0,117,307,517,278,24,-87
9,4,-4,-7,7,0,117,322,541,297,29,-82
14,14,0,-14,7,7,117,336,575,322,39,-78
19,19,0,-19,9,9,117,351,600,341,48,-73
29,24,-4,-26,17,9,117,370,624,370,63,-68
39,34,-4,-36,21,14,122,380,649,395,78,-63
53,43,-9,-48,31,17,122,395,678,424,102,-53
58,53,-4,-56,31,24,112,409,707,453,112,-43
68,63,-4,-65,36,29,107,429,732,488,131,-34
73,73,0,-73,36,36,107,439,761,517,146,-24
87,87,0,-87,43,43,97,453,795,551,170,-9
97,102,4,-100,46,53,92,468,829,585,200,9
107,117,9,-112,48,63,92,473,854,629,224,29
112,136,24,-124,43,80,87,478,873,668,253,43
122,151,29,-136,46,90,73,478,902,707,283,63
136,170,34,-153,51,102,63,473,917,741,317,87
151,195,43,-173,53,119,53,468,927,780,341,112
165,214,48,-190,58,131,29,458,941,814,370,141
175,239,63,-207,56,151,19,439,936,834,395,161
180,258,78,-219,51,168,0,419,932,858,429,190
190,273,82,-231,53,178,-14,395,922,878,458,219
200,287,87,-244,56,187,-34,366,897,897,488,248
209,302,92,-256,58,197,-58,326,873,907,512,273
219,312,92,-265,63,202,-78,287,834,912,541,302
229,326,97,-278,65,212,-97,253,790,912,561,326
234,331,97,-283,68,214,-107,224,741,893,575,346
234,331,97,-283,68,214,-126,180,683,863,575,356
229,326,97,-278,65,212,-136,146,624,814,570,366
224,317,92,-270,65,204,-136,117,556,756,541,366
209,302,92,-256,58,197,-136,92,497,692,502,356
190,278,87,-234,51,183,-131,63,439,619,463,326
170,248,78,-209,46,163,-126,48,370,546,414,297
156,224,68,-190,43,146,-117,29,322,468,361,273
136,200,63,-168,36,131,-107,24,273,395,307,239
107,170,63,-139,21,117,-92,14,234,331,258,195
87,141,53,-114,17,97,-78,9,200,268,219,161
73,112,39,-92,17,75,-63,0,156,204,170,136
58,82,24,-70,17,53,-48,-4,126,156,126,112
39,53,14,-46,12,34,-39,-4,97,107,87,82
24,29,4,-26,9,17,-19,0,63,68,58,48
19,14,-4,-17,12,4,-14,0,43,29,29,19
9,-14,-24,2,17,-19,0,0,29,0,0,9
0,-24,-24,12,12,-24,9,0,9,-24,-24,-4
-9,-34,-24,21,7,-29,19,0,0,-43,-39,-19
-14,-48,-34,31,9,-41,24,4,-9,-63,-53,-34
-19,-58,-39,39,9,-48,29,4,-14,-73,-63,-39
-24,-63,-39,43,7,-51,24,4,-24,-87,-82,-48
-29,-63,-34,46,2,-48,29,9,-29,-102,-87,-58
-29,-73,-43,51,7,-58,29,9,-43,-112,-82,-63
-29,-73,-43,51,7,-58,34,9,-48,-112,-82,-63
-34,-78,-43,56,4,-61,39,9,-48,-112,-87,-63
-34,-82,-48,58,7,-65,39,9,-53,-112,-97,-68
-34,-87,-53,61,9,-70,39,9,-53,-112,-97,-73
-34,-92,-58,63,12,-75,34,9,-58,-117,-97,-73
-39,-92,-53,65,7,-73,34,9,-58,-117,-97,-73
-39,-92,-53,65,7,-73,39,9,-63,-117,-97,-68
-39,-92,-53,65,7,-73,39,14,-63,-117,-92,-63
-34,-87,-53,61,9,-70,39,14,-63,-117,-92,-63
-34,-87,-53,61,9,-70,39,14,-58,-117,-92,-58
-34,-87,-53,61,9,-70,39,9,-53,-117,-92,-58
-39,-87,-48,63,4,-68,39,9,-53,-117,-92,-58
-39,-87,-48,63,4,-68,34,9,-53,-117,-92,-58
-39,-82,-43,61,2,-63,34,9,-48,-117,-92,-68
-34,-73,-39,53,2,-56,34,9,-48,-117,-92,-73
-34,-73,-39,53,2,-56,34,9,-48,-117,-92,-73
-34,-73,-39,53,2,-56,34,9,-48,-112,-97,-73
-39,-68,-29,53,-4,-48,34,9,-48,-112,-97,-73
-39,-68,-29,53,-4,-48,34,9,-43,-112,-92,-73
-39,-68,-29,53,-4,-48,34,9,-43,-112,-97,-73
-39,-68,-29,53,-4,-48,34,9,-43,-112,-97,-73
-39,-73,-34,56,-2,-53,34,9,-43,-117,-97,-73
-39,-78,-39,58,0,-58,34,9,-39,-122,-102,-73
-39,-78,-39,58,0,-58,34,9,-43,-122,-102,-73
-39,-73,-34,56,-2,-53,34,9,-43,-122,-107,-73
-39,-73,-34,56,-2,-53,34,9,-43,-122,-107,-73
-39,-73,-34,56,-2,-53,34,9,-43,-122,-107,-78
-39,-73,-34,56,-2,-53,34,9,-39,-122,-107,-78
-39,-73,-34,56,-2,-53,34,9,-34,-122,-107,-78
-39,-73,-34,56,-2,-53,29,9,-34,-126,-112,-78
-39,-73,-34,56,-2,-53,29,9,-34,-126,-112,-82
-39,-73,-34,56,-2,-53,29,9,-34,-126,-117,-82
-39,-73,-34,56,-2,-53,29,9,-34,-126,-117,-82
-39,-78,-39,58,0,-58,39,14,-34,-126,-112,-82
-39,-78,-39,58,0,-58,43,19,-34,-126,-112,-82
-39,-78,-39,58,0,-58,43,19,-39,-126,-117,-82
-39,-82,-43,61,2,-63,43,19,-43,-126,-117,-82
-39,-82,-43,61,2,-63,43,19,-48,-131,-117,-87
-39,-82,-43,61,2,-63,43,19,-48,-131,-117,-92
-43,-82,-39,63,-2,-61,43,19,-48,-131,-117,-92
-48,-82,-34,65,-7,-58,43,19,-48,-131,-117,-92
-48,-92,-43,70,-2,-68,48,19,-43,-131,-117,-92
-48,-97,-48,73,0,-73,48,19,-39,-131,-122,-87
-48,-97,-48,73,0,-73,48,19,-43,-131,-117,-87
-53,-97,-43,75,-4,-70,48,19,-43,-131,-117,-82
-53,-97,-43,75,-4,-70,48,19,-48,-131,-122,-87
-53,-102,-48,78,-2,-75,48,24,-48,-136,-122,-87
-53,-102,-48,78,-2,-75,48,19,-48,-136,-122,-92
-53,-102,-48,78,-2,-75,48,14,-48,-136,-122,-97
-48,-107,-58,78,4,-82,48,19,-48,-136,-126,-92
-43,-107,-63,75,9,-85,48,19,-53,-136,-131,-92
-43,-112,-68,78,12,-90,48,19,-53,-141,-131,-92
-43,-112,-68,78,12,-90,53,24,-53,-141,-131,-97
-48,-107,-58,78,4,-82,53,24,-53,-141,-131,-97
-53,-102,-48,78,-2,-75,53,24,-53,-141,-131,-97
-53,-102,-48,78,-2,-75,53,29,-53,-141,-131,-97
-53,-102,-48,78,-2,-75,53,29,-58,-141,-131,-97
-48,-102,-53,75,2,-78,53,29,-58,-141,-131,-97
-43,-102,-58,73,7,-80,53,29,-58,-141,-136,-97
-43,-107,-63,75,9,-85,53,29,-58,-146,-136,-97
-43,-107,-63,75,9,-85,53,29,-58,-151,-136,-97
-48,-107,-58,78,4,-82,53,29,-58,-151,-131,-97
-48,-107,-58,78,4,-82,53,29,-58,-151,-131,-97
-43,-107,-63,75,9,-85,53,24,-63,-146,-131,-97
-43,-107,-63,75,9,-85,53,24,-63,-141,-136,-97
-43,-112,-68,78,12,-90,58,29,-63,-146,-136,-97
-43,-112,-68,78,12,-90,58,29,-63,-146,-136,-97
-43,-117,-73,80,14,-95,58,29,-63,-146,-136,-97
-43,-122,-78,82,17,-100,58,29,-63,-146,-136,-102
-43,-122,-78,82,17,-100,58,29,-63,-141,-136,-102
-48,-122,-73,85,12,-97,58,29,-63,-141,-136,-102
-48,-117,-68,82,9,-92,58,29,-63,-146,-136,-102
-48,-112,-63,80,7,-87,58,29,-68,-146,-136,-102
-48,-112,-63,80,7,-87,58,29,-68,-151,-136,-102
-48,-112,-63,80,7,-87,58,29,-63,-151,-131,-102
-48,-112,-63,80,7,-87,58,29,-63,-151,-131,-102
-48,-112,-63,80,7,-87,58,29,-63,-151,-131,-102
-48,-112,-63,80,7,-87,58,29,-63,-151,-131,-102
-48,-112,-63,80,7,-87,58,34,-63,-146,-126,-102
-48,-112,-63,80,7,-87,58,34,-63,-146,-126,-102
-48,-112,-63,80,7,-87,58,34,-63,-146,-126,-102
-53,-117,-63,85,4,-90,58,34,-63,-146,-131,-102
-58,-117,-58,87,0,-87,58,34,-68,-146,-141,-102
-53,-117,-63,85,4,-90,58,29,-68,-151,-136,-102
-48,-117,-68,82,9,-92,58,29,-68,-156,-136,-107
-48,-117,-68,82,9,-92,58,29,-68,-156,-136,-107
-48,-117,-68,82,9,-92,58,29,-68,-156,-136,-107
-48,-117,-68,82,9,-92,58,29,-68,-156,-136,-107
-48,-117,-68,82,9,-92,58,29,-68,-156,-136,-107
-53,-117,-63,85,4,-90,58,29,-63,-156,-136,-107
-58,-117,-58,87,0,-87,58,29,-58,-156,-136,-107
-58,-117,-58,87,0,-87,58,29,-58,-156,-136,-107
-58,-117,-58,87,0,-87,58,29,-58,-156,-136,-107
-58,-117,-58,87,0,-87,58,29,-63,-156,-136,-107
-58,-117,-58,87,0,-87,58,29,-68,-156,-136,-107
-58,-117,-58,87,0,-87,58,34,-68,-156,-136,-107
-58,-117,-58,87,0,-87,58,39,-68,-156,-136,-107
-58,-117,-58,87,0,-87,58,39,-68,-156,-136,-107
-58,-117,-58,87,0,-87,58,39,-68,-156,-136,-107
-58,-117,-58,87,0,-87,58,39,-63,-156,-136,-107
-58,-117,-58,87,0,-87,58,39,-58,-156,-136,-107
-53,-117,-63,85,4,-90,58,39,-58,-156,-136,-107
-48,-117,-68,82,9,-92,58,39,-58,-156,-136,-107
-48,-112,-63,80,7,-87,58,39,-58,-156,-136,-107
-48,-107,-58,78,4,-82,58,39,-58,-156,-136,-107
-43,-107,-63,75,9,-85,58,48,-58,-151,-131,-107
-39,-107,-68,73,14,-87,58,58,-58,-146,-126,-107
-29,-102,-73,65,21,-87,58,58,-48,-136,-122,-102
-19,-97,-78,58,29,-87,58,58,-39,-126,-117,-97
-14,-97,-82,56,34,-90,53,63,-34,-126,-112,-92
-9,-92,-82,51,36,-87,43,63,-29,-122,-107,-87
-4,-92,-87,48,41,-90,34,63,-29,-117,-107,-82
0,-82,-82,41,41,-82,14,53,-29,-112,-102,-78
4,-68,-73,31,39,-70,-9,43,-19,-102,-92,-68
24,-48,-73,12,48,-61,-19,43,4,-78,-68,-39
39,-19,-58,-9,48,-39,-29,43,29,-53,-43,-29
63,4,-58,-34,61,-26,-34,63,48,-34,-34,-19
73,4,-68,-39,70,-31,-34,73,48,-29,-19,-9
87,0,-87,-43,87,-43,-34,73,43,-29,-14,0
78,-9,-87,-34,82,-48,-24,63,19,-43,-19,0
68,-19,-87,-24,78,-53,-19,48,4,-53,-29,-4
58,-29,-87,-14,73,-58,-9,43,0,-58,-34,-14
39,-43,-82,2,61,-63,0,43,0,-63,-39,-14
24,-58,-82,17,53,-70,14,39,-4,-68,-48,-19
24,-73,-97,24,61,-85,19,39,-9,-78,-58,-29
24,-73,-97,24,61,-85,19,39,-19,-82,-63,-29
24,-73,-97,24,61,-85,19,39,-19,-82,-63,-29
24,-68,-92,21,58,-80,19,43,-19,-87,-63,-14
19,-68,-87,24,53,-78,29,53,-19,-97,-68,-9
-19,-97,-78,58,29,-87,53,68,-19,-107,-102,-53
-34,-112,-78,73,21,-95,68,63,-34,-126,-122,-97
-48,-122,-73,85,12,-97,73,53,-43,-136,-131,-97
-58,-122,-63,90,2,-92,73,53,-43,-141,-131,-102
-63,-122,-58,92,-2,-90,73,48,-43,-146,-136,-102
-63,-122,-58,92,-2,-90,73,43,-43,-146,-136,-102
-68,-126,-58,97,-4,-92,78,43,-48,-151,-136,-112
-73,-131,-58,102,-7,-95,78,43,-48,-151,-141,-117
-78,-131,-53,104,-12,-92,82,43,-48,-151,-146,-117
-78,-131,-53,104,-12,-92,82,43,-43,-156,-146,-117
-78,-136,-58,107,-9,-97,82,43,-43,-156,-146,-117
-82,-136,-53,109,-14,-95,87,43,-43,-156,-146,-117
-82,-136,-53,109,-14,-95,87,43,-48,-156,-151,-122
-82,-136,-53,109,-14,-95,87,43,-48,-161,-151,-122
-82,-136,-53,109,-14,-95,87,43,-48,-161,-151,-122
-82,-136,-53,109,-14,-95,87,43,-48,-161,-151,-126
-87,-136,-48,112,-19,-92,87,43,-43,-161,-151,-126
-87,-136,-48,112,-19,-92,87,43,-43,-161,-151,-126
-82,-131,-48,107,-17,-90,87,48,-43,-161,-151,-126
-78,-126,-48,102,-14,-87,87,48,-39,-161,-151,-126
-78,-126,-48,102,-14,-87,87,39,-43,-161,-151,-126
-78,-122,-43,100,-17,-82,87,39,-43,-156,-146,-122
-73,-126,-53,100,-9,-90,82,39,-48,-151,-146,-122
-73,-117,-43,95,-14,-80,78,39,14,-87,-112,-122
-82,-112,-29,97,-26,-70,87,78,180,9,-92,-136
-82,-58,24,70,-53,-17,48,0,234,97,-24,-102
-92,53,146,19,-119,100,-24,-234,170,131,73,-48
-97,219,317,-61,-207,268,-165,-536,43,175,224,78
-48,385,434,-168,-241,409,-405,-936,-336,214,468,322
14,536,522,-275,-253,529,-610,-1254,-888,273,805,605
136,697,561,-417,-212,629,-805,-1537,-1493,463,1302,1000
263,863,600,-563,-168,732,-995,-1756,-1917,775,1898,1454
336,1015,678,-675,-170,846,-1161,-1922,-2293,1073,2527,1869
336,1137,800,-736,-231,968,-1268,-2117,-2581,1024,2684,2059
283,1171,888,-727,-302,1029,-1283,-2230,-2713,419,2083,1927
165,971,805,-568,-319,888,-1156,-2113,-2737,-453,1073,1493
-14,624,639,-305,-326,631,-976,-1869,-2708,-1605,-307,688
-39,361,400,-161,-219,380,-829,-1605,-2557,-2015,-863,312
68,190,122,-129,-26,156,-722,-1283,-2152,-1751,-795,268
146,-14,-161,-65,153,-87,-556,-932,-1683,-1400,-668,219
195,-165,-361,-14,278,-263,-400,-624,-1283,-1054,-512,185
195,-229,-424,17,309,-326,-273,-405,-951,-766,-380,146
112,-165,-278,26,195,-222,-165,-258,-653,-541,-287,82
14,-97,-112,41,63,-104,-82,-151,-370,-356,-204,14
-14,-48,-34,31,9,-41,-48,-87,-170,-219,-146,-34
-29,-43,-14,36,-7,-29,4,-9,-39,-102,-92,-48
-24,-58,-34,41,4,-46,48,53,14,-58,-78,-48
-24,-58,-34,41,4,-46,63,87,63,-43,-73,-48
-39,-63,-24,51,-7,-43,68,92,87,-39,-78,-73
-39,-68,-29,53,-4,-48,78,102,102,-24,-78,-87
-43,-68,-24,56,-9,-46,92,126,117,0,-78,-92
-48,-68,-19,58,-14,-43,97,136,141,9,-73,-92
-48,-68,-19,58,-14,-43,97,141,165,19,-73,-92
-48,-68,-19,58,-14,-43,97,141,175,29,-68,-97
-48,-68,-19,58,-14,-43,102,151,185,39,-68,-97
-48,-68,-19,58,-14,-43,107,161,195,43,-63,-97
-48,-63,-14,56,-17,-39,107,161,204,43,-58,-97
-48,-63,-14,56,-17,-39,112,161,219,53,-58,-97
-48,-58,-9,53,-19,-34,112,165,224,63,-53,-97
-48,-58,-9,53,-19,-34,112,170,234,68,-48,-97
-48,-48,0,48,-24,-24,112,170,244,68,-43,-92
-48,-39,9,43,-29,-14,117,170,253,78,-39,-87
-48,-39,9,43,-29,-14,117,175,263,87,-39,-87
-48,-39,9,43,-29,-14,117,175,273,87,-39,-87
-43,-34,9,39,-26,-12,117,180,287,97,-39,-92
-43,-34,9,39,-26,-12,117,185,302,107,-34,-97
-43,-34,9,39,-26,-12,117,190,312,107,-39,-97
-43,-29,14,36,-29,-7,112,190,322,122,-39,-97
-39,-34,4,36,-21,-14,112,204,331,131,-39,-87
-39,-34,4,36,-21,-14,112,219,346,141,-34,-82
-34,-34,0,34,-17,-17,112,224,356,151,-29,-82
-34,-34,0,34,-17,-17,117,229,366,161,-29,-82
-29,-29,0,29,-14,-14,122,239,385,170,-19,-87
-29,-29,0,29,-14,-14,126,248,395,175,-19,-92
-24,-29,-4,26,-9,-17,126,263,414,190,-14,-92
-19,-24,-4,21,-7,-14,126,268,424,204,-9,-87
-14,-24,-9,19,-2,-17,126,278,448,224,0,-87
-9,-24,-14,17,2,-19,126,287,463,234,4,-82
-4,-24,-19,14,7,-21,126,302,483,258,14,-82
0,-19,-19,9,9,-19,126,317,497,278,24,-78
9,-14,-24,2,17,-19,126,331,522,292,29,-73
14,-4,-19,-4,17,-12,126,346,551,312,39,-68
19,0,-19,-9,19,-9,126,361,570,331,48,-63
29,4,-24,-17,26,-9,126,380,595,361,63,-58
39,14,-24,-26,31,-4,131,390,619,385,78,-53
53,24,-29,-39,41,-2,131,405,649,414,102,-43
58,34,-24,-46,41,4,122,424,683,448,112,-34
68,43,-24,-56,46,9,117,448,712,488,131,-24
73,53,-19,-63,46,17,117,458,741,517,141,-19
87,68,-19,-78,53,24,107,468,771,551,161,-4
97,82,-14,-90,56,34,107,478,800,580,190,9
112,97,-14,-104,63,41,107,483,824,619,214,24
122,117,-4,-119,63,56,97,488,844,658,244,43
131,131,0,-131,65,65,82,492,873,697,273,63
141,151,9,-146,65,80,73,497,893,736,307,87
151,175,24,-163,63,100,63,497,907,780,336,112
165,195,29,-180,68,112,39,492,922,814,366,141
180,219,39,-200,70,129,29,478,922,839,390,161
190,239,48,-214,70,143,9,458,922,868,429,190
200,258,58,-229,70,158,-4,434,922,888,458,219
209,278,68,-244,70,173,-24,405,912,912,492,248
219,292,73,-256,73,183,-48,366,893,927,522,273
229,302,73,-265,78,187,-68,326,854,932,551,302
239,317,78,-278,80,197,-87,292,814,932,570,331
244,326,82,-285,80,204,-97,258,771,917,590,361
244,331,87,-287,78,209,-117,209,717,893,595,375
244,326,82,-285,80,204,-131,175,658,844,600,385
244,317,73,-280,85,195,-136,146,590,785,580,385
229,302,73,-265,78,187,-136,117,536,727,541,380
209,278,68,-244,70,173,-131,82,483,658,502,356
190,253,63,-222,63,158,-136,63,409,585,458,326
175,229,53,-202,61,141,-131,39,351,507,409,302
161,200,39,-180,61,119,-117,34,302,434,356,273
136,170,34,-153,51,102,-102,24,263,370,302,234
117,141,24,-129,46,82,-87,14,229,307,258,200
97,112,14,-104,41,63,-73,4,185,244,209,170
78,82,4,-80,36,43,-53,4,156,190,161,141
58,53,-4,-56,31,24,-39,4,131,141,117,112
39,29,-9,-34,24,9,-19,4,97,107,87,78
24,14,-9,-19,17,2,-14,0,73,68,58,48
9,-14,-24,2,17,-19,-4,0,58,34,29,39
0,-24,-24,12,12,-24,0,0,39,4,4,19
-9,-34,-24,21,7,-29,9,0,29,-14,-9,0
-14,-48,-34,31,9,-41,14,4,14,-34,-24,-14
-19,-58,-39,39,9,-48,24,4,0,-43,-34,-19
-24,-68,-43,46,9,-56,29,4,-14,-58,-53,-29
-29,-73,-43,51,7,-58,39,9,-19,-73,-63,-43
-29,-82,-53,56,12,-68,39,9,-29,-82,-68,-53
-29,-87,-58,58,14,-73,39,14,-29,-82,-73,-53
-34,-92,-58,63,12,-75,39,19,-29,-87,-78,-53
-34,-92,-58,63,12,-75,39,19,-34,-92,-82,-53
-34,-97,-63,65,14,-80,39,19,-34,-92,-78,-53
-34,-102,-68,68,17,-85,39,19,-39,-97,-78,-53
-39,-102,-63,70,12,-82,43,19,-39,-97,-78,-58
-39,-102,-63,70,12,-82,48,19,-43,-97,-82,-58
-39,-102,-63,70,12,-82,48,24,-43,-97,-82,-53
-29,-97,-68,63,19,-82,43,24,-43,-97,-82,-53
-24,-97,-73,61,24,-85,39,24,-43,-97,-82,-48
-24,-97,-73,61,24,-85,39,14,-43,-102,-82,-48
-29,-97,-68,63,19,-82,39,9,-43,-107,-82,-48
-29,-97,-68,63,19,-82,39,9,-43,-107,-78,-48
-29,-97,-68,63,19,-82,43,9,-39,-107,-73,-53
-24,-92,-68,58,21,-80,43,9,-39,-107,-73,-53
-24,-92,-68,58,21,-80,43,9,-39,-107,-73,-53
-24,-87,-63,56,19,-75,43,9,-39,-102,-82,-53
-29,-78,-48,53,9,-63,43,9,-39,-102,-87,-53
-29,-78,-48,53,9,-63,43,9,-34,-102,-82,-53
-29,-78,-48,53,9,-63,43,9,-34,-102,-82,-53
-29,-78,-48,53,9,-63,43,9,-34,-102,-78,-53
-29,-78,-48,53,9,-63,43,9,-34,-102,-78,-53
-34,-78,-43,56,4,-61,43,9,-29,-102,-82,-58
-39,-78,-39,58,0,-58,43,9,-29,-102,-82,-63
-39,-73,-34,56,-2,-53,43,9,-24,-102,-87,-63
-39,-73,-34,56,-2,-53,43,9,-24,-102,-87,-63
-39,-73,-34,56,-2,-53,43,9,-24,-102,-87,-68
-39,-73,-34,56,-2,-53,43,9,-24,-102,-87,-68
-39,-73,-34,56,-2,-53,43,9,-24,-102,-87,-68
-39,-73,-34,56,-2,-53,39,9,-24,-107,-92,-68
-34,-73,-39,53,2,-56,34,9,-24,-107,-92,-73
-29,-73,-43,51,7,-58,29,9,-24,-107,-97,-73
-29,-73,-43,51,7,-58,29,9,-24,-107,-97,-73
-29,-78,-48,53,9,-63,34,9,-24,-107,-92,-73
-34,-78,-43,56,4,-61,39,9,-24,-107,-92,-73
-39,-78,-39,58,0,-58,43,9,-24,-107,-97,-73
-39,-82,-43,61,2,-63,43,9,-29,-107,-97,-73
-39,-82,-43,61,2,-63,43,9,-39,-112,-97,-73
-39,-82,-43,61,2,-63,39,9,-39,-112,-97,-73
-39,-82,-43,61,2,-63,34,9,-39,-112,-97,-73
-39,-82,-43,61,2,-63,34,9,-39,-112,-97,-73
-39,-87,-48,63,4,-68,39,9,-39,-112,-97,-78
-39,-87,-48,63,4,-68,39,9,-39,-112,-102,-78
-39,-87,-48,63,4,-68,39,9,-43,-117,-102,-82
-39,-87,-48,63,4,-68,43,9,-43,-122,-107,-78
-34,-87,-53,61,9,-70,48,9,-48,-122,-112,-78
-34,-92,-58,63,12,-75,48,14,-48,-126,-112,-78
-34,-92,-58,63,12,-75,48,14,-48,-126,-112,-78
-39,-92,-53,65,7,-73,48,14,-43,-126,-112,-82
-43,-97,-53,70,4,-75,48,19,-39,-126,-112,-82
-43,-97,-53,70,4,-75,43,19,-43,-122,-112,-82
-43,-102,-58,73,7,-80,39,14,-43,-122,-112,-82
-43,-102,-58,73,7,-80,43,14,-48,-122,-112,-87
-43,-102,-58,73,7,-80,43,14,-53,-122,-112,-87
-43,-102,-58,73,7,-80,43,14,-53,-122,-112,-87
-43,-102,-58,73,7,-80,43,19,-53,-122,-112,-87
-43,-102,-58,73,7,-80,43,19,-58,-122,-107,-87
-43,-102,-58,73,7,-80,43,19,-58,-122,-102,-87
-43,-102,-58,73,7,-80,48,19,-53,-126,-107,-87
-43,-107,-63,75,9,-85,53,19,-48,-131,-107,-87
-43,-107,-63,75,9,-85,53,19,-48,-131,-112,-87
-48,-107,-58,78,4,-82,53,19,-48,-131,-112,-87
-48,-107,-58,78,4,-82,48,19,-48,-131,-112,-87
-43,-107,-63,75,9,-85,43,14,-53,-131,-112,-87
-43,-107,-63,75,9,-85,43,14,-53,-131,-117,-87
-43,-112,-68,78,12,-90,48,19,-53,-136,-117,-87
-43,-112,-68,78,12,-90,53,14,-53,-136,-117,-87
-43,-112,-68,78,12,-90,58,9,-53,-136,-117,-87
-43,-112,-68,78,12,-90,58,9,-58,-136,-117,-92
-43,-112,-68,78,12,-90,58,9,-63,-131,-117,-92
-48,-112,-63,80,7,-87,58,14,-63,-122,-117,-92
-48,-112,-63,80,7,-87,58,19,-63,-117,-117,-92
-48,-112,-63,80,7,-87,58,24,-63,-126,-117,-92
-48,-112,-63,80,7,-87,58,29,-58,-136,-117,-92
-48,-107,-58,78,4,-82,58,29,-53,-131,-112,-92
-48,-102,-53,75,2,-78,58,29,-53,-131,-112,-92
-48,-102,-53,75,2,-78,58,29,-53,-126,-107,-87
-48,-102,-53,75,2,-78,58,29,-53,-126,-107,-82
-48,-102,-53,75,2,-78,58,34,-53,-126,-107,-82
-48,-102,-53,75,2,-78,58,34,-53,-126,-107,-82
-48,-102,-53,75,2,-78,58,34,-53,-131,-107,-87
-48,-107,-58,78,4,-82,58,34,-53,-136,-107,-92
-48,-107,-58,78,4,-82,53,34,-58,-136,-107,-92
-48,-107,-58,78,4,-82,53,34,-63,-136,-107,-97
-43,-107,-63,75,9,-85,48,29,-58,-131,-112,-92
-39,-107,-68,73,14,-87,48,29,-58,-126,-117,-87
-39,-107,-68,73,14,-87,48,29,-58,-126,-117,-87
-39,-107,-68,73,14,-87,48,29,-58,-126,-117,-87
-43,-107,-63,75,9,-85,48,24,-58,-131,-117,-87
-48,-107,-58,78,4,-82,48,19,-58,-136,-117,-87
-48,-107,-58,78,4,-82,53,19,-58,-136,-117,-87
-48,-107,-58,78,4,-82,58,19,-58,-136,-117,-87
-43,-107,-63,75,9,-85,58,19,-58,-136,-117,-87
-39,-107,-68,73,14,-87,58,19,-58,-136,-117,-87
-39,-107,-68,73,14,-87,58,19,-58,-136,-117,-92
-39,-107,-68,73,14,-87,58,19,-58,-136,-117,-97
-43,-107,-63,75,9,-85,53,24,-58,-136,-117,-97
-48,-107,-58,78,4,-82,48,29,-58,-136,-117,-97
-48,-107,-58,78,4,-82,48,29,-58,-136,-117,-97
-48,-107,-58,78,4,-82,48,29,-58,-136,-117,-97
-48,-107,-58,78,4,-82,48,29,-58,-136,-117,-97
-48,-107,-58,78,4,-82,48,29,-58,-136,-117,-97
-48,-107,-58,78,4,-82,53,29,-58,-136,-117,-97
-48,-107,-58,78,4,-82,58,29,-58,-136,-117,-97
-48,-107,-58,78,4,-82,58,29,-58,-136,-117,-97
-48,-107,-58,78,4,-82,58,29,-58,-136,-117,-97
-48,-107,-58,78,4,-82,58,29,-58,-136,-117,-97
-48,-107,-58,78,4,-82,58,29,-58,-136,-117,-97
-48,-107,-58,78,4,-82,58,29,-58,-136,-117,-97
-48,-107,-58,78,4,-82,58,29,-58,-136,-117,-97
-48,-107,-58,78,4,-82,58,29,-58,-136,-117,-97
-48,-107,-58,78,4,-82,58,29,-58,-136,-117,-97
-48,-107,-58,78,4,-82,58,29,-58,-136,-117,-97
-48,-107,-58,78,4,-82,58,29,-58,-136,-117,-97
-48,-112,-63,80,7,-87,58,29,-58,-136,-122,-97
-48,-117,-68,82,9,-92,58,29,-58,-136,-126,-97
-48,-117,-68,82,9,-92,58,29,-58,-136,-126,-97
-48,-117,-68,82,9,-92,58,29,-58,-136,-126,-97
-48,-117,-68,82,9,-92,58,29,-58,-136,-126,-97
-48,-117,-68,82,9,-92,58,29,-58,-136,-126,-97
-48,-117,-68,82,9,-92,58,29,-58,-136,-126,-97
-48,-117,-68,82,9,-92,58,29,-58,-136,-126,-97
-43,-112,-68,78,12,-90,58,29,-58,-136,-126,-97
-39,-107,-68,73,14,-87,58,29,-58,-136,-126,-97
-39,-107,-68,73,14,-87,58,29,-58,-136,-126,-97
-39,-107,-68,73,14,-87,58,29,-58,-136,-126,-97
-39,-107,-68,73,14,-87,58,29,-58,-136,-122,-97
-39,-107,-68,73,14,-87,58,29,-58,-136,-117,-97
-39,-107,-68,73,14,-87,58,34,-53,-131,-117,-97
-39,-107,-68,73,14,-87,58,39,-48,-126,-117,-97
-34,-102,-68,68,17,-85,58,43,-43,-126,-117,-97
-29,-97,-68,63,19,-82,58,48,-39,-126,-117,-97
-19,-87,-68,53,24,-78,58,53,-34,-117,-107,-92
-9,-78,-68,43,29,-73,58,58,-29,-107,-97,-87
-4,-78,-73,41,34,-75,48,58,-19,-107,-92,-82
0,-73,-73,36,36,-73,34,53,-14,-102,-87,-78
4,-73,-78,34,41,-75,24,53,-9,-97,-87,-73
9,-63,-73,26,41,-68,4,43,-9,-92,-82,-68
19,-39,-58,9,39,-48,-19,34,0,-82,-73,-58
43,-9,-53,-17,48,-31,-29,34,24,-58,-48,-29
58,0,-58,-29,58,-29,-29,43,43,-39,-24,-19
82,4,-78,-43,80,-36,-24,73,58,-24,-14,-9
87,4,-82,-46,85,-39,-24,73,53,-19,-9,0
97,0,-97,-48,97,-48,-24,63,43,-19,-14,9
82,-9,-92,-36,87,-51,-19,53,19,-34,-19,9
68,-19,-87,-24,78,-53,-19,39,4,-43,-29,4
58,-24,-82,-17,70,-53,-9,34,0,-48,-34,-9
39,-34,-73,-2,56,-53,0,34,0,-53,-39,-14
24,-43,-68,9,46,-56,14,29,-4,-58,-48,-19
24,-53,-78,14,51,-65,19,29,-9,-68,-58,-29
24,-53,-78,14,51,-65,19,29,-24,-73,-63,-29
24,-53,-78,14,51,-65,19,29,-29,-73,-63,-29
24,-53,-78,14,51,-65,19,34,-29,-82,-63,-29
19,-58,-78,19,48,-68,29,43,-29,-97,-68,-39
-19,-87,-68,53,24,-78,48,53,-24,-107,-97,-68
-34,-102,-68,68,17,-85,58,43,-34,-126,-112,-97
-48,-112,-63,80,7,-87,63,34,-43,-131,-122,-97
-58,-112,-53,85,-2,-82,63,34,-43,-131,-122,-102
-63,-112,-48,87,-7,-80,68,34,-43,-136,-131,-102
-63,-112,-48,87,-7,-80,73,34,-43,-136,-136,-102
-63,-117,-53,90,-4,-85,78,29,-53,-141,-136,-112
-63,-122,-58,92,-2,-90,78,24,-58,-141,-141,-117
-68,-122,-53,95,-7,-87,78,24,-58,-141,-146,-117
-68,-122,-53,95,-7,-87,73,24,-53,-146,-146,-117
-68,-126,-58,97,-4,-92,73,24,-53,-146,-141,-117
-73,-126,-53,100,-9,-90,78,24,-53,-146,-136,-117
-78,-126,-48,102,-14,-87,78,24,-53,-146,-141,-122
-82,-126,-43,104,-19,-85,78,24,-48,-151,-141,-122
-82,-122,-39,102,-21,-80,78,24,-48,-146,-141,-117
-82,-117,-34,100,-24,-75,78,24,-48,-141,-141,-117
-87,-117,-29,102,-29,-73,78,24,-43,-141,-141,-117
-87,-117,-29,102,-29,-73,78,24,-43,-141,-141,-117
-82,-117,-34,100,-24,-75,78,29,-43,-146,-141,-117
-78,-117,-39,97,-19,-78,78,29,-39,-151,-141,-117
-78,-117,-39,97,-19,-78,78,24,-43,-146,-141,-122
-78,-112,-34,95,-21,-73,78,29,-43,-136,-136,-122
-73,-112,-39,92,-17,-75,73,29,-24,-117,-131,-122
-73,-97,-24,85,-24,-61,68,29,63,-39,-92,-122
-73,-73,0,73,-36,-36,58,19,204,63,-48,-112
-63,0,63,31,-63,31,0,-107,234,156,43,-53
-63,122,185,-29,-124,153,-107,-370,136,204,185,43
-58,297,356,-119,-207,326,-283,-702,-24,263,380,214
9,453,444,-231,-217,448,-512,-1083,-424,326,678,507
92,595,502,-344,-204,549,-707,-1381,-995,409,1068,839
209,746,536,-478,-163,641,-888,-1644,-1551,570,1551,1220
331,902,570,-617,-119,736,-1063,-1844,-1927,854,2132,1659
370,1015,644,-692,-136,829,-1195,-1995,-2278,951,2493,1956
336,1098,761,-717,-212,929,-1268,-2176,-2542,702,2381,2030
244,1058,814,-651,-285,936,-1224,-2210,-2635,24,1629,1751
87,785,697,-436,-305,741,-1039,-2015,-2620,-922,468,1171
-29,468,497,-219,-263,483,-883,-1761,-2537,-1781,-610,502
9,234,224,-122,-107,229,-761,-1488,-2332,-1898,-863,263
102,87,-14,-95,58,36,-649,-1156,-1922,-1600,-766,219
165,-92,-258,-36,212,-175,-478,-795,-1449,-1215,-610,170
185,-190,-375,2,280,-283,-336,-531,-1088,-907,-463,136
156,-200,-356,21,256,-278,-224,-356,-795,-658,-341,97
78,-126,-204,24,141,-165,-131,-219,-527,-453,-253,43
-14,-48,-34,31,9,-41,-63,-122,-273,-287,-175,-14
-29,-14,14,21,-21,0,-34,-63,-117,-175,-126,-53
-29,-24,4,26,-17,-9,14,9,-29,-82,-82,-58
-29,-39,-9,34,-9,-24,48,58,14,-48,-73,-58
-34,-39,-4,36,-14,-21,53,78,53,-43,-73,-58
-48,-43,4,46,-26,-19,58,82,82,-34,-78,-78
-48,-48,0,48,-24,-24,68,92,102,-14,-78,-87
-48,-48,0,48,-24,-24,82,112,117,4,-78,-92
-48,-48,0,48,-24,-24,87,117,141,9,-73,-92
-53,-48,4,51,-29,-21,87,122,156,19,-73,-92
-58,-48,9,53,-34,-19,87,122,156,29,-68,-97
-58,-48,9,53,-34,-19,92,131,165,39,-68,-97
-58,-48,9,53,-34,-19,97,141,175,43,-63,-97
-53,-43,9,48,-31,-17,97,141,185,43,-58,-97
-48,-43,4,46,-26,-19,102,141,200,53,-58,-97
-48,-39,9,43,-29,-14,102,146,204,63,-58,-97
-48,-39,9,43,-29,-14,102,151,214,68,-58,-97
-48,-34,14,41,-31,-9,102,156,224,68,-53,-97
-48,-29,19,39,-34,-4,107,161,234,78,-48,-97
-48,-29,19,39,-34,-4,107,165,244,87,-48,-97
-48,-29,19,39,-34,-4,107,165,253,87,-48,-97
-43,-24,19,34,-31,-2,107,170,268,97,-48,-102
-43,-24,19,34,-31,-2,107,175,283,107,-43,-107
-43,-24,19,34,-31,-2,107,180,292,107,-43,-107
-43,-19,24,31,-34,2,102,180,302,122,-39,-107
-43,-19,24,31,-34,2,102,190,312,126,-39,-102
-48,-14,34,31,-41,9,102,200,326,131,-34,-102
-43,-14,29,29,-36,7,102,204,336,141,-29,-102
-43,-14,29,29,-36,7,107,209,346,151,-29,-102
-39,-9,29,24,-34,9,107,219,361,165,-19,-102
-39,-9,29,24,-34,9,107,229,366,175,-19,-102
-29,-4,24,17,-26,9,107,244,385,185,-14,-102
-19,4,24,7,-21,14,107,248,395,195,-9,-97
-14,4,19,4,-17,12,107,258,419,214,0,-97
-9,4,14,2,-12,9,107,268,434,224,4,-92
-4,4,9,0,-7,7,107,283,453,248,14,-92
0,9,9,-4,-4,9,107,297,468,268,24,-87
9,9,0,-9,4,4,107,312,492,287,29,-82
14,14,0,-14,7,7,107,326,522,312,39,-78
19,19,0,-19,9,9,107,341,541,331,48,-68
29,24,-4,-26,17,9,107,361,566,361,63,-58
39,39,0,-39,19,19,112,375,590,385,78,-53
53,53,0,-53,26,26,112,395,619,414,102,-43
58,63,4,-61,26,34,102,409,649,448,112,-34
68,73,4,-70,31,39,97,429,673,488,131,-24
73,82,9,-78,31,46,97,439,702,517,146,-19
87,97,9,-92,39,53,87,448,732,551,170,-4
97,112,14,-104,41,63,82,458,761,580,200,14
112,126,14,-119,48,70,78,463,785,619,224,34
122,146,24,-134,48,85,73,468,805,658,253,53
131,161,29,-146,51,95,63,473,834,697,283,73
146,180,34,-163,56,107,53,473,849,732,317,97
161,204,43,-183,58,124,43,468,858,771,346,122
175,224,48,-200,63,136,19,458,873,805,380,151
190,248,58,-219,65,153,9,439,873,829,409,170
200,268,68,-234,65,168,-9,419,878,858,448,200
209,287,78,-248,65,183,-24,395,883,878,478,229
219,307,87,-263,65,197,-43,366,868,897,507,258
229,322,92,-275,68,207,-68,326,844,907,531,283
239,331,92,-285,73,212,-87,287,805,912,561,312
248,346,97,-297,75,222,-107,253,766,912,580,341
253,351,97,-302,78,224,-117,224,722,893,595,366
253,351,97,-302,78,224,-136,180,668,863,595,375
248,346,97,-297,75,222,-146,146,614,814,590,385
244,336,92,-290,75,214,-146,117,551,756,561,385
229,322,92,-275,68,207,-151,92,497,692,522,380
209,297,87,-253,61,192,-151,63,444,619,483,356
190,268,78,-229,56,173,-146,43,380,551,434,326
175,239,63,-207,56,151,-131,19,331,478,380,302
156,209,53,-183,51,131,-117,14,283,405,331,268
126,180,53,-153,36,117,-102,4,244,341,283,224
107,151,43,-129,31,97,-87,0,209,278,239,190
87,122,34,-104,26,78,-73,-4,165,214,190,161
68,92,24,-80,21,58,-58,-4,136,165,141,131
48,63,14,-56,17,39,-48,-4,112,122,97,102
34,39,4,-36,14,21,-29,0,82,92,68,68
24,24,0,-24,12,12,-24,0,63,58,39,39
9,-4,-14,-2,12,-9,-9,0,48,29,14,29
0,-14,-14,7,7,-14,0,0,29,4,-4,9
-9,-24,-14,17,2,-19,9,-4,19,-14,-19,-9
-14,-39,-24,26,4,-31,14,-4,4,-34,-34,-24
-19,-43,-24,31,2,-34,19,-4,-4,-43,-43,-29
-24,-48,-24,36,0,-36,19,-4,-14,-58,-63,-39
-29,-53,-24,41,-2,-39,29,0,-19,-73,-68,-48
-29,-63,-34,46,2,-48,29,0,-29,-82,-68,-53
-29,-68,-39,48,4,-53,34,0,-29,-82,-73,-53
-34,-73,-39,53,2,-56,39,0,-29,-87,-78,-53
-34,-73,-39,53,2,-56,39,4,-39,-92,-87,-58
-34,-78,-43,56,4,-61,39,9,-43,-92,-87,-63
-34,-82,-48,58,7,-65,34,9,-48,-97,-87,-63
-39,-82,-43,61,2,-63,34,9,-48,-97,-87,-68
-39,-82,-43,61,2,-63,39,9,-48,-97,-87,-68
-39,-82,-43,61,2,-63,39,14,-43,-97,-82,-63
-34,-78,-43,56,4,-61,39,14,-43,-97,-82,-63
-34,-78,-43,56,4,-61,39,14,-43,-97,-82,-58
-34,-78,-43,56,4,-61,39,9,-43,-97,-82,-58
-39,-78,-39,58,0,-58,39,9,-43,-97,-82,-58
-39,-78,-39,58,0,-58,34,9,-43,-97,-82,-58
-39,-78,-39,58,0,-58,34,9,-39,-97,-82,-63
-34,-73,-39,53,2,-56,34,9,-39,-97,-82,-63
-34,-73,-39,53,2,-56,34,9,-39,-97,-82,-63
-34,-73,-39,53,2,-56,34,9,-39,-92,-87,-63
-39,-68,-29,53,-4,-48,34,9,-39,-92,-87,-63
-39,-68,-29,53,-4,-48,34,9,-34,-92,-82,-63
-39,-68,-29,53,-4,-48,34,9,-34,-92,-82,-63
-39,-68,-29,53,-4,-48,34,4,-34,-92,-78,-63
-39,-68,-29,53,-4,-48,34,0,-34,-92,-78,-63
-39,-68,-29,53,-4,-48,34,0,-29,-92,-82,-63
-39,-68,-29,53,-4,-48,34,0,-29,-92,-82,-63
-39,-63,-24,51,-7,-43,34,0,-24,-92,-87,-63
-39,-63,-24,51,-7,-43,34,0,-24,-92,-87,-63
-39,-63,-24,51,-7,-43,34,0,-24,-92,-87,-68
-39,-63,-24,51,-7,-43,34,0,-24,-92,-87,-68
-39,-63,-24,51,-7,-43,34,0,-29,-92,-87,-68
-39,-63,-24,51,-7,-43,29,0,-34,-97,-92,-68
-39,-63,-24,51,-7,-43,29,0,-34,-97,-92,-73
-39,-63,-24,51,-7,-43,29,0,-34,-97,-97,-73
-39,-63,-24,51,-7,-43,29,0,-34,-97,-97,-73
-39,-68,-29,53,-4,-48,34,0,-34,-97,-92,-73
-39,-68,-29,53,-4,-48,34,0,-34,-97,-97,-73
-39,-68,-29,53,-4,-48,34,0,-34,-97,-107,-73
-39,-73,-34,56,-2,-53,34,0,-34,-97,-107,-73
-39,-73,-34,56,-2,-53,34,0,-39,-102,-107,-73
-39,-73,-34,56,-2,-53,34,0,-39,-102,-107,-73
-39,-73,-34,56,-2,-53,34,0,-39,-102,-107,-73
-39,-73,-34,56,-2,-53,34,0,-39,-102,-102,-73
-39,-78,-39,58,0,-58,39,0,-39,-102,-97,-78
-39,-78,-39,58,0,-58,39,0,-39,-102,-102,-78
-39,-78,-39,58,0,-58,39,0,-43,-107,-102,-82
-43,-78,-34,61,-4,-56,39,0,-43,-117,-112,-82
-43,-78,-34,61,-4,-56,39,0,-48,-122,-122,-87
-43,-82,-39,63,-2,-61,39,4,-48,-126,-122,-87
-43,-82,-39,63,-2,-61,39,4,-48,-126,-122,-87
-43,-82,-39,63,-2,-61,39,4,-48,-126,-122,-92
-43,-87,-43,65,0,-65,39,9,-48,-126,-122,-92
-43,-87,-43,65,0,-65,39,9,-53,-122,-122,-92
-43,-92,-48,68,2,-70,39,4,-53,-122,-122,-92
-43,-92,-48,68,2,-70,43,4,-53,-122,-122,-92
-43,-92,-48,68,2,-70,43,4,-53,-122,-122,-87
-43,-92,-48,68,2,-70,43,4,-53,-126,-122,-87
-43,-92,-48,68,2,-70,43,9,-53,-131,-122,-87
-43,-92,-48,68,2,-70,43,9,-58,-131,-122,-87
-43,-92,-48,68,2,-70,43,9,-58,-131,-122,-87
-43,-92,-48,68,2,-70,43,9,-58,-131,-126,-92
-43,-97,-53,70,4,-75,43,9,-58,-131,-126,-97
-43,-97,-53,70,4,-75,43,9,-58,-131,-126,-97
-48,-97,-48,73,0,-73,43,9,-58,-131,-122,-97
-48,-97,-48,73,0,-73,43,9,-58,-131,-122,-97
-43,-97,-53,70,4,-75,43,4,-63,-131,-122,-97
-43,-92,-48,68,2,-70,39,4,-63,-131,-126,-97
-43,-92,-48,68,2,-70,39,9,-63,-136,-126,-97
-43,-92,-48,68,2,-70,39,9,-58,-136,-126,-97
-43,-92,-48,68,2,-70,39,9,-53,-136,-126,-97
-43,-92,-48,68,2,-70,39,9,-53,-136,-126,-97
-43,-92,-48,68,2,-70,39,9,-53,-131,-126,-92
-48,-92,-43,70,-2,-68,39,9,-53,-131,-126,-92
-48,-92,-43,70,-2,-68,39,9,-53,-136,-126,-92
-43,-92,-48,68,2,-70,39,9,-63,-136,-126,-92
-39,-92,-53,65,7,-73,39,9,-68,-136,-126,-92
-39,-97,-58,68,9,-78,39,9,-63,-131,-122,-92
-39,-102,-63,70,12,-82,39,9,-63,-131,-122,-92
-39,-102,-63,70,12,-82,43,9,-63,-131,-122,-92
-39,-102,-63,70,12,-82,48,9,-63,-136,-126,-92
-39,-97,-58,68,9,-78,48,14,-63,-136,-126,-97
-39,-92,-53,65,7,-73,48,14,-63,-136,-126,-102
-39,-92,-53,65,7,-73,48,14,-63,-136,-126,-102
-39,-97,-58,68,9,-78,48,14,-63,-136,-126,-102
-39,-97,-58,68,9,-78,43,14,-68,-136,-126,-102
-39,-97,-58,68,9,-78,43,14,-73,-136,-126,-107
-43,-97,-53,70,4,-75,39,14,-68,-136,-131,-107
-48,-97,-48,73,0,-73,39,19,-68,-136,-136,-107
-48,-97,-48,73,0,-73,39,14,-68,-141,-136,-107
-48,-97,-48,73,0,-73,39,9,-68,-146,-136,-107
-48,-97,-48,73,0,-73,39,9,-68,-146,-136,-107
-48,-97,-48,73,0,-73,39,9,-68,-146,-136,-107
-43,-97,-53,70,4,-75,39,9,-68,-141,-136,-107
-39,-97,-58,68,9,-78,39,9,-68,-136,-136,-107
-39,-97,-58,68,9,-78,39,9,-68,-136,-136,-107
-39,-97,-58,68,9,-78,39,9,-68,-136,-136,-107
-43,-97,-53,70,4,-75,39,9,-68,-136,-136,-107
-48,-97,-48,73,0,-73,39,9,-68,-136,-136,-107
-48,-97,-48,73,0,-73,39,9,-68,-136,-136,-107
-48,-97,-48,73,0,-73,39,9,-68,-136,-136,-107
-48,-97,-48,73,0,-73,43,9,-68,-136,-131,-107
-48,-97,-48,73,0,-73,48,9,-68,-136,-126,-107
-48,-97,-48,73,0,-73,48,9,-68,-136,-126,-107
-48,-97,-48,73,0,-73,48,9,-68,-136,-126,-107
-48,-97,-48,73,0,-73,48,9,-68,-141,-131,-107
-48,-97,-48,73,0,-73,48,9,-68,-146,-136,-107
-48,-97,-48,73,0,-73,48,9,-68,-146,-136,-107
-48,-97,-48,73,0,-73,48,9,-68,-146,-136,-107
-48,-97,-48,73,0,-73,48,14,-68,-141,-136,-107
-48,-97,-48,73,0,-73,48,19,-68,-136,-136,-107
-48,-97,-48,73,0,-73,43,19,-68,-136,-136,-107
-48,-97,-48,73,0,-73,39,19,-68,-136,-136,-107
-48,-97,-48,73,0,-73,39,19,-68,-136,-136,-107
-48,-97,-48,73,0,-73,39,19,-68,-136,-136,-107
-48,-97,-48,73,0,-73,39,19,-68,-136,-136,-107
-48,-97,-48,73,0,-73,39,19,-68,-136,-136,-107
-48,-97,-48,73,0,-73,43,19,-68,-136,-136,-107
-48,-97,-48,73,0,-73,48,19,-68,-136,-136,-107
-48,-97,-48,73,0,-73,48,14,-68,-141,-136,-107
-48,-97,-48,73,0,-73,48,9,-68,-146,-136,-107
-48,-97,-48,73,0,-73,43,9,-68,-146,-136,-107
-48,-97,-48,73,0,-73,39,9,-68,-146,-136,-107
-48,-97,-48,73,0,-73,39,9,-68,-146,-136,-107
-48,-97,-48,73,0,-73,39,9,-68,-146,-136,-107
-48,-97,-48,73,0,-73,39,14,-68,-146,-136,-107
-48,-97,-48,73,0,-73,39,19,-68,-146,-136,-107
-48,-97,-48,73,0,-73,43,19,-68,-146,-136,-112
-48,-97,-48,73,0,-73,48,19,-68,-146,-136,-117
-48,-97,-48,73,0,-73,48,19,-68,-146,-136,-117
-48,-97,-48,73,0,-73,48,19,-68,-146,-136,-117
-48,-97,-48,73,0,-73,48,19,-68,-146,-136,-117
-48,-97,-48,73,0,-73,48,19,-68,-146,-136,-117
-43,-92,-48,68,2,-70,48,24,-63,-141,-136,-112
-39,-87,-48,63,4,-68,48,29,-58,-136,-136,-107
-39,-87,-48,63,4,-68,48,29,-58,-136,-136,-107
-39,-87,-48,63,4,-68,48,29,-58,-136,-136,-107
-29,-78,-48,53,9,-63,48,39,-53,-131,-131,-107
-19,-68,-48,43,14,-58,48,48,-48,-126,-126,-107
-14,-68,-53,41,19,-61,43,48,-39,-117,-122,-97
-9,-68,-58,39,24,-63,39,48,-29,-107,-117,-87
-4,-63,-58,34,26,-61,29,48,-24,-107,-107,-82
4,-53,-58,24,31,-56,14,43,-14,-97,-97,-78
14,-48,-63,17,39,-56,4,43,-9,-92,-92,-73
29,-34,-63,2,46,-48,-14,34,0,-82,-82,-68
39,-19,-58,-9,48,-39,-34,29,9,-73,-73,-58
63,0,-63,-31,63,-31,-39,34,34,-48,-48,-29
68,9,-58,-39,63,-24,-43,34,39,-39,-39,-19
82,14,-68,-48,75,-26,-43,53,39,-34,-43,-9
82,14,-68,-48,75,-26,-39,58,29,-29,-34,-9
87,9,-78,-48,82,-34,-34,53,14,-29,-34,-9
73,0,-73,-36,73,-36,-29,43,0,-43,-39,-9
58,-9,-68,-24,63,-39,-29,29,-4,-53,-48,-14
48,-14,-63,-17,56,-39,-19,24,-9,-63,-53,-24
29,-24,-53,-2,41,-39,-9,24,-9,-73,-58,-24
19,-29,-48,4,34,-39,4,24,-14,-78,-68,-29
24,-34,-58,4,41,-46,9,29,-19,-87,-78,-39
24,-34,-58,4,41,-46,14,29,-29,-92,-87,-48
24,-34,-58,4,41,-46,19,29,-29,-92,-92,-58
4,-48,-53,21,29,-51,29,34,-29,-97,-107,-68
-19,-68,-48,43,14,-58,48,43,-29,-107,-126,-87
-39,-82,-43,61,2,-63,58,48,-29,-117,-141,-102
-34,-82,-48,58,7,-65,58,34,-43,-136,-141,-117
-48,-92,-43,70,-2,-68,63,24,-48,-141,-151,-117
-58,-92,-34,75,-12,-63,63,24,-43,-141,-151,-122
-63,-92,-29,78,-17,-61,63,24,-43,-146,-156,-122
-63,-92,-29,78,-17,-61,63,24,-43,-146,-156,-122
-63,-92,-29,78,-17,-61,63,24,-53,-151,-156,-131
-63,-92,-29,78,-17,-61,58,24,-58,-151,-161,-136
-68,-92,-24,80,-21,-58,63,24,-58,-151,-161,-136
-68,-92,-24,80,-21,-58,63,24,-53,-156,-156,-136
-68,-97,-29,82,-19,-63,63,24,-53,-156,-156,-131
-73,-97,-24,85,-24,-61,68,24,-53,-156,-156,-126
-73,-97,-24,85,-24,-61,68,24,-53,-156,-161,-131
-73,-97,-24,85,-24,-61,68,24,-48,-161,-161,-131
-73,-97,-24,85,-24,-61,68,24,-48,-156,-161,-131
-73,-97,-24,85,-24,-61,68,24,-48,-151,-161,-136
-78,-97,-19,87,-29,-58,68,24,-43,-151,-161,-136
-78,-97,-19,87,-29,-58,68,24,-43,-151,-161,-136
-78,-92,-14,85,-31,-53,68,29,-43,-151,-161,-136
-78,-87,-9,82,-34,-48,68,29,-39,-151,-161,-136
-78,-87,-9,82,-34,-48,68,19,-39,-146,-161,-136
-78,-82,-4,80,-36,-43,68,19,-34,-136,-156,-131
-73,-82,-9,78,-31,-46,63,29,-4,-107,-151,-131
-73,-68,4,70,-39,-31,58,39,92,-19,-112,-131
-68,-39,29,53,-48,-4,43,19,204,97,-29,-107
-53,39,92,7,-73,65,-19,-117,204,204,102,-34
-29,175,204,-73,-117,190,-146,-390,82,273,307,122
0,366,366,-183,-183,366,-341,-732,-102,351,566,351
82,531,448,-307,-183,490,-570,-1088,-522,444,932,683
180,683,502,-431,-161,592,-766,-1361,-1112,556,1390,1054
268,829,561,-549,-146,695,-932,-1615,-1668,663,1825,1410
361,980,619,-671,-129,800,-1093,-1805,-2044,893,2357,1825
346,1063,717,-705,-185,890,-1171,-1927,-2376,805,2430,1952
258,1117,858,-688,-300,988,-1190,-2078,-2620,370,2030,1854
156,1019,863,-588,-353,941,-1132,-2083,-2679,-322,1190,1473
-9,688,697,-339,-353,692,-932,-1859,-2630,-1283,-58,790
-82,370,453,-143,-268,412,-775,-1586,-2483,-1927,-902,244
0,136,136,-68,-68,136,-653,-1293,-2215,-1830,-922,126
82,14,-68,-48,75,-26,-556,-990,-1790,-1517,-790,112
136,-141,-278,2,207,-209,-400,-658,-1302,-1117,-600,92
136,-195,-331,29,234,-263,-273,-429,-951,-814,-453,68
87,-161,-248,36,168,-204,-175,-287,-668,-570,-331,39
34,-87,-122,26,78,-104,-102,-170,-424,-375,-244,-4
-34,-9,24,21,-29,7,-53,-92,-195,-219,-165,-53
-43,19,63,12,-53,41,-24,-48,-63,-131,-126,-82
-39,4,43,17,-41,24,24,9,0,-63,-92,-78
-34,-9,24,21,-29,7,53,53,39,-34,-82,-78
-34,-9,24,21,-29,7,53,68,73,-34,-82,-78
-48,-14,34,31,-41,9,53,73,97,-29,-87,-97
-48,-19,29,34,-39,4,58,82,112,-14,-87,-107
-48,-19,29,34,-39,4,73,102,126,4,-87,-112
-48,-19,29,34,-39,4,78,107,151,9,-82,-112
-48,-19,29,34,-39,4,82,112,170,19,-82,-107
-48,-19,29,34,-39,4,87,112,175,29,-78,-107
-48,-19,29,34,-39,4,92,122,185,39,-78,-107
-48,-19,29,34,-39,4,97,131,195,43,-73,-107
-48,-14,34,31,-41,9,92,131,200,43,-68,-107
-48,-14,34,31,-41,9,92,131,209,53,-68,-107
-48,-9,39,29,-43,14,92,136,214,63,-68,-112
-48,-9,39,29,-43,14,92,141,224,68,-68,-117
-48,-4,43,26,-46,19,92,146,234,63,-63,-117
-48,0,48,24,-48,24,97,151,244,68,-58,-117
-48,0,48,24,-48,24,97,156,253,78,-58,-117
-48,0,48,24,-48,24,97,156,263,78,-58,-117
-43,4,48,19,-46,26,97,161,273,92,-58,-112
-43,4,48,19,-46,26,97,165,283,107,-53,-107
-43,4,48,19,-46,26,97,170,292,107,-53,-107
-43,9,53,17,-48,31,92,170,302,122,-48,-107
-39,9,48,14,-43,29,92,175,307,126,-48,-102
-39,14,53,12,-46,34,92,180,317,131,-43,-102
-34,14,48,9,-41,31,92,185,326,141,-39,-102
-34,14,48,9,-41,31,97,190,336,151,-39,-102
-29,19,48,4,-39,34,97,200,356,165,-29,-102
-29,19,48,4,-39,34,97,209,366,175,-29,-102
-24,19,43,2,-34,31,97,229,385,190,-19,-102
-19,24,43,-2,-31,34,97,239,395,204,-9,-97
-14,24,39,-4,-26,31,97,248,419,224,0,-97
-9,24,34,-7,-21,29,97,258,434,234,4,-92
0,24,24,-12,-12,24,97,268,453,258,14,-87
9,29,19,-19,-4,24,97,278,468,278,24,-78
19,34,14,-26,2,24,97,292,492,297,29,-73
24,43,19,-34,2,31,97,307,522,322,39,-68
29,48,19,-39,4,34,92,322,541,346,48,-63
39,53,14,-46,12,34,87,341,566,380,63,-58
48,63,14,-56,17,39,92,346,590,405,78,-53
63,73,9,-68,26,41,92,356,619,434,102,-43
68,87,19,-78,24,53,82,370,649,463,112,-34
78,102,24,-90,26,63,78,390,673,497,131,-24
82,112,29,-97,26,70,78,400,702,531,146,-19
97,126,29,-112,34,78,68,409,732,570,170,-4
107,146,39,-126,34,92,58,419,761,605,209,19
122,165,43,-143,39,104,48,424,785,649,244,43
131,185,53,-158,39,119,39,424,805,692,273,63
141,200,58,-170,41,129,24,424,834,736,302,82
156,219,63,-187,46,141,14,424,849,771,336,112
170,244,73,-207,48,158,4,419,858,810,366,141
185,263,78,-224,53,170,-19,409,868,844,400,175
200,287,87,-244,56,187,-29,390,863,868,429,200
209,307,97,-258,56,202,-48,370,858,897,468,229
219,326,107,-273,56,217,-63,346,854,917,497,258
229,346,117,-287,56,231,-82,317,839,936,527,287
239,361,122,-300,58,241,-107,278,814,946,551,312
244,366,122,-305,61,244,-126,239,771,946,580,336
248,375,126,-312,61,251,-146,204,727,941,600,361
253,375,122,-314,65,248,-151,180,683,912,605,380
253,370,117,-312,68,244,-165,141,629,873,595,385
244,366,122,-305,61,244,-175,107,570,819,585,385
234,356,122,-295,56,239,-175,78,502,756,551,375
219,341,122,-280,48,231,-170,58,448,683,502,366
200,317,117,-258,41,217,-161,34,395,600,453,336
175,287,112,-231,31,200,-151,19,336,527,405,302
156,258,102,-207,26,180,-131,0,292,448,351,273
136,229,92,-183,21,161,-117,-4,244,375,292,239
107,200,92,-153,7,146,-102,-14,204,312,234,195
87,170,82,-129,2,126,-87,-14,175,248,190,151
68,141,73,-104,-2,107,-73,-14,136,185,141,112
48,112,63,-80,-7,87,-58,-14,107,136,97,82
29,82,53,-56,-12,68,-48,-14,82,92,58,53
14,58,43,-36,-14,51,-29,-9,53,58,29,24
4,43,39,-24,-17,41,-24,-9,34,19,0,0
-4,14,19,-4,-12,17,-9,-9,19,-9,-29,-9
-9,4,14,2,-12,9,0,-9,0,-34,-53,-29
-19,-4,14,12,-17,4,9,-9,-4,-53,-68,-48
-24,-19,4,21,-14,-7,14,-4,-14,-73,-82,-63
-29,-29,0,29,-14,-14,19,-4,-24,-78,-92,-68
-34,-39,-4,36,-14,-21,19,-4,-34,-87,-112,-78
-39,-43,-4,41,-17,-24,29,0,-39,-102,-117,-87
-39,-53,-14,46,-12,-34,29,0,-48,-112,-117,-92
-39,-53,-14,46,-12,-34,34,0,-53,-112,-117,-92
-43,-53,-9,48,-17,-31,39,0,-58,-117,-117,-92
-43,-48,-4,46,-19,-26,39,0,-63,-122,-126,-97
-43,-48,-4,46,-19,-26,39,0,-63,-122,-126,-102
-43,-53,-9,48,-17,-31,34,0,-63,-126,-126,-97
-48,-53,-4,51,-21,-29,34,0,-58,-126,-126,-97
-48,-53,-4,51,-21,-29,39,0,-63,-126,-126,-97
-48,-53,-4,51,-21,-29,39,4,-63,-126,-122,-92
-43,-48,-4,46,-19,-26,39,4,-58,-122,-122,-92
-43,-48,-4,46,-19,-26,39,4,-53,-117,-122,-87
-43,-48,-4,46,-19,-26,39,0,-53,-117,-122,-87
-48,-48,0,48,-24,-24,39,0,-53,-117,-122,-87
-53,-53,0,53,-26,-26,34,0,-53,-117,-117,-87
-58,-58,0,58,-29,-29,34,0,-48,-117,-112,-92
-53,-53,0,53,-26,-26,34,0,-48,-117,-112,-92
-53,-53,0,53,-26,-26,34,0,-48,-117,-112,-92
-43,-53,-9,48,-17,-31,34,0,-48,-112,-117,-92
-39,-48,-9,43,-14,-29,34,0,-48,-112,-117,-92
-39,-43,-4,41,-17,-24,34,0,-43,-112,-117,-92
-39,-39,0,39,-19,-19,34,0,-43,-112,-122,-92
-39,-39,0,39,-19,-19,34,0,-48,-112,-117,-92
-39,-39,0,39,-19,-19,34,0,-53,-112,-117,-92
-43,-39,4,41,-24,-17,34,4,-48,-112,-122,-92
-48,-39,9,43,-29,-14,34,9,-48,-112,-122,-92
-48,-34,14,41,-31,-9,29,9,-43,-117,-126,-92
-48,-34,14,41,-31,-9,24,9,-43,-122,-126,-92
-48,-39,9,43,-29,-14,24,9,-43,-122,-126,-97
-48,-43,4,46,-26,-19,24,9,-43,-122,-126,-97
-43,-43,0,43,-21,-21,24,9,-43,-122,-126,-97
-39,-43,-4,41,-17,-24,19,9,-43,-126,-131,-97
-39,-43,-4,41,-17,-24,19,9,-48,-126,-131,-102
-39,-43,-4,41,-17,-24,19,9,-53,-126,-136,-102
-43,-43,0,43,-21,-21,19,9,-53,-126,-136,-102
-48,-48,0,48,-24,-24,24,9,-53,-126,-131,-102
-48,-48,0,48,-24,-24,29,9,-53,-126,-131,-102
-48,-48,0,48,-24,-24,34,9,-53,-126,-136,-102
-48,-53,-4,51,-21,-29,34,9,-48,-126,-136,-102
-48,-53,-4,51,-21,-29,34,9,-48,-131,-136,-102
-48,-53,-4,51,-21,-29,34,9,-48,-131,-136,-102
-48,-53,-4,51,-21,-29,34,9,-48,-131,-136,-102
-48,-53,-4,51,-21,-29,34,9,-48,-131,-136,-102
-48,-58,-9,53,-19,-34,39,9,-48,-131,-136,-107
-48,-58,-9,53,-19,-34,39,9,-48,-131,-141,-107
-48,-58,-9,53,-19,-34,39,9,-53,-136,-141,-112
-53,-58,-4,56,-24,-31,39,9,-53,-141,-146,-112
-53,-58,-4,56,-24,-31,39,9,-58,-141,-151,-117
-53,-58,-4,56,-24,-31,39,14,-58,-146,-151,-117
-53,-53,0,53,-26,-26,39,14,-58,-146,-151,-117
-53,-53,0,53,-26,-26,39,9,-58,-146,-151,-117
-53,-58,-4,56,-24,-31,39,9,-58,-146,-151,-112
-48,-58,-9,53,-19,-34,39,9,-63,-146,-151,-112
-43,-63,-19,53,-12,-41,39,4,-63,-151,-151,-112
-43,-63,-19,53,-12,-41,43,4,-68,-151,-151,-117
-43,-63,-19,53,-12,-41,43,4,-73,-151,-151,-117
-43,-63,-19,53,-12,-41,43,4,-73,-151,-151,-117
-43,-63,-19,53,-12,-41,43,9,-73,-151,-151,-117
-43,-63,-19,53,-12,-41,43,9,-73,-151,-146,-117
-43,-63,-19,53,-12,-41,43,9,-68,-151,-141,-117
-43,-63,-19,53,-12,-41,43,9,-68,-151,-146,-122
-43,-68,-24,56,-9,-46,43,9,-68,-151,-146,-126
-43,-68,-24,56,-9,-46,43,9,-68,-151,-151,-126
-48,-68,-19,58,-14,-43,43,9,-68,-151,-151,-126
-48,-68,-19,58,-14,-43,43,9,-68,-151,-151,-122
-43,-68,-24,56,-9,-46,43,4,-73,-151,-151,-117
-43,-68,-24,56,-9,-46,43,4,-73,-146,-156,-117
-43,-73,-29,58,-7,-51,48,9,-73,-146,-156,-117
-48,-73,-24,61,-12,-48,48,14,-73,-146,-156,-117
-53,-73,-19,63,-17,-46,48,19,-73,-146,-156,-117
-53,-78,-24,65,-14,-51,48,19,-73,-151,-156,-122
-53,-82,-29,68,-12,-56,48,19,-73,-151,-156,-122
-58,-82,-24,70,-17,-53,48,19,-73,-151,-151,-122
-58,-82,-24,70,-17,-53,48,19,-73,-156,-146,-122
-58,-82,-24,70,-17,-53,48,19,-78,-156,-146,-122
-58,-82,-24,70,-17,-53,48,19,-78,-156,-146,-122
-53,-82,-29,68,-12,-56,48,19,-73,-151,-141,-122
-48,-82,-34,65,-7,-58,48,19,-73,-151,-141,-122
-48,-82,-34,65,-7,-58,48,19,-73,-151,-141,-122
-48,-82,-34,65,-7,-58,48,19,-73,-156,-146,-122
-48,-82,-34,65,-7,-58,48,24,-73,-156,-146,-122
-48,-82,-34,65,-7,-58,48,24,-73,-156,-146,-122
-48,-82,-34,65,-7,-58,48,19,-73,-156,-146,-122
-48,-87,-39,68,-4,-63,48,14,-73,-156,-146,-122
-48,-87,-39,68,-4,-63,48,14,-73,-156,-146,-117
-48,-87,-39,68,-4,-63,53,14,-73,-156,-146,-117
-48,-82,-34,65,-7,-58,48,14,-68,-156,-146,-117
-48,-78,-29,63,-9,-53,48,19,-68,-156,-146,-117
-48,-82,-34,65,-7,-58,48,19,-68,-156,-146,-117
-48,-87,-39,68,-4,-63,48,19,-68,-156,-146,-117
-48,-87,-39,68,-4,-63,48,19,-73,-156,-151,-122
-48,-87,-39,68,-4,-63,48,19,-78,-156,-156,-126
-48,-87,-39,68,-4,-63,48,19,-78,-156,-156,-126
-48,-87,-39,68,-4,-63,48,19,-78,-156,-156,-126
-48,-87,-39,68,-4,-63,48,19,-78,-156,-156,-126
-48,-87,-39,68,-4,-63,48,19,-78,-156,-156,-126
-48,-87,-39,68,-4,-63,48,19,-78,-156,-156,-122
-48,-87,-39,68,-4,-63,48,19,-78,-156,-156,-117
-48,-87,-39,68,-4,-63,48,19,-73,-156,-151,-117
-48,-87,-39,68,-4,-63,48,19,-68,-156,-146,-117
-48,-87,-39,68,-4,-63,48,19,-68,-156,-146,-117
-48,-87,-39,68,-4,-63,48,19,-68,-156,-146,-117
-48,-92,-43,70,-2,-68,48,19,-68,-156,-146,-117
-48,-97,-48,73,0,-73,48,19,-68,-156,-146,-117
-48,-97,-48,73,0,-73,48,19,-68,-156,-146,-122
-48,-97,-48,73,0,-73,48,19,-68,-156,-146,-126
-48,-97,-48,73,0,-73,48,19,-68,-156,-146,-126
-48,-97,-48,73,0,-73,48,19,-68,-156,-146,-126
-48,-97,-48,73,0,-73,48,19,-73,-156,-146,-126
-48,-97,-48,73,0,-73,48,19,-78,-156,-146,-126
-53,-97,-43,75,-4,-70,48,19,-78,-156,-146,-126
-58,-97,-39,78,-9,-68,48,19,-78,-156,-146,-126
-58,-97,-39,78,-9,-68,48,19,-73,-156,-146,-126
-58,-97,-39,78,-9,-68,48,19,-68,-156,-146,-126
-58,-97,-39,78,-9,-68,48,19,-68,-156,-146,-126
-58,-97,-39,78,-9,-68,48,19,-68,-156,-146,-126
-58,-97,-39,78,-9,-68,48,19,-68,-156,-146,-126
-58,-97,-39,78,-9,-68,48,19,-68,-156,-146,-126
-53,-97,-43,75,-4,-70,48,19,-68,-156,-146,-126
-48,-97,-48,73,0,-73,48,19,-68,-156,-146,-126
-48,-92,-43,70,-2,-68,48,19,-68,-156,-146,-126
-48,-87,-39,68,-4,-63,48,19,-68,-156,-146,-126
-48,-87,-39,68,-4,-63,48,24,-63,-156,-146,-122
-48,-87,-39,68,-4,-63,48,29,-58,-156,-146,-117
-43,-87,-43,65,0,-65,48,34,-58,-151,-146,-117
-39,-87,-48,63,4,-68,48,39,-58,-146,-146,-117
-29,-78,-48,53,9,-63,48,43,-48,-136,-141,-112
-19,-68,-48,43,14,-58,48,48,-39,-126,-136,-107
-14,-68,-53,41,19,-61,39,48,-34,-126,-126,-102
-9,-63,-53,36,21,-58,24,43,-29,-122,-122,-97
-4,-63,-58,34,26,-61,14,43,-29,-117,-117,-92
0,-53,-53,26,26,-53,-4,34,-29,-112,-112,-87
9,-34,-43,12,26,-39,-24,24,-9,-102,-102,-78
34,-9,-43,-12,39,-26,-29,24,24,-78,-78,-48
48,9,-39,-29,43,-14,-34,24,34,-58,-53,-39
73,24,-48,-48,61,-12,-34,43,39,-43,-43,-29
78,19,-58,-48,68,-19,-34,53,39,-39,-39,-19
87,9,-78,-48,82,-34,-34,53,34,-39,-43,-9
73,0,-73,-36,73,-36,-24,43,9,-53,-48,-9
58,-9,-68,-24,63,-39,-19,29,-4,-63,-58,-14
48,-14,-63,-17,56,-39,-9,24,-9,-68,-58,-24
29,-24,-53,-2,41,-39,0,24,-9,-73,-58,-24
14,-34,-48,9,31,-41,9,19,-14,-78,-68,-29
14,-43,-58,14,36,-51,9,19,-19,-87,-78,-39
14,-43,-58,14,36,-51,9,19,-29,-92,-82,-39
14,-43,-58,14,36,-51,9,19,-29,-92,-82,-39
9,-43,-53,17,31,-48,9,24,-29,-97,-82,-43
0,-48,-48,24,24,-48,19,34,-29,-107,-87,-58
-39,-78,-39,58,0,-58,43,43,-29,-117,-117,-87
-53,-92,-39,73,-7,-65,58,34,-43,-136,-131,-117
-58,-102,-43,80,-7,-73,63,24,-53,-146,-141,-117
-58,-102,-43,80,-7,-73,63,24,-53,-151,-141,-122
-63,-102,-39,82,-12,-70,63,24,-53,-156,-146,-122
-63,-102,-39,82,-12,-70,63,24,-53,-156,-146,-122
-63,-102,-39,82,-12,-70,68,29,-53,-156,-146,-126
-63,-102,-39,82,-12,-70,68,34,-48,-151,-151,-126
-73,-102,-29,87,-21,-65,73,34,-48,-151,-156,-126
-78,-102,-24,90,-26,-63,73,34,-43,-156,-156,-126
-78,-107,-29,92,-24,-68,73,29,-43,-156,-156,-126
-82,-107,-24,95,-29,-65,78,24,-43,-156,-156,-126
-82,-107,-24,95,-29,-65,78,24,-48,-156,-161,-131
-82,-107,-24,95,-29,-65,78,24,-48,-161,-161,-131
-82,-107,-24,95,-29,-65,78,24,-48,-161,-161,-131
-82,-107,-24,95,-29,-65,78,24,-48,-161,-161,-136
-87,-107,-19,97,-34,-63,78,24,-43,-161,-161,-136
-87,-107,-19,97,-34,-63,78,24,-43,-161,-161,-136
-87,-107,-19,97,-34,-63,78,29,-43,-161,-161,-136
-87,-107,-19,97,-34,-63,78,29,-39,-161,-161,-136
-82,-107,-24,95,-29,-65,78,19,-43,-161,-161,-136
-78,-102,-24,90,-26,-63,78,19,-43,-156,-156,-131
-73,-107,-34,90,-19,-70,78,29,-48,-161,-161,-131
-73,-97,-24,85,-24,-61,78,39,14,-107,-131,-131
-78,-102,-24,90,-26,-63,92,97,185,4,-107,-151
-73,-58,14,65,-43,-21,58,39,244,107,-34,-122
-78,58,136,9,-107,97,-19,-185,190,156,82,-53
-78,229,307,-75,-192,268,-165,-478,73,214,253,87
-24,395,419,-185,-222,407,-395,-863,-283,273,531,356
43,546,502,-295,-229,524,-590,-1166,-810,351,902,663
165,712,546,-439,-190,629,-790,-1449,-1420,531,1420,1058
292,883,590,-588,-148,736,-985,-1668,-1849,834,2034,1512
351,1029,678,-690,-163,854,-1137,-1830,-2249,1078,2596,1908
336,1146,810,-741,-236,978,-1229,-2020,-2562,976,2684,2078
253,1176,922,-714,-334,1049,-1234,-2152,-2718,317,1991,1869
107,971,863,-539,-378,917,-1098,-2054,-2766,-610,888,1356
-58,610,668,-275,-363,639,-932,-1825,-2732,-1712,-444,580
-68,331,400,-131,-234,366,-800,-1576,-2576,-2074,-951,234
39,165,126,-102,-43,146,-692,-1244,-2142,-1776,-849,209
117,-34,-151,-41,134,-92,-527,-883,-1644,-1390,-688,180
165,-165,-331,0,248,-248,-375,-595,-1244,-1044,-522,146
165,-209,-375,21,270,-292,-253,-395,-912,-756,-380,107
92,-136,-229,21,161,-183,-156,-248,-619,-527,-287,48
4,-58,-63,26,34,-61,-82,-141,-341,-336,-204,-14
-19,-9,9,14,-14,0,-53,-87,-151,-209,-146,-53
-29,-4,24,17,-26,9,-4,-19,-29,-102,-92,-58
-24,-19,4,21,-14,-7,34,39,14,-58,-78,-58
-24,-19,4,21,-14,-7,43,68,53,-43,-73,-58
-43,-29,14,36,-29,-7,53,73,82,-39,-78,-82
-48,-39,9,43,-29,-14,68,82,102,-24,-78,-97
-48,-39,9,43,-29,-14,82,102,117,-4,-78,-102
-48,-39,9,43,-29,-14,87,107,141,0,-73,-102
-48,-39,9,43,-29,-14,87,112,165,9,-73,-102
-48,-39,9,43,-29,-14,87,112,175,19,-68,-107
-48,-39,9,43,-29,-14,92,122,185,29,-68,-107
-48,-39,9,43,-29,-14,97,131,195,34,-63,-107
-48,-34,14,41,-31,-9,97,131,204,39,-58,-107
-48,-34,14,41,-31,-9,102,131,219,53,-58,-107
-48,-29,19,39,-34,-4,102,136,224,63,-58,-102
-48,-29,19,39,-34,-4,102,141,234,68,-58,-97
-48,-24,24,36,-36,0,102,146,244,63,-53,-97
-48,-19,29,34,-39,4,107,151,253,68,-48,-97
-48,-19,29,34,-39,4,107,156,263,78,-48,-97
-48,-19,29,34,-39,4,107,156,273,78,-48,-97
-43,-14,29,29,-36,7,107,161,283,87,-48,-97
-43,-14,29,29,-36,7,107,165,292,97,-43,-97
-43,-14,29,29,-36,7,107,170,302,97,-43,-97
-43,-9,34,26,-39,12,102,170,312,112,-39,-97
-39,-9,29,24,-34,9,102,180,322,122,-34,-92
-39,-4,34,21,-36,14,102,190,336,131,-24,-92
-34,-4,29,19,-31,12,102,195,346,141,-19,-92
-34,-4,29,19,-31,12,107,200,356,151,-19,-92
-29,0,29,14,-29,14,107,209,375,161,-9,-92
-29,0,29,14,-29,14,107,219,385,165,-9,-92
-24,0,24,12,-24,12,107,234,405,180,-4,-92
-19,4,24,7,-21,14,107,239,414,195,0,-87
-14,4,19,4,-17,12,107,248,439,214,4,-87
-9,4,14,2,-12,9,107,258,453,224,4,-82
-4,4,9,0,-7,7,107,273,473,248,14,-82
0,9,9,-4,-4,9,107,287,488,268,24,-78
9,9,0,-9,4,4,107,297,512,287,29,-73
14,14,0,-14,7,7,107,307,541,312,39,-68
19,19,0,-19,9,9,107,322,561,331,48,-63
29,24,-4,-26,17,9,107,341,585,361,63,-58
34,34,0,-34,17,17,112,356,610,385,78,-53
43,43,0,-43,21,21,112,375,639,414,102,-43
48,58,9,-53,19,34,102,390,668,444,112,-34
58,73,14,-65,21,43,97,409,692,478,131,-24
63,82,19,-73,21,51,102,419,722,512,146,-19
78,97,19,-87,29,58,97,429,751,551,170,-4
87,112,24,-100,31,68,92,444,780,585,200,19
102,126,24,-114,39,75,87,453,805,629,224,43
112,146,34,-129,39,90,78,458,824,668,258,58
122,161,39,-141,41,100,63,463,854,707,292,73
136,180,43,-158,46,112,53,463,868,741,326,97
151,204,53,-178,48,129,43,458,878,780,356,122
165,224,58,-195,53,141,19,453,893,819,390,156
180,248,68,-214,56,158,9,439,893,849,419,180
195,268,73,-231,61,170,-9,419,897,883,458,214
209,287,78,-248,65,183,-24,395,902,907,488,248
219,312,92,-265,63,202,-43,370,888,932,527,278
229,331,102,-280,63,217,-68,336,863,946,561,302
239,341,102,-290,68,222,-87,297,829,956,590,336
248,356,107,-302,70,231,-107,263,795,961,610,370
258,366,107,-312,75,236,-117,234,751,946,629,395
263,370,107,-317,78,239,-136,190,697,922,634,405
258,366,107,-312,75,236,-151,151,644,873,634,414
253,356,102,-305,75,229,-156,117,580,814,610,414
239,341,102,-290,68,222,-156,92,527,751,570,409
219,317,97,-268,61,207,-151,63,473,678,531,385
200,287,87,-244,56,187,-151,48,409,605,483,356
185,258,73,-222,56,165,-141,29,361,527,429,331
165,229,63,-197,51,146,-126,19,307,448,375,297
136,200,63,-168,36,131,-112,4,263,380,322,253
117,170,53,-143,31,112,-92,0,229,317,278,214
97,141,43,-119,26,92,-73,-4,185,253,229,180
78,112,34,-95,21,73,-58,-4,156,200,175,146
58,82,24,-70,17,53,-48,-4,131,151,126,112
43,58,14,-51,14,36,-29,0,97,112,97,78
34,43,9,-39,12,26,-24,0,73,68,68,48
19,9,-9,-14,14,0,-9,0,58,34,34,34
9,-4,-14,-2,12,-9,0,0,39,4,4,9
0,-14,-14,7,7,-14,14,0,29,-14,-14,-9
-4,-29,-24,17,9,-26,24,4,14,-34,-34,-24
-9,-43,-34,26,12,-39,29,4,4,-43,-43,-29
-14,-58,-43,36,14,-51,29,4,-4,-58,-63,-39
-19,-63,-43,41,12,-53,39,9,-9,-73,-68,-48
-19,-73,-53,46,17,-63,39,9,-19,-82,-68,-53
-19,-73,-53,46,17,-63,43,9,-19,-82,-73,-53
-24,-73,-48,48,12,-61,48,9,-19,-87,-78,-53
-29,-73,-43,51,7,-58,48,14,-24,-92,-87,-58
-34,-78,-43,56,4,-61,48,19,-24,-92,-87,-63
-34,-82,-48,58,7,-65,43,19,-29,-97,-87,-63
-39,-82,-43,61,2,-63,43,19,-29,-97,-87,-68
-39,-82,-43,61,2,-63,48,14,-34,-97,-87,-68
-39,-82,-43,61,2,-63,48,14,-34,-97,-82,-63
-34,-78,-43,56,4,-61,48,14,-34,-97,-82,-63
-34,-78,-43,56,4,-61,48,14,-34,-97,-82,-58
-34,-78,-43,56,4,-61,48,9,-34,-97,-82,-58
-39,-78,-39,58,0,-58,48,9,-34,-97,-82,-58
-39,-78,-39,58,0,-58,43,9,-39,-97,-82,-58
-39,-78,-39,58,0,-58,43,9,-39,-97,-82,-63
-34,-73,-39,53,2,-56,43,9,-39,-97,-82,-63
-34,-73,-39,53,2,-56,43,9,-39,-97,-82,-63
-34,-68,-34,51,0,-51,43,9,-39,-92,-87,-63
-39,-58,-19,48,-9,-39,43,9,-39,-92,-87,-63
-39,-58,-19,48,-9,-39,39,9,-34,-92,-82,-63
-39,-58,-19,48,-9,-39,34,9,-34,-92,-82,-63
-39,-58,-19,48,-9,-39,34,9,-34,-92,-78,-63
-39,-58,-19,48,-9,-39,34,9,-34,-92,-78,-63
-39,-58,-19,48,-9,-39,39,9,-29,-92,-82,-63
-39,-58,-19,48,-9,-39,43,9,-29,-92,-82,-63
-39,-53,-14,46,-12,-34,43,9,-24,-97,-87,-63
-39,-53,-14,46,-12,-34,43,9,-24,-102,-87,-63
-39,-58,-19,48,-9,-39,43,9,-24,-102,-87,-68
-39,-63,-24,51,-7,-43,43,9,-24,-102,-87,-68
-39,-63,-24,51,-7,-43,43,9,-24,-97,-87,-68
-39,-63,-24,51,-7,-43,39,9,-24,-97,-92,-68
-39,-63,-24,51,-7,-43,34,9,-24,-97,-92,-68
-39,-63,-24,51,-7,-43,29,9,-24,-97,-97,-63
-39,-63,-24,51,-7,-43,29,9,-24,-97,-92,-63
-39,-68,-29,53,-4,-48,34,9,-24,-97,-82,-63
-39,-68,-29,53,-4,-48,34,9,-24,-97,-82,-68
-39,-68,-29,53,-4,-48,34,9,-24,-97,-87,-73
-39,-73,-34,56,-2,-53,39,9,-24,-97,-92,-73
-39,-73,-34,56,-2,-53,43,9,-29,-102,-97,-73
-39,-73,-34,56,-2,-53,43,9,-34,-107,-97,-73
-39,-73,-34,56,-2,-53,43,9,-39,-112,-97,-73
-39,-73,-34,56,-2,-53,43,9,-39,-112,-97,-73
-39,-78,-39,58,0,-58,48,9,-39,-112,-97,-78
-39,-78,-39,58,0,-58,43,9,-34,-107,-102,-73
-39,-78,-39,58,0,-58,39,9,-34,-107,-102,-73
-43,-78,-34,61,-4,-56,39,9,-34,-112,-102,-73
-43,-78,-34,61,-4,-56,39,9,-39,-112,-102,-78
-43,-82,-39,63,-2,-61,43,14,-39,-117,-102,-78
-43,-82,-39,63,-2,-61,48,14,-39,-117,-102,-78
-43,-82,-39,63,-2,-61,48,14,-39,-117,-107,-78
-43,-87,-43,65,0,-65,48,19,-39,-117,-112,-73
-43,-82,-39,63,-2,-61,48,19,-43,-117,-112,-73
-43,-82,-39,63,-2,-61,48,14,-43,-122,-112,-73
-43,-82,-39,63,-2,-61,48,14,-48,-122,-112,-82
-43,-82,-39,63,-2,-61,43,14,-53,-122,-112,-87
-43,-87,-43,65,0,-65,43,14,-53,-122,-112,-87
-43,-92,-48,68,2,-70,43,19,-53,-122,-112,-87
-43,-92,-48,68,2,-70,43,14,-58,-122,-112,-87
-43,-92,-48,68,2,-70,43,9,-58,-122,-112,-87
-43,-92,-48,68,2,-70,43,9,-58,-126,-117,-87
-43,-97,-53,70,4,-75,43,9,-58,-131,-117,-87
-43,-97,-53,70,4,-75,43,9,-58,-131,-117,-92
-48,-97,-48,73,0,-73,43,9,-58,-131,-112,-97
-48,-97,-48,73,0,-73,43,9,-53,-131,-112,-97
-43,-97,-53,70,4,-75,43,4,-53,-131,-112,-97
-43,-97,-53,70,4,-75,43,4,-53,-126,-117,-97
-43,-102,-58,73,7,-80,48,9,-53,-126,-117,-97
-43,-102,-58,73,7,-80,48,9,-58,-126,-117,-97
-43,-102,-58,73,7,-80,48,9,-63,-126,-117,-97
-43,-102,-58,73,7,-80,48,9,-63,-131,-117,-97
-43,-102,-58,73,7,-80,48,9,-63,-131,-117,-92
-48,-102,-53,75,2,-78,48,14,-58,-131,-117,-92
-48,-102,-53,75,2,-78,48,19,-53,-136,-117,-92
-48,-102,-53,75,2,-78,48,19,-58,-136,-122,-92
-48,-102,-53,75,2,-78,48,19,-58,-136,-126,-92
-48,-102,-53,75,2,-78,48,19,-58,-131,-122,-92
-48,-102,-53,75,2,-78,48,19,-63,-131,-122,-92
-48,-102,-53,75,2,-78,48,14,-63,-131,-122,-92
-48,-102,-53,75,2,-78,48,9,-63,-136,-126,-92
-48,-102,-53,75,2,-78,48,14,-63,-136,-126,-92
-48,-102,-53,75,2,-78,48,14,-63,-136,-126,-92
-48,-102,-53,75,2,-78,48,14,-63,-136,-126,-92
-48,-107,-58,78,4,-82,48,14,-63,-136,-126,-92
-48,-102,-53,75,2,-78,43,14,-63,-136,-122,-92
-48,-97,-48,73,0,-73,43,14,-63,-136,-117,-97
-53,-97,-43,75,-4,-70,39,14,-58,-136,-117,-97
-58,-97,-39,78,-9,-68,39,19,-58,-136,-117,-97
-58,-97,-39,78,-9,-68,43,19,-63,-136,-117,-97
-58,-97,-39,78,-9,-68,48,19,-68,-136,-117,-97
-53,-97,-43,75,-4,-70,48,19,-68,-136,-117,-97
-48,-97,-48,73,0,-73,48,19,-68,-136,-117,-97
-48,-102,-53,75,2,-78,48,19,-68,-136,-117,-97
-48,-107,-58,78,4,-82,48,19,-68,-136,-117,-97
-48,-107,-58,78,4,-82,48,19,-68,-136,-117,-97
-48,-107,-58,78,4,-82,48,19,-68,-136,-117,-97
-48,-107,-58,78,4,-82,43,19,-68,-136,-117,-97
-48,-107,-58,78,4,-82,39,19,-68,-136,-117,-97
-48,-102,-53,75,2,-78,39,19,-68,-136,-117,-97
-48,-97,-48,73,0,-73,39,19,-68,-136,-117,-97
-48,-97,-48,73,0,-73,39,19,-68,-136,-117,-97
-48,-97,-48,73,0,-73,39,19,-68,-136,-117,-97
-48,-102,-53,75,2,-78,43,19,-68,-136,-117,-97
-48,-107,-58,78,4,-82,48,19,-68,-136,-117,-97
-48,-107,-58,78,4,-82,48,19,-68,-136,-117,-97
-48,-107,-58,78,4,-82,48,19,-68,-136,-117,-97
-48,-107,-58,78,4,-82,48,19,-68,-136,-117,-97
-48,-107,-58,78,4,-82,48,19,-68,-136,-117,-97
-48,-107,-58,78,4,-82,48,19,-68,-136,-117,-97
-48,-107,-58,78,4,-82,48,19,-68,-136,-117,-97
-48,-107,-58,78,4,-82,48,19,-68,-136,-117,-97
