I,II,III,aVR,aVL,aVF,V1,V2,V3,V4,V5,V6,
-9,-9,0,9,-4,-4,-29,-29,-39,-19,-19,-9
39,9,-29,-24,34,-9,-34,-34,-39,-24,-19,-9
87,29,-58,-58,73,-14,-39,-39,-39,-29,-19,-9
97,34,-63,-65,80,-14,-58,-39,-39,-29,-19,-9
107,39,-68,-73,87,-14,-78,-39,-39,-29,-19,-9
92,39,-53,-65,73,-7,-82,-39,-39,-29,-19,-4
78,39,-39,-58,58,0,-87,-39,-39,-29,-19,0
63,39,-24,-51,43,7,-87,-39,-39,-29,-19,0
58,39,-19,-48,39,9,-87,-39,-34,-29,-14,0
53,43,-9,-48,31,17,-87,-39,-34,-29,-9,0
68,53,-14,-61,41,19,-82,-39,-29,-24,-9,4
63,53,-9,-58,36,21,-73,-43,-29,-24,-14,4
39,43,4,-41,17,24,-63,-43,-24,-24,-14,9
34,29,-4,-31,19,12,-58,-43,-24,-24,-14,9
34,29,-4,-31,19,12,-58,-43,-24,-29,-19,4
39,29,-9,-34,24,9,-63,-43,-39,-29,-19,0
43,24,-19,-34,31,2,-68,-53,-43,-29,-19,-4
63,34,-29,-48,46,2,-63,-43,-43,-29,-19,-4
73,48,-24,-61,48,12,-63,-43,-34,-29,-14,4
107,87,-19,-97,63,34,-73,-34,-24,-29,0,24
126,136,9,-131,58,73,-82,-29,-14,-29,14,43
141,117,-24,-129,82,46,-107,-68,-29,-39,4,34
126,92,-34,-109,80,29,-112,-87,-39,-39,-4,29
112,92,-19,-102,65,36,-112,-97,-43,-48,-4,29
97,92,-4,-95,51,43,-107,-87,-43,-48,-4,34
97,82,-14,-90,56,34,-97,-63,-39,-39,-4,34
82,78,-4,-80,43,36,-78,-43,-34,-34,-4,29
68,63,-4,-65,36,29,-63,-43,-39,-34,0,24
29,53,24,-41,2,39,-53,-43,-24,-29,9,24
39,24,-14,-31,26,4,-39,-43,-24,-34,0,14
53,4,-48,-29,51,-21,-34,-39,-24,-29,0,9
48,0,-48,-24,48,-24,-24,-34,-29,-29,-9,-4
24,-14,-39,-4,31,-26,-19,-39,-39,-29,-19,-19
39,-24,-63,-7,51,-43,-19,-39,-48,-39,-39,-39
48,-19,-68,-14,58,-43,-9,-34,-48,-43,-43,-39
29,-24,-53,-2,41,-39,-4,-34,-53,-48,-48,-39
29,-19,-48,-4,39,-34,-4,-29,-53,-48,-48,-34
24,-29,-53,2,39,-41,-4,-29,-58,-48,-53,-39
9,-39,-48,14,29,-43,-4,-29,-63,-48,-53,-39
9,-43,-53,17,31,-48,-14,-34,-63,-48,-53,-39
9,-48,-58,19,34,-53,-4,-34,-58,-48,-53,-39
-4,-48,-43,26,19,-46,-4,-29,-48,-43,-48,-39
-4,-48,-43,26,19,-46,0,-29,-43,-29,-34,-34
-19,-39,-19,29,0,-29,9,-14,-39,-24,-29,-29
-29,-29,0,29,-14,-14,19,4,-39,-19,-24,-24
4,-29,-34,12,19,-31,9,-4,-39,-19,-29,-29
34,-29,-63,-2,48,-46,0,-14,-39,-19,-29,-29
19,-34,-53,7,36,-43,0,-14,-39,-19,-29,-29
9,-34,-43,12,26,-39,9,-14,-34,-9,-24,-29
-43,-39,4,41,-24,-17,19,-4,-24,0,-19,-29
-102,-39,63,70,-82,12,43,9,14,39,9,-24
-9,-4,4,7,-7,0,19,-19,73,78,73,14
82,78,-4,-80,43,36,-4,4,229,200,229,112
117,224,107,-170,4,165,-63,4,434,380,448,263
253,434,180,-344,36,307,-204,0,614,488,688,458
483,634,151,-558,165,392,-400,-73,697,483,893,658
810,844,34,-827,387,439,-683,-180,727,405,1044,858
1176,1039,-136,-1107,656,451,-1112,-361,570,92,1044,990
1366,1063,-302,-1215,834,380,-1503,-829,102,-463,741,980
1337,1127,-209,-1232,773,458,-1786,-1493,-268,-766,380,917
1073,966,-107,-1019,590,429,-1688,-1800,-575,-863,-82,624
819,849,29,-834,395,439,-1361,-1532,-497,-697,-141,483
634,780,146,-707,244,463,-1005,-1078,-302,-478,-34,458
541,585,43,-563,248,314,-732,-771,-273,-370,-68,341
439,439,0,-439,219,219,-502,-512,-200,-224,-58,234
273,322,48,-297,112,185,-317,-317,-107,-126,-48,131
131,185,53,-158,39,119,-126,-170,-53,-87,-39,58
97,82,-14,-90,56,34,-29,-53,-43,-24,-29,19
73,29,-43,-51,58,-7,4,39,-24,34,-24,-4
-4,24,29,-9,-17,26,34,82,0,43,-19,-24
-63,24,87,19,-75,56,82,112,19,39,0,-24
-43,-9,34,26,-39,12,92,122,4,29,-14,-29
-24,-24,0,24,-12,-12,82,112,-9,34,-19,-34
-24,-34,-9,29,-7,-21,82,87,-19,29,-43,-53
4,-39,-43,17,24,-41,78,58,-29,4,-58,-68
14,-43,-58,14,36,-51,87,58,-34,4,-63,-73
14,-43,-58,14,36,-51,87,58,-34,4,-63,-78
4,-34,-39,14,21,-36,97,87,-24,19,-53,-73
-9,-29,-19,19,4,-24,112,117,-9,34,-43,-68
-19,-29,-9,24,-4,-19,112,122,-4,43,-29,-58
-29,-29,0,29,-14,-14,112,126,4,53,-14,-48
-19,-34,-14,26,-2,-24,112,126,4,43,-24,-48
-14,-39,-24,26,4,-31,117,136,4,39,-29,-43
-24,-34,-9,29,-7,-21,112,136,4,43,-29,-48
-29,-34,-4,31,-12,-19,112,141,4,48,-29,-48
-43,-39,4,41,-24,-17,112,136,4,48,-29,-48
-48,-43,4,46,-26,-19,117,136,4,53,-29,-48
-43,-48,-4,46,-19,-26,122,131,4,53,-34,-48
-43,-58,-14,51,-14,-36,122,131,4,53,-34,-48
-39,-48,-9,43,-14,-29,122,131,9,53,-19,-58
-34,-39,-4,36,-14,-21,122,131,14,58,-4,-58
-29,-39,-9,34,-9,-24,122,131,14,58,-19,-58
-19,-39,-19,29,0,-29,122,131,14,58,-34,-58
0,-39,-39,19,19,-39,126,131,4,43,-34,-68
14,-39,-53,12,34,-46,126,141,0,43,-34,-73
-9,-34,-24,21,7,-29,126,151,14,58,-19,-63
-9,-29,-19,19,4,-24,126,165,29,73,-9,-53
-24,-29,-4,26,-9,-17,141,170,34,78,-9,-53
-39,-29,9,34,-24,-9,146,175,39,78,-9,-53
-39,-24,14,31,-26,-4,151,175,34,78,-9,-53
-39,-14,24,26,-31,4,151,190,34,82,-9,-53
-34,-14,19,24,-26,2,151,195,34,87,-4,-53
-34,-14,19,24,-26,2,156,209,34,87,4,-39
-43,-14,29,29,-36,7,161,219,43,97,4,-48
-43,-9,34,26,-39,12,165,214,43,97,0,-48
-39,-9,29,24,-34,9,165,214,39,97,-9,-53
-24,-4,19,14,-21,7,165,209,34,97,-24,-63
-4,-4,0,4,-2,-2,161,219,43,92,-24,-68
9,-4,-14,-2,12,-9,170,234,43,97,-24,-68
-9,0,9,4,-9,4,175,248,43,102,-19,-63
-48,4,53,21,-51,29,185,258,53,117,-9,-48
-58,14,73,21,-65,43,200,278,68,141,9,-34
-68,14,82,26,-75,48,219,297,82,156,24,-24
-68,9,78,29,-73,43,229,307,82,161,24,-29
-68,14,82,26,-75,48,229,317,92,175,29,-29
-34,29,63,2,-48,46,234,326,92,170,29,-29
-29,29,58,0,-43,43,253,346,97,180,39,-29
-29,43,73,-7,-51,58,253,361,112,185,39,-29
-24,53,78,-14,-51,65,268,375,117,200,43,-29
-29,63,92,-17,-61,78,268,380,117,204,34,-29
-39,73,112,-17,-75,92,268,390,117,209,29,-24
-43,78,122,-17,-82,100,263,405,117,214,34,-14
-43,87,131,-21,-87,109,273,414,131,229,43,-4
-29,102,131,-36,-80,117,278,414,131,234,48,-4
-24,102,126,-39,-75,114,278,419,136,244,48,-4
-24,112,136,-43,-80,124,273,434,136,244,48,-9
-24,126,151,-51,-87,139,268,444,146,258,53,0
-39,151,190,-56,-114,170,268,448,156,278,63,4
-34,175,209,-70,-122,192,253,448,156,283,63,9
-9,190,200,-90,-104,195,244,448,156,278,63,14
-9,219,229,-104,-119,224,239,448,165,278,73,29
9,229,219,-119,-104,224,209,429,156,268,58,34
48,248,200,-148,-75,224,180,414,156,268,53,39
53,253,200,-153,-73,226,156,390,141,253,43,48
43,263,219,-153,-87,241,136,370,136,248,43,53
68,273,204,-170,-68,239,97,322,122,224,43,58
78,283,204,-180,-63,244,78,292,107,214,43,58
87,287,200,-187,-56,244,53,292,102,185,34,58
107,287,180,-197,-36,234,29,273,78,161,24,58
112,278,165,-195,-26,222,-4,234,63,146,14,58
112,258,146,-185,-17,202,-14,214,48,122,14,63
122,253,131,-187,-4,192,-29,175,29,107,4,63
146,253,107,-200,19,180,-43,136,9,82,4,63
156,224,68,-190,43,146,-63,107,-9,53,-9,58
165,204,39,-185,63,122,-68,87,-19,39,-4,48
146,185,39,-165,53,112,-68,68,-29,29,-9,48
126,165,39,-146,43,102,-68,48,-39,19,-9,48
126,170,43,-148,41,107,-68,39,-29,9,-4,63
126,161,34,-143,46,97,-73,29,-24,4,4,78
131,146,14,-139,58,80,-78,-9,-29,0,-4,63
136,136,0,-136,68,68,-78,-29,-34,-4,0,53
126,117,-9,-122,68,53,-78,-39,-43,-14,0,43
141,102,-39,-122,90,31,-78,-53,-48,-24,4,39
92,87,-4,-90,48,41,-68,-53,-39,-19,14,48
63,78,14,-70,24,46,-63,-58,-29,-9,19,53
58,58,0,-58,29,29,-63,-58,-34,-19,14,48
48,39,-9,-43,29,14,-68,-63,-34,-24,14,39
63,48,-14,-56,39,17,-73,-63,-39,-24,14,34
78,48,-29,-63,53,9,-73,-63,-43,-19,14,39
73,48,-24,-61,48,12,-68,-68,-43,-19,4,39
97,48,-48,-73,73,0,-68,-78,-43,-19,4,39
87,39,-48,-63,68,-4,-68,-92,-39,-14,14,34
78,39,-39,-58,58,0,-68,-92,-29,-9,24,34
78,48,-29,-63,53,9,-58,-73,-29,-9,19,34
58,58,0,-58,29,29,-53,-53,-29,-14,19,24
82,53,-29,-68,56,12,-53,-63,-39,-19,9,34
102,53,-48,-78,75,2,-58,-78,-43,-19,4,34
112,43,-68,-78,90,-12,-58,-82,-43,-19,9,29
92,43,-48,-68,70,-2,-58,-87,-43,-19,9,29
68,43,-24,-56,46,9,-58,-87,-43,-19,9,19
29,34,4,-31,12,19,-53,-87,-39,-14,9,19
34,29,-4,-31,19,12,-53,-82,-39,-14,9,24
48,24,-24,-36,36,0,-43,-73,-34,-9,9,29
34,24,-9,-29,21,7,-39,-53,-29,-9,14,29
24,24,0,-24,12,12,-39,-34,-24,-9,19,29
58,29,-29,-43,43,0,-39,-43,-24,-9,19,24
97,34,-63,-65,80,-14,-39,-53,-24,-9,19,19
78,34,-43,-56,61,-4,-43,-58,-24,-4,19,29
68,29,-39,-48,53,-4,-43,-63,-19,0,19,39
24,29,4,-26,9,17,-19,-58,-9,9,24,34
-9,29,39,-9,-24,34,-4,-63,0,29,34,34
34,24,-9,-29,21,7,-19,-63,-14,9,19,19
78,19,-58,-48,68,-19,-34,-63,-24,0,9,4
48,19,-29,-34,39,-4,-34,-53,-19,4,14,4
43,19,-24,-31,34,-2,-29,-39,-19,14,14,9
24,19,-4,-21,14,7,-29,-48,-19,14,14,14
19,14,-4,-17,12,4,-24,-48,-14,24,14,19
34,14,-19,-24,26,-2,-29,-48,-14,9,9,14
48,9,-39,-29,43,-14,-34,-48,-14,4,4,19
48,14,-34,-31,41,-9,-34,-63,-19,4,4,19
43,19,-24,-31,34,-2,-34,-53,-19,9,9,19
29,19,-9,-24,19,4,-29,-53,-14,9,9,14
29,19,-9,-24,19,4,-24,-43,-14,14,14,4
24,14,-9,-19,17,2,-24,-34,-14,9,14,4
24,9,-14,-17,19,-2,-24,-24,-9,14,14,4
29,0,-29,-14,29,-14,-24,-34,-14,4,4,0
34,-9,-43,-12,39,-26,-29,-39,-19,4,4,0
43,-9,-53,-17,48,-31,-29,-43,-24,0,-4,-4
39,-9,-48,-14,43,-29,-29,-48,-24,0,4,-4
39,0,-39,-19,39,-19,-14,-58,-14,0,9,-4
29,4,-24,-17,26,-9,0,-48,-4,9,19,4
29,9,-19,-19,24,-4,-9,-34,-4,9,19,14
43,14,-29,-29,36,-7,-19,-24,-4,9,19,19
29,14,-14,-21,21,0,-24,-24,-9,9,9,9
-4,14,19,-4,-12,17,-29,-24,-9,9,9,9
24,-4,-29,-9,26,-17,-29,-39,-29,-4,-4,-14
29,-14,-43,-7,36,-29,-29,-48,-29,-9,-14,-14
29,-9,-39,-9,34,-24,-34,-53,-29,-9,-9,-14
29,-9,-39,-9,34,-24,-34,-53,-29,-4,-9,-14
-9,-9,0,9,-4,-4,-19,-39,-14,4,14,14
-53,-4,48,29,-51,21,-9,-9,4,19,53,43
19,0,-19,-9,19,-9,-19,-24,-4,9,24,29
82,0,-82,-41,82,-41,-29,-39,-19,0,0,14
87,0,-87,-43,87,-43,-39,-58,-24,-14,-9,4
87,0,-87,-43,87,-43,-48,-73,-39,-19,-19,-4
48,-9,-58,-19,53,-34,-48,-63,-39,-14,-9,-9
4,-19,-24,7,14,-21,-43,-53,-34,-14,0,-14
39,-19,-58,-9,48,-39,-43,-53,-34,-14,-4,-14
63,-19,-82,-21,73,-51,-43,-53,-34,-19,-4,-14
73,-9,-82,-31,78,-46,-43,-53,-34,-19,-4,-9
53,0,-53,-26,53,-26,-43,-53,-34,-14,-4,-4
43,0,-43,-21,43,-21,-43,-53,-39,-14,0,-4
29,0,-29,-14,29,-14,-39,-53,-29,-9,0,0
29,0,-29,-14,29,-14,-39,-58,-39,-9,0,0
39,0,-39,-19,39,-19,-39,-58,-39,-9,0,0
39,0,-39,-19,39,-19,-34,-58,-34,-14,0,0
34,0,-34,-17,34,-17,-29,-58,-29,-14,0,0
29,-4,-34,-12,31,-19,-39,-53,-29,-14,4,4
14,-9,-24,-2,19,-17,-29,-53,-29,-9,9,9
14,-4,-19,-4,17,-12,-29,-53,-29,-9,14,9
19,-4,-24,-7,21,-14,-29,-53,-19,-9,19,4
63,9,-53,-36,58,-21,-29,-58,-39,-9,14,14
97,19,-78,-58,87,-29,-29,-58,-29,-9,14,14
82,19,-63,-51,73,-21,-29,-58,-29,-9,9,4
43,19,-24,-31,34,-2,-24,-53,-29,-9,4,4
24,4,-19,-14,21,-7,-24,-53,-29,-14,0,4
9,-4,-14,-2,12,-9,-34,-53,-34,-19,-4,0
14,-39,-53,12,34,-46,-34,-63,-34,-24,-4,4
24,-78,-102,26,63,-90,-34,-73,-39,-29,-9,9
43,-34,-78,-4,61,-56,-24,-68,-34,-24,0,9
68,9,-58,-39,63,-24,-19,-68,-29,-19,9,9
87,24,-63,-56,75,-19,-29,-68,-29,-19,9,9
107,39,-68,-73,87,-14,-39,-68,-29,-19,9,9
107,39,-68,-73,87,-14,-58,-68,-34,-19,4,9
107,39,-68,-73,87,-14,-78,-68,-39,-19,0,9
73,29,-43,-51,58,-7,-82,-58,-39,-19,0,14
39,19,-19,-29,29,0,-87,-48,-39,-19,0,19
39,19,-19,-29,29,0,-87,-48,-39,-19,0,19
58,19,-39,-39,48,-9,-92,-58,-39,-19,0,14
78,24,-53,-51,65,-14,-97,-68,-39,-24,4,14
126,34,-92,-80,109,-29,-102,-87,-39,-24,0,14
107,39,-68,-73,87,-14,-92,-87,-39,-24,0,4
68,34,-34,-51,51,0,-82,-82,-34,-24,4,0
43,19,-24,-31,34,-2,-73,-73,-29,-14,9,14
24,19,-4,-21,14,7,-68,-63,-24,-9,9,24
34,24,-9,-29,21,7,-68,-63,-34,-19,9,24
43,24,-19,-34,31,2,-68,-73,-34,-29,9,24
63,24,-39,-43,51,-7,-68,-73,-34,-29,9,24
73,29,-43,-51,58,-7,-73,-82,-24,-29,14,34
78,39,-39,-58,58,0,-82,-73,-24,-19,19,39
68,58,-9,-63,39,24,-92,-68,-24,-9,24,43
107,68,-39,-87,73,14,-117,-87,-34,-29,14,39
117,73,-43,-95,80,14,-122,-87,-39,-39,4,39
146,78,-68,-112,107,4,-122,-102,-43,-48,14,39
175,82,-92,-129,134,-4,-117,-97,-43,-48,24,43
175,82,-92,-129,134,-4,-112,-92,-39,-39,24,43
161,87,-73,-124,117,7,-97,-92,-34,-34,24,39
156,73,-82,-114,119,-4,-82,-92,-43,-34,19,34
126,63,-63,-95,95,0,-73,-92,-34,-29,19,34
68,39,-29,-53,48,4,-48,-78,-34,-29,9,24
14,24,9,-19,2,17,-34,-58,-34,-19,9,19
48,9,-39,-29,43,-14,-29,-48,-34,-24,0,9
63,-14,-78,-24,70,-46,-29,-48,-39,-29,-9,0
39,-43,-82,2,61,-63,-29,-48,-48,-39,-24,-19
9,-58,-68,24,39,-63,-19,-43,-48,-43,-24,-19
-19,-73,-53,46,17,-63,0,-43,-48,-39,-14,-14
-29,-78,-48,53,9,-63,14,-39,-43,-29,0,-4
-4,-73,-68,39,31,-70,4,-39,-48,-39,-14,-19
9,-68,-78,29,43,-73,-4,-39,-53,-48,-24,-29
24,-68,-92,21,58,-80,-24,-39,-53,-48,-24,-29
39,-68,-107,14,73,-87,-24,-34,-48,-48,-24,-29
4,-68,-73,31,39,-70,-9,-29,-43,-43,-14,-29
-14,-68,-53,41,19,-61,9,-29,-43,-29,4,-24
4,-63,-68,29,36,-65,0,-34,-39,-29,-4,-24
29,-58,-87,14,58,-73,-9,-34,-39,-29,-14,-24
29,-58,-87,14,58,-73,-9,-43,-39,-29,-19,-29
24,-58,-82,17,53,-70,-9,-53,-39,-29,-19,-29
-14,-68,-53,41,19,-61,-4,-43,-39,-29,-19,-29
-48,-73,-24,61,-12,-48,9,-34,-34,-19,-14,-29
-29,-68,-39,48,4,-53,9,-34,-24,-19,-9,-39
-14,-58,-43,36,14,-51,24,-29,14,9,19,-43
0,-34,-34,17,17,-34,14,-24,92,78,107,14
14,39,24,-26,-4,31,4,34,268,229,287,131
78,185,107,-131,-14,146,-68,39,458,380,488,283
244,395,151,-319,46,273,-224,39,624,458,707,478
580,610,29,-595,275,319,-448,-39,683,439,893,649
1015,834,-180,-924,597,326,-761,-151,688,346,1024,819
1385,1029,-356,-1207,871,336,-1200,-336,531,34,1015,951
1581,1054,-527,-1317,1054,263,-1600,-810,63,-522,702,941
1503,1117,-385,-1310,944,366,-1854,-1459,-273,-790,375,893
1190,956,-234,-1073,712,361,-1727,-1751,-546,-854,-53,614
922,834,-87,-878,505,373,-1385,-1517,-483,-707,-112,483
722,761,39,-741,341,400,-1015,-1098,-302,-507,-4,468
595,561,-34,-578,314,263,-741,-761,-263,-385,-29,351
458,409,-48,-434,253,180,-512,-473,-180,-224,-9,244
263,302,39,-283,112,170,-326,-268,-87,-126,0,156
92,175,82,-134,4,129,-136,-112,-34,-87,9,97
73,63,-9,-68,41,26,-29,-24,-29,-24,4,34
63,0,-63,-31,63,-31,14,39,-14,34,-4,-14
34,-9,-43,-12,39,-26,24,58,-9,29,-24,-34
24,-14,-39,-4,31,-26,53,63,-9,9,-29,-34
4,-34,-39,14,21,-36,73,92,-4,9,-19,-34
-14,-34,-19,24,2,-26,73,102,0,24,0,-34
-43,-43,0,43,-21,-21,92,102,0,34,-9,-43
-43,-48,-4,46,-19,-26,107,97,0,24,-9,-48
-34,-68,-34,51,0,-51,102,92,-4,19,-14,-58
-34,-82,-48,58,7,-65,87,87,-4,14,-14,-68
-34,-82,-48,58,7,-65,87,97,-4,14,-14,-68
-39,-87,-48,63,4,-68,92,107,0,14,-14,-68
-29,-82,-53,56,12,-68,92,122,0,19,-14,-58
-19,-78,-58,48,19,-68,92,136,4,24,-14,-48
-19,-73,-53,46,17,-63,97,126,9,24,-14,-48
-24,-68,-43,46,9,-56,107,126,14,29,-9,-43
-48,-58,-9,53,-19,-34,117,122,19,39,0,-48
-68,-53,14,61,-41,-19,131,122,24,48,9,-48
-48,-48,0,48,-24,-24,131,122,24,48,9,-48
-19,-43,-24,31,2,-34,136,126,24,53,9,-48
-9,-39,-29,24,9,-34,126,122,19,43,-4,-48
-4,-39,-34,21,14,-36,112,122,14,34,-14,-48
-4,-48,-43,26,19,-46,102,122,4,24,-24,-68
-4,-58,-53,31,24,-56,92,122,-4,19,-34,-78
-9,-63,-53,36,21,-58,92,146,-4,19,-34,-78
-9,-68,-58,39,24,-63,92,170,-4,19,-34,-78
-19,-68,-48,43,14,-58,112,161,9,24,-19,-68
-34,-68,-34,51,0,-51,126,161,29,43,-4,-53
-68,-68,0,68,-34,-34,126,161,29,48,0,-53
-78,-68,9,73,-43,-29,126,165,29,53,0,-53
-68,-63,4,65,-36,-29,136,190,29,58,-4,-53
-58,-58,0,58,-29,-29,136,214,29,58,-9,-53
-39,-53,-14,46,-12,-34,141,200,24,53,-14,-53
-19,-43,-24,31,2,-34,141,200,24,53,-19,-53
-19,-43,-24,31,2,-34,141,200,24,58,-14,-53
-24,-43,-19,34,-2,-31,146,209,24,58,-4,-39
-34,-48,-14,41,-9,-31,151,224,39,68,4,-48
-34,-48,-14,41,-9,-31,156,224,43,68,9,-48
-43,-48,-4,46,-19,-26,161,229,43,68,9,-48
-43,-43,0,43,-21,-21,165,229,43,68,4,-53
-29,-43,-14,36,-7,-29,165,234,53,68,-4,-58
-19,-43,-24,31,2,-34,180,244,53,78,-14,-58
-19,-39,-19,29,0,-29,185,258,53,82,-9,-58
-39,-34,4,36,-21,-14,195,268,63,97,0,-48
-48,-24,24,36,-36,0,204,283,68,107,9,-48
-58,-24,34,41,-46,4,219,297,73,107,14,-53
-58,-29,29,43,-43,0,229,312,73,112,14,-58
-58,-24,34,41,-46,4,229,326,82,126,19,-58
-43,-9,34,26,-39,12,229,341,82,126,19,-53
-58,-9,48,34,-53,19,244,366,87,141,29,-48
-58,9,68,24,-63,39,244,380,102,146,29,-43
-53,24,78,14,-65,51,258,395,107,161,34,-39
-68,34,102,17,-85,68,273,400,122,170,43,-29
-87,43,131,21,-109,87,287,409,136,180,58,-14
-48,48,97,0,-73,73,273,424,126,180,43,-19
-4,58,63,-26,-34,61,273,434,131,190,34,-24
0,87,87,-43,-43,87,278,448,136,200,39,-24
-4,102,107,-48,-56,104,278,468,146,214,39,-24
-24,102,126,-39,-75,114,283,483,146,214,43,-19
-43,107,151,-31,-97,129,287,492,156,229,53,0
-58,122,180,-31,-119,151,287,488,165,244,63,4
-53,136,190,-41,-122,163,273,478,165,244,63,9
-43,161,204,-58,-124,183,258,468,165,244,63,9
-58,200,258,-70,-158,229,248,458,175,248,73,19
-48,209,258,-80,-153,234,224,444,170,244,73,29
-19,229,248,-104,-134,239,200,434,175,248,82,39
9,239,229,-124,-109,234,175,409,161,234,73,48
24,253,229,-139,-102,241,156,390,156,229,73,53
78,253,175,-165,-48,214,97,356,136,195,68,58
117,253,136,-185,-9,195,58,341,117,175,63,58
117,258,141,-187,-12,200,43,322,112,151,48,53
126,258,131,-192,-2,195,29,283,87,131,34,48
131,263,131,-197,0,197,-4,234,73,117,19,48
131,258,126,-195,2,192,-14,204,58,92,14,53
136,244,107,-190,14,175,-34,175,39,73,4,53
156,234,78,-195,39,156,-53,146,19,43,4,53
151,204,53,-178,48,129,-73,117,0,14,-9,48
146,185,39,-165,53,112,-78,97,-9,0,-4,39
141,165,24,-153,58,95,-82,73,-19,-9,-9,39
136,146,9,-141,63,78,-87,48,-29,-19,-9,39
136,136,0,-136,68,68,-87,19,-29,-39,-19,34
136,112,-24,-124,80,43,-92,-9,-34,-53,-24,29
126,97,-29,-112,78,34,-102,-34,-39,-58,-24,24
117,87,-29,-102,73,29,-107,-39,-43,-63,-9,24
92,87,-4,-90,48,41,-97,-39,-43,-58,4,34
92,92,0,-92,46,46,-87,-43,-39,-53,24,48
87,78,-9,-82,48,34,-82,-68,-39,-58,19,39
102,68,-34,-85,68,17,-82,-97,-39,-58,9,24
107,63,-43,-85,75,9,-87,-87,-43,-68,4,19
107,58,-48,-82,78,4,-97,-82,-43,-73,4,9
107,58,-48,-82,78,4,-97,-82,-43,-73,4,9
107,48,-58,-78,82,-4,-92,-82,-43,-68,4,19
68,43,-24,-56,46,9,-87,-78,-43,-68,4,19
58,39,-19,-48,39,9,-87,-78,-43,-68,14,19
68,29,-39,-48,53,-4,-87,-92,-43,-68,14,14
78,29,-48,-53,63,-9,-87,-92,-39,-68,14,14
87,34,-53,-61,70,-9,-82,-87,-34,-63,19,24
78,39,-39,-58,58,0,-82,-82,-29,-63,29,24
78,43,-34,-61,56,4,-63,-58,-19,-48,34,43
73,53,-19,-63,46,17,-48,-39,-4,-29,43,53
92,34,-58,-63,75,-12,-63,-53,-19,-43,29,34
82,24,-58,-53,70,-17,-78,-68,-34,-58,9,19
73,14,-58,-43,65,-21,-78,-82,-39,-63,0,9
48,-4,-53,-21,51,-29,-73,-97,-39,-63,-9,9
39,0,-39,-19,39,-19,-73,-97,-39,-63,0,14
39,4,-34,-21,36,-14,-63,-92,-34,-58,9,19
63,14,-48,-39,56,-17,-68,-87,-34,-63,9,14
92,24,-68,-58,80,-21,-78,-82,-34,-68,9,9
107,24,-82,-65,95,-29,-78,-82,-39,-68,4,4
126,24,-102,-75,114,-39,-78,-82,-43,-68,0,0
107,14,-92,-61,100,-39,-82,-82,-43,-68,0,0
97,0,-97,-48,97,-48,-82,-82,-39,-68,0,0
63,0,-63,-31,63,-31,-68,-73,-34,-63,0,4
39,0,-39,-19,39,-19,-63,-73,-29,-48,4,14
48,4,-43,-26,46,-19,-58,-68,-29,-53,4,14
58,9,-48,-34,53,-19,-53,-63,-24,-48,9,14
43,14,-29,-29,36,-7,-53,-63,-19,-43,19,9
53,19,-34,-36,43,-7,-48,-58,-19,-34,24,9
34,24,-9,-29,21,7,-48,-58,-19,-34,24,9
29,24,-4,-26,17,9,-43,-48,-14,-24,24,9
48,24,-24,-36,36,0,-43,-48,-19,-39,14,-4
68,19,-48,-43,58,-14,-43,-48,-24,-43,4,-9
63,14,-48,-39,56,-17,-43,-63,-29,-43,4,-9
53,9,-43,-31,48,-17,-43,-53,-29,-39,9,-9
24,4,-19,-14,21,-7,-39,-53,-19,-39,9,0
9,0,-9,-4,9,-4,-34,-43,-14,-34,14,4
-9,-4,4,7,-7,0,-29,-43,-14,-29,14,4
-24,-9,14,17,-19,2,-24,-43,-9,-14,14,4
-9,-9,0,9,-4,-4,-24,-43,-14,-24,4,0
4,-9,-14,2,9,-12,-29,-39,-19,-24,4,0
29,-9,-39,-9,34,-24,-34,-48,-24,-29,-4,-4
39,-9,-48,-14,43,-29,-39,-58,-24,-29,4,-4
39,-4,-43,-17,41,-24,-39,-58,-19,-29,9,-4
29,-4,-34,-12,31,-19,-39,-39,-14,-19,19,4
29,0,-29,-14,29,-14,-39,-39,-14,-19,19,4
43,4,-39,-24,41,-17,-39,-43,-14,-19,19,0
43,4,-39,-24,41,-17,-39,-43,-19,-19,9,-9
24,4,-19,-14,21,-7,-39,-43,-19,-19,9,-9
24,-4,-29,-9,26,-17,-34,-39,-29,-24,4,-14
0,-4,-4,2,2,-4,-29,-29,-19,-19,4,4
48,0,-48,-24,48,-24,-34,-34,-19,-19,9,4
97,0,-97,-48,97,-48,-34,-34,-19,-14,9,4
78,-4,-82,-36,80,-43,-29,-39,-19,-14,9,4
53,-4,-58,-24,56,-31,-29,-29,-14,-9,24,4
43,-4,-48,-19,46,-26,-29,-29,-14,-9,14,4
24,-9,-34,-7,29,-21,-29,-29,-19,-9,9,4
39,-9,-48,-14,43,-29,-29,-39,-19,-19,4,0
48,-9,-58,-19,53,-34,-29,-43,-29,-19,0,-4
48,-9,-58,-19,53,-34,-24,-48,-29,-14,0,-4
43,-9,-53,-17,48,-31,-14,-53,-24,-14,0,-4
58,-4,-63,-26,61,-34,-9,-53,-24,-14,-4,-4
63,0,-63,-31,63,-31,-4,-53,-24,-19,-4,-4
73,0,-73,-36,73,-36,-4,-43,-24,-19,0,0
53,0,-53,-26,53,-26,-4,-34,-24,-14,4,4
19,-14,-34,-2,26,-24,-9,-29,-24,-14,9,4
-19,-29,-9,24,-4,-19,-9,-24,-9,-9,9,9
-4,-29,-24,17,9,-26,-9,-29,-19,-9,0,4
19,-29,-48,4,34,-39,-9,-29,-19,-9,-9,0
48,-24,-73,-12,61,-48,-9,-34,-19,-14,-9,-4
73,-19,-92,-26,82,-56,-9,-39,-19,-14,-9,-9
78,-9,-87,-34,82,-48,-19,-34,-19,-19,-9,-9
73,0,-73,-36,73,-36,-9,-34,-19,-19,-9,-9
73,9,-63,-41,68,-26,-19,-34,-9,-19,-9,-14
78,14,-63,-46,70,-24,-29,-34,9,-19,-9,-24
68,19,-48,-43,58,-14,-39,-43,-19,-24,-19,-29
48,19,-29,-34,39,-4,-48,-48,-19,-29,-24,-43
53,29,-24,-41,39,2,-48,-73,-29,-34,-29,-53
34,39,4,-36,14,21,-43,-92,-39,-39,-34,-53
43,34,-9,-39,26,12,-43,-82,-24,-39,-34,-39
58,34,-24,-46,41,4,-53,-73,-14,-39,-34,-29
53,4,-48,-29,51,-21,-39,-39,0,-24,-9,-4
53,-19,-73,-17,63,-46,-24,-4,19,-9,9,19
48,19,-29,-34,39,-4,-9,-9,24,-9,4,4
48,58,9,-53,19,34,0,-19,29,-9,0,-9
122,58,-63,-90,92,-2,-24,-34,29,-24,-14,-9
195,58,-136,-126,165,-39,-48,-48,29,-39,-29,-9
175,73,-102,-124,139,-14,-58,-39,39,-29,-14,9
156,87,-68,-122,112,9,-68,-29,48,-19,0,29
156,92,-63,-124,109,14,-73,-29,48,-19,9,29
156,97,-58,-126,107,19,-78,-29,48,-19,19,29
185,97,-87,-141,136,4,-92,-43,43,-29,4,19
190,97,-92,-143,141,2,-102,-53,34,-29,0,9
195,97,-97,-146,146,0,-112,-63,29,-34,-9,0
185,102,-82,-143,134,9,-112,-68,19,-24,-19,-4
180,102,-78,-141,129,12,-102,-68,19,-24,-19,-4
156,92,-63,-124,109,14,-92,-63,24,-24,-14,0
151,78,-73,-114,112,2,-82,-63,24,-24,-9,4
151,78,-73,-114,112,2,-78,-63,24,-29,-9,4
151,73,-78,-112,114,-2,-68,-63,14,-24,-4,4
151,63,-87,-107,119,-12,-58,-73,14,-19,0,4
126,53,-73,-90,100,-9,-53,-63,14,-19,0,4
92,48,-43,-70,68,2,-53,-63,24,-19,4,14
126,43,-82,-85,104,-19,-63,-58,24,-19,9,19
146,48,-97,-97,122,-24,-73,-58,24,-19,14,24
175,58,-117,-117,146,-29,-97,-68,19,-24,24,24
175,63,-112,-119,143,-24,-102,-58,19,-19,34,29
170,68,-102,-119,136,-17,-102,-68,14,-24,34,34
165,73,-92,-119,129,-9,-97,-58,14,-19,34,43
165,63,-102,-114,134,-19,-97,-53,14,-14,39,53
151,58,-92,-104,122,-17,-87,-53,14,-14,43,58
170,43,-126,-107,148,-41,-73,-53,0,-14,39,53
165,34,-131,-100,148,-48,-63,-53,4,-9,39,53
97,9,-87,-53,92,-39,-39,-43,4,0,29,43
34,-4,-39,-14,36,-21,-24,-29,4,19,29,39
48,-24,-73,-12,61,-48,-14,-29,0,9,14,29
43,-53,-97,4,70,-75,-9,-39,-9,0,0,19
43,-73,-117,14,80,-95,-9,-39,-24,-9,-14,0
39,-78,-117,19,78,-97,0,-34,-29,-14,-14,0
29,-82,-112,26,70,-97,4,-24,-34,-9,-9,9
39,-78,-117,19,78,-97,4,-9,-34,0,0,24
73,-78,-151,2,112,-114,4,-19,-39,-9,-4,4
97,-78,-175,-9,136,-126,4,-29,-43,-19,-4,-9
82,-78,-161,-2,122,-119,-4,-34,-53,-19,-9,-19
68,-78,-146,4,107,-112,4,-34,-58,-19,-14,-29
24,-87,-112,31,68,-100,4,-24,-53,-19,-24,-29
-4,-97,-92,51,43,-95,9,-19,-53,-9,-24,-24
-4,-102,-97,53,46,-100,9,-14,-48,-9,-14,-14
0,-107,-107,53,53,-107,9,-4,-48,-9,-4,-4
0,-92,-92,46,46,-92,19,-4,-39,-4,0,-9
-4,-78,-73,41,34,-75,29,-4,-29,0,9,-9
-19,-82,-63,51,21,-73,29,-9,-29,0,9,-9
-29,-82,-53,56,12,-68,39,-14,-24,9,14,-9
-9,-82,-73,46,31,-78,34,-19,-34,4,0,-24
4,-78,-82,36,43,-80,43,-19,-14,29,9,-34
29,-63,-92,17,61,-78,34,-19,53,87,82,0
53,0,-53,-26,53,-26,24,34,219,229,248,92
97,126,29,-112,34,78,-43,34,400,385,429,229
244,317,73,-280,85,195,-195,29,556,468,629,409
522,546,24,-534,248,285,-400,-29,658,488,858,614
897,785,-112,-841,505,336,-692,-122,707,434,1034,819
1317,1005,-312,-1161,814,346,-1146,-263,570,122,1063,976
1561,1054,-507,-1307,1034,273,-1561,-692,122,-434,790,990
1542,1117,-424,-1329,983,346,-1873,-1429,-258,-751,424,932
1288,956,-331,-1122,810,312,-1805,-1810,-575,-863,-43,644
985,834,-151,-910,568,341,-1449,-1571,-512,-707,-102,507
751,761,9,-756,370,385,-1063,-1146,-331,-497,4,488
619,561,-58,-590,339,251,-775,-829,-292,-375,-19,380
478,409,-68,-444,273,170,-531,-561,-209,-214,0,283
326,317,-9,-322,168,153,-341,-302,-102,-107,14,195
200,204,4,-202,97,104,-146,-92,-34,-58,29,136
122,78,-43,-100,82,17,-14,9,-24,14,43,82
53,0,-53,-26,53,-26,53,87,-4,82,53,43
14,-24,-39,4,26,-31,53,92,-4,63,19,9
-4,-43,-39,24,17,-41,73,82,-9,29,0,-4
-9,-73,-63,41,26,-68,92,92,-14,24,-9,-14
-14,-82,-68,48,26,-75,92,82,-19,34,-9,-24
-53,-92,-39,73,-7,-65,97,92,-19,43,-19,-34
-63,-97,-34,80,-14,-65,97,97,-19,34,-19,-39
-24,-102,-78,63,26,-90,107,97,-24,34,-19,-39
4,-102,-107,48,56,-104,107,97,-24,34,-14,-39
-4,-97,-92,51,43,-95,107,107,-24,34,-14,-39
-19,-97,-78,58,29,-87,112,117,-19,34,-14,-39
-9,-92,-82,51,36,-87,112,122,-19,34,-14,-43
0,-87,-87,43,43,-87,112,126,-14,34,-14,-48
0,-87,-87,43,43,-87,112,126,-9,39,-9,-48
-4,-87,-82,46,39,-85,117,136,-4,48,0,-43
-39,-87,-48,63,4,-68,122,136,0,53,4,-43
-68,-92,-24,80,-21,-58,131,141,4,58,9,-39
-43,-92,-48,68,2,-70,131,141,4,58,9,-39
-9,-92,-82,51,36,-87,136,146,4,63,9,-39
4,-78,-82,36,43,-80,141,156,4,63,4,-34
14,-68,-82,26,48,-75,141,170,4,63,4,-29
-39,-82,-43,61,2,-63,141,170,9,58,4,-34
-92,-97,-4,95,-43,-51,141,170,14,58,4,-29
-68,-97,-29,82,-19,-63,141,175,14,58,4,-29
-39,-97,-58,68,9,-78,141,180,14,58,4,-29
-24,-92,-68,58,21,-80,146,170,9,53,4,-39
-14,-87,-73,51,29,-80,146,170,9,63,4,-43
-29,-87,-58,58,14,-73,141,165,4,63,4,-48
-19,-87,-68,53,24,-78,136,165,0,63,0,-53
-19,-87,-68,53,24,-78,151,170,4,68,0,-53
-19,-87,-68,53,24,-78,156,175,9,68,0,-53
-48,-82,-34,65,-7,-58,175,190,24,73,4,-39
-78,-73,4,75,-41,-34,190,219,43,82,9,-24
-78,-73,4,75,-41,-34,190,224,43,87,14,-24
-82,-73,9,78,-46,-31,195,239,43,87,24,-9
-82,-92,-9,87,-36,-51,190,239,39,87,14,-34
-73,-107,-34,90,-19,-70,185,224,24,78,0,-48
-58,-107,-48,82,-4,-78,185,219,14,78,-9,-48
-34,-102,-68,68,17,-85,185,209,4,78,-24,-53
-34,-87,-53,61,9,-70,190,219,24,78,-14,-53
-39,-73,-34,56,-2,-53,209,234,34,87,-4,-48
-34,-63,-29,48,-2,-46,214,287,43,92,4,-43
-48,-53,-4,51,-21,-29,224,336,63,107,19,-29
-48,-43,4,46,-26,-19,229,341,68,122,24,-24
-48,-43,4,46,-26,-19,239,346,73,126,24,-24
-48,-43,4,46,-26,-19,248,356,73,131,29,-29
-48,-34,14,41,-31,-9,248,366,82,146,39,-29
-39,-19,19,29,-29,0,258,390,92,146,39,-24
-58,-19,39,39,-48,9,283,424,107,161,48,-19
-68,-4,63,36,-65,29,283,429,122,165,53,-14
-73,4,78,34,-75,41,297,434,126,180,63,-9
-48,14,63,17,-56,39,297,429,131,190,63,-9
-29,24,53,2,-41,39,297,429,136,200,68,-4
-48,24,73,12,-61,48,297,439,131,204,63,-4
-63,29,92,17,-78,61,312,444,141,219,63,-4
-97,39,136,29,-117,87,317,453,146,229,68,-4
-141,34,175,53,-158,104,317,468,156,244,68,-4
-102,48,151,26,-126,100,317,502,156,234,68,-4
-63,68,131,-2,-97,100,317,531,165,239,73,9
-34,97,131,-31,-82,114,307,522,175,253,82,14
14,126,112,-70,-48,119,283,507,175,253,82,19
-4,131,136,-63,-70,134,278,497,180,258,82,24
-48,151,200,-51,-124,175,278,488,195,268,92,39
-43,161,204,-58,-124,183,248,453,180,253,78,39
-19,180,200,-80,-109,190,219,424,175,248,73,39
4,185,180,-95,-87,183,195,400,156,234,53,39
14,195,180,-104,-82,187,175,380,146,229,43,34
39,204,165,-122,-63,185,136,370,136,204,53,43
48,214,165,-131,-58,190,117,380,126,195,63,48
63,229,165,-146,-51,197,92,361,131,170,58,63
87,239,151,-163,-31,195,68,322,117,151,53,78
92,239,146,-165,-26,192,34,273,102,136,43,78
92,229,136,-161,-21,183,24,244,87,112,43,82
97,214,117,-156,-9,165,0,204,63,92,24,73
117,204,87,-161,14,146,-24,165,39,63,14,63
126,175,48,-151,39,112,-53,136,9,24,-4,53
136,156,19,-146,58,87,-68,117,-9,0,-4,39
131,136,4,-134,63,70,-73,97,-19,-9,-9,39
126,117,-9,-122,68,53,-78,78,-29,-19,-9,39
126,112,-14,-119,70,48,-73,48,-24,-29,-9,39
126,92,-34,-109,80,29,-73,19,-24,-34,-4,39
112,78,-34,-95,73,21,-73,-4,-24,-34,-4,43
97,68,-29,-82,63,19,-68,-9,-24,-34,9,53
78,63,-14,-70,46,24,-68,-19,-24,-34,9,53
82,63,-19,-73,51,21,-68,-34,-19,-34,14,58
87,48,-39,-68,63,4,-68,-43,-24,-43,9,53
112,39,-73,-75,92,-17,-73,-58,-29,-48,0,43
107,29,-78,-68,92,-24,-73,-63,-34,-58,-4,39
97,19,-78,-58,87,-29,-78,-73,-34,-63,-4,29
78,9,-68,-43,73,-29,-73,-78,-34,-63,0,24
58,-9,-68,-24,63,-39,-63,-82,-34,-58,4,29
34,-9,-43,-12,39,-26,-58,-78,-34,-58,4,29
39,-9,-48,-14,43,-29,-58,-78,-34,-58,14,29
19,-14,-34,-2,26,-24,-58,-58,-34,-53,14,29
0,-9,-9,4,4,-9,-58,-24,-29,-48,14,34
19,-4,-24,-7,21,-14,-53,-39,-29,-48,9,34
19,0,-19,-9,19,-9,-53,-53,-29,-53,9,24
78,-4,-82,-36,80,-43,-58,-53,-39,-63,4,29
131,-4,-136,-63,134,-70,-68,-58,-43,-68,4,24
136,-4,-141,-65,139,-73,-68,-58,-43,-68,9,19
112,4,-107,-58,109,-51,-68,-58,-43,-68,9,19
97,4,-92,-51,95,-43,-68,-58,-43,-68,9,9
68,-4,-73,-31,70,-39,-63,-58,-39,-63,9,9
24,-9,-34,-7,29,-21,-53,-58,-29,-53,14,19
-9,-14,-4,12,-2,-9,-34,-53,-14,-39,19,29
14,-9,-24,-2,19,-17,-29,-53,-14,-39,19,29
43,-4,-48,-19,46,-26,-29,-53,-14,-39,19,29
48,-4,-53,-21,51,-29,-29,-53,-14,-39,19,24
58,-4,-63,-26,61,-34,-29,-53,-14,-39,19,19
48,-4,-53,-21,51,-29,-39,-53,-14,-39,19,19
48,-9,-58,-19,53,-34,-43,-53,-9,-39,19,19
53,-9,-63,-21,58,-36,-34,-43,-9,-43,9,4
68,-9,-78,-29,73,-43,-34,-43,-9,-39,4,-4
58,-14,-73,-21,65,-43,-34,-43,-9,-48,4,-4
48,-19,-68,-14,58,-43,-34,-43,-4,-48,9,-4
34,-19,-53,-7,43,-36,-34,-48,-4,-43,9,-4
43,-19,-63,-12,53,-41,-29,-48,-9,-34,4,0
53,-14,-68,-19,61,-41,-29,-48,-9,-34,4,4
78,-14,-92,-31,85,-53,-24,-39,-4,-24,4,9
48,-14,-63,-17,56,-39,-19,-39,0,-29,9,0
19,-19,-39,0,29,-29,-14,-39,4,-24,14,0
4,-24,-29,9,17,-26,-14,-39,0,-24,14,0
-14,-29,-14,21,0,-21,-14,-14,0,-19,19,0
4,-24,-29,9,17,-26,-14,-14,4,-19,19,9
39,-19,-58,-9,48,-39,-14,-4,4,-14,24,14
34,-19,-53,-7,43,-36,-14,-4,0,-19,19,14
34,-19,-53,-7,43,-36,-14,-4,0,-14,14,14
19,-24,-43,2,31,-34,-14,-14,0,-24,4,9
4,-29,-34,12,19,-31,-19,-19,0,-24,4,9
19,-29,-48,4,34,-39,-19,-19,-4,-24,0,4
19,-29,-48,4,34,-39,-19,-19,-4,-19,14,4
0,-14,-14,7,7,-14,0,-29,9,-9,29,9
-29,-4,24,17,-26,9,19,-19,24,9,48,24
0,-4,-4,2,2,-4,0,-29,9,-4,34,24
43,-4,-48,-19,46,-26,-19,-43,-4,-19,19,19
63,-4,-68,-29,65,-36,-29,-43,-14,-19,4,9
63,-4,-68,-29,65,-36,-39,-43,-19,-19,0,9
68,-14,-82,-26,75,-48,-39,-34,-29,-29,-4,0
48,-14,-63,-17,56,-39,-39,-19,-19,-29,-4,14
48,-9,-58,-19,53,-34,-34,-34,-19,-29,0,9
48,-9,-58,-19,53,-34,-24,-43,-19,-24,0,4
34,-14,-48,-9,41,-31,-19,-53,-19,-24,0,4
14,-14,-29,0,21,-21,-19,-48,-14,-19,14,4
-24,-9,14,17,-19,2,-9,-14,4,-9,24,19
-73,-9,63,41,-68,26,0,19,19,0,39,34
4,-14,-19,4,12,-17,-14,-9,4,-24,19,9
78,-19,-97,-29,87,-58,-29,-34,-19,-39,0,-14
73,-19,-92,-26,82,-56,-43,-43,-34,-43,-9,-14
63,-19,-82,-21,73,-51,-53,-53,-43,-53,-19,-14
68,-14,-82,-26,75,-48,-43,-53,-34,-43,-14,-4
63,-9,-73,-26,68,-41,-34,-53,-24,-39,-4,4
58,-9,-68,-24,63,-39,-29,-48,-24,-39,4,4
24,-9,-34,-7,29,-21,-24,-43,-24,-34,14,4
9,-19,-29,4,19,-24,-24,-48,-24,-34,19,4
-9,-29,-19,19,4,-24,-19,-53,-9,-29,19,9
-9,-39,-29,24,9,-34,-24,-58,-24,-34,9,9
0,-48,-48,24,24,-48,-29,-58,-29,-39,0,9
19,-39,-58,9,39,-48,-29,-58,-29,-43,0,9
34,-29,-63,-2,48,-46,-29,-58,-29,-43,0,9
34,-29,-63,-2,48,-46,-39,-43,-29,-43,0,9
24,-29,-53,2,39,-41,-29,-34,-29,-39,0,9
0,-24,-24,12,12,-24,-24,-34,-29,-39,4,19
-19,-24,-4,21,-7,-14,-19,-34,-19,-39,9,24
-9,-19,-9,14,0,-14,-19,-48,-34,-39,4,24
-9,-19,-9,14,0,-14,-19,-58,-19,-39,4,14
0,-19,-19,9,9,-19,-19,-63,-19,-39,4,9
-14,-19,-4,17,-4,-12,-14,-63,-19,-39,4,14
9,-14,-24,2,17,-19,-14,-58,-19,-39,4,14
39,-4,-43,-17,41,-24,-24,-53,-24,-39,4,9
87,-4,-92,-41,90,-48,-43,-29,-19,-34,9,9
141,-9,-151,-65,146,-80,-63,-4,-19,-29,19,9
63,-39,-102,-12,82,-70,-39,-24,-34,-39,9,9
-9,-68,-58,39,24,-63,-19,-48,-48,-48,0,9
-24,-78,-53,51,14,-65,-9,-53,-58,-43,0,9
-39,-87,-48,63,4,-68,0,-58,-68,-39,0,9
-14,-58,-43,36,14,-51,-24,-58,-68,-29,0,9
9,-29,-39,9,24,-34,-48,-58,-68,-19,0,9
24,-24,-48,0,36,-36,-63,-58,-82,-29,0,4
39,-19,-58,-9,48,-39,-78,-58,-97,-39,0,0
39,-19,-58,-9,48,-39,-87,-63,-97,-39,0,0
29,-14,-43,-7,36,-29,-92,-63,-87,-34,4,4
24,-9,-34,-7,29,-21,-97,-68,-82,-34,14,14
19,4,-14,-12,17,-4,-92,-68,-68,-24,19,34
9,19,9,-14,0,14,-68,-63,-63,-9,19,43
-19,24,43,-2,-31,34,-43,-53,-53,4,24,58
24,9,-14,-17,19,-2,-53,-53,-53,-9,19,48
73,9,-63,-41,68,-26,-68,-53,-53,-29,9,34
73,-4,-78,-34,75,-41,-68,-58,-68,-39,0,24
73,-24,-97,-24,85,-61,-68,-73,-73,-48,-9,14
39,-24,-63,-7,51,-43,-63,-68,-73,-48,-9,14
-4,-19,-14,12,4,-17,-63,-73,-63,-48,-4,24
39,-4,-43,-17,41,-24,-68,-73,-53,-43,4,34
68,19,-48,-43,58,-14,-73,-78,-43,-39,14,43
97,34,-63,-65,80,-14,-97,-87,-43,-43,19,43
97,43,-53,-70,75,-4,-102,-78,-39,-39,24,48
97,43,-53,-70,75,-4,-102,-78,-43,-48,24,48
97,43,-53,-70,75,-4,-97,-58,-43,-48,24,53
107,24,-82,-65,95,-29,-112,-73,-43,-53,14,53
102,9,-92,-56,97,-41,-117,-92,-43,-63,4,48
102,4,-97,-53,100,-46,-92,-92,-53,-63,9,48
78,4,-73,-41,75,-34,-73,-92,-43,-58,19,53
34,-9,-43,-12,39,-26,-43,-68,-34,-53,14,43
-4,-14,-9,9,2,-12,-24,-39,-24,-39,19,39
0,-29,-29,14,14,-29,-14,-29,-24,-39,14,24
-14,-53,-39,34,12,-46,-9,-29,-29,-39,9,9
-14,-63,-48,39,17,-56,-9,-34,-43,-48,-14,-9
-19,-58,-39,39,9,-48,0,-34,-48,-53,-24,-9
-34,-82,-48,58,7,-65,0,-53,-58,-63,-34,-14
-29,-97,-68,63,19,-82,-4,-68,-63,-68,-39,-14
-19,-102,-82,61,31,-92,-4,-68,-68,-68,-43,-19
-19,-107,-87,63,34,-97,-4,-68,-73,-68,-43,-19
-19,-107,-87,63,34,-97,-14,-58,-68,-68,-39,-19
-19,-107,-87,63,34,-97,-4,-43,-58,-68,-34,-19
-14,-97,-82,56,34,-90,-4,-39,-53,-68,-34,-19
4,-87,-92,41,48,-90,0,-39,-53,-58,-24,-14
-4,-92,-87,48,41,-90,0,-43,-48,-58,-24,-19
-9,-97,-87,53,39,-92,0,-43,-48,-58,-24,-24
-9,-97,-87,53,39,-92,0,-43,-48,-58,-29,-29
-14,-97,-82,56,34,-90,0,-43,-48,-58,-29,-29
-19,-102,-82,61,31,-92,4,-34,-48,-58,-29,-29
-19,-102,-82,61,31,-92,19,-24,-43,-48,-24,-29
-43,-97,-53,70,4,-75,19,-24,-39,-43,-29,-29
-73,-87,-14,80,-29,-51,34,-19,-4,-9,-9,-24
-48,-87,-39,68,-4,-63,34,-29,43,24,39,-14
-24,-39,-14,31,-4,-26,34,14,190,141,180,53
43,97,53,-70,-4,75,-9,29,390,322,380,190
214,297,82,-256,65,190,-136,39,566,429,600,370
458,512,53,-485,202,283,-326,-24,683,468,824,575
800,736,-63,-768,431,336,-605,-122,746,434,995,780
1298,946,-351,-1122,824,297,-1088,-234,619,122,1044,936
1620,985,-634,-1302,1127,175,-1532,-634,180,-434,790,951
1581,1102,-478,-1342,1029,312,-1883,-1410,-209,-775,439,936
1307,995,-312,-1151,810,341,-1854,-1830,-536,-912,-14,692
1015,863,-151,-939,583,356,-1512,-1620,-492,-766,-97,541
790,780,-9,-785,400,385,-1141,-1224,-331,-566,-14,507
658,590,-68,-624,363,261,-834,-888,-292,-444,-39,385
517,448,-68,-483,292,190,-570,-600,-209,-283,-19,273
351,331,-19,-341,185,156,-375,-366,-107,-175,-14,180
209,195,-14,-202,112,90,-175,-180,-43,-126,-9,117
117,68,-48,-92,82,9,-34,-73,-34,-63,-4,58
34,-9,-43,-12,39,-26,43,9,-14,-4,-4,14
-4,-34,-29,19,12,-31,53,43,-4,0,-24,-4
-24,-53,-29,39,2,-41,82,63,0,-9,-29,-4
-48,-73,-24,61,-12,-48,102,92,0,-9,-29,-9
-73,-73,0,73,-36,-36,102,102,0,4,-19,-14
-63,-92,-29,78,-17,-61,102,102,0,9,-29,-29
-24,-107,-82,65,29,-95,97,97,0,-4,-29,-39
-9,-97,-87,53,39,-92,107,92,-4,-4,-34,-43
-4,-82,-78,43,36,-80,107,87,-4,-4,-34,-48
-14,-82,-68,48,26,-75,107,97,-4,0,-34,-48
-29,-87,-58,58,14,-73,112,107,0,4,-34,-48
-63,-102,-39,82,-12,-70,117,112,0,4,-34,-48
-97,-117,-19,107,-39,-68,122,117,4,4,-34,-48
-97,-126,-29,112,-34,-78,122,117,4,4,-34,-48
-102,-136,-34,119,-34,-85,126,126,4,9,-29,-43
-73,-122,-48,97,-12,-85,126,126,9,9,-24,-48
-39,-112,-73,75,17,-92,131,131,14,9,-19,-48
-39,-107,-68,73,14,-87,126,126,9,9,-19,-48
-29,-102,-73,65,21,-87,126,126,4,14,-19,-48
-9,-97,-87,53,39,-92,126,126,4,14,-29,-48
4,-97,-102,46,53,-100,122,131,4,14,-34,-48
4,-97,-102,46,53,-100,122,126,4,9,-34,-58
4,-97,-102,46,53,-100,122,122,4,9,-34,-58
-14,-97,-82,56,34,-90,131,126,9,14,-29,-53
-29,-97,-68,63,19,-82,141,131,14,19,-24,-48
-58,-97,-39,78,-9,-68,156,151,19,19,-9,-29
-92,-97,-4,95,-43,-51,165,180,29,34,4,-4
-82,-102,-19,92,-31,-61,165,180,29,34,0,-19
-48,-107,-58,78,4,-82,165,185,29,34,-9,-34
-19,-107,-87,63,34,-97,165,180,19,29,-14,-39
9,-107,-117,48,63,-112,156,175,9,19,-19,-43
0,-107,-107,53,53,-107,161,175,9,19,-19,-43
-9,-102,-92,56,41,-97,161,190,14,24,-19,-43
-39,-102,-63,70,12,-82,165,195,19,34,-14,-43
-73,-102,-29,87,-21,-65,175,209,24,39,-4,-29
-92,-112,-19,102,-36,-65,185,224,34,48,-4,-39
-102,-117,-14,109,-43,-65,195,224,34,48,-9,-39
-78,-117,-39,97,-19,-78,195,229,29,48,-9,-39
-43,-112,-68,78,12,-90,195,229,24,48,-14,-43
-43,-112,-68,78,12,-90,190,239,34,48,-14,-48
-48,-112,-63,80,7,-87,200,253,34,58,-14,-48
-48,-107,-58,78,4,-82,204,268,39,63,-9,-48
-68,-102,-34,85,-17,-68,214,278,53,78,0,-39
-68,-92,-24,80,-21,-58,224,292,58,87,4,-34
-68,-92,-24,80,-21,-58,239,307,63,87,4,-34
-68,-92,-24,80,-21,-58,253,317,63,97,4,-39
-68,-82,-14,75,-26,-48,258,326,73,117,9,-39
-43,-58,-14,51,-14,-36,263,346,78,117,14,-34
-48,-48,0,48,-24,-24,283,375,87,131,29,-29
-43,-34,9,39,-26,-12,283,390,97,131,29,-29
-34,-24,9,29,-21,-7,297,405,97,141,34,-29
-29,-19,9,24,-19,-4,297,395,102,151,24,-34
-29,-14,14,21,-21,0,297,390,107,161,19,-34
-48,-9,39,29,-43,14,302,419,107,165,24,-24
-63,0,63,31,-63,31,322,444,122,180,34,-14
-68,14,82,26,-75,48,326,458,131,190,48,-9
-82,14,97,34,-90,56,326,478,146,204,58,-4
-73,34,107,19,-90,70,326,492,146,204,58,-4
-63,58,122,2,-92,90,326,502,156,219,63,9
-58,82,141,-12,-100,112,326,502,165,234,73,14
-34,107,141,-36,-87,124,312,497,165,234,73,19
-24,107,131,-41,-78,119,297,488,165,229,73,19
-39,122,161,-41,-100,141,287,478,175,229,82,29
-29,131,161,-51,-95,146,258,453,161,219,68,29
0,151,151,-75,-75,151,229,434,156,219,63,29
9,170,161,-90,-75,165,214,424,151,214,63,53
4,195,190,-100,-92,192,204,419,156,219,73,73
29,185,156,-107,-63,170,151,380,136,185,63,68
39,175,136,-107,-48,156,117,361,117,165,53,58
73,180,107,-126,-17,143,87,322,102,122,34,48
117,180,63,-148,26,122,58,263,68,82,14,39
122,180,58,-151,31,119,24,234,53,78,0,39
122,170,48,-146,36,109,14,224,39,63,-4,43
117,161,43,-139,36,102,4,185,24,53,-14,43
126,156,29,-141,48,92,-4,146,9,34,-14,43
126,131,4,-129,61,68,-24,126,-9,4,-29,43
126,117,-9,-122,68,53,-29,117,-19,-9,-24,39
126,102,-24,-114,75,39,-39,97,-29,-19,-29,39
126,87,-39,-107,82,24,-48,78,-39,-29,-29,39
126,82,-43,-104,85,19,-48,48,-39,-43,-29,43
126,63,-63,-95,95,0,-53,19,-43,-53,-24,48
122,43,-78,-82,100,-17,-53,-9,-43,-58,-24,43
117,29,-87,-73,102,-29,-48,-19,-43,-63,-9,43
107,24,-82,-65,95,-29,-48,-29,-43,-63,-9,34
122,24,-97,-73,109,-36,-48,-43,-39,-63,-4,29
87,4,-82,-46,85,-39,-48,-39,-39,-68,0,29
73,-9,-82,-31,78,-46,-53,-39,-39,-68,0,24
68,-29,-97,-19,82,-63,-53,-48,-48,-82,-4,24
58,-48,-107,-4,82,-78,-58,-63,-53,-92,-4,19
63,-39,-102,-12,82,-70,-53,-63,-53,-92,-4,24
68,-39,-107,-14,87,-73,-43,-63,-53,-87,-4,39
53,-29,-82,-12,68,-56,-39,-58,-43,-87,-4,39
68,-19,-87,-24,78,-53,-39,-58,-34,-87,4,39
87,-29,-117,-29,102,-73,-39,-78,-43,-87,0,29
107,-29,-136,-39,122,-82,-39,-82,-48,-87,-4,24
92,-39,-131,-26,112,-85,-34,-87,-53,-92,-14,14
58,-48,-107,-4,82,-78,-34,-92,-58,-102,-19,-4
53,-63,-117,4,85,-90,-34,-87,-63,-102,-24,4
43,-73,-117,14,80,-95,-39,-87,-63,-97,-24,4
48,-73,-122,12,85,-97,-34,-68,-53,-92,-9,9
24,-63,-87,19,56,-75,-29,-48,-43,-87,0,19
39,-53,-92,7,65,-73,-29,-48,-43,-87,0,9
39,-53,-92,7,65,-73,-24,-48,-39,-82,0,9
63,-48,-112,-7,87,-80,-29,-53,-43,-82,0,9
97,-43,-141,-26,119,-92,-24,-53,-43,-78,0,9
82,-43,-126,-19,104,-85,-19,-53,-43,-78,0,9
73,-43,-117,-14,95,-80,-19,-53,-43,-78,0,9
63,-48,-112,-7,87,-80,-14,-53,-43,-73,0,9
58,-53,-112,-2,85,-82,-9,-53,-43,-68,0,9
58,-53,-112,-2,85,-82,-14,-53,-43,-68,0,9
68,-58,-126,-4,97,-92,-14,-53,-39,-68,0,9
53,-58,-112,2,82,-85,-4,-34,-39,-68,-4,4
48,-58,-107,4,78,-82,-4,-24,-39,-58,-4,4
43,-58,-102,7,73,-80,-4,-34,-39,-68,-4,4
39,-58,-97,9,68,-78,-4,-43,-34,-68,0,4
24,-58,-82,17,53,-70,-4,-63,-29,-68,4,4
34,-58,-92,12,63,-75,0,-78,-29,-63,4,9
34,-53,-87,9,61,-70,0,-58,-29,-63,4,9
48,-53,-102,2,75,-78,4,-29,-24,-53,4,9
48,-48,-97,0,73,-73,4,-14,-24,-63,0,0
48,-48,-97,0,73,-73,4,0,-24,-63,-4,0
43,-53,-97,4,70,-75,0,-24,-29,-63,-9,0
34,-58,-92,12,63,-75,-4,-24,-29,-58,-9,0
4,-63,-68,29,36,-65,0,-34,-19,-58,-9,4
-9,-68,-58,39,24,-63,4,-34,-14,-53,-4,4
-4,-68,-63,36,29,-65,4,-34,-14,-58,-4,4
4,-68,-73,31,39,-70,4,-34,-9,-53,-4,4
29,-68,-97,19,63,-82,0,-34,-14,-63,-14,-4
53,-68,-122,7,87,-95,-9,-29,-19,-63,-14,-9
58,-68,-126,4,92,-97,-9,-29,-24,-68,-24,-14
48,-68,-117,9,82,-92,-9,-29,-24,-68,-14,-14
48,-58,-107,4,78,-82,-4,-34,-14,-63,-4,-9
39,-53,-92,7,65,-73,0,-19,-4,-48,9,4
39,-48,-87,4,63,-68,0,-9,-4,-48,9,9
53,-43,-97,-4,75,-70,0,-4,-4,-48,9,9
53,-43,-97,-4,75,-70,0,-24,-9,-48,0,0
34,-43,-78,4,56,-61,0,-43,-9,-48,0,0
48,-53,-102,2,75,-78,0,-48,-24,-58,-14,-19
39,-53,-92,7,65,-73,0,-48,-19,-58,-24,-14
29,-53,-82,12,56,-68,-4,-48,-19,-58,-19,-14
19,-58,-78,19,48,-68,-4,-43,-19,-53,-19,-14
-9,-63,-53,36,21,-58,0,-43,-9,-53,-4,-14
-43,-63,-19,53,-12,-41,0,-29,4,-48,24,-14
19,-58,-78,19,48,-68,0,-34,-9,-53,-4,-19
73,-58,-131,-7,102,-95,0,-39,-29,-58,-29,-24
78,-53,-131,-12,104,-92,-14,-48,-29,-68,-29,-24
78,-48,-126,-14,102,-87,-29,-53,-39,-68,-29,-24
58,-39,-97,-9,78,-68,-19,-39,-34,-53,-4,-14
34,-29,-63,-2,48,-46,-4,-24,-24,-43,19,-4
29,-39,-68,4,48,-53,-4,-34,-24,-43,4,-4
14,-48,-63,17,39,-56,-4,-43,-24,-48,-4,-4
39,-48,-87,4,63,-68,-4,-48,-29,-53,-9,-4
34,-48,-82,7,58,-65,-4,-53,-34,-53,-14,-4
34,-43,-78,4,56,-61,-4,-53,-34,-53,-9,-4
29,-39,-68,4,48,-53,0,-53,-19,-48,-9,0
34,-39,-73,2,53,-56,-9,-39,-29,-48,-9,0
48,-39,-87,-4,68,-63,-19,-19,-29,-48,-9,0
53,-39,-92,-7,73,-65,-19,-29,-29,-53,-14,-4
53,-39,-92,-7,73,-65,-19,-39,-29,-53,-19,-9
53,-39,-92,-7,73,-65,-29,-39,-29,-58,-19,-9
43,-39,-82,-2,63,-61,-19,-43,-29,-58,-19,-9
53,-34,-87,-9,70,-61,-19,-43,-29,-58,-19,-4
68,-34,-102,-17,85,-68,-19,-43,-19,-58,-19,-4
58,-29,-87,-14,73,-58,-14,-39,-39,-53,-19,-4
39,-29,-68,-4,53,-48,-9,-29,-29,-48,-14,-14
19,-34,-53,7,36,-43,-9,-34,-29,-48,-14,-19
-24,-39,-14,31,-4,-26,-4,-34,-29,-48,-14,-14
14,-48,-63,17,39,-56,-4,-48,-34,-53,-19,-19
58,-53,-112,-2,85,-82,-14,-63,-43,-58,-24,-29
68,-43,-112,-12,90,-78,-34,-58,-34,-53,-14,-19
82,-39,-122,-21,102,-80,-53,-53,-29,-48,-9,-9
24,-58,-82,17,53,-70,-14,-48,-34,-48,-14,-9
-29,-78,-48,53,9,-63,19,-48,-39,-48,-19,-9
-9,-68,-58,39,24,-63,0,-48,-39,-48,-19,-19
9,-58,-68,24,39,-63,-19,-48,-39,-48,-19,-29
29,-24,-53,-2,41,-39,-24,-43,-19,-29,-4,4
48,9,-39,-29,43,-14,-29,-39,0,-9,9,39
63,9,-53,-36,58,-21,-48,-29,-9,-24,0,24
78,9,-68,-43,73,-29,-68,-19,-19,-39,-9,9
97,4,-92,-51,95,-43,-73,-39,-29,-43,-14,4
117,0,-117,-58,117,-58,-78,-58,-39,-48,-19,0
112,4,-107,-58,109,-51,-78,-68,-39,-48,-14,0
97,14,-82,-56,90,-34,-73,-63,-29,-34,0,4
82,29,-53,-56,68,-12,-68,-58,-24,-24,9,14
68,43,-24,-56,46,9,-53,-39,-19,-14,29,24
58,43,-14,-51,36,14,-43,-24,-14,-14,24,29
53,29,-24,-41,39,2,-39,-14,-14,-14,14,29
63,19,-43,-41,53,-12,-43,-29,-19,-34,0,14
73,4,-68,-39,70,-31,-48,-43,-34,-48,-9,4
73,-9,-82,-31,78,-46,-53,-68,-39,-48,-14,0
68,-14,-82,-26,75,-48,-53,-73,-43,-48,-19,-4
53,-9,-63,-21,58,-36,-53,-73,-34,-48,-14,4
87,0,-87,-43,87,-43,-63,-73,-34,-48,-9,9
122,48,-73,-85,97,-12,-63,-58,-19,-34,9,29
165,87,-78,-126,122,4,-78,-58,-9,-29,24,43
165,92,-73,-129,119,9,-82,-58,-9,-29,24,48
165,92,-73,-129,119,9,-82,-68,-14,-39,24,48
146,58,-87,-102,117,-14,-78,-73,-24,-48,19,48
126,14,-112,-70,119,-48,-78,-82,-34,-53,14,43
92,4,-87,-48,90,-41,-68,-82,-34,-53,14,34
73,-14,-87,-29,80,-51,-53,-82,-43,-53,9,24
58,-24,-82,-17,70,-53,-43,-82,-34,-48,9,19
43,-39,-82,-2,63,-61,-19,-73,-34,-48,0,4
34,-43,-78,4,56,-61,-9,-58,-34,-39,-4,0
39,-58,-97,9,68,-78,-4,-48,-34,-39,-14,-9
4,-78,-82,36,43,-80,0,-34,-34,-39,-19,-9
-4,-92,-87,48,41,-90,0,-19,-39,-48,-34,-19
-24,-97,-73,61,24,-85,19,-14,-39,-53,-34,-9
-58,-112,-53,85,-2,-82,34,-14,-43,-58,-39,-4
-4,-117,-112,61,53,-114,24,-19,-48,-63,-39,-19
58,-117,-175,29,117,-146,14,-29,-58,-68,-43,-39
58,-117,-175,29,117,-146,14,-29,-63,-68,-43,-39
58,-117,-175,29,117,-146,4,-34,-63,-68,-43,-39
19,-107,-126,43,73,-117,29,-34,-39,-48,-24,-24
-34,-97,-63,65,14,-80,43,-29,-14,-29,-4,-9
14,-97,-112,41,63,-104,39,-39,-29,-39,-19,-19
68,-92,-161,12,114,-126,29,-48,-39,-58,-43,-34
48,-92,-141,21,95,-117,29,-34,-39,-58,-34,-34
19,-97,-117,39,68,-107,29,-24,-39,-58,-29,-39
-14,-107,-92,61,39,-100,29,-14,-39,-53,-29,-29
-48,-122,-73,85,12,-97,29,-4,-39,-48,-29,-19
-34,-122,-87,78,26,-104,39,-4,-34,-39,-24,-19
-29,-117,-87,73,29,-102,39,-4,-24,-29,-19,-19
-19,-92,-73,56,26,-82,48,-9,29,14,24,-9
29,-53,-82,12,56,-68,34,-19,117,78,117,34
53,29,-24,-41,39,2,14,19,287,219,287,131
131,185,53,-158,39,119,-68,-4,468,370,488,283
253,385,131,-319,61,258,-200,-24,639,448,727,502
458,590,131,-524,163,361,-395,-107,732,439,946,717
819,800,-19,-810,419,390,-702,-229,722,336,1063,893
1220,980,-239,-1100,729,370,-1141,-419,531,4,1024,1010
1444,1019,-424,-1232,934,297,-1527,-873,63,-551,702,985
1371,1093,-278,-1232,824,407,-1766,-1507,-283,-824,356,912
1068,907,-161,-988,614,373,-1639,-1771,-556,-868,-82,610
810,756,-53,-783,431,351,-1298,-1488,-483,-697,-141,458
619,653,34,-636,292,344,-927,-1049,-302,-507,-34,439
512,448,-63,-480,287,192,-653,-732,-263,-395,-58,322
390,312,-78,-351,234,117,-444,-463,-190,-234,-39,214
224,204,-19,-214,122,92,-278,-248,-107,-136,-29,126
112,97,-14,-104,63,41,-87,-82,-39,-102,-14,78
82,4,-78,-43,80,-36,19,9,-14,-43,-4,34
43,-53,-97,4,70,-75,58,63,4,14,-4,-4
14,-68,-82,26,48,-75,63,68,9,4,-24,-24
14,-82,-97,34,56,-90,92,68,0,-19,-34,-24
34,-102,-136,34,85,-119,112,82,-9,-19,-39,-29
4,-107,-112,51,58,-109,112,82,-9,-9,-29,-34
-43,-122,-78,82,17,-100,117,82,-9,-4,-39,-43
-34,-136,-102,85,34,-119,117,87,-9,-14,-39,-48
-24,-151,-126,87,51,-139,126,97,-14,-14,-43,-53
-24,-151,-126,87,51,-139,126,97,-9,-9,-43,-53
-34,-151,-117,92,41,-134,126,107,-4,-4,-43,-48
-53,-151,-97,102,21,-124,136,117,0,0,-34,-48
-48,-146,-97,97,24,-122,141,122,0,4,-24,-48
-39,-136,-97,87,29,-117,141,126,4,4,-24,-48
-39,-126,-87,82,24,-107,141,126,4,4,-24,-48
-29,-136,-107,82,39,-122,141,131,0,4,-29,-48
-24,-141,-117,82,46,-129,136,126,0,4,-34,-53
0,-146,-146,73,73,-146,131,122,-4,0,-29,-58
29,-151,-180,61,104,-165,122,112,-14,-9,-29,-68
-29,-151,-122,90,46,-136,136,151,9,9,-9,-48
-92,-146,-53,119,-19,-100,151,185,34,24,4,-29
-48,-146,-97,97,24,-122,151,175,24,24,-4,-29
-4,-146,-141,75,68,-143,151,161,14,19,-14,-39
-24,-146,-122,85,48,-134,151,151,14,14,-24,-39
-48,-146,-97,97,24,-122,151,146,14,9,-34,-39
-48,-146,-97,97,24,-122,156,151,14,9,-24,-39
-43,-146,-102,95,29,-124,165,151,14,9,-14,-39
-29,-146,-117,87,43,-131,165,161,19,24,-9,-34
-29,-146,-117,87,43,-131,165,161,19,24,0,-34
-34,-146,-112,90,39,-129,165,180,19,29,0,-34
-48,-146,-97,97,24,-122,180,200,24,39,0,-34
-48,-156,-107,102,29,-131,175,190,29,39,-4,-39
-48,-161,-112,104,31,-136,170,175,29,39,-9,-43
-34,-151,-117,92,41,-134,170,185,29,39,-14,-48
-19,-151,-131,85,56,-141,170,185,24,39,-14,-53
-24,-136,-112,80,43,-124,175,200,24,39,-4,-39
-34,-126,-92,80,29,-109,180,214,34,48,-4,-48
-34,-126,-92,80,29,-109,185,229,34,53,-9,-48
-29,-126,-97,78,34,-112,185,248,34,58,-9,-48
-14,-122,-107,68,46,-114,185,248,34,58,-14,-53
-14,-122,-107,68,46,-114,185,258,43,58,-14,-58
-24,-126,-102,75,39,-114,200,258,43,68,-14,-53
-29,-126,-97,78,34,-112,204,258,43,73,-9,-48
-48,-122,-73,85,12,-97,214,268,53,87,0,-34
-48,-112,-63,80,7,-87,224,283,58,97,4,-24
-29,-112,-82,70,26,-97,239,302,63,97,14,-19
-9,-112,-102,61,46,-107,248,317,63,102,24,-19
-29,-107,-78,68,24,-92,248,326,73,122,29,-19
-34,-97,-63,65,14,-80,253,341,78,126,29,-14
-48,-97,-48,73,0,-73,273,366,87,141,39,-9
-48,-82,-34,65,-7,-58,273,380,102,146,39,-9
-24,-63,-39,43,7,-51,287,385,102,151,39,-9
0,-43,-43,21,21,-43,287,380,102,151,34,-9
-14,-43,-29,29,7,-36,287,390,107,161,24,-14
-34,-48,-14,41,-9,-31,287,405,107,165,14,-14
-58,-39,19,48,-39,-9,302,424,131,185,43,4
-87,-24,63,56,-75,19,307,444,146,200,68,14
-92,-19,73,56,-82,26,307,444,156,214,68,14
-73,0,73,36,-73,36,307,444,156,214,68,14
-29,34,63,-2,-46,48,302,448,161,224,68,29
4,73,68,-39,-31,70,297,444,165,234,73,34
24,87,63,-56,-19,75,273,439,156,229,63,34
34,82,48,-58,-7,65,248,429,146,219,53,29
-14,82,97,-34,-56,90,248,424,156,219,63,39
-29,73,102,-21,-65,87,229,405,141,204,48,39
9,107,97,-58,-43,102,214,395,146,200,43,39
24,131,107,-78,-41,119,204,380,141,185,34,48
53,146,92,-100,-19,119,165,361,126,180,29,43
107,156,48,-131,29,102,107,336,107,156,24,43
102,165,63,-134,19,114,102,312,97,151,24,48
97,170,73,-134,12,122,92,273,92,131,14,48
97,170,73,-134,12,122,68,263,78,117,19,68
82,170,87,-126,-2,129,34,253,73,107,24,87
82,156,73,-119,4,114,24,234,58,82,24,92
87,136,48,-112,19,92,4,195,39,63,14,92
141,126,-14,-134,78,56,-14,131,4,19,9,82
175,97,-78,-136,126,9,-34,78,-29,-24,-14,68
175,82,-92,-129,134,-4,-39,68,-29,-29,-14,58
170,68,-102,-119,136,-17,-43,58,-29,-29,-19,58
146,48,-97,-97,122,-24,-43,43,-34,-34,-14,58
126,43,-82,-85,104,-19,-39,19,-29,-43,-14,58
122,19,-102,-70,112,-41,-43,0,-34,-53,-14,58
107,0,-107,-53,107,-53,-43,-14,-39,-58,-14,53
97,-9,-107,-43,102,-58,-39,-14,-39,-58,4,58
87,-14,-102,-36,95,-58,-39,-19,-34,-53,9,63
97,-9,-107,-43,102,-58,-34,-34,-24,-48,14,78
73,-19,-92,-26,82,-56,-24,-39,-19,-48,19,87
73,-24,-97,-24,85,-61,-24,-58,-19,-48,19,82
68,-29,-97,-19,82,-63,-24,-68,-24,-58,14,78
78,-39,-117,-19,97,-78,-29,-73,-29,-68,14,58
97,-39,-136,-29,117,-87,-29,-73,-34,-73,14,48
97,-43,-141,-26,119,-92,-24,-68,-34,-68,14,58
78,-39,-117,-19,97,-78,-19,-58,-34,-68,14,58
78,-39,-117,-19,97,-78,-19,-58,-34,-68,24,58
68,-48,-117,-9,92,-82,-19,-73,-34,-68,24,53
43,-53,-97,4,70,-75,-19,-73,-29,-63,24,53
19,-58,-78,19,48,-68,-14,-68,-29,-58,19,53
14,-58,-73,21,43,-65,-9,-63,-29,-63,19,34
43,-63,-107,9,75,-85,-4,-58,-34,-63,14,34
53,-63,-117,4,85,-90,-9,-53,-34,-58,14,43
73,-63,-136,-4,104,-100,-9,-48,-34,-58,19,48
68,-48,-117,-9,92,-82,-9,-48,-34,-58,19,53
68,-43,-112,-12,90,-78,-9,-48,-34,-58,19,48
68,-53,-122,-7,95,-87,-9,-48,-29,-58,19,48
78,-58,-136,-9,107,-97,-14,-48,-29,-63,19,53
48,-63,-112,7,80,-87,-4,-43,-24,-58,19,58
19,-63,-82,21,51,-73,0,-43,-24,-58,19,58
34,-63,-97,14,65,-80,0,-43,-24,-53,19,53
48,-63,-112,7,80,-87,0,-43,-24,-48,19,43
73,-58,-131,-7,102,-95,0,-43,-24,-48,19,34
78,-53,-131,-12,104,-92,-4,-43,-24,-48,19,29
63,-58,-122,-2,92,-90,-4,-48,-19,-48,19,29
34,-58,-92,12,63,-75,4,-43,-19,-48,14,24
29,-58,-87,14,58,-73,4,-43,-19,-39,9,24
29,-58,-87,14,58,-73,4,-43,-19,-48,4,24
34,-58,-92,12,63,-75,4,-29,-14,-48,9,24
24,-58,-82,17,53,-70,4,-14,-9,-43,14,24
43,-34,-78,-4,61,-56,9,-9,-4,-24,24,39
53,-4,-58,-24,56,-31,9,-9,0,-14,34,48
58,-19,-78,-19,68,-48,14,-4,4,-4,34,48
48,-34,-82,-7,65,-58,14,-9,4,-14,29,39
43,-43,-87,0,65,-65,9,-9,0,-24,14,34
34,-53,-87,9,61,-70,4,-24,-9,-34,4,29
24,-58,-82,17,53,-70,4,-14,-9,-29,9,29
9,-58,-68,24,39,-63,9,-14,-4,-29,9,34
9,-58,-68,24,39,-63,14,-19,-4,-24,14,34
4,-58,-63,26,34,-61,14,-34,-4,-24,14,34
4,-58,-63,26,34,-61,14,-24,0,-14,19,34
9,-58,-68,24,39,-63,14,-14,0,-24,14,29
19,-58,-78,19,48,-68,4,-9,-4,-24,14,24
39,-58,-97,9,68,-78,0,-9,-14,-29,4,14
39,-58,-97,9,68,-78,-4,-14,-19,-34,0,4
39,-53,-92,7,65,-73,-9,-29,-24,-39,-14,-4
19,-53,-73,17,46,-63,-9,-19,-24,-29,-9,4
9,-53,-63,21,36,-58,-9,-19,-24,-29,-9,4
0,-53,-53,26,26,-53,9,-14,-9,-19,14,14
-24,-53,-29,39,2,-41,29,-4,0,-9,29,19
4,-48,-53,21,29,-51,19,-4,0,-9,19,19
68,-53,-122,-7,95,-87,9,-9,-9,-19,4,9
58,-53,-112,-2,85,-82,9,-24,-9,-24,0,19
58,-48,-107,-4,82,-78,4,-43,-19,-29,0,14
34,-48,-82,7,58,-65,4,-43,-19,-24,0,14
0,-53,-53,26,26,-53,9,-43,-19,-24,0,14
14,-53,-68,19,41,-61,0,-29,-14,-24,14,14
68,-48,-117,-9,92,-82,-9,-29,-14,-29,4,14
63,-48,-112,-7,87,-80,-9,-29,-19,-29,0,14
48,-48,-97,0,73,-73,-14,-39,-19,-39,0,14
19,-48,-68,14,43,-58,0,-29,-9,-34,14,29
-14,-48,-34,31,9,-41,19,-19,9,-24,29,43
9,-39,-48,14,29,-43,9,-24,4,-24,19,34
53,-29,-82,-12,68,-56,-4,-24,-4,-24,4,24
82,-29,-112,-26,97,-70,-19,-29,-14,-34,0,14
122,-29,-151,-46,136,-90,-34,-29,-24,-39,-4,4
63,-29,-92,-17,78,-61,-24,-24,-24,-34,-4,4
24,-29,-53,2,39,-41,-14,-24,-24,-34,0,4
29,-29,-58,0,43,-43,-4,-34,-4,-29,0,9
39,-29,-68,-4,53,-48,0,-48,-9,-29,0,9
48,-29,-78,-9,63,-53,0,-48,-9,-29,0,9
53,-29,-82,-12,68,-56,0,-48,-9,-34,0,9
48,-29,-78,-9,63,-53,-4,-43,-9,-34,0,14
43,-29,-73,-7,58,-51,-19,-34,-9,-34,0,19
34,-29,-63,-2,48,-46,-9,-34,-9,-29,0,19
34,-24,-58,-4,46,-41,-9,-34,-9,-29,0,19
29,-29,-58,0,43,-43,-9,-39,0,-29,0,14
29,-29,-58,0,43,-43,-9,-48,-19,-29,-4,14
39,-29,-68,-4,53,-48,-4,-48,-9,-29,0,4
43,-29,-73,-7,58,-51,0,-53,-9,-29,4,4
14,-24,-39,4,26,-31,4,-53,-9,-29,4,14
24,-24,-48,0,36,-36,4,-53,-9,-29,4,14
39,-14,-53,-12,46,-34,-4,-53,-14,-24,4,14
68,9,-58,-39,63,-24,-34,-39,0,-4,14,19
14,-39,-53,12,34,-46,-9,-48,-9,-14,4,0
-39,-87,-48,63,4,-68,9,-58,-19,-29,0,-19
0,-53,-53,26,26,-53,0,-53,-14,-29,0,-4
39,-19,-58,-9,48,-39,-9,-48,-9,-29,0,9
53,-9,-63,-21,58,-36,-19,-43,-4,-29,4,9
68,0,-68,-34,68,-34,-29,-39,0,-29,9,9
68,0,-68,-34,68,-34,-48,-39,0,-29,9,9
68,0,-68,-34,68,-34,-68,-39,0,-29,9,9
68,0,-68,-34,68,-34,-78,-48,0,-29,9,9
68,0,-68,-34,68,-34,-87,-58,0,-29,9,9
43,4,-39,-24,41,-17,-78,-48,4,-24,29,24
43,14,-29,-29,36,-7,-68,-43,9,-14,34,34
43,24,-19,-34,31,2,-63,-39,19,-4,39,43
78,34,-43,-56,61,-4,-53,-39,19,-4,29,43
97,43,-53,-70,75,-4,-48,-39,19,-4,29,39
122,39,-82,-80,102,-21,-48,-43,14,-4,24,29
82,39,-43,-61,63,-2,-48,-43,14,-9,19,24
43,34,-9,-39,26,12,-48,-43,4,-9,19,24
43,24,-19,-34,31,2,-48,-34,14,0,24,39
39,24,-14,-31,26,4,-43,-4,24,9,29,53
39,29,-9,-34,24,9,-43,-14,24,0,34,53
87,39,-48,-63,68,-4,-53,-24,14,-9,39,48
107,53,-53,-80,80,0,-63,-43,14,-9,34,48
136,58,-78,-97,107,-9,-87,-78,9,-19,24,43
136,63,-73,-100,104,-4,-92,-78,9,-19,24,48
136,63,-73,-100,104,-4,-92,-87,4,-29,24,48
131,68,-63,-100,97,2,-87,-73,4,-29,24,53
126,63,-63,-95,95,0,-87,-63,4,-24,24,53
112,58,-53,-85,82,2,-78,-63,4,-24,29,48
112,43,-68,-78,90,-12,-63,-63,-4,-24,29,43
112,34,-78,-73,95,-21,-53,-78,0,-24,29,43
112,19,-92,-65,102,-36,-29,-82,-4,-29,19,34
73,14,-58,-43,65,-21,-14,-68,-4,-19,19,39
48,0,-48,-24,48,-24,-4,-58,-4,-19,14,39
24,-24,-48,0,36,-36,0,-39,-9,-14,9,29
24,-43,-68,9,46,-56,0,-19,-19,-19,-4,9
29,-48,-78,9,53,-63,9,-14,-19,-24,-14,4
19,-63,-82,21,51,-73,14,-14,-24,-29,-29,-4
9,-68,-78,29,43,-73,14,-9,-24,-29,-29,-4
9,-68,-78,29,43,-73,14,-9,-29,-29,-34,-9
9,-68,-78,29,43,-73,19,-9,-29,-24,-24,-4
9,-68,-78,29,43,-73,14,-14,-24,-19,-14,0
4,-68,-73,31,39,-70,24,-19,-9,-9,-9,0
-14,-68,-53,41,19,-61,24,-19,4,0,-4,0
-14,-68,-53,41,19,-61,24,-19,-4,0,4,4
-9,-63,-53,36,21,-58,19,-19,-9,-9,4,4
29,-53,-82,12,56,-68,14,-14,-14,-14,0,4
58,-48,-107,-4,82,-78,9,-14,-19,-19,-9,0
39,-48,-87,4,63,-68,9,-14,-19,-19,-9,0
19,-53,-73,17,46,-63,9,-14,-19,-19,-9,0
9,-53,-63,21,36,-58,24,-19,-14,-4,-4,4
