I,II,III,aVR,aVL,aVF,V1,V2,V3,V4,V5,V6,
-87,-102,-14,95,-36,-58,-58,-126,-73,-48,-48,-24
-87,-102,-14,95,-36,-58,-53,-126,-73,-53,-58,-29
-92,-107,-14,100,-39,-61,-48,-126,-78,-58,-63,-34
-92,-107,-14,100,-39,-61,-43,-122,-78,-53,-63,-34
-97,-107,-9,102,-43,-58,-43,-122,-78,-48,-63,-39
-97,-107,-9,102,-43,-58,-43,-122,-78,-48,-63,-39
-97,-107,-9,102,-43,-58,-39,-122,-78,-48,-63,-39
-97,-112,-14,104,-41,-63,-39,-122,-78,-48,-63,-39
-92,-112,-19,102,-36,-65,-39,-117,-78,-48,-63,-39
-92,-112,-19,102,-36,-65,-39,-117,-78,-48,-68,-39
-92,-112,-19,102,-36,-65,-34,-117,-78,-48,-73,-39
-92,-117,-24,104,-34,-70,-39,-117,-78,-48,-73,-43
-92,-117,-24,104,-34,-70,-43,-117,-78,-53,-78,-43
-92,-117,-24,104,-34,-70,-39,-117,-78,-53,-78,-43
-87,-112,-24,100,-31,-68,-39,-112,-78,-53,-73,-43
-78,-112,-34,95,-21,-73,-34,-112,-78,-58,-73,-48
-87,-112,-24,100,-31,-68,-29,-107,-63,-53,-73,-53
-122,-73,48,97,-85,-12,-14,-107,-53,-39,-63,-43
-175,-24,151,100,-163,63,43,-43,4,0,-34,-19
-214,19,234,97,-224,126,200,287,214,117,24,-4
-224,73,297,75,-261,185,287,483,444,336,175,68
-204,122,326,41,-265,224,283,366,527,561,366,200
-73,273,346,-100,-209,309,146,126,712,1005,727,463
141,517,375,-329,-117,446,-73,-87,1049,1605,1244,839
434,629,195,-531,119,412,-366,-356,1220,1995,1590,1093
785,551,-234,-668,509,158,-844,-712,1156,1932,1615,1176
805,131,-673,-468,739,-270,-995,-985,531,1029,917,736
395,-492,-888,48,641,-690,-951,-1893,-1503,-1000,-605,-234
161,-751,-912,295,536,-832,-927,-2249,-2332,-1776,-1215,-634
92,-649,-741,278,417,-695,-751,-1668,-1805,-1439,-1024,-551
73,-419,-492,173,283,-456,-556,-1083,-1151,-927,-668,-326
63,-219,-283,78,173,-251,-390,-707,-732,-580,-419,-180
39,-141,-180,51,109,-161,-273,-483,-502,-419,-307,-122
-24,-136,-112,80,43,-124,-165,-317,-366,-326,-253,-112
-53,-136,-82,95,14,-109,-78,-185,-239,-244,-200,-102
-58,-122,-63,90,2,-92,-19,-92,-156,-180,-165,-92
-63,-107,-43,85,-9,-75,-4,-58,-126,-151,-151,-82
-68,-107,-39,87,-14,-73,0,-53,-117,-146,-146,-82
-68,-102,-34,85,-17,-68,0,-39,-107,-141,-146,-82
-73,-97,-24,85,-24,-61,14,-24,-102,-136,-141,-73
-73,-102,-29,87,-21,-65,24,-14,-97,-126,-131,-68
-73,-107,-34,90,-19,-70,24,-9,-82,-122,-131,-68
-73,-112,-39,92,-17,-75,29,-9,-73,-122,-126,-63
-73,-102,-29,87,-21,-65,29,0,-68,-117,-126,-63
-73,-102,-29,87,-21,-65,24,9,-63,-117,-126,-63
-73,-97,-24,85,-24,-61,29,14,-53,-112,-122,-58
-73,-87,-14,80,-29,-51,29,19,-48,-112,-122,-58
-68,-87,-19,78,-24,-53,34,24,-48,-102,-122,-58
-68,-87,-19,78,-24,-53,34,29,-43,-97,-117,-63
-63,-87,-24,75,-19,-56,39,39,-39,-97,-117,-63
-63,-87,-24,75,-19,-56,39,48,-29,-97,-112,-58
-63,-82,-19,73,-21,-51,48,63,-24,-92,-112,-58
-63,-78,-14,70,-24,-46,53,73,-19,-92,-112,-58
-73,-82,-9,78,-31,-46,58,82,-14,-87,-112,-58
-82,-82,0,82,-41,-41,58,92,-4,-87,-102,-58
-73,-82,-9,78,-31,-46,63,102,4,-82,-97,-58
-63,-82,-19,73,-21,-51,63,107,14,-78,-97,-58
-48,-82,-34,65,-7,-58,68,117,19,-78,-97,-48
-29,-82,-53,56,12,-68,68,141,29,-73,-92,-48
-34,-82,-48,58,7,-65,78,156,39,-73,-87,-48
-48,-82,-34,65,-7,-58,82,170,48,-68,-87,-43
-43,-78,-34,61,-4,-56,92,190,58,-68,-82,-39
-43,-68,-24,56,-9,-46,97,209,78,-63,-78,-39
-39,-63,-24,51,-7,-43,112,239,87,-53,-78,-34
-29,-63,-34,46,2,-48,126,258,97,-53,-78,-34
-34,-63,-29,48,-2,-46,136,292,107,-48,-82,-39
-43,-58,-14,51,-14,-36,146,331,117,-48,-82,-43
-43,-58,-14,51,-14,-36,156,361,131,-39,-78,-43
-48,-58,-9,53,-19,-34,175,400,146,-29,-78,-39
-43,-53,-9,48,-17,-31,195,439,170,-24,-63,-34
-43,-39,4,41,-24,-17,209,468,185,-19,-53,-29
-29,-29,0,29,-14,-14,214,502,200,-9,-53,-19
-19,-19,0,19,-9,-9,224,531,204,0,-48,-9
-14,-19,-4,17,-4,-12,244,561,219,0,-48,-9
-9,-4,4,7,-7,0,263,590,224,0,-43,-4
-9,4,14,2,-12,9,268,605,229,0,-39,0
-4,14,19,-4,-12,17,268,610,229,0,-39,4
-4,19,24,-7,-14,21,263,610,214,-14,-39,4
-14,24,39,-4,-26,31,258,605,209,-19,-39,9
-19,9,29,4,-24,19,258,605,200,-24,-39,14
-29,4,34,12,-31,19,253,595,180,-34,-43,14
4,39,34,-21,-14,36,248,590,170,-43,-39,14
29,68,39,-48,-4,53,244,570,161,-53,-43,14
19,53,34,-36,-7,43,234,556,151,-63,-53,9
14,43,29,-29,-7,36,229,546,141,-63,-58,4
19,43,24,-31,-2,34,219,512,117,-73,-58,4
19,39,19,-29,0,29,209,483,102,-73,-63,4
19,29,9,-24,4,19,204,453,87,-87,-63,0
29,14,-14,-21,21,0,185,419,73,-87,-68,0
39,39,0,-39,19,19,170,390,68,-87,-68,4
43,48,4,-46,19,26,151,361,58,-87,-63,4
48,58,9,-53,19,34,141,322,48,-87,-63,4
48,68,19,-58,14,43,126,287,39,-87,-58,4
43,53,9,-48,17,31,107,244,24,-82,-58,4
43,39,-4,-41,24,17,92,204,14,-73,-53,0
39,39,0,-39,19,19,73,170,14,-68,-53,0
39,29,-9,-34,24,9,58,141,14,-58,-39,4
34,29,-4,-31,19,12,43,117,14,-48,-39,4
24,19,-4,-21,14,7,34,82,9,-39,-29,4
34,24,-9,-29,21,7,24,63,9,-29,-19,9
43,24,-19,-34,31,2,24,43,4,-14,-9,19
53,39,-14,-46,34,12,14,34,9,0,-4,24
63,53,-9,-58,36,21,9,19,19,14,0,29
53,48,-4,-51,29,21,9,9,19,19,4,34
43,48,4,-46,19,26,9,0,19,29,14,34
43,43,0,-43,21,21,0,-9,24,39,14,39
43,43,0,-43,21,21,-14,-9,29,48,19,43
58,53,-4,-56,31,24,-4,-9,34,53,34,48
68,68,0,-68,34,34,0,-14,43,58,48,48
73,73,0,-73,36,36,0,-14,43,58,53,48
78,78,0,-78,39,39,0,-14,43,58,53,48
78,78,0,-78,39,39,4,-9,48,63,53,53
82,78,-4,-80,43,36,9,-9,53,63,58,53
87,73,-14,-80,51,29,19,-9,53,73,58,53
87,73,-14,-80,51,29,29,-9,58,78,53,53
92,82,-9,-87,51,36,19,-9,58,78,53,53
97,97,0,-97,48,48,14,-9,58,78,58,53
102,102,0,-102,51,51,14,-9,58,82,58,58
107,107,0,-107,53,53,14,-9,58,87,58,63
107,107,0,-107,53,53,19,-9,58,82,63,58
107,112,4,-109,51,58,24,-4,58,82,68,58
107,112,4,-109,51,58,24,0,58,82,68,58
107,112,4,-109,51,58,19,4,58,82,63,58
112,117,4,-114,53,61,29,9,58,82,63,63
112,122,9,-117,51,65,43,9,58,82,68,68
117,126,9,-122,53,68,34,4,58,82,68,68
117,126,9,-122,53,68,24,0,58,82,68,68
131,131,0,-131,65,65,24,0,63,82,68,68
141,136,-4,-139,73,65,24,0,63,82,68,68
141,141,0,-141,70,70,29,0,63,82,63,68
141,146,4,-143,68,75,34,4,63,82,63,68
141,146,4,-143,68,75,34,4,63,78,63,68
141,146,4,-143,68,75,34,4,63,78,68,68
151,151,0,-151,75,75,34,4,63,78,68,68
156,161,4,-158,75,82,34,4,58,78,63,68
156,161,4,-158,75,82,34,0,53,78,63,68
161,161,0,-161,80,80,34,0,48,73,63,68
161,161,0,-161,80,80,34,-4,48,73,63,68
161,161,0,-161,80,80,34,-4,48,73,63,63
161,161,0,-161,80,80,34,-4,48,68,68,68
165,165,0,-165,82,82,34,-4,53,68,68,73
170,170,0,-170,85,85,34,-4,53,68,68,73
175,175,0,-175,87,87,34,-4,53,68,68,73
175,175,0,-175,87,87,39,0,53,68,68,78
175,175,0,-175,87,87,39,0,48,68,68,78
175,175,0,-175,87,87,39,-4,48,68,68,78
175,175,0,-175,87,87,39,-4,48,68,68,73
175,175,0,-175,87,87,39,-4,48,68,68,73
175,170,-4,-173,90,82,43,-4,43,68,68,73
175,170,-4,-173,90,82,39,-9,43,68,63,68
175,170,-4,-173,90,82,34,-14,39,68,63,63
180,170,-9,-175,95,80,43,-9,43,63,58,68
180,175,-4,-178,92,85,43,-9,48,63,58,68
185,185,0,-185,92,92,48,-9,48,68,63,78
190,200,9,-195,90,104,48,-4,68,78,73,82
195,214,19,-204,87,117,53,0,68,87,78,87
204,234,29,-219,87,131,58,9,68,97,87,97
209,253,43,-231,82,148,58,19,78,107,102,107
214,273,58,-244,78,165,58,29,87,117,117,117
214,278,63,-246,75,170,58,29,97,122,122,122
214,283,68,-248,73,175,63,29,102,122,122,122
214,292,78,-253,68,185,68,34,107,126,126,126
214,292,78,-253,68,185,73,39,107,122,122,122
214,292,78,-253,68,185,73,34,107,126,122,122
219,302,82,-261,68,192,78,34,112,141,126,122
224,322,97,-273,63,209,68,34,122,151,136,131
229,351,122,-290,53,236,53,24,122,156,151,141
239,361,122,-300,58,241,9,0,117,156,156,156
253,361,107,-307,73,234,-34,-29,102,156,156,161
278,361,82,-319,97,222,-48,-43,92,156,156,161
297,361,63,-329,117,212,-63,-43,92,156,170,170
317,375,58,-346,129,217,-68,-43,97,165,180,190
312,356,43,-334,134,200,-68,-43,97,165,180,190
312,312,0,-312,156,156,-68,-43,82,151,165,175
307,278,-29,-292,168,124,-63,-43,63,136,151,161
292,273,-19,-283,156,126,-53,-43,63,136,151,161
263,268,4,-265,129,136,-39,-34,68,136,151,161
234,248,14,-241,109,131,-19,-39,68,131,136,146
200,214,14,-207,92,114,0,-43,58,107,107,117
165,170,4,-168,80,87,14,-48,34,73,73,78
156,146,-9,-151,82,68,14,-58,14,58,58,63
146,136,-9,-141,78,63,14,-63,14,58,58,63
136,126,-9,-131,73,58,9,-68,14,53,48,58
131,117,-14,-124,73,51,9,-68,9,48,43,53
131,117,-14,-124,73,51,14,-63,9,48,43,53
126,117,-9,-122,68,53,9,-63,9,43,43,48
126,117,-9,-122,68,53,4,-63,9,39,43,48
117,102,-14,-109,65,43,9,-68,4,39,39,43
102,82,-19,-92,61,31,9,-73,0,39,34,39
102,82,-19,-92,61,31,9,-68,0,39,34,39
102,82,-19,-92,61,31,9,-68,0,39,34,39
87,78,-9,-82,48,34,14,-68,-4,34,34,39
73,68,-4,-70,39,31,14,-68,-9,29,34,34
73,63,-9,-68,41,26,9,-68,-9,24,29,29
68,58,-9,-63,39,24,9,-68,-9,24,29,24
68,53,-14,-61,41,19,9,-68,-14,24,29,24
68,43,-24,-56,46,9,14,-68,-19,24,24,24
48,34,-14,-41,31,9,9,-73,-14,19,19,19
14,68,53,-41,-19,61,34,-53,9,34,34,24
-53,107,161,-26,-107,134,102,19,63,58,43,34
-87,136,224,-24,-156,180,229,283,244,165,97,58
-107,170,278,-31,-192,224,341,517,473,361,234,122
-82,219,302,-68,-192,261,336,453,585,556,395,229
58,400,341,-229,-141,370,195,200,805,1034,775,502
263,600,336,-431,-36,468,-19,-29,1063,1503,1195,814
600,751,151,-675,224,451,-375,-312,1302,1966,1625,1137
897,707,-190,-802,544,258,-824,-722,1176,1952,1683,1234
873,200,-673,-536,773,-236,-971,-1088,336,824,790,668
502,-375,-878,-63,690,-627,-966,-1869,-1395,-927,-527,-175
234,-644,-878,204,556,-761,-951,-2230,-2147,-1566,-1039,-541
146,-610,-756,231,451,-683,-790,-1790,-1844,-1420,-985,-546
141,-336,-478,97,309,-407,-575,-1132,-1127,-863,-585,-283
131,-131,-263,0,197,-197,-400,-722,-692,-517,-331,-122
97,-73,-170,-12,134,-122,-273,-507,-492,-385,-244,-73
24,-68,-92,21,58,-80,-161,-331,-346,-283,-195,-68
-4,-73,-68,39,31,-70,-68,-190,-214,-200,-146,-63
-9,-73,-63,41,26,-68,0,-92,-126,-141,-107,-53
-19,-68,-48,43,14,-58,14,-63,-107,-122,-92,-43
-29,-68,-39,48,4,-53,19,-53,-97,-117,-87,-43
-39,-73,-34,56,-2,-53,19,-39,-92,-112,-87,-43
-53,-73,-19,63,-17,-46,29,-24,-92,-107,-82,-39
-53,-73,-19,63,-17,-46,34,-19,-87,-97,-73,-39
-53,-73,-19,63,-17,-46,34,-14,-78,-92,-73,-39
-53,-73,-19,63,-17,-46,39,-9,-73,-92,-68,-34
-53,-63,-9,58,-21,-36,43,0,-68,-87,-68,-34
-58,-68,-9,63,-24,-39,43,9,-63,-87,-73,-43
-63,-73,-9,68,-26,-41,48,14,-53,-82,-73,-48
-63,-68,-4,65,-29,-36,48,19,-48,-87,-73,-48
-58,-68,-9,63,-24,-39,53,24,-48,-82,-73,-43
-58,-68,-9,63,-24,-39,48,24,-48,-78,-68,-43
-53,-68,-14,61,-19,-41,48,29,-48,-78,-68,-43
-58,-68,-9,63,-24,-39,48,39,-39,-78,-63,-39
-63,-63,0,63,-31,-31,53,48,-34,-73,-63,-39
-63,-63,0,63,-31,-31,53,53,-29,-73,-63,-39
-63,-68,-4,65,-29,-36,58,63,-24,-68,-63,-39
-68,-63,4,65,-36,-29,58,73,-14,-68,-58,-39
-73,-63,9,68,-41,-26,63,87,-4,-63,-58,-39
-73,-68,4,70,-39,-31,58,92,4,-58,-58,-39
-73,-73,0,73,-36,-36,63,97,9,-58,-63,-29
-68,-73,-4,70,-31,-39,68,122,19,-53,-58,-24
-58,-73,-14,65,-21,-43,78,141,29,-53,-48,-24
-58,-73,-14,65,-21,-43,87,161,39,-48,-48,-24
-53,-73,-19,63,-17,-46,102,180,43,-48,-43,-19
-53,-68,-14,61,-19,-41,107,200,58,-43,-39,-19
-58,-63,-4,61,-26,-34,117,229,68,-34,-39,-14
-58,-63,-4,61,-26,-34,122,244,78,-34,-39,-19
-53,-63,-9,58,-21,-36,126,273,92,-29,-39,-24
-58,-58,0,58,-29,-29,136,312,107,-29,-34,-24
-58,-58,0,58,-29,-29,146,341,122,-24,-29,-24
-58,-63,-4,61,-26,-34,165,380,136,-19,-29,-19
-53,-63,-9,58,-21,-36,185,419,156,-14,-24,-19
-53,-48,4,51,-29,-21,200,448,165,-9,-24,-19
-48,-43,4,46,-26,-19,204,483,180,-4,-24,-14
-48,-39,9,43,-29,-14,214,512,185,0,-19,-9
-43,-39,4,41,-24,-17,229,536,195,0,-19,-9
-43,-24,19,34,-31,-2,244,566,195,0,-19,-9
-48,-14,34,31,-41,9,248,585,200,0,-19,-9
-43,-4,39,24,-41,17,248,590,204,0,-19,-4
-34,0,34,17,-34,17,248,595,195,-14,-19,-4
-34,4,39,14,-36,21,248,600,190,-19,-19,0
-29,4,34,12,-31,19,248,605,180,-24,-19,4
-29,14,43,7,-36,29,248,600,165,-29,-24,4
-19,19,39,0,-29,29,248,595,161,-34,-24,4
-19,19,39,0,-29,29,244,575,156,-39,-29,4
-19,19,39,0,-29,29,229,561,141,-48,-34,4
-14,9,24,2,-19,17,219,551,122,-53,-39,4
-9,0,9,4,-9,4,209,522,107,-63,-39,4
-9,9,19,0,-14,14,200,497,102,-58,-43,4
-9,19,29,-4,-19,24,190,473,87,-68,-43,0
0,14,14,-7,-7,14,165,439,73,-68,-43,0
0,14,14,-7,-7,14,151,400,63,-68,-43,0
-4,-4,0,4,-2,-2,131,361,48,-73,-43,-4
-4,-9,-4,7,0,-7,117,322,39,-78,-43,-4
-9,-9,0,9,-4,-4,97,287,29,-78,-39,0
-14,-14,0,14,-7,-7,78,244,19,-73,-39,4
-14,-14,0,14,-7,-7,63,200,9,-63,-34,0
-19,-9,9,14,-14,0,48,161,4,-58,-34,0
-19,-19,0,19,-9,-9,39,126,0,-48,-19,4
-24,-19,4,21,-14,-7,24,97,-4,-39,-19,4
-39,-29,9,34,-24,-9,14,63,-9,-29,-9,4
-43,-29,14,36,-29,-7,0,43,-9,-24,-4,4
-43,-39,4,41,-24,-17,-4,19,-14,-14,0,4
-48,-43,4,46,-26,-19,-14,0,-14,-4,4,0
-53,-43,9,48,-31,-17,-24,-19,-9,4,9,0
-53,-48,4,51,-29,-21,-29,-29,-9,9,14,4
-58,-43,14,51,-36,-14,-29,-43,-14,14,24,4
-63,-43,19,53,-41,-12,-29,-58,-14,14,24,4
-63,-43,19,53,-41,-12,-34,-63,-9,19,29,4
-63,-48,14,56,-39,-17,-34,-68,-9,24,34,9
-68,-48,19,58,-43,-14,-39,-73,-4,29,39,4
-68,-48,19,58,-43,-14,-39,-73,-4,29,39,0
-63,-48,14,56,-39,-17,-39,-68,-4,29,34,0
-63,-48,14,56,-39,-17,-39,-63,-4,34,34,4
-63,-48,14,56,-39,-17,-39,-68,-4,34,39,4
-58,-53,4,56,-31,-24,-39,-68,-4,39,39,4
-58,-53,4,56,-31,-24,-43,-68,0,39,34,4
-58,-53,4,56,-31,-24,-48,-68,0,39,34,4
-58,-48,9,53,-34,-19,-43,-68,0,39,39,4
-58,-48,9,53,-34,-19,-43,-68,0,39,39,4
-58,-43,14,51,-36,-14,-43,-68,0,39,39,9
-63,-43,19,53,-41,-12,-43,-68,0,34,39,9
-68,-43,24,56,-46,-9,-43,-63,0,34,39,9
-68,-43,24,56,-46,-9,-43,-63,0,34,39,9
-68,-48,19,58,-43,-14,-48,-68,0,34,34,4
-63,-53,9,58,-36,-21,-48,-68,0,34,34,0
-68,-58,9,63,-39,-24,-43,-68,0,34,39,0
-68,-58,9,63,-39,-24,-43,-68,0,34,39,0
-68,-58,9,63,-39,-24,-43,-68,0,34,39,0
-68,-58,9,63,-39,-24,-43,-68,0,34,39,0
-73,-53,19,63,-46,-17,-43,-68,-4,34,39,0
-73,-48,24,61,-48,-12,-43,-73,-4,34,34,0
-73,-48,24,61,-48,-12,-43,-73,-9,34,34,0
-73,-48,24,61,-48,-12,-43,-73,-14,29,34,0
-73,-48,24,61,-48,-12,-43,-73,-14,29,39,0
-73,-48,24,61,-48,-12,-43,-73,-14,29,39,0
-78,-43,34,61,-56,-4,-43,-73,-19,29,34,0
-78,-43,34,61,-56,-4,-43,-78,-19,29,34,0
-73,-43,29,58,-51,-7,-43,-78,-19,24,29,0
-73,-43,29,58,-51,-7,-43,-82,-19,24,24,0
-73,-48,24,61,-48,-12,-43,-82,-19,24,24,-4
-78,-58,19,68,-48,-19,-43,-82,-24,19,24,-4
-78,-58,19,68,-48,-19,-43,-82,-24,19,19,-9
-78,-58,19,68,-48,-19,-43,-82,-24,19,19,-14
-78,-58,19,68,-48,-19,-43,-82,-24,19,19,-14
-78,-58,19,68,-48,-19,-43,-82,-24,19,19,-9
-78,-58,19,68,-48,-19,-48,-87,-29,19,19,-9
-78,-58,19,68,-48,-19,-48,-92,-29,19,19,-9
-78,-58,19,68,-48,-19,-48,-92,-34,14,19,-14
-78,-53,24,65,-51,-14,-48,-92,-34,9,19,-14
-82,-58,24,70,-53,-17,-43,-102,-39,0,19,-19
-87,-53,34,70,-61,-9,-43,-107,-39,-4,19,-19
-87,-58,29,73,-58,-14,-53,-107,-48,-4,9,-19
-82,-63,19,73,-51,-21,-53,-102,-48,-4,0,-14
-82,-53,29,68,-56,-12,-53,-97,-39,4,9,-14
-78,-43,34,61,-56,-4,-48,-92,-29,14,19,-4
-78,-34,43,56,-61,4,-39,-87,-19,19,29,0
-78,-29,48,53,-63,9,-29,-87,-9,29,39,0
-73,-9,63,41,-68,26,-24,-78,0,39,48,4
-68,9,78,29,-73,43,-19,-68,9,48,58,9
-68,14,82,26,-75,48,-19,-63,14,58,63,14
-68,19,87,24,-78,53,-14,-58,14,63,63,19
-68,29,97,19,-82,63,-14,-53,19,68,68,24
-68,29,97,19,-82,63,-14,-48,19,63,63,24
-68,29,97,19,-82,63,-19,-53,19,58,63,24
-63,39,102,12,-82,70,-19,-53,24,63,68,24
-58,53,112,2,-85,82,-34,-58,34,73,78,34
-53,78,131,-12,-92,104,-53,-73,34,78,92,43
-39,87,126,-24,-82,107,-92,-97,29,78,97,58
-19,87,107,-34,-63,97,-131,-126,14,78,97,63
4,87,82,-46,-39,85,-146,-141,4,78,97,63
24,87,63,-56,-19,75,-161,-141,4,78,112,73
48,97,48,-73,0,73,-165,-141,9,87,117,92
48,73,24,-61,12,48,-165,-141,9,87,112,92
48,34,-14,-41,31,9,-156,-141,-4,73,97,78
43,4,-39,-24,41,-17,-141,-141,-24,58,82,63
34,9,-24,-21,29,-7,-131,-141,-24,58,82,63
9,14,4,-12,2,9,-117,-131,-19,58,82,63
-24,-4,19,14,-21,7,-97,-136,-19,53,68,43
-63,-39,24,51,-43,-7,-78,-141,-29,29,39,9
-92,-78,14,85,-53,-31,-63,-146,-53,0,9,-24
-97,-97,0,97,-48,-48,-63,-156,-73,-9,0,-34
-102,-102,0,102,-51,-51,-63,-156,-73,-9,0,-29
-107,-107,0,107,-53,-53,-68,-156,-73,-14,-9,-29
-112,-117,-4,114,-53,-61,-68,-156,-78,-19,-14,-34
-112,-117,-4,114,-53,-61,-63,-151,-78,-19,-14,-34
-117,-112,4,114,-61,-53,-63,-151,-78,-19,-14,-43
-117,-107,9,112,-63,-48,-63,-151,-78,-19,-14,-48
-117,-107,9,112,-63,-48,-53,-151,-78,-19,-14,-48
-122,-112,9,117,-65,-51,-48,-151,-78,-19,-14,-48
-122,-112,9,117,-65,-51,-48,-146,-78,-19,-14,-48
-122,-112,9,117,-65,-51,-48,-146,-78,-19,-14,-48
-122,-112,9,117,-65,-51,-43,-146,-78,-19,-14,-43
-122,-117,4,119,-63,-56,-43,-146,-78,-19,-14,-43
-122,-117,4,119,-63,-56,-43,-146,-78,-24,-19,-43
-126,-117,9,122,-68,-53,-39,-146,-78,-24,-19,-43
-126,-112,14,119,-70,-48,-39,-141,-78,-19,-14,-43
-126,-112,14,119,-70,-48,-34,-136,-78,-14,-14,-43
-146,-112,34,129,-90,-39,-24,-112,-53,0,-9,-39
-180,-68,112,124,-146,21,14,-63,-9,34,14,-24
-229,-14,214,122,-222,100,92,34,73,87,63,4
-244,29,273,107,-258,151,229,322,283,224,156,48
-224,82,307,70,-265,195,278,453,512,463,331,146
-161,151,312,4,-236,231,209,287,624,702,531,287
24,317,292,-170,-134,305,19,0,805,1127,878,551
273,502,229,-387,21,366,-244,-263,1024,1542,1263,854
536,531,-4,-534,270,263,-580,-614,995,1664,1420,985
761,366,-395,-563,578,-14,-1010,-1093,600,1307,1205,893
688,-87,-775,-300,732,-431,-1083,-1410,-146,326,405,361
268,-610,-878,170,573,-744,-1005,-2142,-1786,-1278,-819,-448
53,-761,-814,353,434,-788,-946,-2274,-2215,-1634,-1122,-673
19,-610,-629,295,324,-619,-741,-1605,-1590,-1205,-858,-536
14,-385,-400,185,207,-392,-536,-1005,-971,-727,-512,-307
4,-229,-234,112,119,-231,-370,-653,-634,-458,-312,-180
-19,-170,-151,95,65,-161,-253,-463,-453,-341,-229,-131
-82,-165,-82,124,0,-124,-151,-312,-326,-253,-185,-126
-112,-165,-53,139,-29,-109,-73,-185,-219,-185,-141,-117
-117,-161,-43,139,-36,-102,-19,-102,-156,-141,-107,-102
-122,-156,-34,139,-43,-95,-4,-82,-136,-122,-92,-92
-126,-156,-29,141,-48,-92,0,-82,-126,-117,-87,-92
-131,-151,-19,141,-56,-85,0,-68,-117,-112,-87,-97
-141,-141,0,141,-70,-70,9,-53,-112,-107,-82,-97
-141,-146,-4,143,-68,-75,14,-43,-107,-97,-78,-97
-141,-151,-9,146,-65,-80,14,-34,-97,-92,-82,-97
-136,-151,-14,143,-61,-82,19,-29,-92,-92,-78,-92
-131,-141,-9,136,-61,-75,24,-19,-87,-87,-78,-92
-131,-141,-9,136,-61,-75,24,-9,-82,-87,-78,-92
-131,-141,-9,136,-61,-75,29,-4,-73,-82,-73,-87
-131,-131,0,131,-65,-65,29,0,-73,-82,-73,-92
-126,-126,0,126,-63,-63,34,4,-78,-73,-73,-92
-126,-126,0,126,-63,-63,29,9,-73,-73,-68,-92
-122,-126,-4,124,-58,-65,29,19,-68,-78,-68,-92
-122,-126,-4,124,-58,-65,29,29,-58,-78,-58,-82
-122,-122,0,122,-61,-61,34,39,-53,-73,-53,-78
-122,-117,4,119,-63,-56,39,43,-48,-68,-53,-78
-122,-117,4,119,-63,-56,48,53,-43,-58,-53,-78
-122,-117,4,119,-63,-56,48,63,-34,-58,-48,-78
-122,-122,0,122,-61,-61,53,78,-24,-53,-48,-78
-122,-122,0,122,-61,-61,53,87,-14,-48,-48,-78
-122,-122,0,122,-61,-61,63,97,-9,-48,-53,-68
-117,-117,0,117,-58,-58,68,122,0,-43,-48,-68
-107,-112,-4,109,-51,-58,78,141,9,-43,-39,-73
-107,-107,0,107,-53,-53,82,165,24,-39,-39,-73
-102,-102,0,102,-51,-51,92,190,34,-39,-34,-68
-97,-97,0,97,-48,-48,97,209,48,-34,-29,-68
-97,-92,4,95,-51,-43,107,239,58,-24,-29,-63
-97,-92,4,95,-51,-43,117,258,68,-19,-29,-63
-92,-92,0,92,-46,-46,126,292,82,-9,-29,-63
-92,-87,4,90,-48,-41,136,331,97,-9,-24,-63
-87,-87,0,87,-43,-43,146,361,112,-4,-19,-63
-87,-92,-4,90,-41,-48,165,400,126,0,-19,-58
-82,-92,-9,87,-36,-51,185,439,146,4,-14,-58
-82,-78,4,80,-43,-36,200,468,156,9,-14,-58
-78,-73,4,75,-41,-34,204,502,170,14,-14,-53
-78,-63,14,70,-46,-24,214,531,175,19,-9,-48
-73,-58,14,65,-43,-21,229,556,185,19,-9,-48
-68,-43,24,56,-46,-9,244,580,185,14,-9,-43
-68,-34,34,51,-51,0,248,595,190,9,-9,-39
-63,-24,39,43,-51,7,248,605,190,9,-9,-34
-53,-19,34,36,-43,7,248,614,175,-4,-9,-34
-53,-14,39,34,-46,12,253,614,175,-4,-9,-34
-48,-14,34,31,-41,9,258,614,170,-4,-9,-34
-48,-4,43,26,-46,19,253,605,151,-9,-14,-34
-39,0,39,19,-39,19,248,595,141,-14,-14,-34
-34,0,34,17,-34,17,244,580,136,-24,-19,-34
-29,0,29,14,-29,14,229,570,122,-39,-24,-34
-24,4,29,9,-26,17,219,556,107,-43,-29,-29
-19,9,29,4,-24,19,209,522,97,-53,-29,-24
-19,9,29,4,-24,19,200,492,92,-53,-34,-24
-19,9,29,4,-24,19,190,463,78,-68,-34,-29
-9,4,14,2,-12,9,165,424,58,-73,-39,-29
-9,4,14,2,-12,9,151,380,43,-78,-43,-29
-9,-9,0,9,-4,-4,131,341,29,-78,-43,-34
-4,-9,-4,7,0,-7,117,302,19,-78,-43,-34
-9,-9,0,9,-4,-4,97,268,9,-78,-39,-34
-14,-14,0,14,-7,-7,78,224,0,-73,-39,-34
-19,-19,0,19,-9,-9,63,180,-9,-63,-34,-39
-29,-19,9,24,-19,-4,48,141,-14,-58,-34,-39
-29,-29,0,29,-14,-14,39,112,-14,-48,-19,-34
-34,-29,4,31,-19,-12,24,87,-14,-39,-19,-34
-43,-39,4,41,-24,-17,14,48,-19,-34,-9,-34
-43,-39,4,41,-24,-17,0,24,-19,-34,-4,-34
-48,-43,4,46,-26,-19,-4,4,-24,-24,-4,-29
-58,-43,14,51,-36,-14,-14,-9,-24,-14,-4,-29
-63,-43,19,53,-41,-12,-24,-29,-19,-4,0,-34
-63,-48,14,56,-39,-17,-29,-39,-19,0,4,-34
-63,-48,14,56,-39,-17,-29,-48,-24,9,14,-34
-63,-53,9,58,-36,-21,-29,-58,-24,14,14,-34
-63,-48,14,56,-39,-17,-34,-58,-19,19,19,-34
-63,-48,14,56,-39,-17,-34,-58,-19,24,24,-29
-68,-48,19,58,-43,-14,-43,-68,-14,29,29,-29
-68,-48,19,58,-43,-14,-48,-73,-14,29,29,-29
-68,-48,19,58,-43,-14,-48,-73,-19,29,19,-34
-73,-48,24,61,-48,-12,-48,-73,-24,34,14,-34
-73,-48,24,61,-48,-12,-43,-78,-24,34,19,-34
-68,-53,14,61,-41,-19,-39,-78,-24,39,19,-34
-68,-53,14,61,-41,-19,-39,-78,-14,39,19,-29
-68,-53,14,61,-41,-19,-39,-78,-9,39,24,-24
-68,-48,19,58,-43,-14,-34,-78,-9,34,29,-24
-68,-48,19,58,-43,-14,-34,-78,-9,29,29,-24
-68,-48,19,58,-43,-14,-34,-78,-9,29,29,-24
-73,-53,19,63,-46,-17,-34,-78,-9,24,29,-29
-78,-53,24,65,-51,-14,-34,-73,-9,24,24,-29
-78,-53,24,65,-51,-14,-34,-73,-9,24,19,-29
-78,-53,24,65,-51,-14,-43,-73,-14,24,14,-29
-73,-53,19,63,-46,-17,-48,-68,-19,24,14,-29
-78,-53,24,65,-51,-14,-43,-73,-19,24,19,-29
-78,-48,29,63,-53,-9,-43,-78,-19,24,19,-29
-78,-48,29,63,-53,-9,-39,-78,-19,24,19,-34
-78,-48,29,63,-53,-9,-34,-78,-19,24,19,-39
-82,-53,29,68,-56,-12,-34,-78,-24,19,19,-39
-82,-58,24,70,-53,-17,-34,-82,-24,14,14,-39
-82,-58,24,70,-53,-17,-39,-82,-24,14,14,-43
-82,-58,24,70,-53,-17,-43,-82,-24,9,14,-48
-78,-53,24,65,-51,-14,-43,-82,-24,9,19,-48
-73,-48,24,61,-48,-12,-43,-82,-24,9,19,-48
-78,-43,34,61,-56,-4,-43,-82,-29,9,14,-43
-78,-43,34,61,-56,-4,-43,-87,-29,9,14,-39
-73,-43,29,58,-51,-7,-43,-87,-29,4,4,-39
-73,-43,29,58,-51,-7,-43,-92,-29,4,-4,-39
-73,-43,29,58,-51,-7,-43,-87,-29,9,4,-39
-78,-48,29,63,-53,-9,-43,-82,-34,9,14,-34
-78,-48,29,63,-53,-9,-43,-82,-34,9,9,-34
-78,-48,29,63,-53,-9,-43,-82,-34,9,9,-34
-82,-48,34,65,-58,-7,-43,-82,-34,4,9,-39
-87,-48,39,68,-63,-4,-43,-82,-34,0,9,-39
-87,-48,39,68,-63,-4,-48,-87,-39,0,9,-39
-87,-48,39,68,-63,-4,-48,-92,-39,0,9,-39
-87,-53,34,70,-61,-9,-48,-92,-43,0,4,-43
-87,-53,34,70,-61,-9,-48,-92,-43,0,0,-43
-87,-53,34,70,-61,-9,-48,-102,-48,-4,-4,-48
-87,-43,43,65,-65,0,-53,-107,-48,-4,-9,-48
-87,-43,43,65,-65,0,-53,-102,-48,-4,-9,-48
-82,-34,48,58,-65,7,-43,-87,-34,0,-4,-39
-73,-14,58,43,-65,21,-34,-82,-19,14,4,-29
-68,0,68,34,-68,34,-29,-78,-9,29,19,-19
-63,9,73,26,-68,41,-29,-73,0,39,34,-14
-58,19,78,19,-68,48,-29,-68,9,48,48,-9
-58,24,82,17,-70,53,-19,-63,9,48,48,-9
-53,34,87,9,-70,61,-9,-58,9,48,48,-4
-53,43,97,4,-75,70,-4,-58,14,53,48,-4
-48,48,97,0,-73,73,-4,-58,19,53,43,-4
-48,48,97,0,-73,73,-14,-58,19,53,48,0
-43,58,102,-7,-73,80,-19,-53,24,63,58,4
-39,82,122,-21,-80,102,-29,-53,34,73,68,14
-34,117,151,-41,-92,134,-43,-63,34,78,82,24
-19,126,146,-53,-82,136,-82,-87,34,82,87,43
0,126,126,-63,-63,126,-122,-117,24,87,87,53
24,126,102,-75,-39,114,-136,-131,14,87,87,53
43,126,82,-85,-19,104,-151,-131,14,87,102,63
63,141,78,-102,-7,109,-151,-131,19,92,107,78
58,122,63,-90,-2,92,-146,-131,19,87,102,73
58,82,24,-70,17,53,-141,-131,4,73,87,58
53,53,0,-53,26,26,-131,-131,-14,58,73,43
43,48,4,-46,19,26,-122,-131,-14,58,73,39
19,43,24,-31,-2,34,-107,-122,-9,58,73,34
-9,24,34,-7,-21,29,-87,-122,-9,53,58,19
-43,-9,34,26,-39,12,-68,-122,-19,29,29,-9
-73,-48,24,61,-48,-12,-53,-126,-39,-4,0,-43
-78,-68,9,73,-43,-29,-53,-136,-53,-19,-9,-53
-78,-73,4,75,-41,-34,-48,-136,-53,-19,-9,-53
-78,-78,0,78,-39,-39,-48,-136,-53,-24,-19,-58
-78,-78,0,78,-39,-39,-48,-136,-58,-24,-24,-63
-73,-68,4,70,-39,-31,-43,-131,-58,-19,-24,-63
-73,-63,9,68,-41,-26,-43,-126,-53,-19,-24,-63
-68,-58,9,63,-39,-24,-43,-122,-48,-19,-24,-58
-68,-58,9,63,-39,-24,-34,-122,-48,-19,-24,-58
-73,-63,9,68,-41,-26,-29,-122,-48,-19,-24,-58
-73,-63,9,68,-41,-26,-29,-117,-53,-19,-24,-58
-73,-63,9,68,-41,-26,-29,-117,-58,-19,-24,-58
-73,-63,9,68,-41,-26,-29,-117,-58,-19,-24,-58
-73,-68,4,70,-39,-31,-34,-117,-58,-19,-24,-63
-73,-68,4,70,-39,-31,-34,-117,-53,-24,-29,-63
-78,-68,9,73,-43,-29,-29,-117,-48,-24,-29,-63
-78,-58,19,68,-48,-19,-24,-112,-43,-24,-24,-63
-78,-53,24,65,-51,-14,-14,-107,-39,-24,-24,-63
-97,-48,48,73,-73,0,4,-58,0,0,-14,-58
-131,0,131,65,-131,65,53,14,58,43,14,-43
-170,53,224,58,-197,139,131,151,204,156,92,0
-175,97,273,39,-224,185,268,478,478,351,214,58
-117,185,302,-34,-209,244,297,590,736,653,453,204
-14,287,302,-136,-158,295,209,405,878,956,717,395
180,414,234,-297,-26,324,9,97,990,1312,1015,634
439,561,122,-500,158,341,-263,-185,1141,1659,1351,912
575,507,-68,-541,322,219,-531,-658,805,1449,1259,888
673,258,-414,-466,544,-78,-893,-1259,102,761,795,639
610,-122,-732,-244,671,-427,-966,-1459,-448,-14,136,190
200,-570,-771,185,485,-671,-888,-2074,-1893,-1415,-946,-536
24,-683,-707,329,366,-695,-839,-2161,-2215,-1688,-1171,-702
29,-492,-522,231,275,-507,-644,-1449,-1483,-1176,-829,-507
34,-273,-307,119,170,-290,-463,-902,-893,-717,-507,-292
34,-122,-156,43,95,-139,-322,-605,-585,-468,-331,-180
14,-87,-102,36,58,-95,-204,-414,-409,-361,-253,-136
-43,-107,-63,75,9,-85,-102,-263,-287,-283,-214,-136
-63,-107,-43,85,-9,-75,-39,-156,-190,-214,-175,-131
-58,-102,-43,80,-7,-73,0,-92,-136,-170,-146,-122
-63,-97,-34,80,-14,-65,9,-68,-117,-151,-131,-117
-68,-97,-29,82,-19,-63,9,-63,-107,-146,-126,-122
-68,-92,-24,80,-21,-58,9,-48,-97,-141,-131,-122
-73,-82,-9,78,-31,-46,19,-34,-92,-136,-131,-117
-73,-82,-9,78,-31,-46,24,-24,-87,-126,-122,-117
-73,-82,-9,78,-31,-46,24,-14,-78,-122,-122,-117
-73,-78,-4,75,-34,-41,29,-9,-73,-122,-112,-107
-73,-63,9,68,-41,-26,34,0,-68,-117,-107,-102
-73,-63,9,68,-41,-26,34,9,-63,-117,-107,-102
-73,-63,9,68,-41,-26,39,14,-53,-112,-102,-97
-73,-63,9,68,-41,-26,39,19,-48,-112,-102,-97
-68,-68,0,68,-34,-34,43,24,-48,-102,-102,-92
-68,-68,0,68,-34,-34,43,29,-43,-97,-97,-92
-63,-68,-4,65,-29,-36,48,39,-39,-97,-97,-92
-63,-68,-4,65,-29,-36,43,43,-29,-97,-92,-87
-63,-63,0,63,-31,-31,43,48,-24,-92,-92,-87
-63,-58,4,61,-34,-26,43,53,-19,-92,-92,-87
-63,-58,4,61,-34,-26,48,63,-14,-87,-92,-87
-58,-48,9,53,-34,-19,53,73,-4,-87,-82,-87
-53,-43,9,48,-31,-17,63,87,4,-82,-78,-87
-53,-43,9,48,-31,-17,63,97,9,-78,-78,-87
-53,-43,9,48,-31,-17,73,107,9,-78,-82,-78
-58,-48,9,53,-34,-19,73,131,19,-73,-82,-78
-58,-53,4,56,-31,-24,78,151,29,-73,-78,-82
-58,-53,4,56,-31,-24,82,170,43,-68,-78,-78
-53,-53,0,53,-26,-26,92,190,53,-68,-73,-68
-39,-43,-4,41,-17,-24,97,209,68,-63,-68,-68
-29,-34,-4,31,-12,-19,107,239,78,-53,-68,-63
-29,-34,-4,31,-12,-19,117,258,87,-48,-68,-63
-24,-34,-9,29,-7,-21,126,292,102,-39,-68,-63
-39,-29,9,34,-24,-9,136,331,117,-39,-63,-63
-48,-29,19,39,-34,-4,146,361,131,-34,-58,-63
-39,-29,9,34,-24,-9,165,400,146,-29,-58,-58
-24,-24,0,24,-12,-12,185,439,165,-24,-53,-58
-24,-9,14,17,-19,2,200,468,180,-19,-53,-58
-19,-4,14,12,-17,4,204,502,200,-14,-53,-53
-14,0,14,7,-14,7,209,531,204,-9,-43,-48
-4,0,4,2,-4,2,219,556,214,-9,-39,-48
0,9,9,-4,-4,9,234,585,219,-9,-34,-43
0,14,14,-7,-7,14,239,605,229,-9,-29,-39
4,24,19,-14,-7,21,239,610,229,-14,-29,-34
14,29,14,-21,0,21,239,614,214,-34,-29,-34
19,39,19,-29,0,29,239,619,209,-39,-29,-29
29,43,14,-36,7,29,239,624,200,-43,-29,-24
34,53,19,-43,7,36,234,614,190,-43,-34,-24
48,58,9,-53,19,34,229,605,190,-43,-34,-24
48,58,9,-53,19,34,224,585,185,-53,-43,-24
48,58,9,-53,19,34,209,570,170,-68,-53,-24
48,58,9,-53,19,34,200,556,151,-73,-58,-24
48,58,9,-53,19,34,190,522,136,-82,-58,-24
48,58,9,-53,19,34,180,492,131,-82,-63,-24
48,58,9,-53,19,34,170,463,117,-97,-63,-29
58,53,-4,-56,31,24,146,424,97,-97,-63,-24
58,53,-4,-56,31,24,131,380,82,-97,-63,-19
48,39,-9,-43,29,14,112,336,63,-97,-63,-24
43,39,-4,-41,24,17,97,292,48,-97,-63,-24
39,39,0,-39,19,19,78,258,34,-102,-63,-24
34,34,0,-34,17,17,58,214,19,-102,-68,-24
34,34,0,-34,17,17,48,175,9,-92,-63,-29
29,39,9,-34,9,24,39,141,4,-87,-63,-29
29,29,0,-29,14,14,29,112,0,-78,-53,-24
24,29,4,-26,9,17,14,87,-4,-68,-58,-24
4,19,14,-12,-4,17,4,43,-14,-63,-53,-34
-4,19,24,-7,-14,21,-9,14,-19,-63,-53,-43
-4,14,19,-4,-12,17,-9,-4,-24,-58,-48,-39
-9,14,24,-2,-17,19,-14,-19,-24,-53,-43,-39
-14,14,29,0,-21,21,-19,-34,-19,-43,-43,-39
-14,9,24,2,-19,17,-19,-39,-19,-39,-43,-34
-14,9,24,2,-19,17,-19,-48,-19,-34,-34,-34
-14,4,19,4,-17,12,-19,-58,-14,-34,-34,-34
-9,14,24,-2,-17,19,-24,-63,-14,-29,-29,-34
-4,19,24,-7,-14,21,-24,-68,-19,-24,-24,-29
-9,19,29,-4,-19,24,-29,-73,-14,-19,-19,-29
-9,19,29,-4,-19,24,-29,-73,-14,-19,-19,-29
-9,19,29,-4,-19,24,-29,-73,-14,-14,-24,-29
-14,19,34,-2,-24,26,-29,-73,-14,-4,-24,-24
-14,19,34,-2,-24,26,-29,-78,-14,-4,-19,-24
-9,14,24,-2,-17,19,-29,-78,-14,0,-19,-24
-9,14,24,-2,-17,19,-29,-78,-14,-9,-24,-24
-9,14,24,-2,-17,19,-29,-78,-19,-19,-24,-24
-9,24,34,-7,-21,29,-24,-78,-19,-19,-24,-29
-9,29,39,-9,-24,34,-24,-78,-19,-19,-29,-34
-4,29,34,-12,-19,31,-24,-78,-19,-14,-29,-34
-4,24,29,-9,-17,26,-24,-78,-19,-14,-29,-39
-9,19,29,-4,-19,24,-24,-73,-19,-14,-29,-34
-9,14,24,-2,-17,19,-24,-73,-19,-14,-29,-29
-14,14,29,0,-21,21,-29,-78,-19,-14,-34,-29
-14,14,29,0,-21,21,-29,-78,-19,-14,-34,-29
-14,14,29,0,-21,21,-24,-78,-19,-14,-29,-29
-9,19,29,-4,-19,24,-24,-78,-19,-14,-29,-29
-9,19,29,-4,-19,24,-24,-78,-19,-19,-29,-29
-9,19,29,-4,-19,24,-24,-78,-19,-24,-29,-29
-14,19,34,-2,-24,26,-24,-78,-24,-24,-29,-29
-14,19,34,-2,-24,26,-24,-82,-24,-24,-34,-29
-14,19,34,-2,-24,26,-24,-78,-24,-24,-34,-29
-14,19,34,-2,-24,26,-24,-73,-24,-29,-34,-29
-14,24,39,-4,-26,31,-29,-73,-24,-29,-29,-29
-14,29,43,-7,-29,36,-34,-73,-24,-29,-29,-29
-9,34,43,-12,-26,39,-34,-73,-29,-29,-34,-29
0,34,34,-17,-17,34,-34,-78,-29,-29,-34,-29
-4,34,39,-14,-21,36,-34,-78,-29,-34,-34,-29
-14,34,48,-9,-31,41,-34,-82,-29,-34,-34,-29
-14,34,48,-9,-31,41,-34,-82,-29,-34,-34,-34
-19,29,48,-4,-34,39,-34,-82,-34,-39,-34,-34
-14,29,43,-7,-29,36,-34,-82,-34,-39,-39,-34
-9,29,39,-9,-24,34,-34,-82,-34,-39,-39,-34
-9,29,39,-9,-24,34,-29,-82,-34,-39,-39,-34
-9,29,39,-9,-24,34,-24,-82,-34,-39,-39,-29
-9,29,39,-9,-24,34,-29,-87,-39,-43,-39,-29
-9,29,39,-9,-24,34,-29,-92,-39,-48,-39,-29
-14,24,39,-4,-26,31,-29,-92,-43,-48,-43,-34
-19,24,43,-2,-31,34,-24,-92,-43,-48,-48,-34
-14,29,43,-7,-29,36,-19,-87,-34,-43,-43,-29
-9,39,48,-14,-29,43,-19,-87,-29,-39,-39,-29
-9,63,73,-26,-41,68,-19,-78,-14,-24,-29,-19
-9,87,97,-39,-53,92,-19,-68,0,-9,-19,-9
-9,92,102,-41,-56,97,-19,-63,4,0,-9,0
-4,97,102,-46,-53,100,-14,-58,4,4,-4,4
-4,107,112,-51,-58,109,-14,-58,9,9,0,9
0,107,107,-53,-53,107,-14,-58,9,4,-4,4
0,107,107,-53,-53,107,-14,-58,9,4,-4,4
4,117,112,-61,-53,114,-9,-53,14,14,0,4
0,136,136,-68,-68,136,-14,-53,29,24,9,14
-4,165,170,-80,-87,168,-24,-63,34,29,24,24
4,180,175,-92,-85,178,-63,-87,29,29,29,39
19,185,165,-102,-73,175,-102,-117,14,29,29,43
43,190,146,-117,-51,168,-117,-136,4,34,29,43
63,195,131,-129,-34,163,-131,-141,4,39,43,53
92,209,117,-151,-12,163,-141,-141,9,53,58,78
97,190,92,-143,2,141,-146,-141,9,58,63,82
97,151,53,-124,21,102,-141,-136,-4,43,53,68
92,122,29,-107,31,75,-131,-131,-24,29,43,53
87,117,29,-102,29,73,-122,-131,-19,34,43,58
68,112,43,-90,12,78,-107,-122,-9,39,43,63
39,92,53,-65,-7,73,-87,-122,-9,34,29,48
4,58,53,-31,-24,56,-68,-122,-19,9,0,19
-24,14,39,4,-31,26,-53,-126,-43,-29,-39,-24
-29,-9,19,19,-24,4,-53,-136,-63,-48,-58,-43
-29,-14,14,21,-21,0,-48,-136,-63,-48,-58,-43
-29,-19,9,24,-19,-4,-48,-136,-63,-53,-68,-48
-34,-29,4,31,-19,-12,-48,-136,-68,-53,-68,-53
-34,-29,4,31,-19,-12,-43,-131,-68,-48,-63,-53
-39,-29,9,34,-24,-9,-43,-131,-68,-48,-63,-53
-39,-29,9,34,-24,-9,-43,-131,-68,-48,-63,-48
-34,-29,4,31,-19,-12,-39,-131,-68,-48,-63,-48
-34,-34,0,34,-17,-17,-39,-131,-68,-48,-63,-48
-34,-34,0,34,-17,-17,-39,-122,-68,-48,-63,-48
-34,-34,0,34,-17,-17,-39,-117,-68,-48,-63,-48
-39,-34,4,36,-21,-14,-34,-117,-63,-48,-63,-48
-43,-39,4,41,-24,-17,-34,-117,-58,-48,-63,-53
-43,-39,4,41,-24,-17,-34,-117,-58,-53,-68,-53
-48,-39,9,43,-29,-14,-29,-117,-58,-53,-68,-53
-43,-34,9,39,-26,-12,-29,-112,-58,-53,-63,-53
-39,-34,4,36,-21,-14,-24,-107,-58,-53,-63,-53
-48,-34,14,41,-31,-9,-24,-112,-53,-48,-68,-58
-73,9,82,31,-78,46,4,-92,-29,-24,-53,-53
-136,63,200,36,-168,131,73,4,53,14,-24,-34
-165,107,273,29,-219,190,200,292,263,136,48,0
-175,151,326,12,-251,239,307,512,497,375,214,82
-141,209,351,-34,-246,280,297,434,614,614,405,209
4,400,395,-202,-195,397,151,185,844,1122,814,502
214,610,395,-412,-90,502,-68,-39,1112,1620,1263,834
551,722,170,-636,190,446,-395,-312,1322,2025,1639,1122
849,639,-209,-744,529,214,-814,-712,1166,1952,1644,1185
810,117,-692,-463,751,-287,-936,-1073,273,736,688,570
424,-473,-897,24,661,-685,-907,-1849,-1512,-1102,-692,-322
175,-722,-897,273,536,-810,-907,-2196,-2215,-1693,-1171,-663
107,-668,-775,280,441,-722,-761,-1742,-1864,-1498,-1083,-644
102,-370,-473,134,287,-422,-556,-1107,-1146,-932,-663,-366
92,-141,-234,24,163,-187,-390,-722,-712,-575,-390,-190
68,-82,-151,7,109,-117,-273,-512,-512,-439,-302,-141
4,-78,-82,36,43,-80,-170,-341,-366,-331,-253,-136
-24,-78,-53,51,14,-65,-78,-195,-234,-244,-204,-126
-29,-73,-43,51,7,-58,-9,-92,-146,-180,-165,-112
-34,-68,-34,51,0,-51,4,-68,-126,-161,-151,-102
-39,-68,-29,53,-4,-48,9,-63,-117,-156,-146,-102
-39,-63,-24,51,-7,-43,14,-48,-102,-146,-141,-102
-43,-53,-9,48,-17,-31,29,-34,-92,-136,-131,-97
-43,-58,-14,51,-14,-36,34,-24,-87,-126,-122,-97
-43,-63,-19,53,-12,-41,34,-14,-78,-122,-122,-97
-48,-63,-14,56,-17,-39,39,-9,-73,-122,-122,-92
-53,-53,0,53,-26,-26,43,0,-68,-117,-126,-92
-53,-53,0,53,-26,-26,43,9,-63,-117,-126,-92
-53,-53,0,53,-26,-26,48,14,-53,-112,-122,-87
-53,-48,4,51,-29,-21,43,14,-48,-112,-117,-82
-48,-48,0,48,-24,-24,43,14,-48,-102,-112,-73
-43,-48,-4,46,-19,-26,43,19,-43,-97,-107,-73
-34,-48,-14,41,-9,-31,48,29,-39,-97,-107,-73
-34,-48,-14,41,-9,-31,53,43,-24,-97,-102,-68
-34,-43,-9,39,-12,-26,63,58,-14,-92,-102,-68
-34,-39,-4,36,-14,-21,63,63,-9,-92,-102,-68
-34,-39,-4,36,-14,-21,68,73,-4,-87,-102,-68
-34,-34,0,34,-17,-17,68,82,0,-87,-92,-68
-34,-34,0,34,-17,-17,73,97,4,-82,-87,-68
-34,-34,0,34,-17,-17,68,102,14,-78,-87,-68
-34,-34,0,34,-17,-17,73,107,19,-78,-92,-58
-34,-29,4,31,-19,-12,78,131,29,-73,-92,-58
-29,-24,4,26,-17,-9,87,151,39,-73,-87,-63
-29,-24,4,26,-17,-9,92,170,48,-68,-87,-63
-24,-24,0,24,-12,-12,102,190,53,-68,-82,-58
-24,-24,0,24,-12,-12,107,209,68,-63,-78,-58
-29,-24,4,26,-17,-9,117,239,78,-53,-78,-53
-29,-24,4,26,-17,-9,126,258,87,-53,-78,-48
-24,-24,0,24,-12,-12,136,292,102,-48,-78,-43
-24,-19,4,21,-14,-7,146,331,117,-48,-73,-43
-19,-19,0,19,-9,-9,156,361,131,-43,-68,-43
-19,-19,0,19,-9,-9,175,400,151,-34,-68,-39
-14,-14,0,14,-7,-7,195,439,175,-24,-63,-39
-14,-4,9,9,-12,2,209,468,185,-19,-63,-39
-9,-4,4,7,-7,0,214,502,200,-14,-63,-34
-9,0,9,4,-9,4,224,536,204,-9,-53,-29
-4,0,4,2,-4,2,239,566,214,-9,-48,-29
0,14,14,-7,-7,14,253,590,214,-9,-43,-24
0,24,24,-12,-12,24,258,605,219,-9,-39,-19
4,34,29,-19,-12,31,258,610,219,-9,-39,-14
14,39,24,-26,-4,31,258,614,204,-24,-39,-14
14,48,34,-31,-9,41,258,614,200,-34,-43,-9
19,53,34,-36,-7,43,258,614,190,-43,-48,-4
19,63,43,-41,-12,53,258,605,170,-53,-53,-4
29,68,39,-48,-4,53,258,595,161,-63,-53,-4
29,68,39,-48,-4,53,253,570,151,-73,-58,-4
29,68,39,-48,-4,53,239,551,131,-87,-63,-4
34,73,39,-53,-2,56,229,541,112,-92,-68,-4
39,78,39,-58,0,58,219,512,97,-102,-68,-4
39,78,39,-58,0,58,209,483,92,-97,-73,-4
39,78,39,-58,0,58,200,453,78,-107,-73,-9
48,68,19,-58,14,43,175,419,63,-107,-78,-9
48,63,14,-56,17,39,161,380,53,-107,-82,-9
43,48,4,-46,19,26,141,341,39,-112,-82,-19
43,48,4,-46,19,26,126,302,29,-117,-82,-24
39,48,9,-43,14,29,107,273,19,-117,-78,-24
34,43,9,-39,12,26,87,234,9,-112,-78,-24
34,39,4,-36,14,21,73,195,0,-102,-73,-29
29,39,9,-34,9,24,58,161,-4,-97,-73,-29
29,34,4,-31,12,19,48,126,-4,-87,-58,-24
24,39,14,-31,4,26,34,97,-4,-78,-58,-24
14,29,14,-21,0,21,24,63,-9,-68,-48,-24
14,29,14,-21,0,21,9,43,-9,-63,-43,-24
14,19,4,-17,4,12,4,24,-14,-53,-39,-19
9,14,4,-12,2,9,-4,9,-14,-43,-34,-19
0,14,14,-7,-7,14,-9,-9,-9,-34,-34,-19
-4,9,14,-2,-9,12,-9,-19,-9,-29,-34,-14
-4,9,14,-2,-9,12,-9,-29,-14,-14,-24,-14
-4,4,9,0,-7,7,-9,-39,-14,-4,-24,-14
-4,4,9,0,-7,7,-14,-43,-9,0,-19,-14
-4,0,4,2,-4,2,-14,-48,-9,4,-14,-9
-9,0,9,4,-9,4,-19,-53,-4,9,-9,-9
-9,0,9,4,-9,4,-19,-53,-4,9,-9,-9
-9,0,9,4,-9,4,-19,-53,-4,9,-9,-9
-14,0,14,7,-14,7,-19,-53,-4,14,-4,-4
-14,0,14,7,-14,7,-19,-58,-4,14,0,-4
-9,-4,4,7,-7,0,-19,-58,-4,19,0,-4
-9,-4,4,7,-7,0,-19,-58,4,19,-4,-4
-9,-4,4,7,-7,0,-19,-58,9,19,-4,-4
-9,0,9,4,-9,4,-14,-58,9,19,0,-4
-9,0,9,4,-9,4,-14,-58,9,19,0,-4
-9,0,9,4,-9,4,-14,-58,4,19,0,-4
-14,-4,9,9,-12,2,-14,-58,0,14,0,-9
-19,0,19,9,-19,9,-14,-53,0,14,0,-9
-19,4,24,7,-21,14,-14,-53,0,14,0,-9
-19,4,24,7,-21,14,-19,-53,0,14,-4,-4
-14,4,19,4,-17,12,-19,-48,0,14,-4,0
-14,0,14,7,-14,7,-14,-48,0,14,0,0
-9,0,9,4,-9,4,-14,-48,0,14,0,0
-9,-4,4,7,-7,0,-19,-48,0,14,0,-4
-9,-9,0,9,-4,-4,-24,-48,0,14,0,-9
-14,-9,4,12,-9,-2,-24,-48,-4,14,0,-9
-14,-9,4,12,-9,-2,-24,-53,-4,14,-4,-9
-14,-4,9,9,-12,2,-24,-53,-4,14,-4,-9
-14,0,14,7,-14,7,-24,-53,-4,9,-4,-9
-14,0,14,7,-14,7,-24,-53,-4,9,0,-9
-14,0,14,7,-14,7,-24,-53,-4,9,0,-9
-14,4,19,4,-17,12,-24,-53,-9,9,-4,-9
-9,4,14,2,-12,9,-24,-58,-9,9,-4,-9
-4,4,9,0,-7,7,-19,-58,-9,9,-4,-4
-4,4,9,0,-7,7,-14,-63,-9,14,-4,0
-4,4,9,0,-7,7,-14,-63,-9,14,-4,-4
-9,0,9,4,-9,4,-14,-63,-14,9,-4,-4
-9,0,9,4,-9,4,-14,-68,-14,9,-9,-4
-9,0,9,4,-9,4,-14,-73,-14,9,-9,-4
-9,0,9,4,-9,4,-14,-73,-14,9,-9,-4
-9,0,9,4,-9,4,-14,-73,-14,9,-9,0
-9,0,9,4,-9,4,-19,-73,-19,4,-9,0
-9,0,9,4,-9,4,-19,-73,-19,0,-9,0
-9,0,9,4,-9,4,-19,-73,-19,0,-9,-4
-9,4,14,2,-12,9,-14,-73,-14,0,-9,-4
-9,9,19,0,-14,14,-9,-68,-9,4,-9,0
-9,19,29,-4,-19,24,-9,-68,-9,9,-9,0
-9,39,48,-14,-29,43,-9,-58,4,24,9,14
-9,58,68,-24,-39,63,-9,-48,19,39,29,29
-9,68,78,-29,-43,73,-4,-43,24,43,34,34
-9,78,87,-34,-48,82,0,-39,24,43,34,34
-9,87,97,-39,-53,92,4,-39,29,48,39,39
-9,87,97,-39,-53,92,4,-39,29,43,34,34
-9,87,97,-39,-53,92,0,-43,29,43,29,34
-4,97,102,-46,-53,100,0,-43,34,53,29,34
0,117,117,-58,-58,117,-9,-43,43,68,39,43
4,146,141,-75,-68,143,-24,-53,43,78,53,53
14,156,141,-85,-63,148,-63,-78,39,78,58,68
29,156,126,-92,-48,141,-102,-107,24,78,58,73
53,161,107,-107,-26,134,-117,-122,14,78,58,73
73,165,92,-119,-9,129,-131,-122,14,78,73,82
97,180,82,-139,7,131,-136,-122,19,87,87,102
97,161,63,-129,17,112,-136,-122,19,87,92,102
97,117,19,-107,39,68,-131,-122,4,73,78,87
92,82,-9,-87,51,36,-122,-122,-14,58,63,73
82,82,0,-82,41,41,-112,-122,-14,58,63,78
58,82,24,-70,17,53,-97,-112,-9,58,63,82
39,63,24,-51,7,43,-78,-112,-9,53,48,68
14,29,14,-21,0,21,-58,-112,-19,29,19,39
-24,-9,14,17,-19,2,-43,-117,-39,-4,-14,0
-39,-29,9,34,-24,-9,-43,-126,-53,-19,-29,-14
-39,-34,4,36,-21,-14,-39,-126,-53,-19,-29,-14
-39,-39,0,39,-19,-19,-39,-126,-53,-24,-39,-19
-43,-53,-9,48,-17,-31,-43,-131,-58,-29,-43,-24
-43,-58,-14,51,-14,-36,-43,-131,-58,-29,-43,-24
-48,-58,-9,53,-19,-34,-43,-131,-58,-29,-43,-29
-48,-58,-9,53,-19,-34,-43,-131,-58,-29,-43,-29
-48,-58,-9,53,-19,-34,-39,-126,-58,-29,-43,-29
-53,-63,-9,58,-21,-36,-39,-122,-58,-29,-43,-29
-53,-63,-9,58,-21,-36,-34,-117,-58,-29,-43,-29
-53,-63,-9,58,-21,-36,-29,-117,-58,-29,-43,-29
-53,-63,-9,58,-21,-36,-24,-117,-58,-29,-43,-29
-53,-68,-14,61,-19,-41,-24,-117,-58,-29,-43,-34
-53,-68,-14,61,-19,-41,-24,-117,-58,-34,-48,-39
-58,-68,-9,63,-24,-39,-19,-117,-58,-34,-48,-43
-53,-63,-9,58,-21,-36,-19,-112,-58,-34,-43,-43
-48,-63,-14,56,-17,-39,-14,-107,-58,-34,-43,-43
-68,-63,4,65,-36,-29,-14,-102,-48,-24,-43,-39
-102,-19,82,61,-92,31,14,-73,-19,4,-24,-24
-165,34,200,65,-183,117,92,14,58,53,14,0
-195,78,273,58,-234,175,229,292,263,185,97,39
-185,131,317,26,-251,224,297,444,492,424,273,136
-131,200,331,-34,-231,265,248,297,605,663,473,278
39,380,341,-209,-151,361,68,48,844,1151,858,556
273,580,307,-427,-17,444,-185,-175,1122,1629,1283,873
585,629,43,-607,270,336,-512,-414,1268,1922,1561,1083
858,483,-375,-671,617,53,-932,-780,1049,1737,1468,1068
800,0,-800,-400,800,-400,-1024,-1146,156,590,575,502
395,-551,-946,78,671,-749,-966,-1927,-1629,-1180,-741,-341
161,-732,-893,285,527,-812,-927,-2161,-2176,-1634,-1117,-614
107,-610,-717,251,412,-663,-741,-1595,-1668,-1302,-927,-527
97,-356,-453,129,275,-405,-536,-1005,-1015,-790,-561,-287
82,-170,-253,43,168,-212,-370,-663,-644,-488,-341,-151
58,-112,-170,26,114,-141,-253,-463,-463,-370,-258,-107
-4,-107,-102,56,48,-104,-151,-302,-336,-283,-214,-107
-34,-107,-73,70,19,-90,-68,-175,-219,-209,-170,-102
-39,-102,-63,70,12,-82,-9,-92,-146,-161,-136,-92
-53,-107,-53,80,0,-80,4,-68,-131,-141,-122,-82
-68,-117,-48,92,-9,-82,9,-63,-126,-136,-117,-82
-68,-112,-43,90,-12,-78,9,-53,-117,-131,-122,-87
-73,-102,-29,87,-21,-65,19,-43,-112,-126,-122,-87
-78,-102,-24,90,-26,-63,24,-34,-107,-117,-112,-87
-82,-102,-19,92,-31,-61,24,-24,-97,-112,-112,-87
-82,-102,-19,92,-31,-61,29,-19,-92,-112,-107,-78
-82,-92,-9,87,-36,-51,34,-9,-87,-107,-107,-73
-78,-92,-14,85,-31,-53,34,0,-82,-107,-107,-73
-73,-92,-19,82,-26,-56,39,4,-73,-102,-102,-68
-73,-87,-14,80,-29,-51,39,9,-68,-102,-102,-68
-68,-87,-19,78,-24,-53,43,14,-68,-92,-102,-63
-73,-82,-9,78,-31,-46,43,19,-63,-87,-97,-68
-73,-78,-4,75,-34,-41,48,29,-58,-87,-97,-73
-73,-78,-4,75,-34,-41,48,39,-48,-87,-92,-68
-73,-73,0,73,-36,-36,53,48,-43,-82,-92,-68
-73,-73,0,73,-36,-36,53,53,-39,-82,-92,-68
-73,-78,-4,75,-34,-41,58,63,-34,-78,-92,-68
-68,-73,-4,70,-31,-39,58,73,-19,-78,-82,-63
-63,-73,-9,68,-26,-41,63,87,-4,-73,-78,-58
-63,-73,-9,68,-26,-41,63,97,4,-68,-73,-58
-63,-73,-9,68,-26,-41,73,107,9,-68,-73,-48
-63,-73,-9,68,-26,-41,78,131,19,-63,-73,-48
-58,-73,-14,65,-21,-43,87,151,29,-63,-68,-53
-58,-73,-14,65,-21,-43,92,170,39,-58,-73,-53
-53,-73,-19,63,-17,-46,102,190,43,-58,-73,-48
-53,-68,-14,61,-19,-41,107,214,58,-53,-68,-53
-58,-63,-4,61,-26,-34,117,248,68,-43,-68,-53
-58,-63,-4,61,-26,-34,131,268,78,-43,-63,-53
-53,-63,-9,58,-21,-36,146,302,92,-39,-58,-53
-58,-63,-4,61,-26,-34,156,341,107,-39,-53,-53
-58,-68,-9,63,-24,-39,165,370,122,-34,-48,-53
-58,-68,-9,63,-24,-39,185,409,131,-29,-53,-48
-53,-63,-9,58,-21,-36,204,448,146,-24,-53,-48
-48,-39,9,43,-29,-14,219,478,156,-19,-53,-43
-39,-24,14,31,-26,-4,224,512,170,-14,-53,-34
-39,-19,19,29,-29,0,234,541,175,-9,-48,-29
-34,-19,14,26,-24,-2,248,566,185,-9,-48,-29
-29,-9,19,19,-24,4,263,590,185,-9,-43,-29
-29,-4,24,17,-26,9,268,605,190,-9,-39,-29
-24,4,29,9,-26,17,268,605,190,-9,-39,-24
-14,9,24,2,-19,17,268,605,175,-24,-39,-24
-19,14,34,2,-26,24,268,605,165,-34,-39,-19
-19,14,34,2,-26,24,268,605,151,-43,-39,-14
-19,24,43,-2,-31,34,263,595,131,-53,-43,-14
-9,29,39,-9,-24,34,258,585,122,-63,-43,-14
-9,29,39,-9,-24,34,253,561,112,-73,-53,-9
-9,29,39,-9,-24,34,239,541,92,-87,-63,-4
-9,34,43,-12,-26,39,224,522,73,-92,-68,-4
-9,39,48,-14,-29,43,209,483,58,-102,-68,-4
-9,39,48,-14,-29,43,200,453,53,-102,-73,-4
-9,39,48,-14,-29,43,190,424,39,-117,-73,-9
0,34,34,-17,-17,34,165,390,24,-117,-78,-9
0,34,34,-17,-17,34,151,351,14,-117,-82,-9
-4,9,14,-2,-9,12,131,312,0,-117,-82,-19
-4,0,4,2,-4,2,117,273,-9,-117,-82,-24
-9,0,9,4,-9,4,97,244,-19,-117,-78,-24
-14,-4,9,9,-12,2,78,204,-29,-112,-78,-24
-9,-4,4,7,-7,0,63,165,-34,-102,-73,-24
-9,0,9,4,-9,4,48,131,-34,-97,-73,-19
-9,-9,0,9,-4,-4,39,102,-34,-87,-58,-14
-14,-9,4,12,-9,-2,24,78,-34,-78,-58,-14
-24,-19,4,21,-14,-7,14,43,-34,-63,-48,-14
-24,-19,4,21,-14,-7,0,24,-29,-53,-43,-14
-24,-24,0,24,-12,-12,-4,4,-29,-43,-34,-9
-29,-24,4,26,-17,-9,-14,-9,-24,-34,-24,-9
-39,-24,14,31,-26,-4,-19,-29,-19,-24,-19,-9
-43,-29,14,36,-29,-7,-19,-39,-19,-19,-14,-4
-43,-24,19,34,-31,-2,-24,-48,-19,-9,-4,-4
-43,-24,19,34,-31,-2,-29,-58,-14,-4,-4,-4
-43,-24,19,34,-31,-2,-34,-58,-9,0,0,-4
-43,-29,14,36,-29,-7,-34,-58,-9,4,4,0
-48,-29,19,39,-34,-4,-39,-63,-4,9,9,0
-48,-29,19,39,-34,-4,-39,-63,-4,9,9,0
-48,-29,19,39,-34,-4,-39,-63,-4,9,4,0
-53,-29,24,41,-39,-2,-39,-63,-4,14,4,4
-53,-29,24,41,-39,-2,-39,-68,-4,14,9,4
-48,-34,14,41,-31,-9,-39,-68,-4,19,9,4
-43,-34,9,39,-26,-12,-39,-68,0,19,4,4
-39,-34,4,36,-21,-14,-39,-68,0,19,4,4
-39,-34,4,36,-21,-14,-34,-68,0,19,9,4
-39,-39,0,39,-19,-19,-34,-68,0,19,9,4
-39,-39,0,39,-19,-19,-34,-73,0,19,9,0
-43,-43,0,43,-21,-21,-34,-78,0,14,9,-9
-48,-43,4,46,-26,-19,-34,-73,-4,14,9,-9
-48,-43,4,46,-26,-19,-34,-73,-9,14,9,-9
-53,-43,9,48,-31,-17,-39,-73,-9,14,4,-4
-53,-43,9,48,-31,-17,-39,-68,-9,14,4,0
-53,-43,9,48,-31,-17,-34,-68,-9,14,9,0
-48,-39,9,43,-29,-14,-34,-68,-9,14,9,0
-48,-39,9,43,-29,-14,-34,-68,-9,14,9,0
-48,-39,9,43,-29,-14,-34,-68,-9,14,9,0
-53,-39,14,46,-34,-12,-39,-63,-14,14,9,0
-53,-39,14,46,-34,-12,-43,-63,-14,14,4,0
-53,-39,14,46,-34,-12,-43,-63,-14,14,4,-4
-53,-39,14,46,-34,-12,-43,-63,-14,9,4,-9
-53,-39,14,46,-34,-12,-43,-68,-14,9,4,-9
-53,-39,14,46,-34,-12,-43,-73,-14,9,0,-9
-58,-39,19,48,-39,-9,-43,-73,-19,9,-4,-9
-58,-43,14,51,-36,-14,-43,-78,-19,9,-4,-9
-53,-43,9,48,-31,-17,-43,-78,-19,4,-4,-4
-53,-43,9,48,-31,-17,-43,-82,-19,4,-4,0
-48,-39,9,43,-29,-14,-39,-82,-19,4,0,-4
-48,-39,9,43,-29,-14,-34,-82,-24,0,4,-4
-48,-39,9,43,-29,-14,-34,-82,-24,0,0,-4
-48,-39,9,43,-29,-14,-34,-82,-24,0,0,-4
-48,-39,9,43,-29,-14,-34,-82,-24,0,0,-4
-48,-39,9,43,-29,-14,-34,-82,-24,0,0,0
-53,-39,14,46,-34,-12,-39,-87,-29,0,0,-4
-58,-39,19,48,-39,-9,-39,-92,-29,0,0,-9
-58,-43,14,51,-36,-14,-43,-92,-29,0,-4,-14
-58,-43,14,51,-36,-14,-43,-92,-24,0,-9,-14
-53,-34,19,43,-36,-7,-34,-87,-19,4,-4,-9
-48,-29,19,39,-34,-4,-29,-87,-19,9,0,-9
-48,-4,43,26,-46,19,-29,-78,-9,19,9,0
-48,19,68,14,-58,43,-29,-68,0,29,19,9
-39,34,73,2,-56,53,-24,-53,14,39,34,24
-34,43,78,-4,-56,61,-19,-43,19,43,39,29
-29,58,87,-14,-58,73,-14,-39,29,48,48,39
-29,58,87,-14,-58,73,-14,-39,29,43,43,34
-34,53,87,-9,-61,70,-14,-43,29,43,39,34
-34,58,92,-12,-63,75,-9,-43,34,53,39,34
-29,78,107,-24,-68,92,-14,-39,48,63,48,43
-24,107,131,-41,-78,119,-24,-43,53,68,63,53
-14,122,136,-53,-75,129,-63,-68,48,68,68,63
0,126,126,-63,-63,126,-102,-97,34,68,68,63
24,126,102,-75,-39,114,-122,-117,14,68,68,63
43,126,82,-85,-19,104,-141,-122,4,68,82,73
78,151,73,-114,2,112,-151,-126,19,82,97,97
87,141,53,-114,17,97,-156,-131,29,87,102,102
87,102,14,-95,36,58,-151,-131,14,73,87,87
82,73,-9,-78,46,31,-141,-131,-4,58,73,73
78,63,-14,-70,46,24,-136,-131,-9,58,73,73
58,53,-4,-56,31,24,-126,-122,-9,58,73,73
29,43,14,-36,7,29,-107,-122,-9,63,68,73
-4,19,24,-7,-14,21,-87,-122,-19,48,48,58
-39,-19,19,29,-29,0,-68,-126,-39,9,9,14
-48,-39,9,43,-29,-14,-63,-136,-53,-9,-9,-4
-48,-48,0,48,-24,-24,-58,-136,-53,-14,-9,-9
-48,-58,-9,53,-19,-34,-58,-136,-53,-24,-19,-19
-53,-68,-14,61,-19,-41,-58,-136,-58,-29,-24,-24
-53,-68,-14,61,-19,-41,-53,-131,-58,-29,-24,-24
-58,-68,-9,63,-24,-39,-53,-131,-58,-29,-24,-29
-58,-68,-9,63,-24,-39,-53,-131,-58,-29,-24,-29
-58,-68,-9,63,-24,-39,-43,-131,-58,-29,-29,-29
-63,-73,-9,68,-26,-41,-39,-131,-58,-29,-34,-29
-63,-73,-9,68,-26,-41,-39,-126,-58,-29,-34,-29
-63,-73,-9,68,-26,-41,-39,-126,-58,-29,-34,-29
-63,-73,-9,68,-26,-41,-34,-126,-58,-29,-34,-29
-63,-78,-14,70,-24,-46,-34,-126,-58,-29,-34,-34
-58,-73,-14,65,-21,-43,-34,-126,-58,-29,-34,-34
-58,-68,-9,63,-24,-39,-29,-126,-58,-24,-29,-34
-53,-63,-9,58,-21,-36,-29,-122,-63,-24,-24,-34
-48,-63,-14,56,-17,-39,-24,-117,-68,-24,-24,-34
-68,-73,-4,70,-31,-39,-34,-126,-63,-29,-34,-34
-102,-39,63,70,-82,12,-14,-112,-39,-14,-24,-24
-165,14,180,75,-173,97,63,-43,4,0,-14,-19
-195,58,253,68,-224,156,200,214,175,97,39,0
-219,82,302,68,-261,192,317,468,405,283,175,58
-200,122,322,39,-261,222,317,424,517,468,336,161
-58,312,370,-126,-214,341,180,170,751,956,707,434
146,522,375,-334,-114,448,-29,-58,1024,1434,1117,746
517,702,185,-610,165,444,-390,-322,1327,1971,1610,1102
849,688,-161,-768,505,263,-844,-712,1263,2030,1732,1234
868,185,-683,-527,775,-248,-1005,-1068,468,936,863,678
541,-385,-927,-78,734,-656,-1015,-1839,-1220,-780,-429,-156
244,-702,-946,229,595,-824,-1015,-2303,-2132,-1551,-1039,-575
126,-717,-844,295,485,-780,-868,-1966,-1991,-1537,-1083,-634
117,-419,-536,151,326,-478,-629,-1249,-1229,-941,-663,-356
102,-190,-292,43,197,-241,-429,-780,-751,-556,-390,-180
73,-117,-190,21,131,-153,-302,-556,-541,-424,-283,-122
4,-97,-102,46,53,-100,-190,-370,-385,-322,-214,-107
-29,-97,-68,63,19,-82,-92,-219,-244,-224,-165,-97
-39,-92,-53,65,7,-73,-19,-112,-146,-151,-126,-82
-48,-87,-39,68,-4,-63,0,-82,-126,-131,-112,-73
-58,-87,-29,73,-14,-58,9,-73,-117,-126,-107,-73
-58,-82,-24,70,-17,-53,9,-58,-107,-122,-107,-73
-63,-73,-9,68,-26,-41,19,-43,-102,-117,-102,-68
-63,-73,-9,68,-26,-41,24,-34,-92,-102,-87,-68
-63,-73,-9,68,-26,-41,24,-24,-78,-92,-82,-68
-58,-73,-14,65,-21,-43,29,-19,-73,-92,-78,-63
-53,-63,-9,58,-21,-36,34,-9,-68,-87,-78,-63
-53,-63,-9,58,-21,-36,34,0,-68,-87,-78,-68
-53,-63,-9,58,-21,-36,39,4,-63,-82,-73,-68
-53,-58,-4,56,-24,-31,39,9,-58,-82,-73,-68
-48,-58,-9,53,-19,-34,43,14,-58,-73,-73,-63
-53,-63,-9,58,-21,-36,48,19,-53,-68,-68,-58
-53,-68,-14,61,-19,-41,58,29,-48,-68,-68,-53
-53,-68,-14,61,-19,-41,58,39,-34,-68,-63,-48
-53,-63,-9,58,-21,-36,63,48,-24,-63,-63,-48
-53,-53,0,53,-26,-26,63,53,-19,-63,-63,-48
-53,-48,4,51,-29,-21,68,63,-14,-58,-63,-48
-53,-43,9,48,-31,-17,68,73,-9,-58,-53,-48
-53,-43,9,48,-31,-17,73,87,-4,-53,-48,-48
-53,-43,9,48,-31,-17,73,97,4,-48,-48,-48
-53,-43,9,48,-31,-17,82,107,9,-48,-53,-39
-53,-43,9,48,-31,-17,87,131,19,-43,-53,-39
-48,-43,4,46,-26,-19,97,151,29,-43,-48,-43
-48,-43,4,46,-26,-19,102,175,39,-39,-48,-48
-43,-43,0,43,-21,-21,112,200,43,-39,-43,-48
-43,-39,4,41,-24,-17,117,219,63,-34,-39,-48
-48,-34,14,41,-31,-9,126,248,78,-24,-39,-43
-48,-34,14,41,-31,-9,136,263,87,-19,-34,-39
-43,-34,9,39,-26,-12,146,292,102,-9,-29,-34
-43,-29,14,36,-29,-7,156,331,117,-9,-24,-34
-39,-29,9,34,-24,-9,165,361,131,-4,-19,-34
-29,-29,0,29,-14,-14,185,400,141,-4,-24,-34
-14,-24,-9,19,-2,-17,204,439,156,-4,-24,-39
-14,-9,4,12,-9,-2,229,478,165,0,-24,-39
-9,-4,4,7,-7,0,244,522,180,4,-24,-34
-14,-4,9,9,-12,2,253,551,190,14,-19,-24
-14,-9,4,12,-9,-2,268,575,204,19,-19,-19
-14,0,14,7,-14,7,283,600,204,19,-14,-14
-19,4,24,7,-21,14,287,614,209,19,-9,-9
-14,14,29,0,-21,21,287,619,209,19,-9,-9
-4,19,24,-7,-14,21,287,624,195,4,-9,-14
0,24,24,-12,-12,24,287,629,190,0,-4,-9
9,24,14,-17,-2,19,287,634,180,-4,0,-4
9,43,34,-26,-12,39,283,629,161,-9,-4,-4
19,58,39,-39,-9,48,278,624,151,-14,-4,-4
19,48,29,-34,-4,39,278,600,141,-24,-9,-4
19,39,19,-29,0,29,268,580,122,-39,-14,-4
24,43,19,-34,2,31,258,566,102,-43,-19,0
29,48,19,-39,4,34,248,531,87,-53,-19,4
34,53,19,-43,7,36,239,507,82,-53,-24,4
39,58,19,-48,9,39,229,483,68,-68,-24,0
48,53,4,-51,21,29,204,448,53,-73,-29,0
48,53,4,-51,21,29,190,409,43,-78,-34,0
43,39,-4,-41,24,17,175,380,29,-82,-39,-9
43,39,-4,-41,24,17,165,351,19,-87,-43,-14
39,39,0,-39,19,19,146,302,4,-87,-39,-14
34,34,0,-34,17,17,126,244,-9,-82,-39,-14
34,29,-4,-31,19,12,102,204,-14,-73,-34,-19
29,29,0,-29,14,14,78,170,-14,-68,-34,-19
29,24,-4,-26,17,9,68,141,-14,-58,-19,-14
24,29,4,-26,9,17,53,117,-14,-48,-19,-14
14,19,4,-17,4,12,48,82,-14,-39,-9,-14
14,19,4,-17,4,12,39,63,-9,-34,-4,-14
14,9,-4,-12,9,2,34,39,-14,-24,-4,-9
9,4,-4,-7,7,0,24,19,-14,-14,-4,-9
4,4,0,-4,2,2,19,0,-9,-4,0,-9
4,0,-4,-2,4,-2,19,-9,-9,0,4,-4
4,9,4,-7,0,7,19,-19,-9,9,14,-4
4,14,9,-9,-2,12,19,-29,-4,14,14,-4
4,14,9,-9,-2,12,14,-29,0,19,19,-4
4,9,4,-7,0,7,14,-29,0,24,24,0
0,9,9,-4,-4,9,9,-34,4,29,29,0
0,9,9,-4,-4,9,9,-34,4,29,29,0
4,9,4,-7,0,7,9,-34,9,34,24,0
4,9,4,-7,0,7,9,-34,14,43,24,4
4,9,4,-7,0,7,9,-39,14,43,29,4
9,4,-4,-7,7,0,9,-39,14,48,29,4
9,4,-4,-7,7,0,4,-39,19,48,29,4
9,4,-4,-7,7,0,0,-39,19,48,34,4
9,14,4,-12,2,9,4,-39,19,48,39,4
9,19,9,-14,0,14,4,-39,19,48,39,4
9,19,9,-14,0,14,4,-34,24,53,39,9
4,14,9,-9,-2,12,4,-29,29,53,39,9
0,14,14,-7,-7,14,4,-24,29,58,39,9
0,14,14,-7,-7,14,4,-24,29,63,39,9
0,14,14,-7,-7,14,4,-29,29,63,34,9
4,14,9,-9,-2,12,9,-29,29,63,34,9
4,9,4,-7,0,7,14,-29,34,63,39,9
9,9,0,-9,4,4,14,-29,39,63,39,9
14,9,-4,-12,9,2,14,-29,39,63,39,9
19,9,-9,-14,14,0,14,-29,39,63,39,9
14,9,-4,-12,9,2,14,-24,34,68,43,9
14,9,-4,-12,9,2,14,-24,34,73,43,9
9,4,-4,-7,7,0,14,-24,34,73,48,9
4,0,-4,-2,4,-2,14,-24,34,68,53,9
4,0,-4,-2,4,-2,14,-24,34,68,58,9
4,0,-4,-2,4,-2,14,-24,34,68,58,9
0,4,4,-2,-2,4,9,-24,24,63,48,9
0,4,4,-2,-2,4,4,-29,19,58,43,9
4,4,0,-4,2,2,4,-29,19,53,43,9
4,4,0,-4,2,2,4,-34,19,53,43,9
4,9,4,-7,0,7,4,-34,19,53,43,0
0,9,9,-4,-4,9,4,-34,14,48,43,-4
0,9,9,-4,-4,9,4,-34,14,48,39,-4
0,9,9,-4,-4,9,4,-34,14,48,39,-4
0,9,9,-4,-4,9,4,-34,14,48,39,-4
0,9,9,-4,-4,9,4,-34,14,48,39,0
0,9,9,-4,-4,9,0,-39,9,48,39,0
0,9,9,-4,-4,9,0,-43,9,48,39,0
0,4,4,-2,-2,4,-4,-48,4,43,34,-4
0,4,4,-2,-2,4,-4,-53,4,39,29,-4
0,14,14,-7,-7,14,0,-48,9,43,29,0
4,29,24,-17,-9,26,4,-43,19,48,29,0
4,43,39,-24,-17,41,4,-34,29,58,39,9
9,58,48,-34,-19,53,9,-29,39,68,48,19
4,68,63,-36,-29,65,9,-24,48,73,58,24
0,78,78,-39,-39,78,9,-19,58,78,68,29
0,82,82,-41,-41,82,14,-14,58,78,68,34
0,82,82,-41,-41,82,19,-9,58,73,63,34
4,87,82,-46,-39,85,24,-9,58,73,63,34
9,87,78,-48,-34,82,19,-14,58,73,63,34
14,97,82,-56,-34,90,19,-14,63,82,68,34
19,117,97,-68,-39,107,9,-14,73,92,78,43
19,141,122,-80,-51,131,-4,-24,73,97,92,53
24,146,122,-85,-48,134,-43,-48,68,97,97,68
39,146,107,-92,-34,126,-87,-78,53,97,97,73
63,146,82,-104,-9,114,-107,-92,43,97,97,73
82,151,68,-117,7,109,-122,-92,43,102,112,82
107,170,63,-139,21,117,-126,-92,48,117,122,102
112,151,39,-131,36,95,-126,-92,48,117,122,102
117,112,-4,-114,61,53,-122,-92,34,102,107,87
112,82,-29,-97,70,26,-112,-97,14,87,92,73
102,82,-19,-92,61,31,-102,-102,14,87,92,73
78,82,4,-80,36,43,-87,-92,19,87,92,73
48,63,14,-56,17,39,-68,-92,19,82,78,58
9,29,19,-19,-4,24,-48,-92,9,58,48,29
-24,-9,14,17,-19,2,-34,-97,-9,29,19,-4
-34,-29,4,31,-19,-12,-34,-107,-29,14,9,-19
-39,-34,4,36,-21,-14,-29,-107,-34,9,9,-24
-39,-39,0,39,-19,-19,-29,-107,-34,4,0,-29
-43,-48,-4,46,-19,-26,-29,-107,-39,0,-4,-34
-43,-48,-4,46,-19,-26,-24,-102,-39,0,-9,-34
-48,-48,0,48,-24,-24,-24,-102,-39,0,-14,-39
-48,-48,0,48,-24,-24,-24,-102,-39,0,-14,-39
-48,-48,0,48,-24,-24,-19,-102,-39,0,-14,-39
-53,-53,0,53,-26,-26,-19,-107,-39,0,-14,-39
-53,-53,0,53,-26,-26,-19,-107,-39,0,-14,-39
-53,-53,0,53,-26,-26,-19,-107,-39,0,-14,-39
-53,-53,0,53,-26,-26,-14,-107,-39,0,-14,-39
-53,-58,-4,56,-24,-31,-14,-107,-39,0,-14,-43
-53,-58,-4,56,-24,-31,-14,-107,-39,-4,-19,-43
-58,-63,-4,61,-26,-34,-9,-107,-39,-4,-24,-43
