I,II,III,aVR,aVL,aVF,V1,V2,V3,V4,V5,V6,
-19,-48,-29,34,4,-39,39,29,0,-29,-9,-48
-19,-53,-34,36,7,-43,39,29,0,-29,-9,-48
-19,-58,-39,39,9,-48,39,29,0,-29,-9,-48
-24,-58,-34,41,4,-46,39,29,-4,-29,-9,-53
-29,-58,-29,43,0,-43,39,29,-9,-29,-9,-58
-29,-58,-29,43,0,-43,39,29,-9,-29,-9,-58
-29,-58,-29,43,0,-43,39,29,-9,-29,-9,-58
-29,-58,-29,43,0,-43,39,29,-9,-24,-9,-58
-29,-58,-29,43,0,-43,39,29,-9,-19,-9,-58
-29,-58,-29,43,0,-43,43,34,-9,-19,-14,-58
-29,-58,-29,43,0,-43,48,39,-9,-19,-19,-58
-29,-58,-29,43,0,-43,48,39,-14,-29,-19,-63
-29,-58,-29,43,0,-43,48,39,-19,-39,-19,-68
-34,-58,-24,46,-4,-41,34,19,-24,-39,-19,-68
-39,-58,-19,48,-9,-39,19,0,-29,-39,-19,-68
-48,-58,-9,53,-19,-34,29,9,-29,-34,-14,-58
-58,-58,0,58,-29,-29,39,19,-29,-29,-9,-48
-48,-58,-9,53,-19,-34,39,19,-29,-29,-9,-48
-39,-58,-19,48,-9,-39,39,19,-29,-29,-9,-48
-39,-58,-19,48,-9,-39,39,14,-34,-39,-19,-58
-39,-58,-19,48,-9,-39,39,9,-39,-48,-29,-68
-29,-58,-29,43,0,-43,39,9,-39,-48,-29,-68
-19,-58,-39,39,9,-48,39,9,-39,-48,-29,-68
-29,-53,-24,41,-2,-39,39,14,-39,-39,-24,-63
-39,-48,-9,43,-14,-29,39,19,-39,-29,-19,-58
-43,-48,-4,46,-19,-26,39,19,-39,-29,-19,-58
-48,-48,0,48,-24,-24,39,19,-39,-29,-19,-58
-48,-43,4,46,-26,-19,39,19,-39,-29,-24,-63
-48,-39,9,43,-29,-14,39,19,-39,-29,-29,-68
-39,-39,0,39,-19,-19,39,19,-39,-39,-29,-68
-29,-39,-9,34,-9,-24,39,19,-39,-48,-29,-68
-29,-39,-9,34,-9,-24,39,19,-34,-39,-24,-58
-29,-39,-9,34,-9,-24,39,19,-29,-29,-19,-48
-29,-29,0,29,-14,-14,43,19,-29,-24,-14,-48
-29,-14,14,21,-21,0,53,24,-24,-14,-4,-43
-29,0,29,14,-29,14,63,29,-19,-9,0,-39
-34,19,53,7,-43,36,63,39,-9,0,9,-34
-19,43,63,-12,-41,53,58,48,0,9,24,-19
-9,53,63,-21,-36,58,39,58,0,14,24,-14
9,63,53,-36,-21,58,19,48,9,14,9,-19
29,68,39,-48,-4,53,4,48,14,14,9,-24
39,112,73,-75,-17,92,0,53,24,34,34,-4
73,156,82,-114,-4,119,-24,48,43,58,58,14
87,185,97,-136,-4,141,-63,48,53,82,73,29
92,209,117,-151,-12,163,-102,34,53,97,97,48
102,214,112,-158,-4,163,-131,14,53,87,92,48
107,214,107,-161,0,161,-136,0,48,78,82,53
107,214,107,-161,0,161,-151,-14,34,78,87,53
102,209,107,-156,-2,158,-146,-39,9,78,87,53
97,200,102,-148,-2,151,-146,-53,-4,63,87,58
92,200,107,-146,-7,153,-151,-68,-19,58,82,68
87,190,102,-139,-7,146,-146,-58,-19,58,82,68
82,180,97,-131,-7,139,-126,-48,-14,58,87,68
78,161,82,-119,-2,122,-102,-48,-14,48,82,58
58,126,68,-92,-4,97,-68,-29,-19,29,63,39
39,92,53,-65,-7,73,-34,-14,-24,9,43,19
19,53,34,-36,-7,43,-4,4,-24,0,34,4
-14,29,43,-7,-29,36,19,14,-29,0,19,-9
-29,9,39,9,-34,24,24,19,-29,4,14,-19
-48,-14,34,31,-41,9,29,14,-34,-14,4,-39
-58,-29,29,43,-43,0,34,9,-43,-34,-19,-58
-68,-39,29,53,-48,-4,39,14,-43,-43,-19,-63
-73,-53,19,63,-46,-17,43,14,-43,-48,-24,-68
-73,-53,19,63,-46,-17,43,19,-48,-48,-24,-78
-73,-58,14,65,-43,-21,43,19,-53,-58,-24,-78
-73,-63,9,68,-41,-26,48,19,-53,-58,-29,-78
-78,-68,9,73,-43,-29,53,19,-53,-53,-29,-78
-82,-78,4,80,-43,-36,53,19,-48,-53,-29,-78
-82,-78,4,80,-43,-36,53,24,-48,-58,-29,-82
-92,-78,14,85,-53,-31,48,19,-48,-63,-29,-82
-92,-78,14,85,-53,-31,48,14,-48,-63,-34,-82
-92,-73,19,82,-56,-26,53,14,-48,-58,-29,-82
-87,-63,24,75,-56,-19,53,19,-43,-43,-24,-82
-82,-53,29,68,-56,-12,58,48,0,-14,4,-73
-78,-39,39,58,-58,0,68,78,43,34,43,-58
-43,0,43,21,-43,21,63,102,117,126,122,-4
19,14,-4,-17,12,4,24,107,195,234,224,58
141,82,-58,-112,100,12,-117,39,258,370,414,180
322,214,-107,-268,214,53,-351,-78,287,546,653,375
531,458,-73,-495,302,192,-595,-185,317,712,907,624
736,800,63,-768,336,431,-854,-322,292,849,1146,907
946,1312,366,-1129,290,839,-1132,-595,102,976,1385,1234
1083,1937,854,-1510,114,1395,-1634,-1390,-492,1019,1566,1576
1220,2430,1210,-1825,4,1820,-2244,-2371,-1395,761,1542,1883
1376,2542,1166,-1959,104,1854,-2586,-3196,-2479,141,1234,2025
1424,2503,1078,-1964,173,1790,-2781,-3601,-3132,-351,1024,2220
1410,2488,1078,-1949,165,1783,-2771,-3552,-3172,-473,1054,2586
1376,2059,683,-1717,346,1371,-2547,-3230,-2806,-522,956,2630
1298,1371,73,-1334,612,722,-1952,-2435,-2054,-429,932,2503
1132,771,-361,-951,746,204,-1346,-1610,-1415,-395,736,2078
839,287,-551,-563,695,-131,-790,-902,-883,-326,448,1351
492,-14,-507,-239,500,-261,-341,-429,-541,-287,146,639
195,-107,-302,-43,248,-204,-112,-195,-322,-219,-24,190
-24,-180,-156,102,65,-168,58,0,-156,-141,-68,-68
-68,-204,-136,136,34,-170,112,63,-82,-107,-53,-112
-97,-204,-107,151,4,-156,126,82,-48,-78,-34,-112
-112,-204,-92,158,-9,-148,122,78,-39,-53,0,-112
-117,-190,-73,153,-21,-131,122,78,-24,-39,14,-112
-131,-185,-53,158,-39,-119,126,92,-14,-34,24,-117
-131,-185,-53,158,-39,-119,141,92,0,-24,24,-117
-126,-180,-53,153,-36,-117,141,82,9,-14,34,-117
-126,-175,-48,151,-39,-112,136,82,19,-4,43,-117
-126,-170,-43,148,-41,-107,136,92,19,-4,48,-112
-131,-175,-43,153,-43,-109,141,97,24,0,48,-112
-141,-185,-43,163,-48,-114,141,97,29,4,58,-112
-141,-185,-43,163,-48,-114,136,107,34,9,68,-112
-136,-175,-39,156,-48,-107,136,117,34,19,73,-117
-126,-165,-39,146,-43,-102,136,112,43,19,73,-112
-122,-161,-39,141,-41,-100,136,102,48,24,78,-112
-122,-161,-39,141,-41,-100,136,102,48,34,87,-102
-122,-151,-29,136,-46,-90,136,112,58,39,92,-92
-131,-151,-19,141,-56,-85,136,112,63,48,102,-82
-136,-146,-9,141,-63,-78,136,112,73,48,117,-78
-131,-141,-9,136,-61,-75,126,112,78,53,126,-73
-126,-141,-14,134,-56,-78,122,112,78,63,131,-63
-122,-141,-19,131,-51,-80,122,117,87,73,141,-68
-122,-141,-19,131,-51,-80,122,122,97,82,141,-68
-117,-141,-24,129,-46,-82,117,122,107,78,146,-68
-112,-136,-24,124,-43,-80,112,122,112,78,146,-68
-112,-141,-29,126,-41,-85,112,122,117,87,151,-63
-107,-146,-39,126,-34,-92,107,126,126,92,161,-63
-107,-146,-39,126,-34,-92,107,136,136,102,170,-63
-107,-146,-39,126,-34,-92,112,141,146,107,185,-58
-107,-146,-39,126,-34,-92,117,146,151,122,185,-58
-107,-141,-34,124,-36,-87,122,151,161,126,190,-58
-107,-136,-29,122,-39,-82,122,156,165,136,200,-53
-112,-131,-19,122,-46,-75,126,165,180,146,204,-48
-117,-126,-9,122,-53,-68,126,170,190,146,209,-53
-117,-122,-4,119,-56,-63,126,180,200,151,214,-63
-117,-117,0,117,-58,-58,126,190,214,156,219,-63
-117,-117,0,117,-58,-58,126,200,224,161,219,-63
-122,-122,0,122,-61,-61,146,214,239,170,224,-58
-126,-126,0,126,-63,-63,151,224,248,180,229,-58
-141,-126,14,134,-78,-56,165,239,268,190,234,-53
-141,-126,14,134,-78,-56,180,253,287,204,239,-53
-141,-126,14,134,-78,-56,190,278,297,204,244,-58
-151,-131,19,141,-85,-56,200,287,317,214,244,-63
-156,-151,4,153,-80,-73,204,302,326,219,239,-82
-156,-161,-4,158,-75,-82,209,322,341,219,234,-97
-170,-165,4,168,-87,-80,214,336,361,224,224,-107
-175,-170,4,173,-90,-82,219,361,375,224,209,-117
-185,-175,9,180,-97,-82,244,395,405,239,209,-131
-200,-185,14,192,-107,-85,258,429,429,244,204,-141
-214,-190,24,202,-119,-82,283,448,448,253,195,-165
-229,-204,24,217,-126,-90,307,473,468,253,185,-190
-244,-229,14,236,-129,-107,331,512,492,244,161,-209
-253,-248,4,251,-129,-122,351,546,512,239,141,-234
-268,-263,4,265,-136,-129,375,580,536,239,117,-268
-283,-283,0,283,-141,-141,409,610,561,234,92,-297
-283,-297,-14,290,-134,-156,429,644,575,224,68,-326
-292,-317,-24,305,-134,-170,453,683,590,214,43,-361
-317,-346,-29,331,-143,-187,478,712,590,195,9,-395
-346,-366,-19,356,-163,-192,497,741,600,185,-19,-434
-370,-385,-14,378,-178,-200,517,751,605,161,-48,-463
-380,-400,-19,390,-180,-209,536,761,605,146,-82,-483
-390,-429,-39,409,-175,-234,556,766,590,122,-122,-512
-390,-444,-53,417,-168,-248,556,766,570,92,-156,-551
-400,-458,-58,429,-170,-258,546,751,546,53,-190,-580
-400,-478,-78,439,-161,-278,531,736,512,14,-229,-600
-400,-483,-82,441,-158,-283,522,717,478,-19,-263,-614
-400,-478,-78,439,-161,-278,507,678,439,-43,-283,-614
-385,-473,-87,429,-148,-280,483,634,390,-78,-302,-610
-370,-463,-92,417,-139,-278,453,580,336,-107,-322,-605
-346,-439,-92,392,-126,-265,419,522,283,-136,-331,-590
-326,-405,-78,366,-124,-241,370,453,234,-156,-331,-561
-302,-366,-63,334,-119,-214,322,395,190,-161,-307,-522
-263,-331,-68,297,-97,-200,278,346,156,-156,-273,-468
-234,-287,-53,261,-90,-170,239,287,117,-156,-258,-429
-200,-234,-34,217,-82,-134,195,239,82,-151,-229,-380
-190,-214,-24,202,-82,-119,156,190,63,-146,-200,-331
-170,-185,-14,178,-78,-100,126,156,39,-141,-170,-283
-151,-161,-9,156,-70,-85,92,117,19,-126,-141,-239
-131,-131,0,131,-65,-65,68,97,14,-117,-122,-200
-112,-102,9,107,-61,-46,53,68,0,-107,-97,-175
-97,-82,14,90,-56,-34,43,58,-9,-92,-73,-146
-87,-68,19,78,-53,-24,24,34,-14,-92,-53,-122
-82,-58,24,70,-53,-17,9,19,-19,-87,-43,-102
-87,-48,39,68,-63,-4,4,19,-24,-78,-24,-82
-92,-48,43,70,-68,-2,0,9,-24,-73,-19,-73
-78,-34,43,56,-61,4,-4,4,-24,-73,-9,-63
-68,-24,43,46,-56,9,-9,0,-24,-63,0,-58
-58,-19,39,39,-48,9,-9,4,-19,-58,9,-48
-48,-19,29,34,-39,4,-4,9,-14,-58,9,-48
-58,-24,34,41,-46,4,-9,9,-19,-53,14,-43
-58,-24,34,41,-46,4,-9,9,-19,-53,19,-39
-58,-29,29,43,-43,0,-9,9,-19,-48,19,-34
-68,-39,29,53,-48,-4,-4,9,-24,-48,24,-29
-68,-39,29,53,-48,-4,-4,9,-19,-43,29,-29
-68,-39,29,53,-48,-4,-9,9,-19,-43,29,-29
-68,-29,39,48,-53,4,-14,4,-19,-39,29,-29
-73,-19,53,46,-63,17,-14,4,-19,-39,34,-24
-68,-34,34,51,-51,0,-14,4,-19,-43,34,-24
-68,-43,24,56,-46,-9,-14,9,-14,-48,39,-24
-68,-48,19,58,-43,-14,-14,19,-14,-48,39,-29
-63,-48,14,56,-39,-17,-9,29,-14,-48,39,-34
-63,-48,14,56,-39,-17,-9,24,-9,-43,39,-34
-63,-48,14,56,-39,-17,-4,14,-4,-43,39,-34
-68,-48,19,58,-43,-14,-4,14,-4,-39,43,-34
-78,-53,24,65,-51,-14,-4,19,-4,-39,43,-39
-78,-53,24,65,-51,-14,-4,19,-4,-48,43,-39
-78,-58,19,68,-48,-19,0,24,-4,-53,43,-39
-78,-63,14,70,-46,-24,0,19,-4,-53,39,-43
-78,-68,9,73,-43,-29,0,19,-4,-53,29,-43
-82,-68,14,75,-48,-26,4,19,-4,-53,29,-48
-82,-73,9,78,-46,-31,4,19,-4,-58,29,-53
-73,-68,4,70,-39,-31,4,29,-4,-58,29,-58
-68,-63,4,65,-36,-29,9,34,0,-58,29,-58
-68,-63,4,65,-36,-29,9,34,0,-58,24,-58
-68,-63,4,65,-36,-29,4,34,-4,-63,24,-58
-68,-63,4,65,-36,-29,4,29,-4,-63,19,-63
-63,-68,-4,65,-29,-36,4,24,-9,-63,19,-68
-58,-68,-9,63,-24,-39,4,24,-9,-78,19,-68
-58,-63,-4,61,-26,-34,4,24,-9,-78,24,-68
-58,-63,-4,61,-26,-34,0,19,-9,-78,19,-73
-58,-63,-4,61,-26,-34,0,14,-14,-78,19,-73
-63,-73,-9,68,-26,-41,4,14,-14,-78,19,-73
-68,-82,-14,75,-26,-48,4,14,-14,-78,19,-73
-73,-82,-9,78,-31,-46,4,14,-14,-78,19,-78
-78,-87,-9,82,-34,-48,4,14,-19,-82,14,-78
-78,-87,-9,82,-34,-48,4,14,-29,-82,9,-73
-82,-87,-4,85,-39,-46,0,4,-34,-82,9,-73
-82,-87,-4,85,-39,-46,-4,0,-39,-82,9,-73
-78,-82,-4,80,-36,-43,-9,-4,-39,-82,9,-73
-73,-78,-4,75,-34,-41,-9,-9,-39,-87,4,-73
-68,-78,-9,73,-29,-43,-9,-9,-39,-87,4,-78
-68,-73,-4,70,-31,-39,-9,-4,-39,-92,4,-78
-73,-68,4,70,-39,-31,-9,0,-43,-92,4,-78
-73,-68,4,70,-39,-31,-4,0,-43,-87,4,-73
-73,-73,0,73,-36,-36,0,-4,-48,-87,4,-68
-78,-73,4,75,-41,-34,0,-9,-48,-92,4,-73
-82,-73,9,78,-46,-31,-4,-9,-48,-92,0,-73
-82,-73,9,78,-46,-31,-4,-4,-48,-92,0,-73
-82,-68,14,75,-48,-26,-4,-4,-48,-92,4,-73
-78,-73,4,75,-41,-34,-9,-14,-48,-97,4,-73
-73,-78,-4,75,-34,-41,-9,-19,-53,-97,4,-73
-78,-78,0,78,-39,-39,-9,-19,-48,-97,0,-73
-78,-73,4,75,-41,-34,-9,-19,-43,-97,0,-73
-78,-73,4,75,-41,-34,-4,-19,-43,-97,0,-73
-78,-78,0,78,-39,-39,0,-19,-43,-97,0,-73
-82,-78,4,80,-43,-36,-4,-29,-48,-97,0,-78
-92,-78,14,85,-53,-31,-4,-29,-48,-102,0,-82
-92,-78,14,85,-53,-31,-4,-24,-48,-102,0,-82
-92,-78,14,85,-53,-31,-4,-24,-48,-97,0,-82
-92,-73,19,82,-56,-26,-4,-19,-48,-92,4,-78
-92,-73,19,82,-56,-26,-4,-14,-48,-92,9,-73
-92,-73,19,82,-56,-26,-4,-14,-48,-92,9,-73
-92,-73,19,82,-56,-26,-4,-14,-48,-92,4,-78
-87,-78,9,82,-48,-34,-4,-14,-48,-92,0,-82
-87,-78,9,82,-48,-34,-4,-14,-53,-92,0,-82
-78,-73,4,75,-41,-34,0,-14,-48,-87,-34,-78
-68,-68,0,68,-34,-34,0,-19,-48,-87,-68,-78
-68,-58,9,63,-39,-24,0,-19,-48,-87,-87,-78
-68,-48,19,58,-43,-14,0,-19,-48,-87,-107,-78
-82,-48,34,65,-58,-7,4,-14,-43,-87,-112,-78
-82,-39,43,61,-63,2,14,-4,-34,-82,-112,-73
-82,-29,53,56,-68,12,24,0,-29,-78,-117,-68
-73,-9,63,41,-68,26,24,9,-19,-68,-117,-63
-53,19,73,17,-63,46,19,9,-9,-58,-102,-43
-39,34,73,2,-56,53,0,9,-9,-53,-102,-34
-29,43,73,-7,-51,58,-9,9,0,-43,-107,-29
-19,48,68,-14,-43,58,-14,19,4,-34,-97,-24
-9,73,82,-31,-46,78,-14,29,14,-24,-87,-14
24,97,73,-61,-24,85,-34,29,34,-9,-78,-4
48,131,82,-90,-17,107,-73,29,43,14,-63,9
63,161,97,-112,-17,129,-112,14,43,29,-39,29
73,165,92,-119,-9,129,-141,4,48,34,-34,34
78,165,87,-122,-4,126,-146,0,48,39,-34,43
68,165,97,-117,-14,131,-161,-19,39,29,-39,43
53,161,107,-107,-26,134,-156,-48,19,19,-48,43
63,151,87,-107,-12,119,-156,-68,0,4,-53,39
73,151,78,-112,-2,114,-161,-87,-19,0,-63,39
73,156,82,-114,-4,119,-161,-87,-19,0,-63,39
73,161,87,-117,-7,124,-146,-87,-14,0,-58,39
68,146,78,-107,-4,112,-126,-87,-14,0,-53,39
48,117,68,-82,-9,92,-97,-68,-19,-9,-63,29
19,82,63,-51,-21,73,-63,-53,-24,-29,-82,4
-9,43,53,-17,-31,48,-34,-34,-24,-39,-92,-14
-43,14,58,14,-51,36,-9,-24,-34,-48,-107,-29
-58,-9,48,34,-53,19,-4,-19,-39,-53,-112,-39
-73,-34,39,53,-56,2,0,-24,-43,-63,-122,-53
-78,-48,29,63,-53,-9,4,-29,-53,-73,-146,-68
-87,-58,29,73,-58,-14,14,-24,-48,-82,-151,-73
-92,-73,19,82,-56,-26,24,-24,-43,-87,-161,-78
-92,-73,19,82,-56,-26,29,-19,-48,-87,-165,-92
-92,-78,14,85,-53,-31,34,-19,-53,-97,-170,-97
-92,-82,9,87,-51,-36,39,-14,-53,-97,-175,-97
-97,-87,9,92,-53,-39,43,-9,-53,-92,-175,-97
-102,-97,4,100,-53,-46,43,-9,-53,-92,-175,-92
-102,-97,4,100,-53,-46,43,-4,-58,-97,-175,-92
-107,-92,14,100,-61,-39,39,-9,-58,-102,-170,-92
-102,-87,14,95,-58,-36,39,-14,-58,-102,-170,-92
-102,-82,19,92,-61,-31,43,-14,-58,-97,-170,-92
-97,-73,24,85,-61,-24,43,-9,-53,-82,-170,-92
-97,-63,34,80,-65,-14,48,0,-29,-68,-146,-82
-97,-48,48,73,-73,0,58,9,-4,-34,-112,-68
-78,4,82,36,-80,43,63,43,68,53,-39,-29
-29,34,63,-2,-46,48,34,58,146,156,58,19
68,87,19,-78,24,53,-102,-43,165,273,219,126
224,204,-19,-214,122,92,-331,-195,151,429,429,307
453,390,-63,-422,258,163,-566,-292,141,551,644,527
678,673,-4,-675,341,334,-814,-419,78,644,844,780
907,1156,248,-1032,329,702,-1078,-678,-82,761,1049,1073
1063,1751,688,-1407,187,1220,-1566,-1459,-649,795,1195,1381
1254,2200,946,-1727,153,1573,-2220,-2479,-1566,512,1117,1620
1464,2269,805,-1866,329,1537,-2605,-3342,-2664,-131,756,1693
1590,2264,673,-1927,458,1468,-2859,-3821,-3381,-658,517,1859
1654,2283,629,-1969,512,1456,-2908,-3845,-3484,-814,517,2196
1654,1966,312,-1810,671,1139,-2718,-3513,-3074,-771,556,2371
1610,1390,-219,-1500,915,585,-2156,-2708,-2278,-585,668,2376
1400,800,-600,-1100,1000,100,-1532,-1859,-1605,-527,512,2034
1063,326,-736,-695,900,-204,-956,-1127,-1039,-434,263,1390
678,24,-653,-351,666,-314,-483,-619,-668,-380,-14,692
341,-68,-409,-136,375,-239,-229,-351,-419,-297,-161,258
48,-146,-195,48,122,-170,-14,-102,-209,-190,-204,-34
-68,-175,-107,122,19,-141,82,14,-92,-126,-190,-112
-97,-180,-82,139,-7,-131,107,39,-53,-97,-175,-112
-112,-185,-73,148,-19,-129,112,39,-39,-73,-146,-112
-112,-175,-63,143,-24,-119,117,43,-24,-58,-131,-112
-122,-175,-53,148,-34,-114,126,63,-14,-53,-122,-117
-131,-180,-48,156,-41,-114,141,73,0,-43,-117,-117
-136,-180,-43,158,-46,-112,141,73,9,-34,-102,-117
-136,-175,-39,156,-48,-107,141,73,19,-29,-92,-117
-136,-170,-34,153,-51,-102,146,82,19,-34,-87,-112
-131,-170,-39,151,-46,-104,151,87,24,-29,-87,-112
-131,-175,-43,153,-43,-109,151,87,29,-24,-78,-112
-131,-175,-43,153,-43,-109,146,87,39,-19,-68,-107
-126,-165,-39,146,-43,-102,146,87,43,-9,-63,-107
-131,-161,-29,146,-51,-95,146,87,53,-9,-63,-102
-141,-161,-19,151,-61,-90,146,82,58,-4,-58,-102
-141,-161,-19,151,-61,-90,146,82,58,4,-48,-97
-141,-151,-9,146,-65,-80,146,92,68,9,-43,-92
-141,-151,-9,146,-65,-80,146,92,73,24,-39,-87
-136,-146,-9,141,-63,-78,146,92,82,29,-29,-87
-131,-141,-9,136,-61,-75,141,92,92,34,-14,-82
-126,-141,-14,134,-56,-78,141,92,97,43,-4,-73
-122,-136,-14,129,-53,-75,141,107,107,53,4,-73
-122,-131,-9,126,-56,-70,141,122,117,63,4,-68
-122,-131,-9,126,-56,-70,146,122,122,63,14,-68
-122,-126,-4,124,-58,-65,151,122,122,68,19,-68
-117,-126,-9,122,-53,-68,151,122,126,78,24,-63
-107,-126,-19,117,-43,-73,146,126,136,82,34,-63
-107,-126,-19,117,-43,-73,146,136,146,97,39,-63
-107,-126,-19,117,-43,-73,151,141,156,107,48,-58
-112,-126,-14,119,-48,-70,151,146,161,117,48,-58
-117,-122,-4,119,-56,-63,151,151,170,117,53,-58
-117,-122,-4,119,-56,-63,151,156,175,122,63,-53
-122,-122,0,122,-61,-61,156,165,190,126,68,-48
-126,-122,4,124,-65,-58,161,170,200,131,73,-48
-126,-122,4,124,-65,-58,165,180,209,141,78,-53
-126,-117,9,122,-68,-53,161,190,224,146,82,-58
-126,-117,9,122,-68,-53,156,200,234,151,82,-63
-126,-117,9,122,-68,-53,170,214,248,161,87,-63
-126,-117,9,122,-68,-53,170,224,258,170,92,-68
-141,-117,24,129,-82,-46,180,244,283,180,97,-63
-141,-117,24,129,-82,-46,190,263,307,195,102,-63
-136,-117,19,126,-78,-48,200,287,317,195,107,-68
-141,-122,19,131,-80,-51,209,297,336,204,107,-73
-146,-126,19,136,-82,-53,224,312,351,214,107,-82
-146,-122,24,134,-85,-48,239,331,370,219,107,-87
-161,-126,34,143,-97,-46,253,356,395,229,107,-97
-165,-131,34,148,-100,-48,268,390,414,234,102,-107
-175,-136,39,156,-107,-48,292,424,444,248,102,-122
-190,-146,43,168,-117,-51,307,458,468,253,97,-131
-204,-151,53,178,-129,-48,326,478,492,268,87,-146
-219,-165,53,192,-136,-56,346,502,517,273,78,-161
-234,-185,48,209,-141,-68,370,541,541,273,63,-180
-244,-200,43,222,-143,-78,390,575,561,278,53,-204
-268,-219,48,244,-158,-85,419,614,585,273,34,-234
-292,-244,48,268,-170,-97,458,649,610,263,14,-258
-302,-263,39,283,-170,-112,478,683,624,258,-9,-287
-322,-287,34,305,-178,-126,502,722,639,253,-34,-322
-336,-317,19,326,-178,-148,527,751,644,234,-68,-356
-356,-336,19,346,-187,-158,546,780,658,224,-97,-395
-380,-351,29,366,-204,-161,566,800,658,200,-126,-424
-390,-361,29,375,-209,-165,585,819,653,185,-161,-444
-405,-390,14,397,-209,-187,605,824,639,161,-200,-473
-409,-405,4,407,-207,-200,605,824,619,131,-234,-512
-419,-414,4,417,-212,-204,610,814,600,97,-263,-541
-419,-429,-9,424,-204,-219,610,805,570,63,-297,-561
-419,-439,-19,429,-200,-229,600,785,536,29,-331,-580
-419,-439,-19,429,-200,-229,585,746,497,4,-351,-585
-405,-439,-34,422,-185,-236,556,692,448,-34,-375,-585
-390,-434,-43,412,-173,-239,522,629,395,-68,-400,-585
-370,-429,-58,400,-156,-244,483,570,331,-97,-409,-575
-356,-414,-58,385,-148,-236,429,502,273,-117,-409,-551
-331,-375,-43,353,-143,-209,380,434,224,-131,-405,-522
-292,-341,-48,317,-122,-195,336,375,185,-136,-390,-478
-258,-302,-43,280,-107,-173,287,312,141,-141,-375,-439
-219,-253,-34,236,-92,-143,234,258,102,-141,-346,-390
-200,-224,-24,212,-87,-124,195,209,78,-136,-317,-341
-170,-185,-14,178,-78,-100,165,175,48,-131,-287,-292
-146,-161,-14,153,-65,-87,131,126,24,-122,-258,-248
-122,-131,-9,126,-56,-70,107,97,14,-117,-239,-209
-102,-102,0,102,-51,-51,82,68,0,-107,-214,-185
-87,-82,4,85,-46,-39,63,58,-9,-92,-190,-156
-68,-68,0,68,-34,-34,43,39,-14,-92,-170,-131
-53,-58,-4,56,-24,-31,29,29,-19,-87,-161,-112
-48,-43,4,46,-26,-19,19,24,-24,-78,-141,-92
-43,-39,4,41,-24,-17,9,9,-24,-73,-136,-82
-53,-29,24,41,-39,-2,4,0,-29,-73,-126,-68
-68,-24,43,46,-56,9,0,-9,-34,-63,-117,-58
-53,-19,34,36,-43,7,-4,-9,-34,-58,-107,-48
-39,-19,19,29,-29,0,-4,-9,-34,-58,-107,-48
-39,-24,14,31,-26,-4,-9,-9,-34,-53,-102,-43
-29,-24,4,26,-17,-9,-9,-9,-29,-53,-97,-39
-29,-19,9,24,-19,-4,-9,-9,-24,-48,-97,-34
-39,-19,19,29,-29,0,-4,-9,-24,-48,-92,-29
-39,-19,19,29,-29,0,-4,-14,-19,-43,-87,-29
-39,-19,19,29,-29,0,-9,-19,-19,-43,-87,-29
-34,-19,14,26,-24,-2,-9,-19,-19,-39,-87,-29
-34,-19,14,26,-24,-2,-4,-14,-19,-39,-82,-24
-19,-14,4,17,-12,-4,0,-9,-19,-43,-82,-24
-9,-4,4,7,-7,0,4,0,-14,-48,-78,-24
-14,-9,4,12,-9,-2,4,0,-14,-48,-78,-24
-14,-9,4,12,-9,-2,9,0,-14,-48,-78,-24
-29,-14,14,21,-21,0,4,4,-9,-39,-78,-24
-43,-19,24,31,-34,2,4,4,-4,-34,-78,-24
-43,-24,19,34,-31,-2,4,4,-4,-29,-73,-24
-48,-34,14,41,-31,-9,4,9,-4,-29,-73,-29
-39,-34,4,36,-21,-14,4,9,0,-34,-68,-29
-29,-39,-9,34,-9,-24,9,14,4,-34,-63,-29
-29,-43,-14,36,-7,-29,14,14,4,-39,-63,-29
-29,-48,-19,39,-4,-34,19,19,4,-43,-68,-24
-34,-48,-14,41,-9,-31,24,24,4,-43,-73,-29
-34,-53,-19,43,-7,-36,24,29,4,-48,-78,-34
-29,-48,-19,39,-4,-34,19,34,0,-48,-78,-39
-29,-43,-14,36,-7,-29,19,34,0,-48,-78,-39
-29,-43,-14,36,-7,-29,24,29,0,-48,-82,-43
-29,-43,-14,36,-7,-29,24,24,-4,-53,-82,-48
-34,-39,-4,36,-14,-21,24,24,-4,-53,-87,-53
-34,-39,-4,36,-14,-21,24,24,-9,-53,-87,-58
-29,-43,-14,36,-7,-29,29,29,-9,-68,-92,-58
-29,-43,-14,36,-7,-29,34,34,-9,-68,-92,-58
-34,-58,-24,46,-4,-41,29,29,-9,-68,-97,-63
-39,-73,-34,56,-2,-53,29,24,-14,-68,-97,-63
-39,-73,-34,56,-2,-53,34,19,-14,-68,-97,-63
-39,-73,-34,56,-2,-53,34,14,-14,-68,-97,-63
-39,-63,-24,51,-7,-43,34,14,-9,-63,-92,-68
-39,-58,-19,48,-9,-39,34,14,-9,-63,-92,-68
-39,-58,-19,48,-9,-39,34,14,-14,-63,-97,-63
-43,-58,-14,51,-14,-36,29,4,-14,-63,-97,-63
-39,-63,-24,51,-7,-43,24,4,-19,-68,-97,-63
-29,-63,-34,46,2,-48,19,4,-19,-73,-97,-63
-29,-58,-29,43,0,-43,19,0,-19,-78,-102,-63
-29,-58,-29,43,0,-43,19,0,-19,-78,-102,-68
-29,-58,-29,43,0,-43,19,0,-19,-82,-102,-68
-34,-58,-24,46,-4,-41,19,0,-24,-82,-102,-68
-34,-53,-19,43,-7,-36,19,4,-29,-78,-102,-68
-34,-53,-19,43,-7,-36,19,4,-39,-78,-102,-68
-34,-53,-19,43,-7,-36,24,0,-39,-82,-102,-73
-34,-53,-19,43,-7,-36,24,0,-39,-82,-107,-73
-34,-53,-19,43,-7,-36,24,4,-39,-82,-107,-73
-34,-48,-14,41,-9,-31,24,4,-39,-82,-102,-73
-34,-48,-14,41,-9,-31,14,-4,-39,-87,-102,-73
-34,-48,-14,41,-9,-31,9,-9,-43,-87,-102,-73
-39,-53,-14,46,-12,-34,9,-9,-43,-87,-107,-73
-39,-53,-14,46,-12,-34,9,-9,-43,-87,-107,-73
-39,-58,-19,48,-9,-39,14,-9,-43,-87,-107,-73
-39,-68,-29,53,-4,-48,19,-9,-43,-87,-107,-73
-39,-68,-29,53,-4,-48,14,-19,-48,-87,-112,-73
-43,-68,-24,56,-9,-46,14,-19,-48,-92,-117,-73
-43,-58,-14,51,-14,-36,14,-14,-48,-92,-117,-73
-43,-43,0,43,-21,-21,14,-14,-48,-87,-117,-73
-39,-43,-4,41,-17,-24,14,-9,-48,-82,-112,-68
-39,-48,-9,43,-14,-29,19,-9,-48,-78,-107,-68
-39,-48,-9,43,-14,-29,19,-9,-48,-78,-107,-68
-39,-48,-9,43,-14,-29,19,-9,-48,-78,-107,-68
-34,-43,-9,39,-12,-26,19,-9,-48,-78,-107,-68
-29,-29,0,29,-14,-14,29,0,-39,-73,-102,-63
-24,-19,4,21,-14,-7,39,4,-34,-68,-97,-58
-24,0,24,12,-24,12,43,19,-19,-58,-87,-53
-9,24,34,-7,-21,29,39,19,-9,-48,-73,-39
0,34,34,-17,-17,34,19,19,-9,-43,-73,-34
9,43,34,-26,-12,39,9,19,0,-34,-73,-29
19,48,29,-34,-4,39,4,29,4,-24,-58,-24
29,73,43,-51,-7,58,14,43,19,-14,-48,-14
63,97,34,-80,14,65,4,48,43,0,-39,-4
82,131,48,-107,17,90,-34,53,58,24,-24,9
92,161,68,-126,12,114,-73,43,63,39,0,29
102,165,63,-134,19,114,-107,24,68,43,9,34
107,165,58,-136,24,112,-117,9,68,48,14,43
107,170,63,-139,21,117,-141,-9,53,39,9,43
102,170,68,-136,17,119,-146,-39,29,29,0,43
102,161,58,-131,21,109,-146,-53,9,14,-4,39
102,161,58,-131,21,109,-151,-68,-9,9,-14,39
102,161,58,-131,21,109,-156,-73,-14,9,-14,43
102,161,58,-131,21,109,-146,-78,-14,9,-9,48
112,156,43,-134,34,100,-141,-87,-14,9,-4,48
107,136,29,-122,39,82,-126,-78,-19,0,-14,39
78,102,24,-90,26,63,-82,-68,-24,-19,-34,19
48,63,14,-56,17,39,-43,-53,-24,-29,-43,4
9,39,29,-24,-9,34,-14,-39,-29,-39,-58,-9
-9,19,29,-4,-19,24,-4,-29,-29,-43,-63,-19
-34,-9,24,21,-29,7,4,-29,-34,-53,-73,-34
-48,-29,19,39,-34,-4,14,-29,-43,-63,-97,-48
-63,-43,19,53,-41,-12,24,-24,-43,-73,-97,-53
-73,-63,9,68,-41,-26,34,-24,-43,-78,-102,-58
-73,-63,9,68,-41,-26,34,-19,-48,-78,-107,-73
-73,-68,4,70,-39,-31,34,-19,-53,-87,-112,-78
-73,-73,0,73,-36,-36,39,-24,-58,-87,-117,-82
-78,-78,0,78,-39,-39,43,-29,-63,-82,-117,-87
-82,-87,-4,85,-39,-46,43,-29,-58,-82,-117,-87
-82,-87,-4,85,-39,-46,43,-24,-58,-87,-117,-92
-87,-87,0,87,-43,-43,43,-14,-58,-92,-122,-92
-82,-87,-4,85,-39,-46,48,-4,-58,-92,-131,-92
-82,-87,-4,85,-39,-46,53,-4,-63,-97,-131,-97
-78,-82,-4,80,-36,-43,53,0,-63,-92,-131,-102
-87,-87,0,87,-43,-43,48,-9,-53,-97,-126,-92
-97,-87,9,92,-53,-39,48,-19,-43,-82,-112,-78
-107,-39,68,73,-87,14,102,43,29,-29,-92,-73
-87,-14,73,51,-80,29,122,87,107,39,-48,-58
-39,4,43,17,-41,24,63,43,141,141,73,0
68,87,19,-78,24,53,-87,-48,141,283,244,131
287,146,-141,-217,214,2,-307,-136,161,385,439,287
502,302,-200,-402,351,51,-541,-253,126,458,619,478
756,712,-43,-734,400,334,-668,-161,263,692,907,775
936,1234,297,-1085,319,766,-1019,-590,-4,844,1137,1088
1146,1893,746,-1520,200,1320,-1805,-1771,-863,756,1195,1371
1376,2171,795,-1773,290,1483,-2322,-2796,-1903,307,971,1488
1590,2239,649,-1915,470,1444,-2766,-3660,-3123,-458,575,1576
1742,2332,590,-2037,575,1461,-3006,-4069,-3728,-854,419,1834
1839,2239,400,-2039,719,1320,-3059,-4045,-3542,-873,488,2191
1893,1888,-4,-1891,949,941,-2742,-3547,-2971,-751,629,2376
1781,1220,-561,-1500,1171,329,-2083,-2571,-2166,-644,619,2283
1542,668,-873,-1105,1207,-102,-1473,-1712,-1468,-502,517,1888
1083,229,-854,-656,968,-312,-863,-1044,-990,-463,170,1078
673,0,-673,-336,673,-336,-473,-614,-634,-395,-43,531
273,-97,-370,-87,322,-234,-165,-263,-346,-258,-131,122
48,-146,-195,48,122,-170,24,-43,-151,-165,-161,-73
-19,-165,-146,92,63,-156,82,9,-82,-122,-141,-87
-73,-185,-112,129,19,-148,122,39,-39,-82,-107,-102
-82,-175,-92,129,4,-134,122,39,-24,-68,-92,-102
-102,-175,-73,139,-14,-124,126,53,-14,-63,-82,-107
-122,-180,-58,151,-31,-119,141,68,4,-53,-78,-107
-136,-180,-43,158,-46,-112,141,73,19,-43,-63,-107
-126,-175,-48,151,-39,-112,141,73,29,-29,-53,-107
-117,-170,-53,143,-31,-112,146,82,29,-24,-48,-102
-117,-170,-53,143,-31,-112,151,87,34,-19,-48,-102
-122,-175,-53,148,-34,-114,151,87,39,-14,-39,-102
-131,-175,-43,153,-43,-109,146,87,43,-9,-29,-97
-136,-165,-29,151,-53,-97,146,87,43,0,-24,-97
-131,-161,-29,146,-51,-95,151,92,53,0,-24,-92
-131,-161,-29,146,-51,-95,156,92,58,4,-19,-92
-126,-161,-34,143,-46,-97,156,92,58,14,-9,-92
-122,-151,-29,136,-46,-90,156,102,68,19,-4,-92
-126,-151,-24,139,-51,-87,161,112,73,29,0,-87
-126,-146,-19,136,-53,-82,165,122,82,29,9,-87
-117,-141,-24,129,-46,-82,161,112,87,29,19,-82
-107,-141,-34,124,-36,-87,161,102,87,34,24,-73
-102,-136,-34,119,-34,-85,156,112,97,43,34,-73
-102,-131,-29,117,-36,-80,151,122,107,53,34,-68
-102,-131,-29,117,-36,-80,151,126,117,53,43,-68
-102,-126,-24,114,-39,-75,151,131,122,58,48,-68
-107,-126,-19,117,-43,-73,156,131,126,68,53,-63
-107,-126,-19,117,-43,-73,156,136,136,73,63,-63
-107,-126,-19,117,-43,-73,156,141,146,87,63,-63
-107,-126,-19,117,-43,-73,161,141,156,97,68,-58
-112,-131,-19,122,-46,-75,161,146,161,107,68,-58
-117,-131,-14,124,-51,-73,161,151,170,107,73,-58
-117,-131,-14,124,-51,-73,156,156,175,117,82,-53
-122,-131,-9,126,-56,-70,156,165,190,126,87,-48
-126,-131,-4,129,-61,-68,161,170,200,131,92,-48
-126,-131,-4,129,-61,-68,165,180,209,141,97,-53
-126,-126,0,126,-63,-63,165,190,224,146,107,-53
-126,-126,0,126,-63,-63,165,200,234,151,112,-53
-126,-122,4,124,-65,-58,180,214,248,161,117,-53
-126,-117,9,122,-68,-53,180,224,258,170,122,-58
-136,-117,19,126,-78,-48,190,239,278,170,122,-58
-131,-117,14,124,-73,-51,200,253,297,175,122,-63
-131,-117,14,124,-73,-51,209,278,307,175,126,-68
-141,-122,19,131,-80,-51,219,287,326,185,126,-73
-146,-131,14,139,-80,-58,229,307,341,195,126,-82
-146,-131,14,139,-80,-58,239,331,361,200,126,-87
-161,-136,24,148,-92,-56,258,351,380,209,126,-92
-165,-141,24,153,-95,-58,278,380,395,214,122,-97
-175,-146,29,161,-102,-58,302,414,424,234,126,-112
-190,-156,34,173,-112,-61,317,448,448,244,126,-122
-204,-156,48,180,-126,-53,331,468,473,253,117,-131
-219,-165,53,192,-136,-56,346,492,497,253,107,-141
-234,-180,53,207,-143,-63,370,531,522,253,92,-156
-244,-190,53,217,-148,-68,390,566,541,258,82,-175
-263,-200,63,231,-163,-68,414,605,566,258,68,-204
-283,-214,68,248,-175,-73,448,639,590,253,53,-229
-292,-234,58,263,-175,-87,478,673,610,248,29,-258
-312,-258,53,285,-183,-102,512,712,629,244,4,-292
-331,-302,29,317,-180,-136,536,741,634,224,-29,-326
-356,-336,19,346,-187,-158,556,771,649,214,-58,-366
-380,-346,34,363,-207,-156,580,795,658,195,-82,-400
-390,-351,39,370,-214,-156,605,819,663,185,-112,-424
-405,-380,24,392,-214,-178,629,834,653,161,-151,-453
-409,-395,14,402,-212,-190,634,844,639,131,-185,-492
-429,-414,14,422,-222,-200,639,834,619,97,-219,-522
-439,-439,0,439,-219,-219,639,824,590,63,-258,-541
-448,-458,-9,453,-219,-234,629,810,556,29,-297,-570
-458,-468,-9,463,-224,-239,614,775,517,4,-322,-585
-434,-468,-34,451,-200,-251,590,736,468,-29,-351,-595
-409,-463,-53,436,-178,-258,561,688,414,-58,-380,-605
-390,-458,-68,424,-161,-263,527,629,356,-92,-395,-600
-375,-444,-68,409,-153,-256,478,561,302,-117,-400,-580
-351,-405,-53,378,-148,-229,429,492,248,-131,-395,-556
-312,-370,-58,341,-126,-214,385,434,204,-136,-380,-517
-283,-336,-53,309,-114,-195,336,366,165,-141,-370,-478
-248,-292,-43,270,-102,-168,283,307,131,-141,-346,-429
-224,-263,-39,244,-92,-151,239,258,107,-141,-317,-380
-190,-224,-34,207,-78,-129,204,224,78,-141,-287,-331
-165,-200,-34,183,-65,-117,161,175,53,-131,-253,-283
-141,-170,-29,156,-56,-100,126,146,43,-126,-229,-239
-117,-136,-19,126,-48,-78,102,97,24,-117,-200,-204
-97,-112,-14,104,-41,-63,82,68,9,-102,-170,-165
-82,-92,-9,87,-36,-51,63,43,4,-97,-151,-141
-73,-78,-4,75,-34,-41,48,29,0,-87,-141,-122
-68,-63,4,65,-36,-29,34,24,-4,-78,-122,-97
-63,-58,4,61,-34,-26,19,9,-4,-73,-117,-82
-48,-43,4,46,-26,-19,14,4,-9,-73,-107,-68
-39,-34,4,36,-21,-14,9,0,-14,-63,-97,-58
-39,-29,9,34,-24,-9,4,0,-14,-58,-82,-43
-39,-29,9,34,-24,-9,4,0,-14,-58,-78,-39
-48,-34,14,41,-31,-9,0,0,-14,-53,-73,-34
-48,-34,14,41,-31,-9,0,0,-9,-53,-68,-29
-39,-29,9,34,-24,-9,0,-4,-4,-48,-68,-24
-39,-29,9,34,-24,-9,4,-9,-4,-48,-63,-19
-24,-24,0,24,-12,-12,4,-9,0,-43,-58,-19
-9,-19,-9,14,0,-14,0,-9,0,-43,-58,-19
-14,-19,-4,17,-4,-12,0,-4,0,-39,-58,-19
-24,-19,4,21,-14,-7,4,4,0,-39,-53,-14
-19,-24,-4,21,-7,-14,4,4,0,-39,-53,-14
-19,-24,-4,21,-7,-14,4,9,4,-39,-48,-14
-14,-29,-14,21,0,-21,4,9,4,-34,-43,-14
-4,-29,-24,17,9,-26,9,9,4,-29,-39,-14
-14,-29,-14,21,0,-21,9,14,9,-24,-39,-9
-24,-29,-4,26,-9,-17,14,14,14,-24,-39,-4
-24,-29,-4,26,-9,-17,14,14,14,-19,-34,-4
-29,-34,-4,31,-12,-19,14,19,14,-19,-34,-9
-19,-34,-14,26,-2,-24,14,14,14,-29,-34,-9
-9,-39,-29,24,9,-34,19,14,14,-34,-34,-9
-19,-43,-24,31,2,-34,19,14,14,-34,-34,-14
-29,-48,-19,39,-4,-34,19,19,14,-34,-39,-14
-39,-53,-14,46,-12,-34,24,19,14,-34,-39,-19
-43,-63,-19,53,-12,-41,24,19,14,-39,-39,-24
-39,-63,-24,51,-7,-43,24,29,14,-39,-39,-29
-39,-63,-24,51,-7,-43,29,34,19,-39,-39,-29
-34,-63,-29,48,-2,-46,34,34,19,-39,-43,-29
-29,-63,-34,46,2,-48,34,34,14,-43,-43,-29
-34,-63,-29,48,-2,-46,34,34,14,-39,-48,-34
-34,-68,-34,51,0,-51,34,34,9,-34,-48,-39
-29,-68,-39,48,4,-53,34,34,9,-48,-53,-39
-29,-63,-34,46,2,-48,34,34,9,-48,-53,-39
-29,-63,-34,46,2,-48,29,29,9,-48,-58,-43
-29,-63,-34,46,2,-48,29,24,4,-48,-58,-43
-29,-63,-34,46,2,-48,34,24,4,-53,-58,-43
-29,-63,-34,46,2,-48,34,24,4,-58,-58,-43
-29,-63,-34,46,2,-48,29,24,0,-58,-58,-53
-29,-68,-39,48,4,-53,24,24,-9,-63,-63,-58
-29,-68,-39,48,4,-53,24,24,-14,-63,-68,-58
-34,-68,-34,51,0,-51,19,14,-14,-63,-68,-63
-39,-73,-34,56,-2,-53,19,14,-19,-63,-68,-63
-39,-73,-34,56,-2,-53,19,14,-19,-63,-68,-63
-39,-68,-29,53,-4,-48,19,9,-19,-68,-73,-58
-39,-68,-29,53,-4,-48,19,9,-19,-68,-73,-58
-39,-63,-24,51,-7,-43,19,9,-19,-73,-78,-58
-43,-58,-14,51,-14,-36,19,9,-24,-73,-82,-58
-39,-58,-19,48,-9,-39,19,9,-24,-68,-82,-58
-34,-63,-29,48,-2,-46,19,4,-29,-68,-82,-58
-29,-63,-34,46,2,-48,19,-9,-29,-73,-82,-63
-24,-63,-39,43,7,-51,14,-19,-29,-73,-87,-63
-24,-63,-39,43,7,-51,14,0,-29,-73,-87,-63
-24,-58,-34,41,4,-46,14,14,-29,-73,-82,-63
-34,-58,-24,46,-4,-41,14,0,-29,-78,-78,-58
-43,-58,-14,51,-14,-36,19,-9,-34,-78,-73,-53
-48,-58,-9,53,-19,-34,24,-9,-29,-78,-78,-53
-48,-53,-4,51,-21,-29,29,-9,-24,-78,-78,-53
-43,-53,-9,48,-17,-31,29,-9,-24,-73,-78,-53
-39,-58,-19,48,-9,-39,29,-9,-24,-68,-78,-53
-39,-58,-19,48,-9,-39,19,-14,-29,-68,-82,-53
-43,-58,-14,51,-14,-36,14,-9,-29,-73,-87,-53
-43,-58,-14,51,-14,-36,14,-4,-29,-73,-87,-53
-43,-58,-14,51,-14,-36,14,-4,-29,-68,-87,-53
-43,-53,-9,48,-17,-31,14,-9,-34,-73,-87,-53
-43,-53,-9,48,-17,-31,14,-14,-39,-82,-87,-53
-48,-53,-4,51,-21,-29,14,-14,-39,-82,-87,-53
-48,-53,-4,51,-21,-29,14,-14,-34,-78,-92,-58
-53,-58,-4,56,-24,-31,14,-9,-29,-78,-87,-58
-58,-63,-4,61,-26,-34,19,-9,-29,-78,-87,-58
-43,-53,-9,48,-17,-31,19,-9,-29,-78,-87,-58
-29,-48,-19,39,-4,-34,19,-9,-29,-78,-87,-58
-24,-43,-19,34,-2,-31,19,-4,-29,-73,-82,-58
-19,-39,-19,29,0,-29,19,0,-29,-68,-78,-58
-19,-19,0,19,-9,-9,24,4,-24,-63,-73,-48
-14,0,14,7,-14,7,29,9,-14,-53,-63,-39
-14,19,34,-2,-24,26,34,19,-4,-48,-58,-34
0,43,43,-21,-21,43,29,19,9,-39,-43,-19
9,48,39,-29,-14,43,9,19,9,-34,-43,-19
19,53,34,-36,-7,43,0,19,19,-24,-43,-19
29,58,29,-43,0,43,0,34,24,-14,-29,-14
39,82,43,-61,-2,63,4,53,39,-4,-19,-4
73,107,34,-90,19,70,-9,68,73,9,-4,9
92,136,43,-114,24,90,-43,78,92,34,14,29
97,161,63,-129,17,112,-82,63,92,53,39,48
102,165,63,-134,19,114,-112,43,92,58,43,48
107,165,58,-136,24,112,-126,19,82,58,39,53
107,165,58,-136,24,112,-156,-9,63,48,29,53
107,161,53,-134,26,107,-156,-39,34,34,19,53
112,151,39,-131,36,95,-156,-53,9,14,14,48
112,151,39,-131,36,95,-161,-73,-9,9,4,48
112,151,39,-131,36,95,-161,-78,-9,9,4,48
112,156,43,-134,34,100,-146,-82,-4,14,14,48
107,146,39,-126,34,92,-126,-87,-4,19,19,48
87,117,29,-102,29,73,-102,-68,-9,9,4,39
58,82,24,-70,17,53,-73,-58,-14,-9,-14,19
29,43,14,-36,7,29,-43,-43,-14,-19,-24,4
-4,19,24,-7,-14,21,-19,-34,-19,-29,-39,-9
-19,-4,14,12,-17,4,-9,-29,-19,-34,-43,-19
-39,-34,4,36,-21,-14,4,-29,-24,-43,-53,-39
-48,-48,0,48,-24,-24,14,-29,-34,-53,-78,-58
-58,-58,0,58,-29,-29,24,-24,-34,-63,-78,-63
-63,-73,-9,68,-26,-41,34,-24,-29,-68,-82,-68
-63,-73,-9,68,-26,-41,34,-19,-29,-68,-87,-78
-68,-73,-4,70,-31,-39,34,-14,-34,-78,-92,-78
-73,-73,0,73,-36,-36,39,-9,-34,-78,-97,-78
-78,-78,0,78,-39,-39,43,-9,-39,-78,-102,-78
-82,-87,-4,85,-39,-46,43,-9,-39,-82,-107,-78
-82,-87,-4,85,-39,-46,43,-9,-43,-87,-107,-82
-92,-87,4,90,-48,-41,43,-14,-48,-92,-107,-82
-92,-87,4,90,-48,-41,48,-19,-48,-92,-112,-82
-92,-87,4,90,-48,-41,53,-24,-48,-92,-112,-82
-87,-82,4,85,-46,-39,53,-19,-43,-82,-112,-82
-87,-73,14,80,-51,-29,58,-9,-19,-68,-92,-73
-102,-63,39,82,-70,-12,68,0,-4,-53,-78,-63
-97,-19,78,58,-87,29,78,43,58,4,-34,-39
-53,4,58,24,-56,31,82,73,136,87,29,-19
48,58,9,-53,19,34,-24,-9,156,195,170,68
214,156,-58,-185,136,48,-253,-146,126,341,370,239
448,307,-141,-378,295,82,-488,-244,126,453,575,434
683,517,-165,-600,424,175,-717,-312,117,527,751,644
917,941,24,-929,446,483,-961,-468,39,663,966,922
1078,1581,502,-1329,287,1041,-1449,-1205,-414,800,1185,1259
1288,2093,805,-1690,241,1449,-2113,-2259,-1273,605,1166,1512
1556,2161,605,-1859,475,1383,-2571,-3259,-2459,-53,795,1551
1727,2142,414,-1934,656,1278,-2898,-3884,-3333,-649,497,1673
1834,2235,400,-2034,717,1317,-3025,-4030,-3577,-849,468,2000
1878,1995,117,-1937,880,1056,-2903,-3777,-3250,-844,483,2161
1869,1459,-409,-1664,1139,524,-2357,-2962,-2440,-653,619,2230
1703,888,-814,-1295,1259,36,-1742,-2093,-1742,-566,522,1966
1337,380,-956,-858,1146,-287,-1117,-1293,-1132,-468,292,1351
878,48,-829,-463,854,-390,-595,-727,-717,-409,24,697
468,-58,-527,-204,497,-292,-307,-434,-458,-322,-122,263
136,-146,-283,4,209,-214,-58,-161,-239,-209,-161,-24
-14,-190,-175,102,80,-183,68,-14,-97,-136,-141,-92
-78,-204,-126,141,24,-165,117,39,-34,-97,-122,-102
-92,-195,-102,143,4,-148,126,39,-19,-73,-87,-102
-97,-175,-78,136,-9,-126,131,39,-4,-58,-73,-102
-112,-175,-63,143,-24,-119,136,53,4,-53,-63,-107
-122,-180,-58,151,-31,-119,151,63,19,-43,-63,-107
-126,-180,-53,153,-36,-117,151,63,29,-34,-58,-107
-126,-175,-48,151,-39,-112,151,63,39,-24,-53,-107
-126,-170,-43,148,-41,-107,156,73,39,-24,-48,-102
-126,-170,-43,148,-41,-107,161,78,43,-19,-48,-102
-131,-175,-43,153,-43,-109,161,78,48,-14,-39,-102
-131,-175,-43,153,-43,-109,156,78,53,-9,-29,-97
-126,-165,-39,146,-43,-102,156,82,53,0,-19,-97
-122,-161,-39,141,-41,-100,156,92,63,0,-14,-92
-122,-161,-39,141,-41,-100,156,92,68,4,-9,-92
-122,-161,-39,141,-41,-100,156,92,68,14,0,-87
-122,-151,-29,136,-46,-90,156,102,78,19,4,-82
-126,-151,-24,139,-51,-87,156,102,82,29,9,-78
-126,-146,-19,136,-53,-82,156,102,92,29,19,-78
-122,-141,-19,131,-51,-80,151,102,97,34,29,-73
-117,-141,-24,129,-46,-82,151,102,97,43,34,-63
-112,-136,-24,124,-43,-80,151,112,107,53,43,-63
-117,-136,-19,126,-48,-78,151,112,117,63,43,-58
-122,-141,-19,131,-51,-80,151,102,126,63,53,-58
-122,-136,-14,129,-53,-75,151,112,136,68,58,-58
-122,-136,-14,129,-53,-75,151,122,146,78,63,-53
-117,-131,-14,124,-51,-73,146,131,156,82,73,-53
-117,-126,-9,122,-53,-68,146,146,165,92,78,-53
-112,-126,-14,119,-48,-70,151,151,170,97,87,-48
-107,-126,-19,117,-43,-73,151,156,170,107,87,-48
-107,-122,-14,114,-46,-68,151,156,180,107,92,-48
-107,-122,-14,114,-46,-68,151,156,185,117,102,-43
-117,-126,-9,122,-53,-68,156,165,200,122,107,-39
-126,-131,-4,129,-61,-68,161,170,209,122,112,-39
-126,-131,-4,129,-61,-68,165,180,219,131,112,-43
-126,-126,0,126,-63,-63,165,190,234,136,112,-43
-126,-126,0,126,-63,-63,165,200,244,141,112,-43
-126,-126,0,126,-63,-63,180,214,258,151,117,-43
-126,-126,0,126,-63,-63,180,229,268,161,122,-53
-141,-126,14,134,-78,-56,190,253,287,165,126,-58
-131,-122,9,126,-70,-56,200,273,312,175,131,-63
-122,-117,4,119,-63,-56,209,297,326,175,136,-68
-141,-122,19,131,-80,-51,224,307,346,185,136,-73
-156,-131,24,143,-90,-53,239,322,361,195,136,-82
-156,-131,24,143,-90,-53,248,341,380,200,136,-82
-170,-136,34,153,-102,-51,263,361,405,209,136,-87
-175,-141,34,158,-104,-53,278,395,424,219,141,-97
-185,-146,39,165,-112,-53,302,434,453,239,151,-112
-200,-156,43,178,-122,-56,317,468,478,244,146,-122
-214,-161,53,187,-134,-53,341,492,502,253,136,-136
-229,-175,53,202,-141,-61,366,522,527,253,131,-151
-244,-195,48,219,-146,-73,390,561,551,253,122,-170
-253,-209,43,231,-148,-82,409,605,575,258,112,-195
-273,-224,48,248,-161,-87,434,649,605,258,92,-224
-297,-244,53,270,-175,-95,468,678,629,253,73,-248
-312,-263,48,287,-180,-107,488,712,644,248,48,-278
-331,-287,43,309,-187,-122,512,751,663,244,29,-302
-346,-317,29,331,-187,-143,536,780,673,224,0,-326
-366,-336,29,351,-197,-153,556,814,688,219,-29,-375
-390,-356,34,373,-212,-161,580,844,692,200,-58,-419
-405,-375,29,390,-217,-173,605,868,692,185,-92,-444
-424,-409,14,417,-219,-197,624,873,678,161,-131,-473
-429,-424,4,427,-217,-209,624,868,658,136,-165,-512
-439,-439,0,439,-219,-219,624,849,634,107,-200,-541
-429,-453,-24,441,-202,-239,619,829,600,73,-239,-561
-419,-458,-39,439,-190,-248,610,805,566,39,-273,-580
-419,-458,-39,439,-190,-248,595,766,527,14,-292,-590
-405,-458,-53,431,-175,-256,570,722,478,-19,-312,-595
-390,-463,-73,427,-158,-268,541,668,424,-53,-336,-595
-370,-458,-87,414,-141,-273,502,610,366,-87,-351,-585
-366,-434,-68,400,-148,-251,448,536,302,-107,-356,-561
-351,-395,-43,373,-153,-219,400,463,244,-122,-356,-531
-302,-361,-58,331,-122,-209,356,405,204,-131,-341,-492
-263,-326,-63,295,-100,-195,307,341,165,-141,-326,-458
-229,-283,-53,256,-87,-168,248,287,131,-141,-297,-409
-209,-253,-43,231,-82,-148,204,239,107,-136,-268,-361
-175,-214,-39,195,-68,-126,175,204,73,-131,-239,-312
-146,-190,-43,168,-51,-117,141,156,43,-122,-209,-268
-122,-161,-39,141,-41,-100,117,122,34,-117,-195,-229
-102,-131,-29,117,-36,-80,92,87,19,-107,-175,-200
-87,-112,-24,100,-31,-68,68,73,9,-92,-151,-165
-78,-97,-19,87,-29,-58,43,43,4,-92,-131,-141
-73,-87,-14,80,-29,-51,29,24,-4,-87,-122,-122
-68,-73,-4,70,-31,-39,19,14,-14,-78,-102,-102
-58,-68,-9,63,-24,-39,14,0,-14,-73,-92,-87
-39,-53,-14,46,-12,-34,14,-4,-14,-73,-78,-68
-29,-43,-14,36,-7,-29,9,-9,-14,-63,-68,-53
-29,-39,-9,34,-9,-24,4,-9,-14,-58,-58,-39
-34,-39,-4,36,-14,-21,0,-14,-19,-58,-68,-39
-48,-43,4,46,-26,-19,-9,-19,-29,-53,-73,-34
-48,-43,4,46,-26,-19,-9,-19,-29,-53,-68,-34
-39,-39,0,39,-19,-19,-9,-19,-24,-48,-68,-34
-39,-39,0,39,-19,-19,0,-14,-24,-48,-58,-29
-39,-39,0,39,-19,-19,4,-9,-19,-43,-48,-29
-34,-39,-4,36,-14,-21,0,-9,-19,-48,-48,-29
-24,-39,-14,31,-4,-26,0,-9,-19,-48,-48,-29
-24,-39,-14,31,-4,-26,4,-9,-19,-48,-43,-24
-19,-43,-24,31,2,-34,4,-14,-19,-48,-43,-24
-19,-39,-19,29,0,-29,4,-9,-14,-48,-39,-29
-24,-39,-14,31,-4,-26,4,-9,-14,-48,-39,-34
-29,-39,-9,34,-9,-24,9,-4,-14,-48,-39,-34
-34,-39,-4,36,-14,-21,9,4,-9,-43,-39,-34
-34,-39,-4,36,-14,-21,9,4,-4,-43,-43,-34
-34,-39,-4,36,-14,-21,4,4,-4,-39,-43,-34
-43,-43,0,43,-21,-21,4,4,-4,-39,-43,-39
-48,-43,4,46,-26,-19,4,0,-4,-43,-43,-39
-48,-48,0,48,-24,-24,14,4,-4,-43,-43,-39
-48,-53,-4,51,-21,-29,19,4,-4,-43,-43,-43
-43,-58,-14,51,-14,-36,19,14,0,-43,-48,-39
-43,-58,-14,51,-14,-36,24,19,4,-43,-48,-39
-43,-63,-19,53,-12,-41,24,19,4,-48,-48,-43
-39,-63,-24,51,-7,-43,24,24,4,-48,-48,-48
-34,-63,-29,48,-2,-46,29,24,4,-48,-48,-53
-29,-63,-34,46,2,-48,34,24,0,-48,-53,-58
-29,-63,-34,46,2,-48,34,24,-4,-53,-53,-58
-34,-63,-29,48,-2,-46,34,24,-4,-53,-58,-63
-43,-68,-24,56,-9,-46,34,24,-9,-53,-58,-68
-48,-73,-24,61,-12,-48,34,24,-9,-68,-63,-68
-34,-73,-39,53,2,-56,34,24,-9,-68,-68,-68
-19,-73,-53,46,17,-63,29,19,-9,-68,-78,-73
-29,-73,-43,51,7,-58,29,14,-14,-68,-78,-73
-39,-73,-34,56,-2,-53,34,14,-14,-68,-78,-73
-39,-73,-34,56,-2,-53,39,14,-14,-68,-73,-68
-39,-73,-34,56,-2,-53,43,14,-14,-68,-68,-68
-39,-78,-39,58,0,-58,43,14,-14,-73,-73,-68
-39,-78,-39,58,0,-58,43,14,-14,-73,-78,-68
-34,-78,-43,56,4,-61,39,9,-14,-73,-82,-78
-24,-78,-53,51,14,-65,39,14,-19,-73,-87,-82
-19,-73,-53,46,17,-63,39,14,-24,-73,-87,-82
-19,-68,-48,43,14,-58,39,9,-29,-78,-92,-78
-24,-68,-43,46,9,-56,34,0,-29,-78,-87,-78
-29,-68,-39,48,4,-53,29,-9,-29,-82,-82,-78
-39,-68,-29,53,-4,-48,29,-9,-29,-82,-82,-78
-43,-68,-24,56,-9,-46,29,-9,-24,-78,-82,-78
-43,-73,-29,58,-7,-51,34,-4,-29,-78,-87,-78
-43,-73,-29,58,-7,-51,39,0,-29,-82,-92,-82
-39,-73,-34,56,-2,-53,34,0,-29,-82,-97,-82
-34,-73,-39,53,2,-56,34,4,-29,-82,-97,-82
-34,-68,-34,51,0,-51,34,4,-29,-82,-92,-82
-34,-68,-34,51,0,-51,34,0,-29,-87,-92,-82
-34,-68,-34,51,0,-51,39,-4,-39,-87,-92,-82
-39,-68,-29,53,-4,-48,39,-9,-43,-87,-97,-82
-39,-63,-24,51,-7,-43,39,-9,-43,-82,-92,-82
-39,-63,-24,51,-7,-43,39,-9,-43,-78,-87,-82
-39,-68,-29,53,-4,-48,39,-4,-39,-78,-87,-82
-39,-68,-29,53,-4,-48,34,-9,-39,-78,-87,-82
-48,-63,-14,56,-17,-39,34,-9,-39,-82,-87,-78
-53,-58,-4,56,-24,-31,34,-4,-39,-82,-87,-73
-53,-58,-4,56,-24,-31,29,-9,-39,-78,-87,-73
-53,-53,0,53,-26,-26,24,-14,-39,-78,-87,-73
-39,-48,-9,43,-14,-29,24,-9,-34,-78,-87,-68
-29,-48,-19,39,-4,-34,29,-9,-29,-78,-87,-68
-24,-48,-24,36,0,-36,29,-4,-29,-78,-87,-68
-19,-48,-29,34,4,-39,29,0,-29,-78,-87,-68
-19,-43,-24,31,2,-34,34,0,-29,-73,-87,-68
-19,-29,-9,24,-4,-19,43,4,-24,-63,-82,-63
-19,-19,0,19,-9,-9,53,9,-19,-58,-78,-58
-24,0,24,12,-24,12,53,19,-9,-48,-68,-53
-9,24,34,-7,-21,29,48,14,0,-43,-53,-39
0,34,34,-17,-17,34,29,9,0,-43,-53,-34
19,43,24,-31,-2,34,24,9,9,-34,-53,-29
39,48,9,-43,14,29,24,19,14,-24,-39,-24
29,73,43,-51,-7,58,29,39,29,-14,-29,-14
43,97,53,-70,-4,75,14,48,53,0,-19,-4
78,126,48,-102,14,87,-24,48,63,24,-4,9
102,151,48,-126,26,100,-63,34,63,39,19,29
112,156,43,-134,34,100,-92,19,63,43,24,29
117,156,39,-136,39,97,-97,9,58,48,24,34
117,161,43,-139,36,102,-117,-9,48,39,19,34
112,161,48,-136,31,104,-117,-39,29,29,9,34
112,151,39,-131,36,95,-122,-53,9,14,4,29
112,151,39,-131,36,95,-131,-68,-9,9,-4,29
112,151,39,-131,36,95,-131,-68,-9,9,-4,29
112,151,39,-131,36,95,-117,-68,-4,9,0,29
107,136,29,-122,39,82,-102,-73,-9,9,4,34
87,107,19,-97,34,63,-78,-58,-19,0,-4,29
58,73,14,-65,21,43,-43,-58,-24,-19,-24,9
29,34,4,-31,12,19,-14,-53,-24,-29,-34,-4
-4,9,14,-2,-9,12,9,-34,-29,-39,-53,-19
-19,-9,9,14,-14,0,14,-19,-29,-43,-63,-29
-39,-34,4,36,-21,-14,24,-19,-29,-53,-73,-48
-48,-48,0,48,-24,-24,34,-19,-34,-63,-97,-68
-63,-58,4,61,-34,-26,48,-14,-34,-73,-97,-73
-73,-73,0,73,-36,-36,63,-14,-34,-78,-102,-78
-73,-68,4,70,-39,-31,63,-9,-43,-78,-107,-87
-73,-68,4,70,-39,-31,63,-9,-53,-87,-112,-87
-73,-73,0,73,-36,-36,68,-9,-53,-92,-117,-92
-78,-78,0,78,-39,-39,73,-9,-53,-92,-117,-97
-78,-87,-9,82,-34,-48,73,-9,-48,-92,-117,-97
-73,-87,-14,80,-29,-51,73,-4,-48,-97,-117,-102
-82,-92,-9,87,-36,-51,73,-4,-48,-97,-117,-102
-82,-97,-14,90,-34,-56,78,-4,-48,-92,-122,-102
-87,-102,-14,95,-36,-58,82,-4,-48,-92,-126,-102
-87,-102,-14,95,-36,-58,82,0,-43,-82,-131,-102
-87,-92,-4,90,-41,-48,87,9,-29,-78,-122,-97
-87,-78,9,82,-48,-34,97,19,-14,-53,-102,-87
-78,-39,39,58,-58,0,131,92,78,19,-53,-68
-39,-24,14,31,-26,-4,131,146,175,107,19,-39
43,-4,-48,-19,46,-26,19,78,224,224,170,43
185,78,-107,-131,146,-14,-185,-39,239,380,370,200
434,195,-239,-314,336,-21,-419,-92,326,527,610,414
678,409,-268,-544,473,70,-668,-175,361,644,834,663
927,912,-14,-919,470,448,-849,-204,439,917,1166,1005
1102,1527,424,-1315,339,976,-1254,-756,112,1107,1439,1361
1307,2117,810,-1712,248,1464,-1966,-1869,-790,946,1459,1668
1532,2327,795,-1930,368,1561,-2410,-2825,-1873,424,1195,1810
1634,2415,780,-2025,427,1598,-2766,-3562,-2947,-253,883,1991
1673,2527,854,-2100,409,1690,-2918,-3845,-3406,-561,810,2342
1673,2235,561,-1954,556,1398,-2815,-3640,-3123,-619,775,2547
1629,1683,53,-1656,788,868,-2342,-2962,-2454,-536,814,2581
1468,1015,-453,-1241,961,280,-1688,-2064,-1747,-497,658,2259
1180,463,-717,-822,949,-126,-1083,-1283,-1146,-424,409,1634
775,92,-683,-434,729,-295,-536,-707,-741,-385,82,854
419,-68,-488,-175,453,-278,-209,-370,-458,-317,-112,336
97,-151,-248,26,173,-200,9,-107,-234,-200,-165,0
-48,-185,-136,117,43,-161,112,24,-102,-126,-161,-122
-78,-195,-117,136,19,-156,136,48,-58,-97,-141,-122
-92,-204,-112,148,9,-158,141,48,-39,-73,-107,-122
-97,-185,-87,141,-4,-136,141,48,-24,-58,-92,-117
-112,-175,-63,143,-24,-119,146,63,-14,-53,-82,-117
-122,-180,-58,151,-31,-119,161,73,0,-43,-82,-117
-126,-180,-53,153,-36,-117,161,73,9,-34,-73,-117
-126,-180,-53,153,-36,-117,161,73,19,-24,-63,-117
-126,-180,-53,153,-36,-117,165,82,19,-24,-58,-112
-122,-180,-58,151,-31,-119,170,87,24,-19,-58,-112
-122,-185,-63,153,-29,-124,170,87,29,-14,-48,-112
-122,-185,-63,153,-29,-124,165,87,39,-9,-39,-107
-117,-175,-58,146,-29,-117,165,87,43,0,-34,-107
-112,-170,-58,141,-26,-114,165,92,53,0,-34,-102
-112,-170,-58,141,-26,-114,165,92,58,4,-29,-102
-112,-170,-58,141,-26,-114,161,78,53,19,-14,-97
-112,-161,-48,136,-31,-104,156,73,58,29,-4,-92
-117,-161,-43,139,-36,-102,156,82,63,39,0,-87
-117,-156,-39,136,-39,-97,156,92,73,39,9,-87
-112,-151,-39,131,-36,-95,151,92,78,39,14,-82
-107,-151,-43,129,-31,-97,151,92,78,43,14,-73
-107,-146,-39,126,-34,-92,151,97,87,53,24,-73
-112,-141,-29,126,-41,-85,151,102,97,63,24,-68
-112,-146,-34,129,-39,-90,151,102,107,63,34,-68
-112,-146,-34,129,-39,-90,151,102,112,68,39,-68
-112,-146,-34,129,-39,-90,151,102,117,78,43,-58
-107,-146,-39,126,-34,-92,146,107,126,82,53,-53
-107,-146,-39,126,-34,-92,146,122,136,97,63,-53
-107,-146,-39,126,-34,-92,151,131,146,107,78,-48
-97,-146,-48,122,-24,-97,151,136,151,117,78,-48
-87,-141,-53,114,-17,-97,151,141,161,117,82,-48
-87,-131,-43,109,-21,-87,151,146,165,126,92,-43
-92,-122,-29,107,-31,-75,156,156,180,136,97,-39
-107,-131,-24,119,-41,-78,165,161,190,141,102,-39
-117,-141,-24,129,-46,-82,175,170,200,151,107,-43
-107,-136,-29,122,-39,-82,175,180,209,151,112,-43
-97,-136,-39,117,-29,-87,175,190,214,151,112,-43
-97,-136,-39,117,-29,-87,185,190,229,161,117,-43
-97,-136,-39,117,-29,-87,180,185,239,170,122,-48
-112,-136,-24,124,-43,-80,190,195,258,175,126,-48
-112,-136,-24,124,-43,-80,200,204,278,185,131,-53
-112,-136,-24,124,-43,-80,209,253,287,185,131,-53
-122,-141,-19,131,-51,-80,219,287,307,195,126,-53
-126,-151,-24,139,-51,-87,229,292,317,214,126,-63
-126,-151,-24,139,-51,-87,239,302,331,229,126,-68
-141,-156,-14,148,-63,-85,248,317,356,239,126,-82
-146,-161,-14,153,-65,-87,258,341,375,244,122,-97
-156,-165,-9,161,-73,-87,278,375,405,248,122,-112
-170,-175,-4,173,-82,-90,287,409,429,244,117,-122
-180,-180,0,180,-90,-90,312,434,453,253,107,-136
-190,-195,-4,192,-92,-100,336,463,478,253,97,-151
-200,-219,-19,209,-90,-119,361,502,502,253,82,-170
-204,-239,-34,222,-85,-136,380,536,522,258,73,-195
-224,-253,-29,239,-97,-141,395,566,546,258,53,-224
-244,-273,-29,258,-107,-151,419,590,570,253,34,-248
-253,-283,-29,268,-112,-156,439,624,590,258,19,-278
-273,-297,-24,285,-124,-161,463,663,610,263,4,-312
-287,-326,-39,307,-124,-183,488,692,619,244,-29,-346
-307,-346,-39,326,-134,-192,507,722,639,234,-58,-385
-326,-370,-43,348,-141,-207,531,756,649,209,-92,-424
-331,-390,-58,361,-136,-224,556,790,653,195,-131,-453
-346,-419,-73,383,-136,-246,575,800,639,170,-170,-483
-351,-434,-82,392,-134,-258,575,805,619,141,-204,-522
-366,-453,-87,409,-139,-270,580,790,605,107,-234,-551
-370,-478,-107,424,-131,-292,580,775,580,73,-268,-570
-370,-488,-117,429,-126,-302,570,766,551,43,-302,-590
-370,-488,-117,429,-126,-302,556,736,517,24,-322,-595
-351,-483,-131,417,-109,-307,531,697,468,-9,-346,-600
-331,-473,-141,402,-95,-307,502,649,414,-39,-370,-605
-312,-458,-146,385,-82,-302,473,590,356,-73,-390,-600
-297,-434,-136,366,-80,-285,429,522,302,-97,-400,-580
-283,-395,-112,339,-85,-253,385,453,248,-112,-395,-551
-253,-361,-107,307,-73,-234,346,395,204,-117,-380,-507
-234,-326,-92,280,-70,-209,307,341,165,-126,-366,-468
-209,-283,-73,246,-68,-178,263,297,131,-131,-336,-419
-195,-253,-58,224,-68,-156,214,239,102,-126,-307,-370
-170,-214,-43,192,-63,-129,175,195,68,-122,-278,-322
-146,-180,-34,163,-56,-107,141,146,43,-112,-248,-268
-122,-141,-19,131,-51,-80,117,117,34,-107,-229,-219
-97,-112,-14,104,-41,-63,97,92,29,-97,-204,-190
-78,-92,-14,85,-31,-53,82,87,29,-82,-180,-156
-68,-78,-9,73,-29,-43,63,63,14,-82,-161,-131
-63,-68,-4,65,-29,-36,48,48,0,-78,-151,-112
-68,-53,14,61,-41,-19,39,39,-4,-63,-131,-92
-73,-48,24,61,-48,-12,29,19,-4,-53,-126,-82
-58,-34,24,46,-41,-4,24,14,-4,-53,-117,-68
-48,-24,24,36,-36,0,19,9,-4,-43,-107,-58
-43,-19,24,31,-34,2,14,9,-4,-43,-97,-43
-39,-19,19,29,-29,0,14,9,-4,-48,-97,-39
-48,-24,24,36,-36,0,9,9,-9,-43,-92,-34
-48,-24,24,36,-36,0,9,9,-9,-43,-87,-29
-39,-19,19,29,-29,0,9,19,-4,-29,-82,-24
-39,-19,19,29,-29,0,14,29,-4,-19,-73,-19
-48,-24,24,36,-36,0,9,19,-4,-24,-68,-19
-58,-29,29,43,-43,0,0,9,-9,-34,-68,-19
-53,-29,24,41,-39,-2,0,9,-9,-29,-68,-19
-53,-29,24,41,-39,-2,4,14,-9,-29,-63,-14
-43,-29,14,36,-29,-7,4,14,-9,-24,-63,-14
-39,-24,14,31,-26,-4,4,19,-4,-19,-58,-14
-43,-29,14,36,-29,-7,4,19,-4,-19,-58,-14
-43,-29,14,36,-29,-7,9,19,-4,-19,-58,-14
-43,-34,9,39,-26,-12,9,24,0,-19,-58,-19
-43,-39,4,41,-24,-17,14,24,4,-24,-58,-24
-43,-39,4,41,-24,-17,14,19,4,-24,-53,-29
-48,-43,4,46,-26,-19,14,19,4,-29,-53,-39
-48,-43,4,46,-26,-19,14,19,4,-34,-53,-39
-48,-48,0,48,-24,-24,19,24,4,-34,-53,-39
-43,-48,-4,46,-19,-26,19,24,4,-34,-53,-43
-39,-48,-9,43,-14,-29,19,29,4,-34,-58,-43
-43,-48,-4,46,-19,-26,24,29,4,-34,-58,-43
-43,-53,-9,48,-17,-31,24,29,4,-39,-58,-43
-39,-58,-19,48,-9,-39,24,34,0,-39,-58,-48
-39,-63,-24,51,-7,-43,29,34,0,-39,-58,-48
-43,-63,-19,53,-12,-41,29,29,0,-39,-63,-48
-48,-63,-14,56,-17,-39,24,24,-4,-43,-63,-48
-53,-58,-4,56,-24,-31,24,24,-4,-48,-73,-58
-53,-58,-4,56,-24,-31,24,24,-9,-53,-78,-68
-48,-63,-14,56,-17,-39,24,24,-9,-68,-82,-68
-48,-63,-14,56,-17,-39,24,24,-9,-68,-82,-68
-43,-63,-19,53,-12,-41,19,24,-9,-68,-87,-73
-39,-63,-24,51,-7,-43,19,24,-14,-68,-87,-73
-39,-63,-24,51,-7,-43,24,24,-14,-63,-82,-68
-39,-63,-24,51,-7,-43,24,24,-14,-58,-78,-63
-39,-63,-24,51,-7,-43,24,24,-14,-58,-78,-68
-39,-68,-29,53,-4,-48,24,24,-19,-63,-82,-68
-43,-68,-24,56,-9,-46,29,24,-24,-63,-87,-68
-53,-68,-14,61,-19,-41,29,14,-24,-63,-87,-73
-58,-68,-9,63,-24,-39,29,14,-29,-63,-87,-68
-58,-63,-4,61,-26,-34,29,14,-29,-63,-87,-63
-58,-63,-4,61,-26,-34,24,4,-29,-68,-92,-58
-58,-68,-9,63,-24,-39,19,0,-29,-68,-92,-58
-53,-68,-14,61,-19,-41,19,0,-29,-73,-92,-63
-53,-68,-14,61,-19,-41,19,0,-34,-73,-92,-68
-48,-58,-9,53,-19,-34,19,4,-34,-68,-92,-68
-43,-53,-9,48,-17,-31,19,4,-39,-68,-92,-68
-43,-53,-9,48,-17,-31,19,0,-39,-73,-92,-73
-43,-53,-9,48,-17,-31,14,0,-39,-73,-97,-73
-48,-58,-9,53,-19,-34,14,4,-39,-73,-97,-68
-53,-58,-4,56,-24,-31,14,4,-39,-73,-92,-63
-53,-58,-4,56,-24,-31,14,-4,-39,-78,-92,-63
-53,-58,-4,56,-24,-31,19,-9,-43,-78,-92,-63
-58,-58,0,58,-29,-29,19,-9,-39,-78,-92,-63
-58,-53,4,56,-31,-24,19,-9,-34,-78,-87,-63
-58,-53,4,56,-31,-24,19,0,-34,-78,-87,-63
-58,-58,0,58,-29,-29,19,9,-34,-78,-87,-63
-58,-58,0,58,-29,-29,14,0,-43,-78,-87,-68
-63,-58,4,61,-34,-26,14,0,-48,-82,-87,-73
-68,-58,9,63,-39,-24,14,-4,-53,-82,-92,-73
-73,-53,19,63,-46,-17,14,-14,-58,-78,-97,-73
-58,-53,4,56,-31,-24,9,-9,-53,-82,-97,-68
-48,-58,-9,53,-19,-34,9,-9,-48,-87,-97,-68
-48,-48,0,48,-24,-24,9,-4,-43,-87,-92,-68
-48,-39,9,43,-29,-14,9,0,-39,-87,-87,-68
-48,-34,14,41,-31,-9,14,0,-39,-82,-87,-68
-43,-19,24,31,-34,2,24,4,-34,-73,-82,-63
-43,-9,34,26,-39,12,34,9,-29,-68,-78,-58
-43,9,53,17,-48,31,34,19,-19,-58,-68,-53
-29,39,68,-4,-48,53,34,19,-9,-48,-53,-39
-19,53,73,-17,-46,63,19,19,-9,-43,-53,-34
-14,63,78,-24,-46,70,9,29,0,-34,-53,-29
-9,68,78,-29,-43,73,4,48,4,-24,-39,-24
0,92,92,-46,-46,92,-9,43,14,-14,-29,-14
34,117,82,-75,-24,100,-43,29,34,0,-19,-4
53,141,87,-97,-17,114,-82,29,43,24,-4,14
63,161,97,-112,-17,129,-122,14,43,39,19,39
73,165,92,-119,-9,129,-141,0,43,39,24,39
78,165,87,-122,-4,126,-136,-9,39,39,24,43
78,170,92,-124,-7,131,-156,-29,29,29,19,43
73,170,97,-122,-12,134,-156,-58,9,19,9,43
73,161,87,-117,-7,124,-156,-73,-9,4,9,39
73,161,87,-117,-7,124,-161,-87,-29,0,4,39
78,161,82,-119,-2,122,-170,-87,-34,0,4,39
82,161,78,-122,2,119,-165,-87,-34,0,9,39
78,141,63,-109,7,102,-136,-87,-34,0,9,39
58,107,48,-82,4,78,-97,-68,-39,-9,-4,29
24,73,48,-48,-12,61,-58,-53,-39,-29,-24,9
-9,34,43,-12,-26,39,-24,-34,-34,-39,-34,-4
-43,9,53,17,-48,31,0,-24,-39,-48,-53,-19
-58,-9,48,34,-53,19,4,-19,-39,-53,-63,-29
-73,-34,39,53,-56,2,14,-19,-43,-63,-73,-48
-78,-48,29,63,-53,-9,24,-19,-53,-73,-97,-68
-87,-58,29,73,-58,-14,29,-14,-53,-82,-97,-73
-92,-73,19,82,-56,-26,34,-14,-53,-87,-102,-78
-92,-73,19,82,-56,-26,34,-9,-58,-87,-107,-87
-92,-78,14,85,-53,-31,34,-9,-63,-97,-112,-87
-92,-82,9,87,-51,-36,39,-9,-63,-97,-117,-87
-97,-87,9,92,-53,-39,43,-9,-63,-92,-117,-87
-97,-97,0,97,-48,-48,43,-4,-58,-92,-117,-92
-92,-97,-4,95,-43,-51,43,4,-58,-97,-117,-102
-102,-97,4,100,-53,-46,43,4,-58,-102,-117,-102
-102,-97,4,100,-53,-46,48,4,-58,-102,-122,-102
-107,-97,9,102,-58,-43,53,-4,-58,-97,-117,-97
-107,-92,14,100,-61,-39,53,-9,-53,-82,-112,-92
-107,-82,24,95,-65,-29,53,9,-24,-68,-92,-82
-107,-68,39,87,-73,-14,58,29,4,-34,-63,-68
-82,-19,63,51,-73,21,68,73,82,48,-4,-34
-29,4,34,12,-31,19,43,97,165,146,78,9
82,58,-24,-70,53,17,-97,0,190,263,253,122
253,175,-78,-214,165,48,-331,-146,180,419,478,307
502,375,-126,-439,314,124,-575,-244,195,561,702,531
746,673,-73,-710,409,300,-834,-370,156,673,912,790
966,1156,190,-1061,387,673,-1098,-619,24,819,1151,1102
1112,1751,639,-1432,236,1195,-1586,-1390,-512,883,1332,1429
1317,2220,902,-1769,207,1561,-2235,-2410,-1429,605,1263,1678
1542,2308,766,-1925,387,1537,-2615,-3274,-2527,-34,912,1761
1634,2288,653,-1961,490,1471,-2849,-3752,-3259,-566,668,1937
1664,2293,629,-1978,517,1461,-2879,-3777,-3376,-727,663,2283
1654,1947,292,-1800,680,1119,-2688,-3455,-2986,-717,649,2396
1600,1342,-258,-1471,929,541,-2127,-2659,-2210,-566,707,2337
1390,756,-634,-1073,1012,61,-1498,-1805,-1546,-512,551,1981
1054,287,-766,-671,910,-239,-917,-1068,-990,-424,302,1322
663,-4,-668,-329,666,-336,-448,-561,-629,-375,24,639
322,-87,-409,-117,366,-248,-200,-292,-390,-297,-122,219
34,-165,-200,65,117,-183,4,-68,-195,-195,-161,-53
-78,-195,-117,136,19,-156,92,24,-92,-136,-141,-112
-107,-195,-87,151,-9,-141,117,48,-53,-107,-122,-112
-122,-195,-73,158,-24,-134,122,48,-39,-82,-87,-112
-126,-185,-58,156,-34,-122,122,48,-24,-68,-73,-112
-141,-185,-43,163,-48,-114,126,63,-14,-63,-63,-117
-146,-185,-39,165,-53,-112,141,73,0,-53,-63,-117
-146,-180,-34,163,-56,-107,141,73,9,-43,-53,-117
-146,-175,-29,161,-58,-102,136,73,19,-34,-43,-117
-146,-170,-24,158,-61,-97,136,82,19,-34,-39,-112
-146,-170,-24,158,-61,-97,141,87,24,-29,-39,-107
-151,-175,-24,163,-63,-100,141,87,29,-24,-29,-102
-151,-175,-24,163,-63,-100,136,87,34,-19,-19,-97
-146,-165,-19,156,-63,-92,136,87,34,-9,-14,-97
-131,-161,-29,146,-51,-95,141,92,43,-9,-14,-92
-122,-161,-39,141,-41,-100,146,92,48,-4,-9,-92
-122,-161,-39,141,-41,-100,146,92,48,4,0,-92
-122,-151,-29,136,-46,-90,146,102,58,9,4,-92
-136,-151,-14,143,-61,-82,141,97,63,19,9,-87
-146,-146,0,146,-73,-73,136,92,73,19,19,-87
-141,-141,0,141,-70,-70,131,92,78,24,29,-78
-136,-141,-4,139,-65,-73,131,92,78,34,34,-63
-126,-136,-9,131,-58,-73,131,102,87,48,48,-63
-122,-131,-9,126,-56,-70,131,112,97,63,53,-58
-122,-131,-9,126,-56,-70,131,117,107,63,63,-58
-122,-126,-4,124,-58,-65,131,122,112,68,68,-58
-126,-126,0,126,-63,-63,131,122,117,73,68,-53
-126,-126,0,126,-63,-63,126,126,126,73,73,-53
-126,-126,0,126,-63,-63,131,136,136,82,78,-53
-126,-126,0,126,-63,-63,141,141,146,87,87,-48
-117,-126,-9,122,-53,-68,141,146,151,102,87,-48
-107,-122,-14,114,-46,-68,141,151,161,107,92,-48
-107,-122,-14,114,-46,-68,136,151,165,117,102,-43
-112,-122,-9,117,-51,-65,136,156,180,126,107,-39
-117,-122,-4,119,-56,-63,141,161,190,131,112,-39
-117,-122,-4,119,-56,-63,146,170,200,141,117,-43
-117,-117,0,117,-58,-58,146,180,214,146,122,-48
-117,-117,0,117,-58,-58,146,190,224,151,122,-53
-117,-117,0,117,-58,-58,161,204,234,161,126,-53
-117,-117,0,117,-58,-58,161,214,239,170,131,-58
-136,-117,19,126,-78,-48,170,234,258,175,136,-53
-141,-117,24,129,-82,-46,180,253,278,185,141,-53
-141,-117,24,129,-82,-46,190,278,287,185,146,-58
-151,-122,29,136,-90,-46,200,287,307,195,146,-63
-156,-126,29,141,-92,-48,209,302,322,204,141,-73
-156,-122,34,139,-95,-43,219,322,341,209,136,-78
-165,-126,39,146,-102,-43,234,341,366,214,136,-92
-165,-131,34,148,-100,-48,248,370,385,214,131,-107
-175,-136,39,156,-107,-48,273,400,414,229,136,-122
-190,-146,43,168,-117,-51,287,429,439,234,136,-131
-219,-161,58,190,-139,-51,312,453,463,244,126,-146
-248,-185,63,217,-156,-61,336,483,488,244,117,-161
-248,-190,58,219,-153,-65,361,527,512,244,102,-180
-244,-190,53,217,-148,-68,380,566,531,248,92,-204
-263,-214,48,239,-156,-82,405,600,556,248,68,-234
-283,-244,39,263,-161,-102,439,629,580,244,43,-258
-297,-263,34,280,-165,-114,458,649,595,239,19,-287
-322,-287,34,305,-178,-126,483,673,610,234,-4,-322
-336,-312,24,324,-180,-143,507,712,614,219,-34,-356
-356,-326,29,341,-192,-148,527,751,629,214,-58,-395
-380,-346,34,363,-207,-156,551,775,634,190,-87,-429
-390,-361,29,375,-209,-165,575,800,634,175,-122,-453
-405,-390,14,397,-209,-187,595,805,619,151,-161,-478
-409,-405,4,407,-207,-200,595,805,600,122,-195,-512
-419,-419,0,419,-209,-209,595,790,575,87,-219,-541
-419,-439,-19,429,-200,-229,590,775,541,53,-248,-561
-419,-448,-29,434,-195,-239,566,746,507,14,-292,-580
-419,-448,-29,434,-195,-239,536,697,468,-14,-322,-585
-405,-448,-43,427,-180,-246,522,663,419,-48,-341,-585
-390,-444,-53,417,-168,-248,502,619,366,-78,-361,-585
-366,-424,-58,395,-153,-241,463,561,307,-107,-370,-570
-346,-395,-48,370,-148,-222,409,492,253,-126,-370,-541
-322,-356,-34,339,-143,-195,366,424,209,-136,-366,-512
-283,-322,-39,302,-122,-180,326,366,175,-136,-351,-468
-253,-287,-34,270,-109,-161,278,302,136,-141,-336,-429
