I,II,III,aVR,aVL,aVF,V1,V2,V3,V4,V5,V6,
-58,-107,-48,82,-4,-78,283,566,390,165,68,-39
-63,-112,-48,87,-7,-80,297,595,409,175,68,-43
-68,-117,-48,92,-9,-82,312,624,429,185,68,-48
-68,-117,-48,92,-9,-82,326,663,453,190,68,-53
-68,-117,-48,92,-9,-82,341,702,478,195,68,-58
-73,-122,-48,97,-12,-85,361,741,502,204,68,-63
-78,-126,-48,102,-14,-87,380,780,527,214,68,-68
-87,-131,-43,109,-21,-87,400,824,556,214,68,-78
-97,-136,-39,117,-29,-87,419,868,585,214,68,-87
-102,-146,-43,124,-29,-95,444,902,610,219,63,-97
-107,-156,-48,131,-29,-102,468,936,634,224,58,-107
-117,-161,-43,139,-36,-102,483,971,653,229,53,-117
-126,-165,-39,146,-43,-102,497,1005,673,234,48,-126
-136,-170,-34,153,-51,-102,517,1039,697,234,43,-136
-146,-175,-29,161,-58,-102,536,1073,722,234,39,-146
-156,-180,-24,168,-65,-102,546,1093,732,234,34,-161
-165,-185,-19,175,-73,-102,556,1112,741,234,29,-175
-170,-185,-14,178,-78,-100,566,1112,741,234,19,-180
-175,-185,-9,180,-82,-97,575,1112,741,234,9,-185
-185,-180,4,183,-95,-87,575,1107,741,234,9,-185
-195,-175,19,185,-107,-78,575,1102,741,234,9,-185
-200,-170,29,185,-114,-70,561,1068,727,224,4,-185
-204,-165,39,185,-122,-63,546,1034,712,214,0,-185
-204,-151,53,178,-129,-48,531,990,683,209,0,-180
-204,-136,68,170,-136,-34,517,946,653,204,0,-175
-200,-126,73,163,-136,-26,483,883,614,200,0,-161
-195,-117,78,156,-136,-19,448,819,575,195,0,-146
-185,-107,78,146,-131,-14,419,756,531,185,14,-131
-175,-97,78,136,-126,-9,390,692,488,175,29,-117
-161,-78,82,119,-122,2,351,619,444,165,34,-97
-146,-58,87,102,-117,14,312,546,400,156,39,-78
-136,-43,92,90,-114,24,268,478,351,141,43,-63
-126,-29,97,78,-112,34,224,409,302,126,48,-48
-117,-24,92,70,-104,34,195,341,258,117,48,-34
-107,-19,87,63,-97,34,165,273,214,107,48,-19
-87,-9,78,48,-82,34,131,224,175,97,43,-4
-68,0,68,34,-68,34,97,175,136,87,39,9
-58,9,68,24,-63,39,78,126,107,73,39,19
-48,19,68,14,-58,43,58,78,78,58,39,29
-39,24,63,7,-51,43,34,39,43,48,39,34
-29,29,58,0,-43,43,9,0,9,39,39,39
-19,29,48,-4,-34,39,-4,-24,-4,29,34,43
-9,29,39,-9,-24,34,-19,-48,-19,19,29,48
-9,29,39,-9,-24,34,-24,-68,-39,9,29,48
-9,29,39,-9,-24,34,-29,-87,-58,0,29,48
0,29,29,-14,-14,29,-39,-97,-68,-4,29,48
9,29,19,-19,-4,24,-48,-107,-78,-9,29,48
9,29,19,-19,-4,24,-53,-117,-82,-9,24,48
9,29,19,-19,-4,24,-58,-126,-87,-9,19,48
9,34,24,-21,-7,29,-63,-131,-92,-14,14,48
9,39,29,-24,-9,34,-68,-136,-97,-19,9,48
9,39,29,-24,-9,34,-68,-136,-97,-19,9,43
9,39,29,-24,-9,34,-68,-136,-97,-19,9,39
14,39,24,-26,-4,31,-63,-136,-97,-19,9,39
19,39,19,-29,0,29,-58,-136,-97,-19,9,39
19,39,19,-29,0,29,-53,-131,-92,-19,9,39
19,39,19,-29,0,29,-48,-126,-87,-19,9,39
14,34,19,-24,-2,26,-48,-122,-87,-19,4,39
9,29,19,-19,-4,24,-48,-117,-87,-19,0,39
9,24,14,-17,-2,19,-48,-112,-87,-19,0,39
9,19,9,-14,0,14,-48,-107,-87,-19,0,39
9,19,9,-14,0,14,-48,-102,-78,-14,4,34
9,19,9,-14,0,14,-48,-97,-68,-9,9,29
9,14,4,-12,2,9,-48,-92,-63,-9,9,29
9,9,0,-9,4,4,-48,-87,-58,-9,9,29
4,9,4,-7,0,7,-39,-82,-53,-9,9,29
0,9,9,-4,-4,9,-29,-78,-48,-9,9,29
0,9,9,-4,-4,9,-29,-73,-48,-4,9,29
0,9,9,-4,-4,9,-29,-68,-48,0,9,29
0,9,9,-4,-4,9,-29,-63,-43,0,9,24
0,9,9,-4,-4,9,-29,-58,-39,0,9,19
0,9,9,-4,-4,9,-29,-58,-39,0,9,19
0,9,9,-4,-4,9,-29,-58,-39,0,9,19
0,0,0,0,0,0,-29,-58,-39,0,9,19
0,-9,-9,4,4,-9,-29,-58,-39,0,9,19
-4,-9,-4,7,0,-7,-29,-58,-39,0,9,14
-9,-9,0,9,-4,-4,-29,-58,-39,0,9,9
-9,-9,0,9,-4,-4,-29,-58,-39,0,9,9
-9,-9,0,9,-4,-4,-29,-58,-39,0,9,9
-9,-9,0,9,-4,-4,-29,-58,-39,0,9,9
-9,-9,0,9,-4,-4,-29,-58,-39,0,9,9
-9,-9,0,9,-4,-4,-29,-63,-43,-4,4,9
-9,-9,0,9,-4,-4,-29,-68,-48,-9,0,9
-9,-9,0,9,-4,-4,-29,-68,-53,-9,0,9
-9,-9,0,9,-4,-4,-29,-68,-58,-9,0,9
-9,-9,0,9,-4,-4,-29,-73,-58,-14,-4,9
-9,-9,0,9,-4,-4,-29,-78,-58,-19,-9,9
-9,-9,0,9,-4,-4,-29,-82,-63,-24,-14,9
-9,-9,0,9,-4,-4,-29,-87,-68,-29,-19,9
-9,-9,0,9,-4,-4,-29,-92,-68,-29,-19,9
-9,-9,0,9,-4,-4,-29,-97,-68,-29,-19,9
-9,-9,0,9,-4,-4,-29,-97,-73,-29,-19,9
-9,-9,0,9,-4,-4,-29,-97,-78,-29,-19,9
-9,-4,4,7,-7,0,-34,-102,-82,-34,-19,9
-9,0,9,4,-9,4,-39,-107,-87,-39,-19,9
-9,0,9,4,-9,4,-39,-112,-92,-39,-19,9
-9,0,9,4,-9,4,-39,-117,-97,-39,-19,9
-9,0,9,4,-9,4,-39,-122,-97,-39,-19,9
-9,0,9,4,-9,4,-39,-126,-97,-39,-19,9
-9,0,9,4,-9,4,-43,-126,-97,-39,-19,9
-9,0,9,4,-9,4,-48,-126,-97,-39,-19,9
-9,-4,4,7,-7,0,-48,-126,-102,-39,-19,9
-9,-9,0,9,-4,-4,-48,-126,-107,-39,-19,9
-9,-9,0,9,-4,-4,-48,-131,-107,-39,-19,9
-9,-9,0,9,-4,-4,-48,-136,-107,-39,-19,9
-9,-9,0,9,-4,-4,-48,-136,-107,-43,-19,9
-9,-9,0,9,-4,-4,-48,-136,-107,-48,-19,9
-9,-4,4,7,-7,0,-48,-136,-107,-48,-19,9
-9,0,9,4,-9,4,-48,-136,-107,-48,-19,9
-9,0,9,4,-9,4,-48,-136,-112,-48,-19,9
-9,0,9,4,-9,4,-48,-136,-117,-48,-19,9
-4,0,4,2,-4,2,-48,-141,-117,-48,-19,9
0,0,0,0,0,0,-48,-146,-117,-48,-19,9
0,0,0,0,0,0,-48,-146,-117,-53,-24,9
0,0,0,0,0,0,-48,-146,-117,-58,-29,9
0,0,0,0,0,0,-53,-146,-117,-58,-29,9
0,0,0,0,0,0,-58,-146,-117,-58,-29,9
0,0,0,0,0,0,-58,-146,-117,-58,-29,9
0,0,0,0,0,0,-58,-146,-117,-58,-29,9
0,9,9,-4,-4,9,-53,-141,-117,-53,-24,9
0,19,19,-9,-9,19,-48,-136,-117,-48,-19,9
4,24,19,-14,-7,21,-39,-131,-107,-39,-14,14
9,29,19,-19,-4,24,-29,-126,-97,-29,-9,19
9,39,29,-24,-9,34,-19,-122,-97,-24,-4,24
9,48,39,-29,-14,43,-9,-117,-97,-19,0,29
9,48,39,-29,-14,43,-4,-107,-87,-9,4,34
9,48,39,-29,-14,43,0,-97,-78,0,9,39
24,58,34,-41,-4,46,0,-92,-73,0,19,43
39,68,29,-53,4,48,0,-87,-68,0,29,48
39,73,34,-56,2,53,-9,-87,-68,0,29,48
39,78,39,-58,0,58,-19,-87,-68,0,29,48
39,82,43,-61,-2,63,-39,-107,-78,0,24,48
39,87,48,-63,-4,68,-58,-126,-87,0,19,48
39,102,63,-70,-12,82,-73,-141,-97,-9,14,48
39,117,78,-78,-19,97,-87,-156,-107,-19,9,48
29,117,87,-73,-29,102,-97,-175,-126,-29,0,48
34,122,87,-78,-26,104,-102,-185,-131,-34,-4,48
39,131,92,-85,-26,112,-112,-195,-136,-43,-9,48
63,136,73,-100,-4,104,-122,-185,-126,-29,4,58
73,136,63,-104,4,100,-122,-175,-122,-19,19,73
78,126,48,-102,14,87,-117,-170,-122,-14,24,78
68,102,34,-85,17,68,-117,-170,-122,-19,19,68
63,92,29,-78,17,61,-117,-180,-136,-29,9,63
68,97,29,-82,19,63,-122,-190,-136,-29,4,63
68,102,34,-85,17,68,-126,-190,-136,-29,4,63
58,92,34,-75,12,63,-117,-180,-126,-24,14,63
48,87,39,-68,4,63,-107,-170,-117,-24,19,63
29,68,39,-48,-4,53,-87,-165,-117,-24,14,48
14,53,39,-34,-12,46,-73,-161,-122,-34,0,39
-9,29,39,-9,-24,34,-73,-170,-131,-48,-24,24
-19,14,34,2,-26,24,-68,-175,-141,-58,-34,14
-24,9,34,7,-29,21,-68,-180,-141,-58,-34,0
-29,-4,24,17,-26,9,-68,-185,-146,-68,-48,-9
-29,-4,24,17,-26,9,-68,-190,-151,-68,-48,-9
-29,-9,19,19,-24,4,-73,-190,-151,-68,-48,-9
-29,-9,19,19,-24,4,-73,-190,-151,-73,-43,-9
-29,-9,19,19,-24,4,-68,-190,-151,-78,-43,-9
-29,-9,19,19,-24,4,-73,-190,-151,-78,-43,-4
-29,-9,19,19,-24,4,-73,-190,-151,-78,-43,-4
-29,-4,24,17,-26,9,-73,-190,-151,-73,-43,-4
-29,-4,24,17,-26,9,-73,-185,-151,-68,-43,-9
-29,-4,24,17,-26,9,-68,-185,-151,-73,-43,-4
-29,-4,24,17,-26,9,-63,-185,-151,-73,-43,0
-29,-4,24,17,-26,9,-63,-185,-151,-68,-43,4
-29,-4,24,17,-26,9,-63,-185,-151,-68,-43,4
-34,-4,29,19,-31,12,-63,-185,-151,-68,-43,4
-39,-4,34,21,-36,14,-63,-185,-151,-68,-39,4
-39,-4,34,21,-36,14,-63,-180,-146,-58,-34,9
-43,-4,39,24,-41,17,-68,-180,-146,-53,-29,9
-39,-14,24,26,-31,4,-68,-185,-151,-73,-39,-9
-68,-34,34,51,-51,0,-34,-180,-161,-107,-78,-53
-107,-43,63,75,-85,9,24,-151,-170,-136,-126,-102
-175,-63,112,119,-143,24,107,-141,-219,-214,-219,-165
-248,-82,165,165,-207,41,180,-87,-229,-253,-278,-224
-258,-29,229,143,-244,100,209,-9,-112,-107,-156,-126
-214,53,268,80,-241,161,195,0,-4,87,48,58
-92,185,278,-46,-185,231,122,24,170,400,361,336
97,351,253,-224,-78,302,-39,14,409,819,790,692
307,527,219,-417,43,373,-312,-112,653,1244,1244,1049
522,732,209,-627,156,470,-668,-248,966,1786,1790,1488
668,858,190,-763,239,524,-985,-512,1068,2044,2059,1693
785,927,141,-856,322,534,-1298,-1000,824,1854,1937,1590
780,893,112,-836,334,502,-1532,-1717,117,1190,1405,1220
551,395,-156,-473,353,119,-1605,-2747,-1351,-326,92,287
409,19,-390,-214,400,-185,-1703,-3357,-2430,-1576,-976,-419
453,-102,-556,-175,505,-329,-1795,-3372,-2947,-2357,-1634,-805
575,-214,-790,-180,683,-502,-1756,-2986,-2737,-2288,-1620,-800
663,-302,-966,-180,814,-634,-1556,-2459,-2303,-1956,-1405,-712
707,-331,-1039,-187,873,-685,-1278,-1903,-1800,-1546,-1127,-556
678,-263,-941,-207,810,-602,-1024,-1439,-1366,-1195,-854,-419
570,-209,-780,-180,675,-495,-790,-1063,-1019,-897,-649,-331
419,-165,-585,-126,502,-375,-595,-790,-775,-707,-536,-287
268,-146,-414,-61,341,-280,-385,-527,-536,-492,-400,-224
112,-122,-234,4,173,-178,-170,-263,-273,-263,-219,-151
14,-87,-102,36,58,-95,-39,-73,-82,-107,-92,-82
-29,-73,-43,51,7,-58,19,29,4,-29,-39,-48
-43,-68,-24,56,-9,-46,58,73,39,-4,-14,-34
-53,-68,-14,61,-19,-41,82,102,68,19,4,-19
-58,-68,-9,63,-24,-39,87,117,78,29,14,-14
-58,-68,-9,63,-24,-39,87,122,78,29,14,-14
-58,-68,-9,63,-24,-39,87,131,78,29,14,-14
-58,-68,-9,63,-24,-39,97,131,87,43,19,-14
-58,-68,-9,63,-24,-39,102,136,97,53,29,-9
-58,-68,-9,63,-24,-39,102,146,102,58,29,-9
-63,-73,-9,68,-26,-41,102,146,102,58,29,-9
-63,-73,-9,68,-26,-41,107,156,107,58,29,-14
-63,-73,-9,68,-26,-41,117,165,117,68,34,-9
-58,-73,-14,65,-21,-43,117,170,122,68,39,-9
-58,-73,-14,65,-21,-43,117,180,122,68,39,-9
-58,-68,-9,63,-24,-39,117,190,122,63,34,-14
-58,-63,-4,61,-26,-34,117,200,131,63,29,-19
-58,-63,-4,61,-26,-34,122,209,136,63,29,-19
-58,-63,-4,61,-26,-34,126,214,141,68,34,-19
-58,-63,-4,61,-26,-34,131,224,151,73,34,-19
-53,-63,-9,58,-21,-36,131,234,156,73,34,-19
-53,-63,-9,58,-21,-36,131,239,161,78,34,-19
-53,-68,-14,61,-19,-41,141,253,165,82,34,-19
-58,-68,-9,63,-24,-39,151,263,165,82,34,-19
-63,-68,-4,65,-29,-36,156,273,175,87,39,-19
-63,-68,-4,65,-29,-36,165,283,180,87,39,-24
-63,-68,-4,65,-29,-36,170,292,190,92,34,-24
-58,-73,-14,65,-21,-43,170,302,195,87,29,-24
-53,-73,-19,63,-17,-46,180,317,200,82,24,-24
-58,-73,-14,65,-21,-43,185,331,204,87,29,-29
-58,-73,-14,65,-21,-43,190,341,209,92,29,-29
-63,-78,-14,70,-24,-46,195,356,224,97,34,-29
-68,-78,-9,73,-29,-43,200,375,224,102,39,-29
-63,-78,-14,70,-24,-46,209,395,234,107,39,-29
-63,-78,-14,70,-24,-46,214,409,244,112,39,-34
-68,-82,-14,75,-26,-48,224,424,258,107,34,-39
-68,-87,-19,78,-24,-53,229,439,273,102,29,-39
-73,-92,-19,82,-26,-56,244,468,283,107,29,-43
-73,-97,-24,85,-24,-61,248,488,297,112,29,-43
-73,-97,-24,85,-24,-61,258,507,312,122,29,-53
-78,-97,-19,87,-29,-58,273,536,331,122,29,-58
-78,-102,-24,90,-26,-63,283,566,346,122,19,-63
-82,-107,-24,95,-29,-65,297,600,366,122,14,-68
-82,-117,-34,100,-24,-75,307,624,380,126,14,-73
-82,-122,-39,102,-21,-80,331,663,400,126,14,-78
-97,-126,-29,112,-34,-78,336,688,419,126,4,-92
-97,-131,-34,114,-31,-82,356,722,439,131,4,-92
-102,-131,-29,117,-36,-80,375,756,463,136,9,-102
-107,-131,-24,119,-41,-78,395,795,488,136,14,-112
-117,-126,-9,122,-53,-68,414,834,507,146,9,-122
-126,-131,-4,129,-61,-68,439,873,531,146,0,-131
-136,-141,-4,139,-65,-73,453,907,551,146,-9,-141
-141,-141,0,141,-70,-70,473,946,570,146,-9,-151
-151,-151,0,151,-75,-75,497,976,595,151,-14,-161
-161,-156,4,158,-82,-75,522,1015,614,151,-24,-175
-170,-161,9,165,-90,-75,527,1044,634,146,-39,-190
-180,-165,14,173,-97,-75,546,1073,649,141,-48,-200
-195,-170,24,183,-109,-73,556,1093,658,141,-53,-209
-204,-175,29,190,-117,-73,570,1107,668,136,-53,-219
-214,-175,39,195,-126,-68,580,1112,673,126,-73,-229
-219,-175,43,197,-131,-65,585,1117,673,122,-78,-239
-229,-170,58,200,-143,-56,585,1112,668,117,-82,-239
-234,-170,63,202,-148,-53,585,1098,653,107,-87,-239
-239,-165,73,202,-156,-46,575,1063,639,107,-87,-239
-248,-161,87,204,-168,-36,566,1024,614,102,-92,-239
-248,-146,102,197,-175,-21,546,985,590,92,-92,-229
-248,-126,122,187,-185,-2,522,927,566,82,-87,-214
-244,-122,122,183,-183,0,492,863,522,87,-78,-204
-239,-112,126,175,-183,7,453,790,478,87,-73,-195
-224,-97,126,161,-175,14,414,732,448,82,-58,-170
-214,-87,126,151,-170,19,380,668,414,73,-53,-156
-195,-73,122,134,-158,24,341,590,375,73,-43,-136
-170,-58,112,114,-141,26,307,517,326,73,-29,-112
-161,-43,117,102,-139,36,268,448,283,73,-14,-92
-151,-34,117,92,-134,41,224,380,244,63,-9,-87
-131,-14,117,73,-124,51,185,312,204,58,-4,-58
-117,-9,107,63,-112,48,151,253,161,53,4,-43
-107,0,107,53,-107,53,122,204,122,53,14,-34
-92,9,102,41,-97,56,92,151,87,48,19,-19
-78,19,97,29,-87,58,63,102,63,43,24,0
-63,24,87,19,-75,56,43,73,39,48,29,14
-48,34,82,7,-65,58,19,39,19,34,29,24
-39,43,82,-2,-61,63,-4,9,-4,29,29,29
-24,48,73,-12,-48,61,-14,-19,-19,19,29,29
-14,48,63,-17,-39,56,-24,-43,-39,9,24,34
-4,48,53,-21,-29,51,-34,-63,-43,9,29,43
-4,48,53,-21,-29,51,-43,-78,-48,4,34,48
0,53,53,-26,-26,53,-48,-87,-58,4,39,48
4,53,48,-29,-21,51,-58,-97,-63,-4,43,53
9,48,39,-29,-14,43,-58,-107,-73,-4,39,48
14,43,29,-29,-7,36,-63,-107,-82,-9,39,43
14,39,24,-26,-4,31,-63,-112,-82,-14,29,43
14,39,24,-26,-4,31,-63,-112,-82,-14,29,39
9,39,29,-24,-9,34,-63,-112,-82,-9,29,43
4,39,34,-21,-14,36,-58,-112,-82,-4,29,48
4,43,39,-24,-17,41,-58,-117,-82,-4,24,48
4,43,39,-24,-17,41,-58,-117,-82,-4,19,48
9,39,29,-24,-9,34,-58,-107,-82,-9,19,43
14,39,24,-26,-4,31,-48,-107,-82,-14,19,43
14,39,24,-26,-4,31,-48,-107,-73,-14,14,39
14,39,24,-26,-4,31,-48,-102,-73,-14,14,34
14,34,19,-24,-2,26,-48,-92,-68,-9,14,34
14,34,19,-24,-2,26,-43,-92,-68,-9,14,29
9,29,19,-19,-4,24,-43,-87,-63,-9,14,29
0,19,19,-9,-9,19,-39,-78,-58,-9,14,24
0,19,19,-9,-9,19,-39,-73,-53,-14,4,19
0,14,14,-7,-7,14,-34,-68,-53,-19,0,19
-4,14,19,-4,-12,17,-29,-73,-58,-14,0,19
-4,14,19,-4,-12,17,-29,-73,-58,-14,0,19
-4,24,29,-9,-17,26,-29,-68,-63,-9,4,19
-4,34,39,-14,-21,36,-29,-63,-63,-9,4,19
-4,34,39,-14,-21,36,-24,-63,-63,-9,0,9
-9,19,29,-4,-19,24,-24,-58,-63,-9,-4,4
-9,14,24,-2,-17,19,-24,-58,-63,-14,-9,4
-14,9,24,2,-19,17,-19,-58,-63,-14,-9,4
-14,9,24,2,-19,17,-19,-58,-58,-14,-4,4
-14,14,29,0,-21,21,-14,-58,-53,-14,-4,9
-14,14,29,0,-21,21,-14,-63,-53,-14,-4,4
-14,14,29,0,-21,21,-19,-68,-58,-14,-4,4
-19,14,34,2,-26,24,-24,-68,-63,-24,-9,-4
-24,4,29,9,-26,17,-29,-68,-68,-34,-14,-14
-24,4,29,9,-26,17,-34,-73,-68,-39,-14,-14
-24,4,29,9,-26,17,-34,-73,-68,-39,-19,-19
-24,0,24,12,-24,12,-29,-73,-73,-43,-19,-19
-19,0,19,9,-19,9,-24,-73,-78,-48,-24,-19
-19,9,29,4,-24,19,-24,-78,-78,-48,-24,-19
-19,19,39,0,-29,29,-24,-82,-78,-48,-24,-19
-24,9,34,7,-29,21,-34,-87,-78,-48,-24,-14
-24,0,24,12,-24,12,-39,-92,-87,-48,-24,-9
-24,0,24,12,-24,12,-39,-102,-92,-48,-29,-14
-24,0,24,12,-24,12,-43,-107,-92,-43,-29,-14
-24,4,29,9,-26,17,-48,-112,-92,-43,-24,-14
-24,4,29,9,-26,17,-48,-112,-92,-39,-19,-9
-24,4,29,9,-26,17,-48,-117,-92,-39,-19,-9
-24,14,39,4,-31,26,-48,-122,-92,-43,-24,-9
-19,14,34,2,-26,24,-48,-126,-107,-48,-29,-9
-19,9,29,4,-24,19,-53,-126,-117,-53,-34,-9
-24,9,34,7,-29,21,-53,-126,-117,-53,-29,-14
-24,9,34,7,-29,21,-53,-136,-122,-58,-29,-19
-29,4,34,12,-31,19,-58,-136,-117,-53,-29,-24
-29,-4,24,17,-26,9,-58,-141,-117,-48,-29,-24
-29,4,34,12,-31,19,-58,-141,-117,-53,-29,-19
-29,14,43,7,-36,29,-58,-141,-117,-53,-29,-9
-29,19,48,4,-39,34,-58,-146,-122,-53,-34,-9
-24,24,48,0,-36,36,-58,-151,-122,-58,-39,-9
-19,24,43,-2,-31,34,-58,-151,-122,-58,-39,-9
-19,24,43,-2,-31,34,-63,-151,-122,-53,-39,-9
-19,19,39,0,-29,29,-63,-156,-126,-53,-39,-9
-19,19,39,0,-29,29,-63,-156,-126,-58,-39,-9
-19,19,39,0,-29,29,-68,-156,-131,-63,-39,-9
-19,19,39,0,-29,29,-68,-161,-131,-68,-39,-9
-19,19,39,0,-29,29,-68,-156,-131,-68,-39,-14
-24,19,43,2,-34,31,-68,-156,-131,-68,-39,-14
-24,19,43,2,-34,31,-68,-156,-131,-68,-34,-9
-24,19,43,2,-34,31,-68,-156,-131,-63,-29,-9
-19,19,39,0,-29,29,-63,-156,-131,-58,-29,-4
-14,19,34,-2,-24,26,-58,-156,-126,-53,-29,0
-14,24,39,-4,-26,31,-53,-151,-122,-43,-19,4
-14,29,43,-7,-29,36,-48,-146,-117,-39,-9,14
0,43,43,-21,-21,43,-39,-141,-117,-39,-9,19
0,58,58,-29,-29,58,-29,-131,-112,-39,-4,24
0,58,58,-29,-29,58,-24,-126,-112,-34,-4,24
0,73,73,-36,-36,73,-9,-122,-102,-29,0,29
0,73,73,-36,-36,73,-14,-112,-97,-19,4,29
0,78,78,-39,-39,78,-14,-107,-92,-14,4,34
4,78,73,-41,-34,75,-14,-102,-82,-9,19,34
19,82,63,-51,-21,73,-4,-102,-78,-4,24,43
29,87,58,-58,-14,73,-24,-107,-82,-9,14,39
39,97,58,-68,-9,78,-48,-117,-87,-19,9,39
34,117,82,-75,-24,100,-68,-131,-97,-19,9,39
29,136,107,-82,-39,122,-87,-146,-107,-19,9,39
29,141,112,-85,-41,126,-92,-161,-122,-29,4,39
29,146,117,-87,-43,131,-97,-170,-131,-34,0,39
29,151,122,-90,-46,136,-107,-185,-146,-43,0,39
48,165,117,-107,-34,141,-112,-185,-136,-43,0,39
68,165,97,-117,-14,131,-126,-180,-126,-29,14,48
68,161,92,-114,-12,126,-131,-175,-122,-24,24,58
68,146,78,-107,-4,112,-126,-170,-122,-24,24,58
58,122,63,-90,-2,92,-126,-170,-122,-29,19,48
53,107,53,-80,0,80,-126,-180,-136,-43,4,43
53,102,48,-78,2,75,-126,-190,-136,-48,-4,43
48,102,53,-75,-2,78,-126,-190,-136,-48,-4,43
39,87,48,-63,-4,68,-117,-180,-131,-43,0,43
29,82,53,-56,-12,68,-107,-170,-126,-39,0,43
9,68,58,-39,-24,63,-92,-170,-126,-34,-4,29
0,53,53,-26,-26,53,-82,-170,-136,-43,-19,19
-19,34,53,-7,-36,43,-82,-180,-151,-58,-39,4
-29,24,53,2,-41,39,-78,-185,-161,-73,-43,-4
-29,24,53,2,-41,39,-78,-185,-161,-78,-43,-14
-34,14,48,9,-41,31,-78,-185,-165,-87,-58,-19
-39,14,53,12,-46,34,-78,-190,-170,-87,-58,-19
-39,9,48,14,-43,29,-82,-195,-170,-87,-58,-19
-39,9,48,14,-43,29,-82,-200,-170,-87,-53,-19
-39,4,43,17,-41,24,-78,-200,-170,-87,-53,-19
-39,0,39,19,-39,19,-78,-200,-170,-87,-53,-14
-39,0,39,19,-39,19,-73,-200,-170,-87,-53,-14
-39,4,43,17,-41,24,-73,-200,-170,-87,-53,-14
-39,4,43,17,-41,24,-73,-195,-170,-87,-53,-19
-39,4,43,17,-41,24,-73,-195,-170,-92,-53,-19
-43,4,48,19,-46,26,-73,-190,-170,-92,-53,-19
-48,4,53,21,-51,29,-73,-185,-170,-87,-53,-14
-48,4,53,21,-51,29,-73,-185,-165,-87,-53,-14
-48,4,53,21,-51,29,-73,-185,-161,-87,-53,-14
-43,4,48,19,-46,26,-73,-185,-161,-87,-48,-14
-39,4,43,17,-41,24,-68,-180,-156,-82,-48,-9
-34,9,43,12,-39,26,-78,-180,-156,-78,-43,-9
-29,4,34,12,-31,19,-78,-175,-161,-92,-58,-29
-58,-14,43,36,-51,14,-34,-161,-161,-126,-97,-63
-97,-24,73,61,-85,24,24,-126,-151,-141,-122,-97
-200,-68,131,134,-165,31,122,-112,-214,-234,-239,-195
-268,-92,175,180,-222,41,190,-58,-214,-248,-278,-244
-268,-34,234,151,-251,100,214,29,-78,-82,-136,-126
-209,39,248,85,-229,143,185,43,29,112,68,53
-68,161,229,-46,-148,195,136,112,209,429,395,341
107,312,204,-209,-48,258,4,117,429,810,800,683
341,502,161,-422,90,331,-263,-4,707,1288,1312,1088
561,688,126,-624,217,407,-556,-175,936,1732,1771,1464
712,819,107,-766,302,463,-858,-424,1088,2030,2069,1683
780,834,53,-807,363,444,-1146,-907,805,1800,1903,1561
702,751,48,-727,326,400,-1346,-1761,-92,951,1195,1068
483,351,-131,-417,307,109,-1405,-2679,-1376,-390,19,234
268,-4,-273,-131,270,-139,-1522,-3372,-2596,-1815,-1205,-566
258,-117,-375,-70,317,-246,-1654,-3538,-3206,-2644,-1912,-1000
458,-185,-644,-136,551,-414,-1693,-3074,-2810,-2357,-1717,-878
570,-258,-829,-156,700,-544,-1571,-2566,-2400,-2054,-1507,-785
619,-302,-922,-158,771,-612,-1278,-1961,-1864,-1620,-1190,-614
610,-263,-873,-173,741,-568,-1015,-1473,-1410,-1249,-907,-468
512,-200,-712,-156,612,-456,-771,-1083,-1034,-922,-692,-366
380,-146,-527,-117,453,-336,-566,-771,-746,-697,-536,-297
219,-126,-346,-46,283,-236,-331,-478,-488,-463,-370,-214
82,-112,-195,14,139,-153,-131,-224,-244,-244,-209,-141
4,-87,-92,41,48,-90,-34,-68,-78,-102,-97,-78
-39,-73,-34,56,-2,-53,19,19,4,-24,-43,-48
-43,-63,-19,53,-12,-41,53,53,24,-14,-34,-43
-48,-58,-9,53,-19,-34,78,87,58,9,-14,-29
-48,-58,-9,53,-19,-34,78,97,68,24,-4,-24
-48,-58,-9,53,-19,-34,78,102,68,29,-4,-24
-48,-63,-14,56,-17,-39,78,117,68,29,-4,-24
-48,-68,-19,58,-14,-43,87,126,78,39,0,-24
-48,-68,-19,58,-14,-43,92,136,92,43,14,-19
-48,-68,-19,58,-14,-43,92,146,102,48,19,-19
-53,-68,-14,61,-19,-41,92,146,102,48,19,-19
-53,-63,-9,58,-21,-36,97,156,107,48,19,-19
-53,-63,-9,58,-21,-36,107,161,117,58,24,-9
-48,-63,-14,56,-17,-39,107,161,122,58,29,-9
-53,-63,-9,58,-21,-36,107,170,122,58,29,-9
-58,-63,-4,61,-26,-34,107,175,122,58,29,-14
-58,-63,-4,61,-26,-34,107,180,131,68,29,-19
-58,-63,-4,61,-26,-34,112,190,136,73,29,-19
-53,-63,-9,58,-21,-36,117,195,141,78,34,-19
-53,-63,-9,58,-21,-36,122,204,151,82,34,-19
-53,-63,-9,58,-21,-36,122,209,156,82,34,-19
-53,-63,-9,58,-21,-36,122,209,165,87,34,-19
-53,-68,-14,61,-19,-41,131,224,175,92,34,-14
-53,-68,-14,61,-19,-41,136,234,175,92,34,-9
-53,-73,-19,63,-17,-46,136,244,185,97,39,-9
-53,-78,-24,65,-14,-51,146,253,190,97,39,-14
-53,-78,-24,65,-14,-51,151,263,200,107,34,-14
-53,-82,-29,68,-12,-56,151,273,204,112,34,-14
-53,-78,-24,65,-14,-51,161,287,209,112,39,-14
-58,-73,-14,65,-21,-43,165,302,219,117,48,-19
-58,-73,-14,65,-21,-43,170,312,229,122,48,-19
-58,-78,-19,68,-19,-48,175,326,244,122,48,-19
-58,-78,-19,68,-19,-48,180,346,248,126,48,-19
-53,-78,-24,65,-14,-51,190,366,263,136,48,-19
-58,-78,-19,68,-19,-48,195,380,273,141,48,-19
-68,-82,-14,75,-26,-48,209,400,287,141,48,-19
-68,-87,-19,78,-24,-53,219,419,302,146,53,-19
-73,-92,-19,82,-26,-56,234,448,312,156,58,-24
-68,-97,-29,82,-19,-63,239,468,331,161,58,-24
-63,-97,-34,80,-14,-65,248,488,351,170,58,-34
-68,-102,-34,85,-17,-68,258,517,370,170,58,-39
-68,-112,-43,90,-12,-78,263,546,385,175,58,-39
-73,-117,-43,95,-14,-80,278,585,405,185,63,-39
-73,-122,-48,97,-12,-85,287,614,424,195,63,-43
-73,-122,-48,97,-12,-85,317,653,453,195,73,-48
-87,-126,-39,107,-24,-82,331,688,478,200,73,-63
-87,-131,-43,109,-21,-87,356,732,502,214,73,-63
-92,-136,-43,114,-24,-90,375,766,531,224,73,-73
-97,-141,-43,119,-26,-92,395,805,561,224,73,-78
-107,-141,-34,124,-36,-87,414,844,585,234,68,-82
-112,-151,-39,131,-36,-95,439,888,610,239,63,-92
-117,-161,-43,139,-36,-102,453,927,634,244,58,-102
-122,-161,-39,141,-41,-100,473,966,658,244,58,-112
-131,-165,-34,148,-48,-100,497,995,683,248,53,-122
-141,-170,-29,156,-56,-100,522,1039,702,253,48,-136
-151,-180,-29,165,-61,-104,527,1068,722,258,43,-146
-161,-185,-24,173,-68,-104,546,1093,736,258,39,-151
-175,-190,-14,183,-80,-102,556,1112,746,258,34,-161
-185,-190,-4,187,-90,-97,570,1127,756,253,34,-170
-195,-185,9,190,-102,-87,575,1127,761,248,19,-175
-200,-185,14,192,-107,-85,575,1127,761,248,19,-180
-209,-180,29,195,-119,-75,570,1112,756,248,19,-180
-214,-185,29,200,-122,-78,570,1093,741,244,19,-180
-214,-180,34,197,-124,-73,561,1063,727,244,19,-180
-219,-170,48,195,-134,-61,546,1024,702,239,14,-180
-219,-156,63,187,-141,-46,527,980,678,229,14,-170
-219,-136,82,178,-151,-26,502,917,653,219,19,-156
-214,-131,82,173,-148,-24,473,854,610,214,24,-146
-209,-122,87,165,-148,-17,439,780,566,204,14,-141
-195,-107,87,151,-141,-9,405,717,522,200,19,-122
-190,-97,92,143,-141,-2,370,649,468,180,24,-107
-175,-82,92,129,-134,4,331,570,424,170,34,-87
-151,-68,82,109,-117,7,297,497,375,161,39,-63
-141,-53,87,97,-114,17,258,429,326,146,39,-43
-131,-43,87,87,-109,21,214,361,278,131,39,-43
-112,-24,87,68,-100,31,180,297,234,122,39,-24
-97,-19,78,58,-87,29,151,244,190,107,39,-14
-87,-9,78,48,-82,34,122,195,151,97,39,-4
-78,-4,73,41,-75,34,97,136,112,82,39,9
-68,0,68,34,-68,34,73,82,78,63,39,19
-53,4,58,24,-56,31,53,53,48,53,34,24
-43,9,53,17,-48,31,34,19,29,34,29,34
-34,14,48,9,-41,31,9,-14,0,29,29,39
-19,19,39,0,-29,29,-4,-43,-19,19,29,39
-14,24,39,-4,-26,31,-14,-63,-39,4,24,43
-4,29,34,-12,-19,31,-24,-82,-48,0,24,48
-4,29,34,-12,-19,31,-34,-97,-58,-4,24,48
0,34,34,-17,-17,34,-39,-107,-68,-4,24,48
0,34,34,-17,-17,34,-48,-117,-78,-14,24,48
0,34,34,-17,-17,34,-48,-126,-87,-14,19,43
4,34,29,-19,-12,31,-53,-126,-97,-19,19,43
4,29,24,-17,-9,26,-53,-131,-102,-24,9,43
4,29,24,-17,-9,26,-53,-136,-102,-24,4,39
4,29,24,-17,-9,26,-53,-141,-102,-24,0,39
4,29,24,-17,-9,26,-53,-141,-97,-24,0,39
4,29,24,-17,-9,26,-58,-141,-92,-24,0,39
4,24,19,-14,-7,21,-58,-136,-92,-24,0,39
4,19,14,-12,-4,17,-58,-126,-92,-24,0,34
4,19,14,-12,-4,17,-48,-126,-92,-24,0,34
4,19,14,-12,-4,17,-48,-126,-82,-24,-4,34
4,19,14,-12,-4,17,-48,-122,-82,-24,-4,34
4,14,9,-9,-2,12,-48,-112,-78,-19,-4,34
4,14,9,-9,-2,12,-43,-112,-78,-14,0,29
4,14,9,-9,-2,12,-43,-107,-73,-9,4,29
0,9,9,-4,-4,9,-39,-97,-68,-9,4,29
0,9,9,-4,-4,9,-39,-92,-63,-9,0,29
0,4,4,-2,-2,4,-34,-82,-58,-9,0,29
-4,4,9,0,-7,7,-29,-78,-53,-4,0,29
-4,4,9,0,-7,7,-29,-73,-48,-4,0,29
-4,4,9,0,-7,7,-29,-68,-48,0,4,29
-4,4,9,0,-7,7,-29,-63,-43,0,4,29
-4,4,9,0,-7,7,-24,-63,-39,0,4,24
-4,-4,0,4,-2,-2,-24,-58,-34,0,4,24
0,0,0,0,0,0,-24,-58,-34,-4,0,24
-4,0,4,2,-4,2,-19,-58,-34,-4,4,24
-4,0,4,2,-4,2,-19,-58,-34,-4,9,19
-4,0,4,2,-4,2,-14,-58,-34,-4,4,19
-4,-4,0,4,-2,-2,-14,-58,-34,-4,4,14
-4,-4,0,4,-2,-2,-14,-58,-39,-4,4,14
-9,-4,4,7,-7,0,-9,-58,-39,-4,4,14
-14,-14,0,14,-7,-7,-9,-58,-39,-4,4,14
-14,-14,0,14,-7,-7,-14,-63,-39,-9,4,14
-19,-9,9,14,-14,0,-19,-63,-39,-9,0,9
-24,-9,14,17,-19,2,-24,-68,-43,-14,0,9
-19,-9,9,14,-14,0,-24,-73,-48,-19,-4,9
-19,-9,9,14,-14,0,-24,-78,-48,-19,-4,9
-19,-9,9,14,-14,0,-19,-82,-48,-19,-4,9
-24,-9,14,17,-19,2,-19,-82,-53,-19,-4,9
-24,-9,14,17,-19,2,-19,-78,-68,-19,-4,9
-24,-9,14,17,-19,2,-19,-82,-73,-24,-9,4
-24,-14,9,19,-17,-2,-29,-87,-73,-24,-14,0
-24,-14,9,19,-17,-2,-39,-92,-73,-29,-19,-4
-24,-14,9,19,-17,-2,-39,-92,-73,-29,-19,0
-24,-14,9,19,-17,-2,-39,-97,-73,-29,-19,0
-24,0,24,12,-24,12,-34,-102,-73,-34,-24,4
-19,4,24,7,-21,14,-29,-107,-82,-34,-24,9
-19,0,19,9,-19,9,-34,-107,-87,-34,-24,9
-24,0,24,12,-24,12,-34,-107,-87,-34,-19,9
-19,0,19,9,-19,9,-34,-122,-92,-39,-19,9
-14,4,19,4,-17,12,-39,-126,-92,-39,-24,4
-9,4,14,2,-12,9,-39,-131,-97,-39,-29,4
-9,4,14,2,-12,9,-39,-131,-97,-43,-29,4
-9,4,14,2,-12,9,-43,-131,-97,-43,-29,4
-14,4,19,4,-17,12,-48,-136,-102,-43,-29,0
-14,4,19,4,-17,12,-48,-141,-102,-48,-29,0
-9,4,14,2,-12,9,-48,-141,-102,-48,-29,0
-14,0,14,7,-14,7,-48,-136,-102,-43,-29,0
-19,-4,14,12,-17,4,-43,-136,-107,-43,-29,0
-19,0,19,9,-19,9,-43,-136,-107,-48,-29,0
-19,0,19,9,-19,9,-48,-136,-112,-48,-29,0
-19,0,19,9,-19,9,-48,-146,-117,-53,-29,0
-19,0,19,9,-19,9,-48,-151,-122,-58,-29,-4
-19,4,24,7,-21,14,-48,-156,-122,-58,-29,-4
-14,9,24,2,-19,17,-48,-156,-122,-63,-29,0
-14,9,24,2,-19,17,-48,-156,-122,-63,-29,0
-14,9,24,2,-19,17,-48,-156,-126,-63,-29,0
-19,9,29,4,-24,19,-48,-156,-126,-63,-29,0
-24,9,34,7,-29,21,-48,-156,-126,-58,-29,0
-24,4,29,9,-26,17,-48,-156,-126,-58,-29,4
-9,9,19,0,-14,14,-48,-156,-126,-58,-29,4
-9,19,29,-4,-19,24,-48,-151,-122,-58,-24,4
-9,19,29,-4,-19,24,-43,-146,-122,-53,-24,4
-4,34,39,-14,-21,36,-29,-141,-112,-48,-19,9
0,39,39,-19,-19,39,-24,-131,-107,-39,-14,14
0,48,48,-24,-24,48,-14,-126,-102,-34,-14,24
0,53,53,-26,-26,53,-14,-122,-92,-29,0,24
0,63,63,-31,-31,63,0,-117,-82,-24,4,29
0,63,63,-31,-31,63,4,-107,-78,-24,4,34
4,63,58,-34,-26,61,4,-97,-73,-14,14,39
19,73,53,-46,-17,63,-4,-92,-63,-9,24,48
24,73,48,-48,-12,61,-14,-92,-63,-4,19,48
29,78,48,-53,-9,63,-29,-92,-68,-4,19,48
29,87,58,-58,-14,73,-43,-107,-82,-9,14,48
29,97,68,-63,-19,82,-58,-126,-97,-19,9,48
29,102,73,-65,-21,87,-73,-141,-107,-29,4,43
29,107,78,-68,-24,92,-87,-156,-117,-39,0,39
24,112,87,-68,-31,100,-92,-175,-126,-43,-9,39
29,117,87,-73,-29,102,-97,-185,-131,-48,-14,39
39,126,87,-82,-24,107,-102,-195,-136,-53,-19,39
63,126,63,-95,0,95,-112,-185,-136,-39,-4,48
68,126,58,-97,4,92,-117,-175,-122,-29,4,58
68,117,48,-92,9,82,-117,-170,-112,-24,4,58
63,92,29,-78,17,61,-117,-170,-112,-29,4,48
63,82,19,-73,21,51,-117,-180,-126,-39,0,43
63,82,19,-73,21,51,-117,-185,-126,-39,-4,43
58,82,24,-70,17,53,-117,-180,-126,-39,-4,43
48,73,24,-61,12,48,-107,-170,-122,-34,0,48
39,68,29,-53,4,48,-97,-161,-117,-34,0,53
19,48,29,-34,-4,39,-82,-161,-117,-34,0,39
4,34,29,-19,-12,31,-73,-161,-122,-43,-9,29
-19,14,34,2,-26,24,-73,-170,-131,-58,-29,14
-29,4,34,12,-31,19,-68,-175,-141,-68,-34,4
-29,4,34,12,-31,19,-63,-175,-141,-68,-34,-4
-29,-4,24,17,-26,9,-58,-175,-146,-78,-48,-9
-29,-4,24,17,-26,9,-58,-180,-151,-78,-48,-9
-29,-9,19,19,-24,4,-63,-180,-151,-78,-48,-9
-29,-9,19,19,-24,4,-63,-180,-151,-78,-43,-9
-29,-9,19,19,-24,4,-58,-180,-151,-78,-43,-9
-29,-4,24,17,-26,9,-63,-185,-151,-78,-43,-4
-29,0,29,14,-29,14,-63,-190,-151,-78,-43,-4
-29,4,34,12,-31,19,-63,-190,-151,-78,-43,-4
-29,4,34,12,-31,19,-63,-185,-151,-78,-43,-9
-29,4,34,12,-31,19,-63,-185,-151,-82,-43,-9
-29,4,34,12,-31,19,-63,-185,-151,-82,-43,-9
-34,4,39,14,-36,21,-63,-185,-151,-78,-43,-4
-39,4,43,17,-41,24,-63,-185,-151,-78,-43,-4
-39,4,43,17,-41,24,-63,-185,-151,-78,-43,-4
-39,4,43,17,-41,24,-63,-185,-151,-78,-39,-4
-39,4,43,17,-41,24,-58,-180,-146,-68,-39,0
-43,4,48,19,-46,26,-58,-180,-146,-63,-39,0
-39,-4,34,21,-36,14,-53,-180,-156,-82,-58,-9
-68,-24,43,46,-56,9,-14,-170,-170,-117,-107,-43
-117,-34,82,75,-100,24,34,-146,-180,-146,-146,-97
-195,-53,141,124,-168,43,107,-141,-229,-224,-229,-165
-258,-73,185,165,-222,56,185,-87,-229,-253,-278,-214
-258,-19,239,139,-248,109,219,-9,-102,-97,-146,-107
-209,68,278,70,-244,173,195,-4,4,92,63,68
-82,204,287,-61,-185,246,112,14,180,400,380,336
107,375,268,-241,-80,322,-63,-19,409,824,810,707
317,556,239,-436,39,397,-351,-170,644,1254,1263,1078
522,751,229,-636,146,490,-702,-331,922,1756,1776,1483
658,868,209,-763,224,539,-1015,-619,990,1976,2010,1654
761,912,151,-836,305,531,-1317,-1117,712,1756,1859,1537
741,854,112,-797,314,483,-1542,-1844,-29,1063,1298,1151
522,375,-146,-448,334,114,-1600,-2806,-1434,-405,24,244
390,19,-370,-204,380,-175,-1683,-3347,-2449,-1605,-1005,-439
453,-97,-551,-178,502,-324,-1771,-3337,-2923,-2342,-1625,-795
595,-204,-800,-195,697,-502,-1727,-2928,-2669,-2230,-1571,-761
668,-287,-956,-190,812,-622,-1522,-2400,-2235,-1908,-1356,-683
697,-312,-1010,-192,854,-661,-1239,-1844,-1732,-1507,-1078,-536
673,-248,-922,-212,797,-585,-985,-1395,-1312,-1161,-819,-400
570,-200,-771,-185,671,-485,-751,-1034,-980,-868,-629,-312
409,-156,-566,-126,488,-361,-556,-761,-736,-678,-517,-278
248,-136,-385,-56,317,-261,-346,-497,-497,-463,-380,-224
97,-117,-214,9,156,-165,-146,-244,-239,-244,-200,-146
4,-87,-92,41,48,-90,-29,-63,-53,-97,-73,-73
-29,-73,-43,51,7,-58,29,34,19,-24,-34,-48
-34,-68,-34,51,0,-51,68,73,39,-4,-24,-43
-48,-68,-19,58,-14,-43,92,97,73,24,0,-24
-58,-68,-9,63,-24,-39,97,107,87,39,14,-14
-58,-63,-4,61,-26,-34,97,117,87,39,14,-14
-58,-58,0,58,-29,-29,97,131,87,39,14,-14
-58,-58,0,58,-29,-29,102,136,97,48,19,-14
-58,-58,0,58,-29,-29,102,146,107,53,29,-9
-58,-58,0,58,-29,-29,102,156,112,58,29,-9
-63,-63,0,63,-31,-31,102,156,112,58,29,-9
-63,-63,0,63,-31,-31,107,165,117,58,29,-9
-63,-63,0,63,-31,-31,117,175,126,68,34,0
-58,-68,-9,63,-24,-39,122,180,131,63,34,-4
-58,-73,-14,65,-21,-43,126,190,131,58,29,-9
-58,-73,-14,65,-21,-43,126,195,131,58,29,-14
-58,-73,-14,65,-21,-43,126,200,141,63,29,-19
-58,-73,-14,65,-21,-43,131,209,146,63,29,-19
-58,-73,-14,65,-21,-43,136,214,151,68,34,-19
-63,-73,-9,68,-26,-41,141,224,161,73,34,-19
-63,-73,-9,68,-26,-41,141,234,165,73,34,-19
-63,-73,-9,68,-26,-41,141,239,175,78,39,-14
-63,-78,-14,70,-24,-46,151,253,185,82,43,-9
-63,-73,-9,68,-26,-41,156,268,185,82,43,-9
-63,-68,-4,65,-29,-36,156,283,195,87,48,-9
-63,-68,-4,65,-29,-36,165,292,195,87,48,-19
-63,-68,-4,65,-29,-36,170,302,200,92,43,-24
-63,-73,-9,68,-26,-41,170,312,204,92,39,-24
-63,-73,-9,68,-26,-41,180,326,209,92,34,-24
-68,-73,-4,70,-31,-39,185,336,219,97,39,-29
-68,-73,-4,70,-31,-39,190,341,229,102,39,-29
-68,-82,-14,75,-26,-48,195,356,244,102,34,-34
-68,-87,-19,78,-24,-53,200,375,244,102,29,-39
-63,-87,-24,75,-19,-56,209,395,253,102,29,-39
-63,-87,-24,75,-19,-56,214,409,263,102,29,-43
-68,-92,-24,80,-21,-58,229,429,278,102,29,-48
-68,-97,-29,82,-19,-63,239,448,292,102,29,-48
-73,-102,-29,87,-21,-65,253,478,302,107,29,-48
-73,-107,-34,90,-19,-70,258,497,317,112,29,-43
-73,-102,-29,87,-21,-65,268,512,326,117,29,-53
-78,-97,-19,87,-29,-58,283,536,341,112,29,-58
-78,-102,-24,90,-26,-63,292,566,356,117,29,-63
-82,-107,-24,95,-29,-65,307,600,375,122,34,-68
-82,-117,-34,100,-24,-75,317,624,395,126,29,-73
-82,-122,-39,102,-21,-80,341,663,419,126,24,-78
-97,-126,-29,112,-34,-78,351,697,439,126,14,-92
-97,-131,-34,114,-31,-82,375,741,458,131,14,-92
-102,-136,-34,119,-34,-85,395,775,478,136,14,-102
-107,-141,-34,124,-36,-87,414,814,497,136,14,-112
-117,-141,-24,129,-46,-82,429,849,512,146,9,-122
-126,-151,-24,139,-51,-87,448,883,531,146,0,-131
-136,-161,-24,148,-56,-92,463,917,556,146,-9,-141
-141,-161,-19,151,-61,-90,483,956,580,146,-9,-151
-151,-165,-14,158,-68,-90,507,985,605,151,-14,-161
-161,-165,-4,163,-78,-85,531,1024,624,151,-24,-175
-170,-170,0,170,-85,-85,536,1049,644,146,-34,-185
-180,-175,4,178,-92,-85,556,1073,658,141,-39,-190
-195,-180,14,187,-104,-82,566,1102,668,141,-48,-204
-204,-185,19,195,-112,-82,580,1127,678,136,-53,-219
-214,-185,29,200,-122,-78,595,1127,683,126,-73,-229
-219,-185,34,202,-126,-75,605,1127,683,122,-78,-239
-229,-180,48,204,-139,-65,600,1117,678,122,-78,-239
-234,-180,53,207,-143,-63,595,1098,663,117,-78,-239
-234,-170,63,202,-148,-53,580,1063,649,117,-78,-239
-239,-161,78,200,-158,-41,566,1024,624,112,-82,-239
-239,-146,92,192,-165,-26,546,985,600,102,-82,-229
-239,-126,112,183,-175,-7,522,927,575,92,-78,-214
-239,-122,117,180,-178,-2,492,863,531,92,-73,-204
-239,-112,126,175,-183,7,453,790,488,87,-73,-195
-224,-97,126,161,-175,14,414,727,448,82,-53,-170
-214,-87,126,151,-170,19,380,658,405,73,-43,-156
-190,-73,117,131,-153,21,341,580,375,78,-34,-136
-161,-58,102,109,-131,21,307,507,336,82,-19,-112
-151,-43,107,97,-129,31,263,439,287,82,-4,-82
-141,-34,107,87,-124,36,214,370,244,73,0,-68
-122,-14,107,68,-114,46,180,307,204,63,0,-43
-107,-9,97,58,-102,43,151,253,161,53,4,-34
-97,0,97,48,-97,48,122,200,122,53,9,-24
-82,9,92,36,-87,51,92,141,87,48,9,-9
-68,19,87,24,-78,53,58,92,63,39,14,4
-53,24,78,14,-65,51,34,63,39,39,19,14
-34,34,68,0,-51,51,14,29,19,29,29,29
-19,43,63,-12,-41,53,-4,0,-4,29,39,39
-9,48,58,-19,-34,53,-14,-24,-19,24,39,39
-4,48,53,-21,-29,51,-24,-43,-39,19,34,43
0,43,43,-21,-21,43,-34,-63,-48,19,34,48
-4,39,43,-17,-24,41,-43,-78,-58,14,34,48
0,43,43,-21,-21,43,-48,-87,-68,19,34,48
4,43,39,-24,-17,41,-58,-97,-73,14,34,53
9,43,34,-26,-12,39,-58,-107,-78,14,29,53
14,43,29,-29,-7,36,-63,-107,-82,9,29,53
14,43,29,-29,-7,36,-63,-112,-82,0,19,53
14,48,34,-31,-9,41,-63,-112,-82,-4,19,48
14,48,34,-31,-9,41,-63,-112,-82,-4,19,48
14,48,34,-31,-9,41,-58,-112,-82,-4,19,48
14,48,34,-31,-9,41,-58,-122,-82,-4,19,48
14,43,29,-29,-7,36,-58,-126,-82,-4,19,48
14,39,24,-26,-4,31,-58,-107,-82,-4,19,43
14,39,24,-26,-4,31,-48,-97,-82,-4,19,43
14,39,24,-26,-4,31,-48,-97,-73,-4,19,43
14,39,24,-26,-4,31,-48,-92,-73,-4,24,43
14,29,14,-21,0,21,-48,-82,-73,-4,24,43
14,24,9,-19,2,17,-43,-82,-78,-9,24,39
14,24,9,-19,2,17,-43,-82,-73,-14,14,34
9,19,9,-14,0,14,-39,-78,-68,-19,4,24
9,29,19,-19,-4,24,-39,-73,-63,-19,0,19
9,34,24,-21,-7,29,-34,-68,-63,-19,0,19
0,34,34,-17,-17,34,-24,-68,-63,-9,4,19
-4,34,39,-14,-21,36,-19,-63,-58,-4,9,19
-4,29,34,-12,-19,31,-19,-58,-58,0,14,19
-4,24,29,-9,-17,26,-19,-53,-53,0,14,19
-4,24,29,-9,-17,26,-19,-53,-53,-4,4,9
-9,9,19,0,-14,14,-24,-48,-53,-9,-4,4
-9,9,19,0,-14,14,-24,-48,-53,-14,-9,4
-14,9,24,2,-19,17,-19,-48,-53,-14,-9,4
-14,9,24,2,-19,17,-19,-53,-53,-14,-9,4
-14,14,29,0,-21,21,-14,-58,-53,-14,-14,9
-9,14,24,-2,-17,19,-14,-58,-53,-14,-14,4
-4,14,19,-4,-12,17,-19,-58,-58,-14,-14,4
-9,9,19,0,-14,14,-19,-58,-58,-14,-14,0
-14,-4,9,9,-12,2,-19,-58,-58,-14,-14,-4
-19,-4,14,12,-17,4,-24,-63,-58,-19,-14,-4
-24,-4,19,14,-21,7,-24,-63,-58,-19,-19,-9
-24,-4,19,14,-21,7,-24,-68,-63,-24,-9,-9
-19,0,19,9,-19,9,-24,-73,-68,-29,-4,-9
-9,0,9,4,-9,4,-24,-78,-68,-34,-14,-9
0,0,0,0,0,0,-24,-82,-68,-39,-24,-9
-14,-9,4,12,-9,-2,-29,-82,-68,-39,-24,-9
-24,-19,4,21,-14,-7,-29,-82,-78,-39,-24,-9
-24,-19,4,21,-14,-7,-29,-92,-82,-43,-29,-14
-24,-19,4,21,-14,-7,-34,-97,-82,-43,-29,-14
-19,-9,9,14,-14,0,-43,-102,-87,-48,-29,-14
-14,-4,9,9,-12,2,-48,-102,-92,-48,-29,-9
-14,-4,9,9,-12,2,-48,-107,-92,-43,-24,-9
-14,4,19,4,-17,12,-48,-112,-92,-43,-24,-9
-14,4,19,4,-17,12,-48,-117,-102,-43,-24,-9
-19,0,19,9,-19,9,-53,-117,-107,-43,-24,-9
-24,0,24,12,-24,12,-53,-117,-107,-48,-19,-9
-24,0,24,12,-24,12,-53,-126,-112,-58,-19,-9
-24,4,29,9,-26,17,-53,-126,-107,-58,-24,-14
-19,4,24,7,-21,14,-48,-131,-107,-58,-29,-14
-19,4,24,7,-21,14,-48,-131,-107,-58,-29,-14
-19,4,24,7,-21,14,-48,-131,-107,-53,-29,-9
-24,4,29,9,-26,17,-48,-136,-112,-53,-29,-4
-24,4,29,9,-26,17,-48,-141,-112,-58,-29,0
-19,4,24,7,-21,14,-48,-141,-112,-58,-29,0
-19,4,24,7,-21,14,-53,-141,-112,-53,-29,0
-19,4,24,7,-21,14,-53,-146,-122,-53,-29,0
-19,9,29,4,-24,19,-53,-146,-126,-58,-29,0
-19,9,29,4,-24,19,-58,-146,-131,-58,-29,0
-19,9,29,4,-24,19,-58,-151,-131,-58,-29,0
-19,9,29,4,-24,19,-58,-151,-131,-58,-29,-4
-24,9,34,7,-29,21,-58,-156,-131,-58,-29,-4
-24,9,34,7,-29,21,-58,-156,-131,-63,-29,0
-24,9,34,7,-29,21,-58,-156,-131,-63,-29,0
-24,9,34,7,-29,21,-58,-156,-131,-58,-24,4
-24,9,34,7,-29,21,-58,-156,-126,-53,-19,9
-19,14,34,2,-26,24,-53,-156,-122,-43,-19,9
-14,19,34,-2,-24,26,-48,-156,-117,-39,-19,14
0,34,34,-17,-17,34,-39,-146,-117,-39,-19,14
0,48,48,-24,-24,48,-29,-131,-112,-39,-14,14
0,48,48,-24,-24,48,-24,-126,-112,-34,-14,14
0,63,63,-31,-31,63,-9,-122,-102,-29,-9,19
0,63,63,-31,-31,63,-9,-112,-97,-14,0,29
0,68,68,-34,-34,68,-4,-107,-92,-4,4,43
4,73,68,-39,-31,70,-9,-102,-82,0,24,43
19,82,63,-51,-21,73,-4,-102,-78,4,34,53
24,87,63,-56,-19,75,-24,-112,-78,4,29,48
34,97,63,-65,-14,80,-48,-122,-82,4,29,48
34,112,78,-73,-21,95,-58,-136,-92,0,24,48
39,126,87,-82,-24,107,-68,-156,-107,-9,19,48
39,136,97,-87,-29,117,-78,-161,-117,-19,9,48
39,146,107,-92,-34,126,-87,-165,-126,-29,0,48
39,156,117,-97,-39,136,-97,-180,-136,-34,0,48
43,161,117,-102,-36,139,-102,-185,-136,-39,0,48
48,165,117,-107,-34,141,-112,-195,-136,-43,0,48
63,156,92,-109,-14,124,-122,-185,-126,-29,14,58
68,151,82,-109,-7,117,-122,-175,-122,-24,24,68
68,136,68,-102,0,102,-117,-170,-122,-24,24,68
58,112,53,-85,2,82,-117,-170,-122,-29,19,58
53,102,48,-78,2,75,-117,-180,-136,-39,9,53
53,97,43,-75,4,70,-117,-190,-136,-39,4,53
48,92,43,-70,2,68,-117,-190,-136,-39,4,53
39,78,39,-58,0,58,-102,-180,-131,-34,4,48
29,68,39,-48,-4,53,-87,-170,-126,-34,0,43
9,48,39,-29,-14,43,-73,-170,-126,-39,-4,24
-4,34,39,-14,-21,36,-63,-170,-131,-53,-19,9
-29,14,43,7,-36,29,-68,-180,-141,-68,-39,-4
-39,4,43,17,-41,24,-68,-185,-151,-78,-43,-14
-39,4,43,17,-41,24,-68,-185,-151,-78,-43,-19
-39,-4,34,21,-36,14,-68,-185,-156,-87,-58,-19
-34,0,34,17,-34,17,-68,-190,-161,-87,-58,-19
-29,0,29,14,-29,14,-73,-190,-161,-87,-58,-19
-29,0,29,14,-29,14,-73,-190,-161,-87,-53,-19
-29,0,29,14,-29,14,-68,-190,-161,-87,-53,-19
-29,0,29,14,-29,14,-68,-190,-161,-87,-53,-14
-29,0,29,14,-29,14,-63,-190,-161,-87,-53,-14
-34,0,34,17,-34,17,-63,-190,-161,-87,-53,-14
-39,-4,34,21,-36,14,-63,-185,-161,-87,-53,-19
-39,-4,34,21,-36,14,-63,-185,-161,-92,-53,-19
-39,-4,34,21,-36,14,-63,-185,-161,-92,-53,-19
-39,-4,34,21,-36,14,-63,-185,-161,-87,-53,-14
-39,-4,34,21,-36,14,-63,-185,-161,-87,-53,-14
-39,-4,34,21,-36,14,-63,-185,-161,-87,-53,-14
-39,-4,34,21,-36,14,-63,-185,-161,-87,-48,-14
-39,-4,34,21,-36,14,-58,-180,-156,-87,-53,-14
-43,-4,39,24,-41,17,-58,-180,-156,-92,-58,-19
-48,-14,34,31,-41,9,-43,-165,-161,-112,-78,-39
-87,-34,53,61,-70,9,4,-141,-170,-146,-126,-82
-136,-43,92,90,-114,24,63,-102,-161,-146,-156,-126
-214,-63,151,139,-183,43,146,-82,-190,-195,-229,-185
-244,-53,190,148,-217,68,190,-29,-156,-161,-204,-170
-209,29,239,90,-224,134,190,48,4,58,0,0
-126,117,244,4,-185,180,141,48,126,287,253,219
34,253,219,-143,-92,236,34,63,317,634,614,531
224,414,190,-319,17,302,-151,14,546,1044,1044,888
434,585,151,-509,141,368,-448,-151,780,1459,1498,1244
624,746,122,-685,251,434,-751,-385,917,1790,1849,1532
746,829,82,-788,331,456,-1015,-746,844,1839,1922,1586
761,751,-9,-756,385,370,-1259,-1342,322,1317,1493,1273
653,570,-82,-612,368,244,-1424,-2166,-663,322,653,692
434,170,-263,-302,348,-46,-1483,-3001,-1937,-1039,-541,-136
302,-107,-409,-97,356,-258,-1566,-3416,-2820,-2132,-1493,-741
385,-170,-556,-107,470,-363,-1659,-3294,-3054,-2571,-1869,-966
546,-224,-771,-161,658,-497,-1620,-2771,-2562,-2161,-1571,-800
600,-292,-893,-153,746,-592,-1415,-2244,-2122,-1825,-1332,-707
610,-302,-912,-153,761,-607,-1132,-1688,-1615,-1410,-1029,-546
570,-234,-805,-168,688,-519,-878,-1249,-1195,-1063,-771,-409
453,-180,-634,-136,544,-407,-644,-897,-863,-771,-580,-322
302,-136,-439,-82,370,-287,-448,-624,-619,-570,-448,-253
151,-117,-268,-17,209,-192,-239,-361,-380,-346,-292,-165
34,-107,-141,36,87,-124,-78,-151,-165,-170,-151,-112
-24,-87,-63,56,19,-75,0,-14,-24,-68,-63,-63
-58,-73,-14,65,-21,-43,43,58,39,-4,-24,-39
-63,-68,-4,65,-29,-36,68,73,48,4,-14,-34
-68,-68,0,68,-34,-34,87,97,73,29,4,-19
-68,-68,0,68,-34,-34,87,107,78,39,14,-14
-68,-68,0,68,-34,-34,87,112,78,39,14,-14
-68,-68,0,68,-34,-34,87,122,78,39,14,-14
-63,-68,-4,65,-29,-36,92,126,87,48,14,-19
-58,-68,-9,63,-24,-39,92,136,97,53,19,-19
-58,-68,-9,63,-24,-39,92,146,102,58,19,-19
-63,-73,-9,68,-26,-41,92,146,102,58,19,-19
-63,-73,-9,68,-26,-41,102,156,107,58,24,-19
-63,-73,-9,68,-26,-41,117,165,117,68,34,-9
-58,-73,-14,65,-21,-43,117,170,126,68,39,-9
-58,-73,-14,65,-21,-43,117,180,131,68,39,-9
-58,-73,-14,65,-21,-43,117,185,131,68,39,-9
-58,-73,-14,65,-21,-43,117,190,141,73,39,-9
-58,-73,-14,65,-21,-43,122,200,146,73,39,-9
-58,-73,-14,65,-21,-43,126,204,151,78,43,-9
-63,-73,-9,68,-26,-41,131,214,161,87,43,-9
-63,-73,-9,68,-26,-41,131,224,165,92,43,-9
-63,-73,-9,68,-26,-41,131,229,175,97,43,-9
-63,-78,-14,70,-24,-46,141,244,185,102,43,-9
-63,-78,-14,70,-24,-46,146,248,185,102,43,-4
-63,-78,-14,70,-24,-46,146,253,195,107,48,0
-63,-78,-14,70,-24,-46,156,263,200,107,53,-4
-63,-78,-14,70,-24,-46,161,273,209,112,53,-4
-58,-82,-24,70,-17,-53,161,283,214,112,53,-9
-53,-82,-29,68,-12,-56,170,297,219,112,53,-14
-58,-82,-24,70,-17,-53,175,317,229,117,58,-19
-58,-82,-24,70,-17,-53,180,331,239,122,58,-19
-63,-87,-24,75,-19,-56,180,346,258,126,53,-19
-68,-87,-19,78,-24,-53,180,366,263,131,48,-19
-63,-82,-19,73,-21,-51,190,385,273,136,48,-19
-63,-78,-14,70,-24,-46,195,400,283,141,48,-24
-68,-82,-14,75,-26,-48,209,419,302,141,53,-29
-68,-87,-19,78,-24,-53,219,439,322,141,58,-29
-73,-97,-24,85,-24,-61,234,468,331,146,58,-34
-73,-107,-34,90,-19,-70,239,488,346,151,58,-34
-73,-107,-34,90,-19,-70,248,507,361,161,58,-43
-78,-107,-29,92,-24,-68,263,536,380,161,58,-48
-78,-112,-34,95,-21,-73,273,566,395,170,58,-48
-82,-117,-34,100,-24,-75,287,600,414,180,63,-48
-82,-122,-39,102,-21,-80,302,624,439,185,68,-53
-82,-122,-39,102,-21,-80,331,663,468,185,73,-58
-92,-126,-34,109,-29,-80,341,697,488,190,63,-68
-87,-131,-43,109,-21,-87,366,741,507,200,63,-63
-87,-136,-48,112,-19,-92,380,775,531,204,63,-73
-87,-141,-53,114,-17,-97,395,814,556,204,63,-82
-97,-141,-43,119,-26,-92,414,854,575,224,63,-92
-107,-151,-43,129,-31,-97,439,893,600,234,58,-102
-122,-161,-39,141,-41,-100,453,927,624,234,48,-112
-131,-161,-29,146,-51,-95,473,966,649,234,48,-122
-141,-165,-24,153,-58,-95,497,995,678,239,43,-131
-151,-165,-14,158,-68,-90,522,1034,702,239,34,-146
-161,-170,-9,165,-75,-90,527,1058,722,239,24,-156
-170,-175,-4,173,-82,-90,546,1083,736,239,19,-161
-185,-180,4,183,-95,-87,551,1098,741,239,14,-180
-195,-185,9,190,-102,-87,561,1107,746,234,14,-200
-204,-185,19,195,-112,-82,566,1107,746,229,0,-195
-209,-185,24,197,-117,-80,566,1107,741,229,0,-190
-219,-180,39,200,-129,-70,561,1093,736,224,0,-190
-224,-180,43,202,-134,-68,556,1068,722,214,0,-190
-224,-170,53,197,-139,-58,541,1024,702,214,0,-190
-229,-161,68,195,-148,-46,527,976,673,209,-4,-190
-224,-141,82,183,-153,-29,507,932,644,200,-9,-180
-219,-117,102,168,-161,-7,483,868,614,190,-9,-165
-214,-112,102,163,-158,-4,453,805,566,185,-4,-156
-209,-102,107,156,-158,2,414,732,517,175,-4,-146
-200,-87,112,143,-156,12,375,668,473,170,9,-122
-195,-78,117,136,-156,19,341,600,424,161,14,-107
-175,-63,112,119,-143,24,302,522,385,151,19,-92
-151,-48,102,100,-126,26,268,448,336,141,29,-73
-141,-34,107,87,-124,36,229,380,287,131,39,-53
-131,-24,107,78,-119,41,185,312,244,112,39,-48
-107,-4,102,56,-104,48,151,248,204,97,34,-24
-87,0,87,43,-87,43,122,195,161,82,34,-14
-78,9,87,34,-82,48,97,151,122,73,39,-4
-63,19,82,21,-73,51,73,102,87,58,39,9
-53,29,82,12,-68,56,43,53,53,43,34,14
-43,34,78,4,-61,56,24,24,19,39,29,14
-34,34,68,0,-51,51,4,-9,0,24,29,24
-29,34,63,-2,-46,48,-14,-39,-24,19,29,29
-19,39,58,-9,-39,48,-24,-63,-39,9,29,29
-14,39,53,-12,-34,46,-34,-82,-58,0,24,34
-4,39,43,-17,-24,41,-39,-97,-68,-4,19,39
-4,39,43,-17,-24,41,-43,-107,-78,-14,14,39
0,43,43,-21,-21,43,-48,-117,-87,-14,14,39
4,43,39,-24,-17,41,-58,-126,-92,-24,14,43
4,39,34,-21,-14,36,-58,-136,-97,-24,9,43
4,34,29,-19,-12,31,-63,-136,-102,-29,9,43
4,29,24,-17,-9,26,-63,-141,-102,-34,0,43
4,29,24,-17,-9,26,-63,-141,-102,-34,0,39
4,29,24,-17,-9,26,-63,-141,-102,-29,0,39
4,29,24,-17,-9,26,-58,-141,-102,-24,0,39
4,29,24,-17,-9,26,-58,-141,-102,-24,0,39
4,24,19,-14,-7,21,-58,-136,-102,-24,0,39
4,19,14,-12,-4,17,-58,-126,-97,-24,4,34
4,19,14,-12,-4,17,-48,-126,-92,-24,9,34
4,19,14,-12,-4,17,-48,-126,-82,-24,4,34
4,19,14,-12,-4,17,-48,-122,-82,-24,4,34
4,14,9,-9,-2,12,-48,-112,-78,-19,4,34
4,14,9,-9,-2,12,-43,-112,-78,-19,4,29
4,19,14,-12,-4,17,-43,-102,-73,-14,4,29
0,19,19,-9,-9,19,-39,-87,-68,-9,4,24
0,19,19,-9,-9,19,-39,-82,-58,-9,0,19
0,14,14,-7,-7,14,-34,-78,-53,-9,0,19
-4,14,19,-4,-12,17,-29,-78,-53,-9,0,19
-4,14,19,-4,-12,17,-29,-73,-48,-14,0,19
-4,14,19,-4,-12,17,-29,-68,-48,-9,4,19
-4,14,19,-4,-12,17,-29,-63,-43,-9,4,19
0,19,19,-9,-9,19,-24,-68,-43,-4,4,14
0,9,9,-4,-4,9,-24,-68,-43,0,4,14
0,9,9,-4,-4,9,-29,-68,-43,-4,0,14
-4,9,14,-2,-9,12,-29,-68,-43,-4,0,14
-4,4,9,0,-7,7,-29,-63,-43,-4,0,9
-4,4,9,0,-7,7,-24,-58,-43,-4,-4,9
-4,4,9,0,-7,7,-24,-58,-43,-4,-4,4
-4,4,9,0,-7,7,-29,-58,-48,-4,-4,4
-9,4,14,2,-12,9,-24,-58,-48,-4,-4,4
-14,-4,9,9,-12,2,-19,-58,-48,-4,-4,4
-19,-4,14,12,-17,4,-24,-63,-48,-9,-4,4
-24,-4,19,14,-21,7,-24,-63,-48,-9,-9,0
-24,-9,14,17,-19,2,-24,-68,-53,-14,-9,0
-19,-9,9,14,-14,0,-24,-73,-58,-19,-14,0
-19,-9,9,14,-14,0,-29,-78,-58,-24,-14,0
-19,-9,9,14,-14,0,-34,-82,-58,-29,-14,0
-19,-9,9,14,-14,0,-39,-82,-63,-29,-14,0
-14,-9,4,12,-9,-2,-39,-82,-78,-29,-14,0
-14,-9,4,12,-9,-2,-34,-92,-82,-29,-19,0
-14,-9,4,12,-9,-2,-34,-97,-82,-24,-19,4
-19,-4,14,12,-17,4,-39,-102,-82,-29,-19,4
-24,-4,19,14,-21,7,-39,-102,-82,-29,-19,9
-24,-4,19,14,-21,7,-39,-107,-82,-29,-19,4
-24,4,29,9,-26,17,-39,-112,-82,-34,-24,0
-19,4,24,7,-21,14,-39,-117,-92,-34,-24,0
-19,0,19,9,-19,9,-43,-117,-97,-34,-24,0
-19,0,19,9,-19,9,-43,-117,-97,-34,-19,0
-14,0,14,7,-14,7,-43,-126,-102,-39,-19,0
-14,4,19,4,-17,12,-48,-126,-102,-43,-24,-4
-9,4,14,2,-12,9,-48,-131,-107,-48,-29,-4
-9,4,14,2,-12,9,-48,-131,-107,-53,-29,-4
-9,4,14,2,-12,9,-48,-131,-107,-53,-29,0
-19,4,24,7,-21,14,-48,-136,-112,-53,-29,0
-24,4,29,9,-26,17,-48,-141,-112,-58,-29,0
-19,4,24,7,-21,14,-48,-141,-112,-58,-29,0
-19,4,24,7,-21,14,-53,-141,-112,-53,-29,0
-19,4,24,7,-21,14,-53,-146,-117,-53,-29,0
-19,9,29,4,-24,19,-53,-146,-117,-58,-29,0
-19,9,29,4,-24,19,-58,-146,-122,-58,-29,0
-19,9,29,4,-24,19,-58,-151,-122,-58,-29,0
-19,9,29,4,-24,19,-58,-151,-122,-58,-29,-4
-24,9,34,7,-29,21,-58,-156,-122,-58,-29,-4
-24,9,34,7,-29,21,-58,-156,-122,-63,-29,0
-24,9,34,7,-29,21,-58,-156,-122,-63,-29,0
-24,9,34,7,-29,21,-58,-156,-126,-63,-29,0
-24,9,34,7,-29,21,-58,-156,-126,-63,-29,0
-24,9,34,7,-29,21,-58,-156,-126,-53,-29,0
-24,9,34,7,-29,21,-58,-156,-126,-48,-29,4
-9,24,34,-7,-21,29,-53,-151,-122,-48,-24,9
-9,39,48,-14,-29,43,-48,-141,-112,-48,-14,14
-9,39,48,-14,-29,43,-43,-136,-112,-43,-14,14
-9,53,63,-21,-36,58,-29,-131,-102,-39,-9,19
-9,58,68,-24,-39,63,-24,-122,-97,-29,-4,24
-9,68,78,-29,-43,73,-14,-117,-92,-24,-4,34
-9,73,82,-31,-46,78,-14,-107,-78,-19,9,34
-4,82,87,-39,-46,85,-4,-102,-68,-14,14,39
4,82,78,-43,-36,80,-4,-97,-68,-4,19,43
19,87,68,-53,-24,78,-9,-92,-68,9,29,48
24,92,68,-58,-21,80,-24,-102,-73,0,29,48
29,102,73,-65,-21,87,-43,-112,-78,-4,29,48
29,112,82,-70,-26,97,-58,-126,-82,-9,24,48
29,126,97,-78,-34,112,-78,-146,-87,-19,19,48
29,136,107,-82,-39,122,-87,-156,-102,-24,9,48
29,146,117,-87,-43,131,-97,-165,-117,-29,0,48
14,146,131,-80,-58,139,-102,-180,-131,-39,-4,43
19,151,131,-85,-56,141,-107,-185,-131,-43,-4,39
29,156,126,-92,-48,141,-117,-195,-136,-53,-9,39
63,156,92,-109,-14,124,-131,-185,-126,-39,4,48
68,151,82,-109,-7,117,-131,-175,-122,-29,14,63
68,136,68,-102,0,102,-126,-170,-122,-24,14,68
58,112,53,-85,2,82,-126,-170,-117,-29,9,58
53,102,48,-78,2,75,-126,-180,-126,-39,0,53
58,107,48,-82,4,78,-126,-190,-126,-39,-4,53
58,112,53,-85,2,82,-126,-190,-126,-39,-4,53
48,102,53,-75,-2,78,-117,-180,-122,-34,0,53
39,97,58,-68,-9,78,-107,-170,-117,-34,0,53
19,78,58,-48,-19,68,-92,-170,-117,-34,-4,39
4,63,58,-34,-26,61,-82,-170,-122,-43,-19,29
-19,43,63,-12,-41,53,-82,-180,-131,-58,-39,14
-29,34,63,-2,-46,48,-78,-185,-141,-68,-43,4
-29,34,63,-2,-46,48,-78,-185,-141,-68,-39,-4
-29,24,53,2,-41,39,-78,-185,-146,-78,-48,-9
-34,19,53,7,-43,36,-78,-190,-151,-78,-48,-9
-39,9,48,14,-43,29,-82,-190,-151,-78,-48,-9
-39,9,48,14,-43,29,-82,-190,-156,-78,-48,-14
-39,9,48,14,-43,29,-78,-190,-161,-78,-53,-19
-39,9,48,14,-43,29,-78,-190,-161,-78,-53,-14
-39,9,48,14,-43,29,-73,-190,-161,-78,-53,-14
-39,9,48,14,-43,29,-73,-190,-161,-78,-53,-14
-39,4,43,17,-41,24,-73,-185,-161,-78,-53,-19
-39,4,43,17,-41,24,-73,-185,-161,-82,-53,-19
-39,4,43,17,-41,24,-73,-185,-161,-82,-53,-19
-39,9,48,14,-43,29,-73,-185,-156,-78,-48,-9
-39,14,53,12,-46,34,-73,-185,-151,-78,-43,-4
-39,19,58,9,-48,39,-68,-185,-151,-78,-43,-4
-39,24,63,7,-51,43,-63,-185,-151,-78,-39,-4
-34,24,58,4,-46,41,-58,-180,-146,-73,-39,0
-34,24,58,4,-46,41,-58,-180,-146,-73,-39,0
-39,9,48,14,-43,29,-53,-180,-156,-92,-58,-19
-78,-14,63,46,-70,24,-14,-170,-170,-126,-107,-63
-126,-24,102,75,-114,39,43,-141,-170,-141,-141,-107
-204,-43,161,124,-183,58,126,-131,-209,-204,-219,-165
-253,-43,209,148,-231,82,185,-78,-195,-209,-244,-195
-239,29,268,104,-253,148,200,0,-53,-29,-87,-68
-170,117,287,26,-229,202,161,4,68,185,146,131
-24,253,278,-114,-151,265,63,24,258,517,488,424
165,424,258,-295,-46,341,-122,-4,497,951,927,790
375,605,229,-490,73,417,-419,-151,741,1390,1390,1156
580,780,200,-680,190,490,-761,-331,976,1825,1839,1517
717,878,161,-797,278,519,-1063,-639,1000,1976,2010,1644
790,893,102,-841,344,497,-1356,-1195,595,1600,1722,1434
741,805,63,-773,339,434,-1571,-1981,-273,751,1024,956
541,322,-219,-431,380,51,-1634,-2888,-1639,-692,-224,73
429,-39,-468,-195,448,-253,-1722,-3376,-2615,-1869,-1229,-585
483,-136,-619,-173,551,-378,-1776,-3308,-2976,-2459,-1742,-883
614,-224,-839,-195,727,-531,-1698,-2840,-2610,-2200,-1581,-790
678,-297,-976,-190,827,-636,-1493,-2318,-2181,-1873,-1351,-702
697,-312,-1010,-192,854,-661,-1210,-1766,-1683,-1468,-1058,-546
649,-244,-893,-202,771,-568,-956,-1327,-1263,-1122,-800,-409
522,-190,-712,-165,617,-451,-722,-976,-932,-829,-610,-322
370,-146,-517,-112,444,-331,-527,-702,-688,-639,-483,-268
219,-126,-346,-46,283,-236,-317,-439,-448,-424,-331,-195
78,-112,-190,17,134,-151,-122,-200,-214,-214,-180,-131
-4,-87,-82,46,39,-85,-9,-34,-53,-78,-82,-73
-43,-73,-29,58,-7,-51,39,48,14,-14,-39,-48
-53,-68,-14,61,-19,-41,68,73,29,-4,-24,-43
-58,-63,-4,61,-26,-34,87,102,63,19,-4,-29
-58,-58,0,58,-29,-29,87,117,78,29,4,-24
-58,-58,0,58,-29,-29,87,122,78,29,4,-24
-58,-58,0,58,-29,-29,87,131,78,29,4,-24
-58,-58,0,58,-29,-29,97,136,87,43,9,-24
-58,-58,0,58,-29,-29,102,146,97,53,19,-19
-53,-58,-4,56,-24,-31,102,156,102,58,19,-19
-53,-63,-9,58,-21,-36,102,156,102,58,19,-19
-53,-63,-9,58,-21,-36,107,165,107,58,19,-19
-53,-63,-9,58,-21,-36,117,175,117,68,24,-9
-53,-63,-9,58,-21,-36,117,180,122,68,29,-9
-58,-63,-4,61,-26,-34,117,190,122,68,29,-9
-58,-63,-4,61,-26,-34,117,195,122,68,29,-14
-58,-63,-4,61,-26,-34,117,200,131,73,29,-19
-58,-63,-4,61,-26,-34,122,214,136,73,29,-19
-58,-63,-4,61,-26,-34,126,224,141,78,34,-19
-63,-63,0,63,-31,-31,136,234,151,82,34,-19
-63,-63,0,63,-31,-31,141,244,156,82,34,-19
-63,-63,0,63,-31,-31,141,248,165,87,34,-19
-63,-68,-4,65,-29,-36,151,263,175,92,34,-19
-63,-73,-9,68,-26,-41,151,273,170,82,29,-19
-63,-78,-14,70,-24,-46,146,283,175,78,29,-19
-63,-78,-14,70,-24,-46,156,292,180,78,29,-24
-63,-78,-14,70,-24,-46,161,302,190,82,24,-24
-63,-82,-19,73,-21,-51,161,312,195,87,29,-24
-63,-82,-19,73,-21,-51,170,326,200,92,34,-24
-68,-82,-14,75,-26,-48,180,341,209,97,39,-29
-68,-82,-14,75,-26,-48,190,351,219,102,39,-29
-68,-87,-19,78,-24,-53,195,366,239,102,39,-29
-68,-87,-19,78,-24,-53,200,385,244,102,39,-29
-63,-87,-24,75,-19,-56,204,400,253,97,34,-29
-63,-87,-24,75,-19,-56,204,409,263,92,29,-34
-68,-87,-19,78,-24,-53,219,429,273,92,24,-43
-68,-87,-19,78,-24,-53,229,448,283,92,19,-48
-73,-92,-19,82,-26,-56,244,478,287,97,19,-53
-73,-97,-24,85,-24,-61,248,497,297,102,19,-53
-73,-97,-24,85,-24,-61,258,512,312,112,19,-63
-78,-97,-19,87,-29,-58,273,536,331,112,19,-68
-78,-102,-24,90,-26,-63,283,566,346,117,19,-68
-82,-107,-24,95,-29,-65,297,600,366,122,24,-68
-82,-112,-29,97,-26,-70,307,624,385,126,24,-73
-82,-112,-29,97,-26,-70,331,663,409,126,24,-78
-97,-117,-19,107,-39,-68,341,697,429,131,14,-92
-97,-122,-24,109,-36,-73,366,741,448,141,14,-92
-102,-126,-24,114,-39,-75,385,775,473,146,14,-92
-107,-131,-24,119,-41,-78,405,814,497,146,14,-92
-117,-131,-14,124,-51,-73,424,849,517,146,4,-112
-126,-141,-14,134,-56,-78,448,883,541,136,-9,-131
-136,-151,-14,143,-61,-82,463,917,561,136,-19,-141
-141,-151,-9,146,-65,-80,483,956,580,136,-19,-151
-151,-156,-4,153,-73,-80,502,985,600,141,-24,-161
-161,-156,4,158,-82,-75,522,1024,614,141,-34,-175
-170,-161,9,165,-90,-75,527,1054,634,136,-48,-190
-180,-165,14,173,-97,-75,546,1083,649,131,-58,-200
-195,-170,24,183,-109,-73,561,1102,658,131,-63,-209
-204,-175,29,190,-117,-73,580,1117,668,126,-63,-219
-214,-175,39,195,-126,-68,585,1117,673,117,-78,-224
-219,-175,43,197,-131,-65,585,1117,673,112,-78,-229
-229,-170,58,200,-143,-56,585,1102,668,112,-78,-229
-234,-170,63,202,-148,-53,585,1078,653,107,-78,-229
-234,-161,73,197,-153,-43,570,1044,634,107,-78,-229
-239,-151,87,195,-163,-31,556,1005,605,102,-82,-229
-244,-136,107,190,-175,-14,536,966,580,97,-82,-219
-248,-117,131,183,-190,7,512,907,556,92,-78,-204
-244,-112,131,178,-187,9,483,844,512,87,-73,-195
-239,-102,136,170,-187,17,444,771,468,78,-73,-185
-224,-87,136,156,-180,24,400,707,429,73,-58,-161
-214,-78,136,146,-175,29,361,639,385,63,-53,-146
-195,-63,131,129,-163,34,322,561,351,63,-39,-126
-170,-48,122,109,-146,36,287,488,307,63,-19,-102
-161,-29,131,95,-146,51,248,419,268,68,-4,-78
-151,-14,136,82,-143,61,204,351,234,63,0,-68
-131,4,136,63,-134,70,170,287,195,53,0,-43
-117,9,126,53,-122,68,141,234,151,43,4,-34
-102,19,122,41,-112,70,112,185,117,43,14,-24
-82,29,112,26,-97,70,82,131,87,39,19,-9
-68,39,107,14,-87,73,53,82,63,39,29,4
-53,43,97,4,-75,70,34,53,39,48,39,14
-39,48,87,-4,-63,68,14,19,19,34,39,29
-29,53,82,-12,-56,68,-4,-9,-4,29,39,39
-19,58,78,-19,-48,68,-14,-34,-19,19,39,39
-14,58,73,-21,-43,65,-24,-53,-39,9,34,43
-4,58,63,-26,-34,61,-34,-73,-48,9,34,48
-4,58,63,-26,-34,61,-43,-87,-58,4,34,48
0,63,63,-31,-31,63,-48,-97,-68,4,34,48
4,63,58,-34,-26,61,-58,-107,-73,-4,34,53
9,63,53,-36,-21,58,-58,-117,-78,-4,29,48
14,63,48,-39,-17,56,-63,-117,-82,-9,29,43
14,58,43,-36,-14,51,-63,-122,-82,-14,19,43
14,58,43,-36,-14,51,-63,-122,-82,-14,19,39
14,53,39,-34,-12,46,-63,-117,-82,-14,19,43
14,48,34,-31,-9,41,-58,-112,-82,-14,19,48
14,48,34,-31,-9,41,-58,-112,-82,-14,24,48
14,43,29,-29,-7,36,-58,-107,-82,-14,29,48
14,39,24,-26,-4,31,-58,-97,-78,-14,29,43
14,39,24,-26,-4,31,-48,-97,-73,-14,29,43
14,39,24,-26,-4,31,-48,-97,-63,-4,24,43
14,39,24,-26,-4,31,-48,-92,-63,4,24,43
14,34,19,-24,-2,26,-48,-82,-63,-4,14,39
14,34,19,-24,-2,26,-43,-82,-68,-19,4,29
14,34,19,-24,-2,26,-43,-78,-63,-19,4,29
9,29,19,-19,-4,24,-39,-68,-58,-19,4,24
4,29,24,-17,-9,26,-39,-68,-58,-24,0,14
0,24,24,-12,-12,24,-34,-68,-63,-29,0,9
-4,24,29,-9,-17,26,-29,-68,-63,-24,0,9
-4,24,29,-9,-17,26,-29,-63,-58,-24,0,9
0,24,24,-12,-12,24,-29,-58,-58,-14,4,14
4,24,19,-14,-7,21,-29,-53,-53,-9,4,19
4,24,19,-14,-7,21,-24,-58,-48,-9,4,14
0,9,9,-4,-4,9,-24,-58,-43,-9,4,14
0,9,9,-4,-4,9,-24,-58,-48,-14,0,14
-4,9,14,-2,-9,12,-19,-58,-53,-14,0,14
-9,9,19,0,-14,14,-19,-58,-53,-19,-4,9
-14,14,29,0,-21,21,-14,-58,-53,-24,-14,9
-14,14,29,0,-21,21,-14,-58,-53,-24,-14,0
-14,14,29,0,-21,21,-19,-58,-58,-24,-14,-4
-14,14,29,0,-21,21,-19,-58,-58,-24,-14,-4
-14,4,19,4,-17,12,-19,-58,-58,-24,-14,-4
-14,0,14,7,-14,7,-24,-63,-58,-29,-9,-4
-14,-4,9,9,-12,2,-24,-63,-58,-29,-9,-9
-14,-9,4,12,-9,-2,-24,-68,-68,-34,-9,-9
