I,II,III,aVR,aVL,aVF,V1,V2,V3,V4,V5,V6,
244,-29,-273,-107,258,-151,-390,-478,-780,-556,-253,0
244,-29,-273,-107,258,-151,-390,-478,-780,-556,-253,0
244,-29,-273,-107,258,-151,-390,-478,-780,-556,-253,0
244,-29,-273,-107,258,-151,-390,-478,-780,-556,-253,0
185,-34,-219,-75,202,-126,-292,-375,-634,-463,-224,-24
126,-39,-165,-43,146,-102,-204,-273,-497,-380,-204,-48
68,-43,-112,-12,90,-78,-117,-170,-361,-297,-185,-73
9,-48,-58,19,34,-53,-29,-68,-224,-214,-165,-97
-4,-63,-58,34,26,-61,0,-34,-185,-190,-161,-112
-9,-78,-68,43,29,-73,29,0,-146,-165,-156,-117
-14,-92,-78,53,31,-85,58,34,-107,-141,-151,-122
-19,-107,-87,63,34,-97,87,68,-68,-117,-146,-126
-34,-107,-73,70,19,-90,92,82,-63,-107,-136,-136
-39,-107,-68,73,14,-87,97,87,-58,-107,-136,-136
-43,-107,-63,75,9,-85,102,92,-53,-107,-136,-136
-48,-107,-58,78,4,-82,107,97,-48,-107,-136,-136
-58,-117,-58,87,0,-87,117,107,-39,-92,-126,-136
-58,-117,-58,87,0,-87,117,107,-29,-87,-126,-136
-58,-117,-58,87,0,-87,117,107,-19,-82,-126,-136
-58,-117,-58,87,0,-87,117,107,-9,-78,-126,-136
-68,-107,-39,87,-14,-73,126,112,-4,-68,-126,-146
-68,-107,-39,87,-14,-73,126,117,0,-68,-126,-146
-68,-107,-39,87,-14,-73,126,122,4,-68,-126,-146
-68,-107,-39,87,-14,-73,126,126,9,-68,-126,-146
-78,-107,-29,92,-24,-68,136,136,14,-58,-126,-146
-78,-107,-29,92,-24,-68,146,136,19,-58,-126,-146
-78,-107,-29,92,-24,-68,156,136,24,-58,-126,-146
-78,-107,-29,92,-24,-68,165,136,29,-58,-126,-146
-68,-107,-39,87,-14,-73,175,146,29,-68,-136,-156
-68,-107,-39,87,-14,-73,175,146,29,-68,-136,-156
-68,-107,-39,87,-14,-73,175,146,29,-68,-136,-156
-68,-107,-39,87,-14,-73,175,146,29,-68,-136,-156
-78,-112,-34,95,-21,-73,185,156,39,-58,-136,-156
-78,-117,-39,97,-19,-78,185,156,39,-58,-136,-156
-78,-122,-43,100,-17,-82,185,156,39,-58,-136,-156
-78,-126,-48,102,-14,-87,185,156,39,-58,-136,-156
-78,-126,-48,102,-14,-87,175,165,48,-58,-126,-156
-78,-126,-48,102,-14,-87,175,165,48,-58,-126,-156
-78,-126,-48,102,-14,-87,175,165,48,-58,-126,-156
-78,-126,-48,102,-14,-87,175,165,48,-58,-126,-156
-78,-117,-39,97,-19,-78,161,165,58,-58,-136,-165
-78,-117,-39,97,-19,-78,156,165,58,-58,-136,-165
-78,-117,-39,97,-19,-78,151,165,58,-58,-136,-165
-78,-117,-39,97,-19,-78,146,165,58,-58,-136,-165
-87,-117,-29,102,-29,-73,136,175,58,-58,-136,-165
-87,-117,-29,102,-29,-73,136,175,58,-58,-136,-165
-87,-117,-29,102,-29,-73,136,175,58,-58,-136,-165
-87,-117,-29,102,-29,-73,136,175,58,-58,-136,-165
-78,-117,-39,97,-19,-78,146,180,68,-58,-146,-165
-78,-117,-39,97,-19,-78,146,185,68,-58,-146,-165
-78,-117,-39,97,-19,-78,146,190,68,-58,-146,-165
-78,-117,-39,97,-19,-78,146,195,68,-58,-146,-165
-87,-117,-29,102,-29,-73,151,204,73,-48,-146,-156
-87,-117,-29,102,-29,-73,156,204,78,-48,-146,-156
-87,-117,-29,102,-29,-73,161,204,82,-48,-146,-156
-87,-117,-29,102,-29,-73,165,204,87,-48,-146,-156
-87,-126,-39,107,-24,-82,165,204,78,-58,-146,-165
-87,-126,-39,107,-24,-82,165,204,78,-58,-146,-165
-87,-126,-39,107,-24,-82,165,204,78,-58,-146,-165
-87,-126,-39,107,-24,-82,165,204,78,-58,-146,-165
-87,-117,-29,102,-29,-73,156,214,87,-58,-156,-165
-87,-117,-29,102,-29,-73,156,214,87,-58,-156,-165
-87,-117,-29,102,-29,-73,156,214,87,-58,-156,-165
-87,-117,-29,102,-29,-73,156,214,87,-58,-156,-165
-87,-126,-39,107,-24,-82,151,224,87,-58,-156,-175
-87,-126,-39,107,-24,-82,146,224,87,-58,-156,-175
-87,-126,-39,107,-24,-82,141,224,87,-58,-156,-175
-87,-126,-39,107,-24,-82,136,224,87,-58,-156,-175
-87,-122,-34,104,-26,-78,122,224,87,-68,-165,-175
-87,-117,-29,102,-29,-73,117,224,87,-68,-165,-175
-87,-112,-24,100,-31,-68,112,224,87,-68,-165,-175
-87,-107,-19,97,-34,-63,107,224,87,-68,-165,-175
-97,-122,-24,109,-36,-73,97,229,87,-58,-165,-175
-97,-126,-29,112,-34,-78,97,234,87,-58,-165,-175
-97,-131,-34,114,-31,-82,97,239,87,-58,-165,-175
-97,-136,-39,117,-29,-87,97,244,87,-58,-165,-175
-97,-131,-34,114,-31,-82,107,253,87,-63,-175,-185
-97,-126,-29,112,-34,-78,107,253,87,-68,-175,-185
-97,-122,-24,109,-36,-73,107,253,87,-73,-175,-185
-97,-117,-19,107,-39,-68,107,253,87,-78,-175,-185
-97,-131,-34,114,-31,-82,112,268,97,-78,-185,-195
-97,-136,-39,117,-29,-87,117,273,97,-78,-185,-195
-97,-141,-43,119,-26,-92,122,278,97,-78,-185,-195
-97,-146,-48,122,-24,-97,126,283,97,-78,-185,-195
-107,-136,-29,122,-39,-82,131,292,97,-82,-190,-200
-107,-136,-29,122,-39,-82,136,292,97,-87,-195,-204
-107,-136,-29,122,-39,-82,141,292,97,-92,-200,-209
-107,-136,-29,122,-39,-82,146,292,97,-97,-204,-214
-117,-146,-29,131,-43,-87,161,307,107,-87,-204,-224
-117,-146,-29,131,-43,-87,165,312,107,-87,-204,-224
-117,-146,-29,131,-43,-87,170,317,107,-87,-204,-224
-117,-146,-29,131,-43,-87,175,322,107,-87,-204,-224
-126,-136,-9,131,-58,-73,190,326,107,-92,-219,-239
-126,-136,-9,131,-58,-73,195,331,107,-97,-224,-244
-126,-136,-9,131,-58,-73,200,336,107,-102,-229,-248
-126,-136,-9,131,-58,-73,204,341,107,-107,-234,-253
-131,-141,-9,136,-61,-75,209,346,107,-122,-239,-258
-136,-146,-9,141,-63,-78,214,351,107,-126,-244,-263
-141,-151,-9,146,-65,-80,219,356,107,-131,-248,-268
-146,-156,-9,151,-68,-82,224,361,107,-136,-253,-273
-156,-161,-4,158,-75,-82,234,375,107,-141,-268,-287
-156,-165,-9,161,-73,-87,244,380,107,-146,-273,-292
-156,-170,-14,163,-70,-92,253,385,107,-151,-278,-297
-156,-175,-19,165,-68,-97,263,390,107,-156,-283,-302
-161,-190,-29,175,-65,-109,273,395,97,-165,-292,-312
-165,-195,-29,180,-68,-112,283,400,97,-175,-302,-322
-170,-200,-29,185,-70,-114,292,405,97,-185,-312,-331
-175,-204,-29,190,-73,-117,302,409,97,-195,-322,-341
-185,-214,-29,200,-78,-122,317,419,97,-209,-341,-356
-195,-214,-19,204,-87,-117,322,419,97,-214,-351,-361
-204,-214,-9,209,-97,-112,326,419,97,-219,-361,-366
-214,-214,0,214,-107,-107,331,419,97,-224,-370,-370
-229,-219,9,224,-119,-104,346,429,87,-234,-380,-380
-234,-224,9,229,-122,-107,351,429,87,-244,-390,-390
-239,-229,9,234,-124,-109,356,429,87,-253,-400,-400
-244,-234,9,239,-126,-112,361,429,87,-263,-409,-409
-258,-239,19,248,-139,-109,366,429,82,-283,-429,-429
-263,-244,19,253,-141,-112,370,429,78,-292,-439,-439
-268,-248,19,258,-143,-114,375,429,73,-302,-448,-448
-273,-253,19,263,-146,-117,380,429,68,-312,-458,-458
-283,-268,14,275,-148,-126,390,429,63,-322,-478,-473
-292,-273,19,283,-156,-126,390,429,58,-331,-488,-478
-302,-278,24,290,-163,-126,390,429,53,-341,-497,-483
-312,-283,29,297,-170,-126,390,429,48,-351,-507,-488
-317,-273,43,295,-180,-114,380,414,43,-366,-527,-497
-322,-273,48,297,-185,-112,380,409,39,-380,-536,-507
-326,-273,53,300,-190,-109,380,405,34,-395,-546,-517
-331,-273,58,302,-195,-107,380,400,29,-409,-556,-527
-341,-283,58,312,-200,-112,380,395,24,-424,-570,-536
-341,-283,58,312,-200,-112,380,390,19,-429,-575,-536
-341,-283,58,312,-200,-112,380,385,14,-434,-580,-536
-341,-283,58,312,-200,-112,380,380,9,-439,-585,-536
-341,-273,68,307,-204,-102,375,370,-4,-448,-595,-536
-341,-273,68,307,-204,-102,370,361,-9,-448,-595,-536
-341,-273,68,307,-204,-102,366,351,-14,-448,-595,-536
-341,-273,68,307,-204,-102,361,341,-19,-448,-595,-536
-331,-263,68,297,-200,-97,346,322,-24,-448,-590,-531
-331,-253,78,292,-204,-87,341,312,-29,-448,-585,-527
-331,-244,87,287,-209,-78,336,302,-34,-448,-580,-522
-331,-234,97,283,-214,-68,331,292,-39,-448,-575,-517
-326,-219,107,273,-217,-56,317,268,-43,-434,-561,-507
-322,-214,107,268,-214,-53,302,253,-48,-429,-556,-497
-317,-209,107,263,-212,-51,287,239,-53,-424,-551,-488
-312,-204,107,258,-209,-48,273,224,-58,-419,-546,-478
-297,-185,112,241,-204,-36,248,209,-58,-400,-522,-463
-283,-175,107,229,-195,-34,234,195,-58,-390,-507,-448
-268,-165,102,217,-185,-31,219,180,-58,-380,-492,-434
-253,-156,97,204,-175,-29,204,165,-58,-370,-478,-419
-234,-146,87,190,-161,-29,180,151,-48,-351,-453,-395
-224,-136,87,180,-156,-24,165,136,-48,-331,-429,-370
-214,-126,87,170,-151,-19,151,122,-48,-312,-405,-346
-204,-117,87,161,-146,-14,136,107,-48,-292,-380,-322
-190,-102,87,146,-139,-7,112,92,-58,-278,-361,-297
-175,-87,87,131,-131,0,97,78,-58,-263,-341,-283
-161,-73,87,117,-124,7,82,63,-58,-248,-322,-268
-146,-58,87,102,-117,14,68,48,-58,-234,-302,-253
-136,-53,82,95,-109,14,48,34,-48,-209,-283,-229
-126,-48,78,87,-102,14,39,29,-48,-195,-263,-214
-117,-43,73,80,-95,14,29,24,-48,-180,-244,-200
-107,-39,68,73,-87,14,19,19,-48,-165,-224,-185
-92,-29,63,61,-78,17,4,9,-43,-151,-204,-170
-87,-29,58,58,-73,14,0,0,-39,-136,-185,-156
-82,-29,53,56,-68,12,-4,-9,-34,-122,-165,-141
-78,-29,48,53,-63,9,-9,-19,-29,-107,-146,-126
-68,-9,58,39,-63,24,-24,-34,-29,-92,-126,-117
-58,0,58,29,-58,29,-29,-39,-29,-87,-117,-107
-48,9,58,19,-53,34,-34,-43,-29,-82,-107,-97
-39,19,58,9,-48,39,-39,-48,-29,-78,-97,-87
-39,29,68,4,-53,48,-48,-58,-29,-68,-82,-82
-39,29,68,4,-53,48,-48,-58,-29,-58,-78,-78
-39,29,68,4,-53,48,-48,-58,-29,-48,-73,-73
-39,29,68,4,-53,48,-48,-58,-29,-39,-68,-68
-24,29,53,-2,-39,41,-53,-58,-29,-29,-58,-53
-19,29,48,-4,-34,39,-58,-58,-29,-29,-48,-48
-14,29,43,-7,-29,36,-63,-58,-29,-29,-39,-43
-9,29,39,-9,-24,34,-68,-58,-29,-29,-29,-39
-19,29,48,-4,-34,39,-68,-68,-29,-19,-29,-39
-19,29,48,-4,-34,39,-68,-68,-29,-19,-29,-39
-19,29,48,-4,-34,39,-68,-68,-29,-19,-29,-39
-19,29,48,-4,-34,39,-68,-68,-29,-19,-29,-39
-9,39,48,-14,-29,43,-58,-68,-29,-14,-24,-34
-9,39,48,-14,-29,43,-58,-68,-29,-9,-19,-29
-9,39,48,-14,-29,43,-58,-68,-29,-4,-14,-24
-9,39,48,-14,-29,43,-58,-68,-29,0,-9,-19
-9,39,48,-14,-29,43,-48,-68,-29,-9,-19,-29
-9,39,48,-14,-29,43,-48,-68,-29,-9,-19,-29
-9,39,48,-14,-29,43,-48,-68,-29,-9,-19,-29
-9,39,48,-14,-29,43,-48,-68,-29,-9,-19,-29
-9,34,43,-12,-26,39,-39,-68,-19,0,-9,-29
-9,29,39,-9,-24,34,-39,-68,-19,0,-9,-29
-9,24,34,-7,-21,29,-39,-68,-19,0,-9,-29
-9,19,29,-4,-19,24,-39,-68,-19,0,-9,-29
-19,9,29,4,-24,19,-34,-68,-19,-9,-19,-39
-19,9,29,4,-24,19,-29,-68,-19,-9,-19,-39
-19,9,29,4,-24,19,-24,-68,-19,-9,-19,-39
-19,9,29,4,-24,19,-19,-68,-19,-9,-19,-39
-19,19,39,0,-29,29,-19,-58,-19,-9,-29,-39
-19,19,39,0,-29,29,-19,-58,-19,-9,-29,-39
-19,19,39,0,-29,29,-19,-58,-19,-9,-29,-39
-19,19,39,0,-29,29,-19,-58,-19,-9,-29,-39
-29,9,39,9,-34,24,-19,-58,-19,-9,-29,-48
-29,9,39,9,-34,24,-19,-58,-19,-9,-29,-48
-29,9,39,9,-34,24,-19,-58,-19,-9,-29,-48
-29,9,39,9,-34,24,-19,-58,-19,-9,-29,-48
-19,0,19,9,-19,9,-29,-58,-19,-9,-29,-39
-19,0,19,9,-19,9,-29,-58,-19,-9,-29,-39
-19,0,19,9,-19,9,-29,-58,-19,-9,-29,-39
-19,0,19,9,-19,9,-29,-58,-19,-9,-29,-39
-29,-9,19,19,-24,4,-29,-58,-19,-9,-39,-39
-29,-9,19,19,-24,4,-29,-58,-19,-9,-39,-39
-29,-9,19,19,-24,4,-29,-58,-19,-9,-39,-39
-29,-9,19,19,-24,4,-29,-58,-19,-9,-39,-39
-29,-9,19,19,-24,4,-19,-58,-19,-9,-39,-39
-29,-9,19,19,-24,4,-19,-58,-19,-9,-39,-39
-29,-9,19,19,-24,4,-19,-58,-19,-9,-39,-39
-29,-9,19,19,-24,4,-19,-58,-19,-9,-39,-39
-29,-9,19,19,-24,4,-19,-48,-19,-19,-39,-39
-29,-9,19,19,-24,4,-19,-48,-19,-19,-39,-39
-29,-9,19,19,-24,4,-19,-48,-19,-19,-39,-39
-29,-9,19,19,-24,4,-19,-48,-19,-19,-39,-39
-39,-19,19,29,-29,0,-19,-53,-19,-19,-39,-39
-39,-19,19,29,-29,0,-19,-58,-19,-19,-39,-39
-39,-19,19,29,-29,0,-19,-63,-19,-19,-39,-39
-39,-19,19,29,-29,0,-19,-68,-19,-19,-39,-39
-29,-19,9,24,-19,-4,-19,-58,-19,-9,-39,-39
-29,-19,9,24,-19,-4,-19,-58,-19,-9,-39,-39
-29,-19,9,24,-19,-4,-19,-58,-19,-9,-39,-39
-29,-19,9,24,-19,-4,-19,-58,-19,-9,-39,-39
-29,-29,0,29,-14,-14,-19,-58,-19,-9,-39,-39
-29,-29,0,29,-14,-14,-19,-58,-19,-9,-39,-39
-29,-29,0,29,-14,-14,-19,-58,-19,-9,-39,-39
-29,-29,0,29,-14,-14,-19,-58,-19,-9,-39,-39
-34,-39,-4,36,-14,-21,-29,-58,-19,-9,-39,-39
-39,-39,0,39,-19,-19,-29,-58,-19,-9,-39,-39
-43,-39,4,41,-24,-17,-29,-58,-19,-9,-39,-39
-48,-39,9,43,-29,-14,-29,-58,-19,-9,-39,-39
-39,-34,4,36,-21,-14,-29,-68,-29,-9,-29,-39
-39,-29,9,34,-24,-9,-29,-68,-29,-9,-29,-39
-39,-24,14,31,-26,-4,-29,-68,-29,-9,-29,-39
-39,-19,19,29,-29,0,-29,-68,-29,-9,-29,-39
-39,-29,9,34,-24,-9,-39,-68,-29,0,-29,-39
-39,-29,9,34,-24,-9,-39,-68,-29,0,-29,-39
-39,-29,9,34,-24,-9,-39,-68,-29,0,-29,-39
-39,-29,9,34,-24,-9,-39,-68,-29,0,-29,-39
-39,-34,4,36,-21,-14,-29,-68,-29,0,-19,-29
-39,-39,0,39,-19,-19,-29,-68,-29,0,-19,-29
-39,-43,-4,41,-17,-24,-29,-68,-29,0,-19,-29
-39,-48,-9,43,-14,-29,-29,-68,-29,0,-19,-29
-39,-39,0,39,-19,-19,-29,-78,-29,9,-9,-29
-39,-39,0,39,-19,-19,-29,-78,-29,9,-9,-29
-39,-39,0,39,-19,-19,-29,-78,-29,9,-9,-29
-39,-39,0,39,-19,-19,-29,-78,-29,9,-9,-29
-39,-48,-9,43,-14,-29,-39,-87,-39,0,-19,-29
-39,-48,-9,43,-14,-29,-39,-87,-39,0,-19,-29
-39,-48,-9,43,-14,-29,-39,-87,-39,0,-19,-29
-39,-48,-9,43,-14,-29,-39,-87,-39,0,-19,-29
-39,-39,0,39,-19,-19,-39,-87,-39,0,-19,-29
-39,-39,0,39,-19,-19,-39,-87,-39,0,-19,-29
-39,-39,0,39,-19,-19,-39,-87,-39,0,-19,-29
-39,-39,0,39,-19,-19,-39,-87,-39,0,-19,-29
-39,-48,-9,43,-14,-29,-29,-78,-29,0,-9,-19
-39,-48,-9,43,-14,-29,-29,-78,-29,0,-9,-19
-39,-48,-9,43,-14,-29,-29,-78,-29,0,-9,-19
-39,-48,-9,43,-14,-29,-29,-78,-29,0,-9,-19
-39,-39,0,39,-19,-19,-39,-87,-39,0,-9,-19
-39,-39,0,39,-19,-19,-39,-87,-39,0,-9,-19
-39,-39,0,39,-19,-19,-39,-87,-39,0,-9,-19
-39,-39,0,39,-19,-19,-39,-87,-39,0,-9,-19
-39,-39,0,39,-19,-19,-39,-97,-39,0,-9,-19
-39,-39,0,39,-19,-19,-39,-97,-39,0,-9,-19
-39,-39,0,39,-19,-19,-39,-97,-39,0,-9,-19
-39,-39,0,39,-19,-19,-39,-97,-39,0,-9,-19
-39,-39,0,39,-19,-19,-29,-87,-39,9,0,-9
-39,-39,0,39,-19,-19,-29,-87,-39,9,0,-9
-39,-39,0,39,-19,-19,-29,-87,-39,9,0,-9
-39,-39,0,39,-19,-19,-29,-87,-39,9,0,-9
-29,-48,-19,39,-4,-34,-29,-97,-39,0,0,-9
-29,-48,-19,39,-4,-34,-29,-97,-39,0,0,-9
-29,-48,-19,39,-4,-34,-29,-97,-39,0,0,-9
-29,-48,-19,39,-4,-34,-29,-97,-39,0,0,-9
-39,-39,0,39,-19,-19,-29,-107,-39,0,0,-9
-39,-39,0,39,-19,-19,-29,-107,-39,0,0,-9
-39,-39,0,39,-19,-19,-29,-107,-39,0,0,-9
-39,-39,0,39,-19,-19,-29,-107,-39,0,0,-9
-39,-48,-9,43,-14,-29,-19,-97,-39,0,0,0
-39,-48,-9,43,-14,-29,-19,-97,-39,0,0,0
-39,-48,-9,43,-14,-29,-19,-97,-39,0,0,0
-39,-48,-9,43,-14,-29,-19,-97,-39,0,0,0
-39,-39,0,39,-19,-19,-29,-107,-39,9,9,0
-39,-39,0,39,-19,-19,-29,-107,-39,9,9,0
-39,-39,0,39,-19,-19,-29,-107,-39,9,9,0
-39,-39,0,39,-19,-19,-29,-107,-39,9,9,0
-34,-39,-4,36,-14,-21,-19,-97,-29,19,9,0
-29,-39,-9,34,-9,-24,-19,-97,-29,19,9,0
-24,-39,-14,31,-4,-26,-19,-97,-29,19,9,0
-19,-39,-19,29,0,-29,-19,-97,-29,19,9,0
-19,-34,-14,26,-2,-24,-9,-82,-24,24,24,4
-19,-29,-9,24,-4,-19,-9,-78,-19,29,29,9
-19,-24,-4,21,-7,-14,-9,-73,-14,34,34,14
-19,-19,0,19,-9,-9,-9,-68,-9,39,39,19
-14,-4,9,9,-12,2,-19,-68,-4,43,48,29
-9,0,9,4,-9,4,-19,-68,0,48,48,29
-4,14,19,-4,-12,17,-19,-68,19,63,53,29
4,29,24,-17,-9,26,-9,-58,34,73,63,39
14,29,14,-21,0,21,-9,-43,43,78,63,48
19,29,9,-24,4,19,-9,-34,48,87,68,53
29,29,0,-29,14,14,-9,-19,58,92,78,58
29,29,0,-29,14,14,-9,-19,68,102,82,63
43,29,-14,-36,29,7,-14,-14,68,97,82,63
43,29,-14,-36,29,7,-14,-14,68,97,82,63
48,34,-14,-41,31,9,-24,-14,68,97,87,63
58,34,-24,-46,41,4,-39,-9,63,97,87,73
63,24,-39,-43,51,-7,-58,-9,63,97,87,73
68,14,-53,-41,61,-19,-68,-9,53,97,87,78
78,4,-73,-41,75,-34,-73,-9,53,97,92,78
82,0,-82,-41,82,-41,-78,-19,48,87,92,78
78,-9,-87,-34,82,-48,-82,-24,19,73,78,68
73,0,-73,-36,73,-36,-102,-48,4,73,73,68
68,14,-53,-41,61,-19,-112,-78,0,73,78,73
58,48,-9,-53,34,19,-131,-102,0,78,78,78
48,78,29,-63,9,53,-136,-122,14,87,92,87
48,82,34,-65,7,58,-141,-122,14,92,92,87
48,82,34,-65,7,58,-141,-122,9,92,92,87
48,78,29,-63,9,53,-136,-122,4,87,92,87
43,73,29,-58,7,51,-126,-122,9,92,97,87
39,58,19,-48,9,39,-122,-122,9,87,87,87
43,43,0,-43,21,21,-112,-126,4,73,78,78
34,34,0,-34,17,17,-112,-131,0,68,78,78
34,39,4,-36,14,21,-107,-131,-9,68,73,82
43,43,0,-43,21,21,-107,-126,-4,82,82,87
53,48,-4,-51,29,21,-107,-117,-4,82,82,87
53,48,-4,-51,29,21,-102,-112,4,82,82,87
68,48,-19,-58,43,14,-92,-102,14,82,92,87
68,39,-29,-53,48,4,-92,-102,0,82,92,82
68,29,-39,-48,53,-4,-92,-107,-9,63,73,78
63,14,-48,-39,56,-17,-92,-117,-29,53,68,63
53,14,-39,-34,46,-12,-102,-117,-39,43,58,63
53,24,-29,-39,41,-2,-97,-117,-39,43,58,68
48,29,-19,-39,34,4,-97,-117,-29,53,63,73
43,29,-14,-36,29,7,-92,-112,-24,53,63,73
34,29,-4,-31,19,12,-92,-112,-24,43,53,63
29,24,-4,-26,17,9,-92,-122,-34,29,43,53
24,14,-9,-19,17,2,-87,-126,-48,19,39,48
19,4,-14,-12,17,-4,-82,-126,-48,14,29,43
4,4,0,-4,2,2,-78,-136,-53,14,34,39
0,-9,-9,4,4,-9,-68,-136,-53,9,29,29
-14,-29,-14,21,0,-21,-48,-136,-53,9,24,24
-29,-34,-4,31,-12,-19,-39,-136,-53,0,19,19
-48,-34,14,41,-31,-9,-39,-131,-53,4,14,24
-58,-43,14,51,-36,-14,-34,-131,-68,-4,4,9
-58,-53,4,56,-31,-24,-29,-131,-78,-14,-4,4
-58,-63,-4,61,-26,-34,-24,-131,-78,-14,-4,0
-63,-68,-4,65,-29,-36,-19,-131,-78,-19,-9,-9
-63,-68,-4,65,-29,-36,-19,-126,-78,-19,-14,-9
-63,-68,-4,65,-29,-36,-24,-126,-78,-19,-14,-9
-63,-68,-4,65,-29,-36,-24,-126,-78,-19,-14,-9
-68,-53,14,61,-41,-19,-14,-131,-78,-29,-14,0
-68,-53,14,61,-41,-19,-14,-131,-73,-29,-14,0
-68,-53,14,61,-41,-19,-9,-126,-68,-24,-9,0
-68,-53,14,61,-41,-19,-9,-126,-68,-19,-9,0
-58,-53,4,56,-31,-24,-4,-126,-68,-9,0,0
-58,-58,0,58,-29,-29,0,-126,-68,-9,0,0
-58,-68,-9,63,-24,-39,4,-126,-68,-9,4,4
-58,-73,-14,65,-21,-43,9,-122,-68,-9,4,4
-58,-53,4,56,-31,-24,9,-122,-63,0,14,14
-58,-53,4,56,-31,-24,9,-122,-58,4,19,14
-58,-58,0,58,-29,-29,9,-122,-58,4,19,19
-58,-58,0,58,-29,-29,9,-122,-58,4,19,19
-58,-58,0,58,-29,-29,4,-122,-48,0,9,9
-58,-58,0,58,-29,-29,4,-117,-48,0,9,9
-58,-58,0,58,-29,-29,9,-117,-48,0,14,14
-53,-58,-4,56,-24,-31,9,-117,-43,0,14,14
-53,-58,-4,56,-24,-31,14,-112,-43,0,14,9
-53,-53,0,53,-26,-26,14,-112,-43,0,14,9
-53,-53,0,53,-26,-26,14,-112,-43,0,14,9
-53,-53,0,53,-26,-26,14,-112,-43,4,14,9
-53,-48,4,51,-29,-21,9,-122,-53,0,14,4
-53,-48,4,51,-29,-21,9,-122,-48,-4,9,0
-53,-48,4,51,-29,-21,14,-122,-48,-9,4,-4
-53,-48,4,51,-29,-21,14,-122,-48,-9,0,-9
-53,-48,4,51,-29,-21,24,-112,-39,0,19,4
-53,-48,4,51,-29,-21,24,-112,-43,0,19,4
-63,-39,24,51,-43,-7,34,-112,-29,14,14,4
-78,-19,58,48,-68,19,43,-112,4,29,34,19
-92,4,97,43,-95,51,53,-112,43,53,48,19
-107,34,141,36,-124,87,58,-102,92,78,58,34
-107,58,165,24,-136,112,63,-63,151,126,92,53
-92,92,185,0,-139,139,73,-34,214,190,141,82
-97,126,224,-14,-161,175,78,-24,273,258,200,126
-87,180,268,-46,-178,224,63,0,351,351,273,190
-53,263,317,-104,-185,290,24,29,463,492,400,287
4,361,356,-183,-175,358,-19,48,629,683,580,419
53,458,405,-256,-175,431,-53,29,766,858,761,556
107,561,453,-334,-173,507,-122,-14,839,1010,917,692
185,673,488,-429,-151,580,-214,-68,873,1161,1083,829
278,771,492,-524,-107,631,-317,-141,893,1342,1288,1005
366,873,507,-619,-70,690,-419,-239,917,1522,1503,1190
492,1015,522,-753,-14,768,-561,-380,941,1708,1727,1390
649,1205,556,-927,46,880,-756,-546,946,1883,1947,1595
810,1395,585,-1102,112,990,-951,-712,907,2030,2152,1790
985,1566,580,-1276,202,1073,-1171,-849,863,2171,2352,1986
1210,1727,517,-1468,346,1122,-1444,-1015,780,2293,2547,2181
1439,1844,405,-1642,517,1124,-1693,-1161,644,2322,2669,2332
1615,1864,248,-1739,683,1056,-1844,-1180,453,2244,2679,2386
1747,1830,82,-1788,832,956,-1956,-1190,195,2025,2562,2352
1869,1761,-107,-1815,988,827,-2039,-1215,-112,1703,2347,2254
1961,1625,-336,-1793,1149,644,-2088,-1195,-458,1302,2069,2117
1971,1346,-624,-1659,1298,361,-2039,-1156,-849,819,1693,1873
1834,956,-878,-1395,1356,39,-1859,-1156,-1215,278,1220,1527
1571,639,-932,-1105,1251,-146,-1639,-1244,-1546,-248,722,1166
1244,424,-819,-834,1032,-197,-1444,-1376,-1815,-727,253,819
971,248,-722,-610,846,-236,-1259,-1424,-1932,-1029,-92,536
795,136,-658,-466,727,-261,-1112,-1371,-1859,-1098,-248,366
697,58,-639,-378,668,-290,-1000,-1234,-1703,-1058,-292,263
595,-14,-610,-290,602,-312,-854,-1083,-1532,-980,-326,170
448,-82,-531,-183,490,-307,-678,-888,-1302,-873,-336,82
331,-141,-473,-95,402,-307,-502,-678,-1039,-712,-292,43
263,-122,-385,-70,324,-253,-375,-488,-800,-556,-224,34
170,-39,-209,-65,190,-124,-268,-361,-585,-419,-195,0
82,9,-73,-46,78,-31,-161,-253,-409,-322,-185,-48
24,-24,-48,0,36,-36,-68,-161,-302,-253,-165,-78
4,-63,-68,29,36,-65,4,-82,-229,-214,-161,-92
-19,-102,-82,61,31,-92,58,-19,-165,-165,-146,-92
-19,-141,-122,80,51,-131,107,39,-131,-146,-141,-107
-24,-126,-102,75,39,-114,126,73,-107,-136,-136,-126
-34,-126,-92,80,29,-109,141,82,-78,-117,-131,-126
-39,-131,-92,85,26,-112,151,92,-58,-117,-126,-131
-43,-141,-97,92,26,-119,156,97,-53,-112,-126,-131
-53,-141,-87,97,17,-114,156,102,-43,-107,-126,-131
-58,-141,-82,100,12,-112,161,102,-34,-102,-126,-131
-58,-136,-78,97,9,-107,165,107,-34,-97,-122,-131
-63,-136,-73,100,4,-104,165,112,-29,-97,-122,-136
-68,-136,-68,102,0,-102,165,112,-24,-97,-122,-146
-68,-131,-63,100,-2,-97,165,117,-14,-92,-122,-146
-78,-131,-53,104,-12,-92,180,126,-14,-92,-122,-146
-87,-131,-43,109,-21,-87,185,126,-9,-92,-126,-151
-87,-136,-48,112,-19,-92,200,131,0,-82,-126,-151
-82,-146,-63,114,-9,-104,204,141,4,-78,-126,-151
-82,-146,-63,114,-9,-104,209,141,14,-78,-122,-151
-82,-141,-58,112,-12,-100,214,146,14,-78,-122,-151
-82,-141,-58,112,-12,-100,229,146,24,-78,-122,-151
-87,-151,-63,119,-12,-107,244,146,24,-68,-122,-151
-78,-141,-63,109,-7,-102,248,146,29,-78,-131,-156
-78,-141,-63,109,-7,-102,258,156,34,-78,-131,-156
-78,-141,-63,109,-7,-102,263,156,34,-73,-131,-156
-78,-141,-63,109,-7,-102,263,156,34,-68,-126,-156
-68,-151,-82,109,7,-117,268,165,43,-58,-117,-156
-68,-151,-82,109,7,-117,273,170,43,-58,-117,-156
-68,-151,-82,109,7,-117,273,170,43,-58,-117,-156
-68,-151,-82,109,7,-117,268,170,43,-58,-117,-156
-73,-141,-68,107,-2,-104,278,180,43,-68,-117,-146
-73,-146,-73,109,0,-109,278,185,48,-68,-117,-146
-73,-146,-73,109,0,-109,273,185,53,-63,-117,-146
-73,-146,-73,109,0,-109,268,195,53,-63,-117,-146
-82,-156,-73,119,-4,-114,253,185,53,-63,-117,-146
-82,-156,-73,119,-4,-114,253,190,53,-63,-122,-151
-82,-151,-68,117,-7,-109,244,190,53,-68,-126,-151
-82,-151,-68,117,-7,-109,239,190,58,-68,-126,-151
-82,-146,-63,114,-9,-104,229,190,58,-73,-126,-161
-82,-141,-58,112,-12,-100,224,195,58,-73,-126,-161
-82,-136,-53,109,-14,-95,214,195,58,-73,-126,-161
-82,-131,-48,107,-17,-90,209,195,58,-73,-131,-165
-92,-141,-48,117,-21,-95,214,200,58,-63,-131,-165
-92,-141,-48,117,-21,-95,214,200,58,-63,-131,-165
-87,-141,-53,114,-17,-97,214,204,63,-63,-131,-165
-87,-141,-53,114,-17,-97,214,204,63,-63,-131,-165
-73,-151,-78,112,2,-114,214,219,73,-63,-141,-165
-73,-146,-73,109,0,-109,219,219,73,-63,-141,-161
-73,-146,-73,109,0,-109,219,219,78,-68,-146,-161
-78,-151,-73,114,-2,-112,219,224,78,-68,-146,-165
-87,-151,-63,119,-12,-107,224,214,68,-63,-136,-156
-87,-151,-63,119,-12,-107,224,219,68,-63,-136,-156
-87,-156,-68,122,-9,-112,224,219,68,-68,-141,-156
-87,-161,-73,124,-7,-117,224,219,68,-68,-141,-156
-78,-156,-78,117,0,-117,214,224,82,-68,-141,-165
-78,-146,-68,112,-4,-107,214,224,82,-68,-141,-165
-78,-141,-63,109,-7,-102,214,229,87,-68,-141,-165
-78,-136,-58,107,-9,-97,209,229,87,-68,-141,-165
-87,-156,-68,122,-9,-112,214,234,78,-68,-151,-165
-87,-146,-58,117,-14,-102,204,234,78,-68,-156,-170
-87,-146,-58,117,-14,-102,204,234,78,-68,-156,-170
-87,-146,-58,117,-14,-102,200,234,78,-68,-156,-165
-97,-156,-58,126,-19,-107,200,239,82,-73,-146,-175
-97,-146,-48,122,-24,-97,195,244,82,-73,-156,-180
-97,-146,-48,122,-24,-97,190,244,82,-73,-156,-180
-97,-146,-48,122,-24,-97,190,248,82,-73,-151,-180
-87,-141,-53,114,-17,-97,200,253,82,-73,-151,-170
-92,-141,-48,117,-21,-95,195,253,82,-73,-151,-170
-97,-141,-43,119,-26,-92,190,253,82,-78,-156,-175
-97,-146,-48,122,-24,-97,190,263,82,-78,-161,-175
-97,-156,-58,126,-19,-107,195,278,82,-78,-151,-165
-97,-161,-63,129,-17,-112,195,278,82,-78,-151,-170
-102,-161,-58,131,-21,-109,195,287,82,-78,-151,-170
-102,-161,-58,131,-21,-109,200,287,87,-78,-156,-170
-102,-161,-58,131,-21,-109,200,287,87,-97,-161,-180
-97,-161,-63,129,-17,-112,209,292,87,-97,-170,-180
-97,-161,-63,129,-17,-112,214,292,87,-92,-175,-185
-102,-165,-63,134,-19,-114,219,307,92,-92,-180,-185
-102,-156,-53,129,-24,-104,219,302,92,-92,-190,-200
-102,-156,-53,129,-24,-104,219,302,92,-92,-190,-204
-102,-156,-53,129,-24,-104,219,302,92,-92,-190,-209
-107,-161,-53,134,-26,-107,219,307,97,-92,-190,-214
-117,-161,-43,139,-36,-102,239,317,87,-102,-200,-214
-117,-161,-43,139,-36,-102,244,326,87,-107,-200,-219
-117,-170,-53,143,-31,-112,248,336,87,-107,-204,-219
-117,-170,-53,143,-31,-112,258,341,92,-107,-204,-224
-117,-180,-63,148,-26,-122,263,361,102,-112,-204,-219
-122,-180,-58,151,-31,-119,268,361,102,-112,-204,-224
-122,-180,-58,151,-31,-119,278,361,102,-112,-214,-229
-126,-185,-58,156,-34,-122,283,370,97,-112,-214,-239
-122,-185,-63,153,-29,-124,287,370,87,-126,-224,-248
-126,-185,-58,156,-34,-122,287,370,92,-131,-229,-253
-131,-180,-48,156,-41,-114,287,370,92,-136,-244,-258
-136,-180,-43,158,-46,-112,292,370,92,-141,-244,-268
-141,-180,-39,161,-51,-109,297,385,102,-141,-244,-258
-141,-180,-39,161,-51,-109,302,390,102,-156,-253,-273
-146,-185,-39,165,-53,-112,312,395,102,-156,-263,-283
-151,-195,-43,173,-53,-119,322,400,102,-161,-268,-287
-161,-195,-34,178,-63,-114,331,405,102,-170,-273,-292
-165,-195,-29,180,-68,-112,336,409,102,-180,-287,-302
-170,-195,-24,183,-73,-109,341,414,102,-185,-292,-317
-175,-204,-29,190,-73,-117,351,414,102,-195,-302,-326
-195,-209,-14,202,-90,-112,361,405,102,-190,-312,-331
-195,-214,-19,204,-87,-117,370,414,97,-204,-326,-341
-204,-219,-14,212,-95,-117,375,419,92,-214,-341,-351
-214,-219,-4,217,-104,-112,380,424,92,-224,-351,-370
-214,-214,0,214,-107,-107,395,429,82,-248,-370,-385
-214,-219,-4,217,-104,-112,400,434,82,-263,-385,-395
-229,-224,4,226,-117,-109,409,434,78,-268,-395,-405
-239,-239,0,239,-119,-119,414,434,73,-273,-405,-414
-239,-248,-9,244,-114,-129,424,444,68,-283,-409,-419
-253,-248,4,251,-129,-122,424,444,63,-297,-424,-429
-258,-253,4,256,-131,-124,434,444,63,-307,-439,-434
-268,-258,9,263,-139,-124,439,444,58,-312,-448,-448
-268,-263,4,265,-136,-129,444,444,63,-331,-468,-468
-273,-263,9,268,-141,-126,444,444,58,-336,-483,-478
-283,-273,9,278,-146,-131,448,444,58,-346,-483,-483
-292,-287,4,290,-148,-141,453,444,53,-361,-497,-492
-307,-287,19,297,-163,-134,463,439,39,-375,-507,-502
-307,-287,19,297,-163,-134,463,434,34,-390,-527,-507
-317,-292,24,305,-170,-134,463,429,29,-395,-531,-517
-326,-292,34,309,-180,-129,463,419,24,-405,-541,-522
-326,-292,34,309,-180,-129,473,414,29,-414,-556,-522
-331,-292,39,312,-185,-126,473,409,24,-424,-561,-527
-331,-297,34,314,-183,-131,468,400,19,-429,-566,-536
-331,-297,34,314,-183,-131,463,395,14,-429,-570,-536
-346,-287,58,317,-202,-114,473,380,4,-444,-575,-546
-346,-283,63,314,-204,-109,468,370,-4,-453,-580,-546
-346,-273,73,309,-209,-100,463,366,-14,-458,-590,-546
-341,-268,73,305,-207,-97,458,346,-14,-458,-590,-546
-331,-258,73,295,-202,-92,448,341,-29,-463,-590,-556
-331,-258,73,295,-202,-92,444,331,-29,-468,-595,-551
-326,-253,73,290,-200,-90,429,317,-34,-468,-590,-541
-322,-244,78,283,-200,-82,419,302,-39,-463,-590,-531
-322,-244,78,283,-200,-82,400,283,-53,-463,-570,-527
-317,-229,87,273,-202,-70,385,263,-58,-453,-556,-512
-302,-219,82,261,-192,-68,370,244,-58,-444,-546,-502
-297,-204,92,251,-195,-56,356,224,-63,-434,-531,-488
-287,-190,97,239,-192,-46,341,214,-63,-434,-522,-478
-283,-190,92,236,-187,-48,326,204,-63,-424,-507,-458
-263,-185,78,224,-170,-53,312,190,-63,-400,-492,-439
-253,-161,92,207,-173,-34,297,175,-63,-385,-483,-414
-244,-146,97,195,-170,-24,278,151,-63,-370,-458,-400
-234,-131,102,183,-168,-14,258,136,-63,-346,-434,-385
-214,-122,92,168,-153,-14,244,122,-63,-331,-414,-366
-204,-112,92,158,-148,-9,219,107,-63,-317,-395,-346
-185,-78,107,131,-146,14,195,87,-63,-302,-375,-331
-165,-63,102,114,-134,19,175,78,-63,-287,-351,-312
-156,-48,107,102,-131,29,156,63,-68,-268,-322,-292
-146,-34,112,90,-129,39,141,58,-68,-248,-307,-273
-141,-29,112,85,-126,41,126,48,-63,-234,-283,-248
-131,-19,112,75,-122,46,112,39,-63,-219,-263,-234
-122,-14,107,68,-114,46,97,29,-63,-204,-244,-219
-112,-14,97,63,-104,41,82,19,-58,-190,-229,-204
-92,-4,87,48,-90,41,63,9,-53,-175,-209,-190
-82,-4,78,43,-80,36,58,0,-53,-161,-190,-175
-82,0,82,41,-82,41,53,-4,-48,-146,-175,-156
-73,4,78,34,-75,41,43,-14,-48,-136,-161,-141
-68,24,92,21,-80,58,24,-34,-48,-117,-146,-146
-63,29,92,17,-78,61,24,-39,-48,-112,-131,-131
-53,34,87,9,-70,61,19,-39,-48,-102,-117,-117
-48,39,87,4,-68,63,14,-43,-48,-92,-107,-112
-43,29,73,7,-58,51,4,-43,-48,-82,-102,-92
-39,39,78,0,-58,58,4,-43,-43,-73,-92,-82
-34,43,78,-4,-56,61,4,-53,-43,-73,-87,-78
-34,43,78,-4,-56,61,4,-58,-43,-63,-78,-73
-19,48,68,-14,-43,58,4,-63,-43,-68,-63,-68
-14,48,63,-17,-39,56,4,-63,-43,-63,-58,-58
-14,43,58,-14,-36,51,4,-63,-43,-58,-48,-48
-14,43,58,-14,-36,51,4,-63,-43,-53,-43,-48
-19,58,78,-19,-48,68,-4,-63,-43,-39,-39,-48
-19,63,82,-21,-51,73,-4,-73,-43,-39,-34,-48
-19,58,78,-19,-48,68,-4,-73,-39,-39,-34,-39
-19,63,82,-21,-51,73,-4,-68,-39,-39,-34,-34
-19,63,82,-21,-51,73,4,-78,-39,-34,-24,-43
-19,58,78,-19,-48,68,4,-78,-39,-34,-24,-43
-19,58,78,-19,-48,68,4,-78,-43,-34,-24,-43
-19,63,82,-21,-51,73,4,-78,-43,-34,-24,-43
-19,63,82,-21,-51,73,-4,-78,-43,-34,-24,-34
-14,63,78,-24,-46,70,-4,-78,-53,-39,-29,-39
-14,63,78,-24,-46,70,-4,-78,-43,-39,-29,-39
-19,58,78,-19,-48,68,4,-78,-43,-34,-24,-39
-19,48,68,-14,-43,58,4,-68,-53,-43,-24,-39
-19,58,78,-19,-48,68,4,-68,-53,-43,-24,-43
-19,63,82,-21,-51,73,4,-68,-48,-43,-29,-48
-14,63,78,-24,-46,70,4,-68,-48,-43,-29,-48
-14,48,63,-17,-39,56,14,-68,-48,-34,-19,-43
-19,43,63,-12,-41,53,24,-68,-48,-39,-19,-43
-19,43,63,-12,-41,53,24,-68,-48,-39,-19,-48
-19,48,68,-14,-43,58,24,-63,-48,-39,-24,-53
-19,53,73,-17,-46,63,24,-73,-39,-39,-34,-53
-24,58,82,-17,-53,70,29,-73,-39,-39,-34,-53
-24,53,78,-14,-51,65,29,-73,-43,-39,-34,-48
-24,58,82,-17,-53,70,29,-73,-43,-39,-34,-48
-29,48,78,-9,-53,63,39,-63,-39,-29,-24,-39
-29,48,78,-9,-53,63,39,-58,-39,-29,-24,-48
-29,48,78,-9,-53,63,39,-58,-39,-34,-34,-48
-29,48,78,-9,-53,63,39,-58,-43,-34,-34,-48
-29,53,82,-12,-56,68,39,-58,-43,-39,-48,-58
-29,53,82,-12,-56,68,39,-58,-43,-43,-48,-58
-29,53,82,-12,-56,68,29,-58,-43,-53,-48,-58
-29,53,82,-12,-56,68,29,-58,-43,-58,-48,-58
-39,48,87,-4,-63,68,34,-58,-43,-68,-58,-68
-39,48,87,-4,-63,68,34,-58,-48,-68,-58,-68
-39,48,87,-4,-63,68,29,-58,-53,-68,-58,-68
-39,48,87,-4,-63,68,29,-58,-58,-68,-63,-68
-34,43,78,-4,-56,61,29,-58,-48,-58,-63,-78
-34,39,73,-2,-53,56,29,-58,-48,-58,-63,-78
-34,39,73,-2,-53,56,29,-58,-53,-58,-63,-82
-34,34,68,0,-51,51,29,-58,-53,-58,-63,-82
-24,39,63,-7,-43,51,19,-63,-43,-53,-53,-73
-24,39,63,-7,-43,51,19,-63,-48,-53,-58,-73
-24,34,58,-4,-41,46,19,-58,-48,-53,-58,-73
-24,34,58,-4,-41,46,19,-58,-43,-53,-58,-73
-34,48,82,-7,-58,65,9,-68,-43,-63,-68,-73
-34,48,82,-7,-58,65,9,-68,-43,-63,-68,-73
-34,48,82,-7,-58,65,9,-68,-43,-63,-68,-73
-34,48,82,-7,-58,65,9,-73,-43,-63,-68,-73
-34,53,87,-9,-61,70,9,-63,-53,-63,-58,-68
-39,53,92,-7,-65,73,9,-63,-53,-58,-58,-68
-39,53,92,-7,-65,73,9,-63,-53,-58,-58,-73
-39,58,97,-9,-68,78,9,-63,-58,-63,-58,-73
-39,48,87,-4,-63,68,9,-68,-48,-63,-68,-73
-39,48,87,-4,-63,68,9,-68,-48,-63,-68,-73
-39,48,87,-4,-63,68,9,-68,-48,-63,-68,-73
-34,48,82,-7,-58,65,9,-68,-43,-63,-68,-68
-34,39,73,-2,-53,56,9,-68,-53,-63,-58,-68
-34,34,68,0,-51,51,9,-73,-58,-63,-58,-68
-34,34,68,0,-51,51,0,-78,-68,-63,-58,-78
-34,39,73,-2,-53,56,0,-78,-68,-63,-58,-78
-24,43,68,-9,-46,56,-4,-78,-53,-63,-58,-63
-34,48,82,-7,-58,65,-4,-73,-53,-63,-58,-63
-24,53,78,-14,-51,65,-4,-73,-53,-63,-58,-63
-24,58,82,-17,-53,70,-4,-78,-58,-63,-58,-63
-34,43,78,-4,-56,61,4,-78,-68,-63,-53,-63
-34,43,78,-4,-56,61,0,-78,-68,-63,-53,-63
-39,43,82,-2,-61,63,0,-78,-68,-63,-53,-63
-39,43,82,-2,-61,63,0,-82,-68,-63,-53,-63
-29,34,63,-2,-46,48,9,-82,-63,-63,-63,-73
-29,34,63,-2,-46,48,9,-82,-63,-58,-63,-68
-29,34,63,-2,-46,48,9,-87,-68,-58,-63,-68
-29,43,73,-7,-51,58,9,-92,-68,-58,-63,-68
-29,48,78,-9,-53,63,9,-92,-68,-58,-58,-68
-24,53,78,-14,-51,65,9,-87,-68,-58,-58,-68
-24,58,82,-17,-53,70,9,-87,-73,-58,-58,-68
-24,63,87,-19,-56,75,9,-87,-73,-58,-58,-68
-24,73,97,-24,-61,85,0,-97,-73,-58,-58,-78
-24,73,97,-24,-61,85,0,-97,-73,-58,-58,-73
-24,73,97,-24,-61,85,-4,-102,-73,-58,-58,-73
-24,73,97,-24,-61,85,-9,-102,-78,-58,-58,-73
-29,73,102,-21,-65,87,0,-102,-68,-48,-53,-58
-29,68,97,-19,-63,82,0,-102,-68,-48,-53,-58
-29,68,97,-19,-63,82,-4,-102,-63,-48,-53,-58
-29,73,102,-21,-65,87,-9,-102,-63,-43,-53,-58
-19,68,87,-24,-53,78,-19,-107,-68,-48,-53,-58
-19,63,82,-21,-51,73,-14,-107,-73,-58,-53,-58
-14,63,78,-24,-46,70,-14,-107,-78,-63,-53,-58
-14,58,73,-21,-43,65,-14,-107,-87,-68,-53,-58
-19,68,87,-24,-53,78,-19,-117,-92,-58,-48,-58
-19,73,92,-26,-56,82,-24,-117,-92,-58,-48,-53
-29,78,107,-24,-68,92,-24,-122,-92,-58,-48,-53
-29,82,112,-26,-70,97,-19,-126,-87,-58,-48,-53
-29,73,102,-21,-65,87,-19,-122,-78,-58,-39,-53
-29,73,102,-21,-65,87,-19,-112,-78,-58,-39,-53
-29,73,102,-21,-65,87,-19,-107,-78,-58,-39,-53
-29,73,102,-21,-65,87,-19,-102,-78,-53,-39,-53
-29,78,107,-24,-68,92,-19,-112,-82,-53,-39,-43
-29,78,107,-24,-68,92,-19,-117,-82,-53,-39,-43
-29,78,107,-24,-68,92,-19,-117,-82,-53,-39,-43
-29,78,107,-24,-68,92,-19,-117,-82,-53,-34,-43
-34,73,107,-19,-70,90,-19,-107,-82,-53,-34,-53
-34,73,107,-19,-70,90,-19,-112,-82,-58,-34,-53
-34,68,102,-17,-68,85,-19,-117,-87,-58,-34,-53
-34,68,102,-17,-68,85,-19,-117,-87,-53,-34,-53
-29,68,97,-19,-63,82,-9,-112,-92,-58,-43,-58
-29,68,97,-19,-63,82,-9,-112,-92,-63,-43,-53
-29,68,97,-19,-63,82,-9,-112,-92,-68,-43,-53
-24,68,92,-21,-58,80,-9,-112,-92,-73,-43,-58
-34,78,112,-21,-73,95,-9,-112,-82,-68,-29,-53
-34,78,112,-21,-73,95,-9,-112,-82,-58,-29,-48
-34,78,112,-21,-73,95,-9,-112,-78,-53,-29,-39
-34,78,112,-21,-73,95,-9,-112,-78,-48,-29,-34
-34,78,112,-21,-73,95,-9,-122,-87,-58,-34,-43
-34,78,112,-21,-73,95,-9,-122,-87,-53,-34,-39
-29,87,117,-29,-73,102,-9,-117,-87,-53,-29,-39
-29,87,117,-29,-73,102,-9,-117,-82,-53,-29,-39
-24,78,102,-26,-63,90,-9,-117,-73,-43,-19,-29
-24,73,97,-24,-61,85,-9,-107,-73,-39,-19,-24
-29,78,107,-24,-68,92,-9,-102,-68,-34,-14,-24
-29,78,107,-24,-68,92,-9,-102,-63,-34,-9,-19
-19,78,97,-29,-58,87,-4,-102,-63,-43,-14,-19
-14,102,117,-43,-65,109,-14,-107,-58,-43,-14,-19
-24,97,122,-36,-73,109,-4,-107,-58,-43,-24,-24
-19,78,97,-29,-58,87,-9,-97,-58,-39,-9,-19
-14,97,112,-41,-63,104,-9,-97,-43,-24,-4,-14
-9,107,117,-48,-63,112,-9,-97,-39,-19,0,-9
-4,117,122,-56,-63,119,-9,-97,-34,-14,4,-4
0,126,126,-63,-63,126,-9,-97,-29,-9,9,0
9,126,117,-68,-53,122,-9,-92,-4,9,14,9
14,136,122,-75,-53,129,0,-78,4,14,24,19
24,146,122,-85,-48,134,0,-68,14,19,24,19
29,146,117,-87,-43,131,0,-53,19,29,29,24
29,146,117,-87,-43,131,0,-39,29,34,39,19
29,146,117,-87,-43,131,0,-39,39,43,43,24
34,146,112,-90,-39,129,4,-34,39,48,43,24
34,146,112,-90,-39,129,4,-34,39,48,43,24
43,161,117,-102,-36,139,-9,-34,29,43,48,24
58,161,102,-109,-21,131,-29,-29,24,39,48,34
68,161,92,-114,-12,126,-43,-29,24,34,48,34
78,151,73,-114,2,112,-58,-29,14,29,48,39
82,131,48,-107,17,90,-63,-43,0,19,43,39
82,117,34,-100,24,75,-68,-58,-9,9,43,39
78,107,29,-92,24,68,-82,-63,-34,4,34,39
73,107,34,-90,19,70,-102,-87,-53,4,34,39
63,136,73,-100,-4,104,-102,-112,-53,14,34,43
58,175,117,-117,-29,146,-122,-131,-48,19,39,48
58,200,141,-129,-41,170,-136,-151,-39,19,43,58
58,209,151,-134,-46,180,-141,-151,-34,24,43,58
58,204,146,-131,-43,175,-131,-141,-29,34,48,68
58,195,136,-126,-39,165,-126,-141,-34,29,53,68
48,185,136,-117,-43,161,-117,-141,-39,24,53,58
39,165,126,-102,-43,146,-112,-141,-39,19,48,58
48,156,107,-102,-29,131,-112,-141,-43,14,48,48
34,151,117,-92,-41,134,-112,-141,-48,9,48,48
34,156,122,-95,-43,139,-107,-136,-48,9,53,53
43,161,117,-102,-36,139,-107,-126,-43,24,63,58
53,151,97,-102,-21,124,-117,-117,-34,24,63,68
53,146,92,-100,-19,119,-112,-112,-24,24,63,68
58,146,87,-102,-14,117,-112,-112,-24,24,63,68
58,136,78,-97,-9,107,-112,-112,-39,24,63,63
48,126,78,-87,-14,102,-112,-126,-58,-4,43,48
43,112,68,-78,-12,90,-112,-136,-78,-14,39,34
43,112,68,-78,-12,90,-112,-136,-78,-14,39,34
43,122,78,-82,-17,100,-107,-136,-78,-14,39,39
39,126,87,-82,-24,107,-107,-136,-78,-4,43,43
34,126,92,-80,-29,109,-102,-131,-73,-4,43,43
24,126,102,-75,-39,114,-102,-131,-73,-4,43,43
19,122,102,-70,-41,112,-102,-141,-82,-19,34,34
14,102,87,-58,-36,95,-97,-136,-87,-39,19,29
9,92,82,-51,-36,87,-92,-136,-87,-43,9,24
-4,92,97,-43,-51,95,-87,-136,-92,-43,4,19
-9,78,87,-34,-48,82,-78,-136,-92,-48,0,9
-24,53,78,-14,-51,65,-48,-136,-92,-39,4,4
-39,43,82,-2,-61,63,-39,-136,-92,-48,0,0
-48,39,87,4,-68,63,-39,-141,-92,-53,-4,-4
-58,24,82,17,-70,53,-34,-141,-107,-63,-14,-19
-48,19,68,14,-58,43,-39,-141,-107,-63,-24,-14
-48,14,63,17,-56,39,-34,-141,-107,-63,-24,-19
-53,14,68,19,-61,41,-29,-141,-107,-68,-29,-19
-53,19,73,17,-63,46,-29,-136,-107,-68,-34,-19
-63,19,82,21,-73,51,-34,-136,-117,-68,-34,-29
-63,19,82,21,-73,51,-34,-136,-117,-68,-34,-29
-58,24,82,17,-70,53,-34,-141,-117,-68,-34,-29
-58,24,82,17,-70,53,-34,-141,-112,-68,-34,-29
-48,14,63,17,-56,39,-29,-126,-102,-53,-24,-19
-48,14,63,17,-56,39,-29,-126,-97,-48,-19,-19
-48,19,68,14,-58,43,-29,-126,-92,-48,-14,-19
-48,19,68,14,-58,43,-29,-126,-87,-48,-9,-19
-39,24,63,7,-51,43,-19,-136,-97,-48,-4,-14
-39,24,63,7,-51,43,-19,-131,-97,-48,-4,-14
-39,34,73,2,-56,53,-19,-131,-92,-48,-4,-14
-39,34,73,2,-56,53,-19,-131,-87,-43,0,-14
-39,19,58,9,-48,39,-29,-131,-87,-53,-9,-19
-39,19,58,9,-48,39,-29,-131,-87,-53,-9,-19
-39,19,58,9,-48,39,-24,-131,-87,-48,-9,-19
-39,19,58,9,-48,39,-24,-126,-87,-48,-9,-19
-48,14,63,17,-56,39,-9,-117,-78,-48,-4,-4
-43,9,53,17,-48,31,-9,-117,-73,-48,-4,-4
-43,4,48,19,-46,26,-14,-112,-73,-48,-4,-9
-43,4,48,19,-46,26,-14,-112,-73,-48,-4,-9
-34,14,48,9,-41,31,-14,-122,-73,-39,-4,0
-34,14,48,9,-41,31,-14,-122,-73,-34,-4,0
-34,19,53,7,-43,36,-9,-122,-73,-34,0,0
-34,19,53,7,-43,36,-9,-122,-68,-34,0,0
-24,29,53,-2,-39,41,-4,-112,-68,-43,0,0
-34,9,43,12,-39,26,4,-102,-58,-29,9,9
-34,0,34,17,-34,17,4,-102,-48,-19,0,4
-53,0,53,26,-53,26,4,-112,-43,-9,19,14
-63,19,82,21,-73,51,14,-112,-19,4,34,24
-78,68,146,4,-112,107,4,-112,14,29,34,19
-82,122,204,-19,-143,163,14,-112,53,53,48,29
-78,141,219,-31,-148,180,29,-82,122,97,87,53
-78,165,244,-43,-161,204,34,-43,200,175,131,82
-73,219,292,-73,-183,256,14,-34,263,239,190,122
-58,273,331,-107,-195,302,9,-24,351,336,278,195
-19,336,356,-158,-187,346,-14,19,478,488,409,307
34,429,395,-231,-180,412,-53,48,629,678,595,444
73,536,463,-305,-195,500,-97,29,775,868,785,585
122,644,522,-383,-200,583,-161,-9,863,1044,956,722
195,746,551,-470,-178,649,-248,-73,907,1205,1141,878
283,858,575,-570,-146,717,-361,-156,912,1376,1337,1054
385,985,600,-685,-107,793,-473,-239,922,1556,1561,1239
512,1127,614,-819,-51,871,-605,-336,946,1747,1805,1444
639,1298,658,-968,-9,978,-775,-488,971,1942,2039,1664
785,1478,692,-1132,46,1085,-971,-663,946,2108,2259,1878
956,1649,692,-1302,131,1171,-1176,-780,888,2264,2483,2083
1161,1800,639,-1481,261,1220,-1415,-888,824,2405,2693,2298
1376,1922,546,-1649,414,1234,-1659,-1015,712,2488,2849,2464
1546,1981,434,-1764,556,1207,-1820,-1083,536,2430,2884,2527
1664,1961,297,-1812,683,1129,-1922,-1102,278,2215,2776,2513
1766,1917,151,-1842,807,1034,-2015,-1132,-29,1898,2571,2430
1849,1781,-68,-1815,958,856,-2069,-1137,-375,1507,2308,2313
1864,1468,-395,-1666,1129,536,-2010,-1088,-780,1000,1922,2069
1747,1063,-683,-1405,1215,190,-1825,-1078,-1190,400,1410,1708
1483,732,-751,-1107,1117,-9,-1595,-1146,-1537,-190,858,1302
1171,483,-688,-827,929,-102,-1385,-1244,-1820,-707,361,932
902,297,-605,-600,753,-153,-1210,-1298,-1952,-1029,-29,624
727,190,-536,-458,631,-173,-1073,-1259,-1883,-1137,-219,419
639,126,-512,-383,575,-192,-956,-1156,-1732,-1107,-297,287
541,29,-512,-285,527,-241,-824,-1000,-1546,-1039,-341,175
409,-53,-463,-178,436,-258,-649,-819,-1327,-932,-366,73
302,-82,-385,-109,344,-234,-492,-624,-1078,-775,-326,14
244,-43,-287,-100,265,-165,-385,-463,-824,-605,-263,14
165,14,-151,-90,158,-68,-278,-331,-585,-448,-214,-4
82,39,-43,-61,63,-2,-170,-224,-409,-351,-195,-48
43,0,-43,-21,43,-21,-92,-126,-322,-292,-185,-78
24,-34,-58,4,41,-46,-29,-63,-253,-244,-175,-97
4,-43,-48,19,26,-46,14,-14,-190,-204,-161,-112
0,-73,-73,36,36,-73,58,39,-136,-175,-146,-112
0,-102,-102,51,51,-102,87,87,-92,-146,-131,-117
-4,-117,-112,61,53,-114,107,92,-68,-126,-126,-117
-4,-107,-102,56,48,-104,102,92,-68,-136,-141,-126
-19,-122,-102,70,41,-112,102,92,-58,-136,-136,-126
-24,-131,-107,78,41,-119,107,97,-53,-131,-136,-131
-34,-131,-97,82,31,-114,107,102,-43,-126,-136,-136
-39,-131,-92,85,26,-112,112,102,-34,-122,-136,-141
-39,-126,-87,82,24,-107,126,107,-34,-107,-122,-136
-43,-126,-82,85,19,-104,126,112,-29,-107,-122,-136
-48,-126,-78,87,14,-102,126,112,-24,-107,-122,-141
-48,-122,-73,85,12,-97,126,117,-14,-102,-122,-136
-48,-122,-73,85,12,-97,141,126,-4,-112,-122,-136
-58,-122,-63,90,2,-92,146,126,0,-112,-126,-141
-58,-126,-68,92,4,-97,161,131,9,-102,-126,-141
-53,-136,-82,95,14,-109,165,141,14,-97,-126,-141
-43,-131,-87,87,21,-109,170,141,24,-87,-112,-131
-43,-131,-87,87,21,-109,175,146,24,-87,-112,-131
-43,-136,-92,90,24,-114,190,146,34,-87,-112,-131
-48,-151,-102,100,26,-126,204,146,34,-78,-112,-131
-53,-146,-92,100,19,-119,209,156,39,-78,-122,-136
-58,-141,-82,100,12,-112,219,165,43,-78,-122,-136
-63,-136,-73,100,4,-104,224,165,43,-73,-122,-136
-68,-131,-63,100,-2,-97,224,165,43,-68,-117,-136
-68,-141,-73,104,2,-107,229,170,43,-68,-107,-136
-68,-141,-73,104,2,-107,234,170,43,-68,-107,-136
-68,-141,-73,104,2,-107,234,165,43,-68,-107,-136
-68,-141,-73,104,2,-107,229,161,43,-68,-107,-136
-73,-151,-78,112,2,-114,219,170,43,-78,-112,-146
-73,-156,-82,114,4,-119,219,175,48,-78,-117,-146
-73,-156,-82,114,4,-119,214,175,53,-73,-122,-146
-73,-156,-82,114,4,-119,209,185,53,-73,-126,-146
-63,-156,-92,109,14,-124,214,175,53,-73,-117,-136
-63,-156,-92,109,14,-124,214,180,53,-73,-122,-141
-63,-151,-87,107,12,-119,204,180,53,-78,-126,-141
-63,-151,-87,107,12,-119,200,180,58,-78,-126,-141
-63,-141,-78,102,7,-109,195,180,68,-82,-136,-151
-63,-141,-78,102,7,-109,195,185,68,-82,-136,-151
-63,-141,-78,102,7,-109,190,185,68,-82,-136,-151
-63,-141,-78,102,7,-109,190,185,68,-82,-141,-156
-73,-146,-73,109,0,-109,200,195,78,-73,-141,-146
-73,-151,-78,112,2,-114,204,200,78,-73,-141,-146
-68,-156,-87,112,9,-122,209,209,82,-73,-141,-146
-68,-161,-92,114,12,-126,214,214,82,-73,-141,-146
-73,-175,-102,124,14,-139,224,219,82,-73,-131,-146
-73,-175,-102,124,14,-139,229,219,82,-73,-131,-141
-73,-180,-107,126,17,-143,229,219,87,-78,-136,-141
-78,-190,-112,134,17,-151,229,224,87,-78,-136,-146
-73,-170,-97,122,12,-134,229,219,78,-82,-146,-156
-68,-161,-92,114,12,-126,224,219,78,-82,-146,-156
-63,-156,-92,109,14,-124,219,214,78,-87,-151,-156
-58,-151,-92,104,17,-122,214,209,78,-87,-151,-156
-68,-161,-92,114,12,-126,214,214,82,-78,-141,-146
-68,-156,-87,112,9,-122,214,214,82,-78,-141,-146
-68,-156,-87,112,9,-122,214,219,87,-78,-141,-146
-68,-156,-87,112,9,-122,209,219,87,-78,-141,-146
-68,-156,-87,112,9,-122,214,234,97,-68,-141,-146
-68,-146,-78,107,4,-112,204,234,97,-68,-146,-151
-68,-146,-78,107,4,-112,204,234,97,-68,-146,-151
-68,-146,-78,107,4,-112,200,234,97,-68,-146,-146
-78,-156,-78,117,0,-117,190,239,97,-78,-156,-146
-78,-146,-68,112,-4,-107,185,244,92,-82,-165,-151
-78,-146,-68,112,-4,-107,180,244,87,-87,-165,-151
-78,-146,-68,112,-4,-107,180,248,82,-92,-161,-151
-78,-151,-73,114,-2,-112,190,253,92,-82,-151,-151
-82,-151,-68,117,-7,-109,185,253,92,-82,-151,-151
-87,-151,-63,119,-12,-107,180,253,92,-87,-156,-156
-87,-156,-68,122,-9,-112,180,263,92,-87,-161,-156
-78,-156,-78,117,0,-117,185,258,82,-97,-161,-165
-78,-161,-82,119,2,-122,185,258,82,-97,-161,-170
-82,-161,-78,122,-2,-119,185,268,82,-97,-161,-170
-82,-161,-78,122,-2,-119,190,268,87,-97,-165,-170
-82,-170,-87,126,2,-129,200,278,92,-97,-175,-170
-78,-170,-92,124,7,-131,209,283,97,-97,-180,-170
-78,-170,-92,124,7,-131,214,283,102,-92,-180,-175
-82,-175,-92,129,4,-134,219,297,112,-92,-180,-175
-82,-170,-87,126,2,-129,214,302,102,-102,-180,-180
-82,-165,-82,124,0,-124,219,302,102,-102,-180,-185
-82,-161,-78,122,-2,-119,224,302,102,-102,-180,-190
-87,-161,-73,124,-7,-117,229,307,107,-102,-180,-195
-97,-165,-68,131,-14,-117,248,297,107,-112,-190,-204
-97,-170,-73,134,-12,-122,253,307,107,-117,-190,-209
-97,-185,-87,141,-4,-136,258,317,107,-117,-195,-209
-97,-190,-92,143,-2,-141,268,322,112,-117,-195,-214
-97,-180,-82,139,-7,-131,263,331,112,-117,-200,-219
-102,-180,-78,141,-12,-129,268,331,112,-122,-204,-224
-102,-180,-78,141,-12,-129,278,331,112,-126,-219,-229
-107,-185,-78,146,-14,-131,283,341,107,-131,-224,-239
-112,-180,-68,146,-21,-124,283,336,107,-136,-234,-248
-117,-185,-68,151,-24,-126,287,341,112,-141,-239,-253
-122,-185,-63,153,-29,-124,292,346,112,-146,-253,-258
-126,-190,-63,158,-31,-126,302,351,112,-151,-253,-268
-131,-190,-58,161,-36,-124,317,366,122,-151,-253,-268
-131,-190,-58,161,-36,-124,322,370,122,-165,-263,-283
-136,-195,-58,165,-39,-126,331,375,122,-165,-273,-292
-141,-204,-63,173,-39,-134,341,380,122,-170,-278,-297
-151,-204,-53,178,-48,-129,341,375,122,-190,-292,-302
-156,-204,-48,180,-53,-126,346,380,122,-200,-307,-312
-161,-204,-43,183,-58,-124,351,385,122,-204,-312,-326
-165,-214,-48,190,-58,-131,361,385,122,-214,-322,-336
-165,-234,-68,200,-48,-151,370,385,131,-214,-326,-336
-165,-244,-78,204,-43,-161,380,395,126,-224,-336,-341
-175,-253,-78,214,-48,-165,385,400,122,-229,-346,-346
-185,-258,-73,222,-56,-165,390,405,122,-234,-351,-361
-204,-258,-53,231,-75,-156,385,400,112,-253,-375,-370
-204,-258,-53,231,-75,-156,390,405,112,-273,-395,-385
-219,-258,-39,239,-90,-148,400,405,107,-283,-409,-400
-229,-268,-39,248,-95,-153,405,405,102,-292,-424,-414
-229,-273,-43,251,-92,-158,405,414,97,-312,-429,-429
-244,-278,-34,261,-104,-156,405,414,92,-326,-444,-439
-248,-287,-39,268,-104,-163,414,414,92,-336,-458,-444
-258,-297,-39,278,-109,-168,419,414,87,-341,-468,-458
-258,-297,-39,278,-109,-168,414,414,82,-361,-488,-468
-263,-292,-29,278,-117,-161,414,414,78,-366,-502,-478
-273,-297,-24,285,-124,-161,419,414,78,-375,-502,-483
-283,-307,-24,295,-129,-165,424,414,73,-390,-517,-492
-287,-317,-29,302,-129,-173,414,409,68,-405,-527,-502
-287,-317,-29,302,-129,-173,414,405,63,-419,-546,-507
-297,-322,-24,309,-136,-173,414,400,58,-424,-551,-517
-307,-322,-14,314,-146,-168,414,390,53,-434,-561,-522
-307,-322,-14,314,-146,-168,414,375,48,-434,-566,-522
-312,-322,-9,317,-151,-165,414,370,43,-444,-570,-527
-312,-326,-14,319,-148,-170,409,361,39,-448,-575,-536
-312,-326,-14,319,-148,-170,405,356,34,-448,-580,-536
-317,-336,-19,326,-148,-178,405,351,34,-453,-575,-527
-317,-331,-14,324,-151,-173,400,341,24,-463,-580,-527
-317,-322,-4,319,-156,-163,395,336,14,-468,-590,-527
-312,-317,-4,314,-153,-161,390,317,14,-468,-590,-527
-302,-312,-9,307,-146,-161,370,312,0,-468,-585,-527
-302,-307,-4,305,-148,-156,366,302,0,-468,-585,-522
-297,-297,0,297,-148,-148,351,287,-4,-463,-575,-512
-292,-283,9,287,-151,-136,341,273,-9,-453,-570,-502
-292,-273,19,283,-156,-126,322,258,-14,-453,-561,-507
-287,-258,29,273,-158,-114,307,244,-19,-444,-546,-492
-273,-248,24,261,-148,-112,292,229,-19,-434,-536,-483
-268,-234,34,251,-151,-100,278,214,-24,-424,-522,-468
-258,-229,29,244,-143,-100,263,204,-24,-414,-507,-448
-253,-229,24,241,-139,-102,248,195,-24,-405,-488,-429
-234,-224,9,229,-122,-107,234,180,-24,-380,-468,-409
-224,-200,24,212,-124,-87,219,165,-24,-366,-453,-385
-224,-185,39,204,-131,-73,200,151,-24,-341,-424,-361
-214,-170,43,192,-129,-63,180,136,-24,-317,-395,-346
-195,-161,34,178,-114,-63,165,122,-24,-302,-370,-326
-185,-151,34,168,-109,-58,141,107,-24,-287,-346,-307
-175,-122,53,148,-114,-34,131,87,-24,-273,-336,-292
-156,-112,43,134,-100,-34,117,78,-24,-258,-312,-273
-146,-102,43,124,-95,-29,102,63,-29,-239,-283,-253
-136,-92,43,114,-90,-24,92,58,-29,-219,-268,-234
-122,-92,29,107,-75,-31,87,58,-24,-204,-244,-209
-112,-78,34,95,-73,-21,73,48,-24,-190,-224,-195
-102,-68,34,85,-68,-17,58,39,-24,-175,-204,-180
-92,-63,29,78,-61,-17,43,29,-19,-161,-190,-165
-82,-53,29,68,-56,-12,43,29,-14,-146,-161,-141
-73,-53,19,63,-46,-17,39,19,-14,-131,-141,-126
-73,-48,24,61,-48,-12,34,14,-9,-117,-126,-107
-63,-43,19,53,-41,-12,24,4,-9,-107,-112,-92
-58,-34,24,46,-41,-4,14,-4,-9,-87,-107,-87
-53,-29,24,41,-39,-2,14,-9,-9,-82,-92,-73
-43,-24,19,34,-31,-2,9,-9,-9,-73,-78,-58
-39,-19,19,29,-29,0,4,-14,-9,-63,-68,-53
-34,-19,14,26,-24,-2,4,-24,-9,-53,-53,-43
-29,-9,19,19,-24,4,4,-24,-4,-43,-43,-34
-24,-4,19,14,-21,7,4,-34,-4,-43,-39,-29
-24,-4,19,14,-21,7,4,-39,-4,-34,-29,-24
-29,-9,19,19,-24,4,4,-43,-4,-39,-24,-19
-24,-9,14,17,-19,2,4,-43,-4,-34,-19,-9
-24,-14,9,19,-17,-2,4,-43,-4,-29,-9,0
-24,-14,9,19,-17,-2,4,-43,-4,-24,-4,0
-29,-14,14,21,-21,0,4,-34,-4,-9,0,0
-29,-14,14,21,-21,0,4,-43,-4,-9,4,0
-29,-24,4,26,-17,-9,4,-43,0,-9,4,9
-29,-24,4,26,-17,-9,4,-39,0,-9,4,14
-19,-14,4,17,-12,-4,4,-39,9,-14,14,14
-19,-19,0,19,-9,-9,4,-39,9,-14,14,14
-19,-19,0,19,-9,-9,4,-39,4,-14,14,14
-19,-14,4,17,-12,-4,4,-39,4,-14,14,14
-19,-4,14,12,-17,4,-4,-48,-4,-4,14,14
-14,-4,9,9,-12,2,-4,-48,-14,-9,9,9
-14,-4,9,9,-12,2,-4,-48,-4,-9,9,9
-19,-9,9,14,-14,0,4,-48,-4,-4,14,9
-19,-19,0,19,-9,-9,4,-48,-14,-14,4,0
-19,-9,9,14,-14,0,4,-48,-14,-14,4,-4
-19,-4,14,12,-17,4,4,-48,-9,-14,0,-9
-14,-4,9,9,-12,2,4,-48,-9,-14,0,-9
-24,-14,9,19,-17,-2,4,-48,0,-9,9,4
-29,-24,4,26,-17,-9,14,-48,0,-9,9,4
-29,-29,0,29,-14,-14,14,-48,0,-4,9,0
-29,-29,0,29,-14,-14,14,-43,0,0,4,-4
-29,-29,0,29,-14,-14,4,-34,0,-9,4,-4
-34,-29,4,31,-19,-12,9,-34,0,-9,4,-4
-34,-39,-4,36,-14,-21,9,-34,-4,-9,4,0
-34,-39,-4,36,-14,-21,9,-34,-4,-9,4,0
-29,-24,4,26,-17,-9,0,-43,-9,-19,14,9
-29,-19,9,24,-19,-4,0,-39,-9,-19,14,0
-29,-14,14,21,-21,0,0,-39,-9,-24,4,0
-29,-9,19,19,-24,4,0,-39,-14,-24,4,0
-29,-24,4,26,-17,-9,0,-39,-14,-24,-9,-9
-29,-24,4,26,-17,-9,0,-39,-14,-24,-9,-9
-29,-24,4,26,-17,-9,-9,-39,-14,-29,-9,-9
-29,-24,4,26,-17,-9,-9,-39,-14,-29,-9,-9
-39,-39,0,39,-19,-19,-14,-39,-9,-19,-9,-9
-39,-39,0,39,-19,-19,-14,-39,-9,-19,-9,-9
-39,-39,0,39,-19,-19,-19,-39,-9,-19,-9,-9
-39,-39,0,39,-19,-19,-19,-39,-9,-19,-14,-9
-34,-29,4,31,-19,-12,-29,-48,-19,-29,-14,-9
-34,-29,4,31,-19,-12,-29,-48,-19,-29,-14,-9
-34,-24,9,29,-21,-7,-29,-48,-24,-29,-14,-14
-34,-24,9,29,-21,-7,-29,-48,-24,-29,-14,-14
-43,-19,24,31,-34,2,-19,-43,-19,-24,-4,-14
-43,-19,24,31,-34,2,-19,-43,-19,-24,-9,-14
-43,-24,19,34,-31,-2,-19,-39,-14,-24,-9,-14
-43,-24,19,34,-31,-2,-19,-39,-4,-24,-9,-14
-34,-29,4,31,-19,-12,-9,-39,-14,-24,-19,-14
-34,-29,4,31,-19,-12,-9,-39,-14,-24,-19,-14
-34,-29,4,31,-19,-12,-9,-39,-14,-24,-19,-14
-34,-29,4,31,-19,-12,-9,-43,-14,-24,-19,-14
-43,-43,0,43,-21,-21,-9,-43,-14,-24,-19,-9
-48,-43,4,46,-26,-19,-9,-43,-14,-19,-19,-9
-48,-43,4,46,-26,-19,-9,-43,-14,-19,-19,-14
-48,-39,9,43,-29,-14,-9,-43,-19,-24,-19,-14
-48,-39,9,43,-29,-14,-9,-48,-29,-34,-29,-24
-48,-39,9,43,-29,-14,-9,-48,-29,-34,-29,-24
-48,-39,9,43,-29,-14,-9,-48,-29,-34,-29,-24
-43,-39,4,41,-24,-17,-9,-48,-24,-34,-29,-19
-43,-29,14,36,-29,-7,-9,-48,-14,-34,-19,-9
-43,-34,9,39,-26,-12,-9,-53,-19,-34,-19,-9
-43,-34,9,39,-26,-12,-19,-58,-29,-34,-19,-19
-43,-29,14,36,-29,-7,-19,-58,-29,-34,-19,-19
-34,-34,0,34,-17,-17,-14,-58,-24,-24,-19,-14
-43,-39,4,41,-24,-17,-14,-53,-24,-24,-19,-14
-34,-43,-9,39,-12,-26,-14,-53,-24,-24,-19,-14
-34,-48,-14,41,-9,-31,-14,-58,-29,-24,-19,-14
-34,-43,-9,39,-12,-26,-24,-68,-29,-24,-24,-14
-34,-34,0,34,-17,-17,-29,-68,-29,-24,-24,-14
-39,-24,14,31,-26,-4,-29,-68,-29,-24,-24,-14
-39,-14,24,26,-31,4,-29,-73,-29,-24,-24,-14
-39,-24,14,31,-26,-4,-29,-73,-34,-29,-14,-14
-39,-24,14,31,-26,-4,-29,-73,-34,-29,-14,-9
-39,-24,14,31,-26,-4,-29,-78,-39,-34,-14,-9
-39,-14,24,26,-31,4,-29,-82,-39,-39,-14,-9
-39,-24,14,31,-26,-4,-19,-82,-39,-29,-9,0
-34,-24,9,29,-21,-7,-19,-78,-39,-29,-9,0
-34,-24,9,29,-21,-7,-19,-78,-43,-29,-9,0
-34,-24,9,29,-21,-7,-19,-78,-43,-29,-9,0
-34,-14,19,24,-26,2,-19,-78,-43,-29,-9,-9
-34,-14,19,24,-26,2,-19,-78,-43,-29,-9,-4
-34,-14,19,24,-26,2,-24,-82,-43,-29,-9,-4
-34,-14,19,24,-26,2,-29,-82,-48,-29,-9,-4
-39,-4,34,21,-36,14,-29,-82,-48,-19,-4,-9
-39,-9,29,24,-34,9,-29,-82,-48,-19,-4,-9
-39,-9,29,24,-34,9,-34,-82,-43,-19,-4,-9
-39,-4,34,21,-36,14,-39,-82,-43,-14,-4,-9
-29,4,34,12,-31,19,-48,-97,-53,-24,-14,-9
-29,4,34,12,-31,19,-43,-97,-53,-29,-14,-9
-24,9,34,7,-29,21,-43,-97,-53,-29,-14,-9
-24,9,34,7,-29,21,-43,-97,-58,-29,-14,-9
-19,-4,14,12,-17,4,-48,-87,-58,-29,0,0
-19,-4,14,12,-17,4,-53,-87,-53,-29,0,4
-29,-4,24,17,-26,9,-53,-92,-48,-29,0,4
-29,-4,24,17,-26,9,-48,-97,-39,-29,0,4
-29,-14,14,21,-21,0,-48,-97,-48,-19,0,14
-29,-14,14,21,-21,0,-48,-92,-48,-19,0,14
-29,-14,14,21,-21,0,-48,-92,-48,-19,0,14
-29,-14,14,21,-21,0,-48,-92,-48,-14,0,14
-39,0,39,19,-39,19,-48,-92,-53,-24,-9,4
-39,0,39,19,-39,19,-48,-97,-53,-24,-9,4
-39,0,39,19,-39,19,-48,-97,-53,-24,-9,4
-39,0,39,19,-39,19,-48,-97,-53,-24,-4,4
-34,0,34,17,-34,17,-58,-97,-43,-14,4,14
-34,4,39,14,-36,21,-58,-102,-43,-19,4,14
-34,4,39,14,-36,21,-58,-107,-48,-19,4,14
-34,9,43,12,-39,26,-58,-107,-48,-14,4,14
-48,9,58,19,-53,34,-48,-102,-53,-24,-4,14
-48,9,58,19,-53,34,-48,-102,-53,-24,-4,14
-48,9,58,19,-53,34,-48,-102,-53,-24,-4,9
-43,9,53,17,-48,31,-48,-102,-53,-24,-4,0
-34,9,43,12,-39,26,-53,-102,-53,-34,-9,0
-34,9,43,12,-39,26,-58,-102,-53,-29,-9,0
-34,9,43,12,-39,26,-63,-102,-48,-29,-9,4
-34,9,43,12,-39,26,-68,-102,-48,-29,-9,4
-34,9,43,12,-39,26,-58,-112,-48,-29,-4,4
-34,9,43,12,-39,26,-58,-112,-48,-24,-4,9
-29,19,48,4,-39,34,-58,-107,-48,-24,0,9
-29,19,48,4,-39,34,-58,-107,-43,-24,0,9
-24,19,43,2,-34,31,-58,-107,-53,-24,9,19
-24,14,39,4,-31,26,-58,-97,-53,-19,9,24
-29,19,48,4,-39,34,-58,-92,-48,-14,14,24
-29,19,48,4,-39,34,-58,-92,-43,-14,19,29
-29,29,58,0,-43,43,-53,-92,-34,-4,14,39
-24,24,48,0,-36,36,-53,-87,-39,-4,14,29
-19,29,48,-4,-34,39,-48,-97,-39,-9,9,29
-9,43,53,-17,-31,48,-58,-97,-34,0,14,29
-9,48,58,-19,-34,53,-58,-97,-29,0,19,29
-9,53,63,-21,-36,58,-58,-97,-24,0,24,29
-9,58,68,-24,-39,63,-58,-97,-19,0,29,29
-9,78,87,-34,-48,82,-48,-92,0,14,43,39
-4,87,92,-41,-48,90,-39,-78,14,24,53,48
4,97,92,-51,-43,95,-39,-68,29,34,53,48
9,97,87,-53,-39,92,-39,-53,39,48,58,53
19,87,68,-53,-24,78,-29,-48,48,63,73,68
19,87,68,-53,-24,78,-29,-48,58,73,82,73
24,87,63,-56,-19,75,-24,-43,58,78,87,73
24,87,63,-56,-19,75,-24,-43,58,78,92,73
39,92,53,-65,-7,73,-39,-43,58,68,87,63
48,92,43,-70,2,68,-58,-39,53,68,87,73
53,92,39,-73,7,65,-73,-39,53,68,87,73
58,82,24,-70,17,53,-87,-39,43,68,87,78
58,63,4,-61,26,34,-92,-43,29,63,82,68
63,58,-4,-61,34,26,-97,-58,19,48,82,68
63,58,-4,-61,34,26,-112,-63,-4,39,73,68
63,68,4,-65,29,36,-131,-87,-24,34,73,68
63,87,24,-75,19,56,-131,-112,-24,34,73,73
58,126,68,-92,-4,97,-151,-131,-19,39,78,78
58,151,92,-104,-17,122,-165,-151,-9,39,82,87
58,161,102,-109,-21,131,-170,-151,-4,43,82,87
48,161,112,-104,-31,136,-161,-141,-19,34,82,78
48,156,107,-102,-29,131,-156,-141,-24,29,82,78
39,151,112,-95,-36,131,-146,-141,-29,24,78,68
29,136,107,-82,-39,122,-141,-141,-29,19,68,68
39,122,82,-80,-21,102,-131,-141,-24,19,68,63
24,112,87,-68,-31,100,-131,-141,-29,19,68,68
24,112,87,-68,-31,100,-126,-136,-29,24,73,78
34,112,78,-73,-21,95,-126,-126,-24,43,82,87
34,112,78,-73,-21,95,-136,-126,-24,43,82,97
34,107,73,-70,-19,90,-131,-122,-14,43,82,97
39,107,68,-73,-14,87,-131,-122,-14,43,82,97
39,97,58,-68,-9,78,-131,-122,-29,43,82,92
48,97,48,-73,0,73,-122,-126,-39,24,73,87
43,82,39,-63,2,61,-122,-136,-58,14,68,73
43,82,39,-63,2,61,-122,-136,-58,14,68,73
43,92,48,-68,-2,70,-117,-136,-58,14,68,78
39,107,68,-73,-14,87,-107,-136,-48,24,73,73
34,107,73,-70,-19,90,-102,-131,-43,24,73,73
24,107,82,-65,-29,95,-102,-131,-43,24,73,73
19,102,82,-61,-31,92,-102,-141,-53,9,63,63
4,78,73,-41,-34,75,-87,-136,-58,0,48,48
0,63,63,-31,-31,63,-82,-136,-58,-4,39,43
-14,58,73,-21,-43,65,-78,-136,-63,-4,34,39
-19,39,58,-9,-39,48,-68,-136,-63,-9,29,29
-34,9,43,12,-39,26,-39,-136,-63,-9,24,14
-48,4,53,21,-51,29,-29,-136,-63,-19,19,9
-58,4,63,26,-61,34,-29,-141,-63,-24,14,4
-68,-4,63,36,-65,29,-24,-141,-78,-34,4,-9
-58,-4,53,31,-56,24,-24,-141,-87,-43,4,-9
-58,-14,43,36,-51,14,-24,-141,-87,-43,4,-9
-63,-19,43,41,-53,12,-24,-141,-87,-48,0,-4
-63,-19,43,41,-53,12,-29,-136,-87,-48,-4,0
-53,-14,39,34,-46,12,-43,-146,-87,-48,-4,-9
-53,-9,43,31,-48,17,-43,-146,-87,-48,-4,-9
-48,0,48,24,-48,24,-43,-151,-87,-48,-4,-9
-48,4,53,21,-51,29,-43,-151,-82,-48,-4,-9
-48,-4,43,26,-46,19,-39,-146,-78,-34,0,0
-48,-4,43,26,-46,19,-39,-146,-78,-29,0,0
-48,0,48,24,-48,24,-39,-146,-78,-29,0,0
-48,0,48,24,-48,24,-39,-146,-78,-29,0,0
-48,-14,34,31,-41,9,-39,-136,-87,-34,0,-4
-48,-14,34,31,-41,9,-39,-131,-87,-39,-4,-4
-48,-4,43,26,-46,19,-39,-131,-82,-43,-9,-4
-48,-4,43,26,-46,19,-39,-131,-78,-43,-9,-4
-48,-9,39,29,-43,14,-39,-131,-78,-34,0,9
-48,-9,39,29,-43,14,-39,-131,-78,-34,0,9
-48,-9,39,29,-43,14,-34,-131,-78,-29,0,9
-48,-9,39,29,-43,14,-34,-126,-78,-29,0,9
-48,4,53,21,-51,29,-34,-136,-78,-29,4,14
-43,9,53,17,-48,31,-39,-136,-73,-29,4,14
-43,14,58,14,-51,36,-48,-131,-73,-29,4,9
-43,24,68,9,-56,46,-53,-131,-73,-29,4,9
-43,19,63,12,-53,41,-43,-131,-73,-19,14,19
-43,14,58,14,-51,36,-43,-131,-73,-14,14,19
-43,14,58,14,-51,36,-39,-131,-73,-14,19,19
-43,9,53,17,-48,31,-39,-131,-68,-14,19,19
-53,29,82,12,-68,56,-34,-122,-58,-4,19,19
-53,39,92,7,-73,65,-43,-131,-58,-9,9,9
-53,39,92,7,-73,65,-43,-122,-48,-9,9,4
-63,39,102,12,-82,70,-34,-131,-34,0,19,4
-73,48,122,12,-97,85,-34,-141,-19,4,24,14
-78,78,156,0,-117,117,-34,-141,4,19,34,19
-92,102,195,-4,-143,148,-34,-131,63,63,58,48
-97,122,219,-12,-158,170,-19,-102,141,126,107,82
-87,165,253,-39,-170,209,-14,-73,219,204,161,122
-73,219,292,-73,-183,256,-24,-53,292,268,219,161
-58,292,351,-117,-204,322,-48,-34,370,366,297,214
-19,356,375,-168,-197,366,-82,0,497,527,439,326
34,439,405,-236,-185,422,-122,19,678,727,634,463
82,556,473,-319,-195,514,-175,0,824,917,814,614
122,653,531,-387,-204,592,-229,-29,893,1093,985,761
185,736,551,-461,-183,644,-317,-92,907,1254,1180,917
273,858,585,-566,-156,722,-429,-195,902,1415,1376,1083
375,995,619,-685,-122,807,-551,-287,922,1605,1600,1288
502,1156,653,-829,-75,905,-692,-395,946,1805,1844,1493
639,1337,697,-988,-29,1017,-863,-546,951,1981,2078,1703
766,1507,741,-1137,12,1124,-1058,-702,897,2137,2298,1917
956,1678,722,-1317,117,1200,-1273,-819,829,2293,2522,2132
1171,1830,658,-1500,256,1244,-1512,-917,766,2444,2742,2337
1366,1932,566,-1649,400,1249,-1727,-1015,644,2518,2888,2503
1527,1961,434,-1744,546,1198,-1869,-1054,458,2449,2913,2576
1654,1952,297,-1803,678,1124,-1971,-1083,200,2215,2786,2542
1756,1898,141,-1827,807,1019,-2054,-1112,-97,1878,2571,2449
1839,1751,-87,-1795,963,832,-2108,-1107,-444,1478,2298,2313
1854,1449,-405,-1651,1129,522,-2039,-1068,-839,961,1893,2059
1727,1044,-683,-1385,1205,180,-1834,-1039,-1220,370,1371,1688
1464,683,-780,-1073,1122,-48,-1605,-1098,-1546,-200,839,1302
1161,434,-727,-797,944,-146,-1395,-1215,-1830,-717,341,932
902,287,-614,-595,758,-163,-1229,-1288,-1952,-1039,-29,614
736,190,-546,-463,641,-178,-1083,-1239,-1873,-1117,-200,429
649,97,-551,-373,600,-226,-966,-1117,-1712,-1078,-268,307
541,9,-531,-275,536,-261,-834,-971,-1537,-1019,-331,195
400,-53,-453,-173,427,-253,-658,-800,-1307,-902,-346,92
292,-82,-375,-104,334,-229,-512,-634,-1058,-756,-317,53
244,-43,-287,-100,265,-165,-405,-473,-834,-605,-263,34
165,14,-151,-90,158,-68,-297,-331,-595,-448,-204,14
82,19,-63,-51,73,-21,-190,-224,-400,-312,-175,-19
53,0,-53,-26,53,-26,-112,-146,-292,-253,-156,-48
24,-24,-48,0,36,-36,-48,-92,-224,-224,-165,-87
-4,-34,-29,19,12,-31,-4,-53,-180,-204,-161,-112
-19,-53,-34,36,7,-43,19,0,-136,-175,-146,-112
-9,-82,-73,46,31,-78,58,48,-92,-136,-131,-107
-24,-97,-73,61,24,-85,78,63,-68,-117,-126,-117
-34,-107,-73,70,19,-90,73,73,-58,-117,-122,-117
-39,-107,-68,73,14,-87,73,73,-58,-117,-126,-112
-43,-112,-68,78,12,-90,78,78,-53,-112,-126,-112
-53,-107,-53,80,0,-80,78,82,-43,-107,-126,-112
-58,-102,-43,80,-7,-73,82,82,-34,-102,-126,-112
-48,-107,-58,78,4,-82,87,78,-24,-107,-131,-122
-53,-107,-53,80,0,-80,87,82,-19,-107,-131,-126
-58,-107,-48,82,-4,-78,87,82,-14,-107,-131,-136
-58,-102,-43,80,-7,-73,87,87,-4,-102,-131,-136
-58,-102,-43,80,-7,-73,97,97,-4,-102,-122,-126
-68,-102,-34,85,-17,-68,107,97,0,-102,-126,-131
-68,-107,-39,87,-14,-73,126,102,9,-92,-126,-131
-63,-117,-53,90,-4,-85,136,112,14,-87,-126,-131
-73,-107,-34,90,-19,-70,141,112,14,-78,-112,-131
-73,-102,-29,87,-21,-65,146,117,14,-78,-112,-131
-73,-102,-29,87,-21,-65,161,117,24,-78,-112,-131
-78,-112,-34,95,-21,-73,175,117,24,-68,-112,-131
-68,-122,-53,95,-7,-87,170,117,29,-78,-122,-136
-68,-122,-53,95,-7,-87,180,126,34,-78,-122,-136
-68,-122,-53,95,-7,-87,185,126,34,-73,-122,-136
-68,-122,-53,95,-7,-87,185,126,34,-68,-117,-136
-78,-112,-34,95,-21,-73,200,146,43,-68,-117,-146
-78,-112,-34,95,-21,-73,204,151,43,-68,-117,-146
-78,-112,-34,95,-21,-73,204,151,43,-68,-117,-146
-78,-112,-34,95,-21,-73,200,151,43,-68,-117,-146
-73,-122,-48,97,-12,-85,200,141,43,-68,-117,-136
-73,-126,-53,100,-9,-90,200,146,48,-68,-117,-136
-73,-126,-53,100,-9,-90,195,146,53,-63,-117,-136
-73,-126,-53,100,-9,-90,190,156,53,-63,-117,-136
-73,-107,-34,90,-19,-70,180,146,43,-73,-126,-146
-73,-97,-24,85,-24,-61,175,151,43,-73,-131,-151
-73,-82,-9,78,-31,-46,161,151,43,-78,-136,-151
-73,-73,0,73,-36,-36,151,151,48,-78,-136,-151
-63,-82,-19,73,-21,-51,156,161,58,-68,-131,-141
-63,-92,-29,78,-17,-61,156,165,58,-63,-126,-141
-63,-102,-39,82,-12,-70,151,165,58,-58,-122,-141
-63,-112,-48,87,-7,-80,151,165,58,-53,-122,-146
-73,-112,-39,92,-17,-75,146,170,68,-58,-131,-146
-73,-112,-39,92,-17,-75,146,170,68,-63,-131,-146
-68,-112,-43,90,-12,-78,146,175,73,-68,-131,-146
-68,-112,-43,90,-12,-78,146,175,73,-73,-131,-146
-73,-112,-39,92,-17,-75,136,180,73,-73,-131,-136
-73,-107,-34,90,-19,-70,141,180,73,-73,-131,-131
-73,-107,-34,90,-19,-70,141,180,78,-78,-136,-131
-78,-112,-34,95,-21,-73,141,185,78,-78,-136,-136
-78,-102,-24,90,-26,-63,146,185,87,-63,-136,-136
-78,-102,-24,90,-26,-63,146,190,87,-63,-136,-136
-78,-107,-29,92,-24,-68,146,190,87,-68,-141,-136
-78,-112,-34,95,-21,-73,146,190,87,-68,-141,-136
-78,-112,-34,95,-21,-73,146,195,92,-58,-131,-136
-78,-107,-29,92,-24,-68,146,195,92,-58,-131,-136
-78,-107,-29,92,-24,-68,146,200,97,-58,-131,-136
-78,-107,-29,92,-24,-68,141,200,97,-58,-131,-136
-87,-117,-29,102,-29,-73,126,195,97,-68,-141,-146
-87,-107,-19,97,-34,-63,117,195,97,-68,-146,-151
-87,-107,-19,97,-34,-63,117,195,97,-68,-146,-151
-87,-107,-19,97,-34,-63,112,195,97,-68,-146,-146
-78,-126,-48,102,-14,-87,122,204,92,-63,-136,-136
-78,-117,-39,97,-19,-78,117,214,92,-63,-146,-141
-78,-117,-39,97,-19,-78,112,219,92,-63,-146,-141
-78,-117,-39,97,-19,-78,112,229,92,-63,-141,-141
-78,-122,-43,100,-17,-82,102,224,92,-73,-151,-151
-82,-122,-39,102,-21,-80,97,224,92,-73,-151,-151
-87,-122,-34,104,-26,-78,92,224,92,-78,-156,-156
-87,-126,-39,107,-24,-82,92,234,92,-78,-161,-156
-87,-136,-48,112,-19,-92,97,239,92,-78,-161,-146
-87,-141,-53,114,-17,-97,97,239,92,-78,-161,-151
-92,-141,-48,117,-21,-95,97,248,92,-78,-161,-151
-92,-141,-48,117,-21,-95,102,248,97,-78,-165,-151
-92,-141,-48,117,-21,-95,92,248,107,-78,-165,-161
-87,-141,-53,114,-17,-97,102,253,107,-78,-170,-161
-87,-141,-53,114,-17,-97,107,253,107,-73,-170,-165
-92,-146,-53,119,-19,-100,112,268,112,-73,-170,-165
-92,-141,-48,117,-21,-95,117,263,102,-87,-180,-170
-92,-136,-43,114,-24,-90,122,263,102,-92,-180,-175
-92,-131,-39,112,-26,-85,126,263,102,-97,-180,-180
-97,-131,-34,114,-31,-82,131,268,107,-102,-180,-185
-107,-141,-34,124,-36,-87,141,278,117,-92,-190,-185
-107,-141,-34,124,-36,-87,146,287,117,-97,-190,-190
-107,-151,-43,129,-31,-97,151,297,117,-97,-195,-190
-107,-151,-43,129,-31,-97,161,302,122,-97,-195,-195
-107,-151,-43,129,-31,-97,165,302,112,-107,-209,-209
-112,-151,-39,131,-36,-95,170,302,112,-112,-214,-214
-112,-151,-39,131,-36,-95,180,302,112,-117,-229,-219
-117,-156,-39,136,-39,-97,185,312,107,-122,-234,-229
-122,-170,-48,146,-36,-109,204,326,117,-117,-224,-239
-126,-175,-48,151,-39,-112,209,331,122,-122,-229,-244
-131,-175,-43,153,-43,-109,214,336,122,-126,-244,-248
-136,-180,-43,158,-46,-112,224,341,122,-131,-244,-258
-141,-170,-29,156,-56,-100,239,356,122,-141,-253,-248
-141,-170,-29,156,-56,-100,244,361,122,-156,-263,-263
-146,-175,-29,161,-58,-102,253,366,122,-156,-273,-273
-151,-185,-34,168,-58,-109,263,370,122,-161,-278,-278
-161,-180,-19,170,-70,-100,273,370,122,-180,-292,-287
-165,-175,-9,170,-78,-92,278,370,122,-190,-307,-302
-170,-170,0,170,-85,-85,283,370,122,-195,-312,-322
-175,-175,0,175,-87,-87,292,366,122,-204,-322,-336
-185,-204,-19,195,-82,-112,312,375,131,-200,-322,-336
-185,-214,-29,200,-78,-122,322,385,126,-214,-336,-341
-195,-224,-29,209,-82,-126,326,390,122,-224,-351,-346
-204,-229,-24,217,-90,-126,331,395,122,-234,-361,-361
-214,-239,-24,226,-95,-131,346,409,122,-234,-366,-356
-214,-248,-34,231,-90,-141,351,414,122,-244,-375,-366
-229,-258,-29,244,-100,-143,361,414,117,-244,-380,-375
-239,-278,-39,258,-100,-158,366,414,112,-244,-385,-385
-239,-268,-29,253,-104,-148,361,409,97,-268,-405,-409
-253,-258,-4,256,-124,-131,356,405,92,-287,-424,-419
-258,-253,4,256,-131,-124,361,400,92,-302,-444,-424
-268,-248,19,258,-143,-114,361,395,87,-312,-458,-439
-268,-253,14,261,-141,-119,356,395,82,-341,-478,-448
-273,-253,19,263,-146,-117,356,395,78,-346,-492,-458
-283,-263,19,273,-151,-122,361,395,78,-356,-492,-463
-292,-278,14,285,-153,-131,366,395,73,-370,-507,-473
-297,-278,19,287,-158,-129,356,380,68,-375,-517,-483
-297,-278,19,287,-158,-129,356,375,63,-390,-536,-488
-307,-283,24,295,-165,-129,356,370,58,-395,-541,-497
-317,-283,34,300,-175,-124,356,361,53,-405,-551,-502
-317,-283,34,300,-175,-124,356,366,58,-405,-546,-492
-322,-283,39,302,-180,-122,356,361,53,-414,-551,-497
-322,-287,34,305,-178,-126,351,351,48,-419,-556,-507
-322,-287,34,305,-178,-126,346,346,43,-419,-561,-507
-326,-287,39,307,-183,-124,336,331,34,-434,-566,-517
-326,-283,43,305,-185,-119,331,322,24,-444,-570,-517
-326,-273,53,300,-190,-109,326,317,14,-448,-580,-517
-322,-268,53,295,-187,-107,322,297,14,-448,-580,-517
-331,-258,73,295,-202,-92,322,292,0,-439,-566,-507
-331,-258,73,295,-202,-92,317,283,0,-439,-566,-502
-326,-253,73,290,-200,-90,302,268,-4,-434,-556,-492
-322,-244,78,283,-200,-82,292,253,-9,-424,-551,-483
-312,-244,68,278,-190,-87,283,248,-14,-434,-541,-478
-307,-229,78,268,-192,-75,268,234,-19,-424,-527,-463
-292,-219,73,256,-183,-73,253,219,-19,-414,-517,-453
-287,-204,82,246,-185,-61,239,204,-24,-405,-502,-439
-268,-190,78,229,-173,-56,214,195,-24,-390,-478,-429
-263,-190,73,226,-168,-58,200,185,-24,-375,-458,-409
-244,-185,58,214,-151,-63,185,170,-24,-346,-439,-390
-234,-161,73,197,-153,-43,170,156,-24,-326,-424,-366
-214,-136,78,175,-146,-29,161,141,-24,-322,-409,-341
-204,-122,82,163,-143,-19,141,126,-24,-297,-385,-326
-185,-112,73,148,-129,-19,126,112,-24,-283,-366,-307
-175,-102,73,139,-124,-14,102,97,-24,-268,-346,-287
-170,-87,82,129,-126,-2,92,78,-24,-253,-317,-273
-156,-82,73,119,-114,-4,78,68,-24,-239,-292,-253
-151,-78,73,114,-112,-2,63,53,-29,-219,-263,-234
-146,-73,73,109,-109,0,53,48,-29,-200,-248,-214
-131,-63,68,97,-100,2,29,34,-24,-185,-234,-200
-122,-48,73,85,-97,12,14,19,-24,-170,-214,-185
-112,-39,73,75,-92,17,0,4,-24,-156,-195,-170
-102,-34,68,68,-85,17,-14,-9,-19,-141,-180,-156
-92,-14,78,53,-85,31,-14,-14,-24,-126,-151,-131
-82,-14,68,48,-75,26,-19,-19,-24,-112,-131,-117
-82,-9,73,46,-78,31,-24,-19,-19,-97,-117,-97
-73,-4,68,39,-70,31,-34,-24,-19,-87,-102,-82
-68,4,73,31,-70,39,-34,-34,-19,-78,-97,-78
-63,9,73,26,-68,41,-34,-39,-19,-73,-82,-63
-53,14,68,19,-61,41,-39,-39,-19,-63,-68,-48
-48,19,68,14,-58,43,-43,-43,-19,-53,-58,-43
-43,9,53,17,-48,31,-34,-34,-19,-39,-34,-24
-39,19,58,9,-48,39,-34,-34,-14,-24,-24,-14
-34,24,58,4,-46,41,-34,-43,-14,-19,-19,-9
-34,24,58,4,-46,41,-34,-48,-14,-4,-9,-4
-19,39,58,-9,-39,48,-43,-63,-24,-4,-9,-4
-14,39,53,-12,-34,46,-43,-63,-24,-4,-9,0
-14,34,48,-9,-31,41,-43,-63,-24,-4,-4,4
-14,34,48,-9,-31,41,-43,-63,-24,-4,-4,0
-19,29,48,-4,-34,39,-34,-53,-14,9,4,9
-19,24,43,-2,-31,34,-34,-63,-14,9,14,9
-19,9,29,4,-24,19,-34,-63,-9,9,19,19
-19,4,24,7,-21,14,-34,-58,-9,9,24,24
-19,9,29,4,-24,19,-34,-68,-9,14,24,24
-19,9,29,4,-24,19,-34,-68,-9,14,24,24
-19,14,34,2,-26,24,-34,-68,-14,14,24,24
-19,24,43,-2,-31,34,-34,-68,-14,14,24,24
-19,24,43,-2,-31,34,-24,-68,-14,14,24,24
-14,24,39,-4,-26,31,-24,-68,-24,9,19,19
-14,24,39,-4,-26,31,-24,-68,-14,9,19,19
-19,19,39,0,-29,29,-14,-68,-14,14,24,19
-29,9,39,9,-34,24,-14,-58,-14,4,14,19
-29,19,48,4,-39,34,-14,-58,-14,4,14,14
-29,24,53,2,-41,39,-14,-58,-9,4,9,9
-24,24,48,0,-36,36,-14,-58,-9,4,9,9
-14,14,29,0,-21,21,-14,-68,-9,14,9,14
-19,4,24,7,-21,14,-4,-68,-9,9,9,14
-19,0,19,9,-19,9,-4,-68,-9,9,9,9
-19,0,19,9,-19,9,-4,-63,-9,9,4,4
-19,9,29,4,-24,19,-9,-63,-19,0,4,-4
-24,9,34,7,-29,21,-9,-63,-19,0,4,-4
-24,0,24,12,-24,12,-14,-63,-24,0,4,0
-24,0,24,12,-24,12,-19,-63,-24,0,4,0
-29,9,39,9,-34,24,-29,-63,-19,0,14,9
-29,9,39,9,-34,24,-29,-58,-19,0,14,0
-29,9,39,9,-34,24,-29,-58,-19,-4,4,0
-29,9,39,9,-34,24,-29,-58,-24,-4,4,0
-29,4,34,12,-31,19,-39,-58,-14,4,0,0
-29,4,34,12,-31,19,-39,-58,-14,4,0,0
-29,4,34,12,-31,19,-48,-58,-14,0,0,0
-29,4,34,12,-31,19,-48,-58,-14,0,0,0
-29,0,29,14,-29,14,-43,-58,-19,-9,0,-9
-29,0,29,14,-29,14,-43,-58,-19,-9,0,-9
-29,0,29,14,-29,14,-48,-58,-19,-9,0,-9
-29,0,29,14,-29,14,-48,-58,-19,-9,-4,-9
-34,0,34,17,-34,17,-39,-58,-19,-9,-14,-9
-34,0,34,17,-34,17,-39,-58,-19,-9,-14,-9
-34,4,39,14,-36,21,-39,-58,-24,-9,-14,-14
-34,4,39,14,-36,21,-39,-58,-24,-9,-14,-14
-43,-4,39,24,-41,17,-39,-53,-14,-4,-4,-4
-43,-9,34,26,-39,12,-39,-53,-19,-4,-9,-4
-43,-19,24,31,-34,2,-39,-48,-19,-4,-9,-4
-43,-24,19,34,-31,-2,-39,-48,-14,-4,-9,-4
-43,-9,34,26,-39,12,-29,-58,-24,-4,-9,-4
-43,-9,34,26,-39,12,-29,-58,-24,-4,-9,-4
-43,-9,34,26,-39,12,-29,-58,-24,-4,-9,-4
-43,-9,34,26,-39,12,-29,-63,-24,-4,-9,-4
-43,-24,19,34,-31,-2,-19,-53,-24,-4,-9,-9
-48,-24,24,36,-36,0,-19,-53,-24,0,-9,-9
-48,-24,24,36,-36,0,-19,-53,-24,0,-9,-14
-48,-19,29,34,-39,4,-19,-53,-29,-4,-9,-14
-39,-19,19,29,-29,0,-19,-58,-29,-4,-9,-4
-39,-19,19,29,-29,0,-19,-58,-29,-4,-9,-4
-39,-19,19,29,-29,0,-19,-58,-29,-4,-9,-4
-34,-19,14,26,-24,-2,-19,-58,-24,-4,-9,0
-43,-19,24,31,-34,2,-19,-68,-24,-14,-19,-9
-43,-24,19,34,-31,-2,-19,-73,-29,-14,-19,-9
-43,-24,19,34,-31,-2,-29,-78,-39,-14,-19,-19
-43,-19,24,31,-34,2,-29,-78,-39,-14,-19,-19
-43,-29,14,36,-29,-7,-14,-68,-24,-4,-14,-4
-53,-29,24,41,-39,-2,-14,-63,-24,-4,-9,-4
-43,-29,14,36,-29,-7,-14,-63,-24,-4,-4,-4
-43,-29,14,36,-29,-7,-14,-68,-29,-4,0,-4
-34,-29,4,31,-19,-12,-14,-78,-29,-4,0,-14
-34,-24,9,29,-21,-7,-19,-78,-29,-4,-4,-14
-39,-19,19,29,-29,0,-19,-78,-29,-4,-9,-14
-39,-14,24,26,-31,4,-19,-82,-29,-4,-14,-14
-39,-14,24,26,-31,4,-19,-82,-34,-4,-4,-4
-39,-14,24,26,-31,4,-19,-82,-34,0,-4,0
-39,-14,24,26,-31,4,-19,-87,-39,0,-4,0
-39,-4,34,21,-36,14,-19,-92,-39,0,-4,0
-39,-14,24,26,-31,4,-29,-82,-29,0,-9,-9
-34,-14,19,24,-26,2,-29,-78,-29,0,-9,-9
-34,-14,19,24,-26,2,-29,-78,-34,0,-9,-9
-34,-14,19,24,-26,2,-29,-78,-34,0,-9,-9
-34,-24,9,29,-21,-7,-29,-78,-34,0,0,0
-34,-24,9,29,-21,-7,-29,-78,-34,0,0,4
-34,-24,9,29,-21,-7,-34,-82,-34,0,0,4
-34,-24,9,29,-21,-7,-39,-82,-39,0,0,4
-39,-24,14,31,-26,-4,-39,-82,-39,-9,4,0
-39,-29,9,34,-24,-9,-39,-82,-39,-9,4,0
-39,-29,9,34,-24,-9,-43,-82,-34,-9,4,0
-39,-24,14,31,-26,-4,-48,-82,-34,-4,4,0
-39,-24,14,31,-26,-4,-48,-87,-34,0,4,9
-39,-24,14,31,-26,-4,-43,-87,-34,0,4,9
-34,-19,14,26,-24,-2,-43,-87,-34,4,4,9
-34,-19,14,26,-24,-2,-43,-87,-39,9,4,9
-29,-14,14,21,-21,0,-48,-87,-43,0,0,9
-29,-14,14,21,-21,0,-53,-87,-43,0,0,14
-39,-14,24,26,-31,4,-53,-92,-43,0,0,14
-39,-14,24,26,-31,4,-48,-97,-39,0,0,14
-39,-4,34,21,-36,14,-58,-107,-48,0,0,4
-39,-4,34,21,-36,14,-58,-102,-48,0,0,4
-39,-4,34,21,-36,14,-58,-102,-48,0,0,4
-39,-4,34,21,-36,14,-58,-102,-48,4,0,4
-29,-4,24,17,-26,9,-48,-102,-43,-4,0,4
-29,-9,19,19,-24,4,-48,-107,-43,-4,0,4
-29,-14,14,21,-21,0,-48,-107,-43,-4,0,4
-29,-19,9,24,-19,-4,-48,-107,-43,-4,4,4
-34,-19,14,26,-24,-2,-39,-102,-43,4,14,14
-34,-14,19,24,-26,2,-39,-102,-43,0,14,14
-34,-14,19,24,-26,2,-39,-102,-48,0,14,14
-34,-9,24,21,-29,7,-39,-97,-48,4,14,14
-48,-9,39,29,-43,14,-39,-102,-43,14,14,9
-48,-9,39,29,-43,14,-39,-102,-43,14,14,14
-48,-9,39,29,-43,14,-39,-102,-43,14,14,14
-43,-9,34,26,-39,12,-39,-102,-43,14,14,9
-43,-19,24,31,-34,2,-39,-102,-43,14,19,19
-43,-19,24,31,-34,2,-39,-102,-43,19,19,19
-43,-19,24,31,-34,2,-39,-102,-39,19,19,24
-43,-19,24,31,-34,2,-39,-102,-39,19,19,24
-34,-9,24,21,-29,7,-39,-102,-39,9,24,24
-34,-9,24,21,-29,7,-39,-102,-39,14,24,29
-29,0,29,14,-29,14,-39,-97,-39,14,29,29
-29,0,29,14,-29,14,-39,-97,-34,14,29,29
-29,4,34,12,-31,19,-39,-87,-24,14,29,29
-24,4,29,9,-26,17,-39,-78,-24,19,29,34
-9,0,9,4,-9,4,-39,-78,-29,29,39,39
-19,14,34,2,-26,24,-39,-78,-14,39,48,48
-19,19,39,0,-29,29,-39,-78,-9,39,48,48
-19,24,43,-2,-31,34,-39,-78,-4,39,48,48
-19,29,48,-4,-34,39,-39,-78,0,39,48,48
-9,39,48,-14,-29,43,-39,-78,14,58,63,58
-4,48,53,-21,-29,51,-29,-68,24,63,73,68
4,58,53,-31,-24,56,-29,-63,34,68,73,68
9,58,48,-34,-19,53,-29,-53,39,78,78,73
29,68,39,-48,-4,53,-29,-29,58,92,97,78
29,68,39,-48,-4,53,-29,-29,68,102,102,82
34,68,34,-51,0,51,-24,-24,68,107,102,82
34,68,34,-51,0,51,-24,-24,68,107,102,82
48,73,24,-61,12,48,-43,-24,78,107,107,82
58,73,14,-65,21,43,-58,-19,73,107,107,92
63,73,9,-68,26,41,-68,-19,73,107,107,92
68,63,-4,-65,36,29,-78,-19,63,107,107,97
73,48,-24,-61,48,12,-82,-29,48,102,107,87
73,39,-34,-56,53,2,-87,-39,39,87,102,87
68,34,-34,-51,51,0,-102,-39,14,78,87,87
63,39,-24,-51,43,7,-122,-58,-4,73,82,87
53,63,9,-58,21,36,-131,-92,0,63,92,92
48,97,48,-73,0,73,-151,-112,0,68,97,97
48,117,68,-82,-9,92,-165,-131,4,68,102,107
48,122,73,-85,-12,97,-170,-131,4,73,102,107
48,122,73,-85,-12,97,-170,-122,0,82,112,117
48,117,68,-82,-9,92,-165,-122,-4,78,112,117
39,112,73,-75,-17,92,-156,-122,-9,73,107,107
29,97,68,-63,-19,82,-151,-122,-9,68,97,107
34,92,58,-63,-12,75,-151,-126,-4,58,87,97
24,82,58,-53,-17,70,-151,-131,-9,58,87,97
29,82,53,-56,-12,68,-146,-131,-9,63,92,102
43,82,39,-63,2,61,-146,-126,-4,82,102,107
43,87,43,-65,0,65,-136,-126,-14,73,102,97
43,87,43,-65,0,65,-131,-122,-4,73,102,97
48,92,43,-70,2,68,-131,-122,-4,73,102,97
48,87,39,-68,4,63,-131,-122,-19,73,102,92
58,63,4,-61,26,34,-126,-117,-19,63,92,92
53,43,-9,-48,31,17,-122,-126,-39,53,87,82
53,39,-14,-46,34,12,-117,-126,-39,53,87,87
53,43,-9,-48,31,17,-107,-126,-39,53,87,97
39,48,9,-43,14,29,-97,-117,-29,63,92,92
34,48,14,-41,9,31,-92,-112,-24,63,92,92
24,48,24,-36,0,36,-92,-112,-24,63,92,92
19,43,24,-31,-2,34,-92,-122,-34,48,82,82
14,43,29,-29,-7,36,-87,-126,-48,34,73,68
9,34,24,-21,-7,29,-82,-126,-48,24,58,63
-4,34,39,-14,-21,36,-78,-126,-53,19,48,58
-9,19,29,-4,-19,24,-68,-126,-53,9,39,48
-24,-9,14,17,-19,2,-48,-136,-63,19,43,43
-39,-14,24,26,-31,4,-39,-136,-63,9,39,39
-48,-14,34,31,-41,9,-39,-141,-63,4,34,34
-58,-24,34,41,-46,4,-34,-141,-78,-4,24,19
-58,-34,24,46,-41,-4,-34,-141,-78,-14,4,4
-58,-43,14,51,-36,-14,-34,-141,-78,-14,4,0
-63,-48,14,56,-39,-17,-34,-141,-78,-19,0,0
-63,-48,14,56,-39,-17,-39,-136,-78,-19,-4,0
-63,-48,14,56,-39,-17,-43,-136,-78,-19,4,9
-63,-48,14,56,-39,-17,-43,-136,-78,-19,4,9
-58,-43,14,51,-36,-14,-43,-141,-78,-19,4,9
-58,-43,14,51,-36,-14,-43,-141,-73,-19,4,9
-48,-53,-4,51,-21,-29,-39,-126,-78,-14,9,19
-48,-53,-4,51,-21,-29,-39,-126,-78,-9,9,19
-48,-48,0,48,-24,-24,-39,-126,-78,-9,9,19
-48,-48,0,48,-24,-24,-39,-126,-78,-9,9,19
-58,-43,14,51,-36,-14,-39,-136,-78,-9,24,24
-58,-43,14,51,-36,-14,-39,-131,-78,-9,24,24
-58,-34,24,46,-41,-4,-39,-131,-73,-9,24,24
-58,-34,24,46,-41,-4,-39,-131,-68,-4,29,24
-48,-29,19,39,-34,-4,-48,-131,-68,-4,19,19
-48,-29,19,39,-34,-4,-48,-131,-68,-4,19,19
-48,-29,19,39,-34,-4,-43,-131,-68,0,19,19
-48,-29,19,39,-34,-4,-43,-126,-68,0,19,19
-48,-19,29,34,-39,4,-39,-126,-68,0,24,24
-43,-19,24,31,-34,2,-39,-126,-63,0,24,24
-43,-19,24,31,-34,2,-43,-122,-63,0,24,19
-43,-14,29,29,-36,7,-43,-122,-63,0,24,19
-53,-19,34,36,-43,7,-34,-112,-58,9,34,24
-53,-24,29,39,-41,2,-34,-112,-53,14,34,29
-53,-24,29,39,-41,2,-29,-112,-48,14,39,34
-53,-29,24,41,-39,-2,-29,-112,-39,14,39,39
-34,-19,14,26,-24,-2,-34,-112,-48,14,39,39
-34,-29,4,31,-19,-12,-34,-122,-48,9,39,39
-53,-39,14,46,-34,-12,-34,-112,-48,19,48,34
-63,-39,24,51,-43,-7,-34,-112,-34,29,48,43
-73,-29,43,51,-58,7,-24,-112,-19,34,53,43
-78,-9,68,43,-73,29,-24,-122,4,39,53,48
-92,34,126,29,-109,80,-24,-122,43,63,58,39
-97,82,180,7,-139,131,-29,-102,92,97,78,53
-87,117,204,-14,-146,161,-34,-73,170,165,122,82
-82,141,224,-29,-153,183,-24,-53,244,229,170,122
-87,175,263,-43,-175,219,-19,-34,312,307,248,185
-58,239,297,-90,-178,268,-34,0,400,429,351,268
-4,341,346,-168,-175,344,-82,19,531,590,507,375
43,458,414,-251,-185,436,-126,19,707,790,688,507
82,546,463,-314,-190,505,-161,0,824,966,858,653
136,629,492,-383,-178,561,-229,-43,878,1117,1015,790
214,722,507,-468,-146,614,-322,-107,902,1278,1200,936
307,839,531,-573,-112,685,-424,-190,912,1468,1415,1122
414,980,566,-697,-75,773,-546,-287,927,1659,1649,1327
551,1141,590,-846,-19,866,-697,-419,961,1844,1893,1537
688,1302,614,-995,36,958,-883,-575,946,2010,2113,1751
858,1483,624,-1171,117,1054,-1088,-741,888,2156,2327,1956
1063,1664,600,-1363,231,1132,-1337,-878,814,2298,2537,2152
1298,1815,517,-1556,390,1166,-1590,-1005,712,2400,2713,2337
1498,1893,395,-1695,551,1144,-1790,-1093,556,2420,2815,2459
1644,1893,248,-1769,697,1071,-1922,-1122,346,2293,2786,2493
1756,1839,82,-1798,836,961,-2015,-1132,68,2025,2630,2440
1869,1771,-97,-1820,983,836,-2078,-1146,-248,1673,2396,2332
1942,1586,-356,-1764,1149,614,-2098,-1117,-605,1234,2078,2156
1893,1220,-673,-1556,1283,273,-1981,-1088,-995,702,1644,1864
1698,819,-878,-1259,1288,-29,-1781,-1098,-1351,131,1132,1488
1424,551,-873,-988,1149,-161,-1561,-1205,-1673,-414,614,1107
1127,356,-771,-741,949,-207,-1376,-1307,-1893,-844,175,771
883,209,-673,-546,778,-231,-1200,-1327,-1912,-1049,-102,536
746,136,-610,-441,678,-236,-1073,-1254,-1790,-1058,-209,395
658,58,-600,-358,629,-270,-951,-1117,-1644,-1019,-263,283
536,-34,-570,-251,553,-302,-795,-956,-1444,-941,-297,180
380,-92,-473,-143,427,-283,-610,-761,-1195,-795,-297,102
283,-92,-375,-95,329,-234,-473,-590,-961,-653,-253,73
234,-43,-278,-95,256,-161,-366,-429,-732,-507,-204,53
151,-19,-170,-65,161,-95,-239,-283,-497,-361,-156,19
73,-19,-92,-26,82,-56,-131,-175,-331,-263,-136,-19
24,-34,-58,4,41,-46,-68,-102,-253,-214,-136,-48
4,-63,-68,29,36,-65,-14,-43,-209,-175,-131,-73
-9,-92,-82,51,36,-87,29,0,-146,-146,-117,-82
-19,-112,-92,65,36,-102,58,48,-102,-117,-102,-87
-24,-126,-102,75,39,-114,87,82,-68,-87,-97,-87
-24,-126,-102,75,39,-114,92,92,-48,-87,-102,-87
-29,-141,-112,85,41,-126,82,92,-48,-87,-97,-92
-34,-151,-117,92,41,-134,87,97,-43,-82,-97,-92
-43,-151,-107,97,31,-129,87,102,-34,-78,-97,-92
-48,-151,-102,100,26,-126,92,102,-24,-73,-97,-92
-48,-146,-97,97,24,-122,87,107,-14,-58,-92,-92
-53,-146,-92,100,19,-119,87,112,-9,-58,-92,-97
-58,-146,-87,102,14,-117,87,112,-4,-58,-92,-107
-58,-141,-82,100,12,-112,87,117,4,-53,-92,-107
-48,-141,-92,95,21,-117,92,126,4,-63,-92,-107
-58,-141,-82,100,12,-112,97,126,9,-63,-97,-112
-58,-146,-87,102,14,-117,112,131,19,-53,-97,-112
-53,-156,-102,104,24,-129,117,141,24,-48,-97,-112
-58,-136,-78,97,9,-107,112,131,14,-58,-102,-122
-63,-131,-68,97,2,-100,117,136,14,-58,-102,-122
-68,-131,-63,100,-2,-97,131,136,24,-58,-102,-122
-78,-141,-63,109,-7,-102,146,136,24,-48,-102,-122
-78,-151,-73,114,-2,-112,156,141,39,-48,-92,-117
-78,-151,-73,114,-2,-112,170,156,43,-48,-92,-117
-78,-151,-73,114,-2,-112,180,161,43,-43,-92,-117
-78,-151,-73,114,-2,-112,185,165,43,-39,-87,-117
-78,-151,-73,114,-2,-112,190,170,43,-39,-87,-117
-78,-151,-73,114,-2,-112,195,170,43,-39,-87,-117
-78,-151,-73,114,-2,-112,195,165,43,-39,-87,-117
-78,-151,-73,114,-2,-112,190,161,43,-39,-87,-117
-82,-151,-68,117,-7,-109,190,161,53,-39,-97,-117
-82,-156,-73,119,-4,-114,190,165,58,-39,-97,-117
-82,-156,-73,119,-4,-114,185,165,63,-34,-97,-117
-82,-156,-73,119,-4,-114,180,175,63,-34,-97,-117
-82,-156,-73,119,-4,-114,175,175,73,-34,-87,-117
-82,-156,-73,119,-4,-114,175,180,73,-34,-92,-122
-82,-151,-68,117,-7,-109,165,180,73,-39,-97,-122
-82,-151,-68,117,-7,-109,161,180,78,-39,-97,-122
-82,-151,-68,117,-7,-109,156,190,78,-34,-107,-122
-82,-151,-68,117,-7,-109,156,195,78,-34,-107,-122
-82,-151,-68,117,-7,-109,151,195,78,-34,-107,-122
-82,-151,-68,117,-7,-109,151,195,78,-34,-112,-126
-82,-161,-78,122,-2,-119,146,200,78,-24,-102,-117
-82,-161,-78,122,-2,-119,146,200,78,-24,-102,-117
-78,-161,-82,119,2,-122,146,204,82,-24,-102,-117
-78,-161,-82,119,2,-122,146,204,82,-24,-102,-117
-73,-151,-78,112,2,-114,146,209,92,-24,-92,-117
-73,-146,-73,109,0,-109,151,209,92,-24,-92,-112
-73,-146,-73,109,0,-109,151,209,97,-29,-97,-112
-78,-151,-73,114,-2,-112,151,214,97,-29,-97,-117
-78,-151,-73,114,-2,-112,165,214,97,-24,-97,-117
-78,-151,-73,114,-2,-112,165,219,97,-24,-97,-117
-78,-156,-78,117,0,-117,165,219,97,-29,-102,-117
-78,-161,-82,119,2,-122,165,219,97,-29,-102,-117
-78,-161,-82,119,2,-122,165,234,102,-19,-102,-117
-78,-156,-78,117,0,-117,165,234,102,-19,-102,-117
-78,-156,-78,117,0,-117,165,239,107,-19,-102,-117
-78,-156,-78,117,0,-117,161,239,107,-19,-102,-117
-87,-156,-68,122,-9,-112,146,244,107,-24,-112,-126
-87,-146,-58,117,-14,-102,136,244,107,-29,-117,-131
-87,-146,-58,117,-14,-102,136,244,107,-34,-117,-131
-87,-146,-58,117,-14,-102,131,244,107,-39,-117,-126
-78,-156,-78,117,0,-117,122,239,112,-39,-107,-117
-78,-146,-68,112,-4,-107,117,244,112,-34,-117,-122
-78,-146,-68,112,-4,-107,112,244,112,-29,-117,-122
-78,-146,-68,112,-4,-107,112,248,112,-24,-112,-122
-78,-151,-73,114,-2,-112,112,253,102,-34,-122,-131
-82,-151,-68,117,-7,-109,107,253,102,-34,-122,-131
-87,-151,-63,119,-12,-107,102,253,102,-39,-126,-136
-87,-156,-68,122,-9,-112,102,263,102,-39,-131,-136
-97,-156,-58,126,-19,-107,107,268,112,-39,-131,-136
-97,-161,-63,129,-17,-112,107,268,112,-39,-131,-141
-102,-161,-58,131,-21,-109,107,278,112,-39,-131,-141
-102,-161,-58,131,-21,-109,112,278,117,-39,-136,-141
-92,-161,-68,126,-12,-114,102,287,107,-58,-136,-141
-87,-161,-73,124,-7,-117,112,292,107,-58,-141,-141
-87,-161,-73,124,-7,-117,117,292,107,-53,-141,-146
-92,-165,-73,129,-9,-119,122,307,112,-53,-141,-146
-92,-170,-78,131,-7,-124,126,312,122,-58,-141,-141
-92,-175,-82,134,-4,-129,131,312,122,-53,-141,-146
-92,-180,-87,136,-2,-134,136,312,122,-48,-141,-151
-97,-190,-92,143,-2,-141,141,317,126,-43,-141,-156
-107,-190,-82,148,-12,-136,161,317,126,-53,-151,-165
-107,-190,-82,148,-12,-136,165,326,126,-58,-151,-170
-107,-200,-92,153,-7,-146,170,336,126,-58,-156,-170
-107,-200,-92,153,-7,-146,180,341,131,-58,-156,-175
-107,-200,-92,153,-7,-146,195,341,141,-58,-151,-170
-112,-200,-87,156,-12,-143,200,341,141,-63,-156,-175
-112,-200,-87,156,-12,-143,209,341,141,-68,-170,-180
-117,-204,-87,161,-14,-146,214,351,136,-73,-175,-190
-131,-200,-68,165,-31,-134,234,366,126,-87,-185,-209
-136,-204,-68,170,-34,-136,239,370,131,-92,-190,-214
-141,-204,-63,173,-39,-134,244,375,131,-97,-204,-219
-146,-209,-63,178,-41,-136,253,380,131,-102,-204,-229
-151,-209,-58,180,-46,-134,268,375,131,-102,-204,-229
-151,-209,-58,180,-46,-134,273,380,131,-117,-214,-244
-156,-214,-58,185,-48,-136,283,385,131,-117,-224,-253
-161,-224,-63,192,-48,-143,292,390,131,-122,-229,-258
-170,-224,-53,197,-58,-139,312,405,131,-131,-244,-263
-175,-224,-48,200,-63,-136,317,409,131,-141,-258,-273
-180,-224,-43,202,-68,-134,322,414,131,-146,-263,-287
-185,-234,-48,209,-68,-141,331,414,131,-156,-273,-297
-185,-248,-63,217,-61,-156,341,414,131,-161,-283,-312
-185,-253,-68,219,-58,-161,351,424,126,-175,-297,-322
-195,-258,-63,226,-65,-161,356,429,122,-185,-312,-331
-204,-258,-53,231,-75,-156,361,434,122,-195,-322,-351
-224,-258,-34,241,-95,-146,366,439,112,-219,-341,-356
-224,-258,-34,241,-95,-146,370,444,112,-234,-356,-366
-239,-258,-19,248,-109,-139,380,444,107,-239,-366,-375
-248,-268,-19,258,-114,-143,385,444,102,-244,-375,-385
-239,-273,-34,256,-102,-153,375,444,107,-258,-380,-390
-253,-278,-24,265,-114,-151,375,444,102,-268,-395,-400
-258,-287,-29,273,-114,-158,385,444,102,-273,-409,-405
-268,-297,-29,283,-119,-163,390,444,97,-273,-419,-419
-278,-292,-14,285,-131,-153,385,444,82,-302,-439,-429
-283,-292,-9,287,-136,-151,385,444,78,-307,-453,-439
-292,-302,-9,297,-141,-156,390,444,78,-317,-453,-444
-302,-317,-14,309,-143,-165,395,444,73,-331,-468,-453
-307,-322,-14,314,-146,-168,395,448,68,-346,-468,-453
-307,-326,-19,317,-143,-173,395,444,63,-361,-488,-458
-317,-336,-19,326,-148,-178,395,439,58,-366,-492,-468
-326,-341,-14,334,-156,-178,395,429,53,-375,-502,-473
-336,-336,0,336,-168,-168,385,419,58,-385,-517,-483
-341,-331,9,336,-175,-161,385,409,53,-395,-522,-488
-341,-331,9,336,-175,-161,380,395,48,-400,-527,-497
-341,-326,14,334,-178,-156,375,385,43,-400,-531,-497
-336,-331,4,334,-170,-163,366,380,43,-395,-527,-488
-336,-331,4,334,-170,-163,361,370,34,-405,-531,-488
-336,-326,9,331,-173,-158,356,366,24,-409,-541,-488
-331,-326,4,329,-168,-161,351,346,24,-409,-541,-488
-341,-326,14,334,-178,-156,341,341,9,-419,-546,-497
-341,-326,14,334,-178,-156,336,331,9,-419,-546,-492
-336,-322,14,329,-175,-153,322,317,4,-414,-536,-483
-331,-312,19,322,-175,-146,312,302,0,-405,-531,-473
-322,-292,29,307,-175,-131,297,287,-14,-405,-512,-468
-317,-278,39,297,-178,-119,287,273,-19,-395,-497,-453
-302,-268,34,285,-168,-117,278,258,-19,-385,-488,-444
-297,-253,43,275,-170,-104,268,244,-24,-375,-473,-429
-287,-239,48,263,-168,-95,253,214,-24,-366,-468,-419
-283,-239,43,261,-163,-97,239,204,-24,-356,-448,-400
-263,-234,29,248,-146,-102,224,190,-24,-331,-429,-380
-253,-209,43,231,-148,-82,209,175,-24,-317,-414,-356
-244,-195,48,219,-146,-73,190,161,-24,-302,-390,-331
-234,-180,53,207,-143,-63,170,146,-24,-278,-366,-317
-214,-170,43,192,-129,-63,156,131,-24,-263,-346,-297
-204,-161,43,183,-124,-58,131,117,-24,-248,-326,-278
-185,-146,39,165,-112,-53,112,107,-14,-234,-307,-263
-165,-141,24,153,-95,-58,97,97,-14,-219,-283,-244
-156,-136,19,146,-87,-58,82,82,-19,-200,-253,-224
-146,-131,14,139,-80,-58,73,78,-19,-180,-239,-204
-141,-107,34,124,-87,-36,48,58,-24,-165,-224,-190
-131,-87,43,109,-87,-21,34,48,-24,-151,-204,-175
-122,-73,48,97,-85,-12,19,39,-24,-136,-185,-161
-112,-63,48,87,-80,-7,4,29,-19,-122,-170,-146
-102,-63,39,82,-70,-12,4,29,-14,-117,-151,-131
-92,-63,29,78,-61,-17,0,19,-14,-102,-131,-117
-92,-58,34,75,-63,-12,-4,14,-9,-87,-117,-97
-82,-53,29,68,-56,-12,-14,4,-9,-78,-102,-82
-68,-43,24,56,-46,-9,-34,-14,-9,-48,-78,-68
-63,-39,24,51,-43,-7,-34,-19,-9,-43,-63,-53
-53,-34,19,43,-36,-7,-39,-19,-9,-34,-48,-39
-48,-29,19,39,-34,-4,-43,-24,-9,-24,-39,-34
-43,-29,14,36,-29,-7,-43,-34,-9,-14,-34,-34
-39,-19,19,29,-29,0,-43,-34,-4,-4,-24,-24
-34,-14,19,24,-26,2,-43,-43,-4,-4,-19,-19
-34,-14,19,24,-26,2,-43,-48,-4,4,-9,-14
-39,-9,29,24,-34,9,-53,-43,-4,9,4,0
-34,-9,24,21,-29,7,-53,-43,-4,14,9,9
-34,-14,19,24,-26,2,-53,-43,-4,19,19,19
-34,-14,19,24,-26,2,-53,-43,-4,24,24,19
-19,-4,14,12,-17,4,-63,-43,-14,29,29,19
-19,-4,14,12,-17,4,-63,-53,-14,29,34,19
-19,-14,4,17,-12,-4,-63,-53,-9,29,34,29
-19,-14,4,17,-12,-4,-63,-48,-9,29,34,34
-19,-24,-4,21,-7,-14,-53,-58,0,34,43,34
-19,-29,-9,24,-4,-19,-53,-58,0,34,43,34
-19,-29,-9,24,-4,-19,-53,-58,-4,34,43,34
-19,-24,-4,21,-7,-14,-53,-58,-4,34,43,34
-29,-24,4,26,-17,-9,-43,-48,-4,34,34,34
-24,-24,0,24,-12,-12,-43,-48,-14,29,29,29
-24,-24,0,24,-12,-12,-43,-48,-4,29,29,29
-29,-29,0,29,-14,-14,-34,-48,-4,34,34,29
-29,-39,-9,34,-9,-24,-24,-48,-4,34,34,19
-29,-29,0,29,-14,-14,-24,-48,-4,34,34,14
-29,-24,4,26,-17,-9,-24,-48,0,34,29,9
-24,-24,0,24,-12,-12,-24,-48,0,34,29,9
-14,-24,-9,19,-2,-17,-24,-58,-9,34,29,14
-19,-24,-4,21,-7,-14,-14,-58,-9,29,29,14
-19,-19,0,19,-9,-9,-14,-58,-9,29,29,9
-19,-9,9,14,-14,0,-14,-53,-9,29,24,4
-29,-14,14,21,-21,0,-4,-53,-4,29,34,4
-34,-19,14,26,-24,-2,0,-53,0,29,34,4
-34,-34,0,34,-17,-17,0,-53,0,29,34,9
-34,-39,-4,36,-14,-21,0,-53,4,29,34,9
-29,-29,0,29,-14,-14,0,-53,9,39,34,19
-29,-29,0,29,-14,-14,0,-48,9,39,34,9
-29,-29,0,29,-14,-14,0,-48,9,34,24,9
-29,-29,0,29,-14,-14,0,-48,4,34,24,9
-19,-43,-24,31,2,-34,0,-48,4,24,19,0
-19,-43,-24,31,2,-34,0,-48,4,24,19,0
-19,-43,-24,31,2,-34,-9,-48,4,19,19,0
-19,-43,-24,31,2,-34,-9,-48,4,19,19,0
-34,-39,-4,36,-14,-21,-4,-48,0,19,9,0
-39,-39,0,39,-19,-19,-4,-48,0,19,9,0
-43,-39,4,41,-24,-17,-9,-48,0,19,9,0
-48,-39,9,43,-29,-14,-9,-48,0,19,4,0
-48,-39,9,43,-29,-14,0,-39,9,19,4,0
-43,-39,4,41,-24,-17,0,-39,9,19,4,0
-39,-34,4,36,-21,-14,0,-39,4,19,4,-4
-34,-34,0,34,-17,-17,0,-39,4,19,4,-4
-34,-29,4,31,-19,-12,-9,-53,4,24,14,4
-34,-29,4,31,-19,-12,-9,-53,0,24,9,4
-34,-34,0,34,-17,-17,-9,-48,0,24,9,4
-34,-34,0,34,-17,-17,-9,-48,4,24,9,4
-34,-39,-4,36,-14,-21,-9,-39,4,14,0,-4
-34,-39,-4,36,-14,-21,-9,-39,4,14,0,-4
-34,-39,-4,36,-14,-21,-9,-39,4,14,0,-4
-34,-39,-4,36,-14,-21,-9,-43,4,14,0,-4
-34,-34,0,34,-17,-17,-9,-53,4,14,9,0
-39,-34,4,36,-21,-14,-9,-53,4,19,9,0
-39,-34,4,36,-21,-14,-9,-53,4,19,9,-4
-39,-29,9,34,-24,-9,-9,-53,0,14,9,-4
-29,-29,0,29,-14,-14,-9,-58,-9,14,9,-4
-29,-29,0,29,-14,-14,-9,-58,-9,14,9,-4
-29,-29,0,29,-14,-14,-9,-58,-9,14,9,-4
-24,-29,-4,26,-9,-17,-9,-58,-4,14,9,0
-34,-39,-4,36,-14,-21,-9,-48,4,24,19,9
-34,-43,-9,39,-12,-26,-9,-53,0,24,19,9
-34,-43,-9,39,-12,-26,-19,-58,-9,24,19,0
-34,-39,-4,36,-14,-21,-19,-58,-9,24,19,0
-34,-29,4,31,-19,-12,-14,-68,-14,14,9,-4
-43,-29,14,36,-29,-7,-14,-63,-14,14,9,-4
-34,-29,4,31,-19,-12,-14,-63,-14,14,9,-4
-34,-29,4,31,-19,-12,-14,-68,-19,14,9,-4
-34,-43,-9,39,-12,-26,-14,-68,-19,24,14,4
-34,-43,-9,39,-12,-26,-19,-68,-19,24,14,4
-39,-43,-4,41,-17,-24,-19,-68,-19,24,14,4
-39,-43,-4,41,-17,-24,-19,-73,-19,24,14,4
-39,-53,-14,46,-12,-34,-19,-63,-14,14,24,4
-39,-53,-14,46,-12,-34,-19,-63,-14,19,24,9
-39,-53,-14,46,-12,-34,-19,-68,-19,19,24,9
-39,-43,-4,41,-17,-24,-19,-73,-19,19,24,9
-48,-39,9,43,-29,-14,-29,-82,-19,19,19,9
-43,-34,9,39,-26,-12,-29,-78,-19,19,19,9
-43,-29,14,36,-29,-7,-29,-78,-24,19,19,9
-43,-24,19,34,-31,-2,-29,-78,-24,19,19,9
-34,-34,0,34,-17,-17,-29,-78,-14,19,19,9
-34,-34,0,34,-17,-17,-29,-78,-14,19,19,14
-34,-34,0,34,-17,-17,-34,-82,-14,19,19,14
-34,-34,0,34,-17,-17,-39,-82,-19,19,19,14
-39,-24,14,31,-26,-4,-39,-82,-19,29,24,9
-39,-29,9,34,-24,-9,-39,-82,-19,29,24,9
-39,-29,9,34,-24,-9,-43,-82,-14,29,24,9
-39,-24,14,31,-26,-4,-48,-82,-14,34,24,9
-29,-34,-4,31,-12,-19,-39,-87,-24,24,24,19
-29,-34,-4,31,-12,-19,-34,-87,-24,19,24,19
-24,-29,-4,26,-9,-17,-34,-87,-24,19,24,19
-24,-29,-4,26,-9,-17,-34,-87,-29,19,24,19
-29,-24,4,26,-17,-9,-39,-78,-24,29,29,19
-29,-24,4,26,-17,-9,-43,-78,-24,29,29,24
-39,-24,14,31,-26,-4,-43,-82,-24,29,29,24
-39,-24,14,31,-26,-4,-39,-87,-19,29,29,24
-39,-34,4,36,-21,-14,-39,-97,-19,29,39,14
-39,-34,4,36,-21,-14,-39,-92,-19,29,39,14
-39,-34,4,36,-21,-14,-39,-92,-19,29,39,14
-39,-34,4,36,-21,-14,-39,-92,-19,34,39,14
-39,-29,9,34,-24,-9,-39,-92,-34,24,29,14
-39,-29,9,34,-24,-9,-39,-97,-34,24,29,14
-39,-29,9,34,-24,-9,-39,-97,-34,24,29,14
-39,-29,9,34,-24,-9,-39,-97,-34,24,34,14
-34,-19,14,26,-24,-2,-48,-97,-34,24,34,14
-34,-14,19,24,-26,2,-48,-102,-34,19,34,14
-34,-14,19,24,-26,2,-48,-107,-39,19,34,14
-34,-9,24,21,-29,7,-48,-107,-39,24,34,14
-29,-19,9,24,-19,-4,-39,-92,-34,24,34,19
-29,-19,9,24,-19,-4,-39,-92,-34,24,34,24
-29,-19,9,24,-19,-4,-39,-92,-34,24,34,24
-24,-19,4,21,-14,-7,-39,-92,-34,24,34,19
-24,-9,14,17,-19,2,-48,-102,-34,24,39,9
-24,-9,14,17,-19,2,-48,-102,-34,29,39,9
-24,-9,14,17,-19,2,-48,-102,-29,29,39,14
-24,-9,14,17,-19,2,-48,-102,-29,29,39,14
-24,-19,4,21,-14,-7,-39,-92,-19,39,43,24
-24,-19,4,21,-14,-7,-39,-92,-19,43,43,29
-19,-9,9,14,-14,0,-39,-87,-19,43,48,29
-19,-9,9,14,-14,0,-39,-87,-14,43,48,29
-9,-4,4,7,-7,0,-39,-87,-14,43,48,29
-4,4,9,0,-7,7,-29,-87,-14,39,48,34
9,9,0,-9,4,4,-29,-78,-19,48,48,29
9,14,4,-12,2,9,-29,-78,-9,58,58,39
9,19,9,-14,0,14,-29,-78,0,58,58,39
9,24,14,-17,-2,19,-29,-78,9,58,58,39
9,29,19,-19,-4,24,-29,-78,19,58,58,39
9,39,29,-24,-9,34,-29,-73,43,73,78,53
14,48,34,-31,-9,41,-19,-58,53,82,92,68
24,58,34,-41,-4,46,-19,-48,63,92,97,73
29,58,29,-43,0,43,-19,-34,68,107,107,82
39,68,29,-53,4,48,-29,-19,68,102,107,87
39,68,29,-53,4,48,-29,-19,78,112,112,92
43,68,24,-56,9,46,-24,-14,78,117,112,92
43,68,24,-56,9,46,-24,-14,78,117,112,92
58,73,14,-65,21,43,-34,-14,78,117,126,92
68,73,4,-70,31,39,-48,-9,73,117,126,102
73,73,0,-73,36,36,-58,-9,73,117,126,102
78,63,-14,-70,46,24,-68,-9,63,117,126,107
78,48,-29,-63,53,9,-73,-19,53,107,126,102
82,39,-43,-61,63,-2,-78,-29,48,97,122,97
82,34,-48,-58,65,-7,-92,-29,29,92,107,92
82,39,-43,-61,63,-2,-112,-48,14,92,102,87
73,58,-14,-65,43,21,-122,-78,9,82,107,92
68,97,29,-82,19,63,-141,-102,9,87,107,97
68,122,53,-95,7,87,-156,-126,14,87,107,107
68,131,63,-100,2,97,-161,-131,14,92,102,107
78,131,53,-104,12,92,-151,-131,19,102,107,117
78,126,48,-102,14,87,-146,-131,14,97,112,117
68,122,53,-95,7,87,-136,-131,9,92,112,107
58,107,48,-82,4,78,-131,-131,9,87,107,107
58,97,39,-78,9,68,-131,-126,-4,82,97,97
43,92,48,-68,-2,70,-131,-131,-9,78,97,97
43,97,53,-70,-4,75,-126,-131,-9,78,102,102
53,102,48,-78,2,75,-126,-126,-4,92,112,107
63,97,34,-80,14,65,-117,-107,4,92,112,107
63,87,24,-75,19,56,-112,-102,14,92,112,107
68,82,14,-75,26,48,-112,-102,14,92,112,107
68,68,0,-68,34,34,-112,-102,0,92,112,102
78,58,-19,-68,48,19,-112,-107,-9,82,102,107
73,43,-29,-58,51,7,-112,-117,-29,73,97,92
73,43,-29,-58,51,7,-112,-117,-29,73,97,92
73,53,-19,-63,46,17,-107,-117,-29,73,97,97
58,68,9,-63,24,39,-117,-126,-29,78,92,97
53,68,14,-61,19,41,-112,-122,-24,73,92,92
43,68,24,-56,9,46,-112,-122,-24,68,92,87
39,63,24,-51,7,43,-112,-131,-34,48,82,73
43,53,9,-48,17,31,-97,-136,-39,48,78,78
39,43,4,-41,17,24,-92,-136,-39,43,68,73
24,43,19,-34,2,31,-87,-136,-43,43,63,68
19,29,9,-24,4,19,-78,-136,-43,39,58,58
0,-4,-4,2,2,-4,-48,-126,-34,48,63,53
-19,-14,4,17,-12,-4,-39,-126,-34,39,58,48
-34,-19,14,26,-24,-2,-39,-131,-34,34,53,43
-48,-34,14,41,-31,-9,-34,-131,-48,24,43,29
-48,-29,19,39,-34,-4,-43,-141,-63,9,29,19
-48,-34,14,41,-31,-9,-43,-141,-68,4,24,9
-53,-34,19,43,-36,-7,-43,-141,-73,-4,14,4
-53,-29,24,41,-39,-2,-48,-136,-78,-9,4,0
-43,-39,4,41,-24,-17,-53,-136,-68,0,14,9
-43,-39,4,41,-24,-17,-53,-136,-68,0,14,9
-39,-34,4,36,-21,-14,-53,-141,-68,0,14,9
-39,-34,4,36,-21,-14,-53,-141,-63,0,14,9
-39,-34,4,36,-21,-14,-48,-126,-58,4,19,9
-39,-34,4,36,-21,-14,-48,-126,-58,9,19,9
-39,-29,9,34,-24,-9,-48,-126,-58,9,19,9
-39,-29,9,34,-24,-9,-48,-126,-58,9,19,9
-39,-24,14,31,-26,-4,-48,-136,-58,9,14,14
-39,-24,14,31,-26,-4,-48,-131,-58,9,14,14
-39,-14,24,26,-31,4,-48,-131,-53,9,14,14
-39,-14,24,26,-31,4,-48,-131,-48,14,19,14
-48,-19,29,34,-39,4,-58,-122,-48,14,29,19
-48,-19,29,34,-39,4,-58,-122,-48,14,29,19
-48,-19,29,34,-39,4,-53,-122,-48,19,29,19
-48,-19,29,34,-39,4,-53,-117,-48,19,29,19
-39,-19,19,29,-29,0,-58,-126,-48,29,43,34
-34,-19,14,26,-24,-2,-58,-126,-43,29,43,34
-34,-19,14,26,-24,-2,-63,-122,-43,29,43,29
-34,-14,19,24,-26,2,-63,-122,-43,29,43,29
-34,-14,19,24,-26,2,-53,-122,-34,29,43,39
-34,-14,19,24,-26,2,-53,-122,-34,34,43,39
-34,-9,24,21,-29,7,-48,-122,-34,34,48,39
-34,-9,24,21,-29,7,-48,-122,-29,34,48,39
-43,-9,34,26,-39,12,-53,-122,-39,34,48,39
-43,-9,34,26,-39,12,-43,-131,-39,29,48,39
-43,-9,34,26,-39,12,-43,-122,-39,29,48,43
-34,-9,24,21,-29,7,-34,-122,-24,39,48,34
-43,-19,24,31,-34,2,-34,-122,-9,43,53,34
-58,-9,48,34,-53,19,-24,-112,4,58,63,39
-73,14,87,29,-80,51,-14,-112,34,73,68,48
-87,43,131,21,-109,87,-9,-112,82,107,87,63
-97,87,185,4,-141,136,-14,-82,151,146,112,73
-92,131,224,-19,-158,178,-4,-53,214,209,151,102
-87,165,253,-39,-170,209,0,-34,283,278,209,146
-78,209,287,-65,-183,248,-4,-9,361,370,292,209
-34,273,307,-119,-170,290,-24,19,473,502,419,307
24,380,356,-202,-165,368,-58,39,619,683,590,439
63,488,424,-275,-180,456,-112,19,756,858,761,575
117,580,463,-348,-173,522,-170,-14,839,1019,927,702
185,673,488,-429,-151,580,-244,-58,893,1190,1112,858
278,780,502,-529,-112,641,-346,-131,912,1361,1317,1024
385,902,517,-644,-65,710,-468,-229,927,1532,1522,1210
512,1054,541,-783,-14,797,-610,-341,961,1717,1737,1400
649,1234,585,-941,31,910,-785,-517,976,1883,1956,1605
790,1395,605,-1093,92,1000,-980,-702,936,2030,2152,1800
985,1566,580,-1276,202,1073,-1200,-839,873,2181,2361,2005
1210,1717,507,-1464,351,1112,-1454,-985,800,2313,2576,2210
1439,1834,395,-1637,522,1115,-1693,-1132,673,2371,2718,2361
1615,1883,268,-1749,673,1076,-1864,-1171,492,2303,2747,2425
1756,1859,102,-1808,827,980,-1976,-1180,234,2093,2630,2400
1869,1790,-78,-1830,973,856,-2059,-1195,-73,1771,2415,2313
1961,1664,-297,-1812,1129,683,-2117,-1195,-409,1381,2137,2166
1981,1415,-566,-1698,1273,424,-2078,-1166,-790,897,1761,1932
1854,1024,-829,-1439,1342,97,-1917,-1166,-1166,346,1298,1595
1590,688,-902,-1139,1246,-107,-1698,-1244,-1498,-180,790,1224
1263,453,-810,-858,1037,-178,-1493,-1376,-1776,-658,322,868
1000,268,-732,-634,866,-231,-1307,-1424,-1912,-980,-34,575
824,165,-658,-495,741,-246,-1151,-1371,-1849,-1058,-200,405
736,97,-639,-417,688,-270,-1039,-1244,-1683,-1010,-244,312
634,14,-619,-324,627,-302,-902,-1083,-1503,-941,-278,209
468,-63,-531,-202,500,-297,-727,-878,-1283,-844,-297,112
341,-92,-434,-124,387,-263,-561,-688,-1039,-702,-283,53
283,-63,-346,-109,314,-204,-424,-527,-810,-546,-224,43
200,-19,-219,-90,209,-119,-307,-380,-585,-390,-175,29
112,0,-112,-56,112,-56,-200,-244,-390,-283,-146,-9
43,-24,-68,-9,56,-46,-107,-151,-283,-214,-126,-39
24,-43,-68,9,46,-56,-53,-92,-219,-175,-131,-73
9,-53,-63,21,36,-58,-9,-39,-165,-146,-126,-82
9,-73,-82,31,46,-78,39,19,-122,-126,-122,-87
4,-97,-102,46,53,-100,78,63,-78,-107,-117,-107
4,-97,-102,46,53,-100,92,73,-58,-97,-122,-107
-4,-92,-87,48,41,-90,92,82,-48,-87,-112,-102
-14,-102,-87,58,36,-95,97,87,-43,-82,-107,-102
-29,-102,-73,65,21,-87,97,92,-34,-78,-102,-102
-39,-102,-63,70,12,-82,102,92,-24,-73,-97,-102
-39,-112,-73,75,17,-92,107,97,-24,-58,-92,-92
-43,-117,-73,80,14,-95,107,102,-19,-58,-92,-97
-48,-122,-73,85,12,-97,107,102,-14,-58,-92,-107
-48,-122,-73,85,12,-97,107,107,-4,-53,-92,-107
-48,-131,-82,90,17,-107,122,126,0,-43,-78,-102
-58,-131,-73,95,7,-102,126,126,9,-43,-78,-102
-58,-136,-78,97,9,-107,141,131,24,-34,-73,-97
-53,-146,-92,100,19,-119,146,141,34,-29,-68,-92
-53,-122,-68,87,7,-95,141,131,24,-34,-78,-97
-53,-112,-58,82,2,-85,146,136,24,-39,-82,-102
-53,-107,-53,80,0,-80,161,136,34,-43,-87,-107
-58,-112,-53,85,-2,-82,175,136,34,-39,-92,-112
-68,-117,-48,92,-9,-82,180,146,39,-39,-92,-117
-68,-122,-53,95,-7,-87,190,156,43,-39,-92,-117
-68,-126,-58,97,-4,-92,195,156,43,-34,-92,-117
-68,-131,-63,100,-2,-97,195,156,43,-29,-87,-117
-68,-122,-53,95,-7,-87,195,156,53,-29,-87,-117
-68,-122,-53,95,-7,-87,195,161,53,-29,-87,-117
-68,-122,-53,95,-7,-87,190,161,53,-29,-87,-117
-68,-122,-53,95,-7,-87,180,161,53,-29,-87,-117
-63,-112,-48,87,-7,-80,170,161,53,-39,-97,-117
-63,-117,-53,90,-4,-85,170,165,58,-39,-97,-117
-63,-117,-53,90,-4,-85,165,165,63,-34,-97,-117
-63,-117,-53,90,-4,-85,161,175,63,-34,-97,-117
-63,-126,-63,95,0,-95,156,185,63,-24,-87,-107
-63,-126,-63,95,0,-95,156,190,63,-24,-92,-112
-63,-122,-58,92,-2,-90,146,190,63,-29,-97,-112
-63,-122,-58,92,-2,-90,141,190,68,-29,-97,-112
-73,-122,-48,97,-12,-85,136,200,78,-34,-97,-122
-73,-122,-48,97,-12,-85,136,204,78,-34,-97,-122
-73,-122,-48,97,-12,-85,131,204,78,-34,-97,-122
-73,-122,-48,97,-12,-85,131,204,78,-34,-102,-126
-82,-131,-48,107,-17,-90,136,200,78,-34,-92,-126
-82,-131,-48,107,-17,-90,136,200,78,-34,-92,-126
-78,-131,-53,104,-12,-92,136,204,82,-34,-92,-126
-78,-131,-53,104,-12,-92,136,204,82,-34,-92,-126
-73,-141,-68,107,-2,-104,146,200,82,-24,-102,-136
-73,-136,-63,104,-4,-100,151,200,82,-24,-102,-131
-73,-136,-63,104,-4,-100,151,200,87,-29,-107,-131
-78,-141,-63,109,-7,-102,151,204,87,-29,-107,-136
-78,-141,-63,109,-7,-102,165,214,97,-24,-107,-126
-78,-141,-63,109,-7,-102,165,219,97,-24,-107,-126
-78,-146,-68,112,-4,-107,165,219,97,-29,-112,-126
-78,-151,-73,114,-2,-112,165,219,97,-29,-112,-126
-78,-141,-63,109,-7,-102,165,234,92,-39,-112,-126
-78,-136,-58,107,-9,-97,165,234,92,-39,-112,-126
-78,-136,-58,107,-9,-97,165,239,97,-39,-112,-126
-78,-136,-58,107,-9,-97,161,239,97,-39,-112,-126
-78,-156,-78,117,0,-117,156,244,97,-29,-102,-126
-78,-146,-68,112,-4,-107,146,244,97,-29,-107,-131
-78,-146,-68,112,-4,-107,146,244,97,-29,-107,-131
-78,-146,-68,112,-4,-107,141,244,97,-29,-107,-126
-68,-151,-82,109,7,-117,131,239,102,-34,-117,-136
-68,-136,-68,102,0,-102,126,244,102,-34,-126,-141
-68,-131,-63,100,-2,-97,122,244,102,-34,-126,-141
-68,-126,-58,97,-4,-92,122,248,102,-34,-122,-141
-68,-141,-73,104,2,-107,126,263,102,-34,-122,-141
-73,-141,-68,107,-2,-104,126,263,102,-34,-122,-141
-78,-141,-63,109,-7,-102,126,263,102,-39,-126,-146
-78,-146,-68,112,-4,-107,131,273,102,-39,-131,-146
-78,-146,-68,112,-4,-107,126,268,102,-48,-141,-146
-78,-151,-73,114,-2,-112,126,268,102,-48,-141,-151
-82,-151,-68,117,-7,-109,126,278,102,-48,-141,-151
-82,-151,-68,117,-7,-109,131,278,107,-48,-146,-151
-82,-141,-58,112,-12,-100,122,287,117,-48,-136,-151
-78,-141,-63,109,-7,-102,131,292,117,-48,-141,-151
-78,-141,-63,109,-7,-102,136,292,117,-43,-141,-156
-82,-146,-63,114,-9,-104,141,307,122,-43,-141,-156
-92,-136,-43,114,-24,-90,146,302,112,-63,-151,-170
-92,-136,-43,114,-24,-90,151,302,112,-63,-151,-175
-92,-136,-43,114,-24,-90,156,302,112,-63,-151,-180
-97,-141,-43,119,-26,-92,161,307,117,-63,-151,-185
-107,-146,-39,126,-34,-92,161,317,117,-53,-161,-175
-107,-151,-43,129,-31,-97,165,326,117,-58,-161,-180
-107,-165,-58,136,-24,-112,170,336,117,-58,-165,-180
-107,-170,-63,139,-21,-117,180,341,122,-58,-165,-185
-97,-161,-63,129,-17,-112,185,351,122,-68,-170,-190
-102,-161,-58,131,-21,-109,190,351,122,-73,-175,-195
-102,-161,-58,131,-21,-109,200,351,122,-78,-190,-200
-107,-165,-58,136,-24,-112,204,361,117,-82,-195,-209
-122,-165,-43,143,-39,-104,224,366,107,-87,-195,-219
-126,-165,-39,146,-43,-102,229,370,112,-92,-200,-224
-131,-161,-29,146,-51,-95,234,375,112,-97,-214,-229
-136,-161,-24,148,-56,-92,244,380,112,-102,-214,-239
-131,-175,-43,153,-43,-109,258,395,122,-102,-214,-239
-131,-180,-48,156,-41,-114,263,400,122,-117,-224,-253
-136,-190,-53,163,-41,-122,273,405,122,-117,-234,-263
-141,-204,-63,173,-39,-134,283,409,122,-122,-239,-268
-156,-204,-48,180,-53,-126,292,414,122,-122,-253,-273
-165,-204,-39,185,-63,-122,297,419,122,-131,-268,-283
-175,-204,-29,190,-73,-117,302,424,122,-136,-273,-297
-185,-214,-29,200,-78,-122,312,424,122,-146,-283,-307
-185,-229,-43,207,-70,-136,317,424,112,-161,-283,-312
-185,-234,-48,209,-68,-141,322,434,107,-175,-297,-322
-195,-239,-43,217,-75,-141,322,439,102,-185,-312,-331
-204,-239,-34,222,-85,-136,322,444,102,-195,-322,-351
-204,-234,-29,219,-87,-131,326,448,102,-209,-331,-346
-204,-239,-34,222,-85,-136,331,453,102,-224,-346,-356
-219,-244,-24,231,-97,-134,341,453,97,-229,-356,-366
-229,-258,-29,244,-100,-143,346,453,92,-234,-366,-375
-239,-268,-29,253,-104,-148,356,453,87,-263,-390,-400
-253,-268,-14,261,-119,-141,356,453,82,-278,-405,-409
-258,-273,-14,265,-122,-143,366,453,82,-287,-419,-414
-268,-278,-9,273,-129,-143,370,453,78,-292,-429,-429
-278,-292,-14,285,-131,-153,385,453,73,-307,-444,-429
-283,-292,-9,287,-136,-151,385,453,68,-307,-453,-439
-292,-302,-9,297,-141,-156,390,453,68,-312,-448,-444
-302,-317,-14,309,-143,-165,395,453,63,-322,-458,-453
-307,-307,0,307,-153,-153,405,448,58,-336,-468,-463
-307,-307,0,307,-153,-153,405,444,53,-351,-488,-468
-317,-312,4,314,-161,-153,405,439,48,-356,-492,-478
-326,-312,14,319,-170,-148,405,429,43,-366,-502,-483
-326,-312,14,319,-170,-148,414,414,39,-385,-512,-492
-331,-312,19,322,-175,-146,414,409,34,-395,-522,-497
-331,-317,14,324,-173,-151,409,400,29,-400,-531,-507
-331,-317,14,324,-173,-151,405,395,24,-400,-541,-507
-336,-317,19,326,-178,-148,414,390,24,-414,-546,-507
-336,-312,24,324,-180,-143,409,380,14,-424,-551,-507
-336,-302,34,319,-185,-134,405,375,4,-429,-561,-507
-331,-297,34,314,-183,-131,400,356,4,-429,-561,-507
-341,-297,43,319,-192,-126,390,341,-19,-429,-556,-507
-341,-297,43,319,-192,-126,385,331,-19,-429,-556,-502
-336,-292,43,314,-190,-124,370,317,-24,-424,-546,-492
-331,-283,48,307,-190,-117,361,302,-29,-414,-541,-483
-322,-273,48,297,-185,-112,346,287,-24,-414,-531,-478
-317,-258,58,287,-187,-100,336,273,-29,-405,-517,-463
-302,-248,53,275,-178,-97,326,258,-29,-395,-507,-453
-297,-234,63,265,-180,-85,317,244,-34,-385,-492,-439
-278,-229,48,253,-163,-90,292,224,-34,-375,-478,-429
-273,-229,43,251,-158,-92,278,214,-34,-366,-458,-409
-253,-224,29,239,-141,-97,263,200,-34,-341,-439,-390
-244,-200,43,222,-143,-78,248,185,-34,-326,-424,-366
-234,-175,58,204,-146,-58,229,161,-43,-322,-409,-351
-224,-161,63,192,-143,-48,209,146,-43,-297,-385,-336
-204,-151,53,178,-129,-48,195,131,-43,-283,-366,-317
-195,-141,53,168,-124,-43,170,117,-43,-268,-346,-297
-195,-122,73,158,-134,-24,141,107,-39,-253,-326,-283
-175,-112,63,143,-119,-24,126,97,-34,-239,-302,-263
-165,-102,63,134,-114,-19,112,82,-34,-219,-273,-244
-156,-92,63,124,-109,-14,102,78,-29,-200,-258,-224
-141,-92,48,117,-95,-21,87,68,-24,-185,-234,-190
-131,-78,53,104,-92,-12,73,58,-24,-170,-214,-175
-122,-68,53,95,-87,-7,58,48,-24,-156,-195,-161
-112,-63,48,87,-80,-7,43,39,-19,-141,-180,-146
-97,-43,53,70,-75,4,19,24,-24,-126,-161,-141
-82,-43,39,63,-61,-2,9,9,-24,-112,-141,-126
-78,-39,39,58,-58,0,0,0,-19,-97,-126,-107
-63,-34,29,48,-46,-2,-14,-14,-19,-87,-112,-92
-68,-24,43,46,-56,9,-24,-24,-9,-68,-97,-78
-63,-19,43,41,-53,12,-24,-29,-9,-63,-82,-63
-53,-14,39,34,-46,12,-29,-29,-9,-53,-68,-48
-48,-9,39,29,-43,14,-34,-34,-9,-43,-58,-43
-34,0,34,17,-34,17,-34,-34,-9,-34,-43,-43
-29,9,39,9,-34,24,-34,-34,-4,-24,-34,-34
-24,14,39,4,-31,26,-34,-43,-4,-24,-29,-29
-24,14,39,4,-31,26,-34,-48,-4,-14,-19,-24
-19,9,29,4,-24,19,-24,-53,-4,0,-14,-9
-14,9,24,2,-19,17,-24,-53,-4,4,-9,0
-14,4,19,4,-17,12,-24,-53,-4,9,0,9
-14,4,19,4,-17,12,-24,-53,-4,14,4,9
-9,14,24,-2,-17,19,-34,-53,-4,9,9,0
-9,14,24,-2,-17,19,-34,-63,-4,9,14,0
-9,4,14,2,-12,9,-34,-63,0,9,14,9
-9,4,14,2,-12,9,-34,-58,0,9,14,14
-9,4,14,2,-12,9,-43,-68,0,24,24,14
-9,0,9,4,-9,4,-43,-68,0,24,24,14
-9,0,9,4,-9,4,-43,-68,-4,24,24,14
-9,4,14,2,-12,9,-43,-68,-4,24,24,14
0,14,14,-7,-7,14,-34,-68,-4,24,24,14
4,14,9,-9,-2,12,-34,-68,-14,19,19,9
4,14,9,-9,-2,12,-34,-68,-4,19,19,9
0,9,9,-4,-4,9,-24,-68,-4,24,24,9
0,9,9,-4,-4,9,-24,-58,-4,24,24,9
0,19,19,-9,-9,19,-24,-58,-4,24,24,4
0,24,24,-12,-12,24,-24,-58,0,24,19,0
4,24,19,-14,-7,21,-24,-58,0,24,19,0
-4,9,14,-2,-9,12,-19,-68,9,24,9,-4
-9,4,14,2,-12,9,-4,-68,9,19,9,-4
-9,4,14,2,-12,9,0,-68,9,19,9,-9
-9,9,19,0,-14,14,4,-63,9,19,4,-14
-9,9,19,0,-14,14,14,-53,0,19,9,-9
-14,9,24,2,-19,17,19,-53,0,19,14,-4
-14,0,14,7,-14,7,19,-53,-4,19,19,4
-14,0,14,7,-14,7,19,-53,-4,19,24,9
-9,0,9,4,-9,4,19,-53,0,19,24,9
-9,0,9,4,-9,4,19,-48,0,19,24,0
-9,0,9,4,-9,4,19,-48,0,14,14,0
-9,0,9,4,-9,4,19,-48,-4,14,14,0
-9,-4,4,7,-7,0,19,-48,-4,14,0,-9
-9,-4,4,7,-7,0,19,-48,-4,14,0,-9
-9,-4,4,7,-7,0,9,-48,-4,9,0,-9
-9,-4,4,7,-7,0,9,-48,-4,9,0,-9
-19,-19,0,19,-9,-9,14,-58,9,9,0,-9
-19,-19,0,19,-9,-9,14,-58,9,9,0,-9
-19,-19,0,19,-9,-9,9,-58,9,9,0,-9
-19,-19,0,19,-9,-9,9,-58,9,9,-4,-9
-24,-29,-4,26,-9,-17,19,-48,9,9,4,-9
-24,-29,-4,26,-9,-17,19,-48,9,9,4,-9
-24,-24,0,24,-12,-12,19,-48,4,9,4,-14
-24,-24,0,24,-12,-12,19,-48,4,9,4,-14
-24,-24,0,24,-12,-12,29,-53,4,4,-4,-14
-24,-19,4,21,-14,-7,29,-53,0,4,-9,-14
-24,-19,4,21,-14,-7,29,-48,0,4,-9,-14
-24,-14,9,19,-17,-2,29,-48,4,4,-9,-14
-24,-14,9,19,-17,-2,39,-48,4,4,0,-14
-24,-19,4,21,-14,-7,39,-48,4,4,0,-14
-24,-24,0,24,-12,-12,39,-48,4,4,0,-14
-24,-29,-4,26,-9,-17,39,-53,4,4,0,-14
-14,-34,-19,24,2,-26,29,-53,-4,4,-9,-9
-19,-34,-14,26,-2,-24,29,-53,-4,9,-9,-9
-19,-34,-14,26,-2,-24,29,-53,-4,9,-9,-14
-19,-29,-9,24,-4,-19,29,-53,-9,4,-9,-14
-19,-19,0,19,-9,-9,29,-58,0,4,-19,-14
-19,-19,0,19,-9,-9,29,-58,0,4,-19,-14
-19,-19,0,19,-9,-9,29,-58,0,4,-19,-14
-14,-19,-4,17,-4,-12,29,-58,4,4,-19,-9
-24,-9,14,17,-19,2,19,-58,-4,-4,-9,-19
-24,-14,9,19,-17,-2,19,-63,-9,-4,-9,-19
-24,-14,9,19,-17,-2,9,-68,-19,-4,-9,-29
-24,-9,14,17,-19,2,9,-68,-19,-4,-9,-29
-14,-14,0,14,-7,-7,4,-58,-14,-4,-9,-14
-24,-19,4,21,-14,-7,4,-53,-14,-4,-9,-14
-14,-24,-9,19,-2,-17,4,-53,-14,-4,-9,-14
-14,-29,-14,21,0,-21,4,-58,-19,-4,-9,-14
-14,-29,-14,21,0,-21,-4,-68,-9,4,-4,-14
-14,-24,-9,19,-2,-17,-9,-68,-9,4,-4,-14
-19,-19,0,19,-9,-9,-9,-68,-9,4,-4,-14
-19,-14,4,17,-12,-4,-9,-73,-9,4,-4,-14
-29,-24,4,26,-17,-9,0,-73,-14,4,4,-14
-29,-24,4,26,-17,-9,0,-73,-14,9,4,-9
-29,-24,4,26,-17,-9,0,-78,-19,9,4,-9
-29,-14,14,21,-21,0,0,-82,-19,9,4,-9
-29,-14,14,21,-21,0,0,-92,-19,9,0,-9
-24,-14,9,19,-17,-2,0,-87,-19,9,0,-9
-24,-14,9,19,-17,-2,0,-87,-24,9,0,-9
-24,-14,9,19,-17,-2,0,-87,-24,9,0,-9
-24,-4,19,14,-21,7,9,-87,-24,9,0,-9
-24,-4,19,14,-21,7,9,-87,-24,9,0,-4
-24,-4,19,14,-21,7,4,-92,-24,9,0,-4
-24,-4,19,14,-21,7,0,-92,-29,9,0,-4
-29,-14,14,21,-21,0,9,-82,-29,9,14,9
-29,-19,9,24,-19,-4,9,-82,-29,9,14,9
-29,-19,9,24,-19,-4,4,-82,-24,9,14,9
-29,-14,14,21,-21,0,0,-82,-24,14,14,9
-29,-24,4,26,-17,-9,9,-78,-24,14,14,9
-29,-24,4,26,-17,-9,14,-78,-24,9,14,9
-24,-19,4,21,-14,-7,14,-78,-24,9,14,9
-24,-19,4,21,-14,-7,14,-78,-29,9,14,9
-19,-34,-14,26,-2,-24,19,-78,-24,19,9,0
-19,-34,-14,26,-2,-24,14,-78,-24,19,9,4
-29,-34,-4,31,-12,-19,14,-82,-24,19,9,4
-29,-34,-4,31,-12,-19,19,-87,-19,19,9,4
-19,-24,-4,21,-7,-14,9,-87,-29,14,0,-4
-19,-14,4,17,-12,-4,9,-82,-29,9,0,-4
-19,-4,14,12,-17,4,9,-82,-29,4,0,-4
-19,4,24,7,-21,14,9,-82,-29,4,0,-4
-19,4,24,7,-21,14,0,-92,-34,14,9,4
-19,0,19,9,-19,9,0,-97,-34,14,9,4
-19,-4,14,12,-17,4,0,-97,-34,14,9,4
-19,-9,9,14,-14,0,0,-97,-34,14,14,4
-19,-9,9,14,-14,0,0,-97,-24,14,14,-4
-24,-4,19,14,-21,7,0,-102,-24,9,14,-4
-29,-4,24,17,-26,9,0,-107,-29,9,14,-4
-34,0,34,17,-34,17,0,-107,-29,14,14,-4
-34,-9,24,21,-29,7,9,-102,-34,14,24,0
-29,-9,19,19,-24,4,9,-102,-34,14,24,4
-24,-9,14,17,-19,2,9,-102,-34,14,24,4
-14,-9,4,12,-9,-2,9,-102,-34,14,24,0
-14,-9,4,12,-9,-2,9,-102,-34,4,19,9
-14,-9,4,12,-9,-2,9,-102,-34,9,19,9
-14,-9,4,12,-9,-2,9,-102,-29,9,19,14
-14,-9,4,12,-9,-2,9,-102,-29,9,19,14
-24,-9,14,17,-19,2,9,-102,-29,19,24,4
-24,-9,14,17,-19,2,9,-102,-29,24,24,9
-19,0,19,9,-19,9,9,-97,-29,24,29,9
-19,0,19,9,-19,9,9,-97,-24,24,29,9
-9,4,14,2,-12,9,19,-87,-24,14,19,9
-14,4,19,4,-17,12,19,-87,-24,19,9,4
-4,24,29,-9,-17,26,29,-82,-19,14,4,4
9,29,19,-19,-4,24,19,-78,-9,19,9,9
19,39,19,-29,0,29,19,-68,-4,24,24,14
19,39,19,-29,0,29,19,-68,0,29,29,19
19,39,19,-29,0,29,19,-68,4,34,34,24
19,39,19,-29,0,29,19,-68,9,39,39,29
19,58,39,-39,-9,48,29,-68,34,58,53,39
24,68,43,-46,-9,56,39,-58,43,63,63,48
34,78,43,-56,-4,61,39,-53,53,68,63,48
39,78,39,-58,0,58,39,-43,58,78,68,53
48,87,39,-68,4,63,48,-29,68,82,78,58
48,87,39,-68,4,63,48,-29,78,92,82,63
53,87,34,-70,9,61,53,-24,78,97,82,63
53,87,34,-70,9,61,53,-24,78,97,82,63
68,102,34,-85,17,68,34,-34,68,87,78,53
78,102,24,-90,26,63,19,-29,63,87,78,63
82,102,19,-92,31,61,9,-29,63,87,78,63
87,92,4,-90,41,48,0,-29,53,87,78,68
87,73,-14,-80,51,29,-4,-19,53,97,92,78
92,58,-34,-75,63,12,-9,-29,48,87,92,78
92,48,-43,-70,68,2,-24,-29,29,82,82,78
92,48,-43,-70,68,2,-43,-48,14,82,82,78
82,78,-4,-80,43,36,-53,-82,0,73,82,82
78,117,39,-97,19,78,-73,-102,0,78,87,87
78,141,63,-109,7,102,-87,-122,4,78,92,97
78,151,73,-114,2,112,-92,-122,4,82,92,97
78,136,58,-107,9,97,-82,-122,9,82,102,97
78,126,48,-102,14,87,-78,-122,4,78,102,97
68,117,48,-92,9,82,-68,-122,0,73,97,87
58,97,39,-78,9,68,-63,-122,0,68,87,87
63,92,29,-78,17,61,-63,-117,-4,58,87,78
53,92,39,-73,7,65,-63,-122,-9,58,87,78
58,102,43,-80,7,73,-58,-122,-9,63,92,82
73,112,39,-92,17,75,-58,-117,-4,82,102,87
73,102,29,-87,21,65,-58,-107,-4,73,102,87
73,97,24,-85,24,61,-53,-102,4,73,102,87
78,97,19,-87,29,58,-53,-102,4,73,102,87
78,87,9,-82,34,48,-53,-102,-9,73,102,82
87,78,-9,-82,48,34,-63,-107,-9,63,82,87
82,63,-19,-73,51,21,-63,-117,-29,53,78,73
82,63,-19,-73,51,21,-63,-117,-29,53,78,73
82,73,-9,-78,46,31,-58,-117,-29,53,78,78
68,78,9,-73,29,43,-48,-126,-29,53,73,73
63,78,14,-70,24,46,-43,-122,-24,53,73,73
53,78,24,-65,14,51,-43,-122,-24,53,73,73
48,73,24,-61,12,48,-43,-131,-34,39,63,63
43,53,9,-48,17,31,-48,-136,-48,19,48,58
39,43,4,-41,17,24,-43,-136,-48,14,39,53
24,43,19,-34,2,31,-39,-136,-53,14,34,48
19,29,9,-24,4,19,-29,-136,-53,9,29,39
-4,19,24,-7,-14,21,-4,-136,-43,19,24,34
-19,14,34,2,-26,24,9,-136,-43,9,19,29
-29,14,43,7,-36,29,14,-141,-43,4,14,24
-39,4,43,17,-41,24,24,-141,-58,-4,4,9
-29,-4,24,17,-26,9,29,-131,-68,-14,4,4
-29,-14,14,21,-21,0,34,-131,-68,-14,4,0
-34,-19,14,26,-24,-2,39,-131,-68,-19,0,0
-34,-19,14,26,-24,-2,39,-126,-68,-19,-4,0
-34,-29,4,31,-19,-12,43,-136,-78,-29,-4,0
-34,-29,4,31,-19,-12,43,-136,-78,-29,-4,0
-29,-24,4,26,-17,-9,43,-141,-78,-29,-4,0
-29,-24,4,26,-17,-9,43,-141,-73,-29,-4,0
-39,-24,14,31,-26,-4,39,-136,-68,-24,0,0
-39,-24,14,31,-26,-4,39,-136,-68,-19,0,0
-39,-19,19,29,-29,0,39,-136,-68,-19,0,0
-39,-19,19,29,-29,0,39,-136,-68,-19,0,0
-39,-14,24,26,-31,4,29,-136,-58,-19,-4,-4
-39,-14,24,26,-31,4,29,-131,-58,-19,-4,-4
-39,-4,34,21,-36,14,29,-131,-53,-19,-4,-4
-39,-4,34,21,-36,14,29,-131,-48,-14,0,-4
-29,-19,9,24,-19,-4,39,-126,-48,-4,4,4
-29,-19,9,24,-19,-4,39,-122,-48,-4,9,9
-29,-19,9,24,-19,-4,43,-117,-48,0,14,14
-29,-19,9,24,-19,-4,43,-107,-48,0,19,19
-39,-19,19,29,-29,0,48,-117,-48,-9,9,19
-34,-19,14,26,-24,-2,48,-117,-43,-9,4,14
-34,-19,14,26,-24,-2,43,-112,-43,-9,0,4
-34,-14,19,24,-26,2,43,-112,-43,-9,-4,0
-34,-4,29,19,-31,12,34,-112,-43,0,0,0
-34,-4,29,19,-31,12,34,-112,-43,4,4,0
-34,0,34,17,-34,17,39,-112,-43,4,14,0
-34,0,34,17,-34,17,39,-112,-39,4,19,0
-24,-9,14,17,-19,2,53,-112,-39,14,19,9
-34,-9,24,21,-29,7,63,-122,-39,0,19,9
-34,-9,24,21,-29,7,63,-122,-39,-9,9,14
-34,-9,24,21,-29,7,63,-112,-34,-9,9,14
-43,0,43,21,-43,21,63,-102,-29,4,24,14
-48,9,58,19,-53,34,73,-102,-14,19,34,29
-63,24,87,19,-75,56,82,-102,24,34,39,29
-78,63,141,7,-109,102,87,-102,73,68,48,43
-87,97,185,-4,-136,141,92,-73,131,117,82,53
-82,131,214,-24,-148,173,92,-43,204,170,122,73
-68,156,224,-43,-146,190,97,-14,263,229,170,107
-68,200,268,-65,-168,234,92,0,331,322,253,170
-34,273,307,-119,-170,290,73,29,444,473,370,268
34,370,336,-202,-151,353,19,48,580,644,531,400
73,468,395,-270,-161,431,-24,39,727,819,722,536
107,551,444,-329,-168,497,-73,4,829,980,888,673
175,644,468,-409,-146,556,-146,-29,873,1132,1054,810
258,761,502,-509,-122,631,-248,-112,902,1302,1249,966
366,893,527,-629,-80,710,-370,-200,927,1483,1454,1151
492,1044,551,-768,-29,797,-502,-302,971,1668,1678,1351
639,1195,556,-917,41,875,-668,-458,995,1854,1908,1546
780,1366,585,-1073,97,976,-854,-653,966,2000,2113,1751
946,1546,600,-1246,173,1073,-1073,-800,912,2152,2322,1956
1171,1717,546,-1444,312,1132,-1327,-936,849,2283,2527,2161
1400,1834,434,-1617,483,1134,-1586,-1102,741,2361,2698,2332
1586,1893,307,-1739,639,1100,-1776,-1190,570,2313,2727,2415
1737,1898,161,-1817,788,1029,-1898,-1200,312,2122,2630,2400
1830,1849,19,-1839,905,934,-1991,-1234,14,1810,2435,2313
1912,1732,-180,-1822,1046,775,-2059,-1254,-331,1420,2176,2186
1961,1483,-478,-1722,1220,502,-2039,-1215,-732,956,1810,1971
1864,1093,-771,-1478,1317,161,-1888,-1195,-1127,414,1356,1644
1600,746,-854,-1173,1227,-53,-1659,-1263,-1459,-131,849,1273
1273,522,-751,-897,1012,-114,-1454,-1385,-1747,-639,370,917
990,346,-644,-668,817,-148,-1268,-1454,-1912,-990,-14,605
814,214,-600,-514,707,-192,-1112,-1410,-1878,-1098,-219,405
707,126,-580,-417,644,-226,-980,-1283,-1732,-1068,-283,302
605,34,-570,-319,588,-268,-854,-1122,-1551,-1000,-317,200
458,-43,-502,-207,480,-273,-678,-927,-1332,-902,-326,102
341,-82,-424,-129,383,-253,-512,-717,-1088,-761,-302,43
283,-53,-336,-114,309,-195,-385,-546,-849,-595,-253,34
209,-19,-229,-95,219,-124,-258,-380,-614,-429,-185,29
112,9,-102,-61,107,-46,-131,-253,-409,-312,-156,-9
53,4,-48,-29,51,-21,-58,-161,-302,-253,-156,-58
34,-14,-48,-9,41,-31,4,-92,-239,-234,-161,-92
9,-43,-53,17,31,-48,68,-29,-185,-195,-156,-102
0,-73,-73,36,36,-73,107,29,-131,-165,-141,-107
4,-97,-102,46,53,-100,136,73,-97,-126,-126,-117
-14,-117,-102,65,43,-109,161,102,-58,-107,-112,-117
-19,-117,-97,68,39,-107,161,102,-58,-107,-117,-112
-24,-122,-97,73,36,-109,165,107,-53,-102,-117,-112
-34,-117,-82,75,24,-100,165,112,-43,-97,-117,-112
-39,-112,-73,75,17,-92,170,112,-34,-92,-117,-112
-39,-126,-87,82,24,-107,175,107,-24,-87,-112,-112
-43,-126,-82,85,19,-104,175,112,-19,-87,-112,-117
-48,-126,-78,87,14,-102,175,112,-14,-87,-112,-126
-48,-122,-73,85,12,-97,175,117,-4,-82,-112,-126
-48,-122,-73,85,12,-97,170,136,-4,-82,-112,-136
