I,II,III,aVR,aVL,aVF,V1,V2,V3,V4,V5,V6,
0,29,29,-14,-14,29,-19,-39,-39,-9,9,0
-4,19,24,-7,-14,21,-19,-43,-53,-24,-4,-4
-9,9,19,0,-14,14,-19,-48,-68,-39,-19,-9
-14,9,24,2,-19,17,-19,-58,-73,-43,-29,-14
-19,9,29,4,-24,19,-19,-68,-78,-48,-39,-19
-24,4,29,9,-26,17,-19,-68,-87,-58,-43,-24
-29,0,29,14,-29,14,-19,-68,-97,-68,-48,-29
-29,-4,24,17,-26,9,-19,-68,-97,-68,-48,-29
-29,-9,19,19,-24,4,-19,-68,-97,-68,-48,-29
-29,-9,19,19,-24,4,-19,-73,-102,-68,-48,-29
-29,-9,19,19,-24,4,-19,-78,-107,-68,-48,-29
-34,-9,24,21,-29,7,-14,-78,-107,-68,-48,-34
-39,-9,29,24,-34,9,-9,-78,-107,-68,-48,-39
-39,-9,29,24,-34,9,-9,-73,-102,-73,-53,-39
-39,-9,29,24,-34,9,-9,-68,-97,-78,-58,-39
-43,-14,29,29,-36,7,-4,-68,-97,-78,-58,-39
-48,-19,29,34,-39,4,0,-68,-97,-78,-58,-39
-48,-19,29,34,-39,4,0,-68,-97,-73,-58,-39
-48,-19,29,34,-39,4,0,-68,-97,-68,-58,-39
-48,-24,24,36,-36,0,0,-63,-92,-68,-58,-39
-48,-29,19,39,-34,-4,0,-58,-87,-68,-58,-39
-48,-29,19,39,-34,-4,0,-58,-87,-68,-53,-39
-48,-29,19,39,-34,-4,0,-58,-87,-68,-48,-39
-53,-24,29,39,-41,2,0,-58,-87,-68,-48,-43
-58,-19,39,39,-48,9,0,-58,-87,-68,-48,-48
-58,-19,39,39,-48,9,4,-58,-82,-68,-48,-48
-58,-19,39,39,-48,9,9,-58,-78,-68,-48,-48
-58,-19,39,39,-48,9,9,-53,-78,-63,-48,-48
-58,-19,39,39,-48,9,9,-48,-78,-58,-48,-48
-58,-19,39,39,-48,9,9,-48,-78,-58,-48,-48
-58,-19,39,39,-48,9,9,-48,-78,-58,-48,-48
-58,-19,39,39,-48,9,9,-48,-78,-58,-48,-43
-58,-19,39,39,-48,9,9,-48,-78,-58,-48,-39
-63,-19,43,41,-53,12,9,-48,-78,-58,-48,-39
-68,-19,48,43,-58,14,9,-48,-78,-58,-48,-39
-68,-24,43,46,-56,9,9,-58,-82,-63,-48,-43
-68,-29,39,48,-53,4,9,-68,-87,-68,-48,-48
-63,-29,34,46,-48,2,4,-68,-87,-68,-48,-48
-58,-29,29,43,-43,0,0,-68,-87,-68,-48,-48
-58,-29,29,43,-43,0,0,-68,-87,-68,-48,-48
-58,-29,29,43,-43,0,0,-68,-87,-68,-48,-48
-58,-34,24,46,-41,-4,0,-68,-87,-68,-48,-48
-58,-39,19,48,-39,-9,0,-68,-87,-68,-48,-48
-58,-39,19,48,-39,-9,0,-68,-92,-68,-58,-48
-58,-39,19,48,-39,-9,0,-68,-97,-68,-68,-48
-58,-39,19,48,-39,-9,-4,-78,-102,-73,-68,-53
-58,-39,19,48,-39,-9,-9,-87,-107,-78,-68,-58
-58,-39,19,48,-39,-9,-9,-87,-107,-78,-68,-58
-58,-39,19,48,-39,-9,-9,-87,-107,-78,-68,-58
-58,-39,19,48,-39,-9,-9,-87,-107,-78,-68,-58
-58,-39,19,48,-39,-9,-9,-87,-107,-78,-68,-58
-58,-39,19,48,-39,-9,-4,-87,-107,-78,-68,-58
-58,-39,19,48,-39,-9,0,-87,-107,-78,-68,-58
-63,-39,24,51,-43,-7,0,-87,-107,-82,-68,-58
-68,-39,29,53,-48,-4,0,-87,-107,-87,-68,-58
-68,-39,29,53,-48,-4,0,-87,-117,-87,-68,-53
-68,-39,29,53,-48,-4,0,-87,-126,-87,-68,-48
-68,-39,29,53,-48,-4,0,-87,-126,-87,-68,-48
-68,-39,29,53,-48,-4,0,-87,-126,-87,-68,-48
-63,-34,29,48,-46,-2,0,-87,-117,-87,-68,-48
-58,-29,29,43,-43,0,0,-87,-107,-87,-68,-48
-58,-29,29,43,-43,0,0,-82,-107,-82,-63,-48
-58,-29,29,43,-43,0,0,-78,-107,-78,-58,-48
-53,-24,29,39,-41,2,4,-68,-102,-73,-58,-43
-48,-19,29,34,-39,4,9,-58,-97,-68,-58,-39
-43,-19,24,31,-34,2,14,-53,-92,-68,-53,-39
-39,-19,19,29,-29,0,19,-48,-87,-68,-48,-39
-29,-14,14,21,-21,0,19,-43,-78,-58,-43,-39
-19,0,19,9,-19,9,29,-29,-63,-48,-39,-29
-9,9,19,0,-14,14,39,-19,-48,-39,-34,-24
4,29,24,-17,-9,26,39,-9,-39,-24,-24,-19
19,19,0,-19,9,9,39,-4,-34,-19,-14,-9
14,9,-4,-12,9,2,39,-4,-34,-19,-14,-9
14,-4,-19,-4,17,-12,29,-14,-43,-24,-19,-14
0,-24,-24,12,12,-24,-4,-53,-78,-53,-34,-29
0,-14,-14,7,7,-14,-19,-68,-97,-63,-43,-34
4,-4,-9,0,7,-7,-48,-82,-102,-73,-48,-34
4,-4,-9,0,7,-7,-78,-122,-122,-82,-53,-39
14,-14,-29,0,21,-21,-97,-141,-141,-92,-48,-39
29,-19,-48,-4,39,-34,-112,-156,-165,-117,-68,-48
29,-39,-68,4,48,-53,-112,-156,-175,-136,-78,-48
29,-48,-78,9,53,-63,-102,-151,-175,-126,-78,-48
34,-48,-82,7,58,-65,-82,-136,-151,-117,-73,-48
39,-48,-87,4,63,-68,-78,-131,-146,-102,-68,-43
53,-43,-97,-4,75,-70,-78,-136,-136,-92,-58,-39
63,-48,-112,-7,87,-80,-78,-131,-131,-82,-48,-24
63,-58,-122,-2,92,-90,-82,-131,-131,-82,-48,-14
58,-48,-107,-4,82,-78,-82,-126,-141,-92,-58,-29
29,-39,-68,4,48,-53,-78,-122,-141,-102,-68,-48
-9,-48,-39,29,14,-43,-58,-117,-141,-102,-73,-53
-48,-53,-4,51,-21,-29,-43,-117,-141,-112,-87,-63
-73,-53,19,63,-46,-17,-24,-112,-141,-112,-92,-73
-78,-58,19,68,-48,-19,-24,-112,-141,-112,-92,-73
-82,-63,19,73,-51,-21,-24,-112,-141,-117,-92,-73
-82,-68,14,75,-48,-26,-24,-112,-151,-122,-97,-78
-87,-68,19,78,-53,-24,-24,-117,-151,-122,-97,-78
-87,-63,24,75,-56,-19,-19,-117,-151,-122,-97,-78
-87,-58,29,73,-58,-14,-19,-112,-151,-122,-97,-78
-87,-58,29,73,-58,-14,-19,-112,-146,-122,-97,-78
-87,-58,29,73,-58,-14,-19,-112,-141,-117,-92,-73
-87,-58,29,73,-58,-14,-19,-107,-141,-117,-92,-73
-87,-53,34,70,-61,-9,-14,-107,-136,-107,-87,-68
-87,-48,39,68,-63,-4,-14,-107,-126,-92,-82,-63
-102,-39,63,70,-82,12,0,-97,-107,-82,-78,-58
-141,-34,107,87,-124,36,34,-53,-58,-58,-63,-53
-165,-19,146,92,-156,63,82,34,39,14,-24,-43
-170,9,180,80,-175,95,122,122,161,107,29,-19
-156,39,195,58,-175,117,175,219,292,224,102,9
-136,92,229,21,-183,161,229,292,395,336,195,63
-24,185,209,-80,-117,197,200,297,492,488,336,170
200,273,73,-236,63,173,29,161,473,634,507,317
507,361,-146,-434,326,107,-268,-170,307,746,702,488
819,512,-307,-666,563,102,-624,-610,156,917,956,722
980,639,-341,-810,661,148,-917,-1146,-180,834,1000,834
1054,468,-585,-761,819,-58,-1176,-1727,-844,214,610,658
1005,136,-868,-570,936,-366,-1366,-2205,-1629,-575,58,341
907,-170,-1078,-368,993,-624,-1498,-2498,-2308,-1273,-453,58
717,-390,-1107,-163,912,-749,-1493,-2576,-2654,-1659,-766,-136
488,-570,-1058,41,773,-814,-1351,-2454,-2679,-1839,-995,-317
361,-639,-1000,139,680,-819,-1127,-2127,-2396,-1747,-1015,-385
258,-541,-800,141,529,-671,-893,-1703,-1966,-1478,-873,-346
156,-395,-551,119,353,-473,-634,-1249,-1459,-1112,-668,-248
112,-244,-356,65,234,-300,-429,-863,-1034,-790,-468,-151
73,-185,-258,56,165,-222,-283,-595,-741,-585,-351,-107
24,-151,-175,63,100,-163,-175,-405,-561,-458,-297,-107
-24,-141,-117,82,46,-129,-97,-263,-414,-356,-244,-107
-78,-117,-39,97,-19,-78,-34,-156,-263,-244,-190,-107
-112,-82,29,97,-70,-26,14,-78,-161,-165,-146,-107
-107,-78,29,92,-68,-24,34,-34,-122,-141,-131,-102
-107,-78,29,92,-68,-24,43,-4,-97,-131,-122,-97
-117,-78,39,97,-78,-19,53,9,-73,-112,-107,-92
-126,-68,58,97,-92,-4,63,14,-48,-92,-102,-87
-131,-68,63,100,-97,-2,68,24,-34,-87,-97,-87
-131,-68,63,100,-97,-2,78,34,-34,-87,-97,-87
-131,-63,68,97,-100,2,78,48,-19,-73,-87,-87
-131,-63,68,97,-100,2,82,58,-9,-63,-82,-87
-131,-58,73,95,-102,7,87,58,0,-58,-87,-87
-131,-63,68,97,-100,2,87,73,4,-58,-87,-87
-131,-68,63,100,-97,-2,92,82,14,-53,-87,-87
-131,-68,63,100,-97,-2,97,87,24,-48,-78,-87
-131,-63,68,97,-100,2,97,92,29,-39,-73,-87
-131,-63,68,97,-100,2,102,102,39,-39,-68,-87
-131,-63,68,97,-100,2,102,112,39,-34,-68,-87
-131,-63,68,97,-100,2,107,117,58,-29,-68,-87
-131,-63,68,97,-100,2,112,122,63,-24,-63,-87
-126,-58,68,92,-97,4,112,126,68,-19,-58,-87
-122,-58,63,90,-92,2,112,131,73,-14,-58,-82
-122,-53,68,87,-95,7,117,136,87,-9,-58,-82
-122,-48,73,85,-97,12,112,146,97,-4,-58,-82
-122,-43,78,82,-100,17,117,156,107,0,-53,-82
-117,-34,82,75,-100,24,122,165,117,4,-48,-78
-122,-39,82,80,-102,21,131,180,131,14,-39,-68
-122,-39,82,80,-102,21,141,190,146,19,-34,-63
-122,-39,82,80,-102,21,146,209,151,29,-29,-63
-122,-39,82,80,-102,21,156,224,165,34,-24,-58
-117,-29,87,73,-102,29,161,244,185,48,-14,-53
-117,-24,92,70,-104,34,161,258,204,58,-9,-53
-117,-24,92,70,-104,34,175,278,224,63,-4,-48
-112,-9,102,61,-107,46,180,302,244,78,0,-48
-107,-9,97,58,-102,43,185,322,258,87,9,-39
-97,4,102,46,-100,53,195,351,292,102,19,-34
-92,9,102,41,-97,56,204,380,317,131,29,-29
-92,9,102,41,-97,56,214,409,346,156,43,-29
-87,14,102,36,-95,58,219,439,380,170,48,-14
-92,14,107,39,-100,61,234,478,419,190,68,-9
-82,24,107,29,-95,65,244,497,448,209,78,0
-78,39,117,19,-97,78,258,536,478,229,92,4
-58,48,107,4,-82,78,263,580,522,253,107,14
-39,63,102,-12,-70,82,268,610,566,278,126,24
-29,78,107,-24,-68,92,278,653,610,312,146,39
-24,112,136,-43,-80,124,287,692,644,346,165,53
-14,131,146,-58,-80,139,292,727,692,375,190,63
4,146,141,-75,-68,143,302,756,732,405,214,78
19,156,136,-87,-58,146,307,790,780,434,239,92
29,165,136,-97,-53,151,312,814,819,463,258,112
43,190,146,-117,-51,168,312,844,849,488,273,122
53,195,141,-124,-43,168,307,863,883,512,287,136
68,219,151,-143,-41,185,302,883,917,536,307,151
82,229,146,-156,-31,187,297,893,941,556,322,156
97,244,146,-170,-24,195,287,907,961,580,341,170
126,253,126,-190,0,190,283,907,980,600,356,185
131,268,136,-200,-2,202,273,907,985,610,370,204
141,278,136,-209,2,207,258,897,990,619,385,229
151,273,122,-212,14,197,253,873,990,629,390,229
165,273,107,-219,29,190,234,849,976,629,405,229
165,273,107,-219,29,190,219,810,936,619,405,234
161,273,112,-217,24,192,200,756,888,595,400,234
161,268,107,-214,26,187,170,697,829,575,390,229
151,253,102,-202,24,178,151,629,756,531,366,224
141,239,97,-190,21,168,131,556,688,492,346,219
131,219,87,-175,21,153,112,488,610,444,317,200
122,200,78,-161,21,139,92,424,522,395,287,175
112,175,63,-143,24,119,73,356,439,341,253,156
92,141,48,-117,21,95,58,287,370,292,214,136
82,122,39,-102,21,80,43,229,302,253,190,117
73,102,29,-87,21,65,39,185,239,209,161,97
63,78,14,-70,24,46,39,136,185,165,126,78
48,63,14,-56,17,39,24,102,141,122,97,63
34,48,14,-41,9,31,19,68,92,92,68,43
24,29,4,-26,9,17,14,43,58,63,43,29
14,4,-9,-9,12,-2,14,24,24,34,24,14
4,0,-4,-2,4,-2,9,4,0,14,4,4
0,-9,-9,4,4,-9,9,-9,-9,-4,-14,-4
-4,-19,-14,12,4,-17,4,-14,-24,-14,-14,-9
-9,-24,-14,17,2,-19,4,-14,-34,-24,-19,-9
-19,-34,-14,26,-2,-24,4,-24,-43,-34,-24,-14
-19,-34,-14,26,-2,-24,4,-29,-48,-43,-34,-14
-19,-34,-14,26,-2,-24,4,-39,-58,-53,-29,-19
-14,-34,-19,24,2,-26,4,-39,-63,-58,-39,-24
-19,-39,-19,29,0,-29,4,-39,-68,-53,-39,-24
-24,-43,-19,34,-2,-31,4,-39,-68,-53,-39,-29
-34,-43,-9,39,-12,-26,4,-43,-73,-58,-43,-34
-39,-43,-4,41,-17,-24,4,-48,-73,-58,-43,-43
-39,-43,-4,41,-17,-24,4,-48,-78,-58,-43,-43
-39,-48,-9,43,-14,-29,9,-48,-82,-63,-48,-43
-39,-48,-9,43,-14,-29,14,-43,-82,-63,-53,-43
-39,-48,-9,43,-14,-29,19,-39,-82,-63,-53,-43
-43,-53,-9,48,-17,-31,19,-39,-82,-63,-48,-43
-43,-58,-14,51,-14,-36,19,-34,-78,-63,-48,-48
-43,-58,-14,51,-14,-36,24,-29,-68,-58,-48,-48
-43,-58,-14,51,-14,-36,24,-29,-63,-53,-48,-48
-53,-48,4,51,-29,-21,29,-29,-63,-53,-53,-43
-53,-43,9,48,-31,-17,29,-29,-63,-53,-53,-39
-53,-43,9,48,-31,-17,34,-24,-58,-53,-53,-39
-53,-48,4,51,-29,-21,34,-24,-53,-53,-48,-39
-53,-53,0,53,-26,-26,34,-24,-53,-48,-48,-39
-53,-53,0,53,-26,-26,34,-24,-48,-48,-43,-39
-53,-48,4,51,-29,-21,34,-29,-48,-43,-43,-39
-53,-48,4,51,-29,-21,34,-29,-48,-43,-43,-39
-53,-48,4,51,-29,-21,29,-29,-48,-48,-43,-39
-58,-43,14,51,-36,-14,24,-29,-53,-53,-48,-39
-58,-43,14,51,-36,-14,24,-34,-53,-53,-48,-39
-58,-43,14,51,-36,-14,24,-34,-53,-53,-43,-39
-58,-43,14,51,-36,-14,24,-34,-58,-53,-43,-43
-58,-43,14,51,-36,-14,24,-34,-58,-53,-48,-48
-58,-43,14,51,-36,-14,24,-34,-63,-58,-48,-48
-58,-43,14,51,-36,-14,24,-39,-63,-58,-48,-53
-58,-34,24,46,-41,-4,24,-43,-68,-63,-53,-53
-58,-29,29,43,-43,0,19,-48,-68,-68,-63,-53
-58,-39,19,48,-39,-9,14,-53,-68,-68,-63,-53
-58,-48,9,53,-34,-19,9,-53,-73,-68,-63,-53
-58,-48,9,53,-34,-19,9,-53,-73,-73,-58,-58
-58,-48,9,53,-34,-19,9,-58,-78,-73,-53,-58
-58,-48,9,53,-34,-19,9,-58,-78,-73,-53,-58
-58,-48,9,53,-34,-19,9,-63,-78,-68,-53,-58
-58,-48,9,53,-34,-19,4,-58,-82,-73,-58,-53
-58,-48,9,53,-34,-19,4,-58,-87,-73,-58,-53
-58,-48,9,53,-34,-19,4,-58,-87,-78,-63,-53
-58,-53,4,56,-31,-24,9,-63,-92,-78,-63,-53
-58,-53,4,56,-31,-24,9,-68,-92,-78,-63,-53
-63,-53,9,58,-36,-21,9,-73,-97,-78,-63,-53
-63,-53,9,58,-36,-21,4,-78,-97,-82,-73,-53
-63,-53,9,58,-36,-21,4,-78,-97,-82,-78,-53
-63,-63,0,63,-31,-31,4,-78,-97,-82,-78,-53
-63,-63,0,63,-31,-31,4,-73,-102,-87,-78,-53
-63,-58,4,61,-34,-26,4,-78,-107,-87,-78,-58
-63,-58,4,61,-34,-26,0,-82,-107,-87,-78,-58
-63,-48,14,56,-39,-17,0,-82,-107,-87,-78,-58
-68,-58,9,63,-39,-24,0,-78,-107,-92,-78,-58
-68,-63,4,65,-36,-29,9,-82,-112,-97,-78,-63
-68,-63,4,65,-36,-29,0,-87,-117,-97,-78,-68
-63,-63,0,63,-31,-31,0,-87,-117,-97,-78,-63
-68,-63,4,65,-36,-29,0,-87,-112,-92,-78,-63
-68,-58,9,63,-39,-24,-4,-92,-112,-97,-73,-63
-63,-58,4,61,-34,-26,0,-87,-102,-97,-73,-63
-53,-58,-4,56,-24,-31,9,-73,-87,-87,-63,-53
-48,-58,-9,53,-19,-34,19,-58,-78,-78,-58,-48
-48,-58,-9,53,-19,-34,24,-58,-78,-73,-58,-48
-48,-58,-9,53,-19,-34,29,-58,-78,-68,-58,-48
-43,-53,-9,48,-17,-31,34,-58,-78,-68,-58,-48
-34,-43,-9,39,-12,-26,39,-48,-73,-58,-53,-48
-29,-39,-9,34,-9,-24,43,-43,-68,-53,-48,-48
-19,-29,-9,24,-4,-19,58,-29,-48,-39,-43,-34
-4,-19,-14,12,4,-17,58,-19,-39,-24,-34,-29
14,-19,-34,2,24,-26,58,-14,-34,-19,-24,-19
14,-19,-34,2,24,-26,53,-14,-34,-19,-24,-19
14,-34,-48,9,31,-41,39,-24,-43,-24,-29,-24
0,-53,-53,26,26,-53,4,-63,-82,-58,-43,-39
-4,-53,-48,29,21,-51,-9,-78,-107,-73,-53,-43
-4,-53,-48,29,21,-51,-39,-87,-112,-82,-58,-43
-4,-43,-39,24,17,-41,-68,-122,-131,-92,-73,-48
4,-43,-48,19,26,-46,-82,-141,-141,-97,-78,-43
19,-48,-68,14,43,-58,-92,-156,-156,-112,-87,-48
19,-68,-87,24,53,-78,-92,-156,-165,-126,-87,-48
19,-78,-97,29,58,-87,-82,-151,-165,-117,-87,-48
19,-78,-97,29,58,-87,-63,-136,-141,-107,-78,-48
19,-78,-97,29,58,-87,-58,-126,-136,-97,-68,-43
34,-73,-107,19,70,-90,-58,-131,-131,-92,-58,-39
43,-68,-112,12,78,-90,-58,-131,-131,-82,-48,-34
43,-68,-112,12,78,-90,-63,-131,-131,-87,-53,-34
43,-68,-112,12,78,-90,-63,-131,-141,-102,-68,-39
19,-68,-87,24,53,-78,-58,-131,-141,-112,-78,-48
-19,-78,-58,48,19,-68,-39,-126,-141,-112,-82,-53
-58,-82,-24,70,-17,-53,-24,-126,-141,-117,-92,-63
-82,-82,0,82,-41,-41,-4,-122,-141,-112,-92,-73
-87,-87,0,87,-43,-43,-4,-122,-141,-112,-92,-73
-92,-92,0,92,-46,-46,-4,-122,-141,-117,-92,-73
-92,-97,-4,95,-43,-51,-4,-122,-151,-122,-97,-78
-97,-97,0,97,-48,-48,-4,-126,-151,-122,-97,-78
-92,-92,0,92,-46,-46,0,-126,-151,-122,-97,-78
-87,-87,0,87,-43,-43,0,-122,-151,-122,-97,-78
-87,-87,0,87,-43,-43,-4,-122,-146,-122,-97,-78
-87,-87,0,87,-43,-43,-9,-122,-141,-117,-92,-73
-87,-82,4,85,-46,-39,-9,-112,-141,-117,-92,-73
-87,-78,9,82,-48,-34,-4,-107,-141,-117,-92,-73
-87,-78,9,82,-48,-34,-4,-107,-126,-112,-92,-73
-102,-68,34,85,-68,-17,9,-97,-107,-107,-92,-73
-136,-63,73,100,-104,4,43,-48,-63,-73,-73,-68
-156,-48,107,102,-131,29,87,34,29,4,-34,-58
-161,-19,141,90,-151,61,136,117,146,87,9,-39
-161,9,170,75,-165,90,204,219,283,195,73,-9
-146,58,204,43,-175,131,248,302,395,302,161,48
-24,161,185,-68,-104,173,224,366,531,488,326,165
200,263,63,-231,68,163,63,263,541,663,517,317
488,351,-136,-419,312,107,-229,-48,414,814,736,497
771,492,-278,-631,524,107,-575,-463,263,980,985,732
936,610,-326,-773,631,141,-868,-1000,-78,917,1054,863
1000,463,-536,-732,768,-36,-1122,-1571,-707,361,717,717
951,146,-805,-549,878,-329,-1307,-2059,-1512,-458,151,400
868,-165,-1034,-351,951,-600,-1439,-2357,-2200,-1166,-370,117
673,-380,-1054,-146,863,-717,-1439,-2444,-2557,-1571,-697,-82
448,-561,-1010,56,729,-785,-1298,-2337,-2581,-1776,-932,-263
322,-629,-951,153,636,-790,-1073,-2044,-2308,-1693,-961,-341
224,-531,-756,153,490,-644,-844,-1649,-1908,-1439,-834,-307
117,-385,-502,134,309,-444,-590,-1205,-1405,-1063,-624,-209
73,-239,-312,82,192,-275,-390,-834,-1000,-756,-439,-131
43,-185,-229,70,136,-207,-244,-575,-722,-570,-331,-97
0,-161,-161,80,80,-161,-136,-395,-541,-453,-283,-102
-43,-156,-112,100,34,-134,-68,-263,-400,-361,-239,-107
-87,-131,-43,109,-21,-87,-19,-170,-253,-253,-190,-107
-117,-102,14,109,-65,-43,24,-97,-151,-175,-146,-107
-117,-97,19,107,-68,-39,39,-58,-117,-151,-131,-102
-117,-97,19,107,-68,-39,43,-29,-97,-141,-126,-102
-126,-92,34,109,-80,-29,53,-9,-73,-122,-117,-102
-131,-78,53,104,-92,-12,63,-4,-53,-102,-112,-97
-131,-78,53,104,-92,-12,68,4,-43,-97,-107,-97
-131,-78,53,104,-92,-12,78,14,-43,-97,-107,-97
-131,-73,58,102,-95,-7,78,29,-34,-82,-97,-97
-131,-73,58,102,-95,-7,82,39,-29,-73,-87,-92
-131,-68,63,100,-97,-2,87,39,-19,-68,-92,-87
-131,-68,63,100,-97,-2,87,48,-14,-68,-97,-87
-131,-73,58,102,-95,-7,92,53,-4,-63,-97,-87
-131,-78,53,104,-92,-12,97,58,4,-58,-92,-87
-131,-73,58,102,-95,-7,97,63,9,-48,-92,-87
-131,-73,58,102,-95,-7,102,73,19,-48,-87,-87
-131,-68,63,100,-97,-2,102,78,19,-48,-87,-87
-131,-63,68,97,-100,2,107,78,39,-48,-87,-87
-131,-63,68,97,-100,2,112,82,43,-43,-82,-87
-131,-58,73,95,-102,7,112,92,48,-39,-78,-87
-131,-58,73,95,-102,7,112,102,53,-34,-78,-82
-131,-58,73,95,-102,7,122,107,68,-29,-78,-82
-131,-58,73,95,-102,7,122,117,73,-24,-78,-82
-131,-53,78,92,-104,12,126,126,78,-19,-73,-82
-126,-43,82,85,-104,19,126,136,87,-14,-68,-78
-126,-43,82,85,-104,19,126,151,102,0,-58,-73
-122,-39,82,80,-102,21,131,161,117,9,-53,-73
-122,-39,82,80,-102,21,136,180,126,19,-48,-73
-122,-39,82,80,-102,21,146,195,146,24,-43,-68
-117,-34,82,75,-100,24,151,214,165,39,-34,-63
-117,-34,82,75,-100,24,151,229,185,48,-29,-63
-117,-34,82,75,-100,24,165,248,204,53,-24,-58
-112,-19,92,65,-102,36,170,273,224,68,-19,-58
-112,-19,92,65,-102,36,175,292,239,78,-9,-48
-107,-4,102,56,-104,48,185,317,273,92,0,-43
-102,0,102,51,-102,51,195,341,297,117,9,-39
-102,0,102,51,-102,51,204,370,317,136,24,-39
-92,14,107,39,-100,61,209,400,341,151,29,-24
-92,24,117,34,-104,70,224,434,390,170,53,-19
-82,34,117,24,-100,75,234,453,429,195,68,-9
-78,48,126,14,-102,87,244,497,458,219,82,-4
-68,58,126,4,-97,92,248,541,502,244,97,4
-58,73,131,-7,-95,102,258,570,546,268,117,14
-48,78,126,-14,-87,102,268,614,590,297,136,29
-39,102,141,-31,-90,122,278,653,624,331,156,43
-24,122,146,-48,-85,134,283,688,673,366,175,53
-4,136,141,-65,-73,139,287,717,712,395,195,73
9,151,141,-80,-65,146,287,751,761,424,219,92
19,165,146,-92,-63,156,292,775,800,453,239,112
34,190,156,-112,-61,173,292,805,829,483,263,122
43,195,151,-119,-53,173,287,819,858,512,287,136
58,219,161,-139,-51,190,287,834,888,536,307,156
73,229,156,-151,-41,192,283,844,912,556,322,165
82,244,161,-163,-39,202,268,858,932,580,341,180
107,253,146,-180,-19,200,263,858,951,600,356,195
112,268,156,-190,-21,212,253,858,956,610,370,204
122,278,156,-200,-17,217,244,854,961,619,385,219
131,283,151,-207,-9,217,239,829,961,629,390,229
146,292,146,-219,0,219,219,800,946,629,405,239
151,292,141,-222,4,217,209,761,912,624,405,244
146,287,141,-217,2,214,190,707,868,605,400,239
141,278,136,-209,2,207,161,649,810,585,390,229
131,263,131,-197,0,197,141,585,736,541,366,224
122,248,126,-185,-2,187,122,517,668,502,346,219
112,229,117,-170,-2,173,107,448,590,453,312,200
102,209,107,-156,-2,158,92,385,502,405,278,180
92,185,92,-139,0,139,73,317,424,346,244,165
78,151,73,-114,2,112,58,248,356,287,204,146
68,131,63,-100,2,97,43,190,283,244,180,126
53,112,58,-82,-2,85,29,146,219,200,151,107
43,87,43,-65,0,65,19,102,165,156,117,87
34,68,34,-51,0,51,4,73,122,117,92,73
24,48,24,-36,0,36,0,39,73,92,68,53
14,29,14,-21,0,21,-4,14,39,63,48,39
4,4,0,-4,2,2,0,-4,9,34,34,24
-4,0,4,2,-4,2,0,-24,-9,14,14,14
-9,-9,0,9,-4,-4,0,-34,-19,-4,-4,0
-14,-19,-4,17,-4,-12,-4,-39,-39,-14,-9,-14
-19,-24,-4,21,-7,-14,-4,-43,-58,-24,-19,-19
-29,-34,-4,31,-12,-19,-4,-53,-73,-34,-24,-24
-29,-29,0,29,-14,-14,-4,-58,-78,-43,-34,-24
-34,-24,9,29,-21,-7,-4,-68,-87,-53,-34,-29
-34,-24,9,29,-21,-7,-4,-68,-92,-58,-48,-34
-39,-29,9,34,-24,-9,-4,-68,-97,-58,-48,-34
-43,-34,9,39,-26,-12,-4,-68,-97,-63,-48,-39
-48,-34,14,41,-31,-9,-4,-68,-102,-68,-53,-39
-48,-34,14,41,-31,-9,-4,-68,-97,-68,-53,-43
-48,-34,14,41,-31,-9,-4,-68,-92,-68,-48,-43
-48,-39,9,43,-29,-14,4,-68,-92,-73,-48,-43
-48,-39,9,43,-29,-14,9,-68,-92,-73,-53,-43
-48,-39,9,43,-29,-14,9,-68,-87,-73,-53,-43
-53,-39,14,46,-34,-12,9,-68,-87,-73,-53,-43
-53,-39,14,46,-34,-12,4,-63,-87,-73,-53,-43
-53,-39,14,46,-34,-12,4,-58,-82,-73,-48,-39
-53,-39,14,46,-34,-12,4,-58,-82,-68,-48,-39
-63,-39,24,51,-43,-7,9,-58,-82,-63,-53,-39
-63,-43,19,53,-41,-12,9,-58,-82,-63,-53,-39
-63,-43,19,53,-41,-12,14,-53,-78,-63,-53,-39
-63,-48,14,56,-39,-17,14,-53,-73,-63,-48,-39
-63,-48,14,56,-39,-17,14,-53,-73,-58,-48,-39
-58,-43,14,51,-36,-14,14,-53,-68,-58,-43,-39
-53,-39,14,46,-34,-12,14,-53,-68,-53,-43,-39
-53,-39,14,46,-34,-12,14,-48,-68,-53,-43,-39
-53,-43,9,48,-31,-17,14,-48,-63,-53,-43,-39
-58,-43,14,51,-36,-14,9,-48,-68,-53,-48,-39
-58,-43,14,51,-36,-14,4,-53,-73,-53,-48,-39
-58,-43,14,51,-36,-14,4,-53,-73,-53,-43,-39
-58,-43,14,51,-36,-14,4,-53,-78,-53,-43,-39
-58,-43,14,51,-36,-14,4,-58,-78,-53,-48,-39
-58,-43,14,51,-36,-14,4,-63,-82,-58,-48,-39
-63,-43,19,53,-41,-12,4,-68,-82,-58,-48,-43
-68,-43,24,56,-46,-9,4,-68,-87,-58,-48,-43
-68,-48,19,58,-43,-14,0,-68,-87,-58,-53,-43
-68,-48,19,58,-43,-14,0,-73,-87,-58,-53,-43
-63,-48,14,56,-39,-17,0,-73,-92,-58,-58,-43
-58,-48,9,53,-34,-19,0,-73,-92,-63,-63,-48
-58,-48,9,53,-34,-19,0,-78,-97,-68,-63,-48
-58,-48,9,53,-34,-19,0,-78,-97,-78,-63,-48
-58,-48,9,53,-34,-19,0,-82,-97,-78,-63,-48
-58,-48,9,53,-34,-19,-4,-82,-102,-82,-68,-48
-63,-48,14,56,-39,-17,-4,-87,-107,-82,-68,-53
-68,-48,19,58,-43,-14,-4,-87,-107,-87,-73,-53
-68,-53,14,61,-41,-19,-4,-92,-112,-87,-68,-53
-68,-53,14,61,-41,-19,-9,-92,-112,-87,-63,-53
-68,-53,14,61,-41,-19,-9,-92,-122,-87,-63,-53
-63,-53,9,58,-36,-21,-14,-97,-126,-92,-68,-53
-63,-53,9,58,-36,-21,-14,-97,-126,-92,-68,-53
-63,-63,0,63,-31,-31,-14,-102,-126,-92,-68,-53
-68,-63,4,65,-36,-29,-9,-102,-126,-97,-73,-53
-73,-58,14,65,-43,-21,-4,-107,-126,-97,-78,-58
-73,-58,14,65,-43,-21,-9,-112,-126,-97,-78,-58
-73,-48,24,61,-48,-12,-9,-112,-126,-97,-78,-58
-78,-58,19,68,-48,-19,-9,-107,-126,-107,-78,-63
-78,-63,14,70,-46,-24,0,-107,-126,-112,-78,-68
-78,-63,14,70,-46,-24,-9,-107,-131,-107,-78,-68
-68,-58,9,63,-39,-24,-9,-107,-136,-107,-78,-63
-68,-53,14,61,-41,-19,-9,-107,-131,-102,-78,-63
-63,-48,14,56,-39,-17,-4,-102,-126,-97,-73,-63
-58,-53,4,56,-31,-24,0,-92,-117,-97,-68,-53
-58,-58,0,58,-29,-29,9,-87,-107,-97,-68,-48
-58,-48,9,53,-34,-19,9,-87,-107,-97,-68,-48
-58,-39,19,48,-39,-9,9,-87,-107,-97,-68,-48
-53,-39,14,46,-34,-12,14,-78,-102,-87,-63,-48
-43,-34,9,39,-26,-12,19,-63,-92,-73,-53,-48
-39,-29,9,34,-24,-9,24,-53,-87,-63,-48,-48
-29,-19,9,24,-19,-4,39,-39,-68,-48,-43,-34
-14,-9,4,12,-9,-2,39,-24,-53,-34,-34,-29
4,-9,-14,2,9,-12,39,-14,-43,-29,-24,-19
4,-9,-14,2,9,-12,43,-14,-43,-29,-24,-19
4,-24,-29,9,17,-26,39,-24,-53,-34,-29,-24
-9,-43,-34,26,12,-39,4,-63,-87,-63,-43,-39
-14,-43,-29,29,7,-36,-9,-78,-107,-73,-53,-43
-14,-43,-29,29,7,-36,-39,-82,-112,-82,-58,-39
-14,-34,-19,24,2,-26,-68,-112,-131,-92,-73,-39
-4,-24,-19,14,7,-21,-92,-146,-156,-102,-78,-39
9,-19,-29,4,19,-24,-112,-175,-185,-122,-87,-48
9,-48,-58,19,34,-53,-117,-175,-195,-136,-87,-48
9,-68,-78,29,43,-73,-112,-170,-195,-126,-87,-48
14,-68,-82,26,48,-75,-92,-156,-170,-117,-82,-48
19,-68,-87,24,53,-78,-87,-146,-165,-107,-78,-43
34,-63,-97,14,65,-80,-87,-146,-156,-102,-68,-39
43,-58,-102,7,73,-80,-87,-141,-151,-92,-58,-34
48,-53,-102,2,75,-78,-92,-141,-151,-87,-58,-29
53,-48,-102,-2,78,-75,-92,-141,-161,-92,-68,-29
29,-48,-78,9,53,-63,-87,-141,-161,-102,-78,-39
-9,-58,-48,34,19,-53,-68,-136,-161,-102,-82,-43
-53,-63,-9,58,-21,-36,-53,-136,-161,-117,-97,-58
-82,-63,19,73,-51,-21,-34,-131,-161,-122,-102,-73
-87,-68,19,78,-53,-24,-34,-131,-161,-126,-102,-78
-92,-73,19,82,-56,-26,-34,-131,-161,-136,-102,-82
-92,-82,9,87,-51,-36,-34,-131,-170,-141,-107,-87
-97,-87,9,92,-53,-39,-34,-136,-170,-141,-107,-87
-97,-82,14,90,-56,-34,-29,-136,-170,-136,-107,-82
-97,-78,19,87,-58,-29,-29,-131,-170,-131,-107,-78
-97,-73,24,85,-61,-24,-29,-131,-165,-131,-107,-78
-97,-68,29,82,-63,-19,-29,-131,-161,-126,-102,-73
-97,-68,29,82,-63,-19,-34,-126,-161,-126,-102,-78
-97,-68,29,82,-63,-19,-34,-126,-161,-126,-102,-82
-87,-73,14,80,-51,-29,-34,-136,-165,-131,-107,-82
-92,-68,24,80,-58,-21,-19,-136,-165,-136,-112,-82
-141,-68,73,104,-107,2,14,-102,-146,-136,-112,-87
-175,-58,117,117,-146,29,58,-34,-78,-92,-92,-87
-185,-34,151,109,-168,58,92,43,24,-19,-68,-78
-190,-9,180,100,-185,85,146,141,146,78,-24,-58
-229,43,273,92,-251,158,229,234,263,161,43,-24
-161,151,312,4,-236,231,244,307,405,322,190,68
39,258,219,-148,-90,239,141,287,458,517,380,219
302,351,48,-326,126,200,-92,58,375,688,600,400
639,556,-82,-597,361,236,-448,-302,361,1054,1010,722
858,736,-122,-797,490,307,-751,-785,156,1190,1239,941
995,595,-400,-795,697,97,-1054,-1381,-439,702,961,834
1019,283,-736,-651,878,-226,-1288,-1893,-1210,-48,453,556
980,-78,-1058,-451,1019,-568,-1454,-2264,-2025,-897,-141,239
829,-341,-1171,-244,1000,-756,-1488,-2425,-2508,-1444,-541,4
580,-570,-1151,-4,866,-861,-1361,-2361,-2635,-1756,-873,-229
429,-688,-1117,129,773,-902,-1151,-2113,-2464,-1781,-1000,-361
322,-614,-936,146,629,-775,-932,-1742,-2083,-1576,-907,-351
204,-492,-697,143,451,-595,-688,-1322,-1600,-1249,-732,-278
141,-312,-453,85,297,-383,-473,-922,-1146,-883,-512,-175
92,-224,-317,65,204,-270,-312,-634,-819,-639,-370,-117
43,-175,-219,65,131,-197,-204,-453,-624,-512,-312,-112
-4,-146,-141,75,68,-143,-136,-322,-468,-409,-258,-107
-68,-117,-48,92,-9,-82,-78,-219,-317,-292,-209,-107
-117,-82,34,100,-75,-24,-24,-136,-209,-204,-165,-107
-117,-78,39,97,-78,-19,4,-82,-161,-175,-151,-102
-117,-78,39,97,-78,-19,24,-39,-126,-161,-146,-102
-126,-78,48,102,-87,-14,34,-19,-97,-136,-126,-102
-131,-68,63,100,-97,-2,43,-14,-73,-112,-112,-97
-136,-68,68,102,-102,0,48,-4,-63,-107,-107,-97
-141,-68,73,104,-107,2,58,4,-63,-107,-107,-97
-141,-63,78,102,-109,7,58,19,-48,-92,-102,-97
-141,-63,78,102,-109,7,63,29,-39,-82,-97,-92
-141,-58,82,100,-112,12,68,29,-29,-78,-97,-92
-141,-58,82,100,-112,12,68,39,-24,-78,-97,-97
-141,-58,82,100,-112,12,73,43,-14,-78,-97,-97
-141,-58,82,100,-112,12,78,48,-4,-78,-92,-97
-136,-53,82,95,-109,14,78,53,0,-68,-92,-97
-131,-53,78,92,-104,12,82,63,9,-68,-87,-97
-131,-53,78,92,-104,12,87,73,9,-63,-87,-97
-131,-53,78,92,-104,12,97,78,29,-58,-87,-97
-131,-53,78,92,-104,12,102,82,34,-53,-82,-92
-131,-48,82,90,-107,17,102,92,39,-48,-78,-87
-131,-48,82,90,-107,17,97,102,43,-43,-78,-82
-131,-48,82,90,-107,17,102,107,58,-39,-78,-82
-136,-48,87,92,-112,19,102,112,68,-34,-78,-82
-141,-43,97,92,-119,26,107,117,78,-29,-73,-82
-136,-34,102,85,-119,34,112,126,87,-24,-68,-78
-136,-34,102,85,-119,34,117,141,102,-9,-58,-73
-131,-29,102,80,-117,36,122,151,117,0,-53,-73
-131,-29,102,80,-117,36,126,170,126,9,-48,-73
-131,-29,102,80,-117,36,136,185,146,14,-43,-68
-126,-24,102,75,-114,39,141,204,165,29,-34,-63
-126,-24,102,75,-114,39,141,219,185,48,-29,-63
-126,-24,102,75,-114,39,156,239,204,63,-24,-58
-122,-9,112,65,-117,51,161,263,224,78,-19,-58
-122,-9,112,65,-117,51,165,283,239,87,-9,-48
-117,4,122,56,-119,63,175,312,273,97,0,-48
-112,9,122,51,-117,65,185,341,297,117,9,-48
-117,9,126,53,-122,68,195,370,326,136,24,-48
-112,24,136,43,-124,80,200,400,361,151,29,-34
-112,34,146,39,-129,90,214,439,400,170,48,-29
-102,43,146,29,-124,95,224,463,429,195,58,-19
-97,58,156,19,-126,107,239,502,458,219,73,-14
-87,68,156,9,-122,112,248,541,502,244,87,-4
-78,82,161,-2,-119,122,263,570,546,268,107,4
-68,87,156,-9,-112,122,278,614,590,297,126,19
-68,107,175,-19,-122,141,287,653,624,326,141,34
-63,122,185,-29,-124,153,292,688,673,356,156,43
-48,136,185,-43,-117,161,302,722,712,385,175,58
-39,151,190,-56,-114,170,307,761,761,414,200,73
-29,165,195,-68,-112,180,312,785,800,444,219,92
-14,190,204,-87,-109,197,312,814,829,473,244,102
0,195,195,-97,-97,195,307,834,863,502,268,117
19,219,200,-119,-90,209,307,854,897,527,287,136
34,234,200,-134,-82,217,307,863,922,546,302,146
43,253,209,-148,-82,231,297,878,941,570,322,161
68,263,195,-165,-63,229,297,883,966,595,341,175
73,278,204,-175,-65,241,292,888,976,610,361,185
82,287,204,-185,-61,246,278,883,980,619,375,200
92,292,200,-192,-53,246,268,858,980,629,380,209
107,302,195,-204,-43,248,244,834,971,634,395,224
112,302,190,-207,-39,246,229,800,941,634,395,234
117,312,195,-214,-39,253,209,751,907,619,400,234
122,317,195,-219,-36,256,180,697,858,605,400,229
117,302,185,-209,-34,244,161,629,785,561,375,224
112,287,175,-200,-31,231,141,556,717,522,356,219
102,268,165,-185,-31,217,122,488,639,473,331,204
92,248,156,-170,-31,202,102,424,551,424,307,190
82,224,141,-153,-29,183,78,356,468,370,273,175
68,190,122,-129,-26,156,58,287,395,317,234,156
63,165,102,-114,-19,134,43,229,322,273,209,136
53,141,87,-97,-17,114,29,185,258,229,180,117
43,117,73,-80,-14,95,19,131,200,180,141,97
34,97,63,-65,-14,80,4,92,151,136,112,82
34,78,43,-56,-4,61,-4,58,97,112,87,63
34,58,24,-46,4,41,-14,34,58,82,68,48
24,34,9,-29,7,21,-14,9,24,53,53,34
14,29,14,-21,0,21,-19,-14,0,34,34,24
4,19,14,-12,-4,17,-19,-29,-14,9,14,14
-4,9,14,-2,-9,12,-24,-39,-39,-4,9,4
-9,4,14,2,-12,9,-24,-43,-53,-14,-4,0
-19,-4,14,12,-17,4,-24,-53,-63,-24,-14,-4
-19,-4,14,12,-17,4,-24,-58,-68,-34,-24,-4
-24,-4,19,14,-21,7,-24,-68,-78,-43,-24,-9
-19,-4,14,12,-17,4,-24,-73,-82,-53,-39,-14
-19,-9,9,14,-14,0,-24,-78,-87,-58,-39,-14
-24,-14,9,19,-17,-2,-24,-82,-87,-63,-39,-24
-29,-14,14,21,-21,0,-24,-87,-92,-68,-43,-29
-34,-14,19,24,-26,2,-24,-87,-97,-73,-43,-34
-39,-14,24,26,-31,4,-24,-87,-102,-78,-39,-34
-39,-19,19,29,-29,0,-19,-87,-102,-82,-39,-34
-39,-19,19,29,-29,0,-19,-87,-102,-82,-43,-34
-39,-19,19,29,-29,0,-19,-87,-102,-82,-53,-34
-43,-19,24,31,-34,2,-19,-87,-107,-82,-63,-34
-43,-19,24,31,-34,2,-19,-82,-107,-82,-68,-39
-43,-19,24,31,-34,2,-14,-78,-102,-82,-68,-39
-43,-19,24,31,-34,2,-14,-78,-102,-82,-63,-43
-53,-19,34,36,-43,7,-9,-78,-102,-82,-63,-48
-58,-29,29,43,-43,0,-9,-73,-102,-78,-63,-48
-63,-34,29,48,-46,-2,-4,-63,-97,-73,-63,-48
-63,-39,24,51,-43,-7,-4,-63,-92,-73,-58,-43
-63,-39,24,51,-43,-7,-4,-63,-92,-68,-58,-39
-63,-34,29,48,-46,-2,-4,-63,-87,-73,-53,-39
-63,-29,34,46,-48,2,-4,-63,-87,-73,-53,-39
-63,-29,34,46,-48,2,-4,-58,-87,-73,-58,-43
-63,-34,29,48,-46,-2,-4,-58,-82,-73,-63,-48
-68,-29,39,48,-53,4,-4,-58,-82,-73,-68,-48
-68,-24,43,46,-56,9,-4,-63,-82,-73,-68,-48
-68,-24,43,46,-56,9,-4,-63,-82,-73,-58,-43
-68,-24,43,46,-56,9,-4,-63,-87,-73,-53,-39
-68,-29,39,48,-53,4,-4,-63,-87,-68,-58,-39
-68,-34,34,51,-51,0,-4,-63,-92,-68,-58,-39
-63,-34,29,48,-46,-2,0,-68,-87,-68,-58,-43
-58,-34,24,46,-41,-4,4,-68,-87,-68,-58,-43
-58,-39,19,48,-39,-9,0,-68,-87,-73,-63,-43
-58,-39,19,48,-39,-9,0,-73,-87,-78,-63,-43
-63,-43,19,53,-41,-12,0,-73,-92,-78,-63,-43
-68,-48,19,58,-43,-14,0,-73,-92,-82,-63,-48
-68,-48,19,58,-43,-14,0,-78,-97,-78,-63,-48
-68,-48,19,58,-43,-14,0,-78,-97,-78,-63,-48
-68,-43,24,56,-46,-9,0,-82,-97,-78,-63,-48
-68,-39,29,53,-48,-4,-4,-82,-102,-82,-68,-48
-68,-39,29,53,-48,-4,-4,-87,-107,-82,-68,-53
-68,-39,29,53,-48,-4,-4,-87,-107,-87,-73,-53
-68,-43,24,56,-46,-9,0,-92,-112,-87,-73,-53
-68,-43,24,56,-46,-9,0,-92,-112,-87,-73,-53
-68,-43,24,56,-46,-9,0,-92,-117,-82,-68,-53
-63,-43,19,53,-41,-12,-4,-97,-117,-82,-68,-53
-63,-43,19,53,-41,-12,-4,-97,-117,-82,-68,-53
-63,-53,9,58,-36,-21,-4,-102,-117,-82,-68,-53
-68,-53,14,61,-41,-19,-4,-102,-122,-92,-68,-53
-73,-48,24,61,-48,-12,-4,-107,-126,-97,-68,-58
-73,-48,24,61,-48,-12,-9,-112,-126,-97,-73,-58
-73,-39,34,56,-53,-2,-9,-112,-126,-97,-78,-58
-78,-53,24,65,-51,-14,-9,-107,-126,-102,-78,-58
-78,-63,14,70,-46,-24,0,-107,-126,-102,-78,-58
-78,-63,14,70,-46,-24,-9,-107,-126,-97,-78,-58
-68,-58,9,63,-39,-24,-9,-107,-126,-97,-78,-53
-68,-53,14,61,-41,-19,-14,-107,-126,-97,-78,-53
-63,-48,14,56,-39,-17,-14,-102,-126,-97,-73,-53
-63,-43,19,53,-41,-12,-4,-97,-122,-92,-73,-53
-63,-43,19,53,-41,-12,4,-97,-117,-87,-73,-53
-58,-39,19,48,-39,-9,4,-92,-112,-82,-68,-48
-58,-39,19,48,-39,-9,9,-87,-107,-78,-68,-48
-48,-34,14,41,-31,-9,14,-82,-97,-73,-58,-43
-39,-29,9,34,-24,-9,19,-78,-87,-68,-48,-39
-34,-24,9,29,-21,-7,19,-73,-82,-63,-43,-39
-24,-14,9,19,-17,-2,29,-58,-68,-53,-39,-29
-19,-9,9,14,-14,0,43,-43,-53,-48,-34,-24
-4,0,4,2,-4,2,48,-29,-39,-34,-24,-19
14,0,-14,-7,14,-7,48,-19,-34,-24,-14,-9
14,0,-14,-7,14,-7,48,-14,-34,-19,-14,-9
14,-14,-29,0,21,-21,39,-19,-43,-24,-19,-14
0,-34,-34,17,17,-34,4,-53,-78,-53,-34,-29
-4,-34,-29,19,12,-31,-9,-68,-97,-63,-43,-34
-4,-34,-29,19,12,-31,-39,-82,-102,-73,-48,-34
-4,-19,-14,12,4,-17,-68,-122,-122,-73,-58,-39
4,-14,-19,4,12,-17,-87,-141,-141,-73,-58,-39
19,-19,-39,0,29,-29,-107,-165,-165,-102,-68,-48
19,-39,-58,9,39,-48,-112,-175,-175,-126,-68,-48
19,-53,-73,17,46,-63,-102,-170,-175,-117,-73,-48
24,-58,-82,17,53,-70,-82,-156,-151,-107,-73,-48
24,-58,-82,17,53,-70,-73,-146,-146,-97,-68,-43
34,-53,-87,9,61,-70,-68,-146,-136,-92,-58,-39
43,-48,-92,2,68,-70,-68,-141,-131,-82,-48,-29
43,-48,-92,2,68,-70,-73,-141,-131,-82,-48,-24
58,-43,-102,-7,80,-73,-82,-141,-146,-92,-58,-29
48,-39,-87,-4,68,-63,-87,-141,-151,-102,-68,-39
9,-48,-58,19,34,-53,-68,-136,-151,-102,-73,-48
-29,-53,-24,41,-2,-39,-53,-136,-151,-112,-87,-63
-63,-58,4,61,-34,-26,-29,-126,-151,-112,-92,-73
-78,-68,9,73,-43,-29,-24,-122,-151,-112,-92,-73
-82,-73,9,78,-46,-31,-24,-122,-146,-117,-92,-68
-82,-78,4,80,-43,-36,-24,-122,-151,-122,-97,-68
-87,-78,9,82,-48,-34,-24,-126,-151,-122,-97,-68
-87,-73,14,80,-51,-29,-19,-126,-151,-122,-97,-68
-87,-68,19,78,-53,-24,-19,-122,-151,-122,-97,-73
-87,-68,19,78,-53,-24,-19,-122,-146,-122,-97,-78
-87,-68,19,78,-53,-24,-19,-122,-141,-117,-87,-73
-87,-68,19,78,-53,-24,-19,-117,-141,-117,-82,-73
-87,-73,14,80,-51,-29,-14,-117,-141,-117,-82,-73
-87,-78,9,82,-48,-34,-14,-117,-136,-112,-82,-73
-102,-68,34,85,-68,-17,0,-117,-136,-107,-82,-73
-141,-63,78,102,-109,7,34,-82,-107,-87,-73,-73
-165,-39,126,102,-146,43,68,-4,-19,-24,-43,-58
-170,0,170,85,-170,85,92,73,92,58,0,-29
-180,19,200,80,-190,109,156,170,224,165,58,-9
-185,63,248,61,-217,156,219,244,326,268,136,34
-107,165,273,-29,-190,219,239,326,483,434,273,131
82,263,180,-173,-48,222,117,268,522,595,439,268
400,351,-48,-375,224,151,-170,0,400,746,658,439
722,502,-219,-612,470,141,-517,-375,292,956,936,673
936,683,-253,-810,595,214,-824,-912,73,1039,1117,868
1063,566,-497,-814,780,34,-1098,-1493,-473,585,863,775
1063,209,-854,-636,958,-322,-1327,-2049,-1337,-283,258,434
1015,-122,-1137,-446,1076,-629,-1498,-2420,-2093,-1058,-307,126
819,-366,-1185,-226,1002,-775,-1546,-2591,-2581,-1551,-673,-87
585,-570,-1156,-7,871,-863,-1459,-2562,-2747,-1839,-956,-287
448,-673,-1122,112,785,-897,-1249,-2288,-2537,-1820,-1039,-385
336,-610,-946,136,641,-778,-1029,-1917,-2181,-1625,-961,-375
214,-444,-658,114,436,-551,-736,-1424,-1634,-1234,-741,-278
151,-273,-424,61,287,-348,-497,-1000,-1171,-888,-527,-180
102,-209,-312,53,207,-261,-331,-702,-849,-658,-390,-126
43,-170,-214,63,129,-192,-204,-483,-639,-507,-317,-117
-4,-156,-151,80,73,-153,-126,-336,-483,-405,-263,-112
-58,-126,-68,92,4,-97,-63,-224,-322,-292,-209,-107
-107,-92,14,100,-61,-39,-9,-131,-195,-195,-156,-107
-117,-87,29,102,-73,-29,14,-73,-131,-151,-131,-102
-117,-87,29,102,-73,-29,34,-29,-102,-141,-126,-102
-126,-87,39,107,-82,-24,53,0,-73,-122,-117,-102
-131,-78,53,104,-92,-12,63,4,-53,-102,-107,-97
-131,-78,53,104,-92,-12,68,14,-43,-97,-97,-97
-131,-78,53,104,-92,-12,78,24,-43,-97,-97,-97
-131,-73,58,102,-95,-7,78,39,-29,-82,-87,-97
-131,-68,63,100,-97,-2,82,48,-19,-68,-82,-92
-131,-58,73,95,-102,7,87,48,-9,-58,-87,-87
-131,-58,73,95,-102,7,87,58,-4,-58,-87,-87
-131,-58,73,95,-102,7,92,63,4,-53,-87,-87
-136,-58,78,97,-107,9,102,68,14,-48,-82,-87
-141,-53,87,97,-114,17,107,73,19,-39,-82,-87
-141,-53,87,97,-114,17,112,82,29,-43,-78,-87
-141,-53,87,97,-114,17,112,92,29,-43,-78,-87
-136,-53,82,95,-109,14,112,97,43,-39,-78,-87
-131,-53,78,92,-104,12,112,102,43,-34,-73,-87
-131,-48,82,90,-107,17,112,112,48,-29,-68,-87
-131,-48,82,90,-107,17,112,122,53,-24,-68,-82
-131,-48,82,90,-107,17,122,126,68,-19,-68,-82
-131,-48,82,90,-107,17,122,136,78,-14,-68,-82
-131,-43,87,87,-109,21,126,151,87,-9,-63,-82
-126,-34,92,80,-109,29,131,165,97,-4,-58,-78
-126,-29,97,78,-112,34,136,180,112,14,-48,-73
-122,-19,102,70,-112,41,141,190,126,29,-43,-73
-122,-19,102,70,-112,41,146,209,136,39,-39,-73
-122,-19,102,70,-112,41,156,224,156,43,-34,-68
-117,-24,92,70,-104,34,161,244,175,53,-24,-63
-117,-34,82,75,-100,24,161,258,195,58,-19,-63
-117,-34,82,75,-100,24,175,278,214,63,-14,-58
-112,-19,92,65,-102,36,180,302,234,78,-9,-58
-112,-14,97,63,-104,41,185,322,248,87,0,-48
-107,4,112,51,-109,58,195,351,283,102,9,-43
-102,14,117,43,-109,65,204,380,302,122,19,-39
-102,19,122,41,-112,70,214,409,326,136,34,-39
-92,34,126,29,-109,80,219,439,361,151,39,-24
-92,43,136,24,-114,90,234,478,400,170,58,-19
-82,53,136,14,-109,95,244,497,429,200,68,-9
-78,68,146,4,-112,107,258,536,458,229,82,-4
-68,73,141,-2,-104,107,268,580,502,253,97,4
-58,82,141,-12,-100,112,278,610,546,278,117,14
-48,87,136,-19,-92,112,287,653,590,302,136,29
-43,112,156,-34,-100,134,297,692,624,326,156,43
-34,131,165,-48,-100,148,302,727,673,356,175,53
-14,146,161,-65,-87,153,312,756,712,385,195,68
4,161,156,-82,-75,158,317,800,771,419,219,82
19,175,156,-97,-68,165,322,834,819,453,239,102
34,200,165,-117,-65,183,322,863,849,483,263,112
43,204,161,-124,-58,183,317,883,883,512,287,126
58,229,170,-143,-56,200,317,902,922,536,307,146
73,239,165,-156,-46,202,317,912,951,556,322,156
82,253,170,-168,-43,212,307,927,971,580,341,170
107,263,156,-185,-24,209,302,927,990,600,356,185
112,278,165,-195,-26,222,292,936,995,610,375,200
122,287,165,-204,-21,226,278,936,1000,619,395,219
131,292,161,-212,-14,226,268,912,1005,634,400,229
146,302,156,-224,-4,229,244,888,995,639,414,239
151,302,151,-226,0,226,229,849,966,634,414,239
151,302,151,-226,0,226,209,795,927,614,409,234
156,297,141,-226,7,219,185,751,873,600,400,229
151,283,131,-217,9,207,170,697,805,561,375,224
141,268,126,-204,7,197,151,614,736,522,356,219
131,248,117,-190,7,183,131,536,658,473,326,200
122,229,107,-175,7,168,112,468,570,424,297,180
112,204,92,-158,9,148,92,395,488,370,263,165
97,170,73,-134,12,122,73,326,409,317,224,146
92,151,58,-122,17,104,53,268,331,273,200,126
82,131,48,-107,17,90,39,219,268,224,170,107
73,107,34,-90,19,70,29,165,214,175,136,87
63,82,19,-73,21,51,24,131,170,136,112,73
53,58,4,-56,24,31,29,97,122,112,87,53
39,39,0,-39,19,19,14,68,87,82,68,39
24,14,-9,-19,17,2,4,43,53,53,53,24
14,9,-4,-12,9,2,0,19,19,34,29,14
9,0,-9,-4,9,-4,0,0,0,14,4,4
4,-9,-14,2,9,-12,-4,-9,-19,0,0,-4
0,-14,-14,7,7,-14,-4,-14,-34,-14,-9,-9
-9,-24,-14,17,2,-19,-4,-24,-43,-24,-14,-19
-9,-24,-14,17,2,-19,-4,-29,-48,-34,-24,-24
-14,-24,-9,19,-2,-17,-4,-39,-58,-43,-29,-29
-14,-24,-9,19,-2,-17,-4,-39,-63,-48,-48,-34
-19,-29,-9,24,-4,-19,-4,-43,-73,-48,-48,-34
-24,-34,-9,29,-7,-21,-4,-48,-78,-53,-48,-39
-29,-39,-9,34,-9,-24,-4,-48,-82,-58,-48,-34
-29,-43,-14,36,-7,-29,-4,-48,-82,-58,-43,-34
-29,-43,-14,36,-7,-29,-4,-48,-82,-58,-39,-34
-29,-48,-19,39,-4,-34,0,-48,-82,-63,-39,-34
-29,-39,-9,34,-9,-24,0,-48,-82,-63,-43,-34
-29,-29,0,29,-14,-14,0,-48,-82,-63,-43,-34
-39,-39,0,39,-19,-19,4,-48,-87,-63,-48,-34
-43,-48,-4,46,-19,-26,9,-43,-87,-63,-58,-39
-43,-48,-4,46,-19,-26,14,-34,-82,-68,-58,-43
-43,-48,-4,46,-19,-26,14,-29,-82,-73,-58,-48
-53,-48,4,51,-29,-21,19,-29,-82,-73,-58,-48
-53,-53,0,53,-26,-26,19,-29,-82,-73,-53,-48
-53,-48,4,51,-29,-21,24,-24,-78,-68,-53,-48
-53,-48,4,51,-29,-21,24,-24,-73,-63,-48,-48
-53,-48,4,51,-29,-21,24,-24,-68,-53,-48,-43
-53,-43,9,48,-31,-17,24,-24,-58,-48,-43,-39
-53,-39,14,46,-34,-12,24,-24,-58,-43,-39,-39
-53,-39,14,46,-34,-12,24,-19,-58,-43,-34,-39
-53,-43,9,48,-31,-17,24,-19,-53,-43,-34,-39
-58,-43,14,51,-36,-14,24,-19,-53,-43,-39,-39
-58,-43,14,51,-36,-14,24,-24,-53,-43,-43,-39
-58,-43,14,51,-36,-14,24,-24,-53,-43,-43,-39
-58,-43,14,51,-36,-14,19,-24,-58,-43,-43,-39
-58,-43,14,51,-36,-14,14,-24,-58,-43,-48,-39
-58,-43,14,51,-36,-14,14,-24,-63,-53,-43,-39
-58,-43,14,51,-36,-14,14,-29,-63,-58,-39,-43
-58,-43,14,51,-36,-14,14,-29,-68,-58,-39,-43
-58,-48,9,53,-34,-19,9,-29,-68,-58,-43,-43
-58,-48,9,53,-34,-19,9,-39,-68,-58,-48,-43
-58,-48,9,53,-34,-19,9,-43,-73,-58,-53,-43
-58,-48,9,53,-34,-19,9,-43,-73,-63,-53,-48
-58,-48,9,53,-34,-19,9,-48,-78,-63,-53,-48
-58,-48,9,53,-34,-19,9,-48,-78,-68,-53,-48
-58,-48,9,53,-34,-19,9,-53,-78,-68,-53,-48
-58,-48,9,53,-34,-19,4,-53,-82,-73,-58,-48
-58,-48,9,53,-34,-19,4,-58,-87,-73,-58,-53
-58,-48,9,53,-34,-19,0,-58,-92,-78,-63,-53
-58,-53,4,56,-31,-24,0,-63,-102,-78,-63,-53
-58,-53,4,56,-31,-24,0,-63,-102,-78,-63,-53
-63,-53,9,58,-36,-21,0,-63,-107,-78,-63,-53
-63,-53,9,58,-36,-21,-4,-68,-102,-82,-68,-53
-63,-53,9,58,-36,-21,-4,-68,-97,-82,-68,-53
-63,-63,0,63,-31,-31,-4,-68,-97,-78,-63,-53
-63,-63,0,63,-31,-31,-4,-63,-102,-78,-58,-53
-63,-63,0,63,-31,-31,0,-68,-107,-78,-58,-58
-63,-68,-4,65,-29,-36,0,-73,-107,-78,-58,-58
-63,-58,4,61,-34,-26,0,-73,-107,-78,-58,-58
-68,-68,0,68,-34,-34,0,-68,-107,-82,-58,-58
-68,-73,-4,70,-31,-39,9,-68,-107,-82,-58,-58
-63,-68,-4,65,-29,-36,0,-68,-107,-78,-58,-53
-53,-58,-4,56,-24,-31,0,-63,-97,-78,-63,-48
-48,-53,-4,51,-21,-29,4,-58,-92,-78,-68,-43
-48,-48,0,48,-24,-24,9,-48,-82,-73,-63,-43
-48,-48,0,48,-24,-24,19,-39,-78,-68,-58,-48
-48,-48,0,48,-24,-24,24,-39,-78,-68,-58,-48
-48,-48,0,48,-24,-24,29,-39,-78,-68,-58,-48
-39,-43,-4,41,-17,-24,29,-34,-73,-58,-53,-43
-29,-34,-4,31,-12,-19,39,-19,-58,-48,-43,-34
-19,-29,-9,24,-4,-19,48,-9,-48,-39,-39,-24
-4,-19,-14,12,4,-17,48,0,-39,-24,-24,-19
9,-19,-29,4,19,-24,48,4,-34,-19,-14,-9
4,-19,-24,7,14,-21,48,4,-34,-19,-14,-9
4,-34,-39,14,21,-36,39,-4,-43,-24,-19,-14
-9,-53,-43,31,17,-48,4,-43,-78,-53,-34,-29
-4,-48,-43,26,19,-46,-9,-58,-97,-63,-43,-34
4,-43,-48,19,26,-46,-39,-73,-102,-73,-48,-34
4,-34,-39,14,21,-36,-68,-107,-117,-82,-58,-39
14,-34,-48,9,31,-41,-87,-122,-131,-92,-58,-39
29,-39,-68,4,48,-53,-107,-136,-156,-112,-68,-48
29,-58,-87,14,58,-73,-112,-136,-165,-126,-68,-48
24,-73,-97,24,61,-85,-102,-131,-165,-117,-68,-48
24,-78,-102,26,63,-90,-82,-117,-141,-107,-63,-48
29,-78,-107,24,68,-92,-78,-107,-136,-97,-58,-39
43,-73,-117,14,80,-95,-78,-107,-126,-92,-48,-29
53,-68,-122,7,87,-95,-73,-102,-122,-78,-43,-24
53,-68,-122,7,87,-95,-73,-102,-122,-73,-48,-24
53,-68,-122,7,87,-95,-73,-102,-131,-82,-58,-29
29,-68,-97,19,63,-82,-68,-102,-131,-92,-68,-39
-9,-73,-63,41,26,-68,-53,-97,-136,-92,-68,-43
-48,-73,-24,61,-12,-48,-43,-97,-141,-102,-78,-53
-73,-73,0,73,-36,-36,-24,-97,-141,-107,-82,-68
-78,-78,0,78,-39,-39,-24,-102,-141,-112,-82,-73
-82,-82,0,82,-41,-41,-24,-102,-136,-117,-82,-73
-82,-87,-4,85,-39,-46,-24,-102,-141,-122,-87,-78
-82,-87,-4,85,-39,-46,-24,-107,-141,-122,-92,-78
-78,-82,-4,80,-36,-43,-19,-107,-141,-122,-97,-78
-78,-78,0,78,-39,-39,-19,-102,-141,-117,-97,-78
-78,-78,0,78,-39,-39,-19,-102,-136,-112,-97,-78
-78,-78,0,78,-39,-39,-19,-102,-131,-107,-92,-73
-78,-78,0,78,-39,-39,-19,-97,-131,-107,-92,-73
-78,-78,0,78,-39,-39,-14,-92,-131,-107,-87,-68
-78,-78,0,78,-39,-39,-14,-87,-126,-102,-82,-63
-92,-68,24,80,-58,-21,4,-78,-102,-87,-78,-58
-131,-63,68,97,-100,2,43,-34,-48,-58,-63,-53
-156,-48,107,102,-131,29,87,48,39,4,-34,-48
-161,-19,141,90,-151,61,122,131,151,87,9,-29
-156,4,161,75,-158,82,185,244,292,200,78,0
-146,53,200,46,-173,126,248,331,405,307,165,53
-19,156,175,-68,-97,165,219,385,541,488,326,170
219,253,34,-236,92,143,48,297,561,663,517,326
497,341,-156,-419,326,92,-239,-9,419,814,736,507
780,492,-287,-636,534,102,-585,-424,292,1024,1015,751
936,610,-326,-773,631,141,-873,-961,-34,956,1073,873
1005,429,-575,-717,790,-73,-1127,-1542,-688,351,697,707
951,126,-824,-539,888,-348,-1317,-2030,-1483,-444,156,400
849,-151,-1000,-348,924,-575,-1449,-2332,-2171,-1146,-346,126
663,-370,-1034,-146,849,-702,-1449,-2425,-2532,-1556,-673,-68
439,-551,-990,56,714,-771,-1312,-2318,-2571,-1761,-917,-248
312,-605,-917,146,614,-761,-1088,-2025,-2303,-1673,-951,-326
209,-492,-702,141,456,-597,-854,-1634,-1888,-1410,-824,-297
117,-361,-478,122,297,-419,-600,-1200,-1400,-1054,-624,-209
82,-224,-307,70,195,-265,-400,-834,-995,-741,-429,-122
43,-180,-224,68,134,-202,-253,-575,-707,-551,-322,-92
-4,-161,-156,82,75,-158,-146,-395,-531,-439,-278,-107
-48,-151,-102,100,26,-126,-78,-263,-390,-341,-229,-107
-97,-126,-29,112,-34,-78,-24,-165,-244,-234,-180,-107
-122,-92,29,107,-75,-31,14,-92,-151,-161,-136,-107
-107,-87,19,97,-63,-34,24,-53,-122,-141,-122,-102
-107,-87,19,97,-63,-34,34,-19,-97,-131,-117,-102
-117,-87,29,102,-73,-29,43,0,-73,-112,-107,-102
-126,-78,48,102,-87,-14,53,4,-53,-97,-102,-97
-131,-78,53,104,-92,-12,58,14,-43,-97,-97,-97
-131,-78,53,104,-92,-12,68,24,-43,-97,-102,-97
-131,-73,58,102,-95,-7,68,39,-29,-82,-97,-97
-131,-73,58,102,-95,-7,73,43,-19,-73,-87,-92
-131,-68,63,100,-97,-2,78,39,-9,-68,-87,-87
-131,-63,68,97,-100,2,78,48,-4,-68,-87,-87
-131,-58,73,95,-102,7,82,53,4,-63,-87,-87
-131,-58,73,95,-102,7,87,58,14,-58,-82,-87
-131,-53,78,92,-104,12,87,63,19,-48,-82,-87
-126,-58,68,92,-97,4,92,73,24,-48,-78,-87
-122,-63,58,92,-90,-2,92,82,19,-43,-78,-87
-122,-63,58,92,-90,-2,97,87,39,-39,-78,-87
-122,-63,58,92,-90,-2,102,92,43,-34,-73,-87
-126,-58,68,92,-97,4,102,102,48,-29,-68,-87
-131,-58,73,95,-102,7,102,112,53,-24,-68,-82
-131,-58,73,95,-102,7,112,117,68,-19,-68,-82
-131,-58,73,95,-102,7,112,126,78,-14,-68,-82
-131,-53,78,92,-104,12,117,136,87,-9,-63,-82
-126,-43,82,85,-104,19,122,146,97,-4,-58,-78
-126,-43,82,85,-104,19,126,156,112,9,-48,-68
-122,-39,82,80,-102,21,131,161,126,19,-43,-63
-122,-39,82,80,-102,21,136,180,131,29,-39,-63
-122,-39,82,80,-102,21,146,195,146,34,-34,-58
-117,-34,82,75,-100,24,151,214,165,48,-24,-58
-117,-34,82,75,-100,24,151,229,185,58,-19,-63
-117,-34,82,75,-100,24,161,248,204,63,-14,-58
-112,-19,92,65,-102,36,161,273,224,78,-9,-58
-112,-19,92,65,-102,36,165,287,239,87,4,-48
-107,-4,102,56,-104,48,175,312,273,102,19,-43
-97,4,102,46,-100,53,185,341,297,126,29,-39
-92,9,102,41,-97,56,195,370,326,146,43,-39
-82,24,107,29,-95,65,200,400,361,161,43,-19
-82,34,117,24,-100,75,214,439,400,180,58,-9
-68,43,112,12,-90,78,224,458,429,204,68,0
-58,58,117,0,-87,87,239,497,458,229,82,4
-48,68,117,-9,-82,92,244,536,502,253,97,14
-39,82,122,-21,-80,102,248,561,546,278,117,24
-34,82,117,-24,-75,100,258,605,590,307,136,39
-34,102,136,-34,-85,119,268,644,624,336,156,53
-24,122,146,-48,-85,134,273,678,673,366,180,63
-4,136,141,-65,-73,139,283,707,712,395,204,78
9,151,141,-80,-65,146,287,741,761,424,229,92
19,165,146,-92,-63,156,292,766,800,453,248,112
34,190,156,-112,-61,173,292,795,829,483,268,122
43,195,151,-119,-53,173,287,814,863,512,287,136
58,219,161,-139,-51,190,283,834,897,536,307,156
73,229,156,-151,-41,192,278,844,922,556,322,165
87,244,156,-165,-34,200,268,858,941,580,341,180
117,253,136,-185,-9,195,263,858,961,600,356,195
122,268,146,-195,-12,207,253,858,966,610,370,204
131,278,146,-204,-7,212,239,849,971,619,385,219
136,283,146,-209,-4,214,229,819,971,629,390,229
146,292,146,-219,0,219,204,790,956,629,405,239
151,292,141,-222,4,217,190,751,917,624,405,244
151,292,141,-222,4,217,170,697,868,605,400,244
151,287,136,-219,7,212,151,644,810,585,390,239
141,273,131,-207,4,202,141,580,736,541,366,234
131,258,126,-195,2,192,122,507,668,502,346,229
122,239,117,-180,2,178,102,439,590,453,317,209
112,219,107,-165,2,163,82,380,507,400,287,185
102,195,92,-148,4,143,63,317,429,341,253,165
82,156,73,-119,4,114,48,248,356,287,214,146
73,131,58,-102,7,95,34,190,283,244,190,126
63,112,48,-87,7,80,24,146,219,200,161,107
53,87,34,-70,9,61,19,97,165,156,126,87
43,73,29,-58,7,51,4,68,126,117,102,73
34,58,24,-46,4,41,0,39,82,92,78,53
24,39,14,-31,4,26,-4,14,53,63,58,39
14,14,0,-14,7,7,-4,-4,24,34,43,24
0,9,9,-4,-4,9,-9,-24,0,14,24,14
-9,0,9,4,-9,4,-9,-39,-9,-4,4,4
-14,-9,4,12,-9,-2,-9,-48,-29,-14,0,-4
-19,-14,4,17,-12,-4,-4,-53,-43,-24,-9,-9
-29,-24,4,26,-17,-9,-4,-63,-58,-34,-14,-14
-29,-24,4,26,-17,-9,-4,-68,-68,-43,-24,-14
-29,-24,4,26,-17,-9,-4,-78,-78,-53,-24,-19
-24,-24,0,24,-12,-12,-4,-78,-82,-58,-39,-24
-29,-29,0,29,-14,-14,-4,-78,-87,-58,-39,-24
-34,-34,0,34,-17,-17,-4,-78,-87,-63,-39,-29
-39,-34,4,36,-21,-14,-4,-78,-92,-68,-43,-29
-39,-34,4,36,-21,-14,-4,-78,-92,-68,-43,-34
-39,-29,9,34,-24,-9,-4,-73,-92,-63,-39,-34
-39,-29,9,34,-24,-9,0,-68,-92,-63,-39,-34
-39,-29,9,34,-24,-9,0,-68,-82,-58,-39,-34
-39,-29,9,34,-24,-9,0,-68,-73,-53,-34,-34
-43,-29,14,36,-29,-7,0,-68,-78,-53,-34,-34
-43,-29,14,36,-29,-7,0,-63,-78,-53,-39,-39
-43,-29,14,36,-29,-7,4,-58,-73,-53,-39,-39
-43,-29,14,36,-29,-7,4,-58,-73,-53,-39,-39
-53,-29,24,41,-39,-2,9,-58,-73,-53,-43,-39
-53,-34,19,43,-36,-7,9,-58,-73,-53,-43,-39
-48,-34,14,41,-31,-9,14,-53,-68,-53,-43,-39
-43,-39,4,41,-24,-17,14,-53,-63,-53,-39,-39
-43,-39,4,41,-24,-17,14,-48,-63,-48,-39,-34
-43,-34,9,39,-26,-12,14,-43,-58,-48,-34,-29
-43,-29,14,36,-29,-7,14,-43,-63,-48,-34,-29
-43,-29,14,36,-29,-7,14,-39,-68,-53,-34,-29
-43,-34,9,39,-26,-12,9,-39,-63,-53,-34,-34
-48,-34,14,41,-31,-9,4,-39,-63,-53,-39,-39
-48,-34,14,41,-31,-9,4,-43,-63,-48,-39,-39
-48,-34,14,41,-31,-9,4,-43,-63,-43,-34,-39
-53,-39,14,46,-34,-12,4,-48,-68,-43,-34,-39
-58,-43,14,51,-36,-14,4,-53,-68,-43,-39,-39
-58,-43,14,51,-36,-14,4,-53,-73,-53,-43,-39
-58,-43,14,51,-36,-14,4,-58,-73,-58,-48,-43
-58,-43,14,51,-36,-14,4,-58,-78,-63,-48,-43
-58,-48,9,53,-34,-19,0,-58,-78,-68,-53,-43
-53,-43,9,48,-31,-17,0,-68,-78,-68,-53,-43
-48,-39,9,43,-29,-14,0,-73,-82,-68,-53,-43
-48,-39,9,43,-29,-14,0,-73,-82,-68,-53,-48
-48,-39,9,43,-29,-14,0,-78,-87,-63,-53,-48
-53,-39,14,46,-34,-12,0,-78,-92,-68,-58,-48
-58,-39,19,48,-39,-9,0,-82,-97,-68,-63,-48
-58,-39,19,48,-39,-9,-4,-82,-102,-73,-68,-48
-58,-39,19,48,-39,-9,-4,-87,-107,-73,-68,-53
-58,-43,14,51,-36,-14,-4,-87,-107,-78,-68,-53
-58,-53,4,56,-31,-24,0,-92,-112,-78,-63,-53
-58,-53,4,56,-31,-24,0,-92,-112,-78,-63,-53
-63,-53,9,58,-36,-21,0,-92,-117,-78,-63,-53
-63,-53,9,58,-36,-21,-4,-92,-117,-82,-68,-53
-63,-53,9,58,-36,-21,-4,-87,-117,-82,-68,-53
-63,-63,0,63,-31,-31,-4,-92,-117,-82,-68,-53
-63,-63,0,63,-31,-31,-4,-92,-122,-87,-68,-53
-63,-58,4,61,-34,-26,-4,-97,-126,-87,-68,-58
-63,-58,4,61,-34,-26,-9,-102,-126,-87,-68,-58
-63,-43,19,53,-41,-12,-9,-102,-126,-87,-68,-58
-68,-48,19,58,-43,-14,-9,-97,-126,-92,-68,-58
-68,-53,14,61,-41,-19,0,-97,-126,-92,-73,-58
-63,-48,14,56,-39,-17,-9,-97,-126,-87,-78,-53
-58,-43,14,51,-36,-14,-4,-92,-117,-82,-73,-53
-58,-43,14,51,-36,-14,-4,-87,-112,-78,-68,-53
-53,-39,14,46,-34,-12,0,-87,-102,-73,-63,-48
-48,-39,9,43,-29,-14,9,-87,-97,-68,-58,-48
-48,-39,9,43,-29,-14,14,-78,-97,-68,-58,-48
-48,-39,9,43,-29,-14,19,-68,-97,-68,-58,-48
-43,-34,9,39,-26,-12,19,-63,-87,-63,-53,-43
-34,-24,9,29,-21,-7,29,-48,-73,-53,-43,-34
-24,-19,4,21,-14,-7,43,-39,-58,-48,-39,-24
-4,-9,-4,7,0,-7,48,-29,-48,-34,-24,-19
14,-4,-19,-4,17,-12,48,-14,-39,-24,-14,-9
14,0,-14,-7,14,-7,48,-4,-34,-19,-14,-9
14,-14,-29,0,21,-21,43,-14,-39,-24,-19,-14
0,-34,-34,17,17,-34,14,-53,-68,-53,-34,-29
-4,-39,-34,21,14,-36,0,-68,-87,-63,-43,-34
-4,-43,-39,24,17,-41,-29,-82,-92,-73,-48,-34
-4,-34,-29,19,12,-31,-58,-122,-112,-82,-63,-39
4,-34,-39,14,21,-36,-78,-141,-131,-92,-68,-39
19,-39,-58,9,39,-48,-102,-165,-165,-117,-78,-48
19,-58,-78,19,48,-68,-112,-175,-185,-136,-78,-48
14,-68,-82,26,48,-75,-102,-170,-185,-126,-78,-48
14,-68,-82,26,48,-75,-82,-156,-161,-117,-73,-48
19,-68,-87,24,53,-78,-78,-146,-156,-107,-68,-43
34,-63,-97,14,65,-80,-78,-146,-146,-102,-58,-39
48,-58,-107,4,78,-82,-78,-141,-141,-87,-48,-34
53,-58,-112,2,82,-85,-82,-141,-141,-82,-48,-34
58,-58,-117,0,87,-87,-82,-141,-151,-92,-53,-29
39,-58,-97,9,68,-78,-78,-141,-151,-102,-58,-29
0,-68,-68,34,34,-68,-58,-136,-151,-102,-63,-34
-39,-73,-34,56,-2,-53,-43,-136,-151,-112,-78,-43
-68,-68,0,68,-34,-34,-19,-131,-151,-112,-87,-58
-78,-68,9,73,-43,-29,-14,-131,-151,-112,-92,-63
-87,-73,14,80,-51,-29,-14,-131,-151,-117,-92,-63
-92,-78,14,85,-53,-31,-14,-131,-161,-122,-97,-68
-97,-78,19,87,-58,-29,-19,-136,-161,-122,-97,-73
-97,-73,24,85,-61,-24,-19,-136,-161,-122,-97,-78
-92,-68,24,80,-58,-21,-19,-131,-161,-122,-97,-78
-87,-68,19,78,-53,-24,-19,-131,-156,-122,-97,-78
-87,-73,14,80,-51,-29,-19,-131,-151,-117,-92,-73
-87,-78,9,82,-48,-34,-19,-126,-151,-117,-92,-73
-82,-78,4,80,-43,-36,-14,-126,-151,-117,-92,-73
-78,-78,0,78,-39,-39,-14,-126,-146,-112,-92,-73
-92,-68,24,80,-58,-21,-4,-136,-156,-122,-102,-78
-131,-63,68,97,-100,2,24,-112,-136,-117,-102,-82
-165,-58,107,112,-136,24,68,-34,-68,-78,-92,-87
-180,-39,141,109,-161,51,102,43,24,-19,-68,-78
-204,-24,180,114,-192,78,161,141,156,68,-29,-68
-224,14,239,104,-231,126,219,214,258,151,29,-34
-170,136,307,17,-239,222,278,346,434,331,175,63
-4,253,258,-124,-131,256,195,336,492,507,351,200
297,341,43,-319,126,192,-63,117,424,722,610,395
605,492,-112,-549,358,190,-380,-209,370,995,927,653
844,727,-117,-785,480,305,-697,-702,224,1220,1229,927
995,663,-331,-829,663,165,-980,-1239,-248,907,1098,912
1024,287,-736,-656,880,-224,-1234,-1825,-1137,9,492,575
1005,-63,-1068,-470,1037,-566,-1429,-2225,-1917,-795,-73,273
819,-326,-1146,-246,983,-736,-1468,-2405,-2449,-1371,-497,29
595,-551,-1146,-21,871,-849,-1371,-2386,-2659,-1742,-839,-200
458,-683,-1141,112,800,-912,-1171,-2152,-2479,-1756,-956,-326
346,-649,-995,151,671,-822,-961,-1820,-2152,-1595,-912,-346
219,-483,-702,131,461,-592,-692,-1356,-1625,-1229,-712,-258
151,-312,-463,80,307,-387,-478,-961,-1180,-907,-517,-170
112,-234,-346,61,229,-290,-322,-673,-844,-668,-375,-112
63,-180,-244,58,153,-212,-204,-463,-619,-507,-297,-97
4,-165,-170,80,87,-168,-131,-331,-478,-409,-248,-97
-58,-136,-78,97,9,-107,-73,-234,-331,-302,-200,-97
-107,-92,14,100,-61,-39,-19,-146,-209,-204,-156,-97
-117,-78,39,97,-78,-19,4,-92,-151,-161,-141,-92
-117,-78,39,97,-78,-19,19,-48,-122,-151,-131,-92
-126,-78,48,102,-87,-14,34,-19,-92,-131,-117,-92
-131,-68,63,100,-97,-2,43,-14,-68,-112,-112,-87
-131,-68,63,100,-97,-2,48,-4,-53,-107,-107,-87
-131,-73,58,102,-95,-7,63,4,-53,-107,-107,-87
-131,-73,58,102,-95,-7,68,19,-39,-92,-97,-87
-131,-73,58,102,-95,-7,78,29,-29,-78,-87,-87
-131,-68,63,100,-97,-2,87,29,-19,-68,-87,-87
-131,-68,63,100,-97,-2,87,39,-14,-68,-87,-87
-131,-68,63,100,-97,-2,92,43,-4,-63,-87,-87
-131,-68,63,100,-97,-2,92,48,4,-58,-82,-87
-131,-63,68,97,-100,2,87,53,9,-48,-82,-87
-131,-63,68,97,-100,2,92,63,19,-48,-78,-82
-131,-63,68,97,-100,2,92,73,19,-43,-78,-78
-131,-63,68,97,-100,2,97,78,39,-39,-78,-78
-131,-63,68,97,-100,2,102,82,43,-34,-73,-78
-131,-58,73,95,-102,7,102,92,48,-29,-68,-78
-131,-58,73,95,-102,7,102,102,53,-24,-68,-73
-131,-58,73,95,-102,7,112,107,68,-19,-68,-73
-131,-58,73,95,-102,7,112,117,78,-14,-68,-73
-131,-53,78,92,-104,12,117,126,87,-9,-63,-73
-126,-43,82,85,-104,19,122,136,97,-4,-58,-68
-131,-43,87,87,-109,21,126,146,112,4,-48,-63
-131,-39,92,85,-112,26,131,151,126,9,-43,-63
-131,-39,92,85,-112,26,136,170,136,19,-39,-63
-131,-39,92,85,-112,26,146,185,156,24,-34,-58
-126,-34,92,80,-109,29,151,204,170,39,-24,-53
-126,-34,92,80,-109,29,151,219,185,48,-19,-53
-126,-34,92,80,-109,29,165,239,204,53,-14,-53
-122,-19,102,70,-112,41,170,263,224,68,-9,-58
-122,-19,102,70,-112,41,175,283,239,82,0,-48
-117,-4,112,61,-114,53,185,312,273,102,9,-43
-112,0,112,56,-112,56,195,341,297,126,19,-39
-112,0,112,56,-112,56,204,370,326,146,34,-39
-102,14,117,43,-109,65,209,400,361,161,34,-24
-102,24,126,39,-114,75,224,439,400,180,48,-19
-92,34,126,29,-109,80,234,458,429,204,58,-9
-87,48,136,19,-112,92,248,497,458,229,73,-4
-78,58,136,9,-107,97,258,541,502,253,87,4
-68,73,141,-2,-104,107,268,570,546,278,107,14
-63,73,136,-4,-100,104,278,614,590,307,126,29
-63,92,156,-14,-109,124,287,653,624,336,146,43
-53,112,165,-29,-109,139,292,688,673,366,165,48
-34,126,161,-46,-97,143,302,717,712,395,185,58
-24,141,165,-58,-95,153,312,751,761,424,209,73
-19,156,175,-68,-97,165,322,775,800,453,229,92
-4,180,185,-87,-95,183,322,814,834,483,253,107
4,185,180,-95,-87,183,317,844,873,512,278,126
19,214,195,-117,-87,204,322,863,907,536,297,146
34,229,195,-131,-80,212,326,873,932,556,312,156
43,244,200,-143,-78,222,317,888,956,580,331,170
68,253,185,-161,-58,219,312,888,980,600,346,185
73,268,195,-170,-61,231,302,893,985,614,366,195
82,278,195,-180,-56,236,287,888,990,629,385,209
92,287,195,-190,-51,241,278,858,995,639,390,219
107,302,195,-204,-43,248,253,829,985,639,405,229
117,302,185,-209,-34,244,239,800,961,639,409,239
122,302,180,-212,-29,241,219,756,927,624,409,244
126,307,180,-217,-26,244,190,697,873,614,405,244
122,302,180,-212,-29,241,170,629,805,580,385,244
117,287,170,-202,-26,229,151,556,736,541,366,239
112,268,156,-190,-21,212,131,488,658,492,336,219
102,248,146,-175,-21,197,112,424,570,444,307,200
92,224,131,-158,-19,178,92,356,488,390,273,185
78,190,112,-134,-17,151,78,287,409,331,234,165
73,170,97,-122,-12,134,63,229,331,283,209,146
63,151,87,-107,-12,119,43,180,263,239,180,126
53,126,73,-90,-9,100,29,126,204,195,146,107
43,102,58,-73,-7,80,9,87,156,151,117,92
34,78,43,-56,-4,61,0,48,102,122,87,73
24,58,34,-41,-4,46,-4,24,68,92,68,58
14,34,19,-24,-2,26,-4,4,34,63,53,43
9,24,14,-17,-2,19,-4,-14,9,43,34,34
9,9,0,-9,4,4,0,-29,0,24,14,24
4,0,-4,-2,4,-2,-4,-39,-19,14,9,14
0,-4,-4,2,2,-4,-4,-43,-34,4,0,9
-9,-14,-4,12,-2,-9,-9,-53,-43,-9,-4,0
-9,-14,-4,12,-2,-9,-14,-58,-48,-24,-14,-4
-14,-14,0,14,-7,-7,-14,-73,-58,-34,-14,-9
-14,-14,0,14,-7,-7,-14,-78,-63,-39,-29,-14
-19,-19,0,19,-9,-9,-14,-78,-73,-39,-29,-14
-24,-24,0,24,-12,-12,-14,-78,-78,-43,-29,-19
-29,-24,4,26,-17,-9,-14,-78,-87,-48,-39,-19
-29,-24,4,26,-17,-9,-14,-78,-92,-48,-43,-24
-34,-24,9,29,-21,-7,-14,-78,-92,-48,-39,-24
-39,-29,9,34,-24,-9,-9,-78,-92,-53,-39,-24
-39,-29,9,34,-24,-9,-9,-78,-92,-58,-48,-24
-39,-29,9,34,-24,-9,-9,-78,-92,-63,-53,-24
-43,-29,14,36,-29,-7,-9,-78,-97,-63,-53,-24
-43,-29,14,36,-29,-7,-9,-73,-97,-63,-58,-29
-43,-29,14,36,-29,-7,-4,-68,-92,-63,-53,-29
-43,-29,14,36,-29,-7,-4,-68,-92,-63,-48,-29
-53,-29,24,41,-39,-2,0,-68,-92,-63,-53,-29
-53,-34,19,43,-36,-7,0,-68,-92,-63,-53,-29
-53,-34,19,43,-36,-7,4,-63,-87,-63,-53,-34
-53,-39,14,46,-34,-12,4,-63,-82,-63,-48,-39
-58,-39,19,48,-39,-9,4,-63,-87,-63,-53,-39
-63,-34,29,48,-46,-2,4,-63,-87,-68,-53,-39
-63,-29,34,46,-48,2,4,-63,-87,-63,-53,-39
-63,-29,34,46,-48,2,4,-58,-87,-63,-53,-39
-63,-34,29,48,-46,-2,4,-58,-82,-63,-53,-39
-68,-34,34,51,-51,0,4,-58,-82,-63,-58,-39
-68,-34,34,51,-51,0,4,-63,-82,-63,-58,-39
-68,-34,34,51,-51,0,4,-63,-82,-63,-53,-39
-68,-34,34,51,-51,0,4,-63,-82,-63,-53,-39
-68,-34,34,51,-51,0,4,-63,-78,-63,-58,-39
-68,-34,34,51,-51,0,4,-63,-82,-68,-58,-39
-68,-34,34,51,-51,0,4,-68,-82,-68,-58,-43
-68,-34,34,51,-51,0,4,-68,-87,-68,-53,-39
-68,-39,29,53,-48,-4,0,-68,-87,-68,-53,-34
-68,-39,29,53,-48,-4,0,-73,-87,-68,-53,-34
-68,-39,29,53,-48,-4,0,-73,-92,-68,-53,-34
-68,-39,29,53,-48,-4,0,-73,-92,-73,-53,-39
