I,II,III,aVR,aVL,aVF,V1,V2,V3,V4,V5,V6,
-107,-107,0,107,-53,-53,58,29,-9,-78,-97,-117
-107,-107,0,107,-53,-53,58,29,-9,-78,-97,-117
-107,-107,0,107,-53,-53,58,29,-9,-78,-97,-117
-107,-107,0,107,-53,-53,58,29,-9,-78,-97,-117
-107,-107,0,107,-53,-53,58,29,0,-68,-97,-107
-107,-107,0,107,-53,-53,58,29,0,-68,-97,-107
-107,-107,0,107,-53,-53,58,29,0,-68,-97,-107
-107,-107,0,107,-53,-53,58,29,0,-68,-97,-107
-107,-107,0,107,-53,-53,68,39,0,-68,-87,-107
-107,-107,0,107,-53,-53,68,39,0,-68,-87,-107
-107,-107,0,107,-53,-53,68,39,0,-68,-87,-107
-107,-107,0,107,-53,-53,68,39,0,-68,-87,-107
-117,-107,9,112,-63,-48,68,39,0,-68,-78,-97
-117,-107,9,112,-63,-48,68,39,0,-68,-78,-97
-117,-107,9,112,-63,-48,68,39,0,-68,-78,-97
-117,-107,9,112,-63,-48,68,39,0,-68,-78,-97
-107,-107,0,107,-53,-53,58,29,-9,-78,-87,-107
-97,-107,-9,102,-43,-58,58,29,-9,-78,-87,-107
-87,-107,-19,97,-34,-63,58,29,-9,-78,-87,-107
-78,-107,-29,92,-24,-68,58,29,-9,-78,-87,-107
-78,-97,-19,87,-29,-58,58,29,0,-68,-87,-97
-78,-97,-19,87,-29,-58,58,29,0,-68,-87,-97
-78,-97,-19,87,-29,-58,58,29,0,-68,-87,-97
-78,-97,-19,87,-29,-58,58,29,0,-68,-87,-97
-87,-97,-9,92,-39,-53,58,29,0,-68,-87,-97
-87,-97,-9,92,-39,-53,58,29,0,-68,-87,-97
-87,-97,-9,92,-39,-53,58,29,0,-68,-87,-97
-87,-97,-9,92,-39,-53,58,29,0,-68,-87,-97
-87,-107,-19,97,-34,-63,58,29,-9,-68,-87,-87
-87,-107,-19,97,-34,-63,58,29,-9,-68,-87,-87
-87,-107,-19,97,-34,-63,58,29,-9,-68,-87,-87
-87,-107,-19,97,-34,-63,58,29,-9,-68,-87,-87
-92,-107,-14,100,-39,-61,68,39,0,-68,-78,-87
-97,-107,-9,102,-43,-58,68,39,0,-68,-78,-87
-102,-107,-4,104,-48,-56,68,39,0,-68,-78,-87
-107,-107,0,107,-53,-53,68,39,0,-68,-78,-87
-122,-107,14,114,-68,-46,78,48,9,-58,-68,-78
-126,-107,19,117,-73,-43,78,48,9,-58,-68,-78
-131,-107,24,119,-78,-41,78,48,9,-58,-68,-78
-136,-107,29,122,-82,-39,78,48,9,-58,-68,-78
-112,-107,4,109,-58,-51,63,34,0,-73,-82,-82
-97,-107,-9,102,-43,-58,58,29,-9,-78,-87,-87
-82,-107,-24,95,-29,-65,53,24,-19,-82,-92,-92
-68,-107,-39,87,-14,-73,48,19,-29,-87,-97,-97
-78,-107,-29,92,-24,-68,58,29,-19,-78,-87,-97
-87,-107,-19,97,-34,-63,58,29,-19,-78,-87,-97
-97,-107,-9,102,-43,-58,58,29,-19,-78,-87,-97
-107,-107,0,107,-53,-53,58,29,-19,-78,-87,-97
-97,-107,-9,102,-43,-58,58,19,-19,-87,-87,-97
-97,-107,-9,102,-43,-58,58,19,-19,-87,-87,-97
-97,-107,-9,102,-43,-58,58,19,-19,-87,-87,-97
-97,-107,-9,102,-43,-58,58,19,-19,-87,-87,-97
-107,-107,0,107,-53,-53,58,19,-19,-87,-87,-97
-107,-107,0,107,-53,-53,58,19,-19,-87,-87,-97
-107,-107,0,107,-53,-53,58,19,-19,-87,-87,-97
-107,-107,0,107,-53,-53,58,19,-19,-87,-87,-97
-102,-117,-14,109,-43,-65,58,19,-29,-87,-92,-107
-97,-117,-19,107,-39,-68,58,19,-29,-87,-97,-107
-92,-117,-24,104,-34,-70,58,19,-29,-87,-102,-107
-87,-117,-29,102,-29,-73,58,19,-29,-87,-107,-107
-87,-117,-29,102,-29,-73,58,19,-29,-87,-97,-107
-87,-117,-29,102,-29,-73,58,19,-29,-87,-97,-107
-87,-117,-29,102,-29,-73,58,19,-29,-87,-97,-107
-87,-117,-29,102,-29,-73,58,19,-29,-87,-97,-107
-92,-112,-19,102,-36,-65,68,29,-19,-78,-87,-97
-97,-107,-9,102,-43,-58,68,29,-19,-78,-87,-97
-102,-102,0,102,-51,-51,68,29,-19,-78,-87,-97
-107,-97,9,102,-58,-43,68,29,-19,-78,-87,-97
-107,-82,24,95,-65,-29,82,39,-9,-78,-87,-87
-97,-78,19,87,-58,-29,82,43,-9,-78,-87,-87
-97,-78,19,87,-58,-29,87,48,-9,-78,-87,-87
-92,-73,19,82,-56,-26,92,53,-9,-78,-87,-82
-102,-82,19,92,-61,-31,92,58,-9,-68,-78,-82
-102,-78,24,90,-63,-26,92,58,-4,-68,-78,-82
-102,-78,24,90,-63,-26,97,58,0,-63,-78,-82
-102,-73,29,87,-65,-21,102,63,4,-58,-78,-78
-112,-68,43,90,-78,-12,112,73,9,-53,-63,-68
-112,-63,48,87,-80,-7,112,73,14,-53,-58,-68
-112,-63,48,87,-80,-7,117,73,24,-53,-58,-68
-112,-58,53,85,-82,-2,117,73,34,-53,-53,-68
-107,-48,58,78,-82,4,102,58,34,-48,-63,-58
-87,-29,58,58,-73,14,102,58,34,-48,-63,-58
-78,-4,73,41,-75,34,102,58,34,-39,-53,-53
-73,19,92,26,-82,56,97,53,34,-34,-48,-48
-53,19,73,17,-63,46,82,43,39,-34,-53,-48
-43,29,73,7,-58,51,68,29,34,-34,-48,-43
-39,29,68,4,-53,48,58,24,29,-39,-48,-48
-34,29,63,2,-48,46,53,19,19,-43,-48,-53
-43,19,63,12,-53,41,53,34,29,-43,-48,-53
-43,14,58,14,-51,36,53,34,29,-48,-48,-48
-43,14,58,14,-51,36,48,24,29,-48,-48,-48
-43,19,63,12,-53,41,43,24,29,-48,-43,-48
-53,29,82,12,-68,56,48,24,39,-34,-34,-34
-48,39,87,4,-68,63,43,14,34,-34,-39,-34
-34,39,73,-2,-53,56,39,9,34,-39,-39,-34
-24,43,68,-9,-46,56,29,9,34,-39,-34,-34
-34,39,73,-2,-53,56,39,19,34,-34,-34,-29
-39,43,82,-2,-61,63,39,19,39,-34,-34,-29
-43,43,87,0,-65,65,39,19,39,-34,-34,-29
-43,39,82,2,-63,61,39,19,34,-39,-39,-34
-34,19,53,7,-43,36,24,0,19,-48,-48,-43
-34,4,39,14,-36,21,19,0,9,-58,-53,-58
-43,-4,39,24,-41,17,14,-4,0,-68,-58,-58
-48,-19,29,34,-39,4,14,-4,-9,-78,-78,-68
-53,-29,24,41,-39,-2,14,4,-9,-78,-82,-73
-68,-39,29,53,-48,-4,24,9,-9,-78,-82,-73
-73,-53,19,63,-46,-17,34,14,-14,-78,-82,-78
-82,-63,19,73,-51,-21,34,14,-14,-78,-87,-78
-87,-92,-4,90,-41,-48,43,14,-19,-82,-92,-82
-92,-102,-9,97,-41,-56,39,14,-29,-87,-97,-92
-97,-117,-19,107,-39,-68,39,9,-39,-102,-112,-97
-102,-117,-14,109,-43,-65,39,0,-48,-112,-117,-107
-97,-112,-14,104,-41,-63,24,-9,-63,-117,-112,-122
-92,-122,-29,107,-31,-75,24,-9,-63,-117,-112,-122
-92,-122,-29,107,-31,-75,24,-9,-68,-117,-112,-122
-87,-122,-34,104,-26,-78,24,-9,-68,-122,-112,-122
-97,-131,-34,114,-31,-82,34,0,-63,-112,-107,-112
-102,-136,-34,119,-34,-85,34,0,-58,-112,-107,-117
-112,-141,-29,126,-41,-85,34,0,-53,-112,-107,-117
-117,-146,-29,131,-43,-87,34,0,-48,-112,-107,-117
-117,-146,-29,131,-43,-87,34,-4,-63,-112,-107,-107
-117,-146,-29,131,-43,-87,34,-4,-63,-117,-112,-112
-112,-146,-34,129,-39,-90,34,-4,-68,-117,-112,-117
-112,-156,-43,134,-34,-100,29,-4,-68,-122,-117,-117
-112,-146,-34,129,-39,-90,29,-4,-68,-122,-126,-117
-117,-151,-34,134,-41,-92,29,-4,-68,-122,-126,-117
-117,-151,-34,134,-41,-92,29,-4,-73,-126,-126,-117
-117,-151,-34,134,-41,-92,29,-4,-73,-126,-131,-117
-117,-151,-34,134,-41,-92,19,-4,-73,-136,-131,-131
-112,-151,-39,131,-36,-95,19,-4,-73,-136,-131,-131
-112,-156,-43,134,-34,-100,29,-4,-73,-136,-131,-131
-107,-156,-48,131,-29,-102,29,0,-73,-136,-126,-126
-112,-161,-48,136,-31,-104,39,0,-73,-126,-126,-117
-117,-161,-43,139,-36,-102,39,0,-78,-126,-131,-117
-122,-165,-43,143,-39,-104,34,0,-78,-131,-131,-126
-126,-165,-39,146,-43,-102,34,-9,-82,-131,-131,-126
-131,-165,-34,148,-48,-100,43,-4,-78,-122,-122,-117
-136,-165,-29,151,-53,-97,43,0,-73,-122,-122,-117
-141,-165,-24,153,-58,-95,39,4,-68,-122,-126,-122
-141,-165,-24,153,-58,-95,39,9,-68,-122,-126,-122
-151,-165,-14,158,-68,-90,53,9,-68,-112,-117,-117
-156,-170,-14,163,-70,-92,53,9,-68,-117,-117,-117
-156,-170,-14,163,-70,-92,53,9,-68,-117,-117,-117
-161,-165,-4,163,-78,-85,53,14,-63,-117,-117,-117
-136,-156,-19,146,-58,-87,39,0,-78,-131,-131,-136
-122,-156,-34,139,-43,-95,34,-4,-82,-136,-136,-141
-102,-161,-58,131,-21,-109,29,-14,-92,-141,-141,-141
-87,-161,-73,124,-7,-117,24,-19,-97,-146,-146,-146
-73,-161,-87,117,7,-124,24,-19,-97,-146,-146,-146
-112,-165,-53,139,-29,-109,34,-4,-82,-131,-141,-136
-97,-185,-87,141,-4,-136,48,19,-82,-122,-131,-136
-82,-204,-122,143,19,-163,63,63,-73,-122,-141,-156
-58,-229,-170,143,56,-200,97,112,-58,-126,-161,-180
-58,-234,-175,146,58,-204,126,151,-34,-117,-161,-209
-58,-214,-156,136,48,-185,146,190,14,-92,-151,-200
-58,-175,-117,117,29,-146,151,214,73,-39,-112,-180
-43,-151,-107,97,31,-129,161,248,136,29,-58,-146
-34,-117,-82,75,24,-100,165,263,200,97,4,-87
9,-73,-82,31,46,-78,170,273,273,175,92,0
73,-19,-92,-26,82,-56,161,273,356,283,200,107
146,29,-117,-87,131,-43,131,224,419,385,326,244
224,112,-112,-168,168,0,48,63,400,463,458,409
322,219,-102,-270,212,58,-97,-161,317,517,619,614
439,326,-112,-383,275,107,-244,-366,219,585,795,854
541,448,-92,-495,317,178,-356,-507,131,683,1005,1102
629,595,-34,-612,331,280,-434,-610,39,780,1234,1366
722,746,24,-734,348,385,-546,-712,-58,878,1424,1586
819,863,43,-841,387,453,-692,-829,-156,956,1605,1771
897,932,34,-915,431,483,-839,-927,-287,1005,1756,1932
946,941,-4,-944,475,468,-980,-1019,-439,1005,1859,2049
941,902,-39,-922,490,431,-1112,-1146,-610,927,1864,2088
868,790,-78,-829,473,356,-1161,-1254,-780,771,1708,1966
746,590,-156,-668,451,217,-1122,-1254,-907,561,1400,1659
585,356,-229,-470,407,63,-1015,-1185,-951,356,1044,1244
448,161,-287,-305,368,-63,-922,-1112,-971,161,702,824
297,14,-283,-156,290,-134,-834,-1000,-907,4,375,409
126,-92,-219,-17,173,-156,-712,-849,-810,-161,68,73
29,-146,-175,58,102,-161,-575,-707,-722,-302,-136,-78
9,-190,-200,90,104,-195,-453,-575,-644,-390,-239,-112
-29,-204,-175,117,73,-190,-326,-439,-527,-390,-273,-141
-58,-214,-156,136,48,-185,-209,-307,-395,-287,-214,-136
-53,-200,-146,126,46,-173,-126,-175,-258,-165,-117,-87
-43,-175,-131,109,43,-153,-58,-97,-175,-97,-78,-58
-29,-151,-122,90,46,-136,-24,-43,-122,-58,-48,-43
-29,-136,-107,82,39,-122,0,-9,-87,-34,-24,-34
-29,-131,-102,80,36,-117,14,4,-68,-29,-24,-43
-48,-141,-92,95,21,-117,24,14,-63,-39,-34,-48
-53,-141,-87,97,17,-114,24,9,-58,-43,-43,-58
-68,-131,-63,100,-2,-97,29,24,-48,-43,-43,-63
-68,-136,-68,102,0,-102,39,19,-48,-43,-53,-68
-78,-136,-58,107,-9,-97,43,29,-43,-43,-53,-73
-87,-136,-48,112,-19,-92,58,39,-39,-43,-53,-73
-87,-141,-53,114,-17,-97,63,48,-29,-43,-53,-73
-87,-141,-53,114,-17,-97,58,53,-19,-43,-48,-78
-82,-141,-58,112,-12,-100,58,53,-19,-48,-53,-82
-82,-141,-58,112,-12,-100,63,53,-19,-48,-53,-82
-82,-141,-58,112,-12,-100,63,58,-19,-48,-53,-82
-78,-136,-58,107,-9,-97,78,68,-9,-39,-53,-82
-78,-136,-58,107,-9,-97,78,73,-4,-39,-58,-82
-78,-136,-58,107,-9,-97,82,73,0,-39,-58,-92
-73,-136,-63,104,-4,-100,82,78,0,-39,-58,-92
-73,-146,-73,109,0,-109,82,68,0,-34,-58,-92
-78,-146,-68,112,-4,-107,82,73,4,-34,-58,-92
-78,-146,-68,112,-4,-107,82,73,4,-34,-58,-87
-78,-141,-63,109,-7,-102,82,73,4,-34,-58,-87
-82,-141,-58,112,-12,-100,92,87,4,-24,-43,-82
-92,-141,-48,117,-21,-95,97,87,9,-19,-43,-73
-102,-141,-39,122,-31,-90,97,87,14,-19,-43,-68
-107,-141,-34,124,-36,-87,102,92,14,-19,-39,-63
-102,-141,-39,122,-31,-90,102,92,24,-14,-39,-63
-97,-141,-43,119,-26,-92,97,92,29,-14,-39,-63
-97,-141,-43,119,-26,-92,92,92,29,-14,-39,-63
-97,-141,-43,119,-26,-92,92,92,29,-14,-39,-63
-78,-131,-53,104,-12,-92,87,87,24,-19,-43,-68
-58,-126,-68,92,4,-97,82,78,19,-24,-48,-73
-43,-126,-82,85,19,-104,78,73,14,-24,-48,-78
-34,-126,-92,80,29,-109,73,73,9,-24,-48,-78
-39,-126,-87,82,24,-107,63,78,9,-24,-48,-68
-34,-126,-92,80,29,-109,63,78,9,-24,-48,-68
-39,-126,-87,82,24,-107,63,78,14,-24,-48,-63
-48,-122,-73,85,12,-97,68,78,19,-19,-43,-63
-48,-122,-73,85,12,-97,68,78,19,-4,-39,-63
-48,-117,-68,82,9,-92,68,78,19,-4,-39,-63
-48,-117,-68,82,9,-92,68,78,24,-4,-34,-58
-43,-122,-78,82,17,-100,68,82,24,0,-34,-58
-43,-112,-68,78,12,-90,78,82,24,4,-24,-68
-39,-112,-73,75,17,-92,78,82,24,4,-24,-68
-39,-107,-68,73,14,-87,78,82,24,4,-24,-63
-39,-107,-68,73,14,-87,78,82,24,4,-24,-63
-43,-107,-63,75,9,-85,78,87,24,4,-19,-53
-43,-107,-63,75,9,-85,78,87,24,14,-14,-48
-39,-102,-63,70,12,-82,78,92,29,19,-14,-43
-39,-102,-63,70,12,-82,78,92,29,19,-14,-43
-34,-97,-63,65,14,-80,78,92,39,19,-4,-58
-34,-97,-63,65,14,-80,78,92,39,19,4,-58
-39,-97,-58,68,9,-78,78,97,39,19,4,-53
-39,-97,-58,68,9,-78,78,97,48,19,4,-48
-48,-97,-48,73,0,-73,78,97,48,34,4,-39
-39,-97,-58,68,9,-78,78,97,48,34,9,-34
-39,-92,-53,65,7,-73,78,102,48,39,9,-29
-34,-92,-58,63,12,-75,78,102,48,43,19,-29
-29,-82,-53,56,12,-68,68,92,39,34,9,-39
-24,-82,-58,53,17,-70,68,92,39,34,9,-34
-19,-78,-58,48,19,-68,68,92,43,39,19,-34
-14,-78,-63,46,24,-70,63,92,43,43,19,-34
-14,-78,-63,46,24,-70,58,92,53,43,19,-24
-9,-73,-63,41,26,-68,58,92,53,43,19,-19
-9,-73,-63,41,26,-68,58,92,53,43,29,-14
-4,-73,-68,39,31,-70,58,92,53,53,29,-14
-4,-78,-73,41,34,-75,63,102,53,58,29,-14
-4,-78,-73,41,34,-75,63,102,53,58,39,-9
-4,-78,-73,41,34,-75,63,112,63,63,39,-9
-4,-73,-68,39,31,-70,58,112,68,68,43,0
4,-73,-78,34,41,-75,48,102,58,73,48,4
4,-68,-73,31,39,-70,48,102,63,73,53,9
9,-68,-78,29,43,-73,48,107,63,78,58,9
14,-68,-82,26,48,-75,43,107,63,82,63,14
19,-63,-82,21,51,-73,43,107,63,97,63,19
24,-53,-78,14,51,-65,39,107,63,97,73,19
24,-53,-78,14,51,-65,39,107,63,102,78,24
24,-53,-78,14,51,-65,34,107,63,107,82,29
34,-43,-78,4,56,-61,34,107,63,112,102,34
39,-39,-78,0,58,-58,34,107,68,117,102,34
48,-39,-87,-4,68,-63,24,112,68,122,107,39
53,-29,-82,-12,68,-56,24,112,68,126,112,43
68,-29,-97,-19,82,-63,24,112,73,131,117,53
78,-24,-102,-26,90,-63,19,112,73,136,122,63
87,-19,-107,-34,97,-63,14,117,73,141,126,68
97,-14,-112,-41,104,-63,9,117,73,146,131,73
102,0,-102,-51,102,-51,4,117,73,151,151,82
112,4,-107,-58,109,-51,0,117,73,161,156,87
112,4,-107,-58,109,-51,0,117,73,165,170,97
122,9,-112,-65,117,-51,-4,117,73,175,180,107
141,14,-126,-78,134,-56,-9,122,78,185,190,122
151,19,-131,-85,141,-56,-14,122,78,190,195,136
161,24,-136,-92,148,-56,-19,122,78,204,204,146
170,29,-141,-100,156,-56,-24,122,78,204,214,156
175,39,-136,-107,156,-48,-34,126,82,219,244,170
180,43,-136,-112,158,-46,-39,126,87,229,253,180
195,43,-151,-119,173,-53,-43,126,87,229,263,195
204,53,-151,-129,178,-48,-48,126,87,244,273,204
214,63,-151,-139,183,-43,-53,117,87,253,283,214
224,68,-156,-146,190,-43,-58,117,92,253,292,224
224,73,-151,-148,187,-39,-63,117,92,263,302,234
239,78,-161,-158,200,-41,-68,117,87,268,312,248
244,82,-161,-163,202,-39,-73,117,87,278,312,253
248,87,-161,-168,204,-36,-73,117,82,292,317,263
253,92,-161,-173,207,-34,-78,117,82,292,326,273
258,97,-161,-178,209,-31,-82,117,82,292,336,283
263,102,-161,-183,212,-29,-87,117,82,292,346,287
278,107,-170,-192,224,-31,-92,112,82,297,351,292
283,107,-175,-195,229,-34,-97,107,78,297,351,292
283,107,-175,-195,229,-34,-97,107,78,302,351,302
278,107,-170,-192,224,-31,-87,117,78,302,356,312
273,112,-161,-192,217,-24,-87,117,78,302,361,312
263,112,-151,-187,207,-19,-87,117,78,302,361,312
253,107,-146,-180,200,-19,-82,122,78,297,361,312
239,97,-141,-168,190,-21,-73,122,78,283,346,297
229,97,-131,-163,180,-17,-68,122,78,278,336,292
209,92,-117,-151,163,-12,-63,122,82,273,331,287
190,87,-102,-139,146,-7,-53,122,82,268,317,283
170,82,-87,-126,129,-2,-34,131,92,253,287,258
146,73,-73,-109,109,0,-29,126,92,234,273,239
126,68,-58,-97,92,4,-19,126,92,219,253,219
102,63,-39,-82,70,12,-14,122,87,200,229,195
107,53,-53,-80,80,0,-9,112,82,170,190,165
97,43,-53,-70,75,-4,-9,102,78,151,165,136
92,39,-53,-65,73,-7,0,92,63,131,146,112
87,29,-58,-58,73,-14,0,87,58,107,112,82
73,9,-63,-41,68,-26,4,73,43,82,82,58
53,0,-53,-26,53,-26,14,68,43,68,63,39
43,-9,-53,-17,48,-31,14,63,34,43,43,19
34,-14,-48,-9,41,-31,19,53,29,29,24,0
24,-9,-34,-7,29,-21,34,58,34,24,14,-14
9,-19,-29,4,19,-24,39,53,29,9,0,-24
-4,-29,-24,17,9,-26,39,48,19,4,-19,-43
-24,-39,-14,31,-4,-26,43,43,19,-9,-29,-53
-43,-39,4,41,-24,-17,48,48,24,-14,-34,-58
-58,-43,14,51,-36,-14,48,43,24,-24,-34,-68
-73,-48,24,61,-48,-12,53,43,19,-29,-48,-68
-87,-53,34,70,-61,-9,53,43,19,-34,-53,-63
-82,-58,24,70,-53,-17,48,29,4,-43,-58,-82
-82,-63,19,73,-51,-21,48,24,-4,-53,-68,-92
-78,-63,14,70,-46,-24,43,19,-4,-63,-78,-97
-73,-63,9,68,-41,-26,43,19,-9,-63,-82,-102
-73,-58,14,65,-43,-21,43,24,-19,-68,-87,-97
-73,-63,9,68,-41,-26,43,24,-19,-68,-92,-97
-82,-63,19,73,-51,-21,43,24,-19,-73,-92,-102
-82,-63,19,73,-51,-21,43,24,-29,-73,-92,-102
-82,-73,9,78,-46,-31,43,14,-19,-68,-97,-97
-82,-73,9,78,-46,-31,43,9,-24,-73,-102,-102
-82,-73,9,78,-46,-31,48,9,-24,-73,-102,-102
-92,-73,19,82,-56,-26,48,14,-24,-68,-102,-102
-102,-82,19,92,-61,-31,48,24,-14,-68,-102,-112
-102,-78,24,90,-63,-26,43,14,-14,-73,-102,-112
-102,-78,24,90,-63,-26,43,14,-14,-73,-102,-112
-102,-78,24,90,-63,-26,43,14,-19,-73,-102,-117
-112,-73,39,92,-75,-17,53,24,-19,-73,-102,-112
-117,-73,43,95,-80,-14,53,24,-19,-73,-102,-107
-117,-78,39,97,-78,-19,53,24,-19,-73,-97,-102
-117,-78,39,97,-78,-19,53,19,-24,-73,-92,-97
-107,-73,34,90,-70,-19,43,9,-24,-82,-97,-107
-107,-73,34,90,-70,-19,43,9,-24,-82,-102,-107
-102,-73,29,87,-65,-21,43,9,-24,-87,-107,-112
-102,-73,29,87,-65,-21,43,9,-24,-87,-112,-112
-107,-73,34,90,-70,-19,53,9,-29,-87,-107,-112
-107,-73,34,90,-70,-19,53,9,-29,-87,-107,-112
-112,-73,39,92,-75,-17,53,9,-29,-87,-107,-112
-112,-73,39,92,-75,-17,53,9,-29,-87,-107,-112
-97,-73,24,85,-61,-24,43,9,-29,-87,-122,-122
-97,-78,19,87,-58,-29,43,9,-34,-87,-122,-122
-97,-78,19,87,-58,-29,43,9,-39,-87,-117,-122
-97,-78,19,87,-58,-29,43,9,-39,-87,-117,-122
-97,-78,19,87,-58,-29,43,0,-39,-87,-112,-122
-97,-78,19,87,-58,-29,43,0,-39,-87,-112,-122
-92,-78,14,85,-53,-31,43,-4,-39,-87,-112,-122
-92,-78,14,85,-53,-31,43,-4,-39,-87,-117,-126
-92,-68,24,80,-58,-21,43,4,-29,-87,-117,-126
-92,-68,24,80,-58,-21,43,4,-29,-87,-112,-126
-92,-68,24,80,-58,-21,43,9,-29,-82,-112,-126
-97,-68,29,82,-63,-19,43,9,-24,-82,-112,-126
-107,-68,39,87,-73,-14,53,19,-24,-73,-102,-117
-107,-68,39,87,-73,-14,53,19,-24,-73,-102,-117
-107,-73,34,90,-70,-19,53,19,-24,-73,-102,-117
-112,-73,39,92,-75,-17,58,29,-24,-73,-102,-112
-102,-73,29,87,-65,-21,48,19,-34,-82,-112,-112
-102,-73,29,87,-65,-21,43,14,-34,-82,-112,-117
-102,-73,29,87,-65,-21,43,14,-34,-82,-112,-117
-102,-73,29,87,-65,-21,43,19,-34,-82,-112,-112
-92,-73,19,82,-56,-26,48,9,-24,-73,-112,-122
-87,-68,19,78,-53,-24,48,9,-24,-73,-112,-122
-87,-68,19,78,-53,-24,43,9,-24,-73,-112,-122
-87,-68,19,78,-53,-24,43,9,-24,-73,-112,-122
-92,-68,24,80,-58,-21,53,19,-14,-73,-102,-117
-97,-73,24,85,-61,-24,53,19,-14,-73,-102,-117
-102,-73,29,87,-65,-21,53,19,-9,-73,-102,-117
-102,-68,34,85,-68,-17,53,24,-4,-68,-102,-117
-112,-68,43,90,-78,-12,63,34,-14,-68,-107,-117
-112,-68,43,90,-78,-12,63,34,-14,-68,-107,-117
-112,-68,43,90,-78,-12,58,34,-14,-68,-107,-117
-112,-68,43,90,-78,-12,58,34,-14,-68,-102,-117
-102,-68,34,85,-68,-17,53,24,-14,-58,-102,-112
-102,-68,34,85,-68,-17,53,29,-14,-58,-97,-112
-102,-68,34,85,-68,-17,48,29,-14,-58,-97,-112
-97,-68,29,82,-63,-19,48,24,-9,-53,-102,-112
-92,-68,24,80,-58,-21,48,24,-19,-63,-102,-112
-87,-68,19,78,-53,-24,48,24,-19,-63,-102,-112
-82,-68,14,75,-48,-26,48,24,-24,-63,-102,-112
-78,-68,9,73,-43,-29,48,24,-24,-63,-107,-112
-87,-68,19,78,-53,-24,48,29,-9,-63,-97,-102
-87,-68,19,78,-53,-24,48,29,-9,-63,-92,-102
-82,-68,14,75,-48,-26,48,24,-14,-63,-92,-102
-82,-68,14,75,-48,-26,48,24,-14,-58,-92,-102
-87,-78,9,82,-48,-34,58,34,-9,-48,-92,-102
-92,-78,14,85,-53,-31,58,34,-4,-53,-87,-97
-107,-78,29,92,-68,-24,58,34,-4,-53,-87,-92
-112,-78,34,95,-73,-21,58,34,-4,-53,-87,-92
-102,-68,34,85,-68,-17,63,39,-14,-48,-87,-92
-102,-68,34,85,-68,-17,63,39,-14,-48,-87,-92
-102,-68,34,85,-68,-17,63,34,-14,-48,-92,-92
-97,-68,29,82,-63,-19,58,34,-14,-53,-92,-97
-92,-78,14,85,-53,-31,48,29,-24,-58,-102,-107
-87,-78,9,82,-48,-34,48,24,-29,-63,-102,-107
-82,-78,4,80,-43,-36,48,19,-29,-68,-102,-107
-78,-78,0,78,-39,-39,48,14,-29,-78,-102,-107
-78,-78,0,78,-39,-39,53,24,-24,-68,-92,-107
-82,-78,4,80,-43,-36,53,24,-19,-63,-92,-107
-87,-78,9,82,-48,-34,53,24,-14,-63,-92,-107
-92,-78,14,85,-53,-31,58,24,-14,-63,-92,-107
-97,-78,19,87,-58,-29,58,24,-14,-53,-92,-97
-102,-78,24,90,-63,-26,58,24,-14,-53,-92,-97
-107,-78,29,92,-68,-24,58,24,-14,-58,-92,-97
-112,-78,34,95,-73,-21,58,24,-14,-63,-92,-97
-92,-78,14,85,-53,-31,53,9,-24,-68,-97,-102
-82,-78,4,80,-43,-36,48,9,-24,-73,-102,-107
-73,-78,-4,75,-34,-41,43,9,-24,-78,-107,-112
-63,-78,-14,70,-24,-46,34,9,-24,-82,-112,-117
-63,-87,-24,75,-19,-56,43,19,-29,-78,-112,-107
-68,-87,-19,78,-24,-53,43,19,-29,-78,-112,-107
-82,-87,-4,85,-39,-46,43,24,-24,-73,-112,-107
-92,-87,4,90,-48,-41,48,24,-24,-73,-112,-107
-82,-92,-9,87,-36,-51,48,24,-24,-73,-102,-107
-82,-92,-9,87,-36,-51,48,24,-24,-73,-102,-107
-82,-92,-9,87,-36,-51,48,24,-24,-73,-102,-107
-82,-92,-9,87,-36,-51,48,19,-24,-73,-102,-107
-92,-82,9,87,-51,-36,48,19,-19,-78,-102,-107
-87,-82,4,85,-46,-39,48,14,-19,-82,-107,-112
-87,-82,4,85,-46,-39,48,14,-19,-82,-112,-112
-87,-82,4,85,-46,-39,43,14,-29,-82,-112,-112
-87,-92,-4,90,-41,-48,43,24,-29,-82,-102,-112
-87,-92,-4,90,-41,-48,53,24,-24,-82,-102,-112
-97,-92,4,95,-51,-43,58,24,-14,-78,-102,-107
-102,-78,24,90,-63,-26,48,19,-24,-78,-112,-107
-97,-78,19,87,-58,-29,58,19,-19,-78,-107,-107
-97,-87,9,92,-53,-39,68,29,-19,-78,-97,-107
-97,-87,9,92,-53,-39,68,29,-19,-78,-97,-107
-97,-87,9,92,-53,-39,68,29,-19,-78,-97,-107
-97,-87,9,92,-53,-39,68,29,-19,-78,-97,-107
-97,-73,24,85,-61,-24,82,39,0,-73,-97,-97
-87,-68,19,78,-53,-24,82,43,0,-68,-97,-97
-87,-68,19,78,-53,-24,87,48,0,-63,-97,-97
-82,-63,19,73,-51,-21,92,53,0,-58,-97,-92
-82,-53,29,68,-56,-12,92,48,0,-68,-97,-102
-82,-48,34,65,-58,-7,92,48,4,-68,-97,-102
-82,-48,34,65,-58,-7,97,48,9,-63,-97,-102
-82,-43,39,63,-61,-2,102,53,14,-58,-97,-97
-92,-39,53,65,-73,7,102,73,14,-43,-92,-87
-92,-34,58,63,-75,12,102,73,14,-43,-87,-87
-92,-34,58,63,-75,12,107,73,19,-43,-87,-87
-92,-29,63,61,-78,17,107,73,24,-43,-82,-87
-97,-34,63,65,-80,14,112,78,39,-39,-73,-78
-87,-19,68,53,-78,24,112,78,43,-39,-73,-78
-87,0,87,43,-87,43,112,78,48,-29,-63,-73
-92,19,112,36,-102,65,107,73,53,-24,-58,-68
-82,29,112,26,-97,70,87,63,63,-19,-63,-63
-73,39,112,17,-92,75,78,48,63,-14,-58,-53
-68,39,107,14,-87,73,73,43,63,-14,-58,-53
-63,39,102,12,-82,70,73,39,58,-14,-58,-53
-53,48,102,2,-78,75,63,34,48,-24,-58,-63
-53,43,97,4,-75,70,63,34,48,-29,-58,-58
-53,43,97,4,-75,70,58,24,48,-29,-58,-58
-53,48,102,2,-78,75,53,24,48,-29,-53,-58
-53,39,92,7,-73,65,48,34,48,-24,-53,-53
-48,48,97,0,-73,73,43,24,43,-24,-58,-53
-34,48,82,-7,-58,65,39,19,43,-29,-58,-53
-24,53,78,-14,-51,65,29,19,43,-29,-53,-53
-24,58,82,-17,-53,70,29,9,43,-24,-43,-48
-29,63,92,-17,-61,78,29,9,48,-24,-43,-48
-34,63,97,-14,-65,80,29,9,48,-24,-43,-48
-34,58,92,-12,-63,75,29,9,43,-29,-48,-53
-43,58,102,-7,-73,80,29,9,43,-24,-53,-43
-43,43,87,0,-65,65,29,9,39,-29,-53,-58
-53,34,87,9,-70,61,29,4,34,-34,-53,-58
-58,19,78,19,-68,48,34,4,29,-39,-68,-68
-82,-9,73,46,-78,31,43,9,24,-39,-63,-63
-107,-19,87,63,-97,34,53,19,29,-39,-63,-63
-122,-34,87,78,-104,26,63,29,29,-39,-63,-68
-141,-43,97,92,-119,26,63,34,34,-39,-68,-68
-117,-63,53,90,-85,-4,58,29,14,-48,-78,-78
-102,-73,29,87,-65,-21,48,24,0,-58,-87,-92
-87,-87,0,87,-43,-43,43,14,-14,-78,-107,-102
-73,-87,-14,80,-29,-51,39,0,-29,-92,-117,-117
-73,-82,-9,78,-31,-46,24,-9,-34,-97,-131,-122
-73,-92,-19,82,-26,-56,24,-9,-34,-97,-131,-122
-78,-92,-14,85,-31,-53,24,-9,-39,-97,-131,-122
-78,-92,-14,85,-31,-53,24,-9,-39,-102,-131,-122
-82,-102,-19,92,-31,-61,34,0,-39,-102,-126,-122
-82,-107,-24,95,-29,-65,34,0,-39,-102,-126,-126
-87,-112,-24,100,-31,-68,34,0,-39,-102,-126,-126
-87,-117,-29,102,-29,-73,34,0,-39,-102,-126,-126
-87,-107,-19,97,-34,-63,24,-4,-43,-102,-136,-126
-87,-107,-19,97,-34,-63,24,-4,-43,-107,-141,-131
-82,-107,-24,95,-29,-65,24,-4,-48,-107,-141,-136
-82,-117,-34,100,-24,-75,19,-4,-48,-112,-146,-136
-92,-117,-24,104,-34,-70,29,-4,-48,-102,-136,-136
-97,-122,-24,109,-36,-73,29,-4,-48,-102,-136,-136
-97,-122,-24,109,-36,-73,29,-4,-53,-107,-136,-136
-97,-122,-24,109,-36,-73,29,-4,-53,-107,-141,-136
-112,-131,-19,122,-46,-75,19,-14,-53,-117,-141,-141
-112,-131,-19,122,-46,-75,19,-14,-53,-117,-141,-141
-117,-136,-19,126,-48,-78,29,-14,-53,-117,-141,-141
-117,-136,-19,126,-48,-78,29,-9,-53,-117,-136,-136
-126,-131,-4,129,-61,-68,39,0,-43,-107,-136,-126
-126,-131,-4,129,-61,-68,39,0,-48,-107,-141,-126
-126,-136,-9,131,-58,-73,34,0,-48,-112,-141,-136
-126,-136,-9,131,-58,-73,34,-9,-53,-112,-141,-136
-136,-136,0,136,-68,-68,43,0,-53,-112,-141,-136
-136,-136,0,136,-68,-68,43,0,-53,-112,-141,-136
-136,-136,0,136,-68,-68,39,0,-53,-112,-146,-141
-131,-136,-4,134,-63,-70,39,0,-58,-112,-146,-141
-112,-136,-24,124,-43,-80,39,-4,-68,-122,-156,-141
-107,-141,-34,124,-36,-87,34,-9,-68,-126,-156,-146
-97,-141,-43,119,-26,-92,29,-14,-68,-126,-156,-151
-92,-136,-43,114,-24,-90,24,-14,-63,-126,-156,-156
-102,-136,-34,119,-34,-85,24,-4,-63,-126,-146,-151
-102,-136,-34,119,-34,-85,24,-4,-63,-126,-146,-151
-97,-141,-43,119,-26,-92,24,-9,-68,-126,-146,-146
-97,-141,-43,119,-26,-92,24,-9,-68,-126,-146,-146
-112,-141,-29,126,-41,-85,24,-9,-58,-126,-146,-146
-112,-136,-24,124,-43,-80,34,-14,-53,-112,-151,-146
-126,-146,-19,136,-53,-82,39,0,-43,-112,-141,-146
-122,-156,-34,139,-43,-95,53,43,-43,-112,-151,-156
-87,-180,-92,134,2,-136,87,92,-29,-117,-161,-180
-87,-195,-107,141,9,-151,117,151,-14,-117,-170,-200
-97,-185,-87,141,-4,-136,146,190,34,-92,-161,-219
-78,-156,-78,117,0,-117,161,214,73,-58,-141,-209
-63,-122,-58,92,-2,-90,161,239,136,0,-97,-175
-43,-97,-53,70,4,-75,185,263,190,68,-43,-126
0,-63,-63,31,31,-63,190,273,263,136,34,-58
53,-19,-73,-17,63,-46,180,273,336,234,122,39
117,39,-78,-78,97,-19,161,234,409,336,239,156
185,112,-73,-148,129,19,97,102,419,414,361,302
292,219,-73,-256,183,73,-29,-122,366,468,492,488
409,326,-82,-368,246,122,-185,-336,268,527,658,707
531,429,-102,-480,317,163,-317,-517,161,605,849,946
649,575,-73,-612,361,251,-414,-639,58,712,1068,1200
732,736,4,-734,363,370,-527,-761,-29,819,1288,1429
810,854,43,-832,383,448,-673,-878,-117,897,1468,1634
888,932,43,-910,422,488,-829,-995,-239,966,1629,1815
956,980,24,-968,466,502,-990,-1107,-380,995,1751,1952
1000,971,-29,-985,514,470,-1141,-1224,-541,956,1795,2020
966,878,-87,-922,527,395,-1229,-1342,-712,829,1708,1976
854,697,-156,-775,505,270,-1210,-1371,-858,639,1488,1766
692,473,-219,-583,456,126,-1112,-1312,-932,434,1151,1400
575,268,-307,-422,441,-19,-1039,-1229,-951,229,810,1000
492,92,-400,-292,446,-153,-971,-1127,-907,82,512,614
331,-14,-346,-158,339,-180,-839,-956,-800,-53,234,258
146,-78,-224,-34,185,-151,-663,-785,-683,-195,-19,19
29,-131,-161,51,95,-146,-512,-644,-605,-322,-170,-82
-9,-165,-156,87,73,-161,-366,-497,-517,-361,-244,-112
-19,-165,-146,92,63,-156,-248,-346,-385,-297,-234,-126
-14,-151,-136,82,61,-143,-156,-224,-258,-185,-146,-97
-14,-126,-112,70,48,-119,-87,-136,-165,-97,-87,-68
-9,-112,-102,61,46,-107,-34,-63,-102,-48,-58,-53
0,-97,-97,48,48,-97,-9,-19,-68,-24,-43,-43
-9,-92,-82,51,36,-87,4,-4,-39,-19,-34,-34
-29,-82,-53,56,12,-68,14,-4,-34,-29,-34,-48
-53,-82,-29,68,-12,-56,24,0,-29,-24,-43,-58
-48,-92,-43,70,-2,-68,19,4,-29,-34,-53,-73
-58,-107,-48,82,-4,-78,29,9,-29,-43,-73,-78
-68,-107,-39,87,-14,-73,34,19,-24,-43,-73,-82
-78,-107,-29,92,-24,-68,48,29,-19,-43,-73,-82
-78,-112,-34,95,-21,-73,53,39,-9,-43,-73,-82
-87,-102,-14,95,-36,-58,58,53,0,-34,-68,-78
-82,-102,-19,92,-31,-61,58,53,0,-39,-73,-82
-82,-102,-19,92,-31,-61,63,53,0,-39,-73,-82
-82,-102,-19,92,-31,-61,63,58,0,-39,-73,-82
-73,-107,-34,90,-19,-70,58,53,0,-48,-82,-87
-68,-107,-39,87,-14,-73,58,53,4,-48,-87,-92
-63,-107,-43,85,-9,-75,63,48,9,-48,-87,-107
-53,-107,-53,80,0,-80,63,48,9,-48,-87,-112
-53,-97,-43,75,-4,-70,63,58,9,-43,-78,-112
-58,-97,-39,78,-9,-68,63,63,14,-43,-78,-112
-58,-97,-39,78,-9,-68,63,63,14,-43,-78,-107
-58,-92,-34,75,-12,-63,63,63,14,-43,-78,-107
-68,-92,-24,80,-21,-58,63,68,14,-34,-73,-97
-73,-92,-19,82,-26,-56,68,68,19,-29,-73,-92
-78,-92,-14,85,-31,-53,68,68,24,-29,-73,-92
-78,-92,-14,85,-31,-53,73,73,24,-29,-68,-92
-63,-92,-29,78,-17,-61,73,63,14,-34,-68,-92
-58,-92,-34,75,-12,-63,68,63,19,-34,-68,-92
-58,-92,-34,75,-12,-63,63,63,19,-34,-68,-92
-58,-92,-34,75,-12,-63,63,63,19,-34,-68,-92
-53,-92,-39,73,-7,-65,63,73,29,-34,-68,-92
-48,-87,-39,68,-4,-63,63,68,29,-34,-68,-92
-48,-87,-39,68,-4,-63,63,68,29,-29,-63,-92
-53,-87,-34,70,-9,-61,63,73,29,-24,-58,-87
-63,-87,-24,75,-19,-56,63,78,29,-14,-58,-78
-53,-87,-34,70,-9,-61,63,78,29,-14,-58,-78
-53,-87,-34,70,-9,-61,63,78,34,-14,-58,-73
-58,-82,-24,70,-17,-53,68,78,39,-9,-53,-73
-58,-82,-24,70,-17,-53,78,78,39,-4,-48,-73
-58,-78,-19,68,-19,-48,78,78,39,-4,-48,-73
-58,-78,-19,68,-19,-48,78,78,43,-4,-43,-68
-53,-82,-29,68,-12,-56,78,82,43,0,-43,-68
-63,-73,-9,68,-26,-41,87,87,48,14,-39,-63
-68,-73,-4,70,-31,-39,87,92,53,14,-34,-58
-78,-68,9,73,-43,-29,87,97,58,14,-29,-48
-87,-68,19,78,-53,-24,87,102,63,14,-24,-43
-63,-68,-4,65,-29,-36,82,92,58,0,-24,-58
-53,-68,-14,61,-19,-41,78,87,53,4,-24,-58
-39,-63,-24,51,-7,-43,73,87,53,4,-29,-58
-29,-63,-34,46,2,-48,68,82,48,0,-34,-63
-24,-68,-43,46,9,-56,58,82,48,9,-43,-68
-24,-68,-43,46,9,-56,58,82,48,9,-34,-68
-29,-68,-39,48,4,-53,58,87,48,9,-34,-63
-29,-68,-39,48,4,-53,58,87,58,9,-34,-58
-19,-58,-39,39,9,-48,58,78,48,14,-34,-68
-9,-58,-48,34,19,-53,58,78,48,14,-29,-63
-9,-53,-43,31,17,-48,58,82,48,19,-29,-58
-4,-53,-48,29,21,-51,58,82,48,24,-19,-58
-9,-63,-53,36,21,-58,68,92,58,34,-9,-48
-14,-63,-48,39,17,-56,68,92,58,34,-9,-43
-19,-58,-39,39,9,-48,68,92,63,39,0,-43
-24,-58,-34,41,4,-46,63,92,63,43,0,-43
-24,-48,-24,36,0,-36,58,92,73,43,0,-43
-19,-43,-24,31,2,-34,58,92,73,43,0,-39
-19,-43,-24,31,2,-34,58,92,73,43,9,-34
-14,-43,-29,29,7,-36,58,92,73,53,9,-34
-9,-39,-29,24,9,-34,43,92,63,48,0,-34
-4,-39,-34,21,14,-36,43,92,63,48,9,-29
0,-39,-39,19,19,-39,43,102,73,53,9,-29
4,-34,-39,14,21,-36,39,102,78,58,14,-19
14,-34,-48,9,31,-41,39,102,68,73,29,-14
14,-29,-43,7,29,-36,39,102,73,73,34,-9
19,-29,-48,4,34,-39,39,107,73,78,39,-9
24,-29,-53,2,39,-41,34,107,73,82,43,-4
34,-34,-68,0,51,-51,43,107,78,87,43,0
34,-24,-58,-4,46,-41,39,107,82,87,53,0
29,-24,-53,-2,41,-39,39,107,87,92,58,4
24,-24,-48,0,36,-36,34,107,92,97,63,9
43,-14,-58,-14,51,-36,34,117,92,102,73,14
48,-9,-58,-19,53,-34,34,117,97,107,73,14
58,-9,-68,-24,63,-39,24,122,97,112,78,19
63,0,-63,-31,63,-31,24,122,97,117,82,24
68,0,-68,-34,68,-34,24,122,102,122,97,34
78,4,-73,-41,75,-34,19,122,102,126,102,43
87,9,-78,-48,82,-34,14,126,102,131,107,48
97,14,-82,-56,90,-34,9,126,102,136,112,53
107,19,-87,-63,97,-34,14,126,112,151,122,73
112,24,-87,-68,100,-31,9,126,112,161,126,78
107,24,-82,-65,95,-29,9,126,112,165,141,87
112,29,-82,-70,97,-26,4,126,112,175,151,97
122,34,-87,-78,104,-26,0,141,117,185,170,102
131,39,-92,-85,112,-26,-4,141,117,190,175,117
141,43,-97,-92,119,-26,-9,141,117,204,185,126
151,48,-102,-100,126,-26,-14,141,117,204,195,136
165,58,-107,-112,136,-24,-14,136,112,209,204,141
170,63,-107,-117,139,-21,-19,136,117,219,214,151
185,63,-122,-124,153,-29,-24,136,117,219,224,165
195,73,-122,-134,158,-24,-29,136,117,234,234,175
204,82,-122,-143,163,-19,-34,136,126,244,253,195
214,87,-126,-151,170,-19,-39,136,131,244,263,204
214,92,-122,-153,168,-14,-43,136,131,253,273,214
229,97,-131,-163,180,-17,-48,136,126,258,283,229
234,102,-131,-168,183,-14,-53,146,126,268,292,234
239,107,-131,-173,185,-12,-53,146,122,283,297,244
244,112,-131,-178,187,-9,-58,146,122,283,307,253
248,117,-131,-183,190,-7,-63,146,122,283,317,263
258,122,-136,-190,197,-7,-68,136,112,273,307,258
278,126,-151,-202,214,-12,-73,131,112,278,312,263
287,126,-161,-207,224,-17,-78,126,107,278,312,263
292,126,-165,-209,229,-19,-78,126,107,283,312,273
302,126,-175,-214,239,-24,-78,126,107,283,317,263
302,131,-170,-217,236,-19,-78,126,107,283,322,263
297,131,-165,-214,231,-17,-78,126,107,283,322,263
292,126,-165,-209,229,-19,-73,131,107,278,322,263
287,126,-161,-207,224,-17,-73,131,107,273,317,268
278,126,-151,-202,214,-12,-68,131,107,268,307,263
258,122,-136,-190,197,-7,-63,131,112,263,302,258
239,117,-122,-178,180,-2,-53,131,112,258,287,253
234,112,-122,-173,178,-4,-43,122,112,244,268,239
214,102,-112,-158,163,-4,-39,117,112,224,253,219
200,97,-102,-148,151,-2,-29,117,112,209,234,200
180,92,-87,-136,134,2,-24,112,107,190,209,175
161,73,-87,-117,124,-7,-14,117,97,165,185,151
136,63,-73,-100,104,-4,-9,112,97,151,165,126
117,58,-58,-87,87,0,4,107,87,136,151,107
97,48,-48,-73,73,0,9,107,87,117,122,82
78,39,-39,-58,58,0,14,102,92,112,102,78
53,29,-24,-41,39,2,24,97,92,97,82,58
39,19,-19,-29,29,0,24,92,82,73,63,39
24,14,-9,-19,17,2,29,82,78,58,43,19
19,9,-9,-14,14,0,24,68,63,34,24,4
9,0,-9,-4,9,-4,29,63,58,19,9,-4
0,-9,-9,4,4,-9,29,58,48,14,-9,-24
-14,-19,-4,17,-4,-12,34,53,48,0,-19,-34
-14,-19,-4,17,-4,-12,39,39,43,-4,-34,-43
-29,-24,4,26,-17,-9,39,34,43,-14,-34,-58
-43,-29,14,36,-29,-7,43,34,39,-19,-48,-63
-58,-34,24,46,-41,-4,43,34,39,-24,-53,-63
-63,-48,14,56,-39,-17,58,39,43,-24,-58,-73
-73,-53,19,63,-46,-17,58,34,34,-34,-68,-82
-78,-53,24,65,-51,-14,53,29,34,-43,-78,-87
-82,-53,29,68,-56,-12,53,29,29,-43,-82,-92
-73,-58,14,65,-43,-21,43,24,19,-48,-87,-97
-73,-63,9,68,-41,-26,43,24,19,-48,-92,-97
-82,-63,19,73,-51,-21,43,24,19,-53,-92,-102
-82,-63,19,73,-51,-21,43,24,9,-53,-92,-102
-97,-63,34,80,-65,-14,53,24,14,-48,-87,-102
-102,-63,39,82,-70,-12,53,19,14,-53,-92,-102
-107,-63,43,85,-75,-9,58,19,19,-53,-92,-97
-122,-63,58,92,-90,-2,58,24,24,-48,-92,-92
-112,-73,39,92,-75,-17,58,34,24,-48,-92,-92
-112,-68,43,90,-78,-12,53,24,24,-53,-92,-92
-112,-68,43,90,-78,-12,53,24,24,-53,-92,-92
-112,-68,43,90,-78,-12,53,24,19,-53,-92,-97
-102,-63,39,82,-70,-12,43,19,14,-58,-107,-102
-97,-63,34,80,-65,-14,43,14,9,-63,-112,-107
-87,-68,19,78,-53,-24,43,9,4,-68,-112,-112
-78,-68,9,73,-43,-29,43,0,-4,-73,-112,-117
-78,-73,4,75,-41,-34,43,9,-4,-63,-102,-107
-78,-73,4,75,-41,-34,43,9,-4,-63,-102,-107
-73,-73,0,73,-36,-36,43,9,-4,-68,-102,-112
-73,-73,0,73,-36,-36,43,9,-4,-68,-102,-112
-82,-73,9,78,-46,-31,43,9,0,-68,-107,-112
-87,-73,14,80,-51,-29,43,9,0,-68,-107,-112
-97,-73,24,85,-61,-24,43,9,0,-68,-107,-112
-102,-73,29,87,-65,-21,43,9,0,-68,-107,-112
-97,-63,34,80,-65,-14,43,9,0,-68,-112,-112
-97,-68,29,82,-63,-19,43,9,-4,-68,-112,-112
-97,-68,29,82,-63,-19,43,9,-9,-68,-107,-112
-97,-68,29,82,-63,-19,43,9,-9,-68,-107,-112
-92,-68,24,80,-58,-21,34,0,-9,-68,-112,-122
-87,-68,19,78,-53,-24,34,0,-9,-68,-112,-122
-78,-68,9,73,-43,-29,34,-4,-9,-68,-112,-122
-73,-68,4,70,-39,-31,34,-4,-9,-68,-117,-126
-78,-68,9,73,-43,-29,43,4,-9,-78,-117,-117
-82,-68,14,75,-48,-26,43,4,-9,-78,-112,-117
-87,-68,19,78,-53,-24,43,9,-9,-73,-112,-117
-97,-68,29,82,-63,-19,43,9,-4,-73,-112,-117
-107,-68,39,87,-73,-14,43,9,4,-73,-112,-107
-107,-68,39,87,-73,-14,43,9,4,-73,-112,-107
-107,-73,34,90,-70,-19,43,9,4,-73,-112,-107
-112,-73,39,92,-75,-17,48,19,4,-73,-112,-102
-117,-82,34,100,-75,-24,53,29,4,-68,-102,-102
-122,-82,39,102,-80,-21,53,24,4,-63,-102,-107
-126,-82,43,104,-85,-19,58,24,4,-58,-102,-107
-131,-82,48,107,-90,-17,63,29,4,-53,-102,-102
-117,-82,34,100,-75,-24,58,19,4,-63,-112,-107
-107,-78,29,92,-68,-24,58,19,4,-63,-112,-112
-102,-78,24,90,-63,-26,53,19,4,-63,-112,-117
-97,-78,19,87,-58,-29,53,19,4,-63,-112,-122
-92,-68,24,80,-58,-21,43,19,-4,-63,-112,-126
-87,-73,14,80,-51,-29,43,19,-4,-63,-112,-126
-82,-73,9,78,-46,-31,43,19,0,-63,-112,-126
-73,-68,4,70,-39,-31,43,24,4,-58,-112,-126
-73,-78,-4,75,-34,-41,43,24,4,-68,-107,-126
-73,-78,-4,75,-34,-41,43,24,4,-68,-107,-126
-73,-78,-4,75,-34,-41,39,24,4,-68,-107,-126
-73,-78,-4,75,-34,-41,39,24,4,-68,-102,-126
-87,-78,9,82,-48,-34,48,34,14,-63,-102,-112
-92,-78,14,85,-53,-31,53,39,14,-58,-97,-112
-97,-78,19,87,-58,-29,53,39,14,-53,-97,-112
-97,-78,19,87,-58,-29,58,34,19,-43,-102,-112
-97,-78,19,87,-58,-29,68,43,29,-43,-92,-112
-97,-78,19,87,-58,-29,68,43,29,-43,-92,-112
-97,-78,19,87,-58,-29,68,43,24,-43,-92,-112
-97,-78,19,87,-58,-29,68,43,24,-43,-97,-112
-92,-68,24,80,-58,-21,58,43,19,-53,-107,-122
-87,-68,19,78,-53,-24,58,39,19,-53,-102,-122
-78,-68,9,73,-43,-29,58,29,14,-53,-102,-122
-73,-68,4,70,-39,-31,58,24,14,-48,-102,-122
-82,-68,14,75,-48,-26,58,29,19,-39,-92,-112
-82,-68,14,75,-48,-26,58,34,24,-43,-87,-107
-92,-68,24,80,-58,-21,58,39,24,-43,-87,-102
-92,-68,24,80,-58,-21,58,43,24,-43,-87,-102
-102,-68,34,85,-68,-17,73,58,29,-34,-82,-92
-112,-68,43,90,-78,-12,73,58,34,-29,-78,-92
-122,-68,53,95,-87,-7,73,53,39,-24,-78,-92
-126,-68,58,97,-92,-4,68,53,43,-24,-73,-97
-102,-78,24,90,-63,-26,63,39,39,-29,-78,-102
-87,-78,9,82,-48,-34,58,34,29,-34,-82,-107
-73,-78,-4,75,-34,-41,53,29,24,-39,-87,-112
-58,-78,-19,68,-19,-48,48,24,19,-48,-92,-117
-63,-78,-14,70,-24,-46,53,24,29,-48,-92,-107
-63,-78,-14,70,-24,-46,53,24,29,-43,-92,-107
-63,-78,-14,70,-24,-46,53,24,29,-43,-92,-107
-63,-78,-14,70,-24,-46,58,24,24,-43,-92,-107
-68,-68,0,68,-34,-34,58,34,24,-43,-82,-97
-73,-68,4,70,-39,-31,58,34,24,-43,-82,-97
-78,-68,9,73,-43,-29,58,34,24,-48,-82,-97
-82,-68,14,75,-48,-26,58,34,24,-53,-82,-97
-73,-68,4,70,-39,-31,58,19,14,-53,-92,-107
-73,-68,4,70,-39,-31,58,19,14,-53,-92,-107
-73,-68,4,70,-39,-31,58,19,14,-53,-92,-107
-73,-68,4,70,-39,-31,53,19,14,-53,-92,-107
-78,-78,0,78,-39,-39,53,29,19,-48,-92,-97
-78,-78,0,78,-39,-39,53,29,19,-48,-92,-97
-87,-78,9,82,-48,-34,53,34,24,-43,-92,-97
-92,-78,14,85,-53,-31,58,34,24,-43,-92,-97
-92,-82,9,87,-51,-36,58,24,24,-53,-92,-107
-92,-82,9,87,-51,-36,58,24,24,-53,-92,-107
-92,-82,9,87,-51,-36,58,24,24,-53,-92,-107
-92,-82,9,87,-51,-36,58,19,24,-53,-92,-107
-78,-73,4,75,-41,-34,48,19,19,-58,-92,-107
-68,-73,-4,70,-31,-39,48,14,19,-63,-97,-112
-63,-73,-9,68,-26,-41,48,14,19,-63,-102,-112
-58,-73,-14,65,-21,-43,43,14,9,-63,-102,-112
-63,-82,-19,73,-21,-51,43,14,9,-63,-102,-112
-78,-82,-4,80,-36,-43,43,14,14,-63,-102,-112
-82,-82,0,82,-41,-41,48,14,14,-58,-102,-107
-92,-78,14,85,-53,-31,48,19,14,-58,-102,-107
-92,-78,14,85,-53,-31,48,19,14,-58,-102,-107
-82,-78,4,80,-43,-36,48,19,14,-63,-102,-107
-82,-78,4,80,-43,-36,48,14,14,-63,-102,-112
-78,-73,4,75,-41,-34,48,14,14,-63,-102,-112
-78,-73,4,75,-41,-34,48,14,4,-63,-112,-122
-78,-73,4,75,-41,-34,48,14,4,-63,-107,-122
-78,-73,4,75,-41,-34,58,14,14,-63,-107,-117
-78,-68,9,73,-43,-29,58,14,14,-63,-107,-117
-87,-78,9,82,-48,-34,48,14,4,-68,-107,-117
-78,-78,0,78,-39,-39,48,14,0,-68,-107,-126
-68,-82,-14,75,-26,-48,43,14,0,-58,-107,-126
-87,-78,9,82,-48,-34,48,19,9,-58,-107,-117
-97,-68,29,82,-63,-19,58,29,19,-58,-97,-107
-97,-68,29,82,-63,-19,58,29,19,-58,-97,-107
-97,-68,29,82,-63,-19,58,29,19,-58,-97,-107
-97,-68,29,82,-63,-19,58,29,19,-58,-97,-107
-102,-53,48,78,-75,-2,68,39,39,-53,-92,-97
-97,-48,48,73,-73,0,73,43,39,-48,-87,-97
-102,-48,53,75,-78,2,82,48,39,-43,-82,-97
-102,-43,58,73,-80,7,92,53,39,-39,-78,-92
-97,-43,53,70,-75,4,82,48,39,-39,-78,-92
-92,-39,53,65,-73,7,82,48,43,-39,-78,-92
-87,-39,48,63,-68,4,87,48,48,-34,-78,-92
-82,-34,48,58,-65,7,92,53,53,-29,-78,-87
-73,-29,43,51,-58,7,92,53,48,-29,-78,-97
-63,-24,39,43,-51,7,92,53,43,-34,-78,-97
-53,-24,29,39,-41,2,97,53,43,-39,-82,-97
-43,-19,24,31,-34,2,97,53,43,-43,-82,-97
-48,-24,24,36,-36,0,92,58,48,-39,-82,-97
-39,-9,29,24,-34,9,92,58,53,-39,-82,-97
-39,9,48,14,-43,29,92,58,58,-29,-73,-92
-43,29,73,7,-58,51,87,53,63,-24,-68,-87
-48,48,97,0,-73,73,87,48,73,-9,-53,-73
-43,58,102,-7,-73,80,78,39,73,-4,-48,-63
-43,58,102,-7,-73,80,73,39,73,-4,-48,-63
-43,58,102,-7,-73,80,73,39,68,-4,-48,-63
-53,68,122,-7,-87,95,73,53,73,0,-39,-53
-53,63,117,-4,-85,90,73,53,78,0,-39,-48
-53,63,117,-4,-85,90,68,43,82,4,-39,-48
-53,68,122,-7,-87,95,63,43,87,9,-34,-48
-48,58,107,-4,-78,82,48,34,87,9,-43,-53
-39,68,107,-14,-73,87,43,24,82,4,-48,-53
-19,68,87,-24,-53,78,39,19,82,-4,-48,-53
-4,73,78,-34,-41,75,29,19,82,-9,-43,-53
-19,78,97,-29,-58,87,39,29,82,0,-34,-43
-29,82,112,-26,-70,97,39,29,87,4,-34,-39
-39,82,122,-21,-80,102,39,29,87,9,-34,-34
-43,78,122,-17,-82,100,39,29,82,9,-39,-34
-34,78,112,-21,-73,95,24,9,73,-4,-53,-43
-24,63,87,-19,-56,75,19,9,68,-9,-53,-58
-24,53,78,-14,-51,65,14,4,63,-14,-53,-58
-19,39,58,-9,-39,48,14,4,58,-19,-68,-68
-29,29,58,0,-43,43,14,4,48,-29,-73,-63
-48,19,68,14,-58,43,24,9,48,-29,-73,-63
-58,4,63,26,-61,34,34,14,43,-29,-73,-68
-73,-4,68,39,-70,31,34,14,43,-29,-78,-68
-68,-34,34,51,-51,0,34,14,29,-34,-82,-82
-63,-43,19,53,-41,-12,29,14,19,-39,-87,-92
-58,-58,0,58,-29,-29,29,9,9,-53,-102,-97
-53,-58,-4,56,-24,-31,29,0,0,-63,-107,-107
-58,-73,-14,65,-21,-43,24,0,4,-68,-112,-112
-63,-82,-19,73,-21,-51,24,0,4,-68,-112,-112
-73,-82,-9,78,-31,-46,24,0,0,-68,-112,-112
-78,-82,-4,80,-36,-43,24,0,0,-73,-112,-112
-87,-73,14,80,-51,-29,34,0,0,-73,-107,-112
-92,-78,14,85,-53,-31,34,0,0,-73,-107,-117
-102,-82,19,92,-61,-31,34,0,0,-73,-107,-117
-107,-87,19,97,-63,-34,34,0,0,-73,-107,-117
-97,-87,9,92,-53,-39,24,-4,-4,-73,-107,-117
-97,-87,9,92,-53,-39,24,-4,-4,-78,-112,-122
-92,-87,4,90,-48,-41,24,-4,-9,-78,-112,-126
-92,-97,-4,95,-43,-51,19,-4,-9,-82,-117,-126
-82,-97,-14,90,-34,-56,9,-9,-14,-87,-122,-131
-78,-102,-24,90,-26,-63,9,-14,-19,-92,-126,-136
-68,-102,-34,85,-17,-68,9,-19,-29,-102,-131,-141
-58,-102,-43,80,-7,-73,9,-24,-34,-107,-141,-146
-68,-112,-43,90,-12,-78,9,-14,-34,-102,-131,-146
-73,-112,-39,92,-17,-75,9,-14,-34,-97,-131,-141
-82,-117,-34,100,-24,-75,19,-14,-34,-92,-131,-136
-87,-117,-29,102,-29,-73,19,-9,-34,-87,-126,-126
-97,-112,-14,104,-41,-63,29,-9,-24,-87,-126,-126
-97,-112,-14,104,-41,-63,29,-9,-29,-87,-131,-126
-97,-117,-19,107,-39,-68,24,-9,-29,-92,-131,-136
-97,-117,-19,107,-39,-68,24,-19,-34,-92,-131,-136
-107,-126,-19,117,-43,-73,24,-9,-24,-92,-122,-126
-107,-126,-19,117,-43,-73,24,-9,-24,-92,-122,-126
-107,-126,-19,117,-43,-73,19,-9,-24,-92,-126,-131
-102,-126,-24,114,-39,-75,19,-9,-29,-92,-126,-131
-102,-117,-14,109,-43,-65,24,-9,-29,-92,-126,-136
-107,-122,-14,114,-46,-68,24,-9,-29,-97,-126,-136
-107,-122,-14,114,-46,-68,24,-9,-29,-97,-126,-136
-112,-117,-4,114,-53,-61,24,-4,-24,-97,-126,-136
-122,-126,-4,124,-58,-65,34,-4,-24,-87,-126,-131
-122,-126,-4,124,-58,-65,34,-4,-24,-87,-126,-131
-117,-131,-14,124,-51,-73,34,-9,-29,-87,-126,-126
-117,-131,-14,124,-51,-73,34,-9,-29,-87,-126,-126
-112,-122,-9,117,-51,-65,34,0,-29,-97,-126,-126
-102,-126,-24,114,-39,-75,24,-4,-34,-92,-141,-136
-117,-126,-9,122,-53,-68,39,0,-24,-92,-131,-126
-131,-136,-4,134,-63,-70,53,24,-4,-82,-122,-126
-107,-161,-53,134,-26,-107,78,73,0,-78,-122,-141
-58,-185,-126,122,34,-156,87,112,4,-87,-151,-180
-29,-185,-156,107,63,-170,107,141,24,-92,-161,-209
-39,-156,-117,97,39,-136,131,185,63,-58,-141,-209
-43,-131,-87,87,21,-109,151,229,126,-9,-107,-185
-34,-97,-63,65,14,-80,156,253,180,48,-63,-146
-9,-73,-63,41,26,-68,180,283,244,117,4,-97
34,-39,-73,2,53,-56,190,302,317,195,82,-19
97,9,-87,-53,92,-39,190,292,380,297,190,87
175,73,-102,-124,139,-14,136,209,429,375,292,204
253,151,-102,-202,178,24,39,24,414,448,414,370
361,268,-92,-314,226,87,-97,-209,346,517,561,570
492,380,-112,-436,302,134,-239,-419,239,575,732,800
619,497,-122,-558,370,187,-366,-570,136,663,932,1044
732,649,-82,-690,407,283,-478,-692,48,771,1161,1293
839,795,-43,-817,441,375,-614,-819,-39,868,1351,1517
927,893,-34,-910,480,429,-790,-966,-161,917,1512,1698
1034,951,-82,-993,558,434,-961,-1088,-302,956,1644,1854
1107,980,-126,-1044,617,427,-1112,-1205,-453,956,1737,1961
1112,936,-175,-1024,644,380,-1229,-1342,-614,868,1717,1986
1039,805,-234,-922,636,285,-1278,-1420,-780,707,1566,1864
868,590,-278,-729,573,156,-1210,-1390,-873,512,1288,1595
692,385,-307,-539,500,39,-1107,-1317,-912,317,956,1215
570,200,-370,-385,470,-85,-1039,-1215,-897,151,658,839
439,53,-385,-246,412,-165,-927,-1054,-810,43,400,483
253,-39,-292,-107,273,-165,-761,-873,-683,-87,146,165
126,-92,-219,-17,173,-156,-600,-722,-605,-234,-82,-24
68,-136,-204,34,136,-170,-463,-585,-527,-322,-214,-92
9,-156,-165,73,87,-161,-307,-414,-395,-297,-234,-107
-4,-141,-136,73,65,-139,-204,-273,-268,-195,-175,-97
-4,-117,-112,61,53,-114,-136,-175,-165,-107,-97,-68
-29,-102,-73,65,21,-87,-63,-82,-92,-39,-48,-34
-48,-87,-39,68,-4,-63,-9,-19,-29,4,-14,-24
-39,-73,-34,56,-2,-53,4,4,0,19,4,-14
-19,-73,-53,46,17,-63,4,4,-4,19,-4,-29
-24,-82,-58,53,17,-70,14,9,0,4,-24,-39
-29,-82,-53,56,12,-68,9,4,0,-4,-34,-43
-43,-87,-43,65,0,-65,19,9,9,-4,-43,-53
-58,-87,-29,73,-14,-58,24,19,14,-4,-43,-63
-73,-87,-14,80,-29,-51,39,29,19,-4,-43,-68
-78,-92,-14,85,-31,-53,43,39,29,-4,-43,-73
-68,-92,-24,80,-21,-58,39,34,29,-14,-53,-87
-53,-92,-39,73,-7,-65,39,34,29,-19,-63,-92
-43,-92,-48,68,2,-70,43,34,29,-19,-68,-92
-34,-92,-58,63,12,-75,43,39,29,-19,-73,-92
-34,-97,-63,65,14,-80,48,48,29,-19,-63,-82
-39,-97,-58,68,9,-78,48,53,34,-19,-68,-82
-43,-97,-53,70,4,-75,53,53,39,-19,-68,-92
-43,-97,-53,70,4,-75,53,58,39,-19,-68,-92
-43,-97,-53,70,4,-75,63,58,48,-14,-58,-92
-48,-97,-48,73,0,-73,63,63,53,-14,-58,-92
-48,-97,-48,73,0,-73,63,63,53,-14,-58,-87
-48,-92,-43,70,-2,-68,63,63,53,-14,-58,-87
-53,-92,-39,73,-7,-65,63,78,53,-4,-53,-87
-63,-92,-29,78,-17,-61,68,78,58,0,-53,-82
-73,-92,-19,82,-26,-56,68,78,63,0,-53,-82
-78,-92,-14,85,-31,-53,73,82,63,0,-48,-82
-73,-92,-19,82,-26,-56,82,82,73,4,-39,-82
-68,-92,-24,80,-21,-58,78,82,78,4,-39,-82
-68,-92,-24,80,-21,-58,73,82,78,4,-39,-82
-68,-92,-24,80,-21,-58,73,82,78,4,-39,-82
-53,-92,-39,73,-7,-65,63,73,68,-4,-48,-82
-48,-87,-39,68,-4,-63,63,68,68,-4,-48,-82
-48,-87,-39,68,-4,-63,63,68,68,0,-43,-82
-53,-87,-34,70,-9,-61,63,73,68,4,-39,-78
-43,-78,-34,61,-4,-56,63,78,68,14,-39,-78
-34,-78,-43,56,4,-61,63,78,68,14,-39,-78
-34,-78,-43,56,4,-61,63,78,73,14,-39,-73
-39,-73,-34,56,-2,-53,68,78,78,19,-34,-73
-39,-73,-34,56,-2,-53,68,78,68,14,-39,-73
-39,-68,-29,53,-4,-48,68,78,68,14,-39,-73
-39,-68,-29,53,-4,-48,68,78,73,14,-34,-68
-34,-73,-39,53,2,-56,68,82,73,19,-34,-68
-24,-73,-48,48,12,-61,58,82,73,24,-34,-68
-19,-73,-53,46,17,-63,58,82,73,24,-34,-68
-19,-68,-48,43,14,-58,58,82,73,24,-34,-63
-19,-68,-48,43,14,-58,58,82,73,24,-34,-63
-24,-68,-43,46,9,-56,68,87,82,24,-19,-63
-24,-68,-43,46,9,-56,68,87,82,34,-14,-58
-19,-63,-43,41,12,-53,68,92,87,39,-14,-53
-19,-63,-43,41,12,-53,68,92,87,39,-14,-53
-24,-68,-43,46,9,-56,68,82,78,39,-14,-48
-24,-68,-43,46,9,-56,68,82,78,39,-4,-48
-29,-68,-39,48,4,-53,68,87,78,39,-4,-43
-29,-68,-39,48,4,-53,68,87,87,39,-4,-39
-34,-58,-24,46,-4,-41,68,97,97,53,4,-39
-29,-58,-29,43,0,-43,68,97,97,53,9,-34
-34,-53,-19,43,-7,-36,68,102,97,58,9,-29
-34,-53,-19,43,-7,-36,68,102,97,63,19,-29
-19,-53,-34,36,7,-43,58,102,87,53,14,-39
-14,-53,-39,34,12,-46,58,102,87,53,9,-34
-9,-48,-39,29,14,-43,58,102,92,58,14,-34
-4,-48,-43,26,19,-46,53,102,92,63,9,-34
14,-48,-63,17,39,-56,58,92,92,63,9,-43
19,-43,-63,12,41,-53,58,92,92,63,9,-39
19,-43,-63,12,41,-53,58,92,92,63,19,-34
24,-43,-68,9,46,-56,58,92,92,73,19,-34
19,-48,-68,14,43,-58,53,102,92,78,29,-24
14,-48,-63,17,39,-56,53,102,92,78,39,-19
9,-48,-58,19,34,-53,53,112,102,82,39,-19
4,-43,-48,19,26,-46,48,112,107,87,43,-9
4,-34,-39,14,21,-36,48,112,107,92,48,-4
4,-29,-34,12,19,-31,48,112,112,92,53,0
9,-29,-39,9,24,-34,48,117,112,97,58,0
14,-29,-43,7,29,-36,43,117,112,102,63,4
39,-24,-63,-7,51,-43,53,107,112,97,53,0
43,-14,-58,-14,51,-36,48,107,112,97,63,0
43,-14,-58,-14,51,-36,48,107,112,102,68,4
43,-14,-58,-14,51,-36,43,107,112,107,73,9
43,-14,-58,-14,51,-36,53,112,117,117,92,19
39,-9,-48,-14,43,-29,53,117,126,126,92,24
39,-9,-48,-14,43,-29,43,126,131,136,97,34
34,0,-34,-17,34,-17,43,131,136,146,102,43
48,0,-48,-24,48,-24,43,131,131,141,107,53
58,4,-53,-31,56,-24,39,131,131,146,112,63
68,9,-58,-39,63,-24,34,136,131,151,117,68
78,14,-63,-46,70,-24,29,136,131,156,122,73
107,9,-97,-58,102,-43,19,131,126,156,126,68
131,14,-117,-73,124,-51,9,126,122,161,126,68
146,14,-131,-80,139,-58,4,122,117,161,136,73
170,19,-151,-95,161,-65,-4,117,112,165,141,78
165,34,-131,-100,148,-48,0,131,122,175,156,92
170,39,-131,-104,151,-46,-4,131,126,180,165,107
175,43,-131,-109,153,-43,-9,131,131,195,180,117
180,48,-131,-114,156,-41,-14,131,136,195,195,126
195,58,-136,-126,165,-39,-24,136,131,209,204,131
200,63,-136,-131,168,-36,-29,136,136,219,214,141
214,63,-151,-139,183,-43,-34,136,136,219,224,156
224,73,-151,-148,187,-39,-39,136,136,234,234,165
224,82,-141,-153,183,-29,-34,146,136,253,244,185
234,87,-146,-161,190,-29,-39,146,141,253,253,195
234,92,-141,-163,187,-24,-43,146,141,263,263,204
248,97,-151,-173,200,-26,-48,146,136,268,273,219
263,92,-170,-178,217,-39,-43,146,146,268,283,224
268,97,-170,-183,219,-36,-43,146,141,283,287,234
273,102,-170,-187,222,-34,-48,146,141,283,297,244
278,107,-170,-192,224,-31,-53,146,141,283,307,253
278,122,-156,-200,217,-17,-58,146,151,292,317,268
287,126,-161,-207,224,-17,-63,141,151,297,322,273
287,126,-161,-207,224,-17,-68,136,146,297,322,273
283,126,-156,-204,219,-14,-68,136,146,302,322,283
292,126,-165,-209,229,-19,-78,136,136,302,326,283
292,131,-161,-212,226,-14,-78,136,136,302,331,283
287,131,-156,-209,222,-12,-78,136,136,302,331,283
283,126,-156,-204,219,-14,-73,141,136,297,331,283
292,126,-165,-209,229,-19,-73,141,146,292,326,278
287,126,-161,-207,224,-17,-68,141,146,287,317,273
273,122,-151,-197,212,-14,-63,141,151,283,312,268
258,117,-141,-187,200,-12,-53,141,151,278,297,263
268,112,-156,-190,212,-21,-53,131,146,263,287,258
253,102,-151,-178,202,-24,-48,126,141,244,273,239
244,97,-146,-170,195,-24,-39,126,136,229,253,219
229,92,-136,-161,183,-21,-34,122,126,209,229,195
204,82,-122,-143,163,-19,-24,117,136,195,204,190
175,73,-102,-124,139,-14,-19,112,136,180,185,165
151,68,-82,-109,117,-7,-4,107,126,165,170,146
126,58,-68,-92,97,-4,0,107,126,146,141,122
92,48,-43,-70,68,2,9,112,126,136,126,117
63,39,-24,-51,43,7,24,107,131,126,112,97
43,29,-14,-36,29,7,29,102,126,107,97,78
24,24,0,-24,12,12,39,92,126,97,82,58
29,19,-9,-24,19,4,39,82,117,73,58,39
29,9,-19,-19,24,-4,39,73,107,58,39,24
29,0,-29,-14,29,-14,34,63,92,53,14,0
24,-9,-34,-7,29,-21,34,53,87,39,0,-14
4,-9,-14,2,9,-12,39,48,82,24,-14,-24
-9,-14,-4,12,-2,-9,39,43,82,14,-14,-39
-24,-19,4,21,-14,-7,43,43,78,9,-29,-43
-39,-24,14,31,-26,-4,43,43,78,4,-34,-43
-43,-39,4,41,-24,-17,48,48,73,4,-29,-43
-53,-43,9,48,-31,-17,48,43,63,-4,-39,-53
-58,-43,14,51,-36,-14,43,39,63,-14,-48,-58
-63,-43,19,53,-41,-12,43,39,58,-14,-53,-63
-58,-39,19,48,-39,-9,43,24,48,-29,-68,-78
-53,-43,9,48,-31,-17,43,24,48,-29,-73,-78
-58,-43,14,51,-36,-14,43,24,48,-34,-73,-82
-53,-43,9,48,-31,-17,43,24,39,-34,-73,-82
-53,-53,0,53,-26,-26,43,24,39,-39,-78,-87
-53,-53,0,53,-26,-26,43,19,34,-43,-82,-92
-53,-53,0,53,-26,-26,48,19,34,-43,-82,-92
-63,-53,9,58,-36,-21,48,24,34,-39,-82,-92
-73,-53,19,63,-46,-17,48,24,34,-39,-82,-92
-73,-48,24,61,-48,-12,43,14,34,-43,-82,-92
-73,-48,24,61,-48,-12,43,14,34,-43,-82,-92
-73,-48,24,61,-48,-12,43,14,29,-43,-82,-97
-73,-53,19,63,-46,-17,43,14,29,-43,-87,-97
-78,-53,24,65,-51,-14,43,14,29,-43,-92,-97
-78,-58,19,68,-48,-19,43,14,29,-43,-92,-97
-78,-58,19,68,-48,-19,43,9,24,-43,-92,-97
-87,-53,34,70,-61,-9,43,19,24,-43,-92,-97
-87,-53,34,70,-61,-9,43,19,24,-43,-92,-97
-82,-53,29,68,-56,-12,43,19,24,-48,-92,-102
-82,-53,29,68,-56,-12,43,19,24,-48,-92,-102
-78,-53,24,65,-51,-14,43,19,29,-39,-87,-92
-78,-53,24,65,-51,-14,43,19,29,-39,-87,-92
-82,-53,29,68,-56,-12,43,19,29,-39,-87,-92
-82,-53,29,68,-56,-12,43,19,29,-39,-87,-92
-92,-53,39,73,-65,-7,53,19,39,-39,-82,-92
-97,-58,39,78,-68,-9,53,19,34,-39,-82,-92
-102,-58,43,80,-73,-7,53,19,29,-39,-78,-92
-107,-58,48,82,-78,-4,53,19,29,-39,-78,-92
-102,-58,43,80,-73,-7,43,9,19,-48,-92,-102
-97,-58,39,78,-68,-9,43,9,19,-48,-92,-102
-87,-58,29,73,-58,-14,43,4,19,-48,-92,-102
-82,-58,24,70,-53,-17,43,4,19,-48,-97,-107
-73,-58,14,65,-43,-21,34,4,19,-58,-107,-107
-73,-58,14,65,-43,-21,34,4,19,-58,-102,-107
-73,-58,14,65,-43,-21,34,9,19,-53,-102,-107
-78,-58,19,68,-48,-19,34,9,24,-53,-102,-107
-68,-58,9,63,-39,-24,34,9,24,-53,-102,-107
-68,-58,9,63,-39,-24,34,9,24,-53,-102,-107
-68,-63,4,65,-36,-29,34,9,24,-53,-102,-107
-73,-63,9,68,-41,-26,39,19,24,-53,-102,-102
-78,-53,24,65,-51,-14,48,19,34,-43,-92,-102
-82,-53,29,68,-56,-12,43,14,34,-43,-92,-107
-87,-53,34,70,-61,-9,43,14,34,-43,-92,-107
-92,-53,39,73,-65,-7,43,19,34,-43,-92,-102
-92,-63,29,78,-61,-17,48,19,24,-43,-92,-102
-87,-58,29,73,-58,-14,48,19,24,-43,-92,-102
-87,-58,29,73,-58,-14,43,19,24,-43,-92,-102
-87,-58,29,73,-58,-14,43,19,24,-43,-92,-102
-97,-58,39,78,-68,-9,43,29,34,-43,-92,-97
-97,-63,34,80,-65,-14,43,29,34,-43,-92,-97
-97,-63,34,80,-65,-14,43,29,39,-43,-92,-97
-92,-58,34,75,-63,-12,43,34,43,-39,-92,-97
-87,-58,29,73,-58,-14,53,24,34,-39,-97,-107
-82,-58,24,70,-53,-17,53,24,34,-39,-97,-107
-78,-58,19,68,-48,-19,48,24,34,-39,-97,-107
-73,-58,14,65,-43,-21,48,24,34,-39,-92,-107
-63,-58,4,61,-34,-26,43,14,34,-48,-102,-112
-63,-58,4,61,-34,-26,43,19,34,-48,-97,-112
-63,-58,4,61,-34,-26,39,19,34,-48,-97,-112
-58,-58,0,58,-29,-29,39,14,39,-43,-102,-112
-73,-58,14,65,-43,-21,43,19,48,-39,-97,-102
-78,-58,19,68,-48,-19,48,24,48,-34,-92,-102
-82,-58,24,70,-53,-17,53,29,43,-29,-87,-102
-87,-58,29,73,-58,-14,58,34,43,-24,-87,-102
-82,-48,34,65,-58,-7,48,29,48,-34,-97,-112
-78,-48,29,63,-53,-9,48,29,48,-34,-92,-112
-68,-48,19,58,-43,-14,48,24,43,-34,-92,-112
-63,-48,14,56,-39,-17,48,24,43,-29,-92,-112
-68,-58,9,63,-39,-24,58,34,48,-19,-87,-102
-73,-58,14,65,-43,-21,58,34,53,-24,-78,-97
-87,-58,29,73,-58,-14,58,34,53,-24,-73,-92
-92,-58,34,75,-63,-12,58,34,53,-24,-68,-92
-87,-48,39,68,-63,-4,53,29,53,-29,-78,-92
-82,-48,34,65,-58,-7,53,29,53,-29,-78,-92
-78,-48,29,63,-53,-9,53,24,53,-29,-82,-92
-68,-48,19,58,-43,-14,48,24,53,-34,-82,-97
-78,-48,29,63,-53,-9,48,24,53,-24,-73,-97
-78,-48,29,63,-53,-9,48,24,48,-24,-73,-97
-78,-48,29,63,-53,-9,48,24,48,-24,-73,-97
-78,-48,29,63,-53,-9,48,24,48,-29,-73,-97
-68,-48,19,58,-43,-14,34,24,39,-39,-82,-97
-63,-48,14,56,-39,-17,34,24,39,-34,-82,-97
-58,-48,9,53,-34,-19,34,24,39,-34,-82,-97
-53,-48,4,51,-29,-21,39,24,34,-34,-82,-97
-63,-48,14,56,-39,-17,39,24,43,-24,-73,-97
-63,-48,14,56,-39,-17,39,24,43,-24,-73,-97
-63,-48,14,56,-39,-17,39,24,43,-29,-73,-97
-63,-48,14,56,-39,-17,39,24,43,-34,-73,-97
-63,-48,14,56,-39,-17,48,29,43,-24,-82,-87
-63,-48,14,56,-39,-17,48,29,43,-24,-82,-87
-63,-48,14,56,-39,-17,48,29,43,-24,-82,-87
-63,-48,14,56,-39,-17,43,29,43,-24,-82,-87
-58,-58,0,58,-29,-29,34,19,39,-39,-92,-97
-58,-58,0,58,-29,-29,34,19,39,-39,-92,-97
-68,-58,9,63,-39,-24,34,24,43,-34,-92,-97
-73,-58,14,65,-43,-21,39,24,43,-34,-92,-97
-82,-53,29,68,-56,-12,43,34,53,-24,-87,-92
-92,-53,39,73,-65,-7,48,34,53,-24,-82,-87
-102,-53,48,78,-75,-2,53,34,53,-24,-78,-82
-112,-53,58,82,-85,2,58,29,53,-24,-73,-78
-97,-53,43,75,-70,-4,53,29,39,-39,-82,-87
-87,-53,34,70,-61,-9,48,24,39,-43,-87,-92
-82,-53,29,68,-56,-12,43,24,39,-43,-92,-92
-78,-53,24,65,-51,-14,34,24,29,-43,-92,-92
-68,-53,14,61,-41,-19,34,14,29,-43,-92,-102
-78,-53,24,65,-51,-14,34,14,34,-43,-92,-102
-78,-53,24,65,-51,-14,39,14,34,-39,-92,-97
-82,-48,34,65,-58,-7,39,19,34,-39,-92,-97
-73,-58,14,65,-43,-21,39,19,24,-48,-102,-107
-63,-58,4,61,-34,-26,39,19,24,-53,-102,-107
-63,-58,4,61,-34,-26,39,14,24,-53,-102,-112
-58,-53,4,56,-31,-24,39,14,24,-53,-102,-112
-58,-63,-4,61,-26,-34,29,19,14,-63,-102,-112
-58,-63,-4,61,-26,-34,29,14,14,-63,-97,-112
-58,-63,-4,61,-26,-34,39,9,24,-63,-97,-107
-58,-58,0,58,-29,-29,39,4,24,-63,-97,-107
-63,-58,4,61,-34,-26,29,4,24,-58,-97,-107
-68,-58,9,63,-39,-24,29,4,19,-58,-97,-107
-73,-53,19,63,-46,-17,34,4,19,-58,-97,-107
-87,-48,39,68,-63,-4,34,9,19,-58,-97,-107
-82,-53,29,68,-56,-12,24,4,9,-58,-107,-112
-78,-53,24,65,-51,-14,24,4,19,-53,-107,-112
-68,-53,14,61,-41,-19,29,4,19,-53,-107,-112
-63,-53,9,58,-36,-21,34,4,24,-48,-102,-107
-73,-43,29,58,-51,-7,43,19,24,-53,-92,-102
-82,-53,29,68,-56,-12,34,9,19,-63,-102,-102
-73,-58,14,65,-43,-21,43,9,19,-63,-102,-102
-58,-48,9,53,-34,-19,39,9,19,-58,-97,-97
-68,-48,19,58,-43,-14,48,19,29,-48,-97,-97
-68,-48,19,58,-43,-14,48,19,29,-48,-97,-97
-68,-48,19,58,-43,-14,48,19,29,-48,-97,-97
-68,-48,19,58,-43,-14,48,19,29,-48,-97,-97
-78,-24,53,51,-65,14,63,34,39,-48,-87,-87
-68,-19,48,43,-58,14,63,34,39,-48,-87,-87
-68,-19,48,43,-58,14,68,34,39,-48,-87,-87
-63,-14,48,39,-56,17,73,34,39,-48,-87,-82
-68,-14,53,41,-61,19,82,48,48,-43,-82,-82
-73,-9,63,41,-68,26,82,48,53,-39,-78,-82
-78,-9,68,43,-73,29,87,48,58,-29,-73,-82
-82,-4,78,43,-80,36,92,53,63,-19,-68,-78
-82,-9,73,46,-78,31,82,63,63,-24,-73,-78
-82,-4,78,43,-80,36,82,63,63,-24,-68,-78
-82,-4,78,43,-80,36,87,63,68,-24,-68,-78
-82,0,82,41,-82,41,87,63,73,-24,-63,-78
-73,14,87,29,-80,51,73,53,73,-29,-73,-78
-48,29,78,9,-63,53,73,48,73,-29,-73,-78
-34,48,82,-7,-58,65,73,43,73,-19,-63,-73
-24,68,92,-21,-58,80,68,34,73,-14,-58,-68
-24,68,92,-21,-58,80,63,39,87,0,-43,-53
-24,78,102,-26,-63,90,58,29,92,4,-39,-43
-29,78,107,-24,-68,92,58,29,97,4,-39,-43
-34,78,112,-21,-73,95,63,29,97,4,-39,-43
-48,78,126,-14,-87,102,73,39,107,9,-29,-34
-53,73,126,-9,-90,100,73,43,107,9,-29,-29
-58,73,131,-7,-95,102,68,39,107,14,-29,-29
-63,78,141,-7,-102,109,63,43,107,19,-24,-29
-48,87,136,-19,-92,112,53,39,102,19,-34,-34
-39,97,136,-29,-87,117,43,24,92,14,-39,-34
-19,97,117,-39,-68,107,34,14,87,4,-39,-34
-4,102,107,-48,-56,104,19,9,82,0,-34,-34
0,107,107,-53,-53,107,19,0,82,4,-43,-29
0,112,112,-56,-56,112,19,0,87,4,-43,-29
0,112,112,-56,-56,112,19,0,87,4,-43,-29
4,107,102,-56,-48,104,19,0,82,0,-48,-34
14,97,82,-56,-34,90,14,0,73,-14,-63,-43
14,82,68,-48,-26,75,9,0,68,-19,-63,-58
4,73,68,-39,-31,70,4,-4,63,-24,-63,-58
0,58,58,-29,-29,58,4,-4,58,-29,-78,-68
-19,29,48,-4,-34,39,14,-4,48,-29,-73,-63
-39,19,58,9,-48,39,24,0,48,-29,-73,-63
-48,4,53,21,-51,29,34,4,43,-29,-73,-68
-63,-4,58,34,-61,26,34,4,43,-29,-78,-68
-63,-24,39,43,-51,7,24,4,29,-43,-82,-82
-63,-34,29,48,-46,-2,19,4,19,-48,-87,-92
-63,-48,14,56,-39,-17,19,0,9,-63,-102,-97
-63,-48,14,56,-39,-17,19,-9,0,-73,-107,-107
-63,-63,0,63,-31,-31,14,-9,-4,-78,-112,-112
-63,-73,-9,68,-26,-41,14,-9,-4,-78,-112,-112
-68,-73,-4,70,-31,-39,14,-9,-9,-78,-112,-112
-68,-73,-4,70,-31,-39,14,-9,-9,-82,-112,-112
-63,-63,0,63,-31,-31,14,-19,-9,-82,-117,-112
-63,-68,-4,65,-29,-36,14,-19,-9,-82,-117,-117
-68,-73,-4,70,-31,-39,14,-19,-9,-82,-117,-117
-68,-78,-9,73,-29,-43,14,-19,-9,-82,-117,-117
-78,-78,0,78,-39,-39,14,-14,-14,-82,-117,-117
-78,-78,0,78,-39,-39,14,-14,-14,-87,-122,-122
-73,-78,-4,75,-34,-41,14,-14,-19,-87,-122,-126
-73,-87,-14,80,-29,-51,9,-14,-19,-92,-126,-126
-82,-87,-4,85,-39,-46,19,-14,-9,-82,-117,-126
-87,-92,-4,90,-41,-48,19,-14,-9,-82,-117,-126
-87,-92,-4,90,-41,-48,19,-14,-14,-87,-117,-126
-87,-92,-4,90,-41,-48,19,-14,-14,-87,-122,-126
-92,-92,0,92,-46,-46,9,-14,-14,-97,-122,-122
-92,-92,0,92,-46,-46,9,-14,-14,-97,-122,-122
-97,-97,0,97,-48,-48,19,-14,-14,-97,-122,-122
-97,-97,0,97,-48,-48,19,-9,-14,-97,-117,-117
-107,-102,4,104,-56,-48,19,-9,-14,-97,-117,-117
-107,-102,4,104,-56,-48,19,-9,-19,-97,-122,-117
-107,-107,0,107,-53,-53,14,-9,-19,-102,-122,-126
-107,-107,0,107,-53,-53,14,-19,-24,-102,-122,-126
-97,-107,-9,102,-43,-58,14,-19,-24,-102,-122,-126
-97,-107,-9,102,-43,-58,14,-19,-24,-102,-122,-126
-97,-107,-9,102,-43,-58,9,-19,-24,-102,-126,-131
-92,-107,-14,100,-39,-61,9,-19,-29,-102,-126,-131
-87,-107,-19,97,-34,-63,14,-29,-39,-102,-136,-136
-87,-112,-24,100,-31,-68,14,-29,-39,-107,-136,-136
-82,-112,-29,97,-26,-70,14,-29,-39,-107,-136,-136
-82,-107,-24,95,-29,-65,14,-24,-34,-107,-136,-136
-92,-107,-14,100,-39,-61,14,-24,-34,-107,-136,-141
-92,-107,-14,100,-39,-61,14,-24,-34,-107,-136,-141
-87,-112,-24,100,-31,-68,14,-29,-39,-107,-136,-136
-87,-112,-24,100,-31,-68,14,-29,-39,-107,-136,-136
-73,-112,-39,92,-17,-75,14,-19,-29,-107,-136,-136
-82,-117,-34,100,-24,-75,24,-24,-24,-102,-131,-136
-78,-117,-39,97,-19,-78,29,-9,-24,-92,-131,-136
-63,-126,-63,95,0,-95,34,14,-24,-92,-131,-146
-58,-151,-92,104,17,-122,68,53,-9,-97,-141,-170
-58,-165,-107,112,24,-136,97,112,14,-97,-151,-180
-78,-156,-78,117,0,-117,117,151,34,-82,-151,-190
-78,-136,-58,107,-9,-97,131,195,82,-48,-122,-180
-73,-112,-39,92,-17,-75,161,229,146,9,-68,-146
-43,-78,-34,61,-4,-56,175,273,219,87,-14,-97
-19,-53,-34,36,7,-43,190,292,283,165,53,-39
24,-9,-34,-7,29,-21,190,312,366,253,141,39
87,48,-39,-68,63,4,180,292,429,346,258,165
165,112,-53,-139,109,29,117,180,448,424,370,302
263,209,-53,-236,158,78,0,-24,405,478,492,468
380,317,-63,-348,222,126,-136,-239,326,536,649,688
502,419,-82,-461,292,168,-278,-429,239,624,829,917
668,566,-102,-617,385,231,-385,-570,146,702,1029,1161
839,717,-122,-778,480,297,-517,-702,39,790,1220,1371
917,844,-73,-880,495,385,-673,-829,-58,878,1400,1586
956,932,-24,-944,490,453,-819,-946,-161,936,1571,1776
1024,980,-43,-1002,534,468,-980,-1068,-302,946,1693,1922
1078,990,-87,-1034,583,451,-1141,-1195,-463,917,1737,2000
1063,917,-146,-990,605,385,-1229,-1332,-634,800,1668,1976
961,746,-214,-854,588,265,-1229,-1381,-800,610,1449,1786
800,531,-268,-666,534,131,-1151,-1342,-883,395,1132,1429
624,326,-297,-475,461,14,-1039,-1249,-902,200,800,1039
463,141,-322,-302,392,-90,-951,-1146,-868,63,522,663
302,14,-287,-158,295,-136,-829,-985,-771,-63,253,317
156,-68,-224,-43,190,-146,-673,-814,-663,-195,9,48
78,-112,-190,17,134,-151,-541,-683,-605,-322,-170,-73
48,-146,-195,48,122,-170,-424,-556,-527,-380,-263,-131
9,-156,-165,73,87,-161,-287,-405,-405,-326,-253,-146
4,-141,-146,68,75,-143,-185,-263,-268,-204,-175,-107
14,-117,-131,51,73,-124,-117,-156,-156,-117,-97,-68
9,-102,-112,46,61,-107,-63,-82,-92,-68,-58,-43
-9,-78,-68,43,29,-73,-29,-29,-39,-34,-34,-34
-9,-73,-63,41,26,-68,-14,-14,-19,-9,-24,-24
-19,-73,-53,46,17,-63,-4,-4,-14,-19,-24,-39
-43,-73,-29,58,-7,-51,4,0,-9,-24,-34,-48
-58,-73,-14,65,-21,-43,19,14,0,-24,-43,-43
-63,-78,-14,70,-24,-46,19,9,0,-34,-53,-58
-68,-78,-9,73,-29,-43,24,19,4,-34,-53,-63
-73,-78,-4,75,-34,-41,39,29,9,-34,-53,-63
-68,-82,-14,75,-26,-48,43,39,19,-34,-53,-63
-53,-82,-29,68,-12,-56,43,39,9,-34,-68,-73
-43,-82,-39,63,-2,-61,39,34,9,-39,-73,-82
-39,-82,-43,61,2,-63,39,29,9,-39,-73,-87
-34,-82,-48,58,7,-65,34,29,9,-39,-73,-92
-34,-87,-53,61,9,-70,48,39,19,-39,-63,-92
-39,-87,-48,63,4,-68,48,43,24,-39,-68,-92
-43,-87,-43,65,0,-65,53,43,29,-39,-68,-102
-43,-87,-43,65,0,-65,53,48,29,-39,-68,-102
-43,-78,-34,61,-4,-56,53,48,29,-34,-68,-92
-48,-78,-29,63,-9,-53,53,53,34,-34,-68,-92
-48,-78,-29,63,-9,-53,53,53,34,-34,-68,-87
-48,-73,-24,61,-12,-48,53,53,34,-34,-68,-87
-48,-73,-24,61,-12,-48,53,58,34,-24,-53,-87
-53,-73,-19,63,-17,-46,58,58,39,-19,-53,-82
-58,-73,-14,65,-21,-43,58,58,43,-19,-53,-82
-58,-73,-14,65,-21,-43,63,63,43,-19,-48,-82
-58,-63,-4,61,-26,-34,73,73,43,-14,-48,-73
-58,-63,-4,61,-26,-34,68,73,48,-14,-48,-73
-63,-63,0,63,-31,-31,63,73,48,-14,-48,-73
-68,-63,4,65,-36,-29,63,73,48,-14,-48,-73
-58,-73,-14,65,-21,-43,63,63,39,-24,-58,-82
-48,-68,-19,58,-14,-43,63,58,39,-24,-58,-82
-43,-68,-24,56,-9,-46,63,58,39,-19,-53,-82
-43,-68,-24,56,-9,-46,63,63,39,-14,-48,-78
-53,-58,-4,56,-24,-31,53,68,39,-14,-48,-87
-43,-58,-14,51,-14,-36,53,68,39,-14,-48,-87
-43,-58,-14,51,-14,-36,53,68,43,-14,-48,-82
-48,-53,-4,51,-21,-29,58,68,48,-9,-43,-82
-43,-53,-9,48,-17,-31,58,58,48,-14,-39,-73
-39,-48,-9,43,-14,-29,58,58,48,-14,-39,-73
-34,-48,-14,41,-9,-31,58,58,53,-14,-34,-68
-24,-53,-29,39,2,-41,58,63,53,-9,-34,-68
-39,-53,-14,46,-12,-34,58,73,53,-4,-34,-58
-39,-53,-14,46,-12,-34,58,73,53,-4,-34,-58
-43,-48,-4,46,-19,-26,58,73,53,-4,-34,-53
-48,-48,0,48,-24,-24,58,73,53,-4,-34,-53
-39,-48,-9,43,-14,-29,48,68,53,-14,-39,-58
-34,-48,-14,41,-9,-31,48,68,53,-4,-34,-58
-24,-43,-19,34,-2,-31,48,73,58,0,-34,-58
-19,-43,-24,31,2,-34,48,73,58,0,-34,-63
-24,-39,-14,31,-4,-26,58,73,58,9,-34,-58
-24,-39,-14,31,-4,-26,58,73,58,9,-24,-58
-29,-39,-9,34,-9,-24,58,78,58,9,-24,-53
-29,-39,-9,34,-9,-24,58,78,68,9,-24,-48
-43,-29,14,36,-29,-7,68,87,78,24,-19,-39
-39,-29,9,34,-24,-9,68,87,78,24,-9,-34
-43,-24,19,34,-31,-2,68,92,78,29,-4,-29
-43,-24,19,34,-31,-2,68,92,78,34,9,-29
-48,-24,24,36,-36,0,68,102,78,39,9,-19
-53,-24,29,39,-41,2,68,102,78,43,9,-14
-58,-19,39,39,-48,9,68,102,82,53,19,-14
-63,-19,43,41,-53,12,63,102,82,63,19,-14
-24,-24,0,24,-12,-12,43,92,68,53,4,-24
0,-24,-24,12,12,-24,39,82,63,43,0,-29
19,-29,-48,4,34,-39,34,73,58,34,4,-34
43,-34,-78,-4,61,-56,29,63,53,34,0,-43
34,-19,-53,-7,43,-36,34,73,63,39,9,-34
34,-19,-53,-7,43,-36,34,73,63,39,19,-29
34,-19,-53,-7,43,-36,34,82,73,43,19,-29
34,-14,-48,-9,41,-31,29,82,78,48,24,-19
24,-14,-39,-4,31,-26,39,82,78,53,39,-14
24,-9,-34,-7,29,-21,39,82,82,53,43,-9
29,-9,-39,-9,34,-24,39,87,82,58,48,-9
34,-9,-43,-12,39,-26,34,87,82,63,53,-4
43,-14,-58,-14,51,-36,43,97,92,78,53,9
43,-4,-48,-19,46,-26,39,97,92,78,63,9
39,-4,-43,-17,41,-24,39,97,92,82,68,14
34,-4,-39,-14,36,-21,34,97,92,87,73,19
43,-4,-48,-19,46,-26,24,97,92,92,82,34
48,0,-48,-24,48,-24,24,97,97,97,82,34
58,0,-58,-29,58,-29,14,102,97,102,87,39
63,9,-53,-36,58,-21,14,102,97,107,92,43
73,19,-53,-46,63,-17,14,92,92,102,97,43
87,24,-63,-56,75,-19,9,92,92,107,102,53
102,29,-73,-65,87,-21,4,97,92,112,107,58
117,34,-82,-75,100,-24,0,97,92,117,112,63
117,29,-87,-73,102,-29,-4,97,92,131,131,73
122,34,-87,-78,104,-26,-9,97,92,141,136,78
117,34,-82,-75,100,-24,-9,97,92,146,151,87
122,39,-82,-80,102,-21,-14,97,92,156,161,97
141,53,-87,-97,114,-17,-19,102,97,156,170,112
151,58,-92,-104,122,-17,-24,102,97,161,175,126
161,63,-97,-112,129,-17,-29,102,97,175,185,136
170,68,-102,-119,136,-17,-34,102,97,175,195,146
175,87,-87,-131,131,0,-34,97,92,190,214,151
180,92,-87,-136,134,2,-39,97,97,200,224,161
195,92,-102,-143,148,-4,-43,97,97,200,234,175
204,102,-102,-153,153,0,-48,97,97,214,244,185
200,102,-97,-151,148,2,-53,107,107,234,253,204
204,107,-97,-156,151,4,-58,107,112,234,263,214
200,112,-87,-156,143,12,-63,107,112,244,273,224
209,117,-92,-163,151,12,-68,107,107,248,283,239
209,112,-97,-161,153,7,-63,117,117,258,302,253
209,117,-92,-163,151,12,-63,117,112,273,307,263
209,122,-87,-165,148,17,-68,117,112,273,317,273
209,126,-82,-168,146,21,-73,117,112,273,326,283
239,131,-107,-185,173,12,-82,102,97,258,322,273
278,136,-141,-207,209,-2,-92,92,92,258,322,273
307,136,-170,-222,239,-17,-102,82,82,253,317,268
331,136,-195,-234,263,-29,-107,78,78,253,312,273
326,146,-180,-236,253,-17,-107,87,78,263,326,278
322,151,-170,-236,246,-9,-107,87,78,263,331,283
312,151,-161,-231,236,-4,-107,87,78,263,331,287
302,146,-156,-224,229,-4,-102,92,78,258,331,292
312,146,-165,-229,239,-9,-102,82,78,253,317,278
307,146,-161,-226,234,-7,-97,82,78,248,307,273
292,141,-151,-217,222,-4,-92,82,82,244,302,268
278,136,-141,-207,209,-2,-82,82,82,239,287,263
253,131,-122,-192,187,4,-63,87,87,229,283,253
224,122,-102,-173,163,9,-58,87,92,214,273,239
200,117,-82,-158,141,17,-48,92,97,204,258,224
170,112,-58,-141,114,26,-43,92,97,190,239,204
156,102,-53,-129,104,24,-34,87,87,170,209,180
136,92,-43,-114,90,24,-29,82,87,151,185,156
122,87,-34,-104,78,26,-14,78,78,131,165,136
107,78,-29,-92,68,24,-9,78,78,107,131,112
97,68,-29,-82,63,19,-4,73,73,92,112,87
73,58,-14,-65,43,21,4,68,73,78,92,68
58,48,-9,-53,34,19,4,63,63,53,73,48
43,43,0,-43,21,21,9,53,58,39,53,29
29,39,9,-34,9,24,14,58,63,24,34,14
19,29,9,-24,4,19,19,53,58,9,19,4
9,19,9,-14,0,14,19,48,48,4,0,-14
-4,9,14,-2,-9,12,24,43,48,-9,-9,-24
-14,0,14,7,-14,7,19,29,34,-14,-24,-34
-29,-4,24,17,-26,9,19,24,34,-24,-24,-48
-43,-9,34,26,-39,12,24,24,29,-29,-39,-53
-58,-14,43,36,-51,14,24,24,29,-34,-43,-53
-58,-19,39,39,-48,9,39,29,24,-34,-48,-63
-63,-24,39,43,-51,7,39,24,14,-43,-58,-73
-63,-24,39,43,-51,7,34,19,14,-53,-68,-78
-63,-24,39,43,-51,7,34,19,9,-53,-73,-82
-63,-39,24,51,-43,-7,34,14,9,-68,-78,-87
-63,-43,19,53,-41,-12,34,14,9,-68,-82,-87
-73,-43,29,58,-51,-7,34,14,9,-73,-82,-92
-73,-43,29,58,-51,-7,34,14,0,-73,-82,-92
-73,-43,29,58,-51,-7,34,14,0,-78,-87,-87
-73,-43,29,58,-51,-7,34,9,-4,-82,-92,-92
-73,-43,29,58,-51,-7,39,9,-4,-82,-92,-92
-82,-43,39,63,-61,-2,39,14,-4,-78,-92,-92
-82,-43,39,63,-61,-2,39,4,-4,-78,-102,-102
-82,-39,43,61,-63,2,34,-4,-4,-82,-102,-102
-82,-39,43,61,-63,2,34,-4,-4,-82,-102,-102
-82,-39,43,61,-63,2,34,-4,-9,-82,-102,-107
-82,-43,39,63,-61,-2,43,-4,-9,-92,-97,-117
-87,-43,43,65,-65,0,43,-4,-9,-92,-102,-117
-87,-48,39,68,-63,-4,43,-4,-9,-92,-102,-117
-87,-48,39,68,-63,-4,43,-9,-14,-92,-102,-117
-97,-43,53,70,-75,4,34,-9,-24,-102,-112,-117
-97,-43,53,70,-75,4,34,-9,-24,-102,-112,-117
-92,-43,48,68,-70,2,34,-9,-24,-107,-112,-122
-92,-43,48,68,-70,2,34,-9,-24,-107,-112,-122
-107,-43,63,75,-85,9,39,0,-9,-102,-102,-107
-107,-43,63,75,-85,9,43,0,-9,-97,-97,-102
-112,-43,68,78,-90,12,48,0,-9,-92,-92,-97
-112,-43,68,78,-90,12,53,0,-9,-87,-87,-92
-112,-53,58,82,-85,2,43,9,-9,-87,-92,-92
-117,-58,58,87,-87,0,43,9,-14,-87,-92,-92
-122,-58,63,90,-92,2,43,9,-19,-87,-87,-92
-126,-58,68,92,-97,4,43,9,-19,-87,-87,-92
-117,-48,68,82,-92,9,34,4,-19,-92,-97,-97
-107,-48,58,78,-82,4,34,0,-19,-97,-102,-102
-92,-48,43,70,-68,-2,34,-9,-19,-102,-107,-107
-82,-48,34,65,-58,-7,34,-14,-19,-107,-117,-117
-78,-48,29,63,-53,-9,24,-14,-24,-107,-126,-126
-73,-48,24,61,-48,-12,24,-14,-29,-107,-122,-126
-68,-48,19,58,-43,-14,24,-9,-34,-102,-122,-126
-68,-48,19,58,-43,-14,24,-9,-34,-102,-122,-126
-73,-48,24,61,-48,-12,34,-9,-24,-102,-112,-126
-78,-48,29,63,-53,-9,34,-9,-24,-102,-112,-126
-82,-53,29,68,-56,-12,34,-9,-24,-102,-112,-126
-92,-53,39,73,-65,-7,39,0,-24,-102,-112,-122
-92,-53,39,73,-65,-7,39,9,-14,-92,-112,-112
-92,-53,39,73,-65,-7,34,4,-14,-92,-112,-117
-92,-53,39,73,-65,-7,34,4,-14,-92,-112,-117
-92,-53,39,73,-65,-7,34,9,-14,-92,-112,-112
-102,-53,48,78,-75,-2,48,9,-14,-92,-102,-122
-97,-48,48,73,-73,0,48,9,-14,-92,-102,-122
-97,-48,48,73,-73,0,43,9,-14,-92,-102,-122
-97,-48,48,73,-73,0,43,9,-14,-92,-102,-122
-87,-39,48,63,-68,4,43,0,-14,-92,-112,-117
-87,-43,43,65,-65,0,43,0,-14,-92,-112,-117
-87,-43,43,65,-65,0,43,0,-9,-92,-112,-117
-82,-39,43,61,-63,2,43,4,-4,-87,-112,-117
-92,-48,43,70,-68,-2,43,4,-14,-87,-97,-117
-92,-48,43,70,-68,-2,43,4,-14,-87,-97,-117
-92,-48,43,70,-68,-2,39,4,-14,-87,-97,-117
-92,-48,43,70,-68,-2,39,4,-14,-87,-92,-117
-102,-58,43,80,-73,-7,48,19,-9,-82,-82,-107
-112,-58,53,85,-82,-2,53,29,-4,-78,-78,-102
-122,-58,63,90,-92,2,53,34,0,-73,-78,-97
-126,-58,68,92,-97,4,58,34,9,-63,-82,-92
-112,-48,63,80,-87,7,48,24,0,-73,-82,-92
-107,-48,58,78,-82,4,48,24,0,-73,-82,-92
-102,-48,53,75,-78,2,48,24,-4,-73,-82,-92
-97,-48,48,73,-73,0,48,24,-4,-73,-87,-92
-87,-58,29,73,-58,-14,39,24,-9,-78,-92,-102
-78,-58,19,68,-48,-19,39,19,-9,-82,-92,-102
-63,-58,4,61,-34,-26,39,9,-14,-87,-97,-102
-53,-58,-4,56,-24,-31,39,4,-14,-87,-102,-102
-58,-53,4,56,-31,-24,39,14,-19,-78,-102,-112
-63,-48,14,56,-39,-17,39,14,-14,-82,-97,-107
-78,-43,34,61,-56,-4,39,14,-14,-82,-97,-102
-82,-39,43,61,-63,2,39,14,-14,-82,-97,-102
-87,-48,39,68,-63,-4,53,19,-4,-78,-87,-92
-92,-48,43,70,-68,-2,53,19,-4,-78,-87,-92
-97,-48,48,73,-73,0,53,14,-4,-78,-92,-92
-97,-48,48,73,-73,0,48,14,-4,-82,-92,-97
-82,-48,34,65,-58,-7,43,4,-14,-92,-102,-107
-78,-48,29,63,-53,-9,39,4,-19,-92,-102,-107
-73,-48,24,61,-48,-12,34,4,-19,-92,-102,-107
-68,-48,19,58,-43,-14,29,4,-19,-97,-102,-107
-73,-48,24,61,-48,-12,34,4,-19,-97,-102,-97
-73,-48,24,61,-48,-12,34,4,-19,-92,-102,-97
-73,-48,24,61,-48,-12,34,4,-19,-92,-102,-97
-73,-48,24,61,-48,-12,39,4,-24,-92,-102,-97
-73,-48,24,61,-48,-12,29,4,-24,-92,-102,-102
-73,-48,24,61,-48,-12,29,4,-24,-92,-102,-107
-73,-48,24,61,-48,-12,29,4,-24,-97,-102,-112
-73,-48,24,61,-48,-12,29,4,-24,-102,-102,-117
-82,-48,34,65,-58,-7,39,0,-24,-92,-92,-112
-82,-48,34,65,-58,-7,39,0,-24,-92,-92,-107
-82,-48,34,65,-58,-7,39,0,-24,-92,-92,-102
-82,-48,34,65,-58,-7,34,0,-24,-92,-92,-97
-82,-48,34,65,-58,-7,43,0,-29,-87,-92,-97
-87,-48,39,68,-63,-4,43,0,-29,-87,-92,-97
-102,-48,53,75,-78,2,43,4,-24,-82,-92,-97
-112,-48,63,80,-87,7,48,4,-24,-82,-92,-97
-112,-53,58,82,-85,2,48,14,-24,-92,-92,-97
-112,-53,58,82,-85,2,48,14,-24,-92,-92,-97
-112,-53,58,82,-85,2,48,14,-24,-92,-92,-97
-112,-53,58,82,-85,2,48,9,-24,-92,-92,-97
-63,-53,9,58,-36,-21,19,-9,-39,-117,-112,-107
-39,-43,-4,41,-17,-24,19,-4,-48,-112,-117,-131
-58,-43,14,51,-36,-14,29,-4,-48,-112,-112,-122
-87,-48,39,68,-63,-4,39,0,-39,-107,-107,-117
-97,-39,58,68,-78,9,48,4,-34,-102,-97,-112
-97,-39,58,68,-78,9,48,9,-29,-97,-97,-107
-97,-39,58,68,-78,9,48,14,-24,-92,-97,-102
-97,-39,58,68,-78,9,48,19,-19,-87,-97,-97
-92,-34,58,63,-75,12,53,14,-14,-97,-107,-107
-78,-29,48,53,-63,9,53,14,-19,-97,-107,-107
-73,-29,43,51,-58,7,58,14,-24,-97,-107,-107
-63,-24,39,43,-51,7,63,14,-29,-97,-107,-102
-68,-24,43,46,-56,9,73,29,-19,-87,-102,-92
-73,-19,53,46,-63,17,73,29,-14,-87,-97,-92
-78,-19,58,48,-68,19,78,29,-9,-82,-92,-92
-82,-14,68,48,-75,26,82,34,-4,-78,-87,-87
-78,-9,68,43,-73,29,82,34,-14,-82,-87,-97
-73,-4,68,39,-70,31,82,34,-14,-82,-87,-97
-68,-4,63,36,-65,29,87,34,-9,-82,-92,-97
-63,0,63,31,-63,31,87,34,-4,-82,-92,-97
-73,4,78,34,-75,41,82,29,0,-78,-92,-87
-58,19,78,19,-68,48,82,29,4,-78,-92,-87
-53,39,92,7,-73,65,82,29,9,-68,-82,-82
-53,58,112,-2,-82,85,78,24,14,-63,-78,-78
-48,78,126,-14,-87,102,58,19,24,-58,-63,-73
-43,87,131,-21,-87,109,48,9,24,-53,-58,-63
-43,87,131,-21,-87,109,43,9,24,-53,-58,-63
-43,87,131,-21,-87,109,43,9,19,-53,-58,-63
-43,78,122,-17,-82,100,43,14,19,-53,-68,-63
-43,73,117,-14,-80,95,43,14,19,-58,-68,-58
-43,73,117,-14,-80,95,39,4,19,-58,-68,-58
-43,78,122,-17,-82,100,34,4,19,-58,-63,-58
-34,78,112,-21,-73,95,29,4,19,-53,-53,-53
-29,87,117,-29,-73,102,24,-4,14,-53,-58,-53
-14,87,102,-36,-58,95,19,-9,14,-58,-58,-53
-4,92,97,-43,-51,95,9,-9,14,-58,-53,-53
-14,107,122,-46,-68,114,9,-9,14,-53,-53,-48
-19,112,131,-46,-75,122,9,-9,19,-53,-53,-48
-24,112,136,-43,-80,124,9,-9,19,-53,-53,-48
-24,107,131,-41,-78,119,9,-9,14,-58,-58,-53
-39,97,136,-29,-87,117,14,-9,4,-53,-63,-43
-43,82,126,-19,-85,104,9,-9,0,-58,-63,-58
-58,73,131,-7,-95,102,4,-14,-4,-63,-63,-58
-68,58,126,4,-97,92,4,-14,-9,-68,-78,-68
-68,29,97,19,-82,63,4,-24,-19,-82,-92,-82
-78,19,97,29,-87,58,14,-19,-19,-87,-92,-82
-78,4,82,36,-80,43,24,-14,-24,-92,-92,-87
-82,-4,78,43,-80,36,24,-14,-24,-97,-97,-87
-73,-24,48,48,-61,12,14,-14,-29,-102,-102,-102
-73,-34,39,53,-56,2,9,-14,-39,-107,-107,-112
-73,-48,24,61,-48,-12,9,-19,-48,-122,-122,-117
-73,-48,24,61,-48,-12,9,-29,-58,-131,-126,-126
-73,-53,19,63,-46,-17,4,-29,-63,-126,-131,-131
-73,-63,9,68,-41,-26,4,-29,-63,-126,-131,-131
-78,-63,14,70,-46,-24,4,-29,-68,-126,-131,-131
-78,-63,14,70,-46,-24,4,-29,-68,-131,-131,-131
-92,-63,29,78,-61,-17,14,-29,-68,-131,-136,-122
-92,-68,24,80,-58,-21,14,-29,-68,-131,-136,-126
-97,-73,24,85,-61,-24,14,-29,-68,-131,-136,-126
-97,-78,19,87,-58,-29,14,-29,-68,-131,-136,-126
-102,-78,24,90,-63,-26,14,-24,-73,-131,-126,-117
-107,-78,29,92,-68,-24,14,-24,-73,-136,-131,-122
-107,-78,29,92,-68,-24,14,-24,-78,-136,-131,-126
-112,-87,24,100,-68,-31,9,-24,-78,-141,-136,-126
-97,-87,9,92,-53,-39,9,-34,-87,-151,-146,-136
-97,-92,4,95,-51,-43,9,-34,-87,-151,-146,-136
-92,-92,0,92,-46,-46,9,-34,-92,-156,-146,-136
-87,-92,-4,90,-41,-48,9,-34,-92,-156,-151,-136
-102,-102,0,102,-51,-51,9,-24,-82,-146,-141,-141
-102,-102,0,102,-51,-51,9,-24,-82,-146,-141,-141
-107,-107,0,107,-53,-53,19,-24,-82,-146,-141,-141
-107,-107,0,107,-53,-53,19,-19,-82,-146,-136,-136
-107,-112,-4,109,-51,-58,19,-19,-82,-146,-146,-136
-107,-112,-4,109,-51,-58,19,-19,-87,-146,-151,-136
-107,-117,-9,112,-48,-63,14,-19,-87,-151,-151,-146
-107,-117,-9,112,-48,-63,14,-29,-92,-151,-151,-146
-97,-107,-9,102,-43,-58,14,-39,-102,-161,-151,-146
-97,-107,-9,102,-43,-58,14,-39,-102,-161,-151,-146
-97,-107,-9,102,-43,-58,9,-39,-102,-161,-156,-151
-92,-107,-14,100,-39,-61,9,-39,-107,-161,-156,-151
-102,-107,-4,104,-48,-56,14,-29,-107,-161,-156,-146
-107,-112,-4,109,-51,-58,14,-29,-107,-165,-156,-146
-107,-112,-4,109,-51,-58,14,-29,-107,-165,-156,-146
-112,-107,4,109,-58,-51,14,-24,-102,-165,-156,-146
-112,-117,-4,114,-53,-61,14,-34,-102,-156,-146,-151
-112,-117,-4,114,-53,-61,14,-34,-102,-156,-146,-151
-107,-122,-14,114,-46,-68,14,-39,-107,-156,-146,-146
-107,-122,-14,114,-46,-68,14,-39,-107,-156,-146,-146
-102,-102,0,102,-51,-51,14,-29,-97,-156,-146,-146
-102,-107,-4,104,-48,-56,14,-24,-92,-151,-151,-136
-87,-117,-29,102,-29,-73,19,-9,-92,-151,-151,-146
-63,-146,-82,104,9,-114,43,34,-82,-151,-161,-165
-78,-180,-102,129,12,-141,87,92,-58,-146,-170,-190
-107,-185,-78,146,-14,-131,117,151,-24,-126,-161,-200
-107,-165,-58,136,-24,-112,136,180,24,-102,-141,-200
-117,-136,-19,126,-48,-78,151,214,82,-39,-102,-161
-92,-102,-9,97,-41,-56,170,239,146,29,-48,-126
-34,-78,-43,56,4,-61,165,253,209,97,14,-78
29,-34,-63,2,46,-48,161,253,273,165,92,0
92,9,-82,-51,87,-36,151,244,346,263,200,107
156,78,-78,-117,117,0,122,195,419,375,326,244
234,161,-73,-197,153,43,29,43,400,444,468,419
341,278,-63,-309,202,107,-117,-190,297,497,619,634
458,385,-73,-422,265,156,-263,-395,200,566,805,873
561,497,-63,-529,312,217,-366,-536,122,673,1024,1122
649,644,-4,-646,326,319,-444,-629,29,780,1244,1385
712,785,73,-749,319,429,-546,-712,-68,878,1454,1615
780,902,122,-841,329,512,-683,-819,-165,956,1634,1810
868,971,102,-919,383,536,-839,-927,-297,995,1776,1961
956,1000,43,-978,456,522,-1010,-1049,-468,976,1859,2059
980,951,-29,-966,505,461,-1141,-1185,-658,878,1834,2069
878,829,-48,-854,463,390,-1180,-1263,-819,722,1688,1956
707,619,-87,-663,397,265,-1112,-1254,-927,522,1381,1639
575,375,-200,-475,387,87,-1005,-1185,-980,317,1015,1205
468,180,-287,-324,378,-53,-932,-1122,-990,122,663,775
307,34,-273,-170,290,-119,-834,-1010,-936,-43,326,361
126,-53,-180,-36,153,-117,-712,-858,-829,-209,29,24
39,-107,-146,34,92,-126,-585,-727,-741,-351,-165,-107
19,-151,-170,65,95,-161,-463,-595,-663,-429,-268,-131
-29,-165,-136,97,53,-151,-336,-458,-566,-419,-302,-151
-48,-156,-107,102,29,-131,-239,-326,-424,-317,-234,-146
-34,-151,-117,92,41,-134,-146,-214,-287,-204,-146,-97
-14,-136,-122,75,53,-129,-87,-126,-195,-126,-97,-68
-19,-112,-92,65,36,-102,-43,-73,-141,-87,-68,-53
-19,-97,-78,58,29,-87,-19,-29,-97,-53,-34,-43
-19,-92,-73,56,26,-82,-4,-14,-87,-58,-34,-43
-39,-92,-53,65,7,-73,4,-14,-82,-68,-53,-68
-63,-82,-19,73,-21,-51,14,-9,-78,-63,-63,-68
-68,-82,-14,75,-26,-48,29,-4,-58,-63,-63,-73
-87,-87,0,87,-43,-43,29,0,-58,-63,-63,-78
-97,-87,9,92,-53,-39,34,9,-53,-63,-63,-82
-107,-87,19,97,-63,-34,48,19,-48,-63,-63,-82
-107,-92,14,100,-61,-39,53,29,-39,-63,-63,-82
-92,-92,0,92,-46,-46,53,24,-39,-68,-73,-97
-82,-92,-9,87,-36,-51,48,24,-39,-78,-82,-102
-78,-92,-14,85,-31,-53,48,24,-39,-82,-87,-102
-73,-92,-19,82,-26,-56,43,29,-39,-87,-92,-102
-58,-87,-29,73,-14,-58,48,29,-48,-87,-92,-102
-58,-87,-29,73,-14,-58,48,34,-43,-87,-97,-102
-58,-87,-29,73,-14,-58,53,34,-39,-87,-97,-112
-53,-87,-34,70,-9,-61,53,39,-39,-87,-97,-112
-58,-87,-29,73,-14,-58,53,39,-29,-73,-87,-107
-68,-87,-19,78,-24,-53,53,43,-24,-73,-87,-102
-73,-87,-14,80,-29,-51,53,43,-24,-73,-87,-92
-78,-82,-4,80,-36,-43,53,43,-24,-73,-87,-87
-78,-82,-4,80,-36,-43,63,58,-14,-63,-73,-87
-82,-82,0,82,-41,-41,68,58,-9,-58,-73,-82
-87,-82,4,85,-46,-39,68,58,-4,-58,-73,-82
-87,-82,4,85,-46,-39,73,63,-4,-58,-68,-82
-78,-82,-4,80,-36,-43,63,58,-14,-63,-68,-92
-68,-82,-14,75,-26,-48,58,53,-9,-63,-68,-92
-63,-82,-19,73,-21,-51,53,48,-9,-63,-68,-92
-58,-82,-24,70,-17,-53,53,43,-9,-63,-68,-92
-43,-82,-39,63,-2,-61,53,43,-19,-63,-78,-92
-39,-78,-39,58,0,-58,53,39,-19,-63,-78,-92
-39,-78,-39,58,0,-58,53,39,-19,-58,-73,-92
-43,-78,-34,61,-4,-56,53,43,-19,-53,-68,-87
-53,-68,-14,61,-19,-41,63,53,-14,-43,-63,-78
-53,-68,-14,61,-19,-41,63,58,-9,-43,-58,-78
-63,-68,-4,65,-29,-36,63,63,0,-43,-53,-73
-78,-63,14,70,-46,-24,68,68,9,-39,-43,-73
-68,-63,4,65,-36,-29,68,68,0,-34,-48,-73
-68,-58,9,63,-39,-24,68,68,0,-34,-48,-73
-68,-58,9,63,-39,-24,68,68,4,-34,-43,-68
-63,-63,0,63,-31,-31,68,73,4,-29,-43,-68
-43,-63,-19,53,-12,-41,63,58,-4,-29,-53,-73
-29,-63,-34,46,2,-48,58,53,-4,-34,-53,-78
-19,-58,-39,39,9,-48,53,48,-4,-39,-53,-78
-9,-58,-48,34,19,-53,48,43,-4,-43,-53,-82
-19,-58,-39,39,9,-48,58,43,4,-34,-48,-73
-24,-58,-34,41,4,-46,58,48,4,-24,-43,-68
-24,-53,-29,39,2,-41,58,58,9,-19,-43,-63
-29,-53,-24,41,-2,-39,58,63,9,-19,-43,-63
-24,-48,-24,36,0,-36,58,53,0,-19,-43,-68
-24,-48,-24,36,0,-36,58,53,0,-19,-34,-68
-29,-48,-19,39,-4,-34,58,58,0,-19,-34,-63
-29,-48,-19,39,-4,-34,58,58,9,-19,-34,-58
-29,-48,-19,39,-4,-34,48,48,9,-14,-24,-58
-19,-48,-29,34,4,-39,48,48,9,-14,-19,-53
-19,-43,-24,31,2,-34,48,53,9,-9,-19,-48
-14,-43,-29,29,7,-36,48,53,9,-4,-9,-48
-29,-53,-24,41,-2,-39,58,58,14,4,0,-39
-34,-53,-19,43,-7,-36,58,63,19,4,0,-34
-39,-48,-9,43,-14,-29,58,68,29,9,9,-34
-43,-48,-4,46,-19,-26,53,73,34,14,9,-34
-24,-39,-14,31,-4,-26,48,73,24,14,0,-43
-19,-34,-14,26,-2,-24,48,73,24,14,0,-39
-19,-34,-14,26,-2,-24,48,73,24,14,9,-34
-14,-34,-19,24,2,-26,48,73,24,24,9,-34
-24,-29,-4,26,-9,-17,53,73,34,39,19,-24
-24,-29,-4,26,-9,-17,53,73,34,39,29,-19
-24,-29,-4,26,-9,-17,53,82,43,43,29,-19
-24,-24,0,24,-12,-12,48,82,48,48,34,-9
-34,-24,9,29,-21,-7,48,92,48,53,48,4
-34,-19,14,26,-24,-2,48,92,53,53,53,9
-29,-19,9,24,-19,-4,48,97,53,58,58,9
-24,-19,4,21,-14,-7,43,97,53,63,63,14
4,-14,-19,4,12,-17,39,92,48,58,58,14
24,-4,-29,-9,26,-17,29,87,43,58,63,9
39,-4,-43,-17,41,-24,24,82,39,63,63,9
53,-4,-58,-24,56,-31,14,78,34,68,63,9
58,-4,-63,-26,61,-34,14,78,43,82,73,24
58,0,-58,-29,58,-29,14,78,48,87,73,24
63,0,-63,-31,63,-31,4,82,48,92,78,29
63,9,-53,-36,58,-21,4,82,48,97,82,34
68,9,-58,-39,63,-24,4,82,53,102,107,53
78,14,-63,-46,70,-24,0,82,53,107,112,63
87,19,-68,-53,78,-24,-4,87,53,112,117,68
97,24,-73,-61,85,-24,-9,87,53,117,122,73
122,29,-92,-75,107,-31,-14,87,43,122,131,73
131,34,-97,-82,114,-31,-19,87,43,131,136,78
131,34,-97,-82,114,-31,-19,87,43,136,151,87
141,39,-102,-90,122,-31,-24,87,43,146,161,97
146,43,-102,-95,124,-29,-19,92,58,165,180,107
151,48,-102,-100,126,-26,-24,92,58,170,185,126
156,53,-102,-104,129,-24,-29,92,58,185,195,141
161,58,-102,-109,131,-21,-34,92,58,185,204,156
161,68,-92,-114,126,-12,-34,97,63,200,234,170
161,73,-87,-117,124,-7,-39,97,68,209,244,180
170,73,-97,-122,134,-12,-43,97,68,209,253,195
175,82,-92,-129,134,-4,-48,97,68,224,263,204
195,92,-102,-143,148,-4,-58,87,58,234,263,214
214,97,-117,-156,165,-9,-68,87,63,234,273,224
224,102,-122,-163,173,-9,-78,87,63,244,283,234
248,107,-141,-178,195,-17,-87,87,58,248,292,248
253,102,-151,-178,202,-24,-92,87,68,248,302,244
258,107,-151,-183,204,-21,-92,87,63,263,307,253
263,112,-151,-187,207,-19,-97,87,63,263,317,263
268,117,-151,-192,209,-17,-102,87,63,263,326,273
263,122,-141,-192,202,-9,-97,97,63,263,336,287
278,126,-151,-202,214,-12,-102,92,63,268,341,292
283,126,-156,-204,219,-14,-107,87,58,268,341,292
283,126,-156,-204,219,-14,-107,87,58,273,341,302
268,136,-131,-202,200,2,-102,87,68,283,336,302
263,141,-122,-202,192,9,-97,87,68,283,341,302
253,141,-112,-197,183,14,-92,87,68,283,341,302
244,136,-107,-190,175,14,-82,92,68,278,341,302
248,131,-117,-190,183,7,-92,82,58,268,331,292
248,126,-122,-187,185,2,-87,82,58,258,317,283
239,117,-122,-178,180,-2,-82,82,63,248,307,273
229,107,-122,-168,175,-7,-73,82,63,239,287,263
209,112,-97,-161,153,7,-53,92,63,214,258,244
185,102,-82,-143,134,9,-48,87,63,195,244,219
165,97,-68,-131,117,14,-39,87,63,180,224,195
141,92,-48,-117,95,21,-34,82,58,161,200,165
126,73,-53,-100,90,9,-24,78,58,136,170,141
107,63,-43,-85,75,9,-19,73,58,122,146,117
92,58,-34,-75,63,12,-4,68,48,107,126,97
78,48,-29,-63,53,9,0,68,48,87,92,73
58,39,-19,-48,39,9,4,63,43,63,73,48
34,29,-4,-31,19,12,14,58,43,48,53,29
19,19,0,-19,9,9,14,53,34,24,34,9
4,14,9,-9,-2,12,19,43,29,9,14,-9
0,9,9,-4,-4,9,24,39,24,4,4,-14
-9,0,9,4,-9,4,29,34,19,-9,-9,-24
-19,-9,9,14,-14,0,29,29,9,-14,-29,-43
-34,-19,14,26,-24,-2,34,24,9,-29,-39,-53
-43,-19,24,31,-34,2,48,29,4,-34,-53,-53
-58,-24,34,41,-46,4,48,24,4,-43,-53,-68
-73,-29,43,51,-58,7,53,24,0,-48,-68,-73
-87,-34,53,61,-70,9,53,24,0,-53,-73,-73
-78,-39,39,58,-58,0,48,19,4,-53,-68,-82
-82,-43,39,63,-61,-2,48,14,-4,-63,-78,-92
-82,-43,39,63,-61,-2,43,9,-4,-73,-87,-97
-82,-43,39,63,-61,-2,43,9,-9,-73,-92,-102
-73,-48,24,61,-48,-12,43,4,-19,-78,-97,-97
-73,-53,19,63,-46,-17,43,4,-19,-78,-102,-97
-82,-53,29,68,-56,-12,43,4,-19,-82,-102,-102
-82,-53,29,68,-56,-12,43,4,-29,-82,-102,-102
-87,-53,34,70,-61,-9,43,4,-19,-78,-97,-107
-92,-53,39,73,-65,-7,43,0,-24,-82,-102,-112
-97,-53,43,75,-70,-4,48,0,-24,-82,-102,-112
-112,-53,58,82,-85,2,48,4,-24,-78,-102,-112
-112,-63,48,87,-80,-7,58,14,-24,-78,-102,-112
-112,-58,53,85,-82,-2,53,4,-24,-82,-102,-112
-112,-58,53,85,-82,-2,53,4,-24,-82,-102,-112
-112,-58,53,85,-82,-2,53,4,-29,-82,-102,-117
-102,-53,48,78,-75,-2,43,-4,-39,-87,-117,-126
-97,-53,43,75,-70,-4,43,-4,-39,-92,-122,-126
-87,-58,29,73,-58,-14,43,-4,-39,-97,-122,-126
-78,-58,19,68,-48,-19,43,-9,-43,-102,-122,-126
-92,-63,29,78,-61,-17,43,0,-34,-92,-112,-117
-97,-63,34,80,-65,-14,43,0,-34,-92,-112,-117
-97,-63,34,80,-65,-14,43,0,-34,-97,-112,-122
-102,-63,39,82,-70,-12,43,0,-34,-97,-112,-122
-97,-53,43,75,-70,-4,43,-9,-39,-97,-112,-122
-97,-53,43,75,-70,-4,43,-9,-39,-97,-117,-122
-102,-53,48,78,-75,-2,43,-9,-39,-97,-122,-122
-102,-53,48,78,-75,-2,43,-9,-39,-97,-126,-122
-107,-43,63,75,-85,9,43,0,-29,-87,-122,-122
-107,-48,58,78,-82,4,43,0,-34,-87,-122,-122
-107,-48,58,78,-82,4,43,0,-39,-87,-117,-122
-107,-48,58,78,-82,4,43,0,-39,-87,-117,-122
-102,-58,43,80,-73,-7,43,0,-39,-97,-122,-122
-97,-58,39,78,-68,-9,43,0,-39,-97,-122,-122
-87,-58,29,73,-58,-14,43,-4,-39,-97,-122,-122
-82,-58,24,70,-53,-17,43,-4,-39,-97,-126,-126
-92,-58,34,75,-63,-12,53,4,-34,-87,-117,-117
-102,-58,43,80,-73,-7,53,4,-29,-87,-112,-117
-112,-58,53,85,-82,-2,53,9,-24,-82,-112,-117
-126,-58,68,92,-97,4,53,9,-14,-82,-112,-117
-117,-58,58,87,-87,0,43,4,-19,-87,-122,-126
-107,-58,48,82,-78,-4,43,0,-24,-92,-122,-126
-97,-63,34,80,-65,-14,43,-4,-29,-97,-122,-126
-92,-63,29,78,-61,-17,48,0,-34,-102,-122,-122
-107,-63,43,85,-75,-9,58,4,-29,-87,-112,-112
-112,-63,48,87,-80,-7,53,4,-24,-82,-112,-117
-117,-63,53,90,-85,-4,53,9,-19,-78,-112,-117
-122,-63,58,92,-90,-2,53,19,-14,-73,-112,-112
-112,-63,48,87,-80,-7,58,9,-14,-82,-112,-122
-107,-58,48,82,-78,-4,58,9,-14,-82,-112,-122
-107,-58,48,82,-78,-4,53,9,-14,-82,-112,-122
-107,-58,48,82,-78,-4,53,9,-14,-82,-112,-122
-102,-48,53,75,-78,2,43,9,-24,-73,-112,-117
-97,-53,43,75,-70,-4,43,9,-24,-73,-112,-117
-92,-53,39,73,-65,-7,43,9,-19,-73,-112,-117
-82,-48,34,65,-58,-7,43,14,-14,-68,-112,-117
-97,-48,48,73,-73,0,53,14,-4,-78,-107,-117
-102,-48,53,75,-78,2,53,14,-4,-78,-107,-117
-107,-48,58,78,-82,4,48,14,-4,-78,-107,-117
-112,-48,63,80,-87,7,48,14,-4,-78,-102,-117
-92,-48,43,70,-68,-2,43,4,-9,-78,-112,-122
-82,-48,34,65,-58,-7,43,9,-14,-78,-107,-122
-73,-48,24,61,-48,-12,39,9,-19,-78,-107,-122
-58,-48,9,53,-34,-19,39,4,-19,-73,-112,-122
-63,-48,14,56,-39,-17,48,14,-9,-73,-102,-122
-68,-48,19,58,-43,-14,48,14,-9,-73,-102,-122
-73,-48,24,61,-48,-12,48,14,-14,-73,-102,-122
-78,-48,29,63,-53,-9,48,14,-14,-73,-107,-122
-68,-48,19,58,-43,-14,39,9,-19,-73,-117,-112
-68,-48,19,58,-43,-14,39,9,-19,-73,-112,-112
-63,-48,14,56,-39,-17,39,4,-24,-73,-112,-112
-63,-48,14,56,-39,-17,39,4,-24,-68,-112,-112
-68,-48,19,58,-43,-14,39,4,-19,-68,-112,-122
-73,-48,24,61,-48,-12,39,4,-14,-73,-107,-117
-87,-48,39,68,-63,-4,39,4,-14,-73,-107,-112
-92,-48,43,70,-68,-2,39,4,-14,-73,-107,-112
-92,-48,43,70,-68,-2,43,9,-14,-68,-97,-102
-92,-48,43,70,-68,-2,43,9,-14,-68,-97,-102
-92,-48,43,70,-68,-2,43,4,-14,-68,-102,-102
-87,-48,39,68,-63,-4,39,4,-14,-73,-102,-107
-87,-39,48,63,-68,4,39,14,-14,-82,-102,-117
-87,-39,48,63,-68,4,39,14,-19,-82,-102,-117
-87,-39,48,63,-68,4,39,14,-19,-82,-102,-117
-87,-39,48,63,-68,4,39,14,-19,-87,-102,-117
-82,-48,34,65,-58,-7,34,4,-19,-87,-102,-117
-82,-48,34,65,-58,-7,34,4,-19,-82,-102,-117
-82,-48,34,65,-58,-7,34,4,-19,-82,-102,-117
-82,-48,34,65,-58,-7,39,4,-24,-82,-102,-117
-82,-58,24,70,-53,-17,39,14,-14,-73,-102,-117
-82,-58,24,70,-53,-17,39,14,-14,-73,-102,-117
-82,-58,24,70,-53,-17,39,14,-14,-78,-102,-117
-82,-58,24,70,-53,-17,39,14,-14,-82,-102,-117
-87,-58,29,73,-58,-14,48,19,-14,-73,-102,-107
-92,-58,34,75,-63,-12,48,19,-14,-73,-102,-107
-97,-58,39,78,-68,-9,48,19,-14,-73,-102,-107
-102,-58,43,80,-73,-7,43,19,-14,-73,-102,-107
-82,-58,24,70,-53,-17,34,14,-29,-82,-107,-117
-78,-58,19,68,-48,-19,34,9,-29,-87,-112,-117
-82,-58,24,70,-53,-17,34,9,-24,-87,-117,-117
-82,-58,24,70,-53,-17,39,4,-24,-92,-122,-117
-92,-53,39,73,-65,-7,39,4,-24,-92,-122,-117
-92,-53,39,73,-65,-7,39,4,-24,-92,-122,-117
-92,-53,39,73,-65,-7,39,4,-24,-92,-122,-117
-92,-53,39,73,-65,-7,39,0,-24,-92,-122,-117
-97,-53,43,75,-70,-4,48,4,-19,-87,-117,-107
-97,-53,43,75,-70,-4,48,4,-19,-92,-117,-112
-102,-53,48,78,-75,-2,48,9,-19,-92,-117,-112
-107,-53,53,80,-80,0,43,14,-29,-92,-112,-112
-107,-53,53,80,-80,0,53,14,-19,-82,-112,-112
-117,-53,63,85,-90,4,53,14,-14,-82,-102,-112
-97,-48,48,73,-73,0,48,9,-19,-87,-107,-107
-92,-39,53,65,-73,7,39,9,-29,-87,-117,-117
-87,-39,48,63,-68,4,39,9,-29,-87,-117,-117
-82,-39,43,61,-63,2,39,9,-29,-87,-117,-117
-78,-39,39,58,-58,0,39,9,-29,-87,-117,-117
-73,-24,48,48,-61,12,53,14,-19,-97,-126,-117
-58,-19,39,39,-48,9,53,14,-19,-97,-126,-117
-53,-19,34,36,-43,7,58,14,-19,-97,-126,-117
-43,-14,29,29,-36,7,63,14,-19,-97,-126,-112
-48,-14,34,31,-41,9,63,29,-9,-87,-122,-112
-53,-9,43,31,-48,17,63,29,-4,-87,-117,-112
-58,-9,48,34,-53,19,68,29,0,-82,-112,-112
-63,-4,58,34,-61,26,73,34,4,-78,-107,-107
-63,0,63,31,-63,31,73,43,-4,-73,-112,-107
-63,4,68,29,-65,36,73,43,-4,-73,-107,-107
-63,4,68,29,-65,36,78,43,0,-73,-107,-107
-63,9,73,26,-68,41,78,43,4,-73,-102,-107
-63,4,68,29,-65,36,82,48,9,-68,-102,-97
-48,19,68,14,-58,43,82,48,14,-68,-102,-97
-43,39,82,2,-63,61,82,48,19,-58,-92,-92
-43,58,102,-7,-73,80,78,43,24,-53,-87,-87
-43,78,122,-17,-82,100,78,29,39,-39,-73,-73
-43,87,131,-21,-87,109,68,19,43,-34,-68,-63
-48,87,136,-19,-92,112,63,19,48,-34,-68,-63
-53,87,141,-17,-97,114,63,19,48,-34,-68,-63
-53,87,141,-17,-97,114,53,24,48,-34,-68,-73
-53,82,136,-14,-95,109,53,24,48,-39,-68,-68
-53,82,136,-14,-95,109,48,14,48,-39,-68,-68
-53,87,141,-17,-97,114,43,14,48,-39,-63,-68
-53,78,131,-12,-92,104,39,14,48,-34,-53,-63
-48,87,136,-19,-92,112,34,4,43,-34,-58,-63
-34,87,122,-26,-78,104,29,0,43,-39,-58,-63
-24,92,117,-34,-70,104,19,0,43,-39,-53,-63
-19,107,126,-43,-73,117,19,0,34,-34,-63,-58
-19,112,131,-46,-75,122,19,0,39,-34,-63,-58
-19,112,131,-46,-75,122,19,0,39,-34,-63,-58
-14,107,122,-46,-68,114,19,0,34,-39,-68,-63
-24,107,131,-41,-78,119,14,0,34,-43,-73,-58
-24,92,117,-34,-70,104,9,0,29,-48,-73,-68
-34,82,117,-24,-75,100,4,-4,24,-53,-73,-63
-39,68,107,-14,-73,87,4,-4,19,-58,-87,-68
-34,48,82,-7,-58,65,-4,-9,0,-78,-102,-78
-48,39,87,4,-68,63,4,-9,0,-78,-102,-82
-53,24,78,14,-65,51,14,-9,-4,-78,-102,-92
-63,14,78,24,-70,46,14,-14,-4,-78,-107,-97
-73,-4,68,39,-70,31,19,0,-4,-78,-97,-97
-82,-14,68,48,-75,26,19,4,-9,-78,-97,-102
-92,-29,63,61,-78,17,24,4,-14,-87,-107,-102
-102,-29,73,65,-87,21,29,0,-19,-92,-107,-107
-92,-43,48,68,-70,2,14,-4,-29,-102,-126,-126
-82,-53,29,68,-56,-12,14,-9,-34,-107,-131,-131
-78,-53,24,65,-51,-14,14,-14,-43,-112,-136,-136
-68,-53,14,61,-41,-19,14,-19,-48,-122,-141,-141
-82,-53,29,68,-56,-12,14,-19,-48,-112,-136,-131
-82,-58,24,70,-53,-17,14,-19,-48,-112,-136,-136
-87,-63,24,75,-56,-19,14,-19,-48,-112,-136,-136
-87,-68,19,78,-53,-24,14,-19,-48,-112,-136,-136
-78,-58,19,68,-48,-19,14,-24,-53,-122,-136,-136
-78,-58,19,68,-48,-19,14,-24,-53,-126,-141,-141
-73,-58,14,65,-43,-21,14,-24,-58,-126,-141,-146
-73,-68,4,70,-39,-31,9,-24,-58,-131,-146,-146
-82,-78,4,80,-43,-36,19,-14,-53,-122,-146,-136
-87,-82,4,85,-46,-39,19,-14,-48,-122,-146,-136
-87,-82,4,85,-46,-39,19,-14,-48,-126,-146,-136
-87,-82,4,85,-46,-39,19,-14,-43,-126,-151,-136
-107,-82,24,95,-65,-29,19,-14,-53,-117,-151,-131
-112,-82,29,97,-70,-26,19,-14,-53,-117,-151,-131
-122,-87,34,104,-78,-26,29,-14,-53,-117,-151,-131
-126,-87,39,107,-82,-24,29,-9,-53,-117,-146,-126
-117,-92,24,104,-70,-34,24,-19,-63,-126,-156,-131
-107,-92,14,100,-61,-39,19,-19,-68,-126,-161,-136
-97,-97,0,97,-48,-48,9,-19,-68,-131,-161,-151
-87,-97,-9,92,-39,-53,4,-29,-73,-131,-161,-156
-87,-97,-9,92,-39,-53,14,-29,-73,-141,-161,-156
-87,-97,-9,92,-39,-53,14,-29,-73,-141,-161,-156
-87,-97,-9,92,-39,-53,9,-29,-73,-141,-165,-161
-82,-97,-14,90,-34,-56,9,-29,-78,-141,-165,-161
-87,-97,-9,92,-39,-53,14,-19,-68,-136,-156,-146
-97,-102,-4,100,-46,-53,14,-19,-68,-136,-156,-146
-102,-102,0,102,-51,-51,14,-19,-68,-131,-156,-146
-112,-97,14,104,-63,-41,14,-14,-63,-126,-156,-146
-112,-97,14,104,-63,-41,24,-14,-63,-126,-156,-151
-112,-97,14,104,-63,-41,24,-14,-63,-126,-156,-151
-107,-102,4,104,-56,-48,24,-19,-68,-126,-156,-146
-107,-102,4,104,-56,-48,24,-19,-68,-126,-156,-146
-102,-92,9,97,-56,-41,24,-19,-58,-126,-156,-146
-92,-97,-4,95,-43,-51,24,-14,-63,-131,-161,-156
-78,-97,-19,87,-29,-58,29,-9,-63,-131,-161,-156
-73,-107,-34,90,-19,-70,43,14,-53,-131,-170,-165
-78,-131,-53,104,-12,-92,68,73,-39,-126,-170,-180
-68,-156,-87,112,9,-122,97,122,-14,-126,-180,-200
-68,-146,-78,107,4,-112,117,161,14,-112,-180,-219
-78,-117,-39,97,-19,-78,141,204,63,-78,-161,-209
-82,-92,-9,87,-36,-51,161,229,126,-19,-117,-175
-63,-78,-14,70,-24,-46,165,253,190,48,-63,-136
-9,-34,-24,21,7,-29,180,263,253,117,4,-78
63,19,-43,-41,53,-12,170,263,317,195,82,0
126,68,-58,-97,92,4,151,234,390,287,190,107
185,131,-53,-158,119,39,97,122,409,375,322,253
263,229,-34,-246,148,97,-19,-82,375,448,453,439
380,346,-34,-363,207,156,-165,-317,287,507,619,649
522,458,-63,-490,292,197,-297,-507,170,585,800,897
639,595,-43,-617,341,275,-414,-639,78,692,1029,1151
722,746,24,-734,348,385,-527,-751,-9,810,1239,1390
810,883,73,-846,368,478,-663,-878,-107,888,1429,1595
897,971,73,-934,412,522,-819,-995,-229,946,1590,1776
966,1019,53,-993,456,536,-980,-1098,-361,985,1722,1912
1010,1019,9,-1015,500,514,-1132,-1215,-522,966,1795,2000
1005,946,-58,-976,531,444,-1239,-1342,-692,858,1737,1986
912,785,-126,-849,519,329,-1239,-1390,-849,678,1527,1805
741,561,-180,-651,461,190,-1151,-1342,-922,473,1220,1478
595,346,-248,-470,422,48,-1058,-1259,-951,278,868,1078
483,170,-312,-326,397,-70,-980,-1146,-907,122,570,702
322,43,-278,-183,300,-117,-849,-976,-790,-4,292,336
146,-39,-185,-53,165,-112,-692,-805,-683,-165,19,58
68,-92,-161,12,114,-126,-551,-673,-624,-302,-161,-73
19,-126,-146,53,82,-136,-414,-527,-536,-361,-253,-102
-29,-126,-97,78,34,-112,-278,-375,-405,-317,-244,-126
-24,-112,-87,68,31,-100,-175,-253,-278,-204,-165,-107
4,-97,-102,46,53,-100,-117,-156,-195,-126,-107,-78
9,-73,-82,31,46,-78,-73,-82,-122,-78,-78,-63
9,-58,-68,24,39,-63,-29,-39,-78,-43,-53,-63
9,-53,-63,21,36,-58,-14,-14,-48,-29,-43,-53
-9,-53,-43,31,17,-48,-4,-4,-43,-29,-53,-68
-34,-53,-19,43,-7,-36,4,0,-39,-34,-63,-78
-39,-53,-14,46,-12,-34,9,4,-29,-43,-63,-82
-39,-58,-19,48,-9,-39,9,0,-19,-53,-73,-87
-48,-58,-9,53,-19,-34,14,9,-14,-53,-73,-92
-58,-58,0,58,-29,-29,29,19,-9,-53,-73,-92
-58,-63,-4,61,-26,-34,34,29,0,-53,-73,-92
-73,-73,0,73,-36,-36,48,43,9,-43,-78,-87
-73,-73,0,73,-36,-36,48,43,9,-48,-82,-92
-78,-73,4,75,-41,-34,53,43,9,-48,-82,-92
-82,-73,9,78,-46,-31,53,48,9,-48,-82,-92
-68,-68,0,68,-34,-34,48,58,9,-48,-73,-92
-68,-68,0,68,-34,-34,48,63,14,-48,-78,-92
-68,-68,0,68,-34,-34,53,63,19,-48,-78,-102
-63,-68,-4,65,-29,-36,53,68,19,-48,-78,-102
-53,-68,-14,61,-19,-41,53,63,9,-43,-82,-112
-58,-68,-9,63,-24,-39,53,63,14,-43,-87,-112
-58,-68,-9,63,-24,-39,53,58,14,-43,-92,-107
-58,-63,-4,61,-26,-34,53,53,14,-43,-97,-107
-48,-63,-14,56,-17,-39,63,58,14,-43,-92,-107
-53,-63,-9,58,-21,-36,68,58,19,-39,-92,-102
-58,-63,-4,61,-26,-34,68,58,24,-39,-92,-102
-58,-63,-4,61,-26,-34,73,63,24,-39,-87,-102
-68,-63,4,65,-36,-29,73,73,34,-34,-78,-92
-68,-63,4,65,-36,-29,68,73,39,-34,-78,-92
-73,-63,9,68,-41,-26,63,73,39,-34,-78,-92
-78,-63,14,70,-46,-24,63,73,39,-34,-78,-92
-58,-53,4,56,-31,-24,53,73,29,-43,-87,-102
-48,-48,0,48,-24,-24,53,68,29,-43,-87,-102
-43,-48,-4,46,-19,-26,53,68,29,-39,-82,-102
-43,-48,-4,46,-19,-26,53,73,29,-34,-78,-97
-43,-48,-4,46,-19,-26,63,68,39,-24,-78,-97
-34,-48,-14,41,-9,-31,63,68,39,-24,-78,-97
-34,-48,-14,41,-9,-31,63,68,43,-24,-78,-92
-39,-43,-4,41,-17,-24,68,68,48,-19,-73,-92
-39,-43,-4,41,-17,-24,58,78,39,-14,-68,-92
-39,-39,0,39,-19,-19,58,78,39,-14,-68,-92
-39,-39,0,39,-19,-19,58,78,43,-14,-63,-87
-34,-43,-9,39,-12,-26,58,82,43,-9,-63,-87
-39,-34,4,36,-21,-14,68,82,53,-4,-58,-78
-39,-34,4,36,-21,-14,68,82,53,-4,-53,-78
-43,-29,14,36,-29,-7,68,82,53,-4,-48,-73
-48,-29,19,39,-34,-4,68,82,53,-4,-43,-73
-43,-39,4,41,-24,-17,68,78,53,-4,-39,-73
-43,-39,4,41,-24,-17,68,78,53,4,-34,-68
-39,-34,4,36,-21,-14,68,82,58,9,-34,-63
-39,-34,4,36,-21,-14,68,82,58,9,-34,-63
-43,-19,24,31,-34,2,68,92,68,19,-34,-58
-43,-19,24,31,-34,2,68,92,68,19,-24,-58
-48,-19,29,34,-39,4,68,97,68,19,-24,-53
-48,-19,29,34,-39,4,68,97,78,19,-24,-48
-58,-19,39,39,-48,9,68,87,78,24,-24,-58
-48,-19,29,34,-39,4,68,87,78,24,-19,-53
-48,-14,34,31,-41,9,68,92,78,29,-19,-48
-43,-14,29,29,-36,7,68,92,78,34,-9,-48
-24,-14,9,19,-17,-2,58,82,73,29,-19,-58
-14,-14,0,14,-7,-7,58,82,68,24,-19,-53
-4,-9,-4,7,0,-7,58,82,68,24,-9,-53
4,-9,-14,2,9,-12,53,82,63,24,-9,-53
9,-9,-19,0,14,-14,58,92,73,34,-9,-53
9,-4,-14,-2,12,-9,58,92,73,34,-9,-48
4,-4,-9,0,7,-7,58,92,73,34,0,-43
4,-4,-9,0,7,-7,58,92,73,43,0,-43
4,0,-4,-2,4,-2,53,92,73,48,9,-43
4,0,-4,-2,4,-2,53,92,73,48,19,-39
4,0,-4,-2,4,-2,53,102,82,53,19,-39
4,4,0,-4,2,2,48,102,87,58,24,-29
4,-4,-9,0,7,-7,48,102,87,63,19,-24
4,0,-4,-2,4,-2,48,102,92,63,24,-19
9,0,-9,-4,9,-4,48,107,92,68,29,-19
14,0,-14,-7,14,-7,43,107,92,73,34,-14
19,4,-14,-12,17,-4,53,107,102,87,43,-9
24,14,-9,-19,17,2,48,107,102,87,53,-9
24,14,-9,-19,17,2,48,107,102,92,58,-4
24,14,-9,-19,17,2,43,107,102,97,63,0
39,14,-24,-26,31,-4,34,107,92,92,63,4
48,19,-29,-34,39,-4,34,107,97,97,63,4
63,19,-43,-41,53,-12,24,112,97,102,68,9
73,29,-43,-51,58,-7,24,112,97,107,73,14
73,29,-43,-51,58,-7,34,122,112,122,97,34
78,34,-43,-56,61,-4,29,122,112,126,102,43
82,39,-43,-61,63,-2,24,126,112,131,107,48
87,43,-43,-65,65,0,19,126,112,136,112,53
112,48,-63,-80,87,-7,14,126,102,131,112,53
122,53,-68,-87,95,-7,9,126,102,141,117,58
122,53,-68,-87,95,-7,9,126,102,146,131,68
131,58,-73,-95,102,-7,4,126,102,156,141,78
131,63,-68,-97,100,-2,-9,131,107,165,151,82
141,68,-73,-104,107,-2,-14,131,107,170,156,97
151,73,-78,-112,114,-2,-19,131,107,185,165,107
161,78,-82,-119,122,-2,-24,131,107,185,175,117
151,87,-63,-119,107,12,-14,146,122,204,204,141
151,92,-58,-122,104,17,-19,146,126,219,214,151
161,92,-68,-126,114,12,-24,146,126,224,224,165
165,102,-63,-134,114,19,-29,146,126,244,234,175
180,102,-78,-141,129,12,-34,146,136,244,244,185
195,107,-87,-151,141,9,-39,146,141,244,253,195
200,112,-87,-156,143,12,-43,146,141,253,263,204
219,117,-102,-168,161,7,-48,146,136,258,273,219
244,131,-112,-187,178,9,-63,136,131,248,278,214
258,136,-122,-197,190,7,-63,136,122,263,278,224
273,141,-131,-207,202,4,-68,136,117,263,283,234
287,146,-141,-217,214,2,-73,136,112,263,287,244
287,151,-136,-219,212,7,-68,146,122,273,297,248
297,156,-141,-226,219,7,-73,141,122,278,302,253
297,156,-141,-226,219,7,-78,136,117,278,302,253
292,156,-136,-224,214,9,-78,136,117,283,302,263
292,156,-136,-224,214,9,-78,126,117,273,307,263
292,161,-131,-226,212,14,-78,126,117,273,312,263
287,161,-126,-224,207,17,-78,126,117,273,312,263
283,156,-126,-219,204,14,-73,131,117,268,312,263
287,156,-131,-222,209,12,-73,131,117,263,297,258
287,156,-131,-222,209,12,-68,131,117,258,287,253
278,151,-126,-214,202,12,-63,131,122,253,283,248
268,146,-122,-207,195,12,-53,131,122,248,268,244
258,141,-117,-200,187,12,-53,131,122,234,248,229
234,131,-102,-183,168,14,-48,126,122,214,234,209
214,126,-87,-170,151,19,-39,126,122,200,214,190
190,122,-68,-156,129,26,-34,122,117,180,190,165
170,112,-58,-141,114,26,-14,117,107,165,175,151
146,102,-43,-124,95,29,-9,112,107,151,156,126
126,97,-29,-112,78,34,4,107,97,136,141,107
107,87,-19,-97,63,34,9,107,97,117,112,82
87,78,-9,-82,48,34,14,92,102,102,82,78
63,68,4,-65,29,36,24,87,102,87,63,58
48,58,9,-53,19,34,24,82,92,63,43,39
34,53,19,-43,7,36,29,73,87,48,24,19
19,39,19,-29,0,29,34,68,73,43,9,14
9,29,19,-19,-4,24,39,63,68,29,0,4
0,19,19,-9,-9,19,39,58,58,24,-14,-14
-14,9,24,2,-19,17,43,53,58,9,-19,-24
-14,9,24,2,-19,17,39,48,53,-4,-43,-43
-29,4,34,12,-31,19,39,43,53,-14,-43,-58
-43,0,43,21,-43,21,43,43,48,-19,-58,-63
-58,-4,53,31,-56,24,43,43,48,-24,-63,-63
-58,-9,48,34,-53,19,58,39,43,-24,-58,-73
-63,-14,48,39,-56,17,58,34,34,-34,-68,-82
-63,-14,48,39,-56,17,53,29,34,-43,-78,-87
-63,-14,48,39,-56,17,53,29,29,-43,-82,-92
-53,-19,34,36,-43,7,43,14,29,-48,-97,-97
-53,-24,29,39,-41,2,43,14,29,-48,-102,-97
-63,-24,39,43,-51,7,43,14,29,-53,-102,-102
-63,-24,39,43,-51,7,43,14,19,-53,-102,-102
-73,-34,39,53,-56,2,43,24,19,-58,-97,-97
-73,-34,39,53,-56,2,43,19,14,-63,-102,-102
-73,-34,39,53,-56,2,48,19,14,-63,-102,-102
-82,-34,48,58,-65,7,48,24,14,-58,-102,-102
-82,-34,48,58,-65,7,48,24,14,-68,-102,-102
-82,-29,53,56,-68,12,43,14,14,-73,-102,-102
-82,-29,53,56,-68,12,43,14,14,-73,-102,-102
-82,-29,53,56,-68,12,43,14,9,-73,-102,-107
-73,-34,39,53,-56,2,43,4,9,-73,-107,-107
-78,-34,43,56,-61,4,43,4,9,-73,-112,-107
-78,-39,39,58,-58,0,43,4,9,-73,-112,-107
-78,-39,39,58,-58,0,43,0,4,-73,-112,-107
-87,-34,53,61,-70,9,43,9,4,-73,-112,-107
-87,-34,53,61,-70,9,43,9,4,-73,-112,-107
-82,-34,48,58,-65,7,43,9,4,-78,-112,-112
-82,-34,48,58,-65,7,43,9,4,-78,-112,-112
-92,-34,58,63,-75,12,53,9,19,-68,-107,-112
-97,-34,63,65,-80,14,53,9,19,-68,-107,-112
-107,-34,73,70,-90,19,53,9,19,-68,-107,-112
-112,-34,78,73,-95,21,53,9,19,-68,-107,-112
-107,-34,73,70,-90,19,53,19,19,-68,-102,-112
-107,-39,68,73,-87,14,53,19,14,-68,-102,-112
-107,-39,68,73,-87,14,53,19,9,-68,-97,-112
-107,-39,68,73,-87,14,53,19,9,-68,-97,-112
-117,-39,78,78,-97,19,43,19,9,-68,-112,-102
-117,-39,78,78,-97,19,43,19,9,-68,-112,-102
-112,-39,73,75,-92,17,43,14,9,-68,-112,-102
-112,-39,73,75,-92,17,43,14,9,-68,-117,-107
-92,-29,63,61,-78,17,34,9,4,-73,-126,-112
-82,-29,53,56,-68,12,34,4,0,-78,-122,-117
-73,-29,43,51,-58,7,34,4,-4,-78,-122,-122
-68,-29,39,48,-53,4,34,0,-4,-82,-122,-126
-68,-29,39,48,-53,4,34,-9,-4,-82,-131,-126
-68,-29,39,48,-53,4,34,-9,-4,-82,-131,-126
-68,-34,34,51,-51,0,34,-9,-4,-82,-131,-126
-73,-34,39,53,-56,2,39,0,-4,-82,-131,-122
-73,-34,39,53,-56,2,48,9,4,-73,-122,-112
-73,-34,39,53,-56,2,43,4,4,-73,-122,-117
-73,-34,39,53,-56,2,43,4,4,-73,-122,-117
-73,-34,39,53,-56,2,43,9,4,-73,-122,-112
-78,-43,34,61,-56,-4,58,19,14,-73,-112,-122
-78,-39,39,58,-58,0,58,19,14,-73,-112,-122
-82,-39,43,61,-63,2,53,19,14,-73,-112,-122
-87,-39,48,63,-68,4,53,19,14,-73,-112,-122
-87,-39,48,63,-68,4,53,19,14,-73,-112,-117
-87,-43,43,65,-65,0,53,19,14,-73,-112,-117
-87,-43,43,65,-65,0,53,19,19,-73,-112,-117
-82,-39,43,61,-63,2,53,24,24,-68,-112,-117
-73,-39,34,56,-53,-2,53,14,14,-68,-117,-117
-73,-39,34,56,-53,-2,53,14,14,-68,-117,-117
-73,-39,34,56,-53,-2,48,14,14,-68,-117,-117
-73,-39,34,56,-53,-2,48,14,14,-68,-112,-117
-78,-39,39,58,-58,0,63,19,24,-63,-102,-112
-82,-39,43,61,-63,2,63,29,24,-58,-97,-112
-87,-39,48,63,-68,4,58,34,24,-53,-97,-112
-87,-39,48,63,-68,4,58,34,29,-43,-102,-112
-87,-39,48,63,-68,4,48,34,29,-53,-102,-112
-87,-39,48,63,-68,4,48,34,29,-53,-102,-112
-87,-39,48,63,-68,4,48,34,24,-53,-102,-112
-87,-39,48,63,-68,4,48,34,24,-53,-107,-112
-97,-48,48,73,-73,0,58,48,39,-43,-97,-102
-97,-48,48,73,-73,0,58,48,39,-43,-92,-102
-92,-48,43,70,-68,-2,58,43,34,-43,-92,-102
-92,-48,43,70,-68,-2,58,43,34,-39,-92,-102
-87,-39,48,63,-68,4,58,34,29,-48,-102,-112
-82,-39,43,61,-63,2,58,34,34,-53,-97,-107
-87,-39,48,63,-68,4,58,34,34,-53,-97,-102
-82,-39,43,61,-63,2,58,34,34,-53,-97,-102
-82,-39,43,61,-63,2,53,39,34,-48,-87,-112
-82,-39,43,61,-63,2,53,39,34,-48,-87,-112
-82,-39,43,61,-63,2,53,34,34,-48,-92,-112
-78,-39,39,58,-58,0,48,34,34,-53,-92,-117
-82,-39,43,61,-63,2,58,43,34,-43,-92,-107
-87,-39,48,63,-68,4,58,43,29,-43,-92,-107
-92,-39,53,65,-73,7,58,43,29,-43,-92,-107
-97,-39,58,68,-78,9,58,43,29,-48,-92,-107
-97,-39,58,68,-78,9,58,43,34,-39,-82,-97
-102,-39,63,70,-82,12,63,43,39,-34,-82,-97
-107,-39,68,73,-87,14,68,43,43,-34,-82,-97
-112,-39,73,75,-92,17,78,43,43,-34,-82,-97
-102,-39,63,70,-82,12,63,34,39,-39,-87,-107
-92,-39,53,65,-73,7,58,34,34,-43,-92,-107
-82,-39,43,61,-63,2,53,34,29,-53,-97,-107
-73,-39,34,56,-53,-2,48,34,24,-63,-102,-107
-58,-48,9,53,-34,-19,39,19,14,-53,-112,-117
-53,-48,4,51,-29,-21,39,19,14,-53,-112,-117
-48,-48,0,48,-24,-24,39,19,14,-53,-112,-117
-43,-48,-4,46,-19,-26,34,19,14,-53,-112,-117
-53,-39,14,46,-34,-12,43,19,9,-58,-102,-117
-58,-39,19,48,-39,-9,43,19,9,-58,-102,-117
-73,-39,34,56,-53,-2,43,24,14,-53,-102,-117
-82,-39,43,61,-63,2,48,24,14,-53,-102,-117
-82,-43,39,63,-61,-2,58,24,24,-53,-102,-107
-82,-43,39,63,-61,-2,58,24,24,-53,-102,-107
-82,-43,39,63,-61,-2,58,24,24,-53,-102,-107
-82,-43,39,63,-61,-2,58,19,24,-53,-102,-107
-92,-53,39,73,-65,-7,48,29,29,-58,-102,-107
-87,-53,34,70,-61,-9,48,24,29,-63,-107,-112
-87,-53,34,70,-61,-9,48,24,29,-63,-112,-112
-87,-53,34,70,-61,-9,43,24,19,-63,-112,-112
-68,-53,14,61,-41,-19,43,14,19,-73,-112,-112
-78,-53,24,65,-51,-14,43,14,24,-73,-112,-112
-78,-53,24,65,-51,-14,48,14,24,-68,-112,-107
-82,-48,34,65,-58,-7,48,19,24,-68,-112,-107
-87,-48,39,68,-63,-4,48,19,14,-68,-112,-107
-82,-48,34,65,-58,-7,48,19,14,-73,-112,-107
-87,-48,39,68,-63,-4,48,14,14,-73,-112,-112
-87,-43,43,65,-65,0,48,14,14,-73,-112,-112
-87,-53,34,70,-61,-9,39,14,4,-73,-112,-112
-87,-53,34,70,-61,-9,39,14,4,-73,-107,-112
-87,-53,34,70,-61,-9,48,14,14,-73,-107,-107
-87,-48,39,68,-63,-4,48,14,14,-73,-107,-107
-68,-58,9,63,-39,-24,39,14,14,-68,-117,-117
-68,-48,19,58,-43,-14,39,14,9,-68,-117,-117
-78,-53,24,65,-51,-14,53,14,9,-68,-107,-117
-87,-48,39,68,-63,-4,53,19,9,-68,-107,-107
-78,-48,29,63,-53,-9,48,19,9,-68,-107,-117
-68,-48,19,58,-43,-14,48,19,19,-68,-107,-117
-68,-48,19,58,-43,-14,48,19,19,-68,-107,-117
-68,-48,19,58,-43,-14,48,19,19,-68,-107,-117
-68,-48,19,58,-43,-14,48,19,19,-68,-107,-117
-78,-29,48,53,-63,9,63,34,29,-58,-107,-107
-68,-19,48,43,-58,14,63,34,29,-58,-107,-107
-68,-14,53,41,-61,19,68,34,29,-58,-107,-107
-63,-4,58,34,-61,26,73,34,29,-58,-107,-102
-63,-14,48,39,-56,17,82,39,29,-58,-97,-102
-63,-9,53,36,-58,21,82,39,34,-58,-97,-102
-63,-9,53,36,-58,21,87,39,39,-53,-97,-102
-63,-4,58,34,-61,26,92,43,43,-48,-97,-97
-68,0,68,34,-68,34,102,63,53,-34,-92,-87
-73,4,78,34,-75,41,102,63,53,-34,-87,-87
-78,4,82,36,-80,43,107,63,58,-34,-87,-87
-82,9,92,36,-87,51,107,63,63,-34,-82,-87
-92,4,97,43,-95,51,102,68,58,-29,-82,-78
-78,19,97,29,-87,58,102,68,63,-29,-82,-78
-73,39,112,17,-92,75,102,68,68,-19,-73,-73
-73,58,131,7,-102,95,97,63,73,-14,-68,-68
-53,78,131,-12,-92,104,78,48,73,-19,-73,-73
-43,87,131,-21,-87,109,68,39,73,-14,-68,-63
-39,87,126,-24,-82,107,63,39,73,-14,-68,-63
-34,87,122,-26,-78,104,63,39,68,-14,-68,-63
-43,87,131,-21,-87,109,73,53,73,-9,-63,-53
-43,82,126,-19,-85,104,73,53,78,-9,-58,-48
-43,82,126,-19,-85,104,68,43,82,-4,-53,-48
-43,87,131,-21,-87,109,63,43,87,0,-43,-48
-53,87,141,-17,-97,114,48,34,87,-4,-53,-43
-48,97,146,-24,-97,122,43,24,82,-4,-58,-43
-34,97,131,-31,-82,114,39,19,82,-9,-58,-43
-24,102,126,-39,-75,114,29,19,82,-9,-53,-43
-19,107,126,-43,-73,117,29,19,73,-4,-53,-39
-19,112,131,-46,-75,122,29,19,78,-4,-53,-39
-19,112,131,-46,-75,122,29,19,78,-4,-53,-39
-14,107,122,-46,-68,114,29,19,73,-9,-58,-43
-9,102,112,-46,-61,107,24,9,63,-24,-63,-43
-4,92,97,-43,-51,95,19,9,58,-29,-63,-58
-9,87,97,-39,-53,92,14,4,53,-34,-63,-58
-9,78,87,-34,-48,82,14,4,48,-39,-78,-68
-4,48,53,-21,-29,51,9,0,29,-58,-87,-78
-19,39,58,-9,-39,48,14,0,29,-58,-92,-82
-24,24,48,0,-36,36,19,0,24,-58,-97,-92
-34,14,48,9,-41,31,14,-4,24,-58,-107,-97
-48,4,53,21,-51,29,19,4,29,-53,-102,-97
-53,-4,48,29,-51,21,19,4,19,-58,-107,-102
-58,-19,39,39,-48,9,24,0,9,-73,-122,-102
-63,-19,43,41,-53,12,29,-9,0,-82,-126,-107
-63,-34,29,48,-46,-2,24,-9,-4,-87,-131,-122
-63,-43,19,53,-41,-12,24,-9,-4,-87,-131,-122
-68,-43,24,56,-46,-9,24,-9,-9,-87,-131,-122
-68,-43,24,56,-46,-9,24,-9,-9,-92,-131,-122
-73,-43,29,58,-51,-7,24,-9,-9,-92,-126,-112
-73,-48,24,61,-48,-12,24,-9,-9,-92,-126,-117
-78,-53,24,65,-51,-14,24,-9,-9,-92,-126,-117
-78,-58,19,68,-48,-19,24,-9,-9,-92,-126,-117
-87,-58,29,73,-58,-14,24,-14,-14,-92,-136,-126
-87,-58,29,73,-58,-14,24,-14,-14,-97,-141,-131
-82,-58,24,70,-53,-17,24,-14,-19,-97,-141,-136
-82,-68,14,75,-48,-26,19,-14,-19,-102,-146,-136
-82,-68,14,75,-48,-26,19,-14,-19,-102,-136,-136
-87,-73,14,80,-51,-29,19,-14,-19,-102,-136,-136
-87,-73,14,80,-51,-29,19,-14,-24,-107,-136,-136
-87,-73,14,80,-51,-29,19,-14,-24,-107,-141,-136
-97,-73,24,85,-61,-24,29,-4,-14,-97,-141,-131
-102,-73,29,87,-65,-21,29,-4,-14,-97,-141,-131
-112,-78,34,95,-73,-21,39,-4,-14,-97,-141,-131
-117,-78,39,97,-78,-19,39,0,-14,-97,-136,-126
-102,-82,19,92,-61,-31,34,-9,-24,-107,-141,-136
-97,-82,14,90,-56,-34,29,-9,-29,-107,-151,-136
-92,-87,4,90,-48,-41,19,-9,-29,-112,-156,-146
-87,-87,0,87,-43,-43,14,-19,-34,-112,-161,-146
-78,-87,-9,82,-34,-48,14,-19,-34,-122,-161,-146
-78,-87,-9,82,-34,-48,14,-19,-34,-122,-161,-146
-78,-87,-9,82,-34,-48,9,-19,-34,-122,-165,-151
-73,-87,-14,80,-29,-51,9,-19,-39,-122,-165,-151
-78,-97,-19,87,-29,-58,24,-19,-39,-112,-156,-146
-87,-102,-14,95,-36,-58,24,-19,-39,-117,-156,-146
-92,-102,-9,97,-41,-56,24,-19,-39,-117,-156,-146
-102,-97,4,100,-53,-46,24,-14,-34,-117,-156,-146
-102,-97,4,100,-53,-46,24,-14,-34,-107,-156,-141
-102,-97,4,100,-53,-46,24,-14,-34,-107,-156,-141
-97,-102,-4,100,-46,-53,24,-19,-39,-107,-156,-136
-97,-102,-4,100,-46,-53,24,-19,-39,-107,-156,-136
-112,-92,19,102,-65,-36,24,-9,-29,-107,-146,-136
-102,-97,4,100,-53,-46,24,-4,-34,-112,-151,-136
-97,-97,0,97,-48,-48,29,-9,-34,-112,-151,-136
-92,-97,-4,95,-43,-51,34,4,-24,-102,-151,-146
-87,-112,-24,100,-31,-68,58,53,-9,-107,-161,-170
-87,-136,-48,112,-19,-92,97,112,4,-107,-170,-180
-97,-146,-48,122,-24,-97,126,161,34,-92,-170,-190
-107,-117,-9,112,-48,-63,151,204,73,-58,-151,-200
-112,-82,29,97,-70,-26,161,229,136,-9,-107,-175
-82,-68,14,75,-48,-26,175,263,200,58,-63,-136
-19,-43,-24,31,2,-34,180,283,244,107,-14,-87
53,9,-43,-31,48,-17,180,292,307,175,53,-29
117,58,-58,-87,87,0,170,273,380,268,161,68
175,112,-63,-143,119,24,136,190,419,356,273,195
253,200,-53,-226,153,73,29,-4,395,429,405,361
370,307,-63,-339,217,122,-117,-239,326,488,541,561
502,419,-82,-461,292,168,-258,-439,229,556,712,790
629,536,-92,-583,361,222,-366,-580,117,644,922,1044
732,678,-53,-705,392,312,-478,-702,29,751,1132,1293
829,824,-4,-827,417,409,-634,-839,-48,839,1332,1507
927,932,4,-929,461,468,-800,-976,-170,907,1483,1698
1024,990,-34,-1007,529,478,-971,-1098,-322,927,1615,1844
1078,1010,-68,-1044,573,470,-1122,-1234,-473,927,1708,1952
1073,966,-107,-1019,590,429,-1239,-1351,-624,839,1688,1976
1010,834,-175,-922,592,329,-1268,-1429,-790,688,1527,1854
858,610,-248,-734,553,180,-1210,-1400,-893,483,1239,1556
702,395,-307,-549,505,43,-1117,-1317,-932,278,897,1176
580,209,-370,-395,475,-80,-1039,-1205,-907,122,610,800
439,73,-366,-256,402,-146,-917,-1054,-810,14,361,463
244,-19,-263,-112,253,-141,-741,-863,-683,-117,97,156
117,-73,-190,-21,153,-131,-590,-722,-605,-273,-122,-34
78,-117,-195,19,136,-156,-463,-585,-536,-361,-244,-102
29,-126,-156,48,92,-141,-317,-424,-414,-326,-263,-126
-4,-122,-117,63,56,-119,-195,-273,-278,-214,-185,-97
-4,-97,-92,51,43,-95,-117,-165,-165,-117,-107,-58
9,-82,-92,36,51,-87,-53,-82,-102,-68,-68,-43
0,-58,-58,29,29,-58,-19,-39,-48,-24,-43,-34
-9,-53,-43,31,17,-48,-4,-14,-19,0,-34,-34
-19,-63,-43,41,12,-53,4,-4,-14,-9,-34,-39
-34,-53,-19,43,-7,-36,4,0,-9,-24,-43,-48
-39,-53,-14,46,-12,-34,19,4,0,-24,-53,-53
-39,-58,-19,48,-9,-39,19,0,0,-24,-73,-68
-48,-58,-9,53,-19,-34,24,9,4,-24,-73,-73
-58,-58,0,58,-29,-29,39,19,9,-24,-73,-73
-58,-63,-4,61,-26,-34,43,29,19,-24,-73,-73
-68,-73,-4,70,-31,-39,48,43,29,-34,-68,-78
-63,-73,-9,68,-26,-41,48,43,29,-39,-73,-82
-63,-73,-9,68,-26,-41,53,43,29,-39,-73,-82
-63,-73,-9,68,-26,-41,53,48,29,-39,-73,-82
-68,-68,0,68,-34,-34,58,48,29,-29,-73,-82
-68,-68,0,68,-34,-34,58,53,34,-29,-78,-82
-68,-68,0,68,-34,-34,63,53,39,-29,-78,-92
-63,-68,-4,65,-29,-36,63,58,39,-29,-78,-92
-68,-68,0,68,-34,-34,73,68,48,-14,-68,-92
-78,-68,9,73,-43,-29,73,73,53,-14,-68,-92
-82,-68,14,75,-48,-26,73,73,53,-14,-68,-87
-87,-63,24,75,-56,-19,73,73,53,-14,-68,-87
-78,-73,4,75,-41,-34,63,78,53,-14,-73,-87
-82,-73,9,78,-46,-31,68,78,58,-9,-73,-82
-87,-73,14,80,-51,-29,68,78,63,-9,-73,-82
-87,-73,14,80,-51,-29,73,82,63,-9,-68,-82
-58,-63,-4,61,-26,-34,68,68,48,-19,-73,-87
-39,-63,-24,51,-7,-43,58,63,48,-24,-78,-92
-24,-63,-39,43,7,-51,48,58,43,-29,-82,-97
-9,-63,-53,36,21,-58,43,53,39,-34,-87,-102
-14,-63,-48,39,17,-56,48,63,48,-24,-78,-92
-19,-58,-39,39,9,-48,53,58,48,-24,-78,-92
-29,-58,-29,43,0,-43,58,58,48,-19,-73,-92
-43,-58,-14,51,-14,-36,63,63,48,-14,-68,-87
-53,-58,-4,56,-24,-31,63,78,58,-4,-58,-87
-43,-58,-14,51,-14,-36,63,78,58,-4,-58,-87
-43,-58,-14,51,-14,-36,63,78,63,-4,-58,-82
-48,-53,-4,51,-21,-29,68,78,68,0,-53,-82
-63,-53,9,58,-36,-21,78,87,78,14,-48,-78
-68,-48,19,58,-43,-14,78,87,78,14,-48,-73
-73,-48,24,61,-48,-12,78,87,82,14,-43,-63
-73,-53,19,63,-46,-17,78,92,82,19,-43,-58
-63,-43,19,53,-41,-12,78,92,82,14,-34,-58
-58,-43,14,51,-36,-14,78,92,82,14,-34,-58
-58,-39,19,48,-39,-9,78,92,82,14,-34,-53
-58,-39,19,48,-39,-9,78,92,82,14,-34,-53
-48,-48,0,48,-24,-24,73,87,73,4,-34,-58
-43,-48,-4,46,-19,-26,68,87,73,14,-34,-58
-34,-43,-9,39,-12,-26,63,92,78,19,-39,-58
-29,-43,-14,36,-7,-29,58,92,78,19,-43,-63
-19,-39,-19,29,0,-29,58,82,68,9,-43,-68
-14,-39,-24,26,4,-31,58,82,68,9,-34,-68
-14,-39,-24,26,4,-31,58,87,68,9,-34,-63
-9,-39,-29,24,9,-34,58,87,78,9,-34,-58
-19,-29,-9,24,-4,-19,58,87,78,24,-34,-58
-9,-29,-19,19,4,-24,58,87,78,24,-29,-53
-9,-24,-14,17,2,-19,58,92,78,29,-29,-48
-4,-24,-19,14,7,-21,58,92,78,34,-19,-48
-9,-34,-24,21,7,-29,58,102,87,34,-9,-48
-14,-34,-19,24,2,-26,58,102,87,34,-9,-43
-19,-29,-9,24,-4,-19,58,102,92,39,0,-43
-24,-29,-4,26,-9,-17,53,102,92,43,0,-43
