I,II,III,aVR,aVL,aVF,V1,V2,V3,V4,V5,V6,
-78,-185,-107,131,14,-146,48,-48,-78,-97,-117,-126
-78,-185,-107,131,14,-146,48,-48,-78,-97,-117,-126
-78,-185,-107,131,14,-146,48,-48,-78,-97,-117,-126
-78,-185,-107,131,14,-146,48,-48,-78,-97,-117,-126
-87,-175,-87,131,0,-131,58,-58,-78,-97,-117,-126
-87,-175,-87,131,0,-131,58,-58,-78,-97,-117,-126
-87,-175,-87,131,0,-131,58,-58,-78,-97,-117,-126
-87,-175,-87,131,0,-131,58,-58,-78,-97,-117,-126
-78,-175,-97,126,9,-136,58,-58,-78,-97,-117,-126
-78,-175,-97,126,9,-136,58,-58,-78,-97,-117,-126
-78,-175,-97,126,9,-136,58,-58,-78,-97,-117,-126
-78,-175,-97,126,9,-136,58,-58,-78,-97,-117,-126
-87,-175,-87,131,0,-131,58,-53,-68,-97,-117,-126
-87,-175,-87,131,0,-131,58,-48,-68,-97,-117,-126
-87,-175,-87,131,0,-131,58,-43,-68,-97,-117,-126
-87,-175,-87,131,0,-131,58,-39,-68,-97,-117,-126
-78,-175,-97,126,9,-136,58,-29,-68,-97,-117,-126
-78,-175,-97,126,9,-136,58,-29,-68,-97,-117,-126
-78,-175,-97,126,9,-136,58,-29,-68,-97,-117,-126
-78,-175,-97,126,9,-136,58,-29,-68,-97,-117,-126
-87,-175,-87,131,0,-131,68,-14,-58,-97,-117,-126
-87,-175,-87,131,0,-131,68,-9,-58,-97,-117,-126
-87,-175,-87,131,0,-131,68,-4,-58,-97,-117,-126
-87,-175,-87,131,0,-131,68,0,-58,-97,-117,-126
-78,-175,-97,126,9,-136,68,4,-58,-97,-107,-126
-78,-175,-97,126,9,-136,68,9,-58,-97,-107,-126
-78,-175,-97,126,9,-136,68,14,-58,-97,-107,-126
-78,-175,-97,126,9,-136,68,19,-58,-97,-107,-126
-87,-175,-87,131,0,-131,68,34,-48,-87,-107,-117
-87,-175,-87,131,0,-131,68,39,-48,-87,-107,-117
-87,-175,-87,131,0,-131,68,43,-48,-87,-107,-117
-87,-175,-87,131,0,-131,68,48,-48,-87,-107,-117
-78,-165,-87,122,4,-126,68,53,-48,-87,-97,-117
-78,-165,-87,122,4,-126,68,58,-48,-87,-97,-117
-78,-165,-87,122,4,-126,68,63,-48,-87,-97,-117
-78,-165,-87,122,4,-126,68,68,-48,-87,-97,-117
-87,-175,-87,131,0,-131,78,82,-39,-78,-97,-117
-87,-175,-87,131,0,-131,78,87,-39,-78,-97,-117
-87,-175,-87,131,0,-131,78,92,-39,-78,-97,-117
-87,-175,-87,131,0,-131,78,97,-39,-78,-97,-117
-87,-165,-78,126,-4,-122,78,107,-39,-87,-97,-117
-87,-165,-78,126,-4,-122,78,107,-39,-87,-97,-117
-87,-165,-78,126,-4,-122,78,107,-39,-87,-97,-117
-87,-165,-78,126,-4,-122,78,107,-39,-87,-97,-117
-87,-156,-68,122,-9,-112,78,112,-29,-78,-97,-107
-87,-156,-68,122,-9,-112,78,117,-29,-78,-97,-107
-87,-156,-68,122,-9,-112,78,122,-29,-78,-97,-107
-87,-156,-68,122,-9,-112,78,126,-29,-78,-97,-107
-87,-146,-58,117,-14,-102,78,131,-29,-68,-97,-107
-87,-146,-58,117,-14,-102,78,136,-29,-68,-97,-107
-87,-146,-58,117,-14,-102,78,141,-29,-68,-97,-107
-87,-146,-58,117,-14,-102,78,146,-29,-68,-97,-107
-97,-146,-48,122,-24,-97,87,161,-19,-68,-97,-107
-97,-146,-48,122,-24,-97,87,165,-19,-68,-97,-107
-97,-146,-48,122,-24,-97,87,170,-19,-68,-97,-107
-97,-146,-48,122,-24,-97,87,175,-19,-68,-97,-107
-87,-141,-53,114,-17,-97,97,190,-4,-63,-92,-97
-87,-136,-48,112,-19,-92,97,195,0,-58,-87,-97
-87,-131,-43,109,-21,-87,97,200,4,-53,-82,-97
-87,-126,-39,107,-24,-82,97,204,9,-48,-78,-97
-97,-126,-29,112,-34,-78,107,224,19,-39,-78,-97
-97,-126,-29,112,-34,-78,107,234,19,-39,-78,-97
-97,-126,-29,112,-34,-78,107,244,19,-39,-78,-97
-97,-126,-29,112,-34,-78,107,253,19,-39,-78,-97
-102,-122,-19,112,-41,-70,117,263,24,-34,-68,-87
-107,-117,-9,112,-48,-63,117,273,29,-29,-68,-87
-112,-112,0,112,-56,-56,117,283,34,-24,-68,-87
-117,-107,9,112,-63,-48,117,292,39,-19,-68,-87
-126,-97,29,112,-78,-34,126,302,48,-14,-58,-87
-126,-97,29,112,-78,-34,126,312,48,-9,-58,-87
-126,-97,29,112,-78,-34,126,322,48,-4,-58,-87
-126,-97,29,112,-78,-34,126,331,48,0,-58,-87
-126,-92,34,109,-80,-29,136,346,53,4,-48,-78
-126,-87,39,107,-82,-24,136,351,58,9,-48,-78
-126,-82,43,104,-85,-19,136,356,63,14,-48,-78
-126,-78,48,102,-87,-14,136,361,68,19,-48,-78
-136,-68,68,102,-102,0,136,380,78,29,-39,-68
-136,-68,68,102,-102,0,136,390,78,29,-39,-68
-136,-68,68,102,-102,0,136,400,78,29,-39,-68
-136,-68,68,102,-102,0,136,409,78,29,-39,-68
-136,-63,73,100,-104,4,146,424,82,34,-34,-58
-136,-58,78,97,-107,9,146,429,87,39,-29,-58
-136,-53,82,95,-109,14,146,434,92,43,-24,-58
-136,-48,87,92,-112,19,146,439,97,48,-19,-58
-136,-43,92,90,-114,24,146,453,107,58,-9,-48
-136,-39,97,87,-117,29,146,458,107,58,-9,-48
-136,-34,102,85,-119,34,146,463,107,58,-9,-48
-136,-29,107,82,-122,39,146,468,107,58,-9,-48
-126,-14,112,70,-119,48,136,473,117,63,4,-43
-126,-9,117,68,-122,53,136,478,117,68,9,-39
-126,-4,122,65,-124,58,136,483,117,73,14,-34
-126,0,126,63,-126,63,136,488,117,78,19,-29
-122,9,131,56,-126,70,126,492,126,87,29,-14
-117,19,136,48,-126,78,126,497,126,87,29,-9
-112,29,141,41,-126,85,126,502,126,87,29,-4
-107,39,146,34,-126,92,126,507,126,87,29,0
-97,53,151,21,-124,102,122,497,136,92,43,14
-97,58,156,19,-126,107,117,497,136,97,48,19
-97,63,161,17,-129,112,112,497,136,102,53,24
-97,68,165,14,-131,117,107,497,136,107,58,29
-82,82,165,0,-124,124,102,492,126,107,68,39
-78,87,165,-4,-122,126,97,488,126,107,68,39
-73,92,165,-9,-119,129,92,483,126,107,68,39
-68,97,165,-14,-117,131,87,478,126,107,68,39
-58,97,156,-19,-107,126,78,458,126,97,68,43
-58,97,156,-19,-107,126,78,448,126,97,68,48
-58,97,156,-19,-107,126,78,439,126,97,68,53
-58,97,156,-19,-107,126,78,429,126,97,68,58
-53,97,151,-21,-102,124,73,414,112,92,68,58
-48,97,146,-24,-97,122,68,400,107,87,68,58
-43,97,141,-26,-92,119,63,385,102,82,68,58
-39,97,136,-29,-87,117,58,370,97,78,68,58
-39,87,126,-24,-82,107,53,356,87,68,58,58
-39,87,126,-24,-82,107,48,341,87,68,58,58
-39,87,126,-24,-82,107,43,326,87,68,58,58
-39,87,126,-24,-82,107,39,312,87,68,58,58
-24,78,102,-26,-63,90,34,292,73,58,48,48
-19,78,97,-29,-58,87,29,273,68,58,48,48
-14,78,92,-31,-53,85,24,253,63,58,48,48
-9,78,87,-34,-48,82,19,234,58,58,48,48
0,78,78,-39,-39,78,9,219,48,48,48,48
0,78,78,-39,-39,78,9,204,48,48,48,48
0,78,78,-39,-39,78,9,190,48,48,48,48
0,78,78,-39,-39,78,9,175,48,48,48,48
4,68,63,-36,-29,65,0,156,43,43,39,39
9,68,58,-39,-24,63,0,146,39,39,39,39
14,68,53,-41,-19,61,0,136,34,34,39,39
19,68,48,-43,-14,58,0,126,29,29,39,39
19,63,43,-41,-12,53,-9,112,19,24,29,39
19,58,39,-39,-9,48,-9,107,19,19,29,39
19,53,34,-36,-7,43,-9,102,19,14,29,39
19,48,29,-34,-4,39,-9,97,19,9,29,39
19,39,19,-29,0,29,-19,92,9,0,19,29
19,39,19,-29,0,29,-19,87,9,0,19,29
19,39,19,-29,0,29,-19,82,9,0,19,29
19,39,19,-29,0,29,-19,78,9,0,19,29
19,29,9,-24,4,19,-19,78,4,0,19,19
19,29,9,-24,4,19,-19,78,0,0,19,19
19,29,9,-24,4,19,-19,78,-4,0,19,19
19,29,9,-24,4,19,-19,78,-9,0,19,19
29,29,0,-29,14,14,-19,78,-19,-4,9,19
29,29,0,-29,14,14,-19,78,-19,-9,9,19
29,29,0,-29,14,14,-19,78,-19,-14,9,19
29,29,0,-29,14,14,-19,78,-19,-19,9,19
39,29,-9,-34,24,9,-29,87,-19,-19,9,9
39,29,-9,-34,24,9,-29,87,-19,-19,9,9
39,29,-9,-34,24,9,-29,87,-19,-19,9,9
39,29,-9,-34,24,9,-29,87,-19,-19,9,9
48,29,-19,-39,34,4,-29,92,-19,-19,0,9
48,29,-19,-39,34,4,-29,97,-19,-19,0,9
48,29,-19,-39,34,4,-29,102,-19,-19,0,9
48,29,-19,-39,34,4,-29,107,-19,-19,0,9
48,29,-19,-39,34,4,-29,117,-19,-19,0,9
48,29,-19,-39,34,4,-29,117,-19,-19,0,9
48,29,-19,-39,34,4,-29,117,-19,-19,0,9
48,29,-19,-39,34,4,-29,117,-19,-19,0,9
48,29,-19,-39,34,4,-29,122,-19,-19,9,9
48,29,-19,-39,34,4,-29,126,-19,-19,9,9
48,29,-19,-39,34,4,-29,131,-19,-19,9,9
48,29,-19,-39,34,4,-29,136,-19,-19,9,9
48,29,-19,-39,34,4,-29,146,-19,-9,9,19
48,29,-19,-39,34,4,-29,146,-19,-9,9,19
48,29,-19,-39,34,4,-29,146,-19,-9,9,19
48,29,-19,-39,34,4,-29,146,-19,-9,9,19
39,29,-9,-34,24,9,-29,151,-19,-9,9,19
39,29,-9,-34,24,9,-29,156,-19,-9,9,19
39,29,-9,-34,24,9,-29,161,-19,-9,9,19
39,29,-9,-34,24,9,-29,165,-19,-9,9,19
39,29,-9,-34,24,9,-39,170,-9,-9,9,19
39,29,-9,-34,24,9,-39,175,-9,-9,9,19
39,29,-9,-34,24,9,-39,180,-9,-9,9,19
39,29,-9,-34,24,9,-39,185,-9,-9,9,19
48,29,-19,-39,34,4,-39,200,-9,-9,9,19
48,29,-19,-39,34,4,-39,204,-9,-9,9,19
48,29,-19,-39,34,4,-39,209,-9,-9,9,19
48,29,-19,-39,34,4,-39,214,-9,-9,9,19
48,29,-19,-39,34,4,-39,224,-9,-9,9,9
48,29,-19,-39,34,4,-39,224,-9,-9,9,9
48,29,-19,-39,34,4,-39,224,-9,-9,9,9
48,29,-19,-39,34,4,-39,224,-9,-9,9,9
48,39,-9,-43,29,14,-39,229,-9,-9,9,9
48,39,-9,-43,29,14,-39,234,-9,-9,9,9
48,39,-9,-43,29,14,-39,239,-9,-9,9,9
48,39,-9,-43,29,14,-39,244,-9,-9,9,9
48,39,-9,-43,29,14,-39,244,0,0,9,9
48,39,-9,-43,29,14,-39,244,0,0,9,9
48,39,-9,-43,29,14,-39,244,0,0,9,9
48,39,-9,-43,29,14,-39,244,0,0,9,9
48,39,-9,-43,29,14,-29,253,0,0,9,19
48,39,-9,-43,29,14,-29,253,0,0,9,19
48,39,-9,-43,29,14,-29,253,0,0,9,19
48,39,-9,-43,29,14,-29,253,0,0,9,19
39,39,0,-39,19,19,-29,253,0,0,9,19
39,39,0,-39,19,19,-29,253,0,0,9,19
39,39,0,-39,19,19,-29,253,0,0,9,19
39,39,0,-39,19,19,-29,253,0,0,9,19
39,29,-9,-34,24,9,-29,253,0,0,9,9
39,29,-9,-34,24,9,-29,253,0,0,9,9
39,29,-9,-34,24,9,-29,253,0,0,9,9
39,29,-9,-34,24,9,-29,253,0,0,9,9
39,29,-9,-34,24,9,-29,244,0,0,9,9
39,29,-9,-34,24,9,-29,244,0,0,9,9
39,29,-9,-34,24,9,-29,244,0,0,9,9
39,29,-9,-34,24,9,-29,244,0,0,9,9
39,19,-19,-29,29,0,-29,234,0,-9,0,0
39,19,-19,-29,29,0,-29,234,0,-9,0,0
39,19,-19,-29,29,0,-29,234,0,-9,0,0
39,19,-19,-29,29,0,-29,234,0,-9,0,0
39,19,-19,-29,29,0,-29,234,0,-9,0,0
39,19,-19,-29,29,0,-29,234,0,-9,0,0
39,19,-19,-29,29,0,-29,234,0,-9,0,0
39,19,-19,-29,29,0,-29,234,0,-9,0,0
39,19,-19,-29,29,0,-29,229,0,-9,0,0
39,19,-19,-29,29,0,-29,224,0,-9,0,0
39,19,-19,-29,29,0,-29,219,0,-9,0,0
39,19,-19,-29,29,0,-29,214,0,-9,0,0
39,19,-19,-29,29,0,-29,204,-9,0,0,0
39,19,-19,-29,29,0,-29,204,-9,0,0,0
39,19,-19,-29,29,0,-29,204,-9,0,0,0
39,19,-19,-29,29,0,-29,204,-9,0,0,0
29,29,0,-29,14,14,-29,200,0,0,9,9
29,29,0,-29,14,14,-29,195,0,0,9,9
29,29,0,-29,14,14,-29,190,0,0,9,9
29,29,0,-29,14,14,-29,185,0,0,9,9
29,29,0,-29,14,14,-29,175,0,9,9,9
29,29,0,-29,14,14,-29,175,0,9,9,9
29,29,0,-29,14,14,-29,175,0,9,9,9
29,29,0,-29,14,14,-29,175,0,9,9,9
29,19,-9,-24,19,4,-29,161,0,0,9,0
29,19,-9,-24,19,4,-29,156,0,0,9,0
29,19,-9,-24,19,4,-29,151,0,0,9,0
29,19,-9,-24,19,4,-29,146,0,0,9,0
29,9,-19,-19,24,-4,-19,141,-9,-9,0,0
29,9,-19,-19,24,-4,-19,136,-9,-9,0,0
29,9,-19,-19,24,-4,-19,131,-9,-9,0,0
29,9,-19,-19,24,-4,-19,126,-9,-9,0,0
29,19,-9,-24,19,4,-19,122,-9,-9,0,0
29,19,-9,-24,19,4,-19,117,-9,-9,0,0
29,19,-9,-24,19,4,-19,112,-9,-9,0,0
29,19,-9,-24,19,4,-19,107,-9,-9,0,0
29,19,-9,-24,19,4,-29,102,-9,-9,9,0
29,19,-9,-24,19,4,-29,97,-9,-9,9,0
29,19,-9,-24,19,4,-29,92,-9,-9,9,0
29,19,-9,-24,19,4,-29,87,-9,-9,9,0
29,19,-9,-24,19,4,-19,78,0,-9,9,0
29,19,-9,-24,19,4,-19,78,0,-9,9,0
29,19,-9,-24,19,4,-19,78,0,-9,9,0
29,19,-9,-24,19,4,-19,78,0,-9,9,0
29,9,-19,-19,24,-4,-19,68,-9,-19,0,-9
29,9,-19,-19,24,-4,-19,68,-9,-19,0,-9
29,9,-19,-19,24,-4,-19,68,-9,-19,0,-9
29,9,-19,-19,24,-4,-19,68,-9,-19,0,-9
29,9,-19,-19,24,-4,-19,58,-9,-19,0,-9
29,9,-19,-19,24,-4,-19,58,-9,-19,0,-9
29,9,-19,-19,24,-4,-19,58,-9,-19,0,-9
29,9,-19,-19,24,-4,-19,58,-9,-19,0,-9
29,9,-19,-19,24,-4,-19,48,-9,-19,0,0
29,9,-19,-19,24,-4,-19,48,-9,-19,0,0
29,9,-19,-19,24,-4,-19,48,-9,-19,0,0
29,9,-19,-19,24,-4,-19,48,-9,-19,0,0
29,19,-9,-24,19,4,-19,39,-9,-19,0,0
29,19,-9,-24,19,4,-19,39,-9,-19,0,0
29,19,-9,-24,19,4,-19,39,-9,-19,0,0
29,19,-9,-24,19,4,-19,39,-9,-19,0,0
19,9,-9,-14,14,0,-19,29,-9,-19,0,0
19,9,-9,-14,14,0,-19,29,-9,-19,0,0
19,9,-9,-14,14,0,-19,29,-9,-19,0,0
19,9,-9,-14,14,0,-19,29,-9,-19,0,0
19,9,-9,-14,14,0,-19,29,-9,-19,0,0
19,9,-9,-14,14,0,-19,29,-9,-19,0,0
19,9,-9,-14,14,0,-19,29,-9,-19,0,0
19,9,-9,-14,14,0,-19,29,-9,-19,0,0
19,9,-9,-14,14,0,-19,19,-9,-19,0,0
19,9,-9,-14,14,0,-19,19,-9,-19,0,0
19,9,-9,-14,14,0,-19,19,-9,-19,0,0
19,9,-9,-14,14,0,-19,19,-9,-19,0,0
19,19,0,-19,9,9,-19,9,-9,-19,0,0
19,19,0,-19,9,9,-19,9,-9,-19,0,0
19,19,0,-19,9,9,-19,9,-9,-19,0,0
19,19,0,-19,9,9,-19,9,-9,-19,0,0
29,19,-9,-24,19,4,-19,9,-9,-19,0,0
29,19,-9,-24,19,4,-19,9,-9,-19,0,0
29,19,-9,-24,19,4,-19,9,-9,-19,0,0
29,19,-9,-24,19,4,-19,9,-9,-19,0,0
39,19,-19,-29,29,0,-19,0,0,-19,0,0
39,19,-19,-29,29,0,-19,0,0,-19,0,0
39,19,-19,-29,29,0,-19,0,0,-19,0,0
39,19,-19,-29,29,0,-19,0,0,-19,0,0
39,29,-9,-34,24,9,-9,-4,9,-14,9,9
39,29,-9,-34,24,9,-9,-9,9,-9,9,9
39,29,-9,-34,24,9,-9,-14,9,-4,9,9
39,29,-9,-34,24,9,-9,-19,9,0,9,9
48,34,-14,-41,31,9,0,-19,19,9,19,19
48,39,-9,-43,29,14,0,-19,19,9,19,19
48,43,-4,-46,26,19,0,-19,19,9,19,19
48,48,0,-48,24,24,0,-19,19,9,19,19
58,53,-4,-56,31,24,9,-19,29,19,19,19
58,58,0,-58,29,29,9,-19,29,19,19,19
58,63,4,-61,26,34,9,-19,29,19,19,19
63,73,9,-68,26,41,14,-19,29,24,24,24
63,87,24,-75,19,56,14,-24,43,34,34,34
68,92,24,-80,21,58,14,-24,43,34,39,34
68,92,24,-80,21,58,9,-19,43,39,39,39
68,92,24,-80,21,58,4,-19,48,39,39,39
78,102,24,-90,26,63,4,-29,48,39,39,29
78,102,24,-90,26,63,0,-29,48,39,39,29
78,107,29,-92,24,68,-4,-24,48,39,39,34
82,107,24,-95,29,65,-9,-24,48,39,39,34
82,107,24,-95,29,65,-24,-34,48,34,39,34
82,107,24,-95,29,65,-29,-34,48,34,39,34
82,107,24,-95,29,65,-39,-39,48,34,39,34
82,107,24,-95,29,65,-39,-43,48,34,39,34
78,97,19,-87,29,58,-53,-48,39,34,39,34
78,97,19,-87,29,58,-58,-53,39,34,39,34
78,97,19,-87,29,58,-63,-58,39,34,39,34
73,97,24,-85,24,61,-68,-58,39,34,39,34
73,97,24,-85,24,61,-73,-73,39,34,48,34
73,97,24,-85,24,61,-78,-78,34,34,48,34
73,97,24,-85,24,61,-82,-78,34,34,48,34
73,92,19,-82,26,56,-87,-82,34,34,48,34
58,92,34,-75,12,63,-87,-92,29,34,39,43
58,92,34,-75,12,63,-87,-97,29,34,39,43
58,87,29,-73,14,58,-87,-102,29,29,39,39
58,87,29,-73,14,58,-92,-107,24,29,39,39
58,73,14,-65,21,43,-92,-112,24,39,34,34
58,68,9,-63,24,39,-92,-117,14,29,34,34
58,68,9,-63,24,39,-92,-122,9,29,29,34
53,63,9,-58,21,36,-92,-122,9,29,29,34
53,63,9,-58,21,36,-87,-136,9,19,29,24
53,63,9,-58,21,36,-87,-136,9,19,29,24
53,63,9,-58,21,36,-87,-136,9,19,29,24
53,63,9,-58,21,36,-87,-141,9,19,29,24
53,63,9,-58,21,36,-73,-151,9,29,29,34
53,68,14,-61,19,41,-73,-151,9,29,29,34
48,68,19,-58,14,43,-68,-151,9,29,29,39
48,73,24,-61,12,48,-68,-151,9,29,29,39
43,73,29,-58,7,51,-68,-151,19,29,29,43
43,73,29,-58,7,51,-63,-151,19,34,39,43
39,73,34,-56,2,53,-58,-146,24,34,39,48
39,78,39,-58,0,58,-53,-146,24,39,39,48
39,78,39,-58,0,58,-48,-136,24,29,43,39
34,78,43,-56,-4,61,-48,-136,29,29,43,39
34,73,39,-53,-2,56,-43,-136,29,29,43,39
29,68,39,-48,-4,53,-39,-131,29,29,43,39
29,63,34,-46,-2,48,-34,-131,24,29,39,29
24,58,34,-41,-4,46,-29,-131,24,24,29,29
24,53,29,-39,-2,41,-29,-131,19,24,24,24
24,48,24,-36,0,36,-29,-126,19,14,24,19
14,43,29,-29,-7,36,-19,-117,14,19,19,14
14,34,19,-24,-2,26,-19,-117,9,19,19,9
9,29,19,-19,-4,24,-14,-117,4,14,14,4
9,24,14,-17,-2,19,-14,-117,4,9,9,0
9,14,4,-12,2,9,-19,-112,4,4,14,4
9,9,0,-9,4,4,-19,-112,-4,0,9,0
9,0,-9,-4,9,-4,-19,-112,-4,-4,4,-4
9,-4,-14,-2,12,-9,-14,-112,-4,-9,4,-9
4,-9,-14,2,9,-12,-4,-112,-9,-14,-9,-14
4,-14,-19,4,12,-17,0,-107,-9,-14,-14,-19
4,-19,-24,7,14,-21,0,-107,-9,-14,-19,-19
0,-24,-24,12,12,-24,0,-107,-9,-14,-19,-19
0,-29,-29,14,14,-29,-9,-107,-14,-14,-19,-29
0,-29,-29,14,14,-29,-9,-107,-14,-14,-19,-29
0,-29,-29,14,14,-29,-9,-102,-19,-19,-19,-29
0,-29,-29,14,14,-29,-4,-102,-19,-19,-19,-29
-4,-39,-34,21,14,-36,-4,-102,-19,-19,-29,-29
-4,-39,-34,21,14,-36,-4,-102,-19,-19,-29,-34
0,-34,-34,17,17,-34,-4,-97,-19,-19,-29,-34
0,-34,-34,17,17,-34,-4,-92,-19,-19,-29,-34
0,-34,-34,17,17,-34,-4,-102,-19,-29,-29,-34
0,-29,-29,14,14,-29,-4,-92,-19,-29,-29,-34
0,-29,-29,14,14,-29,-9,-87,-19,-29,-29,-34
0,-29,-29,14,14,-29,-9,-82,-19,-29,-29,-34
0,-29,-29,14,14,-29,0,-78,-19,-29,-19,-24
0,-39,-39,19,19,-39,0,-78,-19,-29,-29,-34
0,-34,-34,17,17,-34,0,-63,-24,-29,-24,-34
4,-48,-53,21,29,-51,4,-48,-24,-39,-29,-43
0,-53,-53,26,26,-53,19,-29,-29,-39,-39,-48
-14,-58,-43,36,14,-51,29,9,-19,-39,-39,-63
-19,-58,-39,39,9,-48,63,68,4,-29,-43,-73
-39,-53,-14,46,-12,-34,82,107,29,-4,-43,-73
-68,-24,43,46,-56,9,107,170,68,24,-14,-63
-68,4,73,31,-70,39,136,278,107,53,0,-53
-48,39,87,4,-68,63,151,414,141,73,14,-48
-24,78,102,-26,-63,90,175,531,180,97,34,-34
-14,126,141,-56,-78,134,180,614,219,126,58,-14
39,180,141,-109,-51,161,180,717,258,165,92,19
122,278,156,-200,-17,217,156,829,297,209,131,63
190,390,200,-290,-4,295,117,893,346,268,190,122
283,522,239,-402,21,380,73,936,380,322,268,204
409,649,239,-529,85,444,0,961,409,366,336,283
536,775,239,-656,148,507,-102,927,419,409,395,370
653,922,268,-788,192,595,-219,790,448,468,492,478
761,1127,366,-944,197,746,-336,585,492,556,629,639
863,1361,497,-1112,183,929,-492,292,536,673,761,805
990,1590,600,-1290,195,1095,-678,-19,566,756,897,966
1127,1815,688,-1471,219,1251,-883,-351,590,834,1029,1132
1215,2010,795,-1612,209,1403,-1068,-775,600,897,1137,1288
1205,2117,912,-1661,146,1515,-1176,-1302,610,932,1210,1390
1063,2142,1078,-1603,-7,1610,-1205,-1888,629,966,1254,1449
819,2108,1288,-1464,-234,1698,-1156,-2508,653,985,1273,1468
531,1937,1405,-1234,-436,1671,-1044,-3064,629,936,1205,1420
258,1586,1327,-922,-534,1456,-868,-3484,448,756,1015,1249
53,1166,1112,-610,-529,1139,-683,-3738,224,512,766,1005
-87,761,849,-336,-468,805,-502,-3860,-4,268,522,775
-175,370,546,-97,-361,458,-356,-3899,-229,29,287,546
-253,24,278,114,-265,151,-244,-3879,-419,-175,82,336
-312,-273,39,292,-175,-117,-165,-3811,-561,-351,-97,151
-351,-556,-204,453,-73,-380,-117,-3689,-717,-522,-273,-19
-380,-839,-458,610,39,-649,-87,-3498,-873,-678,-439,-180
-463,-1044,-580,753,58,-812,-87,-3279,-980,-785,-541,-287
-600,-1122,-522,861,-39,-822,-39,-3084,-971,-771,-541,-307
-780,-1068,-287,924,-246,-678,68,-2864,-858,-663,-448,-229
-888,-956,-68,922,-409,-512,122,-2601,-712,-536,-331,-126
-873,-844,29,858,-451,-407,92,-2254,-600,-444,-258,-63
-756,-722,34,739,-395,-344,19,-1893,-512,-385,-214,-29
-624,-590,34,607,-329,-278,-43,-1566,-444,-322,-170,-14
-473,-453,19,463,-246,-217,-112,-1263,-341,-248,-131,4
-331,-322,9,326,-170,-156,-151,-946,-273,-185,-97,14
-244,-244,0,244,-122,-122,-151,-697,-224,-146,-82,-4
-214,-195,19,204,-117,-87,-112,-522,-165,-117,-63,-4
-204,-156,48,180,-126,-53,-82,-409,-131,-82,-48,-4
-195,-136,58,165,-126,-39,-58,-312,-97,-68,-39,-14
-175,-131,43,153,-109,-43,-39,-224,-63,-58,-34,-14
-156,-122,34,139,-95,-43,-24,-146,-53,-53,-34,-24
-131,-112,19,122,-75,-46,0,-82,-58,-48,-48,-48
-112,-112,0,112,-56,-56,9,-34,-58,-48,-53,-53
-92,-122,-29,107,-31,-75,14,9,-68,-58,-68,-78
-87,-131,-43,109,-21,-87,19,39,-63,-68,-78,-87
-87,-141,-53,114,-17,-97,24,68,-63,-58,-78,-87
-82,-141,-58,112,-12,-100,24,68,-58,-63,-78,-87
-82,-136,-53,109,-14,-95,24,73,-48,-63,-78,-87
-82,-131,-48,107,-17,-90,24,73,-48,-63,-78,-87
-73,-131,-58,102,-7,-95,24,82,-48,-73,-78,-87
-68,-131,-63,100,-2,-97,24,82,-48,-73,-78,-87
-63,-122,-58,92,-2,-90,24,87,-58,-73,-82,-97
-63,-131,-68,97,2,-100,29,92,-58,-73,-82,-97
-63,-131,-68,97,2,-100,29,97,-58,-63,-82,-97
-63,-136,-73,100,4,-104,29,97,-58,-63,-82,-97
-63,-136,-73,100,4,-104,29,97,-48,-63,-82,-97
-68,-131,-63,100,-2,-97,29,97,-48,-63,-78,-97
-68,-131,-63,100,-2,-97,34,92,-48,-63,-78,-97
-68,-131,-63,100,-2,-97,34,92,-48,-68,-78,-97
-63,-131,-68,97,2,-100,34,92,-48,-68,-78,-97
-63,-131,-68,97,2,-100,29,92,-48,-78,-87,-102
-63,-136,-73,100,4,-104,39,102,-53,-78,-78,-102
-63,-141,-78,102,7,-109,39,102,-53,-78,-78,-97
-63,-141,-78,102,7,-109,39,92,-53,-78,-78,-97
-63,-141,-78,102,7,-109,39,87,-43,-63,-73,-97
-63,-136,-73,100,4,-104,29,82,-53,-63,-82,-97
-58,-136,-78,97,9,-107,29,82,-58,-68,-82,-97
-58,-136,-78,97,9,-107,29,82,-63,-68,-82,-97
-58,-136,-78,97,9,-107,34,82,-68,-78,-92,-102
-58,-146,-87,102,14,-117,34,82,-58,-78,-92,-102
-63,-146,-82,104,9,-114,34,82,-58,-78,-92,-102
-68,-151,-82,109,7,-117,34,82,-58,-78,-92,-102
-68,-151,-82,109,7,-117,34,78,-53,-73,-87,-97
-58,-136,-78,97,9,-107,39,78,-63,-73,-87,-97
-58,-136,-78,97,9,-107,39,68,-63,-73,-92,-97
-53,-136,-82,95,14,-109,39,68,-63,-73,-92,-97
-53,-136,-82,95,14,-109,39,73,-73,-82,-97,-102
-63,-151,-87,107,12,-119,39,73,-73,-73,-97,-107
-63,-156,-92,109,14,-124,39,68,-68,-73,-97,-107
-73,-156,-82,114,4,-119,39,68,-68,-73,-97,-107
-73,-156,-82,114,4,-119,39,63,-63,-73,-97,-107
-68,-141,-73,104,2,-107,39,68,-63,-73,-92,-107
-68,-141,-73,104,2,-107,39,63,-68,-73,-92,-107
-68,-141,-73,104,2,-107,39,58,-68,-73,-92,-107
-68,-141,-73,104,2,-107,39,58,-68,-82,-92,-107
-68,-151,-82,109,7,-117,39,58,-73,-82,-102,-112
-68,-156,-87,112,9,-122,39,58,-73,-87,-102,-112
-68,-161,-92,114,12,-126,39,58,-73,-87,-102,-112
-68,-161,-92,114,12,-126,39,48,-73,-82,-102,-112
-73,-161,-87,117,7,-124,39,53,-68,-82,-102,-112
-73,-156,-82,114,4,-119,43,48,-68,-82,-102,-112
-68,-156,-87,112,9,-122,43,39,-68,-87,-102,-112
-68,-151,-82,109,7,-117,43,34,-78,-87,-102,-112
-58,-161,-102,109,21,-131,43,34,-78,-97,-117,-117
-58,-165,-107,112,24,-136,43,29,-78,-97,-117,-117
-63,-165,-102,114,19,-134,43,24,-78,-97,-117,-117
-68,-170,-102,119,17,-136,43,19,-78,-97,-117,-117
-78,-170,-92,124,7,-131,43,24,-78,-87,-107,-117
-78,-165,-87,122,4,-126,43,19,-78,-82,-107,-117
-73,-165,-92,119,9,-129,43,9,-78,-82,-107,-117
-73,-165,-92,119,9,-129,43,9,-78,-82,-107,-117
-73,-165,-92,119,9,-129,48,4,-82,-92,-117,-117
-73,-175,-102,124,14,-139,48,4,-82,-92,-122,-122
-73,-175,-102,124,14,-139,48,4,-82,-92,-122,-122
-82,-180,-97,131,7,-139,48,-4,-82,-92,-122,-126
-82,-180,-97,131,7,-139,48,-14,-82,-92,-122,-136
-82,-175,-92,129,4,-134,48,-19,-82,-87,-122,-131
-78,-170,-92,124,7,-131,48,-24,-82,-87,-122,-131
-78,-170,-92,124,7,-131,48,-24,-82,-87,-126,-136
-78,-180,-102,129,12,-141,48,-24,-82,-97,-126,-136
-78,-190,-112,134,17,-151,48,-24,-87,-102,-126,-141
-78,-190,-112,134,17,-151,48,-24,-87,-102,-126,-141
-78,-190,-112,134,17,-151,53,-24,-87,-102,-126,-141
-78,-180,-102,129,12,-141,53,-34,-87,-102,-126,-141
-87,-180,-92,134,2,-136,53,-39,-78,-102,-126,-141
-87,-180,-92,134,2,-136,53,-39,-78,-97,-126,-141
-82,-180,-97,131,7,-139,53,-39,-82,-97,-126,-141
-82,-180,-97,131,7,-139,53,-39,-82,-107,-126,-141
-82,-180,-97,131,7,-139,53,-34,-87,-112,-131,-146
-82,-190,-107,136,12,-148,53,-34,-87,-112,-131,-146
-82,-190,-107,136,12,-148,58,-29,-87,-112,-131,-146
-82,-185,-102,134,9,-143,58,-29,-82,-112,-122,-136
-87,-185,-97,136,4,-141,58,-29,-78,-102,-122,-136
-87,-185,-97,136,4,-141,58,-39,-78,-102,-122,-131
-87,-180,-92,134,2,-136,58,-39,-78,-107,-122,-131
-82,-180,-97,131,7,-139,58,-34,-78,-107,-122,-141
-82,-180,-97,131,7,-139,58,-29,-78,-107,-122,-141
-82,-185,-102,134,9,-143,58,-24,-78,-107,-122,-141
-82,-185,-102,134,9,-143,63,-19,-78,-107,-122,-141
-82,-195,-112,139,14,-153,53,-19,-82,-107,-131,-141
-87,-195,-107,141,9,-151,53,-19,-82,-107,-131,-141
-87,-185,-97,136,4,-141,53,-14,-78,-102,-131,-141
-87,-185,-97,136,4,-141,53,-9,-78,-102,-126,-141
-82,-185,-102,134,9,-143,53,-9,-78,-102,-126,-131
-82,-185,-102,134,9,-143,53,0,-78,-102,-126,-131
-82,-185,-102,134,9,-143,53,4,-78,-102,-131,-131
-82,-185,-102,134,9,-143,53,9,-78,-102,-131,-131
-82,-185,-102,134,9,-143,63,14,-78,-102,-122,-131
-87,-190,-102,139,7,-146,63,14,-78,-102,-122,-131
-87,-190,-102,139,7,-146,63,14,-68,-97,-122,-131
-87,-180,-92,134,2,-136,63,14,-68,-97,-117,-126
-82,-190,-107,136,12,-148,63,24,-78,-97,-117,-136
-82,-190,-107,136,12,-148,63,34,-73,-92,-117,-136
-82,-185,-102,134,9,-143,63,39,-73,-92,-117,-136
-82,-185,-102,134,9,-143,68,43,-73,-92,-117,-141
-97,-185,-87,141,-4,-136,68,53,-68,-92,-117,-131
-97,-190,-92,143,-2,-141,68,58,-68,-92,-112,-131
-97,-190,-92,143,-2,-141,68,58,-58,-92,-112,-126
-97,-190,-92,143,-2,-141,68,58,-58,-87,-112,-126
-82,-180,-97,131,7,-139,58,63,-58,-87,-112,-126
-82,-170,-87,126,2,-129,58,63,-58,-87,-112,-126
-82,-170,-87,126,2,-129,58,68,-58,-87,-112,-126
-82,-175,-92,129,4,-134,63,78,-58,-87,-112,-126
-82,-175,-92,129,4,-134,63,87,-53,-87,-112,-126
-82,-175,-92,129,4,-134,63,92,-53,-87,-112,-126
-82,-175,-92,129,4,-134,63,97,-43,-82,-112,-126
-82,-165,-82,124,0,-124,63,102,-43,-82,-107,-126
-82,-165,-82,124,0,-124,68,92,-53,-92,-107,-126
-82,-165,-82,124,0,-124,68,97,-53,-92,-107,-126
-82,-161,-78,122,-2,-119,68,112,-53,-87,-107,-126
-82,-161,-78,122,-2,-119,68,117,-53,-87,-107,-126
-82,-161,-78,122,-2,-119,58,117,-43,-87,-107,-126
-92,-161,-68,126,-12,-114,63,117,-43,-87,-102,-126
-92,-161,-68,126,-12,-114,63,112,-34,-82,-102,-126
-92,-156,-63,124,-14,-109,63,117,-29,-78,-102,-126
-82,-146,-63,114,-9,-104,68,117,-34,-78,-102,-112
-78,-141,-63,109,-7,-102,68,117,-34,-78,-102,-112
-78,-141,-63,109,-7,-102,68,126,-34,-78,-102,-112
-78,-141,-63,109,-7,-102,68,131,-34,-78,-102,-117
-87,-146,-58,117,-14,-102,78,141,-34,-78,-102,-126
-97,-146,-48,122,-24,-97,87,156,-24,-73,-102,-126
-97,-146,-48,122,-24,-97,87,156,-19,-63,-102,-126
-97,-141,-43,119,-26,-92,87,161,-14,-58,-92,-126
-97,-136,-39,117,-29,-87,87,156,-9,-53,-92,-117
-97,-131,-34,114,-31,-82,87,161,-4,-53,-92,-117
-97,-131,-34,114,-31,-82,87,165,0,-53,-87,-112
-97,-131,-34,114,-31,-82,92,175,0,-53,-87,-112
-97,-131,-34,114,-31,-82,92,180,4,-53,-87,-112
-102,-131,-29,117,-36,-80,97,190,4,-53,-87,-112
-102,-131,-29,117,-36,-80,102,209,14,-48,-82,-112
-107,-131,-24,119,-41,-78,102,224,19,-34,-82,-112
-117,-131,-14,124,-51,-73,102,239,34,-29,-68,-107
-117,-126,-9,122,-53,-68,107,248,34,-24,-68,-107
-117,-122,-4,119,-56,-63,107,248,39,-24,-63,-107
-117,-122,-4,119,-56,-63,107,258,39,-24,-63,-107
-117,-112,4,114,-61,-53,112,273,39,-14,-63,-107
-122,-112,9,117,-65,-51,112,283,48,-4,-63,-107
-122,-107,14,114,-68,-46,112,297,53,0,-63,-107
-122,-107,14,114,-68,-46,117,307,58,0,-58,-102
-122,-97,24,109,-73,-36,126,307,68,4,-48,-97
-122,-87,34,104,-78,-26,131,322,73,9,-43,-97
-122,-82,39,102,-80,-21,131,326,78,14,-39,-92
-122,-73,48,97,-85,-12,131,341,82,14,-39,-92
-136,-78,58,107,-97,-9,136,341,73,14,-48,-92
-136,-78,58,107,-97,-9,136,356,78,19,-48,-92
-136,-73,63,104,-100,-4,136,370,87,29,-39,-82
-136,-68,68,102,-102,0,136,380,92,29,-34,-78
-136,-68,68,102,-102,0,136,380,107,34,-19,-78
-136,-58,78,97,-107,9,136,380,112,39,-19,-73
-126,-43,82,85,-104,19,136,380,112,43,-14,-68
-126,-34,92,80,-109,29,136,395,117,43,-14,-63
-126,-43,82,85,-104,19,136,414,117,43,-14,-58
-122,-39,82,80,-102,21,131,414,117,53,-4,-53
-122,-34,87,78,-104,26,131,419,122,53,0,-48
-122,-29,92,75,-107,31,131,424,122,58,4,-43
-131,-19,112,75,-122,46,131,439,141,73,9,-39
-126,-4,122,65,-124,58,122,439,146,78,14,-34
-122,0,122,61,-122,61,117,439,146,78,24,-29
-112,9,122,51,-117,65,112,434,146,78,29,-24
-107,29,136,39,-122,82,117,439,146,78,29,-19
-102,29,131,36,-117,80,117,453,141,82,29,-14
-102,34,136,34,-119,85,117,458,141,92,39,-4
-102,43,146,29,-124,95,107,458,146,97,43,0
-102,48,151,26,-126,100,102,468,161,107,48,4
-97,58,156,19,-126,107,97,458,161,107,53,9
-92,63,156,14,-124,109,92,444,161,107,53,19
-87,68,156,9,-122,112,87,434,156,107,53,24
-82,78,161,2,-122,119,82,439,151,107,58,24
-78,78,156,0,-117,117,82,429,141,107,58,24
-73,78,151,-2,-112,114,78,419,141,107,58,34
-68,78,146,-4,-107,112,73,409,136,102,58,39
-58,87,146,-14,-102,117,68,395,136,102,73,43
-58,92,151,-17,-104,122,63,380,136,102,73,43
-48,92,141,-21,-95,117,63,366,131,97,73,48
-43,92,136,-24,-90,114,58,351,126,92,73,48
-39,107,146,-34,-92,126,53,336,122,87,63,58
-29,107,136,-39,-82,122,48,322,117,82,63,58
-24,97,122,-36,-73,109,43,307,107,78,63,58
-19,87,107,-34,-63,97,39,292,97,73,63,58
-29,82,112,-26,-70,97,34,268,102,78,68,53
-29,82,112,-26,-70,97,34,248,97,78,68,53
-29,82,112,-26,-70,97,29,229,92,73,68,53
-19,78,97,-29,-58,87,24,209,92,68,68,53
-4,78,82,-36,-43,80,24,185,78,63,58,48
0,73,73,-36,-36,73,24,165,68,58,58,48
0,68,68,-34,-34,68,24,156,58,53,53,43
0,63,63,-31,-31,63,19,146,53,48,53,43
9,68,58,-39,-24,63,19,126,58,43,43,34
9,63,53,-36,-21,58,14,112,58,43,39,34
9,63,53,-36,-21,58,14,97,58,43,39,34
9,63,53,-36,-21,58,4,78,53,43,39,34
14,53,39,-34,-12,46,4,53,39,29,29,43
14,48,34,-31,-9,41,4,48,34,24,29,34
19,43,24,-31,-2,34,4,43,24,19,24,34
19,39,19,-29,0,29,4,39,19,14,19,34
19,34,14,-26,2,24,-4,34,19,9,19,24
19,34,14,-26,2,24,-9,29,19,9,19,24
19,29,9,-24,4,19,-9,24,19,9,19,24
19,29,9,-24,4,19,-9,19,19,9,19,24
29,29,0,-29,14,14,-9,14,19,9,9,24
29,29,0,-29,14,14,-9,14,9,9,9,19
29,29,0,-29,14,14,-9,14,4,9,9,19
34,19,-14,-26,24,2,-14,14,4,9,4,14
24,9,-14,-17,19,-2,-4,4,4,9,4,14
24,4,-19,-14,21,-7,-9,4,4,4,4,14
29,4,-24,-17,26,-9,-14,4,4,0,-4,14
29,4,-24,-17,26,-9,-14,4,0,-4,-4,14
29,4,-24,-17,26,-9,-19,-4,-9,-14,-4,4
29,4,-24,-17,26,-9,-19,0,-14,-14,-4,4
29,9,-19,-19,24,-4,-19,0,-14,-14,0,4
29,9,-19,-19,24,-4,-24,0,-14,-14,0,4
29,9,-19,-19,24,-4,-24,9,-9,-14,0,4
29,9,-19,-19,24,-4,-24,9,-9,-14,0,4
29,9,-19,-19,24,-4,-24,9,-9,-9,0,4
29,9,-19,-19,24,-4,-24,9,-14,-9,0,4
39,9,-29,-24,34,-9,-24,14,-24,-9,0,4
39,9,-29,-24,34,-9,-29,14,-19,-9,0,4
39,9,-29,-24,34,-9,-29,14,-19,-9,0,4
39,9,-29,-24,34,-9,-34,19,-19,-9,0,4
39,9,-29,-24,34,-9,-34,29,-19,-9,0,4
39,9,-29,-24,34,-9,-34,34,-19,-9,0,4
39,9,-29,-24,34,-9,-34,34,-19,-9,0,4
39,9,-29,-24,34,-9,-34,43,-19,-9,0,4
39,9,-29,-24,34,-9,-34,48,-19,-19,0,4
39,9,-29,-24,34,-9,-34,48,-19,-14,0,4
39,14,-24,-26,31,-4,-34,48,-14,-14,4,4
39,14,-24,-26,31,-4,-34,48,-14,-14,4,4
43,14,-29,-29,36,-7,-34,58,-14,-14,4,14
43,14,-29,-29,36,-7,-39,63,-14,-14,4,19
43,14,-29,-29,36,-7,-39,63,-14,-14,4,19
43,19,-24,-31,34,-2,-34,68,-14,-14,4,19
43,19,-24,-31,34,-2,-34,78,-9,-14,9,19
43,19,-24,-31,34,-2,-34,82,-9,-9,9,19
43,19,-24,-31,34,-2,-34,87,-9,-9,9,19
43,19,-24,-31,34,-2,-39,92,-9,-9,9,19
34,19,-14,-26,24,2,-29,107,-9,-9,9,19
34,24,-9,-29,21,7,-29,107,-9,-9,9,19
34,24,-9,-29,21,7,-29,107,-9,-9,9,24
34,24,-9,-29,21,7,-29,107,-9,-9,14,24
43,24,-19,-34,31,2,-29,112,-9,-4,14,24
43,24,-19,-34,31,2,-29,122,-9,-4,14,24
43,24,-19,-34,31,2,-29,126,-9,-4,14,24
43,29,-14,-36,29,7,-34,131,-9,-4,14,24
43,29,-14,-36,29,7,-34,141,-4,4,14,24
43,29,-14,-36,29,7,-34,141,-4,4,14,24
43,29,-14,-36,29,7,-34,136,-4,4,14,24
43,29,-14,-36,29,7,-34,136,-4,9,14,24
43,39,-4,-41,24,17,-34,141,-4,9,14,29
43,39,-4,-41,24,17,-34,146,-4,9,14,29
43,39,-4,-41,24,17,-34,146,-4,9,14,29
43,39,-4,-41,24,17,-34,151,-4,9,14,29
43,39,-4,-41,24,17,-34,151,-4,19,14,19
43,39,-4,-41,24,17,-34,151,-4,19,14,19
43,43,0,-43,21,21,-34,151,-4,19,14,19
43,43,0,-43,21,21,-34,146,-4,19,14,19
43,43,0,-43,21,21,-43,156,-4,14,14,19
43,43,0,-43,21,21,-43,156,-4,14,9,19
43,43,0,-43,21,21,-39,156,-4,14,9,19
43,43,0,-43,21,21,-39,146,-4,14,9,19
43,43,0,-43,21,21,-39,146,4,9,19,24
39,43,4,-41,17,24,-39,141,4,9,19,24
39,43,4,-41,17,24,-39,136,9,9,19,24
39,43,4,-41,17,24,-39,136,9,9,19,24
48,43,-4,-46,26,19,-39,131,9,9,19,24
48,43,-4,-46,26,19,-39,126,9,9,19,24
48,39,-9,-43,29,14,-39,122,9,9,19,24
48,39,-9,-43,29,14,-39,122,9,4,19,24
39,39,0,-39,19,19,-39,117,9,4,19,24
39,39,0,-39,19,19,-39,112,9,4,19,24
34,39,4,-36,14,21,-39,107,9,4,19,24
34,39,4,-36,14,21,-39,102,9,4,19,19
43,29,-14,-36,29,7,-39,87,9,4,19,19
43,29,-14,-36,29,7,-39,82,9,4,19,24
43,29,-14,-36,29,7,-39,82,9,0,19,24
43,29,-14,-36,29,7,-39,78,9,0,19,24
43,29,-14,-36,29,7,-39,73,4,4,19,24
43,24,-19,-34,31,2,-34,63,4,4,19,24
43,24,-19,-34,31,2,-34,58,4,4,19,24
43,24,-19,-34,31,2,-34,48,4,4,19,24
34,24,-9,-29,21,7,-34,53,4,4,19,24
29,24,-4,-26,17,9,-34,48,4,0,19,24
29,24,-4,-26,17,9,-34,43,4,0,19,19
29,24,-4,-26,17,9,-34,43,4,0,19,19
29,29,0,-29,14,14,-34,43,4,9,19,19
29,29,0,-29,14,14,-34,39,4,9,19,19
29,29,0,-29,14,14,-34,39,4,9,19,19
29,29,0,-29,14,14,-34,39,4,9,19,19
39,29,-9,-34,24,9,-29,29,4,9,19,19
39,29,-9,-34,24,9,-29,29,4,9,19,14
39,29,-9,-34,24,9,-29,29,4,9,19,14
39,29,-9,-34,24,9,-34,29,4,9,19,14
39,29,-9,-34,24,9,-34,29,9,9,19,14
39,29,-9,-34,24,9,-34,29,9,9,19,14
39,29,-9,-34,24,9,-29,24,9,9,19,14
39,29,-9,-34,24,9,-29,24,9,9,19,14
39,29,-9,-34,24,9,-29,24,0,9,9,14
39,29,-9,-34,24,9,-29,19,0,9,9,14
39,24,-14,-31,26,4,-29,19,0,9,9,9
39,19,-19,-29,29,0,-29,19,0,9,9,4
29,19,-9,-24,19,4,-19,29,0,9,4,9
29,19,-9,-24,19,4,-19,29,-4,9,4,9
29,19,-9,-24,19,4,-19,24,-4,9,4,9
29,19,-9,-24,19,4,-19,24,-4,9,4,9
29,14,-14,-21,21,0,-29,24,-4,0,4,9
29,14,-14,-21,21,0,-24,24,-4,0,4,9
24,9,-14,-17,19,-2,-24,24,-4,0,4,9
24,9,-14,-17,19,-2,-24,24,-4,0,4,9
34,19,-14,-26,24,2,-24,24,-4,4,4,9
34,14,-19,-24,26,-2,-24,24,-4,4,4,9
34,14,-19,-24,26,-2,-24,24,-4,4,4,9
34,14,-19,-24,26,-2,-24,19,-4,4,4,9
34,14,-19,-24,26,-2,-24,19,-4,-4,4,9
34,14,-19,-24,26,-2,-24,19,-4,-4,4,4
34,14,-19,-24,26,-2,-24,19,-4,-4,4,4
34,14,-19,-24,26,-2,-24,19,-4,-4,4,4
34,14,-19,-24,26,-2,-14,19,-4,-4,4,4
34,14,-19,-24,26,-2,-14,19,-4,-4,4,4
34,14,-19,-24,26,-2,-14,19,-4,-4,4,4
34,14,-19,-24,26,-2,-14,19,-4,-4,4,4
24,4,-19,-14,21,-7,-24,19,4,-4,4,9
24,4,-19,-14,21,-7,-24,19,4,-4,4,9
24,9,-14,-17,19,-2,-24,19,4,-4,4,4
24,9,-14,-17,19,-2,-19,19,4,-4,4,4
24,14,-9,-19,17,2,-19,19,4,-4,4,9
24,4,-19,-14,21,-7,-24,14,4,-4,4,9
24,4,-19,-14,21,-7,-24,9,0,0,4,9
24,14,-9,-19,17,2,-24,9,0,0,4,9
19,9,-9,-14,14,0,-19,9,0,0,9,9
19,9,-9,-14,14,0,-19,0,0,0,9,9
19,9,-9,-14,14,0,-19,0,0,0,9,9
19,9,-9,-14,14,0,-19,0,0,0,9,9
19,9,-9,-14,14,0,-19,0,0,0,9,9
19,9,-9,-14,14,0,-19,-4,0,-9,0,0
19,9,-9,-14,14,0,-19,-9,0,-9,0,0
19,9,-9,-14,14,0,-19,-14,0,-9,0,0
19,9,-9,-14,14,0,-19,-19,0,-9,0,0
19,9,-9,-14,14,0,-19,-29,0,-9,0,0
19,9,-9,-14,14,0,-19,-29,0,-9,0,0
19,9,-9,-14,14,0,-19,-29,0,-9,0,0
19,9,-9,-14,14,0,-19,-29,0,-9,0,0
19,9,-9,-14,14,0,-19,-29,0,-9,0,0
19,9,-9,-14,14,0,-19,-29,0,-9,0,0
19,9,-9,-14,14,0,-19,-29,0,-9,0,0
19,9,-9,-14,14,0,-19,-29,0,-9,0,0
29,19,-9,-24,19,4,-19,-29,0,0,9,9
29,19,-9,-24,19,4,-19,-29,0,0,9,9
29,19,-9,-24,19,4,-19,-29,0,0,9,9
29,19,-9,-24,19,4,-19,-29,0,0,9,9
29,29,0,-29,14,14,-9,-29,0,0,9,9
29,29,0,-29,14,14,-9,-29,0,0,9,9
29,29,0,-29,14,14,-9,-29,0,0,9,9
29,29,0,-29,14,14,-9,-29,0,0,9,9
39,39,0,-39,19,19,0,-29,9,9,19,19
39,39,0,-39,19,19,0,-29,9,9,19,19
39,39,0,-39,19,19,0,-29,9,9,19,19
39,39,0,-39,19,19,0,-29,9,9,19,19
48,53,4,-51,21,29,9,-19,14,14,29,29
48,58,9,-53,19,34,9,-19,19,19,29,29
48,63,14,-56,17,39,9,-19,24,24,29,29
48,68,19,-58,14,43,9,-19,29,29,29,29
58,78,19,-68,19,48,9,-9,39,39,39,39
63,82,19,-73,21,51,14,-9,39,43,43,43
63,87,24,-75,19,56,14,-4,43,43,43,43
68,92,24,-80,21,58,14,-4,43,43,48,43
78,102,24,-90,26,63,19,0,43,48,48,48
78,102,24,-90,26,63,14,0,48,48,48,48
87,102,14,-95,36,58,4,0,48,48,48,48
87,102,14,-95,36,58,0,0,48,48,48,48
87,107,19,-97,34,63,-4,4,48,48,48,53
92,107,14,-100,39,61,-9,4,48,48,48,53
92,107,14,-100,39,61,-14,4,48,53,48,53
92,107,14,-100,39,61,-19,4,48,53,48,53
82,107,24,-95,29,65,-39,9,48,43,48,53
82,107,24,-95,29,65,-39,4,48,43,48,53
78,107,29,-92,24,68,-43,0,48,43,48,53
78,107,29,-92,24,68,-48,-4,48,43,48,53
78,97,19,-87,29,58,-53,-9,48,43,48,43
73,97,24,-85,24,61,-58,-9,48,43,48,43
73,97,24,-85,24,61,-63,-14,48,43,48,43
73,97,24,-85,24,61,-68,-19,43,43,48,43
63,97,34,-80,14,65,-73,-29,43,43,48,43
63,92,29,-78,17,61,-78,-34,43,43,48,43
58,82,24,-70,17,53,-78,-34,39,43,48,43
58,82,24,-70,17,53,-78,-39,39,43,48,43
58,78,19,-68,19,48,-78,-43,29,39,48,39
58,78,19,-68,19,48,-82,-48,24,39,48,39
58,73,14,-65,21,43,-82,-53,24,39,43,34
58,68,9,-63,24,39,-82,-58,14,29,43,34
58,68,9,-63,24,39,-92,-63,9,19,29,24
53,63,9,-58,21,36,-92,-63,9,19,29,24
53,63,9,-58,21,36,-87,-68,9,19,29,24
53,63,9,-58,21,36,-87,-68,9,19,29,24
53,53,0,-53,26,26,-78,-78,9,19,29,24
53,53,0,-53,26,26,-78,-82,9,19,29,24
53,53,0,-53,26,26,-73,-82,9,19,29,24
53,58,4,-56,24,31,-73,-82,9,19,29,24
48,68,19,-58,14,43,-78,-82,9,19,29,29
48,73,24,-61,12,48,-78,-82,9,19,29,29
43,73,29,-58,7,51,-68,-82,19,19,29,34
43,73,29,-58,7,51,-63,-82,19,24,39,34
39,73,34,-56,2,53,-58,-78,24,34,48,39
39,78,39,-58,0,58,-53,-78,24,39,48,39
29,78,48,-53,-9,63,-48,-78,24,39,53,39
24,78,53,-51,-14,65,-48,-78,29,39,53,39
24,73,48,-48,-12,61,-43,-78,29,39,53,48
19,68,48,-43,-14,58,-39,-73,29,39,53,48
19,63,43,-41,-12,53,-34,-73,24,39,48,39
14,58,43,-36,-14,51,-29,-73,24,34,39,39
4,43,39,-24,-17,41,-19,-73,29,34,34,34
4,39,34,-21,-14,36,-19,-68,29,24,34,29
4,34,29,-19,-12,31,-19,-68,24,19,29,24
4,24,19,-14,-7,21,-19,-68,19,19,29,19
0,19,19,-9,-9,19,-4,-68,14,14,14,14
0,14,14,-7,-7,14,-4,-68,14,9,9,9
0,4,4,-2,-2,4,0,-63,14,4,4,4
0,0,0,0,0,0,0,-63,4,0,0,0
0,-9,-9,4,4,-9,0,-63,4,-14,-4,-4
0,-14,-14,7,7,-14,4,-63,4,-19,-4,-9
-4,-19,-14,12,4,-17,4,-63,0,-24,-9,-14
-4,-24,-19,14,7,-21,9,-58,0,-24,-14,-19
-4,-19,-14,12,4,-17,0,-58,0,-24,-19,-19
-9,-24,-14,17,2,-19,0,-58,0,-24,-19,-19
-9,-29,-19,19,4,-24,0,-58,-4,-24,-19,-19
-9,-29,-19,19,4,-24,0,-58,-4,-24,-19,-19
-9,-29,-19,19,4,-24,0,-63,0,-19,-19,-19
-9,-29,-19,19,4,-24,4,-63,0,-19,-19,-19
-14,-29,-14,21,0,-21,4,-63,0,-19,-19,-19
-14,-29,-14,21,0,-21,4,-63,0,-19,-19,-24
0,-24,-24,12,12,-24,4,-68,0,-29,-19,-24
0,-24,-24,12,12,-24,4,-63,0,-29,-19,-24
0,-24,-24,12,12,-24,4,-63,0,-29,-19,-24
0,-19,-19,9,9,-19,4,-53,0,-29,-19,-24
-9,-24,-14,17,2,-19,9,-39,0,-29,-9,-24
-9,-29,-19,19,4,-24,9,-34,0,-29,-9,-24
-9,-34,-24,21,7,-29,9,-29,0,-29,-9,-24
-9,-39,-29,24,9,-34,9,-29,0,-29,-9,-24
-9,-34,-24,21,7,-29,9,-14,-4,-29,-14,-24
-14,-39,-24,26,4,-31,14,0,-4,-29,-19,-24
-9,-43,-34,26,12,-39,29,29,0,-29,-19,-39
-14,-48,-34,31,9,-41,39,68,0,-29,-29,-43
-19,-48,-29,34,4,-39,53,107,14,-29,-24,-53
-29,-53,-24,41,-2,-39,82,175,29,-14,-34,-63
-48,-43,4,46,-26,-19,107,229,58,14,-24,-63
-68,-4,63,36,-65,29,136,297,97,43,9,-53
-68,39,107,14,-87,73,151,414,141,73,24,-29
-34,78,112,-21,-73,95,175,551,180,97,43,-24
4,126,122,-65,-58,124,180,663,219,126,68,-4
29,180,151,-104,-61,165,190,746,258,156,102,29
82,248,165,-165,-41,207,175,849,287,190,131,63
161,341,180,-251,-9,261,146,932,326,239,180,102
263,473,209,-368,26,341,102,966,370,302,248,175
361,600,239,-480,61,419,48,990,409,356,317,263
497,736,239,-617,129,488,-43,985,429,390,385,341
634,863,229,-749,202,546,-161,907,429,439,444,439
751,1000,248,-875,251,624,-278,732,444,478,531,531
844,1195,351,-1019,246,773,-405,468,478,566,653,678
932,1405,473,-1168,229,939,-541,136,517,668,790,839
1039,1600,561,-1320,239,1080,-717,-214,541,736,912,985
1146,1786,639,-1466,253,1212,-902,-580,541,800,1010,1122
1215,1942,727,-1578,244,1334,-1068,-1000,541,844,1102,1254
1200,2015,814,-1607,192,1415,-1166,-1527,531,858,1156,1342
1044,2000,956,-1522,43,1478,-1185,-2098,517,868,1166,1361
795,1937,1141,-1366,-173,1539,-1122,-2693,541,868,1156,1361
492,1722,1229,-1107,-368,1476,-985,-3230,497,795,1093,1298
209,1342,1132,-775,-461,1237,-810,-3611,312,600,883,1102
0,897,897,-448,-448,897,-619,-3821,82,346,629,863
-146,488,634,-170,-390,561,-453,-3879,-151,107,375,614
-244,112,356,65,-300,234,-312,-3869,-361,-117,151,395
-312,-224,87,268,-200,-68,-195,-3791,-531,-312,-39,209
-361,-488,-126,424,-117,-307,-136,-3660,-668,-463,-195,39
-380,-722,-341,551,-19,-531,-107,-3479,-805,-610,-351,-112
-385,-966,-580,675,97,-773,-107,-3240,-941,-746,-492,-258
-453,-1122,-668,788,107,-895,-117,-2986,-1010,-819,-570,-336
-575,-1156,-580,866,2,-868,-78,-2757,-976,-780,-546,-326
-751,-1073,-322,912,-214,-697,14,-2522,-839,-663,-439,-234
-844,-932,-87,888,-378,-509,63,-2235,-678,-512,-307,-122
-824,-790,34,807,-429,-378,29,-1893,-551,-405,-214,-48
-722,-649,73,685,-397,-287,-34,-1537,-453,-331,-151,4
-570,-502,68,536,-319,-217,-82,-1205,-370,-268,-102,34
-419,-351,68,385,-244,-141,-141,-907,-283,-204,-68,43
-273,-244,29,258,-151,-107,-190,-610,-214,-146,-43,43
-185,-165,19,175,-102,-73,-180,-385,-175,-117,-34,24
-156,-126,29,141,-92,-48,-131,-244,-131,-92,-29,24
-165,-107,58,136,-112,-24,-87,-146,-97,-68,-9,14
-175,-102,73,139,-124,-14,-58,-78,-63,-48,-14,14
-165,-102,63,134,-114,-19,-34,-19,-43,-43,-14,4
-151,-112,39,131,-95,-36,0,34,-39,-48,-19,-9
-131,-112,19,122,-75,-46,9,82,-39,-58,-34,-34
-112,-112,0,112,-56,-56,14,126,-48,-58,-39,-39
-97,-122,-24,109,-36,-73,9,165,-53,-68,-58,-58
-97,-126,-29,112,-34,-78,14,195,-63,-58,-58,-63
-92,-131,-39,112,-26,-85,14,195,-58,-63,-58,-68
-92,-131,-39,112,-26,-85,14,200,-48,-63,-58,-73
-92,-131,-39,112,-26,-85,14,200,-48,-63,-58,-78
-82,-122,-39,102,-21,-80,24,200,-48,-63,-58,-78
-78,-122,-43,100,-17,-82,24,200,-48,-63,-58,-78
-73,-112,-39,92,-17,-75,24,204,-58,-63,-63,-87
-73,-122,-48,97,-12,-85,29,209,-58,-63,-63,-87
-63,-122,-58,92,-2,-90,19,214,-58,-73,-73,-87
-63,-126,-63,95,0,-95,19,214,-58,-73,-73,-87
-63,-126,-63,95,0,-95,19,214,-48,-73,-73,-87
-68,-122,-53,95,-7,-87,19,214,-48,-73,-68,-87
-68,-122,-53,95,-7,-87,24,209,-39,-73,-58,-87
-68,-122,-53,95,-7,-87,24,209,-39,-78,-58,-87
-63,-122,-58,92,-2,-90,24,209,-39,-78,-58,-87
-63,-122,-58,92,-2,-90,19,209,-39,-87,-68,-92
-63,-136,-73,100,4,-104,29,209,-48,-87,-78,-92
-63,-141,-78,102,7,-109,29,209,-53,-87,-78,-87
-63,-141,-78,102,7,-109,29,200,-58,-87,-78,-87
-63,-141,-78,102,7,-109,29,195,-53,-73,-73,-87
-73,-126,-53,100,-9,-90,19,190,-43,-73,-73,-87
-68,-126,-58,97,-4,-92,19,190,-48,-78,-73,-87
-68,-126,-58,97,-4,-92,19,190,-53,-78,-73,-87
-68,-126,-58,97,-4,-92,24,190,-58,-87,-82,-92
-58,-136,-78,97,9,-107,34,190,-68,-87,-82,-92
-63,-136,-73,100,4,-104,34,190,-68,-87,-82,-92
-68,-141,-73,104,2,-107,34,190,-68,-87,-82,-92
-68,-141,-73,104,2,-107,34,185,-63,-82,-78,-87
-78,-136,-58,107,-9,-97,29,185,-53,-73,-68,-78
-78,-136,-58,107,-9,-97,29,175,-53,-73,-73,-78
-73,-136,-63,104,-4,-100,29,175,-53,-73,-73,-78
-73,-136,-63,104,-4,-100,29,180,-63,-82,-78,-82
-63,-131,-68,97,2,-100,29,190,-73,-92,-78,-87
-63,-136,-73,100,4,-104,29,185,-68,-92,-78,-87
-73,-136,-63,104,-4,-100,29,185,-68,-92,-78,-87
-73,-136,-63,104,-4,-100,29,180,-63,-92,-78,-87
-68,-141,-73,104,2,-107,29,185,-53,-82,-82,-97
-68,-141,-73,104,2,-107,29,180,-58,-82,-82,-97
-68,-141,-73,104,2,-107,29,175,-58,-82,-82,-97
-68,-141,-73,104,2,-107,29,175,-58,-92,-82,-97
-68,-151,-82,109,7,-117,39,175,-73,-102,-92,-102
-68,-156,-87,112,9,-122,39,175,-73,-107,-92,-102
-68,-161,-92,114,12,-126,39,175,-73,-107,-92,-102
-68,-161,-92,114,12,-126,39,165,-73,-102,-92,-102
-73,-170,-97,122,12,-134,29,151,-78,-112,-102,-112
-73,-165,-92,119,9,-129,34,146,-78,-112,-102,-112
-68,-165,-97,117,14,-131,34,136,-78,-117,-102,-112
-68,-161,-92,114,12,-126,34,131,-87,-117,-102,-112
-68,-161,-92,114,12,-126,34,131,-87,-117,-107,-117
-68,-165,-97,117,14,-131,34,126,-87,-117,-107,-117
-73,-165,-92,119,9,-129,34,122,-87,-117,-107,-117
-78,-170,-92,124,7,-131,34,117,-87,-117,-107,-117
-87,-170,-82,129,-2,-126,34,102,-78,-107,-97,-107
-87,-165,-78,126,-4,-122,34,97,-78,-102,-97,-107
-82,-165,-82,124,0,-124,34,87,-78,-102,-97,-107
-82,-165,-82,124,0,-124,34,87,-78,-102,-97,-107
-73,-156,-82,114,4,-119,39,87,-82,-112,-97,-117
-73,-165,-92,119,9,-129,39,82,-82,-112,-102,-122
-73,-165,-92,119,9,-129,39,78,-82,-112,-102,-122
-82,-170,-87,126,2,-129,39,63,-82,-112,-102,-126
-92,-180,-87,136,-2,-134,39,73,-73,-112,-102,-117
-92,-175,-82,134,-4,-129,39,68,-73,-107,-102,-112
-87,-170,-82,129,-2,-126,39,63,-73,-107,-102,-112
-87,-170,-82,129,-2,-126,39,63,-73,-107,-107,-117
-78,-170,-92,124,7,-131,39,63,-82,-107,-107,-117
-78,-180,-102,129,12,-141,39,63,-87,-112,-107,-122
-78,-180,-102,129,12,-141,39,63,-87,-112,-107,-122
-78,-180,-102,129,12,-141,43,63,-87,-112,-107,-122
-78,-180,-102,129,12,-141,43,63,-87,-112,-117,-131
-87,-180,-92,134,2,-136,43,58,-78,-112,-117,-131
-87,-180,-92,134,2,-136,43,58,-78,-107,-117,-131
-82,-180,-97,131,7,-139,43,58,-82,-107,-117,-131
-82,-180,-97,131,7,-139,53,58,-82,-117,-117,-131
-82,-180,-97,131,7,-139,53,63,-87,-122,-122,-136
-82,-190,-107,136,12,-148,53,63,-87,-122,-122,-136
-82,-190,-107,136,12,-148,58,68,-87,-122,-122,-136
-82,-195,-112,139,14,-153,58,78,-92,-122,-122,-146
-87,-195,-107,141,9,-151,58,78,-87,-112,-122,-146
-87,-195,-107,141,9,-151,58,68,-87,-112,-122,-141
-87,-190,-102,139,7,-146,58,68,-87,-117,-122,-141
-82,-190,-107,136,12,-148,58,73,-78,-107,-122,-131
-82,-190,-107,136,12,-148,58,78,-78,-107,-122,-131
-82,-195,-112,139,14,-153,58,82,-78,-107,-122,-131
-82,-195,-112,139,14,-153,63,87,-78,-107,-122,-131
-92,-214,-122,153,14,-168,63,97,-82,-107,-122,-141
-97,-214,-117,156,9,-165,63,97,-82,-107,-122,-141
-97,-204,-107,151,4,-156,63,102,-78,-102,-122,-141
-97,-204,-107,151,4,-156,63,107,-78,-102,-117,-141
-82,-195,-112,139,14,-153,63,107,-78,-102,-117,-131
-82,-195,-112,139,14,-153,63,117,-78,-102,-117,-131
-82,-195,-112,139,14,-153,63,122,-78,-102,-122,-131
-82,-195,-112,139,14,-153,63,126,-78,-102,-122,-131
-82,-204,-122,143,19,-163,73,141,-78,-112,-122,-141
-87,-209,-122,148,17,-165,73,141,-78,-112,-122,-141
-87,-209,-122,148,17,-165,73,141,-68,-107,-122,-141
-87,-200,-112,143,12,-156,73,141,-68,-107,-117,-136
-82,-190,-107,136,12,-148,73,151,-78,-97,-117,-136
-82,-190,-107,136,12,-148,73,161,-73,-92,-117,-136
-82,-185,-102,134,9,-143,73,165,-73,-92,-117,-136
-82,-185,-102,134,9,-143,78,170,-73,-92,-117,-141
-87,-195,-107,141,9,-151,78,190,-68,-102,-117,-141
-87,-200,-112,143,12,-156,78,195,-68,-102,-112,-141
-87,-200,-112,143,12,-156,78,195,-58,-102,-112,-136
-87,-200,-112,143,12,-156,78,195,-58,-97,-112,-136
-82,-200,-117,141,17,-158,78,209,-58,-97,-112,-136
-82,-190,-107,136,12,-148,78,209,-58,-97,-112,-136
-82,-190,-107,136,12,-148,78,214,-58,-97,-112,-136
-82,-195,-112,139,14,-153,82,224,-58,-97,-112,-136
-82,-195,-112,139,14,-153,82,229,-63,-97,-112,-136
-82,-195,-112,139,14,-153,82,239,-63,-97,-112,-136
-82,-195,-112,139,14,-153,82,248,-53,-92,-112,-136
-82,-185,-102,134,9,-143,82,258,-53,-92,-107,-136
-82,-185,-102,134,9,-143,78,248,-43,-92,-107,-126
-82,-185,-102,134,9,-143,78,253,-43,-92,-107,-126
-82,-180,-97,131,7,-139,78,268,-43,-87,-107,-126
-82,-180,-97,131,7,-139,78,273,-43,-87,-107,-126
-73,-170,-97,122,12,-134,87,287,-53,-87,-107,-136
-82,-170,-87,126,2,-129,92,292,-53,-87,-102,-136
-82,-170,-87,126,2,-129,92,292,-43,-82,-102,-136
-82,-165,-82,124,0,-124,92,302,-39,-78,-102,-136
-92,-175,-82,134,-4,-129,97,302,-34,-68,-102,-131
-87,-170,-82,129,-2,-126,97,302,-34,-68,-102,-131
-87,-170,-82,129,-2,-126,97,312,-34,-68,-102,-131
-87,-170,-82,129,-2,-126,97,317,-34,-68,-102,-136
-87,-165,-78,126,-4,-122,97,326,-34,-78,-102,-136
-97,-165,-68,131,-14,-117,107,341,-24,-73,-102,-136
-97,-165,-68,131,-14,-117,107,341,-19,-63,-102,-136
-97,-161,-63,129,-17,-112,107,346,-14,-58,-92,-136
-97,-156,-58,126,-19,-107,107,351,-9,-53,-92,-126
-97,-151,-53,124,-21,-102,107,356,-4,-53,-92,-126
-97,-151,-53,124,-21,-102,107,361,0,-53,-87,-122
-97,-151,-53,124,-21,-102,112,370,0,-53,-87,-122
-87,-141,-53,114,-17,-97,112,375,-4,-63,-97,-122
-92,-141,-48,117,-21,-95,117,385,-4,-63,-97,-122
-92,-141,-48,117,-21,-95,122,405,4,-58,-92,-122
-97,-141,-43,119,-26,-92,122,419,9,-43,-92,-122
-97,-141,-43,119,-26,-92,122,434,24,-39,-87,-117
-97,-136,-39,117,-29,-87,126,444,24,-34,-87,-117
-97,-131,-34,114,-31,-82,126,444,29,-34,-82,-117
-97,-131,-34,114,-31,-82,126,453,29,-34,-82,-117
-97,-131,-34,114,-31,-82,131,458,29,-34,-82,-117
-102,-131,-29,117,-36,-80,131,468,39,-24,-82,-117
-102,-126,-24,114,-39,-75,131,483,43,-19,-82,-117
-102,-126,-24,114,-39,-75,136,492,48,-19,-78,-112
-102,-126,-24,114,-39,-75,136,483,58,-14,-78,-117
-102,-117,-14,109,-43,-65,141,497,63,-9,-73,-117
-102,-112,-9,107,-46,-61,141,502,68,-4,-68,-112
-102,-102,0,102,-51,-51,141,517,73,-4,-68,-112
-107,-97,9,102,-58,-43,146,522,63,4,-68,-112
-107,-97,9,102,-58,-43,146,531,68,9,-68,-112
-107,-92,14,100,-61,-39,146,541,78,19,-58,-102
-107,-87,19,97,-63,-34,146,546,82,19,-53,-97
-107,-87,19,97,-63,-34,146,546,87,14,-48,-97
-107,-78,29,92,-68,-24,146,546,92,19,-48,-92
-97,-63,34,80,-65,-14,146,546,92,24,-43,-87
-97,-53,43,75,-70,-4,146,561,97,24,-43,-82
-97,-53,43,75,-70,-4,146,570,97,34,-43,-78
-92,-48,43,70,-68,-2,141,570,97,43,-34,-73
-92,-43,48,68,-70,2,141,575,102,43,-29,-68
-92,-39,53,65,-73,7,141,580,102,48,-24,-63
-92,-39,53,65,-73,7,151,575,112,53,-19,-58
-87,-24,63,56,-75,19,141,575,117,58,-14,-53
-82,-19,63,51,-73,21,136,575,117,58,-4,-48
-73,-9,63,41,-68,26,131,570,117,58,0,-43
-78,0,78,39,-78,39,126,570,126,58,9,-48
-73,0,73,36,-73,36,126,580,122,63,9,-43
-73,4,78,34,-75,41,126,580,122,73,19,-34
-73,14,87,29,-80,51,117,575,126,78,24,-29
-73,19,92,26,-82,56,122,575,131,87,29,-24
-68,29,97,19,-82,63,117,566,131,87,34,-19
-63,34,97,14,-80,65,112,551,131,87,34,-9
-58,39,97,9,-78,68,107,541,126,87,34,-4
-43,58,102,-7,-73,80,92,527,122,87,39,-4
-39,58,97,-9,-68,78,92,517,112,87,39,-4
-34,58,92,-12,-63,75,87,507,112,87,39,4
-29,58,87,-14,-58,73,82,497,107,82,39,9
-39,58,97,-9,-68,78,78,473,117,82,43,24
-39,63,102,-12,-70,82,73,458,117,82,43,24
-29,63,92,-17,-61,78,73,444,112,78,43,29
-24,63,87,-19,-56,75,68,429,107,73,43,29
-19,78,97,-29,-58,87,63,400,102,78,43,29
-9,78,87,-34,-48,82,58,380,97,73,43,29
-4,68,73,-31,-39,70,53,361,87,68,43,29
0,58,58,-29,-29,58,48,341,78,63,43,29
0,58,58,-29,-29,58,43,317,82,68,48,43
0,63,63,-31,-31,63,43,297,78,68,48,43
0,68,68,-34,-34,68,39,278,73,63,48,43
9,68,58,-39,-24,63,34,258,73,58,48,43
14,68,53,-41,-19,61,24,229,78,53,39,39
19,63,43,-41,-12,53,24,204,68,48,39,39
19,58,39,-39,-9,48,24,190,58,43,34,34
19,53,34,-36,-7,43,19,175,53,39,34,34
19,48,29,-34,-4,39,29,156,48,34,43,43
19,43,24,-31,-2,34,24,141,48,34,39,43
19,43,24,-31,-2,34,24,126,48,34,39,43
19,43,24,-31,-2,34,14,107,43,34,39,43
24,43,19,-34,2,31,4,78,39,29,29,43
24,39,14,-31,4,26,4,68,34,24,29,34
29,34,4,-31,12,19,4,58,24,19,24,34
29,29,0,-29,14,14,4,48,19,14,19,34
29,24,-4,-26,17,9,4,34,9,9,9,24
29,24,-4,-26,17,9,0,29,9,9,9,24
29,19,-9,-24,19,4,0,24,9,9,9,24
29,19,-9,-24,19,4,0,19,9,9,9,24
29,19,-9,-24,19,4,0,9,9,9,9,24
29,19,-9,-24,19,4,0,4,0,9,9,19
29,19,-9,-24,19,4,0,0,-4,9,9,19
34,9,-24,-21,29,-7,-4,-4,-4,9,4,14
34,19,-14,-26,24,2,4,-4,4,19,14,14
34,14,-19,-24,26,-2,0,-4,4,14,14,14
39,14,-24,-26,31,-4,-4,-4,4,9,4,14
39,14,-24,-26,31,-4,-4,-4,0,4,4,14
39,4,-34,-21,36,-14,-4,-19,0,4,-4,14
39,4,-34,-21,36,-14,-9,-19,-4,4,-4,14
39,9,-29,-24,34,-9,-14,-24,-4,4,0,14
39,9,-29,-24,34,-9,-24,-29,-4,4,0,14
39,9,-29,-24,34,-9,-24,-39,0,4,0,14
39,9,-29,-24,34,-9,-24,-39,0,4,0,14
39,9,-29,-24,34,-9,-24,-39,0,9,0,14
39,9,-29,-24,34,-9,-24,-39,-4,9,0,14
39,9,-29,-24,34,-9,-14,-39,-4,9,0,14
39,9,-29,-24,34,-9,-19,-43,0,9,0,14
39,9,-29,-24,34,-9,-19,-48,0,9,0,14
39,9,-29,-24,34,-9,-24,-48,0,9,0,14
39,19,-19,-29,29,0,-24,-53,0,9,9,14
39,19,-19,-29,29,0,-24,-53,0,9,9,14
39,19,-19,-29,29,0,-24,-58,0,9,9,14
39,19,-19,-29,29,0,-24,-53,0,9,9,14
39,19,-19,-29,29,0,-24,-53,0,9,0,14
39,19,-19,-29,29,0,-24,-58,0,14,0,14
39,24,-14,-31,26,4,-24,-63,4,14,4,14
39,24,-14,-31,26,4,-24,-68,4,14,4,14
43,24,-19,-34,31,2,-24,-78,4,14,14,24
43,24,-19,-34,31,2,-29,-73,4,14,14,29
43,24,-19,-34,31,2,-29,-73,4,14,14,29
43,29,-14,-36,29,7,-24,-68,4,14,14,29
43,29,-14,-36,29,7,-24,-73,9,14,19,29
43,29,-14,-36,29,7,-24,-73,9,19,19,29
43,29,-14,-36,29,7,-24,-73,9,19,19,29
43,29,-14,-36,29,7,-29,-73,9,19,19,29
43,29,-14,-36,29,7,-29,-58,9,29,19,29
43,34,-9,-39,26,12,-29,-58,9,29,19,29
43,34,-9,-39,26,12,-29,-58,9,29,19,34
43,34,-9,-39,26,12,-29,-58,9,29,24,34
43,34,-9,-39,26,12,-29,-58,9,24,14,24
43,34,-9,-39,26,12,-29,-53,9,24,14,24
43,34,-9,-39,26,12,-29,-53,9,24,14,24
43,39,-4,-41,24,17,-34,-53,9,24,14,24
43,39,-4,-41,24,17,-24,-43,14,24,14,24
43,39,-4,-41,24,17,-24,-43,14,24,14,24
43,39,-4,-41,24,17,-24,-48,14,24,14,24
43,39,-4,-41,24,17,-24,-48,14,29,14,24
43,39,-4,-41,24,17,-24,-39,14,29,24,29
43,39,-4,-41,24,17,-24,-39,14,29,24,29
43,39,-4,-41,24,17,-24,-43,14,29,24,29
43,39,-4,-41,24,17,-24,-43,14,29,24,29
43,39,-4,-41,24,17,-34,-43,14,29,24,29
43,39,-4,-41,24,17,-34,-43,14,29,24,29
43,43,0,-43,21,21,-34,-43,14,29,24,29
43,43,0,-43,21,21,-34,-48,14,29,24,29
34,43,9,-39,12,26,-34,-48,14,34,24,19
34,43,9,-39,12,26,-34,-48,14,34,19,19
34,43,9,-39,12,26,-29,-48,14,34,19,19
34,43,9,-39,12,26,-29,-58,14,34,19,19
34,43,9,-39,12,26,-29,-58,14,29,19,24
29,43,14,-36,7,29,-29,-63,14,29,19,24
29,43,14,-36,7,29,-29,-68,19,29,19,24
29,43,14,-36,7,29,-29,-68,19,29,19,24
39,43,4,-41,17,24,-29,-63,9,29,19,24
39,43,4,-41,17,24,-29,-68,9,29,19,24
39,39,0,-39,19,19,-29,-73,9,29,19,24
39,39,0,-39,19,19,-29,-73,9,24,19,24
39,39,0,-39,19,19,-29,-73,9,24,19,24
39,39,0,-39,19,19,-29,-73,9,24,19,24
34,39,4,-36,14,21,-29,-73,9,24,19,24
34,39,4,-36,14,21,-29,-73,9,24,19,19
34,29,-4,-31,19,12,-29,-73,9,24,9,19
34,29,-4,-31,19,12,-29,-73,9,24,9,24
34,29,-4,-31,19,12,-29,-68,9,19,9,24
34,29,-4,-31,19,12,-29,-68,9,19,9,24
34,29,-4,-31,19,12,-29,-58,14,14,9,24
34,24,-9,-29,21,7,-24,-63,14,14,9,24
34,24,-9,-29,21,7,-24,-63,14,14,9,24
34,24,-9,-29,21,7,-24,-68,14,14,9,24
34,34,0,-34,17,17,-24,-63,14,14,9,24
29,34,4,-31,12,19,-24,-68,14,9,9,24
29,34,4,-31,12,19,-24,-73,14,9,9,19
29,34,4,-31,12,19,-24,-73,14,9,9,19
29,29,0,-29,14,14,-24,-73,14,19,9,19
29,29,0,-29,14,14,-24,-78,14,19,9,19
29,29,0,-29,14,14,-24,-78,14,19,9,19
29,29,0,-29,14,14,-24,-78,14,19,9,19
29,29,0,-29,14,14,-19,-87,4,19,19,19
29,29,0,-29,14,14,-19,-87,4,19,19,14
29,29,0,-29,14,14,-19,-87,4,19,19,14
29,29,0,-29,14,14,-24,-87,4,19,19,14
19,19,0,-19,9,9,-24,-87,9,9,9,14
19,19,0,-19,9,9,-24,-87,9,9,9,14
19,19,0,-19,9,9,-19,-92,9,9,9,14
19,19,0,-19,9,9,-19,-92,9,9,9,14
19,19,0,-19,9,9,-19,-92,9,9,9,14
19,19,0,-19,9,9,-19,-97,9,9,9,14
19,14,-4,-17,12,4,-19,-97,9,9,9,9
19,9,-9,-14,14,0,-19,-97,9,9,9,4
29,19,-9,-24,19,4,-19,-87,9,9,4,9
29,19,-9,-24,19,4,-19,-87,4,9,4,9
29,19,-9,-24,19,4,-19,-92,4,9,4,9
29,19,-9,-24,19,4,-19,-92,4,9,4,9
29,14,-14,-21,21,0,-19,-92,4,9,4,9
29,14,-14,-21,21,0,-14,-92,4,9,4,9
24,9,-14,-17,19,-2,-14,-92,4,9,4,9
24,9,-14,-17,19,-2,-14,-92,4,9,4,9
24,9,-14,-17,19,-2,-14,-92,4,14,14,9
24,4,-19,-14,21,-7,-14,-92,4,14,14,9
24,4,-19,-14,21,-7,-14,-92,4,14,14,9
24,4,-19,-14,21,-7,-14,-97,4,14,14,9
24,14,-9,-19,17,2,-14,-87,4,14,14,9
24,14,-9,-19,17,2,-14,-87,4,14,14,4
24,14,-9,-19,17,2,-14,-87,4,14,14,4
24,14,-9,-19,17,2,-14,-87,4,14,14,4
24,14,-9,-19,17,2,-14,-87,4,4,14,4
24,14,-9,-19,17,2,-14,-87,4,4,14,4
24,14,-9,-19,17,2,-14,-87,4,4,14,4
24,14,-9,-19,17,2,-14,-87,4,4,14,4
24,14,-9,-19,17,2,-24,-87,4,4,4,9
24,14,-9,-19,17,2,-24,-87,4,4,4,9
24,19,-4,-21,14,7,-24,-87,4,4,4,4
24,19,-4,-21,14,7,-19,-87,4,4,4,4
14,14,0,-14,7,7,-19,-87,4,4,4,9
14,14,0,-14,7,7,-14,-82,4,4,4,9
14,4,-9,-9,12,-2,-14,-87,0,9,4,9
14,4,-9,-9,12,-2,-14,-87,0,9,4,0
19,0,-19,-9,19,-9,-19,-87,0,0,0,0
19,9,-9,-14,14,0,-19,-87,0,0,9,9
19,9,-9,-14,14,0,-19,-87,0,0,9,9
19,9,-9,-14,14,0,-19,-87,0,0,9,9
19,9,-9,-14,14,0,-19,-87,0,0,9,9
19,9,-9,-14,14,0,-9,-87,0,9,9,9
19,9,-9,-14,14,0,-9,-87,0,9,9,9
19,9,-9,-14,14,0,-9,-87,0,9,9,9
19,9,-9,-14,14,0,-9,-87,0,9,9,9
19,9,-9,-14,14,0,-9,-78,0,0,0,9
19,9,-9,-14,14,0,-9,-78,0,0,0,9
19,9,-9,-14,14,0,-9,-78,0,0,0,9
19,9,-9,-14,14,0,-9,-78,0,0,0,9
19,9,-9,-14,14,0,-9,-78,0,0,0,9
19,9,-9,-14,14,0,-9,-78,0,0,0,9
19,9,-9,-14,14,0,-9,-78,0,0,0,9
19,9,-9,-14,14,0,-9,-78,0,0,0,9
19,9,-9,-14,14,0,-19,-78,0,0,0,0
19,9,-9,-14,14,0,-19,-78,0,0,0,0
19,9,-9,-14,14,0,-19,-78,0,0,0,0
19,9,-9,-14,14,0,-19,-78,0,0,0,0
19,9,-9,-14,14,0,-19,-68,0,0,0,0
19,9,-9,-14,14,0,-19,-68,0,0,0,0
19,9,-9,-14,14,0,-19,-68,0,0,0,0
19,9,-9,-14,14,0,-19,-68,0,0,0,0
19,9,-9,-14,14,0,-19,-68,0,0,0,0
19,9,-9,-14,14,0,-19,-68,0,0,0,0
19,9,-9,-14,14,0,-19,-68,0,0,0,0
19,9,-9,-14,14,0,-19,-68,0,0,0,0
19,0,-19,-9,19,-9,-19,-68,0,-9,0,0
19,0,-19,-9,19,-9,-19,-68,0,-9,0,0
19,0,-19,-9,19,-9,-19,-68,0,-9,0,0
19,0,-19,-9,19,-9,-19,-68,0,-9,0,0
19,9,-9,-14,14,0,-19,-68,0,0,0,0
19,9,-9,-14,14,0,-19,-68,0,0,0,0
19,9,-9,-14,14,0,-19,-68,0,0,0,0
19,9,-9,-14,14,0,-19,-68,0,0,0,0
29,19,-9,-24,19,4,-9,-68,0,-9,0,9
29,19,-9,-24,19,4,-9,-68,0,-9,0,9
29,19,-9,-24,19,4,-9,-68,0,-9,0,9
29,19,-9,-24,19,4,-9,-68,0,-9,0,9
39,24,-14,-31,26,4,0,-58,9,0,9,19
39,29,-9,-34,24,9,0,-58,9,0,9,19
39,34,-4,-36,21,14,0,-58,9,0,9,19
39,39,0,-39,19,19,0,-58,9,0,9,19
48,43,-4,-46,26,19,9,-48,14,9,19,29
48,48,0,-48,24,24,9,-48,19,9,19,29
48,53,4,-51,21,29,9,-48,24,9,19,29
48,58,9,-53,19,34,9,-48,29,9,19,29
48,63,14,-56,17,39,9,-39,39,19,29,29
53,73,19,-63,17,46,14,-39,39,24,34,34
53,82,29,-68,12,56,14,-34,43,24,34,34
58,92,34,-75,12,63,14,-34,43,24,39,34
58,102,43,-80,7,73,19,-29,43,29,39,39
58,102,43,-80,7,73,14,-29,48,29,39,39
68,102,34,-85,17,68,4,-29,48,29,39,39
68,102,34,-85,17,68,0,-29,48,29,39,39
78,107,29,-92,24,68,-4,-24,48,29,48,53
82,107,24,-95,29,65,-9,-24,48,29,48,53
82,107,24,-95,29,65,-14,-24,48,34,48,53
82,107,24,-95,29,65,-19,-24,48,34,48,53
82,107,24,-95,29,65,-39,-24,48,34,48,53
82,107,24,-95,29,65,-39,-24,48,34,48,53
78,107,29,-92,24,68,-43,-24,48,34,48,53
78,107,29,-92,24,68,-48,-24,48,34,48,53
68,107,39,-87,14,73,-53,-29,48,34,48,53
63,107,43,-85,9,75,-58,-29,48,34,48,53
63,107,43,-85,9,75,-63,-34,48,34,48,53
63,107,43,-85,9,75,-68,-39,43,34,48,53
63,107,43,-85,9,75,-73,-39,43,24,39,43
63,102,39,-82,12,70,-78,-43,43,24,39,43
58,92,34,-75,12,63,-78,-43,39,24,39,43
58,92,34,-75,12,63,-78,-48,39,24,39,43
58,87,29,-73,14,58,-78,-43,39,19,29,39
58,87,29,-73,14,58,-82,-48,34,19,29,39
58,82,24,-70,17,53,-82,-53,34,19,24,34
58,78,19,-68,19,48,-82,-58,24,9,24,34
58,68,9,-63,24,39,-82,-53,9,0,19,24
53,63,9,-58,21,36,-82,-53,9,0,19,24
53,63,9,-58,21,36,-78,-58,9,0,19,24
53,63,9,-58,21,36,-78,-58,9,0,19,24
53,73,19,-63,17,46,-78,-58,9,9,29,34
53,73,19,-63,17,46,-78,-63,9,9,29,34
53,73,19,-63,17,46,-73,-63,9,9,29,34
53,78,24,-65,14,51,-73,-63,9,9,29,34
48,87,39,-68,4,63,-78,-63,19,19,39,48
48,92,43,-70,2,68,-78,-63,19,19,39,48
43,92,48,-68,-2,70,-68,-63,29,19,39,53
43,92,48,-68,-2,70,-63,-63,29,24,48,53
48,92,43,-70,2,68,-58,-48,34,24,48,58
48,97,48,-73,0,73,-53,-48,34,29,48,58
39,97,58,-68,-9,78,-48,-48,34,29,53,58
34,97,63,-65,-14,80,-48,-48,39,29,53,58
34,92,58,-63,-12,75,-43,-48,39,29,53,48
29,87,58,-58,-14,73,-39,-43,39,29,53,48
29,82,53,-56,-12,68,-34,-43,34,29,48,39
24,78,53,-51,-14,65,-29,-43,34,24,39,39
24,63,39,-43,-7,51,-19,-43,29,24,34,34
24,58,34,-41,-4,46,-19,-39,29,14,34,29
24,53,29,-39,-2,41,-19,-39,24,9,29,24
24,43,19,-34,2,31,-19,-39,19,9,29,19
9,39,29,-24,-9,34,-14,-39,14,4,14,14
9,34,24,-21,-7,29,-14,-39,14,0,9,9
9,24,14,-17,-2,19,-9,-34,14,-4,4,4
9,19,9,-14,0,14,-9,-34,4,-9,0,0
9,9,0,-9,4,4,-9,-34,4,-14,-4,-4
9,4,-4,-7,7,0,-4,-34,4,-19,-4,-9
4,0,-4,-2,4,-2,-4,-34,0,-24,-9,-14
4,-4,-9,0,7,-7,0,-29,0,-24,-14,-19
4,-19,-24,7,14,-21,0,-29,0,-24,-19,-9
0,-24,-24,12,12,-24,0,-29,0,-24,-19,-9
0,-29,-29,14,14,-29,0,-29,-4,-24,-19,-9
0,-29,-29,14,14,-29,0,-29,-4,-24,-19,-9
9,-29,-39,9,24,-34,0,-24,-19,-29,-19,-19
9,-29,-39,9,24,-34,4,-24,-19,-29,-19,-19
4,-29,-34,12,19,-31,4,-24,-19,-29,-19,-19
4,-29,-34,12,19,-31,4,-24,-19,-29,-19,-24
9,-24,-34,7,21,-29,4,-19,-19,-29,-19,-14
9,-24,-34,7,21,-29,4,-14,-19,-29,-19,-14
9,-24,-34,7,21,-29,4,-14,-19,-29,-19,-14
9,-19,-29,4,19,-24,4,-4,-19,-29,-19,-14
9,-19,-29,4,19,-24,0,0,-19,-29,-19,-14
9,-19,-29,4,19,-24,0,4,-19,-29,-19,-14
9,-19,-29,4,19,-24,0,9,-19,-29,-19,-14
9,-19,-29,4,19,-24,0,9,-19,-29,-19,-14
9,-24,-34,7,21,-29,9,24,-14,-29,-24,-24
4,-39,-43,17,24,-41,14,29,-14,-29,-29,-24
0,-43,-43,21,21,-43,29,58,-9,-29,-29,-39
-4,-48,-43,26,19,-46,39,97,0,-29,-29,-43
-19,-48,-29,34,4,-39,63,156,24,-19,-34,-53
-48,-43,4,46,-26,-19,92,204,48,4,-34,-63
-68,-24,43,46,-56,9,117,268,87,34,-14,-53
-68,14,82,26,-75,48,136,366,126,63,9,-43
-39,48,87,-4,-63,68,161,502,161,82,24,-39
-14,87,102,-36,-58,95,175,619,200,107,43,-24
4,136,131,-70,-63,134,190,712,239,146,68,4
48,200,151,-124,-51,175,180,805,278,175,102,29
122,297,175,-209,-26,236,156,917,317,229,151,82
209,409,200,-309,4,305,126,980,366,278,219,151
302,531,229,-417,36,380,73,1034,409,331,278,224
429,658,229,-544,100,444,0,1058,429,375,346,312
556,785,229,-671,163,507,-112,1005,439,419,414,409
663,941,278,-802,192,610,-219,878,458,488,512,507
771,1156,385,-963,192,771,-346,663,502,575,649,678
873,1381,507,-1127,183,944,-492,370,556,692,790,844
990,1620,629,-1305,180,1124,-678,48,585,775,927,1015
1117,1844,727,-1481,195,1285,-883,-283,610,854,1058,1171
1205,2030,824,-1617,190,1427,-1068,-697,619,927,1176,1327
1185,2137,951,-1661,117,1544,-1176,-1224,629,961,1249,1439
1044,2161,1117,-1603,-36,1639,-1205,-1810,649,985,1283,1488
800,2127,1327,-1464,-263,1727,-1156,-2420,683,1005,1302,1507
502,1956,1454,-1229,-475,1705,-1034,-2976,639,956,1244,1459
229,1605,1376,-917,-573,1490,-858,-3386,468,785,1054,1288
14,1185,1171,-600,-578,1178,-663,-3620,253,541,805,1054
-117,790,907,-336,-512,849,-492,-3733,24,297,561,824
-214,409,624,-97,-419,517,-346,-3752,-200,68,326,585
-283,53,336,114,-309,195,-234,-3723,-380,-146,122,375
-341,-244,97,292,-219,-73,-165,-3645,-531,-322,-58,190
-370,-527,-156,448,-107,-341,-117,-3513,-697,-483,-234,19
-400,-810,-409,605,4,-610,-87,-3313,-844,-649,-390,-141
-473,-1015,-541,744,34,-778,-87,-3084,-951,-746,-512,-268
-610,-1093,-483,851,-63,-788,-39,-2879,-941,-732,-512,-268
-790,-1039,-248,915,-270,-644,68,-2659,-819,-634,-419,-190
-888,-936,-48,912,-419,-492,122,-2396,-683,-507,-312,-107
-863,-814,48,839,-456,-383,82,-2049,-580,-424,-239,-53
-746,-702,43,724,-395,-329,19,-1688,-502,-366,-195,-19
-605,-580,24,592,-314,-278,-43,-1371,-434,-312,-161,-14
-453,-444,9,448,-231,-217,-112,-1068,-341,-248,-122,4
-312,-322,-9,317,-151,-165,-161,-761,-273,-185,-97,4
-224,-244,-19,234,-102,-131,-151,-522,-234,-156,-82,-4
-195,-195,0,195,-97,-97,-112,-356,-175,-117,-73,-4
-185,-165,19,175,-102,-73,-82,-244,-141,-92,-58,-14
-175,-146,29,161,-102,-58,-58,-146,-107,-68,-48,-14
-165,-141,24,153,-95,-58,-29,-68,-73,-68,-43,-14
-136,-131,4,134,-70,-63,-24,0,-63,-53,-43,-34
-112,-122,-9,117,-51,-65,-9,63,-58,-58,-48,-39
-92,-122,-29,107,-31,-75,0,112,-58,-58,-53,-53
-82,-122,-39,102,-21,-80,14,146,-68,-58,-68,-68
-78,-131,-53,104,-12,-92,19,175,-73,-58,-68,-78
-78,-141,-63,109,-7,-102,14,204,-73,-58,-78,-78
-73,-141,-68,107,-2,-104,14,204,-68,-63,-78,-78
-73,-136,-63,104,-4,-100,14,209,-58,-63,-78,-78
-73,-131,-58,102,-7,-95,14,209,-58,-63,-78,-78
-63,-141,-78,102,7,-109,24,209,-58,-63,-78,-87
-58,-141,-82,100,12,-112,24,209,-58,-63,-78,-87
-53,-131,-78,92,12,-104,24,214,-68,-63,-82,-97
-53,-141,-87,97,17,-114,29,219,-68,-63,-82,-97
-53,-141,-87,97,17,-114,19,224,-68,-63,-82,-97
-53,-146,-92,100,19,-119,19,224,-68,-63,-82,-97
-53,-146,-92,100,19,-119,19,224,-58,-63,-82,-97
-58,-141,-82,100,12,-112,19,224,-58,-63,-78,-97
-48,-131,-82,90,17,-107,24,219,-58,-63,-78,-87
-48,-131,-82,90,17,-107,24,219,-58,-68,-78,-87
-43,-131,-87,87,21,-109,24,219,-58,-68,-78,-87
-43,-131,-87,87,21,-109,19,219,-58,-78,-87,-92
-53,-126,-73,90,9,-100,29,219,-63,-78,-78,-92
-53,-131,-78,92,12,-104,29,219,-63,-78,-78,-87
-53,-131,-78,92,12,-104,29,209,-63,-78,-78,-87
-53,-131,-78,92,12,-104,29,204,-53,-63,-73,-87
-53,-126,-73,90,9,-100,19,200,-43,-63,-73,-87
-48,-126,-78,87,14,-102,19,200,-48,-68,-73,-87
-48,-126,-78,87,14,-102,19,200,-53,-68,-73,-87
-48,-126,-78,87,14,-102,24,200,-58,-78,-82,-92
-48,-136,-87,92,19,-112,34,190,-58,-78,-92,-92
-53,-136,-82,95,14,-109,34,190,-58,-78,-92,-92
-58,-141,-82,100,12,-112,34,190,-58,-78,-92,-92
-58,-141,-82,100,12,-112,34,185,-53,-73,-87,-87
-58,-136,-78,97,9,-107,39,185,-63,-73,-87,-97
-58,-136,-78,97,9,-107,39,175,-63,-73,-92,-97
-53,-136,-82,95,14,-109,39,175,-63,-73,-92,-97
-53,-136,-82,95,14,-109,39,180,-73,-82,-97,-102
-53,-151,-97,102,21,-124,39,180,-73,-92,-97,-107
-53,-156,-102,104,24,-129,39,175,-68,-92,-97,-107
-63,-156,-92,109,14,-124,39,175,-68,-92,-97,-107
-63,-156,-92,109,14,-124,39,170,-63,-92,-97,-107
-58,-151,-92,104,17,-122,29,165,-53,-92,-92,-107
-58,-151,-92,104,17,-122,29,161,-58,-92,-92,-107
-58,-151,-92,104,17,-122,29,156,-58,-92,-92,-107
-58,-151,-92,104,17,-122,29,156,-58,-102,-92,-107
-58,-151,-92,104,17,-122,29,156,-63,-102,-102,-112
-58,-156,-97,107,19,-126,29,156,-63,-107,-102,-112
-58,-161,-102,109,21,-131,29,156,-63,-107,-102,-112
-58,-161,-102,109,21,-131,29,146,-63,-102,-102,-112
-63,-161,-97,112,17,-129,29,141,-58,-102,-102,-112
-63,-156,-92,109,14,-124,34,136,-58,-102,-102,-112
-58,-156,-97,107,19,-126,34,126,-58,-107,-102,-112
-58,-151,-92,104,17,-122,34,122,-68,-107,-102,-112
-68,-161,-92,114,12,-126,34,122,-68,-107,-107,-117
-68,-165,-97,117,14,-131,34,117,-68,-107,-107,-117
-73,-165,-92,119,9,-129,34,112,-68,-107,-107,-117
-78,-170,-92,124,7,-131,34,107,-68,-107,-107,-117
-78,-170,-92,124,7,-131,43,92,-68,-107,-107,-117
-78,-165,-87,122,4,-126,43,87,-68,-102,-107,-117
-73,-165,-92,119,9,-129,43,78,-68,-102,-107,-117
-73,-165,-92,119,9,-129,43,78,-68,-102,-107,-117
-73,-165,-92,119,9,-129,48,73,-82,-112,-107,-117
-73,-175,-102,124,14,-139,48,73,-82,-112,-112,-122
-73,-175,-102,124,14,-139,48,73,-82,-112,-112,-122
-82,-180,-97,131,7,-139,48,63,-82,-112,-112,-126
-82,-180,-97,131,7,-139,39,63,-73,-112,-112,-126
-82,-175,-92,129,4,-134,39,58,-73,-107,-112,-122
-78,-170,-92,124,7,-131,39,53,-73,-107,-112,-122
-78,-170,-92,124,7,-131,39,53,-73,-107,-117,-126
-68,-161,-92,114,12,-126,39,53,-73,-107,-117,-126
-68,-170,-102,119,17,-136,39,53,-78,-112,-117,-131
-68,-170,-102,119,17,-136,39,53,-78,-112,-117,-131
-68,-170,-102,119,17,-136,43,53,-78,-112,-117,-131
-68,-180,-112,124,21,-146,43,53,-87,-102,-117,-122
-78,-180,-102,129,12,-141,43,48,-78,-102,-117,-122
-78,-180,-102,129,12,-141,43,48,-78,-97,-117,-122
-73,-180,-107,126,17,-143,43,48,-82,-97,-117,-122
-82,-170,-87,126,2,-129,53,48,-82,-97,-117,-131
-82,-170,-87,126,2,-129,53,53,-87,-102,-122,-136
-82,-180,-97,131,7,-139,53,53,-87,-102,-122,-136
-82,-180,-97,131,7,-139,58,58,-87,-102,-122,-136
-82,-185,-102,134,9,-143,48,48,-82,-102,-122,-136
-87,-185,-97,136,4,-141,48,48,-78,-92,-122,-136
-87,-185,-97,136,4,-141,48,39,-78,-92,-122,-131
-87,-180,-92,134,2,-136,48,39,-78,-97,-122,-131
-73,-180,-107,126,17,-143,48,53,-78,-107,-122,-131
-73,-180,-107,126,17,-143,48,58,-78,-107,-122,-131
-73,-185,-112,129,19,-148,48,63,-78,-107,-122,-131
-73,-185,-112,129,19,-148,53,68,-78,-107,-122,-131
-73,-195,-122,134,24,-158,63,78,-82,-107,-122,-131
-78,-195,-117,136,19,-156,63,78,-82,-107,-122,-131
-78,-185,-107,131,14,-146,63,82,-78,-102,-122,-131
-78,-185,-107,131,14,-146,63,87,-78,-102,-117,-131
-73,-185,-112,129,19,-148,63,78,-78,-102,-107,-131
-73,-185,-112,129,19,-148,63,87,-78,-102,-107,-131
-73,-185,-112,129,19,-148,63,92,-78,-102,-112,-131
-73,-185,-112,129,19,-148,63,97,-78,-102,-112,-131
-82,-185,-102,134,9,-143,63,112,-68,-102,-112,-122
-87,-190,-102,139,7,-146,63,112,-68,-102,-112,-122
-87,-190,-102,139,7,-146,63,112,-58,-97,-112,-122
-87,-180,-92,134,2,-136,63,112,-58,-97,-107,-117
-73,-170,-97,122,12,-134,53,112,-68,-97,-107,-126
-73,-170,-97,122,12,-134,53,122,-63,-92,-107,-126
-73,-165,-92,119,9,-129,53,126,-63,-92,-107,-126
-73,-165,-92,119,9,-129,58,131,-63,-92,-107,-131
-78,-175,-97,126,9,-136,68,151,-58,-92,-117,-122
-78,-180,-102,129,12,-141,68,156,-58,-92,-112,-122
-78,-180,-102,129,12,-141,68,156,-48,-92,-112,-117
-78,-180,-102,129,12,-141,68,156,-48,-87,-112,-117
-73,-180,-107,126,17,-143,58,161,-48,-87,-112,-117
-73,-170,-97,122,12,-134,58,161,-48,-87,-112,-117
-73,-170,-97,122,12,-134,58,165,-48,-87,-112,-117
-73,-175,-102,124,14,-139,63,175,-48,-87,-112,-117
-73,-165,-92,119,9,-129,63,185,-43,-87,-102,-117
-73,-165,-92,119,9,-129,63,190,-43,-87,-102,-117
-73,-165,-92,119,9,-129,63,195,-34,-82,-102,-117
-73,-156,-82,114,4,-119,63,200,-34,-82,-97,-117
-73,-156,-82,114,4,-119,68,190,-34,-82,-97,-117
-73,-156,-82,114,4,-119,68,195,-34,-82,-97,-117
-73,-151,-78,112,2,-114,68,209,-34,-78,-97,-117
-73,-151,-78,112,2,-114,68,214,-34,-78,-97,-117
-73,-161,-87,117,7,-124,68,219,-34,-78,-107,-126
-82,-161,-78,122,-2,-119,73,224,-34,-78,-102,-126
-82,-161,-78,122,-2,-119,73,224,-24,-73,-102,-126
-82,-156,-73,119,-4,-114,73,234,-19,-68,-102,-126
-82,-156,-73,119,-4,-114,78,234,-24,-68,-102,-122
-78,-151,-73,114,-2,-112,78,234,-24,-68,-102,-122
-78,-151,-73,114,-2,-112,78,244,-24,-68,-102,-122
-78,-151,-73,114,-2,-112,78,248,-24,-68,-102,-126
-68,-156,-87,112,9,-122,78,258,-24,-68,-102,-126
-78,-156,-78,117,0,-117,87,273,-14,-63,-102,-126
-78,-156,-78,117,0,-117,87,273,-9,-53,-102,-126
-78,-151,-73,114,-2,-112,87,278,-4,-48,-92,-126
-68,-136,-68,102,0,-102,87,283,9,-43,-92,-117
-68,-131,-63,100,-2,-97,87,287,14,-43,-92,-117
-68,-131,-63,100,-2,-97,87,292,19,-43,-87,-112
-68,-131,-63,100,-2,-97,92,302,19,-43,-87,-112
-68,-122,-53,95,-7,-87,92,317,24,-34,-78,-112
-73,-122,-48,97,-12,-85,97,326,24,-34,-78,-112
-73,-122,-48,97,-12,-85,102,346,34,-29,-73,-112
-78,-122,-43,100,-17,-82,102,361,39,-14,-73,-112
-87,-122,-34,104,-26,-78,112,375,43,-19,-68,-107
-87,-117,-29,102,-29,-73,117,385,43,-14,-68,-107
-87,-112,-24,100,-31,-68,117,385,48,-14,-63,-107
-87,-112,-24,100,-31,-68,117,395,48,-14,-63,-107
-87,-102,-14,95,-36,-58,122,409,39,-4,-63,-117
-92,-102,-9,97,-41,-56,122,419,48,4,-63,-117
-92,-97,-4,95,-43,-51,122,434,53,9,-63,-117
-92,-97,-4,95,-43,-51,126,444,58,9,-58,-112
-92,-97,-4,95,-43,-51,126,453,68,14,-53,-107
-92,-87,4,90,-48,-41,131,468,73,19,-53,-107
-92,-82,9,87,-51,-36,131,473,78,24,-53,-102
-92,-73,19,82,-56,-26,131,488,82,24,-58,-102
-97,-78,19,87,-58,-29,126,497,73,14,-58,-102
-97,-78,19,87,-58,-29,126,512,78,19,-58,-102
-97,-73,24,85,-61,-24,126,527,87,29,-48,-92
-97,-68,29,82,-63,-19,126,536,92,29,-43,-87
-87,-68,19,78,-53,-24,126,536,97,34,-39,-87
-87,-58,29,73,-58,-14,126,536,102,39,-39,-82
-78,-43,34,61,-56,-4,126,536,102,43,-34,-78
-78,-34,43,56,-61,4,126,551,107,43,-34,-73
-78,-34,43,56,-61,4,126,561,107,43,-34,-78
-73,-29,43,51,-58,7,122,561,107,53,-24,-73
-73,-24,48,48,-61,12,122,566,112,53,-19,-68
-73,-19,53,46,-63,17,122,570,112,58,-14,-63
-82,-19,63,51,-73,21,122,585,122,63,-9,-58
-78,-4,73,41,-75,34,112,585,126,68,-4,-53
-73,0,73,36,-73,36,107,585,126,68,4,-48
-63,9,73,26,-68,41,102,580,126,68,9,-43
-58,29,87,14,-73,58,97,590,136,68,9,-39
-53,29,82,12,-68,56,97,600,131,73,9,-34
-53,34,87,9,-70,61,97,600,131,82,19,-24
-53,43,97,4,-75,70,87,595,136,87,24,-19
-43,58,102,-7,-73,80,92,595,141,97,39,-4
-39,68,107,-14,-73,87,87,585,141,97,43,0
-34,73,107,-19,-70,90,82,570,141,97,43,9
-29,78,107,-24,-68,92,78,561,136,97,43,14
-14,87,102,-36,-58,95,73,556,141,87,48,14
-9,87,97,-39,-53,92,73,546,131,87,48,14
-4,87,92,-41,-48,90,68,536,131,87,48,24
0,87,87,-43,-43,87,63,527,126,82,48,29
0,87,87,-43,-43,87,58,502,126,92,63,34
0,92,92,-46,-46,92,53,488,126,92,63,34
9,92,82,-51,-36,87,53,473,122,87,63,39
14,92,78,-53,-31,85,48,458,117,82,63,39
9,97,87,-53,-39,92,43,444,112,78,53,39
19,97,78,-58,-29,87,39,429,107,73,53,39
24,87,63,-56,-19,75,34,414,97,68,53,39
29,78,48,-53,-9,63,29,400,87,63,53,39
19,82,63,-51,-21,73,34,375,92,68,48,43
19,82,63,-51,-21,73,34,356,87,68,48,43
19,82,63,-51,-21,73,29,336,82,63,48,43
29,78,48,-53,-9,63,24,317,82,58,48,43
34,68,34,-51,0,51,14,302,68,53,39,48
39,63,24,-51,7,43,14,283,58,48,39,48
39,58,19,-48,9,39,14,273,48,43,34,43
39,53,14,-46,12,34,9,263,43,39,34,43
29,48,19,-39,4,34,19,239,39,24,34,43
29,43,14,-36,7,29,14,229,39,24,29,43
29,43,14,-36,7,29,14,219,39,24,29,43
29,43,14,-36,7,29,4,204,34,24,29,43
34,53,19,-43,7,36,4,190,29,19,29,43
34,48,14,-41,9,31,4,185,24,14,29,34
39,43,4,-41,17,24,4,180,14,9,24,34
39,39,0,-39,19,19,4,175,9,4,19,34
39,34,-4,-36,21,14,4,161,19,9,19,34
39,34,-4,-36,21,14,0,156,19,9,19,34
39,29,-9,-34,24,9,0,151,19,9,19,34
39,29,-9,-34,24,9,0,146,19,9,19,34
39,19,-19,-29,29,0,0,151,19,0,19,34
39,19,-19,-29,29,0,0,151,9,0,19,29
39,19,-19,-29,29,0,0,151,4,0,19,29
43,9,-34,-26,39,-12,-4,151,4,0,14,24
43,9,-34,-26,39,-12,-4,151,4,9,14,24
43,4,-39,-24,41,-17,-9,151,4,4,14,24
48,4,-43,-26,46,-19,-14,151,4,0,4,24
48,4,-43,-26,46,-19,-14,151,0,-4,4,24
48,4,-43,-26,46,-19,-19,141,-9,-14,4,14
48,4,-43,-26,46,-19,-19,146,-14,-14,4,14
48,9,-39,-29,43,-14,-19,146,-14,-14,9,14
48,9,-39,-29,43,-14,-24,146,-14,-14,9,14
48,9,-39,-29,43,-14,-24,146,-9,-14,9,14
48,9,-39,-29,43,-14,-24,146,-9,-14,9,14
48,9,-39,-29,43,-14,-24,146,-9,-9,9,14
48,9,-39,-29,43,-14,-24,146,-14,-9,9,14
48,9,-39,-29,43,-14,-14,161,-14,-19,0,14
48,9,-39,-29,43,-14,-19,161,-9,-19,0,14
48,9,-39,-29,43,-14,-19,161,-9,-19,0,14
48,9,-39,-29,43,-14,-24,165,-9,-19,0,14
48,9,-39,-29,43,-14,-14,165,-9,-19,9,14
48,9,-39,-29,43,-14,-14,170,-9,-19,9,14
48,9,-39,-29,43,-14,-14,170,-9,-19,9,14
48,9,-39,-29,43,-14,-14,180,-9,-19,9,14
48,9,-39,-29,43,-14,-24,175,-9,-19,9,24
48,9,-39,-29,43,-14,-24,175,-9,-14,9,24
48,14,-34,-31,41,-9,-24,175,-4,-14,14,24
48,14,-34,-31,41,-9,-24,175,-4,-14,14,24
53,14,-39,-34,46,-12,-24,165,4,-4,14,14
53,14,-39,-34,46,-12,-29,170,4,-4,14,19
53,14,-39,-34,46,-12,-29,170,4,-4,14,19
53,19,-34,-36,43,-7,-24,175,4,-4,14,19
43,19,-24,-31,34,-2,-24,180,9,-4,19,29
43,19,-24,-31,34,-2,-24,180,9,0,19,29
43,19,-24,-31,34,-2,-24,180,9,0,19,29
43,19,-24,-31,34,-2,-29,180,9,0,19,29
43,19,-24,-31,34,-2,-29,185,9,0,19,19
43,24,-19,-34,31,2,-29,185,9,0,19,19
43,24,-19,-34,31,2,-29,185,9,0,19,24
43,24,-19,-34,31,2,-29,185,9,0,24,24
43,24,-19,-34,31,2,-19,185,9,4,24,34
43,24,-19,-34,31,2,-19,190,9,4,24,34
43,24,-19,-34,31,2,-29,190,9,4,24,24
53,29,-24,-41,39,2,-24,180,9,4,24,24
48,19,-29,-34,39,-4,-29,175,9,0,19,29
48,19,-29,-34,39,-4,-29,165,9,0,19,19
48,19,-29,-34,39,-4,-29,165,9,0,19,19
48,19,-29,-34,39,-4,-29,165,9,0,19,19
48,19,-29,-34,39,-4,-29,165,9,0,19,19
43,19,-24,-31,34,-2,-24,156,4,-4,19,14
43,19,-24,-31,34,-2,-24,161,4,-4,14,14
48,19,-29,-34,39,-4,-24,161,0,-4,14,14
48,14,-34,-31,41,-9,-29,165,-4,0,9,19
43,4,-39,-24,41,-17,-19,161,-4,-4,4,4
48,-4,-53,-21,51,-29,-24,156,-9,-9,0,0
43,-14,-58,-14,51,-36,-24,151,-14,-14,-4,-4
39,-19,-58,-9,48,-39,-24,151,-19,-19,-9,-4
34,-29,-63,-2,48,-46,-19,146,-24,-34,-24,-19
34,-39,-73,2,53,-56,-14,141,-29,-34,-29,-24
34,-48,-82,7,58,-65,-9,136,-34,-39,-34,-29
34,-58,-92,12,63,-75,-9,126,-39,-43,-39,-34
43,-63,-107,9,75,-85,-4,117,-43,-53,-48,-39
39,-68,-107,14,73,-87,-4,107,-48,-53,-48,-43
39,-73,-112,17,75,-92,-4,97,-53,-53,-48,-48
39,-78,-117,19,78,-97,-4,87,-58,-53,-48,-53
34,-87,-122,26,78,-104,-4,82,-58,-53,-48,-53
34,-87,-122,26,78,-104,-4,73,-58,-53,-48,-53
34,-87,-122,26,78,-104,-4,63,-63,-53,-48,-53
34,-87,-122,26,78,-104,-4,58,-63,-53,-48,-53
29,-87,-117,29,73,-102,-4,39,-53,-53,-48,-53
19,-92,-112,36,65,-102,0,34,-58,-53,-48,-53
14,-87,-102,36,58,-95,4,24,-58,-53,-48,-53
9,-87,-97,39,53,-92,9,14,-58,-58,-48,-58
4,-87,-92,41,48,-90,9,-4,-58,-53,-39,-48
0,-92,-92,46,46,-92,14,-14,-53,-48,-43,-53
-4,-97,-92,51,43,-95,19,-24,-58,-53,-43,-53
-9,-97,-87,53,39,-92,24,-34,-58,-48,-48,-53
-24,-102,-78,63,26,-90,24,-39,-58,-48,-48,-53
-24,-102,-78,63,26,-90,29,-48,-58,-48,-48,-53
-24,-102,-78,63,26,-90,29,-53,-58,-48,-48,-53
-24,-102,-78,63,26,-90,29,-58,-58,-48,-48,-53
-24,-102,-78,63,26,-90,19,-78,-58,-48,-48,-43
-24,-102,-78,63,26,-90,24,-82,-58,-48,-48,-43
-24,-97,-73,61,24,-85,24,-87,-58,-48,-48,-43
-29,-97,-68,63,19,-82,29,-92,-58,-48,-48,-39
-24,-82,-58,53,17,-70,24,-107,-48,-39,-39,-39
-24,-82,-58,53,17,-70,29,-112,-39,-39,-39,-34
-19,-82,-63,51,21,-73,29,-117,-39,-34,-29,-34
-19,-82,-63,51,21,-73,29,-117,-34,-34,-29,-29
-4,-63,-58,34,26,-61,29,-126,-24,-19,-19,-19
-9,-58,-48,34,19,-53,29,-126,-24,-19,-14,-19
-9,-53,-43,31,17,-48,24,-126,-19,-19,-14,-19
-4,-53,-48,29,21,-51,24,-126,-19,-19,-14,-19
-4,-48,-43,26,19,-46,24,-131,-9,-4,0,-4
0,-43,-43,21,21,-43,24,-131,-14,0,0,-9
0,-39,-39,19,19,-39,24,-131,-14,0,-4,-4
4,-34,-39,14,21,-36,19,-131,-19,4,-4,-4
4,-24,-29,9,17,-26,19,-131,-9,4,4,-4
4,-24,-29,9,17,-26,19,-136,-14,0,0,-4
4,-29,-34,12,19,-31,19,-141,-19,0,0,-4
0,-29,-29,14,14,-29,24,-146,-24,-4,-4,-4
0,-24,-24,12,12,-24,24,-156,-14,-4,-9,-4
0,-34,-34,17,17,-34,29,-151,-14,-4,-14,-4
0,-39,-39,19,19,-39,29,-151,-24,-4,-19,-4
0,-48,-48,24,24,-48,29,-151,-24,-4,-24,-4
0,-39,-39,19,19,-39,34,-161,-14,0,-19,0
-4,-39,-34,21,14,-36,34,-161,-19,-4,-19,-4
-4,-39,-34,21,14,-36,39,-156,-19,-4,-19,-9
-4,-39,-34,21,14,-36,39,-156,-19,-4,-19,-9
-19,-34,-14,26,-2,-24,43,-156,-14,4,-9,0
-19,-39,-19,29,0,-29,48,-156,-14,4,-9,0
-19,-39,-19,29,0,-29,53,-156,-9,4,-9,0
-19,-39,-19,29,0,-29,58,-151,-9,0,-9,0
-9,-29,-19,19,4,-24,63,-156,0,9,0,0
-14,-29,-14,21,0,-21,63,-161,0,9,0,0
-14,-29,-14,21,0,-21,63,-165,0,9,0,-4
-9,-24,-14,17,2,-19,63,-165,0,9,0,-4
-9,-24,-14,17,2,-19,53,-165,0,9,0,4
-9,-24,-14,17,2,-19,53,-170,0,9,0,4
-9,-19,-9,14,0,-14,53,-165,0,9,0,4
-9,-19,-9,14,0,-14,48,-165,0,9,0,4
-9,-14,-4,12,-2,-9,34,-165,9,19,0,4
-9,-9,0,9,-4,-4,29,-165,9,19,0,4
-9,-4,4,7,-7,0,24,-170,9,19,0,4
-9,-4,4,7,-7,0,29,-170,14,19,-4,4
4,0,-4,-2,4,-2,14,-156,14,19,-9,-14
9,-4,-14,-2,12,-9,9,-126,9,19,-9,-9
4,-9,-14,2,9,-12,29,-87,19,29,-9,-24
-19,-9,9,14,-14,0,43,-39,43,29,-14,-34
-39,-4,34,21,-36,14,73,0,78,53,-14,-34
-48,34,82,7,-65,58,87,63,117,82,14,-24
-48,63,112,-7,-80,87,97,151,156,112,39,-14
-29,97,126,-34,-78,112,112,287,190,141,53,0
4,146,141,-75,-68,143,126,395,229,165,73,14
24,204,180,-114,-78,192,131,468,258,204,107,43
68,268,200,-168,-65,234,122,561,297,244,141,78
141,356,214,-248,-36,285,87,663,336,287,190,141
229,478,248,-353,-9,363,48,707,385,346,268,209
312,610,297,-461,7,453,-14,732,429,409,336,292
439,746,307,-592,65,527,-97,746,448,453,414,390
566,873,307,-719,129,590,-219,683,448,497,483,478
683,1029,346,-856,168,688,-326,536,468,546,570,595
761,1224,463,-993,148,844,-453,312,512,644,697,746
854,1449,595,-1151,129,1022,-590,0,546,741,849,912
951,1659,707,-1305,122,1183,-766,-331,585,834,976,1073
1068,1873,805,-1471,131,1339,-961,-663,590,893,1088,1220
1146,2030,883,-1588,131,1456,-1137,-1078,590,956,1185,1366
1117,2117,1000,-1617,58,1559,-1244,-1586,590,971,1249,1449
966,2122,1156,-1544,-95,1639,-1263,-2161,590,985,1263,1478
722,2069,1346,-1395,-312,1708,-1195,-2752,624,995,1263,1488
414,1878,1464,-1146,-524,1671,-1073,-3298,590,946,1195,1420
131,1517,1385,-824,-627,1451,-878,-3689,419,756,995,1239
-82,1078,1161,-497,-622,1119,-673,-3913,195,512,736,976
-224,653,878,-214,-551,766,-492,-3996,-43,258,483,727
-322,263,585,29,-453,424,-336,-3996,-258,29,248,497
-390,-92,297,241,-344,102,-214,-3957,-448,-185,34,278
-439,-370,68,405,-253,-151,-136,-3850,-590,-361,-146,92
-439,-644,-204,541,-117,-424,-87,-3699,-746,-522,-312,-78
-448,-907,-458,678,4,-683,-78,-3469,-893,-678,-478,-239
-492,-1102,-610,797,58,-856,-78,-3240,-990,-775,-580,-346
-610,-1151,-541,880,-34,-846,-39,-3006,-971,-761,-580,-346
-761,-1098,-336,929,-212,-717,58,-2786,-849,-653,-478,-268
-849,-976,-126,912,-361,-551,122,-2522,-712,-536,-361,-175
-814,-844,-29,829,-392,-436,82,-2176,-600,-444,-278,-112
-697,-712,-14,705,-341,-363,19,-1825,-512,-375,-224,-68
-556,-570,-14,563,-270,-292,-53,-1517,-434,-312,-180,-43
-385,-424,-39,405,-173,-231,-122,-1215,-341,-248,-141,-24
-244,-292,-48,268,-97,-170,-170,-927,-273,-195,-107,-24
-156,-224,-68,190,-43,-146,-170,-697,-224,-156,-92,-24
-126,-175,-48,151,-39,-112,-131,-551,-165,-117,-73,-24
-136,-136,0,136,-68,-68,-92,-458,-122,-82,-58,-24
-136,-126,9,131,-73,-58,-58,-380,-87,-68,-48,-24
-136,-122,14,129,-75,-53,-39,-331,-53,-48,-34,-24
-136,-112,24,124,-80,-43,-14,-273,-43,-53,-43,-34
-112,-112,0,112,-56,-56,0,-219,-39,-48,-48,-48
-92,-102,-9,97,-41,-56,9,-170,-39,-48,-53,-53
-82,-112,-29,97,-26,-70,14,-136,-48,-48,-68,-68
-78,-122,-43,100,-17,-82,19,-117,-53,-48,-68,-78
-78,-122,-43,100,-17,-82,14,-107,-53,-48,-58,-78
-73,-122,-48,97,-12,-85,14,-107,-48,-53,-58,-78
-73,-117,-43,95,-14,-80,14,-102,-39,-53,-58,-78
-73,-112,-39,92,-17,-75,14,-102,-39,-53,-58,-78
-53,-102,-48,78,-2,-75,14,-102,-39,-43,-58,-68
-48,-102,-53,75,2,-78,14,-102,-39,-43,-58,-68
-43,-92,-48,68,2,-70,14,-97,-48,-43,-63,-78
-43,-102,-58,73,7,-80,19,-92,-48,-43,-63,-78
-53,-102,-48,78,-2,-75,19,-97,-39,-43,-63,-78
-53,-107,-53,80,0,-80,19,-97,-39,-43,-63,-78
-53,-107,-53,80,0,-80,19,-97,-29,-43,-63,-78
-58,-102,-43,80,-7,-73,19,-97,-29,-43,-58,-78
-48,-102,-53,75,2,-78,14,-92,-39,-43,-58,-78
-48,-102,-53,75,2,-78,14,-92,-39,-48,-58,-78
-43,-102,-58,73,7,-80,14,-92,-39,-48,-58,-78
-43,-102,-58,73,7,-80,9,-92,-39,-58,-68,-82
-53,-107,-53,80,0,-80,19,-82,-43,-58,-78,-82
-53,-112,-58,82,2,-85,19,-82,-43,-58,-78,-78
-53,-112,-58,82,2,-85,19,-92,-43,-58,-78,-78
-53,-112,-58,82,2,-85,19,-97,-34,-43,-73,-78
-43,-97,-53,70,4,-75,9,-102,-34,-53,-73,-87
-39,-97,-58,68,9,-78,9,-102,-39,-58,-73,-87
-39,-97,-58,68,9,-78,9,-102,-43,-58,-73,-87
-39,-97,-58,68,9,-78,14,-102,-48,-68,-82,-92
-39,-107,-68,73,14,-87,14,-92,-48,-68,-73,-82
-43,-107,-63,75,9,-85,14,-92,-48,-68,-73,-82
-48,-112,-63,80,7,-87,14,-92,-48,-68,-73,-82
-48,-112,-63,80,7,-87,14,-97,-43,-63,-68,-78
-39,-97,-58,68,9,-78,9,-87,-43,-63,-68,-78
-39,-97,-58,68,9,-78,9,-97,-43,-63,-73,-78
-34,-97,-63,65,14,-80,9,-97,-43,-63,-73,-78
-34,-97,-63,65,14,-80,9,-92,-53,-73,-78,-82
-43,-112,-68,78,12,-90,19,-87,-53,-63,-78,-78
-43,-117,-73,80,14,-95,19,-87,-48,-63,-78,-78
-53,-117,-63,85,4,-90,19,-82,-48,-63,-78,-78
-53,-117,-63,85,4,-90,19,-82,-43,-63,-78,-78
-58,-112,-53,85,-2,-82,19,-78,-34,-63,-63,-78
-58,-112,-53,85,-2,-82,19,-82,-39,-63,-63,-78
-58,-112,-53,85,-2,-82,19,-87,-39,-63,-63,-78
-58,-112,-53,85,-2,-82,19,-87,-39,-73,-63,-78
-58,-112,-53,85,-2,-82,19,-82,-43,-63,-73,-82
-58,-117,-58,87,0,-87,19,-78,-43,-68,-73,-82
-58,-122,-63,90,2,-92,19,-73,-43,-68,-73,-82
-58,-122,-63,90,2,-92,19,-78,-43,-63,-73,-82
-53,-122,-68,87,7,-95,19,-78,-39,-73,-73,-82
-53,-117,-63,85,4,-90,24,-78,-39,-73,-73,-82
-48,-117,-68,82,9,-92,24,-82,-39,-78,-73,-82
-48,-112,-63,80,7,-87,24,-82,-48,-78,-73,-82
-48,-122,-73,85,12,-97,24,-78,-58,-78,-78,-87
-48,-126,-78,87,14,-102,24,-78,-58,-78,-78,-87
-53,-126,-73,90,9,-100,24,-78,-58,-78,-78,-87
-58,-131,-73,95,7,-102,24,-78,-58,-78,-78,-87
-58,-131,-73,95,7,-102,24,-73,-48,-78,-78,-87
-58,-126,-68,92,4,-97,24,-78,-48,-73,-78,-87
-53,-126,-73,90,9,-100,24,-87,-48,-73,-78,-87
-53,-126,-73,90,9,-100,24,-87,-48,-73,-78,-87
-53,-136,-82,95,14,-109,39,-78,-53,-82,-78,-87
-53,-146,-92,100,19,-119,39,-73,-53,-82,-82,-92
-53,-146,-92,100,19,-119,39,-68,-53,-82,-82,-92
-63,-151,-87,107,12,-119,39,-73,-53,-82,-82,-97
-73,-151,-78,112,2,-114,39,-73,-43,-73,-82,-97
-73,-146,-73,109,0,-109,39,-78,-43,-68,-82,-92
-68,-141,-73,104,2,-107,39,-82,-43,-68,-82,-92
-68,-141,-73,104,2,-107,39,-82,-43,-68,-87,-97
-68,-141,-73,104,2,-107,39,-73,-53,-78,-87,-97
-68,-151,-82,109,7,-117,39,-73,-58,-82,-87,-102
-68,-151,-82,109,7,-117,39,-73,-58,-82,-87,-102
-68,-151,-82,109,7,-117,43,-73,-58,-82,-87,-102
-68,-141,-73,104,2,-107,34,-82,-58,-73,-87,-92
-78,-141,-63,109,-7,-102,34,-87,-48,-73,-87,-92
-78,-141,-63,109,-7,-102,34,-87,-48,-68,-87,-92
-73,-141,-68,107,-2,-104,34,-87,-53,-68,-87,-92
-63,-141,-78,102,7,-109,34,-78,-53,-68,-87,-92
-63,-141,-78,102,7,-109,34,-73,-58,-73,-92,-97
-63,-151,-87,107,12,-119,34,-73,-58,-73,-92,-97
-63,-151,-87,107,12,-119,39,-68,-58,-73,-92,-97
-63,-146,-82,104,9,-114,29,-58,-43,-63,-82,-97
-68,-146,-78,107,4,-112,29,-58,-39,-53,-82,-97
-68,-146,-78,107,4,-112,29,-68,-39,-53,-82,-92
-68,-141,-73,104,2,-107,29,-68,-39,-58,-82,-92
-53,-141,-87,97,17,-114,39,-63,-39,-68,-82,-102
-53,-141,-87,97,17,-114,39,-58,-39,-68,-82,-102
-53,-146,-92,100,19,-119,39,-53,-39,-68,-82,-102
-53,-146,-92,100,19,-119,43,-48,-39,-68,-82,-102
-63,-156,-92,109,14,-124,43,-48,-34,-58,-82,-102
-68,-156,-87,112,9,-122,43,-48,-34,-58,-82,-102
-68,-146,-78,107,4,-112,43,-43,-29,-53,-82,-102
-68,-146,-78,107,4,-112,43,-39,-29,-53,-78,-102
-63,-146,-82,104,9,-114,43,-39,-39,-63,-78,-92
-63,-146,-82,104,9,-114,43,-29,-39,-63,-78,-92
-63,-146,-82,104,9,-114,43,-24,-39,-63,-82,-92
-63,-146,-82,104,9,-114,43,-19,-39,-63,-82,-92
-63,-146,-82,104,9,-114,43,-4,-39,-63,-82,-92
-68,-151,-82,109,7,-117,43,-4,-39,-63,-82,-92
-68,-151,-82,109,7,-117,43,-4,-29,-58,-82,-92
-68,-141,-73,104,2,-107,43,-4,-29,-58,-78,-87
-53,-141,-87,97,17,-114,43,4,-29,-68,-87,-97
-53,-141,-87,97,17,-114,43,14,-24,-63,-87,-97
-53,-136,-82,95,14,-109,43,19,-24,-63,-87,-97
-53,-136,-82,95,14,-109,48,24,-24,-63,-87,-102
-68,-136,-68,102,0,-102,48,34,-29,-63,-87,-102
-68,-141,-73,104,2,-107,48,39,-29,-63,-82,-102
-68,-141,-73,104,2,-107,48,39,-19,-63,-82,-97
-68,-141,-73,104,2,-107,48,39,-19,-58,-82,-97
-63,-141,-78,102,7,-109,48,43,-19,-58,-82,-107
-63,-131,-68,97,2,-100,48,43,-19,-58,-82,-107
-63,-131,-68,97,2,-100,48,48,-19,-58,-82,-107
-63,-136,-73,100,4,-104,53,58,-19,-58,-82,-107
-73,-136,-63,104,-4,-100,53,68,-14,-58,-82,-107
-73,-136,-63,104,-4,-100,53,73,-14,-58,-82,-107
-73,-136,-63,104,-4,-100,53,78,-4,-53,-82,-107
-73,-126,-53,100,-9,-90,53,82,-4,-53,-78,-107
-63,-126,-63,95,0,-95,58,73,-14,-63,-87,-107
-63,-126,-63,95,0,-95,58,78,-14,-63,-87,-107
-63,-122,-58,92,-2,-90,58,92,-14,-58,-87,-107
-63,-122,-58,92,-2,-90,58,97,-14,-58,-87,-107
-63,-122,-58,92,-2,-90,58,92,-4,-58,-78,-107
-73,-122,-48,97,-12,-85,63,97,-4,-58,-73,-107
-73,-122,-48,97,-12,-85,63,97,4,-53,-73,-107
-73,-117,-43,95,-14,-80,63,107,9,-48,-73,-107
-73,-117,-43,95,-14,-80,68,117,14,-48,-82,-102
-68,-112,-43,90,-12,-78,68,117,14,-48,-82,-102
-68,-112,-43,90,-12,-78,68,126,14,-48,-82,-102
-68,-112,-43,90,-12,-78,68,131,14,-48,-82,-107
-78,-117,-39,97,-19,-78,68,141,4,-48,-82,-107
-87,-117,-29,102,-29,-73,78,156,14,-43,-82,-107
-87,-117,-29,102,-29,-73,78,156,19,-34,-82,-107
-87,-112,-24,100,-31,-68,78,161,24,-29,-73,-107
-87,-107,-19,97,-34,-63,87,156,39,-24,-63,-107
-87,-102,-14,95,-36,-58,87,161,43,-24,-63,-107
-87,-102,-14,95,-36,-58,87,165,48,-24,-58,-102
-87,-102,-14,95,-36,-58,92,175,48,-24,-58,-102
-97,-92,4,95,-51,-43,92,190,53,-24,-58,-102
-102,-92,9,97,-56,-41,97,200,53,-24,-58,-102
-102,-92,9,97,-56,-41,102,219,63,-19,-53,-102
-107,-92,14,100,-61,-39,102,234,68,-4,-53,-102
-97,-73,24,85,-61,-24,112,239,73,0,-48,-87
-97,-68,29,82,-63,-19,117,248,73,4,-48,-87
-97,-63,34,80,-65,-14,117,248,78,4,-43,-87
-97,-63,34,80,-65,-14,117,258,78,4,-43,-87
-107,-63,43,85,-75,-9,122,263,78,4,-53,-87
-112,-63,48,87,-80,-7,122,273,87,14,-53,-87
-112,-58,53,85,-82,-2,122,287,92,19,-53,-87
-112,-58,53,85,-82,-2,126,297,97,19,-48,-82
-122,-58,63,90,-92,2,126,297,107,34,-48,-87
-122,-48,73,85,-97,12,131,312,112,39,-43,-87
-122,-43,78,82,-100,17,131,317,117,43,-39,-82
-122,-34,87,78,-104,26,131,331,122,43,-39,-82
-117,-39,78,78,-97,19,136,336,112,34,-39,-82
-117,-39,78,78,-97,19,136,346,117,39,-39,-82
-117,-34,82,75,-100,24,136,356,126,48,-29,-73
-117,-29,87,73,-102,29,136,361,131,48,-24,-68
-117,-19,97,68,-107,39,136,370,136,63,-9,-68
-117,-9,107,63,-112,48,136,370,141,68,-9,-63
-107,4,112,51,-109,58,136,370,141,73,-4,-58
-107,14,122,46,-114,68,136,385,146,73,-4,-53
-107,14,122,46,-114,68,126,395,146,73,4,-48
-102,19,122,41,-112,70,122,395,146,82,14,-43
-102,24,126,39,-114,75,122,400,151,82,19,-39
-102,29,131,36,-117,80,122,405,151,87,24,-34
-102,39,141,31,-122,90,131,409,151,92,29,-29
-97,53,151,21,-124,102,122,409,156,97,34,-24
-92,58,151,17,-122,104,117,409,156,97,43,-19
-82,68,151,7,-117,109,112,405,156,97,48,-14
-78,68,146,4,-112,107,107,405,156,87,39,-9
-73,68,141,2,-107,104,107,414,151,92,39,-4
-73,73,146,0,-109,109,107,414,151,102,48,4
-73,82,156,-4,-114,119,97,409,156,107,53,9
-63,78,141,-7,-102,109,82,400,151,107,58,4
-58,87,146,-14,-102,117,78,390,151,107,63,9
-53,92,146,-19,-100,119,73,375,151,107,63,19
-48,97,146,-24,-97,122,68,366,146,107,63,24
-43,102,146,-29,-95,124,63,361,141,102,58,14
-39,97,136,-29,-87,117,63,351,131,97,58,14
-34,92,126,-29,-80,109,58,341,131,92,58,24
-29,87,117,-29,-73,102,53,331,126,82,58,29
-29,87,117,-29,-73,102,48,326,117,82,63,34
-29,92,122,-31,-75,107,43,312,117,82,63,34
-19,92,112,-36,-65,102,43,297,112,78,63,39
-14,92,107,-39,-61,100,39,283,107,73,63,39
-9,87,97,-39,-53,92,43,278,102,68,58,39
0,87,87,-43,-43,87,39,263,97,63,53,39
4,78,73,-41,-34,75,34,248,87,58,48,39
9,68,58,-39,-24,63,29,234,78,53,43,39
9,73,63,-41,-26,68,34,229,73,48,39,43
9,73,63,-41,-26,68,34,209,68,48,39,43
9,73,63,-41,-26,68,29,190,63,43,39,43
19,68,48,-43,-14,58,24,170,63,39,39,43
14,68,53,-41,-19,61,24,161,58,24,39,39
19,63,43,-41,-12,53,24,146,48,19,39,39
19,58,39,-39,-9,48,24,141,39,14,34,34
19,53,34,-36,-7,43,19,136,34,9,34,34
29,39,9,-34,9,24,19,126,29,14,24,24
29,34,4,-31,12,19,14,122,29,14,19,24
29,34,4,-31,12,19,14,117,29,14,19,24
29,34,4,-31,12,19,4,107,24,14,19,24
24,24,0,-24,12,12,14,97,19,0,19,24
24,19,-4,-21,14,7,14,97,14,-4,19,14
29,14,-14,-21,21,0,14,97,4,-9,14,14
29,9,-19,-19,24,-4,14,97,0,-14,9,14
39,4,-34,-21,36,-14,14,92,0,-19,9,14
39,4,-34,-21,36,-14,9,87,0,-19,9,14
39,0,-39,-19,39,-19,9,82,0,-19,9,14
39,0,-39,-19,39,-19,9,78,0,-19,9,14
39,9,-29,-24,34,-9,9,82,9,-19,9,14
39,9,-29,-24,34,-9,9,82,0,-19,9,9
39,9,-29,-24,34,-9,9,82,-4,-19,9,9
43,0,-43,-21,43,-21,4,82,-4,-19,4,4
34,0,-34,-17,34,-17,4,82,-4,-19,14,14
34,-4,-39,-14,36,-21,0,82,-4,-24,14,14
39,-4,-43,-17,41,-24,-4,82,-4,-29,4,14
39,-4,-43,-17,41,-24,-4,82,-9,-34,4,14
48,-4,-53,-21,51,-29,0,82,-9,-34,-4,14
48,-4,-53,-21,51,-29,0,87,-14,-34,-4,14
48,0,-48,-24,48,-24,0,87,-14,-34,0,14
48,0,-48,-24,48,-24,-4,87,-14,-34,0,14
48,0,-48,-24,48,-24,-14,92,0,-34,9,14
48,0,-48,-24,48,-24,-14,97,0,-34,9,14
48,0,-48,-24,48,-24,-14,102,0,-29,9,14
48,0,-48,-24,48,-24,-14,107,-4,-29,9,14
48,0,-48,-24,48,-24,-14,122,-4,-19,9,14
48,0,-48,-24,48,-24,-19,122,0,-19,9,14
48,0,-48,-24,48,-24,-19,122,0,-19,9,14
48,0,-48,-24,48,-24,-24,126,0,-19,9,14
48,9,-39,-29,43,-14,-24,126,0,-19,9,14
48,9,-39,-29,43,-14,-24,131,0,-19,9,14
48,9,-39,-29,43,-14,-24,131,0,-19,9,14
48,9,-39,-29,43,-14,-24,141,0,-19,9,14
48,9,-39,-29,43,-14,-24,146,0,-19,9,14
48,9,-39,-29,43,-14,-24,146,0,-14,9,14
48,14,-34,-31,41,-9,-24,146,4,-14,14,14
48,14,-34,-31,41,-9,-24,146,4,-14,14,14
43,14,-29,-29,36,-7,-24,156,4,-14,14,14
43,14,-29,-29,36,-7,-29,161,4,-14,14,19
43,14,-29,-29,36,-7,-29,161,4,-14,14,19
43,19,-24,-31,34,-2,-24,165,4,-14,14,19
43,9,-34,-26,39,-12,-24,170,0,-14,9,19
43,9,-34,-26,39,-12,-24,170,0,-9,9,19
43,9,-34,-26,39,-12,-24,170,0,-9,9,19
43,9,-34,-26,39,-12,-29,170,0,-9,9,19
43,9,-34,-26,39,-12,-29,175,0,0,9,19
43,14,-29,-29,36,-7,-29,175,0,0,9,19
43,14,-29,-29,36,-7,-29,175,0,0,9,24
43,14,-29,-29,36,-7,-29,175,0,0,14,24
43,14,-29,-29,36,-7,-29,165,0,4,14,24
43,14,-29,-29,36,-7,-29,170,0,4,14,24
43,14,-29,-29,36,-7,-29,170,0,4,14,24
43,19,-24,-31,34,-2,-34,170,0,4,14,24
43,19,-24,-31,34,-2,-34,161,4,-4,14,24
43,19,-24,-31,34,-2,-34,161,4,-4,14,24
43,19,-24,-31,34,-2,-34,156,4,-4,14,24
43,19,-24,-31,34,-2,-34,156,4,0,14,24
34,19,-14,-26,24,2,-24,156,-4,0,14,19
34,19,-14,-26,24,2,-24,156,-4,0,14,19
34,19,-14,-26,24,2,-24,151,-4,0,14,19
34,19,-14,-26,24,2,-24,151,-4,0,14,19
34,9,-24,-21,29,-7,-24,141,-4,0,14,19
34,9,-24,-21,29,-7,-24,141,-4,0,14,19
34,14,-19,-24,26,-2,-24,141,-4,0,14,19
34,14,-19,-24,26,-2,-24,136,-4,0,14,19
34,14,-19,-24,26,-2,-34,136,-4,4,14,19
34,14,-19,-24,26,-2,-34,136,-4,4,9,19
34,14,-19,-24,26,-2,-29,136,-4,4,9,19
34,14,-19,-24,26,-2,-29,126,-4,4,9,19
34,14,-19,-24,26,-2,-19,126,-4,0,9,14
29,14,-14,-21,21,0,-19,122,-4,0,9,14
29,14,-14,-21,21,0,-19,117,0,0,9,14
29,14,-14,-21,21,0,-19,117,0,0,9,14
29,14,-14,-21,21,0,-19,122,0,0,9,14
29,14,-14,-21,21,0,-19,117,0,0,9,14
29,9,-19,-19,24,-4,-19,112,0,0,9,14
29,9,-19,-19,24,-4,-19,112,0,-4,9,14
29,9,-19,-19,24,-4,-19,107,0,-4,9,14
29,9,-19,-19,24,-4,-19,102,0,-4,9,14
24,9,-14,-17,19,-2,-19,97,0,-4,9,14
24,9,-14,-17,19,-2,-19,92,0,-4,9,9
24,9,-14,-17,19,-2,-19,97,0,-4,9,0
24,9,-14,-17,19,-2,-19,92,0,-4,9,4
24,9,-14,-17,19,-2,-19,92,0,-9,9,4
24,9,-14,-17,19,-2,-19,87,0,-9,9,4
24,9,-14,-17,19,-2,-19,87,-4,-4,9,14
24,4,-19,-14,21,-7,-14,82,-4,-4,9,14
24,4,-19,-14,21,-7,-14,82,-4,-4,9,14
24,4,-19,-14,21,-7,-14,78,-4,-4,9,14
24,14,-9,-19,17,2,-14,73,-4,-4,9,14
19,14,-4,-17,12,4,-14,68,-4,-9,9,14
19,14,-4,-17,12,4,-14,63,-4,-9,9,9
19,14,-4,-17,12,4,-14,63,-4,-9,9,9
29,9,-19,-19,24,-4,-24,63,-14,-9,0,9
29,9,-19,-19,24,-4,-24,58,-14,-9,0,9
29,9,-19,-19,24,-4,-24,58,-14,-9,0,9
29,9,-19,-19,24,-4,-24,58,-14,-9,0,9
29,0,-29,-14,29,-14,-19,48,-14,-19,0,0
29,0,-29,-14,29,-14,-19,48,-14,-19,0,-4
29,0,-29,-14,29,-14,-19,48,-14,-19,0,-4
29,0,-29,-14,29,-14,-24,48,-14,-19,0,-4
19,0,-19,-9,19,-9,-24,39,-9,-19,0,-4
19,0,-19,-9,19,-9,-24,39,-9,-19,0,-4
19,0,-19,-9,19,-9,-19,34,-9,-19,0,-4
19,0,-19,-9,19,-9,-19,34,-9,-19,0,-4
19,0,-19,-9,19,-9,-9,34,-9,-19,0,-4
19,0,-19,-9,19,-9,-9,29,-9,-19,0,-4
19,-4,-24,-7,21,-14,-9,29,-9,-19,0,-9
19,-9,-29,-4,24,-19,-9,29,-9,-19,0,-14
19,0,-19,-9,19,-9,-9,29,-9,-29,-4,-14
19,0,-19,-9,19,-9,-9,29,-14,-29,-4,-9
19,0,-19,-9,19,-9,-9,24,-14,-29,-4,-4
19,0,-19,-9,19,-9,-9,24,-14,-29,-4,0
19,4,-14,-12,17,-4,-19,14,-14,-29,-4,0
19,4,-14,-12,17,-4,-14,14,-14,-29,-4,0
14,0,-14,-7,14,-7,-14,14,-14,-29,-4,0
14,0,-14,-7,14,-7,-14,14,-14,-29,-4,0
24,0,-24,-12,24,-12,-14,14,-14,-24,-4,0
24,-4,-29,-9,26,-17,-14,14,-14,-24,-4,0
24,-4,-29,-9,26,-17,-14,14,-14,-24,-4,0
24,-4,-29,-9,26,-17,-14,9,-14,-24,-4,0
24,-4,-29,-9,26,-17,-14,9,-14,-24,-4,0
24,-4,-29,-9,26,-17,-14,9,-14,-24,-4,-4
24,-4,-29,-9,26,-17,-14,9,-14,-24,-4,-4
24,-4,-29,-9,26,-17,-14,9,-14,-24,-4,-4
24,-14,-39,-4,31,-26,-14,19,-14,-24,-14,-4
24,-14,-39,-4,31,-26,-14,19,-14,-24,-14,-4
24,-14,-39,-4,31,-26,-14,19,-14,-24,-14,-4
24,-14,-39,-4,31,-26,-14,19,-14,-24,-14,-4
14,-14,-29,0,21,-21,-14,19,-14,-14,-4,-9
14,-14,-29,0,21,-21,-14,19,-14,-14,-4,-9
14,-9,-24,-2,19,-17,-14,19,-14,-14,-4,-14
14,-9,-24,-2,19,-17,-9,19,-14,-14,-4,-14
14,-14,-29,0,21,-21,-9,19,-14,-14,-4,-9
14,-14,-29,0,21,-21,-14,24,-14,-14,-4,-9
14,-14,-29,0,21,-21,-14,19,-19,-19,-4,-9
14,-14,-29,0,21,-21,-4,19,-19,-9,-4,-9
19,-9,-29,-4,24,-19,0,19,-19,-9,0,-9
19,-9,-29,-4,24,-19,-9,19,-19,-9,0,-9
19,-9,-29,-4,24,-19,-9,19,-19,-9,0,-9
19,-9,-29,-4,24,-19,-9,19,-19,-9,0,-9
19,-9,-29,-4,24,-19,-9,19,-19,-9,0,-9
19,-9,-29,-4,24,-19,-9,19,-19,-9,-9,-9
19,-9,-29,-4,24,-19,-9,19,-19,-9,-9,-9
19,-9,-29,-4,24,-19,-9,19,-19,-9,-9,-9
19,-9,-29,-4,24,-19,-9,19,-19,-9,-9,-9
19,-9,-29,-4,24,-19,0,19,-19,-9,-9,-9
19,-9,-29,-4,24,-19,0,19,-19,-9,-9,-9
19,-9,-29,-4,24,-19,0,19,-19,-9,-9,-9
19,-9,-29,-4,24,-19,0,19,-19,-9,-9,-9
19,-19,-39,0,29,-29,0,19,-19,-9,-9,-9
19,-19,-39,0,29,-29,0,19,-19,-9,-9,-9
19,-19,-39,0,29,-29,0,19,-19,-9,-9,-9
19,-19,-39,0,29,-29,0,19,-19,-9,-9,-9
19,-9,-29,-4,24,-19,0,19,-19,-19,-9,0
19,-9,-29,-4,24,-19,0,19,-19,-19,-9,0
19,-9,-29,-4,24,-19,0,19,-19,-19,-9,0
19,-9,-29,-4,24,-19,0,19,-19,-19,-9,0
19,-9,-29,-4,24,-19,-9,19,-19,-19,-9,0
19,-9,-29,-4,24,-19,-9,19,-19,-19,-9,0
19,-9,-29,-4,24,-19,-9,19,-19,-19,-9,0
19,-9,-29,-4,24,-19,-9,19,-19,-19,-9,0
19,-9,-29,-4,24,-19,-9,19,-19,-19,-9,0
19,-9,-29,-4,24,-19,-9,19,-19,-19,-9,0
19,-9,-29,-4,24,-19,-9,19,-19,-19,-9,0
19,-9,-29,-4,24,-19,-9,19,-19,-19,-9,0
19,-19,-39,0,29,-29,-19,29,-19,-19,-19,-9
19,-19,-39,0,29,-29,-19,29,-19,-19,-19,-9
19,-19,-39,0,29,-29,-19,29,-19,-19,-19,-9
19,-19,-39,0,29,-29,-19,29,-19,-19,-19,-9
19,-19,-39,0,29,-29,-19,29,-19,-9,-9,-9
19,-19,-39,0,29,-29,-19,29,-19,-9,-9,-9
19,-19,-39,0,29,-29,-19,29,-19,-9,-9,-9
19,-19,-39,0,29,-29,-19,29,-19,-9,-9,-9
19,-9,-29,-4,24,-19,-19,29,-19,-9,0,-9
19,-9,-29,-4,24,-19,-19,29,-19,-9,0,-9
19,-9,-29,-4,24,-19,-19,29,-19,-9,0,-9
19,-9,-29,-4,24,-19,-19,29,-19,-9,0,-9
9,-9,-19,0,14,-14,-19,19,-19,-9,0,0
9,-9,-19,0,14,-14,-19,19,-19,-9,0,0
9,-9,-19,0,14,-14,-19,19,-19,-9,0,0
9,-9,-19,0,14,-14,-19,19,-19,-9,0,0
9,-19,-29,4,19,-24,-19,19,-19,-19,0,0
9,-19,-29,4,19,-24,-19,19,-19,-19,0,0
9,-19,-29,4,19,-24,-19,19,-19,-19,0,0
9,-19,-29,4,19,-24,-19,19,-19,-19,0,0
19,-19,-39,0,29,-29,-19,19,-19,-19,0,-9
19,-19,-39,0,29,-29,-19,19,-19,-19,0,-9
19,-19,-39,0,29,-29,-19,19,-19,-19,0,-9
19,-19,-39,0,29,-29,-19,19,-19,-19,0,-9
19,-9,-29,-4,24,-19,-9,19,-19,-19,0,0
19,-9,-29,-4,24,-19,-9,19,-19,-19,0,0
19,-9,-29,-4,24,-19,-9,19,-19,-19,0,0
19,-9,-29,-4,24,-19,-9,19,-19,-19,0,0
19,-9,-29,-4,24,-19,-9,19,-19,-19,0,0
19,-9,-29,-4,24,-19,-9,19,-19,-19,0,0
19,-9,-29,-4,24,-19,-9,19,-19,-19,0,0
19,-9,-29,-4,24,-19,-9,19,-19,-19,0,0
19,-9,-29,-4,24,-19,-9,19,-19,-19,0,-9
19,-9,-29,-4,24,-19,-9,19,-19,-19,0,-9
19,-9,-29,-4,24,-19,-9,19,-19,-19,0,-9
19,-9,-29,-4,24,-19,-9,19,-19,-19,0,-9
19,-9,-29,-4,24,-19,-9,9,-9,-19,0,-9
19,-9,-29,-4,24,-19,-9,9,-9,-19,0,-9
19,-9,-29,-4,24,-19,-9,9,-9,-19,0,-9
19,-9,-29,-4,24,-19,-9,9,-9,-19,0,-9
19,-9,-29,-4,24,-19,-9,9,0,-19,0,-9
19,-9,-29,-4,24,-19,-9,9,0,-19,0,-9
19,-9,-29,-4,24,-19,-9,9,0,-19,0,-9
19,-9,-29,-4,24,-19,-9,9,0,-19,0,-9
9,0,-9,-4,9,-4,-19,9,0,-19,0,-9
9,0,-9,-4,9,-4,-19,9,0,-19,0,-9
9,0,-9,-4,9,-4,-19,9,0,-19,0,-9
9,0,-9,-4,9,-4,-19,9,0,-19,0,-9
9,0,-9,-4,9,-4,-9,0,0,-9,0,0
9,0,-9,-4,9,-4,-9,0,0,-9,0,0
9,0,-9,-4,9,-4,-9,0,0,-9,0,0
9,0,-9,-4,9,-4,-9,0,0,-9,0,0
19,0,-19,-9,19,-9,-9,0,0,-9,0,0
19,0,-19,-9,19,-9,-9,0,0,-9,0,0
19,0,-19,-9,19,-9,-9,0,0,-9,0,0
19,0,-19,-9,19,-9,-9,0,0,-9,0,0
9,0,-9,-4,9,-4,-9,-9,0,0,0,0
9,0,-9,-4,9,-4,-9,-9,0,0,0,0
9,0,-9,-4,9,-4,-9,-9,0,0,0,0
9,0,-9,-4,9,-4,-9,-9,0,0,0,0
19,0,-19,-9,19,-9,-9,-9,0,0,0,0
19,0,-19,-9,19,-9,-9,-9,0,0,0,0
19,0,-19,-9,19,-9,-9,-9,0,0,0,0
19,0,-19,-9,19,-9,-9,-9,0,0,0,0
19,0,-19,-9,19,-9,-9,-19,0,0,0,0
19,0,-19,-9,19,-9,-9,-19,0,0,0,0
19,0,-19,-9,19,-9,-9,-19,0,0,0,0
19,0,-19,-9,19,-9,-9,-19,0,0,0,0
19,-9,-29,-4,24,-19,-9,-19,0,0,9,0
19,-9,-29,-4,24,-19,-9,-19,0,0,9,0
19,-9,-29,-4,24,-19,-9,-19,0,0,9,0
19,-9,-29,-4,24,-19,-9,-19,0,0,9,0
19,-9,-29,-4,24,-19,-9,-19,0,0,9,0
19,-9,-29,-4,24,-19,-9,-19,0,0,9,0
19,-9,-29,-4,24,-19,-9,-19,0,0,9,0
19,-9,-29,-4,24,-19,-9,-19,0,0,9,0
19,0,-19,-9,19,-9,-19,-19,0,0,9,0
19,0,-19,-9,19,-9,-19,-19,0,0,9,0
19,0,-19,-9,19,-9,-19,-19,0,0,9,0
19,0,-19,-9,19,-9,-19,-19,0,0,9,0
19,0,-19,-9,19,-9,-19,-29,0,0,9,0
19,0,-19,-9,19,-9,-19,-29,0,0,9,0
19,0,-19,-9,19,-9,-19,-29,0,0,9,0
19,0,-19,-9,19,-9,-19,-29,0,0,9,0
19,0,-19,-9,19,-9,-19,-29,0,0,9,0
19,0,-19,-9,19,-9,-19,-29,0,0,9,0
19,0,-19,-9,19,-9,-19,-29,0,0,9,0
19,0,-19,-9,19,-9,-19,-29,0,0,9,0
19,9,-9,-14,14,0,-19,-19,0,0,9,0
19,9,-9,-14,14,0,-19,-19,0,0,9,0
19,9,-9,-14,14,0,-19,-19,0,0,9,0
19,9,-9,-14,14,0,-19,-19,0,0,9,0
19,0,-19,-9,19,-9,-9,-9,0,0,9,0
19,0,-19,-9,19,-9,-9,-9,0,0,9,0
19,0,-19,-9,19,-9,-9,-9,0,0,9,0
19,0,-19,-9,19,-9,-9,-9,0,0,9,0
19,0,-19,-9,19,-9,0,0,0,0,0,0
19,0,-19,-9,19,-9,0,0,0,0,0,0
19,0,-19,-9,19,-9,0,0,0,0,0,0
19,0,-19,-9,19,-9,0,0,0,0,0,0
19,0,-19,-9,19,-9,-9,9,0,-9,0,0
19,0,-19,-9,19,-9,-9,9,0,-9,0,0
19,0,-19,-9,19,-9,-9,9,0,-9,0,0
19,0,-19,-9,19,-9,-9,9,0,-9,0,0
19,0,-19,-9,19,-9,-9,19,0,-9,0,0
19,0,-19,-9,19,-9,-9,19,0,-9,0,0
19,0,-19,-9,19,-9,-9,19,0,-9,0,0
19,0,-19,-9,19,-9,-9,19,0,-9,0,0
19,0,-19,-9,19,-9,-19,29,0,-9,0,0
19,0,-19,-9,19,-9,-19,29,0,-9,0,0
19,0,-19,-9,19,-9,-19,29,0,-9,0,0
19,0,-19,-9,19,-9,-19,29,0,-9,0,0
19,9,-9,-14,14,0,-9,39,9,-9,9,0
19,9,-9,-14,14,0,-9,39,9,-9,9,0
19,9,-9,-14,14,0,-9,39,9,-9,9,0
19,9,-9,-14,14,0,-9,39,9,-9,9,0
29,19,-9,-24,19,4,0,39,9,0,19,9
29,19,-9,-24,19,4,0,39,9,0,19,9
29,19,-9,-24,19,4,0,39,9,0,19,9
29,19,-9,-24,19,4,0,39,9,0,19,9
39,24,-14,-31,26,4,9,48,19,9,29,19
39,29,-9,-34,24,9,9,48,19,9,29,19
39,34,-4,-36,21,14,9,48,19,9,29,19
39,39,0,-39,19,19,9,48,19,9,29,19
39,48,9,-43,14,29,9,48,24,19,29,29
43,53,9,-48,17,31,14,48,29,24,34,34
43,58,14,-51,14,36,14,53,39,24,34,34
48,63,14,-56,17,39,14,53,43,24,39,34
48,73,24,-61,12,48,19,58,43,39,48,39
48,73,24,-61,12,48,14,58,48,39,48,39
58,73,14,-65,21,43,4,58,48,39,48,39
58,73,14,-65,21,43,0,58,48,39,48,39
58,87,29,-73,14,58,4,73,58,39,48,43
63,87,24,-75,19,56,0,73,58,39,48,43
63,87,24,-75,19,56,-4,73,58,43,48,43
63,87,24,-75,19,56,-9,73,58,43,48,43
73,87,14,-80,29,51,-19,73,48,43,48,43
73,87,14,-80,29,51,-19,73,48,43,48,43
68,87,19,-78,24,53,-24,73,48,43,48,43
68,87,19,-78,24,53,-29,73,48,43,48,43
68,87,19,-78,24,53,-34,78,48,43,39,43
63,87,24,-75,19,56,-39,78,48,43,39,43
63,87,24,-75,19,56,-43,73,48,43,39,43
63,87,24,-75,19,56,-48,68,43,43,39,43
63,87,24,-75,19,56,-63,68,43,43,39,43
63,82,19,-73,21,51,-68,63,43,43,39,43
58,73,14,-65,21,43,-68,63,39,43,39,43
58,73,14,-65,21,43,-68,58,39,43,39,43
58,78,19,-68,19,48,-78,63,39,39,39,39
58,78,19,-68,19,48,-82,58,34,39,39,39
58,73,14,-65,21,43,-82,53,34,39,34,34
58,68,9,-63,24,39,-82,48,24,29,34,34
58,68,9,-63,24,39,-82,43,29,29,29,34
53,63,9,-58,21,36,-82,43,29,29,29,34
53,63,9,-58,21,36,-78,39,29,29,29,34
53,63,9,-58,21,36,-78,39,29,29,29,34
63,53,-9,-58,36,21,-78,29,19,29,29,34
63,53,-9,-58,36,21,-78,24,19,29,29,34
63,53,-9,-58,36,21,-73,24,19,29,29,34
63,58,-4,-61,34,26,-73,24,19,29,29,34
58,58,0,-58,29,29,-78,14,19,29,29,29
58,63,4,-61,26,34,-78,14,19,29,29,29
53,63,9,-58,21,36,-68,14,29,29,29,34
53,63,9,-58,21,36,-63,14,29,34,39,34
48,73,24,-61,12,48,-58,9,24,34,29,39
48,78,29,-63,9,53,-53,9,24,39,29,39
39,78,39,-58,0,58,-48,9,24,39,34,39
34,78,43,-56,-4,61,-48,9,29,39,34,39
34,73,39,-53,-2,56,-43,9,39,39,43,48
29,68,39,-48,-4,53,-39,14,39,39,43,48
29,63,34,-46,-2,48,-34,14,34,39,39,39
24,58,34,-41,-4,46,-29,14,34,34,29,39
14,63,48,-39,-17,56,-19,4,39,34,34,43
14,58,43,-36,-14,51,-19,9,39,24,34,39
14,53,39,-34,-12,46,-19,9,34,19,29,34
14,43,29,-29,-7,36,-19,9,29,19,29,29
9,39,29,-24,-9,34,-24,9,24,14,24,24
9,34,24,-21,-7,29,-24,9,24,9,19,19
9,24,14,-17,-2,19,-19,14,24,4,14,14
9,19,9,-14,0,14,-19,14,14,0,9,9
9,19,9,-14,0,14,-19,14,14,-4,4,-4
9,14,4,-12,2,9,-14,14,14,-9,4,-9
4,9,4,-7,0,7,-14,14,9,-14,0,-14
4,4,0,-4,2,2,-9,19,9,-14,-4,-19
14,0,-14,-7,14,-7,0,9,0,-24,-19,-29
9,-4,-14,-2,12,-9,0,9,0,-24,-19,-29
9,-9,-19,0,14,-14,0,9,-4,-24,-19,-29
9,-9,-19,0,14,-14,0,9,-4,-24,-19,-29
9,-19,-29,4,19,-24,-9,14,-19,-29,-29,-39
9,-19,-29,4,19,-24,-4,14,-19,-29,-29,-39
4,-19,-24,7,14,-21,-4,14,-19,-29,-29,-39
4,-19,-24,7,14,-21,-4,14,-19,-29,-29,-43
9,-24,-34,7,21,-29,-4,19,-9,-29,-29,-34
9,-24,-34,7,21,-29,-4,24,-9,-29,-29,-34
9,-24,-34,7,21,-29,-4,24,-9,-29,-29,-34
9,-19,-29,4,19,-24,-4,34,-9,-29,-29,-34
9,-9,-19,0,14,-14,0,29,0,-19,-19,-24
9,-9,-19,0,14,-14,0,34,0,-19,-19,-24
9,-9,-19,0,14,-14,0,39,0,-19,-19,-24
9,-9,-19,0,14,-14,0,39,0,-19,-19,-24
9,-14,-24,2,17,-19,0,53,-4,-19,-24,-34
4,-19,-24,7,14,-21,4,68,-14,-19,-29,-34
0,-34,-34,17,17,-34,19,87,0,-19,-29,-48
-14,-39,-24,26,4,-31,39,126,9,-19,-29,-53
-19,-39,-19,29,0,-29,63,165,24,-9,-34,-63
-48,-34,14,41,-31,-9,92,214,58,4,-34,-63
-68,-14,53,41,-61,19,117,278,97,34,-14,-63
-78,24,102,26,-90,63,146,375,136,63,9,-53
-58,58,117,0,-87,87,161,512,170,92,24,-48
-34,97,131,-31,-82,114,175,629,209,117,43,-43
-14,146,161,-65,-87,153,190,712,248,146,68,-14
29,209,180,-119,-75,195,190,814,287,185,102,19
102,297,195,-200,-46,246,165,917,326,239,151,73
170,419,248,-295,-39,334,126,980,375,287,219,141
273,541,268,-407,2,405,82,1024,409,341,287,214
380,668,287,-524,46,478,0,1049,429,385,356,302
517,795,278,-656,119,536,-112,995,439,429,424,390
634,941,307,-788,163,624,-229,868,458,478,512,497
741,1146,405,-944,168,775,-346,673,492,575,639,649
844,1361,517,-1102,163,939,-492,380,527,673,771,805
971,1581,610,-1276,180,1095,-678,87,546,746,907,966
1117,1786,668,-1451,224,1227,-883,-224,551,805,1010,1122
1215,1961,746,-1588,234,1354,-1078,-629,541,858,1107,1259
1215,2049,834,-1632,190,1442,-1185,-1127,541,883,1171,1342
1093,2064,971,-1578,61,1517,-1215,-1693,541,888,1185,1381
858,2000,1141,-1429,-141,1571,-1166,-2293,556,897,1185,1381
580,1810,1229,-1195,-324,1520,-1044,-2830,512,829,1117,1322
317,1459,1141,-888,-412,1300,-878,-3220,331,639,917,1141
122,1029,907,-575,-392,968,-692,-3455,97,385,658,897
9,614,605,-312,-297,610,-522,-3557,-131,141,414,649
-78,234,312,-78,-195,273,-375,-3606,-346,-107,170,419
-156,-112,43,134,-100,-34,-263,-3586,-536,-302,-34,209
-214,-390,-175,302,-19,-283,-195,-3528,-688,-478,-214,34
-253,-673,-419,463,82,-546,-146,-3396,-834,-629,-370,-136
-283,-936,-653,610,185,-795,-126,-3215,-971,-785,-527,-297
-356,-1132,-775,744,209,-954,-117,-3006,-1068,-873,-629,-395
-502,-1190,-688,846,92,-939,-68,-2810,-1049,-849,-619,-395
-683,-1137,-453,910,-114,-795,39,-2610,-907,-732,-517,-307
-790,-1015,-224,902,-283,-619,92,-2357,-761,-595,-390,-195
-775,-883,-107,829,-334,-495,53,-2020,-639,-492,-307,-131
-688,-751,-63,719,-312,-407,0,-1678,-541,-424,-253,-87
-546,-610,-63,578,-241,-336,-73,-1361,-463,-361,-200,-53
-405,-473,-68,439,-168,-270,-131,-1058,-370,-287,-151,-34
-273,-351,-78,312,-97,-214,-180,-761,-292,-224,-117,-24
-195,-273,-78,234,-58,-175,-170,-522,-244,-185,-102,-34
-165,-224,-58,195,-53,-141,-131,-366,-175,-146,-82,-34
-175,-185,-9,180,-82,-97,-82,-263,-141,-112,-68,-24
-175,-165,9,170,-92,-78,-58,-175,-97,-87,-58,-34
-165,-151,14,158,-90,-68,-39,-107,-73,-78,-43,-34
-146,-141,4,143,-75,-68,-14,-39,-63,-73,-53,-43
-122,-141,-19,131,-51,-80,0,14,-48,-68,-58,-58
-102,-131,-29,117,-36,-80,0,63,-48,-68,-63,-63
-92,-141,-48,117,-21,-95,4,107,-58,-78,-78,-78
-87,-151,-63,119,-12,-107,19,126,-63,-78,-78,-87
-87,-141,-53,114,-17,-97,24,146,-53,-68,-78,-87
-82,-141,-58,112,-12,-100,24,146,-48,-73,-78,-87
-82,-136,-53,109,-14,-95,24,151,-39,-73,-78,-87
-82,-131,-48,107,-17,-90,24,151,-39,-73,-78,-87
-63,-131,-68,97,2,-100,24,151,-48,-73,-78,-87
-58,-131,-73,95,7,-102,24,151,-48,-73,-78,-87
-53,-122,-68,87,7,-95,24,156,-58,-73,-82,-97
-53,-131,-78,92,12,-104,29,161,-58,-73,-82,-97
-63,-131,-68,97,2,-100,29,165,-58,-73,-82,-97
-63,-136,-73,100,4,-104,29,165,-58,-73,-82,-97
-63,-136,-73,100,4,-104,29,165,-48,-73,-82,-97
-68,-131,-63,100,-2,-97,29,165,-48,-73,-78,-97
-58,-131,-73,95,7,-102,24,151,-48,-63,-78,-107
-58,-131,-73,95,7,-102,24,151,-48,-68,-78,-107
-53,-131,-78,92,12,-104,24,151,-48,-68,-78,-107
-53,-131,-78,92,12,-104,19,151,-48,-78,-87,-112
-63,-136,-73,100,4,-104,29,151,-53,-78,-87,-112
-63,-141,-78,102,7,-109,29,151,-53,-78,-87,-107
-63,-141,-78,102,7,-109,29,141,-53,-78,-87,-107
-63,-141,-78,102,7,-109,29,136,-43,-63,-82,-107
-63,-136,-73,100,4,-104,29,141,-43,-73,-82,-107
-58,-136,-78,97,9,-107,29,141,-48,-78,-82,-107
-58,-136,-78,97,9,-107,29,141,-53,-78,-82,-107
-58,-136,-78,97,9,-107,34,141,-58,-87,-92,-112
-58,-156,-97,107,19,-126,34,141,-58,-87,-92,-112
-63,-156,-92,109,14,-124,34,141,-58,-87,-92,-112
-68,-161,-92,114,12,-126,34,141,-58,-87,-92,-112
-68,-161,-92,114,12,-126,34,136,-53,-82,-87,-107
-68,-146,-78,107,4,-112,29,146,-53,-73,-87,-107
-68,-146,-78,107,4,-112,29,136,-53,-73,-92,-107
-63,-146,-82,104,9,-114,29,136,-53,-73,-92,-107
-63,-146,-82,104,9,-114,29,141,-63,-82,-97,-112
-63,-161,-97,112,17,-129,39,151,-73,-92,-97,-117
-63,-165,-102,114,19,-134,39,146,-68,-92,-97,-117
-73,-165,-92,119,9,-129,39,146,-68,-92,-97,-117
-73,-165,-92,119,9,-129,39,141,-63,-92,-97,-117
-68,-161,-92,114,12,-126,29,136,-63,-82,-92,-107
-68,-161,-92,114,12,-126,29,131,-68,-82,-92,-107
-68,-161,-92,114,12,-126,29,126,-68,-82,-92,-107
-68,-161,-92,114,12,-126,29,126,-68,-92,-92,-107
-68,-161,-92,114,12,-126,39,117,-73,-92,-112,-122
-68,-165,-97,117,14,-131,39,117,-73,-97,-112,-122
-68,-170,-102,119,17,-136,39,117,-73,-97,-112,-122
-68,-170,-102,119,17,-136,39,107,-73,-92,-112,-122
-73,-170,-97,122,12,-134,29,112,-68,-92,-102,-122
-73,-165,-92,119,9,-129,34,107,-68,-92,-102,-122
-68,-165,-97,117,14,-131,34,97,-68,-97,-102,-122
-68,-161,-92,114,12,-126,34,92,-78,-97,-102,-122
-68,-170,-102,119,17,-136,34,82,-87,-97,-117,-136
-68,-175,-107,122,19,-141,34,78,-87,-97,-117,-136
-73,-175,-102,124,14,-139,34,73,-87,-97,-117,-136
-78,-180,-102,129,12,-141,34,68,-87,-97,-117,-136
-78,-180,-102,129,12,-141,34,63,-78,-97,-117,-126
-78,-175,-97,126,9,-136,34,58,-78,-92,-117,-126
-73,-175,-102,124,14,-139,34,48,-78,-92,-117,-126
-73,-175,-102,124,14,-139,34,48,-78,-92,-117,-126
-73,-175,-102,124,14,-139,39,43,-92,-102,-126,-136
-73,-185,-112,129,19,-148,39,43,-92,-102,-131,-141
-73,-185,-112,129,19,-148,39,43,-92,-102,-131,-141
-82,-190,-107,136,12,-148,39,34,-92,-102,-131,-146
-82,-180,-97,131,7,-139,39,29,-92,-102,-122,-146
-82,-175,-92,129,4,-134,39,19,-92,-97,-122,-141
-78,-170,-92,124,7,-131,39,9,-92,-97,-122,-141
-78,-170,-92,124,7,-131,39,4,-92,-97,-126,-146
-68,-170,-102,119,17,-136,39,-4,-92,-107,-126,-136
-68,-180,-112,124,21,-146,39,-4,-97,-112,-126,-141
-68,-180,-112,124,21,-146,39,-4,-97,-112,-126,-141
-68,-180,-112,124,21,-146,43,-4,-97,-112,-126,-141
-68,-180,-112,124,21,-146,43,-19,-87,-122,-126,-141
-78,-180,-102,129,12,-141,43,-29,-78,-122,-126,-141
-78,-180,-102,129,12,-141,43,-34,-78,-117,-126,-141
-73,-180,-107,126,17,-143,43,-39,-82,-117,-126,-141
-73,-180,-107,126,17,-143,43,-48,-92,-107,-126,-141
-73,-180,-107,126,17,-143,43,-43,-97,-112,-131,-146
-73,-190,-117,131,21,-153,43,-43,-97,-112,-131,-146
-73,-190,-117,131,21,-153,48,-39,-97,-112,-131,-146
-73,-185,-112,129,19,-148,48,-43,-92,-112,-131,-146
-78,-185,-107,131,14,-146,48,-48,-87,-102,-131,-146
-78,-185,-107,131,14,-146,48,-63,-87,-102,-131,-141
-78,-180,-102,129,12,-141,48,-68,-87,-107,-131,-141
-73,-180,-107,126,17,-143,48,-73,-87,-107,-131,-141
-73,-180,-107,126,17,-143,48,-68,-87,-107,-131,-141
-73,-185,-112,129,19,-148,48,-63,-87,-107,-131,-141
-73,-185,-112,129,19,-148,53,-58,-87,-107,-131,-141
-82,-195,-112,139,14,-153,53,-58,-92,-97,-131,-131
-87,-195,-107,141,9,-151,53,-58,-92,-97,-131,-131
-87,-185,-97,136,4,-141,53,-53,-87,-92,-131,-131
-87,-185,-97,136,4,-141,53,-48,-87,-92,-126,-131
-73,-185,-112,129,19,-148,53,-58,-87,-92,-126,-131
-73,-185,-112,129,19,-148,53,-48,-87,-92,-126,-131
-73,-185,-112,129,19,-148,53,-43,-87,-92,-131,-131
-73,-185,-112,129,19,-148,53,-39,-87,-92,-131,-131
-82,-185,-102,134,9,-143,53,-34,-87,-92,-122,-131
-87,-190,-102,139,7,-146,53,-34,-87,-92,-122,-131
-87,-190,-102,139,7,-146,53,-34,-78,-87,-122,-131
-87,-180,-92,134,2,-136,53,-34,-78,-87,-117,-126
-73,-170,-97,122,12,-134,63,-24,-78,-87,-117,-126
-73,-170,-97,122,12,-134,63,-14,-73,-82,-117,-126
-73,-165,-92,119,9,-129,63,-9,-73,-82,-117,-126
-73,-165,-92,119,9,-129,68,-4,-73,-82,-117,-131
-78,-165,-87,122,4,-126,58,4,-68,-73,-117,-122
-78,-170,-92,124,7,-131,58,9,-68,-73,-112,-122
-78,-170,-92,124,7,-131,58,9,-58,-73,-112,-117
-78,-170,-92,124,7,-131,58,9,-58,-68,-112,-117
-73,-170,-97,122,12,-134,68,24,-68,-68,-112,-117
-73,-161,-87,117,7,-124,68,24,-68,-68,-112,-117
-73,-161,-87,117,7,-124,68,29,-68,-68,-112,-117
-73,-165,-92,119,9,-129,73,39,-68,-68,-112,-117
-82,-175,-92,129,4,-134,63,48,-53,-68,-102,-117
-82,-175,-92,129,4,-134,63,53,-53,-68,-102,-117
-82,-175,-92,129,4,-134,63,58,-43,-63,-102,-117
-82,-165,-82,124,0,-124,63,63,-43,-63,-97,-117
-73,-165,-92,119,9,-129,78,63,-43,-73,-97,-117
-73,-165,-92,119,9,-129,78,68,-43,-73,-97,-117
-73,-161,-87,117,7,-124,78,82,-43,-68,-97,-117
-73,-161,-87,117,7,-124,78,87,-43,-68,-97,-117
-82,-161,-78,122,-2,-119,78,92,-34,-68,-97,-107
-92,-161,-68,126,-12,-114,82,97,-34,-68,-92,-107
-92,-161,-68,126,-12,-114,82,97,-24,-63,-92,-107
-92,-156,-63,124,-14,-109,82,107,-19,-58,-92,-107
-92,-146,-53,119,-19,-100,78,107,-24,-58,-92,-102
-87,-141,-53,114,-17,-97,78,107,-24,-58,-92,-102
-87,-141,-53,114,-17,-97,78,117,-24,-58,-92,-102
-87,-141,-53,114,-17,-97,78,122,-24,-58,-92,-107
-87,-146,-58,117,-14,-102,78,131,-14,-58,-92,-107
-97,-146,-48,122,-24,-97,87,146,-4,-53,-92,-107
-97,-146,-48,122,-24,-97,87,146,0,-43,-92,-107
-97,-141,-43,119,-26,-92,87,151,4,-39,-82,-107
-97,-126,-29,112,-34,-78,97,156,9,-34,-82,-97
-97,-122,-24,109,-36,-73,97,161,14,-34,-82,-97
-97,-122,-24,109,-36,-73,97,165,19,-34,-78,-92
-97,-122,-24,109,-36,-73,102,175,19,-34,-78,-92
-97,-122,-24,109,-36,-73,102,180,24,-34,-78,-92
-102,-122,-19,112,-41,-70,107,190,24,-34,-78,-92
-102,-122,-19,112,-41,-70,112,209,34,-29,-73,-92
-107,-122,-14,114,-46,-68,112,224,39,-14,-73,-92
-107,-102,4,104,-56,-48,112,229,43,0,-58,-87
-107,-97,9,102,-58,-43,117,239,43,4,-58,-87
-107,-92,14,100,-61,-39,117,239,48,4,-53,-87
-107,-92,14,100,-61,-39,117,248,48,4,-53,-87
-107,-92,14,100,-61,-39,122,253,48,4,-53,-78
-112,-92,19,102,-65,-36,122,263,58,14,-53,-78
-112,-87,24,100,-68,-31,122,278,63,19,-53,-78
-112,-87,24,100,-68,-31,126,287,68,19,-48,-73
-122,-78,43,100,-82,-17,126,287,87,34,-39,-68
-122,-68,53,95,-87,-7,131,302,92,39,-34,-68
-122,-63,58,92,-90,-2,131,307,97,43,-29,-63
-122,-53,68,87,-95,7,131,322,102,43,-29,-63
-126,-48,78,87,-102,14,126,331,92,34,-19,-63
-126,-48,78,87,-102,14,126,346,97,39,-19,-63
-126,-43,82,85,-104,19,126,361,107,48,-9,-53
-126,-39,87,82,-107,24,126,370,112,48,-4,-48
-136,-39,97,87,-117,29,126,370,126,63,0,-48
-136,-29,107,82,-122,39,126,370,131,68,0,-43
-126,-14,112,70,-119,48,126,370,131,73,4,-39
-126,-4,122,65,-124,58,126,385,136,73,4,-34
-126,4,131,61,-129,68,126,395,136,73,14,-19
-122,9,131,56,-126,70,122,395,136,82,24,-14
-122,14,136,53,-129,75,122,400,141,82,29,-9
-122,19,141,51,-131,80,122,405,141,87,34,-4
-122,29,151,46,-136,90,122,419,151,92,29,0
-117,43,161,36,-139,102,112,419,156,97,34,4
-112,48,161,31,-136,104,107,419,156,97,43,9
-102,58,161,21,-131,109,102,414,156,97,48,14
-87,68,156,9,-122,112,107,424,156,97,58,19
-82,68,151,7,-117,109,107,434,151,102,58,24
-82,73,156,4,-119,114,107,434,151,112,68,34
-82,82,165,0,-124,124,97,429,156,117,73,39
-82,87,170,-2,-126,129,92,429,161,117,68,43
-78,97,175,-9,-126,136,87,419,161,117,73,48
-73,102,175,-14,-124,139,82,405,161,117,73,58
-68,107,175,-19,-122,141,78,395,156,117,73,63
-63,117,180,-26,-122,148,73,400,151,117,78,63
-58,117,175,-29,-117,146,73,390,141,117,78,63
-53,117,170,-31,-112,143,68,380,141,117,78,73
-48,117,165,-34,-107,141,63,370,136,112,78,78
-39,126,165,-43,-102,146,48,356,136,122,82,73
-39,131,170,-46,-104,151,43,341,136,122,82,73
-29,131,161,-51,-95,146,43,326,131,117,82,78
-24,131,156,-53,-90,143,39,312,126,112,82,78
-19,136,156,-58,-87,146,43,307,122,107,82,78
-9,136,146,-63,-78,141,39,292,117,102,82,78
-4,126,131,-61,-68,129,34,278,107,97,82,78
0,117,117,-58,-58,117,29,263,97,92,82,78
-9,112,122,-51,-65,117,24,248,102,87,78,73
-9,112,122,-51,-65,117,24,229,97,87,78,73
-9,112,122,-51,-65,117,19,209,92,82,78,73
0,107,107,-53,-53,107,14,190,92,78,78,73
4,107,102,-56,-48,104,14,175,87,73,58,68
9,102,92,-56,-41,97,14,156,78,68,58,68
9,97,87,-53,-39,92,14,146,68,63,53,63
9,92,82,-51,-36,87,9,136,63,58,53,63
9,78,68,-43,-29,73,9,122,58,53,53,63
9,73,63,-41,-26,68,4,112,58,53,48,63
9,73,63,-41,-26,68,4,102,58,53,48,63
9,73,63,-41,-26,68,-4,87,53,53,48,63
24,73,48,-48,-12,61,-4,73,48,39,39,63
24,68,43,-46,-9,56,-4,68,43,34,39,53
29,63,34,-46,-2,48,-4,63,34,29,34,53
29,58,29,-43,0,43,-4,58,29,24,29,53
19,43,24,-31,-2,34,-14,63,19,9,29,43
19,43,24,-31,-2,34,-19,58,19,9,29,43
19,39,19,-29,0,29,-19,53,19,9,29,43
19,39,19,-29,0,29,-19,48,19,9,29,43
29,29,0,-29,14,14,-19,53,19,0,19,34
29,29,0,-29,14,14,-19,53,9,0,19,29
29,29,0,-29,14,14,-19,53,4,0,19,29
34,19,-14,-26,24,2,-24,53,4,0,14,24
24,19,-4,-21,14,7,-14,53,-4,0,14,24
24,14,-9,-19,17,2,-19,53,-4,-4,14,24
29,14,-14,-21,21,0,-24,53,-4,-9,4,24
29,14,-14,-21,21,0,-24,53,-9,-14,4,24
39,14,-24,-26,31,-4,-19,53,-9,-14,4,24
39,14,-24,-26,31,-4,-19,58,-14,-14,4,24
39,19,-19,-29,29,0,-19,58,-14,-14,9,24
39,19,-19,-29,29,0,-24,58,-14,-14,9,24
39,19,-19,-29,29,0,-14,58,-9,-14,9,24
39,19,-19,-29,29,0,-14,58,-9,-14,9,24
39,19,-19,-29,29,0,-14,58,-9,-9,9,24
39,19,-19,-29,29,0,-14,58,-14,-9,9,24
39,19,-19,-29,29,0,-14,73,-14,-9,9,24
39,19,-19,-29,29,0,-19,73,-9,-9,9,24
39,19,-19,-29,29,0,-19,73,-9,-9,9,24
39,19,-19,-29,29,0,-24,78,-9,-9,9,24
39,9,-29,-24,34,-9,-14,78,-9,-19,9,14
39,9,-29,-24,34,-9,-14,82,-9,-19,9,14
39,9,-29,-24,34,-9,-14,82,-9,-19,9,14
39,9,-29,-24,34,-9,-14,92,-9,-19,9,14
39,0,-39,-19,39,-19,-24,107,-9,-19,0,14
39,0,-39,-19,39,-19,-24,107,-9,-14,0,14
39,4,-34,-21,36,-14,-24,107,-4,-14,4,14
39,4,-34,-21,36,-14,-24,107,-4,-14,4,14
43,4,-39,-24,41,-17,-24,112,-4,-14,4,14
43,4,-39,-24,41,-17,-29,122,-4,-14,4,19
43,4,-39,-24,41,-17,-29,126,-4,-14,4,19
43,9,-34,-26,39,-12,-24,136,-4,-14,4,19
43,9,-34,-26,39,-12,-24,151,0,-14,9,19
43,9,-34,-26,39,-12,-24,151,0,-9,9,19
43,9,-34,-26,39,-12,-24,151,0,-9,9,19
43,9,-34,-26,39,-12,-29,151,0,-9,9,19
43,9,-34,-26,39,-12,-29,165,0,-9,9,19
43,14,-29,-29,36,-7,-29,165,0,-9,9,19
43,14,-29,-29,36,-7,-29,165,0,-9,9,24
43,14,-29,-29,36,-7,-29,165,0,-9,14,24
43,14,-29,-29,36,-7,-29,170,0,-4,14,24
43,14,-29,-29,36,-7,-29,180,0,-4,14,24
43,14,-29,-29,36,-7,-29,185,0,-4,14,24
43,19,-24,-31,34,-2,-34,190,0,-4,14,24
43,19,-24,-31,34,-2,-24,195,4,-4,14,24
43,19,-24,-31,34,-2,-24,200,4,-4,14,24
43,19,-24,-31,34,-2,-24,200,4,-4,14,24
43,19,-24,-31,34,-2,-24,204,4,0,14,24
53,29,-24,-41,39,2,-24,209,4,0,14,19
53,29,-24,-41,39,2,-24,214,4,0,14,19
53,29,-24,-41,39,2,-24,214,4,0,14,19
53,29,-24,-41,39,2,-24,219,4,0,14,19
53,29,-24,-41,39,2,-24,224,14,0,14,29
53,29,-24,-41,39,2,-24,229,14,0,14,29
53,34,-19,-43,36,7,-24,234,14,0,14,29
53,34,-19,-43,36,7,-24,234,14,0,14,29
53,34,-19,-43,36,7,-24,239,14,4,24,29
53,34,-19,-43,36,7,-24,244,14,4,19,29
53,34,-19,-43,36,7,-19,248,14,4,19,29
53,34,-19,-43,36,7,-19,244,14,4,19,29
53,24,-29,-39,41,-2,-19,248,14,9,19,24
48,24,-24,-36,36,0,-19,248,14,9,19,24
48,24,-24,-36,36,0,-19,248,19,9,19,24
48,24,-24,-36,36,0,-19,253,19,9,19,24
48,24,-24,-36,36,0,-19,253,19,9,9,24
48,24,-24,-36,36,0,-19,253,19,9,9,24
48,19,-29,-34,39,-4,-19,253,19,9,9,24
48,19,-29,-34,39,-4,-19,258,19,4,9,24
48,29,-19,-39,34,4,-19,253,19,14,19,24
48,29,-19,-39,34,4,-19,248,19,14,19,24
43,29,-14,-36,29,7,-19,244,19,14,19,24
43,29,-14,-36,29,7,-19,239,19,14,19,19
43,29,-14,-36,29,7,-19,234,19,14,19,19
43,29,-14,-36,29,7,-19,229,19,14,19,24
43,29,-14,-36,29,7,-19,229,19,9,19,24
43,29,-14,-36,29,7,-19,224,19,9,19,24
43,39,-4,-41,24,17,-29,214,14,4,19,24
43,34,-9,-39,26,12,-24,209,14,4,19,24
43,34,-9,-39,26,12,-24,209,14,4,19,24
43,34,-9,-39,26,12,-24,204,14,4,19,24
43,24,-19,-34,31,2,-24,190,4,4,9,24
39,24,-14,-31,26,4,-24,185,4,0,9,24
39,24,-14,-31,26,4,-24,180,4,0,9,19
39,24,-14,-31,26,4,-24,180,4,0,9,19
39,19,-19,-29,29,0,-24,175,4,0,9,19
39,19,-19,-29,29,0,-24,165,4,0,9,19
39,19,-19,-29,29,0,-24,161,4,0,9,19
39,19,-19,-29,29,0,-24,156,4,0,9,19
39,19,-19,-29,29,0,-19,136,4,0,9,19
39,19,-19,-29,29,0,-19,136,4,0,9,14
39,19,-19,-29,29,0,-19,136,4,0,9,14
39,19,-19,-29,29,0,-24,136,4,0,9,14
39,9,-29,-24,34,-9,-24,126,9,0,9,14
39,9,-29,-24,34,-9,-24,126,9,0,9,14
39,9,-29,-24,34,-9,-19,122,9,0,9,14
39,9,-29,-24,34,-9,-19,122,9,0,9,14
39,9,-29,-24,34,-9,-19,112,0,-4,0,14
39,9,-29,-24,34,-9,-19,107,0,-9,0,14
39,4,-34,-21,36,-14,-19,107,0,-14,0,9
39,0,-39,-19,39,-19,-19,107,0,-19,0,4
29,9,-19,-19,24,-4,-19,97,0,-19,4,9
29,9,-19,-19,24,-4,-19,97,-4,-19,4,9
29,9,-19,-19,24,-4,-19,92,-4,-19,4,9
29,9,-19,-19,24,-4,-19,92,-4,-19,4,9
39,14,-24,-26,31,-4,-29,92,-4,-9,4,9
39,14,-24,-26,31,-4,-24,92,-4,-9,4,9
34,9,-24,-21,29,-7,-24,92,-4,-9,4,9
34,9,-24,-21,29,-7,-24,92,-4,-9,4,9
34,9,-24,-21,29,-7,-24,82,-4,-14,4,9
34,4,-29,-19,31,-12,-24,82,-4,-14,4,9
34,4,-29,-19,31,-12,-24,82,-4,-14,4,9
34,4,-29,-19,31,-12,-24,78,-4,-14,4,9
34,4,-29,-19,31,-12,-14,78,-4,-14,4,9
34,4,-29,-19,31,-12,-14,78,-4,-14,4,4
34,4,-29,-19,31,-12,-14,78,-4,-14,4,4
34,4,-29,-19,31,-12,-14,78,-4,-14,4,4
34,4,-29,-19,31,-12,-14,78,-14,-14,-4,4
34,4,-29,-19,31,-12,-14,78,-14,-14,-4,4
34,4,-29,-19,31,-12,-14,78,-14,-14,-4,4
34,4,-29,-19,31,-12,-14,78,-14,-14,-4,4
34,-4,-39,-14,36,-21,-14,68,-14,-14,-4,0
34,-4,-39,-14,36,-21,-14,68,-14,-14,-4,0
34,0,-34,-17,34,-17,-14,68,-14,-14,-4,-4
34,0,-34,-17,34,-17,-9,68,-14,-14,-4,-4
34,4,-29,-19,31,-12,-9,68,-14,-14,-4,0
34,4,-29,-19,31,-12,-14,63,-14,-14,-4,0
34,4,-29,-19,31,-12,-14,58,-9,-19,-4,0
34,4,-29,-19,31,-12,-14,58,-9,-19,-4,0
39,9,-29,-24,34,-9,-19,48,-9,-9,0,0
29,0,-29,-14,29,-14,-19,48,-9,-19,0,0
29,0,-29,-14,29,-14,-19,48,-9,-19,0,0
29,0,-29,-14,29,-14,-19,48,-9,-19,0,0
29,0,-29,-14,29,-14,-19,48,-9,-19,0,0
29,-9,-39,-9,34,-24,-19,39,-19,-19,0,0
29,-9,-39,-9,34,-24,-19,39,-19,-19,0,0
29,-9,-39,-9,34,-24,-19,39,-19,-19,0,0
29,-9,-39,-9,34,-24,-19,39,-19,-19,0,0
29,-19,-48,-4,39,-34,-19,29,-19,-19,-9,0
29,-19,-48,-4,39,-34,-19,29,-19,-19,-9,0
29,-19,-48,-4,39,-34,-19,29,-19,-19,-9,0
29,-19,-48,-4,39,-34,-19,29,-19,-19,-9,0
29,-19,-48,-4,39,-34,-9,19,-19,-19,-9,0
29,-19,-48,-4,39,-34,-9,19,-19,-19,-9,0
29,-19,-48,-4,39,-34,-9,19,-19,-19,-9,0
29,-19,-48,-4,39,-34,-9,19,-19,-19,-9,0
29,-9,-39,-9,34,-24,-9,9,-19,-19,-9,-9
29,-9,-39,-9,34,-24,-9,9,-19,-19,-9,-9
29,-9,-39,-9,34,-24,-9,9,-19,-19,-9,-9
29,-9,-39,-9,34,-24,-9,9,-19,-19,-9,-9
29,0,-29,-14,29,-14,-9,9,-9,-9,0,-9
29,0,-29,-14,29,-14,-9,9,-9,-9,0,-9
29,0,-29,-14,29,-14,-9,9,-9,-9,0,-9
29,0,-29,-14,29,-14,-9,9,-9,-9,0,-9
39,4,-34,-21,36,-14,0,9,0,0,9,0
39,9,-29,-24,34,-9,0,9,0,0,9,0
39,14,-24,-26,31,-4,0,9,0,0,9,0
39,19,-19,-29,29,0,0,9,0,0,9,0
48,24,-24,-36,36,0,9,9,9,9,19,4
48,29,-19,-39,34,4,9,9,9,9,19,9
48,34,-14,-41,31,9,9,9,9,9,19,14
48,39,-9,-43,29,14,9,9,9,9,19,19
58,43,-14,-51,36,14,19,19,19,19,29,19
58,48,-9,-53,34,19,19,19,19,19,29,19
58,53,-4,-56,31,24,19,19,19,19,29,19
63,63,0,-63,31,31,24,19,19,24,34,24
