I,II,III,aVR,aVL,aVF,V1,V2,V3,V4,V5,V6,
48,19,-29,-34,39,-4,-19,58,87,78,68,58
58,14,-43,-36,51,-14,-19,58,87,68,63,58
68,9,-58,-39,63,-24,-19,58,87,58,58,58
68,4,-63,-36,65,-29,-24,58,78,53,53,53
68,0,-68,-34,68,-34,-29,58,68,48,48,48
53,-4,-58,-24,56,-31,-29,53,63,43,43,39
39,-9,-48,-14,43,-29,-29,48,58,39,39,29
39,-9,-48,-14,43,-29,-29,48,53,34,29,24
39,-9,-48,-14,43,-29,-29,48,48,29,19,19
39,-9,-48,-14,43,-29,-29,43,43,29,19,19
39,-9,-48,-14,43,-29,-29,39,39,29,19,19
34,-14,-48,-9,41,-31,-24,34,39,29,19,19
29,-19,-48,-4,39,-34,-19,29,39,29,19,19
29,-19,-48,-4,39,-34,-19,29,34,19,19,19
29,-19,-48,-4,39,-34,-19,29,29,9,19,19
39,-19,-58,-9,48,-39,-19,29,29,9,14,19
48,-19,-68,-14,58,-43,-19,29,29,9,9,19
39,-19,-58,-9,48,-39,-14,29,24,9,9,14
29,-19,-48,-4,39,-34,-9,29,19,9,9,9
29,-19,-48,-4,39,-34,-9,29,19,4,4,4
29,-19,-48,-4,39,-34,-9,29,19,0,0,0
19,-19,-39,0,29,-29,-9,29,19,0,0,-4
9,-19,-29,4,19,-24,-9,29,19,0,0,-9
9,-24,-34,7,21,-29,-9,29,19,0,-4,-9
9,-29,-39,9,24,-34,-9,29,19,0,-9,-9
9,-29,-39,9,24,-34,0,29,19,0,-9,-14
9,-29,-39,9,24,-34,9,29,19,0,-9,-19
9,-29,-39,9,24,-34,9,29,19,0,-9,-19
9,-29,-39,9,24,-34,9,29,19,0,-9,-19
9,-24,-34,7,21,-29,9,39,29,4,-4,-14
9,-19,-29,4,19,-24,9,48,39,9,0,-9
9,-19,-29,4,19,-24,14,48,43,9,0,-9
9,-19,-29,4,19,-24,19,48,48,9,0,-9
0,-29,-29,14,14,-29,19,48,48,9,0,-9
-9,-39,-29,24,9,-34,19,48,48,9,0,-9
-9,-39,-29,24,9,-34,14,48,48,9,0,-14
-9,-39,-29,24,9,-34,9,48,48,9,0,-19
-9,-34,-24,21,7,-29,9,48,48,14,0,-19
-9,-29,-19,19,4,-24,9,48,48,19,0,-19
-9,-29,-19,19,4,-24,14,48,53,19,0,-19
-9,-29,-19,19,4,-24,19,48,58,19,0,-19
-4,-29,-24,17,9,-26,24,53,63,19,0,-24
0,-29,-29,14,14,-29,29,58,68,19,0,-29
0,-29,-29,14,14,-29,29,58,68,19,0,-29
0,-29,-29,14,14,-29,29,58,68,19,0,-29
0,-34,-34,17,17,-34,24,58,68,19,0,-29
0,-39,-39,19,19,-39,19,58,68,19,0,-29
0,-39,-39,19,19,-39,19,58,68,14,0,-29
0,-39,-39,19,19,-39,19,58,68,9,0,-29
0,-39,-39,19,19,-39,14,58,63,9,0,-29
0,-39,-39,19,19,-39,9,58,58,9,0,-29
0,-39,-39,19,19,-39,9,53,58,14,0,-29
0,-39,-39,19,19,-39,9,48,58,19,0,-29
0,-39,-39,19,19,-39,9,48,58,19,0,-24
0,-39,-39,19,19,-39,9,48,58,19,0,-19
0,-39,-39,19,19,-39,9,48,58,14,0,-19
0,-39,-39,19,19,-39,9,48,58,9,0,-19
0,-43,-43,21,21,-43,9,48,53,9,0,-19
0,-48,-48,24,24,-48,9,48,48,9,0,-19
0,-48,-48,24,24,-48,4,43,43,4,-4,-24
0,-48,-48,24,24,-48,0,39,39,0,-9,-29
0,-48,-48,24,24,-48,0,39,39,0,-9,-29
0,-48,-48,24,24,-48,0,39,39,0,-9,-29
0,-48,-48,24,24,-48,0,29,34,-4,-14,-29
0,-48,-48,24,24,-48,0,19,29,-9,-19,-29
0,-48,-48,24,24,-48,0,19,29,-9,-19,-29
0,-48,-48,24,24,-48,0,19,29,-9,-19,-29
0,-43,-43,21,21,-43,0,34,34,0,-4,-24
0,-39,-39,19,19,-39,0,48,39,9,9,-19
0,-39,-39,19,19,-39,0,48,39,9,0,-19
0,-39,-39,19,19,-39,0,48,39,9,-9,-19
4,-39,-43,17,24,-41,0,43,39,4,-9,-24
9,-39,-48,14,29,-43,0,39,39,0,-9,-29
9,-39,-48,14,29,-43,0,39,39,-4,-9,-29
9,-39,-48,14,29,-43,0,39,39,-9,-9,-29
4,-39,-43,17,24,-41,0,34,34,-9,-9,-29
0,-39,-39,19,19,-39,0,29,29,-9,-9,-29
0,-39,-39,19,19,-39,0,29,29,-9,-9,-29
0,-39,-39,19,19,-39,0,29,29,-9,-9,-29
0,-39,-39,19,19,-39,4,29,29,-9,-14,-34
0,-39,-39,19,19,-39,9,29,29,-9,-19,-39
0,-43,-43,21,21,-43,9,29,29,-9,-19,-39
0,-48,-48,24,24,-48,9,29,29,-9,-19,-39
4,-48,-53,21,29,-51,9,24,29,-4,-14,-34
9,-48,-58,19,34,-53,9,19,29,0,-9,-29
9,-48,-58,19,34,-53,9,19,24,0,-9,-29
9,-48,-58,19,34,-53,9,19,19,0,-9,-29
9,-48,-58,19,34,-53,4,24,19,0,-9,-29
9,-48,-58,19,34,-53,0,29,19,0,-9,-29
9,-48,-58,19,34,-53,0,29,19,9,-9,-29
9,-48,-58,19,34,-53,0,29,19,19,-9,-29
4,-48,-53,21,29,-51,4,29,19,4,-9,-34
0,-48,-48,24,24,-48,9,29,19,-9,-9,-39
0,-48,-48,24,24,-48,9,24,19,-9,-14,-39
0,-48,-48,24,24,-48,9,19,19,-9,-19,-39
14,-43,-58,14,36,-51,9,19,24,-4,-19,-29
29,-39,-68,4,48,-53,9,19,29,0,-19,-19
19,-34,-53,7,36,-43,9,24,34,9,-9,-19
9,-29,-39,9,24,-34,9,29,39,19,0,-19
9,-19,-29,4,19,-24,19,34,48,19,0,-19
9,-9,-19,0,14,-14,29,39,58,19,0,-19
9,-9,-19,0,14,-14,34,39,58,24,4,-14
9,-9,-19,0,14,-14,39,39,58,29,9,-9
19,-4,-24,-7,21,-14,39,43,58,29,9,-9
29,0,-29,-14,29,-14,39,48,58,29,9,-9
29,0,-29,-14,29,-14,39,48,58,29,14,-9
24,4,-19,-14,21,-7,34,48,63,34,19,-4
24,9,-14,-17,19,-2,29,53,68,39,24,-4
24,14,-9,-19,17,2,34,58,73,48,24,-4
19,14,-4,-17,12,4,14,53,73,53,29,0
29,29,0,-29,14,14,0,39,73,58,48,9
48,53,4,-51,21,29,-19,24,73,68,53,29
58,68,9,-63,24,39,-39,0,68,68,53,39
63,78,14,-70,24,46,-58,-4,48,48,53,39
63,78,14,-70,24,46,-73,-24,39,34,48,34
68,78,9,-73,29,43,-82,-29,24,29,39,29
87,82,-4,-85,46,39,-92,-29,19,29,29,34
112,102,-9,-107,61,46,-102,-34,29,43,39,43
131,117,-14,-124,73,51,-112,-43,29,43,48,48
136,117,-19,-126,78,48,-112,-39,39,53,58,53
136,102,-34,-119,85,34,-107,-34,43,53,58,58
141,87,-53,-114,97,17,-102,-9,48,58,63,58
141,82,-58,-112,100,12,-92,14,48,63,68,58
141,73,-68,-107,104,2,-87,14,53,63,63,58
117,58,-58,-87,87,0,-63,19,53,58,53,48
63,48,-14,-56,39,17,-34,24,53,53,53,48
14,19,4,-17,4,12,-4,29,53,43,43,39
4,0,-4,-2,4,-2,4,29,39,29,24,9
4,-14,-19,4,12,-17,14,24,34,19,4,-9
4,-24,-29,9,17,-26,14,24,29,9,0,-9
4,-39,-43,17,24,-41,14,29,24,4,-9,-19
-9,-78,-68,43,29,-73,9,29,24,-4,-24,-43
-14,-97,-82,56,34,-90,9,34,19,-9,-29,-53
-14,-97,-82,56,34,-90,9,39,24,-9,-29,-43
-14,-97,-82,56,34,-90,9,43,34,-9,-29,-34
-9,-92,-82,51,36,-87,14,43,43,-9,-24,-34
-4,-87,-82,46,39,-85,19,48,43,-9,-19,-34
-4,-87,-82,46,39,-85,19,48,43,-4,-14,-34
-4,-87,-82,46,39,-85,24,43,39,0,-9,-34
-9,-97,-87,53,39,-92,19,43,34,4,-9,-34
-24,-102,-78,63,26,-90,39,63,34,-19,-29,-63
-48,-136,-87,92,19,-112,63,87,29,-63,-92,-117
-73,-180,-107,126,17,-143,102,156,34,-112,-151,-185
-82,-214,-131,148,24,-173,151,234,87,-117,-185,-209
-82,-224,-141,153,29,-183,175,297,161,-68,-156,-214
-73,-229,-156,151,41,-192,204,346,273,29,-78,-165
0,-204,-204,102,102,-204,170,405,429,200,68,-48
126,-126,-253,0,190,-190,92,497,624,463,322,151
292,-4,-297,-143,295,-151,-92,439,702,722,614,400
561,102,-458,-331,509,-178,-409,224,688,985,951,702
854,175,-678,-514,766,-251,-732,-29,619,1156,1205,980
1161,258,-902,-710,1032,-322,-1034,-165,678,1390,1507,1332
1278,273,-1005,-775,1141,-366,-1307,-614,165,1093,1381,1332
1137,219,-917,-678,1027,-348,-1522,-1385,-1058,97,649,941
932,82,-849,-507,890,-383,-1620,-2030,-2313,-1063,-258,400
834,-175,-1010,-329,922,-592,-1629,-2274,-2981,-1854,-922,-19
712,-346,-1058,-183,885,-702,-1571,-2308,-3059,-2093,-1176,-204
512,-302,-814,-104,663,-558,-1395,-2103,-2752,-1937,-1112,-180
326,-156,-483,-85,405,-319,-1117,-1756,-2230,-1546,-854,-39
141,19,-122,-80,131,-51,-771,-1317,-1571,-1015,-497,117
-9,73,82,-31,-46,78,-488,-932,-1102,-707,-341,92
-107,39,146,34,-126,92,-253,-575,-751,-541,-331,-48
-131,9,141,61,-136,75,-92,-322,-478,-409,-287,-122
-141,-24,117,82,-129,46,0,-180,-283,-278,-234,-136
-151,-43,107,97,-129,31,53,-78,-161,-185,-185,-141
-146,-82,63,114,-104,-9,73,0,-97,-141,-141,-141
-141,-117,24,129,-82,-46,78,34,-43,-122,-136,-141
-131,-131,0,131,-65,-65,102,43,-9,-107,-141,-146
-126,-131,-4,129,-61,-68,107,48,0,-97,-136,-151
-126,-126,0,126,-63,-63,112,58,0,-97,-131,-151
-126,-122,4,124,-65,-58,117,68,9,-92,-131,-156
-126,-122,4,124,-65,-58,122,73,29,-87,-126,-161
-126,-122,4,124,-65,-58,126,73,39,-82,-126,-165
-122,-122,0,122,-61,-61,122,78,39,-82,-126,-165
-117,-122,-4,119,-56,-63,122,87,39,-82,-126,-165
-117,-122,-4,119,-56,-63,126,92,43,-78,-122,-165
-117,-117,0,117,-58,-58,131,97,48,-73,-122,-161
-122,-117,4,119,-63,-56,136,97,48,-73,-122,-156
-122,-117,4,119,-63,-56,136,97,48,-73,-122,-151
-117,-117,0,117,-58,-58,136,92,53,-68,-117,-156
-122,-117,4,119,-63,-56,136,92,53,-63,-112,-156
-122,-117,4,119,-63,-56,136,92,53,-63,-117,-156
-122,-117,4,119,-63,-56,141,87,58,-58,-117,-156
-131,-117,14,124,-73,-51,141,92,58,-58,-112,-161
-136,-112,24,124,-80,-43,146,92,58,-63,-112,-165
-141,-112,29,126,-85,-41,151,97,63,-68,-112,-165
-141,-112,29,126,-85,-41,151,102,63,-68,-112,-161
-146,-117,29,131,-87,-43,151,102,63,-63,-117,-161
-161,-112,48,136,-104,-31,156,97,63,-63,-122,-165
-161,-112,48,136,-104,-31,165,97,68,-58,-122,-165
-161,-107,53,134,-107,-26,165,102,68,-58,-122,-165
-146,-107,39,126,-92,-34,165,107,78,-58,-122,-165
-146,-107,39,126,-92,-34,170,112,87,-53,-122,-170
-165,-102,63,134,-114,-19,175,107,92,-53,-117,-170
-175,-97,78,136,-126,-9,175,102,92,-48,-117,-165
-175,-92,82,134,-129,-4,180,102,87,-48,-112,-165
-180,-82,97,131,-139,7,185,102,87,-43,-107,-170
-180,-78,102,129,-141,12,200,112,87,-39,-107,-170
-190,-68,122,129,-156,26,214,126,97,-39,-107,-170
-195,-73,122,134,-158,24,214,131,107,-34,-102,-165
-209,-73,136,141,-173,31,224,136,117,-29,-102,-165
-214,-63,151,139,-183,43,229,146,122,-24,-102,-165
-214,-53,161,134,-187,53,229,151,126,-19,-97,-165
-219,-39,180,129,-200,70,234,165,146,-4,-97,-165
-224,-24,200,124,-212,87,244,175,156,4,-92,-165
-229,-14,214,122,-222,100,248,180,161,4,-87,-165
-244,-4,239,124,-241,117,258,185,161,9,-87,-161
-244,4,248,119,-246,126,268,190,175,19,-82,-151
-248,24,273,112,-261,148,273,200,190,29,-73,-146
-258,24,283,117,-270,153,278,209,200,39,-68,-131
-258,34,292,112,-275,163,283,209,209,48,-58,-126
-258,58,317,100,-287,187,283,209,209,48,-53,-131
-263,68,331,97,-297,200,287,209,214,63,-43,-126
-268,97,366,85,-317,231,287,209,224,73,-29,-117
-268,117,385,75,-326,251,287,209,234,92,-14,-97
-263,131,395,65,-329,263,283,209,234,97,4,-82
-253,146,400,53,-326,273,283,204,244,107,14,-73
-248,161,409,43,-329,285,273,195,244,117,34,-58
-244,175,419,34,-331,297,263,190,248,131,53,-39
-248,175,424,36,-336,300,253,180,248,146,73,-14
-258,175,434,41,-346,305,244,165,248,161,92,4
-248,180,429,34,-339,305,229,161,258,161,92,19
-229,190,419,19,-324,305,209,151,263,165,102,24
-195,195,390,0,-292,292,195,156,268,170,117,43
-165,200,366,-17,-265,283,180,156,278,190,131,68
-146,200,346,-26,-246,273,156,156,283,204,146,87
-126,195,322,-34,-224,258,141,156,283,219,161,107
-97,190,287,-46,-192,239,122,151,283,224,175,117
-78,185,263,-53,-170,224,102,146,283,224,180,126
-53,165,219,-56,-136,192,92,141,283,219,185,141
-34,151,185,-58,-109,168,78,136,278,214,185,141
-19,131,151,-56,-85,141,68,136,258,200,175,126
-9,117,126,-53,-68,122,58,131,253,190,156,112
0,102,102,-51,-51,102,43,122,234,175,151,107
9,73,63,-41,-26,68,29,117,214,165,141,102
19,63,43,-41,-12,53,19,107,200,161,131,92
29,48,19,-39,4,34,4,107,190,146,122,82
29,34,4,-31,12,19,0,102,180,131,112,78
29,14,-14,-21,21,0,-4,97,161,122,102,68
29,0,-29,-14,29,-14,4,87,141,102,87,53
34,-9,-43,-12,39,-26,9,82,126,87,82,43
39,-14,-53,-12,46,-34,4,73,112,78,78,39
43,-4,-48,-19,46,-26,4,63,102,73,68,29
48,-4,-53,-21,51,-29,4,58,87,68,53,24
48,-4,-53,-21,51,-29,4,58,82,53,48,24
43,-24,-68,-9,56,-46,0,58,87,48,43,24
43,-29,-73,-7,58,-51,0,58,82,34,34,29
43,-34,-78,-4,61,-56,4,53,73,29,24,29
43,-39,-82,-2,63,-61,9,48,68,24,19,19
43,-39,-82,-2,63,-61,9,48,63,24,19,19
39,-39,-78,0,58,-58,4,48,63,24,19,14
34,-39,-73,2,53,-56,4,48,53,34,29,14
29,-43,-73,7,51,-58,4,43,48,34,34,4
29,-43,-73,7,51,-58,0,39,34,19,9,-4
24,-48,-73,12,48,-61,-4,34,29,0,-9,-19
24,-48,-73,12,48,-61,0,29,29,0,-9,-19
19,-48,-68,14,43,-58,0,24,24,0,-9,-19
19,-48,-68,14,43,-58,0,24,24,0,-9,-19
19,-48,-68,14,43,-58,4,24,19,-4,-4,-14
14,-48,-63,17,39,-56,4,29,19,-4,-4,-14
9,-48,-58,19,34,-53,4,34,19,-4,-9,-14
9,-48,-58,19,34,-53,9,39,24,0,-4,-14
4,-48,-53,21,29,-51,9,39,29,4,4,-19
4,-48,-53,21,29,-51,9,39,29,9,4,-19
4,-48,-53,21,29,-51,9,39,29,14,0,-19
9,-48,-58,19,34,-53,9,34,24,14,0,-14
14,-48,-63,17,39,-56,14,34,19,14,0,-9
14,-53,-68,19,41,-61,14,34,24,0,-4,-9
14,-58,-73,21,43,-65,19,39,24,-14,-9,-14
9,-58,-68,24,39,-63,24,39,34,-9,-9,-24
9,-58,-68,24,39,-63,34,43,43,-4,-9,-29
9,-53,-63,21,36,-58,34,48,48,0,-9,-24
0,-48,-48,24,24,-48,34,53,48,4,-9,-24
-4,-48,-43,26,19,-46,34,58,53,4,-9,-39
-9,-48,-39,29,14,-43,34,58,53,4,-9,-39
-9,-53,-43,31,17,-48,43,58,58,4,-9,-34
-9,-58,-48,34,19,-53,43,58,58,9,-9,-34
-4,-58,-53,31,24,-56,43,58,58,9,-4,-34
0,-58,-58,29,29,-58,39,58,63,9,0,-29
0,-58,-58,29,29,-58,34,63,73,19,0,-29
-4,-53,-48,29,21,-51,34,63,73,24,0,-29
-9,-53,-43,31,17,-48,34,63,78,24,0,-29
-9,-53,-43,31,17,-48,34,58,78,24,0,-29
-14,-63,-48,39,17,-56,34,58,78,19,-4,-34
-19,-68,-48,43,14,-58,34,58,78,19,-9,-34
-19,-68,-48,43,14,-58,39,63,82,19,-9,-24
-24,-68,-43,46,9,-56,39,73,82,19,-4,-24
-24,-58,-34,41,4,-46,39,73,82,19,-4,-24
-24,-48,-24,36,0,-36,39,73,82,19,-9,-29
-9,-53,-43,31,17,-48,34,63,78,19,-9,-29
4,-53,-58,24,31,-56,34,58,78,24,-9,-29
4,-48,-53,21,29,-51,39,58,73,24,-9,-39
4,-43,-48,19,26,-46,39,53,68,24,-9,-43
0,-43,-43,21,21,-43,39,53,68,24,-9,-43
-4,-43,-39,24,17,-41,39,53,68,19,-9,-39
-9,-48,-39,29,14,-43,39,48,63,19,-9,-43
-14,-53,-39,34,12,-46,39,48,53,19,-9,-48
-9,-53,-43,31,17,-48,39,48,53,14,-14,-48
-9,-53,-43,31,17,-48,39,53,58,4,-14,-48
-9,-58,-48,34,19,-53,34,53,58,4,-14,-43
-9,-58,-48,34,19,-53,34,53,53,4,-9,-39
-9,-58,-48,34,19,-53,34,48,48,4,-4,-39
-9,-58,-48,34,19,-53,34,43,48,4,-4,-39
-9,-53,-43,31,17,-48,34,39,48,4,-14,-39
-9,-53,-43,31,17,-48,34,39,43,0,-19,-39
-9,-53,-43,31,17,-48,34,39,43,4,-19,-39
-9,-53,-43,31,17,-48,29,39,43,9,-19,-39
-4,-53,-48,29,21,-51,29,39,39,4,-19,-43
0,-53,-53,26,26,-53,29,39,34,4,-19,-43
0,-53,-53,26,26,-53,29,34,29,4,-24,-43
-4,-53,-48,29,21,-51,29,29,29,4,-24,-48
0,-53,-53,26,26,-53,29,29,29,4,-24,-48
9,-58,-68,24,39,-63,29,34,29,0,-29,-48
4,-63,-68,29,36,-65,24,29,24,-9,-29,-53
-4,-63,-58,34,26,-61,19,24,19,-9,-29,-53
-9,-73,-63,41,26,-68,14,24,19,-4,-29,-53
-14,-82,-68,48,26,-75,9,19,19,-4,-34,-53
-14,-78,-63,46,24,-70,19,29,19,-4,-34,-43
-14,-73,-58,43,21,-65,19,39,19,-4,-34,-39
-4,-73,-68,39,31,-70,19,39,19,-4,-29,-39
4,-63,-68,29,36,-65,19,39,19,-4,-29,-39
9,-63,-73,26,41,-68,24,24,14,-9,-24,-43
9,-58,-68,24,39,-63,24,14,14,-14,-24,-53
0,-58,-58,29,29,-58,39,24,14,-14,-24,-48
-4,-58,-53,31,24,-56,43,29,19,-9,-19,-48
-4,-48,-43,26,19,-46,39,29,29,0,-14,-39
4,-39,-43,17,24,-41,39,39,39,9,-4,-24
0,-29,-29,14,14,-29,39,43,39,14,0,-19
0,-24,-24,12,12,-24,43,48,43,24,9,-19
0,-19,-19,9,9,-19,48,48,43,24,9,-19
0,-19,-19,9,9,-19,58,48,48,29,9,-19
4,-9,-14,2,9,-12,58,43,43,29,9,-24
9,0,-9,-4,9,-4,58,39,39,29,9,-29
14,0,-14,-7,14,-7,58,39,39,29,9,-29
14,0,-14,-7,14,-7,48,39,39,29,9,-24
14,4,-9,-9,12,-2,43,39,43,29,14,-24
14,4,-9,-9,12,-2,43,39,43,29,14,-24
14,4,-9,-9,12,-2,24,34,43,34,14,-14
29,19,-9,-24,19,4,9,19,43,39,29,0
48,43,-4,-46,26,19,-9,4,39,43,34,14
58,58,0,-58,29,29,-29,-19,29,39,34,19
58,68,9,-63,24,39,-48,-24,9,29,34,19
53,68,14,-61,19,41,-63,-43,0,24,29,14
58,68,9,-63,24,39,-73,-48,-4,19,29,14
78,73,-4,-75,41,34,-82,-48,0,19,29,24
102,87,-14,-95,58,36,-82,-43,9,34,34,34
122,97,-24,-109,73,36,-82,-43,9,34,39,39
126,97,-29,-112,78,34,-82,-39,14,43,48,43
126,82,-43,-104,85,19,-78,-34,14,43,48,48
122,63,-58,-92,90,2,-78,-19,19,43,48,48
112,53,-58,-82,85,-2,-73,-4,19,43,48,48
97,43,-53,-70,75,-4,-68,0,34,43,48,43
58,29,-29,-43,43,0,-43,9,43,39,43,29
19,19,0,-19,9,9,-14,14,34,34,34,19
-14,-9,4,12,-9,-2,14,19,24,24,14,0
-24,-29,-4,26,-9,-17,19,24,14,9,4,-19
-24,-43,-19,34,-2,-31,24,24,14,0,-4,-29
-24,-63,-39,43,7,-51,24,24,9,-9,-14,-29
-24,-87,-63,56,19,-75,24,29,4,-14,-29,-39
-34,-107,-73,70,19,-90,24,24,4,-19,-39,-58
-34,-107,-73,70,19,-90,29,24,0,-19,-39,-63
-24,-102,-78,63,26,-90,29,24,-4,-19,-34,-63
-14,-97,-82,56,34,-90,29,24,-4,-19,-29,-63
-14,-97,-82,56,34,-90,29,24,4,-19,-29,-58
-14,-97,-82,56,34,-90,29,29,4,-19,-29,-53
-19,-97,-78,58,29,-87,34,39,9,-19,-29,-53
-24,-97,-73,61,24,-85,43,43,9,-19,-29,-53
-29,-122,-92,75,31,-107,43,53,9,-19,-39,-63
-43,-141,-97,92,26,-119,68,82,14,-48,-68,-102
-58,-165,-107,112,24,-136,92,112,19,-87,-131,-156
-73,-200,-126,136,26,-163,131,185,34,-131,-190,-224
-73,-224,-151,148,39,-187,165,258,112,-87,-180,-214
-63,-224,-161,143,48,-192,175,317,209,9,-107,-185
-14,-200,-185,107,85,-192,156,366,351,165,48,-82
97,-146,-244,24,170,-195,73,424,536,395,273,87
253,-58,-312,-97,283,-185,-63,439,673,673,551,331
448,73,-375,-261,412,-151,-307,302,692,946,868,624
692,161,-531,-427,612,-185,-605,126,663,1161,1176,917
961,214,-746,-588,854,-265,-907,-87,580,1283,1400,1185
1151,248,-902,-700,1027,-326,-1176,-317,331,1166,1405,1332
1151,214,-936,-683,1044,-361,-1415,-858,-488,517,980,1127
1034,102,-932,-568,983,-414,-1561,-1459,-1517,-414,278,741
854,-92,-946,-380,900,-519,-1590,-1932,-2576,-1512,-600,204
756,-253,-1010,-251,883,-631,-1542,-2049,-2937,-1995,-1029,-78
634,-326,-961,-153,797,-644,-1424,-1956,-2708,-1927,-1049,-126
434,-268,-702,-82,568,-485,-1210,-1722,-2352,-1703,-941,-102
248,-107,-356,-70,302,-231,-893,-1346,-1781,-1244,-639,39
82,0,-82,-41,82,-41,-590,-990,-1254,-834,-400,107
-48,-14,34,31,-41,9,-351,-688,-917,-649,-361,-4
-131,-39,92,85,-112,26,-161,-414,-614,-488,-336,-107
-141,-58,82,100,-112,12,-43,-244,-390,-361,-278,-141
-141,-78,63,109,-102,-7,29,-131,-234,-253,-234,-156
-141,-82,58,112,-100,-12,63,-58,-151,-185,-195,-161
-126,-97,29,112,-78,-34,82,4,-97,-146,-156,-161
-112,-107,4,109,-58,-51,87,24,-53,-131,-156,-161
-112,-117,-4,114,-53,-61,107,29,-29,-117,-156,-156
-117,-112,4,114,-61,-53,107,29,-29,-107,-146,-151
-117,-112,4,114,-61,-53,107,48,-29,-107,-141,-151
-117,-112,4,114,-61,-53,107,68,-19,-102,-141,-156
-117,-112,4,114,-61,-53,112,63,-4,-97,-136,-156
-117,-112,4,114,-61,-53,117,53,0,-92,-136,-156
-117,-117,0,117,-58,-58,112,53,0,-92,-136,-156
-117,-122,-4,119,-56,-63,112,58,0,-92,-136,-156
-117,-122,-4,119,-56,-63,117,63,4,-87,-131,-156
-117,-117,0,117,-58,-58,122,68,9,-82,-131,-151
-122,-117,4,119,-63,-56,126,68,9,-82,-131,-151
-122,-117,4,119,-63,-56,126,68,9,-82,-131,-151
-122,-112,9,117,-65,-51,131,63,14,-82,-131,-156
-131,-107,24,119,-78,-41,136,63,14,-82,-131,-156
-131,-102,29,117,-80,-36,136,68,14,-87,-136,-156
-131,-97,34,114,-82,-31,141,68,19,-87,-136,-156
-136,-97,39,117,-87,-29,141,73,19,-82,-131,-161
-136,-92,43,114,-90,-24,146,73,19,-82,-131,-165
-141,-92,48,117,-95,-21,151,73,24,-87,-131,-165
-141,-92,48,117,-95,-21,151,73,24,-87,-131,-161
-141,-97,43,119,-92,-26,151,73,19,-82,-131,-161
-151,-92,58,122,-104,-17,156,68,14,-82,-131,-165
-151,-92,58,122,-104,-17,165,63,19,-73,-131,-161
-151,-87,63,119,-107,-12,165,63,19,-68,-131,-156
-151,-87,63,119,-107,-12,165,63,24,-68,-131,-156
-165,-87,78,126,-122,-4,170,63,29,-63,-131,-161
-175,-78,97,126,-136,9,175,63,34,-68,-126,-165
-175,-68,107,122,-141,19,175,63,34,-68,-126,-165
-175,-63,112,119,-143,24,180,68,29,-68,-126,-165
-180,-53,126,117,-153,36,185,73,29,-63,-126,-170
-180,-48,131,114,-156,41,195,73,29,-58,-126,-170
-190,-39,151,114,-170,56,204,78,39,-58,-126,-170
-185,-34,151,109,-168,58,204,78,48,-53,-122,-165
-190,-24,165,107,-178,70,214,78,58,-48,-122,-165
-200,-14,185,107,-192,85,224,82,58,-43,-122,-165
-204,-4,200,104,-202,97,229,82,58,-39,-117,-165
-219,0,219,109,-219,109,229,92,63,-34,-122,-165
-234,4,239,114,-236,122,234,97,58,-34,-122,-165
-239,9,248,114,-244,129,239,97,73,-39,-122,-170
-253,14,268,119,-261,141,248,97,82,-39,-126,-170
-253,29,283,112,-268,156,263,97,92,-29,-122,-165
-258,53,312,102,-285,183,273,102,102,-19,-112,-165
-268,63,331,102,-300,197,278,107,102,-9,-107,-151
-268,82,351,92,-309,217,283,102,102,0,-97,-146
-273,107,380,82,-326,244,283,102,107,0,-82,-146
-283,117,400,82,-341,258,287,102,117,14,-63,-136
-287,136,424,75,-356,280,287,102,126,24,-58,-126
-287,146,434,70,-361,290,287,102,136,43,-53,-107
-287,161,448,63,-368,305,278,102,136,53,-34,-92
-283,175,458,53,-370,317,273,97,146,68,-24,-82
-278,190,468,43,-373,329,263,97,156,78,-4,-68
-273,204,478,34,-375,341,253,102,170,92,14,-48
-258,214,473,21,-366,344,244,102,175,112,34,-24
-248,224,473,12,-361,348,234,97,180,131,53,-4
-239,229,468,4,-353,348,219,92,190,141,63,19
-219,239,458,-9,-339,348,200,82,195,156,82,34
-195,234,429,-19,-312,331,185,87,200,161,102,53
-175,229,405,-26,-290,317,170,87,209,180,122,78
-156,224,380,-34,-268,302,146,87,214,190,136,87
-136,214,351,-39,-244,283,131,87,214,200,151,97
-107,209,317,-51,-212,263,112,82,219,209,165,107
-87,204,292,-58,-190,248,92,78,224,214,170,117
-63,185,248,-61,-156,217,78,78,219,209,175,131
-43,170,214,-63,-129,192,58,78,209,204,175,131
-24,151,175,-63,-100,163,48,78,190,190,170,126
-9,136,146,-63,-78,141,39,73,185,180,156,122
0,126,126,-63,-63,126,29,78,180,165,151,117
9,102,92,-56,-41,97,19,87,175,156,141,112
19,92,73,-56,-26,82,14,78,161,156,131,102
29,78,48,-53,-9,63,4,78,151,146,122,92
34,68,34,-51,0,51,-4,73,141,131,112,87
39,53,14,-46,12,34,-14,68,122,122,102,78
29,39,9,-34,9,24,-14,58,107,102,87,68
24,29,4,-26,9,17,-19,53,97,87,82,63
34,14,-19,-24,26,-2,-19,48,82,78,78,58
43,14,-29,-29,36,-7,-14,43,73,73,68,48
48,9,-39,-29,43,-14,-14,39,58,68,53,43
48,4,-43,-26,46,-19,-14,39,53,53,48,43
43,-9,-53,-17,48,-31,-19,39,53,53,43,39
43,-9,-53,-17,48,-31,-19,39,43,43,34,39
43,-9,-53,-17,48,-31,-19,39,39,39,29,39
43,-9,-53,-17,48,-31,-19,39,39,34,29,29
43,-9,-53,-17,48,-31,-14,39,34,34,29,29
39,-9,-48,-14,43,-29,-14,39,34,34,29,24
39,-9,-48,-14,43,-29,-14,34,24,34,29,24
39,-14,-53,-12,46,-34,-14,24,19,24,24,14
39,-14,-53,-12,46,-34,-19,19,4,19,14,14
34,-19,-53,-7,43,-36,-24,14,0,9,9,9
39,-14,-53,-12,46,-34,-19,14,0,9,9,9
39,-9,-48,-14,43,-29,-19,14,-4,9,9,9
39,-9,-48,-14,43,-29,-19,14,-4,9,4,4
39,-9,-48,-14,43,-29,-14,14,-9,4,4,4
29,-14,-43,-7,36,-29,-14,14,-9,4,4,4
19,-19,-39,0,29,-29,-14,14,-9,4,0,4
19,-24,-43,2,31,-34,-9,14,-14,0,0,4
14,-29,-43,7,29,-36,-9,9,-19,-4,4,0
19,-29,-48,4,34,-39,-9,9,-19,-4,4,0
24,-29,-53,2,39,-41,-9,9,-19,-4,0,0
24,-24,-48,0,36,-36,-9,14,-9,-4,0,0
24,-19,-43,-2,34,-31,-4,24,0,-4,0,0
24,-14,-39,-4,31,-26,-4,24,4,0,0,0
24,-9,-34,-7,29,-21,0,29,4,4,0,-4
19,-9,-29,-4,24,-19,0,29,9,9,0,-9
19,-9,-29,-4,24,-19,4,34,14,14,0,-9
14,-14,-29,0,21,-21,0,29,14,9,0,-4
0,-19,-19,9,9,-19,-4,24,9,4,0,-4
-4,-29,-24,17,9,-26,-4,29,14,4,0,-19
-9,-39,-29,24,9,-34,-4,29,14,4,0,-19
-9,-29,-19,19,4,-24,9,29,19,9,0,-14
-9,-19,-9,14,0,-14,14,29,19,19,0,-14
-4,-19,-14,12,4,-17,14,29,19,19,0,-19
0,-19,-19,9,9,-19,9,29,24,19,0,-19
0,-24,-24,12,12,-24,9,39,34,24,0,-19
-4,-24,-19,14,7,-21,14,43,34,24,0,-19
-9,-24,-14,17,2,-19,14,43,39,24,0,-19
-9,-24,-14,17,2,-19,14,39,39,24,0,-19
-9,-24,-14,17,2,-19,14,39,39,24,0,-24
-9,-19,-9,14,0,-14,14,39,39,29,0,-24
-4,-19,-14,12,4,-17,19,43,43,29,0,-14
-4,-19,-14,12,4,-17,19,53,43,29,4,-14
-4,-19,-14,12,4,-17,19,53,43,29,4,-14
-4,-19,-14,12,4,-17,19,53,43,29,0,-19
-4,-24,-19,14,7,-21,14,48,39,24,0,-19
-4,-24,-19,14,7,-21,14,48,39,24,0,-19
-4,-24,-19,14,7,-21,14,48,34,24,0,-24
-4,-24,-19,14,7,-21,9,43,29,24,0,-24
-4,-24,-19,14,7,-21,9,43,29,24,0,-24
-4,-24,-19,14,7,-21,9,43,29,19,0,-19
-4,-24,-19,14,7,-21,9,39,34,19,0,-19
-4,-24,-19,14,7,-21,9,39,34,19,0,-19
-4,-24,-19,14,7,-21,9,34,34,19,-4,-19
-9,-24,-14,17,2,-19,9,34,39,14,-4,-19
-9,-29,-19,19,4,-24,4,34,39,14,-9,-19
-9,-29,-19,19,4,-24,4,34,34,14,-9,-19
-4,-29,-24,17,9,-26,0,39,29,14,-4,-19
0,-29,-29,14,14,-29,-4,43,29,14,-4,-19
0,-24,-24,12,12,-24,-4,39,29,14,-9,-19
0,-24,-24,12,12,-24,-4,39,24,9,-9,-19
0,-24,-24,12,12,-24,0,34,24,9,-9,-19
0,-24,-24,12,12,-24,0,29,24,9,-9,-19
0,-29,-29,14,14,-29,0,29,19,4,-9,-24
0,-34,-34,17,17,-34,0,29,14,4,-9,-24
0,-34,-34,17,17,-34,0,24,9,4,-14,-19
-4,-34,-29,19,12,-31,0,19,9,4,-14,-19
-4,-29,-24,17,9,-26,0,14,9,9,-9,-19
0,-29,-29,14,14,-29,0,14,9,9,-9,-19
9,-34,-43,12,26,-39,-4,14,9,0,-9,-24
14,-34,-48,9,31,-41,-9,14,9,0,-9,-24
14,-34,-48,9,31,-41,-9,14,4,0,-9,-24
14,-34,-48,9,31,-41,-9,9,0,-4,-14,-24
9,-29,-39,9,24,-34,0,9,0,-4,-14,-19
4,-24,-29,9,17,-26,0,9,0,-4,-14,-19
4,-24,-29,9,17,-26,0,14,0,0,-9,-19
4,-14,-19,4,12,-17,0,19,0,4,-9,-19
9,-14,-24,2,17,-19,4,19,0,9,-4,-14
9,-9,-19,0,14,-14,4,24,4,14,-4,-14
4,-9,-14,2,9,-12,14,19,4,14,-4,-9
4,-4,-9,0,7,-7,14,9,9,19,0,-9
4,4,0,-4,2,2,14,4,4,24,4,-4
9,19,9,-14,0,14,19,0,0,29,9,0
9,19,9,-14,0,14,19,9,9,29,9,0
9,19,9,-14,0,14,19,19,19,29,9,0
9,19,9,-14,0,14,24,19,24,29,9,0
9,19,9,-14,0,14,24,19,24,29,9,0
14,24,9,-19,2,17,24,19,29,29,14,0
14,24,9,-19,2,17,14,19,34,29,14,4
14,24,9,-19,2,17,14,24,34,29,14,4
14,24,9,-19,2,17,-4,24,34,34,14,9
29,39,9,-34,9,24,-24,9,34,29,29,14
48,63,14,-56,17,39,-48,0,34,29,34,24
58,78,19,-68,19,48,-68,-19,29,39,34,29
63,87,24,-75,19,56,-87,-24,9,39,34,29
63,87,24,-75,19,56,-97,-43,0,34,29,24
68,87,19,-78,24,53,-102,-48,-9,29,29,24
82,92,9,-87,36,51,-112,-48,-9,29,29,39
97,107,9,-102,43,58,-112,-43,0,43,39,53
112,117,4,-114,53,61,-112,-34,0,43,53,58
117,117,0,-117,58,58,-112,-19,9,53,68,63
126,107,-19,-117,73,43,-107,-24,14,53,68,68
136,102,-34,-119,85,34,-102,-19,19,53,68,68
131,102,-29,-117,80,36,-92,-9,19,58,73,73
122,92,-29,-107,75,31,-87,-14,24,63,73,73
97,82,-14,-90,56,34,-73,-9,19,58,63,58
68,73,4,-70,31,39,-58,-4,14,53,53,48
19,39,19,-29,0,29,-24,4,14,43,34,29
-4,19,24,-7,-14,21,-9,14,4,29,24,9
-4,9,14,-2,-9,12,-4,19,9,19,14,0
-4,-4,0,4,-2,-2,-4,24,9,9,9,0
0,-29,-29,14,14,-29,-4,29,9,4,-4,-9
-4,-48,-43,26,19,-46,0,29,14,0,-19,-24
-4,-58,-53,31,24,-56,9,34,9,0,-24,-24
-4,-68,-63,36,29,-65,9,34,4,0,-29,-24
-9,-68,-58,39,24,-63,9,29,-4,0,-29,-24
-14,-68,-53,41,19,-61,9,24,-4,0,-29,-24
-14,-68,-53,41,19,-61,9,29,-4,0,-24,-24
-14,-68,-53,41,19,-61,9,34,0,0,-19,-24
-4,-63,-58,34,26,-61,9,29,0,4,-14,-19
0,-68,-68,34,34,-68,4,29,0,9,-14,-19
-14,-73,-58,43,21,-65,24,39,4,-19,-29,-43
-29,-107,-78,68,24,-92,43,53,4,-63,-82,-87
-58,-161,-102,109,21,-131,82,126,-9,-146,-175,-180
-73,-195,-122,134,24,-158,122,204,43,-146,-209,-204
-73,-200,-126,136,26,-163,161,278,141,-82,-180,-219
-58,-185,-126,122,34,-156,185,336,268,39,-82,-170
-4,-151,-146,78,70,-148,170,414,444,248,82,-58
97,-87,-185,-4,141,-136,97,473,605,517,326,131
229,58,-170,-143,200,-56,-107,424,702,863,697,419
439,185,-253,-312,346,-34,-390,312,761,1200,1088,746
751,292,-458,-522,605,-82,-712,200,917,1615,1551,1180
1039,375,-663,-707,851,-143,-1015,122,1015,1898,1903,1546
1220,395,-824,-807,1022,-214,-1346,-273,561,1649,1839,1595
1224,341,-883,-783,1054,-270,-1590,-834,-356,849,1293,1366
1068,136,-932,-602,1000,-397,-1698,-1517,-1917,-766,73,678
990,-97,-1088,-446,1039,-592,-1712,-1834,-2786,-1795,-741,195
883,-322,-1205,-280,1044,-763,-1659,-1932,-2879,-2078,-1049,-34
692,-366,-1058,-163,875,-712,-1493,-1859,-2742,-2078,-1127,-122
473,-185,-658,-143,566,-422,-1161,-1542,-2191,-1615,-824,48
258,-24,-283,-117,270,-153,-819,-1210,-1605,-1117,-512,190
73,48,-24,-61,48,12,-522,-883,-1161,-800,-361,141
-48,78,126,-14,-87,102,-297,-585,-805,-575,-302,39
-73,48,122,12,-97,85,-161,-395,-556,-448,-278,-58
-92,4,97,43,-95,51,-48,-258,-361,-331,-253,-117
-117,-34,82,75,-100,24,19,-136,-229,-234,-214,-131
-117,-68,48,92,-82,-9,53,-34,-136,-170,-170,-141
-102,-78,24,90,-63,-26,58,0,-78,-151,-161,-141
-102,-92,9,97,-56,-41,82,9,-48,-136,-156,-141
-112,-97,14,104,-63,-41,92,9,-43,-122,-146,-141
-117,-102,14,109,-65,-43,97,19,-39,-117,-141,-141
-117,-102,14,109,-65,-43,97,34,-29,-112,-141,-146
-117,-102,14,109,-65,-43,102,43,-14,-107,-136,-146
-112,-92,19,102,-65,-36,112,43,-9,-97,-136,-146
-107,-82,24,95,-65,-29,117,43,-9,-92,-136,-146
-107,-82,24,95,-65,-29,122,48,-9,-92,-136,-146
-107,-82,24,95,-65,-29,126,53,-4,-87,-131,-146
-107,-82,24,95,-65,-29,126,58,0,-87,-131,-146
-112,-87,24,100,-68,-31,126,58,0,-92,-131,-151
-112,-87,24,100,-68,-31,126,58,0,-92,-131,-151
-112,-87,24,100,-68,-31,126,53,4,-92,-131,-156
-126,-87,39,107,-82,-24,131,53,4,-92,-131,-156
-131,-87,43,109,-87,-21,136,58,4,-92,-136,-156
-131,-87,43,109,-87,-21,141,58,9,-87,-141,-156
-136,-87,48,112,-92,-19,141,63,9,-82,-141,-161
-136,-82,53,109,-95,-14,146,63,4,-82,-141,-165
-141,-82,58,112,-100,-12,151,63,4,-87,-141,-165
-141,-82,58,112,-100,-12,151,63,4,-87,-141,-161
-141,-82,58,112,-100,-12,151,63,4,-82,-141,-161
-151,-73,78,112,-114,2,156,58,4,-87,-141,-165
-151,-73,78,112,-114,2,165,58,9,-87,-141,-165
-151,-68,82,109,-117,7,170,63,9,-87,-141,-165
-151,-68,82,109,-117,7,180,68,14,-87,-141,-165
-165,-68,97,117,-131,14,190,73,19,-82,-146,-170
-175,-63,112,119,-143,24,195,73,24,-82,-146,-170
-180,-58,122,119,-151,31,195,68,19,-78,-146,-165
-185,-53,131,119,-158,39,200,63,14,-78,-146,-165
-190,-43,146,117,-168,51,200,63,19,-73,-146,-170
-190,-39,151,114,-170,56,204,63,19,-68,-146,-170
-195,-29,165,112,-180,68,214,68,29,-68,-146,-175
-195,-29,165,112,-180,68,214,73,39,-63,-141,-175
-209,-24,185,117,-197,80,224,73,48,-58,-141,-175
-219,-14,204,117,-212,95,234,78,53,-53,-141,-175
-224,-4,219,114,-222,107,244,78,58,-48,-136,-175
-229,9,239,109,-234,124,253,82,73,-39,-136,-175
-234,29,263,102,-248,146,263,87,78,-34,-131,-175
-239,39,278,100,-258,158,268,87,82,-34,-126,-175
-258,43,302,107,-280,173,278,87,82,-29,-131,-175
-263,53,317,104,-290,185,287,92,92,-19,-131,-175
-268,73,341,97,-305,207,292,102,102,-9,-122,-175
-278,82,361,97,-319,222,297,112,112,0,-117,-161
-278,102,380,87,-329,241,302,117,126,9,-102,-151
-283,126,409,78,-346,268,302,122,136,9,-92,-146
-292,131,424,80,-358,278,307,122,146,24,-82,-136
-297,146,444,75,-370,295,307,122,156,34,-68,-126
-307,156,463,75,-385,309,307,122,165,58,-53,-107
-317,170,488,73,-402,329,297,122,165,73,-34,-92
-302,190,492,56,-397,341,292,117,175,87,-24,-82
-287,209,497,39,-392,353,283,112,180,97,-4,-68
-283,224,507,29,-395,366,278,112,195,112,14,-48
-268,234,502,17,-385,368,273,112,204,126,34,-24
-263,244,507,9,-385,375,263,107,209,146,58,-4
-258,248,507,4,-383,378,248,102,219,161,73,14
-239,258,497,-9,-368,378,229,92,224,175,92,24
-214,258,473,-21,-344,366,214,92,229,180,107,43
-195,263,458,-34,-326,361,200,92,244,204,126,78
-175,263,439,-43,-307,351,175,97,253,219,146,97
-156,253,409,-48,-283,331,161,97,253,234,165,107
-126,244,370,-58,-248,307,141,92,253,244,180,117
-107,234,341,-63,-224,287,117,82,253,244,180,126
-82,214,297,-65,-190,256,97,78,248,239,185,141
-63,200,263,-68,-163,231,78,78,239,234,185,141
-43,180,224,-68,-134,202,68,78,219,219,180,131
-29,165,195,-68,-112,180,58,82,219,209,165,126
-19,151,170,-65,-95,161,43,82,209,195,161,126
0,122,122,-61,-61,122,29,78,195,185,151,126
19,112,92,-65,-36,102,24,68,180,180,141,122
29,97,68,-63,-19,82,14,78,175,165,136,112
34,87,53,-61,-9,70,9,82,170,151,131,107
34,73,39,-53,-2,56,0,78,151,141,122,97
29,58,29,-43,0,43,-4,68,136,122,107,87
34,43,9,-39,12,26,-9,63,126,107,102,82
34,24,-9,-29,21,7,-14,63,112,97,97,78
43,24,-19,-34,31,2,-14,63,102,92,87,68
58,24,-34,-41,46,-4,-14,58,87,87,73,63
58,29,-29,-43,43,0,-14,53,82,73,68,58
53,19,-34,-36,43,-7,-19,48,82,68,63,48
53,19,-34,-36,43,-7,-19,48,73,53,53,48
53,14,-39,-34,46,-12,-19,43,63,48,48,48
53,4,-48,-29,51,-21,-19,34,53,39,43,39
53,0,-53,-26,53,-26,-19,29,43,34,39,39
48,0,-48,-24,48,-24,-24,29,43,34,39,34
48,0,-48,-24,48,-24,-24,29,34,34,39,34
43,-4,-48,-19,46,-26,-24,29,34,29,34,29
39,-4,-43,-17,41,-24,-24,29,29,29,24,34
34,-4,-39,-14,36,-21,-24,24,29,19,19,29
34,0,-34,-17,34,-17,-19,24,29,19,19,29
39,0,-39,-19,39,-19,-19,19,19,19,19,29
48,0,-48,-24,48,-24,-19,14,14,19,14,24
48,4,-43,-26,46,-19,-14,14,9,14,14,24
43,9,-34,-26,39,-12,-14,14,9,14,14,24
39,9,-29,-24,34,-9,-14,19,9,14,9,24
39,9,-29,-24,34,-9,-9,24,9,14,9,24
24,0,-24,-12,24,-12,-9,19,9,9,14,14
14,-9,-24,-2,19,-17,-9,19,9,4,14,9
9,-19,-29,4,19,-24,-9,19,9,4,4,9
4,-29,-34,12,19,-31,-9,19,9,4,0,9
4,-19,-24,7,14,-21,-4,19,4,4,0,9
4,-9,-14,2,9,-12,-4,14,4,4,0,9
9,-9,-19,0,14,-14,0,19,0,0,0,4
9,-9,-19,0,14,-14,0,19,0,0,0,0
9,-9,-19,0,14,-14,4,24,4,4,0,0
9,-9,-19,0,14,-14,4,24,9,4,0,4
0,-9,-9,4,4,-9,4,24,14,4,0,4
0,-9,-9,4,4,-9,4,29,24,4,0,-9
0,-9,-9,4,4,-9,4,29,24,9,0,-9
0,-9,-9,4,4,-9,14,29,29,14,0,-4
0,-9,-9,4,4,-9,14,29,29,19,0,-4
0,-9,-9,4,4,-9,14,29,29,19,0,-9
0,-9,-9,4,4,-9,9,19,29,14,0,-14
0,-14,-14,7,7,-14,9,19,34,14,0,-19
-4,-14,-9,9,2,-12,14,24,34,14,0,-19
-9,-14,-4,12,-2,-9,14,24,39,14,0,-19
-9,-14,-4,12,-2,-9,14,29,39,19,0,-14
-9,-14,-4,12,-2,-9,14,39,39,24,0,-14
-9,-9,0,9,-4,-4,14,39,43,29,0,-14
-4,-9,-4,7,0,-7,19,39,53,29,0,-4
-9,-14,-4,12,-2,-9,19,39,53,29,4,-9
-14,-19,-4,17,-4,-12,19,34,53,29,4,-14
-14,-19,-4,17,-4,-12,19,34,53,24,0,-19
-14,-24,-9,19,-2,-17,14,29,48,14,0,-19
-9,-24,-14,17,2,-19,14,29,48,14,0,-19
-4,-24,-19,14,7,-21,14,29,43,14,0,-24
-4,-24,-19,14,7,-21,9,29,39,14,0,-19
-4,-24,-19,14,7,-21,9,34,39,14,0,-14
-4,-24,-19,14,7,-21,9,34,39,14,0,-9
-4,-24,-19,14,7,-21,9,29,39,19,0,-9
-4,-19,-14,12,4,-17,9,29,34,19,0,-9
0,-14,-14,7,7,-14,9,29,34,19,-4,-9
0,-14,-14,7,7,-14,9,34,39,14,-4,-9
0,-19,-19,9,9,-19,4,34,39,14,-9,-9
0,-19,-19,9,9,-19,4,39,39,14,-9,-9
0,-19,-19,9,9,-19,4,39,39,14,-4,-9
0,-19,-19,9,9,-19,4,34,39,14,0,-9
0,-14,-14,7,7,-14,4,29,39,14,0,-9
-4,-14,-9,9,2,-12,4,24,29,9,0,-9
-9,-14,-4,12,-2,-9,4,19,24,9,0,-9
-9,-14,-4,12,-2,-9,0,19,24,9,0,-9
-4,-14,-9,9,2,-12,0,19,19,4,0,-14
4,-14,-19,4,12,-17,0,24,19,4,0,-14
9,-14,-24,2,17,-19,0,24,19,4,-4,-9
4,-9,-14,2,9,-12,0,19,19,4,-4,-9
0,-4,-4,2,2,-4,0,19,19,9,0,-9
0,-9,-9,4,4,-9,0,24,19,9,0,-9
4,-14,-19,4,12,-17,-4,24,19,0,0,-14
-4,-19,-14,12,4,-17,-9,24,19,0,-4,-19
-14,-24,-9,19,-2,-17,-9,24,19,4,-9,-24
-4,-24,-19,14,7,-21,-9,19,19,4,-14,-24
4,-19,-24,7,14,-21,0,19,19,4,-14,-19
4,-19,-24,7,14,-21,-4,19,14,4,-14,-19
4,-24,-29,9,17,-26,-9,19,9,4,-9,-19
4,-19,-24,7,14,-21,-9,14,9,0,-9,-19
9,-24,-34,7,21,-29,-4,9,9,0,-4,-14
9,-29,-39,9,24,-34,-4,14,14,4,-4,-14
4,-39,-43,17,24,-41,4,14,14,4,-4,-9
0,-39,-39,19,19,-39,4,4,19,9,0,-9
-4,-29,-24,17,9,-26,0,0,19,9,0,-9
0,-4,-4,2,2,-4,0,4,19,9,0,-9
4,14,9,-9,-2,12,0,9,19,14,4,-4
4,19,14,-12,-4,17,0,9,24,14,4,0
9,24,14,-17,-2,19,4,9,29,14,9,9
14,24,9,-19,2,17,9,9,29,14,9,9
19,29,9,-24,4,19,19,9,29,19,9,9
19,34,14,-26,2,24,19,9,29,24,14,9
19,39,19,-29,0,29,19,9,29,29,19,9
19,39,19,-29,0,29,24,9,24,29,19,9
14,39,24,-26,-4,31,19,9,24,29,19,9
14,43,29,-29,-7,36,14,9,24,29,24,14
14,43,29,-29,-7,36,14,9,24,29,24,14
14,39,24,-26,-4,31,-4,14,29,34,24,14
29,48,19,-39,4,34,-19,9,34,39,39,19
48,73,24,-61,12,48,-39,0,34,48,43,34
58,87,29,-73,14,58,-58,-19,29,48,43,39
63,97,34,-80,14,65,-78,-29,4,39,39,39
63,97,34,-80,14,65,-92,-53,-9,34,29,34
63,92,29,-78,17,61,-102,-58,-19,29,29,34
78,92,14,-85,31,53,-112,-58,-19,29,29,43
97,107,9,-102,43,58,-117,-43,0,43,39,58
112,117,4,-114,53,61,-122,-34,9,43,48,68
126,122,-4,-124,65,58,-122,-29,19,58,68,73
136,112,-24,-124,80,43,-117,-24,24,63,78,78
141,107,-34,-124,87,36,-112,-14,29,63,78,78
141,112,-29,-126,85,41,-102,-4,29,63,78,78
141,112,-29,-126,85,41,-97,-14,34,63,73,78
117,107,-9,-112,63,48,-73,-19,34,58,63,68
68,92,24,-80,21,58,-48,-14,29,53,53,58
24,58,34,-41,-4,46,-24,-9,24,43,34,39
9,39,29,-24,-9,34,-19,0,14,29,24,19
4,24,19,-14,-7,21,-14,4,14,19,14,9
4,4,0,-4,2,2,-14,4,9,9,9,9
4,-19,-24,7,14,-21,-14,9,4,4,0,0
-4,-43,-39,24,17,-41,-9,9,0,-4,-14,-24
-4,-48,-43,26,19,-46,0,14,-9,-9,-19,-34
-9,-48,-39,29,14,-43,0,9,-14,-9,-19,-34
-14,-48,-34,31,9,-41,0,4,-14,-9,-19,-34
-14,-48,-34,31,9,-41,0,4,-4,-9,-14,-34
-14,-48,-34,31,9,-41,0,9,-4,-9,-9,-34
-14,-43,-29,29,7,-36,0,14,4,0,-9,-29
-14,-39,-24,26,4,-31,4,14,9,9,-9,-24
-9,-43,-34,26,12,-39,0,14,9,19,4,-14
-14,-43,-29,29,7,-36,19,34,14,0,0,-34
-39,-78,-39,58,0,-58,43,43,-9,-68,-78,-87
-63,-122,-58,92,-2,-90,82,97,-24,-141,-151,-156
-63,-161,-97,112,17,-129,126,185,43,-131,-190,-185
-53,-175,-122,114,34,-148,146,258,131,-68,-165,-195
-53,-165,-112,109,29,-139,180,312,239,34,-82,-161
9,-126,-136,58,73,-131,151,375,390,209,68,-58
87,-63,-151,-12,119,-107,82,473,600,502,331,141
204,43,-161,-124,183,-58,-92,419,692,790,634,390
439,185,-253,-312,346,-34,-400,287,766,1171,1068,751
697,292,-405,-495,551,-56,-712,117,785,1459,1420,1088
1083,375,-707,-729,895,-165,-1063,102,1010,1849,1864,1532
1278,390,-888,-834,1083,-248,-1385,-224,663,1708,1878,1625
1234,302,-932,-768,1083,-314,-1625,-946,-575,570,1078,1229
1127,131,-995,-629,1061,-431,-1747,-1542,-1844,-732,102,683
1063,-165,-1229,-448,1146,-697,-1761,-1869,-2703,-1737,-732,161
976,-375,-1351,-300,1163,-863,-1708,-1986,-2971,-2191,-1156,-126
741,-385,-1127,-178,934,-756,-1512,-1898,-2757,-2103,-1171,-165
522,-292,-814,-114,668,-553,-1215,-1668,-2327,-1781,-990,-87
292,-63,-356,-114,324,-209,-844,-1278,-1664,-1171,-580,122
97,43,-53,-70,75,-4,-536,-941,-1190,-785,-370,151
-29,34,63,-2,-46,48,-322,-634,-854,-619,-361,4
-82,29,112,26,-97,70,-180,-429,-595,-488,-317,-73
-107,-14,92,61,-100,39,-63,-273,-380,-346,-273,-107
-131,-43,87,87,-109,21,14,-156,-239,-244,-234,-131
-122,-58,63,90,-92,2,43,-63,-156,-185,-175,-131
-112,-68,43,90,-78,-12,58,-14,-82,-151,-156,-131
-112,-82,29,97,-70,-26,87,-4,-53,-131,-156,-131
-117,-82,34,100,-75,-24,97,0,-48,-117,-146,-131
-117,-82,34,100,-75,-24,97,9,-48,-117,-141,-131
-117,-82,34,100,-75,-24,97,19,-39,-112,-141,-136
-117,-78,39,97,-78,-19,102,29,-19,-107,-131,-136
-117,-73,43,95,-80,-14,107,34,-9,-102,-126,-136
-117,-73,43,95,-80,-14,107,34,-9,-97,-126,-136
-117,-73,43,95,-80,-14,112,39,-9,-92,-126,-136
-117,-73,43,95,-80,-14,117,43,-4,-87,-122,-136
-117,-68,48,92,-82,-9,122,48,0,-82,-122,-131
-122,-68,53,95,-87,-7,126,48,0,-87,-122,-131
-122,-68,53,95,-87,-7,126,48,0,-92,-122,-131
-122,-68,53,95,-87,-7,126,43,4,-92,-122,-136
-131,-68,63,100,-97,-2,126,43,4,-92,-122,-136
-131,-68,63,100,-97,-2,126,48,4,-92,-126,-136
-131,-68,63,100,-97,-2,131,48,9,-87,-126,-136
-141,-68,73,104,-107,2,131,53,9,-82,-126,-141
-146,-63,82,104,-114,9,136,53,9,-82,-131,-146
-151,-63,87,107,-119,12,146,53,14,-82,-131,-151
-151,-63,87,107,-119,12,151,53,14,-78,-131,-151
-151,-63,87,107,-119,12,151,58,19,-68,-131,-151
-161,-53,107,107,-134,26,156,58,24,-63,-131,-156
-165,-53,112,109,-139,29,165,58,29,-58,-131,-156
-170,-48,122,109,-146,36,165,63,29,-58,-131,-156
-170,-48,122,109,-146,36,170,68,39,-58,-126,-151
-185,-48,136,117,-161,43,180,73,48,-53,-122,-151
-195,-43,151,119,-173,53,185,73,53,-53,-117,-151
-195,-39,156,117,-175,58,185,73,53,-48,-117,-146
-190,-34,156,112,-173,61,190,73,53,-48,-117,-146
-190,-24,165,107,-178,70,195,73,58,-43,-117,-151
-190,-19,170,104,-180,75,204,73,58,-39,-117,-151
-200,-9,190,104,-195,90,214,78,68,-39,-117,-151
-204,-9,195,107,-200,92,214,82,78,-34,-107,-141
-219,-4,214,112,-217,104,224,87,87,-29,-102,-136
-234,4,239,114,-236,122,239,107,97,-9,-92,-136
-244,14,258,114,-251,136,248,122,107,9,-78,-136
-248,24,273,112,-261,148,253,131,126,19,-78,-136
-253,34,287,109,-270,161,263,136,136,24,-73,-136
-263,34,297,114,-280,165,268,136,141,24,-73,-141
-283,34,317,124,-300,175,278,136,141,29,-78,-141
-292,43,336,124,-314,190,292,146,151,39,-73,-136
-307,63,370,122,-339,217,302,161,161,48,-63,-136
-307,73,380,117,-344,226,307,170,170,53,-58,-122
-297,92,390,102,-344,241,312,170,180,58,-48,-117
-297,117,414,90,-356,265,312,170,185,58,-43,-112
-302,126,429,87,-366,278,317,170,195,73,-34,-97
-307,146,453,80,-380,300,317,175,209,82,-19,-87
-307,156,463,75,-385,309,317,180,224,102,-4,-68
-307,170,478,68,-392,324,312,185,224,112,14,-53
-302,185,488,58,-395,336,312,185,234,126,24,-43
-297,200,497,48,-397,348,302,180,239,136,39,-39
-292,214,507,39,-400,361,292,180,248,151,53,-29
-283,224,507,29,-395,366,283,185,253,165,73,-4
-278,234,512,21,-395,373,273,185,258,180,92,14
-268,244,512,12,-390,378,258,180,273,190,102,43
-248,258,507,-4,-378,383,239,170,283,204,122,63
-224,258,483,-17,-353,370,224,170,287,204,136,73
-204,258,463,-26,-334,361,209,165,297,219,151,87
-185,258,444,-36,-314,351,180,161,292,224,161,97
-165,253,419,-43,-292,336,161,156,283,229,170,107
-131,244,375,-56,-253,309,141,146,283,234,180,117
-107,234,341,-63,-224,287,122,136,283,234,180,126
-78,214,292,-68,-185,253,102,136,278,229,185,141
-53,200,253,-73,-153,226,78,136,268,224,185,141
-34,175,209,-70,-122,192,68,136,248,209,175,131
-19,156,175,-68,-97,165,58,131,244,200,156,122
-9,136,146,-63,-78,141,43,117,229,180,151,117
0,102,102,-51,-51,102,29,107,214,165,141,112
9,92,82,-51,-36,87,19,97,200,161,131,102
19,78,58,-48,-19,68,4,97,190,146,122,92
29,73,43,-51,-7,58,0,92,180,131,112,87
39,63,24,-51,7,43,-4,87,161,122,102,78
48,48,0,-48,24,24,-9,78,146,102,87,68
63,39,-24,-51,43,7,-19,73,136,87,82,63
63,24,-39,-43,51,-7,-24,73,122,78,78,58
63,24,-39,-43,51,-7,-24,73,112,73,68,48
63,24,-39,-43,51,-7,-24,68,97,68,53,39
58,24,-34,-41,46,-4,-24,68,92,53,48,34
53,9,-43,-31,48,-17,-29,58,92,48,43,24
53,9,-43,-31,48,-17,-29,48,82,34,34,19
53,0,-53,-26,53,-26,-24,43,63,29,24,19
53,-9,-63,-21,58,-36,-19,39,48,24,19,9
53,-14,-68,-19,61,-41,-19,34,43,24,19,14
48,-19,-68,-14,58,-43,-24,29,43,24,19,14
48,-19,-68,-14,58,-43,-24,29,39,24,19,14
48,-24,-73,-12,61,-48,-24,24,39,14,14,4
48,-19,-68,-14,58,-43,-24,19,29,9,4,4
43,-19,-63,-12,53,-41,-24,14,29,0,0,0
39,-19,-58,-9,48,-39,-19,24,34,0,0,0
29,-19,-48,-4,39,-34,-19,34,34,0,0,0
29,-24,-53,-2,41,-39,-19,34,34,0,-4,0
29,-29,-58,0,43,-43,-14,34,29,-4,-4,4
24,-29,-53,2,39,-41,-14,34,24,-4,-4,4
19,-29,-48,4,34,-39,-14,34,19,-4,-9,4
19,-24,-43,2,31,-34,-9,29,19,-4,-9,0
14,-19,-34,2,24,-26,-9,19,19,-4,-4,-9
14,-19,-34,2,24,-26,-9,19,19,-4,-4,-9
14,-19,-34,2,24,-26,-9,19,19,-4,-9,-9
14,-14,-29,0,21,-21,-9,19,19,-4,-9,-9
14,-9,-24,-2,19,-17,-4,24,19,-4,-9,-9
14,-9,-24,-2,19,-17,-4,24,24,-4,-4,-4
14,-9,-24,-2,19,-17,0,29,24,-4,0,-4
9,-19,-29,4,19,-24,0,24,24,0,0,-9
9,-29,-39,9,24,-34,4,24,24,4,0,-9
9,-29,-39,9,24,-34,9,24,29,-4,-4,-9
0,-29,-29,14,14,-29,14,24,29,-14,-9,-14
0,-29,-29,14,14,-29,14,39,34,-4,-9,-29
0,-29,-29,14,14,-29,14,48,34,4,-9,-29
0,-29,-29,14,14,-29,19,39,39,4,-9,-29
0,-29,-29,14,14,-29,14,29,39,9,-9,-34
0,-29,-29,14,14,-29,14,29,39,4,-9,-39
0,-29,-29,14,14,-29,9,29,43,0,-9,-39
0,-34,-34,17,17,-34,9,39,53,4,-9,-34
-4,-34,-29,19,12,-31,14,43,53,4,-9,-29
-14,-39,-24,26,4,-31,14,53,58,4,-9,-29
-19,-43,-24,31,2,-34,14,58,58,4,-9,-29
-19,-43,-24,31,2,-34,14,58,63,9,-4,-34
-19,-39,-19,29,0,-29,14,58,68,19,0,-34
-9,-34,-24,21,7,-29,19,58,73,24,0,-24
-4,-29,-24,17,9,-26,19,63,73,29,4,-24
-4,-29,-24,17,9,-26,19,63,73,29,4,-24
-4,-29,-24,17,9,-26,19,63,73,29,0,-29
-4,-34,-29,19,12,-31,14,58,68,19,0,-29
-4,-34,-29,19,12,-31,14,58,68,14,0,-29
-9,-39,-29,24,9,-34,14,58,63,9,-4,-34
-14,-43,-29,29,7,-36,9,53,58,4,-9,-34
-14,-43,-29,29,7,-36,9,53,58,4,-9,-34
-14,-43,-29,29,7,-36,9,53,58,0,-9,-29
-14,-43,-29,29,7,-36,9,48,58,0,-9,-29
-14,-43,-29,29,7,-36,9,48,53,0,-9,-29
0,-43,-43,21,21,-43,9,48,48,0,-14,-29
9,-43,-53,17,31,-48,9,53,48,-4,-14,-29
9,-43,-53,17,31,-48,4,48,48,-4,-19,-29
9,-39,-48,14,29,-43,4,43,43,-4,-19,-29
4,-39,-43,17,24,-41,4,39,39,-4,-14,-34
0,-39,-39,19,19,-39,4,34,39,-4,-14,-39
0,-34,-34,17,17,-34,9,29,43,-4,-19,-39
0,-34,-34,17,17,-34,14,29,43,-9,-19,-39
4,-34,-39,14,21,-36,14,29,48,-9,-19,-34
9,-34,-43,12,26,-39,9,29,53,-9,-19,-29
14,-34,-48,9,31,-41,9,29,48,-9,-19,-34
19,-34,-53,7,36,-43,9,29,43,-4,-19,-34
14,-39,-53,12,34,-46,0,29,39,-4,-19,-29
4,-43,-48,19,26,-46,-9,29,39,-4,-14,-29
0,-43,-43,21,21,-43,-9,29,39,4,-9,-24
0,-48,-48,24,24,-48,-9,34,39,9,-9,-19
4,-48,-53,21,29,-51,-9,34,34,0,-9,-24
4,-43,-48,19,26,-46,-9,34,29,0,-9,-24
4,-43,-48,19,26,-46,-9,34,29,4,-9,-29
4,-43,-48,19,26,-46,-9,29,29,4,-14,-34
4,-43,-48,19,26,-46,0,24,24,0,-24,-34
4,-43,-48,19,26,-46,0,19,19,-4,-34,-39
4,-48,-53,21,29,-51,0,19,19,-4,-29,-39
4,-43,-48,19,26,-46,0,19,19,-4,-29,-39
9,-48,-58,19,34,-53,0,19,19,-9,-29,-39
9,-48,-58,19,34,-53,-4,24,24,-14,-34,-43
4,-53,-58,24,31,-56,4,24,24,-14,-34,-39
4,-58,-63,26,34,-61,4,19,29,-9,-29,-39
4,-48,-53,21,29,-51,0,19,29,-9,-29,-39
9,-39,-48,14,29,-43,0,24,29,-9,-29,-39
14,-48,-63,17,39,-56,0,29,24,-9,-24,-39
14,-48,-63,17,39,-56,0,29,19,-4,-24,-43
9,-53,-63,21,36,-58,4,19,19,0,-24,-39
4,-53,-58,24,31,-56,9,9,14,0,-24,-34
-4,-58,-53,31,24,-56,9,4,14,-4,-24,-34
0,-53,-53,26,26,-53,9,9,14,-14,-19,-34
0,-48,-48,24,24,-48,14,24,19,-4,-14,-29
0,-39,-39,19,19,-39,19,34,24,9,-4,-24
4,-34,-39,14,21,-36,24,24,29,9,0,-24
9,-29,-39,9,24,-34,29,19,39,9,0,-29
9,-19,-29,4,19,-24,29,29,43,14,0,-24
9,-9,-19,0,14,-14,29,39,48,19,0,-19
9,-9,-19,0,14,-14,29,39,48,19,4,-19
9,-9,-19,0,14,-14,29,39,48,19,9,-19
14,0,-14,-7,14,-7,29,39,48,19,9,-19
19,9,-9,-14,14,0,29,39,48,19,9,-19
24,9,-14,-17,19,-2,34,39,48,24,9,-14
24,9,-14,-17,19,-2,34,39,48,24,9,-9
29,14,-14,-21,21,0,39,39,48,29,14,-9
24,14,-9,-19,17,2,34,39,53,29,14,-4
14,4,-9,-9,12,-2,34,39,53,19,4,-9
4,-4,-9,0,7,-7,14,34,53,14,-4,-9
19,19,0,-19,9,9,4,24,53,29,19,0
39,53,14,-46,12,34,-9,19,53,48,34,14
53,87,34,-70,9,61,-29,0,63,63,43,24
63,117,53,-90,4,85,-48,-4,58,68,53,29
63,107,43,-85,9,75,-68,-34,39,53,48,24
68,97,29,-82,19,63,-82,-48,19,39,48,24
87,102,14,-95,36,58,-92,-48,14,39,39,29
107,117,9,-112,48,63,-92,-43,19,53,39,34
122,126,4,-124,58,65,-97,-43,19,43,43,39
126,126,0,-126,63,63,-102,-39,29,43,48,43
126,107,-19,-117,73,43,-97,-39,29,43,48,48
126,92,-34,-109,80,29,-92,-29,29,43,48,48
131,92,-39,-112,85,26,-82,-14,29,48,58,48
131,82,-48,-107,90,17,-78,-14,34,53,63,43
97,68,-29,-82,63,19,-53,0,43,53,53,29
58,53,-4,-56,31,24,-29,14,53,53,43,19
9,19,9,-14,0,14,0,24,53,43,24,0
-14,0,14,7,-14,7,9,34,43,29,14,-19
-14,-14,0,14,-7,-7,14,34,43,19,4,-19
-14,-34,-19,24,2,-26,14,34,39,9,0,-9
-9,-63,-53,36,21,-58,14,39,34,0,-9,-19
-14,-87,-73,51,29,-80,19,39,34,-9,-19,-34
-14,-87,-73,51,29,-80,24,34,19,-9,-19,-43
-14,-87,-73,51,29,-80,19,24,4,-9,-19,-53
-14,-87,-73,51,29,-80,19,24,4,-9,-29,-53
-14,-87,-73,51,29,-80,19,24,14,-9,-39,-53
-14,-87,-73,51,29,-80,24,29,19,-9,-39,-53
-14,-87,-73,51,29,-80,29,34,29,-9,-39,-53
-14,-87,-73,51,29,-80,34,34,29,-4,-29,-43
-19,-97,-78,58,29,-87,34,39,29,0,-24,-39
-34,-102,-68,68,17,-85,53,73,39,-14,-34,-73
-48,-136,-87,92,19,-112,73,112,43,-43,-82,-126
-68,-180,-112,124,21,-146,112,185,53,-112,-156,-200
-73,-204,-131,139,29,-168,151,263,131,-97,-170,-204
-73,-214,-141,143,34,-178,185,317,204,-39,-141,-209
-58,-204,-146,131,43,-175,204,356,307,78,-43,-151
24,-165,-190,70,107,-178,165,444,497,278,136,-19
156,-97,-253,-29,204,-175,68,512,673,536,395,190
322,9,-312,-165,317,-151,-136,375,668,756,663,439
566,97,-468,-331,517,-185,-419,175,624,966,951,727
878,180,-697,-529,788,-258,-746,-68,585,1156,1234,1054
1166,239,-927,-702,1046,-344,-1054,-278,488,1215,1405,1312
1229,263,-966,-746,1098,-351,-1322,-785,-122,873,1220,1244
1117,214,-902,-666,1010,-344,-1503,-1459,-1195,-19,551,897
902,43,-858,-473,880,-407,-1590,-2074,-2483,-1268,-424,307
766,-156,-922,-305,844,-539,-1586,-2322,-3079,-1932,-995,-78
653,-312,-966,-170,810,-639,-1532,-2303,-3020,-2069,-1176,-219
458,-287,-746,-85,602,-517,-1366,-2113,-2732,-1922,-1127,-219
278,-112,-390,-82,334,-251,-1049,-1688,-2137,-1464,-810,-43
102,43,-58,-73,80,-7,-722,-1249,-1507,-971,-483,102
-48,48,97,0,-73,73,-434,-878,-1073,-702,-366,34
-136,9,146,63,-141,78,-219,-536,-727,-527,-341,-87
-151,-9,141,80,-146,65,-92,-312,-458,-380,-287,-136
-161,-43,117,102,-139,36,9,-141,-244,-244,-234,-146
-161,-63,97,112,-129,17,63,-63,-141,-175,-195,-151
-136,-78,58,107,-97,-9,82,-4,-78,-141,-151,-151
-122,-92,29,107,-75,-31,87,43,-19,-122,-146,-151
-122,-112,9,117,-65,-51,112,68,9,-107,-146,-151
-126,-112,14,119,-70,-48,117,58,9,-97,-136,-151
-126,-112,14,119,-70,-48,117,58,9,-97,-131,-151
-126,-117,9,122,-68,-53,112,68,19,-87,-131,-156
-126,-122,4,124,-65,-58,112,73,34,-78,-126,-156
-122,-126,-4,124,-58,-65,117,73,39,-73,-122,-156
-117,-131,-14,124,-51,-73,117,73,39,-73,-117,-156
-117,-131,-14,124,-51,-73,122,78,39,-73,-117,-156
-117,-131,-14,124,-51,-73,126,82,43,-68,-112,-156
-117,-122,-4,119,-56,-63,131,87,48,-68,-122,-161
-122,-117,4,119,-63,-56,136,87,48,-73,-131,-170
-126,-117,9,122,-68,-53,141,92,48,-73,-131,-161
-131,-117,14,124,-73,-51,146,92,53,-73,-131,-156
-141,-117,24,129,-82,-46,146,97,63,-73,-126,-156
-141,-117,24,129,-82,-46,146,107,73,-73,-126,-156
-136,-117,19,126,-78,-48,146,107,78,-68,-126,-156
-136,-117,19,126,-78,-48,141,112,78,-63,-122,-161
-136,-112,24,124,-80,-43,146,112,73,-58,-122,-165
-141,-112,29,126,-85,-41,151,112,73,-58,-122,-165
-141,-112,29,126,-85,-41,151,112,73,-58,-122,-161
-141,-112,29,126,-85,-41,151,112,73,-53,-122,-161
-151,-102,48,126,-100,-26,151,102,68,-53,-117,-165
-151,-102,48,126,-100,-26,156,97,68,-48,-112,-165
-151,-97,53,124,-102,-21,156,102,68,-48,-112,-165
-151,-97,53,124,-102,-21,161,107,73,-48,-112,-165
-165,-102,63,134,-114,-19,170,117,78,-53,-122,-180
-175,-102,73,139,-124,-14,175,122,82,-63,-126,-190
-170,-97,73,134,-122,-12,175,122,82,-58,-126,-185
-165,-92,73,129,-119,-9,180,122,82,-58,-126,-185
-170,-82,87,126,-129,2,185,122,87,-43,-117,-180
-170,-78,92,124,-131,7,195,122,87,-29,-107,-170
-180,-68,112,124,-146,21,204,131,107,-19,-102,-165
-185,-68,117,126,-151,24,204,141,126,-4,-92,-156
-200,-63,136,131,-168,36,214,146,136,-9,-92,-156
-209,-53,156,131,-183,51,224,156,141,-14,-92,-156
-214,-53,161,134,-187,53,224,161,141,-19,-97,-161
-219,-48,170,134,-195,61,224,170,151,-19,-107,-165
-224,-34,190,129,-207,78,234,180,156,-14,-102,-165
-229,-29,200,129,-214,85,239,185,161,-14,-97,-165
-244,-19,224,131,-234,102,253,185,165,4,-87,-161
-244,-4,239,124,-241,117,268,190,180,29,-73,-156
-248,14,263,117,-256,139,273,195,190,39,-63,-156
-258,24,283,117,-270,153,278,200,200,48,-58,-141
-253,43,297,104,-275,170,283,200,209,58,-48,-136
-253,68,322,92,-287,195,283,200,214,58,-43,-136
-263,78,341,92,-302,209,287,209,224,63,-43,-126
-268,97,366,85,-317,231,287,219,234,63,-39,-117
-263,107,370,78,-317,239,287,219,244,82,-24,-97
-258,122,380,68,-319,251,278,219,244,92,-4,-82
-253,136,390,58,-322,263,273,209,253,122,14,-73
-248,151,400,48,-324,275,263,200,258,146,43,-58
-244,170,414,36,-329,292,258,200,263,146,53,-39
-229,185,414,21,-322,300,253,200,263,146,63,-14
-224,195,419,14,-322,307,244,190,268,161,82,4
-219,200,419,9,-319,309,229,180,278,170,92,24
-204,209,414,-2,-309,312,209,165,283,185,112,34
-185,209,395,-12,-290,302,195,161,287,190,126,53
-165,209,375,-21,-270,292,180,156,292,209,141,82
-146,204,351,-29,-248,278,156,156,292,219,156,97
-126,195,322,-34,-224,258,141,156,292,229,170,107
-97,185,283,-43,-190,234,122,151,292,234,180,117
-78,185,263,-53,-170,224,102,141,292,229,180,126
-53,175,229,-61,-141,202,87,136,287,219,185,141
-34,161,195,-63,-114,178,68,136,278,214,180,141
-14,141,156,-63,-85,148,58,136,258,200,170,131
0,126,126,-63,-63,126,53,131,253,190,156,117
9,112,102,-61,-46,107,43,122,239,175,151,107
14,82,68,-48,-26,75,29,112,219,165,141,102
19,73,53,-46,-17,63,24,97,200,161,131,92
24,58,34,-41,-4,46,14,92,190,146,122,78
24,48,24,-36,0,36,9,82,180,131,112,68
29,29,0,-29,14,14,9,78,151,122,97,58
29,9,-19,-19,24,-4,14,68,126,102,78,48
34,0,-34,-17,34,-17,9,63,126,87,73,43
34,-14,-48,-9,41,-31,4,63,122,78,68,39
34,-19,-53,-7,43,-36,4,68,112,63,58,29
39,-24,-63,-7,51,-43,4,68,97,48,43,24
43,-24,-68,-9,56,-46,4,68,92,43,39,24
43,-39,-82,-2,63,-61,0,68,92,48,34,19
43,-39,-82,-2,63,-61,0,68,82,34,24,19
43,-43,-87,0,65,-65,0,63,73,29,19,19
43,-43,-87,0,65,-65,4,53,68,24,19,4
43,-39,-82,-2,63,-61,9,48,63,24,19,0
39,-39,-78,0,58,-58,4,48,63,19,14,-4
39,-39,-78,0,58,-58,4,48,53,14,9,-4
34,-48,-82,7,58,-65,4,43,48,4,4,-14
29,-53,-82,12,56,-68,4,39,39,0,-4,-14
24,-58,-82,17,53,-70,4,29,34,-4,-4,-14
24,-58,-82,17,53,-70,9,24,29,0,0,-9
19,-58,-78,19,48,-68,9,24,24,0,0,-9
19,-58,-78,19,48,-68,9,24,24,0,-4,-14
19,-58,-78,19,48,-68,14,29,24,-4,-9,-19
14,-58,-73,21,43,-65,14,34,29,-4,-14,-24
9,-53,-63,21,36,-58,14,34,29,-4,-19,-24
9,-48,-58,19,34,-53,19,34,29,-4,-19,-24
4,-48,-53,21,29,-51,19,29,29,0,-9,-29
4,-48,-53,21,29,-51,19,29,29,4,-4,-29
9,-48,-58,19,34,-53,19,34,29,4,-9,-29
14,-48,-63,17,39,-56,19,39,29,4,-9,-29
14,-53,-68,19,41,-61,24,43,29,0,-9,-29
14,-58,-73,21,43,-65,24,43,34,-4,-9,-29
4,-58,-63,26,34,-61,29,48,34,-4,-9,-29
-9,-58,-48,34,19,-53,29,48,39,0,-9,-29
-9,-58,-48,34,19,-53,34,53,43,9,-4,-29
-9,-58,-48,34,19,-53,34,53,48,14,0,-24
-14,-58,-43,36,14,-51,34,53,48,19,0,-24
-9,-58,-48,34,19,-53,34,58,53,24,0,-39
-9,-53,-43,31,17,-48,34,58,53,24,0,-39
-9,-48,-39,29,14,-43,43,58,58,24,0,-34
-9,-48,-39,29,14,-43,43,58,58,24,0,-34
-9,-48,-39,29,14,-43,43,58,58,19,0,-39
-9,-48,-39,29,14,-43,39,53,58,19,0,-39
-9,-53,-43,31,17,-48,39,58,63,24,0,-39
0,-53,-53,26,26,-53,43,63,63,24,-4,-39
9,-53,-63,21,36,-58,43,63,68,24,-9,-39
-4,-53,-48,29,21,-51,43,58,68,24,-9,-39
-19,-53,-34,36,7,-43,43,58,68,24,-9,-43
-19,-48,-29,34,4,-39,43,58,73,29,-4,-43
-14,-48,-34,31,9,-41,48,58,82,29,0,-34
-14,-48,-34,31,9,-41,48,73,82,29,4,-34
-14,-48,-34,31,9,-41,48,82,82,29,4,-34
-14,-48,-34,31,9,-41,48,73,78,29,-4,-39
-14,-53,-39,34,12,-46,43,58,68,24,-9,-39
-14,-53,-39,34,12,-46,43,58,68,24,-9,-39
-14,-53,-39,34,12,-46,43,58,63,24,-9,-43
-9,-53,-43,31,17,-48,39,53,58,24,-9,-43
-4,-53,-48,29,21,-51,39,53,58,24,-9,-43
-4,-58,-53,31,24,-56,34,53,53,9,-9,-43
-4,-63,-58,34,26,-61,29,48,48,0,-9,-48
-4,-63,-58,34,26,-61,29,48,43,9,-4,-48
0,-63,-63,31,31,-63,29,48,43,19,-4,-48
0,-63,-63,31,31,-63,34,58,53,14,-4,-43
0,-68,-68,34,34,-68,34,63,58,14,-9,-39
-9,-68,-58,39,24,-63,39,63,53,14,-14,-39
-19,-68,-48,43,14,-58,43,58,48,14,-14,-39
-19,-68,-48,43,14,-58,43,53,48,14,-14,-39
-19,-63,-43,41,12,-53,43,48,48,14,-19,-39
-9,-63,-53,36,21,-58,39,48,43,9,-19,-39
0,-63,-63,31,31,-63,34,48,43,9,-19,-39
0,-63,-63,31,31,-63,29,48,43,9,-19,-39
4,-63,-68,29,36,-65,29,48,39,4,-19,-43
9,-63,-73,26,41,-68,29,34,29,4,-19,-48
9,-63,-73,26,41,-68,29,14,19,4,-24,-48
0,-68,-68,34,34,-68,29,19,19,0,-24,-48
-9,-73,-63,41,26,-68,29,29,19,0,-19,-48
-19,-78,-58,48,19,-68,29,34,19,0,-19,-48
-24,-82,-58,53,17,-70,24,34,19,-9,-19,-53
-14,-78,-63,46,24,-70,19,34,19,-9,-19,-48
-4,-73,-68,39,31,-70,19,34,19,-4,-19,-43
-4,-73,-68,39,31,-70,19,29,19,-4,-24,-43
-4,-68,-63,36,29,-65,29,29,19,-4,-24,-39
-4,-68,-63,36,29,-65,29,29,14,-4,-24,-43
-4,-73,-68,39,31,-70,29,29,9,-4,-19,-48
-4,-63,-58,34,26,-61,29,24,9,0,-19,-48
0,-63,-63,31,31,-63,34,19,9,9,-14,-43
0,-48,-48,24,24,-48,34,24,14,14,-14,-43
-4,-39,-34,21,14,-36,43,24,19,19,-9,-39
0,-24,-24,12,12,-24,43,29,24,19,-4,-29
4,-14,-19,4,12,-17,43,34,34,19,-4,-24
4,-4,-9,0,7,-7,48,34,34,24,0,-19
9,0,-9,-4,9,-4,58,39,39,29,9,-19
9,0,-9,-4,9,-4,58,39,39,29,9,-19
