I,II,III,aVR,aVL,aVF,V1,V2,V3,V4,V5,V6,
9,9,0,-9,4,4,-78,-58,-29,-19,-29,-19
4,4,0,-4,2,2,-68,-53,-29,-24,-29,-24
0,0,0,0,0,0,-58,-48,-29,-29,-29,-29
0,0,0,0,0,0,-48,-43,-29,-29,-29,-29
0,0,0,0,0,0,-39,-39,-29,-29,-29,-29
0,0,0,0,0,0,-29,-29,-24,-29,-29,-24
0,0,0,0,0,0,-19,-19,-19,-29,-29,-19
0,0,0,0,0,0,-19,-14,-19,-29,-29,-19
0,0,0,0,0,0,-19,-9,-19,-29,-29,-19
4,0,-4,-2,4,-2,-19,0,-24,-29,-34,-24
9,0,-9,-4,9,-4,-19,9,-29,-29,-39,-29
9,-9,-19,0,14,-14,-9,19,-29,-29,-39,-29
9,-19,-29,4,19,-24,0,29,-29,-29,-39,-29
9,-19,-29,4,19,-24,0,29,-34,-34,-39,-29
9,-19,-29,4,19,-24,0,29,-39,-39,-39,-29
-4,-19,-14,12,4,-17,9,-24,-48,-39,-43,-29
-19,-19,0,19,-9,-9,19,-78,-58,-39,-48,-29
-24,-24,0,24,-12,-12,39,-112,-63,-43,-48,-29
-29,-29,0,29,-14,-14,58,-146,-68,-48,-48,-29
-39,-43,-4,41,-17,-24,73,-136,-73,-58,-48,-34
-48,-58,-9,53,-19,-34,87,-126,-78,-68,-48,-39
-48,-48,0,48,-24,-24,92,-122,-78,-68,-48,-39
-48,-39,9,43,-29,-14,97,-117,-78,-68,-48,-39
-43,-39,4,41,-24,-17,97,-107,-73,-58,-43,-34
-39,-39,0,39,-19,-19,97,-97,-68,-48,-39,-29
-34,-34,0,34,-17,-17,78,-87,-68,-48,-39,-29
-29,-29,0,29,-14,-14,58,-78,-68,-48,-39,-29
-14,-29,-14,21,0,-21,29,-73,-73,-48,-39,-29
0,-29,-29,14,14,-29,0,-68,-78,-48,-39,-29
0,-29,-29,14,14,-29,-19,-63,-78,-48,-39,-29
0,-29,-29,14,14,-29,-39,-58,-78,-48,-39,-29
4,-24,-29,9,17,-26,-58,-58,-78,-48,-39,-29
9,-19,-29,4,19,-24,-78,-58,-78,-48,-39,-29
9,-19,-29,4,19,-24,-78,-53,-68,-43,-34,-24
9,-19,-29,4,19,-24,-78,-48,-58,-39,-29,-19
4,-9,-14,2,9,-12,-68,-39,-48,-34,-29,-19
0,0,0,0,0,0,-58,-29,-39,-29,-29,-19
0,9,9,-4,-4,9,-58,-29,-34,-29,-29,-19
0,19,19,-9,-9,19,-58,-29,-29,-29,-29,-19
0,19,19,-9,-9,19,-58,-24,-24,-24,-24,-19
0,19,19,-9,-9,19,-58,-19,-19,-19,-19,-19
0,19,19,-9,-9,19,-63,-19,-19,-19,-19,-19
0,19,19,-9,-9,19,-68,-19,-19,-19,-19,-19
9,19,9,-14,0,14,-68,4,-14,-9,-9,-9
19,19,0,-19,9,9,-68,29,-9,0,0,0
24,19,-4,-21,14,7,-68,39,4,0,0,0
29,19,-9,-24,19,4,-68,48,19,0,0,0
29,19,-9,-24,19,4,-68,-19,4,0,0,0
29,19,-9,-24,19,4,-68,-87,-9,0,0,0
19,9,-9,-14,14,0,-63,-122,-29,-14,-9,-4
9,0,-9,-4,9,-4,-58,-156,-48,-29,-19,-9
9,-4,-14,-2,12,-9,-48,-141,-48,-29,-24,-19
9,-9,-19,0,14,-14,-39,-126,-48,-29,-29,-29
9,-14,-24,2,17,-19,-29,-122,-48,-29,-29,-19
9,-19,-29,4,19,-24,-19,-117,-48,-29,-29,-9
4,-19,-24,7,14,-21,-9,-117,-43,-29,-29,-9
0,-19,-19,9,9,-19,0,-117,-39,-29,-29,-9
-4,-14,-9,9,2,-12,14,-112,-39,-29,-29,-14
-4,-4,0,4,-2,-2,24,-102,-39,-24,-24,-14
-9,0,9,4,-9,4,39,-97,-39,-24,-19,-14
-9,0,9,4,-9,4,48,-92,-34,-24,-19,-14
-4,0,4,2,-4,2,53,-82,-29,-14,-14,-9
-4,0,4,2,-4,2,63,-78,-24,-9,-4,-4
-4,4,9,0,-7,7,63,-73,-24,-4,-4,-4
0,9,9,-4,-4,9,58,-63,-29,-4,-4,-4
0,9,9,-4,-4,9,48,-63,-29,-4,-4,-4
4,0,-4,-2,4,-2,29,-63,-29,-4,-4,-4
14,9,-4,-12,9,2,4,-53,-29,-4,-9,0
19,9,-9,-14,14,0,-14,-48,-29,-4,-9,9
24,19,-4,-21,14,7,-29,-48,-39,-9,-14,-4
24,29,4,-26,9,17,-48,-43,-43,-19,-19,-19
14,14,0,-14,7,7,-53,-34,-43,-19,-19,-19
9,4,-4,-7,7,0,-48,-24,-43,-14,-19,-19
4,4,0,-4,2,2,-48,-24,-43,-14,-19,-19
0,4,4,-2,-2,4,-43,-24,-39,-9,-14,-19
-4,9,14,-2,-9,12,-43,-24,-34,-9,-14,-19
-4,14,19,-4,-12,17,-43,-24,-29,-9,-14,-14
0,19,19,-9,-9,19,-48,-24,-29,-9,-14,-14
0,19,19,-9,-9,19,-48,-19,-24,-9,-14,-14
0,19,19,-9,-9,19,-48,-14,-19,-4,-9,-9
0,19,19,-9,-9,19,-48,-9,-14,0,-4,-4
9,14,4,-12,2,9,-43,9,-14,0,-4,-4
14,9,-4,-12,9,2,-39,14,-14,0,-4,-4
14,9,-4,-12,9,2,-39,14,-14,0,-4,-4
19,9,-9,-14,14,0,-39,24,-14,0,-4,-4
29,4,-24,-17,26,-9,-53,34,-24,-9,-4,-9
34,4,-29,-19,31,-12,-68,43,-24,-14,-9,-9
34,9,-24,-21,29,-7,-68,9,-34,-24,-14,-19
34,9,-24,-21,29,-7,-68,-24,-39,-29,-14,-24
9,-9,-19,0,14,-14,-39,-102,-53,-39,-24,-29
-14,-24,-9,19,-2,-17,-14,-170,-73,-53,-34,-34
-19,-39,-19,29,0,-29,-4,-165,-73,-53,-34,-34
-19,-43,-24,31,2,-34,0,-156,-78,-58,-34,-34
-24,-43,-19,34,-2,-31,9,-156,-78,-58,-34,-34
-24,-43,-19,34,-2,-31,19,-151,-73,-53,-34,-34
-24,-48,-24,36,0,-36,39,-151,-73,-43,-39,-34
-24,-58,-34,41,4,-46,53,-136,-63,-34,-39,-34
-24,-58,-34,41,4,-46,53,-122,-58,-39,-34,-34
-19,-39,-19,29,0,-29,53,-48,19,4,-4,-19
34,14,-19,-24,26,-2,78,136,248,190,112,34
122,102,-19,-112,70,41,87,395,551,458,287,136
156,200,43,-178,56,122,97,605,844,736,492,268
278,370,92,-324,92,231,34,717,1239,1200,897,580
463,619,156,-541,153,387,-117,663,1712,1800,1434,1019
653,834,180,-744,236,507,-258,561,1961,2220,1873,1424
824,995,170,-910,326,583,-483,268,1781,2293,2117,1732
1019,1205,185,-1112,417,695,-844,-658,1268,2293,2318,2059
1312,1429,117,-1371,597,773,-1278,-1717,610,2225,2464,2430
1537,1512,-24,-1525,780,744,-1595,-2557,-229,1678,2191,2410
1742,1156,-585,-1449,1163,285,-1659,-2879,-1058,658,1376,1966
1586,668,-917,-1127,1251,-124,-1498,-2737,-1790,-434,453,1342
780,453,-326,-617,553,63,-1195,-2674,-2093,-1063,-53,907
214,234,19,-224,97,126,-839,-2147,-1854,-1195,-390,424
78,126,48,-102,14,87,-610,-1439,-1371,-1000,-434,136
-19,117,136,-48,-78,126,-439,-936,-854,-678,-361,-4
-43,34,78,4,-61,56,-239,-444,-463,-414,-258,-58
-87,-34,53,61,-70,9,-68,-87,-234,-253,-190,-112
-87,-53,34,70,-61,-9,-19,48,-131,-175,-136,-122
-87,-73,14,80,-51,-29,14,107,-73,-141,-136,-131
-87,-78,9,82,-48,-34,29,131,-58,-136,-151,-141
-82,-82,0,82,-41,-41,29,161,-53,-126,-146,-141
-82,-82,0,82,-41,-41,29,175,-53,-112,-131,-146
-82,-92,-9,87,-36,-51,34,190,-48,-112,-131,-151
-73,-107,-34,90,-19,-70,53,229,-43,-107,-131,-151
-68,-117,-48,92,-9,-82,63,258,-43,-102,-131,-151
-68,-126,-58,97,-4,-92,68,204,-48,-102,-126,-151
-68,-126,-58,97,-4,-92,73,146,-53,-107,-126,-151
-78,-136,-58,107,-9,-97,78,102,-48,-107,-122,-151
-92,-126,-34,109,-29,-80,82,63,-43,-102,-122,-151
-97,-122,-24,109,-36,-73,87,58,-39,-97,-122,-151
-97,-117,-19,107,-39,-68,92,63,-29,-97,-117,-151
-102,-117,-14,109,-43,-65,92,68,-19,-97,-117,-151
-102,-117,-14,109,-43,-65,102,78,-19,-92,-117,-151
-107,-117,-9,112,-48,-63,117,78,-14,-92,-112,-151
-107,-112,-4,109,-51,-58,126,87,-4,-87,-112,-151
-102,-112,-9,107,-46,-61,126,92,-4,-87,-112,-151
-102,-112,-9,107,-46,-61,126,107,0,-82,-112,-151
-102,-112,-9,107,-46,-61,131,112,-4,-82,-107,-151
-97,-112,-14,104,-41,-63,141,117,-4,-82,-107,-151
-102,-107,-4,104,-48,-56,146,126,0,-82,-117,-165
-107,-102,4,104,-56,-48,146,126,-4,-87,-126,-180
-107,-102,4,104,-56,-48,156,136,4,-87,-126,-170
-102,-97,4,100,-53,-46,156,141,4,-87,-126,-165
-102,-97,4,100,-53,-46,161,161,19,-73,-117,-161
-102,-107,-4,104,-48,-56,175,190,39,-63,-102,-156
-97,-102,-4,100,-46,-53,195,214,53,-58,-97,-151
-97,-82,14,90,-56,-34,180,234,68,-53,-97,-151
-87,-73,14,80,-51,-29,156,268,78,-34,-87,-146
-82,-68,14,75,-48,-26,141,297,97,-19,-68,-141
-82,-78,4,80,-43,-36,131,322,112,-9,-58,-131
-82,-78,4,80,-43,-36,126,346,122,-4,-48,-122
-73,-78,-4,75,-34,-41,112,366,126,0,-53,-131
-63,-78,-14,70,-24,-46,102,390,126,4,-53,-136
-58,-82,-24,70,-17,-53,97,419,136,9,-58,-131
-58,-92,-34,75,-12,-63,97,448,146,19,-58,-122
-58,-102,-43,80,-7,-73,92,483,136,4,-63,-131
-58,-107,-48,82,-4,-78,92,507,126,-9,-73,-151
-63,-117,-53,90,-4,-85,97,512,112,-29,-87,-165
-78,-146,-68,112,-4,-107,107,546,97,-39,-97,-180
-97,-151,-53,124,-21,-102,122,483,87,-58,-117,-185
-117,-151,-34,134,-41,-92,136,409,78,-78,-141,-195
-126,-165,-39,146,-43,-102,146,405,63,-87,-151,-214
-136,-175,-39,156,-48,-107,156,409,53,-97,-161,-224
-146,-175,-29,161,-58,-102,165,419,48,-112,-165,-239
-161,-175,-14,168,-73,-95,175,424,39,-122,-180,-253
-165,-190,-24,178,-70,-107,200,458,53,-122,-190,-268
-175,-185,-9,180,-82,-97,214,468,43,-141,-204,-278
-195,-185,9,190,-102,-87,224,478,43,-151,-214,-292
-209,-185,24,197,-117,-80,234,492,43,-156,-224,-302
-214,-190,24,202,-119,-82,244,497,43,-180,-244,-317
-229,-195,34,212,-131,-80,258,517,39,-190,-268,-331
-239,-200,39,219,-139,-80,263,531,34,-209,-283,-351
-258,-204,53,231,-156,-75,273,541,29,-229,-302,-366
-273,-204,68,239,-170,-68,287,536,24,-248,-312,-375
-287,-204,82,246,-185,-61,292,531,19,-268,-331,-390
-302,-200,102,251,-202,-48,317,512,4,-302,-356,-405
-322,-190,131,256,-226,-29,326,488,-19,-322,-375,-419
-331,-190,141,261,-236,-24,336,468,-29,-336,-385,-429
-341,-185,156,263,-248,-14,341,439,-43,-351,-395,-439
-356,-180,175,268,-265,-2,341,414,-48,-356,-405,-439
-375,-180,195,278,-285,7,341,366,-53,-361,-409,-444
-375,-170,204,273,-290,17,331,351,-68,-370,-409,-444
-375,-156,219,265,-297,31,322,336,-73,-370,-405,-439
-370,-151,219,261,-295,34,322,312,-78,-370,-400,-424
-356,-131,224,244,-290,46,307,278,-82,-366,-400,-414
-336,-122,214,229,-275,46,292,248,-92,-361,-385,-400
-322,-112,209,217,-265,48,283,229,-97,-346,-361,-375
-307,-82,224,195,-265,70,268,204,-117,-326,-341,-356
-283,-73,209,178,-246,68,258,190,-117,-307,-317,-326
-253,-58,195,156,-224,68,229,180,-87,-283,-283,-302
-219,-39,180,129,-200,70,214,175,-78,-248,-248,-263
-209,-29,180,119,-195,75,209,68,-78,-239,-219,-239
-200,-4,195,102,-197,95,195,-29,-78,-219,-209,-214
-180,4,185,87,-183,95,156,-87,-78,-195,-185,-195
-156,4,161,75,-158,82,102,-136,-82,-161,-161,-175
-122,4,126,58,-124,65,48,-131,-73,-141,-146,-146
-92,-4,87,48,-90,41,-19,-117,-63,-126,-126,-122
-73,-4,68,39,-70,31,-39,-122,-68,-117,-107,-97
-53,4,58,24,-56,31,-58,-112,-73,-107,-92,-82
-34,4,39,14,-36,21,-73,-107,-68,-97,-82,-73
-24,4,29,9,-26,17,-82,-102,-68,-87,-73,-58
-9,9,19,0,-14,14,-92,-97,-68,-82,-68,-53
0,4,4,-2,-2,4,-102,-87,-63,-68,-53,-43
19,0,-19,-9,19,-9,-102,-87,-58,-48,-43,-34
24,-4,-29,-9,26,-17,-102,-82,-48,-39,-29,-24
29,-4,-34,-12,31,-19,-107,-78,-43,-29,-19,-14
34,9,-24,-21,29,-7,-112,-68,-39,-29,-19,-14
34,29,-4,-31,19,12,-112,-68,-39,-29,-19,-9
34,14,-19,-24,26,-2,-107,-68,-29,-24,-19,0
34,-9,-43,-12,39,-26,-102,-53,-24,-19,-14,0
39,-29,-68,-4,53,-48,-97,-39,-24,-19,-9,0
43,-9,-53,-17,48,-31,-97,-43,-29,-19,-9,-4
48,0,-48,-24,48,-24,-97,-43,-34,-19,-9,-9
43,0,-43,-21,43,-21,-92,-39,-34,-19,-9,-9
43,-4,-48,-19,46,-26,-82,-29,-34,-19,-9,-9
43,-4,-48,-19,46,-26,-78,-19,-34,-19,-9,-9
43,0,-43,-21,43,-21,-73,-19,-34,-19,-9,-9
43,-9,-53,-17,48,-31,-68,-14,-39,-19,-9,-9
39,-9,-48,-14,43,-29,-68,-14,-43,-19,-14,-9
39,4,-34,-21,36,-14,-68,0,-39,-14,-4,-4
39,14,-24,-26,31,-4,-68,14,-34,-9,0,4
43,14,-29,-29,36,-7,-63,29,-24,0,4,4
43,9,-34,-26,39,-12,-53,43,-9,4,9,9
29,4,-24,-17,26,-9,-39,0,0,4,9,9
19,0,-19,-9,19,-9,-29,-48,4,9,9,9
0,0,0,0,0,0,-4,-112,-4,-4,4,4
-19,0,19,9,-19,9,19,-175,-19,-19,0,0
-29,0,29,14,-29,14,43,-165,-19,-19,-4,-4
-39,0,39,19,-39,19,68,-156,-19,-19,-9,-9
-39,0,39,19,-39,19,78,-151,-19,-19,-9,-14
-39,0,39,19,-39,19,87,-136,-19,-14,-4,-14
-39,-4,34,21,-36,14,102,-122,-19,-14,-4,-14
-39,-19,19,29,-29,0,117,-102,-14,-14,-9,-14
-34,-19,14,26,-24,-2,126,-78,-14,-14,-14,-19
-34,-19,14,26,-24,-2,141,-58,-14,-19,-14,-24
-39,-29,9,34,-24,-9,146,-53,-14,-19,-14,-24
-39,-39,0,39,-19,-19,146,-43,-19,-24,-14,-24
-34,-19,14,26,-24,-2,117,-43,-19,-24,-14,-24
-24,-9,14,17,-19,2,78,-43,-19,-24,-14,-24
-4,14,19,-4,-12,17,0,-43,-14,-14,-14,-24
9,29,19,-19,-4,24,-73,-48,-9,-4,-9,-19
19,29,9,-24,4,19,-97,-53,-14,-4,-9,-19
24,29,4,-26,9,17,-126,-53,-14,-9,-9,-19
24,19,-4,-21,14,7,-136,-53,-19,-14,-9,-19
29,14,-14,-21,21,0,-136,-53,-24,-14,-9,-19
29,9,-19,-19,24,-4,-136,-48,-39,-19,-14,-24
29,4,-24,-17,26,-9,-131,-43,-48,-19,-14,-29
29,-4,-34,-12,31,-19,-122,-34,-48,-19,-14,-29
34,-14,-48,-9,41,-31,-112,-24,-48,-19,-14,-24
39,-9,-48,-14,43,-29,-112,-19,-48,-19,-14,-19
39,-9,-48,-14,43,-29,-107,-9,-43,-19,-14,-14
43,-14,-58,-14,51,-36,-107,0,-48,-24,-14,-14
48,-19,-68,-14,58,-43,-107,9,-53,-29,-14,-14
48,-19,-68,-14,58,-43,-102,24,-53,-29,-14,-14
43,-19,-63,-12,53,-41,-97,24,-53,-29,-14,-14
39,-9,-48,-14,43,-29,-112,-4,-43,-24,-14,-14
39,0,-39,-19,39,-19,-126,-24,-34,-19,-14,-14
29,-14,-43,-7,36,-29,-112,-73,-34,-19,-9,-14
14,-24,-39,4,26,-31,-97,-122,-24,-14,-9,-9
4,-29,-34,12,19,-31,-63,-126,-39,-19,-14,-14
-4,-39,-34,21,14,-36,-29,-131,-48,-19,-14,-14
-19,-29,-9,24,-4,-19,-9,-146,-48,-29,-19,-19
-34,-14,19,24,-26,2,4,-151,-53,-43,-24,-24
-39,-34,4,36,-21,-14,29,-146,-53,-34,-24,-24
-39,-43,-4,41,-17,-24,48,-136,-58,-29,-24,-24
-43,-43,0,43,-21,-21,63,-131,-63,-29,-24,-24
-43,-43,0,43,-21,-21,78,-122,-63,-24,-24,-24
-53,-29,24,41,-39,-2,92,-122,-68,-34,-34,-29
-63,-19,43,41,-53,12,102,-107,-63,-43,-39,-34
-63,-39,24,51,-43,-7,117,-107,-82,-58,-43,-39
-58,-39,19,48,-39,-9,131,-48,-29,-24,-24,-29
-4,-9,-4,7,0,-7,161,136,180,136,78,14
82,53,-29,-68,56,12,175,395,463,380,239,107
117,126,9,-122,53,68,209,639,732,619,400,204
239,273,34,-256,102,153,170,785,1102,1044,761,483
434,546,112,-490,161,329,-4,761,1668,1708,1332,927
634,785,151,-710,241,468,-170,688,2010,2191,1805,1337
805,946,141,-875,331,544,-375,541,1956,2308,2069,1654
1000,1156,156,-1078,422,656,-717,-239,1571,2352,2288,1991
1312,1478,165,-1395,573,822,-1220,-1381,956,2400,2557,2440
1556,1659,102,-1607,727,880,-1605,-2303,161,1971,2405,2498
1834,1302,-531,-1568,1183,385,-1712,-2732,-746,932,1566,2054
1751,814,-936,-1283,1344,-61,-1595,-2698,-1556,-180,619,1429
883,590,-292,-736,588,148,-1283,-2742,-1991,-912,73,995
253,361,107,-307,73,234,-917,-2322,-1883,-1146,-302,512
117,244,126,-180,-4,185,-697,-1566,-1415,-971,-366,209
19,224,204,-122,-92,214,-536,-1015,-912,-668,-312,53
14,112,97,-63,-41,104,-341,-483,-478,-385,-209,0
-9,14,24,-2,-17,19,-175,-87,-204,-204,-141,-53
-9,-9,0,9,-4,-4,-126,29,-102,-126,-87,-73
-9,-34,-24,21,7,-29,-92,68,-43,-92,-87,-92
-29,-68,-39,48,4,-53,-43,43,-24,-87,-102,-107
-43,-102,-58,73,7,-80,-9,24,-14,-78,-97,-112
-63,-92,-29,78,-17,-61,-4,14,-24,-73,-92,-117
-82,-92,-9,87,-36,-51,4,4,-29,-82,-102,-122
-78,-97,-19,87,-29,-58,29,24,-19,-78,-102,-122
-78,-97,-19,87,-29,-58,43,34,-14,-73,-102,-122
-82,-107,-24,95,-29,-65,68,48,-19,-68,-97,-122
-87,-107,-19,97,-34,-63,92,58,-24,-68,-97,-122
-87,-126,-39,107,-24,-82,107,73,-24,-68,-92,-122
-92,-126,-34,109,-29,-80,122,92,-24,-63,-92,-122
-102,-122,-19,112,-41,-70,131,92,-24,-58,-92,-126
-107,-117,-9,112,-48,-63,141,102,-19,-58,-87,-131
-112,-117,-4,114,-53,-61,136,107,-9,-63,-87,-131
-112,-117,-4,114,-53,-61,141,117,-9,-63,-87,-131
-117,-122,-4,119,-56,-63,156,117,-9,-63,-82,-131
-117,-122,-4,119,-56,-63,165,126,-4,-58,-82,-131
-117,-102,14,109,-65,-43,165,131,-4,-63,-92,-141
-122,-82,39,102,-80,-21,165,146,0,-63,-102,-151
-126,-92,34,109,-80,-29,180,170,4,-63,-97,-151
-126,-102,24,114,-75,-39,200,195,14,-63,-97,-151
-122,-107,14,114,-68,-46,204,214,24,-53,-97,-146
-117,-112,4,114,-61,-53,204,224,24,-48,-97,-141
-117,-117,0,117,-58,-58,200,244,34,-48,-87,-136
-112,-117,-4,114,-53,-61,185,258,34,-48,-78,-136
-107,-117,-9,112,-48,-63,180,273,39,-34,-78,-131
-102,-126,-24,114,-39,-75,185,297,48,-24,-73,-126
-97,-126,-29,112,-34,-78,190,312,58,-19,-68,-122
-97,-112,-14,104,-41,-63,161,322,68,-14,-68,-122
-87,-107,-19,97,-34,-63,112,326,73,-9,-68,-122
-82,-107,-24,95,-29,-65,73,326,87,-9,-58,-122
-78,-112,-34,95,-21,-73,39,287,102,4,-48,-117
-73,-107,-34,90,-19,-70,9,248,112,14,-39,-112
-73,-107,-34,90,-19,-70,9,239,117,14,-48,-112
-73,-107,-34,90,-19,-70,14,234,117,14,-53,-107
-73,-102,-29,87,-21,-65,14,253,112,0,-68,-122
-78,-102,-24,90,-26,-63,19,273,107,-9,-78,-131
-78,-107,-29,92,-24,-68,34,297,102,-24,-82,-131
-78,-107,-29,92,-24,-68,53,312,97,-39,-92,-141
-73,-107,-34,90,-19,-70,63,317,82,-53,-102,-151
-78,-126,-48,102,-14,-87,78,351,68,-58,-107,-161
-82,-136,-53,109,-14,-95,82,375,53,-73,-126,-175
-87,-141,-53,114,-17,-97,87,390,39,-87,-151,-195
-102,-170,-68,136,-17,-119,117,405,34,-102,-161,-214
-117,-195,-78,156,-19,-136,146,429,34,-117,-170,-224
-136,-180,-43,158,-46,-112,156,439,34,-126,-175,-239
-161,-165,-4,163,-78,-85,165,444,29,-131,-190,-253
-180,-185,-4,183,-87,-95,200,488,34,-131,-204,-268
-204,-185,19,195,-112,-82,224,507,14,-151,-224,-278
-214,-185,29,200,-122,-78,239,517,24,-170,-224,-292
-219,-185,34,202,-126,-75,253,531,34,-185,-224,-302
-234,-190,43,212,-139,-73,278,536,34,-190,-244,-317
-258,-195,63,226,-161,-65,307,556,29,-180,-268,-331
-273,-190,82,231,-178,-53,312,561,4,-234,-307,-351
-297,-185,112,241,-204,-36,322,561,-19,-287,-351,-366
-317,-175,141,246,-229,-17,336,541,-29,-307,-351,-375
-336,-165,170,251,-253,2,341,522,-39,-326,-361,-390
-356,-175,180,265,-268,2,361,507,-48,-346,-375,-395
-380,-180,200,280,-290,9,366,488,-68,-351,-385,-400
-390,-180,209,285,-300,14,370,434,-78,-351,-395,-419
-400,-175,224,287,-312,24,370,370,-92,-351,-405,-439
-409,-161,248,285,-329,43,366,307,-122,-380,-424,-439
-424,-151,273,287,-348,61,361,219,-151,-409,-439,-444
-424,-141,283,283,-353,70,341,175,-165,-424,-444,-448
-424,-126,297,275,-361,85,322,131,-170,-429,-444,-448
-419,-126,292,273,-356,82,307,87,-175,-414,-434,-429
-405,-112,292,258,-348,90,278,34,-180,-395,-429,-414
-380,-112,268,246,-324,78,234,14,-175,-385,-400,-395
-361,-112,248,236,-305,68,195,4,-165,-366,-361,-366
-326,-78,248,202,-287,85,131,-19,-185,-351,-346,-341
-283,-63,219,173,-251,78,73,-34,-185,-336,-326,-307
-253,-58,195,156,-224,68,34,-39,-165,-307,-292,-283
-219,-48,170,134,-195,61,9,-39,-165,-268,-258,-244
-175,-43,131,109,-153,43,-4,-39,-141,-244,-219,-209
-131,-24,107,78,-119,41,-29,-29,-117,-209,-200,-175
-112,-14,97,63,-104,41,-39,-34,-107,-185,-170,-151
-87,-14,73,51,-80,29,-63,-29,-102,-151,-141,-126
-58,-4,53,31,-56,24,-68,-34,-92,-126,-122,-97
-34,-4,29,19,-31,12,-87,-29,-82,-107,-97,-73
-14,4,19,4,-17,12,-97,-43,-73,-92,-82,-53
4,24,19,-14,-7,21,-107,-43,-63,-78,-73,-43
24,24,0,-24,12,12,-112,-43,-48,-73,-68,-34
34,24,-9,-29,21,7,-112,-43,-39,-68,-63,-19
34,14,-19,-24,26,-2,-107,-39,-43,-63,-58,-14
29,-4,-34,-12,31,-19,-102,-29,-43,-48,-43,-4
34,9,-24,-21,29,-7,-92,-34,-39,-14,-29,0
24,24,0,-24,12,12,-82,-34,-29,9,-9,4
24,24,0,-24,12,12,-73,-34,-19,19,4,14
24,39,14,-31,4,26,-63,-29,-9,19,9,14
24,53,29,-39,-2,41,-58,-19,-9,14,14,19
24,34,9,-29,7,21,-48,-9,0,14,19,29
24,34,9,-29,7,21,-48,-9,14,29,24,29
29,39,9,-34,9,24,-48,-9,24,39,29,29
9,58,48,-34,-19,53,-39,-68,24,39,29,29
-9,68,78,-29,-43,73,-29,-122,24,39,29,29
-29,68,97,-19,-63,82,0,-165,14,29,19,19
-43,63,107,-9,-75,85,34,-204,4,19,9,9
-43,43,87,0,-65,65,53,-175,4,14,9,9
-43,29,73,7,-58,51,73,-156,4,9,9,9
-34,14,48,9,-41,31,73,-146,0,9,9,9
-29,9,39,9,-34,24,68,-141,-4,9,4,9
-29,14,43,7,-36,29,58,-131,-4,9,4,0
-29,14,43,7,-36,29,48,-122,-4,9,0,-4
-19,14,34,2,-26,24,48,-97,-9,9,-4,-9
-14,14,29,0,-21,21,48,-73,-9,4,-9,-9
0,0,0,0,0,0,48,-43,-4,9,-9,-9
9,-4,-14,-2,12,-9,48,-34,-4,14,-9,-9
14,0,-14,-7,14,-7,24,-34,0,14,-4,-4
19,0,-19,-9,19,-9,-4,-34,9,24,0,0
29,4,-24,-17,26,-9,-39,-29,9,24,0,9
39,14,-24,-26,31,-4,-78,-19,4,19,0,9
53,9,-43,-31,48,-17,-92,-9,19,24,9,14
63,9,-53,-36,58,-21,-112,0,34,24,9,14
68,24,-43,-46,56,-9,-117,9,34,29,14,14
73,34,-39,-53,56,-2,-122,19,34,39,24,19
68,24,-43,-46,56,-9,-126,4,39,48,29,19
73,14,-58,-43,65,-21,-126,14,53,58,34,24
73,14,-58,-43,65,-21,-126,19,48,48,34,24
78,19,-58,-48,68,-19,-126,24,39,39,34,24
82,19,-63,-51,73,-21,-122,24,34,34,29,24
87,24,-63,-56,75,-19,-117,19,29,29,24,24
87,14,-73,-51,80,-29,-112,24,19,19,19,19
87,9,-78,-48,82,-34,-117,24,9,9,14,14
68,0,-68,-34,68,-34,-107,19,9,9,0,9
53,0,-53,-26,53,-26,-102,19,4,9,-14,9
48,-9,-58,-19,53,-34,-97,29,9,14,0,9
43,-9,-53,-17,48,-31,-82,34,9,19,9,9
43,9,-34,-26,39,-12,-78,4,9,9,4,9
39,29,-9,-34,24,9,-78,-14,19,4,0,4
14,24,9,-19,2,17,-73,-82,9,4,-4,4
-9,29,39,-9,-24,34,-63,-156,0,4,-4,9
-24,29,53,-2,-39,41,-34,-180,-4,0,-4,0
-34,29,63,2,-48,46,0,-200,-14,-4,-9,-9
-39,14,53,12,-46,34,29,-170,-14,-4,-14,-9
-43,0,43,21,-43,21,58,-170,-14,-4,-14,-9
-48,0,48,24,-48,24,78,-161,-14,-14,-14,-24
-53,-4,48,29,-51,21,97,-141,-24,-24,-19,-39
-53,-29,24,41,-39,-2,107,-126,-24,-24,-34,-34
-48,-48,0,48,-24,-24,112,-117,-29,-24,-34,-24
-43,-34,9,39,-26,-12,73,-117,-29,-19,-34,-24
-34,-14,19,24,-26,2,39,-117,-29,-14,-39,-29
-29,-14,14,21,-21,0,19,-112,-29,-24,-34,-29
-29,-14,14,21,-21,0,-4,-102,-24,-24,-29,-24
-14,-14,0,14,-7,-7,-14,-82,-14,-14,-24,-19
-9,-24,-14,17,2,-19,-24,-63,-9,-9,-19,-9
0,-9,-9,4,4,-9,-34,-68,-4,-9,-19,-9
14,-4,-19,-4,17,-12,-39,-63,0,-4,-19,-9
19,-4,-24,-7,21,-14,-43,-58,4,4,-9,-4
24,-4,-29,-9,26,-17,-48,-53,4,14,-4,4
34,0,-34,-17,34,-17,-53,-43,24,19,9,14
39,4,-34,-21,36,-14,-53,-29,34,24,9,19
43,9,-34,-26,39,-12,-63,-24,34,29,9,19
43,14,-29,-29,36,-7,-68,-14,34,34,9,19
48,14,-34,-31,41,-9,-68,-4,34,34,9,19
53,14,-39,-34,46,-12,-73,4,34,34,9,24
48,9,-39,-29,43,-14,-73,29,34,29,9,19
48,4,-43,-26,46,-19,-73,34,34,29,9,14
48,0,-48,-24,48,-24,-58,34,34,29,9,19
48,0,-48,-24,48,-24,-63,29,34,24,9,19
48,0,-48,-24,48,-24,-73,9,24,19,4,19
43,14,-29,-29,36,-7,-78,-9,19,14,0,19
34,14,-19,-24,26,-2,-68,-63,4,9,9,4
24,4,-19,-14,21,-7,-68,-112,-9,0,0,-4
19,-24,-43,2,31,-34,-48,-112,-24,-9,-14,-4
14,-24,-39,4,26,-31,-34,-122,-39,-24,-29,-4
0,-34,-34,17,17,-34,-34,-131,-39,-34,-39,-19
-14,-43,-29,29,7,-36,-9,-131,-48,-39,-48,-29
-24,-34,-9,29,-7,-21,4,-131,-53,-39,-48,-24
-34,-39,-4,36,-14,-21,29,-126,-53,-39,-43,-24
-39,-24,14,31,-26,-4,48,-117,-43,-39,-39,-24
-48,-9,39,29,-43,14,68,-107,-39,-39,-39,-29
-48,-24,24,36,-36,0,78,-97,-39,-34,-39,-29
-48,-39,9,43,-29,-14,87,-87,-39,-29,-39,-29
-43,-39,4,41,-24,-17,73,-78,-29,-24,-34,-24
-39,-39,0,39,-19,-19,58,-68,-19,-19,-29,-19
-29,-39,-9,34,-9,-24,43,-58,-19,-14,-24,-14
-19,-39,-19,29,0,-29,29,-48,-19,-9,-19,-9
-19,-39,-19,29,0,-29,24,-43,-14,-9,-19,-9
-19,-39,-19,29,0,-29,19,-39,-9,-9,-19,-9
-19,-34,-14,26,-2,-24,9,-39,-9,-9,-14,-9
-19,-29,-9,24,-4,-19,0,-39,-9,-9,-9,-9
-4,-24,-19,14,7,-21,-19,-39,0,0,-4,-4
9,-19,-29,4,19,-24,-39,-39,9,9,0,0
14,-9,-24,-2,19,-17,-39,-29,9,14,0,4
19,0,-19,-9,19,-9,-39,-19,9,19,0,9
24,0,-24,-12,24,-12,-39,-4,14,19,4,9
29,0,-29,-14,29,-14,-39,9,19,19,9,9
39,4,-34,-21,36,-14,-43,19,29,24,14,14
48,9,-39,-29,43,-14,-48,29,39,29,19,19
48,9,-39,-29,43,-14,-63,39,48,39,24,24
48,9,-39,-29,43,-14,-78,48,58,48,29,29
48,9,-39,-29,43,-14,-78,-9,58,48,29,29
48,9,-39,-29,43,-14,-78,-68,58,48,29,29
34,9,-24,-21,29,-7,-58,-82,53,39,24,24
19,9,-9,-14,14,0,-39,-97,48,29,19,19
19,9,-9,-14,14,0,-29,-97,43,29,19,14
19,9,-9,-14,14,0,-19,-97,39,29,19,9
19,9,-9,-14,14,0,-14,-92,29,19,9,9
19,9,-9,-14,14,0,-9,-87,19,9,0,9
19,0,-19,-9,19,-9,0,-82,9,4,-9,0
19,-9,-29,-4,24,-19,9,-78,0,0,-19,-9
19,-24,-43,2,31,-34,14,-78,-4,-4,-19,-9
19,-39,-58,9,39,-48,19,-78,-9,-9,-19,-9
9,-39,-48,14,29,-43,19,-78,-9,-9,-19,-9
0,-39,-39,19,19,-39,19,-78,-9,-9,-19,-9
-4,-24,-19,14,7,-21,19,-82,-14,-14,-24,-14
-9,-9,0,9,-4,-4,19,-87,-19,-19,-29,-19
-19,-9,9,14,-14,0,19,-87,-19,-19,-29,-19
-29,-9,19,19,-24,4,19,-87,-19,-19,-29,-19
-34,-19,14,26,-24,-2,19,-78,-19,-19,-29,-19
-39,-29,9,34,-24,-9,19,-68,-19,-19,-29,-19
-39,-14,24,26,-31,4,19,-63,-19,-19,-29,-19
-39,0,39,19,-39,19,19,-58,-19,-19,-29,-19
-29,-9,19,19,-24,4,19,-43,-14,-19,-24,-19
-19,-19,0,19,-9,-9,19,-29,-9,-19,-19,-19
-14,-29,-14,21,0,-21,19,-14,0,-9,-14,-9
-9,-39,-29,24,9,-34,19,0,9,0,-9,0
-4,-24,-19,14,7,-21,19,4,14,4,-4,0
0,-9,-9,4,4,-9,19,9,19,9,0,0
9,0,-9,-4,9,-4,14,14,24,9,4,0
19,9,-9,-14,14,0,9,19,29,9,9,0
19,9,-9,-14,14,0,4,24,29,14,9,4
19,9,-9,-14,14,0,0,29,29,19,9,9
19,4,-14,-12,17,-4,-4,29,29,24,9,14
19,0,-19,-9,19,-9,-9,29,29,29,9,19
24,0,-24,-12,24,-12,-9,39,34,29,14,19
29,0,-29,-14,29,-14,-9,48,39,29,19,19
34,0,-34,-17,34,-17,-14,58,43,39,19,19
39,0,-39,-19,39,-19,-19,68,48,48,19,19
43,0,-43,-21,43,-21,-29,73,48,39,14,19
48,0,-48,-24,48,-24,-39,78,48,29,9,19
48,0,-48,-24,48,-24,-29,97,43,24,9,14
48,0,-48,-24,48,-24,-19,117,39,19,9,9
39,-9,-48,-14,43,-29,-19,97,24,14,0,4
29,-19,-48,-4,39,-34,-19,78,9,9,-9,0
19,-9,-29,-4,24,-19,-19,-9,9,9,-9,0
9,0,-9,-4,9,-4,-19,-97,9,9,-9,0
9,0,-9,-4,9,-4,-19,-107,9,4,-9,0
9,0,-9,-4,9,-4,-19,-117,9,0,-9,0
0,-9,-9,4,4,-9,-9,-122,4,-4,-9,-4
-9,-19,-9,14,0,-14,0,-126,0,-9,-9,-9
-14,-4,9,9,-12,2,9,-131,-4,-14,-19,-14
-19,9,29,4,-24,19,19,-136,-9,-19,-29,-19
-24,19,43,2,-34,31,29,-136,-9,-19,-29,-19
-29,29,58,0,-43,43,39,-136,-9,-19,-29,-19
-34,14,48,9,-41,31,39,-136,-9,-19,-29,-19
-39,0,39,19,-39,19,39,-136,-9,-19,-29,-19
-43,-4,39,24,-41,17,34,-136,-14,-19,-29,-19
-48,-9,39,29,-43,14,29,-136,-19,-19,-29,-19
-48,-9,39,29,-43,14,29,-131,-19,-19,-24,-19
-48,-9,39,29,-43,14,29,-126,-19,-19,-19,-19
-48,-9,39,29,-43,14,29,-117,-19,-19,-19,-19
-39,-4,34,21,-36,14,29,-107,-14,-14,-14,-14
-34,-4,29,19,-31,12,29,-102,-9,-14,-14,-14
-19,-4,14,12,-17,4,29,-87,0,-4,-14,-14
-19,-9,9,14,-14,0,29,-73,4,-4,-14,-14
-14,-9,4,12,-9,-2,34,-63,4,0,-9,-14
-4,-9,-4,7,0,-7,43,-48,14,4,-4,-9
0,-9,-9,4,4,-9,48,-34,24,9,-4,-4
0,0,0,0,0,0,53,-29,24,9,-4,-4
0,9,9,-4,-4,9,53,-24,29,14,-4,-4
4,0,-4,-2,4,-2,39,-24,34,14,0,4
9,9,0,-9,4,4,24,-19,39,14,0,9
14,9,-4,-12,9,2,14,-4,43,19,4,9
24,9,-14,-17,19,-2,0,9,43,24,9,9
39,9,-29,-24,34,-9,-29,24,43,19,9,9
53,4,-48,-29,51,-21,-48,43,43,19,9,9
58,-14,-73,-21,65,-43,-34,73,39,24,9,9
58,-34,-92,-12,75,-63,-24,97,34,24,9,9
53,-34,-87,-9,70,-61,-19,102,24,19,4,4
48,-34,-82,-7,65,-58,-14,102,9,9,-4,0
43,-43,-87,0,65,-65,-14,78,4,4,-4,4
39,-48,-87,4,63,-68,-19,53,0,0,-4,4
34,-34,-68,0,51,-51,-29,0,0,-4,-4,0
29,-19,-48,-4,39,-34,-39,-58,-4,-9,-4,-4
24,-9,-34,-7,29,-21,-39,-68,-4,-9,-4,-4
19,0,-19,-9,19,-9,-34,-78,-4,-9,-4,-4
9,0,-9,-4,9,-4,-19,-92,-4,-9,-4,-4
0,0,0,0,0,0,-9,-102,-4,-9,-4,-4
0,0,0,0,0,0,-9,-102,-9,-9,-4,-4
0,-4,-4,2,2,-4,-4,-107,-24,-14,-4,-9
-4,-4,0,4,-2,-2,0,-112,-29,-14,-9,-14
-4,0,4,2,-4,2,0,-112,-39,-19,-14,-24
-4,0,4,2,-4,2,-9,-102,-43,-24,-24,-29
-9,-4,4,7,-7,0,-9,-107,-48,-29,-34,-34
-14,-4,9,9,-12,2,-9,-102,-53,-39,-39,-34
-19,-14,4,17,-12,-4,-4,-97,-53,-43,-43,-34
-24,-14,9,19,-17,-2,-4,-92,-53,-48,-43,-34
-34,-14,19,24,-26,2,0,-87,-53,-48,-43,-34
-39,-9,29,24,-34,9,9,-82,-48,-39,-43,-34
-43,0,43,21,-43,21,14,-82,-43,-34,-48,-34
-43,0,43,21,-43,21,19,-58,-29,-29,-39,-29
-39,0,39,19,-39,19,24,-34,-4,-9,-19,-24
-14,19,34,-2,-24,26,24,68,102,73,29,-4
53,53,0,-53,26,26,48,283,361,287,170,58
151,117,-34,-134,92,41,58,541,692,580,370,180
195,219,24,-207,85,122,68,717,1010,897,610,341
317,400,82,-358,117,241,-9,785,1385,1366,1024,668
502,649,146,-575,178,397,-180,692,1795,1927,1551,1112
692,858,165,-775,263,512,-341,468,1927,2298,1976,1522
863,1015,151,-939,356,583,-595,68,1634,2342,2200,1839
1058,1200,141,-1129,458,671,-971,-893,1029,2269,2352,2142
1346,1381,34,-1363,656,707,-1376,-1873,302,2088,2420,2440
1546,1390,-156,-1468,851,617,-1625,-2527,-507,1464,2054,2327
1664,980,-683,-1322,1173,148,-1610,-2742,-1312,405,1180,1830
1424,512,-912,-968,1168,-200,-1376,-2513,-1952,-595,317,1229
644,322,-322,-483,483,0,-1024,-2381,-2117,-1127,-131,800
131,107,-24,-119,78,41,-653,-1893,-1820,-1215,-444,322
29,9,-19,-19,24,-4,-434,-1268,-1312,-980,-468,68
-48,39,87,4,-68,63,-292,-839,-810,-658,-385,-48
-68,-14,53,41,-61,19,-136,-414,-439,-395,-268,-87
-102,-63,39,82,-70,-12,-4,-112,-214,-234,-200,-131
-97,-68,29,82,-63,-19,29,-9,-112,-156,-146,-126
-97,-87,9,92,-53,-39,58,29,-53,-122,-136,-131
-97,-87,9,92,-53,-39,68,39,-34,-117,-136,-141
-87,-82,4,85,-46,-39,68,58,-14,-102,-126,-136
-82,-73,9,78,-46,-31,63,63,-4,-82,-112,-131
-82,-82,0,82,-41,-41,53,63,0,-78,-112,-126
-78,-87,-9,82,-34,-48,63,82,9,-68,-112,-122
-78,-87,-9,82,-34,-48,73,92,19,-63,-107,-122
-78,-87,-9,82,-34,-48,78,97,24,-58,-97,-122
-78,-78,0,78,-39,-39,68,102,24,-58,-97,-122
-78,-97,-19,87,-29,-58,58,107,29,-58,-92,-122
-78,-82,-4,80,-36,-43,63,117,29,-53,-97,-126
-78,-63,14,70,-46,-24,63,122,24,-48,-102,-131
-78,-58,19,68,-48,-19,63,131,29,-53,-97,-131
-78,-58,19,68,-48,-19,53,136,39,-58,-97,-131
-73,-63,9,68,-41,-26,53,146,34,-58,-102,-141
-73,-73,0,73,-36,-36,63,151,29,-63,-102,-151
-73,-78,-4,75,-34,-41,68,180,34,-58,-102,-151
-73,-82,-9,78,-31,-46,68,200,34,-58,-102,-151
-73,-82,-9,78,-31,-46,73,219,43,-48,-102,-146
-78,-82,-4,80,-36,-43,82,229,48,-43,-97,-141
-78,-82,-4,80,-36,-43,92,234,53,-43,-92,-141
-82,-82,0,82,-41,-41,97,244,63,-39,-87,-141
-78,-87,-9,82,-34,-48,92,258,63,-34,-87,-141
-73,-97,-24,85,-24,-61,97,278,73,-29,-87,-141
-68,-97,-29,82,-19,-63,92,278,78,-29,-87,-136
-63,-97,-34,80,-14,-65,92,278,82,-24,-87,-126
-63,-107,-43,85,-9,-75,107,287,87,-24,-82,-136
-58,-107,-48,82,-4,-78,117,302,92,-19,-78,-141
-63,-97,-34,80,-14,-65,112,312,92,-19,-82,-141
-63,-102,-39,82,-12,-70,122,326,92,-19,-87,-141
-68,-126,-58,97,-4,-92,141,356,97,-24,-82,-146
-73,-156,-82,114,4,-119,156,380,92,-24,-87,-151
-73,-165,-92,119,9,-129,156,385,82,-34,-87,-151
-73,-175,-102,124,14,-139,156,395,78,-43,-97,-161
-82,-175,-92,129,4,-134,161,409,63,-48,-107,-170
-92,-175,-82,134,-4,-129,161,429,48,-58,-117,-180
-97,-180,-82,139,-7,-131,165,439,48,-58,-117,-180
-102,-185,-82,143,-9,-134,170,448,48,-63,-122,-180
-117,-180,-63,148,-26,-122,185,400,53,-63,-131,-185
-131,-175,-43,153,-43,-109,200,326,58,-68,-136,-190
-156,-170,-14,163,-70,-92,214,307,68,-68,-131,-200
-170,-151,19,161,-95,-65,229,292,73,-78,-136,-200
-161,-146,14,153,-87,-65,229,312,73,-73,-141,-195
-156,-146,9,151,-82,-68,219,336,73,-68,-141,-204
-165,-141,24,153,-95,-58,214,366,73,-73,-146,-214
-170,-136,34,153,-102,-51,214,380,78,-78,-146,-224
-180,-131,48,156,-114,-41,219,385,87,-82,-161,-229
-185,-146,39,165,-112,-53,229,429,112,-82,-165,-234
-190,-146,43,168,-117,-51,234,453,112,-92,-170,-234
-195,-146,48,170,-122,-48,244,468,122,-92,-175,-244
-195,-141,53,168,-124,-43,248,488,126,-92,-175,-253
-195,-141,53,168,-124,-43,248,507,131,-112,-185,-268
-195,-146,48,170,-122,-48,253,546,136,-117,-204,-278
-190,-146,43,168,-117,-51,248,561,136,-131,-214,-292
-200,-136,63,168,-131,-36,239,590,136,-136,-224,-297
-209,-126,82,168,-146,-21,234,595,136,-141,-224,-297
-219,-112,107,165,-163,-2,219,590,151,-136,-229,-302
-224,-92,131,158,-178,19,224,585,161,-141,-234,-307
-244,-92,151,168,-197,29,229,570,156,-146,-239,-307
-253,-102,151,178,-202,24,234,561,165,-151,-239,-302
-258,-97,161,178,-209,31,234,556,161,-161,-244,-312
-263,-92,170,178,-217,39,229,541,151,-170,-253,-312
-268,-97,170,183,-219,36,224,473,131,-185,-263,-317
-258,-92,165,175,-212,36,209,444,117,-200,-268,-322
-258,-78,180,168,-219,51,195,414,92,-209,-273,-326
-253,-78,175,165,-214,48,185,385,58,-214,-273,-317
-253,-87,165,170,-209,39,175,346,39,-219,-278,-312
-248,-102,146,175,-197,21,165,312,19,-229,-268,-302
-244,-97,146,170,-195,24,161,273,-4,-239,-268,-287
-239,-78,161,158,-200,41,146,219,-39,-244,-278,-278
-219,-82,136,151,-178,26,136,185,-63,-244,-268,-263
-204,-87,117,146,-161,14,117,151,-68,-234,-244,-253
-185,-82,102,134,-143,9,97,126,-87,-219,-224,-219
-165,-82,82,124,-124,0,82,97,-97,-219,-209,-200
-141,-63,78,102,-109,7,58,48,-102,-204,-204,-185
-122,-53,68,87,-95,7,48,0,-112,-195,-185,-175
-117,-53,63,85,-90,4,29,-58,-112,-165,-161,-156
-112,-43,68,78,-90,12,29,-117,-102,-151,-141,-126
-102,-39,63,70,-82,12,19,-136,-97,-136,-122,-107
-97,-29,68,63,-82,19,19,-170,-92,-122,-107,-87
-87,-4,82,46,-85,39,14,-170,-82,-107,-92,-73
-73,4,78,34,-75,41,9,-165,-68,-87,-73,-58
-63,4,68,29,-65,36,4,-161,-58,-68,-53,-39
-48,14,63,17,-56,39,0,-156,-53,-63,-48,-34
-39,24,63,7,-51,43,-14,-146,-43,-53,-34,-24
-24,34,58,-4,-41,46,-24,-146,-39,-39,-24,-14
-14,39,53,-12,-34,46,-34,-141,-29,-29,-9,-4
0,43,43,-21,-21,43,-48,-141,-24,-19,0,4
9,58,48,-34,-19,53,-58,-131,-19,-19,-4,0
14,68,53,-41,-19,61,-63,-126,-19,-14,-4,0
19,48,29,-34,-4,39,-58,-107,-9,-4,0,9
24,53,29,-39,-2,41,-58,-87,-4,0,4,9
29,63,34,-46,-2,48,-68,-78,9,9,14,19
29,78,48,-53,-9,63,-78,-73,24,19,19,29
39,78,39,-58,0,58,-87,-68,34,29,29,34
43,78,34,-61,4,56,-92,-63,43,39,39,39
43,73,29,-58,7,51,-92,-43,58,48,48,43
43,63,19,-53,12,41,-97,-19,73,58,58,48
43,63,19,-53,12,41,-102,-14,73,58,58,48
48,58,9,-53,19,34,-102,-4,68,58,58,48
48,58,9,-53,19,34,-87,0,58,53,48,48
48,63,14,-56,17,39,-78,9,53,48,43,43
43,58,14,-51,14,36,-73,14,48,43,34,39
43,53,9,-48,17,31,-68,19,39,39,29,29
43,34,-9,-39,26,12,-53,39,24,29,24,29
43,4,-39,-24,41,-17,-34,53,14,24,19,29
39,-4,-43,-17,41,-24,-29,34,4,14,14,24
34,-9,-43,-12,39,-26,-29,34,-9,-4,9,19
19,-24,-43,2,31,-34,-34,14,-19,-14,4,14
9,-43,-53,17,31,-48,-34,0,-29,-24,-4,9
9,-48,-58,19,34,-53,-39,-19,-48,-34,-19,-9
9,-58,-68,24,39,-63,-43,-39,-63,-39,-29,-19
-4,-58,-53,31,24,-56,-48,-68,-73,-53,-43,-29
-14,-58,-43,36,14,-51,-43,-117,-82,-63,-48,-34
-19,-63,-43,41,12,-53,-39,-112,-73,-58,-48,-34
-34,-63,-29,48,-2,-46,-39,-122,-73,-58,-53,-39
-34,-58,-24,46,-4,-41,-29,-117,-73,-58,-53,-39
-34,-53,-19,43,-7,-36,-19,-107,-68,-58,-53,-43
-34,-43,-9,39,-12,-26,-9,-97,-68,-53,-48,-43
-34,-39,-4,36,-14,-21,0,-82,-63,-48,-43,-43
-29,-29,0,29,-14,-14,14,-73,-58,-48,-43,-43
-29,-19,9,24,-19,-4,29,-63,-58,-48,-43,-43
-29,-4,24,17,-26,9,29,-58,-58,-48,-43,-39
-34,-9,24,21,-29,7,39,-58,-58,-48,-43,-39
-29,-9,19,19,-24,4,43,-43,-58,-48,-43,-39
-24,-19,4,21,-14,-7,53,-34,-53,-48,-43,-39
-24,-29,-4,26,-9,-17,63,-39,-58,-53,-53,-39
-24,-39,-14,31,-4,-26,68,-43,-68,-68,-63,-43
-29,-29,0,29,-14,-14,78,-39,-63,-73,-68,-53
-34,-29,4,31,-19,-12,87,-34,-58,-73,-68,-53
-39,-24,14,31,-26,-4,92,-39,-53,-63,-58,-48
-39,-19,19,29,-29,0,97,-39,-48,-53,-53,-48
-34,-9,24,21,-29,7,107,-34,-48,-53,-53,-48
-34,0,34,17,-34,17,107,-24,-43,-53,-48,-48
-34,0,34,17,-34,17,112,-43,-39,-48,-43,-43
-39,0,39,19,-39,19,117,-43,-34,-43,-43,-39
-43,0,43,21,-43,21,122,-34,-39,-43,-34,-34
-48,-9,39,29,-43,14,126,-29,-34,-43,-34,-34
-43,-19,24,31,-34,2,122,-4,-39,-43,-34,-34
-43,-19,24,31,-34,2,122,19,-43,-43,-34,-34
-43,-24,19,34,-31,-2,117,39,-48,-43,-39,-39
-39,-34,4,36,-21,-14,112,53,-53,-53,-43,-48
-29,-34,-4,31,-12,-19,48,9,-68,-58,-48,-48
-9,-34,-24,21,7,-29,-24,-34,-73,-58,-48,-43
-4,-34,-29,19,12,-31,-82,-73,-68,-58,-48,-39
0,-9,-9,4,4,-9,-141,-122,-68,-58,-48,-39
4,9,4,-7,0,7,-146,-131,-68,-53,-48,-34
4,24,19,-14,-7,21,-151,-141,-63,-48,-43,-29
4,14,9,-9,-2,12,-156,-146,-63,-43,-39,-19
9,9,0,-9,4,4,-161,-146,-53,-39,-19,-9
4,4,0,-4,2,2,-156,-136,-53,-34,-19,-9
4,-4,-9,0,7,-7,-156,-131,-53,-34,-19,-9
4,-4,-9,0,7,-7,-151,-122,-53,-34,-19,-14
4,-4,-9,0,7,-7,-141,-117,-53,-34,-19,-19
9,-14,-24,2,17,-19,-141,-102,-53,-29,-19,-14
9,-24,-34,7,21,-29,-141,-92,-53,-29,-19,-14
9,-9,-19,0,14,-14,-141,-97,-48,-29,-14,-14
9,0,-9,-4,9,-4,-122,-82,-43,-24,-9,-9
14,4,-9,-9,12,-2,-112,-73,-34,-19,-4,-4
19,9,-9,-14,14,0,-97,-58,-24,-14,0,0
24,24,0,-24,12,12,-87,-39,-9,-4,4,9
34,24,-9,-29,21,7,-78,-24,0,9,19,14
34,14,-19,-24,26,-2,-78,-9,0,9,9,14
34,0,-34,-17,34,-17,-73,4,0,9,9,14
39,14,-24,-26,31,-4,-68,0,0,4,9,14
43,14,-29,-29,36,-7,-73,-4,0,0,9,9
43,14,-29,-29,36,-7,-58,4,-14,0,0,0
43,9,-34,-26,39,-12,-48,19,-14,0,-9,-4
34,0,-34,-17,34,-17,-34,29,-9,0,0,0
29,-4,-34,-12,31,-19,-19,39,-4,-4,4,0
9,-14,-24,2,17,-19,4,19,-9,-4,0,-4
-9,-29,-19,19,4,-24,29,0,-19,-9,-9,-9
-24,-29,-4,26,-9,-17,58,-39,-39,-24,-19,-19
-39,-29,9,34,-24,-9,87,-78,-58,-39,-29,-29
-48,-29,19,39,-34,-4,97,-97,-63,-43,-34,-34
-58,-29,29,43,-43,0,107,-117,-68,-48,-39,-39
-58,-43,14,51,-36,-14,107,-122,-68,-48,-39,-39
-58,-58,0,58,-29,-29,107,-126,-68,-48,-39,-39
-58,-43,14,51,-36,-14,97,-131,-73,-48,-43,-39
-58,-29,29,43,-43,0,87,-136,-78,-48,-48,-39
-58,-24,34,41,-46,4,68,-136,-78,-48,-48,-39
-58,-19,39,39,-48,9,48,-136,-78,-48,-48,-39
-48,-19,29,34,-39,4,14,-136,-68,-43,-39,-34
-39,-19,19,29,-29,0,-19,-136,-58,-39,-29,-29
-29,0,29,14,-29,14,-43,-131,-53,-34,-19,-24
-19,19,39,0,-29,29,-68,-126,-48,-29,-9,-19
-14,19,34,-2,-24,26,-87,-122,-43,-19,-9,-9
-9,19,29,-4,-19,24,-107,-117,-39,-9,-9,0
0,19,19,-9,-9,19,-112,-107,-34,-9,-4,0
9,19,9,-14,0,14,-117,-97,-29,-9,0,0
14,14,0,-14,7,7,-117,-82,-24,-9,0,4
19,9,-9,-14,14,0,-117,-68,-19,-9,0,9
24,0,-24,-12,24,-12,-102,-48,-19,-9,0,9
29,-9,-39,-9,34,-24,-87,-29,-19,-9,0,9
29,-9,-39,-9,34,-24,-78,-4,-19,-4,0,9
29,-9,-39,-9,34,-24,-68,19,-19,0,0,9
34,-4,-39,-14,36,-21,-63,24,-9,4,4,9
39,0,-39,-19,39,-19,-58,29,0,9,9,9
39,0,-39,-19,39,-19,-43,29,4,9,9,14
39,0,-39,-19,39,-19,-29,29,9,9,9,19
39,0,-39,-19,39,-19,-24,19,9,9,9,19
39,0,-39,-19,39,-19,-19,9,9,9,9,19
39,-4,-43,-17,41,-24,-9,-9,4,9,9,14
39,-9,-48,-14,43,-29,0,-29,0,9,9,9
24,-14,-39,-4,31,-26,14,-43,-19,-9,-9,-9
9,-19,-29,4,19,-24,29,-58,-39,-29,-29,-29
0,-39,-39,19,19,-39,43,-63,-43,-34,-29,-29
-9,-58,-48,34,19,-53,58,-68,-48,-39,-29,-29
-14,-63,-48,39,17,-56,68,-68,-53,-39,-34,-29
-19,-68,-48,43,14,-58,78,-68,-58,-39,-39,-29
-19,-68,-48,43,14,-58,63,-58,-58,-39,-39,-29
-19,-68,-48,43,14,-58,48,-48,-58,-39,-39,-29
-19,-63,-43,41,12,-53,39,-43,-53,-39,-29,-29
-19,-58,-39,39,9,-48,29,-39,-48,-39,-19,-29
-24,-58,-34,41,4,-46,29,-39,-39,-29,-19,-24
-29,-58,-29,43,0,-43,29,-39,-29,-19,-19,-19
-29,-43,-14,36,-7,-29,29,-39,-29,-19,-19,-19
-29,-29,0,29,-14,-14,29,-39,-29,-19,-19,-19
-24,-14,9,19,-17,-2,19,-43,-29,-24,-19,-19
-19,0,19,9,-19,9,9,-48,-29,-29,-19,-19
-14,0,14,7,-14,7,9,-48,-29,-29,-19,-19
-9,0,9,4,-9,4,9,-48,-29,-29,-19,-19
-9,0,9,4,-9,4,9,-29,-19,-14,-9,-9
-9,0,9,4,-9,4,9,-9,-9,0,0,0
-9,4,14,2,-12,9,9,-24,-9,0,0,0
-9,9,19,0,-14,14,9,-39,-9,0,0,0
-4,9,14,-2,-9,12,4,-53,-14,0,0,4
0,9,9,-4,-4,9,0,-68,-19,0,0,9
0,14,14,-7,-7,14,0,-68,-24,-4,0,9
0,19,19,-9,-9,19,0,-68,-29,-9,0,9
0,19,19,-9,-9,19,-4,-68,-29,-9,4,4
0,19,19,-9,-9,19,-9,-68,-29,-9,9,0
0,19,19,-9,-9,19,-14,-82,-24,-4,9,0
0,19,19,-9,-9,19,-19,-97,-19,0,9,0
0,9,9,-4,-4,9,-29,-97,-19,0,9,0
0,0,0,0,0,0,-39,-97,-19,0,9,0
4,0,-4,-2,4,-2,-39,-97,-19,0,9,0
4,0,-4,-2,4,-2,-34,-87,-19,0,9,0
9,-4,-14,-2,12,-9,-29,-82,-19,0,14,4
9,-19,-29,4,19,-24,-19,-73,-14,-4,9,4
14,-19,-34,2,24,-26,-14,-63,-19,0,0,4
14,-19,-34,2,24,-26,-4,-58,-24,0,-4,4
14,-19,-34,2,24,-26,0,-58,-24,-4,-9,0
19,-19,-39,0,29,-29,0,-53,-29,-14,-14,-4
19,-19,-39,0,29,-29,-9,-53,-34,-14,-14,-4
24,-29,-53,2,39,-41,-29,-53,-39,-14,-14,-4
24,-19,-43,-2,34,-31,-43,-43,-39,-14,-19,-9
19,-19,-39,0,29,-29,-53,-39,-39,-14,-19,-9
19,-9,-29,-4,24,-19,-53,-39,-39,-14,-19,-14
14,0,-14,-7,14,-7,-58,-34,-34,-19,-19,-19
9,-19,-29,4,19,-24,-58,-24,-29,-19,-19,-19
9,-34,-43,12,26,-39,-48,-14,-24,-14,-19,-19
9,-34,-43,12,26,-39,-53,-9,-24,-14,-19,-19
9,-34,-43,12,26,-39,-53,-4,-19,-9,-14,-19
4,-24,-29,9,17,-26,-53,-4,-19,-9,-14,-19
4,-14,-19,4,12,-17,-53,-4,-19,-9,-14,-14
9,-9,-19,0,14,-14,-53,-4,-14,-4,-9,-14
9,-9,-19,0,14,-14,-48,0,-4,0,-4,-14
9,-4,-14,-2,12,-9,-48,14,0,0,-4,-14
9,0,-9,-4,9,-4,-48,29,4,0,-4,-14
9,0,-9,-4,9,-4,-43,29,4,0,-4,-9
4,0,-4,-2,4,-2,-39,14,4,0,-4,-4
-9,9,19,0,-14,14,-29,-63,4,0,-4,-4
-19,19,39,0,-29,29,-19,-131,4,0,-4,-4
-24,14,39,4,-31,26,9,-146,-14,-9,-4,-9
-34,14,48,9,-41,31,39,-161,-24,-14,-9,-9
-39,9,48,14,-43,29,43,-151,-29,-19,-14,-14
-43,0,43,21,-43,21,48,-141,-29,-19,-14,-14
-48,-4,43,26,-46,19,58,-146,-29,-14,-14,-14
-53,-4,48,29,-51,21,63,-141,-34,-14,-14,-14
-48,-14,34,31,-41,9,73,-131,-34,-14,-14,-9
-39,-14,24,26,-31,4,78,-117,-39,-19,-14,-4
-29,-14,14,21,-21,0,78,-112,-34,-14,-4,-4
-14,-14,0,14,-7,-7,78,-102,-24,-4,4,-4
-4,-14,-9,9,2,-12,58,-92,-24,0,4,4
4,-19,-24,7,14,-21,34,-68,-14,4,9,14
19,-29,-48,4,34,-39,4,-34,4,19,19,19
39,-19,-58,-9,48,-39,-24,58,97,82,53,39
107,34,-73,-70,90,-19,-39,244,336,278,185,97
209,122,-87,-165,148,17,-68,502,649,556,375,204
248,229,-19,-239,134,104,-68,678,941,858,600,361
375,409,34,-392,170,222,-141,756,1337,1346,1024,697
561,653,92,-607,234,373,-322,658,1722,1898,1542,1132
751,863,112,-807,319,488,-492,512,1883,2269,1961,1532
936,1015,78,-976,429,546,-732,146,1629,2303,2191,1844
1146,1215,68,-1180,539,641,-1107,-854,1044,2264,2376,2176
1434,1385,-48,-1410,741,668,-1498,-1815,370,2088,2410,2444
1654,1415,-239,-1534,946,588,-1771,-2557,-483,1434,2025,2322
1766,1044,-722,-1405,1244,161,-1761,-2825,-1244,463,1234,1878
1517,541,-976,-1029,1246,-217,-1527,-2630,-1908,-580,336,1254
746,356,-390,-551,568,-17,-1200,-2503,-2122,-1132,-136,819
214,165,-48,-190,131,58,-819,-1912,-1795,-1185,-439,336
87,68,-19,-78,53,24,-575,-1234,-1322,-990,-468,78
0,68,68,-34,-34,68,-390,-761,-814,-668,-380,-34
-39,4,43,17,-41,24,-204,-326,-434,-405,-273,-87
-97,-43,53,70,-75,4,-48,-29,-214,-244,-200,-141
-107,-63,43,85,-75,-9,4,43,-112,-170,-146,-146
-117,-82,34,100,-75,-24,43,39,-53,-141,-146,-151
-126,-82,43,104,-85,-19,63,14,-43,-136,-161,-165
-131,-82,48,107,-90,-17,68,-4,-43,-126,-156,-170
-136,-82,53,109,-95,-14,73,-9,-48,-122,-141,-170
-141,-92,48,117,-95,-21,82,-14,-48,-131,-141,-170
-141,-102,39,122,-90,-31,107,4,-39,-126,-141,-170
-146,-107,39,126,-92,-34,122,14,-34,-122,-141,-170
-146,-117,29,131,-87,-43,126,24,-34,-107,-136,-170
-146,-117,29,131,-87,-43,131,29,-34,-97,-136,-170
-146,-122,24,134,-85,-48,146,43,-29,-97,-131,-165
-151,-107,43,129,-97,-31,161,63,-24,-92,-131,-161
-151,-97,53,124,-102,-21,161,68,-19,-87,-126,-156
-146,-87,58,117,-102,-14,161,82,-9,-87,-117,-151
-136,-87,48,112,-92,-19,146,102,9,-82,-107,-151
-122,-87,34,104,-78,-26,141,126,19,-73,-97,-151
-112,-97,14,104,-63,-41,151,141,19,-68,-92,-141
-97,-102,-4,100,-46,-53,156,165,24,-58,-92,-131
-92,-102,-9,97,-41,-56,175,175,24,-58,-92,-131
-92,-102,-9,97,-41,-56,195,195,29,-53,-92,-131
-92,-112,-19,102,-36,-65,200,214,29,-48,-87,-131
-87,-122,-34,104,-26,-78,209,234,34,-43,-87,-131
-78,-122,-43,100,-17,-82,190,258,43,-39,-87,-131
-68,-122,-53,95,-7,-87,165,273,43,-39,-87,-131
-58,-112,-53,85,-2,-82,122,287,63,-29,-82,-126
-43,-97,-53,70,4,-75,68,297,73,-19,-78,-126
-34,-97,-63,65,14,-80,39,302,78,-14,-78,-126
-24,-107,-82,65,29,-95,19,317,87,-14,-73,-126
-19,-107,-87,63,34,-97,29,331,92,-14,-68,-122
-19,-92,-73,56,26,-82,4,341,97,-14,-68,-122
-19,-92,-73,56,26,-82,9,361,97,-9,-68,-122
-24,-97,-73,61,24,-85,24,375,107,-9,-58,-122
-24,-112,-87,68,31,-100,19,385,112,-9,-58,-122
-24,-117,-92,70,34,-104,19,395,112,-14,-58,-122
-24,-117,-92,70,34,-104,19,405,117,-14,-68,-131
-24,-117,-92,70,34,-104,24,419,117,-14,-73,-136
-24,-117,-92,70,34,-104,24,424,117,-19,-82,-146
-29,-122,-92,75,31,-107,29,429,117,-19,-87,-151
-63,-126,-63,95,0,-95,53,356,112,-29,-97,-156
-97,-126,-29,112,-34,-78,82,273,107,-39,-112,-170
-122,-126,-4,124,-58,-65,112,229,102,-58,-117,-185
-156,-146,9,151,-82,-68,146,214,97,-68,-117,-200
-165,-151,14,158,-90,-68,170,263,92,-68,-126,-200
-175,-151,24,163,-100,-63,195,302,87,-68,-141,-204
-185,-156,29,170,-107,-63,214,322,82,-78,-151,-219
-195,-156,39,175,-117,-58,234,351,82,-87,-161,-224
-200,-156,43,178,-122,-56,244,361,82,-97,-165,-234
-209,-156,53,183,-131,-51,253,366,78,-102,-180,-244
-214,-175,39,195,-126,-68,278,409,87,-97,-185,-253
-224,-175,48,200,-136,-63,292,429,73,-112,-195,-258
-239,-175,63,207,-151,-56,322,444,68,-122,-204,-273
-248,-175,73,212,-161,-51,351,463,63,-126,-214,-283
-253,-180,73,217,-163,-53,366,478,63,-151,-224,-292
-268,-185,82,226,-175,-51,385,507,58,-161,-239,-302
-268,-195,73,231,-170,-61,385,536,58,-170,-248,-317
-278,-204,73,241,-175,-65,390,561,58,-180,-263,-326
-292,-209,82,251,-187,-63,409,575,58,-190,-268,-336
-307,-214,92,261,-200,-61,419,590,58,-200,-283,-351
-312,-219,92,265,-202,-63,439,595,63,-219,-297,-356
-322,-219,102,270,-212,-58,444,595,58,-224,-307,-361
-322,-200,122,261,-222,-39,444,595,58,-239,-317,-370
-322,-175,146,248,-234,-14,439,585,53,-253,-326,-380
-322,-170,151,246,-236,-9,424,566,43,-263,-336,-380
-326,-170,156,248,-241,-7,409,522,34,-273,-341,-385
-322,-161,161,241,-241,0,375,492,24,-287,-346,-390
-317,-146,170,231,-244,12,341,463,24,-292,-346,-390
-312,-141,170,226,-241,14,287,424,9,-292,-341,-375
-297,-122,175,209,-236,26,219,375,-4,-287,-341,-366
-278,-112,165,195,-222,26,175,331,-14,-287,-331,-356
-263,-102,161,183,-212,29,136,297,-19,-278,-312,-336
-248,-78,170,163,-209,46,107,258,-39,-268,-307,-322
-224,-73,151,148,-187,39,82,229,-39,-258,-297,-297
-204,-63,141,134,-173,39,43,204,-29,-244,-273,-283
-180,-48,131,114,-156,41,19,185,-39,-219,-248,-253
-156,-43,112,100,-134,34,4,156,-39,-214,-219,-229
-131,-24,107,78,-119,41,-19,136,-39,-200,-209,-204
-117,-24,92,70,-104,34,-24,102,-43,-185,-190,-190
-97,-34,63,65,-80,14,-43,78,-53,-161,-170,-175
-87,-34,53,61,-70,9,-34,-29,-58,-151,-161,-156
-82,-43,39,63,-61,-2,-39,-126,-63,-146,-146,-141
-78,-43,34,61,-56,-4,-39,-165,-73,-141,-136,-117
-73,-34,39,53,-56,2,-39,-190,-82,-136,-131,-102
-58,-34,24,46,-41,-4,-29,-185,-73,-117,-117,-92
-53,-34,19,43,-36,-7,-14,-180,-68,-97,-102,-78
-53,-34,19,43,-36,-7,0,-175,-63,-92,-97,-73
-53,-43,9,48,-31,-17,14,-165,-48,-68,-78,-58
-58,-29,29,43,-43,0,24,-170,-48,-58,-63,-48
-68,-19,48,43,-58,14,39,-175,-48,-48,-48,-39
-63,-14,48,39,-56,17,39,-175,-53,-48,-48,-29
-58,-9,48,34,-53,19,39,-175,-58,-48,-48,-19
-53,-4,48,29,-51,21,39,-170,-58,-43,-43,-19
-48,4,53,21,-51,29,34,-165,-53,-39,-34,-14
-43,14,58,14,-51,36,34,-161,-53,-34,-24,-9
-39,24,63,7,-51,43,29,-146,-48,-24,-14,-4
-34,9,43,12,-39,26,29,-136,-43,-19,-14,0
-24,0,24,12,-24,12,34,-131,-43,-9,-9,4
-14,-4,9,9,-12,2,43,-117,-39,-9,-4,4
-9,-9,0,9,-4,-4,48,-102,-34,-9,-4,4
-9,-19,-9,14,0,-14,63,-78,-34,-9,0,9
-9,-29,-19,19,4,-24,73,-53,-29,-4,4,14
-4,-39,-34,21,14,-36,78,-39,-24,-4,4,14
0,-29,-29,14,14,-29,82,-19,-19,-4,0,9
4,-19,-24,7,14,-21,78,-14,-14,0,0,9
14,-9,-24,-2,19,-17,68,-9,-14,4,0,9
19,-9,-29,-4,24,-19,48,0,-4,4,4,14
24,-14,-39,-4,31,-26,39,14,4,9,9,19
39,-4,-43,-17,41,-24,4,24,4,14,9,19
48,4,-43,-26,46,-19,-34,29,4,14,9,19
53,9,-43,-31,48,-17,-63,34,9,19,14,19
58,14,-43,-36,51,-14,-92,34,9,19,14,19
63,14,-48,-39,56,-17,-102,48,0,14,9,19
68,19,-48,-43,58,-14,-117,63,-9,9,4,14
68,9,-58,-39,63,-24,-117,68,-4,9,0,9
68,0,-68,-34,68,-34,-117,68,-4,9,-4,4
58,0,-58,-29,58,-29,-117,9,-9,4,-9,0
48,0,-48,-24,48,-24,-112,-48,-14,0,-14,-4
34,-4,-39,-14,36,-21,-97,-73,-14,0,-14,-4
19,-9,-29,-4,24,-19,-87,-92,-14,0,-14,-4
14,-19,-34,2,24,-26,-78,-92,-14,-9,-19,-4
9,-34,-43,12,26,-39,-63,-97,-24,-24,-24,-9
0,-39,-39,19,19,-39,-53,-102,-29,-24,-34,-19
-4,-39,-34,21,14,-36,-48,-102,-39,-29,-43,-34
-4,-39,-34,21,14,-36,-43,-97,-39,-34,-43,-39
-9,-43,-34,26,12,-39,-29,-107,-39,-39,-43,-43
-9,-34,-24,21,7,-29,-24,-112,-43,-43,-48,-43
-9,-34,-24,21,7,-29,-14,-117,-43,-43,-53,-43
-9,-34,-24,21,7,-29,-9,-117,-48,-48,-53,-43
-14,-34,-19,24,2,-26,0,-117,-53,-48,-53,-43
-24,-43,-19,34,-2,-31,19,-112,-53,-43,-53,-39
-34,-48,-14,41,-9,-31,34,-112,-53,-43,-58,-34
-34,-39,-4,36,-14,-21,34,-107,-63,-53,-58,-34
-29,-29,0,29,-14,-14,34,-102,-63,-48,-48,-34
-29,-9,19,19,-24,4,43,-39,0,-4,-19,-19
14,24,9,-19,2,17,78,136,214,170,102,39
112,87,-24,-100,68,31,87,424,517,429,268,136
156,190,34,-173,61,112,97,629,805,712,473,273
287,366,78,-326,104,222,34,756,1239,1210,897,600
483,610,126,-546,178,368,-122,722,1708,1800,1434,1044
678,810,131,-744,273,470,-244,634,1976,2215,1854,1429
854,956,102,-905,375,529,-458,370,1820,2303,2074,1722
1054,1176,122,-1115,466,649,-834,-600,1317,2313,2298,2069
1346,1390,43,-1368,651,717,-1239,-1590,692,2215,2440,2410
1605,1473,-131,-1539,868,671,-1546,-2405,-122,1678,2156,2361
1781,1137,-644,-1459,1212,246,-1590,-2781,-932,707,1366,1927
1556,649,-907,-1102,1232,-129,-1390,-2620,-1688,-375,453,1317
790,439,-351,-614,570,43,-1073,-2557,-1971,-990,-43,878
219,229,9,-224,104,119,-717,-2074,-1742,-1127,-375,385
58,136,78,-97,-9,107,-512,-1454,-1302,-941,-419,117
-19,136,156,-58,-87,146,-380,-995,-795,-629,-346,0
-39,53,92,-7,-65,73,-234,-541,-419,-375,-239,-39
-78,-19,58,48,-68,19,-73,-185,-200,-214,-170,-92
-78,-48,29,63,-53,-9,-9,-29,-102,-136,-117,-97
-68,-73,-4,70,-31,-39,9,24,-43,-102,-117,-102
-58,-78,-19,68,-19,-48,9,48,-24,-97,-126,-112
-48,-82,-34,65,-7,-58,0,68,-9,-87,-112,-107
-43,-82,-39,63,-2,-61,-14,73,-4,-73,-92,-102
-43,-92,-48,68,2,-70,-29,73,0,-73,-92,-102
-39,-97,-58,68,9,-78,-24,92,9,-68,-92,-102
-39,-102,-63,70,12,-82,-14,102,9,-63,-97,-107
-39,-107,-68,73,14,-87,-9,107,4,-58,-97,-112
-39,-97,-58,68,9,-78,-4,112,4,-63,-97,-117
-39,-117,-78,78,19,-97,0,117,9,-68,-92,-122
-43,-122,-78,82,17,-100,9,126,9,-68,-97,-126
-48,-122,-73,85,12,-97,14,131,4,-68,-102,-131
-48,-117,-68,82,9,-92,29,141,0,-68,-102,-131
-48,-117,-68,82,9,-92,34,146,0,-68,-107,-131
-48,-126,-78,87,14,-102,43,161,0,-68,-112,-136
-53,-141,-87,97,17,-114,63,170,0,-73,-112,-141
-53,-146,-92,100,19,-119,73,195,-4,-73,-112,-141
-53,-151,-97,102,21,-124,78,209,-14,-78,-112,-141
-53,-151,-97,102,21,-124,82,229,-9,-73,-112,-141
-58,-151,-92,104,17,-122,92,239,-9,-73,-107,-141
-63,-136,-73,100,4,-104,102,244,-4,-73,-102,-141
-73,-122,-48,97,-12,-85,107,253,4,-68,-97,-141
-78,-122,-43,100,-17,-82,112,244,4,-63,-97,-136
-82,-126,-43,104,-19,-85,126,239,14,-58,-97,-131
-92,-126,-34,109,-29,-80,131,190,14,-58,-97,-136
-102,-126,-24,114,-39,-75,141,141,14,-53,-97,-136
-122,-136,-14,129,-53,-75,161,131,14,-58,-97,-136
-136,-136,0,136,-68,-68,175,126,14,-58,-97,-131
-136,-122,14,129,-75,-53,170,126,19,-53,-97,-131
-131,-122,9,126,-70,-56,180,131,24,-48,-97,-131
-136,-126,9,131,-73,-58,195,141,39,-48,-87,-131
-141,-136,4,139,-73,-65,204,146,43,-43,-87,-131
-141,-141,0,141,-70,-70,214,161,43,-43,-87,-131
-141,-146,-4,143,-68,-75,224,180,48,-43,-97,-141
-141,-146,-4,143,-68,-75,229,209,53,-43,-97,-151
-141,-146,-4,143,-68,-75,229,244,58,-48,-97,-161
-136,-141,-4,139,-65,-73,234,287,68,-43,-97,-161
-131,-136,-4,134,-63,-70,239,331,78,-43,-102,-161
-112,-131,-19,122,-46,-75,214,385,92,-39,-107,-161
-92,-126,-34,109,-29,-80,190,414,107,-39,-107,-161
-92,-146,-53,119,-19,-100,175,453,126,-24,-92,-165
-82,-151,-68,117,-7,-109,161,497,141,-19,-87,-161
-82,-151,-68,117,-7,-109,156,522,146,-29,-102,-165
-87,-156,-68,122,-9,-112,141,551,151,-39,-112,-185
-92,-156,-63,124,-14,-109,131,585,136,-53,-126,-200
-92,-156,-63,124,-14,-109,126,605,126,-68,-136,-214
-102,-165,-63,134,-19,-114,136,610,117,-82,-161,-224
-107,-195,-87,151,-9,-141,151,653,122,-92,-175,-234
-117,-200,-82,158,-17,-141,161,683,112,-117,-185,-244
-126,-204,-78,165,-24,-141,175,702,112,-131,-195,-263
-141,-204,-63,173,-39,-134,190,717,102,-141,-209,-278
-156,-209,-53,183,-51,-131,200,732,92,-170,-234,-297
-170,-214,-43,192,-63,-129,214,732,82,-185,-258,-312
-180,-214,-34,197,-73,-124,219,707,68,-209,-273,-331
-214,-214,0,214,-107,-107,229,639,39,-244,-312,-361
-248,-214,34,231,-141,-90,244,546,9,-278,-341,-385
-283,-224,58,253,-170,-82,253,497,0,-297,-361,-400
-312,-229,82,270,-197,-73,283,448,-14,-326,-380,-414
-341,-219,122,280,-231,-48,287,400,-48,-351,-395,-429
-361,-219,141,290,-251,-39,292,356,-68,-375,-405,-439
-370,-209,161,290,-265,-24,287,317,-82,-390,-414,-448
-380,-200,180,290,-280,-9,278,268,-102,-405,-429,-448
-390,-195,195,292,-292,0,273,185,-122,-409,-434,-439
-385,-180,204,283,-295,12,258,141,-136,-414,-434,-429
-385,-165,219,275,-302,26,248,107,-141,-414,-424,-424
-380,-165,214,273,-297,24,244,73,-156,-409,-409,-405
-370,-146,224,258,-297,39,224,24,-170,-405,-409,-395
-356,-131,224,244,-290,46,204,-19,-185,-405,-395,-380
-341,-122,219,231,-280,48,200,-29,-185,-385,-366,-351
-326,-97,229,212,-278,65,185,-53,-195,-361,-346,-326
-292,-102,190,197,-241,43,180,-63,-195,-341,-326,-297
-263,-107,156,185,-209,24,165,-73,-175,-312,-292,-273
-239,-82,156,161,-197,36,146,-78,-175,-278,-258,-234
-214,-63,151,139,-183,43,131,-87,-165,-258,-229,-209
-185,-73,112,129,-148,19,122,-68,-141,-229,-214,-175
-161,-92,68,126,-114,-12,126,-48,-122,-204,-185,-146
-136,-63,73,100,-104,4,87,-53,-122,-170,-161,-141
-112,-24,87,68,-100,31,68,-58,-112,-151,-141,-126
-82,-24,58,53,-70,17,43,-34,-92,-131,-117,-102
-58,-19,39,39,-48,9,29,-24,-73,-112,-97,-78
-39,-4,34,21,-36,14,4,-14,-53,-92,-78,-58
-14,-4,9,9,-12,2,-19,0,-29,-68,-53,-39
-4,-4,0,4,-2,-2,-39,4,-14,-43,-34,-19
9,4,-4,-7,7,0,-58,9,-4,-34,-29,-14
19,4,-14,-12,17,-4,-68,-9,4,-19,-14,-4
34,4,-29,-19,31,-12,-73,-39,9,0,-4,4
34,0,-34,-17,34,-17,-73,-78,4,0,0,9
39,-4,-43,-17,41,-24,-78,-122,-4,0,0,14
43,-4,-48,-19,46,-26,-68,-126,-14,-9,-9,4
43,-9,-53,-17,48,-31,-53,-136,-29,-14,-14,0
39,-43,-82,2,61,-63,-34,-126,-34,-19,-19,4
34,-53,-87,9,61,-70,-19,-117,-43,-29,-24,0
34,-48,-82,7,58,-65,-14,-102,-43,-29,-19,-4
29,-39,-68,4,48,-53,-9,-92,-43,-29,-19,-9
29,-39,-68,4,48,-53,-9,-78,-43,-29,-19,-9
24,-39,-63,7,43,-51,-4,-63,-43,-29,-19,-9
19,-43,-63,12,41,-53,0,-58,-39,-19,-14,-4
14,-53,-68,19,41,-61,0,-48,-34,-9,-9,0
9,-48,-58,19,34,-53,0,-48,-29,-9,-9,0
9,-48,-58,19,34,-53,4,-43,-29,-9,-9,0
9,-48,-58,19,34,-53,4,-48,-34,-9,-9,4
9,-43,-53,17,31,-48,0,-48,-34,-9,-4,4
9,-39,-48,14,29,-43,0,-43,-29,-9,-4,4
14,-34,-48,9,31,-41,0,-39,-29,-9,0,0
14,-29,-43,7,29,-36,-4,-34,-24,-14,0,0
14,-34,-48,9,31,-41,-4,-34,-14,-14,0,0
14,-34,-48,9,31,-41,0,-43,-14,-4,0,4
14,-29,-43,7,29,-36,0,-34,-19,-4,0,9
14,-29,-43,7,29,-36,0,-34,-19,0,4,9
19,-34,-53,7,36,-43,4,-29,-19,4,4,9
19,-24,-43,2,31,-34,0,-19,-24,0,0,0
14,-19,-34,2,24,-26,-9,-4,-24,-4,-4,-4
14,-14,-29,0,21,-21,-4,0,-14,0,0,0
19,-9,-29,-4,24,-19,0,0,-9,0,0,0
19,-9,-29,-4,24,-19,0,0,-4,0,4,4
19,-9,-29,-4,24,-19,0,0,0,0,9,9
24,-19,-43,-2,34,-31,0,0,4,4,9,9
24,-14,-39,-4,31,-26,-9,-4,9,4,14,9
29,-9,-39,-9,34,-24,-24,-9,14,9,19,14
29,4,-24,-17,26,-9,-48,-9,19,14,24,14
29,19,-9,-24,19,4,-78,-39,24,14,19,14
34,39,4,-36,14,21,-102,-73,24,19,19,14
24,24,0,-24,12,12,-102,-141,9,9,14,14
9,9,0,-9,4,4,-107,-209,-4,0,4,14
4,-14,-19,4,12,-17,-87,-185,-29,-14,-9,4
0,-39,-39,19,19,-39,-73,-161,-48,-24,-24,-4
4,-53,-58,24,31,-56,-73,-146,-53,-29,-24,-9
9,-48,-58,19,34,-53,-73,-126,-58,-34,-29,-19
14,-53,-68,19,41,-61,-58,-112,-58,-34,-29,-19
24,-58,-82,17,53,-70,-48,-97,-63,-34,-29,-19
24,-58,-82,17,53,-70,-58,-92,-63,-43,-29,-19
24,-63,-87,19,56,-75,-58,-82,-63,-48,-29,-19
29,-63,-92,17,61,-78,-48,-73,-58,-43,-29,-19
29,-63,-92,17,61,-78,-43,-68,-53,-43,-29,-19
19,-58,-78,19,48,-68,-34,-63,-48,-29,-19,-14
9,-53,-63,21,36,-58,-24,-63,-48,-19,-14,-9
4,-53,-58,24,31,-56,-14,-68,-48,-19,-14,-4
0,-48,-48,24,24,-48,-9,-73,-48,-19,-14,-4
0,-43,-43,21,21,-43,-9,-68,-43,-19,-14,-4
0,-39,-39,19,19,-39,-9,-68,-43,-19,-14,-4
0,-34,-34,17,17,-34,-14,-68,-43,-19,-14,-9
0,-29,-29,14,14,-29,-14,-68,-43,-19,-14,-14
-4,-29,-24,17,9,-26,-9,-78,-39,-19,-14,-14
-9,-29,-19,19,4,-24,-9,-82,-34,-19,-14,-14
-4,-29,-24,17,9,-26,-14,-78,-29,-19,-14,-9
0,-34,-34,17,17,-34,-14,-78,-34,-24,-14,-9
-4,-29,-24,17,9,-26,-9,-78,-29,-19,-14,-4
-4,-19,-14,12,4,-17,-9,-73,-29,-19,-14,-4
4,-14,-19,4,12,-17,-14,-68,-29,-19,-14,-4
9,-14,-24,2,17,-19,-9,-78,-29,-19,-14,-4
4,-4,-9,0,7,-7,-9,-78,-29,-19,-9,-4
0,-4,-4,2,2,-4,-4,-78,-24,-14,-4,-4
0,-14,-14,7,7,-14,0,-73,-29,-19,-4,-4
-4,-24,-19,14,7,-21,9,-68,-34,-19,-4,-4
4,-29,-34,12,19,-31,19,-63,-34,-14,-4,-4
14,-29,-43,7,29,-36,24,-63,-34,-14,-9,-4
14,-43,-58,14,36,-51,14,-53,-53,-29,-19,-4
19,-58,-78,19,48,-68,4,-43,-63,-29,-19,-4
0,-39,-39,19,19,-39,-14,-43,-82,-68,-53,-34
24,-4,-29,-9,26,-17,-9,68,48,24,4,-19
107,19,-87,-63,97,-34,39,390,312,224,112,24
136,82,-53,-109,95,14,87,629,561,448,258,107
229,209,-19,-219,124,95,82,849,995,897,614,356
385,405,19,-395,183,212,-14,907,1464,1439,1083,722
575,649,73,-612,251,361,-117,990,2044,2059,1634,1171
746,839,92,-793,326,466,-312,897,2200,2352,1986,1527
917,1068,151,-993,383,610,-668,-58,1815,2488,2313,1937
1180,1293,112,-1237,534,702,-1054,-1034,1307,2518,2557,2342
1537,1595,58,-1566,739,827,-1532,-2176,409,2186,2537,2542
1810,1478,-331,-1644,1071,573,-1747,-2879,-483,1420,2010,2357
1830,888,-941,-1359,1385,-26,-1644,-2854,-1537,48,893,1693
1307,575,-732,-941,1019,-78,-1424,-2928,-2117,-854,190,1200
531,283,-248,-407,390,17,-976,-2469,-2034,-1190,-287,614
165,107,-58,-136,112,24,-678,-1873,-1742,-1205,-478,253
48,136,87,-92,-19,112,-497,-1322,-1141,-854,-409,78
-9,82,92,-36,-51,87,-302,-775,-673,-561,-307,-19
-63,-4,58,34,-61,26,-92,-322,-356,-331,-214,-87
-78,-48,29,63,-53,-9,19,-68,-161,-185,-136,-107
-78,-73,4,75,-41,-34,63,0,-82,-141,-131,-112
-78,-78,0,78,-39,-39,87,39,-43,-126,-136,-122
-73,-68,4,70,-39,-31,87,53,-34,-117,-126,-126
-73,-53,19,63,-46,-17,82,53,-34,-102,-112,-131
-78,-78,0,78,-39,-39,78,43,-29,-102,-112,-131
-78,-97,-19,87,-29,-58,92,53,-19,-97,-112,-131
-78,-97,-19,87,-29,-58,87,58,-19,-92,-117,-136
-78,-97,-19,87,-29,-58,78,58,-24,-87,-117,-141
-78,-78,0,78,-39,-39,73,58,-24,-87,-117,-141
-78,-87,-9,82,-34,-48,68,58,-19,-87,-112,-141
-78,-87,-9,82,-34,-48,63,68,-9,-78,-107,-136
-78,-82,-4,80,-36,-43,53,73,-4,-68,-102,-131
-78,-78,0,78,-39,-39,48,82,0,-68,-97,-131
-78,-78,0,78,-39,-39,34,87,9,-68,-97,-131
-68,-78,-9,73,-29,-43,24,102,9,-68,-97,-131
-63,-82,-19,73,-21,-51,24,112,9,-73,-92,-131
-58,-82,-24,70,-17,-53,9,131,9,-68,-97,-131
-53,-82,-29,68,-12,-56,-9,141,4,-68,-102,-131
-48,-87,-39,68,-4,-63,-9,170,4,-68,-102,-131
-48,-92,-43,70,-2,-68,-4,190,0,-73,-97,-131
-48,-102,-53,75,2,-78,14,204,0,-73,-102,-136
