I,II,III,aVR,aVL,aVF,V1,V2,V3,V4,V5,V6,
-87,-97,-9,92,-39,-53,48,-78,-78,-68,-39,-39
-87,-97,-9,92,-39,-53,48,-78,-78,-68,-39,-39
-87,-97,-9,92,-39,-53,48,-78,-78,-68,-39,-39
-87,-97,-9,92,-39,-53,48,-78,-78,-68,-39,-39
-78,-87,-9,82,-34,-48,43,-87,-78,-68,-48,-39
-78,-87,-9,82,-34,-48,39,-87,-78,-68,-48,-39
-78,-87,-9,82,-34,-48,34,-87,-78,-68,-48,-39
-78,-87,-9,82,-34,-48,29,-87,-78,-68,-48,-39
-82,-78,4,80,-43,-36,29,-97,-87,-68,-39,-39
-87,-78,9,82,-48,-34,29,-97,-87,-68,-39,-39
-92,-78,14,85,-53,-31,29,-97,-87,-68,-39,-39
-97,-78,19,87,-58,-29,29,-97,-87,-68,-39,-39
-92,-78,14,85,-53,-31,29,-87,-87,-78,-48,-39
-87,-78,9,82,-48,-34,29,-87,-87,-78,-48,-39
-82,-78,4,80,-43,-36,29,-87,-87,-78,-48,-39
-78,-78,0,78,-39,-39,29,-87,-87,-78,-48,-39
-87,-87,0,87,-43,-43,29,-97,-97,-78,-48,-39
-87,-87,0,87,-43,-43,29,-97,-97,-78,-48,-39
-87,-87,0,87,-43,-43,29,-97,-97,-78,-48,-39
-87,-87,0,87,-43,-43,29,-97,-97,-78,-48,-39
-87,-78,9,82,-48,-34,39,-87,-97,-78,-58,-29
-87,-78,9,82,-48,-34,39,-87,-97,-78,-58,-29
-87,-78,9,82,-48,-34,39,-87,-97,-78,-58,-29
-87,-78,9,82,-48,-34,39,-87,-97,-78,-58,-29
-87,-78,9,82,-48,-34,29,-92,-87,-78,-58,-29
-87,-78,9,82,-48,-34,29,-97,-87,-78,-58,-29
-87,-78,9,82,-48,-34,29,-102,-87,-78,-58,-29
-87,-78,9,82,-48,-34,29,-107,-87,-78,-58,-29
-87,-78,9,82,-48,-34,29,-107,-97,-78,-58,-29
-87,-78,9,82,-48,-34,29,-107,-97,-78,-58,-29
-87,-78,9,82,-48,-34,29,-107,-97,-78,-58,-29
-87,-78,9,82,-48,-34,29,-107,-97,-78,-58,-29
-97,-87,9,92,-53,-39,39,-107,-97,-78,-48,-29
-97,-87,9,92,-53,-39,39,-107,-97,-78,-48,-29
-97,-87,9,92,-53,-39,39,-107,-97,-78,-48,-29
-97,-87,9,92,-53,-39,39,-107,-97,-78,-48,-29
-87,-87,0,87,-43,-43,39,-117,-97,-78,-48,-29
-87,-87,0,87,-43,-43,39,-117,-97,-78,-48,-29
-87,-87,0,87,-43,-43,39,-117,-97,-78,-48,-29
-87,-87,0,87,-43,-43,39,-117,-97,-78,-48,-29
-87,-78,9,82,-48,-34,39,-117,-107,-78,-48,-29
-87,-78,9,82,-48,-34,39,-117,-107,-78,-48,-29
-87,-78,9,82,-48,-34,39,-117,-107,-78,-48,-29
-87,-78,9,82,-48,-34,39,-117,-107,-78,-48,-29
-97,-78,19,87,-58,-29,39,-117,-107,-87,-58,-29
-97,-78,19,87,-58,-29,39,-117,-107,-87,-58,-29
-97,-78,19,87,-58,-29,39,-117,-107,-87,-58,-29
-97,-78,19,87,-58,-29,39,-117,-107,-87,-58,-29
-87,-87,0,87,-43,-43,29,-117,-117,-87,-48,-29
-87,-87,0,87,-43,-43,29,-117,-117,-87,-48,-29
-87,-87,0,87,-43,-43,29,-117,-117,-87,-48,-29
-87,-87,0,87,-43,-43,29,-117,-117,-87,-48,-29
-87,-78,9,82,-48,-34,39,-117,-117,-87,-48,-29
-87,-78,9,82,-48,-34,39,-117,-117,-87,-48,-29
-87,-78,9,82,-48,-34,39,-117,-117,-87,-48,-29
-87,-78,9,82,-48,-34,39,-117,-117,-87,-48,-29
-97,-87,9,92,-53,-39,39,-117,-107,-87,-58,-29
-97,-87,9,92,-53,-39,39,-117,-107,-87,-58,-29
-97,-87,9,92,-53,-39,39,-117,-107,-87,-58,-29
-97,-87,9,92,-53,-39,39,-117,-107,-87,-58,-29
-87,-87,0,87,-43,-43,39,-117,-117,-87,-48,-29
-87,-87,0,87,-43,-43,39,-117,-117,-87,-48,-29
-87,-87,0,87,-43,-43,39,-117,-117,-87,-48,-29
-87,-87,0,87,-43,-43,39,-117,-117,-87,-48,-29
-87,-87,0,87,-43,-43,39,-117,-117,-78,-58,-29
-87,-87,0,87,-43,-43,39,-117,-117,-78,-58,-29
-87,-87,0,87,-43,-43,39,-117,-117,-78,-58,-29
-87,-87,0,87,-43,-43,39,-117,-117,-78,-58,-29
-97,-87,9,92,-53,-39,39,-117,-107,-78,-58,-29
-97,-87,9,92,-53,-39,39,-117,-107,-78,-58,-29
-97,-87,9,92,-53,-39,39,-117,-107,-78,-58,-29
-97,-87,9,92,-53,-39,39,-117,-107,-78,-58,-29
-87,-97,-9,92,-39,-53,39,-117,-107,-87,-68,-34
-87,-97,-9,92,-39,-53,39,-117,-107,-87,-68,-39
-87,-97,-9,92,-39,-53,39,-117,-107,-87,-68,-43
-87,-97,-9,92,-39,-53,39,-117,-107,-87,-68,-48
-97,-97,0,97,-48,-48,39,-117,-107,-87,-63,-39
-97,-97,0,97,-48,-48,39,-117,-107,-87,-58,-39
-97,-97,0,97,-48,-48,39,-117,-107,-87,-53,-39
-97,-97,0,97,-48,-48,39,-117,-107,-87,-48,-39
-97,-87,9,92,-53,-39,39,-117,-117,-87,-58,-29
-97,-87,9,92,-53,-39,39,-117,-117,-87,-58,-29
-97,-87,9,92,-53,-39,39,-117,-117,-87,-58,-29
-97,-87,9,92,-53,-39,39,-117,-117,-87,-58,-29
-97,-87,9,92,-53,-39,39,-126,-117,-97,-68,-39
-97,-87,9,92,-53,-39,39,-126,-117,-97,-68,-39
-97,-87,9,92,-53,-39,39,-126,-117,-97,-68,-39
-97,-87,9,92,-53,-39,39,-126,-117,-97,-68,-39
-87,-97,-9,92,-39,-53,39,-117,-117,-87,-68,-39
-87,-97,-9,92,-39,-53,39,-117,-117,-87,-68,-39
-87,-97,-9,92,-39,-53,39,-117,-117,-87,-68,-39
-87,-97,-9,92,-39,-53,39,-117,-117,-87,-68,-39
-87,-87,0,87,-43,-43,39,-126,-117,-87,-58,-39
-87,-87,0,87,-43,-43,39,-126,-117,-87,-58,-39
-87,-87,0,87,-43,-43,39,-126,-117,-87,-58,-39
-87,-87,0,87,-43,-43,39,-126,-117,-87,-58,-39
-78,-78,0,78,-39,-39,29,-117,-107,-87,-48,-39
-78,-78,0,78,-39,-39,29,-117,-107,-87,-48,-39
-78,-78,0,78,-39,-39,29,-117,-107,-87,-48,-39
-78,-78,0,78,-39,-39,29,-117,-107,-87,-48,-39
-68,-68,0,68,-34,-34,29,-107,-97,-78,-48,-29
-68,-68,0,68,-34,-34,29,-107,-97,-78,-48,-29
-68,-68,0,68,-34,-34,29,-107,-97,-78,-48,-29
-68,-68,0,68,-34,-34,29,-107,-97,-78,-48,-29
-58,-63,-4,61,-26,-34,29,-107,-97,-68,-39,-19
-58,-58,0,58,-29,-29,29,-107,-97,-68,-39,-19
-58,-53,4,56,-31,-24,29,-107,-97,-68,-39,-19
-58,-48,9,53,-34,-19,29,-107,-97,-68,-39,-19
-48,-43,4,46,-26,-19,24,-107,-78,-63,-24,-14
-48,-39,9,43,-29,-14,24,-107,-78,-58,-24,-14
-48,-34,14,41,-31,-9,19,-102,-82,-58,-24,-14
-48,-34,14,41,-31,-9,19,-102,-82,-53,-24,-19
-39,-34,4,36,-21,-14,9,-102,-87,-63,-29,-19
-39,-34,4,36,-21,-14,9,-102,-87,-63,-29,-19
-39,-34,4,36,-21,-14,9,-97,-87,-63,-29,-19
-34,-43,-9,39,-12,-26,9,-97,-92,-73,-39,-24
-34,-43,-9,39,-12,-26,19,-97,-92,-63,-39,-14
-24,-43,-19,34,-2,-31,19,-92,-92,-63,-39,-14
-24,-43,-19,34,-2,-31,19,-92,-92,-63,-39,-14
-29,-39,-9,34,-9,-24,29,-92,-92,-63,-39,-14
-19,-29,-9,24,-4,-19,29,-92,-102,-78,-48,-24
-29,-39,-9,34,-9,-24,29,-102,-107,-82,-53,-29
-29,-43,-14,36,-7,-29,29,-102,-107,-82,-58,-34
-29,-48,-19,39,-4,-34,29,-107,-112,-87,-63,-34
-34,-63,-29,48,-2,-46,19,-112,-107,-92,-63,-34
-39,-63,-24,51,-7,-43,19,-117,-112,-92,-63,-34
-43,-63,-19,53,-12,-41,14,-122,-112,-92,-63,-34
-48,-63,-14,56,-17,-39,9,-122,-112,-92,-63,-34
-43,-58,-14,51,-14,-36,14,-122,-122,-92,-63,-39
-34,-48,-14,41,-9,-31,0,-122,-122,-92,-63,-39
-29,-48,-19,39,-4,-34,0,-122,-122,-92,-63,-39
-29,-48,-19,39,-4,-34,0,-122,-126,-92,-63,-43
-19,-48,-29,34,4,-39,-4,-122,-126,-102,-63,-43
-19,-48,-29,34,4,-39,-9,-122,-131,-102,-63,-43
-19,-53,-34,36,7,-43,-19,-126,-136,-107,-68,-43
-19,-53,-34,36,7,-43,-24,-126,-136,-107,-68,-43
-19,-63,-43,41,12,-53,-19,-126,-136,-97,-68,-48
-19,-63,-43,41,12,-53,-14,-131,-141,-102,-68,-48
-19,-63,-43,41,12,-53,-9,-131,-141,-102,-68,-48
-29,-58,-29,43,0,-43,4,-126,-126,-92,-58,-43
-39,-53,-14,46,-12,-34,0,-126,-117,-82,-53,-34
-58,-53,4,56,-31,-24,14,-126,-117,-82,-43,-34
-78,-73,4,75,-41,-34,24,-131,-122,-82,-53,-34
-92,-82,9,87,-51,-36,39,-141,-122,-92,-53,-34
-97,-82,14,90,-56,-34,39,-141,-122,-102,-63,-29
-97,-82,14,90,-56,-34,39,-136,-122,-102,-68,-34
-97,-87,9,92,-53,-39,34,-136,-126,-102,-68,-34
-102,-87,14,95,-58,-36,34,-136,-126,-102,-78,-34
-112,-102,9,107,-61,-46,48,-136,-131,-102,-73,-39
-112,-102,9,107,-61,-46,48,-136,-131,-102,-73,-39
-112,-102,9,107,-61,-46,48,-136,-131,-102,-73,-39
-112,-107,4,109,-58,-51,48,-136,-131,-102,-73,-39
-102,-107,-4,104,-48,-56,48,-136,-131,-112,-73,-39
-102,-107,-4,104,-48,-56,53,-136,-126,-112,-68,-39
-102,-107,-4,104,-48,-56,53,-136,-126,-112,-68,-43
-102,-107,-4,104,-48,-56,53,-136,-126,-112,-68,-43
-112,-97,14,104,-63,-41,53,-126,-126,-112,-68,-43
-112,-97,14,104,-63,-41,53,-126,-126,-112,-68,-43
-112,-97,14,104,-63,-41,53,-126,-126,-107,-68,-43
-112,-97,14,104,-63,-41,53,-122,-126,-107,-68,-43
-102,-87,14,95,-58,-36,43,-131,-126,-97,-58,-43
-102,-87,14,95,-58,-36,43,-131,-126,-97,-58,-43
-102,-87,14,95,-58,-36,43,-131,-126,-97,-58,-43
-107,-87,19,97,-63,-34,43,-131,-126,-97,-58,-43
-107,-97,9,102,-58,-43,43,-131,-136,-97,-68,-53
-107,-102,4,104,-56,-48,43,-131,-136,-97,-68,-53
-107,-102,4,104,-56,-48,43,-131,-136,-97,-68,-53
-102,-102,0,102,-51,-51,43,-131,-136,-97,-68,-53
-102,-107,-4,104,-48,-56,53,-126,-126,-97,-68,-43
-102,-107,-4,104,-48,-56,53,-126,-126,-97,-68,-43
-102,-107,-4,104,-48,-56,53,-126,-126,-97,-68,-43
-102,-107,-4,104,-48,-56,53,-126,-126,-97,-68,-43
-112,-117,-4,114,-53,-61,48,-126,-136,-107,-68,-53
-112,-117,-4,114,-53,-61,48,-126,-131,-107,-68,-53
-112,-117,-4,114,-53,-61,53,-126,-131,-107,-68,-53
-112,-117,-4,114,-53,-61,53,-126,-131,-107,-68,-53
-117,-126,-9,122,-53,-68,48,-126,-131,-107,-68,-53
-122,-126,-4,124,-58,-65,43,-126,-131,-107,-68,-53
-122,-126,-4,124,-58,-65,39,-126,-131,-107,-68,-53
-126,-122,4,124,-65,-58,34,-126,-131,-107,-68,-53
-122,-122,0,122,-61,-61,34,-126,-131,-107,-73,-53
-122,-122,0,122,-61,-61,34,-126,-131,-102,-73,-53
-117,-122,-4,119,-56,-63,34,-122,-131,-102,-73,-53
-117,-122,-4,119,-56,-63,34,-122,-131,-102,-73,-48
-126,-122,4,124,-65,-58,43,-126,-126,-112,-73,-48
-126,-122,4,124,-65,-58,39,-126,-126,-112,-73,-48
-126,-122,4,124,-65,-58,39,-126,-126,-112,-73,-48
-126,-122,4,124,-65,-58,43,-126,-131,-112,-73,-48
-107,-112,-4,109,-51,-58,34,-126,-131,-102,-73,-48
-112,-122,-9,117,-51,-65,43,-117,-131,-102,-73,-39
-117,-126,-9,122,-53,-68,48,-126,-146,-122,-78,-48
-122,-131,-9,126,-56,-70,48,-146,-146,-122,-73,-48
-126,-136,-9,131,-58,-73,48,-146,-156,-122,-82,-48
-126,-136,-9,131,-58,-73,48,-146,-156,-117,-82,-58
-126,-126,0,126,-63,-63,39,-151,-156,-107,-78,-48
-126,-122,4,124,-65,-58,48,-136,-146,-102,-58,-34
-136,-131,4,134,-70,-63,68,-131,-126,-82,-63,-39
-126,-97,29,112,-78,-34,58,-107,-73,-48,-34,-19
-117,-48,68,82,-92,9,43,-107,-14,24,9,19
-87,39,126,24,-107,82,4,-126,39,87,78,68
-34,161,195,-63,-114,178,-53,-131,122,190,161,141
48,331,283,-190,-117,307,-112,-131,268,336,287,234
141,546,405,-344,-131,475,-219,-126,429,507,429,346
273,775,502,-524,-114,639,-326,-107,610,697,570,468
390,995,605,-692,-107,800,-439,-43,790,883,722,570
527,1176,649,-851,-61,912,-556,4,941,1058,844,673
653,1346,692,-1000,-19,1019,-678,43,1063,1190,941,736
795,1498,702,-1146,46,1100,-795,68,1171,1317,1054,824
936,1698,761,-1317,87,1229,-927,58,1307,1473,1171,907
1044,1873,829,-1459,107,1351,-1049,4,1400,1605,1293,1000
1093,1937,844,-1515,124,1390,-1127,-48,1400,1649,1342,1049
1146,1927,780,-1537,183,1354,-1171,-63,1322,1595,1317,1039
1161,1820,658,-1490,251,1239,-1180,-53,1200,1498,1234,985
1112,1629,517,-1371,297,1073,-1137,-34,1034,1298,1088,873
1034,1371,336,-1202,348,854,-1049,-43,800,1034,873,732
922,1083,161,-1002,380,622,-917,-39,546,741,649,561
790,819,29,-805,380,424,-785,-29,361,497,468,414
634,605,-29,-619,331,287,-629,-39,244,341,326,302
439,414,-24,-427,231,195,-448,-39,161,239,224,214
292,248,-43,-270,168,102,-322,-43,63,107,112,136
180,131,-48,-156,114,41,-244,-73,-34,19,48,82
87,68,-19,-78,53,24,-185,-112,-112,-43,9,58
19,9,-9,-14,14,0,-136,-141,-175,-107,-29,34
-34,-24,9,29,-21,-7,-97,-151,-185,-131,-48,4
-63,-34,29,48,-46,-2,-73,-146,-161,-131,-48,9
-78,-24,53,51,-65,14,-58,-165,-146,-112,-48,9
-97,-34,63,65,-80,14,-43,-151,-122,-92,-39,14
-97,-48,48,73,-73,0,-29,-122,-102,-92,-39,14
-97,-53,43,75,-70,-4,-9,-97,-97,-78,-48,-14
-97,-63,34,80,-65,-14,4,-78,-87,-78,-39,-19
-78,-73,4,75,-41,-34,4,-63,-87,-82,-58,-24
-78,-78,0,78,-39,-39,14,-53,-87,-92,-63,-39
-78,-82,-4,80,-36,-43,34,-48,-78,-92,-63,-34
-87,-92,-4,90,-41,-48,34,-48,-78,-92,-73,-53
-87,-97,-9,92,-39,-53,43,-43,-73,-92,-73,-53
-92,-102,-9,97,-41,-56,53,-39,-63,-82,-73,-53
-97,-102,-4,100,-46,-53,53,-34,-63,-78,-73,-48
-102,-107,-4,104,-48,-56,58,-34,-73,-78,-68,-39
-102,-107,-4,104,-48,-56,63,-29,-73,-82,-68,-43
-92,-107,-14,100,-39,-61,63,-29,-78,-92,-78,-43
-92,-117,-24,104,-34,-70,63,-24,-78,-97,-82,-48
-82,-112,-29,97,-26,-70,53,-24,-73,-97,-82,-63
-82,-112,-29,97,-26,-70,58,-24,-73,-97,-82,-63
-87,-112,-24,100,-31,-68,58,-24,-68,-87,-82,-58
-92,-112,-19,102,-36,-65,58,-19,-68,-87,-78,-53
-92,-107,-14,100,-39,-61,73,-19,-63,-78,-78,-53
-87,-107,-19,97,-34,-63,73,-14,-63,-78,-78,-48
-82,-107,-24,95,-29,-65,73,-14,-68,-82,-78,-48
-82,-117,-34,100,-24,-75,73,-14,-68,-82,-82,-53
-87,-122,-34,104,-26,-78,73,-9,-78,-82,-92,-58
-87,-122,-34,104,-26,-78,73,-9,-78,-82,-92,-58
-87,-122,-34,104,-26,-78,73,-9,-73,-78,-92,-58
-87,-117,-29,102,-29,-73,73,-9,-73,-73,-87,-53
-78,-112,-34,95,-21,-73,73,-19,-63,-82,-78,-63
-78,-112,-34,95,-21,-73,73,-19,-63,-87,-78,-63
-78,-112,-34,95,-21,-73,73,-19,-63,-92,-78,-63
-78,-112,-34,95,-21,-73,73,-19,-63,-92,-82,-63
-87,-112,-24,100,-31,-68,73,0,-63,-92,-82,-68
-87,-112,-24,100,-31,-68,73,0,-63,-92,-82,-68
-87,-112,-24,100,-31,-68,73,0,-63,-92,-82,-68
-87,-112,-24,100,-31,-68,73,0,-63,-87,-78,-68
-87,-97,-9,92,-39,-53,78,-9,-73,-97,-78,-58
-92,-97,-4,95,-43,-51,78,-9,-68,-92,-78,-58
-92,-97,-4,95,-43,-51,78,-4,-68,-92,-78,-63
-82,-97,-14,90,-34,-56,73,-4,-73,-97,-82,-68
-73,-112,-39,92,-17,-75,73,14,-73,-92,-87,-73
-68,-112,-43,90,-12,-78,73,14,-73,-92,-87,-73
-68,-112,-43,90,-12,-78,73,14,-73,-92,-87,-73
-73,-117,-43,95,-14,-80,73,14,-68,-87,-82,-73
-73,-107,-34,90,-19,-70,73,14,-58,-73,-78,-68
-78,-107,-29,92,-24,-68,73,14,-58,-73,-78,-68
-78,-107,-29,92,-24,-68,78,29,-58,-73,-78,-68
-68,-107,-39,87,-14,-73,78,29,-58,-78,-82,-78
-63,-117,-53,90,-4,-85,78,29,-68,-78,-82,-78
-63,-122,-58,92,-2,-90,78,29,-68,-78,-82,-73
-63,-126,-63,95,0,-95,78,29,-68,-78,-78,-73
-68,-126,-58,97,-4,-92,78,34,-58,-78,-73,-73
-68,-117,-48,92,-9,-82,78,24,-58,-82,-82,-73
-68,-117,-48,92,-9,-82,78,24,-58,-82,-82,-73
-73,-117,-43,95,-14,-80,78,24,-58,-82,-82,-73
-73,-117,-43,95,-14,-80,78,29,-58,-82,-82,-73
-73,-126,-53,100,-9,-90,68,39,-58,-87,-87,-73
-68,-126,-58,97,-4,-92,68,43,-58,-87,-87,-82
-68,-131,-63,100,-2,-97,68,48,-63,-87,-87,-82
-68,-131,-63,100,-2,-97,68,48,-63,-87,-87,-82
-58,-122,-63,90,2,-92,68,48,-43,-82,-78,-73
-63,-122,-58,92,-2,-90,68,48,-43,-82,-78,-73
-63,-117,-53,90,-4,-85,68,48,-43,-82,-78,-68
-63,-117,-53,90,-4,-85,68,58,-43,-82,-78,-68
-58,-126,-68,92,4,-97,68,53,-53,-87,-92,-87
-58,-126,-68,92,4,-97,68,53,-53,-87,-92,-87
-53,-126,-73,90,9,-100,63,53,-53,-87,-92,-87
-53,-126,-73,90,9,-100,63,58,-53,-87,-92,-87
-53,-117,-63,85,4,-90,63,58,-43,-68,-87,-87
-53,-112,-58,82,2,-85,63,63,-43,-68,-87,-87
-53,-112,-58,82,2,-85,63,63,-43,-68,-87,-87
-53,-112,-58,82,2,-85,63,68,-43,-68,-87,-87
-48,-122,-73,85,12,-97,63,73,-43,-82,-87,-87
-43,-122,-78,82,17,-100,63,78,-43,-82,-92,-97
-39,-122,-82,80,21,-102,63,78,-43,-82,-92,-97
-39,-122,-82,80,21,-102,58,82,-43,-78,-92,-97
-48,-112,-63,80,7,-87,58,87,-29,-68,-82,-87
-48,-112,-63,80,7,-87,58,87,-24,-58,-78,-82
-48,-112,-63,80,7,-87,58,87,-24,-58,-78,-82
-48,-107,-58,78,4,-82,58,92,-24,-58,-78,-82
-43,-117,-73,80,14,-95,58,97,-24,-68,-87,-92
-29,-117,-87,73,29,-102,58,102,-19,-68,-92,-92
-19,-117,-97,68,39,-107,58,107,-19,-68,-92,-97
-9,-117,-107,63,48,-112,58,112,-19,-68,-92,-97
-19,-117,-97,68,39,-107,48,122,-14,-68,-87,-97
-19,-117,-97,68,39,-107,48,122,0,-63,-82,-92
-19,-107,-87,63,34,-97,48,131,4,-63,-78,-87
-19,-107,-87,63,34,-97,48,136,9,-53,-78,-87
-9,-97,-87,53,39,-92,53,131,9,-53,-68,-78
-4,-97,-92,51,43,-95,53,136,9,-53,-68,-78
0,-97,-97,48,48,-97,53,141,9,-53,-68,-78
4,-97,-102,46,53,-100,53,146,9,-53,-73,-78
4,-107,-112,51,58,-109,53,151,19,-43,-73,-87
4,-107,-112,51,58,-109,53,156,24,-34,-73,-87
4,-97,-102,46,53,-100,53,161,29,-29,-63,-78
14,-92,-107,39,61,-100,48,161,34,-24,-58,-73
19,-87,-107,34,63,-97,39,175,39,-24,-68,-63
24,-87,-112,31,68,-100,34,175,39,-24,-68,-63
29,-87,-117,29,73,-102,34,190,39,-24,-73,-63
34,-87,-122,26,78,-104,29,200,48,-19,-73,-63
39,-87,-126,24,82,-107,39,200,53,-24,-63,-63
39,-87,-126,24,82,-107,34,204,58,-19,-53,-58
43,-73,-117,14,80,-95,34,209,68,-4,-53,-58
48,-68,-117,9,82,-92,34,214,68,-4,-53,-58
53,-63,-117,4,85,-90,24,214,78,0,-53,-58
63,-58,-122,-2,92,-90,14,229,78,0,-53,-58
68,-58,-126,-4,97,-92,14,229,78,0,-53,-58
73,-58,-131,-7,102,-95,14,244,87,9,-53,-58
82,-48,-131,-17,107,-90,9,258,97,9,-53,-58
82,-43,-126,-19,104,-85,9,263,102,19,-43,-53
87,-39,-126,-24,107,-82,4,273,117,34,-39,-48
92,-24,-117,-34,104,-70,0,278,126,34,-34,-43
102,-24,-126,-39,114,-75,0,287,126,48,-29,-29
107,-9,-117,-48,112,-63,-4,297,136,58,-24,-29
122,0,-122,-61,122,-61,-9,307,141,63,-24,-29
131,4,-126,-68,129,-61,-14,317,146,68,-24,-34
141,14,-126,-78,134,-56,-19,317,151,63,-4,-34
141,19,-122,-80,131,-51,-19,317,161,68,0,-29
146,24,-122,-85,134,-48,-19,331,175,82,4,-29
151,39,-112,-95,131,-36,-29,341,190,87,9,-14
156,39,-117,-97,136,-39,-34,351,195,107,14,0
161,48,-112,-104,136,-31,-39,366,214,117,19,0
180,58,-122,-119,151,-31,-43,375,219,117,19,0
190,63,-126,-126,158,-31,-48,385,224,122,24,0
200,68,-131,-134,165,-31,-39,395,234,126,24,-9
209,73,-136,-141,173,-31,-43,405,248,131,24,-4
209,78,-131,-143,170,-26,-43,414,253,146,34,4
214,87,-126,-151,170,-19,-43,424,268,156,43,9
219,87,-131,-153,175,-21,-43,424,278,151,43,4
224,97,-126,-161,175,-14,-48,429,287,161,48,9
234,107,-126,-170,180,-9,-53,444,287,165,53,14
244,112,-131,-178,187,-9,-53,448,297,170,53,14
244,107,-136,-175,190,-14,-63,453,302,185,63,4
253,112,-141,-183,197,-14,-68,458,307,190,63,4
263,122,-141,-192,202,-9,-68,463,312,195,68,9
263,126,-136,-195,200,-4,-78,463,326,209,78,14
263,146,-117,-204,190,14,-78,478,336,229,92,29
263,146,-117,-204,190,14,-73,483,336,239,97,34
273,151,-122,-212,197,14,-73,483,346,239,97,34
278,161,-117,-219,197,21,-82,483,351,239,97,34
283,161,-122,-222,202,19,-82,473,356,248,107,34
287,165,-122,-226,204,21,-92,473,361,253,117,34
287,175,-112,-231,200,31,-92,473,366,258,117,39
287,180,-107,-234,197,36,-92,473,370,263,126,39
297,200,-97,-248,197,51,-97,463,375,268,122,39
292,204,-87,-248,190,58,-97,453,380,273,126,48
292,209,-82,-251,187,63,-97,453,380,273,126,48
297,209,-87,-253,192,61,-102,448,375,273,126,48
297,209,-87,-253,192,61,-92,448,385,278,126,58
292,209,-82,-251,187,63,-92,434,385,278,131,58
283,209,-73,-246,178,68,-92,424,390,278,141,58
268,209,-58,-239,163,75,-87,405,390,287,146,68
253,219,-34,-236,143,92,-97,380,380,287,151,73
253,219,-34,-236,143,92,-97,361,370,287,156,78
239,219,-19,-229,129,100,-97,341,370,287,156,82
239,224,-14,-231,126,104,-97,326,366,283,156,82
239,224,-14,-231,126,104,-97,312,346,268,151,82
234,224,-9,-229,122,107,-97,287,331,258,146,78
219,214,-4,-217,112,104,-92,268,326,258,146,78
209,209,0,-209,104,104,-92,248,312,253,146,78
190,214,24,-202,82,119,-87,234,302,244,156,87
185,209,24,-197,80,117,-87,209,292,239,156,92
175,209,34,-192,70,122,-87,185,273,234,156,92
156,204,48,-180,53,126,-82,170,258,219,146,92
151,209,58,-180,46,134,-87,151,234,200,141,82
141,185,43,-163,48,114,-78,141,224,190,136,82
131,180,48,-156,41,114,-78,122,204,185,131,78
122,170,48,-146,36,109,-73,107,190,175,122,78
102,151,48,-126,26,100,-63,92,180,156,112,68
87,146,58,-117,14,102,-58,73,161,141,107,68
68,136,68,-102,0,102,-53,63,146,131,102,63
63,126,63,-95,0,95,-48,53,136,122,97,58
68,117,48,-92,9,82,-43,43,122,112,82,58
58,107,48,-82,4,78,-43,39,107,102,73,53
48,92,43,-70,2,68,-39,34,92,92,63,48
43,82,39,-63,2,61,-39,19,78,82,58,43
34,73,39,-53,-2,56,-43,0,63,63,48,43
24,63,39,-43,-7,51,-39,-9,58,63,43,39
19,53,34,-36,-7,43,-34,-19,48,53,39,39
9,48,39,-29,-14,43,-34,-29,39,43,39,34
0,39,39,-19,-19,39,-29,-39,19,24,29,29
-4,29,34,-12,-19,31,-24,-39,9,14,14,19
-19,19,39,0,-29,29,-4,-39,4,4,14,19
-19,14,34,2,-26,24,4,-39,-4,-4,4,14
-24,14,39,4,-31,26,-4,-53,-14,-4,9,14
-29,4,34,12,-31,19,0,-58,-14,-4,9,14
-29,4,34,12,-31,19,0,-63,-24,-14,0,14
-34,0,34,17,-34,17,4,-68,-29,-9,0,9
-53,-14,39,34,-46,12,14,-68,-34,-14,-4,4
-53,-19,34,36,-43,7,14,-68,-39,-19,-9,0
-53,-34,19,43,-36,-7,19,-68,-43,-24,-14,0
-53,-43,9,48,-31,-17,19,-73,-58,-34,-24,-4
-43,-39,4,41,-24,-17,29,-78,-58,-34,-14,-9
-58,-43,14,51,-36,-14,34,-78,-58,-34,-14,-9
-58,-43,14,51,-36,-14,34,-87,-58,-34,-14,-9
-63,-48,14,56,-39,-17,34,-87,-58,-34,-19,-9
-63,-48,14,56,-39,-17,29,-87,-68,-48,-29,-9
-63,-53,9,58,-36,-21,29,-87,-73,-53,-39,-14
-63,-58,4,61,-34,-26,29,-92,-73,-58,-43,-19
-68,-63,4,65,-36,-29,34,-92,-78,-63,-43,-24
-78,-68,9,73,-43,-29,43,-92,-82,-73,-43,-24
-87,-68,19,78,-53,-24,43,-92,-82,-73,-43,-24
-92,-68,24,80,-58,-21,43,-92,-78,-73,-43,-24
-92,-68,24,80,-58,-21,48,-92,-78,-73,-43,-19
-78,-78,0,78,-39,-39,48,-82,-87,-78,-58,-24
-78,-82,-4,80,-36,-43,48,-82,-87,-78,-58,-34
-78,-82,-4,80,-36,-43,48,-82,-92,-82,-63,-39
-78,-87,-9,82,-34,-48,48,-82,-92,-82,-63,-43
-78,-92,-14,85,-31,-53,43,-82,-92,-73,-58,-39
-82,-92,-9,87,-36,-51,43,-82,-92,-73,-58,-39
-82,-92,-9,87,-36,-51,43,-82,-92,-68,-53,-39
-82,-92,-9,87,-36,-51,48,-78,-92,-68,-53,-39
-82,-92,-9,87,-36,-51,48,-78,-87,-68,-53,-39
-82,-92,-9,87,-36,-51,48,-78,-87,-68,-53,-39
-82,-92,-9,87,-36,-51,48,-78,-87,-73,-58,-39
-82,-97,-14,90,-34,-56,48,-78,-92,-73,-58,-39
-92,-97,-4,95,-43,-51,58,-78,-82,-73,-58,-39
-92,-97,-4,95,-43,-51,58,-73,-82,-73,-58,-39
-97,-102,-4,100,-46,-53,63,-73,-82,-73,-58,-39
-97,-102,-4,100,-46,-53,63,-73,-73,-73,-58,-39
-87,-102,-14,95,-36,-58,53,-73,-73,-73,-58,-39
-87,-102,-14,95,-36,-58,53,-73,-73,-73,-58,-39
-82,-97,-14,90,-34,-56,53,-73,-78,-73,-58,-39
-82,-97,-14,90,-34,-56,53,-73,-78,-73,-58,-43
-92,-97,-4,95,-43,-51,53,-82,-78,-73,-68,-43
-92,-102,-9,97,-41,-56,53,-82,-78,-68,-68,-43
-92,-102,-9,97,-41,-56,58,-78,-78,-68,-68,-43
-97,-102,-4,100,-46,-53,58,-78,-78,-68,-68,-43
-87,-102,-14,95,-36,-58,58,-68,-82,-68,-58,-43
-87,-97,-9,92,-39,-53,58,-68,-82,-68,-58,-43
-82,-97,-14,90,-34,-56,53,-68,-82,-68,-58,-43
-82,-97,-14,90,-34,-56,53,-68,-87,-73,-58,-43
-82,-102,-19,92,-31,-61,58,-78,-97,-73,-68,-53
-82,-102,-19,92,-31,-61,58,-78,-97,-73,-68,-58
-82,-102,-19,92,-31,-61,58,-78,-97,-73,-68,-58
-82,-102,-19,92,-31,-61,58,-78,-92,-63,-68,-58
-82,-92,-9,87,-36,-51,48,-78,-92,-63,-53,-48
-82,-87,-4,85,-39,-46,48,-78,-92,-63,-53,-48
-82,-87,-4,85,-39,-46,43,-78,-92,-63,-58,-48
-78,-87,-9,82,-34,-48,43,-78,-92,-73,-58,-48
-78,-87,-9,82,-34,-48,48,-78,-92,-73,-53,-48
-78,-82,-4,80,-36,-43,48,-78,-87,-73,-53,-48
-78,-82,-4,80,-36,-43,48,-78,-82,-73,-53,-48
-82,-82,0,82,-41,-41,48,-78,-78,-73,-53,-53
-82,-87,-4,85,-39,-46,48,-68,-78,-63,-43,-43
-82,-87,-4,85,-39,-46,43,-68,-78,-63,-43,-39
-82,-87,-4,85,-39,-46,43,-73,-78,-63,-43,-39
-82,-87,-4,85,-39,-46,43,-73,-78,-68,-43,-39
-82,-87,-4,85,-39,-46,43,-82,-87,-68,-53,-43
-78,-87,-9,82,-34,-48,43,-82,-92,-68,-53,-43
-78,-87,-9,82,-34,-48,39,-82,-92,-68,-53,-43
-78,-87,-9,82,-34,-48,39,-82,-92,-68,-53,-43
-78,-82,-4,80,-36,-43,39,-82,-82,-58,-53,-43
-82,-82,0,82,-41,-41,39,-82,-82,-58,-53,-39
-82,-82,0,82,-41,-41,39,-82,-82,-58,-53,-39
-82,-78,4,80,-43,-36,39,-87,-82,-58,-53,-39
-78,-78,0,78,-39,-39,39,-87,-97,-73,-53,-39
-78,-78,0,78,-39,-39,39,-92,-97,-73,-53,-39
-78,-82,-4,80,-36,-43,39,-92,-97,-73,-53,-39
-78,-82,-4,80,-36,-43,39,-92,-97,-73,-53,-39
-78,-82,-4,80,-36,-43,39,-92,-97,-68,-43,-29
-78,-82,-4,80,-36,-43,39,-92,-97,-68,-43,-24
-82,-82,0,82,-41,-41,39,-92,-97,-68,-43,-24
-82,-82,0,82,-41,-41,34,-92,-97,-68,-43,-24
-82,-82,0,82,-41,-41,34,-97,-102,-73,-53,-34
-78,-82,-4,80,-36,-43,34,-97,-102,-73,-53,-34
-78,-82,-4,80,-36,-43,34,-97,-107,-78,-53,-34
-78,-82,-4,80,-36,-43,39,-97,-107,-78,-53,-34
-82,-82,0,82,-41,-41,29,-107,-107,-78,-53,-34
-82,-82,0,82,-41,-41,29,-112,-107,-78,-53,-34
-82,-82,0,82,-41,-41,29,-112,-107,-78,-53,-34
-82,-82,0,82,-41,-41,29,-112,-107,-78,-53,-34
-82,-82,0,82,-41,-41,34,-112,-97,-87,-53,-34
-82,-82,0,82,-41,-41,34,-112,-102,-87,-53,-29
-82,-82,0,82,-41,-41,29,-112,-102,-87,-53,-29
-82,-82,0,82,-41,-41,29,-112,-102,-87,-53,-29
-97,-73,24,85,-61,-24,34,-117,-112,-78,-48,-19
-97,-73,24,85,-61,-24,34,-117,-112,-78,-48,-19
-97,-73,24,85,-61,-24,34,-117,-112,-78,-43,-19
-97,-73,24,85,-61,-24,29,-122,-112,-78,-43,-19
-97,-78,19,87,-58,-29,39,-112,-112,-78,-53,-29
-97,-78,19,87,-58,-29,39,-112,-117,-82,-53,-29
-92,-78,14,85,-53,-31,39,-112,-117,-82,-53,-29
-92,-82,9,87,-51,-36,39,-112,-117,-82,-58,-29
-82,-73,9,78,-46,-31,39,-122,-117,-82,-58,-29
-87,-73,14,80,-51,-29,39,-122,-117,-82,-58,-29
-87,-73,14,80,-51,-29,39,-122,-117,-82,-58,-29
-87,-73,14,80,-51,-29,39,-122,-117,-82,-58,-29
-87,-82,4,85,-46,-39,39,-117,-117,-82,-58,-29
-87,-82,4,85,-46,-39,39,-117,-117,-82,-58,-29
-87,-82,4,85,-46,-39,39,-112,-117,-82,-58,-29
-87,-82,4,85,-46,-39,39,-112,-117,-87,-58,-29
-97,-82,14,90,-56,-34,39,-122,-117,-87,-58,-19
-97,-82,14,90,-56,-34,39,-122,-117,-87,-58,-19
-97,-82,14,90,-56,-34,39,-122,-117,-82,-58,-19
-97,-82,14,90,-56,-34,39,-126,-117,-82,-53,-19
-92,-82,9,87,-51,-36,39,-126,-117,-92,-53,-24
-92,-82,9,87,-51,-36,39,-126,-122,-97,-58,-24
-92,-82,9,87,-51,-36,39,-126,-122,-97,-58,-24
-92,-82,9,87,-51,-36,39,-126,-122,-97,-63,-29
-102,-82,19,92,-61,-31,39,-126,-122,-97,-63,-29
-102,-87,14,95,-58,-36,39,-126,-122,-97,-63,-29
-102,-87,14,95,-58,-36,39,-126,-122,-97,-63,-29
-97,-87,9,92,-53,-39,39,-126,-122,-97,-58,-29
-97,-73,24,85,-61,-24,29,-126,-122,-87,-58,-29
-97,-73,24,85,-61,-24,29,-126,-122,-87,-58,-29
-97,-73,24,85,-61,-24,29,-126,-122,-87,-58,-29
-97,-73,24,85,-61,-24,29,-126,-122,-87,-58,-29
-97,-73,24,85,-61,-24,39,-126,-122,-97,-58,-29
-102,-78,24,90,-63,-26,39,-126,-122,-97,-58,-29
-102,-78,24,90,-63,-26,39,-122,-122,-92,-58,-29
-102,-78,24,90,-63,-26,39,-122,-122,-92,-58,-29
-92,-78,14,85,-53,-31,39,-122,-122,-92,-58,-29
-92,-78,14,85,-53,-31,39,-122,-122,-92,-58,-29
-92,-78,14,85,-53,-31,39,-122,-122,-97,-58,-29
-92,-78,14,85,-53,-31,39,-126,-122,-97,-63,-29
-97,-87,9,92,-53,-39,39,-126,-126,-87,-63,-34
-97,-87,9,92,-53,-39,39,-126,-126,-87,-58,-34
-97,-92,4,95,-51,-43,39,-126,-122,-87,-58,-34
-97,-92,4,95,-51,-43,43,-126,-122,-87,-58,-34
-92,-78,14,85,-53,-31,34,-126,-122,-97,-58,-43
-92,-78,14,85,-53,-31,34,-122,-122,-97,-53,-43
-92,-78,14,85,-53,-31,34,-122,-122,-97,-53,-43
-92,-78,14,85,-53,-31,34,-122,-122,-97,-58,-43
-92,-87,4,90,-48,-41,43,-122,-122,-97,-58,-48
-92,-87,4,90,-48,-41,39,-126,-122,-97,-58,-48
-92,-87,4,90,-48,-41,39,-126,-122,-97,-58,-48
-92,-92,0,92,-46,-46,39,-126,-122,-97,-58,-48
-92,-82,9,87,-51,-36,39,-126,-122,-97,-58,-39
-92,-82,9,87,-51,-36,39,-126,-122,-97,-58,-39
-92,-78,14,85,-53,-31,39,-126,-122,-97,-58,-39
-92,-78,14,85,-53,-31,39,-126,-126,-97,-58,-39
-97,-87,9,92,-53,-39,39,-126,-136,-97,-68,-39
-97,-87,9,92,-53,-39,39,-126,-136,-97,-68,-39
-97,-92,4,95,-51,-43,39,-126,-131,-97,-68,-39
-102,-92,9,97,-56,-41,39,-126,-131,-97,-68,-39
-92,-92,0,92,-46,-46,29,-131,-131,-97,-58,-39
-92,-87,4,90,-48,-41,29,-131,-131,-97,-58,-39
-92,-87,4,90,-48,-41,29,-131,-131,-97,-58,-39
-92,-87,4,90,-48,-41,29,-131,-131,-97,-58,-39
-87,-82,4,85,-46,-39,29,-122,-122,-87,-48,-39
-87,-82,4,85,-46,-39,39,-112,-122,-87,-48,-39
-78,-78,0,78,-39,-39,29,-122,-122,-87,-48,-39
-78,-78,0,78,-39,-39,29,-112,-112,-78,-39,-29
-78,-68,9,73,-43,-29,29,-117,-117,-78,-48,-29
-78,-58,19,68,-48,-19,29,-117,-107,-78,-48,-29
-78,-58,19,68,-48,-19,29,-117,-107,-78,-48,-29
-78,-58,19,68,-48,-19,29,-117,-107,-78,-48,-29
-78,-58,19,68,-48,-19,29,-117,-107,-78,-48,-29
-68,-53,14,61,-41,-19,29,-117,-107,-68,-39,-19
-68,-48,19,58,-43,-14,29,-117,-107,-68,-39,-19
-58,-43,14,51,-36,-14,24,-117,-97,-68,-34,-14
-58,-39,19,48,-39,-9,24,-117,-97,-68,-34,-14
-58,-29,29,43,-43,0,19,-112,-102,-73,-34,-24
-58,-34,24,46,-41,-4,19,-112,-102,-73,-34,-29
-48,-34,14,41,-31,-9,19,-112,-107,-73,-39,-29
-48,-34,14,41,-31,-9,19,-112,-107,-73,-39,-29
-48,-43,4,46,-26,-19,19,-107,-107,-73,-39,-29
-43,-53,-9,48,-17,-31,19,-107,-112,-82,-48,-34
-43,-53,-9,48,-17,-31,19,-107,-112,-82,-48,-34
-34,-53,-19,43,-7,-36,19,-102,-112,-82,-48,-34
-34,-43,-9,39,-12,-26,9,-102,-112,-92,-48,-34
-39,-39,0,39,-19,-19,19,-102,-112,-92,-48,-34
-39,-39,0,39,-19,-19,19,-102,-122,-97,-48,-34
-48,-48,0,48,-24,-24,19,-112,-126,-102,-53,-39
-58,-53,4,56,-31,-24,29,-112,-126,-92,-58,-34
-58,-58,0,58,-29,-29,29,-117,-131,-97,-63,-34
-58,-63,-4,61,-26,-34,19,-122,-136,-102,-63,-34
-58,-63,-4,61,-26,-34,19,-126,-141,-102,-63,-34
-58,-63,-4,61,-26,-34,14,-141,-151,-112,-73,-34
-58,-63,-4,61,-26,-34,9,-141,-151,-112,-73,-34
-53,-58,-4,56,-24,-31,4,-141,-151,-112,-73,-29
-43,-48,-4,46,-19,-26,-9,-141,-151,-112,-73,-29
-29,-48,-19,39,-4,-34,-9,-131,-141,-112,-73,-29
-29,-48,-19,39,-4,-34,-9,-131,-146,-112,-73,-34
-29,-48,-19,39,-4,-34,-9,-131,-146,-112,-73,-34
-29,-48,-19,39,-4,-34,-9,-131,-151,-112,-73,-34
-29,-53,-24,41,-2,-39,-14,-136,-156,-117,-78,-43
-29,-53,-24,41,-2,-39,-14,-136,-156,-117,-78,-43
-29,-63,-34,46,2,-48,-14,-136,-156,-117,-78,-48
-29,-63,-34,46,2,-48,-14,-141,-161,-122,-78,-48
-29,-73,-43,51,7,-58,-14,-141,-161,-122,-78,-48
-39,-68,-29,53,-4,-48,-4,-136,-146,-112,-68,-43
-48,-53,-4,51,-21,-29,0,-136,-136,-102,-63,-34
-68,-53,14,61,-41,-19,14,-136,-136,-102,-53,-34
-97,-73,24,85,-61,-24,24,-151,-141,-102,-63,-24
-112,-82,29,97,-70,-26,39,-161,-141,-112,-63,-24
-117,-92,24,104,-70,-34,39,-161,-141,-112,-63,-29
-117,-92,24,104,-70,-34,39,-156,-141,-112,-68,-34
-117,-97,19,107,-68,-39,34,-156,-156,-112,-68,-43
-122,-97,24,109,-73,-36,34,-156,-156,-112,-78,-43
-122,-102,19,112,-70,-41,39,-156,-161,-122,-82,-48
-122,-102,19,112,-70,-41,39,-156,-161,-122,-82,-48
-122,-102,19,112,-70,-41,39,-156,-161,-122,-82,-48
-122,-107,14,114,-68,-46,39,-156,-161,-122,-82,-48
-122,-107,14,114,-68,-46,39,-156,-161,-122,-82,-48
-122,-107,14,114,-68,-46,43,-156,-156,-122,-78,-48
-122,-107,14,114,-68,-46,43,-156,-156,-122,-87,-53
-122,-107,14,114,-68,-46,43,-156,-156,-122,-87,-53
-122,-107,14,114,-68,-46,43,-156,-156,-122,-87,-53
-122,-107,14,114,-68,-46,43,-156,-156,-122,-87,-53
-122,-117,4,119,-63,-56,43,-156,-156,-117,-87,-53
-122,-117,4,119,-63,-56,43,-151,-156,-117,-87,-53
-122,-117,4,119,-63,-56,43,-151,-156,-117,-87,-53
-122,-117,4,119,-63,-56,43,-151,-156,-117,-87,-53
-122,-117,4,119,-63,-56,34,-141,-156,-126,-87,-53
-126,-117,9,122,-68,-53,34,-141,-156,-126,-87,-53
-126,-117,9,122,-68,-53,34,-141,-156,-126,-87,-53
-126,-122,4,124,-65,-58,34,-141,-156,-126,-87,-53
-126,-112,14,119,-70,-48,43,-141,-146,-117,-78,-43
-122,-112,9,117,-65,-51,43,-141,-146,-117,-78,-43
-122,-107,14,114,-68,-46,43,-136,-146,-117,-78,-43
-122,-107,14,114,-68,-46,43,-136,-146,-117,-78,-43
-112,-107,4,109,-58,-51,43,-146,-156,-126,-87,-53
-112,-107,4,109,-58,-51,43,-146,-156,-126,-87,-53
-112,-107,4,109,-58,-51,39,-146,-156,-126,-87,-53
-112,-107,4,109,-58,-51,39,-146,-151,-126,-87,-53
-112,-107,4,109,-58,-51,43,-146,-151,-117,-78,-53
-112,-107,4,109,-58,-51,43,-146,-151,-117,-78,-53
-112,-107,4,109,-58,-51,43,-146,-151,-117,-78,-53
-112,-107,4,109,-58,-51,43,-146,-151,-117,-78,-53
-107,-107,0,107,-53,-53,43,-136,-141,-117,-78,-53
-107,-102,4,104,-56,-48,43,-136,-141,-117,-78,-53
-112,-102,9,107,-61,-46,43,-136,-141,-117,-73,-53
-112,-102,9,107,-61,-46,43,-136,-141,-112,-73,-53
-107,-102,4,104,-56,-48,34,-141,-141,-122,-82,-53
-107,-102,4,104,-56,-48,34,-141,-141,-122,-82,-48
-107,-102,4,104,-56,-48,34,-146,-136,-122,-82,-48
-107,-102,4,104,-56,-48,29,-146,-136,-122,-82,-48
-107,-92,14,100,-61,-39,48,-126,-136,-112,-73,-39
-107,-92,14,100,-61,-39,43,-126,-141,-112,-63,-39
-107,-102,4,104,-56,-48,43,-136,-151,-112,-73,-39
-102,-102,0,102,-51,-51,43,-136,-151,-112,-73,-48
-107,-107,0,107,-53,-53,48,-136,-146,-122,-87,-48
-122,-122,0,122,-61,-61,39,-146,-165,-131,-92,-58
-126,-126,0,126,-63,-63,48,-156,-165,-141,-92,-58
-126,-126,0,126,-63,-63,48,-156,-175,-146,-92,-58
-117,-117,0,117,-58,-58,39,-161,-165,-126,-87,-58
-126,-112,14,119,-70,-48,48,-156,-156,-122,-78,-53
-126,-112,14,119,-70,-48,58,-141,-156,-112,-73,-48
-136,-107,29,122,-82,-39,68,-126,-122,-78,-53,-39
-117,-58,58,87,-87,0,53,-126,-63,-24,-19,-9
-97,9,107,43,-102,58,24,-126,0,48,48,39
-53,122,175,-34,-114,148,-34,-151,73,131,112,92
9,273,263,-141,-126,268,-102,-151,190,268,229,175
92,468,375,-280,-141,422,-180,-146,361,439,370,287
204,678,473,-441,-134,575,-278,-117,541,629,522,419
331,907,575,-619,-122,741,-390,-73,722,824,673,531
478,1127,649,-802,-85,888,-517,-24,902,1010,814,634
614,1307,692,-961,-39,1000,-639,14,1044,1161,932,717
746,1459,712,-1102,17,1085,-756,48,1171,1307,1034,785
878,1629,751,-1254,63,1190,-878,68,1298,1454,1141,878
985,1815,829,-1400,78,1322,-1000,34,1400,1586,1263,961
1073,1927,854,-1500,109,1390,-1107,-9,1449,1678,1342,1029
1137,1947,810,-1542,163,1378,-1171,-34,1390,1654,1337,1039
1171,1888,717,-1529,226,1302,-1210,-34,1307,1576,1283,1015
1151,1756,605,-1454,273,1180,-1185,-34,1161,1434,1166,932
1093,1527,434,-1310,329,980,-1107,-43,956,1180,990,810
980,1229,248,-1105,366,739,-985,-29,702,888,766,639
858,946,87,-902,385,517,-844,-19,488,634,566,492
692,722,29,-707,331,375,-688,-29,351,448,414,361
507,522,14,-514,246,268,-517,-29,258,326,302,273
341,336,-4,-339,173,165,-370,-34,141,185,180,185
219,200,-19,-209,119,90,-283,-63,34,68,97,112
126,117,-9,-122,68,53,-224,-122,-63,-14,29,68
48,48,0,-48,24,24,-156,-141,-136,-68,0,43
4,14,9,-9,-2,12,-117,-151,-165,-112,-39,24
-43,-4,39,24,-41,17,-92,-165,-161,-112,-39,19
-58,-14,43,36,-51,14,-68,-165,-126,-102,-39,19
-68,-14,53,41,-61,19,-53,-170,-122,-102,-39,4
-87,-29,58,58,-73,14,-29,-141,-92,-82,-39,-4
-87,-43,43,65,-65,0,0,-117,-97,-78,-39,-14
-97,-43,53,70,-75,4,4,-97,-87,-78,-48,-19
-97,-63,34,80,-65,-14,24,-73,-78,-73,-48,-24
-78,-68,9,73,-43,-29,34,-63,-78,-92,-63,-29
-78,-82,-4,80,-36,-43,34,-58,-78,-92,-73,-43
-78,-73,4,75,-41,-34,34,-48,-87,-102,-63,-43
-78,-78,0,78,-39,-39,43,-43,-82,-102,-63,-43
-82,-82,0,82,-41,-41,53,-39,-73,-92,-63,-43
-87,-82,4,85,-46,-39,53,-34,-73,-87,-63,-39
-82,-87,-4,85,-39,-46,58,-34,-63,-78,-58,-39
-82,-87,-4,85,-39,-46,63,-29,-63,-82,-58,-43
-73,-87,-14,80,-29,-51,63,-29,-68,-92,-68,-43
-73,-97,-24,85,-24,-61,63,-24,-68,-97,-73,-48
-73,-102,-29,87,-21,-65,63,-24,-73,-97,-73,-53
-73,-102,-29,87,-21,-65,68,-24,-73,-97,-73,-53
-78,-102,-24,90,-26,-63,68,-24,-68,-87,-73,-48
-82,-102,-19,92,-31,-61,68,-19,-68,-87,-68,-43
-92,-97,-4,95,-43,-51,73,-19,-63,-87,-68,-43
-87,-97,-9,92,-39,-53,73,-14,-63,-87,-68,-39
-82,-97,-14,90,-34,-56,73,-14,-68,-92,-68,-39
-82,-107,-24,95,-29,-65,73,-14,-68,-92,-73,-43
-78,-112,-34,95,-21,-73,63,-19,-78,-92,-82,-58
-78,-112,-34,95,-21,-73,63,-19,-78,-92,-82,-58
-78,-112,-34,95,-21,-73,63,-19,-73,-87,-82,-58
-78,-107,-29,92,-24,-68,63,-19,-73,-82,-78,-53
-78,-92,-14,85,-31,-53,63,-19,-73,-82,-68,-53
-78,-92,-14,85,-31,-53,63,-19,-73,-87,-68,-53
-78,-92,-14,85,-31,-53,63,-19,-73,-92,-68,-53
-78,-92,-14,85,-31,-53,63,-19,-73,-92,-73,-53
-78,-102,-24,90,-26,-63,73,-9,-73,-92,-82,-58
-78,-102,-24,90,-26,-63,73,-9,-73,-92,-82,-58
-78,-102,-24,90,-26,-63,73,-9,-73,-92,-82,-58
-78,-102,-24,90,-26,-63,73,-9,-73,-87,-78,-58
-68,-97,-29,82,-19,-63,78,-9,-73,-87,-78,-58
-73,-97,-24,85,-24,-61,78,-9,-68,-82,-78,-58
-73,-97,-24,85,-24,-61,78,-4,-68,-82,-78,-63
-63,-97,-34,80,-14,-65,73,-4,-73,-87,-82,-68
-73,-112,-39,92,-17,-75,82,14,-73,-92,-78,-73
-68,-112,-43,90,-12,-78,82,14,-73,-92,-78,-73
-68,-112,-43,90,-12,-78,82,14,-73,-92,-78,-73
-73,-117,-43,95,-14,-80,82,14,-68,-87,-73,-73
-73,-107,-34,90,-19,-70,73,4,-58,-73,-78,-68
-78,-107,-29,92,-24,-68,73,4,-58,-73,-78,-68
-78,-107,-29,92,-24,-68,78,19,-58,-73,-78,-68
-68,-107,-39,87,-14,-73,78,19,-58,-78,-82,-78
-73,-107,-34,90,-19,-70,87,29,-58,-87,-82,-78
-73,-112,-39,92,-17,-75,87,29,-58,-87,-82,-73
-73,-117,-43,95,-14,-80,87,29,-58,-87,-78,-73
-78,-117,-39,97,-19,-78,87,34,-48,-87,-73,-73
-68,-117,-48,92,-9,-82,87,24,-48,-82,-73,-82
-68,-117,-48,92,-9,-82,87,24,-48,-82,-73,-82
-73,-117,-43,95,-14,-80,87,24,-48,-82,-73,-82
-73,-117,-43,95,-14,-80,87,29,-48,-82,-73,-82
-63,-117,-53,90,-4,-85,78,39,-48,-87,-78,-73
-58,-117,-58,87,0,-87,78,43,-48,-87,-78,-82
-58,-122,-63,90,2,-92,78,48,-53,-87,-78,-82
-58,-122,-63,90,2,-92,78,48,-53,-87,-78,-82
-58,-122,-63,90,2,-92,78,48,-53,-82,-78,-92
-63,-122,-58,92,-2,-90,78,48,-53,-82,-78,-92
-63,-117,-53,90,-4,-85,78,48,-53,-82,-78,-87
-63,-117,-53,90,-4,-85,78,58,-53,-82,-78,-87
-58,-117,-58,87,0,-87,78,63,-53,-87,-82,-97
-58,-117,-58,87,0,-87,78,63,-53,-87,-82,-97
-53,-117,-63,85,4,-90,73,63,-53,-87,-82,-97
-53,-117,-63,85,4,-90,73,68,-53,-87,-82,-97
-53,-117,-63,85,4,-90,73,58,-34,-68,-87,-97
-53,-112,-58,82,2,-85,73,63,-34,-68,-87,-97
-53,-112,-58,82,2,-85,73,63,-34,-68,-87,-97
-53,-112,-58,82,2,-85,73,68,-34,-68,-87,-97
-39,-112,-73,75,17,-92,73,73,-43,-82,-87,-97
-34,-112,-78,73,21,-95,73,78,-43,-82,-92,-107
-29,-112,-82,70,26,-97,73,78,-43,-82,-92,-107
-29,-112,-82,70,26,-97,68,82,-43,-78,-92,-107
-39,-112,-73,75,17,-92,68,87,-29,-78,-82,-107
-39,-112,-73,75,17,-92,68,87,-24,-68,-78,-102
-39,-112,-73,75,17,-92,68,87,-24,-68,-78,-102
-39,-107,-68,73,14,-87,68,92,-24,-68,-78,-102
-39,-107,-68,73,14,-87,68,97,-24,-68,-78,-102
-29,-107,-78,68,24,-92,68,102,-19,-68,-82,-102
-24,-107,-82,65,29,-95,68,107,-19,-68,-82,-107
-19,-107,-87,63,34,-97,68,112,-19,-68,-82,-107
-9,-107,-97,58,43,-102,68,112,-14,-58,-87,-107
-9,-107,-97,58,43,-102,68,112,0,-53,-82,-102
-9,-97,-87,53,39,-92,68,122,4,-53,-78,-97
-9,-97,-87,53,39,-92,68,126,9,-43,-78,-97
-9,-97,-87,53,39,-92,73,131,9,-53,-78,-87
-4,-97,-92,51,43,-95,73,136,9,-53,-78,-87
0,-97,-97,48,48,-97,73,141,9,-53,-78,-87
4,-97,-102,46,53,-100,73,146,9,-53,-82,-87
14,-97,-112,41,63,-104,63,151,19,-53,-82,-87
14,-97,-112,41,63,-104,63,156,24,-43,-82,-87
14,-87,-102,36,58,-95,63,161,29,-39,-73,-78
24,-82,-107,29,65,-95,58,161,34,-34,-68,-73
19,-78,-97,29,58,-87,58,175,39,-34,-68,-73
24,-78,-102,26,63,-90,53,175,39,-34,-68,-73
29,-78,-107,24,68,-92,53,190,39,-34,-73,-73
34,-78,-112,21,73,-95,48,200,48,-29,-73,-73
39,-78,-117,19,78,-97,48,200,43,-34,-73,-73
39,-78,-117,19,78,-97,43,204,48,-29,-63,-68
43,-63,-107,9,75,-85,43,209,58,-14,-63,-68
48,-58,-107,4,78,-82,43,214,58,-14,-63,-68
43,-63,-107,9,75,-85,53,224,78,0,-53,-58
53,-58,-112,2,82,-85,43,239,78,0,-53,-58
58,-58,-117,0,87,-87,43,239,78,0,-53,-58
63,-58,-122,-2,92,-90,43,253,87,9,-53,-58
82,-48,-131,-17,107,-90,29,258,97,9,-53,-58
82,-43,-126,-19,104,-85,29,263,102,19,-43,-53
87,-39,-126,-24,107,-82,24,273,117,34,-39,-48
92,-24,-117,-34,104,-70,19,278,126,34,-34,-43
102,-14,-117,-43,109,-65,19,287,126,39,-29,-39
107,0,-107,-53,107,-53,14,297,136,48,-24,-39
122,9,-112,-65,117,-51,9,307,141,53,-24,-39
131,14,-117,-73,124,-51,4,317,146,58,-24,-43
141,4,-136,-73,139,-65,9,326,151,63,-14,-53
141,9,-131,-75,136,-61,9,326,161,68,-9,-48
146,14,-131,-80,139,-58,9,341,175,82,-4,-48
151,29,-122,-90,136,-46,0,351,190,87,0,-34
156,48,-107,-102,131,-29,-14,341,185,97,14,-19
161,58,-102,-109,131,-21,-19,356,204,107,19,-19
180,68,-112,-124,146,-21,-24,366,209,107,19,-19
190,73,-117,-131,153,-21,-29,375,214,112,24,-19
200,68,-131,-134,165,-31,-29,395,224,117,24,-19
209,73,-136,-141,173,-31,-34,405,239,122,24,-14
209,78,-131,-143,170,-26,-34,414,244,136,34,-4
214,87,-126,-151,170,-19,-34,424,258,146,43,0
219,107,-112,-163,165,-2,-34,424,268,151,53,4
224,117,-107,-170,165,4,-39,429,278,161,58,9
234,126,-107,-180,170,9,-43,444,278,165,63,14
244,131,-112,-187,178,9,-43,448,287,170,63,14
253,126,-126,-190,190,0,-53,453,283,175,63,14
263,131,-131,-197,197,0,-58,458,287,180,63,14
273,141,-131,-207,202,4,-58,463,292,185,68,19
273,146,-126,-209,200,9,-68,463,307,200,78,24
263,156,-107,-209,185,24,-68,468,317,209,82,39
263,156,-107,-209,185,24,-63,473,317,219,87,43
273,161,-112,-217,192,24,-63,473,326,219,87,43
278,170,-107,-224,192,31,-73,473,331,219,87,43
283,180,-102,-231,192,39,-73,473,336,219,97,43
287,185,-102,-236,195,41,-82,473,341,224,107,43
287,195,-92,-241,190,51,-82,473,346,229,107,48
287,200,-87,-244,187,56,-82,473,351,234,117,48
287,209,-78,-248,183,65,-87,463,366,248,122,58
283,214,-68,-248,175,73,-87,453,370,253,126,68
283,219,-63,-251,173,78,-87,453,370,253,126,68
287,219,-68,-253,178,75,-92,448,366,253,126,68
297,229,-68,-263,183,80,-92,448,366,248,126,68
292,229,-63,-261,178,82,-92,434,366,248,131,68
283,229,-53,-256,168,87,-92,424,370,248,141,68
268,229,-39,-248,153,95,-87,405,370,258,146,78
253,229,-24,-241,139,102,-97,380,361,268,141,73
253,229,-24,-241,139,102,-97,361,351,268,146,78
239,229,-9,-234,124,109,-97,341,351,268,146,82
239,234,-4,-236,122,114,-97,326,346,263,146,82
239,224,-14,-231,126,104,-107,302,326,248,151,92
234,224,-9,-229,122,107,-107,278,312,239,146,87
219,214,-4,-217,112,104,-102,258,307,239,146,87
209,209,0,-209,104,104,-102,239,292,234,146,87
180,204,24,-192,78,114,-87,234,283,224,146,78
175,200,24,-187,75,112,-87,209,273,219,146,82
165,200,34,-183,65,117,-87,185,253,214,146,82
146,195,48,-170,48,122,-82,170,239,200,136,82
141,190,48,-165,46,119,-78,151,234,180,131,73
131,165,34,-148,48,100,-68,141,224,170,126,73
122,161,39,-141,41,100,-68,122,204,165,122,68
112,151,39,-131,36,95,-63,107,190,156,112,68
102,151,48,-126,26,100,-63,92,170,146,102,58
87,146,58,-117,14,102,-58,73,151,131,97,58
68,136,68,-102,0,102,-53,63,136,122,92,53
63,126,63,-95,0,95,-48,53,126,112,87,48
68,126,58,-97,4,92,-53,34,112,92,82,39
58,117,58,-87,0,87,-53,29,97,82,73,34
48,102,53,-75,-2,78,-48,24,82,73,63,29
43,92,48,-68,-2,70,-48,9,68,63,58,24
34,73,39,-53,-2,56,-34,0,63,53,48,24
24,63,39,-43,-7,51,-29,-9,58,53,43,19
19,53,34,-36,-7,43,-24,-19,48,43,39,19
9,48,39,-29,-14,43,-24,-29,39,34,39,14
0,39,39,-19,-19,39,-24,-39,19,24,29,19
-4,29,34,-12,-19,31,-24,-39,9,14,14,9
-19,19,39,0,-29,29,-9,-39,4,4,14,9
-19,14,34,2,-26,24,-4,-39,-4,-4,4,4
-24,-4,19,14,-21,7,4,-43,-14,-19,0,-4
-29,-14,14,21,-21,0,9,-48,-14,-24,0,-4
-29,-14,14,21,-21,0,9,-53,-24,-39,-9,-4
-34,-19,14,26,-24,-2,14,-58,-29,-39,-9,-9
-43,-24,19,34,-31,-2,14,-68,-43,-43,-14,-14
-43,-29,14,36,-29,-7,14,-68,-48,-48,-19,-19
-43,-43,0,43,-21,-21,19,-68,-53,-53,-24,-19
-43,-53,-9,48,-17,-31,19,-73,-68,-63,-34,-24
-43,-48,-4,46,-19,-26,19,-68,-58,-53,-34,-19
-58,-53,4,56,-31,-24,24,-68,-58,-53,-34,-19
-58,-53,4,56,-31,-24,24,-78,-58,-53,-34,-19
-63,-58,4,61,-34,-26,24,-78,-58,-53,-39,-19
-63,-58,4,61,-34,-26,29,-78,-68,-58,-29,-19
-63,-63,0,63,-31,-31,29,-78,-73,-63,-39,-24
-63,-68,-4,65,-29,-36,29,-82,-73,-68,-43,-29
-68,-73,-4,70,-31,-39,34,-82,-78,-73,-43,-34
-68,-87,-19,78,-24,-53,34,-92,-82,-73,-43,-34
-78,-87,-9,82,-34,-48,34,-92,-82,-73,-43,-34
-82,-87,-4,85,-39,-46,34,-92,-78,-73,-43,-34
-82,-87,-4,85,-39,-46,39,-92,-78,-73,-43,-29
-68,-87,-19,78,-24,-53,39,-92,-78,-78,-58,-39
-68,-92,-24,80,-21,-58,39,-92,-78,-78,-58,-43
-68,-92,-24,80,-21,-58,39,-92,-82,-82,-63,-43
-68,-97,-29,82,-19,-63,39,-92,-82,-82,-63,-43
-78,-92,-14,85,-31,-53,43,-82,-82,-82,-58,-39
-82,-92,-9,87,-36,-51,43,-82,-82,-82,-58,-39
-82,-92,-9,87,-36,-51,43,-82,-82,-78,-53,-39
-82,-92,-9,87,-36,-51,48,-78,-82,-78,-53,-39
-82,-92,-9,87,-36,-51,39,-78,-78,-78,-53,-39
-82,-92,-9,87,-36,-51,39,-78,-78,-78,-53,-39
-82,-92,-9,87,-36,-51,39,-78,-78,-82,-58,-39
-82,-97,-14,90,-34,-56,39,-78,-82,-82,-58,-39
-82,-107,-24,95,-29,-65,48,-78,-82,-73,-68,-39
-82,-107,-24,95,-29,-65,48,-73,-82,-73,-68,-39
-87,-112,-24,100,-31,-68,53,-73,-82,-73,-68,-39
-87,-112,-24,100,-31,-68,53,-73,-73,-73,-68,-39
-87,-102,-14,95,-36,-58,43,-73,-82,-73,-58,-29
-87,-102,-14,95,-36,-58,43,-73,-82,-73,-58,-29
-82,-97,-14,90,-34,-56,43,-73,-87,-73,-58,-29
-82,-97,-14,90,-34,-56,43,-73,-87,-73,-58,-34
-82,-107,-24,95,-29,-65,53,-73,-87,-82,-58,-43
-82,-112,-29,97,-26,-70,53,-73,-87,-78,-58,-43
-82,-112,-29,97,-26,-70,58,-68,-87,-78,-58,-43
-87,-112,-24,100,-31,-68,58,-68,-87,-78,-58,-43
-87,-102,-14,95,-36,-58,58,-68,-82,-68,-58,-43
-87,-97,-9,92,-39,-53,58,-68,-82,-68,-58,-43
-82,-97,-14,90,-34,-56,53,-68,-82,-68,-58,-43
-82,-97,-14,90,-34,-56,53,-68,-87,-73,-58,-43
-82,-102,-19,92,-31,-61,48,-68,-87,-82,-58,-43
-82,-102,-19,92,-31,-61,48,-68,-87,-82,-58,-48
-82,-102,-19,92,-31,-61,48,-68,-87,-82,-58,-48
-82,-102,-19,92,-31,-61,48,-68,-82,-73,-58,-48
-82,-102,-19,92,-31,-61,58,-78,-82,-73,-53,-48
-82,-97,-14,90,-34,-56,58,-78,-82,-73,-53,-48
-82,-97,-14,90,-34,-56,53,-78,-82,-73,-58,-48
-78,-97,-19,87,-29,-58,53,-78,-82,-82,-58,-48
-87,-107,-19,97,-34,-63,48,-68,-87,-73,-53,-48
-87,-102,-14,95,-36,-58,48,-68,-87,-73,-53,-48
-87,-102,-14,95,-36,-58,48,-68,-87,-73,-53,-48
-92,-102,-9,97,-41,-56,48,-68,-87,-73,-53,-53
-82,-97,-14,90,-34,-56,48,-78,-87,-73,-53,-53
-82,-97,-14,90,-34,-56,43,-78,-87,-73,-53,-48
-82,-97,-14,90,-34,-56,43,-82,-87,-73,-53,-48
-82,-97,-14,90,-34,-56,43,-82,-87,-78,-53,-48
-82,-87,-4,85,-39,-46,43,-82,-87,-78,-53,-53
-78,-87,-9,82,-34,-48,43,-82,-92,-78,-53,-53
-78,-87,-9,82,-34,-48,39,-82,-92,-78,-53,-53
-78,-87,-9,82,-34,-48,39,-82,-92,-78,-53,-53
-78,-92,-14,85,-31,-53,39,-82,-92,-78,-53,-53
-82,-92,-9,87,-36,-51,39,-82,-92,-78,-53,-48
-82,-92,-9,87,-36,-51,39,-82,-92,-78,-53,-48
-82,-87,-4,85,-39,-46,39,-87,-92,-78,-53,-48
-78,-87,-9,82,-34,-48,39,-87,-97,-82,-53,-58
-78,-87,-9,82,-34,-48,39,-92,-97,-82,-53,-58
-78,-92,-14,85,-31,-53,39,-92,-97,-82,-53,-58
-78,-92,-14,85,-31,-53,39,-92,-97,-82,-53,-58
-78,-82,-4,80,-36,-43,39,-92,-97,-68,-53,-48
-78,-82,-4,80,-36,-43,39,-92,-97,-68,-53,-43
-82,-82,0,82,-41,-41,39,-92,-97,-68,-53,-43
-82,-82,0,82,-41,-41,34,-92,-97,-68,-53,-43
-82,-82,0,82,-41,-41,34,-97,-102,-82,-53,-43
-78,-82,-4,80,-36,-43,34,-97,-102,-82,-53,-43
-78,-82,-4,80,-36,-43,34,-97,-107,-87,-53,-43
-78,-82,-4,80,-36,-43,39,-97,-107,-87,-53,-43
-82,-82,0,82,-41,-41,29,-97,-97,-78,-53,-43
-82,-82,0,82,-41,-41,29,-102,-97,-78,-53,-43
-82,-82,0,82,-41,-41,29,-102,-97,-78,-53,-43
-82,-82,0,82,-41,-41,29,-102,-97,-78,-53,-43
-82,-92,-9,87,-36,-51,34,-102,-97,-87,-53,-43
-82,-92,-9,87,-36,-51,34,-102,-102,-87,-53,-39
-82,-92,-9,87,-36,-51,29,-102,-102,-87,-53,-39
-82,-92,-9,87,-36,-51,29,-102,-102,-87,-53,-39
-87,-92,-4,90,-41,-48,34,-107,-102,-87,-58,-48
-87,-92,-4,90,-41,-48,34,-107,-102,-87,-58,-48
-87,-92,-4,90,-41,-48,34,-107,-102,-87,-53,-48
-87,-92,-4,90,-41,-48,29,-112,-102,-87,-53,-48
-78,-87,-9,82,-34,-48,29,-112,-112,-87,-53,-48
-78,-87,-9,82,-34,-48,29,-112,-117,-92,-53,-48
-73,-87,-14,80,-29,-51,29,-112,-117,-92,-53,-48
-73,-92,-19,82,-26,-56,29,-112,-117,-92,-58,-48
-73,-82,-9,78,-31,-46,29,-112,-107,-82,-58,-39
-78,-82,-4,80,-36,-43,29,-112,-107,-82,-58,-39
-78,-82,-4,80,-36,-43,29,-112,-107,-82,-58,-39
-78,-82,-4,80,-36,-43,29,-112,-107,-82,-58,-39
-87,-92,-4,90,-41,-48,39,-117,-107,-82,-58,-39
-87,-92,-4,90,-41,-48,39,-117,-107,-82,-58,-39
-87,-92,-4,90,-41,-48,39,-112,-107,-82,-58,-39
-87,-92,-4,90,-41,-48,39,-112,-107,-87,-58,-39
-78,-92,-14,85,-31,-53,29,-112,-117,-97,-48,-39
-78,-92,-14,85,-31,-53,29,-112,-117,-97,-48,-39
-78,-92,-14,85,-31,-53,29,-112,-117,-92,-48,-39
-78,-92,-14,85,-31,-53,29,-117,-117,-92,-43,-39
-92,-92,0,92,-46,-46,29,-117,-107,-92,-53,-34
-92,-92,0,92,-46,-46,29,-117,-112,-97,-58,-34
-92,-92,0,92,-46,-46,29,-117,-112,-97,-58,-34
-92,-92,0,92,-46,-46,29,-117,-112,-97,-63,-39
-92,-92,0,92,-46,-46,29,-117,-122,-87,-53,-29
-92,-97,-4,95,-43,-51,29,-117,-122,-87,-53,-29
-92,-97,-4,95,-43,-51,29,-117,-122,-87,-53,-29
-87,-97,-9,92,-39,-53,29,-117,-122,-87,-48,-29
-97,-92,4,95,-51,-43,29,-117,-122,-87,-48,-29
-97,-92,4,95,-51,-43,29,-117,-122,-87,-48,-29
-97,-92,4,95,-51,-43,29,-117,-122,-87,-48,-29
-97,-92,4,95,-51,-43,29,-117,-122,-87,-48,-29
-87,-92,-4,90,-41,-48,39,-117,-122,-97,-58,-29
-92,-97,-4,95,-43,-51,39,-117,-122,-97,-58,-29
-92,-97,-4,95,-43,-51,39,-112,-122,-92,-58,-29
-92,-97,-4,95,-43,-51,39,-112,-122,-92,-58,-29
-92,-97,-4,95,-43,-51,39,-112,-122,-92,-48,-29
-92,-97,-4,95,-43,-51,39,-112,-122,-92,-48,-29
-92,-97,-4,95,-43,-51,39,-112,-122,-97,-48,-29
-92,-97,-4,95,-43,-51,39,-117,-122,-97,-53,-29
-87,-87,0,87,-43,-43,39,-107,-126,-87,-63,-34
-87,-87,0,87,-43,-43,39,-107,-126,-87,-58,-34
-87,-92,-4,90,-41,-48,39,-107,-122,-87,-58,-34
-87,-92,-4,90,-41,-48,43,-107,-122,-87,-58,-34
-92,-87,4,90,-48,-41,34,-117,-122,-87,-48,-34
-92,-87,4,90,-48,-41,34,-112,-122,-87,-43,-34
-92,-87,4,90,-48,-41,34,-112,-122,-87,-43,-34
-92,-87,4,90,-48,-41,34,-112,-122,-87,-48,-34
-92,-97,-4,95,-43,-51,43,-112,-122,-87,-48,-48
-92,-97,-4,95,-43,-51,39,-117,-122,-87,-48,-48
-92,-97,-4,95,-43,-51,39,-117,-122,-87,-48,-48
-92,-102,-9,97,-41,-56,39,-117,-122,-87,-48,-48
-92,-92,0,92,-46,-46,29,-107,-122,-87,-58,-39
-92,-92,0,92,-46,-46,29,-107,-122,-87,-58,-39
-92,-87,4,90,-48,-41,29,-107,-122,-87,-58,-39
-92,-87,4,90,-48,-41,29,-107,-126,-87,-58,-39
-97,-87,9,92,-53,-39,39,-117,-117,-87,-58,-39
-97,-87,9,92,-53,-39,39,-117,-117,-87,-58,-39
-97,-92,4,95,-51,-43,39,-117,-112,-87,-58,-39
-102,-92,9,97,-56,-41,39,-117,-112,-87,-58,-39
-97,-92,4,95,-51,-43,29,-122,-122,-87,-58,-39
-92,-87,4,90,-48,-41,29,-122,-122,-87,-58,-39
-87,-87,0,87,-43,-43,29,-122,-122,-87,-58,-39
-82,-87,-4,85,-39,-46,29,-122,-122,-87,-58,-39
-87,-92,-4,90,-41,-48,29,-112,-112,-87,-58,-39
-78,-92,-14,85,-31,-53,29,-122,-122,-97,-58,-39
-87,-87,0,87,-43,-43,39,-122,-112,-97,-68,-39
-87,-87,0,87,-43,-43,39,-122,-112,-87,-58,-29
-87,-87,0,87,-43,-43,39,-117,-117,-87,-58,-29
-87,-87,0,87,-43,-43,29,-117,-117,-97,-58,-39
-87,-87,0,87,-43,-43,29,-117,-117,-97,-58,-39
-87,-87,0,87,-43,-43,29,-117,-117,-97,-58,-39
-87,-87,0,87,-43,-43,29,-117,-117,-97,-58,-39
-87,-97,-9,92,-39,-53,29,-107,-126,-97,-68,-48
-87,-97,-9,92,-39,-53,29,-107,-126,-97,-68,-48
-87,-97,-9,92,-39,-53,29,-107,-126,-97,-68,-48
-87,-97,-9,92,-39,-53,29,-107,-126,-97,-68,-48
-87,-87,0,87,-43,-43,29,-117,-117,-97,-58,-39
-87,-87,0,87,-43,-43,29,-117,-117,-97,-58,-39
-87,-87,0,87,-43,-43,29,-117,-117,-97,-58,-39
-87,-87,0,87,-43,-43,29,-117,-117,-97,-58,-39
-78,-87,-9,82,-34,-48,19,-107,-117,-97,-58,-39
-78,-87,-9,82,-34,-48,19,-107,-117,-97,-58,-39
-78,-87,-9,82,-34,-48,19,-107,-117,-97,-58,-39
-78,-87,-9,82,-34,-48,19,-107,-117,-97,-58,-39
-68,-73,-4,70,-31,-39,19,-107,-112,-92,-53,-29
-68,-68,0,68,-34,-34,19,-107,-107,-87,-48,-29
-68,-63,4,65,-36,-29,19,-107,-102,-82,-43,-29
-68,-58,9,63,-39,-24,19,-107,-97,-78,-39,-29
-58,-53,4,56,-31,-24,19,-97,-87,-68,-29,-19
-58,-48,9,53,-34,-19,19,-97,-87,-68,-29,-19
-58,-43,14,51,-36,-14,19,-97,-87,-68,-29,-19
-58,-39,19,48,-39,-9,19,-97,-87,-68,-29,-19
-39,-29,9,34,-24,-9,14,-97,-87,-68,-34,-24
-39,-29,9,34,-24,-9,14,-97,-87,-68,-34,-24
-39,-29,9,34,-24,-9,9,-92,-92,-73,-34,-24
-39,-34,4,36,-21,-14,9,-92,-92,-73,-34,-29
-29,-34,-4,31,-12,-19,9,-92,-97,-82,-48,-29
-29,-34,-4,31,-12,-19,9,-92,-97,-82,-48,-29
-29,-34,-4,31,-12,-19,9,-87,-97,-82,-48,-29
-24,-43,-19,34,-2,-31,9,-87,-102,-92,-58,-34
-24,-43,-19,34,-2,-31,9,-87,-102,-82,-58,-34
-14,-43,-29,29,7,-36,9,-82,-102,-82,-58,-34
-14,-43,-29,29,7,-36,9,-82,-102,-82,-58,-34
-19,-39,-19,29,0,-29,19,-82,-102,-82,-58,-34
-29,-39,-9,34,-9,-24,19,-82,-112,-87,-58,-34
-39,-48,-9,43,-14,-29,19,-92,-117,-92,-63,-39
-39,-53,-14,46,-12,-34,19,-92,-117,-92,-68,-43
-39,-58,-19,48,-9,-39,19,-97,-122,-97,-73,-43
-39,-63,-24,51,-7,-43,9,-112,-117,-102,-63,-43
-39,-63,-24,51,-7,-43,9,-117,-122,-102,-63,-43
-39,-63,-24,51,-7,-43,4,-122,-122,-102,-63,-43
-39,-63,-24,51,-7,-43,0,-122,-122,-102,-63,-43
-34,-68,-34,51,0,-51,-4,-112,-131,-102,-63,-29
-24,-58,-34,41,4,-46,-19,-112,-131,-102,-63,-29
-19,-58,-39,39,9,-48,-19,-112,-131,-102,-63,-29
-19,-58,-39,39,9,-48,-19,-112,-136,-102,-63,-34
-19,-58,-39,39,9,-48,-19,-112,-126,-102,-63,-43
-19,-58,-39,39,9,-48,-19,-112,-131,-102,-63,-43
-19,-63,-43,41,12,-53,-24,-117,-136,-107,-68,-43
-19,-63,-43,41,12,-53,-24,-117,-136,-107,-68,-43
-19,-73,-53,46,17,-63,-24,-117,-136,-107,-68,-39
-19,-73,-53,46,17,-63,-24,-122,-141,-112,-68,-39
-19,-73,-53,46,17,-63,-24,-122,-141,-112,-68,-39
-29,-68,-39,48,4,-53,-14,-117,-126,-102,-58,-34
-48,-53,-4,51,-21,-29,-9,-117,-117,-82,-53,-24
-68,-53,14,61,-41,-19,4,-117,-117,-82,-43,-24
-87,-73,14,80,-51,-29,14,-122,-122,-82,-53,-24
-102,-82,19,92,-61,-31,29,-131,-122,-92,-53,-24
-107,-92,14,100,-61,-39,29,-131,-131,-102,-63,-29
-107,-92,14,100,-61,-39,29,-126,-131,-102,-68,-34
-107,-97,9,102,-58,-43,24,-126,-136,-102,-68,-34
-112,-97,14,104,-63,-41,24,-126,-136,-102,-78,-34
-112,-102,9,107,-61,-46,29,-136,-131,-102,-73,-48
-112,-102,9,107,-61,-46,29,-136,-131,-102,-73,-48
-112,-102,9,107,-61,-46,29,-136,-131,-102,-73,-48
-112,-107,4,109,-58,-51,29,-136,-131,-102,-73,-48
-102,-107,-4,104,-48,-56,29,-126,-131,-102,-73,-39
-102,-107,-4,104,-48,-56,34,-126,-126,-102,-68,-39
-102,-107,-4,104,-48,-56,34,-126,-126,-102,-68,-43
-102,-107,-4,104,-48,-56,34,-126,-126,-102,-68,-43
-112,-97,14,104,-63,-41,34,-126,-136,-112,-78,-43
-112,-97,14,104,-63,-41,34,-126,-136,-112,-78,-43
-112,-97,14,104,-63,-41,34,-126,-136,-107,-78,-43
-112,-97,14,104,-63,-41,34,-122,-136,-107,-78,-43
-112,-107,4,109,-58,-51,34,-131,-126,-107,-68,-43
-112,-107,4,109,-58,-51,34,-131,-126,-107,-68,-43
-112,-107,4,109,-58,-51,34,-131,-126,-107,-68,-43
-117,-107,9,112,-63,-48,34,-131,-126,-107,-68,-43
-107,-97,9,102,-58,-43,34,-122,-126,-97,-68,-43
-107,-102,4,104,-56,-48,34,-122,-126,-97,-68,-43
-107,-102,4,104,-56,-48,34,-122,-126,-97,-68,-43
-102,-102,0,102,-51,-51,34,-122,-126,-97,-68,-43
-102,-107,-4,104,-48,-56,24,-126,-117,-97,-58,-43
-102,-107,-4,104,-48,-56,24,-126,-117,-97,-58,-43
-102,-107,-4,104,-48,-56,24,-126,-117,-97,-58,-43
-102,-107,-4,104,-48,-56,24,-126,-117,-97,-58,-43
-102,-107,-4,104,-48,-56,19,-126,-126,-97,-68,-53
-102,-107,-4,104,-48,-56,19,-126,-122,-97,-68,-53
-102,-107,-4,104,-48,-56,24,-126,-122,-97,-68,-53
-102,-107,-4,104,-48,-56,24,-126,-122,-97,-68,-53
-102,-97,4,100,-53,-46,24,-126,-122,-97,-68,-53
-102,-97,4,100,-53,-46,24,-126,-122,-97,-68,-53
-97,-97,0,97,-48,-48,24,-126,-122,-97,-68,-53
-97,-92,4,95,-51,-43,24,-126,-122,-97,-68,-53
-112,-92,19,102,-65,-36,34,-117,-122,-97,-63,-43
-112,-92,19,102,-65,-36,34,-117,-122,-92,-63,-43
-107,-92,14,100,-61,-39,34,-112,-122,-92,-63,-43
-107,-92,14,100,-61,-39,34,-112,-122,-92,-63,-39
-97,-92,4,95,-51,-43,34,-126,-117,-102,-63,-39
-97,-92,4,95,-51,-43,29,-126,-117,-102,-63,-39
-97,-92,4,95,-51,-43,29,-126,-117,-102,-63,-39
-97,-92,4,95,-51,-43,34,-126,-122,-102,-63,-39
-107,-92,14,100,-61,-39,34,-126,-122,-102,-63,-39
-112,-92,19,102,-65,-36,34,-126,-122,-102,-63,-39
-117,-97,19,107,-68,-39,39,-136,-146,-112,-78,-48
-122,-122,0,122,-61,-61,48,-136,-156,-122,-82,-58
-117,-117,0,117,-58,-58,39,-136,-156,-131,-92,-58
-117,-117,0,117,-58,-58,39,-136,-156,-126,-82,-58
-117,-117,0,117,-58,-58,39,-131,-136,-107,-78,-58
-126,-112,14,119,-70,-48,39,-126,-126,-102,-78,-43
-136,-92,43,114,-90,-24,39,-122,-97,-73,-43,-29
-117,-58,58,87,-87,0,39,-117,-53,-19,-4,0
-87,0,87,43,-87,43,14,-117,4,43,39,29
-58,97,156,-19,-107,126,-24,-136,78,126,107,87
14,248,234,-131,-109,241,-102,-141,180,239,209,170
87,429,341,-258,-126,385,-170,-131,317,395,336,263
190,634,444,-412,-126,539,-268,-107,497,585,488,385
322,863,541,-592,-109,702,-385,-58,678,775,639,497
468,1073,605,-771,-68,839,-507,-4,849,961,780,619
624,1263,639,-944,-7,951,-644,24,980,1088,883,692
761,1415,653,-1088,53,1034,-756,53,1093,1220,980,766
893,1576,683,-1234,104,1129,-873,68,1200,1356,1083,844
1005,1747,741,-1376,131,1244,-995,39,1298,1493,1200,927
1083,1864,780,-1473,151,1322,-1098,-4,1342,1576,1283,1000
1151,1888,736,-1520,207,1312,-1166,-29,1302,1561,1283,1010
1185,1859,673,-1522,256,1266,-1210,-43,1195,1488,1239,980
1190,1732,541,-1461,324,1137,-1210,-53,1063,1342,1127,897
1132,1512,380,-1322,375,946,-1127,-63,868,1132,961,775
1005,1234,229,-1119,387,732,-1000,-53,624,849,746,624
873,946,73,-910,400,509,-868,-39,409,575,541,473
712,722,9,-717,351,366,-707,-39,283,409,390,356
517,527,9,-522,253,268,-541,-48,204,292,297,273
370,346,-24,-358,197,161,-409,-58,112,170,175,175
244,200,-43,-222,143,78,-312,-73,-4,48,82,97
141,112,-29,-126,85,41,-244,-122,-92,-29,29,53
48,48,0,-48,24,24,-185,-141,-141,-73,9,29
9,19,9,-14,0,14,-146,-151,-165,-107,-29,24
-34,-4,29,19,-31,12,-107,-170,-156,-112,-39,4
-63,-14,48,39,-56,17,-82,-165,-151,-102,-39,-19
-87,-24,63,56,-75,19,-58,-165,-126,-92,-39,-19
-97,-43,53,70,-75,4,-34,-141,-112,-82,-39,-14
-97,-58,39,78,-68,-9,-19,-102,-102,-82,-39,-14
-97,-63,34,80,-65,-14,-9,-87,-97,-87,-39,-24
-97,-73,24,85,-61,-24,14,-58,-87,-78,-39,-29
-78,-73,4,75,-41,-34,14,-53,-97,-92,-58,-34
-78,-68,9,73,-43,-29,14,-43,-87,-102,-73,-58
-78,-82,-4,80,-36,-43,24,-39,-87,-92,-63,-53
-78,-82,-4,80,-36,-43,24,-39,-87,-92,-63,-53
-78,-87,-9,82,-34,-48,34,-34,-82,-92,-63,-53
-82,-92,-9,87,-36,-51,43,-29,-73,-82,-63,-53
-87,-92,-4,90,-41,-48,43,-24,-73,-78,-63,-48
-92,-97,-4,95,-43,-51,48,-14,-73,-68,-68,-48
-92,-97,-4,95,-43,-51,53,-9,-73,-73,-68,-53
-82,-97,-14,90,-34,-56,53,-9,-78,-82,-78,-53
-82,-107,-24,95,-29,-65,53,-4,-78,-87,-82,-58
-82,-112,-29,97,-26,-70,53,-14,-82,-97,-82,-63
-82,-112,-29,97,-26,-70,58,-14,-82,-97,-82,-63
-87,-112,-24,100,-31,-68,58,-14,-78,-87,-82,-58
-92,-112,-19,102,-36,-65,58,-9,-78,-87,-78,-53
-92,-97,-4,95,-43,-51,63,-9,-82,-87,-78,-53
-87,-97,-9,92,-39,-53,63,-4,-82,-87,-78,-48
-82,-97,-14,90,-34,-56,63,-4,-87,-92,-78,-48
-82,-107,-24,95,-29,-65,63,-4,-87,-92,-82,-53
-87,-102,-14,95,-36,-58,63,0,-78,-82,-73,-58
-87,-102,-14,95,-36,-58,63,0,-78,-82,-73,-58
-87,-102,-14,95,-36,-58,63,0,-73,-78,-73,-58
-87,-97,-9,92,-39,-53,63,0,-73,-73,-68,-53
-78,-102,-24,90,-26,-63,63,0,-82,-82,-78,-53
-78,-102,-24,90,-26,-63,63,0,-82,-87,-78,-53
-78,-102,-24,90,-26,-63,63,0,-82,-92,-78,-53
-78,-102,-24,90,-26,-63,63,0,-82,-92,-82,-53
-78,-102,-24,90,-26,-63,73,0,-82,-92,-73,-58
-78,-102,-24,90,-26,-63,73,0,-82,-92,-73,-58
-78,-102,-24,90,-26,-63,73,0,-82,-92,-73,-58
-78,-102,-24,90,-26,-63,73,0,-82,-87,-68,-58
-78,-97,-19,87,-29,-58,78,0,-73,-87,-68,-58
-82,-97,-14,90,-34,-56,78,0,-68,-82,-68,-58
-82,-97,-14,90,-34,-56,78,4,-68,-82,-68,-63
-73,-97,-24,85,-24,-61,73,4,-73,-87,-73,-68
-82,-112,-29,97,-26,-70,73,14,-73,-92,-78,-63
-78,-112,-34,95,-21,-73,73,14,-73,-92,-78,-63
-78,-112,-34,95,-21,-73,73,14,-73,-92,-78,-63
-82,-117,-34,100,-24,-75,73,14,-68,-87,-73,-63
-73,-107,-34,90,-19,-70,73,14,-68,-82,-78,-58
-78,-107,-29,92,-24,-68,73,14,-68,-82,-78,-58
-78,-107,-29,92,-24,-68,78,29,-68,-82,-78,-58
-68,-107,-39,87,-14,-73,78,29,-68,-87,-82,-68
-63,-117,-53,90,-4,-85,78,39,-58,-87,-82,-68
-63,-122,-58,92,-2,-90,78,39,-58,-87,-82,-63
-63,-126,-63,95,0,-95,78,39,-58,-87,-78,-63
-68,-126,-58,97,-4,-92,78,43,-48,-87,-73,-63
-68,-117,-48,92,-9,-82,78,34,-58,-82,-73,-63
-68,-117,-48,92,-9,-82,78,34,-58,-82,-73,-63
-73,-117,-43,95,-14,-80,78,34,-58,-82,-73,-63
-73,-117,-43,95,-14,-80,78,39,-58,-82,-73,-63
-63,-126,-63,95,0,-95,78,39,-58,-78,-78,-63
-58,-126,-68,92,4,-97,78,43,-58,-78,-78,-73
-58,-131,-73,95,7,-102,78,48,-63,-78,-78,-73
-58,-131,-73,95,7,-102,78,48,-63,-78,-78,-73
-58,-126,-68,92,4,-97,78,48,-53,-73,-78,-73
-63,-122,-58,92,-2,-90,78,48,-53,-73,-78,-73
-63,-112,-48,87,-7,-80,78,48,-53,-73,-78,-68
-63,-107,-43,85,-9,-75,78,58,-53,-73,-78,-68
-58,-117,-58,87,0,-87,78,63,-43,-78,-82,-78
-58,-117,-58,87,0,-87,78,63,-43,-78,-82,-78
-53,-117,-63,85,4,-90,73,63,-43,-78,-82,-78
-53,-117,-63,85,4,-90,73,68,-43,-78,-82,-78
-53,-117,-63,85,4,-90,73,68,-24,-58,-68,-78
-53,-112,-58,82,2,-85,73,73,-24,-58,-68,-78
-53,-112,-58,82,2,-85,73,73,-24,-58,-68,-78
-53,-112,-58,82,2,-85,73,78,-24,-58,-68,-78
-39,-112,-73,75,17,-92,73,82,-34,-73,-78,-78
-34,-112,-78,73,21,-95,73,87,-34,-73,-82,-87
-29,-112,-82,70,26,-97,73,87,-34,-73,-82,-87
-29,-112,-82,70,26,-97,68,92,-34,-68,-82,-87
-39,-102,-63,70,12,-82,78,97,-29,-68,-73,-87
-39,-102,-63,70,12,-82,78,97,-24,-58,-68,-82
-39,-102,-63,70,12,-82,78,97,-24,-58,-68,-82
-39,-97,-58,68,9,-78,78,102,-24,-58,-68,-82
-39,-107,-68,73,14,-87,68,107,-24,-58,-68,-92
-29,-107,-78,68,24,-92,68,112,-19,-58,-73,-92
-24,-107,-82,65,29,-95,68,117,-19,-58,-73,-97
-19,-107,-87,63,34,-97,68,122,-19,-58,-73,-97
-19,-97,-78,58,29,-87,68,131,-14,-58,-78,-87
-19,-97,-78,58,29,-87,68,131,0,-53,-73,-82
-19,-87,-68,53,24,-78,68,141,4,-53,-68,-78
-19,-87,-68,53,24,-78,68,146,9,-43,-68,-78
0,-87,-87,43,43,-87,63,141,9,-53,-68,-87
4,-87,-92,41,48,-90,63,146,9,-53,-68,-87
9,-87,-97,39,53,-92,63,151,9,-53,-68,-87
14,-87,-102,36,58,-95,63,156,9,-53,-73,-87
14,-87,-102,36,58,-95,53,161,19,-53,-63,-87
14,-87,-102,36,58,-95,53,165,24,-43,-63,-87
14,-78,-92,31,53,-85,53,170,29,-39,-53,-78
24,-73,-97,24,61,-85,48,170,34,-34,-48,-73
29,-68,-97,19,63,-82,48,185,39,-24,-48,-73
34,-68,-102,17,68,-85,43,185,39,-24,-48,-73
39,-68,-107,14,73,-87,43,200,39,-24,-53,-73
43,-68,-112,12,78,-90,39,209,48,-19,-53,-73
48,-58,-107,4,78,-82,39,209,53,-4,-53,-73
48,-58,-107,4,78,-82,34,214,58,0,-43,-68
53,-43,-97,-4,75,-70,34,219,68,14,-43,-68
58,-39,-97,-9,78,-68,34,224,68,14,-43,-68
63,-34,-97,-14,80,-65,34,244,78,9,-34,-58
73,-29,-102,-21,87,-65,24,258,78,9,-34,-58
78,-29,-107,-24,92,-68,24,258,78,9,-34,-58
82,-29,-112,-26,97,-70,24,273,87,19,-34,-58
92,-19,-112,-36,102,-65,29,268,87,19,-34,-48
92,-14,-107,-39,100,-61,29,273,92,29,-24,-43
97,-9,-107,-43,102,-58,24,283,107,43,-19,-39
102,4,-97,-53,100,-46,19,287,117,43,-14,-34
122,14,-107,-68,114,-46,9,307,126,48,-9,-39
126,29,-97,-78,112,-34,4,317,136,58,-4,-39
141,39,-102,-90,122,-31,0,326,141,63,-4,-39
151,43,-107,-97,129,-31,-4,336,146,68,-4,-43
151,43,-107,-97,129,-31,-9,346,151,73,14,-43
151,48,-102,-100,126,-26,-9,346,161,78,19,-39
156,53,-102,-104,129,-24,-9,361,175,92,24,-39
161,68,-92,-114,126,-12,-19,370,190,97,29,-24
170,78,-92,-124,131,-7,-24,370,195,107,34,-19
180,87,-92,-134,136,-2,-29,385,214,117,39,-19
204,97,-107,-151,156,-4,-34,395,219,117,39,-19
219,102,-117,-161,168,-7,-39,405,224,122,43,-19
219,107,-112,-163,165,-2,-39,414,224,136,43,-9
229,112,-117,-170,173,-2,-43,424,239,141,43,-4
229,117,-112,-173,170,2,-43,434,244,156,53,4
234,126,-107,-180,170,9,-43,444,258,165,63,9
239,136,-102,-187,170,17,-63,444,268,161,63,14
244,146,-97,-195,170,24,-68,448,278,170,68,19
253,156,-97,-204,175,29,-73,463,278,175,73,24
263,161,-102,-212,183,29,-73,468,287,180,73,24
263,165,-97,-214,180,34,-63,463,292,185,82,24
273,170,-102,-222,187,34,-68,468,297,190,82,24
283,180,-102,-231,192,39,-68,473,302,195,87,29
283,185,-97,-234,190,43,-78,473,317,209,97,34
283,204,-78,-244,180,63,-87,478,326,219,102,39
283,204,-78,-244,180,63,-82,483,326,229,107,43
292,209,-82,-251,187,63,-82,483,336,229,107,43
297,219,-78,-258,187,70,-92,483,341,229,107,43
302,219,-82,-261,192,68,-82,483,346,239,107,43
307,224,-82,-265,195,70,-92,483,351,244,117,43
307,234,-73,-270,190,80,-92,483,356,248,117,48
307,239,-68,-273,187,85,-92,483,361,253,126,48
297,239,-58,-268,178,90,-97,463,366,258,141,58
292,244,-48,-268,170,97,-97,453,370,263,146,68
292,248,-43,-270,168,102,-97,453,370,263,146,68
297,248,-48,-273,173,100,-102,448,366,263,146,68
297,248,-48,-273,173,100,-102,434,356,268,136,68
292,248,-43,-270,168,102,-102,414,356,268,141,68
283,248,-34,-265,158,107,-102,400,361,268,151,68
268,248,-19,-258,143,114,-97,375,361,278,156,78
258,248,-9,-253,134,119,-87,361,351,268,161,82
253,248,-4,-251,129,122,-87,341,341,268,165,87
234,248,14,-241,109,131,-87,322,341,268,165,92
229,253,24,-241,102,139,-87,307,336,263,165,92
219,248,29,-234,95,139,-87,292,317,239,151,82
214,244,29,-229,92,136,-87,268,302,229,146,78
200,229,29,-214,85,129,-82,248,297,229,146,78
190,219,29,-204,80,124,-82,229,283,224,146,78
170,224,53,-197,58,139,-78,204,263,204,136,78
165,219,53,-192,56,136,-78,180,253,200,136,82
156,219,63,-187,46,141,-78,156,234,195,136,82
136,214,78,-175,29,146,-73,141,219,180,126,82
131,200,68,-165,31,134,-68,131,195,161,131,73
122,175,53,-148,34,114,-58,122,185,151,126,73
112,170,58,-141,26,114,-58,102,165,146,122,68
102,161,58,-131,21,109,-53,87,151,136,112,68
92,151,58,-122,17,104,-43,73,151,136,112,68
78,146,68,-112,4,107,-39,53,131,122,107,68
58,136,78,-97,-9,107,-34,43,117,112,102,63
53,126,73,-90,-9,100,-29,34,107,102,97,58
58,117,58,-87,0,87,-24,24,102,82,73,39
48,107,58,-78,-4,82,-24,19,87,73,63,34
39,92,53,-65,-7,73,-19,14,73,63,53,29
34,82,48,-58,-7,65,-19,0,58,53,48,24
14,73,58,-43,-21,65,-14,-9,43,43,58,34
4,63,58,-34,-26,61,-9,-19,39,43,53,29
0,53,53,-26,-26,53,-4,-29,29,34,48,29
-9,48,58,-19,-34,53,-4,-39,19,24,48,24
0,39,39,-19,-19,39,-14,-48,0,14,29,19
-4,29,34,-12,-19,31,-14,-48,-9,4,14,9
-19,19,39,0,-29,29,0,-48,-14,-4,14,9
-19,14,34,2,-26,24,4,-48,-24,-14,4,4
-34,14,48,9,-41,31,4,-53,-24,-9,9,4
-39,4,43,17,-41,24,9,-58,-24,-14,9,4
-39,4,43,17,-41,24,9,-63,-34,-29,0,4
-43,0,43,21,-43,21,14,-68,-39,-29,0,0
-53,-14,39,34,-46,12,24,-68,-43,-43,-4,4
-53,-19,34,36,-43,7,24,-68,-48,-48,-9,0
-53,-34,19,43,-36,-7,29,-68,-53,-53,-14,0
-53,-43,9,48,-31,-17,29,-73,-68,-63,-24,-4
-53,-48,4,51,-29,-21,29,-78,-68,-63,-24,-9
-68,-53,14,61,-41,-19,34,-78,-68,-63,-24,-9
-68,-53,14,61,-41,-19,34,-87,-68,-63,-24,-9
-73,-58,14,65,-43,-21,34,-87,-68,-63,-29,-9
-63,-48,14,56,-39,-17,29,-87,-78,-68,-29,-9
-63,-53,9,58,-36,-21,29,-87,-82,-73,-39,-14
-63,-58,4,61,-34,-26,29,-92,-82,-78,-43,-19
-68,-63,4,65,-36,-29,34,-92,-87,-82,-43,-24
-78,-68,9,73,-43,-29,34,-92,-82,-73,-43,-24
-87,-68,19,78,-53,-24,34,-92,-82,-73,-43,-24
-92,-68,24,80,-58,-21,34,-92,-78,-73,-43,-24
-92,-68,24,80,-58,-21,39,-92,-78,-73,-43,-19
-87,-68,19,78,-53,-24,39,-92,-78,-78,-48,-29
-87,-73,14,80,-51,-29,39,-92,-78,-78,-48,-34
-87,-73,14,80,-51,-29,39,-92,-82,-82,-53,-34
-87,-78,9,82,-48,-34,39,-92,-82,-82,-53,-34
-87,-82,4,85,-46,-39,43,-92,-82,-82,-58,-29
-92,-82,9,87,-51,-36,43,-92,-82,-82,-58,-29
-92,-82,9,87,-51,-36,43,-92,-82,-78,-53,-29
-92,-82,9,87,-51,-36,48,-87,-82,-78,-53,-29
-92,-82,9,87,-51,-36,39,-87,-87,-78,-53,-39
-92,-82,9,87,-51,-36,39,-87,-87,-78,-53,-39
-92,-82,9,87,-51,-36,39,-87,-87,-82,-58,-39
-92,-87,4,90,-48,-41,39,-87,-92,-82,-58,-39
-82,-87,-4,85,-39,-46,48,-87,-92,-82,-58,-39
-82,-87,-4,85,-39,-46,48,-82,-92,-82,-58,-39
-87,-92,-4,90,-41,-48,53,-82,-92,-82,-58,-39
-87,-92,-4,90,-41,-48,53,-82,-82,-82,-58,-39
-97,-92,4,95,-51,-43,43,-82,-82,-82,-58,-39
-97,-92,4,95,-51,-43,43,-82,-82,-82,-58,-39
-92,-87,4,90,-48,-41,43,-82,-87,-82,-58,-39
-92,-87,4,90,-48,-41,43,-82,-87,-82,-58,-43
-82,-87,-4,85,-39,-46,43,-92,-87,-82,-58,-43
-82,-92,-9,87,-36,-51,43,-92,-87,-78,-58,-43
-82,-92,-9,87,-36,-51,48,-87,-87,-78,-58,-43
-87,-92,-4,90,-41,-48,48,-87,-87,-78,-58,-43
-97,-102,-4,100,-46,-53,58,-87,-73,-78,-58,-43
-97,-97,0,97,-48,-48,58,-87,-73,-78,-58,-43
-92,-97,-4,95,-43,-51,53,-87,-73,-78,-58,-43
-92,-97,-4,95,-43,-51,53,-87,-78,-82,-58,-43
-82,-92,-9,87,-36,-51,48,-87,-87,-73,-58,-43
-82,-92,-9,87,-36,-51,48,-87,-87,-73,-58,-48
-82,-92,-9,87,-36,-51,48,-87,-87,-73,-58,-48
-82,-92,-9,87,-36,-51,48,-87,-82,-63,-58,-48
-92,-92,0,92,-46,-46,48,-78,-82,-73,-53,-48
-92,-87,4,90,-48,-41,48,-78,-82,-73,-53,-48
-92,-87,4,90,-48,-41,43,-78,-82,-73,-58,-48
-87,-87,0,87,-43,-43,43,-78,-82,-82,-58,-48
-87,-97,-9,92,-39,-53,48,-78,-78,-73,-53,-48
-87,-92,-4,90,-41,-48,48,-78,-78,-73,-53,-48
-87,-92,-4,90,-41,-48,48,-78,-78,-73,-53,-48
-92,-92,0,92,-46,-46,48,-78,-78,-73,-53,-53
-92,-97,-4,95,-43,-51,58,-87,-78,-73,-53,-43
-92,-97,-4,95,-43,-51,53,-87,-78,-73,-53,-39
-92,-97,-4,95,-43,-51,53,-92,-78,-73,-53,-39
-92,-97,-4,95,-43,-51,53,-92,-78,-78,-53,-39
-92,-97,-4,95,-43,-51,53,-82,-78,-68,-53,-43
-87,-97,-9,92,-39,-53,53,-82,-82,-68,-53,-43
-87,-97,-9,92,-39,-53,48,-82,-82,-68,-53,-43
-87,-97,-9,92,-39,-53,48,-82,-82,-68,-53,-43
-87,-82,4,85,-46,-39,48,-92,-82,-68,-53,-43
-92,-82,9,87,-51,-36,48,-92,-82,-68,-53,-39
-92,-82,9,87,-51,-36,48,-92,-82,-68,-53,-39
-92,-78,14,85,-53,-31,48,-97,-82,-68,-53,-39
-87,-78,9,82,-48,-34,39,-97,-87,-73,-53,-39
-87,-78,9,82,-48,-34,39,-102,-87,-73,-53,-39
-87,-82,4,85,-46,-39,39,-102,-87,-73,-53,-39
-87,-82,4,85,-46,-39,39,-102,-87,-73,-53,-39
-87,-92,-4,90,-41,-48,48,-92,-87,-78,-63,-48
-87,-92,-4,90,-41,-48,48,-92,-87,-78,-63,-43
-92,-92,0,92,-46,-46,48,-92,-87,-78,-63,-43
-92,-92,0,92,-46,-46,43,-92,-87,-78,-63,-43
-92,-92,0,92,-46,-46,43,-97,-92,-73,-53,-43
-87,-92,-4,90,-41,-48,43,-97,-92,-73,-53,-43
-87,-92,-4,90,-41,-48,43,-97,-97,-78,-53,-43
-87,-92,-4,90,-41,-48,48,-97,-97,-78,-53,-43
-102,-92,9,97,-56,-41,48,-107,-97,-68,-53,-34
-102,-92,9,97,-56,-41,48,-112,-97,-68,-53,-34
-102,-92,9,97,-56,-41,48,-112,-97,-68,-53,-34
-102,-92,9,97,-56,-41,48,-112,-97,-68,-53,-34
-92,-92,0,92,-46,-46,43,-102,-107,-78,-63,-43
-92,-92,0,92,-46,-46,43,-102,-112,-78,-63,-39
-92,-92,0,92,-46,-46,39,-102,-112,-78,-63,-39
-92,-92,0,92,-46,-46,39,-102,-112,-78,-63,-39
-97,-82,14,90,-56,-34,43,-107,-102,-78,-58,-39
-97,-82,14,90,-56,-34,43,-107,-102,-78,-58,-39
-97,-82,14,90,-56,-34,43,-107,-102,-78,-53,-39
-97,-82,14,90,-56,-34,39,-112,-102,-78,-53,-39
-97,-82,14,90,-56,-34,39,-102,-102,-87,-53,-39
-97,-87,9,92,-53,-39,39,-102,-107,-92,-53,-39
-92,-92,0,92,-46,-46,39,-102,-107,-92,-53,-39
-92,-102,-9,97,-41,-56,39,-102,-107,-92,-58,-39
-92,-92,0,92,-46,-46,39,-112,-107,-82,-58,-39
-97,-92,4,95,-51,-43,39,-112,-107,-82,-58,-39
-97,-92,4,95,-51,-43,39,-112,-107,-82,-58,-39
-97,-92,4,95,-51,-43,39,-112,-107,-82,-58,-39
-97,-102,-4,100,-46,-53,39,-117,-107,-82,-68,-39
-97,-102,-4,100,-46,-53,39,-117,-107,-82,-68,-39
-97,-102,-4,100,-46,-53,39,-112,-107,-82,-68,-39
-97,-102,-4,100,-46,-53,39,-112,-107,-87,-68,-39
-97,-102,-4,100,-46,-53,39,-112,-97,-78,-58,-29
-97,-102,-4,100,-46,-53,39,-112,-97,-78,-58,-29
-97,-102,-4,100,-46,-53,39,-112,-97,-73,-58,-29
-97,-102,-4,100,-46,-53,39,-117,-97,-73,-53,-29
-102,-102,0,102,-51,-51,39,-117,-107,-82,-53,-34
-102,-102,0,102,-51,-51,39,-117,-112,-87,-58,-34
-102,-102,0,102,-51,-51,39,-117,-112,-87,-58,-34
-102,-102,0,102,-51,-51,39,-117,-112,-87,-63,-39
-92,-92,0,92,-46,-46,39,-117,-112,-87,-73,-29
-92,-97,-4,95,-43,-51,39,-117,-112,-87,-73,-29
-92,-97,-4,95,-43,-51,39,-117,-112,-87,-73,-29
-87,-97,-9,92,-39,-53,39,-117,-112,-87,-68,-29
-97,-102,-4,100,-46,-53,39,-117,-112,-97,-68,-39
-97,-102,-4,100,-46,-53,39,-117,-112,-97,-68,-39
-97,-102,-4,100,-46,-53,39,-117,-112,-97,-68,-39
-97,-102,-4,100,-46,-53,39,-117,-112,-97,-68,-39
-87,-92,-4,90,-41,-48,29,-117,-102,-87,-68,-29
-92,-97,-4,95,-43,-51,29,-117,-102,-87,-68,-29
-92,-97,-4,95,-43,-51,29,-112,-102,-82,-68,-29
-92,-97,-4,95,-43,-51,29,-112,-102,-82,-68,-29
-102,-97,4,100,-53,-46,29,-122,-112,-82,-58,-39
-102,-97,4,100,-53,-46,29,-122,-112,-82,-58,-39
-102,-97,4,100,-53,-46,29,-122,-112,-87,-58,-39
-102,-97,4,100,-53,-46,29,-126,-112,-87,-63,-39
-97,-97,0,97,-48,-48,29,-117,-117,-87,-63,-34
-97,-97,0,97,-48,-48,29,-117,-117,-87,-58,-34
-97,-102,-4,100,-46,-53,29,-117,-112,-87,-58,-34
-97,-102,-4,100,-46,-53,34,-117,-112,-87,-58,-34
-102,-97,4,100,-53,-46,43,-117,-112,-87,-58,-34
-102,-97,4,100,-53,-46,43,-112,-112,-87,-53,-34
-102,-97,4,100,-53,-46,43,-112,-112,-87,-53,-34
-102,-97,4,100,-53,-46,43,-112,-112,-87,-58,-34
-92,-97,-4,95,-43,-51,43,-112,-112,-87,-48,-39
-92,-97,-4,95,-43,-51,39,-117,-112,-87,-48,-39
-92,-97,-4,95,-43,-51,39,-117,-112,-87,-48,-39
-92,-102,-9,97,-41,-56,39,-117,-112,-87,-48,-39
-92,-102,-9,97,-41,-56,39,-117,-112,-87,-48,-39
-92,-102,-9,97,-41,-56,39,-117,-112,-87,-48,-39
-92,-97,-4,95,-43,-51,39,-117,-112,-87,-48,-39
-92,-97,-4,95,-43,-51,39,-117,-117,-87,-48,-39
-97,-107,-9,102,-43,-58,39,-117,-117,-87,-58,-39
-97,-107,-9,102,-43,-58,39,-117,-117,-87,-58,-39
-97,-112,-14,104,-41,-63,39,-117,-112,-87,-58,-39
-102,-112,-9,107,-46,-61,39,-117,-112,-87,-58,-39
-102,-102,0,102,-51,-51,39,-122,-102,-87,-58,-48
-102,-97,4,100,-53,-46,39,-122,-102,-87,-58,-48
-102,-97,4,100,-53,-46,39,-122,-102,-87,-58,-48
-102,-97,4,100,-53,-46,39,-122,-102,-87,-58,-48
-97,-112,-14,104,-41,-63,48,-112,-102,-87,-58,-48
-97,-102,-4,100,-46,-53,39,-112,-102,-87,-58,-39
-97,-107,-9,102,-43,-58,48,-112,-102,-87,-58,-29
-97,-107,-9,102,-43,-58,48,-102,-102,-87,-48,-29
-87,-97,-9,92,-39,-53,39,-117,-107,-87,-58,-39
-97,-97,0,97,-48,-48,39,-117,-107,-87,-58,-39
-97,-97,0,97,-48,-48,39,-117,-107,-87,-58,-39
-97,-97,0,97,-48,-48,39,-117,-107,-87,-58,-39
-97,-97,0,97,-48,-48,39,-117,-107,-87,-58,-39
-97,-97,0,97,-48,-48,39,-117,-107,-78,-48,-39
-97,-97,0,97,-48,-48,39,-117,-107,-78,-48,-39
-97,-97,0,97,-48,-48,39,-117,-107,-78,-48,-39
-97,-97,0,97,-48,-48,39,-117,-107,-78,-48,-39
-107,-97,9,102,-58,-43,39,-117,-107,-87,-58,-39
-107,-97,9,102,-58,-43,39,-117,-107,-87,-58,-39
-107,-97,9,102,-58,-43,39,-117,-107,-87,-58,-39
-107,-97,9,102,-58,-43,39,-117,-107,-87,-58,-39
-97,-97,0,97,-48,-48,29,-117,-107,-87,-58,-39
-97,-97,0,97,-48,-48,29,-117,-107,-87,-58,-39
-97,-97,0,97,-48,-48,29,-117,-107,-87,-58,-39
-97,-97,0,97,-48,-48,29,-117,-107,-87,-58,-39
-97,-97,0,97,-48,-48,29,-117,-107,-87,-58,-39
-97,-97,0,97,-48,-48,29,-117,-107,-87,-58,-39
-97,-97,0,97,-48,-48,29,-117,-107,-87,-58,-39
-97,-97,0,97,-48,-48,29,-117,-107,-87,-58,-39
-92,-92,0,92,-46,-46,29,-107,-97,-78,-48,-39
-87,-87,0,87,-43,-43,29,-107,-97,-78,-48,-39
-82,-82,0,82,-41,-41,29,-107,-97,-78,-48,-39
-78,-78,0,78,-39,-39,29,-107,-97,-78,-48,-39
-78,-73,4,75,-41,-34,29,-97,-87,-78,-39,-29
-78,-68,9,73,-43,-29,29,-97,-87,-78,-39,-29
-78,-63,14,70,-46,-24,29,-97,-87,-78,-39,-29
-78,-58,19,68,-48,-19,29,-97,-87,-78,-39,-29
-68,-53,14,61,-41,-19,19,-97,-78,-68,-29,-19
-68,-48,19,58,-43,-14,19,-97,-78,-68,-29,-19
-68,-43,24,56,-46,-9,19,-97,-78,-68,-29,-19
-58,-39,19,48,-39,-9,14,-97,-68,-68,-24,-14
-58,-39,19,48,-39,-9,24,-97,-68,-58,-24,-24
-58,-39,19,48,-39,-9,19,-92,-73,-63,-24,-24
-58,-43,14,51,-36,-14,19,-92,-73,-63,-24,-29
-48,-43,4,46,-26,-19,19,-92,-78,-63,-29,-29
-39,-53,-14,46,-12,-34,9,-92,-78,-73,-29,-29
-39,-53,-14,46,-12,-34,9,-87,-78,-73,-29,-29
-34,-63,-29,48,-2,-46,9,-87,-82,-82,-39,-34
-34,-63,-29,48,-2,-46,9,-87,-82,-82,-39,-34
-34,-53,-19,43,-7,-36,19,-82,-82,-73,-39,-34
-34,-53,-19,43,-7,-36,19,-82,-82,-73,-39,-34
-39,-48,-9,43,-14,-29,29,-82,-82,-73,-39,-34
-39,-48,-9,43,-14,-29,29,-82,-92,-78,-39,-34
-48,-58,-9,53,-19,-34,29,-92,-87,-73,-53,-39
-48,-63,-14,56,-17,-39,29,-92,-87,-73,-58,-43
-48,-68,-19,58,-14,-43,29,-97,-92,-78,-63,-43
-48,-73,-24,61,-12,-48,19,-102,-97,-82,-63,-43
-48,-73,-24,61,-12,-48,19,-97,-102,-92,-63,-43
-48,-73,-24,61,-12,-48,14,-102,-102,-92,-63,-43
-48,-73,-24,61,-12,-48,9,-102,-102,-92,-63,-43
-43,-68,-24,56,-9,-46,4,-102,-102,-92,-63,-39
-24,-58,-34,41,4,-46,-19,-112,-102,-82,-53,-39
-19,-58,-39,39,9,-48,-19,-112,-102,-82,-53,-39
-19,-58,-39,39,9,-48,-19,-112,-107,-82,-53,-43
-19,-58,-39,39,9,-48,-19,-112,-107,-82,-53,-43
-19,-68,-48,43,14,-58,-19,-112,-122,-92,-63,-43
-19,-73,-53,46,17,-63,-24,-117,-126,-97,-68,-43
-19,-73,-53,46,17,-63,-24,-117,-126,-97,-68,-43
-19,-82,-63,51,21,-73,-24,-117,-126,-97,-68,-48
-19,-82,-63,51,21,-73,-24,-112,-131,-102,-68,-48
-19,-82,-63,51,21,-73,-24,-112,-131,-102,-68,-48
-29,-78,-48,53,9,-63,-14,-107,-117,-92,-58,-43
-39,-63,-24,51,-7,-43,-9,-107,-107,-82,-53,-34
-68,-63,4,65,-36,-29,14,-117,-97,-73,-43,-24
-87,-82,4,85,-46,-39,24,-122,-102,-73,-53,-24
-102,-92,9,97,-56,-41,39,-131,-102,-82,-53,-24
-107,-102,4,104,-56,-48,39,-131,-102,-82,-53,-29
-107,-92,14,100,-61,-39,29,-117,-112,-92,-48,-34
-107,-97,9,102,-58,-43,24,-117,-117,-92,-48,-34
-112,-97,14,104,-63,-41,24,-117,-117,-92,-58,-34
-112,-102,9,107,-61,-46,29,-117,-122,-102,-63,-39
-102,-102,0,102,-51,-51,29,-117,-122,-102,-63,-48
-102,-102,0,102,-51,-51,29,-117,-122,-102,-63,-48
-102,-107,-4,104,-48,-56,29,-117,-122,-102,-63,-48
-102,-107,-4,104,-48,-56,29,-117,-122,-102,-63,-48
-102,-97,4,100,-53,-46,34,-126,-126,-102,-58,-48
-102,-97,4,100,-53,-46,34,-126,-126,-102,-58,-53
-102,-97,4,100,-53,-46,34,-126,-126,-102,-58,-53
-102,-97,4,100,-53,-46,34,-126,-126,-102,-58,-53
-102,-97,4,100,-53,-46,34,-117,-117,-92,-68,-43
-102,-97,4,100,-53,-46,34,-117,-117,-87,-68,-43
-102,-97,4,100,-53,-46,34,-112,-117,-87,-68,-43
-102,-97,4,100,-53,-46,34,-112,-117,-87,-68,-43
-112,-107,4,109,-58,-51,34,-112,-117,-97,-68,-53
-112,-107,4,109,-58,-51,34,-112,-117,-97,-68,-53
-117,-107,9,112,-63,-48,34,-112,-117,-97,-68,-53
-117,-107,9,112,-63,-48,34,-112,-117,-97,-68,-53
-107,-102,4,104,-56,-48,34,-122,-126,-97,-68,-53
-107,-102,4,104,-56,-48,34,-122,-126,-97,-68,-53
-102,-102,0,102,-51,-51,34,-122,-126,-97,-68,-53
-102,-97,4,100,-53,-46,34,-117,-126,-97,-68,-53
-102,-107,-4,104,-48,-56,34,-117,-117,-97,-68,-53
-102,-107,-4,104,-48,-56,34,-117,-117,-97,-68,-53
-102,-107,-4,104,-48,-56,34,-117,-117,-97,-68,-53
-102,-107,-4,104,-48,-56,29,-117,-117,-97,-68,-53
-102,-97,4,100,-53,-46,29,-117,-122,-97,-68,-43
-102,-97,4,100,-53,-46,34,-117,-122,-97,-68,-43
-102,-97,4,100,-53,-46,34,-117,-122,-97,-68,-43
-102,-97,4,100,-53,-46,34,-117,-122,-97,-68,-43
-102,-97,4,100,-53,-46,34,-117,-112,-87,-68,-43
-97,-97,0,97,-48,-48,34,-117,-112,-87,-68,-43
-97,-92,4,95,-51,-43,34,-117,-112,-87,-68,-43
-102,-92,9,97,-56,-41,34,-117,-112,-87,-63,-43
-112,-92,19,102,-65,-36,34,-117,-112,-92,-63,-53
-107,-92,14,100,-61,-39,34,-112,-112,-92,-63,-53
-107,-92,14,100,-61,-39,34,-112,-112,-92,-63,-48
-107,-92,14,100,-61,-39,34,-117,-107,-92,-63,-48
-107,-92,14,100,-61,-39,29,-117,-107,-92,-63,-48
-107,-92,14,100,-61,-39,29,-117,-107,-92,-63,-48
-107,-92,14,100,-61,-39,34,-117,-112,-92,-63,-48
-107,-92,14,100,-61,-39,34,-117,-112,-92,-63,-48
-102,-102,0,102,-51,-51,34,-107,-122,-102,-63,-48
-107,-107,0,107,-53,-53,39,-117,-136,-112,-78,-58
-112,-112,0,112,-56,-56,39,-126,-156,-112,-82,-68
-117,-107,9,112,-63,-48,39,-126,-156,-112,-82,-68
-117,-117,0,117,-58,-58,48,-126,-136,-97,-73,-58
-107,-107,0,107,-53,-53,39,-122,-136,-97,-68,-58
-117,-102,14,109,-65,-43,58,-126,-126,-82,-68,-53
-126,-92,34,109,-80,-29,58,-102,-97,-63,-43,-39
-107,-48,58,78,-82,4,48,-97,-53,-19,-14,-19
-78,9,87,34,-82,48,24,-107,4,43,39,9
-58,97,156,-19,-107,126,-24,-126,78,126,107,78
-4,239,244,-117,-124,241,-82,-122,180,248,219,170
87,429,341,-258,-126,385,-170,-122,326,405,336,263
200,644,444,-422,-122,544,-278,-117,497,585,497,385
322,883,561,-602,-119,722,-385,-78,688,785,649,497
468,1093,624,-780,-78,858,-497,-14,858,961,771,600
595,1254,658,-924,-31,956,-614,14,980,1098,883,692
722,1405,683,-1063,19,1044,-727,43,1083,1210,971,746
873,1576,702,-1224,85,1139,-854,68,1210,1346,1083,824
995,1766,771,-1381,112,1268,-976,48,1337,1512,1210,936
1063,1903,839,-1483,112,1371,-1078,-4,1390,1615,1302,1019
1132,1927,795,-1529,168,1361,-1146,-48,1351,1610,1312,1049
1176,1888,712,-1532,231,1300,-1200,-63,1254,1537,1259,1000
1180,1751,570,-1466,305,1161,-1190,-43,1132,1390,1156,927
1132,1532,400,-1332,366,966,-1127,-43,927,1171,980,785
1024,1254,229,-1139,397,741,-1000,-53,673,897,766,634
893,966,73,-929,409,519,-868,-29,448,624,561,473
741,712,-29,-727,385,341,-717,-19,292,419,390,346
556,517,-39,-536,297,239,-551,-29,195,292,278,253
380,346,-34,-363,207,156,-400,-29,112,180,175,165
273,219,-53,-246,163,82,-302,-53,14,68,82,107
170,122,-48,-146,109,36,-244,-102,-73,-9,39,63
68,58,-9,-63,39,24,-165,-131,-131,-53,9,48
9,9,0,-9,4,4,-117,-141,-175,-117,-39,24
-34,-14,19,24,-26,2,-97,-151,-175,-131,-58,-4
-63,-24,39,43,-51,7,-82,-146,-151,-112,-48,9
-68,-14,53,41,-61,19,-68,-165,-136,-102,-48,-9
-87,-34,53,61,-70,9,-34,-131,-112,-82,-29,-14
-87,-39,48,63,-68,4,-19,-102,-102,-82,-39,-4
-87,-43,43,65,-65,0,-9,-97,-87,-78,-48,-14
-78,-43,34,61,-56,-4,4,-68,-78,-68,-39,-9
-58,-53,4,56,-31,-24,14,-63,-78,-82,-48,-14
-58,-58,0,58,-29,-29,14,-53,-78,-73,-63,-39
-58,-63,-4,61,-26,-34,24,-39,-78,-82,-63,-34
-63,-73,-9,68,-26,-41,34,-39,-78,-82,-73,-43
-68,-78,-9,73,-29,-43,43,-34,-73,-82,-73,-43
-78,-82,-4,80,-36,-43,53,-29,-63,-73,-73,-43
-87,-82,4,85,-46,-39,53,-24,-63,-68,-73,-39
-82,-78,4,80,-43,-36,48,-24,-63,-68,-68,-48
-82,-78,4,80,-43,-36,53,-19,-63,-73,-68,-53
-73,-78,-4,75,-34,-41,53,-19,-68,-82,-78,-53
-73,-87,-14,80,-29,-51,53,-14,-68,-87,-82,-58
-73,-92,-19,82,-26,-56,53,-14,-73,-87,-73,-63
-73,-92,-19,82,-26,-56,58,-14,-73,-87,-73,-63
-78,-92,-14,85,-31,-53,58,-14,-68,-78,-73,-58
-82,-92,-9,87,-36,-51,58,-9,-68,-78,-68,-53
-82,-87,-4,85,-39,-46,63,0,-63,-78,-68,-53
-78,-87,-9,82,-34,-48,63,4,-63,-78,-68,-48
-73,-87,-14,80,-29,-51,63,4,-68,-82,-68,-48
-73,-97,-24,85,-24,-61,63,4,-68,-82,-73,-53
-68,-92,-24,80,-21,-58,63,0,-68,-92,-82,-58
-68,-92,-24,80,-21,-58,63,0,-68,-92,-82,-58
-68,-92,-24,80,-21,-58,63,0,-63,-87,-82,-58
-68,-87,-19,78,-24,-53,63,0,-63,-82,-78,-53
-78,-92,-14,85,-31,-53,63,-9,-63,-73,-78,-53
-78,-92,-14,85,-31,-53,63,-9,-63,-78,-78,-53
-78,-92,-14,85,-31,-53,63,-9,-63,-82,-78,-53
-78,-92,-14,85,-31,-53,63,-9,-63,-82,-82,-53
-68,-92,-24,80,-21,-58,73,-9,-73,-82,-82,-68
-68,-92,-24,80,-21,-58,73,-9,-73,-82,-82,-68
-68,-92,-24,80,-21,-58,73,-9,-73,-82,-82,-68
-68,-92,-24,80,-21,-58,73,-9,-73,-78,-78,-68
-78,-87,-9,82,-34,-48,68,0,-63,-78,-78,-58
-82,-87,-4,85,-39,-46,68,0,-58,-73,-78,-58
-82,-87,-4,85,-39,-46,68,4,-58,-73,-78,-63
-73,-87,-14,80,-29,-51,63,4,-63,-78,-82,-68
-63,-92,-29,78,-17,-61,73,14,-73,-82,-78,-73
-58,-92,-34,75,-12,-63,73,14,-73,-82,-78,-73
-58,-92,-34,75,-12,-63,73,14,-73,-82,-78,-73
-63,-97,-34,80,-14,-65,73,14,-68,-78,-73,-73
-63,-97,-34,80,-14,-65,63,14,-58,-73,-68,-58
-68,-97,-29,82,-19,-63,63,14,-58,-73,-68,-58
-68,-97,-29,82,-19,-63,68,29,-58,-73,-68,-58
-58,-97,-39,78,-9,-68,68,29,-58,-78,-73,-68
-53,-97,-43,75,-4,-70,68,29,-58,-78,-82,-78
-53,-102,-48,78,-2,-75,68,29,-58,-78,-82,-73
-53,-107,-53,80,0,-80,68,29,-58,-78,-78,-73
-58,-107,-48,82,-4,-78,68,34,-48,-78,-73,-73
-58,-107,-48,82,-4,-78,68,34,-48,-73,-73,-63
-58,-107,-48,82,-4,-78,68,34,-48,-73,-73,-63
-63,-107,-43,85,-9,-75,68,34,-48,-73,-73,-63
-63,-107,-43,85,-9,-75,68,39,-48,-73,-73,-63
-53,-107,-53,80,0,-80,68,48,-58,-78,-78,-73
-48,-107,-58,78,4,-82,68,53,-58,-78,-78,-82
-48,-112,-63,80,7,-87,68,58,-63,-78,-78,-82
-48,-112,-63,80,7,-87,68,58,-63,-78,-78,-82
-48,-122,-73,85,12,-97,78,58,-43,-73,-78,-73
-53,-122,-68,87,7,-95,78,58,-43,-73,-78,-73
-53,-117,-63,85,4,-90,78,58,-43,-73,-78,-68
-53,-117,-63,85,4,-90,78,68,-43,-73,-78,-68
-39,-107,-68,73,14,-87,68,63,-43,-87,-92,-87
-39,-107,-68,73,14,-87,68,63,-43,-87,-92,-87
-34,-107,-73,70,19,-90,63,63,-43,-87,-92,-87
-34,-107,-73,70,19,-90,63,68,-43,-87,-92,-87
-43,-117,-73,80,14,-95,73,78,-34,-68,-78,-78
-43,-112,-68,78,12,-90,73,82,-34,-68,-78,-78
-43,-112,-68,78,12,-90,73,82,-34,-68,-78,-78
-43,-112,-68,78,12,-90,73,87,-34,-68,-78,-78
-29,-112,-82,70,26,-97,63,82,-43,-82,-87,-78
-24,-112,-87,68,31,-100,63,87,-43,-82,-92,-87
-19,-112,-92,65,36,-102,63,87,-43,-82,-92,-87
-19,-112,-92,65,36,-102,58,92,-43,-78,-92,-87
-29,-112,-82,70,26,-97,68,97,-29,-78,-92,-97
-29,-112,-82,70,26,-97,68,97,-24,-68,-87,-92
-29,-112,-82,70,26,-97,68,97,-24,-68,-87,-92
-29,-107,-78,68,24,-92,68,102,-24,-68,-87,-92
-29,-117,-87,73,29,-102,68,107,-24,-68,-87,-92
-19,-117,-97,68,39,-107,68,112,-19,-68,-92,-92
-14,-117,-102,65,43,-109,68,117,-19,-68,-92,-97
-9,-117,-107,63,48,-112,68,122,-19,-68,-92,-97
0,-112,-112,56,56,-112,58,122,-14,-68,-78,-87
0,-107,-107,53,53,-107,58,122,0,-63,-73,-82
0,-92,-92,46,46,-92,58,131,4,-63,-68,-78
0,-87,-87,43,43,-87,58,136,9,-53,-68,-78
0,-87,-87,43,43,-87,63,131,0,-53,-78,-78
4,-87,-92,41,48,-90,63,136,0,-53,-78,-78
9,-87,-97,39,53,-92,63,141,0,-53,-78,-78
14,-87,-102,36,58,-95,63,146,0,-53,-82,-78
24,-97,-122,36,73,-109,53,151,9,-43,-73,-78
24,-97,-122,36,73,-109,53,156,14,-34,-73,-78
24,-87,-112,31,68,-100,53,161,19,-29,-63,-68
34,-82,-117,24,75,-100,48,161,24,-24,-58,-63
39,-78,-117,19,78,-97,58,175,29,-34,-68,-73
43,-78,-122,17,82,-100,53,175,29,-34,-68,-73
48,-78,-126,14,87,-102,53,190,29,-34,-73,-73
53,-78,-131,12,92,-104,48,200,39,-29,-73,-73
48,-68,-117,9,82,-92,48,209,53,-14,-73,-63
48,-68,-117,9,82,-92,43,214,58,-9,-63,-58
53,-53,-107,0,80,-80,43,219,68,4,-63,-58
58,-48,-107,-4,82,-78,43,224,68,4,-63,-58
63,-53,-117,-4,90,-85,43,234,78,0,-53,-58
73,-48,-122,-12,97,-85,34,248,78,0,-53,-58
78,-48,-126,-14,102,-87,34,248,78,0,-53,-58
82,-48,-131,-17,107,-90,34,263,87,9,-53,-58
82,-48,-131,-17,107,-90,29,268,87,9,-53,-58
82,-43,-126,-19,104,-85,29,273,92,19,-43,-53
87,-39,-126,-24,107,-82,24,283,107,34,-39,-48
92,-24,-117,-34,104,-70,19,287,117,34,-34,-43
112,-24,-136,-43,124,-80,19,297,117,39,-29,-39
117,-9,-126,-53,122,-68,14,307,126,48,-24,-39
131,0,-131,-65,131,-65,9,317,131,53,-24,-39
141,4,-136,-73,139,-65,4,326,136,58,-24,-43
151,14,-136,-82,143,-61,0,326,141,63,-14,-43
151,19,-131,-85,141,-56,0,326,151,68,-9,-39
156,24,-131,-90,143,-53,0,341,165,82,-4,-39
161,39,-122,-100,141,-41,-9,351,180,87,0,-24
175,39,-136,-107,156,-48,-4,361,175,87,4,-29
180,48,-131,-114,156,-41,-9,375,195,97,9,-29
200,58,-141,-129,170,-41,-14,385,200,97,9,-29
209,63,-146,-136,178,-41,-19,395,204,102,14,-29
209,58,-151,-134,180,-46,-19,405,214,107,24,-29
219,63,-156,-141,187,-46,-24,414,229,112,24,-24
219,68,-151,-143,185,-41,-24,424,234,126,34,-14
224,78,-146,-151,185,-34,-24,434,248,136,43,-9
239,97,-141,-168,190,-21,-43,434,258,151,53,4
244,107,-136,-175,190,-14,-48,439,268,161,58,9
253,117,-136,-185,195,-9,-53,453,268,165,63,14
263,122,-141,-192,202,-9,-53,458,278,170,63,14
263,126,-136,-195,200,-4,-53,463,283,185,73,14
273,131,-141,-202,207,-4,-58,468,287,190,73,14
283,141,-141,-212,212,0,-58,473,292,195,78,19
283,146,-136,-214,209,4,-68,473,307,209,87,24
283,165,-117,-224,200,24,-78,478,317,209,92,29
283,165,-117,-224,200,24,-73,483,317,219,97,34
292,170,-122,-231,207,24,-73,483,326,219,97,34
297,180,-117,-239,207,31,-82,483,331,219,97,34
302,170,-131,-236,217,19,-73,483,326,224,87,24
307,175,-131,-241,219,21,-82,483,331,224,97,24
307,185,-122,-246,214,31,-82,483,336,224,97,29
307,190,-117,-248,212,36,-82,483,341,224,107,29
302,200,-102,-251,202,48,-87,473,356,234,122,39
292,204,-87,-248,190,58,-87,463,361,244,126,48
287,209,-78,-248,183,65,-87,463,361,248,126,48
287,209,-78,-248,183,65,-92,458,356,253,126,48
297,219,-78,-258,187,70,-92,448,366,268,126,58
292,219,-73,-256,183,73,-92,434,366,268,131,58
283,219,-63,-251,173,78,-92,424,370,268,141,58
268,219,-48,-244,158,85,-87,405,370,278,146,68
263,219,-43,-241,153,87,-87,390,370,268,141,73
263,219,-43,-241,153,87,-87,370,361,268,146,78
248,219,-29,-234,139,95,-87,351,361,268,146,82
248,224,-24,-236,136,100,-87,336,356,263,146,82
239,224,-14,-231,126,104,-97,322,336,248,151,82
234,224,-9,-229,122,107,-97,297,322,239,146,78
219,214,-4,-217,112,104,-92,278,317,239,146,78
209,209,0,-209,104,104,-92,258,302,234,146,78
190,204,14,-197,87,109,-78,244,302,234,146,78
185,200,14,-192,85,107,-78,219,292,229,146,82
175,200,24,-187,75,112,-78,195,273,224,146,82
156,195,39,-175,58,117,-73,180,258,209,136,82
151,190,39,-170,56,114,-78,161,234,180,131,73
141,165,24,-153,58,95,-68,151,224,170,126,73
131,161,29,-146,51,95,-68,131,204,165,122,68
122,151,29,-136,46,90,-63,117,190,156,112,68
102,141,39,-122,31,90,-63,102,190,156,112,78
87,136,48,-112,19,92,-58,82,170,141,107,78
68,126,58,-97,4,92,-53,73,156,131,102,73
63,117,53,-90,4,85,-48,63,146,122,97,68
68,107,39,-87,14,73,-53,43,122,92,82,58
58,97,39,-78,9,68,-53,39,107,82,73,53
48,82,34,-65,7,58,-48,34,92,73,63,48
43,73,29,-58,7,51,-48,19,78,63,58,43
34,68,34,-51,0,51,-34,9,63,63,68,43
24,63,39,-43,-7,51,-29,0,58,63,63,39
19,58,39,-39,-9,48,-24,-9,48,53,58,39
9,58,48,-34,-19,53,-24,-19,39,43,58,34
0,43,43,-21,-21,43,-24,-29,19,24,39,19
-4,29,34,-12,-19,31,-24,-29,9,14,24,9
-19,14,34,2,-26,24,-9,-29,4,4,24,9
-19,4,24,7,-21,14,-4,-29,-4,-4,14,4
-34,-4,29,19,-31,12,-4,-53,-4,0,19,4
-39,-14,24,26,-31,4,0,-58,-4,-4,19,4
-39,-14,24,26,-31,4,0,-63,-14,-19,9,4
-43,-19,24,31,-34,2,4,-68,-19,-19,9,0
-43,-14,29,29,-36,7,4,-68,-34,-24,-4,-4
-43,-19,24,31,-34,2,4,-68,-39,-29,-9,-9
-43,-34,9,39,-26,-12,9,-68,-43,-34,-14,-9
-43,-43,0,43,-21,-21,9,-73,-58,-43,-24,-14
-43,-48,-4,46,-19,-26,19,-78,-58,-43,-24,-9
-58,-53,4,56,-31,-24,24,-78,-58,-43,-24,-9
-58,-53,4,56,-31,-24,24,-87,-58,-43,-24,-9
-63,-58,4,61,-34,-26,24,-87,-58,-43,-29,-9
-68,-58,9,63,-39,-24,29,-87,-58,-58,-29,-9
-73,-63,9,68,-41,-26,29,-87,-63,-63,-39,-14
-78,-68,9,73,-43,-29,29,-92,-63,-68,-43,-19
-87,-73,14,80,-51,-29,34,-92,-68,-73,-43,-24
-78,-87,-9,82,-34,-48,34,-82,-73,-63,-43,-34
-87,-87,0,87,-43,-43,34,-82,-73,-63,-43,-34
-92,-87,4,90,-48,-41,34,-82,-68,-63,-43,-34
-92,-87,4,90,-48,-41,39,-82,-68,-63,-43,-29
-87,-87,0,87,-43,-43,29,-82,-78,-68,-48,-19
-87,-92,-4,90,-41,-48,29,-82,-78,-68,-48,-24
-87,-92,-4,90,-41,-48,29,-82,-82,-73,-53,-24
-87,-97,-9,92,-39,-53,29,-82,-82,-73,-53,-24
-87,-92,-4,90,-41,-48,34,-82,-73,-73,-58,-29
-92,-92,0,92,-46,-46,34,-82,-73,-73,-58,-29
-92,-92,0,92,-46,-46,34,-82,-73,-68,-53,-29
-92,-92,0,92,-46,-46,39,-78,-73,-68,-53,-29
-82,-92,-9,87,-36,-51,39,-87,-68,-78,-53,-29
-82,-92,-9,87,-36,-51,39,-87,-68,-78,-53,-29
-82,-92,-9,87,-36,-51,39,-87,-68,-82,-58,-29
-82,-97,-14,90,-34,-56,39,-87,-73,-82,-58,-29
-82,-107,-24,95,-29,-65,48,-78,-73,-73,-48,-39
-82,-107,-24,95,-29,-65,48,-73,-73,-73,-48,-39
-87,-112,-24,100,-31,-68,53,-73,-73,-73,-48,-39
-87,-112,-24,100,-31,-68,53,-73,-63,-73,-48,-39
-87,-112,-24,100,-31,-68,53,-73,-63,-73,-48,-29
-87,-112,-24,100,-31,-68,53,-73,-63,-73,-48,-29
-82,-107,-24,95,-29,-65,53,-73,-68,-73,-48,-29
-82,-107,-24,95,-29,-65,53,-73,-68,-73,-48,-34
-82,-107,-24,95,-29,-65,53,-73,-58,-73,-48,-34
-82,-112,-29,97,-26,-70,53,-73,-58,-68,-48,-34
-82,-112,-29,97,-26,-70,58,-68,-58,-68,-48,-34
-87,-112,-24,100,-31,-68,58,-68,-58,-68,-48,-34
-87,-102,-14,95,-36,-58,48,-58,-63,-78,-39,-34
-87,-97,-9,92,-39,-53,48,-58,-63,-78,-39,-34
-82,-97,-14,90,-34,-56,43,-58,-63,-78,-39,-34
-82,-97,-14,90,-34,-56,43,-58,-68,-82,-39,-34
-82,-92,-9,87,-36,-51,48,-68,-68,-73,-43,-34
-82,-92,-9,87,-36,-51,48,-68,-68,-73,-48,-39
-82,-92,-9,87,-36,-51,48,-68,-68,-73,-53,-39
-82,-92,-9,87,-36,-51,48,-68,-63,-63,-58,-39
-82,-102,-19,92,-31,-61,58,-58,-63,-63,-43,-29
-82,-97,-14,90,-34,-56,58,-58,-63,-63,-43,-29
-82,-97,-14,90,-34,-56,53,-58,-63,-63,-48,-29
-78,-97,-19,87,-29,-58,53,-58,-63,-73,-48,-29
-78,-102,-24,90,-26,-63,58,-58,-68,-63,-53,-39
-78,-102,-24,90,-26,-63,58,-58,-68,-63,-53,-39
-78,-107,-29,92,-24,-68,58,-58,-68,-63,-53,-39
-82,-112,-29,97,-26,-70,58,-58,-68,-63,-53,-43
-82,-107,-24,95,-29,-65,48,-58,-68,-63,-53,-43
-82,-107,-24,95,-29,-65,43,-58,-68,-63,-53,-39
-82,-107,-24,95,-29,-65,43,-63,-68,-63,-53,-39
-82,-107,-24,95,-29,-65,43,-63,-68,-68,-53,-39
-82,-107,-24,95,-29,-65,43,-63,-58,-68,-53,-43
-78,-107,-29,92,-24,-68,43,-63,-63,-68,-53,-43
-78,-107,-29,92,-24,-68,39,-63,-63,-68,-53,-43
-78,-107,-29,92,-24,-68,39,-63,-63,-68,-53,-43
-78,-92,-14,85,-31,-53,39,-63,-73,-68,-53,-43
-82,-92,-9,87,-36,-51,39,-63,-73,-68,-53,-39
-82,-92,-9,87,-36,-51,39,-63,-73,-68,-53,-39
-82,-87,-4,85,-39,-46,39,-68,-73,-68,-53,-39
-78,-97,-19,87,-29,-58,39,-68,-78,-73,-53,-39
-78,-97,-19,87,-29,-58,39,-73,-78,-73,-53,-39
-78,-102,-24,90,-26,-63,39,-73,-78,-73,-53,-39
-78,-102,-24,90,-26,-63,39,-73,-78,-73,-53,-39
-87,-92,-4,90,-41,-48,39,-73,-78,-58,-43,-29
-87,-92,-4,90,-41,-48,39,-73,-78,-58,-43,-24
-92,-92,0,92,-46,-46,39,-73,-78,-58,-43,-24
-92,-92,0,92,-46,-46,34,-73,-78,-58,-43,-24
-92,-102,-9,97,-41,-56,34,-78,-82,-73,-53,-34
-87,-102,-14,95,-36,-58,34,-78,-82,-73,-53,-34
-87,-102,-14,95,-36,-58,34,-78,-87,-78,-53,-34
-87,-102,-14,95,-36,-58,39,-78,-87,-78,-53,-34
-92,-102,-9,97,-41,-56,39,-87,-97,-78,-53,-34
-92,-102,-9,97,-41,-56,39,-92,-97,-78,-53,-34
-92,-102,-9,97,-41,-56,39,-92,-97,-78,-53,-34
-92,-102,-9,97,-41,-56,39,-92,-97,-78,-53,-34
-82,-92,-9,87,-36,-51,34,-92,-87,-78,-53,-24
-82,-92,-9,87,-36,-51,34,-92,-92,-78,-53,-19
-82,-92,-9,87,-36,-51,29,-92,-92,-78,-53,-19
-82,-92,-9,87,-36,-51,29,-92,-92,-78,-53,-19
-97,-102,-4,100,-46,-53,34,-97,-92,-78,-58,-19
-97,-102,-4,100,-46,-53,34,-97,-92,-78,-58,-19
-97,-102,-4,100,-46,-53,34,-97,-92,-78,-53,-19
-97,-102,-4,100,-46,-53,29,-102,-92,-78,-53,-19
-87,-87,0,87,-43,-43,19,-102,-102,-78,-53,-19
-87,-87,0,87,-43,-43,19,-102,-107,-82,-53,-19
-82,-87,-4,85,-39,-46,19,-102,-107,-82,-53,-19
-82,-92,-9,87,-36,-51,19,-102,-107,-82,-58,-19
-82,-92,-9,87,-36,-51,29,-102,-107,-82,-48,-19
-87,-92,-4,90,-41,-48,29,-102,-107,-82,-48,-19
-87,-92,-4,90,-41,-48,29,-102,-107,-82,-48,-19
-87,-92,-4,90,-41,-48,29,-102,-107,-82,-48,-19
-97,-92,4,95,-51,-43,29,-107,-97,-82,-39,-9
-97,-92,4,95,-51,-43,29,-107,-97,-82,-39,-9
-97,-92,4,95,-51,-43,29,-102,-97,-82,-39,-9
-97,-92,4,95,-51,-43,29,-102,-97,-87,-39,-9
-97,-92,4,95,-51,-43,29,-102,-107,-87,-48,-9
-97,-92,4,95,-51,-43,29,-102,-107,-87,-48,-9
-97,-92,4,95,-51,-43,29,-102,-107,-82,-48,-9
-97,-92,4,95,-51,-43,29,-107,-107,-82,-43,-9
-102,-92,9,97,-56,-41,29,-107,-107,-82,-43,-4
-102,-92,9,97,-56,-41,29,-107,-112,-87,-48,-4
-102,-92,9,97,-56,-41,29,-107,-112,-87,-48,-4
-102,-92,9,97,-56,-41,29,-107,-112,-87,-53,-9
-102,-102,0,102,-51,-51,39,-107,-112,-87,-63,-14
-102,-107,-4,104,-48,-56,39,-107,-112,-87,-63,-19
-102,-107,-4,104,-48,-56,39,-107,-112,-87,-63,-24
-97,-107,-9,102,-43,-58,39,-107,-112,-87,-58,-29
-87,-112,-24,100,-31,-68,29,-107,-112,-97,-58,-29
-87,-112,-24,100,-31,-68,29,-107,-112,-97,-58,-29
-87,-112,-24,100,-31,-68,29,-107,-112,-97,-58,-29
-87,-112,-24,100,-31,-68,29,-107,-112,-97,-58,-29
-97,-112,-14,104,-41,-63,39,-97,-102,-87,-58,-39
-102,-117,-14,109,-43,-65,39,-97,-102,-87,-58,-39
-102,-117,-14,109,-43,-65,39,-92,-102,-82,-58,-39
-102,-117,-14,109,-43,-65,39,-92,-102,-82,-58,-39
-102,-117,-14,109,-43,-65,39,-102,-102,-82,-58,-39
-102,-117,-14,109,-43,-65,39,-102,-102,-82,-58,-39
-102,-117,-14,109,-43,-65,39,-102,-102,-87,-58,-39
-102,-117,-14,109,-43,-65,39,-107,-102,-87,-63,-39
-97,-117,-19,107,-39,-68,48,-97,-107,-87,-63,-43
-97,-117,-19,107,-39,-68,48,-97,-107,-87,-58,-43
-97,-122,-24,109,-36,-73,48,-97,-102,-87,-58,-43
-97,-122,-24,109,-36,-73,53,-97,-102,-87,-58,-43
-102,-117,-14,109,-43,-65,53,-107,-102,-87,-58,-43
-102,-117,-14,109,-43,-65,53,-102,-102,-87,-53,-43
-102,-117,-14,109,-43,-65,53,-102,-102,-87,-53,-43
-102,-117,-14,109,-43,-65,53,-102,-102,-87,-58,-43
-92,-117,-24,104,-34,-70,53,-102,-112,-87,-68,-48
-92,-117,-24,104,-34,-70,48,-107,-112,-87,-68,-48
-92,-117,-24,104,-34,-70,48,-107,-112,-87,-68,-48
-92,-122,-29,107,-31,-75,48,-107,-112,-87,-68,-48
-102,-122,-19,112,-41,-70,48,-97,-102,-87,-58,-39
-102,-122,-19,112,-41,-70,48,-97,-102,-87,-58,-39
-102,-117,-14,109,-43,-65,48,-97,-102,-87,-58,-39
-102,-117,-14,109,-43,-65,48,-97,-107,-87,-58,-39
-87,-117,-29,102,-29,-73,39,-107,-107,-87,-68,-39
-87,-117,-29,102,-29,-73,39,-107,-107,-87,-68,-39
-87,-122,-34,104,-26,-78,39,-107,-102,-87,-68,-39
-92,-122,-29,107,-31,-75,39,-107,-102,-87,-68,-39
-102,-112,-9,107,-46,-61,48,-112,-102,-87,-58,-29
-102,-107,-4,104,-48,-56,48,-112,-102,-87,-58,-29
-102,-107,-4,104,-48,-56,48,-112,-102,-87,-58,-29
-102,-107,-4,104,-48,-56,48,-112,-102,-87,-58,-29
-97,-112,-14,104,-41,-63,48,-102,-102,-87,-58,-29
-107,-102,4,104,-56,-48,39,-102,-112,-97,-68,-29
-97,-117,-19,107,-39,-68,39,-102,-102,-97,-58,-29
-107,-117,-9,112,-48,-63,48,-112,-102,-97,-58,-39
-97,-117,-19,107,-39,-68,58,-107,-107,-87,-58,-29
-97,-107,-9,102,-43,-58,53,-117,-107,-87,-68,-39
-97,-107,-9,102,-43,-58,48,-117,-107,-87,-68,-39
-97,-107,-9,102,-43,-58,43,-117,-107,-87,-68,-39
-97,-107,-9,102,-43,-58,39,-117,-107,-87,-68,-39
-97,-117,-19,107,-39,-68,39,-107,-117,-97,-68,-39
-97,-117,-19,107,-39,-68,39,-107,-117,-97,-68,-39
-97,-117,-19,107,-39,-68,39,-107,-117,-97,-68,-39
-97,-117,-19,107,-39,-68,39,-107,-117,-97,-68,-39
-87,-112,-24,100,-31,-68,39,-97,-107,-87,-68,-29
-87,-107,-19,97,-34,-63,39,-97,-107,-87,-68,-29
-87,-102,-14,95,-36,-58,39,-97,-107,-87,-68,-29
-87,-97,-9,92,-39,-53,39,-97,-107,-87,-68,-29
-78,-87,-9,82,-34,-48,39,-97,-107,-87,-58,-29
-78,-87,-9,82,-34,-48,39,-97,-107,-87,-58,-29
-78,-87,-9,82,-34,-48,39,-97,-107,-87,-58,-29
-78,-87,-9,82,-34,-48,39,-97,-107,-87,-58,-29
-68,-73,-4,70,-31,-39,29,-97,-102,-82,-48,-19
-68,-68,0,68,-34,-34,29,-97,-97,-78,-48,-19
-68,-63,4,65,-36,-29,29,-97,-92,-73,-48,-19
-68,-58,9,63,-39,-24,29,-97,-87,-68,-48,-19
-58,-58,0,58,-29,-29,34,-97,-78,-68,-43,-24
-58,-58,0,58,-29,-29,34,-97,-78,-68,-43,-24
-58,-58,0,58,-29,-29,29,-92,-82,-73,-43,-24
-58,-63,-4,61,-26,-34,29,-92,-82,-73,-43,-29
-58,-73,-14,65,-21,-43,29,-92,-87,-63,-48,-29
-58,-73,-14,65,-21,-43,29,-92,-87,-63,-48,-29
-58,-73,-14,65,-21,-43,29,-87,-87,-63,-48,-29
-53,-82,-29,68,-12,-56,29,-87,-92,-73,-58,-34
-48,-78,-29,63,-9,-53,19,-87,-92,-73,-58,-34
-34,-73,-39,53,2,-56,19,-82,-92,-73,-58,-34
-29,-68,-39,48,4,-53,19,-82,-92,-73,-58,-34
-29,-58,-29,43,0,-43,29,-82,-92,-73,-58,-34
-39,-68,-29,53,-4,-48,39,-82,-102,-78,-58,-24
-48,-78,-29,63,-9,-53,39,-92,-107,-82,-63,-29
-48,-82,-34,65,-7,-58,39,-92,-107,-82,-68,-34
-48,-87,-39,68,-4,-63,39,-97,-112,-87,-73,-34
-58,-92,-34,75,-12,-63,29,-92,-107,-92,-73,-43
-58,-92,-34,75,-12,-63,29,-97,-112,-92,-73,-43
-58,-92,-34,75,-12,-63,24,-102,-112,-92,-73,-43
-58,-92,-34,75,-12,-63,19,-102,-112,-92,-73,-43
-48,-78,-29,63,-9,-53,4,-107,-122,-92,-63,-39
-34,-68,-34,51,0,-51,-9,-112,-122,-92,-63,-39
-24,-68,-43,46,9,-56,-9,-117,-122,-92,-63,-39
-19,-68,-48,43,14,-58,-9,-122,-126,-92,-63,-43
-19,-68,-48,43,14,-58,-19,-112,-136,-102,-68,-53
-19,-68,-48,43,14,-58,-19,-112,-141,-102,-73,-53
-19,-73,-53,46,17,-63,-24,-117,-146,-107,-82,-53
-19,-73,-53,46,17,-63,-24,-117,-146,-107,-87,-53
-29,-73,-43,51,7,-58,-14,-117,-136,-97,-78,-48
-29,-73,-43,51,7,-58,-14,-122,-141,-102,-78,-48
-29,-73,-43,51,7,-58,-14,-122,-141,-102,-78,-48
-39,-68,-29,53,-4,-48,-4,-117,-126,-92,-68,-43
-48,-63,-14,56,-17,-39,9,-117,-126,-92,-73,-34
-68,-63,4,65,-36,-29,24,-117,-126,-92,-63,-34
-87,-82,4,85,-46,-39,34,-122,-131,-92,-73,-34
-102,-92,9,97,-56,-41,48,-131,-131,-102,-73,-34
-97,-92,4,95,-51,-43,39,-122,-122,-102,-73,-39
-97,-92,4,95,-51,-43,39,-117,-122,-102,-78,-43
-97,-97,0,97,-48,-48,34,-117,-126,-102,-78,-43
-102,-97,4,100,-53,-46,34,-117,-126,-102,-87,-43
-102,-112,-9,107,-46,-61,39,-126,-141,-112,-82,-58
-102,-112,-9,107,-46,-61,39,-126,-141,-112,-82,-58
-102,-112,-9,107,-46,-61,39,-126,-141,-112,-82,-58
-102,-117,-14,109,-43,-65,39,-126,-141,-112,-82,-58
-112,-117,-4,114,-53,-61,39,-117,-141,-112,-92,-68
-112,-117,-4,114,-53,-61,43,-117,-136,-112,-87,-68
-112,-117,-4,114,-53,-61,43,-117,-136,-112,-87,-73
-112,-117,-4,114,-53,-61,43,-117,-136,-112,-87,-73
-112,-117,-4,114,-53,-61,43,-117,-136,-112,-87,-73
-112,-117,-4,114,-53,-61,43,-117,-136,-112,-87,-73
-112,-117,-4,114,-53,-61,43,-117,-136,-107,-87,-73
-112,-117,-4,114,-53,-61,43,-112,-136,-107,-87,-73
-102,-117,-14,109,-43,-65,43,-122,-136,-97,-78,-73
-102,-117,-14,109,-43,-65,43,-122,-136,-97,-78,-73
-102,-117,-14,109,-43,-65,43,-122,-136,-97,-78,-73
-107,-117,-9,112,-48,-63,43,-122,-136,-97,-78,-73
-107,-117,-9,112,-48,-63,43,-112,-136,-97,-78,-73
-107,-122,-14,114,-46,-68,43,-112,-136,-97,-78,-73
-107,-122,-14,114,-46,-68,43,-112,-136,-97,-78,-73
-102,-122,-19,112,-41,-70,43,-112,-136,-97,-78,-73
-102,-117,-14,109,-43,-65,43,-117,-126,-97,-78,-63
-102,-117,-14,109,-43,-65,43,-117,-126,-97,-78,-63
-102,-117,-14,109,-43,-65,43,-117,-126,-97,-78,-63
-102,-117,-14,109,-43,-65,43,-117,-126,-97,-78,-63
-112,-117,-4,114,-53,-61,39,-107,-136,-97,-78,-63
-112,-117,-4,114,-53,-61,39,-107,-131,-97,-78,-63
-112,-117,-4,114,-53,-61,43,-107,-131,-97,-78,-63
-112,-117,-4,114,-53,-61,43,-107,-131,-97,-78,-63
-102,-117,-14,109,-43,-65,43,-107,-131,-107,-78,-63
-102,-117,-14,109,-43,-65,43,-107,-131,-107,-78,-63
-97,-117,-19,107,-39,-68,43,-107,-131,-107,-78,-63
-97,-112,-14,104,-41,-63,43,-107,-131,-107,-78,-63
-102,-102,0,102,-51,-51,43,-107,-131,-107,-73,-53
-102,-102,0,102,-51,-51,43,-107,-131,-102,-73,-53
-97,-102,-4,100,-46,-53,43,-102,-131,-102,-73,-53
-97,-102,-4,100,-46,-53,43,-102,-131,-102,-73,-48
-97,-102,-4,100,-46,-53,43,-117,-126,-102,-73,-58
-97,-102,-4,100,-46,-53,39,-117,-126,-102,-73,-58
-97,-102,-4,100,-46,-53,39,-117,-126,-102,-73,-58
-97,-102,-4,100,-46,-53,43,-117,-131,-102,-73,-58
-107,-102,4,104,-56,-48,43,-107,-131,-102,-82,-58
-122,-112,9,117,-65,-51,43,-117,-131,-102,-92,-58
-117,-126,-9,122,-53,-68,48,-136,-156,-131,-97,-68
-122,-131,-9,126,-56,-70,48,-126,-175,-131,-102,-68
-117,-136,-19,126,-48,-78,48,-126,-175,-131,-102,-68
-126,-126,0,126,-63,-63,39,-126,-156,-117,-82,-68
-126,-126,0,126,-63,-63,48,-122,-146,-97,-78,-68
-126,-122,4,124,-65,-58,68,-107,-117,-73,-68,-63
-107,-92,14,100,-61,-39,58,-102,-87,-43,-34,-39
-78,-29,48,53,-63,9,29,-107,-34,19,14,-9
-58,58,117,0,-87,87,-4,-117,34,82,68,39
-29,175,204,-73,-117,190,-53,-126,117,185,156,107
53,346,292,-200,-119,319,-122,-131,248,336,278,209
136,546,409,-341,-136,478,-219,-131,424,522,434,331
239,780,541,-509,-151,661,-326,-117,624,732,595,463
370,1010,639,-690,-134,824,-444,-78,824,932,756,575
507,1210,702,-858,-97,956,-546,-34,985,1117,888,678
624,1371,746,-997,-61,1058,-673,4,1117,1254,990,751
741,1522,780,-1132,-19,1151,-775,34,1249,1395,1107,834
883,1722,839,-1302,21,1281,-912,29,1395,1571,1239,932
985,1912,927,-1449,29,1420,-1034,-29,1522,1727,1376,1054
1054,1991,936,-1522,58,1464,-1117,-63,1546,1800,1439,1107
1093,1995,902,-1544,95,1449,-1166,-87,1498,1766,1410,1098
1117,1908,790,-1512,163,1349,-1190,-73,1390,1664,1337,1039
1083,1732,649,-1407,217,1190,-1151,-63,1239,1488,1205,936
995,1473,478,-1234,258,976,-1058,-63,995,1220,990,785
897,1176,278,-1037,309,727,-932,-43,751,927,766,614
775,897,122,-836,326,509,-790,-19,556,673,570,473
624,673,48,-649,287,361,-629,-19,429,488,419,346
429,448,19,-439,204,234,-463,-19,312,351,278,244
302,278,-24,-290,163,126,-331,-29,170,200,156,146
195,161,-34,-178,114,63,-253,-53,63,87,92,87
92,82,-9,-87,51,36,-185,-112,-43,9,48,53
19,19,0,-19,9,9,-136,-122,-131,-73,0,29
-19,-29,-9,24,-4,-19,-97,-141,-156,-107,-39,-4
-43,-34,9,39,-26,-12,-78,-151,-146,-122,-39,-14
-63,-34,29,48,-46,-2,-63,-146,-131,-102,-39,0
-68,-24,43,46,-56,9,-58,-156,-117,-92,-39,-9
-78,-43,34,61,-56,-4,-34,-122,-92,-73,-29,-4
-87,-48,39,68,-63,-4,-19,-102,-82,-63,-39,-14
-97,-53,43,75,-70,-4,9,-87,-68,-58,-29,-14
-87,-53,34,70,-61,-9,4,-58,-68,-58,-39,-19
-68,-63,4,65,-36,-29,14,-53,-68,-82,-48,-34
-68,-68,0,68,-34,-34,34,-43,-68,-73,-43,-48
-68,-73,-4,70,-31,-39,34,-39,-78,-82,-53,-53
-68,-82,-14,75,-26,-48,24,-34,-78,-82,-53,-53
-68,-87,-19,78,-24,-53,34,-34,-73,-82,-53,-53
-73,-92,-19,82,-26,-56,43,-34,-63,-73,-53,-53
-78,-92,-14,85,-31,-53,43,-34,-63,-68,-53,-48
-73,-87,-14,80,-29,-51,48,-24,-63,-78,-58,-48
-73,-87,-14,80,-29,-51,53,-19,-63,-82,-58,-53
-63,-87,-24,75,-19,-56,53,-19,-68,-92,-68,-53
-63,-97,-34,80,-14,-65,53,-14,-68,-97,-73,-58
-63,-102,-39,82,-12,-70,53,-24,-73,-87,-63,-63
-63,-102,-39,82,-12,-70,58,-24,-73,-87,-63,-63
-68,-102,-34,85,-17,-68,58,-24,-68,-78,-63,-58
-73,-102,-29,87,-21,-65,58,-19,-68,-78,-58,-53
-82,-97,-14,90,-34,-56,63,-9,-63,-78,-68,-63
-78,-97,-19,87,-29,-58,63,-4,-63,-78,-68,-58
-73,-97,-24,85,-24,-61,63,-4,-68,-82,-68,-58
-73,-107,-34,90,-19,-70,63,-4,-68,-82,-73,-63
-68,-102,-34,85,-17,-68,53,-9,-68,-82,-73,-68
-68,-102,-34,85,-17,-68,53,-9,-68,-82,-73,-68
-68,-102,-34,85,-17,-68,53,-9,-63,-78,-73,-68
-68,-97,-29,82,-19,-63,53,-9,-63,-73,-68,-63
-68,-92,-24,80,-21,-58,63,-19,-73,-73,-68,-63
-68,-92,-24,80,-21,-58,63,-19,-73,-78,-68,-63
-68,-92,-24,80,-21,-58,63,-19,-73,-82,-68,-63
-68,-92,-24,80,-21,-58,63,-19,-73,-82,-73,-63
-58,-102,-43,80,-7,-73,63,-19,-73,-82,-73,-68
-58,-102,-43,80,-7,-73,63,-19,-73,-82,-73,-68
-58,-102,-43,80,-7,-73,63,-19,-73,-82,-73,-68
-58,-102,-43,80,-7,-73,63,-19,-73,-78,-68,-68
-68,-97,-29,82,-19,-63,68,-9,-63,-78,-58,-58
-73,-97,-24,85,-24,-61,68,-9,-58,-73,-58,-58
-73,-97,-24,85,-24,-61,68,-4,-58,-73,-58,-63
-63,-97,-34,80,-14,-65,63,-4,-63,-78,-63,-68
-63,-112,-48,87,-7,-80,63,4,-73,-82,-68,-73
-58,-112,-53,85,-2,-82,63,4,-73,-82,-68,-73
-58,-112,-53,85,-2,-82,63,4,-73,-82,-68,-73
-63,-117,-53,90,-4,-85,63,4,-68,-78,-63,-73
-63,-107,-43,85,-9,-75,63,4,-58,-73,-68,-68
-68,-107,-39,87,-14,-73,63,4,-58,-73,-68,-68
-68,-107,-39,87,-14,-73,68,19,-58,-73,-68,-68
-58,-107,-48,82,-4,-78,68,19,-58,-78,-73,-78
-53,-107,-53,80,0,-80,68,19,-68,-87,-82,-87
-53,-112,-58,82,2,-85,68,19,-68,-87,-82,-82
-53,-117,-63,85,4,-90,68,19,-68,-87,-78,-82
-58,-117,-58,87,0,-87,68,24,-58,-87,-73,-82
-58,-107,-48,82,-4,-78,68,24,-58,-82,-73,-73
-58,-107,-48,82,-4,-78,68,24,-58,-82,-73,-73
-63,-107,-43,85,-9,-75,68,24,-58,-82,-73,-73
-63,-107,-43,85,-9,-75,68,29,-58,-82,-73,-73
-53,-117,-63,85,4,-90,68,29,-58,-78,-78,-73
-48,-117,-68,82,9,-92,68,34,-58,-78,-78,-82
-48,-122,-73,85,12,-97,68,39,-63,-78,-78,-82
-48,-122,-73,85,12,-97,68,39,-63,-78,-78,-82
-48,-117,-68,82,9,-92,68,39,-53,-73,-68,-73
-53,-112,-58,82,2,-85,68,39,-53,-73,-68,-73
-53,-102,-48,78,-2,-75,68,39,-53,-73,-68,-68
-53,-97,-43,75,-4,-70,68,48,-53,-73,-68,-68
-39,-107,-68,73,14,-87,68,63,-53,-68,-82,-87
-39,-107,-68,73,14,-87,68,63,-53,-68,-82,-87
-34,-107,-73,70,19,-90,63,63,-53,-68,-82,-87
-34,-107,-73,70,19,-90,63,68,-53,-68,-82,-87
-43,-107,-63,75,9,-85,63,58,-43,-68,-68,-78
-43,-102,-58,73,7,-80,63,63,-43,-68,-68,-78
-43,-102,-58,73,7,-80,63,63,-43,-68,-68,-78
-43,-102,-58,73,7,-80,63,68,-43,-68,-68,-78
-39,-102,-63,70,12,-82,63,73,-43,-73,-78,-87
-34,-102,-68,68,17,-85,63,78,-43,-73,-82,-97
-29,-102,-73,65,21,-87,63,78,-43,-73,-82,-97
-29,-102,-73,65,21,-87,58,82,-43,-68,-82,-97
-29,-102,-73,65,21,-87,58,87,-39,-78,-73,-87
-29,-102,-73,65,21,-87,58,87,-34,-68,-68,-82
-29,-102,-73,65,21,-87,58,87,-34,-68,-68,-82
-29,-97,-68,63,19,-82,58,92,-34,-68,-68,-82
-19,-107,-87,63,34,-97,58,97,-34,-68,-78,-82
-9,-107,-97,58,43,-102,58,102,-29,-68,-82,-82
-4,-107,-102,56,48,-104,58,107,-29,-68,-82,-87
0,-107,-107,53,53,-107,58,112,-29,-68,-82,-87
-9,-97,-87,53,39,-92,58,112,-14,-63,-68,-87
-9,-97,-87,53,39,-92,58,112,0,-53,-63,-82
-9,-87,-78,48,34,-82,58,122,4,-48,-58,-78
-9,-87,-78,48,34,-82,58,126,9,-34,-58,-78
9,-97,-107,43,58,-102,53,141,0,-43,-68,-78
14,-97,-112,41,63,-104,53,146,0,-43,-68,-78
19,-97,-117,39,68,-107,53,151,0,-43,-68,-78
24,-97,-122,36,73,-109,53,156,0,-43,-73,-78
14,-87,-102,36,58,-95,53,151,9,-43,-63,-78
14,-87,-102,36,58,-95,53,156,14,-34,-63,-78
14,-78,-92,31,53,-85,53,161,19,-29,-53,-68
24,-73,-97,24,61,-85,48,161,24,-24,-48,-63
29,-68,-97,19,63,-82,39,175,29,-24,-58,-73
34,-68,-102,17,68,-85,34,175,29,-24,-58,-73
39,-68,-107,14,73,-87,34,190,29,-24,-63,-73
43,-68,-112,12,78,-90,29,200,39,-19,-63,-73
48,-68,-117,9,82,-92,39,209,43,-14,-53,-63
48,-68,-117,9,82,-92,34,214,48,-9,-43,-58
53,-53,-107,0,80,-80,34,219,58,4,-43,-58
58,-48,-107,-4,82,-78,34,224,58,4,-43,-58
63,-53,-117,-4,90,-85,34,234,78,19,-34,-48
73,-48,-122,-12,97,-85,24,248,78,19,-34,-48
78,-48,-126,-14,102,-87,24,248,78,19,-34,-48
82,-48,-131,-17,107,-90,24,263,87,29,-34,-48
92,-29,-122,-31,107,-75,19,258,87,19,-34,-48
92,-24,-117,-34,104,-70,19,263,92,29,-24,-43
97,-19,-117,-39,107,-68,14,273,107,43,-19,-39
102,-4,-107,-48,104,-56,9,278,117,43,-14,-34
112,4,-107,-58,109,-51,9,287,117,48,-9,-29
117,19,-97,-68,107,-39,4,297,126,58,-4,-29
131,29,-102,-80,117,-36,0,307,131,63,-4,-29
141,34,-107,-87,124,-36,-4,317,136,68,-4,-34
151,34,-117,-92,134,-41,-9,326,141,82,14,-24
151,39,-112,-95,131,-36,-9,326,151,87,19,-19
156,43,-112,-100,134,-34,-9,341,165,102,24,-19
161,58,-102,-109,131,-21,-19,351,180,107,29,-4
165,68,-97,-117,131,-14,-24,351,185,117,34,0
170,78,-92,-124,131,-7,-29,366,204,126,39,0
190,87,-102,-139,146,-7,-34,375,209,126,39,0
200,92,-107,-146,153,-7,-39,385,214,131,43,0
209,97,-112,-153,161,-7,-39,385,214,126,43,0
219,102,-117,-161,168,-7,-43,395,229,131,43,4
219,107,-112,-163,165,-2,-43,405,234,146,53,14
224,117,-107,-170,165,4,-43,414,248,156,63,19
229,117,-112,-173,170,2,-53,414,268,161,63,14
234,126,-107,-180,170,9,-58,419,278,170,68,19
244,136,-107,-190,175,14,-63,434,278,175,73,24
253,141,-112,-197,183,14,-63,439,287,180,73,24
253,146,-107,-200,180,19,-63,444,283,185,82,34
263,151,-112,-207,187,19,-68,448,287,190,82,34
273,161,-112,-217,192,24,-68,453,292,195,87,39
273,165,-107,-219,190,29,-78,453,307,209,97,43
263,175,-87,-219,175,43,-78,458,326,219,102,48
263,175,-87,-219,175,43,-73,463,326,229,107,53
273,180,-92,-226,183,43,-73,463,336,229,107,53
278,190,-87,-234,183,51,-82,463,341,229,107,53
283,190,-92,-236,187,48,-73,463,346,229,107,53
287,195,-92,-241,190,51,-82,463,351,234,117,53
287,204,-82,-246,185,61,-82,463,356,239,117,58
287,209,-78,-248,183,65,-82,463,361,244,126,58
287,219,-68,-253,178,75,-97,444,356,258,131,58
283,224,-58,-253,170,82,-97,434,361,263,136,68
283,229,-53,-256,168,87,-97,434,361,263,136,68
287,229,-58,-258,173,85,-102,429,356,263,136,68
287,239,-48,-263,168,95,-102,419,366,278,136,78
283,239,-43,-261,163,97,-102,405,366,278,141,78
273,239,-34,-256,153,102,-102,395,370,278,151,78
258,239,-19,-248,139,109,-97,375,370,287,156,87
244,248,4,-246,119,126,-97,361,370,278,161,92
244,248,4,-246,119,126,-97,341,361,278,165,97
229,248,19,-239,104,134,-97,322,361,278,165,102
229,253,24,-241,102,139,-97,307,356,273,165,102
219,244,24,-231,97,134,-87,292,326,258,161,102
214,244,29,-229,92,136,-87,268,312,248,156,97
200,234,34,-217,82,134,-82,248,307,248,156,97
190,229,39,-209,75,134,-82,229,292,244,156,97
180,234,53,-207,63,143,-78,214,283,224,146,97
175,229,53,-202,61,141,-78,190,273,219,146,102
165,229,63,-197,51,146,-78,165,253,214,146,102
146,224,78,-185,34,151,-73,151,239,200,136,102
141,209,68,-175,36,139,-68,131,214,180,131,82
131,185,53,-158,39,119,-58,122,204,170,126,82
122,180,58,-151,31,119,-58,102,185,165,122,78
112,170,58,-141,26,114,-53,87,170,156,112,78
102,161,58,-131,21,109,-53,82,170,146,112,78
87,156,68,-122,9,112,-48,63,151,131,107,78
68,146,78,-107,-4,112,-43,53,136,122,102,73
63,136,73,-100,-4,104,-39,43,126,112,97,68
58,117,58,-87,0,87,-34,34,102,92,82,58
48,107,58,-78,-4,82,-34,29,87,82,73,53
39,92,53,-65,-7,73,-29,24,73,73,63,48
34,82,48,-58,-7,65,-29,9,58,63,58,43
24,73,48,-48,-12,61,-24,0,43,53,58,53
14,63,48,-39,-17,56,-19,-9,39,53,53,48
9,53,43,-31,-17,48,-14,-19,29,43,48,48
0,48,48,-24,-24,48,-14,-29,19,34,48,43
-9,39,48,-14,-29,43,-14,-39,-9,19,34,29
-14,29,43,-7,-29,36,-14,-39,-19,4,14,19
-29,19,48,4,-39,34,0,-39,-24,-9,9,19
-29,14,43,7,-36,29,4,-39,-34,-24,-4,14
-43,4,48,19,-46,26,4,-53,-43,-19,0,14
-48,-4,43,26,-46,19,9,-58,-43,-24,0,14
-48,-4,43,26,-46,19,9,-63,-53,-39,-9,14
-53,-9,43,31,-48,17,14,-68,-58,-39,-9,9
-53,-14,39,34,-46,12,14,-78,-53,-34,-14,4
-53,-19,34,36,-43,7,14,-78,-58,-39,-19,0
-53,-34,19,43,-36,-7,19,-78,-63,-43,-24,0
-53,-43,9,48,-31,-17,19,-82,-78,-53,-34,-4
-53,-39,14,46,-34,-12,19,-87,-78,-53,-34,0
-68,-43,24,56,-46,-9,24,-87,-78,-53,-34,0
-68,-43,24,56,-46,-9,24,-97,-78,-53,-34,0
-73,-48,24,61,-48,-12,24,-97,-78,-53,-39,0
-73,-48,24,61,-48,-12,29,-97,-87,-68,-39,-9
-73,-53,19,63,-46,-17,29,-97,-92,-73,-48,-14
-73,-58,14,65,-43,-21,29,-102,-92,-78,-53,-19
-78,-63,14,70,-46,-24,34,-102,-97,-82,-53,-24
-78,-68,9,73,-43,-29,24,-92,-102,-73,-53,-24
-87,-68,19,78,-53,-24,24,-92,-102,-73,-53,-24
-92,-68,24,80,-58,-21,24,-92,-97,-73,-53,-24
-92,-68,24,80,-58,-21,29,-92,-97,-73,-53,-19
-87,-78,9,82,-48,-34,39,-92,-97,-78,-58,-19
-87,-82,4,85,-46,-39,39,-92,-97,-78,-58,-24
-87,-82,4,85,-46,-39,39,-92,-102,-82,-63,-24
-87,-87,0,87,-43,-43,39,-92,-102,-82,-63,-24
-87,-92,-4,90,-41,-48,34,-82,-92,-82,-58,-29
-92,-92,0,92,-46,-46,34,-82,-92,-82,-58,-29
-92,-92,0,92,-46,-46,34,-82,-92,-78,-53,-29
-92,-92,0,92,-46,-46,39,-78,-92,-78,-53,-29
-92,-92,0,92,-46,-46,48,-78,-87,-78,-53,-19
-92,-92,0,92,-46,-46,48,-78,-87,-78,-53,-19
-92,-92,0,92,-46,-46,48,-78,-87,-82,-58,-19
-92,-97,-4,95,-43,-51,48,-78,-92,-82,-58,-19
-92,-87,4,90,-48,-41,48,-78,-92,-82,-58,-19
-92,-87,4,90,-48,-41,48,-73,-92,-82,-58,-19
-97,-92,4,95,-51,-43,53,-73,-92,-82,-58,-19
-97,-92,4,95,-51,-43,53,-73,-82,-82,-58,-19
-97,-92,4,95,-51,-43,53,-73,-82,-82,-48,-19
-97,-92,4,95,-51,-43,53,-73,-82,-82,-48,-19
-92,-87,4,90,-48,-41,53,-73,-87,-82,-48,-19
-92,-87,4,90,-48,-41,53,-73,-87,-82,-48,-24
-82,-87,-4,85,-39,-46,53,-73,-87,-82,-58,-24
-82,-92,-9,87,-36,-51,53,-73,-87,-78,-58,-24
-82,-92,-9,87,-36,-51,58,-68,-87,-78,-58,-24
-87,-92,-4,90,-41,-48,58,-68,-87,-78,-58,-24
-87,-102,-14,95,-36,-58,48,-68,-92,-78,-58,-34
-87,-97,-9,92,-39,-53,48,-68,-92,-78,-58,-34
-82,-97,-14,90,-34,-56,43,-68,-92,-78,-58,-34
-82,-97,-14,90,-34,-56,43,-68,-97,-82,-58,-34
-82,-92,-9,87,-36,-51,48,-68,-87,-82,-58,-34
-82,-92,-9,87,-36,-51,48,-68,-87,-82,-58,-39
-82,-92,-9,87,-36,-51,48,-68,-87,-82,-58,-39
-82,-92,-9,87,-36,-51,48,-68,-82,-73,-58,-39
-92,-92,0,92,-46,-46,58,-68,-82,-73,-53,-39
-92,-87,4,90,-48,-41,58,-68,-82,-73,-53,-39
-92,-87,4,90,-48,-41,53,-68,-82,-73,-58,-39
-87,-87,0,87,-43,-43,53,-68,-82,-82,-58,-39
-78,-87,-9,82,-34,-48,48,-78,-87,-82,-53,-39
-78,-82,-4,80,-36,-43,48,-78,-87,-82,-53,-39
-78,-82,-4,80,-36,-43,48,-78,-87,-82,-53,-39
-82,-82,0,82,-41,-41,48,-78,-87,-82,-53,-43
-82,-87,-4,85,-39,-46,48,-78,-87,-82,-53,-43
-82,-87,-4,85,-39,-46,43,-78,-87,-82,-53,-39
-82,-87,-4,85,-39,-46,43,-82,-87,-82,-53,-39
-82,-87,-4,85,-39,-46,43,-82,-87,-87,-53,-39
-82,-97,-14,90,-34,-56,43,-82,-87,-87,-63,-43
-78,-97,-19,87,-29,-58,43,-82,-92,-87,-63,-43
-78,-97,-19,87,-29,-58,39,-82,-92,-87,-63,-43
-78,-97,-19,87,-29,-58,39,-82,-92,-87,-63,-43
-87,-92,-4,90,-41,-48,39,-82,-92,-78,-53,-43
-92,-92,0,92,-46,-46,39,-82,-92,-78,-53,-39
-92,-92,0,92,-46,-46,39,-82,-92,-78,-53,-39
-92,-87,4,90,-48,-41,39,-87,-92,-78,-53,-39
-78,-87,-9,82,-34,-48,39,-87,-107,-82,-63,-48
-78,-87,-9,82,-34,-48,39,-92,-107,-82,-63,-48
-78,-92,-14,85,-31,-53,39,-92,-107,-82,-63,-48
-78,-92,-14,85,-31,-53,39,-92,-107,-82,-63,-48
-87,-82,4,85,-46,-39,39,-92,-107,-87,-63,-48
-87,-82,4,85,-46,-39,39,-92,-107,-87,-63,-43
-92,-82,9,87,-51,-36,39,-92,-107,-87,-63,-43
-92,-82,9,87,-51,-36,34,-92,-107,-87,-63,-43
-92,-82,9,87,-51,-36,24,-97,-102,-92,-53,-43
-87,-82,4,85,-46,-39,24,-97,-102,-92,-53,-43
-87,-82,4,85,-46,-39,24,-97,-107,-97,-53,-43
-87,-82,4,85,-46,-39,29,-97,-107,-97,-53,-43
-92,-82,9,87,-51,-36,29,-97,-107,-87,-53,-34
-92,-82,9,87,-51,-36,29,-102,-107,-87,-53,-34
-92,-82,9,87,-51,-36,29,-102,-107,-87,-53,-34
-92,-82,9,87,-51,-36,29,-102,-107,-87,-53,-34
-92,-82,9,87,-51,-36,34,-112,-117,-97,-63,-43
-92,-82,9,87,-51,-36,34,-112,-122,-97,-63,-39
-92,-82,9,87,-51,-36,29,-112,-122,-97,-63,-39
-92,-82,9,87,-51,-36,29,-112,-122,-97,-63,-39
-97,-82,14,90,-56,-34,34,-107,-122,-97,-68,-39
-97,-82,14,90,-56,-34,34,-107,-122,-97,-68,-39
-97,-82,14,90,-56,-34,34,-107,-122,-97,-63,-39
-97,-82,14,90,-56,-34,29,-112,-122,-97,-63,-39
-87,-78,9,82,-48,-34,29,-112,-122,-97,-63,-39
-87,-78,9,82,-48,-34,29,-112,-126,-102,-63,-39
-82,-78,4,80,-43,-36,29,-112,-126,-102,-63,-39
-82,-82,0,82,-41,-41,29,-112,-126,-102,-68,-39
-82,-82,0,82,-41,-41,29,-112,-126,-102,-58,-39
-87,-82,4,85,-46,-39,29,-112,-126,-102,-58,-39
-87,-82,4,85,-46,-39,29,-112,-126,-102,-58,-39
-87,-82,4,85,-46,-39,29,-112,-126,-102,-58,-39
-87,-73,14,80,-51,-29,29,-117,-126,-102,-68,-39
-87,-73,14,80,-51,-29,29,-117,-126,-102,-68,-39
-87,-73,14,80,-51,-29,29,-112,-126,-102,-68,-39
-87,-73,14,80,-51,-29,29,-112,-126,-107,-68,-39
-97,-82,14,90,-56,-34,29,-112,-126,-107,-58,-29
-97,-82,14,90,-56,-34,29,-112,-126,-107,-58,-29
-97,-82,14,90,-56,-34,29,-112,-126,-102,-58,-29
-97,-82,14,90,-56,-34,29,-117,-126,-102,-53,-29
-102,-92,9,97,-56,-41,29,-117,-117,-92,-63,-34
-102,-92,9,97,-56,-41,29,-117,-122,-97,-68,-34
-102,-92,9,97,-56,-41,29,-117,-122,-97,-68,-34
-102,-92,9,97,-56,-41,29,-117,-122,-97,-73,-39
-92,-82,9,87,-51,-36,29,-117,-122,-97,-63,-39
-92,-87,4,90,-48,-41,29,-117,-122,-97,-63,-39
-92,-87,4,90,-48,-41,29,-117,-122,-97,-63,-39
-87,-87,0,87,-43,-43,29,-117,-122,-97,-58,-39
-87,-82,4,85,-46,-39,29,-117,-122,-97,-68,-39
-87,-82,4,85,-46,-39,29,-117,-122,-97,-68,-39
-87,-82,4,85,-46,-39,29,-117,-122,-97,-68,-39
-87,-82,4,85,-46,-39,29,-117,-122,-97,-68,-39
-87,-73,14,80,-51,-29,29,-117,-122,-97,-58,-39
-92,-78,14,85,-53,-31,29,-117,-122,-97,-58,-39
-92,-78,14,85,-53,-31,29,-112,-122,-92,-58,-39
-92,-78,14,85,-53,-31,29,-112,-122,-92,-58,-39
-102,-87,14,95,-58,-36,29,-122,-122,-92,-58,-39
-102,-87,14,95,-58,-36,29,-122,-122,-92,-58,-39
-102,-87,14,95,-58,-36,29,-122,-122,-97,-58,-39
-102,-87,14,95,-58,-36,29,-126,-122,-97,-63,-39
-97,-78,19,87,-58,-29,29,-117,-126,-97,-63,-43
-97,-78,19,87,-58,-29,29,-117,-126,-97,-58,-43
-97,-82,14,90,-56,-34,29,-117,-122,-97,-58,-43
-97,-82,14,90,-56,-34,34,-117,-122,-97,-58,-43
-102,-87,14,95,-58,-36,34,-117,-122,-97,-58,-43
-102,-87,14,95,-58,-36,34,-112,-122,-97,-53,-43
-102,-87,14,95,-58,-36,34,-112,-122,-97,-53,-43
-102,-87,14,95,-58,-36,34,-112,-122,-97,-58,-43
-92,-87,4,90,-48,-41,43,-112,-122,-97,-68,-48
-92,-87,4,90,-48,-41,39,-117,-122,-97,-68,-48
-92,-87,4,90,-48,-41,39,-117,-122,-97,-68,-48
-92,-92,0,92,-46,-46,39,-117,-122,-97,-68,-48
-92,-92,0,92,-46,-46,29,-126,-122,-107,-68,-48
-92,-92,0,92,-46,-46,29,-126,-122,-107,-68,-48
-92,-87,4,90,-48,-41,29,-126,-122,-107,-68,-48
-92,-87,4,90,-48,-41,29,-126,-126,-107,-68,-48
-87,-78,9,82,-48,-34,29,-126,-126,-107,-68,-48
-87,-78,9,82,-48,-34,29,-126,-126,-107,-68,-48
-87,-82,4,85,-46,-39,29,-126,-122,-107,-68,-48
-92,-82,9,87,-51,-36,29,-126,-122,-107,-68,-48
-92,-82,9,87,-51,-36,29,-122,-131,-107,-68,-58
-92,-78,14,85,-53,-31,29,-122,-131,-107,-68,-58
-92,-78,14,85,-53,-31,29,-122,-131,-107,-68,-58
-92,-78,14,85,-53,-31,29,-122,-131,-107,-68,-58
-97,-73,24,85,-61,-24,29,-112,-131,-97,-68,-58
-97,-82,14,90,-56,-34,29,-122,-122,-107,-68,-58
-97,-87,9,92,-53,-39,29,-122,-122,-97,-58,-48
-97,-87,9,92,-53,-39,39,-122,-122,-97,-58,-48
-87,-78,9,82,-48,-34,39,-126,-126,-97,-58,-48
-97,-87,9,92,-53,-39,39,-126,-126,-107,-68,-48
