I,II,III,aVR,aVL,aVF,V1,V2,V3,V4,V5,V6,
-48,-29,19,39,-34,-4,19,-48,-29,-48,-58,-58
-48,-29,19,39,-34,-4,19,-48,-29,-48,-58,-58
-48,-29,19,39,-34,-4,19,-48,-29,-48,-58,-58
-48,-29,19,39,-34,-4,19,-48,-29,-48,-58,-58
-58,-29,29,43,-43,0,19,-48,-29,-48,-58,-58
-58,-29,29,43,-43,0,19,-48,-29,-48,-58,-58
-58,-29,29,43,-43,0,19,-48,-29,-48,-58,-58
-58,-29,29,43,-43,0,19,-48,-29,-48,-58,-58
-58,-39,19,48,-39,-9,19,-48,-29,-48,-68,-68
-58,-39,19,48,-39,-9,19,-48,-29,-48,-68,-68
-58,-39,19,48,-39,-9,19,-48,-29,-48,-68,-68
-58,-39,19,48,-39,-9,19,-48,-29,-48,-68,-68
-48,-39,9,43,-29,-14,29,-39,-39,-48,-68,-68
-48,-39,9,43,-29,-14,29,-39,-39,-48,-68,-68
-48,-39,9,43,-29,-14,29,-39,-39,-48,-68,-68
-48,-39,9,43,-29,-14,29,-39,-39,-48,-68,-68
-58,-48,9,53,-34,-19,29,-39,-29,-58,-68,-68
-58,-48,9,53,-34,-19,29,-39,-29,-58,-68,-68
-58,-48,9,53,-34,-19,29,-39,-29,-58,-68,-68
-58,-48,9,53,-34,-19,29,-39,-29,-58,-68,-68
-58,-48,9,53,-34,-19,29,-29,-39,-58,-78,-68
-58,-48,9,53,-34,-19,29,-29,-39,-58,-78,-68
-58,-48,9,53,-34,-19,29,-29,-39,-58,-78,-68
-58,-48,9,53,-34,-19,29,-29,-39,-58,-78,-68
-58,-48,9,53,-34,-19,29,-39,-29,-58,-68,-68
-58,-48,9,53,-34,-19,29,-39,-29,-58,-68,-68
-58,-48,9,53,-34,-19,29,-39,-29,-58,-68,-68
-58,-48,9,53,-34,-19,29,-39,-29,-58,-68,-68
-58,-48,9,53,-34,-19,34,-29,-29,-48,-78,-78
-58,-48,9,53,-34,-19,39,-29,-29,-48,-78,-78
-58,-48,9,53,-34,-19,43,-29,-29,-48,-78,-78
-58,-48,9,53,-34,-19,48,-29,-29,-48,-78,-78
-58,-48,9,53,-34,-19,39,-29,-29,-58,-78,-68
-58,-48,9,53,-34,-19,39,-29,-29,-58,-78,-68
-58,-48,9,53,-34,-19,39,-29,-29,-58,-78,-68
-58,-48,9,53,-34,-19,39,-29,-29,-58,-78,-68
-58,-48,9,53,-34,-19,39,-29,-29,-58,-78,-78
-58,-48,9,53,-34,-19,39,-29,-29,-58,-78,-78
-58,-48,9,53,-34,-19,39,-29,-29,-58,-78,-78
-58,-48,9,53,-34,-19,39,-29,-29,-58,-78,-78
-58,-48,9,53,-34,-19,39,-29,-29,-58,-78,-78
-58,-48,9,53,-34,-19,39,-29,-29,-58,-78,-78
-58,-48,9,53,-34,-19,39,-29,-29,-58,-78,-78
-58,-48,9,53,-34,-19,39,-29,-29,-58,-78,-78
-58,-39,19,48,-39,-9,39,-29,-19,-68,-78,-78
-58,-39,19,48,-39,-9,39,-29,-19,-68,-78,-78
-58,-39,19,48,-39,-9,39,-29,-19,-68,-78,-78
-58,-39,19,48,-39,-9,39,-29,-19,-68,-78,-78
-58,-39,19,48,-39,-9,29,-29,-29,-58,-78,-78
-58,-39,19,48,-39,-9,29,-29,-29,-58,-78,-78
-58,-39,19,48,-39,-9,29,-29,-29,-58,-78,-78
-58,-39,19,48,-39,-9,29,-29,-29,-58,-78,-78
-58,-48,9,53,-34,-19,39,-19,-29,-58,-68,-68
-58,-48,9,53,-34,-19,39,-19,-29,-58,-68,-68
-58,-48,9,53,-34,-19,39,-19,-29,-58,-68,-68
-58,-48,9,53,-34,-19,39,-19,-29,-58,-68,-68
-48,-48,0,48,-24,-24,39,-29,-19,-58,-68,-78
-48,-48,0,48,-24,-24,39,-29,-19,-58,-68,-78
-48,-48,0,48,-24,-24,39,-29,-19,-58,-68,-78
-48,-48,0,48,-24,-24,39,-29,-19,-58,-68,-78
-48,-48,0,48,-24,-24,39,-29,-29,-58,-78,-78
-48,-48,0,48,-24,-24,39,-29,-29,-58,-78,-78
-48,-48,0,48,-24,-24,39,-29,-29,-58,-78,-78
-48,-48,0,48,-24,-24,39,-29,-29,-58,-78,-78
-48,-58,-9,53,-19,-34,39,-29,-29,-58,-78,-87
-48,-58,-9,53,-19,-34,39,-29,-29,-58,-78,-87
-48,-58,-9,53,-19,-34,39,-29,-29,-58,-78,-87
-48,-58,-9,53,-19,-34,39,-29,-29,-58,-78,-87
-48,-48,0,48,-24,-24,39,-39,-29,-68,-78,-78
-48,-48,0,48,-24,-24,39,-39,-29,-68,-78,-78
-48,-48,0,48,-24,-24,39,-39,-29,-68,-78,-78
-48,-48,0,48,-24,-24,39,-39,-29,-68,-78,-78
-48,-58,-9,53,-19,-34,29,-39,-39,-68,-78,-78
-48,-58,-9,53,-19,-34,29,-39,-39,-68,-78,-78
-48,-58,-9,53,-19,-34,29,-39,-39,-68,-78,-78
-48,-58,-9,53,-19,-34,29,-39,-39,-68,-78,-78
-58,-48,9,53,-34,-19,29,-39,-39,-68,-78,-87
-58,-48,9,53,-34,-19,29,-39,-39,-68,-78,-87
-58,-48,9,53,-34,-19,29,-39,-39,-68,-78,-87
-58,-48,9,53,-34,-19,29,-39,-39,-68,-78,-87
-58,-58,0,58,-29,-29,39,-39,-29,-58,-78,-78
-58,-58,0,58,-29,-29,39,-39,-29,-58,-78,-78
-58,-58,0,58,-29,-29,39,-39,-29,-58,-78,-78
-58,-58,0,58,-29,-29,39,-39,-29,-58,-78,-78
-48,-58,-9,53,-19,-34,29,-39,-39,-68,-87,-78
-48,-58,-9,53,-19,-34,29,-39,-39,-68,-87,-78
-48,-58,-9,53,-19,-34,29,-39,-39,-68,-87,-78
-48,-58,-9,53,-19,-34,29,-39,-39,-68,-87,-78
-48,-58,-9,53,-19,-34,29,-39,-39,-68,-87,-87
-48,-58,-9,53,-19,-34,29,-39,-39,-68,-87,-87
-48,-58,-9,53,-19,-34,29,-39,-39,-68,-87,-87
-48,-58,-9,53,-19,-34,29,-39,-39,-68,-87,-87
-58,-58,0,58,-29,-29,29,-48,-39,-78,-87,-87
-58,-58,0,58,-29,-29,29,-48,-39,-78,-87,-87
-58,-58,0,58,-29,-29,29,-48,-39,-78,-87,-87
-58,-58,0,58,-29,-29,29,-48,-39,-78,-87,-87
-58,-68,-9,63,-24,-39,29,-48,-48,-78,-87,-87
-58,-68,-9,63,-24,-39,29,-48,-48,-78,-87,-87
-58,-68,-9,63,-24,-39,29,-48,-48,-78,-87,-87
-58,-68,-9,63,-24,-39,29,-48,-48,-78,-87,-87
-58,-68,-9,63,-24,-39,29,-48,-48,-78,-87,-87
-58,-68,-9,63,-24,-39,29,-48,-48,-78,-87,-87
-58,-68,-9,63,-24,-39,29,-48,-48,-78,-87,-87
-58,-68,-9,63,-24,-39,29,-48,-48,-78,-87,-87
-58,-68,-9,63,-24,-39,29,-48,-39,-68,-87,-87
-58,-68,-9,63,-24,-39,29,-48,-39,-68,-87,-87
-58,-68,-9,63,-24,-39,29,-48,-39,-68,-87,-87
-58,-68,-9,63,-24,-39,29,-48,-39,-68,-87,-87
-58,-68,-9,63,-24,-39,29,-48,-48,-78,-87,-87
-58,-68,-9,63,-24,-39,29,-48,-48,-78,-87,-87
-58,-68,-9,63,-24,-39,29,-48,-48,-78,-87,-87
-58,-68,-9,63,-24,-39,29,-48,-48,-78,-87,-87
-58,-68,-9,63,-24,-39,29,-48,-48,-78,-87,-87
-58,-68,-9,63,-24,-39,29,-48,-48,-78,-87,-87
-58,-68,-9,63,-24,-39,29,-48,-48,-78,-87,-87
-58,-68,-9,63,-24,-39,29,-48,-48,-78,-87,-87
-58,-78,-19,68,-19,-48,29,-48,-48,-78,-87,-87
-58,-78,-19,68,-19,-48,29,-48,-48,-78,-87,-87
-58,-78,-19,68,-19,-48,29,-48,-48,-78,-87,-87
-58,-78,-19,68,-19,-48,29,-48,-48,-78,-87,-87
-58,-68,-9,63,-24,-39,39,-48,-48,-68,-87,-87
-58,-68,-9,63,-24,-39,39,-48,-48,-68,-87,-87
-58,-68,-9,63,-24,-39,39,-48,-48,-68,-87,-87
-58,-68,-9,63,-24,-39,39,-48,-48,-68,-87,-87
-58,-78,-19,68,-19,-48,39,-48,-48,-78,-87,-87
-58,-78,-19,68,-19,-48,39,-48,-48,-78,-87,-87
-58,-78,-19,68,-19,-48,39,-48,-48,-78,-87,-87
-58,-78,-19,68,-19,-48,39,-48,-48,-78,-87,-87
-58,-68,-9,63,-24,-39,39,-58,-48,-78,-87,-87
-58,-68,-9,63,-24,-39,39,-58,-48,-78,-87,-87
-58,-68,-9,63,-24,-39,39,-58,-48,-78,-87,-87
-58,-68,-9,63,-24,-39,39,-58,-48,-78,-87,-87
-58,-78,-19,68,-19,-48,39,-48,-48,-78,-87,-87
-58,-78,-19,68,-19,-48,39,-48,-48,-78,-87,-87
-58,-78,-19,68,-19,-48,39,-48,-48,-78,-87,-87
-58,-78,-19,68,-19,-48,39,-48,-48,-78,-87,-87
-68,-78,-9,73,-29,-43,39,-48,-48,-78,-87,-97
-68,-78,-9,73,-29,-43,39,-48,-48,-78,-87,-97
-68,-78,-9,73,-29,-43,39,-48,-48,-78,-87,-97
-68,-78,-9,73,-29,-43,39,-48,-48,-78,-87,-97
-58,-78,-19,68,-19,-48,29,-48,-48,-78,-97,-87
-58,-78,-19,68,-19,-48,29,-48,-48,-78,-97,-87
-58,-78,-19,68,-19,-48,29,-48,-48,-78,-97,-87
-58,-78,-19,68,-19,-48,29,-48,-48,-78,-97,-87
-58,-87,-29,73,-14,-58,29,-58,-48,-78,-97,-97
-58,-87,-29,73,-14,-58,29,-58,-48,-78,-97,-97
-58,-87,-29,73,-14,-58,29,-58,-48,-78,-97,-97
-58,-87,-29,73,-14,-58,29,-58,-48,-78,-97,-97
-68,-87,-19,78,-24,-53,39,-48,-48,-78,-97,-97
-68,-87,-19,78,-24,-53,39,-48,-48,-78,-97,-97
-68,-87,-19,78,-24,-53,39,-48,-48,-78,-97,-97
-68,-87,-19,78,-24,-53,39,-48,-48,-78,-97,-97
-68,-87,-19,78,-24,-53,39,-48,-58,-78,-97,-97
-68,-87,-19,78,-24,-53,39,-48,-58,-78,-97,-97
-68,-87,-19,78,-24,-53,39,-48,-58,-78,-97,-97
-68,-87,-19,78,-24,-53,39,-48,-58,-78,-97,-97
-68,-87,-19,78,-24,-53,39,-48,-58,-78,-97,-97
-68,-87,-19,78,-24,-53,39,-48,-58,-78,-97,-97
-68,-87,-19,78,-24,-53,39,-48,-58,-78,-97,-97
-68,-87,-19,78,-24,-53,39,-48,-58,-78,-97,-97
-68,-87,-19,78,-24,-53,48,-48,-48,-78,-97,-97
-68,-87,-19,78,-24,-53,48,-48,-48,-78,-97,-97
-68,-87,-19,78,-24,-53,48,-48,-48,-78,-97,-97
-68,-87,-19,78,-24,-53,48,-48,-48,-78,-97,-97
-68,-87,-19,78,-24,-53,48,-48,-48,-78,-97,-97
-68,-87,-19,78,-24,-53,48,-48,-48,-78,-97,-97
-68,-87,-19,78,-24,-53,48,-48,-48,-78,-97,-97
-68,-87,-19,78,-24,-53,48,-48,-48,-78,-97,-97
-58,-87,-29,73,-14,-58,39,-48,-58,-78,-97,-97
-58,-87,-29,73,-14,-58,39,-48,-58,-78,-97,-97
-58,-87,-29,73,-14,-58,39,-48,-58,-78,-97,-97
-58,-87,-29,73,-14,-58,39,-48,-58,-78,-97,-97
-58,-78,-19,68,-19,-48,39,-48,-48,-78,-97,-87
-58,-78,-19,68,-19,-48,39,-48,-48,-78,-97,-87
-58,-78,-19,68,-19,-48,39,-48,-48,-78,-97,-87
-58,-78,-19,68,-19,-48,39,-48,-48,-78,-97,-87
-48,-73,-24,61,-12,-48,39,-39,-39,-73,-92,-78
-48,-68,-19,58,-14,-43,39,-39,-39,-68,-87,-78
-48,-63,-14,56,-17,-39,39,-39,-39,-63,-82,-78
-48,-58,-9,53,-19,-34,39,-39,-39,-58,-78,-78
-39,-43,-4,41,-17,-24,39,-29,-34,-48,-68,-78
-39,-39,0,39,-19,-19,39,-29,-29,-48,-68,-78
-39,-34,4,36,-21,-14,39,-29,-24,-48,-68,-78
-39,-29,9,34,-24,-9,39,-29,-14,-43,-68,-73
-39,-24,14,31,-26,-4,29,-24,-9,-39,-58,-73
-29,-14,14,21,-21,0,29,-19,-9,-34,-48,-63
-29,-9,19,19,-24,4,24,-19,-4,-34,-43,-58
-19,-4,14,12,-17,4,19,-19,0,-34,-43,-58
-24,0,24,12,-24,12,24,-4,-4,-29,-48,-53
-24,9,34,7,-29,21,14,-4,0,-24,-43,-48
-19,24,43,-2,-31,34,9,0,9,-19,-39,-39
-14,34,48,-9,-31,41,4,0,24,-9,-29,-34
-4,48,53,-21,-29,51,-4,9,29,4,-19,-29
-4,58,63,-26,-34,61,-9,-4,39,9,-9,-19
-4,68,73,-31,-39,70,-19,-19,48,19,-4,-4
0,78,78,-39,-39,78,-34,-39,58,24,0,0
0,97,97,-48,-48,97,-43,-53,58,34,14,4
0,97,97,-48,-48,97,-48,-68,58,34,14,4
0,102,102,-51,-51,102,-58,-78,58,39,14,4
0,107,107,-53,-53,107,-68,-82,53,39,19,4
-4,107,112,-51,-58,109,-68,-107,53,29,19,14
-4,107,112,-51,-58,109,-73,-97,53,34,19,19
0,107,107,-53,-53,107,-78,-97,53,34,19,19
0,112,112,-56,-56,112,-78,-97,53,34,19,19
4,117,112,-61,-53,114,-82,-97,53,34,14,19
4,122,117,-63,-56,119,-82,-97,53,34,24,19
14,126,112,-70,-48,119,-82,-97,53,43,24,24
14,126,112,-70,-48,119,-87,-97,53,43,29,24
24,126,102,-75,-39,114,-78,-97,53,53,29,24
24,122,97,-73,-36,109,-78,-97,53,53,29,29
29,117,87,-73,-29,102,-73,-97,48,43,24,29
29,102,73,-65,-21,87,-73,-97,43,43,24,19
29,107,78,-68,-24,92,-82,-102,29,39,14,19
29,92,63,-61,-17,78,-73,-97,24,34,9,14
29,78,48,-53,-9,63,-63,-97,9,24,0,9
19,63,43,-41,-12,53,-58,-97,4,19,0,4
14,48,34,-31,-9,41,-53,-78,4,14,4,0
9,39,29,-24,-9,34,-43,-78,0,14,0,-4
4,34,29,-19,-12,31,-34,-73,-9,4,-4,-9
-4,19,24,-7,-14,21,-24,-68,-9,-4,-14,-19
-4,4,9,0,-7,7,-24,-78,-9,-4,-14,-29
-24,-9,14,17,-19,2,-24,-78,-19,-14,-34,-39
-34,-29,4,31,-19,-12,-9,-68,-29,-29,-48,-48
-39,-43,-4,41,-17,-24,0,-68,-39,-48,-63,-58
-58,-68,-9,63,-24,-39,19,-68,-48,-58,-78,-73
-58,-78,-19,68,-19,-48,19,-68,-53,-68,-82,-82
-63,-82,-19,73,-21,-51,24,-68,-53,-68,-82,-82
-68,-92,-24,80,-21,-58,24,-68,-63,-78,-87,-87
-68,-107,-39,87,-14,-73,34,-68,-63,-82,-97,-92
-68,-107,-39,87,-14,-73,34,-68,-68,-82,-97,-97
-68,-112,-43,90,-12,-78,39,-68,-68,-82,-102,-102
-68,-112,-43,90,-12,-78,39,-68,-73,-82,-107,-107
-68,-112,-43,90,-12,-78,39,-68,-73,-92,-112,-107
-68,-112,-43,90,-12,-78,43,-63,-73,-97,-112,-107
-68,-117,-48,92,-9,-82,43,-63,-73,-97,-112,-107
-68,-117,-48,92,-9,-82,43,-58,-73,-97,-112,-107
-73,-131,-58,102,-7,-95,48,-48,-73,-102,-122,-112
-73,-131,-58,102,-7,-95,48,-48,-73,-102,-122,-117
-78,-131,-53,104,-12,-92,53,-48,-73,-107,-122,-117
-78,-131,-53,104,-12,-92,53,-43,-73,-107,-122,-117
-82,-141,-58,112,-12,-100,53,-53,-73,-107,-117,-117
-82,-141,-58,112,-12,-100,53,-53,-78,-112,-126,-117
-82,-146,-63,114,-9,-104,53,-53,-78,-112,-126,-122
-82,-146,-63,114,-9,-104,58,-53,-78,-112,-122,-122
-82,-146,-63,114,-9,-104,58,-43,-78,-112,-122,-126
-82,-156,-73,119,-4,-114,58,-43,-82,-117,-122,-126
-82,-156,-73,119,-4,-114,58,-43,-82,-117,-122,-126
-82,-151,-68,117,-7,-109,58,-39,-82,-117,-126,-131
-92,-151,-58,122,-17,-104,53,-48,-82,-117,-136,-131
-92,-151,-58,122,-17,-104,53,-48,-82,-117,-141,-131
-92,-156,-63,124,-14,-109,53,-48,-82,-117,-141,-131
-92,-156,-63,124,-14,-109,53,-48,-87,-117,-141,-131
-82,-156,-73,119,-4,-114,53,-48,-87,-117,-141,-141
-82,-156,-73,119,-4,-114,53,-48,-87,-117,-141,-141
-82,-156,-73,119,-4,-114,58,-48,-87,-122,-141,-141
-82,-156,-73,119,-4,-114,58,-48,-87,-122,-141,-141
-82,-165,-82,124,0,-124,58,-34,-87,-122,-146,-141
-82,-170,-87,126,2,-129,58,-34,-87,-122,-146,-141
-82,-170,-87,126,2,-129,58,-34,-87,-122,-141,-141
-82,-170,-87,126,2,-129,58,-34,-87,-122,-141,-146
-92,-170,-78,131,-7,-124,68,-43,-97,-122,-141,-136
-92,-170,-78,131,-7,-124,68,-39,-97,-122,-141,-136
-92,-170,-78,131,-7,-124,68,-39,-97,-122,-141,-136
-92,-170,-78,131,-7,-124,68,-39,-92,-122,-146,-136
-92,-161,-68,126,-12,-114,68,-39,-82,-126,-146,-146
-97,-175,-78,136,-9,-126,68,-43,-82,-117,-146,-141
-107,-185,-78,146,-14,-131,68,-58,-78,-117,-146,-146
-117,-185,-68,151,-24,-126,68,-63,-68,-117,-146,-156
-126,-165,-39,146,-43,-102,58,-92,-43,-117,-146,-156
-156,-146,9,151,-82,-68,68,-141,-19,-107,-146,-141
-219,-131,87,175,-153,-21,78,-204,4,-102,-146,-141
-273,-107,165,190,-219,29,63,-292,34,-73,-131,-126
-287,-43,244,165,-265,100,14,-385,92,0,-73,-68
-287,58,346,114,-317,202,-43,-492,161,73,4,0
-283,117,400,82,-341,258,-92,-624,185,131,68,63
-278,190,468,43,-373,329,-151,-766,175,170,126,122
-244,273,517,-14,-380,395,-224,-897,156,224,200,204
-195,356,551,-80,-373,453,-326,-1068,112,292,297,302
-126,453,580,-163,-353,517,-453,-1254,34,366,405,429
-68,561,629,-246,-348,595,-575,-1429,-63,434,531,575
-34,692,727,-329,-380,710,-697,-1625,-107,546,683,736
-34,854,888,-409,-461,871,-814,-1815,-117,688,868,927
-24,1034,1058,-505,-541,1046,-907,-1947,-112,839,1054,1112
-39,1176,1215,-568,-627,1195,-956,-2025,-102,956,1200,1273
-73,1263,1337,-595,-705,1300,-985,-2083,-82,1054,1312,1381
-107,1317,1424,-605,-766,1371,-1010,-2137,-58,1127,1405,1464
-136,1298,1434,-580,-785,1366,-980,-2132,-39,1117,1381,1459
-161,1098,1259,-468,-710,1178,-883,-1995,-112,888,1137,1239
-219,834,1054,-307,-636,944,-722,-1771,-244,556,785,927
-331,683,1015,-175,-673,849,-566,-1620,-361,287,517,712
-429,629,1058,-100,-744,844,-434,-1512,-448,122,331,551
-483,556,1039,-36,-761,797,-331,-1385,-522,-9,190,414
-483,478,961,2,-722,719,-234,-1190,-512,-82,97,307
-439,385,824,26,-631,605,-161,-966,-463,-102,39,234
-346,278,624,34,-485,451,-102,-746,-400,-92,14,165
-248,195,444,26,-346,319,-82,-541,-302,-58,4,122
-161,156,317,2,-239,236,-73,-370,-190,-29,14,97
-107,122,229,-7,-168,175,-58,-244,-112,-14,14,82
-78,87,165,-4,-122,126,-39,-165,-73,-9,-4,43
-58,48,107,4,-82,78,-9,-122,-53,-9,-9,9
-48,14,63,17,-56,39,9,-82,-48,-19,-24,-14
-43,-19,24,31,-34,2,19,-53,-39,-9,-24,-24
-34,-39,-4,36,-14,-21,34,-24,-34,-19,-29,-29
-34,-63,-29,48,-2,-46,48,-4,-29,-34,-43,-48
-29,-73,-43,51,7,-58,48,0,-19,-43,-63,-58
-29,-78,-48,53,9,-63,58,9,-19,-53,-78,-73
-29,-78,-48,53,9,-63,53,14,-19,-63,-87,-82
-29,-82,-53,56,12,-68,58,19,-29,-68,-92,-92
-39,-112,-73,75,17,-92,63,24,-29,-63,-87,-102
-39,-112,-73,75,17,-92,78,43,-29,-73,-87,-102
-34,-122,-87,78,26,-104,78,48,-34,-73,-87,-102
-34,-122,-87,78,26,-104,82,53,-34,-73,-87,-102
-34,-122,-87,78,26,-104,82,58,-34,-78,-87,-102
-34,-112,-78,73,21,-95,73,68,-24,-78,-102,-112
-34,-112,-78,73,21,-95,78,68,-24,-78,-102,-112
-34,-112,-78,73,21,-95,78,68,-19,-82,-107,-112
-34,-117,-82,75,24,-100,78,73,-19,-82,-107,-112
-34,-126,-92,80,29,-109,78,63,-19,-82,-107,-107
-34,-126,-92,80,29,-109,78,68,-19,-82,-107,-107
-34,-126,-92,80,29,-109,82,73,-14,-82,-107,-107
-29,-131,-102,80,36,-117,82,73,-9,-82,-107,-107
-29,-141,-112,85,41,-126,78,73,-9,-73,-107,-117
-29,-136,-107,82,39,-122,78,73,-9,-73,-107,-117
-24,-131,-107,78,41,-119,78,78,-9,-73,-107,-117
-24,-131,-107,78,41,-119,78,78,-9,-73,-107,-117
-14,-122,-107,68,46,-114,87,87,-4,-78,-102,-117
-14,-122,-107,68,46,-114,87,92,-4,-78,-102,-117
-14,-126,-112,70,48,-119,87,92,-4,-78,-102,-117
-9,-126,-117,68,53,-122,87,92,-4,-78,-97,-117
-19,-136,-117,78,48,-126,87,92,-9,-78,-97,-117
-19,-131,-112,75,46,-122,87,97,-4,-73,-102,-117
-14,-131,-117,73,51,-124,82,97,-4,-73,-102,-117
-9,-131,-122,70,56,-126,82,97,-4,-73,-102,-112
-9,-122,-112,65,51,-117,82,97,4,-73,-102,-112
-9,-122,-112,65,51,-117,82,102,4,-73,-102,-112
-9,-122,-112,65,51,-117,82,102,4,-73,-102,-112
-9,-122,-112,65,51,-117,82,102,4,-73,-97,-112
-9,-126,-117,68,53,-122,82,102,4,-73,-97,-112
-4,-126,-122,65,58,-124,82,102,9,-68,-97,-112
-4,-126,-122,65,58,-124,78,102,9,-68,-97,-112
0,-126,-126,63,63,-126,78,107,9,-68,-92,-107
0,-126,-126,63,63,-126,68,107,0,-78,-92,-107
0,-122,-122,61,61,-122,68,107,4,-73,-87,-107
0,-122,-122,61,61,-122,68,112,9,-73,-87,-107
0,-122,-122,61,61,-122,68,112,9,-73,-87,-107
9,-112,-122,51,65,-117,68,112,9,-73,-97,-112
14,-107,-122,46,68,-114,68,112,9,-68,-97,-112
14,-107,-122,46,68,-114,68,117,9,-68,-97,-107
19,-107,-126,43,73,-117,68,117,14,-63,-97,-107
19,-107,-126,43,73,-117,78,122,14,-53,-92,-107
24,-107,-131,41,78,-119,73,126,19,-53,-92,-107
24,-112,-136,43,80,-124,73,126,19,-48,-92,-107
24,-112,-136,43,80,-124,73,131,24,-48,-87,-102
19,-107,-126,43,73,-117,73,131,29,-58,-82,-97
24,-107,-131,41,78,-119,73,131,29,-58,-78,-97
24,-107,-131,41,78,-119,73,141,34,-53,-78,-97
24,-102,-126,39,75,-114,73,141,34,-48,-73,-97
34,-92,-126,29,80,-109,68,146,39,-48,-73,-97
34,-92,-126,29,80,-109,68,146,43,-48,-73,-92
34,-92,-126,29,80,-109,68,151,43,-48,-63,-92
34,-87,-122,26,78,-104,68,151,43,-39,-63,-92
43,-87,-131,21,87,-109,68,161,39,-29,-63,-78
53,-87,-141,17,97,-114,68,161,48,-29,-58,-78
53,-82,-136,14,95,-109,68,165,53,-19,-58,-78
53,-82,-136,14,95,-109,68,170,53,-19,-53,-78
53,-87,-141,17,97,-114,68,170,58,-24,-53,-82
58,-87,-146,14,102,-117,68,170,63,-19,-48,-78
63,-87,-151,12,107,-119,58,180,68,-14,-43,-78
63,-82,-146,9,104,-114,58,185,68,-4,-43,-73
68,-82,-151,7,109,-117,58,190,78,0,-39,-73
73,-82,-156,4,114,-119,58,195,82,0,-34,-63
78,-73,-151,-2,114,-112,58,200,92,0,-29,-63
82,-68,-151,-7,117,-109,53,204,97,4,-24,-63
97,-68,-165,-14,131,-117,53,219,97,9,-29,-53
102,-68,-170,-17,136,-119,53,224,102,19,-19,-48
107,-68,-175,-19,141,-122,53,229,107,24,-19,-43
112,-63,-175,-24,143,-119,43,239,112,24,-19,-43
107,-58,-165,-24,136,-112,53,244,112,34,-4,-39
117,-53,-170,-31,143,-112,43,248,122,39,4,-34
122,-43,-165,-39,143,-104,39,253,122,43,9,-29
131,-39,-170,-46,151,-104,34,258,131,48,14,-24
146,-34,-180,-56,163,-107,34,268,141,58,9,-14
156,-24,-180,-65,168,-102,34,273,156,63,24,-9
165,-19,-185,-73,175,-102,29,287,170,78,34,-4
175,-14,-190,-80,183,-102,24,287,185,92,48,4
175,-9,-185,-82,180,-97,24,307,185,92,58,14
190,-4,-195,-92,192,-100,19,312,200,102,63,24
200,9,-190,-104,195,-90,14,317,209,112,73,34
214,19,-195,-117,204,-87,9,326,219,112,82,43
224,29,-195,-126,209,-82,-4,331,229,126,92,39
234,34,-200,-134,217,-82,-9,336,239,136,102,48
248,43,-204,-146,226,-80,-24,346,253,146,117,58
263,53,-209,-158,236,-78,-29,351,258,156,126,68
263,63,-200,-163,231,-68,-39,356,268,175,141,82
273,73,-200,-173,236,-63,-39,361,278,180,161,97
292,87,-204,-190,248,-58,-53,366,287,195,170,107
297,107,-190,-202,244,-41,-63,370,297,209,185,117
326,122,-204,-224,265,-41,-73,375,307,209,190,131
341,131,-209,-236,275,-39,-73,380,317,224,204,151
351,141,-209,-246,280,-34,-87,385,322,239,219,165
370,156,-214,-263,292,-29,-92,385,331,253,234,180
385,156,-229,-270,307,-36,-102,395,331,268,248,185
400,170,-229,-285,314,-29,-112,395,331,283,268,200
414,190,-224,-302,319,-17,-122,400,346,292,283,214
429,209,-219,-319,324,-4,-141,400,351,307,297,229
444,219,-224,-331,334,-2,-151,390,366,322,312,244
458,234,-224,-346,341,4,-165,390,370,331,331,258
478,248,-229,-363,353,9,-170,390,375,346,351,278
483,253,-229,-368,356,12,-185,385,380,361,366,292
492,268,-224,-380,358,21,-190,395,385,366,375,307
502,287,-214,-395,358,36,-204,395,390,385,395,322
517,297,-219,-407,368,39,-219,385,395,390,409,336
527,307,-219,-417,373,43,-224,380,400,400,414,351
536,317,-219,-427,378,48,-239,380,390,409,429,366
541,322,-219,-431,380,51,-248,375,390,419,444,380
546,331,-214,-439,380,58,-258,370,390,429,453,390
551,341,-209,-446,380,65,-263,361,390,429,468,400
566,366,-200,-466,383,82,-278,351,390,439,478,400
566,375,-190,-470,378,92,-283,341,390,444,483,414
570,375,-195,-473,383,90,-287,331,385,453,483,419
570,380,-190,-475,380,95,-292,312,375,453,488,424
561,385,-175,-473,368,104,-297,307,375,463,502,439
551,390,-161,-470,356,114,-297,287,366,463,502,444
541,400,-141,-470,341,129,-297,273,366,463,502,444
527,400,-126,-463,326,136,-297,253,356,453,502,439
512,400,-112,-456,312,143,-297,239,346,463,492,448
497,400,-97,-448,297,151,-297,224,336,448,488,439
483,400,-82,-441,283,158,-292,209,322,439,473,439
468,390,-78,-429,273,156,-287,195,312,424,463,424
453,375,-78,-414,265,148,-278,180,292,405,448,405
429,366,-63,-397,246,151,-273,165,283,390,434,385
409,356,-53,-383,231,151,-263,156,268,370,419,375
400,351,-48,-375,224,151,-258,141,253,351,405,361
370,336,-34,-353,202,151,-253,122,239,336,390,356
351,326,-24,-339,187,151,-248,112,224,317,375,341
336,307,-29,-322,183,139,-234,92,209,312,351,322
312,287,-24,-300,168,131,-224,87,195,292,326,302
283,268,-14,-275,148,126,-204,78,175,273,307,278
263,253,-9,-258,136,122,-195,68,161,253,287,258
244,234,-9,-239,126,112,-185,58,146,234,268,239
229,219,-9,-224,119,104,-170,53,141,209,248,224
209,214,4,-212,102,109,-161,43,126,195,239,224
195,204,9,-200,92,107,-151,39,117,180,219,204
175,190,14,-183,80,102,-141,34,107,170,200,185
165,175,9,-170,78,92,-126,29,92,161,185,165
131,151,19,-141,56,85,-117,14,82,136,161,146
122,141,19,-131,51,80,-107,14,73,126,141,126
107,126,19,-117,43,73,-97,9,63,112,131,112
102,112,9,-107,46,61,-87,4,58,97,112,97
97,97,0,-97,48,48,-82,14,58,97,107,92
82,82,0,-82,41,41,-78,4,53,82,92,82
68,68,0,-68,34,34,-73,4,43,73,78,68
63,58,-4,-61,34,26,-73,0,43,53,63,58
43,53,9,-48,17,31,-53,-9,24,39,43,34
34,39,4,-36,14,21,-53,-9,19,29,39,29
24,29,4,-26,9,17,-43,-9,14,19,29,14
14,19,4,-17,4,12,-29,-9,9,14,19,4
9,9,0,-9,4,4,-19,0,19,14,9,9
0,4,4,-2,-2,4,-14,0,14,4,0,4
0,-4,-4,2,2,-4,-14,0,4,4,-4,-4
-9,-9,0,9,-4,-4,-9,0,4,0,-9,-9
-14,-19,-4,17,-4,-12,-4,-9,0,-14,-24,-29
-19,-24,-4,21,-7,-14,0,-9,-9,-19,-24,-34
-24,-29,-4,26,-9,-17,4,-9,-19,-24,-29,-34
-29,-34,-4,31,-12,-19,9,-9,-24,-29,-34,-39
-34,-43,-9,39,-12,-26,24,0,-29,-34,-48,-48
-34,-48,-14,41,-9,-31,24,0,-29,-39,-53,-53
-34,-53,-19,43,-7,-36,24,0,-29,-43,-58,-63
-43,-53,-9,48,-17,-31,29,0,-29,-43,-58,-73
-43,-53,-9,48,-17,-31,29,9,-29,-39,-53,-73
-48,-63,-14,56,-17,-39,29,9,-24,-43,-58,-78
-48,-63,-14,56,-17,-39,34,4,-19,-48,-63,-78
-48,-63,-14,56,-17,-39,34,4,-19,-48,-68,-73
-48,-58,-9,53,-19,-34,29,4,-29,-58,-68,-73
-48,-68,-19,58,-14,-43,29,4,-29,-58,-68,-73
-53,-68,-14,61,-19,-41,29,9,-29,-58,-73,-73
-53,-68,-14,61,-19,-41,29,9,-29,-58,-73,-73
-53,-78,-24,65,-14,-51,34,9,-29,-58,-73,-73
-58,-78,-19,68,-19,-48,34,9,-29,-58,-78,-73
-58,-68,-9,63,-24,-39,34,9,-29,-58,-78,-73
-58,-68,-9,63,-24,-39,34,9,-34,-63,-82,-78
-68,-73,-4,70,-31,-39,43,9,-34,-63,-82,-87
-73,-73,0,73,-36,-36,43,9,-34,-63,-82,-87
-73,-73,0,73,-36,-36,48,9,-34,-68,-82,-92
-73,-73,0,73,-36,-36,48,9,-29,-68,-82,-92
-73,-73,0,73,-36,-36,43,9,-39,-73,-92,-92
-73,-78,-4,75,-34,-41,43,14,-39,-73,-92,-92
-73,-78,-4,75,-34,-41,48,14,-39,-73,-92,-92
-78,-82,-4,80,-36,-43,48,14,-39,-73,-92,-97
-68,-73,-4,70,-31,-39,39,4,-39,-78,-97,-87
-68,-73,-4,70,-31,-39,39,4,-39,-78,-97,-87
-68,-73,-4,70,-31,-39,39,9,-39,-78,-97,-87
-68,-73,-4,70,-31,-39,39,9,-39,-78,-97,-92
-78,-82,-4,80,-36,-43,39,19,-48,-87,-97,-102
-78,-82,-4,80,-36,-43,39,19,-48,-87,-97,-102
-78,-82,-4,80,-36,-43,39,24,-48,-87,-102,-102
-78,-82,-4,80,-36,-43,39,24,-48,-87,-102,-102
-78,-92,-14,85,-31,-53,48,24,-48,-87,-102,-107
-78,-97,-19,87,-29,-58,48,24,-48,-87,-102,-107
-78,-107,-29,92,-24,-68,48,24,-48,-92,-102,-107
-78,-97,-19,87,-29,-58,53,29,-48,-92,-102,-107
-78,-87,-9,82,-34,-48,43,29,-43,-82,-102,-107
-78,-87,-9,82,-34,-48,43,29,-43,-82,-107,-107
-78,-87,-9,82,-34,-48,48,29,-43,-82,-107,-107
-78,-87,-9,82,-34,-48,48,29,-43,-82,-107,-107
-68,-87,-19,78,-24,-53,48,34,-43,-92,-107,-107
-68,-87,-19,78,-24,-53,48,34,-39,-92,-107,-112
-68,-87,-19,78,-24,-53,48,34,-39,-92,-112,-112
-68,-87,-19,78,-24,-53,48,34,-39,-92,-112,-112
-78,-92,-14,85,-31,-53,58,34,-39,-82,-117,-112
-78,-92,-14,85,-31,-53,58,34,-39,-87,-112,-112
-78,-92,-14,85,-31,-53,63,39,-43,-87,-112,-117
-78,-92,-14,85,-31,-53,63,39,-43,-87,-112,-117
-78,-102,-24,90,-26,-63,68,34,-43,-97,-122,-117
-78,-102,-24,90,-26,-63,68,34,-48,-97,-122,-117
-78,-102,-24,90,-26,-63,68,34,-48,-97,-126,-117
-78,-102,-24,90,-26,-63,68,39,-48,-92,-126,-117
-78,-102,-24,90,-26,-63,68,39,-39,-92,-117,-117
-78,-102,-24,90,-26,-63,68,39,-39,-97,-117,-117
-78,-102,-24,90,-26,-63,68,39,-39,-97,-117,-117
-78,-102,-24,90,-26,-63,68,39,-39,-92,-117,-117
-78,-102,-24,90,-26,-63,68,48,-48,-92,-117,-117
-78,-102,-24,90,-26,-63,73,48,-48,-92,-117,-117
-78,-102,-24,90,-26,-63,73,48,-48,-92,-117,-117
-78,-102,-24,90,-26,-63,73,48,-48,-92,-117,-117
-78,-102,-24,90,-26,-63,82,39,-39,-92,-117,-117
-78,-102,-24,90,-26,-63,82,39,-39,-92,-117,-117
-73,-97,-24,85,-24,-61,78,39,-39,-92,-117,-122
-73,-97,-24,85,-24,-61,78,39,-39,-92,-117,-122
-82,-102,-19,92,-31,-61,68,48,-39,-102,-117,-122
-82,-102,-19,92,-31,-61,73,48,-39,-102,-117,-122
-82,-102,-19,92,-31,-61,73,48,-39,-102,-117,-122
-82,-102,-19,92,-31,-61,68,43,-34,-102,-117,-122
-82,-107,-24,95,-29,-65,68,34,-34,-92,-117,-112
-82,-107,-24,95,-29,-65,73,39,-39,-92,-117,-112
-82,-107,-24,95,-29,-65,73,39,-39,-92,-117,-112
-82,-102,-19,92,-31,-61,68,39,-39,-92,-117,-112
-87,-92,-4,90,-41,-48,68,29,-39,-92,-117,-122
-87,-92,-4,90,-41,-48,68,29,-39,-92,-117,-122
-87,-92,-4,90,-41,-48,68,29,-39,-92,-117,-117
-87,-92,-4,90,-41,-48,68,24,-39,-92,-117,-117
-82,-102,-19,92,-31,-61,68,34,-39,-102,-117,-117
-82,-102,-19,92,-31,-61,68,34,-43,-102,-122,-122
-82,-102,-19,92,-31,-61,68,34,-43,-102,-122,-122
-82,-102,-19,92,-31,-61,68,34,-43,-102,-122,-122
-82,-102,-19,92,-31,-61,58,34,-53,-102,-117,-122
-82,-102,-19,92,-31,-61,58,34,-53,-102,-117,-122
-82,-102,-19,92,-31,-61,58,34,-53,-102,-117,-122
-82,-102,-19,92,-31,-61,58,34,-53,-102,-117,-122
-92,-102,-9,97,-41,-56,58,43,-43,-92,-107,-122
-92,-102,-9,97,-41,-56,58,39,-48,-92,-112,-122
-92,-102,-9,97,-41,-56,58,39,-48,-97,-117,-122
-92,-102,-9,97,-41,-56,58,39,-48,-97,-117,-122
-82,-92,-9,87,-36,-51,58,29,-48,-102,-117,-122
-82,-92,-9,87,-36,-51,58,29,-48,-102,-117,-122
-82,-92,-9,87,-36,-51,58,29,-53,-102,-117,-122
-82,-92,-9,87,-36,-51,58,29,-53,-102,-117,-126
-82,-97,-14,90,-34,-56,58,29,-53,-112,-126,-117
-82,-97,-14,90,-34,-56,58,29,-53,-107,-122,-112
-82,-97,-14,90,-34,-56,58,29,-53,-107,-122,-112
-82,-97,-14,90,-34,-56,58,29,-53,-107,-126,-112
-82,-97,-14,90,-34,-56,68,24,-53,-97,-126,-122
-82,-97,-14,90,-34,-56,63,24,-53,-97,-126,-122
-82,-97,-14,90,-34,-56,63,24,-53,-97,-126,-122
-87,-92,-4,90,-41,-48,63,24,-58,-102,-126,-122
-87,-102,-14,95,-36,-58,63,19,-68,-112,-126,-122
-87,-102,-14,95,-36,-58,63,19,-68,-112,-126,-126
-87,-102,-14,95,-36,-58,58,19,-68,-112,-126,-126
-82,-102,-19,92,-31,-61,58,19,-68,-112,-126,-126
-82,-102,-19,92,-31,-61,63,19,-68,-112,-117,-117
-87,-102,-14,95,-36,-58,63,19,-68,-117,-122,-117
-87,-107,-19,97,-34,-63,63,19,-73,-117,-122,-122
-82,-107,-24,95,-29,-65,63,19,-73,-117,-126,-122
-82,-97,-14,90,-34,-56,63,19,-63,-117,-126,-131
-87,-97,-9,92,-39,-53,63,19,-63,-117,-126,-131
-87,-92,-4,90,-41,-48,63,14,-63,-117,-126,-131
-87,-92,-4,90,-41,-48,58,14,-63,-117,-126,-131
-87,-97,-9,92,-39,-53,58,14,-73,-122,-126,-122
-87,-102,-14,95,-36,-58,58,14,-73,-122,-126,-122
-87,-102,-14,95,-36,-58,63,14,-73,-122,-126,-122
-87,-97,-9,92,-39,-53,63,14,-73,-122,-126,-122
-78,-92,-14,85,-31,-53,53,14,-73,-122,-136,-131
-78,-92,-14,85,-31,-53,53,9,-78,-122,-136,-131
-78,-97,-19,87,-29,-58,53,9,-78,-122,-136,-131
-78,-97,-19,87,-29,-58,53,9,-78,-122,-136,-131
-87,-97,-9,92,-39,-53,63,9,-78,-122,-141,-131
-87,-97,-9,92,-39,-53,63,9,-78,-122,-141,-131
-87,-97,-9,92,-39,-53,63,9,-82,-122,-136,-131
-87,-97,-9,92,-39,-53,63,4,-82,-122,-131,-126
-87,-97,-9,92,-39,-53,53,4,-82,-131,-141,-126
-87,-97,-9,92,-39,-53,53,4,-82,-131,-146,-126
-87,-97,-9,92,-39,-53,53,4,-82,-131,-146,-126
-87,-102,-14,95,-36,-58,53,4,-78,-131,-146,-126
-87,-107,-19,97,-34,-63,63,4,-87,-122,-146,-131
-92,-107,-14,100,-39,-61,63,4,-92,-122,-146,-131
-92,-102,-9,97,-41,-56,63,4,-92,-122,-146,-131
-92,-102,-9,97,-41,-56,63,4,-87,-122,-146,-131
-92,-112,-19,102,-36,-65,63,4,-78,-122,-146,-131
-92,-107,-14,100,-39,-61,63,4,-78,-126,-146,-131
-92,-107,-14,100,-39,-61,63,4,-82,-126,-146,-131
-92,-107,-14,100,-39,-61,63,4,-82,-126,-146,-131
-87,-107,-19,97,-34,-63,63,4,-92,-126,-146,-131
-87,-107,-19,97,-34,-63,63,4,-92,-126,-146,-131
-87,-112,-24,100,-31,-68,63,4,-87,-126,-146,-126
-87,-112,-24,100,-31,-68,63,4,-87,-126,-146,-126
-87,-102,-14,95,-36,-58,63,-4,-87,-126,-146,-136
-87,-102,-14,95,-36,-58,63,0,-87,-126,-146,-136
-87,-107,-19,97,-34,-63,63,0,-87,-126,-146,-136
-92,-107,-14,100,-39,-61,63,0,-92,-131,-146,-136
-82,-107,-24,95,-29,-65,63,9,-92,-136,-136,-126
-82,-107,-24,95,-29,-65,63,9,-92,-136,-141,-126
-82,-102,-19,92,-31,-61,63,9,-92,-131,-141,-126
-82,-102,-19,92,-31,-61,63,9,-97,-131,-141,-131
-82,-107,-24,95,-29,-65,63,4,-87,-131,-141,-131
-82,-107,-24,95,-29,-65,63,4,-87,-131,-141,-131
-82,-107,-24,95,-29,-65,63,4,-87,-131,-141,-131
-82,-107,-24,95,-29,-65,63,4,-87,-131,-141,-131
-92,-112,-19,102,-36,-65,63,4,-87,-136,-151,-136
-92,-112,-19,102,-36,-65,63,9,-87,-136,-146,-136
-92,-112,-19,102,-36,-65,63,9,-82,-136,-146,-141
-82,-112,-29,97,-26,-70,63,9,-82,-136,-146,-141
-92,-112,-19,102,-36,-65,63,9,-92,-126,-146,-131
-92,-112,-19,102,-36,-65,63,9,-92,-126,-141,-131
-92,-112,-19,102,-36,-65,63,9,-92,-126,-141,-126
-92,-117,-24,104,-34,-70,63,9,-87,-126,-141,-122
-87,-117,-29,102,-29,-73,63,0,-87,-136,-141,-131
-87,-117,-29,102,-29,-73,63,0,-92,-136,-146,-131
-87,-117,-29,102,-29,-73,63,0,-97,-136,-146,-131
-92,-117,-24,104,-34,-70,63,0,-97,-136,-146,-131
-92,-107,-14,100,-39,-61,63,0,-92,-136,-156,-131
-92,-107,-14,100,-39,-61,63,0,-92,-136,-156,-131
-92,-102,-9,97,-41,-56,58,4,-92,-136,-156,-131
-92,-102,-9,97,-41,-56,58,4,-92,-136,-156,-131
-82,-107,-24,95,-29,-65,63,4,-102,-136,-146,-141
-82,-107,-24,95,-29,-65,63,4,-102,-136,-146,-141
-82,-112,-29,97,-26,-70,63,4,-97,-136,-146,-141
-87,-117,-29,102,-29,-73,63,4,-97,-136,-146,-141
-97,-131,-34,114,-31,-82,63,4,-97,-146,-156,-131
-97,-131,-34,114,-31,-82,68,0,-97,-146,-151,-136
-97,-126,-29,112,-34,-78,73,0,-97,-146,-151,-136
-97,-126,-29,112,-34,-78,78,0,-97,-146,-151,-136
-97,-117,-19,107,-39,-68,78,19,-97,-136,-151,-136
-87,-117,-29,102,-29,-73,68,14,-97,-136,-151,-136
-92,-117,-24,104,-34,-70,73,14,-87,-136,-141,-131
-87,-107,-19,97,-34,-63,68,19,-87,-126,-136,-117
-82,-97,-14,90,-34,-56,68,19,-78,-126,-136,-126
-78,-97,-19,87,-29,-58,68,19,-78,-126,-136,-126
-73,-97,-24,85,-24,-61,68,19,-78,-126,-136,-126
-68,-97,-29,82,-19,-63,68,19,-78,-126,-136,-126
-68,-82,-14,75,-26,-48,68,29,-68,-117,-126,-122
-68,-78,-9,73,-29,-43,68,29,-68,-117,-126,-117
-68,-73,-4,70,-31,-39,68,29,-68,-117,-126,-112
-68,-68,0,68,-34,-34,68,29,-68,-117,-126,-107
-68,-58,9,63,-39,-24,68,39,-58,-107,-122,-107
-68,-58,9,63,-39,-24,68,39,-58,-107,-117,-107
-68,-58,9,63,-39,-24,68,39,-53,-102,-112,-102
-68,-53,14,61,-41,-19,68,43,-48,-97,-107,-102
-48,-34,14,41,-31,-9,63,39,-39,-92,-102,-92
-48,-29,19,39,-34,-4,53,39,-34,-92,-102,-87
-39,-24,14,31,-26,-4,43,39,-29,-92,-107,-87
-34,-9,24,21,-29,7,34,43,-24,-78,-107,-82
-43,0,43,21,-43,21,34,34,-19,-63,-97,-68
-39,14,53,12,-46,34,29,39,-9,-58,-87,-58
-34,24,58,4,-46,41,24,39,4,-48,-73,-53
-34,39,73,-2,-53,56,14,39,4,-43,-58,-48
-34,48,82,-7,-58,65,9,24,9,-48,-48,-39
-34,58,92,-12,-63,75,0,9,14,-39,-43,-24
-29,68,97,-19,-63,82,-14,-9,19,-34,-39,-19
-29,78,107,-24,-68,92,-24,-24,19,-34,-34,-14
-29,68,97,-19,-63,82,-29,-29,9,-34,-43,-24
-29,73,102,-21,-65,87,-39,-39,9,-29,-43,-24
-29,78,107,-24,-68,92,-48,-43,4,-29,-39,-24
-34,78,112,-21,-73,95,-48,-58,4,-29,-39,-24
-34,87,122,-26,-78,104,-43,-39,14,-24,-29,-19
-29,87,117,-29,-73,102,-48,-39,14,-24,-29,-19
-29,92,122,-31,-75,107,-48,-39,14,-24,-29,-19
-24,97,122,-36,-73,109,-43,-39,14,-24,-24,-9
-24,102,126,-39,-75,114,-43,-48,14,-24,-14,-9
-14,107,122,-46,-68,114,-43,-48,14,-14,-14,-4
-14,107,122,-46,-68,114,-48,-48,14,-14,-9,-4
-14,107,122,-46,-68,114,-48,-48,14,-14,-9,-4
-14,92,107,-39,-61,100,-58,-39,9,-24,-19,0
-9,87,97,-39,-53,92,-53,-39,0,-34,-24,0
-9,73,82,-31,-46,78,-53,-39,-9,-34,-24,-9
-9,68,78,-29,-43,73,-53,-34,-19,-39,-34,-9
-9,53,63,-21,-36,58,-34,-29,-14,-34,-48,-14
-9,39,48,-14,-29,43,-24,-29,-29,-43,-58,-19
-19,24,43,-2,-31,34,-19,-29,-34,-48,-58,-24
-24,19,43,2,-34,31,-14,-19,-34,-53,-63,-29
-39,4,43,17,-41,24,4,-9,-48,-63,-68,-43
-43,-4,39,24,-41,17,14,-4,-58,-73,-73,-48
-53,-24,29,39,-41,2,24,0,-58,-82,-82,-58
-53,-48,4,51,-29,-21,34,0,-68,-92,-92,-73
-73,-78,-4,75,-34,-41,43,0,-68,-102,-112,-97
-82,-102,-19,92,-31,-61,58,9,-78,-117,-126,-112
-87,-122,-34,104,-26,-78,68,9,-87,-136,-141,-126
-97,-136,-39,117,-29,-87,78,9,-97,-136,-146,-131
-87,-131,-43,109,-21,-87,73,0,-112,-146,-141,-136
-92,-131,-39,112,-26,-85,73,0,-112,-146,-141,-131
-97,-136,-39,117,-29,-87,68,0,-122,-156,-146,-131
-97,-136,-39,117,-29,-87,63,0,-122,-161,-156,-131
-97,-126,-29,112,-34,-78,63,0,-117,-161,-156,-136
-97,-131,-34,114,-31,-82,68,0,-117,-161,-161,-141
-97,-131,-34,114,-31,-82,68,0,-122,-161,-165,-146
-97,-141,-43,119,-26,-92,68,0,-122,-161,-170,-146
-107,-151,-43,129,-31,-97,73,14,-122,-156,-170,-146
-107,-156,-48,131,-29,-102,73,14,-122,-156,-170,-146
-107,-156,-48,131,-29,-102,73,19,-122,-156,-170,-146
-112,-161,-48,136,-31,-104,78,19,-122,-161,-170,-151
-102,-161,-58,131,-21,-109,68,9,-131,-161,-170,-156
-107,-161,-53,134,-26,-107,73,9,-131,-165,-170,-156
-107,-161,-53,134,-26,-107,73,14,-131,-165,-170,-156
-112,-170,-58,141,-26,-114,73,14,-131,-165,-175,-156
-112,-161,-48,136,-31,-104,73,14,-131,-170,-185,-156
-112,-165,-53,139,-29,-109,73,14,-126,-170,-185,-161
-112,-165,-53,139,-29,-109,78,14,-122,-170,-180,-161
-112,-165,-53,139,-29,-109,78,14,-117,-170,-180,-165
-112,-185,-73,148,-19,-129,87,14,-131,-185,-190,-165
-112,-185,-73,148,-19,-129,87,14,-131,-185,-190,-165
-112,-180,-68,146,-21,-124,87,19,-131,-185,-195,-170
-112,-180,-68,146,-21,-124,92,19,-131,-185,-195,-170
-112,-170,-58,141,-26,-114,82,29,-141,-185,-190,-170
-112,-175,-63,143,-24,-119,82,29,-141,-185,-190,-170
-112,-175,-63,143,-24,-119,82,29,-146,-185,-190,-170
-112,-175,-63,143,-24,-119,82,29,-146,-185,-190,-170
-102,-175,-73,139,-14,-124,82,19,-136,-175,-180,-170
-102,-175,-73,139,-14,-124,87,19,-136,-180,-180,-170
-102,-175,-73,139,-14,-124,87,19,-136,-180,-180,-170
-102,-175,-73,139,-14,-124,87,24,-136,-180,-185,-170
-112,-180,-68,146,-21,-124,97,24,-136,-180,-195,-170
-112,-180,-68,146,-21,-124,97,24,-136,-180,-190,-170
-112,-180,-68,146,-21,-124,97,24,-136,-180,-190,-175
-112,-180,-68,146,-21,-124,97,24,-136,-180,-190,-175
-112,-180,-68,146,-21,-124,87,29,-136,-180,-190,-175
-112,-180,-68,146,-21,-124,87,29,-136,-180,-190,-175
-112,-180,-68,146,-21,-124,87,29,-131,-180,-195,-175
-112,-180,-68,146,-21,-124,87,19,-131,-185,-195,-175
-107,-185,-78,146,-14,-131,87,14,-131,-185,-204,-180
-117,-185,-68,151,-24,-126,87,9,-117,-185,-204,-185
-136,-185,-48,161,-43,-117,97,4,-87,-185,-204,-195
-185,-185,0,185,-92,-92,107,-34,-73,-185,-224,-204
-253,-185,68,219,-161,-58,117,-92,-48,-195,-234,-219
-287,-161,126,224,-207,-17,117,-165,-14,-161,-214,-200
-292,-78,214,185,-253,68,73,-234,63,-82,-151,-136
-278,4,283,136,-280,143,14,-317,112,0,-82,-68
-278,78,356,100,-317,217,-34,-434,131,53,-14,-9
-273,165,439,53,-356,302,-92,-575,126,102,48,63
-239,258,497,-9,-368,378,-190,-727,107,170,136,161
-185,361,546,-87,-366,453,-312,-897,58,253,268,302
-136,483,619,-173,-378,551,-424,-1088,-14,351,424,458
-87,600,688,-256,-387,644,-522,-1254,-102,434,570,614
-68,727,795,-329,-431,761,-624,-1439,-141,551,736,790
-73,917,990,-422,-531,954,-736,-1634,-146,732,936,1000
-82,1117,1200,-517,-641,1159,-824,-1766,-146,902,1122,1200
-112,1259,1371,-573,-741,1315,-868,-1839,-151,1015,1268,1346
-156,1342,1498,-592,-827,1420,-907,-1898,-131,1102,1385,1459
-180,1410,1590,-614,-885,1500,-936,-1927,-102,1180,1488,1556
-195,1366,1561,-585,-878,1464,-902,-1893,-78,1146,1444,1522
-234,1161,1395,-463,-814,1278,-785,-1742,-107,932,1195,1293
-297,932,1229,-317,-763,1080,-610,-1556,-209,605,844,985
-405,805,1210,-200,-807,1007,-478,-1429,-331,322,531,741
-478,732,1210,-126,-844,971,-370,-1337,-429,122,322,556
-507,658,1166,-75,-836,912,-287,-1200,-488,4,175,414
-492,566,1058,-36,-775,812,-204,-1034,-512,-87,82,307
-444,429,873,7,-658,651,-136,-829,-502,-151,0,200
-361,287,649,36,-505,468,-82,-634,-463,-170,-48,117
-278,209,488,34,-383,348,-53,-453,-370,-141,-53,78
-209,165,375,21,-292,270,-34,-317,-273,-107,-53,53
-131,107,239,12,-185,173,-14,-195,-200,-97,-63,19
-97,53,151,21,-124,102,0,-87,-151,-92,-73,-14
-78,0,78,39,-78,39,19,-29,-131,-97,-92,-43
-58,-29,29,43,-43,0,29,-4,-131,-97,-97,-68
-48,-43,4,46,-26,-19,39,24,-117,-87,-92,-73
-53,-48,4,51,-29,-21,48,34,-87,-87,-82,-63
-53,-68,-14,61,-19,-41,63,43,-82,-87,-97,-78
-53,-73,-19,63,-17,-46,68,43,-68,-102,-102,-87
-58,-82,-24,70,-17,-53,68,48,-68,-112,-112,-87
-58,-78,-19,68,-19,-48,68,58,-68,-122,-107,-92
-58,-87,-29,73,-14,-58,82,63,-68,-122,-117,-102
-58,-102,-43,80,-7,-73,87,78,-68,-126,-122,-112
-48,-122,-73,85,12,-97,82,92,-68,-122,-136,-122
-58,-122,-63,90,2,-92,87,92,-68,-131,-136,-122
-53,-131,-78,92,12,-104,87,97,-73,-131,-136,-122
-53,-131,-78,92,12,-104,92,102,-73,-131,-136,-122
-53,-131,-78,92,12,-104,92,107,-73,-136,-136,-122
-53,-131,-78,92,12,-104,92,107,-73,-136,-141,-122
-53,-131,-78,92,12,-104,97,107,-73,-136,-141,-122
-53,-131,-78,92,12,-104,97,107,-68,-141,-146,-122
-53,-136,-82,95,14,-109,97,112,-68,-141,-146,-122
-53,-146,-92,100,19,-119,107,112,-78,-141,-146,-136
-53,-146,-92,100,19,-119,107,117,-78,-141,-146,-136
-53,-146,-92,100,19,-119,112,122,-73,-141,-146,-136
-48,-151,-102,100,26,-126,112,122,-68,-141,-146,-136
-39,-141,-102,90,31,-122,97,122,-68,-131,-146,-126
-39,-136,-97,87,29,-117,97,122,-68,-131,-146,-126
-34,-131,-97,82,31,-114,97,126,-68,-131,-146,-126
-34,-131,-97,82,31,-114,97,126,-68,-131,-146,-126
-34,-122,-87,78,26,-104,87,117,-53,-136,-141,-126
-34,-122,-87,78,26,-104,87,122,-53,-136,-141,-126
-34,-126,-92,80,29,-109,87,122,-53,-136,-141,-126
-29,-126,-97,78,34,-112,87,122,-53,-136,-136,-126
-29,-136,-107,82,39,-122,97,122,-58,-136,-126,-126
-29,-131,-102,80,36,-117,97,126,-53,-131,-131,-126
-24,-131,-107,78,41,-119,92,126,-53,-131,-131,-126
-19,-131,-112,75,46,-122,92,126,-53,-131,-131,-122
-29,-141,-112,85,41,-126,92,136,-43,-131,-141,-131
-29,-141,-112,85,41,-126,92,141,-43,-131,-141,-131
-29,-141,-112,85,41,-126,92,141,-43,-131,-141,-131
-29,-141,-112,85,41,-126,92,141,-43,-131,-136,-131
-19,-126,-107,73,43,-117,92,141,-43,-131,-126,-122
-14,-126,-112,70,48,-119,92,141,-39,-126,-126,-122
-14,-126,-112,70,48,-119,87,141,-39,-126,-126,-122
-9,-126,-117,68,53,-122,87,146,-39,-126,-122,-117
-9,-126,-117,68,53,-122,87,146,-48,-117,-131,-117
-9,-122,-112,65,51,-117,87,146,-43,-112,-126,-117
-9,-122,-112,65,51,-117,87,151,-39,-112,-126,-117
-9,-122,-112,65,51,-117,87,151,-39,-112,-126,-117
-9,-122,-112,65,51,-117,87,151,-29,-122,-126,-122
-4,-117,-112,61,53,-114,87,151,-29,-117,-126,-122
-4,-117,-112,61,53,-114,87,156,-29,-117,-126,-117
0,-117,-117,58,58,-117,87,156,-24,-112,-126,-117
0,-117,-117,58,58,-117,87,151,-24,-102,-122,-117
4,-117,-122,56,63,-119,82,156,-19,-102,-122,-117
4,-122,-126,58,65,-124,82,156,-19,-97,-122,-117
4,-122,-126,58,65,-124,82,161,-14,-97,-117,-112
0,-117,-117,58,58,-117,82,170,-9,-97,-112,-97
4,-117,-122,56,63,-119,82,170,-9,-97,-107,-97
4,-117,-122,56,63,-119,82,180,-4,-92,-107,-97
4,-112,-117,53,61,-114,82,180,-4,-87,-102,-97
24,-112,-136,43,80,-124,78,175,0,-87,-102,-97
24,-112,-136,43,80,-124,78,175,4,-87,-102,-92
24,-112,-136,43,80,-124,78,180,4,-87,-92,-92
24,-107,-131,41,78,-119,78,180,4,-78,-92,-92
24,-107,-131,41,78,-119,78,190,9,-78,-82,-87
34,-107,-141,36,87,-124,78,190,19,-78,-78,-87
34,-102,-136,34,85,-119,78,195,24,-68,-78,-87
34,-102,-136,34,85,-119,78,200,24,-68,-73,-87
34,-97,-131,31,82,-114,68,209,29,-63,-73,-82
39,-97,-136,29,87,-117,68,209,34,-58,-68,-78
43,-97,-141,26,92,-119,58,219,39,-53,-63,-78
43,-92,-136,24,90,-114,58,224,39,-43,-63,-73
48,-102,-151,26,100,-126,68,219,48,-29,-58,-73
53,-102,-156,24,104,-129,68,224,53,-29,-53,-63
58,-92,-151,17,104,-122,68,229,63,-29,-48,-63
63,-87,-151,12,107,-119,63,234,68,-24,-43,-63
68,-78,-146,4,107,-112,53,239,78,-19,-39,-43
73,-78,-151,2,112,-114,53,244,82,-9,-29,-39
78,-78,-156,0,117,-117,53,248,87,-4,-29,-34
82,-73,-156,-4,119,-114,43,258,92,-4,-29,-34
87,-68,-156,-9,122,-112,53,263,102,14,-14,-19
97,-63,-161,-17,129,-112,43,268,112,19,-4,-14
102,-53,-156,-24,129,-104,39,273,112,24,0,-9
112,-48,-161,-31,136,-104,34,278,122,29,4,-4
117,-43,-161,-36,139,-102,34,278,126,29,9,-4
126,-34,-161,-46,143,-97,34,283,136,34,24,0
136,-29,-165,-53,151,-97,29,297,146,48,34,4
146,-24,-170,-61,158,-97,24,297,156,63,48,14
156,-19,-175,-68,165,-97,14,307,175,73,68,34
170,-14,-185,-78,178,-100,9,312,190,82,73,43
180,0,-180,-90,180,-90,4,317,200,92,82,53
195,9,-185,-102,190,-87,0,326,209,92,92,63
204,19,-185,-112,195,-82,-4,331,219,112,112,68
214,24,-190,-119,202,-82,-9,336,229,126,122,78
229,34,-195,-131,212,-80,-24,346,244,141,136,87
244,43,-200,-143,222,-78,-29,351,248,156,146,97
244,53,-190,-148,217,-68,-39,346,268,175,161,122
253,63,-190,-158,222,-63,-39,351,278,180,180,136
273,78,-195,-175,234,-58,-53,356,287,195,190,146
278,97,-180,-187,229,-41,-63,361,297,209,204,156
307,102,-204,-204,256,-51,-63,366,297,229,219,161
322,112,-209,-217,265,-48,-63,370,307,244,234,180
331,122,-209,-226,270,-43,-78,375,312,258,248,195
351,136,-214,-244,283,-39,-82,375,322,273,263,209
356,146,-209,-251,283,-31,-102,375,341,287,287,229
370,161,-209,-265,290,-24,-112,375,341,302,307,248
385,180,-204,-283,295,-12,-122,380,356,312,322,268
400,200,-200,-300,300,0,-141,380,361,326,336,287
414,209,-204,-312,309,2,-141,370,361,341,351,302
429,224,-204,-326,317,9,-156,370,361,351,370,317
448,239,-209,-344,329,14,-161,370,361,366,390,336
453,244,-209,-348,331,17,-175,366,361,380,405,351
453,248,-204,-351,329,21,-190,366,366,375,414,356
463,268,-195,-366,329,36,-204,366,370,395,434,370
478,278,-200,-378,339,39,-219,356,375,400,448,385
488,287,-200,-387,344,43,-224,351,380,409,453,400
497,297,-200,-397,348,48,-229,351,370,419,468,405
502,302,-200,-402,351,51,-239,346,370,429,483,419
507,312,-195,-409,351,58,-248,341,370,439,492,429
512,322,-190,-417,351,65,-253,331,370,439,507,439
507,326,-180,-417,344,73,-258,322,370,439,512,439
507,336,-170,-422,339,82,-263,312,370,444,512,453
512,336,-175,-424,344,80,-268,302,366,453,507,458
512,341,-170,-427,341,85,-273,283,356,453,507,463
497,346,-151,-422,324,97,-268,278,341,453,512,458
483,351,-131,-417,307,109,-268,258,326,453,512,463
468,361,-107,-414,287,126,-268,244,322,453,512,463
448,361,-87,-405,268,136,-268,224,307,444,512,458
434,351,-82,-392,258,134,-258,219,287,429,497,448
419,351,-68,-385,244,141,-258,204,278,409,488,439
405,351,-53,-378,229,148,-253,190,263,395,468,439
390,341,-48,-366,219,146,-248,175,253,375,453,424
375,336,-39,-356,207,148,-239,170,244,370,448,419
351,326,-24,-339,187,151,-234,156,234,361,434,405
331,317,-14,-324,173,151,-224,146,219,346,419,400
322,312,-9,-317,165,151,-219,131,204,331,405,390
302,307,4,-305,148,156,-214,122,180,302,385,370
283,297,14,-290,134,156,-209,112,165,278,366,351
268,278,9,-273,129,143,-195,92,151,268,336,326
244,258,14,-251,114,136,-185,87,136,244,307,302
214,239,24,-226,95,131,-175,87,136,229,287,287
195,224,29,-209,82,126,-165,78,122,214,268,268
175,204,29,-190,73,117,-156,68,107,200,248,248
161,190,29,-175,65,109,-141,63,102,180,229,234
146,175,29,-161,58,102,-131,53,78,151,200,214
136,165,29,-151,53,97,-122,48,68,131,180,195
122,151,29,-136,46,90,-112,43,58,117,161,175
117,136,19,-126,48,78,-97,39,43,102,146,156
82,122,39,-102,21,80,-87,34,43,97,131,146
73,112,39,-92,17,75,-78,34,34,87,112,126
58,97,39,-78,9,68,-68,29,24,73,102,112
53,82,29,-68,12,56,-58,24,19,58,82,97
48,78,29,-63,9,53,-58,24,9,48,78,82
34,63,29,-48,2,46,-48,14,4,34,63,73
19,48,29,-34,-4,39,-39,14,-4,24,48,58
14,39,24,-26,-4,31,-34,9,-4,4,34,48
14,34,19,-24,-2,26,-24,9,-14,9,14,43
4,19,14,-12,-4,17,-24,9,-19,0,9,39
-4,9,14,-2,-9,12,-14,9,-24,-9,0,24
-14,0,14,7,-14,7,0,9,-29,-14,-9,14
-29,0,29,14,-29,14,0,19,-29,-24,-9,0
-39,-4,34,21,-36,14,4,19,-34,-34,-19,-4
-39,-14,24,26,-31,4,4,19,-43,-34,-24,-14
-48,-19,29,34,-39,4,9,19,-43,-39,-29,-19
-43,-29,14,36,-29,-7,14,9,-34,-43,-43,-29
-48,-34,14,41,-31,-9,19,9,-39,-48,-43,-34
-53,-39,14,46,-34,-12,24,9,-43,-53,-48,-34
-58,-43,14,51,-36,-14,29,9,-43,-58,-53,-39
-63,-48,14,56,-39,-17,34,9,-48,-63,-58,-43
-63,-48,14,56,-39,-17,34,9,-48,-68,-63,-43
-63,-48,14,56,-39,-17,34,9,-48,-73,-68,-48
-73,-43,29,58,-51,-7,39,9,-48,-73,-68,-53
-73,-48,24,61,-48,-12,39,19,-63,-87,-82,-58
-78,-63,14,70,-46,-24,39,19,-63,-92,-87,-68
-78,-68,9,73,-43,-29,43,14,-63,-97,-92,-73
-78,-73,4,75,-41,-34,43,14,-68,-97,-97,-73
-87,-78,9,82,-48,-34,48,14,-58,-87,-87,-73
-87,-87,0,87,-43,-43,48,14,-58,-87,-87,-73
-92,-87,4,90,-48,-41,48,19,-58,-87,-92,-73
-92,-87,4,90,-48,-41,48,19,-58,-87,-92,-73
-82,-78,4,80,-43,-36,53,19,-68,-87,-92,-73
-87,-78,9,82,-48,-34,53,19,-68,-87,-97,-73
-87,-68,19,78,-53,-24,53,19,-68,-87,-97,-73
-87,-68,19,78,-53,-24,53,19,-73,-92,-102,-78
-87,-73,14,80,-51,-29,43,19,-63,-92,-102,-78
-92,-73,19,82,-56,-26,43,19,-63,-92,-102,-78
-92,-73,19,82,-56,-26,48,19,-63,-97,-102,-82
-92,-73,19,82,-56,-26,48,19,-58,-97,-102,-82
-82,-82,0,82,-41,-41,63,9,-58,-92,-102,-82
-82,-87,-4,85,-39,-46,63,14,-58,-92,-102,-82
-82,-87,-4,85,-39,-46,68,14,-58,-92,-102,-82
-87,-92,-4,90,-41,-48,68,14,-58,-92,-102,-87
-87,-92,-4,90,-41,-48,58,24,-58,-97,-107,-87
-87,-92,-4,90,-41,-48,58,24,-58,-97,-107,-87
-87,-92,-4,90,-41,-48,58,29,-58,-97,-107,-87
-87,-92,-4,90,-41,-48,58,29,-58,-97,-107,-92
-87,-92,-4,90,-41,-48,58,29,-58,-97,-107,-92
-87,-92,-4,90,-41,-48,58,29,-58,-97,-107,-92
-87,-92,-4,90,-41,-48,58,34,-58,-97,-112,-92
-87,-92,-4,90,-41,-48,58,34,-58,-97,-112,-92
-87,-92,-4,90,-41,-48,58,34,-48,-97,-112,-87
-87,-97,-9,92,-39,-53,58,34,-48,-97,-112,-87
-87,-107,-19,97,-34,-63,58,34,-48,-102,-112,-87
-87,-97,-9,92,-39,-53,63,39,-48,-102,-112,-87
-87,-97,-9,92,-39,-53,63,39,-53,-92,-102,-97
-87,-97,-9,92,-39,-53,63,39,-53,-92,-107,-97
-87,-97,-9,92,-39,-53,68,39,-53,-92,-107,-97
-87,-97,-9,92,-39,-53,68,39,-53,-92,-107,-97
-87,-97,-9,92,-39,-53,68,43,-53,-92,-97,-97
-87,-97,-9,92,-39,-53,68,43,-48,-92,-97,-102
-87,-97,-9,92,-39,-53,68,43,-48,-92,-102,-102
-87,-97,-9,92,-39,-53,68,43,-48,-92,-102,-102
-87,-102,-14,95,-36,-58,68,43,-48,-92,-107,-92
-87,-102,-14,95,-36,-58,68,43,-48,-97,-102,-92
-87,-102,-14,95,-36,-58,73,48,-53,-97,-102,-97
-87,-102,-14,95,-36,-58,73,48,-53,-97,-102,-97
-78,-92,-14,85,-31,-53,68,43,-53,-97,-112,-97
-78,-92,-14,85,-31,-53,68,43,-58,-97,-112,-97
-78,-92,-14,85,-31,-53,68,43,-58,-97,-117,-97
-78,-92,-14,85,-31,-53,68,48,-58,-92,-117,-97
-87,-92,-4,90,-41,-48,58,39,-58,-82,-117,-97
-87,-92,-4,90,-41,-48,58,39,-58,-87,-117,-97
-87,-92,-4,90,-41,-48,58,39,-58,-87,-117,-97
-87,-92,-4,90,-41,-48,58,39,-58,-82,-117,-97
-78,-92,-14,85,-31,-53,48,48,-48,-92,-112,-87
-78,-92,-14,85,-31,-53,53,48,-48,-92,-107,-87
-78,-92,-14,85,-31,-53,53,48,-48,-92,-102,-87
-78,-92,-14,85,-31,-53,53,48,-48,-92,-97,-87
-68,-92,-24,80,-21,-58,63,39,-58,-92,-107,-87
-68,-92,-24,80,-21,-58,63,39,-58,-92,-107,-87
-63,-87,-24,75,-19,-56,58,39,-58,-92,-107,-92
-63,-87,-24,75,-19,-56,58,39,-58,-92,-107,-92
-73,-92,-19,82,-26,-56,58,48,-58,-92,-97,-92
-73,-92,-19,82,-26,-56,63,48,-58,-92,-97,-92
-73,-92,-19,82,-26,-56,63,48,-58,-92,-97,-92
-73,-92,-19,82,-26,-56,58,43,-53,-92,-97,-92
-73,-97,-24,85,-24,-61,58,43,-43,-92,-97,-92
-73,-97,-24,85,-24,-61,63,48,-48,-92,-97,-92
-73,-97,-24,85,-24,-61,63,48,-48,-92,-97,-92
-73,-92,-19,82,-26,-56,58,48,-48,-92,-97,-92
-78,-92,-14,85,-31,-53,58,48,-58,-92,-97,-82
-78,-92,-14,85,-31,-53,58,48,-58,-92,-97,-82
-78,-92,-14,85,-31,-53,58,48,-58,-92,-97,-78
-78,-92,-14,85,-31,-53,58,43,-58,-92,-97,-78
-73,-92,-19,82,-26,-56,68,43,-48,-82,-87,-87
-73,-92,-19,82,-26,-56,68,43,-53,-82,-92,-92
-73,-92,-19,82,-26,-56,68,43,-53,-82,-92,-92
-73,-92,-19,82,-26,-56,68,43,-53,-82,-92,-92
-63,-92,-29,78,-17,-61,58,43,-53,-82,-97,-92
-63,-92,-29,78,-17,-61,58,43,-53,-82,-97,-92
-63,-92,-29,78,-17,-61,58,43,-53,-82,-97,-92
-63,-92,-29,78,-17,-61,58,43,-53,-82,-97,-92
-73,-102,-29,87,-21,-65,68,43,-63,-92,-97,-92
-73,-102,-29,87,-21,-65,68,39,-68,-92,-102,-92
-73,-102,-29,87,-21,-65,68,39,-68,-97,-107,-92
-73,-102,-29,87,-21,-65,68,39,-68,-97,-107,-92
-82,-102,-19,92,-31,-61,58,39,-58,-92,-107,-92
-82,-102,-19,92,-31,-61,58,39,-58,-92,-107,-92
-82,-102,-19,92,-31,-61,58,39,-63,-92,-107,-92
-82,-102,-19,92,-31,-61,58,39,-63,-92,-107,-97
-78,-102,-24,90,-26,-63,58,39,-63,-102,-107,-97
-73,-97,-24,85,-24,-61,58,39,-63,-97,-102,-92
-68,-92,-24,80,-21,-58,58,39,-63,-97,-102,-92
-63,-87,-24,75,-19,-56,58,39,-63,-97,-107,-92
-73,-87,-14,80,-29,-51,58,34,-63,-87,-107,-92
-73,-87,-14,80,-29,-51,53,34,-63,-87,-107,-92
-73,-87,-14,80,-29,-51,53,34,-63,-87,-107,-92
-78,-82,-4,80,-36,-43,53,34,-68,-92,-107,-92
-78,-92,-14,85,-31,-53,53,29,-68,-102,-107,-92
-78,-92,-14,85,-31,-53,53,29,-68,-102,-107,-97
-78,-92,-14,85,-31,-53,48,29,-68,-102,-107,-97
-73,-92,-19,82,-26,-56,48,29,-68,-102,-107,-97
-73,-92,-19,82,-26,-56,63,19,-68,-102,-107,-97
-78,-92,-14,85,-31,-53,63,19,-68,-107,-112,-97
-78,-97,-19,87,-29,-58,63,19,-73,-107,-112,-102
-73,-97,-24,85,-24,-61,63,19,-73,-107,-117,-102
-73,-107,-34,90,-19,-70,53,29,-73,-107,-117,-102
-78,-107,-29,92,-24,-68,53,29,-73,-107,-117,-102
-78,-102,-24,90,-26,-63,53,24,-73,-107,-117,-102
-78,-102,-24,90,-26,-63,48,24,-73,-107,-117,-102
-78,-107,-29,92,-24,-68,58,24,-82,-112,-117,-102
-78,-112,-34,95,-21,-73,58,24,-82,-112,-117,-102
-78,-112,-34,95,-21,-73,63,24,-82,-112,-117,-102
-78,-107,-29,92,-24,-68,63,24,-82,-112,-117,-102
-78,-102,-24,90,-26,-63,63,24,-73,-112,-117,-102
-78,-102,-24,90,-26,-63,63,19,-78,-112,-117,-102
-78,-107,-29,92,-24,-68,63,19,-78,-112,-117,-102
-78,-107,-29,92,-24,-68,63,19,-78,-112,-117,-102
-78,-117,-39,97,-19,-78,63,19,-78,-112,-122,-112
-78,-117,-39,97,-19,-78,63,19,-78,-112,-122,-112
-78,-117,-39,97,-19,-78,63,19,-82,-112,-117,-112
-78,-117,-39,97,-19,-78,63,14,-82,-112,-112,-107
-78,-107,-29,92,-24,-68,63,14,-82,-112,-112,-107
-78,-107,-29,92,-24,-68,63,14,-82,-112,-117,-107
-78,-107,-29,92,-24,-68,63,14,-82,-112,-117,-107
-78,-112,-34,95,-21,-73,63,14,-78,-112,-117,-107
-78,-107,-29,92,-24,-68,53,24,-78,-112,-126,-112
-82,-107,-24,95,-29,-65,53,24,-82,-112,-126,-112
-82,-102,-19,92,-31,-61,53,24,-82,-112,-126,-112
-82,-102,-19,92,-31,-61,53,24,-78,-112,-126,-112
-73,-112,-39,92,-17,-75,63,14,-78,-112,-126,-102
-73,-107,-34,90,-19,-70,63,14,-78,-117,-126,-102
-73,-107,-34,90,-19,-70,63,14,-82,-117,-126,-102
-73,-107,-34,90,-19,-70,63,14,-82,-117,-126,-102
-78,-107,-29,92,-24,-68,63,14,-82,-117,-117,-112
-78,-107,-29,92,-24,-68,63,14,-82,-117,-117,-112
-78,-112,-34,95,-21,-73,63,14,-78,-117,-117,-107
-78,-112,-34,95,-21,-73,63,14,-78,-117,-117,-107
-87,-112,-24,100,-31,-68,63,14,-78,-117,-126,-107
-87,-112,-24,100,-31,-68,63,19,-78,-117,-126,-107
-87,-117,-29,102,-29,-73,63,19,-78,-117,-126,-107
-92,-117,-24,104,-34,-70,63,19,-82,-122,-126,-107
-82,-117,-34,100,-24,-75,63,19,-82,-117,-117,-107
-82,-117,-34,100,-24,-75,63,19,-82,-117,-122,-107
-82,-112,-29,97,-26,-70,63,19,-82,-112,-122,-107
-82,-112,-29,97,-26,-70,63,19,-87,-112,-122,-112
-73,-117,-43,95,-14,-80,63,24,-87,-122,-122,-112
-73,-117,-43,95,-14,-80,63,24,-87,-122,-122,-112
-73,-117,-43,95,-14,-80,63,24,-87,-122,-122,-112
-73,-117,-43,95,-14,-80,63,24,-87,-122,-122,-112
-82,-112,-29,97,-26,-70,73,24,-87,-117,-122,-107
-82,-112,-29,97,-26,-70,73,29,-87,-117,-117,-107
-82,-112,-29,97,-26,-70,73,29,-82,-117,-117,-112
-73,-112,-39,92,-17,-75,73,29,-82,-117,-117,-112
-82,-112,-29,97,-26,-70,63,19,-82,-107,-117,-112
-82,-112,-29,97,-26,-70,63,19,-82,-107,-112,-112
-82,-112,-29,97,-26,-70,63,19,-82,-107,-112,-107
-82,-117,-34,100,-24,-75,63,19,-78,-107,-112,-102
-78,-107,-29,92,-24,-68,73,29,-68,-107,-112,-102
-78,-107,-29,92,-24,-68,73,29,-73,-107,-117,-102
-78,-107,-29,92,-24,-68,73,29,-78,-107,-117,-102
-82,-107,-24,95,-29,-65,73,29,-78,-107,-117,-102
-63,-97,-34,80,-14,-65,73,39,-63,-107,-107,-102
-63,-87,-24,75,-19,-56,63,29,-63,-107,-107,-102
-63,-82,-19,73,-21,-51,68,34,-63,-97,-107,-102
-63,-82,-19,73,-21,-51,68,53,-53,-87,-97,-92
-68,-78,-9,73,-29,-43,58,48,-48,-87,-97,-87
-58,-68,-9,63,-24,-39,58,39,-48,-87,-97,-87
-58,-68,-9,63,-24,-39,58,39,-48,-87,-97,-87
-58,-68,-9,63,-24,-39,58,39,-48,-87,-97,-87
-58,-68,-9,63,-24,-39,58,39,-48,-87,-97,-87
-48,-63,-14,56,-17,-39,58,48,-34,-82,-87,-82
-48,-53,-4,51,-21,-29,58,53,-29,-78,-87,-82
-39,-39,0,39,-19,-19,58,58,-29,-73,-78,-73
-39,-29,9,34,-24,-9,53,58,-24,-73,-73,-68
-39,-24,14,31,-26,-4,39,58,-9,-63,-63,-58
-34,-9,24,21,-29,7,34,63,-4,-48,-58,-53
-34,0,34,17,-34,17,24,63,0,-43,-53,-48
-29,14,43,7,-36,29,19,68,9,-39,-48,-39
-14,34,48,-9,-31,41,14,63,24,-29,-39,-24
-14,48,63,-17,-39,56,4,58,24,-24,-29,-19
-14,58,73,-21,-43,65,0,39,29,-19,-19,-9
-14,68,82,-26,-48,75,-9,19,34,-9,-14,4
-19,78,97,-29,-58,87,-24,0,34,-4,-19,0
-19,87,107,-34,-63,97,-34,-14,29,-4,-14,4
-19,87,107,-34,-63,97,-39,-29,24,-4,-14,4
-19,92,112,-36,-65,102,-48,-39,19,0,-14,4
-19,97,117,-39,-68,107,-48,-34,14,-9,-9,-4
-24,97,122,-36,-73,109,-48,-48,14,-9,-9,-4
-24,97,122,-36,-73,109,-53,-39,14,-4,-9,0
-19,97,117,-39,-68,107,-58,-39,14,-4,-9,0
-9,92,102,-41,-56,97,-58,-39,24,4,-9,9
-4,97,102,-46,-53,100,-53,-39,24,4,-4,19
-4,102,107,-48,-56,104,-53,-39,24,4,4,19
4,107,102,-56,-48,104,-53,-39,24,14,4,24
4,107,102,-56,-48,104,-58,-29,14,14,9,24
4,107,102,-56,-48,104,-58,-29,14,14,9,24
4,102,97,-53,-46,100,-58,-29,14,14,9,29
9,97,87,-53,-39,92,-53,-29,9,4,4,29
0,73,73,-36,-36,73,-53,-29,4,-4,4,9
0,68,68,-34,-34,68,-53,-24,0,-9,-4,9
0,53,53,-26,-26,53,-43,-19,-4,-14,-9,4
0,39,39,-19,-19,39,-34,-19,-19,-24,-19,0
-19,14,34,2,-26,24,-19,-19,-34,-29,-29,-4
-24,9,34,7,-29,21,-14,-9,-34,-34,-34,-9
-29,0,29,14,-29,14,-4,-9,-39,-34,-39,-14
-34,-4,29,19,-31,12,4,-4,-48,-43,-43,-19
-43,-29,14,36,-29,-7,14,0,-39,-63,-53,-39
-43,-48,-4,46,-19,-26,24,0,-48,-73,-63,-53
-63,-68,-4,65,-29,-36,24,0,-58,-82,-82,-68
-73,-92,-19,82,-26,-56,39,9,-68,-97,-97,-82
-78,-102,-24,90,-26,-63,48,9,-87,-107,-112,-97
-87,-117,-29,102,-29,-73,58,9,-97,-107,-117,-102
-87,-126,-39,107,-24,-82,58,9,-102,-117,-122,-112
-92,-131,-39,112,-26,-85,63,9,-102,-117,-122,-112
-87,-141,-53,114,-17,-97,63,9,-107,-126,-126,-117
-87,-146,-58,117,-14,-102,63,9,-102,-131,-136,-122
-87,-146,-58,117,-14,-102,63,9,-102,-131,-136,-126
-87,-151,-63,119,-12,-107,68,9,-97,-131,-141,-131
-78,-141,-63,109,-7,-102,58,9,-102,-131,-136,-126
-78,-151,-73,114,-2,-112,58,9,-102,-131,-141,-126
-78,-151,-73,114,-2,-112,63,14,-102,-136,-141,-126
-78,-156,-78,117,0,-117,63,14,-102,-136,-141,-126
-87,-165,-78,126,-4,-122,63,19,-112,-136,-151,-136
-92,-170,-78,131,-7,-124,68,19,-112,-141,-151,-141
-92,-170,-78,131,-7,-124,68,19,-112,-141,-151,-146
-97,-170,-73,134,-12,-122,73,19,-112,-146,-151,-146
-87,-170,-82,129,-2,-126,73,24,-112,-146,-141,-146
-92,-180,-87,136,-2,-134,73,24,-112,-146,-146,-146
-92,-180,-87,136,-2,-134,73,24,-117,-151,-156,-146
-92,-185,-92,139,0,-139,73,24,-117,-151,-156,-151
-92,-175,-82,134,-4,-129,78,24,-117,-151,-161,-151
-92,-175,-82,134,-4,-129,78,24,-117,-151,-161,-156
-92,-185,-92,139,0,-139,78,24,-122,-156,-161,-156
-92,-185,-92,139,0,-139,78,24,-122,-156,-161,-156
-102,-180,-78,141,-12,-129,78,29,-112,-156,-156,-151
-102,-180,-78,141,-12,-129,82,29,-112,-156,-156,-151
-102,-180,-78,141,-12,-129,82,29,-112,-156,-161,-151
-102,-185,-82,143,-9,-134,82,29,-112,-156,-161,-151
-92,-185,-92,139,0,-139,82,39,-117,-156,-161,-161
-92,-185,-92,139,0,-139,82,39,-117,-156,-161,-161
-92,-185,-92,139,0,-139,82,39,-117,-156,-161,-161
-92,-185,-92,139,0,-139,87,39,-117,-161,-161,-161
-102,-185,-82,143,-9,-134,87,29,-117,-161,-161,-161
-102,-185,-82,143,-9,-134,87,34,-117,-161,-165,-161
-102,-190,-87,146,-7,-139,87,34,-117,-161,-165,-161
-102,-190,-87,146,-7,-139,87,34,-117,-161,-161,-161
-102,-180,-78,141,-12,-129,87,34,-126,-161,-170,-156
-102,-180,-78,141,-12,-129,87,34,-126,-161,-170,-156
-102,-180,-78,141,-12,-129,87,39,-126,-161,-170,-156
-102,-180,-78,141,-12,-129,87,39,-126,-161,-170,-156
-92,-180,-87,136,-2,-134,87,29,-112,-161,-165,-165
-92,-180,-87,136,-2,-134,87,19,-122,-165,-175,-165
-107,-185,-78,146,-14,-131,87,24,-122,-165,-175,-161
-107,-195,-87,151,-9,-141,97,19,-117,-165,-185,-165
-107,-204,-97,156,-4,-151,97,4,-107,-175,-195,-185
-126,-185,-58,156,-34,-122,87,-14,-73,-165,-185,-185
-175,-175,0,175,-87,-87,97,-53,-39,-146,-175,-180
-239,-161,78,200,-158,-41,107,-117,-24,-151,-195,-190
-283,-126,156,204,-219,14,92,-195,4,-131,-180,-165
-297,-63,234,180,-265,85,53,-278,53,-68,-122,-117
-287,0,287,143,-287,143,4,-366,112,14,-43,-39
-292,78,370,107,-331,224,-43,-478,126,63,19,24
-278,170,448,53,-363,309,-112,-610,117,112,78,82
-234,263,497,-14,-366,380,-195,-751,97,175,161,175
-185,366,551,-90,-368,458,-297,-912,43,244,278,302
-126,463,590,-168,-358,527,-424,-1088,-53,317,385,429
-68,551,619,-241,-344,585,-546,-1263,-180,375,502,556
-43,653,697,-305,-370,675,-658,-1449,-244,478,653,727
-24,844,868,-409,-446,856,-766,-1629,-244,649,858,936
-14,1054,1068,-519,-541,1061,-858,-1742,-229,839,1083,1151
-48,1195,1244,-573,-646,1220,-907,-1820,-219,956,1239,1302
-92,1283,1376,-595,-734,1329,-936,-1888,-209,1044,1342,1410
-126,1366,1493,-619,-810,1429,-961,-1942,-165,1117,1434,1503
-146,1317,1464,-585,-805,1390,-932,-1908,-146,1098,1400,1478
-170,1107,1278,-468,-724,1193,-814,-1761,-190,878,1137,1249
-248,863,1112,-307,-680,988,-653,-1576,-292,546,795,946
-361,732,1093,-185,-727,912,-507,-1454,-400,268,497,712
-448,658,1107,-104,-778,883,-385,-1356,-497,82,302,541
-502,595,1098,-46,-800,846,-292,-1229,-551,-39,161,405
-492,507,1000,-7,-746,753,-204,-1063,-551,-92,78,297
-439,385,824,26,-631,605,-131,-858,-522,-151,9,195
-346,258,605,43,-475,431,-73,-639,-468,-161,-34,126
-258,204,463,26,-361,334,-43,-453,-351,-117,-34,92
-180,165,346,7,-263,256,-43,-312,-239,-68,-24,78
-117,122,239,-2,-178,180,-39,-185,-161,-53,-24,53
-78,78,156,0,-117,117,-9,-97,-112,-58,-34,24
-58,39,97,9,-78,68,9,-43,-102,-58,-48,-9
-48,4,53,21,-51,29,19,-14,-97,-58,-53,-24
-43,-29,14,36,-29,-7,39,4,-87,-48,-53,-34
-43,-48,-4,46,-19,-26,53,24,-73,-58,-58,-39
-43,-63,-19,53,-12,-41,58,43,-68,-73,-73,-58
-39,-82,-43,61,2,-63,68,48,-58,-82,-82,-68
-48,-87,-39,68,-4,-63,68,58,-48,-82,-97,-82
-48,-87,-39,68,-4,-63,73,63,-48,-92,-97,-92
-48,-92,-43,70,-2,-68,78,68,-48,-87,-92,-92
-48,-102,-53,75,2,-78,82,73,-48,-92,-97,-92
-48,-112,-63,80,7,-87,87,82,-48,-102,-107,-102
-43,-122,-78,82,17,-100,87,87,-53,-102,-107,-102
-43,-122,-78,82,17,-100,92,92,-53,-102,-107,-102
-43,-122,-78,82,17,-100,92,97,-53,-107,-107,-102
-43,-131,-87,87,21,-109,92,107,-43,-97,-122,-107
-43,-131,-87,87,21,-109,97,107,-43,-97,-122,-112
-43,-131,-87,87,21,-109,97,107,-39,-102,-126,-117
-43,-136,-92,90,24,-114,97,112,-39,-102,-126,-122
-34,-136,-102,85,34,-119,107,102,-39,-112,-117,-126
-34,-136,-102,85,34,-119,107,107,-39,-112,-117,-126
-34,-136,-102,85,34,-119,112,112,-34,-112,-117,-126
-29,-141,-112,85,41,-126,112,112,-29,-112,-117,-126
-39,-141,-102,90,31,-122,97,112,-39,-102,-117,-126
-39,-136,-97,87,29,-117,97,112,-39,-102,-117,-126
-34,-131,-97,82,31,-114,97,117,-39,-102,-117,-126
-34,-131,-97,82,31,-114,97,117,-39,-102,-117,-126
-24,-141,-117,82,46,-129,87,117,-34,-107,-112,-117
-24,-141,-117,82,46,-129,87,122,-34,-107,-112,-117
-24,-146,-122,85,48,-134,87,122,-34,-107,-112,-117
-19,-146,-126,82,53,-136,87,122,-34,-107,-107,-117
-29,-146,-117,87,43,-131,87,112,-39,-107,-107,-117
-29,-141,-112,85,41,-126,87,117,-34,-102,-112,-117
-24,-141,-117,82,46,-129,82,117,-34,-102,-112,-117
-19,-141,-122,80,51,-131,82,117,-34,-102,-112,-112
-19,-141,-122,80,51,-131,92,117,-24,-92,-112,-122
-19,-141,-122,80,51,-131,92,122,-24,-92,-112,-122
-19,-141,-122,80,51,-131,92,122,-24,-92,-112,-122
-19,-141,-122,80,51,-131,92,122,-24,-92,-107,-122
-19,-136,-117,78,48,-126,92,122,-34,-102,-117,-122
-14,-136,-122,75,53,-129,92,122,-29,-97,-117,-122
-14,-136,-122,75,53,-129,87,122,-29,-97,-117,-122
-9,-136,-126,73,58,-131,87,126,-29,-97,-112,-117
-9,-146,-136,78,63,-141,87,126,-19,-87,-102,-107
-9,-141,-131,75,61,-136,87,126,-14,-82,-97,-107
-9,-141,-131,75,61,-136,87,131,-9,-82,-97,-107
-9,-141,-131,75,61,-136,87,131,-9,-82,-97,-107
-9,-131,-122,70,56,-126,87,131,-9,-82,-87,-102
-4,-126,-122,65,58,-124,87,131,-9,-78,-87,-102
-4,-126,-122,65,58,-124,87,136,-9,-78,-87,-97
0,-126,-126,63,63,-126,87,136,-4,-73,-87,-97
0,-117,-117,58,58,-117,87,151,-4,-73,-92,-97
4,-117,-122,56,63,-119,82,156,0,-73,-92,-97
4,-122,-126,58,65,-124,82,156,0,-68,-92,-97
4,-122,-126,58,65,-124,82,161,4,-68,-87,-92
9,-126,-136,58,73,-131,82,151,0,-68,-82,-97
14,-126,-141,56,78,-134,82,151,0,-68,-78,-97
14,-126,-141,56,78,-134,82,161,4,-63,-78,-97
14,-122,-136,53,75,-129,82,161,4,-58,-73,-97
34,-122,-156,43,95,-139,78,165,19,-58,-73,-87
34,-122,-156,43,95,-139,78,165,24,-58,-73,-82
34,-122,-156,43,95,-139,78,170,24,-58,-63,-82
34,-117,-151,41,92,-134,78,170,24,-48,-63,-82
24,-117,-141,46,82,-129,87,180,29,-48,-63,-78
34,-117,-151,41,92,-134,87,180,39,-48,-58,-78
34,-112,-146,39,90,-129,87,185,43,-39,-58,-78
34,-112,-146,39,90,-129,87,190,43,-39,-53,-78
34,-107,-141,36,87,-124,78,190,58,-34,-43,-73
39,-107,-146,34,92,-126,78,190,63,-29,-39,-68
43,-107,-151,31,97,-129,68,200,68,-24,-34,-68
43,-102,-146,29,95,-124,68,204,68,-14,-34,-63
58,-92,-151,17,104,-122,68,209,68,-9,-39,-63
63,-92,-156,14,109,-124,68,214,73,-9,-34,-53
68,-82,-151,7,109,-117,68,219,82,-9,-29,-53
73,-78,-151,2,112,-114,63,224,87,-4,-24,-53
68,-87,-156,9,112,-122,53,229,87,-9,-19,-53
73,-87,-161,7,117,-124,53,234,92,0,-9,-48
78,-87,-165,4,122,-126,53,239,97,4,-9,-43
82,-82,-165,0,124,-124,43,248,102,4,-9,-43
97,-78,-175,-9,136,-126,53,253,112,24,-4,-29
107,-73,-180,-17,143,-126,43,258,122,29,4,-24
112,-63,-175,-24,143,-119,39,263,122,34,9,-19
122,-58,-180,-31,151,-119,34,268,131,39,14,-14
126,-43,-170,-41,148,-107,43,278,141,58,29,4
136,-34,-170,-51,153,-102,43,283,156,63,43,9
146,-29,-175,-58,161,-102,39,297,170,78,53,14
156,-24,-180,-65,168,-102,34,297,185,92,68,24
156,-29,-185,-63,170,-107,34,307,185,92,78,24
170,-24,-195,-73,183,-109,29,312,200,102,82,34
180,-9,-190,-85,185,-100,24,317,209,112,92,43
195,0,-195,-97,195,-97,19,326,219,112,102,53
204,9,-195,-107,200,-92,4,331,229,126,102,58
214,14,-200,-114,207,-92,0,336,239,136,112,68
229,24,-204,-126,217,-90,-14,346,253,146,126,78
244,34,-209,-139,226,-87,-19,351,258,156,136,87
244,34,-209,-139,226,-87,-19,356,268,175,151,102
253,43,-209,-148,231,-82,-19,361,278,180,170,117
273,58,-214,-165,244,-78,-34,366,287,195,180,126
278,78,-200,-178,239,-61,-43,370,297,209,195,136
307,87,-219,-197,263,-65,-53,375,307,229,219,151
322,102,-219,-212,270,-58,-53,380,317,244,234,170
331,117,-214,-224,273,-48,-68,385,322,258,248,185
351,136,-214,-244,283,-39,-73,385,331,273,263,200
366,136,-229,-251,297,-46,-92,385,341,278,278,214
380,151,-229,-265,305,-39,-102,385,341,292,297,229
395,170,-224,-283,309,-26,-112,390,356,302,312,244
409,190,-219,-300,314,-14,-131,390,361,317,326,258
414,190,-224,-302,319,-17,-131,390,366,331,341,273
429,204,-224,-317,326,-9,-146,390,370,341,361,287
448,219,-229,-334,339,-4,-151,390,375,356,380,307
453,224,-229,-339,341,-2,-165,385,380,370,395,322
463,244,-219,-353,341,12,-170,385,385,385,395,336
473,268,-204,-370,339,31,-185,385,390,405,414,351
488,283,-204,-385,346,39,-200,375,395,409,429,366
497,297,-200,-397,348,48,-204,370,400,419,434,380
507,297,-209,-402,358,43,-209,380,400,429,448,385
512,302,-209,-407,361,46,-219,375,400,439,463,400
517,312,-204,-414,361,53,-229,370,400,448,473,409
522,322,-200,-422,361,61,-234,361,400,448,488,419
527,336,-190,-431,358,73,-248,341,390,448,497,429
527,346,-180,-436,353,82,-253,331,390,453,502,444
531,346,-185,-439,358,80,-258,322,385,463,502,448
531,351,-180,-441,356,85,-263,302,375,463,507,453
522,366,-156,-444,339,104,-278,307,380,463,512,448
512,370,-141,-441,326,114,-278,287,366,463,512,453
502,380,-122,-441,312,129,-278,273,361,463,512,453
488,380,-107,-434,297,136,-278,253,346,453,512,448
483,380,-102,-431,292,139,-278,229,336,453,512,458
468,380,-87,-424,278,146,-278,214,326,439,507,448
453,380,-73,-417,263,153,-273,200,312,429,492,448
439,370,-68,-405,253,151,-268,185,302,414,483,434
414,346,-68,-380,241,139,-258,170,283,390,458,424
390,336,-53,-363,222,141,-253,156,273,380,444,405
370,326,-43,-348,207,141,-244,146,258,366,429,395
361,322,-39,-341,200,141,-239,131,244,351,414,380
341,317,-24,-329,183,146,-224,122,229,336,400,366
322,307,-14,-314,168,146,-219,112,214,317,385,351
307,287,-19,-297,163,134,-204,92,200,312,361,331
283,268,-14,-275,148,126,-195,87,185,292,336,312
263,268,4,-265,129,136,-185,87,175,273,317,297
244,253,9,-248,117,131,-175,78,161,253,297,278
224,234,9,-229,107,122,-165,68,146,234,278,258
209,219,9,-214,100,114,-151,63,141,209,258,244
190,195,4,-192,92,100,-141,43,126,195,248,234
175,185,9,-180,82,97,-131,39,117,180,229,214
156,170,14,-163,70,92,-122,34,107,170,209,195
146,156,9,-151,68,82,-107,29,92,161,195,175
122,141,19,-131,51,80,-107,34,92,136,175,165
112,131,19,-122,46,75,-97,34,82,126,151,146
97,117,19,-107,39,68,-87,29,73,112,136,131
92,102,9,-97,41,56,-78,24,68,97,112,117
78,87,9,-82,34,48,-68,14,48,97,102,102
63,73,9,-68,26,41,-58,4,43,82,92,92
48,58,9,-53,19,34,-48,4,34,73,82,78
43,48,4,-46,19,26,-43,0,34,53,73,68
34,53,19,-43,7,36,-34,0,24,39,58,53
24,39,14,-31,4,26,-34,0,19,29,48,48
14,29,14,-21,0,21,-24,0,14,19,34,34
4,19,14,-12,-4,17,-9,0,9,14,19,24
0,0,0,0,0,0,-9,0,4,4,9,9
-9,-4,4,7,-7,0,-4,0,-4,-4,0,4
-9,-14,-4,12,-2,-9,-4,0,-19,-4,-4,-4
-19,-19,0,19,-9,-9,0,0,-24,-9,-9,-9
-24,-29,-4,26,-9,-17,-4,-9,-14,-14,-24,-19
-29,-34,-4,31,-12,-19,0,-9,-19,-19,-24,-24
-34,-39,-4,36,-14,-21,4,-9,-24,-24,-29,-24
-39,-43,-4,41,-17,-24,9,-9,-24,-29,-34,-29
-43,-43,0,43,-21,-21,24,0,-19,-34,-29,-34
-43,-48,-4,46,-19,-26,24,0,-19,-39,-34,-34
-43,-53,-9,48,-17,-31,24,0,-19,-43,-39,-39
-53,-53,0,53,-26,-26,29,0,-19,-43,-39,-43
-53,-43,9,48,-31,-17,29,0,-24,-48,-53,-48
-58,-53,4,56,-31,-24,29,0,-24,-53,-58,-58
-58,-53,4,56,-31,-24,34,-4,-24,-58,-63,-63
-58,-53,4,56,-31,-24,34,-4,-29,-58,-68,-63
-58,-68,-9,63,-24,-39,39,-14,-39,-68,-78,-73
-58,-78,-19,68,-19,-48,39,-14,-39,-68,-78,-73
-63,-78,-14,70,-24,-46,39,-9,-39,-68,-82,-73
-63,-78,-14,70,-24,-46,39,-9,-39,-68,-82,-73
-73,-87,-14,80,-29,-51,43,-9,-39,-68,-73,-73
-78,-87,-9,82,-34,-48,43,-9,-39,-68,-78,-73
-78,-78,0,78,-39,-39,43,-9,-39,-68,-78,-73
-78,-78,0,78,-39,-39,43,-9,-43,-73,-82,-78
-78,-82,-4,80,-36,-43,43,-9,-43,-73,-73,-78
-82,-82,0,82,-41,-41,43,-9,-43,-73,-73,-78
-82,-82,0,82,-41,-41,48,-9,-43,-78,-73,-82
-82,-82,0,82,-41,-41,48,-9,-39,-78,-73,-82
-73,-82,-9,78,-31,-46,53,-9,-48,-73,-82,-82
-73,-87,-14,80,-29,-51,53,-4,-48,-73,-82,-82
-73,-87,-14,80,-29,-51,58,-4,-48,-73,-82,-82
-78,-92,-14,85,-31,-53,58,-4,-48,-73,-82,-87
-78,-82,-4,80,-36,-43,58,-4,-39,-78,-87,-87
-78,-82,-4,80,-36,-43,58,-4,-39,-78,-87,-87
-78,-82,-4,80,-36,-43,58,0,-39,-78,-87,-87
-78,-82,-4,80,-36,-43,58,0,-39,-78,-87,-92
-78,-92,-14,85,-31,-53,58,0,-39,-78,-87,-82
-78,-92,-14,85,-31,-53,58,0,-39,-78,-87,-82
-78,-92,-14,85,-31,-53,58,4,-39,-78,-92,-82
-78,-92,-14,85,-31,-53,58,4,-39,-78,-92,-82
-87,-92,-4,90,-41,-48,58,4,-48,-78,-92,-97
-87,-97,-9,92,-39,-53,58,4,-48,-78,-92,-97
-87,-107,-19,97,-34,-63,58,4,-48,-82,-92,-97
-87,-97,-9,92,-39,-53,63,9,-48,-82,-92,-97
-87,-97,-9,92,-39,-53,53,9,-43,-73,-92,-97
-87,-97,-9,92,-39,-53,53,9,-43,-73,-97,-97
-87,-97,-9,92,-39,-53,58,9,-43,-73,-97,-97
-87,-97,-9,92,-39,-53,58,9,-43,-73,-97,-97
-78,-97,-19,87,-29,-58,68,14,-34,-73,-97,-87
-78,-97,-19,87,-29,-58,68,14,-29,-73,-97,-92
-78,-97,-19,87,-29,-58,68,14,-29,-73,-102,-92
-78,-97,-19,87,-29,-58,68,14,-29,-73,-102,-92
-78,-92,-14,85,-31,-53,58,14,-39,-82,-97,-92
-78,-92,-14,85,-31,-53,58,14,-39,-87,-92,-92
-78,-92,-14,85,-31,-53,63,19,-43,-87,-92,-97
-78,-92,-14,85,-31,-53,63,19,-43,-87,-92,-97
-87,-102,-14,95,-36,-58,58,4,-34,-78,-92,-97
-87,-102,-14,95,-36,-58,58,4,-39,-78,-92,-97
-87,-102,-14,95,-36,-58,58,4,-39,-78,-97,-97
-87,-102,-14,95,-36,-58,58,9,-39,-73,-97,-97
-87,-92,-4,90,-41,-48,58,9,-39,-82,-97,-97
-87,-92,-4,90,-41,-48,58,9,-39,-87,-97,-97
-87,-92,-4,90,-41,-48,58,9,-39,-87,-97,-97
-87,-92,-4,90,-41,-48,58,9,-39,-82,-97,-97
-87,-92,-4,90,-41,-48,68,19,-39,-82,-97,-97
-87,-92,-4,90,-41,-48,73,19,-39,-82,-97,-97
-87,-92,-4,90,-41,-48,73,19,-39,-82,-97,-97
-87,-92,-4,90,-41,-48,73,19,-39,-82,-97,-97
-78,-102,-24,90,-26,-63,63,9,-48,-82,-97,-97
-78,-102,-24,90,-26,-63,63,9,-48,-82,-97,-97
-73,-97,-24,85,-24,-61,58,9,-48,-82,-97,-102
-73,-97,-24,85,-24,-61,58,9,-48,-82,-97,-102
-73,-112,-39,92,-17,-75,58,19,-48,-92,-107,-112
-73,-112,-39,92,-17,-75,63,19,-48,-92,-107,-112
-73,-112,-39,92,-17,-75,63,19,-48,-92,-107,-112
-73,-112,-39,92,-17,-75,58,14,-43,-92,-107,-112
-73,-107,-34,90,-19,-70,58,14,-43,-92,-107,-102
-73,-107,-34,90,-19,-70,63,19,-48,-92,-107,-102
-73,-107,-34,90,-19,-70,63,19,-48,-92,-107,-102
-73,-102,-29,87,-21,-65,58,19,-48,-92,-107,-102
-78,-102,-24,90,-26,-63,58,19,-39,-82,-97,-102
-78,-102,-24,90,-26,-63,58,19,-39,-82,-97,-102
-78,-102,-24,90,-26,-63,58,19,-39,-82,-97,-97
-78,-102,-24,90,-26,-63,58,14,-39,-82,-97,-97
-73,-102,-29,87,-21,-65,58,14,-48,-82,-97,-97
-73,-102,-29,87,-21,-65,58,14,-53,-82,-102,-102
-73,-102,-29,87,-21,-65,58,14,-53,-82,-102,-102
-73,-102,-29,87,-21,-65,58,14,-53,-82,-102,-102
-73,-102,-29,87,-21,-65,68,14,-53,-92,-107,-102
-73,-102,-29,87,-21,-65,68,14,-53,-92,-107,-102
-73,-102,-29,87,-21,-65,68,14,-53,-92,-107,-102
-73,-102,-29,87,-21,-65,68,14,-53,-92,-107,-102
-73,-102,-29,87,-21,-65,68,14,-53,-82,-97,-102
-73,-102,-29,87,-21,-65,68,9,-58,-82,-102,-102
-73,-102,-29,87,-21,-65,68,9,-58,-87,-107,-102
-73,-102,-29,87,-21,-65,68,9,-58,-87,-107,-102
-82,-112,-29,97,-26,-70,68,9,-58,-102,-117,-112
-82,-112,-29,97,-26,-70,68,9,-58,-102,-117,-112
-82,-112,-29,97,-26,-70,68,9,-63,-102,-117,-112
-82,-112,-29,97,-26,-70,68,9,-63,-102,-117,-117
-82,-107,-24,95,-29,-65,68,9,-63,-102,-117,-117
-82,-107,-24,95,-29,-65,68,9,-63,-97,-112,-112
-82,-107,-24,95,-29,-65,68,9,-63,-97,-112,-112
-82,-107,-24,95,-29,-65,68,9,-63,-97,-117,-112
-82,-107,-24,95,-29,-65,58,4,-63,-97,-107,-102
-82,-107,-24,95,-29,-65,53,4,-63,-97,-107,-102
-82,-107,-24,95,-29,-65,53,4,-63,-97,-107,-102
-87,-102,-14,95,-36,-58,53,4,-68,-102,-107,-102
-78,-102,-24,90,-26,-63,63,9,-68,-92,-117,-102
-78,-102,-24,90,-26,-63,63,9,-68,-92,-117,-107
-78,-102,-24,90,-26,-63,58,9,-68,-92,-117,-107
-73,-102,-29,87,-21,-65,58,9,-68,-92,-117,-107
-82,-102,-19,92,-31,-61,63,0,-68,-92,-107,-117
-87,-102,-14,95,-36,-58,63,0,-68,-97,-112,-117
-87,-107,-19,97,-34,-63,63,0,-73,-97,-112,-122
-82,-107,-24,95,-29,-65,63,0,-73,-97,-117,-122
-82,-117,-34,100,-24,-75,53,0,-73,-107,-117,-112
-87,-117,-29,102,-29,-73,53,0,-73,-107,-117,-112
-87,-112,-24,100,-31,-68,53,-4,-73,-107,-117,-112
-87,-112,-24,100,-31,-68,48,-4,-73,-107,-117,-112
-78,-107,-29,92,-24,-68,48,4,-73,-112,-126,-122
-78,-112,-34,95,-21,-73,48,4,-73,-112,-126,-122
-78,-112,-34,95,-21,-73,53,4,-73,-112,-126,-122
-78,-107,-29,92,-24,-68,53,4,-73,-112,-126,-122
-87,-112,-24,100,-31,-68,63,4,-73,-112,-126,-112
-87,-112,-24,100,-31,-68,63,0,-78,-112,-126,-112
-87,-117,-29,102,-29,-73,63,0,-78,-112,-126,-112
-87,-117,-29,102,-29,-73,63,0,-78,-112,-126,-112
-87,-117,-29,102,-29,-73,63,0,-78,-112,-131,-122
-87,-117,-29,102,-29,-73,63,0,-78,-112,-131,-122
-87,-117,-29,102,-29,-73,63,0,-82,-112,-126,-122
-87,-117,-29,102,-29,-73,63,-4,-82,-112,-122,-117
-78,-107,-29,92,-24,-68,63,4,-82,-112,-122,-117
-78,-107,-29,92,-24,-68,63,4,-82,-112,-126,-117
-78,-107,-29,92,-24,-68,63,4,-82,-112,-126,-117
-78,-112,-34,95,-21,-73,63,4,-78,-112,-126,-117
-87,-117,-29,102,-29,-73,53,-4,-78,-112,-126,-122
-92,-117,-24,104,-34,-70,53,-4,-82,-112,-126,-122
-92,-112,-19,102,-36,-65,53,-4,-82,-112,-126,-122
-92,-112,-19,102,-36,-65,53,-4,-78,-112,-126,-122
-82,-122,-39,102,-21,-80,63,-4,-78,-112,-126,-122
-82,-117,-34,100,-24,-75,63,-4,-78,-117,-126,-122
-82,-117,-34,100,-24,-75,63,-4,-82,-117,-126,-122
-82,-117,-34,100,-24,-75,63,-4,-82,-117,-126,-122
-78,-112,-34,95,-21,-73,63,-4,-82,-117,-136,-122
-78,-107,-29,92,-24,-68,63,-4,-82,-117,-136,-122
-78,-107,-29,92,-24,-68,63,-4,-78,-117,-136,-117
-78,-102,-24,90,-26,-63,63,-4,-78,-117,-136,-117
-78,-112,-34,95,-21,-73,63,-4,-78,-117,-136,-117
-78,-112,-34,95,-21,-73,63,0,-78,-117,-136,-117
-78,-117,-39,97,-19,-78,63,0,-78,-117,-136,-117
-82,-117,-34,100,-24,-75,63,0,-82,-122,-136,-117
-82,-126,-43,104,-19,-85,53,0,-82,-126,-126,-126
-82,-126,-43,104,-19,-85,53,0,-82,-126,-131,-126
-82,-122,-39,102,-21,-80,53,0,-82,-122,-131,-126
-82,-122,-39,102,-21,-80,53,0,-87,-122,-131,-131
-82,-117,-34,100,-24,-75,53,-4,-87,-131,-131,-131
-82,-117,-34,100,-24,-75,53,-4,-87,-131,-131,-131
-82,-117,-34,100,-24,-75,53,-4,-87,-131,-131,-131
-82,-117,-34,100,-24,-75,53,-4,-87,-131,-131,-131
-73,-107,-34,90,-19,-70,63,4,-78,-122,-131,-117
-73,-102,-29,87,-21,-65,63,9,-78,-117,-126,-117
-73,-97,-24,85,-24,-61,63,9,-73,-112,-126,-122
-63,-92,-29,78,-17,-61,63,9,-73,-107,-126,-122
-63,-73,-9,68,-26,-41,53,19,-63,-87,-107,-102
-73,-73,0,73,-36,-36,63,19,-63,-97,-102,-102
-68,-68,0,68,-34,-34,58,19,-48,-87,-97,-97
-68,-63,4,65,-36,-29,58,19,-39,-87,-97,-97
-68,-58,9,63,-39,-24,58,19,-39,-87,-97,-97
-68,-53,14,61,-41,-19,58,19,-39,-87,-97,-97
-68,-48,19,58,-43,-14,58,19,-39,-87,-97,-97
-68,-39,29,53,-48,-4,68,29,-34,-73,-97,-82
-68,-34,34,51,-51,0,68,34,-29,-68,-97,-82
-58,-24,34,41,-46,4,68,39,-29,-63,-87,-73
-58,-19,39,39,-48,9,63,39,-24,-63,-82,-68
-48,-24,24,36,-36,0,48,39,-9,-73,-82,-78
-43,-9,34,26,-39,12,43,43,-4,-58,-78,-73
-43,0,43,21,-43,21,34,43,0,-53,-73,-68
-39,14,53,12,-46,34,29,48,9,-48,-68,-58
-24,34,58,-4,-41,46,24,39,14,-29,-48,-53
-24,48,73,-12,-48,61,14,39,14,-24,-39,-48
-24,58,82,-17,-53,70,9,24,19,-19,-29,-39
-24,68,92,-21,-58,80,0,9,24,-9,-24,-24
-19,78,97,-29,-58,87,-14,-9,29,-14,-29,-19
-19,87,107,-34,-63,97,-24,-24,29,-14,-24,-14
-19,87,107,-34,-63,97,-29,-39,29,-14,-24,-14
-19,92,112,-36,-65,102,-39,-48,29,-9,-24,-14
-19,97,117,-39,-68,107,-48,-43,14,-9,-29,-24
-24,97,122,-36,-73,109,-48,-58,14,-9,-29,-24
-24,97,122,-36,-73,109,-53,-48,14,-4,-29,-19
-19,97,117,-39,-68,107,-58,-48,14,-4,-29,-19
-19,102,122,-41,-70,112,-48,-48,24,-4,-19,-9
-14,107,122,-46,-68,114,-43,-48,24,-4,-14,0
-14,112,126,-48,-70,119,-43,-48,24,-4,-4,0
-4,117,122,-56,-63,119,-43,-48,24,4,-4,4
4,117,112,-61,-53,114,-48,-58,14,4,0,-4
4,117,112,-61,-53,114,-48,-58,14,4,0,-4
4,112,107,-58,-51,109,-48,-58,14,4,0,0
9,107,97,-58,-43,102,-43,-58,9,-4,-4,0
4,82,78,-43,-36,80,-43,-48,4,-4,-14,-9
0,78,78,-39,-39,78,-43,-43,0,-9,-24,-9
-4,63,68,-29,-36,65,-34,-39,-4,-14,-29,-14
-9,48,58,-19,-34,53,-24,-39,-19,-24,-39,-19
-9,34,43,-12,-26,39,-19,-39,-24,-39,-39,-24
-14,29,43,-7,-29,36,-14,-29,-24,-43,-43,-29
-19,19,39,0,-29,29,-4,-29,-29,-43,-48,-34
-24,14,39,4,-31,26,4,-24,-39,-53,-53,-39
-39,-4,34,21,-36,14,24,-29,-39,-63,-73,-58
-43,-29,14,36,-29,-7,34,-29,-48,-73,-82,-73
-68,-53,14,61,-41,-19,34,-29,-58,-82,-102,-87
-82,-82,0,82,-41,-41,48,-19,-68,-97,-117,-102
-78,-97,-19,87,-29,-58,48,-19,-78,-117,-122,-107
-87,-107,-19,97,-34,-63,58,-19,-87,-117,-126,-112
-87,-112,-24,100,-31,-68,58,-19,-92,-126,-131,-122
-92,-112,-19,102,-36,-65,63,-19,-92,-126,-131,-122
-87,-112,-24,100,-31,-68,63,-19,-92,-126,-136,-126
-87,-117,-29,102,-29,-73,63,-19,-92,-131,-146,-131
-87,-117,-29,102,-29,-73,63,-19,-97,-131,-146,-136
-87,-122,-34,104,-26,-78,68,-19,-97,-131,-151,-141
-87,-122,-34,104,-26,-78,58,-9,-102,-141,-156,-146
-87,-131,-43,109,-21,-87,58,-9,-102,-141,-161,-146
-87,-131,-43,109,-21,-87,63,-4,-102,-146,-161,-146
-87,-136,-48,112,-19,-92,63,-4,-102,-146,-161,-146
-97,-146,-48,122,-24,-97,63,-9,-112,-146,-161,-146
-102,-151,-48,126,-26,-100,68,-9,-112,-151,-161,-151
-102,-151,-48,126,-26,-100,68,-9,-112,-151,-161,-156
-107,-151,-43,129,-31,-97,73,-9,-112,-156,-161,-156
-107,-156,-48,131,-29,-102,82,-4,-122,-165,-161,-165
-112,-170,-58,141,-26,-114,82,-4,-122,-165,-165,-165
-112,-175,-63,143,-24,-119,82,-4,-126,-170,-175,-165
-112,-185,-73,148,-19,-129,82,-4,-126,-170,-175,-170
-112,-185,-73,148,-19,-129,78,-4,-136,-170,-180,-170
-112,-185,-73,148,-19,-129,78,-4,-136,-170,-180,-175
-112,-195,-82,153,-14,-139,78,-4,-141,-175,-180,-175
-112,-195,-82,153,-14,-139,78,-4,-141,-175,-180,-175
-112,-180,-68,146,-21,-124,78,0,-131,-165,-175,-170
-112,-180,-68,146,-21,-124,82,0,-131,-165,-175,-170
-112,-180,-68,146,-21,-124,82,0,-131,-165,-180,-170
-112,-185,-73,148,-19,-129,82,0,-131,-165,-180,-170
-112,-185,-73,148,-19,-129,82,0,-136,-175,-190,-180
-112,-185,-73,148,-19,-129,82,0,-136,-175,-190,-180
-112,-185,-73,148,-19,-129,82,0,-136,-175,-190,-180
-112,-185,-73,148,-19,-129,87,0,-136,-180,-190,-180
-112,-185,-73,148,-19,-129,87,0,-136,-170,-180,-170
-112,-185,-73,148,-19,-129,87,4,-136,-170,-185,-170
-112,-190,-78,151,-17,-134,87,4,-136,-170,-185,-170
-112,-190,-78,151,-17,-134,87,4,-136,-170,-180,-170
-112,-180,-68,146,-21,-124,87,4,-126,-161,-180,-175
-112,-180,-68,146,-21,-124,87,4,-126,-161,-180,-175
-112,-180,-68,146,-21,-124,87,9,-126,-161,-180,-175
-112,-180,-68,146,-21,-124,87,9,-126,-161,-180,-175
-102,-190,-87,146,-7,-139,87,9,-122,-180,-185,-175
-112,-190,-78,151,-17,-134,87,9,-122,-175,-185,-175
-117,-195,-78,156,-19,-136,87,4,-122,-175,-185,-180
-117,-185,-68,151,-24,-126,87,-9,-107,-175,-195,-195
-126,-175,-48,151,-39,-112,87,-24,-97,-175,-195,-195
-156,-165,-9,161,-73,-87,87,-63,-73,-156,-195,-185
-195,-156,39,175,-117,-58,87,-122,-48,-146,-185,-180
-258,-141,117,200,-187,-12,97,-185,-24,-141,-185,-180
-302,-87,214,195,-258,63,82,-273,14,-102,-151,-146
-297,4,302,146,-300,153,24,-366,92,-19,-82,-78
-297,87,385,104,-341,236,-43,-473,122,34,-14,-9
-292,146,439,73,-366,292,-102,-595,117,82,29,34
-278,209,488,34,-383,348,-170,-736,97,131,97,102
-234,302,536,-34,-385,419,-263,-888,68,195,180,195
-175,395,570,-109,-373,483,-366,-1058,4,263,287,312
-117,492,610,-187,-363,551,-473,-1234,-92,336,424,458
-68,610,678,-270,-373,644,-595,-1400,-180,434,570,624
-43,771,814,-363,-429,793,-717,-1595,-214,556,741,805
-34,961,995,-463,-514,978,-824,-1747,-214,717,927,985
-43,1122,1166,-539,-605,1144,-907,-1849,-200,858,1102,1171
-68,1244,1312,-588,-690,1278,-956,-1917,-190,966,1239,1312
-102,1302,1405,-600,-753,1354,-976,-1976,-180,1054,1342,1420
-136,1327,1464,-595,-800,1395,-980,-2020,-146,1098,1395,1473
-146,1229,1376,-541,-761,1302,-922,-1976,-156,1010,1293,1381
-190,990,1180,-400,-685,1085,-785,-1790,-239,732,990,1122
-287,785,1073,-248,-680,929,-614,-1605,-370,409,658,819
-400,692,1093,-146,-746,893,-468,-1483,-478,170,390,605
-468,619,1088,-75,-778,854,-366,-1376,-546,4,214,453
-492,536,1029,-21,-761,783,-263,-1210,-580,-87,92,326
-473,448,922,12,-697,685,-185,-1015,-551,-131,29,239
-419,346,766,36,-592,556,-122,-810,-502,-151,-19,165
-317,239,556,39,-436,397,-73,-600,-419,-151,-43,107
-239,165,405,36,-322,285,-43,-424,-312,-117,-43,73
-170,136,307,17,-239,222,-34,-283,-219,-78,-34,48
-126,102,229,12,-178,165,-19,-175,-151,-63,-34,24
-97,58,156,19,-126,107,0,-97,-112,-58,-53,-4
-78,19,97,29,-87,58,9,-63,-102,-68,-68,-39
-68,-14,53,41,-61,19,29,-34,-97,-58,-73,-63
-53,-39,14,46,-34,-12,48,-4,-87,-58,-73,-63
-53,-58,-4,56,-24,-31,53,14,-73,-68,-78,-68
-53,-73,-19,63,-17,-46,68,24,-68,-73,-92,-78
-48,-82,-34,65,-7,-58,78,29,-58,-82,-102,-87
-48,-87,-39,68,-4,-63,78,39,-48,-92,-107,-92
-48,-87,-39,68,-4,-63,82,53,-48,-92,-107,-92
-58,-92,-34,75,-12,-63,87,68,-48,-97,-112,-102
-58,-112,-53,85,-2,-82,92,73,-58,-102,-126,-122
-48,-122,-73,85,12,-97,87,73,-68,-112,-126,-131
-43,-131,-87,87,21,-109,87,78,-73,-112,-126,-131
-43,-131,-87,87,21,-109,92,82,-73,-112,-126,-131
-43,-131,-87,87,21,-109,92,87,-73,-117,-126,-131
-43,-131,-87,87,21,-109,92,87,-63,-117,-131,-131
-43,-131,-87,87,21,-109,97,87,-63,-117,-131,-131
-43,-131,-87,87,21,-109,97,87,-58,-122,-136,-131
-43,-136,-92,90,24,-114,97,92,-58,-122,-136,-131
-43,-146,-102,95,29,-124,97,92,-58,-122,-136,-146
-43,-146,-102,95,29,-124,97,97,-58,-122,-136,-146
-43,-146,-102,95,29,-124,102,102,-53,-122,-136,-146
-39,-151,-112,95,36,-131,102,102,-48,-122,-136,-146
-39,-141,-102,90,31,-122,97,102,-39,-112,-136,-136
-39,-136,-97,87,29,-117,97,102,-39,-112,-136,-136
-34,-131,-97,82,31,-114,97,107,-39,-112,-136,-136
-34,-131,-97,82,31,-114,97,107,-39,-112,-136,-136
-34,-122,-87,78,26,-104,97,117,-34,-107,-122,-126
-34,-122,-87,78,26,-104,97,122,-34,-107,-122,-126
-34,-126,-92,80,29,-109,97,122,-34,-107,-122,-126
-29,-126,-97,78,34,-112,97,122,-34,-107,-117,-126
-29,-136,-107,82,39,-122,87,112,-39,-107,-117,-136
-29,-131,-102,80,36,-117,87,117,-34,-102,-122,-136
-24,-131,-107,78,41,-119,82,117,-34,-102,-122,-136
-19,-131,-112,75,46,-122,82,117,-34,-102,-122,-131
-19,-131,-112,75,46,-122,92,117,-24,-102,-122,-122
-19,-131,-112,75,46,-122,92,122,-24,-102,-122,-122
-19,-131,-112,75,46,-122,92,122,-24,-102,-122,-122
-19,-131,-112,75,46,-122,92,122,-24,-102,-117,-122
-19,-126,-107,73,43,-117,92,122,-34,-102,-117,-131
-14,-126,-112,70,48,-119,92,122,-29,-97,-117,-131
-14,-126,-112,70,48,-119,87,122,-29,-97,-117,-131
-9,-126,-117,68,53,-122,87,126,-29,-97,-112,-126
-9,-126,-117,68,53,-122,87,136,-19,-97,-112,-117
-9,-122,-112,65,51,-117,87,136,-14,-92,-107,-117
-9,-122,-112,65,51,-117,87,141,-9,-92,-107,-117
-9,-122,-112,65,51,-117,87,141,-9,-92,-107,-117
-9,-122,-112,65,51,-117,97,131,-9,-92,-97,-112
-4,-117,-112,61,53,-114,97,131,-9,-87,-97,-112
-4,-117,-112,61,53,-114,97,136,-9,-87,-97,-107
0,-117,-117,58,58,-117,97,136,-4,-82,-97,-107
0,-126,-126,63,63,-126,87,141,-4,-73,-92,-117
4,-126,-131,61,68,-129,82,146,0,-73,-92,-117
4,-131,-136,63,70,-134,82,146,0,-68,-92,-117
4,-131,-136,63,70,-134,82,151,4,-68,-87,-112
9,-126,-136,58,73,-131,82,151,0,-68,-92,-97
14,-126,-141,56,78,-134,82,151,0,-68,-87,-97
14,-126,-141,56,78,-134,82,161,4,-63,-87,-97
14,-122,-136,53,75,-129,82,161,4,-58,-82,-97
24,-112,-136,43,80,-124,78,175,19,-58,-92,-97
24,-112,-136,43,80,-124,78,175,24,-58,-92,-92
24,-112,-136,43,80,-124,78,180,24,-58,-82,-92
24,-107,-131,41,78,-119,78,180,24,-48,-82,-92
24,-107,-131,41,78,-119,78,190,29,-48,-73,-87
34,-107,-141,36,87,-124,78,190,39,-48,-68,-87
34,-102,-136,34,85,-119,78,195,43,-39,-68,-87
34,-102,-136,34,85,-119,78,200,43,-39,-63,-87
43,-97,-141,26,92,-119,78,190,39,-43,-53,-82
48,-97,-146,24,97,-122,78,190,43,-39,-48,-78
53,-97,-151,21,102,-124,68,200,48,-34,-43,-78
53,-92,-146,19,100,-119,68,204,48,-24,-43,-73
58,-92,-151,17,104,-122,68,219,68,-19,-48,-73
63,-92,-156,14,109,-124,68,224,73,-19,-43,-63
68,-82,-151,7,109,-117,68,229,82,-19,-39,-63
73,-78,-151,2,112,-114,63,234,87,-14,-34,-63
78,-78,-156,0,117,-117,63,239,87,-9,-29,-63
82,-78,-161,-2,122,-119,63,244,92,0,-19,-58
87,-78,-165,-4,126,-122,63,248,97,4,-19,-53
92,-73,-165,-9,129,-119,53,258,102,4,-19,-53
107,-68,-175,-19,141,-122,53,253,112,14,-14,-48
117,-63,-180,-26,148,-122,43,258,122,19,-4,-43
122,-53,-175,-34,148,-114,39,263,122,24,0,-39
131,-48,-180,-41,156,-114,34,268,131,29,4,-34
126,-53,-180,-36,153,-117,34,287,136,39,9,-14
136,-43,-180,-46,158,-112,34,292,146,43,24,-9
146,-39,-185,-53,165,-112,29,307,156,58,34,-4
156,-34,-190,-61,173,-112,24,307,165,73,48,4
165,-24,-190,-70,178,-107,14,307,175,82,48,14
180,-14,-195,-82,187,-104,9,312,190,92,53,24
190,4,-185,-97,187,-90,4,317,200,102,63,34
204,19,-185,-112,195,-82,0,326,209,102,73,43
214,19,-195,-117,204,-87,4,341,219,126,92,48
224,24,-200,-124,212,-87,0,346,229,136,102,58
239,34,-204,-136,222,-85,-14,356,244,146,117,68
253,43,-209,-148,231,-82,-19,361,248,156,126,78
263,63,-200,-163,231,-68,-29,356,248,165,141,92
273,73,-200,-173,236,-63,-29,361,258,170,161,107
292,87,-204,-190,248,-58,-43,366,268,185,170,117
297,107,-190,-202,244,-41,-53,370,278,200,185,126
317,102,-214,-209,265,-56,-63,385,297,219,200,141
331,112,-219,-222,275,-53,-63,390,307,234,214,161
341,122,-219,-231,280,-48,-78,395,312,248,229,175
361,136,-224,-248,292,-43,-82,395,322,263,244,190
375,146,-229,-261,302,-41,-102,395,322,268,258,204
390,161,-229,-275,309,-34,-112,395,322,283,278,219
405,180,-224,-292,314,-21,-122,400,336,292,292,234
419,200,-219,-309,319,-9,-141,400,341,307,307,248
434,219,-214,-326,324,2,-141,409,356,331,331,263
448,234,-214,-341,331,9,-156,409,361,341,351,278
468,248,-219,-358,344,14,-161,409,366,356,370,297
473,253,-219,-363,346,17,-175,405,370,370,385,312
473,258,-214,-366,344,21,-180,395,366,366,385,326
483,278,-204,-380,344,36,-195,395,370,385,405,341
497,287,-209,-392,353,39,-209,385,375,390,419,356
507,297,-209,-402,358,43,-214,380,380,400,424,370
527,312,-214,-419,370,48,-229,380,380,409,429,366
531,322,-209,-427,370,56,-239,375,380,419,444,380
536,336,-200,-436,368,68,-248,370,380,429,453,390
541,351,-190,-446,366,80,-253,361,380,429,468,400
536,356,-180,-446,358,87,-258,351,380,429,478,409
536,366,-170,-451,353,97,-263,341,380,434,483,424
541,366,-175,-453,358,95,-268,331,375,444,483,429
541,370,-170,-456,356,100,-273,312,366,444,488,434
531,375,-156,-453,344,109,-287,297,361,444,492,439
522,380,-141,-451,331,119,-287,278,346,444,492,444
512,390,-122,-451,317,134,-287,263,341,444,492,444
497,390,-107,-444,302,141,-287,244,326,434,492,439
483,390,-92,-436,287,148,-278,239,317,434,473,439
468,390,-78,-429,273,156,-278,224,307,419,468,429
453,390,-63,-422,258,163,-273,209,292,409,453,429
439,380,-58,-409,248,161,-268,195,283,395,444,414
414,356,-58,-385,236,148,-258,170,273,380,439,395
390,346,-43,-368,217,151,-253,156,263,370,424,375
370,336,-34,-353,202,151,-244,146,248,356,409,366
361,331,-29,-346,195,151,-239,131,234,341,395,351
341,317,-24,-329,183,146,-234,131,219,322,370,346
322,307,-14,-314,168,146,-229,122,204,297,356,331
307,287,-19,-297,163,134,-214,102,190,287,331,312
283,268,-14,-275,148,126,-204,97,175,263,307,292
253,248,-4,-251,129,122,-185,78,156,258,297,268
234,234,0,-234,117,117,-175,68,141,244,278,248
214,214,0,-214,107,107,-165,58,126,229,258,229
200,200,0,-200,100,100,-151,53,122,209,239,214
180,195,14,-187,82,104,-151,43,117,180,219,204
165,185,19,-175,73,102,-141,39,107,161,200,185
146,170,24,-158,61,97,-131,34,97,146,180,165
136,156,19,-146,58,87,-117,29,82,131,165,146
122,141,19,-131,51,80,-107,14,73,126,151,146
112,131,19,-122,46,75,-97,14,63,117,131,126
97,117,19,-107,39,68,-87,9,53,102,122,112
92,102,9,-97,41,56,-78,4,48,87,102,97
78,97,19,-87,29,58,-68,14,39,78,87,82
63,82,19,-73,21,51,-58,4,34,63,73,73
48,68,19,-58,14,43,-48,4,24,53,58,58
43,58,14,-51,14,36,-43,0,24,34,43,48
34,48,14,-41,9,31,-34,0,4,39,34,34
24,29,4,-26,9,17,-34,0,0,29,29,29
14,14,0,-14,7,7,-24,0,-4,19,19,14
4,0,-4,-2,4,-2,-9,0,-9,14,9,4
9,-4,-14,-2,12,-9,-19,0,0,4,9,0
0,-4,-4,2,2,-4,-14,0,-4,-4,0,-4
0,-9,-9,4,4,-9,-14,0,-14,-4,-4,-14
-9,-9,0,9,-4,-4,-9,0,-14,-9,-9,-19
-14,-19,-4,17,-4,-12,4,0,-4,-14,-14,-19
-19,-24,-4,21,-7,-14,9,0,-9,-19,-14,-24
-24,-29,-4,26,-9,-17,14,0,-14,-24,-19,-24
-29,-34,-4,31,-12,-19,19,0,-14,-29,-24,-29
-34,-34,0,34,-17,-17,24,-9,-29,-34,-39,-43
-34,-39,-4,36,-14,-21,24,-9,-29,-39,-43,-43
-34,-43,-9,39,-12,-26,24,-9,-29,-43,-48,-48
-43,-43,0,43,-21,-21,29,-9,-29,-43,-48,-53
-43,-53,-9,48,-17,-31,29,0,-34,-48,-53,-48
-48,-63,-14,56,-17,-39,29,0,-34,-53,-58,-58
-48,-63,-14,56,-17,-39,34,-4,-34,-58,-63,-63
-48,-63,-14,56,-17,-39,34,-4,-39,-58,-68,-63
-58,-68,-9,63,-24,-39,39,-4,-39,-58,-58,-63
-58,-78,-19,68,-19,-48,39,-4,-39,-58,-58,-63
-63,-78,-14,70,-24,-46,39,0,-39,-58,-63,-63
-63,-78,-14,70,-24,-46,39,0,-39,-58,-63,-63
-63,-68,-4,65,-29,-36,43,0,-39,-58,-63,-73
-68,-68,0,68,-34,-34,43,0,-39,-58,-68,-73
-68,-58,9,63,-39,-24,43,0,-39,-58,-68,-73
-68,-58,9,63,-39,-24,43,0,-43,-63,-73,-78
-58,-73,-14,65,-21,-43,43,-9,-43,-63,-73,-78
-63,-73,-9,68,-26,-41,43,-9,-43,-63,-73,-78
-63,-73,-9,68,-26,-41,48,-9,-43,-68,-73,-82
-63,-73,-9,68,-26,-41,48,-9,-39,-68,-73,-82
-63,-82,-19,73,-21,-51,53,0,-48,-73,-82,-82
-63,-87,-24,75,-19,-56,53,4,-48,-73,-82,-82
-63,-87,-24,75,-19,-56,58,4,-48,-73,-82,-82
-68,-92,-24,80,-21,-58,58,4,-48,-73,-82,-87
-68,-92,-24,80,-21,-58,58,4,-39,-68,-87,-78
-68,-92,-24,80,-21,-58,58,4,-39,-68,-87,-78
-68,-92,-24,80,-21,-58,58,9,-39,-68,-87,-78
-68,-92,-24,80,-21,-58,58,9,-39,-68,-87,-82
-68,-92,-24,80,-21,-58,58,9,-39,-68,-78,-82
-68,-92,-24,80,-21,-58,58,9,-39,-68,-78,-82
-68,-92,-24,80,-21,-58,58,14,-39,-68,-82,-82
-68,-92,-24,80,-21,-58,58,14,-39,-68,-82,-82
-68,-92,-24,80,-21,-58,58,14,-29,-68,-82,-87
-68,-97,-29,82,-19,-63,58,14,-29,-68,-82,-87
-68,-107,-39,87,-14,-73,58,14,-29,-73,-82,-87
-68,-97,-29,82,-19,-63,63,19,-29,-73,-82,-87
-68,-97,-29,82,-19,-63,53,19,-34,-73,-82,-87
-68,-97,-29,82,-19,-63,53,19,-34,-73,-87,-87
-68,-97,-29,82,-19,-63,58,19,-34,-73,-87,-87
-68,-97,-29,82,-19,-63,58,19,-34,-73,-87,-87
-68,-97,-29,82,-19,-63,68,24,-43,-73,-87,-87
-68,-97,-29,82,-19,-63,68,24,-39,-73,-87,-92
-68,-97,-29,82,-19,-63,68,24,-39,-73,-92,-92
-68,-97,-29,82,-19,-63,68,24,-39,-73,-92,-92
-68,-102,-34,85,-17,-68,68,24,-29,-73,-87,-92
-68,-102,-34,85,-17,-68,68,24,-29,-78,-82,-92
-68,-102,-34,85,-17,-68,73,29,-34,-78,-82,-97
-68,-102,-34,85,-17,-68,73,29,-34,-78,-82,-97
-68,-102,-34,85,-17,-68,68,24,-34,-78,-92,-97
-68,-102,-34,85,-17,-68,68,24,-39,-78,-92,-97
-68,-102,-34,85,-17,-68,68,24,-39,-78,-97,-97
-68,-102,-34,85,-17,-68,68,29,-39,-73,-97,-97
-68,-102,-34,85,-17,-68,68,29,-29,-63,-87,-87
-68,-102,-34,85,-17,-68,68,29,-29,-68,-87,-87
-68,-102,-34,85,-17,-68,68,29,-29,-68,-87,-87
-68,-102,-34,85,-17,-68,68,29,-29,-63,-87,-87
-68,-92,-24,80,-21,-58,68,29,-19,-63,-78,-78
-68,-92,-24,80,-21,-58,73,29,-19,-63,-78,-78
-68,-92,-24,80,-21,-58,73,29,-19,-63,-78,-78
-68,-92,-24,80,-21,-58,73,29,-19,-63,-78,-78
-68,-102,-34,85,-17,-68,73,19,-29,-63,-78,-87
-68,-102,-34,85,-17,-68,73,19,-29,-63,-78,-87
-63,-97,-34,80,-14,-65,68,19,-29,-63,-78,-92
-63,-97,-34,80,-14,-65,68,19,-29,-63,-78,-92
-63,-102,-39,82,-12,-70,68,29,-29,-63,-87,-92
-63,-102,-39,82,-12,-70,73,29,-29,-63,-87,-92
-63,-102,-39,82,-12,-70,73,29,-29,-63,-87,-92
-63,-102,-39,82,-12,-70,68,24,-24,-63,-87,-92
-73,-107,-34,90,-19,-70,68,24,-24,-73,-87,-82
-73,-107,-34,90,-19,-70,73,29,-29,-73,-87,-82
-73,-107,-34,90,-19,-70,73,29,-29,-73,-87,-82
-73,-102,-29,87,-21,-65,68,29,-29,-73,-87,-82
-68,-102,-34,85,-17,-68,68,29,-29,-63,-87,-82
-68,-102,-34,85,-17,-68,68,29,-29,-63,-87,-82
-68,-102,-34,85,-17,-68,68,29,-29,-63,-87,-78
-68,-102,-34,85,-17,-68,68,24,-29,-63,-87,-78
-63,-102,-39,82,-12,-70,78,24,-29,-63,-78,-78
-63,-102,-39,82,-12,-70,78,24,-34,-63,-82,-82
-63,-102,-39,82,-12,-70,78,24,-34,-63,-82,-82
-63,-102,-39,82,-12,-70,78,24,-34,-63,-82,-82
-63,-102,-39,82,-12,-70,68,24,-34,-73,-78,-82
-63,-102,-39,82,-12,-70,68,24,-34,-73,-78,-82
-63,-102,-39,82,-12,-70,68,24,-34,-73,-78,-82
-63,-102,-39,82,-12,-70,68,24,-34,-73,-78,-82
-53,-92,-39,73,-7,-65,58,24,-34,-73,-87,-92
-53,-92,-39,73,-7,-65,58,19,-39,-73,-92,-92
-53,-92,-39,73,-7,-65,58,19,-39,-78,-97,-92
-53,-92,-39,73,-7,-65,58,19,-39,-78,-97,-92
-63,-102,-39,82,-12,-70,58,19,-29,-73,-87,-82
-63,-102,-39,82,-12,-70,58,19,-29,-73,-87,-82
-63,-102,-39,82,-12,-70,58,19,-34,-73,-87,-82
-63,-102,-39,82,-12,-70,58,19,-34,-73,-87,-87
-63,-107,-43,85,-9,-75,68,19,-34,-73,-87,-87
-63,-107,-43,85,-9,-75,68,19,-34,-68,-82,-82
-63,-107,-43,85,-9,-75,68,19,-34,-68,-82,-82
-63,-107,-43,85,-9,-75,68,19,-34,-68,-87,-82
-63,-107,-43,85,-9,-75,68,14,-34,-68,-87,-82
-63,-107,-43,85,-9,-75,63,14,-34,-68,-87,-82
-63,-107,-43,85,-9,-75,63,14,-34,-68,-87,-82
-68,-102,-34,85,-17,-68,63,14,-39,-73,-87,-82
-58,-102,-43,80,-7,-73,63,9,-39,-82,-87,-82
-58,-102,-43,80,-7,-73,63,9,-39,-82,-87,-87
-58,-102,-43,80,-7,-73,58,9,-39,-82,-87,-87
-53,-102,-48,78,-2,-75,58,9,-39,-82,-87,-87
-63,-102,-39,82,-12,-70,63,9,-39,-73,-87,-97
-68,-102,-34,85,-17,-68,63,9,-39,-78,-92,-97
-68,-107,-39,87,-14,-73,63,9,-43,-78,-92,-102
-63,-107,-43,85,-9,-75,63,9,-43,-78,-97,-102
-63,-107,-43,85,-9,-75,53,9,-53,-78,-97,-92
-68,-107,-39,87,-14,-73,53,9,-53,-78,-97,-92
-68,-102,-34,85,-17,-68,53,4,-53,-78,-97,-92
-68,-102,-34,85,-17,-68,48,4,-53,-78,-97,-92
-68,-107,-39,87,-14,-73,58,4,-53,-82,-97,-92
-68,-112,-43,90,-12,-78,58,4,-53,-82,-97,-92
-68,-112,-43,90,-12,-78,63,4,-53,-82,-97,-92
-68,-107,-39,87,-14,-73,63,4,-53,-82,-97,-92
-68,-102,-34,85,-17,-68,63,4,-43,-73,-87,-102
-68,-102,-34,85,-17,-68,63,0,-48,-73,-87,-102
-68,-107,-39,87,-14,-73,63,0,-48,-73,-87,-102
-68,-107,-39,87,-14,-73,63,0,-48,-73,-87,-102
-58,-97,-39,78,-9,-68,63,0,-48,-82,-102,-102
-58,-97,-39,78,-9,-68,63,0,-48,-82,-102,-102
-58,-97,-39,78,-9,-68,63,0,-53,-82,-97,-102
-58,-97,-39,78,-9,-68,63,-4,-53,-82,-92,-97
-68,-107,-39,87,-14,-73,63,-4,-53,-82,-92,-97
-68,-107,-39,87,-14,-73,63,-4,-53,-82,-97,-97
-68,-107,-39,87,-14,-73,63,-4,-53,-82,-97,-97
-68,-112,-43,90,-12,-78,63,-4,-48,-82,-97,-97
-68,-107,-39,87,-14,-73,63,-4,-58,-82,-107,-102
-73,-107,-34,90,-19,-70,63,-4,-63,-82,-107,-102
-73,-102,-29,87,-21,-65,63,-4,-63,-82,-107,-102
-73,-102,-29,87,-21,-65,63,-4,-58,-82,-107,-102
-73,-112,-39,92,-17,-75,63,-4,-48,-82,-97,-102
-73,-107,-34,90,-19,-70,63,-4,-48,-87,-97,-102
-73,-107,-34,90,-19,-70,63,-4,-53,-87,-97,-102
-73,-107,-34,90,-19,-70,63,-4,-53,-87,-97,-102
-68,-107,-39,87,-14,-73,63,-4,-63,-87,-107,-112
-68,-107,-39,87,-14,-73,63,-4,-63,-87,-107,-112
-68,-112,-43,90,-12,-78,63,-4,-58,-87,-107,-107
-68,-112,-43,90,-12,-78,63,-4,-58,-87,-107,-107
-68,-112,-43,90,-12,-78,63,-14,-58,-87,-107,-107
-68,-112,-43,90,-12,-78,63,-9,-58,-87,-107,-107
-68,-117,-48,92,-9,-82,63,-9,-58,-87,-107,-107
-73,-117,-43,95,-14,-80,63,-9,-63,-92,-107,-107
-73,-107,-34,90,-19,-70,53,-9,-53,-97,-97,-107
-73,-107,-34,90,-19,-70,53,-9,-53,-97,-102,-107
-73,-102,-29,87,-21,-65,53,-9,-53,-92,-102,-107
-73,-102,-29,87,-21,-65,53,-9,-58,-92,-102,-112
-73,-117,-43,95,-14,-80,63,-4,-58,-92,-112,-102
-73,-117,-43,95,-14,-80,63,-4,-58,-92,-112,-102
-73,-117,-43,95,-14,-80,63,-4,-58,-92,-112,-102
-73,-117,-43,95,-14,-80,63,-4,-58,-92,-112,-102
-73,-112,-39,92,-17,-75,63,-4,-58,-97,-122,-97
-73,-112,-39,92,-17,-75,63,0,-58,-97,-117,-97
-73,-112,-39,92,-17,-75,63,0,-53,-97,-117,-102
-63,-112,-48,87,-7,-80,63,0,-53,-97,-117,-102
-73,-112,-39,92,-17,-75,63,-9,-58,-97,-117,-112
-73,-112,-39,92,-17,-75,63,-9,-63,-97,-112,-112
-73,-112,-39,92,-17,-75,63,-9,-68,-97,-112,-107
-73,-117,-43,95,-14,-80,63,-9,-68,-97,-112,-102
-78,-117,-39,97,-19,-78,63,-9,-63,-97,-102,-112
-78,-117,-39,97,-19,-78,63,-9,-63,-97,-107,-112
-78,-117,-39,97,-19,-78,63,-9,-63,-97,-107,-112
-82,-117,-34,100,-24,-75,63,-9,-58,-97,-107,-112
-73,-117,-43,95,-14,-80,63,-9,-63,-97,-107,-102
-73,-117,-43,95,-14,-80,63,-9,-63,-97,-107,-102
-73,-112,-39,92,-17,-75,58,-4,-63,-97,-107,-102
-73,-112,-39,92,-17,-75,58,-4,-63,-97,-107,-102
-73,-112,-39,92,-17,-75,73,-14,-63,-97,-107,-112
-73,-107,-34,90,-19,-70,73,-14,-63,-97,-107,-112
-73,-107,-34,90,-19,-70,73,-14,-58,-97,-107,-112
-78,-107,-29,92,-24,-68,73,-14,-58,-97,-107,-112
-68,-112,-43,90,-12,-78,78,-4,-68,-97,-107,-102
-68,-112,-43,90,-12,-78,78,-9,-68,-97,-102,-107
-68,-107,-39,87,-14,-73,78,-9,-68,-97,-102,-107
-68,-107,-39,87,-14,-73,78,-9,-68,-97,-102,-107
-68,-97,-29,82,-19,-63,68,0,-58,-87,-92,-97
-68,-97,-29,82,-19,-63,68,4,-58,-87,-102,-97
-53,-87,-34,70,-9,-61,63,4,-48,-87,-102,-92
-48,-58,-9,53,-19,-34,58,0,-48,-87,-87,-87
-48,-58,-9,53,-19,-34,58,9,-43,-82,-78,-78
-48,-58,-9,53,-19,-34,58,9,-39,-78,-78,-78
-48,-58,-9,53,-19,-34,58,9,-34,-73,-78,-78
-48,-58,-9,53,-19,-34,58,9,-29,-68,-78,-78
-39,-53,-14,46,-12,-34,58,19,-19,-68,-68,-78
-39,-48,-9,43,-14,-29,58,19,-19,-68,-68,-78
-39,-43,-4,41,-17,-24,58,19,-14,-63,-68,-73
-39,-34,4,36,-21,-14,58,24,-9,-58,-68,-73
-29,-14,14,21,-21,0,58,29,0,-43,-58,-63
-29,-9,19,19,-24,4,53,29,4,-43,-53,-58
-19,-4,14,12,-17,4,48,29,9,-43,-53,-58
-14,9,24,2,-19,17,43,34,14,-29,-48,-53
-14,9,24,2,-19,17,24,24,9,-24,-43,-48
-9,24,34,-7,-21,29,19,29,19,-19,-39,-39
-4,34,39,-14,-21,36,14,29,34,-9,-29,-34
-4,48,53,-21,-29,51,4,29,34,-4,-19,-29
-14,68,82,-26,-48,75,0,4,39,0,-19,-19
-14,78,92,-31,-53,85,-9,-9,43,9,-14,-4
-9,87,97,-39,-53,92,-24,-29,48,14,-9,0
-9,97,107,-43,-58,102,-34,-43,48,14,-4,4
-9,92,102,-41,-56,97,-39,-48,39,4,-4,4
-9,92,102,-41,-56,97,-48,-58,39,9,-4,4
-9,92,102,-41,-56,97,-58,-63,34,9,0,4
-14,87,102,-36,-58,95,-58,-78,34,9,0,4
-14,87,102,-36,-58,95,-53,-68,34,24,0,0
-9,87,97,-39,-53,92,-58,-68,34,24,0,0
-9,92,102,-41,-56,97,-58,-68,34,24,0,0
-4,97,102,-46,-53,100,-53,-68,34,24,4,9
4,102,97,-53,-46,100,-63,-58,34,14,14,9
14,107,92,-61,-39,100,-63,-58,34,24,14,14
14,107,92,-61,-39,100,-68,-58,34,24,19,14
14,107,92,-61,-39,100,-68,-58,34,24,19,14
14,92,78,-53,-31,85,-68,-68,34,24,9,19
19,87,68,-53,-24,78,-63,-68,29,14,4,19
19,73,53,-46,-17,63,-63,-68,24,14,4,9
19,68,48,-43,-14,58,-63,-63,19,9,-4,9
9,43,34,-26,-12,39,-48,-58,4,4,-9,-4
9,29,19,-19,-4,24,-34,-58,-9,-4,-19,-9
0,14,14,-7,-7,14,-24,-58,-14,-9,-19,-14
-4,9,14,-2,-9,12,-14,-48,-14,-14,-24,-19
-9,9,19,0,-14,14,-9,-48,-9,-14,-29,-14
-14,4,19,4,-17,12,-4,-43,-19,-24,-34,-19
-24,-9,14,17,-19,2,0,-39,-19,-34,-43,-29
-24,-29,-4,26,-9,-17,4,-39,-29,-43,-53,-43
-53,-39,14,46,-34,-12,14,-39,-39,-53,-73,-68
-63,-63,0,63,-31,-31,29,-29,-48,-68,-87,-82
-68,-82,-14,75,-26,-48,39,-29,-58,-87,-102,-97
-78,-97,-19,87,-29,-58,48,-29,-68,-87,-107,-102
-78,-117,-39,97,-19,-78,48,-29,-73,-97,-102,-112
-82,-122,-39,102,-21,-80,53,-29,-73,-97,-102,-112
-87,-131,-43,109,-21,-87,53,-29,-82,-107,-107,-117
-87,-136,-48,112,-19,-92,53,-29,-82,-112,-117,-122
-78,-126,-48,102,-14,-87,53,-19,-87,-122,-126,-117
-78,-131,-53,104,-12,-92,58,-19,-87,-122,-131,-122
-78,-131,-53,104,-12,-92,58,-19,-92,-122,-136,-126
-78,-141,-63,109,-7,-102,58,-19,-92,-122,-141,-126
-78,-131,-53,104,-12,-92,63,-24,-92,-117,-131,-126
-78,-136,-58,107,-9,-97,63,-24,-92,-117,-131,-126
-78,-136,-58,107,-9,-97,63,-19,-92,-117,-131,-126
-82,-141,-58,112,-12,-100,68,-19,-92,-122,-131,-131
-92,-151,-58,122,-17,-104,58,-19,-92,-122,-131,-136
-97,-151,-53,124,-21,-102,63,-19,-92,-126,-131,-136
-97,-151,-53,124,-21,-102,63,-14,-92,-126,-131,-136
-102,-161,-58,131,-21,-109,63,-14,-92,-126,-136,-136
-92,-161,-68,126,-12,-114,63,-14,-97,-141,-156,-136
-92,-165,-73,129,-9,-119,63,-14,-97,-141,-156,-141
-92,-165,-73,129,-9,-119,68,-14,-97,-141,-151,-141
-92,-165,-73,129,-9,-119,68,-14,-97,-141,-151,-146
-92,-175,-82,134,-4,-129,78,-14,-102,-136,-151,-146
-92,-175,-82,134,-4,-129,78,-14,-102,-136,-151,-146
-92,-170,-78,131,-7,-124,78,-9,-102,-136,-156,-151
-92,-170,-78,131,-7,-124,82,-9,-102,-136,-156,-151
-102,-170,-68,136,-17,-119,82,-9,-92,-136,-151,-151
-102,-175,-73,139,-14,-124,82,-9,-92,-136,-151,-151
-102,-175,-73,139,-14,-124,82,-9,-97,-136,-151,-151
-102,-175,-73,139,-14,-124,82,-9,-97,-136,-151,-151
-102,-175,-73,139,-14,-124,73,-9,-107,-136,-161,-151
-102,-175,-73,139,-14,-124,78,-9,-107,-141,-161,-151
-102,-175,-73,139,-14,-124,78,-9,-107,-141,-161,-151
-102,-175,-73,139,-14,-124,78,-4,-107,-141,-165,-151
-102,-170,-68,136,-17,-119,78,-4,-107,-141,-165,-151
-102,-170,-68,136,-17,-119,78,-4,-107,-141,-161,-151
-102,-170,-68,136,-17,-119,78,-4,-107,-141,-161,-156
-102,-170,-68,136,-17,-119,78,-4,-107,-141,-161,-156
-102,-180,-78,141,-12,-129,87,-9,-97,-131,-161,-156
-102,-180,-78,141,-12,-129,87,-9,-97,-131,-161,-156
-102,-180,-78,141,-12,-129,87,-9,-92,-131,-165,-156
-102,-180,-78,141,-12,-129,87,-19,-92,-136,-165,-156
-107,-175,-68,141,-19,-122,78,-14,-92,-136,-165,-161
-107,-185,-78,146,-14,-131,78,-9,-97,-146,-165,-165
-117,-185,-68,151,-24,-126,87,-24,-87,-146,-165,-175
-136,-165,-29,151,-53,-97,87,-53,-63,-136,-165,-165
-165,-156,9,161,-87,-73,78,-102,-39,-126,-165,-161
-219,-151,68,185,-143,-41,78,-165,-24,-131,-165,-170
-283,-136,146,209,-214,4,73,-253,4,-112,-161,-165
-317,-73,244,195,-280,85,53,-336,63,-48,-102,-107
-307,9,317,148,-312,163,-4,-424,131,34,-24,-29
-302,87,390,107,-346,239,-63,-556,156,82,39,34
-287,161,448,63,-368,305,-122,-688,156,131,87,92
-253,244,497,4,-375,370,-204,-819,126,185,161,175
-204,336,541,-65,-373,439,-307,-990,92,253,258,283
-146,434,580,-143,-363,507,-424,-1185,14,326,375,400
-87,541,629,-226,-358,585,-546,-1371,-82,385,492,536
-53,663,717,-305,-385,690,-658,-1556,-146,488,624,688
-43,824,868,-390,-456,846,-766,-1747,-146,629,810,878
-34,1005,1039,-485,-536,1022,-858,-1888,-141,790,1015,1073
-39,1156,1195,-558,-617,1176,-917,-1966,-141,917,1171,1234
-82,1234,1317,-575,-700,1276,-956,-2015,-131,1005,1273,1342
-126,1288,1415,-580,-771,1351,-971,-2078,-97,1078,1366,1434
-146,1278,1424,-566,-785,1351,-961,-2093,-87,1078,1351,1439
-170,1098,1268,-463,-719,1183,-873,-1956,-131,878,1146,1239
-239,844,1083,-302,-661,963,-712,-1742,-253,556,795,936
-351,673,1024,-161,-688,849,-556,-1600,-370,278,497,683
-439,610,1049,-85,-744,829,-424,-1493,-468,92,292,522
-492,546,1039,-26,-766,793,-312,-1346,-531,-29,170,395
-502,478,980,12,-741,729,-224,-1161,-531,-92,87,297
-448,385,834,31,-641,610,-151,-956,-492,-112,29,224
-356,287,644,34,-500,466,-102,-736,-429,-122,-14,146
-268,195,463,36,-366,329,-73,-531,-331,-97,-14,102
-190,146,336,21,-263,241,-53,-361,-229,-58,-14,87
-126,112,239,7,-183,175,-39,-234,-141,-43,-14,63
-97,68,165,14,-131,117,-9,-146,-92,-29,-24,34
-78,29,107,24,-92,68,9,-92,-73,-29,-29,0
-58,4,63,26,-61,34,29,-53,-68,-29,-34,-24
-43,-19,24,31,-34,2,39,-24,-58,-29,-34,-34
-34,-48,-14,41,-9,-31,43,-4,-53,-29,-39,-48
-34,-63,-29,48,-2,-46,48,14,-48,-34,-53,-48
-39,-73,-34,56,-2,-53,58,19,-39,-53,-73,-58
-39,-78,-39,58,0,-58,58,19,-39,-63,-87,-73
-39,-87,-48,63,4,-68,63,24,-29,-82,-97,-82
-39,-102,-63,70,12,-82,78,39,-29,-78,-102,-92
-48,-112,-63,80,7,-87,82,53,-29,-73,-97,-102
-48,-122,-73,85,12,-97,87,63,-39,-82,-107,-112
-43,-131,-87,87,21,-109,87,68,-43,-82,-107,-112
-43,-131,-87,87,21,-109,92,73,-43,-82,-107,-112
-43,-131,-87,87,21,-109,92,78,-43,-87,-107,-112
-43,-131,-87,87,21,-109,92,78,-43,-87,-112,-112
-43,-131,-87,87,21,-109,97,78,-43,-87,-112,-112
-43,-131,-87,87,21,-109,97,78,-39,-92,-117,-112
-43,-136,-92,90,24,-114,97,82,-39,-92,-117,-112
-34,-136,-102,85,34,-119,87,73,-39,-92,-107,-117
-34,-136,-102,85,34,-119,87,78,-39,-92,-107,-117
-34,-136,-102,85,34,-119,92,82,-34,-92,-107,-117
-29,-141,-112,85,41,-126,92,82,-29,-92,-107,-117
-29,-151,-122,90,46,-136,97,92,-29,-92,-117,-126
-29,-146,-117,87,43,-131,97,92,-29,-92,-117,-126
-24,-141,-117,82,46,-129,97,97,-29,-92,-117,-126
-24,-141,-117,82,46,-129,97,97,-29,-92,-117,-126
-24,-141,-117,82,46,-129,97,97,-24,-87,-112,-117
-24,-141,-117,82,46,-129,97,102,-24,-87,-112,-117
-24,-146,-122,85,48,-134,97,102,-24,-87,-112,-117
-19,-146,-126,82,53,-136,97,102,-24,-87,-107,-117
-19,-136,-117,78,48,-126,87,102,-29,-87,-107,-117
-19,-131,-112,75,46,-122,87,107,-24,-82,-112,-117
-14,-131,-117,73,51,-124,82,107,-24,-82,-112,-117
-9,-131,-122,70,56,-126,82,107,-24,-82,-112,-112
-9,-122,-112,65,51,-117,82,107,-14,-82,-102,-112
-9,-122,-112,65,51,-117,82,112,-14,-82,-102,-112
-9,-122,-112,65,51,-117,82,112,-14,-82,-102,-112
-9,-122,-112,65,51,-117,82,112,-14,-82,-97,-112
-9,-117,-107,63,48,-112,82,112,-14,-82,-97,-112
-4,-117,-112,61,53,-114,82,112,-9,-78,-97,-112
-4,-117,-112,61,53,-114,78,112,-9,-78,-97,-112
0,-117,-117,58,58,-117,78,117,-9,-78,-92,-107
0,-117,-117,58,58,-117,78,107,-9,-78,-92,-107
0,-112,-112,56,56,-112,78,107,-4,-73,-87,-107
0,-112,-112,56,56,-112,78,112,0,-73,-87,-107
0,-112,-112,56,56,-112,78,112,0,-73,-87,-107
0,-122,-122,61,61,-122,78,122,0,-73,-97,-112
4,-117,-122,56,63,-119,78,122,0,-68,-97,-112
4,-117,-122,56,63,-119,78,126,0,-68,-97,-107
9,-117,-126,53,68,-122,78,126,4,-63,-97,-107
9,-107,-117,48,63,-112,78,122,4,-63,-82,-102
14,-107,-122,46,68,-114,73,126,9,-63,-82,-97
14,-112,-126,48,70,-119,73,126,9,-58,-82,-92
14,-112,-126,48,70,-119,73,131,14,-58,-78,-82
19,-97,-117,39,68,-107,73,141,19,-58,-82,-87
24,-97,-122,36,73,-109,73,141,19,-58,-78,-87
24,-97,-122,36,73,-109,73,151,24,-53,-78,-87
24,-92,-117,34,70,-104,73,151,24,-48,-73,-87
34,-102,-136,34,85,-119,68,156,19,-48,-73,-87
34,-102,-136,34,85,-119,68,156,24,-48,-73,-82
34,-102,-136,34,85,-119,68,161,24,-48,-63,-82
34,-97,-131,31,82,-114,68,161,24,-39,-63,-82
34,-97,-131,31,82,-114,58,170,39,-39,-53,-68
43,-97,-141,26,92,-119,58,170,48,-39,-48,-68
43,-92,-136,24,90,-114,58,175,53,-29,-48,-68
43,-92,-136,24,90,-114,58,180,53,-29,-43,-68
53,-97,-151,21,102,-124,68,180,48,-24,-43,-73
58,-97,-156,19,107,-126,68,180,53,-19,-39,-68
63,-97,-161,17,112,-129,58,190,58,-14,-34,-68
63,-92,-156,14,109,-124,58,195,58,-4,-34,-63
78,-92,-170,7,124,-131,58,209,78,0,-39,-53
82,-92,-175,4,129,-134,58,214,82,0,-34,-43
87,-82,-170,-2,129,-126,58,219,92,0,-29,-43
92,-78,-170,-7,131,-124,53,224,97,4,-24,-43
87,-68,-156,-9,122,-112,53,229,97,0,-9,-43
92,-68,-161,-12,126,-114,53,234,102,9,0,-39
97,-68,-165,-14,131,-117,53,239,107,14,0,-34
102,-63,-165,-19,134,-114,43,248,112,14,0,-34
117,-58,-175,-29,146,-117,43,253,112,24,-4,-29
126,-53,-180,-36,153,-117,34,258,122,29,4,-24
131,-43,-175,-43,153,-109,29,263,122,34,9,-19
141,-39,-180,-51,161,-109,24,268,131,39,14,-14
146,-43,-190,-51,168,-117,24,278,146,58,29,-4
156,-34,-190,-61,173,-112,24,283,156,63,43,0
165,-29,-195,-68,180,-112,19,297,165,78,53,4
175,-24,-200,-75,187,-112,14,297,175,92,68,14
165,-19,-185,-73,175,-102,14,317,185,102,78,24
180,-14,-195,-82,187,-104,9,322,200,112,82,34
190,0,-190,-95,190,-95,4,326,209,122,92,43
204,9,-195,-107,200,-92,0,336,219,122,102,53
224,19,-204,-122,214,-92,-4,331,224,126,102,58
234,24,-209,-129,222,-92,-9,336,229,136,112,68
248,34,-214,-141,231,-90,-24,346,239,146,126,78
263,43,-219,-153,241,-87,-29,351,239,156,136,87
273,53,-219,-163,246,-82,-39,366,258,175,151,102
283,63,-219,-173,251,-78,-39,370,268,180,170,117
302,78,-224,-190,263,-73,-53,375,278,195,180,126
307,97,-209,-202,258,-56,-63,380,287,209,195,136
336,112,-224,-224,280,-56,-73,385,297,229,209,151
351,122,-229,-236,290,-53,-73,390,307,244,224,170
361,131,-229,-246,295,-48,-87,395,312,258,239,185
380,146,-234,-263,307,-43,-92,395,322,273,253,200
395,146,-248,-270,322,-51,-102,405,341,287,268,214
409,161,-248,-285,329,-43,-112,405,341,302,287,229
424,180,-244,-302,334,-31,-122,409,356,312,302,244
439,200,-239,-319,339,-19,-141,409,361,326,317,258
453,219,-234,-336,344,-7,-161,400,366,331,331,273
468,234,-234,-351,351,0,-175,400,370,341,351,287
488,248,-239,-368,363,4,-180,400,375,356,370,307
492,253,-239,-373,366,7,-195,395,380,370,385,322
502,268,-234,-385,368,17,-200,395,375,385,395,336
512,287,-224,-400,368,31,-214,395,380,405,414,351
527,297,-229,-412,378,34,-229,385,385,409,429,366
536,307,-229,-422,383,39,-234,380,390,419,434,380
556,322,-234,-439,395,43,-248,380,400,429,458,395
561,331,-229,-446,395,51,-258,375,400,439,473,409
566,346,-219,-456,392,63,-268,370,400,448,483,419
570,361,-209,-466,390,75,-273,361,400,448,497,429
566,385,-180,-475,373,102,-278,351,400,458,497,429
566,395,-170,-480,368,112,-283,341,400,463,502,444
570,395,-175,-483,373,109,-287,331,395,473,502,448
570,400,-170,-485,370,114,-292,312,385,473,507,453
561,400,-161,-480,361,119,-297,307,390,473,522,468
551,400,-151,-475,351,124,-297,287,375,473,522,473
541,405,-136,-473,339,134,-297,273,370,473,522,473
527,400,-126,-463,326,136,-297,253,356,463,522,468
512,400,-112,-456,312,143,-297,229,346,463,512,468
497,400,-97,-448,297,151,-297,214,336,448,507,458
483,400,-82,-441,283,158,-292,200,322,439,492,458
468,390,-78,-429,273,156,-287,185,312,424,483,444
453,375,-78,-414,265,148,-278,180,302,409,468,424
429,366,-63,-397,246,151,-273,165,292,400,453,405
409,356,-53,-383,231,151,-263,156,278,385,439,395
400,351,-48,-375,224,151,-258,141,263,370,424,380
370,336,-34,-353,202,151,-244,122,248,351,409,366
351,326,-24,-339,187,151,-239,112,234,326,395,351
336,307,-29,-322,183,139,-224,92,219,317,370,331
312,287,-24,-300,168,131,-214,87,204,292,346,312
292,278,-14,-285,153,131,-204,78,195,278,326,297
273,263,-9,-268,141,126,-195,68,180,263,307,278
253,244,-9,-248,131,117,-185,58,165,248,287,258
239,229,-9,-234,124,109,-170,53,161,229,268,244
209,214,4,-212,102,109,-161,34,146,219,258,244
195,204,9,-200,92,107,-151,29,136,200,239,224
175,190,14,-183,80,102,-141,24,126,185,219,204
165,175,9,-170,78,92,-126,19,112,170,204,185
141,146,4,-143,68,75,-117,14,102,156,180,175
131,131,0,-131,65,65,-107,14,92,146,161,156
117,112,-4,-114,61,53,-97,9,82,131,151,141
112,92,-19,-102,65,36,-87,4,78,117,131,126
97,97,0,-97,48,48,-78,-4,68,107,126,112
82,82,0,-82,41,41,-68,-14,63,92,112,102
68,68,0,-68,34,34,-58,-14,53,82,97,87
63,58,-4,-61,34,26,-53,-19,53,63,82,78
53,43,-9,-48,31,17,-53,-9,43,68,73,53
43,29,-14,-36,29,7,-53,-9,39,58,68,48
34,19,-14,-26,24,2,-43,-9,34,48,58,34
24,9,-14,-17,19,-2,-29,-9,29,43,48,24
29,4,-24,-17,26,-9,-29,-9,29,34,39,29
19,4,-14,-12,17,-4,-24,-9,24,24,29,24
19,0,-19,-9,19,-9,-24,-9,14,24,24,14
9,0,-9,-4,9,-4,-19,-9,14,19,19,9
4,-4,-9,0,7,-7,-4,-9,14,14,4,0
0,-14,-14,7,7,-14,0,-9,9,9,4,-4
-4,-24,-19,14,7,-21,4,-9,4,4,0,-4
-9,-34,-24,21,7,-29,9,-9,4,0,-4,-9
-24,-43,-19,34,-2,-31,14,-9,0,-4,-9,-14
-24,-48,-24,36,0,-36,14,-9,0,-9,-14,-14
-24,-53,-29,39,2,-41,14,-9,0,-14,-19,-19
-34,-53,-19,43,-7,-36,19,-9,0,-14,-19,-24
-24,-43,-19,34,-2,-31,19,-9,-4,-19,-14,-19
-29,-53,-24,41,-2,-39,19,-9,-4,-24,-19,-29
-29,-53,-24,41,-2,-39,24,-14,-4,-29,-24,-34
-29,-53,-24,41,-2,-39,24,-14,-9,-29,-29,-34
-29,-58,-29,43,0,-43,29,-14,-9,-19,-29,-43
-29,-68,-39,48,4,-53,29,-14,-9,-19,-29,-43
-34,-68,-34,51,0,-51,29,-9,-9,-19,-34,-43
-34,-68,-34,51,0,-51,29,-9,-9,-19,-34,-43
-43,-78,-34,61,-4,-56,34,-9,-9,-29,-34,-43
-48,-78,-29,63,-9,-53,34,-9,-9,-29,-39,-43
-48,-68,-19,58,-14,-43,34,-9,-9,-29,-39,-43
-48,-68,-19,58,-14,-43,34,-9,-14,-34,-43,-48
-48,-73,-24,61,-12,-48,34,-9,-14,-34,-43,-48
-53,-73,-19,63,-17,-46,34,-9,-14,-34,-43,-48
-53,-73,-19,63,-17,-46,39,-9,-14,-39,-43,-53
-53,-73,-19,63,-17,-46,39,-9,-9,-39,-43,-53
-53,-73,-19,63,-17,-46,34,-9,-19,-34,-43,-43
-53,-78,-24,65,-14,-51,34,-4,-19,-34,-43,-43
-53,-78,-24,65,-14,-51,39,-4,-19,-34,-43,-43
-58,-82,-24,70,-17,-53,39,-4,-19,-34,-43,-48
-48,-73,-24,61,-12,-48,39,-4,-19,-39,-48,-48
-48,-73,-24,61,-12,-48,39,-4,-19,-39,-48,-48
-48,-73,-24,61,-12,-48,39,0,-19,-39,-48,-48
-48,-73,-24,61,-12,-48,39,0,-19,-39,-48,-53
-48,-82,-34,65,-7,-58,39,0,-19,-39,-48,-63
-48,-82,-34,65,-7,-58,39,0,-19,-39,-48,-63
-48,-82,-34,65,-7,-58,39,4,-19,-39,-53,-63
-48,-82,-34,65,-7,-58,39,4,-19,-39,-53,-63
-48,-82,-34,65,-7,-58,39,-4,-19,-39,-63,-68
-48,-87,-39,68,-4,-63,39,-4,-19,-39,-63,-68
-48,-97,-48,73,0,-73,39,-4,-19,-43,-63,-68
-48,-87,-39,68,-4,-63,43,0,-19,-43,-63,-68
-58,-87,-29,73,-14,-58,53,9,-14,-43,-53,-58
-58,-87,-29,73,-14,-58,53,9,-14,-43,-58,-58
-58,-87,-29,73,-14,-58,58,9,-14,-43,-58,-58
-58,-87,-29,73,-14,-58,58,9,-14,-43,-58,-58
-58,-97,-39,78,-9,-68,58,4,-14,-43,-58,-58
-58,-97,-39,78,-9,-68,58,4,-9,-43,-58,-63
-58,-97,-39,78,-9,-68,58,4,-9,-43,-63,-63
-58,-97,-39,78,-9,-68,58,4,-9,-43,-63,-63
-48,-92,-43,70,-2,-68,48,4,-9,-43,-68,-63
-48,-92,-43,70,-2,-68,48,4,-9,-48,-63,-63
-48,-92,-43,70,-2,-68,53,9,-14,-48,-63,-68
-48,-92,-43,70,-2,-68,53,9,-14,-48,-63,-68
-48,-82,-34,65,-7,-58,58,4,-4,-48,-63,-68
-48,-82,-34,65,-7,-58,58,4,-9,-48,-63,-68
-48,-82,-34,65,-7,-58,58,4,-9,-48,-68,-68
-48,-82,-34,65,-7,-58,58,9,-9,-43,-68,-68
-58,-82,-24,70,-17,-53,48,9,-9,-43,-68,-68
-58,-82,-24,70,-17,-53,48,9,-9,-48,-68,-68
-58,-82,-24,70,-17,-53,48,9,-9,-48,-68,-68
-58,-82,-24,70,-17,-53,48,9,-9,-43,-68,-68
-58,-87,-29,73,-14,-58,48,9,-9,-43,-58,-68
-58,-92,-34,75,-12,-63,53,9,-9,-43,-58,-68
-58,-97,-39,78,-9,-68,53,9,-9,-43,-58,-68
-58,-102,-43,80,-7,-73,53,9,-9,-43,-58,-68
-58,-102,-43,80,-7,-73,63,19,-9,-53,-58,-68
-58,-102,-43,80,-7,-73,63,19,-9,-53,-58,-68
-53,-97,-43,75,-4,-70,58,19,-9,-53,-58,-73
-53,-97,-43,75,-4,-70,58,19,-9,-53,-58,-73
-43,-92,-48,68,2,-70,58,9,-9,-43,-58,-63
-43,-92,-48,68,2,-70,63,9,-9,-43,-58,-63
-43,-92,-48,68,2,-70,63,9,-9,-43,-58,-63
-43,-92,-48,68,2,-70,58,4,-4,-43,-58,-63
-53,-97,-43,75,-4,-70,48,4,-4,-43,-58,-73
-53,-97,-43,75,-4,-70,53,9,-9,-43,-58,-73
-53,-97,-43,75,-4,-70,53,9,-9,-43,-58,-73
-53,-92,-39,73,-7,-65,48,9,-9,-43,-58,-73
-58,-102,-43,80,-7,-73,48,9,-9,-43,-68,-73
-58,-102,-43,80,-7,-73,48,9,-9,-43,-68,-73
-58,-102,-43,80,-7,-73,48,9,-9,-43,-68,-68
-58,-102,-43,80,-7,-73,48,4,-9,-43,-68,-68
-53,-92,-39,73,-7,-65,48,4,-9,-43,-58,-68
-53,-92,-39,73,-7,-65,48,4,-14,-43,-63,-73
-53,-92,-39,73,-7,-65,48,4,-14,-43,-63,-73
-53,-92,-39,73,-7,-65,48,4,-14,-43,-63,-73
-53,-102,-48,78,-2,-75,48,4,-4,-53,-68,-73
-53,-102,-48,78,-2,-75,48,4,-4,-53,-68,-73
-53,-102,-48,78,-2,-75,48,4,-4,-53,-68,-73
-53,-102,-48,78,-2,-75,48,4,-4,-53,-68,-73
-53,-102,-48,78,-2,-75,58,4,-4,-43,-58,-73
-53,-102,-48,78,-2,-75,58,0,-9,-43,-63,-73
-53,-102,-48,78,-2,-75,58,0,-9,-48,-68,-73
-53,-102,-48,78,-2,-75,58,0,-9,-48,-68,-73
-53,-97,-43,75,-4,-70,48,0,-19,-53,-58,-73
-53,-92,-39,73,-7,-65,48,0,-19,-53,-58,-73
-53,-87,-34,70,-9,-61,48,0,-24,-53,-58,-73
-53,-82,-29,68,-12,-56,48,0,-24,-53,-58,-78
-53,-92,-39,73,-7,-65,48,0,-14,-53,-68,-78
-53,-97,-43,75,-4,-70,48,0,-14,-48,-63,-73
-53,-102,-48,78,-2,-75,48,0,-14,-48,-63,-73
-53,-107,-53,80,0,-80,48,0,-14,-48,-68,-73
-53,-107,-53,80,0,-80,48,-4,-24,-58,-68,-73
-53,-107,-53,80,0,-80,43,-4,-24,-58,-68,-73
-53,-107,-53,80,0,-80,43,-4,-24,-58,-68,-73
-58,-102,-43,80,-7,-73,43,-4,-29,-63,-68,-73
-58,-102,-43,80,-7,-73,43,-9,-19,-53,-68,-73
-58,-102,-43,80,-7,-73,43,-9,-19,-53,-68,-78
-58,-102,-43,80,-7,-73,39,-9,-19,-53,-68,-78
-53,-102,-48,78,-2,-75,39,-9,-19,-53,-68,-78
-53,-92,-39,73,-7,-65,43,-19,-19,-53,-68,-78
-58,-92,-34,75,-12,-63,43,-19,-19,-58,-73,-78
-58,-97,-39,78,-9,-68,43,-19,-24,-58,-73,-82
-53,-97,-43,75,-4,-70,43,-19,-24,-58,-78,-82
-53,-107,-53,80,0,-80,43,-9,-34,-58,-78,-82
-58,-107,-48,82,-4,-78,43,-9,-34,-58,-78,-82
-58,-102,-43,80,-7,-73,43,-14,-34,-58,-78,-82
-58,-102,-43,80,-7,-73,39,-14,-34,-58,-78,-82
-48,-97,-48,73,0,-73,39,-14,-34,-63,-78,-82
-48,-102,-53,75,2,-78,39,-14,-34,-63,-78,-82
-48,-102,-53,75,2,-78,43,-14,-34,-63,-78,-82
-48,-97,-48,73,0,-73,43,-14,-34,-63,-78,-82
-58,-102,-43,80,-7,-73,43,-14,-34,-63,-78,-82
-58,-102,-43,80,-7,-73,43,-19,-39,-63,-78,-82
-58,-107,-48,82,-4,-78,43,-19,-39,-63,-78,-82
-58,-107,-48,82,-4,-78,43,-19,-39,-63,-78,-82
-58,-97,-39,78,-9,-68,43,-19,-39,-63,-82,-82
-58,-97,-39,78,-9,-68,43,-19,-39,-63,-82,-82
-58,-97,-39,78,-9,-68,43,-19,-43,-63,-78,-82
-58,-97,-39,78,-9,-68,43,-24,-43,-63,-73,-78
-58,-97,-39,78,-9,-68,43,-14,-34,-63,-63,-78
-58,-97,-39,78,-9,-68,43,-14,-34,-63,-68,-78
-58,-97,-39,78,-9,-68,43,-14,-34,-63,-68,-78
-58,-102,-43,80,-7,-73,43,-14,-29,-63,-68,-78
-48,-107,-58,78,4,-82,43,-24,-29,-73,-78,-82
-53,-107,-53,80,0,-80,43,-24,-34,-73,-78,-82
-53,-102,-48,78,-2,-75,43,-24,-34,-73,-78,-82
-53,-102,-48,78,-2,-75,43,-24,-29,-73,-78,-82
-53,-112,-58,82,2,-85,43,-14,-39,-63,-78,-82
-53,-107,-53,80,0,-80,43,-14,-39,-68,-78,-82
-53,-107,-53,80,0,-80,43,-14,-43,-68,-78,-82
-53,-107,-53,80,0,-80,43,-14,-43,-68,-78,-82
-58,-107,-48,82,-4,-78,53,-24,-43,-68,-78,-82
-58,-107,-48,82,-4,-78,53,-24,-43,-68,-78,-82
-58,-112,-53,85,-2,-82,53,-24,-39,-68,-78,-78
-58,-112,-53,85,-2,-82,53,-24,-39,-68,-78,-78
-58,-102,-43,80,-7,-73,43,-34,-39,-68,-78,-87
-58,-102,-43,80,-7,-73,43,-29,-39,-68,-78,-87
-58,-107,-48,82,-4,-78,43,-29,-39,-68,-78,-87
-63,-107,-43,85,-9,-75,43,-29,-43,-73,-78,-87
-63,-107,-43,85,-9,-75,43,-29,-34,-68,-78,-87
-63,-107,-43,85,-9,-75,43,-29,-34,-68,-82,-87
-63,-102,-39,82,-12,-70,43,-29,-34,-63,-82,-87
-63,-102,-39,82,-12,-70,43,-29,-39,-63,-82,-92
-63,-117,-53,90,-4,-85,43,-24,-39,-63,-82,-82
-63,-117,-53,90,-4,-85,43,-24,-39,-63,-82,-82
-63,-117,-53,90,-4,-85,43,-24,-39,-63,-82,-82
-63,-117,-53,90,-4,-85,43,-24,-39,-63,-82,-82
-63,-112,-48,87,-7,-80,43,-24,-39,-68,-82,-87
-63,-112,-48,87,-7,-80,43,-19,-39,-68,-78,-87
-63,-112,-48,87,-7,-80,43,-19,-34,-68,-78,-92
-53,-112,-58,82,2,-85,43,-19,-34,-68,-78,-92
-53,-102,-48,78,-2,-75,43,-19,-43,-68,-87,-82
-53,-102,-48,78,-2,-75,43,-19,-43,-68,-82,-82
-53,-102,-48,78,-2,-75,43,-19,-43,-68,-82,-78
-53,-107,-53,80,0,-80,43,-19,-39,-68,-82,-73
-48,-107,-58,78,4,-82,43,-19,-39,-78,-82,-82
-48,-107,-58,78,4,-82,43,-19,-43,-78,-87,-82
-48,-107,-58,78,4,-82,43,-19,-48,-78,-87,-82
-53,-107,-53,80,0,-80,43,-19,-48,-78,-87,-82
-53,-117,-63,85,4,-90,43,-29,-43,-78,-87,-82
-53,-117,-63,85,4,-90,43,-29,-43,-78,-87,-82
-53,-112,-58,82,2,-85,39,-24,-43,-78,-87,-82
-53,-112,-58,82,2,-85,39,-24,-43,-78,-87,-82
-63,-112,-48,87,-7,-80,43,-24,-43,-78,-87,-92
-63,-107,-43,85,-9,-75,43,-24,-43,-78,-87,-92
-63,-107,-43,85,-9,-75,43,-24,-39,-78,-87,-92
-68,-107,-39,87,-14,-73,43,-24,-39,-78,-87,-92
-58,-112,-53,85,-2,-82,39,-14,-48,-68,-87,-82
-58,-112,-53,85,-2,-82,39,-19,-48,-68,-82,-87
-58,-107,-48,82,-4,-78,39,-19,-48,-68,-82,-87
-58,-107,-48,82,-4,-78,39,-19,-48,-68,-82,-87
-58,-107,-48,82,-4,-78,48,-19,-39,-68,-82,-87
-68,-107,-39,87,-14,-73,48,-14,-39,-68,-82,-87
-63,-107,-43,85,-9,-75,43,-14,-48,-68,-92,-92
-58,-107,-48,82,-4,-78,39,-19,-48,-68,-87,-87
-58,-107,-48,82,-4,-78,48,-19,-48,-68,-87,-87
-58,-107,-48,82,-4,-78,48,-19,-48,-68,-87,-87
-58,-107,-48,82,-4,-78,48,-19,-48,-68,-87,-87
-58,-107,-48,82,-4,-78,48,-19,-48,-68,-87,-87
-58,-107,-48,82,-4,-78,48,-19,-48,-68,-87,-87
-58,-107,-48,82,-4,-78,48,-19,-48,-68,-87,-87
-58,-107,-48,82,-4,-78,48,-19,-48,-68,-87,-87
-58,-107,-48,82,-4,-78,48,-19,-48,-68,-87,-87
-68,-107,-39,87,-14,-73,39,-9,-39,-78,-87,-87
-68,-107,-39,87,-14,-73,39,-9,-39,-78,-87,-87
-68,-107,-39,87,-14,-73,39,-9,-39,-78,-87,-87
-68,-107,-39,87,-14,-73,39,-9,-39,-78,-87,-87
-58,-107,-48,82,-4,-78,39,-19,-48,-78,-87,-87
-58,-107,-48,82,-4,-78,39,-19,-48,-78,-87,-87
-58,-107,-48,82,-4,-78,39,-19,-48,-78,-87,-87
