I,II,III,aVR,aVL,aVF,V1,V2,V3,V4,V5,V6,
-48,-126,-78,87,14,-102,68,146,87,-68,-126,-136
-43,-117,-73,80,14,-95,68,156,102,-63,-126,-136
-39,-107,-68,73,14,-87,68,165,117,-58,-126,-136
-39,-107,-68,73,14,-87,78,180,131,-48,-117,-131
-39,-107,-68,73,14,-87,87,195,146,-39,-107,-126
-24,-107,-82,65,29,-95,87,214,165,-34,-102,-122
-9,-107,-97,58,43,-102,87,234,185,-29,-97,-117
-4,-102,-97,53,46,-100,87,258,204,-19,-92,-117
0,-97,-97,48,48,-97,87,283,224,-9,-87,-117
9,-97,-107,43,58,-102,92,302,244,0,-82,-117
19,-97,-117,39,68,-107,97,322,263,9,-78,-117
29,-92,-122,31,75,-107,97,351,287,24,-63,-102
39,-87,-126,24,82,-107,97,380,312,39,-48,-87
48,-78,-126,14,87,-102,92,395,331,43,-48,-82
58,-68,-126,4,92,-97,87,409,351,48,-48,-78
78,-63,-141,-7,109,-102,87,439,375,63,-39,-68
97,-58,-156,-19,126,-107,87,468,400,78,-29,-58
117,-43,-161,-36,139,-102,87,473,409,78,-24,-48
136,-29,-165,-53,151,-97,87,478,419,78,-19,-39
141,-29,-170,-56,156,-100,82,483,429,87,-9,-29
146,-29,-175,-58,161,-102,78,488,439,97,0,-19
156,-14,-170,-70,163,-92,73,488,439,97,4,-9
165,0,-165,-82,165,-82,68,488,439,97,9,0
170,4,-165,-87,168,-80,63,473,429,102,19,24
175,9,-165,-92,170,-78,58,458,419,107,29,48
175,24,-151,-100,163,-63,39,424,395,107,39,63
175,39,-136,-107,156,-48,19,390,370,107,48,78
170,39,-131,-104,151,-46,4,351,346,107,53,82
165,39,-126,-102,146,-43,-9,312,322,107,58,87
156,43,-112,-100,134,-34,-14,273,283,97,58,92
146,48,-97,-97,122,-24,-19,234,244,87,58,97
126,48,-78,-87,102,-14,-19,185,214,82,58,97
107,48,-58,-78,82,-4,-19,136,185,78,58,97
87,43,-43,-65,65,0,-19,112,156,68,53,92
68,39,-29,-53,48,4,-19,87,126,58,48,87
43,39,-4,-41,24,17,-24,48,92,43,34,68
19,39,19,-29,0,29,-29,9,58,29,19,48
9,29,19,-19,-4,24,-29,-4,34,19,4,34
0,19,19,-9,-9,19,-29,-19,9,9,-9,19
-19,0,19,9,-19,9,-24,-39,0,0,-14,4
-39,-19,19,29,-29,0,-19,-58,-9,-9,-19,-9
-48,-19,29,34,-39,4,-19,-63,-24,-19,-29,-19
-58,-19,39,39,-48,9,-19,-68,-39,-29,-39,-29
-58,4,63,26,-61,34,-29,-82,-48,-39,-53,-48
-58,29,87,14,-73,58,-39,-97,-58,-48,-68,-68
-58,-4,53,31,-56,24,-29,-97,-58,-48,-68,-58
-58,-39,19,48,-39,-9,-19,-97,-58,-48,-68,-48
-58,-39,19,48,-39,-9,-19,-97,-68,-53,-68,-48
-58,-39,19,48,-39,-9,-19,-97,-78,-58,-68,-48
-63,-39,24,51,-43,-7,-14,-97,-78,-58,-73,-53
-68,-39,29,53,-48,-4,-9,-97,-78,-58,-78,-58
-78,-39,39,58,-58,0,-9,-97,-78,-58,-78,-63
-87,-39,48,63,-68,4,-9,-97,-78,-58,-78,-68
-78,-39,39,58,-58,0,-9,-97,-78,-58,-78,-68
-68,-39,29,53,-48,-4,-9,-97,-78,-58,-78,-68
-68,-39,29,53,-48,-4,-9,-97,-78,-58,-78,-68
-68,-39,29,53,-48,-4,-9,-97,-78,-58,-78,-68
-68,-39,29,53,-48,-4,-9,-97,-78,-58,-78,-68
-68,-39,29,53,-48,-4,-9,-97,-78,-58,-78,-68
-68,-48,19,58,-43,-14,-4,-92,-78,-58,-78,-68
-68,-58,9,63,-39,-24,0,-87,-78,-58,-78,-68
-68,-58,9,63,-39,-24,0,-87,-78,-58,-78,-68
-68,-58,9,63,-39,-24,0,-87,-78,-58,-78,-68
-68,-63,4,65,-36,-29,-4,-87,-78,-58,-78,-68
-68,-68,0,68,-34,-34,-9,-87,-78,-58,-78,-68
-68,-68,0,68,-34,-34,-9,-87,-78,-58,-78,-73
-68,-68,0,68,-34,-34,-9,-87,-78,-58,-78,-78
-68,-48,19,58,-43,-14,-9,-87,-78,-63,-82,-82
-68,-29,39,48,-53,4,-9,-87,-78,-68,-87,-87
-68,-39,29,53,-48,-4,-9,-87,-78,-68,-87,-87
-68,-48,19,58,-43,-14,-9,-87,-78,-68,-87,-87
-73,-48,24,61,-48,-12,-4,-87,-78,-63,-87,-82
-78,-48,29,63,-53,-9,0,-87,-78,-58,-87,-78
-78,-48,29,63,-53,-9,0,-87,-78,-58,-87,-78
-78,-48,29,63,-53,-9,0,-87,-78,-58,-87,-78
-78,-43,34,61,-56,-4,0,-92,-78,-63,-87,-82
-78,-39,39,58,-58,0,0,-97,-78,-68,-87,-87
-78,-39,39,58,-58,0,0,-97,-78,-68,-87,-87
-78,-39,39,58,-58,0,0,-97,-78,-68,-87,-87
-78,-43,34,61,-56,-4,0,-92,-78,-68,-87,-87
-78,-48,29,63,-53,-9,0,-87,-78,-68,-87,-87
-78,-48,29,63,-53,-9,0,-87,-78,-68,-87,-87
-78,-48,29,63,-53,-9,0,-87,-78,-68,-87,-87
-78,-48,29,63,-53,-9,0,-92,-78,-68,-87,-87
-78,-48,29,63,-53,-9,0,-97,-78,-68,-87,-87
-78,-48,29,63,-53,-9,-4,-97,-82,-68,-87,-87
-78,-48,29,63,-53,-9,-9,-97,-87,-68,-87,-87
-78,-48,29,63,-53,-9,-9,-97,-87,-68,-87,-82
-78,-48,29,63,-53,-9,-9,-97,-87,-68,-87,-78
-78,-48,29,63,-53,-9,-9,-102,-87,-68,-82,-78
-78,-48,29,63,-53,-9,-9,-107,-87,-68,-78,-78
-73,-39,34,56,-53,-2,-9,-107,-82,-68,-78,-78
-68,-29,39,48,-53,4,-9,-107,-78,-68,-78,-78
-68,-24,43,46,-56,9,-9,-102,-73,-58,-73,-73
-68,-19,48,43,-58,14,-9,-97,-68,-48,-68,-68
-68,0,68,34,-68,34,-9,-97,-68,-48,-68,-68
-68,9,78,29,-73,43,-9,-97,-63,-43,-68,-63
-73,24,97,24,-85,61,-9,-97,-63,-43,-68,-63
-73,24,97,24,-85,61,-9,-97,-63,-43,-68,-58
-73,24,97,24,-85,61,-9,-97,-53,-39,-58,-58
-73,29,102,21,-87,65,-14,-97,-53,-34,-43,-53
-68,29,97,19,-82,63,-19,-112,-58,-34,-43,-48
-58,24,82,17,-70,53,-29,-122,-68,-34,-43,-43
-58,34,92,12,-75,63,-43,-131,-82,-34,-48,-43
-53,48,102,2,-78,75,-53,-141,-82,-34,-48,-43
-53,53,107,0,-80,80,-63,-146,-82,-34,-43,-39
-48,68,117,-9,-82,92,-78,-151,-82,-24,-34,-34
-43,78,122,-17,-82,100,-97,-165,-87,-24,-29,-24
-34,78,112,-21,-73,95,-112,-170,-92,-29,-29,-19
-24,78,102,-26,-63,90,-117,-175,-107,-29,-29,-19
-9,78,87,-34,-48,82,-112,-185,-126,-39,-34,-19
0,68,68,-34,-34,68,-112,-190,-136,-53,-43,-19
0,68,68,-34,-34,68,-112,-190,-141,-58,-48,-19
0,58,58,-29,-29,58,-97,-185,-136,-58,-53,-24
-14,39,53,-12,-34,46,-73,-175,-126,-58,-58,-39
-34,19,53,7,-43,36,-58,-156,-126,-63,-63,-48
-58,0,58,29,-58,29,-48,-146,-122,-73,-73,-68
-68,-24,43,46,-56,9,-39,-141,-122,-82,-92,-87
-73,-34,39,53,-56,2,-24,-136,-122,-87,-102,-92
-63,-29,34,46,-48,2,-19,-141,-126,-92,-107,-102
-63,-39,24,51,-43,-7,-19,-141,-131,-97,-117,-112
-68,-63,4,65,-36,-29,-14,-136,-131,-97,-122,-122
-68,-63,4,65,-36,-29,-9,-136,-141,-107,-122,-122
-68,-63,4,65,-36,-29,-9,-136,-141,-107,-122,-122
-73,-63,9,68,-41,-26,-9,-136,-141,-107,-117,-117
-73,-58,14,65,-43,-21,-9,-136,-141,-107,-117,-117
-73,-58,14,65,-43,-21,-9,-136,-141,-107,-117,-117
-73,-58,14,65,-43,-21,-9,-136,-141,-107,-117,-122
-73,-58,14,65,-43,-21,-4,-136,-141,-107,-117,-122
-73,-53,19,63,-46,-17,-4,-136,-141,-112,-122,-122
-73,-48,24,61,-48,-12,-4,-136,-141,-117,-122,-122
-73,-48,24,61,-48,-12,-4,-136,-141,-117,-122,-122
-73,-58,14,65,-43,-21,0,-136,-136,-117,-117,-122
-73,-58,14,65,-43,-21,0,-136,-136,-112,-117,-122
-73,-58,14,65,-43,-21,0,-131,-136,-107,-117,-122
-68,-63,4,65,-36,-29,0,-126,-131,-107,-117,-117
-63,-73,-9,68,-26,-41,0,-117,-122,-107,-117,-112
-68,-87,-19,78,-24,-53,4,-112,-122,-107,-122,-122
-68,-112,-43,90,-12,-78,14,-107,-131,-131,-156,-146
-102,-136,-34,119,-34,-85,34,-117,-156,-195,-234,-224
-126,-151,-24,139,-51,-87,34,-122,-180,-244,-292,-287
-107,-156,-48,131,-29,-102,29,-112,-180,-219,-253,-258
14,-126,-141,56,78,-134,-39,-58,-136,-131,-112,-131
278,-58,-336,-109,307,-197,-151,87,29,68,170,131
580,73,-507,-326,544,-217,-273,258,248,331,531,448
888,336,-551,-612,719,-107,-414,390,507,751,1044,883
1141,707,-434,-924,788,136,-629,175,429,1107,1556,1400
1288,1015,-273,-1151,780,370,-805,-146,180,1278,1878,1761
1361,1244,-117,-1302,739,563,-936,-473,-92,1337,2054,2010
1273,1268,-4,-1271,639,631,-902,-580,-141,1376,2171,2142
1010,829,-180,-919,595,324,-658,-580,-302,927,1693,1805
722,156,-566,-439,644,-204,-346,-522,-634,63,590,902
375,-185,-561,-95,468,-373,-170,-570,-844,-531,-258,151
-24,-204,-180,114,78,-192,-117,-717,-971,-717,-541,-136
-234,-200,34,217,-134,-82,-68,-678,-897,-702,-590,-278
-219,-126,92,173,-156,-17,-68,-536,-668,-517,-434,-244
-141,-97,43,119,-92,-26,-48,-317,-414,-356,-307,-190
-73,-117,-43,95,-14,-80,-14,-136,-239,-229,-214,-165
-39,-117,-78,78,19,-97,14,-53,-156,-170,-170,-156
-43,-117,-73,80,14,-95,39,-39,-117,-151,-151,-146
-48,-107,-58,78,4,-82,43,-29,-82,-136,-151,-146
-53,-97,-43,75,-4,-70,43,-19,-73,-126,-156,-156
-53,-97,-43,75,-4,-70,43,-19,-73,-126,-161,-161
-53,-107,-53,80,0,-80,43,-14,-68,-126,-161,-161
-53,-112,-58,82,2,-85,53,0,-48,-126,-156,-161
-53,-112,-58,82,2,-85,53,0,-34,-126,-156,-165
-43,-112,-68,78,12,-90,48,-4,-34,-122,-151,-165
-39,-112,-73,75,17,-92,48,9,-29,-117,-146,-165
-34,-117,-82,75,24,-100,53,29,-19,-107,-141,-165
-34,-117,-82,75,24,-100,58,39,-14,-107,-136,-165
-34,-112,-78,73,21,-95,58,39,-9,-107,-136,-165
-24,-102,-78,63,26,-90,53,39,-9,-107,-141,-165
-24,-97,-73,61,24,-85,53,43,-4,-102,-141,-170
-19,-102,-82,61,31,-92,53,53,4,-97,-141,-170
-19,-102,-82,61,31,-92,58,53,9,-92,-141,-165
-14,-107,-92,61,39,-100,53,63,19,-92,-141,-165
-14,-107,-92,61,39,-100,53,73,29,-92,-141,-165
-9,-97,-87,53,39,-92,53,82,39,-92,-141,-165
0,-87,-87,43,43,-87,53,97,43,-97,-136,-170
0,-87,-87,43,43,-87,53,112,58,-87,-131,-170
9,-92,-102,41,56,-97,53,122,68,-78,-131,-165
9,-97,-107,43,58,-102,58,131,87,-68,-126,-161
14,-102,-117,43,65,-109,63,151,107,-58,-122,-161
24,-97,-122,36,73,-109,63,170,117,-53,-117,-161
29,-92,-122,31,75,-107,63,185,131,-48,-117,-156
39,-87,-126,24,82,-107,68,200,146,-39,-102,-156
43,-87,-131,21,87,-109,73,224,170,-29,-92,-156
48,-78,-126,14,87,-102,73,248,190,-19,-87,-151
53,-73,-126,9,90,-100,73,268,209,-14,-82,-146
73,-68,-141,-2,107,-104,73,292,234,4,-73,-146
87,-63,-151,-12,119,-107,73,317,263,14,-68,-141
102,-58,-161,-21,131,-109,82,341,283,24,-63,-136
107,-53,-161,-26,134,-107,87,361,307,29,-58,-136
117,-53,-170,-31,143,-112,97,390,326,43,-48,-126
122,-43,-165,-39,143,-104,97,409,346,58,-39,-117
131,-14,-146,-58,139,-80,92,419,356,68,-29,-107
146,14,-131,-80,139,-58,87,424,361,73,-19,-97
161,4,-156,-82,158,-75,82,453,385,73,-19,-92
175,-9,-185,-82,180,-97,82,483,414,87,-9,-82
180,-4,-185,-87,183,-95,87,488,424,92,0,-63
180,4,-175,-92,178,-85,82,492,439,107,9,-48
180,14,-165,-97,173,-75,73,507,448,112,29,-29
185,24,-161,-104,173,-68,63,512,448,122,39,-9
190,34,-156,-112,173,-61,58,497,444,126,39,4
195,39,-156,-117,175,-58,53,483,434,126,43,19
195,53,-141,-124,168,-43,48,463,429,131,58,34
185,73,-112,-129,148,-19,34,434,405,131,58,48
175,87,-87,-131,131,0,24,395,380,131,68,68
170,97,-73,-134,122,12,4,351,351,126,73,73
161,117,-43,-139,102,36,-4,307,307,126,78,82
146,131,-14,-139,80,58,-14,258,273,122,82,87
117,122,4,-119,56,63,-19,224,239,112,82,87
92,112,19,-102,36,65,-19,185,214,107,82,87
73,112,39,-92,17,75,-19,141,170,92,73,78
53,102,48,-78,2,75,-24,102,136,73,58,68
29,102,73,-65,-21,87,-24,73,107,63,48,53
14,97,82,-56,-34,90,-29,39,82,53,43,43
0,82,82,-41,-41,82,-29,9,53,39,34,24
-9,78,87,-34,-48,82,-24,-14,29,19,19,9
-34,73,107,-19,-70,90,-24,-39,9,4,0,-4
-53,63,117,-4,-85,90,-19,-48,-4,0,-4,-14
-63,48,112,7,-87,80,-14,-63,-14,-4,-4,-19
-82,34,117,24,-100,75,-9,-68,-24,-4,-9,-24
-82,29,112,26,-97,70,-9,-73,-34,-19,-29,-34
-92,29,122,31,-107,75,-9,-82,-43,-29,-43,-43
-102,34,136,34,-119,85,-9,-92,-53,-39,-43,-48
-102,39,141,31,-122,90,-4,-92,-63,-43,-48,-48
-102,24,126,39,-114,75,-4,-87,-68,-48,-43,-53
-102,4,107,48,-104,56,-4,-78,-68,-48,-48,-53
-102,4,107,48,-104,56,-4,-87,-73,-48,-48,-53
-97,4,102,46,-100,53,-4,-97,-78,-48,-48,-63
-102,0,102,51,-102,51,-4,-97,-73,-43,-53,-63
-102,-4,97,53,-100,46,0,-97,-68,-43,-53,-68
-112,-9,102,61,-107,46,0,-92,-68,-53,-53,-73
-122,-9,112,65,-117,51,0,-87,-68,-53,-53,-78
-122,-9,112,65,-117,51,0,-87,-68,-43,-53,-73
-122,-4,117,63,-119,56,0,-87,-68,-43,-53,-73
-117,-4,112,61,-114,53,0,-82,-68,-43,-48,-73
-112,-4,107,58,-109,51,0,-82,-68,-48,-48,-68
-107,-9,97,58,-102,43,4,-82,-68,-53,-48,-63
-107,-14,92,61,-100,39,4,-82,-68,-58,-53,-63
-107,-14,92,61,-100,39,4,-78,-63,-58,-53,-63
-112,-14,97,63,-104,41,4,-78,-63,-58,-48,-63
-112,-14,97,63,-104,41,9,-73,-63,-53,-48,-68
-112,-9,102,61,-107,46,9,-73,-63,-53,-58,-73
-112,-9,102,61,-107,46,9,-73,-68,-53,-58,-73
-117,-9,107,63,-112,48,9,-73,-68,-53,-58,-73
-117,-14,102,65,-109,43,24,-73,-68,-53,-58,-78
-117,-4,112,61,-114,53,29,-73,-68,-58,-58,-82
-112,-9,102,61,-107,46,19,-73,-68,-58,-58,-82
-112,-19,92,65,-102,36,14,-73,-68,-53,-58,-82
-117,-29,87,73,-102,29,14,-73,-68,-53,-58,-82
-117,-34,82,75,-100,24,14,-73,-68,-53,-58,-87
-122,0,122,61,-122,61,14,-78,-68,-63,-63,-92
-122,29,151,46,-136,90,9,-87,-73,-63,-63,-92
-122,9,131,56,-126,70,9,-87,-73,-63,-63,-87
-126,-9,117,68,-122,53,9,-82,-73,-58,-63,-82
-126,-9,117,68,-122,53,14,-82,-68,-53,-58,-78
-122,-19,102,70,-112,41,19,-82,-68,-48,-53,-78
-122,-19,102,70,-112,41,19,-87,-73,-43,-53,-78
-126,-9,117,68,-122,53,19,-92,-73,-43,-53,-78
-126,-9,117,68,-122,53,9,-92,-73,-48,-58,-82
-122,-9,112,65,-117,51,4,-87,-73,-53,-63,-82
-122,-9,112,65,-117,51,4,-87,-73,-53,-63,-78
-122,-4,117,63,-119,56,4,-87,-73,-53,-63,-78
-126,0,126,63,-126,63,9,-82,-68,-53,-58,-73
-126,4,131,61,-129,68,14,-82,-63,-53,-53,-68
-126,4,131,61,-129,68,14,-82,-63,-48,-53,-68
-122,4,126,58,-124,65,9,-87,-68,-43,-53,-68
-122,0,122,61,-122,61,4,-87,-73,-48,-58,-68
-122,4,126,58,-124,65,4,-87,-73,-48,-58,-73
-126,-4,122,65,-124,58,4,-87,-73,-48,-58,-78
-131,-14,117,73,-124,51,4,-87,-73,-43,-53,-73
-126,-9,117,68,-122,53,9,-87,-63,-34,-43,-63
-126,-9,117,68,-122,53,19,-87,-58,-29,-39,-58
-122,9,131,56,-126,70,19,-87,-58,-29,-39,-58
-117,29,146,43,-131,87,19,-87,-58,-29,-39,-58
-117,29,146,43,-131,87,24,-87,-53,-24,-29,-58
-117,34,151,41,-134,92,24,-87,-48,-19,-24,-53
-122,43,165,39,-143,104,29,-87,-43,-14,-19,-53
-122,53,175,34,-148,114,29,-87,-43,-14,-19,-48
-122,53,175,34,-148,114,24,-87,-39,-14,-19,-48
-122,58,180,31,-151,119,14,-87,-43,-14,-14,-43
-117,58,175,29,-146,117,4,-97,-43,-14,-19,-43
-107,53,161,26,-134,107,-9,-102,-48,-14,-24,-43
-107,68,175,19,-141,122,-24,-112,-63,-14,-29,-43
-102,87,190,7,-146,139,-34,-122,-63,-14,-29,-43
-102,78,180,12,-141,129,-39,-126,-63,-14,-24,-24
-97,78,175,9,-136,126,-48,-131,-63,-4,-14,-4
-92,97,190,-2,-141,143,-68,-146,-68,-4,-4,0
-82,107,190,-12,-136,148,-82,-151,-73,-9,0,0
-73,117,190,-21,-131,153,-97,-156,-82,-9,0,-4
-58,126,185,-34,-122,156,-102,-165,-97,-19,-4,-9
-43,112,156,-34,-100,134,-102,-170,-107,-34,-9,-9
-39,107,146,-34,-92,126,-102,-170,-112,-39,-9,-9
-39,97,136,-29,-87,117,-87,-165,-112,-39,-14,-9
-53,78,131,-12,-92,104,-63,-156,-107,-39,-19,-19
-78,58,136,9,-107,97,-39,-141,-107,-43,-24,-29
-107,39,146,34,-126,92,-19,-136,-102,-53,-34,-48
-126,14,141,56,-134,78,-9,-131,-102,-63,-53,-68
-141,4,146,68,-143,75,4,-126,-102,-68,-63,-73
-131,-4,126,68,-129,61,9,-126,-107,-73,-68,-78
-131,-29,102,80,-117,36,9,-122,-112,-78,-78,-82
-136,-39,97,87,-117,29,9,-117,-112,-78,-87,-97
-136,-24,112,80,-124,43,9,-117,-122,-87,-92,-102
-131,-24,107,78,-119,41,9,-117,-122,-87,-97,-107
-131,-24,107,78,-119,41,9,-117,-122,-87,-97,-107
-131,-19,112,75,-122,46,14,-117,-122,-87,-97,-107
-131,-19,112,75,-122,46,19,-117,-122,-87,-97,-107
-136,-24,112,80,-124,43,19,-117,-117,-87,-97,-112
-141,-29,112,85,-126,41,24,-117,-112,-87,-97,-112
-141,-34,107,87,-124,36,24,-117,-112,-87,-97,-112
-141,-39,102,90,-122,31,24,-117,-112,-87,-92,-112
-141,-39,102,90,-122,31,24,-117,-112,-82,-92,-112
-141,-48,92,95,-117,21,29,-117,-107,-78,-87,-112
-141,-43,97,92,-119,26,24,-117,-107,-78,-87,-107
-141,-39,102,90,-122,31,19,-112,-107,-78,-87,-102
-136,-34,102,85,-119,34,19,-112,-107,-78,-82,-97
-131,-34,97,82,-114,31,19,-107,-102,-78,-78,-92
-136,-53,82,95,-109,14,24,-102,-102,-78,-73,-102
-136,-82,53,109,-95,-14,34,-97,-112,-102,-97,-126
-175,-122,53,148,-114,-34,58,-97,-136,-165,-190,-200
-204,-151,53,178,-129,-48,63,-92,-161,-214,-263,-258
-204,-156,48,180,-126,-53,63,-102,-185,-224,-273,-283
-102,-126,-24,114,-39,-75,0,-68,-165,-170,-180,-209
165,-92,-258,-36,212,-175,-92,97,-9,-4,58,24
473,4,-468,-239,470,-231,-195,287,200,224,375,312
805,234,-570,-519,688,-168,-322,478,527,629,858,707
1083,570,-512,-827,797,29,-522,322,517,971,1342,1185
1273,888,-385,-1080,829,251,-732,-24,248,1156,1683,1571
1390,1127,-263,-1259,827,431,-897,-375,-43,1229,1878,1844
1327,1254,-73,-1290,700,590,-902,-527,-82,1356,2113,2069
1088,917,-170,-1002,629,373,-697,-570,-234,995,1751,1825
766,180,-585,-473,675,-202,-361,-497,-570,126,653,936
385,-224,-610,-80,497,-417,-161,-531,-785,-473,-190,200
-43,-253,-209,148,82,-231,-92,-697,-941,-688,-502,-102
-283,-258,24,270,-153,-117,-29,-678,-897,-702,-580,-258
-287,-175,112,231,-200,-31,-29,-536,-663,-502,-414,-219
-229,-136,92,183,-161,-21,-9,-317,-405,-326,-278,-161
-151,-156,-4,153,-73,-80,24,-117,-214,-195,-175,-131
-107,-156,-48,131,-29,-102,53,-14,-117,-131,-122,-117
-117,-161,-43,139,-36,-102,78,4,-73,-107,-102,-107
-126,-156,-29,141,-48,-92,82,19,-34,-87,-102,-107
-131,-146,-14,139,-58,-80,82,29,-24,-78,-102,-112
-131,-146,-14,139,-58,-80,82,29,-24,-78,-102,-112
-126,-146,-19,136,-53,-82,82,34,-19,-73,-102,-112
-122,-141,-19,131,-51,-80,92,48,0,-68,-97,-112
-122,-141,-19,131,-51,-80,92,58,9,-68,-97,-117
-112,-141,-29,126,-41,-85,87,63,4,-63,-92,-117
-112,-165,-53,139,-29,-109,97,68,9,-63,-92,-117
-112,-195,-82,153,-14,-139,112,78,19,-58,-92,-117
-117,-180,-63,148,-26,-122,117,87,24,-58,-87,-117
-122,-161,-39,141,-41,-100,117,87,29,-58,-87,-117
-112,-151,-39,131,-36,-95,107,92,29,-58,-87,-117
-112,-146,-34,129,-39,-90,102,102,34,-53,-82,-122
-107,-151,-43,129,-31,-97,97,112,43,-48,-82,-122
-107,-151,-43,129,-31,-97,97,112,48,-43,-82,-117
-97,-151,-53,124,-21,-102,97,122,53,-43,-82,-117
-92,-146,-53,119,-19,-100,102,131,58,-43,-82,-117
-92,-131,-39,112,-26,-85,102,136,68,-39,-82,-117
-87,-117,-29,102,-29,-73,102,146,73,-39,-78,-122
-87,-117,-29,102,-29,-73,102,161,92,-29,-73,-122
-78,-122,-43,100,-17,-82,102,170,107,-19,-73,-117
-78,-126,-48,102,-14,-87,107,175,122,-19,-68,-112
-73,-131,-58,102,-7,-95,112,190,136,-19,-63,-112
-63,-126,-63,95,0,-95,112,209,146,-14,-63,-117
-58,-122,-63,90,2,-92,112,224,161,-9,-68,-117
-48,-112,-63,80,7,-87,117,239,170,0,-58,-117
-43,-107,-63,75,9,-85,122,263,190,9,-53,-117
-39,-97,-58,68,9,-78,117,287,209,19,-48,-112
-34,-92,-58,63,12,-75,112,307,229,24,-43,-107
-19,-87,-68,53,24,-78,112,326,248,39,-34,-107
-9,-82,-73,46,31,-78,112,346,273,43,-29,-102
0,-68,-68,34,34,-68,117,370,292,53,-24,-102
0,-53,-53,26,26,-53,117,390,317,58,-19,-107
14,-53,-68,19,41,-61,126,424,336,73,-9,-97
24,-43,-68,9,46,-56,126,448,356,87,0,-87
34,-34,-68,0,51,-51,126,473,380,102,9,-78
48,-24,-73,-12,61,-48,126,492,400,112,19,-68
63,-14,-78,-24,70,-46,122,512,414,112,19,-63
78,-9,-87,-34,82,-48,122,531,434,126,29,-53
97,-4,-102,-46,100,-53,122,536,439,126,39,-39
112,4,-107,-58,109,-51,112,541,448,136,48,-29
122,0,-122,-61,122,-61,102,551,458,136,58,-19
136,-4,-141,-65,139,-73,92,551,458,141,58,-9
146,19,-126,-82,136,-53,87,536,453,141,58,0
156,39,-117,-97,136,-39,82,522,444,136,63,9
170,48,-122,-109,146,-36,73,502,439,141,78,24
175,63,-112,-119,143,-24,53,473,414,141,78,39
170,73,-97,-122,134,-12,39,434,390,141,87,58
170,78,-92,-124,131,-7,14,390,361,136,92,63
170,87,-82,-129,126,2,4,346,322,136,97,78
165,92,-73,-129,119,9,-4,297,292,131,102,87
141,92,-48,-117,95,21,-9,258,258,122,102,87
122,92,-29,-107,75,31,-9,214,234,117,102,87
97,92,-4,-95,51,43,-9,170,190,107,97,82
73,82,9,-78,31,46,-14,131,156,92,87,78
48,82,34,-65,7,58,-14,102,126,82,73,63
34,78,43,-56,-4,61,-19,68,102,73,63,53
9,63,53,-36,-21,58,-19,34,73,63,53,34
-9,58,68,-24,-39,63,-14,4,48,48,39,19
-24,53,78,-14,-51,65,-14,-19,29,34,19,4
-34,43,78,-4,-56,61,-9,-29,14,29,14,-4
-43,29,73,7,-58,51,-4,-48,0,19,14,-14
-63,14,78,24,-70,46,0,-58,-14,14,9,-24
-63,9,73,26,-68,41,0,-58,-24,0,-4,-34
-73,9,82,31,-78,46,0,-63,-34,-9,-14,-43
-82,4,87,39,-85,46,0,-73,-39,-14,-14,-48
-82,0,82,41,-82,41,4,-73,-43,-14,-19,-48
-82,4,87,39,-85,46,0,-82,-53,-19,-19,-53
-82,4,87,39,-85,46,-4,-87,-58,-19,-29,-53
-87,14,102,36,-95,58,-4,-92,-63,-24,-34,-53
-87,24,112,31,-100,68,-4,-97,-68,-29,-39,-63
-82,9,92,36,-87,51,-4,-97,-68,-29,-43,-63
-73,-4,68,39,-70,31,0,-97,-68,-34,-43,-68
-73,-9,63,41,-68,26,0,-97,-68,-48,-43,-73
-73,-9,63,41,-68,26,0,-97,-68,-53,-43,-78
-78,-9,68,43,-73,29,0,-87,-63,-43,-43,-73
-82,-4,78,43,-80,36,0,-78,-58,-43,-43,-73
-82,-4,78,43,-80,36,0,-73,-58,-39,-39,-73
-82,-4,78,43,-80,36,0,-73,-58,-39,-39,-68
-78,-9,68,43,-73,29,4,-73,-58,-39,-39,-68
-78,-14,63,46,-70,24,4,-73,-58,-39,-43,-73
-78,-19,58,48,-68,19,4,-73,-53,-39,-43,-68
-82,-24,58,53,-70,17,4,-78,-53,-39,-39,-63
-82,-34,48,58,-65,7,9,-73,-53,-34,-34,-63
-82,-39,43,61,-63,2,9,-73,-53,-34,-39,-63
-82,-39,43,61,-63,2,9,-68,-53,-34,-39,-63
-87,-39,48,63,-68,4,9,-63,-48,-34,-39,-63
-87,-39,48,63,-68,4,14,-63,-48,-34,-43,-68
-87,-24,63,56,-75,19,9,-63,-48,-39,-48,-73
-82,-24,58,53,-70,17,14,-68,-48,-39,-48,-82
-82,-29,53,56,-68,12,24,-73,-48,-34,-48,-92
-87,-43,43,65,-65,0,24,-73,-48,-34,-48,-82
-87,-53,34,70,-61,-9,24,-73,-48,-34,-48,-78
-92,-19,73,56,-82,26,24,-73,-53,-43,-53,-82
-92,9,102,41,-97,56,19,-78,-63,-43,-53,-82
-92,0,92,46,-92,46,19,-78,-63,-43,-53,-82
-97,-9,87,53,-92,39,19,-73,-63,-39,-53,-82
-102,-9,92,56,-97,41,19,-73,-58,-39,-43,-78
-102,-19,82,61,-92,31,19,-73,-58,-39,-34,-78
-102,-9,92,56,-97,41,19,-78,-63,-34,-48,-78
-107,9,117,48,-112,63,19,-82,-63,-34,-63,-78
-107,-4,102,56,-104,48,19,-82,-58,-29,-48,-78
-102,-19,82,61,-92,31,24,-78,-53,-24,-34,-73
-102,-29,73,65,-87,21,24,-78,-53,-24,-34,-68
-102,-34,68,68,-85,17,24,-78,-53,-24,-34,-68
-107,-34,73,70,-90,19,24,-78,-53,-24,-34,-68
-107,-34,73,70,-90,19,24,-82,-53,-24,-34,-68
-107,-34,73,70,-90,19,24,-82,-53,-24,-34,-68
-102,-34,68,68,-85,17,19,-87,-58,-24,-34,-68
-102,-34,68,68,-85,17,14,-87,-63,-29,-39,-68
-102,-24,78,63,-90,26,14,-87,-63,-29,-39,-73
-97,-24,73,61,-85,24,9,-87,-63,-34,-48,-78
-92,-24,68,58,-80,21,4,-87,-63,-34,-58,-78
-97,-24,73,61,-85,24,4,-87,-68,-34,-53,-73
-97,-14,82,56,-90,34,4,-87,-68,-34,-53,-73
-97,-9,87,53,-92,39,9,-87,-63,-24,-43,-63
-97,-9,87,53,-92,39,19,-87,-58,-19,-39,-58
-97,-9,87,53,-92,39,24,-87,-53,-19,-39,-58
-97,-9,87,53,-92,39,29,-87,-48,-19,-39,-58
-97,-9,87,53,-92,39,29,-87,-48,-14,-34,-58
-97,4,102,46,-100,53,24,-87,-43,-9,-29,-58
-102,24,126,39,-114,75,19,-87,-43,-4,-29,-58
-102,53,156,24,-129,104,9,-87,-43,-4,-29,-58
-97,53,151,21,-124,102,9,-87,-29,0,-24,-53
-92,58,151,17,-122,104,4,-87,-24,4,-14,-43
-87,48,136,19,-112,92,0,-97,-24,4,-14,-34
-78,34,112,21,-95,73,-9,-102,-29,4,-14,-24
-78,58,136,9,-107,97,-29,-112,-48,0,-24,-24
-73,87,161,-7,-117,124,-43,-122,-53,-4,-29,-24
-73,78,151,-2,-112,114,-53,-126,-53,-4,-24,-19
-68,78,146,-4,-107,112,-68,-131,-53,4,-14,-14
-63,102,165,-19,-114,134,-82,-146,-58,14,0,0
-53,117,170,-31,-112,143,-92,-151,-63,19,9,9
-43,112,156,-34,-100,134,-92,-146,-68,19,9,9
-29,107,136,-39,-82,122,-82,-146,-78,9,4,9
-29,92,122,-31,-75,107,-82,-151,-87,-4,-4,9
-39,87,126,-24,-82,107,-82,-151,-92,-9,-9,9
-48,63,112,-7,-80,87,-68,-146,-92,-9,-14,4
-73,29,102,21,-87,65,-43,-136,-87,-9,-19,-9
-82,19,102,31,-92,61,-24,-126,-87,-19,-29,-24
-97,9,107,43,-102,58,-9,-126,-82,-34,-43,-48
-112,-14,97,63,-104,41,0,-122,-82,-43,-63,-68
-122,-24,97,73,-109,36,14,-117,-82,-48,-73,-73
-112,-24,87,68,-100,31,19,-117,-82,-48,-68,-78
-112,-39,73,75,-92,17,19,-112,-82,-48,-68,-82
-117,-78,39,97,-78,-19,24,-107,-82,-48,-73,-92
-117,-92,24,104,-70,-34,29,-107,-92,-58,-73,-92
-117,-73,43,95,-80,-14,29,-112,-92,-58,-78,-97
-122,-53,68,87,-95,7,29,-117,-92,-58,-78,-97
-122,-43,78,82,-100,17,29,-117,-92,-58,-78,-92
-122,-39,82,80,-102,21,29,-117,-92,-58,-78,-87
-122,-39,82,80,-102,21,29,-112,-92,-58,-73,-87
-122,-39,82,80,-102,21,34,-107,-92,-58,-68,-82
-122,-39,82,80,-102,21,29,-107,-92,-58,-73,-82
-122,-39,82,80,-102,21,24,-107,-92,-58,-73,-82
-122,-39,82,80,-102,21,24,-107,-92,-58,-82,-87
-122,-48,73,85,-97,12,29,-107,-87,-58,-87,-92
-122,-48,73,85,-97,12,29,-107,-87,-58,-87,-92
-122,-48,73,85,-97,12,29,-102,-87,-58,-87,-92
-122,-48,73,85,-97,12,34,-102,-87,-58,-82,-92
-122,-53,68,87,-95,7,39,-97,-82,-58,-78,-92
-126,-78,48,102,-87,-14,43,-87,-78,-58,-82,-102
-126,-112,14,119,-70,-48,53,-78,-82,-82,-117,-126
-151,-126,24,139,-87,-51,68,-78,-107,-136,-180,-180
-165,-131,34,148,-100,-48,63,-73,-131,-175,-224,-219
-112,-126,-14,119,-48,-70,39,-63,-136,-151,-185,-190
43,-87,-131,21,87,-109,-48,-9,-97,-63,-43,-63
336,-19,-356,-158,346,-187,-170,136,58,117,229,200
668,112,-556,-390,612,-222,-302,307,268,361,580,517
976,361,-614,-668,795,-126,-439,390,492,732,1019,902
1229,717,-512,-973,871,102,-649,126,380,1039,1459,1371
1356,985,-370,-1171,863,307,-795,-175,151,1166,1717,1678
1410,1176,-234,-1293,822,470,-897,-483,-102,1180,1830,1873
1268,1141,-126,-1205,697,507,-824,-561,-161,1132,1820,1893
951,644,-307,-797,629,168,-541,-531,-331,595,1215,1444
605,63,-541,-334,573,-239,-253,-507,-644,-126,302,668
200,-185,-385,-7,292,-285,-102,-590,-834,-580,-356,43
-146,-195,-48,170,-48,-122,-53,-712,-922,-702,-561,-180
-302,-180,122,241,-212,-29,-9,-649,-810,-624,-531,-258
-283,-107,175,195,-229,34,-14,-492,-575,-439,-375,-209
-200,-78,122,139,-161,21,0,-258,-317,-278,-248,-141
-131,-102,29,117,-80,-36,29,-87,-170,-170,-170,-126
-97,-107,-9,102,-43,-58,53,-14,-117,-131,-141,-126
-107,-107,0,107,-53,-53,78,0,-78,-112,-122,-122
-117,-97,19,107,-68,-39,82,9,-43,-97,-122,-126
-117,-87,29,102,-73,-29,82,19,-34,-87,-122,-136
-112,-87,24,100,-68,-31,82,19,-34,-87,-122,-141
-112,-97,14,104,-63,-41,82,24,-29,-82,-122,-136
-112,-102,9,107,-61,-46,92,39,-9,-78,-117,-131
-117,-102,14,109,-65,-43,92,43,0,-82,-122,-131
-112,-102,9,107,-61,-46,87,43,-4,-82,-122,-126
-112,-102,9,107,-61,-46,87,48,0,-82,-122,-126
-112,-107,4,109,-58,-51,92,58,9,-78,-122,-126
-112,-112,0,112,-56,-56,97,78,24,-73,-117,-126
-112,-112,0,112,-56,-56,97,87,39,-68,-117,-126
-102,-107,-4,104,-48,-56,92,92,39,-68,-117,-126
-102,-107,-4,104,-48,-56,92,102,43,-63,-112,-131
-97,-112,-14,104,-41,-63,92,112,53,-58,-112,-131
-97,-112,-14,104,-41,-63,97,112,58,-53,-112,-126
-92,-117,-24,104,-34,-70,97,122,68,-53,-112,-126
-92,-117,-24,104,-34,-70,102,131,78,-53,-112,-126
-87,-122,-34,104,-26,-78,107,141,87,-48,-107,-122
-78,-126,-48,102,-14,-87,112,156,92,-48,-97,-122
-78,-136,-58,107,-9,-97,112,170,107,-39,-92,-122
-68,-151,-82,109,7,-117,112,180,117,-29,-92,-117
-73,-117,-43,95,-14,-80,117,190,126,-24,-87,-117
-73,-82,-9,78,-31,-46,122,209,136,-19,-82,-122
-63,-87,-24,75,-19,-56,122,229,146,-19,-78,-122
-58,-92,-34,75,-12,-63,122,244,161,-19,-78,-117
-43,-87,-43,65,0,-65,122,263,175,-9,-73,-122
-34,-87,-53,61,9,-70,122,292,200,0,-73,-126
-29,-82,-53,56,12,-68,122,317,219,9,-73,-122
-24,-82,-58,53,17,-70,122,336,239,14,-73,-117
-9,-87,-78,48,34,-82,122,361,258,29,-63,-112
0,-92,-92,46,46,-92,122,385,283,34,-58,-102
14,-87,-102,36,58,-95,126,409,302,43,-53,-97
19,-82,-102,31,61,-92,126,429,326,48,-48,-97
34,-82,-117,24,75,-100,136,458,341,53,-39,-87
43,-73,-117,14,80,-95,136,478,356,58,-29,-78
53,-63,-117,4,85,-90,136,502,380,73,-19,-68
68,-53,-122,-7,95,-87,136,522,400,82,-9,-58
82,-48,-131,-17,107,-90,136,541,414,82,-9,-53
97,-48,-146,-24,122,-97,141,561,434,97,0,-43
117,-43,-161,-36,139,-102,141,566,439,97,4,-29
131,-34,-165,-48,148,-100,131,570,448,107,9,-19
141,-29,-170,-56,156,-100,117,575,453,102,19,-9
156,-24,-180,-65,168,-102,102,570,448,102,19,0
165,-14,-180,-75,173,-97,97,556,444,107,19,14
175,-9,-185,-82,180,-97,92,541,434,107,24,29
185,0,-185,-92,185,-92,82,517,429,112,39,43
185,14,-170,-100,178,-78,63,483,405,112,39,58
170,29,-141,-100,156,-56,53,439,380,112,48,73
161,39,-122,-100,141,-41,34,390,351,107,53,73
156,48,-107,-102,131,-29,29,346,312,112,58,87
146,53,-92,-100,119,-19,24,297,283,112,63,97
117,43,-73,-80,95,-14,19,258,248,102,63,97
92,34,-58,-63,75,-12,19,214,224,97,63,97
73,48,-24,-61,48,12,9,170,180,87,53,87
53,53,0,-53,26,26,-4,131,146,73,39,78
29,53,24,-41,2,39,-4,102,117,63,29,63
14,48,34,-31,-9,41,-9,68,92,53,24,53
-9,29,39,-9,-24,34,-4,43,73,48,19,39
-29,19,48,4,-39,34,4,24,58,39,9,29
-43,9,53,17,-48,31,4,0,39,24,-9,14
-53,-4,48,29,-51,21,9,-9,24,19,-14,4
-58,-9,48,34,-53,19,14,-29,9,0,-19,-4
-73,-14,58,43,-65,21,19,-39,-4,-14,-29,-14
-73,-19,53,46,-63,17,19,-43,-14,-19,-43,-24
-82,-19,63,51,-73,21,19,-53,-24,-19,-53,-34
-92,-24,68,58,-80,21,19,-63,-29,-24,-48,-39
-92,-29,63,61,-78,17,24,-63,-34,-24,-48,-39
-92,-29,63,61,-78,17,24,-68,-43,-34,-48,-43
-92,-34,58,63,-75,12,24,-68,-48,-39,-58,-43
-97,-34,63,65,-80,14,24,-68,-53,-39,-63,-43
-97,-34,63,65,-80,14,24,-68,-58,-39,-68,-53
-102,-39,63,70,-82,12,24,-68,-48,-34,-73,-48
-102,-43,58,73,-80,7,29,-68,-39,-34,-73,-48
-102,-63,39,82,-70,-12,29,-68,-39,-43,-73,-48
-102,-78,24,90,-63,-26,29,-68,-39,-43,-73,-48
-102,-58,43,80,-73,-7,24,-68,-39,-39,-73,-48
-102,-34,68,68,-85,17,19,-68,-39,-43,-73,-53
-102,-43,58,73,-80,7,19,-63,-39,-43,-68,-58
-102,-53,48,78,-75,-2,19,-63,-39,-48,-68,-58
-97,-58,39,78,-68,-9,29,-63,-39,-48,-68,-58
-97,-63,34,80,-65,-14,34,-63,-39,-48,-73,-63
-97,-63,34,80,-65,-14,34,-58,-34,-48,-73,-63
-102,-63,39,82,-70,-12,34,-58,-34,-48,-68,-63
-102,-53,48,78,-75,-2,34,-58,-43,-48,-68,-63
-102,-39,63,70,-82,12,29,-63,-53,-53,-78,-63
-102,-39,63,70,-82,12,29,-63,-53,-53,-78,-63
-107,-39,68,73,-87,14,29,-63,-48,-53,-78,-63
-107,-48,58,78,-82,4,29,-63,-48,-53,-82,-68
-107,-43,63,75,-85,9,19,-63,-48,-58,-87,-73
-107,-43,63,75,-85,9,24,-63,-48,-58,-87,-73
-112,-48,63,80,-87,7,34,-63,-48,-53,-87,-73
-117,-53,63,85,-90,4,39,-63,-43,-48,-87,-73
-117,-53,63,85,-90,4,43,-63,-39,-43,-87,-78
-122,-58,63,90,-92,2,43,-63,-39,-53,-92,-82
-122,-68,53,95,-87,-7,39,-68,-43,-53,-92,-82
-122,-58,63,90,-92,2,39,-73,-43,-58,-92,-82
-126,-48,78,87,-102,14,39,-73,-43,-58,-92,-82
-126,-29,97,78,-112,34,34,-73,-43,-58,-92,-78
-122,-19,102,70,-112,41,29,-73,-48,-58,-92,-78
-122,-43,78,82,-100,17,29,-73,-53,-48,-78,-73
-126,-58,68,92,-97,4,29,-73,-53,-43,-63,-68
-126,-58,68,92,-97,4,29,-73,-48,-43,-68,-68
-122,-58,63,90,-92,2,34,-68,-43,-43,-73,-63
-117,-63,53,90,-85,-4,34,-68,-43,-43,-73,-58
-112,-63,48,87,-80,-7,34,-68,-43,-43,-73,-58
-117,-63,53,90,-85,-4,34,-68,-43,-43,-73,-58
-117,-63,53,90,-85,-4,34,-73,-43,-43,-73,-58
-122,-53,68,87,-95,7,34,-73,-43,-48,-73,-58
-122,-43,78,82,-100,17,29,-78,-48,-53,-73,-58
-122,-34,87,78,-104,26,24,-78,-53,-58,-82,-63
-122,-14,107,68,-114,46,24,-78,-53,-58,-87,-73
-117,-34,82,75,-100,24,24,-78,-53,-58,-87,-78
-112,-53,58,82,-85,2,24,-78,-53,-53,-87,-78
-117,-58,58,87,-87,0,24,-78,-58,-53,-82,-68
-117,-53,63,85,-90,4,24,-78,-58,-53,-82,-63
-112,-48,63,80,-87,7,24,-78,-53,-48,-78,-58
-112,-43,68,78,-90,12,24,-78,-53,-43,-73,-53
-112,-24,87,68,-100,31,24,-78,-48,-39,-68,-48
-117,-9,107,63,-112,48,29,-78,-48,-39,-68,-48
-117,-9,107,63,-112,48,29,-78,-43,-39,-63,-43
-117,-9,107,63,-112,48,29,-78,-39,-39,-58,-39
-117,-9,107,63,-112,48,29,-78,-29,-29,-53,-34
-117,-9,107,63,-112,48,29,-78,-19,-19,-48,-29
-117,-9,107,63,-112,48,29,-78,-19,-19,-48,-29
-117,-9,107,63,-112,48,29,-78,-19,-19,-48,-29
-112,-9,102,61,-107,46,19,-87,-29,-24,-53,-29
-107,-9,97,58,-102,43,9,-97,-39,-29,-58,-29
-107,4,112,51,-109,58,-4,-102,-39,-29,-58,-29
-107,19,126,43,-117,73,-19,-107,-39,-29,-58,-29
-92,43,136,24,-114,90,-39,-117,-39,-19,-48,-19
-78,68,146,4,-112,107,-58,-126,-39,-9,-39,-9
-73,78,151,-2,-112,114,-63,-131,-43,-9,-24,4
-68,87,156,-9,-112,122,-68,-136,-48,-9,-9,19
-63,87,151,-12,-107,119,-73,-146,-63,-9,-19,19
-58,87,146,-14,-102,117,-78,-156,-78,-9,-29,19
-58,73,131,-7,-95,102,-78,-156,-82,-24,-39,9
-58,58,117,0,-87,87,-78,-156,-87,-39,-48,0
-63,48,112,7,-87,80,-58,-151,-87,-39,-48,-4
-68,39,107,14,-87,73,-39,-146,-87,-39,-48,-9
-87,24,112,31,-100,68,-29,-136,-87,-48,-63,-29
-107,9,117,48,-112,63,-19,-126,-87,-58,-78,-48
-117,-19,97,68,-107,39,0,-122,-87,-63,-87,-63
-126,-48,78,87,-102,14,19,-117,-87,-68,-97,-78
-126,-48,78,87,-102,14,19,-112,-87,-73,-97,-78
-126,-48,78,87,-102,14,19,-107,-87,-78,-97,-78
-126,-68,58,97,-92,-4,19,-107,-92,-82,-107,-82
-126,-87,39,107,-82,-24,19,-107,-97,-87,-117,-87
-126,-78,48,102,-87,-14,19,-107,-97,-87,-117,-92
-126,-68,58,97,-92,-4,19,-107,-97,-87,-117,-97
-126,-68,58,97,-92,-4,19,-107,-97,-87,-117,-97
-126,-68,58,97,-92,-4,19,-107,-97,-87,-117,-97
-126,-73,53,100,-90,-9,24,-107,-97,-87,-117,-97
-126,-78,48,102,-87,-14,29,-107,-97,-87,-117,-97
-131,-82,48,107,-90,-17,29,-107,-97,-87,-117,-97
-136,-87,48,112,-92,-19,29,-107,-97,-87,-117,-97
-136,-87,48,112,-92,-19,29,-107,-97,-87,-117,-97
-136,-87,48,112,-92,-19,29,-107,-97,-87,-117,-97
-131,-87,43,109,-87,-21,29,-107,-97,-87,-112,-92
-126,-87,39,107,-82,-24,29,-107,-97,-87,-107,-87
-122,-87,34,104,-78,-26,24,-107,-97,-82,-97,-78
-117,-87,29,102,-73,-29,19,-107,-97,-78,-87,-68
-48,-68,-19,58,-14,-43,-39,-107,-112,-68,-53,-29
19,-48,-68,14,43,-58,-97,-107,-126,-58,-19,9
107,-24,-131,-41,119,-78,-165,-73,-82,-14,39,63
195,0,-195,-97,195,-97,-234,-39,-39,29,97,117
268,117,-151,-192,209,-17,-322,-146,-112,117,234,263
341,234,-107,-287,224,63,-409,-253,-185,204,370,409
453,380,-73,-417,263,153,-546,-590,-566,219,561,673
566,527,-39,-546,302,244,-683,-927,-946,234,751,936
751,644,-107,-697,429,268,-810,-1107,-1098,326,1029,1263
936,761,-175,-849,556,292,-936,-1288,-1249,419,1307,1590
1058,824,-234,-941,646,295,-1054,-1410,-1351,473,1478,1810
1180,888,-292,-1034,736,297,-1171,-1532,-1454,527,1649,2030
1063,800,-263,-932,663,268,-1117,-1488,-1356,453,1551,2000
946,712,-234,-829,590,239,-1063,-1444,-1259,380,1454,1971
688,405,-283,-546,485,61,-814,-1151,-1107,-48,712,1293
429,97,-331,-263,380,-117,-566,-858,-956,-478,-29,614
209,34,-175,-122,192,-70,-375,-629,-736,-429,-141,341
-9,-29,-19,19,4,-24,-185,-400,-517,-380,-253,68
-48,-48,0,48,-24,-24,-107,-263,-351,-292,-219,-4
-87,-68,19,78,-53,-24,-29,-126,-185,-204,-185,-78
-87,-102,-14,95,-36,-58,14,-68,-131,-175,-170,-92
-87,-136,-48,112,-19,-92,58,-9,-78,-146,-156,-107
-92,-136,-43,114,-24,-90,73,24,-29,-122,-156,-122
-97,-136,-39,117,-29,-87,87,58,19,-97,-156,-136
-107,-136,-29,122,-39,-82,97,68,19,-97,-156,-146
-117,-136,-19,126,-48,-78,107,78,19,-97,-156,-156
-117,-141,-24,129,-46,-82,112,92,39,-97,-156,-161
-117,-146,-29,131,-43,-87,117,107,58,-97,-156,-165
-122,-161,-39,141,-41,-100,117,112,68,-92,-156,-165
-126,-175,-48,151,-39,-112,117,117,78,-87,-156,-165
-126,-161,-34,143,-46,-97,117,126,82,-87,-156,-165
-126,-146,-19,136,-53,-82,117,136,87,-87,-156,-165
-122,-141,-19,131,-51,-80,122,146,97,-82,-156,-170
-117,-136,-19,126,-48,-78,126,156,107,-78,-156,-175
-117,-136,-19,126,-48,-78,126,161,112,-73,-156,-180
-117,-136,-19,126,-48,-78,126,165,117,-68,-156,-185
-117,-141,-24,129,-46,-82,136,185,136,-63,-151,-185
-117,-146,-29,131,-43,-87,146,204,156,-58,-146,-185
-112,-146,-34,129,-39,-90,146,219,165,-53,-141,-185
-107,-146,-39,126,-34,-92,146,234,175,-48,-136,-185
-107,-146,-39,126,-34,-92,151,248,195,-39,-131,-180
-107,-146,-39,126,-34,-92,156,263,214,-29,-126,-175
-97,-146,-48,122,-24,-97,161,287,234,-19,-122,-175
-87,-146,-58,117,-14,-102,165,312,253,-9,-117,-175
-87,-146,-58,117,-14,-102,170,336,273,-4,-117,-180
-87,-146,-58,117,-14,-102,175,361,292,0,-117,-185
-87,-146,-58,117,-14,-102,180,385,322,14,-112,-185
-87,-146,-58,117,-14,-102,185,409,351,29,-107,-185
-78,-136,-58,107,-9,-97,195,439,375,39,-102,-185
-68,-126,-58,97,-4,-92,204,468,400,48,-97,-185
-63,-126,-63,95,0,-95,214,492,429,63,-92,-185
-58,-126,-68,92,4,-97,224,517,458,78,-87,-185
-53,-126,-73,90,9,-100,229,551,488,87,-87,-195
-48,-126,-78,87,14,-102,234,585,517,97,-87,-204
-48,-126,-78,87,14,-102,244,614,551,112,-82,-204
-48,-126,-78,87,14,-102,253,644,585,126,-78,-204
-43,-126,-82,85,19,-104,268,678,619,141,-73,-204
-39,-126,-87,82,24,-107,283,712,653,156,-68,-204
-34,-102,-68,68,17,-85,273,722,668,156,-68,-204
-29,-78,-48,53,9,-63,263,732,683,156,-68,-204
-19,-78,-58,48,19,-68,263,741,697,161,-68,-204
-9,-78,-68,43,29,-73,263,751,712,165,-68,-204
4,-78,-82,36,43,-80,263,751,712,175,-53,-190
19,-78,-97,29,58,-87,263,751,712,185,-39,-175
24,-68,-92,21,58,-80,253,741,707,185,-29,-156
29,-58,-87,14,58,-73,244,732,702,185,-19,-136
39,-43,-82,2,61,-63,224,688,678,180,-14,-117
48,-29,-78,-9,63,-53,204,644,653,175,-9,-97
58,-9,-68,-24,63,-39,180,595,605,165,-4,-78
68,9,-58,-39,63,-24,156,546,556,156,0,-58
68,-4,-73,-31,70,-39,136,483,512,151,14,-34
68,-19,-87,-24,78,-53,117,419,468,146,29,-9
63,-4,-68,-29,65,-36,92,366,405,131,29,4
58,9,-48,-34,53,-19,68,312,341,117,29,19
53,19,-34,-36,43,-7,53,253,292,102,29,24
48,29,-19,-39,34,4,39,195,244,87,29,29
39,29,-9,-34,24,9,29,151,200,68,24,29
29,29,0,-29,14,14,19,107,156,48,19,29
9,19,9,-14,0,14,14,68,122,39,9,29
-9,9,19,0,-14,14,9,29,87,29,0,29
-19,9,29,4,-24,19,9,4,53,19,-9,19
-29,9,39,9,-34,24,9,-19,19,9,-19,9
-39,0,39,19,-39,19,4,-34,4,0,-19,0
-48,-9,39,29,-43,14,0,-48,-9,-9,-19,-9
-58,-9,48,34,-53,19,-4,-58,-19,-19,-29,-14
-68,-9,58,39,-63,24,-9,-68,-29,-29,-39,-19
-73,-9,63,41,-68,26,-9,-82,-48,-39,-48,-34
-78,-9,68,43,-73,29,-9,-97,-68,-48,-58,-48
-78,-19,58,48,-68,19,-4,-97,-68,-53,-58,-48
-78,-29,48,53,-63,9,0,-97,-68,-58,-58,-48
-78,-29,48,53,-63,9,0,-97,-68,-58,-63,-48
-78,-29,48,53,-63,9,0,-97,-68,-58,-68,-48
-78,-34,43,56,-61,4,-4,-97,-73,-58,-68,-53
-78,-39,39,58,-58,0,-9,-97,-78,-58,-68,-58
-78,-43,34,61,-56,-4,-9,-102,-82,-58,-68,-58
-78,-48,29,63,-53,-9,-9,-107,-87,-58,-68,-58
-78,-48,29,63,-53,-9,-9,-107,-87,-63,-68,-58
-78,-48,29,63,-53,-9,-9,-107,-87,-68,-68,-58
-78,-48,29,63,-53,-9,-4,-102,-87,-68,-68,-58
-78,-48,29,63,-53,-9,0,-97,-87,-68,-68,-58
-78,-48,29,63,-53,-9,0,-97,-87,-68,-68,-58
-78,-48,29,63,-53,-9,0,-97,-87,-68,-68,-58
-78,-48,29,63,-53,-9,0,-97,-87,-68,-73,-63
-78,-48,29,63,-53,-9,0,-97,-87,-68,-78,-68
-78,-48,29,63,-53,-9,0,-97,-87,-68,-78,-68
-78,-48,29,63,-53,-9,0,-97,-87,-68,-78,-68
-78,-63,14,70,-46,-24,4,-92,-82,-68,-73,-68
-78,-78,0,78,-39,-39,9,-87,-78,-68,-68,-68
-78,-78,0,78,-39,-39,9,-87,-78,-68,-68,-68
-78,-78,0,78,-39,-39,9,-87,-78,-68,-68,-68
-82,-73,9,78,-46,-31,4,-87,-78,-68,-73,-73
-87,-68,19,78,-53,-24,0,-87,-78,-68,-78,-78
-92,-53,39,73,-65,-7,0,-87,-73,-68,-78,-78
-97,-39,58,68,-78,9,0,-87,-68,-68,-78,-78
-97,-53,43,75,-70,-4,9,-87,-63,-63,-78,-78
-97,-68,29,82,-63,-19,19,-87,-58,-58,-78,-78
-97,-58,39,78,-68,-9,19,-87,-58,-58,-78,-78
-97,-48,48,73,-73,0,19,-87,-58,-58,-78,-78
-97,-39,58,68,-78,9,19,-87,-58,-58,-78,-78
-97,-29,68,63,-82,19,19,-87,-58,-58,-78,-78
-97,-43,53,70,-75,4,19,-82,-58,-53,-73,-73
-97,-58,39,78,-68,-9,19,-78,-58,-48,-68,-68
-97,-58,39,78,-68,-9,19,-78,-58,-48,-68,-68
-97,-58,39,78,-68,-9,19,-78,-58,-48,-68,-68
-97,-53,43,75,-70,-4,14,-78,-58,-48,-68,-68
-97,-48,48,73,-73,0,9,-78,-58,-48,-68,-68
-97,-48,48,73,-73,0,9,-78,-58,-48,-68,-73
-97,-48,48,73,-73,0,9,-78,-58,-48,-68,-78
-97,-48,48,73,-73,0,9,-78,-58,-48,-68,-78
-97,-48,48,73,-73,0,9,-78,-58,-48,-68,-78
-97,-48,48,73,-73,0,9,-82,-63,-48,-68,-78
-97,-48,48,73,-73,0,9,-87,-68,-48,-68,-78
-97,-39,58,68,-78,9,9,-87,-73,-53,-68,-78
-97,-29,68,63,-82,19,9,-87,-78,-58,-68,-78
-97,-39,58,68,-78,9,9,-87,-78,-58,-68,-78
-97,-48,48,73,-73,0,9,-87,-78,-58,-68,-78
-97,-58,39,78,-68,-9,9,-87,-78,-58,-68,-78
-97,-68,29,82,-63,-19,9,-87,-78,-58,-68,-78
-97,-68,29,82,-63,-19,9,-87,-78,-53,-68,-73
-97,-68,29,82,-63,-19,9,-87,-78,-48,-68,-68
-97,-39,58,68,-78,9,4,-92,-73,-48,-63,-63
-97,-9,87,53,-92,39,0,-97,-68,-48,-58,-58
-97,-9,87,53,-92,39,0,-97,-68,-43,-53,-58
-97,-9,87,53,-92,39,0,-97,-68,-39,-48,-58
-97,-4,92,51,-95,43,9,-97,-63,-39,-48,-58
-97,4,102,46,-100,53,14,-97,-58,-34,-48,-58
-102,14,117,43,-109,65,19,-97,-53,-34,-48,-58
-102,14,117,43,-109,65,19,-97,-43,-29,-43,-58
-107,19,126,43,-117,73,4,-92,-48,-24,-34,-53
-107,19,126,43,-117,73,-9,-97,-53,-24,-34,-48
-97,14,112,41,-104,63,-19,-102,-58,-29,-34,-43
-97,14,112,41,-104,63,-34,-112,-73,-34,-39,-43
-87,19,107,34,-97,63,-39,-122,-73,-34,-39,-43
-82,24,107,29,-95,65,-43,-126,-73,-34,-34,-34
-78,34,112,21,-95,73,-53,-131,-73,-19,-24,-24
-73,58,131,7,-102,95,-68,-146,-78,-9,-14,-9
-63,78,141,-7,-102,109,-82,-151,-78,-9,-9,0
-53,78,131,-12,-92,104,-92,-156,-82,-9,-9,0
-39,78,117,-19,-78,97,-92,-165,-97,-19,-14,0
-29,63,92,-17,-61,78,-92,-170,-107,-34,-24,0
-29,58,87,-14,-58,73,-92,-170,-112,-39,-24,0
-29,48,78,-9,-53,63,-78,-165,-112,-39,-24,-4
-43,24,68,9,-56,46,-53,-156,-107,-34,-29,-19
-63,0,63,31,-63,31,-34,-141,-107,-34,-34,-29
-87,-19,68,53,-78,24,-19,-136,-102,-39,-39,-43
-102,-43,58,73,-80,7,-9,-131,-102,-43,-53,-58
-112,-58,53,85,-82,-2,4,-122,-97,-48,-63,-63
-102,-63,39,82,-70,-12,9,-117,-92,-53,-63,-68
-102,-87,14,95,-58,-36,9,-112,-92,-58,-68,-68
-107,-122,-14,114,-46,-68,14,-107,-92,-58,-73,-73
-107,-112,-4,109,-51,-58,19,-107,-107,-73,-78,-73
-107,-102,4,104,-56,-48,19,-107,-112,-78,-87,-78
-112,-102,9,107,-61,-46,19,-107,-112,-78,-87,-78
-112,-97,14,104,-63,-41,19,-107,-112,-78,-87,-78
-112,-97,14,104,-63,-41,19,-107,-112,-78,-87,-78
-112,-97,14,104,-63,-41,19,-107,-112,-78,-87,-82
-112,-97,14,104,-63,-41,24,-107,-112,-78,-87,-87
-112,-97,14,104,-63,-41,24,-107,-112,-78,-92,-92
-112,-102,9,107,-61,-46,24,-107,-112,-78,-92,-92
-112,-107,4,109,-58,-51,24,-107,-112,-78,-92,-92
-112,-117,-4,114,-53,-61,29,-107,-102,-78,-82,-92
-112,-117,-4,114,-53,-61,29,-107,-97,-78,-78,-92
-112,-112,0,112,-56,-56,29,-102,-97,-73,-78,-92
-112,-102,9,107,-61,-46,29,-102,-97,-68,-78,-92
-112,-92,19,102,-65,-36,29,-97,-92,-68,-78,-87
-117,-97,19,107,-68,-39,34,-92,-92,-68,-82,-92
-117,-122,-4,119,-56,-63,43,-87,-102,-92,-117,-117
-146,-146,0,146,-73,-73,63,-87,-126,-151,-190,-185
-190,-175,14,183,-102,-80,73,-92,-165,-214,-278,-263
-180,-190,-9,185,-85,-100,68,-92,-180,-209,-273,-258
-68,-165,-97,117,14,-131,4,-73,-170,-156,-170,-175
175,-107,-283,-34,229,-195,-92,39,-48,0,68,43
483,-24,-507,-229,495,-265,-195,278,219,253,424,351
790,175,-614,-483,702,-219,-312,463,536,644,897,746
1073,570,-502,-822,788,34,-546,258,483,1024,1434,1273
1244,897,-346,-1071,795,275,-741,-29,258,1234,1795,1659
1366,1224,-141,-1295,753,541,-932,-400,-29,1371,2059,2005
1322,1356,34,-1339,644,695,-946,-561,-102,1464,2239,2191
1088,888,-200,-988,644,344,-678,-551,-244,1010,1781,1883
795,224,-570,-509,683,-173,-366,-492,-527,248,834,1132
380,-165,-546,-107,463,-356,-170,-551,-780,-405,-87,312
-4,-258,-253,131,124,-256,-92,-688,-956,-692,-502,-78
-234,-258,-24,246,-104,-141,-43,-678,-897,-688,-561,-234
-278,-195,82,236,-180,-56,-39,-575,-707,-536,-444,-239
-200,-151,48,175,-124,-51,-19,-341,-439,-361,-302,-170
-131,-156,-24,143,-53,-90,14,-146,-244,-229,-204,-136
-87,-156,-68,122,-9,-112,43,-48,-151,-165,-161,-126
-87,-156,-68,122,-9,-112,68,-19,-97,-131,-131,-117
-97,-136,-39,117,-29,-87,73,-9,-63,-117,-131,-117
-102,-117,-14,109,-43,-65,73,0,-53,-107,-131,-126
-102,-117,-14,109,-43,-65,73,-4,-53,-107,-131,-131
-102,-126,-24,114,-39,-75,73,-4,-48,-102,-131,-131
-102,-131,-29,117,-36,-80,82,9,-29,-97,-126,-136
-102,-131,-29,117,-36,-80,82,19,-14,-97,-126,-146
-92,-131,-39,112,-26,-85,73,24,-14,-92,-122,-146
-92,-131,-39,112,-26,-85,68,29,-9,-92,-122,-146
-92,-136,-43,114,-24,-90,73,39,4,-87,-122,-141
-92,-136,-43,114,-24,-90,78,48,14,-87,-117,-136
-97,-126,-29,112,-34,-78,78,48,19,-87,-122,-136
-92,-117,-24,104,-34,-70,73,53,19,-87,-126,-136
-92,-107,-14,100,-39,-61,73,63,19,-82,-122,-141
-87,-102,-14,95,-36,-58,73,73,24,-78,-122,-141
-82,-97,-14,90,-34,-56,78,73,24,-73,-117,-146
-73,-97,-24,85,-24,-61,78,82,29,-73,-112,-156
-73,-97,-24,85,-24,-61,82,92,39,-78,-112,-146
-73,-92,-19,82,-26,-56,82,102,48,-78,-112,-136
-68,-92,-24,80,-21,-58,82,117,53,-78,-107,-141
-68,-97,-29,82,-19,-63,82,131,68,-68,-102,-141
-58,-102,-43,80,-7,-73,82,141,82,-58,-102,-136
-58,-102,-43,80,-7,-73,87,151,102,-53,-97,-131
-53,-97,-43,75,-4,-70,92,170,117,-48,-97,-136
-43,-87,-43,65,0,-65,92,190,126,-43,-97,-141
-43,-82,-39,63,-2,-61,92,204,141,-39,-97,-136
-39,-78,-39,58,0,-58,97,219,156,-29,-87,-136
-34,-78,-43,56,4,-61,102,244,180,-19,-82,-136
-29,-73,-43,51,7,-58,102,268,200,-9,-78,-131
-19,-68,-48,43,14,-58,102,283,214,-4,-73,-126
0,-58,-58,29,29,-58,102,302,229,9,-63,-126
9,-53,-63,21,36,-58,102,326,253,19,-53,-122
24,-48,-73,12,48,-61,107,351,273,34,-43,-117
24,-34,-58,4,41,-46,102,370,297,39,-39,-117
34,-24,-58,-4,46,-41,107,400,317,53,-29,-107
43,-29,-73,-7,58,-51,107,419,336,63,-24,-97
53,-34,-87,-9,70,-61,107,444,361,73,-19,-87
68,-24,-92,-21,80,-58,107,463,380,82,-9,-78
82,-14,-97,-34,90,-56,102,483,395,82,-9,-73
102,-9,-112,-46,107,-61,102,502,414,97,0,-63
122,-4,-126,-58,124,-65,102,507,419,97,9,-48
131,4,-126,-68,129,-61,102,512,434,107,19,-34
141,9,-131,-75,136,-61,102,522,448,107,29,-19
156,24,-131,-90,143,-53,82,527,448,112,29,-9
165,43,-122,-104,143,-39,68,517,444,117,29,4
175,48,-126,-112,151,-39,63,502,429,112,34,14
185,58,-126,-122,156,-34,53,483,419,112,48,24
185,68,-117,-126,151,-24,34,453,395,112,48,39
180,78,-102,-129,141,-12,24,414,370,112,58,58
190,87,-102,-139,146,-7,4,375,346,112,63,63
195,97,-97,-146,146,0,-4,336,312,117,68,78
185,102,-82,-143,134,9,-14,287,283,112,73,92
161,102,-58,-131,109,21,-19,248,248,102,73,97
136,102,-34,-119,85,34,-19,200,224,97,73,97
112,102,-9,-107,61,46,-19,151,180,87,68,87
92,82,-9,-87,51,36,-19,112,146,73,58,78
68,73,4,-70,31,39,-14,82,117,63,48,63
53,68,14,-61,19,41,-19,48,92,53,43,53
29,53,24,-41,2,39,-19,19,63,43,34,39
9,48,39,-29,-14,43,-14,0,39,29,19,24
-4,43,48,-19,-26,46,-14,-19,19,14,0,4
-19,29,48,-4,-34,39,-9,-29,4,9,-4,-4
-34,19,53,7,-43,36,-9,-48,-9,0,-4,-14
-53,14,68,19,-61,41,-9,-58,-24,-4,-9,-24
-53,9,63,21,-58,36,-9,-63,-34,-19,-24,-34
-63,9,73,26,-68,41,0,-73,-48,-29,-34,-43
-73,4,78,34,-75,41,9,-82,-58,-34,-34,-48
-73,14,87,29,-80,51,4,-92,-63,-39,-43,-53
-73,24,97,24,-85,61,-4,-107,-68,-48,-48,-63
-73,4,78,34,-75,41,-4,-107,-68,-48,-58,-63
-78,-4,73,41,-75,34,-4,-107,-73,-48,-58,-63
-78,-4,73,41,-75,34,-4,-107,-78,-48,-53,-68
-82,-9,73,46,-78,31,-4,-107,-78,-48,-53,-63
-82,-14,68,48,-75,26,0,-102,-78,-53,-53,-68
-82,-19,63,51,-73,21,0,-97,-78,-63,-53,-68
-82,-9,73,46,-78,31,0,-97,-73,-63,-53,-68
-82,0,82,41,-82,41,0,-97,-68,-53,-53,-63
-82,4,87,39,-85,46,0,-97,-68,-48,-53,-63
-82,4,87,39,-85,46,0,-92,-68,-43,-53,-68
-82,0,82,41,-82,41,0,-92,-73,-48,-58,-68
-78,-9,68,43,-73,29,4,-92,-78,-48,-58,-68
-78,-14,63,46,-70,24,4,-92,-78,-48,-63,-73
-78,-14,63,46,-70,24,4,-87,-73,-48,-63,-73
-82,-19,63,51,-73,21,0,-87,-73,-48,-58,-73
-82,-29,53,56,-68,12,0,-82,-73,-48,-58,-73
-82,-29,53,56,-68,12,0,-82,-73,-53,-68,-73
-82,-29,53,56,-68,12,0,-82,-73,-53,-68,-73
-87,-29,58,58,-73,14,4,-82,-63,-53,-63,-68
-87,-29,58,58,-73,14,9,-82,-58,-53,-58,-68
-82,-19,63,51,-73,21,4,-78,-58,-58,-58,-73
-78,-24,53,51,-65,14,9,-73,-58,-58,-58,-73
-82,-34,48,58,-65,7,14,-73,-58,-53,-53,-73
-87,-39,48,63,-68,4,14,-73,-58,-53,-48,-73
-87,-34,53,61,-70,9,14,-73,-58,-48,-48,-78
-87,-24,63,56,-75,19,14,-73,-58,-53,-53,-82
-82,-9,73,46,-78,31,9,-82,-68,-53,-58,-82
-82,0,82,41,-82,41,9,-87,-73,-53,-63,-82
-87,-9,78,48,-82,34,9,-82,-73,-48,-63,-82
-92,-19,73,56,-82,26,9,-82,-68,-48,-63,-78
-92,-29,63,61,-78,17,9,-78,-63,-53,-63,-78
-92,-29,63,61,-78,17,9,-78,-63,-53,-63,-78
-97,-19,78,58,-87,29,9,-82,-63,-53,-63,-82
-97,-19,78,58,-87,29,9,-82,-63,-53,-58,-87
-92,-19,73,56,-82,26,14,-82,-68,-48,-53,-82
-92,-24,68,58,-80,21,14,-87,-73,-43,-53,-78
-87,-24,63,56,-75,19,14,-87,-73,-43,-53,-78
-87,-24,63,56,-75,19,14,-87,-73,-43,-53,-78
-87,-24,63,56,-75,19,4,-92,-73,-43,-53,-78
-87,-24,63,56,-75,19,-4,-92,-73,-43,-53,-78
-82,-24,58,53,-70,17,0,-97,-78,-43,-53,-78
-82,-24,58,53,-70,17,4,-97,-82,-48,-58,-78
-82,-14,68,48,-75,26,4,-97,-82,-48,-58,-78
-82,-24,58,53,-70,17,4,-97,-82,-48,-58,-78
-82,-34,48,58,-65,7,4,-97,-82,-43,-58,-78
-87,-34,53,61,-70,9,4,-97,-82,-43,-53,-68
-87,-29,58,58,-73,14,4,-97,-78,-43,-53,-63
-87,-24,63,56,-75,19,4,-97,-78,-43,-53,-63
-92,-34,58,63,-75,12,0,-102,-82,-43,-53,-63
-92,-43,48,68,-70,2,-4,-107,-82,-43,-53,-63
-87,-39,48,63,-68,4,-4,-107,-82,-43,-53,-63
-87,-34,53,61,-70,9,0,-102,-82,-43,-53,-68
-87,-14,73,51,-80,29,0,-112,-78,-48,-58,-68
-92,0,92,46,-92,46,-4,-122,-73,-53,-63,-68
-87,0,87,43,-87,43,0,-107,-68,-39,-48,-63
-87,0,87,43,-87,43,0,-97,-68,-29,-39,-58
-87,4,92,41,-90,48,4,-92,-63,-29,-34,-53
-87,9,97,39,-92,53,9,-87,-58,-29,-29,-48
-87,14,102,36,-95,58,9,-87,-58,-29,-29,-48
-87,24,112,31,-100,68,4,-87,-53,-19,-29,-48
-92,39,131,26,-112,85,4,-87,-53,-14,-29,-48
-92,43,136,24,-114,90,0,-87,-43,0,-24,-48
-92,48,141,21,-117,95,-4,-87,-43,-4,-14,-48
-87,48,136,19,-112,92,-9,-97,-43,-14,-14,-48
-78,43,122,17,-100,82,-19,-102,-48,-14,-14,-43
-78,43,122,17,-100,82,-34,-112,-63,-14,-19,-43
-73,48,122,12,-97,85,-43,-126,-68,-14,-24,-43
-73,53,126,9,-100,90,-53,-136,-73,-14,-24,-34
-68,58,126,4,-97,92,-68,-141,-73,-4,-14,-24
-63,78,141,-7,-102,109,-87,-156,-78,0,-4,-9
-53,97,151,-21,-102,124,-97,-156,-82,0,0,0
-43,97,141,-26,-92,119,-102,-156,-92,0,0,0
-29,102,131,-36,-80,117,-102,-165,-107,-9,-4,0
-19,92,112,-36,-65,102,-102,-170,-117,-24,-14,0
-19,87,107,-34,-63,97,-102,-170,-117,-29,-19,0
-19,78,97,-29,-58,87,-87,-165,-112,-29,-24,-4
-34,39,73,-2,-53,56,-53,-156,-107,-29,-24,-19
-53,0,53,26,-53,26,-24,-141,-107,-34,-24,-29
-82,4,87,39,-85,46,-19,-136,-102,-43,-34,-53
-102,4,107,48,-104,56,-19,-131,-102,-53,-53,-78
-112,-4,107,58,-109,51,-4,-126,-102,-58,-63,-82
-102,-4,97,53,-100,46,0,-126,-102,-63,-63,-87
-92,-19,73,56,-82,26,0,-122,-102,-68,-68,-87
-87,-43,43,65,-65,0,4,-117,-102,-68,-73,-92
-97,-43,53,70,-75,4,9,-117,-112,-78,-73,-92
-107,-43,63,75,-85,9,9,-117,-112,-78,-78,-97
-112,-43,68,78,-90,12,9,-117,-112,-78,-78,-97
-112,-39,73,75,-92,17,9,-117,-112,-78,-78,-97
-107,-43,63,75,-85,9,9,-117,-112,-78,-78,-92
-102,-48,53,75,-78,2,9,-117,-112,-78,-78,-92
-102,-48,53,75,-78,2,14,-117,-112,-78,-78,-92
-102,-48,53,75,-78,2,14,-117,-112,-78,-82,-92
-107,-48,58,78,-82,4,9,-117,-112,-78,-82,-92
-112,-48,63,80,-87,7,4,-117,-112,-78,-82,-92
-112,-58,53,85,-82,-2,9,-117,-107,-73,-78,-97
-112,-58,53,85,-82,-2,9,-117,-107,-68,-78,-102
-112,-58,53,85,-82,-2,9,-112,-107,-68,-78,-102
-112,-53,58,82,-85,2,9,-112,-107,-68,-78,-102
-112,-53,58,82,-85,2,19,-107,-102,-68,-78,-102
-117,-68,48,92,-82,-9,34,-102,-102,-68,-82,-112
-117,-92,24,104,-70,-34,43,-97,-122,-102,-117,-136
-146,-117,29,131,-87,-43,63,-97,-156,-170,-190,-204
-146,-131,14,139,-80,-58,53,-87,-170,-204,-234,-248
-92,-131,-39,112,-26,-85,29,-73,-161,-170,-185,-209
68,-78,-146,4,107,-112,-53,4,-87,-73,-43,-82
361,9,-351,-185,356,-170,-170,175,97,126,234,180
668,141,-527,-405,597,-192,-292,312,273,380,585,492
976,390,-585,-683,780,-97,-429,395,497,771,1054,893
1215,727,-488,-971,851,119,-634,141,395,1049,1478,1337
1342,995,-346,-1168,844,324,-800,-195,122,1156,1727,1639
1381,1127,-253,-1254,817,436,-897,-483,-151,1151,1805,1815
1254,1063,-190,-1159,722,436,-819,-561,-209,1102,1800,1830
961,634,-326,-797,644,153,-570,-575,-370,629,1283,1434
610,9,-600,-309,605,-295,-278,-541,-673,-151,278,595
234,-258,-492,12,363,-375,-126,-590,-834,-595,-375,-4
-112,-229,-117,170,2,-173,-92,-717,-917,-673,-522,-175
-263,-209,53,236,-158,-78,-39,-624,-795,-619,-522,-278
-229,-126,102,178,-165,-12,-29,-439,-541,-419,-346,-229
-161,-97,63,129,-112,-17,-9,-244,-326,-278,-234,-170
-102,-117,-14,109,-43,-65,24,-87,-185,-180,-165,-146
-68,-117,-48,92,-9,-82,48,-14,-112,-131,-131,-136
-78,-117,-39,97,-19,-78,68,-9,-78,-112,-112,-126
-87,-107,-19,97,-34,-63,63,0,-48,-102,-112,-126
-92,-97,-4,95,-43,-51,53,9,-43,-97,-112,-136
-92,-92,0,92,-46,-46,63,4,-48,-97,-112,-141
-92,-97,-4,95,-43,-51,73,4,-48,-92,-112,-141
-92,-102,-9,97,-41,-56,82,19,-29,-87,-107,-141
-92,-102,-9,97,-41,-56,82,29,-14,-87,-107,-146
-82,-117,-34,100,-24,-75,78,43,-14,-82,-102,-136
-82,-131,-48,107,-17,-90,78,58,-9,-82,-102,-126
-82,-117,-34,100,-24,-75,78,58,0,-78,-107,-136
-82,-97,-14,90,-34,-56,78,58,4,-78,-107,-146
-82,-92,-9,87,-36,-51,78,58,9,-78,-107,-146
-73,-87,-14,80,-29,-51,73,63,9,-78,-107,-146
-73,-92,-19,82,-26,-56,78,73,14,-73,-97,-151
-68,-102,-34,85,-17,-68,82,82,24,-68,-92,-151
-68,-102,-34,85,-17,-68,87,82,29,-63,-92,-146
-63,-107,-43,85,-9,-75,87,92,39,-63,-92,-146
-63,-112,-48,87,-7,-80,92,102,53,-63,-87,-141
-63,-112,-48,87,-7,-80,92,112,68,-58,-82,-136
-58,-107,-48,82,-4,-78,92,131,73,-58,-78,-141
-58,-107,-48,82,-4,-78,92,151,87,-48,-73,-141
-48,-112,-63,80,7,-87,92,161,97,-39,-78,-136
-48,-112,-63,80,7,-87,97,170,112,-34,-78,-131
-43,-112,-68,78,12,-90,102,190,126,-29,-73,-131
-34,-107,-73,70,19,-90,102,209,136,-24,-68,-131
-29,-97,-68,63,19,-82,102,224,151,-19,-68,-126
-19,-87,-68,53,24,-78,107,239,165,-9,-58,-126
-14,-82,-68,48,26,-75,112,263,190,0,-53,-126
-9,-73,-63,41,26,-68,112,287,209,9,-48,-122
-4,-73,-68,39,31,-70,112,312,229,24,-39,-112
9,-68,-78,29,43,-73,112,341,248,48,-24,-107
19,-68,-87,24,53,-78,112,370,278,53,-19,-102
34,-68,-102,17,68,-85,117,400,302,63,-14,-97
39,-63,-102,12,70,-82,117,419,326,68,-9,-97
53,-63,-117,4,85,-90,126,448,346,82,0,-87
68,-43,-112,-12,90,-78,126,458,356,92,9,-82
82,-24,-107,-29,95,-65,126,473,370,102,19,-78
97,-24,-122,-36,109,-73,126,492,390,112,29,-68
112,-24,-136,-43,124,-80,122,512,405,112,29,-63
122,-19,-141,-51,131,-80,122,531,424,126,34,-53
131,-14,-146,-58,139,-80,122,536,429,126,39,-39
141,0,-141,-70,141,-70,112,541,439,136,48,-29
151,9,-141,-80,146,-65,102,551,448,136,58,-19
165,14,-151,-90,158,-68,87,551,448,136,58,-14
175,24,-151,-100,163,-63,78,536,444,136,58,-4
190,39,-151,-114,170,-56,73,522,434,131,63,9
204,58,-146,-131,175,-43,63,502,429,131,78,24
204,58,-146,-131,175,-43,43,473,405,131,78,39
200,58,-141,-129,170,-41,34,434,380,131,87,58
195,68,-126,-131,161,-29,14,385,346,126,87,58
185,78,-107,-131,146,-14,4,336,302,126,87,68
175,82,-92,-129,134,-4,-4,287,273,122,92,78
151,82,-68,-117,109,7,-9,248,239,112,92,78
131,82,-48,-107,90,17,-9,204,214,107,92,78
112,82,-29,-97,70,26,-9,161,170,97,87,68
97,73,-24,-85,61,24,-14,122,136,82,78,58
78,73,-4,-75,41,34,-14,92,107,73,68,43
63,63,0,-63,31,31,-19,58,82,63,63,39
39,43,4,-41,17,24,-19,29,53,53,53,29
19,39,19,-29,0,29,-14,9,34,43,39,19
4,34,29,-19,-12,31,-14,-9,19,34,19,4
-4,9,14,-2,-9,12,-9,-19,4,29,14,0
-14,-9,4,12,-9,-2,-9,-39,-9,19,14,-4
-34,14,48,9,-41,31,-9,-48,-24,9,9,-14
-34,39,73,-2,-53,56,-9,-53,-34,-9,-4,-24
-48,24,73,12,-61,48,-9,-63,-43,-19,-14,-34
-63,4,68,29,-65,36,-9,-73,-48,-24,-14,-39
-63,0,63,31,-63,31,0,-73,-53,-24,-19,-39
-63,-4,58,34,-61,26,4,-78,-58,-29,-19,-43
-63,-14,48,39,-56,17,9,-78,-53,-29,-29,-43
-68,-14,53,41,-61,19,14,-78,-53,-29,-29,-43
-68,-14,53,41,-61,19,14,-78,-58,-24,-29,-53
-73,-19,53,46,-63,17,14,-78,-58,-19,-34,-53
-68,-24,43,46,-56,9,14,-78,-58,-24,-34,-58
-63,-29,34,46,-48,2,9,-78,-58,-34,-34,-58
-63,-29,34,46,-48,2,9,-78,-58,-34,-34,-58
-63,-29,34,46,-48,2,9,-78,-58,-24,-34,-53
-63,-24,39,43,-51,7,4,-78,-58,-29,-34,-53
-63,-24,39,43,-51,7,0,-73,-58,-34,-34,-58
-68,-29,39,48,-53,4,0,-73,-58,-39,-39,-58
-68,-39,29,53,-48,-4,4,-73,-58,-39,-39,-58
-68,-43,24,56,-46,-9,9,-73,-58,-39,-43,-63
-68,-43,24,56,-46,-9,14,-68,-53,-39,-43,-63
-68,-39,29,53,-48,-4,14,-68,-53,-39,-39,-68
-63,-39,24,51,-43,-7,19,-63,-53,-39,-39,-73
-63,-39,24,51,-43,-7,19,-63,-53,-39,-53,-73
-63,-39,24,51,-43,-7,19,-63,-53,-34,-58,-73
-68,-43,24,56,-46,-9,24,-63,-48,-34,-58,-68
-68,-48,19,58,-43,-14,29,-63,-48,-34,-58,-68
-68,-39,29,53,-48,-4,24,-63,-53,-39,-53,-73
-68,-43,24,56,-46,-9,29,-63,-58,-39,-48,-73
-73,-58,14,65,-43,-21,34,-63,-58,-34,-48,-73
-78,-68,9,73,-43,-29,34,-63,-58,-34,-48,-73
-78,-39,39,58,-58,0,29,-68,-58,-34,-53,-78
-78,-4,73,41,-75,34,24,-73,-58,-43,-63,-82
-73,-9,63,41,-68,26,19,-78,-63,-43,-63,-82
-73,-19,53,46,-63,17,19,-78,-63,-43,-63,-82
-78,-19,58,48,-68,19,19,-68,-63,-39,-58,-82
-82,-19,63,51,-73,21,19,-63,-58,-39,-53,-78
-82,-29,53,56,-68,12,19,-63,-58,-39,-53,-73
-82,-29,53,56,-68,12,19,-68,-63,-34,-53,-68
-87,-19,68,53,-78,24,19,-73,-63,-34,-58,-68
-87,-19,68,53,-78,24,19,-73,-63,-34,-58,-68
-82,-19,63,51,-73,21,24,-68,-63,-34,-53,-68
-82,-24,58,53,-70,17,24,-68,-63,-34,-53,-68
-78,-24,53,51,-65,14,24,-68,-63,-34,-53,-68
-78,-24,53,51,-65,14,24,-68,-63,-34,-53,-68
-78,-24,53,51,-65,14,24,-78,-63,-34,-53,-68
-78,-24,53,51,-65,14,24,-82,-63,-34,-53,-68
-73,-24,48,48,-61,12,19,-87,-68,-34,-53,-68
-73,-24,48,48,-61,12,14,-87,-73,-39,-58,-68
-78,-19,58,48,-68,19,19,-82,-73,-39,-53,-68
-82,-34,48,58,-65,7,24,-78,-73,-39,-48,-68
-82,-43,39,63,-61,-2,24,-73,-68,-29,-48,-68
-87,-43,43,65,-65,0,24,-68,-63,-24,-43,-58
-87,-53,34,70,-61,-9,24,-68,-58,-24,-43,-53
-87,-63,24,75,-56,-19,24,-68,-58,-24,-43,-53
-92,-39,53,65,-73,7,19,-82,-68,-34,-53,-63
-92,-14,78,53,-85,31,14,-97,-73,-43,-63,-73
-87,-19,68,53,-78,24,14,-97,-73,-43,-63,-73
-87,-29,58,58,-73,14,19,-92,-73,-43,-63,-78
-87,-34,53,61,-70,9,19,-92,-73,-48,-63,-78
-87,-39,48,63,-68,4,19,-97,-73,-53,-63,-78
-82,-24,58,53,-70,17,19,-92,-63,-43,-53,-68
-78,-9,68,43,-73,29,19,-87,-58,-39,-48,-58
-78,-4,73,41,-75,34,19,-87,-58,-29,-43,-58
-78,0,78,39,-78,39,19,-87,-58,-19,-39,-58
-78,0,78,39,-78,39,19,-78,-53,-19,-39,-53
-82,4,87,39,-85,46,19,-73,-48,-14,-39,-48
-87,14,102,36,-95,58,24,-68,-43,-14,-39,-43
-92,24,117,34,-104,70,29,-68,-43,-14,-39,-39
-92,24,117,34,-104,70,29,-73,-39,-9,-34,-39
-92,29,122,31,-107,75,24,-78,-43,-4,-24,-34
-82,29,112,26,-97,70,19,-87,-43,-4,-24,-34
-68,24,92,21,-80,58,9,-92,-48,-4,-24,-34
-68,24,92,21,-80,58,-4,-102,-58,-4,-29,-34
-63,29,92,17,-78,61,-14,-112,-53,-4,-29,-34
-63,34,97,14,-80,65,-24,-117,-53,-4,-24,-24
-58,48,107,4,-82,78,-39,-122,-53,4,-14,-14
-53,82,136,-14,-95,109,-58,-136,-58,9,-4,-4
-43,107,151,-31,-97,129,-73,-141,-63,9,0,0
-34,107,141,-36,-87,124,-87,-146,-73,9,0,0
-19,107,126,-43,-73,117,-92,-156,-87,0,-4,0
-9,92,102,-41,-56,97,-92,-161,-97,-14,-14,9
-9,87,97,-39,-53,92,-92,-161,-102,-19,-19,19
-9,78,87,-34,-48,82,-78,-156,-102,-19,-24,14
-24,58,82,-17,-53,70,-53,-146,-97,-19,-29,0
-43,39,82,2,-63,61,-34,-131,-97,-24,-34,-9
-68,19,87,24,-78,53,-19,-126,-92,-34,-43,-29
-87,-4,82,46,-85,39,-9,-122,-92,-43,-58,-53
-102,-14,87,58,-95,36,4,-117,-92,-48,-63,-63
-92,-14,78,53,-85,31,14,-117,-92,-48,-63,-68
-92,-29,63,61,-78,17,19,-112,-92,-48,-68,-73
-97,-53,43,75,-70,-4,24,-107,-82,-48,-73,-82
-97,-53,43,75,-70,-4,29,-107,-82,-58,-73,-82
-97,-53,43,75,-70,-4,29,-107,-97,-63,-78,-87
-102,-53,48,78,-75,-2,29,-107,-112,-68,-78,-87
-102,-48,53,75,-78,2,29,-107,-112,-68,-78,-87
-102,-48,53,75,-78,2,29,-107,-112,-68,-78,-87
-102,-53,48,78,-75,-2,29,-107,-102,-68,-78,-92
-102,-58,43,80,-73,-7,34,-107,-92,-68,-78,-92
-102,-58,43,80,-73,-7,34,-107,-92,-68,-82,-87
-102,-58,43,80,-73,-7,34,-107,-92,-68,-82,-82
-102,-53,48,78,-75,-2,34,-107,-92,-63,-82,-82
-102,-58,43,80,-73,-7,39,-107,-87,-58,-78,-82
-102,-58,43,80,-73,-7,39,-107,-87,-58,-82,-82
