I,II,III,aVR,aVL,aVF,V1,V2,V3,V4,V5,V6,
-14,-43,-29,29,7,-36,53,-14,-58,-58,-48,-39
-14,-43,-29,29,7,-36,43,-34,-73,-58,-48,-39
-19,-43,-24,31,2,-34,34,-58,-78,-53,-43,-34
-4,-34,-29,19,12,-31,9,-58,-68,-39,-34,-29
9,-19,-29,4,19,-24,-4,-58,-58,-34,-24,-24
-14,-19,-4,17,-4,-12,-14,-68,-68,-34,-24,-29
-34,-24,9,29,-21,-7,-19,-63,-63,-34,-24,-29
-43,-34,9,39,-26,-12,-34,-53,-53,-34,-34,-29
-53,-43,9,48,-31,-17,-53,-43,-63,-39,-34,-29
-24,-29,-4,26,-9,-17,-34,-39,-48,-39,-29,-29
4,-14,-19,4,12,-17,-14,-24,-34,-39,-29,-34
4,-14,-19,4,12,-17,-19,-19,-34,-34,-29,-34
4,-14,-19,4,12,-17,-24,-19,-34,-29,-24,-34
-4,-14,-9,9,2,-12,-29,-24,-34,-34,-24,-34
-9,-14,-4,12,-2,-9,-34,-24,-34,-34,-24,-34
-14,-14,0,14,-7,-7,-24,-24,-34,-39,-29,-39
-19,-9,9,14,-14,0,-24,-24,-34,-43,-39,-43
-19,-9,9,14,-14,0,-24,-24,-34,-43,-39,-39
-19,-9,9,14,-14,0,-24,-24,-39,-43,-39,-39
-34,-14,19,24,-26,2,-24,-24,-48,-48,-39,-43
-43,-19,24,31,-34,2,-19,-19,-53,-48,-43,-43
-29,-19,9,24,-19,-4,-9,-19,-48,-43,-43,-39
-19,-14,4,17,-12,-4,-9,-19,-48,-43,-39,-39
-19,-14,4,17,-12,-4,-9,-14,-48,-43,-39,-48
-24,-14,9,19,-17,-2,-14,-9,-48,-43,-39,-53
-29,-24,4,26,-17,-9,-14,-9,-53,-43,-39,-53
-29,-24,4,26,-17,-9,-19,-9,-53,-48,-43,-53
-19,-14,4,17,-12,-4,-9,-9,-53,-48,-43,-48
-9,-4,4,7,-7,0,0,-14,-53,-48,-43,-43
-9,-4,4,7,-7,0,4,-14,-53,-48,-48,-43
-9,-9,0,9,-4,-4,14,-9,-43,-48,-53,-43
-9,-29,-19,19,4,-24,24,9,-34,-48,-48,-48
-9,-39,-29,24,9,-34,34,9,-29,-24,-34,-43
-29,-43,-14,36,-7,-29,53,24,14,19,-4,-29
-43,-29,14,36,-29,-7,78,48,112,112,48,0
-24,0,24,12,-24,12,68,53,209,244,170,78
34,73,39,-53,-2,56,9,-34,136,395,346,214
92,141,48,-117,21,95,-73,-200,-63,507,497,351
185,273,87,-229,48,180,-200,-453,-273,663,722,561
341,497,156,-419,92,326,-400,-810,-405,1005,1156,936
444,722,278,-583,82,500,-585,-1185,-610,1263,1503,1244
473,814,341,-644,65,578,-761,-1556,-1137,1190,1595,1400
395,639,244,-517,75,441,-834,-1805,-1917,483,1078,1137
292,209,-82,-251,187,63,-800,-1888,-2620,-800,34,453
258,-190,-448,-34,353,-319,-741,-1839,-2874,-1566,-712,-82
283,-326,-610,21,446,-468,-741,-1688,-2713,-1712,-941,-273
180,-317,-497,68,339,-407,-712,-1468,-2371,-1571,-927,-307
112,-185,-297,36,204,-241,-727,-1298,-1991,-1351,-810,-258
78,-87,-165,4,122,-126,-707,-1156,-1654,-1137,-697,-195
78,-19,-97,-29,87,-58,-678,-1044,-1371,-941,-570,-122
73,14,-58,-43,65,-21,-619,-912,-1127,-785,-478,-78
39,53,14,-46,12,34,-512,-780,-932,-649,-409,-68
-43,39,82,2,-63,61,-400,-624,-751,-536,-351,-73
-92,9,102,41,-97,56,-307,-468,-580,-448,-322,-92
-97,-34,63,65,-80,14,-229,-331,-429,-370,-297,-117
-68,-63,4,65,-36,-29,-156,-200,-278,-287,-258,-136
-43,-82,-39,63,-2,-61,-73,-78,-131,-209,-214,-136
-58,-87,-29,73,-14,-58,-4,29,-9,-112,-151,-117
-68,-92,-24,80,-21,-58,24,87,68,-48,-107,-107
-43,-87,-43,65,0,-65,34,97,87,-48,-102,-107
-68,-87,-19,78,-24,-53,39,102,87,-39,-102,-112
-68,-92,-24,80,-21,-58,53,122,112,-29,-92,-107
-63,-92,-29,78,-17,-61,68,131,122,-24,-87,-107
-63,-92,-29,78,-17,-61,63,141,122,-24,-87,-107
-63,-87,-24,75,-19,-56,78,151,126,-24,-82,-107
-78,-87,-9,82,-34,-48,92,156,131,-19,-82,-107
-87,-92,-4,90,-41,-48,97,161,136,-19,-87,-107
-82,-92,-9,87,-36,-51,102,175,146,-14,-87,-107
-82,-82,0,82,-41,-41,112,190,156,-4,-87,-107
-82,-73,9,78,-46,-31,117,190,175,9,-82,-102
-82,-63,19,73,-51,-21,126,195,185,14,-78,-102
-82,-63,19,73,-51,-21,131,195,200,29,-68,-92
-82,-58,24,70,-53,-17,136,204,204,43,-63,-87
-73,-53,19,63,-46,-17,136,214,209,39,-63,-87
-58,-48,9,53,-34,-19,141,229,219,39,-63,-87
-68,-48,19,58,-43,-14,151,239,224,43,-63,-92
-82,-48,34,65,-58,-7,161,239,234,43,-63,-92
-82,-48,34,65,-58,-7,170,248,244,53,-53,-92
-82,-48,34,65,-58,-7,185,253,258,63,-53,-92
-78,-43,34,61,-56,-4,180,244,263,68,-53,-87
-78,-39,39,58,-58,0,175,248,283,68,-48,-87
-92,-39,53,65,-73,7,165,244,292,73,-48,-87
-92,-39,53,65,-73,7,146,239,307,78,-39,-87
-78,-24,53,51,-65,14,126,239,317,92,-34,-82
-68,-9,58,39,-63,24,117,248,351,97,-19,-73
-68,-4,63,36,-65,29,112,268,375,112,-19,-73
-63,-4,58,34,-61,26,112,287,409,126,-9,-73
-48,4,53,21,-51,29,112,307,444,136,-4,-73
-34,19,53,7,-43,36,107,336,478,141,4,-68
-34,14,48,9,-41,31,112,366,522,165,29,-58
-34,9,43,12,-39,26,117,400,566,195,43,-53
-34,14,48,9,-41,31,122,444,619,209,53,-48
-39,14,53,12,-46,34,141,483,663,234,63,-43
-34,14,48,9,-41,31,156,512,697,253,78,-43
-34,24,58,4,-46,41,175,551,746,283,87,-39
-29,24,53,2,-41,39,200,600,795,302,97,-39
-19,24,43,-2,-31,34,219,644,854,326,112,-34
-24,19,43,2,-34,31,229,653,888,341,122,-34
-34,24,58,4,-46,41,248,673,907,351,131,-34
-43,14,58,14,-51,36,263,707,941,361,131,-29
-53,0,53,26,-53,26,273,736,971,366,136,-29
-48,0,48,24,-48,24,287,751,990,380,146,-34
-39,9,48,14,-43,29,297,761,1010,395,156,-34
-43,4,48,19,-46,26,312,775,1015,405,165,-39
-48,-4,43,26,-46,19,326,785,1015,409,170,-29
-48,-4,43,26,-46,19,331,761,995,409,170,-19
-39,0,39,19,-39,19,336,732,966,405,175,-19
-34,4,39,14,-36,21,331,688,902,395,175,-9
-29,4,34,12,-31,19,322,629,834,375,175,0
-29,-9,19,19,-24,4,287,551,741,351,165,9
-29,-19,9,24,-19,-4,253,458,639,317,161,9
-29,-19,9,24,-19,-4,214,390,551,292,146,14
-24,-19,4,21,-14,-7,180,322,473,253,126,19
-14,-19,-4,17,-4,-12,146,253,385,214,122,24
-9,-19,-9,14,0,-14,107,190,302,180,107,29
-24,-19,4,21,-14,-7,78,146,239,146,92,24
-29,-19,9,24,-19,-4,48,107,175,112,68,14
-4,-9,-4,7,0,-7,29,63,136,87,53,9
19,-9,-29,-4,24,-19,9,29,92,73,48,4
9,-9,-19,0,14,-14,-14,14,48,48,24,14
9,-4,-14,-2,12,-9,-19,-4,19,29,24,19
9,-14,-24,2,17,-19,-34,-19,0,9,9,-4
14,-14,-29,0,21,-21,-43,-39,-19,-4,-4,-24
14,-14,-29,0,21,-21,-48,-43,-34,-24,-9,-9
19,-19,-39,0,29,-29,-53,-43,-39,-29,-19,-9
9,-34,-43,12,26,-39,-43,-34,-48,-29,-24,-19
-4,-43,-39,24,17,-41,-34,-34,-58,-34,-24,-19
4,-29,-34,12,19,-31,-34,-34,-53,-34,-24,-14
19,-14,-34,-2,26,-24,-29,-34,-53,-39,-24,-14
19,-14,-34,-2,26,-24,-24,-19,-48,-34,-29,-14
19,-14,-34,-2,26,-24,-19,-4,-48,-34,-29,-14
24,-14,-39,-4,31,-26,-4,4,-43,-34,-24,-14
34,-4,-39,-14,36,-21,9,14,-39,-29,-19,-9
19,-19,-39,0,29,-29,14,9,-43,-34,-19,-14
0,-34,-34,17,17,-34,14,9,-43,-34,-19,-14
-9,-34,-24,21,7,-29,14,9,-43,-34,-29,-19
-14,-29,-14,21,0,-21,14,9,-43,-29,-39,-24
-19,-24,-4,21,-7,-14,39,19,-43,-29,-39,-19
-24,-19,4,21,-14,-7,73,34,-43,-29,-34,-19
-39,-24,14,31,-26,-4,92,34,-43,-29,-34,-24
-48,-34,14,41,-31,-9,112,24,-48,-29,-34,-29
-48,-34,14,41,-31,-9,102,9,-48,-29,-34,-29
-53,-34,19,43,-36,-7,82,-9,-48,-29,-34,-29
-73,-24,48,48,-61,12,63,-29,-58,-34,-34,-29
-82,-14,68,48,-75,26,43,-48,-63,-39,-34,-29
-63,-19,43,41,-53,12,24,-58,-58,-39,-34,-29
-39,-29,9,34,-24,-9,4,-63,-58,-43,-24,-24
-53,-34,19,43,-36,-7,-9,-53,-53,-39,-34,-24
-53,-43,9,48,-31,-17,-39,-48,-43,-29,-39,-24
-43,-43,0,43,-21,-21,-43,-43,-43,-29,-39,-19
-29,-43,-14,36,-7,-29,-39,-43,-43,-34,-39,-19
-34,-53,-19,43,-7,-36,-29,-39,-34,-39,-39,-24
-34,-58,-24,46,-4,-41,-29,-29,-29,-34,-39,-34
-29,-53,-24,41,-2,-39,-24,-24,-29,-39,-39,-34
-29,-58,-29,43,0,-43,-14,-19,-19,-43,-39,-34
-29,-58,-29,43,0,-43,4,-19,-14,-39,-39,-34
-19,-58,-39,39,9,-48,19,-9,-9,-34,-34,-34
-24,-63,-39,43,7,-51,0,-4,-9,-24,-34,-29
-29,-73,-43,51,7,-58,0,0,-14,-19,-39,-29
-29,-73,-43,51,7,-58,4,4,-14,-19,-34,-29
-29,-73,-43,51,7,-58,14,9,-14,-19,-29,-29
-9,-53,-43,31,17,-48,4,9,-9,-14,-24,-24
4,-34,-39,14,21,-36,0,14,-9,-9,-24,-19
14,-34,-48,9,31,-41,19,24,-4,-14,-29,-14
24,-34,-58,4,41,-46,19,24,0,-14,-24,-9
24,-29,-53,2,39,-41,19,24,0,-9,-24,-9
29,-29,-58,0,43,-43,19,29,0,-4,-24,-9
43,-29,-73,-7,58,-51,29,34,9,-4,-14,-9
53,-24,-78,-14,65,-51,24,39,19,0,-4,-4
53,-24,-78,-14,65,-51,29,43,19,4,-4,-4
48,-34,-82,-7,65,-58,29,43,19,4,-14,-9
34,-34,-68,0,51,-51,29,39,9,4,-14,-14
29,-34,-63,2,46,-48,34,39,9,0,-19,-14
24,-34,-58,4,41,-46,48,43,9,-9,-19,-9
9,-34,-43,12,26,-39,63,43,4,-9,-19,-9
-9,-29,-19,19,4,-24,68,39,-4,-9,-19,-9
-14,-24,-9,19,-2,-17,73,34,-14,-14,-19,-14
-29,-29,0,29,-14,-14,82,19,-24,-14,-19,-14
-43,-34,9,39,-26,-12,82,0,-39,-24,-19,-24
-39,-34,4,36,-21,-14,63,-14,-43,-29,-24,-29
-34,-34,0,34,-17,-17,43,-29,-48,-34,-29,-29
-29,-24,4,26,-17,-9,14,-34,-53,-34,-34,-29
-29,-19,9,24,-19,-4,-9,-39,-58,-39,-39,-29
-29,-19,9,24,-19,-4,-14,-39,-58,-39,-43,-29
-29,-19,9,24,-19,-4,-19,-39,-58,-39,-48,-29
-34,-29,4,31,-19,-12,-29,-39,-58,-43,-48,-29
-34,-34,0,34,-17,-17,-34,-43,-63,-48,-48,-29
-34,-39,-4,36,-14,-21,-39,-48,-68,-53,-53,-29
-34,-43,-9,39,-12,-26,-39,-48,-68,-53,-58,-29
-34,-48,-14,41,-9,-31,-39,-53,-68,-58,-58,-29
-43,-53,-9,48,-17,-31,-48,-53,-78,-68,-58,-34
-39,-53,-14,46,-12,-34,-43,-53,-82,-58,-58,-39
-34,-53,-19,43,-7,-36,-34,-43,-82,-58,-58,-39
-39,-53,-14,46,-12,-34,-19,-39,-68,-53,-58,-34
-39,-53,-14,46,-12,-34,-14,-39,-68,-53,-63,-34
-34,-48,-14,41,-9,-31,-14,-29,-63,-63,-63,-34
-34,-48,-14,41,-9,-31,-19,-34,-73,-63,-63,-39
-34,-53,-19,43,-7,-36,-4,-19,-63,-63,-58,-39
-34,-53,-19,43,-7,-36,9,-9,-43,-63,-63,-39
-34,-53,-19,43,-7,-36,9,-9,-53,-68,-63,-43
-34,-53,-19,43,-7,-36,14,-14,-53,-68,-63,-48
-34,-53,-19,43,-7,-36,19,-14,-53,-68,-68,-53
-34,-53,-19,43,-7,-36,19,-9,-53,-68,-68,-53
-24,-53,-29,39,2,-41,19,0,-48,-68,-63,-53
-14,-53,-39,34,12,-46,24,4,-43,-73,-63,-53
-9,-48,-39,29,14,-43,24,9,-39,-63,-58,-43
-9,-43,-34,26,12,-39,34,14,-34,-53,-53,-34
-4,-39,-34,21,14,-36,39,19,-24,-53,-53,-34
0,-39,-39,19,19,-39,43,24,-14,-53,-48,-29
0,-43,-43,21,21,-43,43,39,-9,-48,-48,-29
-4,-48,-43,26,19,-46,43,53,-4,-48,-48,-34
-9,-48,-39,29,14,-43,58,63,-4,-48,-53,-34
-9,-48,-39,29,14,-43,78,68,0,-43,-53,-29
-9,-39,-29,24,9,-34,92,68,0,-43,-43,-29
-9,-34,-24,21,7,-29,107,68,0,-43,-39,-34
-24,-29,-4,26,-9,-17,102,48,-4,-39,-39,-34
-39,-34,4,36,-21,-14,102,29,-14,-34,-39,-34
-48,-29,19,39,-34,-4,82,9,-29,-39,-43,-34
-53,-19,34,36,-43,7,68,-9,-43,-39,-43,-34
-48,-14,34,31,-41,9,58,-34,-48,-43,-43,-34
-48,-14,34,31,-41,9,43,-58,-53,-48,-43,-34
-43,-14,29,29,-36,7,29,-63,-43,-48,-43,-29
-39,-19,19,29,-29,0,14,-48,-24,-43,-39,-24
-39,-19,19,29,-29,0,-9,-58,-24,-14,-24,-14
-39,-9,29,24,-34,9,-29,-68,4,43,24,9
-34,19,53,7,-43,36,-19,-29,141,156,102,53
-14,53,68,-19,-41,61,-43,-34,229,297,239,156
43,131,87,-87,-21,109,-117,-136,126,453,424,312
102,214,112,-158,-4,163,-200,-302,-68,566,595,463
204,361,156,-283,24,258,-326,-566,-307,722,844,692
336,551,214,-444,61,383,-527,-893,-522,966,1190,1019
405,775,370,-590,17,573,-707,-1254,-756,1205,1503,1312
405,858,453,-631,-24,656,-829,-1556,-1244,1044,1503,1395
297,639,341,-468,-21,490,-854,-1751,-2044,161,814,1010
224,263,39,-244,92,151,-810,-1781,-2581,-907,-97,409
204,-146,-351,-29,278,-248,-717,-1698,-2732,-1566,-775,-102
190,-312,-502,61,346,-407,-683,-1581,-2615,-1756,-1019,-317
63,-253,-317,95,190,-285,-644,-1351,-2235,-1532,-936,-307
14,-131,-146,58,80,-139,-644,-1176,-1888,-1322,-819,-258
19,-53,-73,17,46,-63,-624,-1039,-1566,-1117,-697,-185
24,19,-4,-21,14,7,-580,-927,-1283,-922,-575,-117
14,58,43,-36,-14,51,-497,-800,-1044,-766,-483,-78
-9,87,97,-39,-53,92,-409,-683,-849,-629,-409,-68
-92,58,151,17,-122,104,-312,-536,-678,-517,-351,-78
-117,24,141,46,-129,82,-224,-390,-507,-424,-312,-92
-92,-24,68,58,-80,21,-151,-263,-356,-346,-287,-112
-58,-53,4,56,-31,-24,-92,-141,-209,-258,-248,-126
-34,-73,-39,53,2,-56,-14,-14,-68,-175,-200,-122
-34,-73,-39,53,2,-56,48,82,43,-87,-136,-97
-29,-73,-43,51,7,-58,63,126,112,-39,-92,-87
-4,-68,-63,36,29,-65,73,146,136,-39,-82,-82
-34,-73,-39,53,2,-56,97,151,136,-29,-82,-87
-39,-78,-39,58,0,-58,117,161,156,-19,-73,-87
-39,-73,-34,56,-2,-53,131,161,156,-14,-73,-92
-43,-73,-29,58,-7,-51,136,161,151,-14,-78,-97
-58,-68,-9,63,-24,-39,161,161,151,-19,-78,-97
-78,-68,9,73,-43,-29,185,165,151,-19,-78,-97
-87,-73,14,80,-51,-29,156,161,151,-19,-78,-97
-92,-73,19,82,-56,-26,122,156,151,-19,-78,-97
-78,-63,14,70,-46,-24,122,161,156,-14,-78,-97
-63,-63,0,63,-31,-31,122,161,165,-4,-73,-92
-63,-58,4,61,-34,-26,107,156,165,-4,-68,-92
-63,-53,9,58,-36,-21,87,146,180,0,-63,-87
-58,-48,9,53,-34,-19,78,156,185,4,-58,-87
-58,-48,9,53,-34,-19,68,161,190,9,-53,-87
-58,-48,9,53,-34,-19,73,170,190,19,-53,-87
-58,-48,9,53,-34,-19,78,180,190,24,-53,-92
-63,-48,14,56,-39,-17,73,180,204,24,-53,-92
-63,-48,14,56,-39,-17,73,190,219,34,-43,-92
-53,-43,9,48,-31,-17,82,195,239,43,-43,-87
-39,-39,0,39,-19,-19,82,200,244,48,-43,-82
-34,-39,-4,36,-14,-21,87,214,258,43,-39,-87
-43,-39,4,41,-24,-17,97,229,278,48,-39,-87
-43,-39,4,41,-24,-17,97,244,307,58,-29,-87
-39,-39,0,39,-19,-19,97,253,322,73,-24,-82
-39,-39,0,39,-19,-19,107,273,351,82,-9,-73
-39,-34,4,36,-21,-14,107,287,366,102,-9,-73
-34,-34,0,34,-17,-17,112,307,400,117,4,-73
-29,-34,-4,31,-12,-19,122,326,434,136,14,-73
-24,-29,-4,26,-9,-17,136,351,458,151,24,-68
-24,-24,0,24,-12,-12,151,366,483,165,39,-63
-29,-19,9,24,-19,-4,156,380,517,190,43,-63
-29,-14,14,21,-21,0,161,405,566,209,53,-58
-29,-14,14,21,-21,0,175,434,610,234,68,-48
-24,-14,9,19,-17,-2,180,458,644,248,87,-43
-24,4,29,9,-26,17,195,492,692,283,107,-29
-19,14,34,2,-26,24,204,517,727,307,126,-19
0,19,19,-9,-9,19,214,546,775,336,146,-9
9,24,14,-17,-2,19,224,566,819,361,161,-4
4,34,29,-19,-12,31,248,590,854,375,170,0
4,34,29,-19,-12,31,263,610,888,395,175,9
4,24,19,-14,-7,21,268,639,917,414,195,9
9,19,9,-14,0,14,278,658,941,439,214,14
19,29,9,-24,4,19,287,668,966,458,224,24
19,34,14,-26,2,24,292,673,971,468,234,24
0,34,34,-17,-17,34,302,663,971,473,234,29
-19,34,53,-7,-36,43,307,634,951,478,234,34
-14,39,53,-12,-34,46,297,595,917,473,244,39
-14,43,58,-14,-36,51,283,551,863,463,244,48
-9,43,53,-17,-31,48,248,478,795,444,244,58
-4,43,48,-19,-26,46,209,414,722,419,239,68
0,48,48,-24,-24,48,170,341,619,380,239,68
0,48,48,-24,-24,48,131,283,527,351,224,73
-9,24,34,-7,-21,29,107,229,453,302,195,73
-24,-4,19,14,-21,7,78,175,366,253,175,68
-4,4,9,0,-7,7,48,131,287,214,156,68
19,19,0,-19,9,9,29,97,234,180,141,63
29,19,-9,-24,19,4,4,68,180,141,112,48
29,19,-9,-24,19,4,-4,34,136,107,92,39
29,4,-24,-17,26,-9,-14,9,87,87,82,34
19,-4,-24,-7,21,-14,-39,-4,48,63,53,29
19,-4,-24,-7,21,-14,-39,-24,19,39,53,19
14,-14,-29,0,21,-21,-43,-34,-4,14,39,14
14,-24,-39,4,26,-31,-43,-53,-24,0,19,14
14,-34,-48,9,31,-41,-43,-58,-39,-19,9,14
19,-39,-58,9,39,-48,-53,-58,-53,-29,-4,0
24,-43,-68,9,46,-56,-53,-53,-68,-39,-14,-9
24,-43,-68,9,46,-56,-43,-53,-68,-43,-14,-9
24,-43,-68,9,46,-56,-43,-53,-63,-43,-14,-9
24,-43,-68,9,46,-56,-39,-53,-68,-53,-19,-14
19,-43,-63,12,41,-53,-39,-48,-73,-58,-29,-14
19,-43,-63,12,41,-53,-39,-43,-78,-63,-29,-14
14,-53,-68,19,41,-61,-39,-43,-78,-68,-34,-19
14,-53,-68,19,41,-61,-19,-34,-73,-68,-39,-19
14,-53,-68,19,41,-61,0,-29,-73,-73,-39,-24
14,-53,-68,19,41,-61,0,-29,-68,-73,-39,-24
19,-53,-73,17,46,-63,4,-29,-63,-73,-39,-24
24,-48,-73,12,48,-61,4,-24,-58,-63,-39,-24
24,-43,-68,9,46,-56,4,-24,-53,-58,-39,-19
24,-39,-63,7,43,-51,14,-14,-53,-58,-34,-19
24,-39,-63,7,43,-51,14,-4,-53,-58,-34,-19
24,-43,-68,9,46,-56,24,-4,-48,-53,-29,-14
24,-43,-68,9,46,-56,34,4,-39,-48,-24,-9
24,-43,-68,9,46,-56,29,4,-39,-48,-24,-9
14,-43,-58,14,36,-51,34,9,-39,-48,-24,-9
14,-53,-68,19,41,-61,43,19,-34,-48,-29,-19
19,-58,-78,19,48,-68,53,24,-29,-48,-34,-29
4,-73,-78,34,41,-75,73,29,-34,-58,-24,-29
-34,-87,-53,61,9,-70,92,43,-34,-63,-34,-34
-34,-92,-58,63,12,-75,87,48,-29,-58,-39,-39
-39,-92,-53,65,7,-73,97,53,-34,-58,-39,-39
-39,-78,-39,58,0,-58,117,39,-34,-58,-39,-39
-43,-63,-19,53,-12,-41,136,19,-29,-53,-34,-39
-43,-58,-14,51,-14,-36,107,0,-29,-43,-29,-34
-39,-48,-9,43,-14,-29,73,-19,-29,-43,-29,-24
-29,-34,-4,31,-12,-19,29,-24,-19,-39,-24,-19
-19,-19,0,19,-9,-9,-14,-39,-19,-29,-19,-14
-4,-19,-14,12,4,-17,-19,-43,-19,-24,-14,-14
0,-14,-14,7,7,-14,-39,-43,-19,-19,-14,-9
4,-14,-19,4,12,-17,-63,-48,-24,-19,-19,-9
9,-14,-24,2,17,-19,-78,-53,-24,-19,-19,-9
9,-14,-24,2,17,-19,-63,-48,-29,-19,-19,-9
14,-14,-29,0,21,-21,-63,-48,-29,-19,-14,-9
14,-14,-29,0,21,-21,-73,-48,-29,-19,-9,-4
14,-19,-34,2,24,-26,-68,-43,-29,-24,-14,-4
14,-14,-29,0,21,-21,-68,-43,-29,-24,-14,-9
14,-4,-19,-4,17,-12,-68,-43,-29,-24,-14,-9
14,-9,-24,-2,19,-17,-58,-39,-29,-24,-14,-9
14,-9,-24,-2,19,-17,-53,-39,-29,-24,-9,-9
14,-4,-19,-4,17,-12,-63,-39,-29,-19,-4,-4
14,-4,-19,-4,17,-12,-53,-39,-29,-19,-4,-4
9,-14,-24,2,17,-19,-58,-34,-29,-24,-14,-9
9,-14,-24,2,17,-19,-58,-29,-39,-24,-14,-14
19,-14,-34,-2,26,-24,-53,-29,-39,-29,-24,-14
29,-14,-43,-7,36,-29,-48,-24,-39,-39,-29,-9
29,-19,-48,-4,39,-34,-43,-19,-39,-39,-29,-9
14,-29,-43,7,29,-36,-43,-19,-39,-43,-29,-9
14,-29,-43,7,29,-36,-39,-14,-39,-43,-29,-19
14,-34,-48,9,31,-41,-34,-9,-39,-48,-29,-34
19,-29,-48,4,34,-39,-19,-4,-34,-43,-29,-29
29,-29,-58,0,43,-43,-9,0,-29,-39,-29,-29
29,-29,-58,0,43,-43,-9,0,-29,-39,-29,-29
29,-29,-58,0,43,-43,-9,0,-29,-39,-29,-29
14,-39,-53,12,34,-46,-9,0,-34,-43,-29,-29
9,-39,-48,14,29,-43,0,0,-34,-48,-29,-29
4,-43,-48,19,26,-46,4,0,-39,-58,-34,-29
4,-43,-48,19,26,-46,19,-4,-39,-53,-34,-24
-4,-43,-39,24,17,-41,29,-9,-48,-53,-29,-24
-4,-43,-39,24,17,-41,43,-14,-48,-48,-29,-29
-9,-43,-34,26,12,-39,43,-24,-58,-48,-34,-29
-19,-43,-24,31,2,-34,43,-39,-58,-43,-34,-24
-24,-39,-14,31,-4,-26,29,-39,-58,-43,-34,-24
-29,-29,0,29,-14,-14,24,-39,-58,-53,-34,-24
-39,-29,9,34,-24,-9,19,-53,-73,-53,-34,-29
-43,-34,9,39,-26,-12,19,-53,-73,-53,-34,-29
-43,-43,0,43,-21,-21,14,-53,-63,-53,-43,-34
-43,-53,-9,48,-17,-31,4,-53,-73,-58,-43,-39
-34,-43,-9,39,-12,-26,-4,-48,-63,-53,-39,-39
-24,-34,-9,29,-7,-21,-14,-34,-53,-48,-39,-43
-24,-29,-4,26,-9,-17,-19,-29,-53,-48,-39,-39
-24,-24,0,24,-12,-12,-24,-29,-53,-48,-34,-34
-24,-24,0,24,-12,-12,-24,-24,-53,-48,-34,-34
-19,-24,-4,21,-7,-14,-24,-14,-53,-43,-34,-34
-14,-24,-9,19,-2,-17,-14,-14,-48,-43,-34,-34
-9,-19,-9,14,0,-14,-14,-14,-43,-43,-39,-34
-9,-24,-14,17,2,-19,-14,-14,-43,-43,-39,-29
-9,-29,-19,19,4,-24,-14,-14,-48,-43,-39,-29
-19,-29,-9,24,-4,-19,-14,-14,-53,-48,-39,-34
-24,-29,-4,26,-9,-17,-9,-9,-53,-48,-43,-34
-19,-29,-9,24,-4,-19,0,-9,-48,-48,-48,-29
-19,-24,-4,21,-7,-14,0,-9,-48,-53,-48,-29
-19,-24,-4,21,-7,-14,0,-9,-48,-53,-48,-34
-24,-24,0,24,-12,-12,-4,-9,-48,-53,-48,-34
-24,-29,-4,26,-9,-17,9,0,-48,-53,-43,-34
-19,-24,-4,21,-7,-14,19,9,-43,-58,-43,-34
-14,-19,-4,17,-4,-12,24,14,-43,-58,-43,-34
-9,-14,-4,12,-2,-9,29,14,-43,-58,-43,-34
-9,-14,-4,12,-2,-9,24,9,-43,-58,-43,-39
-9,-19,-9,14,0,-14,24,9,-34,-58,-43,-43
-14,-34,-19,24,2,-26,24,29,-19,-58,-43,-43
-19,-39,-19,29,0,-29,24,29,-9,-34,-34,-34
-24,-34,-9,29,-7,-21,53,39,19,24,14,-9
-24,-9,14,17,-19,2,87,58,102,131,87,29
-9,19,29,-4,-19,24,73,34,161,258,219,126
43,92,48,-68,-2,70,9,-82,48,405,405,283
87,151,63,-119,12,107,-97,-273,-165,517,575,434
165,273,107,-219,29,190,-248,-551,-390,673,819,658
317,492,175,-405,70,334,-468,-888,-566,946,1190,1005
414,712,297,-563,58,505,-673,-1244,-814,1137,1473,1283
439,722,283,-580,78,502,-819,-1522,-1317,883,1390,1302
356,463,107,-409,124,285,-863,-1678,-2074,-4,697,902
283,73,-209,-178,246,-68,-810,-1703,-2625,-1132,-253,268
278,-287,-566,4,422,-427,-732,-1595,-2727,-1742,-907,-219
268,-380,-649,56,458,-514,-722,-1449,-2527,-1786,-1049,-351
131,-326,-458,97,295,-392,-683,-1234,-2147,-1542,-946,-326
82,-190,-273,53,178,-231,-692,-1098,-1800,-1317,-810,-263
68,-87,-156,9,112,-122,-668,-990,-1498,-1098,-678,-185
58,-19,-78,-19,68,-48,-610,-897,-1239,-907,-556,-117
43,14,-29,-29,36,-7,-522,-785,-1019,-756,-468,-78
9,53,43,-31,-17,48,-429,-668,-839,-624,-405,-73
-73,39,112,17,-92,75,-331,-527,-673,-517,-351,-82
-107,9,117,48,-112,63,-248,-395,-522,-434,-317,-97
-97,-34,63,65,-80,14,-180,-283,-390,-361,-287,-117
-73,-63,9,68,-41,-26,-122,-161,-239,-273,-248,-136
-53,-82,-29,68,-12,-56,-53,-48,-92,-190,-204,-136
-63,-82,-19,73,-21,-51,4,48,19,-97,-141,-112
-68,-82,-14,75,-26,-48,24,97,87,-39,-97,-97
-34,-68,-34,51,0,-51,39,112,112,-34,-87,-87
-48,-58,-9,53,-19,-34,48,122,117,-19,-82,-82
-48,-58,-9,53,-19,-34,63,131,136,-4,-68,-78
-43,-53,-9,48,-17,-31,78,131,141,4,-58,-78
-39,-48,-9,43,-14,-29,68,136,146,4,-58,-73
-34,-39,-4,36,-14,-21,78,141,156,4,-53,-68
-39,-34,4,36,-21,-14,87,146,161,9,-43,-68
-39,-34,4,36,-21,-14,87,151,165,9,-39,-68
-34,-34,0,34,-17,-17,87,156,170,9,-39,-68
-34,-24,9,29,-21,-7,92,161,175,14,-39,-68
-34,-24,9,29,-21,-7,92,165,185,24,-39,-68
-34,-24,9,29,-21,-7,97,175,185,24,-39,-73
-34,-24,9,29,-21,-7,107,175,200,29,-34,-68
-34,-19,14,26,-24,-2,117,185,204,34,-34,-68
-39,-19,19,29,-29,0,117,190,209,39,-34,-68
-39,-19,19,29,-29,0,122,200,219,48,-34,-68
-39,-19,19,29,-29,0,126,204,224,53,-34,-68
-43,-19,24,31,-34,2,131,200,234,53,-34,-63
-48,-9,39,29,-43,14,131,195,239,58,-24,-63
-53,0,53,26,-53,26,136,185,248,63,-24,-63
-48,-9,39,29,-43,14,117,165,244,68,-24,-63
-48,-19,29,34,-39,4,97,161,253,68,-19,-68
-73,-29,43,51,-58,7,102,175,268,73,-29,-73
-82,-39,43,61,-63,2,97,190,287,78,-29,-78
-78,-43,34,61,-56,-4,92,204,302,92,-24,-82
-78,-48,29,63,-53,-9,97,229,341,97,-9,-82
-82,-48,34,65,-58,-7,97,248,361,107,-9,-82
-82,-53,29,68,-56,-12,102,268,390,117,0,-82
-78,-53,24,65,-51,-14,122,287,414,136,4,-82
-73,-48,24,61,-48,-12,136,317,439,151,14,-78
-73,-34,39,53,-56,2,141,331,473,165,29,-73
-73,-19,53,46,-63,17,146,351,507,185,34,-73
-68,-14,53,41,-61,19,151,385,556,200,43,-68
-68,-14,53,41,-61,19,170,414,595,224,53,-63
-63,-14,48,39,-56,17,185,439,629,248,73,-58
-63,-4,58,34,-61,26,204,473,678,283,87,-48
-68,-4,63,36,-65,29,219,502,707,302,97,-48
-68,-4,63,36,-65,29,229,527,746,326,112,-43
-68,-4,63,36,-65,29,234,536,785,351,122,-43
-73,4,78,34,-75,41,248,556,810,370,131,-43
-78,14,92,31,-85,53,263,580,844,390,141,-34
-82,19,102,31,-92,61,273,600,873,405,156,-29
-78,19,97,29,-87,58,287,614,893,424,165,-24
-68,29,97,19,-82,63,297,624,912,444,175,-14
-68,34,102,17,-85,68,302,629,922,448,185,-24
-68,34,102,17,-85,68,307,629,927,448,190,-19
-68,29,97,19,-82,63,283,605,902,448,195,-4
-58,29,87,14,-73,58,258,575,868,444,204,0
-48,34,82,7,-65,58,253,551,824,439,209,19
-39,34,73,2,-56,53,244,512,775,424,214,39
-19,48,68,-14,-43,58,234,468,702,400,214,48
0,68,68,-34,-34,68,224,409,619,366,219,48
0,73,73,-36,-36,73,200,366,551,341,209,58
4,78,73,-41,-34,75,180,322,492,302,195,68
14,73,58,-43,-21,65,151,273,414,263,185,68
19,68,48,-43,-14,58,117,229,341,229,165,68
4,58,53,-31,-24,56,78,185,283,195,151,63
0,48,48,-24,-24,48,39,146,224,161,126,53
14,63,48,-39,-17,56,19,92,175,126,107,53
29,68,39,-48,-4,53,0,48,122,102,97,53
19,63,43,-41,-12,53,-34,14,68,78,73,48
19,63,43,-41,-12,53,-48,-24,29,58,73,39
4,29,24,-17,-9,26,-53,-34,14,43,58,34
-4,4,9,0,-7,7,-53,-48,0,34,43,34
-14,-4,9,9,-12,2,-58,-53,-24,0,24,24
-19,-19,0,19,-9,-9,-63,-53,-39,-19,0,0
-14,-24,-9,19,-2,-17,-53,-43,-48,-19,-9,-9
-14,-24,-9,19,-2,-17,-43,-43,-58,-24,-14,-9
-14,-24,-9,19,-2,-17,-34,-43,-53,-34,-14,-9
-9,-24,-14,17,2,-19,-19,-43,-53,-48,-14,-14
-9,-29,-19,19,4,-24,-19,-39,-58,-48,-24,-19
-9,-34,-24,21,7,-29,-19,-34,-68,-53,-29,-24
-19,-53,-34,36,7,-43,-19,-34,-68,-63,-34,-29
-24,-63,-39,43,7,-51,-19,-34,-68,-68,-39,-29
-34,-63,-29,48,-2,-46,-19,-39,-73,-73,-43,-34
-48,-63,-14,56,-17,-39,-24,-39,-73,-73,-48,-34
-24,-53,-29,39,2,-41,-9,-29,-68,-73,-48,-34
4,-39,-43,17,24,-41,4,-19,-63,-68,-48,-34
-4,-34,-29,19,12,-31,4,-24,-63,-68,-48,-29
-14,-29,-14,21,0,-21,14,-24,-63,-68,-43,-29
-19,-34,-14,26,-2,-24,14,-24,-63,-68,-43,-29
-19,-43,-24,31,2,-34,14,-34,-68,-68,-43,-29
-14,-43,-29,29,7,-36,14,-24,-63,-63,-39,-29
-14,-43,-29,29,7,-36,4,-19,-58,-58,-34,-29
-24,-39,-14,31,-4,-26,4,-14,-58,-58,-34,-29
-24,-34,-9,29,-7,-21,4,-9,-53,-58,-34,-29
-4,-24,-19,14,7,-21,9,-14,-48,-48,-34,-29
19,-19,-39,0,29,-29,14,-14,-48,-43,-24,-24
9,-9,-19,0,14,-14,14,-4,-43,-43,-19,-14
14,-4,-19,-4,17,-12,0,0,-34,-39,-9,-4
14,0,-14,-7,14,-7,-9,4,-19,-29,-4,4
19,4,-14,-12,17,-4,-9,4,-4,-24,0,9
24,14,-9,-19,17,2,-4,0,0,-19,9,19
34,29,-4,-31,19,12,-9,0,0,-4,19,24
48,48,0,-48,24,24,-48,-9,-4,-4,19,24
58,58,0,-58,29,29,-82,-19,0,-4,19,24
39,48,9,-43,14,29,-92,-58,-9,-4,19,24
29,39,9,-34,9,24,-107,-87,-19,-4,24,24
29,43,14,-36,7,29,-126,-92,-24,-4,19,24
29,43,14,-36,7,29,-126,-97,-34,-9,9,19
19,43,24,-31,-2,34,-102,-92,-34,-9,9,19
9,43,34,-26,-12,39,-73,-87,-34,-9,9,19
4,43,39,-24,-17,41,-73,-87,-34,-9,9,14
-4,43,48,-19,-26,46,-68,-82,-39,-9,4,9
-14,34,48,-9,-31,41,-48,-68,-39,-14,-4,4
-24,24,48,0,-36,36,-48,-63,-39,-14,-4,0
-24,24,48,0,-36,36,-34,-58,-34,-14,-9,0
-19,19,39,0,-29,29,-19,-48,-29,-14,-14,0
-14,14,29,0,-21,21,-9,-39,-24,-19,-9,-4
-14,14,29,0,-21,21,-14,-29,-19,-19,-4,-4
-14,14,29,0,-21,21,-4,-19,-19,-19,-4,-4
-19,4,24,7,-21,14,0,-14,-19,-24,-14,-9
-4,14,19,-4,-12,17,4,-14,-29,-24,-14,-14
19,24,4,-21,7,14,14,-9,-29,-29,-19,-14
19,9,-9,-14,14,0,19,0,-29,-39,-24,-19
9,-4,-14,-2,12,-9,24,4,-34,-39,-29,-29
-19,-29,-9,24,-4,-19,24,0,-39,-39,-34,-29
-34,-53,-19,43,-7,-36,24,-4,-43,-43,-39,-34
-34,-48,-14,41,-9,-31,34,0,-43,-43,-39,-34
-34,-43,-9,39,-12,-26,34,0,-48,-53,-39,-43
-29,-43,-14,36,-7,-29,34,0,-53,-58,-43,-43
-24,-43,-19,34,-2,-31,34,0,-58,-63,-48,-39
-39,-63,-24,51,-7,-43,29,0,-58,-63,-53,-43
-53,-82,-29,68,-12,-56,19,-4,-63,-63,-53,-48
-39,-63,-24,51,-7,-43,24,-4,-63,-63,-53,-48
-19,-39,-19,29,0,-29,39,-4,-63,-63,-48,-43
-14,-39,-24,26,4,-31,58,-9,-58,-63,-48,-43
-19,-43,-24,31,2,-34,73,-4,-58,-68,-58,-48
-14,-39,-24,26,4,-31,58,-9,-63,-68,-53,-43
-14,-39,-24,26,4,-31,48,-19,-73,-68,-53,-39
-4,-34,-29,19,12,-31,4,-39,-73,-68,-48,-39
0,-29,-29,14,14,-29,-39,-58,-78,-68,-48,-39
0,-29,-29,14,14,-29,-58,-63,-78,-68,-48,-39
0,-29,-29,14,14,-29,-78,-68,-78,-68,-48,-39
4,-19,-24,7,14,-21,-87,-73,-82,-68,-48,-39
9,-9,-19,0,14,-14,-87,-73,-82,-68,-48,-39
14,-4,-19,-4,17,-12,-87,-73,-82,-73,-48,-39
14,-4,-19,-4,17,-12,-78,-73,-78,-63,-43,-34
14,9,-4,-12,9,2,-82,-68,-82,-58,-34,-29
24,24,0,-24,12,12,-82,-63,-78,-48,-29,-29
14,14,0,-14,7,7,-63,-53,-73,-48,-29,-29
0,4,4,-2,-2,4,-43,-48,-58,-43,-24,-24
-9,-9,0,9,-4,-4,-53,-43,-58,-43,-29,-29
-19,-19,0,19,-9,-9,-53,-39,-58,-53,-34,-34
-24,-4,19,14,-21,7,-53,-43,-68,-53,-34,-39
-24,4,29,9,-26,17,-48,-34,-63,-53,-34,-39
-24,4,29,9,-26,17,-24,-19,-48,-48,-39,-34
-24,4,29,9,-26,17,-4,-4,-53,-48,-34,-29
-24,4,29,9,-26,17,0,-9,-53,-48,-34,-29
-24,4,29,9,-26,17,4,-4,-53,-48,-39,-34
-24,-4,19,14,-21,7,4,4,-43,-48,-39,-34
-24,-14,9,19,-17,-2,4,9,-34,-48,-34,-34
-24,-14,9,19,-17,-2,4,4,-34,-48,-34,-34
-19,-14,4,17,-12,-4,4,4,-34,-43,-34,-34
-19,-14,4,17,-12,-4,14,9,-34,-43,-34,-34
-19,-9,9,14,-14,0,14,14,-34,-43,-39,-34
-19,-14,4,17,-12,-4,14,14,-34,-48,-43,-39
-19,-19,0,19,-9,-9,14,14,-39,-53,-48,-48
-14,-19,-4,17,-4,-12,24,19,-43,-58,-48,-53
-4,-19,-14,12,4,-17,39,29,-43,-58,-53,-53
-9,-29,-19,19,4,-24,48,29,-39,-58,-58,-48
-19,-34,-14,26,-2,-24,48,29,-39,-63,-58,-48
-19,-39,-19,29,0,-29,48,24,-43,-68,-63,-58
-24,-43,-19,34,-2,-31,43,19,-48,-73,-68,-63
-29,-53,-24,41,-2,-39,43,4,-63,-73,-68,-63
-29,-53,-24,41,-2,-39,39,-9,-73,-78,-73,-63
-24,-48,-24,36,0,-36,29,-24,-82,-78,-73,-68
-19,-43,-24,31,2,-34,19,-43,-92,-78,-73,-73
-19,-39,-19,29,0,-29,-4,-63,-97,-78,-73,-73
-19,-39,-19,29,0,-29,-24,-78,-92,-78,-73,-73
-19,-48,-29,34,4,-39,-24,-68,-78,-73,-68,-73
-19,-48,-29,34,4,-39,-24,-78,-68,-43,-53,-63
-19,-34,-14,26,-2,-24,-19,-68,-24,0,-19,-43
-14,0,14,7,-14,7,-9,-48,73,92,39,-9
-4,34,39,-14,-21,36,-29,-34,190,229,161,78
43,112,68,-78,-12,90,-97,-112,136,385,336,224
102,175,73,-139,14,124,-165,-263,-58,488,488,351
195,302,107,-248,43,204,-278,-502,-263,634,712,551
356,531,175,-444,90,353,-488,-844,-390,990,1146,936
463,761,297,-612,82,529,-683,-1205,-590,1263,1493,1254
492,897,405,-695,43,651,-849,-1561,-1063,1259,1649,1454
414,766,351,-590,31,558,-912,-1795,-1790,619,1195,1234
302,322,19,-312,141,170,-854,-1869,-2532,-697,122,531
258,-92,-351,-82,305,-222,-771,-1810,-2825,-1498,-653,-24
283,-253,-536,-14,409,-395,-746,-1659,-2679,-1673,-917,-234
180,-268,-448,43,314,-358,-692,-1439,-2352,-1561,-936,-287
102,-141,-244,19,173,-192,-692,-1254,-1976,-1337,-805,-239
58,-48,-107,-4,82,-78,-658,-1098,-1644,-1117,-678,-175
63,19,-43,-41,53,-12,-610,-985,-1356,-927,-561,-107
63,53,-9,-58,36,21,-531,-854,-1107,-775,-478,-68
19,87,68,-53,-24,78,-429,-732,-927,-644,-414,-63
-73,68,141,2,-107,104,-322,-585,-761,-536,-361,-73
-126,34,161,46,-143,97,-229,-439,-595,-453,-331,-92
-136,-14,122,75,-129,53,-151,-312,-448,-380,-307,-117
-107,-34,73,70,-90,19,-92,-180,-292,-287,-263,-136
-82,-43,39,63,-61,-2,-24,-58,-141,-200,-214,-136
-78,-43,34,61,-56,-4,48,53,-14,-107,-156,-117
-68,-43,24,56,-46,-9,82,117,68,-48,-117,-107
-34,-39,-4,36,-14,-21,92,136,97,-34,-97,-102
-48,-39,9,43,-29,-14,97,151,107,-9,-82,-102
-48,-39,9,43,-29,-14,82,146,126,-9,-82,-97
-43,-34,9,39,-26,-12,68,131,131,-14,-87,-97
-39,-34,4,36,-21,-14,39,117,122,-14,-87,-97
-34,-29,4,31,-19,-12,29,102,117,-14,-82,-97
-39,-34,4,36,-21,-14,24,92,122,-14,-78,-102
-39,-43,-4,41,-17,-24,9,82,126,-19,-78,-107
-43,-63,-19,53,-12,-41,0,87,122,-24,-82,-112
-53,-73,-19,63,-17,-46,-4,92,117,-24,-87,-117
-53,-78,-24,65,-14,-51,-4,97,126,-19,-92,-117
-53,-82,-29,68,-12,-56,0,107,126,-24,-97,-122
-53,-97,-43,75,-4,-70,14,112,141,-19,-92,-117
-53,-107,-53,80,0,-80,29,126,146,-14,-92,-117
-53,-87,-34,70,-9,-61,53,141,151,-9,-87,-112
-48,-68,-19,58,-14,-43,82,161,161,0,-82,-107
-48,-68,-19,58,-14,-43,87,175,170,4,-82,-112
-53,-68,-14,61,-19,-41,92,180,185,4,-82,-112
-63,-68,-4,65,-29,-36,97,200,200,14,-73,-112
-73,-68,4,70,-39,-31,107,214,219,24,-73,-112
-68,-63,4,65,-36,-29,112,219,224,29,-73,-107
-68,-58,9,63,-39,-24,117,239,244,29,-68,-107
-82,-53,29,68,-56,-12,146,263,268,39,-68,-107
-82,-48,34,65,-58,-7,165,287,297,48,-58,-107
-78,-39,39,58,-58,0,180,302,312,73,-43,-102
-78,-29,48,53,-63,9,204,326,351,87,-19,-92
-92,-34,58,63,-75,12,204,346,366,92,-29,-97
-102,-43,58,73,-80,7,209,366,390,97,-29,-102
-97,-43,53,70,-75,4,224,385,424,117,-24,-102
-92,-39,53,65,-73,7,234,414,458,131,-14,-97
-92,-34,58,63,-75,12,244,434,492,146,0,-92
-92,-29,63,61,-78,17,253,458,527,165,4,-92
-82,-24,58,53,-70,17,258,497,585,180,14,-87
-78,-24,53,51,-65,14,278,531,634,204,24,-82
-73,-24,48,48,-61,12,283,556,663,219,39,-82
-73,-14,58,43,-65,21,292,590,707,244,48,-78
-78,-9,68,43,-73,29,278,614,746,263,63,-73
-78,-4,73,41,-75,34,258,634,795,287,82,-63
-58,0,58,29,-58,29,248,624,829,317,92,-58
-43,14,58,14,-51,36,248,624,849,341,102,-53
-39,29,68,4,-53,48,253,649,888,356,112,-48
-34,39,73,-2,-53,56,253,668,922,366,126,-48
-24,39,63,-7,-43,51,239,673,946,385,136,-43
-9,48,58,-19,-34,53,219,673,971,405,146,-34
-9,48,58,-19,-34,53,214,683,985,414,156,-34
-9,43,53,-17,-31,48,209,688,995,419,161,-19
-19,39,58,-9,-39,48,209,673,985,424,165,-9
-19,39,58,-9,-39,48,209,653,966,424,175,-9
-4,43,48,-19,-26,46,204,624,927,419,180,0
9,43,34,-26,-12,39,195,580,883,405,185,9
14,43,29,-29,-7,36,175,541,819,395,190,24
19,48,29,-34,-4,39,156,488,746,375,200,29
19,53,34,-36,-7,43,131,429,658,356,195,39
24,58,34,-41,-4,46,112,370,580,322,185,48
34,63,29,-48,2,46,107,317,492,283,175,48
39,68,29,-53,4,48,97,268,409,248,156,48
29,58,29,-43,0,43,78,214,336,204,141,43
29,48,19,-39,4,34,58,165,263,161,117,34
24,48,24,-36,0,36,53,126,214,131,92,29
19,39,19,-29,0,29,48,97,161,112,78,24
9,34,24,-21,-7,29,29,82,112,78,53,19
9,34,24,-21,-7,29,29,63,78,48,53,9
4,24,19,-14,-7,21,29,48,48,34,39,4
4,24,19,-14,-7,21,34,29,19,24,24,4
0,24,24,-12,-12,24,34,19,0,0,14,4
0,19,19,-9,-9,19,34,14,-9,-9,0,-9
-4,4,9,0,-7,7,34,19,-24,-24,-14,-24
-14,-4,9,9,-12,2,34,14,-39,-43,-24,-29
-19,-14,4,17,-12,-4,34,14,-39,-43,-29,-29
-19,-24,-4,21,-7,-14,39,14,-43,-48,-34,-34
-19,-24,-4,21,-7,-14,34,-9,-58,-48,-43,-34
-19,-24,-4,21,-7,-14,29,-34,-78,-53,-48,-34
-24,-39,-14,31,-4,-26,9,-43,-78,-63,-58,-43
-24,-43,-19,34,-2,-31,-9,-53,-78,-68,-68,-48
-34,-48,-14,41,-9,-31,-19,-63,-82,-73,-68,-53
-48,-53,-4,51,-21,-29,-34,-68,-82,-73,-68,-53
-24,-53,-29,39,2,-41,-48,-68,-82,-73,-63,-53
4,-48,-53,21,29,-51,-63,-68,-82,-68,-58,-53
14,-34,-48,9,31,-41,-63,-73,-82,-68,-58,-48
24,-19,-43,-2,34,-31,-53,-73,-82,-68,-53,-48
9,-29,-39,9,24,-34,-53,-63,-78,-68,-58,-48
0,-43,-43,21,21,-43,-53,-63,-78,-68,-63,-48
4,-43,-48,19,26,-46,-53,-58,-78,-68,-63,-48
4,-43,-48,19,26,-46,-63,-58,-78,-68,-63,-48
-4,-43,-39,24,17,-41,-48,-48,-78,-63,-58,-48
-4,-43,-39,24,17,-41,-34,-39,-73,-58,-53,-48
-14,-29,-14,21,0,-21,-24,-43,-68,-53,-53,-48
-19,-19,0,19,-9,-9,-14,-43,-68,-53,-43,-43
-19,-14,4,17,-12,-4,-4,-34,-63,-53,-43,-43
-4,-14,-9,9,2,-12,-9,-29,-53,-48,-39,-43
-9,-14,-4,12,-2,-9,-9,-9,-43,-43,-39,-34
-9,-14,-4,12,-2,-9,0,4,-34,-43,-39,-29
-14,-19,-4,17,-4,-12,14,0,-29,-43,-34,-29
-14,-19,-4,17,-4,-12,19,0,-29,-34,-29,-34
-19,-9,9,14,-14,0,19,9,-29,-39,-29,-34
-29,-9,19,19,-24,4,24,19,-19,-43,-29,-34
-39,-9,29,24,-34,9,39,9,-19,-39,-29,-34
-39,-9,29,24,-34,9,48,9,-19,-34,-24,-34
-39,0,39,19,-39,19,43,14,-14,-19,-14,-24
-39,4,43,17,-41,24,58,19,-14,-9,-9,-19
-24,9,34,7,-29,21,53,19,-14,-9,-9,-19
-9,14,24,-2,-17,19,53,19,-14,-9,-9,-19
-14,14,29,0,-21,21,48,19,-9,-9,-14,-19
-24,14,39,4,-31,26,48,24,-9,-9,-24,-19
-24,9,34,7,-29,21,68,34,-4,-14,-34,-24
-24,4,29,9,-26,17,68,34,0,-14,-34,-29
-29,4,34,12,-31,19,68,29,0,-14,-34,-29
-29,0,29,14,-29,14,68,29,0,-14,-34,-29
-24,-4,19,14,-21,7,43,9,-9,-19,-29,-29
-24,-4,19,14,-21,7,4,-9,-19,-19,-24,-24
-24,-4,19,14,-21,7,-29,-29,-29,-19,-24,-24
-29,-14,14,21,-21,0,-68,-53,-39,-24,-34,-29
-19,-19,0,19,-9,-9,-73,-58,-48,-24,-34,-39
0,-24,-24,12,12,-24,-73,-58,-48,-29,-39,-43
-4,-24,-19,14,7,-21,-68,-53,-43,-39,-39,-39
-19,-24,-4,21,-7,-14,-63,-53,-43,-39,-39,-39
-9,-29,-19,19,4,-24,-63,-48,-48,-39,-39,-39
14,-34,-48,9,31,-41,-63,-43,-53,-43,-39,-43
4,-34,-39,14,21,-36,-53,-29,-48,-43,-39,-39
0,-39,-39,19,19,-39,-48,-19,-48,-48,-39,-39
4,-39,-43,17,24,-41,-39,-19,-43,-48,-39,-39
9,-39,-48,14,29,-43,-29,-19,-39,-48,-39,-39
9,-43,-53,17,31,-48,-29,-14,-39,-48,-43,-43
9,-43,-53,17,31,-48,-24,-14,-39,-43,-43,-43
14,-43,-58,14,36,-51,-24,-19,-43,-43,-48,-48
14,-43,-58,14,36,-51,-19,-19,-39,-34,-48,-48
19,-43,-63,12,41,-53,-9,-19,-39,-39,-48,-43
14,-43,-58,14,36,-51,-9,-14,-48,-48,-48,-43
14,-43,-58,14,36,-51,4,-9,-48,-43,-48,-48
14,-43,-58,14,36,-51,24,4,-43,-48,-48,-48
0,-48,-48,24,24,-48,29,14,-29,-43,-48,-48
-9,-53,-43,31,17,-48,24,19,-29,-43,-53,-53
-9,-48,-39,29,14,-43,34,29,-29,-53,-53,-53
-14,-48,-34,31,9,-41,39,24,-43,-53,-53,-58
-19,-53,-34,36,7,-43,43,24,-43,-43,-43,-53
-24,-53,-29,39,2,-41,48,19,-34,-34,-43,-48
-24,-39,-14,31,-4,-26,43,14,-43,-39,-43,-43
-24,-24,0,24,-12,-12,43,4,-43,-39,-43,-39
-34,-24,9,29,-21,-7,48,4,-43,-39,-48,-43
-43,-24,19,34,-31,-2,48,9,-43,-39,-48,-43
-53,-24,29,39,-41,2,43,9,-43,-39,-43,-43
-63,-24,39,43,-51,7,43,4,-43,-43,-43,-43
-43,-19,24,31,-34,2,43,4,-39,-34,-43,-43
-29,-14,14,21,-21,0,53,4,-34,-24,-43,-43
-29,-9,19,19,-24,4,48,4,-34,-34,-48,-48
-29,-9,19,19,-24,4,43,4,-34,-43,-48,-48
-29,-19,9,24,-19,-4,39,0,-39,-43,-48,-48
-34,-29,4,31,-19,-12,34,-4,-43,-48,-48,-53
-34,-19,14,26,-24,-2,19,-9,-48,-48,-53,-53
-29,-9,19,19,-24,4,9,-19,-48,-43,-53,-48
-19,-4,14,12,-17,4,-19,-39,-48,-43,-48,-48
-9,-4,4,7,-7,0,-48,-58,-48,-43,-48,-53
-14,-4,9,9,-12,2,-68,-68,-53,-43,-48,-48
-19,-14,4,17,-12,-4,-82,-78,-63,-43,-48,-43
-19,-14,4,17,-12,-4,-78,-78,-63,-48,-53,-43
-14,-9,4,12,-9,-2,-68,-78,-63,-48,-53,-43
-9,-4,4,7,-7,0,-68,-82,-68,-48,-53,-43
-9,-4,4,7,-7,0,-73,-87,-73,-48,-53,-43
-9,-14,-4,12,-2,-9,-68,-87,-63,-58,-58,-43
-9,-29,-19,19,4,-24,-63,-68,-43,-63,-58,-43
-4,-29,-24,17,9,-26,-43,-58,-29,-34,-43,-29
0,-19,-19,9,9,-19,-19,-48,14,24,4,0
4,14,9,-9,-2,12,-4,-14,165,156,97,39
24,53,29,-39,-2,41,-24,-24,268,317,248,136
87,131,43,-109,21,87,-92,-117,175,458,419,287
151,214,63,-183,43,139,-170,-273,-9,556,575,434
258,346,87,-302,85,217,-273,-527,-253,712,819,658
395,522,126,-458,134,324,-448,-844,-473,956,1161,980
429,741,312,-585,58,527,-605,-1205,-732,1171,1439,1244
395,819,424,-607,-14,622,-702,-1507,-1244,985,1405,1298
253,610,356,-431,-51,483,-717,-1703,-2034,165,761,922
146,244,97,-195,24,170,-663,-1732,-2562,-839,-107,331
117,-151,-268,17,192,-209,-575,-1659,-2718,-1488,-775,-156
92,-302,-395,104,244,-348,-546,-1551,-2605,-1668,-1010,-346
-14,-258,-244,136,114,-251,-507,-1312,-2235,-1478,-941,-336
-43,-151,-107,97,31,-129,-507,-1127,-1898,-1302,-839,-287
-29,-78,-48,53,9,-63,-517,-990,-1576,-1093,-707,-219
-14,-9,4,12,-9,-2,-502,-878,-1293,-893,-575,-156
-34,24,58,4,-46,41,-414,-746,-1039,-736,-483,-112
-68,48,117,9,-92,82,-322,-624,-829,-600,-409,-97
-146,19,165,63,-156,92,-224,-463,-653,-488,-356,-102
-165,-14,151,90,-158,68,-136,-302,-478,-395,-322,-112
-136,-58,78,97,-107,9,-78,-185,-331,-322,-287,-126
-97,-82,14,90,-56,-34,-34,-73,-190,-239,-239,-136
-73,-82,-9,78,-31,-46,34,34,-58,-161,-195,-136
-73,-63,9,68,-41,-26,87,112,43,-78,-136,-117
-68,-63,4,65,-36,-29,73,107,92,-29,-92,-102
-43,-58,-14,51,-14,-36,53,78,97,-29,-82,-92
-68,-48,19,58,-43,-14,48,73,87,-19,-82,-92
-68,-39,29,53,-48,-4,39,73,97,-9,-73,-87
-63,-53,9,58,-36,-21,39,73,102,-9,-73,-87
-63,-73,-9,68,-26,-41,29,73,102,-14,-78,-87
-63,-68,-4,65,-29,-36,39,73,107,-14,-73,-87
-68,-68,0,68,-34,-34,48,78,112,-9,-68,-87
-58,-63,-4,61,-26,-34,53,82,117,-9,-78,-87
-43,-53,-9,48,-17,-31,53,87,122,-9,-87,-87
-43,-43,0,43,-21,-21,63,92,126,0,-68,-87
-43,-43,0,43,-21,-21,73,92,136,14,-43,-82
-43,-43,0,43,-21,-21,68,97,136,14,-48,-82
-43,-43,0,43,-21,-21,58,97,151,19,-53,-78
-39,-39,0,39,-19,-19,58,107,161,19,-53,-78
-39,-39,0,39,-19,-19,58,112,170,19,-53,-78
-39,-39,0,39,-19,-19,63,122,180,29,-48,-73
-39,-39,0,39,-19,-19,68,131,190,34,-43,-73
-43,-39,4,41,-24,-17,73,136,200,34,-43,-73
-43,-39,4,41,-24,-17,82,151,209,43,-34,-73
-48,-39,9,43,-29,-14,102,165,229,53,-34,-73
-48,-39,9,43,-29,-14,112,180,234,58,-34,-73
-48,-39,9,43,-29,-14,126,200,248,68,-29,-78
-63,-39,24,51,-43,-7,146,219,268,87,-29,-78
-73,-48,24,61,-48,-12,146,244,297,82,-24,-82
-78,-58,19,68,-48,-19,146,263,312,82,-24,-82
-63,-58,4,61,-34,-26,156,292,351,87,-9,-73
-48,-53,-4,51,-21,-29,156,317,375,102,-9,-73
-39,-53,-14,46,-12,-34,146,336,409,117,0,-73
-29,-53,-24,41,-2,-39,141,356,444,136,4,-73
-24,-58,-34,41,4,-46,136,380,468,136,9,-73
-24,-63,-39,43,7,-51,131,395,492,136,19,-73
-24,-58,-34,41,4,-46,136,414,527,156,24,-73
-19,-53,-34,36,7,-43,141,444,575,170,34,-68
-14,-43,-29,29,7,-36,161,473,614,195,48,-58
-4,-34,-29,19,12,-31,170,497,644,209,68,-53
-4,-43,-39,24,17,-41,180,517,688,234,78,-48
0,-63,-63,31,31,-63,185,527,717,248,87,-48
9,-48,-58,19,34,-53,190,546,761,278,107,-39
9,-34,-43,12,26,-39,195,556,800,302,122,-34
4,-24,-29,9,17,-26,219,580,829,317,131,-29
4,-24,-29,9,17,-26,234,600,858,336,136,-19
4,-24,-29,9,17,-26,234,619,893,351,151,-19
9,-19,-29,4,19,-24,239,629,922,370,165,-14
29,0,-29,-14,29,-14,253,639,946,390,180,-4
39,14,-24,-26,31,-4,263,644,951,400,195,-4
39,14,-24,-26,31,-4,258,649,961,409,200,9
39,14,-24,-26,31,-4,248,634,951,419,204,24
39,19,-19,-29,29,0,248,614,927,414,214,29
39,24,-14,-31,26,4,234,561,849,395,214,43
39,19,-19,-29,29,0,229,517,780,375,209,48
39,19,-19,-29,29,0,229,473,717,361,209,58
39,24,-14,-31,26,4,214,424,634,331,200,58
39,29,-9,-34,24,9,204,380,556,302,195,58
29,14,-14,-21,21,0,175,322,473,263,175,58
19,0,-19,-9,19,-9,146,263,390,224,156,58
19,0,-19,-9,19,-9,122,219,322,190,141,53
19,0,-19,-9,19,-9,107,180,258,151,122,48
24,4,-19,-14,21,-7,92,141,200,117,102,43
24,4,-19,-14,21,-7,87,102,146,92,82,43
14,-4,-19,-4,17,-12,78,92,112,63,68,39
14,-14,-29,0,21,-21,73,82,87,39,48,29
14,-19,-34,2,24,-26,73,73,63,29,34,24
9,-24,-34,7,21,-29,73,58,48,24,24,24
9,-24,-34,7,21,-29,53,53,34,14,14,19
9,-19,-29,4,19,-24,43,48,19,-4,4,14
-4,-29,-24,17,9,-26,39,34,0,-9,0,4
-14,-43,-29,29,7,-36,39,34,-4,-14,-4,0
-14,-53,-39,34,12,-46,29,34,-4,-29,-24,-4
-14,-63,-48,39,17,-56,14,34,-24,-48,-34,-9
-14,-63,-48,39,17,-56,-9,24,-34,-48,-34,-9
-14,-63,-48,39,17,-56,-34,24,-43,-48,-39,-14
-14,-63,-48,39,17,-56,-39,14,-48,-48,-39,-14
-14,-63,-48,39,17,-56,-43,0,-53,-48,-34,-14
-4,-58,-53,31,24,-56,-43,-4,-53,-53,-34,-14
9,-53,-63,21,36,-58,-43,-4,-53,-53,-34,-14
9,-48,-58,19,34,-53,-48,-19,-53,-53,-34,-14
9,-39,-48,14,29,-43,-63,-34,-53,-53,-39,-14
-4,-39,-34,21,14,-36,-63,-48,-58,-43,-34,-4
-19,-39,-19,29,0,-29,-63,-63,-68,-34,-29,0
-24,-34,-9,29,-7,-21,-48,-73,-73,-39,-29,-4
-24,-29,-4,26,-9,-17,-29,-78,-73,-39,-34,-4
-24,-29,-4,26,-9,-17,-14,-78,-58,-34,-34,0
-29,-24,4,26,-17,-9,-9,-78,-48,-34,-29,0
-29,-24,4,26,-17,-9,-4,-73,-48,-34,-29,-4
-34,-24,9,29,-21,-7,-4,-68,-48,-34,-29,-4
-39,-34,4,36,-21,-14,4,-63,-48,-29,-24,0
-39,-34,4,36,-21,-14,9,-58,-43,-29,-24,4
-34,-29,4,31,-19,-12,19,-48,-39,-29,-24,4
-29,-24,4,26,-17,-9,29,-43,-34,-29,-24,4
-29,-9,19,19,-24,4,24,-43,-29,-19,-19,9
-29,0,29,14,-29,14,24,-39,-14,-9,-14,14
-9,-9,0,9,-4,-4,24,-19,14,0,-4,19
9,-9,-19,0,14,-14,24,-19,39,34,14,34
9,-9,-19,0,14,-14,29,-19,82,92,63,58
14,9,-4,-12,9,2,39,-9,180,200,136,97
29,39,9,-34,9,24,4,-78,92,283,248,180
82,112,29,-97,26,70,-78,-239,-165,385,414,322
107,195,87,-151,9,141,-151,-444,-497,444,546,448
165,341,175,-253,-4,258,-268,-736,-839,546,751,649
239,502,263,-370,-12,383,-429,-1112,-1220,629,961,897
258,663,405,-461,-73,534,-575,-1507,-1673,629,1083,1078
224,683,458,-453,-117,570,-692,-1761,-2142,331,971,1102
82,434,351,-258,-134,392,-707,-1893,-2864,-600,248,707
112,219,107,-165,2,163,-746,-1834,-3025,-1327,-375,302
209,34,-175,-122,192,-70,-761,-1644,-2737,-1537,-702,43
229,-14,-244,-107,236,-129,-761,-1537,-2464,-1532,-805,-53
122,82,-39,-102,80,21,-732,-1361,-2010,-1239,-663,4
53,122,68,-87,-7,95,-697,-1185,-1693,-1078,-585,9
19,126,107,-73,-43,117,-629,-1039,-1420,-922,-512,29
-19,151,170,-65,-95,161,-561,-897,-1166,-766,-434,39
-63,141,204,-39,-134,173,-463,-736,-951,-649,-390,19
-82,136,219,-26,-151,178,-370,-610,-771,-527,-341,4
-151,78,229,36,-190,153,-273,-458,-605,-429,-302,-24
-156,34,190,61,-173,112,-204,-312,-429,-356,-283,-53
-117,-24,92,70,-104,34,-151,-185,-273,-292,-268,-87
-87,-58,29,73,-58,-14,-97,-78,-146,-209,-229,-107
-63,-82,-19,73,-21,-51,-34,19,-24,-131,-185,-107
-63,-87,-24,75,-19,-56,0,92,63,-58,-131,-87
-58,-92,-34,75,-12,-63,-4,117,107,-19,-97,-78
-34,-87,-53,61,9,-70,14,112,126,-19,-92,-73
-58,-87,-29,73,-14,-58,29,102,126,-9,-92,-73
-53,-82,-29,68,-12,-56,34,122,146,-4,-82,-68
-43,-73,-29,58,-7,-51,39,131,151,-4,-78,-68
-43,-73,-29,58,-7,-51,43,131,156,-4,-78,-68
-43,-68,-24,56,-9,-46,68,131,165,-4,-73,-68
-53,-73,-19,63,-17,-46,82,136,170,0,-73,-73
-58,-82,-24,70,-17,-53,87,141,175,0,-78,-78
-53,-87,-34,70,-9,-61,87,151,180,-4,-78,-82
-53,-82,-29,68,-12,-56,92,161,185,-4,-78,-87
-53,-82,-29,68,-12,-56,112,165,195,0,-78,-82
-53,-82,-29,68,-12,-56,136,175,195,-4,-78,-82
-58,-87,-29,73,-14,-58,136,180,214,0,-73,-82
-63,-87,-24,75,-19,-56,136,195,224,4,-73,-87
-68,-87,-19,78,-24,-53,146,204,229,4,-78,-87
-68,-87,-19,78,-24,-53,161,219,239,9,-82,-87
-68,-87,-19,78,-24,-53,165,239,248,14,-82,-92
-73,-87,-14,80,-29,-51,170,248,263,14,-82,-92
-78,-92,-14,85,-31,-53,180,263,283,24,-73,-92
-82,-97,-14,90,-34,-56,195,273,307,34,-73,-92
-78,-97,-19,87,-29,-58,200,278,312,39,-78,-92
-78,-97,-19,87,-29,-58,204,297,331,39,-78,-97
-92,-97,-4,95,-43,-51,219,326,356,43,-78,-97
-92,-97,-4,95,-43,-51,224,356,385,48,-68,-97
-78,-87,-9,82,-34,-48,229,370,400,63,-63,-102
-68,-78,-9,73,-29,-43,244,395,439,68,-48,-102
-78,-73,4,75,-41,-34,244,419,468,82,-48,-102
-82,-73,9,78,-46,-31,248,444,507,97,-39,-102
-87,-73,14,80,-51,-29,258,468,546,117,-34,-102
-92,-68,24,80,-58,-21,263,502,585,131,-24,-97
-82,-63,19,73,-51,-21,268,531,629,146,-4,-92
-73,-58,14,65,-43,-21,273,566,673,165,4,-92
-53,-48,4,51,-29,-21,248,600,722,180,14,-87
-34,-43,-9,39,-12,-26,244,639,775,209,29,-82
-29,-43,-14,36,-7,-29,239,653,795,219,24,-87
-29,-43,-14,36,-7,-29,234,668,819,234,24,-92
-39,-48,-9,43,-14,-29,244,663,834,248,29,-92
-48,-58,-9,53,-19,-34,253,663,849,263,39,-97
-63,-58,4,61,-34,-26,253,653,858,273,43,-97
-78,-58,19,68,-48,-19,253,644,868,283,48,-97
-78,-58,19,68,-48,-19,268,639,873,287,58,-97
-73,-53,19,63,-46,-17,273,634,873,287,63,-97
-73,-53,19,63,-46,-17,283,634,878,287,73,-97
-73,-53,19,63,-46,-17,283,629,878,297,82,-92
-73,-58,14,65,-43,-21,273,605,834,292,87,-73
-63,-63,0,63,-31,-31,268,580,800,292,87,-58
-48,-63,-14,56,-17,-39,258,531,741,278,92,-53
-39,-63,-24,51,-7,-43,248,478,692,268,102,-43
-24,-53,-29,39,2,-41,219,429,619,258,107,-24
-9,-39,-29,24,9,-34,200,380,546,239,112,-4
-4,-39,-34,21,14,-36,175,317,458,214,112,0
4,-43,-48,19,26,-46,156,268,385,190,112,9
4,-43,-48,19,26,-46,141,219,317,156,87,9
4,-43,-48,19,26,-46,122,170,229,117,73,9
4,-43,-48,19,26,-46,107,131,180,97,68,9
4,-43,-48,19,26,-46,92,102,131,78,58,4
4,-43,-48,19,26,-46,78,82,92,58,43,4
4,-43,-48,19,26,-46,63,58,53,39,34,4
0,-48,-48,24,24,-48,58,43,34,19,24,4
0,-53,-53,26,26,-53,53,34,14,4,14,4
0,-53,-53,26,26,-53,53,24,0,-4,9,4
0,-48,-48,24,24,-48,43,14,-14,-14,0,4
4,-43,-48,19,26,-46,43,14,-14,-14,0,9
9,-39,-48,14,29,-43,43,14,-19,-14,0,9
4,-39,-43,17,24,-41,29,14,-24,-19,-4,0
4,-39,-43,17,24,-41,19,19,-24,-19,-14,-4
9,-39,-48,14,29,-43,29,24,-14,-14,-14,0
9,-34,-43,12,26,-39,29,29,-9,-14,-9,0
9,-29,-39,9,24,-34,29,29,-9,-14,-9,-4
4,-24,-29,9,17,-26,24,29,-9,-14,-9,-4
0,-29,-29,14,14,-29,9,29,-9,-9,-4,0
0,-24,-24,12,12,-24,-9,29,-4,-9,-4,4
0,-19,-19,9,9,-19,-14,29,-4,-9,-4,4
0,-14,-14,7,7,-14,-19,24,-4,-9,-4,4
0,-14,-14,7,7,-14,-39,4,-9,-9,-4,4
0,-19,-19,9,9,-19,-53,-9,-4,-9,-4,4
9,-29,-39,9,24,-34,-58,0,14,-14,-9,0
19,-29,-48,4,34,-39,-63,-9,29,4,-4,4
43,-19,-63,-12,53,-41,-78,-24,68,43,24,14
73,9,-63,-41,68,-26,-87,-29,161,131,78,39
73,9,-63,-41,68,-26,-131,-87,175,224,165,97
112,53,-58,-82,85,-2,-224,-239,19,336,307,214
170,107,-63,-139,117,21,-283,-385,-195,429,439,326
263,224,-39,-244,151,92,-385,-619,-419,566,644,512
414,414,0,-414,207,207,-585,-961,-590,800,985,824
512,605,92,-558,209,348,-771,-1322,-834,951,1239,1068
551,707,156,-629,197,431,-927,-1688,-1459,751,1307,1254
483,541,58,-512,212,300,-980,-1932,-2337,-82,766,1019
434,268,-165,-351,300,51,-985,-1917,-2757,-1024,0,541
453,24,-429,-239,441,-202,-966,-1771,-2727,-1449,-468,209
453,-39,-492,-207,473,-265,-941,-1659,-2508,-1503,-644,53
326,43,-283,-185,305,-119,-888,-1478,-2108,-1268,-575,53
200,102,-97,-151,148,2,-824,-1312,-1790,-1102,-512,53
107,126,19,-117,43,73,-727,-1176,-1517,-941,-453,68
63,170,107,-117,-21,139,-624,-1024,-1263,-775,-366,92
14,180,165,-97,-75,173,-492,-854,-1049,-649,-312,87
-19,195,214,-87,-117,204,-385,-722,-868,-546,-287,63
-102,156,258,-26,-180,207,-273,-566,-702,-468,-273,24
-136,92,229,21,-183,161,-170,-385,-522,-390,-253,-24
-126,14,141,56,-134,78,-82,-224,-361,-322,-239,-78
-97,-39,58,68,-78,9,-24,-102,-219,-268,-229,-112
-73,-82,-9,78,-31,-46,43,9,-82,-219,-214,-126
-68,-92,-24,80,-21,-58,117,117,29,-126,-156,-117
-58,-102,-43,80,-7,-73,151,175,97,-68,-117,-117
-34,-97,-63,65,14,-80,151,185,117,-68,-112,-112
-58,-97,-39,78,-9,-68,146,190,117,-58,-112,-112
-58,-97,-39,78,-9,-68,136,195,136,-48,-102,-107
-53,-92,-39,73,-7,-65,126,190,141,-43,-97,-107
-53,-92,-39,73,-7,-65,107,190,141,-48,-102,-107
-53,-87,-34,70,-9,-61,107,190,146,-53,-102,-107
-73,-97,-24,85,-24,-61,112,190,151,-48,-97,-112
-87,-112,-24,100,-31,-68,107,190,156,-48,-97,-117
-82,-112,-29,97,-26,-70,102,185,161,-48,-97,-117
-82,-102,-19,92,-31,-61,102,180,165,-43,-97,-117
-92,-102,-9,97,-41,-56,102,170,170,-34,-97,-117
-102,-102,0,102,-51,-51,107,165,165,-34,-97,-122
-102,-107,-4,104,-48,-56,107,165,180,-29,-92,-122
-102,-107,-4,104,-48,-56,107,175,185,-24,-92,-126
-107,-107,0,107,-53,-53,97,180,200,-19,-92,-126
-107,-107,0,107,-53,-53,92,190,219,-9,-92,-126
-97,-102,-4,100,-46,-53,97,209,234,0,-92,-126
-92,-97,-4,95,-43,-51,102,219,253,4,-92,-122
-107,-97,9,102,-58,-43,122,229,268,19,-82,-122
-122,-97,24,109,-73,-36,146,234,287,34,-82,-122
-107,-87,19,97,-63,-34,156,253,307,43,-82,-122
-97,-78,19,87,-58,-29,165,287,341,48,-78,-126
-112,-78,34,95,-73,-21,180,312,375,63,-78,-126
-112,-78,34,95,-73,-21,185,336,414,78,-68,-126
-107,-78,29,92,-68,-24,190,361,434,97,-63,-122
-107,-78,29,92,-68,-24,204,395,478,107,-48,-112
-107,-68,39,87,-73,-14,219,429,507,122,-43,-112
-102,-63,39,82,-70,-12,239,463,546,136,-29,-112
-97,-63,34,80,-65,-14,253,492,590,156,-24,-117
-92,-58,34,75,-63,-12,263,531,634,170,-14,-117
-92,-58,34,75,-63,-12,268,556,668,185,0,-112
-92,-58,34,75,-63,-12,273,585,702,204,4,-112
-87,-53,34,70,-61,-9,283,619,751,214,9,-112
-87,-53,34,70,-61,-9,307,649,790,234,14,-112
-78,-53,24,65,-51,-14,317,673,810,244,29,-112
-73,-43,29,58,-51,-7,331,707,844,263,39,-107
-68,-48,19,58,-43,-14,336,722,858,273,43,-112
-58,-53,4,56,-31,-24,336,732,883,287,53,-112
-58,-63,-4,61,-26,-34,326,717,897,297,63,-112
-63,-63,0,63,-31,-31,326,712,897,302,73,-112
-63,-53,9,58,-36,-21,331,702,902,312,78,-102
-63,-48,14,56,-39,-17,331,688,902,317,87,-97
-53,-43,9,48,-31,-17,326,649,883,331,102,-82
-39,-29,9,34,-24,-9,317,605,863,346,117,-63
-39,-24,14,31,-26,-4,283,580,829,341,126,-63
-39,-24,14,31,-26,-4,248,551,790,331,131,-48
-29,-19,9,24,-19,-4,229,507,732,322,136,-29
-9,-9,0,9,-4,-4,209,458,663,307,146,-19
-4,-4,0,4,-2,-2,190,405,580,287,141,-9
0,-4,-4,2,2,-4,165,336,492,258,136,0
-4,-9,-4,7,0,-7,136,287,419,229,126,9
-9,-9,0,9,-4,-4,107,224,336,190,122,9
-9,-19,-9,14,0,-14,82,185,268,165,102,9
-4,-29,-24,17,9,-26,63,146,209,126,78,9
-4,-24,-19,14,7,-21,53,107,156,97,68,9
-9,-19,-9,14,0,-14,39,73,107,73,48,9
-9,-19,-9,14,0,-14,29,58,78,48,43,4
0,-19,-19,9,9,-19,19,29,29,9,19,-9
-4,-24,-19,14,7,-21,24,19,4,-4,4,-14
-9,-29,-19,19,4,-24,29,9,-19,-19,-9,-19
-9,-29,-19,19,4,-24,24,9,-19,-19,-9,-19
-9,-29,-19,19,4,-24,19,9,-19,-19,-9,-19
-4,-29,-24,17,9,-26,19,9,-19,-19,-9,-19
0,-24,-24,12,12,-24,19,9,-14,-19,-9,-14
4,-19,-24,7,14,-21,24,14,-14,-24,-9,-14
4,-14,-19,4,12,-17,29,29,0,-24,-9,-9
9,-14,-24,2,17,-19,34,34,9,-14,-4,0
4,-14,-19,4,12,-17,29,43,9,-9,0,4
19,-4,-24,-7,21,-14,24,43,0,0,0,0
34,4,-29,-19,31,-12,24,53,-4,0,0,0
29,-4,-34,-12,31,-19,14,53,9,4,4,4
29,-14,-43,-7,36,-29,-4,48,9,4,4,4
24,-9,-34,-7,29,-21,-14,39,4,-9,0,0
14,-9,-24,-2,19,-17,-29,14,-14,-14,-4,-9
9,-14,-24,2,17,-19,-34,-9,-29,-24,-4,-9
4,-14,-19,4,12,-17,-39,-39,-34,-34,-14,-9
4,-9,-14,2,9,-12,-48,-48,-48,-39,-14,-4
4,-4,-9,0,7,-7,-53,-63,-53,-39,-14,0
4,0,-4,-2,4,-2,-58,-78,-53,-34,-14,-4
4,4,0,-4,2,2,-68,-87,-53,-29,-9,-4
9,4,-4,-7,7,0,-73,-78,-48,-19,0,0
14,4,-9,-9,12,-2,-73,-73,-43,-14,4,4
29,4,-24,-17,26,-9,-73,-73,-43,-14,4,4
39,4,-34,-21,36,-14,-63,-73,-43,-14,4,4
24,0,-24,-12,24,-12,-63,-68,-43,-14,0,0
9,-9,-19,0,14,-14,-63,-63,-43,-14,0,0
9,-9,-19,0,14,-14,-58,-63,-48,-19,-4,0
4,-9,-14,2,9,-12,-53,-63,-53,-29,-9,-4
0,-14,-14,7,7,-14,-48,-53,-53,-29,-14,-9
0,-19,-19,9,9,-19,-39,-48,-48,-24,-14,-9
-4,-14,-9,9,2,-12,-29,-43,-53,-29,-19,-14
-9,-14,-4,12,-2,-9,-19,-39,-58,-34,-29,-24
-19,-19,0,19,-9,-9,-14,-34,-58,-39,-29,-24
-29,-34,-4,31,-12,-19,-4,-29,-63,-43,-29,-24
-34,-39,-4,36,-14,-21,-4,-29,-63,-48,-39,-24
-34,-39,-4,36,-14,-21,0,-29,-63,-48,-43,-24
-39,-48,-9,43,-14,-29,4,-29,-63,-63,-53,-39
-48,-63,-14,56,-17,-39,4,-29,-63,-78,-63,-53
-34,-68,-34,51,0,-51,4,-24,-53,-82,-63,-53
-19,-78,-58,48,19,-68,4,0,-34,-82,-58,-53
-14,-87,-73,51,29,-80,29,19,0,-58,-53,-63
-9,-87,-78,48,34,-82,58,39,63,-4,-14,-58
-4,-43,-39,24,17,-41,53,9,97,102,58,-4
14,4,-9,-9,12,-2,14,-63,82,239,190,107
73,107,34,-90,19,70,-87,-244,-63,429,409,292
131,214,82,-173,24,148,-200,-488,-302,575,614,473
200,390,190,-295,4,290,-317,-795,-575,761,883,707
297,610,312,-453,-7,461,-507,-1166,-824,1034,1249,1039
336,727,390,-531,-26,558,-678,-1527,-1244,971,1307,1176
307,702,395,-505,-43,549,-790,-1830,-1917,507,1054,1102
268,473,204,-370,31,339,-849,-1961,-2498,-292,448,761
263,87,-175,-175,219,-43,-839,-1927,-2815,-1278,-380,204
258,-131,-390,-63,324,-261,-795,-1742,-2727,-1625,-805,-112
258,-107,-366,-75,312,-236,-810,-1522,-2371,-1503,-795,-131
156,-78,-234,-39,195,-156,-761,-1302,-2000,-1298,-722,-122
131,14,-117,-73,124,-51,-751,-1137,-1664,-1107,-614,-73
87,39,-48,-63,68,-4,-688,-995,-1381,-932,-531,-48
43,58,14,-51,14,36,-600,-878,-1137,-766,-448,-29
24,82,58,-53,-17,70,-483,-736,-922,-639,-385,-14
-9,97,107,-43,-58,102,-361,-605,-751,-531,-341,-29
-78,68,146,4,-112,107,-273,-458,-590,-434,-292,-58
-87,34,122,26,-104,78,-195,-312,-429,-356,-263,-92
-68,-14,53,41,-61,19,-122,-185,-283,-283,-239,-107
-39,-43,-4,41,-17,-24,-63,-63,-141,-200,-200,-117
-24,-68,-43,46,9,-56,-4,34,-19,-136,-165,-117
-34,-73,-39,53,2,-56,39,102,73,-68,-117,-97
-34,-73,-39,53,2,-56,53,136,122,-24,-78,-87
-14,-68,-53,41,19,-61,63,146,126,-29,-73,-82
-48,-73,-24,61,-12,-48,73,151,122,-24,-73,-87
-58,-78,-19,68,-19,-48,78,161,136,-19,-63,-87
-58,-73,-14,65,-21,-43,82,161,136,-24,-73,-97
-63,-73,-9,68,-26,-41,78,161,131,-34,-87,-107
-68,-68,0,68,-34,-34,92,161,131,-39,-87,-112
-78,-68,9,73,-43,-29,107,165,131,-39,-87,-117
-78,-78,0,78,-39,-39,112,170,136,-39,-87,-117
-73,-82,-9,78,-31,-46,112,175,141,-39,-87,-117
-78,-73,4,75,-41,-34,122,180,146,-34,-92,-117
-82,-73,9,78,-46,-31,131,180,156,-24,-92,-112
-87,-78,9,82,-48,-34,141,185,156,-24,-92,-117
-92,-82,9,87,-51,-36,146,185,170,-19,-92,-117
-97,-87,9,92,-53,-39,151,195,170,-14,-92,-126
-107,-97,9,102,-58,-43,156,200,170,-9,-92,-136
-107,-97,9,102,-58,-43,165,209,180,-4,-92,-136
-107,-97,9,102,-58,-43,175,219,190,-4,-92,-141
-122,-102,19,112,-70,-41,180,209,204,-4,-92,-141
-131,-107,24,119,-78,-41,190,209,219,4,-82,-141
-131,-107,24,119,-78,-41,204,214,244,19,-82,-136
-126,-107,19,117,-73,-43,209,219,253,29,-82,-131
-112,-97,14,104,-63,-41,185,229,278,34,-78,-136
-112,-87,24,100,-68,-31,165,239,307,48,-78,-136
-112,-87,24,100,-68,-31,136,253,341,58,-58,-136
-107,-87,19,97,-63,-34,107,263,361,73,-43,-131
-87,-82,4,85,-46,-39,107,287,414,87,-24,-117
-68,-73,-4,70,-31,-39,97,307,453,112,-19,-112
-48,-58,-9,53,-19,-34,112,346,497,131,0,-107
-29,-43,-14,36,-7,-29,131,385,541,156,14,-102
-24,-34,-9,29,-7,-21,136,414,585,180,24,-97
-24,-24,0,24,-12,-12,141,434,629,204,39,-92
-19,-19,0,19,-9,-9,146,463,663,224,43,-92
-9,-14,-4,12,-2,-9,151,502,712,239,53,-87
-9,-9,0,9,-4,-4,175,531,751,258,58,-82
-4,-4,0,4,-2,-2,190,556,780,268,68,-82
-4,4,9,0,-7,7,204,590,824,292,78,-78
0,4,4,-2,-2,4,214,614,854,307,87,-78
9,-4,-14,-2,12,-9,229,639,893,326,97,-73
9,-14,-24,2,17,-19,244,653,927,341,102,-73
0,-9,-9,4,4,-9,258,673,941,346,112,-73
-4,-14,-9,9,2,-12,263,688,956,356,117,-68
-9,-19,-9,14,0,-14,273,692,951,361,131,-63
-9,-19,-9,14,0,-14,287,688,941,370,146,-53
0,-14,-14,7,7,-14,287,663,927,385,156,-39
0,-14,-14,7,7,-14,283,634,893,390,165,-34
0,-14,-14,7,7,-14,258,600,839,380,170,-19
0,-14,-14,7,7,-14,229,546,766,370,175,-4
9,0,-9,-4,9,-4,219,502,702,356,180,0
14,14,0,-14,7,7,204,453,619,336,175,9
14,14,0,-14,7,7,195,395,536,302,165,19
14,14,0,-14,7,7,180,346,448,263,151,29
4,4,0,-4,2,2,170,283,361,219,141,14
-9,-9,0,9,-4,-4,161,234,283,185,117,4
-9,-9,0,9,-4,-4,141,165,219,141,92,4
-14,-14,0,14,-7,-7,117,97,141,97,78,0
-29,-29,0,29,-14,-14,87,39,68,63,58,0
-39,-39,0,39,-19,-19,68,-9,19,34,43,-4
-29,-39,-9,34,-9,-24,24,-29,-14,9,19,-14
-29,-39,-9,34,-9,-24,-4,-53,-39,-9,4,-19
-14,-48,-34,31,9,-41,-24,-73,-63,-24,0,-24
-9,-53,-43,31,17,-48,-58,-82,-78,-43,-24,-29
-9,-53,-43,31,17,-48,-58,-78,-82,-48,-14,-34
-14,-63,-48,39,17,-56,-63,-63,-82,-53,-19,-34
-14,-58,-43,36,14,-51,-63,-78,-92,-58,-34,-34
-14,-53,-39,34,12,-46,-63,-78,-97,-68,-39,-34
-9,-58,-48,34,19,-53,-63,-73,-97,-63,-39,-39
-4,-63,-58,34,26,-61,-53,-63,-97,-58,-34,-39
0,-63,-63,31,31,-63,-43,-63,-97,-63,-34,-34
4,-63,-68,29,36,-65,-43,-63,-92,-63,-34,-29
9,-63,-73,26,41,-68,-39,-58,-87,-63,-34,-34
9,-63,-73,26,41,-68,-39,-48,-82,-58,-39,-34
9,-53,-63,21,36,-58,-29,-43,-82,-63,-34,-34
4,-53,-58,24,31,-56,-19,-43,-78,-68,-34,-39
14,-39,-53,12,34,-46,-4,-29,-68,-53,-29,-29
24,-24,-48,0,36,-36,9,-19,-63,-43,-19,-24
19,-14,-34,-2,26,-24,4,-14,-53,-43,-14,-19
19,-4,-24,-7,21,-14,4,-9,-43,-43,-9,-14
24,0,-24,-12,24,-12,4,4,-34,-34,-9,-14
