I,II,III,aVR,aVL,aVF,V1,V2,V3,V4,V5,V6,
605,2742,2137,-1673,-766,2440,-1717,78,1639,4187,4821,4108
605,2742,2137,-1673,-766,2440,-1717,78,1639,4187,4821,4108
605,2742,2137,-1673,-766,2440,-1717,78,1639,4187,4821,4108
605,2742,2137,-1673,-766,2440,-1717,78,1639,4187,4821,4108
600,2693,2093,-1647,-746,2393,-1625,185,1703,4270,4904,4152
595,2654,2059,-1625,-732,2357,-1532,292,1766,4343,4977,4187
590,2615,2025,-1603,-717,2320,-1439,400,1830,4416,5050,4221
585,2576,1991,-1581,-702,2283,-1346,507,1893,4489,5124,4255
566,2488,1922,-1527,-678,2205,-1263,536,1849,4426,5065,4187
556,2400,1844,-1478,-644,2122,-1180,566,1815,4372,5006,4118
546,2313,1766,-1429,-610,2039,-1098,595,1781,4318,4948,4050
536,2225,1688,-1381,-575,1956,-1015,624,1747,4265,4889,3982
507,2078,1571,-1293,-531,1825,-932,605,1654,4040,4626,3762
478,1932,1454,-1205,-488,1693,-858,595,1561,3816,4362,3552
448,1786,1337,-1117,-444,1561,-785,585,1468,3591,4099,3342
419,1639,1220,-1029,-400,1429,-712,575,1376,3367,3835,3132
375,1434,1058,-905,-341,1246,-629,512,1205,3006,3425,2786
331,1229,897,-780,-283,1063,-556,448,1034,2654,3015,2449
287,1024,736,-656,-224,880,-483,385,863,2303,2605,2113
244,819,575,-531,-165,697,-409,322,692,1952,2196,1776
185,624,439,-405,-126,531,-326,268,541,1551,1742,1376
136,429,292,-283,-78,361,-244,224,390,1161,1288,985
87,234,146,-161,-29,190,-161,180,239,771,834,595
39,39,0,-39,19,19,-78,136,87,380,380,204
9,0,-9,-4,9,-4,-39,97,14,229,219,97
-19,-39,-19,29,0,-29,-9,58,-48,78,68,-9
-48,-78,-29,63,-9,-53,19,19,-112,-73,-82,-117
-78,-117,-39,97,-19,-78,48,-19,-175,-224,-234,-224
-78,-126,-48,102,-14,-87,58,-9,-175,-234,-244,-239
-78,-136,-58,107,-9,-97,58,-9,-175,-244,-253,-244
-78,-146,-68,112,-4,-107,58,-9,-175,-253,-263,-248
-78,-156,-78,117,0,-117,58,-9,-175,-263,-273,-253
-78,-165,-87,122,4,-126,68,0,-185,-268,-278,-258
-78,-165,-87,122,4,-126,68,0,-185,-273,-283,-263
-78,-165,-87,122,4,-126,68,0,-185,-278,-287,-268
-78,-165,-87,122,4,-126,68,0,-185,-283,-292,-273
-78,-170,-92,124,7,-131,73,9,-185,-287,-297,-278
-78,-175,-97,126,9,-136,78,9,-185,-292,-302,-283
-78,-180,-102,129,12,-141,82,9,-185,-297,-307,-287
-78,-185,-107,131,14,-146,87,9,-185,-302,-312,-292
-78,-175,-97,126,9,-136,87,19,-185,-312,-317,-302
-78,-175,-97,126,9,-136,87,19,-185,-312,-322,-302
-78,-175,-97,126,9,-136,87,19,-185,-312,-326,-302
-78,-175,-97,126,9,-136,87,19,-185,-312,-331,-302
-68,-185,-117,126,24,-151,97,9,-185,-317,-331,-312
-68,-185,-117,126,24,-151,97,9,-185,-322,-331,-312
-68,-185,-117,126,24,-151,97,9,-185,-326,-331,-312
-68,-185,-117,126,24,-151,97,9,-185,-331,-331,-312
-68,-185,-117,126,24,-151,107,19,-185,-331,-341,-322
-68,-185,-117,126,24,-151,107,19,-185,-331,-341,-322
-68,-185,-117,126,24,-151,107,19,-185,-331,-341,-322
-68,-185,-117,126,24,-151,107,19,-185,-331,-341,-322
-68,-185,-117,126,24,-151,117,19,-185,-331,-351,-312
-68,-185,-117,126,24,-151,117,19,-185,-331,-351,-312
-68,-185,-117,126,24,-151,117,19,-185,-331,-351,-312
-68,-185,-117,126,24,-151,117,19,-185,-331,-351,-312
-68,-175,-107,122,19,-141,107,29,-175,-331,-351,-322
-68,-175,-107,122,19,-141,107,29,-175,-331,-351,-322
-68,-175,-107,122,19,-141,107,29,-175,-331,-351,-322
-68,-175,-107,122,19,-141,107,29,-175,-331,-351,-322
-78,-175,-97,126,9,-136,117,39,-175,-331,-351,-322
-78,-175,-97,126,9,-136,117,39,-175,-331,-351,-322
-78,-175,-97,126,9,-136,117,39,-175,-331,-351,-322
-78,-175,-97,126,9,-136,117,39,-175,-331,-351,-322
-68,-185,-117,126,24,-151,126,48,-165,-331,-351,-322
-68,-185,-117,126,24,-151,126,48,-165,-331,-351,-322
-68,-185,-117,126,24,-151,126,48,-165,-331,-351,-322
-68,-185,-117,126,24,-151,126,48,-165,-331,-351,-322
-68,-175,-107,122,19,-141,131,48,-156,-331,-361,-322
-68,-175,-107,122,19,-141,136,48,-156,-331,-361,-322
-68,-175,-107,122,19,-141,141,48,-156,-331,-361,-322
-68,-175,-107,122,19,-141,146,48,-156,-331,-361,-322
-68,-185,-117,126,24,-151,146,58,-156,-331,-351,-331
-68,-185,-117,126,24,-151,146,58,-156,-331,-351,-331
-68,-185,-117,126,24,-151,146,58,-156,-331,-351,-331
-68,-185,-117,126,24,-151,146,58,-156,-331,-351,-331
-78,-195,-117,136,19,-156,146,58,-156,-341,-356,-341
-78,-195,-117,136,19,-156,146,58,-156,-341,-361,-341
-78,-195,-117,136,19,-156,146,58,-156,-341,-366,-341
-78,-195,-117,136,19,-156,146,58,-156,-341,-370,-341
-78,-204,-126,141,24,-165,156,68,-156,-351,-375,-346
-78,-204,-126,141,24,-165,156,68,-156,-351,-380,-351
-78,-204,-126,141,24,-165,156,68,-156,-351,-385,-356
-78,-204,-126,141,24,-165,156,68,-156,-351,-390,-361
-78,-214,-136,146,29,-175,161,78,-165,-356,-400,-370
-78,-214,-136,146,29,-175,165,78,-165,-361,-400,-370
-78,-214,-136,146,29,-175,170,78,-165,-366,-400,-370
-78,-214,-136,146,29,-175,175,78,-165,-370,-400,-370
-78,-219,-141,148,31,-180,185,68,-175,-385,-409,-385
-78,-224,-146,151,34,-185,185,68,-175,-390,-419,-390
-78,-229,-151,153,36,-190,185,68,-175,-395,-429,-395
-78,-234,-156,156,39,-195,185,68,-175,-400,-439,-400
-87,-248,-161,168,36,-204,190,68,-185,-414,-448,-409
-87,-253,-165,170,39,-209,195,68,-185,-419,-458,-419
-87,-258,-170,173,41,-214,200,68,-185,-424,-468,-429
-87,-263,-175,175,43,-219,204,68,-185,-429,-478,-439
-97,-273,-175,185,39,-224,209,68,-200,-448,-488,-453
-97,-273,-175,185,39,-224,214,68,-204,-458,-497,-458
-97,-273,-175,185,39,-224,219,68,-209,-468,-507,-463
-97,-273,-175,185,39,-224,224,68,-214,-478,-517,-468
-107,-292,-185,200,39,-239,229,63,-229,-497,-531,-483
-107,-302,-195,204,43,-248,234,58,-234,-507,-546,-497
-107,-312,-204,209,48,-258,239,53,-239,-517,-561,-512
-107,-322,-214,214,53,-268,244,48,-244,-527,-575,-527
-112,-341,-229,226,58,-285,248,34,-258,-551,-600,-541
-117,-351,-234,234,58,-292,253,29,-263,-566,-614,-556
-122,-361,-239,241,58,-300,258,24,-268,-580,-629,-570
-126,-370,-244,248,58,-307,263,19,-273,-595,-644,-585
-141,-385,-244,263,51,-314,278,9,-292,-614,-673,-610
-146,-390,-244,268,48,-317,283,0,-302,-634,-692,-624
-151,-395,-244,273,46,-319,287,-9,-312,-653,-712,-639
-156,-400,-244,278,43,-322,292,-19,-322,-673,-732,-653
-165,-424,-258,295,46,-341,307,-34,-346,-707,-761,-683
-175,-439,-263,307,43,-351,312,-48,-361,-732,-790,-702
-185,-453,-268,319,41,-361,317,-63,-375,-756,-819,-722
-195,-468,-273,331,39,-370,322,-78,-390,-780,-849,-741
-204,-483,-278,344,36,-380,331,-102,-414,-810,-878,-766
-214,-497,-283,356,34,-390,341,-117,-429,-839,-907,-790
-224,-512,-287,368,31,-400,351,-131,-444,-868,-936,-814
-234,-527,-292,380,29,-409,361,-146,-458,-897,-966,-839
-253,-546,-292,400,19,-419,375,-175,-488,-932,-1010,-868
-263,-566,-302,414,19,-434,380,-195,-507,-966,-1044,-897
-273,-585,-312,429,19,-448,385,-214,-527,-1000,-1078,-927
-283,-605,-322,444,19,-463,390,-234,-546,-1034,-1112,-956
-297,-629,-331,463,17,-480,400,-263,-575,-1078,-1146,-990
-312,-644,-331,478,9,-488,409,-283,-595,-1112,-1180,-1015
-326,-658,-331,492,2,-495,419,-302,-614,-1146,-1215,-1039
-341,-673,-331,507,-4,-502,429,-322,-634,-1180,-1249,-1063
-356,-697,-341,527,-7,-519,444,-346,-668,-1224,-1288,-1093
-370,-712,-341,541,-14,-527,448,-370,-692,-1259,-1327,-1122
-385,-727,-341,556,-21,-534,453,-395,-717,-1293,-1366,-1151
-400,-741,-341,570,-29,-541,458,-419,-741,-1327,-1405,-1180
-419,-756,-336,588,-41,-546,463,-453,-761,-1371,-1439,-1215
-429,-771,-341,600,-43,-556,468,-478,-780,-1405,-1473,-1239
-439,-785,-346,612,-46,-566,473,-502,-800,-1439,-1507,-1263
-448,-800,-351,624,-48,-575,478,-527,-819,-1473,-1542,-1288
-463,-819,-356,641,-53,-588,488,-556,-849,-1507,-1576,-1307
-468,-829,-361,649,-53,-595,488,-575,-868,-1532,-1600,-1327
-473,-839,-366,656,-53,-602,488,-595,-888,-1556,-1625,-1346
-478,-849,-370,663,-53,-610,488,-614,-907,-1581,-1649,-1366
-483,-854,-370,668,-56,-612,483,-629,-927,-1605,-1673,-1385
-488,-858,-370,673,-58,-614,478,-644,-936,-1620,-1688,-1395
-492,-863,-370,678,-61,-617,473,-658,-946,-1634,-1703,-1405
-497,-868,-370,683,-63,-619,468,-673,-956,-1649,-1717,-1415
-488,-868,-380,678,-53,-624,453,-678,-961,-1659,-1727,-1415
-488,-868,-380,678,-53,-624,448,-683,-966,-1659,-1727,-1415
-488,-868,-380,678,-53,-624,444,-688,-971,-1659,-1727,-1415
-488,-868,-380,678,-53,-624,439,-692,-976,-1659,-1727,-1415
-468,-849,-380,658,-43,-614,424,-678,-961,-1639,-1708,-1395
-458,-839,-380,649,-39,-610,409,-673,-956,-1629,-1698,-1385
-448,-829,-380,639,-34,-605,395,-668,-951,-1620,-1688,-1376
-439,-819,-380,629,-29,-600,380,-663,-946,-1610,-1678,-1366
-419,-805,-385,612,-17,-595,361,-639,-922,-1581,-1644,-1346
-409,-790,-380,600,-14,-585,351,-624,-907,-1551,-1620,-1327
-400,-775,-375,588,-12,-575,341,-610,-893,-1522,-1595,-1307
-390,-761,-370,575,-9,-566,331,-595,-878,-1493,-1571,-1288
-366,-736,-370,551,2,-553,317,-566,-844,-1454,-1532,-1249
-351,-712,-361,531,4,-536,302,-546,-819,-1415,-1493,-1220
-336,-688,-351,512,7,-519,287,-527,-795,-1376,-1454,-1190
-322,-663,-341,492,9,-502,273,-507,-771,-1337,-1415,-1161
-297,-634,-336,466,19,-485,258,-473,-741,-1278,-1356,-1112
-283,-614,-331,448,24,-473,244,-448,-712,-1229,-1307,-1073
-268,-595,-326,431,29,-461,229,-424,-683,-1180,-1259,-1034
-253,-575,-322,414,34,-448,214,-400,-653,-1132,-1210,-995
-229,-536,-307,383,39,-422,200,-366,-619,-1068,-1151,-941
-214,-507,-292,361,39,-400,185,-341,-585,-1015,-1093,-897
-200,-478,-278,339,39,-378,170,-317,-551,-961,-1034,-854
-185,-448,-263,317,39,-356,156,-292,-517,-907,-976,-810
-161,-419,-258,290,48,-339,136,-263,-483,-854,-922,-761
-146,-390,-244,268,48,-317,126,-244,-458,-800,-868,-722
-131,-361,-229,246,48,-295,117,-224,-434,-746,-814,-683
-117,-331,-214,224,48,-273,107,-204,-409,-692,-761,-644
-97,-302,-204,200,53,-253,92,-185,-375,-639,-702,-600
-87,-283,-195,185,53,-239,78,-165,-351,-595,-653,-556
-78,-263,-185,170,53,-224,63,-146,-326,-551,-605,-512
-68,-244,-175,156,53,-209,48,-126,-302,-507,-556,-468
-48,-224,-175,136,63,-200,39,-117,-278,-463,-507,-434
-39,-204,-165,122,63,-185,29,-107,-263,-429,-468,-400
-29,-185,-156,107,63,-170,19,-97,-248,-395,-429,-366
-19,-165,-146,92,63,-156,9,-87,-234,-361,-390,-331
-4,-151,-146,78,70,-148,-4,-68,-209,-331,-351,-302
0,-136,-136,68,68,-136,-9,-58,-195,-302,-322,-273
4,-122,-126,58,65,-124,-14,-48,-180,-273,-292,-244
9,-107,-117,48,63,-112,-19,-39,-165,-244,-263,-214
14,-92,-107,39,61,-100,-29,-34,-151,-224,-234,-190
19,-78,-97,29,58,-87,-29,-29,-146,-204,-214,-175
24,-63,-87,19,56,-75,-29,-24,-141,-185,-195,-161
29,-48,-78,9,53,-63,-29,-19,-136,-165,-175,-146
39,-43,-82,2,61,-63,-39,-9,-131,-146,-161,-126
39,-39,-78,0,58,-58,-39,-9,-126,-136,-146,-117
39,-34,-73,-2,56,-53,-39,-9,-122,-126,-131,-107
39,-29,-68,-4,53,-48,-39,-9,-117,-117,-117,-97
39,-19,-58,-9,48,-39,-43,-9,-107,-102,-107,-82
39,-19,-58,-9,48,-39,-48,-9,-107,-97,-97,-78
39,-19,-58,-9,48,-39,-53,-9,-107,-92,-87,-73
39,-19,-58,-9,48,-39,-58,-9,-107,-87,-78,-68
48,-9,-58,-19,53,-34,-48,-9,-97,-78,-68,-63
48,-9,-58,-19,53,-34,-48,-9,-97,-78,-68,-58
48,-9,-58,-19,53,-34,-48,-9,-97,-78,-68,-53
48,-9,-58,-19,53,-34,-48,-9,-97,-78,-68,-48
39,-9,-48,-14,43,-29,-58,0,-87,-73,-63,-43
39,-9,-48,-14,43,-29,-58,0,-87,-68,-58,-39
39,-9,-48,-14,43,-29,-58,0,-87,-63,-53,-34
39,-9,-48,-14,43,-29,-58,0,-87,-58,-48,-29
48,0,-48,-24,48,-24,-58,0,-87,-58,-48,-29
48,0,-48,-24,48,-24,-58,0,-87,-58,-48,-29
48,0,-48,-24,48,-24,-58,0,-87,-58,-48,-29
48,0,-48,-24,48,-24,-58,0,-87,-58,-48,-29
39,0,-39,-19,39,-19,-48,0,-87,-58,-48,-29
39,0,-39,-19,39,-19,-48,0,-87,-58,-48,-29
39,0,-39,-19,39,-19,-48,0,-87,-58,-48,-29
39,0,-39,-19,39,-19,-48,0,-87,-58,-48,-29
39,0,-39,-19,39,-19,-48,-9,-87,-58,-48,-29
39,0,-39,-19,39,-19,-48,-9,-87,-58,-48,-29
39,0,-39,-19,39,-19,-48,-9,-87,-58,-48,-29
39,0,-39,-19,39,-19,-48,-9,-87,-58,-48,-29
48,0,-48,-24,48,-24,-48,-9,-87,-68,-48,-29
48,0,-48,-24,48,-24,-48,-9,-87,-68,-48,-29
48,0,-48,-24,48,-24,-48,-9,-87,-68,-48,-29
48,0,-48,-24,48,-24,-48,-9,-87,-68,-48,-29
43,-9,-53,-17,48,-31,-48,-19,-97,-68,-48,-29
39,-9,-48,-14,43,-29,-48,-19,-97,-68,-48,-29
34,-9,-43,-12,39,-26,-48,-19,-97,-68,-48,-29
29,-9,-39,-9,34,-24,-48,-19,-97,-68,-48,-29
29,-9,-39,-9,34,-24,-39,-19,-97,-68,-58,-39
29,-9,-39,-9,34,-24,-39,-19,-97,-68,-58,-39
29,-9,-39,-9,34,-24,-39,-19,-97,-68,-58,-39
29,-9,-39,-9,34,-24,-39,-19,-97,-68,-58,-39
29,-19,-48,-4,39,-34,-39,-19,-97,-78,-58,-39
29,-19,-48,-4,39,-34,-39,-19,-97,-78,-58,-39
29,-19,-48,-4,39,-34,-39,-19,-97,-78,-58,-39
29,-19,-48,-4,39,-34,-39,-19,-97,-78,-58,-39
19,-19,-39,0,29,-29,-39,-29,-107,-87,-63,-48
19,-19,-39,0,29,-29,-39,-29,-107,-87,-68,-48
19,-19,-39,0,29,-29,-39,-29,-107,-87,-73,-48
19,-19,-39,0,29,-29,-39,-29,-107,-87,-78,-48
19,-29,-48,4,34,-39,-39,-39,-107,-87,-87,-58
19,-29,-48,4,34,-39,-39,-39,-107,-87,-87,-58
19,-29,-48,4,34,-39,-39,-39,-107,-87,-87,-58
19,-29,-48,4,34,-39,-39,-39,-107,-87,-87,-58
9,-39,-48,14,29,-43,-39,-39,-117,-97,-87,-58
9,-39,-48,14,29,-43,-39,-39,-117,-97,-87,-58
9,-39,-48,14,29,-43,-39,-39,-117,-97,-87,-58
9,-39,-48,14,29,-43,-39,-39,-117,-97,-87,-58
19,-39,-58,9,39,-48,-29,-39,-126,-107,-92,-68
19,-39,-58,9,39,-48,-29,-39,-126,-107,-97,-68
19,-39,-58,9,39,-48,-29,-39,-126,-107,-102,-68
19,-39,-58,9,39,-48,-29,-39,-126,-107,-107,-68
9,-48,-58,19,34,-53,-29,-48,-126,-107,-107,-78
9,-48,-58,19,34,-53,-29,-48,-126,-107,-107,-78
9,-48,-58,19,34,-53,-29,-48,-126,-107,-107,-78
9,-48,-58,19,34,-53,-29,-48,-126,-107,-107,-78
9,-48,-58,19,34,-53,-29,-48,-126,-107,-107,-78
9,-48,-58,19,34,-53,-29,-48,-126,-107,-107,-78
9,-48,-58,19,34,-53,-29,-48,-126,-107,-107,-78
9,-48,-58,19,34,-53,-29,-48,-126,-107,-107,-78
9,-58,-68,24,39,-63,-29,-48,-136,-117,-117,-87
9,-58,-68,24,39,-63,-29,-48,-136,-117,-117,-87
9,-58,-68,24,39,-63,-29,-48,-136,-117,-117,-87
9,-58,-68,24,39,-63,-29,-48,-136,-117,-117,-87
9,-48,-58,19,34,-53,-29,-58,-136,-117,-117,-87
9,-48,-58,19,34,-53,-29,-58,-136,-117,-117,-87
9,-48,-58,19,34,-53,-29,-58,-136,-117,-117,-87
9,-48,-58,19,34,-53,-29,-58,-136,-117,-117,-87
9,-48,-58,19,34,-53,-29,-58,-136,-117,-117,-87
9,-48,-58,19,34,-53,-29,-58,-136,-117,-117,-87
9,-48,-58,19,34,-53,-29,-58,-136,-117,-117,-87
9,-48,-58,19,34,-53,-29,-58,-136,-117,-117,-87
19,-48,-68,14,43,-58,-29,-58,-136,-126,-117,-87
19,-48,-68,14,43,-58,-29,-58,-136,-126,-117,-87
19,-48,-68,14,43,-58,-29,-58,-136,-126,-117,-87
19,-48,-68,14,43,-58,-29,-58,-136,-126,-117,-87
9,-48,-58,19,34,-53,-29,-58,-136,-117,-117,-87
9,-48,-58,19,34,-53,-29,-58,-136,-117,-117,-87
9,-48,-58,19,34,-53,-29,-58,-136,-117,-117,-87
9,-48,-58,19,34,-53,-29,-58,-136,-117,-117,-87
9,-58,-68,24,39,-63,-29,-58,-136,-117,-117,-87
9,-58,-68,24,39,-63,-29,-58,-136,-117,-117,-87
9,-58,-68,24,39,-63,-29,-58,-136,-117,-117,-87
9,-58,-68,24,39,-63,-29,-58,-136,-117,-117,-87
19,-53,-73,17,46,-63,-39,-58,-126,-117,-117,-87
19,-48,-68,14,43,-58,-39,-58,-126,-117,-117,-87
19,-43,-63,12,41,-53,-39,-58,-126,-117,-117,-87
19,-39,-58,9,39,-48,-39,-58,-126,-117,-117,-87
19,-48,-68,14,43,-58,-29,-58,-126,-117,-107,-78
19,-48,-68,14,43,-58,-29,-58,-126,-117,-107,-78
19,-48,-68,14,43,-58,-29,-58,-126,-117,-107,-78
19,-48,-68,14,43,-58,-29,-58,-126,-117,-107,-78
19,-48,-68,14,43,-58,-29,-58,-136,-117,-107,-87
19,-48,-68,14,43,-58,-29,-58,-136,-117,-107,-87
19,-48,-68,14,43,-58,-29,-58,-136,-117,-107,-87
19,-48,-68,14,43,-58,-29,-58,-136,-117,-107,-87
19,-39,-58,9,39,-48,-29,-58,-136,-107,-107,-78
19,-39,-58,9,39,-48,-29,-58,-136,-107,-107,-78
19,-39,-58,9,39,-48,-29,-58,-136,-107,-107,-78
19,-39,-58,9,39,-48,-29,-58,-136,-107,-107,-78
19,-39,-58,9,39,-48,-39,-48,-126,-107,-107,-78
19,-39,-58,9,39,-48,-39,-48,-126,-107,-107,-78
19,-39,-58,9,39,-48,-39,-48,-126,-107,-107,-78
19,-39,-58,9,39,-48,-39,-48,-126,-107,-107,-78
19,-39,-58,9,39,-48,-39,-48,-126,-107,-97,-78
19,-39,-58,9,39,-48,-39,-48,-126,-107,-97,-78
19,-39,-58,9,39,-48,-39,-48,-126,-107,-97,-78
19,-39,-58,9,39,-48,-39,-48,-126,-107,-97,-78
19,-39,-58,9,39,-48,-39,-48,-126,-97,-97,-68
19,-39,-58,9,39,-48,-39,-48,-126,-97,-97,-68
19,-39,-58,9,39,-48,-39,-48,-126,-97,-97,-68
19,-39,-58,9,39,-48,-39,-48,-126,-97,-97,-68
29,-39,-68,4,48,-53,-48,-58,-126,-97,-97,-78
29,-39,-68,4,48,-53,-48,-58,-126,-97,-97,-78
29,-39,-68,4,48,-53,-48,-58,-126,-97,-97,-78
29,-39,-68,4,48,-53,-48,-58,-126,-97,-97,-78
29,-39,-68,4,48,-53,-39,-48,-117,-97,-87,-68
29,-39,-68,4,48,-53,-39,-48,-117,-97,-87,-68
29,-39,-68,4,48,-53,-39,-48,-117,-97,-87,-68
29,-39,-68,4,48,-53,-39,-48,-117,-97,-87,-68
29,-39,-68,4,48,-53,-39,-48,-117,-97,-97,-68
29,-39,-68,4,48,-53,-39,-48,-117,-97,-97,-68
29,-39,-68,4,48,-53,-39,-48,-117,-97,-97,-68
29,-39,-68,4,48,-53,-39,-48,-117,-97,-97,-68
19,-39,-58,9,39,-48,-48,-48,-117,-97,-87,-68
19,-39,-58,9,39,-48,-48,-48,-117,-97,-87,-68
19,-39,-58,9,39,-48,-48,-48,-117,-97,-87,-68
19,-39,-58,9,39,-48,-48,-48,-117,-97,-87,-68
19,-48,-68,14,43,-58,-39,-48,-117,-87,-87,-68
19,-48,-68,14,43,-58,-39,-48,-117,-87,-87,-68
19,-48,-68,14,43,-58,-39,-48,-117,-87,-87,-68
19,-48,-68,14,43,-58,-39,-48,-117,-87,-87,-68
19,-39,-58,9,39,-48,-48,-39,-117,-97,-87,-68
19,-39,-58,9,39,-48,-48,-39,-117,-97,-87,-68
19,-39,-58,9,39,-48,-48,-39,-117,-97,-87,-68
19,-39,-58,9,39,-48,-48,-39,-117,-97,-87,-68
19,-39,-58,9,39,-48,-39,-48,-117,-87,-87,-68
19,-39,-58,9,39,-48,-39,-48,-117,-87,-87,-68
19,-39,-58,9,39,-48,-39,-48,-117,-87,-87,-68
19,-39,-58,9,39,-48,-39,-48,-117,-87,-87,-68
9,-39,-48,14,29,-43,-39,-39,-117,-87,-87,-68
9,-39,-48,14,29,-43,-39,-39,-117,-87,-87,-68
9,-39,-48,14,29,-43,-39,-39,-117,-87,-87,-68
9,-39,-48,14,29,-43,-39,-39,-117,-87,-87,-68
9,-39,-48,14,29,-43,-39,-39,-117,-87,-87,-68
9,-39,-48,14,29,-43,-39,-39,-117,-87,-87,-68
9,-39,-48,14,29,-43,-39,-39,-117,-87,-87,-68
9,-39,-48,14,29,-43,-39,-39,-117,-87,-87,-68
19,-48,-68,14,43,-58,-48,-48,-117,-87,-87,-68
19,-48,-68,14,43,-58,-48,-48,-117,-87,-87,-68
19,-48,-68,14,43,-58,-48,-48,-117,-87,-87,-68
19,-48,-68,14,43,-58,-48,-48,-117,-87,-87,-68
19,-43,-63,12,41,-53,-48,-39,-117,-87,-87,-68
19,-39,-58,9,39,-48,-48,-39,-117,-87,-87,-68
19,-34,-53,7,36,-43,-48,-39,-117,-87,-87,-68
19,-29,-48,4,34,-39,-48,-39,-117,-87,-87,-68
9,-34,-43,12,26,-39,-39,-39,-107,-87,-87,-58
9,-39,-48,14,29,-43,-39,-39,-107,-87,-87,-58
9,-43,-53,17,31,-48,-39,-39,-107,-87,-87,-58
9,-48,-58,19,34,-53,-39,-39,-107,-87,-87,-58
9,-48,-58,19,34,-53,-39,-39,-107,-78,-78,-58
9,-48,-58,19,34,-53,-39,-39,-107,-78,-78,-58
9,-48,-58,19,34,-53,-39,-39,-107,-78,-78,-58
9,-48,-58,19,34,-53,-39,-39,-107,-78,-78,-58
0,-48,-48,24,24,-48,-39,-39,-117,-87,-87,-68
0,-48,-48,24,24,-48,-39,-39,-117,-87,-87,-68
0,-48,-48,24,24,-48,-39,-39,-117,-87,-87,-68
0,-48,-48,24,24,-48,-39,-39,-117,-87,-87,-68
9,-48,-58,19,34,-53,-39,-39,-107,-87,-87,-78
9,-48,-58,19,34,-53,-39,-39,-107,-87,-87,-78
9,-48,-58,19,34,-53,-39,-39,-107,-87,-87,-78
9,-48,-58,19,34,-53,-39,-39,-107,-87,-87,-78
19,-39,-58,9,39,-48,-29,-29,-107,-78,-87,-68
19,-39,-58,9,39,-48,-29,-29,-107,-78,-87,-68
19,-39,-58,9,39,-48,-29,-29,-107,-78,-87,-68
19,-39,-58,9,39,-48,-29,-29,-107,-78,-87,-68
19,-39,-58,9,39,-48,-39,-29,-107,-78,-87,-68
19,-39,-58,9,39,-48,-39,-29,-107,-78,-87,-68
24,-39,-63,7,43,-51,-39,-29,-107,-73,-82,-68
34,-39,-73,2,53,-56,-39,-24,-102,-73,-82,-63
39,-34,-73,-2,56,-53,-43,-24,-112,-73,-78,-63
43,-29,-73,-7,58,-51,-43,-14,-102,-63,-73,-53
43,-14,-58,-14,51,-36,-34,-9,-97,-58,-68,-48
43,-4,-48,-19,46,-26,-24,0,-87,-48,-63,-43
43,4,-39,-24,41,-17,0,4,-73,-53,-58,-43
43,9,-34,-26,39,-12,0,19,-63,-48,-48,-39
48,9,-39,-29,43,-14,4,19,-58,-43,-48,-34
53,9,-43,-31,48,-17,4,24,-58,-43,-48,-34
63,14,-48,-39,56,-17,14,39,-48,-39,-39,-24
68,14,-53,-41,61,-19,14,39,-43,-29,-34,-24
68,9,-58,-39,63,-24,4,39,-43,-24,-34,-24
68,9,-58,-39,63,-24,-9,29,-53,-24,-34,-24
68,9,-58,-39,63,-24,-29,39,-43,-34,-34,-24
73,9,-63,-41,68,-26,-43,39,-48,-34,-34,-24
78,9,-68,-43,73,-29,-58,34,-48,-34,-34,-24
78,4,-73,-41,75,-34,-73,34,-53,-34,-34,-24
87,-4,-92,-41,90,-48,-82,29,-58,-43,-43,-24
92,14,-78,-53,85,-31,-87,24,-53,-34,-34,-19
92,34,-58,-63,75,-12,-97,24,-53,-19,-19,-9
102,48,-53,-75,78,-2,-102,29,-43,-4,-4,-4
107,63,-43,-85,75,9,-82,34,-34,4,4,14
107,63,-43,-85,75,9,-82,39,-34,0,0,14
107,58,-48,-82,78,4,-82,43,-34,0,0,9
107,58,-48,-82,78,4,-78,48,-43,-9,0,0
107,48,-58,-78,82,-4,-78,29,-43,-14,-9,9
107,43,-63,-75,85,-9,-87,19,-58,-24,-19,4
102,29,-73,-65,87,-21,-87,4,-68,-34,-29,-4
97,14,-82,-56,90,-34,-87,0,-78,-43,-29,-14
97,-9,-107,-43,102,-58,-82,-9,-92,-53,-48,-24
92,-24,-117,-34,104,-70,-82,-9,-92,-53,-48,-29
92,-29,-122,-31,107,-75,-73,-4,-87,-53,-48,-34
92,-29,-122,-31,107,-75,-73,4,-87,-53,-48,-39
97,-29,-126,-34,112,-78,-82,4,-87,-53,-43,-29
97,-34,-131,-31,114,-82,-92,4,-97,-58,-43,-29
97,-39,-136,-29,117,-87,-92,-4,-102,-63,-53,-39
97,-39,-136,-29,117,-87,-92,-9,-102,-68,-53,-39
97,-29,-126,-34,112,-78,-92,-14,-112,-73,-53,-43
97,-29,-126,-34,112,-78,-97,-19,-112,-73,-63,-43
97,-29,-126,-34,112,-78,-97,-24,-117,-78,-63,-43
97,-34,-131,-31,114,-82,-97,-24,-122,-82,-68,-48
92,-34,-126,-29,109,-80,-87,-34,-126,-87,-68,-43
87,-34,-122,-26,104,-78,-82,-34,-131,-97,-73,-48
82,-43,-126,-19,104,-85,-82,-39,-136,-102,-78,-58
73,-43,-117,-14,95,-80,-78,-43,-141,-107,-92,-68
58,-63,-122,2,90,-92,-87,-43,-146,-107,-102,-82
58,-63,-122,2,90,-92,-87,-48,-146,-107,-107,-82
53,-63,-117,4,85,-90,-87,-53,-151,-107,-107,-82
48,-58,-107,4,78,-82,-82,-58,-151,-107,-107,-78
48,-68,-117,9,82,-92,-78,-68,-151,-117,-107,-78
43,-73,-117,14,80,-95,-73,-68,-151,-122,-112,-82
34,-73,-107,19,70,-90,-68,-68,-151,-122,-112,-82
29,-73,-102,21,65,-87,-68,-68,-151,-122,-112,-82
29,-73,-102,21,65,-87,-63,-63,-141,-112,-107,-92
24,-87,-112,31,68,-100,-58,-58,-141,-122,-112,-97
19,-92,-112,36,65,-102,-58,-63,-151,-126,-117,-107
14,-92,-107,39,61,-100,-58,-58,-156,-131,-122,-112
9,-107,-117,48,63,-112,-48,-63,-165,-136,-141,-117
9,-107,-117,48,63,-112,-43,-68,-161,-136,-141,-117
9,-107,-117,48,63,-112,-43,-73,-161,-136,-136,-112
9,-107,-117,48,63,-112,-39,-78,-161,-131,-136,-112
-9,-97,-87,53,39,-92,-48,-73,-151,-141,-146,-112
-9,-97,-87,53,39,-92,-48,-73,-151,-146,-151,-117
-4,-97,-92,51,43,-95,-48,-73,-151,-146,-151,-117
-4,-97,-92,51,43,-95,-48,-68,-151,-146,-151,-117
0,-92,-92,46,46,-92,-39,-68,-151,-136,-141,-117
0,-92,-92,46,46,-92,-39,-68,-151,-136,-141,-117
0,-92,-92,46,46,-92,-39,-68,-151,-136,-141,-117
-4,-92,-87,48,41,-90,-34,-68,-151,-136,-141,-117
-14,-102,-87,58,36,-95,-43,-63,-151,-136,-141,-117
-19,-102,-82,61,31,-92,-43,-63,-151,-136,-146,-117
-19,-102,-82,61,31,-92,-43,-63,-151,-136,-146,-117
-19,-102,-82,61,31,-92,-39,-63,-151,-141,-146,-117
-19,-92,-73,56,26,-82,-39,-68,-151,-151,-146,-122
-19,-92,-73,56,26,-82,-29,-63,-151,-141,-146,-122
-19,-82,-63,51,21,-73,-19,-48,-126,-122,-146,-117
-9,-68,-58,39,24,-63,-4,-9,-87,-87,-112,-97
9,-43,-53,17,31,-48,29,82,-4,-29,-68,-68
34,4,-29,-19,31,-12,73,219,117,68,4,-24
68,63,-4,-65,36,29,131,419,287,214,122,53
136,151,14,-143,61,82,195,697,502,419,287,170
234,244,9,-239,112,126,253,1015,766,688,502,317
361,361,0,-361,180,180,287,1342,1034,966,751,492
488,458,-29,-473,258,214,278,1610,1244,1234,990,668
580,595,14,-588,283,305,244,1732,1439,1507,1263,883
639,800,161,-719,239,480,219,1693,1610,1781,1561,1141
649,1019,370,-834,139,695,248,1507,1747,2025,1849,1395
605,1244,639,-924,-17,941,287,1195,1825,2210,2093,1644
512,1503,990,-1007,-239,1246,292,736,1830,2361,2313,1883
370,1815,1444,-1093,-536,1629,258,273,1815,2518,2537,2147
263,2137,1873,-1200,-805,2005,151,-78,1815,2693,2771,2410
229,2386,2156,-1307,-963,2271,-78,-322,1737,2840,3030,2659
258,2596,2337,-1427,-1039,2466,-448,-527,1610,2962,3254,2893
322,2742,2420,-1532,-1049,2581,-878,-683,1464,3074,3455,3108
400,2752,2352,-1576,-976,2552,-1307,-736,1293,3142,3625,3264
488,2620,2132,-1554,-822,2376,-1620,-678,1185,3240,3796,3386
566,2571,2005,-1568,-719,2288,-1766,-483,1254,3479,4060,3572
614,2669,2054,-1642,-719,2361,-1815,-234,1444,3821,4406,3835
649,2786,2137,-1717,-744,2461,-1805,4,1649,4133,4714,4065
658,2791,2132,-1725,-736,2461,-1717,234,1825,4352,4919,4196
644,2723,2078,-1683,-717,2400,-1620,390,1927,4470,5026,4235
653,2664,2010,-1659,-678,2337,-1527,478,1966,4538,5104,4284
649,2644,1995,-1647,-673,2320,-1424,590,2039,4631,5216,4343
624,2610,1986,-1617,-680,2298,-1307,658,2098,4665,5246,4343
624,2547,1922,-1586,-649,2235,-1234,668,2054,4611,5182,4284
624,2444,1820,-1534,-597,2132,-1185,688,1976,4562,5148,4221
619,2337,1717,-1478,-549,2027,-1107,722,1942,4538,5128,4172
605,2230,1625,-1417,-509,1927,-1015,746,1898,4445,5011,4065
575,2083,1507,-1329,-466,1795,-941,736,1815,4255,4782,3889
536,1937,1400,-1237,-431,1668,-868,727,1708,4040,4528,3669
507,1776,1268,-1141,-380,1522,-790,712,1615,3791,4230,3435
458,1620,1161,-1039,-351,1390,-707,673,1498,3498,3894,3186
405,1478,1073,-941,-334,1276,-634,600,1346,3157,3508,2903
370,1288,917,-829,-273,1102,-575,512,1161,2796,3113,2581
331,1068,736,-700,-202,902,-517,429,966,2420,2684,2215
302,824,522,-563,-109,673,-419,375,761,2025,2230,1825
258,551,292,-405,-17,422,-322,336,590,1620,1737,1381
185,287,102,-236,41,195,-224,307,424,1190,1220,902
117,112,-4,-114,61,53,-136,248,258,751,722,478
53,14,-39,-34,46,-12,-58,156,117,375,317,151
-14,-58,-43,36,14,-51,-4,82,19,92,19,-63
-43,-102,-58,73,7,-80,9,24,-58,-73,-131,-161
-48,-112,-63,80,7,-87,14,-4,-117,-146,-180,-180
-48,-122,-73,85,12,-97,39,4,-131,-170,-195,-195
-48,-151,-102,100,26,-126,48,0,-131,-180,-219,-204
-48,-161,-112,104,31,-136,58,-4,-126,-185,-224,-204
-53,-161,-107,107,26,-134,58,-4,-126,-195,-234,-209
-53,-161,-107,107,26,-134,58,0,-117,-204,-244,-214
-63,-151,-87,107,12,-119,68,19,-117,-219,-239,-214
-68,-156,-87,112,9,-122,68,19,-117,-219,-248,-219
-68,-161,-92,114,12,-126,68,19,-126,-229,-258,-234
-63,-165,-102,114,19,-134,78,19,-131,-229,-258,-244
-63,-180,-117,122,26,-148,82,19,-136,-224,-263,-253
-63,-185,-122,124,29,-153,87,19,-136,-229,-268,-258
-63,-190,-126,126,31,-158,87,19,-131,-234,-283,-263
-68,-190,-122,129,26,-156,87,19,-131,-239,-283,-268
-58,-190,-131,124,36,-161,82,14,-131,-248,-297,-263
-58,-190,-131,124,36,-161,82,14,-131,-253,-302,-268
-58,-190,-131,124,36,-161,82,19,-131,-253,-307,-268
-58,-190,-131,124,36,-161,87,19,-131,-253,-307,-273
-68,-190,-122,129,26,-156,87,19,-141,-268,-307,-283
-63,-190,-126,126,31,-158,87,19,-141,-273,-312,-283
-63,-190,-126,126,31,-158,87,19,-141,-273,-317,-283
-63,-190,-126,126,31,-158,92,19,-141,-273,-317,-283
-53,-190,-136,122,41,-163,92,24,-131,-263,-307,-283
-53,-195,-141,124,43,-168,97,24,-131,-263,-312,-287
-53,-195,-141,124,43,-168,97,34,-131,-268,-312,-287
-53,-195,-141,124,43,-168,97,34,-131,-268,-312,-287
-53,-204,-151,129,48,-178,102,34,-126,-268,-322,-283
-53,-204,-151,129,48,-178,102,39,-126,-268,-322,-283
-53,-204,-151,129,48,-178,102,39,-126,-268,-322,-283
-53,-204,-151,129,48,-178,102,39,-126,-268,-322,-283
-43,-195,-151,119,53,-173,102,39,-122,-268,-322,-292
-39,-195,-156,117,58,-175,102,43,-122,-268,-322,-292
-39,-195,-156,117,58,-175,107,43,-122,-268,-322,-292
-43,-195,-151,119,53,-173,107,43,-122,-268,-326,-292
-53,-195,-141,124,43,-168,122,58,-112,-263,-317,-297
-53,-190,-136,122,41,-163,122,58,-112,-263,-317,-297
-53,-190,-136,122,41,-163,122,58,-112,-263,-317,-297
-48,-190,-141,119,46,-165,122,58,-107,-263,-317,-297
-48,-190,-141,119,46,-165,117,53,-117,-273,-326,-297
-48,-190,-141,119,46,-165,117,53,-112,-273,-326,-297
-53,-195,-141,124,43,-168,117,58,-112,-273,-331,-302
-53,-195,-141,124,43,-168,117,58,-112,-273,-331,-302
-43,-195,-151,119,53,-173,122,68,-112,-263,-331,-302
-43,-195,-151,119,53,-173,122,73,-112,-263,-331,-302
-43,-195,-151,119,53,-173,126,73,-112,-263,-331,-302
-43,-195,-151,119,53,-173,126,78,-112,-263,-331,-302
-53,-195,-141,124,43,-168,136,68,-107,-268,-326,-292
-53,-195,-141,124,43,-168,136,68,-107,-268,-326,-292
-53,-200,-146,126,46,-173,136,68,-107,-268,-331,-302
-53,-204,-151,129,48,-178,136,73,-107,-273,-331,-302
-58,-204,-146,131,43,-175,131,82,-107,-273,-331,-312
-58,-204,-146,131,43,-175,131,82,-107,-273,-341,-317
-58,-204,-146,131,43,-175,131,82,-107,-283,-346,-317
-58,-204,-146,131,43,-175,131,82,-107,-287,-346,-326
-58,-204,-146,131,43,-175,146,73,-117,-297,-361,-326
-58,-204,-146,131,43,-175,151,73,-122,-297,-361,-331
-58,-214,-156,136,48,-185,151,73,-122,-302,-366,-336
-58,-219,-161,139,51,-190,151,78,-122,-302,-370,-341
-58,-219,-161,139,51,-190,151,78,-112,-307,-366,-346
-58,-219,-161,139,51,-190,151,78,-112,-312,-370,-346
-58,-224,-165,141,53,-195,151,78,-112,-317,-375,-351
-58,-229,-170,143,56,-200,156,78,-112,-322,-380,-356
-68,-234,-165,151,48,-200,170,78,-112,-317,-385,-366
-68,-239,-170,153,51,-204,170,78,-122,-331,-395,-370
-63,-244,-180,153,58,-212,175,78,-126,-331,-405,-375
-63,-244,-180,153,58,-212,175,78,-131,-341,-414,-385
-53,-248,-195,151,70,-222,165,78,-136,-341,-424,-385
-58,-253,-195,156,68,-224,180,78,-136,-356,-429,-385
-63,-268,-204,165,70,-236,185,78,-136,-361,-439,-395
-68,-273,-204,170,68,-239,190,78,-136,-375,-448,-405
-58,-278,-219,168,80,-248,190,87,-141,-370,-448,-405
-58,-283,-224,170,82,-253,190,82,-151,-385,-458,-414
-63,-292,-229,178,82,-261,190,73,-156,-400,-473,-424
-68,-297,-229,183,80,-263,200,73,-161,-414,-488,-444
-68,-292,-224,180,78,-258,204,78,-170,-424,-497,-463
-73,-302,-229,187,78,-265,209,73,-175,-439,-512,-478
-78,-312,-234,195,78,-273,214,68,-175,-453,-527,-483
-82,-317,-234,200,75,-275,224,63,-170,-463,-541,-497
-97,-326,-229,212,65,-278,229,48,-185,-478,-556,-497
-102,-341,-239,222,68,-290,234,39,-195,-502,-570,-517
-107,-351,-244,229,68,-297,239,29,-204,-522,-590,-531
-112,-361,-248,236,68,-305,248,29,-214,-536,-610,-551
-117,-356,-239,236,61,-297,253,19,-229,-546,-629,-570
-131,-375,-244,253,56,-309,263,9,-239,-575,-658,-590
-141,-385,-244,263,51,-314,278,0,-253,-595,-678,-605
-141,-405,-263,273,61,-334,278,-19,-268,-619,-702,-624
-146,-419,-273,283,63,-346,283,-29,-273,-639,-727,-634
-156,-434,-278,295,61,-356,292,-43,-283,-663,-751,-653
-161,-444,-283,302,61,-363,297,-58,-297,-692,-785,-683
-170,-458,-287,314,58,-373,307,-73,-322,-722,-814,-702
-180,-473,-292,326,56,-383,326,-87,-351,-746,-834,-736
-195,-488,-292,341,48,-390,336,-97,-370,-775,-863,-761
-204,-502,-297,353,46,-400,346,-117,-385,-805,-897,-785
-219,-527,-307,373,43,-417,356,-136,-400,-839,-932,-810
-234,-527,-292,380,29,-409,356,-161,-414,-873,-976,-834
-244,-551,-307,397,31,-429,361,-175,-439,-907,-1010,-858
-248,-570,-322,409,36,-446,375,-195,-458,-941,-1044,-888
-268,-585,-317,427,24,-451,385,-219,-478,-976,-1078,-912
-283,-605,-322,444,19,-463,390,-244,-497,-1005,-1117,-941
-297,-619,-322,458,12,-470,400,-268,-517,-1044,-1151,-971
-312,-639,-326,475,7,-483,409,-292,-546,-1083,-1180,-1000
-317,-653,-336,485,9,-495,414,-317,-570,-1117,-1215,-1034
-331,-668,-336,500,2,-502,434,-341,-585,-1156,-1263,-1054
-346,-692,-346,519,0,-519,439,-366,-605,-1195,-1302,-1083
-361,-707,-346,534,-7,-527,444,-390,-629,-1234,-1342,-1112
-375,-727,-351,551,-12,-539,453,-419,-653,-1273,-1376,-1137
-390,-756,-366,573,-12,-561,458,-444,-688,-1322,-1415,-1176
-405,-766,-361,585,-21,-563,468,-468,-712,-1351,-1454,-1205
-419,-775,-356,597,-31,-566,473,-497,-741,-1395,-1488,-1234
-429,-790,-361,610,-34,-575,473,-527,-766,-1420,-1517,-1254
-444,-810,-366,627,-39,-588,473,-551,-795,-1454,-1546,-1278
-453,-814,-361,634,-46,-588,478,-575,-810,-1478,-1576,-1293
-463,-824,-361,644,-51,-592,478,-595,-829,-1507,-1605,-1322
-468,-834,-366,651,-51,-600,478,-610,-849,-1537,-1629,-1337
-473,-834,-361,653,-56,-597,478,-629,-868,-1566,-1659,-1361
-478,-839,-361,658,-58,-600,478,-649,-888,-1581,-1673,-1371
-483,-844,-361,663,-61,-602,468,-658,-897,-1590,-1683,-1381
-483,-844,-361,663,-61,-602,463,-673,-902,-1610,-1698,-1390
-492,-849,-356,671,-68,-602,458,-683,-912,-1620,-1717,-1400
-488,-844,-356,666,-65,-600,444,-692,-922,-1629,-1727,-1405
-488,-849,-361,668,-63,-605,439,-692,-922,-1634,-1732,-1410
-478,-854,-375,666,-51,-614,429,-692,-917,-1639,-1732,-1405
-483,-849,-366,666,-58,-607,429,-702,-922,-1639,-1732,-1400
-473,-834,-361,653,-56,-597,419,-697,-917,-1625,-1717,-1390
-458,-824,-366,641,-46,-595,405,-683,-907,-1610,-1698,-1376
-453,-814,-361,634,-46,-588,390,-668,-902,-1595,-1683,-1356
-434,-805,-370,619,-31,-588,385,-658,-883,-1576,-1659,-1337
-419,-785,-366,602,-26,-575,370,-644,-863,-1551,-1639,-1322
-409,-771,-361,590,-24,-566,361,-629,-844,-1522,-1615,-1298
-380,-746,-366,563,-7,-556,346,-605,-824,-1488,-1586,-1283
-366,-722,-356,544,-4,-539,331,-585,-805,-1459,-1556,-1239
-356,-707,-351,531,-2,-529,317,-561,-780,-1415,-1512,-1210
-341,-683,-341,512,0,-512,302,-531,-746,-1366,-1464,-1176
-322,-658,-336,490,7,-497,287,-507,-722,-1312,-1420,-1141
-302,-644,-341,473,19,-492,273,-473,-688,-1273,-1376,-1102
-292,-619,-326,456,17,-473,263,-444,-649,-1220,-1327,-1068
-268,-590,-322,429,26,-456,244,-419,-624,-1166,-1273,-1034
-248,-566,-317,407,34,-441,229,-390,-595,-1112,-1220,-990
-239,-531,-292,385,26,-412,214,-370,-556,-1058,-1161,-946
-219,-502,-283,361,31,-392,200,-341,-531,-1005,-1102,-902
-204,-478,-273,341,34,-375,190,-307,-492,-941,-1044,-854
-190,-453,-263,322,36,-358,175,-287,-458,-883,-985,-800
-165,-429,-263,297,48,-346,151,-263,-429,-824,-927,-771
-151,-400,-248,275,48,-324,136,-234,-395,-766,-873,-722
-136,-366,-229,251,46,-297,122,-209,-366,-717,-819,-673
-122,-341,-219,231,48,-280,107,-195,-336,-663,-766,-634
-112,-317,-204,214,46,-261,102,-175,-307,-610,-712,-580
-97,-292,-195,195,48,-244,87,-156,-283,-561,-653,-531
-82,-268,-185,175,51,-226,73,-136,-253,-522,-605,-488
-78,-244,-165,161,43,-204,68,-126,-239,-473,-556,-453
-58,-219,-161,139,51,-190,48,-107,-219,-439,-507,-424
-48,-204,-156,126,53,-180,39,-87,-200,-395,-458,-385
-34,-185,-151,109,58,-168,24,-78,-185,-361,-414,-351
-24,-175,-151,100,63,-163,14,-73,-175,-326,-380,-322
-14,-141,-126,78,56,-134,4,-53,-151,-287,-351,-287
-9,-126,-117,68,53,-122,0,-48,-136,-263,-312,-258
-9,-117,-107,63,48,-112,-4,-34,-122,-239,-287,-229
0,-102,-102,51,51,-102,-9,-29,-107,-214,-258,-200
4,-97,-102,46,53,-100,-14,-19,-102,-175,-229,-190
9,-92,-102,41,56,-97,-19,-9,-87,-156,-204,-170
14,-82,-97,34,56,-90,-24,-9,-87,-136,-185,-151
24,-73,-97,24,61,-85,-29,-9,-82,-126,-170,-131
29,-58,-87,14,58,-73,-34,0,-73,-112,-156,-112
29,-43,-73,7,51,-58,-39,0,-68,-107,-141,-97
24,-39,-63,7,43,-51,-39,0,-63,-97,-126,-87
24,-34,-58,4,41,-46,-39,4,-58,-87,-112,-82
39,-29,-68,-4,53,-48,-48,9,-53,-78,-87,-63
39,-29,-68,-4,53,-48,-53,14,-48,-63,-82,-63
39,-24,-63,-7,51,-43,-53,14,-48,-53,-73,-53
39,-24,-63,-7,51,-43,-53,14,-43,-48,-63,-43
29,-24,-53,-2,41,-39,-58,9,-34,-34,-63,-34
34,-14,-48,-9,41,-31,-58,9,-34,-34,-63,-29
34,-14,-48,-9,41,-31,-58,9,-34,-34,-53,-24
39,-14,-53,-12,46,-34,-58,9,-29,-29,-53,-19
39,-19,-58,-9,48,-39,-58,14,-39,-39,-53,-24
39,-19,-58,-9,48,-39,-58,14,-39,-29,-53,-24
34,-19,-53,-7,43,-36,-58,19,-39,-29,-53,-24
34,-19,-53,-7,43,-36,-58,19,-34,-29,-48,-24
29,-9,-39,-9,34,-24,-58,19,-34,-19,-39,-14
29,-9,-39,-9,34,-24,-58,19,-34,-19,-39,-14
24,-4,-29,-9,26,-17,-58,19,-34,-19,-39,-14
24,-4,-29,-9,26,-17,-58,19,-34,-19,-39,-14
34,-4,-39,-14,36,-21,-48,29,-24,-14,-29,-9
34,-4,-39,-14,36,-21,-48,29,-24,-14,-29,-9
29,-4,-34,-12,31,-19,-48,29,-24,-19,-29,-9
29,-4,-34,-12,31,-19,-48,29,-24,-19,-24,-9
39,-4,-43,-17,41,-24,-58,19,-34,-24,-24,-9
39,-4,-43,-17,41,-24,-58,14,-34,-24,-24,-9
39,-4,-43,-17,41,-24,-58,14,-34,-24,-24,-14
39,-9,-48,-14,43,-29,-58,19,-34,-29,-24,-14
34,0,-34,-17,34,-17,-48,29,-24,-29,-24,-14
34,0,-34,-17,34,-17,-48,24,-29,-29,-29,-14
34,0,-34,-17,34,-17,-43,19,-29,-29,-29,-14
34,0,-34,-17,34,-17,-43,19,-29,-29,-34,-19
34,-9,-43,-12,39,-26,-43,19,-39,-29,-34,-19
34,-9,-43,-12,39,-26,-43,19,-39,-34,-34,-19
34,-14,-48,-9,41,-31,-43,14,-48,-34,-39,-19
34,-14,-48,-9,41,-31,-43,14,-48,-34,-39,-24
29,-14,-43,-7,36,-29,-53,4,-48,-34,-48,-34
29,-19,-48,-4,39,-34,-53,4,-48,-34,-48,-34
24,-19,-43,-2,34,-31,-53,4,-48,-43,-48,-34
24,-19,-43,-2,34,-31,-53,4,-48,-43,-53,-39
24,-9,-34,-7,29,-21,-48,4,-48,-43,-48,-29
24,-9,-34,-7,29,-21,-43,4,-48,-43,-48,-29
24,-9,-34,-7,29,-21,-43,-4,-53,-43,-48,-34
24,-9,-34,-7,29,-21,-43,-4,-58,-48,-53,-34
14,-14,-29,0,21,-21,-43,-4,-48,-43,-53,-34
14,-14,-29,0,21,-21,-43,-4,-48,-48,-58,-39
9,-19,-29,4,19,-24,-39,-4,-53,-48,-58,-39
9,-19,-29,4,19,-24,-39,-4,-53,-48,-58,-48
19,-19,-39,0,29,-29,-39,-9,-53,-53,-68,-48
19,-19,-39,0,29,-29,-39,-9,-53,-53,-68,-43
19,-24,-43,2,31,-34,-43,-14,-53,-53,-68,-43
19,-24,-43,2,31,-34,-43,-14,-53,-53,-68,-43
9,-34,-43,12,26,-39,-29,-14,-63,-63,-78,-53
9,-34,-43,12,26,-39,-29,-19,-73,-68,-82,-53
4,-39,-43,17,24,-41,-29,-19,-73,-78,-82,-53
4,-39,-43,17,24,-41,-29,-19,-68,-78,-82,-53
14,-39,-53,12,34,-46,-29,-19,-68,-78,-82,-63
14,-43,-58,14,36,-51,-29,-19,-78,-82,-87,-63
9,-43,-53,17,31,-48,-29,-24,-78,-87,-92,-73
9,-43,-53,17,31,-48,-29,-24,-78,-87,-97,-73
0,-43,-43,21,21,-43,-29,-24,-78,-78,-102,-63
0,-48,-48,24,24,-48,-29,-29,-78,-78,-102,-63
0,-48,-48,24,24,-48,-29,-34,-78,-82,-102,-68
0,-48,-48,24,24,-48,-29,-34,-78,-82,-102,-68
9,-39,-48,14,29,-43,-29,-34,-78,-92,-97,-68
9,-39,-48,14,29,-43,-29,-34,-78,-97,-97,-68
9,-39,-48,14,29,-43,-29,-34,-82,-102,-97,-68
9,-39,-48,14,29,-43,-24,-34,-82,-102,-92,-73
9,-48,-58,19,34,-53,-24,-34,-73,-92,-92,-73
9,-48,-58,19,34,-53,-29,-29,-73,-87,-92,-73
4,-48,-53,21,29,-51,-29,-29,-78,-87,-92,-73
4,-48,-53,21,29,-51,-29,-34,-78,-92,-92,-73
-4,-48,-43,26,19,-46,-29,-39,-87,-107,-107,-87
0,-48,-48,24,24,-48,-29,-43,-87,-107,-107,-87
0,-48,-48,24,24,-48,-24,-43,-87,-107,-107,-87
0,-48,-48,24,24,-48,-24,-43,-87,-107,-107,-92
-4,-58,-53,31,24,-56,-29,-43,-82,-107,-117,-92
-4,-58,-53,31,24,-56,-29,-43,-82,-107,-117,-92
0,-53,-53,26,26,-53,-24,-43,-82,-107,-117,-92
0,-53,-53,26,26,-53,-24,-39,-78,-102,-117,-92
-4,-48,-43,26,19,-46,-24,-39,-78,-102,-117,-92
-4,-48,-43,26,19,-46,-24,-39,-82,-102,-122,-92
-4,-48,-43,26,19,-46,-24,-43,-87,-107,-122,-92
-4,-48,-43,26,19,-46,-24,-43,-87,-107,-122,-92
4,-48,-53,21,29,-51,-24,-43,-82,-107,-117,-92
4,-48,-53,21,29,-51,-24,-43,-82,-107,-117,-92
4,-48,-53,21,29,-51,-29,-43,-78,-102,-117,-92
4,-48,-53,21,29,-51,-29,-43,-78,-102,-112,-92
-4,-48,-43,26,19,-46,-29,-43,-87,-107,-112,-92
-4,-48,-43,26,19,-46,-29,-39,-87,-107,-112,-92
0,-48,-48,24,24,-48,-24,-39,-87,-107,-112,-92
0,-43,-43,21,21,-43,-24,-39,-87,-107,-117,-92
0,-48,-48,24,24,-48,-29,-39,-97,-107,-107,-92
0,-48,-48,24,24,-48,-29,-39,-92,-102,-107,-92
0,-48,-48,24,24,-48,-29,-39,-92,-97,-107,-87
0,-48,-48,24,24,-48,-29,-39,-87,-97,-107,-87
0,-48,-48,24,24,-48,-29,-39,-78,-102,-107,-78
0,-48,-48,24,24,-48,-29,-39,-78,-102,-112,-78
0,-48,-48,24,24,-48,-29,-39,-78,-102,-112,-73
0,-48,-48,24,24,-48,-29,-34,-78,-102,-107,-73
9,-48,-58,19,34,-53,-29,-43,-78,-102,-102,-82
9,-48,-58,19,34,-53,-34,-43,-78,-102,-102,-82
9,-48,-58,19,34,-53,-34,-48,-78,-97,-102,-82
9,-43,-53,17,31,-48,-34,-48,-78,-97,-102,-82
9,-43,-53,17,31,-48,-34,-39,-78,-87,-102,-82
9,-43,-53,17,31,-48,-34,-39,-78,-87,-102,-82
9,-43,-53,17,31,-48,-34,-39,-78,-87,-102,-82
9,-48,-58,19,34,-53,-34,-34,-78,-87,-102,-82
4,-48,-53,21,29,-51,-34,-43,-73,-87,-102,-82
4,-43,-48,19,26,-46,-34,-43,-73,-87,-102,-82
4,-43,-48,19,26,-46,-34,-43,-73,-87,-102,-82
4,-48,-53,21,29,-51,-34,-43,-73,-87,-102,-78
14,-39,-53,12,34,-46,-34,-34,-73,-87,-97,-78
14,-39,-53,12,34,-46,-34,-34,-73,-82,-97,-78
19,-39,-58,9,39,-48,-34,-34,-68,-82,-97,-78
19,-39,-58,9,39,-48,-39,-34,-68,-82,-97,-78
9,-48,-58,19,34,-53,-39,-43,-68,-92,-107,-78
9,-48,-58,19,34,-53,-39,-43,-68,-92,-107,-78
9,-48,-58,19,34,-53,-39,-43,-73,-92,-107,-78
9,-48,-58,19,34,-53,-39,-43,-78,-92,-107,-78
9,-39,-48,14,29,-43,-39,-34,-73,-92,-97,-78
14,-39,-53,12,34,-46,-39,-34,-73,-92,-97,-78
14,-39,-53,12,34,-46,-39,-34,-73,-92,-97,-78
9,-39,-48,14,29,-43,-39,-34,-73,-87,-92,-78
9,-39,-48,14,29,-43,-39,-34,-73,-82,-97,-68
14,-39,-53,12,34,-46,-39,-29,-73,-82,-97,-63
19,-34,-53,7,36,-43,-39,-29,-68,-82,-97,-63
19,-34,-53,7,36,-43,-39,-29,-68,-82,-97,-63
14,-39,-53,12,34,-46,-39,-34,-82,-82,-92,-73
9,-43,-53,17,31,-48,-39,-34,-82,-82,-92,-73
9,-43,-53,17,31,-48,-39,-29,-78,-82,-92,-73
4,-48,-53,21,29,-51,-39,-29,-73,-78,-92,-68
14,-39,-53,12,34,-46,-39,-29,-73,-78,-92,-78
14,-39,-53,12,34,-46,-34,-29,-73,-78,-92,-78
14,-39,-53,12,34,-46,-34,-29,-73,-73,-87,-78
14,-39,-53,12,34,-46,-34,-29,-73,-73,-87,-78
14,-34,-48,9,31,-41,-34,-39,-73,-78,-92,-73
19,-34,-53,7,36,-43,-34,-39,-73,-78,-92,-73
19,-29,-48,4,34,-39,-34,-34,-73,-82,-92,-73
14,-29,-43,7,29,-36,-34,-34,-73,-87,-87,-73
4,-29,-34,12,19,-31,-34,-34,-73,-87,-97,-73
9,-34,-43,12,26,-39,-34,-34,-73,-87,-97,-73
14,-39,-53,12,34,-46,-34,-34,-73,-87,-97,-73
14,-43,-58,14,36,-51,-39,-29,-78,-82,-87,-68
4,-43,-48,19,26,-46,-39,-39,-78,-87,-97,-78
4,-43,-48,19,26,-46,-39,-39,-73,-87,-102,-73
9,-39,-48,14,29,-43,-43,-43,-68,-82,-102,-63
14,-39,-53,12,34,-46,-48,-43,-68,-82,-97,-58
14,-43,-58,14,36,-51,-39,-34,-68,-92,-97,-63
14,-43,-58,14,36,-51,-39,-29,-73,-87,-97,-68
14,-39,-53,12,34,-46,-39,-29,-73,-87,-102,-73
14,-39,-53,12,34,-46,-39,-29,-68,-87,-107,-82
9,-39,-48,14,29,-43,-29,-24,-63,-73,-102,-73
9,-39,-48,14,29,-43,-39,-29,-63,-68,-102,-73
9,-39,-48,14,29,-43,-43,-29,-63,-78,-92,-82
14,-43,-58,14,36,-51,-34,-19,-63,-73,-92,-73
19,-29,-48,4,34,-39,-29,-19,-68,-78,-87,-68
19,-19,-39,0,29,-29,-39,-29,-68,-78,-97,-68
19,-19,-39,0,29,-29,-39,-29,-68,-78,-97,-68
19,-19,-39,0,29,-29,-39,-29,-68,-78,-97,-68
19,-19,-39,0,29,-29,-39,-29,-68,-78,-97,-68
14,-24,-39,4,26,-31,-29,-29,-68,-73,-92,-68
24,-29,-53,2,39,-41,-29,-24,-63,-73,-92,-63
29,-19,-48,-4,39,-34,-34,-24,-63,-73,-87,-63
34,-19,-53,-7,43,-36,-34,-14,-53,-63,-82,-53
34,-4,-39,-14,36,-21,-24,-9,-48,-58,-78,-48
34,4,-29,-19,31,-12,-14,0,-39,-48,-73,-43
34,4,-29,-19,31,-12,0,4,-34,-43,-68,-43
34,9,-24,-21,29,-7,0,19,-24,-39,-58,-39
48,9,-39,-29,43,-14,-4,19,-19,-34,-58,-34
53,9,-43,-31,48,-17,-4,24,-19,-34,-58,-34
53,14,-39,-34,46,-12,-4,29,-19,-34,-58,-34
58,14,-43,-36,51,-14,-4,29,-14,-29,-53,-34
48,0,-48,-24,48,-24,-4,29,-14,-29,-43,-34
48,0,-48,-24,48,-24,-19,19,-24,-34,-43,-34
58,0,-58,-29,58,-29,-39,19,-24,-34,-43,-34
63,0,-63,-31,63,-31,-53,19,-29,-34,-43,-34
68,0,-68,-34,68,-34,-68,24,-19,-34,-53,-34
68,-4,-73,-31,70,-39,-82,24,-24,-34,-53,-34
68,-4,-73,-31,70,-39,-87,24,-24,-34,-53,-29
73,14,-58,-43,65,-21,-87,24,-14,-24,-43,-19
73,43,-29,-58,51,7,-92,29,-9,-19,-29,-14
82,58,-24,-70,53,17,-92,39,4,-4,-14,-4
87,63,-24,-75,56,19,-82,39,4,-4,-14,4
87,63,-24,-75,56,19,-82,39,4,-9,-19,4
87,58,-29,-73,58,14,-82,39,-4,-9,-19,0
87,58,-29,-73,58,14,-78,39,-14,-19,-19,-9
87,48,-39,-68,63,4,-78,29,-14,-24,-29,-9
87,43,-43,-65,65,0,-87,19,-29,-34,-39,-14
82,39,-43,-61,63,-2,-87,14,-29,-34,-39,-24
78,24,-53,-51,65,-14,-87,9,-39,-43,-39,-34
78,9,-68,-43,73,-29,-82,9,-43,-43,-48,-39
73,-4,-78,-34,75,-41,-82,9,-43,-43,-48,-39
73,-19,-92,-26,82,-56,-73,4,-48,-43,-58,-29
73,-19,-92,-26,82,-56,-73,14,-48,-43,-58,-29
78,-19,-97,-29,87,-58,-73,14,-48,-43,-53,-29
78,-24,-102,-26,90,-63,-82,14,-58,-48,-53,-29
68,-19,-87,-24,78,-53,-73,4,-53,-53,-53,-39
68,-19,-87,-24,78,-53,-73,0,-53,-58,-53,-39
68,-19,-87,-24,78,-53,-73,-4,-63,-63,-53,-43
68,-19,-87,-24,78,-53,-78,-9,-63,-63,-63,-43
78,-29,-107,-24,92,-68,-87,-24,-78,-78,-73,-43
78,-34,-112,-21,95,-73,-87,-24,-82,-82,-78,-48
73,-39,-112,-17,92,-75,-87,-34,-87,-87,-87,-53
68,-43,-112,-12,90,-78,-82,-34,-92,-97,-92,-58
53,-48,-102,-2,78,-75,-73,-29,-87,-92,-87,-78
43,-53,-97,4,70,-75,-68,-34,-92,-97,-102,-87
39,-63,-102,12,70,-82,-68,-34,-97,-107,-102,-92
39,-63,-102,12,70,-82,-68,-39,-97,-107,-107,-92
43,-73,-117,14,80,-95,-68,-34,-102,-117,-117,-92
39,-68,-107,14,73,-87,-63,-39,-102,-117,-117,-87
29,-68,-97,19,63,-82,-58,-39,-102,-117,-117,-87
24,-73,-97,24,61,-85,-53,-39,-102,-122,-122,-92
24,-63,-87,19,56,-75,-48,-48,-102,-112,-122,-82
19,-63,-82,21,51,-73,-48,-48,-102,-112,-122,-82
19,-73,-92,26,56,-82,-43,-48,-102,-112,-126,-92
14,-87,-102,36,58,-95,-39,-48,-102,-122,-131,-97
9,-82,-92,36,51,-87,-48,-58,-112,-126,-146,-107
4,-82,-87,39,46,-85,-48,-58,-117,-131,-151,-112
0,-87,-87,43,43,-87,-48,-58,-117,-136,-161,-117
0,-87,-87,43,43,-87,-43,-58,-112,-136,-161,-117
-9,-97,-87,53,39,-92,-43,-58,-112,-136,-146,-112
-9,-97,-87,53,39,-92,-39,-58,-112,-131,-146,-112
-19,-97,-78,58,29,-87,-39,-63,-112,-131,-146,-112
-19,-97,-78,58,29,-87,-39,-63,-112,-136,-151,-117
-14,-97,-82,56,34,-90,-39,-53,-112,-136,-151,-117
-14,-97,-82,56,34,-90,-39,-48,-112,-136,-151,-117
-19,-92,-73,56,26,-82,-39,-48,-112,-136,-151,-117
-19,-92,-73,56,26,-82,-39,-48,-112,-136,-151,-117
-9,-92,-82,51,36,-87,-39,-58,-112,-146,-161,-117
-14,-92,-78,53,31,-85,-34,-58,-112,-146,-161,-117
-14,-92,-78,53,31,-85,-34,-63,-112,-146,-161,-117
-19,-92,-73,56,26,-82,-34,-63,-112,-146,-165,-117
-9,-92,-82,51,36,-87,-34,-53,-112,-146,-146,-117
-19,-92,-73,56,26,-82,-29,-53,-112,-141,-156,-117
-29,-102,-73,65,21,-87,-29,-48,-102,-141,-156,-122
-29,-102,-73,65,21,-87,-19,-43,-92,-122,-146,-122
-9,-73,-63,41,26,-68,-9,-9,-58,-102,-126,-107
0,-48,-48,24,24,-48,14,58,0,-58,-92,-78
9,-14,-24,2,17,-19,48,151,102,29,-39,-39
34,24,-9,-29,21,7,92,297,234,146,43,14
78,102,24,-90,26,63,151,517,434,322,190,112
146,190,43,-168,51,117,204,814,697,566,395,239
253,283,29,-268,112,156,253,1132,971,863,639,414
380,390,9,-385,185,200,278,1449,1229,1161,897,590
507,507,0,-507,253,253,268,1698,1468,1449,1176,785
610,673,63,-641,273,368,244,1800,1673,1742,1468,1039
649,888,239,-768,204,563,239,1703,1834,2025,1776,1307
629,1098,468,-863,80,783,278,1459,1922,2249,2054,1571
556,1332,775,-944,-109,1054,287,1068,1932,2415,2288,1810
444,1620,1176,-1032,-366,1398,244,561,1869,2537,2498,2049
331,1961,1629,-1146,-649,1795,141,78,1825,2674,2732,2313
292,2283,1991,-1288,-849,2137,-34,-224,1786,2840,2996,2586
297,2522,2225,-1410,-963,2374,-331,-439,1659,3006,3245,2835
326,2703,2376,-1515,-1024,2540,-751,-624,1493,3137,3479,3079
400,2820,2420,-1610,-1010,2620,-1220,-741,1327,3259,3689,3284
507,2752,2244,-1629,-868,2498,-1610,-736,1176,3347,3869,3440
595,2610,2015,-1603,-710,2313,-1825,-600,1146,3523,4099,3581
644,2610,1966,-1627,-661,2288,-1912,-375,1293,3840,4421,3816
683,2727,2044,-1705,-680,2386,-1932,-146,1512,4172,4748,4060
707,2776,2069,-1742,-680,2422,-1893,73,1698,4426,4997,4230
717,2713,1995,-1715,-639,2354,-1786,273,1834,4606,5143,4304
702,2635,1932,-1668,-614,2283,-1688,380,1898,4684,5241,4352
702,2596,1893,-1649,-595,2244,-1605,468,1927,4772,5338,4411
688,2576,1888,-1632,-600,2232,-1503,561,1991,4845,5411,4440
683,2522,1839,-1603,-578,2181,-1405,600,2010,4831,5392,4411
683,2440,1756,-1561,-536,2098,-1322,619,1966,4777,5358,4372
683,2337,1654,-1510,-485,1995,-1244,678,1947,4767,5353,4328
658,2230,1571,-1444,-456,1900,-1156,722,1922,4714,5285,4240
634,2103,1468,-1368,-417,1786,-1054,736,1859,4553,5089,4084
614,1966,1351,-1290,-368,1659,-961,736,1766,4362,4850,3889
585,1820,1234,-1202,-324,1527,-878,746,1668,4138,4587,3679
546,1649,1102,-1098,-278,1376,-800,712,1546,3850,4250,3425
478,1483,1005,-980,-263,1244,-727,624,1390,3489,3855,3128
424,1312,888,-868,-231,1100,-653,522,1210,3118,3450,2806
370,1112,741,-741,-185,927,-585,434,1015,2737,3035,2474
331,883,551,-607,-109,717,-488,361,819,2342,2586,2098
302,639,336,-470,-17,488,-380,326,653,1947,2122,1678
258,395,136,-326,61,265,-283,326,502,1532,1629,1215
185,180,-4,-183,95,87,-185,297,356,1093,1093,746
107,34,-73,-70,90,-19,-97,219,200,663,605,341
24,-43,-68,9,46,-56,-29,136,87,297,219,53
-34,-87,-53,61,9,-70,24,63,0,24,-58,-122
-43,-102,-58,73,7,-80,39,14,-58,-112,-180,-190
-48,-122,-73,85,12,-97,43,4,-78,-165,-209,-200
-48,-131,-82,90,17,-107,58,4,-73,-170,-214,-204
-48,-141,-92,95,21,-117,68,4,-78,-180,-229,-224
-48,-151,-102,100,26,-126,78,4,-78,-185,-234,-224
-53,-151,-97,102,21,-124,78,9,-82,-195,-244,-229
-53,-151,-97,102,21,-124,78,19,-78,-204,-253,-234
-53,-151,-97,102,21,-124,78,29,-78,-209,-258,-234
-58,-156,-97,107,19,-126,78,29,-78,-209,-268,-239
-58,-161,-102,109,21,-131,78,29,-87,-219,-278,-253
-53,-165,-112,109,29,-139,87,29,-92,-219,-278,-263
-63,-170,-107,117,21,-139,92,29,-87,-224,-273,-253
-63,-175,-112,119,24,-143,97,29,-87,-229,-278,-258
-63,-180,-117,122,26,-148,97,29,-82,-234,-292,-263
-68,-180,-112,124,21,-146,97,29,-82,-239,-292,-268
-63,-180,-117,122,26,-148,92,24,-82,-258,-307,-283
-58,-180,-122,119,31,-151,92,24,-82,-263,-312,-287
-53,-180,-126,117,36,-153,92,29,-82,-263,-317,-287
-48,-180,-131,114,41,-156,97,29,-82,-263,-317,-292
-58,-180,-122,119,31,-151,107,39,-82,-258,-317,-292
-53,-180,-126,117,36,-153,107,39,-82,-263,-322,-292
-53,-180,-126,117,36,-153,107,39,-82,-263,-326,-292
-53,-180,-126,117,36,-153,112,39,-82,-263,-326,-292
-53,-180,-126,117,36,-153,112,34,-82,-273,-336,-292
-53,-185,-131,119,39,-158,117,34,-82,-273,-341,-297
-53,-185,-131,119,39,-158,117,43,-82,-278,-341,-297
-53,-185,-131,119,39,-158,117,43,-82,-278,-341,-297
-43,-175,-131,109,43,-153,122,43,-78,-268,-331,-302
-43,-175,-131,109,43,-153,122,48,-78,-268,-331,-302
-43,-175,-131,109,43,-153,122,48,-78,-268,-331,-302
-43,-175,-131,109,43,-153,122,48,-78,-268,-331,-302
-53,-185,-131,119,39,-158,122,48,-63,-268,-331,-302
-48,-185,-136,117,43,-161,122,53,-63,-268,-331,-302
-48,-185,-136,117,43,-161,126,53,-63,-268,-331,-302
-53,-185,-131,119,39,-158,126,53,-63,-268,-336,-302
-53,-185,-131,119,39,-158,131,58,-63,-273,-346,-307
-53,-180,-126,117,36,-153,131,58,-63,-273,-346,-307
-53,-180,-126,117,36,-153,131,58,-63,-273,-346,-307
-48,-180,-131,114,41,-156,131,58,-58,-273,-346,-307
-39,-170,-131,104,46,-151,136,63,-58,-273,-336,-307
-39,-170,-131,104,46,-151,136,63,-53,-273,-336,-307
-43,-175,-131,109,43,-153,136,68,-53,-273,-341,-312
-43,-175,-131,109,43,-153,136,68,-53,-273,-341,-312
-43,-185,-141,114,48,-163,131,68,-63,-273,-341,-312
-43,-185,-141,114,48,-163,131,73,-63,-273,-341,-312
-43,-185,-141,114,48,-163,136,73,-63,-273,-341,-312
-43,-185,-141,114,48,-163,136,78,-63,-273,-341,-312
-43,-185,-141,114,48,-163,156,78,-58,-287,-346,-312
-43,-185,-141,114,48,-163,156,78,-58,-287,-346,-312
-43,-190,-146,117,51,-168,156,78,-58,-287,-351,-322
-43,-195,-151,119,53,-173,156,82,-58,-292,-351,-322
-48,-195,-146,122,48,-170,151,73,-48,-283,-351,-322
-48,-195,-146,122,48,-170,151,73,-48,-283,-361,-326
-48,-195,-146,122,48,-170,151,73,-48,-292,-366,-326
-48,-195,-146,122,48,-170,151,73,-48,-297,-366,-336
-48,-195,-146,122,48,-170,156,82,-58,-297,-370,-326
-48,-195,-146,122,48,-170,161,82,-63,-297,-370,-331
-48,-204,-156,126,53,-180,161,82,-63,-302,-375,-336
-48,-209,-161,129,56,-185,161,87,-63,-302,-380,-341
-48,-200,-151,124,51,-175,170,87,-63,-317,-395,-356
-48,-200,-151,124,51,-175,170,87,-63,-322,-400,-356
-48,-204,-156,126,53,-180,170,87,-63,-326,-405,-361
-48,-209,-161,129,56,-185,175,87,-63,-331,-409,-366
-58,-214,-156,136,48,-185,190,87,-63,-326,-405,-375
-58,-219,-161,139,51,-190,190,87,-73,-341,-414,-380
-53,-224,-170,139,58,-197,195,87,-78,-341,-424,-385
-53,-224,-170,139,58,-197,195,87,-82,-351,-434,-395
-63,-229,-165,146,51,-197,185,78,-87,-361,-444,-395
-68,-234,-165,151,48,-200,200,78,-87,-375,-448,-395
-73,-248,-175,161,51,-212,204,78,-87,-380,-458,-405
-78,-253,-175,165,48,-214,209,78,-87,-395,-468,-414
-68,-258,-190,163,61,-224,219,87,-92,-390,-478,-434
-68,-263,-195,165,63,-229,219,82,-102,-405,-488,-444
-73,-273,-200,173,63,-236,219,73,-107,-419,-502,-453
-78,-278,-200,178,61,-239,229,73,-112,-434,-517,-473
-78,-283,-204,180,63,-244,234,58,-126,-453,-536,-473
-82,-292,-209,187,63,-251,239,53,-136,-468,-551,-488
-87,-302,-214,195,63,-258,244,48,-141,-483,-566,-492
-92,-307,-214,200,61,-261,253,43,-141,-492,-580,-507
-97,-317,-219,207,61,-268,258,39,-156,-507,-595,-527
-102,-331,-229,217,63,-280,263,29,-165,-531,-610,-546
-107,-341,-234,224,63,-287,268,19,-175,-551,-629,-561
-112,-351,-239,231,63,-295,278,19,-185,-566,-649,-580
-122,-356,-234,239,56,-295,273,0,-209,-595,-678,-600
-141,-375,-234,258,46,-305,283,-9,-219,-624,-707,-619
-156,-385,-229,270,36,-307,297,-19,-234,-644,-727,-634
-161,-405,-244,283,41,-324,297,-39,-248,-668,-751,-653
-165,-409,-244,287,39,-326,312,-48,-253,-688,-775,-673
-175,-424,-248,300,36,-336,322,-63,-263,-712,-800,-692
-180,-434,-253,307,36,-344,326,-78,-278,-741,-834,-722
-190,-448,-258,319,34,-353,336,-92,-302,-771,-863,-741
-209,-463,-253,336,21,-358,346,-126,-331,-805,-893,-766
-224,-478,-253,351,14,-366,356,-136,-351,-834,-922,-790
-234,-492,-258,363,12,-375,366,-156,-366,-863,-956,-814
-248,-517,-268,383,9,-392,375,-175,-380,-897,-990,-839
-263,-527,-263,395,0,-395,375,-209,-405,-941,-1034,-883
-273,-551,-278,412,2,-414,380,-224,-429,-976,-1068,-907
-278,-570,-292,424,7,-431,395,-244,-448,-1010,-1102,-936
-297,-585,-287,441,-4,-436,405,-268,-468,-1044,-1137,-961
-312,-605,-292,458,-9,-448,419,-302,-507,-1093,-1190,-990
-326,-619,-292,473,-17,-456,429,-326,-527,-1132,-1229,-1019
-341,-639,-297,490,-21,-468,439,-351,-556,-1171,-1263,-1049
-346,-653,-307,500,-19,-480,444,-375,-580,-1205,-1302,-1083
-361,-668,-307,514,-26,-488,453,-409,-614,-1254,-1351,-1112
-375,-692,-317,534,-29,-505,458,-434,-634,-1293,-1390,-1141
-390,-707,-317,549,-36,-512,463,-458,-658,-1332,-1429,-1171
-405,-727,-322,566,-41,-524,473,-488,-683,-1371,-1464,-1195
-419,-746,-326,583,-46,-536,468,-512,-717,-1410,-1493,-1224
-434,-756,-322,595,-56,-539,478,-536,-741,-1439,-1532,-1254
-448,-766,-317,607,-65,-541,483,-566,-771,-1483,-1566,-1283
-458,-780,-322,619,-68,-551,483,-595,-795,-1507,-1595,-1302
-463,-800,-336,631,-63,-568,492,-619,-805,-1542,-1634,-1327
-473,-805,-331,639,-70,-568,497,-644,-819,-1566,-1664,-1342
-483,-814,-331,649,-75,-573,497,-663,-839,-1595,-1693,-1371
-488,-824,-336,656,-75,-580,497,-678,-858,-1625,-1717,-1385
-492,-814,-322,653,-85,-568,488,-697,-878,-1654,-1747,-1400
-497,-819,-322,658,-87,-570,488,-717,-897,-1668,-1761,-1410
-502,-824,-322,663,-90,-573,478,-727,-907,-1678,-1771,-1420
-502,-824,-322,663,-90,-573,473,-741,-912,-1698,-1786,-1429
-502,-829,-326,666,-87,-578,478,-746,-912,-1693,-1790,-1434
-497,-824,-326,661,-85,-575,463,-751,-922,-1698,-1795,-1434
-497,-829,-331,663,-82,-580,458,-746,-922,-1698,-1795,-1434
-488,-834,-346,661,-70,-590,448,-741,-917,-1698,-1790,-1424
-483,-829,-346,656,-68,-588,429,-732,-917,-1693,-1781,-1420
-473,-814,-341,644,-65,-578,419,-727,-907,-1673,-1766,-1410
-458,-805,-346,631,-56,-575,405,-712,-893,-1654,-1747,-1395
-453,-795,-341,624,-56,-568,390,-697,-883,-1634,-1732,-1376
-444,-785,-341,614,-51,-563,380,-678,-858,-1595,-1693,-1351
-429,-766,-336,597,-46,-551,370,-663,-834,-1571,-1668,-1332
-419,-751,-331,585,-43,-541,366,-649,-810,-1542,-1639,-1302
-390,-727,-336,558,-26,-531,356,-624,-785,-1507,-1605,-1283
-366,-702,-336,534,-14,-519,341,-600,-766,-1459,-1556,-1239
-356,-688,-331,522,-12,-509,326,-570,-741,-1415,-1512,-1210
-341,-663,-322,502,-9,-492,312,-536,-707,-1366,-1464,-1176
-322,-639,-317,480,-2,-478,297,-507,-683,-1312,-1420,-1141
-302,-614,-312,458,4,-463,283,-473,-644,-1254,-1356,-1098
-292,-590,-297,441,2,-444,273,-444,-600,-1200,-1307,-1058
-268,-561,-292,414,12,-427,253,-419,-570,-1146,-1254,-1019
-248,-536,-287,392,19,-412,239,-390,-536,-1093,-1200,-971
-229,-502,-273,366,21,-387,224,-366,-488,-1039,-1141,-927
-209,-473,-263,341,26,-368,209,-331,-463,-985,-1083,-883
-195,-448,-253,322,29,-351,200,-292,-424,-922,-1024,-834
-180,-424,-244,302,31,-334,185,-268,-390,-863,-966,-780
-165,-409,-244,287,39,-326,161,-253,-370,-795,-907,-741
-151,-380,-229,265,39,-305,146,-224,-336,-736,-854,-692
-136,-346,-209,241,36,-278,131,-200,-307,-688,-800,-644
-122,-322,-200,222,39,-261,117,-185,-278,-634,-746,-605
-102,-287,-185,195,41,-236,112,-161,-248,-580,-683,-561
-87,-263,-175,175,43,-219,97,-136,-224,-531,-624,-512
-73,-239,-165,156,46,-202,82,-112,-195,-492,-575,-468
-68,-214,-146,141,39,-180,78,-97,-180,-444,-527,-434
-48,-200,-151,124,51,-175,68,-87,-151,-400,-488,-395
-39,-185,-146,112,53,-165,58,-68,-131,-356,-439,-356
-24,-165,-141,95,58,-153,43,-58,-117,-322,-395,-322
-14,-156,-141,85,63,-148,34,-53,-107,-287,-361,-292
-14,-131,-117,73,51,-124,34,-39,-87,-258,-322,-253
-9,-117,-107,63,48,-112,29,-29,-68,-234,-283,-229
-9,-107,-97,58,43,-102,24,-9,-48,-209,-258,-204
0,-92,-92,46,46,-92,19,0,-29,-185,-229,-180
14,-87,-102,36,58,-95,4,0,-34,-146,-200,-161
19,-82,-102,31,61,-92,0,9,-19,-126,-175,-141
24,-73,-97,24,61,-85,-4,9,-19,-107,-156,-122
34,-63,-97,14,65,-80,-9,9,-14,-97,-141,-102
29,-48,-78,9,53,-63,-14,14,4,-73,-126,-82
29,-34,-63,2,46,-48,-19,19,9,-68,-112,-68
24,-29,-53,2,39,-41,-19,24,14,-58,-97,-58
24,-24,-48,0,36,-36,-19,34,19,-48,-82,-53
39,-19,-58,-9,48,-39,-19,29,24,-48,-68,-34
39,-19,-58,-9,48,-39,-24,34,29,-34,-63,-34
39,-14,-53,-12,46,-34,-24,34,29,-24,-53,-24
39,-14,-53,-12,46,-34,-24,34,34,-19,-43,-14
39,-14,-53,-12,46,-34,-29,39,34,-14,-34,-14
43,-4,-48,-19,46,-26,-29,39,34,-14,-34,-9
43,-4,-48,-19,46,-26,-29,39,34,-14,-24,-4
48,-4,-53,-21,51,-29,-29,39,39,-9,-24,0
39,0,-39,-19,39,-19,-29,43,39,0,-24,4
39,0,-39,-19,39,-19,-29,43,39,9,-24,4
34,0,-34,-17,34,-17,-29,48,39,9,-24,4
34,0,-34,-17,34,-17,-29,48,43,9,-19,4
39,-9,-48,-14,43,-29,-29,39,34,0,-19,4
39,-9,-48,-14,43,-29,-29,39,34,0,-19,4
34,-4,-39,-14,36,-21,-29,39,34,0,-19,4
34,-4,-39,-14,36,-21,-29,39,34,0,-19,4
34,-14,-48,-9,41,-31,-29,39,43,14,-9,9
34,-14,-48,-9,41,-31,-29,39,43,14,-9,9
29,-14,-43,-7,36,-29,-29,39,43,9,-9,9
29,-14,-43,-7,36,-29,-29,39,43,9,-4,9
29,-14,-43,-7,36,-29,-29,39,43,4,-14,9
29,-14,-43,-7,36,-29,-29,34,43,4,-14,9
29,-14,-43,-7,36,-29,-29,34,43,4,-14,4
29,-19,-48,-4,39,-34,-29,39,43,0,-14,4
34,-9,-43,-12,39,-26,-29,39,43,0,-14,-4
34,-9,-43,-12,39,-26,-29,34,39,0,-19,-4
34,-9,-43,-12,39,-26,-24,29,39,0,-19,-4
34,-9,-43,-12,39,-26,-24,29,39,0,-24,-9
24,0,-24,-12,24,-12,-24,29,29,0,-24,0
24,0,-24,-12,24,-12,-24,29,29,-4,-24,0
24,-4,-29,-9,26,-17,-24,24,19,-4,-29,0
24,-4,-29,-9,26,-17,-24,24,19,-4,-29,-4
19,-14,-34,-2,26,-24,-24,14,29,-4,-29,4
19,-19,-39,0,29,-29,-24,14,29,-4,-29,4
14,-19,-34,2,24,-26,-24,14,29,-14,-29,4
14,-19,-34,2,24,-26,-24,14,29,-14,-34,0
24,-9,-34,-7,29,-21,-19,24,29,-14,-39,0
24,-9,-34,-7,29,-21,-14,24,29,-14,-39,0
24,-9,-34,-7,29,-21,-14,14,24,-14,-39,-4
24,-9,-34,-7,29,-21,-14,14,19,-19,-43,-4
14,-24,-39,4,26,-31,-24,4,9,-24,-43,-14
14,-24,-39,4,26,-31,-24,4,9,-29,-48,-19
9,-29,-39,9,24,-34,-19,4,4,-29,-48,-19
9,-29,-39,9,24,-34,-19,4,4,-29,-48,-29
9,-19,-29,4,19,-24,-9,0,14,-34,-58,-19
9,-19,-29,4,19,-24,-9,0,14,-34,-58,-14
9,-24,-34,7,21,-29,-14,-4,14,-34,-58,-14
9,-24,-34,7,21,-29,-14,-4,14,-34,-58,-14
9,-34,-43,12,26,-39,-9,4,14,-24,-58,-24
9,-34,-43,12,26,-39,-9,0,4,-29,-63,-24
4,-39,-43,17,24,-41,-9,0,4,-39,-63,-24
4,-39,-43,17,24,-41,-9,0,9,-39,-63,-24
4,-29,-34,12,19,-31,-9,0,9,-39,-53,-24
4,-34,-39,14,21,-36,-9,0,0,-43,-58,-24
0,-34,-34,17,17,-34,-9,-4,0,-48,-63,-34
0,-34,-34,17,17,-34,-9,-4,0,-48,-68,-34
0,-34,-34,17,17,-34,-19,-4,-9,-48,-73,-43
0,-39,-39,19,19,-39,-19,-9,-9,-48,-73,-43
0,-39,-39,19,19,-39,-19,-14,-9,-53,-73,-48
0,-39,-39,19,19,-39,-19,-14,-9,-53,-73,-48
9,-39,-48,14,29,-43,-9,-14,0,-53,-68,-39
9,-39,-48,14,29,-43,-9,-14,0,-58,-68,-39
9,-39,-48,14,29,-43,-9,-14,-4,-63,-68,-39
9,-39,-48,14,29,-43,-4,-14,-4,-63,-63,-43
0,-39,-39,19,19,-39,-4,-24,-14,-63,-68,-53
0,-39,-39,19,19,-39,-9,-19,-14,-58,-73,-53
-4,-39,-34,21,14,-36,-9,-19,-19,-58,-78,-53
-4,-39,-34,21,14,-36,-9,-24,-19,-63,-82,-53
-4,-39,-34,21,14,-36,-9,-19,-9,-58,-78,-53
0,-39,-39,19,19,-39,-9,-24,-9,-58,-78,-48
0,-39,-39,19,19,-39,-4,-24,-9,-58,-78,-43
0,-39,-39,19,19,-39,-4,-24,-9,-58,-78,-43
-4,-58,-53,31,24,-56,-9,-24,-14,-68,-78,-53
-4,-58,-53,31,24,-56,-9,-24,-14,-68,-78,-53
0,-53,-53,26,26,-53,-4,-24,-14,-68,-78,-53
0,-53,-53,26,26,-53,-4,-19,-9,-63,-78,-53
-4,-58,-53,31,24,-56,-4,-19,-9,-63,-78,-43
-4,-58,-53,31,24,-56,-4,-19,-14,-63,-82,-43
-4,-58,-53,31,24,-56,-4,-24,-19,-68,-82,-43
-4,-58,-53,31,24,-56,-4,-24,-19,-68,-82,-43
-4,-58,-53,31,24,-56,-14,-24,-14,-78,-78,-43
-4,-58,-53,31,24,-56,-14,-24,-14,-78,-78,-43
-4,-58,-53,31,24,-56,-19,-24,-9,-73,-78,-43
-4,-58,-53,31,24,-56,-19,-24,-9,-73,-73,-43
-4,-48,-43,26,19,-46,-9,-24,-9,-68,-73,-43
-4,-48,-43,26,19,-46,-9,-19,-9,-68,-73,-43
0,-48,-48,24,24,-48,-4,-19,-9,-68,-73,-43
0,-43,-43,21,21,-43,-4,-19,-9,-68,-78,-43
0,-39,-39,19,19,-39,-9,-19,-9,-68,-78,-43
0,-39,-39,19,19,-39,-9,-19,-4,-63,-78,-43
0,-39,-39,19,19,-39,-9,-19,-4,-58,-78,-39
0,-39,-39,19,19,-39,-9,-19,0,-58,-78,-39
9,-39,-48,14,29,-43,-9,-19,-9,-63,-78,-48
9,-39,-48,14,29,-43,-9,-19,-9,-63,-82,-48
9,-39,-48,14,29,-43,-9,-19,-9,-63,-82,-43
9,-39,-48,14,29,-43,-9,-14,-9,-63,-78,-43
0,-39,-39,19,19,-39,-9,-14,-9,-63,-73,-34
0,-39,-39,19,19,-39,-14,-14,-9,-63,-73,-34
0,-39,-39,19,19,-39,-14,-19,-9,-58,-73,-34
0,-34,-34,17,17,-34,-14,-19,-9,-58,-73,-34
0,-43,-43,21,21,-43,-14,-9,0,-58,-63,-34
0,-43,-43,21,21,-43,-14,-9,0,-58,-63,-34
0,-43,-43,21,21,-43,-14,-9,0,-58,-63,-34
0,-48,-48,24,24,-48,-14,-4,0,-58,-63,-34
-4,-39,-34,21,14,-36,-14,-14,-4,-58,-63,-34
-4,-34,-29,19,12,-31,-14,-14,-4,-58,-63,-34
-4,-34,-29,19,12,-31,-14,-14,-4,-58,-63,-34
-4,-39,-34,21,14,-36,-14,-14,-4,-58,-63,-29
-4,-48,-43,26,19,-46,-14,-14,-4,-58,-58,-29
-4,-48,-43,26,19,-46,-14,-14,-4,-53,-58,-29
0,-48,-48,24,24,-48,-14,-14,0,-53,-58,-29
0,-48,-48,24,24,-48,-19,-14,0,-53,-58,-29
0,-48,-48,24,24,-48,-19,-14,-4,-53,-58,-29
0,-48,-48,24,24,-48,-19,-14,0,-53,-58,-29
0,-48,-48,24,24,-48,-19,-14,0,-53,-58,-29
0,-48,-48,24,24,-48,-19,-14,0,-53,-58,-29
-9,-48,-39,29,14,-43,-19,-14,-4,-53,-58,-29
-4,-48,-43,26,19,-46,-19,-14,-4,-53,-58,-29
-4,-48,-43,26,19,-46,-19,-14,-4,-53,-58,-29
-9,-48,-39,29,14,-43,-19,-14,-4,-48,-53,-29
-14,-58,-43,36,14,-51,-19,-14,-4,-53,-58,-29
-14,-58,-43,36,14,-51,-19,-9,-4,-53,-58,-24
-14,-53,-39,34,12,-46,-19,-9,0,-53,-58,-24
-19,-53,-34,36,7,-43,-19,-9,0,-53,-58,-24
-19,-53,-34,36,7,-43,-29,-14,-4,-63,-63,-24
-19,-53,-34,36,7,-43,-29,-14,-4,-63,-63,-24
-14,-48,-34,31,9,-41,-29,-9,0,-63,-63,-24
-14,-48,-34,31,9,-41,-29,-9,4,-58,-63,-19
-14,-48,-34,31,9,-41,-29,-9,-4,-58,-63,-29
-14,-48,-34,31,9,-41,-24,-9,-4,-58,-63,-29
-14,-48,-34,31,9,-41,-24,-9,-4,-53,-58,-29
-14,-48,-34,31,9,-41,-24,-9,-4,-53,-58,-29
-14,-53,-39,34,12,-46,-24,-9,4,-63,-63,-34
-19,-53,-34,36,7,-43,-34,-9,4,-58,-63,-34
-9,-48,-39,29,14,-43,-29,0,9,-58,-58,-29
-19,-39,-19,29,0,-29,-19,0,9,-58,-58,-29
-19,-39,-19,29,0,-29,-19,0,9,-58,-58,-29
-19,-39,-19,29,0,-29,-19,0,9,-58,-58,-29
-19,-39,-19,29,0,-29,-19,0,9,-58,-58,-29
-4,-39,-34,21,14,-36,-29,-9,9,-43,-53,-29
4,-39,-43,17,24,-41,-29,-4,14,-43,-53,-24
9,-24,-34,7,21,-29,-34,-4,14,-43,-48,-24
14,-19,-34,2,24,-26,-34,4,24,-34,-43,-14
14,-4,-19,-4,17,-12,-14,19,29,-39,-39,-9
14,4,-9,-9,12,-2,-4,29,39,-29,-34,-4
14,4,-9,-9,12,-2,9,34,43,-24,-29,-4
14,9,-4,-12,9,2,9,48,53,-19,-19,0
19,9,-9,-14,14,0,4,39,58,-14,-19,4
24,9,-14,-17,19,-2,4,43,58,-14,-19,4
24,14,-9,-19,17,2,4,48,58,-14,-19,4
29,14,-14,-21,21,0,4,48,63,-9,-14,4
29,9,-19,-19,24,-4,-4,48,63,-9,-14,4
29,9,-19,-19,24,-4,-19,39,53,-14,-14,4
39,9,-29,-24,34,-9,-39,39,53,-14,-14,4
43,9,-34,-26,39,-12,-53,39,48,-14,-14,4
48,0,-48,-24,48,-24,-68,24,39,-14,-14,4
48,-4,-53,-21,51,-29,-82,24,34,-14,-14,4
48,-4,-53,-21,51,-29,-87,24,34,-14,-14,9
53,14,-39,-34,46,-12,-87,24,43,-4,-4,19
53,43,-9,-48,31,17,-92,39,58,9,9,34
63,58,-4,-61,34,26,-92,48,73,24,24,43
68,63,-4,-65,36,29,-82,48,73,24,24,53
68,63,-4,-65,36,29,-82,48,73,19,19,53
68,48,-19,-58,43,14,-82,39,63,19,9,48
68,48,-19,-58,43,14,-78,39,53,9,9,39
68,39,-29,-53,48,4,-78,29,53,4,0,39
68,34,-34,-51,51,0,-87,19,39,-4,-9,34
53,29,-24,-41,39,2,-87,4,29,-14,-9,24
48,14,-34,-31,41,-9,-87,0,19,-24,-9,14
48,0,-48,-24,48,-24,-82,0,14,-24,-19,9
43,-14,-58,-14,51,-36,-82,0,14,-24,-19,9
53,-19,-73,-17,63,-46,-73,14,29,-14,-29,19
53,-19,-73,-17,63,-46,-73,24,29,-14,-29,19
58,-19,-78,-19,68,-48,-73,24,29,-14,-24,19
58,-24,-82,-17,70,-53,-82,24,19,-19,-24,19
58,-39,-97,-9,78,-68,-82,14,14,-24,-34,0
58,-39,-97,-9,78,-68,-82,9,14,-29,-34,0
58,-39,-97,-9,78,-68,-82,4,4,-34,-34,-4
58,-39,-97,-9,78,-68,-87,0,4,-34,-43,-4
58,-39,-97,-9,78,-68,-87,-4,0,-48,-34,-4
58,-43,-102,-7,80,-73,-87,-4,-4,-53,-39,-9
53,-48,-102,-2,78,-75,-87,-14,-9,-58,-48,-14
48,-53,-102,2,75,-78,-82,-14,-14,-68,-53,-19
43,-78,-122,17,82,-100,-82,-19,-19,-63,-68,-29
34,-82,-117,24,75,-100,-78,-24,-24,-68,-82,-39
29,-92,-122,31,75,-107,-78,-24,-29,-78,-82,-43
29,-92,-122,31,75,-107,-78,-29,-29,-78,-87,-43
24,-82,-107,29,65,-95,-68,-43,-34,-87,-78,-43
19,-78,-97,29,58,-87,-63,-48,-34,-87,-78,-39
9,-78,-87,34,48,-82,-58,-48,-34,-87,-78,-39
4,-82,-87,39,46,-85,-53,-48,-34,-92,-82,-43
-4,-82,-78,43,36,-80,-58,-48,-43,-92,-82,-43
-9,-82,-73,46,31,-78,-58,-48,-43,-92,-82,-43
-9,-92,-82,51,36,-87,-53,-48,-43,-92,-87,-53
-14,-107,-92,61,39,-100,-48,-48,-43,-102,-92,-58
-19,-112,-92,65,36,-102,-48,-58,-43,-107,-107,-68
-24,-112,-87,68,31,-100,-48,-58,-48,-112,-112,-73
-29,-117,-87,73,29,-102,-48,-58,-48,-117,-122,-78
-29,-117,-87,73,29,-102,-43,-58,-43,-117,-122,-78
-29,-117,-87,73,29,-102,-43,-58,-53,-117,-117,-73
-29,-117,-87,73,29,-102,-39,-58,-53,-112,-117,-73
-39,-117,-78,78,19,-97,-39,-63,-53,-112,-117,-73
-39,-117,-78,78,19,-97,-39,-63,-53,-117,-122,-78
-34,-107,-73,70,19,-90,-39,-63,-53,-107,-122,-78
-34,-107,-73,70,19,-90,-39,-58,-53,-107,-122,-78
-39,-102,-63,70,12,-82,-39,-58,-53,-107,-122,-78
-39,-102,-63,70,12,-82,-39,-58,-53,-107,-122,-78
-39,-112,-73,75,17,-92,-29,-48,-43,-107,-112,-68
-43,-112,-68,78,12,-90,-24,-48,-43,-107,-112,-68
-43,-112,-68,78,12,-90,-24,-53,-43,-107,-112,-68
-48,-112,-63,80,7,-87,-24,-53,-43,-107,-117,-68
-48,-102,-53,75,2,-78,-24,-43,-43,-107,-117,-78
-48,-112,-63,80,7,-87,-29,-43,-43,-112,-117,-78
-48,-102,-53,75,2,-78,-19,-48,-43,-112,-117,-73
-48,-102,-53,75,2,-78,-19,-43,-34,-102,-117,-73
-48,-112,-63,80,7,-87,-9,-29,-19,-92,-107,-68
-39,-78,-39,58,0,-58,14,19,29,-58,-73,-58
-9,-43,-34,26,12,-39,48,131,122,9,-29,-29
14,-4,-19,-4,17,-12,92,278,253,117,34,24
48,53,4,-51,21,29,151,497,434,283,151,112
117,141,24,-129,46,82,224,795,678,517,336,229
224,253,29,-239,97,141,292,1132,961,785,570,385
331,361,29,-346,151,195,317,1449,1220,1083,829,570
429,488,58,-458,185,273,317,1659,1449,1351,1098,766
512,663,151,-588,180,407,283,1683,1625,1634,1390,1000
551,868,317,-710,117,592,268,1566,1766,1898,1678,1259
551,1078,527,-814,12,802,287,1322,1864,2113,1937,1512
488,1322,834,-905,-173,1078,278,912,1873,2278,2181,1761
385,1610,1224,-997,-419,1417,234,424,1849,2430,2400,2020
273,1942,1668,-1107,-697,1805,161,-9,1834,2586,2625,2283
185,2244,2059,-1215,-936,2152,4,-331,1786,2732,2869,2537
170,2474,2303,-1322,-1066,2388,-292,-585,1659,2849,3108,2776
219,2664,2444,-1442,-1112,2554,-692,-751,1512,2971,3342,3010
292,2791,2498,-1542,-1102,2644,-1132,-858,1366,3093,3552,3225
390,2771,2381,-1581,-995,2576,-1493,-893,1205,3162,3713,3381
478,2649,2171,-1564,-846,2410,-1737,-814,1127,3279,3874,3484
546,2591,2044,-1568,-749,2318,-1844,-590,1234,3547,4157,3669
595,2688,2093,-1642,-749,2391,-1883,-331,1444,3889,4514,3943
610,2806,2196,-1708,-793,2501,-1834,-92,1659,4201,4811,4172
610,2801,2191,-1705,-790,2496,-1727,126,1825,4411,5016,4284
605,2713,2108,-1659,-751,2410,-1620,273,1927,4518,5114,4333
624,2644,2020,-1634,-697,2332,-1546,380,1956,4587,5202,4382
600,2635,2034,-1617,-717,2335,-1444,483,2030,4660,5275,4421
575,2591,2015,-1583,-719,2303,-1337,531,2059,4684,5285,4401
575,2508,1932,-1542,-678,2220,-1273,531,1986,4611,5231,4343
585,2415,1830,-1500,-622,2122,-1215,551,1917,4562,5197,4289
570,2337,1766,-1454,-597,2052,-1117,614,1903,4548,5167,4230
556,2230,1673,-1393,-558,1952,-1015,639,1869,4445,5050,4123
536,2093,1556,-1315,-509,1825,-941,649,1786,4265,4850,3957
527,1947,1420,-1237,-446,1683,-868,649,1698,4050,4596,3757
488,1786,1298,-1137,-405,1542,-800,644,1615,3811,4299,3513
429,1620,1190,-1024,-380,1405,-727,595,1498,3508,3943,3245
375,1459,1083,-917,-353,1271,-653,522,1337,3167,3567,2962
331,1278,946,-805,-307,1112,-585,434,1151,2825,3181,2649
292,1058,766,-675,-236,912,-497,351,966,2449,2762,2303
244,824,580,-534,-168,702,-409,297,790,2054,2308,1903
219,561,341,-390,-61,451,-312,287,629,1649,1815,1459
175,307,131,-241,21,219,-224,278,483,1220,1298,971
107,112,4,-109,51,58,-126,239,346,800,800,546
24,-4,-29,-9,26,-17,-58,175,224,424,375,219
-43,-68,-24,56,-9,-46,-4,112,117,141,58,-4
-73,-102,-29,87,-21,-65,29,63,29,-34,-112,-122
-68,-112,-43,90,-12,-78,43,34,-19,-117,-161,-151
-68,-122,-53,95,-7,-87,58,24,-34,-141,-175,-165
-68,-141,-73,104,2,-107,58,24,-24,-151,-190,-175
-68,-151,-82,109,7,-117,68,24,-19,-156,-195,-175
-73,-151,-78,112,2,-114,68,29,-19,-165,-204,-180
-73,-151,-78,112,2,-114,68,39,-9,-175,-214,-185
-73,-151,-78,112,2,-114,78,58,-9,-180,-219,-185
-78,-156,-78,117,0,-117,78,58,-9,-180,-229,-190
-78,-161,-82,119,2,-122,78,58,-19,-190,-239,-204
-73,-165,-92,119,9,-129,87,58,-24,-190,-239,-214
-63,-170,-107,117,21,-139,92,58,-29,-195,-244,-224
-63,-175,-112,119,24,-143,97,58,-29,-200,-248,-229
-63,-180,-117,122,26,-148,97,58,-24,-204,-263,-234
-68,-180,-112,124,21,-146,97,58,-24,-209,-263,-239
-68,-180,-112,124,21,-146,92,63,-24,-219,-268,-239
-68,-180,-112,124,21,-146,92,63,-24,-224,-273,-239
-68,-180,-112,124,21,-146,92,68,-24,-224,-278,-234
-68,-180,-112,124,21,-146,97,68,-24,-224,-278,-234
-78,-180,-102,129,12,-141,107,68,-24,-219,-268,-244
-73,-180,-107,126,17,-143,107,68,-24,-224,-273,-244
-73,-180,-107,126,17,-143,107,68,-24,-224,-278,-244
-73,-180,-107,126,17,-143,112,68,-24,-224,-278,-244
-63,-180,-117,122,26,-148,112,73,-24,-234,-278,-244
-63,-185,-122,124,29,-153,117,73,-24,-234,-283,-248
-63,-185,-122,124,29,-153,117,82,-24,-239,-283,-248
-63,-185,-122,124,29,-153,117,82,-24,-239,-283,-248
-63,-175,-112,119,24,-143,122,82,-19,-229,-283,-253
-63,-175,-112,119,24,-143,122,87,-19,-229,-283,-253
-63,-175,-112,119,24,-143,122,87,-19,-229,-283,-253
-63,-175,-112,119,24,-143,122,87,-19,-229,-283,-253
-63,-165,-102,114,19,-134,122,78,-14,-229,-292,-253
-58,-165,-107,112,24,-136,122,82,-14,-229,-292,-253
-58,-165,-107,112,24,-136,126,82,-14,-229,-292,-253
-63,-165,-102,114,19,-134,126,82,-14,-229,-297,-253
-53,-175,-122,114,34,-148,122,87,-14,-234,-297,-248
-53,-170,-117,112,31,-143,122,87,-14,-234,-297,-248
-53,-170,-117,112,31,-143,122,87,-14,-234,-297,-248
-48,-170,-122,109,36,-146,122,87,-9,-234,-297,-248
-58,-170,-112,114,26,-141,136,102,0,-244,-287,-248
-58,-170,-112,114,26,-141,136,102,4,-244,-287,-248
-63,-175,-112,119,24,-143,136,107,4,-244,-292,-253
-63,-175,-112,119,24,-143,136,107,4,-244,-292,-253
-53,-175,-122,114,34,-148,141,107,4,-234,-302,-253
-53,-175,-122,114,34,-148,141,112,4,-234,-302,-253
-53,-175,-122,114,34,-148,146,112,4,-234,-302,-253
-53,-175,-122,114,34,-148,146,117,4,-234,-302,-253
-53,-175,-122,114,34,-148,156,117,0,-239,-307,-263
-53,-175,-122,114,34,-148,156,117,0,-239,-307,-263
-53,-180,-126,117,36,-153,156,117,0,-239,-312,-273
-53,-185,-131,119,39,-158,156,122,0,-244,-312,-273
-58,-185,-126,122,34,-156,161,122,0,-244,-302,-263
-58,-185,-126,122,34,-156,161,122,0,-244,-312,-268
-58,-185,-126,122,34,-156,161,122,0,-253,-317,-268
-58,-185,-126,122,34,-156,161,122,0,-258,-317,-278
-68,-185,-117,126,24,-151,175,122,9,-258,-331,-278
-68,-185,-117,126,24,-151,180,122,4,-258,-331,-283
-68,-195,-126,131,29,-161,180,122,4,-263,-336,-287
-68,-200,-131,134,31,-165,180,126,4,-263,-341,-292
-68,-200,-131,134,31,-165,180,126,-4,-268,-346,-297
-68,-200,-131,134,31,-165,180,126,-4,-273,-351,-297
-68,-204,-136,136,34,-170,180,126,-4,-278,-356,-302
-68,-209,-141,139,36,-175,185,126,-4,-283,-361,-307
-68,-214,-146,141,39,-180,190,136,4,-287,-356,-317
-68,-219,-151,143,41,-185,190,136,-4,-302,-366,-322
-63,-224,-161,143,48,-192,195,136,-9,-302,-375,-326
-63,-224,-161,143,48,-192,195,136,-14,-312,-385,-336
-73,-229,-156,151,41,-192,195,136,-29,-312,-395,-346
-78,-234,-156,156,39,-195,209,136,-29,-326,-400,-346
-82,-248,-165,165,41,-207,214,136,-29,-331,-409,-356
-87,-253,-165,170,39,-209,219,136,-29,-346,-419,-366
-87,-258,-170,173,41,-214,219,126,-34,-351,-439,-375
-87,-263,-175,175,43,-219,219,122,-43,-366,-448,-385
-92,-273,-180,183,43,-226,219,112,-48,-380,-463,-395
-97,-278,-180,187,41,-229,229,112,-53,-395,-478,-414
-87,-292,-204,190,58,-248,244,117,-58,-405,-488,-424
-92,-302,-209,197,58,-256,248,112,-68,-419,-502,-439
-97,-312,-214,204,58,-263,253,107,-73,-434,-517,-444
-102,-317,-214,209,56,-265,263,102,-73,-444,-531,-458
-117,-326,-209,222,46,-268,268,97,-87,-448,-556,-478
-122,-341,-219,231,48,-280,273,87,-97,-473,-570,-497
-126,-351,-224,239,48,-287,278,78,-107,-492,-590,-512
-131,-361,-229,246,48,-295,287,78,-117,-507,-610,-531
-136,-366,-229,251,46,-297,292,48,-141,-536,-629,-551
-151,-385,-234,268,41,-309,302,39,-151,-566,-658,-570
-161,-395,-234,278,36,-314,317,29,-165,-585,-678,-585
-161,-414,-253,287,46,-334,317,9,-180,-610,-702,-605
-165,-419,-253,292,43,-336,322,0,-195,-629,-736,-624
-175,-434,-258,305,41,-346,331,-14,-204,-653,-761,-644
-180,-444,-263,312,41,-353,336,-29,-219,-683,-795,-673
-190,-458,-268,324,39,-363,346,-43,-244,-712,-824,-692
-209,-483,-273,346,31,-378,356,-68,-263,-746,-854,-717
-224,-497,-273,361,24,-385,366,-78,-283,-775,-883,-741
-234,-512,-278,373,21,-395,375,-97,-297,-805,-917,-766
-248,-536,-287,392,19,-412,385,-117,-312,-839,-951,-790
-263,-546,-283,405,9,-414,385,-151,-346,-873,-985,-824
-273,-570,-297,422,12,-434,390,-165,-370,-907,-1019,-849
-278,-590,-312,434,17,-451,405,-185,-390,-941,-1054,-878
-297,-605,-307,451,4,-456,414,-209,-409,-976,-1088,-902
-312,-634,-322,473,4,-478,429,-234,-439,-1024,-1132,-936
-326,-649,-322,488,-2,-485,439,-258,-458,-1063,-1171,-971
-341,-668,-326,505,-7,-497,448,-283,-488,-1102,-1205,-1005
-346,-683,-336,514,-4,-509,453,-307,-512,-1137,-1244,-1044
-361,-688,-326,524,-17,-507,453,-331,-546,-1166,-1283,-1063
-375,-712,-336,544,-19,-524,458,-356,-566,-1205,-1322,-1093
-390,-727,-336,558,-26,-531,463,-380,-590,-1244,-1361,-1122
-405,-746,-341,575,-31,-544,473,-409,-614,-1283,-1395,-1146
-419,-775,-356,597,-31,-566,488,-434,-639,-1332,-1434,-1176
-434,-785,-351,610,-41,-568,497,-458,-663,-1361,-1473,-1205
-448,-795,-346,622,-51,-570,502,-488,-692,-1405,-1507,-1234
-458,-810,-351,634,-53,-580,502,-517,-717,-1429,-1537,-1254
-463,-829,-366,646,-48,-597,502,-536,-736,-1454,-1566,-1278
-473,-834,-361,653,-56,-597,507,-556,-751,-1478,-1595,-1293
-483,-844,-361,663,-61,-602,507,-570,-771,-1507,-1625,-1322
-488,-854,-366,671,-61,-610,507,-580,-790,-1537,-1649,-1337
-502,-863,-361,683,-70,-612,497,-600,-790,-1556,-1659,-1342
-507,-868,-361,688,-73,-614,497,-619,-810,-1571,-1673,-1351
-512,-873,-361,692,-75,-617,488,-629,-819,-1581,-1683,-1361
-512,-873,-361,692,-75,-617,483,-644,-824,-1600,-1698,-1371
-502,-863,-361,683,-70,-612,478,-644,-834,-1595,-1712,-1376
-497,-854,-356,675,-70,-605,463,-653,-844,-1600,-1717,-1376
-497,-854,-356,675,-70,-605,458,-653,-844,-1600,-1717,-1376
-488,-854,-366,671,-61,-610,448,-653,-839,-1600,-1712,-1366
-483,-849,-366,666,-58,-607,439,-653,-839,-1586,-1693,-1361
-473,-834,-361,653,-56,-597,429,-649,-829,-1566,-1678,-1351
-458,-824,-366,641,-46,-595,414,-634,-814,-1546,-1659,-1337
-453,-814,-361,634,-46,-588,400,-619,-805,-1527,-1644,-1317
-439,-795,-356,617,-41,-575,385,-600,-785,-1498,-1615,-1293
-419,-775,-356,597,-31,-566,370,-585,-766,-1473,-1590,-1273
-405,-761,-356,583,-24,-558,361,-570,-746,-1444,-1561,-1244
-370,-736,-366,553,-2,-551,346,-546,-727,-1410,-1527,-1224
-351,-712,-361,531,4,-536,331,-527,-697,-1361,-1478,-1180
-346,-697,-351,522,2,-524,317,-502,-673,-1317,-1434,-1151
-336,-673,-336,505,0,-505,302,-473,-639,-1268,-1385,-1117
-322,-649,-326,485,2,-488,287,-448,-614,-1215,-1342,-1083
-292,-614,-322,453,14,-468,273,-414,-580,-1176,-1298,-1039
-283,-590,-307,436,12,-448,263,-385,-541,-1122,-1249,-1000
-258,-561,-302,409,21,-431,244,-361,-517,-1068,-1195,-961
-239,-536,-297,387,29,-417,229,-331,-488,-1015,-1141,-912
-229,-512,-283,370,26,-397,214,-322,-448,-961,-1083,-868
-209,-483,-273,346,31,-378,200,-292,-424,-907,-1024,-824
-195,-458,-263,326,34,-361,190,-258,-385,-844,-966,-775
-180,-434,-253,307,36,-344,175,-239,-351,-785,-907,-722
-161,-400,-239,280,39,-319,151,-214,-331,-736,-849,-683
-141,-370,-229,256,43,-300,136,-185,-297,-678,-795,-634
-122,-336,-214,229,46,-275,122,-161,-268,-629,-741,-585
-102,-312,-209,207,53,-261,107,-146,-239,-575,-688,-546
-87,-297,-209,192,61,-253,102,-136,-219,-531,-634,-512
-78,-273,-195,175,58,-234,87,-117,-195,-483,-575,-463
-68,-248,-180,158,56,-214,73,-97,-165,-444,-527,-419
-68,-224,-156,146,43,-190,68,-87,-151,-395,-478,-385
-48,-200,-151,124,51,-175,48,-68,-131,-361,-434,-346
-39,-185,-146,112,53,-165,39,-48,-112,-317,-390,-307
-24,-165,-141,95,58,-153,24,-39,-97,-283,-351,-273
-14,-156,-141,85,63,-148,14,-34,-87,-248,-322,-244
-4,-131,-126,68,61,-129,14,-24,-82,-219,-292,-214
0,-117,-117,58,58,-117,9,-19,-68,-195,-253,-190
0,-107,-107,53,53,-107,4,-4,-53,-170,-229,-165
9,-92,-102,41,56,-97,0,0,-39,-146,-200,-141
4,-68,-73,31,39,-70,-4,0,-34,-126,-180,-131
9,-63,-73,26,41,-68,-9,9,-19,-107,-156,-112
14,-53,-68,19,41,-61,-14,9,-19,-87,-136,-92
24,-43,-68,9,46,-56,-19,9,-14,-78,-122,-73
29,-39,-68,4,48,-53,-34,19,-4,-53,-107,-63
29,-24,-53,-2,41,-39,-39,19,0,-48,-92,-48
24,-19,-43,-2,34,-31,-39,19,4,-39,-78,-39
24,-14,-39,-4,31,-26,-39,24,9,-29,-63,-34
39,-19,-58,-9,48,-39,-29,19,14,-24,-58,-24
39,-19,-58,-9,48,-39,-34,24,19,-14,-53,-24
39,-14,-53,-12,46,-34,-34,24,19,-9,-43,-14
39,-14,-53,-12,46,-34,-34,24,24,-9,-34,-4
34,-24,-58,-4,46,-41,-39,29,24,4,-24,-4
34,-14,-48,-9,41,-31,-39,29,24,4,-24,0
29,-14,-43,-7,36,-29,-39,29,24,4,-14,4
29,-14,-43,-7,36,-29,-39,29,29,9,-14,9
39,-9,-48,-14,43,-29,-39,34,19,0,-14,14
39,-9,-48,-14,43,-29,-39,34,19,9,-14,14
34,-9,-43,-12,39,-26,-39,39,19,9,-14,14
34,-9,-43,-12,39,-26,-39,39,24,9,-9,14
39,0,-39,-19,39,-19,-48,29,24,19,-9,14
39,0,-39,-19,39,-19,-48,29,24,19,-9,14
34,4,-29,-19,31,-12,-48,29,24,19,-9,14
34,4,-29,-19,31,-12,-48,29,24,19,-9,14
43,4,-39,-24,41,-17,-39,29,24,14,-9,19
43,4,-39,-24,41,-17,-39,29,24,14,-9,19
39,4,-34,-21,36,-14,-39,29,24,9,-9,19
39,4,-34,-21,36,-14,-39,29,24,9,-4,19
29,4,-24,-17,26,-9,-39,29,24,14,-4,19
29,4,-24,-17,26,-9,-39,24,24,14,-4,19
29,4,-24,-17,26,-9,-39,24,24,14,-4,14
29,0,-29,-14,29,-14,-39,29,24,9,-4,14
24,0,-24,-12,24,-12,-39,39,34,9,4,14
24,0,-24,-12,24,-12,-39,34,29,9,0,14
24,0,-24,-12,24,-12,-34,29,29,9,0,14
24,0,-24,-12,24,-12,-34,29,29,9,-4,9
24,0,-24,-12,24,-12,-34,19,19,9,-14,9
24,0,-24,-12,24,-12,-34,19,19,4,-14,9
24,-4,-29,-9,26,-17,-34,14,9,4,-19,9
24,-4,-29,-9,26,-17,-34,14,9,4,-19,4
19,-4,-24,-7,21,-14,-34,24,9,4,-19,4
19,-9,-29,-4,24,-19,-34,24,9,4,-19,4
14,-9,-24,-2,19,-17,-34,24,9,-4,-19,4
14,-9,-24,-2,19,-17,-34,24,9,-4,-24,0
14,-9,-24,-2,19,-17,-29,14,9,-4,-19,0
14,-9,-24,-2,19,-17,-24,14,9,-4,-19,0
14,-9,-24,-2,19,-17,-24,4,4,-4,-19,-4
14,-9,-24,-2,19,-17,-24,4,0,-9,-24,-4
14,-14,-29,0,21,-21,-34,4,0,-14,-34,-4
14,-14,-29,0,21,-21,-34,4,0,-19,-39,-9
9,-19,-29,4,19,-24,-29,4,-4,-19,-39,-9
9,-19,-29,4,19,-24,-29,4,-4,-19,-39,-19
19,-19,-39,0,29,-29,-29,0,-14,-34,-39,-19
19,-19,-39,0,29,-29,-29,0,-14,-34,-39,-14
19,-24,-43,2,31,-34,-34,-4,-14,-34,-39,-14
19,-24,-43,2,31,-34,-34,-4,-14,-34,-39,-14
19,-24,-43,2,31,-34,-29,-4,-4,-24,-48,-24
19,-24,-43,2,31,-34,-29,-9,-14,-29,-53,-24
14,-29,-43,7,29,-36,-29,-9,-14,-39,-53,-24
14,-29,-43,7,29,-36,-29,-9,-9,-39,-53,-24
4,-29,-34,12,19,-31,-19,0,-9,-29,-43,-24
4,-34,-39,14,21,-36,-19,0,-19,-34,-48,-24
0,-34,-34,17,17,-34,-19,-4,-19,-39,-53,-34
0,-34,-34,17,17,-34,-19,-4,-19,-39,-58,-34
9,-34,-43,12,26,-39,-19,-4,-19,-39,-63,-34
9,-39,-48,14,29,-43,-19,-9,-19,-39,-63,-34
9,-39,-48,14,29,-43,-19,-14,-19,-43,-63,-39
9,-39,-48,14,29,-43,-19,-14,-19,-43,-63,-39
9,-39,-48,14,29,-43,-19,-14,-24,-43,-68,-39
9,-39,-48,14,29,-43,-19,-14,-29,-48,-68,-39
9,-39,-48,14,29,-43,-19,-14,-39,-53,-68,-39
9,-39,-48,14,29,-43,-14,-14,-43,-53,-63,-43
9,-39,-48,14,29,-43,-14,-14,-34,-63,-63,-43
9,-39,-48,14,29,-43,-19,-9,-34,-58,-63,-43
4,-39,-43,17,24,-41,-19,-9,-39,-58,-63,-43
4,-39,-43,17,24,-41,-19,-14,-39,-63,-63,-43
-4,-39,-34,21,14,-36,-29,-9,-48,-58,-78,-48
0,-39,-39,19,19,-39,-29,-14,-48,-58,-78,-48
0,-39,-39,19,19,-39,-24,-14,-48,-58,-78,-48
0,-39,-39,19,19,-39,-24,-14,-48,-58,-78,-53
4,-48,-53,21,29,-51,-29,-24,-53,-68,-78,-53
4,-48,-53,21,29,-51,-29,-24,-53,-68,-78,-53
9,-43,-53,17,31,-48,-24,-24,-53,-68,-78,-53
9,-43,-53,17,31,-48,-24,-19,-48,-63,-78,-53
4,-39,-43,17,24,-41,-24,-19,-39,-63,-78,-53
4,-39,-43,17,24,-41,-24,-19,-43,-63,-82,-53
4,-39,-43,17,24,-41,-24,-24,-48,-68,-82,-53
4,-39,-43,17,24,-41,-24,-24,-48,-68,-82,-53
14,-39,-53,12,34,-46,-24,-24,-53,-68,-68,-53
14,-39,-53,12,34,-46,-24,-24,-53,-68,-68,-53
14,-39,-53,12,34,-46,-29,-24,-48,-63,-68,-53
14,-39,-53,12,34,-46,-29,-24,-48,-63,-63,-53
4,-39,-43,17,24,-41,-29,-24,-48,-68,-73,-53
4,-39,-43,17,24,-41,-29,-19,-48,-68,-73,-53
9,-39,-48,14,29,-43,-24,-19,-48,-68,-73,-53
9,-34,-43,12,26,-39,-24,-19,-48,-68,-78,-53
9,-39,-48,14,29,-43,-29,-29,-58,-68,-68,-53
9,-39,-48,14,29,-43,-29,-29,-53,-63,-68,-53
9,-39,-48,14,29,-43,-29,-29,-53,-58,-68,-48
9,-39,-48,14,29,-43,-29,-29,-48,-58,-68,-48
9,-29,-39,9,24,-34,-29,-29,-58,-73,-78,-58
9,-29,-39,9,24,-34,-29,-29,-58,-73,-82,-58
9,-29,-39,9,24,-34,-29,-29,-58,-73,-82,-53
9,-29,-39,9,24,-34,-29,-24,-58,-73,-78,-53
0,-39,-39,19,19,-39,-29,-14,-58,-63,-73,-43
0,-39,-39,19,19,-39,-34,-14,-58,-63,-73,-43
0,-39,-39,19,19,-39,-34,-19,-58,-58,-73,-43
0,-34,-34,17,17,-34,-34,-19,-58,-58,-73,-43
9,-34,-43,12,26,-39,-34,-19,-58,-58,-63,-53
9,-34,-43,12,26,-39,-34,-19,-58,-58,-63,-53
9,-34,-43,12,26,-39,-34,-19,-58,-58,-63,-53
9,-39,-48,14,29,-43,-34,-14,-58,-58,-63,-53
14,-29,-43,7,29,-36,-34,-14,-63,-68,-63,-43
14,-24,-39,4,26,-31,-34,-14,-63,-68,-63,-43
14,-24,-39,4,26,-31,-34,-14,-63,-68,-63,-43
14,-29,-43,7,29,-36,-34,-14,-63,-68,-63,-39
4,-29,-34,12,19,-31,-34,-24,-63,-68,-58,-48
4,-29,-34,12,19,-31,-34,-24,-63,-63,-58,-48
9,-29,-39,9,24,-34,-34,-24,-58,-63,-58,-48
9,-29,-39,9,24,-34,-39,-24,-58,-63,-58,-48
9,-29,-39,9,24,-34,-39,-24,-63,-53,-58,-39
9,-29,-39,9,24,-34,-39,-24,-58,-53,-58,-39
9,-29,-39,9,24,-34,-39,-24,-58,-53,-58,-39
9,-29,-39,9,24,-34,-39,-24,-58,-53,-58,-39
9,-29,-39,9,24,-34,-39,-24,-63,-63,-58,-39
14,-29,-43,7,29,-36,-39,-24,-63,-63,-58,-39
14,-29,-43,7,29,-36,-39,-24,-63,-63,-58,-39
9,-29,-39,9,24,-34,-39,-24,-63,-58,-53,-39
9,-29,-39,9,24,-34,-39,-24,-63,-53,-48,-39
14,-29,-43,7,29,-36,-39,-19,-63,-53,-48,-34
19,-24,-43,2,31,-34,-39,-19,-58,-53,-48,-34
19,-24,-43,2,31,-34,-39,-19,-58,-53,-48,-34
19,-34,-53,7,36,-43,-39,-34,-63,-63,-63,-43
19,-34,-53,7,36,-43,-39,-34,-63,-63,-63,-43
24,-29,-53,2,39,-41,-39,-29,-58,-63,-63,-43
24,-29,-53,2,39,-41,-39,-29,-53,-58,-63,-39
14,-29,-43,7,29,-36,-39,-19,-63,-68,-63,-39
14,-29,-43,7,29,-36,-34,-19,-63,-68,-63,-39
14,-29,-43,7,29,-36,-34,-19,-63,-63,-58,-39
14,-29,-43,7,29,-36,-34,-19,-63,-63,-58,-39
14,-24,-39,4,26,-31,-34,-29,-63,-63,-53,-34
19,-24,-43,2,31,-34,-34,-29,-63,-58,-53,-34
19,-19,-39,0,29,-29,-34,-24,-63,-58,-53,-34
14,-19,-34,2,24,-26,-34,-24,-63,-58,-48,-34
14,-19,-34,2,24,-26,-34,-14,-63,-58,-58,-34
19,-24,-43,2,31,-34,-34,-14,-63,-58,-58,-34
24,-29,-53,2,39,-41,-34,-14,-63,-58,-58,-34
24,-34,-58,4,41,-46,-39,-9,-68,-53,-48,-29
19,-34,-53,7,36,-43,-39,-19,-68,-58,-58,-39
14,-34,-48,9,31,-41,-39,-19,-63,-58,-63,-34
14,-29,-43,7,29,-36,-43,-24,-58,-53,-63,-24
14,-29,-43,7,29,-36,-48,-24,-58,-53,-58,-19
14,-34,-48,9,31,-41,-39,-24,-58,-63,-63,-24
14,-34,-48,9,31,-41,-39,-19,-63,-58,-58,-29
14,-29,-43,7,29,-36,-39,-19,-63,-58,-58,-34
14,-29,-43,7,29,-36,-39,-19,-58,-58,-58,-43
19,-29,-48,4,34,-39,-39,-24,-58,-63,-53,-43
19,-29,-48,4,34,-39,-39,-19,-63,-68,-53,-43
19,-29,-48,4,34,-39,-34,-19,-68,-68,-53,-43
24,-24,-48,0,36,-36,-34,-19,-73,-63,-53,-43
24,-29,-53,2,39,-41,-34,-19,-63,-63,-58,-43
24,-29,-53,2,39,-41,-34,-14,-63,-63,-58,-39
24,-29,-53,2,39,-41,-39,-14,-73,-63,-63,-39
24,-29,-53,2,39,-41,-39,-14,-73,-63,-63,-39
14,-34,-48,9,31,-41,-43,-19,-73,-68,-63,-43
19,-34,-53,7,36,-43,-53,-19,-73,-68,-63,-43
24,-34,-58,4,41,-46,-53,-19,-73,-68,-63,-43
24,-29,-53,2,39,-41,-53,-19,-73,-68,-63,-43
19,-39,-58,9,39,-48,-43,-29,-78,-73,-73,-39
14,-39,-53,12,34,-46,-43,-24,-73,-73,-68,-39
19,-39,-58,9,39,-48,-43,-19,-68,-68,-63,-34
14,-39,-53,12,34,-46,-43,-14,-63,-68,-63,-34
14,-39,-53,12,34,-46,-34,-19,-68,-68,-68,-43
14,-39,-53,12,34,-46,-39,-19,-68,-68,-68,-43
14,-34,-48,9,31,-41,-43,-24,-78,-68,-68,-43
14,-34,-48,9,31,-41,-43,-29,-78,-68,-73,-48
14,-34,-48,9,31,-41,-43,-19,-68,-68,-73,-39
14,-34,-48,9,31,-41,-43,-19,-73,-68,-63,-39
4,-34,-39,14,21,-36,-43,-19,-68,-68,-68,-43
14,-39,-53,12,34,-46,-43,-14,-73,-73,-68,-39
19,-39,-58,9,39,-48,-48,-19,-78,-68,-58,-39
9,-39,-48,14,29,-43,-39,-19,-68,-68,-58,-39
9,-39,-48,14,29,-43,-39,-19,-68,-68,-58,-39
9,-39,-48,14,29,-43,-39,-19,-68,-68,-58,-39
9,-39,-48,14,29,-43,-39,-19,-68,-68,-58,-39
19,-29,-48,4,34,-39,-39,-19,-68,-68,-68,-39
19,-29,-48,4,34,-39,-39,-19,-68,-68,-68,-39
19,-29,-48,4,34,-39,-39,-19,-68,-68,-68,-39
19,-29,-48,4,34,-39,-39,-19,-68,-68,-68,-39
29,-19,-48,-4,39,-34,-39,-9,-68,-68,-58,-39
29,-19,-48,-4,39,-34,-39,-9,-68,-68,-58,-39
34,-19,-53,-7,43,-36,-39,-9,-68,-63,-53,-39
43,-19,-63,-12,53,-41,-39,-4,-63,-63,-53,-34
58,-4,-63,-26,61,-34,-43,4,-53,-53,-48,-24
63,0,-63,-31,63,-31,-43,14,-43,-43,-43,-14
63,14,-48,-39,56,-17,-34,19,-39,-39,-39,-9
63,24,-39,-43,51,-7,-24,29,-29,-29,-34,-4
63,14,-48,-39,56,-17,0,24,-34,-24,-39,-14
63,19,-43,-41,53,-12,0,39,-24,-19,-29,-9
68,19,-48,-43,58,-14,4,39,-19,-14,-29,-4
73,19,-53,-46,63,-17,4,43,-19,-14,-29,-4
63,24,-39,-43,51,-7,4,58,-19,-14,-19,-4
68,24,-43,-46,56,-9,4,58,-14,-9,-14,-4
68,19,-48,-43,58,-14,-4,58,-14,-9,-14,-4
68,19,-48,-43,58,-14,-19,48,-24,-14,-14,-4
87,29,-58,-58,73,-14,-48,48,-14,-24,-14,-4
92,29,-63,-61,78,-17,-63,48,-19,-24,-14,-4
97,29,-68,-63,82,-19,-78,43,-19,-24,-14,-4
97,24,-73,-61,85,-24,-92,43,-24,-24,-14,-4
107,24,-82,-65,95,-29,-97,34,-34,-24,-14,0
112,43,-68,-78,90,-12,-97,34,-24,-14,-4,9
112,63,-48,-87,80,7,-102,39,-19,0,9,24
122,78,-43,-100,82,17,-102,48,-4,14,24,34
117,73,-43,-95,80,14,-82,58,-4,14,14,43
117,73,-43,-95,80,14,-82,58,-4,9,9,43
117,68,-48,-92,82,9,-82,58,-4,9,9,39
117,68,-48,-92,82,9,-78,58,-14,0,9,29
107,48,-58,-78,82,-4,-87,43,-24,-14,-9,19
107,43,-63,-75,85,-9,-97,29,-39,-24,-19,14
102,29,-73,-65,87,-21,-97,9,-48,-34,-29,4
97,14,-82,-56,90,-34,-97,0,-58,-43,-29,-4
97,-9,-107,-43,102,-58,-82,0,-63,-53,-39,-9
92,-24,-117,-34,104,-70,-82,0,-63,-53,-39,-9
92,-29,-122,-31,107,-75,-73,4,-58,-53,-39,-9
92,-29,-122,-31,107,-75,-73,14,-58,-53,-39,-9
97,-24,-122,-36,109,-73,-82,14,-68,-43,-34,-9
97,-24,-122,-36,109,-73,-92,14,-78,-48,-34,-9
97,-24,-122,-36,109,-73,-92,4,-82,-53,-43,-19
97,-19,-117,-39,107,-68,-92,0,-82,-58,-43,-19
97,-19,-117,-39,107,-68,-92,-4,-92,-63,-43,-14
97,-19,-117,-39,107,-68,-97,-9,-92,-63,-53,-14
97,-19,-117,-39,107,-68,-97,-14,-97,-68,-53,-14
97,-24,-122,-36,109,-73,-97,-14,-102,-73,-58,-19
92,-29,-122,-31,107,-75,-87,-14,-97,-78,-68,-24
87,-34,-122,-26,104,-78,-82,-14,-102,-87,-73,-29
82,-48,-131,-17,107,-90,-82,-19,-107,-92,-78,-39
73,-53,-126,-9,100,-90,-78,-24,-112,-97,-92,-48
68,-63,-131,-2,100,-97,-78,-34,-117,-107,-92,-63
68,-63,-131,-2,100,-97,-78,-39,-117,-107,-97,-63
63,-63,-126,0,95,-95,-78,-43,-122,-107,-97,-63
58,-58,-117,0,87,-87,-73,-48,-122,-107,-97,-58
48,-58,-107,4,78,-82,-68,-48,-122,-107,-97,-58
43,-63,-107,9,75,-85,-63,-48,-122,-112,-102,-63
34,-63,-97,14,65,-80,-58,-48,-122,-112,-102,-63
29,-63,-92,17,61,-78,-58,-48,-122,-112,-102,-63
29,-63,-92,17,61,-78,-63,-48,-122,-112,-107,-73
24,-78,-102,26,63,-90,-58,-48,-122,-122,-112,-78
19,-82,-102,31,61,-92,-58,-58,-131,-126,-117,-87
14,-82,-97,34,56,-90,-58,-58,-136,-131,-122,-92
0,-97,-97,48,48,-97,-48,-58,-136,-136,-122,-97
0,-97,-97,48,48,-97,-43,-58,-131,-136,-122,-97
0,-97,-97,48,48,-97,-43,-58,-131,-136,-117,-92
0,-97,-97,48,48,-97,-39,-58,-131,-131,-117,-92
-9,-97,-87,53,39,-92,-48,-63,-141,-141,-117,-92
-9,-97,-87,53,39,-92,-48,-63,-141,-146,-122,-97
-4,-97,-92,51,43,-95,-48,-63,-141,-146,-122,-97
-4,-97,-92,51,43,-95,-48,-58,-141,-146,-122,-97
-9,-92,-82,51,36,-87,-39,-58,-131,-136,-131,-87
-9,-92,-82,51,36,-87,-39,-58,-131,-136,-131,-87
-9,-92,-82,51,36,-87,-39,-58,-131,-136,-131,-87
-14,-92,-78,53,31,-85,-34,-58,-131,-136,-131,-87
-14,-82,-68,48,26,-75,-34,-63,-131,-136,-131,-97
-19,-82,-63,51,21,-73,-34,-63,-131,-136,-136,-97
-19,-82,-63,51,21,-73,-34,-63,-131,-136,-136,-97
-19,-82,-63,51,21,-73,-29,-63,-131,-141,-136,-97
-9,-82,-73,46,31,-78,-39,-58,-131,-141,-136,-102
-9,-82,-73,46,31,-78,-29,-53,-122,-141,-126,-112
0,-63,-63,31,31,-63,-9,-19,-87,-112,-117,-87
9,-39,-48,14,29,-43,14,48,-29,-58,-82,-58
19,-4,-24,-7,21,-14,48,161,73,29,-29,-19
43,34,-9,-39,26,12,102,336,204,136,63,34
87,92,4,-90,41,48,170,575,395,302,200,112
175,190,14,-183,80,102,244,883,658,536,395,248
292,302,9,-297,141,156,302,1220,922,814,619,414
419,409,-9,-414,214,200,317,1498,1161,1093,858,590
517,546,29,-531,244,287,287,1649,1351,1361,1117,795
590,732,141,-661,224,436,244,1644,1517,1625,1410,1029
619,927,307,-773,156,617,258,1507,1659,1878,1698,1288
590,1137,546,-863,21,841,297,1234,1737,2074,1947,1532
497,1390,893,-944,-197,1141,297,814,1766,2239,2171,1771
385,1678,1293,-1032,-453,1485,263,346,1761,2381,2400,2020
273,2000,1727,-1137,-727,1864,180,-48,1766,2537,2635,2283
204,2283,2078,-1244,-936,2181,-4,-341,1708,2693,2869,2537
219,2493,2274,-1356,-1027,2383,-341,-556,1581,2830,3098,2776
278,2674,2396,-1476,-1058,2535,-761,-712,1434,2952,3313,3010
351,2762,2410,-1556,-1029,2586,-1190,-800,1278,3035,3503,3196
448,2693,2244,-1571,-897,2469,-1532,-814,1117,3093,3655,3323
536,2571,2034,-1554,-749,2303,-1737,-688,1098,3240,3855,3445
585,2601,2015,-1593,-714,2308,-1825,-453,1254,3538,4167,3669
614,2727,2113,-1671,-749,2420,-1834,-195,1483,3889,4523,3943
639,2815,2176,-1727,-768,2496,-1766,53,1698,4182,4792,4143
649,2801,2152,-1725,-751,2476,-1659,253,1844,4362,4948,4245
653,2723,2069,-1688,-707,2396,-1571,390,1917,4460,5036,4284
644,2664,2020,-1654,-688,2342,-1478,488,1947,4518,5124,4323
619,2644,2025,-1632,-702,2335,-1366,570,2020,4592,5187,4352
605,2601,1995,-1603,-695,2298,-1268,610,2020,4587,5177,4313
605,2518,1912,-1561,-653,2215,-1215,600,1947,4504,5124,4255
605,2425,1820,-1515,-607,2122,-1156,629,1908,4474,5099,4201
580,2327,1747,-1454,-583,2037,-1058,683,1893,4431,5050,4133
546,2210,1664,-1378,-558,1937,-976,697,1849,4309,4884,4006
536,2074,1537,-1305,-500,1805,-893,707,1766,4118,4655,3830
517,1908,1390,-1212,-436,1649,-829,707,1659,3904,4401,3611
478,1737,1259,-1107,-390,1498,-761,683,1556,3635,4084,3367
419,1571,1151,-995,-366,1361,-668,624,1420,3323,3728,3089
356,1400,1044,-878,-344,1222,-595,561,1259,2981,3352,2786
322,1200,878,-761,-278,1039,-527,463,1063,2630,2957,2454
292,980,688,-636,-197,834,-458,390,878,2244,2508,2078
263,736,473,-500,-104,605,-370,356,712,1849,2044,1668
229,483,253,-356,-12,368,-273,336,561,1444,1551,1215
175,248,73,-212,51,161,-195,297,395,1015,1034,756
97,63,-34,-80,65,14,-126,229,219,595,566,370
24,-24,-48,0,36,-36,-29,156,87,268,209,102
-24,-68,-43,46,9,-56,24,92,0,34,-19,-73
-43,-102,-58,73,7,-80,29,24,-78,-102,-141,-151
-58,-112,-53,85,-2,-82,43,4,-117,-165,-180,-170
-58,-122,-63,90,2,-92,48,4,-122,-180,-195,-175
-58,-141,-82,100,12,-112,48,4,-122,-180,-209,-185
-58,-151,-92,104,17,-122,58,4,-117,-185,-214,-185
-63,-151,-87,107,12,-119,58,9,-117,-195,-224,-190
-63,-151,-87,107,12,-119,58,19,-107,-204,-234,-195
-53,-151,-97,102,21,-124,68,39,-107,-209,-239,-204
-58,-156,-97,107,19,-126,68,39,-107,-209,-248,-209
-58,-161,-102,109,21,-131,68,39,-117,-219,-258,-224
-53,-165,-112,109,29,-139,78,39,-122,-219,-258,-234
-63,-170,-107,117,21,-139,82,39,-126,-224,-263,-224
-63,-175,-112,119,24,-143,87,39,-126,-229,-268,-229
-63,-180,-117,122,26,-148,87,39,-122,-234,-283,-234
-68,-180,-112,124,21,-146,87,39,-122,-239,-283,-239
-58,-190,-131,124,36,-161,92,43,-131,-248,-287,-244
-58,-190,-131,124,36,-161,92,43,-131,-253,-292,-248
-58,-190,-131,124,36,-161,92,48,-131,-253,-297,-248
-58,-190,-131,124,36,-161,97,48,-131,-253,-297,-253
-58,-190,-131,124,36,-161,87,39,-131,-258,-297,-263
-53,-190,-136,122,41,-163,87,39,-131,-263,-302,-263
-53,-190,-136,122,41,-163,87,39,-131,-263,-307,-263
-53,-190,-136,122,41,-163,92,39,-131,-263,-307,-263
-53,-190,-136,122,41,-163,92,43,-131,-263,-297,-253
-53,-195,-141,124,43,-168,97,43,-131,-263,-302,-258
-53,-195,-141,124,43,-168,97,53,-131,-268,-302,-258
-53,-195,-141,124,43,-168,97,53,-131,-268,-302,-258
-53,-195,-141,124,43,-168,102,53,-126,-278,-312,-273
-53,-195,-141,124,43,-168,102,58,-126,-278,-312,-273
-53,-195,-141,124,43,-168,102,58,-126,-278,-312,-273
-53,-195,-141,124,43,-168,102,58,-126,-278,-312,-273
-53,-195,-141,124,43,-168,102,68,-122,-278,-312,-273
-48,-195,-146,122,48,-170,102,73,-122,-278,-312,-273
-48,-195,-146,122,48,-170,107,73,-122,-278,-312,-273
-53,-195,-141,124,43,-168,107,73,-122,-278,-317,-273
-53,-204,-151,129,48,-178,112,78,-112,-273,-317,-278
-53,-200,-146,126,46,-173,112,78,-112,-273,-317,-278
-53,-200,-146,126,46,-173,112,78,-112,-273,-317,-278
-48,-200,-151,124,51,-175,112,78,-107,-273,-317,-278
-48,-200,-151,124,51,-175,117,73,-117,-273,-317,-278
-48,-200,-151,124,51,-175,117,73,-112,-273,-317,-278
-53,-204,-151,129,48,-178,117,78,-112,-273,-322,-283
-53,-204,-151,129,48,-178,117,78,-112,-273,-322,-283
-53,-195,-141,124,43,-168,131,87,-102,-273,-322,-283
-53,-195,-141,124,43,-168,131,92,-102,-273,-322,-283
-53,-195,-141,124,43,-168,136,92,-102,-273,-322,-283
-53,-195,-141,124,43,-168,136,97,-102,-273,-322,-283
-63,-204,-141,134,39,-173,136,97,-107,-278,-326,-283
-63,-204,-141,134,39,-173,136,97,-107,-278,-326,-283
-63,-209,-146,136,41,-178,136,97,-107,-278,-331,-292
-63,-214,-151,139,43,-183,136,102,-107,-283,-331,-292
-58,-214,-156,136,48,-185,151,102,-97,-283,-331,-292
-58,-214,-156,136,48,-185,151,102,-97,-283,-341,-297
-58,-214,-156,136,48,-185,151,102,-97,-292,-346,-297
-58,-214,-156,136,48,-185,151,102,-97,-297,-346,-307
-48,-214,-165,131,58,-190,156,102,-107,-287,-351,-307
-48,-214,-165,131,58,-190,161,102,-112,-287,-351,-312
-48,-224,-175,136,63,-200,161,102,-112,-292,-356,-317
-48,-229,-180,139,65,-204,161,107,-112,-292,-361,-322
-58,-229,-170,143,56,-200,161,117,-122,-307,-366,-326
-58,-229,-170,143,56,-200,161,117,-122,-312,-370,-326
-58,-234,-175,146,58,-204,161,117,-122,-317,-375,-331
-58,-239,-180,148,61,-209,165,117,-122,-322,-380,-336
-68,-244,-175,156,53,-209,170,107,-112,-317,-385,-346
-68,-248,-180,158,56,-214,170,107,-122,-331,-395,-351
-63,-253,-190,158,63,-222,175,107,-126,-331,-405,-356
-63,-253,-190,158,63,-222,175,107,-131,-341,-414,-366
-63,-268,-204,165,70,-236,185,107,-126,-351,-424,-375
-68,-273,-204,170,68,-239,200,107,-126,-366,-429,-375
-73,-287,-214,180,70,-251,204,107,-126,-370,-439,-385
-78,-292,-214,185,68,-253,209,107,-126,-385,-448,-395
-78,-287,-209,183,65,-248,200,107,-141,-380,-448,-405
-78,-292,-214,185,68,-253,200,102,-151,-395,-458,-414
-82,-302,-219,192,68,-261,200,92,-156,-409,-473,-424
-87,-307,-219,197,65,-263,209,92,-161,-424,-488,-444
-87,-312,-224,200,68,-268,214,97,-170,-424,-497,-453
-92,-322,-229,207,68,-275,219,92,-175,-439,-512,-468
-97,-331,-234,214,68,-283,224,87,-175,-453,-527,-473
-102,-336,-234,219,65,-285,234,82,-170,-463,-541,-488
-107,-346,-239,226,65,-292,239,78,-195,-488,-566,-497
-112,-361,-248,236,68,-305,244,68,-204,-512,-580,-517
-117,-370,-253,244,68,-312,248,58,-214,-531,-600,-531
-122,-380,-258,251,68,-319,258,58,-224,-546,-619,-551
-126,-395,-268,261,70,-331,263,48,-229,-556,-639,-570
-141,-414,-273,278,65,-344,273,39,-239,-585,-668,-590
-151,-424,-273,287,61,-348,287,29,-253,-605,-688,-605
-151,-444,-292,297,70,-368,287,9,-268,-629,-712,-624
-156,-453,-297,305,70,-375,292,9,-283,-639,-727,-644
-165,-463,-297,314,65,-380,302,-4,-292,-663,-751,-663
-170,-468,-297,319,63,-383,307,-19,-307,-692,-785,-692
-180,-478,-297,329,58,-387,317,-34,-331,-722,-814,-712
-200,-502,-302,351,51,-402,326,-58,-341,-746,-834,-736
-214,-517,-302,366,43,-409,336,-68,-361,-775,-863,-761
-224,-531,-307,378,41,-419,346,-87,-375,-805,-897,-785
-239,-556,-317,397,39,-436,356,-107,-390,-839,-932,-810
-244,-556,-312,400,34,-434,366,-122,-405,-863,-966,-834
-253,-580,-326,417,36,-453,370,-136,-429,-897,-1000,-858
-258,-600,-341,429,41,-470,385,-156,-448,-932,-1034,-888
-278,-614,-336,446,29,-475,395,-180,-468,-966,-1068,-912
-302,-634,-331,468,14,-483,400,-195,-488,-995,-1102,-941
-317,-649,-331,483,7,-490,409,-219,-507,-1034,-1141,-971
-331,-668,-336,500,2,-502,419,-244,-536,-1073,-1176,-1000
-336,-683,-346,509,4,-514,424,-268,-561,-1107,-1215,-1034
-341,-697,-356,519,7,-527,439,-283,-575,-1146,-1244,-1054
-356,-722,-366,539,4,-544,448,-307,-595,-1185,-1283,-1083
-370,-736,-366,553,-2,-551,458,-331,-619,-1224,-1322,-1112
-385,-756,-370,570,-7,-563,473,-361,-644,-1263,-1356,-1137
-400,-775,-375,588,-12,-575,473,-385,-668,-1293,-1385,-1176
-414,-785,-370,600,-21,-578,478,-409,-692,-1322,-1424,-1205
-429,-795,-366,612,-31,-580,478,-439,-722,-1366,-1459,-1234
-439,-810,-370,624,-34,-590,473,-468,-746,-1390,-1488,-1254
-444,-829,-385,636,-29,-607,473,-483,-775,-1424,-1527,-1268
-453,-834,-380,644,-36,-607,478,-507,-790,-1449,-1556,-1283
-463,-844,-380,653,-41,-612,478,-527,-810,-1478,-1586,-1312
-468,-854,-385,661,-41,-619,478,-541,-829,-1507,-1610,-1327
-473,-854,-380,663,-46,-617,478,-561,-839,-1527,-1629,-1342
-478,-858,-380,668,-48,-619,478,-580,-858,-1542,-1644,-1351
-483,-863,-380,673,-51,-622,468,-590,-868,-1551,-1654,-1361
-483,-863,-380,673,-51,-622,463,-605,-873,-1571,-1668,-1371
-492,-873,-380,683,-56,-627,458,-624,-883,-1586,-1683,-1385
-488,-863,-375,675,-56,-619,444,-634,-893,-1590,-1688,-1385
-488,-863,-375,675,-56,-619,439,-634,-893,-1590,-1688,-1385
-478,-863,-385,671,-46,-624,429,-634,-888,-1590,-1683,-1376
-473,-858,-385,666,-43,-622,419,-634,-897,-1595,-1683,-1371
-463,-844,-380,653,-41,-612,409,-629,-888,-1576,-1668,-1361
-448,-834,-385,641,-31,-610,395,-614,-873,-1556,-1649,-1346
-444,-824,-380,634,-31,-602,380,-600,-863,-1537,-1634,-1327
-434,-814,-380,624,-26,-597,366,-590,-854,-1507,-1615,-1312
-419,-795,-375,607,-21,-585,351,-575,-834,-1483,-1590,-1293
-409,-780,-370,595,-19,-575,341,-561,-814,-1454,-1561,-1263
-380,-756,-375,568,-2,-566,326,-536,-795,-1420,-1527,-1244
-366,-732,-366,549,0,-549,312,-527,-775,-1395,-1498,-1220
-356,-717,-361,536,2,-539,297,-502,-751,-1356,-1454,-1190
-341,-692,-351,517,4,-522,283,-473,-717,-1312,-1405,-1156
-322,-668,-346,495,12,-507,268,-448,-692,-1263,-1361,-1122
-302,-653,-351,478,24,-502,253,-424,-658,-1215,-1317,-1078
-292,-629,-336,461,21,-483,244,-395,-619,-1161,-1268,-1039
-268,-600,-331,434,31,-466,224,-370,-595,-1107,-1215,-1000
-248,-575,-326,412,39,-451,209,-341,-566,-1054,-1161,-951
-229,-531,-302,380,36,-417,195,-331,-536,-1005,-1112,-917
-209,-502,-292,356,41,-397,180,-302,-512,-956,-1054,-873
-195,-478,-283,336,43,-380,170,-268,-473,-897,-995,-824
-180,-453,-273,317,46,-363,156,-248,-439,-844,-936,-771
-175,-419,-244,297,34,-331,141,-234,-419,-785,-878,-732
-161,-390,-229,275,34,-309,126,-204,-385,-727,-824,-683
-146,-356,-209,251,31,-283,112,-180,-356,-678,-771,-634
-131,-331,-200,231,34,-265,97,-165,-326,-624,-717,-595
-102,-317,-214,209,56,-265,82,-136,-307,-590,-663,-551
-87,-292,-204,190,58,-248,68,-117,-283,-541,-605,-502
-73,-268,-195,170,61,-231,53,-97,-253,-502,-556,-458
-68,-244,-175,156,53,-209,48,-87,-239,-453,-507,-424
-58,-229,-170,143,56,-200,39,-78,-219,-409,-463,-395
-48,-214,-165,131,58,-190,29,-58,-200,-366,-419,-356
-34,-195,-161,114,63,-178,14,-48,-185,-331,-380,-322
-24,-185,-161,104,68,-173,4,-43,-175,-297,-351,-292
-4,-151,-146,78,70,-148,-4,-34,-151,-268,-322,-253
0,-136,-136,68,68,-136,-9,-29,-136,-244,-283,-229
0,-126,-126,63,63,-126,-14,-14,-122,-219,-258,-204
9,-112,-122,51,65,-117,-19,-9,-107,-195,-229,-180
4,-107,-112,51,58,-109,-14,0,-112,-165,-200,-170
9,-102,-112,46,61,-107,-19,9,-97,-146,-175,-151
14,-92,-107,39,61,-100,-24,9,-97,-126,-156,-131
24,-82,-107,29,65,-95,-29,9,-92,-117,-141,-112
29,-78,-107,24,68,-92,-43,9,-82,-102,-136,-112
29,-63,-92,17,61,-78,-48,9,-78,-97,-122,-97
24,-58,-82,17,53,-70,-48,9,-73,-87,-107,-87
24,-53,-78,14,51,-65,-48,14,-68,-78,-92,-82
29,-48,-78,9,53,-63,-48,19,-63,-68,-68,-53
29,-48,-78,9,53,-63,-53,24,-58,-53,-63,-53
29,-43,-73,7,51,-58,-53,24,-58,-43,-53,-43
29,-43,-73,7,51,-58,-53,24,-53,-39,-43,-34
29,-34,-63,2,46,-48,-48,19,-53,-34,-43,-34
34,-24,-58,-4,46,-41,-48,19,-53,-34,-43,-29
34,-24,-58,-4,46,-41,-48,19,-53,-34,-34,-24
39,-24,-63,-7,51,-43,-48,19,-48,-29,-34,-19
39,-29,-68,-4,53,-48,-48,14,-58,-29,-34,-24
39,-29,-68,-4,53,-48,-48,14,-58,-19,-34,-24
34,-29,-63,-2,48,-46,-48,19,-58,-19,-34,-24
34,-29,-63,-2,48,-46,-48,19,-53,-19,-29,-24
29,-19,-48,-4,39,-34,-48,19,-43,-19,-29,-14
29,-19,-48,-4,39,-34,-48,19,-43,-19,-29,-14
24,-14,-39,-4,31,-26,-48,19,-43,-19,-29,-14
24,-14,-39,-4,31,-26,-48,19,-43,-19,-29,-14
34,-24,-58,-4,46,-41,-48,19,-43,-14,-19,-19
34,-24,-58,-4,46,-41,-48,19,-43,-14,-19,-19
29,-24,-53,-2,41,-39,-48,19,-43,-19,-19,-19
29,-24,-53,-2,41,-39,-48,19,-43,-19,-14,-19
29,-24,-53,-2,41,-39,-48,19,-53,-14,-19,-9
29,-24,-53,-2,41,-39,-48,14,-53,-14,-24,-9
29,-24,-53,-2,41,-39,-48,14,-53,-14,-29,-14
29,-29,-58,0,43,-43,-48,19,-53,-19,-34,-14
24,-19,-43,-2,34,-31,-48,29,-43,-19,-24,-14
24,-19,-43,-2,34,-31,-48,24,-48,-19,-29,-14
24,-19,-43,-2,34,-31,-43,19,-48,-19,-29,-14
24,-19,-43,-2,34,-31,-43,19,-48,-19,-34,-19
24,-19,-43,-2,34,-31,-53,9,-48,-19,-34,-19
24,-19,-43,-2,34,-31,-53,9,-48,-24,-34,-19
24,-24,-48,0,36,-36,-53,4,-58,-24,-39,-19
24,-24,-48,0,36,-36,-53,4,-58,-24,-39,-24
19,-24,-43,2,31,-34,-43,4,-58,-24,-39,-34
19,-29,-48,4,34,-39,-43,4,-58,-24,-39,-34
14,-29,-43,7,29,-36,-43,4,-58,-34,-39,-34
14,-29,-43,7,29,-36,-43,4,-58,-34,-43,-39
14,-29,-43,7,29,-36,-39,14,-58,-34,-48,-39
14,-29,-43,7,29,-36,-34,14,-58,-34,-48,-39
14,-29,-43,7,29,-36,-34,4,-63,-34,-48,-43
14,-29,-43,7,29,-36,-34,4,-68,-39,-53,-43
14,-34,-48,9,31,-41,-34,4,-68,-43,-53,-34
14,-34,-48,9,31,-41,-34,4,-68,-48,-58,-39
9,-39,-48,14,29,-43,-29,4,-73,-48,-58,-39
9,-39,-48,14,29,-43,-29,4,-73,-48,-58,-48
0,-39,-39,19,19,-39,-29,-9,-82,-58,-68,-53
0,-39,-39,19,19,-39,-29,-9,-82,-63,-68,-53
0,-43,-43,21,21,-43,-34,-14,-82,-68,-68,-58
0,-43,-43,21,21,-43,-34,-14,-82,-73,-68,-63
0,-43,-43,21,21,-43,-29,-4,-73,-63,-68,-63
0,-43,-43,21,21,-43,-29,-9,-82,-68,-73,-63
-4,-48,-43,26,19,-46,-29,-9,-82,-78,-73,-63
-4,-48,-43,26,19,-46,-29,-9,-78,-78,-73,-63
4,-58,-63,26,34,-61,-29,-19,-78,-78,-73,-63
4,-63,-68,29,36,-65,-29,-19,-87,-82,-78,-63
0,-63,-63,31,31,-63,-29,-24,-87,-87,-82,-73
0,-63,-63,31,31,-63,-29,-24,-87,-87,-87,-73
-4,-63,-58,34,26,-61,-29,-24,-97,-78,-92,-73
-9,-68,-58,39,24,-63,-29,-29,-97,-78,-92,-73
-14,-68,-53,41,19,-61,-29,-34,-97,-82,-92,-78
-19,-68,-48,43,14,-58,-29,-34,-97,-82,-92,-78
-19,-68,-48,43,14,-58,-29,-34,-97,-92,-97,-87
-19,-68,-48,43,14,-58,-29,-34,-97,-97,-97,-87
-19,-68,-48,43,14,-58,-29,-34,-102,-102,-97,-87
-19,-68,-48,43,14,-58,-24,-34,-102,-102,-92,-92
-19,-68,-48,43,14,-58,-14,-34,-92,-102,-102,-92
-19,-68,-48,43,14,-58,-19,-29,-92,-97,-102,-92
-24,-68,-43,46,9,-56,-19,-29,-97,-97,-102,-92
-24,-68,-43,46,9,-56,-19,-34,-97,-102,-102,-92
-24,-78,-53,51,14,-65,-19,-39,-97,-97,-107,-97
-19,-78,-58,48,19,-68,-19,-43,-97,-97,-107,-97
-19,-78,-58,48,19,-68,-14,-43,-97,-97,-107,-97
-19,-78,-58,48,19,-68,-14,-43,-97,-97,-107,-102
-24,-87,-63,56,19,-75,-29,-43,-102,-102,-107,-92
-24,-87,-63,56,19,-75,-29,-43,-102,-107,-107,-92
-19,-82,-63,51,21,-73,-24,-43,-102,-112,-107,-92
-19,-82,-63,51,21,-73,-24,-39,-97,-112,-107,-92
-14,-78,-63,46,24,-70,-24,-39,-97,-102,-107,-92
-14,-78,-63,46,24,-70,-24,-39,-102,-102,-112,-92
-14,-78,-63,46,24,-70,-24,-43,-107,-107,-112,-92
-14,-78,-63,46,24,-70,-24,-43,-107,-107,-112,-92
-14,-68,-53,41,19,-61,-24,-43,-112,-107,-117,-92
-14,-68,-53,41,19,-61,-24,-43,-112,-107,-117,-92
-14,-68,-53,41,19,-61,-29,-43,-107,-102,-117,-92
-14,-68,-53,41,19,-61,-29,-43,-107,-102,-112,-92
-14,-78,-63,46,24,-70,-19,-43,-107,-107,-112,-92
-14,-78,-63,46,24,-70,-19,-39,-107,-107,-112,-92
-9,-78,-68,43,29,-73,-14,-39,-107,-107,-112,-92
-9,-73,-63,41,26,-68,-14,-39,-107,-107,-117,-92
-9,-68,-58,39,24,-63,-19,-39,-107,-107,-107,-92
-9,-68,-58,39,24,-63,-19,-39,-102,-102,-107,-92
-9,-68,-58,39,24,-63,-19,-39,-102,-97,-107,-87
-9,-68,-58,39,24,-63,-19,-39,-97,-97,-107,-87
-19,-78,-58,48,19,-68,-29,-48,-107,-92,-107,-97
-19,-78,-58,48,19,-68,-29,-48,-107,-92,-112,-97
-19,-78,-58,48,19,-68,-29,-48,-107,-92,-112,-92
-19,-78,-58,48,19,-68,-29,-43,-107,-92,-107,-92
-19,-78,-58,48,19,-68,-29,-43,-107,-92,-102,-92
-19,-78,-58,48,19,-68,-34,-43,-107,-92,-102,-92
-19,-78,-58,48,19,-68,-34,-48,-107,-87,-102,-92
-19,-73,-53,46,17,-63,-34,-48,-107,-87,-102,-92
-19,-73,-53,46,17,-63,-24,-39,-102,-87,-102,-92
-19,-73,-53,46,17,-63,-24,-39,-97,-87,-102,-92
-19,-73,-53,46,17,-63,-24,-39,-92,-87,-102,-92
-19,-78,-58,48,19,-68,-24,-34,-87,-87,-102,-92
-14,-78,-63,46,24,-70,-24,-34,-92,-87,-92,-82
-14,-73,-58,43,21,-65,-24,-34,-92,-87,-92,-82
-14,-73,-58,43,21,-65,-24,-34,-92,-87,-92,-82
-14,-78,-63,46,24,-70,-24,-34,-92,-87,-92,-78
-14,-68,-53,41,19,-61,-34,-34,-102,-87,-97,-87
-14,-68,-53,41,19,-61,-34,-34,-102,-82,-97,-87
-9,-68,-58,39,24,-63,-34,-34,-97,-82,-97,-87
-9,-68,-58,39,24,-63,-39,-34,-97,-82,-97,-87
-19,-68,-48,43,14,-58,-39,-24,-82,-82,-87,-78
-19,-68,-48,43,14,-58,-39,-24,-78,-82,-87,-78
-19,-68,-48,43,14,-58,-39,-24,-78,-82,-87,-78
-19,-68,-48,43,14,-58,-39,-24,-78,-82,-87,-78
-19,-68,-48,43,14,-58,-29,-24,-82,-73,-87,-78
-14,-68,-53,41,19,-61,-29,-24,-82,-73,-87,-78
-14,-68,-53,41,19,-61,-29,-24,-82,-73,-87,-78
-19,-68,-48,43,14,-58,-29,-24,-82,-68,-82,-78
-19,-68,-48,43,14,-58,-29,-24,-92,-73,-87,-78
-14,-68,-53,41,19,-61,-29,-19,-92,-73,-87,-73
-9,-63,-53,36,21,-58,-29,-19,-87,-73,-87,-73
-9,-63,-53,36,21,-58,-29,-19,-87,-73,-87,-73
-9,-63,-53,36,21,-58,-39,-24,-82,-73,-82,-82
-9,-63,-53,36,21,-58,-39,-24,-82,-73,-82,-82
-4,-58,-53,31,24,-56,-39,-19,-78,-73,-82,-82
-4,-58,-53,31,24,-56,-39,-19,-73,-68,-82,-78
-14,-68,-53,41,19,-61,-39,-19,-73,-78,-82,-68
-14,-68,-53,41,19,-61,-34,-19,-73,-78,-82,-68
-14,-68,-53,41,19,-61,-34,-19,-73,-73,-78,-68
-14,-68,-53,41,19,-61,-34,-19,-73,-73,-78,-68
-14,-73,-58,43,21,-65,-34,-29,-82,-73,-82,-73
-9,-73,-63,41,26,-68,-34,-29,-82,-68,-82,-73
-9,-68,-58,39,24,-63,-34,-24,-82,-68,-82,-73
-14,-68,-53,41,19,-61,-34,-24,-82,-68,-78,-73
-14,-73,-58,43,21,-65,-34,-14,-73,-68,-87,-73
-9,-73,-63,41,26,-68,-34,-14,-73,-68,-87,-73
-4,-73,-68,39,31,-70,-34,-14,-73,-68,-87,-73
-4,-73,-68,39,31,-70,-39,-9,-78,-63,-78,-68
-14,-73,-58,43,21,-65,-29,-9,-87,-68,-78,-73
-14,-73,-58,43,21,-65,-29,-9,-82,-68,-82,-73
-9,-68,-58,39,24,-63,-34,-14,-78,-63,-82,-68
-4,-68,-63,36,29,-65,-39,-14,-78,-63,-78,-68
-14,-73,-58,43,21,-65,-39,-24,-78,-73,-82,-78
-14,-73,-58,43,21,-65,-39,-19,-82,-68,-78,-78
-14,-68,-53,41,19,-61,-39,-19,-82,-68,-78,-78
-14,-68,-53,41,19,-61,-39,-19,-78,-68,-78,-82
-9,-68,-58,39,24,-63,-48,-14,-82,-73,-82,-73
-9,-68,-58,39,24,-63,-48,-9,-82,-78,-82,-73
-9,-68,-58,39,24,-63,-43,-9,-82,-78,-82,-73
-4,-63,-58,34,26,-61,-43,-9,-82,-73,-82,-73
-4,-68,-63,36,29,-65,-43,-19,-73,-73,-78,-73
-4,-68,-63,36,29,-65,-43,-14,-73,-73,-78,-68
-4,-68,-63,36,29,-65,-48,-14,-82,-73,-82,-68
-4,-68,-63,36,29,-65,-48,-14,-82,-73,-82,-68
-14,-63,-48,39,17,-56,-48,-19,-82,-68,-92,-73
-9,-63,-53,36,21,-58,-53,-19,-82,-68,-92,-73
-4,-63,-58,34,26,-61,-48,-19,-82,-68,-92,-73
-4,-58,-53,31,24,-56,-43,-19,-82,-68,-92,-73
-14,-68,-53,41,19,-61,-43,-9,-78,-73,-82,-68
-14,-58,-43,36,14,-51,-43,-14,-73,-73,-87,-68
0,-48,-48,24,24,-48,-39,-19,-78,-68,-78,-68
0,-48,-48,24,24,-48,-29,-9,-68,-58,-68,-58
0,-48,-48,24,24,-48,-29,-9,-68,-58,-68,-58
0,-48,-48,24,24,-48,-29,-9,-68,-58,-68,-58
0,-48,-48,24,24,-48,-29,-9,-68,-58,-68,-58
4,-48,-53,21,29,-51,-39,-9,-68,-63,-73,-58
14,-48,-63,17,39,-56,-39,-4,-63,-63,-73,-53
19,-34,-53,7,36,-43,-43,-4,-63,-63,-68,-53
24,-29,-53,2,39,-41,-43,4,-53,-53,-63,-43
24,-19,-43,-2,34,-31,-34,9,-58,-48,-58,-43
24,-14,-39,-4,31,-26,-24,19,-48,-39,-53,-43
24,-19,-43,-2,34,-31,-9,24,-43,-34,-48,-48
24,-19,-43,-2,34,-31,-9,39,-34,-29,-39,-48
39,-9,-48,-14,43,-29,4,39,-19,-24,-48,-34
43,-9,-53,-17,48,-31,4,43,-19,-24,-48,-34
43,-4,-48,-19,46,-26,4,48,-19,-24,-48,-34
48,-4,-53,-21,51,-29,4,48,-14,-19,-43,-34
39,-19,-58,-9,48,-39,-14,48,-24,-29,-43,-43
39,-19,-58,-9,48,-39,-29,39,-34,-34,-43,-43
48,-19,-68,-14,58,-43,-48,39,-34,-34,-43,-43
53,-19,-73,-17,63,-46,-63,39,-39,-34,-43,-43
68,-19,-87,-24,78,-53,-78,34,-39,-34,-43,-34
68,-24,-92,-21,80,-58,-92,34,-43,-34,-43,-34
68,-24,-92,-21,80,-58,-97,34,-43,-34,-43,-29
73,-4,-78,-34,75,-41,-97,34,-34,-24,-34,-19
73,14,-58,-43,65,-21,-102,48,-19,-9,-9,-4
82,29,-53,-56,68,-12,-102,58,-4,4,4,4
87,34,-53,-61,70,-9,-92,58,-4,4,4,14
87,34,-53,-61,70,-9,-92,58,-4,0,0,14
78,29,-48,-53,63,-9,-82,48,-4,0,-9,0
78,29,-48,-53,63,-9,-78,48,-14,-9,-9,-9
78,19,-58,-48,68,-19,-78,39,-14,-14,-19,-9
78,14,-63,-46,70,-24,-87,29,-29,-24,-29,-14
73,-9,-82,-31,78,-46,-87,14,-48,-34,-39,-24
68,-24,-92,-21,80,-58,-87,9,-58,-43,-39,-34
68,-39,-107,-14,87,-73,-82,9,-63,-43,-48,-39
63,-53,-117,-4,90,-85,-82,9,-63,-43,-48,-39
63,-48,-112,-7,87,-80,-78,4,-58,-43,-58,-39
63,-48,-112,-7,87,-80,-82,14,-58,-43,-58,-39
68,-48,-117,-9,92,-82,-87,14,-58,-43,-53,-39
68,-53,-122,-7,95,-87,-102,14,-68,-48,-53,-39
68,-58,-126,-4,97,-92,-97,14,-73,-53,-53,-39
68,-58,-126,-4,97,-92,-92,9,-73,-58,-53,-39
68,-58,-126,-4,97,-92,-87,4,-82,-63,-53,-43
68,-58,-126,-4,97,-92,-87,0,-82,-63,-63,-43
68,-48,-117,-9,92,-82,-97,-14,-87,-78,-73,-43
68,-53,-122,-7,95,-87,-97,-14,-92,-82,-78,-48
63,-58,-122,-2,92,-90,-97,-24,-97,-87,-87,-53
58,-63,-122,2,90,-92,-92,-24,-102,-97,-92,-58
53,-68,-122,7,87,-95,-82,-19,-97,-92,-92,-68
43,-73,-117,14,80,-95,-78,-24,-102,-97,-102,-78
39,-82,-122,21,80,-102,-78,-24,-107,-107,-97,-82
39,-82,-122,21,80,-102,-78,-29,-107,-107,-97,-82
34,-82,-117,24,75,-100,-87,-34,-112,-107,-97,-82
29,-78,-107,24,68,-92,-82,-39,-112,-107,-97,-78
19,-78,-97,29,58,-87,-78,-39,-112,-107,-97,-78
14,-82,-97,34,56,-90,-73,-39,-112,-112,-102,-82
14,-82,-97,34,56,-90,-68,-39,-112,-112,-112,-82
9,-82,-92,36,51,-87,-68,-39,-112,-112,-112,-82
9,-92,-102,41,56,-97,-63,-39,-112,-112,-117,-92
4,-107,-112,51,58,-109,-58,-39,-112,-122,-122,-97
0,-102,-102,51,51,-102,-58,-48,-122,-126,-126,-107
-4,-102,-97,53,46,-100,-58,-48,-126,-131,-131,-112
-9,-107,-97,58,43,-102,-58,-48,-126,-136,-141,-117
-9,-107,-97,58,43,-102,-53,-48,-122,-136,-141,-117
-9,-97,-87,53,39,-92,-53,-48,-122,-136,-136,-112
-9,-97,-87,53,39,-92,-48,-48,-122,-131,-136,-112
-19,-97,-78,58,29,-87,-48,-53,-122,-131,-136,-112
-19,-97,-78,58,29,-87,-48,-53,-122,-136,-141,-117
-24,-107,-82,65,29,-95,-48,-53,-122,-136,-141,-117
-24,-107,-82,65,29,-95,-48,-48,-122,-136,-141,-117
-29,-102,-73,65,21,-87,-48,-48,-122,-136,-141,-117
-29,-102,-73,65,21,-87,-48,-48,-122,-136,-141,-117
-19,-102,-82,61,31,-92,-48,-48,-122,-136,-131,-117
-24,-102,-78,63,26,-90,-43,-48,-122,-136,-131,-117
-24,-102,-78,63,26,-90,-43,-53,-122,-136,-131,-117
-29,-102,-73,65,21,-87,-43,-53,-122,-136,-136,-117
-19,-92,-73,56,26,-82,-43,-53,-122,-136,-136,-117
-9,-92,-82,51,36,-87,-39,-43,-131,-141,-136,-117
-19,-92,-73,56,26,-82,-29,-48,-122,-131,-136,-131
-29,-92,-63,61,17,-78,-29,-43,-112,-131,-136,-131
-29,-73,-43,51,7,-58,-19,-19,-78,-122,-126,-117
-9,-48,-39,29,14,-43,4,39,-29,-68,-102,-97
0,-24,-24,12,12,-24,39,131,73,9,-39,-58
24,24,0,-24,12,12,82,287,204,126,53,4
68,82,14,-75,26,48,131,507,405,302,190,102
146,170,24,-158,61,97,195,805,649,546,385,229
253,263,9,-258,122,136,244,1122,922,834,629,395
380,361,-19,-370,200,170,258,1429,1171,1112,868,561
517,497,-19,-507,268,239,248,1698,1390,1390,1127,746
619,653,34,-636,292,344,224,1830,1605,1683,1439,990
658,849,190,-753,234,519,209,1761,1776,1966,1747,1259
629,1058,429,-844,100,744,239,1537,1893,2200,2025,1522
585,1293,707,-939,-61,1000,258,1185,1932,2376,2259,1771
473,1581,1107,-1027,-317,1344,234,688,1898,2508,2469,2000
341,1903,1561,-1122,-610,1732,170,195,1854,2644,2693,2254
273,2215,1942,-1244,-834,2078,34,-126,1834,2820,2957,2527
287,2483,2196,-1385,-954,2339,-224,-341,1747,2986,3215,2796
326,2703,2376,-1515,-1024,2540,-624,-536,1581,3118,3450,3040
390,2830,2440,-1610,-1024,2635,-1093,-673,1405,3230,3669,3254
488,2762,2274,-1625,-893,2518,-1503,-688,1244,3318,3850,3411
566,2610,2044,-1588,-739,2327,-1766,-561,1195,3484,4060,3552
614,2601,1986,-1607,-685,2293,-1864,-346,1332,3782,4372,3777
653,2708,2054,-1681,-700,2381,-1893,-117,1542,4123,4709,4030
688,2757,2069,-1722,-690,2413,-1854,122,1737,4396,4967,4201
697,2713,2015,-1705,-658,2364,-1756,322,1873,4567,5114,4274
702,2644,1942,-1673,-619,2293,-1659,439,1927,4655,5202,4323
692,2615,1922,-1654,-614,2269,-1576,507,1956,4723,5299,4382
697,2596,1898,-1647,-600,2247,-1483,610,2020,4816,5392,4431
683,2552,1869,-1617,-592,2210,-1395,658,2039,4811,5382,4401
683,2469,1786,-1576,-551,2127,-1322,678,2005,4767,5348,4362
683,2366,1683,-1525,-500,2025,-1234,727,1986,4758,5343,4318
658,2239,1581,-1449,-461,1910,-1127,771,1952,4714,5285,4240
634,2122,1488,-1378,-427,1805,-1034,785,1888,4553,5099,4084
605,1995,1390,-1300,-392,1693,-961,775,1786,4343,4850,3879
575,1839,1263,-1207,-344,1551,-888,766,1678,4108,4577,3669
536,1678,1141,-1107,-302,1410,-810,741,1556,3830,4260,3425
488,1512,1024,-1000,-268,1268,-736,673,1410,3489,3864,3128
434,1342,907,-888,-236,1124,-663,580,1239,3118,3469,2815
390,1141,751,-766,-180,946,-585,492,1054,2747,3064,2483
331,902,570,-617,-119,736,-497,409,858,2342,2605,2098
292,649,356,-470,-31,502,-400,375,673,1937,2132,1678
248,405,156,-326,46,280,-292,356,512,1522,1620,1205
175,200,24,-187,75,112,-195,317,356,1083,1093,746
97,53,-43,-75,70,4,-117,229,200,653,614,361
24,-24,-48,0,36,-36,-48,136,68,287,229,63
-34,-68,-34,51,0,-51,-4,73,-19,24,-48,-122
-53,-92,-39,73,-7,-65,19,24,-58,-112,-161,-190
-58,-112,-53,85,-2,-82,43,14,-78,-156,-190,-200
-58,-131,-73,95,7,-102,58,24,-82,-170,-204,-204
-58,-146,-87,102,14,-117,58,24,-92,-180,-209,-214
-58,-151,-92,104,17,-122,68,24,-87,-185,-214,-214
-63,-146,-82,104,9,-114,68,29,-87,-195,-224,-219
-63,-141,-78,102,7,-109,68,39,-78,-204,-234,-224
-53,-141,-87,97,17,-114,68,39,-87,-219,-239,-224
-58,-146,-87,102,14,-117,68,39,-87,-219,-248,-229
-58,-151,-92,104,17,-122,68,39,-97,-229,-258,-244
-53,-156,-102,104,24,-129,78,39,-102,-229,-258,-253
-58,-161,-102,109,21,-131,82,29,-107,-244,-273,-263
-63,-165,-102,114,19,-134,87,29,-107,-248,-278,-268
-68,-170,-102,119,17,-136,87,29,-102,-253,-292,-273
-78,-170,-92,124,7,-131,87,29,-102,-258,-292,-278
-68,-170,-102,119,17,-136,82,43,-102,-258,-297,-273
-68,-170,-102,119,17,-136,82,43,-102,-263,-302,-278
-68,-170,-102,119,17,-136,82,48,-102,-263,-307,-278
-68,-170,-102,119,17,-136,87,48,-102,-263,-307,-283
-58,-170,-112,114,26,-141,97,48,-102,-268,-297,-283
-53,-170,-117,112,31,-143,97,48,-102,-273,-302,-283
-53,-170,-117,112,31,-143,97,48,-102,-273,-307,-283
-53,-170,-117,112,31,-143,102,48,-102,-273,-307,-283
-63,-161,-97,112,17,-129,102,43,-102,-273,-317,-292
-63,-165,-102,114,19,-134,107,43,-102,-273,-322,-297
-63,-165,-102,114,19,-134,107,53,-102,-278,-322,-297
-63,-165,-102,114,19,-134,107,53,-102,-278,-322,-297
-63,-165,-102,114,19,-134,112,63,-97,-287,-322,-302
-63,-165,-102,114,19,-134,112,68,-97,-287,-322,-302
-63,-165,-102,114,19,-134,112,68,-97,-287,-322,-302
-63,-165,-102,114,19,-134,112,68,-97,-287,-322,-302
-63,-165,-102,114,19,-134,112,68,-102,-287,-322,-302
-58,-165,-107,112,24,-136,112,73,-102,-287,-322,-302
-58,-165,-107,112,24,-136,117,73,-102,-287,-322,-302
-63,-165,-102,114,19,-134,117,73,-102,-287,-326,-302
-73,-175,-102,124,14,-139,131,78,-92,-283,-317,-307
-73,-170,-97,122,12,-134,131,78,-92,-283,-317,-307
-73,-170,-97,122,12,-134,131,78,-92,-283,-317,-307
-68,-170,-102,119,17,-136,131,78,-87,-283,-317,-307
-68,-161,-92,114,12,-126,136,82,-87,-292,-326,-297
-68,-161,-92,114,12,-126,136,82,-82,-292,-326,-297
-73,-165,-92,119,9,-129,136,87,-82,-292,-331,-302
-73,-165,-92,119,9,-129,136,87,-82,-292,-331,-302
-63,-165,-102,114,19,-134,131,87,-92,-292,-331,-312
-63,-165,-102,114,19,-134,131,92,-92,-292,-331,-312
-63,-165,-102,114,19,-134,136,92,-92,-292,-331,-312
-63,-165,-102,114,19,-134,136,97,-92,-292,-331,-312
-63,-165,-102,114,19,-134,136,87,-87,-297,-336,-312
-63,-165,-102,114,19,-134,136,87,-87,-297,-336,-312
-63,-170,-107,117,21,-139,136,87,-87,-297,-341,-322
-63,-175,-112,119,24,-143,136,92,-87,-302,-341,-322
-78,-185,-107,131,14,-146,141,92,-87,-302,-341,-322
-78,-185,-107,131,14,-146,141,92,-87,-302,-351,-326
-78,-185,-107,131,14,-146,141,92,-87,-312,-356,-326
-78,-185,-107,131,14,-146,141,92,-87,-317,-356,-336
-78,-185,-107,131,14,-146,156,92,-97,-317,-361,-336
-78,-185,-107,131,14,-146,161,92,-102,-317,-361,-341
-78,-195,-117,136,19,-156,161,92,-102,-322,-366,-346
-78,-200,-122,139,21,-161,161,97,-102,-322,-370,-351
-68,-200,-131,134,31,-165,170,97,-102,-326,-375,-356
-68,-200,-131,134,31,-165,170,97,-102,-331,-380,-356
-68,-204,-136,136,34,-170,170,97,-102,-336,-385,-361
-68,-209,-141,139,36,-175,175,97,-102,-341,-390,-366
-87,-214,-126,151,19,-170,180,87,-102,-356,-395,-375
-87,-219,-131,153,21,-175,180,87,-112,-370,-405,-380
-82,-224,-141,153,29,-183,185,87,-117,-370,-414,-385
-82,-224,-141,153,29,-183,185,87,-122,-380,-424,-395
-82,-229,-146,156,31,-187,185,87,-126,-370,-434,-405
-87,-234,-146,161,29,-190,200,87,-126,-385,-439,-405
-92,-248,-156,170,31,-202,204,87,-126,-390,-448,-414
-97,-253,-156,175,29,-204,209,87,-126,-405,-458,-424
-97,-258,-161,178,31,-209,209,87,-141,-419,-468,-434
-97,-263,-165,180,34,-214,209,82,-151,-434,-478,-444
-102,-273,-170,187,34,-222,209,73,-156,-448,-492,-453
-107,-278,-170,192,31,-224,219,73,-161,-463,-507,-473
-107,-283,-175,195,34,-229,234,68,-165,-473,-507,-473
-112,-292,-180,202,34,-236,239,63,-175,-488,-522,-488
-117,-302,-185,209,34,-244,244,58,-180,-502,-536,-492
-122,-307,-185,214,31,-246,253,53,-180,-512,-551,-507
-126,-317,-190,222,31,-253,248,39,-195,-517,-585,-517
-131,-331,-200,231,34,-265,253,29,-204,-541,-600,-536
-136,-341,-204,239,34,-273,258,19,-214,-561,-619,-551
-141,-351,-209,246,34,-280,268,19,-224,-575,-639,-570
-156,-356,-200,256,21,-278,273,9,-248,-605,-658,-590
-170,-375,-204,273,17,-290,283,0,-258,-634,-688,-610
-180,-385,-204,283,12,-295,297,-9,-273,-653,-707,-624
-180,-405,-224,292,21,-314,297,-29,-287,-678,-732,-644
-185,-409,-224,297,19,-317,302,-43,-302,-707,-761,-673
-195,-424,-229,309,17,-326,312,-63,-312,-732,-790,-692
-200,-434,-234,317,17,-334,317,-82,-326,-761,-829,-722
-209,-448,-239,329,14,-344,326,-102,-351,-790,-863,-741
-219,-453,-234,336,7,-344,336,-126,-370,-834,-883,-766
-234,-468,-234,351,0,-351,346,-136,-390,-863,-912,-790
-244,-483,-239,363,-2,-361,356,-156,-405,-893,-946,-814
-258,-507,-248,383,-4,-378,366,-175,-419,-927,-980,-839
-273,-517,-244,395,-14,-380,375,-200,-453,-961,-1024,-873
-283,-541,-258,412,-12,-400,380,-214,-478,-995,-1058,-897
-287,-561,-273,424,-7,-417,395,-234,-497,-1029,-1093,-927
-307,-575,-268,441,-19,-422,405,-258,-517,-1063,-1127,-951
-322,-595,-273,458,-24,-434,409,-283,-546,-1112,-1171,-990
-336,-610,-273,473,-31,-441,419,-307,-566,-1151,-1210,-1019
-351,-629,-278,490,-36,-453,429,-331,-595,-1190,-1244,-1049
-356,-644,-287,500,-34,-466,434,-356,-619,-1224,-1283,-1083
-370,-658,-287,514,-41,-473,444,-385,-653,-1273,-1332,-1112
-385,-683,-297,534,-43,-490,448,-414,-673,-1312,-1371,-1141
-400,-697,-297,549,-51,-497,453,-444,-697,-1351,-1410,-1171
-414,-717,-302,566,-56,-509,463,-478,-722,-1390,-1444,-1195
-429,-746,-317,588,-56,-531,468,-507,-746,-1439,-1493,-1234
-444,-756,-312,600,-65,-534,478,-527,-771,-1468,-1532,-1263
-458,-766,-307,612,-75,-536,483,-551,-800,-1512,-1566,-1293
-468,-780,-312,624,-78,-546,483,-575,-824,-1537,-1595,-1312
-473,-790,-317,631,-78,-553,483,-610,-854,-1571,-1634,-1346
-483,-795,-312,639,-85,-553,488,-634,-868,-1595,-1664,-1361
-492,-805,-312,649,-90,-558,488,-653,-888,-1625,-1693,-1390
-497,-814,-317,656,-90,-566,488,-668,-907,-1654,-1717,-1405
-492,-824,-331,658,-80,-578,488,-678,-917,-1683,-1747,-1420
-497,-829,-331,663,-82,-580,488,-697,-936,-1698,-1761,-1429
-502,-834,-331,668,-85,-583,478,-707,-946,-1708,-1771,-1439
-502,-834,-331,668,-85,-583,473,-722,-951,-1727,-1786,-1449
-502,-834,-331,668,-85,-583,468,-722,-971,-1742,-1800,-1464
-497,-824,-326,661,-85,-575,453,-732,-980,-1747,-1805,-1464
-497,-824,-326,661,-85,-575,448,-732,-980,-1747,-1805,-1464
-488,-824,-336,656,-75,-580,439,-732,-976,-1747,-1800,-1454
-483,-819,-336,651,-73,-578,429,-741,-976,-1751,-1800,-1449
-473,-805,-331,639,-70,-568,419,-736,-966,-1732,-1786,-1439
-458,-795,-336,627,-61,-566,405,-722,-951,-1712,-1766,-1424
-453,-785,-331,619,-61,-558,390,-707,-941,-1693,-1751,-1405
-444,-775,-331,610,-56,-553,385,-678,-912,-1659,-1712,-1390
-429,-756,-326,592,-51,-541,370,-663,-893,-1629,-1688,-1371
-419,-741,-322,580,-48,-531,361,-649,-873,-1595,-1659,-1342
-390,-717,-326,553,-31,-522,346,-624,-854,-1556,-1625,-1322
-366,-702,-336,534,-14,-519,331,-600,-824,-1517,-1595,-1278
-356,-688,-331,522,-12,-509,317,-570,-800,-1473,-1551,-1249
