I,II,III,aVR,aVL,aVF,V1,V2,V3,V4,V5,V6,
117,165,48,-141,34,107,-9,234,302,273,244,214
82,131,48,-107,17,90,0,185,239,219,204,175
48,97,48,-73,0,73,9,136,175,165,165,136
24,73,48,-48,-12,61,19,102,131,126,122,102
0,48,48,-24,-24,48,29,68,87,87,78,68
-14,34,48,-9,-31,41,34,43,53,58,53,39
-29,19,48,4,-39,34,39,19,19,29,29,9
-43,0,43,21,-43,21,43,4,0,9,4,-4
-58,-19,39,39,-48,9,48,-9,-19,-9,-19,-19
-68,-29,39,48,-53,4,53,-19,-34,-24,-24,-29
-78,-39,39,58,-58,0,58,-29,-48,-39,-29,-39
-82,-43,39,63,-61,-2,58,-34,-58,-43,-34,-39
-87,-48,39,68,-63,-4,58,-39,-68,-48,-39,-39
-87,-53,34,70,-61,-9,58,-43,-73,-53,-43,-43
-87,-58,29,73,-58,-14,58,-48,-78,-58,-48,-48
-87,-58,29,73,-58,-14,58,-48,-82,-63,-48,-48
-87,-58,29,73,-58,-14,58,-48,-87,-68,-48,-48
-87,-58,29,73,-58,-14,58,-48,-87,-68,-53,-53
-87,-58,29,73,-58,-14,58,-48,-87,-68,-58,-58
-87,-63,24,75,-56,-19,58,-48,-87,-73,-58,-58
-87,-68,19,78,-53,-24,58,-48,-87,-78,-58,-58
-87,-68,19,78,-53,-24,58,-48,-82,-78,-58,-58
-87,-68,19,78,-53,-24,58,-48,-78,-78,-58,-58
-87,-68,19,78,-53,-24,58,-43,-78,-78,-58,-58
-87,-68,19,78,-53,-24,58,-39,-78,-78,-58,-58
-87,-68,19,78,-53,-24,63,-34,-78,-78,-58,-58
-87,-68,19,78,-53,-24,68,-29,-78,-78,-58,-58
-87,-68,19,78,-53,-24,68,-24,-73,-73,-58,-53
-87,-68,19,78,-53,-24,68,-19,-68,-68,-58,-48
-87,-68,19,78,-53,-24,68,-14,-63,-63,-58,-48
-87,-68,19,78,-53,-24,68,-9,-58,-58,-58,-48
-87,-68,19,78,-53,-24,73,-9,-58,-58,-58,-53
-87,-68,19,78,-53,-24,78,-9,-58,-58,-58,-58
-87,-68,19,78,-53,-24,78,-9,-53,-58,-58,-58
-87,-68,19,78,-53,-24,78,-9,-48,-58,-58,-58
-87,-68,19,78,-53,-24,78,-9,-48,-58,-58,-58
-87,-68,19,78,-53,-24,78,-9,-48,-58,-58,-58
-87,-68,19,78,-53,-24,78,-4,-48,-58,-53,-58
-87,-68,19,78,-53,-24,78,0,-48,-58,-48,-58
-87,-68,19,78,-53,-24,78,0,-48,-53,-43,-58
-87,-68,19,78,-53,-24,78,0,-48,-48,-39,-58
-92,-68,24,80,-58,-21,78,0,-48,-48,-39,-53
-97,-68,29,82,-63,-19,78,0,-48,-48,-39,-48
-97,-68,29,82,-63,-19,78,0,-48,-48,-39,-48
-97,-68,29,82,-63,-19,78,0,-48,-48,-39,-48
-97,-68,29,82,-63,-19,78,0,-48,-48,-39,-48
-97,-68,29,82,-63,-19,78,0,-48,-48,-39,-48
-97,-68,29,82,-63,-19,78,-4,-48,-48,-39,-48
-97,-68,29,82,-63,-19,78,-9,-48,-48,-39,-48
-97,-63,34,80,-65,-14,78,-9,-48,-48,-39,-53
-97,-58,39,78,-68,-9,78,-9,-48,-48,-39,-58
-97,-58,39,78,-68,-9,78,-9,-48,-48,-39,-58
-97,-58,39,78,-68,-9,78,-9,-48,-48,-39,-58
-102,-63,39,82,-70,-12,78,-14,-53,-48,-39,-53
-107,-68,39,87,-73,-14,78,-19,-58,-48,-39,-48
-107,-68,39,87,-73,-14,78,-19,-58,-48,-43,-48
-107,-68,39,87,-73,-14,78,-19,-58,-48,-48,-48
-107,-63,43,85,-75,-9,78,-24,-58,-53,-48,-48
-107,-58,48,82,-78,-4,78,-29,-58,-58,-48,-48
-107,-58,48,82,-78,-4,78,-29,-58,-58,-48,-48
-107,-58,48,82,-78,-4,78,-29,-58,-58,-48,-48
-107,-63,43,85,-75,-9,78,-29,-58,-53,-48,-48
-107,-68,39,87,-73,-14,78,-29,-58,-48,-48,-48
-107,-68,39,87,-73,-14,73,-34,-63,-48,-43,-48
-107,-68,39,87,-73,-14,68,-39,-68,-48,-39,-48
-107,-68,39,87,-73,-14,68,-43,-68,-53,-39,-48
-107,-68,39,87,-73,-14,68,-48,-68,-58,-39,-48
-112,-68,43,90,-78,-12,68,-48,-68,-58,-39,-43
-117,-68,48,92,-82,-9,68,-48,-68,-58,-39,-39
-117,-68,48,92,-82,-9,68,-48,-68,-58,-39,-39
-117,-68,48,92,-82,-9,68,-48,-68,-58,-39,-39
-117,-68,48,92,-82,-9,68,-48,-68,-58,-39,-43
-117,-68,48,92,-82,-9,68,-48,-68,-58,-39,-48
-117,-68,48,92,-82,-9,68,-48,-68,-58,-39,-48
-117,-68,48,92,-82,-9,68,-48,-68,-58,-39,-48
-112,-63,48,87,-80,-7,73,-43,-68,-58,-39,-48
-107,-58,48,82,-78,-4,78,-39,-68,-58,-39,-48
-102,-58,43,80,-73,-7,92,-29,-58,-53,-34,-48
-97,-58,39,78,-68,-9,107,-19,-48,-48,-29,-48
-87,-58,29,73,-58,-14,122,0,-34,-34,-19,-39
-78,-58,19,68,-48,-19,136,19,-19,-19,-9,-29
-63,-53,9,58,-36,-21,136,19,-14,-14,-4,-14
-48,-48,0,48,-24,-24,136,19,-9,-9,0,0
-43,-48,-4,46,-19,-26,151,24,-4,-4,4,0
-39,-48,-9,43,-14,-29,165,29,0,0,9,0
-34,-48,-14,41,-9,-31,175,34,4,0,9,4
-29,-39,-9,34,-9,-24,180,43,4,0,14,9
-29,-34,-4,31,-12,-19,190,53,4,0,19,19
-29,-9,19,19,-24,4,185,43,4,4,29,24
-29,14,43,7,-36,29,175,29,-9,-4,29,24
-19,14,34,2,-26,24,117,0,-34,-14,19,24
-9,4,14,2,-12,9,19,-39,-58,-29,0,14
9,4,-4,-7,7,0,-24,-53,-68,-34,-4,9
19,4,-14,-12,17,-4,-14,-53,-73,-39,-4,9
19,4,-14,-12,17,-4,-9,-48,-73,-39,-4,14
14,4,-9,-9,12,-2,4,-43,-68,-39,0,14
14,4,-9,-9,12,-2,9,-39,-63,-34,0,19
4,0,-4,-2,4,-2,14,-43,-63,-39,-9,14
-9,-4,4,7,-7,0,19,-48,-68,-43,-19,4
-43,-19,24,31,-34,2,24,-53,-78,-48,-24,-4
-97,-53,43,75,-70,-4,39,-78,-97,-58,-39,-29
-131,-58,73,95,-102,7,48,-78,-102,-73,-58,-48
-146,-68,78,107,-112,4,53,-73,-102,-82,-63,-58
-146,-68,78,107,-112,4,53,-73,-102,-82,-63,-58
-141,-68,73,104,-107,2,53,-73,-97,-78,-68,-63
-141,-68,73,104,-107,2,53,-78,-97,-78,-68,-63
-151,-68,82,109,-117,7,53,-82,-97,-78,-68,-63
-151,-68,82,109,-117,7,53,-82,-97,-82,-68,-63
-156,-68,87,112,-122,9,58,-82,-92,-87,-68,-68
-161,-73,87,117,-124,7,58,-82,-92,-87,-63,-68
-161,-78,82,119,-122,2,58,-82,-97,-87,-58,-68
-165,-78,87,122,-126,4,58,-78,-97,-87,-58,-68
-165,-78,87,122,-126,4,63,-78,-92,-87,-58,-68
-170,-78,92,124,-131,7,63,-78,-92,-87,-58,-68
-170,-78,92,124,-131,7,63,-78,-92,-87,-58,-68
-170,-78,92,124,-131,7,68,-78,-97,-87,-58,-68
-170,-78,92,124,-131,7,68,-78,-102,-87,-58,-68
-170,-78,92,124,-131,7,68,-78,-102,-82,-58,-68
-175,-78,97,126,-136,9,68,-78,-102,-82,-58,-63
-175,-82,92,129,-134,4,68,-73,-97,-82,-58,-63
-175,-82,92,129,-134,4,68,-73,-97,-82,-58,-58
-170,-78,92,124,-131,7,68,-73,-92,-82,-53,-63
-165,-73,92,119,-129,9,68,-63,-73,-68,-43,-63
-170,-63,107,117,-139,21,63,-63,-43,-43,-34,-53
-185,-29,156,107,-170,63,78,9,82,43,19,-24
-219,24,244,97,-231,134,175,170,297,195,107,-14
-283,82,366,100,-324,224,244,117,453,356,219,19
-361,204,566,78,-463,385,229,-204,429,522,366,107
-370,351,722,9,-546,536,131,-566,351,697,556,239
-268,507,775,-119,-522,641,-126,-1229,-92,756,761,478
-29,639,668,-305,-348,653,-561,-1790,-712,644,897,732
248,780,531,-514,-141,656,-1044,-2352,-1376,380,971,1019
595,873,278,-734,158,575,-1668,-2908,-2074,82,985,1283
883,741,-141,-812,512,300,-2083,-3279,-2503,-356,673,1239
1102,253,-849,-678,976,-297,-2113,-3132,-2674,-995,-107,722
1234,-492,-1727,-370,1481,-1110,-1908,-2562,-2718,-1629,-893,68
1151,-941,-2093,-104,1622,-1517,-1639,-2210,-2791,-2166,-1537,-507
961,-971,-1932,4,1446,-1451,-1342,-1844,-2654,-2278,-1737,-780
692,-858,-1551,82,1122,-1205,-1034,-1527,-2347,-2069,-1620,-814
536,-751,-1288,107,912,-1019,-790,-1171,-1810,-1620,-1307,-702
409,-600,-1010,95,710,-805,-580,-839,-1288,-1190,-990,-561
229,-361,-590,65,409,-475,-346,-531,-775,-727,-595,-326
68,-165,-234,48,151,-200,-146,-244,-361,-346,-268,-131
-78,-117,-39,97,-19,-78,-19,-68,-131,-170,-151,-102
-87,-97,-9,92,-39,-53,34,39,0,-78,-92,-87
-87,-63,24,75,-56,-19,73,107,82,-4,-29,-48
-92,-48,43,70,-68,-2,97,141,117,29,14,-14
-107,-39,68,73,-87,14,107,146,126,34,14,-14
-112,-34,78,73,-95,21,112,161,161,43,9,-19
-126,-34,92,80,-109,29,122,175,180,48,19,-19
-131,-34,97,82,-114,31,141,185,185,58,29,-19
-131,-29,102,80,-117,36,151,200,204,73,39,-14
-136,-24,112,80,-124,43,151,219,224,82,48,-9
-131,-24,107,78,-119,41,151,229,234,92,53,-4
-126,-24,102,75,-114,39,156,234,244,102,63,4
-126,-19,107,73,-117,43,161,239,253,112,73,4
-126,-19,107,73,-117,43,165,244,263,122,73,9
-126,-19,107,73,-117,43,161,253,278,126,73,14
-122,-19,102,70,-112,41,156,258,287,131,73,14
-122,-14,107,68,-114,46,161,268,287,131,78,19
-122,-14,107,68,-114,46,161,278,297,136,82,24
-117,-9,107,63,-112,48,161,283,307,146,87,29
-112,-9,102,61,-107,46,161,292,317,151,92,29
-107,-4,102,56,-104,48,161,297,326,156,97,29
-102,-4,97,53,-100,46,161,312,341,165,102,34
-97,-4,92,51,-95,43,161,326,351,175,112,39
-87,0,87,43,-87,43,161,341,366,185,117,43
-82,4,87,39,-85,46,161,356,380,195,126,48
-73,4,78,34,-75,41,161,375,395,204,131,53
-63,14,78,24,-70,46,161,395,409,214,141,53
-53,19,73,17,-63,46,161,414,429,229,146,58
-48,24,73,12,-61,48,161,424,453,244,156,73
-39,29,68,4,-53,48,161,444,478,263,165,78
-29,39,68,-4,-48,53,161,473,497,278,180,87
-19,43,63,-12,-41,53,161,502,527,292,195,97
-14,53,68,-19,-41,61,161,527,551,312,204,102
-9,63,73,-26,-41,68,161,551,580,331,219,107
0,68,68,-34,-34,68,156,580,610,351,234,117
14,82,68,-48,-26,75,151,610,639,370,253,131
29,92,63,-61,-17,78,151,649,668,400,273,151
43,102,58,-73,-7,80,151,688,697,424,287,165
58,126,68,-92,-4,97,151,727,736,448,312,175
78,146,68,-112,4,107,136,746,775,468,331,195
97,161,63,-129,17,112,136,780,805,497,361,209
117,180,63,-148,26,122,131,814,834,517,385,234
131,200,68,-165,31,134,122,834,863,541,409,258
151,219,68,-185,41,143,112,858,893,566,429,283
165,239,73,-202,46,156,102,883,917,585,453,307
185,258,73,-222,56,165,92,902,941,605,478,326
204,278,73,-241,65,175,78,907,971,634,502,351
219,297,78,-258,70,187,63,912,980,649,527,370
239,317,78,-278,80,197,48,917,985,663,546,390
258,326,68,-292,95,197,29,907,985,678,556,414
268,346,78,-307,95,212,9,878,976,683,566,429
278,356,78,-317,100,217,-9,829,951,683,570,444
278,361,82,-319,97,222,-29,771,902,663,570,453
278,361,82,-319,97,222,-43,712,844,634,566,453
268,351,82,-309,92,217,-53,644,775,595,541,448
248,326,78,-287,85,202,-53,566,697,551,502,424
219,297,78,-258,70,187,-48,488,619,502,463,385
195,268,73,-231,61,170,-43,409,536,448,414,351
161,234,73,-197,43,153,-39,336,448,375,361,312
131,195,63,-163,34,129,-29,268,370,307,302,268
92,161,68,-126,12,114,-24,209,302,258,253,219
63,126,63,-95,0,95,-14,161,234,204,204,180
34,92,58,-63,-12,75,-4,117,175,151,161,146
14,68,53,-41,-19,61,9,78,122,102,112,112
-4,43,48,-19,-26,46,14,39,82,63,73,78
-24,29,53,-2,-39,41,24,19,39,29,48,43
-43,9,53,17,-48,31,29,4,9,4,24,24
-53,-4,48,29,-51,21,29,-14,-14,-24,4,4
-68,-24,43,46,-56,9,39,-29,-29,-34,-14,-9
-78,-29,48,53,-63,9,39,-39,-48,-48,-29,-29
-87,-39,48,63,-68,4,43,-48,-63,-58,-34,-34
-87,-43,43,65,-65,0,48,-58,-73,-68,-43,-43
-92,-48,43,70,-68,-2,48,-58,-78,-73,-53,-48
-92,-48,43,70,-68,-2,48,-68,-82,-73,-58,-53
-97,-58,39,78,-68,-9,48,-68,-87,-87,-63,-58
-97,-63,34,80,-65,-14,48,-68,-87,-87,-73,-63
-97,-63,34,80,-65,-14,53,-63,-92,-87,-73,-63
-97,-68,29,82,-63,-19,53,-63,-92,-87,-73,-68
-97,-68,29,82,-63,-19,48,-63,-97,-92,-78,-68
-97,-68,29,82,-63,-19,48,-68,-97,-97,-78,-68
-97,-68,29,82,-63,-19,48,-68,-97,-92,-78,-63
-97,-63,34,80,-65,-14,48,-63,-92,-87,-78,-63
-97,-63,34,80,-65,-14,48,-63,-87,-87,-73,-63
-97,-63,34,80,-65,-14,48,-58,-78,-87,-73,-63
-97,-63,34,80,-65,-14,48,-53,-73,-87,-73,-68
-92,-63,29,78,-61,-17,53,-43,-68,-87,-68,-68
-92,-68,24,80,-58,-21,58,-39,-68,-82,-68,-68
-92,-73,19,82,-56,-26,63,-34,-63,-82,-68,-68
-92,-73,19,82,-56,-26,63,-29,-63,-82,-68,-63
-92,-73,19,82,-56,-26,63,-29,-63,-78,-68,-58
-92,-68,24,80,-58,-21,63,-24,-58,-78,-63,-58
-92,-63,29,78,-61,-17,63,-24,-53,-78,-63,-58
-87,-63,24,75,-56,-19,63,-19,-58,-73,-63,-58
-87,-63,24,75,-56,-19,63,-14,-58,-73,-63,-63
-87,-68,19,78,-53,-24,63,-14,-58,-68,-58,-63
-87,-68,19,78,-53,-24,68,-9,-58,-68,-58,-63
-87,-68,19,78,-53,-24,68,-9,-53,-68,-58,-53
-92,-68,24,80,-58,-21,68,-4,-53,-68,-58,-53
-92,-68,24,80,-58,-21,68,-4,-48,-73,-63,-53
-92,-68,24,80,-58,-21,68,-4,-48,-73,-68,-53
-92,-68,24,80,-58,-21,63,-9,-48,-73,-63,-58
-92,-68,24,80,-58,-21,58,-14,-48,-73,-63,-58
-92,-68,24,80,-58,-21,58,-14,-48,-73,-63,-58
-92,-63,29,78,-61,-17,63,-14,-48,-73,-63,-58
-97,-63,34,80,-65,-14,63,-19,-53,-73,-63,-58
-97,-63,34,80,-65,-14,58,-24,-58,-73,-63,-58
-97,-63,34,80,-65,-14,58,-24,-58,-68,-68,-58
-97,-63,34,80,-65,-14,58,-24,-58,-68,-68,-58
-97,-58,39,78,-68,-9,58,-24,-58,-73,-68,-63
-97,-53,43,75,-70,-4,58,-24,-58,-73,-68,-68
-97,-53,43,75,-70,-4,58,-24,-63,-73,-68,-73
-97,-53,43,75,-70,-4,58,-24,-68,-73,-68,-73
-102,-58,43,80,-73,-7,63,-29,-73,-73,-68,-73
-102,-63,39,82,-70,-12,63,-29,-73,-73,-68,-68
-102,-63,39,82,-70,-12,58,-34,-73,-78,-73,-68
-102,-63,39,82,-70,-12,58,-34,-78,-82,-78,-73
-102,-63,39,82,-70,-12,58,-34,-78,-87,-78,-73
-102,-63,39,82,-70,-12,58,-34,-78,-92,-78,-68
-107,-63,43,85,-75,-9,53,-39,-82,-92,-78,-73
-107,-63,43,85,-75,-9,53,-43,-82,-97,-78,-78
-107,-63,43,85,-75,-9,53,-43,-82,-92,-82,-82
-107,-63,43,85,-75,-9,53,-48,-87,-87,-87,-82
-107,-63,43,85,-75,-9,53,-48,-87,-92,-87,-82
-107,-63,43,85,-75,-9,53,-53,-87,-92,-87,-82
-107,-63,43,85,-75,-9,53,-53,-92,-92,-87,-82
-107,-63,43,85,-75,-9,53,-53,-92,-97,-87,-82
-107,-58,48,82,-78,-4,53,-58,-92,-97,-87,-82
-107,-58,48,82,-78,-4,53,-58,-97,-97,-87,-82
-112,-58,53,85,-82,-2,53,-58,-97,-97,-87,-82
-112,-53,58,82,-85,2,53,-58,-97,-102,-87,-82
-112,-53,58,82,-85,2,53,-58,-97,-102,-87,-82
-112,-53,58,82,-85,2,48,-63,-97,-102,-92,-82
-112,-53,58,82,-85,2,48,-58,-92,-102,-87,-82
-112,-58,53,85,-82,-2,48,-53,-87,-102,-82,-87
-107,-58,48,82,-78,-4,58,-48,-87,-92,-78,-82
-102,-58,43,80,-73,-7,68,-39,-82,-82,-73,-78
-102,-58,43,80,-73,-7,78,-39,-68,-82,-73,-78
-102,-53,48,78,-75,-2,92,-34,-53,-82,-73,-78
-87,-43,43,65,-65,0,102,-4,-48,-73,-63,-68
-78,-39,39,58,-58,0,117,19,-48,-68,-58,-58
-63,-34,29,48,-46,-2,126,19,-34,-53,-48,-48
-48,-29,19,39,-34,-4,136,19,-19,-39,-39,-39
-43,-29,14,36,-29,-7,146,29,-19,-39,-39,-39
-34,-34,0,34,-17,-17,161,39,-14,-34,-39,-39
-24,-43,-19,34,-2,-31,180,48,-14,-34,-39,-39
-19,-48,-29,34,4,-39,195,58,-14,-39,-39,-34
-19,-19,0,19,-9,-9,204,43,-24,-39,-34,-34
-19,14,34,2,-26,24,195,29,-39,-43,-29,-34
-9,19,29,-4,-19,24,107,-19,-63,-53,-39,-34
-4,9,14,-2,-9,12,24,-53,-82,-68,-53,-39
9,4,-4,-7,7,0,-14,-58,-92,-82,-58,-39
19,4,-14,-12,17,-4,-24,-63,-97,-92,-63,-39
24,4,-19,-14,21,-7,-19,-58,-92,-87,-63,-29
24,9,-14,-17,19,-2,-9,-53,-87,-87,-58,-24
24,14,-9,-19,17,2,-14,-48,-82,-78,-53,-19
24,14,-9,-19,17,2,-19,-48,-82,-73,-48,-19
34,19,-14,-26,24,2,-19,-43,-87,-73,-48,-19
14,19,4,-17,4,12,-14,-43,-92,-78,-53,-24
-39,-4,34,21,-36,14,0,-68,-107,-87,-68,-48
-78,-19,58,48,-68,19,14,-73,-112,-102,-87,-68
-112,-48,63,80,-87,7,29,-78,-112,-112,-92,-82
-126,-58,68,92,-97,4,34,-82,-117,-112,-92,-87
-122,-58,63,90,-92,2,34,-82,-117,-112,-102,-97
-122,-58,63,90,-92,2,34,-82,-117,-117,-107,-102
-131,-58,73,95,-102,7,34,-82,-117,-117,-107,-102
-131,-58,73,95,-102,7,34,-82,-117,-117,-107,-102
-136,-58,78,97,-107,9,39,-82,-112,-117,-107,-107
-141,-58,82,100,-112,12,39,-82,-112,-117,-107,-107
-141,-58,82,100,-112,12,39,-82,-117,-117,-107,-107
-146,-58,87,102,-117,14,39,-78,-117,-117,-107,-107
-146,-58,87,102,-117,14,43,-78,-112,-117,-107,-107
-151,-58,92,104,-122,17,43,-78,-112,-117,-107,-107
-156,-58,97,107,-126,19,43,-78,-112,-117,-107,-107
-161,-58,102,109,-131,21,48,-78,-112,-117,-107,-107
-161,-58,102,109,-131,21,48,-78,-107,-117,-107,-107
-161,-58,102,109,-131,21,48,-78,-102,-112,-107,-112
-165,-63,102,114,-134,19,48,-78,-102,-112,-107,-112
-165,-68,97,117,-131,14,48,-73,-97,-112,-107,-112
-161,-63,97,112,-129,17,48,-73,-107,-112,-107,-107
-156,-58,97,107,-126,19,48,-73,-112,-112,-102,-107
-156,-58,97,107,-126,19,48,-78,-107,-107,-102,-107
-161,-48,112,104,-136,31,53,-78,-87,-87,-92,-102
-165,-19,146,92,-156,63,78,24,29,-14,-43,-78
-190,29,219,80,-204,124,165,165,229,117,34,-58
-263,87,351,87,-307,219,244,146,424,278,136,-29
-351,204,556,73,-453,380,219,-224,405,434,268,39
-409,351,761,29,-585,556,151,-629,395,658,478,156
-341,507,849,-82,-595,678,-82,-1293,0,717,653,366
-112,653,766,-270,-439,710,-522,-1917,-629,605,780,605
161,785,624,-473,-231,705,-1005,-2498,-1278,351,829,849
541,946,405,-744,68,675,-1756,-3215,-2083,63,922,1205
883,883,0,-883,441,441,-2239,-3611,-2557,-317,727,1259
1190,370,-819,-780,1005,-224,-2308,-3430,-2727,-985,-107,722
1395,-341,-1737,-527,1566,-1039,-2147,-2845,-2732,-1556,-824,141
1390,-863,-2254,-263,1822,-1559,-1854,-2386,-2815,-2147,-1517,-478
1210,-1000,-2210,-104,1710,-1605,-1532,-1991,-2752,-2366,-1825,-834
888,-902,-1790,7,1339,-1346,-1180,-1673,-2479,-2166,-1712,-897
688,-814,-1503,63,1095,-1159,-907,-1327,-2000,-1790,-1464,-829
527,-678,-1205,75,866,-941,-688,-1010,-1493,-1385,-1176,-702
336,-448,-785,56,561,-617,-448,-688,-980,-922,-790,-478
136,-214,-351,39,244,-283,-219,-341,-502,-483,-409,-239
-43,-126,-82,85,19,-104,-58,-126,-204,-248,-234,-165
-68,-102,-34,85,-17,-68,19,14,-53,-146,-165,-146
-78,-63,14,70,-46,-24,73,112,43,-58,-97,-107
-82,-48,34,65,-58,-7,97,151,87,-9,-43,-68
-97,-39,58,68,-78,9,107,161,107,4,-29,-58
-102,-34,68,68,-85,17,112,180,141,14,-29,-58
-117,-34,82,75,-100,24,122,195,161,24,-19,-58
-122,-34,87,78,-104,26,141,204,165,43,-9,-58
-122,-29,92,75,-107,31,151,219,185,63,0,-53
-126,-19,107,73,-117,43,151,244,204,73,9,-48
-126,-14,112,70,-119,48,151,258,214,78,9,-48
-126,-14,112,70,-119,48,156,263,224,82,14,-43
-126,-9,117,68,-122,53,161,273,234,92,24,-43
-126,-14,112,70,-119,48,165,283,244,102,24,-39
-126,-19,107,73,-117,43,165,292,258,107,29,-34
-122,-19,102,70,-112,41,165,297,268,112,34,-39
-122,-14,107,68,-114,46,170,307,273,117,39,-39
-122,-14,107,68,-114,46,170,317,292,126,43,-34
-117,-9,107,63,-112,48,170,326,307,136,48,-29
-112,-9,102,61,-107,46,170,336,317,141,53,-29
-107,-4,102,56,-104,48,170,336,326,146,58,-29
-102,-4,97,53,-100,46,170,351,341,156,63,-24
-97,-4,92,51,-95,43,170,366,351,165,73,-19
-87,0,87,43,-87,43,170,380,361,175,78,-14
-82,4,87,39,-85,46,170,395,375,185,87,-9
-73,4,78,34,-75,41,170,414,395,195,92,-4
-68,14,82,26,-75,48,170,434,409,204,102,-4
-63,19,82,21,-73,51,170,453,429,224,107,0
-58,24,82,17,-70,53,170,468,448,239,117,14
-48,29,78,9,-63,53,170,492,473,253,126,19
-39,39,78,0,-58,58,170,522,497,268,141,29
-29,43,73,-7,-51,58,170,551,527,278,156,43
-19,53,73,-17,-46,63,170,580,551,292,165,53
-9,63,73,-26,-41,68,170,610,580,312,180,58
0,68,68,-34,-34,68,170,644,610,331,195,68
14,82,68,-48,-26,75,170,678,639,356,214,82
29,92,63,-61,-17,78,170,717,668,385,234,102
43,102,58,-73,-7,80,175,756,697,405,248,117
58,122,63,-90,-2,92,175,795,732,429,268,126
78,136,58,-107,9,97,161,824,766,448,283,141
97,151,53,-124,21,102,165,868,795,478,307,151
117,170,53,-143,31,112,161,907,824,492,326,175
131,190,58,-161,36,124,151,932,854,512,351,195
151,209,58,-180,46,134,141,956,883,536,370,214
170,229,58,-200,56,143,131,980,902,556,395,239
195,248,53,-222,70,151,122,1005,922,575,419,258
214,268,53,-241,80,161,107,1015,946,600,439,283
229,287,58,-258,85,173,92,1019,956,610,458,302
248,307,58,-278,95,183,78,1019,966,619,478,322
268,317,48,-292,109,183,63,1005,966,629,488,351
278,336,58,-307,109,197,48,976,956,634,497,370
287,346,58,-317,114,202,29,927,932,639,507,385
287,351,63,-319,112,207,9,858,883,629,512,395
287,351,63,-319,112,207,-9,790,824,605,507,395
278,346,68,-312,104,207,-24,712,761,566,488,395
258,326,68,-292,95,197,-29,624,688,522,453,380
229,297,68,-263,80,183,-34,541,610,473,419,346
209,273,63,-241,73,168,-34,458,527,419,375,312
180,244,63,-212,58,153,-29,385,444,356,322,278
151,204,53,-178,48,129,-19,317,370,297,263,239
112,170,58,-141,26,114,-14,253,302,248,219,190
82,136,53,-109,14,95,-4,195,234,195,175,151
48,102,53,-75,-2,78,4,146,180,146,136,117
19,73,53,-46,-17,63,19,107,131,102,92,82
-4,43,48,-19,-26,46,24,68,92,68,53,48
-24,29,53,-2,-39,41,34,48,48,39,29,14
-43,4,48,19,-46,26,39,34,24,14,4,0
-53,-14,39,34,-46,12,39,14,4,-14,-14,-14
-68,-34,34,51,-51,0,48,0,-9,-24,-34,-29
-78,-39,39,58,-58,0,48,-9,-29,-43,-48,-53
-87,-48,39,68,-63,-4,53,-19,-43,-58,-53,-63
-87,-53,34,70,-61,-9,58,-34,-58,-68,-63,-73
-92,-58,34,75,-63,-12,58,-39,-68,-73,-73,-78
-92,-58,34,75,-63,-12,58,-48,-73,-73,-82,-82
-97,-63,34,80,-65,-14,58,-48,-78,-87,-87,-82
-97,-63,34,80,-65,-14,58,-48,-82,-87,-92,-82
-97,-63,34,80,-65,-14,63,-48,-92,-87,-92,-82
-97,-68,29,82,-63,-19,63,-53,-92,-87,-92,-87
-97,-68,29,82,-63,-19,58,-53,-97,-92,-97,-87
-97,-68,29,82,-63,-19,58,-58,-92,-92,-97,-87
-97,-73,24,85,-61,-24,58,-58,-92,-87,-97,-87
-97,-73,24,85,-61,-24,58,-53,-92,-87,-97,-92
-97,-73,24,85,-61,-24,58,-53,-92,-87,-97,-92
-92,-73,19,82,-56,-26,58,-48,-87,-87,-102,-92
-87,-73,14,80,-51,-29,58,-48,-82,-87,-102,-92
-82,-73,9,78,-46,-31,63,-43,-78,-87,-97,-87
-82,-73,9,78,-46,-31,63,-39,-78,-82,-97,-87
-82,-73,9,78,-46,-31,63,-34,-73,-82,-97,-87
-82,-73,9,78,-46,-31,63,-29,-73,-82,-97,-87
-82,-73,9,78,-46,-31,63,-29,-73,-78,-97,-87
-82,-73,9,78,-46,-31,63,-24,-68,-78,-92,-87
-87,-73,14,80,-51,-29,63,-29,-63,-82,-92,-87
-87,-73,14,80,-51,-29,63,-29,-63,-82,-92,-87
-87,-73,14,80,-51,-29,63,-24,-58,-82,-92,-92
-87,-73,14,80,-51,-29,63,-24,-58,-78,-87,-92
-87,-68,19,78,-53,-24,68,-19,-58,-78,-87,-97
-87,-68,19,78,-53,-24,68,-19,-53,-78,-87,-92
-92,-68,24,80,-58,-21,68,-14,-53,-78,-87,-92
-92,-68,24,80,-58,-21,68,-14,-48,-78,-87,-92
-92,-68,24,80,-58,-21,68,-14,-48,-68,-87,-92
-92,-68,24,80,-58,-21,68,-14,-48,-63,-82,-97
-92,-68,24,80,-58,-21,68,-14,-48,-63,-82,-97
-92,-68,24,80,-58,-21,68,-14,-48,-63,-82,-97
-87,-63,24,75,-56,-19,73,-14,-48,-68,-82,-97
-87,-63,24,75,-56,-19,73,-14,-48,-73,-82,-97
-87,-63,24,75,-56,-19,68,-14,-48,-73,-82,-97
-87,-63,24,75,-56,-19,68,-14,-48,-68,-87,-97
-92,-63,29,78,-61,-17,68,-14,-48,-68,-87,-97
-97,-63,34,80,-65,-14,68,-14,-48,-73,-87,-97
-97,-63,34,80,-65,-14,68,-14,-48,-73,-87,-97
-97,-63,34,80,-65,-14,68,-14,-48,-73,-87,-102
-92,-63,29,78,-61,-17,68,-14,-48,-73,-87,-102
-92,-63,29,78,-61,-17,73,-19,-53,-73,-87,-102
-92,-63,29,78,-61,-17,73,-19,-53,-73,-87,-97
-92,-63,29,78,-61,-17,68,-24,-53,-73,-87,-97
-92,-58,34,75,-63,-12,68,-24,-63,-73,-87,-102
-92,-53,39,73,-65,-7,68,-24,-68,-73,-87,-102
-92,-53,39,73,-65,-7,73,-19,-68,-73,-92,-97
-97,-53,43,75,-70,-4,73,-19,-73,-73,-97,-97
-97,-53,43,75,-70,-4,73,-24,-73,-78,-97,-97
-97,-53,43,75,-70,-4,73,-24,-73,-78,-102,-102
-102,-53,48,78,-75,-2,73,-29,-73,-78,-107,-107
-107,-53,53,80,-80,0,73,-29,-68,-82,-107,-112
-107,-58,48,82,-78,-4,68,-39,-68,-82,-107,-112
-107,-63,43,85,-75,-9,63,-43,-73,-82,-107,-112
-107,-63,43,85,-75,-9,63,-43,-73,-87,-107,-112
-107,-63,43,85,-75,-9,63,-48,-73,-87,-107,-112
-107,-68,39,87,-73,-14,63,-48,-78,-87,-107,-112
-112,-68,43,90,-78,-12,63,-48,-78,-87,-107,-112
-112,-63,48,87,-80,-7,63,-48,-78,-92,-102,-112
-112,-63,48,87,-80,-7,63,-48,-78,-92,-97,-112
-112,-63,48,87,-80,-7,58,-48,-78,-92,-102,-107
-112,-63,48,87,-80,-7,58,-43,-78,-92,-102,-102
-107,-68,39,87,-73,-14,58,-43,-78,-92,-102,-107
-102,-68,34,85,-68,-17,58,-48,-82,-92,-102,-107
-102,-68,34,85,-68,-17,58,-48,-82,-92,-102,-107
-102,-68,34,85,-68,-17,58,-48,-82,-92,-102,-107
-102,-58,43,80,-73,-7,58,-43,-78,-87,-102,-107
-102,-53,48,78,-75,-2,63,-43,-73,-82,-102,-107
-102,-53,48,78,-75,-2,73,-43,-73,-82,-97,-102
-97,-48,48,73,-73,0,82,-43,-68,-78,-87,-102
-87,-48,39,68,-63,-4,102,-19,-48,-68,-78,-97
-78,-53,24,65,-51,-14,122,0,-34,-63,-73,-92
-68,-48,19,58,-43,-14,131,14,-14,-48,-58,-78
-58,-48,9,53,-34,-19,146,29,0,-39,-48,-68
-43,-34,9,39,-26,-12,156,43,4,-34,-48,-63
-29,-19,9,24,-19,-4,165,58,9,-29,-48,-58
-19,-34,-14,26,-2,-24,175,58,9,-29,-48,-58
-14,-43,-29,29,7,-36,185,63,4,-29,-48,-53
-9,-53,-43,31,17,-48,200,73,0,-34,-48,-53
-9,-48,-39,29,14,-43,204,63,-4,-34,-48,-53
-9,-4,4,7,-7,0,200,39,-19,-43,-48,-53
0,14,14,-7,-7,14,146,0,-43,-53,-58,-53
4,0,-4,-2,4,-2,29,-43,-73,-73,-73,-58
19,-4,-24,-7,21,-14,-34,-63,-87,-82,-73,-58
29,-9,-39,-9,34,-24,-24,-63,-92,-82,-73,-58
29,-14,-43,-7,36,-29,-19,-58,-92,-78,-73,-53
24,-9,-34,-7,29,-21,-4,-53,-87,-78,-68,-53
24,-4,-29,-9,26,-17,0,-48,-82,-73,-68,-48
29,-4,-34,-12,31,-19,0,-43,-78,-73,-63,-43
29,-4,-34,-12,31,-19,0,-39,-78,-73,-58,-43
19,0,-19,-9,19,-9,0,-34,-82,-73,-63,-43
-9,-14,-4,12,-2,-9,9,-48,-97,-78,-78,-58
-68,-29,39,48,-53,4,24,-68,-102,-92,-97,-87
-107,-48,58,78,-82,4,34,-82,-102,-102,-102,-107
-117,-58,58,87,-87,0,39,-82,-107,-107,-102,-107
-122,-68,53,95,-87,-7,43,-82,-107,-107,-107,-112
-122,-68,53,95,-87,-7,43,-78,-107,-107,-112,-112
-131,-68,63,100,-97,-2,43,-73,-107,-107,-117,-112
-131,-68,63,100,-97,-2,48,-73,-107,-107,-117,-112
-136,-68,68,102,-102,0,58,-73,-102,-107,-117,-117
-141,-68,73,104,-107,2,58,-73,-102,-107,-117,-122
-141,-68,73,104,-107,2,58,-73,-107,-107,-117,-126
-146,-68,78,107,-112,4,58,-68,-107,-107,-117,-126
-146,-68,78,107,-112,4,63,-68,-102,-107,-117,-126
-151,-68,82,109,-117,7,58,-68,-102,-107,-117,-126
-151,-68,82,109,-117,7,53,-68,-102,-107,-117,-126
-151,-68,82,109,-117,7,58,-68,-102,-107,-117,-126
-151,-68,82,109,-117,7,58,-68,-102,-107,-117,-126
-151,-68,82,109,-117,7,58,-68,-102,-102,-117,-131
-156,-68,87,112,-122,9,58,-68,-102,-102,-117,-131
-156,-73,82,114,-119,4,58,-63,-97,-102,-117,-131
-156,-73,82,114,-119,4,58,-63,-97,-102,-117,-126
-156,-73,82,114,-119,4,58,-68,-102,-107,-117,-131
-156,-73,82,114,-119,4,58,-63,-92,-97,-112,-131
-151,-63,87,107,-119,12,43,-73,-102,-102,-112,-126
-156,-29,126,92,-141,48,48,-9,-14,-43,-68,-102
-180,14,195,82,-187,104,161,239,253,107,9,-87
-234,63,297,85,-265,180,244,273,463,268,112,-48
-356,175,531,90,-444,353,258,-97,512,453,258,9
-409,312,722,48,-566,517,190,-507,507,649,448,112
-351,478,829,-63,-590,653,-34,-1273,87,722,624,317
-156,619,775,-231,-466,697,-434,-1937,-507,624,732,536
141,790,649,-466,-253,719,-966,-2625,-1268,336,810,834
507,912,405,-710,51,658,-1639,-3308,-2064,14,829,1107
878,912,34,-895,422,473,-2196,-3796,-2591,-380,629,1190
1180,556,-624,-868,902,-34,-2366,-3767,-2859,-976,-39,800
1449,-297,-1747,-575,1598,-1022,-2191,-3054,-2854,-1605,-854,122
1503,-854,-2357,-324,1930,-1605,-1952,-2562,-2879,-2137,-1527,-478
1283,-956,-2239,-163,1761,-1598,-1610,-2166,-2820,-2357,-1825,-844
985,-917,-1903,-34,1444,-1410,-1259,-1820,-2591,-2254,-1805,-971
771,-849,-1620,39,1195,-1234,-985,-1464,-2093,-1859,-1546,-897
585,-736,-1322,75,954,-1029,-746,-1132,-1610,-1483,-1283,-795
385,-463,-849,39,617,-656,-483,-756,-1039,-966,-839,-517
204,-234,-439,14,322,-336,-253,-400,-566,-531,-463,-278
0,-165,-165,82,82,-165,-82,-165,-268,-302,-302,-224
-68,-126,-58,97,-4,-92,14,0,-68,-156,-200,-185
-68,-82,-14,75,-26,-48,63,97,34,-63,-117,-141
-73,-58,14,65,-43,-21,97,161,87,-9,-53,-102
-87,-48,39,68,-63,-4,107,170,97,0,-48,-92
-92,-43,48,68,-70,2,112,190,131,14,-48,-87
-107,-43,63,75,-85,9,122,204,156,24,-39,-82
-112,-43,68,78,-90,12,141,214,165,39,-29,-78
-117,-39,78,78,-97,19,156,229,185,53,-19,-73
-126,-34,92,80,-109,29,161,248,204,63,-9,-68
-126,-34,92,80,-109,29,161,263,214,68,-4,-68
-126,-34,92,80,-109,29,165,273,224,73,4,-63
-126,-29,97,78,-112,34,170,283,234,87,14,-63
-126,-29,97,78,-112,34,175,292,244,102,14,-58
-122,-29,92,75,-107,31,175,302,258,107,19,-53
-112,-29,82,70,-97,26,175,307,268,112,24,-53
-112,-24,87,68,-100,31,180,322,273,117,29,-48
-112,-24,87,68,-100,31,180,336,287,126,34,-43
-107,-14,92,61,-100,39,180,346,297,136,39,-39
-102,-9,92,56,-97,41,180,361,307,141,43,-39
-97,-4,92,51,-95,43,180,366,317,146,43,-39
-92,-4,87,48,-90,41,180,380,331,156,43,-34
-92,-4,87,48,-90,41,180,395,341,165,53,-29
-87,0,87,43,-87,43,180,409,356,175,58,-24
-82,4,87,39,-85,46,180,419,375,185,68,-19
-73,4,78,34,-75,41,180,434,395,195,73,-14
-68,9,78,29,-73,43,180,453,409,204,82,-19
-63,9,73,26,-68,41,180,473,429,219,87,-19
-58,14,73,21,-65,43,180,488,448,229,97,-4
-48,19,68,14,-58,43,180,512,468,244,107,0
-39,29,68,4,-53,48,180,541,488,258,122,9
-29,34,63,-2,-46,48,180,570,517,273,136,19
-19,43,63,-12,-41,53,180,605,541,287,146,24
-9,53,63,-21,-36,58,180,639,570,302,161,29
0,58,58,-29,-29,58,180,673,600,322,175,39
14,73,58,-43,-21,65,180,707,629,341,195,53
29,82,53,-56,-12,68,180,746,658,366,214,73
43,92,48,-68,-2,70,180,785,688,385,229,87
58,112,53,-85,2,82,185,834,722,409,244,97
78,126,48,-102,14,87,175,863,756,429,253,117
97,141,43,-119,26,92,175,902,785,458,278,126
117,161,43,-139,36,102,170,941,814,478,297,146
131,180,48,-156,41,114,161,961,844,502,322,165
151,200,48,-175,51,124,151,985,873,527,341,185
175,219,43,-197,65,131,141,1015,893,546,366,209
204,239,34,-222,85,136,131,1039,912,566,390,229
224,258,34,-241,95,146,117,1049,936,590,409,253
239,278,39,-258,100,158,102,1058,941,600,429,273
258,297,39,-278,109,168,87,1058,946,610,453,292
278,307,29,-292,124,168,68,1044,946,619,468,317
292,326,34,-309,129,180,48,1019,941,624,478,331
307,336,29,-322,139,183,29,976,922,624,483,346
307,341,34,-324,136,187,4,907,878,614,488,361
307,341,34,-324,136,187,-14,839,824,595,488,366
302,341,39,-322,131,190,-29,756,761,561,468,366
287,326,39,-307,124,183,-34,663,688,522,434,346
258,302,43,-280,107,173,-34,575,610,473,405,317
234,278,43,-256,95,161,-34,488,527,419,366,292
200,244,43,-222,78,143,-29,405,444,361,312,258
170,204,34,-187,68,119,-19,326,370,307,253,219
131,170,39,-151,46,104,-14,263,302,258,209,170
102,136,34,-119,34,85,-4,209,234,204,165,131
68,102,34,-85,17,68,4,161,180,156,126,97
43,78,34,-61,4,56,19,117,131,112,82,63
24,48,24,-36,0,36,24,68,92,78,43,29
4,29,24,-17,-9,26,34,39,48,48,19,-4
-19,4,24,7,-21,14,39,24,24,24,-4,-19
-34,-14,19,24,-26,2,39,4,4,-4,-24,-34
-48,-34,14,41,-31,-9,48,-9,-9,-19,-43,-48
-58,-39,19,48,-39,-9,48,-19,-29,-39,-58,-68
-73,-48,24,61,-48,-12,53,-29,-43,-48,-63,-73
-78,-53,24,65,-51,-14,58,-39,-53,-58,-73,-82
-82,-58,24,70,-53,-17,58,-39,-63,-63,-82,-92
-82,-58,24,70,-53,-17,58,-48,-73,-63,-87,-102
-87,-63,24,75,-56,-19,58,-48,-78,-78,-92,-102
-87,-63,24,75,-56,-19,58,-48,-78,-78,-102,-102
-87,-63,24,75,-56,-19,63,-48,-82,-78,-102,-102
-87,-68,19,78,-53,-24,63,-53,-82,-78,-102,-107
-82,-68,14,75,-48,-26,58,-53,-87,-82,-107,-102
-78,-68,9,73,-43,-29,58,-58,-87,-87,-107,-97
-78,-73,4,75,-41,-34,58,-58,-92,-92,-107,-97
-78,-73,4,75,-41,-34,58,-53,-92,-97,-107,-102
-78,-73,4,75,-41,-34,58,-58,-92,-97,-107,-107
-78,-73,4,75,-41,-34,58,-58,-87,-97,-112,-112
-82,-73,9,78,-46,-31,58,-58,-87,-97,-117,-117
-82,-73,9,78,-46,-31,63,-53,-87,-97,-117,-117
-82,-73,9,78,-46,-31,58,-48,-87,-92,-117,-117
-82,-73,9,78,-46,-31,53,-43,-82,-92,-117,-117
-82,-73,9,78,-46,-31,53,-39,-78,-92,-112,-112
-82,-73,9,78,-46,-31,53,-39,-73,-87,-107,-107
-82,-73,9,78,-46,-31,58,-34,-68,-82,-102,-107
-82,-73,9,78,-46,-31,63,-34,-63,-78,-102,-107
-78,-73,4,75,-41,-34,63,-29,-63,-73,-102,-102
-78,-73,4,75,-41,-34,63,-24,-58,-73,-102,-102
-78,-73,4,75,-41,-34,63,-24,-58,-68,-97,-102
-78,-68,9,73,-43,-29,68,-19,-58,-68,-97,-102
-78,-68,9,73,-43,-29,68,-14,-53,-68,-97,-97
-82,-68,14,75,-48,-26,68,-4,-53,-68,-97,-102
-82,-68,14,75,-48,-26,68,-4,-48,-68,-97,-102
-82,-68,14,75,-48,-26,68,-4,-48,-63,-97,-102
-82,-68,14,75,-48,-26,68,-4,-48,-63,-92,-107
-82,-68,14,75,-48,-26,68,-4,-48,-63,-92,-107
-82,-68,14,75,-48,-26,68,-4,-48,-63,-92,-107
-82,-63,19,73,-51,-21,73,-4,-48,-63,-92,-107
-87,-63,24,75,-56,-19,73,-4,-48,-63,-92,-107
-87,-63,24,75,-56,-19,68,-4,-48,-63,-92,-107
-87,-63,24,75,-56,-19,68,-4,-48,-58,-97,-107
-87,-63,24,75,-56,-19,68,-4,-48,-58,-97,-107
-87,-63,24,75,-56,-19,68,-4,-48,-63,-97,-107
-87,-63,24,75,-56,-19,68,-4,-48,-63,-97,-107
-87,-63,24,75,-56,-19,68,-4,-48,-63,-97,-107
-87,-63,24,75,-56,-19,68,-4,-48,-63,-97,-102
-92,-63,29,78,-61,-17,73,-9,-53,-63,-97,-102
-92,-63,29,78,-61,-17,73,-9,-53,-63,-97,-97
-92,-68,24,80,-58,-21,68,-14,-53,-63,-97,-97
-92,-73,19,82,-56,-26,68,-14,-58,-63,-97,-102
-92,-73,19,82,-56,-26,68,-14,-58,-63,-92,-102
-92,-73,19,82,-56,-26,68,-14,-58,-63,-87,-97
-97,-73,24,85,-61,-24,63,-19,-63,-63,-87,-97
-97,-73,24,85,-61,-24,63,-24,-63,-68,-87,-97
-97,-73,24,85,-61,-24,63,-24,-63,-68,-92,-102
-97,-73,24,85,-61,-24,63,-29,-68,-68,-97,-102
-97,-73,24,85,-61,-24,63,-29,-68,-73,-97,-107
-97,-73,24,85,-61,-24,63,-34,-68,-73,-97,-112
-97,-73,24,85,-61,-24,63,-34,-73,-73,-97,-112
-97,-73,24,85,-61,-24,63,-34,-73,-78,-97,-112
-97,-73,24,85,-61,-24,63,-39,-73,-78,-97,-112
-97,-78,19,87,-58,-29,63,-39,-78,-78,-97,-112
-102,-78,24,90,-63,-26,63,-39,-78,-78,-97,-112
-102,-73,29,87,-65,-21,63,-39,-78,-82,-97,-112
-102,-73,29,87,-65,-21,63,-39,-78,-82,-97,-107
-102,-73,29,87,-65,-21,58,-43,-78,-82,-102,-102
-102,-73,29,87,-65,-21,58,-43,-78,-82,-97,-102
-102,-78,24,90,-63,-26,58,-43,-78,-82,-92,-107
-102,-78,24,90,-63,-26,58,-48,-82,-82,-92,-107
-102,-78,24,90,-63,-26,58,-48,-82,-82,-92,-107
-102,-78,24,90,-63,-26,58,-53,-82,-82,-92,-107
-102,-73,29,87,-65,-21,58,-53,-82,-82,-92,-107
-107,-73,34,90,-70,-19,63,-53,-82,-82,-97,-107
-112,-73,39,92,-75,-17,63,-53,-82,-82,-97,-102
-107,-73,34,90,-70,-19,63,-53,-87,-82,-97,-102
-107,-68,39,87,-73,-14,63,-53,-87,-87,-97,-102
-102,-68,34,85,-68,-17,63,-43,-78,-82,-97,-97
-97,-68,29,82,-63,-19,68,-39,-73,-78,-92,-97
-97,-68,29,82,-63,-19,78,-24,-63,-68,-92,-92
-82,-63,19,73,-51,-21,97,-14,-43,-53,-87,-87
-73,-58,14,65,-43,-21,122,9,-24,-48,-78,-87
-68,-58,9,63,-39,-24,146,39,-9,-48,-68,-87
-58,-48,9,53,-34,-19,146,39,-9,-34,-53,-68
-48,-39,9,43,-29,-14,146,39,-9,-19,-39,-48
-34,-39,-4,36,-14,-21,156,48,-4,-19,-39,-48
-19,-39,-19,29,0,-29,170,53,0,-14,-39,-48
-9,-43,-34,26,12,-39,185,63,0,-14,-39,-48
-9,-39,-29,24,9,-34,195,68,-4,-19,-39,-43
-9,-19,-9,14,0,-14,200,58,-14,-24,-39,-43
-9,4,14,2,-12,9,185,48,-29,-34,-39,-43
0,9,9,-4,-4,9,107,-4,-53,-43,-48,-43
4,0,-4,-2,4,-2,34,-43,-73,-58,-63,-48
19,-4,-24,-7,21,-14,-14,-48,-82,-68,-68,-48
29,-4,-34,-12,31,-19,-34,-53,-87,-73,-73,-48
29,-9,-39,-9,34,-24,-19,-48,-82,-68,-73,-43
24,-9,-34,-7,29,-21,0,-43,-78,-68,-68,-43
24,-4,-29,-9,26,-17,0,-39,-73,-63,-63,-39
24,-4,-29,-9,26,-17,0,-39,-73,-63,-58,-39
39,4,-34,-21,36,-14,-4,-39,-78,-63,-58,-39
24,9,-14,-17,19,-2,-4,-43,-82,-68,-63,-43
-39,-14,24,26,-31,4,9,-68,-97,-78,-78,-68
-87,-29,58,58,-73,14,24,-73,-102,-92,-97,-87
-122,-53,68,87,-95,7,34,-73,-102,-102,-102,-97
-136,-58,78,97,-107,9,34,-73,-107,-102,-102,-97
-122,-58,63,90,-92,2,34,-73,-112,-102,-112,-107
-112,-58,53,85,-82,-2,34,-73,-117,-107,-117,-112
-122,-58,63,90,-92,2,39,-73,-117,-107,-117,-112
-122,-58,63,90,-92,2,43,-73,-117,-107,-117,-112
-131,-63,68,97,-100,2,48,-73,-107,-102,-117,-117
-141,-68,73,104,-107,2,48,-73,-102,-97,-117,-117
-141,-68,73,104,-107,2,48,-73,-107,-97,-117,-117
-146,-68,78,107,-112,4,48,-68,-107,-97,-117,-117
-151,-68,82,109,-117,7,53,-68,-102,-97,-117,-117
-161,-68,92,114,-126,12,53,-68,-102,-97,-117,-117
-161,-68,92,114,-126,12,53,-68,-102,-97,-117,-112
-161,-68,92,114,-126,12,58,-68,-102,-97,-117,-107
-156,-68,87,112,-122,9,58,-68,-102,-97,-112,-107
-151,-68,82,109,-117,7,58,-68,-102,-92,-107,-112
-156,-68,87,112,-122,9,58,-68,-102,-92,-107,-112
-156,-68,87,112,-122,9,58,-63,-97,-92,-107,-112
-156,-63,92,109,-124,14,58,-63,-97,-92,-112,-107
-156,-58,97,107,-126,19,58,-63,-92,-92,-112,-107
-146,-63,82,104,-114,9,53,-73,-107,-102,-112,-112
-141,-58,82,100,-112,12,53,-78,-107,-97,-102,-112
-146,-24,122,85,-134,48,63,43,4,-29,-53,-82
-170,29,200,70,-185,114,136,204,200,97,24,-58
-234,63,297,85,-265,180,253,278,458,258,122,-34
-312,156,468,78,-390,312,268,0,502,414,248,29
-409,302,712,53,-561,507,244,-414,566,678,458,122
-380,458,839,-39,-610,649,53,-1088,244,775,634,307
-161,610,771,-224,-466,690,-356,-1761,-409,668,756,546
102,746,644,-424,-270,695,-810,-2391,-1083,419,800,790
488,971,483,-729,2,727,-1615,-3225,-1995,117,936,1200
834,971,136,-902,348,553,-2152,-3738,-2576,-278,785,1307
1176,502,-673,-839,924,-85,-2293,-3650,-2825,-966,-58,775
1415,-165,-1581,-624,1498,-873,-2205,-3157,-2908,-1556,-785,200
1434,-780,-2215,-326,1825,-1498,-1937,-2659,-2971,-2181,-1532,-463
1278,-1010,-2288,-134,1783,-1649,-1639,-2225,-2888,-2435,-1893,-863
946,-912,-1859,-17,1403,-1385,-1273,-1873,-2630,-2259,-1795,-941
736,-824,-1561,43,1149,-1193,-985,-1493,-2166,-1908,-1561,-888
575,-707,-1283,65,929,-995,-756,-1146,-1629,-1493,-1263,-761
385,-497,-883,56,634,-690,-507,-795,-1088,-1019,-868,-536
175,-239,-414,31,295,-326,-258,-405,-580,-546,-458,-273
-14,-126,-112,70,48,-119,-78,-146,-253,-278,-253,-175
-43,-107,-63,75,9,-85,4,0,-78,-156,-180,-156
-58,-73,-14,65,-21,-43,63,102,43,-48,-107,-117
-63,-53,9,58,-36,-21,92,151,82,0,-53,-73
-78,-39,39,58,-58,0,107,170,97,14,-39,-58
-82,-34,48,58,-65,7,112,190,136,24,-39,-58
-97,-34,63,65,-80,14,122,204,161,34,-29,-58
-107,-29,78,68,-92,24,146,214,165,53,-14,-53
-112,-19,92,65,-102,36,161,229,185,73,0,-43
-117,-14,102,65,-109,43,161,248,204,82,14,-39
-117,-14,102,65,-109,43,161,258,214,87,19,-39
-117,-14,102,65,-109,43,165,263,224,92,24,-34
-117,-9,107,63,-112,48,170,273,234,102,34,-34
-117,-9,107,63,-112,48,175,283,244,112,34,-29
-117,-9,107,63,-112,48,175,292,258,117,39,-24
-112,-9,102,61,-107,46,175,297,268,122,43,-24
-112,-4,107,58,-109,51,180,307,273,126,48,-19
-112,-4,107,58,-109,51,180,317,287,136,53,-14
-107,0,107,53,-107,53,180,326,297,146,58,-9
-102,0,102,51,-102,51,180,341,312,151,68,-9
-97,4,102,46,-100,53,180,346,326,156,78,-9
-92,4,97,43,-95,51,180,361,341,165,82,-4
-87,4,92,41,-90,48,180,375,351,175,92,0
-78,4,82,36,-80,43,180,390,361,185,92,4
-73,4,78,34,-75,41,180,405,375,195,97,9
-63,4,68,29,-65,36,180,424,395,204,102,14
-58,14,73,21,-65,43,180,444,409,214,112,14
-53,19,73,17,-63,46,175,458,424,229,117,19
-48,24,73,12,-61,48,170,468,439,239,126,34
-39,29,68,4,-53,48,170,492,458,253,136,39
-29,39,68,-4,-48,53,170,522,478,268,151,48
-19,43,63,-12,-41,53,175,551,507,283,165,63
-9,53,63,-21,-36,58,180,580,531,302,175,73
0,63,63,-31,-31,63,180,610,561,317,190,78
9,68,58,-39,-24,63,180,644,590,331,204,87
24,82,58,-53,-17,70,175,673,619,351,224,102
39,92,53,-65,-7,73,170,707,649,375,244,122
53,102,48,-78,2,75,170,746,678,395,258,136
68,122,53,-95,7,87,165,785,712,419,278,146
82,136,53,-109,14,95,151,805,746,444,297,165
97,151,53,-124,21,102,156,839,775,478,326,180
117,170,53,-143,31,112,151,873,805,502,351,204
131,190,58,-161,36,124,141,893,834,531,380,224
151,209,58,-180,46,134,131,917,873,556,400,244
170,229,58,-200,56,143,122,941,902,575,424,268
195,248,53,-222,70,151,112,961,922,595,448,287
214,268,53,-241,80,161,97,966,946,619,468,312
229,287,58,-258,85,173,82,976,956,634,492,331
248,307,58,-278,95,183,68,980,966,649,517,351
273,317,43,-295,114,180,48,976,971,658,531,380
287,336,48,-312,119,192,29,956,966,663,546,400
297,351,53,-324,122,202,9,917,951,673,551,414
297,361,63,-329,117,212,-9,858,912,668,551,424
302,366,63,-334,119,214,-24,795,858,649,551,434
297,366,68,-331,114,217,-34,722,800,614,536,444
283,351,68,-317,107,209,-34,639,736,580,512,429
258,326,68,-292,95,197,-34,561,668,541,488,395
234,297,63,-265,85,180,-34,478,585,488,444,361
200,263,63,-231,68,163,-29,405,502,424,390,326
170,229,58,-200,56,143,-19,331,419,356,326,287
131,200,68,-165,31,134,-14,263,341,297,278,239
97,165,68,-131,14,117,-4,204,268,244,229,195
58,131,73,-95,-7,102,4,156,209,195,185,156
34,97,63,-65,-14,80,19,117,156,146,141,122
14,63,48,-39,-17,56,24,78,112,107,102,87
-9,48,58,-19,-34,53,39,53,63,73,73,48
-34,24,58,4,-46,41,48,34,34,43,43,29
-43,0,43,21,-43,21,48,14,9,9,19,14
-58,-24,34,41,-46,4,58,0,-9,-4,-4,0
-68,-29,39,48,-53,4,58,-9,-29,-19,-19,-19
-78,-39,39,58,-58,0,63,-19,-43,-29,-24,-24
-78,-39,39,58,-58,0,68,-29,-58,-39,-34,-34
-82,-39,43,61,-63,2,68,-29,-68,-43,-43,-39
-82,-39,43,61,-63,2,68,-43,-73,-43,-48,-48
-87,-43,43,65,-65,0,68,-48,-78,-58,-48,-53
-87,-48,39,68,-63,-4,68,-48,-78,-63,-53,-53
-87,-53,34,70,-61,-9,73,-48,-82,-68,-53,-53
-87,-58,29,73,-58,-14,73,-53,-82,-68,-53,-58
-87,-58,29,73,-58,-14,68,-53,-87,-73,-58,-58
-87,-58,29,73,-58,-14,68,-58,-87,-78,-58,-58
-87,-63,24,75,-56,-19,68,-58,-92,-78,-58,-58
-87,-68,19,78,-53,-24,68,-48,-92,-78,-58,-63
-87,-73,14,80,-51,-29,68,-43,-92,-78,-58,-63
-87,-73,14,80,-51,-29,68,-39,-87,-78,-63,-63
-87,-73,14,80,-51,-29,68,-39,-82,-78,-63,-63
-82,-73,9,78,-46,-31,73,-34,-78,-78,-58,-58
-82,-73,9,78,-46,-31,73,-29,-78,-73,-58,-58
-82,-73,9,78,-46,-31,73,-24,-73,-73,-58,-58
-82,-73,9,78,-46,-31,73,-19,-73,-73,-58,-58
-87,-68,19,78,-53,-24,73,-19,-73,-68,-58,-58
-92,-63,29,78,-61,-17,73,-14,-68,-68,-53,-58
-92,-63,29,78,-61,-17,73,-14,-58,-68,-53,-53
-87,-63,24,75,-56,-19,73,-9,-53,-63,-53,-48
-87,-63,24,75,-56,-19,73,-4,-48,-63,-58,-53
-87,-63,24,75,-56,-19,73,-4,-48,-58,-58,-53
-87,-58,29,73,-58,-14,78,0,-48,-58,-58,-58
-87,-58,29,73,-58,-14,78,0,-43,-58,-58,-53
-92,-58,34,75,-63,-12,78,4,-48,-58,-58,-53
-92,-58,34,75,-63,-12,78,4,-48,-58,-58,-53
-92,-58,34,75,-63,-12,78,4,-48,-53,-58,-53
-92,-58,34,75,-63,-12,78,4,-48,-53,-53,-58
-92,-58,34,75,-63,-12,78,4,-48,-53,-48,-53
-92,-58,34,75,-63,-12,78,4,-48,-53,-43,-48
-92,-53,39,73,-65,-7,82,4,-43,-53,-43,-48
-97,-53,43,75,-70,-4,82,4,-39,-53,-43,-48
-97,-53,43,75,-70,-4,78,4,-39,-48,-39,-48
-97,-53,43,75,-70,-4,78,4,-39,-39,-39,-48
-97,-53,43,75,-70,-4,78,4,-39,-39,-39,-48
-97,-53,43,75,-70,-4,78,4,-39,-43,-39,-48
-97,-58,39,78,-68,-9,78,4,-39,-43,-39,-48
-97,-63,34,80,-65,-14,78,4,-39,-43,-39,-53
-97,-63,34,80,-65,-14,78,0,-39,-43,-39,-53
-102,-63,39,82,-70,-12,82,-9,-43,-43,-39,-53
-102,-63,39,82,-70,-12,82,-9,-43,-48,-39,-48
-102,-63,39,82,-70,-12,78,-14,-43,-53,-39,-48
-102,-63,39,82,-70,-12,78,-14,-48,-53,-39,-53
-102,-63,39,82,-70,-12,78,-14,-48,-53,-39,-53
-102,-63,39,82,-70,-12,78,-14,-48,-53,-39,-48
-107,-63,43,85,-75,-9,73,-19,-53,-53,-39,-48
-107,-63,43,85,-75,-9,73,-24,-53,-58,-39,-48
-107,-63,43,85,-75,-9,73,-24,-53,-58,-43,-53
-107,-63,43,85,-75,-9,73,-29,-58,-58,-48,-53
-107,-63,43,85,-75,-9,73,-29,-58,-63,-48,-53
-107,-63,43,85,-75,-9,73,-34,-58,-58,-48,-53
-107,-63,43,85,-75,-9,73,-34,-63,-53,-48,-53
-107,-63,43,85,-75,-9,73,-34,-63,-58,-43,-53
-107,-63,43,85,-75,-9,73,-39,-63,-58,-39,-53
-107,-68,39,87,-73,-14,73,-39,-68,-58,-39,-53
-112,-68,43,90,-78,-12,73,-39,-68,-58,-39,-53
-112,-63,48,87,-80,-7,73,-39,-73,-63,-39,-53
-112,-63,48,87,-80,-7,73,-39,-78,-63,-39,-53
-112,-63,48,87,-80,-7,68,-43,-78,-63,-43,-48
-112,-63,48,87,-80,-7,68,-43,-78,-63,-43,-43
-112,-63,48,87,-80,-7,68,-43,-73,-63,-43,-48
-112,-58,53,85,-82,-2,68,-48,-73,-63,-43,-48
-107,-58,48,82,-78,-4,73,-48,-68,-58,-39,-43
-102,-58,43,80,-73,-7,78,-48,-63,-53,-34,-39
-102,-58,43,80,-73,-7,87,-29,-63,-53,-34,-39
-102,-63,39,82,-70,-12,102,-14,-63,-53,-29,-34
-87,-58,29,73,-58,-14,117,0,-43,-39,-19,-29
-78,-53,24,65,-51,-14,131,19,-29,-29,-14,-24
-58,-43,14,51,-36,-14,131,29,-14,-19,-4,-9
-39,-39,0,39,-19,-19,136,39,0,-9,0,0
-39,-39,0,39,-19,-19,151,39,0,-9,0,0
-39,-39,0,39,-19,-19,165,39,0,-9,0,0
-34,-39,-4,36,-14,-21,175,43,4,-4,4,0
-29,-34,-4,31,-12,-19,185,48,0,-4,9,4
-29,-29,0,29,-14,-14,195,58,0,-9,14,9
-29,-9,19,19,-24,4,195,43,-4,-14,19,14
-24,14,39,4,-31,26,185,29,-19,-24,19,14
-9,14,24,-2,-17,19,126,0,-43,-34,9,14
-4,0,4,2,-4,2,29,-34,-63,-48,-4,9
9,-4,-14,-2,12,-9,-14,-43,-68,-53,-4,9
24,-4,-29,-9,26,-17,-4,-48,-73,-53,-4,9
29,-4,-34,-12,31,-19,0,-48,-73,-48,-4,14
24,0,-24,-12,24,-12,9,-43,-68,-48,-4,9
24,4,-19,-14,21,-7,9,-39,-63,-43,-9,9
19,0,-19,-9,19,-9,9,-39,-63,-48,-9,9
9,-4,-14,-2,12,-9,9,-39,-68,-53,-9,4
-24,-9,14,17,-19,2,14,-43,-78,-58,-19,-4
-78,-34,43,56,-61,4,29,-68,-97,-68,-39,-29
-117,-43,73,80,-95,14,43,-73,-102,-82,-58,-48
-136,-58,78,97,-107,9,53,-73,-102,-92,-63,-58
-136,-58,78,97,-107,9,53,-73,-107,-92,-63,-58
-131,-58,73,95,-102,7,53,-73,-107,-87,-68,-63
-131,-58,73,95,-102,7,53,-78,-102,-87,-68,-63
-141,-58,82,100,-112,12,53,-82,-97,-87,-68,-63
-141,-58,82,100,-112,12,53,-82,-97,-87,-68,-63
-146,-58,87,102,-117,14,58,-82,-92,-87,-68,-68
-151,-63,87,107,-119,12,58,-82,-92,-92,-73,-73
-151,-68,82,109,-117,7,58,-82,-97,-97,-78,-78
-156,-68,87,112,-122,9,58,-78,-102,-97,-78,-78
-156,-68,87,112,-122,9,63,-78,-102,-97,-78,-78
-161,-68,92,114,-126,12,63,-78,-102,-92,-73,-78
-161,-68,92,114,-126,12,63,-78,-102,-87,-68,-78
-161,-68,92,114,-126,12,68,-73,-102,-87,-68,-73
-161,-68,92,114,-126,12,68,-68,-102,-87,-68,-68
-161,-68,92,114,-126,12,63,-68,-102,-82,-68,-73
-165,-68,97,117,-131,14,58,-68,-102,-82,-68,-73
-165,-68,97,117,-131,14,58,-63,-97,-82,-68,-78
-165,-63,102,114,-134,19,58,-63,-97,-82,-68,-78
-165,-63,102,114,-134,19,58,-68,-97,-92,-68,-78
-165,-63,102,114,-134,19,58,-63,-82,-87,-63,-73
-161,-68,92,114,-126,12,43,-87,-102,-87,-68,-68
-165,-48,117,107,-141,34,48,-39,-24,-24,-29,-43
-185,-4,180,95,-183,87,161,219,239,112,39,-43
-234,43,278,95,-256,161,244,263,444,258,131,-19
-356,146,502,104,-429,324,278,-9,502,453,278,29
-409,273,683,68,-546,478,229,-322,507,658,468,122
-361,444,805,-41,-583,624,43,-985,141,780,688,346
-175,590,766,-207,-470,678,-317,-1546,-400,732,839,585
92,780,688,-436,-297,734,-800,-2166,-1107,507,985,927
429,922,492,-675,-31,707,-1424,-2781,-1849,248,1073,1244
771,941,170,-856,300,556,-2000,-3352,-2410,-131,902,1376
1044,605,-439,-824,741,82,-2191,-3406,-2713,-712,263,1034
1268,-273,-1542,-497,1405,-907,-2025,-2796,-2757,-1410,-610,336
1278,-854,-2132,-212,1705,-1493,-1795,-2405,-2830,-2010,-1342,-283
1088,-956,-2044,-65,1566,-1500,-1488,-2034,-2796,-2303,-1717,-697
819,-917,-1737,48,1278,-1327,-1171,-1712,-2591,-2274,-1776,-873
653,-834,-1488,90,1071,-1161,-917,-1356,-2069,-1849,-1493,-790
517,-707,-1224,95,871,-966,-697,-1024,-1561,-1444,-1205,-678
326,-434,-761,53,544,-597,-448,-688,-995,-927,-761,-414
156,-204,-361,24,258,-283,-234,-370,-527,-492,-385,-190
-24,-141,-117,82,46,-129,-68,-156,-239,-268,-224,-141
-68,-107,-39,87,-14,-73,24,-9,-48,-126,-122,-107
-68,-68,0,68,-34,-34,68,82,53,-34,-53,-68
-73,-48,24,61,-48,-12,97,141,107,19,-4,-34
-87,-39,48,63,-68,4,107,151,117,24,0,-24
-92,-34,58,63,-75,12,112,170,151,34,0,-19
-112,-34,78,73,-95,21,122,185,170,43,9,-19
-122,-34,87,78,-104,26,141,195,175,58,19,-19
-122,-29,92,75,-107,31,151,200,195,73,29,-14
-126,-24,102,75,-114,39,151,209,214,82,39,-9
-126,-24,102,75,-114,39,151,219,224,87,39,-9
-126,-24,102,75,-114,39,156,224,234,92,43,-4
-126,-19,107,73,-117,43,161,234,244,107,53,-4
-126,-19,107,73,-117,43,165,244,253,122,53,0
-126,-19,107,73,-117,43,165,253,268,126,58,4
-122,-19,102,70,-112,41,165,258,278,131,63,4
-117,-14,102,65,-109,43,165,268,283,131,68,9
-112,-14,97,63,-104,41,161,278,297,136,73,14
-107,-9,97,58,-102,43,161,283,307,146,78,19
-102,-9,92,56,-97,41,161,292,317,151,82,19
-102,-4,97,53,-100,46,161,297,326,156,87,19
-102,-4,97,53,-100,46,161,312,341,165,92,24
-97,0,97,48,-97,48,161,326,351,175,102,29
-87,9,97,39,-92,53,161,341,366,185,107,34
-82,14,97,34,-90,56,161,351,380,190,117,34
-73,14,87,29,-80,51,161,366,395,195,122,34
-63,19,82,21,-73,51,156,380,409,204,131,34
-53,19,73,17,-63,46,151,395,429,219,136,39
-48,24,73,12,-61,48,151,409,448,234,146,58
-39,29,68,4,-53,48,151,434,468,253,156,68
-34,39,73,-2,-53,56,151,463,483,268,170,78
-29,43,73,-7,-51,58,151,492,507,283,185,87
-19,53,73,-17,-46,63,151,517,531,302,195,92
-9,63,73,-26,-41,68,151,541,561,322,209,97
0,68,68,-34,-34,68,151,570,590,341,224,107
14,82,68,-48,-26,75,151,600,619,361,244,122
29,92,63,-61,-17,78,151,639,649,385,263,141
43,102,58,-73,-7,80,151,678,678,405,278,156
53,122,68,-87,-7,95,151,717,712,429,302,165
68,136,68,-102,0,102,136,736,746,448,322,185
87,151,63,-119,12,107,136,771,780,483,346,200
107,170,63,-139,21,117,131,805,814,507,366,224
122,190,68,-156,26,129,122,824,844,531,390,244
141,209,68,-175,36,139,112,849,873,556,409,263
161,229,68,-195,46,148,102,873,893,575,434,287
185,248,63,-217,61,156,92,893,912,595,458,307
204,268,63,-236,70,165,78,902,946,619,478,336
219,287,68,-253,75,178,63,912,961,629,497,361
239,312,73,-275,82,192,48,917,971,644,522,380
258,326,68,-292,95,197,29,907,976,658,536,405
268,346,78,-307,95,212,9,893,976,668,551,419
278,356,78,-317,100,217,-9,858,961,673,561,434
278,361,82,-319,97,222,-29,805,917,668,566,448
278,361,82,-319,97,222,-43,751,863,653,566,453
273,361,87,-317,92,224,-53,678,800,614,546,453
258,346,87,-302,85,217,-53,595,727,570,512,434
229,317,87,-273,70,202,-53,517,649,522,478,395
204,287,82,-246,61,185,-53,439,566,468,434,361
170,253,82,-212,43,168,-43,366,483,400,380,326
141,214,73,-178,34,143,-29,297,409,336,322,287
107,180,73,-143,17,126,-24,234,331,287,273,239
82,146,63,-114,9,104,-14,180,253,234,224,200
48,112,63,-80,-7,87,-4,136,200,180,185,165
24,87,63,-56,-19,75,9,97,151,131,141,131
0,58,58,-29,-29,58,14,58,107,92,92,87
-24,39,63,-7,-43,51,24,39,58,58,58,43
-43,14,58,14,-51,36,34,24,29,29,34,29
-53,-4,48,29,-51,21,39,4,4,-4,14,14
-68,-24,43,46,-56,9,48,-9,-9,-14,-4,0
-78,-29,48,53,-63,9,48,-19,-29,-29,-19,-19
-87,-43,43,65,-65,0,53,-29,-43,-43,-24,-24
-87,-53,34,70,-61,-9,58,-39,-53,-58,-34,-34
-92,-58,34,75,-63,-12,58,-39,-58,-63,-43,-39
-92,-58,34,75,-63,-12,58,-48,-63,-63,-48,-43
-97,-63,34,80,-65,-14,53,-53,-68,-78,-48,-48
-97,-63,34,80,-65,-14,48,-58,-68,-78,-53,-53
-97,-63,34,80,-65,-14,53,-58,-73,-78,-58,-53
-97,-68,29,82,-63,-19,53,-63,-73,-78,-63,-58
-97,-68,29,82,-63,-19,53,-58,-78,-82,-68,-58
-97,-68,29,82,-63,-19,58,-58,-78,-87,-68,-58
-97,-73,24,85,-61,-24,58,-58,-82,-87,-68,-58
-97,-73,24,85,-61,-24,58,-53,-82,-87,-68,-63
-97,-73,24,85,-61,-24,58,-53,-82,-82,-68,-63
-97,-73,24,85,-61,-24,58,-48,-78,-78,-73,-63
-97,-73,24,85,-61,-24,58,-48,-73,-78,-73,-63
-92,-73,19,82,-56,-26,63,-43,-68,-78,-68,-58
-92,-73,19,82,-56,-26,63,-39,-68,-73,-68,-58
-92,-73,19,82,-56,-26,63,-34,-63,-73,-68,-58
-92,-78,14,85,-53,-31,63,-29,-63,-73,-68,-58
-92,-82,9,87,-51,-36,63,-29,-63,-68,-68,-58
-92,-82,9,87,-51,-36,63,-19,-58,-68,-63,-58
-92,-82,9,87,-51,-36,63,-14,-53,-68,-63,-58
-87,-82,4,85,-46,-39,63,-9,-53,-63,-63,-58
-87,-82,4,85,-46,-39,63,-4,-48,-63,-63,-63
-87,-82,4,85,-46,-39,63,-9,-48,-58,-58,-63
-87,-78,9,82,-48,-34,68,-9,-48,-58,-58,-63
-87,-78,9,82,-48,-34,68,-9,-43,-58,-58,-53
-92,-78,14,85,-53,-31,68,-4,-43,-58,-58,-53
-92,-78,14,85,-53,-31,68,-4,-39,-58,-58,-48
-92,-78,14,85,-53,-31,68,-4,-39,-53,-58,-43
-87,-78,9,82,-48,-34,68,-4,-39,-58,-53,-48
-82,-78,4,80,-43,-36,68,-4,-39,-63,-53,-48
-82,-78,4,80,-43,-36,63,0,-39,-63,-53,-48
-82,-73,9,78,-46,-31,63,4,-39,-63,-53,-48
-87,-73,14,80,-51,-29,63,4,-39,-63,-53,-48
-87,-73,14,80,-51,-29,58,4,-39,-63,-53,-48
-87,-73,14,80,-51,-29,63,4,-39,-58,-58,-53
-87,-73,14,80,-51,-29,68,4,-39,-58,-58,-58
-87,-73,14,80,-51,-29,68,0,-39,-63,-58,-58
-87,-73,14,80,-51,-29,68,-4,-39,-63,-58,-58
-87,-73,14,80,-51,-29,63,-4,-43,-63,-58,-63
-87,-73,14,80,-51,-29,58,-4,-48,-63,-58,-63
-92,-73,19,82,-56,-26,63,-9,-53,-63,-58,-63
-92,-73,19,82,-56,-26,63,-9,-53,-63,-58,-58
-92,-73,19,82,-56,-26,58,-14,-53,-63,-58,-58
-92,-73,19,82,-56,-26,58,-14,-58,-63,-58,-63
-92,-73,19,82,-56,-26,58,-14,-58,-63,-58,-68
-92,-73,19,82,-56,-26,58,-14,-58,-63,-58,-68
-97,-73,24,85,-61,-24,53,-19,-63,-63,-58,-68
-97,-73,24,85,-61,-24,53,-24,-63,-68,-58,-68
-97,-73,24,85,-61,-24,53,-24,-63,-68,-63,-68
-97,-73,24,85,-61,-24,53,-29,-68,-68,-68,-63
-97,-73,24,85,-61,-24,53,-29,-68,-73,-68,-63
-97,-73,24,85,-61,-24,53,-34,-68,-73,-68,-63
-97,-73,24,85,-61,-24,53,-34,-73,-73,-68,-63
-97,-73,24,85,-61,-24,53,-34,-73,-78,-68,-63
-97,-73,24,85,-61,-24,53,-39,-73,-78,-68,-63
-97,-78,19,87,-58,-29,53,-39,-78,-78,-68,-63
-102,-78,24,90,-63,-26,53,-39,-78,-78,-68,-68
-102,-73,29,87,-65,-21,53,-39,-78,-82,-68,-73
-102,-73,29,87,-65,-21,53,-39,-78,-87,-68,-73
-102,-73,29,87,-65,-21,48,-43,-78,-92,-73,-73
-102,-73,29,87,-65,-21,48,-43,-78,-92,-73,-73
-102,-78,24,90,-63,-26,48,-43,-78,-92,-73,-78
-102,-78,24,90,-63,-26,48,-48,-82,-87,-73,-78
-102,-78,24,90,-63,-26,48,-48,-82,-82,-73,-78
-102,-78,24,90,-63,-26,48,-53,-82,-82,-73,-78
-102,-73,29,87,-65,-21,48,-53,-82,-82,-73,-78
-102,-73,29,87,-65,-21,53,-53,-82,-92,-82,-78
-102,-73,29,87,-65,-21,53,-53,-82,-102,-87,-73
-102,-73,29,87,-65,-21,53,-53,-87,-97,-82,-73
-107,-68,39,87,-73,-14,53,-53,-87,-97,-78,-73
-107,-68,39,87,-73,-14,48,-53,-82,-92,-78,-68
-107,-68,39,87,-73,-14,48,-58,-82,-87,-73,-68
-107,-68,39,87,-73,-14,48,-43,-82,-87,-73,-68
-102,-68,34,85,-68,-17,53,-39,-78,-82,-68,-68
-87,-63,24,75,-56,-19,73,-24,-68,-78,-68,-68
-82,-58,24,70,-53,-17,92,-14,-58,-68,-63,-63
-73,-58,14,65,-43,-21,107,0,-39,-58,-53,-53
-68,-58,9,63,-39,-24,126,19,-19,-48,-43,-43
-58,-48,9,53,-34,-19,131,34,-9,-39,-29,-34
-48,-39,9,43,-29,-14,136,48,0,-29,-19,-29
-34,-39,-4,36,-14,-21,151,53,0,-29,-19,-24
-19,-39,-19,29,0,-29,165,58,0,-29,-19,-19
-14,-48,-34,31,9,-41,170,58,0,-29,-24,-19
-9,-48,-39,29,14,-43,170,58,-4,-29,-24,-19
-9,-48,-39,29,14,-43,175,58,-14,-34,-29,-19
-9,-29,-19,19,4,-24,165,34,-24,-34,-29,-24
-9,-4,4,7,-7,0,136,9,-34,-43,-29,-24
0,-4,-4,2,2,-4,58,-29,-53,-53,-39,-24
4,-19,-24,7,14,-21,-14,-53,-73,-68,-53,-29
19,-24,-43,2,31,-34,-34,-53,-78,-73,-53,-29
29,-19,-48,-4,39,-34,-24,-53,-78,-73,-48,-29
29,-14,-43,-7,36,-29,-19,-48,-73,-68,-43,-24
24,-9,-34,-7,29,-21,-9,-43,-68,-68,-39,-19
24,-4,-29,-9,26,-17,-9,-39,-63,-63,-39,-9
29,-4,-34,-12,31,-19,-9,-34,-63,-58,-39,-9
29,-4,-34,-12,31,-19,-9,-29,-68,-53,-39,-14
-4,-9,-4,7,0,-7,-4,-34,-73,-58,-43,-24
-58,-34,24,46,-41,-4,9,-58,-87,-68,-58,-48
-102,-48,53,75,-78,2,24,-63,-92,-82,-78,-73
-126,-68,58,97,-92,-4,34,-63,-92,-92,-82,-87
-126,-73,53,100,-90,-9,34,-63,-97,-92,-82,-87
-122,-78,43,100,-82,-17,34,-63,-97,-87,-87,-92
-122,-78,43,100,-82,-17,34,-63,-97,-87,-87,-87
-131,-78,53,104,-92,-12,34,-63,-97,-87,-87,-82
-131,-78,53,104,-92,-12,34,-63,-97,-92,-87,-82
-136,-78,58,107,-97,-9,39,-63,-92,-97,-87,-87
-141,-78,63,109,-102,-7,39,-63,-92,-97,-87,-92
-141,-78,63,109,-102,-7,39,-63,-97,-97,-87,-97
-146,-78,68,112,-107,-4,39,-63,-97,-97,-87,-97
-146,-78,68,112,-107,-4,43,-68,-92,-97,-87,-97
-151,-78,73,114,-112,-2,43,-68,-92,-97,-87,-92
-151,-78,73,114,-112,-2,43,-68,-92,-97,-87,-87
-151,-73,78,112,-114,2,48,-68,-92,-97,-87,-87
-151,-68,82,109,-117,7,48,-68,-92,-97,-87,-87
-151,-68,82,109,-117,7,48,-68,-92,-92,-87,-92
-156,-68,87,112,-122,9,48,-68,-92,-92,-87,-92
-151,-68,82,109,-117,7,48,-63,-87,-92,-87,-97
-146,-63,82,104,-114,9,48,-63,-87,-92,-87,-97
-146,-58,87,102,-117,14,48,-63,-87,-97,-87,-97
-146,-53,92,100,-119,19,48,-53,-73,-87,-82,-92
-151,-43,107,97,-129,31,53,-53,-48,-63,-68,-82
-165,-9,156,87,-161,73,78,19,73,24,-9,-53
-200,48,248,75,-224,148,165,175,287,165,73,-39
-263,112,375,75,-319,244,224,117,444,317,180,0
-361,234,595,63,-478,414,195,-302,414,488,326,78
-390,380,771,4,-580,575,82,-761,331,668,517,200
-287,536,824,-124,-556,680,-190,-1473,-136,697,688,424
-48,668,717,-309,-383,692,-639,-2083,-780,556,790,663
248,805,556,-527,-153,680,-1166,-2718,-1488,263,844,941
614,893,278,-753,168,585,-1834,-3347,-2230,-63,839,1195
966,780,-185,-873,575,297,-2264,-3650,-2640,-473,556,1176
1249,312,-936,-780,1093,-312,-2308,-3435,-2791,-1083,-195,683
1434,-458,-1893,-488,1664,-1176,-2078,-2757,-2766,-1668,-946,48
1405,-932,-2337,-236,1871,-1634,-1786,-2298,-2771,-2156,-1556,-507
1176,-976,-2152,-100,1664,-1564,-1464,-1932,-2664,-2288,-1766,-814
868,-878,-1747,4,1307,-1312,-1132,-1615,-2386,-2098,-1659,-883
678,-785,-1464,53,1071,-1124,-878,-1273,-1883,-1688,-1390,-785
517,-649,-1166,65,841,-907,-658,-956,-1395,-1298,-1117,-658
317,-400,-717,41,517,-558,-409,-610,-858,-814,-692,-409
136,-195,-331,29,234,-263,-195,-283,-419,-414,-336,-200
-29,-136,-107,82,39,-122,-43,-87,-170,-224,-214,-161
-58,-107,-48,82,-4,-78,34,39,-19,-117,-151,-136
-58,-73,-14,65,-21,-43,73,122,68,-29,-78,-97
-63,-58,4,61,-34,-26,97,170,107,19,-24,-63
-78,-48,29,63,-53,-9,112,180,117,24,-19,-53
-82,-43,39,63,-61,-2,122,200,151,34,-19,-48
-97,-43,53,70,-75,4,131,214,175,43,-9,-48
-102,-43,58,73,-80,7,151,224,185,58,0,-48
-102,-34,68,68,-85,17,161,239,204,73,9,-43
-107,-24,82,65,-95,29,161,258,224,82,19,-39
-112,-24,87,68,-100,31,161,268,234,87,19,-43
-117,-24,92,70,-104,34,165,273,244,92,24,-43
-117,-19,97,68,-107,39,170,283,253,102,34,-43
-117,-19,97,68,-107,39,175,292,263,112,34,-39
-112,-19,92,65,-102,36,175,302,273,117,43,-29
-102,-19,82,61,-92,31,175,307,278,122,53,-24
-102,-14,87,58,-95,36,180,317,283,126,58,-19
-102,-14,87,58,-95,36,180,326,297,136,63,-14
-97,-9,87,53,-92,39,180,336,312,146,68,-9
-92,-9,82,51,-87,36,180,351,326,151,73,-9
-87,-4,82,46,-85,39,180,356,336,156,73,-9
-82,-4,78,43,-80,36,180,370,351,165,73,-4
-82,-4,78,43,-80,36,175,385,361,175,82,0
-78,0,78,39,-78,39,170,400,375,185,87,4
-73,4,78,34,-75,41,170,414,395,195,97,9
-63,4,68,29,-65,36,170,434,414,204,102,14
-53,14,68,19,-61,41,170,453,429,214,112,14
-43,19,63,12,-53,41,170,473,448,229,117,19
-39,24,63,7,-51,43,175,488,468,244,126,34
-29,29,58,0,-43,43,180,512,488,263,136,39
-19,39,58,-9,-39,48,180,541,507,278,151,48
-9,43,53,-17,-31,48,180,570,536,292,165,58
-4,53,58,-24,-31,56,180,600,561,312,175,63
0,63,63,-31,-31,63,180,629,590,331,190,68
9,68,58,-39,-24,63,180,663,619,351,204,78
24,82,58,-53,-17,70,180,697,649,370,224,92
39,92,53,-65,-7,73,180,741,678,395,244,107
53,102,48,-78,2,75,180,785,707,414,258,117
68,122,53,-95,7,87,180,829,741,439,278,126
87,136,48,-112,19,92,165,854,775,458,292,146
107,146,39,-126,34,92,165,893,805,488,317,161
126,161,34,-143,46,97,161,932,834,507,336,185
141,180,39,-161,51,109,151,951,863,527,361,204
161,200,39,-180,61,119,141,976,893,546,380,224
180,219,39,-200,70,129,131,1005,912,566,400,248
204,239,34,-222,85,136,122,1029,932,585,419,268
229,258,29,-244,100,143,107,1034,956,610,439,292
248,278,29,-263,109,153,92,1039,961,619,458,312
268,297,29,-283,119,163,78,1039,966,629,483,331
287,307,19,-297,134,163,58,1024,966,639,497,356
297,326,29,-312,134,178,39,995,956,644,507,370
307,336,29,-322,139,183,19,946,932,644,512,385
307,346,39,-326,134,192,0,878,883,629,512,395
307,351,43,-329,131,197,-14,810,824,605,507,395
297,346,48,-322,124,197,-29,727,766,566,488,400
278,326,48,-302,114,187,-34,634,697,522,453,385
248,297,48,-273,100,173,-34,551,619,473,424,351
224,268,43,-246,90,156,-34,468,536,419,385,322
195,239,43,-217,75,141,-29,390,453,356,331,287
170,204,34,-187,68,119,-19,317,380,297,273,248
131,170,39,-151,46,104,-14,248,312,248,229,200
102,136,34,-119,34,85,-4,190,244,195,185,161
68,97,29,-82,19,63,0,146,185,146,146,126
43,68,24,-56,9,46,9,107,131,102,102,92
24,43,19,-34,2,31,14,68,92,68,63,53
4,29,24,-17,-9,26,24,48,48,39,39,14
-14,4,19,4,-17,12,29,34,24,14,14,0
-24,-14,9,19,-17,-2,29,14,4,-14,-4,-14
-43,-34,9,39,-26,-12,39,0,-9,-24,-24,-24
-58,-39,19,48,-39,-9,39,-9,-29,-39,-39,-39
-68,-48,19,58,-43,-14,43,-19,-43,-48,-43,-43
-68,-53,14,61,-41,-19,48,-29,-53,-58,-53,-53
-73,-58,14,65,-43,-21,53,-29,-58,-63,-63,-58
-73,-58,14,65,-43,-21,58,-39,-63,-63,-68,-63
-78,-63,14,70,-46,-24,58,-43,-68,-78,-68,-68
-78,-63,14,70,-46,-24,58,-48,-68,-78,-73,-73
-78,-63,14,70,-46,-24,58,-48,-73,-78,-73,-73
-78,-68,9,73,-43,-29,53,-53,-73,-78,-73,-78
-78,-68,9,73,-43,-29,48,-53,-82,-82,-78,-78
-78,-68,9,73,-43,-29,48,-58,-87,-87,-78,-78
-78,-73,4,75,-41,-34,48,-58,-92,-87,-78,-78
-78,-73,4,75,-41,-34,48,-53,-92,-87,-78,-82
-78,-73,4,75,-41,-34,48,-53,-92,-87,-78,-82
-78,-73,4,75,-41,-34,48,-48,-87,-87,-82,-82
-78,-73,4,75,-41,-34,48,-48,-82,-87,-82,-82
-73,-73,0,73,-36,-36,53,-43,-78,-87,-78,-78
-73,-73,0,73,-36,-36,53,-39,-78,-82,-78,-78
-73,-73,0,73,-36,-36,53,-34,-73,-82,-78,-78
-73,-73,0,73,-36,-36,53,-29,-73,-82,-78,-78
-73,-73,0,73,-36,-36,53,-29,-73,-78,-78,-78
-73,-73,0,73,-36,-36,58,-24,-68,-78,-73,-78
-73,-73,0,73,-36,-36,63,-24,-63,-78,-73,-78
-68,-73,-4,70,-31,-39,63,-19,-58,-68,-73,-78
-68,-73,-4,70,-31,-39,63,-14,-48,-63,-73,-82
-68,-73,-4,70,-31,-39,63,-14,-48,-58,-68,-82
-68,-68,0,68,-34,-34,68,-9,-48,-58,-68,-82
-68,-68,0,68,-34,-34,63,-9,-43,-63,-68,-73
-73,-68,4,70,-39,-31,58,-4,-43,-68,-68,-73
-73,-68,4,70,-39,-31,58,-4,-43,-68,-68,-73
-73,-68,4,70,-39,-31,58,-4,-48,-63,-68,-73
-73,-68,4,70,-39,-31,63,-4,-48,-58,-63,-78
-73,-68,4,70,-39,-31,68,-4,-48,-53,-63,-78
-73,-68,4,70,-39,-31,68,-4,-43,-53,-63,-78
-73,-63,9,68,-41,-26,73,-4,-39,-53,-63,-78
-78,-63,14,70,-46,-24,73,-4,-39,-53,-63,-78
-78,-63,14,70,-46,-24,68,-4,-39,-53,-63,-78
-78,-63,14,70,-46,-24,68,-4,-39,-53,-68,-78
-78,-63,14,70,-46,-24,68,-4,-39,-58,-68,-78
-78,-63,14,70,-46,-24,68,-4,-39,-63,-68,-78
-78,-63,14,70,-46,-24,68,-4,-39,-63,-68,-78
-78,-63,14,70,-46,-24,68,-4,-39,-63,-68,-82
-78,-63,14,70,-46,-24,68,-4,-39,-63,-68,-82
-82,-63,19,73,-51,-21,73,-9,-43,-63,-68,-82
-82,-63,19,73,-51,-21,73,-9,-43,-63,-68,-78
-82,-63,19,73,-51,-21,63,-14,-43,-63,-73,-78
-82,-63,19,73,-51,-21,58,-14,-48,-63,-78,-82
-82,-63,19,73,-51,-21,58,-14,-48,-63,-78,-82
-82,-63,19,73,-51,-21,58,-14,-48,-63,-78,-78
-87,-63,24,75,-56,-19,53,-19,-53,-63,-78,-78
-87,-63,24,75,-56,-19,53,-24,-53,-68,-78,-78
-87,-63,24,75,-56,-19,53,-24,-53,-68,-82,-87
-87,-63,24,75,-56,-19,53,-29,-58,-68,-87,-92
-87,-63,24,75,-56,-19,53,-29,-58,-73,-87,-92
-87,-63,24,75,-56,-19,53,-34,-58,-73,-87,-92
-87,-63,24,75,-56,-19,53,-34,-63,-73,-87,-92
-87,-63,24,75,-56,-19,53,-34,-63,-78,-87,-92
-87,-63,24,75,-56,-19,53,-39,-63,-78,-87,-92
-87,-68,19,78,-53,-24,53,-39,-68,-78,-87,-92
-92,-68,24,80,-58,-21,58,-39,-68,-78,-87,-92
-92,-63,29,78,-61,-17,63,-39,-68,-82,-87,-92
-92,-63,29,78,-61,-17,63,-39,-68,-82,-82,-92
-92,-63,29,78,-61,-17,58,-43,-68,-82,-82,-92
-92,-63,29,78,-61,-17,58,-43,-68,-82,-82,-92
-92,-68,24,80,-58,-21,58,-43,-68,-82,-82,-97
-92,-68,24,80,-58,-21,53,-48,-78,-82,-82,-97
-92,-68,24,80,-58,-21,48,-48,-82,-82,-82,-97
-92,-68,24,80,-58,-21,48,-48,-82,-82,-82,-97
-92,-63,29,78,-61,-17,48,-43,-82,-82,-82,-97
-97,-63,34,80,-65,-14,53,-48,-82,-87,-92,-97
-102,-63,39,82,-70,-12,53,-53,-82,-92,-97,-92
-97,-63,34,80,-65,-14,53,-58,-87,-87,-92,-92
-97,-58,39,78,-68,-9,53,-63,-87,-87,-87,-92
-97,-58,39,78,-68,-9,48,-58,-82,-87,-87,-92
-97,-58,39,78,-68,-9,48,-58,-82,-87,-82,-97
-102,-58,43,80,-73,-7,48,-48,-82,-87,-82,-92
-102,-58,43,80,-73,-7,53,-48,-78,-82,-78,-87
-92,-53,39,73,-65,-7,63,-39,-73,-78,-78,-87
