I,II,III,aVR,aVL,aVF,V1,V2,V3,V4,V5,V6,
-68,-58,9,63,-39,-24,68,58,-9,0,-9,-29
-68,-53,14,61,-41,-19,68,58,-9,0,-9,-34
-68,-48,19,58,-43,-14,68,58,-9,0,-9,-39
-68,-48,19,58,-43,-14,68,58,-9,0,-9,-39
-68,-48,19,58,-43,-14,68,58,-9,0,-9,-39
-68,-48,19,58,-43,-14,68,58,-9,0,-14,-34
-68,-48,19,58,-43,-14,68,58,-9,0,-19,-29
-68,-48,19,58,-43,-14,68,58,-9,0,-19,-29
-68,-48,19,58,-43,-14,68,58,-9,0,-19,-29
-68,-48,19,58,-43,-14,68,58,-9,0,-19,-34
-68,-48,19,58,-43,-14,68,58,-9,0,-19,-39
-68,-48,19,58,-43,-14,68,58,-9,0,-19,-39
-68,-48,19,58,-43,-14,68,58,-9,0,-19,-39
-68,-48,19,58,-43,-14,68,58,-9,0,-19,-39
-68,-48,19,58,-43,-14,68,58,-9,0,-19,-39
-68,-48,19,58,-43,-14,68,58,-9,0,-19,-39
-68,-48,19,58,-43,-14,68,58,-9,0,-19,-39
-68,-48,19,58,-43,-14,68,58,-9,0,-19,-39
-68,-48,19,58,-43,-14,68,58,-9,0,-19,-39
-68,-48,19,58,-43,-14,68,58,-9,0,-19,-39
-68,-48,19,58,-43,-14,68,58,-9,0,-19,-39
-68,-48,19,58,-43,-14,68,58,-9,0,-19,-43
-68,-48,19,58,-43,-14,68,58,-9,0,-19,-48
-68,-48,19,58,-43,-14,68,58,-9,0,-19,-48
-68,-48,19,58,-43,-14,68,58,-9,0,-19,-48
-68,-43,24,56,-46,-9,68,63,-9,0,-19,-43
-68,-39,29,53,-48,-4,68,68,-9,0,-19,-39
-58,-24,34,41,-46,4,68,68,-9,0,-19,-39
-48,-9,39,29,-43,14,68,68,-9,0,-19,-39
-43,-24,19,34,-31,-2,82,82,0,0,-14,-39
-39,-29,9,34,-24,-9,92,92,9,4,-9,-34
-39,-34,4,36,-21,-14,107,107,19,14,-4,-29
-29,-19,9,24,-19,-4,112,117,29,24,4,-19
-24,0,24,12,-24,12,117,117,43,29,14,-14
-24,-14,9,19,-17,-2,126,122,43,34,14,-9
-19,0,19,9,-19,9,126,131,48,34,14,-9
-4,19,24,-7,-14,21,131,151,58,34,14,-9
9,43,34,-26,-12,39,126,175,87,63,43,9
29,78,48,-53,-9,63,102,175,122,97,78,43
43,78,34,-61,4,56,53,161,122,97,73,43
43,78,34,-61,4,56,9,136,102,82,53,39
39,43,4,-41,17,24,0,107,78,63,39,24
19,9,-9,-14,14,0,4,87,43,39,14,0
9,-14,-24,2,17,-19,14,68,14,14,-9,-19
0,-29,-29,14,14,-29,19,53,9,4,-14,-24
-14,-43,-29,29,7,-36,24,48,-4,-4,-24,-29
-24,-43,-19,34,-2,-31,34,48,-4,-19,-24,-34
-34,-48,-14,41,-9,-31,39,48,-14,-19,-34,-43
-53,-58,-4,56,-24,-31,53,48,-14,-19,-34,-43
-78,-63,14,70,-46,-24,63,48,-14,-19,-34,-43
-97,-73,24,85,-61,-24,73,43,-19,-19,-39,-48
-102,-73,29,87,-65,-21,78,43,-24,-19,-39,-48
-107,-73,34,90,-70,-19,78,43,-24,-24,-39,-53
-107,-78,29,92,-68,-24,78,43,-24,-29,-39,-58
-107,-78,29,92,-68,-24,78,43,-29,-29,-43,-58
-107,-82,24,95,-65,-29,78,43,-29,-29,-43,-58
-102,-82,19,92,-61,-31,82,43,-29,-29,-43,-58
-107,-82,24,95,-65,-29,82,43,-29,-29,-43,-63
-107,-87,19,97,-63,-34,82,43,-29,-29,-43,-63
-107,-92,14,100,-61,-39,87,43,-34,-29,-48,-63
-107,-92,14,100,-61,-39,87,43,-34,-34,-48,-63
-112,-92,19,102,-65,-36,87,43,-34,-39,-48,-68
-112,-92,19,102,-65,-36,87,39,-39,-39,-48,-68
-112,-92,19,102,-65,-36,87,43,-39,-34,-48,-68
-112,-92,19,102,-65,-36,87,48,-39,-29,-48,-68
-112,-97,14,104,-63,-41,87,48,-34,-29,-48,-68
-112,-97,14,104,-63,-41,87,48,-34,-29,-48,-63
-112,-97,14,104,-63,-41,82,34,-39,-29,-48,-63
-102,-87,14,95,-58,-36,58,0,-43,-29,-48,-63
-82,-78,4,80,-43,-36,9,-58,-43,-19,-34,-53
-53,-53,0,53,-26,-26,-73,-146,-19,9,4,-19
19,19,0,-19,9,9,-214,-346,-9,43,48,29
102,97,-4,-100,53,46,-395,-634,-39,82,102,102
209,180,-29,-195,119,75,-614,-1029,-156,92,151,175
248,244,-4,-246,126,119,-741,-1342,-361,68,156,195
317,307,-9,-312,163,148,-893,-1571,-512,48,180,219
405,375,-29,-390,217,173,-1151,-1878,-692,24,200,268
463,405,-58,-434,261,173,-1351,-2152,-902,-34,195,292
468,385,-82,-427,275,151,-1400,-2337,-1166,-126,151,263
473,366,-107,-419,290,129,-1415,-2440,-1385,-239,107,244
473,341,-131,-407,302,104,-1410,-2513,-1551,-351,58,234
478,370,-107,-424,292,131,-1361,-2576,-1576,-341,82,263
512,419,-92,-466,302,163,-1322,-2576,-1571,-283,141,326
536,429,-107,-483,322,161,-1273,-2493,-1556,-268,170,366
541,439,-102,-490,322,168,-1254,-2400,-1503,-234,200,409
541,395,-146,-468,344,124,-1185,-2244,-1439,-224,200,409
536,375,-161,-456,348,107,-1141,-2127,-1395,-214,204,419
512,356,-156,-434,334,100,-1073,-2030,-1312,-185,234,439
507,297,-209,-402,358,43,-985,-1883,-1190,-175,229,448
517,248,-268,-383,392,-9,-917,-1717,-1044,-165,219,448
527,195,-331,-361,429,-68,-844,-1532,-902,-175,195,439
502,136,-366,-319,434,-114,-736,-1327,-751,-180,151,400
473,63,-409,-268,441,-173,-605,-1088,-624,-244,53,302
414,4,-409,-209,412,-202,-478,-824,-502,-278,-39,190
356,-24,-380,-165,368,-202,-385,-610,-380,-263,-73,122
283,-48,-331,-117,307,-190,-287,-468,-331,-239,-97,53
204,-78,-283,-63,244,-180,-185,-326,-263,-200,-97,9
112,-87,-200,-12,156,-143,-92,-190,-180,-151,-87,-14
14,-107,-122,46,68,-114,-24,-97,-126,-122,-82,-48
-48,-107,-58,78,4,-82,29,-19,-63,-73,-73,-63
-68,-97,-29,82,-19,-63,82,48,-14,-39,-58,-63
-92,-107,-14,100,-39,-61,117,102,14,-29,-48,-58
-117,-102,14,109,-65,-43,131,131,34,-14,-43,-63
-122,-102,19,112,-70,-41,131,141,34,-14,-43,-73
-122,-102,19,112,-70,-41,136,141,34,-14,-43,-73
-126,-112,14,119,-70,-48,151,151,53,-9,-39,-73
-131,-117,14,124,-73,-51,156,165,63,-4,-39,-73
-136,-117,19,126,-78,-48,156,170,68,-4,-39,-73
-136,-112,24,124,-80,-43,156,170,68,-4,-39,-73
-136,-107,29,122,-82,-39,156,175,73,0,-39,-73
-136,-102,34,119,-85,-34,161,180,78,0,-39,-73
-136,-102,34,119,-85,-34,161,180,78,0,-39,-68
-136,-102,34,119,-85,-34,156,185,82,4,-34,-63
-136,-107,29,122,-82,-39,156,190,82,4,-34,-63
-136,-112,24,124,-80,-43,156,190,87,9,-34,-63
-136,-107,29,122,-82,-39,156,195,92,9,-34,-63
-136,-107,29,122,-82,-39,156,195,92,9,-34,-63
-136,-107,29,122,-82,-39,156,195,102,9,-29,-63
-131,-112,19,122,-75,-46,156,200,102,9,-29,-63
-126,-112,14,119,-70,-48,156,209,107,14,-29,-58
-126,-112,14,119,-70,-48,156,209,112,14,-29,-58
-126,-107,19,117,-73,-43,156,224,117,14,-29,-58
-126,-107,19,117,-73,-43,156,224,122,19,-29,-58
-126,-107,19,117,-73,-43,161,234,131,19,-34,-58
-126,-107,19,117,-73,-43,161,244,131,19,-39,-58
-126,-107,19,117,-73,-43,161,248,141,19,-39,-58
-126,-112,14,119,-70,-48,161,263,151,24,-34,-63
-126,-112,14,119,-70,-48,165,278,151,24,-34,-63
-126,-107,19,117,-73,-43,175,292,161,24,-34,-63
-126,-107,19,117,-73,-43,180,302,170,29,-34,-63
-126,-107,19,117,-73,-43,180,317,180,29,-39,-63
-122,-107,14,114,-68,-46,185,326,190,29,-39,-63
-122,-107,14,114,-68,-46,185,341,190,34,-34,-63
-122,-102,19,112,-70,-41,185,361,204,34,-34,-68
-122,-97,24,109,-73,-36,190,380,219,34,-34,-73
-117,-97,19,107,-68,-39,190,400,229,39,-34,-73
-117,-92,24,104,-70,-34,195,414,244,39,-34,-73
-117,-87,29,102,-73,-29,190,434,253,39,-34,-78
-117,-87,29,102,-73,-29,190,453,273,34,-34,-82
-117,-87,29,102,-73,-29,190,478,283,39,-34,-82
-112,-87,24,100,-68,-31,195,507,302,43,-34,-82
-112,-87,24,100,-68,-31,200,531,322,53,-29,-73
-107,-87,19,97,-63,-34,209,570,346,68,-19,-63
-107,-92,14,100,-61,-39,209,595,366,68,-19,-63
-107,-102,4,104,-56,-48,219,629,390,78,-14,-63
-102,-87,14,95,-58,-36,219,658,409,78,-14,-68
-102,-78,24,90,-63,-26,219,692,434,78,-9,-73
-97,-73,24,85,-61,-24,224,722,453,87,-9,-73
-92,-73,19,82,-56,-26,224,756,483,92,-9,-73
-92,-73,19,82,-56,-26,229,780,502,102,-4,-73
-92,-73,19,82,-56,-26,229,805,527,112,0,-68
-92,-68,24,80,-58,-21,229,834,546,117,0,-68
-87,-58,29,73,-58,-14,229,854,566,122,0,-68
-92,-58,34,75,-63,-12,234,878,580,126,4,-68
-92,-53,39,73,-65,-7,234,888,600,136,9,-68
-87,-53,34,70,-61,-9,229,897,614,141,14,-68
-82,-39,43,61,-63,2,229,902,619,141,14,-68
-78,-34,43,56,-61,4,224,897,619,146,9,-63
-68,-24,43,46,-56,9,219,888,619,151,9,-58
-63,-14,48,39,-56,17,209,878,619,151,9,-58
-58,-4,53,31,-56,24,204,854,610,146,9,-53
-53,-9,43,31,-48,17,195,819,595,141,19,-53
-48,-19,29,34,-39,4,185,775,575,141,24,-48
-48,-19,29,34,-39,4,175,732,551,141,24,-34
-39,-14,24,26,-31,4,161,673,512,131,24,-29
-34,-9,24,21,-29,7,146,610,468,122,19,-29
-29,-4,24,17,-26,9,131,536,409,107,14,-24
-24,0,24,12,-24,12,112,468,361,92,9,-19
-24,4,29,9,-26,17,97,409,312,87,9,-19
-19,0,19,9,-19,9,87,351,273,78,4,-19
-14,-4,9,9,-12,2,78,292,229,68,4,-14
-14,-9,4,12,-9,-2,68,239,180,53,0,-14
-14,-14,0,14,-7,-7,58,200,146,39,0,-9
-14,-19,-4,17,-4,-12,48,165,122,34,0,-14
-19,-24,-4,21,-7,-14,43,131,87,24,-4,-19
-29,-19,9,24,-19,-4,43,107,63,19,-4,-19
-39,-19,19,29,-29,0,39,87,48,14,-4,-19
-43,-24,19,34,-31,-2,39,73,34,9,-4,-19
-48,-34,14,41,-31,-9,43,68,19,4,-9,-19
-43,-34,9,39,-26,-12,48,63,9,4,-14,-19
-43,-34,9,39,-26,-12,48,48,0,4,-19,-24
-48,-34,14,41,-31,-9,48,43,-9,4,-19,-24
-48,-39,9,43,-29,-14,48,43,-14,0,-19,-24
-53,-43,9,48,-31,-17,58,43,-19,0,-19,-19
-53,-43,9,48,-31,-17,58,39,-19,-4,-19,-19
-58,-43,14,51,-36,-14,53,29,-24,-4,-24,-19
-58,-43,14,51,-36,-14,48,24,-29,-4,-24,-24
-58,-43,14,51,-36,-14,53,24,-29,-4,-24,-29
-63,-43,19,53,-41,-12,53,24,-29,-4,-24,-34
-63,-43,19,53,-41,-12,58,34,-24,-4,-24,-34
-63,-43,19,53,-41,-12,63,39,-24,-9,-24,-34
-63,-48,14,56,-39,-17,63,39,-24,-9,-24,-34
-63,-48,14,56,-39,-17,68,39,-19,-9,-24,-34
-63,-48,14,56,-39,-17,68,39,-19,-4,-24,-34
-63,-48,14,56,-39,-17,63,34,-14,-4,-24,-29
-63,-48,14,56,-39,-17,63,39,-14,-4,-19,-29
-68,-53,14,61,-41,-19,63,43,-14,-4,-19,-29
-68,-63,4,65,-36,-29,68,43,-9,0,-14,-29
-68,-68,0,68,-34,-34,73,48,-9,4,-9,-29
-68,-63,4,65,-36,-29,73,53,-9,4,-9,-24
-68,-63,4,65,-36,-29,73,63,-9,4,-9,-24
-68,-58,9,63,-39,-24,73,68,-4,4,-14,-24
-63,-53,9,58,-36,-21,68,68,0,4,-14,-24
-63,-48,14,56,-39,-17,68,73,0,9,-14,-24
-63,-48,14,56,-39,-17,73,73,4,9,-14,-29
-63,-53,9,58,-36,-21,73,73,9,14,-14,-24
-63,-53,9,58,-36,-21,73,73,9,14,-14,-24
-63,-48,14,56,-39,-17,73,73,14,19,-9,-19
-58,-43,14,51,-36,-14,68,73,14,19,-9,-19
-58,-43,14,51,-36,-14,68,73,9,19,-9,-19
-63,-43,19,53,-41,-12,68,78,9,19,-9,-19
-63,-48,14,56,-39,-17,68,82,9,19,-9,-14
-58,-48,9,53,-34,-19,63,82,9,19,-9,-14
-58,-48,9,53,-34,-19,63,78,14,19,-9,-9
-58,-48,9,53,-34,-19,63,78,19,19,-9,-9
-58,-48,9,53,-34,-19,63,78,19,19,-9,-14
-58,-48,9,53,-34,-19,63,78,19,19,-9,-14
-58,-48,9,53,-34,-19,63,73,14,19,-9,-14
-58,-48,9,53,-34,-19,63,73,14,19,-9,-14
-53,-48,4,51,-29,-21,63,73,14,14,-9,-14
-53,-48,4,51,-29,-21,58,68,4,14,-14,-14
-58,-48,9,53,-34,-19,58,68,4,14,-14,-14
-58,-48,9,53,-34,-19,63,68,9,14,-14,-14
-58,-43,14,51,-36,-14,63,63,9,9,-14,-14
-58,-43,14,51,-36,-14,58,63,4,4,-14,-14
-53,-43,9,48,-31,-17,58,63,4,0,-14,-14
-53,-43,9,48,-31,-17,58,63,4,0,-14,-14
-53,-43,9,48,-31,-17,58,58,4,0,-14,-14
-58,-43,14,51,-36,-14,53,53,9,0,-19,-14
-58,-43,14,51,-36,-14,53,53,4,0,-19,-14
-58,-43,14,51,-36,-14,58,53,4,0,-14,-14
-58,-43,14,51,-36,-14,58,58,4,-4,-14,-19
-58,-43,14,51,-36,-14,58,58,4,-4,-14,-19
-58,-43,14,51,-36,-14,58,58,0,-4,-14,-19
-58,-43,14,51,-36,-14,58,53,-9,-4,-19,-24
-58,-43,14,51,-36,-14,58,58,-9,-9,-19,-24
-58,-43,14,51,-36,-14,58,58,-9,-9,-19,-24
-58,-53,4,56,-31,-24,58,58,-4,-9,-19,-24
-58,-58,0,58,-29,-29,58,58,-4,-9,-14,-24
-58,-58,0,58,-29,-29,58,53,-4,-4,-14,-24
-58,-58,0,58,-29,-29,58,48,-4,-4,-19,-24
-58,-58,0,58,-29,-29,63,53,0,-4,-19,-24
-58,-58,0,58,-29,-29,63,53,0,-4,-19,-24
-63,-58,4,61,-34,-26,63,53,0,-4,-19,-24
-63,-58,4,61,-34,-26,63,53,4,0,-19,-24
-63,-58,4,61,-34,-26,63,48,4,0,-19,-24
-63,-58,4,61,-34,-26,58,48,0,0,-19,-24
-58,-58,0,58,-29,-29,58,48,-4,0,-19,-24
-58,-58,0,58,-29,-29,58,53,-4,0,-19,-24
-58,-58,0,58,-29,-29,58,53,4,0,-24,-24
-63,-58,4,61,-34,-26,63,48,4,0,-24,-29
-63,-63,0,63,-31,-31,63,48,0,-4,-19,-29
-63,-63,0,63,-31,-31,63,53,0,-9,-19,-29
-63,-63,0,63,-31,-31,63,53,0,-9,-19,-29
-63,-63,0,63,-31,-31,63,53,0,-9,-19,-29
-63,-58,4,61,-34,-26,58,48,0,-9,-24,-29
-63,-53,9,58,-36,-21,58,48,-4,-9,-24,-29
-63,-53,9,58,-36,-21,58,48,-9,-9,-24,-24
-63,-48,14,56,-39,-17,58,48,-9,-14,-24,-19
-58,-58,0,58,-29,-29,63,53,-4,-9,-19,-19
-58,-68,-9,63,-24,-39,68,58,0,-9,-19,-19
-58,-58,0,58,-29,-29,63,53,0,-9,-19,-24
-58,-48,9,53,-34,-19,58,48,0,-9,-19,-29
-58,-48,9,53,-34,-19,58,48,0,-9,-19,-29
-58,-48,9,53,-34,-19,58,48,0,-9,-19,-29
-63,-48,14,56,-39,-17,63,48,-4,-9,-24,-29
-68,-48,19,58,-43,-14,68,48,-9,-9,-29,-29
-68,-48,19,58,-43,-14,68,48,-9,-9,-29,-29
-68,-48,19,58,-43,-14,68,48,-9,-9,-29,-29
-68,-48,19,58,-43,-14,68,48,-9,-9,-29,-29
-68,-48,19,58,-43,-14,68,48,-9,-9,-29,-29
-63,-48,14,56,-39,-17,73,58,-4,-9,-24,-24
-58,-48,9,53,-34,-19,78,68,0,-9,-19,-19
-48,-43,4,46,-26,-19,78,78,4,-9,-19,-19
-39,-39,0,39,-19,-19,78,87,9,-9,-19,-19
-34,-39,-4,36,-14,-21,82,92,14,-9,-19,-24
-29,-34,-4,31,-12,-19,87,97,19,0,-14,-19
-29,-34,-4,31,-12,-19,97,107,29,4,-14,-19
-19,-19,0,19,-9,-9,102,117,39,14,-4,-9
-14,0,14,7,-14,7,112,122,58,24,4,-4
-14,-14,0,14,-7,-7,126,131,63,34,4,0
-9,-9,0,9,-4,-4,131,141,68,34,4,0
4,0,-4,-2,4,-2,141,161,78,34,4,0
19,34,14,-26,2,24,131,180,102,58,29,19
39,78,39,-58,0,58,102,175,131,87,58,53
53,73,19,-63,17,46,53,161,131,87,58,53
53,68,14,-61,19,41,9,136,112,73,43,48
48,34,-14,-41,31,9,-4,107,87,53,34,34
29,0,-29,-14,29,-14,-4,87,53,29,14,9
19,-24,-43,2,31,-34,4,68,24,4,-9,-9
9,-39,-48,14,29,-43,9,53,19,-4,-14,-14
-4,-53,-48,29,21,-51,14,48,4,-9,-24,-19
-14,-53,-39,34,12,-46,24,48,4,-19,-24,-24
-24,-58,-34,41,4,-46,29,48,-4,-19,-34,-34
-43,-68,-24,56,-9,-46,43,48,-4,-19,-34,-34
-68,-73,-4,70,-31,-39,53,48,-4,-19,-34,-34
-87,-82,4,85,-46,-39,63,43,-9,-19,-39,-39
-92,-82,9,87,-51,-36,68,43,-14,-19,-43,-39
-97,-82,14,90,-56,-34,68,43,-14,-24,-48,-43
-97,-87,9,92,-53,-39,68,43,-19,-29,-48,-48
-97,-87,9,92,-53,-39,68,43,-29,-29,-53,-48
-102,-92,9,97,-56,-41,68,43,-29,-29,-53,-48
-102,-92,9,97,-56,-41,73,43,-29,-29,-53,-48
-107,-92,14,100,-61,-39,73,43,-24,-29,-53,-53
-107,-97,9,102,-58,-43,73,43,-19,-29,-53,-53
-102,-102,0,102,-51,-51,78,43,-24,-29,-58,-53
-97,-102,-4,100,-46,-53,78,43,-24,-34,-58,-53
-102,-102,0,102,-51,-51,78,43,-24,-39,-58,-63
-102,-102,0,102,-51,-51,78,39,-29,-39,-58,-68
-107,-97,9,102,-58,-43,78,39,-29,-43,-58,-68
-112,-92,19,102,-65,-36,78,39,-29,-48,-58,-68
-112,-97,14,104,-63,-41,78,39,-24,-48,-58,-68
-112,-97,14,104,-63,-41,78,39,-24,-48,-58,-63
-107,-92,14,100,-61,-39,68,24,-29,-48,-58,-58
-92,-78,14,85,-53,-31,39,-9,-34,-48,-58,-53
-68,-68,0,68,-34,-34,-14,-73,-34,-43,-48,-43
-34,-43,-9,39,-12,-26,-102,-165,-9,-19,-14,-9
39,34,-4,-36,21,14,-253,-375,-9,14,29,39
122,117,-4,-119,63,56,-444,-673,-48,53,82,112
229,200,-29,-214,129,85,-668,-1078,-161,58,126,175
268,263,-4,-265,136,129,-800,-1400,-361,29,126,185
351,307,-43,-329,197,131,-951,-1639,-507,9,151,219
453,356,-97,-405,275,129,-1210,-1956,-683,-14,170,278
507,385,-122,-446,314,131,-1400,-2230,-902,-73,156,287
507,366,-141,-436,324,112,-1439,-2415,-1176,-165,102,244
512,351,-161,-431,336,95,-1454,-2527,-1381,-278,68,224
512,331,-180,-422,346,75,-1449,-2610,-1532,-390,29,214
527,370,-156,-448,341,107,-1400,-2654,-1542,-370,48,248
570,429,-141,-500,356,143,-1361,-2635,-1522,-302,102,317
590,429,-161,-509,375,134,-1307,-2542,-1493,-283,136,351
590,429,-161,-509,375,134,-1283,-2440,-1424,-244,170,390
590,390,-200,-490,395,95,-1215,-2283,-1361,-234,170,390
585,375,-209,-480,397,82,-1171,-2166,-1317,-224,175,400
561,356,-204,-458,383,75,-1098,-2069,-1244,-200,200,419
556,297,-258,-427,407,19,-1005,-1922,-1132,-195,190,429
561,253,-307,-407,434,-26,-936,-1751,-990,-185,180,414
566,204,-361,-385,463,-78,-863,-1561,-854,-195,156,390
536,146,-390,-341,463,-122,-756,-1342,-707,-200,112,356
502,73,-429,-287,466,-178,-624,-1088,-585,-263,14,263
439,19,-419,-229,429,-200,-497,-824,-473,-292,-68,156
375,-4,-380,-185,378,-192,-405,-610,-361,-273,-92,92
292,-24,-317,-134,305,-170,-307,-473,-317,-248,-112,29
204,-48,-253,-78,229,-151,-204,-336,-253,-209,-107,-9
117,-58,-175,-29,146,-117,-107,-200,-175,-165,-102,-34
24,-78,-102,26,63,-90,-34,-107,-126,-141,-102,-68
-43,-82,-39,63,-2,-61,19,-29,-63,-92,-92,-78
-68,-78,-9,73,-29,-43,73,39,-14,-58,-78,-73
-92,-92,0,92,-46,-46,107,92,14,-48,-68,-63
-117,-92,24,104,-70,-34,122,122,34,-34,-63,-63
-122,-87,34,104,-78,-26,122,131,34,-34,-63,-73
-122,-82,39,102,-80,-21,126,131,34,-34,-63,-73
-126,-87,39,107,-82,-24,141,141,48,-29,-58,-73
-131,-87,43,109,-87,-21,146,156,53,-24,-58,-73
-136,-87,48,112,-92,-19,146,161,58,-24,-58,-73
-136,-82,53,109,-95,-14,146,161,58,-24,-58,-73
-136,-82,53,109,-95,-14,146,165,63,-19,-63,-73
-136,-82,53,109,-95,-14,151,170,68,-19,-68,-73
-136,-82,53,109,-95,-14,151,170,68,-19,-68,-73
-136,-82,53,109,-95,-14,146,175,73,-14,-63,-73
-136,-82,53,109,-95,-14,146,185,73,-14,-58,-73
-136,-82,53,109,-95,-14,146,190,78,-9,-53,-73
-136,-78,58,107,-97,-9,146,195,82,-9,-53,-73
-136,-78,58,107,-97,-9,146,195,82,-9,-53,-73
-136,-68,68,102,-102,0,146,185,92,-9,-53,-73
-131,-63,68,97,-100,2,146,180,92,-9,-58,-73
-126,-73,53,100,-90,-9,146,200,97,-4,-58,-68
-126,-82,43,104,-85,-19,146,209,102,-4,-58,-68
-122,-78,43,100,-82,-17,146,224,107,-4,-58,-73
-117,-78,39,97,-78,-19,146,224,112,0,-58,-78
-117,-78,39,97,-78,-19,151,234,122,0,-58,-78
-117,-78,39,97,-78,-19,151,244,122,0,-58,-78
-122,-78,43,100,-82,-17,151,248,131,-4,-58,-78
-126,-82,43,104,-85,-19,151,263,141,-4,-53,-82
-126,-82,43,104,-85,-19,151,278,141,-4,-53,-78
-126,-78,48,102,-87,-14,156,292,151,-4,-53,-73
-126,-78,48,102,-87,-14,161,302,161,0,-53,-73
-126,-78,48,102,-87,-14,161,317,170,0,-58,-73
-122,-78,43,100,-82,-17,170,326,180,4,-58,-78
-122,-78,43,100,-82,-17,175,341,180,14,-53,-82
-122,-78,43,100,-82,-17,175,361,195,14,-53,-82
-122,-78,43,100,-82,-17,180,380,209,14,-53,-82
-117,-78,39,97,-78,-19,180,405,224,19,-53,-78
-117,-73,43,95,-80,-14,185,424,244,19,-53,-73
-117,-68,48,92,-82,-9,185,448,253,24,-53,-73
-117,-68,48,92,-82,-9,190,473,273,24,-53,-73
-117,-68,48,92,-82,-9,190,497,283,29,-53,-73
-112,-68,43,90,-78,-12,195,527,302,34,-53,-73
-112,-78,34,95,-73,-21,195,546,322,39,-48,-73
-107,-87,19,97,-63,-34,200,580,346,48,-39,-73
-107,-73,34,90,-70,-19,200,605,366,48,-39,-73
-107,-63,43,85,-75,-9,209,639,390,58,-34,-73
-102,-58,43,80,-73,-7,209,668,409,63,-34,-73
-102,-58,43,80,-73,-7,209,702,434,68,-29,-73
-97,-58,39,78,-68,-9,224,736,453,78,-29,-68
-92,-63,29,78,-61,-17,234,775,483,82,-29,-63
-92,-58,34,75,-63,-12,239,800,502,92,-24,-63
-92,-53,39,73,-65,-7,239,824,527,102,-19,-58
-92,-48,43,70,-68,-2,234,854,546,102,-19,-63
-87,-39,48,63,-68,4,229,873,566,102,-19,-68
-87,-43,43,65,-65,0,234,897,580,107,-14,-68
-82,-43,39,63,-61,-2,234,907,600,117,-9,-68
-82,-43,39,63,-61,-2,229,917,610,122,-4,-68
-82,-29,53,56,-68,12,229,922,610,122,-4,-68
-82,-29,53,56,-68,12,224,917,614,126,-9,-63
-78,-24,53,51,-65,14,219,907,619,131,-9,-58
-68,-14,53,41,-61,19,209,897,614,131,-9,-58
-58,-4,53,31,-56,24,204,873,600,126,-9,-53
-53,0,53,26,-53,26,195,839,585,122,-4,-58
-48,0,48,24,-48,24,185,795,566,122,-4,-58
-48,0,48,24,-48,24,175,751,541,122,-4,-48
-39,4,43,17,-41,24,161,692,502,112,-4,-48
-34,9,43,12,-39,26,146,629,463,102,-4,-48
-29,14,43,7,-36,29,131,556,409,87,-4,-43
-19,14,34,2,-26,24,112,483,366,73,-9,-39
-14,14,29,0,-21,21,97,419,322,68,-9,-39
-9,9,19,0,-14,14,87,361,278,58,-14,-39
-4,4,9,0,-7,7,78,302,229,48,-14,-34
-9,4,14,2,-12,9,68,248,180,39,-19,-34
-14,4,19,4,-17,12,58,209,146,29,-19,-29
-14,0,14,7,-14,7,48,175,126,24,-19,-29
-19,-4,14,12,-17,4,43,141,97,14,-24,-29
-19,-4,14,12,-17,4,39,117,73,9,-24,-29
-19,-9,9,14,-14,0,29,97,58,4,-24,-29
-24,-14,9,19,-17,-2,29,78,43,0,-24,-29
-29,-24,4,26,-17,-9,34,68,29,-4,-29,-29
-29,-24,4,26,-17,-9,39,63,19,-9,-34,-29
-34,-24,9,29,-21,-7,39,48,9,-14,-39,-34
-39,-24,14,31,-26,-4,39,43,0,-9,-39,-34
-39,-29,9,34,-24,-9,39,43,-4,-9,-39,-34
-43,-34,9,39,-26,-12,48,43,-14,-9,-39,-34
-43,-34,9,39,-26,-12,48,39,-19,-14,-39,-39
-48,-34,14,41,-31,-9,53,34,-24,-19,-39,-34
-48,-34,14,41,-31,-9,58,34,-29,-24,-34,-34
-48,-34,14,41,-31,-9,63,34,-24,-24,-34,-34
-53,-34,19,43,-36,-7,63,34,-19,-24,-34,-34
-53,-34,19,43,-36,-7,63,39,-19,-24,-34,-34
-53,-34,19,43,-36,-7,63,39,-24,-29,-34,-34
-53,-39,14,46,-34,-12,63,39,-24,-29,-34,-34
-53,-39,14,46,-34,-12,68,39,-19,-29,-34,-34
-53,-39,14,46,-34,-12,73,48,-19,-24,-34,-34
-53,-39,14,46,-34,-12,73,53,-14,-24,-34,-29
-53,-34,19,43,-36,-7,73,58,-14,-24,-29,-34
-58,-34,24,46,-41,-4,73,63,-14,-24,-29,-39
-58,-39,19,48,-39,-9,73,63,-9,-19,-34,-39
-58,-39,19,48,-39,-9,73,68,-9,-14,-39,-39
-58,-34,24,46,-41,-4,73,68,-9,-14,-39,-34
-58,-34,24,46,-41,-4,73,73,-9,-14,-39,-34
-58,-34,24,46,-41,-4,78,78,-4,-14,-34,-34
-53,-34,19,43,-36,-7,78,78,0,-14,-24,-34
-53,-29,24,41,-39,-2,78,82,4,-9,-24,-34
-53,-29,24,41,-39,-2,82,82,14,-9,-24,-39
-53,-34,19,43,-36,-7,82,82,19,-4,-24,-34
-53,-34,19,43,-36,-7,82,82,19,-4,-24,-34
-53,-29,24,41,-39,-2,82,82,24,0,-19,-29
-48,-24,24,36,-36,0,78,82,24,0,-19,-29
-48,-24,24,36,-36,0,73,82,24,0,-19,-29
-53,-24,29,39,-41,2,68,87,29,0,-19,-29
-53,-34,19,43,-36,-7,68,92,29,0,-19,-24
-48,-39,9,43,-29,-14,63,92,29,0,-19,-24
-48,-39,9,43,-29,-14,63,87,29,0,-19,-19
-48,-39,9,43,-29,-14,63,87,29,0,-19,-19
-48,-34,14,41,-31,-9,63,87,29,0,-19,-24
-48,-29,19,39,-34,-4,63,87,29,0,-19,-24
-48,-29,19,39,-34,-4,63,82,24,4,-19,-24
-48,-29,19,39,-34,-4,63,82,24,9,-19,-24
-43,-39,4,41,-24,-17,63,82,29,4,-19,-24
-43,-48,-4,46,-19,-26,58,78,24,4,-24,-24
-48,-48,0,48,-24,-24,58,78,24,0,-24,-24
-48,-48,0,48,-24,-24,63,78,29,-4,-24,-24
-48,-43,4,46,-26,-19,68,73,29,-4,-19,-24
-48,-43,4,46,-26,-19,68,73,24,-4,-14,-24
-43,-43,0,43,-21,-21,68,73,24,-4,-14,-24
-43,-43,0,43,-21,-21,68,73,24,0,-14,-24
-43,-43,0,43,-21,-21,68,68,19,0,-14,-24
-48,-43,4,46,-26,-19,63,63,19,0,-19,-24
-48,-39,9,43,-29,-14,63,63,14,0,-19,-24
-48,-34,14,41,-31,-9,68,63,14,0,-14,-24
-48,-34,14,41,-31,-9,68,68,14,-4,-14,-24
-48,-34,14,41,-31,-9,68,68,14,-4,-14,-19
-48,-34,14,41,-31,-9,63,68,14,-4,-14,-19
-48,-34,14,41,-31,-9,58,63,9,-4,-19,-24
-48,-34,14,41,-31,-9,58,63,4,-14,-24,-29
-48,-34,14,41,-31,-9,58,58,0,-19,-29,-34
-53,-39,14,46,-34,-12,58,58,4,-19,-29,-34
-58,-39,19,48,-39,-9,58,58,4,-19,-24,-34
-58,-39,19,48,-39,-9,58,58,4,-9,-19,-34
-58,-39,19,48,-39,-9,58,58,4,-4,-19,-34
-53,-39,14,46,-34,-12,63,63,4,-4,-19,-34
-48,-39,9,43,-29,-14,63,63,0,-4,-19,-34
-48,-39,9,43,-29,-14,63,63,0,-9,-19,-34
-43,-39,4,41,-24,-17,63,63,4,-9,-19,-34
-43,-43,0,43,-21,-21,68,58,9,-9,-19,-34
-43,-48,-4,46,-19,-26,68,58,9,-9,-19,-34
-48,-48,0,48,-24,-24,68,58,4,-14,-24,-34
-58,-48,9,53,-34,-19,68,63,4,-19,-29,-34
-58,-48,9,53,-34,-19,68,63,14,-19,-34,-34
-63,-48,14,56,-39,-17,73,58,14,-19,-34,-39
-58,-53,4,56,-31,-24,73,58,9,-14,-24,-34
-53,-53,0,53,-26,-26,73,63,9,-9,-19,-29
-53,-53,0,53,-26,-26,73,63,9,-9,-19,-29
-53,-53,0,53,-26,-26,73,63,9,-9,-19,-29
-53,-53,0,53,-26,-26,73,63,14,-9,-24,-29
-53,-53,0,53,-26,-26,78,68,14,-9,-24,-29
-53,-53,0,53,-26,-26,78,68,9,-9,-29,-34
-53,-48,4,51,-29,-21,78,68,9,-14,-34,-39
-48,-48,0,48,-24,-24,78,68,9,-9,-29,-39
-48,-48,0,48,-24,-24,78,68,9,-9,-29,-39
-53,-48,4,51,-29,-21,78,68,9,-9,-29,-39
-58,-48,9,53,-34,-19,78,68,9,-9,-29,-39
-58,-48,9,53,-34,-19,78,68,9,-9,-29,-39
-58,-48,9,53,-34,-19,78,68,9,-9,-29,-39
-58,-48,9,53,-34,-19,78,73,9,-14,-29,-39
-58,-48,9,53,-34,-19,78,78,9,-19,-29,-39
-58,-48,9,53,-34,-19,78,78,9,-19,-29,-39
-58,-48,9,53,-34,-19,78,78,9,-19,-29,-39
-53,-39,14,46,-34,-12,82,78,9,-19,-29,-39
-48,-29,19,39,-34,-4,87,78,9,-19,-29,-39
-43,-29,14,36,-29,-7,87,82,14,-19,-29,-39
-39,-29,9,34,-24,-9,87,87,19,-19,-29,-39
-34,-29,4,31,-19,-12,92,97,24,-19,-24,-39
-29,-24,4,26,-17,-9,97,107,29,-9,-19,-34
-24,-24,0,24,-12,-12,107,117,39,-4,-14,-29
-9,-9,0,9,-4,-4,112,126,48,4,-4,-19
-4,9,14,-2,-9,12,117,126,63,14,4,-14
-4,-4,0,4,-2,-2,126,131,63,24,4,-9
0,-4,-4,2,2,-4,131,141,68,24,4,-9
14,0,-14,-7,14,-7,141,161,78,24,4,-9
29,34,4,-31,12,19,141,185,107,53,34,9
48,78,29,-63,9,53,122,185,141,87,68,43
63,78,14,-70,24,46,73,170,141,87,68,43
63,78,14,-70,24,46,29,146,122,73,53,39
53,43,-9,-48,31,17,14,117,102,53,39,24
29,9,-19,-19,24,-4,14,97,73,29,14,0
19,-14,-34,-2,26,-24,29,82,43,4,-9,-19
9,-29,-39,9,24,-34,39,73,39,-4,-14,-24
0,-43,-43,21,21,-43,43,68,24,-9,-24,-29
-4,-43,-39,24,17,-41,53,68,24,-19,-24,-34
-14,-48,-34,31,9,-41,58,68,14,-19,-34,-43
-34,-58,-24,46,-4,-41,73,68,14,-19,-34,-43
-58,-63,-4,61,-26,-34,82,68,9,-19,-34,-43
-78,-73,4,75,-41,-34,92,63,0,-19,-39,-48
-78,-73,4,75,-41,-34,97,63,-4,-19,-39,-48
-78,-73,4,75,-41,-34,97,63,-4,-24,-39,-53
-78,-78,0,78,-39,-39,97,63,-4,-34,-39,-58
-78,-78,0,78,-39,-39,97,63,-9,-39,-43,-58
-82,-87,-4,85,-39,-46,97,63,-4,-39,-43,-58
-82,-92,-9,87,-36,-51,102,63,0,-39,-43,-58
-87,-92,-4,90,-41,-48,102,63,0,-39,-43,-58
-87,-97,-9,92,-39,-53,102,63,0,-39,-43,-53
-87,-102,-14,95,-36,-58,102,63,-4,-34,-48,-53
-87,-102,-14,95,-36,-58,97,63,-4,-34,-48,-53
-92,-102,-9,97,-41,-56,97,63,-4,-39,-48,-58
-92,-102,-9,97,-41,-56,97,58,-9,-39,-48,-58
-92,-102,-9,97,-41,-56,107,63,-9,-39,-48,-58
-92,-102,-9,97,-41,-56,117,68,-9,-39,-48,-58
-92,-102,-9,97,-41,-56,117,68,-4,-39,-48,-63
-92,-97,-4,95,-43,-51,117,68,-4,-39,-48,-63
-97,-97,0,97,-48,-48,112,63,-14,-39,-48,-63
-92,-87,4,90,-48,-41,87,39,-24,-39,-48,-63
-73,-78,-4,75,-34,-41,53,-14,-24,-43,-39,-53
-43,-53,-9,48,-17,-31,-14,-97,0,-29,-4,-19
29,24,-4,-26,17,9,-156,-263,19,14,43,29
112,107,-4,-109,58,51,-336,-517,0,63,102,102
219,200,-19,-209,119,90,-556,-922,-92,92,165,185
258,273,14,-265,122,143,-683,-1244,-273,87,185,214
317,356,39,-336,139,197,-819,-1493,-419,82,219,253
395,444,48,-419,173,246,-1063,-1820,-595,73,248,317
444,488,43,-466,200,265,-1283,-2117,-805,39,263,356
439,483,43,-461,197,263,-1351,-2327,-1068,-29,239,341
439,468,29,-453,204,248,-1385,-2440,-1312,-141,204,326
434,448,14,-441,209,231,-1400,-2522,-1503,-253,165,322
429,488,58,-458,185,273,-1351,-2605,-1546,-253,175,351
453,546,92,-500,180,319,-1312,-2625,-1561,-204,219,414
473,527,53,-500,209,290,-1249,-2532,-1566,-204,244,444
473,507,34,-490,219,270,-1215,-2430,-1532,-185,268,478
478,453,-24,-466,251,214,-1146,-2239,-1434,-180,263,478
478,424,-53,-451,265,185,-1102,-2088,-1356,-175,263,488
473,400,-73,-436,273,163,-1034,-1981,-1268,-156,283,502
488,336,-151,-412,319,92,-946,-1825,-1141,-156,268,507
497,283,-214,-390,356,34,-878,-1654,-995,-146,258,502
507,224,-283,-366,395,-29,-805,-1464,-854,-156,234,488
483,165,-317,-324,400,-75,-697,-1263,-707,-170,180,434
453,92,-361,-273,407,-134,-566,-1029,-585,-244,73,322
395,29,-366,-212,380,-168,-439,-766,-468,-283,-29,195
336,-4,-341,-165,339,-173,-346,-551,-351,-273,-73,112
263,-29,-292,-117,278,-161,-253,-424,-302,-248,-97,43
185,-58,-244,-63,214,-151,-156,-297,-234,-209,-97,0
102,-68,-170,-17,136,-119,-63,-161,-156,-165,-92,-24
14,-87,-102,36,58,-95,4,-68,-107,-141,-92,-58
-39,-87,-48,63,4,-68,58,4,-43,-92,-82,-73
-48,-78,-29,63,-9,-53,112,68,4,-58,-68,-73
-73,-92,-19,82,-26,-56,146,122,39,-43,-58,-63
-97,-92,4,95,-51,-43,161,151,63,-24,-53,-63
-102,-92,9,97,-56,-41,161,161,63,-24,-53,-73
-102,-92,9,97,-56,-41,165,161,63,-24,-53,-73
-107,-97,9,102,-58,-43,175,170,78,-19,-48,-73
-112,-97,14,104,-63,-41,175,185,82,-14,-48,-73
-117,-97,19,107,-68,-39,175,190,87,-14,-43,-73
-117,-92,24,104,-70,-34,175,190,87,-14,-39,-73
-117,-92,24,104,-70,-34,175,195,92,-9,-39,-73
-117,-92,24,104,-70,-34,180,200,97,-9,-39,-73
-112,-92,19,102,-65,-36,185,200,97,-9,-43,-73
-107,-92,14,100,-61,-39,185,204,102,-4,-43,-73
-107,-92,14,100,-61,-39,185,204,102,-4,-43,-73
-107,-92,14,100,-61,-39,185,200,107,0,-43,-73
-112,-87,24,100,-68,-31,185,204,112,0,-43,-73
-117,-87,29,102,-73,-29,185,204,112,0,-43,-73
-117,-87,29,102,-73,-29,185,204,122,0,-39,-73
-112,-92,19,102,-65,-36,185,209,122,0,-39,-73
-107,-92,14,100,-61,-39,180,219,126,0,-39,-73
-107,-92,14,100,-61,-39,175,219,131,-4,-39,-78
-107,-87,19,97,-63,-34,175,234,136,-4,-39,-78
-107,-87,19,97,-63,-34,175,234,141,0,-39,-78
-107,-87,19,97,-63,-34,180,244,151,0,-39,-78
-107,-87,19,97,-63,-34,180,253,151,0,-39,-78
-102,-87,14,95,-58,-36,180,258,161,4,-39,-73
-97,-92,4,95,-51,-43,180,273,170,14,-34,-73
-97,-92,4,95,-51,-43,180,283,170,14,-29,-73
-97,-87,9,92,-53,-39,185,292,180,14,-24,-73
-97,-82,14,90,-56,-34,185,297,190,19,-24,-73
-97,-78,19,87,-58,-29,180,307,200,19,-29,-73
-92,-78,14,85,-53,-31,185,317,209,19,-34,-73
-92,-78,14,85,-53,-31,185,331,209,24,-34,-73
-92,-82,9,87,-51,-36,190,351,224,24,-34,-73
-92,-87,4,90,-48,-41,200,370,239,24,-34,-73
-87,-87,0,87,-43,-43,200,390,248,29,-34,-73
-87,-82,4,85,-46,-39,204,405,263,29,-34,-73
-87,-73,14,80,-51,-29,200,419,273,34,-34,-73
-87,-68,19,78,-53,-24,200,434,292,34,-34,-73
-87,-68,19,78,-53,-24,200,458,302,39,-34,-73
-82,-68,14,75,-48,-26,204,488,322,43,-34,-73
-82,-68,14,75,-48,-26,204,507,341,48,-29,-73
-78,-68,9,73,-43,-29,209,541,366,58,-19,-73
-78,-63,14,70,-46,-24,204,566,385,58,-19,-73
-78,-63,14,70,-46,-24,209,600,409,68,-14,-73
-73,-58,14,65,-43,-21,209,624,434,73,-14,-73
-73,-58,14,65,-43,-21,209,653,463,78,-9,-73
-68,-48,19,58,-43,-14,214,683,483,87,-9,-73
-63,-43,19,53,-41,-12,214,717,512,92,-9,-73
-58,-39,19,48,-39,-9,219,741,531,102,-4,-73
-53,-34,19,43,-36,-7,219,766,556,112,0,-68
-53,-29,24,41,-39,-2,219,795,575,112,0,-68
-48,-19,29,34,-39,4,219,814,595,112,0,-68
-48,-19,29,34,-39,4,224,839,610,117,4,-63
-43,-14,29,29,-36,7,224,849,629,126,9,-58
-39,-14,24,26,-31,4,219,858,644,131,14,-58
-34,0,34,17,-34,17,219,863,649,131,14,-58
-34,0,34,17,-34,17,214,863,653,136,14,-53
-29,4,34,12,-31,19,209,858,658,141,19,-48
-24,14,39,4,-31,26,200,854,658,146,19,-53
-19,24,43,-2,-31,34,195,834,649,146,19,-53
-14,29,43,-7,-29,36,185,805,634,141,24,-53
-9,29,39,-9,-24,34,175,766,614,141,24,-48
-14,29,43,-7,-29,36,165,727,590,141,19,-39
-9,34,43,-12,-26,39,151,673,551,131,14,-39
-9,34,43,-12,-26,39,146,619,512,122,14,-39
-9,34,43,-12,-26,39,141,556,458,107,14,-34
-4,34,39,-14,-21,36,122,488,405,87,14,-29
-4,34,39,-14,-21,36,107,429,351,78,19,-29
0,29,29,-14,-14,29,97,375,307,68,14,-29
4,24,19,-14,-7,21,87,322,258,58,14,-24
4,19,14,-12,-4,17,78,268,209,48,9,-24
4,14,9,-9,-2,12,68,229,175,39,9,-19
4,9,4,-7,0,7,58,190,146,29,4,-19
0,4,4,-2,-2,4,53,151,107,14,-4,-19
-4,4,9,0,-7,7,58,126,82,9,-4,-19
-9,0,9,4,-9,4,58,107,68,4,-4,-19
-14,-4,9,9,-12,2,58,87,48,0,-4,-19
-19,-14,4,17,-12,-4,63,78,29,-4,-9,-19
-24,-14,9,19,-17,-2,68,73,19,-9,-14,-19
-34,-14,19,24,-26,2,68,58,9,-14,-19,-24
-39,-14,24,26,-31,4,68,48,0,-14,-19,-24
-39,-19,19,29,-29,0,68,43,-4,-19,-19,-24
-43,-19,24,31,-34,2,78,43,-9,-19,-19,-29
-43,-14,29,29,-36,7,78,39,-9,-24,-19,-39
-48,-14,34,31,-41,9,78,39,-14,-24,-24,-39
-48,-14,34,31,-41,9,78,43,-19,-24,-24,-43
-48,-24,24,36,-36,0,82,43,-19,-24,-24,-39
-53,-34,19,43,-36,-7,82,43,-19,-24,-24,-34
-53,-34,19,43,-36,-7,82,48,-19,-24,-24,-34
-53,-34,19,43,-36,-7,82,48,-24,-29,-24,-34
-53,-34,19,43,-36,-7,78,48,-24,-29,-24,-34
-53,-29,24,41,-39,-2,78,48,-19,-29,-24,-34
-53,-29,24,41,-39,-2,82,53,-19,-19,-24,-34
-53,-29,24,41,-39,-2,82,53,-14,-14,-24,-29
-48,-24,24,36,-36,0,82,58,-14,-14,-19,-29
-48,-24,24,36,-36,0,82,63,-14,-14,-19,-29
-48,-29,19,39,-34,-4,82,63,-9,-9,-19,-29
-48,-29,19,39,-34,-4,82,68,-9,-4,-19,-29
-48,-19,29,34,-39,4,82,68,-9,-4,-19,-29
-48,-14,34,31,-41,9,82,73,-9,-4,-19,-34
-48,-14,34,31,-41,9,82,78,-4,-4,-14,-34
-43,-14,29,29,-36,7,78,78,0,-4,-4,-34
-43,-9,34,26,-39,12,78,82,0,0,-4,-29
-43,-9,34,26,-39,12,82,82,4,0,-4,-29
-43,-14,29,29,-36,7,78,82,9,4,-9,-24
-43,-14,29,29,-36,7,73,82,9,4,-14,-24
-43,-9,34,26,-39,12,73,82,9,9,-9,-24
-39,-4,34,21,-36,14,68,82,4,9,-9,-29
-43,-4,39,24,-41,17,68,82,4,9,-9,-29
-53,-4,48,29,-51,21,68,87,9,9,-9,-29
-53,-9,43,31,-48,17,68,87,9,4,-9,-29
-48,-9,39,29,-43,14,63,82,9,0,-9,-34
-43,-9,34,26,-39,12,63,78,14,0,-9,-29
-39,-9,29,24,-34,9,63,78,19,0,-9,-29
-39,-19,19,29,-29,0,63,78,19,0,-9,-29
-39,-29,9,34,-24,-9,63,78,19,0,-9,-24
-39,-19,19,29,-29,0,63,73,14,0,-9,-24
-39,-9,29,24,-34,9,63,73,14,0,-9,-24
-34,-9,24,21,-29,7,63,73,14,-4,-9,-24
-34,-9,24,21,-29,7,58,68,4,-4,-14,-24
-39,-9,29,24,-34,9,58,68,0,-4,-14,-24
-39,-9,29,24,-34,9,63,68,0,-4,-14,-24
-39,-9,29,24,-34,9,63,63,0,-4,-14,-24
-39,-14,24,26,-31,4,58,63,-4,-4,-14,-24
-39,-14,24,26,-31,4,58,63,-4,-9,-14,-24
-43,-14,29,29,-36,7,58,63,-4,-9,-14,-24
-43,-14,29,29,-36,7,63,58,-4,-9,-14,-24
-48,-14,34,31,-41,9,63,53,0,-9,-19,-24
-48,-14,34,31,-41,9,63,53,-4,-9,-19,-24
-48,-14,34,31,-41,9,68,53,-4,-9,-14,-24
-48,-14,34,31,-41,9,68,58,-9,-14,-14,-29
-48,-14,34,31,-41,9,68,58,-14,-14,-14,-29
-48,-14,34,31,-41,9,68,63,-14,-9,-14,-29
-48,-14,34,31,-41,9,68,63,-19,-4,-19,-34
-48,-14,34,31,-41,9,68,63,-19,-9,-19,-34
-48,-14,34,31,-41,9,68,58,-19,-9,-19,-34
-48,-19,29,34,-39,4,68,58,-14,-9,-19,-34
-48,-19,29,34,-39,4,68,58,-14,-9,-14,-34
-43,-19,24,31,-34,2,68,58,-14,-4,-14,-34
-39,-19,19,29,-29,0,68,58,-14,-4,-19,-34
-39,-19,19,29,-29,0,68,58,-14,-4,-19,-34
-39,-19,19,29,-29,0,63,53,-19,-4,-19,-34
-43,-19,24,31,-34,2,63,53,-19,-9,-19,-34
-43,-19,24,31,-34,2,63,53,-14,-9,-19,-34
-48,-24,24,36,-36,0,68,53,-14,-9,-19,-34
-53,-29,24,41,-39,-2,68,58,-19,-9,-19,-34
-48,-29,19,39,-34,-4,68,58,-24,-9,-19,-34
-48,-29,19,39,-34,-4,68,63,-24,-9,-19,-34
-48,-24,24,36,-36,0,63,58,-14,-9,-29,-34
-53,-19,34,36,-43,7,63,48,-14,-9,-34,-39
-53,-24,29,39,-41,2,63,48,-19,-9,-29,-39
-53,-24,29,39,-41,2,63,53,-19,-9,-29,-39
-53,-24,29,39,-41,2,68,58,-19,-9,-29,-39
-53,-24,29,39,-41,2,73,63,-19,-9,-29,-39
-53,-24,29,39,-41,2,68,58,-14,-9,-34,-43
-53,-24,29,39,-41,2,68,58,-14,-9,-34,-48
-53,-24,29,39,-41,2,63,58,-19,-9,-34,-48
-53,-19,34,36,-43,7,58,58,-19,-14,-34,-48
-48,-29,19,39,-34,-4,63,58,-14,-9,-29,-48
-48,-39,9,43,-29,-14,68,58,-9,-9,-29,-48
-48,-29,19,39,-34,-4,68,53,-14,-9,-29,-48
-48,-19,29,34,-39,4,68,48,-19,-9,-29,-48
-48,-19,29,34,-39,4,68,48,-19,-9,-29,-43
-48,-19,29,34,-39,4,68,48,-19,-9,-29,-39
-43,-14,29,29,-36,7,68,53,-14,-9,-29,-39
-39,-9,29,24,-34,9,68,58,-9,-9,-29,-39
-34,-9,24,21,-29,7,73,73,-9,-9,-24,-39
-24,-9,14,17,-19,2,78,82,-4,-4,-19,-34
-19,-9,9,14,-14,0,87,97,0,-4,-19,-34
-19,-4,14,12,-17,4,97,107,9,4,-14,-29
-9,9,19,0,-14,14,102,117,19,14,-4,-19
-4,29,34,-12,-19,31,107,117,34,19,4,-14
-4,14,19,-4,-12,17,117,122,39,24,4,-9
0,14,14,-7,-7,14,122,131,48,24,4,-9
14,19,4,-17,4,12,131,151,58,24,4,-9
29,53,24,-41,2,39,131,175,87,53,34,9
48,97,48,-73,0,73,112,175,122,87,68,43
63,97,34,-80,14,65,63,161,122,87,68,43
63,107,43,-85,9,75,19,136,102,73,53,39
58,82,24,-70,17,53,4,107,78,53,39,24
39,39,0,-39,19,19,0,87,43,29,14,0
29,4,-24,-17,26,-9,4,73,14,4,-9,-19
19,-9,-29,-4,24,-19,9,63,9,-4,-14,-24
4,-24,-29,9,17,-26,14,58,-4,-9,-24,-29
-4,-24,-19,14,7,-21,29,58,-4,-19,-24,-39
-14,-29,-14,21,0,-21,39,58,-14,-19,-34,-53
-34,-39,-4,36,-14,-21,53,53,-19,-19,-34,-53
-58,-43,14,51,-36,-14,63,48,-24,-19,-34,-53
-78,-53,24,65,-51,-14,73,43,-29,-19,-43,-58
-78,-53,24,65,-51,-14,78,43,-34,-19,-48,-58
-78,-53,24,65,-51,-14,78,43,-34,-24,-48,-63
-78,-58,19,68,-48,-19,78,43,-34,-29,-48,-68
-78,-53,24,65,-51,-14,73,43,-39,-34,-53,-68
-82,-53,29,68,-56,-12,68,43,-39,-39,-53,-68
-82,-53,29,68,-56,-12,73,43,-39,-39,-53,-68
-87,-53,34,70,-61,-9,73,43,-39,-39,-53,-73
-87,-63,24,75,-56,-19,78,43,-39,-34,-53,-73
-87,-73,14,80,-51,-29,87,43,-43,-29,-58,-73
-87,-73,14,80,-51,-29,87,43,-43,-34,-58,-73
-92,-73,19,82,-56,-26,87,43,-43,-39,-58,-78
-92,-68,24,80,-58,-21,82,39,-48,-39,-58,-78
-92,-63,29,78,-61,-17,78,39,-48,-39,-58,-78
-92,-63,29,78,-61,-17,78,39,-48,-39,-58,-78
-92,-68,24,80,-58,-21,78,39,-43,-39,-58,-78
-92,-73,19,82,-56,-26,87,43,-43,-39,-58,-73
-92,-78,14,85,-53,-31,92,39,-48,-39,-58,-73
-82,-68,14,75,-48,-26,73,9,-53,-39,-58,-73
-63,-58,4,61,-34,-26,34,-43,-53,-34,-48,-63
-39,-34,4,36,-21,-14,-43,-117,-24,-9,-14,-29
29,43,14,-36,7,29,-185,-297,-9,24,29,19
112,122,9,-117,51,65,-366,-575,-39,63,87,92
219,204,-14,-212,117,95,-585,-980,-146,82,146,165
258,273,14,-265,122,143,-707,-1288,-341,68,156,185
326,336,9,-331,158,173,-854,-1512,-488,53,185,219
414,409,-4,-412,209,202,-1112,-1830,-653,34,209,278
468,448,-19,-458,244,214,-1317,-2108,-854,-19,209,302
468,434,-34,-451,251,200,-1381,-2298,-1132,-107,165,268
473,419,-53,-446,263,183,-1410,-2410,-1376,-219,117,244
473,395,-78,-434,275,158,-1410,-2498,-1556,-336,68,234
478,419,-58,-448,268,180,-1361,-2566,-1590,-341,87,263
512,468,-43,-490,278,212,-1327,-2576,-1595,-292,141,331
531,468,-63,-500,297,202,-1278,-2503,-1595,-278,170,370
531,478,-53,-505,292,212,-1254,-2420,-1551,-244,200,409
531,444,-87,-488,309,178,-1185,-2259,-1473,-234,200,409
527,424,-102,-475,314,161,-1146,-2137,-1424,-224,204,419
507,405,-102,-456,305,151,-1083,-2049,-1351,-195,229,439
507,351,-156,-429,331,97,-995,-1908,-1229,-185,219,448
517,307,-209,-412,363,48,-927,-1742,-1083,-175,209,448
531,253,-278,-392,405,-12,-858,-1556,-936,-175,190,448
512,195,-317,-353,414,-61,-756,-1356,-780,-170,151,414
488,122,-366,-305,427,-122,-624,-1117,-649,-244,53,312
434,63,-370,-248,402,-153,-497,-854,-527,-292,-39,195
375,29,-346,-202,361,-158,-405,-634,-409,-283,-73,117
302,0,-302,-151,302,-151,-307,-492,-361,-258,-97,43
224,-29,-253,-97,239,-141,-204,-356,-292,-219,-97,0
136,-39,-175,-48,156,-107,-112,-219,-214,-175,-92,-24
43,-58,-102,7,73,-80,-39,-117,-161,-151,-92,-58
-19,-58,-39,39,9,-48,19,-29,-92,-102,-82,-73
-43,-48,-4,46,-19,-26,73,39,-39,-68,-73,-78
-73,-63,9,68,-41,-26,107,92,0,-53,-68,-73
-97,-53,43,75,-70,-4,122,122,24,-34,-63,-73
-102,-43,58,73,-80,7,122,131,24,-34,-63,-82
-102,-53,48,78,-75,-2,126,131,24,-29,-63,-78
-107,-68,39,87,-73,-14,141,141,39,-19,-58,-73
-112,-68,43,90,-78,-12,146,156,43,-14,-58,-73
-117,-68,48,92,-82,-9,146,161,48,-14,-58,-73
-117,-63,53,90,-85,-4,146,161,48,-14,-58,-73
-117,-63,53,90,-85,-4,146,165,53,-9,-58,-73
-117,-63,53,90,-85,-4,151,170,63,-9,-58,-73
-117,-63,53,90,-85,-4,151,170,68,-9,-58,-73
-117,-68,48,92,-82,-9,146,175,73,-4,-53,-73
-117,-73,43,95,-80,-14,146,180,73,-4,-53,-73
-117,-73,43,95,-80,-14,146,180,73,0,-53,-73
-117,-68,48,92,-82,-9,146,185,73,0,-53,-73
-117,-63,53,90,-85,-4,146,185,73,0,-53,-78
-117,-58,58,87,-87,0,146,185,82,0,-48,-82
-117,-63,53,90,-85,-4,146,190,82,0,-48,-82
-117,-63,53,90,-85,-4,146,200,87,4,-48,-78
-117,-68,48,92,-82,-9,146,200,92,4,-43,-78
-117,-68,48,92,-82,-9,146,214,97,4,-39,-78
-112,-68,43,90,-78,-12,146,214,102,9,-39,-78
-107,-68,39,87,-73,-14,151,224,112,9,-39,-78
-107,-63,43,85,-75,-9,151,234,112,9,-39,-78
-107,-58,48,82,-78,-4,151,239,122,9,-39,-78
-107,-63,43,85,-75,-9,151,253,131,9,-34,-82
-107,-63,43,85,-75,-9,151,263,131,4,-34,-82
-107,-58,48,82,-78,-4,156,273,141,4,-34,-82
-107,-58,48,82,-78,-4,161,283,151,9,-34,-82
-107,-58,48,82,-78,-4,161,297,161,9,-43,-82
-102,-58,43,80,-73,-7,165,307,170,9,-48,-82
-102,-58,43,80,-73,-7,165,322,170,14,-43,-82
-102,-58,43,80,-73,-7,165,341,185,14,-43,-82
-107,-63,43,85,-75,-9,170,361,200,14,-43,-82
-107,-68,39,87,-73,-14,170,380,209,19,-43,-82
-107,-63,43,85,-75,-9,175,400,224,19,-39,-82
-107,-58,48,82,-78,-4,175,424,234,24,-34,-82
-107,-58,48,82,-78,-4,180,444,253,29,-34,-82
-107,-58,48,82,-78,-4,180,468,263,39,-34,-82
-102,-58,43,80,-73,-7,190,497,283,43,-39,-82
-102,-58,43,80,-73,-7,195,517,302,48,-43,-82
-97,-58,39,78,-68,-9,200,551,326,58,-39,-82
-97,-53,43,75,-70,-4,200,575,346,58,-39,-82
-97,-53,43,75,-70,-4,209,610,370,68,-34,-78
-92,-48,43,70,-68,-2,209,639,390,73,-34,-73
-92,-48,43,70,-68,-2,209,673,414,73,-29,-73
-87,-43,43,65,-65,0,214,702,434,78,-29,-73
-82,-43,39,63,-61,-2,214,736,463,82,-29,-73
-82,-39,43,61,-63,2,219,761,483,92,-24,-73
-82,-39,43,61,-63,2,219,785,507,102,-19,-68
-82,-39,43,61,-63,2,219,814,527,102,-19,-68
-78,-29,48,53,-63,9,219,834,541,102,-19,-73
-78,-29,48,53,-63,9,224,858,551,107,-14,-78
-73,-24,48,48,-61,12,229,868,570,117,-9,-78
-68,-24,43,46,-56,9,229,878,585,122,-4,-78
-63,-9,53,36,-58,21,229,883,595,122,-4,-78
-63,-9,53,36,-58,21,224,883,605,126,-4,-73
-58,-4,53,31,-56,24,219,883,610,131,0,-68
-53,4,58,24,-56,31,209,878,610,136,0,-68
-48,14,63,17,-56,39,204,854,600,136,0,-63
-43,19,63,12,-53,41,195,824,585,131,4,-63
-39,19,58,9,-48,39,185,785,566,131,4,-58
-39,19,58,9,-48,39,175,741,541,131,4,-48
-29,19,48,4,-39,34,161,683,507,122,4,-48
-24,14,39,4,-31,26,151,624,473,112,4,-48
-14,14,29,0,-21,21,136,556,419,97,4,-43
-4,14,19,-4,-12,17,112,488,370,78,0,-39
-4,19,24,-7,-14,21,97,424,322,68,0,-39
0,19,19,-9,-9,19,87,361,278,58,-4,-39
0,14,14,-7,-7,14,78,302,229,53,-4,-34
-4,14,19,-4,-12,17,68,248,180,48,-9,-34
-4,14,19,-4,-12,17,58,209,146,39,-9,-29
-4,9,14,-2,-9,12,48,175,122,34,-9,-29
-4,4,9,0,-7,7,43,141,92,24,-14,-29
-4,4,9,0,-7,7,43,117,73,19,-14,-29
-9,0,9,4,-9,4,39,97,58,14,-14,-29
-14,-4,9,9,-12,2,39,78,43,9,-14,-29
-24,-14,9,19,-17,-2,43,63,24,4,-14,-29
-29,-14,14,21,-21,0,48,53,9,0,-14,-29
-34,-14,19,24,-26,2,48,39,0,-4,-19,-34
-39,-14,24,26,-31,4,48,34,-9,-4,-19,-34
-39,-19,19,29,-29,0,43,34,-14,-9,-19,-34
-43,-24,19,34,-31,-2,48,34,-19,-9,-19,-34
-43,-24,19,34,-31,-2,48,29,-19,-14,-19,-39
-48,-24,24,36,-36,0,48,24,-24,-14,-24,-39
-48,-24,24,36,-36,0,48,24,-29,-14,-24,-39
-48,-24,24,36,-36,0,53,24,-29,-14,-24,-34
-48,-24,24,36,-36,0,53,24,-29,-14,-24,-34
-43,-24,19,34,-31,-2,53,29,-29,-14,-24,-34
-43,-29,14,36,-29,-7,63,34,-29,-19,-24,-34
-43,-39,4,41,-24,-17,73,39,-24,-19,-24,-34
-48,-39,9,43,-29,-14,68,39,-19,-19,-24,-34
-53,-39,14,46,-34,-12,63,43,-19,-14,-24,-34
-53,-34,19,43,-36,-7,63,43,-14,-14,-24,-29
-53,-24,29,39,-41,2,63,48,-14,-14,-19,-29
-58,-24,34,41,-46,4,63,53,-14,-14,-19,-29
-58,-29,29,43,-43,0,63,53,-9,-9,-19,-29
-58,-29,29,43,-43,0,68,58,-14,-4,-19,-29
-58,-24,34,41,-46,4,73,58,-19,-4,-19,-29
-53,-24,29,39,-41,2,73,63,-19,-4,-19,-34
-48,-24,24,36,-36,0,73,68,-14,-4,-19,-34
-43,-24,19,34,-31,-2,68,63,-9,-4,-14,-34
-43,-19,24,31,-34,2,68,63,-9,0,-14,-29
-48,-14,34,31,-41,9,73,63,-4,0,-19,-29
-53,-14,39,34,-46,12,73,63,0,4,-24,-24
-53,-14,39,34,-46,12,73,63,0,4,-24,-24
-53,-9,43,31,-48,17,73,63,4,9,-19,-24
-48,-9,39,29,-43,14,68,63,9,9,-14,-29
-48,-14,34,31,-41,9,68,63,14,9,-9,-29
-48,-14,34,31,-41,9,68,68,19,9,-9,-29
-43,-19,24,31,-34,2,68,73,19,9,-9,-24
-39,-14,24,26,-31,4,58,73,14,9,-9,-29
-39,-9,29,24,-34,9,53,68,14,9,-9,-29
-39,-9,29,24,-34,9,53,68,19,9,-9,-29
-39,-9,29,24,-34,9,53,68,19,9,-9,-34
-39,-9,29,24,-34,9,53,68,19,9,-14,-29
-39,-9,29,24,-34,9,53,63,14,9,-19,-24
-43,-9,34,26,-39,12,53,63,14,9,-19,-24
-43,-9,34,26,-39,12,53,63,14,4,-19,-24
-43,-9,34,26,-39,12,53,58,4,4,-19,-24
-48,-9,39,29,-43,14,58,58,4,4,-14,-24
-48,-9,39,29,-43,14,63,58,4,4,-14,-24
-48,-9,39,29,-43,14,63,53,0,4,-14,-24
-48,-14,34,31,-41,9,53,53,-4,4,-19,-24
-43,-14,29,29,-36,7,48,53,-4,0,-24,-24
-43,-14,29,29,-36,7,48,53,0,0,-24,-24
-43,-14,29,29,-36,7,48,48,0,0,-24,-24
-48,-14,34,31,-41,9,43,43,0,0,-29,-24
-48,-14,34,31,-41,9,43,43,-4,0,-29,-24
-48,-14,34,31,-41,9,48,43,-4,0,-19,-24
-48,-14,34,31,-41,9,48,48,-4,-4,-14,-29
-48,-19,29,34,-39,4,48,48,-4,-4,-14,-29
-48,-24,24,36,-36,0,48,48,-4,-4,-14,-29
-48,-24,24,36,-36,0,48,43,-9,-4,-19,-34
-48,-24,24,36,-36,0,48,43,-9,-9,-19,-34
-48,-24,24,36,-36,0,48,39,-9,-9,-19,-34
-48,-29,19,39,-34,-4,48,39,-4,-9,-19,-34
-43,-24,19,34,-31,-2,48,39,-4,-9,-14,-34
-39,-19,19,29,-29,0,48,39,-4,-4,-14,-34
-39,-19,19,29,-29,0,48,39,-4,-4,-19,-34
-39,-19,19,29,-29,0,53,43,-4,-4,-19,-34
-39,-19,19,29,-29,0,53,43,-9,-4,-19,-34
-43,-19,24,31,-34,2,53,43,-9,-9,-19,-34
-48,-19,29,34,-39,4,53,43,-4,-9,-19,-34
-53,-19,34,36,-43,7,53,39,-4,-9,-19,-34
-53,-19,34,36,-43,7,48,39,-9,-9,-19,-34
-48,-19,29,34,-39,4,48,39,-14,-9,-19,-34
-48,-19,29,34,-39,4,48,43,-14,-9,-19,-34
-48,-19,29,34,-39,4,48,43,-4,-9,-24,-34
-53,-19,34,36,-43,7,53,39,-4,-9,-29,-34
-53,-24,29,39,-41,2,53,39,-9,-9,-29,-29
-48,-24,24,36,-36,0,58,43,-9,-9,-29,-29
-43,-24,19,34,-31,-2,63,43,-9,-9,-29,-29
-43,-24,19,34,-31,-2,63,43,-9,-9,-29,-34
-43,-24,19,34,-31,-2,58,39,-4,-9,-34,-39
-48,-24,24,36,-36,0,53,39,-4,-9,-34,-39
-53,-24,29,39,-41,2,48,39,-9,-9,-34,-39
-48,-19,29,34,-39,4,48,39,-9,-9,-29,-39
-43,-14,29,29,-36,7,48,39,-14,-9,-29,-39
-48,-14,34,31,-41,9,53,43,-9,-9,-29,-39
-58,-19,39,39,-48,9,58,48,-9,-9,-29,-39
-58,-19,39,39,-48,9,58,48,-9,-9,-29,-39
-58,-19,39,39,-48,9,58,48,-9,-9,-29,-39
-53,-19,34,36,-43,7,58,53,-9,-9,-29,-39
-48,-19,29,34,-39,4,58,58,-9,-9,-29,-39
-48,-19,29,34,-39,4,58,58,-9,-9,-29,-39
-48,-19,29,34,-39,4,58,58,-9,-9,-29,-39
-48,-14,34,31,-41,9,58,58,-9,-9,-24,-39
-48,-9,39,29,-43,14,58,58,-9,-9,-19,-39
-48,4,53,21,-51,29,63,63,-4,-9,-19,-39
-48,19,68,14,-58,43,68,68,0,-9,-19,-39
-39,4,43,17,-41,24,73,78,4,-9,-19,-39
-34,0,34,17,-34,17,78,87,9,0,-14,-34
-29,-4,24,17,-26,9,87,102,19,4,-14,-29
-19,9,29,4,-24,19,92,117,29,14,-4,-19
-14,29,43,-7,-29,36,97,117,43,19,4,-14
-14,14,29,0,-21,21,107,122,43,24,4,-9
-9,14,24,-2,-17,19,117,122,48,19,0,-9
4,19,14,-12,-4,17,131,131,58,14,-4,-9
19,53,34,-36,-7,43,146,170,92,43,24,9
39,97,58,-68,-9,78,141,185,131,78,58,43
63,107,43,-85,9,75,82,170,136,87,68,48
73,117,43,-95,14,80,29,146,122,82,63,48
68,82,14,-75,26,48,4,117,107,63,48,34
48,48,0,-48,24,24,-4,97,82,39,24,9
39,24,-14,-31,26,4,4,78,43,14,0,-9
29,9,-19,-19,24,-4,9,63,29,4,-4,-14
14,-14,-29,0,21,-21,14,58,14,0,-14,-19
4,-24,-29,9,17,-26,24,58,14,-9,-14,-24
-4,-29,-24,17,9,-26,29,58,0,-9,-29,-34
-24,-39,-14,31,-4,-26,43,58,-4,-9,-34,-34
-48,-43,4,46,-26,-19,53,53,-4,-9,-34,-39
-68,-53,14,61,-41,-19,63,43,-9,-9,-39,-48
-73,-53,19,63,-46,-17,68,43,-14,-9,-39,-48
-78,-53,24,65,-51,-14,68,43,-14,-14,-39,-53
-78,-58,19,68,-48,-19,68,43,-19,-24,-39,-58
-78,-58,19,68,-48,-19,68,43,-29,-29,-43,-58
-82,-63,19,73,-51,-21,68,43,-29,-29,-48,-58
-82,-63,19,73,-51,-21,73,43,-29,-29,-53,-58
-87,-63,24,75,-56,-19,73,43,-29,-29,-53,-63
-87,-68,19,78,-53,-24,73,43,-29,-29,-53,-63
-87,-73,14,80,-51,-29,78,43,-29,-29,-58,-58
-87,-73,14,80,-51,-29,78,43,-24,-34,-58,-53
-92,-73,19,82,-56,-26,78,43,-24,-39,-58,-58
-92,-73,19,82,-56,-26,78,39,-29,-39,-58,-58
-92,-73,19,82,-56,-26,78,39,-29,-39,-53,-58
-92,-73,19,82,-56,-26,78,39,-29,-39,-48,-58
-97,-78,19,87,-58,-29,78,39,-24,-39,-48,-63
-102,-78,24,90,-63,-26,78,39,-24,-39,-48,-63
-102,-82,19,92,-61,-31,82,43,-29,-39,-53,-63
-92,-78,14,85,-53,-31,68,29,-34,-39,-58,-63
-87,-82,4,85,-46,-39,48,4,-34,-39,-58,-63
-73,-73,0,73,-36,-36,-4,-48,-9,-19,-34,-39
0,4,4,-2,-2,4,-126,-190,29,14,9,4
82,87,4,-85,39,46,-287,-419,29,53,63,73
190,161,-29,-175,109,65,-517,-849,-53,73,117,146
229,214,-14,-222,122,100,-653,-1195,-224,58,126,165
307,292,-14,-300,161,139,-805,-1439,-370,43,156,200
405,375,-29,-390,217,173,-1063,-1761,-546,24,180,258
483,409,-73,-446,278,168,-1317,-2083,-746,-19,180,283
507,395,-112,-451,309,141,-1420,-2318,-1000,-97,141,253
512,370,-141,-441,326,114,-1449,-2444,-1273,-234,82,219
512,341,-170,-427,341,85,-1459,-2542,-1493,-370,19,195
517,370,-146,-444,331,112,-1410,-2640,-1527,-370,39,224
551,419,-131,-485,341,143,-1371,-2674,-1532,-322,92,287
590,448,-141,-519,366,153,-1337,-2615,-1527,-302,126,331
610,478,-131,-544,370,173,-1332,-2547,-1483,-263,161,380
610,434,-175,-522,392,129,-1263,-2376,-1415,-248,161,380
605,414,-190,-509,397,112,-1220,-2244,-1366,-234,165,390
575,409,-165,-492,370,122,-1151,-2176,-1322,-204,200,414
566,366,-200,-466,383,82,-1063,-2059,-1239,-195,200,429
575,317,-258,-446,417,29,-1000,-1893,-1093,-175,204,439
585,263,-322,-424,453,-29,-932,-1708,-951,-175,195,439
570,204,-366,-387,468,-80,-834,-1517,-800,-165,170,429
551,131,-419,-341,485,-143,-712,-1293,-673,-214,92,361
492,73,-419,-283,456,-173,-575,-990,-551,-273,-14,234
434,43,-390,-239,412,-173,-473,-736,-429,-283,-63,151
361,19,-341,-190,351,-161,-375,-595,-380,-273,-97,78
283,-9,-292,-136,287,-151,-273,-453,-312,-248,-107,29
190,-29,-219,-80,204,-124,-165,-287,-224,-195,-102,4
92,-58,-151,-17,122,-104,-82,-165,-165,-161,-102,-29
9,-58,-68,24,39,-63,-19,-78,-97,-107,-92,-53
-29,-48,-19,39,-4,-34,43,0,-43,-68,-78,-63
-58,-63,-4,61,-26,-34,87,68,-4,-53,-68,-53
-87,-63,24,75,-56,-19,112,112,24,-34,-63,-53
-97,-63,34,80,-65,-14,112,126,29,-29,-63,-68
-102,-63,39,82,-70,-12,117,131,34,-24,-63,-73
-112,-68,43,90,-78,-12,131,141,48,-19,-58,-73
-122,-68,53,95,-87,-7,136,156,53,-14,-58,-73
-126,-68,58,97,-92,-4,141,161,58,-14,-58,-73
-126,-63,63,95,-95,0,146,161,58,-14,-58,-73
-126,-63,63,95,-95,0,146,165,68,-9,-58,-73
-126,-63,63,95,-95,0,151,170,78,-9,-58,-73
-126,-63,63,95,-95,0,156,170,78,-9,-58,-73
-126,-63,63,95,-95,0,156,175,82,-4,-53,-73
-126,-68,58,97,-92,-4,156,185,82,-4,-53,-73
-126,-73,53,100,-90,-9,156,190,87,0,-53,-73
-126,-68,58,97,-92,-4,151,195,92,0,-53,-73
-126,-68,58,97,-92,-4,146,195,92,0,-53,-73
-126,-58,68,92,-97,4,146,195,97,0,-43,-73
-122,-53,68,87,-95,7,146,200,92,0,-39,-73
-117,-53,63,85,-90,4,146,209,97,4,-39,-63
-117,-53,63,85,-90,4,146,209,102,4,-39,-58
-117,-58,58,87,-87,0,146,224,107,4,-39,-58
-117,-68,48,92,-82,-9,146,224,112,9,-39,-58
-112,-68,43,90,-78,-12,151,234,122,9,-43,-58
-107,-68,39,87,-73,-14,151,244,122,9,-48,-58
-107,-63,43,85,-75,-9,151,248,131,4,-48,-58
-107,-63,43,85,-75,-9,151,263,141,4,-43,-63
-112,-63,48,87,-80,-7,151,273,141,4,-43,-68
-117,-58,58,87,-87,0,156,283,151,4,-43,-73
-117,-58,58,87,-87,0,161,297,161,9,-43,-73
-117,-58,58,87,-87,0,161,317,170,9,-48,-73
-112,-58,53,85,-82,-2,170,326,180,14,-48,-73
-112,-58,53,85,-82,-2,175,341,180,24,-43,-73
-112,-58,53,85,-82,-2,175,361,195,24,-43,-68
-112,-58,53,85,-82,-2,180,380,209,24,-43,-63
-107,-63,43,85,-75,-9,180,400,219,29,-43,-63
-107,-63,43,85,-75,-9,185,414,234,29,-43,-63
-107,-58,48,82,-78,-4,185,434,239,34,-43,-63
-107,-58,48,82,-78,-4,190,453,253,34,-43,-63
-107,-53,53,80,-80,0,190,478,263,39,-43,-68
-102,-48,53,75,-78,2,195,507,283,43,-43,-73
-102,-48,53,75,-78,2,190,527,297,48,-43,-73
-97,-48,48,73,-73,0,190,561,317,58,-39,-73
-97,-43,53,70,-75,4,190,585,336,53,-39,-73
-97,-43,53,70,-75,4,200,619,361,58,-34,-73
-92,-43,48,68,-70,2,204,649,385,63,-34,-73
-92,-48,43,70,-68,-2,209,683,414,68,-29,-73
-87,-43,43,65,-65,0,214,712,434,78,-29,-73
-82,-43,39,63,-61,-2,214,746,463,82,-29,-73
-82,-39,43,61,-63,2,219,775,478,92,-24,-73
-82,-34,48,58,-65,7,219,805,497,102,-19,-68
-82,-29,53,56,-68,12,224,834,517,102,-19,-73
-78,-19,58,48,-68,19,229,854,536,102,-19,-78
-78,-19,58,48,-68,19,234,878,556,107,-19,-78
-73,-14,58,43,-65,21,234,888,580,117,-19,-78
-73,-14,58,43,-65,21,229,902,595,122,-14,-73
-73,0,73,36,-73,36,229,912,600,122,-14,-68
-73,0,73,36,-73,36,229,917,605,126,-9,-63
-68,4,73,31,-70,39,229,917,610,131,0,-58
-63,9,73,26,-68,41,224,912,619,136,0,-58
-58,14,73,21,-65,43,224,893,619,136,0,-53
-53,19,73,17,-63,46,214,868,605,131,4,-58
-48,19,68,14,-58,43,204,834,585,131,4,-58
-48,19,68,14,-58,43,195,795,566,131,4,-48
-39,24,63,7,-51,43,180,741,531,122,4,-48
-34,24,58,4,-46,41,170,683,497,117,4,-48
-29,24,53,2,-41,39,161,614,448,107,4,-43
-19,24,43,-2,-31,34,136,536,400,87,-4,-39
-14,24,39,-4,-26,31,117,468,351,78,-9,-39
-9,24,34,-7,-21,29,97,409,307,68,-14,-39
-4,24,29,-9,-17,26,78,351,258,58,-14,-34
0,24,24,-12,-12,24,68,287,209,48,-14,-34
4,24,19,-14,-7,21,58,239,175,39,-9,-29
4,19,14,-12,-4,17,48,200,151,34,-9,-29
0,14,14,-7,-7,14,43,161,117,24,-14,-29
-4,14,19,-4,-12,17,43,131,92,19,-9,-24
-9,9,19,0,-14,14,39,107,78,14,-4,-19
-14,4,19,4,-17,12,39,87,58,9,-4,-19
-19,-4,14,12,-17,4,43,78,39,4,-9,-19
-19,-4,14,12,-17,4,43,68,29,0,-19,-19
-24,-4,19,14,-21,7,39,48,19,-4,-29,-24
-29,-4,24,17,-26,9,39,43,4,-4,-29,-24
-29,-9,19,19,-24,4,39,43,-4,-9,-29,-24
-34,-14,19,24,-26,2,48,43,-9,-9,-29,-24
-34,-14,19,24,-26,2,48,39,-9,-14,-29,-29
-39,-14,24,26,-31,4,48,34,-14,-14,-34,-29
-39,-14,24,26,-31,4,48,34,-19,-14,-34,-34
-39,-14,24,26,-31,4,53,34,-19,-14,-34,-34
-43,-14,29,29,-36,7,53,34,-19,-14,-34,-34
-43,-14,29,29,-36,7,53,39,-19,-14,-34,-34
-43,-14,29,29,-36,7,53,39,-24,-19,-34,-34
-43,-19,24,31,-34,2,53,39,-24,-14,-34,-34
-43,-19,24,31,-34,2,58,39,-19,-9,-34,-34
-43,-19,24,31,-34,2,63,43,-19,-4,-34,-34
-43,-19,24,31,-34,2,63,43,-14,-4,-34,-29
-43,-14,29,29,-36,7,63,48,-14,-4,-29,-29
-48,-14,34,31,-41,9,63,53,-14,-4,-29,-29
-48,-19,29,34,-39,4,68,53,-4,0,-24,-29
-48,-19,29,34,-39,4,73,58,0,4,-19,-29
-48,-14,34,31,-41,9,73,58,0,4,-19,-19
-48,-14,34,31,-41,9,73,63,0,4,-19,-14
-48,-14,34,31,-41,9,68,68,0,0,-24,-24
-43,-14,29,29,-36,7,58,68,0,-4,-24,-34
-43,-9,34,26,-39,12,58,73,0,0,-24,-29
-43,-9,34,26,-39,12,63,73,4,0,-24,-29
-43,-14,29,29,-36,7,68,78,14,4,-24,-19
-43,-14,29,29,-36,7,73,82,19,4,-24,-14
-43,-9,34,26,-39,12,73,82,24,9,-19,-14
-39,-4,34,21,-36,14,68,82,24,9,-19,-19
-39,-4,34,21,-36,14,63,82,24,9,-19,-19
-43,-4,39,24,-41,17,58,87,29,9,-19,-19
-43,-9,34,26,-39,12,58,92,29,9,-14,-14
-39,-9,29,24,-34,9,53,92,29,9,-9,-14
-39,-9,29,24,-34,9,58,87,29,9,-9,-9
-39,-9,29,24,-34,9,63,87,29,9,-9,-9
-39,-9,29,24,-34,9,63,87,29,9,-9,-14
-39,-9,29,24,-34,9,63,87,29,9,-9,-14
-39,-9,29,24,-34,9,63,82,29,9,-9,-14
-39,-9,29,24,-34,9,63,82,34,9,-9,-14
-34,-9,24,21,-29,7,63,82,34,4,-9,-14
-34,-9,24,21,-29,7,58,78,24,4,-14,-14
-39,-9,29,24,-34,9,58,78,19,4,-14,-14
-39,-9,29,24,-34,9,63,78,19,4,-14,-14
-39,-9,29,24,-34,9,63,73,19,4,-14,-14
-39,-14,24,26,-31,4,58,73,14,4,-14,-14
-34,-14,19,24,-26,2,58,73,14,0,-14,-14
-34,-14,19,24,-26,2,58,73,14,0,-14,-14
-34,-14,19,24,-26,2,58,68,14,0,-14,-14
-39,-14,24,26,-31,4,53,63,19,0,-19,-14
-39,-14,24,26,-31,4,53,63,14,0,-19,-14
-39,-14,24,26,-31,4,58,63,14,0,-14,-14
-39,-14,24,26,-31,4,63,68,14,-4,-14,-19
-39,-14,24,26,-31,4,68,68,14,-4,-14,-19
-39,-14,24,26,-31,4,68,68,14,-4,-19,-19
-39,-14,24,26,-31,4,68,63,9,-4,-29,-24
-39,-14,24,26,-31,4,63,63,9,-9,-29,-24
-39,-14,24,26,-31,4,58,58,9,-9,-29,-24
-39,-19,19,29,-29,0,58,58,14,-9,-24,-24
-39,-19,19,29,-29,0,58,58,14,-9,-14,-24
-39,-19,19,29,-29,0,58,58,14,-4,-14,-24
-39,-19,19,29,-29,0,58,58,14,-4,-19,-24
-39,-29,9,34,-24,-9,63,63,14,0,-19,-24
-39,-39,0,39,-19,-19,63,63,9,4,-19,-24
-43,-29,14,36,-29,-7,63,63,9,0,-19,-24
-43,-19,24,31,-34,2,63,63,14,0,-19,-24
-43,-19,24,31,-34,2,68,58,14,0,-19,-24
-43,-19,24,31,-34,2,68,58,9,0,-19,-24
-39,-29,9,34,-24,-9,68,58,4,0,-19,-24
-39,-39,0,39,-19,-19,68,63,4,0,-19,-24
-39,-29,9,34,-24,-9,68,63,14,0,-24,-24
-43,-19,24,31,-34,2,73,58,14,0,-24,-29
-43,-24,19,34,-31,-2,73,58,9,0,-19,-29
-43,-24,19,34,-31,-2,73,63,9,0,-19,-29
-43,-29,14,36,-29,-7,73,68,9,0,-14,-24
-43,-34,9,39,-26,-12,73,73,9,0,-9,-19
-43,-34,9,39,-26,-12,68,68,14,0,-14,-19
-43,-34,9,39,-26,-12,68,68,14,0,-14,-19
-43,-34,9,39,-26,-12,68,68,9,0,-19,-19
-43,-29,14,36,-29,-7,68,68,9,-4,-24,-19
-39,-29,9,34,-24,-9,73,68,14,0,-19,-19
-39,-29,9,34,-24,-9,78,68,19,0,-19,-19
-43,-29,14,36,-29,-7,78,68,19,0,-19,-24
-48,-29,19,39,-34,-4,78,68,19,0,-19,-29
-48,-29,19,39,-34,-4,78,68,19,0,-19,-29
-48,-29,19,39,-34,-4,78,68,19,0,-19,-29
-48,-29,19,39,-34,-4,78,68,19,0,-19,-29
-48,-29,19,39,-34,-4,78,68,19,0,-19,-29
-48,-29,19,39,-34,-4,82,68,19,0,-19,-29
-48,-29,19,39,-34,-4,87,68,19,0,-19,-29
-48,-24,24,36,-36,0,87,68,19,0,-19,-24
-48,-19,29,34,-39,4,87,68,19,0,-19,-19
-43,-14,29,29,-36,7,82,78,19,0,-19,-19
-39,-9,29,24,-34,9,78,87,19,0,-19,-19
-29,-9,19,19,-24,4,82,92,24,-4,-19,-24
-24,-9,14,17,-19,2,92,102,29,0,-14,-19
-19,-9,9,14,-14,0,102,112,39,4,-14,-19
-9,0,9,4,-9,4,112,126,48,14,-4,-9
-4,19,24,-7,-14,21,117,126,63,19,4,-4
