I,II,III,aVR,aVL,aVF,V1,V2,V3,V4,V5,V6,
-53,-53,0,53,-26,-26,43,-4,-34,-82,-97,-97
-53,-58,-4,56,-24,-31,48,-4,-34,-82,-97,-92
-53,-58,-4,56,-24,-31,53,-4,-34,-82,-97,-92
-53,-58,-4,56,-24,-31,53,-4,-34,-87,-102,-97
-53,-58,-4,56,-24,-31,58,-4,-34,-92,-107,-107
-53,-53,0,53,-26,-26,53,-4,-34,-92,-107,-107
-53,-53,0,53,-26,-26,53,0,-34,-92,-107,-107
-53,-53,0,53,-26,-26,53,0,-34,-87,-107,-107
-53,-53,0,53,-26,-26,53,0,-34,-87,-107,-107
-53,-48,4,51,-29,-21,58,0,-34,-87,-107,-107
-53,-48,4,51,-29,-21,58,4,-34,-82,-107,-107
-53,-48,4,51,-29,-21,58,9,-34,-82,-102,-102
-53,-48,4,51,-29,-21,63,14,-29,-82,-97,-97
-53,-53,0,53,-26,-26,63,14,-29,-78,-97,-97
-58,-53,4,56,-31,-24,63,19,-29,-73,-97,-97
-53,-53,0,53,-26,-26,63,19,-24,-73,-97,-97
-48,-53,-4,51,-21,-29,68,24,-24,-73,-97,-97
-48,-53,-4,51,-21,-29,68,19,-24,-73,-102,-102
-48,-53,-4,51,-21,-29,68,14,-24,-78,-107,-107
-53,-53,0,53,-26,-26,68,14,-19,-78,-107,-107
-58,-53,4,56,-31,-24,68,14,-14,-78,-107,-112
-58,-48,9,53,-34,-19,73,19,-14,-78,-102,-102
-58,-39,19,48,-39,-9,73,19,-14,-78,-97,-87
-53,-43,9,48,-31,-17,73,19,-9,-78,-97,-97
-48,-53,-4,51,-21,-29,73,24,-4,-78,-97,-107
-48,-53,-4,51,-21,-29,78,24,-4,-78,-102,-107
-48,-53,-4,51,-21,-29,78,24,-4,-78,-107,-107
-53,-53,0,53,-26,-26,78,24,-9,-78,-107,-107
-53,-53,0,53,-26,-26,78,34,-4,-68,-107,-107
-53,-58,-4,56,-24,-31,87,102,34,-63,-97,-102
-53,-58,-4,56,-24,-31,112,141,63,-53,-87,-102
-48,-53,-4,51,-21,-29,165,136,87,-34,-87,-107
-48,-29,19,39,-34,-4,170,53,92,-4,-68,-97
-53,-4,48,29,-51,21,0,-317,-58,-9,-48,-68
-58,43,102,7,-80,73,-214,-775,-268,4,-19,-24
0,136,136,-68,-68,136,-434,-1039,-312,131,107,78
78,209,131,-143,-26,170,-717,-1371,-370,297,273,204
156,229,73,-192,41,151,-1088,-1839,-531,409,414,317
248,239,-9,-244,129,114,-1376,-2176,-629,546,561,439
341,263,-78,-302,209,92,-1615,-2415,-727,707,727,580
434,317,-117,-375,275,100,-1844,-2718,-976,785,863,722
492,395,-97,-444,295,148,-2088,-3167,-1415,761,976,858
566,478,-87,-522,326,195,-2298,-3523,-1864,722,1102,1005
639,546,-92,-592,366,226,-2410,-3757,-2293,688,1254,1176
712,605,-107,-658,409,248,-2513,-3923,-2654,614,1376,1332
761,653,-107,-707,434,273,-2581,-4040,-2952,512,1439,1444
805,683,-122,-744,463,280,-2620,-4138,-3196,331,1459,1517
800,634,-165,-717,483,234,-2640,-4187,-3430,78,1434,1561
785,536,-248,-661,517,143,-2547,-4104,-3518,-146,1361,1561
727,439,-287,-583,507,75,-2391,-3918,-3479,-278,1249,1507
673,380,-292,-527,483,43,-2200,-3645,-3225,-239,1215,1473
663,302,-361,-483,512,-29,-2088,-3420,-3001,-214,1215,1473
649,214,-434,-431,541,-109,-1932,-3142,-2757,-156,1215,1488
668,156,-512,-412,590,-178,-1717,-2752,-2318,34,1268,1522
658,92,-566,-375,612,-236,-1512,-2386,-1986,24,1205,1503
624,9,-614,-317,619,-302,-1307,-1991,-1673,9,1141,1464
590,-58,-649,-265,619,-353,-1117,-1673,-1449,-78,1034,1381
541,-107,-649,-217,595,-378,-941,-1424,-1307,-244,790,1239
497,-122,-619,-187,558,-370,-785,-1190,-1137,-346,595,1093
439,-136,-575,-151,507,-356,-649,-946,-936,-370,463,951
385,-146,-531,-119,458,-339,-502,-727,-766,-370,326,790
297,-151,-448,-73,373,-300,-351,-531,-610,-370,161,610
229,-156,-385,-36,307,-270,-229,-366,-468,-366,24,448
161,-136,-297,-12,229,-217,-131,-229,-351,-366,-82,258
107,-136,-244,14,175,-190,-34,-87,-224,-331,-136,107
48,-151,-200,51,124,-175,82,53,-102,-263,-180,-24
-9,-161,-151,85,70,-156,180,175,14,-195,-209,-126
-53,-136,-82,95,14,-109,219,258,102,-146,-200,-151
-92,-117,-24,104,-34,-70,248,322,170,-112,-180,-156
-97,-87,9,92,-53,-39,268,361,200,-82,-170,-156
-102,-82,19,92,-61,-31,283,385,214,-68,-170,-170
-97,-82,14,90,-56,-34,292,380,214,-82,-195,-185
-87,-82,4,85,-46,-39,297,390,219,-102,-209,-209
-92,-82,9,87,-51,-36,302,409,229,-102,-209,-214
-92,-82,9,87,-51,-36,312,429,239,-97,-214,-214
-102,-87,14,95,-58,-36,326,439,248,-92,-209,-224
-102,-87,14,95,-58,-36,331,463,258,-87,-214,-229
-102,-92,9,97,-56,-41,341,483,273,-87,-219,-234
-102,-97,4,100,-53,-46,351,502,283,-92,-224,-244
-112,-97,14,104,-63,-41,366,522,292,-97,-229,-244
-122,-102,19,112,-70,-41,370,541,302,-97,-234,-248
-122,-97,24,109,-73,-36,380,566,317,-97,-239,-253
-126,-92,34,109,-80,-29,390,590,326,-102,-239,-248
-126,-97,29,112,-78,-34,409,610,346,-102,-248,-253
-126,-97,29,112,-78,-34,419,639,366,-107,-253,-263
-136,-102,34,119,-85,-34,444,673,380,-107,-258,-263
-141,-107,34,124,-87,-36,458,702,400,-112,-258,-268
-136,-107,29,122,-82,-39,473,736,414,-112,-268,-278
-136,-107,29,122,-82,-39,488,771,424,-112,-273,-283
-136,-112,24,124,-80,-43,507,810,448,-112,-278,-287
-136,-122,14,129,-75,-53,527,849,473,-117,-287,-297
-151,-122,29,136,-90,-46,551,893,497,-112,-297,-312
-161,-122,39,141,-100,-41,580,936,517,-112,-302,-326
-170,-131,39,151,-104,-46,605,985,541,-112,-312,-336
-185,-131,53,158,-119,-39,634,1034,566,-117,-326,-346
-185,-126,58,156,-122,-34,663,1083,600,-122,-336,-361
-190,-126,63,158,-126,-31,688,1127,629,-122,-341,-370
-190,-126,63,158,-126,-31,722,1176,663,-126,-356,-385
-200,-131,68,165,-134,-31,746,1224,692,-126,-370,-395
-204,-136,68,170,-136,-34,771,1273,722,-131,-385,-414
-209,-141,68,175,-139,-36,800,1322,751,-136,-405,-429
-214,-151,63,183,-139,-43,829,1366,785,-136,-414,-439
-224,-156,68,190,-146,-43,858,1415,814,-136,-419,-448
-234,-156,78,195,-156,-39,883,1464,858,-141,-434,-463
-239,-156,82,197,-161,-36,912,1503,897,-141,-444,-473
-253,-156,97,204,-175,-29,932,1546,932,-141,-458,-492
-263,-156,107,209,-185,-24,951,1590,971,-126,-468,-507
-273,-156,117,214,-195,-19,976,1634,1015,-122,-478,-522
-278,-146,131,212,-204,-7,1000,1668,1068,-107,-488,-531
-283,-146,136,214,-209,-4,1019,1703,1112,-97,-492,-546
-287,-146,141,217,-214,-2,1029,1722,1146,-78,-497,-551
-287,-141,146,214,-217,2,1029,1742,1190,-58,-507,-566
-287,-141,146,214,-217,2,1029,1751,1234,-29,-502,-575
-287,-131,156,209,-222,12,1029,1766,1283,4,-492,-575
-283,-122,161,202,-222,19,1019,1771,1322,39,-473,-570
-273,-112,161,192,-217,24,1000,1771,1356,82,-458,-566
-258,-107,151,183,-204,21,971,1761,1385,126,-434,-561
-253,-97,156,175,-204,29,951,1747,1424,170,-400,-531
-248,-87,161,168,-204,36,922,1717,1454,224,-361,-512
-224,-73,151,148,-187,39,883,1683,1464,278,-331,-492
-209,-58,151,134,-180,46,839,1639,1468,322,-287,-453
-195,-43,151,119,-173,53,800,1581,1473,366,-244,-414
-175,-29,146,102,-161,58,746,1512,1454,414,-195,-380
-165,-14,151,90,-158,68,688,1434,1415,448,-146,-341
-151,4,156,73,-153,80,629,1346,1361,468,-107,-297
-136,29,165,53,-151,97,575,1249,1302,488,-53,-253
-117,34,151,41,-134,92,512,1146,1224,502,-9,-214
-97,48,146,24,-122,97,453,1034,1122,507,29,-170
-78,58,136,9,-107,97,400,927,1029,492,53,-131
-58,78,136,-9,-97,107,346,819,927,478,78,-87
-43,87,131,-21,-87,109,297,712,824,448,97,-63
-24,87,112,-31,-68,100,248,600,722,414,107,-43
-4,87,92,-41,-48,90,204,512,624,375,112,-24
-19,78,97,-29,-58,87,170,434,541,331,117,-4
-24,78,102,-26,-63,90,141,366,463,292,117,4
-14,68,82,-26,-48,75,107,292,370,253,102,9
-4,68,73,-31,-39,70,78,224,297,209,92,9
0,68,68,-34,-34,68,53,175,248,185,87,14
0,58,58,-29,-29,58,48,131,195,156,82,19
-4,48,53,-21,-29,51,39,97,141,122,68,24
-4,39,43,-17,-24,41,29,73,102,92,53,19
-4,34,39,-14,-21,36,9,39,78,63,39,9
-4,34,39,-14,-21,36,0,14,43,43,29,0
-4,19,24,-7,-14,21,0,-4,24,19,14,-9
-9,19,29,-4,-19,24,-4,-19,-4,0,4,-14
-9,14,24,-2,-17,19,-4,-29,-14,-4,0,-14
-14,4,19,4,-17,12,-4,-34,-24,-14,-9,-19
-14,0,14,7,-14,7,-4,-39,-34,-24,-9,-19
-19,0,19,9,-19,9,-4,-39,-43,-34,-14,-24
-19,0,19,9,-19,9,0,-48,-53,-43,-19,-24
-24,-4,19,14,-21,7,4,-53,-58,-48,-34,-24
-24,-9,14,17,-19,2,4,-53,-63,-48,-29,-24
-29,-9,19,19,-24,4,4,-53,-68,-48,-29,-29
-34,-9,24,21,-29,7,4,-58,-82,-53,-34,-24
-34,-9,24,21,-29,7,9,-58,-87,-58,-34,-24
-24,-14,9,19,-17,-2,9,-58,-87,-68,-39,-24
-19,-14,4,17,-12,-4,9,-63,-92,-68,-43,-34
-24,-14,9,19,-17,-2,4,-63,-92,-73,-48,-39
-24,-24,0,24,-12,-12,9,-63,-92,-82,-48,-43
-29,-29,0,29,-14,-14,9,-53,-92,-82,-48,-43
-29,-29,0,29,-14,-14,14,-53,-92,-87,-58,-48
-39,-29,9,34,-24,-9,9,-58,-97,-87,-58,-43
-53,-34,19,43,-36,-7,14,-58,-97,-87,-63,-43
-53,-34,19,43,-36,-7,24,-48,-97,-92,-63,-43
-58,-34,24,46,-41,-4,29,-39,-97,-97,-68,-48
-48,-34,14,41,-31,-9,39,-34,-92,-102,-68,-53
-34,-29,4,31,-19,-12,39,-24,-87,-107,-68,-63
-34,-29,4,31,-19,-12,39,-14,-78,-102,-78,-63
-34,-19,14,26,-24,-2,43,-4,-73,-102,-87,-63
-34,-14,19,24,-26,2,68,9,-58,-87,-78,-63
-39,-9,29,24,-34,9,82,24,-43,-78,-63,-63
-58,-4,53,31,-56,24,102,34,-24,-68,-63,-58
-73,-4,68,39,-70,31,122,43,-4,-63,-63,-58
-58,4,63,26,-61,34,122,53,4,-58,-63,-58
-43,9,53,17,-48,31,122,68,14,-53,-63,-58
-43,14,58,14,-51,36,117,82,24,-43,-58,-53
-43,24,68,9,-56,46,112,87,39,-29,-53,-53
-29,24,53,2,-41,39,97,82,43,-24,-58,-58
-19,24,43,-2,-31,34,78,82,48,-24,-63,-63
-29,19,48,4,-39,34,48,68,43,-34,-58,-63
-43,9,53,17,-48,31,39,43,39,-39,-58,-63
-43,4,48,19,-46,26,24,24,19,-39,-68,-68
-48,0,48,24,-48,24,9,4,4,-43,-73,-73
-48,0,48,24,-48,24,-4,-4,-4,-43,-73,-73
-48,-4,43,26,-46,19,-9,-4,-4,-43,-73,-73
-43,4,48,19,-46,26,-19,0,4,-39,-68,-63
-39,14,53,12,-46,34,-19,14,9,-29,-63,-58
-34,14,48,9,-41,31,-19,9,9,-24,-58,-53
-24,14,39,4,-31,26,-19,9,9,-19,-48,-53
-24,9,34,7,-29,21,-19,9,19,-14,-43,-48
-24,9,34,7,-29,21,-24,4,24,-9,-39,-48
-24,14,39,4,-31,26,-14,4,19,-9,-34,-34
-24,19,43,2,-34,31,-4,4,14,-14,-29,-19
-19,19,39,0,-29,29,-4,4,14,-14,-29,-19
-19,19,39,0,-29,29,4,0,14,-9,-29,-19
-19,14,34,2,-26,24,9,0,9,-14,-29,-24
-19,4,24,7,-21,14,9,4,4,-19,-24,-24
-24,-4,19,14,-21,7,19,4,4,-29,-34,-34
-24,-19,4,21,-14,-7,24,0,0,-39,-48,-48
-43,-39,4,41,-24,-17,29,0,-9,-53,-68,-73
-68,-58,9,63,-39,-24,34,0,-24,-68,-82,-82
-63,-68,-4,65,-29,-36,34,-4,-29,-78,-87,-87
-68,-78,-9,73,-29,-43,53,-4,-34,-78,-97,-97
-68,-68,0,68,-34,-34,48,-4,-29,-73,-92,-92
-68,-63,4,65,-36,-29,48,-4,-29,-73,-87,-87
-68,-63,4,65,-36,-29,48,0,-29,-73,-87,-92
-68,-68,0,68,-34,-34,48,0,-29,-78,-87,-97
-63,-68,-4,65,-29,-36,39,-4,-34,-78,-92,-97
-58,-68,-9,63,-24,-39,29,-9,-39,-78,-97,-97
-58,-68,-9,63,-24,-39,39,-9,-39,-78,-97,-97
-58,-63,-4,61,-26,-34,43,-9,-34,-78,-97,-92
-63,-63,0,63,-31,-31,48,-9,-34,-78,-97,-92
-63,-63,0,63,-31,-31,48,-9,-29,-73,-97,-87
-68,-68,0,68,-34,-34,48,-4,-29,-73,-92,-87
-73,-73,0,73,-36,-36,48,0,-24,-73,-87,-87
-73,-73,0,73,-36,-36,53,4,-24,-73,-87,-87
-73,-73,0,73,-36,-36,53,4,-24,-73,-87,-82
-68,-63,4,65,-36,-29,53,0,-24,-78,-92,-82
-63,-58,4,61,-34,-26,53,-4,-24,-82,-97,-82
-63,-58,4,61,-34,-26,58,-4,-24,-82,-97,-87
-63,-58,4,61,-34,-26,58,-4,-24,-82,-97,-87
-63,-68,-4,65,-29,-36,58,0,-24,-82,-97,-92
-63,-73,-9,68,-26,-41,53,0,-24,-82,-97,-97
-58,-73,-14,65,-21,-43,53,0,-24,-87,-97,-97
-53,-68,-14,61,-19,-41,58,0,-24,-87,-97,-97
-53,-63,-9,58,-21,-36,63,9,-24,-78,-92,-92
-53,-58,-4,56,-24,-31,68,14,-24,-73,-87,-87
-53,-58,-4,56,-24,-31,73,14,-19,-73,-87,-87
-53,-58,-4,56,-24,-31,73,14,-19,-73,-87,-87
-63,-53,9,58,-36,-21,73,19,-19,-73,-87,-87
-68,-53,14,61,-41,-19,73,19,-14,-73,-87,-87
-68,-58,9,63,-39,-24,78,24,-19,-73,-87,-92
-68,-63,4,65,-36,-29,78,24,-24,-68,-87,-97
-68,-63,4,65,-36,-29,78,24,-24,-73,-87,-97
-68,-63,4,65,-36,-29,78,24,-24,-78,-87,-97
-68,-58,9,63,-39,-24,78,24,-19,-78,-87,-102
-68,-58,9,63,-39,-24,82,29,-14,-78,-87,-102
-73,-58,14,65,-43,-21,82,29,-14,-73,-87,-97
-78,-53,24,65,-51,-14,82,29,-9,-68,-87,-97
-78,-53,24,65,-51,-14,82,34,-4,-68,-87,-97
-78,-53,24,65,-51,-14,87,34,-4,-68,-87,-97
-63,-53,9,58,-36,-21,82,29,-9,-73,-92,-97
-48,-53,-4,51,-21,-29,78,34,-9,-78,-97,-97
-43,-53,-9,48,-17,-31,78,48,4,-68,-97,-97
-43,-53,-9,48,-17,-31,87,92,43,-53,-87,-92
-43,-39,4,41,-24,-17,107,82,73,-29,-68,-87
-39,-19,19,29,-29,0,112,-19,73,-4,-48,-78
-24,19,43,2,-34,31,29,-204,29,24,-19,-58
4,63,58,-34,-26,61,-214,-610,-126,39,19,-19
0,122,122,-61,-61,122,-463,-1044,-287,92,82,48
53,200,146,-126,-46,173,-717,-1298,-292,248,229,170
156,258,102,-207,26,180,-1029,-1634,-341,424,400,302
244,273,29,-258,107,151,-1371,-2034,-463,536,541,414
336,283,-53,-309,195,114,-1629,-2313,-531,663,683,536
429,312,-117,-370,273,97,-1854,-2576,-697,790,839,678
531,370,-161,-451,346,104,-2069,-2903,-1010,829,966,819
614,448,-165,-531,390,141,-2298,-3333,-1464,790,1073,956
688,527,-161,-607,424,183,-2464,-3645,-1922,741,1195,1098
756,585,-170,-671,463,207,-2542,-3855,-2357,692,1327,1254
829,619,-209,-724,519,204,-2635,-4016,-2718,605,1424,1390
849,624,-224,-736,536,200,-2679,-4128,-3010,478,1459,1478
863,614,-248,-739,556,183,-2669,-4196,-3220,302,1459,1537
834,541,-292,-688,563,124,-2625,-4167,-3376,107,1424,1561
814,439,-375,-627,595,31,-2498,-4021,-3372,-58,1346,1537
780,361,-419,-570,600,-29,-2342,-3801,-3230,-112,1263,1488
756,322,-434,-539,595,-56,-2152,-3503,-2937,-29,1254,1464
761,258,-502,-509,631,-122,-2015,-3235,-2679,-4,1254,1464
727,180,-546,-453,636,-183,-1830,-2908,-2391,68,1249,1478
697,126,-570,-412,634,-222,-1610,-2493,-1981,190,1263,1478
673,68,-605,-370,639,-268,-1405,-2122,-1688,112,1161,1415
649,9,-639,-329,644,-314,-1200,-1761,-1434,39,1044,1342
600,-39,-639,-280,619,-339,-1010,-1483,-1259,-97,888,1220
527,-82,-610,-222,568,-346,-834,-1249,-1122,-234,663,1058
458,-102,-561,-178,509,-331,-668,-1015,-961,-317,488,907
385,-122,-507,-131,446,-314,-522,-771,-771,-341,356,766
326,-126,-453,-100,390,-290,-385,-561,-610,-346,219,605
239,-126,-366,-56,302,-246,-253,-395,-488,-351,68,424
170,-126,-297,-21,234,-212,-141,-253,-375,-346,-53,268
97,-107,-204,4,151,-156,-43,-122,-263,-336,-141,112
48,-107,-156,29,102,-131,39,9,-146,-302,-175,-4
0,-107,-107,53,53,-107,122,122,-43,-244,-204,-102
-58,-102,-43,80,-7,-73,200,219,53,-175,-219,-170
-82,-78,4,80,-43,-36,234,283,112,-136,-209,-185
-102,-68,34,85,-68,-17,258,326,156,-117,-190,-185
-107,-53,53,80,-80,0,273,351,170,-107,-190,-185
-112,-53,58,82,-85,2,283,366,175,-107,-200,-200
-117,-53,63,85,-90,4,292,370,185,-107,-209,-204
-117,-53,63,85,-90,4,297,390,200,-112,-209,-219
-122,-53,68,87,-95,7,302,409,209,-112,-209,-224
-117,-53,63,85,-90,4,312,429,219,-112,-214,-224
-122,-58,63,90,-92,2,326,439,229,-117,-214,-234
-122,-58,63,90,-92,2,331,463,239,-117,-224,-239
-122,-58,63,90,-92,2,341,483,253,-117,-229,-244
-122,-58,63,90,-92,2,351,502,263,-122,-234,-253
-126,-58,68,92,-97,4,366,522,273,-126,-239,-253
-131,-63,68,97,-100,2,370,541,278,-126,-244,-258
-131,-63,68,97,-100,2,380,566,287,-126,-248,-268
-136,-63,73,100,-104,4,395,590,297,-131,-248,-268
-136,-68,68,102,-102,0,419,614,317,-131,-258,-273
-136,-68,68,102,-102,0,429,649,336,-136,-263,-283
-146,-73,73,109,-109,0,453,683,351,-136,-273,-287
-156,-78,78,117,-117,0,468,712,370,-141,-278,-297
-161,-78,82,119,-122,2,488,751,390,-141,-287,-307
-165,-82,82,124,-124,0,512,790,405,-141,-292,-312
-165,-87,78,126,-122,-4,536,829,429,-141,-297,-317
-175,-92,82,134,-129,-4,561,868,453,-141,-302,-322
-200,-92,107,146,-153,7,590,912,478,-136,-307,-326
-200,-92,107,146,-153,7,619,956,497,-141,-312,-336
-195,-102,92,148,-143,-4,644,1005,522,-141,-322,-346
-204,-102,102,153,-153,0,673,1054,546,-146,-341,-356
-204,-102,102,153,-153,0,702,1102,575,-151,-356,-370
-209,-107,102,158,-156,-2,727,1146,595,-151,-361,-380
-214,-107,107,161,-161,0,761,1195,624,-156,-375,-395
-229,-112,117,170,-173,2,785,1244,653,-156,-390,-405
-234,-112,122,173,-178,4,810,1293,683,-161,-405,-424
-239,-112,126,175,-183,7,839,1337,707,-165,-424,-444
-244,-117,126,180,-185,4,868,1376,736,-165,-439,-463
-253,-117,136,185,-195,9,897,1424,766,-165,-448,-478
-263,-117,146,190,-204,14,922,1473,810,-170,-463,-492
-273,-122,151,197,-212,14,951,1512,849,-170,-473,-502
-292,-126,165,209,-229,19,971,1551,888,-170,-488,-522
-302,-126,175,214,-239,24,985,1590,927,-156,-497,-536
-307,-126,180,217,-244,26,1000,1629,966,-151,-507,-551
-307,-117,190,212,-248,36,1019,1659,1019,-136,-512,-556
-312,-117,195,214,-253,39,1034,1688,1063,-122,-507,-566
-322,-117,204,219,-263,43,1044,1708,1102,-97,-507,-570
-326,-112,214,219,-270,51,1049,1732,1151,-73,-507,-575
-326,-112,214,219,-270,51,1049,1742,1195,-39,-492,-575
-326,-102,224,214,-275,61,1039,1751,1244,0,-478,-575
-307,-92,214,200,-261,61,1010,1751,1283,34,-458,-570
-283,-78,204,180,-244,63,980,1747,1317,78,-444,-556
-268,-68,200,168,-234,65,951,1732,1346,122,-414,-541
-258,-58,200,158,-229,70,922,1708,1376,161,-380,-512
-263,-48,214,156,-239,82,883,1668,1400,214,-341,-492
-253,-34,219,143,-236,92,839,1625,1410,268,-302,-468
-239,-19,219,129,-229,100,795,1576,1410,312,-248,-424
-219,-4,214,112,-217,104,756,1517,1400,351,-204,-385
-190,9,200,90,-195,104,697,1444,1366,395,-156,-351
-170,24,195,73,-183,109,639,1351,1317,424,-112,-312
-151,43,195,53,-173,119,580,1249,1254,434,-78,-268
-136,68,204,34,-170,136,527,1146,1180,444,-29,-224
-117,73,190,21,-153,131,458,1039,1098,453,4,-185
-97,87,185,4,-141,136,395,927,1005,453,34,-146
-68,102,170,-17,-119,136,341,819,912,434,53,-117
-43,117,161,-36,-102,139,287,717,810,414,73,-82
-43,117,161,-36,-102,139,239,614,712,385,92,-63
-43,112,156,-34,-100,134,195,512,619,351,102,-43
-34,107,141,-36,-87,124,156,434,531,317,102,-19
-34,97,131,-31,-82,114,126,356,453,283,102,0
-24,97,122,-36,-73,109,97,287,375,244,102,4
-24,82,107,-29,-65,95,68,229,297,209,92,9
-24,78,102,-26,-63,90,48,175,239,170,82,4
-19,78,97,-29,-58,87,24,131,195,146,73,0
-14,68,82,-26,-48,75,19,92,146,117,63,0
-14,58,73,-21,-43,65,9,58,97,82,48,0
-14,48,63,-17,-39,56,0,34,63,58,34,-9
-14,43,58,-14,-36,51,-9,9,43,39,19,-19
-19,43,63,-12,-41,53,-9,-4,19,24,9,-24
-24,29,53,-2,-39,41,-9,-19,9,4,0,-24
-29,29,58,0,-43,43,-14,-29,-14,-4,-4,-24
-29,24,53,2,-41,39,-14,-39,-24,-4,-9,-24
-34,14,48,9,-41,31,-14,-43,-34,-14,-19,-29
-34,9,43,12,-39,26,-14,-53,-43,-24,-19,-29
-34,9,43,12,-39,26,-14,-53,-53,-34,-19,-39
-29,9,39,9,-34,24,-14,-58,-63,-43,-19,-43
-34,4,39,14,-36,21,-14,-63,-68,-48,-34,-43
-34,0,34,17,-34,17,-14,-63,-73,-53,-34,-43
-39,0,39,19,-39,19,-14,-63,-73,-53,-39,-43
-43,0,43,21,-43,21,-14,-68,-78,-53,-43,-39
-43,0,43,21,-43,21,-9,-68,-78,-58,-43,-43
-39,-4,34,21,-36,14,-9,-68,-78,-68,-48,-43
-39,-9,29,24,-34,9,-9,-73,-92,-68,-53,-53
-43,-14,29,29,-36,7,-9,-73,-102,-73,-58,-53
-43,-24,19,34,-31,-2,0,-73,-102,-87,-58,-58
-48,-24,24,36,-36,0,0,-63,-102,-92,-58,-63
-39,-14,24,26,-31,4,0,-68,-102,-97,-68,-68
-29,-9,19,19,-24,4,-4,-68,-102,-97,-68,-68
-34,-14,19,24,-26,2,4,-58,-97,-97,-73,-73
-34,-14,19,24,-26,2,14,-48,-92,-97,-73,-73
-58,-9,48,34,-53,19,29,-39,-87,-97,-78,-73
-78,-4,73,41,-75,34,48,-34,-78,-97,-78,-68
-58,0,58,29,-58,29,53,-24,-68,-97,-78,-73
-43,0,43,21,-43,21,58,-14,-58,-92,-78,-73
-43,9,53,17,-48,31,78,9,-43,-82,-73,-68
-43,9,53,17,-48,31,107,34,-19,-58,-68,-63
-58,9,68,24,-63,39,122,48,-4,-48,-58,-63
-73,14,87,29,-80,51,131,58,4,-43,-53,-63
-58,19,78,19,-68,48,117,63,14,-43,-53,-68
-43,34,78,4,-61,56,102,63,19,-39,-53,-68
-43,39,82,2,-63,61,82,63,24,-34,-53,-68
-43,39,82,2,-63,61,68,73,34,-24,-48,-63
-58,24,82,17,-70,53,48,53,29,-24,-53,-68
-68,4,73,31,-70,39,29,29,14,-34,-63,-73
-68,4,73,31,-70,39,29,24,9,-43,-73,-78
-63,9,73,26,-68,41,4,14,0,-53,-78,-82
-63,9,73,26,-68,41,0,4,0,-58,-78,-82
-58,9,68,24,-63,39,-14,-4,-4,-63,-78,-82
-58,9,68,24,-63,39,-14,0,9,-43,-63,-73
-58,9,68,24,-63,39,-14,4,14,-24,-53,-63
-43,9,53,17,-48,31,-14,14,19,-19,-48,-58
-29,14,43,7,-36,29,-19,9,19,-19,-43,-48
-24,14,39,4,-31,26,-19,4,9,-19,-43,-48
-19,14,34,2,-26,24,-19,0,9,-19,-43,-43
-14,19,34,-2,-24,26,-9,4,14,-19,-39,-43
-14,19,34,-2,-24,26,0,9,19,-19,-39,-39
-14,19,34,-2,-24,26,-4,4,14,-14,-34,-39
-14,19,34,-2,-24,26,-4,4,9,-9,-29,-39
-24,14,39,4,-31,26,-4,9,4,-14,-29,-29
-29,9,39,9,-34,24,-4,14,4,-14,-29,-19
-48,-9,39,29,-43,14,14,9,4,-9,-34,-43
-68,-29,39,48,-53,4,29,9,4,-9,-39,-63
-68,-34,34,51,-51,0,29,9,-4,-29,-53,-68
-73,-39,34,56,-53,-2,34,4,-14,-53,-73,-82
-53,-43,9,48,-31,-17,29,-14,-19,-58,-78,-87
-39,-53,-14,46,-12,-34,34,-29,-29,-73,-92,-112
-48,-53,-4,51,-21,-29,34,-24,-34,-73,-92,-107
-58,-58,0,58,-29,-29,39,-19,-39,-78,-97,-107
-68,-58,9,63,-39,-24,39,-19,-39,-73,-92,-102
-78,-58,19,68,-48,-19,39,-19,-39,-68,-87,-97
-78,-58,19,68,-48,-19,34,-19,-39,-68,-87,-97
-73,-53,19,63,-46,-17,29,-19,-39,-68,-87,-97
-68,-53,14,61,-41,-19,29,-19,-43,-73,-92,-102
-58,-53,4,56,-31,-24,29,-19,-48,-73,-97,-107
-53,-53,0,53,-26,-26,29,-19,-48,-78,-107,-107
-53,-53,0,53,-26,-26,29,-19,-48,-82,-117,-107
-58,-53,4,56,-31,-24,29,-19,-39,-82,-107,-107
-63,-53,9,58,-36,-21,34,-14,-34,-82,-97,-107
-63,-53,9,58,-36,-21,34,-14,-34,-82,-97,-102
-63,-48,14,56,-39,-17,34,-14,-34,-82,-97,-102
-73,-48,24,61,-48,-12,34,-9,-34,-82,-97,-102
-82,-48,34,65,-58,-7,39,-4,-34,-82,-97,-107
-73,-43,29,58,-51,-7,39,-4,-34,-82,-97,-102
-63,-43,19,53,-41,-12,43,0,-34,-82,-97,-97
-63,-43,19,53,-41,-12,43,-4,-34,-82,-97,-97
-63,-43,19,53,-41,-12,43,-9,-34,-87,-97,-97
-63,-39,24,51,-43,-7,48,-9,-39,-87,-97,-102
-63,-39,24,51,-43,-7,48,-4,-43,-82,-97,-107
-68,-39,29,53,-48,-4,48,-4,-43,-82,-97,-107
-73,-39,34,56,-53,-2,53,-4,-39,-82,-97,-107
-73,-39,34,56,-53,-2,53,-4,-39,-82,-97,-107
-78,-34,43,56,-61,4,53,0,-39,-82,-97,-107
-73,-39,34,56,-53,-2,53,0,-34,-82,-97,-107
-68,-43,24,56,-46,-9,58,4,-34,-82,-97,-107
-68,-43,24,56,-46,-9,58,4,-29,-78,-97,-102
-68,-43,24,56,-46,-9,58,4,-24,-78,-97,-97
-68,-39,29,53,-48,-4,58,4,-24,-78,-97,-97
-68,-34,34,51,-51,0,58,4,-24,-78,-97,-102
-63,-39,24,51,-43,-7,63,9,-29,-82,-102,-107
-58,-39,19,48,-39,-9,63,9,-34,-87,-107,-107
-58,-34,24,46,-41,-4,63,9,-29,-87,-107,-107
-58,-34,24,46,-41,-4,63,14,-24,-87,-107,-107
-58,-34,24,46,-41,-4,68,14,-24,-82,-102,-107
-58,-34,24,46,-41,-4,68,14,-24,-78,-97,-107
-63,-39,24,51,-43,-7,68,14,-19,-78,-97,-107
-63,-43,19,53,-41,-12,68,24,-4,-68,-97,-107
-68,-43,24,56,-46,-9,78,102,34,-53,-87,-102
-73,-39,34,56,-53,-2,102,151,63,-34,-78,-102
-68,-29,39,48,-53,4,151,151,107,-14,-78,-97
-68,0,68,34,-68,34,151,73,131,14,-58,-78
-63,19,82,21,-73,51,-24,-283,0,4,-39,-63
-58,63,122,-2,-90,92,-244,-727,-190,14,-9,-34
9,156,146,-82,-68,151,-478,-985,-209,146,112,68
97,229,131,-163,-17,180,-775,-1312,-244,317,273,195
175,244,68,-209,53,156,-1137,-1747,-356,419,414,302
268,248,-19,-258,143,114,-1415,-2049,-405,546,561,419
361,263,-97,-312,229,82,-1654,-2274,-439,722,722,556
453,307,-146,-380,300,80,-1883,-2562,-624,814,854,692
527,380,-146,-453,336,117,-2132,-3030,-1073,800,966,829
614,458,-156,-536,385,151,-2347,-3406,-1532,771,1093,976
707,527,-180,-617,444,173,-2479,-3703,-2030,756,1249,1146
800,585,-214,-692,507,185,-2601,-3933,-2459,702,1376,1302
849,624,-224,-736,536,200,-2674,-4089,-2810,629,1459,1424
893,644,-248,-768,570,197,-2718,-4226,-3108,478,1498,1507
893,590,-302,-741,597,143,-2732,-4289,-3357,263,1493,1561
883,488,-395,-685,639,46,-2635,-4221,-3459,78,1439,1571
824,400,-424,-612,624,-12,-2479,-4030,-3420,-48,1327,1517
771,351,-419,-561,595,-34,-2288,-3752,-3167,-4,1293,1483
751,278,-473,-514,612,-97,-2161,-3513,-2918,4,1283,1483
727,195,-531,-461,629,-168,-1991,-3220,-2649,48,1273,1498
727,136,-590,-431,658,-226,-1766,-2801,-2220,219,1327,1522
697,73,-624,-385,661,-275,-1551,-2405,-1898,190,1263,1493
663,4,-658,-334,661,-326,-1342,-2005,-1600,131,1171,1439
629,-48,-678,-290,653,-363,-1146,-1683,-1390,0,1034,1342
570,-102,-673,-234,622,-387,-961,-1434,-1263,-175,790,1195
517,-122,-639,-197,578,-380,-795,-1200,-1107,-287,595,1044
453,-141,-595,-156,524,-368,-653,-946,-907,-331,463,902
395,-156,-551,-119,473,-353,-502,-717,-736,-351,326,741
307,-161,-468,-73,387,-314,-351,-527,-605,-361,161,561
239,-165,-405,-36,322,-285,-229,-366,-488,-366,24,400
161,-146,-307,-7,234,-226,-131,-229,-370,-375,-92,219
97,-146,-244,24,170,-195,-34,-87,-244,-351,-156,78
19,-151,-170,65,95,-161,82,53,-112,-273,-190,-39
-58,-151,-92,104,17,-122,180,175,14,-195,-209,-126
-82,-126,-43,104,-19,-85,219,253,92,-151,-200,-161
-102,-107,-4,104,-48,-56,248,312,151,-122,-180,-175
-102,-82,19,92,-61,-31,263,341,170,-107,-180,-175
-102,-82,19,92,-61,-31,273,356,175,-107,-190,-190
-97,-78,19,87,-58,-29,278,361,185,-107,-204,-195
-87,-73,14,80,-51,-29,278,380,200,-112,-209,-209
-92,-73,19,82,-56,-26,283,400,209,-112,-209,-214
-92,-73,19,82,-56,-26,292,419,219,-107,-214,-214
-112,-78,34,95,-73,-21,312,429,229,-107,-214,-224
-122,-78,43,100,-82,-17,322,453,239,-107,-224,-229
-122,-78,43,100,-82,-17,331,473,253,-107,-229,-234
-122,-78,43,100,-82,-17,341,492,263,-112,-234,-244
-141,-78,63,109,-102,-7,356,522,273,-117,-239,-244
-161,-82,78,122,-119,-2,361,551,283,-117,-244,-248
-146,-82,63,114,-104,-9,370,566,292,-126,-248,-258
-136,-82,53,109,-95,-14,380,580,297,-141,-248,-258
-136,-92,43,114,-90,-24,400,605,317,-131,-258,-263
-136,-97,39,117,-87,-29,409,639,336,-126,-263,-273
-146,-102,43,124,-95,-29,434,673,351,-126,-263,-278
-151,-107,43,129,-97,-31,448,702,370,-131,-258,-287
-151,-107,43,129,-97,-31,468,741,390,-131,-278,-297
-156,-107,48,131,-102,-29,488,780,405,-131,-292,-302
-151,-102,48,126,-100,-26,507,819,429,-131,-297,-307
-146,-102,43,124,-95,-29,527,858,453,-136,-307,-317
-161,-102,58,131,-109,-21,551,902,478,-136,-317,-326
-170,-102,68,136,-119,-17,580,946,497,-141,-322,-336
-175,-112,63,143,-119,-24,600,995,522,-141,-331,-346
-185,-112,73,148,-129,-19,624,1044,546,-146,-346,-356
-190,-117,73,153,-131,-21,653,1093,575,-151,-356,-370
-200,-126,73,163,-136,-26,678,1137,600,-151,-361,-380
-214,-126,87,170,-151,-19,722,1185,634,-156,-370,-395
-239,-131,107,185,-173,-12,756,1234,663,-156,-380,-405
-229,-131,97,180,-163,-17,771,1278,692,-161,-395,-424
-219,-131,87,175,-153,-21,790,1322,722,-165,-414,-439
-224,-136,87,180,-156,-24,819,1366,756,-165,-434,-458
-234,-136,97,185,-165,-19,849,1415,785,-165,-448,-478
-244,-136,107,190,-175,-14,878,1464,824,-170,-463,-492
-248,-136,112,192,-180,-12,912,1503,858,-170,-473,-502
-263,-136,126,200,-195,-4,932,1542,897,-175,-488,-522
-273,-136,136,204,-204,0,951,1581,941,-165,-497,-536
-287,-136,151,212,-219,7,971,1625,980,-161,-507,-551
-297,-126,170,212,-234,21,990,1659,1029,-146,-517,-561
-292,-126,165,209,-229,19,1005,1688,1073,-141,-522,-575
-287,-126,161,207,-224,17,1010,1703,1107,-126,-527,-580
-287,-122,165,204,-226,21,1015,1722,1151,-102,-527,-585
-287,-122,165,204,-226,21,1019,1732,1195,-68,-512,-585
-287,-112,175,200,-231,31,1010,1751,1249,-29,-507,-590
-283,-102,180,192,-231,39,990,1761,1293,9,-492,-590
-278,-87,190,183,-234,51,980,1756,1327,53,-478,-580
-268,-78,190,173,-229,56,961,1742,1356,97,-453,-570
-263,-68,195,165,-229,63,936,1732,1395,141,-419,-541
-258,-58,200,158,-229,70,902,1708,1424,195,-380,-522
-234,-43,190,139,-212,73,858,1664,1429,253,-341,-497
-219,-29,190,124,-204,80,810,1610,1429,302,-287,-453
-200,-19,180,109,-190,80,771,1551,1439,346,-244,-414
-175,-9,165,92,-170,78,717,1483,1424,395,-195,-380
-161,4,165,78,-163,85,663,1405,1381,434,-146,-341
-141,24,165,58,-153,95,610,1317,1322,458,-107,-297
-131,48,180,41,-156,114,556,1215,1263,473,-58,-253
-117,53,170,31,-143,112,492,1107,1185,483,-19,-214
-97,68,165,14,-131,117,429,995,1083,488,29,-170
-78,78,156,0,-117,117,370,888,990,473,63,-131
-53,97,151,-21,-102,124,317,785,888,458,82,-87
-34,107,141,-36,-87,124,268,683,785,429,97,-63
-14,102,117,-43,-65,109,214,566,688,390,102,-43
4,97,92,-51,-43,95,165,473,595,346,102,-24
-4,87,92,-41,-48,90,136,395,512,307,107,-4
-4,87,92,-41,-48,90,112,326,434,273,107,4
-4,73,78,-34,-41,75,87,263,346,239,92,9
-4,68,73,-31,-39,70,68,204,278,200,82,9
0,73,73,-36,-36,73,43,161,234,175,78,9
0,68,68,-34,-34,68,39,122,185,146,73,9
-4,58,63,-26,-34,61,24,82,126,112,58,14
-4,48,53,-21,-29,51,9,53,82,82,43,9
-4,34,39,-14,-21,36,-4,24,58,58,24,0
-4,24,29,-9,-17,26,-9,4,24,43,9,-9
-4,9,14,-2,-9,12,-9,-9,9,19,0,-19
-9,9,19,0,-14,14,-14,-19,-14,0,-4,-24
-9,14,24,-2,-17,19,-14,-29,-24,-4,-9,-24
-14,14,29,0,-21,21,-14,-34,-34,-14,-19,-29
-24,9,34,7,-29,21,-9,-43,-43,-24,-19,-29
-39,9,48,14,-43,29,-4,-48,-53,-34,-24,-34
-24,4,29,9,-26,17,-4,-58,-63,-43,-29,-34
-14,-4,9,9,-12,2,-4,-63,-68,-48,-43,-34
-14,-9,4,12,-9,-2,-9,-63,-73,-58,-43,-34
-19,-9,9,14,-14,0,-14,-63,-78,-68,-48,-39
-24,-9,14,17,-19,2,-14,-68,-92,-73,-53,-48
-24,-9,14,17,-19,2,-9,-68,-97,-78,-53,-63
-24,-14,9,19,-17,-2,-9,-68,-97,-87,-58,-53
-29,-14,14,21,-21,0,-9,-73,-102,-87,-63,-53
-34,-14,19,24,-26,2,-9,-73,-102,-92,-68,-53
-34,-24,9,29,-21,-7,0,-73,-102,-102,-68,-53
-29,-24,4,26,-17,-9,0,-63,-107,-102,-68,-53
-19,-19,0,19,-9,-9,4,-63,-112,-107,-78,-58
-19,-19,0,19,-9,-9,-4,-63,-112,-112,-82,-63
-24,-24,0,24,-12,-12,-4,-58,-107,-117,-92,-73
-34,-24,9,29,-21,-7,4,-48,-107,-117,-92,-73
-48,-24,24,36,-36,0,9,-39,-107,-117,-97,-78
-53,-29,24,41,-39,-2,24,-43,-97,-117,-97,-78
-53,-29,24,41,-39,-2,29,-43,-87,-117,-97,-82
-53,-39,14,46,-34,-12,29,-34,-78,-117,-97,-87
-53,-39,14,46,-34,-12,34,-24,-73,-122,-97,-92
-43,-39,4,41,-24,-17,48,-14,-58,-107,-102,-92
-39,-39,0,39,-19,-19,53,-4,-43,-97,-102,-92
-43,-29,14,36,-29,-7,53,4,-34,-92,-102,-92
-43,-24,19,34,-31,-2,53,14,-24,-92,-102,-97
-48,-4,43,26,-46,19,68,19,-14,-82,-97,-92
-53,9,63,21,-58,36,82,29,-4,-73,-92,-87
-53,9,63,21,-58,36,92,53,14,-58,-78,-82
-53,14,68,19,-61,41,102,68,39,-39,-63,-82
-48,14,63,17,-56,39,122,78,48,-29,-63,-82
-48,14,63,17,-56,39,136,92,58,-24,-63,-82
-39,24,63,7,-51,43,112,97,63,-24,-58,-82
-34,29,63,2,-48,46,107,92,68,-19,-58,-82
-29,29,58,0,-43,43,92,82,63,-19,-68,-82
-29,29,58,0,-43,43,78,73,63,-24,-73,-82
-34,24,58,4,-46,41,43,48,43,-29,-78,-82
-39,14,53,12,-46,34,19,34,34,-34,-82,-82
-39,9,48,14,-43,29,4,14,24,-39,-82,-82
-39,4,43,17,-41,24,0,4,9,-39,-82,-87
-53,4,58,24,-56,31,-4,-4,4,-39,-78,-82
-63,4,68,29,-65,36,-9,-9,0,-39,-68,-82
-53,4,58,24,-56,31,-14,-9,0,-39,-68,-78
-43,9,53,17,-48,31,-24,-14,-4,-39,-68,-78
-29,14,43,7,-36,29,-24,-9,-4,-34,-68,-73
-14,19,34,-2,-24,26,-24,-4,-4,-34,-68,-68
-9,19,29,-4,-19,24,-24,-4,-4,-29,-58,-58
-9,19,29,-4,-19,24,-14,-9,-4,-19,-48,-48
-9,24,34,-7,-21,29,-14,-9,-4,-19,-48,-43
-9,24,34,-7,-21,29,-19,-4,-4,-19,-43,-34
-9,34,43,-12,-26,39,-14,-4,-4,-24,-43,-29
-4,39,43,-17,-24,41,-14,-9,-9,-29,-48,-29
4,29,24,-17,-9,26,-9,-4,-9,-29,-48,-48
9,19,9,-14,0,14,-4,0,-14,-29,-43,-53
-4,0,4,2,-4,2,4,-4,-19,-48,-48,-58
-29,-14,14,21,-21,0,29,-4,-24,-58,-53,-68
-39,-39,0,39,-19,-19,34,-9,-24,-63,-68,-78
-43,-58,-14,51,-14,-36,34,-9,-24,-68,-82,-87
-53,-63,-9,58,-21,-36,34,-9,-39,-78,-97,-97
-63,-68,-4,65,-29,-36,34,-14,-43,-87,-107,-107
-58,-68,-9,63,-24,-39,34,-9,-39,-87,-107,-112
-58,-68,-9,63,-24,-39,39,-9,-39,-87,-107,-117
-58,-63,-4,61,-26,-34,39,-9,-39,-82,-107,-112
-58,-58,0,58,-29,-29,39,-9,-39,-78,-107,-107
-58,-58,0,58,-29,-29,39,-9,-39,-78,-107,-107
-58,-58,0,58,-29,-29,39,-9,-39,-78,-102,-107
-58,-58,0,58,-29,-29,39,-9,-39,-82,-97,-107
-58,-63,-4,61,-26,-34,39,-9,-39,-82,-87,-107
-53,-63,-9,58,-21,-36,39,-9,-43,-82,-97,-107
-53,-63,-9,58,-21,-36,39,-9,-48,-82,-107,-107
-43,-63,-19,53,-12,-41,39,-9,-43,-82,-107,-107
-34,-63,-29,48,-2,-46,43,-4,-43,-82,-107,-107
-43,-63,-19,53,-12,-41,48,0,-43,-82,-102,-102
-53,-58,-4,56,-24,-31,53,4,-43,-82,-97,-102
-53,-58,-4,56,-24,-31,53,4,-43,-82,-97,-102
-53,-58,-4,56,-24,-31,58,4,-43,-82,-97,-107
-53,-58,-4,56,-24,-31,53,0,-43,-82,-102,-107
-53,-63,-9,58,-21,-36,53,0,-43,-82,-107,-107
-53,-63,-9,58,-21,-36,53,0,-39,-82,-107,-107
-53,-63,-9,58,-21,-36,53,0,-34,-87,-107,-107
-53,-53,0,53,-26,-26,58,0,-34,-87,-112,-112
-53,-48,4,51,-29,-21,58,4,-34,-82,-117,-117
-53,-48,4,51,-29,-21,58,4,-34,-82,-117,-117
-53,-48,4,51,-29,-21,63,4,-29,-82,-117,-117
-48,-48,0,48,-24,-24,63,9,-29,-82,-112,-112
-48,-43,4,46,-26,-19,63,19,-29,-82,-107,-107
-48,-43,4,46,-26,-19,63,19,-24,-82,-107,-107
-48,-43,4,46,-26,-19,68,24,-24,-82,-107,-107
-48,-48,0,48,-24,-24,68,19,-24,-82,-107,-107
-48,-53,-4,51,-21,-29,68,14,-24,-87,-107,-107
-53,-53,0,53,-26,-26,73,14,-24,-87,-107,-112
-58,-53,4,56,-31,-24,78,14,-24,-87,-107,-122
-63,-58,4,61,-34,-26,87,24,-19,-82,-107,-122
-68,-58,9,63,-39,-24,92,29,-14,-78,-107,-117
-68,-53,14,61,-41,-19,92,29,-9,-68,-102,-112
-68,-53,14,61,-41,-19,92,34,-4,-58,-97,-107
-68,-53,14,61,-41,-19,97,34,-4,-68,-97,-107
-68,-53,14,61,-41,-19,97,34,-4,-78,-97,-107
-68,-58,9,63,-39,-24,97,43,0,-78,-97,-102
-63,-63,0,63,-31,-31,97,63,14,-68,-97,-97
-63,-63,0,63,-31,-31,107,122,53,-53,-87,-92
-63,-58,4,61,-34,-26,131,151,82,-34,-78,-92
-58,-53,4,56,-31,-24,170,122,82,-19,-82,-97
-58,-29,29,43,-43,0,161,14,63,4,-68,-87
-53,-4,48,29,-51,21,-14,-356,-82,9,-29,-58
-48,43,92,2,-70,68,-234,-814,-287,34,19,-14
19,136,117,-78,-48,126,-463,-1093,-336,170,156,102
107,209,102,-158,2,156,-756,-1439,-400,346,331,244
185,239,53,-212,65,146,-1122,-1903,-585,458,473,356
278,258,-19,-268,148,119,-1405,-2235,-707,595,619,478
346,287,-58,-317,202,114,-1629,-2488,-844,746,790,624
414,346,-68,-380,241,139,-1844,-2806,-1132,814,932,771
483,429,-53,-456,268,187,-2083,-3235,-1571,790,1044,907
566,517,-48,-541,307,234,-2288,-3572,-2020,751,1171,1054
629,595,-34,-612,331,280,-2396,-3782,-2415,707,1317,1229
692,663,-29,-678,361,317,-2493,-3923,-2742,624,1434,1390
722,697,-24,-710,373,336,-2542,-4021,-3020,492,1478,1488
746,712,-34,-729,390,339,-2562,-4099,-3245,283,1478,1546
727,649,-78,-688,402,285,-2562,-4118,-3464,19,1429,1571
697,536,-161,-617,429,187,-2449,-4006,-3538,-214,1332,1551
644,434,-209,-539,427,112,-2293,-3811,-3464,-326,1229,1507
595,370,-224,-483,409,73,-2103,-3528,-3176,-268,1205,1483
585,287,-297,-436,441,-4,-1986,-3298,-2952,-253,1205,1488
570,195,-375,-383,473,-90,-1825,-3015,-2708,-204,1205,1507
595,126,-468,-361,531,-170,-1625,-2625,-2278,-39,1259,1542
590,53,-536,-322,563,-241,-1434,-2259,-1956,-73,1195,1522
575,-19,-595,-278,585,-307,-1239,-1888,-1654,-92,1102,1478
561,-78,-639,-241,600,-358,-1058,-1595,-1439,-185,966,1390
512,-122,-634,-195,573,-378,-883,-1351,-1293,-326,741,1254
468,-131,-600,-168,534,-366,-727,-1122,-1117,-405,566,1112
414,-141,-556,-136,485,-348,-600,-888,-912,-424,429,961
366,-146,-512,-109,439,-329,-463,-678,-736,-419,287,790
278,-156,-434,-61,356,-295,-312,-483,-585,-405,126,600
209,-165,-375,-21,292,-270,-190,-317,-448,-385,-4,429
141,-151,-292,4,217,-222,-92,-180,-322,-375,-102,239
87,-156,-244,34,165,-200,4,-39,-185,-331,-146,87
29,-165,-195,68,112,-180,107,92,-73,-263,-190,-39
-29,-170,-141,100,56,-156,190,204,34,-195,-219,-136
-53,-146,-92,100,19,-119,229,273,117,-151,-209,-161
-73,-126,-53,100,-9,-90,258,322,180,-122,-190,-165
-82,-97,-14,90,-34,-56,278,361,204,-97,-185,-165
-92,-92,0,92,-46,-46,292,385,214,-87,-190,-180
-97,-92,4,95,-51,-43,302,390,224,-87,-200,-185
-97,-92,4,95,-51,-43,307,409,239,-92,-200,-200
-97,-92,4,95,-51,-43,307,424,248,-97,-204,-209
-92,-92,0,92,-46,-46,312,439,258,-97,-214,-214
-102,-97,4,100,-53,-46,326,448,268,-97,-214,-224
-102,-97,4,100,-53,-46,331,473,278,-97,-224,-229
-102,-97,4,100,-53,-46,341,492,292,-97,-234,-244
-102,-97,4,100,-53,-46,351,512,302,-102,-244,-263
-107,-102,4,104,-56,-48,366,531,312,-107,-248,-253
-112,-112,0,112,-56,-56,370,551,322,-107,-253,-248
-112,-112,0,112,-56,-56,380,575,336,-107,-253,-253
-117,-112,4,114,-61,-53,390,600,346,-112,-248,-248
-117,-112,4,114,-61,-53,409,624,366,-112,-258,-253
-117,-107,9,112,-63,-48,419,658,385,-117,-263,-263
-126,-112,14,119,-70,-48,444,688,400,-117,-273,-273
-131,-117,14,124,-73,-51,458,712,419,-122,-278,-287
-126,-122,4,124,-65,-58,478,751,439,-117,-287,-297
-126,-126,0,126,-63,-63,497,790,453,-112,-292,-302
-126,-126,0,126,-63,-63,517,829,483,-107,-297,-307
-126,-131,-4,129,-61,-68,536,868,512,-107,-307,-317
-141,-136,4,139,-73,-65,556,912,541,-107,-317,-326
-151,-141,9,146,-80,-65,580,956,566,-112,-322,-336
-161,-151,9,156,-85,-70,605,1005,595,-112,-331,-346
-175,-151,24,163,-100,-63,634,1054,624,-117,-346,-356
-175,-146,29,161,-102,-58,658,1098,653,-122,-351,-370
-180,-146,34,163,-107,-56,678,1137,678,-122,-351,-380
-165,-146,19,156,-92,-63,712,1185,712,-126,-366,-395
-161,-151,9,156,-85,-70,736,1234,741,-126,-380,-405
-175,-151,24,163,-100,-63,761,1278,771,-131,-400,-424
-190,-151,39,170,-114,-56,790,1322,800,-136,-424,-439
-200,-161,39,180,-119,-61,819,1366,834,-136,-439,-453
-214,-165,48,190,-131,-58,849,1415,863,-136,-448,-468
-224,-165,58,195,-141,-53,873,1464,902,-141,-468,-488
-229,-165,63,197,-146,-51,902,1503,936,-141,-483,-502
-244,-161,82,202,-163,-39,922,1532,966,-151,-497,-522
-253,-156,97,204,-175,-29,941,1561,1000,-146,-507,-536
-253,-156,97,204,-175,-29,956,1600,1039,-141,-522,-551
-248,-146,102,197,-175,-21,971,1629,1088,-126,-536,-561
-253,-151,102,202,-178,-24,985,1659,1132,-117,-541,-580
-258,-156,102,207,-180,-26,990,1673,1166,-97,-546,-590
-263,-151,112,207,-187,-19,995,1693,1205,-73,-546,-595
-268,-151,117,209,-192,-17,1000,1703,1244,-39,-531,-595
-268,-141,126,204,-197,-7,995,1712,1293,0,-517,-595
-263,-131,131,197,-197,0,980,1712,1332,39,-492,-590
-253,-122,131,187,-192,4,966,1708,1361,82,-483,-580
-239,-117,122,178,-180,2,941,1693,1385,126,-463,-570
-229,-107,122,168,-175,7,917,1673,1415,170,-429,-546
-219,-97,122,158,-170,12,883,1639,1434,224,-390,-531
-200,-82,117,141,-158,17,839,1600,1444,278,-351,-507
-190,-68,122,129,-156,26,790,1551,1449,322,-297,-463
-170,-53,117,112,-143,31,756,1498,1439,366,-253,-429
-146,-39,107,92,-126,34,707,1434,1405,414,-204,-400
-131,-24,107,78,-119,41,649,1356,1366,444,-161,-361
-112,-4,107,58,-109,51,590,1268,1312,458,-126,-317
-97,19,117,39,-107,68,536,1171,1249,478,-68,-263
-78,24,102,26,-90,63,473,1068,1166,492,-19,-214
-68,43,112,12,-90,78,414,961,1063,497,19,-175
-58,58,117,0,-87,87,361,858,971,483,43,-141
-43,73,117,-14,-80,95,307,756,868,468,68,-92
-34,78,112,-21,-73,95,258,653,766,439,87,-63
-24,78,102,-26,-63,90,214,546,668,400,97,-43
-14,78,92,-31,-53,85,175,463,575,356,102,-24
-14,68,82,-26,-48,75,141,380,488,312,102,-9
-4,68,73,-31,-39,70,112,307,405,273,97,-4
-4,58,63,-26,-34,61,87,248,326,229,82,0
-4,58,63,-26,-34,61,68,195,268,180,73,0
-9,63,73,-26,-41,68,43,151,219,165,73,9
-19,58,78,-19,-48,68,39,112,165,146,73,19
-14,48,63,-17,-39,56,29,78,117,112,58,24
-4,39,43,-17,-24,41,19,53,82,82,43,19
-4,34,39,-14,-21,36,4,24,53,53,24,9
-4,34,39,-14,-21,36,0,4,14,34,9,0
0,19,19,-9,-9,19,-4,-9,0,9,-4,-14
0,19,19,-9,-9,19,-14,-19,-24,-9,-14,-24
0,14,14,-7,-7,14,-14,-29,-34,-24,-29,-34
-4,4,9,0,-7,7,-14,-34,-43,-43,-48,-48
-9,-4,4,7,-7,0,-9,-43,-53,-39,-34,-34
-19,-9,9,14,-14,0,-4,-48,-63,-34,-24,-24
-19,-9,9,14,-14,0,-4,-58,-73,-43,-24,-24
-24,-14,9,19,-17,-2,-4,-63,-78,-48,-34,-24
-24,-19,4,21,-14,-7,-4,-63,-82,-53,-34,-24
-29,-19,9,24,-19,-4,-4,-63,-87,-58,-39,-29
-34,-19,14,26,-24,-2,-4,-68,-102,-68,-48,-39
-34,-19,14,26,-24,-2,0,-68,-107,-78,-53,-53
-24,-24,0,24,-12,-12,0,-63,-107,-87,-63,-53
-19,-24,-4,21,-7,-14,0,-63,-112,-87,-73,-63
-24,-24,0,24,-12,-12,0,-63,-112,-92,-78,-63
-24,-34,-9,29,-7,-21,9,-63,-112,-102,-78,-63
-29,-34,-4,31,-12,-19,9,-53,-107,-107,-73,-58
-29,-29,0,29,-14,-14,14,-53,-102,-117,-78,-58
-34,-29,4,31,-19,-12,14,-48,-102,-117,-78,-58
-43,-34,9,39,-26,-12,24,-39,-97,-117,-82,-63
-43,-34,9,39,-26,-12,24,-39,-97,-117,-87,-68
-48,-34,14,41,-31,-9,19,-39,-97,-117,-97,-78
-39,-34,4,36,-21,-14,29,-34,-87,-122,-97,-78
-24,-29,-4,26,-9,-17,29,-24,-78,-126,-97,-82
-34,-29,4,31,-19,-12,34,-14,-68,-122,-97,-78
-43,-19,24,31,-34,2,43,-4,-63,-122,-97,-73
-43,-14,29,29,-36,7,58,9,-43,-107,-97,-73
-48,-9,39,29,-43,14,63,24,-24,-97,-92,-73
-48,0,48,24,-48,24,73,29,-9,-87,-92,-73
-43,4,48,19,-46,26,82,34,4,-82,-92,-78
-43,14,58,14,-51,36,97,53,19,-63,-82,-73
-43,19,63,12,-53,41,112,78,34,-43,-73,-68
-43,19,63,12,-53,41,117,92,43,-34,-68,-63
-43,24,68,9,-56,46,122,97,58,-19,-63,-63
-39,24,63,7,-51,43,112,87,53,-19,-68,-68
-39,24,63,7,-51,43,97,82,48,-24,-73,-73
-34,24,58,4,-46,41,63,78,48,-24,-68,-73
-34,19,53,7,-43,36,48,63,48,-19,-68,-73
-29,19,48,4,-39,34,29,39,29,-34,-78,-82
-29,19,48,4,-39,34,9,14,14,-53,-82,-92
-39,19,58,9,-48,39,-4,4,4,-53,-82,-92
-48,14,63,17,-56,39,-9,4,4,-53,-82,-92
-48,14,63,17,-56,39,-19,-4,4,-53,-82,-87
-48,14,63,17,-56,39,-19,-4,0,-48,-82,-87
-39,19,58,9,-48,39,-19,-4,0,-39,-82,-78
-24,24,48,0,-36,36,-19,0,0,-29,-78,-73
-24,19,43,2,-34,31,-14,4,14,-24,-53,-53
-24,19,43,2,-34,31,-14,4,24,-19,-29,-39
-24,19,43,2,-34,31,-14,4,19,-19,-29,-39
-24,19,43,2,-34,31,-14,4,14,-24,-29,-39
-9,19,29,-4,-19,24,-14,4,9,-24,-39,-43
0,19,19,-9,-9,19,-4,0,4,-19,-48,-48
-14,19,34,-2,-24,26,0,0,4,-19,-48,-43
-29,14,43,7,-36,29,0,4,4,-19,-43,-34
-34,4,39,14,-36,21,9,4,4,-24,-43,-34
-34,-9,24,21,-29,7,14,0,0,-29,-48,-39
-34,-29,4,31,-19,-12,19,0,-9,-48,-68,-63
-39,-48,-9,43,-14,-29,24,0,-24,-68,-82,-73
-43,-58,-14,51,-14,-36,24,-4,-29,-78,-87,-87
-58,-68,-9,63,-24,-39,43,-4,-34,-78,-97,-107
-58,-63,-4,61,-26,-34,43,0,-34,-78,-97,-102
-58,-63,-4,61,-26,-34,48,4,-39,-82,-97,-97
-58,-63,-4,61,-26,-34,48,0,-39,-82,-97,-97
-58,-68,-9,63,-24,-39,48,-9,-39,-87,-97,-97
-58,-68,-9,63,-24,-39,48,-9,-43,-87,-102,-97
-58,-68,-9,63,-24,-39,48,-9,-48,-87,-107,-97
-53,-68,-14,61,-19,-41,43,-9,-48,-87,-107,-97
-48,-63,-14,56,-17,-39,39,-9,-48,-87,-107,-97
-48,-58,-9,53,-19,-34,39,-9,-48,-92,-107,-97
-43,-53,-9,48,-17,-31,39,-9,-48,-92,-107,-97
-58,-53,4,56,-31,-24,39,-9,-43,-92,-107,-102
-73,-53,19,63,-46,-17,39,-9,-34,-92,-107,-107
-53,-58,-4,56,-24,-31,43,-4,-34,-92,-107,-107
-34,-63,-29,48,-2,-46,43,-4,-34,-92,-107,-102
-48,-58,-9,53,-19,-34,48,0,-34,-87,-107,-102
-63,-58,4,61,-34,-26,53,4,-34,-82,-107,-102
-63,-53,9,58,-36,-21,58,4,-34,-82,-107,-102
-63,-48,14,56,-39,-17,58,4,-34,-82,-107,-97
-58,-53,4,56,-31,-24,63,9,-34,-82,-107,-97
-53,-53,0,53,-26,-26,63,9,-34,-82,-107,-97
-43,-53,-9,48,-17,-31,58,4,-43,-92,-107,-102
-34,-48,-14,41,-9,-31,58,0,-53,-97,-107,-107
-43,-48,-4,46,-19,-26,58,4,-43,-92,-107,-107
-53,-48,4,51,-29,-21,58,4,-34,-92,-107,-107
-58,-48,9,53,-34,-19,63,9,-29,-87,-107,-107
-63,-48,14,56,-39,-17,63,14,-29,-82,-107,-107
-68,-43,24,56,-46,-9,63,19,-29,-82,-107,-107
-68,-43,24,56,-46,-9,63,19,-24,-82,-107,-107
-63,-43,19,53,-41,-12,68,24,-24,-87,-107,-107
-58,-43,14,51,-36,-14,68,24,-24,-87,-107,-107
-58,-43,14,51,-36,-14,68,24,-24,-87,-107,-107
-58,-43,14,51,-36,-14,68,24,-24,-87,-107,-107
-58,-43,14,51,-36,-14,73,24,-24,-82,-107,-112
-58,-48,9,53,-34,-19,82,29,-24,-78,-107,-112
-63,-48,14,56,-39,-17,82,34,-24,-78,-107,-107
-68,-43,24,56,-46,-9,82,39,-19,-78,-107,-107
-68,-43,24,56,-46,-9,82,43,-14,-78,-107,-107
-68,-43,24,56,-46,-9,87,43,-14,-78,-107,-107
-68,-43,24,56,-46,-9,82,34,-14,-78,-107,-107
-68,-43,24,56,-46,-9,78,34,-9,-78,-107,-107
-48,-43,4,46,-26,-19,78,53,0,-68,-112,-107
-34,-43,-9,39,-12,-26,87,102,34,-53,-107,-102
-43,-43,0,43,-21,-21,117,141,63,-43,-102,-107
-48,-39,9,43,-29,-14,131,87,63,-34,-97,-107
-48,-9,39,29,-43,14,126,-24,43,-9,-73,-92
-34,24,58,4,-46,41,-39,-356,-87,0,-39,-58
-39,82,122,-21,-80,102,-268,-829,-307,14,0,-14
14,161,146,-87,-65,153,-502,-1122,-370,131,122,82
87,224,136,-156,-24,180,-814,-1478,-453,326,307,229
146,244,97,-195,24,170,-1156,-1898,-610,458,463,356
239,263,24,-251,107,143,-1424,-2191,-678,605,619,483
331,302,-29,-317,180,136,-1659,-2469,-844,751,790,629
419,356,-63,-387,241,146,-1883,-2796,-1141,805,922,771
488,429,-58,-458,273,185,-2122,-3225,-1581,780,1034,907
561,522,-39,-541,300,241,-2318,-3552,-2005,736,1161,1054
629,595,-34,-612,331,280,-2425,-3777,-2405,692,1298,1215
712,658,-53,-685,383,302,-2522,-3918,-2747,600,1405,1361
741,692,-48,-717,395,322,-2571,-4011,-3020,468,1449,1459
766,707,-58,-736,412,324,-2601,-4108,-3254,258,1449,1522
746,658,-87,-702,417,285,-2596,-4108,-3435,29,1415,1551
717,531,-185,-624,451,173,-2479,-3996,-3513,-214,1317,1532
673,429,-244,-551,458,92,-2332,-3811,-3455,-346,1215,1488
624,380,-244,-502,434,68,-2147,-3533,-3162,-248,1205,1464
605,307,-297,-456,451,4,-2015,-3284,-2903,-209,1205,1464
610,219,-390,-414,500,-85,-1854,-3006,-2659,-136,1210,1493
619,156,-463,-387,541,-153,-1659,-2640,-2293,-14,1234,1507
610,87,-522,-348,566,-217,-1459,-2259,-1932,-29,1176,1473
600,19,-580,-309,590,-280,-1259,-1888,-1610,-39,1102,1429
570,-39,-610,-265,590,-324,-1068,-1595,-1424,-165,961,1342
517,-92,-610,-212,563,-351,-893,-1346,-1278,-292,751,1215
463,-112,-575,-175,519,-344,-736,-1112,-1098,-375,566,1063
405,-131,-536,-136,470,-334,-600,-868,-888,-400,424,922
351,-136,-488,-107,419,-312,-453,-644,-717,-395,283,756
268,-136,-405,-65,336,-270,-312,-463,-585,-390,126,570
200,-146,-346,-26,273,-246,-195,-317,-453,-385,-14,390
126,-136,-263,4,195,-200,-92,-180,-322,-375,-122,209
78,-146,-224,34,151,-185,9,-34,-195,-331,-156,78
29,-156,-185,63,107,-170,112,92,-82,-263,-185,-34
-39,-151,-112,95,36,-131,195,200,39,-190,-204,-126
-73,-126,-53,100,-9,-90,234,273,122,-146,-200,-165
-92,-107,-14,100,-39,-61,258,326,175,-112,-180,-165
-97,-82,14,90,-56,-34,273,361,200,-87,-180,-165
-97,-82,14,90,-56,-34,283,375,204,-87,-195,-185
-97,-82,14,90,-56,-34,292,380,214,-87,-209,-195
-97,-82,14,90,-56,-34,297,400,229,-97,-209,-209
-102,-82,19,92,-61,-31,302,419,239,-102,-209,-214
-107,-82,24,95,-65,-29,312,439,248,-97,-214,-214
-122,-87,34,104,-78,-26,326,448,258,-97,-214,-224
-122,-87,34,104,-78,-26,326,468,263,-97,-224,-229
-122,-87,34,104,-78,-26,331,483,273,-97,-229,-234
-117,-87,29,102,-73,-29,341,502,283,-102,-234,-244
-117,-87,29,102,-73,-29,356,522,292,-107,-239,-244
-122,-97,24,109,-73,-36,361,541,302,-107,-244,-248
-122,-102,19,112,-70,-41,370,566,317,-107,-248,-258
-122,-102,19,112,-70,-41,380,590,326,-112,-248,-258
-117,-107,9,112,-63,-48,400,614,346,-112,-258,-263
-117,-102,14,109,-65,-43,409,649,366,-117,-258,-273
-126,-102,24,114,-75,-39,434,683,380,-117,-263,-278
-131,-107,24,119,-78,-41,448,712,400,-122,-268,-287
-131,-107,24,119,-78,-41,468,751,419,-122,-278,-297
-136,-112,24,124,-80,-43,488,790,439,-112,-283,-297
-136,-117,19,126,-78,-48,507,829,468,-102,-287,-297
-136,-122,14,129,-75,-53,527,868,492,-107,-297,-307
-151,-122,29,136,-90,-46,551,912,517,-107,-307,-317
-161,-122,39,141,-100,-41,580,961,541,-112,-312,-326
-165,-131,34,148,-100,-48,605,1015,570,-112,-322,-336
-175,-131,43,153,-109,-43,634,1063,595,-122,-341,-351
-175,-131,43,153,-109,-43,663,1112,624,-131,-356,-370
-170,-136,34,153,-102,-51,678,1156,649,-131,-361,-380
-165,-136,29,151,-97,-53,702,1205,683,-136,-375,-395
-190,-141,48,165,-119,-46,736,1254,712,-136,-390,-405
-204,-141,63,173,-134,-39,771,1302,741,-141,-405,-424
-209,-141,68,175,-139,-36,800,1346,771,-146,-424,-439
-214,-146,68,180,-141,-39,829,1385,805,-146,-439,-453
-224,-151,73,187,-148,-39,858,1434,834,-146,-448,-468
-234,-156,78,195,-156,-39,883,1483,878,-151,-463,-483
-244,-156,87,200,-165,-34,917,1522,917,-151,-473,-492
-263,-156,107,209,-185,-24,941,1561,956,-151,-488,-512
-273,-156,117,214,-195,-19,961,1600,995,-136,-502,-531
-278,-156,122,217,-200,-17,980,1639,1034,-131,-517,-551
-273,-146,126,209,-200,-9,995,1668,1083,-126,-527,-561
-273,-146,126,209,-200,-9,1005,1698,1122,-122,-527,-575
-278,-146,131,212,-204,-7,1010,1712,1156,-97,-531,-580
-278,-141,136,209,-207,-2,1010,1732,1200,-73,-536,-585
-283,-146,136,214,-209,-4,1015,1742,1244,-39,-522,-585
-287,-141,146,214,-217,2,1010,1751,1293,0,-507,-585
-283,-131,151,207,-217,9,995,1751,1332,39,-488,-585
-273,-117,156,195,-214,19,980,1747,1366,87,-473,-575
-258,-107,151,183,-204,21,956,1737,1395,136,-444,-561
-248,-97,151,173,-200,26,932,1717,1424,180,-409,-531
-239,-87,151,163,-195,31,893,1678,1449,234,-370,-517
-214,-73,141,143,-178,34,849,1634,1459,287,-331,-497
-204,-58,146,131,-175,43,805,1586,1459,331,-278,-453
-190,-43,146,117,-168,51,766,1527,1449,370,-234,-414
-165,-29,136,97,-151,53,712,1464,1420,424,-180,-375
-151,-14,136,82,-143,61,658,1381,1376,463,-131,-331
-136,9,146,63,-141,78,600,1283,1322,478,-97,-287
-126,39,165,43,-146,102,546,1185,1259,492,-48,-244
-107,48,156,29,-131,102,478,1078,1166,502,-9,-204
-87,68,156,9,-122,112,414,966,1063,502,24,-165
-63,78,141,-7,-102,109,361,858,971,473,43,-131
-43,87,131,-21,-87,109,307,756,868,444,63,-92
-34,92,126,-29,-80,109,258,653,766,424,92,-58
-24,92,117,-34,-70,104,214,551,668,400,112,-24
-9,87,97,-39,-53,92,165,468,575,356,112,-4
-4,78,82,-36,-43,80,126,385,492,312,112,9
4,82,78,-43,-36,80,102,312,414,273,107,14
4,73,68,-39,-31,70,78,248,336,239,92,19
-9,73,82,-31,-46,78,58,190,278,195,82,19
-19,78,97,-29,-58,87,34,141,234,165,73,19
-19,68,87,-24,-53,78,29,102,185,136,63,19
-24,58,82,-17,-53,70,19,68,136,102,48,19
-9,48,58,-19,-34,53,4,39,92,68,34,9
4,43,39,-24,-17,41,-9,9,63,39,19,0
4,43,39,-24,-17,41,-9,-4,34,24,9,-9
4,29,24,-17,-9,26,-9,-19,19,4,0,-14
-14,29,43,-7,-29,36,-14,-29,-4,-9,-4,-14
-29,24,53,2,-41,39,-14,-39,-14,-14,-9,-14
-24,14,39,4,-31,26,-14,-43,-29,-24,-19,-24
-14,9,24,2,-19,17,-14,-53,-43,-34,-19,-29
-14,9,24,2,-19,17,-19,-58,-53,-43,-24,-34
-9,9,19,0,-14,14,-24,-68,-63,-53,-29,-34
-14,0,14,7,-14,7,-24,-73,-63,-63,-43,-34
-14,-9,4,12,-9,-2,-24,-73,-63,-73,-43,-34
-14,-9,4,12,-9,-2,-24,-73,-68,-78,-48,-39
-14,-9,4,12,-9,-2,-24,-78,-78,-82,-53,-39
-14,-9,4,12,-9,-2,-19,-78,-78,-87,-53,-39
-9,-14,-4,12,-2,-9,-19,-78,-78,-97,-58,-34
-19,-14,4,17,-12,-4,-14,-82,-87,-97,-63,-43
-34,-14,19,24,-26,2,-9,-82,-92,-102,-68,-43
-34,-24,9,29,-21,-7,0,-82,-92,-112,-73,-48
-39,-24,14,31,-26,-4,0,-73,-92,-112,-78,-53
-34,-14,19,24,-26,2,4,-73,-92,-117,-87,-58
-29,-9,19,19,-24,4,4,-68,-92,-117,-87,-58
-34,-4,29,19,-31,12,19,-53,-82,-117,-87,-58
-34,4,39,14,-36,21,34,-39,-73,-117,-82,-53
-39,9,48,14,-43,29,48,-19,-63,-112,-87,-58
-39,14,53,12,-46,34,68,-4,-48,-107,-87,-58
-34,19,53,7,-43,36,78,4,-39,-107,-87,-63
-34,19,53,7,-43,36,87,14,-29,-102,-87,-63
-29,29,58,0,-43,43,78,24,-24,-102,-82,-63
-24,29,53,-2,-39,41,78,34,-9,-87,-78,-63
-29,29,58,0,-43,43,68,43,4,-78,-73,-63
-34,34,68,0,-51,51,53,48,14,-73,-73,-63
-34,24,58,4,-46,41,29,29,9,-78,-82,-73
-34,24,58,4,-46,41,4,4,0,-78,-92,-78
-43,24,68,9,-56,46,-4,-14,-14,-87,-97,-82
-53,19,73,17,-63,46,-9,-24,-24,-92,-97,-82
-53,19,73,17,-63,46,-9,-24,-14,-87,-97,-82
-48,14,63,17,-56,39,-9,-29,-14,-92,-102,-82
-43,14,58,14,-51,36,-9,-24,-9,-82,-102,-82
-34,19,53,7,-43,36,-34,-24,-9,-73,-97,-82
-34,19,53,7,-43,36,-19,-14,4,-63,-87,-78
-29,19,48,4,-39,34,-14,-4,14,-53,-78,-73
-24,19,43,2,-34,31,-19,-4,24,-43,-68,-63
-19,19,39,0,-29,29,-24,-4,24,-34,-63,-53
-14,19,34,-2,-24,26,-19,4,29,-29,-58,-48
-9,24,34,-7,-21,29,-19,0,29,-29,-53,-39
-9,24,34,-7,-21,29,-14,-4,19,-29,-48,-39
-9,24,34,-7,-21,29,-9,-9,19,-29,-43,-34
-4,24,29,-9,-17,26,-4,-4,24,-29,-39,-34
-4,19,24,-7,-14,21,0,0,29,-29,-39,-29
-19,9,29,4,-24,19,4,-4,24,-34,-48,-43
-34,0,34,17,-34,17,14,-4,19,-39,-58,-58
-48,-19,29,34,-39,4,19,-9,0,-63,-78,-78
-58,-39,19,48,-39,-9,24,-14,-14,-82,-97,-97
-58,-39,19,48,-39,-9,34,-19,-14,-78,-97,-107
-58,-43,14,51,-36,-14,39,-14,-14,-78,-97,-107
-63,-48,14,56,-39,-17,39,-14,-24,-87,-102,-107
-68,-58,9,63,-39,-24,43,-19,-34,-97,-107,-107
-68,-53,14,61,-41,-19,39,-19,-34,-97,-107,-107
-68,-48,19,58,-43,-14,39,-19,-39,-97,-107,-107
-68,-48,19,58,-43,-14,39,-19,-39,-97,-107,-102
-68,-48,19,58,-43,-14,39,-19,-39,-97,-107,-97
-63,-53,9,58,-36,-21,39,-19,-39,-92,-107,-97
-58,-53,4,56,-31,-24,39,-19,-39,-92,-107,-97
-58,-53,4,56,-31,-24,39,-24,-43,-92,-107,-97
-53,-53,0,53,-26,-26,39,-29,-48,-92,-107,-97
-58,-53,4,56,-31,-24,39,-29,-48,-92,-107,-97
-63,-53,9,58,-36,-21,39,-29,-43,-92,-107,-97
-63,-53,9,58,-36,-21,43,-24,-39,-97,-107,-102
-63,-53,9,58,-36,-21,43,-24,-34,-102,-107,-102
-63,-48,14,56,-39,-17,39,-24,-34,-102,-107,-102
-63,-48,14,56,-39,-17,34,-24,-34,-102,-107,-102
-63,-48,14,56,-39,-17,39,-24,-34,-102,-107,-102
-63,-48,14,56,-39,-17,39,-24,-34,-102,-107,-97
-63,-53,9,58,-36,-21,43,-19,-34,-102,-107,-97
-63,-53,9,58,-36,-21,43,-19,-34,-102,-107,-97
-63,-53,9,58,-36,-21,43,-19,-34,-107,-107,-97
-63,-48,14,56,-39,-17,48,-19,-34,-107,-107,-97
-63,-48,14,56,-39,-17,48,-14,-34,-102,-107,-97
-63,-48,14,56,-39,-17,48,-14,-34,-102,-107,-97
-63,-48,14,56,-39,-17,53,-14,-34,-102,-107,-102
-63,-48,14,56,-39,-17,53,-14,-39,-102,-107,-107
-68,-43,24,56,-46,-9,53,-9,-39,-102,-107,-107
-68,-43,24,56,-46,-9,53,-9,-34,-102,-107,-107
-68,-43,24,56,-46,-9,63,-4,-34,-102,-107,-107
-68,-43,24,56,-46,-9,68,-4,-34,-97,-107,-107
-68,-43,24,56,-46,-9,68,-4,-34,-97,-107,-107
-68,-43,24,56,-46,-9,68,-4,-34,-97,-107,-107
-68,-43,24,56,-46,-9,68,0,-29,-97,-107,-112
-68,-48,19,58,-43,-14,73,9,-24,-97,-107,-112
-68,-48,19,58,-43,-14,73,9,-24,-97,-107,-107
-68,-43,24,56,-46,-9,73,9,-19,-97,-107,-107
-68,-43,24,56,-46,-9,73,9,-14,-97,-107,-107
-68,-43,24,56,-46,-9,78,4,-14,-97,-107,-107
-68,-43,24,56,-46,-9,73,4,-14,-97,-107,-107
-68,-43,24,56,-46,-9,68,14,-9,-97,-107,-107
-58,-43,14,51,-36,-14,68,39,0,-87,-107,-107
-53,-43,9,48,-31,-17,78,92,34,-73,-97,-102
-53,-43,9,48,-31,-17,102,117,63,-53,-87,-102
-48,-39,9,43,-29,-14,112,48,63,-34,-78,-97
-53,-9,43,31,-48,17,78,-82,48,-4,-48,-78
-43,24,68,9,-56,46,-117,-434,-78,9,-9,-39
-29,87,117,-29,-73,102,-356,-883,-253,48,39,14
43,170,126,-107,-41,148,-600,-1151,-273,190,170,122
136,229,92,-183,21,161,-912,-1488,-307,385,346,253
214,244,29,-229,92,136,-1254,-1888,-414,517,492,366
307,248,-58,-278,183,95,-1517,-2147,-414,678,649,488
400,273,-126,-336,263,73,-1747,-2391,-512,839,819,629
492,322,-170,-407,331,75,-1966,-2708,-790,917,956,775
566,390,-175,-478,370,107,-2200,-3128,-1210,917,1073,917
653,468,-185,-561,419,141,-2400,-3474,-1668,897,1205,1063
736,527,-209,-631,473,158,-2513,-3718,-2103,878,1346,1224
824,580,-244,-702,534,168,-2610,-3904,-2503,814,1464,1371
858,605,-253,-732,556,175,-2659,-4040,-2835,712,1517,1468
902,605,-297,-753,600,153,-2693,-4172,-3123,517,1527,1537
902,541,-361,-722,631,90,-2693,-4206,-3357,302,1503,1571
873,429,-444,-651,658,-7,-2571,-4108,-3445,78,1420,1551
829,341,-488,-585,658,-73,-2420,-3938,-3396,-34,1332,1507
775,292,-483,-534,629,-95,-2230,-3650,-3108,48,1322,1483
751,219,-531,-485,641,-156,-2093,-3391,-2854,73,1322,1483
736,146,-590,-441,663,-222,-1912,-3074,-2562,165,1327,1507
727,97,-629,-412,678,-265,-1698,-2669,-2147,307,1351,1517
688,34,-653,-361,671,-309,-1488,-2278,-1815,239,1268,1464
649,-29,-678,-309,663,-353,-1278,-1898,-1522,175,1171,1400
605,-82,-688,-261,646,-385,-1078,-1600,-1342,9,1005,1288
536,-131,-668,-202,602,-400,-893,-1346,-1200,-156,771,1137
478,-146,-624,-165,551,-385,-732,-1112,-1029,-258,585,985
414,-161,-575,-126,495,-368,-590,-868,-829,-302,444,844
356,-165,-522,-95,439,-344,-444,-639,-658,-322,292,683
268,-165,-434,-51,351,-300,-302,-453,-527,-341,126,502
200,-165,-366,-17,283,-265,-190,-307,-414,-351,-9,336
126,-146,-273,9,200,-209,-92,-170,-302,-356,-112,170
68,-146,-214,39,141,-180,9,-29,-175,-317,-156,43
9,-146,-156,68,82,-151,112,92,-63,-253,-195,-63
-48,-141,-92,95,21,-117,190,195,43,-185,-209,-141
-73,-117,-43,95,-14,-80,224,263,112,-146,-200,-165
-92,-97,-4,95,-43,-51,248,312,161,-126,-180,-165
-97,-73,24,85,-61,-24,263,341,180,-117,-180,-165
-107,-73,34,90,-70,-19,273,361,185,-117,-190,-180
-117,-73,43,95,-80,-14,283,370,195,-117,-200,-185
-117,-73,43,95,-80,-14,292,390,209,-122,-200,-200
-122,-73,48,97,-85,-12,302,409,219,-122,-200,-204
-122,-73,48,97,-85,-12,312,429,229,-117,-204,-204
-131,-78,53,104,-92,-12,326,439,239,-117,-204,-214
-131,-78,53,104,-92,-12,331,463,248,-117,-214,-219
-131,-78,53,104,-92,-12,341,483,263,-117,-219,-224
-136,-78,58,107,-97,-9,351,502,273,-122,-229,-234
-146,-78,68,112,-107,-4,366,522,283,-126,-239,-234
-151,-82,68,117,-109,-7,375,541,292,-126,-244,-239
-151,-82,68,117,-109,-7,390,566,307,-126,-248,-248
-156,-82,73,119,-114,-4,400,590,317,-131,-248,-248
-156,-87,68,122,-112,-9,419,614,336,-131,-258,-253
-156,-87,68,122,-112,-9,429,649,351,-136,-258,-263
-165,-92,73,129,-119,-9,453,683,361,-136,-263,-268
-170,-97,73,134,-122,-12,468,707,380,-141,-268,-278
-170,-97,73,134,-122,-12,488,741,400,-141,-278,-287
-175,-97,78,136,-126,-9,507,780,414,-141,-287,-292
-175,-97,78,136,-126,-9,527,819,439,-141,-297,-297
-170,-102,68,136,-119,-17,546,858,463,-146,-307,-307
-180,-102,78,141,-129,-12,570,902,488,-146,-317,-317
-190,-102,87,146,-139,-7,600,946,507,-151,-322,-326
-195,-112,82,153,-139,-14,624,995,531,-151,-331,-336
-209,-112,97,161,-153,-7,653,1044,551,-161,-346,-346
-214,-112,102,163,-158,-4,683,1093,575,-170,-356,-361
-219,-117,102,168,-161,-7,707,1137,600,-170,-361,-375
-224,-117,107,170,-165,-4,741,1185,634,-175,-375,-395
-239,-122,117,180,-178,-2,766,1234,663,-175,-390,-405
-244,-122,122,183,-183,0,790,1283,692,-180,-405,-424
-253,-122,131,187,-192,4,819,1337,722,-185,-424,-439
-263,-126,136,195,-200,4,849,1385,756,-185,-439,-453
-273,-126,146,200,-209,9,878,1434,785,-185,-448,-468
-283,-126,156,204,-219,14,902,1483,829,-190,-463,-483
-283,-126,156,204,-219,14,932,1527,868,-190,-473,-492
-292,-126,165,209,-229,19,951,1571,907,-190,-488,-512
-302,-126,175,214,-239,24,971,1610,946,-175,-497,-527
-307,-126,180,217,-244,26,990,1649,985,-170,-507,-541
-307,-117,190,212,-248,36,1010,1678,1039,-161,-517,-551
-312,-117,195,214,-253,39,1024,1708,1083,-151,-517,-566
-317,-117,200,217,-258,41,1029,1727,1122,-126,-517,-570
-317,-112,204,214,-261,46,1029,1751,1171,-102,-517,-575
-317,-117,200,217,-258,41,1029,1761,1215,-68,-502,-575
-317,-112,204,214,-261,46,1019,1771,1263,-29,-488,-575
-312,-102,209,207,-261,53,1000,1771,1307,9,-468,-570
-302,-87,214,195,-258,63,980,1766,1346,58,-453,-556
-287,-73,214,180,-251,70,956,1756,1376,107,-424,-541
-278,-58,219,168,-248,80,932,1737,1405,151,-390,-512
-268,-48,219,158,-244,85,893,1698,1424,204,-351,-492
-244,-34,209,139,-226,87,849,1654,1429,258,-312,-468
-229,-19,209,124,-219,95,800,1600,1429,302,-258,-429
-209,-4,204,107,-207,100,756,1537,1420,341,-214,-395
-185,9,195,87,-190,102,697,1464,1390,385,-165,-361
-170,24,195,73,-183,109,639,1371,1346,414,-122,-322
-151,43,195,53,-173,119,570,1263,1283,429,-87,-278
-136,68,204,34,-170,136,507,1156,1210,444,-39,-234
-117,73,190,21,-153,131,444,1049,1122,453,0,-195
-97,87,185,4,-141,136,385,936,1024,453,34,-156
-78,97,175,-9,-126,136,331,829,932,439,53,-117
-63,107,170,-21,-117,139,278,727,829,424,73,-73
-48,107,156,-29,-102,131,229,624,727,390,92,-53
-34,102,136,-34,-85,119,185,522,629,351,102,-34
-24,102,126,-39,-75,114,146,439,536,317,102,-14
-24,97,122,-36,-73,109,117,356,453,283,102,0
-14,97,112,-41,-63,104,92,287,375,244,97,4
-14,82,97,-34,-56,90,68,229,297,209,82,9
-14,78,92,-31,-53,85,48,175,239,170,73,9
-9,78,87,-34,-48,82,24,131,195,146,63,9
-9,68,78,-29,-43,73,19,92,146,117,53,9
-14,58,73,-21,-43,65,9,58,97,82,39,9
-14,43,58,-14,-36,51,-4,34,63,53,24,4
-14,34,48,-9,-31,41,-19,9,43,29,9,0
-14,34,48,-9,-31,41,-19,-4,14,19,4,-9
-14,19,34,-2,-24,26,-19,-19,0,4,0,-14
-19,19,39,0,-29,29,-24,-34,-24,-9,-4,-19
-19,14,34,2,-26,24,-24,-48,-34,-14,-9,-24
-24,4,29,9,-26,17,-24,-53,-43,-24,-19,-34
-24,0,24,12,-24,12,-24,-63,-53,-34,-19,-39
-24,0,24,12,-24,12,-24,-63,-63,-48,-24,-43
-19,0,19,9,-19,9,-24,-68,-73,-63,-29,-43
-24,-4,19,14,-21,7,-24,-73,-82,-68,-43,-43
-24,-9,14,17,-19,2,-24,-73,-92,-73,-43,-43
-29,-9,19,19,-24,4,-24,-73,-97,-78,-48,-48
-34,-9,24,21,-29,7,-24,-78,-107,-82,-53,-48
-34,-9,24,21,-29,7,-14,-78,-107,-87,-53,-53
-29,-14,14,21,-21,0,-9,-78,-107,-97,-58,-53
-29,-14,14,21,-21,0,-9,-78,-112,-97,-63,-58
-34,-14,19,24,-26,2,-9,-73,-112,-102,-68,-53
-34,-19,14,26,-24,-2,0,-68,-112,-107,-68,-53
-39,-14,24,26,-31,4,0,-53,-112,-102,-68,-53
-39,0,39,19,-39,19,19,-48,-102,-102,-73,-58
-39,9,48,14,-43,29,34,-39,-92,-97,-68,-58
-43,14,58,14,-51,36,53,-24,-78,-97,-68,-63
-43,24,68,9,-56,46,73,-9,-63,-97,-63,-63
-43,24,68,9,-56,46,78,9,-53,-92,-68,-63
-39,24,63,7,-51,43,87,24,-39,-87,-68,-58
-34,29,63,2,-48,46,87,34,-29,-87,-68,-63
-34,29,63,2,-48,46,87,43,-19,-82,-68,-63
-34,39,73,-2,-53,56,68,43,-19,-82,-68,-63
-34,39,73,-2,-53,56,58,43,-9,-68,-68,-63
-43,24,68,9,-56,46,34,29,-9,-68,-68,-68
-53,14,68,19,-61,41,4,9,-14,-73,-73,-73
-58,4,63,26,-61,34,-4,0,-24,-82,-82,-82
-63,4,68,29,-65,36,-14,-14,-39,-87,-92,-87
-63,9,73,26,-68,41,-24,-19,-39,-87,-92,-87
-63,9,73,26,-68,41,-29,-14,-34,-82,-87,-82
-58,14,73,21,-65,43,-24,-9,-19,-68,-82,-82
-48,14,63,17,-56,39,-19,-9,-14,-63,-82,-82
-39,14,53,12,-46,34,-9,4,-4,-58,-78,-78
-24,19,43,2,-34,31,-24,14,0,-53,-68,-73
-24,19,43,2,-34,31,-14,14,9,-43,-63,-68
-19,19,39,0,-29,29,-14,14,14,-34,-58,-63
-19,19,39,0,-29,29,-9,9,19,-34,-53,-58
