I,II,III,aVR,aVL,aVF,V1,V2,V3,V4,V5,V6,
-9,-68,-58,39,24,-63,58,48,0,-29,-48,-39
-14,-68,-53,41,19,-61,63,53,4,-24,-48,-39
-19,-68,-48,43,14,-58,68,58,9,-19,-48,-39
-19,-58,-39,39,9,-48,68,58,19,-14,-43,-39
-19,-48,-29,34,4,-39,68,58,29,-9,-39,-39
-14,-43,-29,29,7,-36,68,58,29,-4,-34,-39
-9,-39,-29,24,9,-34,68,58,29,0,-29,-39
-9,-34,-24,21,7,-29,68,58,34,4,-29,-39
-9,-29,-19,19,4,-24,68,58,39,9,-29,-39
-9,-24,-14,17,2,-19,68,58,43,14,-24,-39
-9,-19,-9,14,0,-14,68,58,48,19,-19,-39
-9,-19,-9,14,0,-14,63,58,48,19,-19,-39
-9,-19,-9,14,0,-14,58,58,48,19,-19,-39
-4,-19,-14,12,4,-17,53,58,53,19,-19,-34
0,-19,-19,9,9,-19,48,58,58,19,-19,-29
4,-14,-19,4,12,-17,48,58,58,19,-19,-29
9,-9,-19,0,14,-14,48,58,58,19,-19,-29
9,-4,-14,-2,12,-9,43,58,58,24,-19,-29
9,0,-9,-4,9,-4,39,58,58,29,-19,-29
14,4,-9,-9,12,-2,39,58,58,29,-14,-24
19,9,-9,-14,14,0,39,58,58,29,-9,-19
19,9,-9,-14,14,0,34,63,58,34,-9,-19
19,9,-9,-14,14,0,29,68,58,39,-9,-19
24,14,-9,-19,17,2,29,68,63,39,-4,-19
29,19,-9,-24,19,4,29,68,68,39,0,-19
29,29,0,-29,14,14,24,68,73,48,0,-14
29,39,9,-34,9,24,19,68,78,58,0,-9
39,43,4,-41,17,24,14,73,82,63,4,-9
48,48,0,-48,24,24,9,78,87,68,9,-9
53,63,9,-58,21,36,4,82,97,73,14,-4
58,78,19,-68,19,48,0,87,107,78,19,0
63,87,24,-75,19,56,-4,92,117,97,24,0
68,97,29,-82,19,63,-9,97,126,117,29,0
78,117,39,-97,19,78,-14,102,141,126,43,9
87,136,48,-112,19,92,-19,107,156,136,58,19
92,156,63,-124,14,109,-24,117,170,161,68,29
97,175,78,-136,9,126,-29,126,185,185,78,39
107,200,92,-153,7,146,-39,131,200,200,87,53
117,224,107,-170,4,165,-48,136,214,214,97,68
126,239,112,-183,7,175,-58,136,224,234,117,87
136,253,117,-195,9,185,-68,136,234,253,136,107
151,283,131,-217,9,207,-78,136,244,268,151,126
165,312,146,-239,9,229,-87,136,253,283,165,146
170,322,151,-246,9,236,-97,131,253,287,175,156
175,331,156,-253,9,244,-107,126,253,292,185,165
185,341,156,-263,14,248,-117,122,253,292,190,180
195,351,156,-273,19,253,-126,117,253,292,195,195
195,351,156,-273,19,253,-131,107,244,287,200,209
195,351,156,-273,19,253,-136,97,234,283,204,224
190,346,156,-268,17,251,-136,78,214,268,204,229
185,341,156,-263,14,248,-136,58,195,253,204,234
180,326,146,-253,17,236,-136,43,175,234,204,234
175,312,136,-244,19,224,-136,29,156,214,204,234
165,287,122,-226,21,204,-131,14,136,190,190,214
156,263,107,-209,24,185,-126,0,117,165,175,195
131,229,97,-180,17,163,-112,-9,97,136,151,175
107,195,87,-151,9,141,-97,-19,78,107,126,156
97,175,78,-136,9,126,-92,-24,58,92,112,141
87,156,68,-122,9,112,-87,-29,39,78,97,126
82,131,48,-107,17,90,-73,-34,24,53,82,112
78,107,29,-92,24,68,-58,-39,9,29,68,97
63,87,24,-75,19,56,-53,-39,0,19,53,82
48,68,19,-58,14,43,-48,-39,-9,9,39,68
43,53,9,-48,17,31,-43,-43,-14,0,29,58
39,39,0,-39,19,19,-39,-48,-19,-9,19,48
34,34,0,-34,17,17,-34,-48,-24,-19,9,43
29,29,0,-29,14,14,-29,-48,-29,-29,0,39
29,19,-9,-24,19,4,-24,-43,-34,-34,0,34
29,9,-19,-19,24,-4,-19,-39,-39,-39,0,29
29,4,-24,-17,26,-9,-19,-39,-39,-39,0,29
29,0,-29,-14,29,-14,-19,-39,-39,-39,0,29
24,-4,-29,-9,26,-17,-14,-39,-39,-43,-9,19
19,-9,-29,-4,24,-19,-9,-39,-39,-48,-19,9
14,-9,-24,-2,19,-17,-9,-39,-39,-48,-19,9
9,-9,-19,0,14,-14,-9,-39,-39,-48,-19,9
4,-14,-19,4,12,-17,-4,-39,-39,-48,-24,9
0,-19,-19,9,9,-19,0,-39,-39,-48,-29,9
0,-19,-19,9,9,-19,0,-34,-39,-48,-29,4
0,-19,-19,9,9,-19,0,-29,-39,-48,-29,0
0,-19,-19,9,9,-19,0,-29,-39,-48,-29,0
0,-19,-19,9,9,-19,0,-29,-39,-48,-29,0
-4,-19,-14,12,4,-17,0,-29,-34,-48,-29,-4
-9,-19,-9,14,0,-14,0,-29,-29,-48,-29,-9
-9,-19,-9,14,0,-14,0,-24,-24,-43,-29,-9
-9,-19,-9,14,0,-14,0,-19,-19,-39,-29,-9
-9,-14,-4,12,-2,-9,0,-19,-19,-34,-29,-9
-9,-9,0,9,-4,-4,0,-19,-19,-29,-29,-9
-9,-9,0,9,-4,-4,0,-19,-14,-29,-29,-9
-9,-9,0,9,-4,-4,0,-19,-9,-29,-29,-9
-9,-9,0,9,-4,-4,0,-14,-9,-24,-29,-9
-9,-9,0,9,-4,-4,0,-9,-9,-19,-29,-9
-9,-9,0,9,-4,-4,0,-9,-4,-14,-24,-9
-9,-9,0,9,-4,-4,0,-9,0,-9,-19,-9
-9,-4,4,7,-7,0,0,-9,0,-9,-14,-4
-9,0,9,4,-9,4,0,-9,0,-9,-9,0
-9,0,9,4,-9,4,0,-9,0,-9,-9,0
-9,0,9,4,-9,4,0,-9,0,-9,-9,0
-14,0,14,7,-14,7,0,-9,-4,-9,-9,-4
-19,0,19,9,-19,9,0,-9,-9,-9,-9,-9
-19,-4,14,12,-17,4,0,-4,-9,-9,-9,-9
-19,-9,9,14,-14,0,0,0,-9,-9,-9,-9
-14,-9,4,12,-9,-2,0,0,-9,-9,-9,-9
-9,-9,0,9,-4,-4,0,0,-9,-9,-9,-9
-9,-9,0,9,-4,-4,0,0,-9,-9,-9,-9
-9,-9,0,9,-4,-4,0,0,-9,-9,-9,-9
-9,-9,0,9,-4,-4,0,-4,-14,-14,-9,-9
-9,-9,0,9,-4,-4,0,-9,-19,-19,-9,-9
-9,-14,-4,12,-2,-9,0,-9,-19,-24,-9,-9
-9,-19,-9,14,0,-14,0,-9,-19,-29,-9,-9
-9,-24,-14,17,2,-19,0,-9,-24,-29,-9,-9
-9,-29,-19,19,4,-24,0,-9,-29,-29,-9,-9
-9,-29,-19,19,4,-24,0,-9,-29,-34,-9,-9
-9,-29,-19,19,4,-24,0,-9,-29,-39,-9,-9
-9,-29,-19,19,4,-24,0,-9,-29,-39,-9,-9
-9,-29,-19,19,4,-24,0,-9,-29,-39,-9,-9
-9,-29,-19,19,4,-24,0,-9,-29,-39,-9,-9
-9,-29,-19,19,4,-24,0,-9,-29,-39,-9,-9
-9,-34,-24,21,7,-29,0,-9,-29,-39,-9,-9
-9,-39,-29,24,9,-34,0,-9,-29,-39,-9,-9
-9,-39,-29,24,9,-34,0,-9,-29,-39,-9,-9
-9,-39,-29,24,9,-34,0,-9,-29,-39,-9,-9
-9,-39,-29,24,9,-34,-4,-9,-34,-43,-9,-9
-9,-39,-29,24,9,-34,-9,-9,-39,-48,-9,-9
-9,-39,-29,24,9,-34,-9,-14,-39,-48,-9,-9
-9,-39,-29,24,9,-34,-9,-19,-39,-48,-9,-9
-9,-43,-34,26,12,-39,-9,-19,-39,-48,-9,-9
-9,-48,-39,29,14,-43,-9,-19,-39,-48,-9,-9
-9,-48,-39,29,14,-43,-9,-19,-39,-48,-9,-9
-9,-48,-39,29,14,-43,-9,-19,-39,-48,-9,-9
-9,-48,-39,29,14,-43,-9,-19,-39,-48,-9,-9
-9,-43,-34,26,12,-39,-9,-19,-39,-48,-9,-4
-9,-43,-34,26,12,-39,-9,-19,-39,-48,-9,-4
-9,-43,-34,26,12,-39,-9,-19,-39,-48,-9,-4
-4,-43,-39,24,17,-41,-9,-14,-39,-48,-9,-4
-4,-43,-39,24,17,-41,-9,-9,-39,-48,-9,-4
-4,-43,-39,24,17,-41,-9,-9,-34,-43,-9,0
-4,-34,-29,19,12,-31,-4,-9,-29,-34,-4,0
-4,-19,-14,12,4,-17,-4,-9,-19,-29,0,0
0,-9,-9,4,4,-9,4,-4,-4,-19,4,4
0,4,4,-2,-2,4,14,-4,4,-14,14,9
4,19,14,-12,-4,17,19,4,14,0,19,19
9,24,14,-17,-2,19,19,9,19,0,29,24
19,34,14,-26,2,24,19,14,29,9,39,24
24,48,24,-36,0,36,14,4,34,14,43,29
24,53,29,-39,-2,41,-14,-19,39,14,48,34
24,53,29,-39,-2,41,-43,-43,29,14,48,43
24,53,29,-39,-2,41,-68,-53,19,14,48,43
34,43,9,-39,12,26,-82,-63,0,0,48,48
43,39,-4,-41,24,17,-87,-68,-14,-9,48,48
43,34,-9,-39,26,12,-87,-63,-29,-19,48,48
48,19,-29,-34,39,-4,-82,-63,-39,-29,39,53
48,9,-39,-29,43,-14,-78,-58,-48,-24,39,53
53,0,-53,-26,53,-26,-73,-58,-68,-39,29,53
63,-9,-73,-26,68,-41,-78,-58,-73,-43,24,53
68,0,-68,-34,68,-34,-82,-58,-73,-43,24,53
68,4,-63,-36,65,-29,-73,-58,-68,-43,24,53
48,0,-48,-24,48,-24,-58,-48,-63,-39,24,53
19,-9,-29,-4,24,-19,-29,-39,-53,-39,19,29
0,-29,-29,14,14,-29,-9,-29,-48,-39,9,9
-9,-48,-39,29,14,-43,4,-19,-43,-39,0,-4
-14,-48,-34,31,9,-41,4,-19,-43,-48,-4,-4
-14,-53,-39,34,12,-46,4,-19,-48,-48,-14,-4
-14,-58,-43,36,14,-51,4,-19,-48,-53,-19,-9
-14,-63,-48,39,17,-56,9,-19,-48,-53,-19,-9
-14,-68,-53,41,19,-61,9,-14,-48,-53,-19,-9
-14,-73,-58,43,21,-65,14,-14,-48,-53,-19,-9
-14,-73,-58,43,21,-65,14,-14,-48,-53,-24,-9
-14,-73,-58,43,21,-65,14,-9,-48,-53,-24,-9
-19,-73,-53,46,17,-63,19,-9,-48,-53,-24,-9
-9,-63,-53,36,21,-58,9,-9,-48,-53,-14,-4
-9,-63,-53,36,21,-58,9,-9,-48,-58,-14,-4
-39,-97,-58,68,9,-78,43,4,-39,-68,-73,-63
-73,-141,-68,107,-2,-104,87,14,-34,-92,-117,-122
-112,-195,-82,153,-14,-139,131,29,-4,-136,-200,-180
-117,-185,-68,151,-24,-126,146,24,29,-126,-195,-185
-78,-48,29,63,-53,-9,107,24,48,-19,-9,-78
39,195,156,-117,-58,175,-29,-29,-14,136,292,131
263,536,273,-400,-4,405,-322,-126,-180,370,771,473
556,888,331,-722,112,610,-697,-229,-492,605,1302,893
917,1283,366,-1100,275,824,-1146,-395,-873,966,1927,1346
1224,1522,297,-1373,463,910,-1483,-566,-1156,1166,2283,1727
1317,1288,-29,-1302,673,629,-1561,-614,-1263,863,2025,1854
1283,785,-497,-1034,890,143,-1395,-541,-1273,312,1434,1800
1049,73,-976,-561,1012,-451,-995,-361,-1190,-292,561,1498
810,-341,-1151,-234,980,-746,-624,-185,-1034,-629,-14,1049
619,-453,-1073,-82,846,-763,-429,-126,-844,-678,-214,688
473,-439,-912,-17,692,-675,-302,-92,-629,-595,-248,448
287,-341,-629,26,458,-485,-190,-82,-434,-414,-200,307
146,-248,-395,51,270,-322,-92,-58,-287,-263,-161,151
87,-190,-278,51,183,-234,-39,-14,-185,-180,-117,58
48,-161,-209,56,129,-185,-9,9,-112,-131,-73,24
14,-151,-165,68,90,-158,19,24,-68,-102,-63,9
-14,-122,-107,68,46,-114,43,39,-34,-73,-53,-14
-14,-92,-78,53,31,-85,53,48,-9,-48,-43,-24
-19,-87,-68,53,24,-78,58,48,0,-48,-43,-29
-19,-87,-68,53,24,-78,58,48,4,-43,-43,-39
-24,-82,-58,53,17,-70,63,48,14,-39,-39,-43
-29,-78,-48,53,9,-63,63,48,24,-29,-29,-48
-29,-73,-43,51,7,-58,63,53,34,-24,-29,-48
-29,-68,-39,48,4,-53,63,53,39,-24,-29,-39
-29,-58,-29,43,0,-43,63,58,43,-24,-29,-34
-24,-58,-34,41,4,-46,63,58,43,-19,-29,-34
-24,-53,-29,39,2,-41,63,58,48,-14,-19,-34
-24,-48,-24,36,0,-36,63,58,53,-9,-14,-34
-24,-48,-24,36,0,-36,63,58,58,-4,-14,-34
-24,-39,-14,31,-4,-26,58,58,68,0,-9,-29
-24,-39,-14,31,-4,-26,58,58,73,4,-9,-29
-19,-39,-19,29,0,-29,58,58,73,4,-9,-29
-19,-29,-9,24,-4,-19,53,58,73,9,-9,-29
-9,-29,-19,19,4,-24,53,58,73,9,-9,-29
-9,-24,-14,17,2,-19,43,53,78,9,-9,-24
-9,-19,-9,14,0,-14,48,53,78,14,-9,-24
-9,-19,-9,14,0,-14,48,53,78,19,-4,-24
0,-19,-19,9,9,-19,48,53,78,19,-4,-19
4,-9,-14,2,9,-12,43,53,78,24,0,-14
4,-4,-9,0,7,-7,39,53,78,24,0,-9
9,-4,-14,-2,12,-9,34,53,78,19,0,-9
4,-4,-9,0,7,-7,29,53,82,29,0,-9
0,4,4,-2,-2,4,24,58,87,29,0,-9
4,9,4,-7,0,7,24,63,92,39,0,-9
4,14,9,-9,-2,12,24,63,102,39,4,-9
14,24,9,-19,2,17,24,68,107,48,9,-9
14,29,14,-21,0,21,19,73,117,53,14,-9
24,43,19,-34,2,31,14,78,117,68,14,-4
29,53,24,-41,2,39,9,78,126,78,19,-4
34,63,29,-48,2,46,4,78,136,87,29,4
39,73,34,-56,2,53,0,78,151,97,34,4
43,92,48,-68,-2,70,-9,87,165,117,48,19
48,112,63,-80,-7,87,-19,92,180,126,53,19
58,126,68,-92,-4,97,-24,102,195,151,63,24
73,151,78,-112,-2,114,-29,107,209,170,73,29
73,170,97,-122,-12,134,-34,117,234,190,92,39
87,204,117,-146,-14,161,-48,122,244,209,107,53
97,234,136,-165,-19,185,-53,126,263,239,117,73
107,248,141,-178,-17,195,-63,126,273,258,136,92
117,258,141,-187,-12,200,-68,126,278,273,146,117
126,283,156,-204,-14,219,-82,126,283,287,165,141
136,307,170,-222,-17,239,-92,126,292,302,180,161
141,317,175,-229,-17,246,-107,117,292,307,195,170
151,336,185,-244,-17,261,-107,112,292,312,204,190
156,351,195,-253,-19,273,-122,107,292,312,219,209
165,356,190,-261,-12,273,-122,102,297,312,224,224
170,366,195,-268,-12,280,-131,87,287,317,234,239
170,366,195,-268,-12,280,-141,73,273,317,239,248
170,356,185,-263,-7,270,-146,58,253,302,239,248
165,361,195,-263,-14,278,-146,43,239,278,244,248
161,346,185,-253,-12,265,-146,29,224,253,239,248
151,312,161,-231,-4,236,-146,14,195,229,234,248
136,292,156,-214,-9,224,-136,0,161,204,219,234
122,258,136,-190,-7,197,-131,-9,146,175,195,214
107,219,112,-163,-2,165,-122,-14,122,146,175,195
92,185,92,-139,0,139,-107,-24,102,122,151,175
78,165,87,-122,-4,126,-92,-34,78,102,141,156
68,146,78,-107,-4,112,-82,-34,63,78,122,141
53,126,73,-90,-9,100,-73,-39,48,53,97,131
48,97,48,-73,0,73,-63,-43,34,39,92,122
39,87,48,-63,-4,68,-63,-43,19,24,73,102
29,58,29,-43,0,43,-53,-39,9,9,63,82
19,48,29,-34,-4,39,-43,-39,0,4,48,63
19,29,9,-24,4,19,-39,-34,-4,-4,48,63
14,14,0,-14,7,7,-29,-34,-14,-14,39,48
9,9,0,-9,4,4,-24,-34,-14,-19,34,48
4,4,0,-4,2,2,-24,-34,-19,-24,29,43
0,0,0,0,0,0,-24,-29,-24,-24,24,43
0,0,0,0,0,0,-24,-24,-24,-34,14,39
0,-4,-4,2,2,-4,-24,-24,-24,-43,9,34
0,-14,-14,7,7,-14,-19,-24,-24,-48,4,34
-4,-19,-14,12,4,-17,-14,-24,-29,-48,0,34
-4,-24,-19,14,7,-21,-14,-24,-29,-53,0,34
-4,-24,-19,14,7,-21,-14,-24,-29,-48,0,29
-4,-29,-24,17,9,-26,-9,-24,-24,-43,0,29
-4,-29,-24,17,9,-26,-9,-14,-24,-43,-4,29
-4,-29,-24,17,9,-26,-9,-9,-24,-43,-14,19
-9,-34,-24,21,7,-29,-9,-9,-19,-48,-19,19
-9,-39,-29,24,9,-34,-9,-9,-19,-53,-24,19
-9,-39,-29,24,9,-34,-4,-9,-19,-48,-24,14
-9,-39,-29,24,9,-34,0,-9,-19,-48,-29,9
-9,-39,-29,24,9,-34,0,-9,-14,-48,-29,4
-9,-34,-24,21,7,-29,0,-9,-14,-43,-29,0
-9,-34,-24,21,7,-29,4,-4,-14,-48,-29,0
-9,-34,-24,21,7,-29,4,-4,-4,-48,-29,0
-9,-39,-29,24,9,-34,4,-4,0,-48,-29,-4
-9,-39,-29,24,9,-34,4,-9,0,-39,-34,-9
-14,-39,-24,26,4,-31,9,-4,4,-39,-34,-9
-14,-39,-24,26,4,-31,9,-4,9,-39,-34,-9
-19,-29,-9,24,-4,-19,9,-4,9,-34,-29,-9
-24,-24,0,24,-12,-12,9,-4,9,-34,-29,-9
-19,-24,-4,21,-7,-14,9,0,9,-24,-19,-4
-19,-24,-4,21,-7,-14,14,0,14,-24,-14,0
-24,-19,4,21,-14,-7,14,0,14,-19,-9,-14
-29,-19,9,24,-19,-4,9,0,14,-19,-9,-14
-29,-19,9,24,-19,-4,9,0,14,-19,-9,-14
-29,-14,14,21,-21,0,9,4,14,-19,-9,-14
-24,-9,14,17,-19,2,9,4,9,-19,-4,-9
-19,-4,14,12,-17,4,9,4,4,-14,-4,-9
-19,-4,14,12,-17,4,9,4,9,-14,-4,-9
-19,-4,14,12,-17,4,9,4,9,-19,-4,-9
-19,-4,14,12,-17,4,4,4,4,-14,-4,-9
-19,-9,9,14,-14,0,0,4,-4,-14,-9,-9
-19,-9,9,14,-14,0,0,4,-4,-14,-4,-4
-19,-9,9,14,-14,0,0,4,-4,-14,0,0
-19,-9,9,14,-14,0,4,4,-4,-14,0,-4
-19,-9,9,14,-14,0,4,4,-4,-14,0,-4
-19,-9,9,14,-14,0,4,4,-9,-29,0,-4
-19,-14,4,17,-12,-4,4,4,-9,-34,0,-4
-19,-19,0,19,-9,-9,0,4,-14,-34,-4,-4
-19,-24,-4,21,-7,-14,-4,0,-14,-34,-9,-4
-14,-24,-9,19,-2,-17,-4,0,-19,-29,-9,-4
-9,-24,-14,17,2,-19,-4,0,-24,-29,-9,-4
-9,-19,-9,14,0,-14,-4,-4,-24,-29,-14,-4
-9,-14,-4,12,-2,-9,-9,-9,-24,-29,-19,-9
-9,-19,-9,14,0,-14,-9,-9,-29,-29,-14,-9
-9,-19,-9,14,0,-14,-9,-9,-29,-29,-14,-4
-9,-19,-9,14,0,-14,-9,-9,-29,-29,-14,-4
-9,-19,-9,14,0,-14,-9,-9,-29,-34,-9,-4
-9,-19,-9,14,0,-14,-9,-9,-29,-34,-9,-4
-9,-24,-14,17,2,-19,-9,-9,-34,-34,-9,-9
-4,-24,-19,14,7,-21,-9,-9,-34,-34,-9,-9
-4,-24,-19,14,7,-21,-9,-9,-34,-34,-14,-4
-4,-19,-14,12,4,-17,-9,-9,-34,-34,-9,-4
-9,-19,-9,14,0,-14,-9,-9,-39,-39,-9,-9
-9,-19,-9,14,0,-14,-9,-9,-39,-39,-9,-9
-9,-19,-9,14,0,-14,-9,-9,-39,-39,-9,-9
-9,-19,-9,14,0,-14,-9,-9,-39,-39,-9,-9
-9,-19,-9,14,0,-14,-9,-9,-39,-34,-9,-4
-9,-19,-9,14,0,-14,-9,-9,-39,-34,-9,-4
-9,-14,-4,12,-2,-9,-9,-9,-39,-29,-9,-4
-9,-14,-4,12,-2,-9,-9,-9,-39,-29,-9,-4
-4,-14,-9,9,2,-12,-9,-9,-39,-29,-9,-4
-4,-14,-9,9,2,-12,-9,-9,-39,-34,-14,-4
-4,-14,-9,9,2,-12,-9,-9,-34,-34,-19,0
-4,-4,0,4,-2,-2,-4,-9,-34,-24,-14,0
-4,9,14,-2,-9,12,-4,-9,-29,-19,-9,0
0,19,19,-9,-9,19,4,-4,-14,-9,0,4
0,34,34,-17,-17,34,9,-4,-4,-4,14,9
4,48,43,-26,-19,46,9,4,4,9,19,19
9,53,43,-31,-17,48,9,4,9,9,24,24
24,68,43,-46,-9,56,14,14,24,19,29,24
34,87,53,-61,-9,70,9,14,29,24,34,29
34,97,63,-65,-14,80,-24,-9,34,29,39,34
34,102,68,-68,-17,85,-53,-29,29,34,39,43
29,102,73,-65,-21,87,-82,-43,19,34,39,43
34,92,58,-63,-12,75,-97,-58,0,24,39,48
43,82,39,-63,2,61,-102,-63,-19,19,39,48
43,73,29,-58,7,51,-107,-63,-34,9,39,48
48,58,9,-53,19,34,-102,-63,-39,0,29,53
48,48,0,-48,24,24,-97,-58,-48,0,29,53
58,39,-19,-48,39,9,-92,-58,-68,-24,19,53
68,29,-39,-48,53,-4,-92,-58,-73,-34,14,53
78,43,-34,-61,56,4,-97,-58,-73,-34,9,53
87,48,-39,-68,63,4,-92,-58,-68,-34,4,53
68,39,-29,-53,48,4,-78,-48,-63,-29,4,58
39,29,-9,-34,24,9,-53,-39,-53,-29,0,39
9,4,-4,-7,7,0,-34,-29,-48,-29,-9,19
-4,-19,-14,12,4,-17,-14,-19,-43,-29,-19,4
-4,-19,-14,12,4,-17,-14,-19,-43,-39,-24,0
-4,-19,-14,12,4,-17,-14,-19,-48,-39,-29,-4
-4,-19,-14,12,4,-17,-14,-19,-53,-43,-34,-9
-4,-24,-19,14,7,-21,-9,-19,-58,-43,-39,-9
-4,-24,-19,14,7,-21,-9,-14,-58,-43,-39,-14
-4,-24,-19,14,7,-21,-4,-14,-58,-43,-39,-19
0,-24,-24,12,12,-24,-4,-14,-58,-43,-43,-19
4,-24,-29,9,17,-26,-4,-9,-58,-43,-43,-19
0,-24,-24,12,12,-24,-4,-9,-58,-43,-39,-14
0,-24,-24,12,12,-24,-9,-9,-58,-43,-34,-14
-9,-24,-14,17,2,-19,-9,-9,-63,-48,-19,0
-29,-39,-9,34,-9,-24,4,0,-58,-58,-53,-24
-63,-107,-43,85,-9,-75,63,9,-53,-102,-151,-107
-92,-141,-48,117,-21,-95,102,24,-34,-122,-214,-165
-136,-175,-39,156,-48,-107,156,29,24,-156,-258,-219
-117,-87,29,102,-73,-29,131,34,48,-78,-146,-161
-19,141,161,-61,-90,151,19,-39,29,48,107,29
146,419,273,-283,-63,346,-195,-126,-87,239,488,302
468,819,351,-644,58,585,-600,-219,-448,527,1117,736
795,1146,351,-971,222,749,-1000,-341,-790,761,1668,1161
1166,1522,356,-1344,405,939,-1459,-561,-1098,1107,2152,1625
1342,1512,170,-1427,585,841,-1668,-683,-1263,1044,2176,1825
1342,961,-380,-1151,861,290,-1473,-551,-1293,419,1546,1790
1195,297,-897,-746,1046,-300,-1156,-419,-1249,-161,732,1610
932,-204,-1137,-363,1034,-671,-766,-268,-1102,-585,58,1117
707,-458,-1166,-124,936,-812,-507,-156,-941,-756,-312,697
541,-414,-956,-63,749,-685,-361,-117,-727,-639,-317,468
366,-331,-697,-17,531,-514,-239,-107,-531,-473,-263,326
209,-248,-458,19,334,-353,-131,-87,-346,-317,-219,165
107,-175,-283,34,195,-229,-58,-43,-209,-209,-170,58
58,-131,-190,36,124,-161,-24,-9,-151,-156,-126,14
24,-107,-131,41,78,-119,4,9,-107,-112,-102,-4
4,-82,-87,39,46,-85,29,19,-58,-73,-92,-24
4,-53,-58,24,31,-56,43,29,-24,-39,-82,-34
-4,-43,-39,24,17,-41,48,34,-19,-39,-78,-39
-9,-39,-29,24,9,-34,48,39,-14,-39,-73,-43
-14,-34,-19,24,2,-26,53,43,-4,-39,-68,-43
-19,-29,-9,24,-4,-19,53,48,4,-29,-58,-48
-19,-29,-9,24,-4,-19,53,53,14,-24,-58,-48
-19,-29,-9,24,-4,-19,53,53,19,-19,-58,-43
-19,-19,0,19,-9,-9,53,53,24,-14,-58,-43
-14,-19,-4,17,-4,-12,53,48,24,-9,-58,-43
-14,-9,4,12,-9,-2,53,48,29,-4,-48,-43
-14,0,14,7,-14,7,53,48,34,0,-43,-43
-14,0,14,7,-14,7,53,48,43,4,-43,-43
-14,9,24,2,-19,17,48,48,53,4,-39,-39
-14,9,24,2,-19,17,48,48,53,9,-39,-39
-9,9,19,0,-14,14,48,48,53,14,-39,-39
-9,19,29,-4,-19,24,43,48,53,19,-39,-34
0,19,19,-9,-9,19,43,48,53,19,-39,-29
0,24,24,-12,-12,24,39,43,58,19,-39,-24
0,29,29,-14,-14,29,43,43,58,24,-39,-24
0,29,29,-14,-14,29,39,43,58,29,-34,-24
4,29,24,-17,-9,26,39,43,58,29,-34,-24
4,39,34,-21,-14,36,29,43,58,29,-29,-24
4,43,39,-24,-17,41,24,43,63,29,-29,-19
9,43,34,-26,-12,39,24,43,63,29,-29,-19
9,43,34,-26,-12,39,19,43,63,39,-24,-19
4,53,48,-29,-21,51,14,48,68,39,-14,-19
4,58,53,-31,-24,56,9,53,68,48,-9,-19
4,63,58,-34,-26,61,4,53,73,48,-4,-24
14,73,58,-43,-21,65,4,58,78,58,0,-24
14,78,63,-46,-24,70,4,63,87,63,4,-19
24,92,68,-58,-21,80,4,68,92,78,4,-14
24,97,73,-61,-24,85,0,68,102,87,4,-14
24,102,78,-63,-26,90,-4,73,107,97,9,-4
29,112,82,-70,-26,97,-9,78,122,102,14,-9
34,131,97,-82,-31,114,-14,87,136,122,29,0
43,151,107,-97,-31,129,-14,92,151,131,34,0
58,165,107,-112,-24,136,-14,102,165,151,43,4
73,185,112,-129,-19,148,-19,112,180,170,48,9
73,200,126,-136,-26,163,-24,126,204,190,63,19
82,234,151,-158,-34,192,-39,131,214,209,78,34
87,263,175,-175,-43,219,-43,136,234,234,87,53
97,278,180,-187,-41,229,-53,136,244,248,107,68
107,287,180,-197,-36,234,-58,136,253,263,117,82
122,312,190,-217,-34,251,-73,141,263,278,136,102
136,336,200,-236,-31,268,-78,146,273,292,151,122
141,346,204,-244,-31,275,-87,136,278,297,170,136
151,361,209,-256,-29,285,-87,131,283,302,180,156
156,370,214,-263,-29,292,-102,126,283,307,190,175
161,375,214,-268,-26,295,-102,122,283,307,190,190
165,390,224,-278,-29,307,-117,107,278,312,200,204
170,395,224,-283,-26,309,-126,92,273,312,209,219
170,390,219,-280,-24,305,-126,78,253,302,219,224
165,390,224,-278,-29,307,-126,63,234,287,229,229
161,375,214,-268,-26,295,-131,48,214,263,219,229
151,351,200,-251,-24,275,-136,34,185,239,214,229
136,331,195,-234,-29,263,-126,14,151,214,200,214
122,302,180,-212,-29,241,-122,0,136,185,180,195
112,268,156,-190,-21,212,-112,-4,112,156,165,175
102,234,131,-168,-14,183,-102,-14,87,131,141,156
87,214,126,-151,-19,170,-92,-24,58,112,131,131
82,195,112,-139,-14,153,-82,-24,43,87,117,117
68,165,97,-117,-14,131,-73,-29,29,63,92,112
58,126,68,-92,-4,97,-63,-34,14,48,82,102
43,117,73,-80,-14,95,-63,-39,0,34,63,82
29,92,63,-61,-17,78,-58,-39,-9,19,53,68
19,87,68,-53,-24,78,-53,-39,-19,14,39,53
19,68,48,-43,-14,58,-48,-39,-24,4,39,53
14,48,34,-31,-9,41,-39,-43,-34,-9,29,34
9,39,29,-24,-9,34,-34,-43,-34,-19,24,29
4,34,29,-19,-12,31,-29,-43,-39,-24,19,24
0,29,29,-14,-14,29,-24,-43,-43,-24,14,24
0,29,29,-14,-14,29,-24,-43,-43,-34,4,19
0,24,24,-12,-12,24,-24,-43,-43,-39,0,14
0,14,14,-7,-7,14,-24,-43,-43,-43,-4,14
-4,9,14,-2,-9,12,-24,-43,-48,-48,-9,14
-4,0,4,2,-4,2,-24,-39,-48,-53,-9,14
-4,-4,0,4,-2,-2,-24,-34,-48,-53,-9,9
-4,-9,-4,7,0,-7,-19,-34,-43,-53,-14,9
-4,-9,-4,7,0,-7,-19,-29,-43,-53,-19,9
-4,-9,-4,7,0,-7,-14,-29,-43,-53,-24,0
-9,-9,0,9,-4,-4,-9,-29,-39,-53,-24,0
-9,-9,0,9,-4,-4,-9,-24,-39,-58,-24,-4
-9,-9,0,9,-4,-4,-9,-19,-39,-58,-24,-9
-9,-9,0,9,-4,-4,-4,-19,-43,-58,-29,-9
-9,-9,0,9,-4,-4,0,-19,-43,-58,-29,-9
-14,-9,4,12,-9,-2,0,-19,-43,-53,-29,-9
-19,-14,4,17,-12,-4,4,-14,-43,-53,-29,-9
-19,-14,4,17,-12,-4,4,-14,-34,-48,-29,-14
-19,-14,4,17,-12,-4,4,-9,-29,-48,-24,-19
-19,-9,9,14,-14,0,4,-9,-29,-39,-29,-19
-24,-9,14,17,-19,2,9,-4,-24,-39,-34,-19
-24,-9,14,17,-19,2,9,-4,-14,-39,-34,-19
-24,-4,19,14,-21,7,9,-4,-9,-34,-29,-19
-29,0,29,14,-29,14,9,-4,-9,-34,-24,-19
-29,4,34,12,-31,19,9,0,-9,-24,-14,-19
-29,4,34,12,-31,19,14,0,-4,-24,-14,-14
-29,9,39,9,-34,24,14,0,-4,-19,-9,-24
-29,4,34,12,-31,19,9,0,-4,-19,-9,-24
-29,0,29,14,-29,14,9,0,-4,-19,-9,-19
-29,4,34,12,-31,19,9,4,-4,-19,-9,-14
-29,4,34,12,-31,19,9,4,-4,-19,-4,-9
-24,4,29,9,-26,17,9,4,-4,-14,-4,-9
-19,4,24,7,-21,14,9,4,0,-14,0,-9
-19,9,29,4,-24,19,9,4,0,-14,4,-9
-19,9,29,4,-24,19,9,4,-4,-9,4,-9
-19,0,19,9,-19,9,9,4,-14,-14,0,-4
-19,0,19,9,-19,9,9,4,-14,-14,0,0
-19,0,19,9,-19,9,9,4,-14,-14,0,0
-19,0,19,9,-19,9,9,4,-14,-14,0,-4
-19,0,19,9,-19,9,4,4,-14,-14,0,-4
-19,0,19,9,-19,9,4,4,-19,-24,0,-4
-19,-9,9,14,-14,0,4,4,-19,-24,0,-4
-19,-14,4,17,-12,-4,4,4,-24,-24,-4,-4
-19,-14,4,17,-12,-4,4,0,-24,-24,-9,-4
-19,-14,4,17,-12,-4,4,0,-24,-24,-9,-4
-19,-14,4,17,-12,-4,4,0,-24,-29,-9,-4
-19,-14,4,17,-12,-4,4,0,-24,-29,-9,-4
-19,-14,4,17,-12,-4,0,0,-24,-29,-9,-9
-19,-19,0,19,-9,-9,0,0,-29,-29,-4,-9
-19,-24,-4,21,-7,-14,0,0,-29,-29,-4,-4
-19,-29,-9,24,-4,-19,0,0,-29,-29,-9,-4
-19,-29,-9,24,-4,-19,0,0,-29,-34,-9,-4
-19,-29,-9,24,-4,-19,0,0,-29,-34,-9,-4
-19,-34,-14,26,-2,-24,0,-4,-39,-34,-9,-9
-14,-34,-19,24,2,-26,0,-9,-43,-34,-9,-9
-9,-34,-24,21,7,-29,0,-9,-43,-34,-14,-4
-9,-29,-19,19,4,-24,0,-9,-43,-39,-14,-4
-9,-34,-24,21,7,-29,0,-9,-39,-39,-14,-4
-9,-39,-29,24,9,-34,0,-9,-39,-39,-19,-9
-9,-39,-29,24,9,-34,0,-9,-39,-39,-19,-4
-9,-39,-29,24,9,-34,0,-9,-39,-39,-19,0
-9,-39,-29,24,9,-34,0,-9,-39,-39,-19,0
-9,-39,-29,24,9,-34,0,-9,-39,-39,-19,0
-9,-39,-29,24,9,-34,0,-9,-39,-39,-19,0
-9,-34,-24,21,7,-29,0,-9,-39,-39,-19,-4
-14,-39,-24,26,4,-31,0,-9,-39,-39,-19,-4
-14,-43,-29,29,7,-36,0,-9,-39,-39,-19,-4
-14,-43,-29,29,7,-36,-4,-9,-43,-39,-19,-9
-14,-43,-29,29,7,-36,-9,-9,-43,-34,-19,-9
-14,-34,-19,24,2,-26,-4,-4,-43,-24,-19,-9
-14,-19,-4,17,-4,-12,-4,0,-39,-19,-19,-9
-4,-4,0,4,-2,-2,4,4,-24,-9,-14,-4
0,14,14,-7,-7,14,9,4,-14,-4,-4,0
4,29,24,-17,-9,26,9,14,0,9,4,9
9,34,24,-21,-7,29,9,14,9,9,14,14
19,43,24,-31,-2,34,19,29,19,19,19,19
24,58,34,-41,-4,46,19,34,19,24,24,29
24,68,43,-46,-9,56,-4,9,29,24,34,34
24,73,48,-48,-12,61,-24,-9,29,24,39,43
24,73,48,-48,-12,61,-63,-24,19,24,39,43
34,63,29,-48,2,46,-87,-39,0,14,39,48
43,58,14,-51,14,36,-92,-43,-19,9,39,48
43,53,9,-48,17,31,-97,-43,-34,0,39,48
48,39,-9,-43,29,14,-92,-43,-39,-14,24,48
48,29,-19,-39,34,4,-87,-39,-48,-19,19,43
53,14,-39,-34,46,-12,-82,-39,-73,-39,9,43
58,0,-58,-29,58,-29,-82,-39,-82,-43,4,43
68,9,-58,-39,63,-24,-87,-39,-82,-43,4,48
78,9,-68,-43,73,-29,-82,-39,-78,-43,4,53
58,9,-48,-34,53,-19,-68,-29,-78,-39,4,58
29,9,-19,-19,24,-4,-43,-19,-73,-39,0,39
0,-9,-9,4,4,-9,-24,-9,-68,-39,-9,19
-14,-29,-14,21,0,-21,-4,0,-63,-39,-19,4
-14,-34,-19,24,2,-26,-4,0,-63,-48,-24,-4
-14,-39,-24,26,4,-31,-4,0,-68,-48,-29,-14
-19,-43,-24,31,2,-34,-9,0,-68,-58,-34,-19
-24,-53,-29,39,2,-41,-9,0,-68,-63,-39,-19
-24,-58,-34,41,4,-46,-14,4,-68,-63,-39,-19
-24,-63,-39,43,7,-51,-14,4,-68,-63,-39,-19
-24,-63,-39,43,7,-51,-14,4,-68,-63,-43,-19
-24,-63,-39,43,7,-51,-14,9,-68,-63,-43,-19
-24,-63,-39,43,7,-51,-14,9,-68,-63,-43,-9
-19,-63,-43,41,12,-53,-19,9,-68,-63,-43,-4
-19,-53,-34,36,7,-43,-19,9,-68,-58,-19,9
-29,-58,-29,43,0,-43,-4,19,-58,-58,-43,-14
-68,-122,-53,95,-7,-87,48,24,-53,-92,-136,-107
-102,-151,-48,126,-26,-100,82,34,-34,-102,-195,-175
-161,-224,-63,192,-48,-143,156,48,34,-156,-273,-248
-156,-175,-19,165,-68,-97,151,63,68,-97,-195,-209
-68,34,102,17,-85,68,82,24,87,4,9,-43
87,292,204,-190,-58,248,-87,-29,9,170,341,204
400,653,253,-527,73,453,-483,-102,-326,414,907,610
717,941,224,-829,246,583,-873,-204,-644,605,1395,1005
1156,1390,234,-1273,461,812,-1376,-439,-995,995,1971,1517
1400,1454,53,-1427,673,753,-1629,-575,-1205,976,2088,1766
1405,961,-444,-1183,924,258,-1522,-527,-1283,380,1517,1756
1263,356,-907,-810,1085,-275,-1293,-478,-1288,-170,761,1600
980,-175,-1156,-402,1068,-666,-863,-307,-1156,-605,68,1117
736,-458,-1195,-139,966,-827,-566,-175,-1010,-785,-322,707
575,-439,-1015,-68,795,-727,-419,-126,-771,-683,-346,463
405,-380,-785,-12,595,-583,-297,-107,-551,-531,-312,307
234,-292,-527,29,380,-409,-175,-73,-380,-361,-253,156
117,-214,-331,48,224,-273,-87,-14,-258,-239,-190,58
58,-180,-239,61,148,-209,-58,9,-170,-185,-146,9
14,-165,-180,75,97,-173,-34,19,-97,-141,-122,-14
-9,-131,-122,70,56,-126,0,43,-63,-102,-107,-34
-14,-92,-78,53,31,-85,24,68,-43,-68,-92,-43
-19,-87,-68,53,24,-78,29,68,-34,-63,-92,-43
-19,-87,-68,53,24,-78,29,68,-24,-58,-92,-43
-24,-82,-58,53,17,-70,34,68,-14,-58,-87,-43
-29,-78,-48,53,9,-63,34,68,-4,-48,-78,-48
-29,-73,-43,51,7,-58,34,73,4,-43,-78,-53
-29,-68,-39,48,4,-53,34,73,9,-39,-78,-53
-29,-58,-29,43,0,-43,34,78,14,-34,-78,-53
-24,-58,-34,41,4,-46,34,78,14,-29,-78,-53
-24,-53,-29,39,2,-41,34,78,19,-24,-68,-53
-24,-48,-24,36,0,-36,34,78,24,-19,-63,-53
-24,-48,-24,36,0,-36,34,78,29,-14,-63,-53
-24,-39,-14,31,-4,-26,29,78,34,-14,-58,-48
-24,-39,-14,31,-4,-26,29,78,34,-14,-58,-48
-19,-39,-19,29,0,-29,29,78,34,-14,-58,-48
-19,-29,-9,24,-4,-19,29,78,34,-9,-58,-48
-9,-29,-19,19,4,-24,34,78,34,-9,-58,-48
-9,-24,-14,17,2,-19,24,73,39,-9,-63,-39
-9,-19,-9,14,0,-14,24,73,39,-4,-68,-34
-4,-24,-19,14,7,-21,19,73,39,0,-63,-34
4,-29,-34,12,19,-31,19,73,39,0,-63,-34
4,-19,-24,7,14,-21,14,73,34,0,-58,-34
4,-14,-19,4,12,-17,14,73,34,0,-58,-29
9,-19,-29,4,19,-24,19,73,39,0,-58,-39
9,-24,-34,7,21,-29,19,73,43,9,-53,-48
9,-14,-24,2,17,-19,14,78,48,9,-48,-48
14,-9,-24,-2,19,-17,9,82,48,19,-48,-48
14,0,-14,-7,14,-7,0,82,48,19,-43,-43
24,14,-9,-19,17,2,-4,87,48,29,-39,-34
24,19,-4,-21,14,7,-9,92,58,29,-34,-29
34,34,0,-34,17,17,-14,97,63,39,-34,-24
39,39,0,-39,19,19,-19,102,73,43,-29,-24
43,43,0,-43,21,21,-24,112,78,48,-19,-14
48,43,-4,-46,26,19,-24,117,87,53,-19,-19
53,53,0,-53,26,26,-24,126,97,73,-9,-9
63,87,24,-75,19,56,-29,136,112,82,-4,-9
78,117,39,-97,19,78,-34,151,126,102,4,-4
92,126,34,-109,29,80,-39,161,131,117,14,-4
92,131,39,-112,26,85,-43,175,146,131,34,0
107,165,58,-136,24,112,-58,180,156,151,48,14
117,195,78,-156,19,136,-63,185,175,175,58,34
131,214,82,-173,24,148,-73,190,185,190,78,53
146,229,82,-187,31,156,-78,195,195,204,87,73
156,253,97,-204,29,175,-92,195,204,219,102,92
165,278,112,-222,26,195,-97,195,214,234,112,112
170,287,117,-229,26,202,-107,190,219,244,126,122
180,302,122,-241,29,212,-107,190,224,253,131,136
190,312,122,-251,34,217,-122,185,224,258,146,151
200,317,117,-258,41,217,-122,180,224,258,151,161
200,331,131,-265,34,231,-131,165,219,258,156,170
200,336,136,-268,31,236,-136,151,214,253,161,180
200,336,136,-268,31,236,-136,136,200,239,161,185
195,341,146,-268,24,244,-136,122,185,219,161,190
190,317,126,-253,31,222,-136,107,170,195,156,195
180,283,102,-231,39,192,-136,92,146,170,156,200
165,263,97,-214,34,180,-131,73,112,151,146,185
151,234,82,-192,34,158,-131,58,97,126,131,165
136,209,73,-173,31,141,-122,48,78,107,117,146
122,185,63,-153,29,124,-112,34,58,92,92,126
107,165,58,-136,24,112,-102,14,29,73,82,112
102,146,43,-124,29,95,-92,4,14,48,68,107
92,117,24,-104,34,70,-82,0,0,24,48,107
87,78,-9,-82,48,34,-73,-4,-14,9,43,102
78,58,-19,-68,48,19,-68,-9,-29,-4,24,82
68,24,-43,-46,56,-9,-58,-9,-39,-19,14,68
53,29,-24,-41,39,2,-53,-14,-48,-24,-4,43
48,19,-29,-34,39,-4,-48,-19,-53,-34,-9,34
43,4,-39,-24,41,-17,-39,-24,-63,-48,-19,19
39,0,-39,-19,39,-19,-34,-24,-63,-58,-24,19
34,-9,-43,-12,39,-26,-34,-24,-68,-63,-29,9
29,-19,-48,-4,39,-34,-34,-24,-73,-63,-34,4
24,-19,-43,-2,34,-31,-34,-24,-73,-73,-43,0
19,-24,-43,2,31,-34,-34,-24,-73,-78,-48,-4
19,-34,-53,7,36,-43,-29,-24,-78,-78,-58,-4
14,-39,-53,12,34,-46,-24,-24,-87,-78,-68,-4
14,-48,-63,17,39,-56,-19,-24,-87,-87,-68,0
14,-53,-68,19,41,-61,-14,-24,-87,-92,-68,0
9,-58,-68,24,39,-63,-9,-24,-82,-92,-68,0
4,-58,-63,26,34,-61,-9,-19,-82,-92,-68,0
4,-53,-58,24,31,-56,-9,-19,-82,-87,-73,-9
0,-48,-48,24,24,-48,-9,-19,-78,-82,-73,-9
0,-48,-48,24,24,-48,-9,-19,-73,-82,-73,-19
0,-48,-48,24,24,-48,-9,-19,-68,-78,-73,-29
-4,-48,-43,26,19,-46,-9,-19,-68,-78,-78,-29
-9,-48,-39,29,14,-43,-9,-19,-63,-78,-78,-29
-9,-43,-34,26,12,-39,-9,-19,-63,-73,-73,-24
-9,-43,-34,26,12,-39,-4,-14,-63,-73,-68,-19
-4,-43,-39,24,17,-41,-4,-14,-58,-68,-68,-14
0,-43,-43,21,21,-43,-4,-9,-58,-68,-63,-9
0,-43,-43,21,21,-43,0,-9,-58,-58,-63,-9
-4,-48,-43,26,19,-46,9,-4,-53,-58,-63,-9
-4,-48,-43,26,19,-46,9,-4,-43,-58,-63,-9
-4,-43,-39,24,17,-41,9,-4,-39,-53,-58,-9
-4,-39,-34,21,14,-36,9,-4,-39,-53,-63,-9
0,-34,-34,17,17,-34,9,0,-39,-43,-63,-9
0,-34,-34,17,17,-34,14,4,-34,-43,-63,-9
0,-29,-29,14,14,-29,14,9,-34,-39,-58,-24
0,-29,-29,14,14,-29,9,9,-34,-39,-53,-24
0,-29,-29,14,14,-29,9,9,-34,-39,-48,-19
0,-24,-24,12,12,-24,9,14,-34,-43,-48,-14
0,-24,-24,12,12,-24,9,14,-34,-48,-43,-9
0,-24,-24,12,12,-24,9,14,-39,-43,-43,-14
0,-24,-24,12,12,-24,9,14,-39,-43,-39,-19
0,-24,-24,12,12,-24,9,14,-39,-48,-43,-29
0,-29,-29,14,14,-29,9,14,-43,-48,-53,-39
0,-34,-34,17,17,-34,9,9,-53,-53,-58,-48
0,-29,-29,14,14,-29,9,4,-53,-53,-58,-58
4,-29,-34,12,19,-31,9,4,-53,-53,-53,-39
9,-29,-39,9,24,-34,9,4,-53,-53,-48,-24
9,-34,-43,12,26,-39,4,4,-48,-53,-48,-14
9,-39,-48,14,29,-43,4,4,-48,-63,-48,-4
4,-43,-48,19,26,-46,4,4,-48,-63,-43,-4
0,-43,-43,21,21,-43,4,4,-53,-63,-43,-4
0,-43,-43,21,21,-43,4,-4,-58,-63,-48,-14
0,-43,-43,21,21,-43,4,-9,-63,-63,-48,-24
0,-43,-43,21,21,-43,4,-9,-63,-68,-48,-29
0,-43,-43,21,21,-43,4,-9,-63,-68,-48,-34
0,-43,-43,21,21,-43,0,-4,-63,-68,-53,-39
0,-48,-48,24,24,-48,0,0,-68,-68,-53,-39
0,-53,-53,26,26,-53,0,0,-68,-68,-53,-24
0,-58,-58,29,29,-58,0,0,-68,-68,-58,-14
0,-58,-58,29,29,-58,0,0,-63,-73,-58,-14
0,-63,-63,31,31,-63,0,0,-63,-73,-58,-19
0,-63,-63,31,31,-63,0,0,-58,-68,-48,-24
0,-68,-68,34,34,-68,0,0,-58,-68,-39,-29
0,-53,-53,26,26,-53,0,-4,-58,-68,-39,-29
0,-39,-39,19,19,-39,0,-9,-58,-68,-39,-29
0,-53,-53,26,26,-53,-4,-9,-58,-68,-43,-29
0,-58,-58,29,29,-58,-4,-9,-58,-68,-43,-24
0,-68,-68,34,34,-68,-9,-9,-58,-68,-48,-24
0,-63,-63,31,31,-63,-9,-9,-58,-68,-48,-24
0,-63,-63,31,31,-63,-4,-9,-58,-68,-48,-24
4,-63,-68,29,36,-65,0,-9,-58,-68,-48,-24
4,-63,-68,29,36,-65,0,-9,-58,-68,-43,-19
4,-63,-68,29,36,-65,0,-9,-53,-63,-39,-9
4,-43,-48,19,26,-46,4,-9,-48,-53,-24,-9
4,-19,-24,7,14,-21,4,-9,-39,-48,-9,-9
9,-19,-29,4,19,-24,19,0,-24,-39,-14,-9
9,-14,-24,2,17,-19,29,4,-14,-34,-14,-9
14,0,-14,-7,14,-7,29,14,-4,-19,-9,0
19,4,-14,-12,17,-4,29,14,0,-19,-4,4
29,14,-14,-21,21,0,24,9,14,-9,0,0
34,29,-4,-31,19,12,9,-4,19,-4,4,0
34,34,0,-34,17,17,-24,-29,19,-4,14,4
34,34,0,-34,17,17,-53,-48,9,-4,19,14
34,34,0,-34,17,17,-78,-53,0,-4,19,34
43,24,-19,-34,31,2,-87,-58,-19,-14,19,58
53,19,-34,-36,43,-7,-87,-58,-34,-19,19,58
53,14,-39,-34,46,-12,-87,-53,-43,-29,19,58
58,-4,-63,-26,61,-34,-78,-48,-48,-39,4,48
58,-19,-78,-19,68,-48,-68,-39,-58,-39,0,34
73,-29,-102,-21,87,-65,-63,-39,-78,-58,-9,34
87,-39,-126,-24,107,-82,-63,-39,-82,-63,-14,34
73,-34,-107,-19,90,-70,-63,-39,-82,-63,-14,43
58,-39,-97,-9,78,-68,-53,-39,-78,-63,-14,53
39,-48,-87,4,63,-68,-39,-29,-73,-58,-14,39
9,-58,-68,24,39,-63,-14,-19,-63,-58,-19,0
-9,-78,-68,43,29,-73,0,-9,-63,-58,-29,-19
-14,-97,-82,56,34,-90,14,0,-63,-58,-39,-34
-9,-97,-87,53,39,-92,14,0,-63,-68,-43,-29
-4,-97,-92,51,43,-95,14,0,-68,-68,-48,-24
-4,-97,-92,51,43,-95,14,0,-68,-73,-48,-24
-4,-102,-97,53,46,-100,19,0,-68,-73,-48,-19
-4,-107,-102,56,48,-104,19,4,-68,-73,-48,-9
-4,-112,-107,58,51,-109,24,4,-68,-73,-48,0
-4,-112,-107,58,51,-109,24,4,-68,-73,-53,-9
-4,-112,-107,58,51,-109,24,9,-68,-73,-53,-19
-9,-112,-102,61,46,-107,29,9,-63,-73,-53,-24
-9,-112,-102,61,46,-107,29,9,-58,-73,-53,-34
-19,-131,-112,75,46,-122,39,9,-53,-73,-73,-43
-39,-165,-126,102,43,-146,63,19,-39,-78,-141,-92
-58,-190,-131,124,36,-161,97,24,-34,-92,-165,-131
-73,-180,-107,126,17,-143,112,34,-14,-82,-156,-146
-39,-82,-43,61,2,-63,87,24,4,-9,-39,-92
58,136,78,-97,-9,107,-14,14,-9,175,234,73
253,448,195,-351,29,322,-244,-34,-117,405,624,341
517,810,292,-663,112,551,-575,-97,-322,697,1141,692
819,1161,341,-990,239,751,-966,-200,-683,976,1664,1137
1127,1439,312,-1283,407,875,-1351,-331,-1024,1200,2108,1571
1307,1420,112,-1363,597,766,-1537,-434,-1234,1112,2117,1834
1293,1015,-278,-1154,785,368,-1473,-439,-1302,614,1668,1834
1146,483,-663,-814,905,-90,-1176,-317,-1239,48,1083,1639
854,-161,-1015,-346,934,-588,-756,-195,-1102,-473,312,1298
653,-409,-1063,-122,858,-736,-483,-112,-922,-658,-87,912
492,-409,-902,-41,697,-656,-341,-68,-727,-590,-185,600
346,-366,-712,9,529,-539,-214,-39,-522,-488,-209,380
190,-283,-473,46,331,-378,-112,-39,-336,-336,-175,248
102,-248,-351,73,226,-300,-34,-19,-214,-229,-161,107
68,-224,-292,78,180,-258,9,24,-141,-170,-141,19
29,-200,-229,85,129,-214,39,43,-92,-131,-112,-4
4,-195,-200,95,102,-197,63,48,-58,-102,-102,-4
-4,-170,-165,87,80,-168,82,58,-24,-87,-92,-24
4,-141,-146,68,75,-143,92,68,-4,-78,-82,-34
0,-156,-156,78,78,-156,97,68,-4,-78,-92,-39
0,-175,-175,87,87,-175,97,68,-4,-78,-102,-43
-4,-156,-151,80,73,-153,102,68,4,-73,-97,-48
-9,-136,-126,73,58,-131,102,68,14,-58,-87,-58
-9,-131,-122,70,56,-126,102,73,24,-53,-87,-58
-9,-126,-117,68,53,-122,102,73,29,-48,-87,-53
-9,-122,-112,65,51,-117,102,78,34,-58,-87,-43
-4,-126,-122,65,58,-124,102,78,34,-68,-87,-34
0,-122,-122,61,61,-122,102,78,34,-48,-78,-34
4,-117,-122,56,63,-119,102,78,34,-29,-73,-34
4,-117,-122,56,63,-119,97,78,39,-24,-78,-53
4,-107,-112,51,58,-109,87,78,43,-24,-78,-68
4,-107,-112,51,58,-109,87,78,43,-24,-78,-68
9,-107,-117,48,63,-112,87,78,43,-24,-78,-68
9,-102,-112,46,61,-107,87,78,43,-19,-78,-58
19,-107,-126,43,73,-117,92,78,43,-19,-78,-48
19,-102,-122,41,70,-112,82,73,48,-24,-78,-39
19,-97,-117,39,68,-107,82,73,48,-24,-78,-34
19,-97,-117,39,68,-107,78,73,48,-19,-73,-34
24,-97,-122,36,73,-109,78,73,48,-19,-73,-34
24,-82,-107,29,65,-95,73,73,43,-14,-68,-34
24,-73,-97,24,61,-85,73,73,43,-9,-68,-29
29,-63,-92,17,61,-78,73,73,48,-9,-68,-39
29,-53,-82,12,56,-68,68,73,53,0,-63,-48
29,-53,-82,12,56,-68,63,78,58,0,-68,-48
34,-58,-92,12,63,-75,58,82,58,9,-78,-48
34,-53,-87,9,61,-70,53,82,63,9,-73,-39
43,-43,-87,0,65,-65,53,87,68,19,-68,-24
43,-39,-82,-2,63,-61,48,92,78,24,-53,-9
53,-24,-78,-14,65,-51,43,97,82,39,-43,4
58,-9,-68,-24,63,-39,39,97,97,53,-39,-4
63,4,-58,-34,61,-26,34,102,107,68,-29,-4
68,14,-53,-41,61,-19,24,107,122,78,-24,-14
73,34,-39,-53,56,-2,14,117,136,102,-9,-9
78,53,-24,-65,51,14,9,122,151,117,-4,0
87,68,-19,-78,53,24,4,131,165,141,4,14
102,102,0,-102,51,51,0,131,180,175,24,19
102,131,29,-117,36,80,-4,136,204,209,53,29
117,165,48,-141,34,107,-19,141,214,219,58,29
126,195,68,-161,29,131,-24,146,234,234,58,34
136,209,73,-173,31,141,-34,146,244,248,78,68
146,219,73,-183,36,146,-39,146,253,263,87,102
156,234,78,-195,39,156,-53,146,258,273,107,126
165,248,82,-207,41,165,-58,146,263,283,122,151
170,258,87,-214,41,173,-68,136,263,287,136,161
180,273,92,-226,43,183,-68,131,263,292,141,175
180,283,102,-231,39,192,-82,122,263,292,151,185
180,287,107,-234,36,197,-82,112,263,287,151,190
180,297,117,-239,31,207,-92,97,248,278,151,190
180,297,117,-239,31,207,-97,82,234,263,151,190
175,278,102,-226,36,190,-97,68,209,239,146,185
165,263,97,-214,34,180,-97,53,185,209,141,180
161,234,73,-197,43,153,-92,43,165,185,131,180
151,195,43,-173,53,119,-87,34,136,161,126,180
136,175,39,-156,48,107,-73,19,102,136,112,175
122,146,24,-134,48,85,-63,9,87,107,92,165
107,117,9,-112,48,63,-53,4,63,82,78,146
92,87,-4,-90,48,41,-43,-4,39,63,53,126
78,68,-9,-73,43,29,-34,-14,9,43,43,102
73,48,-24,-61,48,12,-24,-14,-4,19,29,87
63,24,-39,-43,51,-7,-14,-19,-14,-4,9,82
58,-9,-68,-24,63,-39,-4,-24,-24,-19,4,73
48,-19,-68,-14,58,-43,-4,-24,-34,-29,-14,53
39,-43,-82,2,61,-63,0,-19,-39,-39,-24,39
29,-48,-78,9,53,-63,4,-19,-48,-43,-43,24
29,-68,-97,19,63,-82,9,-19,-53,-53,-48,24
24,-82,-107,29,65,-95,24,-24,-63,-68,-58,9
19,-87,-107,34,63,-97,34,-24,-63,-78,-63,9
14,-92,-107,39,61,-100,34,-24,-68,-82,-68,9
9,-97,-107,43,58,-102,34,-24,-73,-82,-73,14
9,-97,-107,43,58,-102,34,-24,-73,-92,-78,9
9,-102,-112,46,61,-107,34,-24,-73,-97,-78,4
9,-107,-117,48,63,-112,39,-24,-68,-97,-82,-4
4,-107,-112,51,58,-109,43,-24,-68,-97,-87,-14
0,-112,-112,56,56,-112,39,-24,-68,-97,-87,-14
-4,-112,-107,58,51,-109,34,-24,-68,-92,-87,-19
-4,-112,-107,58,51,-109,39,-29,-63,-87,-87,-14
-4,-107,-102,56,48,-104,39,-29,-63,-82,-87,-9
-4,-102,-97,53,46,-100,39,-29,-63,-82,-92,-19
-9,-97,-87,53,39,-92,39,-29,-58,-82,-92,-19
-4,-92,-87,48,41,-90,34,-29,-58,-82,-87,-19
0,-87,-87,43,43,-87,29,-29,-58,-78,-82,-19
0,-87,-87,43,43,-87,29,-29,-58,-73,-87,-19
0,-87,-87,43,43,-87,29,-29,-53,-68,-87,-19
0,-82,-82,41,41,-82,29,-29,-53,-63,-87,-19
0,-82,-82,41,41,-82,34,-24,-53,-63,-87,-19
0,-78,-78,39,39,-78,34,-24,-43,-63,-82,-14
0,-73,-73,36,36,-73,34,-19,-39,-68,-73,-9
4,-68,-73,31,39,-70,29,-19,-43,-58,-73,-9
4,-68,-73,31,39,-70,29,-14,-43,-58,-73,-9
4,-68,-73,31,39,-70,29,-14,-39,-58,-73,-9
4,-63,-68,29,36,-65,29,-14,-39,-53,-68,-9
4,-63,-68,29,36,-65,29,-14,-39,-53,-68,-9
9,-63,-73,26,41,-68,29,-9,-39,-43,-63,-9
9,-63,-73,26,41,-68,29,-9,-34,-43,-63,-4
9,-58,-68,24,39,-63,24,-9,-34,-39,-58,-14
4,-58,-63,26,34,-61,19,-9,-34,-39,-58,-14
0,-58,-58,29,29,-58,19,-9,-34,-39,-58,-9
0,-58,-58,29,29,-58,19,-4,-34,-39,-58,-9
0,-63,-63,31,31,-63,19,-4,-34,-39,-53,-9
0,-63,-63,31,31,-63,19,-4,-39,-39,-58,-9
0,-63,-63,31,31,-63,19,-4,-39,-43,-58,-9
0,-63,-63,31,31,-63,14,-4,-39,-48,-58,-9
0,-68,-68,34,34,-68,9,-4,-43,-48,-63,-9
0,-78,-78,39,39,-78,9,-9,-53,-53,-68,-14
0,-78,-78,39,39,-78,9,-14,-53,-53,-68,-19
0,-73,-73,36,36,-73,9,-14,-53,-53,-68,-19
0,-68,-68,34,34,-68,9,-14,-53,-53,-68,-24
0,-68,-68,34,34,-68,4,-14,-48,-53,-68,-24
0,-68,-68,34,34,-68,4,-14,-48,-63,-68,-24
0,-78,-78,39,39,-78,4,-9,-48,-63,-58,-14
0,-82,-82,41,41,-82,4,-4,-53,-63,-53,-4
0,-82,-82,41,41,-82,4,-9,-53,-63,-58,-4
0,-82,-82,41,41,-82,4,-9,-53,-63,-58,-4
0,-82,-82,41,41,-82,0,-14,-53,-68,-63,-4
0,-82,-82,41,41,-82,-4,-19,-53,-68,-68,-4
0,-78,-78,39,39,-78,-9,-19,-53,-68,-68,-14
0,-78,-78,39,39,-78,-9,-19,-58,-68,-63,-19
-4,-78,-73,41,34,-75,-9,-19,-58,-68,-58,-19
-9,-78,-68,43,29,-73,-9,-19,-58,-68,-58,-19
-9,-78,-68,43,29,-73,-9,-19,-58,-68,-58,-19
-9,-78,-68,43,29,-73,-9,-19,-58,-68,-58,-19
-4,-78,-73,41,34,-75,-9,-19,-58,-68,-58,-19
0,-78,-78,39,39,-78,-9,-19,-58,-68,-58,-14
0,-78,-78,39,39,-78,-9,-19,-58,-68,-58,-14
0,-73,-73,36,36,-73,-9,-19,-58,-68,-58,-14
-4,-73,-68,39,31,-70,-9,-19,-58,-68,-58,-14
-4,-73,-68,39,31,-70,-9,-19,-58,-68,-58,-14
-4,-73,-68,39,31,-70,-9,-19,-53,-68,-53,-14
-4,-73,-68,39,31,-70,-9,-19,-43,-63,-48,-9
-4,-58,-53,31,24,-56,-4,-19,-39,-53,-43,-9
-4,-39,-34,21,14,-36,-4,-19,-29,-48,-39,-9
0,-29,-29,14,14,-29,4,-14,-14,-39,-34,-4
0,-14,-14,7,7,-14,9,-14,-4,-34,-24,0
4,0,-4,-2,4,-2,4,-4,4,-19,-19,9
9,4,-4,-7,7,0,0,-4,9,-19,-14,14
14,9,-4,-12,9,2,0,-9,19,-9,-9,14
14,19,4,-17,4,12,-9,-24,19,-4,-4,19
14,19,4,-17,4,12,-43,-48,19,-9,-4,24
14,14,0,-14,7,7,-73,-68,9,-14,-9,34
14,14,0,-14,7,7,-92,-73,0,-14,-9,34
24,4,-19,-14,21,-7,-97,-78,-19,-24,-9,39
34,4,-29,-19,31,-12,-97,-78,-34,-24,-4,43
34,4,-29,-19,31,-12,-97,-73,-43,-29,0,48
43,-9,-53,-17,48,-31,-92,-68,-48,-39,-9,53
48,-19,-68,-14,58,-43,-87,-58,-58,-39,-9,53
53,-29,-82,-12,68,-56,-82,-58,-73,-58,-19,53
58,-39,-97,-9,78,-68,-82,-58,-73,-63,-24,53
48,-34,-82,-7,65,-58,-78,-58,-73,-63,-29,48
39,-39,-78,0,58,-58,-63,-58,-68,-63,-34,43
19,-48,-68,14,43,-58,-48,-48,-63,-58,-34,43
-9,-58,-48,34,19,-53,-24,-39,-53,-58,-39,19
-24,-73,-48,48,12,-61,-9,-29,-48,-58,-43,4
-24,-87,-63,56,19,-75,4,-19,-43,-58,-48,-4
-24,-87,-63,56,19,-75,4,-19,-43,-68,-53,-4
-24,-87,-63,56,19,-75,4,-19,-48,-68,-58,-4
-24,-87,-63,56,19,-75,4,-19,-48,-73,-63,-9
-24,-92,-68,58,21,-80,9,-19,-48,-73,-68,-9
-24,-97,-73,61,24,-85,9,-14,-48,-73,-68,-14
-24,-102,-78,63,26,-90,14,-14,-48,-73,-68,-19
-24,-102,-78,63,26,-90,14,-14,-48,-73,-73,-19
-24,-102,-78,63,26,-90,14,-9,-48,-73,-73,-19
-29,-102,-73,65,21,-87,19,-4,-43,-73,-73,-19
-29,-102,-73,65,21,-87,19,0,-39,-73,-73,-24
-48,-126,-78,87,14,-102,29,0,-39,-87,-92,-43
-78,-165,-87,122,4,-126,53,9,-29,-107,-161,-102
-87,-180,-92,134,2,-136,87,14,-24,-117,-185,-131
-92,-161,-68,126,-12,-114,102,24,-4,-102,-175,-136
-48,-43,4,46,-26,-19,48,0,-19,-9,-24,-58
58,195,136,-126,-39,165,-82,-24,-68,195,283,131
258,527,268,-392,-4,397,-341,-102,-224,434,717,439
527,907,380,-717,73,644,-702,-195,-478,736,1278,829
795,1239,444,-1017,175,841,-1058,-297,-790,1015,1771,1215
1068,1498,429,-1283,319,963,-1410,-429,-1083,1239,2186,1590
1210,1415,204,-1312,502,810,-1527,-502,-1229,1112,2113,1830
1156,946,-209,-1051,683,368,-1395,-478,-1234,575,1581,1805
1039,478,-561,-758,800,-41,-1127,-346,-1161,58,1039,1605
775,-102,-878,-336,827,-490,-736,-214,-1015,-414,312,1259
580,-356,-936,-112,758,-646,-468,-136,-829,-605,-68,893
424,-361,-785,-31,605,-573,-331,-97,-629,-541,-146,600
287,-331,-619,21,453,-475,-214,-63,-453,-439,-185,380
141,-263,-405,61,273,-334,-122,-58,-297,-287,-165,248
63,-209,-273,73,168,-241,-53,-39,-175,-195,-151,112
39,-165,-204,63,122,-185,-19,4,-102,-151,-131,29
0,-141,-141,70,70,-141,9,29,-58,-112,-112,-4
-24,-136,-112,80,43,-124,34,39,-29,-82,-112,-14
-39,-126,-87,82,24,-107,48,43,0,-68,-102,-29
-34,-112,-78,73,21,-95,53,48,14,-58,-92,-34
-39,-107,-68,73,14,-87,58,48,19,-58,-97,-34
-39,-107,-68,73,14,-87,58,48,24,-58,-102,-34
-43,-102,-58,73,7,-80,58,43,34,-58,-97,-34
-48,-97,-48,73,0,-73,53,39,43,-48,-87,-39
-48,-92,-43,70,-2,-68,53,43,53,-43,-87,-39
-48,-87,-39,68,-4,-63,53,43,58,-39,-87,-34
-48,-78,-29,63,-9,-53,53,48,63,-34,-87,-34
-43,-78,-34,61,-4,-56,53,48,63,-29,-87,-34
-43,-73,-29,58,-7,-51,53,48,68,-24,-78,-34
-43,-68,-24,56,-9,-46,53,48,73,-19,-73,-34
-43,-68,-24,56,-9,-46,53,48,78,-9,-73,-34
-43,-58,-14,51,-14,-36,48,48,82,-4,-68,-29
-43,-58,-14,51,-14,-36,48,43,82,-4,-68,-29
-39,-58,-19,48,-9,-39,48,39,82,-4,-68,-29
-39,-48,-9,43,-14,-29,43,39,82,0,-68,-29
-29,-48,-19,39,-4,-34,43,39,82,0,-68,-29
-24,-39,-14,31,-4,-26,34,34,87,-4,-68,-24
-19,-29,-9,24,-4,-19,34,34,87,-4,-68,-24
-19,-29,-9,24,-4,-19,29,34,87,0,-63,-24
-14,-29,-14,21,0,-21,29,34,87,0,-63,-24
-14,-19,-4,17,-4,-12,19,39,87,4,-58,-24
-14,-14,0,14,-7,-7,14,43,92,9,-58,-19
-9,-14,-4,12,-2,-9,14,43,97,9,-58,-19
-9,-14,-4,12,-2,-9,9,43,102,19,-53,-19
-9,-4,4,7,-7,0,4,43,107,19,-48,-19
-4,0,4,2,-4,2,0,43,107,29,-48,-19
-4,4,9,0,-7,7,-4,43,112,29,-43,-19
4,14,9,-9,-2,12,-4,48,117,39,-39,-14
4,24,19,-14,-7,21,-9,53,126,48,-34,-9
14,43,29,-29,-7,36,-14,58,131,68,-34,-4
19,53,34,-36,-7,43,-19,58,146,78,-29,-4
24,63,39,-43,-7,51,-24,63,156,87,-19,4
29,78,48,-53,-9,63,-29,68,175,102,-14,4
34,102,68,-68,-17,85,-34,78,195,131,0,19
39,122,82,-80,-21,102,-39,82,209,146,9,19
48,136,87,-92,-19,112,-43,92,224,170,24,24
63,161,97,-112,-17,129,-48,92,239,190,34,34
63,180,117,-122,-26,148,-53,97,263,209,53,48
78,219,141,-148,-31,180,-68,102,268,229,68,63
87,253,165,-170,-39,209,-73,107,283,253,78,82
97,268,170,-183,-36,219,-87,102,292,263,97,102
107,278,170,-192,-31,224,-97,97,302,273,107,122
117,302,185,-209,-34,244,-112,97,312,287,126,141
126,326,200,-226,-36,263,-117,97,322,302,141,161
131,331,200,-231,-34,265,-126,87,322,307,156,170
141,341,200,-241,-29,270,-126,82,322,312,161,185
146,346,200,-246,-26,273,-141,78,317,312,165,200
151,346,195,-248,-21,270,-141,73,312,307,161,209
146,351,204,-248,-29,278,-151,58,297,302,165,214
141,346,204,-244,-31,275,-156,43,283,292,170,219
141,336,195,-239,-26,265,-151,29,258,268,170,219
136,331,195,-234,-29,263,-146,14,234,239,170,219
131,307,175,-219,-21,241,-146,4,214,214,156,214
122,273,151,-197,-14,212,-146,-4,185,190,146,209
107,253,146,-180,-19,200,-136,-19,151,165,131,195
92,224,131,-158,-19,178,-131,-29,136,136,112,175
78,185,107,-131,-14,146,-122,-29,117,107,97,156
63,146,82,-104,-9,114,-112,-34,97,82,73,136
48,126,78,-87,-14,102,-102,-43,68,63,63,112
43,107,63,-75,-9,85,-92,-43,53,39,48,97
34,97,63,-65,-14,80,-82,-48,39,19,29,92
29,78,48,-53,-9,63,-73,-53,24,9,24,82
24,73,48,-48,-12,61,-73,-53,14,0,4,73
19,53,34,-36,-7,43,-68,-48,9,-9,-4,68
9,48,39,-29,-14,43,-63,-48,0,-14,-19,53
9,29,19,-19,-4,24,-58,-48,-4,-24,-19,53
4,14,9,-9,-2,12,-48,-53,-14,-34,-29,39
0,9,9,-4,-4,9,-43,-53,-14,-39,-34,39
-4,0,4,2,-4,2,-43,-53,-19,-43,-39,29
-9,-9,0,9,-4,-4,-43,-53,-24,-43,-43,24
-9,-9,0,9,-4,-4,-43,-53,-24,-53,-53,19
-9,-14,-4,12,-2,-9,-43,-53,-24,-58,-58,14
-9,-19,-9,14,0,-14,-39,-53,-24,-58,-63,14
-14,-19,-4,17,-4,-12,-34,-53,-29,-58,-68,14
-14,-24,-9,19,-2,-17,-34,-53,-29,-63,-68,14
-14,-24,-9,19,-2,-17,-34,-53,-29,-63,-68,9
-14,-24,-9,19,-2,-17,-29,-53,-24,-63,-68,9
-14,-19,-4,17,-4,-12,-29,-48,-24,-63,-68,9
-9,-19,-9,14,0,-14,-24,-48,-24,-63,-73,0
-9,-19,-9,14,0,-14,-19,-48,-19,-63,-73,0
-9,-19,-9,14,0,-14,-19,-43,-19,-63,-68,0
-9,-19,-9,14,0,-14,-19,-39,-19,-58,-63,0
-9,-19,-9,14,0,-14,-19,-39,-19,-58,-68,0
-9,-19,-9,14,0,-14,-19,-39,-14,-58,-68,0
-9,-14,-4,12,-2,-9,-19,-39,-14,-53,-68,0
-9,-14,-4,12,-2,-9,-14,-34,-14,-53,-68,0
-9,-14,-4,12,-2,-9,-14,-34,-4,-48,-68,0
-9,-14,-4,12,-2,-9,-14,-29,0,-48,-63,0
-9,-4,4,7,-7,0,-14,-34,0,-39,-58,0
-14,0,14,7,-14,7,-9,-34,4,-39,-53,0
-14,0,14,7,-14,7,-9,-34,9,-34,-53,0
-14,4,19,4,-17,12,-9,-34,9,-24,-48,0
-14,4,19,4,-17,12,-9,-34,9,-24,-48,0
-9,4,14,2,-12,9,-9,-29,9,-14,-43,0
-9,4,14,2,-12,9,-4,-24,14,-14,-43,0
-9,9,19,0,-14,14,-4,-19,14,-9,-39,-14
-9,9,19,0,-14,14,-9,-19,14,-9,-34,-14
-9,9,19,0,-14,14,-9,-19,14,-9,-29,-9
-9,14,24,-2,-17,19,-9,-14,9,-14,-29,-9
-9,14,24,-2,-17,19,-9,-14,4,-19,-24,-9
-9,14,24,-2,-17,19,-9,-14,4,-14,-29,-9
-9,14,24,-2,-17,19,-9,-14,9,-14,-29,-9
-9,14,24,-2,-17,19,-9,-14,9,-19,-24,-9
-9,9,19,0,-14,14,-9,-14,4,-19,-24,-9
-9,0,9,4,-9,4,-9,-14,-4,-24,-29,-9
-9,0,9,4,-9,4,-9,-14,-4,-24,-29,-9
-9,0,9,4,-9,4,-9,-14,-9,-24,-29,-4
-9,0,9,4,-9,4,-9,-14,-14,-24,-29,-4
-9,0,9,4,-9,4,-14,-14,-14,-19,-29,-4
-9,0,9,4,-9,4,-14,-14,-19,-24,-29,-4
-9,-9,0,9,-4,-4,-14,-9,-19,-24,-24,-4
-9,-14,-4,12,-2,-9,-14,-4,-24,-24,-24,-4
-9,-14,-4,12,-2,-9,-14,-9,-24,-24,-29,-4
-9,-14,-4,12,-2,-9,-14,-9,-24,-24,-29,-4
-9,-14,-4,12,-2,-9,-14,-9,-24,-29,-29,-4
-9,-14,-4,12,-2,-9,-14,-9,-24,-29,-29,-4
-9,-14,-4,12,-2,-9,-19,-9,-24,-29,-29,-9
-9,-19,-9,14,0,-14,-19,-9,-29,-29,-24,-9
-9,-19,-9,14,0,-14,-14,-9,-29,-29,-24,-4
-9,-19,-9,14,0,-14,-9,-9,-29,-29,-29,-4
-9,-19,-9,14,0,-14,-9,-9,-29,-34,-29,-4
-9,-19,-9,14,0,-14,-9,-9,-29,-34,-29,-4
-9,-24,-14,17,2,-19,-14,-9,-34,-34,-29,-9
-4,-24,-19,14,7,-21,-19,-9,-34,-34,-29,-9
-4,-24,-19,14,7,-21,-19,-9,-34,-34,-29,-9
-9,-29,-19,19,4,-24,-19,-9,-39,-39,-29,-9
-9,-24,-14,17,2,-19,-19,-9,-34,-34,-29,-9
-9,-19,-9,14,0,-14,-19,-9,-29,-29,-29,-9
-9,-19,-9,14,0,-14,-19,-9,-29,-29,-29,-9
-9,-19,-9,14,0,-14,-19,-9,-29,-29,-29,-4
-9,-24,-14,17,2,-19,-19,-9,-29,-29,-29,-4
-9,-24,-14,17,2,-19,-19,-9,-29,-29,-29,-4
-9,-24,-14,17,2,-19,-14,-9,-29,-29,-24,-4
-4,-24,-19,14,7,-21,-9,-9,-29,-29,-19,-4
-4,-24,-19,14,7,-21,-9,-9,-29,-29,-19,-4
-4,-24,-19,14,7,-21,-9,-9,-24,-24,-19,0
-4,-14,-9,9,2,-12,-4,-9,-19,-14,-14,0
-4,0,4,2,-4,2,-4,-9,-9,-9,-9,0
0,14,14,-7,-7,14,0,-4,0,0,0,4
0,34,34,-17,-17,34,0,-4,4,4,14,9
4,48,43,-26,-19,46,0,9,14,24,19,19
9,53,43,-31,-17,48,0,14,19,29,24,24
19,58,39,-39,-9,48,0,14,34,39,24,24
24,68,43,-46,-9,56,-9,4,39,43,24,29
24,73,48,-48,-12,61,-43,-24,39,39,29,34
24,73,48,-48,-12,61,-73,-48,29,34,29,43
24,73,48,-48,-12,61,-92,-53,14,34,29,43
34,63,29,-48,2,46,-97,-58,-9,24,29,48
43,58,14,-51,14,36,-97,-58,-24,19,29,43
43,53,9,-48,17,31,-97,-53,-34,9,29,39
48,43,-4,-46,26,19,-92,-58,-39,0,19,43
48,39,-9,-43,29,14,-87,-58,-48,0,19,43
53,29,-24,-41,39,2,-82,-58,-68,-19,9,43
58,19,-39,-39,48,-9,-82,-58,-73,-24,4,43
58,29,-29,-43,43,0,-82,-58,-73,-24,4,43
58,29,-29,-43,43,0,-73,-58,-68,-24,4,43
39,19,-19,-29,29,0,-58,-43,-63,-19,4,43
9,9,0,-9,4,4,-34,-29,-53,-19,0,19
-9,-9,0,9,-4,-4,-19,-19,-48,-19,-4,4
-14,-29,-14,21,0,-21,-4,-9,-43,-19,-9,-4
-14,-24,-9,19,-2,-17,-4,-9,-43,-24,-14,-4
-14,-19,-4,17,-4,-12,-4,-9,-48,-19,-19,-4
-14,-19,-4,17,-4,-12,-4,-9,-48,-24,-19,-14
-14,-24,-9,19,-2,-17,0,-9,-48,-24,-19,-19
-14,-29,-14,21,0,-21,0,-4,-48,-24,-19,-19
-14,-34,-19,24,2,-26,4,-4,-48,-24,-19,-19
-14,-34,-19,24,2,-26,4,-4,-48,-24,-24,-19
-14,-34,-19,24,2,-26,4,0,-48,-24,-24,-19
-19,-34,-14,26,-2,-24,4,0,-48,-24,-24,-14
-19,-34,-14,26,-2,-24,0,0,-48,-24,-24,-14
-29,-48,-19,39,-4,-34,9,0,-48,-34,-34,-24
-48,-78,-29,63,-9,-53,34,9,-39,-48,-92,-73
-78,-126,-48,102,-14,-87,78,14,-29,-82,-161,-136
-102,-141,-39,122,-31,-90,102,24,-4,-92,-195,-175
-112,-117,-4,114,-53,-61,112,14,24,-87,-161,-165
-58,29,87,14,-73,58,43,4,19,29,29,-43
82,312,229,-197,-73,270,-131,-78,-63,209,356,190
292,644,351,-468,-29,497,-409,-175,-244,453,810,507
614,1019,405,-817,104,712,-819,-268,-595,756,1410,936
941,1322,380,-1132,280,851,-1224,-390,-927,1005,1932,1356
1215,1517,302,-1366,456,910,-1527,-541,-1146,1166,2171,1717
1293,1327,34,-1310,629,680,-1581,-595,-1224,917,1952,1815
1224,746,-478,-985,851,134,-1322,-439,-1205,283,1302,1678
1010,53,-956,-531,983,-451,-941,-283,-1112,-307,468,1395
766,-292,-1058,-236,912,-675,-610,-180,-961,-595,-39,956
561,-390,-951,-85,756,-671,-409,-117,-795,-629,-244,590
409,-361,-771,-24,590,-566,-283,-82,-580,-527,-253,385
248,-292,-541,21,395,-417,-180,-78,-385,-375,-204,268
131,-209,-341,39,236,-275,-92,-58,-248,-239,-165,122
68,-136,-204,34,136,-170,-39,-14,-161,-151,-122,29
29,-112,-141,41,85,-126,-14,14,-102,-112,-92,-4
4,-107,-112,51,58,-109,4,29,-58,-82,-82,-14
-19,-87,-68,53,24,-78,24,39,-24,-53,-73,-34
-24,-63,-39,43,7,-51,34,48,-4,-29,-63,-43
-29,-58,-29,43,0,-43,39,48,0,-29,-63,-48
-29,-58,-29,43,0,-43,39,48,4,-29,-63,-53
-29,-53,-24,41,-2,-39,48,53,14,-29,-58,-53
-29,-48,-19,39,-4,-34,53,58,24,-19,-48,-58
-29,-43,-14,36,-7,-29,53,63,34,-14,-48,-58
-29,-39,-9,34,-9,-24,53,63,39,-9,-48,-53
-29,-29,0,29,-14,-14,48,68,48,-4,-48,-53
-24,-29,-4,26,-9,-17,43,68,53,0,-48,-53
-24,-24,0,24,-12,-12,43,68,58,4,-39,-48
-24,-19,4,21,-14,-7,43,68,63,9,-34,-43
-24,-19,4,21,-14,-7,48,68,68,14,-34,-43
-24,-9,14,17,-19,2,48,68,73,14,-29,-39
-24,-4,19,14,-21,7,48,68,73,14,-29,-39
-19,0,19,9,-19,9,48,68,73,14,-29,-39
-19,9,29,4,-24,19,43,68,73,19,-29,-39
-9,9,19,0,-14,14,43,68,73,19,-29,-39
-9,14,24,-2,-17,19,34,63,78,19,-29,-34
-9,19,29,-4,-19,24,34,63,78,24,-29,-34
-9,19,29,-4,-19,24,29,63,78,29,-24,-34
-4,19,24,-7,-14,21,29,63,78,29,-24,-34
0,24,24,-12,-12,24,24,63,78,34,-19,-34
4,24,19,-14,-7,21,24,63,82,39,-19,-29
9,24,14,-17,-2,19,24,63,87,39,-19,-29
9,24,14,-17,-2,19,19,63,92,48,-14,-29
4,34,29,-19,-12,31,14,63,97,48,-9,-29
4,39,34,-21,-14,36,9,63,97,58,-9,-29
4,43,39,-24,-17,41,4,63,102,58,-4,-34
14,53,39,-34,-12,46,4,68,107,68,0,-34
9,58,48,-34,-19,53,0,78,117,73,4,-34
14,73,58,-43,-21,65,-4,87,122,87,4,-34
14,82,68,-48,-26,75,-9,87,136,97,9,-34
14,92,78,-53,-31,85,-14,92,146,107,19,-24
19,102,82,-61,-31,92,-14,97,161,112,19,-24
24,122,97,-73,-36,109,-14,107,175,131,29,-9
34,141,107,-87,-36,124,-19,112,190,146,34,-9
48,156,107,-102,-29,131,-24,122,204,170,43,-4
63,180,117,-122,-26,148,-29,126,219,190,53,0
63,200,136,-131,-36,168,-34,136,244,209,73,9
78,234,156,-156,-39,195,-48,146,253,229,87,24
87,263,175,-175,-43,219,-53,156,273,253,97,43
97,278,180,-187,-41,229,-63,161,287,268,117,63
107,287,180,-197,-36,234,-68,165,302,283,126,82
117,312,195,-214,-39,253,-82,165,312,297,146,102
126,336,209,-231,-41,273,-87,165,322,312,161,122
131,346,214,-239,-41,280,-97,156,322,322,175,131
141,361,219,-251,-39,290,-97,151,322,331,180,146
146,370,224,-258,-39,297,-112,146,322,331,195,161
151,375,224,-263,-36,300,-112,141,322,326,200,170
151,385,234,-268,-41,309,-122,131,312,326,204,180
151,385,234,-268,-41,309,-126,122,302,322,209,190
151,375,224,-263,-36,300,-126,107,283,302,209,195
146,370,224,-258,-39,297,-126,92,263,278,209,200
141,346,204,-244,-31,275,-126,78,244,253,200,200
131,312,180,-222,-24,246,-126,63,214,229,195,200
117,292,175,-204,-29,234,-117,43,180,204,180,185
102,263,161,-183,-29,212,-112,29,165,175,161,165
87,229,141,-158,-26,185,-107,24,141,146,146,146
73,195,122,-134,-24,158,-102,14,117,122,122,126
58,175,117,-117,-29,146,-92,4,87,107,112,107
53,156,102,-104,-24,129,-82,4,73,87,97,97
43,136,92,-90,-24,114,-73,0,58,63,78,92
39,107,68,-73,-14,87,-63,-4,43,48,73,82
29,97,68,-63,-19,82,-63,-9,29,34,53,63
19,73,53,-46,-17,63,-58,-9,19,19,43,48
9,68,58,-39,-24,63,-53,-9,9,9,24,29
9,48,39,-29,-14,43,-48,-9,4,-4,19,24
4,29,24,-17,-9,26,-39,-14,-4,-14,9,4
0,19,19,-9,-9,19,-34,-14,-4,-19,4,0
-4,14,19,-4,-12,17,-34,-14,-9,-24,0,-4
-9,9,19,0,-14,14,-34,-14,-14,-24,-4,-4
-4,9,14,-2,-9,12,-34,-9,-19,-34,-9,-4
0,4,4,-2,-2,4,-34,-4,-24,-39,-9,-4
0,-9,-9,4,4,-9,-29,-4,-24,-39,-14,0
-4,-19,-14,12,4,-17,-24,-4,-29,-39,-19,4
-4,-24,-19,14,7,-21,-24,-4,-29,-43,-19,4
-4,-24,-19,14,7,-21,-24,-4,-29,-43,-19,0
-4,-29,-24,17,9,-26,-24,-9,-24,-43,-24,-4
-4,-29,-24,17,9,-26,-29,-9,-24,-43,-29,-9
-4,-24,-19,14,7,-21,-29,-9,-24,-39,-34,-19
-9,-19,-9,14,0,-14,-29,-9,-19,-34,-34,-19
-9,-19,-9,14,0,-14,-24,-4,-19,-34,-34,-29
-9,-19,-9,14,0,-14,-19,0,-19,-29,-34,-39
-9,-24,-14,17,2,-19,-19,0,-19,-39,-39,-39
-9,-29,-19,19,4,-24,-19,0,-14,-48,-39,-39
-9,-24,-14,17,2,-19,-24,0,-14,-43,-39,-34
-9,-24,-14,17,2,-19,-24,4,-14,-43,-39,-29
-9,-24,-14,17,2,-19,-24,4,-9,-39,-39,-19
-9,-24,-14,17,2,-19,-24,9,-9,-39,-34,-9
-9,-19,-9,14,0,-14,-19,4,-9,-24,-29,-9
-14,-19,-4,17,-4,-12,-9,4,-4,-19,-24,-9
-14,-19,-4,17,-4,-12,-9,4,0,-19,-24,-9
