I,II,III,aVR,aVL,aVF,V1,V2,V3,V4,V5,V6,
48,-14,-63,-17,56,-39,78,39,-4,-19,-14,0
73,9,-63,-41,68,-26,92,53,9,0,4,14
102,48,-53,-75,78,-2,102,78,34,19,24,34
117,53,-63,-85,90,-4,97,78,34,19,24,39
141,53,-87,-97,114,-17,73,78,34,19,29,43
131,24,-107,-78,119,-41,34,53,14,19,24,29
78,-19,-97,-29,87,-58,-24,0,-24,-9,0,0
87,-9,-97,-39,92,-53,-48,-24,-43,-19,-9,0
102,-4,-107,-48,104,-56,-73,-48,-63,-39,-19,4
107,-24,-131,-41,119,-78,-73,-58,-63,-39,-19,4
117,-34,-151,-41,134,-92,-68,-63,-68,-43,-29,-4
87,-48,-136,-19,112,-92,-68,-78,-87,-58,-43,-19
68,-53,-122,-7,95,-87,-82,-97,-97,-68,-48,-24
63,-43,-107,-9,85,-75,-87,-102,-102,-73,-48,-24
53,-43,-97,-4,75,-70,-92,-102,-102,-78,-53,-29
39,-53,-92,7,65,-73,-82,-107,-112,-82,-58,-34
9,-73,-82,31,46,-78,-78,-112,-122,-102,-73,-53
-19,-82,-63,51,21,-73,-68,-112,-122,-102,-82,-58
-43,-92,-48,68,2,-70,-53,-107,-122,-102,-82,-53
-58,-97,-39,78,-9,-68,-48,-107,-122,-107,-87,-58
-78,-102,-24,90,-26,-63,-48,-107,-122,-112,-92,-58
-68,-102,-34,85,-17,-68,-48,-107,-122,-112,-92,-68
-68,-117,-48,92,-9,-82,-48,-112,-122,-112,-92,-68
-68,-117,-48,92,-9,-82,-48,-112,-122,-112,-92,-68
-68,-112,-43,90,-12,-78,-48,-107,-117,-112,-92,-63
-63,-97,-34,80,-14,-65,-43,-107,-112,-112,-92,-63
-63,-87,-24,75,-19,-56,-43,-107,-112,-112,-92,-63
-73,-102,-29,87,-21,-65,-43,-107,-122,-112,-97,-68
-87,-112,-24,100,-31,-68,-43,-107,-126,-112,-97,-68
-97,-117,-19,107,-39,-68,-43,-107,-126,-117,-97,-68
-102,-117,-14,109,-43,-65,-43,-112,-126,-117,-102,-73
-97,-117,-19,107,-39,-68,-43,-112,-126,-117,-102,-78
-87,-102,-14,95,-36,-58,-43,-107,-126,-112,-97,-78
-87,-102,-14,95,-36,-58,-39,-107,-122,-112,-97,-73
-87,-102,-14,95,-36,-58,-39,-107,-122,-112,-97,-73
-82,-107,-24,95,-29,-65,-39,-112,-126,-117,-97,-78
-78,-112,-34,95,-21,-73,-34,-102,-122,-117,-87,-78
-63,-102,-39,82,-12,-70,-34,-92,-107,-102,-87,-68
-43,-92,-48,68,2,-70,-34,-63,-78,-82,-68,-53
-34,-73,-39,53,2,-56,-4,58,39,9,-9,-19
-34,-29,4,31,-19,-12,24,146,146,97,58,29
-87,-4,82,46,-85,39,-43,-122,24,63,58,48
-131,19,151,56,-141,85,-253,-663,-287,-63,14,82
-107,78,185,14,-146,131,-448,-1190,-668,-263,-63,82
-14,156,170,-70,-92,163,-785,-1844,-1107,-497,-156,97
117,322,204,-219,-43,263,-1132,-2361,-1415,-614,-156,204
234,473,239,-353,-2,356,-1405,-2776,-1668,-702,-126,317
375,624,248,-500,63,436,-1776,-3225,-1947,-790,-58,468
614,683,68,-649,273,375,-2098,-3591,-2176,-888,-14,590
756,605,-151,-680,453,226,-2196,-3767,-2361,-1005,-29,663
570,258,-312,-414,441,-26,-2122,-3874,-2649,-1400,-434,351
409,-341,-751,-34,580,-546,-2005,-3777,-2888,-1917,-1073,-287
165,-668,-834,251,500,-751,-1625,-3206,-2698,-2049,-1415,-707
-190,-488,-297,339,53,-392,-995,-2196,-1937,-1571,-1190,-707
-224,-322,-97,273,-63,-209,-707,-1498,-1298,-1073,-824,-483
-180,-180,0,180,-90,-90,-536,-990,-844,-692,-522,-302
-122,-53,68,87,-95,7,-351,-536,-434,-351,-258,-146
-43,-14,29,29,-36,7,-97,-102,-97,-87,-78,-53
4,-4,-9,0,7,-7,58,136,68,19,-9,-24
-14,-4,9,9,-12,2,97,185,107,43,14,-19
-43,-19,24,31,-34,2,112,204,126,63,14,-19
-73,-43,29,58,-51,-7,112,219,136,63,14,-24
-87,-53,34,70,-61,-9,131,258,156,68,14,-24
-53,-19,34,36,-43,7,165,302,195,97,43,-4
-34,-9,24,21,-29,7,175,322,219,122,58,14
-43,-19,24,31,-34,2,175,326,224,126,63,4
-58,-19,39,39,-48,9,175,341,229,126,63,-4
-58,-14,43,36,-51,14,190,370,253,136,78,0
-48,-4,43,26,-46,19,195,385,268,156,87,9
-39,19,58,9,-48,39,200,395,273,170,92,19
-39,29,68,4,-53,48,204,405,278,170,92,19
-39,14,53,12,-46,34,214,419,292,180,97,19
-48,-9,39,29,-43,14,219,434,302,190,107,24
-58,-9,48,34,-53,19,219,439,312,200,107,29
-48,4,53,21,-51,29,224,453,322,209,117,34
-48,-4,43,26,-46,19,234,468,331,214,122,43
-58,-4,53,31,-56,24,244,488,346,219,136,43
-43,9,53,17,-48,31,248,492,356,234,141,48
-34,24,58,4,-46,41,248,502,366,244,141,53
-24,43,68,-9,-46,56,248,517,390,258,151,58
-9,63,73,-26,-41,68,263,531,409,273,161,58
-19,63,82,-21,-51,73,273,556,424,287,175,68
-19,63,82,-21,-51,73,273,575,444,302,185,73
-19,73,92,-26,-56,82,283,600,458,317,195,82
-19,78,97,-29,-58,87,292,624,483,326,204,87
-24,78,102,-26,-63,90,292,639,492,341,214,92
-24,78,102,-26,-63,90,307,663,512,361,224,102
-14,97,112,-41,-63,104,317,683,531,375,234,107
-9,112,122,-51,-65,117,331,702,551,390,248,112
-4,122,126,-58,-65,124,336,736,580,414,263,122
-4,131,136,-63,-70,134,351,775,600,434,283,126
-4,131,136,-63,-70,134,366,800,624,444,292,126
-4,131,136,-63,-70,134,380,834,663,473,302,136
0,136,136,-68,-68,136,390,863,688,488,312,141
9,151,141,-80,-65,146,419,907,717,512,331,151
14,156,141,-85,-63,148,434,941,746,531,341,151
24,161,136,-92,-56,148,448,985,780,551,356,161
29,170,141,-100,-56,156,473,1029,805,575,366,161
39,185,146,-112,-53,165,497,1073,834,595,385,175
48,200,151,-124,-51,175,517,1112,863,619,400,175
58,214,156,-136,-48,185,531,1156,897,639,405,175
48,209,161,-129,-56,185,561,1195,932,663,414,180
48,204,156,-126,-53,180,585,1244,971,683,429,190
48,214,165,-131,-58,190,610,1293,1005,702,439,190
63,234,170,-148,-53,202,624,1342,1044,722,453,195
68,239,170,-153,-51,204,649,1376,1063,741,463,204
78,244,165,-161,-43,204,668,1405,1083,751,473,195
82,253,170,-168,-43,212,697,1444,1112,771,478,195
82,253,170,-168,-43,212,717,1464,1127,780,478,195
97,268,170,-183,-36,219,727,1483,1141,785,488,185
112,283,170,-197,-29,226,732,1488,1151,790,473,170
102,268,165,-185,-31,217,732,1478,1137,775,458,161
92,253,161,-173,-34,207,727,1454,1122,766,448,151
82,239,156,-161,-36,197,707,1405,1083,732,424,136
82,234,151,-158,-34,192,688,1346,1044,707,405,122
97,239,141,-168,-21,190,653,1288,995,673,380,107
102,229,126,-165,-12,178,610,1210,936,624,346,82
82,200,117,-141,-17,158,561,1107,863,575,312,58
63,175,112,-119,-24,143,507,1000,780,517,278,39
48,136,87,-92,-19,112,444,888,688,448,229,4
39,112,73,-75,-17,92,380,780,600,385,195,-14
53,102,48,-78,2,75,322,668,512,322,156,-19
68,92,24,-80,21,58,263,556,429,268,122,-19
68,87,19,-78,24,53,204,453,341,209,87,-34
68,78,9,-73,29,43,156,366,263,156,53,-39
63,53,-9,-58,36,21,122,283,204,117,29,-39
63,29,-34,-46,48,-2,82,204,151,73,9,-34
53,24,-29,-39,41,-2,48,151,92,39,-4,-34
53,9,-43,-31,48,-17,24,92,48,19,-14,-34
48,9,-39,-29,43,-14,0,53,19,0,-19,-29
43,9,-34,-26,39,-12,-19,4,-9,-14,-24,-24
34,0,-34,-17,34,-17,-39,-29,-34,-29,-34,-24
19,-19,-39,0,29,-29,-48,-48,-58,-39,-34,-24
19,-19,-39,0,29,-29,-53,-63,-63,-53,-34,-19
9,-24,-34,7,21,-29,-68,-78,-78,-63,-39,-19
9,-34,-43,12,26,-39,-68,-82,-82,-63,-43,-24
4,-43,-48,19,26,-46,-68,-92,-87,-68,-43,-24
9,-24,-34,7,21,-29,-73,-97,-87,-73,-43,-19
24,-4,-29,-9,26,-17,-73,-97,-92,-73,-43,-19
14,-29,-43,7,29,-36,-73,-102,-97,-73,-43,-19
14,-39,-53,12,34,-46,-68,-107,-102,-73,-43,-19
4,-43,-48,19,26,-46,-68,-107,-107,-73,-43,-19
-4,-43,-39,24,17,-41,-73,-107,-107,-78,-43,-19
-4,-43,-39,24,17,-41,-73,-107,-107,-78,-39,-19
9,-34,-43,12,26,-39,-68,-107,-102,-73,-34,-19
9,-29,-39,9,24,-34,-68,-102,-97,-68,-34,-19
9,-29,-39,9,24,-34,-68,-102,-97,-63,-29,-14
9,-24,-34,7,21,-29,-68,-97,-97,-63,-29,-14
9,-24,-34,7,21,-29,-68,-97,-97,-63,-29,-14
9,-24,-34,7,21,-29,-68,-97,-97,-63,-29,-14
19,-14,-34,-2,26,-24,-68,-97,-92,-63,-24,-14
0,-24,-24,12,12,-24,-63,-92,-87,-58,-24,-9
-14,-43,-29,29,7,-36,-63,-97,-87,-58,-24,-9
-14,-43,-29,29,7,-36,-63,-97,-82,-58,-24,-9
-14,-39,-24,26,4,-31,-58,-87,-73,-58,-24,-9
19,-9,-29,-4,24,-19,-53,-82,-68,-48,-14,-4
43,9,-34,-26,39,-12,-53,-78,-63,-39,-14,0
29,-4,-34,-12,31,-19,-53,-73,-63,-39,-14,0
9,-24,-34,7,21,-29,-53,-73,-63,-39,-19,0
9,-14,-24,2,17,-19,-48,-73,-68,-43,-19,-4
9,-9,-19,0,14,-14,-48,-68,-68,-43,-14,-9
9,-14,-24,2,17,-19,-43,-68,-68,-43,-14,-9
9,-19,-29,4,19,-24,-43,-63,-63,-43,-14,-9
0,-29,-29,14,14,-29,-43,-63,-63,-43,-24,-14
0,-29,-29,14,14,-29,-39,-58,-58,-43,-29,-14
0,-24,-24,12,12,-24,-39,-58,-58,-43,-29,-14
4,-24,-29,9,17,-26,-34,-58,-58,-43,-19,-14
-14,-39,-24,26,4,-31,-43,-53,-58,-43,-19,-14
-43,-58,-14,51,-14,-36,-53,-53,-58,-43,-34,-14
-29,-39,-9,34,-9,-24,-43,-53,-58,-43,-29,-19
-14,-14,0,14,-7,-7,-34,-53,-53,-39,-24,-19
-14,-14,0,14,-7,-7,-29,-53,-48,-39,-24,-19
-9,-9,0,9,-4,-4,-29,-53,-48,-34,-24,-19
-24,-29,-4,26,-9,-17,-29,-48,-53,-39,-29,-24
-39,-43,-4,41,-17,-24,-24,-48,-58,-43,-34,-24
-29,-43,-14,36,-7,-29,-24,-48,-58,-48,-34,-24
-39,-43,-4,41,-17,-24,-29,-58,-63,-48,-39,-29
-34,-34,0,34,-17,-17,-29,-58,-58,-43,-39,-24
-9,-14,-4,12,-2,-9,-29,-58,-58,-48,-34,-24
-4,-14,-9,9,2,-12,-19,-58,-58,-48,-34,-24
4,4,0,-4,2,2,-9,-58,-58,-43,-34,-24
-14,-9,4,12,-9,-2,-24,-58,-63,-48,-39,-29
-43,-39,4,41,-24,-17,-39,-63,-73,-58,-48,-34
-53,-53,0,53,-26,-26,-43,-68,-82,-68,-58,-43
-53,-53,0,53,-26,-26,-43,-68,-82,-68,-58,-43
-34,-39,-4,36,-14,-21,-39,-68,-78,-63,-43,-43
-4,-24,-19,14,7,-21,-34,-68,-73,-63,-34,-39
-29,-39,-9,34,-9,-24,-34,-78,-78,-63,-48,-39
-43,-53,-9,48,-17,-31,-34,-78,-78,-63,-58,-43
-43,-53,-9,48,-17,-31,-39,-82,-82,-68,-63,-48
-43,-58,-14,51,-14,-36,-43,-82,-87,-68,-63,-48
-39,-48,-9,43,-14,-29,-43,-82,-87,-68,-63,-48
-24,-39,-14,31,-4,-26,-43,-87,-87,-68,-63,-48
-48,-58,-9,53,-19,-34,-53,-92,-97,-78,-63,-48
-68,-78,-9,73,-29,-43,-63,-92,-107,-87,-63,-48
-43,-58,-14,51,-14,-36,-53,-92,-102,-82,-68,-43
-24,-43,-19,34,-2,-31,-43,-92,-92,-78,-68,-39
-24,-43,-19,34,-2,-31,-43,-92,-92,-78,-68,-39
-24,-43,-19,34,-2,-31,-43,-92,-92,-78,-68,-39
-24,-43,-19,34,-2,-31,-48,-107,-102,-82,-73,-43
-34,-58,-24,46,-4,-41,-48,-107,-102,-87,-78,-48
-39,-58,-19,48,-9,-39,-48,-107,-107,-87,-78,-48
-39,-58,-19,48,-9,-39,-53,-107,-107,-87,-78,-43
-43,-48,-4,46,-19,-26,-58,-97,-102,-87,-73,-48
-58,-53,4,56,-31,-24,-58,-107,-102,-92,-73,-53
-48,-58,-9,53,-19,-34,-58,-107,-107,-92,-73,-53
-39,-58,-19,48,-9,-39,-58,-107,-107,-97,-73,-53
-43,-53,-9,48,-17,-31,-53,-112,-112,-97,-78,-48
-43,-53,-9,48,-17,-31,-53,-112,-112,-97,-78,-48
-34,-53,-19,43,-7,-36,-53,-112,-112,-97,-78,-48
-29,-53,-24,41,-2,-39,-53,-112,-112,-97,-73,-48
-29,-53,-24,41,-2,-39,-58,-112,-112,-97,-73,-48
-29,-48,-19,39,-4,-34,-58,-112,-112,-97,-68,-48
-29,-43,-14,36,-7,-29,-48,-112,-107,-92,-68,-43
-34,-68,-34,51,0,-51,-48,-117,-107,-87,-68,-43
-39,-63,-24,51,-7,-43,-58,-117,-112,-87,-73,-43
-39,-53,-14,46,-12,-34,-58,-117,-112,-87,-78,-43
-34,-48,-14,41,-9,-31,-53,-117,-112,-87,-78,-43
-24,-43,-19,34,-2,-31,-53,-112,-112,-87,-78,-43
-24,-43,-19,34,-2,-31,-53,-112,-112,-87,-78,-48
-24,-48,-24,36,0,-36,-58,-112,-112,-87,-78,-58
-29,-63,-34,46,2,-48,-58,-122,-117,-92,-82,-58
-34,-73,-39,53,2,-56,-58,-122,-117,-92,-82,-58
-34,-68,-34,51,0,-51,-63,-122,-117,-92,-82,-58
-29,-68,-39,48,4,-53,-63,-122,-117,-87,-78,-58
-43,-68,-24,56,-9,-46,-58,-122,-117,-87,-78,-53
-48,-63,-14,56,-17,-39,-58,-112,-117,-87,-78,-53
-43,-63,-19,53,-12,-41,-58,-112,-117,-92,-82,-53
-43,-63,-19,53,-12,-41,-63,-112,-122,-97,-87,-58
-34,-53,-19,43,-7,-36,-58,-107,-117,-92,-82,-58
-29,-48,-19,39,-4,-34,-58,-107,-117,-87,-78,-58
-39,-58,-19,48,-9,-39,-58,-112,-117,-92,-78,-58
-48,-68,-19,58,-14,-43,-58,-117,-117,-97,-78,-58
-48,-68,-19,58,-14,-43,-58,-117,-117,-97,-78,-58
-48,-68,-19,58,-14,-43,-58,-117,-117,-97,-78,-58
-34,-53,-19,43,-7,-36,-58,-117,-117,-97,-78,-58
-19,-39,-19,29,0,-29,-58,-117,-117,-97,-78,-58
-39,-58,-19,48,-9,-39,-58,-122,-117,-97,-78,-58
-58,-78,-19,68,-19,-48,-58,-126,-117,-97,-78,-58
-43,-63,-19,53,-12,-41,-58,-126,-117,-97,-78,-58
-29,-48,-19,39,-4,-34,-58,-126,-117,-97,-78,-58
-29,-48,-19,39,-4,-34,-58,-126,-117,-97,-78,-58
-29,-48,-19,39,-4,-34,-58,-126,-117,-97,-78,-58
-39,-53,-14,46,-12,-34,-58,-126,-117,-97,-82,-58
-48,-58,-9,53,-19,-34,-58,-126,-117,-97,-87,-58
-48,-58,-9,53,-19,-34,-63,-126,-117,-97,-87,-58
-48,-58,-9,53,-19,-34,-68,-126,-117,-97,-87,-58
-43,-58,-14,51,-14,-36,-68,-126,-117,-97,-82,-58
-39,-58,-19,48,-9,-39,-68,-126,-117,-97,-78,-58
-39,-58,-19,48,-9,-39,-63,-122,-117,-97,-78,-58
-39,-58,-19,48,-9,-39,-58,-117,-117,-97,-78,-58
-34,-58,-24,46,-4,-41,-58,-117,-117,-97,-82,-58
-29,-58,-29,43,0,-43,-58,-117,-117,-97,-87,-58
-29,-58,-29,43,0,-43,-63,-117,-117,-97,-87,-58
-29,-58,-29,43,0,-43,-68,-117,-117,-97,-87,-58
-34,-58,-24,46,-4,-41,-68,-122,-117,-97,-87,-58
-39,-58,-19,48,-9,-39,-68,-126,-117,-97,-87,-58
-39,-58,-19,48,-9,-39,-68,-126,-117,-97,-87,-58
-39,-58,-19,48,-9,-39,-68,-126,-117,-97,-87,-58
-39,-58,-19,48,-9,-39,-68,-126,-117,-97,-87,-58
-39,-58,-19,48,-9,-39,-68,-126,-117,-97,-87,-58
-39,-58,-19,48,-9,-39,-68,-126,-117,-97,-87,-58
-39,-58,-19,48,-9,-39,-68,-126,-117,-97,-87,-58
-39,-53,-14,46,-12,-34,-68,-126,-117,-97,-87,-58
-39,-48,-9,43,-14,-29,-68,-126,-117,-97,-87,-58
-34,-48,-14,41,-9,-31,-68,-122,-117,-97,-87,-58
-29,-48,-19,39,-4,-34,-68,-117,-117,-97,-87,-58
-29,-48,-19,39,-4,-34,-63,-117,-117,-97,-87,-58
-29,-48,-19,39,-4,-34,-58,-117,-117,-97,-87,-58
-29,-48,-19,39,-4,-34,-58,-117,-117,-97,-87,-58
-29,-48,-19,39,-4,-34,-58,-117,-117,-97,-87,-58
-39,-58,-19,48,-9,-39,-58,-117,-117,-97,-87,-58
-48,-68,-19,58,-14,-43,-58,-117,-117,-97,-87,-58
-48,-73,-24,61,-12,-48,-63,-117,-117,-97,-87,-58
-48,-78,-29,63,-9,-53,-68,-117,-117,-97,-87,-58
-48,-78,-29,63,-9,-53,-68,-117,-117,-97,-87,-58
-48,-78,-29,63,-9,-53,-68,-117,-117,-97,-87,-58
-48,-73,-24,61,-12,-48,-63,-117,-117,-97,-87,-58
-48,-68,-19,58,-14,-43,-58,-117,-117,-97,-87,-58
-39,-53,-14,46,-12,-34,-48,-107,-112,-92,-78,-58
-29,-39,-9,34,-9,-24,-39,-97,-107,-87,-68,-58
-24,-39,-14,31,-4,-26,-29,-92,-97,-82,-68,-53
-19,-39,-19,29,0,-29,-19,-87,-87,-78,-68,-48
-14,-39,-24,26,4,-31,-9,-73,-78,-73,-63,-43
-9,-39,-29,24,9,-34,0,-58,-68,-68,-58,-39
4,-29,-34,12,19,-31,9,-48,-63,-58,-53,-29
29,-9,-39,-9,34,-24,19,-34,-53,-48,-39,-19
53,9,-43,-31,48,-17,29,-24,-43,-39,-29,-9
87,34,-53,-61,70,-9,48,0,-24,-29,-14,0
82,34,-48,-58,65,-7,53,4,-19,-14,-4,4
82,48,-34,-65,58,7,53,19,-4,0,4,14
78,39,-39,-58,58,0,39,19,-4,0,4,19
82,24,-58,-53,70,-17,4,19,-4,0,9,24
107,29,-78,-68,92,-24,-14,0,-14,0,9,24
87,19,-68,-53,78,-24,-53,-48,-43,-29,-9,9
82,14,-68,-48,75,-26,-78,-78,-63,-39,-19,0
82,4,-78,-43,80,-36,-102,-107,-82,-58,-29,-4
78,-9,-87,-34,82,-48,-102,-112,-82,-58,-29,-4
78,-14,-92,-31,85,-53,-97,-112,-87,-63,-39,-14
68,-9,-78,-29,73,-43,-97,-122,-107,-78,-53,-24
68,4,-63,-36,65,-29,-112,-136,-117,-87,-58,-24
58,-9,-68,-24,63,-39,-107,-141,-122,-87,-63,-24
43,-34,-78,-4,61,-56,-102,-141,-122,-87,-73,-29
29,-34,-63,2,46,-48,-92,-141,-126,-92,-78,-34
0,-43,-43,21,21,-43,-87,-141,-131,-112,-92,-53
-29,-53,-24,41,-2,-39,-78,-141,-131,-112,-97,-63
-53,-63,-9,58,-21,-36,-63,-136,-131,-112,-92,-63
-43,-58,-14,51,-14,-36,-58,-136,-136,-117,-97,-68
-39,-53,-14,46,-12,-34,-58,-136,-141,-122,-102,-68
-53,-68,-14,61,-19,-41,-58,-136,-141,-126,-107,-82
-78,-97,-19,87,-29,-58,-58,-141,-141,-131,-112,-87
-78,-97,-19,87,-29,-58,-58,-141,-146,-131,-112,-87
-78,-92,-14,85,-31,-53,-58,-136,-146,-131,-112,-82
-73,-87,-14,80,-29,-51,-53,-136,-141,-126,-112,-82
-73,-87,-14,80,-29,-51,-53,-136,-141,-122,-112,-82
-73,-92,-19,82,-26,-56,-53,-136,-141,-122,-117,-82
-78,-92,-14,85,-31,-53,-53,-136,-136,-122,-117,-78
-68,-73,-4,70,-31,-39,-53,-131,-136,-126,-112,-78
-53,-48,4,51,-29,-21,-53,-131,-136,-126,-112,-82
-68,-82,-14,75,-26,-48,-53,-131,-136,-126,-112,-87
-78,-102,-24,90,-26,-63,-53,-126,-136,-122,-107,-87
-78,-92,-14,85,-31,-53,-48,-126,-131,-122,-107,-82
-78,-82,-4,80,-36,-43,-48,-126,-131,-122,-107,-82
-73,-82,-9,78,-31,-46,-48,-126,-131,-117,-107,-82
-68,-82,-14,75,-26,-48,-43,-112,-122,-107,-97,-78
-68,-82,-14,75,-26,-48,-34,-87,-97,-87,-92,-73
-63,-82,-19,73,-21,-51,-24,-43,-58,-63,-68,-63
-53,-63,-9,58,-21,-36,-4,58,53,24,0,-24
-53,-19,34,36,-43,7,14,126,156,107,78,29
-68,29,97,19,-82,63,-73,-170,-9,58,78,58
-73,78,151,-2,-112,114,-302,-741,-366,-82,34,102
-39,180,219,-70,-129,200,-512,-1259,-712,-244,0,156
63,302,239,-183,-87,270,-863,-1903,-1117,-439,-48,224
185,497,312,-341,-63,405,-1195,-2376,-1381,-502,14,385
292,678,385,-485,-46,531,-1454,-2747,-1590,-536,107,551
409,805,395,-607,7,600,-1786,-3181,-1898,-658,122,673
624,839,214,-732,204,527,-2069,-3533,-2156,-790,112,766
644,619,-24,-631,334,297,-2049,-3611,-2342,-1015,-58,653
336,131,-204,-234,270,-36,-1859,-3620,-2630,-1517,-619,156
126,-370,-497,122,312,-434,-1644,-3381,-2693,-1864,-1127,-400
-165,-600,-434,383,134,-517,-1166,-2669,-2327,-1825,-1337,-736
-385,-448,-63,417,-161,-256,-673,-1815,-1668,-1400,-1112,-722
-283,-312,-29,297,-126,-170,-522,-1273,-1132,-956,-746,-483
-214,-190,24,202,-119,-82,-385,-805,-717,-600,-473,-307
-131,-82,48,107,-90,-17,-234,-390,-346,-283,-239,-156
-63,-39,24,51,-43,-7,-39,-39,-53,-58,-78,-68
-24,-24,0,24,-12,-12,58,117,68,9,-29,-43
-24,-14,9,19,-17,-2,97,165,107,34,-4,-39
-34,-19,14,26,-24,-2,112,185,126,53,-4,-39
-48,-34,14,41,-31,-9,112,200,136,53,0,-43
-48,-34,14,41,-31,-9,131,239,156,58,4,-43
-34,-9,24,21,-29,7,156,278,185,87,29,-34
-34,-9,24,21,-29,7,156,292,200,112,39,-24
-43,-24,19,34,-31,-2,156,297,204,117,43,-24
-58,-29,29,43,-43,0,156,312,209,117,43,-24
-58,-24,34,41,-46,4,170,341,234,126,58,-19
-48,-14,34,31,-41,9,175,356,248,146,68,-9
-29,4,34,12,-31,19,185,370,263,161,78,4
-19,9,29,4,-24,19,195,385,278,161,82,9
-19,9,29,4,-24,19,204,400,292,170,87,9
-29,0,29,14,-29,14,209,414,302,180,97,14
-39,0,39,19,-39,19,209,419,312,190,97,19
-29,14,43,7,-36,29,214,434,322,200,107,24
-19,9,29,4,-24,19,224,448,336,209,112,34
-19,14,34,2,-26,24,234,468,356,219,126,34
-19,14,34,2,-26,24,239,473,366,234,131,39
-24,14,39,4,-31,26,239,483,375,244,131,43
-24,29,53,-2,-39,41,234,497,395,253,141,48
-19,43,63,-12,-41,53,244,512,409,263,151,48
-19,34,53,-7,-36,43,253,536,424,278,161,53
-9,24,34,-7,-21,29,253,556,444,292,165,53
-4,53,58,-24,-31,56,263,575,458,307,175,63
0,78,78,-39,-39,78,273,595,483,317,185,68
0,68,68,-34,-34,68,273,610,492,331,195,73
4,58,53,-31,-24,56,287,634,512,351,204,82
14,73,58,-43,-21,65,297,663,531,361,214,87
19,82,63,-51,-21,73,312,692,551,370,229,92
24,92,68,-58,-21,80,317,712,580,395,239,102
24,102,78,-63,-26,90,331,736,600,414,253,107
29,112,82,-70,-26,97,346,761,619,419,263,107
34,122,87,-78,-26,104,361,795,653,444,273,117
34,117,82,-75,-24,100,370,824,678,458,283,122
39,122,82,-80,-21,102,400,868,707,483,302,131
39,131,92,-85,-26,112,414,902,736,507,312,131
43,141,97,-92,-26,119,429,946,771,531,326,141
48,146,97,-97,-24,122,448,985,800,551,336,141
58,156,97,-107,-19,126,468,1024,834,566,356,156
58,156,97,-107,-19,126,488,1063,863,590,370,156
58,156,97,-107,-19,126,502,1107,897,610,375,156
58,165,107,-112,-24,136,531,1146,932,639,390,161
68,175,107,-122,-19,141,556,1195,971,663,409,170
78,195,117,-136,-19,156,585,1239,1005,688,419,170
102,224,122,-163,-9,173,605,1283,1044,712,434,175
102,229,126,-165,-12,178,624,1312,1068,732,444,185
107,234,126,-170,-9,180,639,1337,1093,741,453,175
97,239,141,-168,-21,190,663,1371,1117,761,458,175
82,234,151,-158,-34,192,678,1385,1127,771,458,175
92,234,141,-163,-24,187,683,1395,1132,771,473,170
102,234,131,-168,-14,183,683,1390,1132,771,463,161
102,234,131,-168,-14,183,678,1371,1117,756,448,151
102,234,131,-168,-14,183,668,1337,1102,746,439,141
87,219,131,-153,-21,175,639,1283,1058,712,409,117
82,214,131,-148,-24,173,610,1220,1015,688,385,92
82,204,122,-143,-19,163,575,1151,961,653,361,87
73,180,107,-126,-17,143,531,1063,897,605,326,73
73,165,92,-119,-9,129,483,971,819,551,292,53
73,156,82,-114,-4,119,429,873,732,488,258,39
58,112,53,-85,2,82,370,761,639,419,209,14
48,82,34,-65,7,58,312,653,551,356,175,4
63,82,19,-73,21,51,268,551,463,297,141,-9
78,82,4,-80,36,43,224,448,380,248,112,-19
78,68,-9,-73,43,29,165,356,297,190,78,-34
78,48,-29,-63,53,9,117,278,224,136,43,-39
48,24,-24,-36,36,0,82,200,165,97,24,-39
24,0,-24,-12,24,-12,43,126,112,53,9,-34
29,-4,-34,-12,31,-19,19,92,63,19,-4,-34
43,-19,-63,-12,53,-41,4,53,29,0,-14,-34
34,-19,-53,-7,43,-36,-9,14,4,-19,-19,-29
24,-19,-43,-2,34,-31,-19,-34,-19,-34,-24,-24
14,-29,-43,7,29,-36,-34,-53,-39,-43,-34,-24
0,-48,-48,24,24,-48,-39,-58,-58,-48,-34,-24
9,-34,-43,12,26,-39,-39,-73,-63,-58,-34,-19
9,-24,-34,7,21,-29,-48,-87,-78,-63,-39,-19
-9,-48,-39,29,14,-43,-48,-87,-82,-63,-43,-24
-34,-73,-39,53,2,-56,-48,-92,-87,-68,-43,-24
-24,-63,-39,43,7,-51,-48,-97,-87,-73,-43,-19
-4,-53,-48,29,21,-51,-43,-97,-92,-73,-43,-19
-14,-53,-39,34,12,-46,-43,-97,-92,-73,-43,-24
-14,-39,-24,26,4,-31,-39,-97,-92,-73,-43,-29
-24,-53,-29,39,2,-41,-39,-97,-97,-73,-43,-29
-34,-63,-29,48,-2,-46,-43,-97,-97,-78,-43,-29
-19,-53,-34,36,7,-43,-43,-92,-92,-68,-34,-24
9,-34,-43,12,26,-39,-39,-87,-82,-53,-24,-19
0,-39,-39,19,19,-39,-39,-82,-78,-58,-34,-19
-9,-48,-39,29,14,-43,-39,-82,-78,-63,-39,-14
-29,-63,-34,46,2,-48,-43,-82,-82,-63,-39,-19
-48,-82,-34,65,-7,-58,-48,-87,-87,-63,-39,-24
-39,-73,-34,56,-2,-53,-48,-87,-87,-63,-39,-24
-19,-53,-34,36,7,-43,-48,-87,-82,-63,-34,-24
0,-29,-29,14,14,-29,-29,-78,-73,-48,-34,-9
24,-14,-39,-4,31,-26,-14,-78,-68,-39,-34,0
-9,-48,-39,29,14,-43,-24,-78,-68,-53,-34,-14
-43,-78,-34,61,-4,-56,-29,-68,-63,-68,-34,-29
-24,-53,-29,39,2,-41,-24,-68,-58,-53,-24,-19
-14,-39,-24,26,4,-31,-24,-68,-53,-39,-24,-9
-9,-29,-19,19,4,-24,-24,-63,-53,-39,-24,-9
-9,-24,-14,17,2,-19,-24,-63,-53,-39,-29,-9
-24,-43,-19,34,-2,-31,-19,-63,-58,-43,-29,-19
-39,-68,-29,53,-4,-48,-19,-58,-58,-43,-24,-29
-29,-48,-19,39,-4,-34,-14,-58,-58,-43,-24,-19
-19,-29,-9,24,-4,-19,-14,-53,-53,-43,-24,-9
-29,-39,-9,34,-9,-24,-14,-53,-53,-43,-29,-14
-29,-39,-9,34,-9,-24,-9,-48,-48,-43,-29,-14
-29,-39,-9,34,-9,-24,-9,-53,-48,-43,-29,-14
-24,-43,-19,34,-2,-31,-4,-58,-48,-43,-19,-14
-24,-43,-19,34,-2,-31,-4,-53,-48,-43,-19,-14
-34,-48,-14,41,-9,-31,-4,-53,-48,-43,-34,-14
-39,-58,-19,48,-9,-39,-9,-53,-58,-48,-39,-24
-43,-63,-19,53,-12,-41,-14,-53,-63,-48,-43,-29
-48,-63,-14,56,-17,-39,-9,-53,-58,-48,-43,-29
-48,-58,-9,53,-19,-34,-9,-53,-58,-43,-43,-29
-48,-58,-9,53,-19,-34,-4,-48,-53,-43,-43,-29
-48,-53,-4,51,-21,-29,4,-48,-48,-43,-43,-24
-34,-43,-9,39,-12,-26,4,-48,-48,-48,-43,-24
-39,-34,4,36,-21,-14,0,-58,-53,-48,-48,-29
-58,-58,0,58,-29,-29,-4,-58,-53,-48,-53,-34
-58,-73,-14,65,-21,-43,-9,-58,-58,-58,-53,-43
-68,-82,-14,75,-26,-48,-9,-58,-63,-63,-53,-43
-73,-73,0,73,-36,-36,-9,-58,-68,-63,-53,-43
-58,-58,0,58,-29,-29,-9,-58,-68,-63,-53,-43
-53,-58,-4,56,-24,-31,-9,-63,-73,-68,-58,-43
-63,-73,-9,68,-26,-41,-14,-68,-82,-78,-68,-53
-63,-73,-9,68,-26,-41,-14,-68,-82,-78,-68,-53
-53,-63,-9,58,-21,-36,-9,-63,-78,-73,-58,-48
-34,-53,-19,43,-7,-36,-4,-58,-73,-73,-53,-39
-43,-53,-9,48,-17,-31,-4,-68,-78,-73,-58,-39
-43,-53,-9,48,-17,-31,-4,-68,-78,-73,-58,-43
-48,-58,-9,53,-19,-34,-9,-73,-82,-78,-63,-48
-53,-68,-14,61,-19,-41,-14,-73,-87,-78,-63,-48
-63,-73,-9,68,-26,-41,-14,-73,-87,-78,-63,-48
-63,-78,-14,70,-24,-46,-14,-78,-87,-78,-63,-48
-63,-78,-14,70,-24,-46,-19,-82,-87,-78,-63,-48
-58,-78,-19,68,-19,-48,-24,-82,-87,-78,-63,-48
-53,-73,-19,63,-17,-46,-24,-82,-92,-87,-68,-48
-53,-73,-19,63,-17,-46,-24,-82,-92,-97,-68,-48
-53,-73,-19,63,-17,-46,-24,-82,-92,-97,-68,-48
-53,-73,-19,63,-17,-46,-24,-82,-92,-97,-68,-48
-58,-82,-24,70,-17,-53,-29,-97,-102,-102,-73,-53
-73,-107,-34,90,-19,-70,-29,-97,-102,-107,-78,-58
-78,-97,-19,87,-29,-58,-29,-97,-107,-107,-78,-58
-78,-87,-9,82,-34,-48,-34,-97,-107,-107,-78,-53
-63,-73,-9,68,-26,-41,-34,-87,-102,-97,-73,-53
-58,-73,-14,65,-21,-43,-29,-97,-102,-92,-73,-53
-58,-78,-19,68,-19,-48,-29,-97,-107,-92,-73,-53
-58,-78,-19,68,-19,-48,-29,-97,-107,-97,-73,-53
-63,-78,-14,70,-24,-46,-29,-102,-112,-97,-78,-53
-63,-82,-19,73,-21,-51,-34,-102,-112,-97,-78,-58
-68,-82,-14,75,-26,-48,-34,-102,-112,-97,-82,-58
-78,-82,-4,80,-36,-43,-34,-102,-112,-97,-82,-58
-68,-82,-14,75,-26,-48,-34,-97,-107,-97,-78,-58
-58,-78,-19,68,-19,-48,-29,-92,-102,-97,-68,-58
-43,-48,-4,46,-19,-26,-19,-92,-97,-97,-68,-53
-34,-48,-14,41,-9,-31,-19,-97,-97,-97,-68,-53
-53,-68,-14,61,-19,-41,-34,-97,-107,-97,-73,-53
-68,-82,-14,75,-26,-48,-39,-97,-112,-97,-78,-53
-68,-92,-24,80,-21,-58,-34,-112,-112,-107,-87,-53
-63,-102,-39,82,-12,-70,-34,-122,-112,-117,-97,-53
-58,-82,-24,70,-17,-53,-34,-107,-107,-107,-82,-48
-53,-68,-14,61,-19,-41,-39,-92,-102,-97,-68,-48
-58,-73,-14,65,-21,-43,-39,-102,-107,-102,-73,-48
-63,-73,-9,68,-26,-41,-39,-102,-107,-102,-73,-48
-63,-73,-9,68,-26,-41,-43,-102,-112,-107,-82,-53
-58,-78,-19,68,-19,-48,-43,-102,-117,-107,-87,-58
-68,-82,-14,75,-26,-48,-43,-107,-117,-107,-87,-53
-68,-82,-14,75,-26,-48,-48,-102,-117,-107,-87,-53
-58,-78,-19,68,-19,-48,-39,-97,-107,-107,-78,-43
-53,-73,-19,63,-17,-46,-34,-92,-102,-107,-68,-39
-48,-63,-14,56,-17,-39,-29,-97,-102,-102,-68,-43
-48,-58,-9,53,-19,-34,-29,-107,-107,-97,-68,-48
-58,-73,-14,65,-21,-43,-39,-107,-112,-102,-73,-48
-68,-87,-19,78,-24,-53,-48,-107,-117,-107,-78,-48
-68,-87,-19,78,-24,-53,-39,-107,-117,-107,-78,-48
-68,-87,-19,78,-24,-53,-29,-107,-117,-107,-78,-48
-63,-73,-9,68,-26,-41,-29,-107,-117,-107,-78,-48
-58,-58,0,58,-29,-29,-29,-107,-117,-107,-78,-48
-58,-73,-14,65,-21,-43,-34,-107,-117,-107,-78,-48
-58,-87,-29,73,-14,-58,-39,-107,-117,-107,-78,-48
-48,-68,-19,58,-14,-43,-39,-107,-112,-97,-78,-48
-39,-48,-9,43,-14,-29,-39,-107,-107,-87,-78,-48
-53,-68,-14,61,-19,-41,-43,-107,-107,-97,-82,-53
-68,-87,-19,78,-24,-53,-48,-107,-107,-107,-87,-58
-68,-87,-19,78,-24,-53,-48,-107,-112,-107,-87,-58
-68,-87,-19,78,-24,-53,-48,-107,-117,-107,-87,-58
-58,-68,-9,63,-24,-39,-43,-107,-117,-107,-82,-53
-48,-48,0,48,-24,-24,-39,-107,-117,-107,-78,-48
-48,-58,-9,53,-19,-34,-39,-107,-117,-107,-78,-48
-48,-68,-19,58,-14,-43,-39,-107,-117,-107,-78,-48
-63,-82,-19,73,-21,-51,-39,-107,-117,-107,-78,-48
-78,-97,-19,87,-29,-58,-39,-107,-117,-107,-78,-48
-53,-73,-19,63,-17,-46,-39,-107,-117,-107,-78,-48
-29,-48,-19,39,-4,-34,-39,-107,-117,-107,-78,-48
-48,-68,-19,58,-14,-43,-39,-107,-117,-107,-78,-48
-68,-87,-19,78,-24,-53,-39,-107,-117,-107,-78,-48
-53,-68,-14,61,-19,-41,-29,-97,-107,-97,-73,-48
-39,-48,-9,43,-14,-29,-19,-87,-97,-87,-68,-48
-14,-29,-14,21,0,-21,0,-73,-82,-78,-58,-39
9,-9,-19,0,14,-14,19,-58,-68,-68,-48,-29
9,-19,-29,4,19,-24,24,-48,-63,-63,-48,-24
9,-29,-39,9,24,-34,29,-39,-58,-58,-48,-19
19,-24,-43,2,31,-34,34,-29,-53,-53,-39,-14
34,-9,-43,-12,39,-26,43,-14,-39,-43,-24,-4
48,4,-43,-26,46,-19,58,0,-24,-39,-14,0
53,9,-43,-31,48,-17,63,4,-19,-24,-4,4
63,29,-34,-46,48,-2,63,19,-4,-9,4,14
78,34,-43,-56,61,-4,58,19,-4,-9,4,19
107,34,-73,-70,90,-19,34,19,-4,-9,9,29
126,29,-97,-78,112,-34,4,0,-14,-9,9,34
97,9,-87,-53,92,-39,-43,-48,-43,-39,-9,19
92,4,-87,-48,90,-41,-68,-73,-63,-48,-19,9
92,0,-92,-46,92,-46,-92,-97,-82,-68,-29,4
87,-14,-102,-36,95,-58,-92,-102,-82,-68,-29,4
87,-24,-112,-31,100,-68,-87,-102,-87,-73,-39,-4
68,-34,-102,-17,85,-68,-87,-117,-107,-87,-53,-14
58,-34,-92,-12,75,-63,-102,-136,-117,-97,-53,-14
58,-24,-82,-17,70,-53,-102,-141,-122,-97,-48,-14
58,-24,-82,-17,70,-53,-97,-136,-117,-92,-53,-19
48,-34,-82,-7,65,-58,-82,-131,-122,-92,-58,-24
19,-53,-73,17,46,-63,-78,-131,-131,-112,-73,-43
-9,-63,-53,36,21,-58,-68,-131,-131,-112,-82,-53
-39,-73,-34,56,-2,-53,-58,-131,-136,-112,-87,-58
-48,-78,-29,63,-9,-53,-58,-136,-141,-117,-97,-68
-58,-82,-24,70,-17,-53,-58,-136,-141,-126,-102,-68
-58,-82,-24,70,-17,-53,-58,-136,-141,-131,-102,-78
-68,-97,-29,82,-19,-63,-58,-141,-141,-131,-102,-78
-68,-97,-29,82,-19,-63,-58,-141,-146,-131,-102,-78
-63,-92,-29,78,-17,-61,-58,-136,-146,-131,-102,-73
-53,-87,-34,70,-9,-61,-53,-136,-141,-131,-102,-73
-53,-87,-34,70,-9,-61,-53,-136,-141,-131,-102,-63
-58,-92,-34,75,-12,-63,-53,-136,-146,-131,-107,-58
-68,-97,-29,82,-19,-63,-53,-136,-146,-131,-107,-68
-73,-107,-34,90,-19,-70,-53,-136,-146,-136,-107,-78
-78,-107,-29,92,-24,-68,-53,-141,-146,-136,-112,-82
-78,-107,-29,92,-24,-68,-53,-141,-146,-136,-112,-82
-68,-87,-19,78,-24,-53,-53,-136,-146,-131,-107,-78
-68,-82,-14,75,-26,-48,-48,-136,-141,-131,-107,-73
-68,-82,-14,75,-26,-48,-48,-136,-141,-131,-107,-68
-68,-87,-19,78,-24,-53,-48,-136,-141,-131,-107,-68
-63,-92,-29,78,-17,-61,-43,-112,-126,-117,-92,-68
-58,-92,-34,75,-12,-63,-43,-92,-107,-92,-87,-63
-53,-92,-39,73,-7,-65,-43,-63,-78,-73,-68,-53
-43,-73,-29,58,-7,-51,-24,29,19,9,-9,-19
-43,-24,19,34,-31,-2,-4,78,107,82,58,34
-68,29,97,19,-82,63,-97,-253,-58,29,58,68
-82,78,161,2,-122,119,-351,-863,-434,-122,14,112
-58,146,204,-43,-131,175,-590,-1405,-824,-317,-39,141
48,258,209,-153,-80,234,-927,-2039,-1220,-502,-78,209
204,468,263,-336,-29,366,-1239,-2493,-1459,-551,-9,370
317,614,297,-466,9,456,-1517,-2864,-1693,-614,39,497
434,727,292,-580,70,509,-1873,-3284,-1981,-712,78,634
634,746,112,-690,261,429,-2137,-3611,-2220,-844,78,717
688,570,-117,-629,402,226,-2161,-3738,-2420,-1049,-53,658
434,161,-273,-297,353,-56,-2005,-3757,-2679,-1488,-541,244
248,-366,-614,58,431,-490,-1790,-3523,-2786,-1908,-1117,-366
0,-619,-619,309,309,-619,-1371,-2864,-2474,-1917,-1356,-707
-292,-448,-156,370,-68,-302,-814,-1917,-1737,-1424,-1093,-668
-253,-297,-43,275,-104,-170,-595,-1322,-1161,-956,-736,-444
-180,-156,24,168,-102,-65,-444,-868,-746,-605,-463,-273
-92,-34,58,63,-75,12,-278,-429,-361,-287,-219,-126
-14,0,14,7,-14,7,-58,-39,-58,-53,-53,-39
0,0,0,0,0,0,73,141,73,24,-4,-14
-24,-4,19,14,-21,7,107,175,107,43,14,-9
-43,-24,19,34,-31,-2,117,195,122,58,14,-14
-58,-43,14,51,-36,-14,112,209,126,53,14,-24
-58,-43,14,51,-36,-14,131,248,146,58,14,-24
-43,-19,24,31,-34,2,161,292,185,87,39,-14
-43,-4,39,24,-41,17,165,312,209,112,48,0
-43,0,43,21,-43,21,165,317,214,117,53,4
-48,-9,39,29,-43,14,165,326,219,117,53,4
-48,-14,34,31,-41,9,180,351,244,126,68,9
-39,-4,34,21,-36,14,185,366,258,146,78,19
-29,9,39,9,-34,24,190,375,268,161,87,29
-29,9,39,9,-34,24,195,385,278,161,92,29
-29,9,39,9,-34,24,204,400,292,170,97,29
-39,0,39,19,-39,19,209,414,302,185,107,34
-48,0,48,24,-48,24,209,419,312,200,107,39
-39,14,53,12,-46,34,214,434,322,209,117,43
-24,19,43,2,-34,31,224,453,336,219,122,53
-19,34,53,-7,-36,43,234,483,361,229,141,53
-19,34,53,-7,-36,43,239,492,375,244,151,58
-19,39,58,-9,-39,48,244,507,385,253,151,63
-14,48,63,-17,-39,56,248,527,405,263,161,68
-4,53,58,-24,-31,56,263,541,419,273,170,68
0,63,63,-31,-31,63,273,566,434,287,185,78
9,73,63,-41,-26,68,273,585,453,302,195,82
9,82,73,-46,-31,78,283,605,468,317,204,92
-9,73,82,-31,-46,78,283,624,492,326,204,87
-29,58,87,-14,-58,73,273,639,507,341,204,82
-14,73,87,-29,-51,80,297,663,531,361,224,102
4,102,97,-53,-46,100,317,692,551,375,244,117
14,112,97,-63,-41,104,331,727,575,395,258,122
24,122,97,-73,-36,109,336,756,610,424,268,131
24,131,107,-78,-41,119,351,785,629,444,283,136
24,131,107,-78,-41,119,366,810,649,448,292,136
24,131,107,-78,-41,119,380,839,678,473,302,141
24,136,112,-80,-43,124,390,863,697,488,312,141
14,136,122,-75,-53,129,419,907,727,512,331,151
4,131,126,-68,-61,129,434,941,756,536,341,151
29,156,126,-92,-48,141,448,990,795,561,361,165
48,180,131,-114,-41,156,473,1039,829,585,375,170
68,204,136,-136,-34,170,497,1083,863,605,395,185
78,214,136,-146,-29,175,517,1122,893,629,409,185
63,204,141,-134,-39,173,531,1166,927,649,409,185
48,204,156,-126,-53,180,561,1205,961,673,419,190
58,214,156,-136,-48,185,585,1254,1000,692,439,200
58,224,165,-141,-53,195,614,1298,1034,717,448,200
78,248,170,-163,-46,209,634,1342,1073,741,468,204
82,258,175,-170,-46,217,658,1376,1098,761,483,214
87,263,175,-175,-43,219,673,1405,1122,771,492,204
92,273,180,-183,-43,226,692,1444,1151,790,497,204
87,263,175,-175,-43,219,707,1449,1156,795,492,204
82,253,170,-168,-43,212,712,1449,1151,790,497,195
82,253,170,-168,-43,212,707,1444,1151,790,483,180
82,248,165,-165,-41,207,702,1420,1137,775,468,170
82,244,161,-163,-39,202,692,1376,1112,761,453,156
73,229,156,-151,-41,192,663,1317,1063,722,424,136
73,219,146,-146,-36,183,634,1259,1019,692,400,122
73,204,131,-139,-29,168,595,1190,961,653,370,107
53,180,126,-117,-36,153,551,1093,893,600,331,82
43,165,122,-104,-39,143,502,990,814,546,292,63
58,165,107,-112,-24,136,448,893,732,488,258,48
68,146,78,-107,-4,112,390,780,639,419,209,24
58,117,58,-87,0,87,331,658,536,341,175,14
48,82,34,-65,7,58,273,536,434,263,136,0
48,63,14,-56,17,39,219,448,366,219,102,-9
48,48,0,-48,24,24,165,366,292,170,68,-24
58,43,-14,-51,36,14,117,278,214,122,34,-29
63,43,-19,-53,41,12,82,200,156,87,14,-29
43,4,-39,-24,41,-17,43,131,102,43,0,-24
14,-24,-39,4,26,-31,9,82,43,9,-14,-24
24,-29,-53,2,39,-41,-9,24,9,-4,-19,-24
34,-19,-53,-7,43,-36,-19,0,-4,-19,-19,-19
34,-9,-43,-12,39,-26,-29,-24,-29,-34,-24,-14
24,-9,-34,-7,29,-21,-48,-48,-53,-48,-34,-14
4,-39,-43,17,24,-41,-58,-68,-78,-58,-34,-14
0,-48,-48,24,24,-48,-58,-82,-82,-68,-34,-9
-9,-53,-43,31,17,-48,-68,-97,-97,-73,-39,-9
-9,-53,-43,31,17,-48,-68,-102,-102,-73,-43,-14
0,-39,-39,19,19,-39,-63,-107,-97,-73,-43,-14
4,-29,-34,12,19,-31,-63,-107,-87,-73,-43,-9
4,-34,-39,14,21,-36,-63,-107,-92,-73,-43,-9
4,-34,-39,14,21,-36,-63,-107,-92,-73,-43,-9
0,-24,-24,12,12,-24,-58,-107,-92,-73,-43,-9
-24,-43,-19,34,-2,-31,-58,-107,-97,-73,-43,-9
-24,-53,-29,39,2,-41,-63,-107,-97,-78,-43,-9
-14,-53,-39,34,12,-46,-63,-107,-97,-78,-43,-9
0,-43,-43,21,21,-43,-58,-107,-92,-73,-43,-9
0,-39,-39,19,19,-39,-58,-102,-87,-68,-43,-9
0,-39,-39,19,19,-39,-58,-102,-87,-63,-34,-4
0,-39,-39,19,19,-39,-58,-97,-87,-63,-29,-4
0,-29,-29,14,14,-29,-58,-97,-87,-63,-29,-4
0,-14,-14,7,7,-14,-58,-97,-87,-63,-29,-4
9,-19,-29,4,19,-24,-58,-97,-82,-63,-24,-4
0,-34,-34,17,17,-34,-53,-87,-78,-58,-24,0
4,-34,-39,14,21,-36,-53,-87,-78,-58,-24,0
14,-24,-39,4,26,-31,-53,-87,-78,-58,-24,0
14,-19,-34,2,24,-26,-48,-78,-73,-58,-24,0
24,-9,-34,-7,29,-21,-43,-78,-68,-53,-14,0
-4,-34,-29,19,12,-31,-43,-87,-68,-48,-29,-4
-39,-63,-24,51,-7,-43,-43,-92,-73,-48,-43,-9
-29,-53,-24,41,-2,-39,-43,-82,-73,-48,-39,-9
-9,-24,-14,17,2,-19,-39,-73,-73,-48,-29,-9
-9,-19,-9,14,0,-14,-39,-68,-68,-43,-24,-4
-9,-19,-9,14,0,-14,-34,-68,-68,-43,-24,0
-14,-24,-9,19,-2,-17,-34,-63,-63,-43,-24,0
-29,-39,-9,34,-9,-24,-34,-63,-63,-43,-29,-4
-29,-39,-9,34,-9,-24,-29,-58,-58,-43,-29,-4
-29,-34,-4,31,-12,-19,-29,-58,-58,-43,-29,-4
-14,-29,-14,21,0,-21,-24,-58,-53,-43,-14,-4
-4,-24,-19,14,7,-21,-24,-53,-48,-43,-9,-4
-14,-19,-4,17,-4,-12,-24,-53,-48,-43,-24,-4
-19,-14,4,17,-12,-4,-24,-53,-53,-48,-24,-9
-39,-34,4,36,-21,-14,-29,-53,-58,-48,-24,-9
-53,-53,0,53,-26,-26,-29,-53,-58,-48,-24,-9
-39,-34,4,36,-21,-14,-29,-53,-58,-43,-24,-9
-29,-19,9,24,-19,-4,-29,-48,-58,-43,-24,-14
-24,-14,9,19,-17,-2,-19,-48,-58,-43,-24,-14
-9,-14,-4,12,-2,-9,-14,-48,-58,-48,-24,-14
-19,-14,4,17,-12,-4,-19,-58,-63,-48,-29,-19
-39,-29,9,34,-24,-9,-19,-58,-63,-48,-34,-19
-43,-43,0,43,-21,-21,-19,-58,-68,-58,-34,-24
-43,-53,-9,48,-17,-31,-19,-58,-68,-58,-34,-24
-34,-24,9,29,-21,-7,-19,-58,-68,-53,-34,-24
-34,-14,19,24,-26,2,-19,-58,-68,-53,-34,-24
-43,-29,14,36,-29,-7,-19,-63,-73,-58,-39,-24
-53,-43,9,48,-31,-17,-24,-68,-82,-68,-48,-34
-63,-58,4,61,-34,-26,-24,-68,-82,-68,-48,-34
-68,-68,0,68,-34,-34,-24,-68,-82,-68,-43,-34
-43,-43,0,43,-21,-21,-24,-68,-82,-73,-43,-29
-43,-24,19,34,-31,-2,-24,-78,-87,-73,-48,-29
-43,-34,9,39,-26,-12,-24,-78,-87,-73,-48,-34
-43,-43,0,43,-21,-21,-29,-82,-92,-78,-53,-39
-43,-48,-4,46,-19,-26,-34,-82,-97,-78,-53,-39
-53,-53,0,53,-26,-26,-34,-82,-97,-78,-53,-39
-48,-53,-4,51,-21,-29,-34,-82,-97,-78,-53,-39
-43,-48,-4,46,-19,-26,-34,-82,-97,-78,-53,-39
-34,-39,-4,36,-14,-21,-34,-82,-92,-73,-48,-34
-24,-24,0,24,-12,-12,-34,-82,-92,-73,-48,-29
-19,-19,0,19,-9,-9,-34,-78,-92,-78,-48,-29
-14,-14,0,14,-7,-7,-34,-73,-92,-78,-48,-29
0,0,0,0,0,0,-24,-73,-82,-78,-48,-29
14,14,0,-14,7,7,-19,-87,-82,-82,-53,-34
-19,-34,-14,26,-2,-24,-29,-92,-92,-92,-63,-43
-48,-68,-19,58,-14,-43,-39,-97,-107,-97,-68,-48
-48,-68,-19,58,-14,-43,-43,-102,-112,-97,-68,-43
-39,-53,-14,46,-12,-34,-43,-97,-112,-92,-63,-43
-48,-63,-14,56,-17,-39,-43,-107,-112,-92,-63,-48
-58,-78,-19,68,-19,-48,-48,-107,-117,-92,-63,-53
-58,-68,-9,63,-24,-39,-48,-107,-112,-97,-63,-53
-63,-58,4,61,-34,-26,-48,-112,-112,-97,-68,-53
-63,-63,0,63,-31,-31,-53,-112,-112,-97,-68,-58
-58,-63,-4,61,-26,-34,-53,-112,-112,-97,-73,-58
-58,-63,-4,61,-26,-34,-53,-112,-112,-97,-73,-58
-58,-63,-4,61,-26,-34,-58,-112,-112,-97,-73,-58
-53,-53,0,53,-26,-26,-53,-112,-112,-97,-68,-58
-43,-34,9,39,-26,-12,-39,-112,-107,-97,-68,-53
-43,-48,-4,46,-19,-26,-39,-117,-107,-97,-68,-53
-48,-53,-4,51,-21,-29,-48,-117,-112,-97,-68,-53
-48,-53,-4,51,-21,-29,-48,-117,-112,-97,-68,-48
-48,-48,0,48,-24,-24,-43,-117,-112,-97,-68,-43
-24,-29,-4,26,-9,-17,-43,-112,-112,-97,-68,-43
-4,-14,-9,9,2,-12,-43,-112,-112,-97,-68,-43
-24,-34,-9,29,-7,-21,-48,-112,-112,-97,-68,-48
-48,-53,-4,51,-21,-29,-48,-122,-117,-102,-73,-48
-53,-53,0,53,-26,-26,-48,-122,-117,-102,-73,-48
-53,-48,4,51,-29,-21,-53,-122,-117,-102,-73,-48
-39,-48,-9,43,-14,-29,-53,-122,-117,-97,-73,-48
-29,-48,-19,39,-4,-34,-48,-122,-117,-97,-78,-43
-39,-53,-14,46,-12,-34,-53,-117,-122,-102,-78,-43
-34,-63,-29,48,-2,-46,-58,-122,-126,-112,-78,-48
-39,-58,-19,48,-9,-39,-58,-122,-126,-102,-73,-48
-48,-58,-9,53,-19,-34,-58,-126,-126,-97,-68,-48
-34,-43,-9,39,-12,-26,-43,-117,-117,-97,-68,-48
-19,-29,-9,24,-4,-19,-29,-107,-107,-97,-68,-48
-29,-39,-9,34,-9,-24,-39,-107,-107,-97,-68,-48
-39,-48,-9,43,-14,-29,-48,-107,-107,-97,-68,-48
-39,-48,-9,43,-14,-29,-48,-107,-107,-97,-68,-48
-39,-48,-9,43,-14,-29,-48,-107,-107,-97,-68,-48
-24,-39,-14,31,-4,-26,-48,-107,-107,-97,-68,-48
-9,-29,-19,19,4,-24,-48,-107,-107,-97,-68,-48
-34,-53,-19,43,-7,-36,-53,-117,-117,-102,-78,-53
-58,-78,-19,68,-19,-48,-58,-126,-126,-107,-87,-58
-58,-78,-19,68,-19,-48,-58,-126,-126,-107,-87,-58
-58,-78,-19,68,-19,-48,-58,-126,-126,-107,-87,-58
-48,-63,-14,56,-17,-39,-58,-122,-122,-107,-82,-53
-39,-48,-9,43,-14,-29,-58,-117,-117,-107,-78,-48
-39,-48,-9,43,-14,-29,-58,-117,-117,-107,-78,-48
-39,-48,-9,43,-14,-29,-58,-117,-117,-107,-78,-48
-39,-48,-9,43,-14,-29,-53,-117,-117,-107,-78,-48
-39,-48,-9,43,-14,-29,-48,-117,-117,-107,-78,-48
-39,-48,-9,43,-14,-29,-48,-117,-117,-102,-73,-48
-39,-48,-9,43,-14,-29,-48,-117,-117,-97,-68,-48
-34,-43,-9,39,-12,-26,-48,-117,-117,-97,-68,-48
-29,-39,-9,34,-9,-24,-48,-117,-117,-97,-68,-48
-29,-39,-9,34,-9,-24,-48,-117,-117,-97,-68,-48
-29,-39,-9,34,-9,-24,-48,-117,-117,-97,-68,-48
-39,-53,-14,46,-12,-34,-48,-117,-117,-102,-73,-48
-48,-68,-19,58,-14,-43,-48,-117,-117,-107,-78,-48
-48,-68,-19,58,-14,-43,-53,-117,-117,-107,-78,-48
-48,-68,-19,58,-14,-43,-58,-117,-117,-107,-78,-48
-34,-53,-19,43,-7,-36,-58,-117,-117,-107,-78,-48
-19,-39,-19,29,0,-29,-58,-117,-117,-107,-78,-48
-34,-53,-19,43,-7,-36,-58,-117,-117,-107,-78,-48
-48,-68,-19,58,-14,-43,-58,-117,-117,-107,-78,-48
-34,-48,-14,41,-9,-31,-53,-117,-112,-102,-73,-48
-19,-29,-9,24,-4,-19,-48,-117,-107,-97,-68,-48
-19,-29,-9,24,-4,-19,-48,-117,-107,-97,-68,-48
-19,-29,-9,24,-4,-19,-48,-117,-107,-97,-68,-48
-34,-43,-9,39,-12,-26,-53,-117,-112,-97,-73,-53
-48,-58,-9,53,-19,-34,-58,-117,-117,-97,-78,-58
-48,-58,-9,53,-19,-34,-58,-117,-117,-97,-78,-58
-48,-58,-9,53,-19,-34,-58,-117,-117,-97,-78,-58
-48,-58,-9,53,-19,-34,-58,-117,-117,-97,-78,-53
-48,-58,-9,53,-19,-34,-58,-117,-117,-97,-78,-48
-39,-48,-9,43,-14,-29,-53,-112,-117,-97,-78,-48
-29,-39,-9,34,-9,-24,-48,-107,-117,-97,-78,-48
-29,-39,-9,34,-9,-24,-48,-107,-117,-97,-78,-48
-29,-39,-9,34,-9,-24,-48,-107,-117,-97,-78,-48
-39,-48,-9,43,-14,-29,-48,-107,-112,-97,-73,-48
-48,-58,-9,53,-19,-34,-48,-107,-107,-97,-68,-48
-24,-39,-14,31,-4,-26,-34,-87,-92,-87,-63,-43
0,-19,-19,9,9,-19,-19,-68,-78,-78,-58,-39
0,-19,-19,9,9,-19,-9,-63,-73,-73,-53,-34
0,-19,-19,9,9,-19,0,-58,-68,-68,-48,-29
4,-19,-24,7,14,-21,9,-43,-63,-63,-43,-24
24,0,-24,-12,24,-12,19,-29,-48,-53,-34,-14
48,24,-24,-36,36,0,34,-14,-39,-43,-24,-4
87,63,-24,-75,56,19,58,9,-14,-29,-14,9
82,53,-29,-68,56,12,63,14,-9,-14,-4,14
82,58,-24,-70,53,17,63,29,4,0,4,24
97,63,-34,-80,65,14,58,34,9,0,9,29
122,63,-58,-92,90,2,34,39,14,0,19,34
136,58,-78,-97,107,-9,4,19,4,0,19,34
107,39,-68,-73,87,-14,-43,-29,-24,-29,0,19
102,34,-68,-68,85,-17,-68,-53,-43,-34,-9,9
102,24,-78,-63,90,-26,-92,-78,-63,-48,-19,4
97,4,-92,-51,95,-43,-92,-82,-63,-48,-19,4
97,-4,-102,-46,100,-53,-87,-82,-68,-53,-29,-4
68,-24,-92,-21,80,-58,-87,-97,-87,-73,-43,-14
48,-34,-82,-7,65,-58,-102,-117,-97,-87,-48,-14
63,-14,-78,-24,70,-46,-102,-122,-102,-87,-48,-14
73,-4,-78,-34,75,-41,-102,-122,-102,-87,-53,-19
58,-14,-73,-21,65,-43,-97,-126,-117,-92,-58,-24
29,-34,-63,2,46,-48,-97,-131,-131,-112,-73,-43
-9,-48,-39,29,14,-43,-87,-131,-131,-112,-82,-53
-43,-63,-19,53,-12,-41,-73,-126,-131,-112,-82,-53
-48,-68,-19,58,-14,-43,-63,-126,-131,-117,-87,-58
-58,-73,-14,65,-21,-43,-58,-126,-131,-122,-92,-58
-58,-68,-9,63,-24,-39,-58,-126,-131,-122,-92,-68
-68,-78,-9,73,-29,-43,-58,-131,-131,-122,-92,-68
-68,-78,-9,73,-29,-43,-58,-131,-136,-122,-97,-68
-68,-73,-4,70,-31,-39,-58,-126,-136,-122,-102,-63
-63,-68,-4,65,-29,-36,-53,-126,-126,-122,-102,-63
-63,-68,-4,65,-29,-36,-53,-126,-122,-122,-102,-63
-58,-73,-14,65,-21,-43,-53,-126,-126,-122,-102,-68
-58,-73,-14,65,-21,-43,-53,-126,-126,-122,-97,-68
-73,-82,-9,78,-31,-46,-53,-126,-131,-126,-97,-68
-82,-87,-4,85,-39,-46,-53,-131,-136,-126,-102,-73
-82,-87,-4,85,-39,-46,-53,-131,-136,-126,-107,-73
-78,-73,4,75,-41,-34,-53,-126,-136,-122,-107,-68
-78,-82,-4,80,-36,-43,-48,-126,-131,-122,-107,-63
-78,-92,-14,85,-31,-53,-48,-126,-131,-122,-107,-63
-78,-87,-9,82,-34,-48,-48,-126,-131,-122,-107,-68
-78,-82,-4,80,-36,-43,-43,-112,-122,-117,-97,-68
-78,-82,-4,80,-36,-43,-53,-122,-131,-117,-102,-73
-73,-82,-9,78,-31,-46,-63,-112,-126,-112,-87,-73
-63,-87,-24,75,-19,-56,-24,48,14,-9,-29,-39
-63,-68,-4,65,-29,-36,14,175,146,87,39,9
-87,-4,82,46,-85,39,-29,-48,63,82,68,39
-102,58,161,21,-131,109,-214,-546,-209,-14,53,82
-107,87,195,9,-151,141,-409,-1083,-595,-219,-29,87
-43,136,180,-46,-112,158,-746,-1747,-1039,-458,-126,107
112,322,209,-217,-48,265,-1083,-2254,-1337,-561,-112,219
253,492,239,-373,7,366,-1346,-2659,-1581,-634,-68,336
385,683,297,-534,43,490,-1742,-3142,-1873,-707,14,512
614,780,165,-697,224,473,-2088,-3542,-2117,-790,73,658
800,751,-48,-775,424,351,-2225,-3757,-2303,-883,112,795
658,453,-204,-556,431,124,-2191,-3904,-2591,-1254,-239,546
483,-234,-717,-124,600,-475,-2127,-3923,-2942,-1883,-985,-170
224,-649,-873,212,549,-761,-1800,-3469,-2864,-2127,-1434,-668
-170,-497,-326,334,78,-412,-1117,-2415,-2103,-1668,-1249,-722
-244,-361,-117,302,-63,-239,-775,-1673,-1464,-1190,-922,-551
-200,-204,-4,202,-97,-104,-610,-1151,-990,-795,-610,-356
-141,-63,78,102,-109,7,-429,-683,-561,-439,-336,-185
-68,-14,53,41,-61,19,-151,-204,-180,-146,-126,-82
-24,4,29,9,-26,17,29,78,29,-9,-29,-43
-34,4,39,14,-36,21,78,136,78,29,0,-34
-53,-9,43,31,-48,17,102,165,107,63,4,-29
-68,-24,43,46,-56,9,102,180,117,48,4,-34
-68,-24,43,46,-56,9,122,219,136,39,4,-34
-53,4,58,24,-56,31,156,268,175,78,29,-19
-53,9,63,21,-58,36,165,292,200,112,39,-4
-53,0,53,26,-53,26,165,297,204,117,43,-4
-58,0,58,29,-58,29,165,312,209,117,43,-4
-63,-9,53,36,-58,21,180,341,234,126,58,-4
-58,-14,43,36,-51,14,185,356,248,146,68,0
-48,0,48,24,-48,24,180,366,258,161,78,9
-48,0,48,24,-48,24,175,375,268,161,82,9
-39,19,58,9,-48,39,195,395,283,170,87,9
-39,29,68,4,-53,48,209,414,292,180,97,14
-48,19,68,14,-58,43,209,419,302,190,97,19
-39,24,63,7,-51,43,214,434,312,200,107,24
-24,29,53,-2,-39,41,224,453,326,209,112,34
-19,43,63,-12,-41,53,234,478,346,219,126,34
-9,58,68,-24,-39,63,239,483,356,234,131,43
-4,73,78,-34,-41,75,239,492,366,244,131,53
-14,63,78,-24,-46,70,239,507,385,253,141,58
-19,53,73,-17,-46,63,253,522,400,263,151,58
-39,43,82,-2,-61,63,263,546,414,278,165,63
-48,34,82,7,-65,58,263,566,434,292,175,63
-34,58,92,-12,-63,75,273,585,448,307,185,73
-19,78,97,-29,-58,87,283,605,473,317,195,78
-14,92,107,-39,-61,100,287,624,492,336,204,87
-4,107,112,-51,-58,109,307,653,522,361,214,102
4,112,107,-58,-51,109,317,683,541,375,224,107
9,112,102,-61,-46,107,331,712,561,390,239,112
14,122,107,-68,-46,114,331,732,585,414,248,122
14,131,117,-73,-51,124,341,756,600,434,263,126
9,126,117,-68,-53,122,356,780,619,439,273,126
4,122,117,-63,-56,119,370,814,653,463,283,136
4,126,122,-65,-58,124,375,844,678,478,292,141
9,141,131,-75,-61,136,400,888,707,502,312,151
14,151,136,-82,-61,143,414,922,736,527,326,151
24,161,136,-92,-56,148,429,966,771,551,346,161
39,185,146,-112,-53,165,453,1010,800,575,356,161
58,214,156,-136,-48,185,478,1054,834,595,375,175
48,204,156,-126,-53,180,497,1093,863,619,390,175
39,195,156,-117,-58,175,512,1137,897,639,395,175
39,204,165,-122,-63,185,541,1176,932,663,409,180
48,214,165,-131,-58,190,566,1224,971,683,429,190
48,224,175,-136,-63,200,595,1273,1005,707,439,195
63,244,180,-153,-58,212,614,1322,1044,732,453,204
63,248,185,-156,-61,217,644,1356,1068,751,463,214
68,253,185,-161,-58,219,668,1385,1093,761,473,204
73,263,190,-168,-58,226,692,1424,1122,780,478,204
73,263,190,-168,-58,226,707,1444,1137,790,478,204
73,263,190,-168,-58,226,712,1459,1141,790,488,195
73,263,190,-168,-58,226,712,1459,1141,790,473,180
78,258,180,-168,-51,219,717,1454,1137,780,463,170
82,253,170,-168,-43,212,717,1434,1132,775,458,161
73,239,165,-156,-46,202,697,1390,1098,741,434,146
73,234,161,-153,-43,197,678,1337,1063,717,414,131
73,229,156,-151,-41,192,649,1278,1015,683,390,117
63,209,146,-136,-41,178,610,1200,956,634,356,92
63,195,131,-129,-34,163,561,1107,888,595,322,73
63,185,122,-124,-29,153,507,1010,810,546,287,58
68,161,92,-114,-12,126,458,907,722,478,244,34
78,151,73,-114,2,112,409,810,639,414,214,24
78,131,53,-104,12,92,341,692,551,351,175,4
78,112,34,-95,21,73,273,575,468,297,141,-9
48,68,19,-58,14,43,209,463,370,224,102,-24
19,19,0,-19,9,9,156,366,283,156,63,-29
43,24,-19,-34,31,2,122,287,224,131,43,-29
73,29,-43,-51,58,-7,82,214,170,102,29,-24
48,24,-24,-36,36,0,43,146,107,58,9,-29
34,9,-24,-21,29,-7,14,73,58,29,-4,-34
34,9,-24,-21,29,-7,-4,48,34,9,-9,-29
34,9,-24,-21,29,-7,-19,14,9,-4,-14,-24
29,0,-29,-14,29,-14,-39,-24,-19,-24,-24,-24
19,-19,-39,0,29,-29,-48,-48,-48,-39,-24,-24
19,-19,-39,0,29,-29,-48,-63,-53,-48,-24,-19
9,-24,-34,7,21,-29,-58,-78,-68,-53,-29,-19
9,-24,-34,7,21,-29,-63,-82,-78,-53,-34,-24
4,-24,-29,9,17,-26,-68,-92,-87,-58,-34,-24
-19,-43,-24,31,2,-34,-73,-97,-87,-63,-34,-19
-34,-63,-29,48,-2,-46,-73,-97,-92,-63,-34,-19
-14,-48,-34,31,9,-41,-73,-97,-92,-58,-34,-14
14,-19,-34,2,24,-26,-68,-97,-92,-53,-34,-9
4,-34,-39,14,21,-36,-68,-97,-97,-53,-34,-9
-4,-43,-39,24,17,-41,-73,-97,-97,-58,-34,-9
-9,-48,-39,29,14,-43,-73,-97,-97,-63,-34,-9
0,-43,-43,21,21,-43,-68,-97,-92,-63,-34,-9
0,-39,-39,19,19,-39,-68,-92,-87,-58,-34,-9
0,-39,-39,19,19,-39,-68,-92,-87,-53,-29,-4
0,-39,-39,19,19,-39,-68,-87,-87,-53,-29,-4
0,-43,-43,21,21,-43,-68,-87,-87,-53,-29,-4
0,-43,-43,21,21,-43,-68,-87,-87,-53,-29,-4
9,-34,-43,12,26,-39,-68,-87,-82,-53,-24,-4
0,-34,-34,17,17,-34,-63,-78,-78,-48,-24,0
-4,-43,-39,24,17,-41,-63,-78,-78,-48,-24,0
-9,-43,-34,26,12,-39,-63,-82,-78,-48,-29,-4
-14,-39,-24,26,4,-31,-58,-78,-73,-48,-34,-9
-4,-29,-24,17,9,-26,-53,-78,-68,-43,-24,-9
-4,-29,-24,17,9,-26,-53,-78,-63,-39,-24,-9
4,-34,-39,14,21,-36,-53,-73,-63,-39,-14,0
9,-43,-53,17,31,-48,-53,-73,-63,-39,-9,9
0,-39,-39,19,19,-39,-48,-73,-63,-39,-19,0
-9,-39,-29,24,9,-34,-48,-68,-58,-34,-24,-9
-24,-48,-24,36,0,-36,-43,-68,-58,-43,-24,-9
-39,-58,-19,48,-9,-39,-43,-63,-53,-53,-24,-9
-29,-53,-24,41,-2,-39,-39,-58,-53,-43,-29,-9
-9,-39,-29,24,9,-34,-29,-48,-48,-34,-29,-4
-9,-34,-24,21,7,-29,-29,-48,-48,-34,-29,-4
-4,-34,-29,19,12,-31,-24,-48,-48,-34,-19,-4
4,-24,-29,9,17,-26,-24,-48,-48,-29,-19,-4
4,-19,-24,7,14,-21,-24,-53,-48,-24,-34,-4
-9,-34,-24,21,7,-29,-24,-53,-53,-29,-34,-9
-24,-43,-19,34,-2,-31,-24,-53,-53,-29,-34,-9
-24,-43,-19,34,-2,-31,-19,-53,-48,-29,-34,-9
-19,-39,-19,29,0,-29,-19,-53,-48,-24,-34,-9
-24,-39,-14,31,-4,-26,-24,-48,-48,-24,-34,-14
-29,-34,-4,31,-12,-19,-24,-48,-48,-24,-34,-14
-19,-34,-14,26,-2,-24,-24,-48,-48,-29,-34,-14
-29,-34,-4,31,-12,-19,-29,-58,-53,-29,-39,-19
-48,-48,0,48,-24,-24,-29,-58,-53,-29,-43,-19
-48,-53,-4,51,-21,-29,-29,-58,-58,-39,-43,-24
-43,-63,-19,53,-12,-41,-29,-53,-53,-39,-39,-24
-34,-53,-19,43,-7,-36,-29,-48,-48,-34,-34,-24
-24,-34,-9,29,-7,-21,-29,-48,-48,-34,-34,-24
-24,-29,-4,26,-9,-17,-29,-53,-53,-39,-39,-24
-48,-58,-9,53,-19,-34,-34,-58,-63,-48,-48,-34
-63,-73,-9,68,-26,-41,-34,-58,-63,-48,-48,-34
-39,-48,-9,43,-14,-29,-34,-58,-63,-48,-43,-34
-4,-24,-19,14,7,-21,-34,-58,-63,-53,-43,-29
-34,-48,-14,41,-9,-31,-34,-73,-68,-58,-53,-34
-53,-73,-19,63,-17,-46,-34,-78,-68,-63,-58,-43
-43,-63,-19,53,-12,-41,-39,-82,-73,-68,-63,-48
-34,-58,-24,46,-4,-41,-43,-82,-78,-68,-63,-48
-43,-63,-19,53,-12,-41,-43,-78,-78,-68,-63,-48
-43,-68,-24,56,-9,-46,-43,-78,-78,-68,-63,-48
-34,-58,-24,46,-4,-41,-43,-82,-78,-68,-63,-48
-19,-48,-29,34,4,-39,-43,-82,-78,-68,-63,-48
-39,-63,-24,51,-7,-43,-43,-82,-92,-73,-68,-48
-63,-82,-19,73,-21,-51,-43,-82,-102,-78,-68,-48
-48,-73,-24,61,-12,-48,-43,-82,-92,-78,-63,-48
-34,-63,-29,48,-2,-46,-43,-82,-82,-78,-58,-48
-29,-58,-29,43,0,-43,-48,-97,-92,-82,-63,-48
-34,-68,-34,51,0,-51,-48,-97,-92,-87,-68,-48
-39,-68,-29,53,-4,-48,-48,-97,-97,-87,-68,-48
-39,-68,-29,53,-4,-48,-53,-97,-97,-87,-68,-43
-29,-53,-24,41,-2,-39,-53,-87,-92,-82,-63,-43
-29,-53,-24,41,-2,-39,-48,-97,-92,-82,-63,-43
-34,-63,-29,48,-2,-46,-48,-97,-97,-82,-63,-48
-39,-68,-29,53,-4,-48,-48,-97,-97,-87,-63,-53
-43,-68,-24,56,-9,-46,-48,-102,-107,-87,-68,-53
-43,-73,-29,58,-7,-51,-53,-102,-112,-87,-68,-58
-39,-73,-34,56,-2,-53,-53,-107,-112,-92,-78,-58
-39,-73,-34,56,-2,-53,-53,-112,-112,-97,-82,-58
-39,-73,-34,56,-2,-53,-58,-112,-112,-97,-82,-58
-39,-68,-29,53,-4,-48,-58,-112,-112,-97,-78,-58
-34,-53,-19,43,-7,-36,-48,-107,-107,-92,-73,-53
-34,-68,-34,51,0,-51,-48,-107,-107,-87,-68,-53
-39,-73,-34,56,-2,-53,-58,-107,-112,-87,-68,-53
-39,-73,-34,56,-2,-53,-58,-107,-112,-87,-68,-53
-39,-58,-19,48,-9,-39,-53,-112,-112,-87,-73,-53
-34,-43,-9,39,-12,-26,-53,-112,-112,-87,-78,-53
-43,-58,-14,51,-14,-36,-53,-112,-112,-87,-78,-53
-53,-78,-24,65,-14,-51,-58,-112,-112,-87,-78,-58
-48,-73,-24,61,-12,-48,-58,-122,-117,-92,-82,-58
-43,-63,-19,53,-12,-41,-58,-122,-117,-92,-82,-58
-43,-58,-14,51,-14,-36,-63,-122,-117,-92,-78,-53
-39,-58,-19,48,-9,-39,-63,-122,-117,-87,-68,-48
-43,-68,-24,56,-9,-46,-58,-122,-117,-87,-68,-43
-39,-73,-34,56,-2,-53,-58,-112,-117,-87,-68,-43
-43,-73,-29,58,-7,-51,-58,-112,-117,-92,-73,-48
-53,-73,-19,63,-17,-46,-63,-112,-122,-97,-78,-58
-39,-63,-24,51,-7,-43,-58,-107,-112,-92,-73,-53
-29,-58,-29,43,0,-43,-58,-107,-107,-87,-68,-48
-34,-58,-24,46,-4,-41,-58,-107,-107,-87,-68,-48
-39,-58,-19,48,-9,-39,-58,-107,-107,-87,-68,-48
-53,-68,-14,61,-19,-41,-58,-112,-112,-87,-68,-48
-68,-78,-9,73,-29,-43,-58,-117,-117,-87,-68,-48
-53,-68,-14,61,-19,-41,-58,-117,-117,-87,-68,-48
-39,-58,-19,48,-9,-39,-58,-117,-117,-87,-68,-48
-24,-48,-24,36,0,-36,-58,-117,-117,-87,-68,-48
-9,-39,-29,24,9,-34,-58,-117,-117,-87,-68,-48
-29,-53,-24,41,-2,-39,-58,-122,-117,-87,-78,-53
-48,-68,-19,58,-14,-43,-58,-126,-117,-87,-87,-58
-58,-68,-9,63,-24,-39,-58,-126,-117,-87,-78,-58
-68,-68,0,68,-34,-34,-58,-126,-117,-87,-68,-58
-53,-63,-9,58,-21,-36,-58,-117,-112,-87,-68,-58
-39,-58,-19,48,-9,-39,-58,-107,-107,-87,-68,-58
-39,-58,-19,48,-9,-39,-58,-107,-107,-87,-68,-53
-39,-58,-19,48,-9,-39,-58,-107,-107,-87,-68,-48
-48,-63,-14,56,-17,-39,-58,-112,-107,-87,-68,-48
-58,-68,-9,63,-24,-39,-58,-117,-107,-87,-68,-48
-58,-68,-9,63,-24,-39,-58,-117,-107,-87,-68,-48
-58,-68,-9,63,-24,-39,-58,-117,-107,-87,-68,-48
-43,-63,-19,53,-12,-41,-58,-117,-107,-87,-68,-48
-29,-58,-29,43,0,-43,-58,-117,-107,-87,-68,-48
-29,-58,-29,43,0,-43,-58,-117,-107,-87,-68,-48
-29,-58,-29,43,0,-43,-58,-117,-107,-87,-68,-48
-29,-48,-19,39,-4,-34,-58,-117,-107,-87,-68,-53
-29,-39,-9,34,-9,-24,-58,-117,-107,-87,-68,-58
-39,-53,-14,46,-12,-34,-58,-117,-107,-87,-68,-58
-48,-68,-19,58,-14,-43,-58,-117,-107,-87,-68,-58
-29,-43,-14,36,-7,-29,-53,-117,-107,-87,-58,-53
-9,-19,-9,14,0,-14,-48,-117,-107,-87,-48,-48
-19,-29,-9,24,-4,-19,-48,-117,-107,-87,-58,-48
-29,-39,-9,34,-9,-24,-48,-117,-107,-87,-68,-48
-39,-53,-14,46,-12,-34,-48,-117,-112,-92,-68,-53
-48,-68,-19,58,-14,-43,-48,-117,-117,-97,-68,-58
-48,-68,-19,58,-14,-43,-48,-117,-117,-97,-68,-58
-48,-68,-19,58,-14,-43,-48,-117,-117,-97,-68,-58
-63,-78,-14,70,-24,-46,-53,-117,-117,-97,-73,-58
-78,-87,-9,82,-34,-48,-58,-117,-117,-97,-78,-58
-68,-78,-9,73,-29,-43,-58,-117,-117,-97,-78,-58
-58,-68,-9,63,-24,-39,-58,-117,-117,-97,-78,-58
-58,-68,-9,63,-24,-39,-58,-117,-117,-97,-78,-58
-58,-68,-9,63,-24,-39,-58,-117,-117,-97,-78,-58
-58,-68,-9,63,-24,-39,-58,-117,-117,-97,-78,-58
-58,-68,-9,63,-24,-39,-58,-117,-117,-97,-78,-58
-53,-58,-4,56,-24,-31,-48,-112,-112,-92,-73,-53
-48,-48,0,48,-24,-24,-39,-107,-107,-87,-68,-48
-48,-48,0,48,-24,-24,-39,-107,-107,-87,-68,-48
-48,-48,0,48,-24,-24,-39,-107,-107,-87,-68,-48
-34,-43,-9,39,-12,-26,-24,-87,-87,-78,-58,-43
-19,-39,-19,29,0,-29,-9,-68,-68,-68,-48,-39
-14,-34,-19,24,2,-26,0,-63,-68,-63,-48,-34
-9,-29,-19,19,4,-24,9,-58,-68,-58,-48,-29
-9,-29,-19,19,4,-24,14,-48,-58,-53,-43,-29
4,-14,-19,4,12,-17,24,-34,-43,-43,-29,-19
19,0,-19,-9,19,-9,34,-24,-34,-34,-19,-14
48,24,-24,-36,36,0,58,0,-14,-19,-4,0
53,24,-29,-39,41,-2,63,4,-9,-4,4,4
63,39,-24,-51,43,7,63,19,4,9,14,14
68,43,-24,-56,46,9,58,24,9,9,14,24
82,43,-39,-63,61,2,34,29,14,9,19,34
117,48,-68,-82,92,-9,14,19,14,9,29,34
107,39,-68,-73,87,-14,-24,-19,-4,-19,19,19
102,43,-58,-73,80,-7,-58,-53,-34,-29,0,9
102,43,-58,-73,80,-7,-92,-87,-63,-48,-19,4
82,9,-73,-46,78,-31,-92,-92,-63,-48,-19,0
68,-14,-82,-26,75,-48,-87,-92,-68,-53,-29,-14
48,-24,-73,-12,61,-48,-87,-107,-87,-68,-43,-24
39,-24,-63,-7,51,-43,-102,-126,-97,-78,-48,-24
43,-14,-58,-14,51,-36,-102,-136,-102,-78,-48,-19
43,-14,-58,-14,51,-36,-102,-141,-102,-78,-53,-19
29,-24,-53,-2,41,-39,-92,-141,-117,-82,-58,-24
0,-43,-43,21,21,-43,-87,-141,-131,-102,-73,-43
-29,-53,-24,41,-2,-39,-78,-141,-131,-107,-82,-58
-53,-63,-9,58,-21,-36,-63,-136,-131,-112,-82,-63
-58,-68,-9,63,-24,-39,-58,-136,-131,-117,-87,-68
-68,-73,-4,70,-31,-39,-58,-136,-131,-122,-92,-68
-68,-73,-4,70,-31,-39,-58,-136,-131,-122,-92,-78
-78,-87,-9,82,-34,-48,-58,-141,-131,-122,-92,-78
-78,-87,-9,82,-34,-48,-58,-136,-136,-117,-92,-78
-78,-82,-4,80,-36,-43,-58,-126,-136,-112,-92,-73
-68,-78,-9,73,-29,-43,-53,-126,-131,-112,-92,-73
-63,-78,-14,70,-24,-46,-53,-126,-131,-112,-92,-73
-68,-82,-14,75,-26,-48,-53,-126,-136,-117,-97,-78
-78,-82,-4,80,-36,-43,-53,-126,-136,-122,-97,-78
-82,-82,0,82,-41,-41,-53,-126,-136,-126,-97,-78
-82,-78,4,80,-43,-36,-53,-131,-136,-126,-102,-82
-68,-78,-9,73,-29,-43,-48,-126,-131,-126,-102,-82
-48,-63,-14,56,-17,-39,-43,-117,-126,-122,-97,-78
-48,-63,-14,56,-17,-39,-39,-117,-122,-122,-97,-73
-48,-63,-14,56,-17,-39,-39,-117,-122,-122,-97,-73
-73,-78,-4,75,-34,-41,-43,-126,-126,-122,-97,-82
-97,-92,4,95,-51,-43,-43,-122,-122,-117,-87,-87
-97,-92,4,95,-51,-43,-43,-112,-107,-102,-87,-82
-92,-92,0,92,-46,-46,-43,-82,-78,-82,-68,-73
-58,-73,-14,65,-21,-43,0,73,53,14,-9,-34
-34,-29,4,31,-19,-12,43,195,175,107,58,19
-68,14,82,26,-75,48,-19,-53,68,92,73,48
-92,58,151,17,-122,104,-224,-575,-229,-14,43,92
-78,126,204,-24,-141,165,-419,-1093,-600,-195,-9,122
4,214,209,-109,-102,212,-756,-1737,-1029,-409,-78,165
122,414,292,-268,-85,353,-1093,-2230,-1302,-483,-19,317
224,600,375,-412,-75,488,-1356,-2620,-1522,-527,68,473
375,790,414,-583,-19,602,-1722,-3089,-1815,-614,131,644
624,888,263,-756,180,575,-2039,-3474,-2059,-712,170,785
707,746,39,-727,334,392,-2103,-3640,-2269,-883,92,795
463,336,-126,-400,295,104,-1995,-3738,-2581,-1332,-375,419
258,-287,-546,14,402,-417,-1825,-3620,-2801,-1854,-1039,-263
-29,-639,-610,334,290,-624,-1390,-3030,-2591,-1991,-1405,-727
-341,-492,-151,417,-95,-322,-829,-2103,-1883,-1551,-1195,-746
-331,-361,-29,346,-151,-195,-610,-1488,-1298,-1093,-844,-541
-258,-224,34,241,-146,-95,-473,-995,-863,-722,-561,-361
-170,-102,68,136,-119,-17,-322,-556,-473,-390,-317,-204
-82,-43,39,63,-61,-2,-87,-136,-122,-112,-112,-92
-24,-14,9,19,-17,-2,48,87,58,9,-19,-43
-34,-14,19,24,-26,2,87,141,97,34,4,-39
-53,-29,24,41,-39,-2,102,165,117,53,4,-39
-68,-53,14,61,-41,-19,92,180,122,53,4,-43
-68,-63,4,65,-36,-29,102,219,136,58,4,-43
-43,-24,19,34,-31,-2,141,273,175,87,29,-34
-34,-9,24,21,-29,7,156,302,200,112,39,-24
-34,-19,14,26,-24,-2,156,297,204,112,43,-24
-39,-19,19,29,-29,0,156,302,209,107,43,-24
-53,-24,29,39,-41,2,170,331,234,117,58,-19
-58,-24,34,41,-46,4,175,346,248,136,68,-9
-39,0,39,19,-39,19,180,356,258,156,78,0
-29,9,39,9,-34,24,185,366,268,161,82,0
-29,9,39,9,-34,24,195,385,283,170,87,0
-39,0,39,19,-39,19,200,405,292,180,97,4
-48,-4,43,26,-46,19,200,409,302,185,92,9
-39,4,43,17,-41,24,204,424,312,190,97,14
-24,9,34,7,-29,21,209,444,326,200,102,24
-19,24,43,-2,-31,34,214,468,346,209,117,24
-19,29,48,-4,-34,39,219,473,361,224,126,29
-24,34,58,-4,-41,46,219,483,375,234,131,34
-24,39,63,-7,-43,51,219,497,395,244,141,43
-19,43,63,-12,-41,53,234,512,409,253,151,48
-14,53,68,-19,-41,61,248,536,419,268,161,58
0,63,63,-31,-31,63,253,556,434,283,165,63
0,73,73,-36,-36,73,263,570,448,297,175,68
0,78,78,-39,-39,78,273,585,473,307,185,68
0,78,78,-39,-39,78,273,600,483,322,195,73
4,78,73,-41,-34,75,287,624,502,341,204,82
4,87,82,-46,-39,85,292,649,522,351,209,87
0,92,92,-46,-46,92,302,673,541,361,219,92
19,102,82,-61,-31,92,307,697,566,385,229,102
34,112,78,-73,-21,95,322,727,580,405,244,107
24,112,87,-68,-31,100,331,751,600,409,253,102
14,112,97,-63,-41,104,341,785,634,434,263,107
14,107,92,-61,-39,100,351,805,658,444,273,112
19,112,92,-65,-36,102,380,839,688,463,292,122
34,131,97,-82,-31,114,395,873,717,488,302,122
53,151,97,-102,-21,124,409,917,751,512,317,131
63,161,97,-112,-17,129,434,961,785,541,331,136
78,175,97,-126,-9,136,458,1005,824,566,356,156
78,175,97,-126,-9,136,478,1044,854,590,370,156
78,175,97,-126,-9,136,492,1088,888,610,375,156
92,204,112,-148,-9,158,522,1127,922,634,390,161
117,234,117,-175,0,175,546,1176,961,653,409,170
78,200,122,-139,-21,161,566,1215,990,673,414,165
53,175,122,-114,-34,148,575,1254,1024,692,424,165
68,200,131,-134,-31,165,600,1288,1049,712,434,175
87,224,136,-156,-24,180,619,1317,1073,722,444,165
107,244,136,-175,-14,190,649,1361,1107,756,458,175
122,253,131,-187,-4,192,668,1385,1127,780,468,185
122,253,131,-187,-4,192,673,1400,1137,780,478,175
122,253,131,-187,-4,192,673,1400,1141,780,463,161
117,248,131,-183,-7,190,673,1381,1127,766,448,151
112,244,131,-178,-9,187,668,1346,1112,756,439,141
102,229,126,-165,-12,178,649,1307,1078,727,419,131
102,224,122,-163,-9,173,629,1259,1044,707,405,122
97,214,117,-156,-9,165,595,1190,990,673,380,107
82,190,107,-136,-12,148,551,1102,927,624,346,82
82,175,92,-129,-4,134,502,1015,858,575,317,63
82,165,82,-124,0,124,448,922,780,517,287,48
87,146,58,-117,14,102,395,810,688,458,239,24
97,141,43,-119,26,92,341,702,600,405,204,14
87,112,24,-100,31,68,283,595,507,326,161,-4
78,82,4,-80,36,43,224,488,419,258,122,-19
78,68,-9,-73,43,29,175,395,331,200,87,-34
78,48,-29,-63,53,9,136,317,253,146,53,-39
73,43,-29,-58,51,7,102,239,195,107,34,-39
73,39,-34,-56,53,2,63,165,141,63,19,-34
68,43,-24,-56,46,9,29,112,92,39,4,-34
73,39,-34,-56,53,2,4,53,58,29,-4,-34
73,29,-43,-51,58,-7,-9,19,24,0,-14,-29
73,19,-53,-46,63,-17,-19,-24,-9,-24,-24,-24
58,9,-48,-34,53,-19,-34,-48,-34,-39,-34,-24
39,-9,-48,-14,43,-29,-39,-58,-58,-48,-34,-24
39,-9,-48,-14,43,-29,-34,-73,-63,-58,-34,-19
29,-14,-43,-7,36,-29,-39,-87,-78,-63,-39,-19
34,-9,-43,-12,39,-26,-39,-87,-78,-63,-43,-24
34,-4,-39,-14,36,-21,-39,-92,-78,-68,-43,-24
24,-9,-34,-7,29,-21,-43,-97,-78,-73,-43,-19
24,-14,-39,-4,31,-26,-43,-97,-82,-73,-43,-19
14,-19,-34,2,24,-26,-48,-97,-82,-73,-43,-24
14,-9,-24,-2,19,-17,-48,-97,-82,-73,-43,-29
-9,-43,-34,26,12,-39,-53,-107,-97,-78,-53,-34
-34,-73,-39,53,2,-56,-63,-117,-107,-87,-63,-39
-58,-92,-34,75,-12,-63,-73,-117,-107,-92,-63,-39
-68,-102,-34,85,-17,-68,-78,-117,-102,-92,-63,-39
-43,-68,-24,56,-9,-46,-68,-107,-97,-87,-58,-34
-19,-39,-19,29,0,-29,-58,-102,-97,-82,-48,-24
-14,-34,-19,24,2,-26,-58,-97,-97,-78,-48,-24
-9,-34,-24,21,7,-29,-58,-97,-97,-73,-48,-24
-4,-34,-29,19,12,-31,-53,-97,-97,-73,-48,-24
9,-24,-34,7,21,-29,-48,-97,-92,-73,-43,-24
4,-24,-29,9,17,-26,-43,-87,-78,-63,-39,-19
4,-34,-39,14,21,-36,-43,-87,-68,-58,-34,-19
4,-43,-48,19,26,-46,-43,-82,-68,-58,-34,-19
4,-48,-53,21,29,-51,-39,-68,-63,-58,-34,-19
14,-29,-43,7,29,-36,-34,-68,-58,-53,-24,-19
14,-19,-34,2,24,-26,-34,-68,-53,-48,-24,-19
9,-24,-34,7,21,-29,-34,-63,-53,-48,-24,-19
0,-34,-34,17,17,-34,-34,-63,-53,-48,-29,-19
0,-34,-34,17,17,-34,-29,-63,-58,-48,-34,-19
0,-39,-39,19,19,-39,-29,-58,-58,-43,-34,-19
0,-39,-39,19,19,-39,-24,-58,-58,-43,-34,-19
0,-39,-39,19,19,-39,-24,-53,-53,-43,-34,-19
-9,-34,-24,21,7,-29,-24,-53,-53,-43,-39,-24
-9,-19,-9,14,0,-14,-19,-48,-48,-43,-39,-24
-19,-29,-9,24,-4,-19,-29,-53,-53,-48,-48,-34
-24,-43,-19,34,-2,-31,-34,-58,-58,-53,-48,-43
-24,-43,-19,34,-2,-31,-24,-53,-58,-53,-39,-34
-34,-48,-14,41,-9,-31,-14,-53,-58,-53,-43,-24
-39,-53,-14,46,-12,-34,-14,-53,-63,-58,-43,-29
-43,-53,-9,48,-17,-31,-14,-53,-63,-58,-43,-29
-43,-53,-9,48,-17,-31,-14,-53,-58,-58,-43,-29
-39,-48,-9,43,-14,-29,-19,-53,-58,-53,-43,-29
-34,-39,-4,36,-14,-21,-19,-48,-58,-53,-43,-34
-29,-24,4,26,-17,-9,-14,-48,-58,-53,-43,-34
-19,-24,-4,21,-7,-14,-14,-48,-58,-58,-43,-34
-29,-24,4,26,-17,-9,-19,-58,-63,-58,-48,-39
-58,-43,14,51,-36,-14,-19,-58,-63,-58,-53,-39
-68,-53,14,61,-41,-19,-19,-58,-68,-68,-53,-43
-53,-53,0,53,-26,-26,-19,-58,-68,-68,-53,-43
-34,-34,0,34,-17,-17,-19,-58,-68,-63,-53,-43
-24,-24,0,24,-12,-12,-19,-58,-68,-63,-53,-43
-24,-29,-4,26,-9,-17,-19,-63,-73,-68,-58,-43
-48,-53,-4,51,-21,-29,-24,-73,-82,-78,-68,-53
-63,-63,0,63,-31,-31,-24,-78,-82,-78,-68,-53
-63,-63,0,63,-31,-31,-24,-78,-82,-78,-63,-53
-53,-63,-9,58,-21,-36,-24,-78,-82,-82,-63,-48
-63,-63,0,63,-31,-31,-19,-87,-87,-82,-68,-48
-63,-63,0,63,-31,-31,-14,-87,-87,-82,-68,-53
-29,-34,-4,31,-12,-19,-19,-82,-82,-78,-63,-48
4,-9,-14,2,9,-12,-24,-73,-78,-68,-53,-39
-34,-39,-4,36,-14,-21,-34,-82,-87,-78,-68,-53
-63,-68,-4,65,-29,-36,-43,-97,-97,-87,-82,-68
-73,-78,-4,75,-34,-41,-43,-102,-107,-97,-82,-68
-78,-87,-9,82,-34,-48,-43,-102,-117,-107,-82,-68
-43,-53,-9,48,-17,-31,-39,-97,-107,-102,-82,-63
-14,-24,-9,19,-2,-17,-34,-92,-92,-97,-78,-58
-39,-48,-9,43,-14,-29,-34,-92,-92,-97,-78,-58
-63,-73,-9,68,-26,-41,-34,-92,-92,-97,-78,-58
-53,-63,-9,58,-21,-36,-39,-107,-107,-102,-82,-68
-53,-68,-14,61,-19,-41,-39,-107,-112,-107,-87,-78
-53,-68,-14,61,-19,-41,-39,-107,-117,-107,-87,-78
-48,-68,-19,58,-14,-43,-43,-107,-117,-107,-87,-73
-39,-53,-14,46,-12,-34,-43,-97,-112,-102,-82,-73
-39,-53,-14,46,-12,-34,-39,-107,-112,-102,-82,-73
-39,-53,-14,46,-12,-34,-39,-107,-112,-102,-82,-63
-39,-48,-9,43,-14,-29,-39,-107,-107,-107,-82,-53
-43,-39,4,41,-24,-17,-39,-112,-112,-107,-87,-53
-43,-34,9,39,-26,-12,-43,-112,-112,-107,-87,-58
-43,-48,-4,46,-19,-26,-43,-117,-117,-107,-92,-63
-48,-63,-14,56,-17,-39,-43,-122,-122,-107,-92,-68
-58,-68,-9,63,-24,-39,-48,-122,-122,-112,-97,-73
-68,-68,0,68,-34,-34,-48,-122,-122,-117,-97,-78
-63,-53,9,58,-36,-21,-39,-122,-117,-117,-97,-73
-63,-68,-4,65,-29,-36,-39,-126,-117,-117,-97,-73
-58,-68,-9,63,-24,-39,-48,-126,-122,-112,-97,-68
-48,-63,-14,56,-17,-39,-48,-126,-122,-107,-97,-63
-43,-43,0,43,-21,-21,-43,-122,-117,-107,-92,-58
-34,-24,9,29,-21,-7,-43,-112,-112,-107,-87,-53
-34,-34,0,34,-17,-17,-43,-112,-112,-107,-87,-53
-34,-48,-14,41,-9,-31,-48,-112,-112,-107,-87,-58
-48,-63,-14,56,-17,-39,-48,-122,-122,-112,-92,-68
-63,-73,-9,68,-26,-41,-48,-122,-126,-112,-92,-78
-73,-68,4,70,-39,-31,-53,-122,-126,-112,-92,-78
-78,-68,9,73,-43,-29,-53,-122,-126,-107,-87,-78
-58,-48,9,53,-34,-19,-48,-126,-126,-107,-87,-63
-29,-24,4,26,-17,-9,-48,-122,-126,-107,-87,-53
-29,-34,-4,31,-12,-19,-43,-122,-122,-107,-82,-53
-34,-43,-9,39,-12,-26,-43,-122,-122,-107,-78,-58
-53,-63,-9,58,-21,-36,-43,-126,-122,-107,-92,-63
-78,-87,-9,82,-34,-48,-48,-136,-126,-107,-107,-68
-58,-68,-9,63,-24,-39,-48,-126,-126,-107,-97,-68
-39,-48,-9,43,-14,-29,-48,-117,-126,-107,-87,-68
-39,-48,-9,43,-14,-29,-48,-117,-126,-107,-87,-68
-39,-48,-9,43,-14,-29,-48,-117,-126,-107,-87,-68
-48,-58,-9,53,-19,-34,-58,-122,-126,-107,-87,-68
-58,-68,-9,63,-24,-39,-68,-126,-126,-107,-87,-68
-48,-53,-4,51,-21,-29,-58,-126,-126,-107,-87,-63
-39,-39,0,39,-19,-19,-48,-126,-126,-107,-87,-58
-39,-34,4,36,-21,-14,-48,-126,-122,-107,-82,-58
-39,-29,9,34,-24,-9,-48,-126,-117,-107,-78,-58
-39,-29,9,34,-24,-9,-48,-126,-117,-107,-78,-58
-39,-29,9,34,-24,-9,-48,-126,-117,-107,-78,-58
-53,-53,0,53,-26,-26,-48,-126,-122,-117,-82,-63
-68,-78,-9,73,-29,-43,-48,-126,-126,-126,-87,-68
-58,-68,-9,63,-24,-39,-48,-126,-126,-117,-87,-68
-48,-58,-9,53,-19,-34,-48,-126,-126,-107,-87,-68
-48,-58,-9,53,-19,-34,-48,-126,-126,-107,-87,-68
-48,-58,-9,53,-19,-34,-48,-126,-126,-107,-87,-68
-48,-58,-9,53,-19,-34,-48,-122,-126,-107,-87,-68
-48,-58,-9,53,-19,-34,-48,-117,-126,-107,-87,-68
-48,-58,-9,53,-19,-34,-48,-117,-122,-102,-87,-68
-48,-58,-9,53,-19,-34,-48,-117,-117,-97,-87,-68
-43,-43,0,43,-21,-21,-39,-112,-117,-97,-82,-63
-39,-29,9,34,-24,-9,-29,-107,-117,-97,-78,-58
-24,-19,4,21,-14,-7,-19,-92,-107,-87,-73,-53
-9,-9,0,9,-4,-4,-9,-78,-97,-78,-68,-48
-9,-9,0,9,-4,-4,4,-68,-87,-78,-63,-43
-9,-9,0,9,-4,-4,19,-58,-78,-78,-58,-39
0,0,0,0,0,0,24,-48,-73,-68,-48,-34
14,9,-4,-12,9,2,39,-29,-53,-58,-34,-24
29,19,-9,-24,19,4,53,-14,-39,-48,-24,-19
34,9,-24,-21,29,-7,63,-4,-29,-34,-14,-14
63,53,-9,-58,36,21,68,19,-4,-9,0,4
97,82,-14,-90,56,34,68,29,4,0,4,19
122,82,-39,-102,80,21,53,29,4,0,9,24
136,78,-58,-107,97,9,34,9,-4,0,9,24
87,39,-48,-63,68,-4,-29,-43,-39,-29,-9,9
63,14,-48,-39,56,-17,-68,-73,-63,-39,-19,0
82,24,-58,-53,70,-17,-92,-97,-82,-58,-29,-4
97,24,-73,-61,85,-24,-92,-102,-82,-58,-29,-4
97,4,-92,-51,95,-43,-87,-102,-87,-63,-39,-19
78,-14,-92,-31,85,-53,-87,-117,-107,-78,-53,-34
68,-14,-82,-26,75,-48,-102,-136,-117,-87,-58,-34
68,-4,-73,-31,70,-39,-102,-141,-122,-87,-58,-34
63,-4,-68,-29,65,-36,-107,-141,-122,-87,-63,-34
48,-14,-63,-17,56,-39,-102,-141,-131,-92,-68,-34
19,-34,-53,7,36,-43,-97,-141,-141,-117,-87,-53
-9,-43,-34,26,12,-39,-87,-141,-141,-122,-102,-63
-34,-53,-19,43,-7,-36,-68,-136,-146,-122,-102,-68
-39,-58,-19,48,-9,-39,-58,-136,-151,-126,-107,-78
-48,-63,-14,56,-17,-39,-58,-136,-151,-131,-112,-78
-48,-63,-14,56,-17,-39,-58,-136,-151,-131,-112,-87
-58,-78,-19,68,-19,-48,-63,-141,-151,-131,-112,-87
-58,-78,-19,68,-19,-48,-68,-141,-156,-131,-112,-87
-53,-73,-19,63,-17,-46,-68,-136,-156,-131,-112,-82
-43,-68,-24,56,-9,-46,-63,-136,-151,-131,-112,-82
-43,-68,-24,56,-9,-46,-63,-136,-151,-131,-112,-82
-48,-73,-24,61,-12,-48,-63,-136,-156,-131,-117,-87
-58,-63,-4,61,-26,-34,-58,-136,-156,-131,-117,-87
-63,-58,4,61,-34,-26,-53,-136,-156,-136,-117,-87
-73,-73,0,73,-36,-36,-53,-141,-156,-136,-122,-92
-78,-87,-9,82,-34,-48,-53,-141,-156,-136,-122,-92
-58,-63,-4,61,-26,-34,-58,-136,-156,-131,-117,-87
-48,-53,-4,51,-21,-29,-58,-136,-151,-131,-117,-82
-48,-53,-4,51,-21,-29,-58,-141,-151,-136,-117,-82
-48,-58,-9,53,-19,-34,-58,-146,-151,-141,-117,-87
-58,-68,-9,63,-24,-39,-58,-136,-146,-141,-112,-92
-68,-73,-4,70,-31,-39,-63,-131,-136,-131,-117,-92
-48,-78,-29,63,-9,-53,-63,-102,-117,-112,-97,-82
-24,-63,-39,43,7,-51,-43,-9,-29,-29,-39,-48
-24,-24,0,24,-12,-12,24,190,151,87,43,0
-48,19,68,14,-58,43,-19,9,78,78,58,29
-82,68,151,7,-117,109,-229,-570,-258,-39,29,82
-78,136,214,-29,-146,175,-424,-1083,-610,-200,-9,122
-9,195,204,-92,-107,200,-785,-1795,-1083,-453,-107,136
107,351,244,-229,-68,297,-1122,-2327,-1400,-570,-97,244
214,561,346,-387,-65,453,-1371,-2684,-1610,-595,-4,405
326,736,409,-531,-41,573,-1698,-3089,-1873,-653,78,575
634,888,253,-761,190,570,-2093,-3518,-2098,-692,209,805
795,844,48,-819,373,446,-2249,-3747,-2283,-805,209,893
570,414,-156,-492,363,129,-2196,-3962,-2688,-1317,-278,527
414,-131,-546,-141,480,-339,-2083,-3923,-2942,-1810,-854,-34
126,-536,-663,204,395,-600,-1644,-3318,-2771,-2039,-1342,-600
-204,-517,-312,361,53,-414,-1068,-2425,-2176,-1766,-1327,-785
-234,-370,-136,302,-48,-253,-795,-1727,-1522,-1244,-946,-561
-229,-234,-4,231,-112,-119,-590,-1171,-1029,-839,-649,-390
-136,-68,68,102,-102,0,-405,-673,-570,-458,-351,-209
-53,9,63,21,-58,36,-165,-224,-195,-161,-131,-87
0,29,29,-14,-14,29,4,34,-9,-43,-53,-53
14,43,29,-29,-7,36,78,146,78,14,-4,-39
-19,14,34,2,-26,24,92,165,97,34,-4,-39
-48,-14,34,31,-41,9,92,180,107,34,-4,-43
-48,-14,34,31,-41,9,117,219,126,39,-4,-43
-34,9,43,12,-39,26,151,263,165,68,19,-34
-24,24,48,0,-36,36,156,283,190,92,29,-24
-14,29,43,-7,-29,36,156,287,195,97,34,-24
-39,0,39,19,-39,19,156,302,200,97,34,-24
-58,-24,34,41,-46,4,170,331,224,107,48,-19
-34,-4,29,19,-31,12,175,351,239,131,58,-9
-9,19,29,-4,-19,24,180,366,248,151,68,0
-9,34,43,-12,-26,39,185,375,258,151,73,0
-9,48,58,-19,-34,53,195,390,273,161,78,0
-29,19,48,4,-39,34,200,405,283,170,87,4
-48,0,48,24,-48,24,200,409,292,180,87,9
-14,43,58,-14,-36,51,204,424,307,200,97,19
24,78,53,-51,-14,65,214,444,326,219,102,34
4,73,68,-39,-31,70,224,468,346,219,117,34
-19,53,73,-17,-46,63,229,473,356,224,122,39
-24,43,68,-9,-46,56,229,483,366,234,122,43
-24,39,63,-7,-43,51,229,497,385,244,131,48
-14,58,73,-21,-43,65,244,512,400,253,141,48
-9,82,92,-36,-51,87,253,536,414,268,156,58
0,92,92,-46,-46,92,253,556,434,283,165,58
0,102,102,-51,-51,102,263,575,448,297,175,63
-9,97,107,-43,-58,102,278,595,473,307,185,68
-19,87,107,-34,-63,97,283,610,488,322,195,73
-4,97,102,-46,-53,100,297,634,512,341,204,82
14,122,107,-68,-46,114,307,663,531,356,214,87
24,131,107,-78,-41,119,322,692,551,370,234,97
34,141,107,-87,-36,124,326,717,580,395,248,112
34,165,131,-100,-48,148,341,746,600,414,263,117
34,180,146,-107,-56,163,356,771,619,419,273,117
14,156,141,-85,-63,148,366,805,653,444,278,122
-4,136,141,-65,-73,139,370,834,678,458,283,122
14,165,151,-90,-68,158,400,878,707,483,302,131
34,190,156,-112,-61,173,414,912,736,507,312,131
19,175,156,-97,-68,165,429,956,771,527,322,141
0,161,161,-80,-80,161,453,1000,800,546,326,141
24,190,165,-107,-70,178,478,1044,834,566,346,156
39,204,165,-122,-63,185,497,1083,863,590,361,156
43,209,165,-126,-61,187,512,1127,902,619,375,156
48,224,175,-136,-63,200,541,1166,941,653,400,161
58,234,175,-146,-58,204,575,1215,980,673,419,170
58,244,185,-151,-63,214,614,1259,1015,697,429,170
68,258,190,-163,-61,224,619,1302,1054,722,444,175
63,258,195,-161,-65,226,629,1337,1078,741,453,185
68,263,195,-165,-63,229,658,1371,1107,756,463,175
73,273,200,-173,-63,236,692,1415,1141,780,468,175
82,273,190,-178,-53,231,707,1434,1156,790,468,180
92,273,180,-183,-43,226,712,1449,1161,790,478,175
78,273,195,-175,-58,234,712,1449,1161,790,468,161
63,268,204,-165,-70,236,712,1429,1146,775,458,151
78,273,195,-175,-58,234,707,1400,1137,771,448,141
82,268,185,-175,-51,226,683,1356,1102,741,424,126
82,263,180,-173,-48,222,668,1302,1068,717,409,112
82,253,170,-168,-43,212,644,1239,1019,683,390,97
73,229,156,-151,-41,192,600,1151,956,634,356,73
73,214,141,-143,-34,178,551,1058,883,585,322,53
53,200,146,-126,-46,173,492,961,800,527,283,39
29,165,136,-97,-53,151,429,849,707,458,229,14
48,151,102,-100,-26,126,370,741,619,395,195,4
68,131,63,-100,2,97,312,634,531,331,156,-9
53,102,48,-78,2,75,253,527,439,273,122,-19
39,78,39,-58,0,58,195,424,341,209,87,-34
39,58,19,-48,9,39,146,336,263,151,48,-43
34,43,9,-39,12,26,112,258,204,107,24,-48
53,43,-9,-48,31,17,73,175,146,63,9,-43
63,53,-9,-58,36,21,39,112,82,29,-4,-43
48,24,-24,-36,36,0,14,53,39,9,-14,-43
34,9,-24,-21,29,-7,0,29,14,-9,-19,-39
34,9,-24,-21,29,-7,-14,-9,-14,-29,-29,-34
24,0,-24,-12,24,-12,-39,-48,-43,-48,-43,-34
9,-19,-29,4,19,-24,-48,-68,-68,-58,-43,-34
9,-19,-29,4,19,-24,-48,-82,-73,-68,-43,-29
19,-4,-24,-7,21,-14,-58,-87,-87,-73,-39,-24
39,14,-24,-26,31,-4,-58,-82,-92,-73,-34,-24
24,0,-24,-12,24,-12,-58,-102,-102,-78,-43,-24
4,-19,-24,7,14,-21,-63,-117,-107,-82,-53,-19
-14,-39,-24,26,4,-31,-63,-122,-112,-87,-58,-24
-34,-53,-19,43,-7,-36,-63,-126,-112,-92,-63,-29
-14,-29,-14,21,0,-21,-58,-126,-112,-92,-63,-29
-14,-34,-19,24,2,-26,-58,-126,-117,-92,-63,-29
-9,-29,-19,19,4,-24,-63,-117,-112,-92,-58,-24
4,-14,-19,4,12,-17,-63,-107,-107,-87,-53,-19
9,-19,-29,4,19,-24,-58,-107,-102,-82,-53,-19
0,-29,-29,14,14,-29,-58,-102,-97,-78,-53,-19
-9,-29,-19,19,4,-24,-58,-102,-97,-73,-48,-14
-19,-29,-9,24,-4,-19,-58,-97,-97,-73,-48,-14
-9,-19,-9,14,0,-14,-58,-97,-97,-73,-43,-14
0,-4,-4,2,2,-4,-58,-97,-97,-73,-39,-14
9,-4,-14,-2,12,-9,-58,-97,-92,-73,-34,-14
0,-14,-14,7,7,-14,-53,-87,-87,-68,-34,-9
-14,-39,-24,26,4,-31,-53,-87,-87,-68,-34,-9
-24,-53,-29,39,2,-41,-53,-87,-87,-68,-34,-9
-14,-34,-19,24,2,-26,-48,-78,-73,-63,-34,-9
4,-9,-14,2,9,-12,-43,-78,-58,-53,-24,-9
4,-9,-14,2,9,-12,-43,-82,-63,-48,-24,-9
0,-14,-14,7,7,-14,-43,-82,-73,-48,-24,-9
-24,-43,-19,34,-2,-31,-43,-82,-73,-53,-29,-9
-39,-53,-14,46,-12,-34,-39,-82,-73,-58,-29,-9
-24,-34,-9,29,-7,-21,-39,-73,-68,-53,-24,-9
-9,-19,-9,14,0,-14,-34,-68,-68,-53,-24,-9
-9,-19,-9,14,0,-14,-34,-63,-63,-53,-24,-9
-19,-29,-9,24,-4,-19,-34,-63,-63,-53,-29,-14
-19,-29,-9,24,-4,-19,-29,-58,-58,-53,-29,-14
-19,-24,-4,21,-7,-14,-29,-58,-58,-53,-29,-14
-14,-19,-4,17,-4,-12,-24,-58,-58,-48,-19,-14
-14,-14,0,14,-7,-7,-24,-53,-58,-43,-19,-14
-24,-19,4,21,-14,-7,-24,-53,-58,-43,-34,-14
-29,-24,4,26,-17,-9,-24,-53,-63,-48,-34,-19
-34,-29,4,31,-19,-12,-24,-53,-63,-48,-34,-19
-34,-34,0,34,-17,-17,-19,-53,-58,-48,-34,-19
-34,-34,0,34,-17,-17,-19,-58,-58,-48,-34,-19
-39,-39,0,39,-19,-19,-19,-58,-58,-53,-34,-24
-39,-34,4,36,-21,-14,-14,-58,-58,-53,-34,-24
-29,-34,-4,31,-12,-19,-14,-58,-58,-58,-34,-24
-29,-24,4,26,-17,-9,-19,-68,-63,-58,-39,-29
-39,-29,9,34,-24,-9,-19,-68,-63,-58,-43,-29
-53,-43,9,48,-31,-17,-19,-68,-68,-68,-43,-34
-63,-53,9,58,-36,-21,-19,-68,-68,-68,-43,-34
-53,-34,19,43,-36,-7,-19,-68,-68,-63,-43,-34
-53,-34,19,43,-36,-7,-19,-68,-68,-63,-43,-34
-63,-43,19,53,-41,-12,-19,-73,-73,-63,-48,-34
-73,-53,19,63,-46,-17,-24,-78,-82,-68,-58,-43
-58,-43,14,51,-36,-14,-24,-73,-82,-68,-58,-43
-39,-29,9,34,-24,-9,-24,-68,-82,-68,-53,-43
-34,-39,-4,36,-14,-21,-24,-68,-82,-73,-53,-39
-53,-53,0,53,-26,-26,-24,-78,-87,-73,-58,-39
-53,-43,9,48,-31,-17,-24,-78,-82,-73,-58,-39
-53,-34,19,43,-36,-7,-29,-82,-82,-78,-63,-39
-43,-39,4,41,-24,-17,-34,-82,-87,-78,-63,-39
-43,-43,0,43,-21,-21,-34,-82,-87,-78,-63,-39
-68,-68,0,68,-34,-34,-34,-87,-92,-82,-63,-43
-92,-87,4,90,-48,-41,-34,-92,-97,-87,-63,-48
-73,-68,4,70,-39,-31,-34,-92,-97,-87,-63,-48
-53,-43,9,48,-31,-17,-34,-92,-102,-92,-68,-48
-53,-43,9,48,-31,-17,-34,-92,-102,-97,-68,-48
-53,-43,9,48,-31,-17,-34,-92,-102,-97,-68,-48
-68,-63,4,65,-36,-29,-34,-92,-102,-97,-68,-48
-82,-82,0,82,-41,-41,-39,-107,-112,-102,-73,-53
-78,-87,-9,82,-34,-48,-39,-107,-112,-107,-78,-58
-68,-78,-9,73,-29,-43,-39,-107,-117,-107,-78,-58
-68,-78,-9,73,-29,-43,-43,-107,-117,-107,-82,-53
-58,-63,-4,61,-26,-34,-43,-97,-112,-102,-82,-53
-43,-48,-4,46,-19,-26,-39,-107,-112,-102,-82,-53
-29,-39,-9,34,-9,-24,-39,-107,-117,-102,-82,-53
-39,-48,-9,43,-14,-29,-39,-107,-117,-107,-78,-53
-53,-58,-4,56,-24,-31,-39,-112,-122,-107,-78,-53
-63,-63,0,63,-31,-31,-43,-112,-122,-102,-78,-58
-68,-63,4,65,-36,-29,-43,-112,-122,-97,-82,-58
-48,-48,0,48,-24,-24,-34,-107,-117,-97,-82,-53
-29,-34,-4,31,-12,-19,-29,-102,-112,-97,-82,-48
-29,-29,0,29,-14,-14,-39,-102,-112,-97,-78,-48
-24,-14,9,19,-17,-2,-39,-102,-107,-97,-78,-43
-48,-58,-9,53,-19,-34,-39,-112,-112,-97,-78,-48
-78,-92,-14,85,-31,-53,-48,-117,-122,-97,-78,-53
-53,-68,-14,61,-19,-41,-48,-117,-122,-97,-78,-53
-29,-39,-9,34,-9,-24,-43,-117,-122,-97,-78,-53
-39,-53,-14,46,-12,-34,-43,-112,-122,-102,-82,-58
-53,-73,-19,63,-17,-46,-43,-112,-122,-107,-87,-63
-53,-78,-24,65,-14,-51,-48,-112,-122,-107,-87,-68
-58,-82,-24,70,-17,-53,-48,-122,-126,-112,-92,-68
-63,-82,-19,73,-21,-51,-48,-122,-126,-112,-92,-68
-63,-78,-14,70,-24,-46,-53,-122,-126,-112,-92,-68
-58,-78,-19,68,-19,-48,-53,-122,-126,-107,-87,-68
-58,-78,-19,68,-19,-48,-48,-122,-126,-107,-87,-63
-43,-53,-9,48,-17,-31,-48,-112,-126,-97,-87,-63
-14,-34,-19,24,2,-26,-48,-112,-126,-92,-87,-68
-9,-29,-19,19,4,-24,-39,-102,-117,-87,-78,-58
-9,-29,-19,19,4,-24,-29,-97,-107,-87,-68,-48
-29,-48,-19,39,-4,-34,-39,-107,-112,-97,-78,-58
-48,-68,-19,58,-14,-43,-48,-117,-117,-107,-87,-68
-48,-68,-19,58,-14,-43,-48,-117,-117,-107,-87,-68
-48,-68,-19,58,-14,-43,-48,-117,-117,-107,-87,-68
-48,-68,-19,58,-14,-43,-48,-117,-117,-107,-87,-68
-48,-68,-19,58,-14,-43,-48,-117,-117,-107,-87,-68
-39,-63,-24,51,-7,-43,-48,-112,-117,-107,-87,-63
-29,-58,-29,43,0,-43,-48,-107,-117,-107,-87,-58
-29,-58,-29,43,0,-43,-48,-107,-117,-107,-87,-58
-29,-58,-29,43,0,-43,-48,-107,-117,-107,-87,-58
-39,-63,-24,51,-7,-43,-53,-112,-122,-107,-87,-58
-48,-68,-19,58,-14,-43,-58,-117,-126,-107,-87,-58
-48,-68,-19,58,-14,-43,-58,-117,-126,-107,-87,-58
-48,-68,-19,58,-14,-43,-58,-117,-126,-107,-87,-58
-43,-68,-24,56,-9,-46,-58,-117,-122,-107,-87,-58
-39,-68,-29,53,-4,-48,-58,-117,-117,-107,-87,-58
-19,-48,-29,34,4,-39,-53,-117,-117,-97,-78,-58
0,-29,-29,14,14,-29,-48,-117,-117,-87,-68,-58
-14,-43,-29,29,7,-36,-48,-117,-117,-97,-78,-58
-29,-58,-29,43,0,-43,-48,-117,-117,-107,-87,-58
-48,-68,-19,58,-14,-43,-53,-122,-122,-107,-87,-63
-68,-78,-9,73,-29,-43,-58,-126,-126,-107,-87,-68
-58,-78,-19,68,-19,-48,-58,-126,-126,-107,-87,-68
-48,-78,-29,63,-9,-53,-58,-126,-126,-107,-87,-68
-39,-68,-29,53,-4,-48,-53,-122,-117,-102,-82,-58
-29,-58,-29,43,0,-43,-48,-117,-107,-97,-78,-48
-24,-53,-29,39,2,-41,-48,-117,-107,-97,-78,-48
-19,-48,-29,34,4,-39,-48,-117,-107,-97,-78,-48
-19,-48,-29,34,4,-39,-48,-117,-112,-97,-78,-48
-19,-48,-29,34,4,-39,-48,-117,-117,-97,-78,-48
-19,-48,-29,34,4,-39,-48,-117,-117,-97,-78,-48
-19,-48,-29,34,4,-39,-48,-117,-117,-97,-78,-48
-39,-63,-24,51,-7,-43,-53,-117,-117,-102,-82,-53
-58,-78,-19,68,-19,-48,-58,-117,-117,-107,-87,-58
-58,-78,-19,68,-19,-48,-58,-117,-117,-107,-87,-58
-58,-78,-19,68,-19,-48,-58,-117,-117,-107,-87,-58
-24,-48,-24,36,0,-36,-48,-107,-107,-97,-87,-48
