I,II,III,aVR,aVL,aVF,V1,V2,V3,V4,V5,V6,
156,175,19,-165,68,97,-126,19,302,780,1473,1249
73,117,43,-95,14,80,-82,-14,195,575,1146,966
-9,58,68,-24,-39,63,-39,-48,87,370,819,683
-48,-4,43,26,-46,19,-4,-48,19,185,463,395
-87,-68,19,78,-53,-24,29,-48,-48,0,107,107
-97,-107,-9,102,-43,-58,48,-34,-53,-58,-9,-4
-107,-146,-39,126,-34,-92,68,-19,-58,-117,-126,-117
-112,-146,-34,129,-39,-90,68,-19,-63,-126,-151,-141
-117,-146,-29,131,-43,-87,68,-19,-68,-136,-175,-165
-122,-146,-24,134,-48,-85,68,-19,-73,-141,-185,-175
-126,-146,-19,136,-53,-82,68,-19,-78,-146,-195,-185
-126,-146,-19,136,-53,-82,68,-19,-78,-151,-204,-190
-126,-146,-19,136,-53,-82,68,-19,-78,-156,-214,-195
-126,-146,-19,136,-53,-82,73,-19,-78,-156,-214,-200
-126,-146,-19,136,-53,-82,78,-19,-78,-156,-214,-204
-131,-146,-14,139,-58,-80,78,-19,-78,-156,-219,-204
-136,-146,-9,141,-63,-78,78,-19,-78,-156,-224,-204
-136,-141,-4,139,-65,-73,73,-19,-78,-156,-224,-209
-136,-136,0,136,-68,-68,68,-19,-78,-156,-224,-214
-141,-136,4,139,-73,-65,68,-19,-78,-156,-224,-214
-146,-136,9,141,-78,-63,68,-19,-78,-156,-224,-214
-146,-136,9,141,-78,-63,73,-19,-78,-156,-229,-219
-146,-136,9,141,-78,-63,78,-19,-78,-156,-234,-224
-151,-136,14,143,-82,-61,78,-19,-78,-156,-234,-224
-156,-136,19,146,-87,-58,78,-19,-78,-156,-234,-224
-161,-136,24,148,-92,-56,78,-19,-78,-161,-239,-234
-165,-136,29,151,-97,-53,78,-19,-78,-165,-244,-244
-170,-131,39,151,-104,-46,82,-19,-82,-170,-253,-253
-175,-126,48,151,-112,-39,87,-19,-87,-175,-263,-263
-180,-126,53,153,-117,-36,92,-19,-87,-180,-268,-268
-185,-126,58,156,-122,-34,97,-19,-87,-185,-273,-273
-195,-126,68,161,-131,-29,97,-19,-92,-190,-283,-283
-204,-126,78,165,-141,-24,97,-19,-97,-195,-292,-292
-209,-126,82,168,-146,-21,102,-29,-102,-200,-307,-302
-214,-126,87,170,-151,-19,107,-39,-107,-204,-322,-312
-224,-131,92,178,-158,-19,117,-39,-112,-219,-336,-326
-234,-136,97,185,-165,-19,126,-39,-117,-234,-351,-341
-248,-146,102,197,-175,-21,131,-39,-126,-248,-370,-361
-263,-156,107,209,-185,-24,136,-39,-136,-263,-390,-380
-273,-156,117,214,-195,-19,146,-48,-151,-283,-414,-405
-283,-156,126,219,-204,-14,156,-58,-165,-302,-439,-429
-297,-165,131,231,-214,-17,165,-58,-175,-326,-473,-458
-312,-175,136,244,-224,-19,175,-58,-185,-351,-507,-488
-331,-185,146,258,-239,-19,185,-73,-209,-375,-541,-517
-351,-195,156,273,-253,-19,195,-87,-234,-400,-575,-546
-370,-204,165,287,-268,-19,204,-97,-253,-429,-614,-585
-390,-214,175,302,-283,-19,214,-107,-273,-458,-653,-624
-414,-229,185,322,-300,-21,229,-117,-302,-492,-707,-668
-439,-244,195,341,-317,-24,244,-126,-331,-527,-761,-712
-463,-263,200,363,-331,-31,258,-141,-356,-570,-810,-756
-488,-283,204,385,-346,-39,273,-156,-380,-614,-858,-800
-512,-302,209,407,-361,-46,287,-170,-409,-653,-917,-849
-536,-322,214,429,-375,-53,302,-185,-439,-692,-976,-897
-556,-341,214,448,-385,-63,312,-200,-463,-736,-1029,-946
-575,-361,214,468,-395,-73,322,-214,-488,-780,-1083,-995
-595,-375,219,485,-407,-78,336,-224,-517,-814,-1137,-1039
-614,-390,224,502,-419,-82,351,-234,-546,-849,-1190,-1083
-629,-405,224,517,-427,-90,361,-234,-556,-873,-1224,-1117
-644,-419,224,531,-434,-97,370,-234,-566,-897,-1259,-1151
-644,-429,214,536,-429,-107,370,-234,-570,-912,-1288,-1176
-644,-439,204,541,-424,-117,370,-234,-575,-927,-1317,-1200
-634,-439,195,536,-414,-122,370,-229,-575,-927,-1327,-1210
-624,-439,185,531,-405,-126,370,-224,-575,-927,-1337,-1220
-605,-439,165,522,-385,-136,361,-204,-556,-907,-1317,-1205
-585,-439,146,512,-366,-146,351,-185,-536,-888,-1298,-1190
-551,-429,122,490,-336,-153,336,-170,-512,-858,-1259,-1156
-517,-419,97,468,-307,-161,322,-156,-488,-829,-1220,-1122
-473,-405,68,439,-270,-168,297,-131,-444,-785,-1161,-1073
-429,-390,39,409,-234,-175,273,-107,-400,-741,-1102,-1024
-380,-366,14,373,-197,-175,244,-82,-361,-683,-1029,-956
-331,-341,-9,336,-161,-175,214,-58,-322,-624,-956,-888
-287,-312,-24,300,-131,-168,185,-39,-273,-561,-868,-810
-244,-283,-39,263,-102,-161,156,-19,-224,-497,-780,-732
-200,-258,-58,229,-70,-158,131,0,-185,-429,-692,-649
-156,-234,-78,195,-39,-156,107,19,-146,-361,-605,-566
-117,-204,-87,161,-14,-146,87,29,-107,-307,-522,-488
-78,-175,-97,126,9,-136,68,39,-68,-253,-439,-409
-53,-156,-102,104,24,-129,48,43,-48,-204,-370,-346
-29,-136,-107,82,39,-122,29,48,-29,-156,-302,-283
-14,-112,-97,63,41,-104,14,53,-9,-126,-244,-229
0,-87,-87,43,43,-87,0,58,9,-97,-185,-175
14,-78,-92,31,53,-85,-4,58,19,-68,-146,-136
29,-68,-97,19,63,-82,-9,58,29,-39,-107,-97
39,-58,-97,9,68,-78,-14,58,34,-24,-78,-73
48,-48,-97,0,73,-73,-19,58,39,-9,-48,-48
48,-34,-82,-7,65,-58,-29,53,43,4,-29,-29
48,-19,-68,-14,58,-43,-39,48,48,19,-9,-9
48,-14,-63,-17,56,-39,-39,43,48,24,0,-4
48,-9,-58,-19,53,-34,-39,39,48,29,9,0
48,-9,-58,-19,53,-34,-39,39,43,29,19,9
48,-9,-58,-19,53,-34,-39,39,39,29,29,19
43,-9,-53,-17,48,-31,-39,34,39,29,29,19
39,-9,-48,-14,43,-29,-39,29,39,29,29,19
34,-9,-43,-12,39,-26,-34,24,39,29,29,19
29,-9,-39,-9,34,-24,-29,19,39,29,29,19
29,-9,-39,-9,34,-24,-29,14,34,24,24,19
29,-9,-39,-9,34,-24,-29,9,29,19,19,19
29,-14,-43,-7,36,-29,-29,9,24,14,14,14
29,-19,-48,-4,39,-34,-29,9,19,9,9,9
24,-19,-43,-2,34,-31,-29,4,14,4,4,4
19,-19,-39,0,29,-29,-29,0,9,0,0,0
14,-24,-39,4,26,-31,-24,0,4,-4,-4,-9
9,-29,-39,9,24,-34,-19,0,0,-9,-9,-19
4,-29,-34,12,19,-31,-14,0,0,-14,-19,-24
0,-29,-29,14,14,-29,-9,0,0,-19,-29,-29
-4,-34,-29,19,12,-31,-9,0,-4,-24,-39,-39
-9,-39,-29,24,9,-34,-9,0,-9,-29,-48,-48
-9,-43,-34,26,12,-39,-9,0,-14,-34,-53,-53
-9,-48,-39,29,14,-43,-9,0,-19,-39,-58,-58
-9,-48,-39,29,14,-43,-4,-4,-24,-43,-63,-63
-9,-48,-39,29,14,-43,0,-9,-29,-48,-68,-68
-14,-53,-39,34,12,-46,0,-14,-34,-53,-73,-73
-19,-58,-39,39,9,-48,0,-19,-39,-58,-78,-78
-19,-58,-39,39,9,-48,0,-19,-39,-63,-82,-78
-19,-58,-39,39,9,-48,0,-19,-39,-68,-87,-78
-19,-63,-43,41,12,-53,0,-14,-39,-68,-87,-78
-19,-68,-48,43,14,-58,0,-9,-39,-68,-87,-78
-19,-68,-48,43,14,-58,0,-9,-39,-68,-87,-78
-19,-68,-48,43,14,-58,0,-9,-39,-68,-87,-78
-14,-63,-48,39,17,-56,-4,-14,-39,-68,-87,-78
-9,-58,-48,34,19,-53,-9,-19,-39,-68,-87,-78
-9,-58,-48,34,19,-53,-9,-19,-39,-68,-87,-78
-9,-58,-48,34,19,-53,-9,-19,-39,-68,-87,-78
-9,-58,-48,34,19,-53,-9,-14,-34,-68,-82,-78
-9,-58,-48,34,19,-53,-9,-9,-29,-68,-78,-78
-9,-63,-53,36,21,-58,-9,-9,-29,-68,-78,-73
-9,-68,-58,39,24,-63,-9,-9,-29,-68,-78,-68
-9,-68,-58,39,24,-63,-9,-9,-29,-63,-78,-68
-9,-68,-58,39,24,-63,-9,-9,-29,-58,-78,-68
-9,-63,-53,36,21,-58,-9,-9,-29,-53,-73,-63
-9,-58,-48,34,19,-53,-9,-9,-29,-48,-68,-58
-4,-58,-53,31,24,-56,-14,-9,-29,-48,-68,-53
0,-58,-58,29,29,-58,-19,-9,-29,-48,-68,-48
4,-53,-58,24,31,-56,-19,-9,-24,-48,-63,-48
9,-48,-58,19,34,-53,-19,-9,-19,-48,-58,-48
9,-43,-53,17,31,-48,-19,-4,-14,-39,-48,-43
9,-39,-48,14,29,-43,-19,0,-9,-29,-39,-39
14,-29,-43,7,29,-36,-19,4,-4,-29,-34,-34
19,-19,-39,0,29,-29,-19,9,0,-29,-29,-29
29,-14,-43,-7,36,-29,-24,9,4,-19,-24,-19
39,-9,-48,-14,43,-29,-29,9,9,-9,-19,-9
39,4,-34,-21,36,-14,-29,9,9,-9,-19,-9
39,14,-24,-26,31,-4,-24,9,9,-9,-14,-9
39,24,-14,-31,26,4,-24,9,14,-9,-14,-9
39,24,-14,-31,26,4,-24,14,14,-4,-9,0
39,24,-14,-31,26,4,-34,14,19,4,-4,0
48,43,-4,-46,26,19,-43,14,29,9,4,0
58,82,24,-70,17,53,-48,24,43,39,29,19
68,107,39,-87,14,73,-58,24,48,53,48,34
78,112,34,-95,21,73,-68,24,48,53,48,39
92,117,24,-104,34,70,-78,14,48,53,53,43
92,117,24,-104,34,70,-87,4,43,53,48,43
92,117,24,-104,34,70,-97,-4,34,43,39,43
87,126,39,-107,24,82,-102,-9,29,39,39,48
82,126,43,-104,19,85,-102,-9,24,34,34,48
82,102,19,-92,31,61,-107,-14,14,19,29,43
87,73,-14,-80,51,29,-107,-14,9,9,29,43
87,53,-34,-70,61,9,-87,-19,4,4,14,29
78,34,-43,-56,61,-4,-82,-34,-9,-14,-4,19
63,24,-39,-43,51,-7,-73,-43,-24,-34,-14,0
48,14,-34,-31,41,-9,-68,-43,-24,-34,-24,-4
34,0,-34,-17,34,-17,-58,-39,-29,-34,-24,-4
19,-14,-34,-2,26,-24,-48,-34,-34,-34,-34,-14
19,-29,-48,4,34,-39,-43,-34,-34,-34,-39,-29
19,-39,-58,9,39,-48,-43,-34,-39,-43,-48,-34
14,-48,-63,17,39,-56,-39,-34,-43,-53,-58,-43
9,-58,-68,24,39,-63,-39,-34,-43,-58,-58,-48
9,-73,-82,31,46,-78,-34,-34,-43,-63,-68,-53
9,-82,-92,36,51,-87,-29,-34,-48,-68,-68,-53
0,-82,-82,41,41,-82,-24,-29,-53,-73,-73,-53
0,-87,-87,43,43,-87,-19,-24,-53,-73,-73,-53
0,-87,-87,43,43,-87,-14,-24,-48,-68,-73,-53
0,-87,-87,43,43,-87,-14,-24,-43,-63,-73,-48
0,-87,-87,43,43,-87,-19,-24,-39,-63,-73,-48
0,-87,-87,43,43,-87,-19,-29,-39,-58,-73,-48
-4,-92,-87,48,41,-90,-19,-24,-39,-58,-73,-48
-4,-97,-92,51,43,-95,-14,-19,-34,-58,-73,-48
0,-107,-107,53,53,-107,-4,4,-19,-58,-73,-53
4,-117,-122,56,63,-119,9,39,-4,-43,-73,-68
4,-131,-136,63,70,-134,53,107,43,-24,-58,-73
24,-151,-175,63,100,-163,107,229,146,29,-24,-68
87,-151,-239,31,163,-195,131,380,278,131,48,-63
185,-141,-326,-21,256,-234,136,531,419,244,136,-29
287,-117,-405,-85,346,-261,117,688,561,366,239,34
414,-39,-453,-187,434,-246,58,819,712,507,356,136
595,112,-483,-353,539,-185,-97,854,829,673,527,283
844,317,-527,-580,685,-104,-326,771,863,814,761,522
1088,580,-507,-834,797,36,-600,556,795,941,1049,888
1366,907,-458,-1137,912,224,-941,244,673,1088,1420,1376
1590,1239,-351,-1415,971,444,-1220,-48,566,1229,1766,1834
1747,1590,-156,-1668,951,717,-1361,-156,629,1542,2244,2386
1708,2005,297,-1856,705,1151,-1283,-146,814,1912,2747,2786
1566,2313,746,-1939,409,1529,-1151,-268,829,2083,3030,3137
1415,2322,907,-1869,253,1615,-976,-248,868,2152,3157,3284
1312,1981,668,-1647,322,1324,-819,-165,868,2117,3230,3342
1132,1668,536,-1400,297,1102,-683,-136,883,2078,3274,3333
873,1381,507,-1127,183,944,-610,-126,834,1971,3123,3137
746,1156,409,-951,168,783,-605,-97,795,1859,2967,2908
653,971,317,-812,168,644,-580,-107,692,1693,2757,2684
575,761,185,-668,195,473,-502,-48,649,1522,2532,2435
473,527,53,-500,209,290,-385,14,570,1312,2244,2098
370,375,4,-373,183,190,-287,48,483,1088,1917,1771
244,253,9,-248,117,131,-180,48,400,897,1629,1434
141,165,24,-153,58,95,-102,19,287,727,1361,1141
58,112,53,-85,2,82,-63,-24,170,541,1078,863
-14,68,82,-26,-48,75,-34,-48,63,322,712,580
-73,4,78,34,-75,41,0,-53,-14,112,326,283
-92,-63,29,78,-61,-17,29,-53,-58,-39,34,29
-92,-107,-14,100,-39,-61,48,-39,-58,-82,-73,-82
-97,-126,-29,112,-34,-78,53,-19,-58,-122,-136,-126
-107,-131,-24,119,-41,-78,58,-9,-58,-126,-161,-161
-117,-131,-14,124,-51,-73,58,-19,-73,-126,-165,-170
-126,-131,-4,129,-61,-68,58,-24,-82,-136,-175,-180
-126,-131,-4,129,-61,-68,63,-19,-82,-146,-195,-190
-126,-131,-4,129,-61,-68,63,-14,-82,-151,-200,-200
-131,-131,0,131,-65,-65,63,-14,-82,-151,-204,-204
-131,-131,0,131,-65,-65,63,-19,-82,-151,-204,-204
-131,-126,4,129,-68,-61,63,-24,-87,-151,-214,-209
-136,-126,9,131,-73,-58,63,-29,-87,-156,-224,-209
-136,-126,9,131,-73,-58,63,-29,-87,-156,-224,-209
-136,-122,14,129,-75,-53,63,-29,-87,-156,-229,-219
-136,-122,14,129,-75,-53,68,-29,-87,-161,-224,-219
-141,-122,19,131,-80,-51,68,-29,-87,-161,-219,-219
-141,-122,19,131,-80,-51,68,-29,-87,-161,-229,-219
-146,-117,29,131,-87,-43,68,-29,-87,-161,-229,-224
-151,-112,39,131,-95,-36,73,-34,-87,-161,-229,-229
-151,-112,39,131,-95,-36,78,-34,-87,-165,-234,-234
-156,-112,43,134,-100,-34,78,-34,-87,-165,-234,-234
-156,-107,48,131,-102,-29,82,-34,-87,-165,-244,-239
-161,-107,53,134,-107,-26,82,-34,-92,-170,-248,-248
-161,-107,53,134,-107,-26,87,-34,-92,-175,-248,-253
-165,-102,63,134,-114,-19,87,-34,-92,-175,-253,-258
-180,-102,78,141,-129,-12,87,-39,-97,-180,-258,-258
-185,-102,82,143,-134,-9,92,-39,-97,-190,-268,-268
-195,-107,87,151,-141,-9,97,-39,-107,-200,-278,-278
-200,-107,92,153,-146,-7,102,-39,-117,-204,-292,-287
-209,-112,97,161,-153,-7,107,-34,-117,-214,-302,-302
-214,-112,102,163,-158,-4,112,-34,-117,-214,-322,-312
-224,-112,112,168,-168,0,112,-34,-126,-229,-341,-326
-234,-117,117,175,-175,0,122,-39,-131,-234,-356,-346
-248,-122,126,185,-187,2,126,-39,-146,-244,-375,-366
-263,-136,126,200,-195,-4,136,-43,-151,-263,-405,-390
-273,-136,136,204,-204,0,151,-58,-156,-283,-424,-414
-287,-141,146,214,-217,2,156,-53,-170,-302,-448,-444
-307,-151,156,229,-231,2,165,-58,-190,-326,-478,-473
-322,-156,165,239,-244,4,175,-68,-204,-346,-502,-492
-336,-165,170,251,-253,2,185,-82,-214,-366,-536,-522
-356,-170,185,263,-270,7,200,-82,-239,-395,-575,-551
-375,-190,185,283,-280,-2,214,-92,-258,-424,-619,-590
-409,-214,195,312,-302,-9,234,-97,-278,-453,-653,-629
-434,-229,204,331,-319,-12,248,-112,-302,-488,-697,-668
-463,-248,214,356,-339,-17,263,-122,-326,-527,-756,-717
-478,-258,219,368,-348,-19,273,-141,-356,-570,-810,-766
-512,-273,239,392,-375,-17,292,-161,-380,-614,-863,-814
-531,-287,244,409,-387,-21,302,-175,-409,-653,-922,-868
-556,-302,253,429,-405,-24,317,-180,-448,-688,-966,-917
-575,-326,248,451,-412,-39,326,-190,-478,-717,-1015,-956
-595,-341,253,468,-424,-43,346,-200,-492,-766,-1073,-1005
-619,-361,258,490,-439,-51,361,-214,-517,-805,-1127,-1058
-639,-380,258,509,-448,-61,370,-224,-536,-829,-1180,-1098
-653,-395,258,524,-456,-68,380,-234,-556,-849,-1215,-1132
-663,-405,258,534,-461,-73,380,-239,-570,-878,-1249,-1166
-668,-414,253,541,-461,-80,390,-239,-580,-893,-1278,-1190
-668,-419,248,544,-458,-85,385,-234,-580,-902,-1298,-1205
-658,-419,239,539,-448,-90,380,-229,-575,-902,-1298,-1210
-649,-424,224,536,-436,-100,380,-219,-566,-902,-1302,-1210
-624,-424,200,524,-412,-112,370,-200,-541,-888,-1288,-1190
-600,-424,175,512,-387,-124,361,-190,-522,-863,-1259,-1171
-566,-414,151,490,-358,-131,351,-170,-497,-834,-1224,-1137
-522,-405,117,463,-319,-143,331,-146,-468,-805,-1185,-1098
-478,-395,82,436,-280,-156,312,-117,-424,-761,-1132,-1054
-424,-370,53,397,-239,-158,283,-107,-400,-707,-1058,-995
-370,-351,19,361,-195,-165,253,-87,-361,-658,-990,-922
-322,-331,-9,326,-156,-170,224,-58,-312,-600,-912,-849
-273,-302,-29,287,-122,-165,195,-29,-268,-531,-834,-771
-229,-278,-48,253,-90,-163,170,-19,-219,-453,-741,-688
-180,-248,-68,214,-56,-158,146,-4,-180,-395,-649,-610
-136,-224,-87,180,-24,-156,112,24,-141,-331,-570,-531
-102,-195,-92,148,-4,-143,87,34,-97,-278,-488,-458
-73,-165,-92,119,9,-129,68,34,-73,-234,-414,-390
-43,-146,-102,95,29,-124,48,43,-58,-200,-341,-322
-19,-126,-107,73,43,-117,29,53,-29,-151,-278,-263
0,-107,-107,53,53,-107,19,53,-9,-117,-224,-209
14,-92,-107,39,61,-100,4,58,4,-87,-175,-165
19,-82,-102,31,61,-92,-4,53,14,-53,-131,-122
29,-73,-102,21,65,-87,-9,53,19,-34,-92,-92
39,-58,-97,9,68,-78,-14,53,29,-19,-68,-68
43,-48,-92,2,68,-70,-19,53,34,-4,-34,-48
43,-43,-87,0,65,-65,-24,48,34,0,-19,-29
48,-29,-78,-9,63,-53,-24,43,34,9,-4,-4
53,-19,-73,-17,63,-46,-29,43,39,14,14,9
53,-19,-73,-17,63,-46,-29,43,39,24,24,24
53,-14,-68,-19,61,-41,-29,43,39,34,34,34
53,-19,-73,-17,63,-46,-29,43,43,34,34,39
48,-24,-73,-12,61,-48,-29,39,43,39,39,43
48,-24,-73,-12,61,-48,-29,39,43,39,34,34
48,-24,-73,-12,61,-48,-29,34,34,39,29,29
39,-19,-58,-9,48,-39,-29,34,34,24,29,29
39,-19,-58,-9,48,-39,-29,24,29,19,24,24
39,-19,-58,-9,48,-39,-29,24,24,19,24,24
29,-14,-43,-7,36,-29,-29,19,19,14,19,19
29,-14,-43,-7,36,-29,-24,19,14,9,9,9
24,-19,-43,-2,34,-31,-14,14,9,0,0,0
24,-19,-43,-2,34,-31,-14,14,9,-4,-4,-4
14,-24,-39,4,26,-31,-9,9,9,-14,-14,-14
14,-29,-43,7,29,-36,-9,4,4,-14,-19,-24
9,-39,-48,14,29,-43,-4,4,4,-14,-24,-29
9,-39,-48,14,29,-43,0,4,0,-9,-24,-34
4,-43,-48,19,26,-46,0,0,-4,-14,-24,-29
-4,-48,-43,26,19,-46,0,0,-4,-24,-24,-34
-9,-48,-39,29,14,-43,0,0,-9,-24,-34,-39
-9,-53,-43,31,17,-48,4,0,-14,-29,-43,-43
-14,-58,-43,36,14,-51,4,0,-14,-34,-48,-48
-9,-63,-53,36,21,-58,4,-4,-14,-39,-53,-53
-4,-63,-58,34,26,-61,4,-4,-19,-39,-58,-53
-9,-63,-53,36,21,-58,4,-4,-19,-39,-63,-53
-9,-63,-53,36,21,-58,4,-4,-24,-43,-68,-58
-4,-68,-63,36,29,-65,4,0,-19,-43,-68,-63
-4,-68,-63,36,29,-65,4,4,-14,-48,-68,-63
-9,-73,-63,41,26,-68,4,0,-14,-43,-68,-63
-9,-82,-73,46,31,-78,4,0,-14,-39,-68,-63
-14,-82,-68,48,26,-75,4,4,-14,-39,-68,-63
-14,-82,-68,48,26,-75,4,4,-14,-39,-68,-58
-14,-87,-73,51,29,-80,4,0,-19,-39,-63,-58
-14,-92,-78,53,31,-85,0,0,-19,-39,-58,-58
-9,-92,-82,51,36,-87,0,0,-19,-39,-63,-53
-9,-92,-82,51,36,-87,0,0,-14,-39,-63,-48
-9,-92,-82,51,36,-87,0,0,-14,-34,-58,-43
-9,-92,-82,51,36,-87,0,4,-9,-34,-53,-43
-9,-92,-82,51,36,-87,0,4,-9,-34,-58,-43
-4,-82,-78,43,36,-80,0,9,-4,-34,-63,-43
0,-82,-82,41,41,-82,0,9,-9,-34,-58,-43
4,-78,-82,36,43,-80,0,14,-9,-29,-48,-43
9,-63,-73,26,41,-68,0,14,0,-19,-43,-34
14,-53,-68,19,41,-61,4,19,9,-14,-39,-24
14,-58,-73,21,43,-65,0,24,9,-4,-29,-14
19,-68,-87,24,53,-78,0,29,9,0,-19,-9
24,-53,-78,14,51,-65,0,29,9,0,-19,-9
29,-39,-68,4,48,-53,0,29,9,0,-19,-9
29,-29,-58,0,43,-43,0,24,9,0,-19,-9
29,-19,-48,-4,39,-34,0,24,9,0,-14,-4
29,-14,-43,-7,36,-29,4,24,14,4,-9,0
29,-14,-43,-7,36,-29,0,24,19,14,-4,0
39,-9,-48,-14,43,-29,-4,24,29,9,4,0
48,14,-34,-31,41,-9,-9,34,43,24,24,19
58,58,0,-58,29,29,-19,39,53,43,39,34
63,82,19,-73,21,51,-29,43,58,53,39,39
73,87,14,-80,29,51,-39,34,58,58,48,48
73,87,14,-80,29,51,-48,24,53,63,53,53
73,87,14,-80,29,51,-58,14,48,53,48,53
73,97,24,-85,24,61,-63,9,48,53,48,58
73,102,29,-87,21,65,-63,9,43,53,43,58
73,82,9,-78,31,46,-68,4,34,39,39,53
82,53,-29,-68,56,12,-78,4,29,29,39,53
87,34,-53,-61,70,-9,-73,4,24,24,24,39
78,14,-63,-46,70,-24,-73,-4,9,4,4,24
63,4,-58,-34,61,-26,-63,-14,-4,-14,-4,0
43,-4,-48,-19,46,-26,-58,-24,-14,-19,-14,-4
29,-19,-48,-4,39,-34,-48,-29,-24,-24,-14,-4
19,-39,-58,9,39,-48,-39,-24,-24,-24,-24,-9
19,-58,-78,19,48,-68,-34,-24,-24,-24,-24,-14
19,-68,-87,24,53,-78,-34,-24,-29,-34,-29,-14
14,-78,-92,31,53,-85,-29,-24,-34,-39,-39,-24
9,-87,-97,39,53,-92,-24,-24,-34,-39,-39,-29
9,-97,-107,43,58,-102,-14,-24,-34,-43,-48,-34
9,-102,-112,46,61,-107,-9,-24,-39,-53,-58,-43
0,-102,-102,51,51,-102,-9,-24,-43,-63,-73,-58
0,-112,-112,56,56,-112,-9,-24,-43,-63,-73,-63
0,-117,-117,58,58,-117,-4,-24,-43,-63,-73,-63
0,-117,-117,58,58,-117,-4,-24,-43,-58,-68,-53
0,-117,-117,58,58,-117,-4,-19,-39,-53,-63,-48
-4,-117,-112,61,53,-114,0,-19,-39,-48,-63,-48
-14,-122,-107,68,46,-114,0,-14,-39,-48,-63,-48
-14,-122,-107,68,46,-114,0,-14,-34,-48,-63,-43
-14,-126,-112,70,48,-119,4,-4,-19,-48,-63,-43
-14,-136,-122,75,53,-129,9,-4,-29,-43,-63,-58
-14,-156,-141,85,63,-148,43,39,-4,-34,-58,-68
-14,-180,-165,97,75,-173,107,151,78,0,-53,-68
9,-190,-200,90,104,-195,156,292,195,82,-4,-68
68,-209,-278,70,173,-244,209,444,331,180,68,-63
146,-219,-366,36,256,-292,229,605,463,287,161,-39
224,-224,-448,0,336,-336,234,790,614,385,214,-29
346,-151,-497,-97,422,-324,156,902,746,512,326,48
566,-19,-585,-273,575,-302,-4,971,897,673,492,180
795,190,-605,-492,700,-207,-229,907,961,829,712,434
1132,502,-629,-817,880,-63,-619,610,868,961,1058,902
1429,829,-600,-1129,1015,114,-976,331,766,1112,1420,1346
1771,1224,-546,-1498,1159,339,-1302,224,858,1537,2049,2059
1922,1708,-214,-1815,1068,746,-1405,195,1083,2020,2727,2679
1825,2337,512,-2081,656,1424,-1332,29,1180,2396,3240,3235
1703,2635,932,-2169,385,1783,-1190,-4,1288,2654,3567,3542
1629,2361,732,-1995,448,1546,-980,58,1263,2625,3679,3694
1473,2093,619,-1783,427,1356,-780,78,1229,2542,3723,3733
1117,1688,570,-1403,273,1129,-600,58,1127,2366,3567,3518
893,1351,458,-1122,217,905,-488,53,1029,2181,3362,3259
761,1156,395,-958,183,775,-531,-43,839,1961,3098,3006
653,941,287,-797,183,614,-546,-82,736,1751,2849,2752
585,653,68,-619,258,361,-458,-14,649,1527,2562,2420
512,444,-68,-478,290,187,-375,48,551,1283,2230,2098
366,302,-63,-334,214,119,-253,68,483,1073,1922,1737
239,200,-39,-219,139,80,-161,58,385,902,1644,1410
146,136,-9,-141,78,63,-102,14,268,746,1410,1132
58,87,29,-73,14,58,-48,-19,151,531,1063,849
-29,24,53,2,-41,39,-4,-34,48,253,580,488
-78,-43,34,61,-56,-4,29,-34,-19,43,200,180
-87,-107,-19,97,-34,-63,53,-24,-43,-39,9,0
-97,-146,-48,122,-24,-97,63,-9,-58,-102,-107,-107
-107,-151,-43,129,-31,-97,68,0,-58,-112,-136,-146
-112,-151,-39,131,-36,-95,68,-9,-68,-117,-146,-161
-117,-151,-34,134,-41,-92,63,-14,-78,-126,-156,-170
-117,-151,-34,134,-41,-92,63,-14,-82,-136,-175,-180
-122,-151,-29,136,-46,-90,63,-14,-82,-146,-190,-195
-131,-151,-19,141,-56,-85,63,-14,-82,-151,-204,-204
-131,-151,-19,141,-56,-85,68,-19,-82,-151,-204,-204
-131,-146,-14,139,-58,-80,73,-19,-87,-151,-209,-209
-136,-146,-9,141,-63,-78,73,-19,-87,-151,-209,-204
-136,-146,-9,141,-63,-78,73,-19,-87,-146,-204,-200
-136,-141,-4,139,-65,-73,73,-19,-87,-146,-209,-209
-136,-141,-4,139,-65,-73,78,-19,-87,-151,-209,-209
-136,-141,-4,139,-65,-73,78,-19,-87,-151,-209,-214
-131,-141,-9,136,-61,-75,78,-19,-87,-151,-219,-219
-136,-141,-4,139,-65,-73,78,-19,-87,-151,-219,-224
-141,-141,0,141,-70,-70,78,-24,-87,-151,-219,-229
-141,-141,0,141,-70,-70,73,-29,-92,-161,-224,-234
-146,-141,4,143,-75,-68,68,-34,-97,-165,-224,-234
-146,-136,9,141,-78,-63,73,-34,-97,-165,-234,-239
-151,-136,14,143,-82,-61,73,-34,-102,-170,-244,-248
-151,-136,14,143,-82,-61,82,-34,-102,-175,-248,-253
-156,-131,24,143,-90,-53,87,-34,-102,-175,-253,-263
-170,-131,39,151,-104,-46,87,-39,-107,-175,-253,-258
-175,-131,43,153,-109,-43,92,-39,-107,-180,-258,-258
-185,-141,43,163,-114,-48,97,-39,-112,-190,-268,-268
-190,-146,43,168,-117,-51,102,-43,-117,-195,-283,-278
-200,-151,48,175,-124,-51,107,-43,-117,-204,-292,-292
-204,-151,53,178,-129,-48,112,-48,-122,-209,-312,-302
-214,-146,68,180,-141,-39,107,-53,-136,-229,-331,-317
-219,-141,78,180,-148,-31,112,-58,-141,-239,-346,-336
-229,-141,87,185,-158,-26,117,-53,-151,-248,-356,-351
-244,-156,87,200,-165,-34,122,-53,-156,-263,-375,-366
-248,-156,92,202,-170,-31,131,-68,-165,-283,-390,-380
-258,-161,97,209,-178,-31,136,-68,-180,-302,-414,-405
-278,-165,112,222,-195,-26,141,-78,-200,-317,-448,-434
-292,-165,126,229,-209,-19,146,-87,-219,-331,-478,-458
-307,-175,131,241,-219,-21,156,-102,-234,-356,-512,-492
-326,-180,146,253,-236,-17,165,-107,-258,-390,-551,-522
-346,-200,146,273,-246,-26,180,-122,-273,-419,-595,-556
-375,-219,156,297,-265,-31,200,-131,-297,-448,-634,-595
-395,-224,170,309,-283,-26,209,-151,-331,-488,-683,-639
-424,-239,185,331,-305,-26,224,-161,-356,-531,-736,-688
-439,-248,190,344,-314,-29,229,-180,-385,-575,-785,-727
-473,-268,204,370,-339,-31,244,-200,-414,-614,-834,-766
-492,-287,204,390,-348,-41,253,-219,-448,-653,-893,-819
-517,-302,214,409,-366,-43,268,-239,-488,-697,-946,-873
-546,-322,224,434,-385,-48,278,-263,-517,-727,-1005,-917
-575,-331,244,453,-409,-43,292,-278,-536,-766,-1068,-966
-600,-346,253,473,-427,-46,302,-292,-570,-819,-1127,-1019
-614,-361,253,488,-434,-53,312,-302,-595,-868,-1185,-1058
-629,-375,253,502,-441,-61,322,-317,-619,-897,-1234,-1098
-644,-385,258,514,-451,-63,322,-326,-639,-927,-1278,-1137
-653,-400,253,527,-453,-73,331,-336,-658,-956,-1317,-1176
-658,-409,248,534,-453,-80,331,-341,-668,-980,-1346,-1205
-653,-414,239,534,-446,-87,341,-336,-668,-985,-1356,-1220
-649,-424,224,536,-436,-100,351,-326,-663,-985,-1366,-1229
-624,-429,195,527,-409,-117,346,-307,-639,-976,-1356,-1215
-600,-434,165,517,-383,-134,341,-292,-614,-956,-1337,-1200
-570,-424,146,497,-358,-139,331,-268,-595,-927,-1317,-1180
-536,-414,122,475,-329,-146,312,-244,-575,-897,-1288,-1151
-497,-405,92,451,-295,-156,292,-214,-536,-863,-1244,-1112
-453,-380,73,417,-263,-153,268,-195,-502,-814,-1180,-1063
-409,-370,39,390,-224,-165,248,-165,-458,-761,-1112,-990
-361,-361,0,361,-180,-180,229,-136,-414,-702,-1029,-917
-302,-336,-34,319,-134,-185,204,-102,-351,-629,-941,-844
-253,-317,-63,285,-95,-190,180,-78,-283,-541,-839,-761
-209,-287,-78,248,-65,-183,151,-53,-234,-473,-741,-678
-165,-263,-97,214,-34,-180,122,-24,-190,-409,-663,-595
-126,-234,-107,180,-9,-170,107,-4,-141,-351,-575,-517
-92,-204,-112,148,9,-158,87,9,-107,-292,-488,-448
-63,-180,-117,122,26,-148,68,24,-87,-244,-400,-375
-39,-156,-117,97,39,-136,48,34,-58,-190,-336,-312
-14,-136,-122,75,53,-129,39,39,-29,-151,-273,-253
4,-117,-122,56,63,-119,24,53,-4,-112,-214,-204
9,-102,-112,46,61,-107,14,53,9,-73,-170,-161
19,-92,-112,36,65,-102,9,53,24,-53,-131,-126
34,-78,-112,21,73,-95,4,58,39,-29,-97,-97
43,-68,-112,12,78,-90,0,63,43,0,-53,-78
43,-58,-102,7,73,-80,-9,58,43,9,-34,-48
48,-43,-92,-2,70,-68,-14,53,43,19,-14,-19
48,-39,-87,-4,68,-63,-19,48,43,24,4,-9
43,-39,-82,-2,63,-61,-19,43,39,29,14,0
43,-34,-78,-4,61,-56,-19,43,39,34,24,4
43,-34,-78,-4,61,-56,-19,43,43,34,24,9
39,-34,-73,-2,56,-53,-19,43,53,39,29,14
39,-34,-73,-2,56,-53,-19,48,63,39,29,14
43,-34,-78,-4,61,-56,-19,43,43,39,29,14
39,-29,-68,-4,53,-48,-19,43,34,29,29,9
39,-29,-68,-4,53,-48,-19,29,29,29,24,4
39,-34,-73,-2,56,-53,-19,24,24,29,24,4
29,-34,-63,2,46,-48,-19,19,24,24,19,4
29,-34,-63,2,46,-48,-19,19,24,19,9,0
24,-43,-68,9,46,-56,-14,14,19,9,4,-9
24,-48,-73,12,48,-61,-14,14,14,4,4,-14
14,-53,-68,19,41,-61,-9,9,14,0,-4,-24
14,-53,-68,19,41,-61,-9,4,14,0,-9,-34
9,-53,-63,21,36,-58,-4,4,14,-4,-14,-39
9,-48,-58,19,34,-53,0,4,9,-4,-24,-48
4,-53,-58,24,31,-56,0,0,-4,-19,-39,-48
0,-58,-58,29,29,-58,0,0,-14,-34,-43,-53
-4,-58,-53,31,24,-56,0,0,-19,-34,-58,-58
-9,-63,-53,36,21,-58,4,0,-24,-39,-68,-63
-14,-68,-53,41,19,-61,4,0,-19,-43,-68,-68
-14,-73,-58,43,21,-65,4,-4,-14,-48,-73,-73
-9,-68,-58,39,24,-63,4,-4,-19,-48,-73,-73
-9,-63,-53,36,21,-58,4,-4,-19,-48,-73,-73
-9,-63,-53,36,21,-58,4,-4,-24,-53,-78,-78
-4,-68,-63,36,29,-65,4,-4,-24,-53,-78,-82
-4,-68,-63,36,29,-65,4,-4,-24,-58,-82,-82
-9,-68,-58,39,24,-63,4,-9,-24,-58,-87,-82
-9,-73,-63,41,26,-68,4,-9,-29,-58,-87,-87
-9,-73,-63,41,26,-68,4,-4,-34,-58,-87,-92
-4,-73,-68,39,31,-70,4,-4,-34,-58,-87,-87
-4,-73,-68,39,31,-70,4,-9,-39,-58,-87,-87
-4,-73,-68,39,31,-70,0,-9,-39,-58,-82,-87
0,-73,-73,36,36,-73,0,-9,-39,-58,-82,-87
0,-73,-73,36,36,-73,0,-9,-34,-63,-82,-87
0,-73,-73,36,36,-73,0,-9,-34,-63,-78,-82
0,-73,-73,36,36,-73,0,-4,-29,-68,-82,-87
0,-73,-73,36,36,-73,0,-4,-29,-68,-87,-87
4,-63,-68,29,36,-65,0,0,-29,-68,-92,-82
9,-58,-68,24,39,-63,0,0,-34,-63,-92,-73
4,-58,-63,26,34,-61,0,4,-24,-53,-68,-63
4,-63,-68,29,36,-65,4,9,-19,-48,-48,-58
4,-58,-63,26,34,-61,0,9,-14,-39,-43,-43
9,-58,-68,24,39,-63,0,9,-9,-29,-39,-29
14,-39,-53,12,34,-46,-4,9,-9,-29,-39,-39
19,-19,-39,0,29,-29,-9,9,-9,-29,-39,-48
24,-19,-43,-2,34,-31,-9,9,-4,-24,-34,-48
24,-19,-43,-2,34,-31,-4,9,0,-19,-24,-39
29,-19,-48,-4,39,-34,0,14,4,-14,-19,-34
29,-24,-53,-2,41,-39,0,14,9,-4,-14,-29
34,-4,-39,-14,36,-21,-4,14,9,-9,-14,-29
39,34,-4,-36,21,14,-9,24,14,4,-4,-9
48,68,19,-58,14,43,-19,24,34,34,9,4
53,82,29,-68,12,56,-29,24,48,53,9,9
63,87,24,-75,19,56,-39,19,48,43,14,14
63,87,24,-75,19,56,-48,14,43,34,14,14
63,87,24,-75,19,56,-58,4,34,24,19,14
63,97,34,-80,14,65,-63,0,29,24,29,19
63,107,43,-85,9,75,-63,0,24,29,24,19
63,92,29,-78,17,61,-68,-4,14,19,19,14
73,63,-9,-68,41,26,-78,-4,9,9,24,19
78,43,-34,-61,56,4,-73,-4,4,4,14,9
78,24,-53,-51,65,-14,-78,-14,-9,-14,-4,0
73,14,-58,-43,65,-21,-73,-24,-24,-34,-14,-19
48,4,-43,-26,46,-19,-68,-24,-29,-39,-29,-24
29,-9,-39,-9,34,-24,-58,-19,-34,-43,-34,-24
19,-24,-43,2,31,-34,-43,-19,-34,-43,-43,-34
19,-39,-58,9,39,-48,-34,-24,-34,-43,-43,-43
19,-53,-73,17,46,-63,-29,-24,-39,-53,-48,-43
14,-68,-82,26,48,-75,-19,-24,-43,-58,-58,-53
9,-78,-87,34,48,-82,-19,-24,-43,-58,-58,-58
9,-87,-97,39,53,-92,-14,-24,-43,-63,-68,-63
14,-92,-107,39,61,-100,-9,-29,-48,-68,-68,-63
9,-92,-102,41,56,-97,-9,-34,-53,-73,-73,-68
9,-97,-107,43,58,-102,-14,-34,-53,-73,-73,-73
9,-97,-107,43,58,-102,-14,-34,-53,-73,-73,-73
4,-97,-102,46,53,-100,-14,-34,-53,-78,-78,-73
0,-97,-97,48,48,-97,-14,-29,-48,-82,-82,-78
0,-97,-97,48,48,-97,-9,-29,-53,-78,-82,-78
-4,-102,-97,53,46,-100,-9,-24,-58,-78,-82,-78
-4,-107,-102,56,48,-104,-4,-19,-53,-78,-82,-78
-4,-117,-112,61,53,-114,4,-4,-39,-78,-82,-82
-9,-112,-102,61,46,-107,4,-14,-53,-78,-82,-97
-14,-117,-102,65,43,-109,34,19,-34,-73,-78,-107
-19,-161,-141,90,61,-151,97,126,43,-39,-73,-112
0,-190,-190,95,95,-190,146,263,156,43,-24,-117
53,-209,-263,78,158,-236,204,414,302,136,34,-112
126,-219,-346,46,236,-283,229,575,444,239,112,-87
200,-229,-429,14,314,-329,248,780,619,361,175,-63
317,-161,-478,-78,397,-319,185,912,775,512,297,29
527,-29,-556,-248,541,-292,34,995,932,692,492,170
746,180,-566,-463,656,-192,-180,946,1000,868,741,434
1073,507,-566,-790,819,-29,-580,663,907,1015,1102,907
1361,849,-512,-1105,936,168,-946,400,805,1180,1478,1356
1688,1244,-444,-1466,1066,400,-1273,302,883,1590,2108,2049
1825,1727,-97,-1776,961,814,-1376,283,1093,2059,2786,2649
1737,2342,605,-2039,566,1473,-1312,97,1161,2405,3269,3191
1625,2625,1000,-2125,312,1812,-1180,43,1239,2635,3567,3484
1556,2357,800,-1956,378,1578,-985,107,1229,2635,3713,3640
1405,2093,688,-1749,358,1390,-800,126,1210,2581,3791,3684
1068,1698,629,-1383,219,1163,-634,107,1122,2410,3630,3459
863,1371,507,-1117,178,939,-536,102,1039,2230,3420,3191
736,1171,434,-954,151,802,-561,4,839,2005,3167,2937
634,951,317,-793,158,634,-556,-34,727,1790,2928,2684
570,673,102,-622,234,387,-468,29,663,1590,2664,2376
502,473,-29,-488,265,222,-385,87,590,1371,2357,2078
370,317,-53,-344,212,131,-258,112,531,1166,2059,1742
258,200,-58,-229,158,70,-161,107,444,1000,1790,1439
165,131,-34,-148,100,48,-107,53,312,824,1527,1146
78,78,0,-78,39,39,-58,9,180,590,1151,849
-19,14,34,2,-26,24,-9,-24,58,287,644,492
-78,-53,24,65,-51,-14,29,-43,-29,53,239,190
-82,-112,-29,97,-26,-70,48,-34,-53,-48,19,4
-87,-146,-58,117,-14,-102,53,-19,-68,-131,-126,-107
-97,-151,-53,124,-21,-102,58,-9,-68,-141,-161,-146
-102,-151,-48,126,-26,-100,58,-19,-78,-146,-175,-161
-107,-151,-43,129,-31,-97,58,-24,-92,-156,-185,-180
-107,-151,-43,129,-31,-97,63,-24,-102,-165,-204,-200
-107,-151,-43,129,-31,-97,63,-24,-102,-170,-209,-209
-112,-151,-39,131,-36,-95,63,-24,-102,-170,-214,-214
-112,-151,-39,131,-36,-95,68,-29,-97,-165,-214,-209
-112,-146,-34,129,-39,-90,73,-29,-97,-161,-219,-209
-117,-151,-34,134,-41,-92,73,-29,-92,-165,-224,-209
-117,-156,-39,136,-39,-97,73,-29,-87,-165,-224,-209
-117,-151,-34,134,-41,-92,68,-29,-87,-170,-234,-229
-117,-151,-34,134,-41,-92,68,-29,-87,-180,-239,-239
-122,-151,-29,136,-46,-90,68,-29,-92,-180,-239,-239
-122,-151,-29,136,-46,-90,68,-29,-97,-180,-248,-239
-126,-146,-19,136,-53,-82,73,-29,-97,-180,-248,-239
-131,-141,-9,136,-61,-75,78,-34,-97,-180,-248,-239
-131,-141,-9,136,-61,-75,78,-34,-97,-185,-248,-239
-136,-141,-4,139,-65,-73,78,-34,-97,-185,-244,-234
-136,-136,0,136,-68,-68,78,-39,-97,-185,-253,-234
-141,-136,4,139,-73,-65,73,-43,-102,-190,-263,-239
-141,-136,4,139,-73,-65,78,-43,-102,-195,-268,-244
-146,-131,14,139,-80,-58,78,-43,-102,-195,-273,-253
-156,-131,24,143,-90,-53,78,-48,-107,-200,-278,-258
-156,-131,24,143,-90,-53,82,-48,-107,-209,-287,-268
-165,-126,39,146,-102,-43,87,-48,-117,-219,-297,-278
-170,-117,53,143,-112,-31,92,-53,-126,-224,-312,-287
-180,-131,48,156,-114,-41,97,-48,-122,-229,-317,-302
-185,-141,43,163,-114,-48,102,-48,-122,-229,-331,-312
-195,-141,53,168,-124,-43,97,-53,-136,-248,-351,-326
-200,-141,58,170,-129,-41,102,-58,-141,-258,-366,-346
-209,-136,73,173,-141,-31,107,-58,-161,-273,-385,-361
-224,-146,78,185,-151,-34,112,-63,-175,-292,-414,-375
-234,-146,87,190,-161,-29,122,-78,-185,-312,-424,-390
-248,-151,97,200,-173,-26,126,-78,-200,-331,-444,-414
-263,-161,102,212,-183,-29,136,-87,-219,-351,-478,-444
-273,-165,107,219,-190,-29,146,-97,-239,-370,-507,-468
-287,-175,112,231,-200,-31,156,-112,-248,-385,-546,-502
-307,-180,126,244,-217,-26,165,-117,-268,-409,-590,-531
-326,-195,131,261,-229,-31,175,-136,-287,-458,-639,-570
-356,-209,146,283,-251,-31,190,-151,-317,-507,-683,-614
-375,-219,156,297,-265,-31,200,-170,-351,-536,-732,-649
-405,-239,165,322,-285,-36,214,-180,-375,-570,-785,-688
-419,-244,175,331,-297,-34,219,-200,-400,-619,-839,-736
-453,-258,195,356,-324,-31,234,-219,-424,-663,-893,-785
-473,-273,200,373,-336,-36,244,-234,-458,-702,-956,-844
-497,-283,214,390,-356,-34,258,-248,-497,-746,-1015,-902
-517,-302,214,409,-366,-43,263,-278,-536,-795,-1078,-946
-536,-312,224,424,-380,-43,273,-297,-566,-854,-1146,-995
-561,-331,229,446,-395,-51,283,-312,-600,-897,-1210,-1049
-575,-351,224,463,-400,-63,292,-322,-624,-936,-1273,-1088
-590,-375,214,483,-402,-80,307,-336,-644,-971,-1317,-1127
-605,-395,209,500,-407,-92,312,-346,-658,-1005,-1356,-1166
-619,-409,209,514,-414,-100,326,-351,-683,-1034,-1395,-1200
-629,-419,209,524,-419,-104,331,-351,-697,-1058,-1424,-1224
-624,-424,200,524,-412,-112,336,-351,-697,-1063,-1439,-1239
-619,-434,185,527,-402,-124,341,-346,-692,-1063,-1454,-1249
-595,-434,161,514,-378,-136,331,-331,-678,-1058,-1449,-1249
-570,-434,136,502,-353,-148,322,-322,-663,-1044,-1434,-1249
-546,-429,117,488,-331,-156,317,-297,-634,-1010,-1410,-1215
-517,-424,92,470,-305,-165,302,-273,-605,-976,-1376,-1171
-478,-419,58,448,-268,-180,283,-239,-561,-936,-1322,-1132
-434,-400,34,417,-234,-183,258,-214,-522,-883,-1249,-1083
-395,-380,14,387,-204,-183,239,-185,-473,-824,-1176,-1010
-351,-361,-9,356,-170,-185,219,-156,-424,-761,-1088,-936
-302,-336,-34,319,-134,-185,195,-117,-375,-707,-1029,-883
-263,-317,-53,290,-104,-185,170,-87,-322,-639,-956,-819
-219,-287,-68,253,-75,-178,146,-63,-268,-551,-829,-722
-175,-263,-87,219,-43,-175,122,-34,-219,-468,-722,-624
-136,-244,-107,190,-14,-175,112,-4,-156,-390,-629,-546
-102,-224,-122,163,9,-173,97,19,-107,-312,-536,-478
-73,-204,-131,139,29,-168,78,34,-82,-263,-439,-395
-48,-185,-136,117,43,-161,58,43,-48,-209,-366,-322
-19,-161,-141,90,61,-151,43,43,-29,-175,-302,-263
4,-136,-141,65,73,-139,24,53,-14,-141,-244,-214
9,-117,-126,53,68,-122,14,53,0,-92,-190,-165
19,-102,-122,41,70,-112,9,53,14,-63,-141,-126
29,-87,-117,29,73,-102,4,53,29,-48,-112,-97
34,-78,-112,21,73,-95,0,53,34,-29,-73,-78
34,-68,-102,17,68,-85,-9,48,34,-9,-48,-53
39,-53,-92,7,65,-73,-14,43,34,9,-24,-29
48,-48,-97,0,73,-73,-19,43,39,14,-4,-19
53,-48,-102,-2,78,-75,-19,43,39,19,4,-9
53,-43,-97,-4,75,-70,-19,43,39,24,14,-4
53,-43,-97,-4,75,-70,-19,43,43,24,14,0
48,-43,-92,-2,70,-68,-19,39,43,29,19,4
48,-43,-92,-2,70,-68,-19,39,43,29,19,4
48,-43,-92,-2,70,-68,-19,34,34,29,24,14
39,-39,-78,0,58,-58,-19,34,34,19,29,19
39,-39,-78,0,58,-58,-19,29,34,24,24,14
39,-43,-82,2,61,-63,-19,34,34,29,24,14
29,-43,-73,7,51,-58,-19,29,29,24,19,9
29,-43,-73,7,51,-58,-19,29,24,19,9,0
24,-48,-73,12,48,-61,-14,24,29,9,0,-4
24,-48,-73,12,48,-61,-14,24,34,4,-4,-4
14,-53,-68,19,41,-61,-9,19,19,-4,-14,-14
14,-53,-68,19,41,-61,-9,14,4,-9,-19,-24
9,-58,-68,24,39,-63,-4,9,4,-19,-24,-34
9,-58,-68,24,39,-63,0,4,0,-24,-34,-48
4,-63,-68,29,36,-65,0,0,-4,-34,-43,-48
0,-68,-68,34,34,-68,0,0,-4,-43,-43,-53
0,-68,-68,34,34,-68,0,0,-9,-43,-53,-58
0,-73,-73,36,36,-73,4,0,-14,-48,-58,-63
-4,-78,-73,41,34,-75,4,0,-14,-53,-58,-68
-4,-82,-78,43,36,-80,4,-4,-14,-58,-63,-73
-4,-82,-78,43,36,-80,4,-4,-19,-58,-68,-73
-9,-82,-73,46,31,-78,4,-4,-19,-58,-73,-73
-9,-82,-73,46,31,-78,4,-4,-24,-63,-78,-78
-4,-87,-82,46,39,-85,4,-4,-24,-63,-78,-82
-4,-87,-82,46,39,-85,4,-4,-24,-68,-73,-78
-9,-87,-78,48,34,-82,4,-9,-24,-68,-68,-73
-9,-97,-87,53,39,-92,4,-9,-24,-68,-68,-73
-9,-102,-92,56,41,-97,4,-4,-24,-68,-68,-73
-4,-102,-97,53,46,-100,4,0,-24,-68,-68,-68
-4,-102,-97,53,46,-100,4,0,-29,-68,-68,-68
-4,-102,-97,53,46,-100,0,0,-29,-68,-73,-73
0,-102,-102,51,51,-102,0,0,-29,-68,-82,-78
0,-102,-102,51,51,-102,0,0,-24,-68,-82,-78
0,-102,-102,51,51,-102,0,0,-24,-63,-78,-73
0,-102,-102,51,51,-102,0,4,-19,-63,-73,-73
0,-102,-102,51,51,-102,0,4,-19,-58,-68,-68
4,-92,-97,43,51,-95,4,9,-14,-53,-63,-63
9,-87,-97,39,53,-92,9,9,-14,-43,-53,-53
14,-82,-97,34,56,-90,4,14,0,-39,-48,-39
19,-78,-97,29,58,-87,0,19,9,-39,-48,-29
19,-63,-82,21,51,-73,0,19,9,-29,-34,-29
19,-48,-68,14,43,-58,0,19,9,-19,-19,-29
19,-48,-68,14,43,-58,0,19,14,-14,-19,-29
19,-43,-63,12,41,-53,0,19,19,-9,-19,-29
19,-43,-63,12,41,-53,4,19,24,-9,-19,-29
19,-43,-63,12,41,-53,4,24,24,-4,-19,-19
19,-39,-58,9,39,-48,0,24,29,4,-14,-24
29,-14,-43,-7,36,-29,-4,24,39,9,-4,-29
39,24,-14,-31,26,4,-4,34,53,29,14,-9
48,48,0,-48,24,24,-9,34,58,34,29,4
53,48,-4,-51,29,21,-19,34,53,34,29,14
63,48,-14,-56,39,17,-29,24,48,34,34,24
63,48,-14,-56,39,17,-43,9,43,34,34,24
63,48,-14,-56,39,17,-58,-4,34,24,29,24
63,68,4,-65,29,36,-63,-9,34,24,34,29
63,78,14,-70,24,46,-63,-9,34,24,34,29
63,53,-9,-58,36,21,-68,-4,24,9,29,24
68,24,-43,-46,56,-9,-68,4,19,0,29,24
68,4,-63,-36,65,-29,-53,4,14,-4,9,9
58,-14,-73,-21,65,-43,-53,-4,0,-24,-14,0
43,-24,-68,-9,56,-46,-43,-14,-14,-39,-24,-19
29,-34,-63,2,46,-48,-39,-14,-14,-34,-34,-24
19,-53,-73,17,46,-63,-29,-9,-14,-34,-29,-19
9,-73,-82,31,46,-78,-19,-4,-14,-34,-34,-24
14,-87,-102,36,58,-95,-14,-4,-14,-34,-34,-34
19,-97,-117,39,68,-107,-14,-4,-19,-43,-39,-34
14,-107,-122,46,68,-114,-9,-4,-24,-48,-48,-43
9,-117,-126,53,68,-122,-9,-4,-24,-48,-48,-48
9,-126,-136,58,73,-131,-4,-9,-24,-53,-58,-63
9,-131,-141,61,75,-136,0,-14,-29,-58,-58,-73
0,-131,-131,65,65,-131,0,-14,-34,-68,-68,-78
0,-136,-136,68,68,-136,0,-14,-34,-73,-73,-82
0,-136,-136,68,68,-136,4,-14,-34,-73,-73,-82
0,-136,-136,68,68,-136,4,-14,-34,-73,-73,-78
0,-136,-136,68,68,-136,4,-4,-29,-73,-73,-73
0,-136,-136,68,68,-136,9,0,-29,-68,-73,-68
-4,-141,-136,73,65,-139,9,4,-29,-68,-73,-68
-4,-146,-141,75,68,-143,14,9,-24,-68,-73,-68
-4,-156,-151,80,73,-153,24,24,-9,-68,-73,-73
-4,-165,-161,85,78,-163,39,48,4,-53,-73,-87
-4,-195,-190,100,92,-192,87,117,53,-29,-68,-97
14,-229,-244,107,129,-236,146,239,156,29,-43,-97
48,-244,-292,97,170,-268,190,390,292,131,24,-107
117,-248,-366,65,241,-307,214,541,439,244,107,-87
209,-239,-448,14,329,-344,200,702,590,366,209,-29
326,-175,-502,-75,414,-339,146,839,751,507,326,68
488,-19,-507,-234,497,-263,4,922,907,717,531,229
717,190,-527,-453,622,-168,-209,888,980,902,800,483
956,473,-483,-714,719,-4,-492,741,951,1088,1156,893
1229,819,-409,-1024,819,204,-844,497,868,1293,1595,1424
1468,1220,-248,-1344,858,485,-1151,234,785,1503,2044,1947
1639,1639,0,-1639,819,819,-1322,156,873,1883,2625,2562
1634,2098,463,-1866,585,1281,-1283,131,1044,2269,3147,2986
1527,2449,922,-1988,302,1686,-1190,-24,1044,2454,3450,3362
1385,2449,1063,-1917,161,1756,-1015,-24,1063,2522,3596,3513
1293,2098,805,-1695,244,1451,-858,39,1044,2488,3689,3577
1112,1732,619,-1422,246,1176,-688,48,1015,2381,3679,3508
854,1390,536,-1122,158,963,-580,39,922,2205,3474,3254
727,1146,419,-936,153,783,-575,29,839,2044,3274,2986
634,941,307,-788,163,624,-551,-19,692,1830,3020,2723
575,727,151,-651,212,439,-488,29,663,1664,2796,2479
492,488,-4,-490,248,241,-385,82,600,1459,2508,2147
395,331,-63,-363,229,134,-287,117,527,1244,2186,1825
273,204,-68,-239,170,68,-180,117,458,1063,1903,1493
170,112,-58,-141,114,26,-102,78,346,858,1586,1176
87,53,-34,-70,61,9,-63,24,229,639,1254,873
9,19,9,-14,0,14,-29,-19,102,375,819,575
-53,-34,19,43,-36,-7,9,-43,4,122,366,263
-78,-102,-24,90,-26,-63,39,-43,-53,-43,39,4
-82,-146,-63,114,-9,-104,58,-29,-68,-102,-102,-112
-87,-165,-78,126,-4,-122,63,-9,-68,-141,-165,-156
-97,-170,-73,134,-12,-122,68,0,-68,-146,-190,-190
-102,-170,-68,136,-17,-119,73,-9,-78,-146,-195,-200
-107,-170,-63,139,-21,-117,78,-14,-82,-156,-204,-209
-107,-175,-68,141,-19,-122,82,-14,-82,-165,-224,-219
-107,-180,-73,143,-17,-126,82,-14,-82,-170,-229,-229
-112,-180,-68,146,-21,-124,78,-14,-82,-170,-234,-234
-112,-180,-68,146,-21,-124,73,-19,-82,-170,-234,-234
-112,-170,-58,141,-26,-114,73,-19,-87,-170,-239,-239
-117,-165,-48,141,-34,-107,73,-19,-87,-175,-244,-239
-117,-165,-48,141,-34,-107,73,-24,-87,-175,-244,-244
-117,-161,-43,139,-36,-102,73,-29,-87,-175,-248,-258
-117,-161,-43,139,-36,-102,78,-29,-87,-180,-248,-258
-122,-161,-39,141,-41,-100,78,-29,-87,-180,-248,-258
-122,-161,-39,141,-41,-100,78,-29,-87,-180,-258,-258
-126,-156,-29,141,-48,-92,78,-29,-87,-180,-258,-263
-131,-156,-24,143,-53,-90,78,-34,-87,-180,-258,-268
-131,-161,-29,146,-51,-95,78,-34,-87,-185,-263,-273
-136,-161,-24,148,-56,-92,78,-34,-87,-185,-263,-268
-136,-156,-19,146,-58,-87,82,-34,-87,-185,-273,-268
-141,-156,-14,148,-63,-85,82,-34,-92,-190,-283,-278
-141,-156,-14,148,-63,-85,87,-34,-92,-195,-287,-283
-141,-151,-9,146,-65,-80,87,-34,-97,-195,-292,-292
-151,-151,0,151,-75,-75,87,-39,-107,-200,-297,-297
-156,-146,9,151,-82,-68,92,-43,-107,-214,-307,-307
-165,-146,19,156,-92,-63,97,-48,-117,-229,-317,-317
-170,-146,24,158,-97,-61,97,-53,-126,-234,-331,-326
-180,-151,29,165,-104,-61,97,-53,-126,-244,-341,-341
-185,-151,34,168,-109,-58,102,-58,-126,-248,-361,-351
-195,-151,43,173,-119,-53,102,-63,-136,-268,-380,-366
-200,-151,48,175,-124,-51,112,-68,-141,-278,-395,-385
-209,-151,58,180,-134,-46,117,-68,-156,-292,-414,-405
-224,-165,58,195,-141,-53,122,-73,-165,-312,-444,-424
-234,-165,68,200,-151,-48,131,-87,-175,-331,-463,-444
-248,-170,78,209,-163,-46,136,-87,-190,-351,-492,-473
-268,-180,87,224,-178,-46,146,-97,-209,-375,-527,-502
-283,-185,97,234,-190,-43,156,-107,-229,-405,-556,-527
-297,-195,102,246,-200,-46,165,-122,-244,-434,-595,-561
-317,-195,122,256,-219,-36,175,-126,-273,-468,-644,-590
-336,-209,126,273,-231,-41,185,-141,-297,-502,-697,-629
-366,-229,136,297,-251,-46,200,-151,-326,-541,-741,-678
-385,-239,146,312,-265,-46,209,-170,-361,-585,-795,-727
-409,-258,151,334,-280,-53,224,-180,-385,-629,-863,-775
-419,-268,151,344,-285,-58,234,-200,-414,-678,-927,-824
-453,-287,165,370,-309,-61,248,-224,-444,-722,-980,-873
-473,-307,165,390,-319,-70,253,-244,-478,-761,-1039,-927
-497,-322,175,409,-336,-73,268,-258,-522,-814,-1098,-980
-517,-346,170,431,-344,-87,278,-278,-556,-863,-1161,-1024
-536,-361,175,448,-356,-92,292,-287,-580,-912,-1224,-1073
-561,-380,180,470,-370,-100,302,-302,-614,-951,-1283,-1127
-575,-400,175,488,-375,-112,312,-312,-634,-985,-1346,-1166
-585,-414,170,500,-378,-122,322,-322,-653,-1015,-1390,-1200
-595,-429,165,512,-380,-131,322,-331,-668,-1049,-1424,-1244
-600,-444,156,522,-378,-143,331,-336,-678,-1068,-1454,-1278
-600,-448,151,524,-375,-148,331,-331,-678,-1078,-1478,-1293
-590,-448,141,519,-366,-153,331,-326,-673,-1078,-1483,-1298
-580,-453,126,517,-353,-163,331,-317,-663,-1073,-1483,-1298
-556,-453,102,505,-329,-175,322,-297,-639,-1054,-1464,-1278
-536,-448,87,492,-312,-180,312,-283,-610,-1019,-1429,-1249
-507,-434,73,470,-290,-180,302,-258,-575,-980,-1390,-1205
-468,-424,43,446,-256,-190,283,-234,-546,-941,-1342,-1156
-429,-414,14,422,-222,-200,263,-204,-502,-888,-1278,-1102
-385,-395,-9,390,-187,-202,244,-185,-463,-824,-1195,-1044
-341,-380,-39,361,-151,-209,224,-156,-409,-766,-1117,-971
-292,-361,-68,326,-112,-214,200,-126,-356,-702,-1024,-897
-244,-331,-87,287,-78,-209,175,-97,-307,-629,-932,-819
-204,-307,-102,256,-51,-204,151,-78,-253,-536,-829,-732
-161,-278,-117,219,-21,-197,126,-53,-209,-463,-727,-649
-122,-253,-131,187,4,-192,102,-14,-165,-390,-639,-566
-92,-224,-131,158,19,-178,87,4,-117,-326,-546,-488
-68,-195,-126,131,29,-161,68,9,-87,-268,-458,-419
-43,-175,-131,109,43,-153,48,24,-68,-219,-370,-351
-19,-146,-126,82,53,-136,29,34,-39,-170,-302,-292
0,-117,-117,58,58,-117,19,34,-19,-136,-244,-239
14,-97,-112,41,63,-104,14,43,0,-97,-195,-195
19,-82,-102,31,61,-92,14,43,14,-53,-151,-151
34,-78,-112,21,73,-95,9,43,24,-34,-107,-112
48,-68,-117,9,82,-92,4,43,39,-19,-78,-78
53,-58,-112,2,82,-85,-4,43,43,0,-39,-58
53,-53,-107,0,80,-80,-14,39,43,9,-19,-39
53,-43,-97,-4,75,-70,-14,34,43,24,-4,-19
53,-39,-92,-7,73,-65,-19,34,48,34,14,-9
53,-39,-92,-7,73,-65,-19,34,48,39,19,0
53,-34,-87,-9,70,-61,-19,34,48,43,24,4
53,-34,-87,-9,70,-61,-19,34,53,43,24,9
48,-34,-82,-7,65,-58,-19,29,53,48,29,14
48,-34,-82,-7,65,-58,-19,34,53,48,34,14
48,-34,-82,-7,65,-58,-19,34,43,48,39,19
43,-29,-73,-7,58,-51,-19,34,43,39,39,19
48,-29,-78,-9,63,-53,-19,24,39,39,34,14
48,-29,-78,-9,63,-53,-19,24,34,39,34,14
39,-24,-63,-7,51,-43,-19,19,29,34,29,9
39,-24,-63,-7,51,-43,-19,19,24,29,19,0
34,-29,-63,-2,48,-46,-14,14,19,19,9,-9
34,-29,-63,-2,48,-46,-14,14,14,9,4,-9
24,-34,-58,4,41,-46,-9,9,9,-4,-4,-14
24,-34,-58,4,41,-46,-14,4,4,-9,-9,-24
19,-39,-58,9,39,-48,-14,4,4,-14,-14,-29
19,-43,-63,12,41,-53,-9,4,0,-14,-24,-43
14,-53,-68,19,41,-61,-9,0,-4,-24,-34,-48
9,-58,-68,24,39,-63,-9,-4,-4,-34,-34,-53
9,-58,-68,24,39,-63,-9,-9,-9,-34,-43,-58
9,-58,-68,24,39,-63,-4,-9,-19,-39,-58,-63
4,-58,-63,26,34,-61,-4,-9,-24,-43,-68,-68
4,-63,-68,29,36,-65,-4,-14,-24,-48,-73,-73
4,-63,-68,29,36,-65,-4,-14,-29,-48,-78,-73
-4,-63,-58,34,26,-61,-4,-14,-24,-48,-78,-73
-9,-63,-53,36,21,-58,-4,-14,-24,-53,-78,-78
-4,-68,-63,36,29,-65,-4,-14,-24,-53,-78,-82
-4,-68,-63,36,29,-65,-4,-14,-24,-58,-78,-82
-9,-68,-58,39,24,-63,-4,-19,-24,-58,-78,-82
-9,-73,-63,41,26,-68,-4,-19,-24,-58,-78,-82
-9,-73,-63,41,26,-68,-4,-14,-24,-58,-78,-82
-4,-73,-68,39,31,-70,-4,-14,-24,-58,-78,-78
-4,-73,-68,39,31,-70,-4,-14,-29,-58,-78,-78
-4,-73,-68,39,31,-70,-9,-9,-29,-58,-78,-78
4,-73,-78,34,41,-75,-4,-9,-29,-58,-82,-78
9,-73,-82,31,46,-78,0,-9,-24,-58,-82,-78
9,-73,-82,31,46,-78,0,-9,-24,-53,-73,-73
9,-73,-82,31,46,-78,0,-4,-19,-48,-58,-68
14,-63,-78,24,46,-70,0,0,-14,-39,-43,-58
19,-53,-73,17,46,-63,-4,4,-9,-34,-34,-53
24,-39,-63,7,43,-51,-4,4,-4,-24,-29,-43
29,-29,-58,0,43,-43,-9,9,0,-19,-29,-39
29,-19,-48,-4,39,-34,-9,9,4,-19,-29,-39
29,-9,-39,-9,34,-24,-9,9,9,-19,-29,-39
29,-9,-39,-9,34,-24,-9,4,9,-14,-29,-39
29,-4,-34,-12,31,-19,-4,4,9,-9,-24,-34
29,-4,-34,-12,31,-19,-4,4,9,-4,-24,-29
29,-4,-34,-12,31,-19,-9,4,9,4,-24,-29
39,14,-24,-26,31,-4,-14,4,19,4,-14,-24
48,53,4,-51,21,29,-19,14,34,24,4,0
58,82,24,-70,17,53,-29,14,43,34,24,14
63,92,29,-78,17,61,-39,14,48,34,29,19
73,97,24,-85,24,61,-48,4,48,34,34,24
73,97,24,-85,24,61,-58,-4,43,34,34,24
73,97,24,-85,24,61,-73,-14,34,24,29,24
73,107,34,-90,19,70,-82,-19,29,24,29,29
73,107,34,-90,19,70,-82,-14,29,34,24,29
73,82,9,-78,31,46,-87,-14,24,29,19,24
82,53,-29,-68,56,12,-87,-14,19,19,29,29
87,34,-53,-61,70,-9,-73,-14,14,14,24,19
78,14,-63,-46,70,-24,-73,-24,-4,-4,4,9
63,4,-58,-34,61,-26,-63,-34,-24,-24,-4,-9
48,-4,-53,-21,51,-29,-53,-34,-24,-24,-19,-14
39,-19,-58,-9,48,-39,-39,-29,-24,-24,-24,-14
24,-34,-58,4,41,-46,-29,-24,-24,-24,-34,-24
19,-48,-68,14,43,-58,-24,-24,-24,-24,-34,-34
19,-58,-78,19,48,-68,-24,-24,-24,-34,-34,-34
14,-68,-82,26,48,-75,-19,-24,-24,-39,-39,-43
9,-78,-87,34,48,-82,-24,-19,-24,-39,-39,-48
9,-87,-97,39,53,-92,-24,-14,-24,-43,-48,-53
9,-92,-102,41,56,-97,-19,-14,-29,-48,-53,-53
0,-92,-92,46,46,-92,-19,-14,-34,-53,-63,-58
0,-102,-102,51,51,-102,-19,-14,-34,-53,-63,-63
0,-107,-107,53,53,-107,-14,-14,-34,-53,-63,-63
0,-107,-107,53,53,-107,-14,-19,-34,-53,-63,-58
0,-107,-107,53,53,-107,-14,-19,-29,-53,-63,-58
0,-107,-107,53,53,-107,-9,-19,-29,-48,-63,-58
-4,-112,-107,58,51,-109,-9,-14,-29,-48,-63,-58
-4,-117,-112,61,53,-114,-4,-9,-24,-48,-63,-58
-4,-126,-122,65,58,-124,4,4,-9,-48,-63,-63
-4,-136,-131,70,63,-134,9,9,-14,-48,-68,-78
-4,-156,-151,80,73,-153,43,58,14,-43,-68,-87
4,-190,-195,92,100,-192,107,165,102,0,-58,-92
39,-209,-248,85,143,-229,156,302,224,92,-4,-97
107,-214,-322,53,214,-268,185,463,370,200,73,-82
195,-209,-405,7,300,-307,180,634,512,317,170,-48
302,-170,-473,-65,387,-322,161,805,692,458,268,14
453,-53,-507,-200,480,-280,58,902,854,629,424,146
663,117,-546,-390,605,-214,-131,907,922,775,639,331
883,366,-517,-624,700,-75,-385,780,902,917,907,639
1176,688,-488,-932,832,100,-756,463,775,1054,1283,1141
1429,1024,-405,-1227,917,309,-1093,165,639,1210,1673,1620
1639,1424,-214,-1532,927,605,-1302,73,692,1561,2196,2205
1659,1912,253,-1786,702,1083,-1288,58,878,1971,2766,2698
1551,2371,819,-1961,366,1595,-1215,-112,897,2205,3157,3162
1420,2498,1078,-1959,170,1788,-1073,-151,927,2322,3362,3376
1351,2181,829,-1766,261,1505,-902,-68,966,2366,3533,3523
1200,1869,668,-1534,265,1268,-741,-29,995,2357,3635,3557
922,1551,629,-1237,146,1090,-658,-29,951,2244,3513,3367
775,1302,527,-1039,124,915,-644,-14,912,2122,3342,3132
683,1107,424,-895,129,766,-610,-39,780,1952,3128,2898
614,893,278,-753,168,585,-546,-4,736,1790,2928,2664
527,624,97,-575,214,361,-439,53,673,1571,2635,2322
434,434,0,-434,217,217,-336,107,600,1332,2298,1991
312,287,-24,-300,168,131,-219,107,517,1122,1991,1639
209,180,-29,-195,119,75,-131,78,405,951,1712,1322
122,122,0,-122,61,61,-87,19,273,756,1420,1029
39,78,39,-58,0,58,-48,-29,141,502,1015,732
-39,14,53,12,-46,34,-9,-48,34,224,527,385
-78,-53,24,65,-51,-14,19,-53,-39,14,141,92
-82,-107,-24,95,-29,-65,43,-39,-53,-63,-29,-53
-87,-136,-48,112,-19,-92,53,-19,-58,-122,-126,-126
-97,-141,-43,119,-26,-92,58,-9,-58,-126,-156,-165
-102,-141,-39,122,-31,-90,58,-19,-68,-126,-165,-180
-107,-141,-34,124,-36,-87,58,-24,-73,-136,-175,-190
-107,-141,-34,124,-36,-87,63,-24,-73,-146,-195,-200
-107,-141,-34,124,-36,-87,63,-24,-73,-151,-204,-209
-112,-141,-29,126,-41,-85,63,-24,-73,-151,-214,-214
-117,-141,-24,129,-46,-82,63,-29,-73,-151,-214,-214
-122,-136,-14,129,-53,-75,63,-29,-78,-151,-219,-219
-126,-136,-9,131,-58,-73,63,-29,-78,-156,-224,-219
-126,-136,-9,131,-58,-73,63,-29,-78,-156,-224,-219
-122,-131,-9,126,-56,-70,63,-29,-78,-156,-229,-229
-117,-131,-14,124,-51,-73,68,-29,-78,-161,-229,-229
-122,-131,-9,126,-56,-70,68,-29,-78,-161,-229,-229
-122,-131,-9,126,-56,-70,68,-29,-78,-161,-239,-229
-126,-126,0,126,-63,-63,68,-29,-78,-161,-239,-234
-131,-122,9,126,-70,-56,68,-34,-78,-161,-239,-239
-131,-122,9,126,-70,-56,68,-34,-78,-165,-244,-244
-136,-122,14,129,-75,-53,68,-34,-78,-165,-244,-244
-136,-117,19,126,-78,-48,78,-29,-78,-161,-248,-244
-141,-117,24,129,-82,-46,82,-24,-82,-161,-253,-248
-141,-117,24,129,-82,-46,87,-24,-82,-165,-258,-253
-146,-112,34,129,-90,-39,87,-24,-82,-165,-263,-263
-156,-112,43,134,-100,-34,87,-29,-87,-170,-268,-268
-156,-112,43,134,-100,-34,92,-29,-87,-180,-278,-278
-165,-117,48,141,-107,-34,97,-29,-92,-190,-287,-287
-170,-117,53,143,-112,-31,102,-34,-97,-195,-302,-297
-180,-122,58,151,-119,-31,102,-34,-97,-204,-312,-312
-185,-122,63,153,-124,-29,102,-39,-102,-209,-331,-322
-195,-122,73,158,-134,-24,102,-43,-117,-229,-351,-336
-200,-122,78,161,-139,-21,112,-48,-122,-239,-366,-356
-209,-117,92,163,-151,-12,117,-48,-136,-253,-385,-375
-224,-126,97,175,-161,-14,122,-53,-146,-273,-414,-395
-234,-126,107,180,-170,-9,131,-63,-151,-287,-429,-409
-248,-131,117,190,-183,-7,136,-58,-161,-302,-453,-434
-268,-146,122,207,-195,-12,146,-68,-180,-326,-488,-463
-283,-156,126,219,-204,-14,156,-78,-200,-351,-517,-488
-297,-165,131,231,-214,-17,165,-92,-214,-375,-556,-522
-317,-170,146,244,-231,-12,175,-97,-239,-409,-600,-551
-336,-185,151,261,-244,-17,185,-112,-258,-444,-649,-590
-366,-200,165,283,-265,-17,200,-122,-287,-478,-692,-634
-385,-209,175,297,-280,-17,209,-141,-322,-517,-746,-678
-414,-229,185,322,-300,-21,224,-151,-346,-561,-805,-727
-424,-239,185,331,-305,-26,234,-170,-375,-610,-863,-775
-453,-258,195,356,-324,-31,253,-190,-405,-653,-922,-824
-473,-283,190,378,-331,-46,263,-204,-439,-697,-985,-878
-497,-302,195,400,-346,-53,278,-219,-478,-746,-1044,-932
-522,-326,195,424,-358,-65,292,-239,-507,-785,-1102,-976
-546,-341,204,444,-375,-68,312,-248,-527,-834,-1166,-1024
-570,-361,209,466,-390,-75,322,-263,-561,-873,-1224,-1078
-585,-380,204,483,-395,-87,331,-273,-585,-907,-1283,-1117
-595,-395,200,495,-397,-97,341,-283,-605,-941,-1327,-1156
-605,-405,200,505,-402,-102,341,-287,-619,-976,-1366,-1195
-614,-419,195,517,-405,-112,351,-287,-629,-995,-1395,-1224
-619,-429,190,524,-405,-119,351,-283,-629,-1010,-1415,-1244
-610,-429,180,519,-395,-124,351,-283,-629,-1015,-1429,-1254
-600,-434,165,517,-383,-134,351,-278,-624,-1015,-1444,-1259
-580,-439,141,509,-361,-148,341,-258,-600,-995,-1424,-1239
-561,-444,117,502,-339,-163,331,-244,-575,-966,-1395,-1220
-527,-434,92,480,-309,-170,326,-219,-546,-932,-1361,-1190
-488,-424,63,456,-275,-180,312,-195,-517,-897,-1317,-1151
-448,-414,34,431,-241,-190,292,-170,-478,-849,-1259,-1102
-405,-390,14,397,-209,-187,268,-156,-444,-785,-1180,-1044
-361,-370,-9,366,-175,-190,244,-126,-395,-727,-1107,-971
-312,-351,-39,331,-136,-195,219,-97,-346,-663,-1019,-897
-263,-322,-58,292,-102,-190,195,-68,-297,-595,-932,-819
-224,-297,-73,261,-75,-185,170,-48,-244,-512,-829,-732
-180,-268,-87,224,-46,-178,141,-24,-200,-444,-727,-649
-136,-244,-107,190,-14,-175,112,4,-161,-380,-644,-566
-102,-214,-112,158,4,-163,97,14,-112,-317,-556,-483
-73,-185,-112,129,19,-148,78,19,-78,-253,-468,-409
-43,-161,-117,102,36,-139,58,34,-58,-204,-375,-336
-19,-136,-117,78,48,-126,39,43,-29,-151,-307,-273
0,-117,-117,58,58,-117,29,43,-4,-117,-244,-214
14,-97,-112,41,63,-104,14,53,14,-82,-185,-165
19,-82,-102,31,61,-92,0,53,24,-43,-136,-122
29,-73,-102,21,65,-87,-9,53,34,-24,-92,-87
39,-58,-97,9,68,-78,-14,53,48,-9,-68,-53
43,-48,-92,2,68,-70,-19,53,53,9,-34,-29
43,-39,-82,-2,63,-61,-24,53,53,24,-14,-9
48,-24,-73,-12,61,-48,-24,53,53,39,4,9
53,-19,-73,-17,63,-46,-29,53,58,43,24,19
53,-19,-73,-17,63,-46,-29,53,58,48,34,29
53,-14,-68,-19,61,-41,-29,48,58,53,43,34
53,-14,-68,-19,61,-41,-29,43,63,53,43,39
48,-14,-63,-17,56,-39,-29,39,63,58,48,43
48,-14,-63,-17,56,-39,-29,39,63,58,48,43
48,-14,-63,-17,56,-39,-29,34,53,58,48,48
39,-9,-48,-14,43,-29,-29,34,53,48,48,48
39,-9,-48,-14,43,-29,-29,29,53,48,43,43
39,-14,-53,-12,46,-34,-29,34,53,48,43,43
29,-14,-43,-7,36,-29,-29,29,48,43,39,43
29,-14,-43,-7,36,-29,-29,29,43,39,29,39
29,-19,-48,-4,39,-34,-24,24,39,29,19,29
34,-19,-53,-7,43,-36,-24,24,34,24,14,24
24,-24,-48,0,36,-36,-19,19,29,14,9,14
24,-24,-48,0,36,-36,-19,14,24,9,9,4
19,-29,-48,4,34,-39,-14,14,19,4,4,0
19,-29,-48,4,34,-39,-9,14,9,4,-4,-9
14,-34,-48,9,31,-41,-9,9,4,-4,-14,-9
9,-39,-48,14,29,-43,-9,9,4,-14,-14,-14
9,-39,-48,14,29,-43,-9,4,0,-14,-24,-19
9,-43,-53,17,31,-48,-4,0,-4,-19,-29,-24
4,-48,-53,21,29,-51,-4,0,-4,-24,-29,-34
4,-53,-58,24,31,-56,-4,-4,-4,-29,-34,-43
4,-53,-58,24,31,-56,-4,-4,-9,-29,-39,-43
0,-53,-53,26,26,-53,-4,-4,-9,-29,-43,-43
-4,-53,-48,29,21,-51,-4,-4,-14,-34,-48,-48
-4,-58,-53,31,24,-56,-4,-4,-14,-34,-48,-53
-4,-58,-53,31,24,-56,-4,0,-14,-39,-53,-53
-9,-58,-48,34,19,-53,-4,0,-14,-39,-58,-53
-4,-63,-58,34,26,-61,-4,0,-14,-39,-58,-53
0,-63,-63,31,31,-63,-4,4,-14,-39,-58,-53
4,-63,-68,29,36,-65,-4,4,-14,-39,-58,-48
4,-63,-68,29,36,-65,-4,0,-19,-39,-58,-48
4,-63,-68,29,36,-65,-9,0,-19,-39,-53,-48
9,-63,-73,26,41,-68,-9,0,-19,-39,-53,-48
9,-63,-73,26,41,-68,-9,0,-14,-39,-53,-48
9,-63,-73,26,41,-68,-9,0,-14,-34,-48,-43
9,-63,-73,26,41,-68,-9,4,-9,-34,-48,-43
9,-63,-73,26,41,-68,-9,4,-9,-29,-48,-39
14,-53,-68,19,41,-61,-4,9,-4,-29,-43,-34
19,-48,-68,14,43,-58,0,9,-4,-24,-34,-24
24,-43,-68,9,46,-56,-4,14,0,-9,-19,-9
29,-39,-68,4,48,-53,-9,19,9,0,-9,0
29,-24,-53,-2,41,-39,-9,19,9,0,-9,0
29,-9,-39,-9,34,-24,-9,19,9,0,-9,0
29,-4,-34,-12,31,-19,-14,19,14,4,-9,0
29,0,-29,-14,29,-14,-14,14,19,4,-4,0
29,4,-24,-17,26,-9,-14,14,24,9,-4,0
29,4,-24,-17,26,-9,-14,14,24,14,0,9
29,4,-24,-17,26,-9,-19,14,29,24,4,14
39,24,-14,-31,26,4,-24,14,39,29,14,19
48,63,14,-56,17,39,-29,24,58,53,39,39
58,87,29,-73,14,58,-39,24,68,63,58,53
63,92,29,-78,17,61,-48,29,68,63,58,58
73,97,24,-85,24,61,-58,24,68,63,63,63
73,97,24,-85,24,61,-68,14,63,63,63,63
73,97,24,-85,24,61,-78,4,53,53,58,63
73,107,34,-90,19,70,-82,0,48,58,58,68
73,107,34,-90,19,70,-82,0,43,63,53,68
78,82,4,-80,36,43,-87,-4,34,48,48,63
87,53,-34,-70,61,9,-87,-4,29,39,48,63
87,34,-53,-61,70,-9,-73,-4,24,34,29,48
78,14,-63,-46,70,-24,-73,-14,9,14,4,39
63,4,-58,-34,61,-26,-63,-24,-9,-4,-4,19
48,-4,-53,-21,51,-29,-58,-24,-14,-4,-14,14
39,-19,-58,-9,48,-39,-48,-19,-14,-9,-9,14
29,-34,-63,2,46,-48,-39,-14,-14,-14,-14,4
29,-48,-78,9,53,-63,-29,-14,-14,-14,-14,-4
29,-58,-87,14,58,-73,-24,-14,-19,-24,-19,-4
24,-73,-97,24,61,-85,-19,-14,-24,-29,-29,-14
19,-87,-107,34,63,-97,-19,-14,-24,-29,-29,-19
14,-97,-112,41,63,-104,-14,-14,-24,-34,-43,-29
9,-102,-112,46,61,-107,-9,-14,-29,-39,-48,-34
0,-97,-97,48,48,-97,-9,-14,-34,-43,-53,-39
0,-97,-97,48,48,-97,-9,-14,-34,-43,-53,-43
0,-97,-97,48,48,-97,-4,-14,-34,-43,-48,-43
0,-97,-97,48,48,-97,-4,-14,-34,-43,-43,-39
0,-97,-97,48,48,-97,-4,-9,-29,-43,-43,-39
0,-97,-97,48,48,-97,0,-9,-29,-39,-43,-39
-4,-102,-97,53,46,-100,-4,-4,-29,-39,-48,-39
-4,-107,-102,56,48,-104,-4,0,-24,-39,-53,-39
-4,-117,-112,61,53,-114,4,4,-19,-48,-58,-43
-4,-126,-122,65,58,-124,19,19,-14,-43,-63,-58
-9,-146,-136,78,63,-141,58,73,19,-34,-63,-73
4,-170,-175,82,90,-173,107,180,107,9,-43,-78
48,-180,-229,65,139,-204,146,331,244,112,19,-78
126,-180,-307,26,217,-244,165,483,390,224,97,-48
219,-180,-400,-19,309,-290,170,658,546,341,200,-9
336,-126,-463,-104,400,-295,136,810,712,478,317,68
488,-9,-497,-239,492,-253,24,897,858,649,453,175
707,161,-546,-434,627,-192,-161,868,922,795,653,375
932,414,-517,-673,724,-51,-434,683,839,897,922,707
1190,732,-458,-961,824,136,-775,400,702,1019,1273,1161
1439,1034,-405,-1237,922,314,-1102,53,507,1093,1581,1600
1620,1356,-263,-1488,941,546,-1293,-107,483,1337,2020,2132
1605,1864,258,-1734,673,1061,-1263,-136,658,1747,2576,2601
1488,2264,775,-1876,356,1520,-1180,-297,663,1956,2913,3020
1356,2371,1015,-1864,170,1693,-1015,-287,746,2103,3132,3259
1273,2127,854,-1700,209,1490,-868,-214,790,2147,3298,3411
1112,1820,707,-1466,202,1263,-736,-180,834,2161,3440,3469
873,1537,663,-1205,104,1100,-668,-165,814,2108,3386,3342
746,1302,556,-1024,95,929,-653,-112,805,2020,3240,3123
653,1107,453,-880,100,780,-619,-97,732,1878,3040,2908
590,888,297,-739,146,592,-541,-48,692,1708,2830,2674
502,644,141,-573,180,392,-424,4,619,1498,2557,2352
405,453,48,-429,178,251,-326,53,531,1254,2210,2000
283,292,9,-287,136,151,-219,68,448,1044,1903,1639
180,190,9,-185,85,100,-131,39,336,873,1625,1322
97,122,24,-109,36,73,-82,-4,219,688,1332,1019
19,78,58,-48,-19,68,-48,-39,102,434,917,717
-43,14,58,14,-51,36,-9,-53,14,190,483,400
-73,-58,14,65,-43,-21,24,-53,-39,9,126,102
-82,-107,-24,95,-29,-65,48,-39,-48,-63,-43,-53
-87,-136,-48,112,-19,-92,58,-19,-48,-107,-117,-107
-97,-151,-53,124,-21,-102,68,-9,-48,-117,-151,-151
-102,-151,-48,126,-26,-100,68,-14,-58,-117,-156,-165
-107,-151,-43,129,-31,-97,68,-14,-63,-126,-165,-180
-112,-151,-39,131,-36,-95,73,-14,-68,-136,-190,-190
-117,-151,-34,134,-41,-92,73,-14,-73,-141,-200,-200
-122,-151,-29,136,-46,-90,73,-14,-73,-146,-209,-204
-122,-151,-29,136,-46,-90,73,-19,-73,-151,-214,-204
-122,-146,-24,134,-48,-85,73,-19,-73,-151,-219,-209
-126,-146,-19,136,-53,-82,73,-19,-68,-156,-224,-209
-126,-146,-19,136,-53,-82,73,-19,-68,-151,-219,-209
-126,-141,-14,134,-56,-78,73,-19,-68,-146,-219,-219
-126,-136,-9,131,-58,-73,78,-19,-68,-151,-219,-219
-131,-131,0,131,-65,-65,78,-19,-68,-151,-219,-219
-131,-131,0,131,-65,-65,78,-19,-68,-151,-229,-219
-136,-126,9,131,-73,-58,78,-19,-68,-151,-229,-224
-141,-122,19,131,-80,-51,78,-24,-68,-151,-229,-229
-141,-122,19,131,-80,-51,78,-24,-68,-156,-234,-234
-146,-122,24,134,-85,-48,78,-24,-68,-156,-234,-234
-146,-117,29,131,-87,-43,82,-24,-68,-156,-244,-239
-151,-117,34,134,-92,-41,82,-24,-73,-161,-248,-248
-151,-117,34,134,-92,-41,87,-24,-73,-165,-248,-253
-156,-117,39,136,-97,-39,87,-19,-73,-161,-253,-263
-170,-122,48,146,-109,-36,87,-19,-78,-161,-258,-268
-175,-122,53,148,-114,-34,92,-19,-73,-170,-273,-278
-185,-126,58,156,-122,-34,97,-19,-78,-180,-287,-287
-190,-122,68,156,-129,-26,102,-24,-87,-185,-302,-297
-200,-122,78,161,-139,-21,107,-24,-87,-195,-312,-312
-204,-122,82,163,-143,-19,112,-24,-92,-200,-326,-322
-214,-122,92,168,-153,-14,112,-24,-107,-219,-341,-336
-214,-122,92,168,-153,-14,122,-29,-107,-229,-356,-356
-219,-122,97,170,-158,-12,126,-29,-117,-244,-375,-375
-234,-136,97,185,-165,-19,131,-34,-126,-263,-405,-395
-244,-136,107,190,-175,-14,141,-48,-136,-283,-424,-414
-258,-141,117,200,-187,-12,146,-43,-151,-297,-453,-444
-278,-151,126,214,-202,-12,156,-48,-170,-317,-488,-473
-292,-156,136,224,-214,-9,165,-58,-190,-341,-517,-497
-307,-165,141,236,-224,-12,175,-73,-204,-366,-556,-531
-326,-170,156,248,-241,-7,190,-78,-224,-400,-595,-561
-346,-190,156,268,-251,-17,204,-92,-239,-434,-639,-600
-370,-209,161,290,-265,-24,219,-97,-268,-463,-683,-644
-385,-219,165,302,-275,-26,229,-112,-302,-497,-736,-688
-414,-239,175,326,-295,-31,244,-122,-326,-541,-800,-736
-429,-248,180,339,-305,-34,253,-141,-356,-590,-858,-785
-468,-273,195,370,-331,-39,273,-161,-385,-639,-912,-834
-492,-297,195,395,-344,-51,283,-175,-419,-683,-971,-888
-517,-317,200,417,-358,-58,297,-185,-453,-727,-1024,-941
-536,-346,190,441,-363,-78,307,-200,-478,-766,-1083,-985
-556,-361,195,458,-375,-82,322,-209,-497,-814,-1146,-1034
-580,-380,200,480,-390,-90,331,-224,-527,-854,-1205,-1088
-595,-400,195,497,-395,-102,341,-234,-546,-888,-1263,-1127
-605,-414,190,509,-397,-112,351,-244,-566,-917,-1302,-1161
-619,-424,195,522,-407,-114,356,-248,-585,-946,-1337,-1195
-629,-434,195,531,-412,-119,370,-248,-600,-961,-1366,-1220
-629,-439,190,534,-409,-124,370,-244,-600,-971,-1390,-1244
-619,-439,180,529,-400,-129,370,-239,-595,-971,-1395,-1259
-610,-444,165,527,-387,-139,370,-234,-585,-971,-1400,-1259
-585,-444,141,514,-363,-151,361,-219,-561,-956,-1385,-1239
-561,-444,117,502,-339,-163,346,-204,-541,-927,-1356,-1224
-527,-434,92,480,-309,-170,331,-180,-517,-893,-1322,-1195
-488,-424,63,456,-275,-180,312,-161,-488,-858,-1278,-1151
-448,-414,34,431,-241,-190,292,-136,-444,-810,-1220,-1102
-405,-390,14,397,-209,-187,268,-117,-414,-751,-1141,-1044
-361,-370,-9,366,-175,-190,244,-87,-370,-697,-1068,-971
-312,-351,-39,331,-136,-195,214,-68,-322,-639,-985,-897
