I,II,III,aVR,aVL,aVF,V1,V2,V3,V4,V5,V6,
-39,9,48,14,-43,29,-58,-117,-92,-78,-73,-63
-39,9,48,14,-43,29,-53,-112,-92,-78,-73,-58
-43,4,48,19,-46,26,-48,-112,-92,-78,-78,-53
-43,4,48,19,-46,26,-48,-112,-97,-82,-78,-58
-48,0,48,24,-48,24,-43,-107,-102,-82,-78,-58
-48,0,48,24,-48,24,-39,-112,-102,-82,-78,-58
-48,0,48,24,-48,24,-39,-117,-102,-82,-78,-58
-48,4,53,21,-51,29,-39,-117,-102,-82,-78,-58
-48,9,58,19,-53,34,-39,-117,-102,-82,-78,-58
-48,9,58,19,-53,34,-39,-117,-102,-82,-78,-58
-43,9,53,17,-48,31,-43,-117,-102,-82,-78,-58
-43,19,63,12,-53,41,-43,-122,-102,-78,-73,-63
-58,68,126,-4,-92,97,-43,-131,-68,-34,-43,-48
-97,146,244,-24,-170,195,-24,-136,0,43,14,-19
-180,224,405,-21,-292,314,29,-122,87,117,53,-14
-244,292,536,-24,-390,414,87,-82,156,180,82,-9
-258,385,644,-63,-451,514,97,-82,195,248,156,39
-224,463,688,-119,-456,575,87,-78,219,322,248,136
-102,575,678,-236,-390,627,4,-112,253,453,439,356
34,605,570,-319,-268,588,-63,-131,307,595,614,546
268,307,39,-287,114,173,24,219,653,824,819,678
546,-82,-629,-231,588,-356,87,580,912,956,936,751
858,-409,-1268,-224,1063,-839,78,810,990,1068,1073,878
1078,-658,-1737,-209,1407,-1198,34,858,893,1058,1112,941
1234,-736,-1971,-248,1603,-1354,-180,566,444,863,1019,941
1224,-902,-2127,-161,1676,-1515,-307,214,-180,356,649,756
932,-1185,-2117,126,1525,-1651,-156,-19,-854,-414,-48,273
473,-1322,-1795,424,1134,-1559,161,-34,-1268,-1039,-663,-244
-48,-1332,-1283,690,617,-1307,478,78,-1405,-1361,-1034,-624
-370,-1302,-932,836,280,-1117,629,214,-1210,-1322,-1112,-858
-483,-1244,-761,863,139,-1002,673,287,-1068,-1239,-1117,-961
-468,-1088,-619,778,75,-854,561,253,-922,-1093,-1019,-893
-390,-922,-531,656,70,-727,390,165,-800,-922,-868,-756
-297,-746,-448,522,75,-597,268,165,-629,-722,-673,-595
-175,-546,-370,361,97,-458,204,165,-424,-512,-473,-419
-126,-405,-278,265,75,-341,185,190,-273,-370,-356,-322
-92,-283,-190,187,48,-236,151,229,-117,-229,-234,-234
-63,-190,-126,126,31,-158,107,204,-29,-112,-126,-146
-24,-112,-87,68,31,-100,73,136,9,-43,-53,-73
-19,-48,-29,34,4,-39,43,107,53,0,-24,-29
-19,-24,-4,21,-7,-14,29,117,107,29,-4,-24
-19,-14,4,17,-12,-4,24,117,112,48,29,-19
-9,-9,0,9,-4,-4,19,102,112,53,48,0
-4,0,4,2,-4,2,9,92,122,58,53,9
-9,4,14,2,-12,9,0,92,146,73,53,14
-4,14,19,-4,-12,17,0,92,161,92,73,19
-4,19,24,-7,-14,21,-4,92,161,102,87,29
0,19,19,-9,-9,19,-4,92,165,107,87,34
0,29,29,-14,-14,29,-14,92,175,112,92,39
4,34,29,-19,-12,31,-14,97,190,126,97,43
9,43,34,-26,-12,39,-14,102,200,136,102,48
9,48,39,-29,-14,43,-9,102,204,141,107,48
9,53,43,-31,-17,48,-4,107,214,151,112,53
14,58,43,-36,-14,51,-9,107,219,151,117,58
14,58,43,-36,-14,51,-9,112,224,161,126,63
9,58,48,-34,-19,53,-9,117,234,170,136,63
9,63,53,-36,-21,58,-9,122,244,175,141,68
14,68,53,-41,-19,61,-9,122,253,185,151,78
14,68,53,-41,-19,61,-4,126,268,190,156,82
14,68,53,-41,-19,61,-4,126,273,200,161,87
14,78,63,-46,-24,70,-4,131,283,209,170,87
14,82,68,-48,-26,75,-4,131,292,219,180,97
19,92,73,-56,-26,82,-4,131,297,234,185,102
19,97,78,-58,-29,87,-9,131,302,234,195,102
19,107,87,-63,-34,97,-9,136,307,244,200,102
19,112,92,-65,-36,102,-9,136,307,244,200,107
19,117,97,-68,-39,107,-9,136,312,239,200,112
14,126,112,-70,-48,119,-9,131,312,244,200,122
9,131,122,-70,-56,126,-9,126,312,248,204,122
0,141,141,-70,-70,141,-9,117,312,248,204,122
0,151,151,-75,-75,151,-9,117,312,248,204,122
-4,156,161,-75,-82,158,-9,102,302,244,200,122
-14,165,180,-75,-97,173,-4,92,292,234,200,117
-24,175,200,-75,-112,187,-4,82,278,224,185,112
-34,185,219,-75,-126,202,-4,73,263,219,175,102
-43,195,239,-75,-141,217,-4,58,248,204,161,92
-53,204,258,-75,-156,231,0,39,229,190,146,82
-63,214,278,-75,-170,246,0,19,209,170,126,73
-78,224,302,-73,-190,263,0,0,185,156,112,58
-87,234,322,-73,-204,278,0,-24,161,131,87,48
-107,244,351,-68,-229,297,0,-48,131,97,58,29
-117,248,366,-65,-241,307,0,-68,102,68,34,14
-136,248,385,-56,-261,317,0,-87,68,39,4,-4
-146,248,395,-51,-270,322,-4,-102,34,9,-24,-24
-161,253,414,-46,-287,334,-4,-122,4,-14,-48,-43
-170,248,419,-39,-295,334,-4,-136,-14,-48,-78,-63
-175,244,419,-34,-297,331,-9,-146,-43,-73,-97,-78
-180,234,414,-26,-297,324,-9,-161,-63,-87,-112,-87
-175,229,405,-26,-290,317,-19,-165,-82,-112,-131,-97
-175,214,390,-19,-283,302,-19,-170,-107,-126,-141,-107
-175,209,385,-17,-280,297,-29,-170,-126,-141,-151,-112
-165,195,361,-14,-263,278,-39,-175,-131,-151,-161,-112
-161,190,351,-14,-256,270,-43,-175,-141,-156,-161,-112
-151,185,336,-17,-244,261,-43,-175,-146,-156,-161,-112
-141,175,317,-17,-229,246,-48,-175,-151,-161,-161,-112
-126,165,292,-19,-209,229,-53,-170,-151,-161,-161,-112
-117,156,273,-19,-195,214,-53,-170,-151,-156,-156,-112
-102,141,244,-19,-173,192,-58,-165,-151,-151,-151,-102
-92,131,224,-19,-158,178,-58,-161,-151,-146,-146,-102
-82,117,200,-17,-141,158,-58,-161,-151,-141,-141,-97
-73,107,180,-17,-126,143,-58,-156,-146,-136,-136,-92
-68,102,170,-17,-119,136,-63,-151,-146,-136,-126,-87
-63,92,156,-14,-109,124,-63,-146,-141,-131,-122,-87
-63,78,141,-7,-102,109,-63,-146,-136,-126,-122,-87
-58,73,131,-7,-95,102,-63,-141,-136,-117,-112,-82
-53,68,122,-7,-87,95,-58,-136,-131,-107,-107,-73
-48,58,107,-4,-78,82,-53,-126,-126,-102,-102,-73
-43,53,97,-4,-70,75,-58,-126,-122,-97,-92,-73
-43,53,97,-4,-70,75,-58,-122,-117,-97,-82,-68
-39,48,87,-4,-63,68,-53,-117,-112,-87,-82,-68
-39,48,87,-4,-63,68,-53,-107,-107,-82,-78,-63
-39,43,82,-2,-61,63,-53,-102,-97,-78,-73,-53
-34,43,78,-4,-56,61,-48,-97,-87,-78,-73,-43
-29,39,68,-4,-48,53,-48,-92,-87,-73,-68,-43
-19,34,53,-7,-36,43,-48,-92,-78,-73,-63,-43
-19,29,48,-4,-34,39,-48,-87,-73,-68,-58,-43
-19,24,43,-2,-31,34,-48,-87,-73,-63,-58,-39
-19,24,43,-2,-31,34,-48,-82,-68,-63,-58,-39
-19,24,43,-2,-31,34,-48,-82,-68,-63,-58,-39
-19,14,34,2,-26,24,-43,-78,-63,-63,-53,-39
-19,9,29,4,-24,19,-43,-78,-63,-58,-53,-39
-14,9,24,2,-19,17,-39,-78,-58,-58,-53,-39
-14,9,24,2,-19,17,-39,-73,-48,-58,-48,-39
-14,9,24,2,-19,17,-39,-68,-43,-58,-43,-39
-14,4,19,4,-17,12,-34,-63,-43,-58,-43,-39
-14,4,19,4,-17,12,-34,-58,-43,-48,-43,-34
-14,4,19,4,-17,12,-34,-53,-39,-43,-43,-29
-14,-4,9,9,-12,2,-34,-53,-39,-39,-43,-29
-14,-4,9,9,-12,2,-29,-53,-39,-34,-43,-29
-14,-9,4,12,-9,-2,-29,-48,-39,-34,-39,-29
-14,-14,0,14,-7,-7,-29,-48,-39,-34,-39,-29
-14,-14,0,14,-7,-7,-29,-48,-39,-34,-39,-29
-14,-14,0,14,-7,-7,-29,-48,-34,-34,-39,-29
-14,-14,0,14,-7,-7,-29,-48,-34,-34,-39,-29
-14,-14,0,14,-7,-7,-29,-48,-34,-34,-39,-29
-14,-19,-4,17,-4,-12,-34,-48,-34,-34,-39,-24
-14,-24,-9,19,-2,-17,-34,-48,-34,-34,-39,-24
-14,-24,-9,19,-2,-17,-34,-48,-34,-34,-39,-24
-14,-24,-9,19,-2,-17,-34,-48,-34,-34,-39,-24
-14,-24,-9,19,-2,-17,-29,-48,-29,-34,-34,-24
-14,-24,-9,19,-2,-17,-24,-48,-24,-34,-34,-24
-14,-19,-4,17,-4,-12,-24,-48,-24,-29,-34,-24
-14,-14,0,14,-7,-7,-24,-48,-24,-24,-34,-24
-9,-4,4,7,-7,0,-24,-43,-14,-19,-24,-14
-4,9,14,-2,-9,12,-29,-39,-4,-14,-9,-9
0,19,19,-9,-9,19,-29,-39,0,-9,-9,-9
0,34,34,-17,-17,34,-24,-34,4,4,-9,-9
9,39,29,-24,-9,34,-14,-24,19,9,0,0
19,48,29,-34,-4,39,-9,-19,39,19,9,9
29,58,29,-43,0,43,-9,-9,39,29,19,19
39,68,29,-53,4,48,-9,0,39,39,29,29
39,73,34,-56,2,53,-39,-24,39,39,34,34
39,78,39,-58,0,58,-82,-53,19,34,29,34
39,82,43,-61,-2,63,-126,-87,4,29,24,39
48,92,43,-70,2,68,-146,-102,-9,19,24,39
58,97,39,-78,9,68,-151,-107,-19,14,24,39
78,112,34,-95,21,73,-161,-107,-19,14,24,43
102,151,48,-126,26,100,-175,-112,-4,43,53,73
107,156,48,-131,29,102,-175,-117,0,48,63,82
107,151,43,-129,31,97,-165,-117,0,43,63,82
107,126,19,-117,43,73,-151,-107,0,39,58,73
87,97,9,-92,39,53,-131,-107,-9,29,43,63
53,68,14,-61,19,41,-112,-107,-29,9,19,39
9,29,19,-19,-4,24,-87,-97,-34,-14,0,9
0,4,4,-2,-2,4,-78,-97,-39,-29,-9,4
-9,-34,-24,21,7,-29,-68,-92,-39,-34,-24,-4
-9,-43,-34,26,12,-39,-58,-92,-43,-39,-29,-9
-9,-43,-34,26,12,-39,-53,-92,-48,-39,-29,-9
-14,-43,-29,29,7,-36,-48,-92,-48,-39,-34,-9
-24,-58,-34,41,4,-46,-43,-92,-53,-43,-34,-14
-29,-73,-43,51,7,-58,-43,-92,-53,-43,-29,-14
-34,-78,-43,56,4,-61,-39,-87,-53,-43,-34,-14
-34,-82,-48,58,7,-65,-34,-87,-53,-48,-34,-24
-39,-87,-48,63,4,-68,-29,-87,-53,-48,-34,-24
-39,-87,-48,63,4,-68,-24,-82,-53,-48,-34,-24
-43,-92,-48,68,2,-70,-19,-82,-53,-48,-39,-24
-43,-92,-48,68,2,-70,-19,-82,-53,-53,-39,-29
-48,-97,-48,73,0,-73,-14,-78,-53,-53,-39,-29
-48,-97,-48,73,0,-73,-9,-78,-53,-53,-39,-29
-48,-97,-48,73,0,-73,-4,-78,-53,-53,-43,-29
-48,-97,-48,73,0,-73,0,-78,-53,-53,-48,-29
-43,-97,-53,70,4,-75,0,-78,-53,-53,-48,-29
-43,-97,-53,70,4,-75,4,-78,-53,-53,-48,-29
-43,-107,-63,75,9,-85,0,-78,-68,-63,-53,-34
-43,-112,-68,78,12,-90,-4,-78,-82,-68,-53,-39
-39,-78,-39,58,0,-58,-14,-87,-63,-34,-34,-24
-58,-9,48,34,-53,19,0,-92,-4,43,19,4
-151,68,219,41,-185,143,58,-73,97,126,63,14
-224,136,361,43,-292,248,126,-34,185,190,92,19
-278,229,507,24,-392,368,175,-19,234,248,136,29
-287,307,595,-9,-441,451,195,-4,248,297,185,73
-204,517,722,-156,-463,619,82,-136,209,390,346,287
-112,649,761,-268,-436,705,-19,-268,170,473,478,463
53,419,366,-236,-156,392,63,39,502,678,668,570
283,92,-190,-187,236,-48,126,366,741,780,766,614
653,-307,-961,-173,807,-634,170,732,927,917,912,727
922,-624,-1546,-148,1234,-1085,180,917,971,971,995,805
1190,-668,-1859,-261,1525,-1263,-97,653,614,932,1058,932
1332,-805,-2137,-263,1734,-1471,-307,317,92,639,893,902
1205,-1151,-2357,-26,1781,-1754,-273,-63,-697,-141,204,458
858,-1356,-2215,248,1537,-1786,-29,-151,-1224,-829,-439,-29
224,-1390,-1615,583,919,-1503,390,9,-1473,-1293,-917,-458
-214,-1381,-1166,797,475,-1273,624,165,-1381,-1390,-1107,-761
-434,-1361,-927,897,246,-1144,736,317,-1195,-1322,-1161,-946
-507,-1249,-741,878,117,-995,688,331,-1029,-1200,-1117,-961
-439,-1088,-649,763,104,-868,517,219,-907,-1029,-966,-839
-356,-912,-556,634,100,-734,370,204,-741,-834,-771,-692
-214,-692,-478,453,131,-585,263,204,-522,-610,-551,-492
-146,-531,-385,339,119,-458,234,229,-351,-448,-414,-366
-112,-395,-283,253,85,-339,209,283,-170,-287,-283,-273
-82,-287,-204,185,61,-246,165,278,-53,-151,-161,-185
-39,-190,-151,114,56,-170,122,185,-9,-82,-73,-97
-29,-102,-73,65,21,-87,87,126,39,-34,-34,-39
-29,-73,-43,51,7,-58,78,146,107,14,-9,-34
-29,-63,-34,46,2,-48,73,156,122,53,29,-24
-19,-58,-39,39,9,-48,68,141,122,63,48,4
-9,-43,-34,26,12,-39,58,131,131,68,53,19
-9,-29,-19,19,4,-24,43,126,156,82,53,24
-4,-14,-9,9,2,-12,39,122,170,102,73,29
-4,-9,-4,7,0,-7,34,122,170,112,87,39
0,-9,-9,4,4,-9,34,122,175,117,87,43
0,0,0,0,0,0,24,122,185,122,92,48
4,0,-4,-2,4,-2,24,122,200,136,102,53
9,4,-4,-7,7,0,24,126,209,146,112,58
9,9,0,-9,4,4,24,131,214,151,117,58
14,14,0,-14,7,7,24,136,224,161,122,63
24,19,-4,-21,14,7,19,136,234,161,126,68
24,19,-4,-21,14,7,19,141,244,170,136,73
24,19,-4,-21,14,7,19,146,253,180,146,78
29,24,-4,-26,17,9,19,151,263,185,151,87
34,29,-4,-31,19,12,14,151,268,195,161,97
34,29,-4,-31,19,12,14,156,278,200,165,102
34,29,-4,-31,19,12,14,156,283,209,170,107
34,39,4,-36,14,21,14,161,292,219,180,107
34,43,9,-39,12,26,14,161,302,224,185,117
39,53,14,-46,12,34,14,161,307,234,185,122
39,58,19,-48,9,39,9,161,312,234,195,122
34,68,34,-51,0,51,9,165,322,244,200,122
29,73,43,-51,-7,58,9,165,326,248,204,126
29,78,48,-53,-9,63,9,170,331,248,214,131
24,87,63,-56,-19,75,9,170,331,253,219,141
24,92,68,-58,-21,80,9,165,331,258,224,141
19,102,82,-61,-31,92,9,156,331,258,224,141
19,117,97,-68,-39,107,9,156,336,263,224,146
14,126,112,-70,-48,119,9,141,331,263,219,151
4,136,131,-70,-63,134,9,131,322,258,224,146
-4,146,151,-70,-78,148,4,122,312,253,214,141
-14,151,165,-68,-90,158,4,112,307,248,204,131
-24,156,180,-65,-102,168,4,97,297,234,190,122
-34,165,200,-65,-117,183,9,82,278,219,175,117
-43,175,219,-65,-131,197,9,68,258,200,156,112
-58,185,244,-63,-151,214,9,48,239,185,141,97
-68,195,263,-63,-165,229,9,29,219,165,122,87
-87,209,297,-61,-192,253,9,9,190,141,102,68
-97,219,317,-61,-207,268,9,-9,165,117,82,53
-117,219,336,-51,-226,278,9,-34,136,87,53,34
-126,219,346,-46,-236,283,9,-53,102,58,24,14
-141,224,366,-41,-253,295,14,-73,68,34,0,-4
-151,224,375,-36,-263,300,14,-87,39,0,-29,-24
-161,224,385,-31,-273,305,14,-97,4,-29,-53,-39
-175,214,390,-19,-283,302,19,-112,-14,-48,-73,-48
-175,209,385,-17,-280,297,9,-122,-34,-73,-92,-63
-175,195,370,-9,-273,283,9,-136,-58,-87,-102,-78
-175,190,366,-7,-270,278,0,-141,-82,-102,-112,-82
-165,175,341,-4,-253,258,-9,-146,-92,-112,-122,-82
-161,170,331,-4,-246,251,-14,-146,-102,-122,-126,-82
-151,161,312,-4,-231,236,-14,-146,-107,-126,-131,-82
-141,146,287,-2,-214,217,-24,-146,-117,-131,-131,-82
-126,136,263,-4,-195,200,-34,-141,-122,-131,-131,-82
-117,126,244,-4,-180,185,-34,-141,-122,-126,-126,-82
-102,112,214,-4,-158,163,-39,-136,-122,-122,-122,-73
-92,107,200,-7,-146,153,-39,-131,-126,-122,-117,-73
-82,97,180,-7,-131,139,-39,-131,-131,-122,-112,-68
-68,87,156,-9,-112,122,-39,-131,-126,-117,-112,-63
-58,82,141,-12,-100,112,-43,-131,-126,-117,-107,-58
-53,73,126,-9,-90,100,-43,-126,-122,-112,-102,-58
-53,58,112,-2,-82,85,-43,-126,-117,-107,-102,-58
-53,53,107,0,-80,80,-43,-126,-117,-97,-97,-58
-53,53,107,0,-80,80,-43,-126,-112,-92,-97,-53
-48,48,97,0,-73,73,-39,-117,-112,-92,-92,-53
-43,43,87,0,-65,65,-39,-117,-112,-87,-87,-53
-43,48,92,-2,-68,70,-39,-112,-107,-87,-82,-48
-39,48,87,-4,-63,68,-34,-112,-102,-78,-82,-48
-39,48,87,-4,-63,68,-39,-107,-97,-78,-78,-48
-39,43,82,-2,-61,63,-43,-102,-92,-78,-73,-48
-34,43,78,-4,-56,61,-39,-97,-92,-78,-73,-43
-34,39,73,-2,-53,56,-39,-92,-97,-73,-68,-43
-29,29,58,0,-43,43,-39,-92,-87,-73,-63,-43
-29,24,53,2,-41,39,-39,-87,-82,-68,-58,-43
-29,24,53,2,-41,39,-39,-87,-82,-63,-58,-39
-29,24,53,2,-41,39,-39,-82,-78,-63,-58,-39
-29,24,53,2,-41,39,-39,-82,-78,-58,-58,-39
-29,19,48,4,-39,34,-34,-78,-73,-53,-53,-39
-29,19,48,4,-39,34,-34,-78,-73,-48,-53,-39
-24,19,43,2,-34,31,-34,-78,-73,-48,-53,-39
-29,19,48,4,-39,34,-39,-73,-68,-53,-48,-39
-34,19,53,7,-43,36,-39,-68,-63,-58,-48,-39
-34,14,48,9,-41,31,-34,-63,-63,-58,-53,-39
-34,14,48,9,-41,31,-34,-63,-63,-53,-53,-39
-29,14,43,7,-36,29,-34,-63,-53,-53,-53,-39
-24,4,29,9,-26,17,-34,-63,-48,-53,-53,-39
-24,4,29,9,-26,17,-29,-63,-48,-53,-53,-39
-24,4,29,9,-26,17,-29,-58,-48,-53,-48,-39
-24,9,34,7,-29,21,-34,-58,-48,-48,-48,-39
-24,14,39,4,-31,26,-39,-58,-48,-43,-48,-39
-24,14,39,4,-31,26,-39,-58,-43,-43,-48,-39
-24,14,39,4,-31,26,-39,-58,-43,-43,-48,-39
-24,14,39,4,-31,26,-39,-58,-43,-43,-48,-39
-24,14,39,4,-31,26,-43,-58,-43,-43,-48,-39
-24,14,39,4,-31,26,-43,-58,-43,-48,-48,-43
-24,14,39,4,-31,26,-43,-58,-43,-53,-48,-43
-24,14,39,4,-31,26,-43,-58,-43,-53,-48,-43
-24,14,39,4,-31,26,-43,-58,-43,-53,-48,-43
-24,9,34,7,-29,21,-43,-58,-48,-53,-53,-43
-24,4,29,9,-26,17,-43,-58,-53,-53,-53,-43
-24,4,29,9,-26,17,-43,-58,-53,-53,-53,-43
-24,4,29,9,-26,17,-43,-58,-53,-53,-53,-39
-24,9,34,7,-29,21,-48,-58,-53,-48,-48,-39
-19,9,29,4,-24,19,-48,-63,-53,-48,-48,-39
-19,9,29,4,-24,19,-43,-63,-48,-48,-43,-39
-24,14,39,4,-31,26,-43,-63,-43,-43,-39,-39
-24,29,53,-2,-39,41,-43,-63,-43,-34,-39,-34
-14,48,63,-17,-39,56,-43,-63,-39,-24,-34,-29
-9,63,73,-26,-41,68,-43,-58,-39,-19,-29,-29
-9,73,82,-31,-46,78,-48,-53,-29,-9,-24,-24
-4,82,87,-39,-46,85,-43,-43,-19,-4,-14,-14
0,97,97,-48,-48,97,-39,-39,-9,0,-9,-9
9,112,102,-61,-46,107,-39,-39,0,14,0,0
19,126,107,-73,-43,117,-39,-39,9,29,9,9
29,136,107,-82,-39,122,-63,-53,9,29,14,14
34,141,107,-87,-36,124,-102,-82,-9,19,9,14
39,151,112,-95,-36,131,-146,-117,-29,14,4,19
48,161,112,-104,-31,136,-165,-141,-48,0,4,19
53,165,112,-109,-29,139,-170,-146,-58,-4,0,19
68,180,112,-124,-21,146,-180,-146,-58,-4,-4,24
97,219,122,-158,-12,170,-204,-146,-43,19,19,48
107,224,117,-165,-4,170,-214,-146,-39,19,24,53
107,224,117,-165,-4,170,-204,-146,-39,14,29,58
107,204,97,-156,4,151,-190,-136,-39,9,29,53
87,175,87,-131,0,131,-170,-136,-48,0,14,43
53,146,92,-100,-19,119,-151,-136,-68,-19,-9,19
4,112,107,-58,-51,109,-122,-126,-73,-39,-29,-9
-9,92,102,-41,-56,97,-107,-126,-78,-48,-39,-14
-19,53,73,-17,-46,63,-97,-126,-78,-53,-48,-29
-19,43,63,-12,-41,53,-87,-131,-82,-58,-48,-39
-19,43,63,-12,-41,53,-87,-131,-87,-63,-48,-39
-24,43,68,-9,-46,56,-87,-131,-87,-68,-53,-39
-29,34,63,-2,-46,48,-82,-126,-97,-73,-58,-43
-29,24,53,2,-41,39,-82,-122,-102,-73,-58,-43
-34,19,53,7,-43,36,-78,-117,-102,-68,-68,-43
-34,14,48,9,-41,31,-73,-117,-102,-68,-73,-53
-39,9,48,14,-43,29,-68,-122,-102,-68,-73,-53
-39,9,48,14,-43,29,-63,-122,-102,-68,-73,-53
-43,0,43,21,-43,21,-58,-122,-102,-68,-78,-53
-43,-4,39,24,-41,17,-58,-122,-102,-73,-78,-58
-53,-9,43,31,-48,17,-53,-117,-102,-73,-78,-58
-58,-9,48,34,-53,19,-48,-117,-102,-73,-78,-58
-58,-9,48,34,-53,19,-48,-117,-102,-73,-78,-58
-58,-9,48,34,-53,19,-48,-117,-102,-73,-78,-58
-53,-9,43,31,-48,17,-48,-117,-102,-73,-78,-58
-53,-9,43,31,-48,17,-43,-117,-102,-73,-78,-58
-48,-14,34,31,-41,9,-43,-117,-107,-82,-78,-58
-43,-14,29,29,-36,7,-43,-117,-112,-87,-73,-58
-43,14,58,14,-51,36,-48,-122,-87,-48,-48,-39
-68,78,146,-4,-107,112,-29,-122,-24,34,9,-4
-165,156,322,4,-244,239,29,-97,82,117,53,0
-244,224,468,9,-356,346,97,-53,175,180,82,0
-292,317,610,-12,-451,463,151,-34,244,248,136,19
-297,395,692,-48,-495,544,175,-14,278,307,195,73
-209,585,795,-187,-502,690,68,-126,248,395,351,278
-112,697,810,-292,-461,753,-29,-239,219,473,478,444
68,448,380,-258,-156,414,53,73,536,668,653,551
312,102,-209,-207,261,-53,117,405,761,761,736,595
683,-278,-961,-202,822,-619,141,727,897,878,873,697
951,-575,-1527,-187,1239,-1051,131,868,893,912,946,766
1205,-624,-1830,-290,1517,-1227,-136,580,517,844,980,873
1332,-766,-2098,-283,1715,-1432,-336,219,-24,522,785,824
1171,-1102,-2274,-34,1722,-1688,-278,-131,-795,-244,107,370
790,-1298,-2088,253,1439,-1693,-9,-190,-1302,-917,-527,-126
165,-1342,-1507,588,836,-1424,405,-9,-1512,-1337,-976,-536
-263,-1342,-1078,802,407,-1210,634,165,-1381,-1390,-1137,-819
-463,-1312,-849,888,192,-1080,736,307,-1195,-1312,-1171,-980
-517,-1190,-673,854,78,-932,678,312,-1029,-1180,-1107,-971
-439,-1029,-590,734,75,-810,492,195,-907,-1010,-966,-844
-346,-854,-507,600,80,-680,331,175,-741,-814,-780,-692
-209,-644,-434,427,112,-539,229,175,-527,-600,-561,-502
-146,-492,-346,319,100,-419,204,200,-361,-448,-424,-385
-112,-356,-244,234,65,-300,180,253,-185,-292,-297,-283
-82,-248,-165,165,41,-207,136,248,-73,-161,-180,-185
-39,-165,-126,102,43,-146,97,170,-29,-82,-87,-102
-29,-92,-63,61,17,-78,68,126,19,-24,-43,-48
-29,-58,-29,43,0,-43,58,136,87,14,-24,-43
-29,-43,-14,36,-7,-29,53,136,102,43,9,-34
-19,-39,-19,29,0,-29,48,122,102,53,34,-9
-9,-24,-14,17,2,-19,39,112,112,58,43,0
-9,-9,0,9,-4,-4,24,112,141,73,43,9
-4,4,9,0,-7,7,19,112,161,92,63,19
-4,9,14,-2,-9,12,14,112,161,102,78,29
0,9,9,-4,-4,9,14,112,165,107,78,34
0,19,19,-9,-9,19,4,112,175,112,82,39
4,19,14,-12,-4,17,4,112,190,126,92,43
9,24,14,-17,-2,19,4,112,200,136,102,48
9,29,19,-19,-4,24,4,112,204,141,107,48
9,34,24,-21,-7,29,4,117,214,151,112,53
14,39,24,-26,-4,31,0,117,224,151,117,58
14,39,24,-26,-4,31,0,122,234,161,126,63
14,39,24,-26,-4,31,0,126,244,170,136,68
14,43,29,-29,-7,36,0,131,253,175,141,78
14,48,34,-31,-9,41,-4,131,258,185,151,87
14,48,34,-31,-9,41,-4,136,268,190,156,92
14,48,34,-31,-9,41,-4,136,273,200,161,97
14,58,43,-36,-14,51,-4,141,283,209,170,97
14,63,48,-39,-17,56,-4,141,292,214,175,107
19,73,53,-46,-17,63,-4,141,297,224,175,112
19,78,58,-48,-19,68,-9,141,302,224,185,112
19,87,68,-53,-24,78,-9,146,307,234,190,112
19,92,73,-56,-26,82,-9,146,307,239,195,117
24,97,73,-61,-24,85,-9,146,317,239,204,122
24,107,82,-65,-29,95,-9,141,322,244,209,131
19,112,92,-65,-36,102,-4,141,322,248,214,131
9,122,112,-65,-51,117,0,136,322,248,214,131
14,131,117,-73,-51,124,0,141,322,253,214,136
14,136,122,-75,-53,129,0,131,312,253,209,141
4,146,141,-75,-68,143,0,122,307,248,214,136
-4,156,161,-75,-82,158,-4,112,302,244,204,131
-14,165,180,-75,-97,173,-4,102,297,239,195,126
-24,175,200,-75,-112,187,-4,87,287,224,180,122
-34,185,219,-75,-126,202,0,68,268,209,170,112
-43,195,239,-75,-141,217,0,48,248,190,156,102
-58,204,263,-73,-161,234,0,34,229,180,141,92
-68,214,283,-73,-175,248,0,19,209,165,122,87
-87,224,312,-68,-200,268,4,0,180,141,102,68
-97,229,326,-65,-212,278,9,-19,156,117,82,53
-117,224,341,-53,-229,283,9,-39,126,87,58,34
-126,219,346,-46,-236,283,9,-53,92,58,34,14
-141,224,366,-41,-253,295,14,-73,63,34,9,0
-151,224,375,-36,-263,300,14,-87,39,0,-19,-14
-156,224,380,-34,-268,302,9,-102,4,-24,-43,-29
-165,214,380,-24,-273,297,9,-122,-14,-39,-63,-39
-170,214,385,-21,-278,300,0,-126,-34,-63,-82,-48
-175,204,380,-14,-278,292,0,-136,-58,-78,-92,-58
-175,200,375,-12,-275,287,-9,-141,-82,-92,-102,-73
-165,185,351,-9,-258,268,-19,-146,-92,-102,-112,-82
-161,180,341,-9,-251,261,-24,-146,-107,-112,-117,-82
-151,170,322,-9,-236,246,-24,-146,-117,-117,-122,-82
-136,156,292,-9,-214,224,-29,-151,-122,-126,-122,-82
-117,146,263,-14,-190,204,-34,-151,-122,-131,-122,-82
-107,136,244,-14,-175,190,-34,-151,-122,-126,-117,-82
-92,122,214,-14,-153,168,-39,-146,-122,-122,-112,-73
-87,117,204,-14,-146,161,-43,-141,-122,-117,-112,-73
-82,107,190,-12,-136,148,-48,-141,-122,-112,-112,-68
-73,97,170,-12,-122,134,-48,-136,-122,-107,-107,-63
-68,92,161,-12,-114,126,-53,-131,-126,-107,-97,-58
-58,82,141,-12,-100,112,-53,-126,-122,-107,-92,-58
-53,68,122,-7,-87,95,-53,-126,-117,-107,-92,-58
-48,63,112,-7,-80,87,-48,-126,-117,-97,-82,-58
-43,63,107,-9,-75,85,-43,-126,-112,-92,-78,-53
-39,58,97,-9,-68,78,-43,-117,-112,-92,-78,-53
-34,53,87,-9,-61,70,-48,-117,-112,-87,-78,-53
-34,53,87,-9,-61,70,-53,-112,-107,-87,-73,-48
-29,48,78,-9,-53,63,-53,-112,-102,-78,-73,-48
-29,48,78,-9,-53,63,-53,-107,-92,-73,-68,-43
-29,43,73,-7,-51,58,-53,-102,-82,-68,-63,-39
-24,43,68,-9,-46,56,-48,-97,-78,-68,-63,-34
-24,39,63,-7,-43,51,-48,-92,-78,-63,-58,-34
-24,34,58,-4,-41,46,-48,-92,-73,-68,-58,-39
-29,34,63,-2,-46,48,-48,-87,-73,-68,-58,-43
-29,34,63,-2,-46,48,-48,-87,-73,-63,-58,-39
-29,34,63,-2,-46,48,-48,-82,-68,-63,-58,-39
-29,34,63,-2,-46,48,-48,-82,-68,-63,-58,-39
-29,29,58,0,-43,43,-43,-78,-63,-63,-53,-39
-29,29,58,0,-43,43,-39,-78,-63,-58,-53,-34
-24,29,53,-2,-39,41,-34,-78,-63,-58,-53,-29
-24,29,53,-2,-39,41,-39,-73,-58,-58,-43,-29
-24,29,53,-2,-39,41,-39,-68,-53,-58,-39,-29
-24,24,48,0,-36,36,-34,-63,-53,-58,-43,-29
-24,24,48,0,-36,36,-34,-63,-53,-53,-43,-29
-24,24,48,0,-36,36,-39,-63,-48,-48,-43,-29
-24,14,39,4,-31,26,-43,-63,-48,-43,-43,-29
-24,14,39,4,-31,26,-39,-63,-48,-43,-43,-29
-24,14,39,4,-31,26,-39,-58,-48,-43,-39,-29
-24,14,39,4,-31,26,-39,-58,-48,-43,-39,-29
-24,14,39,4,-31,26,-39,-58,-48,-43,-39,-29
-24,14,39,4,-31,26,-39,-53,-43,-43,-39,-29
-24,14,39,4,-31,26,-39,-48,-43,-43,-39,-29
-24,14,39,4,-31,26,-34,-48,-43,-43,-39,-29
-24,14,39,4,-31,26,-34,-48,-43,-43,-39,-29
-24,14,39,4,-31,26,-34,-53,-43,-43,-39,-34
-24,14,39,4,-31,26,-34,-58,-43,-43,-39,-34
-24,9,34,7,-29,21,-34,-58,-43,-48,-39,-34
-24,4,29,9,-26,17,-34,-58,-43,-53,-39,-34
-24,4,29,9,-26,17,-34,-58,-43,-53,-43,-34
-24,4,29,9,-26,17,-34,-58,-43,-53,-43,-34
-24,4,29,9,-26,17,-39,-58,-48,-53,-48,-39
-24,4,29,9,-26,17,-43,-58,-53,-53,-53,-39
-24,9,34,7,-29,21,-48,-58,-53,-53,-48,-39
-19,9,29,4,-24,19,-48,-63,-53,-58,-48,-39
-19,4,24,7,-21,14,-43,-63,-53,-58,-48,-39
-24,4,29,9,-26,17,-43,-63,-53,-53,-48,-39
-24,9,34,7,-29,21,-43,-63,-53,-43,-48,-34
-14,19,34,-2,-24,26,-43,-63,-48,-34,-43,-29
-4,43,48,-19,-26,46,-43,-58,-43,-29,-34,-24
0,58,58,-29,-29,58,-43,-53,-34,-24,-24,-14
0,63,63,-31,-31,63,-34,-53,-24,-19,-24,-14
9,82,73,-46,-31,78,-39,-63,-19,-14,-9,-4
4,82,78,-43,-36,80,-29,-48,-9,0,0,4
0,87,87,-43,-43,87,-19,-39,0,19,9,19
14,102,87,-58,-36,95,-29,-39,9,19,9,19
29,117,87,-73,-29,102,-39,-39,19,19,9,19
34,131,97,-82,-31,114,-68,-58,9,24,14,19
34,141,107,-87,-36,124,-107,-87,-9,19,9,19
39,151,112,-95,-36,131,-151,-117,-29,19,4,19
48,161,112,-104,-31,136,-165,-131,-39,9,4,19
53,165,112,-109,-29,139,-170,-136,-48,4,4,19
68,180,112,-124,-21,146,-180,-136,-48,4,4,24
97,224,126,-161,-14,175,-200,-136,-34,29,29,53
107,234,126,-170,-9,180,-204,-136,-29,29,34,63
107,229,122,-168,-7,175,-195,-136,-34,24,39,63
107,204,97,-156,4,151,-180,-126,-39,19,39,53
87,175,87,-131,0,131,-161,-126,-48,9,24,43
53,146,92,-100,-19,119,-141,-126,-68,-9,0,19
4,112,107,-58,-51,109,-117,-117,-73,-29,-19,-9
-9,92,102,-41,-56,97,-107,-117,-78,-39,-29,-14
-19,53,73,-17,-46,63,-97,-117,-78,-43,-43,-24
-19,43,63,-12,-41,53,-87,-122,-82,-48,-48,-29
-19,43,63,-12,-41,53,-87,-122,-87,-53,-48,-34
-24,43,68,-9,-46,56,-87,-122,-87,-58,-53,-39
-34,34,68,0,-51,51,-82,-122,-92,-63,-58,-43
-39,24,63,7,-51,43,-82,-122,-92,-63,-58,-43
-43,19,63,12,-53,41,-78,-117,-92,-63,-63,-43
-43,14,58,14,-51,36,-73,-117,-92,-68,-63,-53
-48,4,53,21,-51,29,-68,-117,-92,-68,-63,-53
-48,0,48,24,-48,24,-63,-112,-92,-68,-63,-53
-53,-4,48,29,-51,21,-58,-112,-92,-68,-68,-53
-53,-4,48,29,-51,21,-58,-112,-92,-73,-68,-58
-58,-9,48,34,-53,19,-53,-107,-92,-73,-68,-58
-58,-9,48,34,-53,19,-48,-107,-92,-73,-68,-58
-58,-9,48,34,-53,19,-43,-107,-92,-73,-68,-58
-58,-9,48,34,-53,19,-39,-107,-92,-73,-68,-58
-58,-14,43,36,-51,14,-39,-107,-92,-73,-68,-58
-63,-19,43,41,-53,12,-34,-107,-92,-73,-68,-58
-58,-19,39,39,-48,9,-39,-107,-92,-78,-73,-58
-53,-14,39,34,-46,12,-43,-107,-92,-78,-73,-58
-53,19,73,17,-63,46,-53,-112,-68,-34,-43,-34
-78,87,165,-4,-122,126,-39,-112,-4,53,19,4
-170,165,336,2,-253,251,29,-82,107,151,78,14
-244,234,478,4,-361,356,107,-34,204,229,122,19
-278,326,605,-24,-441,466,146,-9,273,287,175,48
-268,405,673,-68,-470,539,156,14,307,336,234,112
-170,566,736,-197,-453,651,58,-78,292,434,395,317
-63,649,712,-292,-387,680,-29,-170,278,522,527,483
136,380,244,-258,-53,312,53,151,595,717,702,580
400,14,-385,-207,392,-185,117,492,819,810,785,614
751,-356,-1107,-197,929,-732,146,780,936,922,912,722
1000,-644,-1644,-178,1322,-1144,141,888,912,951,976,795
1229,-683,-1912,-273,1571,-1298,-131,585,512,844,976,873
1332,-814,-2147,-258,1739,-1481,-336,209,-53,483,746,795
1137,-1137,-2274,0,1705,-1705,-253,-136,-810,-273,63,326
722,-1317,-2039,297,1381,-1678,39,-190,-1302,-936,-575,-185
97,-1356,-1454,629,775,-1405,453,-9,-1498,-1337,-1005,-580
-331,-1351,-1019,841,344,-1185,683,165,-1351,-1371,-1146,-849
-502,-1317,-814,910,156,-1066,775,297,-1161,-1288,-1171,-995
-527,-1190,-663,858,68,-927,707,292,-990,-1151,-1098,-971
-448,-1029,-580,739,65,-805,507,175,-888,-995,-956,-834
-356,-854,-497,605,70,-675,331,156,-741,-814,-771,-673
-219,-649,-429,434,104,-539,229,146,-527,-595,-556,-483
-156,-502,-346,329,95,-424,204,161,-361,-439,-424,-366
-122,-370,-248,246,63,-309,180,234,-185,-287,-292,-273
-92,-268,-175,180,41,-222,136,248,-73,-161,-170,-185
-48,-180,-131,114,41,-156,97,175,-24,-82,-78,-102
-39,-102,-63,70,12,-82,68,136,29,-24,-34,-48
-39,-63,-24,51,-7,-43,58,146,97,19,-14,-39
-39,-43,-4,41,-17,-24,53,146,112,53,19,-24
-29,-39,-9,34,-9,-24,48,131,112,63,39,0
-19,-24,-4,21,-7,-14,39,122,122,68,43,9
-19,-14,4,17,-12,-4,29,122,146,82,43,19
-14,-4,9,9,-12,2,29,122,161,102,63,29
-14,0,14,7,-14,7,24,122,161,112,82,39
-9,0,9,4,-9,4,24,122,165,117,87,43
-9,9,19,0,-14,14,14,126,175,122,92,48
-4,9,14,-2,-9,12,14,131,190,136,102,53
4,14,9,-9,-2,12,14,131,200,146,112,58
9,19,9,-14,0,14,14,131,204,151,117,58
9,24,14,-17,-2,19,14,131,214,161,117,63
14,29,14,-21,0,21,9,126,224,161,117,68
14,29,14,-21,0,21,9,131,234,170,126,73
14,29,14,-21,0,21,9,136,244,180,136,78
19,34,14,-26,2,24,9,141,253,185,141,82
24,39,14,-31,4,26,4,141,258,195,151,87
29,43,14,-36,7,29,4,146,268,195,156,92
34,48,14,-41,9,31,4,146,273,200,161,97
34,58,24,-46,4,41,4,156,283,209,170,97
34,63,29,-48,2,46,4,161,292,214,175,107
34,73,39,-53,-2,56,4,161,297,224,175,112
29,78,48,-53,-9,63,0,161,302,224,185,112
29,87,58,-58,-14,73,0,161,307,234,190,112
29,92,63,-61,-17,78,0,156,307,239,195,117
34,92,58,-63,-12,75,0,156,312,244,204,122
34,97,63,-65,-14,80,0,151,312,253,209,131
29,102,73,-65,-21,87,0,151,312,258,214,136
19,112,92,-65,-36,102,0,146,312,258,214,141
19,122,102,-70,-41,112,0,146,317,258,214,141
14,126,112,-70,-48,119,0,131,312,253,209,141
4,136,131,-70,-63,134,4,122,302,248,214,141
-4,146,151,-70,-78,148,4,112,292,244,204,141
-14,156,170,-70,-92,163,0,102,283,239,195,131
-24,165,190,-70,-107,178,-4,87,268,224,180,122
-34,175,209,-70,-122,192,0,68,253,214,170,112
-43,185,229,-70,-136,207,0,48,239,200,156,102
-53,200,253,-73,-153,226,0,29,214,185,146,92
-58,214,273,-78,-165,244,0,9,190,165,131,87
-78,224,302,-73,-190,263,0,-9,165,141,107,68
-87,229,317,-70,-202,273,0,-29,146,117,82,53
-112,234,346,-61,-229,290,0,-48,117,92,58,39
-126,239,366,-56,-246,302,0,-63,82,68,34,24
-141,244,385,-51,-263,314,4,-82,53,43,9,4
-151,244,395,-46,-273,319,4,-97,29,9,-19,-14
-156,244,400,-43,-278,322,0,-107,-4,-14,-39,-29
-165,234,400,-34,-283,317,0,-122,-24,-29,-53,-39
-165,229,395,-31,-280,312,-4,-126,-43,-58,-73,-48
-165,214,380,-24,-273,297,0,-136,-68,-78,-82,-58
-161,214,375,-26,-268,295,-9,-141,-87,-92,-97,-68
-146,204,351,-29,-248,278,-19,-146,-92,-102,-112,-73
-141,200,341,-29,-241,270,-24,-146,-102,-107,-112,-73
-131,190,322,-29,-226,256,-24,-146,-107,-107,-112,-73
-126,170,297,-21,-212,234,-29,-146,-112,-117,-112,-73
-117,156,273,-19,-195,214,-34,-141,-112,-122,-112,-73
-107,146,253,-19,-180,200,-34,-141,-112,-117,-112,-73
-92,131,224,-19,-158,178,-39,-136,-112,-112,-112,-63
-82,122,204,-19,-143,163,-39,-131,-117,-107,-107,-73
-73,107,180,-17,-126,143,-39,-131,-122,-102,-102,-78
-63,97,161,-17,-112,129,-39,-131,-117,-97,-97,-73
-58,92,151,-17,-104,122,-43,-131,-117,-97,-87,-68
-53,82,136,-14,-95,109,-43,-126,-112,-97,-82,-68
-53,68,122,-7,-87,95,-43,-126,-107,-97,-82,-68
-48,58,107,-4,-78,82,-43,-122,-107,-87,-78,-63
-43,53,97,-4,-70,75,-43,-117,-102,-82,-78,-53
-39,48,87,-4,-63,68,-39,-102,-97,-78,-73,-48
-34,43,78,-4,-56,61,-39,-97,-92,-68,-68,-43
-34,43,78,-4,-56,61,-39,-92,-87,-68,-63,-39
-29,39,68,-4,-48,53,-34,-92,-82,-58,-63,-39
-29,39,68,-4,-48,53,-39,-92,-78,-58,-58,-39
-29,34,63,-2,-46,48,-43,-92,-73,-58,-53,-39
-24,34,58,-4,-41,46,-39,-87,-68,-58,-53,-34
-24,29,53,-2,-39,41,-39,-82,-68,-53,-48,-34
-19,24,43,-2,-31,34,-39,-78,-58,-53,-43,-34
-19,24,43,-2,-31,34,-39,-68,-53,-48,-39,-34
-19,24,43,-2,-31,34,-39,-68,-53,-43,-39,-29
-19,24,43,-2,-31,34,-39,-63,-48,-43,-39,-29
-19,24,43,-2,-31,34,-39,-68,-48,-43,-39,-29
-19,19,39,0,-29,29,-34,-68,-43,-43,-34,-29
-19,19,39,0,-29,29,-34,-68,-43,-34,-39,-29
-14,19,34,-2,-24,26,-34,-68,-43,-29,-43,-29
-14,19,34,-2,-24,26,-39,-68,-43,-29,-39,-29
-14,19,34,-2,-24,26,-39,-68,-43,-29,-39,-29
-14,14,29,0,-21,21,-34,-63,-43,-34,-39,-29
-14,14,29,0,-21,21,-34,-63,-43,-34,-34,-29
-19,14,34,2,-26,24,-39,-58,-39,-34,-34,-29
-24,4,29,9,-26,17,-43,-53,-39,-34,-34,-29
-24,4,29,9,-26,17,-39,-53,-39,-34,-34,-34
-24,4,29,9,-26,17,-39,-48,-39,-34,-29,-39
-24,4,29,9,-26,17,-39,-48,-39,-34,-34,-39
-24,4,29,9,-26,17,-39,-48,-39,-34,-39,-39
-24,4,29,9,-26,17,-39,-48,-34,-34,-39,-39
-24,4,29,9,-26,17,-39,-48,-34,-34,-39,-39
-24,0,24,12,-24,12,-34,-53,-34,-34,-39,-39
-24,-4,19,14,-21,7,-34,-58,-34,-34,-39,-39
-24,-4,19,14,-21,7,-34,-58,-34,-34,-39,-43
-24,-4,19,14,-21,7,-34,-58,-34,-34,-39,-43
-24,0,24,12,-24,12,-39,-58,-39,-34,-39,-43
-24,4,29,9,-26,17,-43,-58,-43,-34,-39,-43
-24,4,29,9,-26,17,-43,-58,-43,-34,-39,-43
-24,4,29,9,-26,17,-43,-58,-43,-34,-34,-43
-24,4,29,9,-26,17,-43,-58,-39,-34,-34,-39
-24,4,29,9,-26,17,-43,-58,-34,-34,-34,-29
-19,24,43,-2,-31,34,-48,-53,-29,-24,-29,-29
-9,39,48,-14,-29,43,-48,-53,-24,-19,-29,-29
-9,39,48,-14,-29,43,-43,-53,-19,-19,-19,-29
-14,53,68,-19,-41,61,-43,-53,-14,-9,-9,-24
-4,63,68,-29,-36,65,-43,-48,-4,0,-4,-19
4,78,73,-41,-34,75,-43,-43,4,4,-4,-14
4,87,82,-46,-39,85,-34,-34,9,14,4,0
9,97,87,-53,-39,92,-29,-29,19,29,19,9
19,112,92,-65,-36,102,-53,-39,19,29,19,14
29,126,97,-78,-34,112,-78,-48,19,29,19,19
29,131,102,-80,-36,117,-117,-82,0,24,14,19
34,141,107,-87,-36,124,-141,-107,-14,14,9,19
39,156,117,-97,-39,136,-165,-131,-29,9,4,19
43,165,122,-104,-39,143,-170,-136,-39,4,4,19
58,180,122,-119,-31,151,-180,-136,-39,4,4,24
82,214,131,-148,-24,173,-195,-136,-24,29,29,48
92,214,122,-153,-14,168,-200,-136,-19,29,34,53
97,209,112,-153,-7,161,-195,-136,-19,24,34,53
97,185,87,-141,4,136,-180,-126,-19,19,29,43
78,156,78,-117,0,117,-161,-126,-29,9,14,34
43,126,82,-85,-19,104,-141,-126,-53,-9,-9,9
0,92,92,-46,-46,92,-117,-117,-63,-29,-29,-19
-9,68,78,-29,-43,73,-107,-117,-68,-39,-39,-24
-19,29,48,-4,-34,39,-97,-112,-68,-43,-48,-34
-19,24,43,-2,-31,34,-87,-112,-73,-48,-48,-39
-19,24,43,-2,-31,34,-87,-112,-78,-48,-48,-39
-24,24,48,0,-36,36,-87,-112,-78,-48,-53,-39
-29,14,43,7,-36,29,-82,-112,-82,-53,-58,-43
-34,0,34,17,-34,17,-78,-112,-82,-53,-58,-43
-43,-9,34,26,-39,12,-68,-107,-82,-53,-63,-43
-43,-14,29,29,-36,7,-63,-102,-82,-58,-63,-53
-48,-19,29,34,-39,4,-58,-97,-82,-58,-63,-53
-48,-19,29,34,-39,4,-53,-92,-82,-58,-63,-53
-53,-24,29,39,-41,2,-48,-92,-82,-58,-68,-53
-53,-24,29,39,-41,2,-48,-97,-82,-63,-68,-58
-58,-29,29,43,-43,0,-43,-97,-82,-63,-68,-58
-53,-29,24,41,-39,-2,-39,-97,-82,-68,-68,-58
-48,-29,19,39,-34,-4,-39,-97,-82,-73,-68,-58
-48,-29,19,39,-34,-4,-39,-97,-82,-73,-68,-58
-48,-29,19,39,-34,-4,-39,-97,-82,-73,-68,-58
-53,-29,24,41,-39,-2,-34,-97,-82,-73,-73,-58
-53,-29,24,41,-39,-2,-34,-97,-82,-73,-78,-58
-43,-43,0,43,-21,-21,-39,-97,-97,-87,-82,-63
-48,-19,29,34,-39,4,-43,-102,-78,-63,-63,-48
-73,58,131,7,-102,95,-34,-107,-19,19,0,-14
-141,136,278,2,-209,207,9,-92,58,97,43,-4
-224,200,424,12,-324,312,87,-53,151,161,58,-19
-258,287,546,-14,-402,417,117,-53,214,229,117,9
-263,366,629,-51,-446,497,126,-39,229,278,180,68
-180,478,658,-148,-419,568,63,-63,253,385,341,248
-78,629,707,-275,-392,668,-43,-195,244,527,536,478
122,453,331,-287,-104,392,4,43,527,756,761,649
409,29,-380,-219,395,-175,102,488,883,927,907,732
732,-331,-1063,-200,897,-697,126,800,1058,1078,1073,868
1005,-614,-1620,-195,1312,-1117,122,980,1127,1220,1234,1005
1215,-727,-1942,-244,1578,-1334,-53,819,844,1176,1263,1078
1366,-868,-2235,-248,1800,-1551,-317,375,185,751,1000,1005
1234,-1127,-2361,-53,1798,-1744,-302,48,-522,63,409,634
736,-1327,-2064,295,1400,-1695,58,-14,-1112,-771,-375,24
175,-1400,-1576,612,875,-1488,419,48,-1424,-1302,-917,-448
-258,-1390,-1132,824,436,-1261,649,229,-1239,-1327,-1083,-790
-483,-1351,-868,917,192,-1110,771,346,-1107,-1307,-1176,-1000
-492,-1215,-722,854,114,-968,678,302,-971,-1176,-1098,-961
-439,-1068,-629,753,95,-849,527,204,-858,-1019,-966,-854
-346,-893,-546,619,100,-719,346,190,-707,-824,-771,-692
-224,-692,-468,458,122,-580,224,175,-522,-619,-570,-517
-165,-536,-370,351,102,-453,214,200,-351,-458,-444,-400
-122,-400,-278,261,78,-339,190,239,-175,-297,-312,-292
-82,-292,-209,187,63,-251,141,239,-63,-161,-175,-195
-34,-200,-165,117,65,-183,102,195,0,-73,-73,-112
-29,-117,-87,73,29,-102,78,151,48,-14,-39,-58
-29,-73,-43,51,7,-58,68,146,107,29,-14,-43
-29,-58,-29,43,0,-43,58,146,117,58,24,-34
-19,-48,-29,34,4,-39,48,131,122,73,48,-9
-9,-34,-24,21,7,-29,39,122,131,78,53,0
-9,-24,-14,17,2,-19,29,122,156,92,53,4
-4,-14,-9,9,2,-12,29,122,175,112,73,9
-4,-9,-4,7,0,-7,24,122,180,122,87,19
0,-9,-9,4,4,-9,24,122,185,126,87,29
0,0,0,0,0,0,14,122,195,131,92,39
9,0,-9,-4,9,-4,14,122,209,146,102,43
19,4,-14,-12,17,-4,14,122,219,156,112,48
19,9,-9,-14,14,0,14,117,219,161,117,53
19,14,-4,-17,12,4,14,117,224,170,122,63
24,19,-4,-21,14,7,9,117,234,170,126,68
24,19,-4,-21,14,7,9,122,244,180,136,73
24,19,-4,-21,14,7,9,126,253,190,146,73
29,24,-4,-26,17,9,9,131,263,195,151,78
34,29,-4,-31,19,12,4,131,268,204,161,87
34,29,-4,-31,19,12,4,136,278,209,165,92
34,29,-4,-31,19,12,4,136,283,219,170,97
34,39,4,-36,14,21,4,141,292,229,180,97
34,43,9,-39,12,26,4,141,302,234,190,107
39,53,14,-46,12,34,4,141,307,244,195,112
34,58,24,-46,4,41,0,141,312,244,204,112
29,68,39,-48,-4,53,0,146,317,253,209,112
29,73,43,-51,-7,58,0,146,317,258,209,117
29,78,48,-53,-9,63,0,146,322,258,209,122
29,87,58,-58,-14,73,0,141,322,258,209,131
29,92,63,-61,-17,78,0,136,322,258,214,131
19,102,82,-61,-31,92,0,126,322,258,214,131
19,112,92,-65,-36,102,0,126,322,258,214,131
14,117,102,-65,-43,109,0,112,312,258,209,131
4,126,122,-65,-58,124,4,102,302,253,209,126
-4,136,141,-65,-73,139,4,92,292,244,195,122
-14,146,161,-65,-87,153,4,82,283,239,185,112
-24,156,180,-65,-102,168,0,73,268,219,170,102
-34,165,200,-65,-117,183,0,58,248,200,156,92
-43,175,219,-65,-131,197,0,39,229,180,136,82
-58,185,244,-63,-151,214,0,19,204,165,122,68
-68,195,263,-63,-165,229,4,0,180,146,102,58
-87,204,292,-58,-190,248,9,-19,151,117,78,39
-97,214,312,-58,-204,263,9,-43,126,87,53,24
-117,219,336,-51,-226,278,9,-68,97,58,24,4
-126,219,346,-46,-236,283,9,-82,68,29,-4,-14
-141,224,366,-41,-253,295,14,-102,43,4,-29,-34
-151,224,375,-36,-263,300,14,-117,19,-29,-58,-53
-156,224,380,-34,-268,302,9,-126,-14,-53,-78,-68
-165,214,380,-24,-273,297,9,-141,-39,-68,-97,-82
-165,209,375,-21,-270,292,0,-146,-63,-92,-122,-97
-165,195,361,-14,-263,278,0,-156,-87,-107,-131,-107
-165,190,356,-12,-261,273,-9,-161,-107,-122,-141,-112
-156,175,331,-9,-244,253,-19,-165,-112,-131,-151,-107
-151,170,322,-9,-236,246,-24,-165,-122,-136,-151,-102
-141,161,302,-9,-222,231,-29,-165,-126,-136,-151,-102
-131,146,278,-7,-204,212,-39,-165,-131,-141,-151,-102
-117,136,253,-9,-185,195,-43,-161,-131,-141,-146,-102
-107,126,234,-9,-170,180,-43,-161,-131,-136,-136,-102
-92,117,209,-12,-151,163,-48,-156,-131,-131,-131,-92
-82,112,195,-14,-139,153,-48,-151,-131,-126,-126,-92
-73,97,170,-12,-122,134,-48,-151,-131,-122,-122,-82
-63,87,151,-12,-107,119,-48,-146,-126,-117,-117,-73
-58,82,141,-12,-100,112,-53,-136,-126,-117,-107,-68
-53,73,126,-9,-90,100,-53,-126,-122,-112,-102,-68
-48,53,102,-2,-75,78,-53,-126,-117,-107,-102,-68
-39,43,82,-2,-61,63,-53,-122,-117,-97,-92,-63
-34,43,78,-4,-56,61,-53,-122,-112,-92,-87,-53
-29,39,68,-4,-48,53,-53,-117,-107,-92,-82,-53
-24,34,58,-4,-41,46,-58,-117,-97,-87,-78,-53
-24,34,58,-4,-41,46,-58,-112,-87,-87,-73,-48
-24,29,53,-2,-39,41,-53,-112,-82,-73,-68,-48
-29,29,58,0,-43,43,-53,-107,-78,-63,-58,-43
-29,24,53,2,-41,39,-53,-102,-73,-58,-53,-39
-24,24,48,0,-36,36,-48,-97,-68,-58,-53,-34
-24,19,43,2,-34,31,-48,-87,-73,-53,-48,-34
-19,14,34,2,-26,24,-48,-82,-68,-53,-43,-34
-19,14,34,2,-26,24,-43,-78,-63,-48,-39,-34
-19,14,34,2,-26,24,-39,-78,-63,-43,-39,-29
-19,14,34,2,-26,24,-39,-73,-53,-43,-39,-29
-19,14,34,2,-26,24,-39,-73,-48,-43,-39,-29
-19,9,29,4,-24,19,-34,-68,-43,-43,-34,-29
-19,9,29,4,-24,19,-34,-68,-43,-39,-34,-29
-14,9,24,2,-19,17,-34,-68,-43,-39,-34,-29
-14,9,24,2,-19,17,-39,-63,-39,-39,-29,-29
-14,9,24,2,-19,17,-39,-58,-34,-39,-29,-29
-14,4,19,4,-17,12,-34,-53,-34,-39,-34,-29
-14,9,24,2,-19,17,-34,-53,-39,-34,-39,-29
-14,14,29,0,-21,21,-34,-53,-39,-34,-43,-29
-14,4,19,4,-17,12,-39,-53,-39,-34,-43,-29
-14,4,19,4,-17,12,-39,-53,-39,-34,-43,-29
-14,4,19,4,-17,12,-39,-48,-39,-34,-39,-29
-14,4,19,4,-17,12,-39,-48,-39,-34,-39,-29
-14,0,14,7,-14,7,-39,-48,-39,-34,-39,-29
-14,-4,9,9,-12,2,-39,-48,-34,-34,-39,-29
-14,-4,9,9,-12,2,-39,-48,-34,-34,-39,-29
-14,-4,9,9,-12,2,-39,-48,-34,-34,-39,-29
-14,0,14,7,-14,7,-43,-48,-34,-34,-39,-29
-14,4,19,4,-17,12,-43,-48,-34,-34,-39,-34
-14,4,19,4,-17,12,-39,-48,-34,-34,-39,-34
-14,4,19,4,-17,12,-34,-48,-34,-34,-39,-34
-14,9,24,2,-19,17,-34,-48,-29,-29,-34,-34
-14,14,29,0,-21,21,-34,-48,-24,-24,-34,-34
-4,29,34,-12,-19,31,-34,-48,-19,-19,-24,-24
4,43,39,-24,-17,41,-34,-48,-14,-14,-14,-14
4,53,48,-29,-21,51,-34,-43,-9,-4,-14,-9
9,68,58,-39,-24,63,-39,-43,-4,4,-9,-9
14,78,63,-46,-24,70,-34,-39,4,4,-4,-4
19,87,68,-53,-24,78,-34,-34,14,4,0,0
19,97,78,-58,-29,87,-24,-29,24,19,14,14
19,107,87,-63,-34,97,-19,-29,39,39,29,29
34,122,87,-78,-26,104,-43,-29,39,39,29,29
48,136,87,-92,-19,112,-68,-29,39,39,29,29
48,136,87,-92,-19,112,-107,-68,14,29,24,29
53,146,92,-100,-19,119,-131,-97,-4,19,14,29
58,156,97,-107,-19,126,-156,-126,-24,9,9,29
63,165,102,-114,-19,134,-161,-136,-39,4,4,29
78,180,102,-129,-12,141,-170,-136,-39,4,4,34
102,214,112,-158,-4,163,-185,-136,-24,29,29,58
107,219,112,-163,-2,165,-190,-136,-19,29,34,63
107,219,112,-163,-2,165,-185,-136,-19,24,34,63
112,195,82,-153,14,139,-175,-126,-19,24,34,58
97,165,68,-131,14,117,-161,-126,-29,19,24,53
63,136,73,-100,-4,104,-141,-126,-48,0,0,29
19,102,82,-61,-31,92,-117,-117,-53,-19,-19,0
9,82,73,-46,-31,78,-107,-112,-63,-34,-29,-9
0,48,48,-24,-24,48,-97,-102,-68,-43,-39,-24
0,39,39,-19,-19,39,-87,-102,-73,-53,-43,-29
0,34,34,-17,-17,34,-87,-102,-78,-58,-48,-29
-4,34,39,-14,-21,36,-82,-107,-78,-58,-53,-29
-9,24,34,-7,-21,29,-73,-112,-82,-63,-58,-34
-14,14,29,0,-21,21,-73,-112,-82,-63,-58,-34
-24,9,34,7,-29,21,-68,-107,-82,-63,-63,-34
-24,4,29,9,-26,17,-63,-107,-82,-68,-63,-43
-29,0,29,14,-29,14,-58,-107,-82,-68,-63,-43
-29,0,29,14,-29,14,-53,-102,-82,-68,-63,-48
-34,-4,29,19,-31,12,-48,-102,-82,-68,-68,-53
-34,-4,29,19,-31,12,-53,-102,-82,-73,-68,-58
-39,-9,29,24,-34,9,-53,-97,-82,-73,-68,-58
-39,-9,29,24,-34,9,-48,-97,-82,-73,-68,-58
-39,-9,29,24,-34,9,-48,-97,-82,-73,-68,-58
-39,-9,29,24,-34,9,-48,-102,-82,-73,-73,-58
-39,-9,29,24,-34,9,-48,-107,-82,-73,-78,-58
-43,-14,29,29,-36,7,-43,-107,-82,-78,-78,-58
-43,-19,24,31,-34,2,-43,-107,-82,-82,-78,-58
-34,-29,4,31,-19,-12,-48,-107,-102,-92,-82,-63
-39,0,39,19,-39,19,-53,-112,-87,-63,-63,-48
-68,78,146,-4,-107,112,-39,-122,-24,19,0,-14
-141,156,297,-7,-219,226,9,-112,58,97,43,-4
-229,214,444,7,-336,329,92,-63,151,161,58,-19
-268,297,566,-14,-417,431,126,-53,214,229,117,9
-273,385,658,-56,-466,522,141,-39,229,278,175,63
-190,507,697,-158,-444,602,82,-63,253,385,331,239
-102,673,775,-285,-439,724,-39,-219,219,502,502,453
82,512,429,-297,-173,470,-4,-4,478,707,702,610
370,87,-283,-229,326,-97,102,439,824,854,824,663
692,-273,-966,-209,829,-619,136,751,990,980,966,771
976,-556,-1532,-209,1254,-1044,126,941,1068,1107,1117,907
1195,-668,-1864,-263,1529,-1266,-53,790,795,1049,1137,980
1366,-810,-2176,-278,1771,-1493,-336,326,141,663,907,922
1254,-1068,-2322,-92,1788,-1695,-341,-19,-561,14,351,566
771,-1273,-2044,251,1407,-1659,9,-78,-1151,-795,-405,-4
224,-1351,-1576,563,900,-1464,361,-9,-1464,-1302,-917,-439
-229,-1351,-1122,790,446,-1237,600,180,-1278,-1322,-1068,-766
-473,-1322,-849,897,187,-1085,732,307,-1146,-1298,-1146,-961
-488,-1190,-702,839,107,-946,653,278,-1005,-1176,-1088,-932
-439,-1049,-610,744,85,-829,517,195,-888,-1029,-976,-834
-346,-873,-527,610,90,-700,346,180,-722,-819,-766,-673
-224,-673,-448,448,112,-561,234,165,-522,-600,-551,-497
-161,-517,-356,339,97,-436,224,200,-356,-448,-429,-380
-112,-380,-268,246,78,-324,200,248,-185,-297,-302,-273
-78,-273,-195,175,58,-234,146,239,-73,-156,-161,-180
-34,-180,-146,107,56,-163,102,185,-9,-63,-53,-102
-29,-97,-68,63,19,-82,78,146,43,-14,-24,-43
-29,-53,-24,41,-2,-39,68,146,107,19,-4,-24
-29,-43,-14,36,-7,-29,63,146,112,48,29,-14
-19,-39,-19,29,0,-29,58,131,112,63,48,9
-4,-24,-19,14,7,-21,48,122,122,68,53,19
0,-14,-14,7,7,-14,39,122,146,82,53,24
4,0,-4,-2,4,-2,34,117,161,102,73,29
4,9,4,-7,0,7,24,112,161,112,87,39
9,9,0,-9,4,4,19,112,165,112,87,43
9,19,9,-14,0,14,4,112,175,112,92,48
14,19,4,-17,4,12,4,112,190,126,102,53
19,24,4,-21,7,14,4,112,200,136,112,58
14,29,14,-21,0,21,4,112,209,146,117,58
9,34,24,-21,-7,29,4,117,224,161,122,63
14,39,24,-26,-4,31,0,117,234,161,126,68
14,39,24,-26,-4,31,0,122,244,170,136,73
14,39,24,-26,-4,31,4,126,253,180,146,78
19,43,24,-31,-2,34,9,131,263,185,151,87
24,48,24,-36,0,36,4,131,268,195,161,92
24,48,24,-36,0,36,4,136,278,200,165,92
29,48,19,-39,4,34,0,136,283,209,170,97
34,58,24,-46,4,41,-4,141,292,219,180,97
34,58,24,-46,4,41,-4,141,302,224,185,112
39,63,24,-51,7,43,-4,141,307,234,185,122
39,68,29,-53,4,48,-4,141,312,234,195,122
39,78,39,-58,0,58,0,146,317,244,200,122
39,82,43,-61,-2,63,0,146,317,248,204,122
39,87,48,-63,-4,68,0,146,322,248,209,122
34,97,63,-65,-14,80,0,141,322,253,209,131
29,102,73,-65,-21,87,0,136,322,258,214,131
19,112,92,-65,-36,102,0,131,322,263,214,136
19,122,102,-70,-41,112,0,136,322,268,214,141
14,126,112,-70,-48,119,0,122,312,263,209,141
4,136,131,-70,-63,134,4,112,302,253,209,136
-4,146,151,-70,-78,148,4,102,292,244,200,131
-14,156,170,-70,-92,163,4,92,283,239,195,122
-24,165,190,-70,-107,178,4,78,273,224,180,117
-34,175,209,-70,-122,192,9,58,258,209,165,112
-43,185,229,-70,-136,207,9,39,239,190,146,102
-58,195,253,-68,-156,224,9,19,214,175,131,87
-68,204,273,-68,-170,239,9,0,190,161,112,78
-87,214,302,-63,-195,258,9,-19,161,136,87,58
-97,219,317,-61,-207,268,9,-39,136,107,63,43
-117,219,336,-51,-226,278,9,-58,107,78,34,24
-126,219,346,-46,-236,283,9,-73,73,43,14,4
-141,224,366,-41,-253,295,14,-92,43,14,0,-14
-151,224,375,-36,-263,300,14,-107,19,-19,-39,-34
-156,224,380,-34,-268,302,9,-117,-14,-43,-68,-48
-165,219,385,-26,-275,302,9,-131,-34,-58,-87,-63
-165,219,385,-26,-275,302,0,-136,-53,-82,-112,-78
-165,204,370,-19,-268,287,0,-146,-82,-97,-122,-87
-165,200,366,-17,-265,283,-9,-151,-107,-112,-131,-92
-161,180,341,-9,-251,261,-19,-156,-112,-126,-141,-92
-161,170,331,-4,-246,251,-24,-156,-122,-136,-141,-92
-151,161,312,-4,-231,236,-24,-156,-126,-136,-141,-92
-141,146,287,-2,-214,217,-29,-156,-131,-141,-141,-92
-126,136,263,-4,-195,200,-39,-151,-131,-141,-141,-92
-117,126,244,-4,-180,185,-43,-151,-131,-136,-136,-92
-102,112,214,-4,-158,163,-48,-146,-131,-131,-126,-82
-92,102,195,-4,-143,148,-48,-141,-131,-126,-117,-82
-82,92,175,-4,-129,134,-48,-141,-131,-122,-112,-78
-73,87,161,-7,-117,124,-48,-136,-126,-117,-107,-73
-68,82,151,-7,-109,117,-53,-131,-126,-117,-102,-68
-63,73,136,-4,-100,104,-53,-126,-122,-112,-102,-68
-58,58,117,0,-87,87,-53,-126,-117,-107,-102,-68
-48,53,102,-2,-75,78,-53,-122,-117,-97,-92,-63
-43,53,97,-4,-70,75,-53,-122,-112,-92,-87,-53
-39,48,87,-4,-63,68,-53,-117,-107,-92,-82,-53
-34,43,78,-4,-56,61,-58,-117,-102,-87,-78,-53
-34,43,78,-4,-56,61,-58,-112,-97,-87,-73,-48
-29,39,68,-4,-48,53,-53,-112,-92,-78,-73,-48
-29,39,68,-4,-48,53,-53,-107,-87,-73,-68,-43
-29,34,63,-2,-46,48,-53,-102,-82,-63,-63,-39
-24,34,58,-4,-41,46,-48,-97,-78,-58,-63,-34
-24,29,53,-2,-39,41,-48,-92,-82,-53,-58,-34
-19,24,43,-2,-31,34,-48,-92,-78,-53,-53,-34
-19,24,43,-2,-31,34,-48,-87,-73,-53,-48,-39
-19,24,43,-2,-31,34,-48,-87,-73,-53,-48,-39
-19,24,43,-2,-31,34,-48,-82,-63,-53,-48,-39
-19,24,43,-2,-31,34,-48,-82,-58,-53,-48,-39
-19,19,39,0,-29,29,-43,-78,-53,-53,-43,-39
-19,19,39,0,-29,29,-43,-78,-53,-48,-43,-39
-14,19,34,-2,-24,26,-43,-78,-58,-48,-43,-39
-14,19,34,-2,-24,26,-48,-73,-58,-48,-39,-39
-14,19,34,-2,-24,26,-48,-68,-53,-48,-39,-39
-14,14,29,0,-21,21,-43,-63,-53,-48,-43,-39
-14,19,34,-2,-24,26,-43,-63,-53,-43,-43,-39
-14,24,39,-4,-26,31,-43,-63,-48,-43,-43,-39
-14,14,29,0,-21,21,-48,-63,-48,-43,-43,-39
-14,14,29,0,-21,21,-48,-63,-48,-43,-43,-39
-14,14,29,0,-21,21,-48,-58,-48,-43,-39,-39
-14,14,29,0,-21,21,-48,-58,-48,-43,-39,-39
-14,14,29,0,-21,21,-43,-58,-48,-43,-39,-39
-14,14,29,0,-21,21,-39,-58,-43,-43,-39,-39
-14,14,29,0,-21,21,-39,-58,-43,-43,-39,-34
-14,14,29,0,-21,21,-39,-58,-43,-43,-39,-29
-14,14,29,0,-21,21,-43,-58,-43,-43,-39,-29
-14,14,29,0,-21,21,-43,-58,-43,-43,-39,-34
-14,14,29,0,-21,21,-43,-58,-43,-43,-39,-34
-14,14,29,0,-21,21,-43,-58,-43,-43,-39,-34
-14,14,29,0,-21,21,-43,-63,-43,-43,-39,-39
-14,14,29,0,-21,21,-43,-68,-43,-43,-43,-43
-14,14,29,0,-21,21,-43,-68,-43,-43,-43,-43
-14,14,29,0,-21,21,-43,-68,-43,-43,-43,-43
-9,24,34,-7,-21,29,-43,-63,-39,-39,-39,-34
-4,39,43,-17,-24,41,-48,-58,-34,-34,-29,-29
4,43,39,-24,-17,41,-48,-58,-24,-34,-24,-19
9,48,39,-29,-14,43,-43,-53,-14,-29,-19,-9
4,53,48,-29,-21,51,-39,-53,-14,-24,-19,-9
9,78,68,-43,-29,73,-34,-53,-9,-14,-14,0
14,87,73,-51,-29,80,-24,-39,4,0,0,0
19,97,78,-58,-29,87,-19,-29,19,9,9,0
29,117,87,-73,-29,102,-34,-29,19,19,19,9
39,136,97,-87,-29,117,-48,-29,19,29,29,19
43,141,97,-92,-26,119,-78,-58,14,29,29,24
43,146,102,-95,-29,124,-117,-87,0,24,19,24
48,151,102,-100,-26,126,-156,-122,-19,19,9,29
58,161,102,-109,-21,131,-165,-131,-29,9,4,29
68,165,97,-117,-14,131,-170,-131,-39,4,4,29
87,180,92,-134,-2,136,-180,-126,-39,4,4,34
112,219,107,-165,2,163,-195,-126,-24,29,34,58
117,224,107,-170,4,165,-195,-126,-19,29,43,63
117,219,102,-168,7,161,-190,-131,-24,19,43,63
117,195,78,-156,19,136,-180,-126,-29,9,39,53
97,165,68,-131,14,117,-161,-126,-39,0,19,43
63,136,73,-100,-4,104,-141,-126,-58,-19,-9,19
14,97,82,-56,-34,90,-117,-117,-63,-39,-29,-9
0,73,73,-36,-36,73,-107,-117,-68,-48,-39,-14
-9,39,48,-14,-29,43,-97,-112,-68,-53,-48,-24
-9,34,43,-12,-26,39,-87,-112,-73,-58,-48,-29
-9,34,43,-12,-26,39,-87,-112,-78,-58,-48,-29
-14,34,48,-9,-31,41,-87,-112,-78,-58,-53,-29
-19,24,43,-2,-31,34,-82,-112,-82,-63,-58,-34
-19,14,34,2,-26,24,-82,-112,-82,-63,-58,-34
-29,9,39,9,-34,24,-73,-107,-82,-63,-63,-34
-34,4,39,14,-36,21,-63,-107,-82,-68,-63,-43
-39,0,39,19,-39,19,-58,-107,-82,-68,-63,-43
-39,0,39,19,-39,19,-53,-102,-82,-68,-63,-43
-43,-4,39,24,-41,17,-48,-102,-87,-68,-68,-43
-43,-4,39,24,-41,17,-48,-102,-92,-73,-68,-48
-48,-9,39,29,-43,14,-48,-102,-92,-73,-68,-53
-48,-9,39,29,-43,14,-48,-107,-92,-73,-68,-58
-48,-14,34,31,-41,9,-48,-107,-87,-73,-68,-58
-48,-19,29,34,-39,4,-48,-107,-82,-73,-68,-58
-48,-19,29,34,-39,4,-48,-107,-82,-73,-68,-58
-53,-19,34,36,-43,7,-43,-107,-82,-73,-68,-58
-53,-19,34,36,-43,7,-43,-107,-87,-78,-68,-58
-53,-14,39,34,-46,12,-43,-107,-92,-78,-63,-58
-58,29,87,14,-73,58,-43,-112,-58,-34,-34,-39
-87,107,195,-9,-141,151,-19,-112,14,53,29,-4
-185,185,370,0,-278,278,43,-92,112,136,73,4
-263,253,517,4,-390,385,117,-53,195,200,102,9
-283,346,629,-31,-456,488,136,-53,244,268,161,48
-258,424,683,-82,-470,553,126,-53,258,326,224,122
-161,570,732,-204,-446,651,39,-131,244,419,390,326
-53,639,692,-292,-373,666,-39,-209,229,502,527,492
156,356,200,-256,-21,278,43,122,546,697,692,590
429,-24,-453,-202,441,-239,107,473,771,790,766,624
771,-366,-1137,-202,954,-751,117,727,844,868,883,722
1010,-624,-1634,-192,1322,-1129,92,800,775,863,936,785
1205,-697,-1903,-253,1554,-1300,-151,497,331,712,883,824
1273,-863,-2137,-204,1705,-1500,-326,122,-278,307,600,707
1054,-1171,-2225,58,1639,-1698,-204,-146,-941,-414,-48,253
614,-1337,-1952,361,1283,-1644,126,-122,-1342,-1044,-653,-244
48,-1356,-1405,653,727,-1381,478,53,-1488,-1376,-1039,-605
-322,-1332,-1010,827,344,-1171,644,224,-1293,-1342,-1137,-839
-473,-1283,-810,878,168,-1046,712,331,-1112,-1249,-1137,-961
-478,-1141,-663,810,92,-902,619,302,-951,-1102,-1039,-912
-400,-980,-580,690,90,-780,448,204,-824,-932,-888,-775
-307,-805,-497,556,95,-651,302,204,-653,-736,-692,-614
-185,-600,-414,392,114,-507,209,200,-444,-527,-488,-434
-136,-453,-317,295,90,-385,195,219,-283,-380,-366,-326
-102,-326,-224,214,61,-275,170,258,-126,-239,-244,-234
-73,-229,-156,151,41,-192,126,239,-34,-122,-131,-146
-34,-146,-112,90,39,-129,92,165,9,-53,-53,-73
-29,-73,-43,51,7,-58,68,126,58,-4,-24,-29
-29,-43,-14,36,-7,-29,58,136,117,29,-4,-24
-29,-34,-4,31,-12,-19,53,136,122,53,29,-14
-19,-29,-9,24,-4,-19,48,126,122,63,48,9
-9,-14,-4,12,-2,-9,39,122,131,68,53,19
-9,-4,4,7,-7,0,29,122,156,82,53,24
-4,4,9,0,-7,7,29,122,170,102,73,29
-4,9,14,-2,-9,12,24,122,170,112,87,39
0,9,9,-4,-4,9,24,122,175,117,87,43
0,19,19,-9,-9,19,14,122,185,126,92,48
4,19,14,-12,-4,17,14,122,200,146,102,53
9,24,14,-17,-2,19,14,126,209,156,112,58
9,29,19,-19,-4,24,14,131,214,161,117,58
9,34,24,-21,-7,29,14,136,224,170,122,63
14,39,24,-26,-4,31,9,136,234,170,126,68
14,39,24,-26,-4,31,9,141,244,180,136,73
14,39,24,-26,-4,31,9,146,253,190,146,78
19,43,24,-31,-2,34,9,151,268,195,151,87
24,48,24,-36,0,36,4,151,278,204,161,97
24,48,24,-36,0,36,4,156,287,209,170,102
24,48,24,-36,0,36,4,156,292,219,180,107
19,53,34,-36,-7,43,4,161,302,229,190,107
14,53,39,-34,-12,46,4,161,312,234,195,117
19,63,43,-41,-12,53,4,161,317,244,195,122
19,68,48,-43,-14,58,0,161,322,244,204,122
24,78,53,-51,-14,65,0,165,326,253,209,122
29,82,53,-56,-12,68,0,165,326,258,214,126
29,82,53,-56,-12,68,0,165,331,258,219,131
24,87,63,-56,-19,75,0,161,331,263,219,141
19,92,73,-56,-26,82,0,156,331,268,224,141
9,102,92,-56,-41,97,0,146,331,268,224,141
9,117,107,-63,-48,112,0,146,336,268,224,141
4,126,122,-65,-58,124,0,131,331,263,219,141
-4,136,141,-65,-73,139,4,122,322,253,219,141
-14,146,161,-65,-87,153,4,112,312,244,204,141
-24,156,180,-65,-102,168,0,102,302,239,200,131
-34,165,200,-65,-117,183,-4,87,287,224,190,122
-43,175,219,-65,-131,197,0,68,273,214,175,112
-53,185,239,-65,-146,212,0,48,258,200,156,102
-68,190,258,-61,-163,224,4,29,234,185,141,87
-78,195,273,-58,-175,234,9,9,209,165,122,78
-97,204,302,-53,-200,253,9,-9,180,136,97,58
-107,209,317,-51,-212,263,9,-29,156,107,73,43
-131,209,341,-39,-236,275,9,-48,126,78,43,29
-146,209,356,-31,-251,283,9,-63,92,48,14,14
-161,214,375,-26,-268,295,14,-82,63,24,-9,-4
-170,214,385,-21,-278,300,14,-97,39,-9,-39,-24
-175,214,390,-19,-283,302,9,-107,0,-34,-58,-43
-185,204,390,-9,-287,297,9,-122,-24,-48,-73,-58
-185,200,385,-7,-285,292,0,-126,-43,-73,-92,-68
-185,185,370,0,-278,278,0,-136,-68,-87,-102,-78
-185,185,370,0,-278,278,-9,-141,-87,-102,-112,-82
-175,175,351,0,-263,263,-19,-146,-92,-112,-122,-82
-165,170,336,-2,-251,253,-24,-146,-102,-117,-126,-82
-151,161,312,-4,-231,236,-24,-146,-107,-117,-131,-82
-141,146,287,-2,-214,217,-29,-146,-117,-122,-131,-82
-126,136,263,-4,-195,200,-34,-141,-122,-122,-131,-82
-117,126,244,-4,-180,185,-34,-141,-122,-122,-126,-82
-102,112,214,-4,-158,163,-39,-136,-122,-122,-122,-73
-92,102,195,-4,-143,148,-43,-131,-122,-117,-117,-73
-82,87,170,-2,-126,129,-48,-131,-122,-112,-112,-68
-68,78,146,-4,-107,112,-48,-131,-117,-107,-107,-63
-58,73,131,-7,-95,102,-53,-131,-117,-107,-97,-58
-53,63,117,-4,-85,90,-48,-126,-112,-102,-92,-58
-53,48,102,2,-78,75,-43,-126,-107,-97,-92,-58
-53,43,97,4,-75,70,-43,-122,-107,-87,-82,-53
-53,43,97,4,-75,70,-43,-117,-102,-82,-78,-43
-48,39,87,4,-68,63,-43,-107,-97,-82,-73,-43
-43,34,78,4,-61,56,-48,-107,-92,-78,-68,-43
-39,34,73,2,-56,53,-48,-102,-87,-78,-63,-39
-29,29,58,0,-43,43,-43,-102,-82,-68,-63,-39
-29,29,58,0,-43,43,-48,-97,-78,-63,-58,-39
-29,24,53,2,-41,39,-53,-92,-73,-58,-53,-39
-24,24,48,0,-36,36,-48,-87,-68,-58,-53,-34
-24,19,43,2,-34,31,-48,-82,-68,-53,-48,-34
-19,14,34,2,-26,24,-48,-82,-58,-53,-48,-34
-19,14,34,2,-26,24,-48,-78,-53,-48,-48,-34
-19,14,34,2,-26,24,-48,-78,-58,-48,-48,-29
-19,14,34,2,-26,24,-48,-73,-58,-53,-48,-29
-19,14,34,2,-26,24,-48,-73,-58,-53,-48,-29
-19,9,29,4,-24,19,-43,-68,-53,-53,-43,-29
-19,9,29,4,-24,19,-43,-68,-53,-48,-43,-29
-14,9,24,2,-19,17,-43,-68,-53,-48,-43,-29
-14,9,24,2,-19,17,-43,-63,-48,-48,-39,-29
-14,9,24,2,-19,17,-39,-58,-43,-48,-39,-29
-14,4,19,4,-17,12,-34,-53,-43,-48,-43,-29
-14,4,19,4,-17,12,-34,-53,-43,-43,-43,-29
-14,9,24,2,-19,17,-34,-53,-39,-43,-43,-29
-14,4,19,4,-17,12,-34,-53,-39,-43,-43,-29
-19,4,24,7,-21,14,-34,-53,-39,-43,-43,-29
-24,4,29,9,-26,17,-39,-48,-39,-43,-39,-29
-24,4,29,9,-26,17,-39,-48,-39,-43,-43,-29
-24,4,29,9,-26,17,-39,-48,-39,-43,-48,-29
-24,4,29,9,-26,17,-39,-48,-34,-43,-48,-29
-24,4,29,9,-26,17,-39,-48,-34,-43,-48,-29
-24,4,29,9,-26,17,-39,-48,-34,-43,-43,-29
-24,4,29,9,-26,17,-43,-48,-34,-43,-39,-29
-24,4,29,9,-26,17,-39,-48,-34,-43,-39,-34
-24,4,29,9,-26,17,-34,-48,-34,-43,-39,-34
-24,4,29,9,-26,17,-34,-48,-34,-43,-39,-34
-24,4,29,9,-26,17,-34,-48,-34,-43,-39,-34
-24,0,24,12,-24,12,-34,-48,-34,-43,-43,-34
-24,-4,19,14,-21,7,-34,-48,-34,-43,-43,-34
-24,-4,19,14,-21,7,-34,-53,-34,-43,-43,-39
-24,-4,19,14,-21,7,-34,-58,-34,-43,-43,-39
-24,0,24,12,-24,12,-39,-58,-39,-43,-39,-39
-19,0,19,9,-19,9,-39,-63,-43,-48,-39,-39
-19,-4,14,12,-17,4,-34,-63,-43,-48,-43,-39
-24,-4,19,14,-21,7,-34,-63,-43,-43,-48,-39
-24,-4,19,14,-21,7,-34,-63,-43,-43,-48,-39
-14,0,14,7,-14,7,-34,-63,-39,-43,-43,-39
-9,14,24,-2,-17,19,-34,-63,-39,-39,-39,-39
-9,19,29,-4,-19,24,-34,-63,-34,-34,-34,-34
-9,29,39,-9,-24,34,-29,-58,-24,-29,-39,-34
-4,43,48,-19,-26,46,-34,-58,-19,-29,-34,-29
-9,58,68,-24,-39,63,-34,-58,-19,-24,-29,-19
-4,78,82,-36,-43,80,-34,-53,-14,-9,-14,-4
4,92,87,-48,-41,90,-19,-43,-4,0,-4,0
19,107,87,-63,-34,97,-9,-39,0,9,0,9
24,112,87,-68,-31,100,-19,-39,9,14,9,19
29,117,87,-73,-29,102,-29,-39,19,19,19,29
34,126,92,-80,-29,109,-63,-58,9,19,19,29
34,131,97,-82,-31,114,-102,-87,-9,14,9,29
39,141,102,-90,-31,122,-146,-117,-29,9,4,29
48,151,102,-100,-26,126,-156,-131,-39,0,4,29
58,156,97,-107,-19,126,-161,-136,-48,-4,4,29
78,170,92,-124,-7,131,-170,-136,-48,-4,4,34
102,209,107,-156,-2,158,-185,-136,-34,19,29,58
107,214,107,-161,0,161,-185,-136,-29,19,34,63
107,209,102,-158,2,156,-175,-136,-29,14,34,63
107,185,78,-146,14,131,-161,-126,-29,9,29,53
87,156,68,-122,9,112,-141,-126,-39,0,14,43
53,126,73,-90,-9,100,-122,-126,-58,-19,-9,19
9,92,82,-51,-36,87,-97,-117,-63,-34,-29,-9
0,73,73,-36,-36,73,-87,-117,-68,-39,-39,-14
-14,39,53,-12,-34,46,-78,-112,-68,-43,-48,-24
-19,34,53,-7,-36,43,-68,-112,-73,-48,-48,-29
-19,34,53,-7,-36,43,-73,-112,-78,-48,-48,-29
-24,34,58,-4,-41,46,-78,-112,-78,-48,-53,-29
-29,24,53,2,-41,39,-73,-112,-82,-58,-58,-34
-29,14,43,7,-36,29,-73,-112,-82,-63,-58,-34
-34,9,43,12,-39,26,-63,-107,-82,-63,-63,-34
-34,4,39,14,-36,21,-53,-107,-82,-68,-63,-43
-39,0,39,19,-39,19,-48,-107,-82,-68,-63,-43
-39,0,39,19,-39,19,-43,-102,-82,-68,-63,-43
-43,-4,39,24,-41,17,-39,-107,-82,-68,-68,-43
-43,-4,39,24,-41,17,-39,-112,-82,-73,-68,-48
-48,-9,39,29,-43,14,-34,-107,-82,-73,-68,-48
-48,-9,39,29,-43,14,-29,-107,-82,-73,-68,-48
-48,-9,39,29,-43,14,-29,-107,-82,-73,-68,-48
-48,-9,39,29,-43,14,-29,-107,-82,-73,-68,-48
-48,-9,39,29,-43,14,-29,-107,-87,-73,-68,-53
-53,-9,43,31,-48,17,-24,-107,-92,-73,-68,-58
-53,-14,39,34,-46,12,-24,-107,-92,-73,-68,-58
-53,-14,39,34,-46,12,-24,-107,-92,-68,-63,-58
-68,24,92,21,-80,58,-24,-112,-58,-24,-34,-39
-107,97,204,4,-156,151,0,-112,14,63,29,-4
-190,170,361,9,-275,265,63,-87,117,146,73,4
