I,II,III,aVR,aVL,aVF,V1,V2,V3,V4,V5,V6,
-78,-48,29,63,-53,-9,68,-9,-9,-29,-39,-39
-63,-29,34,46,-48,2,82,0,0,-24,-29,-29
-48,-9,39,29,-43,14,97,9,9,-19,-19,-19
-48,-9,39,29,-43,14,102,9,14,-14,-14,-19
-48,-9,39,29,-43,14,107,9,19,-9,-9,-19
-58,-9,48,34,-53,19,107,14,19,-4,-9,-19
-68,-9,58,39,-63,24,107,19,19,0,-9,-19
-53,-4,48,29,-51,21,107,19,19,0,-9,-14
-39,0,39,19,-39,19,107,19,19,0,-9,-9
-39,0,39,19,-39,19,97,19,24,0,-9,-9
-39,0,39,19,-39,19,87,19,29,0,-9,-9
-34,0,34,17,-34,17,68,19,24,4,-9,-9
-29,-4,24,17,-26,9,48,14,19,0,-9,-4
-24,-14,9,19,-17,-2,34,14,14,0,-14,-4
-24,-19,4,21,-14,-7,14,4,4,-4,-24,-4
-19,-19,0,19,-9,-9,4,-19,-4,-19,-24,-14
-14,-19,-4,17,-4,-12,0,-34,-14,-24,-24,-14
-14,-14,0,14,-7,-7,-4,-39,-24,-29,-29,-14
-14,-14,0,14,-7,-7,-9,-48,-34,-34,-39,-24
-9,-19,-9,14,0,-14,-9,-48,-34,-39,-39,-24
-9,-29,-19,19,4,-24,-9,-53,-43,-43,-43,-24
-29,-39,-9,34,-9,-24,-9,-63,-48,-48,-43,-24
-39,-43,-4,41,-17,-24,-9,-68,-48,-48,-43,-24
-19,-39,-19,29,0,-29,-14,-68,-48,-48,-43,-24
0,-29,-29,14,14,-29,-14,-68,-39,-43,-39,-24
0,-19,-19,9,9,-19,-9,-68,-39,-43,-34,-19
-4,-14,-9,9,2,-12,0,-58,-34,-34,-29,-19
-14,-19,-4,17,-4,-12,14,-43,-24,-29,-24,-14
-19,-24,-4,21,-7,-14,29,-34,-19,-24,-24,-14
-48,-39,9,43,-29,-14,39,-34,-19,-24,-24,-19
-73,-48,24,61,-48,-12,48,-39,-24,-34,-39,-29
-82,-58,24,70,-53,-17,48,-53,-39,-48,-53,-43
-87,-63,24,75,-56,-19,53,-53,-39,-48,-53,-43
-92,-63,29,78,-61,-17,53,-53,-39,-53,-53,-43
-92,-68,24,80,-58,-21,53,-53,-39,-58,-58,-48
-97,-73,24,85,-61,-24,53,-53,-39,-63,-58,-48
-102,-78,24,90,-63,-26,58,-53,-39,-63,-58,-48
-102,-78,24,90,-63,-26,58,-53,-43,-63,-58,-53
-107,-87,19,97,-63,-34,58,-53,-48,-63,-63,-58
-107,-87,19,97,-63,-34,58,-53,-48,-63,-63,-58
-107,-87,19,97,-63,-34,58,-53,-48,-63,-63,-63
-102,-87,14,95,-58,-36,63,-53,-43,-58,-63,-63
-97,-87,9,92,-53,-39,63,-48,-39,-53,-63,-63
-82,-73,9,78,-46,-31,63,-48,-39,-53,-58,-58
-78,-68,9,73,-43,-29,68,-48,-39,-53,-58,-58
-82,-63,19,73,-51,-21,151,0,-9,-34,-43,-53
-82,-48,34,65,-58,-7,292,161,78,39,14,-9
-73,-19,53,46,-63,17,356,326,165,131,82,34
-39,29,68,4,-53,48,258,361,214,190,141,78
68,107,39,-87,14,73,-117,209,200,209,195,156
209,200,-9,-204,109,95,-580,39,156,234,253,229
331,283,-48,-307,190,117,-1049,-156,102,263,322,312
502,361,-141,-431,322,109,-1561,-366,53,302,395,400
668,409,-258,-539,463,75,-2039,-570,-29,307,429,453
868,458,-409,-663,639,24,-2449,-668,-107,326,492,527
1063,492,-570,-778,817,-39,-2840,-883,-292,278,502,585
1224,546,-678,-885,951,-65,-3079,-1102,-448,224,507,624
1351,605,-746,-978,1049,-70,-3211,-1317,-536,204,541,688
1439,649,-790,-1044,1115,-70,-3264,-1581,-580,219,585,746
1478,697,-780,-1088,1129,-41,-3211,-1790,-570,273,663,829
1512,697,-814,-1105,1163,-58,-3176,-2059,-610,278,683,868
1551,717,-834,-1134,1193,-58,-3162,-2293,-624,268,697,897
1571,707,-863,-1139,1217,-78,-3132,-2498,-668,229,692,917
1561,673,-888,-1117,1224,-107,-3098,-2659,-756,161,658,902
1527,624,-902,-1076,1215,-139,-3006,-2757,-839,82,590,854
1483,556,-927,-1019,1205,-185,-2893,-2796,-897,-9,512,795
1439,468,-971,-954,1205,-251,-2776,-2820,-966,-107,429,732
1366,366,-1000,-866,1183,-317,-2620,-2820,-1019,-190,336,649
1288,263,-1024,-775,1156,-380,-2420,-2771,-1088,-287,229,556
1229,190,-1039,-710,1134,-424,-2205,-2625,-1093,-356,136,483
1195,92,-1102,-644,1149,-505,-2025,-2425,-1117,-439,43,400
1146,4,-1141,-575,1144,-568,-1898,-2259,-1176,-541,-58,317
1083,-73,-1156,-505,1119,-614,-1751,-2049,-1200,-600,-136,234
1005,-136,-1141,-434,1073,-639,-1527,-1756,-1166,-629,-219,146
922,-161,-1083,-380,1002,-622,-1288,-1434,-1083,-639,-268,87
883,-161,-1044,-361,963,-602,-1098,-1166,-995,-629,-283,53
819,-161,-980,-329,900,-570,-932,-971,-902,-595,-292,9
692,-190,-883,-251,788,-536,-766,-858,-844,-610,-370,-92
590,-219,-810,-185,700,-514,-610,-741,-800,-624,-434,-170
517,-224,-741,-146,629,-483,-483,-629,-746,-619,-444,-209
429,-204,-634,-112,531,-419,-356,-531,-634,-561,-429,-209
263,-131,-395,-65,329,-263,-185,-361,-434,-409,-326,-170
122,-87,-209,-17,165,-148,4,-151,-248,-258,-219,-131
-9,-97,-87,53,39,-92,175,43,-112,-146,-141,-102
-117,-122,-4,119,-56,-63,287,170,-24,-87,-112,-97
-190,-131,58,161,-124,-36,375,244,43,-48,-92,-112
-219,-146,73,183,-146,-36,424,278,78,-29,-92,-122
-239,-151,87,195,-163,-31,444,307,82,-29,-92,-122
-244,-151,92,197,-168,-29,458,322,82,-29,-87,-122
-248,-141,107,195,-178,-17,478,331,97,-19,-82,-117
-258,-141,117,200,-187,-12,502,356,117,-9,-82,-117
-273,-146,126,209,-200,-9,522,370,122,-4,-87,-126
-283,-146,136,214,-209,-4,531,390,126,-4,-92,-131
-287,-151,136,219,-212,-7,556,395,136,-4,-92,-136
-292,-156,136,224,-214,-9,580,409,146,-4,-92,-136
-297,-156,141,226,-219,-7,600,434,156,0,-92,-136
-307,-156,151,231,-229,-2,619,453,165,0,-92,-141
-307,-156,151,231,-229,-2,639,468,175,0,-92,-141
-302,-151,151,226,-226,0,673,483,180,4,-92,-141
-317,-151,165,234,-241,7,707,502,195,9,-92,-146
-341,-151,190,246,-265,19,732,517,204,14,-92,-151
-351,-165,185,258,-268,9,761,531,214,14,-92,-151
-366,-175,190,270,-278,7,795,561,229,19,-92,-156
-370,-165,204,268,-287,19,834,585,244,29,-92,-161
-375,-156,219,265,-297,31,868,610,253,34,-92,-161
-385,-156,229,270,-307,36,912,634,278,34,-92,-165
-405,-161,244,283,-324,41,946,658,287,39,-92,-170
-434,-165,268,300,-351,51,990,683,292,39,-102,-180
-463,-170,292,317,-378,61,1034,712,307,39,-107,-185
-483,-180,302,331,-392,61,1078,732,322,48,-112,-195
-497,-185,312,341,-405,63,1117,756,336,48,-117,-209
-512,-185,326,348,-419,70,1161,785,356,48,-122,-214
-536,-185,351,361,-444,82,1205,814,361,43,-131,-224
-556,-185,370,370,-463,92,1249,849,380,43,-136,-234
-575,-200,375,387,-475,87,1288,878,390,43,-146,-244
-595,-200,395,397,-495,97,1327,912,414,48,-146,-248
-614,-195,419,405,-517,112,1366,956,424,48,-156,-258
-644,-204,439,424,-541,117,1400,976,429,48,-165,-273
-658,-209,448,434,-553,119,1429,1005,439,48,-170,-283
-683,-219,463,451,-573,122,1459,1044,448,43,-180,-292
-707,-219,488,463,-597,134,1478,1078,463,43,-180,-297
-722,-219,502,470,-612,141,1498,1117,483,53,-175,-307
-736,-214,522,475,-629,153,1503,1156,502,63,-175,-317
-741,-209,531,475,-636,161,1512,1195,517,68,-180,-317
-746,-204,541,475,-644,168,1512,1229,536,78,-180,-317
-756,-195,561,475,-658,183,1493,1263,556,102,-165,-312
-766,-190,575,478,-671,192,1483,1288,570,112,-146,-302
-766,-185,580,475,-673,197,1454,1322,595,131,-126,-292
-756,-170,585,463,-671,207,1424,1337,619,156,-102,-273
-736,-141,595,439,-666,226,1390,1351,644,190,-82,-253
-707,-112,595,409,-651,241,1351,1351,658,214,-58,-234
-683,-92,590,387,-636,248,1302,1356,668,234,-29,-214
-663,-78,585,370,-624,253,1239,1337,678,258,0,-190
-653,-68,585,361,-619,258,1176,1298,678,278,24,-170
-634,-63,570,348,-602,253,1107,1239,668,292,43,-146
-605,-43,561,324,-583,258,1044,1190,658,302,68,-117
-575,-24,551,300,-563,263,961,1132,644,307,82,-97
-536,-9,527,273,-531,258,883,1054,624,317,102,-78
-483,9,492,236,-488,251,795,966,600,322,117,-58
-439,29,468,204,-453,248,722,888,570,317,126,-24
-395,29,424,183,-409,226,644,805,522,307,131,4
-361,34,395,163,-378,214,561,707,478,292,131,9
-331,39,370,146,-351,204,483,610,434,273,122,14
-287,39,326,124,-307,183,419,522,385,244,117,29
-248,39,287,104,-268,163,361,448,341,214,107,34
-209,39,248,85,-229,143,302,370,292,200,102,39
-180,29,209,75,-195,119,239,287,253,175,87,39
-151,19,170,65,-161,95,200,229,214,146,82,39
-126,9,136,58,-131,73,161,180,175,117,73,34
-107,9,117,48,-112,63,122,141,136,97,58,34
-97,0,97,48,-97,48,92,102,112,82,48,29
-73,4,78,34,-75,41,68,73,78,68,39,29
-63,-4,58,34,-61,26,48,43,58,53,29,24
-53,-14,39,34,-46,12,29,24,43,39,24,19
-53,-24,29,39,-41,2,19,4,24,29,14,14
-34,-24,9,29,-21,-7,9,-4,19,19,14,14
-14,-19,-4,17,-4,-12,9,-9,9,14,14,19
-4,-19,-14,12,4,-17,4,-9,4,14,14,19
0,-19,-19,9,9,-19,4,-19,0,9,14,19
-4,-24,-19,14,7,-21,0,-24,-4,0,9,14
-9,-29,-19,19,4,-24,-4,-29,-9,-4,4,4
-19,-43,-24,31,2,-34,-9,-29,-14,-9,0,4
-29,-53,-24,41,-2,-39,-9,-39,-14,-14,-9,4
-29,-53,-24,41,-2,-39,-9,-39,-24,-19,-9,4
-29,-53,-24,41,-2,-39,-9,-39,-29,-19,-14,9
-19,-43,-24,31,2,-34,-9,-43,-29,-24,-14,9
-9,-34,-24,21,7,-29,-9,-48,-34,-24,-19,4
-9,-34,-24,21,7,-29,-4,-53,-34,-24,-19,4
-14,-39,-24,26,4,-31,-4,-58,-39,-29,-24,0
-14,-43,-29,29,7,-36,0,-58,-34,-29,-24,0
-19,-48,-29,34,4,-39,0,-58,-34,-34,-29,0
-24,-48,-24,36,0,-36,0,-58,-34,-34,-29,-4
-24,-53,-29,39,2,-41,4,-58,-34,-39,-29,-4
-29,-53,-24,41,-2,-39,9,-68,-29,-39,-34,-14
-29,-53,-24,41,-2,-39,14,-73,-29,-39,-39,-19
-34,-58,-24,46,-4,-41,14,-68,-29,-34,-39,-19
-34,-58,-24,46,-4,-41,24,-68,-24,-34,-39,-19
-34,-48,-14,41,-9,-31,29,-68,-24,-34,-39,-19
-34,-39,-4,36,-14,-21,29,-58,-24,-34,-34,-19
-39,-43,-4,41,-17,-24,34,-58,-24,-39,-34,-24
-43,-48,-4,46,-19,-26,39,-58,-19,-39,-29,-24
-48,-48,0,48,-24,-24,43,-53,-19,-39,-29,-29
-53,-48,4,51,-29,-21,43,-48,-19,-39,-29,-29
-63,-53,9,58,-36,-21,53,-43,-19,-34,-34,-29
-63,-58,4,61,-34,-26,58,-39,-14,-34,-39,-29
-73,-68,4,70,-39,-31,63,-34,-9,-34,-39,-29
-78,-73,4,75,-41,-34,68,-29,-9,-34,-39,-29
-78,-73,4,75,-41,-34,63,-29,-9,-34,-34,-29
-78,-78,0,78,-39,-39,63,-24,-9,-34,-34,-29
-78,-78,0,78,-39,-39,63,-19,-4,-34,-34,-34
-78,-78,0,78,-39,-39,63,-19,-4,-29,-34,-34
-73,-68,4,70,-39,-31,63,-14,-4,-29,-34,-34
-63,-53,9,58,-36,-21,63,-9,-4,-29,-29,-34
-63,-53,9,58,-36,-21,63,-9,-4,-29,-24,-29
-73,-53,19,63,-46,-17,68,-9,-4,-29,-24,-24
-73,-58,14,65,-43,-21,68,-9,-4,-29,-29,-24
-63,-63,0,63,-31,-31,68,-9,-4,-29,-29,-24
-63,-68,-4,65,-29,-36,68,-14,-9,-29,-29,-29
-68,-68,0,68,-34,-34,63,-19,-14,-29,-34,-34
-68,-68,0,68,-34,-34,63,-19,-14,-29,-34,-34
-73,-68,4,70,-39,-31,63,-19,-14,-29,-39,-34
-58,-48,9,53,-34,-19,63,-19,-9,-29,-34,-29
-43,-34,9,39,-26,-12,58,-14,-9,-34,-29,-29
-53,-43,9,48,-31,-17,58,-14,-9,-34,-29,-29
-58,-48,9,53,-34,-19,63,-9,-9,-29,-29,-24
-58,-58,0,58,-29,-29,73,-14,-14,-19,-24,-24
-68,-68,0,68,-34,-34,78,-14,-9,-9,-19,-19
-68,-48,19,58,-43,-14,87,-9,-4,-9,-14,-14
-63,-29,34,46,-48,2,97,0,9,-4,-9,-9
-53,-24,29,39,-41,2,102,4,9,0,-4,-4
-48,-19,29,34,-39,4,112,14,14,4,-4,-4
-43,-14,29,29,-36,7,102,14,14,4,0,0
-39,-9,29,24,-34,9,97,19,19,9,0,0
-34,-9,24,21,-29,7,92,24,24,9,4,0
-29,-9,19,19,-24,4,87,29,29,9,9,0
-24,-9,14,17,-19,2,78,29,29,9,9,4
-14,-14,0,14,-7,-7,63,24,24,4,9,4
-9,-24,-14,17,2,-19,53,24,24,4,9,9
-4,-29,-24,17,9,-26,34,14,14,4,4,4
-4,-24,-19,14,7,-21,14,-9,0,-9,0,-4
-4,-19,-14,12,4,-17,0,-24,-14,-14,-4,-4
-4,-14,-9,9,2,-12,-4,-34,-24,-19,-14,-4
-4,-14,-9,9,2,-12,-9,-48,-34,-24,-29,-14
-4,-24,-19,14,7,-21,-9,-53,-34,-29,-29,-14
-9,-39,-29,24,9,-34,-9,-63,-43,-34,-34,-14
-19,-43,-24,31,2,-34,-9,-68,-48,-43,-39,-14
-19,-43,-24,31,2,-34,-9,-68,-48,-48,-43,-14
-4,-34,-29,19,12,-31,-14,-63,-48,-48,-43,-14
9,-19,-29,4,19,-24,-14,-58,-39,-43,-39,-14
9,-14,-24,2,17,-19,-9,-58,-39,-43,-34,-9
4,-14,-19,4,12,-17,0,-48,-34,-34,-29,-9
-4,-19,-14,12,4,-17,14,-34,-24,-29,-19,-4
-9,-24,-14,17,2,-19,29,-24,-19,-24,-14,-4
-48,-48,0,48,-24,-24,39,-24,-19,-24,-14,-9
-82,-68,14,75,-48,-26,48,-29,-24,-34,-29,-19
-92,-78,14,85,-53,-31,48,-48,-39,-48,-43,-39
-97,-82,14,90,-56,-34,53,-53,-39,-48,-43,-43
-97,-78,19,87,-58,-29,53,-53,-39,-48,-43,-43
-92,-78,14,85,-53,-31,53,-53,-39,-48,-48,-48
-87,-73,14,80,-51,-29,53,-48,-39,-53,-48,-43
-82,-68,14,75,-48,-26,58,-43,-39,-53,-48,-39
-82,-68,14,75,-48,-26,58,-43,-39,-53,-48,-39
-87,-78,9,82,-48,-34,58,-43,-39,-53,-53,-39
-87,-78,9,82,-48,-34,58,-43,-39,-53,-53,-39
-87,-78,9,82,-48,-34,58,-43,-39,-53,-53,-43
-87,-78,9,82,-48,-34,63,-43,-39,-53,-53,-43
-87,-78,9,82,-48,-34,63,-39,-39,-53,-53,-43
-78,-68,9,73,-43,-29,63,-39,-39,-53,-53,-39
-78,-68,9,73,-43,-29,68,-39,-39,-53,-58,-39
-97,-63,34,80,-65,-14,146,9,-9,-29,-43,-34
-112,-48,63,80,-87,7,283,170,78,48,14,9
-78,-19,58,48,-68,19,341,341,165,136,82,53
-19,29,48,-4,-34,39,239,380,214,190,141,97
87,97,9,-92,39,53,-161,248,185,204,180,161
229,180,-48,-204,139,65,-649,97,126,224,224,219
356,273,-82,-314,219,95,-1117,-78,73,248,292,297
531,361,-170,-446,351,95,-1629,-268,24,283,366,380
707,409,-297,-558,502,56,-2108,-453,-43,297,405,434
917,458,-458,-688,688,0,-2518,-531,-107,326,473,507
1117,497,-619,-807,868,-61,-2893,-707,-263,302,497,580
1283,556,-727,-919,1005,-85,-3118,-888,-390,273,517,634
1405,610,-795,-1007,1100,-92,-3245,-1068,-463,253,556,697
1488,649,-839,-1068,1163,-95,-3294,-1298,-492,268,605,756
1527,697,-829,-1112,1178,-65,-3235,-1537,-492,317,678,829
1561,697,-863,-1129,1212,-82,-3196,-1834,-541,317,692,858
1605,727,-878,-1166,1241,-75,-3186,-2132,-580,287,697,883
1629,727,-902,-1178,1266,-87,-3162,-2400,-649,229,683,897
1625,692,-932,-1159,1278,-119,-3132,-2601,-736,161,644,883
1595,644,-951,-1119,1273,-153,-3045,-2737,-819,82,570,834
1551,575,-976,-1063,1263,-200,-2928,-2781,-878,-4,492,775
1507,488,-1019,-997,1263,-265,-2806,-2810,-946,-97,409,712
1424,375,-1049,-900,1237,-336,-2649,-2806,-1005,-185,312,624
1337,263,-1073,-800,1205,-405,-2449,-2752,-1078,-287,200,527
1263,175,-1088,-719,1176,-456,-2235,-2601,-1093,-356,102,439
1215,63,-1151,-639,1183,-544,-2054,-2396,-1127,-439,4,341
1180,-29,-1210,-575,1195,-619,-1917,-2225,-1176,-546,-102,253
1132,-112,-1244,-509,1188,-678,-1761,-2010,-1190,-610,-185,165
1054,-165,-1220,-444,1137,-692,-1537,-1722,-1166,-639,-263,82
971,-180,-1151,-395,1061,-666,-1298,-1405,-1093,-649,-307,29
917,-190,-1107,-363,1012,-649,-1107,-1146,-1005,-644,-326,0
839,-200,-1039,-319,939,-619,-941,-961,-912,-614,-341,-39
722,-219,-941,-251,832,-580,-771,-854,-849,-619,-400,-131
629,-239,-868,-195,749,-553,-610,-741,-800,-624,-444,-200
522,-248,-771,-136,646,-509,-483,-644,-751,-629,-458,-239
400,-234,-634,-82,517,-434,-356,-561,-644,-580,-448,-239
258,-156,-414,-51,336,-285,-180,-390,-444,-429,-346,-195
141,-107,-248,-17,195,-178,14,-180,-258,-278,-239,-151
0,-97,-97,48,48,-97,185,19,-117,-165,-161,-117
-117,-102,14,109,-65,-43,297,151,-24,-107,-131,-107
-200,-122,78,161,-139,-21,380,219,39,-68,-112,-122
-239,-146,92,192,-165,-26,424,248,68,-48,-112,-131
-258,-151,107,204,-183,-21,444,278,73,-48,-112,-131
-263,-151,112,207,-187,-19,458,292,73,-48,-107,-131
-268,-141,126,204,-197,-7,483,302,87,-34,-102,-126
-278,-141,136,209,-207,-2,512,326,107,-19,-102,-126
-283,-141,141,212,-212,0,536,341,112,-14,-97,-131
-283,-136,146,209,-214,4,551,361,117,-14,-92,-131
-287,-136,151,212,-219,7,575,366,126,-9,-92,-131
-292,-136,156,214,-224,9,600,380,136,-4,-92,-126
-297,-136,161,217,-229,12,619,400,146,0,-92,-126
-307,-136,170,222,-239,17,639,414,156,0,-92,-131
-317,-141,175,229,-246,17,658,429,165,0,-92,-131
-322,-141,180,231,-251,19,692,444,170,4,-92,-131
-326,-141,185,234,-256,21,727,468,185,9,-92,-136
-341,-141,200,241,-270,29,751,488,195,14,-92,-141
-351,-136,214,244,-283,39,780,502,209,14,-92,-141
-366,-126,239,246,-302,56,814,531,229,19,-92,-146
-380,-126,253,253,-317,63,854,556,244,29,-92,-151
-395,-126,268,261,-331,70,888,580,253,34,-92,-151
-409,-131,278,270,-344,73,932,605,278,34,-92,-156
-434,-141,292,287,-363,75,966,629,287,39,-92,-161
-453,-146,307,300,-380,80,1010,644,292,43,-97,-170
-473,-151,322,312,-397,85,1054,663,307,48,-97,-175
-492,-156,336,324,-414,90,1098,692,322,58,-102,-180
-507,-156,351,331,-429,97,1137,727,336,58,-107,-190
-522,-156,366,339,-444,104,1180,756,356,63,-107,-195
-546,-156,390,351,-468,117,1224,785,361,63,-112,-204
-570,-151,419,361,-495,134,1268,824,380,63,-117,-214
-595,-161,434,378,-514,136,1307,858,390,63,-126,-224
-614,-165,448,390,-531,141,1346,893,414,63,-126,-229
-634,-165,468,400,-551,151,1385,936,424,58,-136,-239
-668,-175,492,422,-580,158,1420,956,434,58,-146,-253
-688,-180,507,434,-597,163,1449,985,448,58,-151,-263
-712,-190,522,451,-617,165,1478,1019,453,58,-161,-273
-736,-190,546,463,-641,178,1498,1049,463,63,-161,-278
-746,-190,556,468,-651,183,1517,1088,483,68,-156,-283
-756,-185,570,470,-663,192,1522,1127,502,73,-156,-287
-761,-180,580,470,-671,200,1537,1166,517,82,-156,-287
-766,-175,590,470,-678,207,1542,1200,536,97,-151,-287
-771,-161,610,466,-690,224,1527,1239,561,126,-136,-283
-775,-151,624,463,-700,236,1522,1268,580,141,-117,-273
-766,-146,619,456,-692,236,1493,1312,605,161,-97,-263
-746,-131,614,439,-680,241,1464,1337,629,185,-73,-244
-751,-112,639,431,-695,263,1424,1351,649,214,-58,-224
-746,-92,653,419,-700,280,1381,1351,658,234,-39,-204
-722,-78,644,400,-683,283,1332,1351,668,253,-9,-190
-702,-68,634,385,-668,283,1268,1327,678,278,19,-170
-683,-43,639,363,-661,297,1205,1302,683,297,43,-151
-653,-24,629,339,-641,302,1137,1259,678,312,63,-126
-610,0,610,305,-610,305,1068,1205,668,326,87,-92
-566,24,590,270,-578,307,980,1141,653,336,102,-68
-527,34,561,246,-544,297,902,1063,629,341,117,-48
-473,48,522,212,-497,285,814,976,600,341,126,-29
-444,63,507,190,-475,285,736,888,570,331,136,-9
-414,58,473,178,-444,265,653,795,522,317,141,4
-380,58,439,161,-409,248,570,702,478,297,141,9
-351,58,409,146,-380,234,492,610,434,273,131,14
-302,63,366,119,-334,214,424,517,385,248,126,24
-258,68,326,95,-292,197,361,439,341,224,117,24
-219,68,287,75,-253,178,302,370,287,204,112,29
-190,58,248,65,-219,153,239,297,244,175,97,29
-156,48,204,53,-180,126,200,239,204,146,87,34
-126,39,165,43,-146,102,161,190,165,117,73,34
-102,39,141,31,-122,90,122,146,126,97,58,34
-87,29,117,29,-102,73,92,102,102,82,48,29
-63,29,92,17,-78,61,68,73,68,63,39,24
-53,14,68,19,-61,41,48,43,48,43,29,14
-43,9,53,17,-48,31,34,24,34,29,24,9
-43,4,48,19,-46,26,29,4,14,19,14,4
-34,4,39,14,-36,21,14,-9,9,9,9,4
-24,9,34,7,-29,21,9,-19,0,4,4,9
-14,0,14,7,-14,7,0,-19,-4,4,4,9
-9,-9,0,9,-4,-4,-4,-29,-9,0,4,9
-14,-9,4,12,-9,-2,-4,-34,-14,-4,0,4
-19,-9,9,14,-14,0,-4,-39,-19,-4,-4,-4
-19,-19,0,19,-9,-9,-9,-39,-24,-9,-4,-4
-19,-24,-4,21,-7,-14,-9,-48,-24,-14,-9,-4
-19,-24,-4,21,-7,-14,-9,-48,-29,-19,-9,-9
-19,-24,-4,21,-7,-14,-9,-48,-29,-19,-14,-9
-14,-19,-4,17,-4,-12,-9,-53,-29,-24,-14,-9
-9,-14,-4,12,-2,-9,-9,-58,-34,-24,-19,-14
-9,-14,-4,12,-2,-9,-4,-63,-34,-24,-19,-14
-14,-19,-4,17,-4,-12,-4,-68,-39,-29,-24,-19
-14,-24,-9,19,-2,-17,0,-73,-39,-29,-24,-19
-19,-29,-9,24,-4,-19,0,-78,-43,-34,-29,-19
-24,-29,-4,26,-9,-17,0,-78,-48,-34,-34,-24
-24,-34,-9,29,-7,-21,4,-78,-53,-39,-39,-24
-29,-29,0,29,-14,-14,9,-82,-48,-39,-39,-29
-29,-24,4,26,-17,-9,14,-82,-48,-39,-39,-29
-34,-29,4,31,-19,-12,14,-78,-48,-39,-39,-29
-34,-29,4,31,-19,-12,24,-78,-43,-43,-39,-29
-39,-29,9,34,-24,-9,29,-78,-43,-43,-43,-29
-43,-29,14,36,-29,-7,29,-68,-43,-43,-43,-29
-48,-34,14,41,-31,-9,34,-68,-43,-48,-48,-34
-53,-39,14,46,-34,-12,39,-68,-39,-48,-48,-34
-53,-39,14,46,-34,-12,43,-63,-39,-43,-48,-39
-53,-39,14,46,-34,-12,43,-58,-39,-39,-48,-39
-68,-43,24,56,-46,-9,48,-53,-39,-34,-48,-39
-73,-48,24,61,-48,-12,48,-48,-34,-34,-48,-39
-78,-53,24,65,-51,-14,53,-43,-29,-34,-48,-39
-78,-53,24,65,-51,-14,58,-39,-29,-34,-48,-39
-78,-48,29,63,-53,-9,58,-39,-29,-34,-43,-34
-78,-48,29,63,-53,-9,63,-34,-29,-34,-43,-29
-78,-48,29,63,-53,-9,63,-29,-24,-34,-43,-34
-78,-48,29,63,-53,-9,63,-29,-24,-29,-43,-34
-73,-43,29,58,-51,-7,63,-24,-19,-29,-48,-34
-63,-34,29,48,-46,-2,63,-19,-14,-29,-48,-34
-63,-34,29,48,-46,-2,63,-19,-14,-29,-43,-34
-73,-34,39,53,-56,2,68,-19,-14,-29,-43,-34
-82,-48,34,65,-58,-7,68,-19,-19,-29,-48,-43
-82,-63,19,73,-51,-21,68,-19,-24,-29,-48,-53
-78,-63,14,70,-46,-24,68,-19,-24,-29,-39,-43
-78,-58,19,68,-48,-19,63,-19,-24,-29,-34,-34
-78,-58,19,68,-48,-19,63,-19,-24,-29,-34,-34
-82,-58,24,70,-53,-17,63,-19,-24,-29,-39,-34
-87,-58,29,73,-58,-14,63,-24,-24,-29,-39,-39
-92,-63,29,78,-61,-17,58,-24,-29,-34,-39,-48
-92,-63,29,78,-61,-17,58,-24,-29,-34,-39,-48
-87,-58,29,73,-58,-14,63,-19,-29,-29,-39,-43
-68,-39,29,53,-48,-4,73,-19,-24,-19,-29,-39
-58,-19,39,39,-48,9,78,-14,-9,-9,-19,-29
-58,0,58,29,-58,29,87,-9,-4,-9,-14,-24
-53,19,73,17,-63,46,97,0,9,-4,-9,-19
-48,14,63,17,-56,39,97,4,9,0,-4,-14
-48,9,58,19,-53,34,102,14,14,4,-4,-14
-43,9,53,17,-48,31,92,14,14,4,0,-9
-39,9,48,14,-43,29,87,19,19,9,0,-9
-29,14,43,7,-36,29,87,19,24,9,0,-4
-19,19,39,0,-29,29,87,19,29,9,0,0
-14,19,34,-2,-24,26,78,19,24,14,0,0
-9,9,19,0,-14,14,63,14,19,9,0,0
-4,0,4,2,-4,2,53,14,14,9,-4,0
-4,-9,-4,7,0,-7,34,4,4,4,-14,-4
-9,-9,0,9,-4,-4,14,-19,-4,-9,-19,-14
-14,-9,4,12,-9,-2,0,-34,-14,-14,-24,-14
-14,-4,9,9,-12,2,-4,-43,-24,-19,-29,-14
-14,-4,9,9,-12,2,-9,-58,-34,-24,-39,-24
-9,-9,0,9,-4,-4,-9,-58,-34,-34,-39,-29
-9,-19,-9,14,0,-14,-9,-63,-43,-43,-43,-34
-14,-24,-9,19,-2,-17,-9,-68,-48,-48,-43,-34
-9,-24,-14,17,2,-19,-9,-68,-48,-48,-43,-34
0,-19,-19,9,9,-19,-14,-68,-48,-48,-43,-34
9,-9,-19,0,14,-14,-14,-68,-39,-43,-39,-34
4,-9,-14,2,9,-12,-14,-68,-43,-48,-34,-29
-4,-14,-9,9,2,-12,-9,-58,-43,-43,-29,-29
-14,-19,-4,17,-4,-12,4,-43,-34,-39,-24,-24
-19,-24,-4,21,-7,-14,19,-34,-29,-34,-24,-24
-43,-34,9,39,-26,-12,29,-34,-24,-29,-14,-24
-63,-39,24,51,-43,-7,39,-39,-24,-34,-19,-29
-73,-48,24,61,-48,-12,39,-53,-39,-48,-43,-43
-78,-53,24,65,-51,-14,43,-53,-39,-48,-53,-43
-87,-53,34,70,-61,-9,43,-53,-39,-48,-53,-43
-92,-58,34,75,-63,-12,43,-53,-39,-48,-58,-48
-92,-58,34,75,-63,-12,48,-53,-39,-53,-58,-53
-92,-58,34,75,-63,-12,58,-53,-39,-53,-58,-58
-92,-58,34,75,-63,-12,58,-53,-39,-53,-58,-58
-97,-68,29,82,-63,-19,58,-53,-39,-53,-63,-58
-97,-68,29,82,-63,-19,58,-53,-43,-48,-63,-53
-97,-68,29,82,-63,-19,58,-53,-48,-43,-63,-53
-102,-68,34,85,-68,-17,63,-53,-48,-43,-63,-53
-107,-68,39,87,-73,-14,63,-48,-48,-43,-63,-53
-97,-68,29,82,-63,-19,53,-53,-48,-48,-63,-48
-97,-78,19,87,-58,-29,48,-58,-48,-53,-68,-48
-102,-63,39,82,-70,-12,126,-19,-19,-34,-53,-48
-102,-39,63,70,-82,12,263,131,68,39,4,-9
-78,-9,68,43,-73,29,366,331,156,126,73,34
-29,39,68,-4,-48,53,307,400,204,180,131,78
63,97,34,-80,14,65,-78,258,165,180,151,126
190,170,-19,-180,104,75,-551,97,97,185,175,170
312,248,-63,-280,187,92,-1019,-82,34,200,239,248
483,322,-161,-402,322,80,-1532,-278,-24,224,307,331
649,370,-278,-509,463,46,-2025,-468,-97,229,331,375
849,419,-429,-634,639,-4,-2449,-551,-165,248,385,439
1068,458,-610,-763,839,-75,-2845,-702,-322,229,424,512
1254,517,-736,-885,995,-109,-3089,-858,-448,204,458,566
1395,580,-814,-988,1105,-117,-3225,-1024,-517,190,492,634
1498,629,-868,-1063,1183,-119,-3284,-1239,-541,209,536,697
1537,678,-858,-1107,1198,-90,-3235,-1478,-541,263,610,775
1571,678,-893,-1124,1232,-107,-3206,-1776,-590,268,624,810
1615,702,-912,-1159,1263,-104,-3201,-2103,-629,234,624,829
1639,697,-941,-1168,1290,-122,-3181,-2400,-697,170,605,839
1644,673,-971,-1159,1307,-148,-3167,-2620,-785,102,580,829
1625,634,-990,-1129,1307,-178,-3093,-2776,-868,24,522,785
1581,570,-1010,-1076,1295,-219,-2981,-2830,-922,-58,444,732
1537,488,-1049,-1012,1293,-280,-2864,-2869,-985,-146,361,673
1464,380,-1083,-922,1273,-351,-2708,-2869,-1034,-224,273,590
1385,273,-1112,-829,1249,-419,-2508,-2820,-1098,-317,170,497
1312,190,-1122,-751,1217,-466,-2283,-2669,-1102,-380,82,419
1263,82,-1180,-673,1222,-549,-2093,-2464,-1127,-458,-4,331
1224,-19,-1244,-602,1234,-631,-1966,-2303,-1195,-570,-117,239
1171,-112,-1283,-529,1227,-697,-1820,-2098,-1229,-639,-204,146
1093,-175,-1268,-458,1180,-722,-1595,-1805,-1200,-663,-283,63
1010,-200,-1210,-405,1110,-705,-1356,-1483,-1122,-668,-326,9
956,-200,-1156,-378,1056,-678,-1156,-1205,-1034,-663,-341,-19
878,-200,-1078,-339,978,-639,-980,-1000,-941,-634,-351,-58
736,-234,-971,-251,854,-602,-810,-902,-878,-639,-419,-156
619,-268,-888,-175,753,-578,-649,-800,-829,-644,-473,-229
531,-278,-810,-126,671,-544,-522,-688,-795,-658,-483,-268
429,-263,-692,-82,561,-478,-395,-590,-702,-619,-468,-268
278,-165,-444,-56,361,-305,-219,-424,-488,-458,-366,-219
151,-97,-248,-26,200,-173,-24,-219,-287,-297,-258,-170
19,-92,-112,36,65,-102,161,-4,-141,-175,-165,-122
-87,-102,-14,95,-36,-58,287,141,-43,-107,-122,-97
-175,-107,68,141,-122,-19,380,214,29,-58,-97,-112
-219,-117,102,168,-161,-7,434,248,68,-29,-92,-122
-239,-122,117,180,-178,-2,453,283,73,-29,-92,-122
-244,-122,122,183,-183,0,468,302,73,-29,-87,-122
-244,-112,131,178,-187,9,488,312,87,-19,-82,-117
-248,-112,136,180,-192,12,512,336,107,-9,-82,-117
-263,-122,141,192,-202,9,536,351,112,-4,-82,-122
-273,-126,146,200,-209,9,551,370,117,-4,-82,-122
-287,-126,161,207,-224,17,575,375,126,0,-82,-126
-302,-126,175,214,-239,24,600,390,136,4,-82,-126
-307,-126,180,217,-244,26,619,414,146,9,-82,-126
-317,-126,190,222,-253,31,639,434,156,9,-82,-131
-336,-141,195,239,-265,26,653,448,165,14,-82,-131
-351,-151,200,251,-275,24,683,463,170,24,-82,-131
-341,-141,200,241,-270,29,717,488,185,29,-82,-136
-341,-131,209,236,-275,39,741,507,195,34,-82,-141
-351,-131,219,241,-285,43,771,522,209,34,-78,-136
-366,-126,239,246,-302,56,805,551,229,39,-73,-136
-380,-126,253,253,-317,63,844,575,244,48,-73,-141
-395,-126,268,261,-331,70,878,600,253,53,-73,-141
-409,-131,278,270,-344,73,922,624,278,53,-73,-146
-434,-141,292,287,-363,75,956,649,287,58,-73,-151
-453,-141,312,297,-383,85,1000,668,297,63,-78,-161
-473,-141,331,307,-402,95,1044,692,317,68,-78,-165
-492,-146,346,319,-419,100,1088,722,331,78,-82,-165
-507,-146,361,326,-434,107,1127,756,346,78,-87,-170
-517,-141,375,329,-446,117,1171,785,370,87,-82,-170
-536,-136,400,336,-468,131,1215,814,380,92,-82,-175
-556,-126,429,341,-492,151,1263,854,400,97,-82,-185
-575,-131,444,353,-509,156,1307,888,409,102,-87,-195
-595,-136,458,366,-527,161,1346,922,434,107,-87,-200
-614,-136,478,375,-546,170,1385,966,444,107,-97,-209
-653,-161,492,407,-573,165,1420,990,453,102,-107,-229
-678,-180,497,429,-588,158,1449,1024,468,97,-112,-244
-702,-190,512,446,-607,161,1478,1063,478,97,-122,-253
-727,-190,536,458,-631,173,1498,1098,492,102,-122,-258
-741,-185,556,463,-649,185,1527,1141,512,107,-117,-258
-756,-175,580,466,-668,202,1542,1185,531,112,-117,-258
-761,-170,590,466,-675,209,1551,1224,546,122,-117,-258
-766,-165,600,466,-683,217,1551,1259,566,136,-112,-258
-771,-156,614,463,-692,229,1537,1302,590,161,-102,-258
-775,-151,624,463,-700,236,1532,1337,610,170,-87,-253
-775,-146,629,461,-702,241,1503,1371,634,190,-68,-244
-766,-131,634,448,-700,251,1473,1385,658,214,-43,-224
-756,-112,644,434,-700,265,1439,1405,678,244,-24,-204
-736,-92,644,414,-690,275,1400,1410,688,263,0,-185
-722,-73,649,397,-685,287,1351,1415,697,283,29,-165
-712,-58,653,385,-683,297,1288,1395,707,307,58,-141
-692,-34,658,363,-675,312,1224,1361,707,326,78,-122
-663,-14,649,339,-656,317,1156,1307,697,341,92,-97
-619,9,629,305,-624,319,1088,1254,692,356,117,-68
-575,34,610,270,-592,322,1000,1190,683,366,131,-48
-546,43,590,251,-568,317,922,1112,658,370,146,-29
-502,58,561,222,-531,309,834,1024,629,370,156,-9
-453,78,531,187,-492,305,756,936,600,361,165,14
-405,78,483,163,-444,280,673,844,551,346,170,34
-370,78,448,146,-409,263,590,746,502,326,175,39
-341,78,419,131,-380,248,512,649,453,302,170,43
-297,78,375,109,-336,226,444,551,405,273,161,53
-258,78,336,90,-297,207,380,468,361,244,146,53
-219,78,297,70,-258,187,317,390,307,224,136,53
-190,68,258,61,-224,163,248,307,263,195,117,48
-161,58,219,51,-190,139,209,248,224,165,107,48
-136,48,185,43,-161,117,170,200,185,136,92,43
-112,43,156,34,-134,100,131,156,146,117,78,39
-97,29,126,34,-112,78,102,112,122,102,68,29
-73,24,97,24,-85,61,73,78,78,78,53,29
-63,4,68,29,-65,36,48,43,48,53,39,24
-48,-4,43,26,-46,19,29,24,34,39,34,19
-43,-14,29,29,-36,7,19,4,14,29,24,14
-34,-9,24,21,-29,7,4,-9,9,19,19,9
-24,0,24,12,-24,12,0,-19,0,14,14,9
-14,0,14,7,-14,7,-4,-19,-4,14,14,9
-9,0,9,4,-9,4,-4,-29,-9,9,14,9
-9,0,9,4,-9,4,-4,-34,-9,4,9,9
-9,0,9,4,-9,4,-4,-39,-9,4,4,4
-9,-9,0,9,-4,-4,-4,-39,-14,0,4,4
-9,-14,-4,12,-2,-9,0,-48,-14,-4,0,4
-9,-19,-9,14,0,-14,0,-48,-24,-14,0,0
-9,-24,-14,17,2,-19,0,-48,-29,-19,-4,0
-9,-24,-14,17,2,-19,-4,-53,-29,-24,-4,0
-9,-24,-14,17,2,-19,-9,-58,-34,-24,-9,-4
-9,-24,-14,17,2,-19,-4,-68,-34,-24,-9,-4
-14,-29,-14,21,0,-21,-4,-78,-39,-29,-14,-9
-14,-29,-14,21,0,-21,0,-78,-39,-29,-14,-9
-19,-29,-9,24,-4,-19,0,-78,-43,-34,-19,-9
-34,-34,0,34,-17,-17,0,-78,-43,-34,-19,-14
-43,-43,0,43,-21,-21,4,-78,-43,-39,-19,-14
-48,-43,4,46,-26,-19,9,-82,-39,-39,-19,-19
-48,-43,4,46,-26,-19,14,-82,-39,-39,-19,-19
-48,-39,9,43,-29,-14,14,-78,-34,-29,-19,-19
-43,-29,14,36,-29,-7,24,-78,-24,-24,-19,-19
-43,-29,14,36,-29,-7,29,-78,-24,-24,-24,-19
-43,-29,14,36,-29,-7,29,-68,-24,-24,-24,-19
-48,-39,9,43,-29,-14,34,-68,-29,-29,-29,-24
-53,-48,4,51,-29,-21,39,-68,-29,-29,-29,-24
-63,-58,4,61,-34,-26,39,-63,-29,-34,-29,-29
-73,-68,4,70,-39,-31,34,-58,-29,-39,-29,-29
-73,-58,14,65,-43,-21,39,-53,-29,-34,-29,-29
-63,-48,14,56,-39,-17,39,-48,-24,-34,-29,-29
-68,-48,19,58,-43,-14,48,-39,-19,-29,-29,-29
-68,-43,24,56,-46,-9,58,-29,-19,-24,-29,-29
-68,-39,29,53,-48,-4,58,-29,-19,-24,-29,-29
-68,-39,29,53,-48,-4,63,-24,-19,-24,-34,-29
-78,-48,29,63,-53,-9,63,-24,-14,-29,-34,-34
-87,-58,29,73,-58,-14,63,-29,-14,-29,-34,-34
-92,-63,29,78,-61,-17,63,-24,-14,-29,-39,-34
-92,-63,29,78,-61,-17,63,-19,-14,-29,-39,-34
-78,-63,14,70,-46,-24,63,-19,-14,-29,-34,-34
-73,-63,9,68,-41,-26,68,-19,-14,-29,-34,-34
-82,-63,19,73,-51,-21,68,-19,-14,-29,-39,-34
-82,-63,19,73,-51,-21,68,-19,-14,-29,-39,-34
-78,-63,14,70,-46,-24,68,-19,-14,-24,-29,-34
-78,-58,19,68,-48,-19,63,-19,-14,-19,-24,-34
-78,-58,19,68,-48,-19,63,-19,-14,-19,-24,-34
-82,-58,24,70,-53,-17,63,-19,-14,-19,-29,-34
-82,-58,24,70,-53,-17,63,-24,-14,-19,-34,-34
-82,-63,19,73,-51,-21,58,-24,-19,-24,-39,-39
-82,-63,19,73,-51,-21,58,-19,-14,-24,-39,-39
-78,-58,19,68,-48,-19,63,-9,-9,-19,-39,-34
-63,-48,14,56,-39,-17,73,-9,-4,-9,-29,-29
-58,-39,19,48,-39,-9,78,-4,9,0,-19,-19
-58,-29,29,43,-43,0,87,0,9,0,-14,-14
-53,-19,34,36,-43,7,97,9,19,4,-9,-9
-43,-9,34,26,-39,12,102,14,19,9,-4,-4
-39,0,39,19,-39,19,112,24,24,14,-4,-4
-34,0,34,17,-34,17,102,19,24,14,0,0
-29,0,29,14,-29,14,97,19,29,19,0,0
-29,-4,24,17,-26,9,92,19,24,19,0,0
-29,-9,19,19,-24,4,87,19,19,19,0,0
-24,-9,14,17,-19,2,78,24,14,19,0,0
-19,-14,4,17,-12,-4,63,24,9,14,0,0
-14,-24,-9,19,-2,-17,48,24,4,9,-4,0
-14,-29,-14,21,0,-21,24,14,-4,4,-14,-4
-14,-29,-14,21,0,-21,9,-14,-14,-9,-19,-14
-14,-29,-14,21,0,-21,0,-34,-24,-14,-24,-14
-14,-24,-9,19,-2,-17,-4,-43,-34,-19,-29,-14
-14,-24,-9,19,-2,-17,-9,-58,-43,-24,-39,-24
-9,-29,-19,19,4,-24,-4,-53,-39,-24,-34,-24
-9,-39,-29,24,9,-34,0,-53,-43,-24,-34,-24
-9,-34,-24,21,7,-29,0,-58,-39,-29,-34,-24
0,-24,-24,12,12,-24,0,-58,-29,-29,-34,-24
-4,-29,-24,17,9,-26,-9,-58,-39,-34,-34,-24
-9,-29,-19,19,4,-24,-14,-58,-39,-34,-29,-24
-9,-29,-19,19,4,-24,-9,-58,-39,-34,-24,-19
-14,-34,-19,24,2,-26,0,-48,-34,-24,-19,-19
-24,-39,-14,31,-4,-26,14,-34,-19,-19,-14,-14
-29,-43,-14,36,-7,-29,29,-24,-9,-14,-14,-14
-53,-53,0,53,-26,-26,39,-24,-9,-14,-14,-14
-73,-58,14,65,-43,-21,48,-29,-14,-24,-29,-19
-82,-68,14,75,-48,-26,48,-43,-29,-39,-43,-34
-87,-73,14,80,-51,-29,53,-43,-29,-39,-43,-34
-92,-73,19,82,-56,-26,53,-48,-34,-39,-43,-34
-92,-78,14,85,-53,-31,53,-53,-39,-39,-48,-39
-92,-82,9,87,-51,-36,53,-53,-39,-48,-53,-39
-92,-87,4,90,-48,-41,58,-53,-39,-53,-58,-39
-97,-87,9,92,-53,-39,58,-53,-39,-53,-58,-48
-107,-97,9,102,-58,-43,58,-53,-39,-53,-63,-58
-107,-97,9,102,-58,-43,58,-53,-39,-53,-63,-58
-107,-97,9,102,-58,-43,58,-53,-39,-53,-63,-63
-102,-92,9,97,-56,-41,63,-48,-34,-48,-58,-53
-97,-87,9,92,-53,-39,63,-39,-29,-43,-53,-43
-78,-68,9,73,-43,-29,63,-39,-29,-43,-48,-39
-68,-58,9,63,-39,-24,68,-39,-29,-43,-48,-39
-82,-63,19,73,-51,-21,146,4,-9,-34,-39,-43
-92,-58,34,75,-63,-12,283,161,68,29,14,-9
-73,-34,39,53,-56,2,370,326,156,117,78,34
-29,9,39,9,-34,24,297,361,204,170,131,78
78,87,9,-82,34,48,-78,195,170,180,165,136
219,180,-39,-200,129,70,-541,9,107,195,204,190
346,258,-87,-302,217,85,-1010,-185,34,200,258,263
522,331,-190,-427,356,70,-1522,-395,-34,214,317,341
688,380,-307,-534,497,36,-2010,-605,-122,200,326,380
888,429,-458,-658,673,-14,-2430,-707,-204,200,366,439
1088,453,-634,-771,861,-90,-2830,-897,-380,151,370,492
1254,497,-756,-875,1005,-129,-3079,-1093,-527,97,370,527
1395,575,-819,-985,1107,-122,-3206,-1298,-600,78,400,590
1498,639,-858,-1068,1178,-109,-3254,-1551,-629,92,439,649
1537,688,-849,-1112,1193,-80,-3201,-1815,-624,141,507,717
1571,688,-883,-1129,1227,-97,-3167,-2137,-668,141,517,741
1615,707,-907,-1161,1261,-100,-3162,-2410,-707,107,517,761
1639,697,-941,-1168,1290,-122,-3142,-2654,-775,43,497,771
1629,649,-980,-1139,1305,-165,-3123,-2830,-863,-24,458,756
1595,585,-1010,-1090,1302,-212,-3045,-2942,-946,-102,385,707
1556,527,-1029,-1041,1293,-251,-2937,-2971,-995,-180,317,658
1517,448,-1068,-983,1293,-309,-2825,-2986,-1054,-263,244,605
1444,341,-1102,-893,1273,-380,-2669,-2962,-1102,-331,165,527
1366,234,-1132,-800,1249,-448,-2469,-2888,-1166,-414,73,439
1298,170,-1127,-734,1212,-478,-2259,-2727,-1166,-463,0,380
1254,82,-1171,-668,1212,-544,-2083,-2513,-1185,-527,-73,312
1215,-4,-1220,-605,1217,-612,-1952,-2342,-1224,-614,-161,234
1161,-82,-1244,-539,1202,-663,-1800,-2127,-1229,-658,-224,156
1078,-136,-1215,-470,1146,-675,-1576,-1825,-1190,-668,-283,82
990,-151,-1141,-419,1066,-646,-1337,-1493,-1102,-658,-307,39
936,-151,-1088,-392,1012,-619,-1141,-1224,-1005,-644,-322,9
858,-151,-1010,-353,934,-580,-971,-1029,-902,-605,-331,-29
732,-175,-907,-278,819,-541,-800,-897,-829,-600,-380,-107
629,-200,-829,-214,729,-514,-639,-761,-771,-595,-414,-161
541,-200,-741,-170,641,-470,-497,-634,-702,-575,-409,-195
439,-175,-614,-131,527,-395,-356,-522,-575,-502,-380,-190
283,-102,-385,-90,334,-244,-180,-336,-375,-351,-278,-136
151,-58,-209,-46,180,-134,14,-112,-190,-200,-170,-82
4,-87,-92,41,48,-90,185,73,-63,-102,-107,-68
-117,-131,-14,124,-51,-73,297,190,14,-58,-92,-78
-190,-141,48,165,-119,-46,375,268,58,-34,-78,-97
-219,-156,63,187,-141,-46,414,307,68,-29,-82,-112
-239,-161,78,200,-158,-41,434,336,87,-19,-82,-112
-244,-161,82,202,-163,-39,448,351,102,-9,-78,-112
-244,-141,102,192,-173,-19,468,366,117,9,-68,-107
-248,-131,117,190,-183,-7,492,395,136,29,-63,-107
-253,-136,117,195,-185,-9,517,409,141,24,-63,-112
-253,-136,117,195,-185,-9,531,429,146,14,-63,-112
-268,-141,126,204,-197,-7,556,434,151,19,-63,-117
-283,-146,136,214,-209,-4,580,448,156,24,-63,-117
-292,-161,131,226,-212,-14,595,473,165,29,-63,-117
-307,-175,131,241,-219,-21,610,492,175,29,-63,-122
-317,-165,151,241,-234,-7,629,507,185,29,-63,-122
-322,-151,170,236,-246,9,663,522,190,34,-63,-122
-312,-151,161,231,-236,4,697,551,204,39,-63,-126
-312,-151,161,231,-236,4,722,575,214,43,-63,-131
-336,-165,170,251,-253,2,751,590,224,43,-68,-136
-366,-175,190,270,-278,7,785,619,239,48,-73,-146
-380,-175,204,278,-292,14,824,649,253,58,-73,-151
-395,-175,219,285,-307,21,858,678,263,63,-73,-151
-400,-170,229,285,-314,29,902,707,287,58,-73,-156
-414,-170,244,292,-329,36,936,736,297,58,-73,-161
-434,-170,263,302,-348,46,980,761,307,63,-78,-165
-453,-170,283,312,-368,56,1024,790,326,68,-78,-165
-478,-180,297,329,-387,58,1073,819,341,78,-82,-170
-497,-185,312,341,-405,63,1117,854,356,78,-87,-180
-512,-185,326,348,-419,70,1161,893,380,92,-82,-180
-536,-185,351,361,-444,82,1205,932,390,102,-82,-185
-556,-180,375,368,-466,97,1249,971,409,102,-82,-195
-575,-190,385,383,-480,97,1288,1005,419,102,-87,-204
-595,-190,405,392,-500,107,1327,1044,448,112,-87,-204
-614,-185,429,400,-522,122,1366,1093,463,117,-97,-209
-644,-195,448,419,-546,126,1400,1127,473,117,-107,-224
-658,-200,458,429,-558,129,1429,1171,488,117,-112,-234
-683,-214,468,448,-575,126,1459,1210,497,117,-122,-253
-707,-219,488,463,-597,134,1478,1244,512,122,-122,-268
-736,-229,507,483,-622,139,1503,1288,531,131,-117,-273
-766,-234,531,500,-649,148,1512,1332,551,141,-117,-278
-761,-229,531,495,-646,151,1522,1376,566,151,-117,-273
-756,-224,531,490,-644,153,1522,1415,585,165,-112,-268
-761,-200,561,480,-661,180,1517,1454,610,195,-97,-263
-766,-180,585,473,-675,202,1522,1483,629,209,-78,-253
-756,-175,580,466,-668,202,1493,1517,653,229,-58,-244
-736,-161,575,448,-656,207,1464,1532,678,253,-34,-224
-736,-146,590,441,-663,222,1424,1542,697,278,-14,-204
-727,-131,595,429,-661,231,1381,1537,707,292,9,-185
-702,-112,590,407,-646,239,1332,1532,717,312,39,-165
-683,-97,585,390,-634,244,1268,1503,727,336,68,-141
-658,-63,595,361,-627,265,1205,1464,727,361,92,-122
-624,-34,590,329,-607,278,1137,1405,717,380,112,-97
-585,-14,570,300,-578,278,1068,1332,702,390,136,-68
-546,4,551,270,-549,278,980,1249,683,395,151,-48
-531,4,536,263,-534,270,902,1161,653,385,156,-34
-502,9,512,246,-507,261,814,1063,619,370,156,-19
-458,29,488,214,-473,258,741,966,590,361,165,4
-414,29,444,192,-429,236,663,863,541,346,170,24
-375,29,405,173,-390,217,580,766,492,326,170,29
-341,29,370,156,-356,200,502,668,444,302,161,34
-297,29,326,134,-312,178,434,570,395,273,146,39
-258,29,287,114,-273,158,370,488,351,244,126,34
-209,34,244,87,-226,139,312,409,297,224,122,39
-170,29,200,70,-185,114,248,326,253,195,107,39
-141,19,161,61,-151,90,204,253,209,161,97,39
-117,9,126,53,-122,68,161,190,165,126,82,34
-97,9,107,43,-102,58,122,146,126,107,68,34
-87,0,87,43,-87,43,92,102,102,92,58,29
-63,0,63,31,-63,31,68,73,68,73,48,29
-53,-14,39,34,-46,12,48,43,48,53,39,24
-43,-24,19,34,-31,-2,29,24,34,39,34,19
-43,-34,9,39,-26,-12,19,4,14,29,24,14
-34,-34,0,34,-17,-17,4,-14,9,19,19,9
-24,-29,-4,26,-9,-17,0,-29,0,14,14,9
-14,-29,-14,21,0,-21,-4,-29,-4,14,9,9
-9,-29,-19,19,4,-24,-4,-39,-9,9,4,9
-9,-29,-19,19,4,-24,-4,-48,-14,0,-4,4
-9,-29,-19,19,4,-24,-4,-58,-19,-4,-14,-4
-9,-39,-29,24,9,-34,-9,-58,-29,-9,-14,-4
-9,-43,-34,26,12,-39,-9,-68,-34,-14,-19,-4
0,-43,-43,21,21,-43,-9,-68,-39,-19,-14,-9
9,-43,-53,17,31,-48,-9,-68,-39,-19,-14,-9
-4,-43,-39,24,17,-41,-9,-73,-34,-24,-9,-4
-19,-43,-24,31,2,-34,-9,-78,-34,-24,-9,-4
-19,-43,-24,31,2,-34,-4,-82,-34,-24,-9,-4
-24,-48,-24,36,0,-36,-4,-87,-39,-29,-14,-9
-24,-48,-24,36,0,-36,4,-82,-39,-29,-19,-9
-29,-48,-19,39,-4,-34,9,-78,-43,-34,-29,-9
-34,-48,-14,41,-9,-31,9,-78,-43,-34,-29,-14
-34,-53,-19,43,-7,-36,14,-78,-43,-39,-29,-14
-39,-53,-14,46,-12,-34,19,-78,-39,-34,-29,-19
-39,-53,-14,46,-12,-34,24,-73,-39,-29,-29,-19
-43,-58,-14,51,-14,-36,24,-63,-34,-24,-24,-19
-43,-58,-14,51,-14,-36,34,-58,-24,-24,-19,-19
-48,-63,-14,56,-17,-39,39,-58,-24,-24,-24,-19
-53,-68,-14,61,-19,-41,39,-48,-24,-24,-24,-19
-58,-73,-14,65,-21,-43,43,-48,-24,-29,-34,-24
-63,-78,-14,70,-24,-46,48,-48,-19,-29,-39,-24
-63,-68,-4,65,-29,-36,53,-43,-19,-29,-39,-29
-63,-58,4,61,-34,-26,53,-39,-19,-29,-39,-29
-82,-68,14,75,-48,-26,58,-39,-24,-24,-39,-29
-92,-78,14,85,-53,-31,58,-39,-24,-24,-39,-29
-87,-82,4,85,-46,-39,63,-34,-19,-24,-39,-29
-78,-82,-4,80,-36,-43,68,-29,-19,-24,-39,-29
-78,-78,0,78,-39,-39,68,-29,-14,-24,-34,-29
-78,-78,0,78,-39,-39,73,-24,-9,-24,-34,-29
-78,-73,4,75,-41,-34,73,-19,-4,-24,-34,-39
-78,-68,9,73,-43,-29,73,-19,-4,-19,-34,-43
-78,-73,4,75,-41,-34,78,-14,-4,-19,-39,-43
-73,-73,0,73,-36,-36,82,-9,-4,-19,-39,-43
-73,-68,4,70,-39,-31,82,-9,-4,-19,-34,-39
-82,-63,19,73,-51,-21,87,-9,-4,-19,-34,-34
-82,-63,19,73,-51,-21,82,-9,-9,-19,-39,-34
-73,-63,9,68,-41,-26,78,-9,-14,-19,-39,-34
-73,-68,4,70,-39,-31,78,-14,-14,-19,-34,-34
-78,-68,9,73,-43,-29,73,-19,-14,-19,-34,-34
-78,-68,9,73,-43,-29,73,-19,-14,-19,-34,-29
-82,-68,14,75,-48,-26,73,-19,-14,-19,-39,-24
-82,-63,19,73,-51,-21,78,-14,-9,-14,-34,-24
-82,-63,19,73,-51,-21,78,-4,-9,-14,-29,-29
-78,-58,19,68,-48,-19,78,0,-4,-14,-29,-29
-68,-48,19,58,-43,-14,82,9,0,-9,-29,-24
-58,-39,19,48,-39,-9,97,9,4,0,-19,-19
-58,-24,34,41,-46,4,112,19,24,9,-4,-4
-53,-24,29,39,-41,2,117,24,24,4,-9,-9
-53,-24,29,39,-41,2,122,29,24,4,-14,-14
-43,-19,24,31,-34,2,117,29,19,4,-9,-19
-39,-19,19,29,-29,0,117,29,19,9,-9,-29
-43,-29,14,36,-29,-7,102,29,19,9,-9,-19
-48,-39,9,43,-29,-14,87,29,19,9,-9,-9
-43,-39,4,41,-24,-17,78,29,14,9,-9,-9
-29,-39,-9,34,-9,-24,63,29,14,4,-4,-4
-19,-39,-19,29,0,-29,53,29,14,4,-4,0
-4,-29,-24,17,9,-26,34,24,14,4,-4,4
-4,-29,-24,17,9,-26,19,0,4,-9,-9,-4
-4,-29,-24,17,9,-26,9,-14,-4,-14,-14,-4
-9,-24,-14,17,2,-19,4,-29,-19,-24,-24,-9
-14,-24,-9,19,-2,-17,0,-48,-34,-34,-39,-24
-9,-29,-19,19,4,-24,0,-48,-34,-39,-48,-29
-9,-39,-29,24,9,-34,0,-53,-43,-43,-63,-34
-19,-43,-24,31,2,-34,0,-58,-48,-48,-53,-34
-19,-43,-24,31,2,-34,0,-58,-48,-48,-43,-34
-4,-39,-34,21,14,-36,-4,-58,-43,-43,-39,-24
9,-29,-39,9,24,-34,-4,-58,-29,-34,-29,-14
9,-24,-34,7,21,-29,0,-58,-29,-34,-24,-9
4,-24,-29,9,17,-26,9,-48,-24,-24,-19,-9
-4,-29,-24,17,9,-26,24,-34,-14,-19,-14,-4
-9,-34,-24,21,7,-29,39,-24,-9,-14,-14,-4
-39,-48,-9,43,-14,-29,48,-24,-9,-14,-14,-14
-63,-58,4,61,-34,-26,58,-29,-14,-24,-29,-29
-82,-73,9,78,-46,-31,58,-43,-34,-43,-48,-48
-97,-82,14,90,-56,-34,63,-43,-39,-48,-53,-53
-102,-82,19,92,-61,-31,63,-43,-39,-48,-53,-53
-102,-87,14,95,-58,-36,63,-43,-39,-48,-58,-58
-97,-82,14,90,-56,-34,63,-43,-39,-53,-58,-53
-92,-78,14,85,-53,-31,68,-43,-39,-53,-58,-48
-78,-68,9,73,-43,-29,68,-43,-39,-53,-53,-48
-68,-68,0,68,-34,-34,68,-43,-39,-53,-53,-48
-82,-82,0,82,-41,-41,68,-43,-39,-53,-53,-48
-97,-97,0,97,-48,-48,68,-43,-39,-53,-53,-53
-112,-97,14,104,-63,-41,68,-48,-39,-53,-58,-58
-126,-97,29,112,-78,-34,63,-48,-39,-53,-63,-63
-102,-87,14,95,-58,-36,58,-53,-43,-53,-68,-58
-87,-87,0,87,-43,-43,58,-58,-48,-53,-78,-58
-92,-82,9,87,-51,-36,136,-34,-39,-53,-63,-58
-92,-68,24,80,-58,-21,273,102,29,0,-4,-19
-82,-48,34,65,-58,-7,419,322,146,107,63,24
-48,-9,39,29,-43,14,405,409,224,180,122,68
43,68,24,-56,9,46,82,258,214,200,165,131
170,161,-9,-165,90,75,-326,87,175,224,214,190
287,253,-34,-270,161,109,-795,-112,117,244,278,273
453,341,-112,-397,283,114,-1307,-326,63,273,346,361
605,390,-214,-497,409,87,-1815,-556,-19,273,380,414
790,439,-351,-614,570,43,-2254,-678,-97,287,444,488
1005,473,-531,-739,768,-29,-2698,-897,-292,239,448,541
1185,527,-658,-856,922,-65,-2991,-1122,-458,185,448,575
1317,590,-727,-954,1022,-68,-3167,-1351,-570,141,468,639
1410,639,-771,-1024,1090,-65,-3264,-1629,-639,131,497,697
1449,697,-751,-1073,1100,-26,-3211,-1888,-629,180,575,775
1483,707,-775,-1095,1129,-34,-3176,-2205,-668,180,595,810
1532,732,-800,-1132,1166,-34,-3167,-2454,-697,165,605,839
1561,727,-834,-1144,1198,-53,-3142,-2674,-756,122,595,858
1561,692,-868,-1127,1215,-87,-3123,-2849,-844,53,556,849
1537,644,-893,-1090,1215,-124,-3045,-2962,-927,-24,483,805
1498,575,-922,-1037,1210,-173,-2942,-3001,-1000,-122,405,746
1459,488,-971,-973,1215,-241,-2835,-3025,-1083,-224,322,683
1385,380,-1005,-883,1195,-312,-2688,-3015,-1132,-302,244,610
1307,273,-1034,-790,1171,-380,-2498,-2957,-1195,-395,151,527
1234,214,-1019,-724,1127,-402,-2283,-2806,-1200,-453,68,453
1185,131,-1054,-658,1119,-461,-2103,-2601,-1224,-527,-14,370
1156,43,-1112,-600,1134,-534,-1981,-2430,-1273,-624,-117,297
1112,-34,-1146,-539,1129,-590,-1839,-2215,-1288,-678,-195,224
1044,-87,-1132,-478,1088,-610,-1615,-1903,-1254,-692,-258,146
971,-102,-1073,-434,1022,-588,-1376,-1561,-1171,-688,-287,97
917,-102,-1019,-407,968,-561,-1176,-1259,-1049,-663,-292,73
839,-102,-941,-368,890,-522,-1000,-1029,-922,-614,-292,39
712,-131,-844,-290,778,-488,-819,-897,-844,-600,-351,-53
610,-161,-771,-224,690,-466,-649,-761,-780,-585,-395,-122
531,-185,-717,-173,624,-451,-522,-644,-732,-590,-409,-175
439,-185,-624,-126,531,-405,-395,-541,-624,-541,-400,-190
287,-117,-405,-85,346,-261,-219,-361,-424,-390,-307,-151
161,-78,-239,-41,200,-158,-24,-141,-239,-239,-209,-112
29,-78,-107,24,68,-92,146,53,-102,-131,-131,-87
-78,-92,-14,85,-31,-53,258,180,-14,-78,-102,-87
-156,-107,48,131,-102,-29,351,263,53,-39,-82,-102
-190,-126,63,158,-126,-31,405,307,87,-19,-82,-112
-214,-141,73,178,-143,-34,424,336,92,-19,-87,-117
-224,-151,73,187,-148,-39,439,351,92,-19,-87,-122
-229,-141,87,185,-158,-26,458,361,107,-9,-82,-122
-239,-141,97,190,-168,-21,483,385,126,0,-82,-126
-253,-151,102,202,-178,-24,502,400,131,4,-82,-131
-263,-156,107,209,-185,-24,512,419,136,4,-82,-131
-268,-156,112,212,-190,-21,536,424,146,9,-82,-136
-273,-156,117,214,-195,-19,561,439,156,14,-82,-136
-278,-151,126,214,-202,-12,575,463,165,19,-82,-136
-287,-146,141,217,-214,-2,590,483,175,19,-82,-141
-297,-151,146,224,-222,-2,610,502,185,19,-82,-141
-302,-151,151,226,-226,0,644,522,190,24,-82,-141
-307,-151,156,229,-231,2,678,546,200,24,-87,-146
-322,-151,170,236,-246,9,702,566,204,24,-92,-151
-331,-165,165,248,-248,0,732,580,214,24,-92,-151
-346,-175,170,261,-258,-2,766,610,229,29,-92,-156
-361,-175,185,268,-273,4,805,634,244,39,-92,-161
-375,-175,200,275,-287,12,839,658,253,43,-92,-161
-380,-165,214,273,-297,24,883,688,278,43,-87,-165
-395,-161,234,278,-314,36,917,717,287,48,-82,-170
-414,-161,253,287,-334,46,961,741,297,53,-87,-180
-434,-161,273,297,-353,56,1005,771,317,58,-87,-185
-453,-165,287,309,-370,61,1049,800,336,68,-92,-190
-468,-165,302,317,-385,68,1088,834,356,68,-97,-200
-483,-165,317,324,-400,75,1132,863,375,73,-97,-204
-507,-165,341,336,-424,87,1176,893,380,73,-102,-214
-531,-165,366,348,-448,100,1220,932,400,73,-107,-224
-556,-180,375,368,-466,97,1259,966,409,73,-117,-234
-575,-185,390,380,-483,102,1298,1005,434,82,-117,-239
-595,-185,409,390,-502,112,1337,1054,444,87,-126,-248
-624,-195,429,409,-527,117,1371,1083,453,87,-141,-268
-639,-200,439,419,-539,119,1400,1122,468,87,-151,-283
-668,-214,453,441,-561,119,1429,1161,483,82,-161,-292
-697,-219,478,458,-588,129,1449,1195,502,82,-161,-297
-712,-219,492,466,-602,136,1468,1239,522,92,-156,-302
-727,-214,512,470,-619,148,1473,1283,541,102,-156,-307
-732,-209,522,470,-627,156,1488,1322,561,112,-156,-307
-736,-204,531,470,-634,163,1493,1356,585,126,-151,-307
-741,-190,551,466,-646,180,1483,1400,610,161,-136,-302
-746,-180,566,463,-656,192,1483,1434,629,180,-117,-292
-746,-175,570,461,-658,197,1454,1468,653,200,-97,-283
-736,-161,575,448,-656,207,1424,1483,678,224,-73,-263
-727,-141,585,434,-656,222,1390,1498,697,253,-53,-244
-707,-122,585,414,-646,231,1351,1498,707,273,-29,-224
-673,-97,575,385,-624,239,1312,1498,722,292,0,-204
-644,-78,566,361,-605,244,1259,1473,736,317,29,-180
-639,-53,585,346,-612,265,1195,1434,736,336,48,-161
-624,-34,590,329,-607,278,1127,1376,727,351,63,-136
-585,-14,570,300,-578,278,1063,1317,712,361,87,-107
-546,4,551,270,-549,278,980,1249,692,366,102,-87
-517,14,531,251,-524,273,902,1166,668,366,122,-68
-473,29,502,222,-488,265,814,1073,639,361,136,-48
-434,48,483,192,-458,265,741,976,610,351,146,-24
-395,48,444,173,-419,246,663,873,561,336,151,-4
-361,48,409,156,-385,229,580,775,512,317,151,0
-331,48,380,141,-356,214,502,678,463,292,141,4
-287,48,336,119,-312,192,439,580,409,268,131,19
-248,48,297,100,-273,173,380,497,361,244,117,24
-209,48,258,80,-234,153,322,414,307,224,112,29
-180,39,219,70,-200,129,258,326,263,195,97,29
-151,29,180,61,-165,104,214,253,224,161,87,34
-126,19,146,53,-136,82,170,190,185,126,73,34
-102,19,122,41,-112,70,131,146,146,107,58,34
-87,9,97,39,-92,53,102,102,122,92,48,29
-53,24,78,14,-65,51,78,73,87,73,43,29
-34,24,58,4,-46,41,58,43,68,53,39,24
-34,4,39,14,-36,21,34,19,48,39,34,19
-43,-14,29,29,-36,7,19,-4,24,29,24,14
-34,-19,14,26,-24,-2,4,-24,9,9,14,9
-24,-19,4,21,-14,-7,0,-39,-9,-4,4,9
-14,-19,-4,17,-4,-12,-9,-39,-14,-4,4,9
-9,-19,-9,14,0,-14,-14,-48,-19,-9,4,9
-9,-19,-9,14,0,-14,-14,-53,-19,-14,0,9
-9,-19,-9,14,0,-14,-14,-58,-19,-14,-4,4
-9,-24,-14,17,2,-19,-19,-58,-24,-14,-4,4
-9,-24,-14,17,2,-19,-19,-68,-24,-14,-9,4
0,-14,-14,7,7,-14,-19,-68,-29,-19,-9,0
9,-4,-14,-2,12,-9,-19,-68,-29,-19,-14,0
-4,-19,-14,12,4,-17,-19,-73,-29,-24,-14,0
-19,-34,-14,26,-2,-24,-19,-78,-34,-24,-19,-4
-19,-34,-14,26,-2,-24,-14,-78,-34,-24,-19,-4
-24,-39,-14,31,-4,-26,-14,-78,-39,-29,-24,-9
-19,-34,-14,26,-2,-24,-9,-78,-39,-29,-24,-9
-19,-29,-9,24,-4,-19,-9,-78,-43,-34,-29,-9
-24,-29,-4,26,-9,-17,-4,-73,-39,-34,-29,-14
-24,-34,-9,29,-7,-21,4,-68,-34,-39,-29,-14
-29,-34,-4,31,-12,-19,9,-73,-29,-39,-29,-19
-29,-34,-4,31,-12,-19,14,-73,-29,-39,-29,-19
-34,-39,-4,36,-14,-21,14,-63,-29,-34,-29,-19
-34,-39,-4,36,-14,-21,24,-58,-24,-34,-29,-19
-39,-39,0,39,-19,-19,29,-58,-24,-34,-29,-19
-43,-39,4,41,-24,-17,29,-48,-24,-34,-24,-19
-39,-34,4,36,-21,-14,34,-48,-19,-34,-29,-24
-34,-29,4,31,-19,-12,39,-48,-9,-29,-29,-24
-34,-29,4,31,-19,-12,48,-43,-9,-29,-29,-29
-34,-29,4,31,-19,-12,53,-39,-9,-29,-29,-29
-58,-34,24,46,-41,-4,58,-39,-14,-29,-29,-34
-73,-39,34,56,-53,-2,58,-39,-14,-34,-29,-39
-78,-53,24,65,-51,-14,58,-34,-9,-34,-34,-39
-78,-63,14,70,-46,-24,58,-29,-9,-34,-39,-39
-73,-48,24,61,-48,-12,58,-29,-9,-34,-34,-39
-68,-39,29,53,-48,-4,63,-24,-9,-34,-34,-39
-68,-39,29,53,-48,-4,63,-19,-4,-34,-34,-39
-68,-39,29,53,-48,-4,63,-19,-4,-29,-34,-34
-73,-48,24,61,-48,-12,63,-19,-4,-29,-43,-34
-73,-53,19,63,-46,-17,63,-19,-4,-29,-48,-34
-73,-53,19,63,-46,-17,58,-19,-4,-29,-43,-34
-82,-53,29,68,-56,-12,58,-19,-4,-29,-43,-34
-82,-48,34,65,-58,-7,58,-19,-4,-29,-43,-34
-73,-43,29,58,-51,-7,58,-19,-4,-29,-39,-34
-68,-43,24,56,-46,-9,58,-19,-4,-34,-34,-34
-68,-39,29,53,-48,-4,53,-19,-4,-39,-34,-34
-68,-39,29,53,-48,-4,58,-14,-4,-39,-34,-34
-73,-39,34,56,-53,-2,63,-9,-4,-39,-39,-34
-73,-39,34,56,-53,-2,63,-14,-4,-39,-39,-34
-73,-43,29,58,-51,-7,58,-14,-9,-43,-39,-39
-78,-48,29,63,-53,-9,58,-14,-9,-43,-39,-43
-78,-48,29,63,-53,-9,63,-9,-9,-39,-39,-43
-68,-39,29,53,-48,-4,73,-9,-9,-29,-29,-39
-68,-29,39,48,-53,4,78,-4,0,-19,-19,-29
-63,-9,53,36,-58,21,87,-4,4,-19,-14,-24
-53,9,63,21,-58,36,97,0,19,-14,-9,-19
-39,14,53,12,-46,34,102,9,19,-4,-4,-14
-29,19,48,4,-39,34,107,19,19,0,0,-9
-34,14,48,9,-41,31,97,19,19,0,0,-9
-39,9,48,14,-43,29,87,19,19,0,0,-9
-39,4,43,17,-41,24,82,19,24,0,0,-9
-34,0,34,17,-34,17,68,14,19,0,0,-9
-29,-4,24,17,-26,9,58,14,19,0,0,-9
-24,-14,9,19,-17,-2,43,14,14,-9,-4,-9
-24,-19,4,21,-14,-7,24,4,4,-14,-14,-14
-24,-19,4,21,-14,-7,9,-19,-4,-29,-19,-24
-24,-19,4,21,-14,-7,0,-34,-14,-34,-24,-24
-24,-14,9,19,-17,-2,-4,-43,-24,-39,-29,-24
-24,-14,9,19,-17,-2,-14,-58,-34,-43,-39,-34
-19,-19,0,19,-9,-9,-19,-58,-34,-48,-39,-34
-19,-29,-9,24,-4,-19,-19,-63,-43,-53,-43,-34
-29,-34,-4,31,-12,-19,-19,-68,-48,-58,-43,-34
-29,-34,-4,31,-12,-19,-19,-73,-48,-58,-43,-29
-19,-29,-9,24,-4,-19,-24,-78,-48,-58,-43,-24
-9,-19,-9,14,0,-14,-24,-78,-39,-53,-39,-24
-9,-14,-4,12,-2,-9,-19,-78,-39,-53,-34,-19
-9,-14,-4,12,-2,-9,-9,-63,-34,-39,-29,-19
-14,-19,-4,17,-4,-12,4,-43,-24,-29,-24,-14
-19,-14,4,17,-12,-4,24,-34,-14,-24,-24,-14
-48,-19,29,34,-39,4,39,-34,-9,-24,-24,-19
-73,-29,43,51,-58,7,48,-39,-14,-39,-39,-29
-82,-39,43,61,-63,2,48,-53,-29,-58,-53,-43
-87,-48,39,68,-63,-4,53,-53,-29,-58,-53,-43
-92,-53,39,73,-65,-7,53,-53,-29,-58,-53,-43
-92,-58,34,75,-63,-12,53,-53,-34,-58,-63,-48
-92,-58,34,75,-63,-12,53,-53,-39,-63,-68,-48
-92,-58,34,75,-63,-12,53,-58,-39,-63,-68,-53
-92,-58,34,75,-63,-12,48,-63,-39,-63,-68,-58
-102,-73,29,87,-65,-21,48,-63,-43,-63,-73,-58
-107,-78,29,92,-68,-24,48,-63,-48,-63,-73,-58
-112,-78,34,95,-73,-21,48,-63,-48,-63,-73,-63
-117,-78,39,97,-78,-19,53,-63,-48,-63,-73,-63
-117,-78,39,97,-78,-19,53,-58,-48,-68,-73,-63
-107,-68,39,87,-73,-14,53,-58,-48,-73,-68,-58
-102,-68,34,85,-68,-17,58,-68,-48,-73,-78,-63
-102,-63,39,82,-70,-12,136,-29,-19,-53,-73,-63
-102,-48,53,75,-78,2,287,141,73,19,-4,-19
-78,-19,58,48,-68,19,361,317,165,107,73,24
-43,24,68,9,-56,46,312,375,219,165,131,68
48,97,48,-73,0,73,-19,248,195,185,170,131
185,190,4,-187,90,97,-492,78,156,214,219,195
307,268,-39,-287,173,114,-961,-112,112,244,287,278
478,346,-131,-412,305,107,-1483,-331,53,273,356,361
639,400,-239,-519,439,80,-1971,-541,-29,278,390,414
839,448,-390,-644,614,29,-2396,-629,-107,297,453,488
1039,488,-551,-763,795,-31,-2791,-819,-273,258,468,551
1205,546,-658,-875,932,-56,-3050,-1019,-424,214,478,595
1332,610,-722,-971,1027,-56,-3206,-1229,-512,195,512,658
1424,658,-766,-1041,1095,-53,-3259,-1483,-541,209,561,722
1468,707,-761,-1088,1115,-26,-3211,-1722,-541,258,634,800
1512,712,-800,-1112,1156,-43,-3176,-2005,-575,278,663,844
1566,736,-829,-1151,1198,-46,-3167,-2254,-600,263,683,878
1590,732,-858,-1161,1224,-63,-3152,-2498,-663,214,673,893
1581,697,-883,-1139,1232,-92,-3132,-2684,-746,161,644,883
1537,644,-893,-1090,1215,-124,-3045,-2801,-829,82,570,834
1483,575,-907,-1029,1195,-165,-2932,-2845,-883,-4,492,775
1449,492,-956,-971,1202,-231,-2815,-2879,-951,-97,409,717
1385,390,-995,-888,1190,-302,-2659,-2879,-1005,-175,322,639
1307,283,-1024,-795,1166,-370,-2459,-2830,-1073,-273,219,546
1234,204,-1029,-719,1132,-412,-2244,-2684,-1083,-341,131,468
1195,102,-1093,-649,1144,-495,-2064,-2479,-1112,-419,43,380
1166,14,-1151,-590,1159,-568,-1927,-2313,-1166,-517,-58,297
1112,-68,-1180,-522,1146,-624,-1781,-2108,-1185,-595,-146,209
1034,-126,-1161,-453,1098,-644,-1566,-1825,-1156,-639,-224,126
956,-141,-1098,-407,1027,-619,-1327,-1488,-1083,-639,-268,73
907,-141,-1049,-383,978,-595,-1137,-1210,-1005,-629,-292,39
844,-141,-985,-351,915,-563,-971,-1010,-912,-605,-307,0
732,-170,-902,-280,817,-536,-800,-888,-844,-614,-370,-92
614,-209,-824,-202,719,-517,-644,-780,-810,-629,-434,-180
512,-229,-741,-141,627,-485,-522,-673,-771,-639,-463,-239
429,-214,-644,-107,536,-429,-395,-575,-668,-595,-458,-239
292,-141,-434,-75,363,-287,-219,-400,-483,-458,-366,-195
151,-97,-248,-26,200,-173,-19,-180,-278,-292,-248,-151
9,-97,-107,43,58,-102,156,4,-126,-170,-161,-117
-107,-117,-9,112,-48,-63,278,141,-34,-112,-131,-107
-190,-131,58,161,-124,-36,370,229,39,-68,-112,-122
-224,-146,78,185,-151,-34,414,258,68,-48,-112,-131
-248,-151,97,200,-173,-26,434,287,73,-48,-112,-131
-253,-151,102,202,-178,-24,448,302,73,-48,-102,-131
-258,-141,117,200,-187,-12,468,312,87,-39,-92,-126
-268,-141,126,204,-197,-7,492,336,107,-29,-92,-126
-283,-146,136,214,-209,-4,517,351,112,-24,-92,-131
-292,-146,146,219,-219,0,531,370,117,-19,-92,-131
-297,-146,151,222,-224,2,556,375,126,-9,-92,-136
-297,-146,151,222,-224,2,580,390,136,-4,-92,-136
-297,-146,151,222,-224,2,600,414,146,0,-92,-136
-307,-136,170,222,-239,17,619,434,156,4,-87,-141
-317,-131,185,224,-251,26,639,448,165,9,-82,-141
-322,-131,190,226,-256,29,673,463,170,14,-82,-141
-326,-131,195,229,-261,31,707,488,185,19,-82,-146
-341,-141,200,241,-270,29,732,507,195,19,-87,-151
-351,-156,195,253,-273,19,761,522,204,14,-92,-151
-366,-156,209,261,-287,26,795,551,219,19,-92,-161
-380,-156,224,268,-302,34,834,575,234,29,-92,-170
-395,-156,239,275,-317,41,868,600,244,34,-92,-170
-405,-156,248,280,-326,46,912,624,268,34,-92,-175
-424,-161,263,292,-344,51,946,644,273,34,-97,-180
-444,-161,283,302,-363,61,990,663,278,34,-107,-190
-463,-161,302,312,-383,70,1034,692,297,39,-107,-190
-483,-165,317,324,-400,75,1078,722,312,48,-112,-190
-492,-161,331,326,-412,85,1117,756,331,53,-112,-200
-502,-156,346,329,-424,95,1161,785,356,63,-107,-204
-527,-156,370,341,-448,107,1205,810,361,63,-112,-214
-551,-156,395,353,-473,119,1249,844,380,63,-117,-224
-575,-165,409,370,-492,122,1288,878,390,58,-126,-234
-595,-165,429,380,-512,131,1327,912,414,58,-126,-239
-614,-165,448,390,-531,141,1366,951,419,58,-136,-248
-644,-175,468,409,-556,146,1400,971,424,58,-146,-263
-668,-185,483,427,-575,148,1429,1005,439,48,-161,-278
-702,-200,502,451,-602,151,1459,1044,448,39,-180,-292
-727,-200,527,463,-627,163,1478,1068,458,43,-185,-297
-741,-200,541,470,-641,170,1498,1102,473,53,-185,-302
-756,-200,556,478,-656,178,1503,1146,492,58,-185,-312
-761,-200,561,480,-661,180,1512,1185,507,63,-185,-317
-766,-200,566,483,-666,183,1512,1215,522,73,-180,-317
-771,-190,580,480,-675,195,1498,1249,541,92,-165,-312
-775,-180,595,478,-685,207,1493,1278,561,102,-151,-307
-775,-175,600,475,-688,212,1464,1312,585,122,-136,-302
-766,-161,605,463,-685,222,1439,1337,610,151,-112,-283
-756,-141,614,448,-685,236,1410,1361,629,185,-92,-263
-736,-122,614,429,-675,246,1371,1366,639,204,-68,-244
-712,-102,610,407,-661,253,1322,1366,649,224,-39,-224
-692,-87,605,390,-649,258,1259,1346,663,248,-9,-200
-673,-63,610,368,-641,273,1195,1317,668,268,9,-180
-644,-43,600,344,-622,278,1132,1268,663,287,29,-151
-605,-24,580,314,-592,278,1068,1224,658,302,58,-117
-566,0,566,283,-566,283,985,1161,644,312,78,-97
-536,14,551,261,-544,283,912,1083,619,322,97,-78
-492,29,522,231,-507,275,824,995,595,322,107,-58
-448,48,497,200,-473,273,751,907,570,312,117,-34
-405,58,463,173,-434,261,673,819,522,302,126,-9
-370,68,439,151,-405,253,590,727,473,287,131,0
-341,68,409,136,-375,239,512,629,429,268,122,4
-297,68,366,114,-331,217,444,536,385,244,112,14
-268,58,326,104,-297,192,375,458,341,214,97,14
-239,48,287,95,-263,168,312,380,287,195,92,19
-195,39,234,78,-214,136,248,297,244,165,82,19
-151,29,180,61,-165,104,209,239,204,136,78,19
-136,19,156,58,-146,87,170,185,165,107,63,14
-122,19,141,51,-131,80,131,136,126,87,48,14
-117,0,117,58,-117,58,102,92,102,73,39,9
-102,-9,92,56,-97,41,78,63,68,53,29,9
-78,-14,63,46,-70,24,58,34,48,34,19,9
-53,-14,39,34,-46,12,39,14,34,19,14,9
-53,-24,29,39,-41,2,29,-4,14,9,4,4
-43,-24,19,34,-31,-2,14,-19,9,0,0,0
-34,-14,19,24,-26,2,4,-29,0,-4,-4,0
-24,-9,14,17,-19,2,-4,-29,-4,-4,-4,0
-14,-9,4,12,-9,-2,-4,-34,-4,-4,-4,4
-9,-9,0,9,-4,-4,-4,-34,-4,-4,-9,9
-9,-9,0,9,-4,-4,-4,-39,-9,-4,-14,4
-9,-19,-9,14,0,-14,-9,-39,-14,-9,-14,4
-9,-24,-14,17,2,-19,-9,-48,-14,-14,-19,4
-9,-24,-14,17,2,-19,-9,-48,-19,-19,-19,0
-9,-24,-14,17,2,-19,-4,-48,-19,-19,-19,0
-9,-24,-14,17,2,-19,0,-53,-19,-24,-14,0
-9,-19,-9,14,0,-14,0,-58,-24,-24,-19,-4
-9,-14,-4,12,-2,-9,4,-63,-24,-24,-19,-4
-14,-19,-4,17,-4,-12,0,-68,-29,-29,-24,-9
-14,-19,-4,17,-4,-12,0,-68,-29,-29,-24,-9
-19,-19,0,19,-9,-9,0,-68,-39,-34,-29,-14
-24,-19,4,21,-14,-7,0,-68,-43,-34,-29,-24
-29,-29,0,29,-14,-14,4,-68,-43,-39,-34,-24
-39,-34,4,36,-21,-14,9,-73,-39,-39,-39,-29
-39,-34,4,36,-21,-14,14,-73,-43,-39,-39,-29
-43,-39,4,41,-24,-17,14,-68,-48,-34,-39,-29
-43,-39,4,41,-24,-17,24,-73,-43,-34,-39,-29
-48,-39,9,43,-29,-14,29,-78,-43,-34,-43,-29
-53,-43,9,48,-31,-17,29,-68,-39,-34,-43,-29
-58,-53,4,56,-31,-24,34,-68,-34,-39,-48,-34
-68,-58,9,63,-39,-24,39,-68,-29,-43,-48,-34
-73,-58,14,65,-43,-21,43,-63,-29,-48,-48,-39
-73,-58,14,65,-43,-21,43,-58,-29,-48,-48,-39
-82,-58,24,70,-53,-17,48,-53,-29,-43,-48,-39
-68,-43,24,56,-46,-9,48,-48,-24,-43,-48,-39
-58,-34,24,46,-41,-4,53,-43,-19,-43,-48,-39
-68,-43,24,56,-46,-9,58,-39,-19,-43,-48,-39
-78,-48,29,63,-53,-9,58,-39,-19,-43,-43,-39
-78,-48,29,63,-53,-9,63,-34,-19,-39,-43,-39
-78,-48,29,63,-53,-9,63,-29,-14,-34,-43,-43
-73,-48,24,61,-48,-12,63,-29,-14,-29,-43,-43
-73,-53,19,63,-46,-17,63,-24,-14,-29,-48,-43
-73,-48,24,61,-48,-12,63,-19,-14,-29,-48,-43
-73,-43,29,58,-51,-7,63,-19,-14,-29,-43,-43
-82,-43,39,63,-61,-2,68,-19,-14,-29,-43,-43
-82,-43,39,63,-61,-2,68,-19,-14,-29,-48,-43
-73,-43,29,58,-51,-7,68,-19,-14,-29,-48,-43
-68,-43,24,56,-46,-9,68,-19,-14,-29,-43,-43
-68,-39,29,53,-48,-4,63,-19,-14,-29,-43,-43
-68,-39,29,53,-48,-4,63,-19,-14,-29,-43,-43
-78,-43,34,61,-56,-4,63,-19,-14,-29,-48,-43
-82,-48,34,65,-58,-7,63,-24,-14,-29,-48,-43
-82,-53,29,68,-56,-12,58,-24,-19,-34,-48,-48
-82,-53,29,68,-56,-12,58,-24,-19,-34,-48,-48
-78,-48,29,63,-53,-9,63,-19,-24,-34,-53,-43
-68,-39,29,53,-48,-4,73,-19,-24,-29,-48,-39
-68,-29,39,48,-53,4,73,-14,-9,-19,-39,-29
-68,-19,48,43,-58,14,78,-9,-4,-19,-34,-24
-68,-14,53,41,-61,19,82,-9,4,-14,-29,-24
-58,0,58,29,-58,29,97,-4,9,-9,-29,-19
-48,4,53,21,-51,29,97,0,14,-4,-24,-19
-39,9,48,14,-43,29,97,9,19,0,-19,-19
-39,9,48,14,-43,29,97,9,19,0,-14,-19
-39,9,48,14,-43,29,97,9,19,0,-9,-19
-34,9,43,12,-39,26,87,14,24,4,-4,-9
-24,4,29,9,-26,17,73,14,19,4,0,-4
-19,4,24,7,-21,14,58,14,19,9,0,0
-14,-4,9,9,-12,2,43,14,14,0,-4,0
-14,-14,0,14,-7,-7,24,4,4,-4,-19,-9
-14,-19,-4,17,-4,-12,9,-19,-4,-19,-29,-24
-14,-19,-4,17,-4,-12,0,-34,-14,-24,-34,-24
-14,-14,0,14,-7,-7,-4,-43,-24,-29,-39,-24
-14,-14,0,14,-7,-7,-9,-58,-34,-34,-48,-34
-9,-19,-9,14,0,-14,-9,-58,-34,-39,-48,-34
-9,-29,-19,19,4,-24,-9,-63,-43,-43,-53,-34
-19,-34,-14,26,-2,-24,-9,-68,-48,-48,-53,-34
-24,-39,-14,31,-4,-26,-14,-68,-53,-53,-53,-34
-19,-39,-19,29,0,-29,-24,-68,-58,-58,-53,-34
-9,-29,-19,19,4,-24,-24,-68,-48,-53,-48,-34
-9,-24,-14,17,2,-19,-19,-68,-48,-53,-43,-29
-4,-14,-9,9,2,-12,-9,-58,-43,-43,-39,-29
-4,-9,-4,7,0,-7,4,-43,-34,-39,-34,-24
-9,-14,-4,12,-2,-9,19,-39,-29,-34,-34,-24
