I,II,III,aVR,aVL,aVF,V1,V2,V3,V4,V5,V6,
-19,-29,-9,24,-4,-19,9,-9,-9,-19,-19,-19
-24,-39,-14,31,-4,-26,9,-9,-9,-24,-19,-19
-29,-48,-19,39,-4,-34,9,-9,-9,-29,-19,-19
-29,-48,-19,39,-4,-34,4,-14,-14,-29,-24,-19
-29,-48,-19,39,-4,-34,0,-19,-19,-29,-29,-19
-29,-48,-19,39,-4,-34,0,-19,-19,-29,-34,-24
-29,-48,-19,39,-4,-34,0,-19,-19,-29,-39,-29
-29,-48,-19,39,-4,-34,0,-19,-19,-34,-39,-34
-29,-48,-19,39,-4,-34,0,-19,-19,-39,-39,-39
-39,-48,-9,43,-14,-29,0,-19,-24,-39,-43,-39
-48,-48,0,48,-24,-24,0,-19,-29,-39,-48,-39
-48,-48,0,48,-24,-24,0,-24,-34,-43,-48,-39
-48,-48,0,48,-24,-24,0,-29,-39,-48,-48,-39
-48,-53,-4,51,-21,-29,0,-29,-39,-48,-48,-39
-48,-58,-9,53,-19,-34,0,-29,-39,-48,-48,-39
-48,-63,-14,56,-17,-39,0,-29,-39,-48,-48,-43
-48,-68,-19,58,-14,-43,0,-29,-39,-48,-48,-48
-53,-73,-19,63,-17,-46,0,-34,-39,-48,-48,-48
-58,-78,-19,68,-19,-48,0,-39,-39,-48,-48,-48
-58,-78,-19,68,-19,-48,0,-39,-43,-53,-53,-48
-58,-78,-19,68,-19,-48,0,-39,-48,-58,-58,-48
-58,-73,-14,65,-21,-43,0,-39,-48,-58,-58,-53
-58,-68,-9,63,-24,-39,0,-39,-48,-58,-58,-58
-58,-68,-9,63,-24,-39,4,-39,-48,-58,-58,-58
-58,-68,-9,63,-24,-39,9,-39,-48,-58,-58,-58
-58,-73,-14,65,-21,-43,9,-39,-48,-58,-58,-58
-58,-78,-19,68,-19,-48,9,-39,-48,-58,-58,-58
-58,-78,-19,68,-19,-48,4,-39,-48,-58,-63,-58
-58,-78,-19,68,-19,-48,0,-39,-48,-58,-68,-58
-58,-78,-19,68,-19,-48,0,-39,-48,-58,-68,-58
-58,-78,-19,68,-19,-48,0,-39,-48,-58,-68,-58
-58,-78,-19,68,-19,-48,4,-39,-48,-58,-68,-58
-58,-78,-19,68,-19,-48,9,-39,-48,-58,-68,-58
-58,-78,-19,68,-19,-48,9,-43,-48,-58,-68,-58
-58,-78,-19,68,-19,-48,9,-48,-48,-58,-68,-58
-58,-78,-19,68,-19,-48,9,-48,-53,-58,-68,-58
-58,-78,-19,68,-19,-48,9,-48,-58,-58,-68,-58
-58,-78,-19,68,-19,-48,9,-48,-58,-58,-68,-58
-58,-78,-19,68,-19,-48,9,-48,-58,-58,-68,-58
-58,-73,-14,65,-21,-43,4,-48,-58,-58,-68,-58
-58,-68,-9,63,-24,-39,0,-48,-58,-58,-68,-58
-53,-68,-14,61,-19,-41,0,-43,-53,-58,-68,-58
-48,-68,-19,58,-14,-43,0,-39,-48,-58,-68,-58
-48,-63,-14,56,-17,-39,0,-34,-43,-53,-58,-53
-48,-58,-9,53,-19,-34,0,-29,-39,-48,-48,-48
-43,-48,-4,46,-19,-26,0,-29,-39,-43,-48,-48
-39,-39,0,39,-19,-19,0,-29,-39,-39,-48,-48
-34,-39,-4,36,-14,-21,0,-24,-29,-29,-39,-39
-19,-24,-4,21,-7,-14,0,-14,-14,-14,-24,-29
-9,-14,-4,12,-2,-9,0,-9,-4,0,-14,-19
4,9,4,-7,0,7,-4,-4,0,4,-4,-14
14,19,4,-17,4,12,-14,-9,0,9,0,-4
24,19,-4,-21,14,7,-29,-14,0,9,4,-4
39,24,-14,-31,26,4,-43,-19,0,9,4,4
43,24,-19,-34,31,2,-43,-19,0,9,4,9
53,24,-29,-39,41,-2,-48,-14,0,14,9,14
58,24,-34,-41,46,-4,-53,-14,-4,14,14,14
53,29,-24,-41,39,2,-53,-29,-24,-4,-4,0
53,34,-19,-43,36,7,-58,-48,-43,-19,-14,-9
53,39,-14,-46,34,12,-68,-58,-53,-29,-19,-19
53,39,-14,-46,34,12,-68,-63,-63,-39,-29,-19
63,39,-24,-51,43,7,-78,-63,-58,-39,-34,-19
73,34,-39,-53,56,-2,-78,-63,-53,-39,-34,-19
78,39,-39,-58,58,0,-68,-63,-53,-39,-29,-19
73,39,-34,-56,53,2,-63,-58,-48,-39,-29,-19
68,48,-19,-58,43,14,-58,-58,-48,-39,-29,-19
53,48,-4,-51,29,21,-43,-53,-43,-34,-29,-24
34,9,-24,-21,29,-7,-34,-39,-39,-29,-39,-24
19,-19,-39,0,29,-29,-19,-29,-39,-24,-43,-29
9,-24,-34,7,21,-29,-9,-29,-39,-34,-43,-39
-4,-24,-19,14,7,-21,-4,-34,-48,-43,-58,-48
-9,-29,-19,19,4,-24,-4,-39,-53,-48,-68,-58
-9,-34,-24,21,7,-29,0,-39,-53,-48,-68,-58
-4,-34,-29,19,12,-31,0,-39,-53,-48,-63,-63
-4,-29,-24,17,9,-26,0,-39,-53,-48,-58,-63
-4,-29,-24,17,9,-26,0,-34,-53,-43,-53,-63
-4,-34,-29,19,12,-31,4,-34,-48,-43,-53,-58
-4,-39,-34,21,14,-36,4,-29,-48,-43,-58,-58
-4,-43,-39,24,17,-41,4,-29,-43,-43,-63,-58
-4,-39,-34,21,14,-36,4,-29,-43,-43,-63,-58
-4,-39,-34,21,14,-36,9,-29,-39,-39,-63,-58
-4,-43,-39,24,17,-41,4,-24,-39,-39,-58,-58
-9,-43,-34,26,12,-39,4,-24,-39,-39,-58,-58
-9,-34,-24,21,7,-29,4,-19,-34,-43,-58,-58
-9,-29,-19,19,4,-24,4,-24,-29,-48,-58,-58
0,-43,-43,21,21,-43,9,-9,-19,-34,-53,-53
4,-58,-63,26,34,-61,19,14,0,-19,-43,-43
4,-68,-73,31,39,-70,58,63,43,14,-19,-39
-43,-58,-14,51,-14,-36,122,126,112,82,24,-29
-170,-4,165,87,-168,80,195,170,200,185,87,0
-283,82,366,100,-324,224,229,165,229,248,131,14
-297,175,473,61,-385,324,165,48,161,239,131,39
-200,253,453,-26,-326,353,-24,-258,-170,68,43,48
-43,297,341,-126,-192,319,-263,-634,-629,-200,-112,24
180,497,317,-339,-68,407,-517,-966,-956,-346,-151,131
385,868,483,-627,-48,675,-771,-1268,-1185,-361,-39,414
546,1044,497,-795,24,771,-976,-1561,-1449,-497,-92,468
434,941,507,-688,-36,724,-1068,-1961,-1898,-912,-488,165
78,746,668,-412,-295,707,-1034,-2303,-2322,-1332,-956,-253
-190,405,595,-107,-392,500,-883,-2366,-2542,-1693,-1424,-727
-263,195,458,34,-361,326,-780,-2254,-2449,-1761,-1551,-922
-287,141,429,73,-358,285,-780,-2181,-2347,-1708,-1517,-951
-195,161,356,17,-275,258,-805,-1927,-2074,-1537,-1342,-854
-136,185,322,-24,-229,253,-712,-1566,-1673,-1259,-1102,-668
-92,248,341,-78,-217,295,-585,-1190,-1229,-912,-785,-439
-73,229,302,-78,-187,265,-434,-849,-854,-610,-522,-283
-63,180,244,-58,-153,212,-287,-531,-522,-370,-322,-180
-63,73,136,-4,-100,104,-136,-268,-278,-244,-224,-151
-68,4,73,31,-70,39,-43,-107,-117,-141,-146,-107
-58,-14,43,36,-51,14,9,-19,-19,-43,-58,-63
-43,-48,-4,46,-19,-26,48,63,53,9,-24,-53
-43,-78,-34,61,-4,-56,73,97,78,9,-24,-53
-43,-97,-53,70,4,-75,82,112,92,9,-24,-58
-53,-97,-43,75,-4,-70,87,112,97,24,-9,-58
-58,-97,-39,78,-9,-68,87,117,102,34,0,-53
-58,-97,-39,78,-9,-68,97,131,107,39,0,-53
-58,-107,-48,82,-4,-78,102,136,117,39,4,-53
-53,-92,-39,73,-7,-65,102,141,126,48,9,-53
-48,-73,-24,61,-12,-48,102,141,126,53,9,-48
-48,-87,-39,68,-4,-63,102,146,131,53,19,-43
-43,-107,-63,75,9,-85,102,151,141,53,34,-39
-39,-107,-68,73,14,-87,107,156,151,63,39,-34
-34,-107,-73,70,19,-90,107,156,151,68,43,-34
-29,-97,-68,63,19,-82,107,161,156,68,39,-29
-24,-87,-63,56,19,-75,107,161,156,68,29,-29
-24,-82,-58,53,17,-70,107,170,161,73,34,-24
-24,-82,-58,53,17,-70,107,175,161,78,34,-19
-24,-78,-53,51,14,-65,107,175,170,87,39,-14
-19,-78,-58,48,19,-68,107,180,175,87,48,-14
-19,-68,-48,43,14,-58,107,180,180,92,58,-14
-14,-58,-43,36,14,-51,102,180,180,92,63,-9
-9,-48,-39,29,14,-43,102,185,180,97,68,-4
-9,-43,-34,26,12,-39,102,185,185,102,68,0
-9,-43,-34,26,12,-39,102,185,195,107,68,0
-4,-39,-34,21,14,-36,102,190,200,107,68,4
0,-39,-39,19,19,-39,102,195,200,107,82,14
4,-34,-39,14,21,-36,102,200,204,117,87,29
9,-29,-39,9,24,-34,102,200,214,122,97,34
14,-14,-29,0,21,-21,102,204,214,126,97,24
19,-14,-34,-2,26,-24,102,209,209,126,102,24
19,-14,-34,-2,26,-24,102,219,219,136,107,34
29,-9,-39,-9,34,-24,102,219,219,141,107,34
34,-9,-43,-12,39,-26,102,224,229,151,117,43
39,-9,-48,-14,43,-29,107,234,244,156,131,53
39,4,-34,-21,36,-14,107,244,248,165,136,63
43,9,-34,-26,39,-12,112,253,263,170,146,68
43,9,-34,-26,39,-12,117,258,268,180,151,78
43,0,-43,-21,43,-21,117,273,283,190,156,73
39,-4,-43,-17,41,-24,117,278,292,200,165,73
43,9,-34,-26,39,-12,112,292,297,204,175,82
48,9,-39,-29,43,-14,112,302,312,209,185,92
53,9,-43,-31,48,-17,112,317,331,224,190,102
53,19,-34,-36,43,-7,117,326,346,239,200,107
58,19,-39,-39,48,-9,122,346,361,253,209,112
63,14,-48,-39,56,-17,136,370,385,263,224,122
58,0,-58,-29,58,-29,136,385,405,283,239,131
58,-4,-63,-26,61,-34,136,405,424,297,248,136
58,9,-48,-34,53,-19,141,424,439,312,263,146
63,29,-34,-46,48,-2,141,439,458,322,273,151
68,29,-39,-48,53,-4,141,453,473,336,283,156
73,29,-43,-51,58,-7,151,468,488,336,292,165
82,29,-53,-56,68,-12,151,483,507,346,302,175
87,29,-58,-58,73,-14,151,497,527,361,317,180
92,34,-58,-63,75,-12,156,507,531,370,326,185
97,34,-63,-65,80,-14,161,522,546,385,336,190
102,34,-68,-68,85,-17,161,531,551,395,341,195
107,39,-68,-73,87,-14,161,541,561,400,346,200
112,43,-68,-78,90,-12,161,541,566,400,351,204
117,43,-73,-80,95,-14,156,541,566,400,351,204
117,43,-73,-80,95,-14,156,531,556,395,351,204
122,43,-78,-82,100,-17,141,512,541,380,336,204
126,43,-82,-85,104,-19,126,488,527,370,326,204
131,48,-82,-90,107,-17,117,473,507,356,317,195
141,48,-92,-95,117,-21,107,453,483,341,312,195
151,48,-102,-100,126,-26,97,424,458,326,302,200
156,48,-107,-102,131,-29,73,395,429,302,292,200
161,48,-112,-104,136,-31,58,366,395,283,287,195
165,68,-97,-117,131,-14,34,336,351,253,258,185
165,78,-87,-122,126,-4,19,297,317,229,239,175
170,78,-92,-124,131,-7,9,258,283,204,214,156
170,73,-97,-122,134,-12,0,229,244,180,185,141
161,63,-97,-112,129,-17,-4,209,214,156,161,122
156,53,-102,-104,129,-24,-14,180,190,136,136,97
141,43,-97,-92,119,-26,-14,151,165,117,122,87
131,43,-87,-87,109,-21,-19,126,141,102,102,73
122,43,-78,-82,100,-17,-19,112,117,82,82,63
112,43,-68,-78,90,-12,-19,97,97,68,68,53
102,43,-58,-73,80,-7,-19,78,78,58,58,39
92,39,-53,-65,73,-7,-19,58,63,43,48,29
82,34,-48,-58,65,-7,-14,53,48,34,43,29
82,34,-48,-58,65,-7,-14,53,39,29,43,29
73,29,-43,-51,58,-7,-14,43,39,24,39,29
73,29,-43,-51,58,-7,-14,39,34,19,34,24
68,24,-43,-46,56,-9,-14,39,34,19,34,14
63,24,-39,-43,51,-7,-9,34,29,19,34,9
63,24,-39,-43,51,-7,-4,34,24,14,29,9
63,24,-39,-43,51,-7,0,29,19,14,29,4
58,24,-34,-41,46,-4,0,29,19,19,29,4
58,24,-34,-41,46,-4,4,29,19,24,29,4
53,19,-34,-36,43,-7,4,29,19,24,29,4
53,19,-34,-36,43,-7,4,29,19,24,29,4
58,29,-29,-43,43,0,0,29,19,24,29,4
68,34,-34,-51,51,0,-4,29,19,24,29,4
68,39,-29,-53,48,4,-4,29,24,29,29,9
68,39,-29,-53,48,4,-4,29,29,34,34,14
73,39,-34,-56,53,2,-4,29,29,39,34,19
78,43,-34,-61,56,4,-4,29,29,39,39,19
78,48,-29,-63,53,9,-9,29,29,34,39,19
78,58,-19,-68,48,19,-9,29,29,29,39,19
78,58,-19,-68,48,19,-9,24,34,29,43,24
78,58,-19,-68,48,19,-9,24,34,29,48,34
78,58,-19,-68,48,19,-9,24,29,29,53,39
78,58,-19,-68,48,19,-9,24,29,29,53,39
78,53,-24,-65,51,14,-4,24,29,29,53,39
78,53,-24,-65,51,14,-4,24,29,29,53,39
82,58,-24,-70,53,17,-4,24,29,29,53,39
87,58,-29,-73,58,14,-4,19,29,29,53,39
87,53,-34,-70,61,9,-4,19,34,34,53,39
87,53,-34,-70,61,9,-4,19,34,39,48,39
92,53,-39,-73,65,7,-4,19,34,39,48,39
97,53,-43,-75,70,4,-4,14,34,34,48,39
97,63,-34,-80,65,14,-4,14,24,29,43,29
92,68,-24,-80,58,21,-4,14,19,24,34,24
87,58,-29,-73,58,14,0,14,14,19,29,24
82,48,-34,-65,58,7,4,14,14,19,24,19
82,39,-43,-61,63,-2,4,9,19,14,24,19
82,29,-53,-56,68,-12,4,9,19,9,24,14
82,43,-39,-63,61,2,0,9,19,9,24,19
87,63,-24,-75,56,19,-9,9,14,9,19,24
87,63,-24,-75,56,19,-9,4,14,4,19,19
82,63,-19,-73,51,21,-9,4,14,4,19,19
82,43,-39,-63,61,2,-4,4,9,4,14,14
82,19,-63,-51,73,-21,-4,4,9,4,14,14
82,29,-53,-56,68,-12,-4,4,9,0,9,14
82,43,-39,-63,61,2,-4,4,4,0,9,9
78,43,-34,-61,56,4,-4,0,4,0,9,4
68,43,-24,-56,46,9,0,0,4,0,4,4
63,34,-29,-48,46,2,4,0,0,0,4,0
58,19,-39,-39,48,-9,4,0,0,0,0,-4
53,19,-34,-36,43,-7,4,0,-4,-4,0,-4
53,14,-39,-34,46,-12,4,0,-9,-9,0,-4
58,14,-43,-36,51,-14,4,0,-9,-9,-4,-9
63,14,-48,-39,56,-17,4,-4,-14,-14,-9,-9
58,14,-43,-36,51,-14,4,-4,-14,-14,-14,-14
58,9,-48,-34,53,-19,4,-4,-14,-14,-14,-14
53,9,-43,-31,48,-17,9,-4,-14,-14,-14,-14
53,9,-43,-31,48,-17,9,-4,-14,-14,-19,-19
48,9,-39,-29,43,-14,9,-4,-14,-14,-19,-19
43,9,-34,-26,39,-12,9,-4,-14,-19,-14,-24
43,4,-39,-24,41,-17,4,-9,-14,-19,-14,-24
43,4,-39,-24,41,-17,4,-14,-14,-19,-14,-19
39,4,-34,-21,36,-14,4,-14,-14,-29,-19,-29
34,4,-29,-19,31,-12,0,-14,-19,-39,-24,-43
34,-4,-39,-14,36,-21,4,-14,-19,-29,-24,-34
34,-9,-43,-12,39,-26,14,-14,-19,-19,-24,-24
34,-9,-43,-12,39,-26,14,-9,-19,-19,-24,-24
34,-4,-39,-14,36,-21,14,-9,-14,-19,-29,-29
34,-9,-43,-12,39,-26,14,-4,-9,-14,-24,-29
39,-14,-53,-12,46,-34,19,0,-4,-14,-24,-34
39,-4,-43,-17,41,-24,19,0,0,-4,-14,-24
39,0,-39,-19,39,-19,19,0,0,0,-9,-19
39,14,-24,-26,31,-4,19,0,0,0,-9,-19
39,29,-9,-34,24,9,19,0,0,0,-9,-19
43,34,-9,-39,26,12,14,4,4,9,-4,-14
48,39,-9,-43,29,14,9,9,9,14,4,-9
58,48,-9,-53,34,19,4,14,19,24,14,-4
63,58,-4,-61,34,26,-4,14,19,29,19,4
73,48,-24,-61,48,12,-14,19,19,24,24,4
82,43,-39,-63,61,2,-24,19,19,19,24,9
82,34,-48,-58,65,-7,-24,19,19,19,24,9
87,24,-63,-56,75,-19,-24,24,19,19,24,14
82,34,-48,-58,65,-7,-29,24,14,14,24,19
73,43,-29,-58,51,7,-34,9,-4,-4,4,9
73,43,-29,-58,51,7,-39,-9,-19,-19,-4,0
73,43,-29,-58,51,7,-48,-19,-24,-29,-9,-9
73,34,-39,-53,56,-2,-39,-24,-34,-39,-24,-14
78,29,-48,-53,63,-9,-39,-24,-34,-39,-34,-19
82,24,-58,-53,70,-17,-39,-24,-34,-34,-34,-19
82,24,-58,-53,70,-17,-29,-24,-34,-29,-29,-19
73,19,-53,-46,63,-17,-24,-14,-29,-29,-29,-19
68,19,-48,-43,58,-14,-19,-9,-29,-29,-29,-19
53,9,-43,-31,48,-17,-4,-4,-24,-24,-29,-34
34,-14,-48,-9,41,-31,4,0,-19,-24,-39,-48
19,-29,-48,4,34,-39,19,-4,-24,-24,-39,-43
4,-43,-48,19,26,-46,29,-9,-29,-34,-34,-39
-14,-48,-34,31,9,-41,34,-14,-39,-43,-48,-48
-19,-53,-34,36,7,-43,34,-14,-43,-48,-58,-58
-19,-63,-43,41,12,-53,39,-9,-39,-48,-58,-63
-14,-63,-48,39,17,-56,39,-9,-34,-48,-58,-73
-14,-58,-43,36,14,-51,39,-14,-34,-53,-63,-73
-14,-58,-43,36,14,-51,39,-14,-34,-53,-63,-73
-14,-63,-48,39,17,-56,43,-14,-29,-53,-63,-68
-14,-63,-48,39,17,-56,43,-9,-29,-53,-63,-68
-14,-68,-53,41,19,-61,43,-4,-24,-48,-58,-63
-14,-68,-53,41,19,-61,43,0,-24,-43,-53,-58
-14,-68,-53,41,19,-61,48,0,-19,-39,-53,-58
-14,-73,-58,43,21,-65,48,4,-19,-39,-48,-58
-19,-68,-48,43,14,-58,53,4,-19,-39,-48,-58
-19,-63,-43,41,12,-53,53,14,-14,-39,-48,-58
-19,-68,-48,43,14,-58,53,19,-4,-39,-43,-58
-14,-68,-53,41,19,-61,58,39,9,-24,-34,-53
-29,-68,-39,48,4,-53,78,73,43,4,-14,-39
-58,-68,-9,63,-24,-39,126,117,102,53,19,-29
-122,-43,78,82,-100,17,190,151,161,122,63,-19
-229,24,253,102,-241,139,244,151,209,214,122,14
-278,122,400,78,-339,261,214,78,146,224,131,34
-234,219,453,7,-344,336,78,-131,-53,131,82,58
-102,341,444,-119,-273,392,-151,-492,-424,-53,4,97
78,444,366,-261,-143,405,-390,-829,-810,-268,-92,126
273,634,361,-453,-43,497,-624,-1146,-1117,-409,-146,209
444,902,458,-673,-7,680,-844,-1459,-1385,-512,-156,351
468,985,517,-727,-24,751,-980,-1751,-1673,-712,-312,273
219,790,570,-505,-175,680,-1005,-2113,-2103,-1137,-751,-97
-58,561,619,-251,-339,590,-946,-2308,-2386,-1483,-1137,-468
-229,326,556,-48,-392,441,-829,-2278,-2459,-1703,-1434,-785
-268,200,468,34,-368,334,-751,-2122,-2303,-1688,-1473,-888
-253,190,444,31,-348,317,-741,-1971,-2122,-1556,-1371,-854
-136,214,351,-39,-244,283,-751,-1673,-1800,-1332,-1146,-697
-102,219,322,-58,-212,270,-614,-1302,-1385,-1034,-888,-502
-82,253,336,-85,-209,295,-458,-946,-956,-707,-590,-312
-73,200,273,-63,-173,236,-307,-644,-644,-468,-395,-219
-68,146,214,-39,-141,180,-170,-366,-375,-273,-244,-151
-78,34,112,21,-95,73,-34,-151,-180,-170,-175,-136
-82,-34,48,58,-65,7,34,-39,-58,-92,-117,-97
-68,-53,14,61,-41,-19,68,29,14,-19,-39,-53
-63,-87,-24,75,-19,-56,102,97,73,24,-9,-43
-63,-107,-43,85,-9,-75,117,112,87,19,-14,-39
-63,-102,-39,82,-12,-70,117,122,97,14,-19,-48
-68,-87,-19,78,-24,-53,117,122,102,24,-9,-58
-68,-102,-34,85,-17,-68,117,126,112,34,0,-53
-68,-117,-48,92,-9,-82,126,141,117,39,0,-53
-73,-126,-53,100,-9,-90,131,146,126,39,4,-48
-78,-126,-48,102,-14,-87,131,151,136,48,9,-43
-78,-122,-43,100,-17,-82,131,151,136,53,9,-39
-78,-117,-39,97,-19,-78,131,156,136,53,9,-39
-73,-117,-43,95,-14,-80,126,156,136,48,9,-43
-73,-117,-43,95,-14,-80,126,156,141,53,9,-43
-73,-122,-48,97,-12,-85,126,156,141,58,14,-43
-73,-126,-53,100,-9,-90,126,161,146,58,19,-39
-73,-126,-53,100,-9,-90,126,161,146,58,19,-43
-73,-122,-48,97,-12,-85,126,165,151,63,24,-43
-73,-122,-48,97,-12,-85,126,161,151,63,24,-39
-73,-117,-43,95,-14,-80,126,156,161,68,29,-34
-73,-117,-43,95,-14,-80,122,161,161,68,39,-34
-78,-112,-34,95,-21,-73,117,161,161,73,43,-34
-73,-107,-34,90,-19,-70,112,161,161,73,39,-29
-73,-102,-29,87,-21,-65,112,165,161,78,39,-24
-78,-112,-34,95,-21,-73,112,170,165,87,39,-19
-78,-122,-43,100,-17,-82,112,175,175,97,39,-19
-73,-117,-43,95,-14,-80,112,180,180,97,39,-4
-68,-117,-48,92,-9,-82,112,185,180,97,53,4
-63,-112,-48,87,-7,-80,112,190,185,102,53,-4
-63,-112,-48,87,-7,-80,112,190,195,102,58,-4
-63,-102,-39,82,-12,-70,112,195,195,107,58,-4
-58,-102,-43,80,-7,-73,112,200,195,107,63,-4
-63,-92,-29,78,-17,-61,112,204,209,117,73,4
-63,-78,-14,70,-24,-46,112,204,209,122,78,4
-63,-92,-29,78,-17,-61,112,214,219,131,87,14
-58,-107,-48,82,-4,-78,117,224,234,136,102,19
-58,-92,-34,75,-12,-63,117,234,239,146,107,24
-53,-87,-34,70,-9,-61,117,244,253,151,117,29
-53,-87,-34,70,-9,-61,117,244,258,161,126,43
-48,-92,-43,70,-2,-68,117,258,273,170,136,48
-48,-92,-43,70,-2,-68,117,268,283,180,146,53
-43,-78,-34,61,-4,-56,117,283,292,190,156,63
-39,-78,-39,58,0,-58,122,287,307,200,165,73
-34,-78,-43,56,4,-61,122,302,322,214,175,82
-29,-63,-34,46,2,-48,126,317,336,229,190,87
-19,-58,-39,39,9,-48,131,336,351,244,200,92
-14,-63,-48,39,17,-56,146,361,375,253,209,102
-14,-63,-48,39,17,-56,146,375,395,273,219,112
-9,-53,-43,31,17,-48,141,395,414,287,229,117
-9,-48,-39,29,14,-43,146,414,429,302,244,126
-4,-39,-34,21,14,-36,151,424,448,307,253,131
0,-39,-39,19,19,-39,151,439,468,326,268,141
9,-39,-48,14,29,-43,161,453,488,336,283,156
19,-39,-58,9,39,-48,161,463,507,346,292,165
19,-34,-53,7,36,-43,156,478,522,361,307,170
24,-24,-48,0,36,-36,161,488,527,370,317,175
29,-24,-53,-2,41,-39,170,497,546,380,326,180
34,-24,-58,-4,46,-41,170,502,551,385,331,185
39,-19,-58,-9,48,-39,170,512,561,390,331,190
43,-14,-58,-14,51,-36,170,512,561,390,331,195
53,-9,-63,-21,58,-36,165,512,551,390,331,195
63,-4,-68,-29,65,-36,165,497,536,385,331,195
73,0,-73,-36,73,-36,151,473,522,375,317,195
78,4,-73,-41,75,-34,136,448,502,366,307,195
87,9,-78,-48,82,-34,126,434,483,346,297,185
102,9,-92,-56,97,-41,117,409,458,326,287,180
112,4,-107,-58,109,-51,112,385,439,312,278,185
117,0,-117,-58,117,-58,92,356,414,287,263,185
117,0,-117,-58,117,-58,82,322,375,263,253,175
117,9,-107,-63,112,-48,63,297,331,234,229,165
117,14,-102,-65,109,-43,53,258,297,209,209,156
122,19,-102,-70,112,-41,43,219,263,180,185,136
117,14,-102,-65,109,-43,29,195,224,156,156,122
102,14,-87,-58,95,-36,24,175,185,131,131,107
97,9,-87,-53,92,-39,14,146,156,112,112,87
87,-4,-92,-41,90,-48,14,122,136,97,102,78
82,-4,-87,-39,85,-46,14,97,112,82,82,63
73,-4,-78,-34,75,-41,14,82,87,63,63,53
63,-4,-68,-29,65,-36,9,68,73,48,48,43
53,-4,-58,-24,56,-31,9,48,58,39,39,29
43,-4,-48,-19,46,-26,9,29,43,24,29,19
34,-4,-39,-14,36,-21,9,19,29,14,14,9
29,-4,-34,-12,31,-19,4,19,19,9,4,0
14,-9,-24,-2,19,-17,4,14,14,4,0,0
14,-9,-24,-2,19,-17,4,9,4,-4,-4,-4
9,-14,-24,2,17,-19,4,9,4,-9,-4,-9
0,-14,-14,7,7,-14,4,4,0,-9,-4,-9
-4,-14,-9,9,2,-12,0,4,0,-14,-9,-9
-4,-19,-14,12,4,-17,0,0,0,-9,-9,-14
-9,-24,-14,17,2,-19,0,0,0,-4,-9,-14
-9,-24,-14,17,2,-19,0,0,0,-4,-9,-14
-14,-29,-14,21,0,-21,-4,0,0,-4,-9,-14
-14,-29,-14,21,0,-21,-4,0,0,-4,-9,-14
-14,-24,-9,19,-2,-17,-4,0,0,-4,-9,-14
-9,-24,-14,17,2,-19,0,0,0,-4,-9,-14
-9,-24,-14,17,2,-19,4,0,0,-4,-9,-14
-9,-34,-24,21,7,-29,4,4,4,0,0,-9
-9,-39,-29,24,9,-34,4,9,9,9,4,0
-9,-34,-24,21,7,-29,4,9,9,9,9,0
-9,-34,-24,21,7,-29,0,9,9,9,9,0
-9,-29,-19,19,4,-24,0,9,9,9,9,0
-9,-29,-19,19,4,-24,0,4,14,9,9,0
-9,-29,-19,19,4,-24,0,4,14,9,9,4
-9,-29,-19,19,4,-24,0,4,9,9,14,9
-9,-19,-9,14,0,-14,0,0,4,9,14,9
-9,-14,-4,12,-2,-9,0,-4,0,9,14,9
-9,-24,-14,17,2,-19,-4,-4,0,9,14,9
-9,-29,-19,19,4,-24,-4,-4,0,9,14,9
-14,-29,-14,21,0,-21,-4,-9,0,9,14,9
-19,-34,-14,26,-2,-24,-4,-9,0,9,14,9
-19,-34,-14,26,-2,-24,-4,-9,-4,4,4,9
-19,-34,-14,26,-2,-24,-4,-9,-4,0,0,9
-14,-29,-14,21,0,-21,-4,-14,-4,-4,0,9
-9,-24,-14,17,2,-19,-4,-14,-9,-4,0,4
-14,-29,-14,21,0,-21,-9,-14,-9,-4,-4,0
-14,-29,-14,21,0,-21,-14,-14,-14,-9,-9,-4
-14,-29,-14,21,0,-21,-14,-14,-14,-9,-14,-9
-14,-29,-14,21,0,-21,-14,-19,-14,-14,-14,-9
-14,-29,-14,21,0,-21,-14,-19,-19,-19,-9,-9
-19,-34,-14,26,-2,-24,-14,-19,-19,-19,-4,-4
-14,-34,-19,24,2,-26,-19,-19,-24,-19,-9,-4
-9,-34,-24,21,7,-29,-19,-24,-24,-24,-9,-9
-14,-34,-19,24,2,-26,-19,-24,-24,-24,-9,-9
-14,-34,-19,24,2,-26,-14,-24,-29,-24,-14,-14
-14,-39,-24,26,4,-31,-9,-24,-29,-24,-14,-14
-14,-43,-29,29,7,-36,-4,-24,-29,-29,-19,-14
-14,-39,-24,26,4,-31,-4,-24,-34,-29,-19,-19
-14,-34,-19,24,2,-26,-9,-29,-34,-34,-19,-24
-19,-34,-14,26,-2,-24,-9,-24,-34,-34,-24,-24
-19,-34,-14,26,-2,-24,-4,-19,-39,-29,-24,-24
-14,-39,-24,26,4,-31,-4,-19,-39,-29,-29,-24
-14,-39,-24,26,4,-31,-4,-19,-39,-29,-29,-24
-14,-43,-29,29,7,-36,-4,-19,-39,-29,-39,-24
-14,-43,-29,29,7,-36,-4,-19,-39,-29,-48,-29
-14,-53,-39,34,12,-46,-4,-24,-43,-34,-34,-19
-19,-63,-43,41,12,-53,-4,-24,-43,-34,-24,-14
-14,-53,-39,34,12,-46,-4,-24,-43,-34,-24,-24
-14,-39,-24,26,4,-31,0,-24,-43,-34,-24,-34
-14,-39,-24,26,4,-31,0,-24,-43,-39,-39,-43
-14,-39,-24,26,4,-31,0,-24,-43,-43,-53,-48
-14,-48,-34,31,9,-41,0,-24,-39,-48,-53,-53
-14,-63,-48,39,17,-56,0,-24,-34,-48,-53,-53
-14,-53,-39,34,12,-46,4,-24,-34,-48,-48,-48
-14,-43,-29,29,7,-36,4,-24,-34,-48,-43,-48
-14,-34,-19,24,2,-26,4,-19,-29,-39,-34,-43
-14,-29,-14,21,0,-21,4,-19,-29,-34,-29,-39
-9,-34,-24,21,7,-29,4,-14,-19,-24,-24,-34
-9,-39,-29,24,9,-34,9,-9,-9,-19,-19,-29
-9,-29,-19,19,4,-24,9,-9,-9,-19,-19,-29
-9,-19,-9,14,0,-14,9,-9,-9,-19,-19,-29
-4,-9,-4,7,0,-7,14,-4,0,-4,-14,-19
4,0,-4,-2,4,-2,14,0,9,4,0,-9
19,9,-9,-14,14,0,14,4,19,14,9,-4
34,19,-14,-26,24,2,4,4,19,19,19,4
43,24,-19,-34,31,2,-9,4,19,19,24,4
53,34,-19,-43,36,7,-24,0,19,19,24,9
53,34,-19,-43,36,7,-29,0,19,19,24,9
58,34,-24,-46,41,4,-34,4,19,19,24,14
58,29,-29,-43,43,0,-34,9,14,19,24,19
53,24,-29,-39,41,-2,-34,0,-4,4,4,9
53,24,-29,-39,41,-2,-39,-19,-24,-9,-4,0
53,24,-29,-39,41,-2,-48,-29,-34,-19,-9,-9
53,29,-24,-41,39,2,-43,-34,-43,-34,-19,-9
58,39,-19,-48,39,9,-48,-34,-43,-39,-24,-9
63,24,-39,-43,51,-7,-48,-34,-43,-39,-29,-9
63,14,-48,-39,56,-17,-39,-34,-43,-39,-29,-9
58,9,-48,-34,53,-19,-39,-29,-39,-39,-29,-9
58,9,-48,-34,53,-19,-39,-29,-39,-39,-29,-9
43,4,-39,-24,41,-17,-24,-24,-34,-34,-24,-14
24,-14,-39,-4,31,-26,-14,-19,-29,-34,-29,-19
9,-29,-39,9,24,-34,0,-19,-29,-34,-34,-29
-4,-43,-39,24,17,-41,9,-19,-29,-43,-34,-39
-29,-58,-29,43,0,-43,14,-24,-39,-53,-53,-53
-39,-73,-34,56,-2,-53,14,-24,-43,-58,-68,-68
-39,-82,-43,61,2,-63,19,-19,-43,-63,-68,-68
-34,-82,-48,58,7,-65,19,-19,-43,-68,-68,-73
-34,-78,-43,56,4,-61,19,-19,-43,-68,-68,-73
-34,-78,-43,56,4,-61,19,-14,-43,-63,-63,-73
-34,-82,-48,58,7,-65,24,-14,-39,-63,-63,-68
-34,-82,-48,58,7,-65,24,-9,-39,-63,-63,-68
-34,-82,-48,58,7,-65,24,-9,-34,-58,-63,-68
-34,-78,-43,56,4,-61,24,-9,-34,-53,-63,-68
-34,-78,-43,56,4,-61,29,-14,-29,-48,-63,-68
-34,-82,-48,58,7,-65,29,-14,-29,-48,-58,-68
-39,-82,-43,61,2,-63,34,-14,-29,-48,-58,-68
-39,-82,-43,61,2,-63,34,-4,-24,-48,-58,-68
-39,-87,-48,63,4,-68,34,-4,-24,-53,-58,-68
-34,-87,-53,61,9,-70,39,9,-19,-43,-53,-63
-19,-92,-73,56,26,-82,39,24,-14,-43,-58,-58
-19,-97,-78,58,29,-87,68,48,14,-24,-48,-58
-68,-78,-9,73,-29,-43,131,97,82,43,-4,-53
-161,-14,146,87,-153,65,185,112,141,136,53,-24
-302,82,385,109,-344,234,253,151,224,248,122,-4
-351,180,531,85,-441,356,214,53,170,258,131,19
-268,244,512,12,-390,378,14,-278,-209,48,24,29
-136,287,424,-75,-280,356,-195,-585,-605,-190,-102,29
102,507,405,-305,-151,456,-439,-844,-883,-297,-87,185
317,805,488,-561,-85,646,-668,-1098,-1122,-366,-29,400
619,980,361,-800,129,671,-912,-1351,-1361,-517,-78,468
649,878,229,-763,209,553,-1044,-1673,-1742,-893,-409,244
253,610,356,-431,-51,483,-1010,-2093,-2288,-1429,-995,-273
-34,336,370,-151,-202,353,-917,-2288,-2625,-1839,-1493,-736
-136,151,287,-7,-212,219,-829,-2239,-2552,-1908,-1629,-932
-185,82,268,51,-226,175,-810,-2196,-2454,-1859,-1625,-990
-58,131,190,-36,-124,161,-878,-1942,-2181,-1668,-1429,-873
-14,161,175,-73,-95,168,-800,-1615,-1815,-1405,-1200,-717
4,258,253,-131,-124,256,-644,-1239,-1312,-1000,-829,-453
14,268,253,-141,-119,261,-492,-917,-927,-683,-561,-287
4,219,214,-112,-104,217,-331,-590,-600,-439,-361,-200
-19,112,131,-46,-75,122,-170,-326,-346,-287,-244,-165
-43,24,68,9,-56,46,-58,-170,-170,-175,-170,-126
-48,-14,34,31,-41,9,19,-58,-43,-68,-78,-82
-43,-48,-4,46,-19,-26,63,43,34,0,-29,-63
-43,-68,-24,56,-9,-46,87,92,68,19,-14,-48
-43,-82,-39,63,-2,-61,92,102,92,19,-14,-48
-48,-87,-39,68,-4,-63,97,102,112,34,0,-48
-48,-87,-39,68,-4,-63,97,107,122,43,14,-43
-48,-87,-39,68,-4,-63,107,122,126,48,19,-43
-48,-97,-48,73,0,-73,112,131,136,48,24,-39
-48,-97,-48,73,0,-73,112,141,146,58,29,-34
-48,-92,-43,70,-2,-68,112,141,146,63,29,-29
-48,-87,-39,68,-4,-63,112,146,146,63,29,-29
-43,-87,-43,65,0,-65,112,151,151,68,34,-29
-43,-87,-43,65,0,-65,117,156,161,82,39,-24
-39,-82,-43,61,2,-63,122,156,161,87,43,-24
-34,-78,-43,56,4,-61,126,161,165,87,48,-19
-34,-78,-43,56,4,-61,126,161,165,87,48,-19
-34,-73,-39,53,2,-56,126,165,170,92,53,-14
-34,-73,-39,53,2,-56,126,165,170,97,53,-9
-34,-68,-34,51,0,-51,126,165,180,107,58,-4
-29,-68,-39,48,4,-53,126,170,185,107,68,-4
-29,-63,-34,46,2,-48,126,170,190,112,73,-4
-24,-58,-34,41,4,-46,122,175,195,112,73,0
-24,-53,-29,39,2,-41,122,185,200,117,78,4
-29,-53,-24,41,-2,-39,122,185,204,126,78,14
-29,-53,-24,41,-2,-39,122,185,214,136,78,19
-24,-48,-24,36,0,-36,122,185,219,136,78,24
-19,-48,-29,34,4,-39,122,185,219,136,92,24
-14,-39,-24,26,4,-31,122,190,224,146,97,29
-14,-34,-19,24,2,-26,122,190,234,151,107,43
-14,-24,-9,19,-2,-17,122,195,234,156,112,43
-9,-24,-14,17,2,-19,122,200,234,156,122,43
-9,-24,-14,17,2,-19,122,209,253,165,126,53
-4,-19,-14,12,4,-17,122,214,258,170,126,53
-4,-19,-14,12,4,-17,122,224,268,180,136,63
0,-19,-19,9,9,-19,126,234,283,185,151,68
0,-9,-9,4,4,-9,131,244,287,195,156,73
4,-9,-14,2,9,-12,136,253,302,200,165,78
4,-9,-14,2,9,-12,136,258,307,209,170,87
9,-14,-24,2,17,-19,136,278,322,219,175,87
9,-14,-24,2,17,-19,136,287,331,229,185,87
14,0,-14,-7,14,-7,136,302,341,239,195,92
19,0,-19,-9,19,-9,141,312,361,253,209,102
24,0,-24,-12,24,-12,141,331,380,273,224,112
24,9,-14,-17,19,-2,146,346,395,292,239,122
29,9,-19,-19,24,-4,151,366,409,312,248,131
34,4,-29,-19,31,-12,165,390,434,322,268,141
34,4,-29,-19,31,-12,165,405,453,341,287,151
39,14,-24,-26,31,-4,161,424,478,356,297,156
39,19,-19,-29,29,0,165,444,497,370,312,165
43,29,-14,-36,29,7,170,463,517,380,322,170
48,29,-19,-39,34,4,170,488,536,405,336,180
53,29,-24,-41,39,2,185,507,556,414,351,195
58,29,-29,-43,43,0,190,522,575,424,361,204
53,29,-24,-41,39,2,190,541,600,444,380,214
53,34,-19,-43,36,7,200,556,614,458,395,224
58,34,-24,-46,41,4,209,570,639,473,405,229
63,34,-29,-48,46,2,209,580,649,483,409,234
68,43,-24,-56,46,9,209,590,658,488,414,239
73,53,-19,-63,46,17,209,590,658,488,419,244
73,53,-19,-63,46,17,204,590,653,492,424,244
73,53,-19,-63,46,17,204,575,644,492,429,244
82,53,-29,-68,56,12,190,551,629,483,414,248
87,53,-34,-70,61,9,175,527,610,473,405,253
92,53,-39,-73,65,7,165,517,590,453,395,244
102,48,-53,-75,78,-2,156,497,566,434,385,239
112,48,-63,-80,87,-7,146,463,536,414,370,239
117,48,-68,-82,92,-9,122,424,502,385,351,234
126,48,-78,-87,102,-14,107,385,458,351,331,224
136,58,-78,-97,107,-9,82,356,409,312,297,214
136,58,-78,-97,107,-9,68,317,370,287,278,204
141,58,-82,-100,112,-12,53,278,331,258,253,185
146,53,-92,-100,119,-19,39,248,292,229,224,170
141,53,-87,-97,114,-17,34,224,253,200,200,156
141,53,-87,-97,114,-17,19,185,214,165,165,131
136,43,-92,-90,114,-24,14,151,185,136,141,117
131,43,-87,-87,109,-21,9,126,161,122,122,102
122,43,-78,-82,100,-17,4,112,136,102,102,92
112,48,-63,-80,87,-7,0,97,117,87,87,82
102,53,-48,-78,75,2,0,78,97,78,78,68
92,48,-43,-70,68,2,0,58,78,58,68,58
82,43,-39,-63,61,2,0,48,58,43,53,48
82,39,-43,-61,63,-2,-4,39,48,39,43,34
73,29,-43,-51,58,-7,-4,24,43,34,39,29
73,29,-43,-51,58,-7,-4,19,34,24,29,24
68,24,-43,-46,56,-9,-4,19,34,19,24,19
63,24,-39,-43,51,-7,0,14,24,19,24,19
63,24,-39,-43,51,-7,0,14,19,14,19,19
63,24,-39,-43,51,-7,0,9,19,14,19,14
58,24,-34,-41,46,-4,0,9,19,14,19,14
58,24,-34,-41,46,-4,4,9,19,14,19,14
53,19,-34,-36,43,-7,4,9,19,14,19,14
53,19,-34,-36,43,-7,4,9,19,19,19,14
53,24,-29,-39,41,-2,4,9,19,24,19,14
58,24,-34,-41,46,-4,4,9,19,24,19,14
58,24,-34,-41,46,-4,4,9,19,24,19,14
58,24,-34,-41,46,-4,4,4,19,19,24,14
58,29,-29,-43,43,0,4,0,19,19,24,19
63,34,-29,-48,46,2,4,0,19,19,29,19
68,34,-34,-51,51,0,0,0,19,19,29,19
68,39,-29,-53,48,4,0,4,19,19,29,19
68,39,-29,-53,48,4,0,4,24,19,29,19
68,39,-29,-53,48,4,0,4,24,19,29,24
68,39,-29,-53,48,4,0,4,19,19,34,29
68,39,-29,-53,48,4,0,4,19,19,34,29
68,34,-34,-51,51,0,0,4,19,19,34,29
68,34,-34,-51,51,0,-4,4,19,19,34,29
68,39,-29,-53,48,4,-4,4,19,19,34,29
68,39,-29,-53,48,4,-4,0,19,19,34,29
68,34,-34,-51,51,0,-4,0,19,19,34,29
68,24,-43,-46,56,-9,-4,0,14,19,29,29
68,14,-53,-41,61,-19,-4,0,14,19,29,29
68,14,-53,-41,61,-19,-4,-4,14,14,29,29
68,14,-53,-41,61,-19,-4,-4,9,14,29,24
58,14,-43,-36,51,-14,-4,-4,9,14,24,24
53,19,-34,-36,43,-7,-4,-4,4,9,19,24
53,19,-34,-36,43,-7,-9,-4,4,9,14,19
53,19,-34,-36,43,-7,-14,-9,4,4,14,19
48,19,-29,-34,39,-4,-14,-9,0,0,14,14
39,14,-24,-26,31,-4,-14,-9,0,0,14,14
39,9,-29,-24,34,-9,-19,-9,-4,0,9,14
39,4,-34,-21,36,-14,-19,-14,-4,-4,9,9
34,0,-34,-17,34,-17,-19,-14,-4,-4,9,9
34,-4,-39,-14,36,-21,-14,-14,-9,-4,4,4
34,-9,-43,-12,39,-26,-14,-19,-14,-4,4,0
34,-14,-48,-9,41,-31,-14,-24,-19,-9,0,-4
29,-14,-43,-7,36,-29,-14,-24,-24,-9,0,-9
24,-14,-39,-4,31,-26,-19,-29,-24,-14,0,-14
14,-19,-34,2,24,-26,-19,-29,-24,-19,-4,-14
9,-24,-34,7,21,-29,-14,-29,-29,-19,-4,-14
9,-29,-39,9,24,-34,-14,-29,-29,-19,-9,-14
4,-29,-34,12,19,-31,-14,-29,-29,-19,-9,-14
0,-39,-39,19,19,-39,-19,-29,-29,-24,-14,-14
-4,-43,-39,24,17,-41,-24,-29,-29,-29,-19,-19
-4,-43,-39,24,17,-41,-24,-34,-34,-34,-19,-19
-9,-43,-34,26,12,-39,-24,-34,-34,-34,-24,-24
-9,-53,-43,31,17,-48,-24,-34,-34,-34,-24,-24
-14,-58,-43,36,14,-51,-19,-34,-34,-34,-24,-24
-19,-63,-43,41,12,-53,-24,-34,-34,-34,-29,-29
-24,-68,-43,46,9,-56,-29,-34,-34,-34,-34,-29
-24,-68,-43,46,9,-56,-29,-34,-39,-39,-34,-34
-24,-73,-48,48,12,-61,-29,-34,-43,-39,-34,-34
-24,-73,-48,48,12,-61,-24,-34,-43,-39,-34,-29
-24,-73,-48,48,12,-61,-24,-34,-43,-39,-34,-29
-34,-73,-39,53,2,-56,-29,-34,-48,-39,-34,-39
-43,-78,-34,61,-4,-56,-29,-34,-48,-39,-34,-43
-43,-82,-39,63,-2,-61,-24,-39,-48,-39,-34,-43
-43,-87,-43,65,0,-65,-24,-39,-48,-39,-34,-43
-43,-82,-39,63,-2,-61,-24,-39,-53,-43,-43,-48
-48,-82,-34,65,-7,-58,-24,-43,-53,-53,-48,-48
-53,-87,-34,70,-9,-61,-29,-43,-53,-58,-48,-53
-53,-92,-39,73,-7,-65,-34,-43,-53,-53,-43,-58
-48,-92,-43,70,-2,-68,-34,-39,-53,-53,-43,-53
-48,-87,-39,68,-4,-63,-34,-39,-48,-53,-48,-48
-43,-78,-34,61,-4,-56,-29,-34,-39,-43,-48,-43
-39,-68,-29,53,-4,-48,-29,-29,-29,-39,-48,-39
-39,-68,-29,53,-4,-48,-29,-29,-29,-39,-39,-39
-39,-68,-29,53,-4,-48,-29,-29,-29,-39,-29,-39
-39,-63,-24,51,-7,-43,-29,-29,-24,-29,-29,-34
-29,-53,-24,41,-2,-39,-24,-19,-9,-14,-19,-19
-24,-48,-24,36,0,-36,-24,-14,4,0,-9,-9
-14,-39,-24,26,4,-31,-24,-4,19,4,4,4
-9,-29,-19,19,4,-24,-34,-4,9,9,9,14
-4,-29,-24,17,9,-26,-48,-4,0,9,14,14
4,-24,-29,9,17,-26,-63,-9,0,14,14,14
4,-24,-29,9,17,-26,-63,-9,0,19,14,9
9,-24,-34,7,21,-29,-63,-4,4,19,14,14
9,-24,-34,7,21,-29,-63,-4,4,14,14,14
4,-24,-29,9,17,-26,-63,-19,-14,-4,-4,0
4,-24,-29,9,17,-26,-68,-39,-34,-19,-14,-9
4,-24,-29,9,17,-26,-78,-48,-43,-29,-19,-19
4,-29,-34,12,19,-31,-78,-53,-53,-39,-29,-19
9,-24,-34,7,21,-29,-87,-53,-53,-39,-34,-19
14,-24,-39,4,26,-31,-87,-53,-53,-39,-34,-19
19,-24,-43,2,31,-34,-82,-53,-53,-39,-29,-19
14,-29,-43,7,29,-36,-82,-48,-48,-39,-29,-19
9,-29,-39,9,24,-34,-78,-48,-48,-43,-29,-19
-4,-39,-34,21,14,-36,-63,-43,-43,-43,-29,-24
-24,-63,-39,43,7,-51,-53,-39,-39,-43,-39,-29
-39,-78,-39,58,0,-58,-39,-39,-39,-43,-43,-39
-53,-92,-39,73,-7,-65,-29,-39,-43,-53,-43,-48
-73,-102,-29,87,-21,-65,-24,-43,-58,-63,-58,-58
-82,-112,-29,97,-26,-70,-24,-43,-63,-68,-73,-68
-87,-122,-34,104,-26,-78,-19,-39,-63,-68,-78,-68
-82,-126,-43,104,-19,-85,-19,-39,-63,-68,-78,-73
-82,-126,-43,104,-19,-85,-19,-39,-63,-68,-78,-73
-87,-126,-39,107,-24,-82,-19,-34,-63,-63,-68,-73
-92,-131,-39,112,-26,-85,-14,-34,-58,-63,-63,-68
-92,-131,-39,112,-26,-85,-14,-34,-58,-63,-63,-68
-92,-131,-39,112,-26,-85,-14,-39,-53,-63,-63,-68
-92,-126,-34,109,-29,-80,-14,-39,-53,-63,-63,-68
-92,-126,-34,109,-29,-80,-9,-39,-48,-58,-63,-68
-97,-131,-34,114,-31,-82,-9,-34,-48,-58,-58,-68
-107,-131,-24,119,-41,-78,-4,-34,-48,-58,-58,-68
-107,-131,-24,119,-41,-78,-4,-24,-48,-58,-63,-68
-107,-136,-29,122,-39,-82,-4,-24,-48,-58,-68,-68
-97,-136,-39,117,-29,-87,-4,-14,-39,-48,-63,-63
-92,-136,-43,114,-24,-90,0,4,-19,-39,-53,-53
-107,-136,-29,122,-39,-82,39,39,24,-4,-34,-53
-170,-117,53,143,-112,-31,102,87,92,63,4,-48
-283,-53,229,168,-256,87,165,107,151,165,63,-14
-380,43,424,168,-402,234,190,78,151,229,102,4
-395,141,536,126,-466,339,102,-92,14,170,82,29
-297,224,522,36,-409,373,-112,-453,-385,-48,-24,39
-151,263,414,-56,-283,339,-322,-761,-800,-292,-161,29
63,458,395,-261,-165,427,-546,-1024,-1083,-414,-180,151
322,746,424,-534,-51,585,-775,-1263,-1293,-492,-126,361
536,839,302,-688,117,570,-956,-1493,-1537,-692,-239,341
453,644,190,-549,131,417,-1039,-1864,-1995,-1156,-702,-29
126,356,229,-241,-51,292,-995,-2176,-2430,-1625,-1239,-517
-141,68,209,36,-175,139,-893,-2293,-2664,-1961,-1668,-946
-214,-87,126,151,-170,19,-839,-2235,-2586,-2005,-1756,-1098
-214,-102,112,158,-163,4,-854,-2142,-2435,-1883,-1664,-1068
-97,-43,53,70,-75,4,-893,-1869,-2113,-1644,-1429,-912
-73,29,102,21,-87,65,-771,-1507,-1673,-1317,-1137,-692
-63,141,204,-39,-134,173,-614,-1132,-1190,-922,-766,-429
-68,141,209,-36,-139,175,-473,-824,-844,-629,-517,-283
-82,112,195,-14,-139,153,-336,-541,-541,-400,-331,-190
-107,4,112,51,-109,58,-175,-287,-302,-273,-239,-165
-136,-63,73,100,-104,4,-73,-136,-146,-170,-165,-126
-136,-78,58,107,-97,-9,-19,-43,-43,-63,-63,-73
-131,-107,24,119,-78,-41,19,43,34,0,-14,-53
-131,-126,4,129,-68,-61,43,78,58,4,-14,-43
-131,-136,-4,134,-63,-70,53,92,73,9,-14,-39
-131,-136,-4,134,-63,-70,58,92,87,24,0,-39
-126,-136,-9,131,-58,-73,58,97,102,34,9,-34
-126,-136,-9,131,-58,-73,68,112,107,39,9,-34
-126,-146,-19,136,-53,-82,73,117,117,39,14,-34
-126,-146,-19,136,-53,-82,73,122,126,48,19,-34
-126,-141,-14,134,-56,-78,73,122,126,53,19,-29
-131,-136,-4,134,-63,-70,73,126,126,53,19,-29
-131,-136,-4,134,-63,-70,73,131,131,53,24,-29
-131,-136,-4,134,-63,-70,78,136,141,63,29,-24
-131,-136,-4,134,-63,-70,78,136,141,68,34,-24
-126,-131,-4,129,-61,-68,78,141,146,68,43,-19
-122,-126,-4,124,-58,-65,78,141,146,68,48,-19
-122,-122,0,122,-61,-61,78,146,151,73,53,-14
-122,-122,0,122,-61,-61,78,146,151,78,53,-9
-122,-117,4,119,-63,-56,78,141,161,87,58,-4
-117,-117,0,117,-58,-58,78,141,165,87,68,-4
-117,-107,9,112,-63,-48,73,141,165,97,73,-4
-112,-97,14,104,-63,-41,63,141,161,102,73,0
-112,-92,19,102,-65,-36,63,146,161,107,78,4
-117,-92,24,104,-70,-34,63,146,165,112,78,9
-117,-92,24,104,-70,-34,63,146,180,117,78,9
-112,-87,24,100,-68,-31,63,151,190,117,78,14
-107,-87,19,97,-63,-34,63,156,190,117,92,14
-102,-82,19,92,-61,-31,63,161,195,126,97,19
-102,-87,14,95,-58,-36,68,165,209,136,107,39
-102,-82,19,92,-61,-31,73,175,214,146,107,43
-97,-82,14,90,-56,-34,73,180,214,146,117,43
-97,-82,14,90,-56,-34,73,190,229,156,126,53
-87,-78,9,82,-48,-34,78,195,234,161,126,53
-82,-78,4,80,-43,-36,82,204,248,170,136,63
-78,-78,0,78,-39,-39,87,219,263,175,146,68
-78,-63,14,70,-46,-24,87,234,268,185,146,73
-73,-53,19,63,-46,-17,87,244,283,190,156,78
-73,-48,24,61,-48,-12,87,248,287,200,161,87
-63,-53,9,58,-36,-21,92,268,307,209,170,87
-58,-53,4,56,-31,-24,97,278,322,219,185,92
-48,-34,14,41,-31,-9,102,297,336,234,195,102
-39,-29,9,34,-24,-9,112,312,361,248,204,112
-34,-29,4,31,-19,-12,112,336,380,263,214,122
-34,-19,14,26,-24,-2,117,356,395,278,229,126
-29,-14,14,21,-21,0,122,375,414,297,244,131
-24,-14,9,19,-17,-2,136,400,444,312,263,141
-19,-4,14,12,-17,4,136,414,463,331,278,156
-9,14,24,-2,-17,19,136,434,483,346,287,165
-9,9,19,0,-14,14,146,463,502,361,302,175
-4,9,14,-2,-9,12,151,488,527,370,312,180
0,9,9,-4,-4,9,151,507,551,395,326,190
4,9,4,-7,0,7,161,527,575,405,341,204
9,14,4,-12,2,9,161,546,595,414,351,214
9,19,9,-14,0,14,161,566,614,429,366,219
14,24,9,-19,2,17,165,575,624,439,375,224
19,24,4,-21,7,14,170,590,644,453,385,229
19,24,4,-21,7,14,170,595,649,463,390,229
19,29,9,-24,4,19,170,600,658,468,395,229
24,29,4,-26,9,17,170,600,658,463,395,234
29,24,-4,-26,17,9,165,600,653,458,390,234
29,19,-9,-24,19,4,165,585,639,453,390,234
34,14,-19,-24,26,-2,151,561,619,439,375,234
39,14,-24,-26,31,-4,136,531,590,419,366,234
43,19,-24,-31,34,-2,126,512,556,395,356,224
58,19,-39,-39,48,-9,117,488,527,375,341,214
73,19,-53,-46,63,-17,107,453,497,356,322,209
78,19,-58,-48,68,-19,82,414,458,322,292,200
82,19,-63,-51,73,-21,68,375,414,292,268,185
87,29,-58,-58,73,-14,48,346,370,263,239,175
87,29,-58,-58,73,-14,39,307,336,239,219,165
92,24,-68,-58,80,-21,24,268,297,209,195,146
92,14,-78,-53,85,-31,9,239,253,180,165,131
87,14,-73,-51,80,-29,0,209,214,146,141,117
87,14,-73,-51,80,-29,-14,170,180,117,117,97
78,4,-73,-41,75,-34,-14,136,151,97,102,87
73,4,-68,-39,70,-31,-19,107,122,82,82,73
63,9,-53,-36,58,-21,-24,92,97,58,63,63
53,14,-39,-34,46,-12,-29,78,78,39,48,53
43,14,-29,-29,36,-7,-29,58,58,29,39,39
34,9,-24,-21,29,-7,-29,39,43,14,29,29
24,4,-19,-14,21,-7,-29,29,29,9,14,19
24,4,-19,-14,21,-7,-34,24,19,9,4,9
14,0,-14,-7,14,-7,-34,14,14,4,0,9
14,0,-14,-7,14,-7,-34,9,4,0,-4,4
4,-9,-14,2,9,-12,-34,9,4,0,-4,0
-4,-14,-9,9,2,-12,-29,4,0,0,-4,0
-4,-14,-9,9,2,-12,-24,4,0,-4,-9,0
-4,-14,-9,9,2,-12,-19,0,0,-4,-9,-4
0,-9,-9,4,4,-9,-19,0,0,-4,-9,-4
9,-4,-14,-2,12,-9,-14,0,0,-4,-9,-4
4,-9,-14,2,9,-12,-14,0,0,-4,-9,-4
4,-9,-14,2,9,-12,-14,0,0,-4,-9,-4
4,-4,-9,0,7,-7,-14,0,0,-4,-14,-9
9,-4,-14,-2,12,-9,-14,0,0,-4,-19,-14
9,-4,-14,-2,12,-9,-14,0,0,-4,-19,-14
9,-9,-19,0,14,-14,-14,0,0,-4,-14,-14
9,-4,-14,-2,12,-9,-14,0,0,0,-14,-9
9,4,-4,-7,7,0,-14,0,0,0,-9,-9
9,4,-4,-7,7,0,-19,0,0,0,-9,-9
9,9,0,-9,4,4,-19,0,0,0,-9,-9
9,4,-4,-7,7,0,-14,-4,4,0,-9,-9
9,0,-9,-4,9,-4,-9,-4,4,0,-9,-4
9,0,-9,-4,9,-4,-9,-9,0,-4,-4,0
9,0,-9,-4,9,-4,-9,-14,0,-9,-4,0
9,-4,-14,-2,12,-9,-14,-14,-4,-9,-4,0
9,-4,-14,-2,12,-9,-24,-14,-9,-9,-4,0
4,0,-4,-2,4,-2,-24,-14,-9,-9,-4,0
0,0,0,0,0,0,-24,-19,-9,-9,-4,0
0,-4,-4,2,2,-4,-24,-14,-9,-9,-4,0
0,-4,-4,2,2,-4,-24,-9,-14,-9,-9,0
-4,-4,0,4,-2,-2,-24,-9,-14,-9,-14,-4
-9,-4,4,7,-7,0,-24,-14,-14,-14,-19,-9
-9,-9,0,9,-4,-4,-24,-14,-19,-19,-19,-14
-14,-19,-4,17,-4,-12,-24,-14,-19,-24,-24,-14
-14,-29,-14,21,0,-21,-24,-19,-24,-29,-24,-9
-14,-39,-24,26,4,-31,-24,-24,-24,-29,-24,-9
-14,-29,-14,21,0,-21,-24,-29,-24,-29,-24,-9
-14,-19,-4,17,-4,-12,-24,-29,-29,-29,-24,-14
-19,-24,-4,21,-7,-14,-24,-29,-29,-29,-24,-14
-19,-24,-4,21,-7,-14,-29,-29,-34,-29,-29,-14
-19,-29,-9,24,-4,-19,-29,-34,-34,-34,-29,-19
-24,-34,-9,29,-7,-21,-29,-34,-34,-34,-29,-19
-24,-34,-9,29,-7,-21,-24,-34,-39,-34,-39,-29
-24,-39,-14,31,-4,-26,-24,-34,-39,-34,-43,-34
-24,-43,-19,34,-2,-31,-24,-34,-39,-39,-48,-34
-24,-43,-19,34,-2,-31,-24,-34,-43,-39,-48,-39
-24,-43,-19,34,-2,-31,-29,-39,-43,-43,-48,-43
-29,-43,-14,36,-7,-29,-29,-39,-43,-48,-53,-43
-29,-39,-9,34,-9,-24,-24,-39,-48,-48,-53,-43
-29,-39,-9,34,-9,-24,-24,-39,-48,-48,-58,-43
-34,-39,-4,36,-14,-21,-24,-34,-43,-48,-53,-39
-34,-43,-9,39,-12,-26,-24,-29,-39,-48,-48,-34
-34,-43,-9,39,-12,-26,-24,-29,-39,-48,-48,-39
-34,-43,-9,39,-12,-26,-24,-34,-43,-53,-48,-39
-34,-43,-9,39,-12,-26,-24,-34,-43,-53,-53,-43
-29,-48,-19,39,-4,-34,-24,-34,-43,-53,-53,-43
-34,-48,-14,41,-9,-31,-19,-34,-48,-53,-53,-43
-34,-48,-14,41,-9,-31,-19,-34,-53,-53,-58,-48
-34,-48,-14,41,-9,-31,-19,-34,-53,-53,-63,-48
-34,-48,-14,41,-9,-31,-19,-34,-53,-58,-63,-53
-34,-53,-19,43,-7,-36,-19,-34,-53,-58,-63,-53
-34,-53,-19,43,-7,-36,-14,-34,-53,-58,-63,-48
-39,-53,-14,46,-12,-34,-14,-39,-53,-58,-63,-48
-43,-53,-9,48,-17,-31,-19,-43,-58,-58,-63,-53
-43,-48,-4,46,-19,-26,-24,-43,-58,-63,-63,-58
-43,-39,4,41,-24,-17,-24,-43,-58,-68,-63,-63
-43,-53,-9,48,-17,-31,-24,-39,-58,-68,-68,-63
-43,-63,-19,53,-12,-41,-24,-39,-58,-68,-78,-68
-48,-63,-14,56,-17,-39,-24,-43,-53,-68,-78,-63
-53,-63,-9,58,-21,-36,-24,-43,-53,-63,-78,-58
-53,-63,-9,58,-21,-36,-24,-43,-53,-53,-63,-58
-43,-63,-19,53,-12,-41,-24,-39,-53,-53,-48,-53
-43,-68,-24,56,-9,-46,-19,-39,-48,-58,-58,-58
-39,-63,-24,51,-7,-43,-14,-34,-48,-63,-63,-68
-34,-58,-24,46,-4,-41,-14,-34,-43,-58,-63,-63
-29,-58,-29,43,0,-43,-14,-34,-39,-58,-63,-58
-29,-53,-24,41,-2,-39,-9,-29,-34,-53,-58,-53
-29,-48,-19,39,-4,-34,-9,-29,-29,-48,-58,-48
-29,-34,-4,31,-12,-19,-14,-24,-29,-39,-48,-43
-29,-19,9,24,-19,-4,-19,-19,-29,-29,-39,-39
-24,-14,9,19,-17,-2,-19,-14,-19,-19,-34,-19
-14,-4,9,9,-12,2,-19,-9,-9,-14,-24,-14
-4,0,4,2,-4,2,-24,-9,0,-9,-19,-14
4,9,4,-7,0,7,-34,-14,0,-9,-19,-24
14,4,-9,-9,12,-2,-48,-14,0,-9,-14,-24
24,4,-19,-14,21,-7,-63,-19,0,-9,-14,-19
24,4,-19,-14,21,-7,-63,-19,0,-9,-14,-14
29,4,-24,-17,26,-9,-63,-14,0,-9,-14,-4
29,4,-24,-17,26,-9,-63,-14,-4,-14,-14,-4
24,4,-19,-14,21,-7,-63,-29,-24,-34,-34,-19
24,4,-19,-14,21,-7,-68,-43,-43,-48,-43,-19
24,4,-19,-14,21,-7,-78,-48,-53,-58,-48,-19
19,-4,-24,-7,21,-14,-78,-53,-63,-68,-58,-29
19,-9,-29,-4,24,-19,-87,-53,-63,-68,-63,-39
19,-14,-34,-2,26,-24,-82,-53,-63,-68,-68,-43
14,-14,-29,0,21,-21,-68,-53,-63,-68,-68,-48
4,-19,-24,7,14,-21,-63,-48,-63,-68,-68,-48
0,-19,-19,9,9,-19,-58,-48,-68,-68,-68,-48
-14,-29,-14,21,0,-21,-43,-43,-63,-63,-63,-53
-34,-53,-19,43,-7,-36,-34,-39,-58,-63,-68,-58
-48,-73,-24,61,-12,-48,-19,-39,-58,-63,-73,-68
-63,-92,-29,78,-17,-61,-9,-39,-58,-73,-73,-78
-78,-102,-24,90,-26,-63,-4,-43,-63,-82,-87,-82
-78,-112,-34,95,-21,-73,-4,-43,-63,-87,-97,-87
-78,-122,-43,100,-17,-82,0,-39,-63,-87,-97,-87
-73,-122,-48,97,-12,-85,0,-39,-63,-87,-97,-92
-73,-107,-34,90,-19,-70,0,-39,-63,-87,-97,-92
-73,-97,-24,85,-24,-61,0,-34,-63,-82,-92,-92
-78,-112,-34,95,-21,-73,9,-34,-58,-82,-92,-87
-82,-122,-39,102,-21,-80,14,-29,-58,-82,-92,-87
-82,-122,-39,102,-21,-80,14,-29,-53,-82,-92,-87
-82,-117,-34,100,-24,-75,14,-29,-53,-82,-92,-87
-82,-112,-29,97,-26,-70,14,-29,-48,-78,-92,-92
-82,-112,-29,97,-26,-70,9,-24,-48,-78,-87,-97
-87,-112,-24,100,-31,-68,14,-24,-48,-78,-87,-97
-87,-112,-24,100,-31,-68,14,-14,-43,-78,-87,-97
-82,-117,-34,100,-24,-75,14,-14,-39,-78,-87,-92
-73,-117,-43,95,-14,-80,19,0,-29,-63,-82,-82
-73,-112,-39,92,-17,-75,34,29,0,-43,-68,-73
-87,-107,-19,97,-34,-63,78,68,53,-4,-39,-68
-161,-87,73,124,-117,-7,141,122,122,63,4,-58
-278,-24,253,151,-265,114,195,141,180,156,63,-24
-351,58,409,146,-380,234,200,107,175,204,102,-4
-331,141,473,95,-402,307,97,-63,34,151,82,19
-219,239,458,-9,-339,348,-131,-439,-366,-58,-24,29
-58,317,375,-129,-217,346,-370,-790,-780,-297,-151,29
161,536,375,-348,-107,456,-614,-1117,-1083,-414,-175,161
356,834,478,-595,-61,656,-844,-1439,-1346,-492,-156,351
424,976,551,-700,-63,763,-1015,-1747,-1625,-668,-273,312
219,839,619,-529,-200,729,-1073,-2122,-2044,-1068,-673,-19
-97,585,683,-244,-390,634,-1010,-2352,-2391,-1464,-1112,-434
-307,326,634,-9,-470,480,-888,-2357,-2527,-1732,-1464,-795
-356,170,527,92,-441,348,-795,-2220,-2391,-1742,-1532,-927
-351,131,483,109,-417,307,-771,-2088,-2230,-1634,-1459,-922
-229,161,390,34,-309,275,-795,-1795,-1917,-1424,-1239,-775
-190,170,361,9,-275,265,-673,-1429,-1512,-1141,-985,-590
-161,204,366,-21,-263,285,-517,-1054,-1063,-800,-673,-385
-141,151,292,-4,-217,222,-366,-732,-732,-546,-463,-278
-126,102,229,12,-178,165,-224,-434,-439,-331,-292,-190
-126,-4,122,65,-124,58,-82,-200,-219,-209,-204,-156
-131,-68,63,100,-97,-2,-9,-78,-92,-126,-141,-117
-117,-82,34,100,-75,-24,29,0,-14,-48,-58,-73
-112,-117,-4,114,-53,-61,68,73,43,-9,-39,-78
-112,-136,-24,124,-43,-80,87,92,58,-19,-53,-87
-117,-151,-34,134,-41,-92,92,102,73,-19,-53,-87
-126,-156,-29,141,-48,-92,97,102,82,-4,-39,-87
-126,-156,-29,141,-48,-92,92,107,92,4,-29,-78
-126,-156,-29,141,-48,-92,97,122,97,9,-29,-73
-122,-165,-43,143,-39,-104,102,126,107,9,-24,-73
-117,-165,-48,141,-34,-107,102,131,117,19,-19,-73
-117,-161,-43,139,-36,-102,102,131,117,24,-19,-68
-117,-156,-39,136,-39,-97,102,136,117,24,-19,-68
-117,-161,-43,139,-36,-102,102,141,122,19,-14,-73
-122,-165,-43,143,-39,-104,107,146,131,24,-9,-73
-122,-165,-43,143,-39,-104,107,146,126,29,-4,-73
-122,-165,-43,143,-39,-104,107,151,126,29,0,-68
-122,-161,-39,141,-41,-100,107,146,126,29,0,-68
-122,-151,-29,136,-46,-90,107,146,131,34,4,-63
-122,-151,-29,136,-46,-90,107,146,131,34,-4,-58
-122,-146,-24,134,-48,-85,107,146,141,39,-9,-53
-117,-146,-29,131,-43,-87,107,151,141,39,0,-53
-117,-141,-24,129,-46,-82,107,151,141,43,4,-53
-112,-136,-24,124,-43,-80,102,151,141,43,4,-48
-112,-131,-19,122,-46,-75,102,156,141,48,9,-43
-117,-141,-24,129,-46,-82,102,161,151,53,14,-39
-117,-151,-34,134,-41,-92,102,165,165,58,19,-39
-117,-146,-29,131,-43,-87,102,170,170,63,19,-34
-117,-146,-29,131,-43,-87,102,175,170,68,34,-34
-112,-141,-29,126,-41,-85,102,175,170,78,34,-29
-112,-141,-29,126,-41,-85,102,170,175,82,39,-14
-112,-131,-19,122,-46,-75,102,175,175,87,39,-14
-107,-131,-24,119,-41,-78,102,180,175,87,43,-14
-107,-131,-24,119,-41,-78,102,190,190,97,48,-4
-102,-126,-24,114,-39,-75,102,195,190,102,48,-4
-102,-126,-24,114,-39,-75,97,200,195,107,58,4
-97,-126,-29,112,-34,-78,97,204,204,107,73,9
-92,-112,-19,102,-36,-65,97,214,209,117,78,14
-82,-107,-24,95,-29,-65,97,224,224,122,87,19
-82,-107,-24,95,-29,-65,97,224,229,126,92,24
-78,-112,-34,95,-21,-73,97,239,244,131,97,19
-82,-112,-29,97,-26,-70,97,248,253,141,107,24
-82,-97,-14,90,-34,-56,97,263,263,151,117,34
-78,-107,-29,92,-24,-68,102,268,278,161,126,48
-73,-117,-43,95,-14,-80,102,283,292,175,136,63
-73,-97,-24,85,-24,-61,107,287,302,190,151,68
-68,-87,-19,78,-24,-53,112,297,312,204,161,73
-63,-92,-29,78,-17,-61,126,322,336,209,175,78
-63,-92,-29,78,-17,-61,126,336,356,224,190,82
-58,-82,-24,70,-17,-53,122,351,370,239,195,87
-58,-78,-19,68,-19,-48,126,366,380,253,204,97
-53,-68,-14,61,-19,-41,131,380,400,258,214,102
-48,-68,-19,58,-14,-43,131,400,419,278,229,112
-43,-68,-24,56,-9,-46,141,414,429,287,239,122
-39,-68,-29,53,-4,-48,141,424,439,297,244,126
-34,-68,-34,51,0,-51,136,439,458,312,258,131
-24,-63,-39,43,7,-51,141,448,468,322,268,136
-19,-63,-43,41,12,-53,151,458,488,331,278,141
-14,-63,-48,39,17,-56,151,463,492,336,283,146
-9,-58,-48,34,19,-53,146,473,502,341,287,156
-4,-53,-48,29,21,-51,141,473,502,341,292,165
0,-48,-48,24,24,-48,136,473,497,341,292,165
4,-43,-48,19,26,-46,136,458,488,336,292,165
14,-43,-58,14,36,-51,122,434,473,326,278,170
19,-43,-63,12,41,-53,107,409,453,317,268,175
24,-39,-63,7,43,-51,97,400,434,297,258,165
34,-39,-73,2,53,-56,87,380,409,278,248,161
43,-39,-82,-2,63,-61,82,356,385,268,239,161
48,-39,-87,-4,68,-63,63,326,356,248,224,156
53,-43,-97,-4,75,-70,58,287,322,224,214,146
58,-39,-97,-9,78,-68,43,258,283,195,190,136
48,-39,-87,-4,68,-63,29,224,253,175,170,126
43,-39,-82,-2,63,-61,14,190,224,151,146,107
39,-48,-87,4,63,-68,4,161,185,126,122,97
24,-53,-78,14,51,-65,4,136,146,102,102,87
19,-53,-73,17,46,-63,-4,107,117,78,78,68
9,-63,-73,26,41,-68,-4,82,97,58,63,58
0,-58,-58,29,29,-58,-9,58,73,43,48,43
-14,-53,-39,34,12,-46,-14,43,48,24,34,34
-24,-53,-29,39,2,-41,-19,34,34,14,19,24
-34,-53,-19,43,-7,-36,-19,19,19,9,9,9
-43,-58,-14,51,-14,-36,-19,4,4,0,0,0
-53,-63,-9,58,-21,-36,-19,0,-9,-4,-14,-9
-53,-63,-9,58,-21,-36,-19,-4,-14,-9,-24,-19
-63,-68,-4,65,-29,-36,-14,-14,-14,-14,-29,-19
-63,-68,-4,65,-29,-36,-14,-19,-24,-24,-34,-24
-68,-73,-4,70,-31,-39,-14,-19,-24,-29,-34,-29
-78,-73,4,75,-41,-34,-9,-24,-29,-29,-34,-29
-82,-73,9,78,-46,-31,-9,-24,-29,-34,-39,-29
-82,-73,9,78,-46,-31,-14,-29,-34,-34,-39,-34
-87,-73,14,80,-51,-29,-19,-29,-39,-34,-39,-34
-82,-68,14,75,-48,-26,-14,-29,-39,-29,-34,-34
-82,-68,14,75,-48,-26,-14,-29,-39,-24,-29,-34
-82,-68,14,75,-48,-26,-14,-29,-34,-24,-29,-34
-82,-63,19,73,-51,-21,-14,-29,-29,-24,-29,-34
-78,-68,9,73,-43,-29,-14,-29,-29,-24,-29,-34
-78,-73,4,75,-41,-34,-14,-29,-29,-24,-29,-34
-78,-78,0,78,-39,-39,-14,-29,-29,-24,-24,-29
-78,-78,0,78,-39,-39,-14,-29,-29,-19,-24,-19
-78,-73,4,75,-41,-34,-9,-29,-29,-19,-19,-19
-78,-73,4,75,-41,-34,-9,-29,-29,-19,-19,-19
-78,-68,9,73,-43,-29,-9,-29,-29,-19,-19,-19
-78,-68,9,73,-43,-29,-9,-34,-24,-19,-19,-19
-78,-63,14,70,-46,-24,-19,-34,-24,-19,-19,-19
-78,-58,19,68,-48,-19,-29,-34,-29,-19,-14,-19
-78,-48,29,63,-53,-9,-29,-34,-29,-19,-14,-19
-78,-43,34,61,-56,-4,-29,-34,-29,-19,-14,-19
-73,-53,19,63,-46,-17,-29,-29,-24,-14,-9,-14
-68,-58,9,63,-39,-24,-24,-24,-19,-9,-4,-9
-68,-58,9,63,-39,-24,-24,-29,-19,-9,-4,-9
-68,-63,4,65,-36,-29,-24,-29,-19,-9,-4,-9
-68,-73,-4,70,-31,-39,-24,-29,-24,-14,-9,-9
-68,-82,-14,75,-26,-48,-24,-29,-24,-19,-9,-9
-68,-73,-4,70,-31,-39,-29,-34,-29,-24,-14,-9
-68,-63,4,65,-36,-29,-34,-34,-39,-24,-19,-14
-73,-68,4,70,-39,-31,-34,-34,-39,-24,-24,-19
-73,-68,4,70,-39,-31,-34,-34,-43,-29,-29,-24
-73,-68,4,70,-39,-31,-29,-34,-43,-29,-34,-29
-73,-68,4,70,-39,-31,-24,-39,-43,-34,-34,-29
-68,-68,0,68,-34,-34,-24,-39,-43,-39,-34,-34
-68,-73,-4,70,-31,-39,-24,-39,-39,-39,-34,-34
-68,-73,-4,70,-31,-39,-29,-39,-43,-39,-39,-34
-68,-73,-4,70,-31,-39,-29,-43,-43,-43,-39,-39
-73,-73,0,73,-36,-36,-29,-43,-43,-43,-34,-34
-73,-73,0,73,-36,-36,-24,-43,-48,-43,-34,-34
-73,-78,-4,75,-34,-41,-24,-43,-48,-43,-34,-34
-73,-82,-9,78,-31,-46,-24,-43,-48,-48,-39,-34
-73,-82,-9,78,-31,-46,-24,-43,-53,-48,-39,-39
-73,-82,-9,78,-31,-46,-29,-48,-53,-53,-39,-43
-78,-78,0,78,-39,-39,-29,-48,-53,-58,-43,-43
-78,-73,4,75,-41,-34,-24,-48,-58,-58,-43,-43
-73,-78,-4,75,-34,-41,-24,-48,-58,-53,-48,-43
-73,-78,-4,75,-34,-41,-24,-48,-58,-48,-48,-43
-73,-82,-9,78,-31,-46,-24,-48,-58,-48,-48,-43
-73,-82,-9,78,-31,-46,-24,-48,-58,-48,-48,-48
-73,-82,-9,78,-31,-46,-24,-53,-63,-58,-48,-48
-78,-82,-4,80,-36,-43,-24,-53,-63,-63,-53,-53
-73,-82,-9,78,-31,-46,-24,-53,-63,-63,-53,-53
-73,-78,-4,75,-34,-41,-19,-53,-63,-63,-53,-53
-73,-78,-4,75,-34,-41,-19,-48,-63,-63,-58,-58
-73,-78,-4,75,-34,-41,-19,-43,-63,-63,-63,-58
-73,-78,-4,75,-34,-41,-19,-43,-63,-68,-63,-63
-73,-82,-9,78,-31,-46,-19,-43,-63,-68,-63,-63
-73,-82,-9,78,-31,-46,-14,-43,-63,-63,-63,-58
-73,-82,-9,78,-31,-46,-14,-43,-63,-58,-63,-58
-73,-82,-9,78,-31,-46,-19,-43,-63,-58,-68,-63
-73,-87,-14,80,-29,-51,-19,-43,-58,-58,-73,-63
-73,-87,-14,80,-29,-51,-14,-48,-58,-63,-73,-68
-73,-82,-9,78,-31,-46,-14,-48,-58,-68,-73,-73
-68,-82,-14,75,-26,-48,-9,-43,-53,-63,-68,-73
-68,-82,-14,75,-26,-48,-9,-39,-53,-63,-63,-73
-63,-82,-19,73,-21,-51,-9,-34,-43,-53,-53,-63
-58,-87,-29,73,-14,-58,-9,-29,-39,-48,-48,-58
-58,-78,-19,68,-19,-48,-9,-29,-39,-43,-43,-53
-58,-68,-9,63,-24,-39,-9,-29,-39,-39,-39,-48
-53,-53,0,53,-26,-26,-4,-19,-29,-24,-34,-39
-43,-39,4,41,-24,-17,-4,-9,-19,-14,-24,-29
-34,-29,4,31,-19,-12,-4,-4,-9,-4,-14,-24
-24,-19,4,21,-14,-7,-14,-4,-9,0,-9,-14
-14,-14,0,14,-7,-7,-29,-4,-9,0,0,-14
-4,-4,0,4,-2,-2,-43,-9,-9,0,4,-9
-4,-4,0,4,-2,-2,-43,-9,-4,0,4,-9
0,-4,-4,2,2,-4,-43,-4,0,0,4,-4
4,-4,-9,0,7,-7,-43,-4,0,0,9,0
4,-4,-9,0,7,-7,-43,-19,-14,-14,-4,-9
4,-4,-9,0,7,-7,-53,-39,-34,-29,-14,-19
4,-4,-9,0,7,-7,-68,-48,-43,-39,-19,-29
4,-14,-19,4,12,-17,-68,-53,-53,-53,-34,-29
9,-19,-29,4,19,-24,-78,-53,-53,-58,-43,-29
14,-24,-39,4,26,-31,-78,-53,-53,-58,-43,-29
14,-24,-39,4,26,-31,-68,-53,-53,-58,-39,-29
9,-29,-39,9,24,-34,-63,-48,-53,-58,-39,-29
9,-29,-39,9,24,-34,-58,-48,-58,-58,-39,-29
-4,-39,-34,21,14,-36,-43,-43,-53,-53,-39,-34
-24,-63,-39,43,7,-51,-34,-39,-48,-53,-48,-39
-43,-78,-34,61,-4,-56,-14,-39,-48,-53,-53,-48
-63,-92,-29,78,-17,-61,0,-39,-48,-63,-53,-58
-82,-102,-19,92,-31,-61,4,-43,-58,-73,-68,-73
-87,-112,-24,100,-31,-68,4,-43,-63,-78,-78,-87
-87,-122,-34,104,-26,-78,4,-39,-63,-82,-82,-87
-82,-122,-39,102,-21,-80,0,-39,-63,-87,-87,-92
-82,-117,-34,100,-24,-75,0,-39,-63,-87,-87,-92
-82,-117,-34,100,-24,-75,0,-34,-63,-82,-82,-92
-82,-122,-39,102,-21,-80,4,-34,-58,-82,-82,-87
-82,-122,-39,102,-21,-80,4,-29,-58,-82,-82,-87
-82,-122,-39,102,-21,-80,4,-29,-58,-82,-82,-87
-82,-117,-34,100,-24,-75,4,-29,-63,-82,-82,-87
-82,-117,-34,100,-24,-75,9,-29,-58,-78,-82,-87
-82,-122,-39,102,-21,-80,9,-24,-58,-78,-78,-87
-87,-122,-34,104,-26,-78,19,-29,-58,-78,-78,-87
-87,-122,-34,104,-26,-78,24,-24,-53,-78,-78,-87
-87,-126,-39,107,-24,-82,24,-24,-48,-78,-82,-92
-82,-126,-43,104,-19,-85,29,-9,-39,-63,-82,-92
-68,-131,-63,100,-2,-97,19,4,-34,-63,-82,-87
-68,-136,-68,102,0,-102,39,29,-4,-43,-68,-87
-117,-136,-19,126,-48,-78,102,87,63,14,-24,-78
-209,-92,117,151,-163,12,156,112,122,97,34,-43
-366,4,370,180,-368,187,239,165,229,229,112,-24
-429,102,531,163,-480,317,214,82,200,258,131,0
-346,165,512,90,-429,339,14,-268,-190,53,24,-4
-214,209,424,2,-319,317,-195,-595,-595,-180,-102,-19
29,429,400,-229,-185,414,-448,-868,-878,-287,-92,136
248,727,478,-488,-114,602,-688,-1137,-1122,-356,-39,351
580,941,361,-761,109,651,-941,-1390,-1351,-483,-58,458
639,878,239,-758,200,558,-1083,-1712,-1722,-834,-361,273
234,585,351,-409,-58,468,-1044,-2137,-2274,-1376,-946,-248
-63,287,351,-112,-207,319,-946,-2337,-2615,-1790,-1444,-717
-180,97,278,41,-229,187,-854,-2293,-2566,-1893,-1615,-936
-244,24,268,109,-256,146,-829,-2254,-2493,-1878,-1644,-1019
-117,58,175,29,-146,117,-902,-2010,-2230,-1698,-1459,-907
-73,73,146,0,-109,109,-829,-1693,-1873,-1444,-1239,-756
-53,190,244,-68,-148,217,-673,-1307,-1366,-1044,-863,-483
-43,219,263,-87,-153,241,-522,-976,-976,-732,-590,-307
-53,170,224,-58,-139,197,-361,-634,-639,-473,-385,-214
-78,63,141,7,-109,102,-200,-356,-375,-307,-263,-175
-102,-19,82,61,-92,31,-82,-195,-200,-195,-190,-136
-107,-53,53,80,-80,0,0,-78,-73,-87,-97,-92
-102,-92,9,97,-56,-41,48,29,19,-19,-48,-78
-102,-117,-14,109,-43,-65,78,82,68,0,-34,-68
-102,-126,-24,114,-39,-75,82,92,82,0,-34,-68
-107,-126,-19,117,-43,-73,87,92,92,14,-19,-68
-107,-131,-24,119,-41,-78,87,102,102,24,-9,-58
-107,-136,-29,122,-39,-82,97,122,107,29,-9,-53
-107,-146,-39,126,-34,-92,107,131,117,29,-4,-53
-107,-146,-39,126,-34,-92,112,141,126,39,0,-53
-112,-141,-29,126,-41,-85,112,141,126,43,0,-48
-117,-136,-19,126,-48,-78,112,146,126,43,0,-48
-112,-141,-29,126,-41,-85,112,151,131,43,4,-48
-112,-146,-34,129,-39,-90,117,156,141,53,9,-43
-112,-146,-34,129,-39,-90,117,156,141,58,14,-43
-112,-146,-34,129,-39,-90,117,161,146,58,19,-39
-112,-146,-34,129,-39,-90,117,161,146,58,19,-39
-112,-141,-29,126,-41,-85,117,165,151,63,24,-34
-112,-141,-29,126,-41,-85,117,165,151,68,24,-29
-112,-136,-24,124,-43,-80,117,165,161,78,29,-24
-107,-136,-29,122,-39,-82,117,170,170,82,39,-24
-107,-131,-24,119,-41,-78,117,170,180,92,43,-24
-102,-126,-24,114,-39,-75,112,170,180,92,43,-19
-102,-122,-19,112,-41,-70,112,175,180,97,48,-14
-107,-122,-14,114,-46,-68,112,175,185,102,53,-9
-107,-122,-14,114,-46,-68,112,175,195,107,58,-9
-102,-117,-14,109,-43,-65,112,180,200,107,58,-4
-97,-117,-19,107,-39,-68,112,185,200,107,73,-4
-92,-112,-19,102,-36,-65,112,190,204,117,78,0
-92,-112,-19,102,-36,-65,112,190,214,122,87,14
-92,-97,-4,95,-43,-51,112,195,214,126,87,14
-87,-92,-4,90,-41,-48,112,200,214,126,92,14
-87,-92,-4,90,-41,-48,112,209,229,141,97,24
-82,-87,-4,85,-39,-46,112,214,229,151,97,24
-82,-87,-4,85,-39,-46,112,219,239,161,107,34
-78,-87,-9,82,-34,-48,117,224,253,165,122,39
-78,-73,4,75,-41,-34,122,234,263,175,126,43
-73,-68,4,70,-39,-31,126,244,283,180,136,48
-73,-68,4,70,-39,-31,126,248,287,190,141,58
-68,-73,-4,70,-31,-39,126,268,302,200,146,58
-68,-73,-4,70,-31,-39,126,278,312,209,156,63
-63,-58,4,61,-34,-26,126,292,322,219,165,73
-58,-58,0,58,-29,-29,131,302,341,229,175,82
-53,-58,-4,56,-24,-31,131,322,361,244,185,92
-53,-48,4,51,-29,-21,136,336,375,258,200,97
-48,-48,0,48,-24,-24,141,356,390,273,209,102
-43,-53,-9,48,-17,-31,156,380,414,283,229,117
-43,-53,-9,48,-17,-31,156,395,434,302,248,131
-39,-39,0,39,-19,-19,151,414,453,317,258,136
-39,-29,9,34,-24,-9,156,434,468,331,273,146
-34,-19,14,26,-24,-2,161,453,492,346,283,151
-29,-19,9,24,-19,-4,161,478,517,375,297,161
-24,-19,4,21,-14,-7,175,502,541,390,317,175
-19,-19,0,19,-9,-9,180,522,566,405,331,185
-19,-19,0,19,-9,-9,180,536,590,419,346,195
-14,-14,0,14,-7,-7,190,546,605,429,356,204
-9,-14,-4,12,-2,-9,200,561,624,444,370,209
-4,-14,-9,9,2,-12,200,570,629,453,380,214
0,-9,-9,4,4,-9,200,580,639,463,385,219
4,-4,-9,0,7,-7,200,580,639,468,390,224
9,0,-9,-4,9,-4,195,585,639,473,390,224
14,4,-9,-9,12,-2,195,575,634,473,390,224
24,4,-19,-14,21,-7,185,551,619,458,380,229
