I,II,III,aVR,aVL,aVF,V1,V2,V3,V4,V5,V6,
-63,-73,-9,68,-26,-41,19,-43,-43,-58,-63,-58
-68,-78,-9,73,-29,-43,14,-53,-48,-63,-63,-58
-73,-82,-9,78,-31,-46,9,-58,-48,-63,-68,-58
-78,-82,-4,80,-36,-43,4,-58,-53,-63,-68,-63
-78,-82,-4,80,-36,-43,4,-63,-58,-68,-68,-63
-78,-82,-4,80,-36,-43,4,-63,-58,-68,-73,-63
-82,-87,-4,85,-39,-46,4,-63,-58,-68,-73,-63
-82,-87,-4,85,-39,-46,4,-63,-63,-73,-73,-68
-82,-87,-4,85,-39,-46,4,-63,-63,-73,-73,-68
-87,-92,-4,90,-41,-48,4,-63,-63,-78,-78,-68
-87,-92,-4,90,-41,-48,9,-63,-63,-78,-78,-68
-87,-92,-4,90,-41,-48,14,-63,-63,-78,-73,-68
-87,-92,-4,90,-41,-48,19,-63,-63,-73,-73,-68
-92,-92,0,92,-46,-46,19,-63,-63,-73,-73,-68
-92,-97,-4,95,-43,-51,29,-48,-63,-73,-82,-73
-117,-112,4,114,-61,-53,48,-29,-63,-92,-97,-97
-151,-136,14,143,-82,-61,82,9,-63,-117,-131,-131
-175,-156,19,165,-97,-68,107,24,-58,-136,-151,-151
-185,-151,34,168,-109,-58,122,53,-29,-97,-117,-122
-141,-117,24,129,-82,-46,146,161,58,19,-24,-53
39,-43,-82,2,61,-63,141,336,209,234,151,82
283,63,-219,-173,251,-78,92,458,356,492,370,283
527,229,-297,-378,412,-34,4,458,502,780,629,517
624,370,-253,-497,439,58,-141,278,566,922,756,653
546,434,-112,-490,329,161,-297,-102,400,663,566,556
414,395,-19,-405,217,187,-517,-732,-14,136,200,302
224,258,34,-241,95,146,-697,-1385,-483,-434,-219,-14
43,58,14,-51,14,36,-800,-1815,-961,-868,-541,-268
-43,-73,-29,58,-7,-51,-834,-1912,-1146,-1005,-644,-346
9,-112,-122,51,65,-117,-819,-1761,-1156,-985,-629,-351
24,-112,-136,43,80,-124,-727,-1429,-1005,-839,-546,-317
24,-112,-136,43,80,-124,-541,-1019,-771,-653,-444,-278
4,-112,-117,53,61,-114,-336,-639,-546,-448,-322,-214
-24,-112,-87,68,31,-100,-195,-361,-370,-312,-239,-175
-48,-102,-53,75,2,-78,-117,-209,-268,-234,-190,-146
-53,-92,-39,73,-7,-65,-58,-122,-204,-190,-156,-126
-58,-82,-24,70,-17,-53,-9,-48,-146,-131,-117,-97
-63,-63,0,63,-31,-31,19,-19,-87,-87,-82,-73
-73,-63,9,68,-41,-26,24,-4,-63,-78,-73,-63
-78,-68,9,73,-43,-29,43,19,-58,-68,-73,-63
-78,-78,0,78,-39,-39,53,34,-48,-63,-68,-63
-82,-78,4,80,-43,-36,58,48,-24,-43,-58,-58
-82,-78,4,80,-43,-36,63,48,-19,-39,-53,-53
-82,-73,9,78,-46,-31,63,43,-19,-39,-53,-53
-82,-68,14,75,-48,-26,68,53,-19,-39,-53,-58
-82,-68,14,75,-48,-26,73,53,-9,-34,-48,-58
-82,-68,14,75,-48,-26,73,58,-4,-34,-48,-58
-82,-63,19,73,-51,-21,73,63,-4,-29,-48,-58
-82,-63,19,73,-51,-21,78,73,-4,-29,-48,-58
-82,-68,14,75,-48,-26,78,78,0,-29,-48,-58
-82,-73,9,78,-46,-31,82,82,4,-24,-43,-53
-82,-73,9,78,-46,-31,87,87,4,-24,-43,-53
-82,-73,9,78,-46,-31,87,92,9,-24,-39,-53
-82,-73,9,78,-46,-31,92,92,9,-24,-39,-53
-82,-73,9,78,-46,-31,97,92,9,-24,-43,-53
-82,-68,14,75,-48,-26,97,92,9,-19,-43,-43
-82,-63,19,73,-51,-21,102,92,9,-19,-39,-34
-82,-63,19,73,-51,-21,102,102,9,-14,-34,-34
-82,-58,24,70,-53,-17,102,102,14,-14,-34,-34
-82,-58,24,70,-53,-17,97,107,19,-14,-34,-39
-82,-58,24,70,-53,-17,97,107,19,-19,-34,-39
-82,-58,24,70,-53,-17,97,112,19,-19,-34,-39
-82,-58,24,70,-53,-17,97,117,14,-19,-29,-39
-82,-58,24,70,-53,-17,97,122,19,-9,-29,-34
-82,-58,24,70,-53,-17,97,122,19,-4,-29,-34
-78,-48,29,63,-53,-9,97,126,24,-4,-29,-34
-78,-43,34,61,-56,-4,97,126,29,0,-24,-34
-73,-43,29,58,-51,-7,97,136,29,0,-24,-34
-68,-39,29,53,-48,-4,97,141,34,0,-19,-34
-68,-43,24,56,-46,-9,102,146,39,4,-14,-29
-68,-43,24,56,-46,-9,102,151,39,9,-14,-24
-73,-43,29,58,-51,-7,102,156,39,14,-14,-19
-73,-43,29,58,-51,-7,102,161,34,14,-9,-19
-68,-39,29,53,-48,-4,102,165,39,19,-9,-19
-58,-34,24,46,-41,-4,102,170,43,24,-4,-14
-53,-34,19,43,-36,-7,102,170,48,24,0,-9
-39,-24,14,31,-26,-4,97,175,53,24,4,-9
-39,-24,14,31,-26,-4,97,185,58,29,9,-4
-29,-14,14,21,-21,0,97,195,58,43,19,4
-34,-9,24,21,-29,7,97,204,58,48,24,14
-29,-4,24,17,-26,9,97,204,68,53,29,14
-19,4,24,7,-21,14,87,214,73,68,34,19
-19,4,24,7,-21,14,82,229,82,78,48,29
-4,14,19,-4,-12,17,82,234,92,82,53,39
4,24,19,-14,-7,21,78,244,102,87,58,48
19,39,19,-29,0,29,68,253,107,97,73,53
39,53,14,-46,12,34,58,258,117,112,82,63
48,68,19,-58,14,43,53,273,122,126,97,78
63,82,19,-73,21,51,53,283,141,141,112,92
82,92,9,-87,36,51,53,287,151,151,122,107
102,117,14,-109,43,65,39,283,156,165,141,122
126,126,0,-126,63,63,29,292,165,190,156,141
156,146,-9,-151,82,68,14,292,175,200,180,161
190,170,-19,-180,104,75,4,292,185,219,185,180
204,190,-14,-197,109,87,0,297,195,244,209,209
229,214,-14,-222,122,100,-14,297,209,268,234,229
244,229,-14,-236,129,107,-34,297,219,292,253,253
268,253,-14,-261,141,119,-58,297,229,302,268,273
302,273,-29,-287,165,122,-73,297,239,326,287,292
331,302,-29,-317,180,136,-87,287,244,336,312,312
361,326,-34,-344,197,146,-107,283,258,356,341,331
390,356,-34,-373,212,161,-122,268,258,375,356,346
419,375,-43,-397,231,165,-131,258,263,385,366,370
444,385,-58,-414,251,163,-151,248,268,400,385,380
458,400,-58,-429,258,170,-156,239,273,409,395,395
478,405,-73,-441,275,165,-170,234,278,419,400,405
483,409,-73,-446,278,168,-185,224,283,429,409,409
488,409,-78,-448,283,165,-195,204,283,434,414,414
488,405,-82,-446,285,161,-204,195,283,434,414,419
478,400,-78,-439,278,161,-200,175,278,429,409,419
463,395,-68,-429,265,163,-190,161,273,414,395,409
439,370,-68,-405,253,151,-175,146,263,400,380,395
414,351,-63,-383,239,143,-170,136,253,385,366,370
385,331,-53,-358,219,139,-161,126,239,366,341,346
361,297,-63,-329,212,117,-151,117,219,331,302,317
322,268,-53,-295,187,107,-126,102,200,302,273,273
273,239,-34,-256,153,102,-107,87,190,268,248,248
234,204,-29,-219,131,87,-92,73,170,229,214,219
200,175,-24,-187,112,75,-78,58,146,200,185,185
170,151,-19,-161,95,65,-68,48,122,165,151,151
136,122,-14,-129,75,53,-58,29,107,136,122,122
102,92,-9,-97,56,41,-43,19,87,107,97,97
68,68,0,-68,34,34,-34,14,68,82,73,73
53,48,-4,-51,29,21,-29,4,53,58,48,53
39,34,-4,-36,21,14,-24,-4,34,43,29,43
34,14,-19,-24,26,-2,-19,-9,24,29,9,24
24,-4,-29,-9,26,-17,-9,-19,9,14,-4,4
0,-9,-9,4,4,-9,-9,-14,0,0,-9,-4
-19,-19,0,19,-9,-9,-9,-14,-4,-4,-9,-9
-29,-24,4,26,-17,-9,-4,-14,-9,-9,-19,-14
-34,-34,0,34,-17,-17,-4,-29,-19,-14,-29,-19
-34,-39,-4,36,-14,-21,0,-34,-24,-24,-39,-24
-39,-48,-9,43,-14,-29,0,-39,-24,-24,-43,-29
-43,-48,-4,46,-19,-26,0,-39,-29,-24,-43,-34
-39,-48,-9,43,-14,-29,0,-34,-29,-29,-43,-39
-34,-48,-14,41,-9,-31,4,-39,-29,-34,-43,-39
-34,-48,-14,41,-9,-31,4,-43,-29,-34,-39,-39
-43,-43,0,43,-21,-21,4,-43,-29,-34,-39,-39
-43,-39,4,41,-24,-17,4,-43,-24,-34,-39,-34
-43,-43,0,43,-21,-21,4,-43,-24,-34,-39,-34
-43,-43,0,43,-21,-21,4,-39,-24,-39,-43,-34
-43,-43,0,43,-21,-21,4,-39,-34,-39,-48,-39
-48,-43,4,46,-26,-19,9,-39,-39,-39,-48,-39
-48,-43,4,46,-26,-19,4,-39,-34,-39,-48,-39
-53,-43,9,48,-31,-17,0,-34,-34,-39,-43,-39
-48,-43,4,46,-26,-19,4,-34,-29,-39,-43,-39
-43,-43,0,43,-21,-21,9,-29,-29,-34,-43,-39
-43,-48,-4,46,-19,-26,14,-34,-29,-39,-43,-39
-43,-53,-9,48,-17,-31,19,-34,-24,-43,-43,-39
-43,-53,-9,48,-17,-31,19,-34,-24,-43,-43,-39
-43,-53,-9,48,-17,-31,24,-29,-19,-43,-48,-39
-48,-48,0,48,-24,-24,29,-29,-19,-39,-48,-39
-48,-43,4,46,-26,-19,29,-24,-14,-39,-48,-39
-48,-39,9,43,-29,-14,29,-24,-14,-34,-43,-39
-53,-39,14,46,-34,-12,29,-19,-14,-24,-43,-34
-53,-39,14,46,-34,-12,24,-19,-9,-24,-43,-34
-53,-39,14,46,-34,-12,19,-19,-9,-24,-43,-34
-53,-39,14,46,-34,-12,24,-19,-9,-24,-43,-29
-53,-34,19,43,-36,-7,24,-14,-9,-19,-39,-29
-53,-34,19,43,-36,-7,24,-9,-9,-19,-39,-29
-53,-39,14,46,-34,-12,24,-4,-9,-19,-39,-29
-53,-39,14,46,-34,-12,29,4,-4,-19,-34,-29
-53,-39,14,46,-34,-12,34,9,-4,-19,-24,-24
-63,-39,24,51,-43,-7,29,9,0,-14,-24,-24
-68,-39,29,53,-48,-4,29,9,4,-14,-24,-24
-58,-39,19,48,-39,-9,29,9,4,-9,-24,-24
-48,-39,9,43,-29,-14,29,9,4,-9,-24,-24
-48,-39,9,43,-29,-14,34,9,4,-9,-19,-24
-48,-39,9,43,-29,-14,34,9,4,-9,-19,-24
-58,-39,19,48,-39,-9,29,9,4,-9,-19,-24
-63,-39,24,51,-43,-7,29,9,0,-9,-19,-24
-63,-39,24,51,-43,-7,29,9,0,-9,-19,-24
-63,-39,24,51,-43,-7,29,4,0,-14,-24,-24
-58,-39,19,48,-39,-9,29,9,0,-19,-24,-24
-53,-39,14,46,-34,-12,29,14,4,-19,-24,-24
-48,-39,9,43,-29,-14,29,9,4,-19,-24,-29
-43,-34,9,39,-26,-12,29,9,0,-19,-24,-29
-43,-34,9,39,-26,-12,29,9,0,-19,-24,-29
-48,-34,14,41,-31,-9,29,4,0,-19,-24,-29
-48,-48,0,48,-24,-24,29,4,-9,-24,-29,-29
-48,-58,-9,53,-19,-34,24,0,-14,-29,-29,-29
-48,-48,0,48,-24,-24,24,0,-14,-29,-29,-34
-48,-39,9,43,-29,-14,29,0,-19,-34,-29,-34
-48,-39,9,43,-29,-14,29,0,-19,-34,-34,-29
-48,-43,4,46,-26,-19,24,-4,-19,-34,-34,-29
-48,-48,0,48,-24,-24,19,-9,-29,-39,-39,-34
-48,-53,-4,51,-21,-29,19,-9,-34,-39,-43,-39
-53,-53,0,53,-26,-26,19,-14,-34,-39,-43,-39
-53,-53,0,53,-26,-26,19,-19,-39,-39,-43,-43
-53,-53,0,53,-26,-26,19,-24,-39,-39,-43,-43
-53,-53,0,53,-26,-26,19,-24,-39,-43,-43,-43
-53,-53,0,53,-26,-26,14,-24,-39,-48,-43,-43
-48,-58,-9,53,-19,-34,4,-24,-39,-53,-43,-43
-48,-53,-4,51,-21,-29,4,-29,-39,-53,-43,-43
-48,-48,0,48,-24,-24,9,-34,-43,-53,-48,-48
-53,-48,4,51,-29,-21,9,-39,-43,-58,-48,-48
-58,-48,9,53,-34,-19,9,-39,-43,-58,-48,-48
-58,-48,9,53,-34,-19,4,-39,-39,-58,-48,-48
-58,-48,9,53,-34,-19,0,-39,-34,-58,-48,-48
-58,-48,9,53,-34,-19,0,-39,-39,-58,-48,-48
-58,-48,9,53,-34,-19,0,-39,-39,-58,-48,-48
-63,-53,9,58,-36,-21,0,-39,-43,-58,-48,-53
-63,-53,9,58,-36,-21,0,-39,-48,-63,-48,-63
-63,-53,9,58,-36,-21,0,-39,-48,-63,-53,-63
-58,-58,0,58,-29,-29,0,-43,-48,-63,-53,-58
-58,-58,0,58,-29,-29,0,-43,-48,-63,-58,-58
-58,-58,0,58,-29,-29,0,-43,-48,-58,-63,-58
-58,-53,4,56,-31,-24,0,-39,-48,-58,-58,-58
-58,-48,9,53,-34,-19,0,-39,-48,-58,-58,-58
-63,-48,14,56,-39,-17,0,-39,-48,-58,-58,-58
-68,-48,19,58,-43,-14,0,-39,-48,-58,-58,-58
-68,-53,14,61,-41,-19,0,-39,-48,-58,-58,-58
-68,-58,9,63,-39,-24,0,-39,-48,-58,-58,-58
-68,-58,9,63,-39,-24,0,-39,-48,-58,-58,-58
-68,-58,9,63,-39,-24,0,-39,-48,-58,-58,-58
-68,-58,9,63,-39,-24,4,-34,-48,-58,-58,-58
-68,-58,9,63,-39,-24,9,-29,-48,-58,-58,-58
-68,-58,9,63,-39,-24,9,-29,-48,-58,-53,-58
-68,-58,9,63,-39,-24,9,-29,-48,-58,-48,-58
-68,-58,9,63,-39,-24,4,-29,-43,-58,-48,-58
-68,-58,9,63,-39,-24,0,-29,-39,-58,-48,-58
-73,-58,14,65,-43,-21,0,-29,-39,-58,-48,-58
-78,-58,19,68,-48,-19,0,-29,-39,-58,-48,-58
-78,-58,19,68,-48,-19,0,-29,-39,-53,-48,-58
-78,-58,19,68,-48,-19,0,-29,-39,-48,-48,-58
-73,-58,14,65,-43,-21,0,-29,-39,-48,-53,-58
-68,-58,9,63,-39,-24,0,-29,-39,-48,-58,-58
-58,-43,14,51,-36,-14,0,-29,-39,-53,-58,-58
-48,-29,19,39,-34,-4,0,-29,-39,-58,-58,-58
-58,-39,19,48,-39,-9,0,-29,-39,-58,-58,-58
-68,-48,19,58,-43,-14,0,-29,-39,-58,-58,-58
-68,-48,19,58,-43,-14,0,-34,-39,-58,-58,-58
-68,-48,19,58,-43,-14,0,-39,-39,-58,-58,-58
-68,-53,14,61,-41,-19,-4,-39,-43,-58,-58,-58
-68,-58,9,63,-39,-24,-9,-39,-48,-58,-58,-58
-68,-58,9,63,-39,-24,-9,-39,-48,-58,-53,-58
-68,-58,9,63,-39,-24,-9,-39,-48,-58,-48,-58
-68,-53,14,61,-41,-19,-4,-39,-48,-58,-48,-58
-68,-48,19,58,-43,-14,0,-39,-48,-58,-48,-58
-68,-48,19,58,-43,-14,0,-39,-48,-58,-48,-58
-68,-48,19,58,-43,-14,0,-39,-48,-58,-48,-58
-68,-48,19,58,-43,-14,-4,-39,-48,-58,-48,-58
-68,-48,19,58,-43,-14,-9,-39,-48,-58,-48,-58
-68,-48,19,58,-43,-14,-9,-39,-48,-53,-48,-58
-68,-48,19,58,-43,-14,-9,-39,-48,-48,-48,-58
-68,-48,19,58,-43,-14,-4,-39,-48,-48,-48,-53
-68,-48,19,58,-43,-14,0,-39,-48,-48,-48,-48
-68,-48,19,58,-43,-14,0,-34,-48,-48,-48,-48
-68,-48,19,58,-43,-14,0,-29,-48,-48,-48,-48
-68,-48,19,58,-43,-14,0,-29,-48,-48,-48,-53
-68,-48,19,58,-43,-14,0,-29,-48,-48,-48,-58
-68,-48,19,58,-43,-14,0,-29,-48,-53,-53,-58
-68,-48,19,58,-43,-14,0,-29,-48,-58,-58,-58
-68,-48,19,58,-43,-14,0,-29,-48,-58,-58,-58
-68,-48,19,58,-43,-14,0,-29,-48,-58,-58,-58
-68,-48,19,58,-43,-14,0,-29,-48,-53,-53,-53
-68,-48,19,58,-43,-14,0,-29,-48,-48,-48,-48
-68,-48,19,58,-43,-14,0,-29,-48,-48,-48,-48
-68,-48,19,58,-43,-14,0,-29,-48,-48,-48,-48
-68,-48,19,58,-43,-14,0,-29,-43,-48,-48,-48
-68,-48,19,58,-43,-14,0,-29,-39,-48,-48,-48
-63,-48,14,56,-39,-17,0,-29,-39,-48,-43,-48
-58,-39,19,48,-39,-9,0,-24,-34,-43,-39,-43
-53,-34,19,43,-36,-7,4,-19,-34,-43,-34,-39
-43,-19,24,31,-34,2,14,0,-14,-34,-19,-34
-39,-4,34,21,-36,14,29,14,-4,-24,-14,-24
-29,4,34,12,-31,19,39,24,4,-19,-4,-19
-24,9,34,7,-29,21,29,24,0,-19,-9,-14
-9,9,19,0,-14,14,19,24,-4,-14,-9,-14
0,19,19,-9,-9,19,4,19,0,-9,-9,-14
9,19,9,-14,0,14,0,14,0,0,-4,-4
14,29,14,-21,0,21,-14,14,4,4,0,0
24,43,19,-34,2,31,-34,9,14,9,4,4
24,34,9,-29,7,21,-39,-4,4,9,4,4
24,14,-9,-19,17,2,-48,-9,0,4,4,4
24,4,-19,-14,21,-7,-48,-14,-14,-9,-9,-4
29,-9,-39,-9,34,-24,-53,-24,-24,-19,-19,-14
29,-14,-43,-7,36,-29,-58,-39,-39,-34,-24,-24
29,-19,-48,-4,39,-34,-58,-53,-39,-39,-24,-24
14,-19,-34,2,24,-26,-53,-53,-39,-39,-29,-24
-14,-24,-9,19,-2,-17,-39,-43,-39,-39,-29,-24
-34,-24,9,29,-21,-7,-19,-29,-34,-34,-29,-24
-58,-43,14,51,-36,-14,-9,-24,-34,-34,-34,-34
-68,-48,19,58,-43,-14,-9,-24,-39,-39,-43,-43
-73,-53,19,63,-46,-17,-9,-34,-53,-48,-53,-48
-73,-58,14,65,-43,-21,-14,-43,-58,-53,-53,-48
-73,-63,9,68,-41,-26,-19,-48,-58,-53,-58,-48
-78,-68,9,73,-43,-29,-19,-48,-58,-53,-58,-53
-78,-73,4,75,-41,-34,-14,-53,-58,-58,-58,-53
-78,-78,0,78,-39,-39,-14,-53,-58,-58,-63,-53
-82,-87,-4,85,-39,-46,-14,-53,-58,-58,-63,-53
-82,-87,-4,85,-39,-46,-14,-53,-63,-63,-63,-58
-82,-87,-4,85,-39,-46,-14,-53,-63,-63,-63,-58
-87,-87,0,87,-43,-43,-9,-53,-63,-68,-68,-58
-87,-82,4,85,-46,-39,0,-53,-63,-68,-68,-58
-87,-78,9,82,-48,-34,0,-53,-63,-63,-63,-53
-87,-73,14,80,-51,-29,0,-53,-63,-53,-63,-48
-92,-73,19,82,-56,-26,0,-53,-63,-53,-58,-48
-92,-78,14,85,-53,-31,9,-39,-63,-53,-63,-53
-117,-92,24,104,-70,-34,29,-24,-63,-73,-78,-78
-151,-117,34,134,-92,-41,63,9,-63,-97,-112,-112
-175,-141,34,158,-104,-53,87,29,-53,-122,-136,-131
-185,-141,43,163,-114,-48,102,63,-19,-87,-107,-102
-146,-107,39,126,-92,-34,131,170,58,24,-19,-43
29,-34,-63,2,46,-48,131,346,200,234,151,82
273,73,-200,-173,236,-63,82,463,351,492,366,283
517,239,-278,-378,397,-19,-4,458,502,780,619,517
629,390,-239,-509,434,75,-156,278,566,932,761,668
566,463,-102,-514,334,180,-317,-102,400,683,585,585
439,414,-24,-427,231,195,-541,-756,-19,151,209,322
253,268,14,-261,119,141,-727,-1434,-492,-424,-219,-4
73,63,-9,-68,41,26,-839,-1864,-971,-858,-541,-258
-14,-73,-58,43,21,-65,-883,-1961,-1156,-995,-644,-336
34,-112,-146,39,90,-129,-868,-1800,-1161,-971,-619,-336
43,-112,-156,34,100,-134,-775,-1459,-1005,-819,-527,-297
43,-107,-151,31,97,-129,-585,-1029,-771,-634,-424,-258
24,-102,-126,39,75,-114,-375,-629,-546,-429,-302,-195
-9,-102,-92,56,41,-97,-224,-356,-370,-297,-229,-156
-39,-92,-53,65,7,-73,-136,-209,-268,-224,-190,-126
-43,-82,-39,63,-2,-61,-73,-117,-200,-175,-151,-107
-48,-73,-24,61,-12,-48,-19,-39,-136,-112,-107,-78
-53,-53,0,53,-26,-26,9,-9,-82,-68,-73,-58
-63,-53,9,58,-36,-21,14,4,-63,-58,-63,-53
-73,-53,19,63,-46,-17,34,24,-58,-48,-63,-53
-78,-58,19,68,-48,-19,43,34,-48,-43,-58,-53
-82,-58,24,70,-53,-17,48,48,-24,-29,-48,-48
-82,-58,24,70,-53,-17,53,48,-19,-29,-43,-43
-82,-58,24,70,-53,-17,53,53,-19,-29,-43,-39
-82,-58,24,70,-53,-17,58,73,-19,-29,-43,-39
-82,-58,24,70,-53,-17,63,73,-9,-24,-39,-39
-82,-58,24,70,-53,-17,63,78,-4,-24,-39,-39
-82,-53,29,68,-56,-12,63,78,-4,-19,-39,-39
-82,-53,29,68,-56,-12,68,82,-4,-19,-39,-39
-78,-53,24,65,-51,-14,68,87,0,-19,-39,-39
-73,-53,19,63,-46,-17,73,92,4,-14,-34,-34
-73,-53,19,63,-46,-17,78,97,4,-14,-34,-34
-73,-53,19,63,-46,-17,78,102,9,-14,-29,-34
-78,-53,24,65,-51,-14,78,102,9,-14,-29,-34
-82,-53,29,68,-56,-12,78,102,9,-14,-34,-34
-82,-58,24,70,-53,-17,73,102,9,-9,-34,-34
-82,-63,19,73,-51,-21,73,102,9,-9,-29,-34
-82,-63,19,73,-51,-21,73,112,4,-4,-24,-34
-82,-58,24,70,-53,-17,73,112,4,-4,-24,-34
-78,-53,24,65,-51,-14,78,117,9,0,-24,-34
-73,-48,24,61,-48,-12,87,117,9,0,-24,-29
-73,-48,24,61,-48,-12,92,122,14,0,-24,-29
-73,-48,24,61,-48,-12,97,126,14,0,-19,-29
-78,-48,29,63,-53,-9,97,126,19,4,-19,-24
-82,-48,34,65,-58,-7,97,122,19,4,-19,-24
-78,-43,34,61,-56,-4,92,126,19,4,-19,-24
-78,-43,34,61,-56,-4,87,126,19,9,-14,-24
-73,-43,29,58,-51,-7,87,136,24,9,-14,-24
-68,-39,29,53,-48,-4,87,141,34,9,-9,-24
-68,-39,29,53,-48,-4,92,146,39,14,-4,-19
-68,-34,34,51,-51,0,92,151,39,19,-4,-14
-68,-29,39,48,-53,4,92,156,43,24,-4,-9
-63,-24,39,43,-51,7,92,161,43,24,0,-9
-58,-19,39,39,-48,9,92,165,48,29,0,-9
-48,-14,34,31,-41,9,92,170,53,34,4,-4
-48,-14,34,31,-41,9,92,170,53,39,9,0
-39,-4,34,21,-36,14,87,175,53,43,14,0
-39,-4,34,21,-36,14,87,185,63,43,19,4
-29,4,34,12,-31,19,87,195,68,53,29,14
-29,4,34,12,-31,19,87,204,68,58,34,24
-19,4,24,7,-21,14,87,204,78,63,39,24
-9,14,24,-2,-17,19,82,214,78,78,43,29
-9,14,24,-2,-17,19,82,229,82,87,58,39
4,24,19,-14,-7,21,82,234,92,92,63,48
14,34,19,-24,-2,26,78,244,102,97,68,58
24,43,19,-34,2,31,68,248,107,107,78,63
39,53,14,-46,12,34,58,248,117,122,82,73
48,68,19,-58,14,43,53,263,122,136,97,82
63,82,19,-73,21,51,53,273,141,151,112,92
82,92,9,-87,36,51,53,287,151,161,122,107
102,117,14,-109,43,65,39,292,156,175,141,122
117,126,9,-122,53,68,29,307,165,200,156,141
136,146,9,-141,63,78,14,312,175,209,180,161
170,170,0,-170,85,85,4,312,185,229,185,175
185,190,4,-187,90,97,0,317,195,253,209,200
219,214,-4,-217,112,104,-14,317,214,273,234,219
244,229,-14,-236,129,107,-34,317,229,292,253,244
268,253,-14,-261,141,119,-53,317,239,302,268,268
302,273,-29,-287,165,122,-63,317,248,326,287,292
326,302,-24,-314,175,139,-78,307,253,336,307,312
351,326,-24,-339,187,151,-97,302,268,356,331,331
375,351,-24,-363,200,163,-112,292,268,375,351,346
400,366,-34,-383,217,165,-122,287,273,385,366,370
424,375,-48,-400,236,163,-141,278,278,400,385,380
439,390,-48,-414,244,170,-146,268,283,409,395,395
458,400,-58,-429,258,170,-161,258,287,419,400,405
463,409,-53,-436,258,178,-175,244,292,429,409,409
473,414,-58,-444,265,178,-185,224,292,434,414,414
478,414,-63,-446,270,175,-195,214,292,434,414,419
473,409,-63,-441,268,173,-195,195,287,434,414,414
463,405,-58,-434,261,173,-190,180,283,424,405,400
444,380,-63,-412,253,158,-180,161,268,405,390,390
424,361,-63,-392,244,148,-180,146,253,385,375,370
380,346,-34,-363,207,156,-170,131,239,366,356,351
341,317,-24,-329,183,146,-161,117,219,331,322,326
312,287,-24,-300,168,131,-141,102,195,302,287,283
273,258,-14,-265,143,122,-126,87,180,268,258,258
234,224,-9,-229,122,107,-107,73,165,234,224,229
200,195,-4,-197,102,95,-87,58,146,209,195,195
175,170,-4,-173,90,82,-78,48,122,175,161,161
146,141,-4,-143,75,68,-68,29,107,146,131,131
112,112,0,-112,56,56,-53,19,87,117,107,107
78,87,9,-82,34,48,-43,14,68,92,82,82
63,68,4,-65,29,36,-39,4,53,68,58,58
48,53,4,-51,21,29,-34,-4,34,53,39,43
34,39,4,-36,14,21,-29,-9,24,34,24,29
14,24,9,-19,2,17,-19,-19,9,14,14,14
0,19,19,-9,-9,19,-19,-19,0,0,4,4
-9,9,19,0,-14,14,-19,-24,-4,-4,0,0
-19,4,24,7,-21,14,-14,-24,-9,-14,-9,-14
-24,-4,19,14,-21,7,-14,-39,-19,-24,-19,-29
-24,-9,14,17,-19,2,-9,-39,-24,-34,-34,-34
-29,-19,9,24,-19,-4,-9,-39,-24,-34,-43,-39
-39,-19,19,29,-29,0,-9,-39,-29,-34,-43,-39
-39,-19,19,29,-29,0,-9,-34,-29,-39,-43,-39
-34,-24,9,29,-21,-7,-4,-34,-29,-43,-43,-39
-34,-29,4,31,-19,-12,-4,-34,-29,-43,-39,-39
-43,-29,14,36,-29,-7,-4,-34,-34,-43,-39,-43
-43,-29,14,36,-29,-7,-4,-34,-34,-43,-39,-43
-43,-34,9,39,-26,-12,-4,-34,-34,-43,-39,-43
-43,-34,9,39,-26,-12,-4,-29,-34,-48,-43,-43
-48,-34,14,41,-31,-9,-4,-29,-39,-48,-53,-53
-58,-34,24,46,-41,-4,0,-29,-39,-48,-58,-58
-58,-34,24,46,-41,-4,0,-34,-39,-53,-58,-58
-63,-34,29,48,-46,-2,0,-34,-43,-58,-53,-58
-63,-34,29,48,-46,-2,4,-34,-39,-58,-53,-58
-63,-34,29,48,-46,-2,9,-29,-39,-53,-53,-58
-63,-39,24,51,-43,-7,9,-24,-34,-53,-53,-58
-63,-43,19,53,-41,-12,9,-14,-24,-53,-53,-58
-63,-43,19,53,-41,-12,9,-14,-24,-48,-48,-58
-63,-43,19,53,-41,-12,14,-9,-19,-43,-48,-58
-68,-39,29,53,-48,-4,24,-9,-19,-39,-48,-53
-68,-34,34,51,-51,0,29,-4,-14,-39,-48,-48
-63,-29,34,46,-48,2,29,-4,-14,-39,-43,-48
-63,-29,34,46,-48,2,29,0,-14,-34,-43,-43
-63,-29,34,46,-48,2,29,0,-9,-39,-48,-48
-63,-29,34,46,-48,2,29,0,-9,-43,-53,-53
-63,-29,34,46,-48,2,34,0,-9,-43,-53,-48
-63,-24,39,43,-51,7,34,4,-9,-39,-48,-48
-58,-24,34,41,-46,4,34,4,-9,-39,-48,-48
-53,-29,24,41,-39,-2,34,4,-9,-39,-48,-48
-53,-29,24,41,-39,-2,34,9,-4,-39,-48,-48
-53,-29,24,41,-39,-2,34,9,-4,-39,-43,-43
-58,-34,24,46,-41,-4,29,9,-4,-34,-43,-43
-58,-39,19,48,-39,-9,29,9,-4,-34,-43,-43
-58,-39,19,48,-39,-9,29,9,-9,-29,-43,-43
-58,-39,19,48,-39,-9,29,9,-14,-29,-43,-43
-58,-39,19,48,-39,-9,34,9,-14,-29,-39,-43
-58,-39,19,48,-39,-9,34,9,-14,-29,-39,-43
-58,-39,19,48,-39,-9,34,9,-4,-24,-39,-43
-53,-39,14,46,-34,-12,39,9,0,-19,-39,-43
-53,-39,14,46,-34,-12,39,14,0,-19,-39,-43
-53,-39,14,46,-34,-12,39,14,0,-24,-43,-43
-53,-39,14,46,-34,-12,39,14,-9,-34,-43,-43
-53,-39,14,46,-34,-12,39,14,-14,-39,-43,-43
-53,-39,14,46,-34,-12,34,4,-14,-39,-43,-53
-53,-34,19,43,-36,-7,29,0,-19,-39,-43,-58
-53,-34,19,43,-36,-7,29,0,-19,-39,-43,-58
-58,-34,24,46,-41,-4,29,-4,-19,-39,-43,-58
-58,-43,14,51,-36,-14,29,0,-24,-39,-43,-48
-58,-48,9,53,-34,-19,24,0,-24,-39,-39,-39
-58,-48,9,53,-34,-19,29,0,-19,-39,-39,-43
-58,-48,9,53,-34,-19,39,0,-19,-43,-39,-43
-53,-43,9,48,-31,-17,39,0,-19,-43,-43,-43
-48,-43,4,46,-26,-19,34,-4,-19,-43,-43,-48
-48,-43,4,46,-26,-19,29,-9,-29,-48,-48,-53
-48,-43,4,46,-26,-19,29,-9,-34,-48,-53,-58
-58,-43,14,51,-36,-14,29,-9,-34,-48,-53,-58
-63,-43,19,53,-41,-12,29,-9,-39,-48,-53,-63
-63,-43,19,53,-41,-12,29,-14,-34,-48,-53,-63
-63,-43,19,53,-41,-12,29,-14,-29,-53,-53,-63
-63,-43,19,53,-41,-12,29,-14,-29,-53,-53,-63
-58,-48,9,53,-34,-19,24,-14,-29,-53,-53,-63
-58,-48,9,53,-34,-19,24,-19,-34,-53,-53,-63
-58,-48,9,53,-34,-19,29,-24,-43,-53,-58,-68
-58,-48,9,53,-34,-19,29,-29,-43,-63,-58,-68
-58,-48,9,53,-34,-19,29,-29,-43,-68,-58,-68
-63,-53,9,58,-36,-21,29,-29,-43,-68,-58,-68
-68,-58,9,63,-39,-24,29,-29,-43,-68,-58,-68
-68,-58,9,63,-39,-24,29,-29,-48,-68,-58,-68
-68,-58,9,63,-39,-24,29,-29,-48,-68,-58,-68
-73,-58,14,65,-43,-21,29,-29,-48,-68,-58,-68
-73,-53,19,63,-46,-17,29,-29,-48,-73,-58,-73
-73,-48,24,61,-48,-12,29,-29,-43,-68,-58,-73
-68,-48,19,58,-43,-14,29,-34,-39,-63,-53,-68
-68,-53,14,61,-41,-19,29,-34,-39,-63,-53,-68
-68,-58,9,63,-39,-24,29,-34,-39,-58,-53,-68
-68,-58,9,63,-39,-24,24,-34,-39,-63,-53,-73
-68,-58,9,63,-39,-24,19,-39,-39,-68,-58,-78
-68,-58,9,63,-39,-24,24,-39,-39,-68,-63,-78
-68,-58,9,63,-39,-24,29,-39,-39,-68,-68,-78
-68,-58,9,63,-39,-24,29,-39,-43,-68,-68,-73
-68,-58,9,63,-39,-24,29,-39,-48,-68,-68,-68
-68,-58,9,63,-39,-24,34,-39,-48,-68,-63,-68
-68,-58,9,63,-39,-24,39,-39,-48,-68,-58,-68
-68,-58,9,63,-39,-24,39,-39,-48,-68,-58,-68
-68,-58,9,63,-39,-24,39,-39,-48,-68,-58,-68
-68,-58,9,63,-39,-24,39,-39,-43,-68,-58,-68
-68,-58,9,63,-39,-24,39,-39,-39,-68,-58,-68
-68,-58,9,63,-39,-24,39,-39,-39,-68,-58,-68
-68,-58,9,63,-39,-24,39,-39,-39,-68,-58,-68
-68,-63,4,65,-36,-29,34,-39,-43,-73,-63,-73
-68,-68,0,68,-34,-34,29,-39,-48,-78,-68,-78
-68,-68,0,68,-34,-34,29,-48,-48,-78,-68,-78
-68,-68,0,68,-34,-34,29,-58,-48,-78,-68,-78
-73,-63,9,68,-41,-26,29,-48,-48,-73,-63,-78
-78,-58,19,68,-48,-19,29,-39,-48,-68,-58,-78
-78,-58,19,68,-48,-19,29,-39,-48,-68,-58,-78
-78,-58,19,68,-48,-19,29,-39,-48,-68,-58,-78
-78,-73,4,75,-41,-34,29,-39,-48,-73,-63,-78
-78,-87,-9,82,-34,-48,29,-39,-48,-78,-68,-78
-78,-78,0,78,-39,-39,34,-39,-48,-78,-68,-78
-78,-68,9,73,-43,-29,39,-39,-48,-78,-68,-78
-78,-68,9,73,-43,-29,39,-39,-48,-78,-68,-78
-78,-68,9,73,-43,-29,39,-39,-48,-78,-68,-78
-78,-68,9,73,-43,-29,39,-39,-48,-78,-68,-78
-78,-68,9,73,-43,-29,39,-39,-48,-78,-68,-78
-73,-63,9,68,-41,-26,39,-39,-48,-73,-68,-78
-68,-58,9,63,-39,-24,39,-39,-48,-68,-68,-78
-68,-58,9,63,-39,-24,39,-39,-48,-68,-68,-73
-68,-58,9,63,-39,-24,39,-39,-48,-68,-68,-68
-68,-58,9,63,-39,-24,39,-39,-48,-68,-68,-68
-68,-58,9,63,-39,-24,39,-39,-48,-68,-68,-68
-68,-58,9,63,-39,-24,34,-39,-48,-68,-68,-73
-68,-58,9,63,-39,-24,29,-39,-48,-68,-68,-78
-68,-58,9,63,-39,-24,29,-39,-48,-63,-68,-78
-68,-58,9,63,-39,-24,29,-39,-48,-58,-68,-78
-68,-53,14,61,-41,-19,34,-39,-48,-58,-68,-78
-58,-43,14,51,-36,-14,43,-29,-39,-53,-63,-73
-53,-39,14,46,-34,-12,53,-19,-34,-48,-58,-73
-53,-29,24,41,-39,-2,68,-4,-24,-43,-53,-63
-48,-24,24,36,-36,0,78,4,-9,-39,-43,-58
-43,-19,24,31,-34,2,78,4,-4,-39,-43,-53
-29,-14,14,21,-21,0,68,0,-4,-34,-39,-53
-19,0,19,9,-19,9,43,-4,0,-34,-39,-53
-9,0,9,4,-9,4,39,-4,-4,-29,-34,-43
-4,9,14,-2,-9,12,24,-4,-4,-24,-29,-39
-9,19,29,-4,-19,24,4,-9,4,-19,-24,-34
-24,14,39,4,-31,26,0,-24,-4,-19,-24,-34
-9,4,14,2,-12,9,-4,-29,-9,-24,-19,-34
4,-4,-9,0,7,-7,0,-34,-24,-39,-29,-43
9,-19,-29,4,19,-24,-4,-39,-29,-43,-39,-48
9,-24,-34,7,21,-29,-9,-48,-39,-48,-43,-53
9,-29,-39,9,24,-34,-9,-63,-39,-48,-43,-53
0,-34,-34,17,17,-34,-4,-63,-39,-48,-48,-53
-24,-43,-19,34,-2,-31,9,-53,-39,-48,-48,-53
-43,-43,0,43,-21,-21,29,-39,-34,-48,-48,-53
-68,-63,4,65,-36,-29,39,-34,-34,-53,-53,-63
-78,-68,9,73,-43,-29,39,-34,-39,-58,-63,-73
-82,-78,4,80,-43,-36,39,-39,-53,-73,-73,-78
-82,-87,-4,85,-39,-46,34,-43,-58,-82,-73,-78
-82,-92,-9,87,-36,-51,29,-48,-63,-82,-78,-82
-87,-92,-4,90,-41,-48,29,-48,-68,-82,-78,-92
-87,-92,-4,90,-41,-48,34,-53,-68,-87,-78,-92
-87,-92,-4,90,-41,-48,34,-53,-68,-87,-82,-92
-92,-92,0,92,-46,-46,34,-58,-68,-87,-82,-92
-92,-87,4,90,-48,-41,34,-63,-73,-92,-82,-97
-92,-87,4,90,-48,-41,34,-63,-73,-92,-82,-97
-97,-92,4,95,-51,-43,34,-63,-73,-97,-87,-97
-97,-97,0,97,-48,-48,39,-63,-73,-97,-87,-97
-97,-102,-4,100,-46,-53,39,-63,-73,-97,-82,-97
-92,-102,-9,97,-41,-56,39,-63,-68,-87,-82,-97
-92,-102,-9,97,-41,-56,39,-63,-63,-82,-82,-97
-92,-107,-14,100,-39,-61,48,-39,-58,-82,-92,-102
-117,-122,-4,119,-56,-63,68,-14,-53,-102,-107,-126
-146,-146,0,146,-73,-73,102,19,-53,-122,-136,-156
-165,-170,-4,168,-80,-87,126,34,-53,-141,-156,-180
-156,-161,-4,158,-75,-82,136,53,-29,-97,-117,-151
-112,-122,-9,117,-51,-65,161,151,58,29,-14,-73
48,-48,-97,0,73,-73,161,326,204,244,175,73
292,63,-229,-178,261,-82,112,458,361,517,414,287
497,229,-268,-363,383,-19,48,478,522,795,649,507
575,380,-195,-478,385,92,-78,307,575,912,761,639
458,458,0,-458,229,229,-209,-4,429,653,561,536
273,424,151,-348,61,287,-400,-570,19,102,141,248
82,341,258,-212,-87,300,-575,-1229,-409,-439,-253,-43
-102,195,297,-46,-200,246,-673,-1659,-839,-834,-522,-258
-204,29,234,87,-219,131,-707,-1790,-1088,-1015,-644,-361
-165,-43,122,104,-143,39,-692,-1654,-1122,-1005,-639,-385
-141,-82,58,112,-100,-12,-634,-1371,-1000,-868,-575,-370
-131,-122,9,126,-70,-56,-478,-1029,-814,-712,-502,-356
-112,-122,-9,117,-51,-65,-283,-639,-585,-507,-370,-283
-107,-122,-14,114,-46,-68,-156,-361,-405,-366,-278,-234
-112,-102,9,107,-61,-46,-82,-214,-297,-278,-224,-195
-92,-82,9,87,-51,-36,-29,-126,-229,-224,-180,-165
-87,-82,4,85,-46,-39,14,-53,-161,-156,-136,-136
-82,-73,9,78,-46,-31,39,-19,-97,-107,-102,-112
-92,-73,19,82,-56,-26,43,-4,-73,-97,-92,-97
-97,-73,24,85,-61,-24,63,14,-68,-87,-92,-92
-92,-73,19,82,-56,-26,68,24,-58,-82,-87,-92
-92,-68,24,80,-58,-21,68,39,-34,-63,-78,-87
-87,-68,19,78,-53,-24,73,39,-29,-58,-68,-82
-82,-68,14,75,-48,-26,73,39,-29,-58,-63,-78
-82,-68,14,75,-48,-26,78,53,-29,-58,-63,-78
-82,-68,14,75,-48,-26,82,53,-19,-53,-58,-78
-82,-68,14,75,-48,-26,82,58,-14,-53,-58,-78
-82,-63,19,73,-51,-21,82,58,-14,-48,-58,-78
-82,-63,19,73,-51,-21,87,63,-14,-48,-58,-78
-82,-63,19,73,-51,-21,87,68,-9,-48,-58,-78
-82,-63,19,73,-51,-21,92,68,-4,-43,-58,-73
-82,-63,19,73,-51,-21,97,68,-4,-43,-63,-73
-82,-68,14,75,-48,-26,97,73,0,-43,-58,-73
-82,-73,9,78,-46,-31,97,73,0,-43,-58,-73
-82,-73,9,78,-46,-31,97,73,0,-48,-63,-73
-82,-73,9,78,-46,-31,97,73,0,-48,-63,-73
-82,-68,14,75,-48,-26,102,73,0,-53,-58,-73
-82,-63,19,73,-51,-21,102,82,0,-53,-53,-73
-82,-58,24,70,-53,-17,102,82,4,-53,-53,-73
-82,-58,24,70,-53,-17,102,87,9,-48,-53,-73
-82,-58,24,70,-53,-17,107,87,4,-43,-53,-68
-82,-58,24,70,-53,-17,107,92,4,-39,-53,-68
-82,-63,19,73,-51,-21,107,97,4,-39,-48,-68
-82,-68,14,75,-48,-26,107,102,9,-34,-48,-63
-82,-68,14,75,-48,-26,107,102,9,-34,-48,-63
-78,-63,14,70,-46,-24,107,107,9,-34,-48,-63
-78,-58,19,68,-48,-19,102,107,9,-29,-43,-63
-78,-53,24,65,-51,-14,97,117,9,-29,-43,-63
-73,-48,24,61,-48,-12,97,122,14,-29,-39,-63
-68,-48,19,58,-43,-14,102,126,19,-24,-34,-58
-68,-43,24,56,-46,-9,102,126,19,-19,-34,-53
-68,-43,24,56,-46,-9,102,126,24,-14,-34,-48
-68,-43,24,56,-46,-9,102,131,24,-14,-29,-48
-68,-39,29,53,-48,-4,102,136,29,-9,-29,-48
-58,-34,24,46,-41,-4,97,141,34,-4,-24,-43
-58,-34,24,46,-41,-4,92,146,39,0,-19,-39
-48,-24,24,36,-36,0,87,156,39,0,-19,-43
-48,-24,24,36,-36,0,87,165,43,0,-19,-43
-39,-14,24,26,-31,4,92,170,48,9,-9,-34
-39,-9,29,24,-34,9,97,175,48,9,-4,-24
-29,-4,24,17,-26,9,97,175,58,14,0,-24
-19,4,24,7,-21,14,92,185,63,29,4,-19
-19,0,19,9,-19,9,92,200,73,43,19,-9
-4,4,9,0,-7,7,92,204,82,53,24,0
4,14,9,-9,-2,12,87,209,92,58,29,9
9,24,14,-17,-2,19,82,214,97,68,43,14
19,34,14,-26,2,24,68,219,97,78,53,24
29,48,19,-39,4,34,53,234,92,87,68,39
39,58,19,-48,9,39,53,244,112,102,82,53
53,63,9,-58,21,36,53,253,122,112,92,68
73,87,14,-80,29,51,39,248,126,126,112,82
87,97,9,-92,39,53,29,258,136,151,126,102
112,117,4,-114,53,61,14,263,146,161,151,122
151,141,-9,-146,80,65,4,263,156,180,156,136
165,161,-4,-163,85,78,0,263,161,200,175,161
195,185,-9,-190,102,87,-14,258,170,214,195,180
214,195,-19,-204,117,87,-34,258,180,234,214,204
239,214,-24,-226,131,95,-53,258,190,244,229,224
268,229,-39,-248,153,95,-63,258,195,268,248,239
283,248,-34,-265,158,107,-78,248,195,278,268,253
302,268,-34,-285,168,117,-97,239,209,292,292,273
326,292,-34,-309,180,129,-112,224,209,307,307,287
351,312,-39,-331,195,136,-122,219,214,317,317,312
375,326,-48,-351,212,139,-141,209,219,331,336,322
390,341,-48,-366,219,146,-146,200,224,341,346,341
409,351,-58,-380,234,146,-161,190,229,351,356,361
419,361,-58,-390,239,151,-175,175,239,366,370,370
434,366,-68,-400,251,148,-185,156,244,375,375,375
439,366,-73,-402,256,146,-200,151,244,380,380,385
439,361,-78,-400,258,141,-204,136,239,385,385,390
434,361,-73,-397,253,143,-200,126,239,375,380,380
414,346,-68,-380,241,139,-190,112,234,361,370,370
395,331,-63,-363,229,134,-185,107,229,351,356,351
366,317,-48,-341,207,134,-170,102,219,336,336,331
351,297,-53,-324,202,122,-161,87,209,312,307,312
331,278,-53,-305,192,112,-146,68,195,292,283,273
292,253,-39,-273,165,107,-131,58,185,263,258,248
253,224,-29,-239,141,97,-112,53,170,234,224,219
214,195,-19,-204,117,87,-92,43,151,209,200,190
185,170,-14,-178,100,78,-78,39,131,175,170,161
156,141,-14,-148,85,63,-68,19,117,146,141,131
122,112,-9,-117,65,51,-53,9,97,117,117,107
82,82,0,-82,41,41,-43,4,78,92,92,82
63,58,-4,-61,34,26,-39,-4,63,68,68,58
43,43,0,-43,21,21,-29,-14,43,53,48,43
24,24,0,-24,12,12,-19,-19,34,34,29,24
4,4,0,-4,2,2,-9,-29,19,14,9,4
-9,0,9,4,-9,4,-9,-29,9,0,-4,-4
-19,-9,9,14,-14,0,-9,-34,9,-4,-9,-14
-29,-14,14,21,-21,0,-4,-34,9,-14,-19,-29
-34,-24,9,29,-21,-7,0,-43,0,-29,-29,-39
-34,-29,4,31,-19,-12,9,-39,-4,-43,-39,-43
-29,-39,-9,34,-9,-24,9,-39,-9,-48,-48,-53
-29,-39,-9,34,-9,-24,9,-39,-19,-53,-53,-58
-43,-43,0,43,-21,-21,9,-34,-19,-58,-53,-58
-53,-48,4,51,-29,-21,14,-34,-19,-63,-58,-58
-53,-48,4,51,-29,-21,14,-34,-19,-63,-58,-58
-63,-48,14,56,-39,-17,14,-34,-24,-63,-58,-63
-63,-43,19,53,-41,-12,14,-34,-24,-58,-58,-63
-63,-43,19,53,-41,-12,14,-34,-24,-53,-58,-63
-58,-43,14,51,-36,-14,14,-29,-24,-58,-58,-58
-53,-43,9,48,-31,-17,14,-29,-29,-58,-58,-58
-58,-43,14,51,-36,-14,19,-24,-29,-58,-58,-58
-58,-43,14,51,-36,-14,19,-19,-24,-58,-58,-58
-63,-43,19,53,-41,-12,19,-14,-24,-58,-53,-58
-63,-43,19,53,-41,-12,24,-14,-19,-58,-53,-58
-63,-43,19,53,-41,-12,24,-14,-19,-48,-53,-53
-63,-43,19,53,-41,-12,19,-19,-19,-43,-53,-48
-58,-43,14,51,-36,-14,19,-14,-14,-43,-53,-48
-53,-43,9,48,-31,-17,19,-14,-14,-43,-48,-48
-53,-43,9,48,-31,-17,19,-14,-9,-43,-43,-48
-58,-43,14,51,-36,-14,19,-19,-9,-39,-39,-48
-58,-43,14,51,-36,-14,19,-14,-4,-39,-39,-48
-53,-39,14,46,-34,-12,19,-14,-4,-39,-34,-48
-53,-39,14,46,-34,-12,19,-9,-4,-34,-34,-43
-53,-39,14,46,-34,-12,19,-9,0,-34,-34,-43
-53,-39,14,46,-34,-12,19,-9,0,-34,-34,-39
-53,-39,14,46,-34,-12,24,-9,0,-34,-34,-29
-53,-34,19,43,-36,-7,24,-4,0,-24,-29,-29
-53,-34,19,43,-36,-7,24,-4,0,-19,-29,-29
-53,-43,9,48,-31,-17,24,-4,-4,-19,-29,-34
-53,-48,4,51,-29,-21,24,0,-4,-19,-29,-39
-53,-48,4,51,-29,-21,24,0,-4,-24,-24,-34
-53,-48,4,51,-29,-21,19,0,-4,-24,-24,-34
-48,-43,4,46,-26,-19,19,0,-4,-24,-24,-34
-48,-39,9,43,-29,-14,19,0,-4,-19,-24,-34
-48,-39,9,43,-29,-14,19,0,0,-19,-24,-34
-48,-39,9,43,-29,-14,24,0,4,-19,-19,-34
-48,-39,9,43,-29,-14,29,0,4,-19,-19,-34
-48,-39,9,43,-29,-14,29,0,4,-19,-19,-34
-43,-39,4,41,-24,-17,29,0,-4,-19,-19,-34
-43,-39,4,41,-24,-17,29,0,-9,-19,-19,-34
-43,-39,4,41,-24,-17,29,-4,-9,-24,-29,-34
-43,-39,4,41,-24,-17,29,-4,-14,-29,-34,-34
-48,-39,9,43,-29,-14,29,-4,-14,-34,-34,-34
-53,-43,9,48,-31,-17,29,-9,-14,-39,-34,-39
-53,-48,4,51,-29,-21,29,-9,-19,-39,-34,-43
-53,-53,0,53,-26,-26,29,-9,-19,-39,-34,-48
-53,-53,0,53,-26,-26,29,-14,-19,-34,-34,-48
-48,-58,-9,53,-19,-34,29,-14,-24,-34,-39,-48
-48,-58,-9,53,-19,-34,24,-19,-24,-39,-43,-48
-48,-58,-9,53,-19,-34,24,-19,-24,-39,-48,-53
-53,-58,-4,56,-24,-31,29,-19,-29,-48,-48,-58
-58,-58,0,58,-29,-29,29,-19,-29,-53,-53,-58
-63,-63,0,63,-31,-31,24,-24,-29,-53,-48,-58
-68,-63,4,65,-36,-29,19,-29,-34,-58,-48,-63
-68,-63,4,65,-36,-29,19,-29,-34,-53,-53,-63
-73,-63,9,68,-41,-26,19,-29,-34,-48,-53,-58
-73,-63,9,68,-41,-26,19,-29,-39,-48,-53,-63
-73,-63,9,68,-41,-26,19,-34,-39,-48,-53,-63
-68,-63,4,65,-36,-29,19,-34,-34,-53,-53,-63
-68,-63,4,65,-36,-29,19,-34,-29,-53,-53,-63
-68,-63,4,65,-36,-29,14,-34,-29,-53,-53,-58
-68,-58,9,63,-39,-24,14,-34,-29,-53,-53,-53
-63,-58,4,61,-34,-26,19,-29,-34,-53,-58,-58
-58,-58,0,58,-29,-29,19,-29,-34,-58,-58,-58
-58,-63,-4,61,-26,-34,19,-29,-39,-63,-58,-58
-58,-68,-9,63,-24,-39,19,-29,-43,-68,-58,-58
-63,-68,-4,65,-29,-36,19,-29,-43,-68,-58,-58
-68,-68,0,68,-34,-34,19,-29,-48,-68,-58,-58
-68,-68,0,68,-34,-34,19,-29,-48,-63,-58,-58
-73,-73,0,73,-36,-36,19,-29,-48,-58,-58,-58
-73,-73,0,73,-36,-36,19,-29,-48,-63,-58,-63
-73,-68,4,70,-39,-31,19,-29,-48,-63,-63,-63
-68,-68,0,68,-34,-34,19,-34,-48,-63,-63,-58
-68,-68,0,68,-34,-34,19,-34,-48,-63,-63,-58
-68,-68,0,68,-34,-34,24,-34,-43,-58,-63,-58
-73,-68,4,70,-39,-31,24,-34,-39,-58,-58,-58
-68,-68,0,68,-34,-34,19,-34,-39,-63,-63,-63
-68,-68,0,68,-34,-34,19,-39,-39,-68,-68,-68
-68,-68,0,68,-34,-34,14,-39,-43,-68,-68,-68
-68,-68,0,68,-34,-34,9,-39,-48,-68,-68,-68
-68,-68,0,68,-34,-34,9,-39,-48,-68,-68,-68
-68,-68,0,68,-34,-34,9,-39,-48,-68,-68,-68
-68,-68,0,68,-34,-34,9,-39,-48,-68,-68,-63
-68,-68,0,68,-34,-34,9,-39,-48,-68,-68,-58
-68,-68,0,68,-34,-34,9,-39,-48,-68,-68,-58
-68,-68,0,68,-34,-34,9,-39,-48,-68,-68,-58
-68,-68,0,68,-34,-34,9,-39,-48,-68,-68,-63
-68,-68,0,68,-34,-34,9,-39,-48,-68,-68,-68
-68,-68,0,68,-34,-34,9,-43,-48,-68,-68,-68
-68,-68,0,68,-34,-34,9,-48,-48,-68,-68,-68
-68,-68,0,68,-34,-34,9,-48,-48,-68,-68,-68
-68,-68,0,68,-34,-34,9,-48,-48,-68,-68,-68
-68,-68,0,68,-34,-34,9,-48,-48,-68,-68,-63
-68,-68,0,68,-34,-34,9,-48,-48,-68,-68,-58
-68,-68,0,68,-34,-34,9,-48,-48,-68,-68,-58
-68,-68,0,68,-34,-34,9,-48,-48,-68,-68,-58
-68,-73,-4,70,-31,-39,14,-48,-53,-68,-68,-58
-68,-78,-9,73,-29,-43,19,-48,-58,-68,-68,-58
-68,-78,-9,73,-29,-43,19,-43,-58,-68,-68,-58
-68,-78,-9,73,-29,-43,19,-39,-58,-68,-68,-58
-68,-73,-4,70,-31,-39,19,-39,-53,-73,-68,-58
-68,-68,0,68,-34,-34,19,-39,-48,-78,-68,-58
-73,-68,4,70,-39,-31,19,-43,-48,-78,-68,-58
-78,-68,9,73,-43,-29,19,-48,-48,-78,-68,-58
-78,-68,9,73,-43,-29,19,-48,-48,-73,-68,-58
-78,-68,9,73,-43,-29,19,-48,-48,-68,-68,-58
-73,-68,4,70,-39,-31,9,-43,-43,-68,-63,-58
-68,-68,0,68,-34,-34,0,-39,-39,-68,-58,-58
-68,-63,4,65,-36,-29,0,-39,-39,-68,-58,-58
-58,-53,4,56,-31,-24,4,-34,-34,-58,-53,-53
-53,-48,4,51,-29,-21,14,-29,-29,-53,-48,-53
-53,-39,14,46,-34,-12,29,-24,-24,-43,-43,-43
-48,-34,14,41,-31,-9,39,-14,-14,-39,-34,-43
-43,-29,14,36,-29,-7,39,-14,-14,-39,-34,-43
-29,-29,0,29,-14,-14,48,-9,-14,-34,-29,-43
-19,-19,0,19,-9,-9,43,-4,-9,-34,-29,-43
-9,-14,-4,12,-2,-9,39,-4,-9,-29,-24,-34
-4,0,4,2,-4,2,24,-4,-4,-24,-19,-29
4,14,9,-9,-2,12,0,-9,4,-19,-14,-24
4,14,9,-9,-2,12,-9,-24,-4,-19,-14,-24
4,4,0,-4,2,2,-24,-29,-9,-24,-14,-24
4,-4,-9,0,7,-7,-29,-34,-24,-39,-29,-34
9,-19,-29,4,19,-24,-34,-43,-34,-48,-39,-43
9,-24,-34,7,21,-29,-39,-58,-48,-58,-43,-53
14,-29,-43,7,29,-36,-39,-68,-48,-58,-43,-53
9,-34,-43,12,26,-39,-34,-63,-48,-58,-48,-53
-14,-43,-29,29,7,-36,-19,-53,-48,-53,-48,-48
-34,-43,-9,39,-12,-26,0,-39,-43,-48,-48,-43
-58,-63,-4,61,-26,-34,9,-34,-43,-53,-53,-53
-68,-68,0,68,-34,-34,9,-34,-48,-58,-63,-63
-73,-78,-4,75,-34,-41,9,-43,-63,-73,-73,-73
-73,-87,-14,80,-29,-51,4,-53,-68,-82,-73,-78
-73,-92,-19,82,-26,-56,0,-58,-68,-82,-78,-78
-78,-92,-14,85,-31,-53,0,-58,-68,-82,-78,-82
-78,-92,-14,85,-31,-53,4,-63,-68,-87,-78,-82
-78,-92,-14,85,-31,-53,4,-63,-68,-87,-82,-82
-82,-97,-14,90,-34,-56,4,-63,-73,-92,-82,-82
-82,-97,-14,90,-34,-56,4,-63,-82,-102,-82,-87
-82,-97,-14,90,-34,-56,4,-63,-82,-102,-82,-87
-87,-102,-14,95,-36,-58,4,-63,-82,-107,-87,-87
-92,-102,-9,97,-41,-56,9,-68,-78,-107,-92,-87
-97,-102,-4,100,-46,-53,9,-73,-73,-107,-92,-87
-97,-102,-4,100,-46,-53,14,-73,-73,-102,-92,-87
-102,-102,0,102,-51,-51,19,-73,-73,-102,-92,-87
-92,-97,-4,95,-43,-51,29,-58,-73,-92,-92,-82
-107,-102,4,104,-56,-48,48,-43,-73,-102,-97,-97
-141,-126,14,134,-78,-56,82,-9,-78,-136,-141,-146
-165,-151,14,158,-90,-68,107,4,-82,-170,-175,-190
-195,-165,29,180,-112,-68,122,14,-63,-151,-156,-180
-190,-151,39,170,-114,-56,151,102,19,-48,-73,-122
-48,-97,-48,73,0,-73,161,312,170,165,102,14
175,-4,-180,-85,178,-92,122,478,331,439,326,219
453,170,-283,-312,368,-56,58,566,546,829,653,507
605,331,-273,-468,439,29,-68,463,653,1058,858,707
575,453,-122,-514,348,165,-229,151,522,844,712,658
478,463,-14,-470,246,224,-448,-414,126,336,346,424
278,346,68,-312,104,207,-649,-1161,-405,-336,-151,63
82,165,82,-124,0,124,-771,-1678,-936,-863,-522,-219
-43,-4,39,24,-41,17,-819,-1864,-1220,-1083,-668,-336
-29,-82,-53,56,12,-68,-819,-1781,-1288,-1112,-688,-375
-14,-97,-82,56,34,-90,-766,-1468,-1141,-961,-614,-341
-14,-112,-97,63,41,-104,-614,-1098,-932,-790,-531,-307
-19,-117,-97,68,39,-107,-375,-673,-663,-556,-390,-244
-39,-122,-82,80,21,-102,-204,-361,-444,-385,-287,-204
-63,-112,-48,87,-7,-80,-126,-214,-326,-297,-239,-175
-63,-102,-39,82,-12,-70,-68,-126,-248,-244,-200,-156
-63,-92,-29,78,-17,-61,-14,-53,-180,-170,-146,-126
-63,-73,-9,68,-26,-41,19,-19,-117,-117,-102,-102
-73,-68,4,70,-39,-31,24,-4,-87,-107,-92,-92
-78,-63,14,70,-46,-24,43,14,-78,-97,-92,-92
-78,-68,9,73,-43,-29,53,24,-63,-92,-87,-92
-82,-68,14,75,-48,-26,58,39,-34,-73,-78,-87
-82,-68,14,75,-48,-26,63,34,-29,-68,-73,-82
-82,-68,14,75,-48,-26,63,29,-29,-68,-73,-78
-87,-68,19,78,-53,-24,68,43,-29,-63,-73,-73
-92,-68,24,80,-58,-21,73,43,-19,-53,-68,-68
-92,-73,19,82,-56,-26,73,48,-14,-53,-68,-68
-92,-73,19,82,-56,-26,73,48,-14,-48,-68,-68
-92,-73,19,82,-56,-26,78,58,-14,-48,-63,-68
-92,-73,19,82,-56,-26,78,68,-9,-48,-58,-68
-82,-68,14,75,-48,-26,87,73,-4,-43,-53,-63
-73,-63,9,68,-41,-26,97,78,-4,-43,-53,-63
-73,-63,9,68,-41,-26,97,82,0,-43,-48,-63
-73,-63,9,68,-41,-26,97,82,0,-43,-48,-63
-78,-63,14,70,-46,-24,97,82,0,-43,-53,-63
-82,-63,19,73,-51,-21,97,82,0,-39,-53,-63
-82,-63,19,73,-51,-21,97,82,0,-39,-48,-63
-82,-63,19,73,-51,-21,92,92,0,-34,-43,-63
-82,-58,24,70,-53,-17,92,92,4,-34,-43,-58
-82,-58,24,70,-53,-17,92,97,9,-29,-43,-53
-82,-58,24,70,-53,-17,97,97,9,-29,-43,-48
-82,-58,24,70,-53,-17,97,102,14,-29,-43,-48
-82,-58,24,70,-53,-17,97,107,14,-29,-39,-48
-82,-58,24,70,-53,-17,97,112,19,-24,-39,-43
-82,-58,24,70,-53,-17,97,112,19,-24,-39,-48
-78,-53,24,65,-51,-14,97,117,19,-24,-39,-53
-78,-58,19,68,-48,-19,97,117,19,-19,-34,-53
-78,-63,14,70,-46,-24,97,126,19,-19,-34,-53
-78,-58,19,68,-48,-19,97,131,24,-19,-29,-53
-78,-58,19,68,-48,-19,102,136,29,-14,-24,-48
-78,-53,24,65,-51,-14,102,141,29,-4,-19,-43
-78,-53,24,65,-51,-14,102,146,34,4,-14,-39
-73,-53,19,63,-46,-17,102,151,34,4,-9,-39
-68,-48,19,58,-43,-14,102,156,39,9,-9,-39
-58,-39,19,48,-39,-9,102,161,43,14,-4,-29
-58,-34,24,46,-41,-4,102,165,48,19,0,-19
-48,-24,24,36,-36,0,97,175,53,19,4,-19
-48,-24,24,36,-36,0,97,185,63,19,9,-14
-39,-19,19,29,-29,0,97,195,68,34,14,-4
-39,-19,19,29,-29,0,97,204,68,39,14,4
-29,-14,14,21,-21,0,97,204,78,43,19,4
-19,-4,14,12,-17,4,92,214,82,58,24,9
-19,-4,14,12,-17,4,92,229,92,68,39,19
-4,4,9,0,-7,7,92,234,102,73,43,29
4,9,4,-7,0,7,87,244,112,78,48,34
9,14,4,-12,2,9,82,253,117,87,63,34
19,24,4,-21,7,14,82,258,126,102,73,43
29,39,9,-34,9,24,82,273,131,117,87,58
34,53,19,-43,7,36,82,283,151,131,97,73
43,63,19,-53,12,41,82,292,161,141,102,87
63,87,24,-75,19,56,73,292,165,151,122,97
78,97,19,-87,29,58,68,307,175,170,136,112
92,112,19,-102,36,65,53,312,185,175,156,126
122,131,9,-126,56,70,43,312,195,190,156,136
126,151,24,-139,51,87,43,317,200,214,180,161
146,175,29,-161,58,102,34,317,209,234,204,180
156,185,29,-170,63,107,14,317,219,248,219,200
170,204,34,-187,68,119,-4,317,229,253,229,214
204,224,19,-214,92,122,-14,317,239,278,244,234
224,248,24,-236,100,136,-29,307,244,287,258,253
244,268,24,-256,109,146,-48,302,258,307,283,273
268,292,24,-280,122,158,-63,292,258,326,297,287
292,302,9,-297,141,156,-73,287,258,336,307,312
317,307,-9,-312,163,148,-92,278,258,351,326,322
331,322,-9,-326,170,156,-92,268,263,361,336,336
351,331,-19,-341,185,156,-102,258,268,370,346,351
356,346,-9,-351,183,168,-117,239,273,380,366,366
366,356,-9,-361,187,173,-126,214,273,385,375,375
380,366,-14,-373,197,175,-151,204,278,390,385,385
390,370,-19,-380,204,175,-165,185,278,395,395,390
400,370,-29,-385,214,170,-165,170,278,400,395,390
395,356,-39,-375,217,158,-161,151,273,400,390,390
390,351,-39,-370,214,156,-170,136,268,390,385,380
375,346,-29,-361,202,158,-170,122,258,375,375,370
356,322,-34,-339,195,143,-161,112,248,356,351,361
331,297,-34,-314,183,131,-146,97,234,341,331,331
302,273,-29,-287,165,122,-136,78,219,312,307,307
273,244,-29,-258,151,107,-122,63,200,283,273,278
239,219,-19,-229,129,100,-107,48,175,258,244,244
214,200,-14,-207,114,92,-97,39,151,224,209,209
185,170,-14,-178,100,78,-87,24,136,195,180,175
151,141,-9,-146,80,65,-73,19,117,165,156,146
117,112,-4,-114,61,53,-58,14,97,136,131,122
102,87,-14,-95,58,36,-48,4,82,107,107,97
78,68,-9,-73,43,29,-43,-4,63,92,82,82
53,43,-9,-48,31,17,-39,-9,53,73,58,63
34,24,-9,-29,21,7,-29,-24,34,43,34,34
19,19,0,-19,9,9,-29,-29,19,19,14,14
9,4,-4,-7,7,0,-24,-34,9,9,9,4
0,-4,-4,2,2,-4,-14,-34,0,-4,0,-9
-9,-14,-4,12,-2,-9,-14,-48,-9,-14,-9,-19
-14,-19,-4,17,-4,-12,-9,-48,-14,-24,-19,-24
-19,-34,-14,26,-2,-24,-9,-48,-14,-24,-24,-29
-29,-39,-9,34,-9,-24,-9,-48,-19,-24,-24,-29
-29,-39,-9,34,-9,-24,-9,-39,-19,-29,-29,-29
-24,-39,-14,31,-4,-26,-4,-34,-19,-34,-39,-29
-24,-39,-14,31,-4,-26,0,-34,-19,-34,-39,-34
-34,-39,-4,36,-14,-21,4,-34,-24,-34,-39,-43
-39,-39,0,39,-19,-19,4,-34,-24,-39,-39,-43
-43,-43,0,43,-21,-21,4,-34,-24,-43,-39,-43
-43,-43,0,43,-21,-21,0,-29,-24,-48,-43,-43
-43,-43,0,43,-21,-21,-4,-29,-29,-48,-48,-48
-43,-43,0,43,-21,-21,0,-24,-29,-43,-48,-48
-39,-43,-4,41,-17,-24,0,-19,-24,-39,-48,-48
-43,-39,4,41,-24,-17,4,-14,-24,-39,-43,-43
-43,-34,9,39,-26,-12,14,-14,-19,-39,-43,-39
-43,-29,14,36,-29,-7,19,-9,-19,-34,-43,-39
-43,-24,19,34,-31,-2,19,-9,-19,-34,-43,-39
-43,-24,19,34,-31,-2,19,-4,-9,-29,-43,-39
-43,-24,19,34,-31,-2,19,-4,-4,-24,-39,-39
-43,-29,14,36,-29,-7,19,0,0,-24,-34,-39
-48,-34,14,41,-31,-9,19,0,0,-19,-29,-39
-48,-39,9,43,-29,-14,19,4,4,-19,-29,-39
-43,-39,4,41,-24,-17,19,4,4,-19,-24,-39
-43,-39,4,41,-24,-17,14,4,0,-14,-24,-34
-43,-39,4,41,-24,-17,9,0,0,-14,-24,-34
-39,-34,4,36,-21,-14,9,0,0,-14,-24,-34
-34,-29,4,31,-19,-12,14,0,0,-14,-24,-29
-34,-24,9,29,-21,-7,14,4,4,-9,-19,-29
-34,-24,9,29,-21,-7,14,4,9,-9,-19,-29
-34,-29,4,31,-19,-12,14,4,9,-9,-19,-29
-34,-29,4,31,-19,-12,14,9,14,-9,-19,-29
-34,-29,4,31,-19,-12,14,4,9,-14,-14,-24
-34,-29,4,31,-19,-12,9,0,4,-14,-14,-24
-29,-29,0,29,-14,-14,9,0,4,-14,-14,-24
-29,-29,0,29,-14,-14,9,0,4,-9,-14,-24
-29,-29,0,29,-14,-14,9,4,4,-9,-14,-24
-29,-29,0,29,-14,-14,14,9,4,-9,-9,-24
-34,-34,0,34,-17,-17,19,9,4,-9,-14,-24
-39,-39,0,39,-19,-19,19,9,4,-9,-19,-24
-34,-39,-4,36,-14,-21,19,9,0,-9,-19,-24
-34,-39,-4,36,-14,-21,19,9,0,-9,-19,-24
-34,-39,-4,36,-14,-21,19,4,0,-14,-24,-24
-34,-39,-4,36,-14,-21,19,4,-4,-19,-24,-24
-39,-39,0,39,-19,-19,19,4,-4,-19,-24,-24
-43,-43,0,43,-21,-21,19,0,-4,-19,-24,-29
-43,-43,0,43,-21,-21,19,-4,-9,-19,-29,-34
-43,-43,0,43,-21,-21,19,-9,-9,-19,-34,-39
-48,-43,4,46,-26,-19,19,-14,-9,-19,-34,-39
-48,-48,0,48,-24,-24,19,-14,-14,-24,-39,-39
-48,-48,0,48,-24,-24,14,-19,-14,-29,-39,-39
-48,-48,0,48,-24,-24,14,-19,-14,-29,-39,-43
-48,-48,0,48,-24,-24,19,-19,-19,-34,-39,-43
-48,-48,0,48,-24,-24,19,-19,-19,-34,-43,-39
-43,-48,-4,46,-19,-26,14,-24,-19,-34,-39,-39
-39,-43,-4,41,-17,-24,9,-29,-24,-39,-39,-43
-39,-43,-4,41,-17,-24,9,-24,-24,-39,-43,-43
-43,-43,0,43,-21,-21,9,-19,-24,-39,-43,-39
-48,-43,4,46,-26,-19,9,-19,-29,-39,-43,-43
-53,-43,9,48,-31,-17,9,-24,-29,-39,-43,-43
-53,-43,9,48,-31,-17,9,-24,-29,-43,-43,-43
-58,-43,14,51,-36,-14,9,-24,-29,-43,-43,-43
-58,-48,9,53,-34,-19,4,-24,-29,-43,-43,-43
-58,-48,9,53,-34,-19,4,-24,-29,-43,-43,-43
-58,-48,9,53,-34,-19,9,-24,-34,-43,-48,-48
-58,-48,9,53,-34,-19,9,-29,-34,-48,-48,-48
-58,-48,9,53,-34,-19,9,-29,-34,-48,-48,-48
-58,-48,9,53,-34,-19,9,-29,-34,-48,-48,-48
-58,-48,9,53,-34,-19,9,-29,-29,-48,-48,-48
-58,-48,9,53,-34,-19,9,-29,-29,-48,-48,-48
-58,-48,9,53,-34,-19,9,-29,-29,-43,-48,-48
-63,-53,9,58,-36,-21,9,-29,-29,-39,-48,-48
-53,-53,0,53,-26,-26,14,-24,-29,-43,-43,-53
-43,-48,-4,46,-19,-26,19,-19,-29,-43,-43,-53
-48,-48,0,48,-24,-24,19,-24,-29,-43,-43,-48
-58,-48,9,53,-34,-19,19,-24,-29,-43,-43,-48
-58,-48,9,53,-34,-19,19,-24,-34,-43,-43,-48
-63,-48,14,56,-39,-17,14,-24,-39,-48,-39,-48
-58,-48,9,53,-34,-19,9,-24,-39,-48,-39,-48
-58,-48,9,53,-34,-19,9,-29,-39,-48,-39,-48
-58,-48,9,53,-34,-19,14,-29,-39,-48,-39,-48
-58,-48,9,53,-34,-19,19,-29,-39,-48,-39,-48
-58,-48,9,53,-34,-19,19,-29,-39,-48,-43,-48
-58,-48,9,53,-34,-19,19,-29,-39,-48,-48,-48
-58,-48,9,53,-34,-19,19,-29,-39,-48,-48,-48
-58,-48,9,53,-34,-19,19,-29,-39,-48,-48,-48
-58,-53,4,56,-31,-24,14,-29,-39,-48,-48,-48
-58,-58,0,58,-29,-29,9,-29,-39,-48,-48,-48
-63,-58,4,61,-34,-26,9,-34,-39,-48,-48,-53
-68,-58,9,63,-39,-24,9,-39,-39,-48,-48,-58
-68,-58,9,63,-39,-24,9,-39,-39,-48,-48,-58
-68,-58,9,63,-39,-24,9,-39,-39,-48,-48,-58
-63,-53,9,58,-36,-21,9,-39,-39,-48,-48,-53
-58,-48,9,53,-34,-19,9,-39,-39,-48,-48,-48
-58,-48,9,53,-34,-19,9,-39,-39,-48,-48,-48
-58,-48,9,53,-34,-19,9,-39,-39,-48,-48,-48
-63,-53,9,58,-36,-21,4,-39,-39,-48,-53,-48
-68,-58,9,63,-39,-24,0,-39,-39,-48,-58,-48
-68,-58,9,63,-39,-24,0,-39,-39,-48,-58,-48
-68,-58,9,63,-39,-24,0,-39,-39,-48,-58,-48
-58,-53,4,56,-31,-24,4,-39,-39,-48,-53,-48
-48,-48,0,48,-24,-24,9,-39,-39,-48,-48,-48
-48,-48,0,48,-24,-24,9,-39,-39,-48,-48,-48
-48,-48,0,48,-24,-24,9,-39,-39,-48,-48,-48
-48,-48,0,48,-24,-24,4,-39,-39,-48,-48,-53
-48,-48,0,48,-24,-24,0,-39,-39,-48,-48,-58
-53,-53,0,53,-26,-26,0,-43,-39,-48,-48,-58
-58,-58,0,58,-29,-29,0,-48,-39,-48,-48,-58
-63,-58,4,61,-34,-26,0,-48,-39,-48,-48,-58
-68,-58,9,63,-39,-24,0,-48,-39,-48,-48,-58
-68,-58,9,63,-39,-24,0,-48,-39,-48,-48,-53
-68,-58,9,63,-39,-24,0,-48,-39,-48,-48,-48
-68,-58,9,63,-39,-24,0,-53,-39,-48,-53,-48
-68,-58,9,63,-39,-24,0,-58,-39,-48,-58,-48
-63,-58,4,61,-34,-26,0,-58,-43,-48,-58,-48
-58,-58,0,58,-29,-29,0,-58,-48,-48,-58,-48
-58,-58,0,58,-29,-29,0,-58,-48,-53,-58,-48
-58,-58,0,58,-29,-29,0,-58,-48,-58,-58,-48
-58,-53,4,56,-31,-24,0,-58,-43,-58,-53,-48
-58,-48,9,53,-34,-19,0,-58,-39,-58,-48,-48
-58,-48,9,53,-34,-19,0,-58,-39,-53,-48,-48
-58,-48,9,53,-34,-19,0,-58,-39,-48,-48,-48
-58,-53,4,56,-31,-24,-4,-63,-39,-48,-48,-53
-58,-58,0,58,-29,-29,-9,-68,-39,-48,-48,-58
-58,-58,0,58,-29,-29,-9,-68,-39,-48,-48,-58
-58,-58,0,58,-29,-29,-9,-68,-39,-48,-48,-58
-63,-58,4,61,-34,-26,-4,-68,-39,-48,-48,-53
-68,-58,9,63,-39,-24,0,-68,-39,-48,-48,-48
-68,-58,9,63,-39,-24,0,-68,-39,-48,-48,-48
-68,-58,9,63,-39,-24,0,-68,-39,-48,-48,-48
-68,-58,9,63,-39,-24,0,-68,-39,-53,-53,-53
-68,-58,9,63,-39,-24,0,-68,-39,-58,-58,-58
-63,-58,4,61,-34,-26,0,-68,-39,-58,-58,-58
-58,-58,0,58,-29,-29,0,-68,-39,-58,-58,-58
-58,-58,0,58,-29,-29,0,-68,-43,-58,-58,-58
-58,-58,0,58,-29,-29,0,-68,-48,-58,-58,-58
-68,-63,4,65,-36,-29,0,-68,-48,-58,-58,-58
-78,-68,9,73,-43,-29,0,-68,-48,-58,-58,-58
-68,-68,0,68,-34,-34,0,-68,-48,-58,-58,-58
-58,-68,-9,63,-24,-39,0,-68,-48,-58,-58,-58
-58,-63,-4,61,-26,-34,-4,-73,-48,-63,-58,-58
-48,-53,-4,51,-21,-29,0,-63,-39,-58,-53,-53
-43,-48,-4,46,-19,-26,4,-58,-34,-53,-48,-53
-43,-39,4,41,-24,-17,19,-43,-24,-43,-43,-43
-43,-34,9,39,-26,-12,34,-34,-9,-34,-29,-39
-43,-29,14,36,-29,-7,39,-34,-4,-29,-24,-34
-29,-29,0,29,-14,-14,43,-34,-4,-24,-19,-34
-19,-19,0,19,-9,-9,34,-34,0,-24,-19,-34
-9,-19,-9,14,0,-14,29,-24,0,-19,-14,-24
-4,-9,-4,7,0,-7,14,-14,4,-14,-9,-19
4,9,4,-7,0,7,-4,-19,19,-4,0,-9
4,14,9,-9,-2,12,-9,-34,14,0,4,-4
9,4,-4,-7,7,0,-19,-39,9,-4,4,-4
14,-4,-19,-4,17,-12,-19,-43,-4,-19,-9,-14
19,-19,-39,0,29,-29,-29,-53,-19,-34,-24,-24
19,-24,-43,2,31,-34,-39,-68,-39,-48,-34,-34
24,-29,-53,2,39,-41,-39,-87,-39,-48,-34,-34
19,-34,-53,7,36,-43,-34,-92,-39,-48,-39,-34
-4,-43,-39,24,17,-41,-19,-82,-39,-43,-39,-34
-24,-43,-19,34,-2,-31,0,-68,-34,-39,-39,-34
-48,-63,-14,56,-17,-39,19,-58,-34,-43,-43,-43
-58,-68,-9,63,-24,-39,29,-53,-39,-48,-53,-53
-63,-73,-9,68,-26,-41,19,-63,-53,-63,-63,-58
-63,-78,-14,70,-24,-46,4,-73,-58,-73,-63,-58
-63,-82,-19,73,-21,-51,0,-82,-58,-73,-68,-63
-68,-82,-14,75,-26,-48,0,-87,-58,-73,-68,-73
-73,-82,-9,78,-31,-46,4,-92,-58,-78,-68,-73
-78,-82,-4,80,-36,-43,4,-92,-58,-78,-73,-73
-82,-87,-4,85,-39,-46,4,-87,-58,-78,-73,-73
-82,-87,-4,85,-39,-46,4,-82,-63,-82,-73,-78
-82,-87,-4,85,-39,-46,4,-82,-68,-82,-73,-78
-87,-92,-4,90,-41,-48,4,-82,-73,-87,-78,-78
-82,-87,-4,85,-39,-46,14,-82,-73,-87,-78,-78
-78,-82,-4,80,-36,-43,19,-82,-73,-87,-73,-78
-73,-82,-9,78,-31,-46,19,-87,-68,-82,-68,-78
-73,-82,-9,78,-31,-46,19,-92,-63,-82,-63,-78
-73,-87,-14,80,-29,-51,19,-82,-63,-73,-73,-68
-97,-102,-4,100,-46,-53,29,-73,-63,-82,-87,-78
-136,-126,9,131,-73,-58,63,-39,-68,-117,-131,-122
-165,-151,14,158,-90,-68,87,-24,-73,-151,-165,-161
-214,-170,43,192,-129,-63,107,-39,-82,-175,-180,-185
-229,-161,68,195,-148,-46,141,24,-29,-117,-131,-161
-131,-136,-4,134,-63,-70,170,234,112,63,9,-58
48,-73,-122,12,85,-97,151,400,263,302,200,112
390,117,-273,-253,331,-78,92,551,527,775,595,439
605,292,-312,-448,458,-9,-29,512,683,1088,868,678
624,444,-180,-534,402,131,-180,268,629,995,824,717
575,483,-92,-529,334,195,-390,-229,312,610,561,570
375,366,-9,-370,192,178,-614,-1044,-258,-131,4,170
180,185,4,-183,87,95,-761,-1629,-829,-727,-424,-151
24,0,-24,-12,24,-12,-844,-1922,-1195,-1034,-629,-302
9,-92,-102,41,56,-97,-878,-1947,-1346,-1151,-707,-375
34,-97,-131,31,82,-114,-839,-1634,-1205,-1010,-634,-346
43,-102,-146,29,95,-124,-702,-1263,-1000,-849,-551,-317
24,-112,-136,43,80,-124,-439,-800,-722,-600,-405,-253
-9,-122,-112,65,51,-117,-244,-448,-492,-414,-297,-214
-39,-112,-73,75,17,-92,-151,-278,-361,-312,-239,-180
-43,-102,-58,73,7,-80,-78,-165,-268,-244,-190,-156
-48,-92,-43,70,-2,-68,-14,-73,-190,-170,-146,-122
-53,-73,-19,63,-17,-46,29,-19,-117,-117,-112,-92
-63,-68,-4,65,-29,-36,34,-4,-82,-97,-92,-78
-68,-63,4,65,-36,-29,53,14,-68,-78,-82,-73
-73,-68,4,70,-39,-31,63,24,-58,-73,-78,-73
-82,-68,14,75,-48,-26,68,39,-34,-53,-68,-68
-82,-68,14,75,-48,-26,78,39,-24,-43,-58,-63
-82,-68,14,75,-48,-26,82,39,-19,-39,-53,-58
-82,-73,9,78,-46,-31,87,58,-19,-39,-53,-58
-82,-78,4,80,-43,-36,92,63,-9,-34,-48,-58
-82,-78,4,80,-43,-36,92,68,-4,-39,-48,-58
-82,-73,9,78,-46,-31,92,68,-4,-39,-48,-58
-78,-73,4,75,-41,-34,97,73,-4,-39,-48,-58
-73,-73,0,73,-36,-36,97,78,0,-39,-48,-58
-73,-73,0,73,-36,-36,102,82,9,-34,-43,-53
-73,-73,0,73,-36,-36,107,87,14,-34,-43,-53
-78,-73,4,75,-41,-34,112,92,19,-34,-39,-53
-82,-73,9,78,-46,-31,117,92,19,-34,-39,-53
-82,-73,9,78,-46,-31,117,92,14,-34,-43,-53
-82,-73,9,78,-46,-31,117,92,9,-29,-43,-53
-82,-68,14,75,-48,-26,117,87,9,-29,-39,-53
-82,-63,19,73,-51,-21,112,92,9,-24,-34,-53
-82,-58,24,70,-53,-17,112,92,14,-24,-34,-53
-82,-58,24,70,-53,-17,112,97,19,-19,-34,-53
-82,-58,24,70,-53,-17,117,97,19,-14,-34,-48
-82,-58,24,70,-53,-17,117,102,24,-9,-34,-48
-82,-58,24,70,-53,-17,117,107,24,-9,-29,-48
-82,-58,24,70,-53,-17,117,112,29,-4,-29,-43
-82,-63,19,73,-51,-21,117,112,29,-4,-29,-43
-78,-63,14,70,-46,-24,117,117,29,-4,-29,-43
-78,-63,14,70,-46,-24,117,117,29,0,-29,-43
-78,-63,14,70,-46,-24,117,126,29,0,-34,-43
-78,-58,19,68,-48,-19,122,131,39,0,-29,-43
-78,-58,19,68,-48,-19,131,136,48,4,-24,-39
-78,-53,24,65,-51,-14,131,141,48,9,-24,-34
-78,-53,24,65,-51,-14,131,146,53,14,-24,-29
-73,-53,19,63,-46,-17,131,151,53,9,-19,-29
-68,-48,19,58,-43,-14,131,156,58,9,-19,-29
-58,-43,14,51,-36,-14,131,161,63,14,-9,-24
-58,-43,14,51,-36,-14,131,165,68,19,0,-19
-48,-34,14,41,-31,-9,126,175,73,29,4,-19
-48,-34,14,41,-31,-9,126,185,82,39,9,-14
-43,-24,19,34,-31,-2,126,195,82,53,19,-4
-48,-19,29,34,-39,4,126,204,78,58,24,4
-39,-14,24,26,-31,4,126,204,87,58,29,4
-29,-4,24,17,-26,9,122,214,92,68,34,9
-29,-4,24,17,-26,9,122,229,102,78,43,14
-14,4,19,4,-17,12,122,234,112,82,43,19
-4,9,14,-2,-9,12,117,244,122,87,43,29
0,14,14,-7,-7,14,112,253,126,97,53,34
4,24,19,-14,-7,21,112,258,136,112,63,43
9,39,29,-24,-9,34,112,273,141,126,78,58
19,53,34,-36,-7,43,112,283,161,141,92,68
34,63,29,-48,2,46,112,292,170,151,102,78
53,87,34,-70,9,61,97,292,175,161,122,92
68,97,29,-82,19,63,87,307,185,180,136,112
78,112,34,-95,21,73,73,312,195,185,161,131
102,131,29,-117,36,80,63,312,204,200,165,146
112,151,39,-131,36,95,63,317,214,224,185,170
136,175,39,-156,48,107,53,317,229,244,204,190
156,190,34,-173,61,112,34,317,239,263,224,214
180,214,34,-197,73,124,14,317,248,273,239,234
214,229,14,-222,100,122,4,317,258,302,258,253
234,248,14,-241,109,131,-9,307,263,317,278,273
253,268,14,-261,119,141,-29,302,278,336,302,292
278,292,14,-285,131,153,-43,292,278,356,317,307
302,312,9,-307,146,161,-53,292,283,366,326,331
326,326,0,-326,163,163,-73,287,287,380,346,341
346,341,-4,-344,175,168,-78,278,292,390,366,361
370,351,-19,-361,195,165,-92,268,297,400,385,380
380,366,-14,-373,197,175,-112,253,302,414,400,390
395,375,-19,-385,207,178,-126,234,302,424,405,395
405,385,-19,-395,212,183,-141,224,307,434,414,414
409,390,-19,-400,214,185,-146,204,307,444,424,429
414,390,-24,-402,219,183,-156,190,307,439,419,424
405,375,-29,-390,217,173,-161,170,302,429,409,419
400,366,-34,-383,217,165,-161,156,297,424,409,409
385,356,-29,-370,207,163,-151,141,287,414,405,400
375,336,-39,-356,207,148,-141,126,268,390,370,380
361,317,-43,-339,202,136,-126,107,244,370,341,341
322,287,-34,-305,178,126,-117,87,234,336,322,317
283,253,-29,-268,156,112,-102,73,219,302,292,287
248,224,-24,-236,136,100,-87,58,195,278,263,253
224,200,-24,-212,124,87,-78,48,170,244,229,219
190,170,-19,-180,104,75,-68,29,156,214,200,190
151,141,-9,-146,80,65,-53,19,136,185,175,165
117,112,-4,-114,61,53,-43,9,112,151,141,131
102,87,-14,-95,58,36,-39,-4,92,117,107,97
82,63,-19,-73,51,21,-34,-14,73,97,87,82
63,34,-29,-48,46,2,-29,-19,63,73,68,63
39,14,-24,-26,31,-4,-19,-29,43,48,43,39
19,9,-9,-14,14,0,-19,-29,29,29,24,24
9,0,-9,-4,9,-4,-19,-34,24,24,19,19
0,-4,-4,2,2,-4,-14,-34,19,14,9,9
-4,-14,-9,9,2,-12,-14,-48,4,0,0,-4
-4,-19,-14,12,4,-17,-9,-48,-4,-14,-9,-14
-14,-29,-14,21,0,-21,-9,-48,-4,-14,-14,-24
-29,-29,0,29,-14,-14,-9,-48,-9,-14,-14,-29
-29,-34,-4,31,-12,-19,-9,-43,-9,-24,-19,-29
-24,-39,-14,31,-4,-26,-4,-43,-9,-34,-29,-29
-24,-39,-14,31,-4,-26,-4,-43,-9,-34,-29,-29
-34,-39,-4,36,-14,-21,-4,-43,-14,-34,-29,-34
-34,-39,-4,36,-14,-21,0,-43,-14,-34,-29,-34
-34,-43,-9,39,-12,-26,4,-43,-14,-34,-29,-34
-34,-43,-9,39,-12,-26,4,-39,-14,-39,-34,-34
-34,-43,-9,39,-12,-26,4,-39,-19,-39,-39,-39
-39,-43,-4,41,-17,-24,9,-39,-24,-39,-43,-43
-39,-43,-4,41,-17,-24,9,-39,-24,-39,-48,-48
-43,-43,0,43,-21,-21,9,-34,-24,-39,-43,-48
-43,-43,0,43,-21,-21,14,-34,-19,-39,-43,-48
-43,-43,0,43,-21,-21,19,-29,-19,-34,-43,-48
-43,-43,0,43,-21,-21,19,-29,-19,-34,-43,-48
-43,-39,4,41,-24,-17,19,-24,-14,-34,-43,-48
-43,-34,9,39,-26,-12,19,-24,-14,-34,-39,-48
-43,-34,9,39,-26,-12,24,-14,-9,-34,-39,-48
-48,-34,14,41,-31,-9,29,-9,-9,-29,-39,-48
-48,-39,9,43,-29,-14,29,-4,-4,-29,-39,-48
-43,-39,4,41,-24,-17,29,-4,-4,-29,-34,-48
-43,-39,4,41,-24,-17,24,0,-4,-29,-34,-43
-43,-39,4,41,-24,-17,19,0,0,-34,-34,-43
-43,-39,4,41,-24,-17,19,0,0,-34,-34,-43
-43,-39,4,41,-24,-17,24,0,0,-34,-34,-39
-43,-34,9,39,-26,-12,24,4,0,-24,-29,-39
-43,-34,9,39,-26,-12,24,4,0,-19,-29,-39
-43,-39,4,41,-24,-17,24,4,0,-19,-29,-39
-43,-39,4,41,-24,-17,24,9,4,-19,-29,-39
-43,-39,4,41,-24,-17,24,9,4,-24,-24,-34
-43,-39,4,41,-24,-17,19,9,4,-24,-24,-34
-48,-39,9,43,-29,-14,24,9,4,-24,-24,-34
-58,-39,19,48,-39,-9,29,9,4,-19,-24,-34
-58,-39,19,48,-39,-9,29,9,4,-19,-24,-34
-58,-39,19,48,-39,-9,34,9,4,-19,-19,-34
-53,-39,14,46,-34,-12,34,9,4,-19,-19,-34
-48,-39,9,43,-29,-14,29,9,4,-19,-19,-34
-43,-39,4,41,-24,-17,29,9,0,-19,-19,-34
-43,-39,4,41,-24,-17,29,9,0,-19,-19,-34
-39,-39,0,39,-19,-19,29,4,0,-24,-24,-34
-34,-39,-4,36,-14,-21,29,4,-4,-29,-24,-34
-34,-39,-4,36,-14,-21,29,4,-4,-29,-24,-34
-34,-43,-9,39,-12,-26,29,0,-4,-29,-24,-39
-34,-43,-9,39,-12,-26,29,0,-9,-29,-24,-39
-34,-43,-9,39,-12,-26,29,0,-9,-29,-24,-39
-39,-43,-4,41,-17,-24,29,-4,-9,-29,-24,-39
-39,-48,-9,43,-14,-29,29,-4,-14,-34,-29,-39
-43,-48,-4,46,-19,-26,24,-9,-14,-39,-29,-39
-48,-48,0,48,-24,-24,24,-9,-14,-39,-29,-43
-48,-48,0,48,-24,-24,29,-9,-19,-43,-29,-48
-48,-48,0,48,-24,-24,29,-9,-19,-43,-34,-48
-48,-53,-4,51,-21,-29,24,-14,-19,-43,-34,-48
-48,-53,-4,51,-21,-29,19,-19,-24,-48,-39,-53
-48,-53,-4,51,-21,-29,19,-19,-24,-48,-43,-53
-53,-53,0,53,-26,-26,19,-19,-24,-48,-43,-48
-53,-53,0,53,-26,-26,19,-19,-29,-48,-43,-53
-53,-53,0,53,-26,-26,19,-24,-29,-48,-43,-53
-53,-53,0,53,-26,-26,19,-24,-29,-58,-48,-58
-58,-53,4,56,-31,-24,19,-24,-29,-63,-53,-63
-58,-58,0,58,-29,-29,14,-24,-29,-63,-53,-63
-58,-58,0,58,-29,-29,14,-24,-29,-63,-53,-63
-58,-58,0,58,-29,-29,19,-19,-34,-58,-53,-63
-58,-58,0,58,-29,-29,19,-19,-34,-58,-48,-58
-58,-58,0,58,-29,-29,19,-19,-29,-58,-48,-58
-58,-58,0,58,-29,-29,19,-19,-24,-58,-48,-58
-58,-58,0,58,-29,-29,19,-19,-24,-58,-48,-63
-58,-58,0,58,-29,-29,19,-19,-29,-58,-48,-68
-53,-58,-4,56,-24,-31,19,-19,-29,-58,-48,-68
-53,-63,-9,58,-21,-36,19,-19,-29,-58,-48,-68
-53,-63,-9,58,-21,-36,14,-24,-29,-63,-48,-73
-53,-58,-4,56,-24,-31,9,-29,-29,-63,-53,-73
-53,-58,-4,56,-24,-31,9,-34,-34,-63,-53,-68
-58,-58,0,58,-29,-29,9,-34,-39,-63,-53,-68
-58,-58,0,58,-29,-29,14,-34,-39,-58,-53,-68
-63,-58,4,61,-34,-26,14,-34,-39,-58,-48,-68
-58,-58,0,58,-29,-29,9,-29,-39,-58,-48,-68
-58,-58,0,58,-29,-29,9,-29,-39,-58,-48,-68
-58,-58,0,58,-29,-29,9,-29,-39,-63,-48,-68
-58,-58,0,58,-29,-29,9,-29,-39,-68,-48,-68
-48,-58,-9,53,-19,-34,14,-34,-39,-68,-53,-68
-39,-58,-19,48,-9,-39,19,-39,-39,-68,-58,-68
-48,-58,-9,53,-19,-34,19,-39,-39,-63,-58,-68
-58,-58,0,58,-29,-29,19,-39,-39,-58,-58,-68
-58,-58,0,58,-29,-29,19,-39,-39,-58,-58,-68
-58,-58,0,58,-29,-29,19,-39,-39,-58,-58,-68
-58,-58,0,58,-29,-29,19,-39,-39,-58,-58,-68
-58,-58,0,58,-29,-29,19,-39,-39,-58,-58,-68
-58,-58,0,58,-29,-29,19,-39,-39,-58,-58,-68
-58,-58,0,58,-29,-29,19,-39,-39,-58,-58,-68
-58,-58,0,58,-29,-29,14,-43,-39,-63,-58,-68
-58,-58,0,58,-29,-29,9,-48,-39,-68,-58,-68
-58,-58,0,58,-29,-29,9,-48,-39,-68,-58,-68
-58,-58,0,58,-29,-29,9,-48,-39,-68,-58,-68
-58,-53,4,56,-31,-24,9,-43,-39,-68,-58,-68
-58,-48,9,53,-34,-19,9,-39,-39,-68,-58,-68
-58,-48,9,53,-34,-19,9,-39,-39,-68,-58,-68
-58,-48,9,53,-34,-19,9,-39,-39,-68,-58,-68
-58,-48,9,53,-34,-19,9,-39,-39,-68,-58,-63
-58,-48,9,53,-34,-19,9,-39,-39,-68,-58,-58
-58,-48,9,53,-34,-19,9,-39,-39,-68,-58,-58
-58,-48,9,53,-34,-19,9,-39,-39,-68,-58,-58
-58,-48,9,53,-34,-19,4,-43,-39,-68,-58,-63
-58,-48,9,53,-34,-19,0,-48,-39,-68,-58,-68
-58,-53,4,56,-31,-24,0,-48,-39,-68,-58,-68
-58,-58,0,58,-29,-29,0,-48,-39,-68,-58,-68
-58,-58,0,58,-29,-29,0,-48,-39,-68,-58,-68
-58,-58,0,58,-29,-29,0,-48,-39,-68,-58,-68
-58,-58,0,58,-29,-29,0,-48,-43,-68,-58,-68
-58,-58,0,58,-29,-29,0,-48,-48,-68,-58,-68
-63,-58,4,61,-34,-26,0,-48,-48,-68,-58,-68
-68,-58,9,63,-39,-24,0,-48,-48,-68,-58,-68
-68,-53,14,61,-41,-19,0,-48,-48,-68,-58,-68
-68,-48,19,58,-43,-14,0,-48,-48,-68,-58,-68
-63,-48,14,56,-39,-17,0,-48,-43,-68,-58,-68
-58,-48,9,53,-34,-19,0,-48,-39,-68,-58,-68
-58,-53,4,56,-31,-24,0,-48,-39,-68,-58,-68
-58,-58,0,58,-29,-29,0,-48,-39,-68,-58,-68
-63,-58,4,61,-34,-26,0,-48,-39,-68,-58,-68
-68,-58,9,63,-39,-24,0,-48,-39,-68,-58,-68
-68,-58,9,63,-39,-24,0,-48,-39,-68,-58,-68
-68,-58,9,63,-39,-24,0,-48,-39,-68,-58,-68
-68,-53,14,61,-41,-19,0,-48,-39,-68,-58,-63
-68,-48,19,58,-43,-14,0,-48,-39,-68,-58,-58
-63,-48,14,56,-39,-17,4,-48,-39,-68,-58,-58
-58,-48,9,53,-34,-19,9,-48,-39,-68,-58,-58
-58,-48,9,53,-34,-19,9,-48,-43,-68,-58,-63
-58,-48,9,53,-34,-19,9,-48,-48,-68,-58,-68
-58,-53,4,56,-31,-24,9,-48,-48,-68,-58,-68
-58,-58,0,58,-29,-29,9,-48,-48,-68,-58,-68
-58,-58,0,58,-29,-29,9,-48,-43,-68,-58,-68
-58,-58,0,58,-29,-29,9,-48,-39,-68,-58,-68
-58,-58,0,58,-29,-29,9,-48,-39,-68,-58,-63
-58,-58,0,58,-29,-29,9,-48,-39,-68,-58,-58
-58,-58,0,58,-29,-29,9,-48,-39,-63,-53,-58
-58,-58,0,58,-29,-29,9,-48,-39,-58,-48,-58
-58,-58,0,58,-29,-29,9,-48,-39,-58,-48,-58
-58,-58,0,58,-29,-29,9,-48,-39,-58,-48,-58
-58,-58,0,58,-29,-29,0,-48,-43,-63,-53,-63
-58,-53,4,56,-31,-24,0,-48,-43,-63,-53,-63
-58,-53,4,56,-31,-24,-4,-53,-48,-63,-58,-63
-53,-48,4,51,-29,-21,4,-48,-34,-53,-48,-63
-53,-39,14,46,-34,-12,19,-24,-24,-43,-39,-48
-48,-34,14,41,-31,-9,29,-4,-14,-39,-24,-39
-43,-24,19,34,-31,-2,39,-4,-9,-39,-24,-34
-29,-19,9,24,-19,-4,48,-4,-4,-34,-19,-34
-19,-9,9,14,-14,0,43,0,0,-34,-19,-34
-9,-9,0,9,-4,-4,48,4,0,-29,-14,-24
0,4,4,-2,-2,4,34,9,4,-24,-9,-19
14,24,9,-19,2,17,14,9,14,-19,-4,-14
19,29,9,-24,4,19,0,-4,9,-9,-4,-14
24,24,0,-24,12,12,-19,-9,9,-4,-4,-14
24,14,-9,-19,17,2,-24,-14,-4,-19,-19,-24
29,0,-29,-14,29,-14,-34,-24,-14,-29,-29,-34
24,-9,-34,-7,29,-21,-39,-39,-34,-39,-34,-43
19,-19,-39,0,29,-29,-39,-53,-39,-39,-34,-43
9,-24,-34,7,21,-29,-34,-58,-39,-39,-34,-43
-14,-34,-19,24,2,-26,-19,-53,-39,-39,-29,-43
-34,-34,0,34,-17,-17,0,-39,-29,-43,-29,-43
-58,-53,4,56,-31,-24,9,-34,-24,-53,-34,-53
-68,-63,4,65,-36,-29,9,-34,-29,-58,-48,-63
-73,-73,0,73,-36,-36,9,-43,-43,-68,-63,-68
-73,-78,-4,75,-34,-41,4,-53,-48,-73,-63,-68
-73,-82,-9,78,-31,-46,0,-58,-48,-73,-68,-68
-73,-78,-4,75,-34,-41,4,-53,-48,-73,-68,-73
-68,-73,-4,70,-31,-39,14,-53,-48,-78,-68,-73
-68,-68,0,68,-34,-34,14,-53,-48,-78,-73,-73
-73,-68,4,70,-39,-31,14,-53,-48,-78,-73,-73
-73,-68,4,70,-39,-31,9,-58,-58,-78,-68,-78
-73,-68,4,70,-39,-31,4,-63,-63,-73,-63,-78
-78,-73,4,75,-41,-34,4,-63,-63,-78,-68,-78
-78,-73,4,75,-41,-34,9,-63,-63,-78,-68,-78
-78,-73,4,75,-41,-34,9,-63,-58,-78,-63,-78
-78,-73,4,75,-41,-34,9,-63,-53,-73,-63,-78
-82,-73,9,78,-46,-31,4,-73,-53,-73,-63,-73
-82,-78,4,80,-43,-36,9,-68,-53,-73,-73,-73
-107,-92,14,100,-61,-39,29,-53,-58,-92,-87,-97
-141,-117,24,129,-82,-46,63,-19,-63,-117,-122,-131
-170,-151,19,161,-95,-65,87,-24,-87,-180,-180,-185
-185,-161,24,173,-104,-68,102,-14,-87,-185,-185,-190
-239,-161,78,200,-158,-41,151,68,-19,-117,-136,-161
-156,-122,34,139,-95,-43,170,219,112,48,-4,-63
102,-34,-136,-34,119,-85,146,444,312,375,258,156
361,112,-248,-236,305,-68,82,546,512,732,561,409
585,322,-263,-453,424,29,-58,497,692,1102,883,707
634,453,-180,-544,407,136,-209,248,644,1073,888,771
556,463,-92,-509,324,185,-463,-409,204,497,483,517
419,375,-43,-397,231,165,-678,-1093,-287,-122,24,200
170,122,-48,-146,109,36,-814,-1712,-951,-785,-458,-170
14,-63,-78,24,46,-70,-883,-2000,-1322,-1151,-722,-366
63,-102,-165,19,114,-134,-912,-1893,-1346,-1141,-707,-370
73,-102,-175,14,124,-139,-863,-1605,-1210,-1005,-624,-336
73,-102,-175,14,124,-139,-653,-1156,-946,-800,-512,-297
53,-102,-156,24,104,-129,-424,-736,-692,-575,-380,-234
14,-107,-122,46,68,-114,-258,-419,-473,-400,-287,-195
-19,-102,-82,61,31,-92,-156,-229,-326,-283,-229,-165
-34,-92,-58,63,12,-75,-87,-136,-253,-234,-190,-146
-48,-82,-34,65,-7,-58,-29,-58,-185,-170,-146,-117
-58,-63,-4,61,-26,-34,4,-24,-107,-117,-97,-87
-73,-63,9,68,-41,-26,14,-4,-63,-97,-73,-73
-78,-63,14,70,-46,-24,43,14,-58,-87,-73,-73
-78,-68,9,73,-43,-29,63,24,-48,-82,-68,-73
-82,-68,14,75,-48,-26,68,48,-19,-58,-58,-68
-82,-68,14,75,-48,-26,73,58,-9,-48,-53,-63
-82,-63,19,73,-51,-21,73,58,-9,-43,-53,-58
-82,-58,24,70,-53,-17,78,73,-9,-39,-53,-58
-82,-58,24,70,-53,-17,82,73,-4,-34,-48,-58
-82,-58,24,70,-53,-17,82,78,-4,-34,-48,-58
-82,-53,29,68,-56,-12,82,73,-4,-34,-48,-58
-82,-53,29,68,-56,-12,87,73,-4,-39,-48,-58
-82,-53,29,68,-56,-12,87,78,0,-39,-48,-58
-82,-53,29,68,-56,-12,92,82,4,-34,-43,-53
-82,-53,29,68,-56,-12,97,87,9,-29,-43,-53
-82,-53,29,68,-56,-12,97,92,19,-24,-39,-53
-82,-58,24,70,-53,-17,97,92,19,-24,-39,-53
-82,-63,19,73,-51,-21,97,92,19,-24,-43,-53
-82,-63,19,73,-51,-21,97,92,19,-19,-43,-53
-82,-63,19,73,-51,-21,102,92,19,-19,-39,-53
-82,-63,19,73,-51,-21,97,107,19,-14,-34,-53
-82,-58,24,70,-53,-17,92,112,24,-14,-34,-53
-87,-58,29,73,-58,-14,92,117,29,-9,-34,-53
-92,-58,34,75,-63,-12,97,117,29,-9,-34,-48
-92,-53,39,73,-65,-7,97,122,34,-9,-34,-48
-92,-48,43,70,-68,-2,97,126,34,-9,-29,-48
-87,-48,39,68,-63,-4,102,131,39,-4,-29,-39
-82,-48,34,65,-58,-7,107,131,39,-4,-29,-34
-78,-43,34,61,-56,-4,107,136,39,-4,-29,-34
-78,-43,34,61,-56,-4,107,136,39,0,-24,-34
-78,-43,34,61,-56,-4,107,146,39,0,-24,-34
-78,-39,39,58,-58,0,107,151,43,0,-19,-34
-78,-39,39,58,-58,0,112,156,48,4,-14,-29
-78,-34,43,56,-61,4,112,161,48,9,-14,-24
-82,-39,43,61,-63,2,112,165,53,14,-14,-24
-82,-43,39,63,-61,-2,112,170,53,14,-9,-29
-78,-39,39,58,-58,0,112,175,58,19,-9,-29
-68,-34,34,51,-51,0,112,180,63,24,-4,-24
-68,-29,39,48,-53,4,112,185,68,29,0,-19
-58,-14,43,36,-51,14,107,195,73,34,4,-19
-58,-14,43,36,-51,14,107,204,87,34,9,-14
-48,-4,43,26,-46,19,107,214,97,43,19,-4
-53,0,53,26,-53,26,107,229,97,48,24,4
-48,4,53,21,-51,29,107,234,107,53,29,4
-39,14,53,12,-46,34,107,244,112,68,34,9
-39,14,53,12,-46,34,112,258,122,78,48,19
-24,19,43,2,-34,31,117,263,131,87,53,29
-14,24,39,-4,-26,31,117,273,141,97,58,39
-9,34,43,-12,-26,39,112,283,146,107,73,43
0,43,43,-21,-21,43,107,287,156,122,82,53
9,58,48,-34,-19,53,97,302,161,136,97,68
24,73,48,-48,-12,61,92,312,180,151,112,82
43,82,39,-63,2,61,92,326,190,161,122,97
63,107,43,-85,9,75,78,331,195,175,141,112
68,112,43,-90,12,78,78,346,209,200,156,131
78,126,48,-102,14,87,73,351,224,209,180,151
112,151,39,-131,36,95,63,351,234,229,185,165
126,170,43,-148,41,107,58,356,244,253,209,190
151,200,48,-175,51,124,43,361,263,278,234,209
165,219,53,-192,56,136,24,366,278,302,253,234
190,244,53,-217,68,148,4,366,287,312,268,253
224,263,39,-244,92,151,-4,366,297,336,287,273
244,283,39,-263,102,161,-14,361,302,346,307,292
263,297,34,-280,114,165,-29,361,317,366,331,312
287,322,34,-305,126,178,-43,351,317,390,351,331
312,336,24,-324,143,180,-53,346,322,405,366,361
336,351,14,-344,161,183,-78,336,331,419,390,375
351,370,19,-361,165,195,-87,326,341,429,405,395
375,380,4,-378,185,192,-102,322,346,444,414,409
385,390,4,-387,190,197,-117,312,351,458,429,419
400,400,0,-400,200,200,-126,292,351,468,439,429
409,405,-4,-407,207,200,-136,283,351,473,444,439
419,409,-9,-414,214,200,-141,258,346,473,448,444
424,414,-9,-419,217,202,-141,239,341,463,444,439
414,395,-19,-405,217,187,-141,214,331,448,429,429
405,380,-24,-392,214,178,-151,195,322,434,414,409
375,366,-9,-370,192,178,-146,175,307,419,400,395
351,336,-14,-344,183,161,-141,156,287,390,370,375
322,307,-14,-314,168,146,-126,136,258,361,341,331
283,278,-4,-280,143,136,-117,117,239,326,317,307
244,244,0,-244,122,122,-102,97,219,287,278,278
209,214,4,-212,102,109,-87,78,195,258,244,244
185,185,0,-185,92,92,-78,68,165,219,204,204
156,151,-4,-153,80,73,-68,48,146,185,170,170
126,122,-4,-124,65,58,-53,34,122,151,146,141
97,97,0,-97,48,48,-43,24,97,122,122,112
82,78,-4,-80,43,36,-39,14,82,97,97,87
68,63,-4,-65,36,29,-34,4,63,82,78,73
48,43,-4,-46,26,19,-24,-4,48,58,53,48
24,24,0,-24,12,12,-9,-19,29,34,34,24
9,14,4,-12,2,9,-9,-19,19,19,19,9
0,0,0,0,0,0,-9,-24,14,14,9,0
-9,-4,4,7,-7,0,-4,-24,9,4,0,-9
-14,-14,0,14,-7,-7,-4,-39,0,-4,-9,-19
-19,-24,-4,21,-7,-14,0,-43,-4,-19,-19,-29
-29,-39,-9,34,-9,-24,0,-48,-4,-24,-24,-39
-39,-39,0,39,-19,-19,-4,-48,-14,-24,-29,-39
-39,-39,0,39,-19,-19,-9,-43,-19,-29,-34,-39
-34,-39,-4,36,-14,-21,-4,-43,-19,-34,-39,-39
-34,-39,-4,36,-14,-21,-4,-43,-19,-34,-39,-39
-39,-34,4,36,-21,-14,-4,-43,-24,-34,-39,-43
-34,-29,4,31,-19,-12,-4,-43,-24,-34,-39,-43
-34,-34,0,34,-17,-17,-4,-43,-24,-34,-39,-43
-34,-34,0,34,-17,-17,-4,-39,-24,-39,-43,-43
-34,-34,0,34,-17,-17,0,-39,-24,-39,-48,-43
-39,-34,4,36,-21,-14,9,-39,-19,-39,-48,-39
-39,-34,4,36,-21,-14,9,-39,-14,-39,-48,-39
-43,-34,9,39,-26,-12,9,-34,-14,-39,-43,-39
-43,-34,9,39,-26,-12,9,-34,-9,-39,-43,-39
-43,-34,9,39,-26,-12,9,-29,-9,-34,-43,-39
-43,-39,4,41,-24,-17,9,-29,-14,-34,-43,-39
-43,-43,0,43,-21,-21,9,-24,-14,-34,-43,-39
-43,-43,0,43,-21,-21,9,-24,-14,-34,-39,-39
-43,-43,0,43,-21,-21,14,-19,-9,-34,-39,-39
-58,-43,14,51,-36,-14,19,-19,-9,-29,-39,-39
-68,-43,24,56,-46,-9,19,-14,-4,-29,-39,-39
-63,-39,24,51,-43,-7,19,-14,-4,-29,-34,-39
-63,-39,24,51,-43,-7,19,-9,-4,-24,-34,-34
-58,-39,19,48,-39,-9,24,-9,0,-24,-34,-34
-53,-39,14,46,-34,-12,29,-9,0,-24,-34,-34
-53,-39,14,46,-34,-12,34,-9,0,-24,-34,-29
-53,-34,19,43,-36,-7,34,-4,0,-19,-29,-29
-53,-34,19,43,-36,-7,34,-4,0,-24,-29,-29
-53,-39,14,46,-34,-12,34,-4,0,-29,-29,-29
-58,-43,14,51,-36,-14,29,-4,4,-29,-29,-34
-63,-48,14,56,-39,-17,24,-9,4,-29,-24,-34
-63,-48,14,56,-39,-17,19,-9,4,-24,-24,-34
-58,-48,9,53,-34,-19,19,-9,4,-24,-24,-34
-48,-39,9,43,-29,-14,24,-4,4,-14,-19,-29
-39,-29,9,34,-24,-9,29,0,4,-9,-14,-24
-34,-29,4,31,-19,-12,34,0,9,-9,-9,-24
-29,-29,0,29,-14,-14,34,0,14,-9,-9,-24
-29,-29,0,29,-14,-14,24,0,14,-14,-14,-24
-24,-29,-4,26,-9,-17,19,0,9,-19,-19,-24
-34,-29,4,31,-19,-12,19,0,9,-19,-19,-29
-43,-29,14,36,-29,-7,19,-4,9,-24,-24,-34
-43,-34,9,39,-26,-12,19,-9,4,-29,-24,-34
-43,-39,4,41,-24,-17,19,-14,4,-29,-24,-34
-43,-43,0,43,-21,-21,24,-19,4,-29,-24,-39
-43,-43,0,43,-21,-21,29,-19,0,-29,-24,-39
-39,-43,-4,41,-17,-24,29,-14,0,-24,-24,-39
-39,-43,-4,41,-17,-24,29,-14,0,-19,-24,-39
-39,-43,-4,41,-17,-24,29,-14,-4,-24,-29,-39
-39,-39,0,39,-19,-19,24,-19,-4,-29,-29,-39
-39,-39,0,39,-19,-19,24,-19,-4,-29,-29,-43
-39,-39,0,39,-19,-19,29,-19,-9,-34,-29,-43
-39,-43,-4,41,-17,-24,29,-19,-9,-34,-34,-34
-39,-53,-14,46,-12,-34,24,-24,-9,-34,-34,-29
-43,-53,-9,48,-17,-31,19,-24,-14,-39,-39,-34
-48,-53,-4,51,-21,-29,19,-19,-14,-39,-43,-39
-53,-53,0,53,-26,-26,19,-19,-14,-39,-43,-39
-53,-53,0,53,-26,-26,19,-19,-19,-39,-43,-43
-53,-53,0,53,-26,-26,19,-24,-19,-39,-43,-43
-53,-53,0,53,-26,-26,19,-24,-19,-43,-43,-43
-58,-53,4,56,-31,-24,19,-24,-19,-43,-43,-43
-58,-58,0,58,-29,-29,14,-24,-19,-43,-43,-43
-58,-58,0,58,-29,-29,14,-24,-19,-43,-43,-43
-58,-58,0,58,-29,-29,19,-24,-24,-43,-48,-48
-58,-58,0,58,-29,-29,19,-29,-24,-48,-48,-48
-58,-58,0,58,-29,-29,19,-29,-24,-48,-48,-48
-58,-58,0,58,-29,-29,19,-29,-24,-48,-48,-53
-58,-58,0,58,-29,-29,19,-29,-24,-48,-48,-58
-58,-58,0,58,-29,-29,19,-29,-29,-48,-48,-58
-58,-58,0,58,-29,-29,19,-29,-29,-48,-48,-58
-63,-63,0,63,-31,-31,19,-29,-29,-48,-48,-58
-63,-63,0,63,-31,-31,19,-29,-29,-53,-48,-63
-63,-58,4,61,-34,-26,19,-29,-34,-53,-53,-63
-58,-58,0,58,-29,-29,19,-34,-39,-53,-53,-58
-58,-58,0,58,-29,-29,19,-34,-39,-58,-53,-58
-58,-58,0,58,-29,-29,19,-34,-39,-58,-53,-58
-58,-58,0,58,-29,-29,19,-34,-39,-58,-48,-53
-58,-58,0,58,-29,-29,19,-39,-39,-58,-48,-48
-63,-63,0,63,-31,-31,19,-43,-39,-58,-53,-48
-68,-68,0,68,-34,-34,19,-48,-39,-58,-58,-48
-68,-68,0,68,-34,-34,14,-48,-39,-58,-58,-48
-68,-68,0,68,-34,-34,9,-48,-39,-58,-58,-48
-63,-58,4,61,-34,-26,9,-43,-34,-58,-58,-48
-58,-48,9,53,-34,-19,9,-39,-29,-58,-58,-48
-58,-48,9,53,-34,-19,14,-39,-29,-58,-58,-48
-58,-48,9,53,-34,-19,19,-39,-29,-58,-58,-48
-53,-48,4,51,-29,-21,19,-39,-34,-58,-58,-48
-48,-48,0,48,-24,-24,19,-39,-39,-58,-58,-48
-48,-48,0,48,-24,-24,19,-39,-39,-58,-58,-48
-48,-48,0,48,-24,-24,19,-39,-39,-58,-58,-48
-48,-48,0,48,-24,-24,19,-43,-39,-58,-58,-48
-48,-48,0,48,-24,-24,19,-48,-39,-58,-58,-48
-48,-48,0,48,-24,-24,19,-48,-39,-58,-58,-48
-48,-48,0,48,-24,-24,19,-48,-39,-58,-58,-48
-53,-53,0,53,-26,-26,19,-48,-39,-58,-58,-48
-58,-58,0,58,-29,-29,19,-48,-39,-58,-58,-48
-58,-58,0,58,-29,-29,19,-48,-39,-58,-58,-53
-58,-58,0,58,-29,-29,19,-48,-39,-58,-58,-58
-58,-58,0,58,-29,-29,19,-48,-39,-58,-58,-58
-58,-58,0,58,-29,-29,19,-48,-39,-58,-58,-58
-58,-58,0,58,-29,-29,19,-48,-39,-58,-58,-58
-58,-58,0,58,-29,-29,19,-48,-39,-58,-58,-58
-58,-58,0,58,-29,-29,14,-48,-39,-58,-58,-58
-58,-58,0,58,-29,-29,9,-48,-39,-58,-58,-58
-58,-58,0,58,-29,-29,9,-53,-39,-58,-58,-58
-58,-58,0,58,-29,-29,9,-58,-39,-58,-58,-58
-58,-58,0,58,-29,-29,9,-58,-39,-58,-58,-58
-58,-58,0,58,-29,-29,9,-58,-39,-58,-58,-58
-58,-58,0,58,-29,-29,9,-53,-39,-58,-58,-58
-58,-58,0,58,-29,-29,9,-48,-39,-58,-58,-58
-63,-58,4,61,-34,-26,9,-48,-39,-58,-58,-58
-68,-58,9,63,-39,-24,9,-48,-39,-58,-58,-58
-68,-58,9,63,-39,-24,9,-48,-39,-58,-58,-58
-68,-58,9,63,-39,-24,9,-48,-39,-58,-58,-58
-68,-58,9,63,-39,-24,4,-48,-39,-58,-58,-58
-68,-58,9,63,-39,-24,0,-48,-39,-58,-58,-58
-68,-58,9,63,-39,-24,0,-53,-39,-58,-58,-58
-68,-58,9,63,-39,-24,0,-58,-39,-58,-58,-58
-63,-58,4,61,-34,-26,0,-58,-39,-58,-58,-58
-58,-58,0,58,-29,-29,0,-58,-39,-58,-58,-58
-58,-53,4,56,-31,-24,0,-58,-43,-58,-58,-58
-58,-48,9,53,-34,-19,0,-58,-48,-58,-58,-58
-58,-48,9,53,-34,-19,0,-58,-48,-58,-58,-58
-58,-48,9,53,-34,-19,0,-58,-48,-58,-58,-58
-58,-48,9,53,-34,-19,4,-58,-48,-58,-58,-58
-58,-48,9,53,-34,-19,9,-58,-48,-58,-58,-58
-58,-48,9,53,-34,-19,9,-58,-48,-58,-58,-53
-58,-48,9,53,-34,-19,9,-58,-48,-58,-58,-48
-58,-53,4,56,-31,-24,4,-58,-48,-58,-58,-48
-58,-58,0,58,-29,-29,0,-58,-48,-58,-58,-48
-58,-58,0,58,-29,-29,0,-58,-48,-63,-58,-53
-58,-58,0,58,-29,-29,0,-58,-48,-68,-58,-58
-58,-58,0,58,-29,-29,0,-58,-48,-68,-58,-58
-58,-58,0,58,-29,-29,0,-58,-48,-68,-58,-58
-58,-58,0,58,-29,-29,0,-58,-48,-68,-58,-58
-58,-58,0,58,-29,-29,0,-58,-48,-68,-58,-58
-58,-58,0,58,-29,-29,0,-58,-48,-68,-58,-58
-58,-58,0,58,-29,-29,0,-58,-48,-68,-58,-58
-58,-53,4,56,-31,-24,0,-58,-48,-68,-58,-58
-58,-48,9,53,-34,-19,0,-58,-48,-68,-58,-58
-58,-48,9,53,-34,-19,0,-58,-48,-68,-58,-58
-58,-48,9,53,-34,-19,0,-58,-48,-68,-58,-58
-58,-48,9,53,-34,-19,0,-58,-48,-68,-58,-58
-48,-43,4,46,-26,-19,4,-48,-39,-58,-53,-53
-39,-39,0,39,-19,-19,14,-39,-34,-53,-48,-53
-34,-29,4,31,-19,-12,29,-24,-24,-43,-43,-43
-29,-14,14,21,-21,0,39,-14,-14,-34,-34,-39
-24,0,24,12,-24,12,39,-14,-14,-29,-34,-34
-9,-9,0,9,-4,-4,48,-9,-14,-24,-29,-34
