I,II,III,aVR,aVL,aVF,V1,V2,V3,V4,V5,V6,
-58,-68,-9,63,-24,-39,29,-9,-29,-19,-39,-68
-53,-68,-14,61,-19,-41,29,-9,-29,-19,-39,-68
-48,-68,-19,58,-14,-43,29,-9,-29,-19,-39,-68
-48,-68,-19,58,-14,-43,29,-9,-29,-19,-39,-68
-48,-68,-19,58,-14,-43,29,-9,-29,-19,-39,-68
-48,-68,-19,58,-14,-43,34,-4,-24,-19,-39,-68
-48,-68,-19,58,-14,-43,39,0,-19,-19,-39,-68
-43,-68,-24,56,-9,-46,39,0,-19,-19,-43,-68
-39,-68,-29,53,-4,-48,39,0,-19,-19,-48,-68
-39,-68,-29,53,-4,-48,39,0,-24,-24,-48,-68
-39,-68,-29,53,-4,-48,39,0,-29,-29,-48,-68
-39,-68,-29,53,-4,-48,39,0,-29,-29,-48,-68
-39,-68,-29,53,-4,-48,39,0,-29,-29,-48,-68
-39,-68,-29,53,-4,-48,39,0,-34,-29,-48,-68
-39,-68,-29,53,-4,-48,39,0,-39,-29,-48,-68
-39,-68,-29,53,-4,-48,39,0,-39,-29,-48,-68
-39,-68,-29,53,-4,-48,39,0,-39,-29,-48,-68
-43,-68,-24,56,-9,-46,39,0,-39,-34,-48,-68
-48,-68,-19,58,-14,-43,39,0,-39,-39,-48,-68
-48,-68,-19,58,-14,-43,39,-4,-39,-39,-53,-68
-48,-68,-19,58,-14,-43,39,-9,-39,-39,-58,-68
-48,-73,-24,61,-12,-48,39,-9,-43,-43,-58,-73
-48,-78,-29,63,-9,-53,39,-9,-48,-48,-58,-78
-48,-82,-34,65,-7,-58,34,-9,-53,-48,-58,-78
-48,-87,-39,68,-4,-63,29,-9,-58,-48,-58,-78
-48,-87,-39,68,-4,-63,29,-14,-58,-53,-58,-78
-48,-87,-39,68,-4,-63,29,-19,-58,-58,-58,-78
-48,-82,-34,65,-7,-58,29,-19,-58,-58,-63,-78
-48,-78,-29,63,-9,-53,29,-19,-58,-58,-68,-78
-48,-78,-29,63,-9,-53,29,-19,-63,-58,-68,-78
-48,-78,-29,63,-9,-53,29,-19,-68,-58,-68,-78
-48,-82,-34,65,-7,-58,29,-24,-68,-63,-68,-78
-48,-87,-39,68,-4,-63,29,-29,-68,-68,-68,-78
-48,-87,-39,68,-4,-63,29,-29,-73,-68,-68,-78
-48,-87,-39,68,-4,-63,29,-29,-78,-68,-68,-78
-48,-82,-34,65,-7,-58,34,-29,-78,-73,-68,-78
-48,-78,-29,63,-9,-53,39,-29,-78,-78,-68,-78
-48,-78,-29,63,-9,-53,39,-29,-78,-78,-73,-78
-48,-78,-29,63,-9,-53,39,-29,-78,-78,-78,-78
-48,-78,-29,63,-9,-53,39,-34,-78,-78,-78,-78
-48,-78,-29,63,-9,-53,39,-39,-78,-78,-78,-78
-53,-82,-29,68,-12,-56,39,-39,-78,-78,-78,-82
-58,-87,-29,73,-14,-58,39,-39,-78,-78,-78,-87
-58,-92,-34,75,-12,-63,34,-39,-82,-82,-78,-87
-58,-97,-39,78,-9,-68,29,-39,-87,-87,-78,-87
-58,-97,-39,78,-9,-68,29,-39,-87,-87,-78,-87
-58,-97,-39,78,-9,-68,29,-39,-87,-87,-78,-87
-58,-97,-39,78,-9,-68,29,-39,-87,-87,-78,-87
-58,-97,-39,78,-9,-68,29,-39,-87,-87,-78,-87
-58,-97,-39,78,-9,-68,24,-43,-87,-87,-82,-87
-58,-97,-39,78,-9,-68,19,-48,-87,-87,-87,-87
-58,-97,-39,78,-9,-68,19,-48,-87,-87,-87,-87
-58,-97,-39,78,-9,-68,19,-48,-87,-87,-87,-87
-58,-97,-39,78,-9,-68,19,-48,-87,-87,-87,-87
-58,-97,-39,78,-9,-68,19,-48,-87,-87,-87,-87
-58,-92,-34,75,-12,-63,24,-48,-87,-87,-87,-87
-58,-87,-29,73,-14,-58,29,-48,-87,-87,-87,-87
-58,-87,-29,73,-14,-58,29,-48,-92,-87,-82,-87
-58,-87,-29,73,-14,-58,29,-48,-97,-87,-78,-87
-53,-87,-34,70,-9,-61,29,-48,-97,-87,-78,-87
-48,-87,-39,68,-4,-63,29,-48,-97,-87,-78,-87
-48,-82,-34,65,-7,-58,29,-43,-92,-82,-78,-82
-48,-78,-29,63,-9,-53,29,-39,-87,-78,-78,-78
-39,-58,-19,48,-9,-39,29,-29,-78,-73,-68,-78
-29,-39,-9,34,-9,-24,29,-19,-68,-68,-58,-78
-14,-19,-4,17,-4,-12,34,-9,-58,-53,-48,-63
0,0,0,0,0,0,39,0,-48,-39,-39,-48
0,9,9,-4,-4,9,43,4,-39,-34,-34,-48
0,19,19,-9,-9,19,48,9,-29,-29,-29,-43
0,29,29,-14,-14,29,58,14,-24,-24,-24,-43
0,34,34,-17,-17,34,63,19,-24,-19,-19,-39
14,53,39,-34,-12,46,43,29,-9,-4,-14,-24
24,78,53,-51,-14,65,19,34,14,14,4,-9
34,78,43,-56,-4,61,0,34,14,19,9,0
34,73,39,-53,-2,56,-9,19,0,19,9,0
24,68,43,-46,-9,56,-14,-4,-9,0,4,0
14,68,53,-41,-19,61,-19,-4,-19,-4,4,0
34,78,43,-56,-4,61,-24,-14,-19,4,14,9
43,82,39,-63,2,61,-29,-9,-4,14,24,19
73,87,14,-80,29,51,-34,0,0,29,29,34
97,82,-14,-90,56,34,-48,-4,-4,34,29,39
97,92,-4,-95,51,43,-53,-19,0,34,39,43
82,87,4,-85,39,46,-53,-29,0,34,39,43
78,34,-43,-56,61,-4,-63,-48,-39,-4,9,24
53,-4,-58,-24,56,-31,-58,-58,-63,-34,-9,-4
29,-19,-48,-4,39,-34,-43,-68,-78,-53,-29,-19
14,-29,-43,7,29,-36,-34,-68,-82,-58,-34,-29
-4,-53,-48,29,21,-51,-19,-68,-92,-68,-53,-48
-29,-82,-53,56,12,-68,4,-58,-102,-87,-78,-68
-48,-102,-53,75,2,-78,4,-78,-126,-107,-97,-92
-63,-122,-58,92,-2,-90,9,-87,-141,-122,-107,-102
-68,-126,-58,97,-4,-92,14,-92,-146,-131,-107,-102
-68,-126,-58,97,-4,-92,14,-97,-151,-136,-107,-102
-68,-141,-73,104,2,-107,9,-97,-156,-136,-122,-107
-78,-146,-68,112,-4,-107,9,-97,-156,-141,-126,-112
-82,-146,-63,114,-9,-104,19,-92,-156,-136,-131,-112
-87,-146,-58,117,-14,-102,19,-87,-156,-136,-131,-117
-92,-146,-53,119,-19,-100,24,-87,-161,-136,-131,-122
-97,-156,-58,126,-19,-107,29,-87,-161,-141,-141,-122
-97,-161,-63,129,-17,-112,29,-87,-165,-146,-141,-126
-102,-161,-58,131,-21,-109,29,-87,-165,-156,-141,-126
-102,-161,-58,131,-21,-109,34,-87,-170,-156,-146,-131
-102,-161,-58,131,-21,-109,34,-87,-170,-156,-146,-131
-97,-161,-63,129,-17,-112,34,-87,-170,-151,-146,-131
-97,-161,-63,129,-17,-112,34,-87,-170,-146,-151,-131
-97,-161,-63,129,-17,-112,34,-92,-170,-146,-146,-131
-97,-161,-63,129,-17,-112,39,-92,-165,-151,-141,-136
-112,-156,-43,134,-34,-100,58,-87,-165,-156,-136,-136
-126,-175,-48,151,-39,-112,97,-48,-161,-175,-170,-170
-161,-244,-82,202,-39,-163,141,9,-180,-239,-258,-263
-165,-287,-122,226,-21,-204,151,87,-165,-263,-302,-297
-136,-263,-126,200,-4,-195,175,375,9,-175,-273,-297
-14,-97,-82,56,34,-90,112,629,239,14,-117,-161
200,161,-39,-180,119,61,-63,605,375,268,165,82
395,448,53,-422,170,251,-229,405,478,570,517,395
546,775,229,-661,158,502,-390,-43,658,1010,961,795
614,1102,488,-858,63,795,-468,-541,814,1449,1405,1176
619,1488,868,-1054,-124,1178,-561,-1161,751,1781,1839,1581
605,1766,1161,-1185,-278,1464,-702,-1673,863,2176,2264,1956
629,1708,1078,-1168,-224,1393,-673,-1571,1488,2718,2635,2205
556,1420,863,-988,-153,1141,-556,-1459,1654,2586,2479,2098
448,917,468,-683,-9,692,-556,-1551,1132,1722,1800,1639
263,556,292,-409,-14,424,-556,-1639,453,907,1146,1185
-14,248,263,-117,-139,256,-507,-1693,-448,58,483,702
-87,39,126,24,-107,82,-473,-1454,-692,-239,175,434
-87,-24,63,56,-75,19,-336,-1019,-536,-219,48,229
-53,-39,14,46,-34,-12,-180,-570,-331,-165,-4,107
-34,-63,-29,48,-2,-46,-39,-190,-112,-78,-4,53
-53,-82,-29,68,-12,-56,9,-34,-19,-48,-14,0
-53,-92,-39,73,-7,-65,9,-19,-19,-48,-29,-29
-53,-112,-58,82,2,-85,34,14,-19,-68,-48,-53
-68,-136,-68,102,0,-102,68,43,-34,-92,-87,-82
-82,-146,-63,114,-9,-104,78,48,-43,-102,-102,-97
-82,-151,-68,117,-7,-109,78,58,-43,-102,-102,-107
-78,-161,-82,119,2,-122,82,82,-43,-107,-102,-112
-82,-165,-82,124,0,-124,92,102,-39,-112,-122,-122
-87,-170,-82,129,-2,-126,92,112,-39,-117,-131,-126
-87,-170,-82,129,-2,-126,92,117,-34,-117,-131,-126
-87,-175,-87,131,0,-131,92,126,-34,-117,-131,-126
-82,-175,-92,129,4,-134,92,131,-29,-117,-131,-126
-82,-175,-92,129,4,-134,87,136,-29,-117,-136,-126
-82,-170,-87,126,2,-129,87,131,-29,-117,-136,-136
-82,-165,-82,124,0,-124,87,136,-24,-112,-136,-141
-78,-165,-87,122,4,-126,92,141,-24,-112,-136,-141
-78,-165,-87,122,4,-126,97,141,-19,-112,-136,-141
-73,-161,-87,117,7,-124,97,151,-9,-107,-131,-141
-73,-161,-87,117,7,-124,97,156,-9,-107,-131,-141
-63,-156,-92,109,14,-124,97,165,0,-107,-131,-136
-58,-151,-92,104,17,-122,97,170,0,-102,-126,-126
-53,-151,-97,102,21,-124,97,180,4,-97,-126,-126
-48,-151,-102,100,26,-126,97,185,14,-97,-126,-126
-48,-151,-102,100,26,-126,97,195,19,-97,-126,-131
-43,-146,-102,95,29,-124,97,204,29,-97,-122,-131
-48,-151,-102,100,26,-126,92,204,34,-92,-126,-131
-48,-156,-107,102,29,-131,92,214,39,-92,-131,-131
-48,-151,-102,100,26,-126,92,229,39,-87,-126,-131
-48,-151,-102,100,26,-126,92,239,43,-87,-126,-131
-43,-151,-107,97,31,-129,92,248,48,-82,-126,-126
-39,-146,-107,92,34,-126,92,258,53,-78,-126,-126
-43,-141,-97,92,26,-119,92,268,58,-78,-122,-126
-48,-136,-87,92,19,-112,92,278,73,-73,-117,-131
-29,-136,-107,82,39,-122,92,292,78,-68,-112,-126
-14,-131,-117,73,51,-124,87,297,87,-68,-107,-126
-14,-126,-112,70,48,-119,87,307,92,-63,-102,-122
-9,-122,-112,65,51,-117,87,322,102,-58,-102,-112
-4,-117,-112,61,53,-114,82,336,112,-53,-97,-107
-4,-107,-102,56,48,-104,82,346,117,-48,-97,-107
4,-97,-102,46,53,-100,82,361,131,-43,-92,-102
4,-92,-97,43,51,-95,78,370,136,-39,-92,-97
4,-82,-87,39,46,-85,78,385,146,-34,-92,-97
4,-73,-78,34,41,-75,73,395,151,-34,-87,-82
9,-63,-73,26,41,-68,73,405,156,-34,-82,-87
19,-43,-63,12,41,-53,68,414,165,-39,-78,-82
24,-34,-58,4,41,-46,63,424,170,-34,-73,-73
24,-19,-43,-2,34,-31,53,434,180,-34,-68,-68
34,4,-29,-19,31,-12,53,434,180,-34,-63,-58
39,14,-24,-26,31,-4,48,434,180,-34,-63,-43
53,34,-19,-43,36,7,39,434,175,-34,-53,-34
53,48,-4,-51,29,21,29,429,165,-43,-53,-19
53,68,14,-61,19,41,19,419,156,-48,-39,-9
63,87,24,-75,19,56,0,405,146,-58,-34,4
63,112,48,-87,7,80,-9,385,126,-73,-29,29
78,136,58,-107,9,97,-24,366,107,-82,-24,39
82,151,68,-117,7,109,-34,341,82,-97,-19,58
82,161,78,-122,2,119,-43,317,63,-112,-14,73
92,185,92,-139,0,139,-68,292,34,-122,-4,82
102,204,102,-153,0,153,-78,263,9,-136,0,92
107,209,102,-158,2,156,-92,234,-9,-146,0,92
112,209,97,-161,7,153,-97,214,-24,-156,0,102
112,209,97,-161,7,153,-102,190,-53,-175,-14,107
112,195,82,-153,14,139,-107,165,-73,-200,-24,102
102,180,78,-141,12,129,-102,141,-97,-214,-34,87
82,156,73,-119,4,114,-92,126,-112,-219,-48,73
73,126,53,-100,9,90,-82,97,-126,-234,-73,48
53,102,48,-78,2,75,-73,82,-136,-234,-87,29
43,82,39,-63,2,61,-63,63,-136,-229,-92,14
29,63,34,-46,-2,48,-48,48,-136,-219,-92,0
19,43,24,-31,-2,34,-39,24,-131,-209,-92,-9
9,29,19,-19,-4,24,-29,9,-131,-195,-92,-19
4,14,9,-9,-2,12,-19,0,-126,-175,-87,-24
-4,0,4,2,-4,2,-14,-9,-117,-165,-87,-34
-14,-9,4,12,-9,-2,-9,-19,-112,-136,-82,-39
-19,-19,0,19,-9,-9,-4,-29,-102,-117,-82,-39
-34,-24,9,29,-21,-7,0,-34,-92,-107,-78,-43
-43,-29,14,36,-29,-7,4,-34,-92,-92,-73,-48
-48,-43,4,46,-26,-19,4,-39,-82,-82,-68,-48
-48,-48,0,48,-24,-24,9,-39,-78,-68,-63,-48
-48,-43,4,46,-26,-19,14,-39,-73,-58,-58,-48
-48,-43,4,46,-26,-19,14,-39,-68,-48,-58,-53
-48,-43,4,46,-26,-19,14,-39,-63,-48,-58,-53
-48,-39,9,43,-29,-14,19,-39,-58,-39,-53,-53
-48,-39,9,43,-29,-14,19,-39,-53,-39,-53,-53
-43,-43,0,43,-21,-21,19,-39,-53,-34,-48,-53
-43,-43,0,43,-21,-21,19,-39,-48,-29,-43,-53
-43,-43,0,43,-21,-21,19,-34,-43,-24,-43,-53
-43,-43,0,43,-21,-21,24,-34,-39,-24,-43,-53
-43,-48,-4,46,-19,-26,24,-29,-39,-19,-43,-53
-58,-53,4,56,-31,-24,29,-24,-34,-19,-43,-53
-68,-58,9,63,-39,-24,34,-19,-29,-19,-43,-53
-63,-63,0,63,-31,-31,34,-19,-29,-19,-43,-53
-63,-63,0,63,-31,-31,34,-19,-29,-19,-43,-53
-63,-63,0,63,-31,-31,39,-14,-29,-19,-43,-58
-68,-63,4,65,-36,-29,39,-14,-24,-19,-48,-58
-58,-58,0,58,-29,-29,39,-9,-19,-19,-48,-58
-48,-53,-4,51,-21,-29,39,-4,-14,-24,-48,-63
-48,-58,-9,53,-19,-34,39,-4,-14,-24,-53,-63
-48,-58,-9,53,-19,-34,39,-4,-14,-24,-53,-63
-53,-63,-9,58,-21,-36,43,-4,-14,-24,-53,-63
-58,-68,-9,63,-24,-39,43,-4,-14,-24,-53,-63
-58,-68,-9,63,-24,-39,39,0,-19,-29,-58,-63
-58,-68,-9,63,-24,-39,39,0,-19,-29,-63,-63
-53,-73,-19,63,-17,-46,39,0,-24,-34,-63,-68
-48,-73,-24,61,-12,-48,39,0,-29,-34,-63,-68
-53,-73,-19,63,-17,-46,39,0,-29,-34,-63,-68
-53,-73,-19,63,-17,-46,43,0,-34,-39,-63,-73
-53,-73,-19,63,-17,-46,43,0,-34,-39,-63,-73
-58,-73,-14,65,-21,-43,43,-4,-39,-39,-63,-78
-58,-73,-14,65,-21,-43,43,-4,-39,-43,-63,-78
-58,-73,-14,65,-21,-43,39,-4,-39,-43,-63,-78
-58,-73,-14,65,-21,-43,39,-9,-39,-48,-63,-78
-63,-78,-14,70,-24,-46,39,-9,-48,-48,-68,-78
-63,-78,-14,70,-24,-46,39,-14,-48,-53,-68,-73
-58,-78,-19,68,-19,-48,34,-14,-48,-53,-73,-73
-58,-78,-19,68,-19,-48,34,-14,-53,-53,-73,-73
-58,-78,-19,68,-19,-48,34,-14,-53,-53,-73,-73
-58,-78,-19,68,-19,-48,34,-14,-48,-58,-73,-73
-58,-78,-19,68,-19,-48,34,-19,-53,-63,-78,-73
-58,-78,-19,68,-19,-48,34,-19,-53,-63,-78,-73
-58,-82,-24,70,-17,-53,34,-24,-53,-63,-78,-73
-58,-82,-24,70,-17,-53,34,-29,-58,-68,-82,-78
-63,-82,-19,73,-21,-51,34,-29,-68,-73,-82,-82
-63,-82,-19,73,-21,-51,34,-29,-73,-73,-82,-82
-63,-82,-19,73,-21,-51,34,-29,-73,-73,-82,-82
-63,-82,-19,73,-21,-51,34,-29,-73,-73,-78,-82
-63,-82,-19,73,-21,-51,29,-29,-78,-78,-78,-82
-63,-87,-24,75,-19,-56,29,-34,-78,-73,-78,-82
-63,-87,-24,75,-19,-56,29,-34,-78,-68,-78,-82
-63,-87,-24,75,-19,-56,29,-34,-78,-68,-78,-82
-63,-87,-24,75,-19,-56,29,-39,-82,-68,-78,-82
-63,-87,-24,75,-19,-56,29,-39,-82,-78,-82,-82
-68,-92,-24,80,-21,-58,29,-39,-87,-82,-82,-82
-68,-92,-24,80,-21,-58,29,-39,-82,-82,-82,-87
-68,-92,-24,80,-21,-58,24,-43,-78,-82,-82,-87
-68,-92,-24,80,-21,-58,24,-43,-78,-78,-82,-87
-68,-92,-24,80,-21,-58,24,-43,-82,-78,-87,-87
-63,-92,-29,78,-17,-61,29,-43,-82,-78,-87,-87
-63,-87,-24,75,-19,-56,29,-43,-82,-78,-87,-87
-63,-87,-24,75,-19,-56,29,-48,-82,-82,-92,-87
-63,-92,-29,78,-17,-61,29,-48,-82,-87,-97,-87
-58,-92,-34,75,-12,-63,29,-48,-87,-87,-97,-87
-53,-92,-39,73,-7,-65,24,-53,-87,-92,-97,-87
-58,-92,-34,75,-12,-63,24,-53,-87,-87,-97,-87
-58,-92,-34,75,-12,-63,29,-48,-87,-82,-97,-87
-63,-92,-29,78,-17,-61,29,-48,-87,-82,-97,-87
-68,-92,-24,80,-21,-58,29,-48,-87,-82,-97,-92
-68,-92,-24,80,-21,-58,29,-53,-87,-87,-97,-92
-68,-92,-24,80,-21,-58,29,-53,-92,-92,-97,-92
-58,-92,-34,75,-12,-63,29,-53,-97,-92,-97,-92
-48,-92,-43,70,-2,-68,24,-53,-97,-92,-97,-92
-58,-92,-34,75,-12,-63,24,-58,-97,-92,-97,-92
-63,-92,-29,78,-17,-61,24,-63,-97,-92,-97,-92
-63,-97,-34,80,-14,-65,19,-63,-102,-97,-97,-87
-63,-97,-34,80,-14,-65,19,-58,-102,-102,-92,-87
-58,-82,-24,70,-17,-53,19,-53,-97,-92,-92,-82
-53,-73,-19,63,-17,-46,24,-48,-87,-82,-92,-73
-43,-53,-9,48,-17,-31,24,-39,-78,-68,-78,-68
-34,-34,0,34,-17,-17,29,-29,-73,-58,-68,-63
-14,-14,0,14,-7,-7,34,-19,-63,-48,-58,-53
0,0,0,0,0,0,39,-9,-58,-39,-48,-48
0,9,9,-4,-4,9,43,0,-43,-34,-39,-43
0,19,19,-9,-9,19,48,9,-29,-29,-29,-39
0,24,24,-12,-12,24,53,9,-29,-24,-29,-39
0,29,29,-14,-14,29,53,9,-24,-14,-24,-34
0,39,39,-19,-19,39,53,9,-24,-9,-19,-29
14,63,48,-39,-17,56,34,14,-14,0,-14,-19
29,87,58,-58,-14,73,9,19,4,14,4,-9
43,87,43,-65,0,65,-9,24,4,19,9,0
43,82,39,-63,2,61,-19,9,-9,19,9,0
43,78,34,-61,4,56,-19,-14,-14,4,4,0
43,78,34,-61,4,56,-19,-14,-14,4,4,0
63,87,24,-75,19,56,-24,-14,-9,14,14,9
73,92,19,-82,26,56,-29,0,4,24,24,19
87,92,4,-90,41,48,-34,0,4,34,29,29
97,82,-14,-90,56,34,-48,-14,-4,34,29,29
97,73,-24,-85,61,24,-53,-29,-14,19,29,29
82,48,-34,-65,58,7,-53,-39,-34,4,19,24
73,4,-68,-39,70,-31,-53,-58,-68,-24,-9,4
43,-24,-68,-9,56,-46,-43,-68,-82,-43,-29,-24
19,-39,-58,9,39,-48,-34,-78,-97,-63,-48,-39
0,-48,-48,24,24,-48,-24,-82,-102,-68,-53,-48
-24,-73,-48,48,12,-61,-14,-87,-112,-78,-73,-68
-48,-102,-53,75,2,-78,4,-78,-117,-97,-97,-87
-63,-117,-53,90,-4,-85,4,-92,-131,-112,-112,-107
-73,-131,-58,102,-7,-95,9,-97,-141,-126,-117,-112
-78,-136,-58,107,-9,-97,14,-97,-141,-136,-117,-112
-78,-136,-58,107,-9,-97,14,-97,-146,-136,-117,-112
-78,-146,-68,112,-4,-107,9,-97,-156,-136,-126,-117
-87,-146,-58,117,-14,-102,9,-97,-156,-141,-126,-122
-87,-146,-58,117,-14,-102,19,-97,-156,-141,-131,-122
-82,-146,-63,114,-9,-104,19,-92,-156,-146,-131,-126
-82,-146,-63,114,-9,-104,24,-87,-161,-146,-131,-131
-87,-151,-63,119,-12,-107,29,-87,-161,-151,-141,-131
-87,-151,-63,119,-12,-107,29,-87,-165,-151,-141,-136
-97,-151,-53,124,-21,-102,29,-92,-165,-156,-141,-136
-102,-151,-48,126,-26,-100,34,-97,-170,-156,-146,-141
-102,-156,-53,129,-24,-104,34,-97,-170,-156,-146,-141
-102,-161,-58,131,-21,-109,34,-97,-170,-156,-146,-141
-107,-161,-53,134,-26,-107,34,-97,-170,-156,-151,-141
-107,-161,-53,134,-26,-107,34,-97,-170,-156,-151,-141
-112,-156,-43,134,-34,-100,39,-92,-165,-161,-151,-146
-131,-161,-29,146,-51,-95,58,-63,-161,-165,-161,-161
-146,-195,-48,170,-48,-122,102,-9,-156,-185,-209,-209
-161,-229,-68,195,-46,-148,141,73,-136,-209,-253,-268
-146,-258,-112,202,-17,-185,151,185,-87,-219,-278,-283
-68,-180,-112,124,21,-146,136,400,82,-92,-195,-224
102,43,-58,-73,80,-7,34,619,317,151,19,-34
307,302,-4,-305,156,148,-131,531,453,439,326,234
497,605,107,-551,195,356,-307,244,556,766,717,590
619,922,302,-771,158,612,-458,-209,712,1171,1156,990
653,1239,585,-946,34,912,-522,-751,844,1595,1600,1371
653,1507,854,-1080,-100,1180,-580,-1254,858,1893,1966,1708
639,1717,1078,-1178,-219,1398,-707,-1659,1054,2313,2376,2059
629,1581,951,-1105,-161,1266,-673,-1590,1434,2581,2532,2161
531,1176,644,-854,-56,910,-512,-1454,1420,2166,2142,1883
400,746,346,-573,26,546,-497,-1532,878,1366,1498,1434
175,439,263,-307,-43,351,-497,-1644,82,541,824,961
-43,185,229,-70,-136,207,-448,-1610,-590,-112,287,541
-58,34,92,12,-75,63,-414,-1268,-600,-214,112,336
-58,-24,34,41,-46,4,-278,-849,-453,-200,4,161
-34,-29,4,31,-19,-12,-117,-409,-234,-126,-19,78
-19,-48,-29,34,4,-39,4,-107,-63,-58,-24,39
-34,-73,-39,53,2,-56,29,-34,-19,-48,-34,-4
-34,-92,-58,63,12,-75,29,-19,-19,-48,-48,-39
-39,-112,-73,75,17,-92,53,19,-19,-68,-68,-63
-58,-131,-73,95,7,-102,78,53,-29,-87,-102,-87
-73,-136,-63,104,-4,-100,78,58,-34,-97,-112,-97
-73,-141,-68,107,-2,-104,78,68,-34,-102,-112,-107
-68,-151,-82,109,7,-117,82,92,-39,-107,-112,-117
-68,-151,-82,109,7,-117,92,107,-39,-112,-126,-131
-68,-156,-87,112,9,-122,92,112,-39,-117,-131,-136
-68,-161,-92,114,12,-126,92,117,-34,-117,-131,-136
-68,-165,-97,117,14,-131,87,126,-34,-117,-131,-136
-63,-165,-102,114,19,-134,87,131,-29,-117,-131,-136
-68,-165,-97,117,14,-131,87,136,-29,-117,-136,-136
-73,-165,-92,119,9,-129,87,136,-29,-117,-136,-141
-73,-165,-92,119,9,-129,87,146,-24,-112,-141,-141
-68,-165,-97,117,14,-131,87,151,-24,-112,-146,-141
-63,-165,-102,114,19,-134,87,146,-19,-112,-146,-141
-53,-161,-107,107,26,-134,87,151,-9,-107,-141,-141
-53,-161,-107,107,26,-134,87,156,-9,-107,-141,-141
-48,-156,-107,102,29,-131,87,165,0,-107,-141,-141
-48,-151,-102,100,26,-126,87,170,0,-102,-136,-136
-43,-151,-107,97,31,-129,87,180,4,-97,-136,-136
-39,-151,-112,95,36,-131,87,190,14,-97,-136,-141
-39,-151,-112,95,36,-131,87,204,19,-97,-136,-146
-34,-146,-112,90,39,-129,92,214,29,-97,-131,-141
-34,-146,-112,90,39,-129,92,214,34,-92,-131,-141
-29,-146,-117,87,43,-131,92,224,39,-92,-131,-136
-29,-141,-112,85,41,-126,92,234,43,-87,-126,-131
-29,-136,-107,82,39,-122,92,239,53,-87,-126,-131
-24,-131,-107,78,41,-119,92,248,58,-82,-126,-126
-24,-126,-102,75,39,-114,92,258,63,-78,-126,-126
-24,-122,-97,73,36,-109,92,268,68,-78,-122,-122
-19,-117,-97,68,39,-107,92,278,82,-73,-117,-122
-14,-117,-102,65,43,-109,92,292,87,-68,-117,-117
-14,-112,-97,63,41,-104,87,297,97,-68,-117,-117
-14,-107,-92,61,39,-100,87,307,102,-63,-112,-117
-9,-102,-92,56,41,-97,87,322,112,-58,-112,-112
-4,-97,-92,51,43,-95,82,336,122,-53,-107,-107
-4,-87,-82,46,39,-85,82,346,126,-48,-107,-107
4,-78,-82,36,43,-80,82,361,141,-43,-97,-102
4,-73,-78,34,41,-75,78,370,146,-39,-92,-97
9,-63,-73,26,41,-68,78,385,156,-34,-92,-97
14,-58,-73,21,43,-65,73,395,161,-34,-87,-82
19,-53,-73,17,46,-63,73,405,165,-29,-82,-82
29,-34,-63,2,46,-48,68,414,175,-29,-78,-73
34,-24,-58,-4,46,-41,63,424,175,-24,-73,-63
34,-4,-39,-14,36,-21,53,429,180,-24,-68,-58
43,24,-19,-34,31,2,48,424,180,-24,-58,-48
48,34,-14,-41,31,9,39,424,185,-24,-53,-34
63,58,-4,-61,34,26,29,424,185,-24,-43,-24
63,78,14,-70,24,46,19,419,175,-29,-39,-9
68,97,29,-82,19,63,9,409,165,-29,-24,0
82,122,39,-102,21,80,-9,395,156,-39,-24,14
82,146,63,-114,9,104,-19,375,136,-53,-19,39
97,165,68,-131,14,117,-34,356,117,-63,-14,48
102,180,78,-141,12,129,-43,326,92,-78,-9,68
102,185,82,-143,9,134,-53,297,73,-92,-9,78
107,195,87,-151,9,141,-78,273,39,-102,-9,82
112,204,92,-158,9,148,-87,244,9,-122,-9,92
117,209,92,-163,12,151,-102,214,-9,-146,-9,92
122,209,87,-165,17,148,-107,200,-24,-165,-9,102
122,209,87,-165,17,148,-107,180,-53,-175,-24,102
126,195,68,-161,29,131,-102,156,-73,-190,-34,92
122,180,58,-151,31,119,-92,131,-92,-204,-43,78
102,156,53,-129,24,104,-82,117,-102,-209,-58,63
92,131,39,-112,26,85,-73,87,-117,-224,-78,39
73,112,39,-92,17,75,-63,73,-126,-224,-87,19
63,92,29,-78,17,61,-53,53,-126,-219,-92,4
43,73,29,-58,7,51,-39,39,-122,-204,-92,-9
24,53,29,-39,-2,41,-29,19,-112,-190,-92,-19
9,39,29,-24,-9,34,-19,9,-112,-175,-97,-29
4,24,19,-14,-7,21,-9,0,-107,-156,-97,-34
-4,9,14,-2,-9,12,-4,-9,-97,-146,-97,-43
-14,0,14,7,-14,7,0,-19,-92,-122,-92,-48
-19,-9,9,14,-14,0,4,-29,-82,-107,-87,-48
-29,-14,14,21,-21,0,9,-34,-73,-97,-78,-53
-34,-19,14,26,-24,-2,14,-34,-78,-82,-73,-58
-39,-29,9,34,-24,-9,14,-39,-73,-73,-68,-58
-43,-34,9,39,-26,-12,19,-39,-68,-63,-68,-58
-48,-34,14,41,-31,-9,24,-39,-63,-58,-68,-58
-48,-34,14,41,-31,-9,19,-39,-58,-48,-68,-63
-48,-39,9,43,-29,-14,14,-39,-53,-48,-68,-63
-43,-34,9,39,-26,-12,19,-39,-48,-39,-63,-63
-43,-29,14,36,-29,-7,19,-39,-43,-39,-63,-63
-43,-34,9,39,-26,-12,24,-39,-43,-34,-58,-63
-43,-34,9,39,-26,-12,29,-39,-39,-29,-53,-63
-43,-39,4,41,-24,-17,29,-34,-34,-24,-53,-68
-43,-43,0,43,-21,-21,34,-34,-29,-24,-53,-73
-43,-48,-4,46,-19,-26,29,-29,-29,-19,-53,-73
-48,-48,0,48,-24,-24,29,-24,-24,-19,-53,-73
-53,-43,9,48,-31,-17,34,-14,-19,-19,-53,-73
-53,-43,9,48,-31,-17,34,-9,-19,-19,-53,-73
-53,-43,9,48,-31,-17,34,-9,-19,-19,-53,-68
-53,-43,9,48,-31,-17,39,-4,-19,-19,-53,-68
-58,-43,14,51,-36,-14,39,-4,-14,-19,-58,-68
-58,-43,14,51,-36,-14,39,0,-14,-19,-58,-68
-58,-43,14,51,-36,-14,39,4,-14,-24,-58,-73
-58,-48,9,53,-34,-19,39,4,-14,-24,-63,-73
-58,-48,9,53,-34,-19,39,4,-14,-24,-63,-78
-58,-48,9,53,-34,-19,43,4,-14,-24,-63,-82
-53,-48,4,51,-29,-21,48,4,-14,-24,-58,-82
-48,-48,0,48,-24,-24,48,9,-19,-29,-58,-82
-48,-48,0,48,-24,-24,48,9,-19,-29,-63,-78
-48,-53,-4,51,-21,-29,48,9,-19,-34,-63,-78
-48,-58,-9,53,-19,-34,43,4,-19,-34,-63,-78
-53,-63,-9,58,-21,-36,39,0,-19,-34,-63,-73
-58,-63,-4,61,-26,-34,43,0,-24,-39,-68,-73
-58,-63,-4,61,-26,-34,43,0,-24,-39,-73,-73
-58,-58,0,58,-29,-29,43,-4,-29,-39,-73,-78
-58,-53,4,56,-31,-24,43,-4,-29,-43,-73,-78
-53,-53,0,53,-26,-26,39,-4,-29,-43,-73,-78
-48,-53,-4,51,-21,-29,39,-9,-29,-48,-73,-78
-53,-58,-4,56,-24,-31,39,-9,-39,-48,-78,-78
-53,-58,-4,56,-24,-31,39,-14,-39,-53,-78,-78
-53,-58,-4,56,-24,-31,34,-14,-34,-53,-78,-82
-58,-58,0,58,-29,-29,34,-14,-34,-53,-73,-82
-58,-63,-4,61,-26,-34,34,-14,-34,-53,-73,-82
-58,-68,-9,63,-24,-39,34,-14,-34,-58,-73,-82
-58,-68,-9,63,-24,-39,34,-19,-48,-63,-82,-82
-58,-68,-9,63,-24,-39,34,-19,-53,-63,-87,-82
-58,-73,-14,65,-21,-43,34,-24,-53,-63,-87,-82
-58,-73,-14,65,-21,-43,34,-29,-53,-68,-92,-87
-58,-68,-9,63,-24,-39,34,-29,-58,-73,-87,-92
-53,-63,-9,58,-21,-36,34,-29,-63,-73,-82,-92
-53,-63,-9,58,-21,-36,34,-29,-63,-73,-82,-87
-53,-63,-9,58,-21,-36,34,-29,-63,-73,-82,-82
-53,-63,-9,58,-21,-36,29,-29,-68,-78,-87,-82
-53,-68,-14,61,-19,-41,29,-34,-68,-78,-87,-82
-53,-68,-14,61,-19,-41,29,-34,-63,-78,-87,-87
-53,-68,-14,61,-19,-41,29,-34,-58,-78,-87,-92
-53,-68,-14,61,-19,-41,29,-39,-63,-78,-87,-92
-53,-68,-14,61,-19,-41,29,-39,-63,-82,-92,-92
-63,-78,-14,70,-24,-46,29,-39,-68,-82,-92,-92
-68,-82,-14,75,-26,-48,29,-39,-68,-82,-92,-97
-68,-82,-14,75,-26,-48,24,-43,-73,-82,-92,-97
-68,-82,-14,75,-26,-48,24,-43,-78,-82,-92,-97
-63,-82,-19,73,-21,-51,24,-43,-82,-87,-97,-97
-53,-82,-29,68,-12,-56,29,-43,-82,-87,-97,-97
-53,-78,-24,65,-14,-51,29,-39,-78,-82,-97,-97
-53,-78,-24,65,-14,-51,29,-39,-73,-78,-97,-97
-53,-82,-29,68,-12,-56,29,-39,-73,-78,-97,-97
-53,-82,-29,68,-12,-56,29,-39,-78,-78,-97,-97
-53,-82,-29,68,-12,-56,24,-43,-78,-82,-97,-97
-58,-82,-24,70,-17,-53,24,-43,-78,-82,-97,-97
-58,-82,-24,70,-17,-53,29,-43,-78,-82,-102,-97
-58,-82,-24,70,-17,-53,29,-48,-78,-82,-107,-97
-58,-82,-24,70,-17,-53,29,-48,-82,-87,-107,-102
-58,-82,-24,70,-17,-53,29,-53,-87,-92,-107,-102
-58,-82,-24,70,-17,-53,29,-53,-92,-92,-102,-102
-58,-82,-24,70,-17,-53,29,-53,-92,-92,-97,-102
-58,-82,-24,70,-17,-53,24,-53,-87,-92,-97,-102
-58,-82,-24,70,-17,-53,24,-53,-87,-92,-97,-102
-63,-87,-24,75,-19,-56,24,-53,-92,-92,-102,-107
-68,-87,-19,78,-24,-53,24,-53,-97,-92,-107,-107
-63,-92,-29,78,-17,-61,29,-53,-97,-102,-102,-107
-58,-87,-29,73,-14,-58,29,-53,-97,-97,-102,-102
-58,-78,-19,68,-19,-48,24,-58,-97,-82,-102,-97
-48,-63,-14,56,-17,-39,19,-43,-87,-78,-97,-92
-39,-43,-4,41,-17,-24,24,-29,-73,-73,-87,-82
-29,-29,0,29,-14,-14,29,-14,-58,-73,-82,-78
-19,-9,9,14,-14,0,34,-4,-53,-53,-73,-73
-9,9,19,0,-14,14,39,0,-48,-39,-68,-68
-4,19,24,-7,-14,21,43,9,-34,-29,-53,-53
0,29,29,-14,-14,29,48,19,-19,-19,-39,-39
0,34,34,-17,-17,34,48,19,-19,-19,-39,-39
0,39,39,-19,-19,39,43,14,-14,-14,-34,-34
0,43,43,-21,-21,43,43,14,-14,-9,-34,-34
14,63,48,-39,-17,56,24,14,-4,0,-34,-29
24,82,58,-53,-17,70,4,14,14,14,-14,-19
34,78,43,-56,-4,61,-9,14,14,19,-9,-9
34,73,39,-53,-2,56,-19,0,0,19,-9,-9
34,68,34,-51,0,51,-19,-24,-4,4,-14,-9
34,68,34,-51,0,51,-19,-24,-9,4,-9,-9
53,78,24,-65,14,51,-24,-24,-9,14,4,0
58,82,24,-70,17,53,-34,-9,4,19,14,9
68,82,14,-75,26,48,-43,-9,4,24,19,19
73,63,-9,-68,41,26,-58,-24,-9,24,14,14
68,43,-24,-56,46,9,-63,-39,-24,9,9,9
53,19,-34,-36,43,-7,-58,-43,-39,-4,0,4
43,-24,-68,-9,56,-46,-53,-58,-68,-34,-29,-14
14,-48,-63,17,39,-56,-39,-68,-82,-53,-48,-43
-9,-58,-48,34,19,-53,-24,-78,-97,-73,-68,-58
-24,-68,-43,46,9,-56,-9,-78,-97,-78,-73,-68
-43,-92,-48,68,2,-70,4,-78,-102,-87,-92,-87
-63,-112,-48,87,-7,-80,24,-68,-112,-102,-112,-102
-73,-117,-43,95,-14,-80,24,-82,-131,-112,-122,-117
-78,-131,-53,104,-12,-92,29,-87,-136,-117,-122,-122
-78,-136,-58,107,-9,-97,34,-87,-131,-117,-117,-122
-78,-136,-58,107,-9,-97,34,-87,-131,-117,-117,-122
-78,-146,-68,112,-4,-107,29,-87,-136,-117,-126,-126
-92,-151,-58,122,-17,-104,24,-87,-141,-122,-131,-131
-97,-156,-58,126,-19,-107,29,-87,-146,-122,-141,-131
-97,-156,-58,126,-19,-107,29,-87,-146,-126,-141,-136
-102,-156,-53,129,-24,-104,34,-87,-151,-126,-141,-141
-107,-165,-58,136,-24,-112,43,-82,-151,-131,-151,-141
-107,-170,-63,139,-21,-117,48,-78,-156,-131,-151,-146
-112,-170,-58,141,-26,-114,48,-78,-156,-136,-151,-146
-112,-170,-58,141,-26,-114,53,-78,-161,-136,-156,-151
-112,-170,-58,141,-26,-114,53,-78,-161,-136,-156,-151
-112,-170,-58,141,-26,-114,53,-78,-161,-136,-156,-151
-117,-170,-53,143,-31,-112,53,-78,-161,-136,-161,-151
-117,-170,-53,143,-31,-112,53,-78,-161,-136,-161,-151
-117,-170,-53,143,-31,-112,58,-73,-156,-141,-161,-156
-131,-180,-48,156,-41,-114,78,-43,-151,-146,-170,-170
-146,-214,-68,180,-39,-141,117,19,-136,-161,-214,-214
-161,-248,-87,204,-36,-168,151,112,-107,-180,-253,-268
-141,-244,-102,192,-19,-173,146,224,-39,-151,-244,-263
-58,-131,-73,95,7,-102,117,439,151,14,-126,-185
117,112,-4,-114,61,53,0,614,390,283,131,43
326,390,63,-358,131,226,-180,483,531,595,483,351
527,692,165,-610,180,429,-351,180,639,951,888,717
658,1010,351,-834,153,680,-497,-287,800,1385,1342,1127
692,1322,629,-1007,31,976,-556,-775,946,1810,1786,1507
692,1586,893,-1139,-100,1239,-610,-1224,976,2108,2152,1844
688,1693,1005,-1190,-158,1349,-688,-1546,1151,2420,2454,2113
688,1454,766,-1071,-39,1110,-605,-1395,1512,2581,2503,2132
546,1049,502,-797,21,775,-458,-1327,1385,2078,2044,1815
370,619,248,-495,61,434,-458,-1473,732,1190,1332,1327
136,341,204,-239,-34,273,-463,-1595,-34,414,692,863
-92,117,209,-12,-151,163,-419,-1571,-678,-190,190,453
-117,-29,87,73,-102,29,-385,-1234,-649,-258,39,258
-126,-82,43,104,-85,-19,-248,-819,-463,-209,-43,92
-82,-82,0,82,-41,-41,-97,-385,-244,-131,-48,24
-48,-97,-48,73,0,-73,14,-87,-73,-58,-34,0
-58,-112,-53,85,-2,-82,39,-14,-29,-48,-43,-34
-53,-122,-68,87,7,-95,39,0,-29,-48,-58,-58
-53,-141,-87,97,17,-114,63,34,-29,-68,-78,-82
-68,-161,-92,114,12,-126,87,63,-39,-87,-112,-107
-82,-165,-82,124,0,-124,87,68,-39,-87,-122,-117
-82,-170,-87,126,2,-129,87,78,-34,-82,-122,-126
-78,-180,-102,129,12,-141,92,102,-34,-87,-122,-131
-78,-180,-102,129,12,-141,102,117,-29,-92,-136,-141
-78,-180,-102,129,12,-141,102,122,-29,-97,-141,-146
-78,-180,-102,129,12,-141,102,126,-24,-97,-141,-146
-78,-185,-107,131,14,-146,102,136,-24,-97,-141,-146
-73,-185,-112,129,19,-148,107,141,-19,-97,-141,-146
-73,-180,-107,126,17,-143,102,146,-19,-97,-146,-146
-73,-175,-102,124,14,-139,97,146,-19,-97,-146,-151
-73,-175,-102,124,14,-139,97,156,-14,-92,-146,-151
-68,-175,-107,122,19,-141,97,161,-14,-92,-146,-151
-68,-180,-112,124,21,-146,97,161,-9,-92,-146,-151
-63,-180,-117,122,26,-148,97,170,0,-87,-141,-151
-63,-180,-117,122,26,-148,97,175,0,-87,-136,-151
-58,-175,-117,117,29,-146,97,185,9,-87,-131,-151
-58,-170,-112,114,26,-141,97,190,9,-82,-126,-146
-53,-170,-117,112,31,-143,97,200,14,-78,-126,-146
-48,-165,-117,107,34,-141,97,204,29,-73,-126,-141
-48,-161,-112,104,31,-136,97,214,39,-68,-126,-136
-43,-156,-112,100,34,-134,102,224,48,-68,-122,-131
-43,-156,-112,100,34,-134,102,224,53,-63,-122,-131
-39,-165,-126,102,43,-146,102,234,53,-63,-122,-131
-39,-170,-131,104,46,-151,102,244,53,-58,-117,-131
-39,-170,-131,104,46,-151,102,248,63,-58,-117,-131
-34,-170,-136,102,51,-153,102,258,68,-53,-117,-126
-29,-156,-126,92,48,-141,97,268,73,-48,-117,-126
-24,-141,-117,82,46,-129,92,278,78,-48,-112,-122
-19,-136,-117,78,48,-126,92,287,92,-43,-107,-122
-14,-136,-122,75,53,-129,92,302,97,-39,-107,-117
-14,-136,-122,75,53,-129,87,307,107,-39,-107,-117
-14,-136,-122,75,53,-129,87,317,112,-34,-102,-117
-9,-131,-122,70,56,-126,87,331,122,-29,-102,-112
-4,-126,-122,65,58,-124,82,346,131,-24,-97,-107
-4,-117,-112,61,53,-114,82,356,136,-19,-97,-107
4,-107,-112,51,58,-109,82,370,151,-14,-87,-102
9,-102,-112,46,61,-107,78,380,156,-9,-82,-97
19,-92,-112,36,65,-102,78,395,165,-4,-82,-97
24,-82,-107,29,65,-95,78,405,170,-9,-78,-82
29,-73,-102,21,65,-87,82,414,175,-9,-73,-82
39,-53,-92,7,65,-73,78,429,185,-9,-68,-73
43,-43,-87,0,65,-65,73,444,185,-4,-63,-63
43,-29,-73,-7,58,-51,58,453,190,-4,-58,-58
53,-4,-58,-24,56,-31,48,453,190,-4,-48,-48
58,4,-53,-31,56,-24,39,453,190,-4,-43,-29
73,29,-43,-51,58,-7,29,453,185,-4,-34,-14
73,48,-24,-61,48,12,19,448,175,-14,-29,0
78,68,-9,-73,43,29,9,439,165,-19,-14,9
92,87,-4,-90,48,41,-9,424,156,-29,-14,24
92,107,14,-100,39,61,-19,405,136,-43,-9,48
107,126,19,-117,43,73,-34,385,117,-53,-4,58
112,141,29,-126,41,85,-43,356,92,-68,0,78
117,151,34,-134,41,92,-53,326,73,-82,4,92
126,165,39,-146,43,102,-78,302,39,-92,9,102
131,175,43,-153,43,109,-87,273,4,-112,4,107
136,180,43,-158,46,112,-102,244,-19,-136,0,102
136,175,39,-156,48,107,-107,224,-34,-161,0,112
131,170,39,-151,46,104,-107,200,-63,-175,-14,112
131,156,24,-143,53,90,-107,175,-82,-190,-29,102
122,141,19,-131,51,80,-102,151,-102,-204,-43,87
97,117,19,-107,39,68,-87,131,-112,-204,-58,68
82,92,9,-87,36,51,-73,97,-126,-214,-78,39
63,73,9,-68,26,41,-63,82,-136,-214,-87,19
53,53,0,-53,26,26,-53,63,-136,-209,-92,4
39,34,-4,-36,21,14,-39,48,-136,-200,-92,-9
24,14,-9,-19,17,2,-29,29,-131,-190,-92,-19
9,0,-9,-4,9,-4,-19,14,-126,-175,-92,-29
4,-14,-19,4,12,-17,-9,0,-117,-156,-87,-34
-4,-29,-24,17,9,-26,-4,-9,-107,-146,-87,-43
-14,-39,-24,26,4,-31,0,-19,-102,-122,-82,-48
-19,-48,-29,34,4,-39,4,-29,-97,-107,-82,-48
-29,-53,-24,41,-2,-39,9,-34,-92,-97,-78,-53
-34,-58,-24,46,-4,-41,14,-34,-92,-82,-78,-58
-39,-68,-29,53,-4,-48,14,-39,-82,-73,-78,-58
-39,-68,-29,53,-4,-48,19,-39,-73,-53,-73,-58
-39,-63,-24,51,-7,-43,24,-39,-63,-39,-68,-58
-39,-68,-29,53,-4,-48,24,-39,-58,-29,-63,-63
-39,-78,-39,58,0,-58,24,-39,-53,-29,-58,-63
-43,-82,-39,63,-2,-61,29,-39,-53,-19,-53,-63
-53,-87,-34,70,-9,-61,29,-39,-53,-19,-53,-63
-53,-92,-39,73,-7,-65,29,-39,-53,-14,-48,-63
-53,-92,-39,73,-7,-65,29,-39,-48,-9,-43,-63
-48,-87,-39,68,-4,-63,29,-34,-43,-4,-43,-63
-43,-82,-39,63,-2,-61,34,-34,-39,-4,-43,-63
-34,-82,-48,58,7,-65,34,-29,-39,-4,-43,-63
-29,-78,-48,53,9,-63,39,-24,-34,-9,-43,-63
-39,-78,-39,58,0,-58,39,-19,-29,-9,-48,-68
-43,-82,-39,63,-2,-61,34,-19,-29,-9,-53,-73
-43,-82,-39,63,-2,-61,34,-19,-29,-9,-53,-73
-43,-82,-39,63,-2,-61,39,-14,-29,-9,-53,-78
-48,-82,-34,65,-7,-58,39,-14,-24,-9,-53,-78
-48,-82,-34,65,-7,-58,39,-9,-24,-9,-48,-78
-48,-78,-29,63,-9,-53,34,-4,-24,-14,-48,-78
-48,-78,-29,63,-9,-53,29,-4,-24,-14,-53,-73
-48,-78,-29,63,-9,-53,29,-4,-24,-14,-53,-73
-48,-78,-29,63,-9,-53,34,-4,-24,-14,-53,-73
-48,-82,-34,65,-7,-58,34,-4,-24,-9,-53,-73
-48,-87,-39,68,-4,-63,29,0,-29,-9,-58,-73
-48,-87,-39,68,-4,-63,29,-4,-29,-9,-63,-73
-48,-92,-43,70,-2,-68,29,-9,-29,-14,-63,-78
-48,-92,-43,70,-2,-68,29,-9,-29,-14,-63,-78
-53,-92,-39,73,-7,-65,29,-9,-29,-14,-63,-73
-53,-87,-34,70,-9,-61,34,-9,-34,-19,-63,-73
-48,-82,-34,65,-7,-58,34,-9,-34,-19,-63,-73
-48,-82,-34,65,-7,-58,34,-14,-39,-19,-63,-78
-48,-82,-34,65,-7,-58,34,-14,-39,-24,-63,-78
-48,-82,-34,65,-7,-58,29,-14,-39,-24,-63,-78
-48,-82,-34,65,-7,-58,29,-19,-39,-29,-63,-78
-53,-87,-34,70,-9,-61,29,-14,-48,-29,-68,-78
-53,-87,-34,70,-9,-61,29,-14,-48,-34,-68,-78
-48,-87,-39,68,-4,-63,24,-14,-48,-34,-73,-82
-48,-87,-39,68,-4,-63,24,-14,-53,-34,-73,-82
-48,-87,-39,68,-4,-63,24,-19,-53,-34,-73,-82
-48,-87,-39,68,-4,-63,24,-24,-53,-39,-73,-82
-48,-87,-39,68,-4,-63,24,-29,-63,-43,-78,-82
-48,-87,-39,68,-4,-63,24,-29,-63,-43,-78,-82
-48,-97,-48,73,0,-73,24,-34,-63,-48,-78,-82
-48,-102,-53,75,2,-78,24,-39,-63,-58,-82,-87
-63,-102,-39,82,-12,-70,24,-39,-68,-63,-82,-92
-73,-102,-29,87,-21,-65,24,-39,-73,-63,-82,-92
-58,-97,-39,78,-9,-68,24,-39,-73,-58,-82,-92
-43,-92,-48,68,2,-70,24,-39,-73,-53,-82,-92
-43,-92,-48,68,2,-70,19,-39,-78,-58,-87,-92
-43,-97,-53,70,4,-75,19,-43,-78,-58,-87,-92
-48,-97,-48,73,0,-73,19,-43,-78,-58,-87,-92
-53,-97,-43,75,-4,-70,19,-43,-78,-58,-87,-92
-53,-97,-43,75,-4,-70,19,-48,-82,-58,-87,-92
-53,-97,-43,75,-4,-70,19,-48,-82,-63,-92,-92
-58,-102,-43,80,-7,-73,24,-48,-87,-63,-92,-92
-58,-102,-43,80,-7,-73,29,-48,-87,-63,-92,-97
-58,-102,-43,80,-7,-73,24,-53,-87,-63,-87,-97
-58,-102,-43,80,-7,-73,24,-53,-87,-63,-82,-97
-58,-102,-43,80,-7,-73,19,-53,-92,-68,-87,-97
-53,-102,-48,78,-2,-75,19,-53,-92,-68,-87,-97
-53,-102,-48,78,-2,-75,19,-48,-92,-68,-92,-97
-53,-107,-53,80,0,-80,19,-48,-92,-68,-97,-97
-53,-112,-58,82,2,-85,19,-48,-92,-68,-97,-97
-53,-112,-58,82,2,-85,19,-48,-97,-68,-97,-97
-58,-112,-53,85,-2,-82,14,-53,-97,-73,-97,-97
-68,-112,-43,90,-12,-78,14,-53,-97,-73,-97,-97
-68,-112,-43,90,-12,-78,19,-53,-97,-73,-97,-97
-68,-112,-43,90,-12,-78,19,-58,-97,-73,-97,-97
-68,-112,-43,90,-12,-78,19,-58,-97,-73,-97,-102
-68,-112,-43,90,-12,-78,19,-63,-97,-73,-97,-102
-68,-112,-43,90,-12,-78,24,-58,-102,-73,-97,-102
-68,-112,-43,90,-12,-78,29,-53,-102,-73,-97,-102
-68,-112,-43,90,-12,-78,24,-53,-102,-78,-97,-102
-68,-112,-43,90,-12,-78,24,-53,-107,-82,-97,-102
-63,-122,-58,92,-2,-90,19,-58,-107,-82,-102,-107
-58,-126,-68,92,4,-97,14,-63,-107,-82,-107,-107
-58,-126,-68,92,4,-97,19,-63,-107,-92,-102,-107
-58,-117,-58,87,0,-87,19,-63,-107,-87,-102,-102
-58,-107,-48,82,-4,-78,19,-63,-107,-78,-102,-97
-48,-92,-43,70,-2,-68,19,-43,-97,-78,-97,-92
-39,-73,-34,56,-2,-53,24,-39,-82,-63,-82,-78
-29,-58,-29,43,0,-43,29,-34,-68,-53,-73,-68
-24,-43,-19,34,-2,-31,34,-24,-63,-43,-63,-63
-19,-29,-9,24,-4,-19,39,-19,-58,-39,-58,-58
-19,-14,4,17,-12,-4,43,-9,-53,-29,-48,-58
-19,0,19,9,-19,9,48,0,-48,-19,-39,-58
-9,9,19,0,-14,14,48,4,-43,-19,-39,-58
-4,14,19,-4,-12,17,43,4,-39,-14,-34,-53
0,24,24,-12,-12,24,43,9,-34,-9,-29,-48
14,43,29,-29,-7,36,24,14,-24,0,-24,-39
19,73,53,-46,-17,63,0,14,-4,9,-4,-29
24,78,53,-51,-14,65,-19,14,-4,9,0,-19
24,73,48,-48,-12,61,-29,0,-19,9,0,-19
24,68,43,-46,-9,56,-29,-24,-24,-4,-4,-19
24,63,39,-43,-7,51,-29,-24,-29,-4,-4,-19
43,68,24,-56,9,46,-34,-24,-29,4,4,-9
53,73,19,-63,17,46,-39,-9,-9,14,14,0
68,73,4,-70,31,39,-43,-9,-4,24,19,9
78,63,-14,-70,46,24,-58,-24,-14,29,19,9
78,53,-24,-65,51,14,-63,-39,-24,19,19,9
68,29,-39,-48,53,-4,-63,-43,-39,4,14,9
63,-14,-78,-24,70,-46,-63,-58,-68,-24,-9,-4
34,-34,-68,0,51,-51,-48,-68,-82,-43,-29,-34
9,-39,-48,14,29,-43,-34,-78,-97,-63,-48,-48
-4,-48,-43,26,19,-46,-24,-78,-102,-68,-53,-58
-24,-73,-48,48,12,-61,-14,-78,-112,-78,-73,-78
-48,-107,-58,78,4,-82,4,-68,-122,-97,-97,-97
-63,-126,-63,95,0,-95,4,-82,-141,-112,-112,-117
-73,-146,-73,109,0,-109,9,-87,-151,-122,-122,-122
-78,-156,-78,117,0,-117,14,-87,-151,-126,-126,-122
-82,-156,-73,119,-4,-114,19,-87,-151,-126,-126,-122
-87,-165,-78,126,-4,-122,19,-87,-156,-126,-136,-126
-97,-165,-68,131,-14,-117,19,-87,-156,-131,-136,-131
-97,-165,-68,131,-14,-117,29,-87,-156,-131,-141,-131
-92,-161,-68,126,-12,-114,29,-87,-156,-136,-141,-136
-92,-156,-63,124,-14,-109,34,-87,-161,-136,-141,-141
-97,-165,-68,131,-14,-117,39,-87,-161,-141,-151,-141
-97,-170,-73,134,-12,-122,39,-87,-165,-141,-151,-146
-102,-170,-68,136,-17,-119,39,-87,-165,-151,-151,-146
-102,-170,-68,136,-17,-119,43,-87,-170,-156,-156,-151
-102,-170,-68,136,-17,-119,43,-87,-170,-156,-156,-151
-102,-170,-68,136,-17,-119,43,-87,-170,-156,-156,-151
-107,-170,-63,139,-21,-117,39,-87,-170,-156,-156,-151
-107,-170,-63,139,-21,-117,34,-87,-170,-156,-151,-151
-107,-170,-63,139,-21,-117,39,-97,-170,-161,-151,-146
-122,-180,-58,151,-31,-119,58,-82,-170,-165,-161,-151
-136,-214,-78,175,-29,-146,97,-29,-175,-190,-214,-209
-151,-248,-97,200,-26,-173,131,53,-165,-219,-263,-278
-165,-302,-136,234,-14,-219,156,151,-131,-253,-312,-322
-117,-248,-131,183,7,-190,156,351,24,-151,-253,-292
29,-24,-53,-2,41,-39,58,605,268,82,-58,-117
209,234,24,-222,92,129,-102,551,414,361,229,136
419,536,117,-478,151,326,-287,287,517,692,614,483
561,854,292,-707,134,573,-448,-141,673,1102,1049,873
610,1210,600,-910,4,905,-512,-688,785,1561,1517,1268
624,1517,893,-1071,-134,1205,-570,-1195,780,1893,1908,1620
629,1810,1180,-1220,-275,1495,-732,-1654,1029,2440,2440,2059
639,1756,1117,-1198,-239,1437,-732,-1639,1464,2835,2718,2249
561,1327,766,-944,-102,1046,-556,-1449,1576,2488,2391,2030
448,873,424,-661,12,649,-527,-1473,1161,1756,1810,1639
200,522,322,-361,-61,422,-541,-1654,234,771,1039,1117
-43,224,268,-90,-156,246,-507,-1688,-570,-43,405,649
-82,43,126,19,-104,85,-483,-1390,-649,-195,180,409
-107,-43,63,75,-85,9,-356,-1015,-570,-229,24,200
-73,-48,24,61,-48,-12,-170,-517,-312,-146,0,97
-48,-68,-19,58,-14,-43,-24,-156,-102,-68,-4,39
-58,-82,-24,70,-17,-53,4,-63,-43,-53,-19,-4
-53,-92,-39,73,-7,-65,9,-29,-29,-48,-39,-39
-53,-112,-58,82,2,-85,39,9,-29,-68,-63,-63
-68,-131,-63,100,-2,-97,68,43,-39,-87,-102,-87
-82,-136,-53,109,-14,-95,68,48,-43,-92,-112,-97
-82,-141,-58,112,-12,-100,68,58,-43,-92,-112,-107
-78,-151,-73,114,-2,-112,78,87,-43,-97,-112,-112
-78,-151,-73,114,-2,-112,92,107,-39,-102,-126,-122
-78,-151,-73,114,-2,-112,92,112,-39,-107,-131,-131
-78,-151,-73,114,-2,-112,92,117,-34,-107,-131,-136
-78,-156,-78,117,0,-117,92,126,-34,-107,-131,-136
-73,-156,-82,114,4,-119,97,131,-29,-107,-131,-136
-68,-156,-87,112,9,-122,97,136,-29,-107,-136,-136
-63,-156,-92,109,14,-124,97,136,-29,-107,-136,-141
-63,-161,-97,112,17,-129,97,146,-24,-102,-136,-141
-58,-165,-107,112,24,-136,97,151,-24,-102,-136,-141
-58,-165,-107,112,24,-136,97,151,-14,-102,-136,-141
-53,-161,-107,107,26,-134,97,161,0,-97,-131,-141
-58,-161,-102,109,21,-131,97,165,0,-97,-131,-141
-58,-156,-97,107,19,-126,97,175,9,-97,-131,-141
-58,-151,-92,104,17,-122,97,180,4,-92,-126,-136
-53,-151,-97,102,21,-124,97,190,4,-87,-126,-136
-48,-151,-102,100,26,-126,97,195,14,-87,-126,-136
-48,-151,-102,100,26,-126,97,204,19,-87,-126,-136
-43,-146,-102,95,29,-124,97,214,29,-87,-122,-131
-43,-146,-102,95,29,-124,92,214,34,-82,-122,-131
-39,-146,-107,92,34,-126,92,224,39,-82,-122,-131
-39,-141,-102,90,31,-122,92,234,43,-78,-117,-131
-39,-141,-102,90,31,-122,92,239,53,-78,-117,-131
-34,-141,-107,87,36,-124,92,248,58,-73,-117,-126
-29,-136,-107,82,39,-122,92,258,63,-68,-117,-126
-24,-131,-107,78,41,-119,92,268,68,-68,-112,-122
-19,-126,-107,73,43,-117,92,278,82,-63,-107,-122
-14,-126,-112,70,48,-119,92,292,87,-58,-107,-117
-14,-122,-107,68,46,-114,87,297,97,-63,-107,-117
-14,-117,-102,65,43,-109,87,307,102,-63,-102,-117
-9,-112,-102,61,46,-107,87,322,112,-58,-102,-112
-4,-107,-102,56,48,-104,82,336,122,-53,-97,-107
-9,-97,-87,53,39,-92,82,346,126,-48,-97,-107
-4,-87,-82,46,39,-85,82,361,141,-43,-87,-102
-4,-82,-78,43,36,-80,78,375,146,-39,-82,-97
0,-73,-73,36,36,-73,78,395,156,-34,-82,-97
9,-63,-73,26,41,-68,73,405,165,-34,-78,-82
19,-53,-73,17,46,-63,73,414,175,-29,-73,-82
29,-34,-63,2,46,-48,68,424,185,-29,-68,-73
34,-24,-58,-4,46,-41,63,434,185,-24,-63,-63
29,-9,-39,-9,34,-24,58,444,190,-24,-58,-58
34,14,-19,-24,26,-2,58,444,190,-24,-48,-48
39,24,-14,-31,26,4,48,448,190,-24,-43,-34
53,48,-4,-51,29,21,39,453,185,-24,-34,-24
58,68,9,-63,24,39,29,448,175,-34,-34,-9
68,87,19,-78,24,53,19,439,165,-39,-24,0
82,112,29,-97,26,70,0,429,156,-48,-19,14
82,136,53,-109,14,95,-9,414,136,-63,-9,39
97,156,58,-126,19,107,-24,395,117,-73,-4,48
102,170,68,-136,17,119,-34,366,92,-87,0,68
102,180,78,-141,12,129,-43,336,73,-102,4,82
107,195,87,-151,9,141,-68,312,39,-112,9,92
107,204,97,-156,4,151,-78,283,9,-126,9,107
107,209,102,-158,2,156,-92,253,-9,-146,9,112
112,214,102,-163,4,158,-102,234,-24,-165,9,122
112,219,107,-165,2,163,-107,209,-53,-175,-4,122
117,204,87,-161,14,146,-112,180,-78,-195,-14,112
112,190,78,-151,17,134,-112,151,-102,-214,-24,97
92,165,73,-129,9,119,-102,136,-112,-219,-39,82
82,141,58,-112,12,100,-92,107,-126,-234,-58,58
63,122,58,-92,2,90,-82,92,-136,-234,-68,39
53,102,48,-78,2,75,-73,73,-136,-229,-73,24
39,78,39,-58,0,58,-53,53,-141,-219,-78,9
24,53,29,-39,-2,41,-39,29,-141,-209,-82,0
9,39,29,-24,-9,34,-29,19,-141,-195,-82,-14
4,24,19,-14,-7,21,-19,9,-136,-175,-78,-24
0,14,14,-7,-7,14,-14,-4,-122,-165,-78,-34
-4,9,14,-2,-9,12,-9,-19,-112,-141,-73,-39
-9,0,9,4,-9,4,-4,-29,-102,-126,-73,-39
-19,-4,14,12,-17,4,0,-34,-92,-117,-68,-43
-24,-14,9,19,-17,-2,4,-34,-92,-102,-68,-53
-29,-29,0,29,-14,-14,4,-39,-82,-92,-68,-58
-34,-29,4,31,-19,-12,9,-39,-78,-78,-63,-58
-39,-24,14,31,-26,-4,14,-39,-73,-68,-58,-58
-39,-29,9,34,-24,-9,14,-39,-68,-53,-53,-58
-39,-39,0,39,-19,-19,14,-39,-63,-48,-48,-53
-39,-39,0,39,-19,-19,19,-39,-58,-39,-43,-53
-43,-39,4,41,-24,-17,19,-39,-53,-39,-43,-53
-43,-43,0,43,-21,-21,19,-39,-53,-29,-43,-53
-43,-43,0,43,-21,-21,19,-39,-48,-19,-43,-53
-43,-43,0,43,-21,-21,19,-34,-39,-14,-43,-53
-43,-43,0,43,-21,-21,24,-34,-29,-14,-43,-53
-43,-48,-4,46,-19,-26,24,-29,-29,-9,-39,-53
-48,-48,0,48,-24,-24,29,-24,-24,-9,-34,-53
-53,-48,4,51,-29,-21,34,-19,-19,-9,-34,-53
-53,-53,0,53,-26,-26,34,-19,-19,-9,-34,-53
-53,-53,0,53,-26,-26,34,-19,-19,-9,-34,-53
-53,-53,0,53,-26,-26,39,-14,-19,-9,-34,-58
-53,-53,0,53,-26,-26,39,-14,-14,-9,-39,-58
-48,-53,-4,51,-21,-29,39,-9,-14,-9,-39,-58
-48,-53,-4,51,-21,-29,39,-4,-14,-14,-39,-63
-48,-58,-9,53,-19,-34,39,-4,-14,-14,-43,-63
-48,-58,-9,53,-19,-34,39,0,-14,-14,-43,-63
-48,-58,-9,53,-19,-34,43,4,-14,-14,-43,-63
-48,-58,-9,53,-19,-34,43,4,-14,-14,-43,-63
-48,-58,-9,53,-19,-34,39,9,-19,-19,-48,-63
-48,-53,-4,51,-21,-29,43,9,-19,-19,-53,-63
-48,-53,-4,51,-21,-29,48,9,-19,-24,-53,-68
-48,-53,-4,51,-21,-29,48,9,-19,-24,-53,-73
-53,-53,0,53,-26,-26,48,9,-19,-24,-53,-73
-53,-53,0,53,-26,-26,48,9,-24,-34,-53,-73
-48,-53,-4,51,-21,-29,43,9,-24,-39,-53,-73
-48,-53,-4,51,-21,-29,43,4,-29,-39,-58,-78
-48,-53,-4,51,-21,-29,43,4,-29,-43,-63,-78
-43,-58,-14,51,-14,-36,39,0,-29,-43,-63,-78
-39,-63,-24,51,-7,-43,39,-9,-29,-48,-63,-78
-43,-68,-24,56,-9,-46,39,-9,-39,-48,-68,-78
-43,-68,-24,56,-9,-46,39,-14,-39,-53,-68,-78
-43,-68,-24,56,-9,-46,34,-14,-39,-53,-68,-82
-48,-68,-19,58,-14,-43,34,-14,-43,-53,-63,-82
-48,-63,-14,56,-17,-39,34,-14,-43,-53,-63,-82
-48,-58,-9,53,-19,-34,34,-14,-43,-58,-63,-82
-48,-58,-9,53,-19,-34,34,-19,-53,-63,-73,-82
-48,-58,-9,53,-19,-34,34,-19,-53,-63,-78,-82
-48,-63,-14,56,-17,-39,34,-19,-53,-63,-78,-82
-48,-63,-14,56,-17,-39,34,-19,-53,-68,-82,-87
-53,-63,-9,58,-21,-36,34,-19,-58,-73,-78,-87
-53,-63,-9,58,-21,-36,34,-19,-63,-73,-73,-82
-53,-63,-9,58,-21,-36,34,-19,-63,-73,-73,-82
-53,-63,-9,58,-21,-36,34,-19,-63,-73,-73,-82
-53,-63,-9,58,-21,-36,29,-19,-68,-73,-78,-82
-53,-68,-14,61,-19,-41,29,-24,-68,-68,-78,-82
-53,-68,-14,61,-19,-41,29,-29,-68,-68,-78,-82
-53,-68,-14,61,-19,-41,29,-34,-68,-68,-78,-82
-53,-68,-14,61,-19,-41,29,-39,-73,-68,-78,-82
-53,-68,-14,61,-19,-41,29,-39,-73,-73,-82,-82
-58,-73,-14,65,-21,-43,29,-39,-78,-73,-82,-82
-58,-73,-14,65,-21,-43,29,-39,-78,-73,-82,-87
-58,-73,-14,65,-21,-43,24,-43,-78,-73,-82,-87
-58,-73,-14,65,-21,-43,24,-43,-78,-73,-82,-87
-58,-78,-19,68,-19,-48,19,-43,-82,-82,-87,-87
-53,-82,-29,68,-12,-56,19,-43,-82,-87,-87,-87
-53,-78,-24,65,-14,-51,19,-43,-82,-87,-87,-87
-53,-78,-24,65,-14,-51,19,-48,-82,-87,-87,-87
-53,-78,-24,65,-14,-51,24,-48,-82,-82,-87,-87
-53,-73,-19,63,-17,-46,29,-48,-87,-78,-87,-87
-53,-73,-19,63,-17,-46,24,-53,-87,-82,-87,-87
-58,-73,-14,65,-21,-43,24,-53,-87,-82,-87,-87
-58,-73,-14,65,-21,-43,29,-48,-87,-82,-87,-87
-58,-73,-14,65,-21,-43,29,-48,-87,-82,-87,-87
-58,-73,-14,65,-21,-43,29,-48,-87,-87,-87,-92
-58,-73,-14,65,-21,-43,29,-53,-87,-92,-87,-92
-58,-73,-14,65,-21,-43,29,-53,-97,-92,-87,-92
-58,-73,-14,65,-21,-43,29,-53,-102,-92,-87,-92
-58,-73,-14,65,-21,-43,24,-53,-97,-92,-87,-92
-58,-73,-14,65,-21,-43,24,-53,-97,-92,-87,-92
-53,-73,-19,63,-17,-46,24,-53,-97,-92,-87,-92
-48,-68,-19,58,-14,-43,24,-53,-97,-92,-87,-87
-48,-73,-24,61,-12,-48,24,-53,-97,-102,-87,-92
-48,-68,-19,58,-14,-43,19,-53,-97,-97,-92,-92
-53,-68,-14,61,-19,-41,19,-58,-102,-87,-92,-87
-53,-68,-14,61,-19,-41,14,-53,-107,-92,-92,-82
-48,-63,-14,56,-17,-39,19,-43,-92,-82,-92,-87
-34,-34,0,34,-17,-17,24,-34,-73,-63,-82,-73
-19,-14,4,17,-12,-4,29,-19,-63,-53,-68,-63
-9,0,9,4,-9,4,39,-9,-58,-48,-58,-58
-4,24,29,-9,-17,26,43,0,-39,-34,-43,-48
0,48,48,-24,-24,48,48,9,-19,-19,-29,-39
0,53,53,-26,-26,53,48,14,-19,-19,-29,-39
0,58,58,-29,-29,58,48,14,-14,-14,-24,-34
4,68,63,-36,-29,65,48,19,-14,-14,-24,-34
9,73,63,-41,-26,68,43,19,-14,-9,-19,-29
24,87,63,-56,-19,75,24,24,-4,0,-14,-14
34,107,73,-70,-19,90,0,24,14,14,4,0
43,107,63,-75,-9,85,-14,24,14,19,9,9
43,102,58,-73,-7,80,-19,9,0,19,9,9
48,102,53,-75,-2,78,-19,-14,-4,4,4,9
53,107,53,-80,0,80,-19,-14,-9,4,4,9
73,117,43,-95,14,80,-24,-14,-9,14,14,19
82,122,39,-102,21,80,-29,0,4,24,24,29
97,122,24,-109,36,73,-34,0,4,34,29,39
107,112,4,-109,51,58,-48,-14,-4,34,29,39
107,97,-9,-102,58,43,-53,-29,-14,19,29,39
92,68,-24,-80,58,21,-53,-39,-29,4,19,34
78,24,-53,-51,65,-14,-53,-58,-63,-29,-9,14
43,-4,-48,-19,46,-26,-39,-68,-82,-53,-29,-14
19,-19,-39,0,29,-29,-24,-78,-97,-73,-48,-29
4,-29,-34,12,19,-31,-14,-78,-102,-78,-53,-39
-14,-53,-39,34,12,-46,-9,-78,-112,-87,-73,-58
-39,-82,-43,61,2,-63,4,-68,-122,-107,-97,-78
-53,-97,-43,75,-4,-70,4,-82,-141,-122,-112,-97
-63,-112,-48,87,-7,-80,9,-87,-151,-131,-117,-102
-68,-117,-48,92,-9,-82,19,-87,-151,-136,-117,-107
-68,-117,-48,92,-9,-82,24,-87,-151,-136,-117,-112
-63,-126,-63,95,0,-95,19,-87,-156,-136,-126,-117
-68,-126,-58,97,-4,-92,19,-87,-156,-141,-126,-122
-68,-122,-53,95,-7,-87,29,-87,-156,-136,-131,-122
-68,-117,-48,92,-9,-82,29,-87,-156,-136,-131,-126
-73,-117,-43,95,-14,-80,34,-87,-161,-136,-131,-131
-78,-126,-48,102,-14,-87,39,-87,-161,-141,-141,-131
-78,-136,-58,107,-9,-97,39,-87,-161,-141,-141,-136
-82,-141,-58,112,-12,-100,39,-87,-156,-146,-141,-136
-87,-141,-53,114,-17,-97,43,-87,-161,-146,-146,-141
-92,-141,-48,117,-21,-95,43,-87,-161,-146,-146,-141
-92,-141,-48,117,-21,-95,43,-87,-161,-146,-146,-141
-97,-141,-43,119,-26,-92,43,-87,-161,-146,-151,-141
-97,-141,-43,119,-26,-92,43,-87,-161,-146,-151,-141
-97,-141,-43,119,-26,-92,48,-82,-156,-151,-151,-146
-107,-146,-39,126,-34,-92,68,-43,-151,-156,-161,-161
-117,-175,-58,146,-29,-117,107,29,-141,-175,-209,-209
-131,-209,-78,170,-26,-143,141,122,-107,-195,-244,-263
-117,-219,-102,168,-7,-161,141,234,-39,-175,-234,-258
-39,-112,-73,75,17,-92,117,439,131,-24,-126,-180
131,136,4,-134,63,70,4,610,356,229,107,34
336,409,73,-373,131,241,-165,448,488,527,429,322
522,712,190,-617,165,451,-326,112,585,873,819,678
624,1024,400,-824,112,712,-468,-356,741,1293,1259,1073
644,1337,692,-990,-24,1015,-527,-873,873,1712,1698,1449
644,1600,956,-1122,-156,1278,-585,-1332,902,2010,2059,1776
624,1756,1132,-1190,-253,1444,-692,-1683,1107,2371,2410,2074
610,1561,951,-1085,-170,1256,-639,-1571,1454,2552,2493,2117
497,1137,639,-817,-70,888,-497,-1449,1342,2059,2049,1805
361,688,326,-524,17,507,-497,-1532,746,1229,1385,1346
146,380,234,-263,-43,307,-497,-1610,-4,448,746,893
-68,151,219,-41,-143,185,-439,-1542,-629,-161,244,492
-78,19,97,29,-87,58,-395,-1180,-595,-219,97,307
-78,-34,43,56,-61,4,-258,-771,-424,-180,4,146
-43,-39,4,41,-24,-17,-102,-346,-204,-107,-14,68
-19,-58,-39,39,9,-48,14,-68,-48,-48,-14,29
-34,-73,-39,53,2,-56,39,-14,-19,-48,-24,-9
-34,-82,-48,58,7,-65,39,0,-19,-53,-43,-39
-34,-102,-68,68,17,-85,63,34,-19,-78,-68,-63
-53,-122,-68,87,7,-95,82,63,-29,-97,-102,-92
-73,-126,-53,100,-9,-90,78,68,-34,-102,-112,-107
-73,-131,-58,102,-7,-95,78,78,-34,-97,-112,-117
-68,-141,-73,104,2,-107,82,102,-34,-97,-112,-122
-68,-141,-73,104,2,-107,97,117,-29,-102,-126,-131
-68,-141,-73,104,2,-107,102,122,-29,-107,-131,-136
-68,-141,-73,104,2,-107,102,126,-24,-107,-131,-136
-68,-146,-78,107,4,-112,102,136,-24,-107,-131,-136
-63,-146,-82,104,9,-114,107,141,-19,-107,-126,-136
-63,-146,-82,104,9,-114,107,146,-19,-107,-126,-136
-63,-146,-82,104,9,-114,102,146,-19,-107,-126,-141
-63,-146,-82,104,9,-114,97,156,-14,-102,-126,-141
-63,-146,-82,104,9,-114,97,161,-14,-102,-126,-141
-68,-146,-78,107,4,-112,97,161,-9,-102,-126,-141
-63,-141,-78,102,7,-109,97,170,0,-97,-126,-141
-63,-141,-78,102,7,-109,97,175,0,-97,-131,-141
-53,-136,-82,95,14,-109,97,180,9,-97,-131,-141
-48,-131,-82,90,17,-107,97,180,9,-92,-126,-136
-43,-131,-87,87,21,-109,97,190,14,-87,-126,-136
-39,-131,-92,85,26,-112,97,195,24,-87,-126,-136
-39,-136,-97,87,29,-117,97,209,29,-87,-126,-136
-34,-136,-102,85,34,-119,97,224,39,-87,-122,-131
-34,-136,-102,85,34,-119,92,224,39,-82,-122,-131
-29,-136,-107,82,39,-122,92,234,39,-82,-122,-131
-34,-126,-92,80,29,-109,92,244,43,-78,-117,-131
-39,-122,-82,80,21,-102,92,248,53,-78,-117,-131
-34,-122,-87,78,26,-104,92,258,58,-73,-117,-126
-29,-117,-87,73,29,-102,92,268,63,-68,-117,-126
-24,-112,-87,68,31,-100,92,278,68,-68,-112,-122
-19,-107,-87,63,34,-97,92,287,82,-63,-107,-122
-14,-107,-92,61,39,-100,92,302,92,-58,-102,-117
-14,-102,-87,58,36,-95,87,307,107,-58,-97,-117
-14,-97,-82,56,34,-90,87,317,112,-53,-92,-112
-9,-92,-82,51,36,-87,87,331,122,-48,-92,-102
0,-87,-87,43,43,-87,82,346,131,-43,-87,-97
4,-78,-82,36,43,-80,82,356,136,-39,-87,-97
14,-68,-82,26,48,-75,82,370,151,-34,-78,-92
14,-63,-78,24,46,-70,78,380,156,-29,-73,-87
19,-48,-68,14,43,-58,78,395,165,-24,-73,-87
24,-34,-58,4,41,-46,73,405,170,-24,-68,-73
29,-24,-53,-2,41,-39,73,414,175,-19,-63,-73
39,-4,-43,-17,41,-24,68,424,185,-19,-58,-63
39,-4,-43,-17,41,-24,63,434,185,-14,-58,-58
34,0,-34,-17,34,-17,53,444,190,-14,-58,-58
43,24,-19,-34,31,2,48,444,190,-14,-48,-48
48,34,-14,-41,31,9,39,444,190,-14,-43,-34
63,58,-4,-61,34,26,29,439,185,-14,-34,-24
63,78,14,-70,24,46,19,429,175,-24,-34,-9
68,97,29,-82,19,63,9,419,165,-29,-24,4
82,117,34,-100,24,75,-9,405,156,-39,-24,24
82,141,58,-112,12,100,-19,385,136,-53,-14,48
97,165,68,-131,14,117,-34,366,117,-63,-4,58
102,180,78,-141,12,129,-43,336,92,-78,0,73
102,190,87,-146,7,139,-53,307,73,-92,4,82
107,204,97,-156,4,151,-78,283,39,-102,4,92
112,214,102,-163,4,158,-87,253,9,-117,0,102
122,219,97,-170,12,158,-102,224,-9,-136,0,102
131,219,87,-175,21,153,-107,204,-24,-156,0,112
131,219,87,-175,21,153,-107,180,-53,-165,-14,112
131,204,73,-168,29,139,-107,156,-73,-180,-24,102
122,190,68,-156,26,129,-102,131,-92,-195,-34,87
102,165,63,-134,19,114,-92,117,-102,-200,-48,73
92,141,48,-117,21,95,-82,87,-117,-214,-68,48
73,122,48,-97,12,85,-73,73,-126,-214,-78,29
63,97,34,-80,14,65,-63,53,-126,-209,-82,14
48,73,24,-61,12,48,-48,39,-126,-200,-82,0
34,53,19,-43,7,36,-39,19,-122,-190,-82,-9
19,39,19,-29,0,29,-29,9,-122,-175,-82,-19
14,29,14,-21,0,21,-19,0,-122,-156,-78,-29
4,19,14,-12,-4,17,-14,-9,-117,-146,-78,-43
-4,9,14,-2,-9,12,-9,-19,-112,-122,-73,-48
-9,0,9,4,-9,4,-4,-29,-102,-107,-73,-48
-19,-4,14,12,-17,4,0,-34,-87,-97,-68,-48
-24,-9,14,17,-19,2,4,-34,-82,-82,-63,-48
-29,-19,9,24,-19,-4,4,-39,-73,-73,-58,-48
-29,-19,9,24,-19,-4,9,-39,-68,-58,-53,-48
-29,-19,9,24,-19,-4,14,-39,-63,-48,-48,-48
-29,-24,4,26,-17,-9,14,-39,-58,-39,-48,-53
-34,-29,4,31,-19,-12,14,-39,-53,-39,-48,-53
-39,-29,9,34,-24,-9,19,-39,-48,-29,-43,-53
-43,-29,14,36,-29,-7,19,-39,-43,-29,-43,-53
-43,-34,9,39,-26,-12,19,-39,-43,-24,-39,-53
-43,-34,9,39,-26,-12,19,-39,-39,-19,-34,-53
-43,-34,9,39,-26,-12,19,-34,-34,-14,-34,-53
-43,-34,9,39,-26,-12,24,-34,-29,-14,-34,-53
-43,-39,4,41,-24,-17,24,-29,-29,-9,-34,-53
-48,-34,14,41,-31,-9,24,-24,-24,-9,-34,-53
-48,-29,19,39,-34,-4,24,-19,-19,-9,-34,-53
-43,-34,9,39,-26,-12,24,-14,-19,-9,-34,-53
-43,-34,9,39,-26,-12,24,-9,-19,-9,-34,-53
-43,-39,4,41,-24,-17,34,-4,-19,-9,-39,-58
-48,-43,4,46,-26,-19,39,-4,-14,-9,-48,-58
-48,-43,4,46,-26,-19,39,0,-14,-9,-48,-58
-48,-43,4,46,-26,-19,39,4,-14,-14,-48,-63
-48,-53,-4,51,-21,-29,39,4,-14,-19,-53,-68
-48,-58,-9,53,-19,-34,39,4,-14,-24,-53,-73
-48,-58,-9,53,-19,-34,43,4,-14,-24,-53,-73
-48,-58,-9,53,-19,-34,43,4,-14,-24,-53,-73
-48,-58,-9,53,-19,-34,39,9,-19,-29,-53,-68
-48,-58,-9,53,-19,-34,39,9,-19,-29,-53,-63
-48,-63,-14,56,-17,-39,39,9,-19,-34,-53,-68
-48,-63,-14,56,-17,-39,39,9,-19,-34,-53,-68
-53,-58,-4,56,-24,-31,39,9,-19,-34,-58,-63
-53,-53,0,53,-26,-26,43,9,-24,-39,-63,-63
-48,-53,-4,51,-21,-29,43,9,-24,-39,-63,-63
-48,-53,-4,51,-21,-29,43,4,-29,-39,-63,-68
-48,-53,-4,51,-21,-29,43,4,-29,-43,-63,-68
-48,-53,-4,51,-21,-29,39,4,-29,-43,-63,-68
-48,-53,-4,51,-21,-29,39,0,-29,-43,-63,-68
-53,-58,-4,56,-24,-31,39,0,-39,-39,-68,-68
-48,-58,-9,53,-19,-34,39,-4,-39,-43,-68,-68
-39,-58,-19,48,-9,-39,34,-4,-39,-43,-73,-73
-39,-58,-19,48,-9,-39,34,-9,-43,-48,-73,-78
-39,-58,-19,48,-9,-39,34,-14,-43,-53,-73,-82
-43,-58,-14,51,-14,-36,34,-14,-43,-58,-73,-82
-48,-58,-9,53,-19,-34,34,-19,-53,-63,-78,-82
-48,-58,-9,53,-19,-34,34,-19,-58,-63,-73,-78
-48,-63,-14,56,-17,-39,34,-24,-63,-63,-68,-73
-48,-63,-14,56,-17,-39,34,-24,-63,-63,-73,-78
-53,-63,-9,58,-21,-36,34,-19,-68,-63,-73,-82
-53,-63,-9,58,-21,-36,34,-19,-68,-63,-78,-82
-53,-63,-9,58,-21,-36,34,-19,-63,-63,-82,-82
-53,-63,-9,58,-21,-36,34,-24,-63,-63,-82,-82
-53,-63,-9,58,-21,-36,29,-29,-68,-68,-87,-82
-53,-63,-9,58,-21,-36,29,-34,-68,-73,-87,-82
-53,-58,-4,56,-24,-31,29,-34,-68,-78,-87,-82
-53,-58,-4,56,-24,-31,29,-34,-73,-78,-87,-82
-53,-58,-4,56,-24,-31,29,-39,-82,-78,-87,-82
-53,-58,-4,56,-24,-31,29,-39,-82,-82,-92,-82
-58,-63,-4,61,-26,-34,29,-39,-87,-82,-92,-82
-58,-68,-9,63,-24,-39,29,-39,-87,-82,-92,-87
-58,-73,-14,65,-21,-43,24,-43,-87,-82,-92,-87
-58,-73,-14,65,-21,-43,24,-43,-87,-82,-87,-87
-58,-73,-14,65,-21,-43,24,-43,-92,-87,-87,-87
-53,-73,-19,63,-17,-46,29,-43,-92,-87,-87,-87
-53,-68,-14,61,-19,-41,29,-43,-92,-87,-87,-87
-58,-68,-9,63,-24,-39,29,-48,-92,-87,-92,-92
-63,-73,-9,68,-26,-41,29,-48,-92,-87,-97,-97
-63,-73,-9,68,-26,-41,29,-48,-97,-87,-97,-97
-63,-73,-9,68,-26,-41,24,-53,-97,-92,-97,-97
-68,-68,0,68,-34,-34,24,-53,-97,-92,-97,-92
-68,-63,4,65,-36,-29,29,-48,-97,-92,-97,-87
-63,-63,0,63,-31,-31,29,-48,-97,-92,-97,-87
-58,-63,-4,61,-26,-34,29,-48,-97,-92,-97,-92
-58,-63,-4,61,-26,-34,29,-53,-97,-92,-97,-92
-58,-63,-4,61,-26,-34,29,-53,-102,-92,-97,-92
-58,-68,-9,63,-24,-39,29,-53,-102,-92,-97,-92
-58,-73,-14,65,-21,-43,24,-53,-97,-92,-97,-92
-63,-73,-9,68,-26,-41,24,-53,-97,-92,-97,-97
-63,-73,-9,68,-26,-41,24,-53,-97,-92,-97,-102
-63,-78,-14,70,-24,-46,24,-58,-102,-92,-97,-97
-63,-78,-14,70,-24,-46,29,-58,-102,-92,-92,-97
-58,-68,-9,63,-24,-39,24,-53,-102,-92,-97,-97
-58,-68,-9,63,-24,-39,24,-53,-102,-92,-102,-97
-53,-58,-4,56,-24,-31,19,-53,-107,-97,-102,-92
-43,-43,0,43,-21,-21,19,-43,-92,-82,-82,-87
-29,-19,9,24,-19,-4,19,-24,-78,-73,-73,-82
-19,0,19,9,-19,9,19,-9,-68,-68,-68,-78
-9,14,24,-2,-17,19,29,-4,-58,-53,-53,-63
0,29,29,-14,-14,29,39,0,-48,-39,-39,-48
0,39,39,-19,-19,39,43,9,-39,-34,-34,-43
0,48,48,-24,-24,48,48,14,-29,-29,-29,-39
0,58,58,-29,-29,58,53,19,-24,-24,-24,-34
0,63,63,-31,-31,63,53,19,-24,-19,-19,-29
19,82,63,-51,-21,73,34,24,-14,-9,-14,-19
34,107,73,-70,-19,90,9,24,4,4,4,-9
43,107,63,-75,-9,85,-9,34,9,19,9,0
43,102,58,-73,-7,80,-19,29,0,29,9,0
39,92,53,-65,-7,73,-24,-4,-4,4,4,0
34,87,53,-61,-9,70,-29,-14,-9,-4,4,0
53,97,43,-75,4,70,-34,-14,-14,4,14,9
63,102,39,-82,12,70,-39,0,-4,14,24,19
78,107,29,-92,24,68,-43,0,-4,24,29,29
87,102,14,-95,36,58,-58,-14,-14,24,29,29
92,92,0,-92,46,46,-63,-29,-24,14,29,29
82,68,-14,-75,48,26,-63,-39,-39,4,19,24
73,24,-48,-48,61,-12,-63,-58,-68,-24,-9,9
43,-4,-48,-19,46,-26,-48,-68,-82,-43,-29,-14
19,-19,-39,0,29,-29,-34,-78,-97,-63,-48,-29
4,-29,-34,12,19,-31,-24,-78,-102,-68,-53,-39
-14,-48,-34,31,9,-41,-14,-78,-112,-78,-73,-58
-39,-73,-34,56,-2,-53,4,-68,-122,-97,-97,-78
-53,-87,-34,70,-9,-61,4,-87,-141,-112,-112,-102
-63,-102,-39,82,-12,-70,9,-97,-151,-122,-117,-112
-68,-112,-43,90,-12,-78,14,-97,-151,-131,-122,-112
-68,-117,-48,92,-9,-82,14,-97,-151,-136,-126,-112
-73,-126,-53,100,-9,-90,9,-97,-156,-136,-136,-117
-87,-126,-39,107,-24,-82,9,-97,-156,-141,-136,-122
-87,-126,-39,107,-24,-82,19,-97,-156,-141,-141,-122
-87,-126,-39,107,-24,-82,19,-97,-156,-146,-141,-126
-92,-126,-34,109,-29,-80,24,-97,-161,-146,-136,-131
-97,-136,-39,117,-29,-87,29,-97,-161,-151,-141,-131
-97,-146,-48,122,-24,-97,29,-97,-165,-151,-141,-136
-102,-151,-48,126,-26,-100,29,-97,-165,-156,-141,-136
-102,-151,-48,126,-26,-100,34,-97,-170,-156,-146,-141
-102,-151,-48,126,-26,-100,34,-97,-170,-156,-146,-141
-102,-151,-48,126,-26,-100,34,-97,-170,-156,-146,-141
-107,-151,-43,129,-31,-97,34,-97,-170,-156,-151,-141
-112,-151,-39,131,-36,-95,24,-102,-170,-156,-151,-141
-117,-151,-34,134,-41,-92,19,-102,-165,-161,-151,-146
-131,-151,-19,141,-56,-85,39,-82,-165,-165,-151,-151
-146,-175,-29,161,-58,-102,78,-29,-161,-185,-190,-190
-165,-229,-63,197,-51,-146,126,39,-165,-239,-263,-273
-156,-258,-102,207,-26,-180,141,126,-136,-253,-292,-297
-112,-204,-92,158,-9,-148,141,400,39,-141,-234,-268
24,-9,-34,-7,29,-21,53,639,268,73,-48,-102
244,239,-4,-241,124,117,-122,590,405,351,244,165
444,517,73,-480,185,295,-287,366,507,678,605,502
590,844,253,-717,168,549,-444,-87,692,1102,1058,902
653,1171,517,-912,68,844,-517,-590,854,1527,1512,1283
658,1527,868,-1093,-104,1198,-580,-1176,810,1849,1927,1673
644,1776,1132,-1210,-244,1454,-692,-1654,941,2235,2332,2034
658,1659,1000,-1159,-170,1329,-644,-1551,1468,2630,2586,2191
575,1312,736,-944,-80,1024,-507,-1439,1537,2352,2313,1991
429,829,400,-629,14,614,-507,-1561,966,1503,1620,1522
204,488,283,-346,-39,385,-507,-1678,239,702,951,1058
-53,209,263,-78,-158,236,-473,-1693,-546,-48,361,610
-107,29,136,39,-122,82,-453,-1415,-673,-248,126,375
-107,-24,82,65,-95,29,-317,-976,-512,-219,14,185
-73,-29,43,51,-58,7,-161,-522,-302,-156,-24,78
-43,-53,-9,48,-17,-31,-24,-165,-102,-78,-24,34
-53,-73,-19,63,-17,-46,19,-34,-29,-58,-34,-9
-53,-82,-29,68,-12,-56,19,-19,-29,-58,-48,-39
