I,II,III,aVR,aVL,aVF,V1,V2,V3,V4,V5,V6,
39,-29,-68,-4,53,-48,-48,29,-68,-48,-19,0
39,-29,-68,-4,53,-48,-48,29,-68,-48,-19,0
39,-29,-68,-4,53,-48,-48,29,-68,-48,-19,0
39,-29,-68,-4,53,-48,-48,29,-68,-48,-19,0
29,-29,-58,0,43,-43,-58,29,-68,-48,-24,0
29,-29,-58,0,43,-43,-58,29,-68,-48,-29,0
29,-29,-58,0,43,-43,-58,29,-68,-48,-34,0
29,-29,-58,0,43,-43,-58,29,-68,-48,-39,0
39,-39,-78,0,58,-58,-68,39,-78,-48,-34,0
39,-39,-78,0,58,-58,-68,39,-78,-48,-29,0
39,-39,-78,0,58,-58,-68,39,-78,-48,-24,0
39,-39,-78,0,58,-58,-68,39,-78,-48,-19,0
43,-29,-73,-7,58,-51,-78,48,-78,-58,-29,9
48,-29,-78,-9,63,-53,-78,48,-78,-58,-29,9
53,-29,-82,-12,68,-56,-78,48,-78,-58,-29,9
58,-29,-87,-14,73,-58,-78,48,-78,-58,-29,9
58,-29,-87,-14,73,-58,-87,48,-82,-68,-19,14
58,-29,-87,-14,73,-58,-87,48,-87,-68,-19,19
58,-29,-87,-14,73,-58,-87,48,-92,-68,-19,24
58,-29,-87,-14,73,-58,-87,48,-97,-68,-19,29
68,-19,-87,-24,78,-53,-97,58,-97,-68,-19,29
68,-19,-87,-24,78,-53,-97,58,-97,-68,-19,29
68,-19,-87,-24,78,-53,-97,58,-97,-68,-19,29
68,-19,-87,-24,78,-53,-97,58,-97,-68,-19,29
73,-9,-82,-31,78,-46,-107,68,-107,-68,-9,29
78,-9,-87,-34,82,-48,-107,68,-107,-68,-9,29
82,-9,-92,-36,87,-51,-107,68,-107,-68,-9,29
87,-9,-97,-39,92,-53,-107,68,-107,-68,-9,29
97,0,-97,-48,97,-48,-117,78,-117,-78,-19,39
97,0,-97,-48,97,-48,-117,78,-117,-78,-19,39
97,0,-97,-48,97,-48,-117,78,-117,-78,-19,39
97,0,-97,-48,97,-48,-117,78,-117,-78,-19,39
102,0,-102,-51,102,-51,-126,87,-126,-78,-9,39
107,0,-107,-53,107,-53,-126,87,-126,-78,-9,39
112,0,-112,-56,112,-56,-126,87,-126,-78,-9,39
117,0,-117,-58,117,-58,-126,87,-126,-78,-9,39
117,-9,-126,-53,122,-68,-131,97,-136,-82,-19,39
117,-9,-126,-53,122,-68,-136,97,-136,-87,-19,39
117,-9,-126,-53,122,-68,-141,97,-136,-92,-19,39
117,-9,-126,-53,122,-68,-146,97,-136,-97,-19,39
122,-4,-126,-58,124,-65,-156,107,-146,-107,-19,39
126,0,-126,-63,126,-63,-156,107,-146,-107,-19,39
131,4,-126,-68,129,-61,-156,107,-146,-107,-19,39
136,9,-126,-73,131,-58,-156,107,-146,-107,-19,39
146,0,-146,-73,146,-73,-165,107,-156,-117,-29,48
146,0,-146,-73,146,-73,-165,107,-156,-117,-29,48
146,0,-146,-73,146,-73,-165,107,-156,-117,-29,48
146,0,-146,-73,146,-73,-165,107,-156,-117,-29,48
156,9,-146,-82,151,-68,-175,107,-165,-126,-29,58
156,9,-146,-82,151,-68,-175,107,-165,-126,-29,58
156,9,-146,-82,151,-68,-175,107,-165,-126,-29,58
156,9,-146,-82,151,-68,-175,107,-165,-126,-29,58
156,14,-141,-85,148,-63,-180,107,-175,-126,-19,73
156,19,-136,-87,146,-58,-185,107,-175,-126,-19,78
156,24,-131,-90,143,-53,-190,107,-175,-126,-19,82
156,29,-126,-92,141,-48,-195,107,-175,-126,-19,87
161,43,-117,-102,139,-36,-200,97,-175,-126,-4,102
165,48,-117,-107,141,-34,-204,97,-175,-126,0,107
170,53,-117,-112,143,-31,-209,97,-175,-126,4,112
175,58,-117,-117,146,-29,-214,97,-175,-126,9,117
185,68,-117,-126,151,-24,-224,97,-165,-122,24,126
185,78,-107,-131,146,-14,-224,97,-165,-117,29,136
185,87,-97,-136,141,-4,-224,97,-165,-112,34,146
185,97,-87,-141,136,4,-224,97,-165,-107,39,156
175,87,-87,-131,131,0,-239,82,-165,-97,48,156
165,87,-78,-126,122,4,-244,78,-165,-97,48,156
156,87,-68,-122,112,9,-248,73,-165,-97,48,156
146,87,-58,-117,102,14,-253,68,-165,-97,48,156
141,87,-53,-114,97,17,-248,58,-161,-82,63,165
136,87,-48,-112,92,19,-244,58,-156,-78,68,165
131,87,-43,-109,87,21,-239,58,-151,-73,73,165
126,87,-39,-107,82,24,-234,58,-146,-68,78,165
122,92,-29,-107,75,31,-219,48,-131,-53,87,151
117,97,-19,-107,68,39,-214,48,-126,-48,87,146
112,102,-9,-107,61,46,-209,48,-122,-43,87,141
107,107,0,-107,53,53,-204,48,-117,-39,87,136
102,97,-4,-100,53,46,-195,39,-107,-24,87,131
97,97,0,-97,48,48,-185,39,-97,-19,87,126
92,97,4,-95,43,51,-175,39,-87,-14,87,122
87,97,9,-92,39,53,-165,39,-78,-9,87,117
82,107,24,-95,29,65,-156,29,-68,-4,82,102
78,107,29,-92,24,68,-146,29,-58,0,78,97
73,107,34,-90,19,70,-136,29,-48,4,73,92
68,107,39,-87,14,73,-126,29,-39,9,68,87
53,102,48,-78,2,75,-117,19,-24,14,63,82
48,97,48,-73,0,73,-107,19,-19,19,58,78
43,92,48,-68,-2,70,-97,19,-14,24,53,73
39,87,48,-63,-4,68,-87,19,-9,29,48,68
24,82,58,-53,-17,70,-73,14,-4,39,43,53
19,78,58,-48,-19,68,-68,9,0,39,39,48
14,73,58,-43,-21,65,-63,4,4,39,34,43
9,68,58,-39,-24,63,-58,0,9,39,29,39
9,58,48,-34,-19,53,-53,-9,19,39,29,34
9,58,48,-34,-19,53,-48,-9,19,39,29,29
9,58,48,-34,-19,53,-43,-9,19,39,29,24
9,58,48,-34,-19,53,-39,-9,19,39,29,19
0,58,58,-29,-29,58,-29,-19,19,39,19,9
0,58,58,-29,-29,58,-29,-19,19,39,19,9
0,58,58,-29,-29,58,-29,-19,19,39,19,9
0,58,58,-29,-29,58,-29,-19,19,39,19,9
-9,53,63,-21,-36,58,-19,-19,19,39,9,0
-9,48,58,-19,-34,53,-19,-19,19,39,9,0
-9,43,53,-17,-31,48,-19,-19,19,39,9,0
-9,39,48,-14,-29,43,-19,-19,19,39,9,0
-19,34,53,-7,-36,43,-29,-29,19,29,9,0
-19,29,48,-4,-34,39,-29,-29,19,29,9,0
-19,24,43,-2,-31,34,-29,-29,19,29,9,0
-19,19,39,0,-29,29,-29,-29,19,29,9,0
-24,14,39,4,-31,26,-39,-29,9,19,9,-4
-29,9,39,9,-34,24,-39,-29,9,19,9,-9
-34,4,39,14,-36,21,-39,-29,9,19,9,-14
-39,0,39,19,-39,19,-39,-29,9,19,9,-19
-34,4,39,14,-36,21,-39,-29,9,19,9,-14
-29,9,39,9,-34,24,-39,-29,9,19,9,-9
-24,14,39,4,-31,26,-39,-29,9,19,9,-4
-19,19,39,0,-29,29,-39,-29,9,19,9,0
-14,29,43,-7,-29,36,-39,-19,9,19,19,9
-9,29,39,-9,-24,34,-39,-19,9,19,19,9
-4,29,34,-12,-19,31,-39,-19,9,19,19,9
0,29,29,-14,-14,29,-39,-19,9,19,19,9
0,29,29,-14,-14,29,-29,-19,9,19,19,19
0,29,29,-14,-14,29,-29,-19,9,19,19,19
0,29,29,-14,-14,29,-29,-19,9,19,19,19
0,29,29,-14,-14,29,-29,-19,9,19,19,19
-9,29,39,-9,-24,34,-39,-19,19,29,19,19
-9,29,39,-9,-24,34,-39,-19,19,29,19,19
-9,29,39,-9,-24,34,-39,-19,19,29,19,19
-9,29,39,-9,-24,34,-39,-19,19,29,19,19
-9,39,48,-14,-29,43,-48,-19,19,29,19,19
-9,39,48,-14,-29,43,-48,-19,19,29,19,19
-9,39,48,-14,-29,43,-48,-19,19,29,19,19
-9,39,48,-14,-29,43,-48,-19,19,29,19,19
4,53,48,-29,-21,51,-39,-19,19,39,29,29
9,58,48,-34,-19,53,-39,-19,19,39,29,29
14,63,48,-39,-17,56,-39,-19,19,39,29,29
19,68,48,-43,-14,58,-39,-19,19,39,29,29
19,78,58,-48,-19,68,-29,-9,29,48,39,29
19,78,58,-48,-19,68,-29,-9,29,48,39,29
19,78,58,-48,-19,68,-29,-9,29,48,39,29
19,78,58,-48,-19,68,-29,-9,29,48,39,29
14,73,58,-43,-21,65,-39,-19,19,39,29,29
9,68,58,-39,-24,63,-39,-19,19,39,29,29
4,63,58,-34,-26,61,-39,-19,19,39,29,29
0,58,58,-29,-29,58,-39,-19,19,39,29,29
-4,53,58,-24,-31,56,-48,-29,19,39,29,19
-9,48,58,-19,-34,53,-48,-29,19,39,29,19
-14,43,58,-14,-36,51,-48,-29,19,39,29,19
-19,39,58,-9,-39,48,-48,-29,19,39,29,19
-19,29,48,-4,-34,39,-48,-29,9,34,29,19
-19,29,48,-4,-34,39,-48,-34,14,34,29,14
-19,29,48,-4,-34,39,-48,-34,14,34,29,14
-24,29,53,-2,-39,41,-48,-34,14,34,29,14
-19,34,53,-7,-36,43,-34,-24,14,34,34,14
-14,39,53,-12,-34,46,-34,-24,14,34,34,14
-9,43,53,-17,-31,48,-34,-24,14,34,34,14
0,53,53,-26,-26,53,-34,-24,19,39,34,14
0,58,58,-29,-29,58,-34,-14,14,39,24,24
0,63,63,-31,-31,63,-29,-14,19,39,29,24
4,68,63,-36,-29,65,-29,-14,24,43,29,24
4,73,68,-39,-31,70,-29,-14,29,43,29,29
0,73,73,-36,-36,73,-29,-24,34,43,43,29
-4,68,73,-31,-39,70,-24,-19,39,48,43,29
-4,68,73,-31,-39,70,-24,-19,39,53,48,29
-9,68,78,-29,-43,73,-19,-19,39,53,48,34
-19,73,92,-26,-56,82,-29,-19,53,63,53,24
-19,73,92,-26,-56,82,-29,-19,53,68,53,24
-19,73,92,-26,-56,82,-29,-19,53,68,53,24
-19,73,92,-26,-56,82,-34,-19,53,68,53,24
-19,73,92,-26,-56,82,-24,-19,53,68,43,24
-14,73,87,-29,-51,80,-24,-19,53,68,43,24
-14,73,87,-29,-51,80,-34,-19,53,68,43,24
-4,78,82,-36,-43,80,-34,-19,58,68,43,24
0,97,97,-48,-48,97,-39,-19,58,73,48,29
9,97,87,-53,-39,92,-43,-19,58,73,48,39
19,102,82,-61,-31,92,-48,-19,53,73,53,39
29,102,73,-65,-21,87,-53,-19,53,73,58,43
43,112,68,-78,-12,90,-53,-19,53,73,58,43
43,117,73,-80,-14,95,-58,-19,53,73,58,43
48,122,73,-85,-12,97,-63,-19,48,73,58,48
48,122,73,-85,-12,97,-63,-24,48,73,58,48
39,122,82,-80,-21,102,-63,-24,53,82,68,48
39,122,82,-80,-21,102,-63,-29,48,78,68,53
34,122,87,-78,-26,104,-63,-34,48,73,68,53
29,112,82,-70,-26,97,-63,-34,43,73,68,53
24,112,87,-68,-31,100,-73,-34,43,68,68,48
24,102,78,-63,-26,90,-73,-34,39,63,58,39
19,97,78,-58,-29,87,-63,-34,34,58,53,39
19,82,63,-51,-21,73,-63,-34,29,53,48,34
9,78,68,-43,-29,73,-58,-34,14,39,43,29
9,73,63,-41,-26,68,-58,-34,14,34,39,19
9,63,53,-36,-21,58,-58,-34,9,34,34,14
4,53,48,-29,-21,51,-58,-34,4,29,29,14
4,39,34,-21,-14,36,-63,-34,0,24,19,9
4,34,29,-19,-12,31,-63,-34,0,19,14,4
0,29,29,-14,-14,29,-63,-34,-4,19,9,0
0,29,29,-14,-14,29,-58,-34,-4,14,9,0
4,29,24,-17,-9,26,-48,-19,4,14,14,4
0,24,24,-12,-12,24,-43,-19,4,14,9,0
4,19,14,-12,-4,17,-39,-19,4,9,9,0
4,14,9,-9,-2,12,-39,-19,4,9,4,-4
-4,19,24,-7,-14,21,-34,-29,-4,9,0,-4
-9,14,24,-2,-17,19,-34,-34,-4,9,0,-4
-14,9,24,2,-19,17,-29,-34,-4,9,0,-4
-19,4,24,7,-21,14,-24,-34,-4,9,-4,-14
-24,-9,14,17,-19,2,-19,-39,-4,9,4,-14
-29,-9,19,19,-24,4,-14,-39,-4,4,0,-19
-34,-14,19,24,-26,2,-9,-39,-4,4,0,-24
-39,-24,14,31,-26,-4,-4,-39,-4,0,-4,-29
-48,-29,19,39,-34,-4,-9,-43,-9,0,-19,-43
-48,-34,14,41,-31,-9,-9,-43,-9,0,-19,-43
-48,-39,9,43,-29,-14,-14,-43,-14,-4,-24,-48
-48,-39,9,43,-29,-14,-14,-43,-14,-4,-24,-48
-58,-48,9,53,-34,-19,-4,-43,-14,-4,-34,-48
-58,-53,4,56,-31,-24,0,-43,-14,-9,-34,-58
-58,-53,4,56,-31,-24,4,-43,-19,-9,-43,-58
-63,-58,4,61,-34,-26,9,-43,-19,-14,-43,-58
-53,-58,-4,56,-24,-31,9,-34,-29,-24,-43,-68
-53,-58,-4,56,-24,-31,14,-34,-29,-24,-43,-68
-53,-63,-9,58,-21,-36,14,-34,-29,-24,-43,-68
-53,-63,-9,58,-21,-36,14,-34,-34,-24,-43,-73
-63,-68,-4,65,-29,-36,4,-43,-34,-29,-53,-73
-63,-73,-9,68,-26,-41,4,-43,-34,-29,-53,-73
-63,-78,-14,70,-24,-46,4,-43,-29,-29,-58,-73
-63,-87,-24,75,-19,-56,4,-39,-29,-29,-58,-73
-68,-87,-19,78,-24,-53,4,-39,-29,-34,-48,-73
-68,-87,-19,78,-24,-53,4,-39,-29,-34,-48,-73
-68,-87,-19,78,-24,-53,9,-39,-29,-34,-48,-73
-68,-82,-14,75,-26,-48,9,-39,-29,-29,-48,-73
-63,-82,-19,73,-21,-51,9,-39,-29,-29,-43,-73
-63,-82,-19,73,-21,-51,14,-39,-29,-34,-53,-73
-73,-78,-4,75,-34,-41,14,-43,-29,-24,-53,-73
-78,-82,-4,80,-36,-43,19,-43,-24,-24,-53,-82
-78,-87,-9,82,-34,-48,43,-43,-14,-24,-58,-87
-97,-97,0,97,-48,-48,58,-34,-4,-24,-78,-117
-97,-107,-9,102,-43,-58,82,-34,24,-19,-97,-136
-102,-97,4,100,-53,-46,92,-29,29,-4,-97,-161
-102,-102,0,102,-51,-51,92,-29,29,-4,-92,-151
-97,-92,4,95,-51,-43,68,-34,29,14,-78,-151
-97,-58,39,78,-68,-9,48,-58,29,34,-39,-122
-87,9,97,39,-92,53,14,-82,48,73,14,-63
-82,92,175,-4,-129,134,-14,-97,73,131,92,0
-73,161,234,-43,-153,197,-29,-102,102,190,161,48
-58,234,292,-87,-175,263,-53,-112,126,253,234,112
-48,292,341,-122,-195,317,-73,-107,141,312,317,175
-24,356,380,-165,-202,368,-82,-82,165,375,395,229
24,400,375,-212,-175,387,-92,-29,185,434,478,278
78,439,361,-258,-141,400,-107,34,185,478,546,326
112,473,361,-292,-124,417,-122,63,180,502,605,375
126,473,346,-300,-109,409,-131,92,175,522,644,414
141,492,351,-317,-104,422,-141,92,165,522,668,444
151,527,375,-339,-112,451,-161,68,185,536,692,497
141,570,429,-356,-143,500,-165,9,209,536,702,561
107,556,448,-331,-170,502,-156,-82,224,488,649,575
63,473,409,-268,-173,441,-131,-170,209,370,492,541
34,361,326,-197,-146,344,-97,-219,170,234,317,468
4,278,273,-141,-134,275,-78,-268,161,141,175,409
-39,156,195,-58,-117,175,-34,-287,131,53,43,302
-63,-34,29,48,-46,-2,34,-273,78,-73,-122,136
-73,-234,-161,153,43,-197,97,-229,0,-214,-287,-53
-73,-375,-302,224,114,-339,136,-180,-53,-292,-390,-190
-102,-463,-361,283,129,-412,180,-170,-53,-302,-458,-312
-146,-527,-380,336,117,-453,214,-156,-53,-287,-497,-400
-170,-585,-414,378,122,-500,253,-122,-53,-307,-527,-478
-185,-639,-453,412,134,-546,273,-97,-73,-326,-566,-527
-209,-688,-478,448,134,-583,302,-68,-63,-336,-590,-570
-234,-727,-492,480,129,-610,326,-34,-73,-356,-610,-619
-229,-741,-512,485,141,-627,346,-4,-73,-356,-610,-629
-229,-732,-502,480,136,-617,385,29,-48,-341,-590,-629
-234,-712,-478,473,122,-595,434,43,-19,-312,-566,-610
-239,-688,-448,463,104,-568,473,58,9,-273,-546,-590
-248,-658,-409,453,80,-534,492,68,34,-248,-502,-561
-258,-605,-346,431,43,-475,527,58,68,-204,-458,-527
-278,-536,-258,407,-9,-397,551,48,122,-156,-414,-492
-283,-478,-195,380,-43,-336,590,34,170,-112,-361,-439
-292,-429,-136,361,-78,-283,624,19,200,-78,-331,-405
-297,-419,-122,358,-87,-270,668,19,224,-68,-307,-385
-326,-409,-82,368,-122,-246,712,14,224,-58,-297,-370
-346,-400,-53,373,-146,-226,751,0,239,-39,-287,-356
-366,-390,-24,378,-170,-207,785,-9,253,-39,-268,-346
-375,-405,-29,390,-173,-217,839,-9,244,-43,-258,-346
-385,-424,-39,405,-173,-231,873,0,234,-53,-263,-336
-395,-429,-34,412,-180,-231,907,0,229,-58,-268,-346
-405,-439,-34,422,-185,-236,932,-14,219,-68,-278,-346
-395,-429,-34,412,-180,-231,922,-19,209,-78,-278,-346
-385,-409,-24,397,-180,-217,873,-24,200,-82,-268,-336
-361,-380,-19,370,-170,-200,785,-43,175,-82,-244,-307
-322,-341,-19,331,-151,-180,678,-53,146,-82,-200,-263
-278,-292,-14,285,-131,-153,546,-68,107,-82,-165,-229
-239,-244,-4,241,-117,-124,429,-78,82,-73,-136,-175
-195,-195,0,195,-97,-97,326,-87,63,-73,-117,-151
-165,-175,-9,170,-78,-92,253,-78,43,-63,-112,-126
-141,-161,-19,151,-61,-90,204,-68,29,-73,-112,-117
-131,-141,-9,136,-61,-75,156,-63,14,-73,-97,-97
-117,-126,-9,122,-53,-68,122,-58,9,-68,-82,-82
-92,-107,-14,100,-39,-61,92,-48,-14,-63,-68,-63
-68,-92,-24,80,-21,-58,73,-34,-14,-48,-48,-48
-53,-82,-29,68,-12,-56,63,-29,-19,-39,-43,-34
-29,-63,-34,46,2,-48,48,-19,-19,-43,-34,-24
-24,-48,-24,36,0,-36,29,0,-24,-34,-34,-9
-9,-39,-29,24,9,-34,14,-4,-29,-43,-29,-14
-9,-39,-29,24,9,-34,0,0,-34,-43,-29,-14
-9,-43,-34,26,12,-39,-14,0,-43,-43,-29,-14
-4,-43,-39,24,17,-41,-29,4,-43,-43,-24,-14
0,-43,-43,21,21,-43,-29,9,-48,-43,-14,-14
4,-43,-48,19,26,-46,-19,9,-48,-43,-19,-4
9,-43,-53,17,31,-48,-24,4,-48,-39,-19,0
14,-34,-48,9,31,-41,-29,4,-48,-39,-19,0
19,-29,-48,4,34,-39,-29,9,-48,-39,-29,0
19,-34,-53,7,36,-43,-39,9,-53,-43,-19,0
19,-34,-53,7,36,-43,-39,14,-53,-43,-19,0
24,-34,-58,4,41,-46,-39,14,-58,-43,-19,0
24,-34,-58,4,41,-46,-43,14,-63,-43,-9,0
24,-43,-68,9,46,-56,-53,4,-73,-53,-14,0
19,-48,-68,14,43,-58,-58,9,-73,-53,-19,4
9,-53,-63,21,36,-58,-63,9,-73,-53,-24,4
4,-63,-68,29,36,-65,-68,9,-73,-53,-39,4
4,-53,-58,24,31,-56,-68,9,-73,-53,-34,-4
14,-53,-68,19,41,-61,-68,9,-78,-53,-34,-9
19,-48,-68,14,43,-58,-68,19,-78,-53,-34,-9
19,-48,-68,14,43,-58,-68,19,-78,-53,-24,-9
29,-43,-73,7,51,-58,-58,14,-73,-53,-14,0
29,-39,-68,4,48,-53,-58,14,-73,-48,-14,9
29,-34,-63,2,46,-48,-58,19,-73,-48,-14,14
29,-19,-48,-4,39,-34,-58,19,-73,-48,-19,14
34,-19,-53,-7,43,-36,-48,29,-63,-39,-24,14
34,-29,-63,-2,48,-46,-58,29,-63,-48,-24,4
34,-34,-68,0,51,-51,-63,29,-73,-53,-24,4
34,-34,-68,0,51,-51,-73,29,-78,-53,-24,4
48,-29,-78,-9,63,-53,-73,34,-78,-48,-14,4
48,-29,-78,-9,63,-53,-68,39,-73,-48,-9,14
48,-19,-68,-14,58,-43,-63,39,-73,-43,-9,19
58,-14,-73,-21,65,-43,-63,39,-73,-43,-9,24
68,-4,-73,-31,70,-39,-63,34,-73,-53,-24,24
68,0,-68,-34,68,-34,-73,34,-73,-53,-24,24
68,0,-68,-34,68,-34,-78,34,-82,-63,-24,19
68,-9,-78,-29,73,-43,-82,39,-87,-63,-24,19
63,-24,-87,-19,75,-56,-92,43,-87,-63,-4,24
63,-24,-87,-19,75,-56,-92,43,-87,-63,0,24
73,-19,-92,-26,82,-56,-92,48,-87,-63,0,29
73,-19,-92,-26,82,-56,-92,48,-87,-58,0,29
63,-24,-87,-19,75,-56,-87,48,-87,-58,-9,34
63,-24,-87,-19,75,-56,-97,48,-97,-68,-14,34
68,-19,-87,-24,78,-53,-97,48,-102,-73,-14,24
68,-19,-87,-24,78,-53,-102,58,-107,-78,-14,24
78,-14,-92,-31,85,-53,-102,63,-102,-68,-9,39
87,-9,-97,-39,92,-53,-102,68,-102,-63,4,39
87,-4,-92,-41,90,-48,-102,73,-97,-63,9,48
87,0,-87,-43,87,-43,-107,73,-97,-63,9,48
92,4,-87,-48,90,-41,-102,82,-102,-58,0,48
102,9,-92,-56,97,-41,-107,82,-107,-63,0,48
107,14,-92,-61,100,-39,-112,87,-112,-68,0,48
122,19,-102,-70,112,-41,-117,87,-117,-73,0,48
126,9,-117,-68,122,-53,-131,87,-131,-87,-9,43
126,4,-122,-65,124,-58,-131,87,-131,-92,-4,43
126,4,-122,-65,124,-58,-131,87,-131,-92,-4,53
126,4,-122,-65,124,-58,-136,92,-131,-92,-4,58
126,4,-122,-65,124,-58,-151,92,-141,-92,-14,48
122,4,-117,-63,119,-56,-151,92,-141,-92,-24,48
122,4,-117,-63,119,-56,-156,92,-146,-102,-24,48
117,4,-112,-61,114,-53,-161,92,-151,-107,-24,43
117,4,-112,-61,114,-53,-165,97,-156,-112,-24,43
122,4,-117,-63,119,-56,-170,97,-161,-112,-24,43
122,4,-117,-63,119,-56,-170,97,-161,-112,-19,53
122,4,-117,-63,119,-56,-175,97,-161,-112,-19,53
122,9,-112,-65,117,-51,-175,97,-156,-112,-14,58
122,9,-112,-65,117,-51,-180,97,-161,-117,-24,58
126,9,-117,-68,122,-53,-180,97,-161,-122,-24,58
126,9,-117,-68,122,-53,-180,97,-165,-126,-19,58
141,19,-122,-80,131,-51,-180,97,-165,-122,-19,68
146,24,-122,-85,134,-48,-185,97,-170,-122,-9,78
146,24,-122,-85,134,-48,-190,97,-170,-117,-4,82
146,29,-117,-87,131,-43,-195,97,-170,-117,0,87
156,34,-122,-95,139,-43,-200,87,-170,-117,0,82
156,43,-112,-100,134,-34,-200,87,-175,-117,0,87
161,43,-117,-102,139,-36,-209,87,-175,-117,0,92
161,48,-112,-104,136,-31,-219,78,-180,-122,0,97
165,58,-107,-112,136,-24,-219,78,-170,-122,9,112
165,63,-102,-114,134,-19,-229,78,-170,-122,24,122
165,68,-97,-117,131,-14,-229,78,-170,-112,34,131
170,73,-97,-122,134,-12,-229,78,-170,-107,43,146
165,78,-87,-122,126,-4,-229,78,-170,-97,53,146
161,82,-78,-122,119,2,-234,68,-165,-92,53,156
156,92,-63,-124,109,14,-239,68,-165,-87,58,165
151,102,-48,-126,100,26,-239,63,-165,-82,63,165
141,92,-48,-117,95,21,-239,58,-161,-92,58,165
141,92,-48,-117,95,21,-239,58,-161,-82,63,165
136,92,-43,-114,90,24,-239,58,-151,-78,73,170
136,97,-39,-117,87,29,-229,58,-146,-63,82,170
136,97,-39,-117,87,29,-224,63,-141,-53,78,165
126,112,-14,-119,70,48,-219,53,-126,-43,78,165
122,112,-9,-117,65,51,-214,48,-117,-39,78,165
117,112,-4,-114,61,53,-209,43,-112,-39,73,156
117,122,4,-119,56,63,-190,43,-102,-24,82,161
107,122,14,-114,46,68,-180,39,-102,-19,82,156
102,122,19,-112,41,70,-175,39,-97,-14,87,141
102,117,14,-109,43,65,-165,34,-82,0,92,136
102,126,24,-114,39,75,-151,29,-63,9,92,136
92,117,24,-104,34,70,-141,24,-53,19,92,131
87,117,29,-102,29,73,-136,24,-43,24,82,122
82,122,39,-102,21,80,-122,19,-39,29,78,112
82,122,39,-102,21,80,-117,14,-29,24,73,102
78,112,34,-95,21,73,-107,9,-19,24,73,97
63,112,48,-87,7,80,-102,4,-19,29,73,87
58,107,48,-82,4,78,-92,4,-9,34,73,78
48,97,48,-73,0,73,-82,4,0,43,63,73
39,92,53,-65,-7,73,-73,-4,4,48,58,68
29,82,53,-56,-12,68,-68,-9,14,48,53,53
9,73,63,-41,-26,68,-63,-14,14,43,43,43
4,53,48,-29,-21,51,-68,-14,9,34,29,29
0,48,48,-24,-24,48,-63,-19,9,34,24,19
0,48,48,-24,-24,48,-58,-24,9,34,24,19
-4,43,48,-19,-26,46,-53,-24,9,34,24,19
4,39,34,-21,-14,36,-39,-24,9,34,24,19
0,34,34,-17,-17,34,-34,-24,14,34,24,19
0,34,34,-17,-17,34,-34,-24,19,34,24,14
-4,34,39,-14,-21,36,-29,-24,19,34,14,14
-14,34,48,-9,-31,41,-39,-29,19,24,9,14
-14,29,43,-7,-29,36,-34,-29,19,19,9,9
-14,29,43,-7,-29,36,-29,-29,19,19,9,9
-14,29,43,-7,-29,36,-29,-29,19,19,9,9
-24,14,39,4,-31,26,-29,-29,9,19,9,9
-24,14,39,4,-31,26,-29,-29,9,19,9,9
-24,9,34,7,-29,21,-29,-29,9,19,9,9
-29,4,34,12,-31,19,-29,-29,9,19,9,9
-29,4,34,12,-31,19,-39,-29,9,9,0,0
-34,4,39,14,-36,21,-39,-29,9,9,-4,0
-34,4,39,14,-36,21,-39,-34,9,9,-4,0
-34,4,39,14,-36,21,-39,-34,9,9,-4,0
-24,4,29,9,-26,17,-39,-24,9,19,-14,0
-24,4,29,9,-26,17,-39,-24,9,14,-14,0
-24,4,29,9,-26,17,-39,-24,9,14,-14,0
-24,4,29,9,-26,17,-39,-24,9,14,-14,4
-24,4,29,9,-26,17,-29,-24,9,14,-9,9
-24,9,34,7,-29,21,-29,-24,9,14,0,9
-19,9,29,4,-24,19,-29,-24,9,19,4,9
-14,9,24,2,-19,17,-29,-19,14,19,9,9
-14,24,39,-4,-26,31,-29,-19,14,29,19,9
-14,24,39,-4,-26,31,-29,-19,14,29,19,9
-14,19,34,-2,-24,26,-29,-19,14,29,19,9
-14,19,34,-2,-24,26,-29,-19,14,29,19,9
-4,34,39,-14,-21,36,-29,-19,24,29,24,19
-4,34,39,-14,-21,36,-34,-19,24,29,24,19
-4,34,39,-14,-21,36,-34,-19,24,29,24,19
-4,34,39,-14,-21,36,-34,-19,29,29,24,19
4,43,39,-24,-17,41,-34,-19,29,29,24,19
4,43,39,-24,-17,41,-34,-19,29,34,29,19
9,43,34,-26,-12,39,-34,-19,29,34,29,19
9,48,39,-29,-14,43,-34,-19,29,34,29,24
9,48,39,-29,-14,43,-34,-9,29,34,34,24
9,48,39,-29,-14,43,-34,-9,29,34,34,24
9,48,39,-29,-14,43,-34,-4,29,34,34,24
9,48,39,-29,-14,43,-34,-4,29,34,34,24
14,58,43,-36,-14,51,-34,-9,29,39,34,39
14,58,43,-36,-14,51,-34,-9,29,39,34,39
14,63,48,-39,-17,56,-34,-9,29,39,34,39
14,63,48,-39,-17,56,-34,-9,29,39,39,39
14,58,43,-36,-14,51,-34,-9,29,39,39,39
14,58,43,-36,-14,51,-34,-14,29,39,39,39
14,58,43,-36,-14,51,-34,-14,29,43,39,39
14,58,43,-36,-14,51,-29,-14,29,43,39,39
9,58,48,-34,-19,53,-29,-14,29,43,39,39
9,58,48,-34,-19,53,-29,-14,29,43,39,29
0,48,48,-24,-24,48,-29,-19,29,39,39,29
-9,39,48,-14,-29,43,-29,-19,29,39,39,19
-9,39,48,-14,-29,43,-29,-19,29,39,39,19
-9,39,48,-14,-29,43,-29,-19,29,39,39,19
-9,39,48,-14,-29,43,-29,-19,29,39,39,19
-19,29,48,-4,-34,39,-29,-19,29,34,29,19
-19,29,48,-4,-34,39,-29,-24,34,34,29,14
-19,29,48,-4,-34,39,-29,-24,34,34,29,14
-24,29,53,-2,-39,41,-29,-24,34,34,29,14
-24,29,53,-2,-39,41,-29,-24,24,34,24,14
-24,29,53,-2,-39,41,-34,-24,24,34,24,14
-24,29,53,-2,-39,41,-39,-24,24,34,24,14
-19,34,53,-7,-36,43,-43,-24,29,39,24,14
-29,29,58,0,-43,43,-43,-24,34,39,14,14
-29,34,63,-2,-46,48,-39,-24,39,39,19,14
-24,39,63,-7,-43,51,-39,-24,43,43,19,14
-24,43,68,-9,-46,56,-39,-24,48,43,19,19
-24,53,78,-14,-51,65,-29,-24,53,53,34,19
-24,58,82,-17,-53,70,-24,-19,58,58,34,19
-19,68,87,-24,-53,78,-24,-19,58,63,39,19
-19,78,97,-29,-58,87,-19,-19,58,63,39,24
-14,92,107,-39,-61,100,-9,-19,73,73,53,34
-9,92,102,-41,-56,97,-9,-19,73,78,53,34
-4,92,97,-43,-51,95,-9,-19,73,78,53,34
0,92,92,-46,-46,92,-14,-19,73,78,53,34
0,92,92,-46,-46,92,-14,-19,73,78,53,34
4,92,87,-48,-41,90,-14,-19,73,78,53,34
4,92,87,-48,-41,90,-24,-19,73,78,53,34
14,97,82,-56,-34,90,-24,-19,78,78,53,34
4,102,97,-53,-46,100,-39,-19,68,73,48,29
9,97,87,-53,-39,92,-43,-19,68,73,48,39
14,97,82,-56,-34,90,-48,-19,63,73,53,39
19,92,73,-56,-26,82,-53,-19,63,73,58,43
24,102,78,-63,-26,90,-63,-19,53,73,58,43
24,107,82,-65,-29,95,-68,-19,53,73,58,43
29,112,82,-70,-26,97,-73,-19,48,73,58,48
29,112,82,-70,-26,97,-73,-24,48,73,58,48
29,112,82,-70,-26,97,-73,-24,53,73,58,48
29,112,82,-70,-26,97,-73,-29,48,68,58,53
24,112,87,-68,-31,100,-73,-34,48,63,58,53
19,102,82,-61,-31,92,-73,-34,43,63,58,53
24,112,87,-68,-31,100,-73,-43,43,68,68,48
24,102,78,-63,-26,90,-73,-43,39,63,58,39
19,97,78,-58,-29,87,-63,-43,34,58,53,39
19,82,63,-51,-21,73,-63,-43,29,53,48,34
9,68,58,-39,-24,63,-48,-43,24,39,43,29
9,63,53,-36,-21,58,-48,-43,24,34,39,19
9,53,43,-31,-17,48,-48,-43,19,34,34,14
4,43,39,-24,-17,41,-48,-43,14,29,29,14
14,39,24,-26,-4,31,-34,-34,9,24,19,19
14,34,19,-24,-2,26,-34,-34,9,19,14,14
9,29,19,-19,-4,24,-34,-34,4,19,9,9
9,29,19,-19,-4,24,-29,-34,4,14,9,9
9,9,0,-9,4,4,-39,-29,-4,14,-4,-4
0,4,4,-2,-2,4,-34,-29,-4,14,-9,-9
0,0,0,0,0,0,-29,-29,-4,9,-9,-9
-4,-4,0,4,-2,-2,-29,-29,-4,9,-14,-14
-14,-9,4,12,-9,-2,-24,-29,-4,9,-19,-24
-19,-14,4,17,-12,-4,-24,-34,-4,9,-19,-24
-24,-19,4,21,-14,-7,-19,-34,-4,9,-19,-24
-29,-24,4,26,-17,-9,-14,-34,-4,9,-24,-34
-29,-24,4,26,-17,-9,0,-29,-4,9,-14,-24
-29,-19,9,24,-19,-4,4,-29,-4,4,-19,-29
-29,-19,9,24,-19,-4,9,-29,-4,4,-19,-34
-29,-24,4,26,-17,-9,14,-29,-4,0,-24,-39
-39,-29,9,34,-24,-9,9,-43,-9,-9,-39,-43
-39,-34,4,36,-21,-14,9,-43,-9,-9,-39,-43
-39,-39,0,39,-19,-19,4,-43,-14,-14,-43,-48
-39,-39,0,39,-19,-19,4,-43,-14,-14,-43,-48
-39,-48,-9,43,-14,-29,19,-43,-14,-14,-43,-58
-39,-53,-14,46,-12,-34,19,-43,-14,-19,-43,-68
-39,-53,-14,46,-12,-34,19,-43,-19,-19,-53,-68
-43,-58,-14,51,-14,-36,19,-43,-19,-24,-53,-68
-58,-73,-14,65,-21,-43,14,-43,-29,-34,-53,-78
-63,-78,-14,70,-24,-46,14,-43,-29,-34,-53,-78
-68,-87,-19,78,-24,-53,9,-43,-29,-34,-53,-78
-73,-92,-19,82,-26,-56,4,-43,-34,-34,-53,-82
-63,-82,-19,73,-21,-51,4,-43,-34,-29,-53,-73
-63,-82,-19,73,-21,-51,4,-43,-34,-29,-53,-73
-63,-82,-19,73,-21,-51,4,-43,-29,-29,-58,-73
-63,-87,-24,75,-19,-56,4,-39,-29,-29,-58,-73
-58,-87,-29,73,-14,-58,14,-39,-29,-34,-58,-73
-58,-87,-29,73,-14,-58,14,-39,-29,-34,-58,-73
-58,-87,-29,73,-14,-58,19,-39,-29,-34,-58,-73
-58,-82,-24,70,-17,-53,19,-39,-29,-29,-58,-73
-34,-63,-29,48,-2,-46,29,-29,-19,-19,-53,-63
-43,-63,-19,53,-12,-41,24,-39,-19,-24,-43,-63
-43,-68,-24,56,-9,-46,24,-34,-19,-24,-53,-73
-58,-82,-24,70,-17,-53,29,-34,-14,-24,-63,-82
-68,-87,-19,78,-24,-53,43,-43,-14,-24,-68,-97
-78,-107,-29,92,-24,-68,68,-34,4,-24,-87,-117
-78,-107,-29,92,-24,-68,102,-24,24,-9,-107,-146
-82,-97,-14,90,-34,-56,112,-19,39,4,-97,-151
-82,-92,-9,87,-36,-51,102,-29,48,14,-92,-151
-87,-82,4,85,-46,-39,78,-34,39,24,-78,-141
-78,-48,29,63,-53,-9,58,-48,39,53,-39,-112
-87,9,97,39,-92,53,24,-82,48,82,24,-63
-82,73,156,4,-119,114,-4,-97,73,141,92,0
-73,151,224,-39,-148,187,-29,-102,92,209,170,58
-68,224,292,-78,-180,258,-43,-102,126,263,244,122
-48,292,341,-122,-195,317,-63,-107,141,322,326,185
-34,346,380,-156,-207,363,-73,-73,165,385,414,239
14,380,366,-197,-175,373,-82,-29,175,434,488,278
68,419,351,-244,-141,385,-107,24,175,478,556,336
102,453,351,-278,-124,402,-122,63,170,492,614,375
126,453,326,-290,-100,390,-131,82,165,512,644,414
141,473,331,-307,-95,402,-141,82,165,512,668,444
141,507,366,-324,-112,436,-151,58,175,507,692,497
131,531,400,-331,-134,466,-156,0,200,507,692,551
87,517,429,-302,-170,473,-146,-92,214,458,619,556
34,424,390,-229,-178,407,-122,-180,190,331,463,512
4,312,307,-158,-151,309,-97,-229,161,214,287,448
-34,229,263,-97,-148,246,-58,-268,151,112,146,380
-58,117,175,-29,-117,146,-14,-297,122,34,14,273
-82,-73,9,78,-46,-31,53,-283,68,-92,-151,107
-82,-273,-190,178,53,-231,107,-219,-9,-234,-317,-82
-92,-414,-322,253,114,-368,156,-180,-63,-312,-419,-229
-122,-502,-380,312,129,-441,190,-161,-63,-312,-478,-341
-165,-556,-390,361,112,-473,234,-146,-53,-297,-517,-419
-190,-614,-424,402,117,-519,263,-112,-53,-307,-546,-488
-204,-658,-453,431,124,-556,283,-78,-63,-326,-575,-536
-219,-697,-478,458,129,-588,312,-48,-63,-336,-600,-580
-234,-736,-502,485,134,-619,336,-24,-63,-346,-610,-629
-239,-741,-502,490,131,-622,366,14,-63,-346,-610,-629
-229,-722,-492,475,131,-607,395,39,-39,-331,-590,-629
-244,-702,-458,473,107,-580,453,63,0,-292,-566,-610
-248,-678,-429,463,90,-553,492,78,29,-263,-536,-590
-258,-649,-390,453,65,-519,512,87,53,-229,-502,-561
-268,-595,-326,431,29,-461,536,68,87,-195,-458,-527
-287,-536,-248,412,-19,-392,570,58,131,-136,-405,-492
-292,-468,-175,380,-58,-322,600,43,180,-92,-361,-439
-292,-419,-126,356,-82,-273,644,29,209,-68,-331,-405
-297,-400,-102,348,-97,-251,678,29,234,-48,-297,-375
-317,-390,-73,353,-122,-231,722,24,234,-39,-278,-361
-346,-380,-34,363,-156,-207,761,19,248,-29,-268,-346
-366,-380,-14,373,-175,-197,805,9,263,-39,-268,-336
-366,-395,-29,380,-168,-212,839,9,244,-43,-268,-336
-366,-424,-58,395,-153,-241,873,9,234,-63,-273,-336
-375,-419,-43,397,-165,-231,897,9,229,-68,-278,-336
-375,-429,-53,402,-161,-241,922,4,219,-68,-297,-336
-385,-419,-34,402,-175,-226,912,0,209,-87,-297,-346
-366,-400,-34,383,-165,-217,854,-14,190,-82,-278,-336
-351,-380,-29,366,-161,-204,756,-34,165,-92,-253,-307
-312,-351,-39,331,-136,-195,639,-43,126,-92,-219,-273
-278,-312,-34,295,-122,-173,507,-58,87,-92,-195,-229
-248,-263,-14,256,-117,-139,370,-68,63,-82,-156,-175
-204,-224,-19,214,-92,-122,287,-68,43,-82,-126,-151
-175,-195,-19,185,-78,-107,224,-58,24,-73,-122,-126
-161,-170,-9,165,-75,-90,175,-58,9,-73,-112,-117
-141,-151,-9,146,-65,-80,136,-53,4,-63,-97,-107
-126,-136,-9,131,-58,-73,102,-48,0,-58,-82,-92
-102,-117,-14,109,-43,-65,73,-39,-14,-63,-68,-73
-78,-102,-24,90,-26,-63,53,-24,-24,-48,-48,-58
-53,-82,-29,68,-12,-56,43,-19,-29,-48,-34,-34
-39,-73,-34,56,-2,-53,39,0,-19,-34,-34,-24
-24,-48,-24,36,0,-36,29,9,-24,-24,-24,-19
-19,-48,-29,34,4,-39,14,4,-29,-34,-29,-14
-29,-48,-19,39,-4,-34,0,0,-34,-43,-29,-24
-29,-53,-24,41,-2,-39,-14,0,-43,-43,-29,-24
-24,-53,-29,39,2,-41,-29,4,-43,-43,-24,-24
-19,-53,-34,36,7,-43,-29,9,-48,-43,-14,-24
-9,-53,-43,31,17,-48,-19,19,-48,-43,-19,-9
0,-53,-53,26,26,-53,-24,14,-48,-39,-19,0
9,-43,-53,17,31,-48,-29,14,-48,-39,-19,4
19,-39,-58,9,39,-48,-29,19,-48,-39,-29,9
9,-34,-43,12,26,-39,-39,9,-53,-43,-19,9
9,-34,-43,12,26,-39,-39,14,-53,-43,-19,9
14,-34,-48,9,31,-41,-39,14,-58,-43,-19,9
14,-34,-48,9,31,-41,-43,14,-63,-43,-9,9
24,-24,-48,0,36,-36,-34,24,-63,-43,-9,0
29,-29,-58,0,43,-43,-39,29,-63,-43,-9,4
29,-34,-63,2,46,-48,-43,29,-63,-43,-9,4
34,-43,-78,4,56,-61,-48,29,-63,-43,-19,4
24,-34,-58,4,41,-46,-48,19,-73,-53,-24,4
34,-34,-68,0,51,-51,-48,19,-78,-53,-24,0
39,-29,-68,-4,53,-48,-48,29,-78,-53,-24,0
39,-29,-68,-4,53,-48,-48,29,-78,-53,-14,0
29,-39,-68,4,48,-53,-48,24,-82,-53,-24,0
29,-39,-68,4,48,-53,-48,24,-82,-48,-24,9
29,-39,-68,4,48,-53,-48,29,-82,-48,-24,14
29,-29,-58,0,43,-43,-48,29,-82,-48,-29,14
24,-29,-53,2,39,-41,-58,19,-82,-58,-34,14
24,-39,-63,7,43,-51,-68,19,-82,-68,-34,4
24,-43,-68,9,46,-56,-73,19,-92,-73,-34,4
24,-43,-68,9,46,-56,-82,19,-97,-73,-34,4
29,-43,-73,7,51,-58,-82,24,-97,-68,-24,4
29,-48,-78,9,53,-63,-78,29,-92,-68,-19,14
29,-43,-73,7,51,-58,-73,29,-92,-63,-19,19
39,-43,-82,2,61,-63,-73,29,-92,-63,-19,24
39,-24,-63,-7,51,-43,-73,34,-82,-53,-14,24
39,-19,-58,-9,48,-39,-82,34,-82,-53,-14,24
39,-19,-58,-9,48,-39,-87,34,-92,-63,-14,19
39,-29,-68,-4,53,-48,-92,39,-97,-63,-14,19
53,-29,-82,-12,68,-56,-92,43,-87,-63,-4,24
53,-24,-78,-14,65,-51,-92,43,-87,-63,0,24
63,-14,-78,-24,70,-46,-92,48,-87,-63,0,29
63,-9,-73,-26,68,-41,-92,48,-87,-58,0,29
73,-4,-78,-34,75,-41,-87,58,-87,-48,-9,43
73,-4,-78,-34,75,-41,-97,58,-97,-58,-14,43
78,0,-78,-39,78,-39,-97,58,-102,-63,-14,34
78,0,-78,-39,78,-39,-102,68,-107,-68,-14,34
78,-9,-87,-34,82,-48,-112,63,-112,-78,-14,29
87,-9,-97,-39,92,-53,-112,68,-112,-73,-4,29
87,-9,-97,-39,92,-53,-112,73,-107,-73,-4,39
87,-9,-97,-39,92,-53,-117,73,-107,-73,-9,39
87,0,-87,-43,87,-43,-122,73,-112,-68,-9,48
92,0,-92,-46,92,-46,-126,73,-117,-73,-9,48
92,0,-92,-46,92,-46,-131,78,-122,-78,-9,48
102,0,-102,-51,102,-51,-136,78,-126,-82,-9,48
107,0,-107,-53,107,-53,-141,78,-141,-87,-9,43
107,-4,-112,-51,109,-58,-141,78,-141,-92,-4,43
107,-4,-112,-51,109,-58,-141,78,-141,-92,-4,53
107,-4,-112,-51,109,-58,-146,82,-141,-92,-4,58
112,4,-107,-58,109,-51,-151,92,-141,-92,-4,58
112,4,-107,-58,109,-51,-151,92,-141,-92,-14,58
117,4,-112,-61,114,-53,-156,92,-146,-102,-14,58
117,4,-112,-61,114,-53,-161,92,-151,-107,-14,53
136,14,-122,-75,129,-53,-156,97,-146,-102,-4,53
141,14,-126,-78,134,-56,-161,97,-151,-102,-4,53
141,14,-126,-78,134,-56,-161,97,-151,-102,0,63
141,14,-126,-78,134,-56,-165,97,-151,-102,0,63
151,29,-122,-90,136,-46,-165,97,-156,-102,-4,68
151,29,-122,-90,136,-46,-170,97,-161,-107,-14,68
156,29,-126,-92,141,-48,-170,97,-161,-112,-14,68
156,29,-126,-92,141,-48,-170,97,-165,-117,-9,68
161,29,-131,-95,146,-51,-180,97,-165,-131,-9,78
165,34,-131,-100,148,-48,-185,97,-170,-131,0,87
165,34,-131,-100,148,-48,-190,97,-170,-126,4,92
165,39,-126,-102,146,-43,-195,97,-170,-126,9,97
151,34,-117,-92,134,-41,-204,87,-180,-126,0,92
146,34,-112,-90,129,-39,-209,87,-185,-126,0,97
146,24,-122,-85,134,-48,-224,87,-185,-126,0,102
141,19,-122,-80,131,-51,-239,78,-190,-131,0,107
146,34,-112,-90,129,-39,-229,68,-190,-131,9,122
146,43,-102,-95,124,-29,-239,68,-190,-131,24,131
146,53,-92,-100,119,-19,-239,68,-190,-122,34,141
151,63,-87,-107,119,-12,-239,68,-190,-117,43,156
161,87,-73,-124,117,7,-248,78,-180,-107,53,156
161,92,-68,-126,114,12,-253,68,-175,-102,53,165
161,102,-58,-131,109,21,-258,68,-175,-97,58,175
161,112,-48,-136,104,31,-258,63,-175,-92,63,175
151,112,-39,-131,95,36,-248,48,-161,-92,68,175
151,112,-39,-131,95,36,-248,48,-161,-82,73,175
146,112,-34,-129,90,39,-248,48,-151,-78,82,180
146,117,-29,-131,87,43,-239,48,-146,-63,92,180
146,117,-29,-131,87,43,-234,53,-141,-53,87,175
136,131,-4,-134,70,63,-229,43,-126,-43,87,175
131,131,0,-131,65,65,-224,39,-117,-39,87,175
126,131,4,-129,61,68,-219,34,-112,-39,82,165
122,131,9,-126,56,70,-200,34,-92,-24,92,151
107,131,24,-119,41,78,-190,29,-92,-19,92,146
97,131,34,-114,31,82,-185,29,-87,-14,97,131
92,126,34,-109,29,80,-175,24,-73,0,102,126
92,126,34,-109,29,80,-161,29,-73,9,92,126
82,117,34,-100,24,75,-151,24,-63,19,92,122
78,117,39,-97,19,78,-146,24,-53,24,82,112
73,122,48,-97,12,85,-131,19,-48,29,78,102
63,122,58,-92,2,90,-126,14,-29,34,73,92
58,112,53,-85,2,82,-117,9,-19,34,73,87
43,112,68,-78,-12,90,-112,4,-19,39,73,78
39,107,68,-73,-14,87,-102,4,-9,43,73,68
34,102,68,-68,-17,85,-92,4,0,43,73,68
29,102,73,-65,-21,87,-82,-4,4,48,68,68
24,97,73,-61,-24,85,-78,-9,14,48,63,58
9,92,82,-51,-36,87,-73,-14,14,43,53,53
14,78,63,-46,-24,70,-78,-14,9,34,48,39
9,68,58,-39,-24,63,-73,-19,9,34,43,29
9,63,53,-36,-21,58,-68,-24,9,34,43,29
4,53,48,-29,-21,51,-63,-24,9,34,43,29
-4,48,53,-21,-29,51,-58,-24,9,34,34,29
-9,43,53,-17,-31,48,-53,-24,14,34,34,29
-9,43,53,-17,-31,48,-53,-24,19,34,34,24
-14,43,58,-14,-36,51,-48,-24,19,34,24,24
-24,34,58,-4,-41,46,-58,-29,19,24,9,14
-24,29,53,-2,-39,41,-53,-29,19,19,9,9
-24,29,53,-2,-39,41,-48,-29,19,19,9,9
-24,29,53,-2,-39,41,-48,-29,19,19,9,9
-14,29,43,-7,-29,36,-43,-29,19,29,19,9
-14,34,48,-9,-31,41,-39,-29,19,29,19,9
-14,34,48,-9,-31,41,-34,-29,19,29,19,9
-19,34,53,-7,-36,43,-29,-29,19,29,19,9
-9,34,43,-12,-26,39,-29,-29,19,29,19,19
-14,34,48,-9,-31,41,-29,-29,19,29,14,19
-14,34,48,-9,-31,41,-29,-34,19,29,14,19
-14,34,48,-9,-31,41,-29,-34,19,29,14,19
-14,24,39,-4,-26,31,-29,-34,19,29,14,19
-14,24,39,-4,-26,31,-29,-34,19,24,14,19
-14,24,39,-4,-26,31,-29,-34,19,24,14,19
-14,24,39,-4,-26,31,-29,-34,19,24,14,24
-24,14,39,4,-31,26,-39,-34,9,24,14,19
-24,19,43,2,-34,31,-39,-34,9,24,19,19
-19,19,39,0,-29,29,-39,-34,9,29,19,19
-14,19,34,-2,-24,26,-39,-29,14,29,19,19
-4,34,39,-14,-21,36,-39,-29,14,29,19,29
-4,34,39,-14,-21,36,-39,-29,14,29,19,29
-4,29,34,-12,-19,31,-39,-29,14,29,19,29
-4,29,34,-12,-19,31,-39,-29,14,29,19,29
-4,43,48,-19,-26,46,-29,-19,14,39,24,29
-4,43,48,-19,-26,46,-34,-19,14,39,24,29
-4,43,48,-19,-26,46,-34,-19,14,39,24,29
-4,43,48,-19,-26,46,-34,-19,19,39,24,29
-4,43,48,-19,-26,46,-43,-19,19,29,24,19
-4,43,48,-19,-26,46,-43,-19,19,34,29,19
0,43,43,-21,-21,43,-43,-19,19,34,29,19
0,48,48,-24,-24,48,-43,-19,19,34,29,24
0,48,48,-24,-24,48,-43,-29,19,34,34,34
0,48,48,-24,-24,48,-43,-29,19,34,34,34
0,48,48,-24,-24,48,-43,-24,19,34,34,34
0,48,48,-24,-24,48,-43,-24,19,34,34,34
-4,48,53,-21,-29,51,-43,-19,19,39,34,29
-4,48,53,-21,-29,51,-43,-19,19,39,34,29
-4,53,58,-24,-31,56,-43,-19,19,39,34,29
-4,53,58,-24,-31,56,-43,-19,19,39,39,29
-14,48,63,-17,-39,56,-34,-19,19,39,39,29
-14,48,63,-17,-39,56,-34,-24,19,39,39,29
-14,48,63,-17,-39,56,-34,-24,19,43,39,29
-14,48,63,-17,-39,56,-29,-24,19,43,39,29
-9,48,58,-19,-34,53,-39,-24,29,43,29,29
-9,48,58,-19,-34,53,-39,-24,19,34,29,29
-9,53,63,-21,-36,58,-34,-19,24,34,29,29
-4,53,58,-24,-31,56,-34,-19,24,43,29,29
0,58,58,-29,-29,58,-29,-19,29,39,39,29
-9,48,58,-19,-34,53,-39,-19,29,39,29,19
-9,48,58,-19,-34,53,-39,-19,29,39,29,19
-9,48,58,-19,-34,53,-39,-19,29,39,29,19
-9,48,58,-19,-34,53,-39,-19,29,39,29,19
-9,39,48,-14,-29,43,-39,-19,19,34,29,19
-9,39,48,-14,-29,43,-39,-24,24,34,29,14
-9,39,48,-14,-29,43,-39,-24,24,34,29,14
-14,39,53,-12,-34,46,-39,-24,24,34,29,14
-14,39,53,-12,-34,46,-34,-34,24,43,34,14
-14,39,53,-12,-34,46,-34,-34,24,43,34,14
-14,39,53,-12,-34,46,-34,-34,24,43,34,14
-9,43,53,-17,-31,48,-34,-34,29,48,34,14
-9,58,68,-24,-39,63,-34,-24,34,48,34,14
-9,63,73,-26,-41,68,-29,-24,39,48,39,14
-4,68,73,-31,-39,70,-29,-24,43,53,39,14
-4,73,78,-34,-41,75,-29,-24,48,53,39,19
4,87,82,-46,-39,85,-29,-24,53,63,43,19
4,87,82,-46,-39,85,-24,-19,58,68,43,19
9,92,82,-51,-36,87,-24,-19,58,73,48,19
9,97,87,-53,-39,92,-19,-19,58,73,48,24
4,97,92,-51,-43,95,-19,-29,63,63,48,24
0,92,92,-46,-46,92,-19,-29,63,68,43,24
-4,87,92,-41,-48,90,-19,-29,63,68,39,24
-9,82,92,-36,-51,87,-24,-29,63,68,34,24
-19,73,92,-26,-56,82,-24,-19,53,68,43,24
-14,73,87,-29,-51,80,-24,-19,53,68,43,24
-14,73,87,-29,-51,80,-34,-19,53,68,43,24
-4,78,82,-36,-43,80,-34,-19,58,68,43,24
4,87,82,-46,-39,85,-39,-19,68,73,48,29
9,87,78,-48,-34,82,-43,-19,68,73,48,39
14,92,78,-53,-31,85,-48,-19,63,73,53,39
19,92,73,-56,-26,82,-53,-19,63,73,58,43
24,97,73,-61,-24,85,-53,-29,63,82,58,53
24,107,82,-65,-29,95,-58,-29,63,82,58,53
29,117,87,-73,-29,102,-63,-29,58,82,58,58
29,122,92,-75,-31,107,-63,-34,58,82,58,58
29,122,92,-75,-31,107,-73,-34,53,82,58,58
29,122,92,-75,-31,107,-73,-39,48,78,58,63
24,122,97,-73,-36,109,-73,-43,48,73,58,63
19,112,92,-65,-36,102,-73,-43,43,73,58,63
24,112,87,-68,-31,100,-73,-43,43,68,58,58
24,102,78,-63,-26,90,-73,-43,39,63,48,48
19,97,78,-58,-29,87,-63,-43,34,58,43,48
19,82,63,-51,-21,73,-63,-43,29,53,39,43
19,87,68,-53,-24,78,-48,-43,34,48,43,39
19,82,63,-51,-21,73,-48,-43,34,43,39,29
19,73,53,-46,-17,63,-48,-43,29,43,34,24
14,63,48,-39,-17,56,-48,-43,24,39,29,24
14,48,34,-31,-9,41,-43,-34,9,34,29,9
14,43,29,-29,-7,36,-43,-34,9,29,24,4
9,39,29,-24,-9,34,-43,-34,4,29,19,0
9,39,29,-24,-9,34,-39,-34,4,24,19,0
0,19,19,-9,-9,19,-48,-39,-4,14,4,-4
-9,14,24,-2,-17,19,-43,-39,-4,14,0,-9
-9,9,19,0,-14,14,-39,-39,-4,9,0,-9
-14,4,19,4,-17,12,-39,-39,-4,9,-4,-14
-34,-9,24,21,-29,7,-34,-39,-4,9,-9,-14
-39,-14,24,26,-31,4,-34,-43,-4,9,-9,-14
-43,-19,24,31,-34,2,-29,-43,-4,9,-9,-14
-48,-24,24,36,-36,0,-24,-43,-4,9,-14,-24
-43,-29,14,36,-29,-7,-19,-48,4,9,-14,-14
-48,-29,19,39,-34,-4,-14,-48,4,4,-19,-19
-53,-34,19,43,-36,-7,-9,-48,4,4,-19,-24
-58,-43,14,51,-36,-14,-4,-48,4,0,-24,-29
-68,-39,29,53,-48,-4,9,-43,0,0,-29,-43
-68,-43,24,56,-46,-9,9,-43,0,0,-29,-43
-68,-48,19,58,-43,-14,4,-43,-4,-4,-34,-48
-68,-48,19,58,-43,-14,4,-43,-4,-4,-34,-48
-58,-39,19,48,-39,-9,9,-43,-4,4,-24,-48
-58,-43,14,51,-36,-14,9,-43,-4,0,-24,-58
-58,-43,14,51,-36,-14,9,-43,-9,0,-34,-58
-63,-48,14,56,-39,-17,9,-43,-9,-4,-34,-58
-58,-39,19,48,-39,-9,19,-43,0,-4,-34,-58
-53,-39,14,46,-34,-12,24,-43,0,-4,-34,-58
-48,-43,4,46,-26,-19,24,-43,0,-4,-34,-58
-43,-43,0,43,-21,-21,24,-43,-4,-4,-34,-63
-53,-53,0,53,-26,-26,14,-43,-4,-9,-34,-53
-53,-53,0,53,-26,-26,14,-43,-4,-9,-34,-53
-53,-53,0,53,-26,-26,14,-43,0,-9,-39,-53
-53,-58,-4,56,-24,-31,14,-39,0,-9,-39,-53
-58,-68,-9,63,-24,-39,14,-39,-9,-24,-48,-63
-58,-68,-9,63,-24,-39,14,-39,-9,-24,-48,-63
-58,-68,-9,63,-24,-39,19,-39,-9,-24,-48,-63
-58,-63,-4,61,-26,-34,19,-39,-9,-19,-48,-63
-53,-63,-9,58,-21,-36,19,-39,-9,-19,-43,-63
-63,-63,0,63,-31,-31,14,-48,-9,-14,-43,-63
-73,-68,4,70,-39,-31,14,-53,-9,-14,-53,-73
-78,-73,4,75,-41,-34,19,-53,-14,-24,-53,-82
-87,-87,0,87,-43,-43,43,-53,4,-24,-68,-97
-97,-107,-9,102,-43,-58,68,-43,4,-24,-87,-126
-107,-117,-9,112,-48,-63,92,-34,24,-19,-97,-156
-112,-117,-4,114,-53,-61,102,-29,39,-4,-107,-161
-112,-112,0,112,-56,-56,92,-29,39,4,-102,-161
-107,-102,4,104,-56,-48,78,-34,39,14,-78,-151
-107,-78,29,92,-68,-24,48,-48,39,43,-48,-122
-97,-9,87,53,-92,39,24,-73,58,82,14,-63
-92,63,156,14,-124,109,-4,-87,73,131,82,0
-82,141,224,-29,-153,183,-29,-92,102,190,161,58
-68,214,283,-73,-175,248,-34,-102,126,253,244,122
-48,283,331,-117,-190,307,-63,-87,151,312,317,185
-24,336,361,-156,-192,348,-73,-63,165,375,405,239
24,390,366,-207,-170,378,-73,-9,185,424,478,278
78,429,351,-253,-136,390,-87,43,185,458,546,326
122,463,341,-292,-109,402,-112,82,180,492,595,375
136,463,326,-300,-95,395,-122,102,175,502,634,405
151,473,322,-312,-85,397,-131,102,165,502,658,434
151,507,356,-329,-102,431,-151,78,175,507,683,478
141,541,400,-341,-129,470,-156,9,209,517,683,541
97,527,429,-312,-165,478,-146,-92,224,468,629,556
43,434,390,-239,-173,412,-131,-170,209,351,473,512
14,322,307,-168,-146,314,-107,-229,170,224,287,439
-34,239,273,-102,-153,256,-78,-278,151,131,146,380
-78,136,214,-29,-146,175,-43,-317,141,53,34,283
-102,-34,68,68,-85,17,24,-302,87,-63,-131,117
-102,-224,-122,163,9,-173,78,-258,9,-175,-278,-53
-112,-356,-244,234,65,-300,117,-219,-34,-253,-380,-190
-141,-434,-292,287,75,-363,161,-200,-34,-253,-429,-292
-185,-478,-292,331,53,-385,204,-185,-24,-239,-458,-361
-200,-517,-317,358,58,-417,234,-151,-24,-239,-478,-429
-214,-551,-336,383,61,-444,253,-117,-24,-258,-507,-468
-229,-590,-361,409,65,-475,283,-87,-24,-258,-522,-512
-244,-629,-385,436,70,-507,307,-63,-24,-278,-541,-551
-239,-644,-405,441,82,-524,336,-24,-24,-278,-541,-561
-239,-644,-405,441,82,-524,366,0,-9,-263,-522,-551
-244,-624,-380,434,68,-502,414,34,19,-234,-507,-541
-239,-590,-351,414,56,-470,463,48,58,-204,-478,-531
-248,-561,-312,405,31,-436,483,58,73,-170,-444,-502
-258,-517,-258,387,0,-387,517,58,107,-136,-400,-478
-268,-458,-190,363,-39,-324,551,48,161,-97,-356,-444
-283,-400,-117,341,-82,-258,580,34,209,-53,-322,-400
-283,-361,-78,322,-102,-219,624,19,239,-29,-292,-375
-297,-351,-53,324,-122,-202,658,19,253,-19,-278,-356
-317,-361,-43,339,-136,-202,702,14,253,-9,-268,-351
-346,-361,-14,353,-165,-187,741,19,268,0,-248,-336
-356,-351,4,353,-180,-173,785,9,283,9,-248,-326
-366,-375,-9,370,-178,-192,839,9,273,-4,-248,-326
-375,-385,-9,380,-183,-197,883,19,263,-24,-253,-336
-385,-400,-14,392,-185,-207,927,19,258,-39,-268,-326
-395,-409,-14,402,-190,-212,951,14,248,-48,-278,-336
-395,-419,-24,407,-185,-222,941,9,239,-68,-278,-346
-385,-400,-14,392,-185,-207,893,-14,229,-63,-268,-336
-370,-380,-9,375,-180,-195,805,-34,204,-73,-244,-307
-341,-351,-9,346,-165,-180,697,-43,165,-73,-209,-263
-297,-312,-14,305,-141,-163,566,-58,126,-73,-175,-229
-248,-263,-14,256,-117,-139,439,-68,102,-63,-146,-175
-214,-214,0,214,-107,-107,346,-78,82,-63,-126,-151
-175,-185,-9,180,-82,-97,283,-68,63,-53,-122,-126
-161,-161,0,161,-80,-80,224,-68,48,-63,-112,-117
-141,-151,-9,146,-65,-80,175,-63,34,-63,-97,-107
-126,-136,-9,131,-58,-73,122,-68,19,-58,-92,-102
-112,-126,-14,119,-48,-70,92,-58,4,-53,-78,-92
-87,-112,-24,100,-31,-68,63,-43,-4,-48,-68,-78
-73,-102,-29,87,-21,-65,63,-29,-19,-48,-53,-53
-58,-82,-24,70,-17,-53,48,-19,-19,-43,-43,-43
-43,-78,-34,61,-4,-56,29,-9,-14,-34,-43,-39
-29,-68,-39,48,4,-53,14,-14,-19,-43,-48,-34
-39,-68,-29,53,-4,-48,0,-9,-34,-53,-48,-34
-39,-73,-34,56,-2,-53,-14,-9,-43,-53,-48,-34
-34,-73,-39,53,2,-56,-29,-4,-43,-53,-43,-34
-29,-73,-43,51,7,-58,-29,0,-48,-53,-34,-34
-14,-63,-48,39,17,-56,-29,9,-39,-43,-19,-24
-9,-63,-53,36,21,-58,-34,4,-39,-39,-19,-19
-4,-53,-48,29,21,-51,-39,4,-39,-39,-19,-19
0,-48,-48,24,24,-48,-39,9,-39,-39,-29,-19
0,-34,-34,17,17,-34,-39,0,-43,-43,-19,-9
0,-34,-34,17,17,-34,-39,4,-43,-43,-19,-9
4,-34,-39,14,21,-36,-39,4,-48,-43,-19,-9
4,-34,-39,14,21,-36,-43,4,-53,-43,-9,-9
19,-24,-43,2,31,-34,-34,4,-53,-34,-9,0
19,-29,-48,4,34,-39,-39,9,-53,-34,-9,4
14,-34,-48,9,31,-41,-43,9,-53,-34,-9,4
14,-43,-58,14,36,-51,-48,9,-53,-34,-19,4
14,-34,-48,9,31,-41,-58,9,-53,-53,-34,-4
24,-34,-58,4,41,-46,-58,9,-58,-53,-34,-9
29,-29,-58,0,43,-43,-58,19,-58,-53,-34,-9
29,-29,-58,0,43,-43,-58,19,-58,-53,-24,-9
29,-39,-68,4,48,-53,-58,24,-63,-53,-14,-9
29,-39,-68,4,48,-53,-58,24,-63,-48,-14,0
29,-39,-68,4,48,-53,-58,29,-63,-48,-14,4
29,-29,-58,0,43,-43,-58,29,-63,-48,-19,4
34,-19,-53,-7,43,-36,-58,29,-63,-48,-24,4
34,-29,-63,-2,48,-46,-68,29,-63,-58,-24,-4
34,-34,-68,0,51,-51,-73,29,-73,-63,-24,-4
34,-34,-68,0,51,-51,-82,29,-78,-63,-24,-4
39,-39,-78,0,58,-58,-82,34,-87,-58,-24,-4
39,-39,-78,0,58,-58,-78,39,-82,-58,-19,4
39,-29,-68,-4,53,-48,-73,39,-82,-53,-19,9
48,-24,-73,-12,61,-48,-73,39,-82,-53,-19,14
58,-14,-73,-21,65,-43,-73,34,-73,-53,-14,24
58,-9,-68,-24,63,-39,-82,34,-73,-53,-14,24
58,-9,-68,-24,63,-39,-87,34,-82,-63,-14,19
58,-19,-78,-19,68,-48,-92,39,-87,-63,-14,19
63,-14,-78,-24,70,-46,-92,43,-87,-63,-4,14
63,-14,-78,-24,70,-46,-92,43,-87,-63,0,14
73,-9,-82,-31,78,-46,-92,48,-87,-63,0,19
73,-9,-82,-31,78,-46,-92,48,-87,-58,0,19
82,-4,-87,-39,85,-46,-87,58,-97,-58,-19,24
82,-4,-87,-39,85,-46,-97,58,-107,-68,-24,24
87,0,-87,-43,87,-43,-97,58,-112,-73,-24,14
87,0,-87,-43,87,-43,-102,68,-117,-78,-24,14
87,-4,-92,-41,90,-48,-112,63,-131,-87,-24,19
97,-9,-107,-43,102,-58,-112,68,-131,-82,-14,19
97,-14,-112,-41,104,-63,-112,73,-126,-82,-14,29
97,-19,-117,-39,107,-68,-117,73,-126,-82,-19,29
87,-19,-107,-34,97,-63,-122,82,-122,-87,-29,29
92,-19,-112,-36,102,-65,-126,82,-126,-92,-29,29
92,-19,-112,-36,102,-65,-131,87,-131,-97,-29,29
102,-19,-122,-41,112,-70,-136,87,-136,-102,-29,29
107,-29,-136,-39,122,-82,-141,87,-151,-107,-29,14
107,-34,-141,-36,124,-87,-141,87,-151,-112,-24,14
107,-34,-141,-36,124,-87,-141,87,-151,-112,-24,24
107,-34,-141,-36,124,-87,-146,92,-151,-112,-24,29
112,-24,-136,-43,124,-80,-151,82,-151,-112,-24,29
112,-24,-136,-43,124,-80,-151,82,-151,-112,-34,29
117,-24,-141,-46,129,-82,-156,82,-156,-122,-34,29
117,-24,-141,-46,129,-82,-161,82,-161,-126,-34,24
126,-24,-151,-51,139,-87,-165,97,-165,-141,-34,24
131,-24,-156,-53,143,-90,-170,97,-170,-141,-34,24
131,-24,-156,-53,143,-90,-170,97,-170,-141,-29,34
131,-24,-156,-53,143,-90,-175,97,-170,-141,-29,34
131,-9,-141,-61,136,-75,-175,97,-175,-131,-34,48
131,-9,-141,-61,136,-75,-180,97,-180,-136,-43,48
136,-9,-146,-63,141,-78,-180,97,-180,-141,-43,48
136,-9,-146,-63,141,-78,-180,97,-185,-146,-39,48
146,9,-136,-78,141,-63,-180,97,-185,-151,-39,48
156,14,-141,-85,148,-63,-185,97,-190,-151,-29,58
161,14,-146,-87,153,-65,-190,97,-190,-146,-24,63
165,19,-146,-92,156,-63,-195,97,-190,-146,-19,68
156,14,-141,-85,148,-63,-200,97,-190,-146,-19,73
156,24,-131,-90,143,-53,-200,97,-195,-146,-19,78
161,24,-136,-92,148,-56,-209,97,-195,-146,-19,82
161,29,-131,-95,146,-51,-219,87,-200,-151,-19,87
170,48,-122,-109,146,-36,-219,97,-190,-141,-9,102
175,53,-122,-114,148,-34,-229,97,-190,-141,4,112
180,58,-122,-119,151,-31,-229,97,-190,-131,14,122
190,63,-126,-126,158,-31,-229,97,-190,-126,24,136
185,68,-117,-126,151,-24,-239,87,-190,-126,34,136
180,73,-107,-126,143,-17,-244,78,-185,-122,34,146
175,82,-92,-129,134,-4,-248,78,-185,-117,39,156
170,92,-78,-131,124,7,-248,73,-185,-112,43,156
161,92,-68,-126,114,12,-248,68,-180,-112,48,165
161,92,-68,-126,114,12,-248,68,-180,-102,53,165
156,92,-63,-124,109,14,-248,68,-170,-97,63,170
156,97,-58,-126,107,19,-239,68,-165,-82,73,170
151,87,-63,-119,107,12,-234,63,-170,-82,78,165
136,102,-34,-119,85,34,-229,53,-156,-73,78,165
126,102,-24,-114,75,39,-224,48,-146,-68,78,165
117,102,-14,-109,65,43,-219,43,-141,-68,73,156
122,102,-19,-112,70,41,-209,43,-131,-53,73,151
107,102,-4,-104,56,48,-200,39,-131,-48,73,146
97,102,4,-100,46,53,-195,39,-126,-43,78,131
92,97,4,-95,43,51,-185,34,-112,-29,82,126
92,107,14,-100,39,61,-170,29,-92,-19,92,126
82,97,14,-90,34,56,-161,24,-82,-9,92,122
78,97,19,-87,29,58,-156,24,-73,-4,82,112
73,102,29,-87,21,65,-141,19,-68,0,78,102
82,107,24,-95,29,65,-126,24,-48,4,73,102
78,102,24,-90,26,63,-117,19,-39,4,73,97
63,107,43,-85,9,75,-112,14,-39,9,73,87
58,107,48,-82,4,78,-102,14,-29,14,73,78
53,102,48,-78,2,75,-92,14,-19,34,73,68
48,102,53,-75,-2,78,-82,4,-14,39,68,68
43,97,53,-70,-4,75,-78,0,-4,39,63,58
29,92,63,-61,-17,78,-73,-4,-4,34,53,53
24,82,58,-53,-17,70,-68,-4,0,34,39,39
19,78,58,-48,-19,68,-63,-9,0,34,34,29
19,78,58,-48,-19,68,-58,-14,0,34,34,29
14,73,58,-43,-21,65,-53,-14,0,34,34,29
4,68,63,-36,-29,65,-48,-14,0,34,34,29
0,63,63,-31,-31,63,-43,-14,4,34,34,29
0,63,63,-31,-31,63,-43,-14,9,34,34,24
-4,63,68,-29,-36,65,-39,-14,9,34,24,24
-4,53,58,-24,-31,56,-48,-29,9,34,19,14
-4,48,53,-21,-29,51,-43,-29,9,29,19,9
-4,48,53,-21,-29,51,-39,-29,9,29,19,9
-4,48,53,-21,-29,51,-39,-29,9,29,19,9
-14,34,48,-9,-31,41,-39,-29,9,19,19,0
-14,34,48,-9,-31,41,-39,-29,9,19,19,0
-14,29,43,-7,-29,36,-39,-29,9,19,19,0
-19,24,43,-2,-31,34,-39,-29,9,19,19,0
-19,14,34,2,-26,24,-39,-29,9,9,19,0
-24,14,39,4,-31,26,-39,-29,9,9,14,0
-24,14,39,4,-31,26,-39,-34,9,9,14,0
-24,14,39,4,-31,26,-39,-34,9,9,14,0
-24,14,39,4,-31,26,-48,-34,19,19,14,0
-24,14,39,4,-31,26,-48,-34,19,14,14,0
-24,14,39,4,-31,26,-48,-34,19,14,14,0
-24,14,39,4,-31,26,-48,-34,19,14,14,4
-24,24,48,0,-36,36,-39,-24,19,14,14,9
-24,29,53,-2,-39,41,-39,-24,19,14,19,9
-19,29,48,-4,-34,39,-39,-24,19,19,19,9
-14,29,43,-7,-29,36,-39,-19,24,19,19,9
-4,43,48,-19,-26,46,-39,-19,34,29,19,19
-4,43,48,-19,-26,46,-39,-19,34,29,19,19
-4,39,43,-17,-24,41,-39,-19,34,29,19,19
-4,39,43,-17,-24,41,-39,-19,34,29,19,19
-4,43,48,-19,-26,46,-39,-19,24,29,24,19
-4,43,48,-19,-26,46,-43,-19,24,29,24,19
-4,43,48,-19,-26,46,-43,-19,24,29,24,19
-4,43,48,-19,-26,46,-43,-19,29,29,24,19
-4,43,48,-19,-26,46,-43,-19,29,29,24,29
-4,43,48,-19,-26,46,-43,-19,29,34,29,29
0,43,43,-21,-21,43,-43,-19,29,34,29,29
0,48,48,-24,-24,48,-43,-19,29,34,29,34
0,58,58,-29,-29,58,-43,-19,29,34,34,34
0,58,58,-29,-29,58,-43,-19,29,34,34,34
0,58,58,-29,-29,58,-43,-14,29,34,34,34
0,58,58,-29,-29,58,-43,-14,29,34,34,34
14,63,48,-39,-17,56,-34,-9,29,39,43,39
14,68,53,-41,-19,61,-34,-9,29,39,43,39
14,78,63,-46,-24,70,-34,-9,29,39,43,39
14,82,68,-48,-26,75,-34,-9,29,39,48,39
14,78,63,-46,-24,70,-34,-9,19,39,39,29
14,78,63,-46,-24,70,-34,-14,19,39,39,29
14,78,63,-46,-24,70,-34,-14,19,43,39,29
14,78,63,-46,-24,70,-29,-14,19,43,39,29
0,73,73,-36,-36,73,-39,-24,19,34,39,29
0,68,68,-34,-34,68,-39,-24,19,34,39,29
0,58,58,-29,-29,58,-43,-29,14,34,39,29
-4,53,58,-24,-31,56,-43,-29,14,34,39,29
-14,34,48,-9,-31,41,-48,-29,14,24,29,29
-24,34,58,-4,-41,46,-48,-29,4,24,29,24
-29,29,58,0,-43,43,-48,-29,9,19,29,19
-19,29,48,-4,-34,39,-48,-29,9,19,29,19
-19,29,48,-4,-34,39,-48,-29,9,19,29,19
-19,29,48,-4,-34,39,-48,-29,9,19,29,19
-19,29,48,-4,-34,39,-48,-29,9,19,29,19
-9,39,48,-14,-29,43,-43,-19,19,19,29,19
-9,39,48,-14,-29,43,-39,-24,24,24,29,14
-9,39,48,-14,-29,43,-34,-24,24,29,29,14
-14,39,53,-12,-34,46,-29,-24,24,34,29,14
-14,48,63,-17,-39,56,-24,-24,24,34,24,14
-14,48,63,-17,-39,56,-24,-24,24,34,24,14
-14,48,63,-17,-39,56,-24,-24,24,34,24,14
-9,53,63,-21,-36,58,-24,-24,29,39,24,14
-9,58,68,-24,-39,63,-24,-24,34,39,24,14
-9,63,73,-26,-41,68,-19,-24,39,39,29,14
-4,68,73,-31,-39,70,-19,-24,43,43,29,14
-4,73,78,-34,-41,75,-19,-24,48,43,29,19
-4,68,73,-31,-39,70,-29,-24,43,43,34,19
-4,68,73,-31,-39,70,-24,-19,48,48,34,19
0,73,73,-36,-36,73,-24,-19,48,53,39,19
0,78,78,-39,-39,78,-19,-19,48,53,39,24
9,92,82,-51,-36,87,-19,-19,63,63,43,24
9,92,82,-51,-36,87,-19,-19,63,68,43,24
9,92,82,-51,-36,87,-19,-19,63,68,43,24
9,92,82,-51,-36,87,-24,-19,63,68,43,24
4,82,78,-43,-36,80,-24,-19,63,68,43,24
4,82,78,-43,-36,80,-24,-19,63,68,43,24
0,82,82,-41,-41,82,-34,-19,63,68,43,24
4,87,82,-46,-39,85,-34,-19,68,68,43,24
14,107,92,-61,-39,100,-39,-19,58,73,48,19
19,107,87,-63,-34,97,-43,-19,58,73,48,29
24,112,87,-68,-31,100,-48,-19,53,73,53,29
29,112,82,-70,-26,97,-53,-19,53,73,58,34
24,102,78,-63,-26,90,-63,-29,53,73,58,34
24,107,82,-65,-29,95,-68,-29,53,73,58,34
29,112,82,-70,-26,97,-73,-29,48,73,58,39
29,112,82,-70,-26,97,-73,-34,48,73,58,39
39,122,82,-80,-21,102,-63,-24,43,73,58,39
39,122,82,-80,-21,102,-63,-29,39,68,58,43
34,122,87,-78,-26,104,-63,-34,39,63,58,43
29,112,82,-70,-26,97,-63,-34,34,63,58,43
24,112,87,-68,-31,100,-73,-34,43,58,58,48
24,102,78,-63,-26,90,-73,-34,39,53,48,39
19,97,78,-58,-29,87,-63,-34,34,48,43,39
19,82,63,-51,-21,73,-63,-34,29,43,39,34
9,68,58,-39,-24,63,-58,-34,14,29,24,19
9,63,53,-36,-21,58,-58,-34,14,24,19,9
9,53,43,-31,-17,48,-58,-34,9,24,14,4
4,43,39,-24,-17,41,-58,-34,4,19,9,4
4,29,24,-17,-9,26,-53,-34,9,14,9,0
4,24,19,-14,-7,21,-53,-34,9,9,4,-4
0,19,19,-9,-9,19,-53,-34,4,9,0,-9
0,19,19,-9,-9,19,-48,-34,4,4,0,-9
0,9,9,-4,-4,9,-48,-29,-4,14,-4,-14
-9,4,14,2,-12,9,-43,-29,-4,14,-9,-19
-9,0,9,4,-9,4,-39,-29,-4,9,-9,-19
-14,-4,9,9,-12,2,-39,-29,-4,9,-14,-24
-14,-4,9,9,-12,2,-34,-39,-4,9,-9,-24
-19,-4,14,12,-17,4,-34,-43,-4,9,-9,-24
-24,-4,19,14,-21,7,-29,-43,-4,9,-9,-24
-29,-4,24,17,-26,9,-24,-43,-4,9,-14,-34
-24,-9,14,17,-19,2,-9,-39,4,19,-14,-34
-29,-9,19,19,-24,4,-4,-39,4,14,-19,-39
-34,-14,19,24,-26,2,0,-39,4,14,-19,-43
-39,-24,14,31,-26,-4,4,-39,4,9,-24,-48
-48,-29,19,39,-34,-4,9,-43,-9,0,-29,-53
-48,-34,14,41,-31,-9,9,-43,-9,0,-29,-53
-48,-39,9,43,-29,-14,4,-43,-14,-4,-34,-58
-48,-39,9,43,-29,-14,4,-43,-14,-4,-34,-58
-58,-48,9,53,-34,-19,0,-43,-14,-4,-34,-58
-58,-53,4,56,-31,-24,0,-43,-14,-9,-34,-68
-58,-53,4,56,-31,-24,0,-43,-19,-9,-43,-68
-63,-58,4,61,-34,-26,0,-43,-19,-14,-43,-68
-63,-58,4,61,-34,-26,0,-53,-19,-14,-43,-68
-63,-58,4,61,-34,-26,4,-53,-19,-14,-43,-68
-63,-63,0,63,-31,-31,4,-53,-19,-14,-43,-68
-63,-63,0,63,-31,-31,4,-53,-24,-14,-43,-73
-63,-63,0,63,-31,-31,4,-53,-24,-19,-53,-73
-63,-63,0,63,-31,-31,4,-53,-24,-19,-53,-73
-63,-63,0,63,-31,-31,4,-53,-19,-19,-58,-73
-63,-68,-4,65,-29,-36,4,-48,-19,-19,-58,-73
-63,-58,4,61,-34,-26,14,-39,-19,-24,-58,-73
-58,-58,0,58,-29,-29,14,-39,-19,-24,-58,-73
-53,-58,-4,56,-24,-31,19,-39,-19,-24,-58,-73
-48,-53,-4,51,-21,-29,19,-39,-19,-19,-58,-73
-34,-43,-9,39,-12,-26,19,-29,0,0,-34,-63
-43,-43,0,43,-21,-21,24,-39,0,-4,-34,-63
-53,-48,4,51,-29,-21,24,-43,0,-14,-43,-63
-68,-63,4,65,-36,-29,19,-43,-4,-14,-53,-82
-78,-78,0,78,-39,-39,43,-43,4,-14,-68,-97
-87,-97,-9,92,-39,-53,68,-34,14,-14,-78,-117
-97,-97,0,97,-48,-48,92,-34,34,-9,-87,-146
-102,-97,4,100,-53,-46,102,-19,48,4,-97,-151
-102,-82,19,92,-61,-31,102,-29,48,14,-92,-151
-97,-82,14,90,-56,-34,78,-34,48,24,-68,-141
-107,-58,48,82,-78,-4,58,-48,48,43,-39,-112
-97,0,97,48,-97,48,24,-73,58,82,14,-73
-92,63,156,14,-124,109,4,-87,82,131,82,-19
-92,141,234,-24,-163,187,-19,-102,102,190,151,48
-78,214,292,-68,-185,253,-34,-92,126,244,224,112
-58,263,322,-102,-190,292,-53,-87,151,302,307,165
-34,326,361,-146,-197,344,-73,-63,165,356,375,219
14,370,356,-192,-170,363,-82,0,185,405,448,258
68,409,341,-239,-136,375,-97,43,185,448,517,317
112,434,322,-273,-104,378,-122,82,180,473,566,356
136,444,307,-290,-85,375,-131,102,165,483,605,385
151,463,312,-307,-80,387,-141,102,165,492,629,424
161,507,346,-334,-92,427,-151,78,175,497,663,478
141,561,419,-351,-139,490,-165,9,209,507,683,541
97,556,458,-326,-180,507,-156,-92,224,468,629,566
43,483,439,-263,-197,461,-131,-180,219,361,483,531
4,370,366,-187,-180,368,-117,-248,180,244,317,478
-34,307,341,-136,-187,324,-97,-307,170,151,185,439
-68,214,283,-73,-175,248,-63,-356,161,92,73,341
-102,53,156,24,-129,104,-4,-341,107,-14,-63,185
-112,-136,-24,124,-43,-80,58,-307,39,-136,-200,24
-122,-268,-146,195,12,-207,87,-268,-14,-214,-302,-112
-161,-336,-175,248,7,-256,131,-258,-14,-214,-341,-214
-195,-380,-185,287,-4,-283,165,-244,4,-190,-370,-283
-229,-429,-200,329,-14,-314,204,-209,4,-190,-400,-331
-234,-463,-229,348,-2,-346,224,-175,-4,-229,-439,-390
-248,-512,-263,380,7,-387,253,-136,-4,-239,-463,-444
-253,-551,-297,402,21,-424,278,-102,-14,-248,-483,-483
-248,-566,-317,407,34,-441,317,-73,-4,-258,-483,-502
-239,-556,-317,397,39,-436,356,-29,9,-244,-473,-502
-234,-536,-302,385,34,-419,414,4,39,-214,-448,-492
-239,-512,-273,375,17,-392,463,29,78,-175,-429,-473
-239,-492,-253,366,7,-373,492,39,92,-151,-395,-463
-258,-458,-200,358,-29,-329,517,39,126,-126,-370,-439
-278,-409,-131,344,-73,-270,541,29,170,-78,-326,-405
-292,-361,-68,326,-112,-214,580,14,219,-34,-302,-380
-302,-322,-19,312,-141,-170,614,0,248,-19,-273,-356
-317,-322,-4,319,-156,-163,658,0,263,0,-258,-346
-336,-341,-4,339,-165,-173,702,-4,263,0,-248,-331
-356,-341,14,348,-185,-163,741,0,278,9,-229,-326
-375,-341,34,358,-204,-153,795,-19,283,9,-229,-326
-395,-366,29,380,-212,-168,849,-9,273,-14,-239,-326
-405,-395,9,400,-207,-192,893,0,263,-24,-253,-336
-424,-409,14,417,-219,-197,927,0,258,-39,-268,-346
-434,-429,4,431,-219,-212,951,-14,248,-48,-278,-356
-434,-429,4,431,-219,-212,951,-19,239,-58,-278,-356
-414,-400,14,407,-214,-192,922,-24,229,-63,-268,-346
-380,-370,9,375,-195,-180,844,-34,214,-63,-244,-317
-341,-341,0,341,-170,-170,727,-53,175,-73,-200,-283
-297,-302,-4,300,-146,-153,595,-68,136,-63,-175,-239
-268,-253,14,261,-141,-119,468,-78,112,-63,-146,-185
-234,-214,19,224,-126,-97,356,-87,92,-63,-136,-161
-204,-195,9,200,-107,-92,292,-78,73,-53,-122,-146
-170,-170,0,170,-85,-85,244,-78,58,-63,-122,-126
-151,-141,9,146,-80,-65,185,-73,43,-63,-107,-117
-126,-126,0,126,-63,-63,151,-68,29,-58,-82,-102
-102,-107,-4,104,-48,-56,112,-58,24,-53,-68,-92
-87,-92,-4,90,-41,-48,82,-43,14,-48,-58,-78
-73,-92,-19,82,-26,-56,63,-39,0,-39,-53,-63
-68,-82,-14,75,-26,-48,48,-29,-9,-34,-43,-53
-53,-78,-24,65,-14,-51,29,-19,-14,-34,-43,-39
-39,-58,-19,48,-9,-39,14,-14,-19,-34,-48,-43
-29,-58,-29,43,0,-43,9,-9,-24,-43,-39,-43
-29,-63,-34,46,2,-48,-4,-9,-34,-43,-39,-43
-24,-63,-39,43,7,-51,-19,-4,-34,-43,-34,-43
-19,-63,-43,41,12,-53,-19,0,-39,-43,-24,-43
-14,-63,-48,39,17,-56,-29,9,-48,-43,-29,-24
-9,-63,-53,36,21,-58,-34,4,-48,-39,-29,-19
-4,-53,-48,29,21,-51,-39,4,-48,-39,-29,-19
0,-48,-48,24,24,-48,-39,9,-48,-39,-39,-19
0,-53,-53,26,26,-53,-39,9,-53,-53,-39,-19
0,-53,-53,26,26,-53,-39,14,-53,-53,-39,-19
4,-53,-58,24,31,-56,-39,14,-58,-53,-39,-19
4,-53,-58,24,31,-56,-43,14,-63,-53,-29,-19
9,-53,-63,21,36,-58,-43,14,-53,-53,-29,-19
9,-58,-68,24,39,-63,-48,19,-53,-53,-29,-14
4,-63,-68,29,36,-65,-53,19,-53,-53,-29,-14
4,-73,-78,34,41,-75,-58,19,-53,-53,-39,-14
4,-53,-58,24,31,-56,-48,19,-53,-63,-43,-24
14,-53,-68,19,41,-61,-48,19,-58,-63,-43,-29
19,-48,-68,14,43,-58,-48,29,-58,-63,-43,-29
19,-48,-68,14,43,-58,-48,29,-58,-63,-34,-29
19,-58,-78,19,48,-68,-58,24,-73,-63,-34,-29
19,-58,-78,19,48,-68,-58,24,-73,-58,-34,-19
19,-58,-78,19,48,-68,-58,29,-73,-58,-34,-14
19,-48,-68,14,43,-58,-58,29,-73,-58,-39,-14
24,-39,-63,7,43,-51,-58,29,-73,-58,-43,-14
24,-48,-73,12,48,-61,-68,29,-73,-68,-43,-24
24,-53,-78,14,51,-65,-73,29,-82,-73,-43,-24
24,-53,-78,14,51,-65,-82,29,-87,-73,-43,-24
29,-48,-78,9,53,-63,-73,34,-87,-68,-34,-14
29,-48,-78,9,53,-63,-68,39,-82,-68,-29,-4
29,-39,-68,4,48,-53,-63,39,-82,-63,-29,0
39,-34,-73,-2,56,-53,-63,39,-82,-63,-29,4
48,-34,-82,-7,65,-58,-63,43,-82,-63,-34,4
48,-29,-78,-9,63,-53,-73,43,-82,-63,-34,4
48,-29,-78,-9,63,-53,-78,43,-92,-73,-34,0
48,-39,-87,-4,68,-63,-82,48,-97,-73,-34,0
58,-39,-97,-9,78,-68,-73,53,-97,-63,-24,4
63,-34,-97,-14,80,-65,-73,53,-97,-63,-19,4
78,-24,-102,-26,90,-63,-73,58,-97,-63,-19,9
82,-19,-102,-31,92,-61,-73,58,-97,-58,-19,9
92,-4,-97,-43,95,-51,-68,68,-87,-58,-29,14
92,-4,-97,-43,95,-51,-78,68,-97,-68,-34,14
97,0,-97,-48,97,-48,-78,68,-102,-73,-34,4
97,0,-97,-48,97,-48,-82,78,-107,-78,-34,4
97,-4,-102,-46,100,-53,-92,73,-112,-78,-34,9
107,-9,-117,-48,112,-63,-92,78,-112,-73,-24,9
107,-14,-122,-46,114,-68,-92,82,-107,-73,-24,19
107,-19,-126,-43,117,-73,-97,82,-107,-73,-29,19
102,-24,-126,-39,114,-75,-112,82,-122,-82,-48,9
102,-29,-131,-36,117,-80,-117,82,-126,-92,-48,9
97,-34,-131,-31,114,-82,-122,87,-131,-102,-48,9
102,-39,-141,-31,122,-90,-126,87,-136,-112,-48,9
97,-43,-141,-26,119,-92,-136,87,-151,-126,-48,-4
97,-53,-151,-21,124,-102,-141,87,-151,-131,-43,-4
97,-58,-156,-19,126,-107,-146,87,-151,-131,-43,4
97,-63,-161,-17,129,-112,-156,92,-151,-131,-43,9
107,-58,-165,-24,136,-112,-151,102,-151,-122,-43,9
112,-53,-165,-29,139,-109,-151,102,-151,-122,-53,9
122,-48,-170,-36,146,-109,-156,102,-156,-131,-53,9
126,-43,-170,-41,148,-107,-161,102,-161,-136,-53,4
126,-43,-170,-41,148,-107,-156,117,-156,-141,-53,4
131,-43,-175,-43,153,-109,-161,117,-161,-141,-53,4
131,-43,-175,-43,153,-109,-161,117,-161,-141,-48,14
131,-43,-175,-43,153,-109,-165,117,-161,-141,-48,14
131,-39,-170,-46,151,-104,-165,117,-156,-141,-53,29
131,-39,-170,-46,151,-104,-170,117,-161,-146,-63,29
136,-39,-175,-48,156,-107,-170,117,-161,-151,-63,29
136,-39,-175,-48,156,-107,-170,117,-165,-156,-58,29
141,-34,-175,-53,158,-104,-180,107,-175,-161,-58,29
146,-34,-180,-56,163,-107,-185,107,-180,-161,-48,39
146,-39,-185,-53,165,-112,-190,107,-180,-156,-43,43
146,-39,-185,-53,165,-112,-195,107,-180,-156,-39,48
146,-34,-180,-56,163,-107,-200,107,-180,-156,-39,53
146,-24,-170,-61,158,-97,-200,107,-185,-156,-39,58
151,-24,-175,-63,163,-100,-209,107,-185,-156,-39,63
151,-19,-170,-65,161,-95,-219,97,-190,-161,-39,68
161,-4,-165,-78,163,-85,-209,97,-190,-161,-29,73
165,4,-161,-85,163,-78,-219,97,-190,-161,-14,82
170,14,-156,-92,163,-70,-219,97,-190,-151,-4,92
180,24,-156,-102,168,-65,-219,97,-190,-146,4,107
190,53,-136,-122,163,-41,-219,107,-180,-136,14,126
190,63,-126,-126,158,-31,-224,97,-175,-131,14,136
190,78,-112,-134,151,-17,-229,97,-175,-126,19,146
190,92,-97,-141,143,-2,-229,92,-175,-122,24,146
180,92,-87,-136,134,2,-229,87,-170,-122,39,146
180,92,-87,-136,134,2,-229,87,-170,-112,43,146
175,92,-82,-134,129,4,-229,87,-161,-107,53,151
175,97,-78,-136,126,9,-219,87,-156,-92,63,151
165,92,-73,-129,119,9,-224,82,-151,-82,58,156
156,102,-53,-129,104,24,-219,73,-136,-73,58,156
151,97,-53,-124,102,21,-214,68,-126,-68,58,156
146,92,-53,-119,100,19,-209,63,-122,-68,53,146
136,82,-53,-109,95,14,-200,53,-122,-63,63,141
117,82,-34,-100,75,24,-190,48,-122,-58,63,136
102,82,-19,-92,61,31,-185,48,-117,-53,68,122
92,78,-14,-85,53,31,-175,43,-102,-39,73,117
92,78,-14,-85,53,31,-170,48,-92,-29,73,117
82,68,-14,-75,48,26,-161,43,-82,-19,73,112
78,68,-9,-73,43,29,-156,43,-73,-14,63,102
73,73,0,-73,36,36,-141,39,-68,-9,58,92
63,82,19,-73,21,51,-136,34,-48,-4,53,82
58,73,14,-65,21,43,-126,29,-39,-4,53,78
43,73,29,-58,7,51,-122,24,-39,0,53,68
39,68,29,-53,4,48,-112,24,-29,4,53,58
24,53,29,-39,-2,41,-112,14,-29,14,43,58
19,53,34,-36,-7,43,-102,4,-24,19,39,58
14,48,34,-31,-9,41,-97,0,-14,19,34,48
0,43,43,-21,-21,43,-92,-4,-14,14,24,43
4,34,29,-19,-12,31,-87,-4,0,14,29,29
0,29,29,-14,-14,29,-82,-9,0,14,24,19
0,29,29,-14,-14,29,-78,-14,0,14,24,19
-4,24,29,-9,-17,26,-73,-14,0,14,24,19
-4,29,34,-12,-19,31,-58,-14,0,24,24,19
-9,24,34,-7,-21,29,-53,-14,4,24,24,19
-9,24,34,-7,-21,29,-53,-14,9,24,24,14
-14,24,39,-4,-26,31,-48,-14,9,24,14,14
-4,34,39,-14,-21,36,-48,-19,9,24,9,4
-4,29,34,-12,-19,31,-43,-19,9,19,9,0
-4,29,34,-12,-19,31,-39,-19,9,19,9,0
-4,29,34,-12,-19,31,-39,-19,9,19,9,0
4,29,24,-17,-9,26,-34,-19,19,19,19,9
4,34,29,-19,-12,31,-29,-19,19,19,19,9
4,34,29,-19,-12,31,-24,-19,19,19,19,9
0,34,34,-17,-17,34,-19,-19,19,19,19,9
0,34,34,-17,-17,34,-29,-19,19,19,19,9
-4,34,39,-14,-21,36,-29,-19,19,19,14,9
-4,34,39,-14,-21,36,-29,-24,19,19,14,9
-4,34,39,-14,-21,36,-29,-24,19,19,14,9
-4,24,29,-9,-17,26,-39,-24,19,19,14,9
-4,24,29,-9,-17,26,-39,-24,19,14,14,9
-4,24,29,-9,-17,26,-39,-24,19,14,14,9
-4,24,29,-9,-17,26,-39,-24,19,14,14,14
-14,14,29,0,-21,21,-39,-24,19,14,4,9
-14,19,34,-2,-24,26,-39,-24,19,14,9,9
-9,19,29,-4,-19,24,-39,-24,19,19,9,9
-4,19,24,-7,-14,21,-39,-19,24,19,9,9
4,34,29,-19,-12,31,-39,-9,24,19,9,19
4,34,29,-19,-12,31,-39,-9,24,19,9,19
4,29,24,-17,-9,26,-39,-9,24,19,9,19
4,29,24,-17,-9,26,-39,-9,24,19,9,19
4,43,39,-24,-17,41,-39,-9,24,29,24,19
4,43,39,-24,-17,41,-43,-9,24,29,24,19
4,43,39,-24,-17,41,-43,-9,24,29,24,19
4,43,39,-24,-17,41,-43,-9,29,29,24,19
-4,34,39,-14,-21,36,-43,-19,19,19,24,19
-4,34,39,-14,-21,36,-43,-19,19,24,29,19
0,34,34,-17,-17,34,-43,-19,19,24,29,19
0,39,39,-19,-19,39,-43,-19,19,24,29,24
-9,39,48,-14,-29,43,-43,-19,19,34,34,24
-9,39,48,-14,-29,43,-43,-19,19,34,34,24
-9,39,48,-14,-29,43,-43,-14,19,34,34,24
-9,39,48,-14,-29,43,-43,-14,19,34,34,24
-4,39,43,-17,-24,41,-53,-9,29,39,34,29
-4,39,43,-17,-24,41,-53,-9,29,39,34,29
-4,43,48,-19,-26,46,-53,-9,29,39,34,29
-4,43,48,-19,-26,46,-53,-9,29,39,39,29
-4,48,53,-21,-29,51,-53,-9,19,39,39,29
-4,48,53,-21,-29,51,-53,-14,19,39,39,29
-4,48,53,-21,-29,51,-53,-14,19,43,39,29
-4,48,53,-21,-29,51,-48,-14,19,43,39,29
0,58,58,-29,-29,58,-48,-14,19,34,29,29
0,58,58,-29,-29,58,-48,-14,19,34,29,29
0,53,53,-26,-26,53,-53,-19,14,34,29,29
-4,53,58,-24,-31,56,-53,-19,14,34,29,29
-4,53,58,-24,-31,56,-39,-19,14,34,39,29
-4,53,58,-24,-31,56,-39,-9,14,34,29,24
4,53,48,-29,-21,51,-39,-9,14,34,29,24
0,48,48,-24,-24,48,-39,-9,9,29,29,19
0,48,48,-24,-24,48,-39,-19,9,29,29,19
0,48,48,-24,-24,48,-39,-19,9,29,29,19
0,48,48,-24,-24,48,-39,-19,9,29,29,19
0,48,48,-24,-24,48,-39,-19,9,29,29,19
-4,43,48,-19,-26,46,-39,-19,0,24,19,9
-9,39,48,-14,-29,43,-39,-24,4,24,19,4
-14,34,48,-9,-31,41,-39,-24,4,24,19,4
-24,29,53,-2,-39,41,-39,-24,4,24,19,4
-14,39,53,-12,-34,46,-24,-24,14,34,24,14
-14,39,53,-12,-34,46,-24,-24,14,34,24,14
-14,39,53,-12,-34,46,-24,-24,14,34,24,14
-9,43,53,-17,-31,48,-24,-24,19,39,24,14
0,48,48,-24,-24,48,-24,-24,24,39,34,14
0,53,53,-26,-26,53,-19,-24,29,39,39,14
4,58,53,-31,-24,56,-19,-24,34,43,39,14
4,63,58,-34,-26,61,-19,-24,39,43,39,19
-4,68,73,-31,-39,70,-19,-24,34,43,34,19
-4,68,73,-31,-39,70,-14,-19,39,48,34,19
0,73,73,-36,-36,73,-14,-19,39,53,39,19
0,78,78,-39,-39,78,-9,-19,39,53,39,24
9,73,63,-41,-26,68,-19,-19,53,53,34,14
9,73,63,-41,-26,68,-19,-19,53,58,34,14
9,73,63,-41,-26,68,-19,-19,53,58,34,14
9,73,63,-41,-26,68,-24,-19,53,58,34,14
0,73,73,-36,-36,73,-24,-9,53,58,34,14
4,73,68,-39,-31,70,-24,-9,53,58,34,14
4,73,68,-39,-31,70,-34,-9,53,58,34,14
14,78,63,-46,-24,70,-34,-9,58,58,34,14
14,97,82,-56,-34,90,-39,-9,58,73,48,19
19,97,78,-58,-29,87,-43,-9,58,73,48,29
24,102,78,-63,-26,90,-48,-9,53,73,53,29
29,102,73,-65,-21,87,-53,-9,53,73,58,34
34,102,68,-68,-17,85,-63,-19,53,73,58,34
34,107,73,-70,-19,90,-68,-19,53,73,58,34
39,112,73,-75,-17,92,-73,-19,48,73,58,39
39,112,73,-75,-17,92,-73,-24,48,73,58,39
39,112,73,-75,-17,92,-73,-24,53,73,58,39
39,112,73,-75,-17,92,-73,-29,48,68,58,43
34,112,78,-73,-21,95,-73,-34,48,63,58,43
29,102,73,-65,-21,87,-73,-34,43,63,58,43
24,92,68,-58,-21,80,-73,-34,43,58,58,39
24,82,58,-53,-17,70,-73,-34,39,53,48,29
19,78,58,-48,-19,68,-63,-34,34,48,43,29
19,63,43,-41,-12,53,-63,-34,29,43,39,24
19,58,39,-39,-9,48,-58,-34,24,39,24,19
19,53,34,-36,-7,43,-58,-34,24,34,19,9
19,43,24,-31,-2,34,-58,-34,19,34,14,4
14,34,19,-24,-2,26,-58,-34,14,29,9,4
14,29,14,-21,0,21,-43,-34,9,24,9,0
14,24,9,-19,2,17,-43,-34,9,19,4,-4
9,19,9,-14,0,14,-43,-34,4,19,0,-9
9,19,9,-14,0,14,-39,-34,4,14,0,-9
19,19,0,-19,9,9,-39,-29,-4,14,4,-4
9,14,4,-12,2,9,-34,-29,-4,14,0,-9
9,9,0,-9,4,4,-29,-29,-4,9,0,-9
4,4,0,-4,2,2,-29,-29,-4,9,-4,-14
-9,-9,0,9,-4,-4,-24,-29,-4,9,-9,-24
-19,-14,4,17,-12,-4,-24,-34,-4,9,-9,-24
-29,-19,9,24,-19,-4,-19,-34,-4,9,-9,-24
-39,-24,14,31,-26,-4,-14,-34,-4,9,-14,-34
-43,-29,14,36,-29,-7,-19,-48,-4,0,-24,-34
-48,-29,19,39,-34,-4,-14,-48,-4,-4,-29,-39
-53,-34,19,43,-36,-7,-9,-48,-4,-4,-29,-43
-58,-43,14,51,-36,-14,-4,-48,-4,-9,-34,-48
-68,-48,19,58,-43,-14,0,-43,-9,-9,-29,-53
-68,-53,14,61,-41,-19,0,-43,-9,-9,-29,-53
-68,-58,9,63,-39,-24,-4,-43,-14,-14,-34,-58
-68,-58,9,63,-39,-24,-4,-43,-14,-14,-34,-58
-58,-48,9,53,-34,-19,9,-43,-4,-9,-24,-58
-58,-53,4,56,-31,-24,9,-43,-4,-9,-24,-68
-58,-53,4,56,-31,-24,9,-43,-9,-4,-34,-68
-63,-58,4,61,-34,-26,9,-43,-9,-4,-34,-68
-53,-48,4,51,-29,-21,19,-34,0,-4,-34,-58
-53,-48,4,51,-29,-21,24,-34,0,-4,-34,-58
-53,-53,0,53,-26,-26,24,-34,0,-4,-34,-58
-53,-53,0,53,-26,-26,24,-34,-4,-4,-34,-63
-53,-53,0,53,-26,-26,14,-43,-4,-9,-43,-63
-53,-53,0,53,-26,-26,14,-43,-4,-9,-43,-63
-53,-53,0,53,-26,-26,14,-43,0,-9,-48,-63
-53,-58,-4,56,-24,-31,14,-39,0,-9,-48,-63
-58,-68,-9,63,-24,-39,14,-39,-9,-24,-48,-73
-58,-68,-9,63,-24,-39,14,-39,-9,-24,-48,-73
-58,-68,-9,63,-24,-39,19,-39,-9,-24,-48,-73
-58,-63,-4,61,-26,-34,19,-39,-9,-19,-48,-73
-63,-73,-9,68,-26,-41,19,-39,0,-19,-43,-73
-63,-73,-9,68,-26,-41,14,-48,0,-14,-43,-73
-73,-78,-4,75,-34,-41,14,-53,-19,-14,-43,-73
-87,-82,4,85,-46,-39,19,-53,-14,-14,-53,-82
-97,-97,0,97,-48,-48,34,-53,-4,-14,-68,-97
-97,-107,-9,102,-43,-58,58,-53,14,-14,-78,-126
-107,-107,0,107,-53,-53,82,-43,34,0,-87,-136
-102,-97,4,100,-53,-46,102,-29,48,14,-97,-151
-102,-82,19,92,-61,-31,102,-29,58,24,-82,-141
-87,-73,14,80,-51,-29,87,-34,58,34,-58,-122
-78,-29,48,53,-63,9,68,-39,58,73,-19,-92
-78,39,117,19,-97,78,43,-63,78,102,43,-43
-63,102,165,-19,-114,134,14,-78,92,151,122,19
-63,180,244,-58,-153,212,0,-82,112,219,190,87
-48,253,302,-102,-175,278,-24,-82,146,273,253,141
-29,312,341,-141,-185,326,-53,-78,161,322,336,214
-4,366,370,-180,-187,368,-63,-53,185,375,414,258
34,409,375,-222,-170,392,-73,0,195,434,468,297
78,439,361,-258,-141,400,-87,43,185,458,536,346
112,453,341,-283,-114,397,-112,82,180,473,575,385
126,453,326,-290,-100,390,-131,92,165,483,605,414
131,463,331,-297,-100,397,-141,82,156,483,629,434
141,507,366,-324,-112,436,-161,48,175,488,653,488
131,551,419,-341,-143,485,-165,-29,200,497,673,561
87,556,468,-322,-190,512,-165,-131,224,458,619,575
34,473,439,-253,-202,456,-141,-219,209,341,473,541
-4,370,375,-183,-190,373,-126,-287,180,234,307,488
-43,307,351,-131,-197,329,-107,-346,170,151,185,439
-87,224,312,-68,-200,268,-63,-375,161,82,73,351
-112,63,175,24,-143,119,-4,-370,107,-24,-63,204
-112,-117,-4,114,-53,-61,48,-326,39,-136,-190,43
-122,-239,-117,180,-2,-178,97,-287,-14,-204,-283,-82
-151,-307,-156,229,2,-231,131,-268,-14,-195,-322,-175
-195,-351,-156,273,-19,-253,165,-263,4,-170,-351,-253
-219,-390,-170,305,-24,-280,204,-229,4,-170,-380,-302
-224,-424,-200,324,-12,-312,224,-185,4,-190,-400,-351
-248,-463,-214,356,-17,-339,253,-156,4,-200,-434,-395
-253,-502,-248,378,-2,-375,287,-122,4,-219,-453,-444
-248,-527,-278,387,14,-402,317,-82,4,-219,-453,-463
-248,-527,-278,387,14,-402,356,-48,9,-224,-444,-463
-253,-517,-263,385,4,-390,414,-24,39,-195,-429,-463
-248,-502,-253,375,2,-378,463,9,68,-156,-409,-453
-268,-483,-214,375,-26,-348,492,19,82,-131,-375,-434
-278,-439,-161,358,-58,-300,517,9,117,-107,-341,-419
-297,-390,-92,344,-102,-241,561,0,170,-58,-307,-385
-312,-341,-29,326,-141,-185,590,-24,219,-14,-273,-361
-322,-302,19,312,-170,-141,634,-29,248,9,-244,-336
-326,-302,24,314,-175,-139,678,-29,263,29,-219,-326
-346,-312,34,329,-190,-139,732,-24,263,29,-209,-312
-366,-312,53,339,-209,-129,780,-29,278,29,-200,-307
-385,-322,63,353,-224,-129,834,-29,283,29,-200,-297
-395,-336,58,366,-226,-139,868,-29,273,14,-209,-307
-395,-356,39,375,-217,-158,912,-19,263,4,-224,-307
-405,-370,34,387,-219,-168,946,-19,248,-19,-239,-317
-414,-380,34,397,-224,-173,971,-24,248,-29,-248,-326
-405,-390,14,397,-209,-187,961,-29,229,-48,-258,-326
-395,-370,24,383,-209,-173,912,-34,219,-53,-248,-326
-370,-361,9,366,-190,-175,824,-53,185,-63,-234,-297
-341,-331,9,336,-175,-161,697,-63,156,-73,-209,-263
-297,-302,-4,300,-146,-153,566,-68,107,-73,-175,-229
-258,-253,4,256,-131,-124,439,-87,92,-63,-146,-185
-234,-214,19,224,-126,-97,336,-97,73,-63,-136,-161
-195,-185,9,190,-102,-87,273,-87,53,-53,-122,-136
-170,-170,0,170,-85,-85,214,-78,29,-63,-112,-126
-151,-151,0,151,-75,-75,165,-73,24,-63,-107,-117
-126,-136,-9,131,-58,-73,131,-68,19,-58,-92,-102
-112,-117,-4,114,-53,-61,92,-58,4,-63,-68,-82
-87,-102,-14,95,-36,-58,73,-53,-4,-48,-48,-78
-73,-92,-19,82,-26,-56,63,-39,-19,-39,-43,-53
-58,-73,-14,65,-21,-43,48,-29,-19,-34,-34,-43
-43,-68,-24,56,-9,-46,29,-19,-14,-34,-34,-39
-29,-58,-29,43,0,-43,14,-24,-19,-34,-39,-34
-29,-58,-29,43,0,-43,0,-9,-34,-43,-39,-34
-29,-63,-34,46,2,-48,-14,-9,-43,-43,-39,-34
-24,-63,-39,43,7,-51,-29,-4,-43,-43,-34,-34
-19,-63,-43,41,12,-53,-29,0,-48,-43,-24,-34
-14,-53,-39,34,12,-46,-19,9,-48,-43,-19,-24
-9,-53,-43,31,17,-48,-24,4,-48,-39,-19,-19
-4,-43,-39,24,17,-41,-29,4,-48,-39,-19,-19
0,-39,-39,19,19,-39,-29,9,-48,-39,-29,-19
9,-43,-53,17,31,-48,-39,9,-53,-53,-29,-19
9,-43,-53,17,31,-48,-39,14,-53,-53,-29,-19
14,-43,-58,14,36,-51,-39,14,-58,-53,-29,-19
14,-43,-58,14,36,-51,-43,14,-63,-53,-19,-19
29,-39,-68,4,48,-53,-39,14,-63,-43,-19,-9
29,-39,-68,4,48,-53,-39,19,-63,-43,-19,-4
24,-39,-63,7,43,-51,-39,19,-63,-43,-19,-4
24,-43,-68,9,46,-56,-39,19,-63,-43,-29,-4
14,-43,-58,14,36,-51,-48,9,-63,-63,-34,-14
24,-43,-68,9,46,-56,-48,9,-68,-63,-34,-19
29,-39,-68,4,48,-53,-48,19,-68,-63,-34,-19
29,-39,-68,4,48,-53,-48,19,-68,-63,-24,-19
19,-48,-68,14,43,-58,-48,24,-73,-53,-24,-19
19,-48,-68,14,43,-58,-48,24,-73,-48,-24,-9
19,-48,-68,14,43,-58,-48,29,-73,-48,-24,-4
19,-39,-58,9,39,-48,-48,29,-73,-48,-29,-4
14,-39,-53,12,34,-46,-48,19,-73,-48,-34,-4
14,-48,-63,17,39,-56,-58,19,-73,-58,-34,-14
14,-53,-68,19,41,-61,-63,19,-82,-63,-34,-14
14,-53,-68,19,41,-61,-73,19,-87,-63,-34,-14
34,-39,-73,2,53,-56,-63,34,-87,-58,-14,-14
39,-39,-78,0,58,-58,-58,39,-82,-58,-9,-4
43,-29,-73,-7,58,-51,-53,39,-82,-53,-9,0
58,-24,-82,-17,70,-53,-53,39,-82,-53,-9,4
78,-14,-92,-31,85,-53,-63,53,-82,-53,-24,4
78,-9,-87,-34,82,-48,-73,53,-82,-53,-24,4
78,-9,-87,-34,82,-48,-78,53,-92,-63,-24,0
78,-19,-97,-29,87,-58,-82,58,-97,-63,-24,0
78,-29,-107,-24,92,-68,-82,53,-107,-73,-24,-4
73,-34,-107,-19,90,-70,-82,53,-107,-73,-19,-4
78,-34,-112,-21,95,-73,-82,58,-107,-73,-19,0
73,-39,-112,-17,92,-75,-82,58,-107,-68,-19,0
68,-39,-107,-14,87,-73,-97,58,-107,-78,-39,-4
63,-43,-107,-9,85,-75,-107,58,-117,-87,-43,-4
63,-43,-107,-9,85,-75,-107,58,-122,-92,-43,-14
58,-48,-107,-4,82,-78,-112,68,-126,-97,-43,-14
68,-48,-117,-9,92,-82,-112,73,-131,-97,-34,0
78,-48,-126,-14,102,-87,-112,78,-131,-92,-24,0
78,-48,-126,-14,102,-87,-112,82,-126,-92,-24,9
78,-48,-126,-14,102,-87,-117,82,-126,-92,-29,9
87,-43,-131,-21,109,-87,-112,92,-131,-87,-39,9
92,-39,-131,-26,112,-85,-117,92,-136,-92,-39,9
92,-34,-126,-29,109,-80,-122,97,-141,-97,-39,9
102,-29,-131,-36,117,-80,-126,97,-146,-102,-39,9
117,-39,-156,-39,136,-97,-131,97,-151,-117,-39,4
117,-43,-161,-36,139,-102,-131,97,-151,-122,-34,4
117,-43,-161,-36,139,-102,-131,97,-151,-122,-34,14
117,-43,-161,-36,139,-102,-136,102,-151,-122,-34,19
122,-34,-156,-43,139,-95,-141,112,-151,-112,-43,9
122,-34,-156,-43,139,-95,-141,112,-151,-112,-53,9
126,-34,-161,-46,143,-97,-146,112,-156,-122,-53,9
126,-34,-161,-46,143,-97,-151,112,-161,-126,-53,4
136,-34,-170,-51,153,-102,-156,117,-165,-131,-53,14
141,-34,-175,-53,158,-104,-161,117,-170,-131,-53,14
141,-34,-175,-53,158,-104,-161,117,-170,-131,-48,24
141,-34,-175,-53,158,-104,-165,117,-170,-131,-48,24
141,-29,-170,-56,156,-100,-156,117,-165,-131,-48,19
141,-29,-170,-56,156,-100,-161,117,-170,-136,-53,19
146,-29,-175,-58,161,-102,-161,117,-170,-141,-48,19
146,-29,-175,-58,161,-102,-161,117,-175,-146,-39,19
156,-19,-175,-68,165,-97,-161,126,-185,-141,-48,19
165,-14,-180,-75,173,-97,-165,126,-190,-141,-39,29
170,-14,-185,-78,178,-100,-170,126,-190,-136,-34,34
175,-9,-185,-82,180,-97,-175,126,-190,-136,-29,39
170,-14,-185,-78,178,-100,-190,117,-190,-141,-39,43
165,-4,-170,-80,168,-87,-190,117,-195,-146,-39,48
165,-4,-170,-80,168,-87,-200,117,-195,-151,-39,53
161,0,-161,-80,161,-80,-209,107,-200,-161,-39,58
175,9,-165,-92,170,-78,-219,107,-200,-151,-29,73
175,14,-161,-95,168,-73,-229,107,-200,-151,-14,82
175,19,-156,-97,165,-68,-229,107,-200,-141,-4,92
180,24,-156,-102,168,-65,-229,107,-200,-136,4,107
170,39,-131,-104,151,-46,-239,107,-190,-126,14,117
170,43,-126,-107,148,-41,-244,97,-185,-122,14,126
170,53,-117,-112,143,-31,-248,97,-185,-117,19,136
170,63,-107,-117,139,-21,-248,92,-185,-112,24,136
151,63,-87,-107,119,-12,-248,78,-180,-122,29,136
151,63,-87,-107,119,-12,-248,78,-180,-112,34,136
146,63,-82,-104,114,-9,-248,78,-170,-107,43,141
146,68,-78,-107,112,-4,-239,78,-165,-92,53,141
146,68,-78,-107,112,-4,-234,82,-161,-82,68,146
136,82,-53,-109,95,14,-229,73,-146,-73,68,146
131,82,-48,-107,90,17,-224,68,-136,-68,68,146
126,82,-43,-104,85,19,-219,63,-131,-68,63,136
122,82,-39,-102,80,21,-209,53,-122,-63,63,141
107,82,-24,-95,65,29,-200,48,-122,-58,63,136
97,82,-14,-90,56,34,-195,48,-117,-53,68,122
92,78,-14,-85,53,31,-185,43,-102,-39,73,117
92,87,-4,-90,48,41,-170,48,-92,-29,82,117
82,78,-4,-80,43,36,-161,43,-82,-19,82,112
78,78,0,-78,39,39,-156,43,-73,-14,73,102
73,82,9,-78,31,46,-141,39,-68,-9,68,92
63,92,29,-78,17,61,-136,24,-58,4,63,82
58,82,24,-70,17,53,-126,19,-48,4,63,78
43,82,39,-63,2,61,-122,14,-48,9,63,68
39,78,39,-58,0,58,-112,14,-39,14,63,58
43,82,39,-63,2,61,-92,24,-29,24,63,68
39,82,43,-61,-2,63,-82,14,-24,29,58,68
34,78,43,-56,-4,61,-78,9,-14,29,53,58
19,73,53,-46,-17,63,-73,4,-14,24,43,53
24,73,48,-48,-12,61,-68,4,0,34,39,48
19,68,48,-43,-14,58,-63,0,0,34,34,39
19,68,48,-43,-14,58,-58,-4,0,34,34,39
14,63,48,-39,-17,56,-53,-4,0,34,34,39
14,58,43,-36,-14,51,-48,-14,0,34,43,39
9,53,43,-31,-17,48,-43,-14,4,34,43,39
9,53,43,-31,-17,48,-43,-14,9,34,43,34
4,53,48,-29,-21,51,-39,-14,9,34,34,34
-4,43,48,-19,-26,46,-48,-19,9,34,19,14
-4,39,43,-17,-24,41,-43,-19,9,29,19,9
-4,39,43,-17,-24,41,-39,-19,9,29,19,9
-4,39,43,-17,-24,41,-39,-19,9,29,19,9
-14,24,39,-4,-26,31,-39,-19,0,19,9,0
-14,24,39,-4,-26,31,-39,-19,0,19,9,0
-14,19,34,-2,-24,26,-39,-19,0,19,9,0
-19,14,34,2,-26,24,-39,-19,0,19,9,0
-19,14,34,2,-26,24,-48,-19,0,19,9,0
-24,14,39,4,-31,26,-48,-19,0,19,4,0
-24,14,39,4,-31,26,-48,-24,0,19,4,0
-24,14,39,4,-31,26,-48,-24,0,19,4,0
-24,14,39,4,-31,26,-39,-24,9,19,14,0
-24,14,39,4,-31,26,-39,-24,9,14,14,0
-24,14,39,4,-31,26,-39,-24,9,14,14,0
-24,14,39,4,-31,26,-39,-24,9,14,14,4
-14,24,39,-4,-26,31,-29,-24,19,14,24,19
-14,29,43,-7,-29,36,-29,-24,19,14,29,19
-9,29,39,-9,-24,34,-29,-24,19,19,29,19
-4,29,34,-12,-19,31,-29,-19,24,19,29,19
-4,39,43,-17,-24,41,-39,-9,24,29,29,19
-4,43,48,-19,-26,46,-39,-9,24,29,29,19
-4,43,48,-19,-26,46,-39,-9,24,29,29,19
-4,48,53,-21,-29,51,-39,-9,24,29,29,19
-4,43,48,-19,-26,46,-39,-9,14,29,34,19
-4,43,48,-19,-26,46,-43,-9,14,29,34,19
-4,43,48,-19,-26,46,-43,-9,14,29,34,19
-4,43,48,-19,-26,46,-43,-9,19,29,34,19
-4,43,48,-19,-26,46,-43,-9,19,29,34,29
-4,43,48,-19,-26,46,-43,-9,19,34,39,29
0,43,43,-21,-21,43,-43,-9,19,34,39,29
0,48,48,-24,-24,48,-43,-9,19,34,39,34
0,58,58,-29,-29,58,-34,-9,19,34,43,34
0,58,58,-29,-29,58,-34,-9,19,34,43,34
0,58,58,-29,-29,58,-34,-4,19,34,43,34
0,58,58,-29,-29,58,-34,-4,19,34,43,34
14,68,53,-41,-19,61,-34,0,19,39,43,39
14,68,53,-41,-19,61,-34,0,19,39,43,39
14,73,58,-43,-21,65,-34,0,19,39,43,39
14,73,58,-43,-21,65,-34,0,19,39,48,39
4,73,68,-39,-31,70,-34,-9,9,39,39,39
4,68,63,-36,-29,65,-34,-14,9,39,39,39
4,63,58,-34,-26,61,-34,-14,9,43,39,39
4,58,53,-31,-24,56,-29,-14,9,43,39,39
0,58,58,-29,-29,58,-29,-14,19,43,39,39
0,58,58,-29,-29,58,-29,-14,19,43,39,39
0,53,53,-26,-26,53,-34,-19,14,43,39,39
-4,53,58,-24,-31,56,-34,-19,14,43,39,39
-4,53,58,-24,-31,56,-29,-19,14,43,39,29
-14,43,58,-14,-36,51,-29,-19,14,43,39,24
-14,43,58,-14,-36,51,-39,-19,14,43,39,24
-19,39,58,-9,-39,48,-39,-19,9,48,39,19
-19,39,58,-9,-39,48,-39,-19,9,39,29,19
-19,39,58,-9,-39,48,-39,-19,9,39,29,19
-19,39,58,-9,-39,48,-39,-19,9,39,29,19
-19,39,58,-9,-39,48,-39,-19,9,39,29,19
-19,29,48,-4,-34,39,-39,-19,0,34,29,19
-19,29,48,-4,-34,39,-39,-24,4,34,29,14
-19,29,48,-4,-34,39,-39,-24,4,34,29,14
-24,29,53,-2,-39,41,-39,-24,4,34,29,14
-24,39,63,-7,-43,51,-34,-24,14,34,24,14
-24,39,63,-7,-43,51,-34,-24,14,34,24,14
-24,39,63,-7,-43,51,-34,-24,14,34,24,14
-19,43,63,-12,-41,53,-34,-24,19,39,24,14
-9,48,58,-19,-34,53,-34,-14,14,39,34,14
-9,53,63,-21,-36,58,-29,-14,19,39,39,14
-4,58,63,-26,-34,61,-29,-14,24,43,39,14
-4,63,68,-29,-36,65,-29,-14,29,43,39,19
-14,58,73,-21,-43,65,-29,-14,34,43,43,19
-14,58,73,-21,-43,65,-24,-9,39,48,43,19
-9,63,73,-26,-41,68,-24,-9,39,53,48,19
-9,68,78,-29,-43,73,-19,-9,39,53,48,24
-9,73,82,-31,-46,78,-19,-9,53,63,53,24
-9,73,82,-31,-46,78,-19,-9,53,68,53,24
-9,73,82,-31,-46,78,-19,-9,53,68,53,24
-9,73,82,-31,-46,78,-24,-9,53,68,53,24
0,82,82,-41,-41,82,-24,-9,53,68,53,24
4,82,78,-43,-36,80,-24,-9,53,68,53,24
4,82,78,-43,-36,80,-34,-9,53,68,53,24
14,87,73,-51,-29,80,-34,-9,58,68,53,24
14,107,92,-61,-39,100,-29,-9,58,73,58,29
19,107,87,-63,-34,97,-34,-9,58,73,58,39
24,112,87,-68,-31,100,-39,-9,53,73,63,39
29,112,82,-70,-26,97,-43,-9,53,73,68,43
43,112,68,-78,-12,90,-53,-19,43,73,68,53
43,117,73,-80,-14,95,-58,-19,43,73,68,53
48,122,73,-85,-12,97,-63,-19,39,73,68,58
48,122,73,-85,-12,97,-63,-24,39,73,68,58
39,112,73,-75,-17,92,-63,-24,34,73,68,48
39,112,73,-75,-17,92,-63,-29,29,68,68,53
34,112,78,-73,-21,95,-63,-34,29,63,68,53
29,102,73,-65,-21,87,-63,-34,24,63,68,53
14,92,78,-53,-31,85,-73,-34,24,58,58,39
14,82,68,-48,-26,75,-73,-34,19,53,48,29
9,78,68,-43,-29,73,-63,-34,14,48,43,29
9,63,53,-36,-21,58,-63,-34,9,43,39,24
9,58,48,-34,-19,53,-48,-34,14,39,43,29
9,53,43,-31,-17,48,-48,-34,14,34,39,19
9,43,34,-26,-12,39,-48,-34,9,34,34,14
4,34,29,-19,-12,31,-48,-34,4,29,29,14
14,39,24,-26,-4,31,-43,-24,9,24,29,9
14,34,19,-24,-2,26,-43,-24,9,19,24,4
9,29,19,-19,-4,24,-43,-24,4,19,19,0
9,29,19,-19,-4,24,-39,-24,4,14,19,0
19,29,9,-24,4,19,-39,-29,4,14,14,-4
9,24,14,-17,-2,19,-34,-29,4,14,9,-9
9,19,9,-14,0,14,-29,-29,4,9,9,-9
4,14,9,-9,-2,12,-29,-29,4,9,4,-14
-4,19,24,-7,-14,21,-24,-29,-4,9,9,-14
-9,14,24,-2,-17,19,-24,-34,-4,9,9,-14
-14,9,24,2,-19,17,-19,-34,-4,9,9,-14
-19,4,24,7,-21,14,-14,-34,-4,9,4,-24
-34,-9,24,21,-29,7,-14,-48,-4,9,-4,-24
-39,-9,29,24,-34,9,-14,-48,-4,4,-9,-29
-43,-14,29,29,-36,7,-14,-48,-4,4,-9,-34
-48,-24,24,36,-36,0,-14,-48,-4,0,-14,-39
-58,-29,29,43,-43,0,0,-53,-9,-9,-19,-43
-58,-34,24,46,-41,-4,0,-53,-9,-9,-19,-43
-58,-39,19,48,-39,-9,-4,-53,-14,-14,-24,-48
-58,-39,19,48,-39,-9,-4,-53,-14,-14,-24,-48
-58,-48,9,53,-34,-19,0,-53,-14,-14,-34,-58
-58,-53,4,56,-31,-24,0,-53,-14,-19,-34,-68
-58,-53,4,56,-31,-24,0,-53,-19,-19,-43,-68
-63,-58,4,61,-34,-26,0,-53,-19,-24,-43,-68
-63,-58,4,61,-34,-26,0,-53,-19,-14,-43,-68
-63,-58,4,61,-34,-26,4,-53,-19,-14,-43,-68
-63,-63,0,63,-31,-31,4,-53,-19,-14,-43,-68
-63,-63,0,63,-31,-31,4,-53,-24,-14,-43,-73
-63,-73,-9,68,-26,-41,4,-53,-24,-29,-43,-73
-63,-73,-9,68,-26,-41,4,-53,-24,-29,-43,-73
-63,-73,-9,68,-26,-41,4,-53,-19,-29,-48,-73
-63,-78,-14,70,-24,-46,4,-48,-19,-29,-48,-73
-68,-68,0,68,-34,-34,4,-48,-19,-24,-39,-73
-68,-68,0,68,-34,-34,4,-48,-19,-24,-39,-73
-68,-68,0,68,-34,-34,9,-48,-19,-24,-39,-73
-68,-63,4,65,-36,-29,9,-48,-19,-19,-39,-73
-53,-43,9,48,-31,-17,29,-39,-9,0,-34,-63
-53,-43,9,48,-31,-17,24,-48,-9,-4,-24,-63
-53,-48,4,51,-29,-21,24,-43,-9,-14,-34,-63
-68,-53,14,61,-41,-19,39,-43,-14,-14,-43,-73
-78,-78,0,78,-39,-39,43,-43,-14,-14,-58,-87
-87,-87,0,87,-43,-43,68,-43,4,-24,-68,-117
-97,-97,0,97,-48,-48,92,-43,24,-9,-87,-136
-92,-87,4,90,-48,-41,102,-29,39,4,-87,-141
-92,-82,9,87,-51,-36,102,-29,48,14,-82,-141
-87,-73,14,80,-51,-29,87,-34,39,24,-68,-131
-87,-39,48,63,-68,4,68,-48,39,43,-29,-102
-78,19,97,29,-87,58,43,-63,58,82,34,-53
-73,82,156,-4,-114,119,4,-87,82,131,92,0
-73,151,224,-39,-148,187,-9,-92,102,180,161,58
-68,214,283,-73,-175,248,-34,-92,126,244,234,112
-58,273,331,-107,-195,302,-63,-87,151,302,307,175
-34,336,370,-151,-202,353,-63,-63,165,356,385,239
14,380,366,-197,-175,373,-73,0,185,405,458,278
68,419,351,-244,-141,385,-87,53,185,439,517,326
122,444,322,-283,-100,383,-102,92,180,473,566,366
146,453,307,-300,-80,380,-122,102,175,483,595,395
151,463,312,-307,-80,387,-131,102,165,483,629,424
151,507,356,-329,-102,431,-161,78,175,488,653,488
131,561,429,-346,-148,495,-165,0,209,507,683,561
97,566,468,-331,-185,517,-165,-102,224,468,639,595
43,492,448,-268,-202,470,-141,-190,219,361,502,561
24,409,385,-217,-180,397,-117,-258,190,244,326,507
-24,336,361,-156,-192,348,-107,-326,180,151,214,458
-58,244,302,-92,-180,273,-73,-366,161,92,102,370
-82,82,165,0,-124,124,-14,-361,107,-24,-43,224
-92,-87,4,90,-48,-41,48,-317,39,-136,-170,63
-102,-229,-126,165,12,-178,87,-287,-14,-204,-273,-63
-141,-287,-146,214,2,-217,122,-278,-14,-195,-302,-156
-185,-331,-146,258,-19,-239,165,-263,4,-170,-331,-224
-209,-370,-161,290,-24,-265,204,-229,14,-180,-361,-283
-214,-414,-200,314,-7,-307,224,-195,-4,-190,-380,-341
-239,-463,-224,351,-7,-344,253,-156,4,-200,-405,-395
-253,-512,-258,383,2,-385,278,-131,4,-219,-434,-444
-258,-536,-278,397,9,-407,307,-92,-14,-229,-444,-463
-258,-546,-287,402,14,-417,346,-58,9,-214,-444,-463
-253,-527,-273,390,9,-400,395,-24,29,-185,-429,-463
-258,-512,-253,385,-2,-383,453,0,58,-156,-400,-453
-268,-492,-224,380,-21,-358,483,19,82,-131,-375,-444
-278,-448,-170,363,-53,-309,517,9,107,-107,-341,-429
-287,-400,-112,344,-87,-256,541,0,151,-68,-317,-395
-302,-361,-58,331,-122,-209,580,-14,200,-24,-273,-370
-312,-331,-19,322,-146,-175,624,-29,229,0,-253,-346
-326,-322,4,324,-165,-158,668,-29,244,9,-229,-336
-336,-331,4,334,-170,-163,712,-24,244,19,-219,-331
-356,-322,34,339,-195,-143,761,-29,268,29,-200,-317
-366,-322,43,344,-204,-139,824,-29,283,29,-209,-307
-366,-326,39,346,-202,-143,868,-29,273,24,-219,-317
-375,-346,29,361,-202,-158,922,-19,263,4,-224,-317
-395,-361,34,378,-214,-163,956,-19,258,0,-239,-326
-405,-380,24,392,-214,-178,980,-24,248,-19,-248,-326
-414,-390,24,402,-219,-183,980,-29,239,-39,-258,-336
-395,-390,4,392,-200,-192,932,-34,229,-43,-248,-336
-370,-361,9,366,-190,-175,854,-43,204,-53,-234,-307
-341,-331,9,336,-175,-161,736,-53,165,-53,-200,-273
-297,-292,4,295,-151,-143,614,-68,136,-53,-175,-229
-258,-244,14,251,-136,-114,478,-87,102,-43,-146,-185
-234,-214,19,224,-126,-97,366,-97,82,-53,-136,-161
-195,-195,0,195,-97,-97,292,-87,63,-53,-122,-136
-180,-170,9,175,-95,-80,234,-78,48,-63,-112,-126
-151,-151,0,151,-75,-75,185,-73,34,-53,-97,-117
-126,-126,0,126,-63,-63,141,-68,19,-58,-82,-102
-102,-117,-14,109,-43,-65,112,-58,4,-53,-68,-82
-87,-102,-14,95,-36,-58,82,-43,-4,-48,-48,-68
-73,-92,-19,82,-26,-56,63,-39,-9,-39,-43,-53
-58,-82,-24,70,-17,-53,48,-29,-19,-34,-34,-43
-53,-58,-4,56,-24,-31,29,-19,-14,-24,-34,-39
-39,-48,-9,43,-14,-29,14,-14,-19,-24,-39,-34
-29,-48,-19,39,-4,-34,9,-9,-34,-43,-39,-43
-29,-53,-24,41,-2,-39,-4,-9,-43,-43,-39,-43
-24,-53,-29,39,2,-41,-19,-4,-43,-43,-34,-43
-19,-53,-34,36,7,-43,-19,0,-48,-43,-24,-43
-9,-43,-34,26,12,-39,-19,9,-39,-34,-19,-34
0,-43,-43,21,21,-43,-24,4,-39,-29,-19,-29
9,-34,-43,12,26,-39,-29,4,-39,-29,-19,-29
19,-29,-48,4,34,-39,-29,9,-39,-29,-29,-29
19,-24,-43,2,31,-34,-29,9,-43,-34,-29,-29
19,-24,-43,2,31,-34,-29,14,-43,-34,-29,-29
24,-24,-48,0,36,-36,-29,14,-48,-34,-29,-29
24,-24,-48,0,36,-36,-34,14,-53,-34,-19,-29
29,-24,-53,-2,41,-39,-34,14,-63,-34,-19,-24
29,-29,-58,0,43,-43,-39,19,-63,-34,-19,-14
24,-34,-58,4,41,-46,-43,19,-63,-34,-19,-9
24,-43,-68,9,46,-56,-48,19,-63,-34,-29,-4
24,-34,-58,4,41,-46,-58,19,-63,-53,-34,-14
34,-34,-68,0,51,-51,-58,19,-68,-53,-34,-19
39,-29,-68,-4,53,-48,-58,29,-68,-53,-34,-19
39,-29,-68,-4,53,-48,-58,29,-68,-53,-24,-19
39,-39,-78,0,58,-58,-58,24,-73,-43,-24,-19
39,-39,-78,0,58,-58,-58,24,-73,-39,-24,-9
39,-39,-78,0,58,-58,-58,29,-73,-39,-24,-4
39,-29,-68,-4,53,-48,-58,29,-73,-39,-29,-4
43,-29,-73,-7,58,-51,-58,29,-63,-48,-34,-14
43,-39,-82,-2,63,-61,-68,29,-63,-58,-34,-24
43,-43,-87,0,65,-65,-73,29,-73,-63,-34,-24
43,-43,-87,0,65,-65,-82,29,-78,-63,-34,-24
39,-48,-87,4,63,-68,-92,34,-87,-58,-34,-14
39,-48,-87,4,63,-68,-87,39,-82,-58,-29,-4
39,-39,-78,0,58,-58,-82,39,-82,-53,-29,0
48,-34,-82,-7,65,-58,-82,39,-82,-53,-29,4
58,-24,-82,-17,70,-53,-82,43,-92,-63,-34,4
58,-19,-78,-19,68,-48,-92,43,-92,-63,-34,4
58,-19,-78,-19,68,-48,-97,43,-102,-73,-34,0
58,-29,-87,-14,73,-58,-102,48,-107,-73,-34,0
63,-34,-97,-14,80,-65,-92,53,-97,-63,-14,4
63,-34,-97,-14,80,-65,-92,53,-97,-63,-9,4
73,-29,-102,-21,87,-65,-92,58,-97,-63,-9,9
73,-29,-102,-21,87,-65,-92,58,-97,-58,-9,9
73,-24,-97,-24,85,-61,-97,58,-97,-58,-19,4
73,-24,-97,-24,85,-61,-107,58,-107,-68,-24,4
78,-19,-97,-29,87,-58,-107,58,-112,-73,-24,-4
78,-19,-97,-29,87,-58,-112,68,-117,-78,-24,-4
78,-19,-97,-29,87,-58,-112,63,-122,-87,-24,0
87,-19,-107,-34,97,-63,-112,68,-122,-82,-14,0
87,-19,-107,-34,97,-63,-112,73,-117,-82,-14,9
87,-19,-107,-34,97,-63,-117,73,-117,-82,-19,9
97,-19,-117,-39,107,-68,-122,82,-122,-78,-29,9
102,-19,-122,-41,112,-70,-126,82,-126,-82,-29,9
102,-19,-122,-41,112,-70,-131,87,-131,-87,-29,9
112,-19,-131,-46,122,-75,-136,87,-136,-92,-29,9
117,-9,-126,-53,122,-68,-131,97,-141,-97,-29,14
117,-14,-131,-51,124,-73,-131,97,-141,-102,-24,14
117,-14,-131,-51,124,-73,-131,97,-141,-102,-24,24
117,-14,-131,-51,124,-73,-136,102,-141,-102,-24,29
122,-4,-126,-58,124,-65,-141,102,-131,-92,-24,29
122,-4,-126,-58,124,-65,-141,102,-131,-92,-34,29
126,-4,-131,-61,129,-68,-146,102,-136,-102,-34,29
126,-4,-131,-61,129,-68,-151,102,-141,-107,-34,24
136,-14,-151,-61,143,-82,-165,107,-146,-112,-34,14
141,-14,-156,-63,148,-85,-170,107,-151,-112,-34,14
141,-14,-156,-63,148,-85,-170,107,-151,-112,-29,24
141,-14,-156,-63,148,-85,-175,107,-151,-112,-29,24
146,0,-146,-73,146,-73,-165,107,-156,-122,-34,39
151,0,-151,-75,151,-75,-170,107,-161,-126,-43,39
161,0,-161,-80,161,-80,-170,107,-161,-131,-43,39
165,0,-165,-82,165,-82,-170,107,-165,-136,-39,39
165,-4,-170,-80,168,-87,-190,107,-175,-141,-48,34
165,-4,-170,-80,168,-87,-195,107,-180,-141,-39,39
161,-9,-170,-75,165,-90,-200,107,-180,-136,-34,39
156,-9,-165,-73,161,-87,-204,107,-180,-136,-29,39
156,4,-151,-80,153,-73,-209,107,-180,-136,-39,53
156,14,-141,-85,148,-63,-209,107,-185,-136,-39,58
161,14,-146,-87,153,-65,-219,107,-185,-136,-39,63
161,19,-141,-90,151,-61,-229,97,-190,-141,-39,68
156,24,-131,-90,143,-53,-229,97,-190,-141,-19,73
156,24,-131,-90,143,-53,-239,97,-190,-141,-4,82
156,24,-131,-90,143,-53,-239,97,-190,-131,4,92
161,24,-136,-92,148,-56,-239,97,-190,-126,14,107
170,48,-122,-109,146,-36,-239,97,-180,-117,24,117
170,53,-117,-112,143,-31,-244,87,-175,-112,24,126
170,63,-107,-117,139,-21,-248,87,-175,-107,29,136
170,73,-97,-122,134,-12,-248,82,-175,-102,34,136
170,78,-92,-124,131,-7,-239,78,-161,-102,48,146
170,82,-87,-126,129,-2,-239,78,-161,-92,53,146
165,87,-78,-126,122,4,-239,78,-151,-87,63,151
165,97,-68,-131,117,14,-229,78,-146,-73,73,151
156,97,-58,-126,107,19,-234,73,-151,-73,68,146
146,112,-34,-129,90,39,-229,63,-136,-63,68,146
141,112,-29,-126,85,41,-224,58,-126,-58,68,146
136,112,-24,-124,80,43,-219,53,-122,-58,63,136
141,112,-29,-126,85,41,-209,63,-112,-43,73,141
126,112,-14,-119,70,48,-200,58,-112,-39,73,136
117,112,-4,-114,61,53,-195,58,-107,-34,78,122
112,107,-4,-109,58,51,-185,53,-92,-19,82,117
102,107,4,-104,48,56,-170,48,-82,-19,82,126
92,97,4,-95,43,51,-161,43,-73,-9,82,122
87,97,9,-92,39,53,-156,43,-63,-4,73,112
82,102,19,-92,31,61,-141,39,-58,0,68,102
73,102,29,-87,21,65,-136,34,-48,4,63,92
68,92,24,-80,21,58,-126,29,-39,4,63,87
53,92,39,-73,7,65,-122,24,-39,9,63,78
48,87,39,-68,4,63,-112,24,-29,14,63,68
53,92,39,-73,7,65,-92,24,-9,34,73,68
48,92,43,-70,2,68,-82,14,-4,39,68,68
43,87,43,-65,0,65,-78,9,4,39,63,58
29,82,53,-56,-12,68,-73,4,4,34,53,53
14,63,48,-39,-17,56,-78,-4,0,34,48,29
9,58,48,-34,-19,53,-73,-9,0,34,43,19
9,58,48,-34,-19,53,-68,-14,0,34,43,19
4,53,48,-29,-21,51,-63,-14,0,34,43,19
4,48,43,-26,-19,46,-58,-14,0,34,43,29
0,43,43,-21,-21,43,-53,-14,4,34,43,29
0,43,43,-21,-21,43,-53,-14,9,34,43,24
-4,43,48,-19,-26,46,-48,-14,9,34,34,24
-14,34,48,-9,-31,41,-48,-19,0,24,29,14
-14,29,43,-7,-29,36,-43,-19,0,19,29,9
-14,29,43,-7,-29,36,-39,-19,0,19,29,9
-14,29,43,-7,-29,36,-39,-19,0,19,29,9
-14,34,48,-9,-31,41,-39,-19,9,19,19,9
-14,34,48,-9,-31,41,-39,-19,9,19,19,9
-14,29,43,-7,-29,36,-39,-19,9,19,19,9
-19,24,43,-2,-31,34,-39,-19,9,19,19,9
-14,34,48,-9,-31,41,-39,-19,9,19,19,9
-14,34,48,-9,-31,41,-39,-19,9,19,14,9
-9,34,43,-12,-26,39,-39,-24,9,19,14,9
-4,34,39,-14,-21,36,-39,-24,9,19,14,9
-14,34,48,-9,-31,41,-39,-24,9,19,14,0
-14,34,48,-9,-31,41,-39,-24,9,14,14,0
-14,34,48,-9,-31,41,-39,-24,9,14,14,0
-14,34,48,-9,-31,41,-39,-24,9,14,14,4
-4,34,39,-14,-21,36,-39,-14,9,24,24,9
-4,39,43,-17,-24,41,-39,-14,9,24,29,9
0,39,39,-19,-19,39,-39,-14,9,29,29,9
4,39,34,-21,-14,36,-39,-9,14,29,29,9
4,53,48,-29,-21,51,-39,-19,14,29,29,19
4,53,48,-29,-21,51,-39,-19,14,29,29,19
4,48,43,-26,-19,46,-39,-19,14,29,29,19
4,48,43,-26,-19,46,-39,-19,14,29,29,19
4,43,39,-24,-17,41,-39,-19,4,19,24,19
4,43,39,-24,-17,41,-43,-19,4,19,24,19
4,43,39,-24,-17,41,-43,-19,4,19,24,19
4,43,39,-24,-17,41,-43,-19,9,19,24,19
-4,43,48,-19,-26,46,-43,-19,9,19,24,19
-4,43,48,-19,-26,46,-43,-19,9,24,29,19
0,43,43,-21,-21,43,-43,-19,9,24,29,19
0,48,48,-24,-24,48,-43,-19,9,24,29,24
0,48,48,-24,-24,48,-43,-19,9,34,34,24
0,48,48,-24,-24,48,-43,-19,9,34,34,24
0,48,48,-24,-24,48,-43,-14,9,34,34,24
0,48,48,-24,-24,48,-43,-14,9,34,34,24
14,58,43,-36,-14,51,-34,-9,9,39,43,39
14,58,43,-36,-14,51,-34,-9,9,39,43,39
14,63,48,-39,-17,56,-34,-9,9,39,43,39
14,63,48,-39,-17,56,-34,-9,9,39,48,39
4,58,53,-31,-24,56,-43,-19,9,29,48,29
4,58,53,-31,-24,56,-43,-24,9,29,48,29
4,58,53,-31,-24,56,-43,-24,9,34,48,29
4,58,53,-31,-24,56,-39,-24,9,34,48,29
0,58,58,-29,-29,58,-39,-24,9,34,39,29
0,58,58,-29,-29,58,-39,-24,9,34,39,29
0,53,53,-26,-26,53,-43,-29,4,34,39,29
-4,53,58,-24,-31,56,-43,-29,4,34,39,29
4,63,58,-34,-26,61,-39,-19,4,34,39,29
4,63,58,-34,-26,61,-39,-19,4,34,39,24
4,63,58,-34,-26,61,-39,-19,4,34,39,24
0,58,58,-29,-29,58,-39,-19,4,34,39,24
0,68,68,-34,-34,68,-39,-19,4,34,43,34
0,63,63,-31,-31,63,-39,-19,4,34,43,34
-9,58,68,-24,-39,63,-39,-19,9,39,48,39
-9,58,68,-24,-39,63,-39,-19,9,29,39,29
-9,58,68,-24,-39,63,-39,-19,9,29,39,29
-9,58,68,-24,-39,63,-39,-19,9,29,39,29
-9,58,68,-24,-39,63,-39,-19,9,29,39,29
-9,48,58,-19,-34,53,-29,-19,9,34,39,19
-9,48,58,-19,-34,53,-29,-24,14,34,39,14
-9,48,58,-19,-34,53,-29,-24,14,34,39,14
-14,48,63,-17,-39,56,-29,-24,14,34,39,14
-14,39,53,-12,-34,46,-34,-24,4,24,34,14
-14,39,53,-12,-34,46,-34,-24,4,24,34,14
-14,39,53,-12,-34,46,-34,-24,4,24,34,14
-9,43,53,-17,-31,48,-34,-24,9,29,34,14
0,48,48,-24,-24,48,-24,-24,14,29,34,4
0,53,53,-26,-26,53,-19,-24,19,29,39,4
4,58,53,-31,-24,56,-19,-24,24,34,39,4
4,63,58,-34,-26,61,-19,-24,29,34,39,9
4,68,63,-36,-29,65,-19,-34,24,43,43,19
4,68,63,-36,-29,65,-14,-29,29,48,43,19
9,73,63,-41,-26,68,-14,-29,29,53,48,19
9,78,68,-43,-29,73,-9,-29,29,53,48,24
9,82,73,-46,-31,78,-19,-19,34,53,53,24
9,82,73,-46,-31,78,-19,-19,34,58,53,24
9,82,73,-46,-31,78,-19,-19,34,58,53,24
9,82,73,-46,-31,78,-24,-19,34,58,53,24
9,82,73,-46,-31,78,-24,-19,34,58,53,24
14,82,68,-48,-26,75,-24,-19,34,58,53,24
14,82,68,-48,-26,75,-34,-19,34,58,53,24
24,87,63,-56,-19,75,-34,-19,39,58,53,24
14,97,82,-56,-34,90,-39,-19,39,63,48,29
19,97,78,-58,-29,87,-43,-19,39,63,48,39
24,102,78,-63,-26,90,-48,-19,34,63,53,39
29,102,73,-65,-21,87,-53,-19,34,63,58,43
43,107,63,-75,-9,85,-53,-19,43,63,58,43
43,117,73,-80,-14,95,-58,-19,43,63,58,43
48,126,78,-87,-14,102,-63,-19,39,63,58,48
48,131,82,-90,-17,107,-63,-24,39,63,58,48
39,122,82,-80,-21,102,-73,-24,34,63,68,48
39,122,82,-80,-21,102,-73,-29,29,58,68,53
34,122,87,-78,-26,104,-73,-34,29,53,68,53
29,112,82,-70,-26,97,-73,-34,24,53,68,53
24,102,78,-63,-26,90,-73,-43,24,48,58,48
24,92,68,-58,-21,80,-73,-43,19,43,48,39
19,87,68,-53,-24,78,-63,-43,14,39,43,39
19,73,53,-46,-17,63,-63,-43,9,34,39,34
9,68,58,-39,-24,63,-58,-43,4,29,43,29
9,63,53,-36,-21,58,-58,-43,4,24,39,19
9,53,43,-31,-17,48,-58,-43,0,24,34,14
4,43,39,-24,-17,41,-58,-43,-4,19,29,14
14,39,24,-26,-4,31,-53,-43,-19,14,19,9
14,34,19,-24,-2,26,-53,-43,-19,9,14,4
9,29,19,-19,-4,24,-53,-43,-24,9,9,0
9,29,19,-19,-4,24,-48,-43,-24,4,9,0
9,29,19,-19,-4,24,-48,-39,-24,4,4,-4
0,24,24,-12,-12,24,-43,-39,-24,4,0,-9
0,19,19,-9,-9,19,-39,-39,-24,0,0,-9
-4,14,19,-4,-12,17,-39,-39,-24,0,-4,-14
-14,9,24,2,-19,17,-34,-39,-14,0,-9,-14
-19,4,24,7,-21,14,-34,-43,-14,0,-9,-14
-24,0,24,12,-24,12,-29,-43,-14,0,-9,-14
-29,-4,24,17,-26,9,-24,-43,-14,0,-14,-24
-24,-9,14,17,-19,2,-19,-39,-14,9,-4,-24
-29,-9,19,19,-24,4,-14,-39,-14,4,-9,-29
-34,-14,19,24,-26,2,-9,-39,-14,4,-9,-34
-39,-24,14,31,-26,-4,-4,-39,-14,0,-14,-39
-39,-29,9,34,-24,-9,0,-43,-19,0,-19,-34
-39,-34,4,36,-21,-14,0,-43,-19,0,-19,-34
-39,-39,0,39,-19,-19,-4,-43,-24,-4,-24,-39
-39,-39,0,39,-19,-19,-4,-43,-24,-4,-24,-39
-48,-48,0,48,-24,-24,0,-43,-24,-14,-24,-39
-48,-53,-4,51,-21,-29,0,-43,-24,-19,-24,-48
-48,-53,-4,51,-21,-29,0,-43,-29,-19,-34,-48
-53,-58,-4,56,-24,-31,0,-43,-29,-24,-34,-48
-53,-58,-4,56,-24,-31,-9,-43,-39,-24,-34,-58
-53,-58,-4,56,-24,-31,-4,-43,-39,-24,-34,-58
-53,-63,-9,58,-21,-36,-4,-43,-39,-24,-34,-58
-53,-63,-9,58,-21,-36,-4,-43,-43,-24,-34,-63
-63,-63,0,63,-31,-31,4,-43,-34,-29,-34,-63
-63,-63,0,63,-31,-31,4,-43,-34,-29,-34,-63
-63,-63,0,63,-31,-31,4,-43,-29,-29,-39,-63
-63,-68,-4,65,-29,-36,4,-39,-29,-29,-39,-63
-68,-68,0,68,-34,-34,4,-48,-39,-34,-48,-63
-68,-68,0,68,-34,-34,4,-48,-39,-34,-48,-63
-68,-68,0,68,-34,-34,9,-48,-39,-34,-48,-63
-68,-63,4,65,-36,-29,9,-48,-39,-29,-48,-63
-63,-63,0,63,-31,-31,9,-48,-29,-19,-34,-63
-73,-63,9,68,-41,-26,4,-48,-29,-24,-34,-63
-73,-68,4,70,-39,-31,4,-53,-29,-24,-43,-63
-87,-73,14,80,-51,-29,9,-53,-24,-24,-43,-73
-87,-87,0,87,-43,-43,24,-53,-14,-24,-48,-87
-97,-87,9,92,-53,-39,48,-43,4,-14,-68,-107
-97,-87,9,92,-53,-39,82,-43,24,0,-78,-117
-102,-78,24,90,-63,-26,92,-39,39,4,-68,-122
-92,-63,29,78,-61,-17,92,-39,39,24,-63,-112
-87,-53,34,70,-61,-9,68,-34,39,34,-39,-102
-78,-9,68,43,-73,29,48,-58,48,63,0,-82
-78,58,136,9,-107,97,24,-82,58,112,63,-34
-63,131,195,-34,-129,163,4,-87,82,170,131,29
-53,209,263,-78,-158,236,-19,-102,112,229,209,87
-48,263,312,-107,-180,287,-43,-102,136,273,283,151
-39,322,361,-141,-200,341,-73,-97,151,331,356,224
-14,375,390,-180,-202,383,-82,-73,165,385,434,268
34,429,395,-231,-180,412,-92,-19,175,434,497,307
87,458,370,-273,-141,414,-107,34,175,468,556,356
131,483,351,-307,-109,417,-131,73,170,483,605,395
146,483,336,-314,-95,409,-141,82,165,492,624,424
161,483,322,-322,-80,402,-151,82,156,492,639,453
161,517,356,-339,-97,436,-170,48,165,497,663,507
141,551,409,-346,-134,480,-175,-19,190,497,673,561
97,536,439,-317,-170,488,-165,-122,204,448,600,575
53,453,400,-253,-173,427,-141,-200,190,331,453,531
14,351,336,-183,-161,344,-107,-248,161,214,278,458
-14,268,283,-126,-148,275,-78,-297,151,122,146,390
-48,156,204,-53,-126,180,-34,-326,122,43,24,292
-73,-24,48,48,-61,12,34,-312,68,-82,-131,117
-82,-224,-141,153,29,-183,87,-258,-19,-214,-287,-53
-102,-366,-263,234,80,-314,126,-229,-63,-283,-380,-190
-141,-444,-302,292,80,-373,161,-200,-63,-283,-429,-292
-175,-497,-322,336,73,-409,204,-185,-53,-268,-458,-380
-190,-536,-346,363,78,-441,234,-151,-53,-268,-488,-439
-195,-561,-366,378,85,-463,263,-117,-53,-278,-507,-478
-209,-600,-390,405,90,-495,292,-87,-43,-287,-522,-522
-234,-639,-405,436,85,-522,326,-63,-53,-307,-541,-561
-229,-653,-424,441,97,-539,356,-34,-53,-307,-551,-561
-239,-653,-414,446,87,-534,385,0,-48,-292,-541,-561
-244,-634,-390,439,73,-512,434,24,-19,-263,-517,-551
-248,-600,-351,424,51,-475,473,39,19,-234,-488,-531
-258,-570,-312,414,26,-441,502,48,43,-200,-453,-512
-268,-517,-248,392,-9,-383,536,39,87,-165,-409,-488
-287,-458,-170,373,-58,-314,570,29,141,-107,-356,-444
-302,-400,-97,351,-102,-248,610,4,180,-63,-312,-400
-312,-370,-58,341,-126,-214,644,-19,219,-48,-292,-366
-336,-370,-34,353,-151,-202,688,-19,234,-39,-268,-356
-356,-380,-24,368,-165,-202,722,-24,224,-39,-268,-341
-375,-370,4,373,-190,-183,771,-39,239,-19,-248,-336
-385,-361,24,373,-204,-168,824,-39,253,-19,-239,-326
-395,-366,29,380,-212,-168,858,-39,244,-24,-239,-317
-395,-375,19,385,-207,-178,893,-29,234,-34,-244,-317
-405,-390,14,397,-209,-187,927,-39,229,-48,-248,-317
-414,-400,14,407,-214,-192,941,-43,219,-48,-258,-326
-405,-390,14,397,-209,-187,932,-39,200,-68,-268,-336
-395,-380,14,387,-204,-183,883,-53,190,-73,-258,-317
-370,-351,19,361,-195,-165,785,-63,175,-73,-234,-297
-331,-312,19,322,-175,-146,668,-73,136,-82,-200,-253
-287,-273,14,280,-151,-129,536,-78,107,-73,-165,-219
-248,-224,24,236,-136,-100,409,-87,82,-53,-126,-165
-214,-175,39,195,-126,-68,307,-97,63,-53,-107,-141
-175,-156,19,165,-97,-68,244,-78,43,-53,-102,-126
-151,-141,9,146,-80,-65,195,-78,29,-63,-92,-107
-131,-112,19,122,-75,-46,156,-63,14,-63,-87,-97
-117,-107,9,112,-63,-48,122,-58,9,-58,-82,-82
-82,-87,-4,85,-39,-46,92,-48,-14,-53,-58,-63
-58,-73,-14,65,-21,-43,73,-24,-14,-48,-39,-48
-43,-53,-9,48,-17,-31,63,-19,-19,-39,-24,-24
-29,-34,-4,31,-12,-19,48,0,-19,-34,-24,-14
-14,-29,-14,21,0,-21,39,0,-14,-24,-14,0
-9,-19,-9,14,0,-14,14,4,-19,-34,-19,4
-9,-24,-14,17,2,-19,0,0,-29,-53,-24,0
-9,-34,-24,21,7,-29,-14,0,-43,-53,-29,-4
-4,-39,-34,21,14,-36,-29,4,-48,-53,-29,-9
0,-43,-43,21,21,-43,-29,9,-58,-53,-24,-14
-4,-53,-48,29,21,-51,-29,9,-58,-53,-19,-4
0,-53,-53,26,26,-53,-34,4,-58,-48,-19,0
4,-43,-48,19,26,-46,-39,4,-58,-48,-19,0
9,-39,-48,14,29,-43,-39,9,-58,-48,-29,0
0,-39,-39,19,19,-39,-48,0,-63,-53,-29,-4
0,-43,-43,21,21,-43,-48,4,-63,-53,-29,-9
4,-48,-53,21,29,-51,-48,4,-68,-53,-29,-14
4,-53,-58,24,31,-56,-53,4,-73,-53,-19,-19
9,-48,-58,19,34,-53,-48,14,-73,-43,-9,-14
9,-48,-58,19,34,-53,-48,19,-73,-43,-9,-4
4,-48,-53,21,29,-51,-48,19,-73,-43,-9,0
4,-53,-58,24,31,-56,-48,19,-73,-43,-19,4
14,-39,-53,12,34,-46,-48,19,-63,-53,-24,4
24,-34,-58,4,41,-46,-48,19,-68,-53,-24,0
29,-24,-53,-2,41,-39,-48,29,-68,-53,-24,0
29,-19,-48,-4,39,-34,-48,29,-68,-53,-14,0
29,-29,-58,0,43,-43,-48,24,-73,-53,-4,0
29,-29,-58,0,43,-43,-48,24,-73,-48,-4,9
29,-29,-58,0,43,-43,-48,29,-73,-48,-4,14
29,-19,-48,-4,39,-34,-48,29,-73,-48,-9,14
34,-19,-53,-7,43,-36,-58,19,-73,-48,-14,14
34,-29,-63,-2,48,-46,-68,19,-73,-58,-14,4
34,-34,-68,0,51,-51,-73,19,-82,-63,-14,4
34,-34,-68,0,51,-51,-82,19,-87,-63,-14,4
39,-29,-68,-4,53,-48,-82,24,-87,-58,-4,4
39,-29,-68,-4,53,-48,-78,29,-82,-58,0,14
39,-19,-58,-9,48,-39,-73,29,-82,-53,0,19
48,-14,-63,-17,56,-39,-73,29,-82,-53,0,24
58,-4,-63,-26,61,-34,-63,34,-73,-53,-9,24
58,0,-58,-29,58,-29,-73,34,-73,-53,-14,24
58,0,-58,-29,58,-29,-78,34,-82,-63,-19,19
58,-9,-68,-24,63,-39,-82,39,-87,-63,-24,19
63,-14,-78,-24,70,-46,-82,53,-87,-63,-4,24
63,-14,-78,-24,70,-46,-82,53,-87,-63,0,24
73,-9,-82,-31,78,-46,-82,58,-87,-63,0,29
73,-9,-82,-31,78,-46,-82,58,-87,-58,0,29
73,-4,-78,-34,75,-41,-87,58,-87,-48,-9,34
73,-4,-78,-34,75,-41,-97,58,-97,-58,-14,34
78,0,-78,-39,78,-39,-97,58,-102,-63,-14,24
78,0,-78,-39,78,-39,-102,68,-107,-68,-14,24
97,9,-87,-53,92,-39,-112,73,-102,-68,-14,39
107,9,-97,-58,102,-43,-112,78,-102,-63,-4,39
107,9,-97,-58,102,-43,-112,82,-97,-63,-4,48
107,9,-97,-58,102,-43,-117,82,-97,-63,-9,48
107,9,-97,-58,102,-43,-122,82,-112,-78,-19,48
112,9,-102,-61,107,-46,-126,82,-117,-82,-19,48
112,9,-102,-61,107,-46,-131,87,-122,-87,-19,48
122,9,-112,-65,117,-51,-136,87,-126,-92,-19,48
126,9,-117,-68,122,-53,-141,97,-131,-87,-9,43
126,4,-122,-65,124,-58,-141,97,-131,-92,-4,43
126,4,-122,-65,124,-58,-141,97,-131,-92,-4,53
126,4,-122,-65,124,-58,-146,102,-131,-92,-4,58
122,-4,-126,-58,124,-65,-141,92,-141,-102,-4,48
122,-4,-126,-58,124,-65,-141,92,-141,-102,-14,48
126,-4,-131,-61,129,-68,-146,92,-146,-112,-14,48
126,-4,-131,-61,129,-68,-151,92,-151,-117,-14,43
126,-4,-131,-61,129,-68,-156,97,-156,-122,-24,43
131,-4,-136,-63,134,-70,-161,97,-161,-122,-24,43
131,-4,-136,-63,134,-70,-161,97,-161,-122,-19,53
131,-4,-136,-63,134,-70,-165,97,-161,-122,-19,53
131,0,-131,-65,131,-65,-175,97,-165,-122,-24,58
131,0,-131,-65,131,-65,-180,97,-170,-126,-34,58
136,0,-136,-68,136,-68,-180,97,-170,-131,-34,58
136,0,-136,-68,136,-68,-180,97,-175,-136,-29,58
151,9,-141,-80,146,-65,-180,97,-175,-131,-19,58
156,14,-141,-85,148,-63,-185,97,-180,-131,-9,68
156,14,-141,-85,148,-63,-190,97,-180,-126,-4,73
156,19,-136,-87,146,-58,-195,97,-180,-126,0,78
156,34,-122,-95,139,-43,-200,97,-170,-117,0,92
156,43,-112,-100,134,-34,-200,97,-175,-117,0,97
161,43,-117,-102,139,-36,-209,97,-175,-117,0,102
161,48,-112,-104,136,-31,-219,87,-180,-122,0,107
165,48,-117,-107,141,-34,-229,87,-180,-131,9,102
165,53,-112,-109,139,-29,-239,87,-180,-131,24,112
165,58,-107,-112,136,-24,-239,87,-180,-122,34,122
170,63,-107,-117,139,-21,-239,87,-180,-117,43,136
170,87,-82,-129,126,2,-239,87,-180,-107,43,146
170,92,-78,-131,124,7,-244,78,-175,-102,43,156
170,102,-68,-136,119,17,-248,78,-175,-97,48,165
170,112,-58,-141,114,26,-248,73,-175,-92,53,165
161,122,-39,-141,100,41,-239,68,-161,-92,68,165
161,122,-39,-141,100,41,-239,68,-161,-82,73,165
156,122,-34,-139,95,43,-239,68,-151,-78,82,170
156,126,-29,-141,92,48,-229,68,-146,-63,92,170
156,117,-39,-136,97,39,-214,73,-141,-53,97,175
146,131,-14,-139,80,58,-209,63,-126,-43,97,175
141,131,-9,-136,75,61,-204,58,-117,-39,97,175
136,131,-4,-134,70,63,-200,53,-112,-39,92,165
131,122,-9,-126,70,56,-190,53,-102,-34,82,151
117,122,4,-119,56,63,-180,48,-102,-29,82,146
107,122,14,-114,46,68,-175,48,-97,-24,87,131
102,117,14,-109,43,65,-165,43,-82,-9,92,126
82,107,24,-95,29,65,-161,29,-82,-9,82,117
73,97,24,-85,24,61,-151,24,-73,0,82,112
68,97,29,-82,19,63,-146,24,-63,4,73,102
63,102,39,-82,12,70,-131,19,-58,9,68,92
63,102,39,-82,12,70,-126,14,-39,14,63,82
58,92,34,-75,12,63,-117,9,-29,14,63,78
43,92,48,-68,-2,70,-112,4,-29,19,63,68
39,87,48,-63,-4,68,-102,4,-19,24,63,58
34,82,48,-58,-7,65,-102,4,-19,34,63,68
29,82,53,-56,-12,68,-92,-4,-14,39,58,68
24,78,53,-51,-14,65,-87,-9,-4,39,53,58
9,73,63,-41,-26,68,-82,-14,-4,34,43,53
14,63,48,-39,-17,56,-78,-14,9,24,29,39
9,58,48,-34,-19,53,-73,-19,9,24,24,29
9,58,48,-34,-19,53,-68,-24,9,24,24,29
4,53,48,-29,-21,51,-63,-24,9,24,24,29
4,48,43,-26,-19,46,-48,-24,9,34,34,29
0,43,43,-21,-21,43,-43,-24,14,34,34,29
0,43,43,-21,-21,43,-43,-24,19,34,34,24
-4,43,48,-19,-26,46,-39,-24,19,34,24,24
-14,43,58,-14,-36,51,-39,-29,19,34,19,14
-14,39,53,-12,-34,46,-34,-29,19,29,19,9
-14,39,53,-12,-34,46,-29,-29,19,29,19,9
-14,39,53,-12,-34,46,-29,-29,19,29,19,9
-14,34,48,-9,-31,41,-29,-29,9,29,9,0
-14,34,48,-9,-31,41,-29,-29,9,29,9,0
-14,29,43,-7,-29,36,-29,-29,9,29,9,0
-19,24,43,-2,-31,34,-29,-29,9,29,9,0
-14,34,48,-9,-31,41,-19,-29,19,29,19,0
-14,34,48,-9,-31,41,-19,-29,19,29,14,0
-9,34,43,-12,-26,39,-19,-34,19,29,14,0
-4,34,39,-14,-21,36,-19,-34,19,29,14,0
4,43,39,-24,-17,41,-19,-24,19,29,14,9
4,43,39,-24,-17,41,-19,-24,19,24,14,9
4,43,39,-24,-17,41,-19,-24,19,24,14,9
4,43,39,-24,-17,41,-19,-24,19,24,14,14
-4,39,43,-17,-24,41,-29,-24,9,24,14,19
-4,39,43,-17,-24,41,-29,-24,9,24,19,19
0,34,34,-17,-17,34,-29,-24,9,29,19,19
4,29,24,-17,-9,26,-29,-19,14,29,19,19
-4,34,39,-14,-21,36,-39,-19,14,19,9,19
-4,34,39,-14,-21,36,-39,-19,14,19,9,19
-4,29,34,-12,-19,31,-39,-19,14,19,9,19
-4,29,34,-12,-19,31,-39,-19,14,19,9,19
-4,34,39,-14,-21,36,-48,-19,14,19,14,19
-4,34,39,-14,-21,36,-53,-19,14,19,14,19
-4,34,39,-14,-21,36,-53,-19,14,19,14,19
-4,34,39,-14,-21,36,-53,-19,19,19,14,19
4,43,39,-24,-17,41,-43,-19,19,29,24,19
4,43,39,-24,-17,41,-43,-19,19,34,29,19
9,43,34,-26,-12,39,-43,-19,19,34,29,19
9,48,39,-29,-14,43,-43,-19,19,34,29,24
0,39,39,-19,-19,39,-43,-19,19,34,24,24
0,39,39,-19,-19,39,-43,-19,19,34,24,24
0,39,39,-19,-19,39,-43,-14,19,34,24,24
0,39,39,-19,-19,39,-43,-14,19,34,24,24
-4,39,43,-17,-24,41,-43,-19,9,29,24,29
-4,39,43,-17,-24,41,-43,-19,9,29,24,29
-4,43,48,-19,-26,46,-43,-19,9,29,24,29
-4,43,48,-19,-26,46,-43,-19,9,29,29,29
4,39,34,-21,-14,36,-43,-19,19,39,29,29
4,39,34,-21,-14,36,-43,-24,19,39,29,29
4,39,34,-21,-14,36,-43,-24,19,43,29,29
4,39,34,-21,-14,36,-39,-24,19,43,29,29
9,43,34,-26,-12,39,-39,-14,19,43,29,19
9,48,39,-29,-14,43,-39,-14,19,43,29,19
9,48,39,-29,-14,43,-43,-19,14,43,29,19
4,53,48,-29,-21,51,-43,-19,14,43,29,19
14,63,48,-39,-17,56,-29,-19,24,43,39,19
4,53,48,-29,-21,51,-39,-19,24,43,39,24
4,53,48,-29,-21,51,-39,-19,24,43,29,14
0,48,48,-24,-24,48,-39,-19,19,39,29,19
-9,39,48,-14,-29,43,-48,-29,19,29,19,9
-9,39,48,-14,-29,43,-48,-29,19,29,19,9
-9,39,48,-14,-29,43,-48,-29,19,29,19,9
-9,39,48,-14,-29,43,-48,-29,19,29,19,9
-19,29,48,-4,-34,39,-48,-29,9,24,19,9
-19,29,48,-4,-34,39,-48,-34,14,24,19,4
-19,29,48,-4,-34,39,-48,-34,14,24,19,4
-24,29,53,-2,-39,41,-48,-34,14,24,19,4
-14,29,43,-7,-29,36,-43,-24,14,24,14,4
-14,29,43,-7,-29,36,-43,-24,14,24,14,4
-14,29,43,-7,-29,36,-43,-24,14,24,14,4
-9,34,43,-12,-26,39,-43,-24,19,29,14,4
0,48,48,-24,-24,48,-34,-24,24,39,14,14
0,53,53,-26,-26,53,-29,-24,29,39,19,14
4,58,53,-31,-24,56,-29,-24,34,43,19,14
4,63,58,-34,-26,61,-29,-24,39,43,19,19
4,78,73,-41,-34,75,-29,-24,43,53,34,19
4,78,73,-41,-34,75,-24,-19,48,58,34,19
9,82,73,-46,-31,78,-24,-19,48,63,39,19
9,87,78,-48,-34,82,-19,-19,48,63,39,24
9,102,92,-56,-41,97,-19,-19,53,63,43,24
9,102,92,-56,-41,97,-19,-19,53,68,43,24
9,102,92,-56,-41,97,-19,-19,53,68,43,24
9,102,92,-56,-41,97,-24,-19,53,68,43,24
19,102,82,-61,-31,92,-14,-9,63,78,53,24
24,102,78,-63,-26,90,-14,-9,63,78,53,24
24,102,78,-63,-26,90,-24,-9,63,78,53,24
34,107,73,-70,-19,90,-24,-9,68,78,53,24
24,107,82,-65,-29,95,-29,-19,58,73,48,29
29,107,78,-68,-24,92,-34,-19,58,73,48,39
34,112,78,-73,-21,95,-39,-19,53,73,53,39
39,112,73,-75,-17,92,-43,-19,53,73,58,43
39,107,68,-73,-14,87,-63,-29,53,63,58,34
34,107,73,-70,-19,90,-68,-29,53,63,58,34
34,107,73,-70,-19,90,-73,-29,48,63,58,39
29,102,73,-65,-21,87,-73,-34,48,63,58,39
19,92,73,-56,-26,82,-82,-34,34,63,58,39
19,92,73,-56,-26,82,-82,-39,29,58,58,43
14,92,78,-53,-31,85,-82,-43,29,53,58,43
9,82,73,-46,-31,78,-82,-43,24,53,58,43
14,92,78,-53,-31,85,-73,-43,34,58,58,39
14,82,68,-48,-26,75,-73,-43,29,53,48,29
9,78,68,-43,-29,73,-63,-43,24,48,43,29
9,63,53,-36,-21,58,-63,-43,19,43,39,24
9,68,58,-39,-24,63,-58,-43,14,39,34,19
9,63,53,-36,-21,58,-58,-43,14,34,29,9
9,53,43,-31,-17,48,-58,-43,9,34,24,4
4,43,39,-24,-17,41,-58,-43,4,29,19,4
14,39,24,-26,-4,31,-53,-43,0,24,19,0
14,34,19,-24,-2,26,-53,-43,0,19,14,-4
9,29,19,-19,-4,24,-53,-43,-4,19,9,-9
9,29,19,-19,-4,24,-48,-43,-4,14,9,-9
9,19,9,-14,0,14,-48,-39,-14,14,4,-14
0,14,14,-7,-7,14,-43,-39,-14,14,0,-19
0,9,9,-4,-4,9,-39,-39,-14,9,0,-19
-4,4,9,0,-7,7,-39,-39,-14,9,-4,-24
-4,9,14,-2,-9,12,-24,-29,-4,0,-9,-14
-9,4,14,2,-12,9,-24,-34,-4,0,-9,-14
-14,0,14,7,-14,7,-19,-34,-4,0,-9,-14
-19,-4,14,12,-17,4,-14,-34,-4,0,-14,-24
-34,-19,14,26,-24,-2,-19,-48,-14,0,-14,-24
-39,-19,19,29,-29,0,-14,-48,-14,-4,-19,-29
-43,-24,19,34,-31,-2,-9,-48,-14,-4,-19,-34
-48,-34,14,41,-31,-9,-4,-48,-14,-9,-24,-39
-48,-39,9,43,-29,-14,0,-43,-19,-9,-39,-53
-48,-43,4,46,-26,-19,0,-43,-19,-9,-39,-53
-48,-48,0,48,-24,-24,-4,-43,-24,-14,-43,-58
-48,-48,0,48,-24,-24,-4,-43,-24,-14,-43,-58
-58,-58,0,58,-29,-29,9,-43,-24,-14,-43,-58
-58,-63,-4,61,-26,-34,9,-43,-24,-19,-43,-68
-58,-63,-4,61,-26,-34,9,-43,-29,-19,-53,-68
-63,-68,-4,65,-29,-36,9,-43,-29,-24,-53,-68
-53,-68,-14,61,-19,-41,0,-43,-19,-24,-53,-68
-53,-68,-14,61,-19,-41,4,-43,-19,-24,-53,-68
-53,-73,-19,63,-17,-46,4,-43,-19,-24,-53,-68
-53,-73,-19,63,-17,-46,4,-43,-24,-24,-53,-73
-53,-73,-19,63,-17,-46,4,-53,-24,-19,-53,-73
-53,-73,-19,63,-17,-46,4,-53,-24,-19,-53,-73
-53,-73,-19,63,-17,-46,4,-53,-19,-19,-58,-73
-53,-78,-24,65,-14,-51,4,-48,-19,-19,-58,-73
-58,-78,-19,68,-19,-48,4,-48,-29,-24,-58,-73
-58,-78,-19,68,-19,-48,4,-48,-29,-24,-58,-73
-58,-78,-19,68,-19,-48,9,-48,-29,-24,-58,-73
-58,-73,-14,65,-21,-43,9,-48,-29,-19,-58,-73
-43,-63,-19,53,-12,-41,9,-39,-29,-19,-53,-73
-43,-53,-9,48,-17,-31,14,-39,-19,-24,-53,-63
-43,-58,-14,51,-14,-36,24,-43,-19,-24,-53,-73
-58,-63,-4,61,-26,-34,29,-34,-14,-24,-63,-73
-68,-78,-9,73,-29,-43,43,-34,-14,-24,-78,-97
-78,-107,-29,92,-24,-68,68,-34,4,-24,-97,-126
-87,-107,-19,97,-34,-63,92,-24,24,-19,-117,-146
-92,-107,-14,100,-39,-61,102,-29,39,-14,-117,-161
-102,-112,-9,107,-46,-61,92,-29,39,-4,-112,-161
-97,-102,-4,100,-46,-53,68,-34,29,4,-97,-151
