I,II,III,aVR,aVL,aVF,V1,V2,V3,V4,V5,V6,
-19,78,97,-29,-58,87,87,87,185,136,87,48
-19,78,97,-29,-58,87,87,87,185,136,87,48
-19,78,97,-29,-58,87,87,87,185,136,87,48
-19,78,97,-29,-58,87,87,87,185,136,87,48
-19,63,82,-21,-51,73,73,63,165,122,68,34
-19,58,78,-19,-48,68,68,48,146,107,58,29
-19,53,73,-17,-46,63,63,34,126,92,48,24
-19,48,68,-14,-43,58,58,19,107,78,39,19
-19,43,63,-12,-41,53,48,9,92,68,34,9
-19,39,58,-9,-39,48,48,0,78,58,29,9
-19,34,53,-7,-36,43,48,-9,63,48,24,9
-19,29,48,-4,-34,39,48,-19,48,39,19,9
-19,24,43,-2,-31,34,43,-29,39,24,4,4
-19,19,39,0,-29,29,39,-39,29,19,0,0
-19,14,34,2,-26,24,34,-48,19,14,-4,-4
-19,9,29,4,-24,19,29,-58,9,9,-9,-9
-29,0,29,14,-29,14,19,-68,-4,4,-14,-14
-29,0,29,14,-29,14,19,-68,-9,0,-19,-19
-29,0,29,14,-29,14,19,-68,-14,-4,-24,-24
-29,0,29,14,-29,14,19,-68,-19,-9,-29,-29
-39,-4,34,21,-36,14,19,-73,-34,-24,-34,-29
-39,-9,29,24,-34,9,19,-78,-39,-29,-39,-29
-39,-14,24,26,-31,4,19,-82,-43,-34,-43,-29
-39,-19,19,29,-29,0,19,-87,-48,-39,-48,-29
-29,-19,9,24,-19,-4,9,-92,-58,-48,-58,-39
-29,-19,9,24,-19,-4,9,-97,-58,-48,-58,-39
-29,-19,9,24,-19,-4,9,-102,-58,-48,-58,-39
-29,-19,9,24,-19,-4,9,-107,-58,-48,-58,-39
-34,-19,14,26,-24,-2,9,-117,-63,-58,-68,-48
-39,-19,19,29,-29,0,9,-117,-68,-58,-68,-48
-43,-19,24,31,-34,2,9,-117,-73,-58,-68,-48
-48,-19,29,34,-39,4,9,-117,-78,-58,-68,-48
-48,-29,19,39,-34,-4,14,-117,-87,-68,-73,-48
-48,-29,19,39,-34,-4,19,-117,-87,-68,-78,-48
-48,-29,19,39,-34,-4,24,-117,-87,-68,-82,-48
-48,-29,19,39,-34,-4,29,-117,-87,-68,-87,-48
-48,-29,19,39,-34,-4,19,-126,-97,-78,-87,-58
-48,-29,19,39,-34,-4,19,-126,-97,-78,-87,-58
-48,-29,19,39,-34,-4,19,-126,-97,-78,-87,-58
-48,-29,19,39,-34,-4,19,-126,-97,-78,-87,-58
-48,-39,9,43,-29,-14,9,-126,-97,-87,-87,-68
-48,-39,9,43,-29,-14,9,-126,-97,-87,-87,-68
-48,-39,9,43,-29,-14,9,-126,-97,-87,-87,-68
-48,-39,9,43,-29,-14,9,-126,-97,-87,-87,-68
-48,-48,0,48,-24,-24,19,-136,-97,-87,-97,-68
-48,-48,0,48,-24,-24,19,-136,-97,-87,-97,-68
-48,-48,0,48,-24,-24,19,-136,-97,-87,-97,-68
-48,-48,0,48,-24,-24,19,-136,-97,-87,-97,-68
-48,-39,9,43,-29,-14,9,-126,-97,-87,-97,-68
-48,-39,9,43,-29,-14,9,-126,-97,-87,-97,-68
-48,-39,9,43,-29,-14,9,-126,-97,-87,-97,-68
-48,-39,9,43,-29,-14,9,-126,-97,-87,-97,-68
-48,-39,9,43,-29,-14,19,-136,-97,-87,-97,-68
-48,-39,9,43,-29,-14,19,-136,-97,-87,-97,-68
-48,-39,9,43,-29,-14,19,-136,-97,-87,-97,-68
-48,-39,9,43,-29,-14,19,-136,-97,-87,-97,-68
-58,-39,19,48,-39,-9,29,-136,-97,-87,-107,-78
-58,-39,19,48,-39,-9,29,-136,-97,-87,-107,-78
-58,-39,19,48,-39,-9,29,-136,-97,-87,-107,-78
-58,-39,19,48,-39,-9,29,-136,-97,-87,-107,-78
-68,-48,19,58,-43,-14,29,-136,-97,-87,-107,-78
-68,-48,19,58,-43,-14,29,-136,-97,-87,-107,-78
-68,-48,19,58,-43,-14,29,-136,-97,-87,-107,-78
-68,-48,19,58,-43,-14,29,-136,-97,-87,-107,-78
-68,-39,29,53,-48,-4,39,-126,-87,-87,-107,-78
-68,-39,29,53,-48,-4,39,-126,-87,-87,-107,-78
-68,-39,29,53,-48,-4,39,-126,-87,-87,-107,-78
-68,-39,29,53,-48,-4,39,-126,-87,-87,-107,-78
-68,-29,39,48,-53,4,39,-136,-78,-78,-107,-78
-68,-29,39,48,-53,4,39,-136,-78,-78,-107,-78
-68,-29,39,48,-53,4,39,-136,-78,-78,-107,-78
-68,-29,39,48,-53,4,39,-136,-78,-78,-107,-78
-78,-39,39,58,-58,0,39,-126,-78,-78,-97,-78
-78,-39,39,58,-58,0,39,-126,-78,-78,-97,-78
-78,-39,39,58,-58,0,39,-126,-78,-78,-97,-78
-78,-39,39,58,-58,0,39,-126,-78,-78,-97,-78
-78,-39,39,58,-58,0,48,-126,-68,-68,-97,-78
-78,-39,39,58,-58,0,48,-126,-68,-68,-97,-78
-78,-39,39,58,-58,0,48,-126,-68,-68,-97,-78
-78,-39,39,58,-58,0,48,-126,-68,-68,-97,-78
-87,-29,58,58,-73,14,48,-126,-68,-68,-97,-78
-87,-34,53,61,-70,9,48,-126,-68,-68,-97,-78
-87,-34,53,61,-70,9,48,-126,-68,-68,-97,-78
-87,-34,53,61,-70,9,43,-126,-68,-68,-102,-78
-82,-34,48,58,-65,7,43,-126,-68,-68,-102,-73
-82,-29,53,56,-68,12,43,-126,-68,-68,-102,-73
-78,-29,48,53,-63,9,43,-126,-68,-68,-97,-73
-78,-24,53,51,-65,14,43,-126,-63,-63,-97,-73
-68,-9,58,39,-63,24,43,-117,-53,-58,-78,-68
-68,-4,63,36,-65,29,43,-117,-53,-53,-78,-68
-68,0,68,34,-68,34,43,-117,-53,-53,-78,-63
-68,4,73,31,-70,39,43,-117,-48,-48,-68,-58
-63,14,78,24,-70,46,43,-117,-53,-48,-68,-58
-63,19,82,21,-73,51,39,-117,-53,-48,-68,-53
-58,24,82,17,-70,53,39,-117,-53,-48,-68,-53
-58,29,87,14,-73,58,39,-117,-48,-43,-63,-48
-68,24,92,21,-80,58,29,-117,-48,-43,-63,-48
-68,29,97,19,-82,63,29,-117,-48,-39,-63,-43
-63,34,97,14,-80,65,29,-117,-48,-39,-58,-43
-58,39,97,9,-78,68,29,-117,-48,-39,-58,-39
-53,43,97,4,-75,70,39,-117,-43,-43,-53,-39
-53,48,102,2,-78,75,43,-112,-39,-43,-48,-34
-53,48,102,2,-78,75,43,-112,-39,-39,-48,-34
-53,48,102,2,-78,75,43,-112,-39,-39,-48,-34
-48,48,97,0,-73,73,43,-107,-39,-39,-58,-43
-48,43,92,2,-70,68,48,-107,-43,-39,-58,-43
-48,34,82,7,-65,58,48,-112,-43,-39,-58,-48
-48,34,82,7,-65,58,48,-117,-48,-48,-68,-53
-48,29,78,9,-63,53,48,-122,-53,-48,-63,-48
-48,29,78,9,-63,53,48,-126,-58,-48,-63,-48
-48,29,78,9,-63,53,29,-131,-58,-48,-58,-43
-39,43,82,-2,-61,63,14,-131,-58,-39,-48,-34
-29,48,78,-9,-53,63,-9,-136,-58,-43,-43,-29
-24,48,73,-12,-48,61,-24,-141,-58,-39,-39,-19
-14,53,68,-19,-41,61,-39,-146,-68,-39,-39,-19
-9,53,63,-21,-36,58,-48,-151,-73,-39,-39,-19
0,48,48,-24,-24,48,-43,-156,-78,-48,-58,-19
0,39,39,-19,-19,39,-53,-161,-92,-63,-63,-29
0,34,34,-17,-17,34,-63,-170,-102,-73,-68,-34
0,29,29,-14,-14,29,-63,-170,-112,-78,-78,-39
-9,14,24,-2,-17,19,-68,-180,-136,-87,-87,-43
-9,9,19,0,-14,14,-73,-190,-146,-102,-92,-48
-9,4,14,2,-12,9,-78,-204,-156,-107,-97,-48
-4,4,9,0,-7,7,-82,-209,-175,-112,-102,-48
0,14,14,-7,-7,14,-97,-209,-165,-112,-102,-48
0,14,14,-7,-7,14,-97,-209,-165,-112,-97,-48
9,14,4,-12,2,9,-92,-204,-165,-112,-97,-43
9,14,4,-12,2,9,-87,-204,-165,-112,-97,-43
19,9,-9,-14,14,0,-73,-190,-165,-112,-87,-43
19,4,-14,-12,17,-4,-68,-185,-165,-112,-87,-43
19,4,-14,-12,17,-4,-63,-185,-156,-112,-87,-39
19,4,-14,-12,17,-4,-53,-175,-151,-107,-87,-39
9,4,-4,-7,7,0,-48,-180,-146,-107,-87,-39
9,4,-4,-7,7,0,-43,-175,-146,-97,-78,-39
4,4,0,-4,2,2,-39,-170,-136,-92,-78,-39
-4,4,9,0,-7,7,-34,-170,-136,-92,-78,-39
-19,0,19,9,-19,9,-24,-170,-136,-87,-87,-39
-29,-4,24,17,-26,9,-19,-170,-136,-87,-87,-48
-39,-9,29,24,-34,9,-14,-170,-136,-87,-92,-48
-48,-14,34,31,-41,9,-9,-170,-136,-87,-97,-53
-63,-19,43,41,-53,12,0,-170,-136,-92,-92,-58
-63,-29,34,46,-48,2,4,-170,-136,-97,-97,-63
-68,-39,29,53,-48,-4,4,-170,-136,-102,-102,-68
-73,-43,29,58,-51,-7,4,-175,-146,-107,-107,-73
-73,-58,14,65,-43,-21,0,-185,-151,-126,-122,-78
-82,-63,19,73,-51,-21,0,-185,-156,-126,-126,-82
-87,-73,14,80,-51,-29,4,-185,-161,-136,-131,-87
-92,-82,9,87,-51,-36,4,-185,-161,-136,-141,-92
-102,-87,14,95,-58,-36,4,-185,-165,-141,-136,-102
-107,-92,14,100,-61,-39,4,-185,-165,-146,-136,-107
-107,-102,4,104,-56,-48,9,-185,-165,-151,-141,-112
-107,-102,4,104,-56,-48,14,-185,-170,-151,-146,-112
-97,-97,0,97,-48,-48,14,-185,-170,-151,-146,-117
-102,-97,4,100,-53,-46,14,-185,-170,-151,-146,-117
-102,-97,4,100,-53,-46,14,-185,-170,-156,-146,-117
-97,-97,0,97,-48,-48,14,-185,-170,-156,-146,-117
-97,-97,0,97,-48,-48,14,-185,-175,-156,-156,-117
-97,-97,0,97,-48,-48,14,-190,-175,-156,-156,-117
-97,-97,0,97,-48,-48,19,-190,-175,-161,-156,-117
-102,-97,4,100,-53,-46,19,-190,-180,-161,-161,-122
-102,-107,-4,104,-48,-56,29,-195,-190,-161,-156,-112
-107,-107,0,107,-53,-53,29,-195,-185,-165,-170,-126
-117,-107,9,112,-63,-48,43,-185,-185,-170,-180,-141
-126,-107,19,117,-73,-43,58,-180,-185,-180,-185,-146
-136,-97,39,117,-87,-29,73,-195,-170,-180,-185,-141
-146,-107,39,126,-92,-34,92,-204,-165,-170,-195,-146
-161,-97,63,129,-112,-17,126,-190,-151,-165,-200,-146
-165,-87,78,126,-122,-4,165,-165,-112,-141,-180,-131
-165,-68,97,117,-131,14,165,-156,-82,-92,-131,-107
-136,-58,78,97,-107,9,126,-156,-78,-34,-68,-73
-92,-34,58,63,-75,12,48,-170,-87,39,19,-19
-48,19,68,14,-58,43,-58,-200,-92,126,126,48
14,73,58,-43,-21,65,-214,-248,-122,209,248,136
87,131,43,-109,21,87,-375,-317,-165,312,380,248
165,200,34,-183,65,117,-497,-351,-175,453,541,361
258,283,24,-270,117,153,-649,-312,-112,644,741,502
380,361,-19,-370,200,170,-800,-214,9,873,985,644
507,409,-97,-458,302,156,-936,-107,126,1088,1215,790
639,444,-195,-541,417,124,-1058,14,224,1249,1410,917
790,483,-307,-636,549,87,-1215,165,307,1351,1537,1019
932,502,-429,-717,680,36,-1376,346,375,1390,1639,1107
1073,522,-551,-797,812,-14,-1498,507,409,1381,1688,1190
1195,536,-658,-866,927,-61,-1595,590,380,1302,1678,1239
1283,566,-717,-924,1000,-75,-1673,590,292,1180,1610,1263
1332,566,-766,-949,1049,-100,-1708,527,131,990,1459,1239
1332,522,-810,-927,1071,-143,-1698,419,-78,727,1244,1156
1302,473,-829,-888,1066,-178,-1625,317,-292,453,1019,1058
1263,390,-873,-827,1068,-241,-1527,229,-512,151,761,922
1229,229,-1000,-729,1115,-385,-1415,170,-741,-175,463,732
1185,53,-1132,-619,1159,-539,-1283,131,-932,-458,185,527
1107,-63,-1171,-522,1139,-617,-1151,68,-1049,-634,-14,380
1029,-102,-1132,-463,1080,-617,-1024,19,-1044,-688,-122,312
976,-126,-1102,-424,1039,-614,-922,-9,-995,-692,-195,239
917,-146,-1063,-385,990,-605,-829,-92,-985,-732,-297,161
824,-136,-961,-344,893,-549,-727,-200,-941,-717,-331,126
712,-87,-800,-312,756,-444,-634,-292,-844,-624,-283,136
541,-24,-566,-258,553,-295,-522,-351,-683,-478,-200,161
346,24,-322,-185,334,-148,-380,-341,-531,-361,-136,161
244,34,-209,-139,226,-87,-287,-312,-453,-317,-136,136
190,24,-165,-107,178,-70,-244,-302,-409,-292,-146,97
126,19,-107,-73,117,-43,-190,-292,-366,-253,-141,58
43,4,-39,-24,41,-17,-126,-273,-322,-224,-141,9
-9,-24,-14,17,2,-19,-58,-244,-273,-214,-161,-39
-48,-63,-14,56,-17,-39,-9,-204,-234,-200,-180,-73
-68,-102,-34,85,-17,-68,24,-180,-200,-195,-180,-102
-73,-126,-53,100,-9,-90,48,-161,-175,-185,-190,-126
-78,-126,-48,102,-14,-87,53,-141,-170,-185,-200,-131
-87,-136,-48,112,-19,-92,53,-141,-170,-190,-200,-131
-102,-136,-34,119,-34,-85,53,-136,-161,-200,-209,-136
-112,-136,-24,124,-43,-80,58,-136,-156,-200,-209,-141
-126,-136,-9,131,-58,-73,68,-141,-156,-200,-204,-146
-136,-136,0,136,-68,-68,78,-141,-156,-195,-204,-146
-126,-141,-14,134,-56,-78,82,-141,-156,-185,-204,-151
-131,-141,-9,136,-61,-75,87,-141,-146,-185,-204,-151
-131,-141,-9,136,-61,-75,97,-136,-146,-185,-204,-151
-131,-141,-9,136,-61,-75,107,-136,-141,-185,-204,-151
-122,-136,-14,129,-53,-75,107,-126,-136,-180,-204,-161
-126,-136,-9,131,-58,-73,107,-122,-131,-175,-204,-161
-131,-136,-4,134,-63,-70,107,-122,-126,-175,-200,-161
-131,-136,-4,134,-63,-70,112,-122,-126,-175,-200,-161
-141,-131,9,136,-75,-61,112,-126,-126,-180,-200,-161
-141,-131,9,136,-75,-61,112,-126,-126,-180,-200,-161
-141,-131,9,136,-75,-61,112,-126,-117,-180,-200,-165
-146,-131,14,139,-80,-58,117,-122,-112,-180,-200,-165
-146,-131,14,139,-80,-58,117,-117,-112,-165,-200,-165
-146,-131,14,139,-80,-58,122,-117,-107,-165,-200,-165
-146,-131,14,139,-80,-58,126,-117,-107,-165,-200,-165
-146,-131,14,139,-80,-58,126,-107,-102,-165,-195,-165
-146,-131,14,139,-80,-58,126,-102,-102,-161,-195,-156
-151,-131,19,141,-85,-56,126,-102,-102,-161,-195,-156
-151,-131,19,141,-85,-56,131,-97,-92,-156,-190,-156
-151,-131,19,141,-85,-56,131,-97,-87,-156,-190,-151
-151,-131,19,141,-85,-56,141,-87,-82,-151,-190,-161
-151,-131,19,141,-85,-56,141,-87,-73,-151,-190,-161
-151,-131,19,141,-85,-56,146,-78,-63,-151,-190,-161
-151,-131,19,141,-85,-56,146,-73,-58,-141,-190,-161
-151,-126,24,139,-87,-51,146,-78,-53,-141,-185,-161
-151,-126,24,139,-87,-51,146,-78,-48,-136,-185,-161
-151,-122,29,136,-90,-46,151,-68,-43,-136,-185,-161
-151,-122,29,136,-90,-46,151,-63,-39,-136,-180,-161
-151,-122,29,136,-90,-46,146,-48,-39,-136,-180,-161
-151,-122,29,136,-90,-46,146,-48,-29,-126,-180,-161
-151,-122,29,136,-90,-46,151,-43,-24,-122,-175,-161
-151,-122,29,136,-90,-46,151,-34,-19,-117,-175,-156
-151,-131,19,141,-85,-56,156,-29,-4,-112,-165,-156
-151,-131,19,141,-85,-56,161,-24,4,-107,-156,-156
-151,-126,24,139,-87,-51,165,-14,9,-107,-156,-156
-151,-122,29,136,-90,-46,175,-9,14,-97,-156,-151
-151,-122,29,136,-90,-46,170,4,29,-87,-161,-141
-151,-122,29,136,-90,-46,175,19,39,-82,-161,-141
-151,-117,34,134,-92,-41,185,19,48,-78,-156,-141
-151,-112,39,131,-95,-36,185,34,58,-73,-146,-141
-151,-102,48,126,-100,-26,185,39,73,-68,-141,-136
-151,-102,48,126,-100,-26,185,48,87,-63,-136,-136
-151,-102,48,126,-100,-26,185,58,97,-53,-131,-131
-151,-102,48,126,-100,-26,185,68,107,-48,-126,-131
-151,-102,48,126,-100,-26,195,87,126,-43,-122,-131
-151,-102,48,126,-100,-26,209,97,141,-29,-117,-122
-151,-102,48,126,-100,-26,214,107,156,-24,-112,-122
-151,-97,53,124,-102,-21,219,122,165,-19,-112,-122
-151,-87,63,119,-107,-12,224,131,185,-4,-97,-117
-146,-87,58,117,-102,-14,224,146,200,9,-92,-117
-146,-82,63,114,-104,-9,234,161,219,19,-87,-117
-146,-78,68,112,-107,-4,239,175,239,29,-82,-117
-156,-82,73,119,-114,-4,244,180,248,39,-73,-107
-156,-78,78,117,-117,0,248,195,273,48,-63,-102
-156,-73,82,114,-119,4,258,214,283,58,-58,-102
-151,-73,78,112,-114,2,263,229,302,68,-48,-97
-151,-58,92,104,-122,17,278,258,331,87,-34,-92
-151,-53,97,102,-124,21,283,278,356,102,-29,-87
-151,-48,102,100,-126,26,292,292,375,122,-24,-82
-151,-43,107,97,-129,31,297,312,395,131,-9,-78
-151,-39,112,95,-131,36,302,331,419,131,0,-73
-151,-29,122,90,-136,46,312,351,444,146,9,-68
-151,-24,126,87,-139,51,317,370,468,161,24,-63
-146,-19,126,82,-136,53,322,395,483,175,34,-53
-146,-14,131,80,-139,58,331,414,502,195,43,-48
-146,-4,141,75,-143,68,336,434,527,209,53,-43
-146,-4,141,75,-143,68,341,453,551,229,63,-39
-141,4,146,68,-143,75,346,473,570,248,73,-29
-141,14,156,63,-148,85,361,483,585,253,87,-14
-141,29,170,56,-156,100,366,497,610,268,97,-9
-136,39,175,48,-156,107,375,517,634,287,117,-4
-136,53,190,41,-163,122,380,531,653,302,126,9
-141,58,200,41,-170,129,370,546,673,312,136,4
-131,73,204,29,-168,139,370,561,683,326,146,14
-131,82,214,24,-173,148,370,575,697,336,156,24
-131,82,214,24,-173,148,375,590,712,341,165,24
-126,92,219,17,-173,156,385,595,732,361,185,39
-122,97,219,12,-170,158,385,610,746,375,200,48
-117,102,219,7,-168,161,385,619,761,385,209,58
-112,107,219,2,-165,163,385,629,766,395,219,63
-112,126,239,-7,-175,183,385,634,771,405,224,73
-102,131,234,-14,-168,183,380,639,775,414,239,78
-97,146,244,-24,-170,195,380,639,775,419,239,82
-92,146,239,-26,-165,192,375,639,780,424,253,87
-87,141,229,-26,-158,185,361,629,771,424,253,92
-82,146,229,-31,-156,187,356,629,771,424,258,97
-78,151,229,-36,-153,190,351,629,771,434,263,107
-73,156,229,-41,-151,192,341,619,771,439,268,112
-68,156,224,-43,-146,190,331,610,751,429,273,126
-63,156,219,-46,-141,187,331,595,736,429,283,131
-58,161,219,-51,-139,190,317,575,727,429,287,136
-53,161,214,-53,-134,187,307,556,707,429,287,141
-48,161,209,-56,-129,185,287,531,678,419,278,131
-43,161,204,-58,-124,183,278,507,658,414,278,131
-39,161,200,-61,-119,180,263,478,634,405,268,131
-39,161,200,-61,-119,180,253,458,605,395,263,131
-48,141,190,-46,-119,165,234,439,570,366,258,136
-39,141,180,-51,-109,161,224,409,546,356,253,136
-39,136,175,-48,-107,156,209,385,512,341,239,136
-34,131,165,-48,-100,148,204,356,488,326,229,126
-24,136,161,-56,-92,148,185,331,458,297,209,112
-24,126,151,-51,-87,139,175,307,434,278,200,107
-24,122,146,-48,-85,134,161,287,405,268,185,102
-24,112,136,-43,-80,124,156,258,370,248,175,97
-24,92,117,-34,-70,104,136,224,336,229,170,92
-24,87,112,-31,-68,100,126,204,312,204,165,82
-24,82,107,-29,-65,95,122,185,287,185,141,78
-24,78,102,-26,-63,90,112,165,263,180,141,73
-34,63,97,-14,-65,80,112,151,239,165,122,63
-34,63,97,-14,-65,80,102,131,214,146,107,58
-34,48,82,-7,-58,65,92,112,200,131,87,53
-34,43,78,-4,-56,61,87,92,180,122,78,39
-34,39,73,-2,-53,56,73,73,141,92,73,34
-34,34,68,0,-51,51,68,63,126,82,63,34
-29,29,58,0,-43,43,63,48,112,73,53,24
-24,24,48,0,-36,36,58,29,97,63,48,19
-29,4,34,12,-31,19,58,29,87,53,34,4
-29,4,34,12,-31,19,53,14,73,43,24,0
-29,0,29,14,-29,14,53,4,58,29,14,-4
-34,-4,29,19,-31,12,48,0,43,19,4,-9
-34,-9,24,21,-29,7,58,-14,43,24,4,-4
-34,-14,19,24,-26,2,53,-19,34,14,0,-9
-34,-24,9,29,-21,-7,48,-24,24,4,-4,-14
-39,-29,9,34,-24,-9,43,-34,14,-4,-9,-19
-29,-29,0,29,-14,-14,43,-29,14,-4,-14,-24
-29,-34,-4,31,-12,-19,43,-39,4,-9,-19,-24
-29,-34,-4,31,-12,-19,43,-43,0,-14,-24,-29
-34,-39,-4,36,-14,-21,43,-48,-4,-19,-29,-29
-34,-34,0,34,-17,-17,34,-48,-9,-24,-24,-29
-34,-39,-4,36,-14,-21,34,-53,-14,-29,-29,-29
-34,-39,-4,36,-14,-21,34,-58,-19,-34,-29,-34
-34,-39,-4,36,-14,-21,34,-63,-24,-39,-29,-34
-43,-48,-4,46,-19,-26,34,-63,-29,-39,-39,-39
-43,-53,-9,48,-17,-31,34,-68,-34,-43,-43,-39
-43,-53,-9,48,-17,-31,29,-68,-39,-48,-43,-39
-43,-53,-9,48,-17,-31,29,-68,-39,-48,-48,-43
-43,-53,-9,48,-17,-31,29,-63,-43,-48,-53,-43
-48,-58,-9,53,-19,-34,29,-63,-43,-53,-53,-43
-48,-58,-9,53,-19,-34,29,-63,-43,-53,-53,-43
-48,-58,-9,53,-19,-34,29,-68,-43,-53,-53,-48
-39,-58,-19,48,-9,-39,29,-82,-53,-48,-53,-48
-43,-63,-19,53,-12,-41,29,-82,-58,-53,-53,-53
-43,-63,-19,53,-12,-41,29,-82,-58,-53,-58,-53
-43,-68,-24,56,-9,-46,29,-82,-63,-53,-58,-58
-53,-58,-4,56,-24,-31,29,-82,-63,-68,-63,-48
-53,-58,-4,56,-24,-31,29,-87,-63,-68,-68,-48
-53,-58,-4,56,-24,-31,29,-87,-63,-68,-68,-48
-53,-58,-4,56,-24,-31,29,-92,-63,-68,-68,-48
-53,-68,-14,61,-19,-41,29,-92,-68,-73,-68,-58
-53,-73,-19,63,-17,-46,29,-87,-68,-73,-73,-63
-53,-73,-19,63,-17,-46,34,-87,-68,-73,-73,-63
-53,-73,-19,63,-17,-46,34,-87,-68,-78,-78,-63
-53,-73,-19,63,-17,-46,34,-97,-68,-78,-87,-63
-58,-73,-14,65,-21,-43,34,-97,-68,-78,-87,-63
-58,-73,-14,65,-21,-43,34,-97,-73,-78,-87,-63
-63,-73,-9,68,-26,-41,34,-102,-73,-82,-92,-68
-53,-78,-24,65,-14,-51,34,-92,-73,-82,-82,-68
-53,-78,-24,65,-14,-51,34,-92,-73,-82,-82,-68
-53,-78,-24,65,-14,-51,34,-92,-68,-82,-82,-68
-53,-78,-24,65,-14,-51,39,-97,-68,-82,-82,-73
-63,-78,-14,70,-24,-46,39,-97,-73,-82,-82,-73
-63,-78,-14,70,-24,-46,39,-97,-73,-87,-87,-73
-68,-78,-9,73,-29,-43,39,-97,-73,-87,-87,-78
-73,-78,-4,75,-34,-41,39,-97,-68,-82,-87,-78
-63,-68,-4,65,-29,-36,48,-97,-78,-82,-87,-78
-63,-68,-4,65,-29,-36,48,-97,-78,-82,-87,-78
-63,-68,-4,65,-29,-36,53,-97,-78,-82,-87,-78
-63,-68,-4,65,-29,-36,53,-97,-78,-82,-87,-78
-63,-78,-14,70,-24,-46,58,-97,-68,-82,-97,-78
-68,-78,-9,73,-29,-43,58,-97,-63,-82,-97,-78
-68,-78,-9,73,-29,-43,58,-97,-63,-82,-97,-78
-68,-78,-9,73,-29,-43,58,-97,-63,-82,-97,-78
-82,-78,4,80,-43,-36,58,-97,-63,-82,-97,-78
-82,-78,4,80,-43,-36,58,-92,-58,-78,-97,-78
-82,-78,4,80,-43,-36,63,-92,-58,-78,-97,-78
-82,-78,4,80,-43,-36,63,-92,-58,-78,-97,-82
-87,-68,19,78,-53,-24,53,-97,-48,-78,-87,-82
-87,-68,19,78,-53,-24,53,-97,-48,-78,-87,-82
-82,-68,14,75,-48,-26,53,-92,-48,-78,-87,-82
-82,-68,14,75,-48,-26,53,-92,-43,-78,-87,-82
-87,-63,24,75,-56,-19,63,-82,-43,-78,-87,-82
-87,-63,24,75,-56,-19,63,-82,-43,-73,-87,-82
-87,-63,24,75,-56,-19,63,-87,-43,-73,-87,-82
-87,-58,29,73,-58,-14,63,-87,-43,-73,-87,-78
-87,-58,29,73,-58,-14,63,-87,-53,-73,-82,-78
-92,-53,39,73,-65,-7,63,-82,-43,-73,-82,-78
-97,-58,39,78,-68,-9,68,-78,-48,-68,-78,-78
-87,-68,19,78,-53,-24,58,-87,-58,-78,-87,-78
-87,-68,19,78,-53,-24,58,-87,-58,-78,-87,-78
-87,-68,19,78,-53,-24,58,-87,-58,-78,-87,-78
-87,-68,19,78,-53,-24,58,-87,-58,-78,-87,-78
-87,-63,24,75,-56,-19,48,-87,-48,-68,-78,-78
-87,-63,24,75,-56,-19,48,-87,-48,-68,-78,-78
-87,-63,24,75,-56,-19,43,-87,-48,-68,-82,-78
-92,-63,29,78,-61,-17,43,-87,-48,-68,-82,-73
-82,-58,24,70,-53,-17,53,-87,-48,-68,-73,-73
-78,-58,19,68,-48,-19,53,-87,-48,-68,-68,-73
-78,-53,24,65,-51,-14,53,-87,-43,-63,-68,-73
-78,-48,29,63,-53,-9,53,-87,-43,-58,-58,-68
-78,-34,43,56,-61,4,53,-87,-43,-53,-68,-68
-78,-29,48,53,-63,9,53,-87,-43,-53,-68,-63
-78,-24,53,51,-65,14,53,-87,-39,-48,-58,-58
-73,-14,58,43,-65,21,53,-87,-34,-48,-58,-58
-73,-9,63,41,-68,26,48,-87,-34,-39,-58,-53
-68,-4,63,36,-65,29,48,-87,-34,-39,-58,-53
-68,0,68,34,-68,34,48,-87,-29,-34,-53,-48
-68,4,73,31,-70,39,48,-87,-29,-34,-53,-48
-78,0,78,39,-78,39,48,-97,-29,-39,-53,-43
-73,4,78,34,-75,41,48,-97,-29,-39,-48,-43
-68,9,78,29,-73,43,48,-97,-29,-39,-48,-39
-63,14,78,24,-70,46,48,-97,-24,-34,-43,-39
-63,19,82,21,-73,51,53,-82,-19,-24,-29,-34
-63,19,82,21,-73,51,53,-82,-19,-19,-29,-34
-63,19,82,21,-73,51,53,-82,-19,-19,-29,-34
-58,19,78,19,-68,48,53,-78,-19,-19,-29,-34
-48,24,73,12,-61,48,58,-78,-24,-29,-39,-24
-48,14,63,17,-56,39,58,-82,-24,-29,-39,-29
-48,14,63,17,-56,39,58,-87,-29,-39,-48,-34
-48,9,58,19,-53,34,58,-92,-34,-48,-53,-39
-58,0,58,29,-58,29,58,-97,-39,-48,-43,-39
-58,0,58,29,-58,29,39,-102,-39,-48,-39,-34
-48,14,63,17,-56,39,24,-102,-39,-39,-29,-24
-39,29,68,4,-53,48,9,-107,-39,-34,-24,-19
-24,29,53,-2,-39,41,-4,-112,-39,-29,-19,-9
-14,34,48,-9,-31,41,-19,-117,-48,-29,-19,-9
-9,34,43,-12,-26,39,-29,-122,-53,-29,-19,-9
-9,29,39,-9,-24,34,-34,-126,-58,-39,-29,-9
-9,19,29,-4,-19,24,-43,-131,-63,-43,-34,-19
-9,14,24,-2,-17,19,-53,-141,-73,-53,-39,-24
-9,9,19,0,-14,14,-53,-141,-82,-58,-48,-29
-9,4,14,2,-12,9,-58,-151,-97,-68,-58,-34
-19,-9,9,14,-14,0,-73,-161,-117,-92,-68,-48
-19,-14,4,17,-12,-4,-78,-175,-126,-97,-78,-48
-14,-14,0,14,-7,-7,-82,-180,-146,-102,-87,-48
-9,-14,-4,12,-2,-9,-87,-180,-146,-102,-92,-48
0,-4,-4,2,2,-4,-78,-180,-146,-102,-82,-39
9,-4,-14,-2,12,-9,-73,-175,-146,-102,-78,-34
9,-4,-14,-2,12,-9,-68,-175,-146,-102,-73,-34
9,-9,-19,0,14,-14,-63,-170,-146,-102,-68,-34
19,-14,-34,-2,26,-24,-58,-165,-146,-102,-78,-43
19,-14,-34,-2,26,-24,-53,-165,-136,-102,-78,-39
19,-14,-34,-2,26,-24,-43,-156,-131,-97,-78,-39
9,-14,-24,2,17,-19,-39,-151,-126,-97,-78,-39
0,-14,-14,7,7,-14,-34,-156,-126,-87,-68,-39
-4,-14,-9,9,2,-12,-29,-151,-117,-82,-68,-39
-14,-14,0,14,-7,-7,-24,-151,-117,-82,-68,-39
-29,-19,9,24,-19,-4,-14,-151,-117,-87,-68,-39
-39,-24,14,31,-26,-4,-9,-141,-107,-78,-58,-39
-48,-29,19,39,-34,-4,-4,-141,-107,-78,-63,-39
-58,-34,24,46,-41,-4,0,-141,-107,-78,-68,-43
-63,-48,14,56,-39,-17,9,-141,-107,-82,-73,-48
-63,-58,4,61,-34,-26,4,-151,-117,-97,-87,-63
-68,-68,0,68,-34,-34,4,-151,-117,-102,-92,-68
-73,-73,0,73,-36,-36,4,-156,-126,-107,-97,-73
-73,-82,-9,78,-31,-46,0,-165,-131,-117,-102,-78
-82,-82,0,82,-41,-41,9,-156,-126,-107,-97,-82
-87,-87,0,87,-43,-43,14,-156,-131,-117,-102,-87
-92,-92,0,92,-46,-46,14,-156,-131,-117,-112,-92
-92,-97,-4,95,-43,-51,14,-156,-136,-122,-117,-102
-107,-102,4,104,-56,-48,14,-156,-146,-136,-126,-107
-107,-112,-4,109,-51,-58,19,-156,-146,-141,-131,-112
-107,-112,-4,109,-51,-58,24,-156,-151,-141,-136,-112
-107,-117,-9,112,-48,-63,24,-156,-151,-141,-136,-117
-112,-126,-14,119,-48,-70,14,-165,-141,-141,-136,-117
-112,-126,-14,119,-48,-70,14,-165,-141,-146,-136,-117
-107,-126,-19,117,-43,-73,14,-165,-141,-146,-136,-117
-107,-126,-19,117,-43,-73,14,-165,-146,-146,-136,-117
-107,-126,-19,117,-43,-73,24,-170,-156,-146,-136,-117
-107,-126,-19,117,-43,-73,29,-170,-156,-151,-136,-117
-112,-126,-14,119,-48,-70,29,-170,-161,-151,-141,-122
-112,-126,-14,119,-48,-70,29,-175,-161,-151,-146,-122
-117,-117,0,117,-58,-58,39,-175,-156,-156,-141,-117
-117,-117,0,117,-58,-58,53,-175,-156,-151,-141,-122
-126,-117,9,122,-68,-53,58,-170,-156,-151,-156,-126
-136,-117,19,126,-78,-48,73,-165,-151,-151,-165,-131
-146,-107,39,126,-92,-34,92,-175,-146,-151,-165,-136
-161,-107,53,134,-107,-26,117,-170,-141,-156,-170,-146
-165,-107,58,136,-112,-24,156,-165,-112,-141,-170,-151
-175,-87,87,131,-131,0,204,-146,-63,-112,-141,-136
-175,-78,97,126,-136,9,204,-136,-39,-73,-97,-112
-141,-73,68,107,-104,-2,165,-151,-39,-19,-39,-78
-97,-39,58,68,-78,9,87,-170,-53,58,48,-19
-24,24,48,0,-36,36,-48,-209,-82,131,151,58
48,82,34,-65,7,58,-209,-268,-136,224,273,151
117,141,24,-129,46,82,-370,-322,-175,326,414,263
190,204,14,-197,87,109,-492,-341,-141,468,595,385
302,273,-29,-287,165,122,-624,-292,-58,658,800,527
429,351,-78,-390,253,136,-780,-195,48,863,1029,673
561,414,-146,-488,353,134,-922,-82,156,1044,1234,819
692,453,-239,-573,466,107,-1068,29,209,1146,1381,922
854,473,-380,-663,617,46,-1239,170,229,1185,1464,1000
1015,492,-522,-753,768,-14,-1410,331,244,1195,1522,1073
1146,497,-649,-822,897,-75,-1537,444,214,1127,1522,1132
1244,517,-727,-880,985,-104,-1634,483,146,1015,1464,1156
1312,527,-785,-919,1049,-129,-1708,439,24,863,1361,1161
1342,522,-819,-932,1080,-148,-1737,312,-165,629,1185,1107
1332,483,-849,-907,1090,-183,-1703,180,-400,366,951,1019
1302,429,-873,-866,1088,-222,-1644,92,-619,92,702,902
1268,326,-941,-797,1105,-307,-1551,24,-829,-204,424,732
1224,151,-1073,-688,1149,-461,-1429,-34,-1029,-497,126,517
1156,-34,-1190,-561,1173,-612,-1288,-87,-1166,-712,-112,331
1078,-122,-1200,-478,1139,-661,-1151,-146,-1210,-805,-239,224
1015,-146,-1161,-434,1088,-653,-1029,-165,-1161,-819,-302,161
946,-175,-1122,-385,1034,-649,-917,-200,-1102,-819,-366,92
873,-185,-1058,-344,966,-622,-805,-268,-1058,-824,-429,39
790,-146,-936,-322,863,-541,-722,-322,-971,-761,-409,29
649,-73,-722,-287,685,-397,-600,-361,-819,-624,-317,73
453,4,-448,-229,451,-222,-468,-361,-639,-448,-214,122
302,43,-258,-173,280,-107,-346,-322,-483,-336,-165,117
219,24,-195,-122,207,-85,-263,-292,-409,-292,-156,87
156,0,-156,-78,156,-78,-209,-283,-366,-253,-131,58
82,-4,-87,-39,85,-46,-156,-273,-322,-214,-122,29
0,-24,-24,12,12,-24,-87,-244,-273,-204,-131,-9
-39,-53,-14,46,-12,-34,-39,-204,-234,-200,-151,-63
-48,-82,-34,65,-7,-58,-4,-180,-209,-195,-161,-92
-63,-97,-34,80,-14,-65,19,-151,-185,-185,-170,-117
-78,-107,-29,92,-24,-68,34,-141,-161,-175,-180,-141
-87,-117,-29,102,-29,-73,43,-131,-141,-170,-180,-141
-107,-126,-19,117,-43,-73,53,-126,-141,-180,-180,-136
-112,-126,-14,119,-48,-70,58,-126,-136,-180,-180,-141
-122,-126,-4,124,-58,-65,68,-131,-136,-180,-175,-146
-126,-126,0,126,-63,-63,78,-131,-136,-175,-175,-146
-126,-122,4,124,-65,-58,82,-131,-136,-175,-185,-151
-131,-122,9,126,-70,-56,87,-131,-126,-175,-185,-151
-131,-122,9,126,-70,-56,97,-126,-126,-175,-185,-151
-131,-122,9,126,-70,-56,107,-126,-122,-175,-185,-151
-131,-126,4,129,-68,-61,117,-126,-117,-170,-175,-151
-136,-126,9,131,-73,-58,117,-122,-112,-165,-175,-151
-141,-126,14,134,-78,-56,117,-122,-107,-165,-170,-151
-141,-126,14,134,-78,-56,122,-122,-107,-165,-170,-151
-151,-131,19,141,-85,-56,122,-107,-107,-161,-180,-161
-151,-131,19,141,-85,-56,122,-107,-107,-161,-180,-161
-151,-131,19,141,-85,-56,122,-107,-97,-161,-180,-165
-156,-131,24,143,-90,-53,126,-102,-92,-161,-180,-165
-156,-131,24,143,-90,-53,117,-97,-92,-156,-180,-165
-156,-131,24,143,-90,-53,122,-97,-87,-156,-180,-165
-156,-131,24,143,-90,-53,126,-97,-87,-156,-180,-165
-156,-131,24,143,-90,-53,126,-87,-82,-156,-175,-165
-146,-131,14,139,-80,-58,126,-92,-82,-151,-165,-165
-151,-131,19,141,-85,-56,126,-92,-82,-151,-165,-165
-151,-131,19,141,-85,-56,131,-87,-73,-146,-161,-165
-151,-131,19,141,-85,-56,131,-87,-68,-146,-161,-161
-151,-131,19,141,-85,-56,131,-87,-68,-131,-161,-151
-151,-131,19,141,-85,-56,131,-87,-63,-131,-161,-151
-151,-131,19,141,-85,-56,136,-78,-58,-131,-161,-151
-151,-131,19,141,-85,-56,136,-73,-58,-122,-161,-151
-151,-117,34,134,-92,-41,136,-58,-43,-131,-156,-161
-151,-117,34,134,-92,-41,136,-58,-39,-126,-156,-161
-151,-112,39,131,-95,-36,141,-48,-34,-126,-156,-161
-151,-112,39,131,-95,-36,141,-43,-29,-126,-151,-161
-161,-122,39,141,-100,-41,146,-39,-29,-126,-161,-151
-161,-122,39,141,-100,-41,146,-39,-19,-117,-161,-151
-161,-122,39,141,-100,-41,151,-34,-14,-112,-156,-151
-161,-122,39,141,-100,-41,151,-24,-9,-107,-156,-146
-161,-122,39,141,-100,-41,151,-19,4,-102,-156,-146
-161,-122,39,141,-100,-41,151,-14,14,-97,-146,-146
-161,-117,43,139,-102,-36,151,-4,19,-97,-146,-146
-161,-112,48,136,-104,-31,156,0,24,-87,-146,-141
-151,-102,48,126,-100,-26,161,4,29,-87,-141,-141
-151,-102,48,126,-100,-26,165,19,39,-82,-141,-141
-151,-97,53,124,-102,-21,175,19,48,-78,-136,-141
-151,-92,58,122,-104,-17,175,34,58,-73,-126,-141
-156,-102,53,129,-104,-24,175,39,63,-68,-122,-136
-161,-102,58,131,-109,-21,175,48,78,-63,-117,-136
-165,-102,63,134,-114,-19,175,58,87,-53,-112,-131
-170,-102,68,136,-119,-17,175,68,97,-48,-107,-131
-161,-92,68,126,-114,-12,180,87,117,-43,-102,-131
-161,-92,68,126,-114,-12,190,97,131,-29,-97,-122
-161,-92,68,126,-114,-12,190,107,146,-24,-92,-122
-161,-87,73,124,-117,-7,190,122,156,-19,-92,-122
-151,-68,82,109,-117,7,200,122,156,-4,-87,-117
-146,-68,78,107,-112,4,204,136,170,9,-82,-117
-146,-63,82,104,-114,9,219,151,190,19,-78,-117
-146,-58,87,102,-117,14,229,165,209,29,-73,-117
-156,-63,92,109,-124,14,224,190,219,29,-63,-117
-156,-58,97,107,-126,19,229,204,244,39,-53,-112
-156,-53,102,104,-129,24,239,224,253,48,-48,-112
-151,-53,97,102,-124,21,244,239,273,58,-39,-107
-151,-48,102,100,-126,26,248,258,292,78,-24,-92
-151,-43,107,97,-129,31,253,278,317,92,-19,-87
-151,-39,112,95,-131,36,263,292,336,112,-14,-82
-151,-34,117,92,-134,41,268,312,356,122,0,-78
-141,-19,122,80,-131,51,273,341,370,122,9,-63
-141,0,141,70,-141,70,283,361,395,136,19,-58
-141,14,156,63,-148,85,287,380,419,151,34,-53
-136,29,165,53,-151,97,292,405,434,165,43,-43
-136,39,175,48,-156,107,302,414,453,190,53,-39
-136,43,180,46,-158,112,307,434,478,200,63,-34
-136,39,175,48,-156,107,312,453,502,214,73,-29
-131,43,175,43,-153,109,317,473,522,229,82,-19
-131,48,180,41,-156,114,322,497,546,244,97,-14
-131,58,190,36,-161,124,326,517,570,258,107,-9
-126,63,190,31,-158,126,336,541,595,278,126,-4
-126,73,200,26,-163,136,341,561,614,292,136,9
-131,78,209,26,-170,143,341,575,624,292,146,14
-122,92,214,14,-168,153,341,590,634,307,156,24
-122,102,224,9,-173,163,341,605,649,317,165,34
-122,102,224,9,-173,163,346,619,663,322,175,34
-107,102,209,2,-158,156,346,629,678,346,195,58
-102,107,209,-2,-156,158,346,649,697,366,209,68
-97,112,209,-7,-153,161,346,663,717,380,219,78
-92,117,209,-12,-151,163,346,678,727,395,229,82
-92,131,224,-19,-158,178,346,683,741,400,234,82
-82,141,224,-29,-153,183,341,688,746,405,248,87
-78,161,239,-41,-158,200,341,688,746,405,248,92
-73,165,239,-46,-156,202,336,688,751,405,263,97
-68,161,229,-46,-148,195,341,688,751,414,263,102
-63,165,229,-51,-146,197,336,688,751,414,268,107
-58,170,229,-56,-143,200,331,688,751,424,273,117
-53,175,229,-61,-141,202,322,678,751,429,278,122
-39,185,224,-73,-131,204,302,668,741,429,283,126
-34,185,219,-75,-126,202,302,653,727,429,292,131
-29,190,219,-80,-124,204,287,634,717,429,297,136
-24,190,214,-82,-119,202,278,614,697,429,297,141
-29,190,219,-80,-124,204,268,590,678,419,287,141
-24,190,214,-82,-119,202,258,566,658,414,287,141
-19,190,209,-85,-114,200,244,536,634,405,278,141
-19,190,209,-85,-114,200,234,517,605,395,273,141
-9,180,190,-85,-100,185,214,488,580,375,268,146
0,180,180,-90,-90,180,204,458,556,366,263,146
0,175,175,-87,-87,175,190,434,522,351,248,146
4,170,165,-87,-80,168,185,405,497,336,239,136
4,156,151,-80,-73,153,165,370,468,317,239,141
4,146,141,-75,-68,143,156,346,444,297,229,136
4,141,136,-73,-65,139,141,326,414,287,214,131
4,131,126,-68,-61,129,136,297,380,268,204,126
-4,122,126,-58,-65,124,136,273,346,253,180,117
-4,117,122,-56,-63,119,126,253,322,224,175,102
-4,112,117,-53,-61,114,122,234,297,200,151,92
-4,107,112,-51,-58,109,112,214,273,190,151,82
-4,92,97,-43,-51,95,102,195,248,175,131,82
-4,92,97,-43,-51,95,92,170,224,156,117,78
-4,78,82,-36,-43,80,82,146,209,141,97,73
-4,73,78,-34,-41,75,78,122,190,131,87,58
-19,63,82,-21,-51,73,73,102,151,112,82,43
-24,53,78,-14,-51,65,68,92,136,102,73,43
-24,43,68,-9,-46,56,63,78,122,92,63,34
-24,34,58,-4,-41,46,58,58,107,82,58,29
-19,34,53,-7,-36,43,58,48,97,63,34,14
-19,34,53,-7,-36,43,53,34,82,53,24,9
-19,29,48,-4,-34,39,53,24,68,39,14,4
-24,24,48,0,-36,36,48,19,53,29,4,0
-24,9,34,7,-29,21,39,4,34,24,4,-14
-24,4,29,9,-26,17,34,0,24,14,0,-19
-24,-4,19,14,-21,7,29,-4,14,4,-4,-24
-29,-9,19,19,-24,4,24,-14,4,-4,-9,-29
-39,-9,29,24,-34,9,24,-19,14,4,-14,-24
-39,-14,24,26,-31,4,24,-29,4,0,-19,-24
-39,-14,24,26,-31,4,24,-34,0,-4,-24,-29
-43,-19,24,31,-34,2,24,-39,-4,-9,-29,-29
-34,-14,19,24,-26,2,24,-39,-19,-24,-34,-39
-34,-19,14,26,-24,-2,24,-43,-24,-29,-39,-39
-34,-19,14,26,-24,-2,24,-48,-29,-34,-39,-43
-34,-19,14,26,-24,-2,24,-53,-34,-39,-39,-43
-34,-29,4,31,-19,-12,34,-53,-29,-29,-48,-39
-34,-34,0,34,-17,-17,34,-58,-34,-34,-53,-39
-34,-34,0,34,-17,-17,29,-58,-39,-39,-53,-39
-34,-34,0,34,-17,-17,29,-58,-39,-39,-58,-43
-43,-34,9,39,-26,-12,29,-63,-53,-48,-63,-53
-48,-39,9,43,-29,-14,29,-63,-53,-53,-63,-53
-48,-39,9,43,-29,-14,29,-63,-53,-53,-63,-53
-48,-39,9,43,-29,-14,29,-68,-53,-53,-63,-58
-39,-39,0,39,-19,-19,29,-73,-63,-68,-73,-58
-43,-43,0,43,-21,-21,29,-73,-68,-73,-73,-63
-43,-43,0,43,-21,-21,29,-73,-68,-73,-78,-63
-43,-48,-4,46,-19,-26,29,-73,-73,-73,-78,-68
-43,-48,-4,46,-19,-26,29,-73,-73,-68,-82,-58
-43,-48,-4,46,-19,-26,29,-78,-73,-68,-87,-58
-43,-48,-4,46,-19,-26,29,-78,-73,-68,-87,-58
-43,-48,-4,46,-19,-26,29,-82,-73,-68,-87,-58
-43,-48,-4,46,-19,-26,39,-82,-78,-73,-78,-58
-43,-53,-9,48,-17,-31,39,-78,-78,-73,-82,-63
-43,-53,-9,48,-17,-31,43,-78,-78,-73,-82,-63
-43,-53,-9,48,-17,-31,43,-78,-78,-78,-87,-63
-43,-53,-9,48,-17,-31,34,-87,-78,-68,-78,-63
-48,-53,-4,51,-21,-29,34,-87,-78,-68,-78,-63
-48,-53,-4,51,-21,-29,34,-87,-82,-68,-78,-63
-53,-53,0,53,-26,-26,34,-92,-82,-73,-82,-68
-53,-48,4,51,-29,-21,34,-92,-82,-82,-92,-68
-53,-48,4,51,-29,-21,34,-92,-82,-82,-92,-68
-53,-48,4,51,-29,-21,34,-92,-78,-82,-92,-68
-53,-48,4,51,-29,-21,39,-97,-78,-82,-92,-73
-53,-58,-4,56,-24,-31,39,-97,-82,-92,-97,-73
-53,-58,-4,56,-24,-31,39,-97,-82,-97,-107,-73
-58,-58,0,58,-29,-29,39,-97,-82,-97,-112,-78
-63,-58,4,61,-34,-26,39,-97,-78,-92,-117,-78
-63,-58,4,61,-34,-26,29,-97,-87,-82,-112,-87
-63,-58,4,61,-34,-26,29,-97,-87,-82,-107,-87
-63,-58,4,61,-34,-26,34,-97,-87,-82,-102,-87
-63,-58,4,61,-34,-26,34,-97,-87,-82,-97,-87
-63,-58,4,61,-34,-26,48,-87,-78,-82,-107,-87
-68,-58,9,63,-39,-24,48,-87,-73,-82,-107,-87
-68,-58,9,63,-39,-24,48,-87,-73,-82,-107,-87
-68,-58,9,63,-39,-24,48,-87,-73,-82,-107,-87
-73,-68,4,70,-39,-31,58,-87,-73,-82,-107,-78
-73,-68,4,70,-39,-31,58,-82,-68,-78,-107,-78
-73,-68,4,70,-39,-31,63,-82,-68,-78,-107,-78
-73,-68,4,70,-39,-31,63,-82,-68,-78,-107,-82
-87,-68,19,78,-53,-24,53,-87,-68,-78,-97,-82
-87,-68,19,78,-53,-24,53,-87,-68,-78,-97,-82
-82,-68,14,75,-48,-26,53,-82,-68,-78,-97,-82
-82,-68,14,75,-48,-26,53,-82,-63,-78,-97,-82
-87,-63,24,75,-56,-19,53,-82,-63,-78,-97,-82
-87,-63,24,75,-56,-19,53,-82,-63,-73,-97,-82
-87,-63,24,75,-56,-19,53,-87,-63,-73,-97,-82
-87,-58,29,73,-58,-14,53,-87,-63,-73,-97,-78
-87,-48,39,68,-63,-4,53,-87,-63,-73,-102,-78
-92,-53,39,73,-65,-7,53,-82,-63,-73,-102,-78
-92,-53,39,73,-65,-7,53,-82,-63,-73,-102,-82
-92,-53,39,73,-65,-7,53,-87,-58,-73,-102,-82
-87,-53,34,70,-61,-9,63,-78,-58,-73,-92,-82
-87,-48,39,68,-63,-4,53,-78,-53,-73,-92,-87
-82,-48,34,65,-58,-7,53,-78,-53,-73,-92,-87
-78,-48,29,63,-53,-9,58,-87,-58,-68,-87,-87
-87,-48,39,68,-63,-4,58,-87,-58,-68,-78,-78
-87,-48,39,68,-63,-4,58,-87,-58,-68,-78,-78
-87,-48,39,68,-63,-4,58,-87,-58,-68,-78,-78
-87,-48,39,68,-63,-4,58,-87,-58,-68,-78,-78
-78,-43,34,61,-56,-4,48,-87,-68,-58,-78,-68
-78,-43,34,61,-56,-4,48,-87,-68,-58,-78,-68
-78,-43,34,61,-56,-4,43,-87,-68,-58,-82,-68
-82,-43,39,63,-61,-2,43,-87,-68,-58,-82,-63
-82,-39,43,61,-63,2,43,-87,-68,-68,-92,-73
-78,-39,39,58,-58,0,43,-87,-68,-68,-87,-73
-78,-34,43,56,-61,4,43,-87,-63,-63,-87,-73
-78,-29,48,53,-63,9,43,-87,-63,-58,-78,-68
-78,-24,53,51,-65,14,43,-87,-63,-63,-78,-68
-78,-19,58,48,-68,19,43,-87,-63,-63,-78,-63
-78,-14,63,46,-70,24,43,-87,-58,-58,-68,-58
-73,-4,68,39,-70,31,43,-87,-53,-58,-68,-58
-73,-9,63,41,-68,26,39,-87,-53,-58,-68,-53
-68,-4,63,36,-65,29,39,-87,-53,-58,-68,-53
-68,0,68,34,-68,34,39,-87,-48,-53,-63,-48
-68,4,73,31,-70,39,39,-87,-48,-53,-63,-48
-68,19,87,24,-78,53,39,-87,-58,-39,-63,-43
-63,24,87,19,-75,56,39,-87,-58,-39,-58,-43
-58,29,87,14,-73,58,39,-87,-58,-39,-58,-39
-53,34,87,9,-70,61,39,-87,-53,-34,-53,-39
-53,39,92,7,-73,65,43,-82,-39,-34,-39,-34
-53,39,92,7,-73,65,43,-82,-39,-29,-39,-34
-53,39,92,7,-73,65,43,-82,-39,-29,-39,-34
-48,39,87,4,-68,63,43,-78,-39,-29,-39,-34
-48,24,73,12,-61,48,48,-78,-43,-29,-39,-24
-48,14,63,17,-56,39,48,-82,-43,-29,-39,-29
-48,14,63,17,-56,39,48,-87,-48,-39,-48,-34
-48,9,58,19,-53,34,48,-92,-53,-48,-53,-39
-58,0,58,29,-58,29,58,-97,-68,-48,-63,-39
-58,0,58,29,-58,29,39,-102,-68,-48,-58,-34
-48,14,63,17,-56,39,24,-102,-68,-39,-48,-24
-39,29,68,4,-53,48,9,-107,-68,-34,-43,-19
-29,43,73,-7,-51,58,4,-112,-63,-19,-29,-9
-14,53,68,-19,-41,61,-9,-117,-68,-19,-29,-9
-4,58,63,-26,-34,61,-19,-122,-68,-19,-29,-9
0,58,58,-29,-29,58,-24,-126,-68,-29,-39,-9
0,48,48,-24,-24,48,-43,-131,-82,-53,-53,-29
0,43,43,-21,-21,43,-53,-141,-92,-63,-58,-34
0,39,39,-19,-19,39,-53,-141,-102,-68,-68,-39
0,34,34,-17,-17,34,-58,-151,-117,-78,-78,-43
0,19,19,-9,-9,19,-53,-161,-126,-92,-82,-48
0,14,14,-7,-7,14,-58,-175,-136,-97,-87,-48
4,14,9,-9,-2,12,-63,-180,-156,-102,-92,-48
9,14,4,-12,2,9,-68,-180,-156,-102,-92,-48
9,14,4,-12,2,9,-73,-180,-165,-112,-97,-39
19,14,-4,-17,12,4,-73,-175,-165,-112,-97,-34
19,14,-4,-17,12,4,-73,-175,-165,-112,-97,-34
19,9,-9,-14,14,0,-73,-170,-165,-112,-97,-34
9,-4,-14,-2,12,-9,-78,-175,-175,-102,-87,-43
9,-4,-14,-2,12,-9,-73,-175,-165,-102,-87,-39
9,-4,-14,-2,12,-9,-63,-165,-161,-97,-87,-39
0,-4,-4,2,2,-4,-58,-161,-156,-97,-87,-39
9,4,-4,-7,7,0,-43,-156,-146,-97,-87,-39
4,4,0,-4,2,2,-39,-151,-136,-92,-87,-39
-4,4,9,0,-7,7,-34,-151,-136,-92,-87,-39
-19,0,19,9,-19,9,-24,-151,-136,-97,-87,-39
-29,-4,24,17,-26,9,-9,-141,-136,-87,-78,-48
-39,-9,29,24,-34,9,-4,-141,-136,-87,-82,-48
-48,-14,34,31,-41,9,0,-141,-136,-87,-87,-53
-53,-29,24,41,-39,-2,9,-141,-136,-92,-92,-58
-63,-39,24,51,-43,-7,14,-141,-126,-87,-97,-53
-68,-48,19,58,-43,-14,14,-141,-126,-92,-102,-58
-73,-53,19,63,-46,-17,14,-146,-136,-97,-107,-63
-73,-63,9,68,-41,-26,9,-156,-141,-107,-112,-68
-82,-73,9,78,-46,-31,9,-156,-156,-117,-126,-82
-87,-78,9,82,-48,-34,14,-156,-161,-126,-131,-87
-92,-82,9,87,-51,-36,14,-156,-161,-126,-141,-92
-92,-87,4,90,-48,-41,14,-156,-165,-131,-146,-102
-107,-92,14,100,-61,-39,4,-156,-165,-136,-136,-97
-107,-102,4,104,-56,-48,9,-156,-165,-141,-141,-102
-107,-102,4,104,-56,-48,14,-156,-170,-141,-146,-102
-107,-107,0,107,-53,-53,14,-156,-170,-141,-146,-107
-102,-107,-4,104,-48,-56,14,-165,-170,-141,-156,-117
-102,-107,-4,104,-48,-56,14,-165,-170,-146,-156,-117
-97,-107,-9,102,-43,-58,14,-165,-170,-146,-156,-117
-97,-107,-9,102,-43,-58,14,-165,-175,-146,-156,-117
-97,-97,0,97,-48,-48,24,-170,-165,-156,-165,-126
-97,-97,0,97,-48,-48,29,-170,-165,-161,-165,-126
-102,-97,4,100,-53,-46,29,-170,-170,-161,-170,-131
-102,-97,4,100,-53,-46,29,-175,-170,-161,-175,-131
-107,-107,0,107,-53,-53,29,-175,-175,-156,-170,-126
-107,-107,0,107,-53,-53,34,-175,-165,-151,-170,-122
-117,-97,19,107,-68,-39,58,-161,-165,-141,-175,-126
-126,-97,29,112,-78,-34,82,-165,-161,-151,-175,-131
-156,-97,58,126,-107,-19,92,-156,-136,-141,-165,-126
-161,-97,63,129,-112,-17,117,-161,-112,-107,-151,-126
-165,-87,78,126,-122,-4,165,-146,-73,-82,-151,-122
-185,-78,107,131,-146,14,224,-107,-24,-53,-131,-117
-175,-58,117,117,-146,29,253,-87,29,-4,-78,-92
-151,-24,126,87,-139,51,234,-102,68,78,19,-39
-97,9,107,43,-102,58,185,-102,82,165,126,29
-24,63,87,-19,-56,75,78,-112,73,258,258,126
58,122,63,-90,-2,92,-92,-151,48,370,400,248
146,209,63,-178,41,136,-263,-175,39,492,561,370
239,283,43,-261,97,163,-395,-165,73,653,741,502
351,361,9,-356,170,185,-517,-126,136,824,936,634
478,429,-48,-453,263,190,-663,-58,214,1000,1137,771
619,502,-117,-561,368,192,-805,34,312,1171,1332,897
761,551,-209,-656,485,170,-961,146,366,1263,1478,1010
912,580,-331,-746,622,124,-1122,239,346,1273,1561,1098
1054,590,-463,-822,758,63,-1302,322,292,1224,1571,1171
1176,605,-570,-890,873,17,-1459,375,204,1127,1532,1210
1283,614,-668,-949,976,-26,-1615,375,87,985,1444,1215
1351,634,-717,-993,1034,-41,-1708,312,-73,805,1312,1190
1361,619,-741,-990,1051,-61,-1766,175,-292,570,1127,1137
1351,580,-771,-966,1061,-95,-1771,-14,-556,297,902,1049
1312,497,-814,-905,1063,-158,-1712,-161,-814,14,644,922
1259,356,-902,-807,1080,-273,-1610,-258,-1024,-273,366,751
1195,151,-1044,-673,1119,-446,-1468,-326,-1195,-546,78,546
1127,-34,-1161,-546,1144,-597,-1337,-409,-1332,-771,-151,351
1039,-122,-1161,-458,1100,-641,-1210,-458,-1395,-883,-307,234
976,-156,-1132,-409,1054,-644,-1098,-478,-1356,-917,-400,151
907,-175,-1083,-366,995,-629,-976,-483,-1298,-936,-483,63
834,-185,-1019,-324,927,-602,-863,-502,-1234,-922,-527,0
751,-156,-907,-297,829,-531,-741,-527,-1117,-839,-488,0
619,-73,-692,-273,656,-383,-629,-507,-927,-683,-385,53
434,4,-429,-219,431,-212,-488,-468,-717,-507,-263,112
292,34,-258,-163,275,-112,-366,-409,-551,-385,-204,107
219,24,-195,-122,207,-85,-283,-370,-458,-322,-175,68
146,19,-126,-82,136,-53,-219,-331,-385,-273,-151,39
63,4,-58,-34,61,-26,-146,-283,-331,-234,-151,0
0,-24,-24,12,12,-24,-78,-234,-302,-224,-170,-48
-29,-53,-24,41,-2,-39,-29,-195,-263,-219,-190,-92
-39,-63,-24,51,-7,-43,4,-161,-239,-214,-200,-112
-53,-87,-34,70,-9,-61,29,-141,-214,-204,-200,-126
-68,-107,-39,87,-14,-73,43,-131,-190,-195,-209,-131
-87,-117,-29,102,-29,-73,53,-131,-170,-190,-200,-131
-107,-126,-19,117,-43,-73,53,-126,-161,-190,-200,-136
-112,-126,-14,119,-48,-70,58,-126,-156,-190,-200,-141
-122,-126,-4,124,-58,-65,68,-131,-156,-190,-195,-146
-126,-126,0,126,-63,-63,78,-131,-156,-185,-195,-146
-126,-122,4,124,-65,-58,87,-122,-165,-185,-204,-151
-131,-122,9,126,-70,-56,87,-122,-156,-185,-204,-151
-131,-122,9,126,-70,-56,92,-117,-156,-185,-204,-151
-131,-122,9,126,-70,-56,97,-117,-151,-185,-204,-151
-131,-117,14,124,-73,-51,97,-117,-136,-180,-204,-156
-136,-117,19,126,-78,-48,97,-112,-131,-175,-204,-161
-141,-117,24,129,-82,-46,97,-112,-126,-175,-200,-165
-141,-117,24,129,-82,-46,102,-112,-126,-175,-200,-170
-141,-117,24,129,-82,-46,112,-97,-126,-170,-200,-161
-141,-122,19,131,-80,-51,112,-97,-126,-170,-200,-161
-141,-126,14,134,-78,-56,112,-97,-117,-170,-200,-165
-146,-131,14,139,-80,-58,117,-92,-112,-170,-200,-165
-146,-141,4,143,-75,-68,117,-87,-112,-156,-190,-156
-146,-141,4,143,-75,-68,122,-87,-107,-156,-190,-156
-146,-141,4,143,-75,-68,126,-87,-107,-156,-190,-156
-146,-141,4,143,-75,-68,126,-78,-102,-156,-185,-156
-146,-141,4,143,-75,-68,126,-82,-102,-161,-195,-156
-151,-141,9,146,-80,-65,126,-82,-102,-161,-195,-156
-151,-141,9,146,-80,-65,131,-78,-92,-156,-190,-156
-151,-141,9,146,-80,-65,131,-78,-87,-156,-190,-151
-141,-136,4,139,-73,-65,122,-78,-87,-151,-190,-161
-141,-131,9,136,-75,-61,122,-78,-82,-151,-190,-161
-141,-126,14,134,-78,-56,126,-68,-78,-151,-190,-161
-141,-122,19,131,-80,-51,126,-63,-78,-141,-190,-161
-151,-117,34,134,-92,-41,136,-58,-82,-141,-175,-161
-151,-117,34,134,-92,-41,136,-58,-78,-136,-175,-161
-151,-112,39,131,-95,-36,141,-48,-73,-136,-175,-161
-151,-112,39,131,-95,-36,141,-43,-68,-136,-170,-161
-151,-112,39,131,-95,-36,136,-39,-68,-136,-180,-161
-151,-112,39,131,-95,-36,136,-39,-58,-126,-180,-161
-151,-112,39,131,-95,-36,141,-34,-53,-122,-175,-161
-151,-112,39,131,-95,-36,141,-24,-48,-117,-175,-156
-141,-112,29,126,-85,-41,131,-19,-43,-122,-165,-146
-141,-112,29,126,-85,-41,131,-14,-34,-117,-156,-146
-141,-107,34,124,-87,-36,131,-4,-29,-117,-156,-146
-141,-102,39,122,-90,-31,136,0,-24,-107,-156,-141
-151,-112,39,131,-95,-36,131,-4,-9,-107,-161,-151
-151,-112,39,131,-95,-36,136,9,0,-102,-161,-151
-151,-107,43,129,-97,-31,146,9,9,-97,-156,-151
-151,-102,48,126,-100,-26,146,24,19,-92,-146,-151
-141,-102,39,122,-90,-31,146,34,24,-87,-141,-146
-141,-102,39,122,-90,-31,146,48,39,-82,-136,-146
-141,-102,39,122,-90,-31,146,63,48,-73,-131,-141
-141,-102,39,122,-90,-31,146,78,58,-68,-126,-141
-151,-82,68,117,-109,-7,151,82,58,-63,-122,-141
-151,-82,68,117,-109,-7,161,87,73,-48,-117,-131
-151,-82,68,117,-109,-7,161,92,87,-43,-112,-131
-151,-78,73,114,-112,-2,161,102,97,-39,-112,-131
-151,-78,73,114,-112,-2,165,112,97,-43,-117,-136
-146,-78,68,112,-107,-4,165,126,112,-29,-112,-136
-146,-73,73,109,-109,0,175,141,131,-19,-107,-136
-146,-68,78,107,-112,4,180,156,151,-9,-102,-136
-136,-63,73,100,-104,4,185,170,161,-9,-92,-126
-136,-58,78,97,-107,9,190,185,185,0,-82,-122
-136,-53,82,95,-109,14,200,204,195,9,-78,-122
-131,-53,78,92,-104,12,204,219,214,19,-68,-117
-131,-39,92,85,-112,26,209,229,229,29,-63,-112
-131,-34,97,82,-114,31,214,248,248,43,-58,-107
-131,-29,102,80,-117,36,224,263,263,63,-53,-102
-131,-24,107,78,-119,41,229,283,278,73,-39,-97
-131,-24,107,78,-119,41,224,312,292,73,-29,-92
-131,-19,112,75,-122,46,234,331,317,87,-19,-87
-131,-19,112,75,-122,46,239,351,341,102,-4,-82
-126,-19,107,73,-117,43,244,375,356,117,4,-73
-126,4,131,61,-129,68,253,385,366,141,24,-58
-126,14,141,56,-134,78,258,405,390,151,34,-53
-126,14,141,56,-134,78,263,424,414,165,43,-48
-122,24,146,48,-134,85,268,444,434,180,53,-39
-122,19,141,51,-131,80,268,453,448,190,63,-39
-122,29,151,46,-136,90,268,468,473,200,68,-39
-117,34,151,41,-134,92,273,488,497,214,82,-39
-117,43,161,36,-139,102,273,502,517,224,87,-29
-102,48,151,26,-126,100,273,522,536,234,97,-14
-92,63,156,14,-124,109,273,541,546,248,107,-4
-92,73,165,9,-129,119,273,561,561,258,117,4
-92,73,165,9,-129,119,278,580,575,263,126,4
-97,92,190,2,-143,141,283,575,575,273,126,9
-92,97,190,-2,-141,143,287,590,590,287,141,19
-87,102,190,-7,-139,146,292,600,605,297,151,29
-82,107,190,-12,-136,148,297,610,610,307,161,34
-82,107,190,-12,-136,148,287,624,624,317,175,43
-73,112,185,-19,-129,148,283,629,629,326,190,48
-68,126,195,-29,-131,161,283,629,629,331,190,53
-63,126,190,-31,-126,158,278,629,634,336,204,58
-48,141,190,-46,-119,165,263,619,634,326,195,53
-43,146,190,-51,-117,168,258,619,634,326,200,58
-39,151,190,-56,-114,170,253,619,634,336,204,68
-34,156,190,-61,-112,173,244,610,634,341,209,73
-39,156,195,-58,-117,175,244,610,629,351,224,78
-34,156,190,-61,-112,173,244,595,619,351,234,82
-29,161,190,-65,-109,175,229,575,614,351,239,87
-24,161,185,-68,-104,173,219,556,600,351,239,92
-19,151,170,-65,-95,161,219,551,590,351,239,97
-14,151,165,-68,-90,158,209,527,570,346,239,102
-9,151,161,-70,-85,156,195,497,546,336,229,107
-9,151,161,-70,-85,156,185,478,517,326,224,112
-9,151,161,-70,-85,156,175,448,502,312,224,117
0,151,151,-75,-75,151,165,419,478,307,224,117
0,146,146,-73,-73,146,151,395,444,297,214,117
4,141,136,-73,-65,139,146,366,419,287,209,107
4,146,141,-75,-68,143,136,341,400,268,209,112
4,136,131,-70,-63,134,126,317,375,248,200,107
4,131,126,-68,-61,129,112,297,346,239,185,102
4,122,117,-63,-56,119,107,268,312,219,175,97
4,102,97,-53,-46,100,102,244,297,219,151,92
4,97,92,-51,-43,95,97,224,273,195,146,82
4,92,87,-48,-41,90,97,204,248,175,122,78
4,87,82,-46,-39,85,92,185,224,170,122,73
-4,82,87,-39,-46,85,92,170,209,156,122,53
-4,82,87,-39,-46,85,82,151,185,136,107,48
-4,68,73,-31,-39,70,73,131,170,122,87,43
-4,63,68,-29,-36,65,68,112,151,112,78,29
0,58,58,-29,-29,58,63,82,122,92,63,24
-4,53,58,-24,-31,56,58,73,107,82,53,24
-4,48,53,-21,-29,51,53,58,92,73,43,14
-4,43,48,-19,-26,46,48,39,78,63,39,9
-9,24,34,-7,-21,29,39,39,68,53,29,14
-9,24,34,-7,-21,29,34,24,53,43,24,9
-9,19,29,-4,-19,24,34,14,39,29,19,4
-14,14,29,0,-21,21,29,9,24,19,14,0
-14,14,29,0,-21,21,29,-4,14,14,4,4
-14,14,29,0,-21,21,24,-9,4,4,0,0
-14,9,24,2,-19,17,19,-14,-4,-4,-4,-4
-19,9,29,4,-24,19,14,-24,-14,-14,-9,-9
-19,0,19,9,-19,9,14,-29,-24,-24,-24,-24
-19,-4,14,12,-17,4,14,-39,-34,-29,-29,-24
-19,-4,14,12,-17,4,14,-43,-39,-34,-34,-29
-24,-9,14,17,-19,2,14,-48,-43,-39,-39,-29
-34,-4,29,19,-31,12,24,-48,-48,-34,-34,-29
-34,-9,24,21,-29,7,24,-53,-53,-39,-39,-29
-34,-9,24,21,-29,7,24,-58,-58,-43,-39,-34
-34,-9,24,21,-29,7,24,-63,-63,-48,-39,-34
-43,-19,24,31,-34,2,24,-73,-68,-48,-39,-39
-43,-24,19,34,-31,-2,24,-78,-73,-53,-43,-39
-43,-24,19,34,-31,-2,19,-78,-78,-58,-43,-39
-43,-24,19,34,-31,-2,19,-78,-78,-58,-48,-43
-34,-24,9,29,-21,-7,9,-73,-82,-68,-58,-43
-39,-29,9,34,-24,-9,9,-73,-82,-73,-63,-43
-39,-29,9,34,-24,-9,9,-73,-82,-73,-68,-43
-39,-29,9,34,-24,-9,9,-78,-82,-73,-73,-48
-39,-39,0,39,-19,-19,19,-82,-87,-78,-73,-58
-43,-43,0,43,-21,-21,19,-82,-87,-82,-73,-63
-43,-43,0,43,-21,-21,19,-82,-82,-82,-78,-63
-43,-48,-4,46,-19,-26,19,-82,-82,-82,-78,-68
-43,-39,4,41,-24,-17,29,-82,-92,-78,-73,-58
-43,-39,4,41,-24,-17,29,-87,-92,-78,-78,-58
-43,-39,4,41,-24,-17,29,-87,-92,-78,-78,-58
-43,-39,4,41,-24,-17,29,-92,-92,-78,-78,-58
-53,-39,14,46,-34,-12,29,-92,-97,-73,-78,-58
-53,-43,9,48,-31,-17,29,-87,-97,-73,-82,-63
-53,-43,9,48,-31,-17,34,-87,-97,-73,-82,-63
-53,-43,9,48,-31,-17,34,-87,-97,-78,-87,-63
-63,-53,9,58,-36,-21,34,-87,-87,-87,-97,-68
-68,-53,14,61,-41,-19,34,-87,-87,-87,-97,-73
-68,-53,14,61,-41,-19,34,-87,-92,-87,-97,-78
-73,-53,19,63,-46,-17,34,-92,-92,-92,-102,-87
-68,-53,14,61,-41,-19,43,-82,-92,-92,-102,-78
-63,-48,14,56,-39,-17,43,-82,-92,-92,-102,-78
-58,-43,14,51,-36,-14,43,-82,-87,-92,-102,-78
-53,-39,14,46,-34,-12,48,-87,-87,-92,-102,-82
-63,-39,24,51,-43,-7,39,-87,-92,-82,-92,-73
-63,-39,24,51,-43,-7,39,-87,-92,-87,-97,-73
-68,-39,29,53,-48,-4,39,-87,-92,-87,-97,-78
-73,-39,34,56,-53,-2,39,-87,-87,-82,-97,-78
-73,-48,24,61,-48,-12,39,-87,-87,-82,-97,-78
-73,-48,24,61,-48,-12,39,-87,-87,-82,-97,-78
-73,-48,24,61,-48,-12,43,-87,-87,-82,-97,-78
-73,-48,24,61,-48,-12,43,-87,-87,-82,-97,-78
-73,-48,24,61,-48,-12,48,-87,-87,-82,-97,-68
-78,-48,29,63,-53,-9,48,-87,-82,-82,-97,-68
-78,-48,29,63,-53,-9,48,-87,-82,-82,-97,-68
-78,-48,29,63,-53,-9,48,-87,-82,-82,-97,-68
-82,-58,24,70,-53,-17,48,-87,-92,-92,-97,-78
-82,-58,24,70,-53,-17,48,-82,-87,-87,-97,-78
-82,-58,24,70,-53,-17,53,-82,-87,-87,-97,-78
-82,-58,24,70,-53,-17,53,-82,-87,-87,-97,-82
-87,-48,39,68,-63,-4,43,-97,-87,-97,-107,-92
-87,-48,39,68,-63,-4,43,-97,-87,-97,-107,-92
-82,-48,34,65,-58,-7,43,-92,-87,-97,-107,-92
-82,-48,34,65,-58,-7,43,-92,-82,-97,-107,-92
-87,-43,43,65,-65,0,43,-82,-82,-87,-97,-87
-87,-43,43,65,-65,0,43,-82,-82,-82,-97,-82
-87,-43,43,65,-65,0,43,-87,-82,-82,-97,-78
-87,-39,48,63,-68,4,43,-87,-82,-82,-97,-68
-78,-29,48,53,-63,9,43,-87,-82,-73,-92,-68
-82,-34,48,58,-65,7,43,-82,-82,-73,-92,-68
-82,-34,48,58,-65,7,43,-82,-82,-73,-92,-73
-82,-34,48,58,-65,7,43,-87,-78,-73,-92,-73
-78,-34,43,56,-61,4,53,-87,-78,-82,-92,-73
-78,-39,39,58,-58,0,53,-87,-92,-82,-92,-78
-68,-29,39,48,-53,4,48,-97,-97,-87,-97,-68
-78,-39,39,58,-58,0,48,-97,-97,-87,-107,-78
-78,-39,39,58,-58,0,48,-97,-97,-87,-107,-78
-78,-39,39,58,-58,0,48,-97,-97,-87,-107,-78
-78,-39,39,58,-58,0,48,-97,-97,-87,-107,-78
-87,-34,53,61,-70,9,39,-97,-107,-87,-97,-78
-87,-34,53,61,-70,9,39,-97,-107,-87,-97,-78
-87,-34,53,61,-70,9,34,-97,-107,-87,-102,-78
-92,-34,58,63,-75,12,34,-97,-107,-87,-102,-73
-82,-29,53,56,-68,12,43,-97,-107,-87,-102,-82
-78,-29,48,53,-63,9,43,-97,-107,-87,-97,-82
-78,-24,53,51,-65,14,43,-97,-102,-82,-97,-82
-78,-19,58,48,-68,19,43,-97,-102,-78,-87,-78
-78,-24,53,51,-65,14,34,-107,-92,-82,-87,-78
-78,-19,58,48,-68,19,34,-107,-92,-82,-87,-73
-78,-14,63,46,-70,24,34,-107,-87,-78,-78,-68
-73,-4,68,39,-70,31,34,-107,-82,-78,-78,-68
-73,0,73,36,-73,36,29,-97,-92,-68,-87,-53
-68,4,73,31,-70,39,29,-97,-92,-68,-87,-53
-68,9,78,29,-73,43,29,-97,-87,-63,-82,-48
-68,14,82,26,-75,48,29,-97,-87,-63,-82,-48
-68,19,87,24,-78,53,39,-97,-87,-68,-73,-53
-63,24,87,19,-75,56,39,-97,-87,-68,-68,-53
-58,29,87,14,-73,58,39,-97,-87,-68,-68,-48
-53,34,87,9,-70,61,39,-97,-82,-63,-63,-48
-43,39,82,2,-63,61,43,-92,-87,-63,-68,-43
-43,39,82,2,-63,61,43,-92,-87,-58,-68,-43
-43,39,82,2,-63,61,43,-92,-87,-58,-68,-43
-39,39,78,0,-58,58,43,-87,-87,-58,-68,-43
-43,24,68,9,-56,46,39,-97,-92,-58,-58,-43
-48,14,63,17,-56,39,39,-102,-92,-58,-58,-48
-53,14,68,19,-61,41,39,-107,-97,-68,-68,-53
-58,9,68,24,-63,39,39,-112,-102,-78,-73,-58
-48,14,63,17,-56,39,39,-107,-97,-68,-73,-58
-48,19,68,14,-58,43,19,-112,-97,-68,-68,-53
-39,39,78,0,-58,58,4,-112,-97,-58,-58,-43
-29,58,87,-14,-58,73,-9,-117,-97,-53,-53,-39
-24,53,78,-14,-51,65,-24,-122,-97,-53,-58,-29
-14,53,68,-19,-41,61,-39,-126,-107,-58,-58,-29
-9,48,58,-19,-34,53,-48,-131,-112,-63,-58,-29
-9,39,48,-14,-29,43,-53,-136,-117,-78,-68,-29
-9,39,48,-14,-29,43,-73,-146,-141,-92,-73,-39
-9,34,43,-12,-26,39,-82,-161,-151,-102,-78,-43
-9,29,39,-9,-24,34,-82,-165,-161,-107,-87,-48
-9,24,34,-7,-21,29,-87,-180,-175,-117,-97,-53
-9,29,39,-9,-24,34,-87,-185,-175,-126,-92,-48
-9,24,34,-7,-21,29,-87,-195,-185,-126,-97,-48
-4,24,29,-9,-17,26,-87,-195,-204,-126,-102,-48
0,24,24,-12,-12,24,-87,-190,-204,-122,-102,-48
0,14,14,-7,-7,14,-87,-200,-195,-122,-97,-39
9,14,4,-12,2,9,-82,-195,-195,-122,-97,-34
9,14,4,-12,2,9,-78,-195,-195,-122,-97,-34
9,9,0,-9,4,4,-73,-190,-195,-122,-97,-34
0,4,4,-2,-2,4,-68,-175,-195,-112,-87,-43
0,4,4,-2,-2,4,-63,-175,-185,-112,-87,-39
0,4,4,-2,-2,4,-53,-165,-180,-107,-87,-39
-9,4,14,2,-12,9,-48,-161,-175,-107,-87,-39
-19,4,24,7,-21,14,-34,-156,-165,-107,-78,-39
-24,4,29,9,-26,17,-29,-151,-156,-102,-78,-39
-34,4,39,14,-36,21,-24,-151,-156,-102,-78,-39
-48,0,48,24,-48,24,-14,-151,-156,-107,-78,-39
-53,-14,39,34,-46,12,-19,-151,-165,-107,-87,-53
-58,-19,39,39,-48,9,-14,-151,-165,-107,-92,-58
-63,-24,39,43,-51,7,-9,-151,-165,-107,-97,-68
-63,-39,24,51,-43,-7,0,-151,-165,-112,-102,-78
-73,-39,34,56,-53,-2,4,-151,-165,-126,-117,-82
-78,-48,29,63,-53,-9,4,-151,-165,-131,-122,-87
-82,-53,29,68,-56,-12,4,-156,-175,-136,-126,-92
-82,-63,19,73,-51,-21,0,-165,-180,-146,-131,-97
-92,-73,19,82,-56,-26,0,-175,-185,-136,-126,-92
-97,-78,19,87,-58,-29,4,-175,-190,-146,-131,-97
-102,-82,19,92,-61,-31,4,-175,-190,-146,-141,-102
-102,-87,14,95,-58,-36,4,-175,-195,-151,-146,-112
-97,-82,14,90,-56,-34,-4,-165,-195,-146,-136,-107
-97,-92,4,95,-51,-43,0,-165,-195,-151,-141,-112
-97,-92,4,95,-51,-43,4,-165,-200,-151,-146,-112
-97,-97,0,97,-48,-48,4,-165,-200,-151,-146,-117
-102,-97,4,100,-53,-46,14,-175,-200,-161,-156,-126
-102,-97,4,100,-53,-46,14,-175,-200,-165,-156,-126
-97,-97,0,97,-48,-48,14,-175,-200,-165,-156,-126
-97,-97,0,97,-48,-48,14,-175,-204,-165,-156,-126
-97,-97,0,97,-48,-48,14,-180,-204,-156,-156,-126
-97,-97,0,97,-48,-48,19,-180,-204,-161,-156,-126
-102,-97,4,100,-53,-46,19,-180,-209,-161,-161,-131
-102,-97,4,100,-53,-46,19,-185,-209,-161,-165,-131
-107,-97,9,102,-58,-43,29,-195,-195,-165,-170,-126
-117,-87,29,102,-73,-29,43,-185,-195,-170,-180,-131
-126,-87,39,107,-82,-24,68,-190,-195,-170,-185,-136
-146,-78,68,112,-107,-4,92,-185,-180,-170,-195,-141
-156,-78,78,117,-117,0,122,-185,-156,-161,-185,-146
-180,-68,112,124,-146,21,175,-170,-122,-136,-170,-146
-175,-58,117,117,-146,29,224,-156,-73,-92,-131,-131
-165,-29,136,97,-151,53,224,-156,-24,-14,-73,-107
-136,0,136,68,-136,68,195,-156,0,73,19,-43
-82,43,126,19,-104,85,107,-161,-9,156,136,39
-9,97,107,-43,-58,102,-19,-190,-34,244,263,136
73,161,87,-117,-7,124,-204,-229,-73,356,414,253
165,248,82,-207,41,165,-356,-258,-78,497,595,385
263,326,63,-295,100,195,-478,-244,-29,678,795,527
385,409,24,-397,180,217,-590,-195,53,888,1024,668
497,478,-19,-488,258,229,-712,-117,165,1098,1259,819
614,536,-78,-575,346,229,-858,-9,273,1283,1468,966
746,570,-175,-658,461,197,-1010,102,331,1366,1595,1073
897,580,-317,-739,607,131,-1166,195,317,1371,1664,1156
1029,590,-439,-810,734,75,-1327,287,278,1322,1678,1224
1151,610,-541,-880,846,34,-1478,351,204,1224,1649,1259
1244,624,-619,-934,932,2,-1605,336,97,1088,1571,1278
1283,634,-649,-958,966,-7,-1673,258,-58,907,1434,1263
1293,624,-668,-958,980,-21,-1698,117,-278,658,1234,1200
1273,580,-692,-927,983,-56,-1688,-39,-536,375,1000,1107
1234,483,-751,-858,993,-134,-1615,-170,-771,82,727,971
1166,322,-844,-744,1005,-261,-1498,-239,-961,-219,429,775
1112,112,-1000,-612,1056,-444,-1376,-297,-1141,-517,131,556
1029,-53,-1083,-488,1056,-568,-1244,-375,-1293,-732,-97,390
961,-122,-1083,-419,1022,-602,-1112,-419,-1332,-829,-239,273
912,-151,-1063,-380,988,-607,-995,-409,-1278,-863,-326,195
858,-165,-1024,-346,941,-595,-883,-429,-1210,-878,-400,112
771,-165,-936,-302,854,-551,-780,-463,-1141,-849,-434,63
678,-117,-795,-280,736,-456,-678,-483,-1010,-746,-400,78
517,-39,-556,-239,536,-297,-566,-478,-824,-585,-292,126
336,14,-322,-175,329,-153,-434,-439,-644,-448,-219,141
229,24,-204,-126,217,-90,-341,-390,-531,-361,-195,112
165,4,-161,-85,163,-78,-278,-351,-463,-326,-185,87
102,-4,-107,-48,104,-56,-214,-322,-400,-283,-175,48
39,-19,-58,-9,48,-39,-141,-292,-336,-253,-170,0
-14,-53,-39,34,12,-46,-78,-244,-292,-234,-180,-58
-39,-82,-43,61,2,-63,-29,-204,-263,-224,-190,-97
-58,-92,-34,75,-12,-63,9,-175,-253,-219,-209,-122
-68,-112,-43,90,-12,-78,34,-151,-229,-214,-219,-131
-73,-126,-53,100,-9,-90,48,-141,-204,-204,-219,-136
-87,-136,-48,112,-19,-92,63,-131,-190,-204,-219,-141
-97,-126,-29,112,-34,-78,73,-141,-170,-200,-209,-141
-107,-126,-19,117,-43,-73,78,-136,-165,-200,-209,-146
-112,-126,-14,119,-48,-70,78,-136,-165,-200,-209,-151
-122,-126,-4,124,-58,-65,82,-141,-170,-200,-204,-156
-126,-126,0,126,-63,-63,87,-141,-175,-195,-204,-156
-126,-131,-4,129,-61,-68,87,-141,-175,-195,-214,-170
-131,-131,0,131,-65,-65,87,-141,-165,-195,-214,-170
-131,-131,0,131,-65,-65,92,-136,-165,-195,-214,-170
-131,-131,0,131,-65,-65,97,-136,-161,-195,-214,-170
-131,-136,-4,134,-63,-70,97,-126,-156,-190,-214,-170
-136,-136,0,136,-68,-68,97,-122,-151,-185,-214,-170
-141,-136,4,139,-73,-65,97,-122,-146,-185,-209,-170
-141,-136,4,139,-73,-65,102,-122,-146,-185,-209,-170
-151,-131,19,141,-85,-56,102,-117,-146,-180,-209,-170
-151,-131,19,141,-85,-56,102,-117,-146,-180,-209,-170
-151,-131,19,141,-85,-56,102,-117,-136,-180,-209,-175
-156,-131,24,143,-90,-53,107,-112,-131,-180,-209,-175
-146,-131,14,139,-80,-58,107,-107,-122,-175,-209,-165
-146,-131,14,139,-80,-58,112,-107,-117,-175,-209,-165
-146,-131,14,139,-80,-58,117,-107,-117,-175,-209,-165
-146,-131,14,139,-80,-58,117,-97,-112,-175,-204,-165
-146,-131,14,139,-80,-58,126,-102,-122,-170,-204,-165
-151,-131,19,141,-85,-56,126,-102,-122,-170,-204,-165
-151,-131,19,141,-85,-56,131,-97,-112,-165,-200,-165
-151,-131,19,141,-85,-56,131,-97,-107,-165,-200,-161
-151,-131,19,141,-85,-56,122,-87,-107,-161,-200,-161
-151,-131,19,141,-85,-56,122,-87,-102,-161,-200,-161
-151,-131,19,141,-85,-56,126,-78,-97,-161,-200,-161
-151,-131,19,141,-85,-56,126,-73,-97,-151,-200,-161
-151,-126,24,139,-87,-51,117,-78,-82,-151,-195,-161
-151,-126,24,139,-87,-51,117,-78,-78,-146,-195,-161
-151,-122,29,136,-90,-46,122,-68,-73,-146,-195,-161
-151,-122,29,136,-90,-46,122,-63,-68,-146,-190,-161
-141,-122,19,131,-80,-51,126,-58,-68,-146,-180,-161
-141,-122,19,131,-80,-51,126,-58,-58,-136,-180,-161
-141,-122,19,131,-80,-51,131,-53,-53,-131,-175,-161
-141,-122,19,131,-80,-51,131,-43,-48,-126,-175,-156
-151,-122,29,136,-90,-46,141,-39,-43,-122,-185,-156
-151,-122,29,136,-90,-46,141,-34,-34,-117,-175,-156
-151,-117,34,134,-92,-41,141,-24,-29,-117,-175,-156
-151,-112,39,131,-95,-36,146,-19,-24,-107,-175,-151
-151,-112,39,131,-95,-36,141,-14,-9,-107,-170,-151
-151,-112,39,131,-95,-36,146,0,0,-102,-170,-151
-151,-107,43,129,-97,-31,156,0,9,-97,-165,-151
-151,-102,48,126,-100,-26,156,14,19,-92,-156,-151
-141,-102,39,122,-90,-31,156,19,24,-87,-151,-146
-141,-102,39,122,-90,-31,156,29,39,-82,-146,-146
-141,-102,39,122,-90,-31,156,39,48,-73,-141,-141
-141,-102,39,122,-90,-31,156,48,58,-68,-136,-141
-141,-92,48,117,-95,-21,161,58,78,-63,-131,-141
-141,-92,48,117,-95,-21,170,68,92,-48,-126,-131
-141,-92,48,117,-95,-21,170,78,107,-43,-122,-131
-141,-87,53,114,-97,-17,170,92,117,-39,-122,-131
-141,-78,63,109,-102,-7,165,102,126,-34,-117,-126
-136,-78,58,107,-97,-9,165,117,141,-19,-112,-126
-136,-73,63,104,-100,-4,175,131,161,-9,-107,-126
-136,-68,68,102,-102,0,180,146,180,0,-102,-126
-136,-63,73,100,-104,4,185,161,190,9,-92,-117
-136,-58,78,97,-107,9,190,175,214,19,-82,-112
-136,-53,82,95,-109,14,200,195,224,29,-78,-112
-131,-53,78,92,-104,12,204,209,244,39,-68,-107
-131,-48,82,90,-107,17,219,229,253,39,-63,-112
-131,-43,87,87,-109,21,224,248,278,53,-58,-107
-131,-39,92,85,-112,26,234,263,297,73,-53,-102
-131,-34,97,82,-114,31,239,283,317,82,-39,-97
-131,-29,102,80,-117,36,244,302,331,102,-29,-82
-131,-19,112,75,-122,46,253,322,356,117,-19,-78
-131,-14,117,73,-124,51,258,341,380,131,-4,-73
-126,-9,117,68,-122,53,263,366,395,146,4,-63
-117,-4,112,61,-114,53,263,380,414,151,14,-68
-117,4,122,56,-119,63,268,395,439,161,24,-63
-117,4,122,56,-119,63,273,409,463,175,34,-58
-112,14,126,48,-119,70,278,424,483,190,43,-48
-117,9,126,53,-122,68,283,434,488,195,48,-43
-122,19,141,51,-131,80,287,448,512,209,58,-39
-122,24,146,48,-134,85,297,468,536,229,78,-34
-126,34,161,46,-143,97,302,483,556,244,87,-19
-112,48,161,31,-136,104,292,497,575,253,107,-4
-102,63,165,19,-134,114,292,512,585,268,117,4
-102,73,175,14,-139,124,292,527,600,278,126,14
-102,73,175,14,-139,124,297,541,614,283,136,14
-97,92,190,2,-143,141,297,536,614,292,136,19
-92,97,190,-2,-141,143,297,551,629,307,151,29
-87,102,190,-7,-139,146,297,561,644,317,161,39
-82,107,190,-12,-136,148,297,570,649,326,170,43
-82,112,195,-14,-139,153,297,575,663,326,175,53
-73,112,185,-19,-129,148,292,580,668,336,190,58
-68,122,190,-26,-129,156,292,580,668,341,190,63
-63,117,180,-26,-122,148,287,580,673,346,204,68
-68,122,190,-26,-129,156,292,570,663,346,204,73
-63,126,190,-31,-126,158,287,570,663,346,209,78
-58,131,190,-36,-124,161,283,570,663,356,214,87
-53,136,190,-41,-122,163,273,561,663,361,219,92
-48,126,175,-39,-112,151,263,541,644,361,224,97
-43,126,170,-41,-107,148,263,527,629,361,234,102
-39,131,170,-46,-104,151,248,507,619,361,239,107
-34,131,165,-48,-100,148,239,488,600,361,239,112
-39,131,170,-46,-104,151,219,473,580,341,239,112
-34,131,165,-48,-100,148,209,448,561,336,239,112
-29,131,161,-51,-95,146,195,419,536,326,229,112
-29,131,161,-51,-95,146,185,400,507,317,224,112
-29,131,161,-51,-95,146,175,390,492,302,219,117
-19,131,151,-56,-85,141,165,361,468,297,214,117
-19,126,146,-53,-82,136,151,336,434,287,200,117
-14,122,136,-53,-75,129,146,307,409,278,190,107
-4,126,131,-61,-68,129,136,273,390,248,190,102
-4,117,122,-56,-63,119,126,248,366,229,180,97
-4,112,117,-53,-61,114,112,229,336,219,165,92
-4,102,107,-48,-56,104,107,200,302,200,156,87
-14,82,97,-34,-56,90,102,185,278,195,131,82
-14,78,92,-31,-53,85,97,165,253,175,126,73
-14,73,87,-29,-51,80,97,146,229,161,102,68
-14,68,82,-26,-48,75,92,126,204,161,102,63
-14,58,73,-21,-43,65,92,102,190,136,102,53
-14,63,78,-24,-46,70,82,82,165,117,87,48
-14,53,68,-19,-41,61,73,63,151,102,68,43
-14,53,68,-19,-41,61,68,43,131,92,58,29
-19,39,58,-9,-39,48,53,29,112,82,53,24
-24,34,58,-4,-41,46,48,24,97,73,43,24
-24,29,53,-2,-39,41,43,14,82,63,34,14
-24,24,48,0,-36,36,39,0,68,53,29,9
-29,14,43,7,-36,29,48,0,68,53,19,14
-29,14,43,7,-36,29,43,-14,53,43,14,9
-29,9,39,9,-34,24,43,-24,39,29,9,4
-34,4,39,14,-36,21,39,-29,24,19,4,0
-34,0,34,17,-34,17,39,-43,4,14,-4,4
-34,-4,29,19,-31,12,34,-48,-4,4,-9,0
-34,-14,19,24,-26,2,29,-53,-14,-4,-14,-4
-39,-19,19,29,-29,0,24,-63,-24,-14,-19,-9
-39,-19,19,29,-29,0,24,-58,-14,-14,-24,-24
-39,-24,14,31,-26,-4,24,-68,-24,-19,-29,-24
-39,-24,14,31,-26,-4,24,-73,-29,-24,-34,-29
-43,-29,14,36,-29,-7,24,-78,-34,-29,-39,-29
-43,-24,19,34,-31,-2,34,-68,-39,-34,-43,-39
-43,-29,14,36,-29,-7,34,-73,-43,-39,-48,-39
-43,-29,14,36,-29,-7,34,-78,-48,-43,-48,-43
-43,-29,14,36,-29,-7,34,-82,-53,-48,-48,-43
-43,-29,14,36,-29,-7,34,-92,-58,-48,-48,-39
-43,-34,9,39,-26,-12,34,-97,-63,-53,-53,-39
-43,-34,9,39,-26,-12,29,-97,-68,-58,-53,-39
-43,-34,9,39,-26,-12,29,-97,-68,-58,-58,-43
-43,-34,9,39,-26,-12,29,-102,-73,-68,-63,-43
-48,-39,9,43,-29,-14,29,-102,-73,-73,-63,-43
-48,-39,9,43,-29,-14,29,-102,-73,-73,-63,-43
-48,-39,9,43,-29,-14,29,-107,-73,-73,-63,-48
-48,-39,9,43,-29,-14,19,-112,-73,-68,-73,-48
-53,-43,9,48,-31,-17,19,-112,-78,-73,-73,-53
-53,-43,9,48,-31,-17,19,-112,-78,-73,-78,-53
-53,-48,4,51,-29,-21,19,-112,-82,-73,-78,-58
-43,-39,4,41,-24,-17,19,-112,-92,-87,-82,-58
-43,-39,4,41,-24,-17,19,-117,-92,-87,-87,-58
-43,-39,4,41,-24,-17,19,-117,-92,-87,-87,-58
-43,-39,4,41,-24,-17,19,-122,-92,-87,-87,-58
-43,-48,-4,46,-19,-26,29,-122,-97,-92,-87,-58
-43,-53,-9,48,-17,-31,29,-117,-97,-92,-92,-63
-43,-53,-9,48,-17,-31,34,-117,-97,-92,-92,-63
-43,-53,-9,48,-17,-31,34,-117,-97,-97,-97,-63
-43,-53,-9,48,-17,-31,24,-117,-97,-87,-97,-63
-48,-53,-4,51,-21,-29,24,-117,-97,-87,-97,-63
-48,-53,-4,51,-21,-29,24,-117,-102,-87,-97,-63
-53,-53,0,53,-26,-26,24,-122,-102,-92,-102,-68
-63,-58,4,61,-34,-26,34,-122,-92,-92,-92,-68
-63,-58,4,61,-34,-26,34,-122,-92,-92,-92,-68
-63,-58,4,61,-34,-26,34,-122,-87,-92,-92,-68
-63,-58,4,61,-34,-26,39,-126,-87,-92,-92,-73
-63,-58,4,61,-34,-26,29,-117,-92,-82,-92,-73
-63,-58,4,61,-34,-26,29,-117,-92,-87,-97,-73
-68,-58,9,63,-39,-24,29,-117,-92,-87,-97,-78
-73,-58,14,65,-43,-21,29,-117,-87,-82,-97,-78
-73,-48,24,61,-48,-12,29,-117,-87,-82,-97,-68
-73,-48,24,61,-48,-12,29,-117,-87,-82,-97,-68
-73,-48,24,61,-48,-12,34,-117,-87,-82,-97,-68
-73,-48,24,61,-48,-12,34,-117,-87,-82,-97,-68
-63,-39,24,51,-43,-7,39,-117,-78,-82,-97,-68
-68,-39,29,53,-48,-4,39,-117,-73,-82,-97,-68
-68,-39,29,53,-48,-4,39,-117,-73,-82,-97,-68
-68,-39,29,53,-48,-4,39,-117,-73,-82,-97,-68
-73,-39,34,56,-53,-2,39,-117,-73,-82,-87,-78
-73,-39,34,56,-53,-2,39,-112,-68,-78,-87,-78
-73,-39,34,56,-53,-2,43,-112,-68,-78,-87,-78
-73,-39,34,56,-53,-2,43,-112,-68,-78,-87,-82
-78,-39,39,58,-58,0,43,-117,-68,-68,-87,-73
-78,-39,39,58,-58,0,43,-117,-68,-68,-87,-73
-73,-39,34,56,-53,-2,43,-112,-68,-68,-87,-73
-73,-39,34,56,-53,-2,43,-112,-63,-68,-87,-73
-78,-43,34,61,-56,-4,43,-112,-63,-68,-87,-73
-78,-43,34,61,-56,-4,43,-112,-63,-63,-87,-73
-78,-43,34,61,-56,-4,43,-117,-63,-63,-87,-73
-78,-39,39,58,-58,0,43,-117,-63,-63,-87,-68
-87,-39,48,63,-68,4,43,-107,-63,-63,-82,-68
-92,-43,48,68,-70,2,43,-112,-63,-73,-82,-78
-82,-43,39,63,-61,-2,43,-112,-63,-73,-82,-73
-82,-43,39,63,-61,-2,43,-107,-58,-73,-82,-63
-78,-39,39,58,-58,0,39,-117,-58,-68,-78,-68
-78,-39,39,58,-58,0,39,-117,-58,-68,-87,-78
-78,-39,39,58,-58,0,39,-117,-58,-68,-87,-78
-78,-39,39,58,-58,0,39,-117,-58,-68,-87,-78
-78,-39,39,58,-58,0,39,-117,-58,-68,-87,-78
-78,-34,43,56,-61,4,39,-107,-68,-78,-78,-78
-78,-34,43,56,-61,4,39,-107,-68,-78,-78,-78
-78,-34,43,56,-61,4,34,-107,-68,-78,-82,-78
-82,-34,48,58,-65,7,34,-107,-68,-78,-82,-73
-73,-39,34,56,-53,-2,43,-117,-78,-68,-92,-73
-68,-39,29,53,-48,-4,43,-117,-78,-68,-87,-73
-68,-34,34,51,-51,0,43,-117,-73,-63,-87,-73
-68,-29,39,48,-53,4,43,-117,-73,-58,-78,-68
-78,-24,53,51,-65,14,43,-117,-63,-63,-78,-58
-78,-19,58,48,-68,19,43,-117,-63,-63,-78,-53
-78,-14,63,46,-70,24,43,-117,-58,-58,-68,-48
-73,-4,68,39,-70,31,43,-117,-53,-58,-68,-48
-73,9,82,31,-78,46,39,-117,-53,-58,-58,-43
-68,14,82,26,-75,48,39,-117,-53,-58,-58,-43
-68,19,87,24,-78,53,39,-117,-48,-53,-53,-39
-68,24,92,21,-80,58,39,-117,-48,-53,-53,-39
-68,19,87,24,-78,53,29,-117,-48,-39,-43,-34
-63,24,87,19,-75,56,29,-117,-48,-39,-39,-34
-58,29,87,14,-73,58,29,-117,-48,-39,-39,-29
-53,34,87,9,-70,61,29,-117,-43,-34,-34,-29
-53,39,92,7,-73,65,34,-112,-39,-34,-39,-24
-53,39,92,7,-73,65,34,-112,-39,-29,-39,-24
-53,39,92,7,-73,65,34,-112,-39,-29,-39,-24
-48,39,87,4,-68,63,34,-107,-39,-29,-39,-24
-48,34,82,7,-65,58,48,-107,-43,-39,-39,-34
-48,24,73,12,-61,48,48,-112,-43,-39,-39,-39
-48,24,73,12,-61,48,48,-117,-48,-48,-48,-43
-48,19,68,14,-58,43,48,-122,-53,-58,-53,-48
-48,9,58,19,-53,34,48,-136,-58,-58,-63,-48
-48,9,58,19,-53,34,29,-141,-58,-58,-58,-43
-39,24,63,7,-51,43,14,-141,-58,-48,-48,-34
-29,39,68,-4,-48,53,0,-146,-58,-43,-43,-29
-34,29,63,2,-48,46,-24,-141,-58,-29,-39,-19
-24,34,58,-4,-41,46,-39,-146,-68,-29,-39,-19
-19,34,53,-7,-36,43,-48,-151,-73,-29,-39,-19
-19,29,48,-4,-34,39,-53,-156,-78,-39,-48,-19
-9,19,29,-4,-19,24,-53,-161,-92,-63,-53,-29
-9,14,24,-2,-17,19,-63,-170,-102,-73,-58,-34
-9,9,19,0,-14,14,-63,-170,-112,-78,-68,-39
-9,4,14,2,-12,9,-68,-180,-126,-87,-78,-43
-9,0,9,4,-9,4,-82,-190,-136,-102,-82,-48
-9,-4,4,7,-7,0,-87,-204,-146,-107,-87,-48
-4,-4,0,4,-2,-2,-92,-209,-165,-112,-92,-48
0,-4,-4,2,2,-4,-97,-209,-165,-112,-92,-48
0,0,0,0,0,0,-87,-200,-165,-102,-87,-39
9,4,-4,-7,7,0,-82,-195,-165,-102,-87,-34
9,9,0,-9,4,4,-78,-195,-165,-102,-87,-34
9,9,0,-9,4,4,-73,-190,-165,-102,-87,-34
19,-4,-24,-7,21,-14,-58,-195,-165,-102,-87,-43
19,-4,-24,-7,21,-14,-53,-195,-156,-102,-87,-39
19,-4,-24,-7,21,-14,-43,-185,-151,-97,-87,-39
9,-4,-14,-2,12,-9,-39,-180,-146,-97,-87,-39
0,-4,-4,2,2,-4,-43,-175,-146,-97,-78,-29
-4,-4,0,4,-2,-2,-39,-170,-136,-92,-78,-29
-14,-4,9,9,-12,2,-34,-170,-136,-92,-78,-29
-29,-9,19,19,-24,4,-24,-170,-136,-97,-78,-29
-39,-14,24,26,-31,4,-19,-170,-136,-97,-78,-48
-48,-19,29,34,-39,4,-14,-170,-136,-97,-82,-48
-58,-24,34,41,-46,4,-9,-170,-136,-97,-87,-53
-63,-39,24,51,-43,-7,0,-170,-136,-102,-92,-58
-63,-48,14,56,-39,-17,4,-170,-136,-97,-107,-63
-68,-58,9,63,-39,-24,4,-170,-136,-102,-112,-68
-73,-63,9,68,-41,-26,4,-175,-146,-107,-117,-73
-73,-73,0,73,-36,-36,0,-185,-151,-117,-122,-78
-73,-73,0,73,-36,-36,0,-185,-156,-126,-117,-82
-78,-78,0,78,-39,-39,4,-185,-161,-136,-122,-87
-82,-82,0,82,-41,-41,4,-185,-161,-136,-131,-92
-82,-87,-4,85,-39,-46,4,-185,-165,-141,-136,-102
-97,-92,4,95,-51,-43,4,-185,-165,-136,-136,-97
-97,-102,-4,100,-46,-53,9,-185,-165,-141,-141,-102
-97,-102,-4,100,-46,-53,14,-185,-170,-141,-146,-102
-97,-107,-9,102,-43,-58,14,-185,-170,-141,-146,-107
-102,-107,-4,104,-48,-56,24,-185,-170,-141,-156,-117
-102,-107,-4,104,-48,-56,24,-185,-170,-146,-156,-117
-97,-107,-9,102,-43,-58,24,-185,-170,-146,-156,-117
-97,-107,-9,102,-43,-58,24,-185,-175,-146,-156,-117
-97,-107,-9,102,-43,-58,14,-190,-175,-156,-156,-107
-97,-107,-9,102,-43,-58,19,-190,-175,-161,-156,-107
-102,-107,-4,104,-48,-56,19,-190,-180,-161,-161,-112
-102,-107,-4,104,-48,-56,19,-195,-180,-161,-165,-112
-107,-107,0,107,-53,-53,29,-195,-185,-165,-170,-126
-117,-107,9,112,-63,-48,43,-204,-185,-170,-180,-131
-126,-107,19,117,-73,-43,58,-209,-185,-180,-195,-136
-136,-107,29,122,-82,-39,73,-214,-180,-190,-195,-141
-146,-107,39,126,-92,-34,92,-204,-175,-180,-195,-146
-161,-107,53,134,-107,-26,136,-200,-151,-165,-190,-146
-165,-87,78,126,-122,-4,165,-175,-112,-141,-180,-141
-156,-68,87,112,-122,9,156,-175,-92,-92,-141,-117
-136,-48,87,92,-112,19,117,-175,-87,-34,-78,-73
-92,-14,78,53,-85,31,58,-190,-97,39,9,-19
-48,29,78,9,-63,53,-48,-219,-112,117,107,48
24,73,48,-48,-12,61,-195,-258,-151,200,229,136
97,122,24,-109,36,73,-346,-307,-195,292,361,239
175,200,24,-187,75,112,-478,-341,-204,424,522,351
248,273,24,-261,112,148,-619,-312,-131,614,732,483
370,361,-9,-366,190,175,-761,-234,-9,844,966,634
497,429,-68,-463,283,180,-907,-126,117,1068,1205,780
629,473,-156,-551,392,158,-1049,4,214,1249,1410,917
771,502,-268,-636,519,117,-1215,156,287,1361,1556,1029
932,522,-409,-727,671,56,-1376,336,366,1410,1639,1127
1073,531,-541,-802,807,-4,-1498,497,409,1400,1698,1200
1195,536,-658,-866,927,-61,-1605,590,380,1312,1688,1249
1283,566,-717,-924,1000,-75,-1683,600,292,1200,1620,1273
1322,566,-756,-944,1039,-95,-1717,536,161,1019,1488,1239
1322,531,-790,-927,1056,-129,-1708,419,-48,766,1293,1166
1293,483,-810,-888,1051,-163,-1644,317,-263,492,1058,1068
1263,400,-863,-832,1063,-231,-1556,248,-492,200,790,941
1239,239,-1000,-739,1119,-380,-1424,200,-712,-126,483,751
1185,53,-1132,-619,1159,-539,-1283,161,-893,-419,214,546
1107,-63,-1171,-522,1139,-617,-1151,87,-1019,-614,4,400
1039,-112,-1151,-463,1095,-631,-1024,29,-1034,-688,-112,312
976,-126,-1102,-424,1039,-614,-912,-9,-995,-692,-195,239
907,-146,-1054,-380,980,-600,-829,-92,-976,-722,-278,170
814,-136,-951,-339,883,-544,-746,-190,-932,-707,-312,126
702,-87,-790,-307,746,-439,-653,-283,-834,-614,-273,146
522,-14,-536,-253,529,-275,-531,-341,-673,-468,-190,190
346,43,-302,-195,324,-129,-390,-341,-531,-361,-136,180
244,34,-209,-139,226,-87,-287,-312,-444,-317,-126,146
180,24,-156,-102,168,-65,-234,-292,-400,-283,-136,107
107,19,-87,-63,97,-34,-170,-283,-346,-253,-141,68
24,4,-19,-14,21,-7,-107,-273,-302,-234,-141,9
-19,-24,-4,21,-7,-14,-58,-234,-263,-214,-161,-48
-48,-63,-14,56,-17,-39,-19,-204,-224,-200,-180,-82
-58,-92,-34,75,-12,-63,14,-180,-200,-195,-190,-102
-73,-117,-43,95,-14,-80,39,-161,-185,-195,-209,-117
-78,-126,-48,102,-14,-87,53,-151,-170,-195,-209,-122
-87,-126,-39,107,-24,-82,63,-141,-170,-200,-209,-122
-102,-126,-24,114,-39,-75,63,-136,-161,-190,-200,-136
-112,-126,-14,119,-48,-70,68,-136,-156,-190,-200,-141
-126,-126,0,126,-63,-63,78,-141,-156,-190,-195,-146
-136,-126,9,131,-73,-58,87,-141,-156,-185,-195,-146
-126,-131,-4,129,-61,-68,87,-151,-146,-185,-204,-161
-131,-131,0,131,-65,-65,87,-151,-136,-185,-204,-161
-131,-131,0,131,-65,-65,92,-146,-136,-185,-204,-161
-131,-131,0,131,-65,-65,97,-146,-131,-185,-204,-161
-131,-136,-4,134,-63,-70,107,-146,-136,-180,-204,-161
-136,-136,0,136,-68,-68,107,-141,-131,-175,-204,-161
-141,-136,4,139,-73,-65,107,-141,-126,-175,-200,-161
-141,-136,4,139,-73,-65,112,-141,-126,-175,-200,-161
-141,-131,9,136,-75,-61,112,-136,-126,-170,-200,-161
-141,-131,9,136,-75,-61,112,-136,-126,-170,-200,-161
-141,-131,9,136,-75,-61,112,-136,-117,-170,-200,-165
-146,-131,14,139,-80,-58,117,-131,-112,-170,-200,-165
-146,-131,14,139,-80,-58,117,-126,-112,-165,-209,-165
-146,-131,14,139,-80,-58,122,-126,-107,-165,-209,-165
-146,-131,14,139,-80,-58,126,-126,-107,-165,-209,-165
-146,-131,14,139,-80,-58,126,-117,-102,-165,-204,-165
-146,-131,14,139,-80,-58,126,-112,-102,-161,-204,-165
-151,-131,19,141,-85,-56,126,-112,-102,-161,-204,-165
-151,-131,19,141,-85,-56,131,-107,-92,-156,-200,-165
-151,-131,19,141,-85,-56,131,-107,-87,-156,-200,-161
-151,-131,19,141,-85,-56,131,-97,-78,-151,-190,-161
-151,-131,19,141,-85,-56,131,-97,-73,-151,-190,-161
-151,-131,19,141,-85,-56,136,-87,-68,-151,-190,-161
-151,-131,19,141,-85,-56,136,-82,-68,-141,-190,-161
-161,-126,34,143,-97,-46,136,-87,-63,-141,-195,-151
-161,-126,34,143,-97,-46,136,-87,-58,-136,-195,-151
-161,-122,39,141,-100,-41,141,-78,-53,-136,-195,-151
-161,-122,39,141,-100,-41,141,-73,-48,-136,-190,-151
-151,-122,29,136,-90,-46,146,-68,-29,-136,-190,-161
-151,-122,29,136,-90,-46,146,-68,-19,-126,-190,-161
-151,-122,29,136,-90,-46,151,-63,-14,-122,-185,-161
-151,-122,29,136,-90,-46,151,-53,-9,-117,-185,-156
-151,-122,29,136,-90,-46,161,-39,-14,-112,-185,-146
-151,-122,29,136,-90,-46,161,-34,-4,-107,-175,-146
-151,-117,34,134,-92,-41,161,-24,0,-107,-175,-146
-151,-112,39,131,-95,-36,165,-19,4,-97,-175,-141
-151,-112,39,131,-95,-36,161,-14,29,-97,-161,-141
-151,-112,39,131,-95,-36,165,0,39,-92,-161,-141
-151,-107,43,129,-97,-31,175,0,48,-87,-156,-141
-151,-102,48,126,-100,-26,175,14,58,-82,-146,-141
-151,-102,48,126,-100,-26,175,19,63,-78,-141,-136
-151,-102,48,126,-100,-26,175,29,78,-73,-136,-136
-151,-102,48,126,-100,-26,175,39,87,-63,-131,-131
-151,-102,48,126,-100,-26,175,48,97,-58,-126,-131
-161,-92,68,126,-114,-12,190,68,117,-43,-122,-131
-161,-92,68,126,-114,-12,200,78,131,-29,-117,-122
-161,-92,68,126,-114,-12,200,87,146,-24,-112,-122
-161,-87,73,124,-117,-7,200,102,156,-19,-112,-122
-151,-68,82,109,-117,7,214,102,165,-14,-107,-117
-146,-68,78,107,-112,4,214,117,180,0,-102,-117
-146,-63,82,104,-114,9,224,131,200,9,-97,-117
-146,-58,87,102,-117,14,229,146,219,19,-92,-117
-146,-53,92,100,-119,19,234,161,229,19,-82,-107
-146,-48,97,97,-122,24,239,175,253,29,-73,-102
-146,-43,102,95,-124,29,248,195,263,39,-68,-102
-141,-43,97,92,-119,26,253,209,283,48,-58,-97
-151,-48,102,100,-126,26,258,229,302,68,-43,-92
-151,-43,107,97,-129,31,263,248,326,82,-39,-87
-151,-39,112,95,-131,36,273,263,346,102,-34,-82
-151,-34,117,92,-134,41,278,283,366,112,-19,-78
-161,-19,141,90,-151,61,283,292,390,122,-19,-82
-161,-9,151,85,-156,70,292,312,414,136,-9,-78
-161,-4,156,82,-158,75,297,331,439,151,4,-73
-156,0,156,78,-156,78,302,356,453,165,14,-63
-146,14,161,65,-153,87,312,385,483,190,34,-58
-146,24,170,61,-158,97,317,405,507,200,43,-53
-146,24,170,61,-158,97,322,424,531,214,53,-48
-141,34,175,53,-158,104,326,444,551,229,63,-39
-141,39,180,51,-161,109,341,453,566,234,68,-24
-141,48,190,46,-165,119,346,468,590,248,78,-19
-136,53,190,41,-163,122,356,488,614,268,97,-14
-136,63,200,36,-168,131,361,502,634,283,107,0
-141,68,209,36,-175,139,361,517,653,302,126,-4
-131,82,214,24,-173,148,361,531,663,317,136,4
-131,92,224,19,-178,158,361,546,678,326,146,14
-131,92,224,19,-178,158,366,561,692,331,156,14
-126,102,229,12,-178,165,366,566,702,341,165,39
-122,107,229,7,-175,168,366,580,717,356,180,48
-117,112,229,2,-173,170,366,590,732,366,190,58
-112,117,229,-2,-170,173,366,600,736,375,200,63
-122,126,248,-2,-185,187,366,614,751,385,204,73
-112,131,244,-9,-178,187,361,619,756,395,219,78
-107,146,253,-19,-180,200,361,619,756,400,219,82
-102,146,248,-21,-175,197,356,619,761,405,234,87
-87,151,239,-31,-163,195,351,610,761,414,234,92
-82,156,239,-36,-161,197,346,610,761,414,239,97
-78,161,239,-41,-158,200,341,610,761,424,244,107
-73,165,239,-46,-156,202,331,600,761,429,248,112
-68,165,234,-48,-151,200,322,590,741,419,253,126
-63,165,229,-51,-146,197,322,575,727,419,263,131
-58,170,229,-56,-143,200,307,556,717,419,268,136
-53,170,224,-58,-139,197,297,536,697,419,268,141
-48,180,229,-65,-139,204,283,522,678,409,268,141
-43,180,224,-68,-134,202,268,497,658,405,268,141
-39,180,219,-70,-129,200,248,468,634,395,258,141
-39,180,219,-70,-129,200,234,448,605,385,253,141
-39,161,200,-61,-119,180,224,429,570,356,258,136
-29,161,190,-65,-109,175,214,400,546,346,253,136
-29,156,185,-63,-107,170,200,375,512,331,239,136
-24,151,175,-63,-100,163,195,346,488,317,229,126
-14,136,151,-61,-82,143,185,312,458,297,209,112
-14,126,141,-56,-78,134,175,287,434,278,200,107
-14,122,136,-53,-75,129,161,268,405,268,185,102
-14,112,126,-48,-70,119,156,239,370,248,175,97
-24,102,126,-39,-75,114,141,214,336,234,161,92
-24,97,122,-36,-73,109,126,195,312,204,156,82
-24,92,117,-34,-70,104,117,175,287,180,131,78
-24,87,112,-31,-68,100,102,156,263,170,131,73
-14,73,87,-29,-51,80,92,141,239,161,122,73
-14,73,87,-29,-51,80,82,122,214,146,107,68
-14,58,73,-21,-43,65,73,102,200,136,87,63
-14,53,68,-19,-41,61,68,82,180,131,78,48
-19,58,78,-19,-48,68,68,73,151,102,73,43
-24,53,78,-14,-51,65,68,63,136,92,63,43
-24,48,73,-12,-48,61,68,48,122,82,53,34
-24,43,68,-9,-46,56,68,29,107,73,48,29
-29,24,53,2,-41,39,68,19,87,63,34,14
-29,24,53,2,-41,39,63,4,73,53,24,9
-29,19,48,4,-39,34,63,-4,58,39,14,4
-34,14,48,9,-41,31,58,-9,43,29,4,0
-24,9,34,7,-29,21,53,-24,34,24,4,-4
-24,4,29,9,-26,17,43,-29,24,14,0,-9
-24,-4,19,14,-21,7,34,-34,14,4,-4,-14
-29,-9,19,19,-24,4,24,-43,4,-4,-9,-19
-39,-9,29,24,-34,9,34,-39,4,4,-4,-14
-39,-14,24,26,-31,4,34,-48,-4,0,-9,-14
-39,-14,24,26,-31,4,34,-53,-9,-4,-14,-19
-43,-19,24,31,-34,2,34,-58,-14,-9,-19,-19
-43,-24,19,34,-31,-2,24,-48,-9,-14,-24,-19
-43,-29,14,36,-29,-7,24,-53,-14,-19,-29,-19
-43,-29,14,36,-29,-7,24,-58,-19,-24,-29,-24
-43,-29,14,36,-29,-7,24,-63,-24,-29,-29,-24
-34,-29,4,31,-19,-12,34,-63,-39,-29,-29,-29
-34,-34,0,34,-17,-17,34,-68,-43,-34,-34,-29
-34,-34,0,34,-17,-17,29,-68,-48,-39,-34,-29
-34,-34,0,34,-17,-17,29,-68,-48,-39,-39,-34
-34,-34,0,34,-17,-17,39,-82,-43,-39,-43,-34
-39,-39,0,39,-19,-19,39,-82,-43,-43,-43,-34
-39,-39,0,39,-19,-19,39,-82,-43,-43,-43,-34
-39,-39,0,39,-19,-19,39,-87,-43,-43,-43,-39
-39,-39,0,39,-19,-19,34,-92,-53,-58,-53,-39
-43,-43,0,43,-21,-21,29,-92,-58,-63,-53,-43
-43,-43,0,43,-21,-21,24,-92,-58,-63,-58,-43
-43,-48,-4,46,-19,-26,19,-92,-63,-63,-58,-48
-43,-48,-4,46,-19,-26,19,-92,-73,-68,-63,-48
-43,-48,-4,46,-19,-26,19,-97,-73,-68,-68,-48
-43,-48,-4,46,-19,-26,19,-97,-73,-68,-68,-48
-43,-48,-4,46,-19,-26,19,-102,-73,-68,-68,-48
-53,-48,4,51,-29,-21,19,-102,-78,-82,-78,-48
-53,-53,0,53,-26,-26,19,-97,-78,-82,-82,-53
-53,-53,0,53,-26,-26,24,-97,-78,-82,-82,-53
-53,-53,0,53,-26,-26,24,-97,-78,-87,-87,-53
-53,-53,0,53,-26,-26,24,-107,-78,-78,-87,-63
-58,-53,4,56,-31,-24,24,-107,-78,-78,-87,-63
-58,-53,4,56,-31,-24,24,-107,-82,-78,-87,-63
-63,-53,9,58,-36,-21,24,-112,-82,-82,-92,-68
-53,-58,-4,56,-24,-31,34,-102,-92,-92,-92,-68
-53,-58,-4,56,-24,-31,34,-102,-92,-92,-92,-68
-53,-58,-4,56,-24,-31,34,-102,-87,-92,-92,-68
-53,-58,-4,56,-24,-31,39,-107,-87,-92,-92,-73
-53,-58,-4,56,-24,-31,39,-107,-82,-92,-92,-73
-53,-58,-4,56,-24,-31,39,-107,-82,-97,-97,-73
-58,-58,0,58,-29,-29,39,-107,-82,-97,-97,-78
-63,-58,4,61,-34,-26,39,-107,-78,-92,-97,-78
-53,-58,-4,56,-24,-31,39,-107,-78,-92,-97,-68
-53,-58,-4,56,-24,-31,39,-107,-78,-92,-97,-68
-53,-58,-4,56,-24,-31,43,-107,-78,-92,-97,-68
-53,-58,-4,56,-24,-31,43,-107,-78,-92,-97,-68
-63,-58,4,61,-34,-26,48,-107,-87,-82,-97,-78
-68,-58,9,63,-39,-24,48,-107,-82,-82,-97,-78
-68,-58,9,63,-39,-24,48,-107,-82,-82,-97,-78
-68,-58,9,63,-39,-24,48,-107,-82,-82,-97,-78
-73,-58,14,65,-43,-21,48,-107,-73,-82,-97,-78
-73,-58,14,65,-43,-21,48,-102,-68,-78,-97,-78
-73,-58,14,65,-43,-21,53,-102,-68,-78,-97,-78
-73,-58,14,65,-43,-21,53,-102,-68,-78,-97,-82
-78,-58,19,68,-48,-19,43,-107,-68,-78,-97,-73
-78,-58,19,68,-48,-19,43,-107,-68,-78,-97,-73
-73,-58,14,65,-43,-21,43,-102,-68,-78,-97,-73
-73,-58,14,65,-43,-21,43,-102,-63,-78,-97,-73
-78,-53,24,65,-51,-14,53,-102,-53,-78,-97,-82
-78,-53,24,65,-51,-14,53,-102,-53,-73,-97,-82
-78,-53,24,65,-51,-14,53,-107,-53,-73,-97,-82
-78,-48,29,63,-53,-9,53,-107,-53,-73,-97,-78
-87,-58,29,73,-58,-14,43,-97,-63,-63,-92,-68
-92,-63,29,78,-61,-17,43,-92,-63,-63,-92,-68
-92,-63,29,78,-61,-17,43,-92,-63,-63,-92,-73
-92,-63,29,78,-61,-17,43,-97,-58,-63,-92,-73
-87,-53,34,70,-61,-9,43,-87,-58,-63,-82,-73
-87,-48,39,68,-63,-4,43,-97,-63,-63,-82,-78
-78,-39,39,58,-58,0,48,-97,-48,-58,-78,-68
-78,-39,39,58,-58,0,58,-97,-58,-68,-78,-68
-78,-39,39,58,-58,0,58,-97,-58,-68,-78,-68
-78,-39,39,58,-58,0,58,-97,-58,-68,-78,-68
-78,-39,39,58,-58,0,58,-97,-58,-68,-78,-68
-68,-34,34,51,-51,0,58,-97,-58,-68,-78,-68
-68,-34,34,51,-51,0,58,-97,-58,-68,-78,-68
-68,-34,34,51,-51,0,53,-97,-58,-68,-82,-68
-73,-34,39,53,-56,2,53,-97,-58,-68,-82,-63
-82,-39,43,61,-63,2,43,-97,-58,-68,-82,-63
-78,-39,39,58,-58,0,43,-97,-58,-68,-78,-63
-78,-34,43,56,-61,4,43,-97,-53,-63,-78,-63
-78,-29,48,53,-63,9,43,-97,-53,-58,-68,-58
-78,-34,43,56,-61,4,53,-107,-53,-63,-78,-58
-78,-29,48,53,-63,9,53,-107,-53,-63,-78,-53
-78,-24,53,51,-65,14,53,-107,-48,-58,-68,-48
-73,-14,58,43,-65,21,53,-107,-43,-58,-68,-48
-63,0,63,31,-63,31,39,-97,-43,-48,-58,-43
-58,4,63,26,-61,34,39,-97,-43,-48,-58,-43
-58,9,68,24,-63,39,39,-97,-39,-43,-53,-39
-58,14,73,21,-65,43,39,-97,-39,-43,-53,-39
-68,19,87,24,-78,53,39,-97,-39,-39,-53,-43
-63,24,87,19,-75,56,39,-97,-39,-39,-48,-43
-58,29,87,14,-73,58,39,-97,-39,-39,-48,-39
-53,34,87,9,-70,61,39,-97,-34,-34,-43,-39
-53,39,92,7,-73,65,53,-92,-39,-43,-39,-34
-53,39,92,7,-73,65,53,-92,-39,-39,-39,-34
-53,39,92,7,-73,65,53,-92,-39,-39,-39,-34
-48,39,87,4,-68,63,53,-87,-39,-39,-39,-34
-39,34,73,2,-56,53,58,-87,-34,-29,-39,-24
-39,24,63,7,-51,43,58,-92,-34,-29,-39,-29
-39,24,63,7,-51,43,58,-97,-39,-39,-48,-34
-39,19,58,9,-48,39,58,-102,-43,-48,-53,-39
-48,9,58,19,-53,34,48,-97,-48,-58,-63,-48
-48,9,58,19,-53,34,29,-102,-48,-58,-58,-43
-39,24,63,7,-51,43,14,-102,-48,-48,-48,-34
-29,39,68,-4,-48,53,0,-107,-48,-43,-43,-29
-24,48,73,-12,-48,61,-4,-122,-48,-29,-39,-19
-14,53,68,-19,-41,61,-19,-126,-58,-29,-39,-19
-9,53,63,-21,-36,58,-29,-131,-63,-29,-39,-19
-9,48,58,-19,-34,53,-34,-136,-68,-39,-48,-19
-9,39,48,-14,-29,43,-43,-131,-73,-53,-43,-19
-9,34,43,-12,-26,39,-53,-141,-82,-63,-48,-24
-9,29,39,-9,-24,34,-53,-141,-92,-68,-58,-29
-9,24,34,-7,-21,29,-58,-151,-107,-78,-68,-34
-19,9,29,4,-24,19,-73,-170,-126,-92,-82,-48
-19,4,24,7,-21,14,-78,-185,-136,-97,-87,-48
-14,4,19,4,-17,12,-82,-190,-156,-102,-92,-48
-9,4,14,2,-12,9,-87,-190,-156,-102,-92,-48
0,4,4,-2,-2,4,-97,-190,-146,-112,-87,-39
9,4,-4,-7,7,0,-92,-185,-146,-112,-87,-34
9,4,-4,-7,7,0,-87,-185,-146,-112,-87,-34
9,0,-9,-4,9,-4,-82,-180,-146,-112,-87,-34
9,4,-4,-7,7,0,-68,-175,-156,-102,-87,-43
9,4,-4,-7,7,0,-63,-175,-146,-102,-87,-39
9,4,-4,-7,7,0,-53,-165,-141,-97,-87,-39
0,4,4,-2,-2,4,-48,-161,-136,-97,-87,-39
9,-4,-14,-2,12,-9,-43,-156,-146,-97,-78,-39
4,-4,-9,0,7,-7,-39,-151,-136,-92,-78,-39
-4,-4,0,4,-2,-2,-34,-151,-136,-92,-78,-39
-19,-9,9,14,-14,0,-24,-151,-136,-97,-78,-39
-39,-4,34,21,-36,14,-9,-151,-126,-87,-68,-39
-48,-9,39,29,-43,14,-4,-151,-126,-87,-73,-39
-58,-14,43,36,-51,14,0,-151,-126,-87,-78,-43
-63,-29,34,46,-48,2,9,-151,-126,-92,-82,-48
-63,-39,24,51,-43,-7,4,-151,-126,-97,-97,-53
-68,-48,19,58,-43,-14,4,-151,-126,-102,-102,-58
-73,-53,19,63,-46,-17,4,-156,-136,-107,-107,-63
-73,-63,9,68,-41,-26,0,-165,-141,-117,-112,-68
-82,-63,19,73,-51,-21,0,-165,-146,-117,-107,-73
-87,-68,19,78,-53,-24,4,-165,-151,-126,-112,-78
-92,-73,19,82,-56,-26,4,-165,-151,-126,-122,-82
-92,-78,14,85,-53,-31,4,-165,-156,-131,-126,-92
-97,-82,14,90,-56,-34,4,-165,-156,-136,-126,-97
-97,-92,4,95,-51,-43,9,-165,-156,-141,-131,-102
-97,-92,4,95,-51,-43,14,-165,-161,-141,-136,-102
-97,-97,0,97,-48,-48,14,-165,-161,-141,-136,-107
-102,-97,4,100,-53,-46,24,-165,-151,-141,-146,-117
-102,-97,4,100,-53,-46,24,-165,-151,-146,-146,-117
-97,-97,0,97,-48,-48,24,-165,-151,-146,-146,-117
-97,-97,0,97,-48,-48,24,-165,-156,-146,-146,-117
-107,-107,0,107,-53,-53,14,-170,-165,-146,-136,-117
-107,-107,0,107,-53,-53,19,-170,-165,-151,-136,-117
-112,-107,4,109,-58,-51,19,-170,-170,-151,-141,-122
-112,-107,4,109,-58,-51,19,-175,-170,-151,-146,-122
-107,-107,0,107,-53,-53,19,-175,-165,-156,-151,-117
-107,-97,9,102,-58,-43,24,-185,-165,-161,-151,-122
-117,-107,9,112,-63,-48,29,-180,-165,-161,-165,-136
-126,-126,0,126,-63,-63,43,-185,-170,-170,-185,-141
-156,-126,29,141,-92,-48,63,-204,-175,-180,-195,-156
-180,-107,73,143,-126,-17,97,-200,-161,-185,-200,-156
-175,-97,78,136,-126,-9,146,-165,-131,-161,-190,-151
-165,-78,87,122,-126,4,195,-136,-73,-122,-161,-126
-165,-58,107,112,-136,24,195,-136,-48,-73,-107,-102
-141,-63,78,102,-109,7,156,-141,-48,-19,-48,-78
-97,-29,68,63,-82,19,87,-151,-63,48,29,-29
-24,24,48,0,-36,36,-29,-190,-92,122,122,48
48,92,43,-70,2,68,-180,-258,-136,195,244,141
117,141,24,-129,46,82,-331,-322,-185,287,366,244
180,204,24,-192,78,114,-473,-351,-180,419,536,366
273,273,0,-273,136,136,-605,-322,-107,610,741,497
390,341,-48,-366,219,146,-761,-234,0,814,980,634
522,414,-107,-468,314,153,-893,-112,107,1015,1205,790
663,453,-209,-558,436,122,-1039,19,180,1156,1371,902
814,483,-331,-649,573,75,-1220,141,219,1205,1464,990
976,502,-473,-739,724,14,-1381,302,253,1224,1532,1063
1117,517,-600,-817,858,-41,-1517,434,263,1185,1542,1132
1234,536,-697,-885,966,-80,-1615,492,195,1083,1503,1156
1312,546,-766,-929,1039,-109,-1688,458,82,941,1420,1171
1332,531,-800,-932,1066,-134,-1727,361,-87,736,1263,1137
1312,492,-819,-902,1066,-163,-1712,239,-302,473,1039,1049
1293,448,-844,-871,1068,-197,-1654,141,-522,200,800,941
1268,346,-922,-807,1095,-287,-1561,63,-741,-87,531,780
1224,190,-1034,-707,1129,-422,-1439,14,-941,-390,234,595
1166,4,-1161,-585,1163,-578,-1298,-48,-1117,-634,-34,400
1088,-102,-1190,-492,1139,-646,-1161,-107,-1190,-766,-190,263
1024,-136,-1161,-444,1093,-649,-1049,-136,-1151,-790,-263,200
966,-156,-1122,-405,1044,-639,-946,-170,-1102,-800,-317,141
893,-165,-1058,-363,976,-612,-844,-239,-1058,-814,-390,68
800,-136,-936,-331,868,-536,-751,-312,-990,-761,-390,39
678,-63,-741,-307,710,-402,-639,-361,-858,-644,-326,73
502,14,-488,-258,495,-236,-497,-380,-678,-488,-234,122
331,63,-268,-197,300,-102,-375,-341,-522,-375,-185,126
239,53,-185,-146,212,-65,-283,-312,-439,-322,-165,97
165,29,-136,-97,151,-53,-219,-302,-385,-283,-141,68
92,14,-78,-53,85,-31,-165,-292,-331,-244,-131,39
19,4,-14,-12,17,-4,-107,-263,-292,-224,-131,-19
-29,-24,4,26,-17,-9,-48,-224,-253,-219,-151,-63
-48,-53,-4,51,-21,-29,-4,-190,-209,-204,-170,-92
-63,-78,-14,70,-24,-46,29,-151,-185,-195,-190,-107
-68,-107,-39,87,-14,-73,43,-141,-161,-195,-200,-122
-78,-117,-39,97,-19,-78,63,-131,-161,-200,-200,-131
-92,-126,-34,109,-29,-80,63,-126,-151,-190,-190,-136
-102,-126,-24,114,-39,-75,68,-126,-146,-190,-190,-141
-117,-126,-9,122,-53,-68,78,-131,-146,-190,-185,-146
-126,-126,0,126,-63,-63,87,-131,-146,-185,-185,-146
-126,-122,4,124,-65,-58,87,-131,-136,-185,-195,-151
-131,-122,9,126,-70,-56,87,-131,-126,-185,-195,-151
-131,-122,9,126,-70,-56,92,-126,-126,-185,-195,-151
-131,-122,9,126,-70,-56,97,-126,-122,-185,-195,-151
-141,-136,4,139,-73,-65,97,-126,-126,-180,-195,-161
-146,-136,9,141,-78,-63,97,-122,-122,-175,-195,-161
-151,-136,14,143,-82,-61,97,-122,-117,-175,-190,-161
-151,-136,14,143,-82,-61,102,-122,-117,-175,-190,-161
-151,-131,19,141,-85,-56,102,-117,-117,-170,-180,-161
-151,-131,19,141,-85,-56,102,-117,-117,-170,-180,-161
-151,-131,19,141,-85,-56,102,-117,-107,-170,-180,-165
-156,-131,24,143,-90,-53,107,-112,-102,-170,-180,-165
-146,-126,19,136,-82,-53,117,-107,-102,-156,-180,-156
-146,-122,24,134,-85,-48,122,-107,-97,-156,-180,-156
-146,-117,29,131,-87,-43,126,-107,-97,-156,-180,-156
-146,-112,34,129,-90,-39,126,-97,-92,-156,-175,-156
-136,-112,24,124,-80,-43,136,-92,-92,-161,-175,-165
-141,-112,29,126,-85,-41,136,-92,-92,-161,-175,-165
-141,-112,29,126,-85,-41,141,-87,-82,-156,-170,-165
-141,-112,29,126,-85,-41,141,-87,-78,-156,-170,-161
-151,-122,29,136,-90,-46,141,-87,-78,-161,-180,-161
-151,-122,29,136,-90,-46,141,-87,-73,-161,-180,-161
-151,-122,29,136,-90,-46,146,-78,-68,-161,-180,-161
-151,-122,29,136,-90,-46,146,-73,-68,-151,-180,-161
-151,-126,24,139,-87,-51,146,-68,-63,-151,-175,-161
-151,-126,24,139,-87,-51,146,-68,-58,-146,-175,-161
-151,-122,29,136,-90,-46,151,-58,-53,-146,-175,-161
-151,-122,29,136,-90,-46,151,-53,-48,-146,-170,-161
-161,-122,39,141,-100,-41,146,-39,-39,-146,-170,-151
-161,-122,39,141,-100,-41,146,-39,-29,-136,-170,-151
-161,-122,39,141,-100,-41,151,-34,-24,-131,-165,-151
-161,-122,39,141,-100,-41,151,-24,-19,-126,-165,-146
-151,-112,39,131,-95,-36,151,-29,-14,-122,-165,-146
-151,-112,39,131,-95,-36,151,-24,-4,-117,-156,-146
-151,-107,43,129,-97,-31,151,-14,0,-117,-156,-146
-151,-102,48,126,-100,-26,156,-9,4,-107,-156,-141
-161,-102,58,131,-109,-21,161,4,19,-97,-141,-141
-161,-102,58,131,-109,-21,165,19,29,-92,-141,-141
-161,-97,63,129,-112,-17,175,19,39,-87,-136,-141
-161,-92,68,126,-114,-12,175,34,48,-82,-126,-141
-151,-82,68,117,-109,-7,185,39,53,-78,-131,-136
-151,-82,68,117,-109,-7,185,48,68,-73,-126,-136
-151,-82,68,117,-109,-7,185,58,78,-63,-122,-131
-151,-82,68,117,-109,-7,185,68,87,-58,-117,-131
-151,-73,78,112,-114,2,190,78,97,-53,-112,-131
-151,-73,78,112,-114,2,200,87,112,-39,-107,-122
-151,-73,78,112,-114,2,200,97,126,-34,-102,-122
-151,-68,82,109,-117,7,200,112,136,-29,-102,-122
-151,-68,82,109,-117,7,204,122,156,-24,-97,-126
-146,-68,78,107,-112,4,204,136,170,-9,-92,-126
-146,-63,82,104,-114,9,214,151,190,0,-87,-126
-146,-58,87,102,-117,14,219,165,209,9,-82,-126
-156,-63,92,109,-124,14,224,180,209,9,-63,-117
-156,-58,97,107,-126,19,229,195,234,19,-53,-112
-156,-53,102,104,-129,24,239,214,244,29,-48,-112
-151,-53,97,102,-124,21,244,229,263,39,-39,-107
-151,-39,112,95,-131,36,248,258,283,58,-34,-92
-151,-34,117,92,-134,41,253,278,307,73,-29,-87
-151,-29,122,90,-136,46,263,292,326,92,-24,-82
-151,-24,126,87,-139,51,268,312,346,102,-9,-78
-141,-9,131,75,-136,61,263,331,370,112,0,-73
-141,0,141,70,-141,70,273,351,395,126,9,-68
-141,4,146,68,-143,75,278,370,419,141,24,-63
-136,9,146,63,-141,78,283,395,434,156,34,-53
-146,14,161,65,-153,87,292,414,453,180,43,-58
-146,24,170,61,-158,97,297,434,478,190,53,-53
-146,24,170,61,-158,97,302,453,502,204,63,-48
-141,34,175,53,-158,104,307,473,522,219,73,-39
-131,48,180,41,-156,114,317,502,546,224,87,-24
-131,58,190,36,-161,124,326,517,570,239,97,-19
-126,63,190,31,-158,126,341,536,595,258,117,-14
-126,73,200,26,-163,136,351,551,614,273,126,0
-122,78,200,21,-161,139,361,575,634,283,136,4
-112,92,204,9,-158,148,361,590,644,297,146,14
-112,102,214,4,-163,158,361,605,658,307,156,24
-112,102,214,4,-163,158,366,619,673,312,165,24
-107,112,219,-2,-163,165,366,634,683,331,185,39
-102,117,219,-7,-161,168,366,649,697,346,200,48
-97,122,219,-12,-158,170,366,658,712,356,209,58
-92,126,219,-17,-156,173,366,668,717,366,219,63
-92,146,239,-26,-165,192,356,673,741,385,224,73
-82,151,234,-34,-158,192,351,678,746,395,239,78
-78,165,244,-43,-161,204,351,678,746,400,239,82
-73,165,239,-46,-156,202,346,678,751,405,253,87
-68,170,239,-51,-153,204,351,688,751,414,263,97
-63,175,239,-56,-151,207,346,688,751,414,268,107
-58,180,239,-61,-148,209,341,688,751,424,273,122
-53,185,239,-65,-146,212,331,678,751,429,278,131
-48,185,234,-68,-141,209,317,668,751,419,283,126
-43,185,229,-70,-136,207,312,653,736,419,292,131
-39,190,229,-75,-134,209,292,634,727,419,297,136
-34,190,224,-78,-129,207,278,614,707,419,297,141
-19,190,209,-85,-114,200,278,610,692,419,297,151
-14,190,204,-87,-109,197,268,585,678,414,297,151
-9,190,200,-90,-104,195,253,556,658,405,287,151
-9,190,200,-90,-104,195,244,536,634,395,283,151
-19,190,209,-85,-114,200,224,512,605,375,278,146
-9,190,200,-90,-104,195,214,478,575,366,273,146
-9,185,195,-87,-102,190,200,448,536,351,258,146
-4,180,185,-87,-95,183,195,414,507,336,248,136
-4,165,170,-80,-87,168,175,380,478,307,239,131
-4,156,161,-75,-82,158,165,356,453,287,229,126
-4,151,156,-73,-80,153,151,336,424,278,214,122
-4,141,146,-68,-75,143,146,307,390,258,204,117
-4,131,136,-63,-70,134,136,273,356,244,180,102
-4,126,131,-61,-68,129,126,253,331,214,175,92
-4,122,126,-58,-65,124,122,234,307,190,151,87
-4,117,122,-56,-63,119,112,214,283,180,151,82
-14,92,107,-39,-61,100,102,195,248,165,136,73
-14,92,107,-39,-61,100,92,170,224,146,117,68
-14,78,92,-31,-53,85,82,146,209,131,92,63
-14,73,87,-29,-51,80,78,122,190,122,78,48
-9,68,78,-29,-43,73,82,102,161,112,78,53
-14,63,78,-24,-46,70,78,92,146,102,73,53
-14,58,73,-21,-43,65,73,78,131,92,68,43
-14,53,68,-19,-41,61,68,58,117,82,68,39
-19,39,58,-9,-39,48,58,48,102,63,43,24
-19,34,53,-7,-36,43,53,34,82,53,34,19
-19,24,43,-2,-31,34,53,24,63,39,24,14
-24,14,39,4,-31,26,48,19,43,29,14,9
-24,19,43,2,-34,31,58,4,39,24,4,4
-24,14,39,4,-31,26,53,0,34,14,0,0
-24,4,29,9,-26,17,48,-4,29,4,-4,-4
-29,0,29,14,-29,14,43,-14,24,-4,-9,-9
-29,0,29,14,-29,14,43,-9,14,-14,-24,-24
-29,-4,24,17,-26,9,43,-19,4,-19,-29,-24
-29,-4,24,17,-26,9,43,-24,0,-24,-34,-29
-34,-9,24,21,-29,7,43,-29,-4,-29,-39,-29
-34,-24,9,29,-21,-7,34,-39,-19,-34,-34,-29
-34,-29,4,31,-19,-12,34,-43,-24,-39,-39,-29
-34,-29,4,31,-19,-12,34,-48,-29,-43,-39,-34
-34,-29,4,31,-19,-12,34,-53,-34,-48,-39,-34
-34,-19,14,26,-24,-2,24,-53,-29,-48,-48,-39
-34,-24,9,29,-21,-7,24,-58,-34,-53,-53,-39
-34,-24,9,29,-21,-7,19,-58,-39,-58,-53,-39
-34,-24,9,29,-21,-7,19,-58,-39,-58,-58,-43
-24,-24,0,24,-12,-12,9,-63,-53,-58,-63,-53
-29,-29,0,29,-14,-14,9,-63,-53,-63,-63,-53
-29,-29,0,29,-14,-14,9,-63,-53,-63,-63,-53
-29,-29,0,29,-14,-14,9,-68,-53,-63,-63,-58
-29,-39,-9,34,-9,-24,9,-73,-53,-68,-73,-48
-34,-43,-9,39,-12,-26,9,-73,-58,-73,-73,-53
-34,-43,-9,39,-12,-26,9,-73,-58,-73,-78,-53
-34,-48,-14,41,-9,-31,9,-73,-63,-73,-78,-58
-43,-48,-4,46,-19,-26,14,-73,-73,-78,-73,-58
-43,-48,-4,46,-19,-26,19,-78,-73,-78,-78,-58
-43,-48,-4,46,-19,-26,24,-78,-73,-78,-78,-58
-43,-48,-4,46,-19,-26,29,-82,-73,-78,-78,-58
-53,-48,4,51,-29,-21,29,-92,-87,-82,-87,-58
-53,-53,0,53,-26,-26,29,-87,-87,-82,-92,-63
-53,-53,0,53,-26,-26,34,-87,-87,-82,-92,-63
-53,-53,0,53,-26,-26,34,-87,-87,-87,-97,-63
-43,-63,-19,53,-12,-41,34,-87,-78,-97,-107,-73
-48,-63,-14,56,-17,-39,34,-87,-78,-97,-107,-73
-48,-63,-14,56,-17,-39,34,-87,-82,-97,-107,-73
-53,-63,-9,58,-21,-36,34,-92,-82,-102,-112,-78
-53,-58,-4,56,-24,-31,24,-92,-92,-92,-102,-78
-53,-58,-4,56,-24,-31,24,-92,-92,-92,-102,-78
-53,-58,-4,56,-24,-31,24,-92,-87,-92,-102,-78
-53,-58,-4,56,-24,-31,29,-97,-87,-92,-102,-82
-53,-58,-4,56,-24,-31,29,-97,-92,-102,-102,-82
-53,-58,-4,56,-24,-31,29,-97,-92,-107,-107,-82
-58,-58,0,58,-29,-29,29,-97,-92,-107,-107,-87
-63,-58,4,61,-34,-26,29,-97,-87,-102,-107,-87
-63,-58,4,61,-34,-26,29,-97,-87,-102,-117,-87
-63,-58,4,61,-34,-26,29,-97,-87,-102,-117,-87
-63,-58,4,61,-34,-26,34,-97,-87,-102,-117,-87
-63,-58,4,61,-34,-26,34,-97,-87,-102,-117,-87
-63,-58,4,61,-34,-26,39,-87,-78,-102,-107,-78
-68,-58,9,63,-39,-24,39,-87,-73,-102,-107,-78
-68,-58,9,63,-39,-24,39,-87,-73,-102,-107,-78
-68,-58,9,63,-39,-24,39,-87,-73,-102,-107,-78
-73,-58,14,65,-43,-21,39,-97,-82,-102,-107,-87
-73,-58,14,65,-43,-21,39,-92,-78,-97,-107,-87
-73,-58,14,65,-43,-21,43,-92,-78,-97,-107,-87
-73,-58,14,65,-43,-21,43,-92,-78,-97,-107,-92
-78,-58,19,68,-48,-19,48,-97,-68,-87,-107,-92
-78,-58,19,68,-48,-19,53,-97,-68,-87,-107,-92
-73,-58,14,65,-43,-21,58,-92,-68,-87,-107,-92
-73,-58,14,65,-43,-21,63,-92,-63,-87,-107,-92
-78,-63,14,70,-46,-24,53,-82,-73,-87,-97,-82
-78,-63,14,70,-46,-24,53,-82,-73,-82,-97,-82
-78,-63,14,70,-46,-24,53,-87,-73,-82,-97,-82
-78,-58,19,68,-48,-19,53,-87,-73,-82,-97,-78
-78,-58,19,68,-48,-19,53,-87,-73,-82,-102,-87
-82,-63,19,73,-51,-21,53,-82,-73,-82,-102,-87
-82,-63,19,73,-51,-21,53,-82,-73,-82,-102,-92
-82,-63,19,73,-51,-21,53,-87,-68,-82,-102,-92
-87,-63,24,75,-56,-19,53,-78,-58,-82,-102,-82
-87,-58,29,73,-58,-14,53,-78,-63,-82,-102,-78
-92,-58,34,75,-63,-12,53,-78,-63,-82,-102,-78
-92,-58,34,75,-63,-12,53,-78,-58,-82,-102,-78
-87,-58,29,73,-58,-14,53,-78,-58,-73,-92,-78
-78,-58,19,68,-48,-19,53,-87,-58,-73,-82,-68
-78,-58,19,68,-48,-19,53,-87,-58,-78,-87,-63
-78,-58,19,68,-48,-19,58,-87,-58,-78,-87,-68
-78,-48,29,63,-53,-9,48,-87,-58,-78,-87,-68
-78,-48,29,63,-53,-9,48,-87,-58,-78,-87,-68
-78,-48,29,63,-53,-9,48,-87,-58,-78,-87,-68
-78,-48,29,63,-53,-9,48,-87,-58,-78,-87,-68
-78,-53,24,65,-51,-14,58,-87,-68,-78,-87,-68
-78,-53,24,65,-51,-14,58,-87,-68,-78,-87,-68
-78,-53,24,65,-51,-14,53,-87,-68,-78,-92,-68
-82,-53,29,68,-56,-12,53,-87,-68,-78,-92,-63
-82,-48,34,65,-58,-7,43,-87,-68,-78,-92,-63
-78,-48,29,63,-53,-9,43,-87,-68,-78,-87,-63
-78,-43,34,61,-56,-4,43,-87,-63,-73,-87,-63
-78,-39,39,58,-58,0,43,-87,-63,-68,-78,-58
-78,-34,43,56,-61,4,53,-87,-73,-63,-78,-68
-78,-29,48,53,-63,9,53,-87,-73,-63,-78,-63
-78,-24,53,51,-65,14,53,-87,-68,-58,-68,-58
-73,-14,58,43,-65,21,53,-87,-63,-58,-68,-58
-73,-9,63,41,-68,26,39,-87,-63,-68,-68,-63
-68,-4,63,36,-65,29,39,-87,-63,-68,-68,-63
-68,0,68,34,-68,34,39,-87,-58,-63,-63,-58
-68,4,73,31,-70,39,39,-87,-58,-63,-63,-58
-58,9,68,24,-63,39,39,-97,-48,-58,-63,-43
-53,14,68,19,-61,41,39,-97,-48,-58,-58,-43
-48,19,68,14,-58,43,39,-97,-48,-58,-58,-39
-43,24,68,9,-56,46,39,-97,-43,-53,-53,-39
-53,29,82,12,-68,56,53,-82,-39,-43,-48,-34
-53,29,82,12,-68,56,53,-82,-39,-39,-48,-34
-53,29,82,12,-68,56,53,-82,-39,-39,-48,-34
-48,29,78,9,-63,53,53,-78,-39,-39,-48,-34
-48,24,73,12,-61,48,48,-87,-43,-39,-48,-34
-48,14,63,17,-56,39,48,-92,-43,-39,-48,-39
-48,14,63,17,-56,39,48,-97,-48,-48,-58,-43
-48,9,58,19,-53,34,48,-102,-53,-58,-63,-48
-48,0,48,24,-48,24,53,-97,-68,-58,-63,-48
-48,0,48,24,-48,24,39,-102,-68,-58,-58,-43
-39,14,53,12,-46,34,29,-102,-68,-48,-48,-34
-29,29,58,0,-43,43,19,-107,-68,-43,-43,-29
-24,39,63,-7,-43,51,-4,-112,-58,-48,-48,-19
-14,43,58,-14,-36,51,-19,-117,-68,-48,-48,-19
-9,43,53,-17,-31,48,-29,-122,-73,-48,-48,-19
-9,39,48,-14,-29,43,-34,-126,-78,-58,-58,-19
0,39,39,-19,-19,39,-43,-122,-82,-68,-58,-29
0,34,34,-17,-17,34,-53,-131,-92,-73,-58,-34
0,29,29,-14,-14,29,-53,-131,-102,-73,-63,-39
0,24,24,-12,-12,24,-58,-141,-117,-78,-68,-43
0,29,29,-14,-14,29,-63,-161,-126,-92,-73,-48
0,24,24,-12,-12,24,-68,-175,-136,-97,-78,-48
4,24,19,-14,-7,21,-73,-180,-156,-102,-82,-48
9,24,14,-17,-2,19,-78,-180,-156,-102,-82,-48
9,14,4,-12,2,9,-87,-180,-161,-112,-87,-58
19,14,-4,-17,12,4,-82,-175,-165,-112,-87,-53
19,14,-4,-17,12,4,-78,-175,-170,-112,-87,-53
19,9,-9,-14,14,0,-73,-170,-175,-112,-87,-53
9,-4,-14,-2,12,-9,-68,-175,-165,-112,-87,-53
9,-4,-14,-2,12,-9,-63,-175,-156,-112,-87,-48
9,-4,-14,-2,12,-9,-53,-165,-151,-107,-87,-48
0,-4,-4,2,2,-4,-48,-161,-146,-107,-87,-48
9,-4,-14,-2,12,-9,-34,-146,-146,-97,-78,-39
4,-4,-9,0,7,-7,-29,-141,-136,-92,-78,-39
-4,-4,0,4,-2,-2,-24,-141,-136,-92,-78,-39
-19,-9,9,14,-14,0,-14,-141,-136,-97,-78,-39
-39,-14,24,26,-31,4,-9,-141,-126,-97,-78,-48
-48,-19,29,34,-39,4,-4,-141,-126,-97,-82,-48
-58,-24,34,41,-46,4,0,-141,-126,-97,-87,-53
-63,-39,24,51,-43,-7,9,-141,-126,-102,-92,-58
-63,-39,24,51,-43,-7,14,-141,-136,-102,-87,-53
-68,-48,19,58,-43,-14,14,-141,-136,-102,-92,-58
-73,-53,19,63,-46,-17,14,-146,-146,-102,-97,-63
-73,-63,9,68,-41,-26,9,-156,-151,-107,-102,-68
-73,-73,0,73,-36,-36,9,-156,-146,-112,-117,-78
-78,-78,0,78,-39,-39,14,-156,-151,-126,-122,-87
-82,-82,0,82,-41,-41,14,-156,-151,-131,-131,-97
-82,-87,-4,85,-39,-46,14,-156,-156,-141,-136,-112
-97,-92,4,95,-51,-43,14,-165,-156,-146,-136,-126
-97,-102,-4,100,-46,-53,19,-165,-156,-151,-141,-131
-97,-102,-4,100,-46,-53,24,-165,-161,-151,-146,-131
-97,-107,-9,102,-43,-58,24,-165,-161,-151,-146,-136
-102,-97,4,100,-53,-46,14,-156,-170,-141,-146,-131
-102,-97,4,100,-53,-46,14,-156,-170,-146,-146,-126
-97,-97,0,97,-48,-48,14,-156,-170,-146,-146,-122
-97,-97,0,97,-48,-48,14,-156,-175,-146,-146,-117
-97,-97,0,97,-48,-48,14,-161,-165,-146,-136,-117
-97,-97,0,97,-48,-48,19,-161,-165,-151,-136,-117
-102,-97,4,100,-53,-46,19,-161,-170,-151,-141,-122
-102,-97,4,100,-53,-46,19,-165,-170,-151,-146,-122
-97,-107,-9,102,-43,-58,29,-165,-165,-146,-151,-117
-107,-107,0,107,-53,-53,34,-165,-165,-141,-141,-112
-126,-117,9,122,-68,-53,58,-161,-156,-151,-156,-126
-136,-117,19,126,-78,-48,73,-165,-151,-161,-165,-141
-146,-107,39,126,-92,-34,92,-175,-146,-141,-175,-136
-161,-107,53,134,-107,-26,107,-170,-122,-126,-161,-136
-165,-97,68,131,-117,-14,156,-146,-92,-102,-151,-131
-175,-97,78,136,-126,-9,224,-126,-43,-73,-122,-126
-175,-78,97,126,-136,9,253,-117,19,-14,-78,-102
-151,-43,107,97,-129,31,234,-112,58,58,9,-58
-117,-9,107,63,-112,48,175,-112,73,146,117,9
-63,43,107,9,-85,75,78,-122,63,229,219,87
29,112,82,-70,-26,97,-82,-170,19,312,351,200
146,190,43,-168,51,117,-253,-204,0,434,502,322
248,263,14,-256,117,139,-385,-204,34,585,683,453
351,331,-19,-341,185,156,-517,-165,97,766,888,595
468,409,-58,-439,263,175,-653,-87,185,951,1098,732
600,483,-117,-541,358,183,-795,14,283,1132,1302,868
732,541,-190,-636,461,175,-932,117,356,1244,1459,980
863,570,-292,-717,578,139,-1102,209,356,1263,1532,1068
1015,590,-424,-802,719,82,-1283,292,302,1215,1551,1122
1166,595,-570,-880,868,12,-1468,356,214,1117,1522,1161
1283,605,-678,-944,980,-36,-1605,366,107,985,1454,1185
1351,614,-736,-983,1044,-61,-1688,312,-34,824,1342,1180
1381,600,-780,-990,1080,-90,-1727,204,-244,610,1166,1146
1351,570,-780,-961,1066,-104,-1742,34,-507,336,941,1058
1312,507,-805,-910,1058,-148,-1722,-131,-756,63,692,932
1249,385,-863,-817,1056,-239,-1629,-229,-956,-224,424,771
1185,190,-995,-688,1090,-402,-1498,-287,-1146,-488,136,566
1127,-4,-1132,-561,1129,-568,-1366,-380,-1302,-722,-112,361
1058,-102,-1161,-478,1110,-631,-1249,-468,-1376,-854,-287,234
995,-146,-1141,-424,1068,-644,-1127,-488,-1356,-897,-370,161
946,-175,-1122,-385,1034,-649,-1005,-492,-1298,-917,-444,82
863,-175,-1039,-344,951,-607,-883,-512,-1224,-902,-497,19
771,-146,-917,-312,844,-531,-771,-517,-1117,-839,-478,9
639,-73,-712,-283,675,-392,-649,-507,-946,-692,-385,53
444,4,-439,-224,441,-217,-507,-468,-736,-517,-263,102
292,43,-248,-168,270,-102,-385,-419,-570,-385,-195,107
219,34,-185,-126,202,-75,-312,-390,-468,-331,-185,78
175,29,-146,-102,161,-58,-248,-351,-405,-292,-170,48
102,14,-87,-58,95,-36,-165,-302,-341,-244,-151,9
39,-4,-43,-17,41,-24,-97,-253,-292,-224,-161,-39
-9,-34,-24,21,7,-29,-39,-204,-263,-219,-170,-82
-48,-63,-14,56,-17,-39,-4,-170,-239,-214,-190,-112
-73,-97,-24,85,-24,-61,19,-141,-214,-214,-200,-126
-97,-126,-29,112,-34,-78,43,-131,-180,-204,-209,-151
-97,-126,-29,112,-34,-78,53,-122,-161,-200,-209,-161
-107,-126,-19,117,-43,-73,63,-126,-161,-200,-209,-156
-112,-126,-14,119,-48,-70,68,-126,-156,-200,-209,-161
-122,-126,-4,124,-58,-65,78,-131,-156,-200,-204,-165
-126,-126,0,126,-63,-63,87,-131,-156,-195,-204,-165
-126,-131,-4,129,-61,-68,97,-122,-156,-195,-214,-180
-131,-131,0,131,-65,-65,97,-122,-146,-195,-214,-180
-131,-131,0,131,-65,-65,102,-117,-146,-195,-214,-180
-131,-131,0,131,-65,-65,107,-117,-141,-195,-214,-180
-131,-126,4,129,-68,-61,97,-117,-136,-190,-204,-170
-136,-126,9,131,-73,-58,97,-112,-131,-185,-204,-170
-141,-126,14,134,-78,-56,97,-112,-126,-185,-200,-170
-141,-126,14,134,-78,-56,102,-112,-126,-185,-200,-170
-141,-122,19,131,-80,-51,102,-107,-126,-170,-200,-170
-141,-122,19,131,-80,-51,102,-107,-126,-170,-200,-170
-141,-122,19,131,-80,-51,102,-107,-117,-170,-200,-175
-146,-122,24,134,-85,-48,107,-102,-112,-170,-200,-175
-146,-131,14,139,-80,-58,107,-97,-112,-175,-200,-175
-146,-131,14,139,-80,-58,112,-97,-107,-175,-200,-175
-146,-131,14,139,-80,-58,117,-97,-107,-175,-200,-175
-146,-131,14,139,-80,-58,117,-87,-102,-175,-195,-175
-146,-131,14,139,-80,-58,117,-82,-102,-161,-195,-165
-151,-131,19,141,-85,-56,117,-82,-102,-161,-195,-165
-151,-131,19,141,-85,-56,122,-78,-92,-156,-190,-165
-151,-131,19,141,-85,-56,122,-78,-87,-156,-190,-161
-161,-141,19,151,-90,-61,122,-78,-87,-151,-180,-161
-161,-141,19,151,-90,-61,122,-78,-82,-151,-180,-161
-161,-141,19,151,-90,-61,126,-68,-78,-151,-180,-161
-161,-141,19,151,-90,-61,126,-63,-78,-141,-180,-161
-156,-131,24,143,-90,-53,126,-58,-73,-151,-180,-170
-151,-126,24,139,-87,-51,126,-58,-68,-146,-185,-170
-146,-117,29,131,-87,-43,131,-48,-63,-146,-190,-170
-141,-112,29,126,-85,-41,131,-43,-58,-146,-190,-170
-141,-112,29,126,-85,-41,136,-48,-58,-146,-180,-161
-141,-112,29,126,-85,-41,136,-48,-48,-136,-180,-161
-141,-112,29,126,-85,-41,141,-43,-43,-131,-175,-161
-141,-112,29,126,-85,-41,141,-34,-39,-126,-175,-156
-151,-112,39,131,-95,-36,141,-19,-43,-122,-175,-165
-151,-112,39,131,-95,-36,141,-14,-34,-117,-165,-165
-151,-107,43,129,-97,-31,141,-4,-29,-117,-165,-165
-151,-102,48,126,-100,-26,146,0,-24,-107,-165,-161
-151,-112,39,131,-95,-36,146,-4,-9,-107,-161,-161
-151,-112,39,131,-95,-36,146,9,0,-102,-161,-161
-151,-107,43,129,-97,-31,151,9,9,-97,-156,-161
-151,-102,48,126,-100,-26,146,24,19,-92,-146,-161
-141,-102,39,122,-90,-31,151,29,14,-78,-141,-146
-141,-102,39,122,-90,-31,156,39,29,-73,-136,-146
-141,-102,39,122,-90,-31,161,48,39,-63,-131,-141
-141,-102,39,122,-90,-31,165,58,48,-58,-126,-141
-141,-92,48,117,-95,-21,161,68,58,-63,-122,-141
-141,-92,48,117,-95,-21,170,78,73,-48,-117,-131
-141,-92,48,117,-95,-21,170,87,87,-43,-112,-131
-141,-87,53,114,-97,-17,170,102,97,-39,-112,-131
-141,-78,63,109,-102,-7,175,122,97,-43,-107,-126
-136,-78,58,107,-97,-9,175,136,112,-29,-102,-126
-136,-73,63,104,-100,-4,185,151,131,-19,-97,-126
-136,-68,68,102,-102,0,190,165,151,-9,-92,-126
-136,-63,73,100,-104,4,185,170,161,0,-82,-117
-136,-58,78,97,-107,9,190,185,185,9,-73,-112
-136,-53,82,95,-109,14,200,204,195,19,-68,-112
-131,-53,78,92,-104,12,204,219,214,29,-58,-107
-122,-48,73,85,-97,12,200,239,224,29,-53,-102
-122,-43,78,82,-100,17,204,258,248,43,-48,-97
-122,-39,82,80,-102,21,214,273,268,63,-43,-92
-122,-34,87,78,-104,26,219,292,287,73,-29,-87
-131,-39,92,85,-112,26,234,302,292,73,-29,-92
-131,-29,102,80,-117,36,244,322,317,87,-19,-87
-131,-24,107,78,-119,41,248,341,341,102,-4,-82
-126,-19,107,73,-117,43,253,366,356,117,4,-73
-126,-4,122,65,-124,58,253,395,375,131,14,-68
-126,4,131,61,-129,68,258,414,400,141,24,-63
-126,4,131,61,-129,68,263,434,424,156,34,-58
-122,14,136,53,-129,75,268,453,444,170,43,-48
-122,9,131,56,-126,70,273,473,448,175,48,-43
-122,19,141,51,-131,80,278,488,473,190,58,-39
-117,24,141,46,-129,82,287,507,497,209,78,-34
-117,34,151,41,-134,92,292,522,517,224,87,-19
-112,48,161,31,-136,104,283,546,536,244,97,-14
-102,63,165,19,-134,114,283,561,546,258,107,-4
-102,73,175,14,-139,124,283,575,561,268,117,4
-102,73,175,14,-139,124,287,590,575,273,126,4
-87,82,170,2,-129,126,297,595,595,283,136,9
-82,87,170,-2,-126,129,297,610,610,297,151,19
-78,92,170,-7,-124,131,297,619,624,307,161,29
-73,97,170,-12,-122,134,297,629,629,317,170,34
-82,102,185,-9,-134,143,287,634,644,326,175,53
-73,102,175,-14,-124,139,283,639,649,336,190,58
-68,112,180,-21,-124,146,283,639,649,341,190,63
-63,107,170,-21,-117,139,278,639,653,346,204,68
-68,112,180,-21,-124,146,273,639,653,346,214,73
-63,117,180,-26,-122,148,268,639,653,346,219,78
-58,122,180,-31,-119,151,263,639,653,356,224,87
-53,126,180,-36,-117,153,253,629,653,361,229,92
-39,136,175,-48,-107,156,253,619,653,361,224,97
-34,136,170,-51,-102,153,253,605,639,361,234,102
-29,141,170,-56,-100,156,239,585,629,361,239,107
-24,141,165,-58,-95,153,229,566,610,361,239,112
-19,141,161,-61,-90,151,229,556,605,361,248,112
-14,141,156,-63,-85,148,219,536,590,356,248,112
-9,141,151,-65,-80,146,204,512,570,346,239,112
-9,141,151,-65,-80,146,195,497,546,336,234,112
-9,141,151,-65,-80,146,185,468,522,326,239,117
0,141,141,-70,-70,141,175,439,497,317,234,117
0,136,136,-68,-68,136,161,414,463,302,219,117
4,131,126,-68,-61,129,156,385,439,287,209,107
4,136,131,-70,-63,134,146,361,419,278,209,112
4,126,122,-65,-58,124,136,336,395,258,200,107
4,122,117,-63,-56,119,122,317,366,248,185,102
4,112,107,-58,-51,109,117,287,331,229,175,97
4,102,97,-53,-46,100,117,253,317,229,161,92
4,97,92,-51,-43,95,107,234,292,204,156,82
4,92,87,-48,-41,90,102,214,268,185,131,78
4,87,82,-46,-39,85,92,195,244,180,131,73
-4,73,78,-34,-41,75,92,170,219,165,131,73
-4,73,78,-34,-41,75,82,151,195,146,117,68
-4,58,63,-26,-34,61,73,131,180,131,97,63
-4,53,58,-24,-31,56,68,112,161,122,87,48
-9,48,58,-19,-34,53,63,92,141,102,73,34
-14,43,58,-14,-36,51,58,82,126,92,63,34
-14,39,53,-12,-34,46,53,68,112,82,53,24
-14,34,48,-9,-31,41,48,48,97,73,48,19
-19,24,43,-2,-31,34,48,39,78,53,34,14
-19,24,43,-2,-31,34,43,24,63,43,24,9
-19,19,39,0,-29,29,43,14,48,29,14,4
-24,14,39,4,-31,26,39,9,34,19,4,0
-24,9,34,7,-29,21,48,-4,14,19,14,4
-24,4,29,9,-26,17,43,-9,4,14,9,0
-24,-4,19,14,-21,7,39,-14,-4,9,4,-4
-29,-9,19,19,-24,4,34,-24,-14,4,0,-9
-29,0,29,14,-29,14,24,-39,-24,0,-14,-19
-29,-4,24,17,-26,9,24,-48,-34,-9,-19,-24
-29,-4,24,17,-26,9,24,-53,-39,-19,-24,-34
-34,-9,24,21,-29,7,24,-58,-43,-29,-29,-39
-34,-14,19,24,-26,2,14,-48,-39,-43,-39,-39
-34,-19,14,26,-24,-2,14,-53,-43,-48,-48,-39
-34,-19,14,26,-24,-2,14,-58,-48,-53,-53,-43
-34,-19,14,26,-24,-2,14,-63,-53,-58,-58,-43
-34,-19,14,26,-24,-2,24,-63,-58,-48,-58,-48
-34,-24,9,29,-21,-7,24,-68,-63,-53,-63,-48
-34,-24,9,29,-21,-7,19,-68,-68,-58,-63,-48
-34,-24,9,29,-21,-7,19,-68,-68,-58,-68,-53
-34,-24,9,29,-21,-7,29,-73,-82,-58,-63,-43
-39,-29,9,34,-24,-9,29,-73,-82,-63,-63,-43
-39,-29,9,34,-24,-9,29,-73,-82,-63,-63,-43
-39,-29,9,34,-24,-9,29,-78,-82,-63,-63,-48
-39,-29,9,34,-24,-9,19,-82,-82,-58,-63,-48
-43,-34,9,39,-26,-12,19,-82,-87,-63,-63,-53
-43,-34,9,39,-26,-12,19,-82,-87,-63,-68,-53
-43,-39,4,41,-24,-17,19,-82,-92,-63,-68,-58
-43,-39,4,41,-24,-17,19,-82,-92,-78,-73,-68
-43,-39,4,41,-24,-17,19,-87,-92,-78,-78,-68
-43,-39,4,41,-24,-17,19,-87,-92,-78,-78,-68
-43,-39,4,41,-24,-17,19,-92,-92,-78,-78,-68
-53,-48,4,51,-29,-21,19,-92,-87,-82,-87,-68
-53,-53,0,53,-26,-26,19,-87,-87,-82,-92,-73
-53,-53,0,53,-26,-26,24,-87,-87,-82,-92,-73
-53,-53,0,53,-26,-26,24,-87,-87,-87,-97,-73
-53,-53,0,53,-26,-26,24,-87,-87,-78,-87,-63
-58,-53,4,56,-31,-24,24,-87,-87,-78,-87,-63
-58,-53,4,56,-31,-24,24,-87,-92,-78,-87,-63
-63,-53,9,58,-36,-21,24,-92,-92,-82,-92,-68
-63,-48,14,56,-39,-17,29,-92,-92,-82,-92,-78
-63,-48,14,56,-39,-17,34,-92,-92,-82,-92,-78
-63,-48,14,56,-39,-17,39,-92,-87,-82,-92,-78
-63,-48,14,56,-39,-17,48,-97,-87,-82,-92,-82
-63,-48,14,56,-39,-17,43,-97,-92,-92,-92,-73
-63,-48,14,56,-39,-17,39,-97,-92,-97,-97,-73
-68,-48,19,58,-43,-14,34,-97,-92,-97,-97,-78
-73,-48,24,61,-48,-12,29,-97,-87,-92,-97,-78
-63,-48,14,56,-39,-17,34,-87,-87,-82,-97,-68
-63,-48,14,56,-39,-17,39,-87,-87,-82,-97,-68
-63,-48,14,56,-39,-17,48,-87,-87,-82,-97,-68
-63,-48,14,56,-39,-17,53,-87,-87,-82,-97,-68
-73,-48,24,61,-48,-12,48,-97,-97,-82,-87,-78
-78,-48,29,63,-53,-9,48,-97,-92,-82,-87,-78
-78,-48,29,63,-53,-9,48,-97,-92,-82,-87,-78
-78,-48,29,63,-53,-9,48,-97,-92,-82,-87,-78
-82,-39,43,61,-63,2,48,-97,-92,-82,-97,-78
-82,-39,43,61,-63,2,48,-92,-87,-78,-97,-78
-82,-39,43,61,-63,2,53,-92,-87,-78,-97,-78
-82,-39,43,61,-63,2,53,-92,-87,-78,-97,-82
-78,-48,29,63,-53,-9,53,-97,-78,-87,-107,-82
-78,-48,29,63,-53,-9,53,-97,-78,-87,-107,-82
-73,-48,24,61,-48,-12,53,-92,-78,-87,-107,-82
-73,-48,24,61,-48,-12,53,-92,-73,-87,-107,-82
-87,-53,34,70,-61,-9,43,-92,-82,-87,-97,-92
-87,-53,34,70,-61,-9,43,-92,-82,-82,-97,-92
-87,-53,34,70,-61,-9,43,-97,-82,-82,-97,-92
-87,-48,39,68,-63,-4,43,-97,-82,-82,-97,-87
-78,-43,34,61,-56,-4,43,-107,-92,-82,-92,-78
-82,-43,39,63,-61,-2,43,-102,-92,-82,-92,-78
-82,-39,43,61,-63,2,43,-102,-92,-82,-92,-82
-82,-34,48,58,-65,7,43,-107,-87,-82,-92,-82
-68,-34,34,51,-51,0,53,-97,-87,-73,-92,-73
-68,-29,39,48,-53,4,53,-97,-82,-73,-92,-78
-73,-29,43,51,-58,7,43,-97,-82,-73,-92,-78
-73,-39,34,56,-53,-2,43,-97,-78,-73,-92,-78
-78,-48,29,63,-53,-9,39,-97,-87,-78,-87,-78
-87,-48,39,68,-63,-4,48,-97,-87,-78,-87,-78
-87,-48,39,68,-63,-4,48,-97,-87,-78,-87,-78
-87,-48,39,68,-63,-4,48,-97,-87,-78,-87,-78
-87,-48,39,68,-63,-4,48,-97,-87,-78,-87,-78
-78,-43,34,61,-56,-4,39,-107,-97,-87,-97,-87
-78,-43,34,61,-56,-4,39,-107,-97,-87,-97,-87
-78,-43,34,61,-56,-4,34,-107,-97,-87,-102,-87
-82,-43,39,63,-61,-2,34,-107,-97,-87,-102,-82
-82,-48,34,65,-58,-7,34,-107,-97,-87,-102,-82
-78,-48,29,63,-53,-9,34,-107,-97,-87,-97,-82
-78,-43,34,61,-56,-4,34,-107,-92,-82,-97,-82
-78,-39,39,58,-58,0,34,-107,-92,-78,-87,-78
-78,-34,43,56,-61,4,34,-107,-92,-82,-97,-78
-78,-29,48,53,-63,9,34,-107,-92,-82,-97,-73
-78,-24,53,51,-65,14,34,-107,-87,-78,-87,-68
-73,-14,58,43,-65,21,34,-107,-82,-78,-87,-68
-73,0,73,36,-73,36,29,-107,-92,-73,-78,-73
-68,4,73,31,-70,39,29,-107,-92,-68,-78,-73
-68,9,78,29,-73,43,29,-107,-87,-58,-73,-68
-68,14,82,26,-75,48,29,-107,-87,-53,-73,-68
-68,9,78,29,-73,43,39,-97,-87,-58,-73,-53
-63,14,78,24,-70,46,39,-97,-87,-58,-68,-53
-58,19,78,19,-68,48,39,-97,-87,-58,-68,-48
-53,24,78,14,-65,51,39,-97,-82,-53,-63,-48
-43,29,73,7,-58,51,34,-92,-78,-63,-58,-43
-43,29,73,7,-58,51,34,-92,-78,-58,-58,-43
-43,29,73,7,-58,51,34,-92,-78,-58,-58,-43
-39,29,68,4,-53,48,34,-87,-78,-58,-58,-43
-48,34,82,7,-65,58,39,-92,-82,-68,-58,-43
-48,24,73,12,-61,48,39,-102,-82,-68,-58,-48
-48,24,73,12,-61,48,39,-112,-87,-78,-68,-53
-48,19,68,14,-58,43,39,-122,-92,-87,-73,-58
-48,29,78,9,-63,53,48,-117,-87,-82,-73,-58
-48,29,78,9,-63,53,29,-122,-87,-78,-68,-53
-39,43,82,-2,-61,63,14,-122,-87,-63,-58,-43
-29,58,87,-14,-58,73,0,-126,-87,-53,-53,-39
-24,48,73,-12,-48,61,-14,-131,-97,-58,-58,-29
-14,53,68,-19,-41,61,-29,-136,-107,-58,-58,-29
-9,53,63,-21,-36,58,-39,-141,-112,-58,-58,-29
-9,48,58,-19,-34,53,-43,-146,-117,-68,-68,-29
-19,39,58,-9,-39,48,-63,-161,-141,-92,-73,-48
-19,34,53,-7,-36,43,-73,-170,-151,-102,-78,-53
-19,29,48,-4,-34,39,-73,-170,-161,-107,-87,-58
-19,24,43,-2,-31,34,-78,-180,-175,-117,-97,-63
-9,29,39,-9,-24,34,-82,-180,-175,-122,-102,-68
-9,24,34,-7,-21,29,-87,-195,-185,-126,-107,-68
-4,24,29,-9,-17,26,-92,-200,-204,-131,-112,-68
0,24,24,-12,-12,24,-97,-200,-204,-131,-112,-68
0,24,24,-12,-12,24,-87,-200,-195,-131,-97,-58
9,24,14,-17,-2,19,-82,-195,-195,-131,-97,-53
9,24,14,-17,-2,19,-78,-195,-195,-131,-97,-53
9,19,9,-14,0,14,-73,-190,-195,-131,-97,-53
0,4,4,-2,-2,4,-68,-185,-204,-131,-97,-63
0,4,4,-2,-2,4,-63,-185,-195,-131,-97,-58
0,4,4,-2,-2,4,-53,-175,-190,-126,-97,-58
-9,4,14,2,-12,9,-48,-170,-185,-126,-97,-58
-9,14,24,-2,-17,19,-43,-165,-175,-117,-87,-58
-14,14,29,0,-21,21,-39,-161,-165,-112,-87,-58
-24,14,39,4,-31,26,-34,-161,-165,-112,-87,-58
-39,9,48,14,-43,29,-24,-161,-165,-117,-87,-58
-48,-4,43,26,-46,19,-19,-151,-165,-107,-87,-58
-58,-9,48,34,-53,19,-14,-151,-165,-107,-92,-58
-68,-14,53,41,-61,19,-9,-151,-165,-107,-97,-63
-73,-29,43,51,-58,7,0,-151,-165,-112,-102,-68
-63,-39,24,51,-43,-7,-4,-161,-175,-126,-117,-82
-68,-48,19,58,-43,-14,-4,-161,-175,-131,-122,-87
-73,-53,19,63,-46,-17,-4,-165,-185,-136,-126,-92
-73,-63,9,68,-41,-26,-9,-175,-190,-146,-131,-97
-73,-63,9,68,-41,-26,-9,-175,-195,-146,-126,-102
-78,-68,9,73,-43,-29,-4,-175,-200,-156,-131,-107
-82,-73,9,78,-46,-31,-4,-175,-200,-156,-141,-112
-82,-78,4,80,-43,-36,-4,-175,-204,-161,-146,-122
-97,-82,14,90,-56,-34,4,-175,-204,-165,-146,-126
-97,-92,4,95,-51,-43,9,-175,-204,-170,-151,-131
-97,-92,4,95,-51,-43,14,-175,-209,-170,-156,-131
-97,-97,0,97,-48,-48,14,-175,-209,-170,-156,-136
-102,-87,14,95,-58,-36,14,-175,-209,-170,-156,-126
-102,-87,14,95,-58,-36,14,-175,-209,-175,-156,-126
-97,-87,9,92,-53,-39,14,-175,-209,-175,-156,-126
-97,-87,9,92,-53,-39,14,-175,-214,-175,-156,-126
-87,-87,0,87,-43,-43,14,-180,-214,-175,-165,-136
-87,-87,0,87,-43,-43,19,-180,-214,-180,-165,-136
-92,-87,4,90,-48,-41,19,-180,-219,-180,-170,-141
-92,-87,4,90,-48,-41,19,-185,-219,-180,-175,-141
-97,-87,9,92,-53,-39,19,-185,-214,-175,-170,-136
-117,-87,29,102,-73,-29,34,-185,-204,-180,-180,-151
-136,-87,48,112,-92,-19,68,-190,-195,-180,-185,-146
-156,-78,78,117,-117,0,82,-195,-190,-180,-185,-151
-165,-68,97,117,-131,14,112,-185,-175,-161,-175,-146
-180,-68,112,124,-146,21,156,-180,-141,-136,-170,-146
-185,-58,126,122,-156,34,204,-156,-82,-92,-141,-131
-165,-39,126,102,-146,43,224,-146,-24,-34,-82,-107
-136,0,136,68,-136,68,204,-146,9,43,0,-63
-102,34,136,34,-119,85,146,-161,9,126,107,19
-48,78,126,-14,-87,102,48,-180,-14,214,234,107
43,151,107,-97,-31,129,-117,-229,-53,326,375,224
146,229,82,-187,31,156,-287,-258,-78,458,556,356
244,317,73,-280,85,195,-409,-253,-39,629,746,497
346,390,43,-368,151,217,-531,-214,34,819,966,639
468,468,0,-468,234,234,-673,-146,126,1019,1190,790
595,527,-68,-561,331,229,-810,-48,234,1215,1410,927
717,570,-146,-644,431,212,-951,63,312,1327,1566,1044
849,580,-268,-714,558,156,-1117,156,297,1342,1644,1127
990,590,-400,-790,695,95,-1278,229,248,1302,1668,1185
1112,619,-492,-866,802,63,-1429,292,175,1224,1649,1239
1224,653,-570,-939,897,41,-1576,297,87,1098,1581,1268
1302,663,-639,-983,971,12,-1664,239,-48,917,1454,1263
1312,653,-658,-983,985,-2,-1708,117,-258,688,1273,1220
1302,619,-683,-961,993,-31,-1717,-39,-517,414,1049,1127
1263,541,-722,-902,993,-90,-1654,-161,-751,122,785,1000
1205,390,-814,-797,1010,-212,-1537,-239,-951,-170,497,814
1122,190,-932,-656,1027,-370,-1405,-297,-1132,-458,200,595
1049,4,-1044,-527,1046,-519,-1283,-385,-1283,-702,-58,409
980,-82,-1063,-448,1022,-573,-1161,-448,-1361,-839,-219,283
922,-112,-1034,-405,978,-573,-1044,-448,-1327,-873,-307,214
868,-146,-1015,-361,941,-580,-922,-458,-1259,-878,-390,141
800,-146,-946,-326,873,-546,-810,-483,-1190,-878,-444,73
707,-107,-814,-300,761,-461,-717,-502,-1078,-805,-419,68
566,-39,-605,-263,585,-322,-595,-497,-902,-644,-331,97
375,34,-341,-204,358,-153,-463,-458,-712,-488,-239,122
239,53,-185,-146,212,-65,-351,-419,-570,-400,-204,102
175,43,-131,-109,153,-43,-287,-380,-492,-356,-195,68
122,34,-87,-78,104,-26,-234,-351,-429,-322,-185,29
68,19,-48,-43,58,-14,-161,-312,-375,-283,-180,-9
24,-4,-29,-9,26,-17,-107,-263,-322,-263,-190,-68
-9,-43,-34,26,12,-39,-58,-214,-292,-253,-200,-107
-48,-73,-24,61,-12,-48,-9,-175,-263,-229,-209,-131
-68,-92,-24,80,-21,-58,24,-161,-239,-224,-219,-141
-92,-107,-14,100,-39,-61,39,-141,-214,-224,-219,-156
-97,-107,-9,102,-43,-58,53,-131,-190,-224,-219,-161
-97,-107,-9,102,-43,-58,63,-141,-190,-219,-219,-161
-97,-117,-19,107,-39,-68,63,-146,-185,-219,-219,-165
-102,-117,-14,109,-43,-65,68,-146,-185,-219,-219,-170
-112,-117,-4,114,-53,-61,78,-151,-190,-219,-214,-175
-117,-117,0,117,-58,-58,87,-151,-195,-214,-214,-175
-117,-122,-4,119,-56,-63,87,-141,-185,-214,-224,-180
-122,-122,0,122,-61,-61,87,-141,-175,-214,-224,-180
-122,-122,0,122,-61,-61,92,-136,-175,-214,-224,-180
-122,-122,0,122,-61,-61,97,-136,-170,-214,-224,-180
