I,II,III,aVR,aVL,aVF,V1,V2,V3,V4,V5,V6,
9,-117,-126,53,68,-122,29,-9,-58,-117,-107,-78
9,-117,-126,53,68,-122,29,-9,-58,-117,-107,-78
9,-117,-126,53,68,-122,29,-9,-58,-117,-107,-78
9,-117,-126,53,68,-122,29,-9,-58,-117,-107,-78
14,-112,-126,48,70,-119,29,-4,-58,-117,-117,-68
19,-107,-126,43,73,-117,29,0,-58,-117,-117,-68
24,-102,-126,39,75,-114,29,4,-58,-117,-117,-68
29,-97,-126,34,78,-112,29,9,-58,-117,-117,-68
19,-112,-131,46,75,-122,39,9,-68,-126,-126,-73
9,-117,-126,53,68,-122,39,9,-68,-126,-126,-78
0,-122,-122,61,61,-122,39,9,-68,-126,-126,-82
-9,-126,-117,68,53,-122,39,9,-68,-126,-126,-87
9,-112,-122,51,65,-117,34,19,-63,-126,-117,-78
19,-107,-126,43,73,-117,29,19,-58,-126,-117,-78
29,-102,-131,36,80,-117,24,19,-53,-126,-117,-78
39,-97,-136,29,87,-117,19,19,-48,-126,-117,-78
24,-102,-126,39,75,-114,19,9,-53,-136,-126,-87
19,-107,-126,43,73,-117,19,9,-58,-136,-126,-87
14,-112,-126,48,70,-119,19,9,-63,-136,-126,-87
9,-117,-126,53,68,-122,19,9,-68,-136,-126,-87
24,-97,-122,36,73,-109,9,9,-58,-136,-126,-78
29,-87,-117,29,73,-102,9,9,-58,-136,-126,-78
34,-78,-112,21,73,-95,9,9,-58,-136,-126,-78
39,-68,-107,14,73,-87,9,9,-58,-136,-126,-78
48,-78,-126,14,87,-102,19,19,-48,-131,-122,-68
48,-78,-126,14,87,-102,29,19,-48,-126,-117,-68
48,-78,-126,14,87,-102,39,19,-48,-122,-112,-68
48,-78,-126,14,87,-102,48,19,-48,-117,-107,-68
29,-87,-117,29,73,-102,43,14,-58,-131,-122,-82
19,-97,-117,39,68,-107,39,9,-68,-136,-126,-87
9,-107,-117,48,63,-112,34,4,-78,-141,-131,-92
0,-117,-117,58,58,-117,29,0,-87,-146,-136,-97
-9,-122,-112,65,51,-117,39,-4,-87,-156,-146,-102
-19,-126,-107,73,43,-117,39,-9,-87,-156,-146,-107
-29,-131,-102,80,36,-117,39,-14,-87,-156,-146,-112
-39,-136,-97,87,29,-117,39,-19,-87,-156,-146,-117
-29,-126,-97,78,34,-112,39,-19,-87,-156,-136,-112
-29,-126,-97,78,34,-112,39,-19,-87,-156,-136,-107
-29,-126,-97,78,34,-112,39,-19,-87,-156,-136,-102
-29,-126,-97,78,34,-112,39,-19,-87,-156,-136,-97
-19,-117,-97,68,39,-107,39,-19,-78,-146,-126,-87
-19,-117,-97,68,39,-107,39,-19,-78,-146,-126,-87
-19,-117,-97,68,39,-107,39,-19,-78,-146,-126,-87
-19,-117,-97,68,39,-107,39,-19,-78,-146,-126,-87
0,-102,-102,51,51,-102,39,-4,-73,-131,-122,-78
9,-87,-97,39,53,-92,39,0,-68,-126,-117,-78
19,-73,-92,26,56,-82,39,4,-63,-122,-112,-78
29,-58,-87,14,58,-73,39,9,-58,-117,-107,-78
19,-68,-87,24,53,-78,34,9,-58,-117,-107,-78
9,-78,-87,34,48,-82,29,9,-58,-117,-107,-78
0,-87,-87,43,43,-87,24,9,-58,-117,-107,-78
-9,-97,-87,53,39,-92,19,9,-58,-117,-107,-78
-9,-107,-97,58,43,-102,9,0,-58,-117,-107,-78
-9,-107,-97,58,43,-102,9,0,-58,-117,-107,-78
-9,-107,-97,58,43,-102,9,0,-58,-117,-107,-78
-9,-107,-97,58,43,-102,9,0,-58,-117,-107,-78
-24,-107,-82,65,29,-95,14,-4,-68,-117,-107,-87
-29,-107,-78,68,24,-92,19,-9,-68,-117,-107,-87
-34,-107,-73,70,19,-90,24,-14,-68,-117,-107,-87
-39,-107,-68,73,14,-87,29,-19,-68,-117,-107,-87
-19,-87,-68,53,24,-78,29,-4,-63,-102,-92,-82
-9,-78,-68,43,29,-73,29,0,-58,-97,-87,-78
0,-68,-68,34,34,-68,29,4,-53,-92,-82,-73
9,-58,-68,24,39,-63,29,9,-48,-87,-78,-68
29,-48,-78,9,53,-63,19,19,-43,-82,-73,-63
39,-39,-78,0,58,-58,19,19,-39,-78,-68,-58
48,-29,-78,-9,63,-53,19,19,-34,-73,-63,-53
58,-19,-78,-19,68,-48,19,19,-29,-68,-58,-48
48,-29,-78,-9,63,-53,24,14,-34,-78,-63,-53
39,-39,-78,0,58,-58,29,9,-39,-78,-68,-58
29,-48,-78,9,53,-63,34,4,-43,-78,-73,-63
19,-58,-78,19,48,-68,39,0,-48,-78,-78,-68
4,-73,-78,34,41,-75,29,0,-58,-87,-78,-68
0,-78,-78,39,39,-78,29,0,-58,-87,-78,-68
-4,-82,-78,43,36,-80,29,0,-58,-87,-78,-68
-9,-87,-78,48,34,-82,29,0,-58,-87,-78,-68
-29,-97,-68,63,19,-82,43,-14,-63,-92,-82,-73
-39,-107,-68,73,14,-87,48,-19,-68,-97,-87,-78
-48,-117,-68,82,9,-92,53,-24,-73,-102,-92,-82
-58,-126,-68,92,4,-97,58,-29,-78,-107,-97,-87
-53,-126,-73,90,9,-100,53,-19,-68,-97,-87,-87
-48,-126,-78,87,14,-102,48,-19,-68,-97,-87,-87
-43,-126,-82,85,19,-104,43,-19,-68,-97,-87,-87
-39,-126,-87,82,24,-107,39,-19,-68,-97,-87,-87
-24,-117,-92,70,34,-104,29,-9,-68,-97,-78,-78
-19,-107,-87,63,34,-97,29,-9,-68,-97,-78,-78
-14,-97,-82,56,34,-90,29,-9,-68,-97,-78,-78
-9,-87,-78,48,34,-82,29,-9,-68,-97,-78,-78
-24,-97,-73,61,24,-85,39,-19,-68,-97,-87,-78
-29,-97,-68,63,19,-82,39,-19,-68,-97,-87,-78
-34,-97,-63,65,14,-80,39,-19,-68,-97,-87,-78
-39,-97,-58,68,9,-78,39,-19,-68,-97,-87,-78
-29,-92,-63,61,17,-78,29,-14,-68,-87,-78,-78
-19,-87,-68,53,24,-78,29,-9,-68,-87,-78,-78
-9,-82,-73,46,31,-78,29,-4,-68,-87,-78,-78
0,-78,-78,39,39,-78,29,0,-68,-87,-78,-78
4,-68,-73,31,39,-70,39,0,-68,-87,-87,-68
9,-68,-78,29,43,-73,39,0,-68,-87,-87,-68
14,-68,-82,26,48,-75,39,0,-68,-87,-87,-68
19,-68,-87,24,53,-78,39,0,-68,-87,-87,-68
4,-92,-97,43,51,-95,29,-4,-73,-102,-92,-78
-9,-107,-97,58,43,-102,29,-9,-78,-107,-97,-87
-24,-122,-97,73,36,-109,29,-14,-82,-112,-102,-97
-39,-136,-97,87,29,-117,29,-19,-87,-117,-107,-107
-39,-126,-87,82,24,-107,39,-19,-97,-117,-107,-102
-39,-126,-87,82,24,-107,39,-19,-97,-117,-107,-97
-39,-126,-87,82,24,-107,39,-19,-97,-117,-107,-92
-39,-126,-87,82,24,-107,39,-19,-97,-117,-107,-87
-24,-107,-82,65,29,-95,39,-4,-87,-117,-97,-78
-9,-97,-87,53,39,-92,39,0,-87,-117,-97,-78
4,-87,-92,41,48,-90,39,4,-87,-117,-97,-78
19,-78,-97,29,58,-87,39,9,-87,-117,-97,-78
29,-73,-102,21,65,-87,34,19,-78,-107,-97,-78
29,-63,-92,17,61,-78,29,19,-78,-107,-97,-78
29,-48,-78,9,53,-63,14,19,-78,-107,-92,-78
29,-43,-73,7,51,-58,9,24,-73,-102,-92,-73
9,-53,-63,21,36,-58,24,9,-73,-107,-97,-82
4,-53,-58,24,31,-56,34,9,-78,-107,-97,-78
14,-53,-68,19,41,-61,53,4,-73,-107,-102,-68
4,-53,-58,24,31,-56,53,0,-68,-102,-97,-68
0,-48,-48,24,24,-48,43,-9,-58,-102,-92,-63
-9,-34,-24,21,7,-29,48,-9,-48,-97,-92,-48
-14,-29,-14,21,0,-21,48,-14,-39,-97,-87,-48
-34,-34,0,34,-17,-17,53,-14,-39,-92,-87,-48
-34,-29,4,31,-19,-12,53,-9,-24,-82,-82,-39
-34,-19,14,26,-24,-2,53,-4,-14,-82,-78,-39
-24,-4,19,14,-21,7,53,0,-9,-73,-63,-34
0,19,19,-9,-9,19,53,4,4,-68,-53,-24
9,43,34,-26,-12,39,53,-4,4,-63,-48,-19
14,58,43,-36,-14,51,39,-4,19,-48,-39,-19
19,82,63,-51,-21,73,24,-4,29,-39,-34,-14
24,92,68,-58,-21,80,4,-14,39,-29,-24,-9
34,92,58,-63,-12,75,-24,-19,29,-29,-24,0
43,102,58,-73,-7,80,-63,-39,24,-29,-19,9
43,107,63,-75,-9,85,-97,-63,14,-29,-14,14
43,131,87,-87,-21,109,-122,-82,14,-24,-9,14
53,141,87,-97,-17,114,-131,-87,14,-24,0,34
58,146,87,-102,-14,117,-131,-92,14,-24,9,39
73,146,73,-109,0,109,-136,-92,14,-19,9,43
78,146,68,-112,4,107,-136,-92,0,-19,9,48
78,175,97,-126,-9,136,-141,-107,-4,-29,0,39
87,180,92,-134,-2,136,-141,-117,-9,-29,0,39
87,180,92,-134,-2,136,-146,-126,-34,-39,-4,39
87,185,97,-136,-4,141,-151,-136,-39,-48,-9,39
97,209,112,-153,-7,161,-151,-126,-43,-39,0,48
107,224,117,-165,-4,170,-156,-122,-43,-39,0,48
117,244,126,-180,-4,185,-156,-122,-39,-29,9,58
126,239,112,-183,7,175,-146,-117,-39,-29,9,58
136,214,78,-175,29,146,-117,-107,-43,-29,9,58
141,200,58,-170,41,129,-112,-97,-58,-39,-4,48
141,185,43,-163,48,114,-92,-87,-63,-48,-9,48
136,170,34,-153,51,102,-78,-73,-68,-48,-9,48
141,170,29,-156,56,100,-82,-58,-68,-39,-9,58
141,161,19,-151,61,90,-87,-53,-68,-39,-9,58
136,156,19,-146,58,87,-97,-53,-73,-43,-9,58
136,161,24,-148,56,92,-102,-53,-73,-48,-19,48
112,131,19,-122,46,75,-87,-58,-82,-58,-29,34
97,92,-4,-95,51,43,-68,-48,-87,-68,-43,19
63,48,-14,-56,39,17,-39,-43,-102,-87,-58,-4
24,4,-19,-14,21,-7,-19,-39,-107,-112,-73,-29
19,-29,-48,4,34,-39,-4,-39,-112,-122,-87,-48
14,-43,-58,14,36,-51,-9,-34,-117,-126,-92,-53
0,-73,-73,36,36,-73,-4,-34,-122,-131,-97,-53
-14,-92,-78,53,31,-85,4,-34,-126,-136,-102,-63
-4,-92,-87,48,41,-90,24,-14,-117,-136,-107,-58
-4,-107,-102,56,48,-104,39,-9,-122,-141,-117,-63
-14,-126,-112,70,48,-119,53,-4,-126,-146,-126,-78
-19,-141,-122,80,51,-131,58,4,-131,-161,-136,-87
-19,-131,-112,75,46,-122,48,-4,-151,-165,-146,-117
-4,-136,-131,70,63,-134,58,-4,-151,-175,-151,-117
0,-136,-136,68,68,-136,58,-4,-156,-180,-156,-122
0,-136,-136,68,68,-136,58,0,-161,-185,-165,-126
0,-131,-131,65,65,-131,48,9,-161,-180,-165,-117
4,-131,-136,63,70,-134,48,9,-161,-185,-165,-122
4,-126,-131,61,68,-129,48,9,-156,-185,-165,-122
4,-122,-126,58,65,-124,48,4,-151,-185,-170,-122
-14,-136,-122,75,53,-129,39,-4,-156,-195,-170,-131
-14,-146,-131,80,58,-139,48,-4,-161,-195,-170,-131
-19,-156,-136,87,58,-146,53,-4,-165,-195,-170,-131
-19,-156,-136,87,58,-146,53,-4,-170,-200,-180,-141
-19,-156,-136,87,58,-146,43,0,-170,-200,-180,-141
-14,-161,-146,87,65,-153,43,9,-170,-204,-175,-136
-4,-165,-161,85,78,-163,43,14,-175,-204,-175,-136
-14,-170,-156,92,70,-163,43,19,-175,-204,-180,-136
-9,-165,-156,87,73,-161,39,19,-175,-204,-180,-131
-4,-161,-156,82,75,-158,39,19,-175,-204,-180,-131
0,-165,-165,82,82,-165,39,19,-180,-204,-180,-131
-4,-165,-161,85,78,-163,39,19,-185,-209,-180,-131
-14,-180,-165,97,75,-173,39,9,-175,-200,-180,-136
-19,-185,-165,102,73,-175,39,9,-175,-200,-180,-136
-19,-185,-165,102,73,-175,39,14,-175,-200,-175,-136
-14,-180,-165,97,75,-173,39,14,-175,-200,-175,-136
-24,-170,-146,97,61,-158,53,4,-175,-200,-175,-131
-24,-175,-151,100,63,-163,63,4,-175,-200,-175,-131
-24,-175,-151,100,63,-163,73,4,-175,-200,-175,-131
-24,-175,-151,100,63,-163,92,4,-175,-200,-175,-131
-29,-190,-161,109,65,-175,82,4,-180,-204,-175,-136
-39,-200,-161,119,61,-180,82,4,-185,-209,-180,-141
-63,-204,-141,134,39,-173,82,0,-190,-214,-190,-146
-68,-209,-141,139,36,-175,82,-9,-204,-229,-200,-161
-78,-224,-146,151,34,-185,68,0,-200,-229,-209,-165
-82,-204,-122,143,19,-163,87,0,-165,-214,-200,-161
-58,-180,-122,119,31,-151,97,14,-126,-195,-185,-151
-63,-146,-82,104,9,-114,112,24,-78,-180,-185,-175
-78,-131,-53,104,-12,-92,126,53,4,-136,-170,-185
-82,-136,-53,109,-14,-95,151,102,156,-29,-102,-161
-73,-107,-34,90,-19,-70,151,161,409,141,9,-97
-63,-24,39,43,-51,7,151,239,771,380,175,9
-19,92,112,-36,-65,102,151,326,1220,653,375,146
58,224,165,-141,-53,195,156,419,1600,946,605,312
156,312,156,-234,0,234,165,517,1830,1210,829,522
214,341,126,-278,43,234,146,575,1786,1351,1010,712
263,390,126,-326,68,258,102,536,1429,1361,1132,888
366,483,117,-424,124,300,14,463,956,1356,1249,1088
527,541,14,-534,256,278,-97,429,541,1337,1361,1307
688,522,-165,-605,427,178,-190,409,14,1171,1361,1464
854,497,-356,-675,605,70,-302,341,-712,839,1283,1595
1039,517,-522,-778,780,-2,-444,239,-1449,497,1200,1737
1229,512,-717,-871,973,-102,-590,131,-2103,180,1137,1903
1381,497,-883,-939,1132,-192,-722,-29,-2723,-156,1024,2015
1473,497,-976,-985,1224,-239,-819,-224,-3235,-492,824,1947
1429,483,-946,-956,1188,-231,-868,-444,-3518,-824,478,1576
1190,473,-717,-832,954,-122,-858,-712,-3562,-1132,58,1054
863,439,-424,-651,644,7,-790,-951,-3425,-1312,-258,653
585,263,-322,-424,453,-29,-658,-1039,-3230,-1459,-556,312
439,-68,-507,-185,473,-287,-502,-946,-3050,-1703,-966,-136
366,-444,-810,39,588,-627,-317,-751,-2825,-1922,-1371,-580
351,-673,-1024,161,688,-849,-151,-517,-2508,-1966,-1566,-790
341,-692,-1034,175,688,-863,-48,-317,-2093,-1810,-1527,-780
297,-575,-873,139,585,-724,-4,-204,-1664,-1498,-1298,-653
224,-434,-658,104,441,-546,14,-146,-1273,-1117,-980,-488
122,-287,-409,82,265,-348,43,-92,-902,-756,-663,-317
19,-195,-214,87,117,-204,78,-58,-595,-468,-409,-204
-48,-136,-87,92,19,-112,112,-24,-361,-263,-244,-156
-92,-107,-14,100,-39,-61,126,0,-204,-136,-146,-131
-122,-97,24,109,-73,-36,141,29,-117,-73,-87,-107
-146,-102,43,124,-95,-29,161,53,-48,-24,-63,-102
-156,-117,39,136,-97,-39,175,73,-9,-4,-43,-97
-131,-122,9,126,-70,-56,165,73,-4,4,-34,-102
-107,-122,-14,114,-46,-68,146,78,9,4,-34,-102
-92,-126,-34,109,-29,-80,136,87,9,4,-39,-102
-87,-136,-48,112,-19,-92,136,92,14,-4,-43,-102
-78,-136,-58,107,-9,-97,136,97,14,-9,-53,-112
-97,-141,-43,119,-26,-92,146,87,19,-14,-58,-122
-97,-146,-48,122,-24,-97,146,87,24,-19,-58,-117
-78,-131,-53,104,-12,-92,136,87,34,-24,-53,-117
-63,-117,-53,90,-4,-85,136,92,39,-29,-43,-117
-78,-136,-58,107,-9,-97,131,87,29,-39,-68,-126
-97,-156,-58,126,-19,-107,126,82,29,-43,-78,-126
-126,-180,-53,153,-36,-117,122,68,29,-48,-87,-136
-151,-200,-48,175,-51,-124,112,48,29,-53,-92,-141
-136,-190,-53,163,-41,-122,122,58,34,-48,-78,-136
-131,-175,-43,153,-43,-109,122,63,48,-43,-73,-131
-102,-156,-53,129,-24,-104,126,63,63,-34,-68,-117
-73,-131,-58,102,-7,-95,126,63,68,-24,-63,-112
-73,-126,-53,100,-9,-90,122,73,68,-29,-68,-112
-73,-126,-53,100,-9,-90,117,73,68,-29,-63,-107
-87,-131,-43,109,-21,-87,112,68,63,-29,-63,-107
-78,-131,-53,104,-12,-92,102,63,58,-29,-63,-107
-82,-131,-48,107,-17,-90,117,53,58,-39,-73,-107
-97,-136,-39,117,-29,-87,112,53,58,-39,-73,-107
-102,-141,-39,122,-31,-90,117,53,68,-34,-68,-107
-107,-141,-34,124,-36,-87,122,53,68,-29,-68,-102
-97,-146,-48,122,-24,-97,107,63,68,-29,-58,-112
-97,-146,-48,122,-24,-97,102,63,68,-29,-58,-112
-97,-146,-48,122,-24,-97,97,58,68,-29,-58,-117
-97,-146,-48,122,-24,-97,92,58,68,-19,-58,-117
-112,-161,-48,136,-31,-104,107,53,63,-19,-68,-122
-122,-161,-39,141,-41,-100,112,43,63,-24,-68,-122
-131,-165,-34,148,-48,-100,117,39,68,-24,-63,-122
-131,-165,-34,148,-48,-100,136,39,73,-19,-58,-112
-122,-156,-34,139,-43,-95,126,48,82,-9,-48,-102
-122,-151,-29,136,-46,-90,122,48,82,-9,-48,-102
-112,-141,-29,126,-41,-85,107,48,87,-9,-48,-107
-102,-122,-19,112,-41,-70,107,53,92,-4,-43,-107
-82,-112,-29,97,-26,-70,102,63,97,-4,-43,-97
-73,-82,-9,78,-31,-46,107,63,102,-4,-34,-87
-53,-68,-14,61,-19,-41,107,63,107,0,-29,-87
-48,-63,-14,56,-17,-39,107,63,107,0,-29,-87
-58,-53,4,56,-31,-24,97,78,112,14,-29,-97
-48,-53,-4,51,-21,-29,92,78,112,14,-29,-92
-48,-48,0,48,-24,-24,92,78,112,14,-34,-92
-58,-48,9,53,-34,-19,92,73,112,14,-34,-92
-73,-63,9,68,-41,-26,92,68,107,9,-34,-102
-78,-73,4,75,-41,-34,92,68,107,9,-34,-102
-82,-82,0,82,-41,-41,82,63,117,9,-34,-102
-92,-92,0,92,-46,-46,73,58,117,9,-34,-107
-107,-97,9,102,-58,-43,78,48,112,9,-34,-112
-112,-97,14,104,-63,-41,87,48,112,9,-39,-112
-112,-97,14,104,-63,-41,97,48,112,9,-39,-107
-112,-92,19,102,-65,-36,107,48,117,9,-34,-107
-107,-87,19,97,-63,-34,92,53,131,19,-29,-102
-102,-87,14,95,-58,-36,92,48,131,24,-24,-102
-97,-82,14,90,-56,-34,87,53,136,29,-19,-97
-87,-73,14,80,-51,-29,82,63,136,34,-14,-92
-102,-78,24,90,-63,-26,78,58,136,29,-14,-97
-107,-82,24,95,-65,-29,73,43,141,29,-19,-102
-117,-87,29,102,-73,-29,68,39,141,24,-24,-107
-122,-87,34,104,-78,-26,58,39,141,24,-24,-112
-107,-73,34,90,-70,-19,58,43,156,39,-14,-102
-102,-63,39,82,-70,-12,58,48,161,39,-9,-97
-97,-58,39,78,-68,-9,63,53,161,39,-4,-92
-92,-48,43,70,-68,-2,73,58,170,43,0,-87
-102,-43,58,73,-80,7,87,53,175,39,4,-97
-102,-34,68,68,-85,17,87,43,170,39,0,-97
-97,-19,78,58,-87,29,87,39,170,48,4,-92
-97,-14,82,56,-90,34,87,34,170,53,0,-92
-112,-34,78,73,-95,21,97,48,175,63,9,-92
-112,-29,82,70,-97,26,92,48,180,68,14,-92
-102,-34,68,68,-85,17,92,48,185,73,14,-87
-102,-39,63,70,-82,12,87,48,190,73,19,-87
-102,-14,87,58,-95,36,82,43,195,73,24,-92
-102,-9,92,56,-97,41,73,43,200,78,24,-92
-107,0,107,53,-107,53,68,43,200,78,19,-92
-107,9,117,48,-112,63,63,43,204,78,19,-92
-112,4,117,53,-114,61,68,43,204,87,19,-82
-117,0,117,58,-117,58,68,43,214,92,29,-82
-122,4,126,58,-124,65,68,43,219,97,34,-82
-126,4,131,61,-129,68,58,43,219,97,34,-82
-122,19,141,51,-131,80,48,43,239,107,43,-82
-122,24,146,48,-134,85,48,43,244,112,43,-82
-117,34,151,41,-134,92,43,39,244,117,48,-82
-112,48,161,31,-136,104,43,39,253,122,58,-82
-122,48,170,36,-146,109,43,53,268,126,63,-73
-122,53,175,34,-148,114,43,53,268,131,68,-68
-122,58,180,31,-151,119,34,48,273,136,73,-68
-122,58,180,31,-151,119,29,48,278,141,73,-68
-136,58,195,39,-165,126,43,43,278,136,68,-68
-131,68,200,31,-165,134,53,43,283,146,73,-73
-136,63,200,36,-168,131,58,39,292,151,78,-68
-141,63,204,39,-173,134,63,34,297,165,87,-73
-136,58,195,39,-165,126,58,43,307,175,92,-63
-136,68,204,34,-170,136,53,43,317,180,97,-63
-136,82,219,26,-178,151,53,43,322,190,102,-58
-141,92,234,24,-187,163,53,43,326,195,107,-58
-122,112,234,4,-178,173,48,43,336,200,122,-48
-126,136,263,-4,-195,200,39,34,341,209,122,-48
-126,156,283,-14,-204,219,34,34,346,214,122,-48
-126,175,302,-24,-214,239,29,39,351,219,131,-48
-117,190,307,-36,-212,248,24,53,375,229,151,-39
-122,200,322,-39,-222,261,24,53,385,244,165,-39
-117,204,322,-43,-219,263,24,53,395,253,175,-34
-122,204,326,-41,-224,265,29,53,405,268,185,-34
-151,200,351,-24,-251,275,29,43,400,258,180,-43
-165,195,361,-14,-263,278,24,39,400,268,180,-43
-175,195,370,-9,-273,283,19,29,409,273,185,-43
-190,200,390,-4,-290,295,14,19,414,278,185,-48
-209,190,400,9,-305,295,24,29,424,292,200,-39
-219,190,409,14,-314,300,29,19,429,297,204,-39
-229,195,424,17,-326,309,39,19,434,307,214,-34
-229,209,439,9,-334,324,48,14,439,317,224,-34
-219,239,458,-9,-339,348,58,14,448,331,234,-19
-209,258,468,-24,-339,363,53,14,453,341,244,-14
-200,268,468,-34,-334,368,48,14,468,351,253,-14
-195,278,473,-41,-334,375,48,14,468,370,263,-4
-204,278,483,-36,-344,380,39,9,468,380,273,-9
-209,278,488,-34,-348,383,39,9,473,390,283,-4
-214,287,502,-36,-358,395,34,4,488,400,292,0
-224,287,512,-31,-368,400,34,4,497,419,307,4
-214,307,522,-46,-368,414,19,9,497,424,317,9
-209,317,527,-53,-368,422,14,14,507,444,331,24
-200,336,536,-68,-368,436,9,19,512,453,346,24
-190,356,546,-82,-368,451,0,24,522,463,356,34
-209,346,556,-68,-383,451,-9,9,522,473,351,29
-219,336,556,-58,-387,446,-19,4,527,483,361,34
-229,331,561,-51,-395,446,-29,-4,527,488,370,39
-239,326,566,-43,-402,446,-39,-9,527,492,370,43
-253,317,570,-31,-412,444,-29,-19,527,497,380,43
-244,322,566,-39,-405,444,-24,-14,527,512,400,58
-239,326,566,-43,-402,446,-19,-14,527,527,409,63
-239,322,561,-41,-400,441,-14,-14,522,541,414,73
-209,336,546,-63,-378,441,-14,-4,531,561,439,97
-200,331,531,-65,-366,431,-24,-4,531,570,448,107
-195,336,531,-70,-363,434,-29,-4,531,580,453,117
-165,351,517,-92,-341,434,-39,-4,531,590,463,126
-141,375,517,-117,-329,446,-48,4,527,595,488,141
-112,395,507,-141,-309,451,-68,9,531,610,497,161
-92,400,492,-153,-292,446,-73,19,531,619,502,175
-63,409,473,-173,-268,441,-73,29,522,629,517,195
-68,390,458,-161,-263,424,-73,9,507,624,517,200
-63,375,439,-156,-251,407,-73,4,497,619,512,204
-63,356,419,-146,-241,387,-82,0,488,610,507,214
-68,331,400,-131,-234,366,-82,-4,468,590,497,209
-87,312,400,-112,-244,356,-73,-29,444,575,492,214
-87,283,370,-97,-229,326,-68,-34,419,556,478,209
-73,253,326,-90,-200,290,-68,-39,405,536,458,209
-68,239,307,-85,-187,273,-63,-34,390,517,444,204
-43,239,283,-97,-163,261,-63,-29,375,497,429,209
-29,244,273,-107,-151,258,-63,-24,356,468,409,209
0,239,239,-119,-119,239,-58,-19,336,444,400,209
19,219,200,-119,-90,209,-53,-14,317,424,380,209
29,219,190,-124,-80,204,-53,0,307,400,366,200
43,204,161,-124,-58,183,-58,0,283,375,346,195
63,195,131,-129,-34,163,-63,4,263,346,322,190
73,180,107,-126,-17,143,-68,9,248,326,302,185
73,151,78,-112,-2,114,-78,9,214,292,268,165
63,136,73,-100,-4,104,-73,4,190,253,234,141
63,117,53,-90,4,85,-68,-4,165,224,204,126
43,97,53,-70,-4,75,-63,-9,146,190,175,112
43,58,14,-51,14,36,-73,-9,136,170,161,107
43,48,4,-46,19,26,-68,-9,107,141,136,92
48,43,-4,-46,26,19,-68,-9,92,117,112,78
48,29,-19,-39,34,4,-68,-4,78,92,87,63
53,19,-34,-36,43,-7,-48,-9,68,82,78,58
53,14,-39,-34,46,-12,-43,-14,48,58,53,48
53,19,-34,-36,43,-7,-39,-19,34,34,34,34
58,19,-39,-39,48,-9,-34,-24,24,19,19,19
43,4,-39,-24,41,-17,-34,-24,0,-4,0,4
39,-4,-43,-17,41,-24,-39,-24,-4,-24,-9,-9
34,-19,-53,-7,43,-36,-39,-24,-19,-34,-24,-14
29,-34,-63,2,46,-48,-39,-24,-29,-48,-34,-19
34,-43,-78,4,56,-61,-39,-14,-29,-58,-39,-19
34,-43,-78,4,56,-61,-39,-14,-29,-58,-43,-29
53,-34,-87,-9,70,-61,-39,-9,-34,-63,-53,-34
43,-34,-78,-4,61,-56,-34,-4,-29,-68,-58,-39
34,-39,-73,2,53,-56,-39,-4,-29,-68,-63,-39
29,-48,-78,9,53,-63,-39,-14,-43,-78,-73,-43
29,-53,-82,12,56,-68,-39,-14,-48,-87,-82,-48
29,-68,-97,19,63,-82,-39,-14,-48,-87,-82,-58
43,-63,-107,9,75,-85,-29,-4,-48,-82,-82,-53
53,-53,-107,0,80,-80,-24,-4,-48,-92,-82,-53
68,-39,-107,-14,87,-73,-9,-4,-43,-92,-82,-53
78,-29,-107,-24,92,-68,-4,-4,-39,-92,-78,-48
73,-34,-107,-19,90,-70,0,0,-39,-97,-82,-43
78,-29,-107,-24,92,-68,0,4,-39,-97,-82,-43
97,-19,-117,-39,107,-68,4,14,-34,-92,-78,-39
107,-4,-112,-51,109,-58,9,19,-34,-92,-78,-39
92,-4,-97,-43,95,-51,0,19,-39,-107,-97,-53
82,-9,-92,-36,87,-51,-9,14,-43,-107,-102,-58
68,-19,-87,-24,78,-53,-29,14,-48,-107,-107,-63
43,-39,-82,-2,63,-61,-39,9,-58,-117,-112,-68
24,-68,-92,21,58,-80,-34,0,-63,-126,-117,-63
9,-87,-97,39,53,-92,-24,-9,-68,-131,-122,-68
0,-92,-92,46,46,-92,-14,-14,-73,-136,-126,-68
-4,-97,-92,51,43,-95,0,-19,-73,-136,-126,-68
4,-82,-87,39,46,-85,0,-24,-68,-131,-126,-73
19,-78,-97,29,58,-87,0,-24,-68,-131,-126,-73
29,-63,-92,17,61,-78,0,-19,-68,-131,-126,-78
39,-53,-92,7,65,-73,-4,-14,-63,-131,-126,-78
48,-58,-107,4,78,-82,-14,-9,-58,-122,-126,-78
48,-58,-107,4,78,-82,-14,-4,-58,-122,-126,-78
43,-63,-107,9,75,-85,-9,-4,-58,-122,-126,-78
39,-73,-112,17,75,-92,-9,0,-58,-126,-126,-73
53,-53,-107,0,80,-80,-9,-9,-58,-131,-126,-63
53,-48,-102,-2,78,-75,-14,-9,-63,-136,-122,-78
53,-43,-97,-4,75,-70,-14,-4,-63,-136,-122,-78
58,-39,-97,-9,78,-68,-14,-4,-63,-136,-122,-78
43,-43,-87,0,65,-65,-34,4,-63,-141,-131,-78
43,-53,-97,4,70,-75,-24,0,-63,-141,-131,-78
43,-58,-102,7,73,-80,-24,0,-63,-136,-131,-78
48,-58,-107,4,78,-82,-24,4,-63,-136,-131,-73
43,-58,-102,7,73,-80,-24,4,-73,-146,-131,-82
39,-58,-97,9,68,-78,-24,0,-73,-146,-131,-87
24,-63,-87,19,56,-75,-19,0,-73,-146,-131,-87
29,-63,-92,17,61,-78,-19,4,-73,-146,-131,-87
63,-34,-97,-14,80,-65,-29,19,-68,-141,-122,-73
73,-24,-97,-24,85,-61,-29,19,-63,-136,-117,-68
78,0,-78,-39,78,-39,-29,14,-58,-131,-112,-68
82,0,-82,-41,82,-41,-29,14,-48,-126,-102,-68
53,-34,-87,-9,70,-61,-19,0,-53,-131,-107,-73
34,-48,-82,7,58,-65,-24,-14,-58,-146,-117,-78
24,-58,-82,17,53,-70,-24,-19,-73,-151,-131,-87
4,-73,-78,34,41,-75,-19,-24,-78,-151,-136,-92
0,-87,-87,43,43,-87,-24,-34,-78,-151,-141,-82
0,-82,-82,41,41,-82,-24,-34,-73,-151,-141,-82
4,-73,-78,34,41,-75,-19,-34,-73,-151,-141,-82
0,-78,-78,39,39,-78,-19,-34,-73,-151,-136,-82
-4,-68,-63,36,29,-65,-9,-24,-63,-141,-126,-82
-4,-73,-68,39,31,-70,-4,-29,-68,-136,-126,-82
-4,-73,-68,39,31,-70,0,-29,-68,-136,-126,-82
0,-73,-73,36,36,-73,14,-29,-63,-136,-126,-82
4,-68,-73,31,39,-70,4,-14,-53,-131,-112,-73
19,-48,-68,14,43,-58,0,-14,-53,-131,-107,-68
34,-29,-63,-2,48,-46,0,-4,-48,-131,-107,-63
48,-19,-68,-14,58,-43,0,-4,-48,-122,-97,-63
53,-14,-68,-19,61,-41,-9,4,-53,-122,-97,-73
58,-9,-68,-24,63,-39,-24,4,-53,-117,-97,-73
53,-4,-58,-24,56,-31,-34,4,-53,-117,-102,-73
48,-19,-68,-14,58,-43,-48,0,-53,-126,-102,-68
53,-9,-63,-21,58,-36,-39,0,-43,-107,-97,-68
43,0,-43,-21,43,-21,-43,0,-43,-107,-97,-73
43,-9,-53,-17,48,-31,-43,-9,-43,-107,-97,-73
43,-19,-63,-12,53,-41,-34,-9,-43,-107,-97,-73
34,-19,-53,-7,43,-36,-29,-14,-53,-112,-92,-68
34,-19,-53,-7,43,-36,-24,-14,-48,-112,-92,-63
29,-24,-53,-2,41,-39,-19,-14,-48,-112,-87,-63
14,-39,-53,12,34,-46,-4,-19,-48,-112,-87,-63
-4,-63,-58,34,26,-61,-9,-24,-58,-112,-92,-68
-14,-68,-53,41,19,-61,-14,-29,-63,-117,-97,-82
-19,-63,-43,41,12,-53,-19,-34,-63,-122,-102,-87
-29,-68,-39,48,4,-53,-34,-39,-63,-122,-102,-87
-19,-68,-48,43,14,-58,-24,-29,-58,-117,-92,-82
-9,-53,-43,31,17,-48,-9,-24,-53,-107,-82,-68
-9,-53,-43,31,17,-48,0,-24,-53,-102,-78,-63
-9,-53,-43,31,17,-48,9,-24,-53,-97,-78,-63
9,-48,-58,19,34,-53,0,-14,-53,-87,-68,-53
24,-34,-58,4,41,-46,-9,-4,-48,-87,-63,-53
39,-19,-58,-9,48,-39,-14,4,-43,-82,-63,-48
53,-4,-58,-24,56,-31,-24,19,-39,-78,-58,-48
29,-29,-58,0,43,-43,-19,9,-43,-82,-58,-53
9,-43,-53,17,31,-48,-19,0,-43,-87,-63,-53
-4,-48,-43,26,19,-46,-14,-14,-48,-92,-73,-58
-19,-73,-53,46,17,-63,-9,-24,-53,-97,-78,-68
-9,-63,-53,36,21,-58,-9,-24,-53,-97,-82,-58
-4,-63,-58,34,26,-61,-4,-24,-58,-102,-82,-63
-4,-63,-58,34,26,-61,-4,-29,-58,-102,-82,-68
-14,-73,-58,43,21,-65,-9,-29,-58,-102,-82,-68
-14,-63,-48,39,17,-56,0,-19,-58,-92,-82,-58
-9,-58,-48,34,19,-53,0,-19,-58,-102,-82,-58
-4,-48,-43,26,19,-46,0,-19,-53,-92,-82,-58
4,-43,-48,19,26,-46,4,-19,-53,-92,-82,-58
9,-34,-43,12,26,-39,-4,-19,-48,-92,-73,-58
9,-29,-39,9,24,-34,-9,-19,-48,-92,-73,-58
14,-29,-43,7,29,-36,-14,-19,-48,-97,-78,-53
19,-24,-43,2,31,-34,-19,-19,-48,-97,-78,-53
19,-39,-58,9,39,-48,-19,-14,-53,-107,-87,-68
9,-48,-58,19,34,-53,-19,-14,-58,-107,-87,-68
4,-58,-63,26,34,-61,-19,-14,-63,-107,-87,-68
-4,-68,-63,36,29,-65,-14,-14,-68,-107,-87,-68
0,-58,-58,29,29,-58,-19,-19,-73,-117,-87,-78
0,-53,-53,26,26,-53,-19,-24,-73,-122,-92,-78
0,-53,-53,26,26,-53,-14,-29,-73,-122,-92,-78
0,-58,-58,29,29,-58,-14,-29,-73,-122,-92,-78
4,-43,-48,19,26,-46,-19,-19,-68,-112,-87,-63
14,-39,-53,12,34,-46,-34,-14,-73,-107,-87,-63
24,-34,-58,4,41,-46,-43,-4,-68,-102,-82,-63
34,-39,-73,2,53,-56,-48,4,-63,-97,-82,-63
34,-29,-63,-2,48,-46,-43,-4,-63,-102,-87,-63
34,-29,-63,-2,48,-46,-39,0,-63,-102,-82,-53
34,-29,-63,-2,48,-46,-29,0,-63,-102,-87,-53
24,-39,-63,7,43,-51,-19,-4,-73,-112,-92,-63
-14,-87,-73,51,29,-80,-9,-34,-82,-122,-102,-78
-39,-97,-58,68,9,-78,-24,-39,-97,-136,-117,-87
-48,-87,-39,68,-4,-63,-34,-39,-112,-151,-126,-92
-19,-68,-48,43,14,-58,-24,-39,-112,-151,-126,-92
0,-58,-58,29,29,-58,0,-29,-97,-136,-117,-78
0,-48,-48,24,24,-48,4,-29,-87,-136,-117,-78
0,-48,-48,24,24,-48,9,-29,-87,-136,-117,-78
0,-48,-48,24,24,-48,14,-29,-87,-136,-117,-78
0,-48,-48,24,24,-48,19,-29,-87,-136,-117,-78
0,-58,-58,29,29,-58,19,-19,-87,-136,-117,-68
0,-53,-53,26,26,-53,9,-19,-87,-136,-112,-68
0,-58,-58,29,29,-58,9,-14,-82,-131,-112,-63
0,-63,-63,31,31,-63,14,-14,-78,-131,-112,-63
4,-43,-48,19,26,-46,4,-9,-78,-126,-97,-68
24,-34,-58,4,41,-46,4,-9,-68,-122,-97,-58
24,-24,-48,0,36,-36,-14,-9,-58,-112,-87,-58
24,-4,-29,-9,26,-17,-24,-9,-48,-102,-73,-53
39,34,-4,-36,21,14,-14,-4,-34,-92,-63,-34
48,53,4,-51,21,29,-9,-4,-19,-87,-58,-29
43,63,19,-53,12,41,0,0,-14,-78,-58,-24
43,68,24,-56,9,46,4,4,-4,-73,-58,-19
29,53,24,-41,2,39,-4,-4,-4,-82,-68,-29
24,53,29,-39,-2,41,-14,-4,0,-73,-58,-24
34,63,29,-48,2,46,-24,-4,14,-68,-53,-14
43,82,39,-63,2,61,-34,-4,14,-63,-39,-4
48,87,39,-68,4,63,-29,-19,19,-48,-39,0
53,112,58,-82,-2,85,-34,-24,29,-39,-34,9
58,122,63,-90,-2,92,-43,-39,39,-29,-24,19
68,136,68,-102,0,102,-63,-58,39,-29,-24,19
73,151,78,-112,-2,114,-112,-78,24,-39,-19,19
78,161,82,-119,-2,122,-146,-102,14,-39,-14,24
82,190,107,-136,-12,148,-170,-122,14,-34,-9,24
82,204,122,-143,-19,163,-180,-136,14,-34,-9,34
97,224,126,-161,-14,175,-170,-136,24,-24,9,48
122,229,107,-175,7,168,-175,-131,24,-19,9,53
136,234,97,-185,19,165,-175,-126,9,-19,9,58
146,248,102,-197,21,175,-170,-122,4,-19,9,58
156,253,97,-204,29,175,-175,-117,9,-19,9,58
156,253,97,-204,29,175,-185,-122,-14,-29,4,58
156,258,102,-207,26,180,-195,-126,-19,-39,0,58
156,268,112,-212,21,190,-200,-126,-24,-39,0,58
146,258,112,-202,17,185,-219,-131,-29,-43,-9,53
136,253,117,-195,9,185,-224,-131,-29,-39,0,58
126,224,97,-175,14,161,-219,-126,-34,-43,0,53
117,195,78,-156,19,136,-209,-122,-53,-48,0,48
126,185,58,-156,34,122,-200,-117,-63,-48,-14,48
131,175,43,-153,43,109,-175,-112,-63,-58,-19,48
131,165,34,-148,48,100,-156,-102,-63,-58,-19,48
131,165,34,-148,48,100,-141,-97,-58,-58,-19,48
126,151,24,-139,51,87,-126,-102,-68,-48,-19,48
117,141,24,-129,46,82,-126,-102,-73,-53,-19,48
112,141,29,-126,41,85,-122,-102,-73,-58,-29,39
107,141,34,-124,36,87,-117,-97,-73,-63,-29,39
122,126,4,-124,58,65,-117,-78,-68,-68,-39,39
107,107,0,-107,53,53,-97,-73,-82,-82,-48,19
87,87,0,-87,43,43,-87,-68,-87,-102,-58,0
92,68,-24,-80,58,21,-68,-53,-87,-102,-58,-9
102,58,-43,-80,73,7,-58,-34,-87,-97,-63,-4
92,34,-58,-63,75,-12,-48,-29,-87,-102,-68,-4
82,19,-63,-51,73,-21,-34,-24,-87,-107,-73,-14
73,4,-68,-39,70,-31,-24,-19,-92,-112,-82,-24
63,-19,-82,-21,73,-51,-14,-9,-102,-122,-97,-43
43,-48,-92,2,68,-70,-4,-9,-112,-131,-112,-63
29,-73,-102,21,65,-87,-4,-4,-122,-151,-126,-78
19,-73,-92,26,56,-82,-9,-4,-131,-156,-136,-97
9,-92,-102,41,56,-97,-9,-19,-136,-180,-146,-107
0,-107,-107,53,53,-107,-9,-24,-146,-190,-156,-112
-14,-122,-107,68,46,-114,-9,-24,-156,-200,-170,-117
-34,-146,-112,90,39,-129,-9,-29,-165,-209,-175,-117
-19,-146,-126,82,53,-136,-19,-29,-165,-209,-165,-122
-19,-141,-122,80,51,-131,-19,-29,-161,-204,-165,-122
-19,-136,-117,78,48,-126,-19,-34,-156,-200,-170,-122
-24,-136,-112,80,43,-124,-19,-34,-151,-195,-170,-122
-14,-131,-117,73,51,-124,-4,-24,-141,-195,-161,-112
-9,-136,-126,73,58,-131,4,-24,-141,-195,-161,-112
0,-131,-131,65,65,-131,9,-24,-141,-200,-170,-122
9,-122,-131,56,70,-126,14,-24,-141,-200,-170,-122
0,-136,-136,68,68,-136,24,-19,-151,-204,-175,-126
4,-141,-146,68,75,-143,24,-19,-156,-204,-175,-126
-9,-146,-136,78,63,-141,24,-19,-156,-204,-180,-126
-14,-151,-136,82,61,-143,19,-19,-156,-204,-180,-131
-14,-151,-136,82,61,-143,29,-29,-165,-214,-190,-131
-14,-161,-146,87,65,-153,29,-29,-170,-214,-190,-131
-24,-165,-141,95,58,-153,29,-29,-175,-219,-190,-131
-29,-175,-146,102,58,-161,29,-29,-175,-219,-200,-136
-19,-165,-146,92,63,-156,19,-24,-170,-214,-195,-131
-4,-151,-146,78,70,-148,19,-14,-165,-209,-185,-126
14,-131,-146,58,80,-139,19,-9,-161,-204,-180,-122
24,-122,-146,48,85,-134,24,-4,-156,-200,-175,-112
4,-151,-156,73,80,-153,24,-19,-170,-214,-190,-122
-14,-165,-151,90,68,-158,24,-24,-175,-219,-195,-131
-34,-180,-146,107,56,-163,34,-29,-180,-224,-200,-141
-53,-204,-151,129,48,-178,34,-34,-185,-229,-200,-151
-39,-200,-161,119,61,-180,43,-14,-165,-209,-170,-122
-39,-190,-151,114,56,-170,43,-19,-165,-200,-175,-122
-48,-190,-141,119,46,-165,43,-29,-175,-219,-190,-131
-58,-175,-117,117,29,-146,48,-39,-170,-229,-200,-146
-53,-156,-102,104,24,-129,39,-39,-146,-214,-190,-151
-39,-122,-82,80,21,-102,39,-14,-107,-185,-175,-151
-24,-87,-63,56,19,-75,53,24,-29,-151,-165,-146
-9,-53,-43,31,17,-48,87,73,82,-87,-122,-136
-4,-29,-24,17,9,-26,122,112,263,39,-43,-102
-4,29,34,-12,-19,31,131,180,546,219,87,-29
24,122,97,-73,-36,109,131,258,946,478,263,87
39,219,180,-129,-70,200,122,336,1385,751,473,234
68,283,214,-175,-73,248,107,419,1698,1024,692,400
146,351,204,-248,-29,278,107,507,1830,1229,888,590
214,419,204,-317,4,312,78,536,1659,1302,1010,751
292,488,195,-390,48,341,14,478,1224,1273,1112,917
405,551,146,-478,129,348,-82,424,780,1278,1249,1127
546,561,14,-553,265,287,-165,390,356,1210,1302,1288
717,522,-195,-619,456,163,-258,361,-287,956,1234,1395
902,488,-414,-695,658,36,-390,283,-1073,595,1117,1498
1107,488,-619,-797,863,-65,-522,180,-1810,244,1024,1620
1317,502,-814,-910,1066,-156,-658,43,-2483,-102,922,1747
1498,458,-1039,-978,1268,-290,-771,-97,-3084,-439,790,1820
1620,409,-1210,-1015,1415,-400,-849,-253,-3528,-756,570,1703
1576,405,-1171,-990,1373,-383,-888,-463,-3742,-1068,214,1312
1337,395,-941,-866,1139,-273,-858,-722,-3708,-1317,-175,810
980,312,-668,-646,824,-178,-790,-951,-3503,-1429,-424,478
712,146,-566,-429,639,-209,-688,-1039,-3269,-1546,-673,195
575,-136,-712,-219,644,-424,-541,-927,-3069,-1771,-1063,-214
531,-463,-995,-34,763,-729,-346,-673,-2825,-1971,-1449,-610
517,-673,-1190,78,854,-932,-190,-419,-2469,-1995,-1615,-810
478,-663,-1141,92,810,-902,-107,-239,-2034,-1810,-1537,-790
414,-517,-932,51,673,-724,-63,-156,-1615,-1468,-1278,-653
302,-395,-697,46,500,-546,-24,-126,-1244,-1107,-961,-488
151,-307,-458,78,305,-383,-4,-122,-912,-785,-683,-346
-9,-224,-214,117,102,-219,0,-117,-614,-517,-458,-244
-136,-175,-39,156,-48,-107,53,-92,-390,-312,-302,-195
-209,-195,14,202,-112,-90,117,-68,-234,-185,-195,-170
-239,-214,24,226,-131,-95,161,-29,-126,-102,-126,-136
-204,-180,24,192,-114,-78,170,14,-58,-53,-73,-112
-165,-146,19,156,-92,-63,185,43,-19,-14,-53,-107
-141,-151,-9,146,-65,-80,165,53,4,-4,-34,-102
-141,-161,-19,151,-61,-90,151,43,9,-9,-39,-102
-131,-165,-34,148,-48,-100,136,48,9,-14,-48,-102
-131,-175,-43,153,-43,-109,131,48,14,-29,-58,-102
-126,-175,-48,151,-39,-112,126,48,14,-39,-73,-112
-122,-161,-39,141,-41,-100,122,58,29,-29,-68,-102
-117,-156,-39,136,-39,-97,117,58,34,-29,-68,-97
-92,-131,-39,112,-26,-85,102,58,43,-29,-63,-97
-73,-107,-34,90,-19,-70,97,63,48,-29,-53,-97
-68,-102,-34,85,-17,-68,107,73,58,-19,-53,-87
-68,-107,-39,87,-14,-73,107,73,58,-24,-58,-87
-78,-117,-39,97,-19,-78,107,63,58,-29,-63,-97
-82,-122,-39,102,-21,-80,102,48,58,-34,-63,-102
-112,-146,-34,129,-39,-90,107,34,53,-39,-68,-107
-131,-156,-24,143,-53,-90,112,34,58,-43,-73,-112
-126,-161,-34,143,-46,-97,122,29,63,-43,-78,-107
-122,-161,-39,141,-41,-100,126,24,58,-43,-82,-112
-112,-151,-39,131,-36,-95,117,43,63,-29,-78,-102
-112,-156,-43,134,-34,-100,117,43,68,-29,-73,-97
-126,-165,-39,146,-43,-102,117,39,68,-29,-73,-97
-117,-170,-53,143,-31,-112,112,34,68,-29,-73,-97
-102,-146,-43,124,-29,-95,97,43,78,-29,-73,-107
-107,-136,-29,122,-39,-82,82,43,78,-29,-73,-107
-102,-126,-24,114,-39,-75,78,43,87,-24,-68,-107
-97,-112,-14,104,-41,-63,73,43,87,-19,-68,-102
-92,-102,-9,97,-41,-56,73,43,87,-9,-58,-92
-87,-97,-9,92,-39,-53,73,43,87,-9,-58,-92
-82,-92,-9,87,-36,-51,73,39,87,-9,-58,-97
-78,-87,-9,82,-34,-48,73,39,87,0,-58,-97
-82,-97,-14,90,-34,-56,82,48,102,-9,-58,-92
-82,-92,-9,87,-36,-51,82,43,102,-14,-58,-92
-82,-92,-9,87,-36,-51,82,43,107,-14,-53,-92
-73,-87,-14,80,-29,-51,97,48,112,-9,-48,-82
-82,-97,-14,90,-34,-56,92,48,112,0,-48,-82
-92,-102,-9,97,-41,-56,92,48,112,0,-48,-82
-92,-102,-9,97,-41,-56,82,48,117,0,-48,-87
-92,-92,0,92,-46,-46,87,53,122,4,-43,-87
-97,-97,0,97,-48,-48,78,43,122,4,-53,-87
-92,-73,19,82,-56,-26,78,43,122,4,-43,-78
-78,-63,14,70,-46,-24,73,43,122,9,-39,-78
-78,-63,14,70,-46,-24,68,43,117,9,-39,-78
-87,-82,4,85,-46,-39,73,48,122,4,-39,-87
-87,-92,-4,90,-41,-48,73,48,122,4,-39,-82
-97,-97,0,97,-48,-48,78,48,122,4,-43,-82
-117,-107,9,112,-63,-48,82,43,122,4,-43,-82
-107,-97,9,102,-58,-43,82,39,117,9,-43,-82
-107,-92,14,100,-61,-39,82,39,117,9,-43,-82
-107,-87,19,97,-63,-34,73,34,126,9,-43,-82
-112,-82,29,97,-70,-26,63,29,126,9,-43,-87
-107,-73,34,90,-70,-19,63,34,136,14,-39,-87
-102,-68,34,85,-68,-17,68,39,141,19,-39,-82
-92,-63,29,78,-61,-17,73,43,146,24,-34,-73
-82,-53,29,68,-56,-12,78,48,156,29,-24,-68
-82,-48,34,65,-58,-7,63,48,161,34,-14,-78
-82,-48,34,65,-58,-7,53,39,161,34,-14,-82
-82,-43,39,63,-61,-2,39,39,165,34,-14,-82
-78,-34,43,56,-61,4,24,43,165,34,-14,-82
-87,-24,63,56,-75,19,34,34,165,43,-9,-73
-87,-24,63,56,-75,19,43,24,170,48,-9,-73
-92,-24,68,58,-80,21,53,24,170,48,-9,-73
-92,-19,73,56,-82,26,58,29,170,53,-4,-73
-97,-19,78,58,-87,29,63,29,165,48,-9,-78
-102,-24,78,63,-90,26,58,29,170,48,-9,-78
-107,-34,73,70,-90,19,58,29,170,48,-9,-78
-112,-39,73,75,-92,17,63,29,180,53,-9,-78
-122,-58,63,90,-92,2,68,19,185,48,-4,-87
-131,-63,68,97,-100,2,68,14,180,48,-9,-87
-136,-63,73,100,-104,4,68,14,180,58,-4,-82
-146,-73,73,109,-109,0,68,14,180,63,-9,-82
-146,-53,92,100,-119,19,63,19,195,63,0,-82
-141,-29,112,85,-126,41,53,19,200,68,4,-82
-126,-14,112,70,-119,48,48,19,204,73,4,-78
-122,0,122,61,-122,61,39,19,209,73,9,-78
-112,14,126,48,-119,70,48,29,219,87,24,-68
-102,19,122,41,-112,70,43,34,229,97,34,-63
-97,29,126,34,-112,78,43,39,234,102,39,-58
-87,39,126,24,-107,82,43,43,244,107,48,-53
-87,48,136,19,-112,92,48,34,253,107,48,-43
-87,48,136,19,-112,92,48,34,263,112,58,-43
-87,58,146,14,-117,102,48,34,268,117,63,-43
-87,63,151,12,-119,107,39,34,268,117,63,-43
-112,53,165,29,-139,109,29,43,278,126,63,-43
-122,43,165,39,-143,104,29,43,283,131,63,-43
-126,39,165,43,-146,102,24,39,283,136,68,-43
-131,39,170,46,-151,104,24,39,292,141,78,-43
-126,58,185,34,-156,122,34,34,307,146,73,-43
-122,73,195,24,-158,134,34,34,307,151,78,-39
-117,87,204,14,-161,146,24,29,312,156,82,-39
-112,97,209,7,-161,153,19,29,317,161,82,-39
-131,82,214,24,-173,148,24,19,322,156,78,-43
-131,87,219,21,-175,153,34,24,322,165,82,-43
-141,78,219,31,-180,148,39,24,326,170,87,-34
-151,73,224,39,-187,148,43,24,326,185,97,-34
-146,97,244,24,-195,170,39,34,341,190,107,-24
-136,117,253,9,-195,185,34,34,356,200,117,-24
-126,141,268,-7,-197,204,34,34,366,214,126,-19
-122,161,283,-19,-202,222,34,34,375,224,136,-19
-136,146,283,-4,-209,214,19,34,385,219,131,-29
-156,146,302,4,-229,224,9,24,390,229,131,-29
-170,141,312,14,-241,226,4,24,395,234,131,-29
-185,136,322,24,-253,229,0,29,400,239,141,-29
-175,156,331,9,-253,244,9,29,419,253,156,-19
-180,170,351,4,-265,261,14,24,424,263,165,-19
-175,180,356,-2,-265,268,19,19,429,268,170,-14
-180,185,366,-2,-273,275,29,14,434,278,175,-14
-195,195,390,0,-292,292,39,9,434,283,180,-19
-195,204,400,-4,-297,302,34,9,439,297,190,-14
-190,219,409,-14,-300,314,29,4,453,307,204,-9
-190,239,429,-24,-309,334,24,0,463,317,214,-9
-200,239,439,-19,-319,339,24,4,473,331,219,0
-209,239,448,-14,-329,344,19,0,478,336,224,0
-219,244,463,-12,-341,353,19,4,483,346,234,4
-219,258,478,-19,-348,368,19,4,488,356,244,4
-229,263,492,-17,-361,378,19,4,497,370,253,9
-229,278,507,-24,-368,392,14,4,502,380,263,14
-229,283,512,-26,-370,397,9,4,517,390,273,14
-234,287,522,-26,-378,405,9,4,517,409,283,24
-239,297,536,-29,-387,417,0,0,536,419,292,39
-239,307,546,-34,-392,427,0,0,541,429,302,43
-239,326,566,-43,-402,446,-4,-4,556,439,312,48
-244,336,580,-46,-412,458,-4,-4,566,458,326,53
-244,346,590,-51,-417,468,-14,-14,566,473,336,48
-248,346,595,-48,-422,470,-14,-14,575,492,351,63
-248,356,605,-53,-427,480,-14,-14,580,502,366,63
-248,366,614,-58,-431,490,-19,-14,590,512,375,73
-229,375,605,-73,-417,490,-24,0,610,531,390,92
-219,385,605,-82,-412,495,-29,4,624,551,409,102
-209,400,610,-95,-409,505,-34,4,634,566,429,112
-200,414,614,-107,-407,514,-39,9,644,580,439,122
-214,405,619,-95,-417,512,-43,0,634,580,434,126
-214,409,624,-97,-419,517,-43,-4,634,590,448,136
-219,414,634,-97,-427,524,-43,-14,634,600,453,136
-229,409,639,-90,-434,524,-43,-24,629,610,453,141
-204,405,610,-100,-407,507,-34,-14,629,629,478,156
-200,390,590,-95,-395,490,-43,-14,629,639,488,165
-200,385,585,-92,-392,485,-48,-14,629,649,492,175
-175,390,566,-107,-370,478,-58,-14,629,658,502,185
-165,409,575,-122,-370,492,-63,-14,629,668,531,204
-151,414,566,-131,-358,490,-78,-19,629,678,536,219
-146,405,551,-129,-348,478,-78,-19,624,683,536,229
-131,400,531,-134,-331,466,-73,-19,610,688,546,244
-136,380,517,-122,-326,448,-73,-34,600,683,546,244
-122,375,497,-126,-309,436,-73,-34,585,678,541,253
-112,366,478,-126,-295,422,-82,-34,570,668,536,268
-107,351,458,-122,-283,405,-82,-34,546,649,527,268
-102,351,453,-124,-278,402,-97,-34,531,629,517,268
-87,331,419,-122,-253,375,-97,-34,507,614,507,268
-58,312,370,-126,-214,341,-102,-34,492,600,492,273
-39,307,346,-134,-192,326,-102,-24,478,585,483,273
-24,287,312,-131,-168,300,-117,-24,448,551,463,263
-19,283,302,-131,-161,292,-122,-24,424,517,439,258
0,268,268,-134,-134,268,-122,-24,400,488,424,253
9,239,229,-124,-109,234,-122,-24,375,463,400,248
19,234,214,-126,-97,224,-107,-24,351,424,370,234
34,224,190,-129,-78,207,-97,-29,322,395,346,224
53,219,165,-136,-56,192,-87,-29,297,361,317,214
63,209,146,-136,-41,178,-78,-29,278,336,292,204
58,170,112,-114,-26,141,-87,-14,253,297,263,190
53,146,92,-100,-19,119,-92,-14,229,263,234,170
58,117,58,-87,0,87,-97,-19,204,239,209,161
43,87,43,-65,0,65,-102,-19,185,209,185,151
53,78,24,-65,14,51,-92,-39,156,180,151,126
53,78,24,-65,14,51,-87,-39,126,151,126,112
58,82,24,-70,17,53,-87,-39,112,126,102,97
58,78,19,-68,19,48,-87,-34,97,102,78,82
58,63,4,-61,26,34,-73,-24,87,82,68,68
63,53,-9,-58,36,21,-73,-24,68,58,43,58
68,53,-14,-61,41,19,-73,-24,53,34,24,43
78,48,-29,-63,53,9,-73,-24,43,19,9,29
68,29,-39,-48,53,-4,-68,-34,29,4,-9,24
68,24,-43,-46,56,-9,-68,-34,24,-14,-19,9
68,14,-53,-41,61,-19,-63,-34,9,-24,-34,4
68,4,-63,-36,65,-29,-58,-34,0,-39,-43,0
68,14,-53,-41,61,-19,-73,-29,4,-43,-48,0
73,14,-58,-43,65,-21,-78,-24,0,-48,-53,-9
97,24,-73,-61,85,-24,-82,-14,-9,-58,-63,-14
92,24,-68,-58,80,-21,-82,-4,-9,-68,-68,-19
82,19,-63,-51,73,-21,-68,-14,-9,-68,-73,-19
78,9,-68,-43,73,-29,-68,-24,-24,-78,-82,-24
78,4,-73,-41,75,-34,-68,-24,-29,-87,-92,-29
78,-9,-87,-34,82,-48,-68,-24,-29,-87,-92,-39
63,-24,-87,-19,75,-56,-68,-34,-43,-92,-97,-39
63,-24,-87,-19,75,-56,-63,-34,-48,-102,-102,-43
68,-19,-87,-24,78,-53,-48,-34,-48,-102,-107,-48
68,-19,-87,-24,78,-53,-43,-34,-48,-102,-107,-48
43,-43,-87,0,65,-65,-48,-34,-58,-117,-122,-63
39,-48,-87,4,63,-68,-48,-34,-58,-117,-122,-63
48,-48,-97,0,73,-73,-43,-29,-53,-112,-117,-58
48,-43,-92,-2,70,-68,-39,-29,-53,-112,-117,-58
53,-43,-97,-4,75,-70,-39,-34,-53,-117,-131,-58
53,-39,-92,-7,73,-65,-39,-34,-53,-117,-131,-58
48,-39,-87,-4,68,-63,-48,-29,-53,-117,-131,-58
34,-48,-82,7,58,-65,-48,-29,-58,-126,-131,-58
34,-58,-92,12,63,-75,-63,-29,-58,-117,-126,-63
29,-68,-97,19,63,-82,-63,-29,-58,-122,-131,-68
29,-63,-92,17,61,-78,-63,-24,-58,-126,-136,-68
34,-58,-92,12,63,-75,-58,-19,-53,-126,-136,-68
34,-68,-102,17,68,-85,-43,-34,-58,-126,-136,-63
39,-68,-107,14,73,-87,-39,-34,-58,-131,-136,-63
39,-58,-97,9,68,-78,-34,-29,-58,-136,-136,-68
39,-53,-92,7,65,-73,-34,-24,-53,-141,-136,-68
63,-34,-97,-14,80,-65,-39,-19,-39,-126,-131,-63
78,-19,-97,-29,87,-58,-43,-14,-39,-122,-126,-58
87,-9,-97,-39,92,-53,-43,-14,-39,-117,-122,-53
97,-4,-102,-46,100,-53,-48,-9,-39,-117,-117,-43
82,-9,-92,-36,87,-51,-39,-14,-48,-131,-122,-53
73,-19,-92,-26,82,-56,-43,-19,-53,-136,-122,-68
63,-29,-92,-17,78,-61,-43,-19,-53,-136,-126,-68
58,-39,-97,-9,78,-68,-43,-24,-53,-136,-131,-68
48,-53,-102,2,75,-78,-63,-24,-63,-141,-136,-78
43,-63,-107,9,75,-85,-53,-29,-63,-141,-141,-78
39,-68,-107,14,73,-87,-53,-29,-63,-136,-146,-78
39,-68,-107,14,73,-87,-53,-24,-63,-136,-151,-73
48,-53,-102,2,75,-78,-63,-24,-63,-146,-151,-73
48,-48,-97,0,73,-73,-63,-29,-63,-146,-151,-78
39,-48,-87,4,63,-68,-58,-29,-63,-146,-151,-78
48,-43,-92,-2,70,-68,-58,-24,-63,-146,-151,-78
82,-24,-107,-29,95,-65,-53,-9,-58,-141,-131,-63
92,-14,-107,-39,100,-61,-48,0,-53,-136,-126,-58
97,9,-87,-53,92,-39,-43,4,-48,-131,-122,-58
102,9,-92,-56,97,-41,-39,14,-39,-126,-112,-58
82,-19,-102,-31,92,-61,-58,9,-43,-136,-117,-68
63,-29,-92,-17,78,-61,-73,-4,-48,-146,-126,-68
53,-34,-87,-9,70,-61,-82,-9,-63,-146,-141,-73
34,-43,-78,4,56,-61,-87,-14,-68,-141,-146,-73
9,-68,-78,29,43,-73,-63,-34,-78,-146,-151,-78
0,-73,-73,36,36,-73,-43,-43,-73,-151,-151,-82
-4,-73,-68,39,31,-70,-19,-53,-73,-156,-151,-87
-19,-87,-68,53,24,-78,0,-63,-73,-161,-146,-92
-9,-73,-63,41,26,-68,-14,-58,-63,-156,-146,-82
-4,-73,-68,39,31,-70,-14,-58,-68,-146,-146,-82
0,-68,-68,34,34,-68,-14,-53,-68,-141,-146,-82
9,-63,-73,26,41,-68,-4,-48,-63,-136,-146,-82
9,-63,-73,26,41,-68,-19,-34,-53,-131,-131,-73
19,-48,-68,14,43,-58,-29,-34,-53,-131,-126,-68
29,-34,-63,2,46,-48,-34,-24,-48,-131,-126,-63
39,-29,-68,-4,53,-48,-39,-24,-48,-122,-117,-63
39,-29,-68,-4,53,-48,-29,-24,-43,-122,-117,-73
39,-29,-68,-4,53,-48,-34,-24,-43,-117,-117,-73
29,-29,-58,0,43,-43,-34,-24,-43,-117,-122,-73
19,-48,-68,14,43,-58,-39,-29,-43,-126,-122,-68
14,-39,-53,12,34,-46,-39,-19,-43,-117,-117,-58
4,-29,-34,12,19,-31,-43,-19,-43,-117,-117,-63
4,-39,-43,17,24,-41,-43,-29,-43,-117,-117,-63
4,-48,-53,21,29,-51,-34,-29,-43,-117,-117,-63
4,-48,-53,21,29,-51,-34,-29,-53,-122,-122,-68
4,-48,-53,21,29,-51,-34,-34,-48,-122,-122,-63
0,-53,-53,26,26,-53,-34,-39,-48,-122,-117,-63
-14,-68,-53,41,19,-61,-24,-48,-48,-122,-117,-63
-19,-78,-58,48,19,-68,-14,-39,-39,-107,-107,-53
-14,-78,-63,46,24,-70,-14,-39,-43,-107,-107,-63
-4,-68,-63,36,29,-65,-14,-39,-43,-107,-107,-63
0,-68,-68,34,34,-68,-24,-39,-43,-102,-102,-58
4,-58,-63,26,34,-61,-34,-39,-39,-102,-97,-58
19,-34,-53,7,36,-43,-29,-34,-34,-97,-92,-48
24,-24,-48,0,36,-36,-29,-34,-34,-97,-92,-48
29,-14,-43,-7,36,-29,-29,-34,-34,-97,-97,-53
29,-19,-48,-4,39,-34,-19,-24,-34,-87,-87,-53
34,-14,-48,-9,41,-31,-19,-24,-29,-87,-82,-53
39,-9,-48,-14,43,-29,-14,-24,-24,-82,-82,-48
43,-4,-48,-19,46,-26,-14,-19,-19,-78,-78,-48
43,-14,-58,-14,51,-36,-29,-9,-29,-78,-73,-48
39,-14,-53,-12,46,-34,-39,-9,-24,-78,-73,-43
39,-4,-43,-17,41,-24,-43,-14,-24,-78,-78,-43
39,-14,-53,-12,46,-34,-48,-14,-24,-78,-78,-48
29,-24,-53,-2,41,-39,-43,-24,-34,-87,-92,-48
34,-24,-58,-4,46,-41,-34,-24,-39,-92,-92,-53
34,-24,-58,-4,46,-41,-29,-29,-39,-92,-92,-58
24,-34,-58,4,41,-46,-29,-29,-39,-92,-92,-58
4,-48,-53,21,29,-51,-34,-34,-53,-97,-97,-63
-9,-58,-48,34,19,-53,-39,-39,-58,-112,-102,-68
-24,-63,-39,43,7,-51,-43,-43,-58,-107,-107,-73
-34,-73,-39,53,2,-56,-43,-48,-63,-112,-112,-78
-24,-63,-39,43,7,-51,-24,-39,-63,-102,-107,-73
-19,-58,-39,39,9,-48,-19,-39,-58,-102,-102,-68
-9,-58,-48,34,19,-53,-14,-39,-53,-107,-102,-58
0,-53,-53,26,26,-53,-9,-39,-48,-107,-97,-53
14,-43,-58,14,36,-51,-24,-34,-48,-97,-87,-58
19,-39,-58,9,39,-48,-29,-34,-48,-97,-87,-58
29,-34,-63,2,46,-48,-34,-34,-48,-97,-87,-58
34,-29,-63,-2,48,-46,-34,-34,-48,-97,-87,-58
19,-43,-63,12,41,-53,-29,-43,-58,-102,-102,-63
0,-53,-53,26,26,-53,-29,-43,-63,-112,-112,-68
-19,-68,-48,43,14,-58,-24,-43,-68,-117,-117,-73
-39,-87,-48,63,4,-68,-24,-39,-73,-122,-122,-78
-34,-73,-39,53,2,-56,-14,-39,-63,-126,-112,-68
-24,-68,-43,46,9,-56,-24,-43,-73,-126,-117,-73
-14,-63,-48,39,17,-56,-29,-43,-73,-126,-117,-78
-4,-68,-63,36,29,-65,-29,-43,-73,-126,-122,-82
0,-63,-63,31,31,-63,-29,-34,-63,-126,-112,-73
4,-58,-63,26,34,-61,-29,-29,-63,-122,-102,-63
9,-53,-63,21,36,-58,-24,-29,-63,-117,-102,-63
4,-58,-63,26,34,-61,-19,-34,-73,-122,-102,-73
4,-48,-53,21,29,-51,-24,-34,-73,-131,-112,-87
0,-48,-48,24,24,-48,-24,-39,-78,-136,-117,-87
0,-58,-58,29,29,-58,-29,-39,-82,-141,-126,-82
0,-58,-58,29,29,-58,-24,-39,-82,-141,-126,-82
0,-63,-63,31,31,-63,-14,-43,-92,-136,-131,-92
4,-53,-58,24,31,-56,-14,-43,-87,-136,-131,-82
4,-58,-63,26,34,-61,-14,-43,-87,-136,-131,-82
4,-63,-68,29,36,-65,-14,-34,-82,-136,-126,-82
9,-68,-78,29,43,-73,-24,-34,-92,-136,-126,-82
0,-68,-68,34,34,-68,-29,-43,-92,-141,-126,-82
0,-78,-78,39,39,-78,-29,-39,-87,-136,-126,-78
4,-73,-78,34,41,-75,-19,-29,-87,-136,-126,-78
9,-68,-78,29,43,-73,-19,-29,-87,-136,-126,-78
14,-63,-78,24,46,-70,-19,-29,-87,-136,-126,-78
19,-58,-78,19,48,-68,-19,-29,-87,-136,-126,-78
29,-39,-68,4,48,-53,-14,-24,-78,-131,-122,-73
39,-24,-63,-7,51,-43,-19,-19,-78,-126,-112,-68
48,-19,-68,-14,58,-43,-14,-9,-73,-117,-107,-58
58,-14,-73,-21,65,-43,-4,-4,-68,-112,-102,-53
48,-14,-63,-17,56,-39,-9,-14,-73,-122,-112,-58
53,-14,-68,-19,61,-41,-4,-19,-68,-122,-117,-58
39,-14,-53,-12,46,-34,-19,-24,-63,-117,-112,-68
24,-4,-29,-9,26,-17,-24,-29,-58,-112,-102,-73
4,-4,-9,0,7,-7,-14,-29,-48,-107,-92,-48
0,-4,-4,2,2,-4,-9,-34,-39,-107,-87,-48
-19,-14,4,17,-12,-4,0,-34,-39,-102,-87,-48
-34,-29,4,31,-19,-12,4,-34,-34,-102,-87,-48
-29,-4,24,17,-26,9,4,-24,-14,-97,-78,-39
-14,14,29,0,-21,21,4,-24,-9,-82,-68,-34
14,43,29,-29,-7,36,4,-24,4,-73,-63,-24
43,82,39,-63,2,61,4,-24,4,-63,-48,-14
58,102,43,-80,7,73,-9,-19,29,-39,-39,-4
73,131,58,-102,7,95,-24,-14,39,-29,-34,9
87,146,58,-117,14,102,-43,-19,48,-19,-24,24
107,165,58,-136,24,112,-73,-29,48,-19,-24,29
112,170,58,-141,26,114,-122,-48,53,-19,-9,29
117,180,63,-148,26,122,-165,-73,43,-19,-4,34
122,209,87,-165,17,148,-200,-92,43,-14,0,34
122,224,102,-173,9,163,-219,-107,43,-14,0,43
126,229,102,-178,12,165,-200,-122,34,-14,4,48
141,229,87,-185,26,158,-195,-122,34,-9,0,53
146,229,82,-187,31,156,-185,-122,19,-9,-4,58
146,239,92,-192,26,165,-170,-122,14,-9,-9,58
151,239,87,-195,31,163,-185,-136,0,-14,-9,48
146,234,87,-190,29,161,-195,-141,-24,-29,-14,48
141,234,92,-187,24,163,-204,-146,-29,-43,-19,48
136,239,102,-187,17,170,-209,-146,-34,-48,-19,48
131,234,102,-183,14,168,-200,-151,-34,-48,-19,48
126,234,107,-180,9,170,-195,-151,-29,-39,-9,58
122,209,87,-165,17,148,-180,-146,-29,-39,-9,58
117,185,68,-151,24,126,-161,-141,-43,-39,-9,58
136,185,48,-161,43,117,-165,-131,-48,-48,-14,58
141,175,34,-158,53,104,-156,-122,-53,-58,-19,58
141,165,24,-153,58,95,-151,-107,-58,-58,-19,58
141,165,24,-153,58,95,-151,-97,-58,-58,-19,58
136,141,4,-139,65,73,-146,-102,-58,-58,-19,58
126,131,4,-129,61,68,-146,-102,-63,-63,-19,58
122,131,9,-126,56,70,-141,-102,-63,-68,-29,48
117,131,14,-124,51,73,-136,-97,-63,-73,-29,48
117,117,0,-117,58,58,-126,-97,-78,-78,-53,29
97,97,0,-97,48,48,-107,-92,-92,-92,-68,9
73,78,4,-75,34,41,-97,-87,-97,-112,-82,-9
73,58,-14,-65,43,21,-78,-73,-97,-112,-87,-19
78,43,-34,-61,56,4,-73,-53,-87,-107,-82,-14
73,14,-58,-43,65,-21,-58,-48,-87,-112,-87,-14
68,-4,-73,-31,70,-39,-39,-43,-87,-117,-92,-24
63,-24,-87,-19,75,-56,-24,-39,-92,-122,-102,-34
43,-58,-102,7,73,-80,-19,-39,-102,-141,-126,-53
14,-97,-112,41,63,-104,-14,-39,-112,-151,-141,-73
-9,-131,-122,70,56,-126,-19,-34,-122,-170,-156,-87
-29,-141,-112,85,41,-126,-29,-34,-131,-175,-165,-107
-9,-136,-126,73,58,-131,-14,-34,-131,-185,-170,-97
0,-126,-126,63,63,-126,-9,-34,-136,-190,-175,-102
4,-117,-122,56,63,-119,-4,-29,-141,-195,-185,-107
4,-117,-122,56,63,-119,0,-29,-146,-200,-185,-107
4,-131,-136,63,70,-134,9,-29,-151,-195,-185,-122
0,-131,-131,65,65,-131,9,-29,-151,-195,-185,-122
-4,-131,-126,68,61,-129,9,-34,-151,-195,-190,-122
-14,-136,-122,75,53,-129,9,-34,-151,-195,-190,-122
-14,-146,-131,80,58,-139,9,-34,-151,-204,-190,-122
-19,-156,-136,87,58,-146,14,-34,-151,-204,-190,-122
-19,-156,-136,87,58,-146,14,-34,-151,-209,-200,-131
-19,-151,-131,85,56,-141,14,-34,-151,-209,-200,-131
-14,-151,-136,82,61,-143,19,-29,-151,-204,-185,-126
-4,-151,-146,78,70,-148,24,-29,-156,-204,-185,-126
-14,-151,-136,82,61,-143,29,-29,-156,-204,-190,-126
-14,-151,-136,82,61,-143,29,-29,-156,-204,-190,-131
0,-146,-146,73,73,-146,24,-19,-146,-204,-190,-122
4,-151,-156,73,80,-153,19,-19,-151,-204,-190,-122
0,-151,-151,75,75,-151,14,-19,-156,-209,-190,-122
0,-156,-156,78,78,-156,9,-19,-156,-209,-200,-126
-14,-161,-146,87,65,-153,19,-29,-165,-219,-209,-136
-14,-161,-146,87,65,-153,19,-24,-165,-219,-204,-136
-9,-156,-146,82,68,-151,19,-24,-165,-219,-204,-136
-14,-161,-146,87,65,-153,24,-24,-165,-219,-204,-131
-24,-175,-151,100,63,-163,9,-24,-175,-219,-214,-141
-24,-175,-151,100,63,-163,4,-24,-175,-219,-214,-141
-24,-175,-151,100,63,-163,9,-24,-175,-219,-214,-141
-24,-185,-161,104,68,-173,4,-24,-175,-219,-209,-141
-48,-190,-141,119,46,-165,14,-24,-175,-229,-209,-141
-58,-229,-170,143,56,-200,53,-29,-165,-219,-204,-131
-39,-190,-151,114,56,-170,63,-19,-156,-209,-190,-131
-9,-136,-126,73,58,-131,58,-9,-141,-200,-190,-136
-14,-117,-102,65,43,-109,48,-9,-136,-204,-200,-141
-48,-122,-73,85,12,-97,48,-4,-107,-195,-204,-151
-73,-136,-63,104,-4,-100,63,4,-48,-180,-204,-165
-107,-161,-53,134,-26,-107,78,24,43,-126,-190,-165
-122,-136,-14,129,-53,-75,92,63,214,-19,-122,-131
-102,-48,53,75,-78,2,92,131,478,170,19,-68
-73,73,146,0,-109,109,102,209,868,419,204,58
-48,161,209,-56,-129,185,102,278,1307,702,424,214
9,263,253,-136,-122,258,117,361,1649,985,644,380
117,370,253,-244,-68,312,117,468,1800,1200,849,570
234,448,214,-341,9,331,87,527,1668,1302,1000,751
312,527,214,-419,48,370,14,497,1254,1293,1102,917
405,629,224,-517,90,427,-112,414,819,1278,1200,1098
546,658,112,-602,217,385,-224,370,395,1200,1263,1259
727,600,-126,-663,427,236,-326,351,-219,956,1195,1356
941,566,-375,-753,658,95,-439,302,-1005,605,1078,1439
1146,546,-600,-846,873,-26,-570,180,-1751,244,966,1532
1327,522,-805,-924,1066,-141,-697,34,-2435,-122,844,1639
1507,458,-1049,-983,1278,-295,-819,-97,-3074,-478,692,1703
1629,370,-1259,-1000,1444,-444,-897,-244,-3547,-805,483,1615
1576,278,-1298,-927,1437,-509,-927,-453,-3791,-1117,146,1263
1356,229,-1127,-793,1241,-448,-888,-722,-3806,-1395,-253,771
1049,214,-834,-631,941,-309,-819,-971,-3611,-1507,-512,429
780,117,-663,-448,722,-273,-707,-1088,-3328,-1576,-712,185
624,-136,-761,-244,692,-448,-551,-995,-3108,-1771,-1054,-175
561,-473,-1034,-43,797,-753,-346,-751,-2884,-2000,-1449,-600
527,-722,-1249,97,888,-985,-180,-478,-2566,-2064,-1673,-849
478,-751,-1229,136,854,-990,-107,-287,-2142,-1908,-1634,-858
405,-644,-1049,119,727,-846,-63,-185,-1722,-1576,-1385,-732
312,-483,-795,85,553,-639,-34,-146,-1342,-1215,-1068,-566
219,-307,-527,43,373,-417,-14,-122,-990,-873,-771,-395
97,-175,-273,39,185,-224,19,-97,-653,-556,-507,-253
-9,-107,-97,58,43,-102,53,-73,-380,-322,-312,-175
-82,-78,4,80,-43,-36,87,-39,-214,-185,-195,-141
-141,-87,53,114,-97,-17,122,-19,-117,-112,-126,-117
-185,-122,63,153,-124,-29,141,4,-58,-63,-92,-102
-185,-156,29,170,-107,-63,156,34,-19,-34,-73,-97
-161,-161,0,161,-80,-80,146,53,14,-24,-63,-92
-156,-151,4,153,-80,-73,131,53,19,-24,-63,-92
-141,-156,-14,148,-63,-85,117,58,19,-24,-68,-92
-136,-165,-29,151,-53,-97,112,58,24,-34,-73,-92
-126,-165,-39,146,-43,-102,107,58,24,-39,-82,-102
-151,-180,-29,165,-61,-104,107,48,19,-48,-97,-112
-156,-185,-29,170,-63,-107,107,48,24,-48,-97,-107
-141,-170,-29,156,-56,-100,97,48,34,-48,-92,-107
-131,-156,-24,143,-53,-90,97,53,39,-48,-82,-107
-136,-161,-24,148,-56,-92,102,43,39,-48,-92,-117
-146,-175,-29,161,-58,-102,107,43,39,-53,-97,-117
-165,-195,-29,180,-68,-112,112,34,39,-58,-102,-126
-180,-209,-29,195,-75,-119,112,19,39,-63,-102,-131
-180,-200,-19,190,-80,-109,112,29,39,-63,-92,-122
-180,-195,-14,187,-82,-104,112,34,48,-63,-92,-122
-156,-185,-29,170,-63,-107,117,34,58,-58,-92,-112
-131,-170,-39,151,-46,-104,117,34,58,-53,-92,-112
-117,-151,-34,134,-41,-92,112,53,73,-39,-78,-102
-112,-146,-34,129,-39,-90,107,53,78,-39,-73,-97
-122,-146,-24,134,-48,-85,102,48,78,-39,-73,-97
-107,-141,-34,124,-36,-87,92,43,78,-39,-73,-97
-97,-126,-29,112,-34,-78,92,53,78,-29,-73,-97
-97,-117,-19,107,-39,-68,82,53,78,-29,-73,-97
-87,-107,-19,97,-34,-63,82,53,87,-24,-68,-97
-78,-92,-14,85,-31,-53,82,53,87,-19,-68,-92
-87,-102,-14,95,-36,-58,87,43,87,-29,-78,-92
-97,-107,-9,102,-43,-58,92,43,87,-29,-78,-92
-107,-112,-4,109,-51,-58,97,39,87,-29,-78,-97
-117,-117,0,117,-58,-58,102,39,87,-19,-78,-97
-102,-112,-9,107,-46,-61,87,48,92,-19,-78,-102
-102,-102,0,102,-51,-51,82,43,92,-24,-78,-102
-102,-97,4,100,-53,-46,78,43,97,-24,-73,-102
-92,-87,4,90,-48,-41,87,48,102,-19,-68,-92
-82,-87,-4,85,-39,-46,78,39,112,-9,-58,-82
-92,-92,0,92,-46,-46,73,39,112,-9,-58,-82
-92,-92,0,92,-46,-46,58,39,117,-9,-58,-87
-92,-82,9,87,-51,-36,58,43,122,-4,-53,-87
-97,-87,9,92,-53,-39,68,34,117,-4,-53,-87
-92,-63,29,78,-61,-17,78,34,122,-4,-43,-78
-78,-53,24,65,-51,-14,82,34,126,0,-39,-78
-78,-53,24,65,-51,-14,87,34,126,0,-39,-78
-87,-58,29,73,-58,-14,87,43,141,14,-29,-68
-78,-63,14,70,-46,-24,82,48,141,14,-29,-63
-78,-63,14,70,-46,-24,82,53,141,14,-34,-63
-87,-68,19,78,-53,-24,82,53,141,14,-34,-63
-92,-73,19,82,-56,-26,92,43,131,4,-39,-78
-97,-73,24,85,-61,-24,92,39,126,0,-43,-82
-102,-73,29,87,-65,-21,82,29,131,-4,-48,-87
-112,-73,39,92,-75,-17,73,19,126,-9,-53,-97
-122,-82,39,102,-80,-21,63,14,131,0,-53,-102
-131,-87,43,109,-87,-21,58,19,131,0,-58,-102
-136,-92,43,114,-90,-24,53,24,131,0,-58,-97
-141,-92,48,117,-95,-21,48,29,136,0,-53,-97
-136,-82,53,109,-95,-14,58,19,141,4,-43,-97
-141,-87,53,114,-97,-17,63,9,141,4,-43,-102
-146,-87,58,117,-102,-14,63,9,146,4,-43,-102
-146,-82,63,114,-104,-9,63,14,146,4,-43,-102
-141,-78,63,109,-102,-7,53,24,156,14,-39,-92
-136,-73,63,104,-100,-4,53,14,161,19,-39,-92
-136,-68,68,102,-102,0,53,14,161,19,-39,-92
-131,-58,73,95,-102,7,48,19,161,24,-34,-92
-122,-48,73,85,-97,12,43,19,165,29,-29,-87
-122,-43,78,82,-100,17,39,19,170,29,-29,-87
-122,-43,78,82,-100,17,39,19,170,29,-29,-87
-122,-39,82,80,-102,21,43,19,180,34,-29,-87
-107,-34,73,70,-90,19,48,24,200,48,-9,-82
-102,-24,78,63,-90,26,48,24,200,48,-9,-78
-92,-9,82,51,-87,36,48,29,204,58,0,-68
-87,-4,82,46,-85,39,48,34,209,63,0,-63
-102,4,107,48,-104,56,58,48,214,63,4,-63
-102,19,122,41,-112,70,53,48,219,68,14,-63
-92,24,117,34,-104,70,53,48,224,73,19,-58
-92,29,122,31,-107,75,48,48,229,73,29,-58
-107,24,131,41,-119,78,39,48,224,73,34,-63
-112,19,131,46,-122,75,34,43,229,78,34,-63
-122,19,141,51,-131,80,34,39,229,78,29,-63
-126,19,146,53,-136,82,34,34,234,78,29,-63
-126,29,156,48,-141,92,43,24,244,87,29,-53
-126,29,156,48,-141,92,48,24,253,92,39,-53
-126,39,165,43,-146,102,53,24,258,97,43,-53
-126,43,170,41,-148,107,48,24,258,97,43,-53
-126,34,161,46,-143,97,39,34,278,107,34,-53
-131,34,165,48,-148,100,39,34,283,112,34,-53
-131,39,170,46,-151,104,34,29,283,117,39,-53
-131,48,180,41,-156,114,34,29,292,122,48,-53
-131,53,185,39,-158,119,29,24,307,136,53,-53
-131,63,195,34,-163,129,24,24,307,141,58,-48
-131,73,204,29,-168,139,9,19,312,146,63,-48
-131,78,209,26,-170,143,0,19,317,151,63,-48
-131,92,224,19,-178,158,14,34,331,165,73,-39
-112,117,229,-2,-170,173,24,43,341,175,82,-34
-102,126,229,-12,-165,178,29,48,356,180,92,-19
-92,141,234,-24,-163,187,34,53,366,195,107,-14
-117,131,248,-7,-183,190,39,48,361,190,107,-19
-136,126,263,4,-200,195,34,43,366,190,107,-24
-156,126,283,14,-219,204,34,39,366,195,107,-24
-180,122,302,29,-241,212,34,34,366,195,107,-29
-185,107,292,39,-239,200,29,34,375,190,112,-29
-204,107,312,48,-258,209,19,24,380,200,112,-29
-219,102,322,58,-270,212,14,24,385,204,112,-29
-234,97,331,68,-283,214,9,29,390,209,122,-29
-224,112,336,56,-280,224,14,19,409,219,136,-19
-229,131,361,48,-295,246,24,14,414,234,146,-19
-224,146,370,39,-297,258,34,9,419,244,151,-14
-229,156,385,36,-307,270,48,4,424,258,156,-14
-234,165,400,34,-317,283,39,4,434,263,161,0
-234,175,409,29,-322,292,34,9,439,278,170,4
-229,190,419,19,-324,305,29,9,453,287,185,9
-229,209,439,9,-334,324,24,9,463,297,195,9
-234,224,458,4,-346,341,4,14,483,322,204,19
-239,229,468,4,-353,348,0,9,488,326,214,19
-244,239,483,2,-363,361,0,14,492,336,229,24
-239,258,497,-9,-368,378,0,14,497,346,244,24
-234,283,517,-24,-375,400,4,14,517,370,253,39
-229,297,527,-34,-378,412,4,14,522,380,263,43
-224,302,527,-39,-375,414,4,14,536,390,273,43
-224,307,531,-41,-378,419,9,14,536,409,283,53
-219,322,541,-51,-380,431,9,14,551,429,302,58
-219,336,556,-58,-387,446,9,19,561,439,312,63
-219,361,580,-70,-400,470,4,19,580,448,322,68
-224,375,600,-75,-412,488,4,24,595,468,336,73
-244,366,610,-61,-427,488,-4,9,585,463,336,68
-258,356,614,-48,-436,485,-4,4,595,483,351,82
-268,356,624,-43,-446,490,-4,0,600,492,366,82
-278,356,634,-39,-456,495,-9,-4,610,502,375,92
-292,346,639,-26,-466,492,-24,-4,614,507,380,87
-297,336,634,-19,-466,485,-29,-4,624,522,390,92
-302,331,634,-14,-468,483,-34,-9,629,531,400,97
-307,326,634,-9,-470,480,-39,-9,634,541,400,102
-292,346,639,-26,-466,492,-53,0,649,566,419,122
-273,370,644,-48,-458,507,-53,4,653,580,439,136
-258,395,653,-68,-456,524,-53,4,658,595,448,141
-248,409,658,-80,-453,534,-53,4,658,610,453,151
-229,409,639,-90,-434,524,-48,14,663,624,473,170
-219,400,619,-90,-419,509,-53,14,668,639,488,185
-214,400,614,-92,-414,507,-53,14,673,653,497,200
-185,409,595,-112,-390,502,-58,14,678,668,512,214
-180,424,605,-122,-392,514,-63,9,663,663,522,219
-170,424,595,-126,-383,509,-78,0,658,668,527,229
-170,409,580,-119,-375,495,-78,-4,649,668,527,234
-161,400,561,-119,-361,480,-73,-9,629,668,536,244
-161,390,551,-114,-356,470,-63,-14,624,668,531,253
-141,385,527,-122,-334,456,-63,-14,614,668,531,263
-126,375,502,-124,-314,439,-73,-14,605,663,531,278
-117,361,478,-122,-297,419,-73,-14,585,649,527,278
-117,351,468,-117,-292,409,-87,-34,561,634,522,283
-107,331,439,-112,-273,385,-87,-34,536,614,507,278
-82,312,395,-114,-239,353,-92,-34,522,595,488,278
-68,307,375,-119,-222,341,-92,-24,507,575,473,273
-43,292,336,-124,-190,314,-87,-24,478,551,453,263
-39,283,322,-122,-180,302,-92,-24,453,517,429,258
-19,263,283,-122,-151,273,-92,-24,429,488,414,253
-9,229,239,-109,-124,234,-92,-24,405,463,390,248
4,229,224,-117,-109,226,-97,-14,375,424,361,234
14,214,200,-114,-92,207,-97,-19,341,395,336,224
29,204,175,-117,-73,190,-97,-19,312,361,307,214
34,190,156,-112,-61,173,-97,-19,287,336,283,204
43,170,126,-107,-41,148,-112,-14,263,297,253,180
43,156,112,-100,-34,134,-112,-14,239,263,224,161
53,136,82,-95,-14,109,-112,-19,214,239,200,151
43,117,73,-80,-14,95,-112,-19,195,209,175,141
34,87,53,-61,-9,70,-102,-39,170,170,141,117
34,78,43,-56,-4,61,-87,-39,136,141,117,102
39,73,34,-56,2,53,-78,-39,117,117,92,87
39,58,19,-48,9,39,-68,-34,97,92,68,73
48,43,-4,-46,26,19,-73,-29,97,82,53,68
53,34,-19,-43,36,7,-73,-24,78,58,34,58
58,34,-24,-46,41,4,-73,-19,63,34,19,43
68,29,-39,-48,53,-4,-73,-14,53,19,9,29
58,9,-48,-34,53,-19,-58,-24,34,-4,-9,14
58,4,-53,-31,56,-24,-58,-24,24,-24,-19,0
58,-4,-63,-26,61,-34,-53,-24,4,-34,-34,-4
58,-14,-73,-21,65,-43,-48,-24,-9,-48,-43,-9
58,-9,-68,-24,63,-39,-58,-14,-9,-53,-58,-9
63,-4,-68,-29,65,-36,-58,-14,-9,-58,-63,-19
87,9,-78,-48,82,-34,-58,-9,-14,-68,-73,-24
82,14,-68,-48,75,-26,-53,-4,-9,-78,-78,-29
82,9,-73,-46,78,-31,-43,4,-9,-68,-73,-19
78,0,-78,-39,78,-39,-39,-4,-24,-78,-82,-24
78,-4,-82,-36,80,-43,-34,-4,-29,-87,-92,-29
78,-19,-97,-29,87,-58,-29,-4,-29,-87,-92,-39
58,-39,-97,-9,78,-68,-43,-9,-39,-97,-107,-48
53,-43,-97,-4,75,-70,-53,-14,-48,-112,-112,-53
53,-43,-97,-4,75,-70,-53,-19,-53,-117,-117,-58
48,-48,-97,0,73,-73,-63,-24,-58,-122,-117,-58
24,-73,-97,24,61,-85,-58,-34,-63,-131,-126,-68
9,-87,-97,39,53,-92,-58,-34,-68,-136,-131,-73
9,-97,-107,43,58,-102,-53,-29,-68,-136,-131,-73
0,-102,-102,51,51,-102,-48,-29,-73,-141,-136,-78
34,-78,-112,21,73,-95,-34,-14,-68,-131,-126,-63
53,-58,-112,2,82,-85,-29,-14,-63,-126,-122,-58
68,-43,-112,-12,90,-78,-34,-9,-58,-122,-117,-53
73,-39,-112,-17,92,-75,-29,-9,-58,-126,-112,-48
48,-53,-102,2,75,-78,-34,-14,-53,-126,-126,-63
39,-68,-107,14,73,-87,-34,-19,-58,-131,-131,-68
34,-68,-102,17,68,-85,-34,-19,-63,-136,-136,-68
34,-68,-102,17,68,-85,-29,-19,-63,-136,-136,-68
19,-87,-107,34,63,-97,-24,-24,-63,-141,-146,-68
19,-97,-117,39,68,-107,-29,-24,-68,-141,-146,-73
14,-97,-112,41,63,-104,-34,-19,-73,-141,-146,-82
9,-102,-112,46,61,-107,-43,-14,-73,-141,-146,-87
19,-92,-112,36,65,-102,-39,-19,-78,-151,-156,-87
19,-87,-107,34,63,-97,-34,-24,-78,-151,-156,-87
14,-87,-102,36,58,-95,-24,-34,-78,-151,-156,-87
9,-92,-102,41,56,-97,-19,-39,-78,-156,-156,-82
19,-78,-97,29,58,-87,-29,-24,-82,-156,-156,-73
24,-78,-102,26,63,-90,-34,-19,-82,-156,-151,-87
29,-78,-107,24,68,-92,-34,-9,-78,-151,-151,-87
39,-78,-117,19,78,-97,-34,-4,-73,-146,-151,-87
29,-87,-117,29,73,-102,-39,-9,-82,-151,-151,-87
24,-92,-117,34,70,-104,-24,-19,-82,-151,-151,-87
19,-92,-112,36,65,-102,-19,-24,-82,-146,-151,-87
19,-87,-107,34,63,-97,-14,-24,-82,-146,-151,-82
24,-73,-97,24,61,-85,-14,-24,-82,-156,-151,-82
29,-68,-97,19,63,-82,-14,-29,-82,-156,-151,-87
24,-68,-92,21,58,-80,-9,-29,-82,-156,-151,-87
39,-63,-102,12,70,-82,-9,-24,-82,-156,-151,-87
39,-63,-102,12,70,-82,-9,-9,-82,-151,-136,-68
34,-73,-107,19,70,-90,-9,-9,-82,-146,-136,-68
24,-68,-92,21,58,-80,-9,-14,-82,-141,-136,-73
14,-87,-102,36,58,-95,-9,-14,-78,-136,-131,-78
9,-87,-97,39,53,-92,-14,-14,-87,-146,-131,-78
4,-87,-92,41,48,-90,-24,-24,-87,-156,-136,-78
9,-82,-92,36,51,-87,-29,-24,-97,-156,-146,-82
4,-82,-87,39,46,-85,-29,-24,-97,-151,-146,-82
14,-68,-82,26,48,-75,-14,-9,-92,-141,-141,-82
29,-53,-82,12,56,-68,-14,-4,-82,-141,-141,-82
48,-34,-82,-7,65,-58,-9,0,-78,-141,-141,-82
58,-29,-87,-14,73,-58,-9,4,-73,-141,-136,-82
39,-48,-87,4,63,-68,-24,-9,-82,-146,-146,-92
24,-63,-87,19,56,-75,-24,-19,-87,-146,-146,-92
9,-73,-82,31,46,-78,-24,-24,-87,-151,-146,-92
0,-82,-82,41,41,-82,-14,-29,-82,-156,-146,-92
-9,-87,-78,48,34,-82,-4,-24,-82,-141,-151,-92
0,-78,-78,39,39,-78,-9,-24,-82,-141,-146,-87
9,-68,-78,29,43,-73,-9,-14,-78,-141,-146,-82
19,-68,-87,24,53,-78,-9,-14,-78,-131,-136,-82
24,-53,-78,14,51,-65,-14,-4,-73,-131,-126,-82
29,-48,-78,9,53,-63,-24,-4,-73,-126,-126,-82
24,-43,-68,9,46,-56,-29,-4,-73,-126,-131,-82
19,-58,-78,19,48,-68,-39,-9,-73,-136,-131,-78
0,-78,-78,39,39,-78,-24,-14,-82,-136,-126,-87
-14,-78,-63,46,24,-70,-24,-19,-82,-136,-126,-92
-19,-97,-78,58,29,-87,-19,-34,-82,-136,-126,-92
-24,-117,-92,70,34,-104,-4,-39,-82,-136,-126,-92
-34,-102,-68,68,17,-85,-9,-43,-92,-141,-131,-97
-34,-97,-63,65,14,-80,-14,-43,-87,-141,-131,-92
-39,-97,-58,68,9,-78,-19,-43,-87,-141,-126,-92
-53,-107,-53,80,0,-80,-14,-48,-87,-141,-126,-92
-48,-107,-58,78,4,-82,-14,-34,-82,-126,-117,-87
-43,-107,-63,75,9,-85,-14,-29,-82,-126,-117,-92
-34,-97,-63,65,14,-80,-14,-24,-78,-126,-117,-87
-29,-97,-68,63,19,-82,-24,-19,-73,-122,-112,-78
-24,-87,-63,56,19,-75,-19,-29,-68,-112,-107,-78
-9,-63,-53,36,21,-58,-9,-24,-63,-107,-102,-68
-4,-53,-48,29,21,-51,-4,-24,-63,-107,-102,-68
0,-43,-43,21,21,-43,0,-24,-63,-107,-107,-73
-9,-68,-58,39,24,-63,9,-34,-68,-117,-117,-73
-14,-73,-58,43,21,-65,9,-34,-68,-117,-112,-73
-19,-78,-58,48,19,-68,14,-34,-68,-112,-112,-68
-24,-82,-58,53,17,-70,14,-29,-68,-107,-107,-68
-34,-82,-48,58,7,-65,9,-29,-78,-107,-102,-73
-39,-82,-43,61,2,-63,0,-29,-73,-107,-102,-73
-39,-73,-34,56,-2,-53,-4,-34,-73,-107,-107,-78
-39,-82,-43,61,2,-63,-9,-34,-73,-107,-107,-87
-29,-82,-53,56,12,-68,-4,-24,-63,-107,-102,-82
-24,-82,-58,53,17,-70,4,-24,-68,-112,-102,-82
-24,-82,-58,53,17,-70,9,-29,-68,-112,-102,-82
-34,-92,-58,63,12,-75,9,-29,-68,-112,-102,-78
-24,-82,-58,53,17,-70,0,-19,-68,-102,-92,-78
-19,-78,-58,48,19,-68,0,-19,-68,-112,-92,-78
-14,-68,-53,41,19,-61,0,-19,-63,-102,-92,-78
-4,-63,-58,34,26,-61,4,-19,-63,-102,-92,-78
-9,-63,-53,36,21,-58,4,-19,-78,-112,-102,-87
-19,-68,-48,43,14,-58,0,-19,-78,-112,-102,-87
-24,-78,-53,51,14,-65,-4,-19,-78,-117,-107,-82
-29,-82,-53,56,12,-68,-9,-19,-78,-117,-107,-82
-29,-87,-58,58,14,-73,-9,-14,-78,-117,-97,-78
-29,-87,-58,58,14,-73,-9,-14,-78,-117,-97,-78
-24,-87,-63,56,19,-75,-9,-14,-78,-117,-97,-78
-24,-87,-63,56,19,-75,-4,-14,-78,-117,-97,-78
-9,-78,-68,43,29,-73,0,-24,-73,-107,-107,-87
-9,-73,-63,41,26,-68,0,-24,-73,-112,-112,-87
-9,-73,-63,41,26,-68,4,-24,-73,-112,-112,-87
-9,-78,-68,43,29,-73,4,-19,-73,-112,-112,-87
-14,-87,-73,51,29,-80,14,-19,-82,-117,-102,-78
-14,-87,-73,51,29,-80,4,-24,-92,-117,-107,-82
-14,-87,-73,51,29,-80,0,-24,-92,-117,-107,-87
-14,-97,-82,56,34,-90,0,-24,-92,-117,-112,-92
-4,-87,-82,46,39,-85,-4,-24,-82,-122,-112,-92
-4,-78,-73,41,34,-75,-9,-19,-82,-122,-102,-82
-4,-68,-63,36,29,-65,-9,-19,-82,-122,-102,-82
-14,-68,-53,41,19,-61,-9,-24,-92,-131,-102,-92
-39,-82,-43,61,2,-63,-9,-24,-102,-141,-112,-97
-48,-97,-48,73,0,-73,-4,-29,-107,-146,-117,-97
-53,-122,-68,87,7,-95,-4,-29,-112,-151,-126,-92
-58,-136,-78,97,9,-107,4,-29,-112,-151,-126,-92
-53,-117,-63,85,4,-90,4,-34,-112,-146,-122,-92
-53,-112,-58,82,2,-85,-14,-43,-117,-146,-131,-92
-39,-97,-58,68,9,-78,-9,-39,-117,-146,-126,-87
-34,-97,-63,65,14,-80,0,-34,-112,-141,-117,-78
-29,-97,-68,63,19,-82,0,-29,-107,-136,-117,-78
-24,-97,-73,61,24,-85,0,-24,-102,-131,-117,-78
-19,-97,-78,58,29,-87,0,-19,-97,-126,-117,-78
-14,-87,-73,51,29,-80,14,-29,-97,-136,-126,-78
-9,-73,-63,41,26,-68,9,-29,-97,-136,-122,-78
-4,-68,-63,36,29,-65,14,-24,-92,-131,-122,-73
0,-63,-63,31,31,-63,24,-24,-87,-131,-122,-73
-4,-58,-53,31,24,-56,24,-4,-87,-126,-107,-68
14,-53,-68,19,41,-61,34,0,-78,-122,-107,-58
14,-48,-63,17,39,-56,24,4,-68,-112,-97,-58
14,-34,-48,9,31,-41,24,9,-58,-102,-82,-53
0,-4,-4,2,2,-4,24,0,-58,-107,-92,-43
0,4,4,-2,-2,4,19,-4,-48,-107,-87,-48
-14,4,19,4,-17,12,19,-4,-48,-102,-87,-53
-24,0,24,12,-24,12,14,-4,-43,-102,-87,-58
-48,-19,29,34,-39,4,19,-14,-43,-102,-97,-58
-53,-24,29,39,-41,2,24,-14,-39,-92,-87,-53
-43,-19,24,31,-34,2,29,-14,-24,-87,-82,-43
-34,-4,29,19,-31,12,34,-14,-24,-82,-68,-34
-9,19,29,-4,-19,24,29,-4,-4,-58,-48,-19
4,53,48,-29,-21,51,14,-4,9,-48,-43,-9
19,73,53,-46,-17,63,-4,-14,24,-39,-34,0
39,97,58,-68,-9,78,-34,-29,29,-39,-34,0
58,122,63,-90,-2,92,-73,-39,34,-29,-19,9
68,131,63,-100,2,97,-107,-63,24,-29,-14,14
78,161,82,-119,-2,122,-131,-82,24,-24,-9,14
82,175,92,-129,-4,134,-141,-97,24,-24,-9,24
82,185,102,-134,-9,143,-146,-117,14,-34,0,29
92,190,97,-141,-2,143,-156,-122,14,-29,0,34
92,195,102,-143,-4,148,-161,-126,0,-29,0,39
87,209,122,-148,-17,165,-161,-131,-4,-29,0,39
97,200,102,-148,-2,151,-151,-126,0,-19,0,39
97,195,97,-146,0,146,-156,-131,-24,-29,-4,39
97,195,97,-146,0,146,-161,-136,-29,-39,-9,39
97,200,102,-148,-2,151,-161,-136,-34,-39,-9,39
102,219,117,-161,-7,168,-175,-122,-43,-48,-9,39
107,234,126,-170,-9,180,-175,-122,-39,-39,0,48
112,224,112,-168,0,168,-165,-117,-39,-39,0,48
117,214,97,-165,9,156,-151,-112,-53,-39,0,48
112,190,78,-151,17,134,-161,-107,-68,-48,-14,39
112,175,63,-143,24,119,-146,-102,-73,-58,-19,39
107,161,53,-134,26,107,-136,-92,-78,-58,-19,39
102,156,53,-129,24,104,-131,-87,-78,-58,-19,39
97,136,39,-117,29,87,-117,-92,-78,-58,-19,48
87,122,34,-104,26,78,-117,-92,-82,-63,-19,48
82,117,34,-100,24,75,-112,-92,-82,-68,-29,39
78,112,34,-95,21,73,-107,-87,-82,-73,-29,39
87,82,-4,-85,46,39,-107,-68,-97,-78,-43,19
68,58,-9,-63,39,24,-97,-63,-112,-92,-58,0
43,34,-9,-39,26,12,-97,-58,-117,-112,-73,-19
43,9,-34,-26,39,-12,-87,-43,-117,-112,-78,-29
63,14,-48,-39,56,-17,-78,-24,-107,-117,-82,-24
63,-4,-68,-29,65,-36,-58,-19,-107,-122,-87,-24
63,-14,-78,-24,70,-46,-34,-14,-107,-126,-92,-34
63,-24,-87,-19,75,-56,-14,-9,-112,-131,-102,-43
43,-63,-107,9,75,-85,0,-9,-112,-131,-107,-53
14,-97,-112,41,63,-104,14,-9,-122,-141,-122,-73
-9,-126,-117,68,53,-122,19,-4,-131,-161,-136,-87
-29,-131,-102,80,36,-117,19,-4,-141,-165,-146,-107
-29,-141,-112,85,41,-126,34,-14,-151,-185,-161,-117
-29,-146,-117,87,43,-131,39,-24,-156,-190,-165,-122
-34,-151,-117,92,41,-134,43,-29,-161,-195,-175,-126
-43,-165,-122,104,39,-143,48,-39,-165,-200,-175,-126
-34,-170,-136,102,51,-153,48,-34,-170,-195,-175,-122
-39,-170,-131,104,46,-151,48,-29,-170,-195,-175,-122
-43,-170,-126,107,41,-148,48,-29,-170,-195,-180,-122
-53,-175,-122,114,34,-148,48,-24,-170,-195,-180,-122
-58,-195,-136,126,39,-165,53,-34,-180,-200,-190,-131
-68,-204,-136,136,34,-170,53,-34,-180,-204,-190,-131
-73,-204,-131,139,29,-168,48,-34,-180,-214,-200,-141
-78,-200,-122,139,21,-161,43,-34,-180,-219,-200,-141
-58,-195,-136,126,39,-165,43,-19,-170,-214,-195,-136
-43,-190,-146,117,51,-168,43,-19,-175,-214,-195,-136
-48,-185,-136,117,43,-161,43,-19,-175,-214,-200,-136
-43,-180,-136,112,46,-158,39,-19,-175,-214,-200,-141
-24,-165,-141,95,58,-153,48,-14,-170,-209,-185,-136
-14,-161,-146,87,65,-153,48,-9,-170,-204,-180,-131
-14,-151,-136,82,61,-143,48,-4,-170,-204,-175,-126
-9,-146,-136,78,63,-141,48,0,-165,-200,-180,-126
-29,-161,-131,95,51,-146,43,-9,-170,-204,-190,-131
-34,-170,-136,102,51,-153,39,-4,-175,-209,-185,-136
-34,-175,-141,104,53,-158,34,-4,-180,-214,-185,-141
-43,-190,-146,117,51,-168,34,-4,-185,-219,-185,-141
-53,-185,-131,119,39,-158,39,-14,-195,-219,-195,-141
-53,-185,-131,119,39,-158,43,-14,-195,-219,-195,-141
-53,-185,-131,119,39,-158,58,-14,-195,-219,-195,-141
-53,-195,-141,124,43,-168,63,-14,-195,-219,-190,-141
-39,-190,-151,114,56,-170,63,-14,-175,-209,-190,-131
-68,-219,-151,143,41,-185,63,-19,-185,-209,-195,-131
-78,-200,-122,139,21,-161,63,-29,-185,-219,-200,-151
-78,-185,-107,131,14,-146,68,-19,-180,-229,-200,-156
-73,-195,-122,134,24,-158,87,0,-156,-204,-190,-141
-68,-180,-112,124,21,-146,97,4,-126,-195,-185,-141
-73,-156,-82,114,4,-119,102,34,-78,-180,-185,-156
-78,-151,-73,114,-2,-112,107,63,-14,-136,-170,-165
-92,-136,-43,114,-24,-90,102,92,117,-58,-122,-151
-92,-97,-4,95,-43,-51,122,141,331,82,-29,-107
-73,-24,48,48,-61,12,131,229,673,302,126,-9
-48,63,112,-7,-80,87,151,307,1102,585,326,126
-9,156,165,-73,-87,161,175,390,1522,878,546,292
78,244,165,-161,-43,204,185,507,1820,1151,780,483
175,322,146,-248,14,234,175,595,1864,1342,971,673
263,409,146,-336,58,278,131,595,1586,1371,1093,839
356,492,136,-424,109,314,43,522,1141,1366,1220,1029
488,551,63,-519,212,307,-78,468,727,1356,1332,1229
649,522,-126,-585,387,197,-170,429,229,1210,1332,1366
814,497,-317,-656,566,90,-283,361,-478,888,1234,1478
990,488,-502,-739,746,-7,-414,258,-1234,546,1151,1620
1171,453,-717,-812,944,-131,-541,141,-1917,229,1078,1766
1342,429,-912,-885,1127,-241,-673,-29,-2537,-126,976,1888
1454,439,-1015,-946,1234,-287,-800,-244,-3108,-492,785,1849
1468,434,-1034,-951,1251,-300,-878,-463,-3459,-824,468,1556
1288,444,-844,-866,1066,-200,-897,-702,-3542,-1093,78,1073
961,409,-551,-685,756,-70,-839,-951,-3406,-1244,-219,683
673,302,-370,-488,522,-34,-717,-1078,-3201,-1351,-448,409
546,78,-468,-312,507,-195,-570,-1034,-3020,-1537,-780,58
531,-229,-761,-151,646,-495,-395,-829,-2815,-1756,-1156,-346
527,-497,-1024,-14,775,-761,-219,-566,-2518,-1859,-1429,-634
468,-605,-1073,68,771,-839,-87,-356,-2152,-1781,-1468,-712
395,-566,-961,85,678,-763,-43,-234,-1751,-1527,-1307,-634
283,-444,-727,80,505,-585,-24,-165,-1361,-1185,-1029,-497
141,-317,-458,87,300,-387,4,-122,-990,-834,-722,-336
29,-195,-224,82,126,-209,48,-78,-653,-527,-468,-224
-39,-117,-78,78,19,-97,102,-43,-409,-302,-292,-165
-112,-117,-4,114,-53,-61,146,-9,-234,-165,-175,-131
-180,-146,34,163,-107,-56,170,9,-126,-92,-107,-117
-234,-190,43,212,-139,-73,180,24,-68,-53,-82,-112
-244,-224,19,234,-131,-102,165,43,-29,-24,-73,-126
-229,-219,9,224,-119,-104,156,34,-14,-24,-63,-131
-204,-209,-4,207,-100,-107,156,39,-9,-24,-63,-126
-190,-214,-24,202,-82,-119,146,48,-9,-24,-68,-122
-185,-224,-39,204,-73,-131,146,53,-4,-34,-73,-117
-175,-224,-48,200,-63,-136,146,58,-4,-39,-82,-122
-175,-219,-43,197,-65,-131,156,63,9,-29,-78,-112
-165,-214,-48,190,-58,-131,156,68,14,-29,-78,-107
-136,-190,-53,163,-41,-122,146,73,24,-29,-73,-107
-112,-165,-53,139,-29,-109,146,82,29,-29,-63,-107
-107,-146,-39,126,-34,-92,136,82,39,-29,-63,-107
-107,-146,-39,126,-34,-92,136,82,39,-34,-68,-107
-117,-151,-34,134,-41,-92,136,73,39,-39,-73,-117
-122,-151,-29,136,-46,-90,131,58,39,-43,-73,-122
-141,-165,-24,153,-58,-95,141,58,39,-34,-63,-122
-151,-175,-24,163,-63,-100,141,63,48,-34,-63,-122
-136,-180,-43,158,-46,-112,146,63,58,-29,-63,-112
-122,-180,-58,151,-31,-119,146,63,58,-24,-63,-112
-117,-165,-48,141,-34,-107,146,63,48,-24,-63,-117
-122,-165,-43,143,-39,-104,146,53,48,-29,-63,-117
-141,-170,-29,156,-56,-100,146,39,43,-34,-68,-122
-136,-170,-34,153,-51,-102,141,24,39,-39,-73,-126
-146,-175,-29,161,-58,-102,131,29,48,-39,-73,-117
-156,-185,-29,170,-63,-107,122,34,48,-39,-73,-117
-156,-195,-39,175,-58,-117,122,39,58,-34,-68,-117
-156,-200,-43,178,-56,-122,122,43,58,-29,-68,-112
-141,-185,-43,163,-48,-114,117,43,68,-29,-58,-112
-136,-175,-39,156,-48,-107,112,43,68,-29,-58,-112
-131,-165,-34,148,-48,-100,107,39,68,-29,-58,-117
-126,-156,-29,141,-48,-92,102,39,68,-19,-58,-117
-122,-156,-34,139,-43,-95,107,48,82,-9,-58,-102
-122,-151,-29,136,-46,-90,112,43,82,-14,-58,-102
-122,-151,-29,136,-46,-90,117,43,87,-14,-53,-102
-112,-146,-34,129,-39,-90,136,48,92,-9,-48,-92
-112,-146,-34,129,-39,-90,136,39,82,-9,-48,-102
-122,-151,-29,136,-46,-90,131,39,82,-9,-48,-102
-122,-151,-29,136,-46,-90,117,39,87,-9,-48,-107
-122,-141,-19,131,-51,-80,117,43,92,-4,-43,-107
-102,-122,-19,112,-41,-70,131,48,97,4,-43,-97
-92,-92,0,92,-46,-46,136,53,102,4,-34,-87
-73,-78,-4,75,-34,-41,136,58,107,9,-29,-87
-68,-73,-4,70,-31,-39,136,63,107,9,-29,-87
-58,-58,0,58,-29,-29,136,78,117,19,-14,-82
-39,-53,-14,46,-12,-34,131,78,122,24,-9,-73
-29,-43,-14,36,-7,-29,131,78,126,29,-9,-68
-29,-39,-9,34,-9,-24,131,73,131,34,-4,-63
-48,-68,-19,58,-14,-43,122,68,122,24,-19,-78
-68,-82,-14,75,-26,-48,112,68,117,19,-24,-82
-87,-97,-9,92,-39,-53,92,63,122,14,-29,-87
-112,-112,0,112,-56,-56,73,58,117,9,-34,-97
-131,-122,9,126,-70,-56,82,43,112,0,-34,-112
-141,-126,14,134,-78,-56,87,39,112,0,-39,-112
-146,-131,14,139,-80,-58,92,34,112,0,-39,-107
-151,-131,19,141,-85,-56,97,29,117,0,-34,-107
-151,-122,29,136,-90,-46,112,39,122,14,-24,-97
-151,-126,24,139,-87,-51,122,29,122,14,-24,-102
-151,-126,24,139,-87,-51,126,29,126,14,-24,-102
-146,-122,24,134,-85,-48,131,34,126,14,-24,-102
-146,-122,24,134,-85,-48,117,43,126,14,-29,-102
-146,-122,24,134,-85,-48,102,34,131,19,-29,-102
-151,-122,29,136,-90,-46,87,34,131,19,-29,-102
-151,-117,34,134,-92,-41,68,39,131,24,-24,-102
-146,-107,39,126,-92,-34,73,29,136,39,-9,-87
-141,-102,39,122,-90,-31,78,29,141,39,-9,-87
-136,-102,34,119,-85,-34,87,29,141,39,-9,-87
-131,-97,34,114,-82,-31,102,29,151,43,-9,-87
-131,-92,39,112,-85,-26,107,39,161,48,0,-97
-131,-82,48,107,-90,-17,107,34,161,48,0,-97
-126,-68,58,97,-92,-4,107,34,165,58,9,-92
-126,-63,63,95,-95,0,107,34,170,63,9,-92
-122,-63,58,92,-90,-2,107,39,185,73,9,-82
-122,-48,73,85,-97,12,102,39,190,78,14,-82
-112,-43,68,78,-90,12,102,39,195,82,14,-78
-112,-39,73,75,-92,17,97,39,200,82,19,-78
-122,-48,73,85,-97,12,92,34,200,87,19,-78
-131,-58,73,95,-102,7,82,34,200,87,24,-82
-146,-63,82,104,-114,9,78,34,195,82,24,-87
-156,-68,87,112,-122,9,73,34,195,78,29,-92
-141,-58,82,100,-112,12,68,34,214,97,39,-73
-136,-48,87,92,-112,19,68,34,224,102,48,-73
-131,-29,102,80,-117,36,68,34,229,107,53,-73
-126,-14,112,70,-119,48,58,34,229,107,53,-73
-122,0,122,61,-122,61,68,43,239,117,53,-73
-122,4,126,58,-124,65,68,43,244,122,53,-73
-117,14,131,51,-124,73,63,39,244,126,58,-73
-112,29,141,41,-126,85,63,39,253,131,68,-73
-126,29,156,48,-141,92,87,43,268,146,73,-63
-131,34,165,48,-148,100,92,43,268,151,78,-58
-136,39,175,48,-156,107,87,39,273,156,82,-58
-141,39,180,51,-161,109,87,39,278,161,82,-58
-136,48,185,43,-161,117,97,48,297,165,92,-53
-122,68,190,26,-156,129,102,53,302,175,102,-53
-117,73,190,21,-153,131,102,53,312,180,112,-43
-112,82,195,14,-153,139,102,53,317,195,126,-43
-131,73,204,29,-168,139,78,43,322,190,117,-48
-146,68,214,39,-180,141,63,43,326,190,117,-53
-161,68,229,46,-195,148,53,43,326,195,117,-53
-180,63,244,58,-212,153,43,43,326,195,117,-58
-161,82,244,39,-202,163,58,48,341,204,136,-53
-156,107,263,24,-209,185,58,43,351,219,141,-48
-146,126,273,9,-209,200,63,48,361,229,146,-43
-136,146,283,-4,-209,214,68,58,370,239,161,-39
-156,126,283,14,-219,204,68,53,375,239,161,-48
-180,122,302,29,-241,212,73,43,375,244,165,-48
-195,112,307,41,-251,209,78,34,375,244,165,-43
-219,97,317,61,-268,207,87,24,375,248,165,-43
-234,97,331,68,-283,214,78,19,380,248,165,-53
-244,97,341,73,-292,219,73,19,380,258,170,-53
-248,102,351,73,-300,226,68,14,390,263,180,-53
-258,112,370,73,-314,241,63,9,395,268,185,-58
-248,131,380,58,-314,256,58,14,409,287,195,-53
-239,151,390,43,-314,270,58,9,419,297,204,-48
-229,175,405,26,-317,290,63,14,429,312,219,-39
-209,209,419,0,-314,314,68,14,439,326,234,-34
-195,234,429,-19,-312,331,58,19,458,351,244,-19
-190,248,439,-29,-314,344,43,24,463,361,253,-14
-185,253,439,-34,-312,346,29,29,478,370,263,-14
-185,258,444,-36,-314,351,19,34,478,390,273,-4
-209,244,453,-17,-331,348,29,14,478,390,268,-9
-229,239,468,-4,-348,353,29,9,473,390,273,-14
-248,244,492,2,-370,368,24,0,478,390,278,-19
-273,239,512,17,-392,375,24,-4,478,400,287,-24
-263,244,507,9,-385,375,24,4,488,419,302,-9
-258,248,507,4,-383,378,24,4,497,444,322,4
-248,263,512,-7,-380,387,24,4,502,458,341,4
-239,278,517,-19,-378,397,19,4,512,473,356,14
-248,278,527,-14,-387,402,24,-4,517,478,361,19
-248,278,527,-14,-387,402,29,-4,527,492,370,24
-248,283,531,-17,-390,407,34,-9,531,502,380,29
-248,287,536,-19,-392,412,39,-9,536,512,380,34
-253,268,522,-7,-387,395,34,-9,531,517,400,34
-244,273,517,-14,-380,395,34,-4,536,531,419,48
-239,278,517,-19,-378,397,34,-4,541,546,429,53
-239,273,512,-17,-375,392,34,-4,541,561,434,63
-204,287,492,-41,-348,390,29,0,551,580,458,82
-190,292,483,-51,-336,387,14,4,551,590,468,97
-180,307,488,-63,-334,397,4,9,551,600,473,112
-146,331,478,-92,-312,405,-9,14,551,610,483,126
-151,326,478,-87,-314,402,-14,14,551,619,502,136
-141,326,468,-92,-305,397,-29,9,551,629,507,151
-141,312,453,-85,-297,383,-29,9,546,634,507,161
-131,302,434,-85,-283,368,-24,9,531,639,517,175
-141,292,434,-75,-287,363,-34,-9,512,624,512,180
-131,287,419,-78,-275,353,-34,-14,497,619,512,185
-126,278,405,-75,-265,341,-43,-19,483,610,512,195
-126,263,390,-68,-258,326,-43,-24,458,590,507,190
-136,244,380,-53,-258,312,-43,-24,453,590,507,209
-126,224,351,-48,-239,287,-39,-24,429,575,497,209
-102,204,307,-51,-204,256,-39,-24,414,561,483,214
-87,200,287,-56,-187,244,-34,-14,400,546,473,214
-68,204,273,-68,-170,239,-39,-14,390,531,463,219
-58,204,263,-73,-161,234,-43,-14,366,497,439,219
-34,195,229,-80,-131,212,-43,-14,341,468,424,219
-19,170,190,-75,-104,180,-43,-14,317,444,400,219
-9,170,180,-80,-95,175,-39,-9,297,409,375,214
4,156,151,-80,-73,153,-39,-9,273,385,356,204
24,146,122,-85,-48,134,-39,-4,253,356,331,195
34,131,97,-82,-31,114,-39,0,239,336,312,185
34,117,82,-75,-24,100,-29,4,224,307,283,170
34,107,73,-70,-19,90,-24,4,200,273,253,151
43,92,48,-68,-2,70,-19,0,175,248,229,141
34,78,43,-56,-4,61,-14,0,156,219,204,131
24,48,24,-36,0,36,-19,-4,146,200,190,126
24,39,14,-31,4,26,-19,0,117,170,165,112
29,34,4,-31,12,19,-24,4,102,146,141,97
29,19,-9,-24,19,4,-29,14,87,122,117,82
34,4,-29,-19,31,-12,-39,9,68,97,87,58
34,-4,-39,-14,36,-21,-43,4,48,68,63,48
34,-4,-39,-14,36,-21,-48,0,34,39,43,34
39,-9,-48,-14,43,-29,-53,-4,24,19,29,19
39,-19,-58,-9,48,-39,-34,-4,14,9,19,24
39,-24,-63,-7,51,-43,-19,-4,14,-4,9,9
39,-34,-73,-2,56,-53,0,-4,4,-9,-4,4
39,-43,-82,2,61,-63,19,-4,0,-19,-14,0
14,-63,-78,24,46,-70,19,-9,-9,-39,-39,-19
4,-73,-78,34,41,-75,19,-14,-19,-48,-43,-29
14,-73,-87,29,51,-80,19,-14,-34,-63,-53,-34
-4,-82,-78,43,36,-80,24,-14,-39,-78,-58,-39
-9,-87,-78,48,34,-82,19,-9,-29,-68,-63,-39
-9,-97,-87,53,39,-92,19,-14,-43,-78,-73,-43
-4,-102,-97,53,46,-100,19,-9,-48,-87,-82,-48
0,-117,-117,58,58,-117,19,-4,-48,-87,-82,-58
-19,-131,-112,75,46,-122,24,-14,-63,-102,-97,-68
-24,-131,-107,78,41,-119,24,-14,-68,-112,-102,-73
-24,-126,-102,75,39,-114,34,-14,-68,-112,-107,-78
-29,-126,-97,78,34,-112,34,-14,-68,-112,-107,-78
-29,-126,-97,78,34,-112,29,-4,-58,-117,-102,-73
-19,-117,-97,68,39,-107,29,-4,-58,-117,-102,-73
4,-102,-107,48,56,-104,34,0,-53,-112,-97,-68
19,-82,-102,31,61,-92,39,0,-53,-112,-97,-68
19,-78,-97,29,58,-87,39,4,-53,-117,-102,-68
24,-78,-102,26,63,-90,39,4,-53,-117,-102,-68
24,-82,-107,29,65,-95,29,9,-53,-117,-102,-68
14,-97,-112,41,63,-104,29,9,-58,-126,-102,-68
9,-102,-112,46,61,-107,24,14,-58,-122,-97,-63
9,-107,-117,48,63,-112,24,9,-58,-122,-102,-68
14,-97,-112,41,63,-104,24,9,-58,-122,-107,-68
24,-87,-112,31,68,-100,29,9,-53,-117,-107,-68
29,-87,-117,29,73,-102,29,14,-48,-112,-97,-63
39,-87,-126,24,82,-107,29,14,-48,-112,-97,-63
43,-78,-122,17,82,-100,29,19,-48,-112,-97,-68
48,-73,-122,12,85,-97,24,24,-43,-112,-97,-68
39,-82,-122,21,80,-102,29,19,-53,-117,-102,-73
29,-87,-117,29,73,-102,34,14,-58,-122,-107,-78
14,-97,-112,41,63,-104,43,4,-63,-126,-112,-82
0,-112,-112,56,56,-112,48,0,-68,-136,-117,-82
-9,-122,-112,65,51,-117,39,0,-68,-131,-131,-82
-14,-126,-112,70,48,-119,34,0,-73,-136,-131,-97
-19,-131,-112,75,46,-122,34,4,-73,-136,-136,-97
-19,-136,-117,78,48,-126,34,4,-73,-136,-141,-97
-19,-126,-107,73,43,-117,24,4,-73,-141,-131,-87
-14,-122,-107,68,46,-114,34,0,-73,-141,-131,-87
-9,-112,-102,61,46,-107,34,0,-73,-136,-131,-87
0,-97,-97,48,48,-97,34,4,-73,-136,-131,-82
14,-87,-102,36,58,-95,39,14,-63,-126,-126,-78
19,-87,-107,34,63,-97,43,9,-63,-126,-122,-78
14,-92,-107,39,61,-100,53,9,-63,-126,-117,-73
29,-92,-122,31,75,-107,58,14,-63,-126,-112,-68
34,-78,-112,21,73,-95,48,9,-53,-126,-117,-68
34,-73,-107,19,70,-90,48,9,-53,-126,-117,-68
29,-53,-82,12,56,-68,48,4,-53,-126,-117,-73
24,-58,-82,17,53,-70,48,4,-48,-126,-112,-78
-4,-87,-82,46,39,-85,43,4,-53,-126,-122,-82
-24,-107,-82,65,29,-95,34,-4,-58,-136,-126,-87
-34,-122,-87,78,26,-104,29,-4,-73,-136,-136,-97
-53,-141,-87,97,17,-114,29,-4,-78,-131,-136,-102
-63,-141,-78,102,7,-109,43,-19,-82,-136,-136,-112
-58,-131,-73,95,7,-102,43,-24,-82,-141,-141,-112
-48,-117,-68,82,9,-92,48,-29,-87,-146,-146,-112
-48,-117,-68,82,9,-92,48,-34,-92,-151,-146,-112
-48,-131,-82,90,17,-107,39,-29,-82,-151,-136,-102
-53,-141,-87,97,17,-114,34,-29,-87,-146,-136,-102
-58,-146,-87,102,14,-117,29,-24,-87,-146,-136,-102
-58,-151,-92,104,17,-122,34,-19,-82,-146,-136,-102
-48,-136,-87,92,19,-112,39,-14,-73,-131,-122,-92
-29,-107,-78,68,24,-92,39,-14,-73,-131,-117,-87
-9,-78,-68,43,29,-73,43,-4,-68,-131,-117,-82
9,-58,-68,24,39,-63,48,-4,-68,-122,-107,-82
14,-48,-63,17,39,-56,48,0,-53,-117,-102,-78
19,-48,-68,14,43,-58,43,4,-53,-107,-97,-73
14,-48,-63,17,39,-56,43,9,-53,-102,-97,-68
9,-68,-78,29,43,-73,39,9,-53,-107,-92,-58
-9,-82,-73,46,31,-78,29,0,-58,-102,-92,-63
-24,-78,-53,51,14,-65,24,0,-63,-107,-97,-73
-29,-92,-63,61,17,-78,24,-9,-68,-112,-102,-78
-34,-107,-73,70,19,-90,34,-9,-73,-117,-107,-82
-24,-87,-63,56,19,-75,43,-4,-63,-102,-92,-68
-14,-78,-63,46,24,-70,43,-4,-58,-102,-92,-63
-9,-73,-63,41,26,-68,43,-4,-58,-102,-87,-63
-14,-78,-63,46,24,-70,53,-9,-58,-102,-87,-63
-29,-97,-68,63,19,-82,43,-9,-68,-107,-97,-73
-34,-97,-63,65,14,-80,43,-9,-73,-107,-97,-82
-34,-87,-53,61,9,-70,43,-9,-73,-107,-97,-82
-39,-87,-48,63,4,-68,34,-9,-73,-102,-92,-78
-34,-87,-53,61,9,-70,43,-9,-58,-102,-87,-78
-19,-73,-53,46,17,-63,48,-4,-53,-97,-82,-68
-14,-73,-58,43,21,-65,48,-4,-53,-97,-82,-68
-9,-73,-63,41,26,-68,48,-4,-53,-97,-87,-73
-24,-82,-58,53,17,-70,48,-4,-68,-97,-87,-73
-24,-82,-58,53,17,-70,48,-4,-68,-97,-82,-73
-24,-82,-58,53,17,-70,53,-4,-68,-92,-82,-68
-24,-82,-58,53,17,-70,53,0,-68,-87,-78,-68
-24,-97,-73,61,24,-85,43,0,-68,-87,-73,-68
-29,-102,-73,65,21,-87,39,0,-63,-87,-73,-63
-29,-97,-68,63,19,-82,39,-4,-63,-87,-78,-63
-29,-112,-82,70,26,-97,39,-4,-63,-87,-78,-68
-39,-122,-82,80,21,-102,29,-9,-73,-97,-92,-78
-43,-122,-78,82,17,-100,34,-14,-78,-102,-92,-82
-53,-122,-68,87,7,-95,34,-24,-78,-102,-92,-87
-73,-131,-58,102,-7,-95,29,-29,-78,-102,-92,-87
-63,-126,-63,95,0,-95,29,-24,-78,-92,-82,-82
-58,-126,-68,92,4,-97,29,-19,-78,-102,-82,-78
-53,-122,-68,87,7,-95,29,-14,-73,-92,-82,-73
-43,-122,-78,82,17,-100,34,-9,-73,-92,-82,-68
-34,-102,-68,68,17,-85,43,-19,-78,-92,-73,-68
-39,-97,-58,68,9,-78,48,-19,-78,-92,-73,-68
-39,-97,-58,68,9,-78,53,-19,-78,-97,-78,-63
-39,-92,-53,65,7,-73,58,-19,-78,-97,-78,-63
-29,-97,-68,63,19,-82,43,-4,-87,-107,-87,-68
-29,-97,-68,63,19,-82,39,-4,-87,-107,-87,-68
-24,-97,-73,61,24,-85,34,-4,-87,-107,-87,-68
-24,-97,-73,61,24,-85,34,-4,-87,-107,-87,-68
-29,-97,-68,63,19,-82,39,-4,-82,-97,-78,-68
-29,-92,-63,61,17,-78,39,-4,-82,-102,-82,-68
-29,-92,-63,61,17,-78,43,-4,-82,-102,-82,-68
-29,-97,-68,63,19,-82,43,0,-82,-102,-82,-68
-24,-97,-73,61,24,-85,53,-4,-82,-117,-92,-68
-24,-97,-73,61,24,-85,43,-14,-92,-117,-97,-73
-24,-97,-73,61,24,-85,39,-19,-92,-117,-97,-78
-24,-107,-82,65,29,-95,39,-24,-92,-117,-102,-82
-43,-126,-82,85,19,-104,48,-14,-102,-112,-102,-92
-43,-136,-92,90,24,-114,48,0,-92,-122,-102,-92
-53,-136,-82,95,14,-109,34,0,-92,-131,-102,-92
-48,-126,-78,87,14,-102,19,0,-107,-126,-107,-87
-43,-122,-78,82,17,-100,24,-9,-97,-117,-97,-78
-39,-117,-78,78,19,-97,29,-9,-97,-117,-97,-78
-34,-112,-78,73,21,-95,34,-9,-97,-117,-97,-78
-29,-107,-78,68,24,-92,39,-9,-97,-117,-97,-78
-24,-92,-68,58,21,-80,53,-4,-92,-117,-87,-78
-19,-82,-63,51,21,-73,48,0,-87,-117,-82,-78
-14,-82,-68,48,26,-75,53,9,-78,-112,-82,-73
-9,-82,-73,46,31,-78,63,14,-68,-112,-82,-73
9,-53,-63,21,36,-58,73,19,-78,-117,-87,-68
34,-34,-68,0,51,-51,82,19,-68,-112,-87,-58
39,-14,-53,-12,46,-34,73,19,-58,-102,-78,-58
43,14,-29,-29,36,-7,73,19,-48,-92,-63,-53
19,19,0,-19,9,9,63,9,-48,-87,-63,-48
9,14,4,-12,2,9,58,4,-39,-87,-58,-48
-14,0,14,7,-14,7,58,4,-39,-82,-58,-48
-34,-19,14,26,-24,-2,53,4,-34,-82,-58,-48
-34,-14,19,24,-26,2,58,4,-24,-73,-48,-39
-34,-4,29,19,-31,12,63,4,-19,-63,-39,-34
-19,14,34,2,-26,24,68,4,-4,-58,-34,-24
-4,43,48,-19,-26,46,73,4,-4,-53,-19,-14
14,53,39,-34,-12,46,43,14,19,-39,-9,0
24,73,48,-48,-12,61,24,14,29,-29,-4,9
34,78,43,-56,-4,61,0,4,39,-19,4,19
48,87,39,-68,4,63,-34,-9,39,-19,4,19
58,102,43,-80,7,73,-68,-34,29,-29,4,24
58,112,53,-85,2,82,-97,-63,14,-29,4,24
58,141,82,-100,-12,112,-117,-87,9,-24,4,19
53,156,102,-104,-24,129,-122,-107,4,-24,0,24
53,161,107,-107,-26,134,-112,-112,4,-24,19,29
63,161,97,-112,-17,129,-117,-112,4,-19,19,34
63,161,97,-112,-17,129,-117,-112,-9,-19,19,39
58,170,112,-114,-26,141,-112,-112,-14,-19,19,39
68,175,107,-122,-19,141,-122,-117,-19,-29,9,29
68,175,107,-122,-19,141,-126,-122,-43,-39,4,29
68,180,112,-124,-21,146,-131,-126,-48,-48,0,29
68,190,122,-129,-26,156,-131,-126,-53,-48,0,29
82,200,117,-141,-17,158,-146,-117,-43,-43,9,34
87,214,126,-151,-19,170,-146,-112,-39,-29,19,48
92,204,112,-148,-9,158,-136,-102,-39,-24,19,53
97,195,97,-146,0,146,-122,-92,-53,-19,19,58
97,175,78,-136,9,126,-112,-92,-78,-34,-4,43
92,156,63,-124,14,109,-97,-92,-82,-48,-9,39
82,136,53,-109,14,95,-87,-87,-87,-53,-9,34
73,126,53,-100,9,90,-82,-87,-87,-58,-9,29
73,107,34,-90,19,70,-68,-82,-87,-58,-9,29
68,92,24,-80,21,58,-68,-82,-92,-63,-9,29
68,87,19,-78,24,53,-63,-82,-92,-68,-19,19
68,82,14,-75,26,48,-58,-78,-92,-73,-19,19
87,82,-4,-85,46,39,-53,-53,-87,-68,-24,14
78,68,-9,-73,43,29,-39,-43,-102,-82,-39,0
63,53,-9,-58,36,21,-34,-34,-107,-102,-53,-14
73,39,-34,-56,53,2,-19,-14,-107,-102,-58,-19
68,9,-58,-39,63,-24,-19,-4,-107,-107,-73,-24
53,-24,-78,-14,65,-51,-9,0,-107,-112,-78,-24
39,-48,-87,4,63,-68,4,4,-107,-117,-82,-34
24,-73,-97,24,61,-85,14,9,-112,-122,-92,-43
9,-97,-107,43,58,-102,34,-4,-131,-136,-117,-58
-14,-126,-112,70,48,-119,53,-9,-141,-151,-131,-82
-34,-151,-117,92,41,-134,63,-9,-151,-175,-146,-102
-48,-151,-102,100,26,-126,68,-14,-161,-185,-156,-126
-48,-175,-126,112,39,-151,78,-24,-161,-185,-161,-117
-48,-185,-136,117,43,-161,78,-24,-165,-190,-165,-122
-53,-195,-141,124,43,-168,78,-19,-170,-195,-175,-126
-63,-214,-151,139,43,-183,78,-19,-175,-200,-175,-126
-43,-195,-151,119,53,-173,73,-4,-175,-200,-170,-126
-29,-170,-141,100,56,-156,68,0,-170,-195,-165,-122
-14,-146,-131,80,58,-139,63,0,-165,-190,-165,-117
-4,-126,-122,65,58,-124,58,4,-161,-185,-161,-112
4,-146,-151,70,78,-148,78,4,-161,-195,-161,-112
0,-156,-156,78,78,-156,82,4,-161,-195,-161,-112
0,-156,-156,78,78,-156,82,4,-161,-200,-170,-122
0,-151,-151,75,75,-151,82,4,-161,-200,-170,-122
-14,-175,-161,95,73,-168,73,0,-175,-214,-170,-131
-24,-190,-165,107,70,-178,73,0,-185,-214,-175,-136
-53,-204,-151,129,48,-178,73,0,-190,-214,-185,-141
-73,-219,-146,146,36,-183,68,0,-195,-214,-190,-151
-73,-209,-136,141,31,-173,68,-9,-185,-224,-190,-141
-73,-219,-146,146,36,-183,68,-9,-190,-224,-190,-141
-82,-224,-141,153,29,-183,68,-9,-195,-229,-190,-141
-87,-234,-146,161,29,-190,68,-9,-195,-229,-200,-146
-82,-224,-141,153,29,-183,58,0,-185,-219,-190,-136
-73,-219,-146,146,36,-183,58,4,-185,-219,-185,-136
-58,-209,-151,134,46,-180,58,4,-185,-219,-185,-136
-53,-209,-156,131,51,-183,63,4,-185,-219,-185,-131
-43,-204,-161,124,58,-183,68,4,-185,-209,-195,-131
-43,-204,-161,124,58,-183,73,4,-185,-209,-195,-131
-43,-204,-161,124,58,-183,87,4,-185,-209,-195,-131
-43,-214,-170,129,63,-192,92,4,-185,-209,-190,-131
-48,-229,-180,139,65,-204,102,-4,-185,-200,-180,-131
-68,-219,-151,143,41,-185,102,-9,-195,-209,-195,-141
-78,-229,-151,153,36,-190,102,-19,-195,-219,-200,-141
-68,-224,-156,146,43,-190,107,-19,-180,-219,-200,-156
-63,-195,-131,129,34,-163,107,-9,-165,-214,-200,-161
-68,-190,-122,129,26,-156,117,4,-136,-204,-204,-170
-63,-195,-131,129,34,-163,131,43,-68,-180,-185,-165
-48,-161,-112,104,31,-136,126,82,34,-107,-151,-156
-53,-126,-73,90,9,-100,141,122,185,-9,-82,-131
-53,-87,-34,70,-9,-61,151,170,429,161,29,-78
-53,-34,19,43,-36,-7,170,239,810,400,195,19
-39,63,102,-12,-70,82,170,317,1239,673,395,156
9,165,156,-87,-73,161,165,390,1620,956,614,331
107,244,136,-175,-14,190,175,497,1830,1220,849,541
204,312,107,-258,48,209,156,575,1776,1381,1029,741
283,390,107,-336,87,248,92,556,1410,1400,1161,936
385,473,87,-429,148,280,4,492,936,1395,1298,1146
527,512,-14,-519,270,248,-87,458,522,1366,1400,1346
707,512,-195,-610,451,158,-180,419,-24,1171,1400,1503
893,536,-356,-714,624,90,-283,322,-761,839,1312,1634
1068,556,-512,-812,790,21,-414,219,-1488,507,1239,1786
1268,551,-717,-910,993,-82,-551,112,-2113,209,1185,1971
1449,556,-893,-1002,1171,-168,-683,-29,-2713,-117,1093,2093
1512,536,-976,-1024,1244,-219,-790,-224,-3225,-463,883,2005
1439,522,-917,-980,1178,-197,-858,-453,-3518,-814,497,1605
1190,522,-668,-856,929,-73,-839,-722,-3552,-1122,78,1083
844,458,-385,-651,614,36,-751,-951,-3416,-1312,-239,673
566,253,-312,-409,439,-29,-610,-1029,-3220,-1478,-556,312
409,-78,-488,-165,448,-283,-453,-966,-3050,-1742,-995,-156
326,-463,-790,68,558,-627,-278,-751,-2825,-1942,-1390,-580
302,-712,-1015,204,658,-863,-131,-497,-2469,-1956,-1566,-780
292,-732,-1024,219,658,-878,-39,-307,-2054,-1790,-1517,-761
258,-605,-863,173,561,-734,-4,-204,-1644,-1478,-1288,-644
185,-453,-639,134,412,-546,24,-126,-1234,-1078,-951,-468
92,-307,-400,107,246,-353,73,-73,-863,-717,-624,-287
9,-195,-204,92,107,-200,107,-39,-566,-448,-390,-185
-48,-136,-87,92,19,-112,141,-14,-351,-263,-234,-146
-92,-97,-4,95,-43,-51,156,0,-204,-146,-146,-122
-141,-126,14,134,-78,-56,161,29,-107,-63,-87,-97
-165,-180,-14,173,-75,-97,170,63,-48,-24,-53,-92
-156,-195,-39,175,-58,-117,165,73,-19,-4,-43,-97
-151,-180,-29,165,-61,-104,175,63,-14,-4,-43,-102
-151,-190,-39,170,-56,-114,165,53,-9,-14,-43,-112
-141,-195,-53,168,-43,-124,156,58,-9,-14,-48,-112
-141,-204,-63,173,-39,-134,156,58,-4,-24,-53,-112
-136,-204,-68,170,-34,-136,156,58,-4,-29,-63,-122
-136,-200,-63,168,-36,-131,165,63,9,-29,-68,-112
-126,-195,-68,161,-29,-131,165,68,14,-29,-68,-107
-97,-170,-73,134,-12,-122,156,73,24,-29,-63,-107
-73,-146,-73,109,0,-109,156,82,29,-29,-53,-107
-53,-126,-73,90,9,-100,151,87,34,-24,-53,-102
-48,-126,-78,87,14,-102,146,92,39,-24,-58,-97
-53,-131,-78,92,12,-104,141,87,43,-24,-63,-102
-53,-131,-78,92,12,-104,131,78,48,-24,-63,-102
-78,-161,-82,119,2,-122,141,68,43,-29,-68,-107
-102,-175,-73,139,-14,-124,141,73,48,-34,-73,-112
-102,-185,-82,143,-9,-134,146,73,53,-34,-78,-107
-102,-190,-87,146,-7,-139,146,73,48,-34,-82,-112
-102,-190,-87,146,-7,-139,141,78,43,-39,-78,-122
-112,-195,-82,153,-14,-139,136,73,48,-39,-73,-117
-136,-204,-68,170,-34,-136,131,63,48,-39,-73,-117
-136,-209,-73,173,-31,-141,122,53,48,-39,-73,-117
-122,-185,-63,153,-29,-124,122,63,58,-34,-63,-107
-117,-175,-58,146,-29,-117,112,63,58,-29,-63,-107
-102,-165,-63,134,-19,-114,112,63,68,-19,-58,-107
-87,-151,-63,119,-12,-107,112,63,68,-9,-58,-102
-107,-165,-58,136,-24,-112,131,58,58,-14,-68,-112
-117,-175,-58,146,-29,-117,141,53,58,-19,-68,-112
-126,-185,-58,156,-34,-122,151,43,58,-24,-68,-117
-136,-195,-58,165,-39,-126,161,39,58,-19,-68,-117
-131,-185,-53,158,-39,-119,156,48,63,-19,-68,-112
-131,-180,-48,156,-41,-114,151,43,63,-24,-68,-112
-131,-180,-48,156,-41,-114,146,43,68,-24,-63,-112
-122,-175,-53,148,-34,-114,156,48,73,-19,-58,-102
-117,-175,-58,146,-29,-117,156,58,82,-9,-48,-92
-122,-180,-58,151,-31,-119,151,58,82,-9,-48,-92
-117,-180,-63,148,-26,-122,136,58,87,-9,-48,-97
-112,-170,-58,141,-26,-114,136,63,92,-4,-43,-97
-97,-146,-48,122,-24,-97,131,73,107,14,-34,-87
-82,-112,-29,97,-26,-70,136,73,112,14,-24,-78
-58,-92,-34,75,-12,-63,136,73,117,19,-19,-78
-48,-82,-34,65,-7,-58,136,73,117,19,-19,-78
-39,-92,-53,65,7,-73,126,82,131,24,-9,-68
-29,-92,-63,61,17,-78,122,87,131,24,-9,-63
-29,-87,-58,58,14,-73,122,92,131,24,-14,-63
-39,-87,-48,63,4,-68,122,92,131,24,-14,-63
-53,-107,-53,80,0,-80,112,78,122,24,-24,-68
-68,-122,-53,95,-7,-87,112,78,117,19,-24,-73
-82,-136,-53,109,-14,-95,102,73,122,14,-24,-78
-102,-151,-48,126,-26,-100,92,68,117,9,-24,-87
-107,-151,-43,129,-31,-97,92,48,112,9,-34,-102
-112,-146,-34,129,-39,-90,97,48,112,9,-39,-102
-112,-141,-29,126,-41,-85,102,48,112,9,-39,-97
-112,-131,-19,122,-46,-75,107,48,117,9,-34,-97
-112,-122,-9,117,-51,-65,107,58,131,24,-24,-87
-112,-126,-14,119,-48,-70,112,48,131,24,-24,-92
-112,-126,-14,119,-48,-70,112,48,136,24,-24,-92
-107,-122,-14,114,-46,-68,112,53,136,24,-24,-92
-117,-126,-9,122,-53,-68,122,53,136,24,-19,-92
-117,-131,-14,124,-51,-73,122,43,141,29,-19,-92
-122,-136,-14,129,-53,-75,122,43,141,29,-19,-92
-122,-136,-14,129,-53,-75,117,48,141,34,-14,-92
-122,-117,4,119,-63,-56,112,39,146,39,-9,-87
-122,-112,9,117,-65,-51,107,39,151,39,-9,-87
-122,-112,9,117,-65,-51,107,39,151,39,-9,-87
-122,-107,14,114,-68,-46,112,39,161,43,-9,-87
-107,-92,14,100,-61,-39,112,53,180,53,4,-82
-92,-73,19,82,-56,-26,107,53,180,58,9,-78
-73,-48,24,61,-48,-12,102,58,185,73,24,-68
-58,-34,24,46,-41,-4,97,63,190,82,29,-63
-78,-53,24,65,-51,-14,92,63,185,78,24,-73
-82,-48,34,65,-58,-7,82,58,190,78,24,-73
-78,-53,24,65,-51,-14,78,53,195,78,19,-68
-82,-58,24,70,-53,-17,68,48,200,73,19,-68
-92,-53,39,73,-65,-7,87,43,204,73,19,-73
-102,-58,43,80,-73,-7,92,43,209,78,24,-73
-117,-58,58,87,-87,0,102,43,209,78,24,-73
-126,-58,68,92,-97,4,112,43,214,78,29,-73
-112,-43,68,78,-90,12,112,53,214,87,29,-73
-107,-39,68,73,-87,14,107,53,224,92,39,-73
-102,-24,78,63,-90,26,102,53,229,97,43,-73
-97,-14,82,56,-90,34,87,53,229,97,43,-73
-112,-19,92,65,-102,36,97,53,239,107,43,-73
-122,-24,97,73,-109,36,97,53,244,112,43,-73
-126,-24,102,75,-114,39,92,48,244,117,48,-73
-131,-19,112,75,-122,46,92,48,253,122,58,-73
-117,0,117,58,-117,58,102,58,273,141,68,-58
-102,24,126,39,-114,75,102,63,278,151,78,-48
-87,48,136,19,-112,92,92,63,287,161,87,-43
-73,68,141,2,-107,104,87,68,297,170,92,-39
-102,48,151,26,-126,100,82,58,297,170,92,-39
-102,48,151,26,-126,100,82,63,302,175,92,-43
-112,34,146,39,-129,90,78,63,312,175,92,-39
-122,24,146,48,-134,85,73,63,317,185,97,-43
-131,29,161,51,-146,95,78,58,322,175,92,-53
-136,39,175,48,-156,107,73,53,326,180,97,-53
-141,53,195,43,-168,124,73,48,326,190,102,-48
-151,63,214,43,-183,139,73,43,326,195,107,-48
-146,73,219,36,-183,146,73,53,341,209,122,-39
-156,78,234,39,-195,156,68,43,351,219,122,-39
-161,78,239,41,-200,158,68,43,361,224,122,-39
-165,78,244,43,-204,161,68,48,370,229,131,-39
-170,92,263,39,-217,178,58,48,375,224,136,-48
-180,102,283,39,-231,192,63,43,375,234,146,-48
-180,107,287,36,-234,197,68,39,375,239,151,-43
-190,107,297,41,-244,202,78,34,375,248,156,-43
-209,107,317,51,-263,212,68,34,385,253,151,-48
-214,107,322,53,-268,214,63,39,390,268,161,-43
-214,112,326,51,-270,219,58,39,405,278,175,-39
-219,122,341,48,-280,231,53,39,414,287,185,-39
-214,136,351,39,-283,244,53,29,424,312,200,-34
-209,151,361,29,-285,256,58,19,429,317,204,-29
-204,170,375,17,-290,273,68,19,434,326,214,-19
-190,200,390,-4,-290,295,78,14,439,336,224,-14
-190,204,395,-7,-292,300,73,24,448,341,234,-9
-190,219,409,-14,-300,314,63,24,453,351,244,-4
-190,224,414,-17,-302,319,53,24,468,361,253,-4
-195,229,424,-17,-309,326,48,24,468,380,263,4
-209,239,448,-14,-329,344,43,19,468,380,263,4
-209,248,458,-19,-334,353,39,19,473,390,273,4
-209,268,478,-29,-344,373,29,14,488,400,283,4
-214,278,492,-31,-353,385,24,14,497,419,297,4
-224,273,497,-24,-361,385,29,14,488,424,297,9
-229,268,497,-19,-363,383,34,14,497,444,312,24
-229,273,502,-21,-366,387,39,14,502,453,326,24
-229,278,507,-24,-368,392,39,14,512,463,336,34
-234,273,507,-19,-370,390,29,14,512,473,341,29
-239,268,507,-14,-373,387,19,14,517,483,351,34
-244,268,512,-12,-378,390,9,9,517,488,361,39
-248,268,517,-9,-383,392,0,9,517,492,361,43
-244,273,517,-14,-380,395,4,0,522,507,380,53
-224,292,517,-34,-370,405,4,4,527,522,400,68
-209,312,522,-51,-366,417,4,4,531,536,409,73
-200,322,522,-61,-361,422,4,4,531,551,414,82
-185,331,517,-73,-351,424,9,14,531,561,439,107
-180,322,502,-70,-341,412,4,14,531,570,448,117
-180,322,502,-70,-341,412,4,14,531,580,453,126
-156,331,488,-87,-322,409,0,14,531,590,463,136
-136,346,483,-104,-309,414,-14,24,531,600,483,156
-122,346,468,-112,-295,407,-29,19,531,610,488,170
-117,331,448,-107,-283,390,-29,19,527,614,488,180
-102,322,424,-109,-263,373,-24,19,512,619,497,195
-97,307,405,-104,-251,356,-24,4,507,619,512,204
-82,307,390,-112,-236,348,-24,4,497,619,512,214
-73,302,375,-114,-224,339,-34,4,488,614,512,229
-68,292,361,-112,-214,326,-34,4,468,600,507,229
-78,273,351,-97,-214,312,-53,4,453,580,497,229
-68,253,322,-92,-195,287,-58,4,429,566,488,229
-43,234,278,-95,-161,256,-68,4,414,551,473,234
-29,229,258,-100,-143,244,-73,14,400,536,463,234
-24,219,244,-97,-134,231,-63,4,390,522,444,244
-19,214,234,-97,-126,224,-63,4,366,488,419,239
0,200,200,-100,-100,200,-58,4,341,458,405,234
9,170,161,-90,-75,165,-53,4,317,434,380,229
4,161,156,-82,-75,158,-58,4,302,405,361,224
14,146,131,-80,-58,139,-58,0,273,375,336,214
29,136,107,-82,-39,122,-58,0,248,341,307,204
34,122,87,-78,-26,104,-58,0,229,317,283,195
43,112,68,-78,-12,90,-53,-4,214,287,263,180
43,97,53,-70,-4,75,-43,-4,190,253,234,161
53,78,24,-65,14,51,-34,-9,165,229,209,151
43,58,14,-51,14,36,-24,-9,146,200,185,141
53,43,-9,-48,31,17,-24,-14,136,175,170,136
53,39,-14,-46,34,12,-19,-9,107,151,146,122
58,39,-19,-48,39,9,-19,-4,92,131,122,107
58,29,-29,-43,43,0,-19,4,78,112,97,92
34,0,-34,-17,34,-17,-24,-4,68,87,68,68
24,-24,-48,0,36,-36,-24,-4,48,58,43,58
14,-39,-53,12,34,-46,-24,-4,34,29,24,43
9,-58,-68,24,39,-63,-24,-4,24,9,9,29
19,-48,-68,14,43,-58,-34,4,19,4,0,24
29,-43,-73,7,51,-58,-39,4,14,-14,-9,9
39,-43,-82,2,61,-63,-39,4,0,-24,-24,4
48,-43,-92,-2,70,-68,-39,4,-9,-39,-34,0
53,-34,-87,-9,70,-61,-19,4,-4,-48,-39,-4
53,-34,-87,-9,70,-61,-9,4,-9,-48,-43,-9
73,-24,-97,-24,85,-61,0,9,-19,-53,-53,-9
63,-24,-87,-19,75,-56,14,14,-19,-58,-58,-9
68,-34,-102,-17,85,-68,9,14,-19,-68,-73,-9
68,-39,-107,-14,87,-73,9,4,-34,-78,-82,-14
73,-39,-112,-17,92,-75,9,4,-39,-87,-92,-19
78,-48,-126,-14,102,-87,9,4,-39,-87,-92,-29
48,-68,-117,9,82,-92,0,-4,-53,-102,-97,-39
34,-82,-117,24,75,-100,-4,-4,-58,-112,-102,-43
24,-92,-117,34,70,-104,0,-4,-58,-112,-107,-48
9,-107,-117,48,63,-112,-4,-4,-58,-112,-107,-48
4,-107,-112,51,58,-109,-9,-4,-58,-117,-122,-63
9,-107,-117,48,63,-112,-9,-4,-58,-117,-122,-63
29,-102,-131,36,80,-117,-4,0,-53,-112,-117,-58
39,-92,-131,26,85,-112,0,0,-53,-112,-117,-58
63,-68,-131,2,97,-100,0,9,-48,-112,-107,-53
73,-58,-131,-7,102,-95,0,14,-43,-107,-102,-48
78,-53,-131,-12,104,-92,-9,24,-39,-102,-97,-43
73,-58,-131,-7,102,-95,-9,29,-39,-107,-92,-39
63,-68,-131,2,97,-100,-9,24,-43,-107,-102,-53
58,-78,-136,9,97,-107,-4,19,-48,-112,-112,-58
58,-73,-131,7,95,-102,0,19,-53,-117,-122,-58
63,-68,-131,2,97,-100,9,19,-53,-117,-126,-58
58,-73,-131,7,95,-102,19,4,-58,-122,-126,-63
58,-78,-136,9,97,-107,19,4,-58,-122,-126,-63
53,-73,-126,9,90,-100,19,9,-58,-122,-126,-68
48,-73,-122,12,85,-97,14,14,-53,-122,-126,-68
34,-82,-117,24,75,-100,0,4,-53,-126,-136,-68
29,-87,-117,29,73,-102,-4,4,-58,-131,-136,-68
19,-97,-117,39,68,-107,-4,0,-63,-136,-136,-68
9,-112,-122,51,65,-117,-9,0,-68,-146,-136,-63
19,-107,-126,43,73,-117,-4,-4,-68,-141,-141,-63
14,-107,-122,46,68,-114,-4,-9,-73,-146,-141,-78
9,-107,-117,48,63,-112,0,-9,-73,-146,-146,-78
9,-107,-117,48,63,-112,4,-14,-73,-146,-151,-78
9,-97,-107,43,58,-102,4,-9,-63,-141,-146,-73
14,-102,-117,43,65,-109,14,-9,-63,-141,-141,-68
19,-102,-122,41,70,-112,14,-4,-63,-136,-136,-63
29,-97,-126,34,78,-112,14,4,-63,-136,-131,-53
39,-97,-136,29,87,-117,9,14,-63,-146,-141,-63
39,-97,-136,29,87,-117,4,9,-63,-146,-141,-68
29,-102,-131,36,80,-117,4,9,-63,-146,-141,-68
39,-102,-141,31,90,-122,0,14,-63,-146,-141,-68
43,-82,-126,19,85,-104,9,14,-73,-146,-146,-68
43,-82,-126,19,85,-104,9,9,-73,-146,-146,-68
39,-68,-107,14,73,-87,9,0,-73,-146,-146,-73
34,-78,-112,21,73,-95,9,-4,-68,-146,-141,-78
24,-102,-126,39,75,-114,9,4,-68,-136,-131,-73
14,-107,-122,46,68,-114,4,-4,-68,-146,-136,-68
14,-107,-122,46,68,-114,4,-4,-78,-146,-146,-68
4,-112,-117,53,61,-114,9,-4,-78,-141,-146,-63
14,-112,-126,48,70,-119,14,4,-68,-141,-131,-63
19,-102,-122,41,70,-112,14,4,-63,-141,-131,-63
29,-87,-117,29,73,-102,19,4,-63,-141,-131,-63
29,-87,-117,29,73,-102,19,4,-63,-141,-126,-63
29,-87,-117,29,73,-102,4,-4,-63,-141,-126,-73
24,-92,-117,34,70,-104,4,-9,-68,-136,-126,-73
19,-92,-112,36,65,-102,4,-9,-68,-136,-126,-73
19,-92,-112,36,65,-102,14,-9,-63,-136,-126,-73
29,-92,-122,31,75,-107,19,-4,-53,-122,-122,-63
39,-78,-117,19,78,-97,19,-4,-53,-122,-117,-58
48,-63,-112,7,80,-87,24,4,-48,-122,-117,-53
58,-58,-117,0,87,-87,29,4,-48,-112,-107,-53
53,-58,-112,2,82,-85,19,4,-53,-122,-107,-63
48,-58,-107,4,78,-82,14,4,-53,-117,-107,-63
34,-58,-92,12,63,-75,14,4,-53,-117,-112,-63
19,-78,-97,29,58,-87,9,0,-53,-126,-112,-58
9,-92,-102,41,56,-97,9,-9,-63,-126,-117,-58
-4,-87,-82,46,39,-85,4,-9,-63,-126,-117,-63
-9,-102,-92,56,41,-97,4,-19,-63,-126,-117,-63
-14,-117,-102,65,43,-109,14,-19,-63,-126,-117,-63
-19,-112,-92,65,36,-102,14,-14,-73,-122,-112,-63
-14,-107,-92,61,39,-100,14,-14,-68,-122,-112,-63
-14,-107,-92,61,39,-100,14,-14,-68,-122,-107,-68
-24,-117,-92,70,34,-104,24,-19,-68,-122,-107,-73
-9,-107,-97,58,43,-102,24,-4,-53,-112,-97,-58
4,-87,-92,41,48,-90,24,0,-53,-107,-97,-63
24,-58,-82,17,53,-70,24,4,-48,-102,-97,-58
39,-39,-78,0,58,-58,14,9,-43,-92,-92,-48
34,-53,-87,9,61,-70,9,0,-48,-92,-78,-48
39,-43,-82,2,61,-63,9,4,-43,-87,-73,-39
34,-48,-82,7,58,-65,4,4,-43,-87,-73,-39
29,-53,-82,12,56,-68,0,4,-43,-87,-78,-43
24,-63,-87,19,56,-75,-9,14,-39,-87,-78,-34
24,-63,-87,19,56,-75,-9,14,-39,-87,-73,-34
24,-63,-87,19,56,-75,-4,14,-39,-82,-73,-29
24,-63,-87,19,56,-75,-4,19,-39,-78,-68,-29
24,-73,-97,24,61,-85,-4,14,-48,-87,-68,-34
19,-73,-92,26,56,-82,-9,9,-43,-87,-73,-34
19,-63,-82,21,51,-73,-9,0,-43,-87,-82,-39
19,-73,-92,26,56,-82,-9,-4,-43,-87,-87,-48
9,-82,-92,36,51,-87,4,-14,-48,-97,-92,-48
4,-92,-97,43,51,-95,14,-14,-58,-102,-92,-53
-4,-102,-97,53,46,-100,19,-19,-63,-102,-92,-58
-24,-122,-97,73,36,-109,19,-19,-68,-102,-92,-58
-24,-122,-97,73,36,-109,9,-19,-68,-102,-92,-58
-19,-117,-97,68,39,-107,9,-19,-68,-112,-92,-58
-14,-107,-92,61,39,-100,9,-19,-63,-102,-92,-58
-4,-102,-97,53,46,-100,14,-19,-63,-102,-92,-58
-4,-87,-82,46,39,-85,29,-19,-68,-102,-92,-58
-9,-87,-78,48,34,-82,29,-19,-68,-102,-92,-58
-9,-92,-82,51,36,-87,29,-19,-68,-107,-97,-53
-9,-92,-82,51,36,-87,29,-19,-68,-107,-97,-53
9,-78,-87,34,48,-82,24,-4,-58,-107,-97,-58
9,-78,-87,34,48,-82,19,-4,-58,-107,-97,-58
14,-78,-92,31,53,-85,14,-4,-58,-107,-97,-58
14,-78,-92,31,53,-85,14,-4,-58,-107,-97,-58
19,-78,-97,29,58,-87,9,-4,-63,-102,-87,-58
19,-73,-92,26,56,-82,9,-4,-63,-102,-92,-58
19,-73,-92,26,56,-82,14,-4,-63,-97,-92,-58
19,-78,-97,29,58,-87,14,0,-63,-92,-92,-58
9,-92,-102,41,56,-97,19,-9,-73,-102,-102,-58
4,-97,-102,46,53,-100,14,-14,-82,-107,-107,-63
0,-102,-102,51,51,-102,14,-14,-82,-112,-107,-68
-4,-117,-112,61,53,-114,19,-14,-82,-117,-112,-73
4,-102,-107,48,56,-104,9,-9,-73,-117,-112,-63
14,-97,-112,41,63,-104,9,0,-73,-112,-102,-53
24,-92,-117,34,70,-104,14,4,-73,-107,-102,-53
24,-97,-122,36,73,-109,19,4,-82,-112,-102,-63
4,-107,-112,51,58,-109,19,-4,-82,-122,-112,-68
9,-97,-107,43,58,-102,24,0,-78,-126,-107,-68
9,-107,-117,48,63,-112,29,-9,-78,-126,-107,-68
0,-112,-112,56,56,-112,19,-19,-82,-136,-112,-78
0,-117,-117,58,58,-117,19,-19,-87,-136,-117,-78
0,-122,-122,61,61,-122,19,-19,-92,-136,-122,-78
0,-126,-126,63,63,-126,19,-19,-97,-136,-126,-78
-9,-112,-102,61,46,-107,29,-9,-97,-136,-117,-68
-9,-102,-92,56,41,-97,19,-9,-97,-136,-112,-68
-9,-102,-92,56,41,-97,19,-4,-92,-131,-112,-63
-9,-102,-92,56,41,-97,24,-4,-87,-131,-112,-63
9,-68,-78,29,43,-73,19,14,-82,-122,-97,-48
43,-43,-87,0,65,-65,24,19,-68,-112,-97,-39
58,-19,-78,-19,68,-48,9,24,-53,-97,-87,-39
73,14,-58,-43,65,-21,4,29,-39,-82,-73,-34
63,19,-43,-41,53,-12,-4,19,-29,-78,-73,-19
58,24,-34,-41,46,-4,-9,14,-19,-78,-68,-19
39,19,-19,-29,29,0,-9,14,-19,-73,-68,-19
24,9,-14,-17,19,-2,-14,14,-14,-73,-68,-19
14,9,-4,-12,9,2,-4,4,-14,-82,-78,-19
14,14,0,-14,7,7,4,4,-9,-73,-68,-14
29,29,0,-29,14,14,14,4,4,-68,-63,-4
43,53,9,-48,17,31,24,4,4,-63,-48,4
39,53,14,-46,12,34,24,0,9,-58,-48,0
34,63,29,-48,2,46,14,-4,19,-48,-43,9
29,58,29,-43,0,43,0,-19,29,-39,-34,19
29,58,29,-43,0,43,-24,-39,29,-39,-34,19
58,82,24,-70,17,53,-63,-48,14,-39,-29,19
68,102,34,-85,17,68,-97,-73,4,-39,-24,24
78,141,63,-109,7,102,-122,-92,4,-34,-19,24
82,165,82,-124,0,124,-131,-107,4,-34,-19,34
92,175,82,-134,4,129,-141,-102,14,-24,0,48
112,180,68,-146,21,124,-146,-102,14,-19,0,53
122,185,63,-153,29,124,-146,-102,0,-19,0,58
126,200,73,-163,26,136,-141,-102,-4,-19,0,58
131,200,68,-165,31,134,-156,-117,0,-29,0,48
126,195,68,-161,29,131,-165,-122,-24,-39,-4,48
122,195,73,-158,24,134,-175,-126,-29,-48,-9,48
117,200,82,-158,17,141,-180,-126,-34,-48,-9,48
126,204,78,-165,24,141,-175,-122,-43,-48,-9,58
126,214,87,-170,19,151,-175,-122,-39,-39,0,68
126,200,73,-163,26,136,-165,-117,-39,-39,0,68
126,185,58,-156,34,122,-151,-112,-53,-39,0,68
136,175,39,-156,48,107,-146,-97,-63,-39,-4,68
141,165,24,-153,58,95,-126,-92,-63,-48,-9,68
141,156,14,-148,63,85,-112,-82,-63,-48,-9,68
141,156,14,-148,63,85,-102,-78,-58,-48,-9,68
151,151,0,-151,75,75,-107,-73,-58,-39,0,78
146,141,-4,-143,75,68,-107,-73,-63,-43,0,78
146,141,-4,-143,75,68,-102,-73,-63,-48,-9,68
146,141,-4,-143,75,68,-97,-68,-63,-53,-9,68
141,122,-19,-131,80,51,-107,-58,-78,-68,-34,48
117,97,-19,-107,68,39,-97,-53,-92,-82,-48,29
87,73,-14,-80,51,29,-97,-48,-97,-102,-63,9
82,48,-34,-65,58,7,-87,-34,-97,-102,-68,0
78,24,-53,-51,65,-14,-82,-29,-97,-117,-82,-14
63,-14,-78,-24,70,-46,-68,-29,-97,-122,-87,-14
48,-43,-92,-2,70,-68,-48,-29,-97,-126,-92,-24
34,-73,-107,19,70,-90,-34,-29,-102,-131,-102,-34
24,-92,-117,34,70,-104,-9,-29,-112,-131,-107,-43
4,-117,-122,56,63,-119,14,-29,-122,-141,-122,-63
-9,-136,-126,73,58,-131,29,-24,-131,-161,-136,-78
-19,-131,-112,75,46,-122,39,-24,-141,-165,-146,-97
0,-146,-146,73,73,-146,43,-14,-141,-175,-151,-87
9,-146,-156,68,82,-151,39,-14,-146,-180,-156,-92
14,-146,-161,65,87,-153,34,-9,-151,-185,-165,-97
14,-156,-170,70,92,-163,29,-9,-156,-190,-165,-97
0,-165,-165,82,82,-165,19,-19,-170,-195,-175,-112
-9,-170,-161,90,75,-165,19,-19,-170,-195,-175,-112
-19,-175,-156,97,68,-165,19,-24,-170,-195,-180,-112
-34,-185,-151,109,58,-168,19,-24,-170,-195,-180,-112
-34,-195,-161,114,63,-178,29,-14,-161,-204,-180,-112
-39,-204,-165,122,63,-185,34,-14,-161,-204,-180,-112
-39,-204,-165,122,63,-185,34,-14,-161,-209,-190,-122
-39,-200,-161,119,61,-180,34,-14,-161,-209,-190,-122
-19,-185,-165,102,73,-175,43,-9,-161,-209,-175,-107
-4,-180,-175,92,85,-178,43,-9,-165,-204,-175,-107
-9,-175,-165,92,78,-170,43,-9,-165,-200,-180,-107
-4,-170,-165,87,80,-168,39,-9,-165,-195,-180,-112
-14,-170,-156,92,70,-163,48,-9,-165,-204,-180,-112
-14,-180,-165,97,75,-173,48,-9,-170,-204,-180,-112
-24,-185,-161,104,68,-173,48,-9,-175,-209,-180,-112
-29,-195,-165,112,68,-180,48,-9,-175,-209,-190,-117
-34,-200,-165,117,65,-183,48,-9,-175,-219,-190,-126
-34,-200,-165,117,65,-183,48,-4,-175,-219,-185,-126
-29,-195,-165,112,68,-180,48,-4,-175,-219,-185,-126
-34,-200,-165,117,65,-183,53,-4,-175,-219,-185,-122
-24,-200,-175,112,75,-187,43,4,-165,-209,-185,-112
-14,-195,-180,104,82,-187,43,4,-165,-209,-185,-112
-4,-190,-185,97,90,-187,53,4,-165,-209,-185,-112
4,-195,-200,95,102,-197,53,4,-165,-209,-180,-112
19,-180,-200,80,109,-190,34,24,-156,-190,-180,-92
9,-180,-190,85,100,-185,24,19,-165,-200,-185,-102
9,-170,-180,80,95,-175,14,9,-165,-209,-190,-112
-29,-204,-175,117,73,-190,19,0,-170,-219,-200,-117
-73,-234,-161,153,43,-197,29,-9,-165,-214,-209,-131
-87,-209,-122,148,17,-165,39,-4,-146,-214,-204,-131
-73,-175,-102,124,14,-139,53,14,-107,-190,-195,-136
-58,-180,-122,119,31,-151,97,53,-24,-136,-161,-126
-24,-117,-92,70,34,-104,122,92,117,-58,-112,-112
24,19,-4,-21,14,7,122,141,322,82,-19,-68
53,92,39,-73,7,65,122,209,644,292,136,19
58,131,73,-95,-7,102,131,297,1063,566,336,156
58,214,156,-136,-48,185,126,361,1473,839,527,302
107,292,185,-200,-39,239,136,439,1742,1093,732,463
175,322,146,-248,14,234,117,527,1805,1273,932,644
234,370,136,-302,48,253,73,536,1556,1322,1044,819
317,453,136,-385,90,295,-24,473,1083,1298,1151,990
419,531,112,-475,153,322,-107,400,658,1288,1263,1190
570,522,-48,-546,309,236,-180,351,180,1151,1283,1337
736,478,-258,-607,497,109,-253,312,-527,858,1195,1439
932,439,-492,-685,712,-26,-375,229,-1302,497,1102,1561
1132,424,-707,-778,919,-141,-512,131,-2005,170,1010,1698
1351,429,-922,-890,1137,-246,-653,19,-2654,-175,907,1830
1532,429,-1102,-980,1317,-336,-780,-117,-3235,-512,766,1869
1605,405,-1200,-1005,1403,-397,-858,-287,-3625,-834,517,1693
1493,366,-1127,-929,1310,-380,-878,-517,-3777,-1151,136,1249
1205,331,-873,-768,1039,-270,-829,-795,-3708,-1381,-239,761
858,244,-614,-551,736,-185,-746,-1000,-3484,-1478,-488,439
614,48,-566,-331,590,-258,-629,-1034,-3264,-1625,-790,117
492,-307,-800,-92,646,-553,-453,-878,-3069,-1883,-1205,-326
429,-673,-1102,122,766,-888,-258,-624,-2801,-2044,-1556,-692
400,-829,-1229,214,814,-1029,-126,-385,-2415,-2015,-1664,-829
366,-761,-1127,197,746,-944,-63,-224,-1976,-1771,-1532,-780
322,-600,-922,139,622,-761,-14,-156,-1556,-1410,-1244,-624
248,-434,-683,92,466,-558,14,-112,-1176,-1029,-917,-444
146,-263,-409,58,278,-336,9,-97,-829,-692,-614,-292
39,-136,-175,48,107,-156,24,-73,-536,-429,-390,-204
-53,-136,-82,95,14,-109,78,-48,-312,-244,-234,-151
-112,-165,-53,139,-29,-109,122,-9,-165,-122,-146,-107
-146,-151,-4,148,-70,-78,131,24,-87,-63,-92,-92
-156,-165,-9,161,-73,-87,156,63,-39,-24,-63,-87
-161,-190,-29,175,-65,-109,175,63,-4,-4,-43,-73
-151,-190,-39,170,-56,-114,161,53,0,-9,-48,-78
-141,-195,-53,168,-43,-124,146,58,0,-14,-58,-82
-141,-204,-63,173,-39,-134,141,58,4,-29,-68,-87
-136,-204,-68,170,-34,-136,136,58,4,-39,-82,-102
-126,-195,-68,161,-29,-131,126,63,14,-34,-82,-92
-117,-185,-68,151,-24,-126,126,68,24,-29,-78,-87
-87,-156,-68,122,-9,-112,117,73,39,-24,-68,-87
-63,-126,-63,95,0,-95,117,82,48,-19,-53,-87
-68,-141,-73,104,2,-107,107,82,39,-29,-73,-87
-78,-156,-78,117,0,-117,107,82,39,-34,-78,-87
-97,-175,-78,136,-9,-126,107,73,39,-39,-82,-97
-112,-190,-78,151,-17,-134,102,58,39,-43,-82,-102
-131,-204,-73,168,-29,-139,107,53,29,-53,-92,-112
-141,-204,-63,173,-39,-134,112,53,39,-53,-92,-112
-126,-200,-73,163,-26,-136,122,48,48,-48,-92,-102
-112,-190,-78,151,-17,-134,126,43,48,-43,-92,-102
-92,-161,-68,126,-12,-114,126,58,58,-29,-82,-97
-82,-156,-73,119,-4,-114,126,63,68,-29,-73,-87
-87,-156,-68,122,-9,-112,126,63,73,-29,-68,-82
-68,-151,-82,109,7,-117,122,63,78,-29,-63,-78
-68,-136,-68,102,0,-102,112,73,78,-19,-53,-78
-78,-136,-58,107,-9,-97,102,73,78,-19,-53,-78
-78,-136,-58,107,-9,-97,102,73,87,-14,-48,-78
-78,-131,-53,104,-12,-92,102,73,87,-9,-48,-73
-92,-151,-58,122,-17,-104,112,63,73,-24,-63,-87
-107,-165,-58,136,-24,-112,112,53,68,-29,-68,-92
-122,-180,-58,151,-31,-119,112,39,63,-34,-73,-102
-136,-195,-58,165,-39,-126,112,29,58,-29,-78,-107
-126,-180,-53,153,-36,-117,112,39,73,-19,-68,-92
-122,-170,-48,146,-36,-109,112,34,73,-24,-68,-92
-117,-165,-48,141,-34,-107,112,34,78,-24,-63,-92
-102,-156,-53,129,-24,-104,126,39,82,-19,-58,-82
-112,-156,-43,134,-34,-100,112,48,82,-19,-58,-82
-122,-161,-39,141,-41,-100,102,48,82,-19,-58,-82
-122,-161,-39,141,-41,-100,82,48,87,-19,-58,-87
-122,-151,-29,136,-46,-90,78,53,92,-14,-53,-87
-107,-156,-48,131,-29,-102,87,43,97,-14,-63,-87
-102,-131,-29,117,-36,-80,97,43,102,-14,-53,-78
-87,-122,-34,104,-26,-78,102,43,107,-9,-48,-78
-87,-122,-34,104,-26,-78,107,43,107,-9,-48,-78
-73,-102,-29,87,-21,-65,102,58,117,9,-34,-68
-58,-92,-34,75,-12,-63,92,58,122,14,-29,-63
-53,-78,-24,65,-14,-51,87,58,126,19,-29,-63
-58,-68,-9,63,-24,-39,82,53,131,24,-24,-63
-68,-82,-14,75,-26,-48,82,53,126,19,-24,-53
-68,-82,-14,75,-26,-48,82,58,126,19,-24,-53
-68,-82,-14,75,-26,-48,73,58,136,19,-24,-53
-73,-82,-9,78,-31,-46,63,58,136,19,-24,-58
-87,-92,-4,90,-41,-48,68,58,131,19,-24,-73
-92,-97,-4,95,-43,-51,68,58,131,19,-29,-73
-92,-102,-9,97,-41,-56,68,58,131,19,-29,-68
-92,-102,-9,97,-41,-56,68,58,136,19,-24,-68
-82,-87,-4,85,-39,-46,68,58,141,34,-24,-58
-82,-87,-4,85,-39,-46,73,48,141,34,-24,-63
-82,-82,0,82,-41,-41,73,48,146,34,-24,-63
-78,-73,4,75,-41,-34,73,53,146,34,-24,-63
-92,-78,14,85,-53,-31,82,53,156,34,-19,-73
-97,-82,14,90,-56,-34,82,43,161,39,-19,-73
-107,-87,19,97,-63,-34,82,43,161,39,-19,-73
-112,-87,24,100,-68,-31,78,48,161,43,-14,-73
-126,-87,39,107,-82,-24,78,34,161,43,-14,-73
-131,-92,39,112,-85,-26,78,29,161,39,-19,-78
-136,-102,34,119,-85,-34,82,24,156,34,-24,-82
-141,-107,34,124,-87,-36,92,19,161,34,-29,-87
-131,-107,24,119,-78,-41,92,24,170,48,-19,-78
-131,-102,29,117,-80,-36,87,24,170,48,-19,-78
-126,-92,34,109,-80,-29,82,29,175,58,-9,-73
-126,-92,34,109,-80,-29,78,34,180,63,-9,-73
-122,-78,43,100,-82,-17,78,39,195,63,-4,-63
-112,-48,63,80,-87,7,73,39,200,68,4,-63
-92,-29,63,61,-78,17,73,39,204,73,9,-58
-82,-9,73,46,-78,31,68,39,209,73,19,-58
-82,-9,73,46,-78,31,68,53,224,92,29,-43
-82,-9,73,46,-78,31,63,53,229,97,34,-43
-87,-4,82,46,-85,39,63,53,229,97,34,-43
-87,0,87,43,-87,43,63,53,234,97,39,-43
-92,0,92,46,-92,46,68,43,234,97,29,-39
-97,0,97,48,-97,48,68,43,244,102,39,-43
-102,9,112,46,-107,61,68,43,248,107,43,-48
-107,14,122,46,-114,68,58,43,248,107,43,-53
-122,0,122,61,-122,61,48,43,258,117,43,-53
-131,-4,126,68,-129,61,48,43,263,122,43,-53
-136,-4,131,70,-134,63,43,39,263,126,48,-53
-141,0,141,70,-141,70,43,39,273,131,58,-53
-151,4,156,73,-153,80,53,34,287,136,63,-53
-151,14,165,68,-158,90,53,34,287,141,68,-48
-151,24,175,63,-163,100,43,29,292,146,73,-48
-151,29,180,61,-165,104,39,29,297,151,73,-48
-146,48,195,48,-170,122,48,43,312,165,82,-39
-122,68,190,26,-156,129,53,53,322,175,92,-34
-107,73,180,17,-143,126,53,58,336,180,102,-19
-92,82,175,4,-134,129,53,63,346,195,117,-14
-87,102,190,-7,-139,146,39,63,356,204,122,-14
-87,117,204,-14,-146,161,24,63,366,209,126,-14
-87,136,224,-24,-156,180,14,63,370,219,131,-9
-92,151,244,-29,-168,197,4,63,375,224,136,-9
-117,126,244,-4,-180,185,24,58,375,224,136,-14
-146,117,263,14,-204,190,29,43,380,229,131,-19
-170,102,273,34,-222,187,39,39,385,229,126,-24
-195,87,283,53,-239,185,48,39,390,229,131,-29
-185,107,292,39,-239,200,53,29,400,244,136,-29
-190,122,312,34,-251,217,63,24,405,253,146,-29
-185,131,317,26,-251,224,73,19,409,258,151,-24
-190,136,326,26,-258,231,87,14,414,268,156,-24
-190,151,341,19,-265,246,78,29,429,283,170,-9
-185,165,351,9,-268,258,63,39,439,297,180,-4
-175,185,361,-4,-268,273,48,43,458,307,195,0
-170,209,380,-19,-275,295,34,48,473,317,204,0
-200,200,400,0,-300,300,19,39,478,326,200,-9
-219,190,409,14,-314,300,9,29,478,326,204,-9
-239,185,424,26,-331,305,4,29,478,331,214,-4
-248,190,439,29,-344,314,0,24,478,336,224,-4
-248,190,439,29,-344,314,9,14,488,341,234,0
-248,200,448,24,-348,324,4,14,492,351,244,4
-248,200,448,24,-348,324,0,14,507,361,253,4
-253,200,453,26,-353,326,0,14,507,380,263,14
-258,214,473,21,-366,344,4,0,527,400,273,19
-258,229,488,14,-373,358,9,0,531,409,283,24
-258,253,512,2,-385,383,9,-4,546,419,292,29
-263,268,531,-2,-397,400,14,-4,556,439,307,34
-253,278,531,-12,-392,405,29,0,566,448,322,43
-248,287,536,-19,-392,412,34,4,575,473,341,63
-239,307,546,-34,-392,427,39,9,580,488,361,68
-229,326,556,-48,-392,441,39,14,590,502,375,82
-239,336,575,-48,-407,456,19,14,595,517,375,87
