I,II,III,aVR,aVL,aVF,V1,V2,V3,V4,V5,V6,
9,29,19,-19,-4,24,87,244,126,87,68,29
14,29,14,-21,0,21,87,253,126,87,63,24
19,29,9,-24,4,19,87,263,126,87,58,19
19,34,14,-26,2,24,92,273,126,87,58,19
19,39,19,-29,0,29,97,283,126,87,58,19
19,39,19,-29,0,29,97,297,126,87,58,19
19,39,19,-29,0,29,97,312,126,87,58,19
19,43,24,-31,-2,34,92,312,126,82,53,19
19,48,29,-34,-4,39,87,312,126,78,48,19
19,48,29,-34,-4,39,87,322,126,73,48,19
19,48,29,-34,-4,39,87,331,126,68,48,19
24,48,24,-36,0,36,87,336,117,63,39,19
29,48,19,-39,4,34,87,341,107,58,29,19
29,53,24,-41,2,39,78,341,97,48,24,14
29,58,29,-43,0,43,68,341,87,39,19,9
29,63,34,-46,-2,48,63,336,78,29,9,4
29,68,39,-48,-4,53,58,331,68,19,0,0
34,68,34,-51,0,51,53,322,53,4,-9,-4
39,68,29,-53,4,48,48,312,39,-9,-19,-9
39,68,29,-53,4,48,39,297,29,-24,-29,-9
39,68,29,-53,4,48,29,283,19,-39,-39,-9
39,68,29,-53,4,48,19,263,4,-48,-48,-14
39,68,29,-53,4,48,9,244,-9,-58,-58,-19
39,68,29,-53,4,48,0,214,-24,-68,-63,-19
39,68,29,-53,4,48,-9,185,-39,-78,-68,-19
39,68,29,-53,4,48,-14,161,-39,-78,-68,-19
39,68,29,-53,4,48,-19,136,-39,-78,-68,-19
39,58,19,-48,9,39,-19,112,-39,-73,-63,-14
39,48,9,-43,14,29,-19,87,-39,-68,-58,-9
39,48,9,-43,14,29,-19,68,-29,-53,-48,-9
39,48,9,-43,14,29,-19,48,-19,-39,-39,-9
34,43,9,-39,12,26,-19,34,-14,-29,-24,-4
29,39,9,-34,9,24,-19,19,-9,-19,-9,0
9,19,9,-14,0,14,-14,4,-4,-19,-9,0
-9,0,9,4,-9,4,-9,-9,0,-19,-9,0
-9,0,9,4,-9,4,-4,-14,0,-14,-9,0
-9,0,9,4,-9,4,0,-19,0,-9,-9,0
-9,0,9,4,-9,4,0,-29,0,-4,-9,0
-9,0,9,4,-9,4,0,-39,0,0,-9,0
-14,-9,4,12,-9,-2,4,-39,0,0,0,0
-19,-19,0,19,-9,-9,9,-39,0,0,9,0
-19,-19,0,19,-9,-9,9,-39,0,4,9,0
-19,-19,0,19,-9,-9,9,-39,0,9,9,0
-24,-19,4,21,-14,-7,9,-39,0,9,4,-4
-29,-19,9,24,-19,-4,9,-39,0,9,0,-9
-29,-19,9,24,-19,-4,4,-39,0,4,0,-9
-29,-19,9,24,-19,-4,0,-39,0,0,0,-9
-29,-19,9,24,-19,-4,0,-39,0,0,0,-4
-29,-19,9,24,-19,-4,0,-39,0,0,0,0
-34,-19,14,26,-24,-2,0,-34,0,4,0,0
-39,-19,19,29,-29,0,0,-29,0,9,0,0
-39,-19,19,29,-29,0,0,-29,0,9,0,-4
-39,-19,19,29,-29,0,0,-29,0,9,0,-9
-39,-19,19,29,-29,0,0,-24,4,9,0,-9
-39,-19,19,29,-29,0,0,-19,9,9,0,-9
-34,-19,14,26,-24,-2,0,-19,9,9,4,-9
-29,-19,9,24,-19,-4,0,-19,9,9,9,-9
-29,-19,9,24,-19,-4,0,-19,9,14,14,-9
-29,-19,9,24,-19,-4,0,-19,9,19,19,-9
-29,-14,14,21,-21,0,0,-19,14,19,19,-9
-29,-9,19,19,-24,4,0,-19,19,19,19,-9
-29,-9,19,19,-24,4,0,-19,19,19,19,-9
-29,-9,19,19,-24,4,0,-19,19,19,19,-9
-29,-9,19,19,-24,4,0,-19,19,19,19,-9
-29,-9,19,19,-24,4,0,-19,19,19,19,-9
-29,-9,19,19,-24,4,0,-19,19,19,14,-9
-29,-9,19,19,-24,4,0,-19,19,19,9,-9
-29,-9,19,19,-24,4,0,-24,19,19,9,-9
-29,-9,19,19,-24,4,0,-29,19,19,9,-9
-29,-9,19,19,-24,4,0,-29,14,19,14,-9
-29,-9,19,19,-24,4,0,-29,9,19,19,-9
-29,-14,14,21,-21,0,-4,-34,9,19,19,-9
-29,-19,9,24,-19,-4,-9,-39,9,19,19,-9
-29,-19,9,24,-19,-4,-9,-43,9,19,19,-4
-29,-19,9,24,-19,-4,-9,-48,9,19,19,0
-29,-19,9,24,-19,-4,-9,-48,4,14,14,0
-29,-19,9,24,-19,-4,-9,-48,0,9,9,0
-34,-24,9,29,-21,-7,-9,-48,-4,4,4,-4
-39,-29,9,34,-24,-9,-9,-48,-9,0,0,-9
-39,-29,9,34,-24,-9,-9,-53,-9,0,0,-9
-39,-29,9,34,-24,-9,-9,-58,-9,0,0,-9
-39,-29,9,34,-24,-9,-9,-58,-9,0,0,-9
-39,-29,9,34,-24,-9,-9,-58,-9,0,0,-9
-39,-29,9,34,-24,-9,-9,-63,-9,0,0,-9
-39,-29,9,34,-24,-9,-9,-68,-9,0,0,-9
-39,-29,9,34,-24,-9,-9,-68,-14,-4,-9,-14
-39,-29,9,34,-24,-9,-9,-68,-19,-9,-19,-19
-39,-24,14,31,-26,-4,-9,-68,-19,-9,-9,-19
-39,-19,19,29,-29,0,-9,-68,-19,-9,0,-19
-39,-19,19,29,-29,0,-9,-73,-19,-9,0,-19
-39,-19,19,29,-29,0,-9,-78,-19,-9,0,-19
-48,-24,24,36,-36,0,-9,-78,-19,-14,-4,-19
-58,-29,29,43,-43,0,-9,-78,-19,-19,-9,-19
-58,-34,24,46,-41,-4,-9,-78,-24,-19,-9,-19
-58,-39,19,48,-39,-9,-9,-78,-29,-19,-9,-19
-58,-39,19,48,-39,-9,-9,-78,-29,-19,-9,-19
-58,-39,19,48,-39,-9,-9,-78,-29,-19,-9,-19
-58,-39,19,48,-39,-9,-9,-78,-29,-19,-9,-19
-58,-39,19,48,-39,-9,-9,-78,-29,-19,-9,-19
-53,-39,14,46,-34,-12,-9,-78,-29,-19,-9,-19
-48,-39,9,43,-29,-14,-9,-78,-29,-19,-9,-19
-48,-39,9,43,-29,-14,-9,-78,-29,-19,-14,-24
-48,-39,9,43,-29,-14,-9,-78,-29,-19,-19,-29
-48,-39,9,43,-29,-14,-9,-78,-29,-19,-19,-29
-48,-39,9,43,-29,-14,-9,-78,-29,-19,-19,-29
-48,-39,9,43,-29,-14,-9,-78,-29,-19,-19,-24
-48,-39,9,43,-29,-14,-9,-78,-29,-19,-19,-19
-48,-39,9,43,-29,-14,-9,-82,-29,-19,-14,-19
-48,-39,9,43,-29,-14,-9,-87,-29,-19,-9,-19
-48,-39,9,43,-29,-14,-14,-87,-29,-19,-9,-19
-48,-39,9,43,-29,-14,-19,-87,-29,-19,-9,-19
-48,-34,14,41,-31,-9,-19,-87,-29,-19,-14,-24
-48,-29,19,39,-34,-4,-19,-87,-29,-19,-19,-29
-48,-29,19,39,-34,-4,-19,-87,-29,-19,-19,-29
-48,-29,19,39,-34,-4,-19,-87,-29,-19,-19,-29
-48,-34,14,41,-31,-9,-19,-87,-29,-24,-19,-29
-48,-39,9,43,-29,-14,-19,-87,-29,-29,-19,-29
-48,-39,9,43,-29,-14,-19,-87,-34,-29,-24,-29
-48,-29,19,39,-34,-4,-9,-82,-29,-24,-19,-24
-48,-24,24,36,-36,0,-4,-82,-29,-19,-19,-24
-43,-14,29,29,-36,7,9,-73,-14,-9,-9,-19
-39,0,39,19,-39,19,14,-68,0,4,-4,-19
-34,14,48,9,-41,31,24,-58,14,9,4,-14
-24,19,43,2,-34,31,29,-48,14,19,14,-4
-19,24,43,-2,-31,34,34,-43,24,29,24,9
-4,34,39,-14,-21,36,24,-39,34,29,34,14
9,34,24,-21,-7,29,19,-34,34,39,34,19
19,29,9,-24,4,19,-9,-34,34,34,34,24
19,19,0,-19,9,9,-19,-34,29,29,34,24
24,9,-14,-17,19,-2,-29,-43,24,29,34,24
34,19,-14,-26,24,2,-48,-53,24,29,34,29
53,63,9,-58,21,36,-73,-68,14,29,39,39
73,92,19,-82,26,56,-78,-73,14,34,48,48
73,92,19,-82,26,56,-78,-68,14,39,48,48
68,87,19,-78,24,53,-73,-63,14,43,48,48
58,73,14,-65,21,43,-68,-68,14,34,39,43
58,73,14,-65,21,43,-68,-78,0,29,39,43
58,73,14,-65,21,43,-82,-97,-4,24,39,48
58,53,-4,-56,31,24,-87,-107,-14,14,29,43
68,39,-29,-53,48,4,-87,-107,-24,4,19,34
68,9,-58,-39,63,-24,-78,-107,-34,-4,9,24
29,-4,-34,-12,31,-19,-58,-97,-34,-4,4,9
-19,-4,14,12,-17,4,-29,-82,-19,-4,4,0
-39,-4,34,21,-36,14,-29,-92,-19,-4,9,-4
-48,-14,34,31,-41,9,-29,-102,-24,-14,0,-14
-58,-29,29,43,-43,0,-29,-107,-39,-29,-19,-24
-63,-39,24,51,-43,-7,-39,-122,-58,-48,-29,-34
-68,-58,9,63,-39,-24,-39,-131,-78,-58,-48,-48
-73,-68,4,70,-39,-31,-39,-141,-87,-68,-63,-68
-78,-68,9,73,-43,-29,-39,-151,-87,-73,-68,-68
-78,-78,0,78,-39,-39,-39,-156,-87,-78,-73,-68
-73,-78,-4,75,-34,-41,-39,-156,-87,-78,-73,-68
-73,-78,-4,75,-34,-41,-34,-151,-87,-78,-73,-68
-73,-73,0,73,-36,-36,-34,-146,-82,-73,-73,-68
-73,-73,0,73,-36,-36,-29,-146,-82,-73,-68,-68
-82,-78,4,80,-43,-36,-29,-151,-87,-82,-73,-63
-92,-78,14,85,-53,-31,-24,-156,-97,-92,-78,-63
-117,-73,43,95,-80,-14,-19,-185,-82,-78,-68,-73
-117,-58,58,87,-87,0,14,-112,0,4,0,-39
-43,-14,29,29,-36,7,53,78,131,175,156,73
107,87,-19,-97,63,34,97,375,370,463,409,263
317,170,-146,-244,231,12,156,800,702,829,732,473
483,239,-244,-361,363,-2,161,966,897,1083,961,639
702,468,-234,-585,468,117,19,873,966,1283,1185,868
780,561,-219,-671,500,170,-112,658,795,1078,1015,834
624,283,-341,-453,483,-29,-297,0,92,200,190,292
390,102,-287,-246,339,-92,-463,-736,-517,-414,-312,-39
-39,-151,-112,95,36,-131,-448,-1322,-1034,-897,-712,-331
-229,-380,-151,305,-39,-265,-556,-1537,-1346,-1151,-917,-492
-195,-419,-224,307,14,-322,-692,-1424,-1337,-1112,-883,-483
-107,-419,-312,263,102,-366,-727,-1229,-1200,-985,-775,-429
-53,-405,-351,229,148,-378,-561,-927,-980,-805,-653,-370
-43,-341,-297,192,126,-319,-346,-639,-717,-595,-497,-278
-39,-219,-180,129,70,-200,-180,-380,-444,-380,-317,-180
-29,-112,-82,70,26,-97,-112,-219,-258,-234,-185,-117
-29,-53,-24,41,-2,-39,-73,-131,-161,-151,-122,-78
-34,-29,4,31,-19,-12,-29,-73,-97,-92,-78,-53
-39,-24,14,31,-26,-4,0,-48,-48,-58,-53,-39
-58,-19,39,39,-48,9,9,-34,-34,-43,-43,-39
-58,-29,29,43,-43,0,19,-24,-29,-43,-43,-43
-53,-29,24,41,-39,-2,29,0,-14,-29,-39,-43
-53,-24,29,39,-41,2,39,4,4,-14,-24,-39
-53,-19,34,36,-43,7,43,9,9,-4,-19,-34
-53,-14,39,34,-46,12,43,19,9,-4,-14,-29
-53,-14,39,34,-46,12,48,29,19,0,-4,-19
-39,-14,24,26,-31,4,58,43,39,4,0,-19
-29,-14,14,21,-21,0,63,43,48,14,4,-14
-43,-24,19,34,-31,-2,68,53,48,24,9,-9
-58,-29,29,43,-43,0,68,58,53,34,9,-9
-53,-24,29,39,-41,2,63,58,58,34,14,-4
-53,-24,29,39,-41,2,63,63,58,39,19,-4
-48,-14,34,31,-41,9,63,73,63,39,19,-4
-43,-4,39,24,-41,17,68,82,68,43,24,-4
-43,-4,39,24,-41,17,73,87,68,48,24,0
-39,0,39,19,-39,19,78,87,73,48,29,0
-39,0,39,19,-39,19,78,92,78,48,29,0
-34,0,34,17,-34,17,82,102,82,43,34,0
-34,4,39,14,-36,21,82,107,87,48,34,4
-29,4,34,12,-31,19,82,117,87,53,39,4
-24,9,34,7,-29,21,82,126,92,58,39,9
-24,14,39,4,-31,26,87,131,97,63,43,9
-29,14,43,7,-36,29,87,141,102,68,43,9
-34,19,53,7,-43,36,87,151,107,73,48,9
-29,14,43,7,-36,29,87,156,107,78,48,9
-24,14,39,4,-31,26,92,165,112,78,48,14
-24,14,39,4,-31,26,92,170,117,73,53,19
-24,14,39,4,-31,26,92,180,117,73,58,19
-19,19,39,0,-29,29,92,190,126,78,58,14
-19,19,39,0,-29,29,92,195,126,78,58,9
-9,24,34,-7,-21,29,92,209,126,82,53,14
0,29,29,-14,-14,29,87,219,126,87,53,14
0,29,29,-14,-14,29,92,229,131,92,63,19
4,29,24,-17,-9,26,92,239,136,97,63,19
0,34,34,-17,-17,34,97,253,136,97,68,19
-4,39,43,-17,-24,41,102,263,141,97,68,19
0,43,43,-21,-21,43,102,273,141,97,68,19
4,48,43,-26,-19,46,102,283,141,97,63,19
9,53,43,-31,-17,48,102,297,146,92,63,19
9,53,43,-31,-17,48,107,307,151,92,63,19
9,53,43,-31,-17,48,107,322,151,97,63,19
9,58,48,-34,-19,53,107,341,151,102,63,19
9,63,53,-36,-21,58,112,351,151,97,58,24
14,68,53,-41,-19,61,112,361,151,87,53,29
14,73,58,-43,-21,65,112,366,151,82,48,29
14,73,58,-43,-21,65,117,370,151,78,39,24
14,78,63,-46,-24,70,112,370,141,68,34,9
19,78,58,-48,-19,68,107,375,131,63,24,0
14,82,68,-48,-26,75,102,380,126,53,14,0
9,82,73,-46,-31,78,102,380,117,39,9,0
9,82,73,-46,-31,78,92,370,107,29,0,0
9,78,68,-43,-29,73,82,366,97,19,-9,0
9,78,68,-43,-29,73,73,356,82,9,-19,0
9,78,68,-43,-29,73,68,346,68,-9,-29,-4
4,78,73,-41,-34,75,58,322,58,-19,-34,-14
4,78,73,-41,-34,75,43,302,39,-34,-48,-19
4,78,73,-41,-34,75,34,278,24,-53,-68,-24
4,78,73,-41,-34,75,24,248,9,-73,-78,-24
14,78,63,-46,-24,70,14,219,0,-73,-78,-24
24,82,58,-53,-17,70,9,190,-4,-73,-78,-24
24,78,53,-51,-14,65,0,161,-4,-68,-68,-19
24,82,58,-53,-17,70,0,136,-4,-53,-53,-14
24,68,43,-46,-9,56,0,112,0,-48,-43,-4
19,53,34,-36,-7,43,0,87,0,-39,-39,0
9,43,34,-26,-12,39,-4,68,-4,-39,-29,4
-4,34,39,-14,-21,36,-9,39,-4,-34,-24,4
4,29,24,-17,-9,26,-9,19,-4,-24,-19,4
4,24,19,-14,-7,21,-9,4,0,-19,-9,4
4,19,14,-12,-4,17,-14,-4,0,-14,-9,4
-4,14,19,-4,-12,17,-14,-14,0,-4,-4,4
-9,9,19,0,-14,14,-14,-24,-4,-4,-4,4
-19,4,24,7,-21,14,-14,-29,-4,-4,-4,0
-19,-9,9,14,-14,0,-9,-39,-4,-4,-9,0
-24,-9,14,17,-19,2,-9,-48,-4,-4,-9,-4
-24,-14,9,19,-17,-2,-9,-48,-9,-4,-9,-9
-24,-19,4,21,-14,-7,-9,-53,-9,-4,-9,-14
-24,-19,4,21,-14,-7,-9,-53,-9,-4,-9,-14
-24,-24,0,24,-12,-12,-9,-53,-9,-9,-14,-14
-24,-24,0,24,-12,-12,-9,-53,-9,-9,-14,-14
-24,-24,0,24,-12,-12,-9,-53,-9,-9,-9,-14
-29,-19,9,24,-19,-4,-4,-53,-9,-9,-9,-14
-29,-19,9,24,-19,-4,-4,-53,-9,-9,-9,-14
-29,-19,9,24,-19,-4,-4,-53,-9,-9,-9,-14
-29,-19,9,24,-19,-4,-4,-58,-9,-9,-14,-19
-29,-19,9,24,-19,-4,-4,-58,-4,-14,-14,-19
-29,-14,14,21,-21,0,0,-53,-4,-14,-14,-19
-29,-14,14,21,-21,0,0,-48,-4,-9,-9,-14
-24,-14,9,19,-17,-2,0,-43,-4,-9,-4,-14
-24,-14,9,19,-17,-2,0,-39,0,-9,-4,-14
-24,-14,9,19,-17,-2,0,-39,0,-9,-4,-14
-24,-14,9,19,-17,-2,4,-34,4,0,-4,-9
-29,-14,14,21,-21,0,4,-34,4,4,-4,-9
-29,-9,19,19,-24,4,4,-29,9,4,4,-9
-29,-4,24,17,-26,9,4,-29,9,9,9,-4
-29,-4,24,17,-26,9,0,-29,9,9,9,-4
-24,-4,19,14,-21,7,0,-29,9,9,14,-4
-24,-4,19,14,-21,7,0,-29,9,9,14,-4
-29,-9,19,19,-24,4,0,-29,9,14,14,-4
-29,-9,19,19,-24,4,0,-29,14,9,14,-4
-24,-9,14,17,-19,2,0,-29,14,4,19,-9
-24,-9,14,17,-19,2,-4,-34,14,4,19,-9
-24,-9,14,17,-19,2,-4,-34,9,4,14,-9
-19,-4,14,12,-17,4,-4,-34,9,9,14,-9
-19,0,19,9,-19,9,-4,-34,4,14,14,-9
-19,-4,14,12,-17,4,0,-39,4,9,14,-9
-24,-4,19,14,-21,7,0,-39,4,9,14,-9
-24,-4,19,14,-21,7,0,-43,0,9,14,-4
-24,-4,19,14,-21,7,0,-43,0,9,9,-4
-24,-4,19,14,-21,7,0,-48,0,4,9,-4
-24,-4,19,14,-21,7,0,-48,-4,4,9,-9
-19,-4,14,12,-17,4,0,-53,-4,4,9,-9
-14,-9,4,12,-9,-2,0,-53,-9,0,4,-9
-14,-9,4,12,-9,-2,-9,-53,-9,-4,0,-9
-19,-9,9,14,-14,0,-14,-63,-9,-14,-4,-9
-24,-14,9,19,-17,-2,-14,-63,-14,-14,-4,-14
-29,-14,14,21,-21,0,-14,-63,-14,-14,-4,-14
-29,-14,14,21,-21,0,-14,-63,-14,-14,-9,-19
-29,-14,14,21,-21,0,-14,-68,-19,-14,-9,-19
-29,-14,14,21,-21,0,-14,-68,-19,-14,-14,-19
-29,-14,14,21,-21,0,-14,-73,-19,-9,-14,-19
-29,-9,19,19,-24,4,-14,-73,-19,-14,-14,-24
-34,-9,24,21,-29,7,-14,-73,-24,-14,-14,-24
-34,-9,24,21,-29,7,-14,-78,-29,-19,-19,-29
-34,-9,24,21,-29,7,-19,-78,-34,-24,-19,-34
-34,-19,14,26,-24,-2,-19,-78,-39,-29,-19,-34
-39,-29,9,34,-24,-9,-19,-78,-39,-29,-19,-34
-39,-29,9,34,-24,-9,-19,-82,-34,-29,-19,-34
-39,-29,9,34,-24,-9,-19,-82,-29,-29,-24,-34
-39,-24,14,31,-26,-4,-19,-82,-29,-24,-24,-39
-39,-19,19,29,-29,0,-19,-82,-29,-24,-24,-39
-39,-19,19,29,-29,0,-19,-82,-34,-24,-24,-39
-39,-24,14,31,-26,-4,-19,-82,-34,-24,-29,-39
-39,-24,14,31,-26,-4,-19,-87,-34,-29,-34,-39
-39,-24,14,31,-26,-4,-19,-87,-34,-34,-34,-39
-39,-24,14,31,-26,-4,-19,-87,-34,-34,-34,-39
-39,-24,14,31,-26,-4,-19,-87,-34,-34,-34,-39
-39,-24,14,31,-26,-4,-19,-87,-34,-29,-29,-39
-39,-24,14,31,-26,-4,-19,-87,-34,-29,-24,-39
-39,-24,14,31,-26,-4,-19,-87,-34,-29,-24,-34
-39,-29,9,34,-24,-9,-19,-87,-34,-29,-29,-34
-39,-29,9,34,-24,-9,-19,-87,-39,-34,-34,-34
-39,-29,9,34,-24,-9,-19,-92,-39,-39,-39,-34
-43,-29,14,36,-29,-7,-19,-97,-39,-39,-39,-34
-39,-29,9,34,-24,-9,-19,-102,-39,-39,-39,-34
-39,-29,9,34,-24,-9,-14,-97,-39,-39,-39,-34
-39,-29,9,34,-24,-9,-14,-97,-39,-39,-39,-39
-39,-29,9,34,-24,-9,-9,-97,-39,-34,-34,-34
-39,-29,9,34,-24,-9,-9,-97,-39,-29,-29,-29
-34,-29,4,31,-19,-12,-9,-97,-39,-29,-29,-29
-29,-29,0,29,-14,-14,-9,-97,-39,-29,-29,-29
-29,-29,0,29,-14,-14,-4,-92,-34,-24,-24,-29
-29,-19,9,24,-19,-4,0,-82,-24,-19,-14,-24
-29,-14,14,21,-21,0,9,-73,-14,-14,-9,-24
-24,0,24,12,-24,12,14,-68,-4,-9,-9,-29
-14,14,29,0,-21,21,29,-58,4,-9,-9,-24
-4,19,24,-7,-14,21,34,-48,4,0,-4,-19
0,34,34,-17,-17,34,34,-43,14,9,4,-9
9,53,43,-31,-17,48,24,-39,24,9,14,-4
19,53,34,-36,-7,43,19,-34,24,19,14,0
29,48,19,-39,4,34,-9,-34,24,19,14,4
29,34,4,-31,12,19,-19,-34,19,19,14,4
34,29,-4,-31,19,12,-29,-43,14,19,14,4
34,39,4,-36,14,21,-53,-53,14,19,14,9
39,63,24,-51,7,43,-78,-68,4,19,19,19
68,92,24,-80,21,58,-78,-73,4,24,29,29
82,102,19,-92,31,61,-78,-73,4,24,29,29
78,97,19,-87,29,58,-73,-73,4,29,29,29
68,82,14,-75,26,48,-68,-78,4,24,19,24
68,87,19,-78,24,53,-68,-87,-9,19,19,24
68,87,19,-78,24,53,-82,-102,-14,14,19,24
68,63,-4,-65,36,29,-87,-112,-24,4,9,19
68,48,-19,-58,43,14,-87,-117,-34,-4,0,14
58,14,-43,-36,51,-14,-78,-117,-43,-14,-9,4
19,-4,-24,-7,21,-14,-58,-112,-43,-14,-14,-4
-34,-4,29,19,-31,12,-24,-97,-29,-14,-14,-9
-53,-4,48,29,-51,21,-19,-102,-29,-14,-14,-14
-58,-14,43,36,-51,14,-19,-112,-34,-24,-29,-24
-63,-29,34,46,-48,2,-19,-117,-48,-39,-48,-34
-63,-39,24,51,-43,-7,-29,-131,-68,-58,-58,-43
-68,-53,14,61,-41,-19,-29,-141,-82,-68,-73,-53
-68,-58,9,63,-39,-24,-29,-151,-87,-82,-82,-73
-68,-58,9,63,-39,-24,-29,-156,-87,-87,-82,-78
-68,-68,0,68,-34,-34,-29,-156,-87,-87,-82,-78
-68,-68,0,68,-34,-34,-29,-156,-87,-87,-82,-78
-73,-73,0,73,-36,-36,-24,-151,-87,-87,-82,-78
-73,-73,0,73,-36,-36,-24,-146,-82,-82,-82,-78
-73,-73,0,73,-36,-36,-24,-151,-87,-82,-78,-82
-78,-73,4,75,-41,-34,-29,-156,-87,-82,-78,-82
-92,-68,24,80,-58,-21,-29,-180,-112,-122,-107,-92
-102,-53,48,78,-75,-2,-24,-190,-97,-112,-97,-87
-117,-53,63,85,-90,4,4,-141,-34,-43,-48,-68
-58,-29,29,43,-43,0,34,14,78,102,82,19
107,92,-14,-100,61,39,102,395,380,458,395,239
292,200,-92,-246,192,53,156,761,678,795,692,439
488,287,-200,-387,344,43,151,951,917,1132,1005,668
673,434,-239,-553,456,97,29,883,966,1298,1190,849
766,492,-273,-629,519,109,-102,673,736,971,902,746
663,287,-375,-475,519,-43,-268,126,156,253,234,322
370,102,-268,-236,319,-82,-439,-766,-546,-419,-307,-43
0,-136,-136,68,68,-136,-463,-1361,-1088,-946,-751,-356
-180,-380,-200,280,9,-290,-595,-1517,-1376,-1176,-936,-497
-204,-448,-244,326,19,-346,-688,-1449,-1410,-1185,-946,-512
-87,-429,-341,258,126,-385,-697,-1210,-1229,-1015,-805,-439
-24,-400,-375,212,175,-387,-561,-917,-1000,-824,-663,-380
-24,-322,-297,173,136,-309,-322,-610,-697,-600,-492,-287
-19,-209,-190,114,85,-200,-156,-356,-434,-390,-331,-195
-19,-97,-78,58,29,-87,-107,-224,-268,-248,-209,-126
-29,-34,-4,31,-12,-19,-68,-141,-161,-161,-136,-82
-34,-19,14,26,-24,-2,-24,-82,-92,-102,-87,-63
-39,-19,19,29,-29,0,4,-53,-39,-68,-58,-48
-63,-19,43,41,-53,12,9,-43,-34,-58,-53,-48
-68,-29,39,48,-53,4,19,-34,-29,-53,-53,-53
-63,-29,34,46,-48,2,29,0,-14,-39,-48,-53
-63,-24,39,43,-51,7,39,14,4,-24,-34,-48
-63,-19,43,41,-53,12,48,9,9,-14,-29,-43
-63,-14,48,39,-56,17,53,9,9,-14,-29,-43
-63,-14,48,39,-56,17,58,19,19,-9,-24,-39
-58,-14,43,36,-51,14,63,34,34,-4,-19,-39
-58,-14,43,36,-51,14,63,34,39,4,-14,-34
-58,-14,43,36,-51,14,68,43,39,9,-9,-29
-58,-14,43,36,-51,14,68,48,43,14,-9,-29
-53,-14,39,34,-46,12,68,48,48,14,-4,-24
-53,-14,39,34,-46,12,73,53,48,19,0,-24
-53,-14,39,34,-46,12,73,63,53,19,0,-24
-53,-9,43,31,-48,17,78,73,58,24,4,-24
-53,-4,48,29,-51,21,78,78,58,29,4,-19
-48,0,48,24,-48,24,78,78,63,29,9,-19
-48,0,48,24,-48,24,78,82,68,34,9,-19
-43,0,43,21,-43,21,82,92,73,34,14,-19
-43,4,48,19,-46,26,82,97,78,39,14,-14
-39,4,43,17,-41,24,82,107,78,43,19,-14
-34,9,43,12,-39,26,82,117,82,48,19,-9
-39,9,48,14,-43,29,87,122,87,53,24,-9
-43,4,48,19,-46,26,87,131,92,53,24,-9
-43,9,53,17,-48,31,87,141,97,53,29,-9
-39,9,48,14,-43,29,87,146,97,58,29,-9
-34,14,48,9,-41,31,92,156,102,58,29,-4
-34,14,48,9,-41,31,92,161,107,58,34,0
-34,14,48,9,-41,31,92,170,112,63,39,0
-29,19,48,4,-39,34,92,180,126,68,39,0
-29,24,53,2,-41,39,92,185,126,73,39,0
-24,34,58,-4,-41,46,97,200,131,82,39,4
-14,39,53,-12,-34,46,97,209,136,87,43,4
-9,39,48,-14,-29,43,102,219,141,92,53,9
-4,39,43,-17,-24,41,102,229,146,97,53,9
-4,43,48,-19,-26,46,102,244,146,97,53,9
-4,48,53,-21,-29,51,102,258,156,97,53,9
0,53,53,-26,-26,53,102,273,161,97,58,9
4,53,48,-29,-21,51,107,283,161,97,53,9
9,53,43,-31,-17,48,112,297,161,92,53,9
9,53,43,-31,-17,48,117,307,161,92,53,9
9,53,43,-31,-17,48,117,317,161,92,53,9
9,58,48,-34,-19,53,117,331,161,97,53,14
9,63,53,-36,-21,58,122,341,161,97,48,19
9,68,58,-39,-24,63,122,356,165,87,48,24
4,73,68,-39,-31,70,117,366,165,82,48,29
4,73,68,-39,-31,70,117,370,161,78,39,24
4,78,73,-41,-34,75,112,370,151,68,34,14
9,78,68,-43,-29,73,112,375,141,63,24,9
9,82,73,-46,-31,78,112,375,136,53,14,9
9,82,73,-46,-31,78,112,375,126,39,9,9
9,87,78,-48,-34,82,102,370,117,29,0,4
9,87,78,-48,-34,82,92,370,107,19,-9,-4
9,87,78,-48,-34,82,82,361,92,9,-19,-9
9,87,78,-48,-34,82,78,346,78,-9,-29,-14
4,87,82,-46,-39,85,68,322,68,-19,-34,-19
0,87,87,-43,-43,87,53,302,48,-34,-53,-19
-4,87,92,-41,-48,90,43,278,39,-43,-68,-24
-4,87,92,-41,-48,90,34,248,29,-53,-73,-24
0,82,82,-41,-41,82,24,219,19,-53,-78,-24
9,82,73,-46,-31,78,19,190,14,-58,-78,-24
14,68,53,-41,-19,61,9,161,14,-63,-73,-24
19,63,43,-41,-12,53,4,136,9,-53,-58,-24
24,58,34,-41,-4,46,0,117,9,-48,-43,-14
19,48,29,-34,-4,39,0,97,4,-39,-39,-9
19,34,14,-26,2,24,0,78,0,-34,-29,-4
14,24,9,-19,2,17,-4,39,4,-24,-24,-4
14,19,4,-17,4,12,-9,14,4,-14,-19,-4
4,19,14,-12,-4,17,-9,4,9,-9,-9,-4
4,19,14,-12,-4,17,-9,-4,9,-9,-9,-4
-4,14,19,-4,-12,17,-4,-19,4,-4,-4,-4
-9,9,19,0,-14,14,-4,-34,-4,-4,-4,-4
-19,4,24,7,-21,14,-9,-39,-4,-4,-4,-9
-19,-9,9,14,-14,0,-9,-43,-4,-4,-9,-9
-24,-9,14,17,-19,2,-9,-48,-4,-4,-9,-14
-24,-9,14,17,-19,2,-9,-48,-9,-4,-9,-14
-24,-9,14,17,-19,2,-9,-53,-9,-9,-9,-14
-24,-9,14,17,-19,2,-9,-53,-9,-14,-9,-14
-29,-19,9,24,-19,-4,-4,-53,-9,-19,-14,-14
-34,-24,9,29,-21,-7,0,-53,-9,-19,-14,-14
-34,-24,9,29,-21,-7,0,-53,-9,-19,-14,-14
-39,-24,14,31,-26,-4,4,-53,-9,-19,-19,-14
-39,-29,9,34,-24,-9,4,-53,-9,-19,-19,-14
-39,-29,9,34,-24,-9,4,-48,-9,-19,-19,-14
-39,-29,9,34,-24,-9,4,-48,-9,-19,-24,-19
-39,-29,9,34,-24,-9,4,-48,-4,-19,-24,-19
-34,-24,9,29,-21,-7,9,-43,-4,-9,-19,-19
-29,-24,4,26,-17,-9,9,-43,-4,0,-9,-14
-24,-24,0,24,-12,-12,9,-43,-4,0,-4,-14
-24,-24,0,24,-12,-12,9,-39,0,0,-4,-14
-24,-24,0,24,-12,-12,4,-39,0,0,-4,-14
-24,-24,0,24,-12,-12,4,-34,4,4,-4,-9
-29,-24,4,26,-17,-9,4,-39,4,4,-4,-14
-29,-24,4,26,-17,-9,4,-39,9,4,0,-19
-29,-24,4,26,-17,-9,4,-39,9,4,0,-14
-29,-24,4,26,-17,-9,0,-39,9,0,0,-14
-24,-24,0,24,-12,-12,0,-39,9,0,4,-14
-24,-19,4,21,-14,-7,0,-39,9,0,4,-14
-29,-19,9,24,-19,-4,4,-34,9,9,4,-9
-29,-19,9,24,-19,-4,9,-29,14,14,4,-4
-24,-19,4,21,-14,-7,9,-29,14,14,14,-4
-24,-19,4,21,-14,-7,4,-34,14,14,19,0
-24,-19,4,21,-14,-7,4,-34,9,14,14,0
-19,-19,0,19,-9,-9,4,-34,9,14,14,0
-19,-19,0,19,-9,-9,4,-34,4,14,14,-4
-19,-24,-4,21,-7,-14,4,-39,4,9,14,-9
-24,-24,0,24,-12,-12,0,-39,4,9,14,-9
-24,-24,0,24,-12,-12,0,-43,0,9,14,-4
-24,-24,0,24,-12,-12,0,-43,0,9,9,-4
-24,-24,0,24,-12,-12,0,-48,0,4,9,-4
-19,-24,-4,21,-7,-14,0,-48,-4,4,9,-4
-14,-24,-9,19,-2,-17,0,-53,-4,4,9,0
-14,-29,-14,21,0,-21,0,-53,-9,0,4,0
-14,-29,-14,21,0,-21,-4,-53,-9,0,4,0
-19,-29,-9,24,-4,-19,-4,-63,-9,-4,4,0
-19,-34,-14,26,-2,-24,-4,-63,-14,-4,4,-4
-19,-34,-14,26,-2,-24,-4,-63,-14,-4,4,-4
-19,-34,-14,26,-2,-24,-4,-63,-14,-4,0,-9
-19,-34,-14,26,-2,-24,-9,-68,-19,-4,0,-9
-19,-34,-14,26,-2,-24,-14,-68,-19,-9,-4,-9
-24,-34,-9,29,-7,-21,-14,-73,-19,-9,-4,-9
-29,-34,-4,31,-12,-19,-14,-73,-19,-14,-4,-14
-34,-39,-4,36,-14,-21,-14,-73,-24,-14,-4,-14
-34,-39,-4,36,-14,-21,-14,-78,-24,-14,-9,-14
-34,-39,-4,36,-14,-21,-19,-78,-24,-14,-9,-14
-34,-39,-4,36,-14,-21,-19,-78,-29,-19,-9,-14
-39,-39,0,39,-19,-19,-19,-78,-29,-19,-4,-9
-39,-39,0,39,-19,-19,-19,-82,-29,-19,0,-4
-39,-39,0,39,-19,-19,-19,-82,-29,-19,-4,-4
-39,-39,0,39,-19,-19,-19,-82,-29,-19,-4,-9
-34,-34,0,34,-17,-17,-19,-82,-24,-24,-4,-9
-29,-29,0,29,-14,-14,-19,-82,-24,-24,-4,-9
-29,-34,-4,31,-12,-19,-19,-82,-24,-24,-14,-14
-29,-34,-4,31,-12,-19,-19,-87,-24,-24,-19,-19
-39,-48,-9,43,-14,-29,-19,-87,-29,-24,-14,-19
-48,-63,-14,56,-17,-39,-19,-87,-34,-24,-14,-19
-48,-63,-14,56,-17,-39,-19,-87,-34,-24,-14,-19
-48,-63,-14,56,-17,-39,-19,-87,-34,-24,-14,-19
-43,-58,-14,51,-14,-36,-19,-87,-34,-24,-14,-19
-39,-53,-14,46,-12,-34,-19,-87,-34,-19,-14,-19
-39,-53,-14,46,-12,-34,-19,-87,-29,-19,-19,-24
-39,-48,-9,43,-14,-29,-19,-87,-29,-19,-19,-24
-39,-48,-9,43,-14,-29,-19,-92,-29,-24,-19,-19
-43,-48,-4,46,-19,-26,-19,-92,-29,-29,-19,-14
-39,-43,-4,41,-17,-24,-14,-87,-29,-29,-19,-14
-39,-39,0,39,-19,-19,-14,-87,-29,-29,-19,-19
-39,-39,0,39,-19,-19,-9,-87,-29,-29,-19,-19
-39,-39,0,39,-19,-19,-9,-87,-29,-29,-19,-19
-39,-43,-4,41,-17,-24,-9,-87,-29,-29,-19,-19
-39,-48,-9,43,-14,-29,-9,-87,-29,-29,-19,-19
-39,-43,-4,41,-17,-24,-4,-87,-24,-24,-14,-14
-34,-34,0,34,-17,-17,4,-78,-14,-14,-4,-4
-34,-24,9,29,-21,-7,14,-73,-4,-9,0,0
-24,-9,14,17,-19,2,24,-68,4,0,0,0
-14,4,19,4,-17,12,34,-58,14,0,4,4
-4,9,14,-2,-9,12,34,-48,14,9,14,9
4,19,14,-12,-4,17,39,-39,24,24,24,19
19,34,14,-26,2,24,34,-29,34,29,34,24
29,34,4,-31,12,19,29,-24,39,39,34,24
39,29,-9,-34,24,9,0,-24,43,39,34,24
34,19,-14,-26,24,2,-14,-19,39,39,39,24
34,19,-14,-26,24,2,-29,-24,34,39,43,24
43,34,-9,-39,26,12,-48,-34,34,39,43,29
58,63,4,-61,26,34,-68,-48,24,39,48,39
78,82,4,-80,36,43,-68,-58,24,43,58,48
82,82,0,-82,41,41,-68,-63,24,43,58,48
78,82,4,-80,36,43,-63,-63,24,43,58,48
68,73,4,-70,31,39,-58,-68,24,34,48,43
68,78,9,-73,29,43,-58,-78,9,34,48,48
68,78,9,-73,29,43,-73,-92,4,34,48,53
73,53,-19,-63,46,17,-82,-97,-4,24,39,43
78,39,-39,-58,58,0,-87,-97,-14,14,29,34
78,9,-68,-43,73,-29,-78,-97,-34,-4,19,24
48,-4,-53,-21,51,-29,-58,-92,-43,-14,14,14
-9,-4,4,7,-7,0,-29,-82,-19,-4,14,9
-34,-4,29,19,-31,12,-29,-92,-9,4,14,4
-43,-14,29,29,-36,7,-24,-102,-14,-4,4,-4
-53,-29,24,41,-39,-2,-19,-107,-29,-19,-9,-14
-53,-39,14,46,-34,-12,-29,-122,-53,-39,-19,-24
-58,-53,4,56,-31,-24,-29,-131,-73,-48,-34,-34
-63,-63,0,63,-31,-31,-29,-141,-78,-58,-48,-48
-68,-68,0,68,-34,-34,-29,-146,-78,-58,-53,-48
-68,-78,-9,73,-29,-43,-29,-146,-78,-58,-53,-48
-68,-78,-9,73,-29,-43,-29,-146,-78,-58,-53,-48
-73,-78,-4,75,-34,-41,-29,-141,-73,-58,-53,-48
-73,-73,0,73,-36,-36,-34,-136,-63,-53,-53,-48
-73,-73,0,73,-36,-36,-29,-136,-63,-53,-48,-48
-78,-73,4,75,-41,-34,-29,-136,-58,-53,-48,-43
-87,-78,9,82,-48,-34,-34,-165,-92,-92,-78,-58
-92,-73,19,82,-56,-26,-34,-180,-87,-82,-68,-58
-117,-68,48,92,-82,-9,4,-151,-34,-24,-29,-53
-68,-39,29,53,-48,-4,43,-14,68,112,92,19
87,63,-24,-75,56,19,107,366,341,424,370,224
263,151,-112,-207,187,19,156,732,610,717,634,409
463,229,-234,-346,348,-2,185,980,893,1078,961,639
653,366,-287,-509,470,39,97,971,985,1268,1161,819
771,473,-297,-622,534,87,-24,814,834,1034,956,771
692,317,-375,-505,534,-29,-180,322,331,409,370,400
405,161,-244,-283,324,-41,-370,-629,-375,-278,-185,34
39,-48,-87,4,63,-68,-414,-1283,-922,-819,-644,-278
-190,-331,-141,261,-24,-236,-551,-1522,-1283,-1107,-878,-458
-263,-439,-175,351,-43,-307,-649,-1537,-1390,-1176,-936,-512
-136,-448,-312,292,87,-380,-722,-1322,-1254,-1034,-819,-444
-63,-448,-385,256,161,-417,-649,-1054,-1068,-873,-702,-390
-53,-385,-331,219,139,-358,-385,-717,-761,-649,-522,-297
-39,-287,-248,163,104,-268,-195,-434,-492,-439,-351,-204
-24,-156,-131,90,53,-143,-126,-263,-302,-273,-209,-122
-19,-73,-53,46,17,-63,-68,-141,-170,-161,-117,-63
-24,-48,-24,36,0,-36,-24,-82,-92,-92,-63,-43
-29,-39,-9,34,-9,-24,4,-53,-29,-48,-29,-29
-58,-39,19,48,-39,-9,9,-43,-24,-43,-24,-29
-68,-48,19,58,-43,-14,19,-34,-19,-43,-24,-34
-63,-43,19,53,-41,-12,29,-4,0,-19,-14,-29
-63,-34,29,48,-46,-2,39,4,24,4,4,-19
-63,-29,34,46,-48,2,48,9,29,14,9,-9
-63,-24,39,43,-51,7,53,19,29,14,9,-4
-63,-24,39,43,-51,7,58,34,39,14,9,0
-58,-24,34,41,-46,4,63,53,53,14,9,0
-53,-24,29,39,-41,2,63,53,58,24,14,4
-48,-24,24,36,-36,0,68,63,58,29,19,9
-48,-24,24,36,-36,0,68,68,63,39,24,9
-43,-24,19,34,-31,-2,68,68,68,43,34,14
-43,-24,19,34,-31,-2,73,73,68,48,39,14
-43,-24,19,34,-31,-2,73,82,73,48,39,14
-43,-24,19,34,-31,-2,78,92,78,53,43,14
-43,-24,19,34,-31,-2,78,97,78,58,43,19
-39,-19,19,29,-29,0,78,97,82,58,43,19
-39,-19,19,29,-29,0,78,102,87,63,39,19
-39,-19,19,29,-29,0,82,112,92,58,43,19
-43,-14,29,29,-36,7,82,117,97,58,43,24
-39,-14,24,26,-31,4,82,126,97,63,48,24
-34,-9,24,21,-29,7,82,136,102,68,48,29
-34,-4,29,19,-31,12,87,141,107,78,53,29
-34,-4,29,19,-31,12,87,151,112,82,53,29
-34,0,34,17,-34,17,87,161,117,82,58,29
-29,0,29,14,-29,14,87,165,117,87,58,29
-24,4,29,9,-26,17,92,175,122,87,58,34
-24,4,29,9,-26,17,92,180,126,87,63,39
-29,4,34,12,-31,19,92,185,122,92,68,34
-29,9,39,9,-34,24,92,190,126,97,68,29
-29,9,39,9,-34,24,92,195,126,92,68,29
-24,14,39,4,-31,26,97,209,131,92,68,34
-14,24,39,-4,-26,31,92,219,141,97,73,34
-9,29,39,-9,-24,34,92,229,151,102,82,39
-4,29,34,-12,-19,31,92,239,156,107,82,39
-4,34,39,-14,-21,36,92,253,156,107,82,39
-4,39,43,-17,-24,41,97,263,161,107,78,39
0,43,43,-21,-21,43,102,273,161,107,78,39
4,48,43,-26,-19,46,102,287,161,112,73,39
9,53,43,-31,-17,48,102,307,161,112,73,39
9,53,43,-31,-17,48,107,317,161,112,73,39
9,53,43,-31,-17,48,107,326,161,112,73,39
9,53,43,-31,-17,48,107,341,161,112,73,43
9,53,43,-31,-17,48,112,351,161,107,68,48
14,58,43,-36,-14,51,112,361,165,97,68,48
14,63,48,-39,-17,56,107,366,165,92,68,48
14,68,53,-41,-19,61,107,370,161,87,58,43
14,78,63,-46,-24,70,102,370,151,78,53,34
19,78,58,-48,-19,68,97,375,141,78,43,29
19,82,63,-51,-21,73,92,375,136,73,34,29
19,82,63,-51,-21,73,97,375,126,58,29,29
19,87,68,-53,-24,78,92,370,117,48,19,24
24,87,63,-56,-19,75,82,370,107,34,9,14
29,87,58,-58,-14,73,73,361,92,19,0,9
29,87,58,-58,-14,73,63,346,78,0,-9,4
24,87,63,-56,-19,75,48,322,68,-9,-14,0
24,87,63,-56,-19,75,34,302,43,-24,-29,0
24,87,63,-56,-19,75,24,278,29,-34,-39,-4
24,92,68,-58,-21,80,14,248,19,-43,-43,-4
29,92,63,-61,-17,78,4,219,9,-43,-48,-4
39,102,63,-70,-12,82,0,190,0,-48,-53,-4
43,97,53,-70,-4,75,-9,161,-4,-53,-53,-4
43,92,48,-68,-2,70,-14,136,-4,-43,-43,-4
43,87,43,-65,0,65,-19,117,0,-39,-34,4
39,82,43,-61,-2,63,-19,97,0,-29,-29,9
39,73,34,-56,2,53,-19,78,0,-24,-19,14
34,63,29,-48,2,46,-19,39,4,-19,-14,14
34,58,24,-46,4,41,-19,14,4,-14,-9,14
24,48,24,-36,0,36,-19,4,9,-9,0,4
24,39,14,-31,4,26,-19,-4,9,-9,0,-4
19,34,14,-26,2,24,-14,-14,9,-4,4,4
19,29,9,-24,4,19,-14,-24,4,-4,4,14
9,24,14,-17,-2,19,-14,-34,0,-4,4,9
9,9,0,-9,4,4,-9,-43,-4,-4,0,9
0,9,9,-4,-4,9,-9,-48,-4,-4,0,4
-4,9,14,-2,-9,12,-9,-48,-9,-4,0,4
-4,4,9,0,-7,7,-9,-53,-9,-4,0,4
-4,0,4,2,-4,2,-9,-53,-9,-4,0,4
-4,-4,0,4,-2,-2,-9,-53,-9,-9,-4,4
-4,-4,0,4,-2,-2,-9,-53,-9,-9,-4,4
-4,0,4,2,-4,2,-9,-53,-9,-9,0,4
-9,4,14,2,-12,9,-4,-53,-9,-9,0,4
-9,0,9,4,-9,4,-4,-58,-9,-9,0,4
-9,0,9,4,-9,4,-4,-58,-9,-9,0,4
-9,0,9,4,-9,4,-4,-58,-9,-9,-4,0
-9,0,9,4,-9,4,-4,-58,-4,-9,-4,0
-14,4,19,4,-17,12,0,-48,-4,-4,-4,0
-19,4,24,7,-21,14,0,-43,-4,0,0,4
-14,0,14,7,-14,7,0,-43,-4,0,4,4
-14,-4,9,9,-12,2,0,-39,0,0,4,4
-9,-4,4,7,-7,0,-4,-43,0,0,4,4
-4,-4,0,4,-2,-2,-4,-43,4,4,4,9
-9,0,9,4,-9,4,-4,-43,4,4,4,9
-9,4,14,2,-12,9,-4,-39,9,4,9,9
-14,4,19,4,-17,12,0,-39,9,9,9,14
-19,4,24,7,-21,14,0,-39,9,9,9,14
-14,4,19,4,-17,12,0,-34,9,9,9,14
-14,9,24,2,-19,17,0,-29,9,9,4,14
-19,4,24,7,-21,14,0,-29,9,14,4,14
-19,0,19,9,-19,9,0,-29,14,14,4,14
-14,0,14,7,-14,7,-4,-29,14,9,4,4
-14,0,14,7,-14,7,-14,-34,14,4,0,0
-19,0,19,9,-19,9,-14,-34,9,4,-4,0
-19,0,19,9,-19,9,-14,-34,9,4,-4,0
-19,0,19,9,-19,9,-14,-34,4,4,0,0
-19,-4,14,12,-17,4,-14,-39,4,0,4,0
-24,-4,19,14,-21,7,-19,-39,4,0,9,4
-24,-4,19,14,-21,7,-19,-43,0,0,14,14
-24,-4,19,14,-21,7,-19,-43,0,0,9,14
-24,-4,19,14,-21,7,-19,-48,0,-4,9,14
-19,-4,14,12,-17,4,-19,-48,-4,-4,4,4
-14,-4,9,9,-12,2,-19,-53,-4,-4,0,0
-14,-9,4,12,-9,-2,-14,-53,-9,-4,-4,0
-14,-9,4,12,-9,-2,-14,-53,-9,0,-4,0
-19,-9,9,14,-14,0,-14,-63,-9,-4,-4,4
-19,-14,4,17,-12,-4,-14,-63,-14,-4,-4,4
-19,-14,4,17,-12,-4,-14,-63,-14,-9,-4,4
-19,-14,4,17,-12,-4,-14,-63,-14,-14,-9,0
-19,-9,9,14,-14,0,-14,-68,-19,-14,-9,-4
-19,-4,14,12,-17,4,-14,-68,-19,-19,-14,-9
-19,-4,14,12,-17,4,-14,-73,-19,-19,-14,-9
-19,-4,14,12,-17,4,-14,-73,-19,-24,-14,-14
-24,-14,9,19,-17,-2,-14,-73,-24,-24,-14,-14
-24,-19,4,21,-14,-7,-14,-78,-24,-24,-19,-14
-24,-19,4,21,-14,-7,-19,-78,-19,-24,-19,-9
-24,-19,4,21,-14,-7,-19,-78,-19,-29,-19,-4
-29,-19,9,24,-19,-4,-19,-78,-19,-24,-19,-4
-29,-19,9,24,-19,-4,-19,-82,-19,-19,-19,-4
-29,-19,9,24,-19,-4,-19,-82,-19,-19,-24,-9
-29,-19,9,24,-19,-4,-19,-82,-19,-19,-24,-19
-29,-19,9,24,-19,-4,-19,-82,-24,-24,-29,-19
-29,-19,9,24,-19,-4,-19,-82,-34,-24,-34,-19
-29,-19,9,24,-19,-4,-19,-82,-34,-24,-39,-19
-29,-14,14,21,-21,0,-19,-87,-34,-24,-39,-19
-29,-14,14,21,-21,0,-19,-87,-34,-24,-29,-19
-29,-14,14,21,-21,0,-19,-87,-34,-24,-24,-19
-29,-24,4,26,-17,-9,-19,-87,-34,-29,-24,-19
-29,-34,-4,31,-12,-19,-19,-87,-34,-34,-24,-19
-29,-34,-4,31,-12,-19,-19,-87,-34,-39,-24,-19
-29,-34,-4,31,-12,-19,-19,-87,-34,-39,-24,-19
-29,-34,-4,31,-12,-19,-19,-92,-34,-39,-29,-24
-29,-29,0,29,-14,-14,-19,-97,-39,-39,-29,-24
-29,-29,0,29,-14,-14,-19,-102,-39,-39,-29,-24
-34,-29,4,31,-19,-12,-19,-102,-39,-39,-29,-24
-29,-29,0,29,-14,-14,-14,-97,-39,-39,-29,-24
-29,-29,0,29,-14,-14,-9,-97,-39,-39,-29,-29
-29,-29,0,29,-14,-14,-9,-97,-39,-39,-29,-29
-29,-29,0,29,-14,-14,-9,-97,-39,-39,-29,-29
-29,-29,0,29,-14,-14,-4,-92,-39,-39,-29,-29
-29,-24,4,26,-17,-9,0,-87,-34,-34,-24,-24
-34,-19,14,26,-24,-2,9,-82,-29,-29,-19,-19
-34,-14,19,24,-26,2,19,-73,-14,-19,-9,-9
-24,0,24,12,-24,12,24,-68,-4,-9,-9,-9
-14,14,29,0,-21,21,34,-58,4,-9,-4,-4
0,19,19,-9,-9,19,34,-48,4,0,4,0
9,24,14,-17,-2,19,34,-43,14,9,14,9
19,39,19,-29,0,29,24,-34,24,9,24,9
29,43,14,-36,7,29,19,-24,24,19,24,9
39,39,0,-39,19,19,-9,-24,24,19,24,14
39,29,-9,-34,24,9,-19,-24,19,19,24,14
43,34,-9,-39,26,12,-29,-39,14,19,24,19
53,58,4,-56,24,31,-48,-53,14,19,24,29
68,92,24,-80,21,58,-68,-68,4,19,29,39
82,112,29,-97,26,70,-68,-73,4,24,39,48
78,102,24,-90,26,63,-68,-73,4,29,39,48
68,87,19,-78,24,53,-63,-73,4,34,39,48
58,73,14,-65,21,43,-58,-78,4,24,29,39
58,73,14,-65,21,43,-58,-87,-9,19,29,34
58,68,9,-63,24,39,-73,-102,-14,14,29,34
58,43,-14,-51,36,14,-78,-107,-24,4,19,24
58,34,-24,-46,41,4,-78,-107,-34,-4,4,14
48,9,-39,-29,43,-14,-68,-107,-43,-14,-9,4
9,-4,-14,-2,12,-9,-48,-102,-43,-19,-14,-4
-39,-4,34,21,-36,14,-19,-92,-29,-24,-14,-9
-58,-4,53,31,-56,24,-19,-102,-29,-24,-14,-19
-68,-14,53,41,-61,19,-19,-112,-34,-34,-29,-34
-73,-34,39,53,-56,2,-24,-117,-48,-48,-48,-43
-73,-48,24,61,-48,-12,-39,-131,-68,-68,-58,-53
-73,-63,9,68,-41,-26,-39,-141,-82,-78,-73,-58
-73,-68,4,70,-39,-31,-39,-151,-87,-87,-82,-68
-78,-68,9,73,-43,-29,-39,-156,-87,-87,-82,-68
-78,-78,0,78,-39,-39,-39,-156,-87,-87,-82,-68
-82,-78,4,80,-43,-36,-39,-156,-87,-87,-82,-68
-92,-78,14,85,-53,-31,-34,-151,-87,-87,-82,-68
-92,-73,19,82,-56,-26,-34,-146,-82,-82,-82,-68
-92,-73,19,82,-56,-26,-29,-146,-82,-82,-78,-68
-97,-68,29,82,-63,-19,-24,-136,-73,-73,-68,-63
-102,-58,43,80,-73,-7,-14,-126,-68,-63,-58,-63
-97,-43,53,70,-75,4,-4,-102,-14,0,-9,-39
-68,-19,48,43,-58,14,34,24,107,131,97,29
34,29,-4,-31,19,12,73,248,244,297,258,146
214,136,-78,-175,146,29,117,580,488,580,517,341
419,224,-195,-322,307,14,156,907,741,854,756,512
580,297,-283,-439,431,7,141,976,858,1015,902,639
702,434,-268,-568,485,82,9,741,790,1024,946,717
683,434,-248,-558,466,92,-112,385,483,629,595,531
458,200,-258,-329,358,-29,-278,-302,-141,-117,-102,63
156,63,-92,-109,124,-14,-424,-1068,-673,-600,-478,-195
-195,-165,29,180,-112,-68,-414,-1483,-1078,-976,-790,-424
-307,-370,-63,339,-122,-217,-527,-1527,-1278,-1122,-907,-522
-248,-409,-161,329,-43,-285,-649,-1385,-1254,-1063,-863,-497
-136,-409,-273,273,68,-341,-668,-1161,-1102,-917,-746,-429
-87,-390,-302,239,107,-346,-502,-868,-888,-746,-614,-370
-82,-322,-239,202,78,-280,-287,-590,-629,-546,-448,-278
-63,-195,-131,129,34,-163,-141,-346,-380,-341,-287,-180
-39,-82,-43,61,2,-63,-92,-200,-219,-204,-175,-117
-39,-43,-4,41,-17,-24,-58,-112,-131,-126,-112,-78
-43,-39,4,41,-24,-17,-19,-53,-78,-73,-68,-53
-48,-39,9,43,-29,-14,4,-34,-39,-48,-48,-39
-68,-39,29,53,-48,-4,9,-24,-34,-43,-43,-39
-68,-48,19,58,-43,-14,19,-14,-29,-48,-43,-43
-63,-48,14,56,-39,-17,29,9,-14,-39,-39,-43
-63,-43,19,53,-41,-12,43,14,4,-24,-24,-43
-63,-39,24,51,-43,-7,53,19,9,-14,-19,-43
-63,-34,29,48,-46,-2,53,24,4,-14,-24,-43
-63,-34,29,48,-46,-2,58,29,9,-9,-24,-39
-58,-34,24,46,-41,-4,63,43,24,0,-19,-39
-58,-34,24,46,-41,-4,63,43,29,14,-14,-34
-63,-29,34,46,-48,2,68,58,34,19,-4,-29
-68,-19,48,43,-58,14,68,68,43,24,0,-29
-63,-14,48,39,-56,17,68,68,48,19,4,-24
-63,-14,48,39,-56,17,73,73,48,19,9,-24
-58,-14,43,36,-51,14,73,82,48,19,4,-24
-53,-14,39,34,-46,12,78,92,48,24,4,-24
-53,-14,39,34,-46,12,78,97,48,29,4,-19
-48,-9,39,29,-43,14,78,97,53,29,9,-19
-53,-9,43,31,-48,17,78,102,58,34,9,-19
-53,-9,43,31,-48,17,82,112,63,34,14,-19
-53,-9,43,31,-48,17,82,117,68,39,19,-14
-48,-14,34,31,-41,9,82,126,68,43,29,-14
-43,-9,34,26,-39,12,82,136,73,48,29,-9
-43,-4,39,24,-41,17,87,141,78,53,34,-9
-43,-4,39,24,-41,17,87,146,82,53,34,-4
-43,0,43,21,-43,21,87,151,87,53,39,0
-39,0,39,19,-39,19,87,156,87,58,34,0
-34,4,39,14,-36,21,92,165,92,58,29,4
-29,4,34,12,-31,19,87,170,97,58,29,4
-24,4,29,9,-26,17,82,180,97,63,29,0
-19,9,29,4,-24,19,82,190,107,68,29,0
-19,9,29,4,-24,19,82,195,107,68,29,0
-14,0,14,7,-14,7,87,214,112,73,34,4
-9,-9,0,9,-4,-4,87,229,117,78,43,4
-14,-9,4,12,-9,-2,92,239,122,78,53,9
-14,-9,4,12,-9,-2,92,248,126,78,53,9
-14,4,19,4,-17,12,87,253,112,68,43,4
-14,19,34,-2,-24,26,82,253,102,58,29,0
-9,34,43,-12,-26,39,73,258,97,58,29,-4
-4,48,53,-21,-29,51,63,263,92,58,24,-9
4,58,53,-31,-24,56,63,278,92,53,24,-9
9,63,53,-36,-21,58,68,287,92,53,24,-9
9,63,53,-36,-21,58,68,292,92,53,24,-9
9,68,58,-39,-24,63,68,302,92,53,24,-9
14,73,58,-43,-21,65,68,312,92,48,24,-9
24,78,53,-51,-14,65,63,322,92,39,24,-9
24,87,63,-56,-19,75,58,326,87,34,19,-9
24,92,68,-58,-21,80,58,331,82,29,9,-14
24,97,73,-61,-24,85,53,326,73,19,0,-24
29,97,68,-63,-19,82,48,326,63,14,-14,-29
29,102,73,-65,-21,87,43,326,58,4,-24,-29
29,102,73,-65,-21,87,43,322,48,-9,-29,-29
29,102,73,-65,-21,87,39,312,39,-14,-34,-29
29,97,68,-63,-19,82,34,307,29,-19,-39,-29
29,97,68,-63,-19,82,24,297,14,-29,-48,-29
29,97,68,-63,-19,82,19,287,0,-48,-58,-34
24,97,73,-61,-24,85,9,263,-9,-58,-63,-39
24,97,73,-61,-24,85,-4,244,-29,-73,-78,-39
24,97,73,-61,-24,85,-14,219,-39,-82,-87,-43
24,97,73,-61,-24,85,-24,190,-48,-92,-87,-43
29,87,58,-58,-14,73,-34,161,-58,-92,-87,-43
34,82,48,-58,-7,65,-39,131,-63,-92,-87,-43
29,68,39,-48,-4,53,-48,107,-58,-92,-82,-43
24,63,39,-43,-7,51,-48,87,-53,-82,-73,-43
24,58,34,-41,-4,46,-43,68,-43,-73,-63,-34
19,53,34,-36,-7,43,-39,48,-39,-58,-58,-29
19,43,24,-31,-2,34,-34,34,-34,-48,-43,-19
14,34,19,-24,-2,26,-29,9,-24,-34,-34,-14
14,34,19,-24,-2,26,-29,-4,-24,-24,-24,-14
4,34,29,-19,-12,31,-29,-14,-19,-19,-9,-14
4,29,24,-17,-9,26,-29,-19,-19,-19,-9,-14
-4,24,29,-9,-17,26,-24,-24,-19,-14,-4,-14
-9,19,29,-4,-19,24,-19,-34,-24,-14,-9,-14
-19,14,34,2,-26,24,-14,-39,-24,-14,-14,-19
-19,0,19,9,-19,9,-9,-43,-19,-19,-19,-19
-24,0,24,12,-24,12,-9,-48,-14,-24,-19,-24
-24,0,24,12,-24,12,-9,-48,-19,-24,-19,-24
-24,0,24,12,-24,12,-9,-53,-19,-24,-19,-24
-24,0,24,12,-24,12,-9,-53,-19,-19,-14,-19
-24,-4,19,14,-21,7,-9,-53,-19,-19,-14,-14
-24,-4,19,14,-21,7,-9,-53,-19,-14,-14,-14
-24,-4,19,14,-21,7,-9,-53,-19,-9,-9,-14
-29,-9,19,19,-24,4,-4,-53,-19,-9,-9,-14
-29,-19,9,24,-19,-4,-4,-53,-19,-9,-9,-14
-29,-19,9,24,-19,-4,-4,-48,-19,-14,-9,-19
-29,-19,9,24,-19,-4,-4,-48,-19,-19,-14,-29
-29,-14,14,21,-21,0,-4,-48,-14,-19,-14,-29
-29,-4,24,17,-26,9,0,-43,-14,-14,-14,-29
-29,-4,24,17,-26,9,0,-43,-9,-4,-9,-24
-24,-4,19,14,-21,7,0,-43,-4,0,-4,-24
-19,-4,14,12,-17,4,0,-39,0,0,0,-19
-14,-4,9,9,-12,2,0,-39,0,0,4,-14
-14,-9,4,12,-9,-2,9,-29,4,4,4,-9
-19,-14,4,17,-12,-4,14,-24,4,4,4,-9
-19,-14,4,17,-12,-4,14,-19,9,4,9,-4
-19,-14,4,17,-12,-4,14,-19,9,9,9,4
-24,-19,4,21,-14,-7,9,-19,9,9,9,4
-24,-24,0,24,-12,-12,9,-19,9,9,14,4
-24,-19,4,21,-14,-7,9,-19,9,9,9,4
-29,-19,9,24,-19,-4,9,-19,9,14,4,4
-29,-19,9,24,-19,-4,9,-19,14,14,4,4
-24,-19,4,21,-14,-7,9,-19,14,14,9,0
-19,-19,0,19,-9,-9,4,-24,14,14,14,0
-14,-19,-4,17,-4,-12,4,-24,9,14,14,0
-9,-19,-9,14,0,-14,4,-24,9,14,14,0
-9,-19,-9,14,0,-14,4,-24,4,14,14,0
-9,-29,-19,19,4,-24,4,-34,4,9,9,0
-14,-34,-19,24,2,-26,0,-39,4,9,4,0
-19,-34,-14,26,-2,-24,0,-43,0,9,4,4
-24,-34,-9,29,-7,-21,0,-43,0,9,0,4
-24,-34,-9,29,-7,-21,0,-48,0,4,0,4
-24,-34,-9,29,-7,-21,0,-48,-4,4,0,0
-24,-34,-9,29,-7,-21,0,-53,-4,4,4,0
-24,-39,-14,31,-4,-26,0,-53,-9,0,4,0
-24,-39,-14,31,-4,-26,-4,-53,-9,0,4,0
-29,-39,-9,34,-9,-24,-4,-63,-9,-4,4,0
-29,-43,-14,36,-7,-29,-4,-63,-14,-4,4,-4
-29,-43,-14,36,-7,-29,-4,-63,-14,-4,4,-4
-29,-39,-9,34,-9,-24,-4,-63,-14,-4,0,-9
-29,-34,-4,31,-12,-19,-4,-68,-19,-4,0,-9
-29,-34,-4,31,-12,-19,-4,-68,-24,-9,-9,-9
-29,-34,-4,31,-12,-19,-4,-73,-29,-9,-14,-9
-29,-34,-4,31,-12,-19,-4,-73,-29,-14,-14,-14
-34,-39,-4,36,-14,-21,-4,-73,-34,-14,-14,-14
-34,-39,-4,36,-14,-21,-4,-78,-29,-14,-14,-9
-34,-39,-4,36,-14,-21,-9,-78,-24,-14,-9,-4
-29,-39,-9,34,-9,-24,-9,-78,-29,-19,-9,-4
-29,-39,-9,34,-9,-24,-9,-78,-29,-19,-9,-4
-29,-39,-9,34,-9,-24,-9,-82,-29,-19,-9,-4
-29,-39,-9,34,-9,-24,-9,-82,-29,-19,-14,-4
-29,-39,-9,34,-9,-24,-9,-82,-29,-14,-14,-9
-29,-39,-9,34,-9,-24,-9,-82,-29,-14,-14,-9
-29,-39,-9,34,-9,-24,-9,-78,-34,-14,-14,-9
-29,-43,-14,36,-7,-29,-9,-73,-34,-14,-19,-9
-29,-43,-14,36,-7,-29,-14,-78,-34,-14,-19,-9
-29,-43,-14,36,-7,-29,-19,-78,-34,-14,-14,-9
-29,-43,-14,36,-7,-29,-19,-78,-34,-14,-14,-14
-29,-43,-14,36,-7,-29,-19,-78,-34,-14,-14,-19
-29,-43,-14,36,-7,-29,-19,-78,-34,-14,-14,-19
-29,-43,-14,36,-7,-29,-19,-78,-34,-19,-14,-19
-29,-43,-14,36,-7,-29,-19,-82,-34,-19,-14,-14
-29,-48,-19,39,-4,-34,-19,-87,-39,-19,-19,-14
-29,-48,-19,39,-4,-34,-14,-87,-39,-19,-19,-14
-29,-48,-19,39,-4,-34,-9,-87,-39,-19,-19,-19
-29,-48,-19,39,-4,-34,-9,-87,-39,-19,-19,-19
-29,-48,-19,39,-4,-34,-9,-87,-39,-19,-19,-19
-29,-43,-14,36,-7,-29,-4,-82,-39,-19,-14,-19
-24,-34,-9,29,-7,-21,0,-78,-34,-14,-4,-14
-24,-24,0,24,-12,-12,9,-73,-29,-9,0,-9
-14,-14,0,14,-7,-7,19,-63,-14,0,9,0
-4,-4,0,4,-2,-2,24,-58,-4,9,4,0
4,4,0,-4,2,2,34,-48,4,9,4,4
14,9,-4,-12,9,2,34,-39,0,19,14,4
19,14,-4,-17,12,4,34,-34,4,29,24,9
24,24,0,-24,12,12,24,-29,14,29,39,14
29,24,-4,-26,17,9,19,-24,14,39,43,19
39,19,-19,-29,29,0,-9,-24,19,39,43,29
39,9,-29,-24,34,-9,-19,-24,19,39,43,34
53,14,-39,-34,46,-12,-34,-34,14,39,39,34
73,39,-34,-56,53,2,-58,-43,14,39,34,39
78,73,-4,-75,41,34,-78,-58,4,39,39,48
82,92,9,-87,36,51,-78,-63,4,43,48,58
82,92,9,-87,36,51,-73,-63,4,43,48,58
78,87,9,-82,34,48,-63,-63,4,43,48,58
68,73,4,-70,31,39,-58,-68,4,29,39,48
68,73,4,-70,31,39,-58,-78,-9,19,39,43
68,68,0,-68,34,34,-73,-92,-14,14,39,43
68,43,-24,-56,46,9,-78,-97,-24,4,29,34
68,29,-39,-48,53,-4,-78,-97,-34,0,24,29
58,0,-58,-29,58,-29,-68,-97,-43,-4,19,24
24,-14,-39,-4,31,-26,-48,-97,-43,-4,14,14
-19,-14,4,17,-12,-4,-19,-92,-29,-4,14,9
-34,-14,19,24,-26,2,-19,-102,-29,-9,9,0
-39,-24,14,31,-26,-4,-19,-112,-34,-24,-9,-14
-43,-39,4,41,-24,-17,-19,-117,-48,-39,-29,-24
-43,-48,-4,46,-19,-26,-29,-131,-68,-58,-39,-34
-58,-63,-4,61,-26,-34,-29,-136,-82,-68,-53,-43
-73,-68,4,70,-39,-31,-29,-141,-87,-78,-63,-58
-78,-73,4,75,-41,-34,-29,-146,-87,-78,-63,-58
-78,-87,-9,82,-34,-48,-29,-146,-87,-78,-63,-58
-73,-87,-14,80,-29,-51,-29,-146,-87,-78,-63,-58
-73,-87,-14,80,-29,-51,-24,-141,-87,-78,-63,-58
-73,-82,-9,78,-31,-46,-24,-136,-82,-68,-63,-53
-73,-82,-9,78,-31,-46,-19,-136,-82,-63,-58,-48
-73,-73,0,73,-36,-36,-19,-131,-68,-58,-48,-39
-73,-58,14,65,-43,-21,-14,-126,-58,-53,-39,-34
-63,-43,19,53,-41,-12,-4,-87,4,29,29,-4
-29,-19,9,24,-19,-4,34,53,136,180,156,68
68,29,-39,-48,53,-4,73,268,278,366,326,195
244,136,-107,-190,175,14,117,590,527,668,595,400
439,239,-200,-339,319,19,136,868,766,932,839,580
590,326,-263,-458,427,31,102,888,868,1083,990,717
688,434,-253,-561,470,90,-24,649,761,1029,971,756
644,405,-239,-524,441,82,-141,287,414,570,556,531
429,165,-263,-297,346,-48,-287,-351,-204,-170,-136,58
136,24,-112,-80,124,-43,-414,-1068,-732,-649,-507,-204
-175,-204,-29,190,-73,-117,-414,-1439,-1117,-1005,-805,-424
-248,-409,-161,329,-43,-285,-536,-1439,-1298,-1132,-907,-512
-200,-429,-229,314,14,-329,-634,-1302,-1254,-1058,-849,-483
-97,-409,-312,253,107,-361,-629,-1083,-1083,-897,-717,-409
-53,-380,-326,217,136,-353,-468,-800,-858,-717,-585,-346
-53,-302,-248,178,97,-275,-258,-531,-590,-507,-419,-248
-39,-180,-141,109,51,-161,-122,-307,-356,-312,-263,-156
-19,-73,-53,46,17,-63,-82,-180,-209,-185,-156,-97
-19,-34,-14,26,-2,-24,-48,-102,-126,-112,-92,-63
-24,-29,-4,26,-9,-17,-9,-53,-78,-63,-48,-43
-34,-29,4,31,-19,-12,14,-34,-39,-39,-29,-24
-58,-29,29,43,-43,0,19,-24,-34,-34,-24,-19
-58,-39,19,48,-39,-9,29,-14,-29,-34,-24,-24
-53,-39,14,46,-34,-12,39,9,-14,-19,-19,-24
-53,-39,14,46,-34,-12,48,14,4,-4,-9,-24
-53,-39,14,46,-34,-12,53,19,9,4,-9,-24
-58,-34,24,46,-41,-4,53,29,9,4,-9,-24
-63,-34,29,48,-46,-2,58,39,19,9,-4,-19
-58,-34,24,46,-41,-4,63,53,34,14,4,-14
-58,-34,24,46,-41,-4,63,53,39,24,14,-4
-58,-34,24,46,-41,-4,68,63,39,29,19,0
-58,-29,29,43,-43,0,68,68,43,34,19,0
-53,-24,29,39,-41,2,68,68,48,34,19,0
-53,-24,29,39,-41,2,73,73,48,39,19,-4
-53,-24,29,39,-41,2,73,82,53,39,19,-4
-53,-24,29,39,-41,2,78,92,58,43,24,-4
-53,-24,29,39,-41,2,78,97,58,48,24,0
-48,-19,29,34,-39,4,78,97,63,48,29,0
-48,-19,29,34,-39,4,78,102,68,53,29,0
-43,-19,24,31,-34,2,82,112,73,53,34,0
-43,-14,29,29,-36,7,82,117,78,58,34,4
-39,-14,24,26,-31,4,82,126,78,63,39,4
-34,-14,19,24,-26,2,82,136,82,68,39,9
-34,-14,19,24,-26,2,87,141,87,73,43,9
-34,-14,19,24,-26,2,87,151,92,73,43,9
-34,-9,24,21,-29,7,87,161,97,73,48,9
-29,-9,19,19,-24,4,87,161,97,78,48,4
-24,-4,19,14,-21,7,92,165,102,78,48,4
-19,-4,14,12,-17,4,92,170,107,73,48,9
-14,-4,9,9,-12,2,92,180,107,73,48,9
-9,4,14,2,-12,9,92,190,117,78,48,14
-9,9,19,0,-14,14,92,195,117,78,48,19
-4,14,19,-4,-12,17,97,214,122,82,48,24
0,19,19,-9,-9,19,97,229,126,87,53,24
0,19,19,-9,-9,19,97,239,126,92,63,29
4,19,14,-12,-4,17,92,248,126,97,63,29
4,19,14,-12,-4,17,92,258,126,97,63,29
4,19,14,-12,-4,17,92,263,131,97,58,29
9,24,14,-17,-2,19,92,273,131,97,58,29
14,29,14,-21,0,21,92,283,131,97,53,29
19,39,19,-29,0,29,92,297,131,92,53,29
19,43,24,-31,-2,34,97,307,131,92,53,29
24,43,19,-34,2,31,92,312,131,87,53,24
29,48,19,-39,4,34,87,322,131,82,53,19
29,53,24,-41,2,39,92,331,131,78,48,19
34,58,24,-46,4,41,92,341,131,68,43,19
39,68,29,-53,4,48,87,341,126,63,39,19
43,73,29,-58,7,51,87,341,122,58,29,14
43,78,34,-61,4,56,82,341,112,48,24,4
48,78,29,-63,9,53,78,346,102,43,14,0
48,82,34,-65,7,58,73,346,92,34,4,0
48,82,34,-65,7,58,73,341,78,19,0,0
48,87,39,-68,4,63,63,326,68,4,-9,-9
48,87,39,-68,4,63,53,317,58,-9,-19,-19
48,87,39,-68,4,63,43,302,43,-19,-29,-19
48,87,39,-68,4,63,39,287,29,-39,-39,-24
43,87,43,-65,0,65,29,263,19,-43,-43,-24
43,87,43,-65,0,65,14,244,0,-53,-58,-19
43,87,43,-65,0,65,4,219,-9,-63,-68,-24
43,87,43,-65,0,65,-4,190,-19,-73,-68,-24
43,73,29,-58,7,51,-14,161,-29,-73,-68,-24
43,63,19,-53,12,41,-19,131,-34,-73,-68,-24
43,48,4,-46,19,26,-29,107,-34,-73,-63,-24
43,43,0,-43,21,21,-29,87,-34,-63,-53,-24
43,43,0,-43,21,21,-29,68,-24,-58,-43,-19
39,43,4,-41,17,24,-29,48,-19,-48,-39,-19
34,34,0,-34,17,17,-24,34,-19,-43,-29,-14
24,24,0,-24,12,12,-19,9,-14,-34,-24,-14
24,19,-4,-21,14,7,-19,-4,-14,-24,-19,-14
14,14,0,-14,7,7,-19,-14,-9,-19,-9,-14
14,9,-4,-12,9,2,-19,-19,-9,-19,-9,-9
4,4,0,-4,2,2,-14,-24,-9,-14,-4,-4
0,0,0,0,0,0,-9,-34,-9,-9,-4,-4
-9,-4,4,7,-7,0,-4,-39,-4,-4,-4,-9
-9,-19,-9,14,0,-14,0,-43,-4,-4,-9,-14
-14,-19,-4,17,-4,-12,0,-48,-4,-4,-9,-24
-14,-19,-4,17,-4,-12,0,-48,-9,-9,-9,-24
-14,-19,-4,17,-4,-12,0,-53,-9,-14,-9,-24
-14,-19,-4,17,-4,-12,0,-53,-9,-14,-9,-24
-14,-24,-9,19,-2,-17,0,-53,-9,-19,-14,-24
-14,-24,-9,19,-2,-17,0,-53,-9,-19,-19,-24
-14,-24,-9,19,-2,-17,0,-53,-9,-19,-19,-24
-19,-24,-4,21,-7,-14,0,-53,-9,-19,-19,-24
-19,-29,-9,24,-4,-19,-4,-53,-9,-19,-19,-24
-19,-29,-9,24,-4,-19,-4,-48,-9,-19,-19,-19
-19,-29,-9,24,-4,-19,-4,-48,-9,-19,-24,-19
-19,-34,-14,26,-2,-24,-4,-48,-4,-14,-19,-19
-19,-34,-14,26,-2,-24,0,-43,-4,-4,-14,-19
-19,-34,-14,26,-2,-24,0,-43,-4,0,-9,-14
-14,-34,-19,24,2,-26,0,-43,-4,0,-4,-14
-14,-34,-19,24,2,-26,0,-39,0,0,-4,-14
-14,-34,-19,24,2,-26,0,-39,0,0,-4,-14
-14,-34,-19,24,2,-26,4,-34,4,4,-4,-14
-19,-34,-14,26,-2,-24,4,-34,4,4,-4,-19
-19,-34,-14,26,-2,-24,4,-29,9,4,0,-19
-19,-34,-14,26,-2,-24,4,-29,9,9,0,-14
-19,-34,-14,26,-2,-24,0,-29,9,9,0,-14
-14,-34,-19,24,2,-26,0,-29,9,9,4,-14
-14,-34,-19,24,2,-26,0,-29,9,4,4,-14
-19,-39,-19,29,0,-29,0,-29,9,4,4,-14
-19,-39,-19,29,0,-29,0,-29,14,4,0,-14
-14,-39,-24,26,4,-31,0,-29,14,4,0,-19
-14,-39,-24,26,4,-31,-4,-34,14,4,0,-19
-14,-39,-24,26,4,-31,-4,-34,9,4,-4,-19
-14,-39,-24,26,4,-31,-4,-34,9,9,-4,-19
-19,-39,-19,29,0,-29,-4,-34,4,14,-4,-19
-19,-43,-24,31,2,-34,-4,-39,4,9,-4,-19
-24,-43,-19,34,-2,-31,-9,-39,4,9,-4,-19
-24,-43,-19,34,-2,-31,-9,-43,0,4,-4,-14
-24,-43,-19,34,-2,-31,-9,-43,0,0,-9,-14
-24,-43,-19,34,-2,-31,-9,-48,0,-4,-9,-14
-24,-43,-19,34,-2,-31,-9,-48,-4,-4,-9,-19
-24,-48,-24,36,0,-36,-9,-53,-4,-4,-9,-19
-24,-58,-34,41,4,-46,-9,-53,-9,-9,-14,-19
-24,-58,-34,41,4,-46,-14,-53,-9,-9,-14,-19
-29,-58,-29,43,0,-43,-14,-63,-9,-14,-14,-19
-29,-58,-29,43,0,-43,-14,-63,-14,-14,-14,-24
-29,-53,-24,41,-2,-39,-14,-63,-14,-14,-14,-24
-29,-53,-24,41,-2,-39,-14,-63,-14,-14,-19,-29
-29,-53,-24,41,-2,-39,-14,-68,-19,-14,-19,-29
-34,-53,-19,43,-7,-36,-14,-68,-19,-19,-24,-24
-39,-53,-14,46,-12,-34,-14,-73,-19,-19,-24,-19
-39,-53,-14,46,-12,-34,-14,-73,-19,-24,-19,-24
-43,-58,-14,51,-14,-36,-14,-73,-24,-24,-14,-24
-39,-58,-19,48,-9,-39,-14,-78,-24,-24,-19,-29
-34,-58,-24,46,-4,-41,-19,-78,-24,-24,-19,-34
-34,-58,-24,46,-4,-41,-19,-78,-29,-29,-24,-34
-39,-58,-19,48,-9,-39,-19,-78,-29,-29,-29,-34
-39,-58,-19,48,-9,-39,-19,-82,-34,-34,-29,-34
-39,-58,-19,48,-9,-39,-19,-82,-39,-39,-34,-34
-39,-58,-19,48,-9,-39,-19,-82,-39,-39,-34,-39
-39,-58,-19,48,-9,-39,-19,-82,-39,-43,-34,-39
-39,-53,-14,46,-12,-34,-19,-82,-43,-39,-29,-39
-39,-53,-14,46,-12,-34,-19,-82,-43,-34,-29,-39
-34,-53,-19,43,-7,-36,-19,-87,-43,-34,-29,-39
-29,-53,-24,41,-2,-39,-19,-87,-43,-34,-24,-39
-29,-58,-29,43,0,-43,-19,-87,-39,-34,-24,-39
-29,-63,-34,46,2,-48,-19,-87,-34,-34,-24,-39
-34,-63,-29,48,-2,-46,-14,-87,-34,-29,-24,-39
-39,-63,-24,51,-7,-43,-9,-87,-34,-29,-24,-39
-39,-63,-24,51,-7,-43,-9,-87,-34,-29,-24,-39
-39,-68,-29,53,-4,-48,-9,-87,-39,-29,-29,-43
-39,-68,-29,53,-4,-48,-9,-87,-39,-34,-34,-43
-39,-68,-29,53,-4,-48,-14,-87,-39,-39,-39,-48
-39,-63,-24,51,-7,-43,-9,-87,-39,-39,-39,-43
-39,-58,-19,48,-9,-39,-9,-87,-39,-39,-39,-39
-34,-58,-24,46,-4,-41,-9,-87,-39,-39,-39,-39
-29,-58,-29,43,0,-43,-9,-87,-39,-39,-39,-39
-29,-63,-34,46,2,-48,0,-82,-34,-29,-29,-34
-29,-58,-29,43,0,-43,9,-73,-24,-19,-19,-24
-29,-53,-24,41,-2,-39,19,-63,-14,-9,-9,-19
-24,-39,-14,31,-4,-26,24,-58,-4,0,-9,-19
-14,-19,-4,17,-4,-12,34,-53,4,0,-4,-14
-4,-9,-4,7,0,-7,34,-48,4,9,4,-9
4,-4,-9,0,7,-7,34,-43,14,19,9,0
19,4,-14,-12,17,-4,24,-39,24,19,14,4
29,4,-24,-17,26,-9,19,-29,24,24,14,9
39,0,-39,-19,39,-19,-9,-24,24,19,14,14
39,-9,-48,-14,43,-29,-19,-24,19,19,14,19
43,-9,-53,-17,48,-31,-29,-34,14,19,14,24
48,4,-43,-26,46,-19,-48,-43,14,24,24,29
58,34,-24,-46,41,4,-68,-58,4,29,39,39
73,53,-19,-63,46,17,-68,-63,4,34,48,43
73,53,-19,-63,46,17,-68,-63,4,34,48,39
73,58,-14,-65,43,21,-63,-63,4,34,43,39
68,53,-14,-61,41,19,-58,-68,4,24,29,34
68,53,-14,-61,41,19,-58,-78,-4,19,29,34
68,48,-19,-58,43,14,-73,-92,-4,14,29,34
68,24,-43,-46,56,-9,-78,-97,-14,4,19,24
68,9,-58,-39,63,-24,-78,-97,-24,-4,9,14
68,-19,-87,-24,78,-53,-68,-97,-34,-14,0,4
39,-34,-73,-2,56,-53,-48,-92,-34,-14,-4,-4
-19,-34,-14,26,-2,-24,-19,-82,-24,-14,-4,-9
-43,-34,9,39,-26,-12,-19,-92,-29,-14,-4,-14
-48,-43,4,46,-26,-19,-19,-102,-34,-24,-19,-24
-53,-58,-4,56,-24,-31,-19,-107,-48,-39,-39,-34
-53,-73,-19,63,-17,-46,-34,-122,-68,-58,-48,-43
-58,-92,-34,75,-12,-63,-39,-131,-82,-68,-63,-53
-63,-97,-34,80,-14,-65,-39,-141,-87,-82,-73,-68
-68,-97,-29,82,-19,-63,-39,-146,-87,-87,-73,-68
-63,-102,-39,82,-12,-70,-39,-146,-87,-87,-73,-68
-58,-97,-39,78,-9,-68,-39,-146,-87,-87,-73,-68
-63,-97,-34,80,-14,-65,-29,-141,-87,-87,-73,-68
-63,-92,-29,78,-17,-61,-24,-136,-82,-82,-73,-68
-63,-92,-29,78,-17,-61,-19,-136,-82,-82,-73,-73
-68,-92,-24,80,-21,-58,-19,-136,-78,-82,-78,-73
-82,-92,-9,87,-36,-51,-19,-156,-92,-97,-82,-78
-92,-82,9,87,-51,-36,-14,-161,-68,-63,-48,-68
-87,-63,24,75,-56,-19,24,-73,19,34,24,-29
-9,-19,-9,14,0,-14,63,122,156,209,180,78
165,87,-78,-126,122,4,117,488,448,551,483,297
361,180,-180,-270,270,0,156,839,736,873,771,497
541,278,-263,-409,402,7,131,951,922,1146,1024,692
712,434,-278,-573,495,78,-9,805,917,1249,1151,839
756,458,-297,-607,527,80,-146,546,634,863,810,692
605,219,-385,-412,495,-82,-317,-48,0,87,87,224
322,34,-287,-178,305,-126,-473,-868,-649,-522,-400,-107
-39,-204,-165,122,63,-185,-483,-1390,-1137,-985,-790,-385
-180,-414,-234,297,26,-324,-605,-1498,-1366,-1166,-927,-502
-165,-448,-283,307,58,-366,-688,-1381,-1342,-1127,-888,-492
-68,-434,-366,251,148,-400,-678,-1141,-1161,-966,-766,-419
-24,-409,-385,217,180,-397,-522,-849,-932,-785,-644,-361
-29,-331,-302,180,136,-317,-297,-561,-639,-561,-463,-268
-29,-219,-190,124,80,-204,-146,-326,-385,-351,-292,-175
-24,-112,-87,68,31,-100,-92,-200,-234,-214,-180,-112
-29,-53,-24,41,-2,-39,-48,-122,-141,-131,-117,-73
-34,-39,-4,36,-14,-21,-9,-68,-87,-78,-73,-53
-39,-39,0,39,-19,-19,14,-43,-48,-48,-48,-39
-58,-39,19,48,-39,-9,19,-34,-43,-43,-43,-39
-58,-48,9,53,-34,-19,29,-24,-39,-43,-43,-43
-53,-48,4,51,-29,-21,39,0,-19,-29,-39,-43
-53,-43,9,48,-31,-17,48,4,4,-14,-24,-39
-53,-39,14,46,-34,-12,53,9,9,-4,-14,-34
-53,-34,19,43,-36,-7,53,19,9,-4,-9,-34
-53,-39,14,46,-34,-12,58,29,19,0,-4,-29
-48,-43,4,46,-26,-19,63,43,34,4,0,-29
-48,-43,4,46,-26,-19,63,43,39,9,0,-24
-48,-43,4,46,-26,-19,68,53,39,9,0,-19
-53,-39,14,46,-34,-12,68,58,43,14,0,-19
-53,-34,19,43,-36,-7,68,58,48,14,4,-14
-53,-34,19,43,-36,-7,73,68,53,24,9,-14
-53,-34,19,43,-36,-7,73,82,63,29,9,-14
-53,-34,19,43,-36,-7,78,92,68,34,14,-9
-53,-34,19,43,-36,-7,78,97,68,39,14,0
-48,-29,19,39,-34,-4,78,97,73,39,19,0
-48,-29,19,39,-34,-4,78,102,78,43,19,0
-43,-29,14,36,-29,-7,82,112,82,43,24,0
-43,-24,19,34,-31,-2,82,117,87,48,24,4
-39,-24,14,31,-26,-4,82,126,87,53,29,0
-34,-19,14,26,-24,-2,82,136,92,58,29,0
-34,-14,19,24,-26,2,87,136,97,63,39,0
-34,-14,19,24,-26,2,87,141,102,63,43,0
-34,-9,24,21,-29,7,87,151,107,63,48,0
-29,-9,19,19,-24,4,87,156,107,68,48,0
-24,-4,19,14,-21,7,92,170,112,68,48,4
-24,-4,19,14,-21,7,92,180,117,68,53,9
-24,-4,19,14,-21,7,97,190,117,73,58,14
