I,II,III,aVR,aVL,aVF,V1,V2,V3,V4,V5,V6,
-78,-68,9,73,-43,-29,0,-97,-156,-165,-156,-117
-78,-68,9,73,-43,-29,0,-102,-161,-165,-156,-117
-78,-68,9,73,-43,-29,0,-107,-165,-165,-156,-117
-82,-68,14,75,-48,-26,0,-107,-165,-165,-156,-117
-87,-68,19,78,-53,-24,0,-107,-165,-165,-156,-117
-87,-68,19,78,-53,-24,0,-107,-165,-170,-156,-122
-87,-68,19,78,-53,-24,0,-107,-165,-175,-156,-126
-87,-68,19,78,-53,-24,0,-107,-170,-175,-156,-126
-87,-68,19,78,-53,-24,0,-107,-175,-175,-156,-126
-87,-68,19,78,-53,-24,0,-107,-175,-175,-156,-126
-87,-58,29,73,-58,-14,0,-107,-170,-175,-156,-126
-87,-53,34,70,-61,-9,-4,-112,-170,-175,-156,-126
-78,-39,39,58,-58,0,-19,-112,-151,-165,-146,-117
-68,-9,58,39,-63,24,-19,-112,-141,-146,-131,-102
-53,4,58,24,-56,31,-14,-107,-126,-136,-122,-92
-43,19,63,12,-53,41,-9,-102,-117,-122,-102,-78
-43,29,73,7,-58,51,-9,-92,-102,-107,-92,-68
-39,34,73,2,-56,53,-9,-92,-102,-102,-92,-63
-39,34,73,2,-56,53,-14,-92,-97,-97,-87,-63
-39,34,73,2,-56,53,-29,-102,-92,-97,-87,-63
-19,48,68,-14,-43,58,-43,-107,-87,-87,-78,-53
0,63,63,-31,-31,63,-58,-112,-82,-82,-68,-48
9,73,63,-41,-26,68,-63,-112,-82,-82,-68,-43
14,73,58,-43,-21,65,-73,-112,-87,-82,-68,-39
14,78,63,-46,-24,70,-82,-122,-92,-82,-68,-39
29,82,53,-56,-12,68,-82,-126,-102,-82,-63,-29
29,82,53,-56,-12,68,-82,-126,-112,-92,-63,-29
39,78,39,-58,0,58,-82,-122,-122,-92,-63,-19
34,68,34,-51,0,51,-78,-117,-126,-97,-68,-14
19,58,39,-39,-9,48,-68,-122,-141,-112,-73,-24
-9,48,58,-19,-34,53,-58,-126,-141,-112,-73,-34
-34,29,63,2,-48,46,-43,-131,-146,-122,-87,-48
-58,4,63,26,-61,34,-19,-131,-151,-136,-107,-68
-73,-29,43,51,-58,7,-4,-122,-156,-146,-122,-87
-82,-39,43,61,-63,2,0,-117,-170,-156,-146,-107
-87,-53,34,70,-61,-9,-4,-117,-175,-170,-156,-117
-97,-63,34,80,-65,-14,-4,-122,-190,-190,-170,-136
-97,-82,14,90,-56,-34,-4,-131,-209,-214,-185,-146
-97,-82,14,90,-56,-34,-4,-131,-209,-214,-185,-141
-112,-87,24,100,-68,-31,0,-126,-209,-209,-185,-141
-112,-92,19,102,-65,-36,9,-126,-214,-209,-185,-146
-112,-92,19,102,-65,-36,9,-131,-214,-214,-195,-146
-112,-97,14,104,-63,-41,9,-131,-214,-214,-195,-151
-117,-97,19,107,-68,-39,14,-131,-214,-219,-195,-156
-122,-107,14,114,-68,-46,19,-131,-214,-224,-195,-165
-122,-107,14,114,-68,-46,19,-131,-214,-224,-195,-165
-126,-107,19,117,-73,-43,19,-136,-214,-229,-200,-165
-126,-107,19,117,-73,-43,19,-136,-214,-229,-204,-170
-131,-112,19,122,-75,-46,19,-136,-214,-229,-209,-170
-141,-117,24,129,-82,-46,39,-122,-209,-234,-224,-180
-170,-122,48,146,-109,-36,73,-107,-190,-244,-253,-214
-209,-136,73,173,-141,-31,126,-87,-161,-248,-292,-263
-219,-136,82,178,-151,-26,161,-73,-131,-244,-287,-273
-204,-141,63,173,-134,-39,180,-24,-107,-209,-258,-244
-112,-136,-24,124,-43,-80,180,112,-4,-82,-122,-131
53,-82,-136,14,95,-109,112,229,141,131,117,87
268,92,-175,-180,222,-41,-53,258,302,414,453,395
507,346,-161,-427,334,92,-307,214,439,746,858,756
780,634,-146,-707,463,244,-614,97,570,1127,1332,1185
980,878,-102,-929,541,387,-829,0,697,1488,1732,1542
1151,976,-175,-1063,663,400,-941,-63,819,1805,2059,1825
1224,951,-273,-1088,749,339,-941,-97,897,2039,2269,1976
1151,854,-297,-1002,724,278,-868,-175,790,1991,2200,1898
951,658,-292,-805,622,183,-688,-209,614,1717,1912,1649
741,346,-395,-544,568,-24,-453,-107,414,1263,1434,1234
478,92,-385,-285,431,-146,-258,-82,136,629,775,683
200,-82,-283,-58,241,-183,-102,-92,-107,122,185,165
14,-122,-136,53,75,-129,24,-63,-107,0,19,14
-34,-122,-87,78,26,-104,58,-53,-97,-24,0,0
-39,-107,-68,73,14,-87,58,-29,-58,-24,-4,-4
-43,-68,-24,56,-9,-46,34,-14,-43,-29,-14,-14
-43,-68,-24,56,-9,-46,34,-14,-43,-34,-34,-29
-48,-87,-39,68,-4,-63,34,-14,-63,-63,-58,-53
-73,-97,-24,85,-24,-61,53,-19,-87,-97,-97,-82
-92,-92,0,92,-46,-46,63,-24,-97,-131,-131,-112
-97,-97,0,97,-48,-48,63,-24,-97,-136,-136,-117
-102,-107,-4,104,-48,-56,63,-24,-97,-136,-141,-131
-107,-107,0,107,-53,-53,68,-24,-102,-146,-156,-141
-112,-107,4,109,-58,-51,73,-24,-107,-151,-165,-146
-112,-102,9,107,-61,-46,68,-24,-107,-151,-165,-146
-112,-102,9,107,-61,-46,63,-14,-102,-151,-165,-141
-112,-102,9,107,-61,-46,68,-9,-102,-146,-156,-141
-107,-102,4,104,-56,-48,68,-4,-97,-146,-151,-141
-107,-102,4,104,-56,-48,68,-4,-97,-146,-151,-136
-107,-97,9,102,-58,-43,68,4,-92,-141,-151,-131
-102,-97,4,100,-53,-46,68,9,-82,-136,-146,-126
-102,-92,9,97,-56,-41,68,14,-73,-131,-141,-126
-92,-92,0,92,-46,-46,68,24,-68,-126,-136,-126
-82,-87,-4,85,-39,-46,68,29,-63,-122,-136,-131
-82,-87,-4,85,-39,-46,68,29,-53,-117,-131,-126
-78,-82,-4,80,-36,-43,68,43,-48,-117,-131,-122
-78,-82,-4,80,-36,-43,68,48,-39,-112,-126,-122
-73,-78,-4,75,-34,-41,68,58,-29,-102,-122,-117
-78,-73,4,75,-41,-34,68,68,-14,-92,-112,-107
-78,-73,4,75,-41,-34,68,73,-4,-78,-102,-102
-73,-68,4,70,-39,-31,68,82,4,-68,-92,-97
-68,-63,4,65,-36,-29,73,97,19,-53,-87,-92
-68,-63,4,65,-36,-29,73,112,34,-53,-82,-92
-63,-58,4,61,-34,-26,78,126,53,-48,-82,-92
-58,-53,4,56,-31,-24,78,131,68,-39,-73,-87
-48,-58,-9,53,-19,-34,82,146,78,-24,-63,-78
-43,-48,-4,46,-19,-26,87,170,102,-14,-58,-68
-39,-43,-4,41,-17,-24,92,185,126,0,-48,-68
-34,-34,0,34,-17,-17,92,204,146,24,-39,-63
-29,-29,0,29,-14,-14,97,224,170,39,-24,-58
-24,-24,0,24,-12,-12,102,244,190,53,-14,-48
-19,-14,4,17,-12,-4,107,268,214,68,-4,-43
-9,-9,0,9,-4,-4,117,287,239,82,0,-39
-9,0,9,4,-9,4,122,307,263,102,14,-34
4,4,0,-4,2,2,126,326,287,122,24,-19
14,9,-4,-12,9,2,131,341,307,136,34,-9
19,14,-4,-17,12,4,131,361,331,156,43,0
24,19,-4,-21,14,7,136,380,356,165,53,0
24,29,4,-26,9,17,141,400,375,180,68,4
29,34,4,-31,12,19,146,409,395,195,78,9
29,39,9,-34,9,24,151,419,419,204,87,19
34,43,9,-39,12,26,151,429,434,219,92,24
39,48,9,-43,14,29,151,439,444,234,102,34
39,53,14,-46,12,34,151,439,458,239,112,43
43,68,24,-56,9,46,146,434,463,244,117,43
48,82,34,-65,7,58,131,414,463,253,122,48
48,87,39,-68,4,63,117,395,463,263,131,58
48,92,43,-70,2,68,102,361,448,263,141,63
48,97,48,-73,0,73,87,331,429,263,141,73
43,97,53,-70,-4,75,78,297,395,258,146,73
43,97,53,-70,-4,75,68,258,356,239,146,73
34,92,58,-63,-12,75,58,209,322,214,136,73
29,78,48,-53,-9,63,43,180,283,185,117,63
19,63,43,-41,-12,53,34,146,229,161,102,53
9,58,48,-34,-19,53,29,107,190,136,82,43
0,43,43,-21,-21,43,24,68,146,107,68,29
-4,39,43,-17,-24,41,19,43,112,73,39,14
-14,24,39,-4,-26,31,9,19,73,39,14,4
-24,14,39,4,-31,26,4,-4,34,14,0,-14
-34,0,34,17,-34,17,0,-24,0,-9,-24,-24
-39,-9,29,24,-34,9,-4,-43,-24,-29,-34,-39
-39,-19,19,29,-29,0,-4,-58,-43,-53,-48,-48
-43,-24,19,34,-31,-2,-4,-63,-68,-68,-58,-58
-53,-34,19,43,-36,-7,-4,-73,-78,-78,-68,-68
-58,-34,24,46,-41,-4,-4,-82,-87,-87,-82,-73
-68,-43,24,56,-46,-9,-4,-82,-97,-102,-97,-73
-68,-43,24,56,-46,-9,-9,-87,-107,-112,-102,-87
-68,-43,24,56,-46,-9,-9,-87,-107,-117,-102,-87
-63,-43,19,53,-41,-12,-9,-92,-117,-122,-102,-87
-58,-48,9,53,-34,-19,-9,-97,-122,-126,-102,-87
-63,-48,14,56,-39,-17,-9,-97,-122,-122,-102,-87
-63,-48,14,56,-39,-17,-9,-92,-122,-117,-107,-87
-63,-48,14,56,-39,-17,-4,-92,-117,-122,-107,-87
-63,-48,14,56,-39,-17,0,-92,-117,-122,-107,-87
-63,-53,9,58,-36,-21,0,-92,-117,-122,-107,-92
-63,-58,4,61,-34,-26,0,-92,-117,-122,-107,-92
-68,-58,9,63,-39,-24,-4,-87,-117,-126,-107,-92
-73,-58,14,65,-43,-21,-9,-87,-117,-126,-107,-92
-73,-53,19,63,-46,-17,-9,-87,-117,-126,-107,-92
-73,-48,24,61,-48,-12,-4,-87,-117,-126,-107,-92
-68,-43,24,56,-46,-9,-4,-87,-122,-126,-102,-92
-63,-43,19,53,-41,-12,-4,-87,-122,-126,-102,-87
-63,-43,19,53,-41,-12,0,-82,-122,-126,-97,-87
-63,-39,24,51,-43,-7,0,-82,-117,-126,-97,-87
-68,-39,29,53,-48,-4,0,-87,-117,-122,-102,-87
-73,-39,34,56,-53,-2,4,-87,-117,-117,-102,-87
-73,-48,24,61,-48,-12,4,-82,-117,-117,-102,-87
-73,-53,19,63,-46,-17,4,-82,-117,-117,-102,-87
-68,-53,14,61,-41,-19,4,-82,-117,-117,-102,-82
-63,-53,9,58,-36,-21,4,-82,-117,-117,-102,-78
-63,-48,14,56,-39,-17,4,-87,-117,-117,-102,-78
-63,-48,14,56,-39,-17,4,-92,-117,-117,-97,-78
-68,-53,14,61,-41,-19,4,-92,-117,-117,-97,-78
-73,-58,14,65,-43,-21,4,-92,-122,-117,-92,-78
-73,-58,14,65,-43,-21,4,-92,-122,-117,-92,-82
-73,-58,14,65,-43,-21,4,-97,-122,-117,-92,-87
-73,-53,19,63,-46,-17,4,-97,-122,-117,-97,-87
-78,-53,24,65,-51,-14,4,-97,-122,-117,-97,-87
-73,-53,19,63,-46,-17,4,-92,-122,-122,-97,-87
-68,-53,14,61,-41,-19,4,-87,-126,-122,-97,-87
-68,-53,14,61,-41,-19,4,-87,-126,-126,-102,-87
-68,-58,9,63,-39,-24,4,-92,-131,-131,-102,-87
-68,-63,4,65,-36,-29,0,-92,-131,-136,-112,-92
-68,-63,4,65,-36,-29,-4,-92,-136,-141,-117,-92
-68,-58,9,63,-39,-24,0,-92,-141,-141,-117,-92
-73,-58,14,65,-43,-21,0,-97,-141,-146,-122,-92
-73,-58,14,65,-43,-21,4,-97,-141,-146,-122,-97
-73,-58,14,65,-43,-21,4,-97,-141,-141,-126,-97
-73,-63,9,68,-41,-26,4,-97,-141,-146,-126,-102
-73,-63,9,68,-41,-26,4,-102,-146,-146,-126,-102
-78,-63,14,70,-46,-24,4,-102,-146,-146,-126,-102
-78,-63,14,70,-46,-24,4,-102,-151,-146,-131,-102
-78,-63,14,70,-46,-24,4,-107,-156,-156,-131,-102
-78,-63,14,70,-46,-24,4,-112,-156,-161,-136,-102
-78,-68,9,73,-43,-29,4,-112,-156,-161,-136,-107
-78,-73,4,75,-41,-34,4,-112,-161,-161,-136,-107
-78,-73,4,75,-41,-34,4,-117,-161,-165,-136,-107
-78,-73,4,75,-41,-34,4,-117,-161,-165,-141,-107
-78,-68,9,73,-43,-29,4,-117,-161,-165,-141,-107
-78,-68,9,73,-43,-29,9,-117,-165,-165,-146,-112
-78,-68,9,73,-43,-29,9,-117,-165,-165,-146,-112
-78,-68,9,73,-43,-29,9,-117,-165,-165,-146,-117
-78,-63,14,70,-46,-24,9,-112,-161,-161,-141,-117
-78,-58,19,68,-48,-19,9,-107,-156,-156,-136,-117
-78,-53,24,65,-51,-14,9,-107,-156,-156,-131,-117
-73,-43,29,58,-51,-7,0,-107,-146,-151,-122,-112
-68,-34,34,51,-51,0,-9,-112,-141,-146,-117,-107
-63,-9,53,36,-58,21,-9,-112,-131,-126,-102,-92
-58,4,63,26,-61,34,-4,-107,-117,-117,-92,-82
-53,19,73,17,-63,46,0,-102,-107,-107,-78,-73
-53,34,87,9,-70,61,0,-92,-92,-97,-78,-68
-48,43,92,2,-70,68,0,-92,-92,-92,-82,-63
-43,43,87,0,-65,65,-4,-97,-87,-92,-78,-63
-39,43,82,-2,-61,63,-19,-107,-82,-97,-78,-63
-19,58,78,-19,-48,68,-34,-107,-78,-87,-68,-53
0,68,68,-34,-34,68,-53,-112,-73,-78,-53,-43
9,68,58,-39,-24,63,-63,-107,-73,-73,-48,-34
14,63,48,-39,-17,56,-73,-102,-78,-73,-48,-29
14,68,53,-41,-19,61,-87,-112,-87,-73,-53,-29
29,73,43,-51,-7,58,-92,-117,-102,-78,-53,-19
29,73,43,-51,-7,58,-92,-117,-112,-92,-53,-19
43,73,29,-58,7,51,-92,-117,-122,-92,-53,-14
43,68,24,-56,9,46,-87,-117,-126,-97,-58,-14
29,58,29,-43,0,43,-78,-122,-141,-112,-68,-24
0,48,48,-24,-24,48,-68,-126,-141,-112,-73,-34
-29,29,58,0,-43,43,-53,-131,-146,-122,-87,-48
-58,4,63,26,-61,34,-29,-131,-151,-136,-107,-68
-73,-29,43,51,-58,7,-14,-126,-156,-146,-117,-82
-82,-39,43,61,-63,2,-9,-126,-170,-156,-136,-97
-87,-58,29,73,-58,-14,-9,-126,-175,-170,-146,-107
-97,-73,24,85,-61,-24,-4,-131,-190,-190,-161,-126
-97,-92,4,95,-51,-43,-4,-141,-209,-214,-180,-141
-97,-92,4,95,-51,-43,0,-141,-209,-214,-180,-141
-112,-92,19,102,-65,-36,4,-136,-209,-209,-175,-141
-112,-92,19,102,-65,-36,9,-136,-214,-209,-175,-146
-112,-92,19,102,-65,-36,9,-141,-214,-214,-185,-146
-112,-97,14,104,-63,-41,9,-141,-209,-214,-190,-151
-117,-97,19,107,-68,-39,14,-141,-204,-214,-195,-151
-122,-107,14,114,-68,-46,19,-141,-204,-214,-195,-156
-122,-107,14,114,-68,-46,24,-136,-204,-214,-195,-156
-126,-107,19,117,-73,-43,29,-136,-209,-219,-200,-156
-126,-107,19,117,-73,-43,29,-136,-214,-219,-200,-161
-131,-112,19,122,-75,-46,29,-141,-214,-219,-200,-161
-141,-117,24,129,-82,-46,43,-141,-214,-229,-214,-170
-170,-122,48,146,-109,-36,73,-136,-204,-248,-248,-204
-214,-136,78,175,-146,-29,126,-117,-185,-263,-297,-253
-229,-136,92,183,-161,-21,161,-102,-161,-273,-297,-263
-214,-146,68,180,-141,-39,180,-48,-141,-263,-287,-248
-112,-146,-34,129,-39,-90,170,92,-43,-141,-165,-151
73,-92,-165,9,119,-129,92,224,102,78,68,48
302,92,-209,-197,256,-58,-87,268,263,361,395,331
556,356,-200,-456,378,78,-356,234,409,683,780,678
839,634,-204,-736,522,214,-649,141,566,1049,1224,1088
1054,868,-185,-961,619,341,-858,48,707,1405,1615,1434
1239,946,-292,-1093,766,326,-976,-9,805,1688,1912,1698
1332,902,-429,-1117,880,236,-980,-43,858,1893,2103,1839
1273,795,-478,-1034,875,158,-917,-151,761,1844,2044,1771
1054,595,-458,-824,756,68,-736,-209,595,1595,1790,1551
829,317,-512,-573,671,-97,-512,-117,400,1176,1366,1185
546,97,-448,-322,497,-175,-312,-82,131,566,732,663
244,-68,-312,-87,278,-190,-131,-82,-82,102,175,170
43,-102,-146,29,95,-124,9,-48,-58,14,39,24
-14,-102,-87,58,36,-95,48,-43,-58,-4,19,0
-19,-87,-68,53,24,-78,48,-29,-29,-4,14,-4
-34,-53,-19,43,-7,-36,29,-14,-24,-19,-4,-19
-48,-58,-9,53,-19,-34,34,-14,-34,-34,-34,-39
-58,-78,-19,68,-19,-48,34,-19,-53,-63,-58,-63
-82,-92,-9,87,-36,-51,53,-29,-78,-97,-97,-92
-97,-87,9,92,-53,-39,63,-34,-87,-131,-126,-117
-97,-87,9,92,-53,-39,63,-34,-87,-136,-126,-112
-102,-97,4,100,-53,-46,63,-29,-87,-136,-131,-122
-107,-97,9,102,-58,-43,68,-24,-92,-146,-141,-131
-112,-97,14,104,-63,-41,73,-24,-102,-151,-151,-136
-112,-92,19,102,-65,-36,73,-24,-107,-151,-156,-136
-112,-92,19,102,-65,-36,73,-14,-102,-151,-156,-136
-112,-92,19,102,-65,-36,78,-9,-102,-146,-151,-141
-112,-92,19,102,-65,-36,78,-4,-92,-146,-151,-141
-117,-92,24,104,-70,-34,78,-4,-87,-146,-151,-141
-117,-87,29,102,-73,-29,78,4,-82,-141,-151,-136
-112,-87,24,100,-68,-31,78,9,-73,-136,-146,-126
-112,-87,24,100,-68,-31,78,14,-63,-131,-141,-126
-107,-92,14,100,-61,-39,78,24,-58,-126,-136,-122
-102,-87,14,95,-58,-36,78,29,-53,-122,-136,-122
-102,-87,14,95,-58,-36,78,29,-43,-112,-126,-117
-97,-78,19,87,-58,-29,78,43,-39,-107,-122,-112
-97,-73,24,85,-61,-24,78,48,-29,-102,-117,-112
-92,-68,24,80,-58,-21,78,58,-19,-92,-112,-107
-92,-63,29,78,-61,-17,78,68,-4,-87,-107,-102
-87,-63,24,75,-56,-19,78,73,4,-78,-102,-102
-82,-58,24,70,-53,-17,78,82,14,-68,-92,-97
-73,-53,19,63,-46,-17,82,97,29,-53,-87,-92
-68,-53,14,61,-41,-19,82,112,43,-48,-78,-87
-63,-48,14,56,-39,-17,87,126,63,-39,-73,-87
-58,-39,19,48,-39,-9,87,136,78,-29,-63,-87
-48,-39,9,43,-29,-14,92,156,87,-14,-53,-78
-43,-29,14,36,-29,-7,97,180,112,-4,-48,-68
-39,-19,19,29,-29,0,107,195,136,9,-39,-68
-34,-9,24,21,-29,7,112,214,151,29,-34,-63
-29,-9,19,19,-24,4,117,239,175,39,-24,-58
-24,-4,19,14,-21,7,122,263,200,53,-14,-48
-24,0,24,12,-24,12,126,287,224,68,-4,-43
-19,0,19,9,-19,9,136,307,248,82,0,-39
-19,9,29,4,-24,19,141,326,273,102,14,-34
-9,14,24,-2,-17,19,146,351,297,117,24,-24
-4,19,24,-7,-14,21,151,370,317,126,34,-19
0,24,24,-12,-12,24,151,390,341,146,43,-9
4,29,24,-17,-9,26,156,409,366,156,53,-9
9,39,29,-24,-9,34,161,429,385,170,63,-4
19,43,24,-31,-2,34,165,444,405,185,68,0
19,48,29,-34,-4,39,170,458,429,195,78,9
24,53,29,-39,-2,41,170,468,444,209,82,14
29,58,29,-43,0,43,170,478,453,224,92,24
29,63,34,-46,-2,48,170,473,468,229,102,34
34,73,39,-53,-2,56,165,463,473,239,112,39
39,82,43,-61,-2,63,151,444,468,253,122,48
39,87,48,-63,-4,68,141,424,463,263,131,58
43,92,48,-68,-2,70,131,390,448,263,141,63
48,97,48,-73,0,73,117,361,434,263,141,73
43,97,53,-70,-4,75,107,326,405,258,141,73
43,97,53,-70,-4,75,92,287,366,239,136,73
34,92,58,-63,-12,75,73,234,326,214,126,73
29,82,53,-56,-12,68,53,195,283,185,107,63
19,73,53,-46,-17,63,43,156,229,156,92,48
9,68,58,-39,-24,63,34,117,190,126,73,34
0,53,53,-26,-26,53,24,73,146,97,58,19
-4,48,53,-21,-29,51,19,39,112,63,34,4
-14,34,48,-9,-31,41,9,9,73,29,14,0
-24,24,48,0,-36,36,9,-14,34,4,0,-14
-34,9,43,12,-39,26,4,-34,0,-19,-19,-24
-39,0,39,19,-39,19,-4,-53,-24,-39,-29,-39
-39,-9,29,24,-34,9,-4,-68,-43,-58,-48,-48
-43,-14,29,29,-36,7,-4,-73,-68,-68,-58,-58
-53,-24,29,39,-41,2,-4,-82,-78,-78,-68,-68
-53,-24,29,39,-41,2,-4,-92,-87,-87,-78,-73
-58,-39,19,48,-39,-9,-4,-92,-97,-102,-87,-73
-58,-43,14,51,-36,-14,-9,-97,-107,-107,-92,-87
-58,-43,14,51,-36,-14,-9,-97,-107,-107,-92,-87
-58,-43,14,51,-36,-14,-9,-102,-117,-112,-97,-87
-58,-48,9,53,-34,-19,-9,-107,-117,-117,-102,-87
-63,-48,14,56,-39,-17,-9,-107,-112,-117,-102,-87
-63,-48,14,56,-39,-17,-9,-102,-112,-117,-107,-87
-63,-48,14,56,-39,-17,-9,-102,-112,-122,-107,-87
-68,-43,24,56,-46,-9,-9,-102,-122,-122,-107,-87
-73,-39,34,56,-53,-2,-9,-102,-126,-122,-107,-92
-73,-39,34,56,-53,-2,-9,-102,-126,-122,-107,-92
-73,-39,34,56,-53,-2,-9,-97,-122,-122,-107,-92
-68,-39,29,53,-48,-4,-9,-97,-117,-117,-107,-92
-63,-39,24,51,-43,-7,-9,-97,-117,-117,-107,-92
-63,-39,24,51,-43,-7,-4,-97,-117,-117,-107,-92
-63,-39,24,51,-43,-7,-4,-97,-122,-117,-102,-92
-63,-43,19,53,-41,-12,-4,-97,-122,-117,-102,-87
-63,-43,19,53,-41,-12,-4,-92,-122,-117,-97,-87
-63,-39,24,51,-43,-7,-9,-92,-117,-117,-97,-87
-63,-39,24,51,-43,-7,-9,-97,-117,-117,-102,-87
-63,-39,24,51,-43,-7,-4,-97,-117,-117,-102,-87
-63,-43,19,53,-41,-12,-4,-92,-117,-117,-102,-87
-58,-43,14,51,-36,-14,-4,-92,-117,-117,-102,-87
-53,-43,9,48,-31,-17,-4,-92,-117,-117,-102,-87
-53,-43,9,48,-31,-17,-4,-92,-117,-117,-102,-87
-53,-39,14,46,-34,-12,-4,-92,-117,-117,-107,-87
-58,-39,19,48,-39,-9,-4,-92,-117,-122,-107,-92
-63,-39,24,51,-43,-7,-4,-92,-117,-126,-107,-97
-63,-39,24,51,-43,-7,-4,-92,-122,-126,-102,-97
-63,-39,24,51,-43,-7,-4,-92,-122,-126,-102,-97
-63,-39,24,51,-43,-7,-4,-97,-122,-122,-102,-92
-63,-39,24,51,-43,-7,-4,-97,-122,-117,-107,-87
-68,-43,24,56,-46,-9,-4,-97,-122,-117,-107,-87
-68,-43,24,56,-46,-9,-4,-97,-122,-122,-107,-92
-68,-43,24,56,-46,-9,-4,-97,-126,-126,-107,-97
-68,-43,24,56,-46,-9,-4,-97,-126,-136,-112,-97
-68,-53,14,61,-41,-19,-4,-102,-131,-141,-112,-97
-68,-63,4,65,-36,-29,-4,-102,-131,-141,-117,-102
-68,-63,4,65,-36,-29,-4,-102,-136,-141,-117,-102
-68,-58,9,63,-39,-24,0,-102,-141,-141,-117,-102
-73,-58,14,65,-43,-21,0,-107,-141,-146,-122,-102
-73,-58,14,65,-43,-21,0,-107,-141,-151,-122,-107
-78,-58,19,68,-48,-19,-4,-107,-141,-151,-131,-107
-82,-63,19,73,-51,-21,-4,-107,-141,-156,-136,-112
-82,-63,19,73,-51,-21,-4,-112,-146,-156,-136,-112
-87,-63,24,75,-56,-19,-4,-112,-146,-156,-136,-112
-82,-58,24,70,-53,-17,-4,-117,-151,-156,-141,-117
-78,-53,24,65,-51,-14,-4,-122,-156,-161,-141,-122
-78,-53,24,65,-51,-14,-4,-122,-156,-161,-146,-122
-78,-53,24,65,-51,-14,-4,-122,-156,-161,-146,-126
-78,-58,19,68,-48,-19,-4,-122,-161,-161,-146,-126
-78,-63,14,70,-46,-24,-4,-126,-161,-165,-146,-126
-78,-63,14,70,-46,-24,-4,-126,-161,-165,-146,-126
-82,-68,14,75,-48,-26,-4,-126,-161,-170,-141,-126
-82,-68,14,75,-48,-26,0,-126,-161,-165,-141,-122
-87,-68,19,78,-53,-24,0,-126,-165,-165,-146,-117
-87,-68,19,78,-53,-24,0,-126,-165,-165,-146,-117
-87,-68,19,78,-53,-24,0,-126,-165,-165,-146,-117
-82,-63,19,73,-51,-21,0,-126,-161,-165,-146,-117
-78,-53,24,65,-51,-14,0,-126,-156,-165,-146,-117
-78,-43,34,61,-56,-4,-4,-126,-156,-165,-146,-117
-68,-29,39,48,-53,4,-19,-122,-141,-156,-136,-107
-63,0,63,31,-63,31,-19,-122,-126,-136,-122,-92
-53,14,68,19,-61,41,-14,-117,-107,-126,-112,-82
-43,29,73,7,-58,51,-9,-112,-97,-117,-97,-73
-43,39,82,2,-63,61,-9,-102,-82,-107,-92,-68
-34,43,78,-4,-56,61,-9,-102,-82,-102,-87,-63
-29,43,73,-7,-51,58,-14,-102,-78,-97,-78,-63
-29,43,73,-7,-51,58,-29,-107,-78,-97,-78,-63
-9,58,68,-24,-39,63,-43,-107,-78,-87,-68,-53
9,63,53,-36,-21,58,-63,-112,-73,-78,-53,-43
19,63,43,-41,-12,53,-73,-112,-73,-73,-48,-34
24,63,39,-43,-7,51,-82,-107,-78,-73,-53,-29
24,68,43,-46,-9,56,-92,-112,-82,-73,-58,-29
43,73,29,-58,7,51,-92,-117,-92,-78,-53,-19
48,73,24,-61,12,48,-92,-117,-102,-92,-53,-19
63,73,9,-68,26,41,-92,-122,-117,-97,-53,-19
63,68,4,-65,29,36,-87,-126,-126,-107,-58,-24
39,58,19,-48,9,39,-78,-131,-141,-122,-73,-34
0,48,48,-24,-24,48,-68,-136,-141,-122,-82,-43
-29,29,58,0,-43,43,-53,-146,-146,-131,-97,-58
-58,4,63,26,-61,34,-29,-151,-151,-146,-117,-78
-73,-29,43,51,-58,7,-14,-146,-156,-156,-126,-92
-82,-39,43,61,-63,2,-9,-146,-170,-165,-146,-107
-87,-58,29,73,-58,-14,-9,-146,-175,-175,-156,-117
-97,-73,24,85,-61,-24,-4,-151,-190,-190,-170,-136
-97,-92,4,95,-51,-43,-4,-161,-209,-214,-190,-151
-97,-92,4,95,-51,-43,-4,-161,-209,-214,-195,-151
-112,-87,24,100,-68,-31,-4,-156,-209,-209,-190,-151
-112,-82,29,97,-70,-26,0,-156,-214,-209,-185,-156
-117,-82,34,100,-75,-24,0,-161,-214,-214,-195,-156
-122,-87,34,104,-78,-26,0,-161,-214,-214,-195,-161
-126,-92,34,109,-80,-29,4,-161,-214,-214,-195,-161
-131,-107,24,119,-78,-41,9,-161,-214,-214,-195,-165
-126,-107,19,117,-73,-43,14,-151,-214,-214,-195,-165
-126,-107,19,117,-73,-43,19,-146,-214,-219,-200,-165
-126,-107,19,117,-73,-43,24,-146,-209,-219,-200,-170
-131,-112,19,122,-75,-46,29,-146,-204,-219,-200,-170
-151,-117,34,134,-92,-41,43,-141,-204,-224,-209,-175
-190,-122,68,156,-129,-26,73,-136,-190,-234,-234,-204
-224,-131,92,178,-158,-19,122,-117,-165,-239,-273,-248
-229,-126,102,178,-165,-12,151,-102,-141,-234,-268,-253
-204,-136,68,170,-136,-34,165,-39,-122,-214,-253,-234
-102,-136,-34,119,-34,-85,161,112,-24,-102,-131,-131
97,-63,-161,-17,129,-112,68,244,126,107,97,68
346,131,-214,-239,280,-41,-122,287,292,385,424,356
605,385,-219,-495,412,82,-375,248,439,683,775,683
897,673,-224,-785,561,224,-683,136,580,1029,1195,1078
1102,888,-214,-995,658,336,-893,29,692,1351,1556,1395
1278,956,-322,-1117,800,317,-1000,-43,800,1629,1844,1639
1351,902,-448,-1127,900,226,-995,-97,849,1805,2020,1776
1278,775,-502,-1027,890,136,-917,-195,712,1698,1917,1683
1049,595,-453,-822,751,70,-736,-239,536,1449,1654,1454
810,297,-512,-553,661,-107,-502,-146,336,1019,1200,1058
527,73,-453,-300,490,-190,-283,-112,102,473,629,585
229,-73,-302,-78,265,-187,-102,-112,-97,53,126,146
39,-107,-146,34,92,-126,19,-73,-92,-34,-9,4
-14,-102,-87,58,36,-95,48,-53,-78,-24,0,0
-19,-87,-68,53,24,-78,48,-29,-39,-24,-4,-4
-24,-48,-24,36,0,-36,24,-14,-24,-29,-14,-14
-34,-48,-14,41,-9,-31,29,-14,-24,-34,-34,-29
-48,-68,-19,58,-14,-43,34,-14,-43,-63,-58,-53
-73,-82,-9,78,-31,-46,53,-19,-68,-92,-97,-82
-92,-82,9,87,-51,-36,63,-24,-78,-122,-131,-112
-97,-87,9,92,-53,-39,63,-24,-82,-126,-136,-112
-102,-97,4,100,-53,-46,63,-24,-87,-126,-141,-122
-112,-97,14,104,-63,-41,68,-24,-97,-141,-151,-131
-122,-97,24,109,-73,-36,73,-24,-107,-151,-156,-136
-122,-92,29,107,-75,-31,68,-29,-107,-151,-156,-136
-122,-92,29,107,-75,-31,63,-24,-102,-151,-156,-131
-117,-92,24,104,-70,-34,68,-19,-97,-141,-151,-131
-107,-92,14,100,-61,-39,68,-14,-87,-136,-151,-131
-107,-92,14,100,-61,-39,68,-9,-87,-136,-151,-131
-107,-87,19,97,-63,-34,68,4,-82,-131,-151,-131
-102,-87,14,95,-58,-36,68,9,-73,-126,-146,-126
-102,-82,19,92,-61,-31,68,14,-63,-122,-141,-126
-97,-82,14,90,-56,-34,68,24,-58,-117,-136,-122
-92,-78,14,85,-53,-31,68,29,-53,-112,-136,-122
-92,-78,14,85,-53,-31,68,29,-39,-102,-126,-112
-87,-73,14,80,-51,-29,68,43,-29,-97,-122,-102
-87,-73,14,80,-51,-29,68,48,-19,-92,-112,-102
-82,-68,14,75,-48,-26,68,58,-9,-82,-102,-97
-82,-63,19,73,-51,-21,73,68,4,-78,-97,-97
-78,-63,14,70,-46,-24,78,73,14,-68,-92,-102
-73,-58,14,65,-43,-21,78,82,19,-63,-87,-97
-68,-53,14,61,-41,-19,82,97,29,-53,-87,-92
-68,-48,19,58,-43,-14,82,112,39,-48,-78,-87
-63,-39,24,51,-43,-7,87,126,53,-39,-73,-82
-58,-29,29,43,-43,0,87,136,68,-29,-63,-78
-48,-29,19,39,-34,-4,92,156,78,-14,-53,-68
-43,-24,19,34,-31,-2,97,185,102,-4,-48,-58
-39,-24,14,31,-26,-4,102,204,126,9,-39,-58
-34,-19,14,26,-24,-2,102,224,141,29,-34,-53
-29,-19,9,24,-19,-4,107,244,161,39,-24,-48
-24,-14,9,19,-17,-2,112,263,180,53,-14,-39
-19,-4,14,12,-17,4,117,287,204,68,-4,-34
-9,0,9,4,-9,4,126,307,229,78,0,-34
-9,9,19,0,-14,14,131,326,253,92,14,-34
0,14,14,-7,-7,14,136,356,278,107,24,-24
4,19,14,-12,-4,17,141,380,297,117,34,-19
9,29,19,-19,-4,24,141,400,322,141,43,-4
14,39,24,-26,-4,31,146,419,346,156,53,0
19,48,29,-34,-4,39,151,444,366,170,63,4
29,53,24,-41,2,39,156,458,385,185,68,9
34,58,24,-46,4,41,161,468,409,195,78,19
43,63,19,-53,12,41,161,478,424,209,82,24
48,68,19,-58,14,43,161,488,434,224,92,34
48,73,24,-61,12,48,161,488,448,229,102,43
53,82,29,-68,12,56,156,483,453,234,112,48
58,92,34,-75,12,63,141,463,453,244,122,58
58,97,39,-78,9,68,131,439,453,253,126,68
58,102,43,-80,7,73,122,400,439,253,131,73
58,107,48,-82,4,78,107,366,424,253,131,82
53,107,53,-80,0,80,97,326,395,248,136,82
53,107,53,-80,0,80,82,287,356,234,136,82
43,102,58,-73,-7,80,68,239,322,214,126,82
39,82,43,-61,-2,63,53,200,283,185,107,73
29,63,34,-46,-2,48,43,156,229,161,92,63
19,58,39,-39,-9,48,34,117,190,136,73,53
9,43,34,-26,-12,39,24,78,146,107,58,39
4,39,34,-21,-14,36,14,43,112,73,34,24
-4,24,29,-9,-17,26,0,9,73,39,14,14
-19,14,34,2,-26,24,0,-14,34,14,4,-4
-34,0,34,17,-34,17,0,-34,0,-9,-14,-14
-39,-9,29,24,-34,9,-4,-53,-24,-29,-29,-24
-39,-19,19,29,-29,0,-4,-68,-43,-53,-48,-29
-43,-24,19,34,-31,-2,-9,-73,-68,-68,-58,-39
-53,-34,19,43,-36,-7,-14,-82,-78,-78,-68,-48
-53,-29,24,41,-39,-2,-14,-92,-87,-87,-78,-58
-58,-34,24,46,-41,-4,-14,-92,-97,-102,-87,-63
-58,-34,24,46,-41,-4,-14,-97,-107,-107,-92,-78
-58,-34,24,46,-41,-4,-9,-97,-107,-107,-92,-78
-58,-34,24,46,-41,-4,-9,-102,-112,-112,-97,-78
-58,-39,19,48,-39,-9,-9,-107,-112,-117,-102,-78
-63,-43,19,53,-41,-12,-9,-107,-112,-117,-102,-78
-63,-48,14,56,-39,-17,-9,-102,-112,-117,-107,-78
-58,-48,9,53,-34,-19,-9,-102,-112,-122,-107,-78
-53,-48,4,51,-29,-21,-9,-102,-117,-122,-107,-78
-53,-43,9,48,-31,-17,-9,-102,-117,-122,-107,-82
-53,-39,14,46,-34,-12,-9,-102,-117,-122,-107,-82
-53,-39,14,46,-34,-12,-9,-97,-117,-122,-107,-78
-53,-39,14,46,-34,-12,-9,-97,-117,-117,-107,-73
-53,-39,14,46,-34,-12,-9,-97,-117,-117,-107,-73
-53,-39,14,46,-34,-12,-4,-97,-117,-117,-107,-73
-53,-39,14,46,-34,-12,-4,-97,-122,-117,-102,-73
-53,-43,9,48,-31,-17,-4,-97,-122,-117,-102,-68
-53,-43,9,48,-31,-17,-4,-92,-117,-117,-102,-78
-53,-39,14,46,-34,-12,-9,-92,-107,-117,-107,-87
-53,-39,14,46,-34,-12,-9,-97,-107,-117,-112,-87
-53,-39,14,46,-34,-12,-4,-97,-107,-117,-112,-87
-53,-43,9,48,-31,-17,-4,-92,-112,-117,-112,-87
-53,-43,9,48,-31,-17,-4,-92,-117,-117,-112,-87
-58,-43,14,51,-36,-14,-4,-92,-117,-122,-112,-82
-63,-43,19,53,-41,-12,-4,-92,-117,-126,-112,-78
-63,-39,24,51,-43,-7,-4,-92,-117,-126,-117,-78
-63,-39,24,51,-43,-7,-4,-92,-117,-126,-117,-78
-63,-43,19,53,-41,-12,-4,-92,-117,-122,-117,-78
-63,-48,14,56,-39,-17,-4,-92,-122,-117,-112,-78
-63,-48,14,56,-39,-17,-4,-92,-122,-117,-112,-78
-63,-48,14,56,-39,-17,-4,-97,-122,-117,-112,-78
-63,-48,14,56,-39,-17,-4,-97,-122,-117,-117,-78
-68,-53,14,61,-41,-19,-4,-97,-122,-117,-117,-78
-68,-53,14,61,-41,-19,-4,-97,-122,-122,-117,-82
-68,-53,14,61,-41,-19,-4,-97,-126,-122,-117,-87
-68,-48,19,58,-43,-14,-4,-97,-126,-126,-122,-87
-68,-48,19,58,-43,-14,-4,-102,-131,-131,-122,-87
-68,-53,14,61,-41,-19,-4,-102,-126,-131,-126,-92
-68,-53,14,61,-41,-19,-4,-102,-126,-131,-126,-92
-68,-53,14,61,-41,-19,0,-102,-131,-131,-126,-92
-73,-58,14,65,-43,-21,0,-107,-131,-136,-131,-92
-73,-58,14,65,-43,-21,0,-107,-136,-141,-131,-97
-73,-58,14,65,-43,-21,-4,-107,-141,-141,-136,-97
-73,-63,9,68,-41,-26,-4,-107,-141,-146,-136,-102
-73,-63,9,68,-41,-26,-4,-112,-146,-146,-136,-102
-78,-63,14,70,-46,-24,-4,-112,-146,-146,-136,-102
-78,-63,14,70,-46,-24,-4,-112,-151,-146,-141,-102
-78,-63,14,70,-46,-24,-4,-112,-156,-151,-141,-102
-78,-63,14,70,-46,-24,-4,-112,-156,-151,-146,-102
-78,-63,14,70,-46,-24,-4,-112,-151,-151,-146,-107
-78,-63,14,70,-46,-24,-4,-112,-151,-151,-146,-107
-78,-63,14,70,-46,-24,-4,-117,-151,-156,-146,-107
-78,-63,14,70,-46,-24,-4,-117,-151,-156,-151,-107
-78,-63,14,70,-46,-24,0,-117,-151,-161,-151,-112
-78,-68,9,73,-43,-29,0,-117,-156,-165,-156,-117
-78,-68,9,73,-43,-29,0,-117,-156,-165,-156,-117
-78,-68,9,73,-43,-29,0,-117,-156,-165,-156,-117
-78,-73,4,75,-41,-34,0,-117,-156,-165,-156,-117
-78,-68,9,73,-43,-29,0,-117,-156,-165,-156,-117
-78,-63,14,70,-46,-24,-4,-117,-156,-165,-156,-117
-68,-48,19,58,-43,-14,-19,-112,-141,-156,-146,-107
-63,-19,43,41,-53,12,-19,-112,-131,-136,-131,-92
-53,-4,48,29,-51,21,-14,-107,-117,-126,-122,-82
-43,9,53,17,-48,31,-9,-102,-107,-117,-107,-73
-43,19,63,12,-53,41,-9,-92,-92,-107,-102,-68
-39,24,63,7,-51,43,-4,-97,-97,-102,-102,-63
-39,24,63,7,-51,43,-4,-102,-97,-97,-97,-63
-48,24,73,12,-61,48,-19,-107,-92,-97,-97,-63
-39,39,78,0,-58,58,-34,-107,-87,-87,-87,-53
-9,53,63,-21,-36,58,-58,-112,-78,-78,-73,-43
9,63,53,-36,-21,58,-73,-112,-73,-73,-68,-34
14,63,48,-39,-17,56,-82,-107,-73,-73,-68,-34
14,68,53,-41,-19,61,-92,-112,-73,-73,-68,-39
29,73,43,-51,-7,58,-92,-117,-82,-78,-63,-29
29,73,43,-51,-7,58,-92,-117,-92,-92,-63,-29
48,82,34,-65,7,58,-97,-117,-107,-92,-63,-19
53,87,34,-70,9,61,-97,-117,-117,-97,-68,-14
43,78,34,-61,4,56,-87,-122,-131,-112,-78,-14
19,68,48,-43,-14,58,-78,-126,-131,-112,-82,-14
-9,48,58,-19,-34,53,-63,-131,-136,-122,-92,-29
-39,24,63,7,-51,43,-39,-131,-141,-136,-107,-48
-58,-9,48,34,-53,19,-19,-126,-141,-146,-117,-68
-73,-19,53,46,-63,17,-9,-126,-151,-156,-136,-87
-78,-39,39,58,-58,0,-9,-126,-156,-161,-146,-97
-87,-53,34,70,-61,-9,-4,-131,-170,-170,-161,-117
-87,-78,9,82,-48,-34,-4,-141,-195,-204,-185,-136
-87,-82,4,85,-46,-39,-4,-141,-200,-214,-195,-141
-102,-82,19,92,-61,-31,-4,-136,-200,-209,-195,-146
-102,-82,19,92,-61,-31,0,-136,-204,-209,-195,-156
-107,-82,24,95,-65,-29,0,-141,-204,-214,-209,-156
-112,-87,24,100,-68,-31,0,-141,-204,-214,-214,-161
-117,-87,29,102,-73,-29,4,-141,-204,-214,-214,-161
-122,-97,24,109,-73,-36,9,-141,-204,-214,-214,-165
-122,-97,24,109,-73,-36,14,-136,-204,-214,-214,-165
-126,-97,29,112,-78,-34,19,-136,-204,-219,-219,-165
-117,-92,24,104,-70,-34,19,-136,-204,-219,-209,-165
-112,-92,19,102,-65,-36,19,-136,-204,-219,-200,-161
-112,-97,14,104,-63,-41,24,-131,-204,-224,-200,-156
-131,-102,29,117,-80,-36,43,-126,-190,-234,-214,-175
-195,-117,78,156,-136,-19,97,-117,-165,-244,-273,-239
-229,-117,112,173,-170,-2,131,-112,-141,-244,-287,-263
-263,-141,122,202,-192,-9,175,-87,-156,-273,-326,-297
-219,-156,63,187,-141,-46,200,24,-92,-209,-258,-248
-73,-165,-92,119,9,-129,195,204,48,-39,-87,-102
122,-53,-175,-34,148,-114,92,297,204,200,180,131
370,185,-185,-278,278,0,-146,287,351,497,556,483
653,458,-195,-556,424,131,-439,204,492,844,1000,902
912,790,-122,-851,517,334,-746,63,624,1224,1449,1322
1141,976,-165,-1058,653,405,-951,-43,751,1561,1825,1668
1322,1015,-307,-1168,814,353,-1024,-97,897,1927,2186,1942
1356,980,-375,-1168,866,302,-1024,-195,858,2010,2269,1986
1176,829,-346,-1002,761,241,-858,-268,707,1869,2127,1864
985,561,-424,-773,705,68,-639,-204,531,1546,1795,1576
688,239,-448,-463,568,-104,-400,-156,204,829,1049,956
375,-4,-380,-185,378,-192,-200,-141,-87,239,370,370
107,-82,-190,-12,148,-136,-34,-97,-107,58,112,117
-24,-122,-97,73,36,-109,39,-73,-117,-24,0,0
-29,-107,-78,68,24,-92,53,-39,-78,-24,-4,-4
-34,-68,-34,51,0,-51,43,-14,-63,-29,-14,-14
-29,-63,-34,46,2,-48,24,-14,-43,-24,-34,-24
-29,-78,-48,53,9,-63,4,-14,-43,-43,-58,-43
-63,-92,-29,78,-17,-61,34,-19,-78,-87,-97,-73
-92,-92,0,92,-46,-46,53,-24,-97,-131,-131,-102
-97,-97,0,97,-48,-48,53,-24,-97,-136,-136,-102
-102,-107,-4,104,-48,-56,53,-24,-97,-136,-141,-112
-107,-107,0,107,-53,-53,58,-24,-97,-146,-151,-126
-112,-107,4,109,-58,-51,63,-24,-97,-151,-156,-136
-112,-102,9,107,-61,-46,63,-24,-97,-151,-156,-136
-112,-102,9,107,-61,-46,63,-14,-92,-151,-156,-131
-112,-102,9,107,-61,-46,63,-9,-97,-146,-156,-136
-107,-102,4,104,-56,-48,58,-4,-97,-146,-161,-141
-107,-102,4,104,-56,-48,58,-4,-97,-146,-161,-141
-107,-97,9,102,-58,-43,58,4,-92,-141,-161,-141
-102,-97,4,100,-53,-46,58,9,-82,-136,-156,-136
-102,-92,9,97,-56,-41,58,14,-73,-131,-151,-136
-97,-92,4,95,-51,-43,58,24,-68,-131,-146,-131
-92,-87,4,90,-48,-41,58,29,-63,-131,-146,-131
-97,-87,9,92,-53,-39,63,24,-58,-122,-141,-126
-97,-82,14,90,-56,-34,68,34,-58,-117,-141,-122
-97,-82,14,90,-56,-34,68,39,-48,-112,-136,-122
-92,-78,14,85,-53,-31,68,48,-39,-102,-131,-117
-92,-73,19,82,-56,-26,68,58,-24,-97,-122,-107
-87,-73,14,80,-51,-29,68,63,-14,-87,-112,-102
-82,-68,14,75,-48,-26,68,73,-4,-78,-102,-97
-78,-63,14,70,-46,-24,73,87,9,-63,-97,-92
-78,-63,14,70,-46,-24,73,102,24,-58,-87,-87
-73,-58,14,65,-43,-21,78,117,43,-48,-82,-82
-63,-48,14,56,-39,-17,73,122,53,-39,-73,-82
-48,-48,0,48,-24,-24,73,136,58,-24,-63,-78
-43,-39,4,41,-24,-17,78,161,82,-14,-58,-68
-39,-34,4,36,-21,-14,82,175,107,0,-48,-68
-34,-29,4,31,-19,-12,82,195,122,19,-43,-63
-29,-29,0,29,-14,-14,87,214,141,29,-34,-58
-29,-34,-4,31,-12,-19,92,234,161,43,-24,-48
-29,-34,-4,31,-12,-19,97,258,185,58,-14,-43
-19,-29,-9,24,-4,-19,107,278,209,68,-14,-39
-19,-19,0,19,-9,-9,112,297,234,82,-4,-34
-9,-4,4,7,-7,0,117,322,258,97,4,-24
-4,9,14,-2,-9,12,122,341,278,107,14,-19
0,14,14,-7,-7,14,122,361,302,131,24,-9
4,19,14,-12,-4,17,126,380,326,146,34,-9
9,29,19,-19,-4,24,131,400,346,161,48,0
19,34,14,-26,2,24,136,409,366,175,58,9
24,34,9,-29,7,21,141,424,395,185,68,19
34,34,0,-34,17,17,141,439,414,200,73,24
39,39,0,-39,19,19,146,453,429,214,82,29
39,43,4,-41,17,24,151,458,448,219,92,34
48,53,4,-51,21,29,146,458,453,229,102,39
58,63,4,-61,26,34,131,444,453,244,112,48
58,73,14,-65,21,43,126,424,458,258,126,63
58,82,24,-70,17,53,122,390,448,263,141,73
58,87,29,-73,14,58,107,366,444,268,141,87
53,87,34,-70,9,61,97,336,424,268,146,92
53,92,39,-73,7,65,82,297,385,253,146,92
43,92,48,-68,-2,70,68,248,351,234,136,92
39,82,43,-61,-2,63,53,214,312,204,122,82
29,73,43,-51,-7,58,43,175,258,180,112,73
14,68,53,-41,-19,61,34,136,219,156,92,63
0,53,53,-26,-26,53,24,97,175,126,78,48
-4,48,53,-21,-29,51,19,68,141,92,53,34
-14,34,48,-9,-31,41,9,39,102,58,34,24
-24,24,48,0,-36,36,4,14,63,34,19,4
-34,9,43,12,-39,26,0,-4,29,9,-4,-4
-39,0,39,19,-39,19,-4,-24,4,-9,-19,-19
-39,-9,29,24,-34,9,-4,-39,-14,-34,-39,-29
-43,-14,29,29,-36,7,-4,-48,-39,-53,-48,-39
-53,-24,29,39,-41,2,-4,-63,-48,-68,-58,-48
-58,-29,29,43,-43,0,-4,-73,-63,-78,-73,-58
-68,-43,24,56,-46,-9,-4,-73,-78,-92,-87,-63
-68,-43,24,56,-46,-9,-4,-78,-87,-97,-92,-78
-68,-43,24,56,-46,-9,0,-78,-87,-97,-92,-78
-68,-43,24,56,-46,-9,0,-82,-97,-107,-97,-78
-68,-48,19,58,-43,-14,0,-87,-102,-117,-102,-78
-73,-48,24,61,-48,-12,0,-92,-107,-122,-102,-78
-73,-48,24,61,-48,-12,0,-92,-112,-126,-107,-78
-73,-43,29,58,-51,-7,-4,-92,-112,-131,-107,-78
-73,-39,34,56,-53,-2,-9,-92,-117,-131,-107,-78
-73,-39,34,56,-53,-2,-9,-92,-117,-131,-107,-82
-73,-39,34,56,-53,-2,-9,-92,-117,-131,-107,-82
-73,-39,34,56,-53,-2,-9,-92,-117,-131,-112,-82
-73,-39,34,56,-53,-2,-9,-97,-117,-126,-117,-82
-73,-39,34,56,-53,-2,-9,-97,-117,-126,-117,-87
-73,-39,34,56,-53,-2,-4,-97,-117,-126,-117,-92
-73,-39,34,56,-53,-2,-4,-92,-117,-122,-112,-92
-73,-43,29,58,-51,-7,-4,-87,-112,-117,-112,-87
-73,-43,29,58,-51,-7,0,-82,-112,-117,-107,-87
-73,-39,34,56,-53,-2,0,-82,-107,-117,-107,-87
-73,-43,29,58,-51,-7,0,-87,-107,-117,-112,-87
-73,-48,24,61,-48,-12,4,-87,-107,-117,-112,-87
-73,-53,19,63,-46,-17,0,-82,-107,-122,-112,-87
-73,-53,19,63,-46,-17,-4,-82,-107,-126,-112,-87
-73,-48,24,61,-48,-12,-4,-82,-112,-126,-112,-87
-73,-43,29,58,-51,-7,-4,-82,-117,-126,-112,-87
-73,-39,34,56,-53,-2,-4,-82,-117,-126,-117,-87
-73,-39,34,56,-53,-2,-4,-82,-117,-126,-117,-87
-73,-39,34,56,-53,-2,-4,-82,-117,-126,-117,-87
-73,-39,34,56,-53,-2,-4,-82,-122,-126,-112,-87
-73,-39,34,56,-53,-2,-4,-82,-122,-126,-112,-87
-73,-39,34,56,-53,-2,-4,-87,-122,-126,-112,-87
-68,-43,24,56,-46,-9,-4,-92,-122,-126,-117,-87
-68,-53,14,61,-41,-19,-4,-97,-122,-126,-117,-87
-68,-53,14,61,-41,-19,-4,-97,-122,-131,-117,-92
-68,-53,14,61,-41,-19,-4,-97,-126,-131,-117,-97
-73,-53,19,63,-46,-17,0,-92,-126,-136,-126,-97
-78,-58,19,68,-48,-19,4,-92,-131,-141,-131,-97
-78,-63,14,70,-46,-24,4,-92,-131,-141,-136,-102
-78,-63,14,70,-46,-24,4,-92,-136,-141,-136,-102
-73,-58,14,65,-43,-21,4,-92,-141,-141,-131,-102
-73,-58,14,65,-43,-21,0,-97,-141,-146,-131,-102
-73,-58,14,65,-43,-21,0,-97,-141,-151,-131,-107
-73,-58,14,65,-43,-21,-4,-97,-141,-151,-136,-107
-73,-63,9,68,-41,-26,-4,-97,-141,-156,-136,-112
-73,-63,9,68,-41,-26,-4,-102,-146,-156,-136,-112
-78,-63,14,70,-46,-24,-4,-102,-146,-156,-131,-112
-78,-63,14,70,-46,-24,-4,-102,-151,-156,-131,-112
-78,-63,14,70,-46,-24,-4,-102,-156,-161,-131,-112
-78,-63,14,70,-46,-24,-4,-102,-156,-161,-136,-112
-82,-58,24,70,-53,-17,-4,-102,-156,-161,-146,-117
-87,-53,34,70,-61,-9,-4,-102,-161,-161,-156,-117
-87,-53,34,70,-61,-9,-4,-107,-161,-165,-156,-117
-87,-53,34,70,-61,-9,-4,-107,-161,-165,-161,-117
-87,-58,29,73,-58,-14,0,-107,-161,-170,-161,-122
-87,-68,19,78,-53,-24,0,-107,-165,-175,-165,-126
-87,-68,19,78,-53,-24,0,-107,-165,-175,-165,-126
-87,-68,19,78,-53,-24,0,-107,-165,-175,-165,-126
-87,-68,19,78,-53,-24,0,-107,-165,-175,-165,-126
-87,-63,24,75,-56,-19,0,-107,-165,-175,-165,-126
-92,-58,34,75,-63,-12,-4,-112,-170,-175,-165,-131
-87,-48,39,68,-63,-4,-19,-112,-161,-165,-156,-126
-82,-29,53,56,-68,12,-19,-112,-151,-146,-141,-112
-73,-24,48,48,-61,12,-14,-107,-136,-136,-131,-102
-58,4,63,26,-61,34,-9,-102,-122,-126,-117,-87
-53,29,82,12,-68,56,-9,-92,-102,-117,-112,-78
-48,34,82,7,-65,58,-4,-92,-102,-112,-112,-73
-48,34,82,7,-65,58,-4,-92,-97,-107,-107,-73
-48,24,73,12,-61,48,-19,-97,-92,-107,-107,-73
-29,29,58,0,-43,43,-34,-97,-87,-97,-97,-63
-9,48,58,-19,-34,53,-53,-102,-82,-87,-82,-53
0,63,63,-31,-31,63,-63,-102,-82,-82,-78,-43
4,68,63,-36,-29,65,-73,-102,-82,-78,-73,-39
4,78,73,-41,-34,75,-82,-112,-82,-73,-68,-39
19,82,63,-51,-21,73,-82,-117,-92,-73,-63,-29
19,82,63,-51,-21,73,-82,-117,-102,-82,-63,-29
39,82,43,-61,-2,63,-87,-117,-112,-82,-58,-19
43,78,34,-61,4,56,-87,-117,-117,-87,-58,-14
34,68,34,-51,0,51,-78,-122,-131,-102,-68,-24
9,58,48,-34,-19,53,-68,-126,-131,-102,-73,-34
-19,39,58,-9,-39,48,-53,-131,-136,-117,-87,-48
-48,14,63,17,-56,39,-29,-131,-141,-136,-107,-68
-63,-19,43,41,-53,12,-14,-126,-146,-146,-117,-82
-73,-29,43,51,-58,7,-9,-126,-161,-156,-136,-97
-78,-48,29,63,-53,-9,-4,-126,-165,-170,-146,-107
-87,-63,24,75,-56,-19,4,-131,-180,-190,-161,-126
-97,-82,14,90,-56,-34,4,-141,-200,-219,-185,-151
-107,-82,24,95,-65,-29,4,-141,-200,-224,-195,-161
-122,-82,39,102,-80,-21,4,-136,-200,-219,-195,-161
-122,-82,39,102,-80,-21,9,-136,-204,-219,-195,-165
-122,-82,39,102,-80,-21,9,-141,-209,-224,-204,-165
-122,-87,34,104,-78,-26,9,-141,-214,-224,-204,-170
-126,-87,39,107,-82,-24,14,-141,-214,-224,-204,-165
-131,-97,34,114,-82,-31,19,-141,-214,-224,-204,-165
-126,-97,29,112,-78,-34,19,-136,-214,-219,-200,-165
-126,-97,29,112,-78,-34,19,-136,-214,-219,-200,-165
-122,-97,24,109,-73,-36,19,-136,-214,-219,-200,-170
-122,-102,19,112,-70,-41,19,-136,-214,-219,-200,-170
-117,-102,14,109,-65,-43,24,-131,-214,-229,-204,-170
-131,-102,29,117,-80,-36,43,-126,-200,-244,-224,-195
-195,-117,78,156,-136,-19,97,-112,-175,-263,-287,-263
-229,-117,112,173,-170,-2,131,-102,-151,-273,-307,-292
-258,-141,117,200,-187,-12,175,-82,-161,-297,-346,-322
-209,-156,53,183,-131,-51,200,24,-92,-229,-278,-268
-82,-170,-87,126,2,-129,204,190,48,-53,-102,-112
92,-63,-156,-14,124,-109,112,268,204,190,170,131
326,180,-146,-253,236,17,-126,263,351,492,556,483
595,458,-136,-527,366,161,-419,185,492,844,1010,902
844,785,-58,-814,451,363,-712,58,619,1249,1478,1327
1063,966,-97,-1015,580,434,-902,-34,741,1610,1873,1678
1244,1015,-229,-1129,736,392,-976,-82,917,2015,2264,1976
1278,990,-287,-1134,783,351,-976,-175,907,2137,2376,2044
1107,834,-273,-971,690,280,-810,-229,771,2010,2239,1917
927,561,-366,-744,646,97,-590,-146,610,1703,1912,1625
644,234,-409,-439,527,-87,-366,-112,273,946,1141,990
346,-14,-361,-165,353,-187,-180,-112,-29,317,439,390
97,-82,-180,-7,139,-131,-19,-78,-82,102,156,131
-14,-112,-97,63,41,-104,48,-63,-126,-14,19,9
-29,-97,-68,63,19,-82,63,-34,-78,-14,14,4
-43,-58,-14,51,-14,-36,53,-14,-53,-19,4,-4
-34,-53,-19,43,-7,-36,39,-14,-34,-14,-14,-24
-29,-68,-39,48,4,-53,24,-14,-34,-34,-39,-53
-53,-82,-29,68,-12,-56,43,-19,-73,-82,-87,-82
-73,-82,-9,78,-31,-46,53,-24,-97,-131,-131,-112
-82,-87,-4,85,-39,-46,53,-24,-97,-136,-136,-112
-92,-97,-4,95,-43,-51,53,-24,-97,-136,-141,-122
-97,-102,-4,100,-46,-53,58,-24,-102,-146,-156,-141
-102,-107,-4,104,-48,-56,63,-24,-107,-151,-165,-156
-107,-102,4,104,-56,-48,63,-24,-112,-156,-165,-156
-112,-102,9,107,-61,-46,63,-14,-112,-161,-165,-151
-112,-102,9,107,-61,-46,68,-9,-112,-156,-161,-151
-107,-102,4,104,-56,-48,68,-4,-107,-156,-161,-151
-107,-102,4,104,-56,-48,68,-4,-107,-156,-161,-151
-107,-97,9,102,-58,-43,68,4,-102,-151,-161,-151
-102,-97,4,100,-53,-46,68,9,-92,-146,-156,-141
-102,-92,9,97,-56,-41,68,14,-82,-141,-151,-136
-97,-92,4,95,-51,-43,68,24,-73,-136,-146,-131
-92,-87,4,90,-48,-41,68,29,-63,-131,-146,-131
-92,-87,4,90,-48,-41,68,29,-53,-122,-136,-131
-87,-82,4,85,-46,-39,68,43,-48,-117,-131,-131
-82,-82,0,82,-41,-41,68,48,-39,-112,-126,-131
-73,-78,-4,75,-34,-41,68,58,-29,-102,-122,-126
-73,-73,0,73,-36,-36,68,68,-14,-97,-117,-122
-68,-73,-4,70,-31,-39,68,73,-4,-87,-112,-122
-63,-68,-4,65,-29,-36,68,78,0,-78,-107,-117
-58,-63,-4,61,-26,-34,73,87,9,-63,-107,-112
-63,-63,0,63,-31,-31,73,102,24,-58,-97,-107
-63,-58,4,61,-34,-26,78,117,43,-48,-92,-102
-58,-48,9,53,-34,-19,78,122,58,-39,-78,-97
-48,-48,0,48,-24,-24,82,136,68,-24,-63,-87
-43,-39,4,41,-24,-17,82,161,82,-14,-58,-78
-39,-34,4,36,-21,-14,82,175,97,0,-48,-78
-34,-29,4,31,-19,-12,82,195,122,19,-43,-73
-29,-29,0,29,-14,-14,87,214,151,29,-34,-68
-24,-24,0,24,-12,-12,92,229,170,43,-24,-58
-19,-14,4,17,-12,-4,97,248,195,58,-14,-53
-9,-14,-4,12,-2,-9,112,268,219,73,-9,-48
-9,-9,0,9,-4,-4,122,287,244,92,4,-43
0,-4,-4,2,2,-4,126,312,268,107,14,-34
4,0,-4,-2,4,-2,131,331,287,117,24,-29
9,4,-4,-7,7,0,131,351,312,136,34,-19
14,9,-4,-12,9,2,136,370,336,146,43,-19
19,19,0,-19,9,9,141,390,356,161,53,-14
29,24,-4,-26,17,9,146,400,375,175,58,-9
29,34,4,-31,12,19,151,414,400,185,68,0
34,43,9,-39,12,26,151,429,414,200,73,4
39,48,9,-43,14,29,151,439,429,214,82,14
39,53,14,-46,12,34,151,439,448,219,92,24
48,63,14,-56,17,39,146,439,453,229,102,29
58,73,14,-65,21,43,131,424,453,244,112,39
58,78,19,-68,19,48,122,409,463,253,122,48
58,82,24,-70,17,53,112,380,458,253,131,53
58,87,29,-73,14,58,102,356,448,258,131,63
53,87,34,-70,9,61,97,326,424,258,136,63
53,87,34,-70,9,61,82,287,385,244,146,68
43,82,39,-63,2,61,68,239,351,224,146,73
39,73,34,-56,2,53,53,204,312,200,126,68
29,63,34,-46,-2,48,43,165,258,180,112,63
19,58,39,-39,-9,48,34,131,219,156,92,53
9,43,34,-26,-12,39,24,97,175,126,78,39
0,43,43,-21,-21,43,19,68,141,87,48,24
-14,34,48,-9,-31,41,9,39,102,48,24,14
-24,24,48,0,-36,36,4,9,58,24,9,-9
-34,9,43,12,-39,26,0,-14,19,0,-14,-24
-39,0,39,19,-39,19,-4,-34,-4,-19,-29,-39
-39,-9,29,24,-34,9,-4,-48,-24,-43,-48,-48
-34,-14,19,24,-26,2,-4,-58,-53,-63,-58,-58
-34,-24,9,29,-21,-7,-4,-73,-68,-78,-68,-68
-43,-24,19,34,-31,-2,-4,-82,-78,-87,-78,-73
-58,-34,24,46,-41,-4,-4,-82,-87,-102,-87,-73
-58,-39,19,48,-39,-9,-4,-87,-97,-107,-97,-87
-58,-43,14,51,-36,-14,0,-87,-97,-107,-102,-87
-63,-43,19,53,-41,-12,0,-92,-112,-117,-107,-87
-68,-48,19,58,-43,-14,0,-97,-122,-126,-112,-87
-73,-48,24,61,-48,-12,0,-102,-122,-126,-112,-87
-73,-48,24,61,-48,-12,0,-102,-122,-126,-117,-87
-68,-48,19,58,-43,-14,0,-102,-122,-131,-117,-92
-63,-48,14,56,-39,-17,0,-102,-126,-131,-117,-97
-63,-48,14,56,-39,-17,-4,-102,-131,-131,-117,-102
-63,-48,14,56,-39,-17,-9,-102,-136,-131,-117,-102
-63,-48,14,56,-39,-17,-9,-92,-131,-131,-117,-102
-63,-48,14,56,-39,-17,-9,-87,-126,-126,-117,-102
-63,-48,14,56,-39,-17,-9,-87,-122,-122,-117,-102
-63,-48,14,56,-39,-17,-4,-87,-117,-117,-117,-102
-63,-48,14,56,-39,-17,-4,-87,-122,-117,-112,-102
-63,-53,9,58,-36,-21,-4,-87,-122,-117,-112,-97
-63,-53,9,58,-36,-21,-4,-82,-122,-122,-107,-97
-63,-48,14,56,-39,-17,-9,-82,-117,-126,-107,-97
-63,-48,14,56,-39,-17,-9,-87,-117,-126,-112,-97
-63,-48,14,56,-39,-17,-4,-87,-117,-126,-112,-97
-58,-53,4,56,-31,-24,-4,-87,-117,-126,-112,-97
-53,-53,0,53,-26,-26,-4,-92,-117,-126,-112,-97
-53,-53,0,53,-26,-26,-4,-92,-117,-126,-112,-97
-53,-53,0,53,-26,-26,-4,-92,-117,-126,-112,-97
-58,-53,4,56,-31,-24,-4,-92,-117,-126,-117,-97
-63,-58,4,61,-34,-26,-4,-92,-117,-126,-117,-97
-63,-58,4,61,-34,-26,-4,-92,-117,-126,-117,-97
-63,-58,4,61,-34,-26,-4,-92,-122,-126,-112,-97
-63,-58,4,61,-34,-26,-4,-92,-122,-126,-112,-97
-63,-58,4,61,-34,-26,-4,-97,-122,-126,-112,-97
-63,-53,9,58,-36,-21,0,-97,-122,-126,-117,-97
-68,-53,14,61,-41,-19,4,-97,-122,-126,-117,-97
-68,-53,14,61,-41,-19,4,-92,-122,-131,-112,-97
-68,-53,14,61,-41,-19,4,-87,-126,-131,-107,-97
-73,-53,19,63,-46,-17,4,-87,-126,-136,-112,-97
-78,-58,19,68,-48,-19,4,-92,-131,-141,-112,-97
-78,-63,14,70,-46,-24,4,-92,-131,-141,-117,-102
-78,-63,14,70,-46,-24,4,-92,-136,-141,-117,-102
-78,-58,19,68,-48,-19,4,-92,-141,-141,-117,-102
-82,-58,24,70,-53,-17,0,-97,-141,-146,-122,-102
-82,-58,24,70,-53,-17,0,-97,-146,-151,-122,-112
-82,-58,24,70,-53,-17,-4,-97,-151,-151,-126,-117
-82,-63,19,73,-51,-21,-4,-102,-151,-156,-131,-122
-82,-63,19,73,-51,-21,-4,-112,-156,-156,-136,-122
-87,-63,24,75,-56,-19,-4,-112,-156,-156,-136,-122
-87,-63,24,75,-56,-19,-4,-112,-161,-156,-141,-122
-87,-63,24,75,-56,-19,-4,-112,-161,-161,-141,-122
-87,-63,24,75,-56,-19,-4,-112,-156,-161,-146,-122
-87,-68,19,78,-53,-24,0,-112,-156,-161,-141,-122
-87,-73,14,80,-51,-29,4,-112,-161,-161,-136,-117
-87,-73,14,80,-51,-29,4,-112,-161,-165,-136,-117
-87,-73,14,80,-51,-29,4,-107,-161,-165,-141,-117
-87,-73,14,80,-51,-29,4,-107,-161,-165,-141,-117
-87,-78,9,82,-48,-34,9,-107,-165,-165,-146,-117
-87,-78,9,82,-48,-34,9,-107,-165,-165,-146,-117
-87,-78,9,82,-48,-34,9,-107,-165,-165,-146,-117
-87,-78,9,82,-48,-34,9,-107,-165,-165,-146,-122
-87,-68,19,78,-53,-24,4,-107,-165,-165,-146,-122
-87,-63,24,75,-56,-19,4,-112,-165,-165,-151,-126
-78,-48,29,63,-53,-9,-9,-112,-151,-156,-146,-117
-73,-19,53,46,-63,17,-19,-112,-141,-136,-131,-102
-63,-4,58,34,-61,26,-24,-107,-126,-126,-122,-92
-53,9,63,21,-58,36,-9,-102,-117,-117,-102,-82
-53,19,73,17,-63,46,0,-92,-102,-107,-92,-78
-48,24,73,12,-61,48,0,-92,-102,-102,-92,-73
-48,24,73,12,-61,48,-4,-92,-97,-97,-87,-73
-48,29,78,9,-63,53,-19,-97,-92,-97,-87,-73
-29,48,78,-9,-53,63,-34,-97,-87,-87,-78,-63
-9,58,68,-24,-39,63,-53,-102,-82,-78,-63,-53
0,63,63,-31,-31,63,-63,-102,-82,-73,-58,-43
4,58,53,-31,-24,56,-73,-102,-82,-73,-58,-34
4,58,53,-31,-24,56,-82,-112,-82,-73,-58,-29
19,63,43,-41,-12,53,-82,-117,-92,-78,-53,-19
19,63,43,-41,-12,53,-82,-117,-102,-92,-53,-19
39,68,29,-53,4,48,-87,-117,-112,-92,-53,-14
43,68,24,-56,9,46,-87,-117,-117,-97,-58,-14
34,58,24,-46,4,41,-78,-122,-131,-112,-68,-24
9,48,39,-29,-14,43,-68,-126,-131,-112,-73,-34
-19,29,48,-4,-34,39,-53,-131,-136,-122,-82,-48
-48,4,53,21,-51,29,-29,-131,-141,-136,-97,-68
-68,-29,39,48,-53,4,-14,-126,-146,-141,-107,-82
-82,-39,43,61,-63,2,-9,-126,-161,-146,-126,-97
-87,-58,29,73,-58,-14,-9,-126,-170,-161,-136,-107
-97,-73,24,85,-61,-24,-4,-131,-190,-180,-151,-126
-102,-92,9,97,-56,-41,-4,-141,-209,-209,-170,-146
-107,-92,14,100,-61,-39,-4,-141,-209,-214,-175,-151
-122,-97,24,109,-73,-36,-4,-141,-209,-209,-175,-151
-122,-102,19,112,-70,-41,0,-146,-214,-209,-175,-156
-122,-102,19,112,-70,-41,0,-151,-214,-219,-190,-156
-122,-107,14,114,-68,-46,0,-151,-214,-224,-195,-161
-126,-107,19,117,-73,-43,4,-151,-214,-224,-195,-161
-131,-117,14,124,-73,-51,9,-151,-214,-224,-195,-165
-131,-112,19,122,-75,-46,14,-141,-214,-224,-195,-165
-136,-107,29,122,-82,-39,19,-136,-214,-229,-200,-165
-131,-107,24,119,-78,-41,19,-136,-214,-229,-200,-165
-131,-112,19,122,-75,-46,19,-136,-214,-229,-200,-161
-131,-117,14,124,-73,-51,29,-136,-219,-239,-204,-170
-151,-122,29,136,-90,-46,53,-136,-209,-253,-224,-204
-214,-141,73,178,-143,-34,107,-131,-195,-268,-287,-263
-248,-146,102,197,-175,-21,141,-131,-180,-273,-307,-283
-268,-170,97,219,-183,-36,180,-97,-185,-302,-346,-312
-209,-185,24,197,-117,-80,200,24,-112,-239,-278,-258
-43,-175,-131,109,43,-153,170,200,34,-58,-92,-97
170,-43,-214,-63,192,-129,43,287,195,190,190,151
419,209,-209,-314,314,0,-209,273,341,507,566,488
702,497,-204,-600,453,146,-517,185,483,873,1010,893
951,805,-146,-878,549,329,-785,82,629,1244,1449,1288
1171,966,-204,-1068,688,380,-951,14,771,1571,1815,1610
1332,961,-370,-1146,851,295,-1000,-34,897,1908,2132,1864
1346,883,-463,-1115,905,209,-976,-126,839,1961,2171,1888
1161,732,-429,-946,795,151,-829,-214,697,1810,2025,1756
966,463,-502,-714,734,-19,-629,-165,531,1478,1688,1459
673,175,-497,-424,585,-161,-400,-117,229,790,980,878
366,-34,-400,-165,383,-217,-209,-102,-39,229,341,331
107,-87,-195,-9,151,-141,-34,-68,-58,68,107,107
-14,-102,-87,58,36,-95,48,-53,-68,4,19,19
-19,-87,-68,53,24,-78,53,-29,-29,0,14,9
-24,-48,-24,36,0,-36,34,-14,-14,-9,4,-4
-29,-53,-24,41,-2,-39,34,-14,-14,-14,-14,-19
-39,-78,-39,58,0,-58,34,-14,-34,-43,-39,-43
-68,-92,-24,80,-21,-58,53,-19,-68,-82,-82,-73
-92,-92,0,92,-46,-46,63,-24,-87,-122,-122,-102
-97,-97,0,97,-48,-48,63,-24,-87,-126,-126,-102
-102,-107,-4,104,-48,-56,63,-24,-87,-126,-131,-112
-112,-107,4,109,-58,-51,68,-24,-92,-141,-146,-126
-122,-107,14,114,-68,-46,73,-24,-97,-151,-156,-136
-122,-102,19,112,-70,-41,73,-24,-97,-151,-156,-136
-122,-102,19,112,-70,-41,73,-14,-92,-151,-156,-131
-122,-102,19,112,-70,-41,78,-9,-92,-146,-151,-131
-117,-102,14,109,-65,-43,78,-4,-87,-146,-151,-131
-117,-107,9,112,-63,-48,78,-4,-87,-146,-151,-131
-117,-107,9,112,-63,-48,78,4,-82,-141,-151,-131
-112,-107,4,109,-58,-51,82,9,-73,-136,-146,-126
-112,-102,9,107,-61,-46,87,14,-63,-131,-141,-126
-107,-102,4,104,-56,-48,87,24,-58,-126,-136,-122
-102,-97,4,100,-53,-46,87,29,-53,-122,-136,-122
-102,-97,4,100,-53,-46,87,29,-43,-112,-126,-117
-97,-92,4,95,-51,-43,87,43,-39,-107,-122,-112
-97,-92,4,95,-51,-43,87,48,-29,-102,-117,-112
-92,-87,4,90,-48,-41,87,58,-19,-92,-112,-107
-92,-82,9,87,-51,-36,87,68,-4,-87,-107,-102
-87,-82,4,85,-46,-39,87,73,4,-78,-102,-102
-82,-73,9,78,-46,-31,82,82,14,-68,-92,-97
-78,-63,14,70,-46,-24,82,97,29,-53,-87,-92
-78,-63,14,70,-46,-24,82,112,43,-48,-78,-87
-73,-58,14,65,-43,-21,87,126,63,-39,-73,-82
-73,-53,19,63,-46,-17,92,136,78,-29,-63,-78
-68,-58,9,63,-39,-24,102,156,87,-14,-53,-68
-63,-48,14,56,-39,-17,107,180,112,-4,-48,-58
-58,-43,14,51,-36,-14,112,195,136,9,-39,-58
-53,-34,19,43,-36,-7,112,214,151,29,-34,-53
-48,-29,19,39,-34,-4,117,234,170,39,-24,-48
-43,-24,19,34,-31,-2,122,253,190,53,-14,-39
-39,-14,24,26,-31,4,126,278,214,68,-4,-34
-29,-9,19,19,-24,4,136,297,239,82,0,-34
-29,0,29,14,-29,14,141,317,263,102,14,-34
-19,4,24,7,-21,14,146,341,287,117,24,-24
-14,9,24,2,-19,17,151,361,307,126,34,-19
-9,14,24,-2,-17,19,151,385,331,151,43,-9
-4,19,24,-7,-14,21,156,409,356,165,53,-9
0,29,29,-14,-14,29,161,434,375,180,63,-4
9,34,24,-21,-7,29,165,448,395,195,68,0
9,39,29,-24,-9,34,170,458,419,200,78,9
14,43,29,-29,-7,36,170,468,434,209,82,14
19,48,29,-34,-4,39,170,478,444,224,92,24
19,53,34,-36,-7,43,170,478,458,229,102,34
24,58,34,-41,-4,46,175,478,468,239,112,43
29,63,34,-46,-2,48,170,463,473,253,122,58
34,68,34,-51,0,51,161,444,483,263,131,68
39,73,34,-56,2,53,151,409,478,263,141,73
39,78,39,-58,0,58,131,380,463,268,141,82
34,78,43,-56,-4,61,117,346,434,268,146,82
34,82,48,-58,-7,65,102,307,390,248,146,82
24,82,58,-53,-17,70,87,258,351,224,136,82
19,73,53,-46,-17,63,73,224,312,195,117,73
9,63,53,-36,-21,58,63,185,258,170,102,63
0,58,58,-29,-29,58,48,141,219,146,82,53
-9,43,53,-17,-31,48,34,97,175,117,68,39
-9,39,48,-14,-29,43,24,68,141,82,43,24
-14,24,39,-4,-26,31,9,39,102,48,24,14
-24,14,39,4,-31,26,9,14,63,24,14,-4
-34,0,34,17,-34,17,9,-4,29,0,-4,-14
-39,-9,29,24,-34,9,4,-29,4,-19,-19,-29
-39,-19,19,29,-29,0,4,-48,-14,-43,-39,-39
-43,-29,14,36,-29,-7,4,-53,-48,-58,-48,-48
-53,-43,9,48,-31,-17,4,-63,-68,-68,-58,-58
-53,-43,9,48,-31,-17,4,-78,-78,-78,-68,-63
-58,-53,4,56,-31,-24,4,-82,-87,-92,-78,-63
-58,-53,4,56,-31,-24,0,-87,-97,-97,-82,-78
-58,-53,4,56,-31,-24,0,-87,-97,-97,-82,-78
-63,-53,9,58,-36,-21,0,-92,-107,-107,-87,-78
-68,-58,9,63,-39,-24,0,-97,-112,-117,-92,-78
-73,-58,14,65,-43,-21,0,-97,-112,-117,-97,-78
-73,-58,14,65,-43,-21,0,-92,-112,-117,-107,-78
-68,-63,4,65,-36,-29,0,-92,-112,-122,-107,-78
-63,-68,-4,65,-29,-36,0,-92,-117,-122,-107,-78
-63,-68,-4,65,-29,-36,0,-92,-117,-122,-107,-82
-63,-68,-4,65,-29,-36,0,-92,-117,-122,-107,-82
-63,-63,0,63,-31,-31,0,-87,-112,-122,-107,-82
-63,-58,4,61,-34,-26,0,-87,-107,-117,-107,-82
-63,-58,4,61,-34,-26,0,-87,-107,-117,-107,-82
-63,-58,4,61,-34,-26,4,-87,-107,-117,-107,-82
-63,-58,4,61,-34,-26,4,-87,-112,-117,-102,-87
-63,-63,0,63,-31,-31,4,-87,-112,-117,-102,-87
-63,-63,0,63,-31,-31,4,-82,-112,-117,-97,-87
-63,-58,4,61,-34,-26,0,-82,-107,-117,-97,-87
-63,-58,4,61,-34,-26,0,-87,-107,-117,-102,-87
-63,-58,4,61,-34,-26,4,-87,-107,-117,-102,-87
-63,-63,0,63,-31,-31,4,-82,-107,-112,-97,-82
-63,-63,0,63,-31,-31,4,-82,-107,-107,-92,-78
-63,-63,0,63,-31,-31,4,-82,-107,-107,-92,-78
-63,-63,0,63,-31,-31,4,-82,-107,-107,-92,-78
-68,-63,4,65,-36,-29,4,-82,-107,-112,-97,-78
-73,-68,4,70,-39,-31,4,-82,-107,-117,-97,-78
-73,-68,4,70,-39,-31,0,-82,-107,-122,-102,-78
-73,-68,4,70,-39,-31,-4,-82,-112,-126,-102,-78
-73,-68,4,70,-39,-31,-4,-82,-112,-126,-102,-78
-73,-68,4,70,-39,-31,-4,-87,-112,-126,-102,-78
-68,-68,0,68,-34,-34,-4,-92,-117,-126,-107,-78
-68,-73,-4,70,-31,-39,-4,-97,-122,-126,-107,-78
-68,-73,-4,70,-31,-39,0,-97,-122,-131,-107,-82
-68,-73,-4,70,-31,-39,4,-97,-126,-131,-107,-87
-73,-68,4,70,-39,-31,4,-92,-122,-131,-112,-87
-78,-68,9,73,-43,-29,4,-92,-122,-131,-112,-87
-78,-73,4,75,-41,-34,4,-92,-122,-131,-117,-92
-78,-73,4,75,-41,-34,4,-92,-126,-131,-117,-92
-73,-68,4,70,-39,-31,9,-97,-131,-131,-117,-92
-73,-68,4,70,-39,-31,9,-107,-131,-136,-122,-92
-73,-68,4,70,-39,-31,9,-107,-131,-141,-117,-97
-73,-68,4,70,-39,-31,4,-107,-131,-141,-117,-97
-73,-78,-4,75,-34,-41,4,-107,-131,-146,-117,-102
-73,-82,-9,78,-31,-46,4,-112,-136,-146,-117,-102
-78,-82,-4,80,-36,-43,4,-112,-136,-146,-117,-102
-78,-82,-4,80,-36,-43,4,-112,-141,-146,-122,-102
-78,-78,0,78,-39,-39,4,-112,-146,-151,-126,-102
-78,-73,4,75,-41,-34,4,-112,-146,-151,-136,-102
-78,-73,4,75,-41,-34,4,-112,-146,-151,-136,-107
-78,-73,4,75,-41,-34,4,-112,-151,-151,-136,-107
-78,-73,4,75,-41,-34,4,-117,-151,-156,-136,-107
-78,-73,4,75,-41,-34,4,-117,-151,-156,-141,-107
-78,-78,0,78,-39,-39,0,-117,-151,-161,-141,-107
-78,-87,-9,82,-34,-48,0,-117,-156,-165,-146,-112
-78,-87,-9,82,-34,-48,0,-117,-156,-165,-146,-107
-78,-87,-9,82,-34,-48,0,-117,-156,-165,-146,-107
-78,-82,-4,80,-36,-43,0,-117,-156,-165,-146,-107
-78,-78,0,78,-39,-39,0,-117,-156,-165,-146,-107
-78,-68,9,73,-43,-29,0,-112,-151,-161,-141,-107
-73,-53,19,63,-46,-17,-9,-112,-141,-151,-131,-102
-68,-39,29,53,-48,-4,-19,-112,-131,-146,-126,-97
-63,-9,53,36,-58,21,-19,-112,-122,-126,-112,-82
-53,4,58,24,-56,31,-14,-107,-107,-117,-102,-73
-43,19,63,12,-53,41,-9,-102,-97,-107,-87,-63
-43,29,73,7,-58,51,-9,-92,-82,-97,-82,-58
-39,34,73,2,-56,53,-9,-92,-82,-92,-82,-53
-29,34,63,-2,-46,48,-14,-92,-82,-87,-78,-53
-19,34,53,-7,-36,43,-29,-97,-82,-87,-78,-53
0,43,43,-21,-21,43,-43,-97,-78,-82,-68,-43
19,48,29,-34,-4,39,-63,-102,-73,-78,-53,-34
24,53,29,-39,-2,41,-73,-102,-73,-73,-48,-29
24,53,29,-39,-2,41,-82,-102,-78,-73,-48,-29
24,58,34,-41,-4,46,-92,-112,-87,-73,-48,-29
39,63,24,-51,7,43,-92,-117,-102,-78,-43,-19
39,63,24,-51,7,43,-92,-117,-112,-92,-43,-19
53,63,9,-58,21,36,-92,-117,-122,-92,-43,-14
48,58,9,-53,19,34,-82,-117,-122,-92,-48,-14
29,48,19,-39,4,34,-68,-122,-131,-102,-58,-24
0,34,34,-17,-17,34,-58,-126,-131,-102,-63,-34
-29,9,39,9,-34,24,-43,-131,-136,-112,-78,-48
-58,-14,43,36,-51,14,-19,-131,-141,-126,-97,-68
-73,-48,24,61,-48,-12,-4,-126,-146,-136,-107,-82
-82,-53,29,68,-56,-12,0,-126,-161,-146,-126,-92
-87,-68,19,78,-53,-24,0,-126,-165,-161,-136,-97
-97,-82,14,90,-56,-34,4,-131,-180,-180,-151,-117
-97,-102,-4,100,-46,-53,4,-141,-200,-204,-170,-131
-97,-102,-4,100,-46,-53,0,-141,-200,-209,-175,-131
-112,-102,9,107,-61,-46,-4,-136,-200,-209,-175,-131
-117,-102,14,109,-65,-43,0,-136,-204,-209,-175,-141
-122,-102,19,112,-70,-41,0,-141,-204,-214,-185,-146
-122,-102,19,112,-70,-41,4,-141,-204,-209,-185,-151
-126,-97,29,112,-78,-34,14,-141,-204,-204,-185,-151
-131,-107,24,119,-78,-41,19,-141,-204,-204,-185,-156
-131,-107,24,119,-78,-41,24,-136,-204,-204,-185,-156
-136,-112,24,124,-80,-43,29,-136,-204,-209,-190,-151
-136,-117,19,126,-78,-48,29,-136,-204,-209,-190,-151
-141,-122,19,131,-80,-51,29,-141,-204,-209,-190,-151
-151,-126,24,139,-87,-51,43,-141,-204,-219,-204,-161
-180,-131,48,156,-114,-41,78,-136,-195,-234,-234,-195
-224,-146,78,185,-151,-34,136,-117,-175,-244,-278,-244
-234,-146,87,190,-161,-29,170,-92,-151,-244,-278,-253
-214,-156,58,185,-136,-48,190,-29,-131,-224,-268,-239
-107,-146,-39,126,-34,-92,175,117,-29,-112,-151,-141
82,-82,-165,0,124,-124,92,253,122,97,78,58
331,102,-229,-217,280,-63,-97,307,292,375,395,346
605,366,-239,-485,422,63,-375,283,448,692,771,697
888,639,-248,-763,568,195,-668,175,590,1029,1190,1083
1102,868,-234,-985,668,317,-878,68,717,1356,1556,1405
1278,946,-331,-1112,805,307,-990,-9,810,1615,1834,1649
1361,902,-458,-1132,910,222,-990,-63,858,1795,2005,1771
1298,795,-502,-1046,900,146,-927,-170,746,1722,1932,1693
1073,595,-478,-834,775,58,-746,-229,566,1449,1664,1464
829,302,-527,-566,678,-112,-507,-136,366,1054,1249,1107
527,68,-458,-297,492,-195,-292,-102,92,468,624,595
229,-92,-322,-68,275,-207,-122,-97,-112,39,112,136
34,-122,-156,43,95,-139,9,-58,-78,-14,19,24
-24,-112,-87,68,31,-100,48,-43,-68,-29,0,0
-29,-87,-58,58,14,-73,48,-19,-29,-24,-4,-4
-34,-63,-29,48,-2,-46,24,-9,-24,-29,-14,-14
-39,-78,-39,58,0,-58,24,-14,-34,-34,-34,-29
-48,-97,-48,73,0,-73,24,-14,-53,-58,-53,-53
-73,-112,-39,92,-17,-75,43,-19,-78,-87,-87,-82
-92,-107,-14,100,-39,-61,53,-24,-87,-122,-122,-112
-97,-107,-9,102,-43,-58,53,-24,-87,-126,-126,-112
-102,-117,-14,109,-43,-65,58,-24,-87,-126,-131,-117
-107,-117,-9,112,-48,-63,68,-24,-92,-136,-141,-122
-112,-117,-4,114,-53,-61,73,-24,-97,-141,-146,-126
-112,-112,0,112,-56,-56,73,-24,-97,-141,-146,-126
-112,-112,0,112,-56,-56,68,-14,-92,-141,-151,-122
-112,-112,0,112,-56,-56,68,-9,-92,-136,-151,-122
-107,-112,-4,109,-51,-58,68,-4,-87,-136,-151,-122
-107,-112,-4,109,-51,-58,68,-4,-87,-136,-151,-122
-107,-107,0,107,-53,-53,73,4,-82,-131,-151,-126
-102,-107,-4,104,-48,-56,78,9,-73,-126,-146,-126
-107,-102,4,104,-56,-48,78,19,-58,-122,-141,-126
-107,-102,4,104,-56,-48,78,34,-48,-117,-136,-122
-102,-97,4,100,-53,-46,78,39,-43,-112,-131,-117
-102,-97,4,100,-53,-46,78,39,-34,-102,-117,-107
-92,-92,0,92,-46,-46,78,53,-34,-97,-112,-102
-87,-92,-4,90,-41,-48,78,58,-29,-92,-107,-102
-82,-87,-4,85,-39,-46,78,68,-19,-82,-102,-97
-82,-82,0,82,-41,-41,78,78,-4,-78,-97,-92
-78,-82,-4,80,-36,-43,78,82,4,-68,-92,-92
-73,-78,-4,75,-34,-41,78,92,14,-58,-82,-87
-68,-73,-4,70,-31,-39,82,107,29,-43,-78,-82
-68,-73,-4,70,-31,-39,82,122,43,-39,-68,-78
-63,-68,-4,65,-29,-36,87,136,63,-24,-63,-73
-58,-58,0,58,-29,-29,87,146,78,-9,-53,-68
-48,-53,-4,51,-21,-29,92,165,87,4,-43,-58
-43,-39,4,41,-24,-17,97,190,112,14,-39,-48
-39,-34,4,36,-21,-14,102,204,136,19,-34,-53
-34,-29,4,31,-19,-12,102,224,151,29,-34,-53
-29,-29,0,29,-14,-14,107,248,165,39,-24,-48
-24,-24,0,24,-12,-12,112,273,180,53,-14,-39
-19,-14,4,17,-12,-4,117,297,204,68,-4,-34
-9,-9,0,9,-4,-4,126,317,229,82,0,-29
-9,0,9,4,-9,4,131,341,253,102,14,-24
0,4,4,-2,-2,4,136,370,278,117,24,-14
4,9,4,-7,0,7,141,390,297,126,34,-4
9,14,4,-12,2,9,141,409,322,146,43,9
14,19,4,-17,4,12,146,429,341,156,53,9
19,29,9,-24,4,19,151,448,356,170,63,14
34,34,0,-34,17,17,156,458,375,185,68,14
39,39,0,-39,19,19,161,468,400,195,78,19
43,53,9,-48,17,31,161,478,414,209,82,24
48,68,19,-58,14,43,161,488,424,224,92,34
48,63,14,-56,17,39,161,488,444,224,102,48
