I,II,III,aVR,aVL,aVF,V1,V2,V3,V4,V5,V6,
0,29,29,-14,-14,29,-68,-78,-9,0,19,29
4,29,24,-17,-9,26,-73,-92,-24,-4,24,34
9,29,19,-19,-4,24,-78,-107,-39,-9,29,39
9,24,14,-17,-2,19,-78,-107,-48,-14,29,43
9,19,9,-14,0,14,-78,-107,-58,-19,29,48
9,14,4,-12,2,9,-78,-112,-58,-19,29,48
9,9,0,-9,4,4,-78,-117,-58,-19,29,48
9,9,0,-9,4,4,-78,-117,-58,-19,29,48
9,9,0,-9,4,4,-78,-117,-58,-19,29,48
14,14,0,-14,7,7,-78,-117,-58,-24,29,48
19,19,0,-19,9,9,-78,-117,-58,-29,29,48
19,19,0,-19,9,9,-78,-117,-63,-29,29,48
19,19,0,-19,9,9,-78,-117,-68,-29,29,48
19,19,0,-19,9,9,-78,-117,-68,-29,29,43
19,19,0,-19,9,9,-78,-117,-68,-29,29,39
19,19,0,-19,9,9,-78,-112,-63,-29,29,39
19,19,0,-19,9,9,-78,-107,-58,-29,29,39
19,19,0,-19,9,9,-73,-102,-53,-29,24,39
19,19,0,-19,9,9,-68,-97,-48,-29,19,39
19,14,-4,-17,12,4,-68,-97,-48,-29,19,34
19,9,-9,-14,14,0,-68,-97,-48,-29,19,29
14,9,-4,-12,9,2,-68,-87,-43,-29,14,29
9,9,0,-9,4,4,-68,-78,-39,-29,9,29
9,4,-4,-7,7,0,-63,-78,-34,-29,9,24
9,0,-9,-4,9,-4,-58,-78,-29,-29,9,19
9,0,-9,-4,9,-4,-53,-73,-24,-24,4,19
9,0,-9,-4,9,-4,-48,-68,-19,-19,0,19
4,-4,-9,0,7,-7,-43,-58,-14,-19,-4,14
0,-9,-9,4,4,-9,-39,-48,-9,-19,-9,9
0,-9,-9,4,4,-9,-39,-43,-9,-19,-9,4
0,-9,-9,4,4,-9,-39,-39,-9,-19,-9,0
-9,-19,-9,14,0,-14,-29,-39,-9,-19,-14,-4
-19,-29,-9,24,-4,-19,-19,-39,-9,-19,-19,-9
-19,-34,-14,26,-2,-24,-19,-34,-9,-19,-24,-14
-19,-39,-19,29,0,-29,-19,-29,-9,-19,-29,-19
-19,-39,-19,29,0,-29,-19,-29,-4,-19,-29,-19
-19,-39,-19,29,0,-29,-19,-29,0,-19,-29,-19
-19,-39,-19,29,0,-29,-19,-29,0,-19,-29,-24
-19,-39,-19,29,0,-29,-19,-29,0,-19,-29,-29
-19,-43,-24,31,2,-34,-19,-29,0,-19,-29,-29
-19,-48,-29,34,4,-39,-19,-29,0,-19,-29,-29
-19,-48,-29,34,4,-39,-19,-29,0,-19,-24,-29
-19,-48,-29,34,4,-39,-19,-29,0,-19,-19,-29
-19,-53,-34,36,7,-43,-19,-29,-4,-19,-19,-29
-19,-58,-39,39,9,-48,-19,-29,-9,-19,-19,-29
-19,-58,-39,39,9,-48,-19,-29,-14,-19,-14,-29
-19,-58,-39,39,9,-48,-19,-29,-19,-19,-9,-29
-14,-53,-39,34,12,-46,-19,-34,-19,-19,-9,-29
-9,-48,-39,29,14,-43,-19,-39,-19,-19,-9,-29
-9,-48,-39,29,14,-43,-19,-39,-19,-19,-9,-24
-9,-48,-39,29,14,-43,-19,-39,-19,-19,-9,-19
-14,-48,-34,31,9,-41,-24,-48,-29,-24,-9,-19
-19,-48,-29,34,4,-39,-29,-58,-39,-29,-9,-19
-19,-53,-34,36,7,-43,-29,-58,-39,-29,-9,-19
-19,-58,-39,39,9,-48,-29,-58,-39,-29,-9,-19
-19,-58,-39,39,9,-48,-34,-58,-39,-29,-4,-19
-19,-58,-39,39,9,-48,-39,-58,-39,-29,0,-19
-14,-58,-43,36,14,-51,-39,-63,-43,-29,0,-19
-9,-58,-48,34,19,-53,-39,-68,-48,-29,0,-19
-9,-58,-48,34,19,-53,-39,-73,-48,-29,0,-19
-9,-58,-48,34,19,-53,-39,-78,-48,-29,0,-19
-14,-58,-43,36,14,-51,-39,-78,-48,-29,0,-14
-19,-58,-39,39,9,-48,-39,-78,-48,-29,0,-9
-19,-58,-39,39,9,-48,-43,-78,-53,-29,0,-9
-19,-58,-39,39,9,-48,-48,-78,-58,-29,0,-9
-19,-58,-39,39,9,-48,-48,-82,-58,-29,4,-9
-19,-58,-39,39,9,-48,-48,-87,-58,-29,9,-9
-19,-53,-34,36,7,-43,-48,-87,-58,-29,9,-9
-19,-48,-29,34,4,-39,-48,-87,-58,-29,9,-9
-14,-48,-34,31,9,-41,-48,-87,-58,-29,9,-9
-9,-48,-39,29,14,-43,-48,-87,-58,-29,9,-9
-9,-48,-39,29,14,-43,-48,-87,-58,-29,9,-4
-9,-48,-39,29,14,-43,-48,-87,-58,-29,9,0
-9,-48,-39,29,14,-43,-48,-87,-58,-29,9,0
-9,-48,-39,29,14,-43,-48,-87,-58,-29,9,0
-9,-48,-39,29,14,-43,-48,-87,-58,-29,9,0
-9,-48,-39,29,14,-43,-48,-87,-58,-29,9,0
-9,-48,-39,29,14,-43,-48,-87,-63,-29,9,0
-9,-48,-39,29,14,-43,-48,-87,-68,-29,9,0
-9,-48,-39,29,14,-43,-48,-87,-68,-29,9,0
-9,-48,-39,29,14,-43,-48,-87,-68,-29,9,0
-9,-43,-34,26,12,-39,-48,-92,-68,-29,9,4
-9,-39,-29,24,9,-34,-48,-97,-68,-29,9,9
-9,-39,-29,24,9,-34,-48,-97,-68,-29,9,9
-9,-39,-29,24,9,-34,-48,-97,-68,-29,9,9
-9,-39,-29,24,9,-34,-48,-92,-68,-29,14,9
-9,-39,-29,24,9,-34,-48,-87,-68,-29,19,9
-4,-34,-29,19,12,-31,-43,-82,-63,-24,19,9
0,-29,-29,14,14,-29,-39,-78,-58,-19,19,9
14,-9,-24,-2,19,-17,-29,-63,-39,-4,34,19
29,9,-19,-19,24,-4,-19,-48,-19,9,48,29
29,34,4,-31,12,19,-4,-34,0,24,63,43
29,58,29,-43,0,43,9,-19,19,39,78,58
34,68,34,-51,0,51,14,-14,24,43,82,58
39,73,34,-56,2,53,14,-4,29,48,87,63
43,82,39,-63,2,61,19,0,39,58,92,68
53,82,29,-68,12,56,4,9,48,63,92,73
63,92,29,-78,17,61,-14,14,53,73,107,78
73,117,43,-95,14,80,-39,14,73,87,117,97
78,141,63,-109,7,102,-68,4,73,102,136,107
82,151,68,-117,7,109,-82,-9,68,97,136,117
82,141,58,-112,12,100,-102,-29,53,92,136,117
73,126,53,-100,9,90,-107,-43,24,68,126,112
68,117,48,-92,9,82,-102,-53,4,63,122,102
73,102,29,-87,21,65,-92,-68,-4,63,122,92
73,112,39,-92,17,75,-87,-68,-4,63,122,102
87,122,34,-104,26,78,-87,-58,9,82,141,117
87,131,43,-109,21,87,-87,-58,9,78,146,122
87,107,19,-97,34,63,-87,-68,-9,58,122,102
68,73,4,-70,31,39,-87,-87,-24,34,102,87
58,48,-9,-53,34,19,-82,-87,-39,24,97,78
58,39,-19,-48,39,9,-82,-87,-39,24,92,78
58,34,-24,-46,41,4,-78,-78,-43,24,92,73
53,24,-29,-39,41,-2,-73,-78,-43,14,82,58
34,9,-24,-21,29,-7,-58,-82,-48,0,68,39
-9,-43,-34,26,12,-39,-48,-97,-68,-24,34,4
-34,-78,-43,56,4,-61,-39,-112,-92,-53,4,-4
-34,-73,-39,53,2,-56,-39,-117,-92,-53,4,-4
-34,-68,-34,51,0,-51,-39,-117,-87,-53,4,-4
-34,-68,-34,51,0,-51,-43,-117,-87,-48,4,-4
-24,-68,-43,46,9,-56,-43,-117,-92,-43,4,-4
-24,-68,-43,46,9,-56,-43,-117,-92,-43,4,-9
-29,-68,-39,48,4,-53,-39,-112,-87,-43,4,-14
-29,-68,-39,48,4,-53,-39,-112,-87,-43,4,-14
-29,-73,-43,51,7,-58,-39,-112,-87,-43,4,-14
-29,-73,-43,51,7,-58,-39,-107,-87,-48,0,-14
-29,-73,-43,51,7,-58,-34,-107,-87,-53,-9,-14
-29,-73,-43,51,7,-58,-34,-107,-87,-53,-9,-19
-29,-73,-43,51,7,-58,-34,-107,-87,-58,-9,-19
-34,-73,-39,53,2,-56,-34,-107,-87,-58,-9,-19
-34,-73,-39,53,2,-56,-34,-107,-87,-58,-9,-19
-34,-73,-39,53,2,-56,-34,-107,-87,-53,-9,-19
-34,-73,-39,53,2,-56,-34,-102,-82,-48,-9,-19
-34,-73,-39,53,2,-56,-39,-97,-82,-43,-4,-19
-19,-63,-43,41,12,-53,-48,-63,-63,-14,9,0
14,-48,-63,17,39,-56,-58,0,-4,24,34,4
14,-39,-53,12,34,-46,-68,-34,34,43,34,4
14,-14,-29,0,21,-21,-87,-234,14,39,43,14
14,14,0,-14,7,7,-102,-453,-53,68,82,43
29,78,48,-53,-9,63,-224,-795,-283,175,229,146
165,341,175,-253,-4,258,-527,-1288,-575,468,614,458
405,785,380,-595,12,583,-922,-1708,-834,819,1117,912
634,1088,453,-861,90,771,-1376,-2327,-1361,863,1410,1244
897,1254,356,-1076,270,805,-1766,-2815,-1912,888,1727,1576
1137,1342,204,-1239,466,773,-1971,-2952,-2259,917,2020,1893
1229,1371,141,-1300,544,756,-2049,-3045,-2464,941,2259,2152
1141,1385,244,-1263,448,814,-2069,-3235,-2552,1015,2488,2400
1034,1283,248,-1159,392,766,-1956,-3176,-2420,907,2493,2498
878,941,63,-910,407,502,-1712,-2786,-2161,444,1878,2083
610,522,-87,-566,348,217,-1137,-1898,-1668,-209,917,1351
380,146,-234,-263,307,-43,-624,-1088,-1156,-634,175,697
287,-29,-317,-129,302,-173,-370,-605,-736,-468,9,390
122,-29,-151,-46,136,-90,-185,-375,-434,-302,-19,200
-14,-48,-34,31,9,-41,-14,-131,-170,-141,-53,14
-78,-82,-4,80,-36,-43,97,48,-14,-68,-92,-107
-82,-107,-24,95,-29,-65,126,107,34,-68,-122,-141
-92,-126,-34,109,-29,-80,136,112,43,-68,-122,-141
-92,-131,-39,112,-26,-85,136,117,48,-63,-112,-131
-92,-131,-39,112,-26,-85,136,141,63,-58,-112,-131
-87,-126,-39,107,-24,-82,136,161,73,-58,-126,-141
-87,-126,-39,107,-24,-82,141,165,87,-58,-131,-141
-87,-126,-39,107,-24,-82,146,165,97,-58,-126,-141
-87,-126,-39,107,-24,-82,146,175,107,-58,-126,-141
-87,-126,-39,107,-24,-82,146,185,117,-58,-126,-141
-82,-122,-39,102,-21,-80,146,190,122,-63,-126,-141
-82,-122,-39,102,-21,-80,146,200,126,-63,-126,-141
-82,-122,-39,102,-21,-80,146,200,136,-58,-126,-141
-82,-122,-39,102,-21,-80,146,209,141,-58,-126,-146
-82,-122,-39,102,-21,-80,151,219,146,-58,-126,-156
-87,-122,-34,104,-26,-78,156,219,151,-58,-131,-156
-87,-117,-29,102,-29,-73,156,229,161,-58,-131,-156
-82,-117,-34,100,-24,-75,156,234,165,-58,-136,-156
-82,-117,-34,100,-24,-75,161,239,175,-58,-136,-161
-82,-117,-34,100,-24,-75,161,248,175,-53,-136,-161
-82,-117,-34,100,-24,-75,165,258,185,-53,-136,-161
-82,-112,-29,97,-26,-70,165,263,195,-53,-136,-161
-82,-112,-29,97,-26,-70,165,268,200,-48,-141,-161
-82,-112,-29,97,-26,-70,175,278,204,-48,-141,-165
-82,-112,-29,97,-26,-70,180,292,219,-48,-141,-165
-82,-112,-29,97,-26,-70,185,297,229,-48,-146,-165
-82,-112,-29,97,-26,-70,185,302,229,-48,-146,-170
-82,-112,-29,97,-26,-70,180,312,239,-48,-156,-175
-87,-112,-24,100,-31,-68,180,322,244,-48,-165,-180
-87,-117,-29,102,-29,-73,180,331,248,-48,-170,-180
-87,-117,-29,102,-29,-73,185,341,253,-48,-170,-190
-92,-126,-34,109,-29,-80,195,356,258,-48,-185,-195
-92,-131,-39,112,-26,-85,204,370,268,-53,-185,-195
-92,-131,-39,112,-26,-85,209,380,278,-53,-185,-200
-92,-131,-39,112,-26,-85,209,395,287,-53,-195,-204
-97,-131,-34,114,-31,-82,219,414,292,-58,-195,-209
-102,-136,-34,119,-34,-85,219,429,302,-63,-204,-219
-102,-136,-34,119,-34,-85,229,448,317,-68,-209,-219
-102,-131,-29,117,-36,-80,239,468,326,-68,-214,-224
-102,-136,-34,119,-34,-85,244,492,336,-68,-229,-234
-97,-136,-39,117,-29,-87,248,517,346,-73,-229,-239
-97,-136,-39,117,-29,-87,258,541,361,-73,-239,-253
-97,-136,-39,117,-29,-87,268,566,375,-73,-244,-258
-112,-146,-34,129,-39,-90,283,595,395,-78,-248,-268
-117,-151,-34,134,-41,-92,292,624,409,-78,-258,-268
-117,-151,-34,134,-41,-92,302,653,424,-78,-273,-283
-117,-151,-34,134,-41,-92,317,678,439,-82,-287,-292
-122,-151,-29,136,-46,-90,326,707,463,-87,-302,-302
-131,-151,-19,141,-56,-85,346,741,483,-92,-317,-317
-136,-156,-19,146,-58,-87,361,771,502,-97,-326,-326
-146,-156,-9,151,-68,-82,375,800,522,-102,-346,-346
-146,-156,-9,151,-68,-82,390,829,546,-107,-361,-361
-151,-156,-4,153,-73,-80,414,858,566,-112,-380,-380
-170,-156,14,163,-92,-70,429,883,585,-126,-400,-400
-175,-161,14,168,-95,-73,439,912,605,-141,-419,-419
-180,-161,19,170,-100,-70,463,936,624,-146,-448,-429
-190,-161,29,175,-109,-65,473,961,649,-156,-468,-448
-209,-161,48,185,-129,-56,488,976,668,-161,-483,-468
-224,-161,63,192,-143,-48,502,980,678,-165,-507,-488
-239,-161,78,200,-158,-41,512,985,692,-170,-527,-507
-244,-161,82,202,-163,-39,522,980,702,-175,-541,-527
-253,-161,92,207,-173,-34,527,980,707,-175,-551,-536
-263,-161,102,212,-183,-29,527,966,712,-175,-561,-546
-268,-161,107,214,-187,-26,522,941,712,-165,-561,-546
-263,-161,102,212,-183,-29,512,922,712,-156,-561,-541
-263,-141,122,202,-192,-9,497,883,702,-151,-551,-536
-258,-131,126,195,-192,-2,468,839,678,-136,-536,-522
-248,-126,122,187,-185,-2,439,785,653,-122,-512,-512
-244,-112,131,178,-187,9,409,722,624,-97,-488,-478
-229,-92,136,161,-183,21,380,658,590,-78,-453,-448
-214,-73,141,143,-178,34,336,585,536,-63,-414,-409
-200,-53,146,126,-173,46,287,502,497,-43,-366,-370
-175,-29,146,102,-161,58,248,424,439,-29,-326,-322
-156,-19,136,87,-146,58,204,351,385,-24,-273,-273
-131,0,131,65,-131,65,165,283,331,-14,-229,-229
-112,19,131,46,-122,75,126,214,273,4,-185,-185
-92,29,122,31,-107,75,87,156,229,19,-136,-131
-68,39,107,14,-87,73,53,107,185,19,-92,-92
-43,48,92,-2,-68,70,29,68,146,24,-58,-58
-24,53,78,-14,-51,65,0,29,112,29,-34,-29
-19,53,73,-17,-46,63,-19,-9,73,34,-9,-9
-9,53,63,-21,-36,58,-34,-34,43,34,9,9
0,53,53,-26,-26,53,-43,-53,24,29,34,29
9,58,48,-34,-19,53,-58,-68,14,24,39,39
19,63,43,-41,-12,53,-63,-87,-4,19,53,48
14,58,43,-36,-14,51,-68,-92,-14,19,58,58
14,48,34,-31,-9,41,-68,-97,-24,19,68,63
14,43,29,-29,-7,36,-68,-97,-29,14,68,63
19,43,24,-31,-2,34,-73,-97,-29,14,68,68
24,43,19,-34,2,31,-73,-102,-34,19,68,68
24,48,24,-36,0,36,-78,-102,-39,19,68,73
24,43,19,-34,2,31,-78,-102,-39,19,68,73
19,39,19,-29,0,29,-78,-102,-43,14,68,68
19,29,9,-24,4,19,-68,-102,-43,9,68,68
24,29,4,-26,9,17,-63,-102,-43,9,68,68
24,29,4,-26,9,17,-63,-97,-43,9,68,68
19,29,9,-24,4,19,-63,-87,-43,9,68,73
19,29,9,-24,4,19,-58,-87,-43,9,68,73
24,24,0,-24,12,12,-53,-87,-43,9,63,73
24,24,0,-24,12,12,-53,-87,-43,4,63,73
24,24,0,-24,12,12,-48,-82,-39,4,63,73
24,24,0,-24,12,12,-48,-78,-39,0,58,73
19,24,4,-21,7,14,-48,-73,-39,-4,53,68
19,19,0,-19,9,9,-53,-73,-34,-4,43,63
19,19,0,-19,9,9,-53,-73,-34,-4,43,58
19,14,-4,-17,12,4,-43,-68,-29,-4,43,53
14,14,0,-14,7,7,-39,-68,-29,-9,39,43
14,14,0,-14,7,7,-39,-63,-29,-4,34,43
14,14,0,-14,7,7,-39,-58,-24,-4,34,39
9,14,4,-12,2,9,-34,-53,-24,-4,24,34
4,14,9,-9,-2,12,-29,-48,-19,-9,19,24
0,9,9,-4,-4,9,-19,-48,-19,-9,14,24
-4,9,14,-2,-9,12,-14,-39,-19,-9,14,24
-9,4,14,2,-12,9,-9,-39,-14,-14,4,24
-19,-4,14,12,-17,4,-4,-34,-14,-14,4,14
-19,-9,9,14,-14,0,0,-34,-9,-14,-4,4
-24,-14,9,19,-17,-2,0,-29,-9,-14,-4,0
-29,-14,14,21,-21,0,0,-24,-4,-14,-9,0
-29,-19,9,24,-19,-4,0,-24,-4,-19,-14,-4
-29,-24,4,26,-17,-9,0,-19,0,-19,-19,-4
-34,-29,4,31,-19,-12,9,-14,0,-19,-19,-14
-34,-29,4,31,-19,-12,9,-19,0,-19,-19,-19
-34,-29,4,31,-19,-12,9,-24,4,-19,-19,-19
-39,-29,9,34,-24,-9,14,-24,0,-19,-19,-19
-39,-39,0,39,-19,-19,14,-19,-4,-19,-24,-29
-39,-39,0,39,-19,-19,14,-19,-4,-19,-29,-29
-39,-43,-4,41,-17,-24,14,-19,-4,-24,-34,-34
-34,-48,-14,41,-9,-31,14,-19,-9,-29,-39,-34
-34,-48,-14,41,-9,-31,14,-19,-9,-29,-39,-39
-34,-48,-14,41,-9,-31,14,-29,-9,-29,-39,-39
-34,-48,-14,41,-9,-31,14,-34,-9,-29,-39,-39
-29,-53,-24,41,-2,-39,9,-39,-19,-34,-39,-39
-29,-53,-24,41,-2,-39,4,-39,-29,-34,-39,-39
-29,-53,-24,41,-2,-39,4,-34,-29,-34,-34,-34
-24,-53,-29,39,2,-41,4,-34,-34,-34,-29,-29
-24,-53,-29,39,2,-41,0,-39,-39,-34,-29,-29
-29,-53,-24,41,-2,-39,0,-48,-39,-39,-29,-29
-29,-53,-24,41,-2,-39,0,-53,-34,-39,-29,-29
-24,-53,-29,39,2,-41,-4,-58,-34,-39,-24,-24
-24,-53,-29,39,2,-41,0,-63,-39,-39,-24,-24
-24,-53,-29,39,2,-41,0,-63,-39,-39,-24,-24
-24,-53,-29,39,2,-41,-4,-68,-43,-39,-24,-24
-19,-53,-34,36,7,-43,-9,-68,-43,-39,-24,-24
-19,-48,-29,34,4,-39,-14,-73,-48,-39,-24,-19
-19,-48,-29,34,4,-39,-19,-78,-53,-34,-24,-19
-19,-48,-29,34,4,-39,-19,-78,-53,-34,-24,-14
-19,-48,-29,34,4,-39,-24,-82,-53,-34,-19,-14
-19,-48,-29,34,4,-39,-24,-82,-58,-34,-19,-14
-14,-48,-34,31,9,-41,-29,-82,-58,-34,-19,-14
-14,-43,-29,29,7,-36,-29,-87,-63,-34,-19,-9
-9,-43,-34,26,12,-39,-29,-87,-63,-39,-19,-9
-9,-43,-34,26,12,-39,-29,-82,-63,-39,-19,-9
-9,-43,-34,26,12,-39,-29,-82,-63,-34,-19,-9
-9,-43,-34,26,12,-39,-34,-82,-63,-34,-14,-9
-9,-43,-34,26,12,-39,-34,-82,-68,-34,-14,-9
-9,-43,-34,26,12,-39,-34,-87,-68,-43,-14,-9
-9,-43,-34,26,12,-39,-39,-87,-68,-48,-14,-9
-9,-39,-29,24,9,-34,-39,-87,-73,-43,-14,-14
-9,-39,-29,24,9,-34,-34,-87,-73,-43,-14,-14
-9,-39,-29,24,9,-34,-34,-87,-73,-39,-14,-14
-9,-39,-29,24,9,-34,-34,-92,-73,-34,-14,-14
-9,-39,-29,24,9,-34,-34,-92,-73,-34,-14,-14
-9,-39,-29,24,9,-34,-29,-92,-73,-34,-14,-14
-9,-39,-29,24,9,-34,-29,-92,-73,-34,-9,-9
-4,-39,-34,21,14,-36,-29,-92,-73,-34,-9,-9
-9,-39,-29,24,9,-34,-34,-92,-73,-39,-9,-9
-9,-43,-34,26,12,-39,-39,-92,-68,-39,-9,-9
-9,-43,-34,26,12,-39,-39,-97,-73,-39,-9,-4
-4,-39,-34,21,14,-36,-39,-102,-78,-39,-9,-4
-4,-39,-34,21,14,-36,-39,-97,-73,-34,-9,0
-4,-39,-34,21,14,-36,-39,-97,-73,-34,-9,0
-4,-39,-34,21,14,-36,-43,-97,-73,-34,-9,0
-9,-39,-29,24,9,-34,-48,-97,-78,-39,-9,0
-9,-39,-29,24,9,-34,-48,-97,-78,-39,-9,0
-9,-39,-29,24,9,-34,-48,-97,-78,-39,-9,0
-9,-34,-24,21,7,-29,-48,-97,-78,-39,-4,0
-9,-29,-19,19,4,-24,-48,-97,-78,-39,0,0
-9,-29,-19,19,4,-24,-43,-97,-78,-39,0,0
-9,-29,-19,19,4,-24,-39,-97,-78,-39,0,0
-4,-29,-24,17,9,-26,-39,-97,-78,-39,0,0
0,-29,-29,14,14,-29,-39,-97,-78,-39,0,0
0,-29,-29,14,14,-29,-39,-92,-68,-34,0,0
0,-29,-29,14,14,-29,-39,-87,-58,-29,0,0
14,-4,-19,-4,17,-12,-24,-68,-43,-19,14,9
29,19,-9,-24,19,4,-9,-48,-29,-9,29,19
34,43,9,-39,12,26,4,-39,-9,9,39,34
39,68,29,-53,4,48,19,-29,9,29,48,48
39,68,29,-53,4,48,24,-19,9,29,53,48
39,68,29,-53,4,48,24,-9,14,34,58,48
43,73,29,-58,7,51,29,0,19,39,63,53
53,73,19,-63,17,46,14,9,29,43,63,53
73,87,14,-80,29,51,0,14,34,53,78,58
92,117,24,-104,34,70,-19,14,53,68,87,78
82,146,63,-114,9,104,-48,4,58,87,107,92
73,161,87,-117,-7,124,-63,-9,58,87,107,107
73,151,78,-112,-2,114,-87,-29,43,82,107,107
63,136,73,-100,-4,104,-97,-43,14,58,97,102
53,117,63,-85,-4,90,-97,-53,-9,48,87,92
53,92,39,-73,7,65,-92,-68,-24,43,82,82
53,102,48,-78,2,75,-82,-68,-19,48,87,92
68,112,43,-90,12,78,-78,-58,0,73,112,107
68,126,58,-97,4,92,-78,-58,0,73,122,112
68,107,39,-87,14,73,-78,-68,-19,58,102,92
53,73,19,-63,17,46,-78,-87,-34,34,78,78
48,48,0,-48,24,24,-73,-87,-48,24,68,68
53,43,-9,-48,31,17,-78,-87,-48,24,63,68
58,43,-14,-51,36,14,-78,-78,-53,24,63,63
58,34,-24,-46,41,4,-73,-78,-53,14,53,48
43,19,-24,-31,34,-2,-58,-82,-58,0,39,29
0,-34,-34,17,17,-34,-48,-97,-78,-24,4,-9
-24,-68,-43,46,9,-56,-39,-112,-102,-53,-24,-24
-24,-63,-39,43,7,-51,-39,-117,-102,-53,-24,-24
-24,-58,-34,41,4,-46,-39,-117,-97,-53,-24,-24
-24,-58,-34,41,4,-46,-43,-117,-97,-53,-24,-24
-14,-58,-43,36,14,-51,-43,-117,-102,-53,-24,-24
-14,-58,-43,36,14,-51,-43,-117,-102,-58,-24,-24
-19,-58,-39,39,9,-48,-39,-112,-97,-63,-24,-24
-19,-63,-43,41,12,-53,-39,-112,-97,-63,-24,-24
-19,-73,-53,46,17,-63,-39,-112,-97,-63,-24,-24
-24,-73,-48,48,12,-61,-39,-107,-97,-63,-24,-24
-29,-73,-43,51,7,-58,-34,-107,-97,-63,-29,-24
-29,-73,-43,51,7,-58,-34,-107,-97,-63,-29,-29
-29,-73,-43,51,7,-58,-34,-107,-97,-68,-29,-29
-34,-73,-39,53,2,-56,-29,-107,-97,-68,-29,-29
-34,-73,-39,53,2,-56,-24,-107,-97,-68,-29,-29
-34,-73,-39,53,2,-56,-19,-107,-97,-68,-29,-29
-34,-73,-39,53,2,-56,-14,-102,-92,-68,-29,-29
-34,-73,-39,53,2,-56,-19,-107,-92,-63,-24,-29
-19,-63,-43,41,12,-53,-29,-82,-73,-34,-9,-9
14,-53,-68,19,41,-61,-39,9,-14,4,14,-4
14,-48,-63,17,39,-56,-48,4,24,24,14,-4
9,-39,-48,14,29,-43,-58,-156,19,4,0,-14
4,-24,-29,9,17,-26,-63,-336,-34,19,14,-4
-14,9,24,2,-19,17,-151,-673,-239,102,122,63
87,244,156,-165,-34,200,-419,-1161,-507,370,468,341
317,727,409,-522,-46,568,-805,-1571,-717,785,1029,829
536,1068,531,-802,2,800,-1249,-2181,-1195,893,1381,1195
819,1263,444,-1041,187,854,-1673,-2718,-1786,927,1712,1546
1078,1381,302,-1229,387,841,-1912,-2903,-2171,966,2020,1883
1210,1415,204,-1312,502,810,-2025,-3001,-2425,1000,2293,2161
1161,1434,273,-1298,444,854,-2078,-3196,-2562,1083,2557,2430
1078,1385,307,-1232,385,846,-2030,-3250,-2479,1073,2708,2659
946,1098,151,-1022,397,624,-1849,-2971,-2269,707,2239,2376
668,610,-58,-639,363,275,-1244,-2059,-1786,-82,1141,1561
429,165,-263,-297,346,-48,-702,-1224,-1283,-644,263,824
331,-34,-366,-148,348,-200,-424,-697,-839,-512,39,473
161,-58,-219,-51,190,-139,-214,-424,-512,-380,-48,239
9,-73,-82,31,46,-78,-29,-165,-219,-185,-82,34
-68,-102,-34,85,-17,-68,97,29,-34,-78,-122,-107
-73,-126,-53,100,-9,-90,126,97,24,-73,-151,-146
-82,-146,-63,114,-9,-104,136,112,43,-68,-151,-151
-82,-146,-63,114,-9,-104,136,117,48,-68,-141,-141
-82,-141,-58,112,-12,-100,136,141,63,-68,-141,-141
-78,-136,-58,107,-9,-97,141,161,73,-68,-151,-151
-78,-136,-58,107,-9,-97,151,165,87,-68,-151,-151
-78,-136,-58,107,-9,-97,156,170,97,-68,-146,-151
-78,-136,-58,107,-9,-97,156,185,107,-68,-146,-151
-82,-136,-53,109,-14,-95,161,195,117,-63,-146,-156
-82,-131,-48,107,-17,-90,165,200,122,-63,-146,-161
-82,-131,-48,107,-17,-90,165,209,126,-63,-146,-161
-82,-131,-48,107,-17,-90,165,209,136,-58,-146,-161
-82,-131,-48,107,-17,-90,161,219,141,-58,-146,-156
-82,-131,-48,107,-17,-90,161,229,146,-58,-146,-156
-87,-131,-43,109,-21,-87,165,229,151,-58,-151,-156
-87,-126,-39,107,-24,-82,165,239,161,-58,-151,-156
-82,-126,-43,104,-19,-85,165,244,165,-58,-156,-156
-82,-126,-43,104,-19,-85,170,248,175,-58,-156,-161
-82,-126,-43,104,-19,-85,170,253,175,-53,-156,-161
-82,-126,-43,104,-19,-85,175,258,185,-53,-156,-161
-82,-122,-39,102,-21,-80,175,263,195,-53,-156,-165
-82,-122,-39,102,-21,-80,175,268,200,-48,-161,-170
-82,-117,-34,100,-24,-75,180,278,204,-48,-161,-175
-82,-112,-29,97,-26,-70,180,292,219,-48,-161,-175
-82,-112,-29,97,-26,-70,185,297,229,-48,-165,-175
-82,-112,-29,97,-26,-70,185,302,229,-48,-165,-180
-82,-112,-29,97,-26,-70,185,312,239,-48,-170,-180
-87,-112,-24,100,-31,-68,190,322,244,-48,-175,-180
-87,-117,-29,102,-29,-73,190,331,248,-48,-180,-180
-87,-117,-29,102,-29,-73,195,341,253,-48,-180,-190
-92,-126,-34,109,-29,-80,200,356,258,-48,-195,-200
-92,-131,-39,112,-26,-85,204,370,268,-53,-195,-204
-92,-131,-39,112,-26,-85,209,380,273,-53,-195,-209
-92,-131,-39,112,-26,-85,209,395,278,-53,-204,-214
-92,-131,-39,112,-26,-85,219,414,283,-53,-204,-219
-92,-136,-43,114,-24,-90,219,429,292,-53,-214,-229
-92,-141,-48,117,-21,-95,229,448,307,-58,-219,-229
-92,-141,-48,117,-21,-95,239,468,317,-58,-224,-234
-97,-146,-48,122,-24,-97,244,488,326,-58,-239,-244
-97,-146,-48,122,-24,-97,248,507,336,-63,-239,-248
-97,-146,-48,122,-24,-97,258,531,351,-68,-248,-263
-97,-146,-48,122,-24,-97,268,556,366,-73,-253,-268
-107,-156,-48,131,-29,-102,283,585,380,-78,-263,-278
-107,-161,-53,134,-26,-107,292,614,390,-78,-278,-278
-107,-161,-53,134,-26,-107,302,644,409,-78,-287,-292
-107,-161,-53,134,-26,-107,317,668,429,-82,-297,-302
-112,-156,-43,134,-34,-100,326,697,453,-87,-312,-312
-122,-151,-29,136,-46,-90,346,732,473,-92,-326,-326
-131,-156,-24,143,-53,-90,361,761,492,-97,-336,-336
-146,-156,-9,151,-68,-82,375,790,512,-102,-356,-356
-146,-161,-14,153,-65,-87,390,819,536,-107,-370,-370
-151,-165,-14,158,-68,-90,414,849,556,-112,-390,-390
-170,-165,4,168,-87,-80,429,873,575,-122,-409,-409
-175,-170,4,173,-90,-82,439,902,595,-131,-429,-429
-180,-175,4,178,-92,-85,463,927,614,-141,-458,-444
-190,-180,9,185,-100,-85,473,951,639,-156,-478,-468
-204,-180,24,192,-114,-78,488,976,663,-156,-492,-488
-214,-180,34,197,-124,-73,502,990,678,-156,-517,-507
-229,-175,53,202,-141,-61,512,1000,692,-161,-536,-522
-234,-170,63,202,-148,-53,522,1000,702,-165,-551,-536
-244,-170,73,207,-158,-48,527,1005,717,-165,-561,-546
-253,-170,82,212,-168,-43,527,995,732,-165,-570,-556
-263,-170,92,217,-178,-39,522,971,732,-156,-575,-561
-263,-170,92,217,-178,-39,512,951,732,-146,-580,-561
-263,-151,112,207,-187,-19,507,917,722,-146,-575,-561
-258,-141,117,200,-187,-12,488,878,697,-136,-566,-551
-248,-136,112,192,-180,-12,458,824,673,-122,-541,-541
-244,-122,122,183,-183,0,429,761,644,-97,-517,-507
-229,-102,126,165,-178,12,400,697,610,-78,-483,-478
-214,-82,131,148,-173,24,356,624,556,-63,-444,-439
-200,-63,136,131,-168,36,307,541,517,-39,-395,-400
-175,-39,136,107,-156,48,268,463,458,-19,-356,-351
-156,-29,126,92,-141,48,224,390,405,-14,-297,-302
-131,-9,122,70,-126,56,185,322,351,-4,-248,-258
-112,9,122,51,-117,65,146,248,292,9,-204,-214
-92,19,112,36,-102,65,107,185,248,19,-156,-161
-68,34,102,17,-85,68,73,131,200,19,-107,-117
-43,48,92,-2,-68,70,48,87,156,24,-68,-78
-24,53,78,-14,-51,65,14,43,117,24,-43,-48
-19,53,73,-17,-46,63,-9,0,73,24,-19,-29
-9,48,58,-19,-34,53,-24,-24,39,29,0,-4
0,43,43,-21,-21,43,-34,-43,14,29,24,19
9,43,34,-26,-12,39,-53,-58,4,24,34,29
19,43,24,-31,-2,34,-63,-78,-14,19,53,39
19,48,29,-34,-4,39,-68,-87,-24,19,58,53
24,48,24,-36,0,36,-68,-97,-34,19,68,63
19,43,24,-31,-2,34,-68,-97,-39,14,68,63
19,43,24,-31,-2,34,-73,-97,-39,14,68,68
24,39,14,-31,4,26,-73,-102,-43,14,68,68
24,39,14,-31,4,26,-78,-102,-48,9,68,73
24,39,14,-31,4,26,-78,-102,-48,9,68,73
19,39,19,-29,0,29,-78,-102,-53,4,68,68
19,29,9,-24,4,19,-73,-102,-53,0,68,68
24,29,4,-26,9,17,-73,-102,-53,0,68,68
24,29,4,-26,9,17,-68,-102,-53,0,68,68
19,29,9,-24,4,19,-63,-97,-53,0,68,73
19,29,9,-24,4,19,-63,-97,-53,0,68,73
24,24,0,-24,12,12,-63,-97,-53,0,63,73
24,24,0,-24,12,12,-63,-97,-53,-4,63,68
24,24,0,-24,12,12,-58,-92,-48,-4,63,63
24,24,0,-24,12,12,-58,-87,-48,-4,63,63
19,24,4,-21,7,14,-58,-82,-48,-4,63,58
19,19,0,-19,9,9,-58,-82,-43,-4,53,53
19,19,0,-19,9,9,-53,-82,-43,-4,53,48
19,14,-4,-17,12,4,-43,-78,-39,-4,53,48
14,14,0,-14,7,7,-39,-78,-39,-9,48,43
14,14,0,-14,7,7,-39,-73,-39,-9,43,48
14,14,0,-14,7,7,-39,-68,-34,-14,43,48
9,9,0,-9,4,4,-34,-63,-34,-14,34,43
4,4,0,-4,2,2,-29,-58,-29,-19,29,34
4,0,-4,-2,4,-2,-24,-58,-29,-19,24,29
4,0,-4,-2,4,-2,-24,-48,-29,-19,24,24
0,0,0,0,0,0,-19,-48,-24,-24,9,24
-9,-4,4,7,-7,0,-14,-43,-24,-24,4,14
-9,-9,0,9,-4,-4,-4,-43,-19,-24,-4,4
-14,-14,0,14,-7,-7,0,-39,-19,-24,-4,0
-19,-14,4,17,-12,-4,4,-34,-14,-24,-9,0
-19,-19,0,19,-9,-9,9,-34,-14,-29,-14,-4
-19,-24,-4,21,-7,-14,4,-29,-9,-29,-19,-4
-24,-29,-4,26,-9,-17,9,-24,-9,-29,-19,-14
-24,-29,-4,26,-9,-17,9,-24,-9,-29,-24,-19
-24,-29,-4,26,-9,-17,9,-24,-4,-29,-29,-19
-29,-29,0,29,-14,-14,19,-24,-4,-29,-29,-19
-29,-39,-9,34,-9,-24,24,-19,-4,-29,-34,-29
-29,-39,-9,34,-9,-24,24,-19,-4,-29,-34,-29
-29,-43,-14,36,-7,-29,24,-19,-4,-34,-34,-34
-29,-48,-19,39,-4,-34,19,-19,-9,-34,-34,-34
-34,-48,-14,41,-9,-31,14,-19,-9,-29,-29,-39
-39,-48,-9,43,-14,-29,14,-29,-9,-29,-29,-39
-43,-48,-4,46,-19,-26,14,-34,-9,-29,-29,-39
-39,-53,-14,46,-12,-34,9,-39,-14,-34,-34,-39
-39,-53,-14,46,-12,-34,4,-39,-19,-34,-39,-39
-39,-48,-9,43,-14,-29,4,-39,-19,-34,-39,-39
-34,-43,-9,39,-12,-26,4,-43,-24,-34,-39,-39
-29,-43,-14,36,-7,-29,0,-43,-29,-34,-39,-39
-29,-43,-14,36,-7,-29,0,-48,-29,-39,-39,-39
-29,-43,-14,36,-7,-29,0,-48,-29,-39,-39,-39
-24,-43,-19,34,-2,-31,-4,-48,-34,-39,-34,-34
-24,-43,-19,34,-2,-31,-4,-53,-39,-39,-34,-34
-24,-43,-19,34,-2,-31,-9,-53,-39,-39,-34,-34
-24,-43,-19,34,-2,-31,-14,-58,-43,-39,-34,-34
-19,-43,-24,31,2,-34,-19,-58,-43,-39,-34,-34
-19,-39,-19,29,0,-29,-19,-63,-48,-43,-29,-29
-19,-39,-19,29,0,-29,-19,-68,-53,-43,-24,-29
-19,-39,-19,29,0,-29,-19,-73,-53,-43,-24,-24
-19,-39,-19,29,0,-29,-24,-82,-53,-43,-19,-24
-19,-39,-19,29,0,-29,-24,-82,-58,-43,-24,-24
-14,-39,-24,26,4,-31,-29,-82,-58,-43,-29,-24
-14,-34,-19,24,2,-26,-29,-87,-63,-43,-29,-19
-9,-34,-24,21,7,-29,-29,-87,-63,-48,-29,-19
-9,-34,-24,21,7,-29,-29,-87,-63,-48,-24,-19
-9,-34,-24,21,7,-29,-29,-92,-63,-43,-19,-19
-9,-34,-24,21,7,-29,-34,-87,-63,-39,-14,-14
-9,-34,-24,21,7,-29,-34,-82,-68,-34,-14,-9
-9,-39,-29,24,9,-34,-34,-87,-68,-39,-14,-9
-9,-43,-34,26,12,-39,-39,-87,-68,-39,-14,-9
-9,-39,-29,24,9,-34,-39,-87,-68,-34,-14,-9
-9,-39,-29,24,9,-34,-34,-87,-63,-34,-14,-4
-9,-39,-29,24,9,-34,-34,-87,-63,-34,-14,-4
-9,-39,-29,24,9,-34,-34,-92,-63,-34,-14,-4
-9,-39,-29,24,9,-34,-39,-92,-63,-39,-14,-4
-9,-39,-29,24,9,-34,-39,-92,-63,-43,-14,-4
-14,-39,-24,26,4,-31,-39,-92,-63,-43,-9,0
-14,-39,-24,26,4,-31,-39,-92,-63,-43,-9,0
-14,-34,-19,24,2,-26,-39,-92,-68,-43,-9,-4
-9,-34,-24,21,7,-29,-39,-92,-68,-39,-9,-9
-9,-34,-24,21,7,-29,-39,-92,-68,-39,-9,-4
-4,-29,-24,17,9,-26,-39,-92,-68,-39,-9,-4
0,-24,-24,12,12,-24,-43,-87,-63,-34,-9,0
4,-19,-24,7,14,-21,-48,-87,-63,-34,-9,0
0,-24,-24,12,12,-24,-48,-92,-68,-34,-4,0
-9,-29,-19,19,4,-24,-48,-97,-78,-39,0,0
-9,-29,-19,19,4,-24,-48,-97,-78,-39,-4,0
-9,-29,-19,19,4,-24,-48,-97,-78,-39,-9,0
-9,-29,-19,19,4,-24,-48,-97,-78,-39,-9,0
-9,-29,-19,19,4,-24,-48,-97,-78,-39,-9,0
-9,-29,-19,19,4,-24,-48,-97,-78,-39,-9,0
-9,-29,-19,19,4,-24,-48,-97,-78,-39,-9,0
-9,-29,-19,19,4,-24,-48,-97,-78,-39,-9,0
-9,-29,-19,19,4,-24,-48,-97,-78,-39,-9,0
-9,-29,-19,19,4,-24,-48,-97,-78,-39,-9,0
-9,-29,-19,19,4,-24,-48,-97,-78,-39,-9,0
-14,-34,-19,24,2,-26,-48,-97,-78,-39,-9,0
-19,-39,-19,29,0,-29,-48,-97,-78,-39,-9,0
-19,-39,-19,29,0,-29,-48,-97,-73,-39,-4,0
-19,-39,-19,29,0,-29,-48,-97,-68,-39,0,0
-19,-39,-19,29,0,-29,-48,-97,-68,-39,0,0
-19,-39,-19,29,0,-29,-48,-97,-68,-39,0,0
-14,-34,-19,24,2,-26,-48,-92,-63,-34,0,0
-9,-29,-19,19,4,-24,-48,-87,-58,-29,0,0
0,-14,-14,7,7,-14,-34,-73,-53,-19,9,9
9,0,-9,-4,9,-4,-19,-58,-48,-9,19,19
24,24,0,-24,12,12,-14,-43,-29,4,34,29
39,48,9,-43,14,29,-9,-29,-9,19,48,39
39,63,24,-51,7,43,4,-19,0,24,48,43
39,73,34,-56,2,53,14,-9,9,29,48,48
39,82,43,-61,-2,63,24,0,24,39,53,53
43,82,39,-63,2,61,14,9,39,43,53,53
53,92,39,-73,7,65,4,19,43,53,68,58
63,117,53,-90,4,85,-9,24,63,68,78,78
68,151,82,-109,-7,117,-39,14,73,92,97,87
73,170,97,-122,-12,134,-53,0,78,97,97,97
73,161,87,-117,-7,124,-78,-19,63,92,102,97
63,146,82,-104,-9,114,-87,-34,34,68,97,92
53,126,73,-90,-9,100,-87,-43,4,53,87,82
53,102,48,-78,2,75,-82,-58,-14,43,82,73
53,112,58,-82,-2,85,-78,-58,-14,43,82,87
68,122,53,-95,7,87,-78,-48,0,63,102,107
73,136,63,-104,4,100,-78,-48,4,68,112,117
78,117,39,-97,19,78,-78,-58,-9,58,92,102
63,82,19,-73,21,51,-78,-82,-24,34,73,87
58,58,0,-58,29,29,-73,-87,-39,24,68,78
58,53,-4,-56,31,24,-73,-87,-39,24,63,82
58,53,-4,-56,31,24,-68,-78,-43,24,63,82
58,53,-4,-56,31,24,-63,-78,-43,14,53,68
43,48,4,-46,19,26,-48,-82,-48,0,39,48
0,-14,-14,7,7,-14,-39,-97,-73,-24,4,4
-24,-58,-34,41,4,-46,-29,-112,-102,-53,-24,-14
-29,-63,-34,46,2,-48,-29,-117,-102,-53,-24,-14
-34,-68,-34,51,0,-51,-29,-117,-97,-53,-24,-14
-34,-68,-34,51,0,-51,-34,-117,-97,-53,-24,-14
-24,-68,-43,46,9,-56,-34,-117,-102,-53,-24,-14
-24,-68,-43,46,9,-56,-34,-117,-102,-58,-24,-14
-29,-68,-39,48,4,-53,-29,-112,-97,-63,-24,-14
-29,-68,-39,48,4,-53,-29,-112,-97,-63,-24,-19
-29,-73,-43,51,7,-58,-29,-112,-97,-63,-24,-24
-29,-73,-43,51,7,-58,-29,-107,-97,-63,-24,-24
-29,-73,-43,51,7,-58,-24,-107,-97,-63,-29,-24
-29,-73,-43,51,7,-58,-24,-107,-97,-63,-29,-29
-29,-73,-43,51,7,-58,-24,-107,-97,-68,-29,-29
-34,-73,-39,53,2,-56,-24,-107,-97,-68,-29,-29
-34,-73,-39,53,2,-56,-24,-107,-97,-68,-29,-29
-34,-73,-39,53,2,-56,-24,-107,-97,-68,-29,-29
-34,-73,-39,53,2,-56,-24,-102,-92,-68,-29,-29
-34,-73,-39,53,2,-56,-29,-107,-92,-63,-24,-29
-19,-63,-43,41,12,-53,-39,-82,-73,-34,-9,-9
14,-48,-63,17,39,-56,-43,9,-9,4,14,-4
14,-39,-53,12,34,-46,-48,4,34,24,14,-4
9,-24,-34,7,21,-29,-58,-156,24,4,0,-14
4,-4,-9,0,7,-7,-63,-336,-34,19,14,-4
-14,24,39,-4,-26,31,-146,-663,-234,107,131,78
87,253,165,-170,-39,209,-409,-1141,-497,380,488,370
326,741,414,-534,-43,578,-795,-1561,-712,785,1044,854
556,1088,531,-822,12,810,-1239,-2181,-1195,883,1390,1215
829,1268,439,-1049,195,854,-1664,-2713,-1786,907,1717,1566
1078,1371,292,-1224,392,832,-1903,-2893,-2171,936,2020,1903
1200,1405,204,-1302,497,805,-2020,-2996,-2425,966,2293,2171
1141,1424,283,-1283,429,854,-2078,-3196,-2562,1044,2557,2430
1058,1366,307,-1212,375,836,-2015,-3240,-2483,1024,2688,2649
927,1068,141,-997,392,605,-1820,-2952,-2278,649,2200,2357
653,590,-63,-622,358,263,-1224,-2049,-1786,-122,1107,1537
419,156,-263,-287,341,-53,-692,-1224,-1273,-663,234,795
317,-53,-370,-131,344,-212,-424,-697,-839,-527,19,444
141,-87,-229,-26,185,-158,-224,-424,-522,-390,-58,209
0,-92,-92,46,46,-92,-39,-165,-224,-190,-92,19
-68,-112,-43,90,-12,-78,87,29,-34,-78,-131,-107
-78,-136,-58,107,-9,-97,122,92,19,-78,-161,-146
-92,-156,-63,124,-14,-109,136,102,34,-78,-161,-151
-92,-151,-58,122,-17,-104,136,107,43,-78,-146,-141
-92,-141,-48,117,-21,-95,136,131,63,-78,-141,-141
-87,-136,-48,112,-19,-92,141,156,73,-73,-151,-151
-87,-136,-48,112,-19,-92,151,165,87,-68,-151,-151
-87,-136,-48,112,-19,-92,156,165,92,-68,-146,-151
-87,-136,-48,112,-19,-92,156,175,97,-68,-146,-151
-87,-136,-48,112,-19,-92,156,185,107,-63,-146,-156
-82,-131,-48,107,-17,-90,156,190,112,-63,-146,-161
-82,-131,-48,107,-17,-90,156,200,117,-63,-146,-161
-82,-131,-48,107,-17,-90,156,200,126,-58,-146,-161
-82,-131,-48,107,-17,-90,156,209,131,-53,-146,-156
-82,-131,-48,107,-17,-90,161,219,136,-48,-146,-156
-82,-131,-48,107,-17,-90,165,219,141,-48,-146,-156
-78,-126,-48,102,-14,-87,165,229,151,-48,-141,-156
-73,-126,-53,100,-9,-90,165,234,156,-48,-146,-156
-73,-126,-53,100,-9,-90,170,239,165,-48,-146,-161
-73,-126,-53,100,-9,-90,170,248,165,-43,-146,-165
-73,-126,-53,100,-9,-90,175,258,175,-43,-146,-170
-78,-122,-43,100,-17,-82,175,263,185,-43,-146,-170
-82,-122,-39,102,-21,-80,175,268,190,-39,-151,-170
-82,-122,-39,102,-21,-80,180,278,195,-39,-151,-170
-82,-122,-39,102,-21,-80,180,292,209,-39,-151,-165
-82,-122,-39,102,-21,-80,185,297,219,-39,-156,-165
-82,-122,-39,102,-21,-80,185,302,219,-39,-156,-170
-82,-122,-39,102,-21,-80,185,312,229,-39,-161,-175
-87,-122,-34,104,-26,-78,190,322,234,-39,-165,-180
-87,-126,-39,107,-24,-82,190,331,244,-39,-170,-180
-87,-126,-39,107,-24,-82,195,341,253,-39,-170,-190
-92,-131,-39,112,-26,-85,200,356,258,-39,-185,-195
-92,-131,-39,112,-26,-85,204,370,268,-43,-185,-195
-92,-131,-39,112,-26,-85,209,380,273,-43,-185,-200
-92,-131,-39,112,-26,-85,209,395,278,-43,-195,-204
-92,-131,-39,112,-26,-85,219,409,283,-43,-190,-209
-92,-136,-43,114,-24,-90,219,419,292,-43,-195,-219
-92,-141,-48,117,-21,-95,229,439,307,-48,-200,-219
-92,-141,-48,117,-21,-95,239,458,317,-48,-204,-224
-97,-146,-48,122,-24,-97,244,478,326,-48,-224,-229
-97,-146,-48,122,-24,-97,248,497,336,-53,-229,-229
-92,-146,-53,119,-19,-100,258,522,351,-53,-239,-244
-87,-146,-58,117,-14,-102,268,546,366,-53,-244,-248
-97,-151,-53,124,-21,-102,283,575,385,-58,-248,-263
-97,-151,-53,124,-21,-102,292,605,400,-58,-258,-268
-102,-156,-53,129,-24,-104,302,634,414,-58,-268,-283
-107,-161,-53,134,-26,-107,317,658,429,-63,-278,-292
-112,-161,-48,136,-31,-104,322,688,453,-68,-292,-302
-122,-161,-39,141,-41,-100,336,722,473,-73,-307,-317
-131,-165,-34,148,-48,-100,351,751,492,-82,-317,-326
-146,-165,-19,156,-63,-92,366,780,512,-92,-336,-346
-146,-165,-19,156,-63,-92,380,810,536,-97,-351,-356
-151,-165,-14,158,-68,-90,405,839,556,-102,-370,-370
-170,-165,4,168,-87,-80,424,863,580,-112,-390,-390
-175,-170,4,173,-90,-82,439,893,605,-122,-409,-409
-175,-170,4,173,-90,-82,463,917,624,-126,-439,-424
-180,-170,9,175,-95,-80,473,941,649,-136,-458,-448
-195,-170,24,183,-109,-73,488,966,673,-136,-478,-468
-204,-170,34,187,-119,-68,502,980,688,-136,-507,-488
-219,-170,48,195,-134,-61,512,995,702,-141,-527,-507
-224,-170,53,197,-139,-58,522,1000,712,-146,-541,-527
-234,-170,63,202,-148,-53,527,1005,727,-146,-551,-541
-244,-170,73,207,-158,-48,527,995,741,-146,-561,-556
-258,-170,87,214,-173,-41,522,971,741,-136,-566,-556
-263,-170,92,217,-178,-39,512,951,741,-126,-570,-551
-263,-151,112,207,-187,-19,507,922,736,-122,-561,-551
-258,-141,117,200,-187,-12,488,888,717,-107,-546,-541
-244,-136,107,190,-175,-14,458,834,692,-92,-527,-531
-234,-122,112,178,-173,-4,429,771,663,-68,-507,-497
-219,-102,117,161,-168,7,405,707,634,-48,-473,-473
-204,-82,122,143,-163,19,366,634,585,-34,-434,-439
-190,-63,126,126,-158,31,317,551,541,-14,-380,-400
-165,-39,126,102,-146,43,278,473,478,0,-336,-351
-151,-29,122,90,-136,46,229,400,424,4,-283,-302
-131,-9,122,70,-126,56,185,331,370,14,-239,-258
-112,9,122,51,-117,65,146,258,307,29,-195,-209
-92,19,112,36,-102,65,107,195,258,39,-146,-151
-73,29,102,21,-87,65,73,141,209,39,-97,-112
-53,39,92,7,-73,65,48,97,165,43,-58,-78
-34,43,78,-4,-56,61,14,53,126,43,-34,-43
-29,43,73,-7,-51,58,-9,9,82,43,-9,-19
-19,43,63,-12,-41,53,-24,-14,48,43,9,4
-9,43,53,-17,-31,48,-34,-34,24,39,34,29
4,43,39,-24,-17,41,-48,-58,14,34,39,39
19,43,24,-31,-2,34,-53,-87,-4,29,53,48
19,39,19,-29,0,29,-58,-92,-19,29,58,58
24,29,4,-26,9,17,-58,-97,-34,29,68,63
19,24,4,-21,7,14,-58,-97,-39,24,68,63
19,24,4,-21,7,14,-63,-97,-39,24,68,68
24,24,0,-24,12,12,-63,-102,-43,24,68,68
24,29,4,-26,9,17,-68,-102,-48,19,68,73
24,29,4,-26,9,17,-68,-102,-48,19,68,78
19,29,9,-24,4,19,-68,-102,-53,14,68,78
19,24,4,-21,7,14,-63,-102,-53,9,68,78
24,29,4,-26,9,17,-63,-102,-53,9,68,78
24,29,4,-26,9,17,-63,-102,-53,9,68,73
19,29,9,-24,4,19,-63,-97,-53,9,68,73
19,29,9,-24,4,19,-63,-97,-53,9,68,73
24,24,0,-24,12,12,-63,-97,-53,9,63,73
24,24,0,-24,12,12,-63,-97,-53,4,63,68
24,24,0,-24,12,12,-58,-92,-48,4,63,63
24,24,0,-24,12,12,-58,-87,-48,0,63,63
19,24,4,-21,7,14,-58,-82,-48,-4,63,58
19,19,0,-19,9,9,-58,-82,-43,-4,53,58
19,19,0,-19,9,9,-53,-82,-43,-4,53,58
24,14,-9,-19,17,2,-43,-78,-39,-4,53,58
24,14,-9,-19,17,2,-39,-78,-39,-9,48,53
24,14,-9,-19,17,2,-39,-73,-39,-9,43,53
24,14,-9,-19,17,2,-39,-68,-34,-14,43,48
19,9,-9,-14,14,0,-34,-63,-34,-14,34,43
14,4,-9,-9,12,-2,-29,-58,-29,-19,29,34
14,0,-14,-7,14,-7,-24,-58,-29,-19,24,34
14,0,-14,-7,14,-7,-24,-48,-29,-19,24,34
9,0,-9,-4,9,-4,-19,-48,-24,-24,14,34
0,-4,-4,2,2,-4,-14,-43,-24,-24,14,24
0,-14,-14,7,7,-14,-9,-48,-19,-24,4,9
-4,-24,-19,14,7,-21,-9,-48,-19,-24,4,0
-14,-24,-9,19,-2,-17,-4,-43,-14,-24,0,0
-19,-29,-9,24,-4,-19,0,-43,-14,-29,-4,-4
-19,-34,-14,26,-2,-24,0,-34,-9,-29,-9,-4
-24,-39,-14,31,-4,-26,9,-24,-9,-29,-9,-14
-24,-39,-14,31,-4,-26,9,-24,-9,-29,-14,-19
-24,-39,-14,31,-4,-26,9,-24,-4,-29,-19,-19
-24,-34,-9,29,-7,-21,14,-24,0,-29,-19,-19
-19,-39,-19,29,0,-29,14,-19,4,-29,-24,-29
-19,-39,-19,29,0,-29,14,-19,4,-29,-29,-29
-19,-43,-24,31,2,-34,14,-19,4,-34,-34,-34
-19,-53,-34,36,7,-43,14,-19,0,-34,-39,-34
-24,-58,-34,41,4,-46,14,-19,0,-29,-39,-39
-24,-58,-34,41,4,-46,14,-24,0,-29,-39,-39
-24,-58,-34,41,4,-46,14,-24,0,-29,-39,-39
-24,-63,-39,43,7,-51,14,-29,-4,-34,-39,-39
-29,-63,-34,46,2,-48,14,-29,-9,-34,-39,-39
-29,-58,-29,43,0,-43,14,-24,-9,-29,-39,-39
-24,-53,-29,39,2,-41,14,-24,-14,-24,-39,-39
-24,-53,-29,39,2,-41,9,-29,-19,-24,-39,-39
-29,-53,-24,41,-2,-39,9,-39,-19,-29,-39,-39
-29,-53,-24,41,-2,-39,9,-39,-19,-29,-39,-39
-24,-53,-29,39,2,-41,4,-39,-24,-29,-34,-34
-19,-53,-34,36,7,-43,0,-48,-29,-29,-34,-34
-14,-53,-39,34,12,-46,-9,-53,-29,-29,-34,-34
-14,-53,-39,34,12,-46,-14,-58,-34,-29,-34,-34
-9,-53,-43,31,17,-48,-19,-58,-34,-29,-34,-34
-9,-48,-39,29,14,-43,-19,-63,-39,-39,-34,-29
-9,-48,-39,29,14,-43,-19,-68,-43,-43,-34,-29
-9,-48,-39,29,14,-43,-19,-68,-43,-43,-34,-24
-9,-48,-39,29,14,-43,-24,-73,-43,-43,-29,-24
-9,-48,-39,29,14,-43,-24,-73,-53,-43,-29,-24
-4,-48,-43,26,19,-46,-29,-73,-58,-43,-29,-24
-9,-43,-34,26,12,-39,-29,-78,-63,-43,-29,-19
-9,-43,-34,26,12,-39,-29,-78,-63,-48,-29,-19
-9,-43,-34,26,12,-39,-29,-78,-58,-48,-29,-19
-9,-43,-34,26,12,-39,-29,-82,-53,-43,-29,-19
-9,-43,-34,26,12,-39,-34,-82,-53,-43,-19,-19
-9,-43,-34,26,12,-39,-34,-82,-58,-43,-14,-19
-4,-43,-39,24,17,-41,-34,-82,-58,-48,-14,-19
0,-43,-43,21,21,-43,-39,-78,-58,-48,-14,-19
0,-39,-39,19,19,-39,-39,-78,-63,-43,-14,-19
0,-39,-39,19,19,-39,-34,-78,-63,-43,-14,-14
0,-39,-39,19,19,-39,-34,-82,-63,-43,-14,-14
0,-39,-39,19,19,-39,-34,-92,-63,-43,-14,-14
0,-39,-39,19,19,-39,-39,-92,-63,-43,-14,-14
0,-39,-39,19,19,-39,-39,-92,-63,-43,-14,-14
0,-39,-39,19,19,-39,-39,-92,-68,-43,-9,-9
4,-39,-43,17,24,-41,-39,-92,-73,-43,-9,-9
4,-39,-43,17,24,-41,-39,-92,-73,-43,-14,-9
9,-43,-53,17,31,-48,-39,-92,-68,-39,-19,-9
9,-43,-53,17,31,-48,-39,-92,-68,-43,-14,-9
14,-39,-53,12,34,-46,-39,-92,-68,-48,-9,-14
9,-34,-43,12,26,-39,-43,-92,-63,-43,-9,-4
4,-29,-34,12,19,-31,-48,-97,-63,-43,-9,0
4,-34,-39,14,21,-36,-48,-97,-63,-39,-9,-4
9,-39,-48,14,29,-43,-48,-97,-68,-39,-9,-9
9,-39,-48,14,29,-43,-48,-97,-68,-39,-9,-9
9,-39,-48,14,29,-43,-48,-97,-68,-39,-9,-9
9,-39,-48,14,29,-43,-48,-97,-68,-39,-9,-9
9,-39,-48,14,29,-43,-48,-97,-68,-39,-9,-9
9,-39,-48,14,29,-43,-53,-97,-68,-39,-9,-9
9,-39,-48,14,29,-43,-58,-97,-68,-39,-9,-9
9,-34,-43,12,26,-39,-58,-97,-63,-39,-9,-4
9,-29,-39,9,24,-34,-58,-97,-58,-39,-9,0
9,-29,-39,9,24,-34,-53,-97,-58,-39,-4,0
9,-29,-39,9,24,-34,-48,-97,-58,-39,0,0
4,-34,-39,14,21,-36,-48,-97,-58,-39,0,0
0,-39,-39,19,19,-39,-48,-97,-58,-39,0,0
0,-39,-39,19,19,-39,-48,-97,-58,-39,0,0
0,-39,-39,19,19,-39,-48,-97,-58,-39,0,0
0,-39,-39,19,19,-39,-48,-97,-58,-39,0,0
0,-39,-39,19,19,-39,-48,-97,-58,-39,0,0
0,-34,-34,17,17,-34,-48,-97,-58,-39,0,0
0,-29,-29,14,14,-29,-48,-97,-58,-39,0,0
9,-19,-29,4,19,-24,-48,-87,-53,-34,0,4
19,-9,-29,-4,24,-19,-48,-78,-48,-29,0,9
29,4,-24,-17,26,-9,-39,-68,-34,-14,14,14
39,19,-19,-29,29,0,-29,-58,-19,0,29,19
43,48,4,-46,19,26,-14,-39,4,14,39,34
48,78,29,-63,9,53,0,-19,29,29,48,48
48,78,29,-63,9,53,9,-9,34,34,48,48
53,78,24,-65,14,51,9,0,39,34,48,48
63,82,19,-73,21,51,9,9,48,39,53,53
73,92,19,-82,26,56,0,14,53,43,68,58
87,117,29,-102,29,73,-19,14,78,58,82,78
97,146,48,-122,24,97,-48,4,87,78,107,87
102,170,68,-136,17,119,-68,-9,92,87,107,97
102,170,68,-136,17,119,-92,-29,82,92,107,97
92,156,63,-124,14,109,-102,-43,53,68,97,92
82,141,58,-112,12,100,-107,-53,29,58,87,82
73,107,34,-90,19,70,-102,-68,9,43,82,73
63,102,39,-82,12,70,-97,-68,4,34,82,82
87,126,39,-107,24,82,-97,-53,19,68,107,102
97,151,53,-124,21,102,-97,-48,19,82,122,117
97,126,29,-112,34,78,-97,-58,0,68,102,102
82,92,9,-87,36,51,-97,-78,-14,43,82,87
78,63,-14,-70,46,24,-92,-82,-29,34,78,78
78,53,-24,-65,51,14,-92,-87,-29,34,73,78
78,53,-24,-65,51,14,-92,-78,-29,34,73,78
73,43,-29,-58,51,7,-92,-78,-24,24,63,68
53,29,-24,-41,39,2,-78,-82,-29,9,48,48
9,-24,-34,7,21,-29,-68,-97,-48,-14,14,9
-14,-58,-43,36,14,-51,-53,-112,-78,-48,-19,-9
-14,-58,-43,36,14,-51,-48,-117,-82,-53,-24,-14
-14,-58,-43,36,14,-51,-48,-117,-78,-58,-29,-19
-14,-58,-43,36,14,-51,-53,-117,-78,-63,-34,-24
-9,-58,-48,34,19,-53,-53,-117,-82,-63,-34,-24
-14,-58,-43,36,14,-51,-53,-117,-82,-63,-34,-24
-19,-58,-39,39,9,-48,-48,-112,-78,-63,-29,-24
-19,-58,-39,39,9,-48,-48,-112,-78,-63,-24,-24
-14,-63,-48,39,17,-56,-53,-112,-78,-63,-24,-24
-9,-63,-53,36,21,-58,-58,-107,-78,-63,-24,-24
-9,-68,-58,39,24,-63,-53,-107,-78,-63,-29,-24
-9,-73,-63,41,26,-68,-53,-107,-78,-63,-29,-29
-9,-73,-63,41,26,-68,-48,-107,-78,-63,-29,-29
-14,-73,-58,43,21,-65,-43,-107,-78,-58,-29,-29
-14,-73,-58,43,21,-65,-43,-107,-78,-58,-29,-24
-14,-73,-58,43,21,-65,-43,-107,-78,-58,-29,-19
-14,-73,-58,43,21,-65,-43,-102,-73,-58,-29,-19
-14,-73,-58,43,21,-65,-48,-97,-73,-53,-24,-19
-4,-63,-58,34,26,-61,-58,-63,-53,-24,-9,0
24,-48,-73,12,48,-61,-68,0,4,14,14,4
24,-39,-63,7,43,-51,-73,-29,48,29,14,0
24,-9,-34,-7,29,-21,-87,-204,34,29,34,9
19,19,0,-19,9,9,-102,-405,-34,53,63,29
29,97,68,-63,-19,82,-219,-756,-248,161,209,141
165,380,214,-273,-24,297,-522,-1259,-527,483,629,488
405,814,409,-610,-2,612,-912,-1678,-775,829,1146,951
639,1107,468,-873,85,788,-1356,-2303,-1293,854,1449,1288
897,1273,375,-1085,261,824,-1747,-2796,-1844,873,1761,1625
1132,1361,229,-1246,451,795,-1956,-2937,-2191,897,2044,1942
1220,1376,156,-1298,531,766,-2039,-3020,-2396,907,2278,2191
1132,1395,263,-1263,434,829,-2083,-3215,-2498,980,2522,2459
1024,1298,273,-1161,375,785,-1966,-3152,-2381,868,2508,2547
858,922,63,-890,397,492,-1703,-2737,-2132,385,1849,2093
610,483,-126,-546,368,178,-1156,-1878,-1649,-234,907,1361
395,92,-302,-244,348,-104,-629,-1083,-1137,-653,141,668
297,-97,-395,-100,346,-246,-361,-590,-722,-512,-53,331
126,-78,-204,-24,165,-141,-190,-356,-405,-326,-58,161
-4,-73,-68,39,31,-70,-19,-117,-136,-151,-82,-9
-58,-102,-43,80,-7,-73,87,48,4,-73,-122,-126
-63,-126,-63,95,0,-95,112,107,53,-68,-151,-161
-78,-151,-73,114,-2,-112,117,112,63,-68,-146,-156
-82,-156,-73,119,-4,-114,117,117,68,-68,-131,-141
-82,-151,-68,117,-7,-109,117,141,82,-68,-131,-141
-78,-146,-68,112,-4,-107,122,161,92,-68,-141,-151
-78,-146,-68,112,-4,-107,126,165,107,-63,-141,-151
-78,-146,-68,112,-4,-107,126,165,112,-58,-136,-151
-82,-146,-63,114,-9,-104,126,175,117,-58,-136,-151
-87,-146,-58,117,-14,-102,126,185,126,-53,-136,-151
-82,-136,-53,109,-14,-95,126,190,136,-53,-136,-151
-82,-131,-48,107,-17,-90,126,200,146,-53,-136,-151
-78,-131,-53,104,-12,-92,131,200,156,-48,-136,-151
-73,-131,-58,102,-7,-95,136,209,161,-48,-136,-151
-73,-131,-58,102,-7,-95,141,224,165,-48,-131,-156
-78,-131,-53,104,-12,-92,146,229,170,-48,-131,-156
-78,-126,-48,102,-14,-87,146,239,180,-48,-131,-156
-73,-126,-53,100,-9,-90,146,244,185,-48,-136,-156
-73,-126,-53,100,-9,-90,151,248,195,-48,-141,-161
-73,-126,-53,100,-9,-90,151,258,195,-43,-146,-161
-73,-126,-53,100,-9,-90,156,268,204,-43,-146,-161
-73,-122,-48,97,-12,-85,156,273,214,-43,-146,-161
-73,-122,-48,97,-12,-85,156,278,219,-39,-151,-161
-73,-122,-48,97,-12,-85,161,287,224,-39,-151,-165
-73,-126,-53,100,-9,-90,165,302,234,-34,-151,-161
-73,-131,-58,102,-7,-95,175,307,239,-29,-156,-156
-73,-131,-58,102,-7,-95,175,312,239,-29,-156,-161
-73,-131,-58,102,-7,-95,175,322,248,-29,-161,-165
-78,-126,-48,102,-14,-87,180,331,253,-34,-161,-170
-78,-126,-48,102,-14,-87,180,341,258,-39,-161,-170
-78,-126,-48,102,-14,-87,185,351,263,-39,-161,-180
-82,-131,-48,107,-17,-90,190,366,268,-39,-175,-185
-82,-131,-48,107,-17,-90,195,380,273,-43,-175,-185
-82,-131,-48,107,-17,-90,200,390,273,-43,-175,-190
-82,-126,-43,104,-19,-85,200,400,278,-43,-185,-195
-82,-122,-39,102,-21,-80,209,414,283,-43,-185,-200
-82,-126,-43,104,-19,-85,209,429,287,-43,-195,-209
-82,-131,-48,107,-17,-90,219,448,297,-48,-200,-209
-82,-131,-48,107,-17,-90,234,468,302,-48,-204,-214
-87,-136,-48,112,-19,-92,244,488,307,-48,-219,-224
-92,-141,-48,117,-21,-95,248,507,317,-53,-219,-229
-97,-146,-48,122,-24,-97,258,531,331,-53,-229,-244
-97,-146,-48,122,-24,-97,263,556,341,-53,-234,-248
-107,-151,-43,129,-31,-97,273,585,356,-58,-239,-258
-107,-146,-39,126,-34,-92,283,614,370,-58,-244,-258
-107,-141,-34,124,-36,-87,292,644,390,-58,-248,-273
-107,-141,-34,124,-36,-87,312,668,400,-63,-258,-283
-112,-141,-29,126,-41,-85,326,697,414,-68,-273,-292
-122,-146,-24,134,-48,-85,346,732,434,-73,-287,-302
-131,-156,-24,143,-53,-90,361,761,453,-78,-297,-307
-141,-156,-14,148,-63,-85,375,790,473,-82,-317,-326
-136,-156,-19,146,-58,-87,390,819,497,-87,-331,-336
-141,-151,-9,146,-65,-80,414,849,517,-92,-351,-346
-161,-146,14,153,-87,-65,429,873,536,-102,-370,-361
-170,-151,19,161,-95,-65,439,902,561,-107,-375,-380
-180,-151,29,165,-104,-61,463,927,585,-107,-390,-395
-190,-146,43,168,-117,-51,473,956,610,-117,-409,-414
-204,-141,63,173,-134,-39,488,980,629,-117,-424,-429
-214,-141,73,178,-143,-34,497,990,639,-117,-448,-448
-229,-141,87,185,-158,-26,502,1000,653,-122,-468,-463
-234,-136,97,185,-165,-19,512,1005,658,-122,-478,-478
-244,-131,112,187,-178,-9,517,1010,668,-117,-483,-488
-253,-126,126,190,-190,0,517,995,683,-112,-488,-497
-263,-117,146,190,-204,14,512,971,683,-97,-483,-497
-263,-112,151,187,-207,19,502,956,683,-87,-483,-488
-263,-92,170,178,-217,39,492,922,673,-82,-473,-483
-258,-73,185,165,-222,56,473,883,649,-68,-458,-468
-248,-63,185,156,-217,61,448,834,624,-53,-434,-453
-244,-63,180,153,-212,58,419,771,605,-29,-409,-419
-229,-53,175,141,-202,61,390,707,580,-9,-375,-390
-214,-34,180,124,-197,73,351,634,527,9,-336,-351
-200,-14,185,107,-192,85,307,551,483,34,-287,-312
-175,9,185,82,-180,97,268,473,419,48,-253,-268
-156,19,175,68,-165,97,224,400,366,53,-204,-224
-131,24,156,53,-143,90,185,326,312,63,-165,-185
-112,29,141,41,-126,85,146,253,253,78,-126,-146
-92,39,131,26,-112,85,102,190,204,78,-82,-97
-73,48,122,12,-97,85,63,131,151,68,-43,-63
-53,58,112,-2,-82,85,39,82,102,73,-9,-29
-34,63,97,-14,-65,80,9,39,63,73,14,0
-29,63,92,-17,-61,78,-9,-4,24,68,29,14
-19,63,82,-21,-51,73,-24,-34,-4,63,39,34
-9,63,73,-26,-41,68,-34,-53,-29,53,58,58
0,63,63,-31,-31,63,-48,-68,-43,43,58,68
9,58,48,-34,-19,53,-53,-87,-63,39,68,73
9,48,39,-29,-14,43,-58,-92,-73,39,68,78
19,39,19,-29,0,29,-58,-102,-87,39,78,82
24,34,9,-29,7,21,-58,-107,-97,34,78,82
29,34,4,-31,12,19,-68,-107,-97,34,78,87
34,34,0,-34,17,17,-73,-112,-102,34,78,87
34,39,4,-36,14,21,-78,-112,-107,29,78,87
34,39,4,-36,14,21,-78,-112,-107,29,78,82
24,39,14,-31,4,26,-78,-112,-112,24,78,78
19,29,9,-24,4,19,-73,-112,-112,19,78,78
24,29,4,-26,9,17,-68,-112,-112,19,78,78
24,29,4,-26,9,17,-63,-112,-112,19,78,78
19,29,9,-24,4,19,-63,-107,-112,19,78,82
19,29,9,-24,4,19,-63,-107,-112,19,78,82
24,24,0,-24,12,12,-63,-107,-112,14,73,82
24,24,0,-24,12,12,-63,-107,-112,4,73,78
24,24,0,-24,12,12,-58,-102,-107,4,73,73
24,24,0,-24,12,12,-58,-97,-107,4,73,73
19,24,4,-21,7,14,-53,-92,-112,4,73,68
19,19,0,-19,9,9,-48,-92,-112,4,63,68
19,19,0,-19,9,9,-43,-92,-112,4,68,68
19,14,-4,-17,12,4,-34,-87,-107,4,73,68
9,14,4,-12,2,9,-34,-87,-107,0,68,63
4,14,9,-9,-2,12,-39,-82,-107,0,63,63
4,14,9,-9,-2,12,-39,-78,-97,-4,63,58
0,9,9,-4,-4,9,-34,-73,-92,-4,53,53
0,9,9,-4,-4,9,-29,-68,-87,-4,48,39
4,9,4,-7,0,7,-24,-68,-87,0,43,34
4,9,4,-7,0,7,-19,-58,-87,0,43,34
0,9,9,-4,-4,9,-9,-58,-82,-4,34,34
-9,4,14,2,-12,9,-4,-53,-82,-4,39,29
-9,0,9,4,-9,4,0,-53,-78,-4,34,24
-14,-4,9,9,-12,2,0,-48,-78,0,34,19
-19,-4,14,12,-17,4,4,-43,-73,4,29,19
-19,-14,4,17,-12,-4,9,-43,-73,0,24,9
-19,-24,-4,21,-7,-14,9,-39,-68,0,19,4
-24,-29,-4,26,-9,-17,19,-34,-63,0,19,-4
-24,-29,-4,26,-9,-17,19,-34,-58,0,14,-9
-24,-29,-4,26,-9,-17,19,-34,-53,0,9,-9
-29,-29,0,29,-14,-14,24,-34,-53,0,9,-9
-29,-34,-4,31,-12,-19,24,-29,-53,0,4,-24
-29,-29,0,29,-14,-14,24,-29,-53,0,4,-29
-29,-34,-4,31,-12,-19,24,-29,-53,-4,4,-34
-29,-39,-9,34,-9,-24,24,-29,-58,-4,0,-34
-34,-39,-4,36,-14,-21,24,-24,-58,0,0,-39
-34,-39,-4,36,-14,-21,24,-24,-58,0,0,-39
-39,-43,-4,41,-17,-24,24,-24,-58,0,0,-39
-39,-53,-14,46,-12,-34,24,-29,-63,-4,0,-39
-39,-53,-14,46,-12,-34,24,-29,-68,-4,0,-39
-39,-53,-14,46,-12,-34,24,-29,-68,-4,0,-39
-34,-53,-19,43,-7,-36,24,-34,-68,-4,0,-39
-34,-53,-19,43,-7,-36,19,-39,-68,-4,0,-39
-39,-53,-14,46,-12,-34,19,-48,-68,-9,-4,-39
-39,-53,-14,46,-12,-34,19,-48,-68,-9,-9,-39
-34,-53,-19,43,-7,-36,14,-48,-73,-9,-4,-34
-34,-53,-19,43,-7,-36,14,-53,-78,-9,-4,-34
-34,-53,-19,43,-7,-36,9,-53,-78,-9,-4,-34
-34,-53,-19,43,-7,-36,4,-58,-82,-9,-4,-34
-29,-53,-24,41,-2,-39,0,-58,-82,-9,-4,-34
-29,-48,-19,39,-4,-34,0,-63,-87,-14,-4,-29
-29,-48,-19,39,-4,-34,0,-68,-92,-14,-4,-24
-29,-48,-19,39,-4,-34,0,-68,-92,-14,-4,-14
-24,-48,-24,36,0,-36,0,-68,-92,-14,0,-14
-19,-48,-29,34,4,-39,4,-63,-97,-14,0,-14
-14,-48,-34,31,9,-41,0,-63,-97,-14,0,-14
-14,-43,-29,29,7,-36,0,-68,-102,-14,0,-9
-19,-43,-24,31,2,-34,0,-73,-102,-19,0,-14
-29,-43,-14,36,-7,-29,0,-78,-102,-19,0,-19
-29,-48,-19,39,-4,-34,0,-82,-102,-14,-4,-19
-29,-53,-24,41,-2,-39,-4,-82,-102,-14,-4,-19
-29,-53,-24,41,-2,-39,-4,-82,-107,-14,-4,-19
-29,-53,-24,41,-2,-39,-4,-87,-107,-19,-4,-19
-29,-48,-19,39,-4,-34,-9,-87,-107,-29,-9,-19
-29,-39,-9,34,-9,-24,-9,-87,-112,-34,-14,-19
-29,-39,-9,34,-9,-24,-4,-87,-112,-34,-14,-14
-29,-39,-9,34,-9,-24,-4,-87,-112,-34,-14,-14
-24,-39,-14,31,-4,-26,-4,-92,-117,-29,-14,-14
-19,-39,-19,29,0,-29,-9,-92,-122,-24,-14,-14
-19,-39,-19,29,0,-29,-9,-92,-122,-24,-14,-14
-19,-39,-19,29,0,-29,-9,-92,-122,-24,-9,-9
-14,-39,-24,26,4,-31,-9,-92,-122,-24,-9,-9
-14,-34,-19,24,2,-26,-9,-92,-122,-24,-9,-9
-9,-34,-24,21,7,-29,-9,-82,-107,-19,-9,-9
-9,-24,-14,17,2,-19,-9,-73,-97,-19,0,-4
9,-9,-19,0,14,-14,0,-63,-87,-9,14,0
29,0,-29,-14,29,-14,9,-58,-78,0,29,9
29,29,0,-29,14,14,24,-48,-68,9,29,19
29,58,29,-43,0,43,39,-39,-58,19,29,29
34,63,29,-48,2,46,39,-29,-43,24,39,34
39,68,29,-53,4,48,39,-19,-29,29,43,39
43,78,34,-61,4,56,39,-9,-19,39,53,48
53,82,29,-68,12,56,24,0,-9,43,53,53
58,102,43,-80,7,73,9,4,-9,53,68,58
63,136,73,-100,-4,104,-9,4,4,68,78,78
68,156,87,-112,-9,122,-39,-4,9,87,97,87
73,161,87,-117,-7,124,-53,-19,9,87,97,97
73,151,78,-112,-2,114,-73,-39,-4,82,97,87
63,136,73,-100,-4,104,-78,-53,-34,58,87,73
53,131,78,-92,-12,104,-78,-63,-58,58,87,73
53,122,68,-87,-7,95,-73,-78,-73,63,92,73
53,117,63,-85,-4,90,-68,-78,-73,53,82,82
68,112,43,-90,12,78,-68,-68,-58,63,92,97
68,122,53,-95,7,87,-58,-68,-68,53,102,102
68,97,29,-82,19,63,-48,-78,-97,29,82,82
58,78,19,-68,19,48,-48,-87,-102,19,63,68
58,68,9,-63,24,39,-43,-78,-107,24,58,58
58,53,-4,-56,31,24,-43,-78,-107,14,53,58
58,43,-14,-51,36,14,-39,-68,-112,4,53,53
34,14,-19,-24,26,-2,-24,-73,-122,-14,24,29
-4,-19,-14,12,4,-17,0,-82,-136,-39,-9,0
-34,-53,-19,43,-7,-36,-4,-97,-146,-48,-24,-24
-43,-68,-24,56,-9,-46,-9,-112,-161,-63,-34,-24
-43,-63,-19,53,-12,-41,-9,-117,-161,-63,-34,-34
-43,-58,-14,51,-14,-36,-9,-117,-156,-63,-34,-43
-43,-58,-14,51,-14,-36,-9,-117,-151,-63,-34,-43
-34,-58,-24,46,-4,-41,-4,-117,-151,-63,-34,-43
-34,-58,-24,46,-4,-41,-4,-117,-151,-63,-34,-43
-39,-58,-19,48,-9,-39,0,-112,-146,-63,-34,-43
-39,-58,-19,48,-9,-39,0,-112,-146,-63,-34,-39
-39,-63,-24,51,-7,-43,0,-112,-146,-63,-34,-34
-39,-63,-24,51,-7,-43,0,-107,-146,-58,-34,-29
-39,-63,-24,51,-7,-43,4,-107,-146,-53,-39,-24
-39,-58,-19,48,-9,-39,4,-107,-146,-53,-39,-29
-39,-53,-14,46,-12,-34,4,-107,-146,-58,-39,-29
-34,-53,-19,43,-7,-36,4,-107,-146,-58,-39,-29
-24,-53,-29,39,2,-41,4,-107,-146,-58,-39,-29
-24,-53,-29,39,2,-41,4,-107,-146,-58,-39,-29
-24,-53,-29,39,2,-41,4,-102,-141,-58,-39,-29
-34,-53,-19,43,-7,-36,0,-97,-141,-53,-34,-29
-29,-43,-14,36,-7,-29,-9,-63,-122,-24,-19,-9
4,-39,-43,17,24,-41,-19,14,-58,19,9,-4
4,-39,-43,17,24,-41,-29,-4,-14,43,14,-4
4,24,19,-14,-7,21,-43,-161,34,97,73,39
4,92,87,-48,-41,90,-53,-336,34,185,161,102
24,200,175,-112,-75,187,-141,-688,-136,317,366,258
165,507,341,-336,-87,424,-409,-1190,-370,634,810,624
405,917,512,-661,-53,714,-741,-1600,-619,902,1249,1039
634,1185,551,-910,41,868,-1132,-2210,-1137,863,1478,1332
863,1332,468,-1098,197,900,-1507,-2698,-1756,775,1722,1639
1068,1400,331,-1234,368,866,-1698,-2835,-2171,692,1942,1932
1102,1395,292,-1249,405,844,-1751,-2903,-2376,624,2093,2166
956,1376,419,-1166,268,897,-1747,-3069,-2464,605,2235,2391
810,1244,434,-1027,187,839,-1576,-2957,-2332,434,2064,2332
614,873,258,-744,178,566,-1273,-2513,-2074,-92,1273,1761
424,541,117,-483,153,329,-829,-1703,-1551,-448,580,1156
273,253,-19,-263,146,117,-448,-971,-1010,-575,107,629
204,78,-126,-141,165,-24,-239,-492,-624,-390,-24,341
63,78,14,-70,24,46,-97,-268,-356,-204,-19,170
-43,14,58,14,-51,36,43,-78,-146,-87,-63,-9
-78,-63,14,70,-46,-24,126,48,-43,-58,-112,-126
-82,-87,-4,85,-39,-46,151,107,-4,-63,-151,-161
-92,-107,-14,100,-39,-61,156,112,-4,-68,-161,-161
-82,-107,-24,95,-29,-65,151,112,0,-68,-151,-151
-73,-102,-29,87,-21,-65,146,131,14,-68,-151,-151
-78,-102,-24,90,-26,-63,151,151,24,-68,-161,-161
-87,-107,-19,97,-34,-63,161,156,39,-68,-161,-161
-87,-107,-19,97,-34,-63,165,156,39,-78,-161,-165
-87,-107,-19,97,-34,-63,165,165,39,-87,-165,-170
-82,-107,-24,95,-29,-65,165,175,48,-82,-165,-170
-73,-102,-29,87,-21,-65,165,180,53,-82,-165,-170
-73,-102,-29,87,-21,-65,165,185,53,-82,-170,-170
-73,-102,-29,87,-21,-65,165,180,58,-78,-175,-170
-78,-107,-29,92,-24,-68,165,185,63,-78,-175,-170
-82,-112,-29,97,-26,-70,170,190,68,-78,-175,-175
-87,-112,-24,100,-31,-68,170,190,68,-82,-180,-180
-87,-107,-19,97,-34,-63,165,200,73,-87,-180,-185
-82,-112,-29,97,-26,-70,165,204,78,-87,-185,-185
-82,-117,-34,100,-24,-75,170,209,87,-87,-185,-190
-82,-117,-34,100,-24,-75,170,214,87,-87,-185,-190
-82,-117,-34,100,-24,-75,175,219,97,-92,-185,-190
-82,-112,-29,97,-26,-70,175,224,102,-92,-190,-190
-82,-112,-29,97,-26,-70,175,229,102,-87,-200,-190
-82,-117,-34,100,-24,-75,180,234,102,-87,-204,-200
-82,-122,-39,102,-21,-80,180,244,112,-87,-209,-204
-82,-122,-39,102,-21,-80,185,248,122,-87,-214,-204
-82,-122,-39,102,-21,-80,185,253,122,-87,-214,-209
-82,-131,-48,107,-17,-90,185,263,131,-87,-219,-214
-87,-141,-53,114,-17,-97,190,273,136,-87,-224,-219
-87,-146,-58,117,-14,-102,185,278,141,-87,-229,-219
-87,-146,-58,117,-14,-102,185,283,146,-87,-229,-229
-92,-151,-58,122,-17,-104,185,297,151,-87,-239,-234
-92,-151,-58,122,-17,-104,185,312,161,-92,-234,-234
-92,-151,-58,122,-17,-104,190,322,175,-87,-229,-239
-92,-151,-58,122,-17,-104,190,336,190,-82,-234,-244
-87,-146,-58,117,-14,-102,200,356,200,-78,-234,-248
-82,-146,-63,114,-9,-104,200,370,214,-73,-244,-258
-82,-151,-68,117,-7,-109,209,390,229,-78,-244,-253
-82,-151,-68,117,-7,-109,219,409,239,-78,-244,-253
-87,-156,-68,122,-9,-112,219,429,253,-68,-253,-258
-87,-156,-68,122,-9,-112,219,448,268,-63,-248,-258
-87,-156,-68,122,-9,-112,229,473,287,-58,-258,-273
-87,-156,-68,122,-9,-112,239,497,307,-53,-263,-278
-92,-161,-68,126,-12,-114,248,522,326,-53,-263,-287
-87,-161,-73,124,-7,-117,253,546,341,-48,-268,-287
-87,-156,-68,122,-9,-112,263,575,361,-43,-278,-302
-87,-151,-63,119,-12,-107,278,600,380,-43,-287,-312
-87,-151,-63,119,-12,-107,283,624,405,-39,-297,-317
-92,-151,-58,122,-17,-104,297,653,424,-34,-307,-326
-102,-151,-48,126,-26,-100,312,683,448,-34,-312,-336
-117,-146,-29,131,-43,-87,326,712,473,-34,-326,-356
-117,-146,-29,131,-43,-87,336,741,497,-39,-336,-361
-122,-146,-24,134,-48,-85,356,771,517,-43,-351,-370
-141,-146,-4,143,-68,-75,366,790,541,-43,-361,-385
-146,-151,-4,148,-70,-78,370,814,566,-43,-370,-400
-151,-151,0,151,-75,-75,395,834,585,-39,-395,-409
-161,-151,9,156,-85,-70,405,854,610,-39,-409,-429
-175,-151,24,163,-100,-63,414,873,629,-39,-419,-448
-185,-151,34,168,-109,-58,424,883,639,-39,-439,-468
-200,-146,53,173,-126,-46,434,893,653,-39,-453,-478
-204,-141,63,173,-134,-39,444,893,663,-39,-463,-488
-209,-136,73,173,-141,-31,448,888,673,-39,-473,-497
-214,-131,82,173,-148,-24,448,868,683,-39,-483,-507
-224,-126,97,175,-161,-14,448,844,683,-29,-483,-507
-224,-122,102,173,-163,-9,444,824,683,-19,-483,-502
-224,-112,112,168,-168,0,434,795,673,-14,-473,-497
-219,-112,107,165,-163,-2,409,761,649,0,-458,-483
-214,-112,102,163,-158,-4,385,717,624,0,-434,-473
-214,-102,112,158,-163,4,361,663,595,9,-409,-439
-204,-87,117,146,-161,14,341,610,570,24,-380,-409
-195,-73,122,134,-158,24,307,546,527,34,-346,-370
-180,-58,122,119,-151,31,268,468,488,43,-302,-341
-156,-39,117,97,-136,39,239,395,429,48,-268,-302
-136,-34,102,85,-119,34,195,331,375,43,-219,-253
-112,-19,92,65,-102,36,156,273,322,43,-180,-209
-92,-4,87,48,-90,41,122,209,263,53,-146,-175
-73,0,73,36,-73,36,87,156,219,58,-107,-131
-58,4,63,26,-61,34,63,112,175,48,-73,-92
-43,9,53,17,-48,31,48,78,136,43,-48,-58
-24,9,34,7,-29,21,24,39,102,39,-29,-34
-19,4,24,7,-21,14,9,0,63,34,-9,-19
-14,0,14,7,-14,7,-4,-24,29,29,4,0
-9,-4,4,7,-7,0,-14,-43,4,19,24,19
0,-4,-4,2,2,-4,-34,-58,-4,9,19,29
9,-4,-14,-2,12,-9,-43,-78,-24,0,24,39
9,-4,-14,-2,12,-9,-48,-87,-34,0,24,43
14,-9,-24,-2,19,-17,-48,-97,-43,0,29,43
14,-14,-29,0,21,-21,-43,-97,-48,-9,29,43
19,-14,-34,-2,26,-24,-43,-97,-48,-14,29,48
24,-14,-39,-4,31,-26,-43,-102,-48,-14,29,48
24,-9,-34,-7,29,-21,-48,-102,-48,-19,29,53
24,-4,-29,-9,26,-17,-48,-102,-48,-19,29,53
19,0,-19,-9,19,-9,-48,-102,-53,-24,29,48
19,-9,-29,-4,24,-19,-43,-102,-58,-29,29,48
24,-9,-34,-7,29,-21,-43,-102,-63,-29,29,48
24,-9,-34,-7,29,-21,-48,-102,-63,-29,29,48
19,-9,-29,-4,24,-19,-53,-97,-63,-29,29,53
14,-14,-29,0,21,-21,-53,-97,-58,-24,34,53
14,-24,-39,4,26,-31,-53,-97,-53,-19,34,53
14,-24,-39,4,26,-31,-53,-97,-53,-24,34,48
14,-24,-39,4,26,-31,-48,-92,-48,-24,34,43
14,-24,-39,4,26,-31,-48,-87,-48,-24,34,43
