I,II,III,aVR,aVL,aVF,V1,V2,V3,V4,V5,V6,
39,19,-19,-29,29,0,-165,-204,-136,-39,29,58
43,19,-24,-31,34,-2,-175,-209,-141,-39,29,63
48,19,-29,-34,39,-4,-185,-214,-146,-39,29,68
53,24,-29,-39,41,-2,-190,-219,-146,-39,34,73
58,29,-29,-43,43,0,-195,-224,-146,-39,39,78
58,29,-29,-43,43,0,-200,-224,-151,-39,43,82
58,29,-29,-43,43,0,-204,-224,-156,-39,48,87
63,29,-34,-46,48,-2,-209,-229,-156,-39,48,87
68,29,-39,-48,53,-4,-214,-234,-156,-39,48,87
68,29,-39,-48,53,-4,-214,-234,-161,-39,48,92
68,29,-39,-48,53,-4,-214,-234,-165,-39,48,97
73,34,-39,-53,56,-2,-219,-239,-165,-39,48,102
78,39,-39,-58,58,0,-224,-244,-165,-39,48,107
78,39,-39,-58,58,0,-229,-248,-170,-39,48,107
78,39,-39,-58,58,0,-234,-253,-175,-39,48,107
78,39,-39,-58,58,0,-234,-258,-180,-39,53,107
78,39,-39,-58,58,0,-234,-263,-185,-39,58,107
78,39,-39,-58,58,0,-239,-268,-190,-43,58,107
78,39,-39,-58,58,0,-244,-273,-195,-48,58,107
78,39,-39,-58,58,0,-244,-278,-200,-48,58,112
78,39,-39,-58,58,0,-244,-283,-204,-48,58,117
78,39,-39,-58,58,0,-248,-287,-214,-53,58,117
78,39,-39,-58,58,0,-253,-292,-224,-58,58,117
78,39,-39,-58,58,0,-258,-307,-229,-63,58,117
78,39,-39,-58,58,0,-263,-322,-234,-68,58,117
78,39,-39,-58,58,0,-268,-331,-248,-73,58,117
78,39,-39,-58,58,0,-273,-341,-263,-78,58,117
78,39,-39,-58,58,0,-278,-351,-268,-82,58,117
78,39,-39,-58,58,0,-283,-361,-273,-87,58,117
78,39,-39,-58,58,0,-287,-375,-287,-92,58,117
78,39,-39,-58,58,0,-292,-390,-302,-97,58,117
82,39,-43,-61,63,-2,-302,-405,-322,-107,53,117
87,39,-48,-63,68,-4,-312,-419,-341,-117,48,117
97,43,-53,-70,75,-4,-322,-434,-351,-122,48,117
107,48,-58,-78,82,-4,-331,-448,-361,-126,48,117
107,48,-58,-78,82,-4,-336,-458,-375,-131,48,122
107,48,-58,-78,82,-4,-341,-468,-390,-136,48,126
117,48,-68,-82,92,-9,-346,-473,-405,-141,48,126
126,48,-78,-87,102,-14,-351,-478,-419,-146,48,126
131,48,-82,-90,107,-17,-351,-478,-424,-151,43,122
136,48,-87,-92,112,-19,-351,-478,-429,-156,39,117
141,48,-92,-95,117,-21,-351,-463,-429,-161,39,117
146,48,-97,-97,122,-24,-351,-448,-429,-165,39,117
151,43,-107,-97,129,-31,-341,-429,-429,-165,34,107
156,39,-117,-97,136,-39,-331,-409,-429,-165,29,97
156,39,-117,-97,136,-39,-322,-380,-419,-165,24,97
156,39,-117,-97,136,-39,-312,-351,-409,-165,19,97
156,34,-122,-95,139,-43,-292,-326,-395,-165,14,87
156,29,-126,-92,141,-48,-273,-302,-380,-165,9,78
146,24,-122,-85,134,-48,-253,-273,-351,-156,0,63
136,19,-117,-78,126,-48,-234,-244,-322,-146,-9,48
126,14,-112,-70,119,-48,-214,-219,-302,-141,-9,43
117,9,-107,-63,112,-48,-195,-195,-283,-136,-9,39
107,4,-102,-56,104,-48,-180,-175,-263,-131,-19,29
97,0,-97,-48,97,-48,-165,-156,-244,-126,-29,19
92,-4,-97,-43,95,-51,-151,-141,-224,-117,-34,9
87,-9,-97,-39,92,-53,-136,-126,-204,-107,-39,0
78,-19,-97,-29,87,-58,-122,-112,-190,-102,-39,-9
68,-29,-97,-19,82,-63,-107,-97,-175,-97,-39,-19
63,-34,-97,-14,80,-65,-102,-82,-156,-92,-39,-24
58,-39,-97,-9,78,-68,-97,-68,-136,-87,-39,-29
48,-39,-87,-4,68,-63,-92,-63,-126,-82,-39,-29
39,-39,-78,0,58,-58,-87,-58,-117,-78,-39,-29
34,-39,-73,2,53,-56,-78,-48,-102,-73,-39,-29
29,-39,-68,4,48,-53,-68,-39,-87,-68,-39,-29
24,-39,-63,7,43,-51,-63,-39,-82,-58,-39,-29
19,-39,-58,9,39,-48,-58,-39,-78,-48,-39,-29
19,-39,-58,9,39,-48,-58,-34,-73,-43,-39,-29
19,-39,-58,9,39,-48,-58,-29,-68,-39,-39,-29
19,-39,-58,9,39,-48,-58,-24,-63,-39,-34,-29
19,-39,-58,9,39,-48,-58,-19,-58,-39,-29,-29
14,-39,-53,12,34,-46,-58,-19,-48,-34,-29,-29
9,-39,-48,14,29,-43,-58,-19,-39,-29,-29,-29
9,-39,-48,14,29,-43,-58,-14,-39,-29,-24,-29
9,-39,-48,14,29,-43,-58,-9,-39,-29,-19,-29
9,-39,-48,14,29,-43,-58,-9,-34,-24,-19,-24
9,-39,-48,14,29,-43,-58,-9,-29,-19,-19,-19
9,-39,-48,14,29,-43,-58,-14,-29,-19,-19,-19
9,-39,-48,14,29,-43,-58,-19,-29,-19,-19,-19
9,-39,-48,14,29,-43,-58,-19,-29,-19,-19,-19
9,-39,-48,14,29,-43,-58,-19,-29,-19,-19,-19
9,-39,-48,14,29,-43,-58,-19,-29,-19,-19,-24
9,-39,-48,14,29,-43,-58,-19,-29,-19,-19,-29
9,-39,-48,14,29,-43,-58,-19,-29,-19,-19,-29
9,-39,-48,14,29,-43,-58,-19,-29,-19,-19,-29
9,-39,-48,14,29,-43,-58,-24,-34,-19,-19,-29
9,-39,-48,14,29,-43,-58,-29,-39,-19,-19,-29
14,-39,-53,12,34,-46,-63,-34,-43,-24,-24,-34
19,-39,-58,9,39,-48,-68,-39,-48,-29,-29,-39
19,-39,-58,9,39,-48,-68,-39,-48,-29,-29,-39
19,-39,-58,9,39,-48,-68,-39,-48,-29,-29,-39
19,-39,-58,9,39,-48,-68,-39,-48,-29,-29,-39
19,-39,-58,9,39,-48,-68,-39,-48,-29,-29,-39
19,-39,-58,9,39,-48,-68,-39,-48,-29,-29,-39
19,-39,-58,9,39,-48,-68,-39,-48,-29,-29,-39
19,-39,-58,9,39,-48,-68,-43,-48,-34,-29,-39
19,-39,-58,9,39,-48,-68,-48,-48,-39,-29,-39
19,-39,-58,9,39,-48,-68,-48,-53,-43,-34,-39
19,-39,-58,9,39,-48,-68,-48,-58,-48,-39,-39
19,-39,-58,9,39,-48,-68,-53,-58,-48,-39,-39
19,-39,-58,9,39,-48,-68,-58,-58,-48,-39,-39
19,-39,-58,9,39,-48,-68,-58,-53,-43,-39,-39
19,-39,-58,9,39,-48,-68,-58,-48,-39,-39,-39
19,-39,-58,9,39,-48,-68,-58,-48,-39,-39,-39
19,-39,-58,9,39,-48,-68,-58,-48,-39,-39,-39
19,-39,-58,9,39,-48,-68,-58,-48,-39,-39,-39
19,-39,-58,9,39,-48,-68,-58,-48,-39,-39,-39
19,-39,-58,9,39,-48,-68,-58,-43,-39,-39,-39
19,-39,-58,9,39,-48,-68,-58,-39,-39,-39,-39
24,-34,-58,4,41,-46,-58,-48,-34,-29,-34,-34
29,-29,-58,0,43,-43,-48,-39,-29,-19,-29,-29
34,-19,-53,-7,43,-36,-39,-29,-19,-9,-19,-24
39,-9,-48,-14,43,-29,-29,-19,-9,0,-9,-19
48,-4,-53,-21,51,-29,-14,0,9,9,0,-9
58,0,-58,-29,58,-29,0,19,29,19,9,0
73,14,-58,-43,65,-21,14,48,48,43,29,14
87,29,-58,-58,73,-14,29,78,68,68,48,29
107,39,-68,-73,87,-14,29,97,78,82,68,43
126,48,-78,-87,102,-14,29,117,87,97,87,58
131,48,-82,-90,107,-17,9,126,87,97,87,58
136,48,-87,-92,112,-19,-9,136,87,97,87,58
161,34,-126,-97,143,-46,-39,136,82,97,87,58
185,19,-165,-102,175,-73,-68,136,78,97,87,58
190,39,-151,-114,170,-56,-112,117,63,87,87,58
195,58,-136,-126,165,-39,-156,97,48,78,87,58
195,58,-136,-126,165,-39,-165,53,29,63,73,53
195,58,-136,-126,165,-39,-175,9,9,48,58,48
195,39,-156,-117,175,-58,-175,4,4,43,48,43
185,43,-141,-114,163,-48,-170,-9,0,39,43,43
175,48,-126,-112,151,-39,-170,-24,-9,39,39,43
170,68,-102,-119,136,-17,-170,-43,-14,29,48,43
156,63,-92,-109,124,-14,-170,-68,-24,19,43,43
131,63,-68,-97,100,-2,-161,-82,-29,14,24,34
122,58,-63,-90,92,-2,-151,-68,-24,14,29,34
117,39,-78,-78,97,-19,-151,-68,-29,9,29,24
87,0,-87,-43,87,-43,-141,-82,-53,-19,-14,-9
73,-34,-107,-19,90,-70,-136,-92,-68,-34,-43,-34
48,-43,-92,-2,70,-68,-126,-102,-73,-43,-43,-39
14,-43,-58,14,36,-51,-117,-112,-78,-48,-48,-43
4,-43,-48,19,26,-46,-112,-112,-78,-48,-48,-48
-4,-48,-43,26,19,-46,-112,-112,-78,-48,-48,-48
-4,-53,-48,29,21,-51,-107,-112,-78,-58,-58,-53
-4,-53,-48,29,21,-51,-107,-107,-78,-63,-63,-53
-4,-53,-48,29,21,-51,-102,-102,-78,-63,-63,-53
-4,-53,-48,29,21,-51,-92,-102,-78,-63,-63,-53
-9,-53,-43,31,17,-48,-92,-97,-78,-58,-58,-53
-9,-53,-43,31,17,-48,-92,-97,-73,-58,-53,-53
-9,-53,-43,31,17,-48,-92,-97,-73,-53,-53,-53
-9,-53,-43,31,17,-48,-92,-97,-68,-48,-53,-48
-9,-53,-43,31,17,-48,-87,-92,-68,-48,-48,-53
-9,-53,-43,31,17,-48,-87,-92,-68,-48,-48,-58
-14,-53,-39,34,12,-46,-87,-92,-68,-48,-48,-58
-19,-53,-34,36,7,-43,-87,-87,-73,-48,-53,-58
-19,-53,-34,36,7,-43,-82,-87,-73,-48,-53,-53
-19,-53,-34,36,7,-43,-82,-87,-68,-48,-48,-48
-19,-48,-29,34,4,-39,-78,-78,-68,-48,-48,-53
-19,-73,-53,46,17,-63,-73,-63,-73,-48,-63,-73
-14,-136,-122,75,53,-129,-63,-63,-97,-82,-102,-126
-24,-156,-131,90,53,-143,-53,-53,-87,-73,-92,-131
-73,-122,-48,97,-12,-85,-43,-14,34,78,63,-19
-102,-19,82,61,-92,31,-39,0,200,326,361,229
-151,117,268,17,-209,192,-29,-14,380,619,727,536
-165,209,375,-21,-270,292,-34,9,517,844,1000,741
-126,244,370,-58,-248,307,-78,9,590,1019,1254,961
-58,263,322,-102,-190,292,-112,53,566,971,1195,927
87,219,131,-153,-21,175,-161,146,400,580,634,517
224,204,-19,-214,122,92,-180,258,239,204,126,146
385,175,-209,-280,297,-17,-200,322,14,-234,-405,-219
478,244,-234,-361,356,4,-204,336,-82,-414,-629,-356
375,444,68,-409,153,256,-122,292,-34,-429,-629,-341
200,614,414,-407,-107,514,-53,122,9,-424,-610,-268
-165,678,844,-256,-505,761,92,-156,102,-395,-610,-248
-541,541,1083,0,-812,812,390,-102,263,-351,-668,-400
-790,258,1049,265,-919,653,795,419,517,-248,-722,-673
-917,-68,849,492,-883,390,1093,922,702,-190,-785,-907
-936,-366,570,651,-753,102,1322,1376,863,-131,-805,-995
-893,-507,385,700,-639,-61,1439,1634,956,-43,-732,-980
-819,-580,239,700,-529,-170,1478,1805,961,9,-639,-932
-741,-580,161,661,-451,-209,1464,1898,995,97,-517,-829
-707,-551,156,629,-431,-197,1415,1859,1044,180,-414,-712
-688,-488,200,588,-444,-143,1385,1732,1054,224,-322,-595
-614,-375,239,495,-427,-68,1371,1693,1102,307,-200,-473
-570,-322,248,446,-409,-36,1371,1649,1137,361,-122,-395
-580,-336,244,458,-412,-46,1390,1498,1088,336,-112,-346
-585,-326,258,456,-422,-34,1371,1229,976,273,-122,-312
-561,-224,336,392,-448,56,1288,917,936,297,-43,-214
-497,-112,385,305,-441,136,1190,644,902,336,48,-102
-400,-39,361,219,-380,161,1146,575,941,429,156,9
-317,-19,297,168,-307,139,1073,483,834,405,175,39
-283,-48,234,165,-258,92,912,53,409,146,39,-19
-234,-58,175,146,-204,58,663,-204,146,4,-29,-29
-136,-53,82,95,-109,14,375,-151,53,-14,-39,-14
-73,-39,34,56,-53,-2,204,-122,-4,-24,-29,4
-53,-19,34,36,-43,7,82,-136,-43,-14,14,29
-24,-14,9,19,-17,-2,-9,-141,-68,-14,29,48
9,-14,-24,2,17,-19,-63,-141,-78,-14,29,48
19,-14,-34,-2,26,-24,-87,-146,-87,-14,29,48
19,0,-19,-9,19,-9,-102,-161,-92,-14,34,58
24,9,-14,-17,19,-2,-126,-175,-102,-19,43,68
34,9,-24,-21,29,-7,-146,-180,-117,-19,43,68
43,9,-34,-26,39,-12,-151,-180,-117,-19,43,73
48,9,-39,-29,43,-14,-161,-185,-126,-24,43,73
53,14,-39,-34,46,-12,-170,-195,-131,-24,43,78
58,9,-48,-34,53,-19,-180,-195,-136,-24,48,78
58,4,-53,-31,56,-24,-185,-195,-146,-24,48,82
63,9,-53,-36,58,-21,-185,-200,-146,-24,53,87
63,9,-53,-36,58,-21,-185,-200,-146,-24,58,97
68,9,-58,-39,63,-24,-195,-200,-146,-19,63,102
68,9,-58,-39,63,-24,-195,-204,-151,-14,68,102
73,9,-63,-41,68,-26,-200,-204,-156,-14,73,107
73,9,-63,-41,68,-26,-204,-209,-156,-14,73,107
73,9,-63,-41,68,-26,-214,-209,-161,-14,73,112
78,9,-68,-43,73,-29,-219,-214,-161,-9,73,117
78,9,-68,-43,73,-29,-219,-214,-161,-9,73,117
78,14,-63,-46,70,-24,-219,-224,-161,-14,78,122
78,14,-63,-46,70,-24,-224,-224,-161,-14,78,122
82,14,-68,-48,75,-26,-229,-234,-170,-14,78,122
82,14,-68,-48,75,-26,-229,-239,-170,-14,82,131
82,14,-68,-48,75,-26,-229,-244,-175,-19,82,141
82,19,-63,-51,73,-21,-234,-248,-175,-19,87,141
82,19,-63,-51,73,-21,-239,-253,-180,-19,87,141
87,19,-68,-53,78,-24,-229,-263,-185,-24,87,136
87,19,-68,-53,78,-24,-234,-268,-200,-24,87,136
87,19,-68,-53,78,-24,-248,-278,-209,-29,92,136
87,19,-68,-53,78,-24,-258,-287,-214,-34,92,136
87,19,-68,-53,78,-24,-258,-297,-224,-34,92,136
87,19,-68,-53,78,-24,-268,-302,-234,-39,92,141
87,19,-68,-53,78,-24,-278,-317,-244,-34,92,146
87,24,-63,-56,75,-19,-283,-326,-253,-43,92,151
87,29,-58,-58,73,-14,-287,-341,-263,-48,97,151
87,34,-53,-61,70,-9,-292,-351,-273,-53,102,151
87,34,-53,-61,70,-9,-302,-361,-283,-58,102,156
92,34,-58,-63,75,-12,-307,-375,-297,-58,102,156
102,39,-63,-70,82,-12,-317,-390,-307,-53,112,161
112,39,-73,-75,92,-17,-326,-400,-322,-58,122,165
112,39,-73,-75,92,-17,-331,-405,-341,-58,122,165
122,39,-82,-80,102,-21,-336,-409,-356,-68,122,170
126,39,-87,-82,107,-24,-341,-419,-366,-68,122,170
136,34,-102,-85,119,-34,-341,-419,-380,-73,122,170
146,39,-107,-92,126,-34,-346,-419,-385,-78,126,170
151,39,-112,-95,131,-36,-351,-419,-390,-82,126,170
161,39,-122,-100,141,-41,-356,-409,-395,-78,122,170
165,39,-126,-102,146,-43,-356,-400,-395,-82,117,170
175,39,-136,-107,156,-48,-351,-380,-395,-82,117,165
175,34,-141,-104,158,-53,-341,-366,-395,-87,107,161
185,39,-146,-112,165,-53,-331,-346,-385,-87,102,156
185,43,-141,-114,163,-48,-317,-312,-375,-87,97,146
180,43,-136,-112,158,-46,-302,-287,-361,-92,87,136
180,34,-146,-107,163,-56,-283,-258,-341,-92,82,131
170,29,-141,-100,156,-56,-263,-229,-317,-92,73,122
161,29,-131,-95,146,-51,-248,-200,-297,-78,73,117
146,24,-122,-85,134,-48,-229,-175,-278,-68,63,107
136,14,-122,-75,129,-53,-209,-156,-258,-68,53,97
126,0,-126,-63,126,-63,-185,-136,-239,-68,48,78
112,-9,-122,-51,117,-65,-165,-117,-219,-63,39,63
107,-14,-122,-46,114,-68,-156,-97,-200,-68,29,53
92,-19,-112,-36,102,-65,-136,-82,-180,-63,19,43
82,-24,-107,-29,95,-65,-126,-73,-161,-63,14,34
73,-29,-102,-21,87,-65,-112,-58,-146,-58,4,24
68,-29,-97,-19,82,-63,-102,-48,-136,-58,4,14
63,-29,-92,-17,78,-61,-92,-39,-122,-43,0,4
48,-34,-82,-7,65,-58,-82,-34,-107,-43,-4,0
39,-34,-73,-2,56,-53,-82,-39,-92,-39,-9,0
39,-43,-82,2,61,-63,-78,-34,-82,-34,-9,-9
34,-48,-82,7,58,-65,-68,-24,-73,-34,-14,-9
29,-53,-82,12,56,-68,-63,-19,-68,-29,-19,-14
24,-58,-82,17,53,-70,-58,-19,-63,-34,-19,-14
24,-58,-82,17,53,-70,-58,-14,-58,-29,-19,-14
19,-58,-78,19,48,-68,-53,-9,-53,-24,-14,-14
19,-63,-82,21,51,-73,-53,-14,-48,-19,-14,-14
19,-63,-82,21,51,-73,-48,-14,-39,-19,-14,-14
14,-58,-73,21,43,-65,-48,-14,-39,-14,-14,-14
14,-53,-68,19,41,-61,-48,-9,-34,-9,-14,-14
14,-53,-68,19,41,-61,-48,-9,-29,-9,-9,-14
9,-53,-63,21,36,-58,-48,-14,-24,-4,-9,-14
14,-48,-63,17,39,-56,-48,-14,-19,-4,-9,-14
14,-48,-63,17,39,-56,-48,-19,-14,-4,-14,-14
14,-48,-63,17,39,-56,-48,-19,-14,-4,-14,-19
19,-48,-68,14,43,-58,-48,-19,-14,-4,-14,-19
19,-48,-68,14,43,-58,-43,-19,-14,-4,-14,-19
19,-43,-63,12,41,-53,-43,-19,-14,-4,-14,-19
19,-43,-63,12,41,-53,-48,-24,-14,-4,-14,-19
19,-48,-68,14,43,-58,-48,-24,-14,0,-14,-19
14,-48,-63,17,39,-56,-48,-24,-14,0,-14,-19
14,-48,-63,17,39,-56,-48,-29,-14,-4,-14,-19
14,-48,-63,17,39,-56,-48,-29,-14,-4,-14,-14
14,-48,-63,17,39,-56,-53,-34,-14,-9,-14,-14
14,-48,-63,17,39,-56,-58,-34,-19,-9,-14,-14
9,-48,-58,19,34,-53,-63,-34,-29,-9,-14,-14
9,-48,-58,19,34,-53,-63,-34,-29,-9,-14,-19
9,-48,-58,19,34,-53,-63,-39,-39,-14,-14,-19
9,-48,-58,19,34,-53,-63,-43,-39,-14,-14,-19
9,-48,-58,19,34,-53,-63,-48,-39,-14,-14,-19
9,-48,-58,19,34,-53,-63,-48,-39,-14,-14,-19
9,-53,-63,21,36,-58,-63,-48,-39,-14,-14,-19
9,-53,-63,21,36,-58,-58,-48,-39,-14,-19,-19
9,-53,-63,21,36,-58,-58,-48,-43,-19,-24,-19
9,-53,-63,21,36,-58,-58,-53,-43,-19,-24,-19
9,-53,-63,21,36,-58,-58,-53,-43,-19,-24,-19
14,-48,-63,17,39,-56,-63,-58,-43,-29,-24,-24
14,-48,-63,17,39,-56,-63,-58,-43,-34,-29,-29
14,-48,-63,17,39,-56,-68,-58,-48,-34,-34,-29
14,-48,-63,17,39,-56,-68,-63,-48,-34,-34,-29
14,-43,-58,14,36,-51,-73,-63,-43,-29,-29,-24
14,-43,-58,14,36,-51,-73,-63,-39,-24,-29,-24
14,-43,-58,14,36,-51,-63,-58,-34,-19,-19,-19
9,-39,-48,14,29,-43,-53,-58,-29,-14,-14,-14
14,-29,-43,7,29,-36,-48,-53,-24,-9,-14,-14
24,-19,-43,-2,34,-31,-43,-48,-19,-4,-9,-14
34,-19,-53,-7,43,-36,-34,-39,-9,9,4,-4
43,-19,-63,-12,53,-41,-24,-29,4,19,14,4
58,-14,-73,-21,65,-43,-4,0,24,34,29,14
73,-4,-78,-34,75,-41,14,29,43,53,43,29
92,14,-78,-53,85,-31,19,53,68,73,63,43
107,29,-78,-68,92,-24,19,78,92,97,87,58
117,34,-82,-75,100,-24,14,87,97,102,87,63
122,34,-87,-78,104,-26,9,92,97,102,92,73
146,24,-122,-85,134,-48,-14,107,97,107,102,73
156,19,-136,-87,146,-58,-43,122,97,107,107,73
170,29,-141,-100,156,-56,-73,117,87,107,102,82
185,39,-146,-112,165,-53,-102,117,78,112,102,92
185,48,-136,-117,161,-43,-131,73,58,92,92,82
185,58,-126,-122,156,-34,-165,29,39,78,87,78
180,43,-136,-112,158,-46,-165,4,24,63,73,68
175,29,-146,-102,161,-58,-165,-19,9,48,58,58
175,29,-146,-102,161,-58,-165,-24,4,43,58,53
161,39,-122,-100,141,-41,-161,-39,0,43,53,53
151,53,-97,-102,124,-21,-161,-53,-9,43,48,53
141,68,-73,-104,107,-2,-161,-73,-14,39,48,53
126,53,-73,-90,100,-9,-156,-87,-24,29,43,48
102,43,-58,-73,80,-7,-141,-92,-29,24,24,34
97,29,-68,-63,82,-19,-131,-92,-34,9,14,24
97,0,-97,-48,97,-48,-131,-107,-48,-9,0,4
68,-24,-92,-21,80,-58,-126,-112,-63,-29,-24,-19
53,-43,-97,-4,75,-70,-126,-112,-68,-34,-34,-34
29,-53,-82,12,56,-68,-117,-117,-73,-43,-39,-34
-4,-53,-48,29,21,-51,-107,-122,-78,-48,-48,-34
-4,-48,-43,26,19,-46,-102,-122,-78,-48,-48,-39
-4,-48,-43,26,19,-46,-102,-122,-78,-48,-48,-39
-4,-53,-48,29,21,-51,-97,-122,-73,-53,-53,-43
-4,-53,-48,29,21,-51,-97,-117,-68,-53,-53,-43
-4,-53,-48,29,21,-51,-97,-112,-68,-53,-48,-43
-4,-53,-48,29,21,-51,-92,-112,-68,-53,-43,-43
-9,-53,-43,31,17,-48,-92,-112,-73,-48,-43,-43
-9,-53,-43,31,17,-48,-92,-117,-73,-48,-43,-43
-9,-53,-43,31,17,-48,-92,-117,-73,-48,-48,-48
-9,-53,-43,31,17,-48,-92,-117,-68,-48,-53,-48
-9,-53,-43,31,17,-48,-87,-107,-68,-48,-48,-48
-9,-53,-43,31,17,-48,-87,-102,-68,-48,-48,-48
-9,-53,-43,31,17,-48,-87,-102,-63,-48,-48,-43
-9,-53,-43,31,17,-48,-87,-97,-63,-48,-53,-39
-9,-53,-43,31,17,-48,-78,-97,-63,-48,-53,-39
-9,-53,-43,31,17,-48,-73,-97,-58,-48,-48,-39
-9,-58,-48,34,19,-53,-68,-87,-58,-48,-48,-43
-9,-92,-82,51,36,-87,-63,-73,-63,-48,-63,-63
-14,-136,-122,75,53,-129,-58,-68,-63,-34,-53,-87
-34,-136,-102,85,34,-119,-53,-53,-29,24,4,-63
-82,-82,0,82,-41,-41,-43,-29,107,204,209,87
-112,39,151,36,-131,95,-39,-29,287,483,556,375
-141,156,297,-7,-219,226,-39,-43,444,741,873,644
-136,229,366,-46,-251,297,-53,-19,556,932,1098,810
-78,244,322,-82,-200,283,-97,0,580,995,1195,912
9,244,234,-126,-112,239,-131,63,507,834,980,761
146,209,63,-178,41,136,-170,156,331,429,414,361
273,204,-68,-239,170,68,-180,268,161,39,-97,0
370,209,-161,-290,265,24,-175,307,-9,-331,-531,-292
400,312,-87,-356,244,112,-156,297,-53,-444,-658,-356
248,483,234,-366,7,358,-53,209,0,-448,-673,-351
24,624,600,-324,-287,612,34,-4,48,-434,-668,-287
-317,600,917,-141,-617,758,234,-131,165,-405,-678,-341
-668,375,1044,146,-856,710,585,73,351,-361,-746,-566
-854,102,956,375,-905,529,946,580,580,-268,-795,-800
-917,-214,702,566,-810,244,1200,1068,741,-219,-854,-995
-917,-463,453,690,-685,-4,1385,1449,868,-161,-829,-1034
-854,-556,297,705,-575,-129,1459,1634,927,-73,-712,-971
-790,-595,195,692,-492,-200,1483,1751,932,-9,-629,-902
-722,-561,161,641,-441,-200,1454,1790,966,87,-517,-780
-688,-522,165,605,-427,-178,1415,1732,1010,161,-405,-673
-668,-448,219,558,-444,-114,1395,1586,1015,195,-302,-566
-614,-361,253,488,-434,-53,1385,1503,1039,258,-204,-463
-590,-331,258,461,-424,-36,1390,1415,1049,292,-151,-405
-585,-331,253,458,-419,-39,1395,1220,990,273,-131,-346
-575,-307,268,441,-422,-19,1361,907,868,214,-131,-302
-546,-204,341,375,-444,68,1283,624,834,248,-53,-200
-478,-92,385,285,-431,146,1190,380,805,297,39,-82
-385,-39,346,212,-366,153,1122,312,790,346,117,4
-307,-39,268,173,-287,114,1024,219,629,278,107,9
-253,-53,200,153,-226,73,810,-92,268,68,4,-29
-185,-48,136,117,-161,43,507,-234,68,-24,-29,-19
-102,-43,58,73,-80,7,253,-175,4,-29,-29,-4
-53,-29,24,41,-39,-2,117,-141,-24,-24,-9,14
-39,-9,29,24,-34,9,24,-161,-58,-14,29,39
-14,-4,9,9,-12,2,-39,-170,-78,-14,39,58
14,-4,-19,-4,17,-12,-82,-165,-87,-14,39,58
19,-4,-24,-7,21,-14,-97,-165,-97,-14,39,58
24,9,-14,-17,19,-2,-112,-180,-102,-14,43,68
34,19,-14,-26,24,2,-136,-195,-112,-19,53,78
43,19,-24,-31,34,-2,-156,-195,-126,-19,53,78
53,19,-34,-36,43,-7,-161,-190,-126,-19,53,82
53,19,-34,-36,43,-7,-170,-195,-131,-19,53,82
53,24,-29,-39,41,-2,-180,-204,-131,-14,53,87
58,24,-34,-41,46,-4,-190,-204,-136,-14,58,87
58,24,-34,-41,46,-4,-195,-204,-146,-14,58,92
63,24,-39,-43,51,-7,-195,-214,-146,-14,58,92
63,19,-43,-41,53,-12,-195,-219,-146,-14,58,97
68,19,-48,-43,58,-14,-204,-219,-146,-14,63,102
68,19,-48,-43,58,-14,-204,-224,-151,-14,68,102
73,19,-53,-46,63,-17,-209,-224,-156,-14,73,107
73,19,-53,-46,63,-17,-214,-229,-156,-14,73,107
73,19,-53,-46,63,-17,-219,-229,-161,-19,73,112
78,19,-58,-48,68,-19,-219,-234,-161,-19,73,117
78,19,-58,-48,68,-19,-224,-229,-165,-19,73,117
78,24,-53,-51,65,-14,-229,-234,-170,-24,78,122
78,24,-53,-51,65,-14,-234,-234,-170,-24,78,122
82,24,-58,-53,70,-17,-239,-244,-180,-24,78,122
82,24,-58,-53,70,-17,-239,-248,-180,-24,82,126
82,24,-58,-53,70,-17,-239,-253,-185,-29,82,131
82,29,-53,-56,68,-12,-244,-258,-185,-29,87,131
82,29,-53,-56,68,-12,-248,-263,-190,-29,87,131
87,29,-58,-58,73,-14,-248,-273,-195,-34,87,131
87,29,-58,-58,73,-14,-263,-278,-209,-34,87,136
87,29,-58,-58,73,-14,-268,-287,-219,-39,87,136
87,29,-58,-58,73,-14,-268,-297,-224,-43,82,136
87,29,-58,-58,73,-14,-263,-307,-234,-39,82,136
87,29,-58,-58,73,-14,-268,-312,-244,-39,82,141
87,29,-58,-58,73,-14,-278,-326,-253,-34,82,141
87,34,-53,-61,70,-9,-283,-336,-263,-43,82,141
92,34,-58,-63,75,-12,-292,-351,-273,-48,82,141
97,34,-63,-65,80,-14,-302,-361,-283,-53,82,141
97,34,-63,-65,80,-14,-312,-370,-297,-63,87,146
102,34,-68,-68,85,-17,-317,-385,-317,-68,92,146
107,39,-68,-73,87,-14,-326,-400,-326,-68,92,151
112,39,-73,-75,92,-17,-336,-409,-341,-78,92,156
112,39,-73,-75,92,-17,-341,-414,-356,-78,92,156
122,39,-82,-80,102,-21,-346,-419,-366,-87,92,161
126,43,-82,-85,104,-19,-351,-429,-375,-87,92,161
136,43,-92,-90,114,-24,-351,-429,-390,-92,92,161
146,48,-97,-97,122,-24,-351,-429,-400,-97,97,161
151,48,-102,-100,126,-26,-351,-429,-409,-102,97,161
161,48,-112,-104,136,-31,-356,-414,-414,-102,92,156
165,48,-117,-107,141,-34,-356,-400,-414,-112,87,151
175,48,-126,-112,151,-39,-351,-380,-409,-112,87,146
175,43,-131,-109,153,-43,-341,-366,-405,-117,78,141
180,43,-136,-112,158,-46,-331,-346,-395,-117,68,136
175,43,-131,-109,153,-43,-317,-312,-385,-117,58,126
165,43,-122,-104,143,-39,-297,-292,-370,-117,53,112
161,34,-126,-97,143,-46,-273,-268,-351,-112,53,102
151,29,-122,-90,136,-46,-253,-239,-326,-117,43,92
141,29,-112,-85,126,-41,-239,-209,-307,-107,43,87
131,24,-107,-78,119,-41,-219,-190,-287,-97,29,78
126,14,-112,-70,119,-48,-200,-175,-268,-97,14,68
117,4,-112,-61,114,-53,-180,-156,-248,-97,9,53
102,0,-102,-51,102,-51,-165,-136,-229,-92,0,43
97,-9,-107,-43,102,-58,-156,-117,-209,-92,-4,34
82,-19,-102,-31,92,-61,-136,-102,-190,-82,-9,24
73,-24,-97,-24,85,-61,-131,-92,-170,-82,-9,14
63,-29,-92,-17,78,-61,-122,-78,-156,-78,-14,4
58,-29,-87,-14,73,-58,-112,-68,-146,-78,-14,0
53,-29,-82,-12,68,-56,-102,-58,-131,-63,-19,-4
43,-34,-78,-4,61,-56,-87,-48,-117,-63,-19,-9
39,-34,-73,-2,56,-53,-82,-48,-102,-58,-19,-9
39,-39,-78,0,58,-58,-78,-43,-92,-53,-19,-19
34,-39,-73,2,53,-56,-68,-34,-82,-53,-24,-19
29,-39,-68,4,48,-53,-63,-29,-73,-43,-29,-24
24,-39,-63,7,43,-51,-58,-29,-63,-43,-29,-24
24,-39,-63,7,43,-51,-58,-24,-58,-39,-29,-24
19,-39,-58,9,39,-48,-53,-19,-53,-34,-24,-24
24,-39,-63,7,43,-51,-58,-19,-48,-29,-24,-24
29,-34,-63,2,46,-48,-58,-14,-39,-29,-24,-24
24,-34,-58,4,41,-46,-58,-14,-39,-24,-24,-24
24,-34,-58,4,41,-46,-58,-9,-34,-19,-24,-24
19,-34,-53,7,36,-43,-58,-4,-29,-19,-19,-24
9,-34,-43,12,26,-39,-58,-4,-24,-14,-19,-24
9,-29,-39,9,24,-34,-58,-9,-24,-14,-14,-24
4,-29,-34,12,19,-31,-58,-19,-24,-14,-14,-24
4,-29,-34,12,19,-31,-58,-19,-24,-14,-14,-24
9,-29,-39,9,24,-34,-58,-19,-24,-14,-14,-19
14,-29,-43,7,29,-36,-53,-19,-24,-14,-14,-19
19,-24,-43,2,31,-34,-53,-19,-24,-14,-14,-19
19,-24,-43,2,31,-34,-58,-24,-24,-14,-19,-24
19,-29,-48,4,34,-39,-58,-24,-24,-9,-24,-29
14,-29,-43,7,29,-36,-58,-24,-24,-9,-24,-29
14,-29,-43,7,29,-36,-58,-29,-24,-14,-24,-29
14,-29,-43,7,29,-36,-58,-29,-24,-14,-19,-24
14,-29,-43,7,29,-36,-63,-34,-24,-19,-14,-24
19,-29,-48,4,34,-39,-63,-34,-24,-19,-14,-19
19,-29,-48,4,34,-39,-63,-34,-29,-19,-14,-14
19,-29,-48,4,34,-39,-63,-34,-29,-19,-19,-19
19,-29,-48,4,34,-39,-63,-39,-39,-24,-24,-19
19,-29,-48,4,34,-39,-63,-43,-39,-24,-24,-19
19,-29,-48,4,34,-39,-63,-48,-39,-24,-24,-19
19,-29,-48,4,34,-39,-68,-48,-43,-24,-24,-19
19,-34,-53,7,36,-43,-73,-48,-48,-24,-24,-19
19,-34,-53,7,36,-43,-68,-48,-48,-24,-24,-24
19,-34,-53,7,36,-43,-68,-48,-53,-29,-24,-29
19,-34,-53,7,36,-43,-68,-53,-53,-29,-24,-29
19,-34,-53,7,36,-43,-68,-53,-53,-29,-24,-29
24,-34,-58,4,41,-46,-68,-58,-48,-34,-19,-29
24,-39,-63,7,43,-51,-63,-58,-43,-34,-19,-29
24,-39,-63,7,43,-51,-68,-53,-48,-29,-24,-29
24,-39,-63,7,43,-51,-68,-53,-48,-24,-24,-29
24,-34,-58,4,41,-46,-73,-53,-48,-24,-24,-29
24,-34,-58,4,41,-46,-73,-53,-48,-24,-29,-34
19,-34,-53,7,36,-43,-73,-53,-48,-24,-29,-34
9,-29,-39,9,24,-34,-73,-58,-48,-24,-34,-34
9,-29,-39,9,24,-34,-73,-58,-48,-29,-34,-34
14,-29,-43,7,29,-36,-73,-58,-48,-34,-29,-34
14,-29,-43,7,29,-36,-73,-58,-48,-29,-29,-34
14,-29,-43,7,29,-36,-73,-58,-43,-29,-34,-34
14,-29,-43,7,29,-36,-73,-53,-43,-29,-29,-34
14,-24,-39,4,26,-31,-73,-48,-43,-24,-24,-29
24,-19,-43,-2,34,-31,-63,-48,-34,-19,-24,-24
29,-19,-48,-4,39,-34,-58,-48,-24,-9,-19,-19
34,-9,-43,-12,39,-26,-48,-29,-9,-4,-9,-19
34,-4,-39,-14,36,-21,-39,-14,0,-4,4,-14
53,4,-48,-29,51,-21,-19,4,14,14,14,-4
58,14,-43,-36,51,-14,0,24,29,29,19,4
73,29,-43,-51,58,-7,14,48,48,48,39,29
97,43,-53,-70,75,-4,29,73,68,68,58,48
107,58,-48,-82,78,4,24,92,78,87,78,58
117,78,-39,-97,78,19,19,112,97,107,97,68
131,68,-63,-100,97,2,0,131,102,102,82,63
151,58,-92,-104,122,-17,-14,136,102,97,87,63
165,48,-117,-107,141,-34,-39,136,87,102,97,68
170,53,-117,-112,143,-31,-63,136,82,102,97,78
185,58,-126,-122,156,-34,-107,117,63,87,92,73
204,68,-136,-136,170,-34,-156,97,48,78,87,68
200,68,-131,-134,165,-31,-175,48,34,63,78,63
195,68,-126,-131,161,-29,-195,0,19,48,68,58
195,58,-136,-126,165,-39,-185,0,4,39,58,48
190,53,-136,-122,163,-41,-175,-9,-4,29,48,43
190,48,-141,-119,165,-46,-170,-19,-14,19,43,39
170,68,-102,-119,136,-17,-170,-43,-19,19,39,43
161,82,-78,-122,119,2,-170,-63,-24,9,39,43
146,73,-73,-109,109,0,-165,-78,-34,0,34,39
117,63,-53,-90,85,4,-151,-82,-39,-4,14,24
102,48,-53,-75,78,-2,-141,-82,-43,-14,4,14
97,19,-78,-58,87,-29,-141,-107,-58,-29,-9,-4
68,-4,-73,-31,70,-39,-131,-122,-73,-48,-34,-29
53,-24,-78,-14,65,-51,-126,-112,-78,-53,-43,-43
29,-34,-63,2,46,-48,-117,-107,-78,-58,-43,-43
-9,-39,-29,24,9,-34,-107,-112,-78,-53,-48,-43
-14,-43,-29,29,7,-36,-102,-112,-78,-48,-48,-48
-14,-48,-34,31,9,-41,-102,-112,-78,-48,-48,-48
-14,-53,-39,34,12,-46,-97,-112,-78,-53,-53,-53
-14,-53,-39,34,12,-46,-97,-107,-78,-53,-53,-53
-14,-53,-39,34,12,-46,-97,-102,-78,-53,-53,-53
-14,-53,-39,34,12,-46,-92,-102,-78,-53,-53,-53
-19,-53,-34,36,7,-43,-92,-97,-78,-48,-53,-53
-19,-58,-39,39,9,-48,-92,-97,-73,-48,-53,-53
-19,-63,-43,41,12,-53,-92,-97,-73,-48,-53,-53
-19,-63,-43,41,12,-53,-92,-97,-68,-48,-53,-48
-19,-63,-43,41,12,-53,-87,-92,-68,-48,-48,-48
-14,-63,-48,39,17,-56,-87,-92,-63,-48,-48,-48
-9,-63,-53,36,21,-58,-87,-92,-58,-48,-48,-48
-9,-63,-53,36,21,-58,-87,-87,-63,-48,-48,-48
-9,-63,-53,36,21,-58,-82,-87,-63,-48,-43,-48
-9,-63,-53,36,21,-58,-82,-87,-58,-48,-39,-48
-9,-68,-58,39,24,-63,-78,-78,-58,-48,-39,-53
-9,-102,-92,56,41,-97,-73,-63,-68,-53,-63,-78
-14,-146,-131,80,58,-139,-63,-58,-73,-58,-73,-107
-34,-151,-117,92,41,-134,-53,-43,-53,-34,-48,-102
-82,-102,-19,92,-31,-61,-43,-4,68,126,122,29
-112,19,131,46,-122,75,-39,4,248,405,458,317
-146,136,283,4,-214,209,-39,-14,400,653,775,585
-156,214,370,-29,-263,292,-48,9,527,863,1039,780
-107,234,341,-63,-224,287,-87,14,570,971,1190,912
-19,234,253,-107,-136,244,-122,63,502,849,1015,775
126,204,78,-165,24,141,-161,156,341,483,492,400
273,200,-73,-236,173,63,-175,273,180,97,-9,39
385,204,-180,-295,283,12,-180,317,14,-253,-434,-253
448,312,-136,-380,292,87,-180,326,-39,-361,-566,-326
326,483,156,-405,85,319,-92,283,9,-385,-590,-331
102,644,541,-373,-219,592,-19,58,63,-366,-570,-234
-244,649,893,-202,-568,771,165,-102,175,-326,-570,-244
-624,453,1078,85,-851,766,527,92,361,-273,-629,-448
-844,190,1034,326,-939,612,902,605,595,-180,-678,-683
-932,-161,771,546,-851,305,1185,1127,771,-131,-741,-897
-946,-434,512,690,-729,39,1405,1537,907,-78,-746,-976
-883,-531,351,707,-617,-90,1493,1742,971,4,-653,-932
-819,-585,234,702,-527,-175,1527,1893,980,53,-570,-873
-756,-575,180,666,-468,-197,1503,1956,1015,136,-458,-761
-727,-551,175,639,-451,-187,1464,1903,1058,209,-361,-653
-707,-478,229,592,-468,-124,1444,1761,1058,244,-273,-546
-649,-390,258,519,-453,-65,1429,1688,1078,307,-175,-444
-619,-366,253,492,-436,-56,1439,1610,1088,341,-117,-385
-614,-366,248,490,-431,-58,1449,1434,1039,326,-87,-326
-605,-336,268,470,-436,-34,1410,1141,927,273,-82,-278
-561,-234,326,397,-444,46,1322,858,902,307,-4,-175
-478,-107,370,292,-424,131,1220,614,902,366,92,-58
-395,-39,356,217,-375,158,1151,497,883,409,165,29
-317,-39,278,178,-297,119,1054,370,697,336,151,34
-258,-58,200,158,-229,70,858,24,331,122,39,-9
-195,-63,131,129,-163,34,561,-180,117,4,-9,-9
-112,-63,48,87,-80,-7,292,-141,34,-14,-9,4
-63,-48,14,56,-39,-17,156,-112,-4,-14,4,24
-43,-29,14,36,-29,-7,48,-131,-39,-4,34,48
-9,-24,-14,17,2,-19,-29,-141,-58,-4,39,63
24,-24,-48,0,36,-36,-73,-141,-68,-4,39,58
29,-24,-53,-2,41,-39,-87,-146,-78,-4,39,58
29,-14,-43,-7,36,-29,-102,-161,-82,-4,43,68
29,-9,-39,-9,34,-24,-126,-175,-97,-9,53,78
34,-9,-43,-12,39,-26,-146,-180,-117,-9,53,78
43,-14,-58,-14,51,-36,-146,-180,-117,-9,53,82
43,-19,-63,-12,53,-41,-151,-185,-122,-14,53,82
48,-14,-63,-17,56,-39,-161,-195,-122,-14,53,87
58,-14,-73,-21,65,-43,-170,-195,-126,-14,58,87
58,-14,-73,-21,65,-43,-180,-195,-136,-14,58,92
63,-9,-73,-26,68,-41,-185,-200,-136,-14,58,92
63,-9,-73,-26,68,-41,-185,-200,-136,-14,58,97
68,-9,-78,-29,73,-43,-195,-200,-136,-14,63,102
68,-9,-78,-29,73,-43,-190,-209,-141,-19,68,102
73,-9,-82,-31,78,-46,-190,-214,-146,-24,73,107
73,-9,-82,-31,78,-46,-195,-219,-146,-24,73,107
73,-9,-82,-31,78,-46,-200,-219,-151,-24,73,112
78,-9,-87,-34,82,-48,-204,-224,-151,-19,73,122
78,-9,-87,-34,82,-48,-209,-224,-156,-19,73,126
78,-9,-87,-34,82,-48,-209,-229,-161,-24,78,131
78,-14,-92,-31,85,-53,-214,-224,-161,-24,78,131
82,-14,-97,-34,90,-56,-219,-234,-170,-24,78,126
82,-14,-97,-34,90,-56,-219,-239,-170,-24,82,126
82,-14,-97,-34,90,-56,-219,-244,-175,-29,78,131
82,-9,-92,-36,87,-51,-224,-248,-175,-29,78,131
82,-9,-92,-36,87,-51,-229,-253,-180,-29,78,131
87,-9,-97,-39,92,-53,-229,-263,-185,-34,78,131
87,-4,-92,-41,90,-48,-244,-268,-200,-34,78,136
87,0,-87,-43,87,-43,-248,-278,-209,-39,78,136
87,0,-87,-43,87,-43,-248,-287,-214,-43,73,136
87,0,-87,-43,87,-43,-248,-297,-224,-43,73,136
87,0,-87,-43,87,-43,-258,-307,-234,-48,73,141
87,0,-87,-43,87,-43,-268,-326,-244,-48,73,141
87,4,-82,-46,85,-39,-273,-336,-253,-63,73,141
87,4,-82,-46,85,-39,-278,-351,-263,-68,73,141
87,4,-82,-46,85,-39,-283,-361,-273,-73,73,136
87,4,-82,-46,85,-39,-292,-375,-287,-82,73,136
92,4,-87,-48,90,-41,-292,-395,-307,-87,73,136
97,9,-87,-53,92,-39,-297,-409,-317,-87,73,136
102,9,-92,-56,97,-41,-307,-419,-336,-102,73,136
102,9,-92,-56,97,-41,-312,-429,-356,-107,73,136
112,9,-102,-61,107,-46,-322,-439,-366,-117,73,141
117,14,-102,-65,109,-43,-331,-448,-375,-117,73,141
126,14,-112,-70,119,-48,-331,-448,-390,-122,68,141
136,19,-117,-78,126,-48,-336,-448,-400,-126,68,141
141,19,-122,-80,131,-51,-341,-448,-409,-131,68,141
151,19,-131,-85,141,-56,-346,-439,-414,-131,63,141
156,19,-136,-87,146,-58,-346,-429,-414,-141,58,141
165,19,-146,-92,156,-63,-341,-409,-414,-141,58,136
165,14,-151,-90,158,-68,-331,-395,-414,-146,48,131
175,14,-161,-95,168,-73,-322,-375,-405,-146,43,126
175,14,-161,-95,168,-73,-307,-341,-395,-141,39,117
170,14,-156,-92,163,-70,-292,-317,-380,-136,34,107
170,4,-165,-87,168,-80,-273,-287,-361,-131,34,102
161,0,-161,-80,161,-80,-253,-258,-336,-131,24,92
151,0,-151,-75,151,-75,-239,-229,-317,-117,29,87
141,-4,-146,-68,143,-75,-219,-204,-297,-107,24,78
136,-9,-146,-63,141,-78,-200,-185,-278,-107,14,68
126,-14,-141,-56,134,-78,-180,-165,-258,-107,9,53
112,-19,-131,-46,122,-75,-165,-146,-239,-102,0,43
107,-24,-131,-41,119,-78,-156,-126,-219,-97,-4,34
87,-34,-122,-26,104,-78,-136,-107,-200,-82,-9,24
73,-43,-117,-14,95,-80,-126,-92,-180,-82,-9,14
63,-48,-112,-7,87,-80,-107,-78,-161,-78,-14,4
58,-53,-112,-2,85,-82,-92,-68,-146,-78,-14,0
53,-53,-107,0,80,-80,-82,-53,-131,-58,-19,0
43,-53,-97,4,70,-75,-73,-39,-117,-53,-19,0
39,-53,-92,7,65,-73,-73,-39,-102,-48,-19,0
39,-58,-97,9,68,-78,-68,-34,-92,-43,-19,-9
34,-58,-92,12,63,-75,-58,-24,-82,-43,-19,-14
29,-58,-87,14,58,-73,-53,-19,-73,-34,-19,-24
29,-58,-87,14,58,-73,-53,-19,-63,-34,-19,-24
34,-58,-92,12,63,-75,-58,-14,-58,-29,-19,-24
29,-53,-82,12,56,-68,-53,-9,-48,-24,-14,-24
29,-53,-82,12,56,-68,-53,-9,-39,-19,-14,-24
29,-53,-82,12,56,-68,-48,-4,-29,-19,-14,-24
24,-53,-78,14,51,-65,-48,-4,-29,-14,-14,-24
24,-53,-78,14,51,-65,-48,0,-29,-9,-14,-19
24,-53,-78,14,51,-65,-48,4,-29,-9,-9,-14
19,-53,-73,17,46,-63,-48,4,-24,-4,-9,-14
19,-48,-68,14,43,-58,-48,4,-19,0,-4,-14
14,-48,-63,17,39,-56,-48,0,-9,4,-4,-14
14,-48,-63,17,39,-56,-48,0,-4,4,-4,-14
19,-53,-73,17,46,-63,-48,0,-4,4,-4,-9
19,-58,-78,19,48,-68,-43,0,-4,4,-4,-9
19,-53,-73,17,46,-63,-43,0,-4,4,-4,-9
19,-53,-73,17,46,-63,-48,-4,-4,4,-4,-9
19,-58,-78,19,48,-68,-48,-4,-4,9,-4,-9
14,-58,-73,21,43,-65,-48,-4,-4,9,-4,-9
14,-58,-73,21,43,-65,-48,-9,-4,4,0,-9
14,-58,-73,21,43,-65,-48,-9,-4,4,4,-4
14,-58,-73,21,43,-65,-53,-14,-9,0,4,-4
19,-58,-78,19,48,-68,-53,-14,-14,0,4,-4
19,-58,-78,19,48,-68,-53,-19,-19,-4,0,-9
19,-58,-78,19,48,-68,-53,-24,-19,-9,-4,-19
19,-58,-78,19,48,-68,-53,-29,-29,-14,-9,-19
19,-58,-78,19,48,-68,-53,-29,-29,-14,-14,-19
19,-58,-78,19,48,-68,-53,-29,-29,-14,-14,-19
19,-53,-73,17,46,-63,-53,-29,-29,-14,-14,-19
19,-53,-73,17,46,-63,-58,-34,-34,-14,-14,-19
19,-53,-73,17,46,-63,-58,-39,-39,-14,-14,-19
19,-53,-73,17,46,-63,-58,-39,-43,-19,-14,-19
19,-53,-73,17,46,-63,-58,-43,-43,-19,-14,-19
14,-48,-63,17,39,-56,-58,-43,-43,-19,-14,-19
14,-43,-58,14,36,-51,-63,-48,-43,-24,-14,-19
14,-48,-63,17,39,-56,-63,-48,-43,-29,-24,-24
14,-48,-63,17,39,-56,-68,-48,-48,-34,-34,-29
14,-48,-63,17,39,-56,-68,-53,-48,-34,-34,-29
14,-43,-58,14,36,-51,-73,-53,-48,-34,-29,-29
14,-39,-53,12,34,-46,-73,-53,-48,-34,-29,-34
14,-34,-48,9,31,-41,-73,-53,-48,-34,-29,-34
9,-29,-39,9,24,-34,-73,-58,-53,-39,-39,-34
9,-29,-39,9,24,-34,-73,-58,-58,-43,-43,-34
14,-29,-43,7,29,-36,-73,-63,-58,-43,-39,-39
14,-29,-43,7,29,-36,-73,-68,-58,-39,-39,-43
14,-29,-43,7,29,-36,-78,-73,-58,-39,-43,-43
14,-24,-39,4,26,-31,-82,-73,-63,-43,-43,-48
14,-14,-29,0,21,-21,-82,-68,-63,-43,-43,-48
19,-9,-29,-4,24,-19,-78,-68,-58,-43,-43,-48
19,-4,-24,-7,21,-14,-82,-73,-53,-43,-39,-48
24,4,-19,-14,21,-7,-82,-68,-48,-43,-39,-48
24,4,-19,-14,21,-7,-78,-63,-48,-43,-34,-43
24,4,-19,-14,21,-7,-78,-63,-48,-39,-34,-43
14,9,-4,-12,9,2,-73,-63,-43,-39,-39,-43
19,19,0,-19,9,9,-73,-63,-39,-39,-39,-43
29,24,-4,-26,17,9,-63,-48,-29,-29,-34,-34
34,29,-4,-31,19,12,-53,-34,-19,-19,-29,-19
39,48,9,-43,14,29,-34,-24,-9,-9,-19,-19
48,58,9,-53,19,34,-14,0,4,9,-9,-14
68,68,0,-68,34,34,0,39,43,29,14,0
87,78,-9,-82,48,34,14,63,58,48,39,19
112,102,-9,-107,61,46,14,73,68,68,58,43
131,122,-9,-126,70,56,14,97,82,82,78,58
141,112,-29,-126,85,41,-9,112,82,82,82,58
146,102,-43,-124,95,29,-19,122,82,82,87,58
165,102,-63,-134,114,19,-53,122,78,82,87,58
185,92,-92,-139,139,0,-87,131,63,82,82,58
190,102,-87,-146,139,7,-126,107,53,73,78,58
195,117,-78,-156,136,19,-165,87,48,68,78,58
195,117,-78,-156,136,19,-180,39,24,53,63,48
195,117,-78,-156,136,19,-195,-9,0,39,48,39
195,102,-92,-148,143,4,-195,-9,-9,29,43,34
190,92,-97,-141,143,-2,-190,-19,-19,19,34,29
190,87,-102,-139,146,-7,-190,-29,-29,9,29,24
170,107,-63,-139,117,21,-190,-53,-39,9,19,24
161,117,-43,-139,102,36,-190,-73,-43,0,19,24
146,102,-43,-124,95,29,-185,-87,-53,-9,14,19
122,92,-29,-107,75,31,-170,-92,-53,-14,0,9
112,78,-34,-95,73,21,-161,-92,-53,-24,-4,4
107,48,-58,-78,82,-4,-161,-107,-68,-39,-19,-14
78,24,-53,-51,65,-14,-151,-112,-82,-58,-43,-39
63,0,-63,-31,63,-31,-146,-112,-87,-63,-53,-53
39,-14,-53,-12,46,-34,-136,-117,-87,-68,-53,-53
0,-14,-14,7,7,-14,-122,-122,-87,-68,-58,-53
-4,-14,-9,9,2,-12,-112,-122,-87,-68,-58,-58
-4,-19,-14,12,4,-17,-112,-122,-87,-68,-58,-58
-4,-24,-19,14,7,-21,-107,-122,-87,-73,-63,-63
-4,-24,-19,14,7,-21,-107,-117,-87,-73,-63,-63
-4,-24,-19,14,7,-21,-107,-112,-87,-73,-63,-63
-4,-24,-19,14,7,-21,-97,-112,-87,-73,-63,-63
-9,-24,-14,17,2,-19,-92,-107,-87,-68,-63,-63
-9,-24,-14,17,2,-19,-92,-107,-82,-68,-63,-63
-9,-24,-14,17,2,-19,-92,-107,-82,-68,-63,-63
-9,-24,-14,17,2,-19,-97,-107,-78,-68,-63,-58
-9,-24,-14,17,2,-19,-97,-102,-78,-68,-58,-58
-9,-24,-14,17,2,-19,-97,-102,-78,-68,-58,-58
-9,-24,-14,17,2,-19,-97,-102,-78,-68,-58,-58
-9,-24,-14,17,2,-19,-97,-97,-78,-63,-63,-58
-9,-24,-14,17,2,-19,-92,-97,-73,-58,-63,-58
-9,-19,-9,14,0,-14,-92,-102,-68,-58,-58,-58
-9,-19,-9,14,0,-14,-87,-97,-68,-58,-58,-63
-9,-53,-43,31,17,-48,-82,-82,-82,-73,-87,-82
-14,-97,-82,56,34,-90,-73,-78,-92,-87,-102,-107
-24,-136,-112,80,43,-124,-58,-63,-107,-112,-141,-161
-63,-122,-58,92,-2,-90,-43,-24,-19,0,-34,-87
-102,0,102,51,-102,51,-34,0,170,278,302,200
-146,117,263,14,-204,190,-29,-4,331,527,619,468
-175,219,395,-21,-285,307,-39,9,492,800,966,727
-146,263,409,-58,-278,336,-78,4,570,971,1200,922
-82,263,346,-90,-214,305,-112,19,541,932,1137,868
39,234,195,-136,-78,214,-151,78,419,649,727,575
209,209,0,-209,104,104,-175,234,248,239,170,165
346,195,-151,-270,248,21,-190,317,73,-136,-307,-175
478,273,-204,-375,341,34,-209,356,-24,-297,-502,-297
424,414,-9,-419,217,202,-141,341,-19,-375,-590,-351
248,653,405,-451,-78,529,-112,87,14,-356,-541,-200
-48,736,785,-344,-417,761,29,-102,107,-317,-512,-156
-497,580,1078,-41,-788,829,380,-24,292,-268,-570,-336
-785,356,1141,214,-963,749,746,370,527,-180,-619,-546
-912,-19,893,466,-902,436,1078,961,717,-131,-712,-814
-966,-317,649,641,-807,165,1346,1439,868,-78,-746,-946
-907,-463,444,685,-675,-9,1464,1688,946,4,-668,-932
-849,-566,283,707,-566,-141,1527,1883,971,53,-600,-902
-780,-561,219,671,-500,-170,1517,2005,1005,136,-488,-795
-746,-541,204,644,-475,-168,1493,2010,1049,209,-390,-692
-727,-468,258,597,-492,-104,1459,1849,1054,244,-302,-585
-668,-380,287,524,-478,-46,1429,1756,1078,307,-204,-483
-629,-351,278,490,-453,-36,1439,1751,1122,366,-126,-409
-614,-346,268,480,-441,-39,1449,1649,1107,375,-78,-336
-614,-326,287,470,-451,-19,1434,1356,976,297,-97,-317
-580,-234,346,407,-463,56,1371,1073,932,307,-43,-244
-497,-92,405,295,-451,156,1249,790,951,380,73,-102
-414,-9,405,212,-409,197,1161,634,951,439,165,9
-341,0,341,170,-341,170,1112,507,805,390,165,29
-287,-9,278,148,-283,134,966,161,478,200,68,0
-224,-9,214,117,-219,102,658,-126,195,39,-4,-19
-141,-4,136,73,-139,65,380,-170,43,-24,-29,-24
-87,4,92,41,-90,48,224,-131,0,-29,-14,-4
-63,19,82,21,-73,51,97,-141,-39,-24,14,19
-29,24,53,2,-41,39,0,-151,-68,-29,19,39
4,24,19,-14,-7,21,-63,-151,-87,-34,19,39
14,24,9,-19,2,17,-82,-156,-97,-34,14,39
19,34,14,-26,2,24,-102,-170,-102,-34,14,48
24,39,14,-31,4,26,-126,-190,-117,-39,24,53
34,39,4,-36,14,21,-146,-200,-136,-39,24,48
43,39,-4,-41,24,17,-151,-200,-136,-39,24,53
43,39,-4,-41,24,17,-161,-204,-141,-43,24,53
43,43,0,-43,21,21,-170,-214,-136,-43,24,63
48,43,-4,-46,26,19,-180,-214,-136,-43,29,68
48,43,-4,-46,26,19,-190,-214,-146,-43,29,73
53,48,-4,-51,29,21,-195,-219,-146,-43,29,73
58,48,-9,-53,34,19,-195,-219,-151,-43,29,78
68,48,-19,-58,43,14,-204,-219,-156,-43,34,82
68,48,-19,-58,43,14,-204,-224,-161,-43,39,82
73,48,-24,-61,48,12,-209,-224,-165,-43,43,87
73,48,-24,-61,48,12,-214,-229,-165,-43,43,87
73,48,-24,-61,48,12,-219,-229,-170,-43,43,92
78,48,-29,-63,53,9,-219,-234,-170,-39,43,97
78,48,-29,-63,53,9,-219,-234,-175,-39,43,97
73,48,-24,-61,48,12,-219,-244,-180,-43,48,102
68,43,-24,-56,46,9,-224,-244,-180,-43,48,102
73,43,-29,-58,51,7,-234,-253,-190,-43,48,97
73,43,-29,-58,51,7,-239,-258,-190,-43,53,97
73,43,-29,-58,51,7,-239,-263,-195,-48,53,102
73,48,-24,-61,48,12,-244,-268,-195,-48,58,102
73,48,-24,-61,48,12,-244,-273,-200,-48,58,102
78,48,-29,-63,53,9,-239,-283,-204,-53,58,102
78,48,-29,-63,53,9,-253,-287,-214,-53,58,107
78,48,-29,-63,53,9,-258,-297,-219,-58,58,107
78,48,-29,-63,53,9,-258,-307,-224,-63,53,107
78,48,-29,-63,53,9,-258,-317,-234,-63,53,107
78,43,-34,-61,56,4,-263,-322,-248,-68,48,112
78,39,-39,-58,58,0,-268,-336,-263,-68,43,112
78,43,-34,-61,56,4,-273,-346,-273,-82,43,112
78,43,-34,-61,56,4,-278,-361,-283,-87,43,112
78,43,-34,-61,56,4,-283,-370,-292,-92,43,107
78,43,-34,-61,56,4,-292,-385,-307,-102,43,107
82,39,-43,-61,63,-2,-292,-405,-326,-112,43,107
87,39,-48,-63,68,-4,-297,-419,-336,-117,43,107
92,39,-53,-65,73,-7,-307,-429,-351,-131,43,107
92,39,-53,-65,73,-7,-312,-439,-366,-136,43,107
97,39,-58,-68,78,-9,-322,-448,-375,-146,43,112
97,43,-53,-70,75,-4,-331,-458,-385,-146,43,112
107,43,-63,-75,85,-9,-331,-463,-400,-151,34,112
117,48,-68,-82,92,-9,-336,-468,-409,-156,29,112
122,48,-73,-85,97,-12,-341,-468,-424,-161,29,112
131,48,-82,-90,107,-17,-346,-458,-434,-161,24,112
141,48,-92,-95,117,-21,-351,-453,-434,-170,24,112
156,48,-107,-102,131,-29,-351,-439,-434,-170,29,107
156,43,-112,-100,134,-34,-341,-424,-439,-175,19,102
165,43,-122,-104,143,-39,-331,-405,-434,-175,14,97
170,43,-126,-107,148,-41,-322,-370,-424,-175,9,87
170,43,-126,-107,148,-41,-312,-346,-409,-175,4,78
170,34,-136,-102,153,-51,-292,-317,-390,-170,9,78
161,29,-131,-95,146,-51,-273,-287,-366,-170,4,73
151,29,-122,-90,136,-46,-253,-253,-341,-156,4,68
141,24,-117,-82,129,-46,-229,-224,-317,-146,-4,58
136,14,-122,-75,129,-53,-209,-204,-297,-141,-9,53
126,4,-122,-65,124,-58,-190,-185,-278,-136,-9,43
112,0,-112,-56,112,-56,-175,-165,-258,-131,-19,34
107,-4,-112,-51,109,-58,-165,-146,-239,-126,-24,24
92,-9,-102,-41,97,-56,-141,-126,-214,-107,-29,14
82,-14,-97,-34,90,-56,-126,-112,-190,-102,-29,4
73,-19,-92,-26,82,-56,-112,-92,-175,-92,-34,-4
68,-24,-92,-21,80,-58,-102,-78,-165,-87,-34,-9
63,-29,-92,-17,78,-61,-92,-68,-151,-73,-39,-14
53,-34,-87,-9,70,-61,-82,-58,-136,-73,-39,-19
48,-39,-87,-4,68,-63,-82,-53,-117,-68,-34,-14
48,-48,-97,0,73,-73,-78,-43,-102,-63,-29,-19
43,-48,-92,2,68,-70,-68,-34,-92,-63,-34,-19
39,-48,-87,4,63,-68,-63,-29,-82,-53,-39,-24
34,-48,-82,7,58,-65,-58,-29,-73,-53,-39,-29
34,-48,-82,7,58,-65,-58,-24,-68,-48,-39,-34
24,-48,-73,12,48,-61,-53,-14,-63,-43,-29,-34
19,-53,-73,17,46,-63,-53,-9,-58,-39,-24,-34
19,-48,-68,14,43,-58,-48,-4,-43,-34,-24,-34
14,-43,-58,14,36,-51,-48,-4,-39,-24,-24,-34
19,-43,-63,12,41,-53,-48,-4,-34,-19,-24,-34
24,-43,-68,9,46,-56,-48,-4,-29,-19,-19,-34
19,-43,-63,12,41,-53,-48,-4,-24,-14,-24,-29
19,-39,-58,9,39,-48,-48,-4,-19,-9,-24,-24
14,-39,-53,12,34,-46,-48,-9,-14,-9,-24,-24
14,-39,-53,12,34,-46,-48,-9,-14,-14,-24,-24
19,-39,-58,9,39,-48,-48,-9,-19,-14,-24,-24
19,-39,-58,9,39,-48,-43,-9,-24,-14,-24,-29
19,-34,-53,7,36,-43,-43,-9,-24,-14,-24,-29
19,-34,-53,7,36,-43,-48,-14,-24,-14,-24,-29
19,-39,-58,9,39,-48,-53,-14,-19,-4,-19,-29
14,-39,-53,12,34,-46,-58,-14,-14,0,-14,-29
14,-39,-53,12,34,-46,-58,-19,-14,-4,-14,-29
14,-39,-53,12,34,-46,-58,-19,-14,-4,-14,-24
14,-39,-53,12,34,-46,-58,-24,-14,-9,-14,-24
19,-39,-58,9,39,-48,-53,-24,-14,-9,-14,-24
19,-39,-58,9,39,-48,-53,-24,-19,-9,-14,-24
19,-39,-58,9,39,-48,-53,-24,-19,-9,-14,-29
19,-39,-58,9,39,-48,-53,-29,-29,-14,-19,-29
19,-39,-58,9,39,-48,-53,-29,-29,-14,-24,-29
19,-43,-63,12,41,-53,-53,-29,-29,-14,-24,-24
19,-43,-63,12,41,-53,-53,-29,-29,-14,-24,-19
14,-43,-58,14,36,-51,-53,-29,-29,-14,-24,-19
9,-43,-53,17,31,-48,-48,-29,-29,-14,-24,-19
9,-43,-53,17,31,-48,-53,-34,-34,-19,-24,-24
9,-43,-53,17,31,-48,-58,-43,-34,-19,-24,-29
9,-43,-53,17,31,-48,-58,-43,-34,-19,-24,-29
14,-43,-58,14,36,-51,-63,-48,-34,-24,-24,-29
14,-48,-63,17,39,-56,-58,-48,-34,-29,-29,-29
14,-48,-63,17,39,-56,-58,-48,-39,-34,-34,-29
14,-53,-68,19,41,-61,-58,-53,-43,-34,-34,-29
14,-53,-68,19,41,-61,-63,-53,-48,-34,-29,-29
14,-53,-68,19,41,-61,-63,-53,-48,-34,-29,-34
14,-53,-68,19,41,-61,-63,-53,-48,-34,-29,-34
9,-48,-58,19,34,-53,-58,-53,-48,-29,-34,-34
9,-48,-58,19,34,-53,-53,-48,-48,-24,-34,-34
14,-53,-68,19,41,-61,-53,-48,-48,-24,-29,-34
14,-58,-73,21,43,-65,-53,-48,-48,-19,-29,-34
9,-58,-68,24,39,-63,-58,-53,-43,-19,-34,-34
4,-53,-58,24,31,-56,-63,-53,-43,-24,-34,-39
4,-48,-53,21,29,-51,-63,-48,-43,-29,-34,-39
9,-48,-58,19,34,-53,-58,-48,-39,-34,-34,-39
9,-53,-63,21,36,-58,-63,-58,-34,-29,-29,-39
14,-53,-68,19,41,-61,-63,-58,-29,-24,-29,-39
14,-53,-68,19,41,-61,-58,-53,-29,-24,-24,-34
14,-53,-68,19,41,-61,-58,-53,-29,-19,-24,-34
0,-58,-58,29,29,-58,-58,-53,-34,-24,-29,-34
0,-58,-58,29,29,-58,-63,-53,-39,-29,-29,-34
4,-58,-63,26,34,-61,-63,-53,-39,-29,-29,-39
4,-58,-63,26,34,-61,-63,-53,-39,-29,-29,-39
0,-48,-48,24,24,-48,-68,-63,-39,-34,-39,-43
0,-48,-48,24,24,-48,-73,-58,-34,-29,-48,-43
4,-48,-53,21,29,-51,-68,-43,-24,-29,-39,-43
9,-48,-58,19,34,-53,-63,-43,-39,-29,-29,-39
9,-39,-48,14,29,-43,-63,-58,-34,-24,-24,-24
4,-34,-39,14,21,-36,-63,-58,-24,-24,-19,-19
9,-34,-43,12,26,-39,-73,-48,-24,-19,-14,-19
9,-34,-43,12,26,-39,-68,-43,-24,-14,-9,-19
19,-19,-39,0,29,-29,-58,-39,-9,-9,-4,-14
29,-14,-43,-7,36,-29,-48,-24,-4,-4,-4,-9
34,-14,-48,-9,41,-31,-34,-14,0,0,4,-4
39,-9,-48,-14,43,-29,-14,4,9,9,14,4
53,0,-53,-26,53,-26,0,29,43,34,29,14
68,9,-58,-39,63,-24,14,53,53,53,43,24
78,29,-48,-53,63,-9,19,78,73,73,63,34
92,48,-43,-70,68,2,19,102,92,87,78,48
107,53,-53,-80,80,0,14,112,97,92,82,58
112,53,-58,-82,85,-2,9,117,97,97,87,68
141,34,-107,-87,124,-36,-19,126,92,97,97,63
161,14,-146,-87,153,-65,-58,126,82,87,102,58
175,24,-151,-100,163,-63,-82,126,73,92,97,63
190,34,-156,-112,173,-61,-107,126,68,102,92,73
185,43,-141,-114,163,-48,-136,73,43,82,82,63
185,58,-126,-122,156,-34,-165,19,19,68,78,58
180,48,-131,-114,156,-41,-165,9,9,53,68,53
175,39,-136,-107,156,-48,-165,0,0,39,58,48
175,39,-136,-107,156,-48,-165,-9,0,34,58,48
165,48,-117,-107,141,-34,-161,-24,-4,29,53,48
156,58,-97,-107,126,-19,-161,-43,-9,29,48,53
151,68,-82,-109,117,-7,-161,-63,-14,19,48,53
136,58,-78,-97,107,-9,-156,-73,-24,9,43,48
112,53,-58,-82,85,-2,-141,-73,-29,4,24,34
102,39,-63,-70,82,-12,-131,-73,-34,-4,14,24
97,9,-87,-53,92,-39,-131,-87,-48,-19,0,4
68,-19,-87,-24,78,-53,-122,-97,-63,-39,-24,-19
53,-43,-97,-4,75,-70,-117,-102,-68,-43,-34,-34
29,-53,-82,12,56,-68,-107,-107,-68,-48,-34,-34
-4,-53,-48,29,21,-51,-97,-112,-68,-48,-39,-34
-4,-48,-43,26,19,-46,-92,-107,-68,-48,-39,-43
-4,-48,-43,26,19,-46,-92,-102,-68,-48,-39,-48
-4,-53,-48,29,21,-51,-87,-102,-68,-53,-43,-53
-4,-53,-48,29,21,-51,-87,-97,-68,-53,-43,-53
-4,-53,-48,29,21,-51,-87,-97,-68,-53,-43,-48
-4,-53,-48,29,21,-51,-82,-102,-68,-53,-43,-43
-9,-53,-43,31,17,-48,-82,-97,-68,-48,-43,-43
-9,-53,-43,31,17,-48,-82,-97,-63,-48,-43,-43
-9,-53,-43,31,17,-48,-82,-92,-63,-48,-43,-43
-9,-53,-43,31,17,-48,-82,-87,-58,-48,-43,-39
-9,-58,-48,34,19,-53,-78,-82,-58,-48,-39,-39
-9,-63,-53,36,21,-58,-78,-82,-58,-48,-39,-39
-9,-63,-53,36,21,-58,-78,-82,-58,-48,-39,-39
-9,-63,-53,36,21,-58,-78,-78,-63,-48,-43,-39
-9,-63,-53,36,21,-58,-73,-78,-63,-48,-43,-39
-9,-63,-53,36,21,-58,-73,-78,-58,-48,-39,-39
-9,-58,-48,34,19,-53,-68,-68,-58,-48,-39,-43
-9,-82,-73,46,31,-78,-63,-53,-63,-48,-53,-63
-9,-136,-126,73,58,-131,-53,-58,-78,-63,-73,-102
-24,-146,-122,85,48,-134,-43,-53,-58,-34,-43,-92
-73,-102,-29,87,-21,-65,-34,-14,78,136,141,39
-102,9,112,46,-107,61,-29,0,258,405,468,307
-146,141,287,2,-217,214,-29,-14,434,692,819,605
-156,229,385,-36,-270,307,-43,9,566,912,1078,800
-107,248,356,-70,-231,302,-87,14,605,1044,1268,966
-29,253,283,-112,-156,268,-122,63,546,951,1146,878
117,224,107,-170,4,165,-161,161,380,546,570,478
253,224,-29,-239,141,97,-170,278,219,156,48,117
380,209,-170,-295,275,19,-185,331,19,-258,-439,-219
439,292,-146,-366,292,73,-185,336,-53,-414,-619,-326
312,483,170,-397,70,326,-92,263,-9,-424,-629,-312
112,644,531,-378,-209,588,-14,63,29,-414,-619,-239
-234,658,893,-212,-563,775,156,-146,141,-395,-629,-263
-590,473,1063,58,-827,768,478,-24,322,-361,-697,-458
-810,190,1000,309,-905,595,868,497,556,-258,-751,-722
-907,-136,771,522,-839,317,1151,1000,722,-200,-814,-946
-912,-409,502,661,-707,46,1351,1415,873,-146,-814,-1005
-854,-527,326,690,-590,-100,1439,1634,956,-63,-722,-961
-790,-585,204,688,-497,-190,1468,1781,961,4,-624,-902
-722,-570,151,646,-436,-209,1444,1849,995,107,-497,-790
-688,-531,156,610,-422,-187,1405,1800,1054,190,-390,-678
-668,-458,209,563,-439,-124,1385,1664,1073,234,-292,-566
-610,-370,239,490,-424,-65,1376,1610,1107,307,-185,-458
-580,-341,239,461,-409,-51,1381,1551,1127,351,-122,-395
-575,-341,234,458,-405,-53,1385,1376,1068,322,-112,-336
-566,-317,248,441,-407,-34,1351,1083,946,253,-122,-292
-546,-214,331,380,-439,58,1273,800,922,287,-34,-195
-488,-102,385,295,-436,141,1180,556,902,336,68,-82
-395,-48,346,222,-370,148,1132,473,897,400,146,9
-317,-48,268,183,-292,109,1054,366,746,346,136,19
-268,-68,200,168,-234,65,878,-4,351,107,19,-29
-204,-68,136,136,-170,34,614,-204,117,-14,-29,-29
-117,-58,58,87,-87,0,336,-151,39,-24,-29,-14
-63,-39,24,51,-43,-7,175,-122,-4,-24,-9,4
-43,-19,24,31,-34,2,68,-136,-39,-14,29,34
-14,-14,0,14,-7,-7,-9,-141,-58,-14,39,58
19,-14,-34,-2,26,-24,-53,-141,-68,-14,39,58
29,-14,-43,-7,36,-29,-68,-146,-78,-14,39,58
29,-4,-34,-12,31,-19,-87,-156,-82,-9,43,68
34,0,-34,-17,34,-17,-117,-165,-92,-9,53,78
43,0,-43,-21,43,-21,-136,-170,-112,-9,53,78
53,0,-53,-26,53,-26,-141,-170,-117,-9,53,82
53,0,-53,-26,53,-26,-151,-175,-122,-14,53,82
53,4,-48,-29,51,-21,-161,-185,-122,-14,53,87
58,4,-53,-31,56,-24,-170,-185,-126,-14,63,87
58,4,-53,-31,56,-24,-175,-185,-136,-14,68,92
63,9,-53,-36,58,-21,-175,-190,-136,-14,68,97
63,9,-53,-36,58,-21,-175,-190,-136,-14,68,107
63,9,-53,-36,58,-21,-185,-190,-136,-14,68,112
58,9,-48,-34,53,-19,-185,-195,-141,-14,68,112
63,9,-53,-36,58,-21,-190,-195,-146,-14,73,117
63,9,-53,-36,58,-21,-195,-200,-146,-14,73,117
63,9,-53,-36,58,-21,-200,-200,-151,-14,78,117
68,9,-58,-39,63,-24,-200,-204,-151,-9,82,117
68,9,-58,-39,63,-24,-204,-204,-156,-9,82,117
68,14,-53,-41,61,-19,-209,-214,-161,-14,87,122
68,14,-53,-41,61,-19,-214,-214,-161,-14,82,122
73,14,-58,-43,65,-21,-219,-224,-170,-14,78,122
73,19,-53,-46,63,-17,-219,-229,-170,-14,82,126
73,24,-48,-48,61,-12,-219,-234,-175,-19,82,131
73,29,-43,-51,58,-7,-224,-239,-175,-19,87,131
73,29,-43,-51,58,-7,-229,-244,-180,-19,87,131
82,29,-53,-56,68,-12,-229,-253,-185,-24,87,131
87,29,-58,-58,73,-14,-244,-258,-200,-24,87,136
87,29,-58,-58,73,-14,-248,-268,-209,-29,92,136
87,29,-58,-58,73,-14,-248,-278,-214,-34,92,136
87,29,-58,-58,73,-14,-248,-287,-224,-34,92,136
87,29,-58,-58,73,-14,-258,-292,-234,-39,92,141
87,29,-58,-58,73,-14,-268,-307,-244,-34,92,141
87,34,-53,-61,70,-9,-273,-317,-253,-43,92,141
92,34,-58,-63,75,-12,-273,-326,-258,-48,92,146
97,34,-63,-65,80,-14,-273,-331,-263,-53,92,151
97,39,-58,-68,78,-9,-283,-341,-278,-63,97,156
102,43,-58,-73,80,-7,-287,-356,-297,-68,102,156
107,48,-58,-78,82,-4,-297,-370,-307,-63,102,156
112,48,-63,-80,87,-7,-307,-380,-322,-68,102,156
107,48,-58,-78,82,-4,-317,-385,-336,-68,107,156
112,48,-63,-80,87,-7,-326,-390,-346,-78,112,161
117,53,-63,-85,90,-4,-331,-400,-351,-73,112,165
126,53,-73,-90,100,-9,-331,-400,-361,-73,112,170
141,58,-82,-100,112,-12,-336,-400,-370,-78,117,170
151,58,-92,-104,122,-17,-341,-400,-380,-82,117,170
161,58,-102,-109,131,-21,-346,-390,-385,-78,117,170
165,58,-107,-112,136,-24,-346,-380,-385,-82,117,170
175,58,-117,-117,146,-29,-341,-361,-385,-82,117,165
175,53,-122,-114,148,-34,-331,-346,-385,-87,107,161
185,53,-131,-119,158,-39,-326,-326,-375,-87,102,161
185,53,-131,-119,158,-39,-317,-292,-366,-87,97,156
180,53,-126,-117,153,-36,-302,-273,-356,-92,92,146
180,43,-136,-112,158,-46,-283,-248,-341,-92,92,141
170,39,-131,-104,151,-46,-263,-219,-317,-92,82,126
161,39,-122,-100,141,-41,-248,-190,-297,-78,82,117
151,39,-112,-95,131,-36,-229,-165,-278,-68,68,107
146,34,-112,-90,129,-39,-209,-146,-258,-68,53,97
136,24,-112,-80,124,-43,-190,-131,-239,-73,48,82
122,19,-102,-70,112,-41,-175,-117,-219,-73,39,73
117,9,-107,-63,112,-48,-165,-97,-200,-68,29,63
102,0,-102,-51,102,-51,-146,-82,-180,-53,19,53
92,-4,-97,-43,95,-51,-136,-73,-161,-53,19,43
82,-9,-92,-36,87,-51,-122,-58,-146,-48,14,34
73,-14,-87,-29,80,-51,-107,-53,-136,-53,9,24
63,-19,-82,-21,73,-51,-92,-48,-122,-43,0,14
53,-24,-78,-14,65,-51,-82,-39,-107,-43,0,9
48,-24,-73,-12,61,-48,-82,-39,-92,-39,0,9
48,-29,-78,-9,63,-53,-78,-39,-82,-34,0,0
43,-29,-73,-7,58,-51,-68,-34,-73,-34,-4,0
39,-34,-73,-2,56,-53,-63,-29,-68,-29,-14,-9
34,-39,-73,2,53,-56,-58,-29,-63,-34,-19,-14
34,-39,-73,2,53,-56,-58,-24,-58,-29,-19,-14
29,-39,-68,4,48,-53,-53,-19,-53,-24,-14,-14
29,-43,-73,7,51,-58,-53,-24,-48,-19,-14,-14
29,-43,-73,7,51,-58,-48,-24,-39,-19,-14,-14
24,-43,-68,9,46,-56,-48,-29,-39,-14,-14,-14
24,-43,-68,9,46,-56,-48,-29,-34,-9,-14,-14
24,-43,-68,9,46,-56,-48,-24,-29,-9,-9,-14
19,-43,-63,12,41,-53,-48,-24,-24,-4,-9,-14
19,-39,-58,9,39,-48,-48,-24,-19,0,-4,-14
14,-39,-53,12,34,-46,-48,-29,-14,4,-4,-14
9,-39,-48,14,29,-43,-48,-29,-14,4,-4,-14
9,-39,-48,14,29,-43,-48,-29,-14,4,-4,-9
9,-39,-48,14,29,-43,-43,-29,-14,4,-4,-9
9,-34,-43,12,26,-39,-43,-29,-14,4,-4,-9
14,-34,-48,9,31,-41,-48,-34,-14,4,-4,-9
19,-39,-58,9,39,-48,-48,-34,-14,9,-4,-9
14,-39,-53,12,34,-46,-48,-34,-14,4,-4,-14
14,-39,-53,12,34,-46,-48,-39,-14,-4,-4,-19
14,-39,-53,12,34,-46,-48,-39,-14,-4,-4,-14
14,-39,-53,12,34,-46,-53,-43,-14,-9,-4,-14
19,-39,-58,9,39,-48,-53,-43,-14,-4,-4,-14
19,-39,-58,9,39,-48,-53,-43,-19,0,-4,-14
19,-39,-58,9,39,-48,-53,-43,-19,0,-4,-14
19,-39,-58,9,39,-48,-53,-48,-29,-4,-4,-9
19,-39,-58,9,39,-48,-58,-48,-29,-9,-4,-9
19,-39,-58,9,39,-48,-63,-48,-29,-14,-4,-9
19,-34,-53,7,36,-43,-63,-53,-29,-14,-9,-14
19,-34,-53,7,36,-43,-63,-58,-29,-14,-14,-19
19,-34,-53,7,36,-43,-58,-58,-34,-14,-14,-19
19,-34,-53,7,36,-43,-58,-58,-43,-19,-14,-19
14,-34,-48,9,31,-41,-58,-63,-43,-19,-14,-19
9,-34,-43,12,26,-39,-58,-63,-43,-19,-14,-19
14,-34,-48,9,31,-41,-63,-68,-43,-24,-14,-19
14,-39,-53,12,34,-46,-63,-68,-43,-24,-19,-19
14,-39,-53,12,34,-46,-63,-68,-48,-24,-24,-19
14,-39,-53,12,34,-46,-58,-73,-48,-24,-24,-19
19,-34,-53,7,36,-43,-63,-73,-48,-24,-19,-19
24,-34,-58,4,41,-46,-63,-73,-48,-24,-19,-24
24,-39,-63,7,43,-51,-63,-68,-48,-24,-19,-24
19,-39,-58,9,39,-48,-63,-68,-48,-24,-24,-24
14,-43,-58,14,36,-51,-63,-68,-48,-24,-24,-24
14,-48,-63,17,39,-56,-63,-68,-48,-24,-19,-24
14,-48,-63,17,39,-56,-63,-68,-53,-19,-19,-24
14,-48,-63,17,39,-56,-63,-68,-53,-19,-24,-24
14,-48,-63,17,39,-56,-68,-68,-53,-24,-24,-29
14,-43,-58,14,36,-51,-73,-68,-53,-24,-24,-29
14,-43,-58,14,36,-51,-68,-78,-53,-29,-24,-29
9,-48,-58,19,34,-53,-68,-87,-53,-29,-19,-29
14,-43,-58,14,36,-51,-63,-78,-48,-24,-19,-29
14,-43,-58,14,36,-51,-58,-73,-48,-24,-14,-24
14,-43,-58,14,36,-51,-58,-73,-48,-19,-14,-24
0,-43,-43,21,21,-43,-58,-73,-48,-19,-19,-24
0,-43,-43,21,21,-43,-63,-73,-48,-24,-19,-24
9,-43,-53,17,31,-48,-68,-73,-48,-29,-19,-29
9,-43,-53,17,31,-48,-68,-78,-53,-29,-24,-29
9,-39,-48,14,29,-43,-68,-82,-48,-29,-29,-29
9,-39,-48,14,29,-43,-73,-68,-34,-29,-39,-34
14,-39,-53,12,34,-46,-73,-68,-24,-29,-29,-34
24,-39,-63,7,43,-51,-68,-63,-34,-19,-14,-24
24,-29,-53,2,39,-41,-63,-58,-34,-14,-14,-14
24,-24,-48,0,36,-36,-48,-58,-24,-9,-9,-9
29,-24,-53,-2,41,-39,-48,-48,-14,-4,-9,-9
34,-14,-48,-9,41,-31,-39,-34,-9,4,0,-4
39,-4,-43,-17,41,-24,-29,-24,4,14,9,0
53,0,-53,-26,53,-26,-14,4,19,34,24,9
68,9,-58,-39,63,-24,4,24,34,48,43,14
87,29,-58,-58,73,-14,24,58,58,68,63,39
107,48,-58,-78,82,-4,39,82,87,92,82,63
117,48,-68,-82,92,-9,29,92,87,102,87,68
126,48,-78,-87,102,-14,19,102,102,112,97,73
141,43,-97,-92,119,-26,-4,107,92,107,97,78
170,29,-141,-100,156,-56,-39,117,78,107,97,78
180,34,-146,-107,163,-56,-68,117,73,102,97,78
190,43,-146,-117,168,-51,-97,117,68,97,97,78
185,53,-131,-119,158,-39,-131,68,48,82,87,73
185,68,-117,-126,151,-24,-165,19,29,68,78,68
185,58,-126,-122,156,-34,-165,4,19,58,73,63
185,48,-136,-117,161,-43,-165,-9,9,48,68,58
185,43,-141,-114,163,-48,-165,-19,0,39,63,53
175,48,-126,-112,151,-39,-165,-34,-9,34,53,53
165,58,-107,-112,136,-24,-165,-53,-19,29,48,53
161,68,-92,-114,126,-12,-170,-73,-24,19,48,53
146,58,-87,-102,117,-14,-165,-87,-34,9,43,48
122,53,-68,-87,95,-7,-151,-92,-39,4,24,34
112,39,-73,-75,92,-17,-141,-92,-43,-4,14,24
107,9,-97,-58,102,-43,-141,-107,-58,-19,0,4
78,-14,-92,-31,85,-53,-131,-112,-73,-39,-24,-19
63,-34,-97,-14,80,-65,-126,-112,-78,-43,-34,-34
34,-43,-78,4,56,-61,-117,-117,-78,-48,-34,-34
-4,-43,-39,24,17,-41,-107,-122,-78,-48,-39,-34
-4,-43,-39,24,17,-41,-102,-122,-78,-48,-39,-39
-4,-48,-43,26,19,-46,-102,-122,-78,-48,-39,-39
-4,-63,-58,34,26,-61,-97,-122,-78,-53,-43,-43
-4,-73,-68,39,31,-70,-97,-117,-78,-53,-43,-43
-4,-58,-53,31,24,-56,-97,-112,-78,-53,-43,-43
-4,-43,-39,24,17,-41,-92,-112,-78,-53,-43,-43
-9,-43,-34,26,12,-39,-92,-107,-78,-48,-43,-48
-9,-43,-34,26,12,-39,-92,-107,-73,-48,-43,-53
-9,-48,-39,29,14,-43,-92,-107,-73,-48,-48,-53
-9,-53,-43,31,17,-48,-92,-107,-68,-48,-53,-48
-9,-53,-43,31,17,-48,-87,-97,-68,-48,-48,-43
-9,-53,-43,31,17,-48,-87,-92,-68,-48,-48,-39
-9,-48,-39,29,14,-43,-87,-92,-68,-48,-43,-39
-9,-43,-34,26,12,-39,-87,-87,-73,-48,-43,-39
-9,-43,-34,26,12,-39,-82,-92,-73,-48,-43,-39
-9,-43,-34,26,12,-39,-82,-97,-68,-48,-39,-39
-4,-34,-29,19,12,-31,-78,-87,-68,-48,-39,-43
0,-53,-53,26,26,-53,-73,-73,-73,-48,-53,-63
-4,-122,-117,63,56,-119,-63,-68,-97,-82,-97,-122
-24,-146,-122,85,48,-134,-53,-53,-87,-73,-92,-131
-73,-117,-43,95,-14,-80,-43,-14,29,73,58,-24
-102,-19,82,61,-92,31,-39,0,190,317,351,219
-151,122,273,14,-212,197,-29,-19,375,614,722,531
-165,219,385,-26,-275,302,-34,0,517,844,1000,741
-126,253,380,-63,-253,317,-78,-14,590,1029,1259,966
-58,273,331,-107,-195,302,-112,14,566,990,1205,936
87,234,146,-161,-29,190,-161,126,409,610,658,536
224,224,0,-224,112,112,-180,258,258,244,165,175
380,200,-180,-290,280,9,-204,322,39,-195,-361,-185
468,273,-195,-370,331,39,-214,336,-53,-375,-580,-317
375,478,102,-427,136,290,-136,287,-14,-395,-590,-302
209,653,444,-431,-117,549,-73,112,19,-395,-580,-229
-156,707,863,-275,-509,785,82,-165,102,-370,-580,-214
-531,561,1093,-14,-812,827,390,-112,253,-331,-639,-370
-785,278,1063,253,-924,671,805,424,507,-239,-702,-649
-917,-48,868,483,-893,409,1112,941,692,-190,-775,-888
-941,-356,585,649,-763,114,1346,1385,844,-141,-795,-980
-902,-507,395,705,-649,-56,1468,1634,927,-63,-722,-971
-839,-575,263,707,-551,-156,1512,1810,932,-14,-639,-922
-771,-570,200,671,-485,-185,1503,1908,966,68,-527,-819
-736,-541,195,639,-466,-173,1464,1854,1010,151,-424,-712
-717,-478,239,597,-478,-119,1444,1712,1015,195,-331,-605
-653,-375,278,514,-466,-48,1429,1659,1054,268,-219,-488
-619,-331,287,475,-453,-21,1429,1600,1078,312,-151,-414
-614,-341,273,478,-444,-34,1444,1434,1029,297,-136,-366
-605,-326,278,466,-441,-24,1420,1151,917,244,-141,-331
-580,-224,356,402,-468,65,1337,834,883,263,-63,-234
-517,-112,405,314,-461,146,1239,556,854,297,29,-122
-424,-39,385,231,-405,173,1195,488,888,390,136,-14
-346,-19,326,183,-336,153,1122,395,775,366,156,9
-292,-39,253,165,-273,107,936,9,370,117,29,-39
-224,-39,185,131,-204,73,663,-204,126,-14,-29,-39
-131,-29,102,80,-117,36,361,-156,39,-29,-34,-24
-73,-9,63,41,-68,26,175,-131,-14,-34,-19,-4
-53,9,63,21,-58,36,68,-151,-53,-24,14,24
-24,14,39,4,-31,26,-9,-161,-78,-24,19,48
9,14,4,-12,2,9,-63,-156,-87,-24,19,48
19,14,-4,-17,12,4,-87,-156,-97,-24,19,48
19,24,4,-21,7,14,-102,-170,-102,-24,24,58
