I,II,III,aVR,aVL,aVF,V1,V2,V3,V4,V5,V6,
-156,-126,29,141,-92,-48,244,136,185,-19,-68,-97
-156,-131,24,143,-90,-53,248,136,185,-24,-73,-102
-156,-136,19,146,-87,-58,253,136,185,-29,-78,-107
-161,-136,24,148,-92,-56,263,136,190,-29,-78,-112
-165,-136,29,151,-97,-53,273,136,195,-29,-78,-117
-170,-141,29,156,-100,-56,273,136,195,-34,-82,-117
-175,-146,29,161,-102,-58,273,136,195,-39,-87,-117
-175,-151,24,163,-100,-63,278,141,195,-43,-92,-122
-175,-156,19,165,-97,-68,283,146,195,-48,-97,-126
-175,-156,19,165,-97,-68,287,151,195,-53,-97,-131
-175,-156,19,165,-97,-68,292,156,195,-58,-97,-136
-185,-165,19,175,-102,-73,297,161,195,-63,-107,-141
-195,-175,19,185,-107,-78,302,165,195,-68,-117,-146
-200,-185,14,192,-107,-85,312,165,195,-78,-126,-151
-204,-195,9,200,-107,-92,322,165,195,-87,-136,-156
-209,-200,9,204,-109,-95,336,175,190,-102,-146,-165
-214,-204,9,209,-112,-97,351,185,185,-117,-156,-175
-224,-214,9,219,-117,-102,361,195,180,-126,-165,-180
-234,-224,9,229,-122,-107,370,204,175,-136,-175,-185
-244,-239,4,241,-124,-117,380,204,175,-156,-190,-200
-253,-253,0,253,-126,-126,390,204,175,-175,-204,-214
-268,-263,4,265,-136,-129,405,214,165,-195,-224,-224
-283,-273,9,278,-146,-131,419,224,156,-214,-244,-234
-297,-292,4,295,-151,-143,429,224,146,-234,-263,-248
-312,-312,0,312,-156,-156,439,224,136,-253,-283,-263
-322,-322,0,322,-161,-161,448,224,122,-278,-302,-278
-331,-331,0,331,-165,-165,458,224,107,-302,-322,-292
-341,-346,-4,344,-168,-175,468,219,87,-331,-341,-302
-351,-361,-9,356,-170,-185,478,214,68,-361,-361,-312
-361,-361,0,361,-180,-180,478,214,53,-380,-375,-312
-370,-361,9,366,-190,-175,478,214,39,-400,-390,-312
-375,-361,14,368,-195,-173,478,204,24,-414,-395,-312
-380,-361,19,370,-200,-170,478,195,9,-429,-400,-312
-380,-351,29,366,-204,-161,468,190,0,-429,-400,-307
-380,-341,39,361,-209,-151,458,185,-9,-429,-400,-302
-370,-322,48,346,-209,-136,444,175,-9,-424,-385,-287
-361,-302,58,331,-209,-122,429,165,-9,-419,-370,-273
-351,-283,68,317,-209,-107,400,156,-9,-400,-351,-253
-341,-263,78,302,-209,-92,370,146,-9,-380,-331,-234
-312,-224,87,268,-200,-68,346,141,0,-346,-302,-209
-283,-185,97,234,-190,-43,322,136,9,-312,-273,-185
-258,-151,107,204,-183,-21,292,131,29,-278,-234,-156
-234,-117,117,175,-175,0,263,126,48,-244,-195,-126
-204,-92,112,148,-158,9,229,112,58,-200,-161,-102
-175,-68,107,122,-141,19,195,97,68,-156,-126,-78
-146,-39,107,92,-126,34,165,92,73,-122,-97,-58
-117,-9,107,63,-112,48,136,87,78,-87,-68,-39
-97,0,97,48,-97,48,117,78,78,-63,-48,-24
-78,9,87,34,-82,48,97,68,78,-39,-29,-9
-63,14,78,24,-70,46,78,58,78,-24,-14,-4
-48,19,68,14,-58,43,58,48,78,-9,0,0
-39,19,58,9,-48,39,48,39,73,-4,4,4
-29,19,48,4,-39,34,39,29,68,0,9,9
-24,19,43,2,-34,31,29,24,68,9,14,9
-19,19,39,0,-29,29,19,19,68,19,19,9
-14,19,34,-2,-24,26,14,14,63,19,19,9
-9,19,29,-4,-19,24,9,9,58,19,19,9
-4,19,24,-7,-14,21,9,4,58,24,19,9
0,19,19,-9,-9,19,9,0,58,29,19,9
0,19,19,-9,-9,19,4,0,53,29,19,9
0,19,19,-9,-9,19,0,0,48,29,19,9
0,19,19,-9,-9,19,0,0,43,29,19,9
0,19,19,-9,-9,19,0,0,39,29,19,9
0,9,9,-4,-4,9,4,-4,34,19,19,4
0,0,0,0,0,0,9,-9,29,9,19,0
-4,0,4,2,-4,2,9,-9,29,9,14,0
-9,0,9,4,-9,4,9,-9,29,9,9,0
-9,0,9,4,-9,4,9,-14,24,9,4,-4
-9,0,9,4,-9,4,9,-19,19,9,0,-9
-9,0,9,4,-9,4,9,-19,19,4,0,-9
-9,0,9,4,-9,4,9,-19,19,0,0,-9
-14,0,14,7,-14,7,14,-19,19,0,0,-9
-19,0,19,9,-19,9,19,-19,19,0,0,-9
-19,-4,14,12,-17,4,24,-19,19,0,0,-9
-19,-9,9,14,-14,0,29,-19,19,0,0,-9
-29,-9,19,19,-24,4,34,-24,19,0,-4,-14
-39,-9,29,24,-34,9,39,-29,19,0,-9,-19
-48,-14,34,31,-41,9,39,-29,19,0,-9,-19
-58,-19,39,39,-48,9,39,-29,19,0,-9,-19
-58,-19,39,39,-48,9,43,-29,24,0,-9,-19
-58,-19,39,39,-48,9,48,-29,29,0,-9,-19
-63,-19,43,41,-53,12,48,-29,34,0,-9,-24
-68,-19,48,43,-58,14,48,-29,39,0,-9,-29
-73,-19,53,46,-63,17,48,-29,43,4,-9,-29
-78,-19,58,48,-68,19,48,-29,48,9,-9,-29
-87,-24,63,56,-75,19,58,-29,53,9,-9,-29
-97,-29,68,63,-82,19,68,-29,58,9,-9,-29
-97,-29,68,63,-82,19,68,-24,63,14,-4,-29
-97,-29,68,63,-82,19,68,-19,68,19,0,-29
-92,-24,68,58,-80,21,68,-14,73,24,4,-24
-87,-19,68,53,-78,24,68,-9,78,29,9,-19
-87,-19,68,53,-78,24,68,-4,82,34,9,-19
-87,-19,68,53,-78,24,68,0,87,39,9,-19
-87,-19,68,53,-78,24,68,0,92,39,9,-19
-87,-19,68,53,-78,24,68,0,97,39,9,-19
-87,-19,68,53,-78,24,68,4,97,39,9,-19
-87,-19,68,53,-78,24,68,9,97,39,9,-19
-82,-19,63,51,-73,21,63,9,97,43,9,-19
-78,-19,58,48,-68,19,58,9,97,48,9,-19
-78,-19,58,48,-68,19,58,9,97,48,14,-19
-78,-19,58,48,-68,19,58,9,97,48,19,-19
-73,-19,53,46,-63,17,53,9,92,48,19,-19
-68,-19,48,43,-58,14,48,9,87,48,19,-19
-58,-14,43,36,-51,14,48,9,87,43,19,-19
-48,-9,39,29,-43,14,48,9,87,39,19,-19
-48,-9,39,29,-43,14,48,9,82,39,14,-19
-48,-9,39,29,-43,14,48,9,78,39,9,-19
-48,-9,39,29,-43,14,43,4,73,39,9,-19
-48,-9,39,29,-43,14,39,0,68,39,9,-19
-48,-9,39,29,-43,14,34,0,68,39,9,-19
-48,-9,39,29,-43,14,29,0,68,39,9,-19
-48,-9,39,29,-43,14,29,0,63,34,9,-19
-48,-9,39,29,-43,14,29,0,58,29,9,-19
-48,-9,39,29,-43,14,24,-4,53,29,9,-19
-48,-9,39,29,-43,14,19,-9,48,29,9,-19
-48,-9,39,29,-43,14,19,-9,48,29,9,-19
-48,-9,39,29,-43,14,19,-9,48,29,9,-19
-43,-4,39,24,-41,17,19,-9,48,29,9,-19
-39,0,39,19,-39,19,19,-9,48,29,9,-19
-39,0,39,19,-39,19,14,-14,43,29,9,-19
-39,0,39,19,-39,19,9,-19,39,29,9,-19
-39,0,39,19,-39,19,9,-19,39,29,9,-19
-39,0,39,19,-39,19,9,-19,39,29,9,-19
-39,4,43,17,-41,24,9,-19,39,29,9,-14
-39,9,48,14,-43,29,9,-19,39,29,9,-9
-39,9,48,14,-43,29,9,-19,39,29,9,-9
-39,9,48,14,-43,29,9,-19,39,29,9,-9
-39,9,48,14,-43,29,9,-24,39,29,9,-14
-39,9,48,14,-43,29,9,-29,39,29,9,-19
-34,9,43,12,-39,26,9,-29,39,29,9,-19
-29,9,39,9,-34,24,9,-29,39,29,9,-19
-24,14,39,4,-31,26,9,-29,34,29,14,-19
-19,24,43,-2,-31,34,4,-24,34,34,14,-14
-14,34,48,-9,-31,41,4,-24,39,39,19,-9
-9,48,58,-19,-34,53,-4,-24,43,43,29,0
-4,82,87,-39,-46,85,-4,-14,63,58,43,19
-4,97,102,-46,-53,100,0,-14,68,68,43,24
-9,87,97,-39,-53,92,9,-9,78,68,43,19
-9,78,87,-34,-48,82,34,0,82,68,43,19
0,82,82,-41,-41,82,43,9,82,68,43,14
14,87,73,-51,-29,80,39,14,82,68,43,14
14,87,73,-51,-29,80,-4,0,73,68,48,19
34,107,73,-70,-19,90,-53,-14,63,78,63,34
34,122,87,-78,-26,104,-82,-39,53,78,68,48
34,136,102,-85,-34,119,-97,-48,34,78,73,53
43,151,107,-97,-31,129,-112,-78,29,78,82,68
63,175,112,-119,-24,143,-122,-82,19,78,87,82
82,165,82,-124,0,124,-117,-73,19,73,87,73
82,136,53,-109,14,95,-117,-73,4,58,73,63
87,141,53,-114,17,97,-112,-73,4,58,73,63
87,156,68,-122,9,112,-107,-63,9,63,78,68
97,151,53,-124,21,102,-97,-58,14,68,78,68
102,151,48,-126,26,100,-82,-48,24,73,73,68
78,126,48,-102,14,87,-58,-34,34,73,73,58
48,102,53,-75,-2,78,-34,-34,34,63,58,43
19,68,48,-43,-14,58,-29,-43,19,53,39,24
-14,39,53,-12,-34,46,-19,-48,14,39,24,4
-29,19,48,4,-39,34,-4,-48,14,34,14,-4
-34,9,43,12,-39,26,-4,-39,14,24,4,-9
-34,4,39,14,-36,21,-4,-39,14,19,4,-9
-39,4,43,17,-41,24,0,-39,14,19,9,-9
-39,0,39,19,-39,19,0,-34,14,19,9,-9
-43,0,43,21,-43,21,0,-34,14,19,4,-14
-43,-4,39,24,-41,17,4,-34,14,24,0,-14
-43,-9,34,26,-39,12,9,-34,14,24,0,-14
-43,-9,34,26,-39,12,4,-34,14,24,0,-14
-43,-9,34,26,-39,12,0,-34,14,24,0,-14
-43,-9,34,26,-39,12,0,-39,14,24,0,-14
-43,-9,34,26,-39,12,4,-39,19,24,0,-14
-43,-4,39,24,-41,17,9,-39,24,29,14,-9
-34,0,34,17,-34,17,14,-39,24,39,24,-4
-43,0,43,21,-43,21,14,-39,29,39,24,-4
-48,0,48,24,-48,24,19,-39,34,39,24,-14
-82,-4,78,43,-80,36,39,-53,34,39,9,-14
-151,-19,131,85,-141,56,78,-78,43,29,4,-29
-185,-19,165,102,-175,73,107,-78,68,53,4,-29
-185,19,204,82,-195,112,102,-82,136,156,78,-4
-146,117,263,14,-204,190,63,-78,253,346,234,87
-82,283,366,-100,-224,324,-24,-43,380,614,453,229
39,488,448,-263,-204,468,-209,-34,497,922,707,400
224,795,570,-509,-173,683,-502,-92,619,1307,1034,634
492,1185,692,-839,-100,939,-917,-112,702,1761,1444,946
863,1590,727,-1227,68,1159,-1459,-126,663,2064,1756,1249
1288,1815,527,-1551,380,1171,-1903,-53,317,1854,1781,1395
1673,1742,68,-1708,802,905,-2196,-9,-331,1151,1371,1302
1961,1322,-639,-1642,1300,341,-2274,-219,-1224,156,688,966
2122,771,-1351,-1446,1737,-290,-2230,-488,-1961,-780,-39,551
2074,200,-1873,-1137,1973,-836,-2113,-946,-2547,-1478,-653,126
1908,-224,-2132,-841,2020,-1178,-1927,-1322,-2781,-1795,-990,-146
1795,-361,-2156,-717,1976,-1259,-1732,-1415,-2605,-1756,-1029,-224
1605,-292,-1898,-656,1751,-1095,-1473,-1337,-2210,-1488,-873,-141
1215,-146,-1361,-534,1288,-753,-1215,-1215,-1761,-1151,-639,-29
771,39,-732,-405,751,-346,-917,-1024,-1220,-746,-361,122
322,122,-200,-222,261,-39,-580,-683,-717,-400,-151,175
73,87,14,-80,29,51,-317,-439,-400,-219,-63,122
-9,-4,4,7,-7,0,-122,-224,-185,-136,-73,29
-63,-82,-19,73,-21,-51,43,-53,-29,-87,-82,-43
-68,-97,-29,82,-19,-63,92,9,29,-63,-78,-78
-68,-102,-34,85,-17,-68,117,39,63,-39,-63,-78
-87,-107,-19,97,-34,-63,146,58,87,-19,-48,-78
-102,-107,-4,104,-48,-56,161,78,107,-19,-48,-82
-107,-117,-9,112,-48,-63,165,82,117,-14,-53,-87
-122,-117,4,119,-63,-56,180,92,126,-4,-53,-87
-126,-112,14,119,-70,-48,190,102,141,0,-53,-82
-131,-107,24,119,-78,-41,190,107,151,4,-53,-78
-136,-107,29,122,-82,-39,195,112,156,4,-48,-78
-136,-107,29,122,-82,-39,200,117,161,4,-48,-78
-146,-117,29,131,-87,-43,204,117,165,4,-48,-87
-151,-122,29,136,-90,-46,204,117,165,0,-48,-78
-151,-117,34,134,-92,-41,209,122,165,0,-48,-78
-151,-117,34,134,-92,-41,214,131,170,0,-48,-82
-151,-122,29,136,-90,-46,214,131,170,0,-48,-82
-151,-122,29,136,-90,-46,219,131,170,0,-48,-82
-151,-122,29,136,-90,-46,219,131,175,0,-48,-82
-156,-126,29,141,-92,-48,219,131,175,0,-53,-87
-161,-126,34,143,-97,-46,229,131,180,0,-53,-92
-161,-126,34,143,-97,-46,229,136,180,-4,-53,-97
-161,-122,39,141,-100,-41,229,136,180,-4,-53,-97
-161,-122,39,141,-100,-41,229,136,180,-9,-53,-97
-161,-122,39,141,-100,-41,234,141,175,-14,-63,-102
-161,-122,39,141,-100,-41,234,141,175,-14,-68,-102
-170,-126,43,148,-107,-41,239,141,175,-19,-68,-102
-175,-131,43,153,-109,-43,239,146,175,-19,-68,-107
-175,-131,43,153,-109,-43,244,146,180,-24,-68,-107
-175,-131,43,153,-109,-43,253,146,180,-29,-78,-117
-180,-136,43,158,-112,-46,253,156,175,-29,-82,-122
-180,-136,43,158,-112,-46,253,156,175,-39,-87,-122
-180,-146,34,163,-107,-56,263,156,180,-43,-92,-126
-190,-161,29,175,-109,-65,268,161,185,-48,-97,-131
-190,-161,29,175,-109,-65,273,165,180,-53,-102,-136
-190,-161,29,175,-109,-65,278,170,180,-58,-107,-141
-200,-161,39,180,-119,-61,283,180,180,-63,-112,-141
-204,-165,39,185,-122,-63,287,185,180,-73,-117,-146
-209,-175,34,192,-122,-70,297,190,170,-82,-131,-151
-214,-190,24,202,-119,-82,312,195,165,-92,-141,-161
-234,-200,34,217,-134,-82,317,200,165,-107,-156,-175
-244,-204,39,224,-141,-82,331,209,156,-122,-161,-190
-253,-224,29,239,-141,-97,341,219,156,-131,-180,-200
-263,-229,34,246,-148,-97,351,219,151,-151,-195,-209
-273,-244,29,258,-151,-107,361,219,136,-170,-209,-219
-283,-258,24,270,-153,-117,370,224,131,-190,-224,-224
-297,-268,29,283,-163,-119,380,229,117,-209,-244,-239
-317,-283,34,300,-175,-124,390,229,97,-229,-263,-253
-322,-297,24,309,-173,-136,409,229,87,-244,-278,-268
-336,-307,29,322,-183,-139,424,229,73,-268,-292,-278
-351,-326,24,339,-187,-151,439,234,58,-292,-312,-283
-366,-341,24,353,-195,-158,444,234,43,-312,-326,-302
-370,-346,24,358,-197,-161,448,224,19,-336,-351,-312
-385,-351,34,368,-209,-158,448,219,4,-356,-370,-322
-395,-346,48,370,-222,-148,448,214,-14,-380,-370,-322
-400,-341,58,370,-229,-141,444,200,-24,-385,-385,-322
-400,-341,58,370,-229,-141,434,185,-39,-400,-385,-317
-395,-317,78,356,-236,-119,419,175,-53,-405,-380,-302
-390,-307,82,348,-236,-112,400,165,-58,-405,-375,-287
-380,-297,82,339,-231,-107,390,156,-58,-400,-366,-273
-366,-268,97,317,-231,-85,366,151,-63,-390,-351,-258
-346,-248,97,297,-222,-75,341,146,-63,-370,-326,-239
-326,-224,102,275,-214,-61,322,141,-58,-341,-297,-214
-297,-185,112,241,-204,-36,297,136,-48,-317,-263,-190
-278,-151,126,214,-202,-12,273,131,-34,-278,-239,-161
-253,-122,131,187,-192,4,244,126,-19,-248,-200,-136
-229,-87,141,158,-185,26,209,122,0,-209,-165,-112
-195,-53,141,124,-168,43,180,107,14,-165,-131,-87
-170,-29,141,100,-156,56,146,102,19,-136,-102,-68
-141,0,141,70,-141,70,122,92,34,-102,-82,-53
-122,9,131,56,-126,70,97,78,43,-78,-63,-39
-102,14,117,43,-109,65,73,63,43,-63,-53,-24
-87,19,107,34,-97,63,58,48,39,-39,-34,-19
-73,24,97,24,-85,61,43,39,39,-34,-19,-9
-53,29,82,12,-68,56,29,34,39,-19,-14,-9
-48,29,78,9,-63,53,24,29,39,-19,-4,-9
-34,29,63,2,-48,46,9,24,34,-9,0,-4
-29,34,63,-2,-46,48,4,14,29,0,4,-4
-24,34,58,-4,-41,46,-9,4,29,0,9,0
-19,34,53,-7,-36,43,-14,4,29,4,19,4
-14,43,58,-14,-36,51,-19,-4,24,4,19,4
-9,48,58,-19,-34,53,-24,-9,24,9,14,4
-4,39,43,-17,-24,41,-19,-14,19,9,14,4
-4,29,34,-12,-19,31,-14,-19,19,9,14,4
-4,29,34,-12,-19,31,-14,-19,14,9,9,0
-4,24,29,-9,-17,26,-14,-19,14,9,4,-4
-4,24,29,-9,-17,26,-14,-19,14,4,4,-4
-4,19,24,-7,-14,21,-14,-19,14,4,0,-4
-14,14,29,0,-21,21,-9,-29,9,4,0,-9
-14,14,29,0,-21,21,-9,-29,9,4,0,-9
-14,14,29,0,-21,21,-9,-29,9,4,0,-9
-14,9,24,2,-19,17,-9,-29,4,0,-4,-9
-19,4,24,7,-21,14,-9,-29,4,0,-4,-14
-19,0,19,9,-19,9,-4,-29,4,0,-4,-14
-19,-4,14,12,-17,4,4,-24,4,0,-4,-14
-24,-4,19,14,-21,7,9,-24,9,-4,-9,-14
-34,-9,24,21,-29,7,4,-24,9,-4,-9,-19
-34,-9,24,21,-29,7,0,-24,9,0,-9,-19
-39,-9,29,24,-34,9,4,-24,9,0,-4,-19
-39,-9,29,24,-34,9,9,-24,14,0,-4,-19
-48,-14,34,31,-41,9,14,-24,19,0,-4,-19
-58,-14,43,36,-51,14,29,-24,24,-4,-4,-24
-63,-19,43,41,-53,12,29,-24,34,4,0,-24
-63,-19,43,41,-53,12,39,-19,39,9,4,-24
-78,-24,53,51,-65,14,39,-19,43,19,4,-24
-78,-24,53,51,-65,14,39,-14,53,24,4,-24
-82,-24,58,53,-70,17,48,-9,58,24,4,-29
-82,-19,63,51,-73,21,48,-9,68,29,9,-29
-82,-19,63,51,-73,21,48,0,73,34,4,-29
-87,-19,68,53,-78,24,53,4,78,34,4,-29
-87,-29,58,58,-73,14,53,9,82,34,4,-29
-87,-34,53,61,-70,9,53,9,87,39,4,-29
-87,-29,58,58,-73,14,58,14,92,43,14,-24
-87,-29,58,58,-73,14,58,19,97,43,19,-19
-87,-24,63,56,-75,19,58,19,102,48,19,-19
-87,-19,68,53,-78,24,58,29,102,48,24,-19
-87,-19,68,53,-78,24,58,29,102,48,24,-14
-82,-19,63,51,-73,21,53,29,102,53,29,-14
-82,-19,63,51,-73,21,53,29,107,53,29,-19
-78,-19,58,48,-68,19,53,29,107,48,29,-24
-78,-19,58,48,-68,19,48,34,107,43,29,-24
-78,-19,58,48,-68,19,48,34,107,43,29,-24
-68,-14,53,41,-61,19,43,34,102,48,29,-24
-63,-9,53,36,-58,21,39,34,97,48,24,-24
-63,-9,53,36,-58,21,39,34,97,48,24,-19
-58,-9,48,34,-53,19,39,34,87,48,29,-19
-58,-14,43,36,-51,14,39,24,87,48,29,-19
-53,-19,34,36,-43,7,34,24,82,48,29,-19
-53,-19,34,36,-43,7,29,24,78,39,19,-19
-48,-14,34,31,-41,9,29,24,78,34,14,-19
-48,-14,34,31,-41,9,29,19,73,34,14,-19
-43,-14,29,29,-36,7,29,19,73,34,14,-19
-43,-9,34,26,-39,12,14,14,63,34,19,-19
-43,-4,39,24,-41,17,9,14,53,39,24,-19
-43,-4,39,24,-41,17,9,14,48,39,24,-14
-43,0,43,21,-43,21,9,9,48,34,24,-9
-43,0,43,21,-43,21,9,9,53,34,24,-9
-39,0,39,19,-39,19,4,4,58,34,24,-9
-39,-4,34,21,-36,14,4,4,48,34,19,-9
-39,-4,34,21,-36,14,4,-4,43,34,19,-9
-39,-4,34,21,-36,14,0,-4,39,29,14,-9
-39,-9,29,24,-34,9,0,-4,39,29,9,-9
-39,-9,29,24,-34,9,0,-4,39,29,9,-14
-39,-9,29,24,-34,9,0,-9,39,29,9,-19
-39,-9,29,24,-34,9,0,-9,39,29,9,-19
-39,-9,29,24,-34,9,0,-9,39,29,9,-19
-39,-9,29,24,-34,9,4,-9,39,29,9,-19
-34,0,34,17,-34,17,9,-4,43,34,9,-14
-34,4,39,14,-36,21,14,-4,48,39,9,-9
-29,19,48,4,-39,34,14,-4,53,43,19,0
-24,43,68,-9,-46,56,14,4,68,58,39,14
-24,48,73,-12,-48,61,19,4,68,68,43,14
-29,39,68,-4,-48,53,29,9,78,68,43,9
-29,29,58,0,-43,43,53,19,82,68,43,9
-19,43,63,-12,-41,53,63,24,82,68,43,9
-4,58,63,-26,-34,61,58,24,82,68,43,14
-4,63,68,-29,-36,65,14,9,78,68,48,19
14,87,73,-51,-29,80,-34,-4,73,78,63,34
14,107,92,-61,-39,100,-73,-29,63,82,73,53
14,126,112,-70,-48,119,-97,-39,43,87,82,63
24,141,117,-82,-46,129,-112,-68,39,87,87,73
43,165,122,-104,-39,143,-122,-73,29,87,87,82
68,156,87,-112,-9,122,-112,-63,24,82,87,73
73,126,53,-100,9,90,-107,-63,4,68,73,63
78,126,48,-102,14,87,-107,-68,0,63,73,63
78,136,58,-107,9,97,-107,-63,0,63,78,68
78,122,43,-100,17,82,-97,-58,4,63,78,68
73,112,39,-92,17,75,-82,-48,14,63,73,68
48,87,39,-68,4,63,-58,-29,29,68,78,58
19,63,43,-41,-12,53,-34,-24,34,63,68,43
-4,34,39,-14,-21,36,-29,-34,19,53,48,24
-34,9,43,12,-39,26,-19,-39,14,39,34,4
-43,-4,39,24,-41,17,-4,-39,14,34,24,-4
-43,-9,34,26,-39,12,-4,-29,14,24,14,-9
-43,-14,29,29,-36,7,-4,-29,14,19,9,-9
-48,-14,34,31,-41,9,0,-29,14,19,9,-9
-48,-19,29,34,-39,4,0,-24,14,19,9,-9
-53,-19,34,36,-43,7,0,-24,14,19,4,-14
-53,-19,34,36,-43,7,4,-24,14,19,4,-14
-53,-19,34,36,-43,7,9,-24,14,14,9,-14
-53,-19,34,36,-43,7,9,-24,14,14,9,-14
-53,-19,34,36,-43,7,9,-24,14,14,9,-14
-58,-19,39,39,-48,9,9,-24,9,14,9,-14
-63,-19,43,41,-53,12,14,-19,9,14,9,-14
-63,-24,39,43,-51,7,14,-19,14,14,14,-14
-53,-29,24,41,-39,-2,14,-19,14,19,14,-14
-58,-29,29,43,-43,0,14,-19,19,19,14,-14
-58,-29,29,43,-43,0,19,-19,24,19,14,-24
-87,-39,48,63,-68,4,39,-29,24,14,-4,-29
-151,-58,92,104,-122,17,78,-48,34,0,-14,-48
-190,-68,122,129,-156,26,122,-43,43,0,-29,-58
-195,-39,156,117,-175,58,131,-43,97,78,29,-43
-175,29,204,73,-190,117,141,-29,229,244,156,29
-131,165,297,-17,-214,231,102,14,370,488,346,151
-53,292,346,-119,-200,319,29,48,502,717,541,268
87,522,434,-305,-173,478,-151,14,639,1024,810,448
351,927,575,-639,-112,751,-517,-73,761,1532,1244,771
717,1346,629,-1032,43,988,-1010,-156,761,1888,1581,1083
1161,1722,561,-1442,300,1141,-1561,-175,448,1820,1732,1327
1566,1800,234,-1683,666,1017,-1961,-224,-165,1259,1449,1332
1873,1493,-380,-1683,1127,556,-2132,-453,-1083,302,824,1073
2054,1054,-1000,-1554,1527,26,-2181,-741,-1844,-595,156,736
1956,405,-1551,-1180,1754,-573,-2088,-1224,-2508,-1366,-512,283
1742,-97,-1839,-822,1790,-968,-1927,-1625,-2820,-1756,-902,-19
1629,-268,-1898,-680,1764,-1083,-1732,-1668,-2659,-1732,-961,-117
1439,-234,-1673,-602,1556,-954,-1473,-1542,-2278,-1478,-824,-53
1078,-87,-1166,-495,1122,-627,-1205,-1351,-1805,-1137,-590,48
663,97,-566,-380,614,-234,-897,-1093,-1239,-727,-312,190
253,180,-73,-217,163,53,-566,-717,-727,-380,-102,229
43,146,102,-95,-29,124,-307,-439,-400,-200,-14,161
-29,43,73,-7,-51,58,-112,-219,-185,-122,-39,53
-73,-43,29,58,-51,-7,53,-43,-29,-78,-63,-34
-78,-73,4,75,-41,-34,102,24,24,-58,-68,-68
-78,-92,-14,85,-31,-53,126,58,53,-39,-63,-68
-92,-102,-9,97,-41,-56,151,78,73,-19,-48,-68
-102,-107,-4,104,-48,-56,161,97,87,-19,-48,-73
-107,-117,-9,112,-48,-63,165,102,97,-14,-53,-82
-122,-117,4,119,-63,-56,180,112,107,-4,-53,-87
-117,-117,0,117,-58,-58,185,122,122,0,-53,-87
-112,-117,-4,114,-53,-61,180,126,131,4,-53,-87
-117,-112,4,114,-61,-53,185,131,136,4,-48,-87
-117,-107,9,112,-63,-48,190,136,141,4,-48,-87
-122,-112,9,117,-65,-51,195,136,146,9,-48,-97
-122,-112,9,117,-65,-51,195,136,146,9,-48,-87
-126,-107,19,117,-73,-43,195,131,141,4,-48,-92
-131,-107,24,119,-78,-41,195,131,141,0,-48,-102
-131,-112,19,122,-75,-46,195,131,141,0,-48,-102
-131,-112,19,122,-75,-46,200,131,141,0,-48,-102
-126,-112,14,119,-70,-48,200,131,146,0,-48,-102
-126,-117,9,122,-68,-53,200,131,146,0,-53,-107
-131,-117,14,124,-73,-51,209,131,151,0,-53,-107
-131,-117,14,124,-73,-51,209,136,151,-4,-53,-107
-131,-117,14,124,-73,-51,209,136,151,-4,-53,-107
-131,-122,9,126,-70,-56,209,136,151,-9,-53,-107
-131,-126,4,129,-68,-61,209,141,151,-14,-63,-112
-131,-131,0,131,-65,-65,204,141,156,-14,-68,-112
-141,-136,4,139,-73,-65,209,141,156,-19,-68,-112
-146,-141,4,143,-75,-68,209,146,156,-19,-68,-117
-141,-141,0,141,-70,-70,214,146,156,-24,-68,-112
-136,-141,-4,139,-65,-73,224,146,151,-29,-78,-117
-141,-141,0,141,-70,-70,219,156,146,-24,-78,-122
-141,-136,4,139,-73,-65,214,156,146,-29,-78,-122
-146,-146,0,146,-73,-73,224,156,146,-34,-82,-126
-161,-161,0,161,-80,-80,229,161,146,-39,-87,-131
-161,-161,0,161,-80,-80,239,165,151,-43,-92,-136
-161,-161,0,161,-80,-80,248,170,161,-48,-97,-141
-170,-161,9,165,-90,-75,253,180,161,-53,-102,-141
-175,-165,9,170,-92,-78,258,185,161,-63,-107,-146
-180,-175,4,178,-92,-85,263,190,151,-73,-126,-151
-185,-190,-4,187,-90,-97,273,195,146,-82,-141,-161
-195,-200,-4,197,-95,-102,278,204,146,-97,-156,-170
-195,-204,-9,200,-92,-107,292,219,136,-112,-161,-180
-204,-224,-19,214,-92,-122,297,229,136,-122,-175,-190
-214,-229,-14,222,-100,-122,302,229,131,-141,-185,-200
-219,-244,-24,231,-97,-134,312,234,117,-156,-200,-209
-224,-258,-34,241,-95,-146,322,244,112,-170,-214,-214
-234,-268,-34,251,-100,-151,331,253,102,-190,-234,-229
-248,-283,-34,265,-107,-158,341,258,87,-209,-253,-244
-253,-287,-34,270,-109,-161,351,258,78,-229,-268,-258
-268,-287,-19,278,-124,-153,356,258,63,-258,-283,-268
-283,-312,-29,297,-126,-170,366,263,53,-283,-302,-273
-297,-331,-34,314,-131,-183,366,263,43,-302,-317,-292
-297,-336,-39,317,-129,-187,370,253,19,-326,-341,-302
-307,-341,-34,324,-136,-187,370,248,4,-346,-361,-312
-312,-341,-29,326,-141,-185,370,244,-19,-370,-361,-312
-312,-341,-29,326,-141,-185,366,229,-34,-375,-375,-312
-312,-341,-29,326,-141,-185,361,219,-48,-390,-380,-312
-307,-317,-9,312,-148,-163,351,214,-63,-395,-380,-302
-302,-307,-4,305,-148,-156,331,204,-78,-400,-375,-292
-292,-297,-4,295,-143,-151,322,195,-87,-400,-366,-283
-278,-268,9,273,-143,-129,302,185,-92,-395,-351,-268
-258,-248,9,253,-134,-119,283,175,-92,-380,-326,-248
-244,-229,14,236,-129,-107,273,170,-87,-356,-302,-224
-219,-195,24,207,-122,-85,258,165,-78,-336,-273,-200
-200,-165,34,183,-117,-65,239,161,-63,-297,-253,-170
-175,-141,34,158,-104,-53,214,156,-48,-268,-219,-146
-161,-112,48,136,-104,-31,185,151,-29,-234,-185,-126
-136,-82,53,109,-95,-14,161,136,-14,-195,-151,-107
-122,-58,63,90,-92,2,131,126,-9,-165,-117,-82
-102,-29,73,65,-87,21,112,112,4,-131,-92,-63
-82,-14,68,48,-75,26,92,97,14,-102,-68,-48
-63,-4,58,34,-61,26,73,82,14,-82,-53,-34
-53,4,58,24,-56,31,63,68,14,-58,-34,-29
-43,14,58,14,-51,36,53,58,19,-53,-19,-19
-29,24,53,2,-41,39,39,48,19,-34,-19,-14
-29,29,58,0,-43,43,34,39,19,-29,-14,-9
-19,24,43,-2,-31,34,19,34,19,-24,-9,-4
-19,24,43,-2,-31,34,14,24,19,-19,-4,-4
-19,24,43,-2,-31,34,9,14,19,-19,0,-4
-19,24,43,-2,-31,34,14,14,19,-14,9,-4
-19,24,43,-2,-31,34,19,0,9,-14,14,-4
-19,19,39,0,-29,29,24,-9,4,-9,14,-4
-14,19,34,-2,-24,26,14,-14,-4,-9,14,-4
-14,19,34,-2,-24,26,4,-19,-9,-9,14,-4
-14,19,34,-2,-24,26,4,-19,-14,-9,14,-4
-14,14,29,0,-21,21,4,-19,-14,-9,14,-4
-19,14,34,2,-26,24,9,-19,-14,-14,14,-4
-24,9,34,7,-29,21,14,-19,-14,-14,9,-4
-34,4,39,14,-36,21,19,-29,-19,-14,9,-9
-34,4,39,14,-36,21,19,-29,-19,-14,9,-9
-34,9,43,12,-39,26,19,-29,-14,-9,9,-9
-34,9,43,12,-39,26,19,-29,-14,-9,4,-9
-39,9,48,14,-43,29,14,-29,-9,-9,9,-14
-39,9,48,14,-43,29,14,-29,-4,-9,14,-14
-39,4,43,17,-41,24,24,-24,-4,-9,14,-14
-43,4,48,19,-46,26,29,-24,0,-14,9,-14
-53,0,53,26,-53,26,34,-19,4,-9,9,-19
-53,0,53,26,-53,26,39,-14,9,0,9,-19
-53,4,58,24,-56,31,43,-9,14,0,14,-19
-48,9,58,19,-53,34,48,-4,24,0,14,-19
-53,4,58,24,-56,31,48,0,29,4,14,-19
-58,4,63,26,-61,34,58,4,34,4,14,-24
-58,0,58,29,-58,29,58,9,48,14,14,-24
-53,0,53,26,-53,26,68,19,58,19,14,-24
-68,-4,63,36,-65,29,68,24,63,24,14,-24
-68,-4,63,36,-65,29,68,34,73,24,14,-24
-73,-14,58,43,-65,21,78,39,78,24,14,-29
-73,-19,53,46,-63,17,78,39,87,29,19,-29
-68,-9,58,39,-63,24,78,48,92,39,24,-24
-68,0,68,34,-68,34,82,53,97,43,34,-19
-68,-4,63,36,-65,29,82,58,102,43,34,-19
-68,-4,63,36,-65,29,82,58,107,48,34,-19
-68,-4,63,36,-65,29,82,63,112,53,39,-19
-68,-9,58,39,-63,24,78,68,117,53,39,-19
-68,-9,58,39,-63,24,78,63,117,53,34,-19
-68,-9,58,39,-63,24,78,68,112,48,34,-19
-68,-4,63,36,-65,29,78,68,112,48,34,-14
-63,0,63,31,-63,31,73,68,112,53,39,-14
-58,0,58,29,-58,29,73,68,117,58,39,-14
-48,0,48,24,-48,24,73,68,117,58,39,-14
-48,0,48,24,-48,24,68,73,117,53,39,-14
-48,0,48,24,-48,24,68,73,117,53,39,-14
-43,0,43,21,-43,21,63,63,107,53,39,-19
-43,0,43,21,-43,21,58,53,97,48,34,-24
-48,0,48,24,-48,24,58,53,92,43,29,-19
-48,0,48,24,-48,24,58,53,78,39,29,-19
-48,0,48,24,-48,24,58,43,78,39,29,-19
-43,0,43,21,-43,21,53,43,73,39,29,-19
-43,4,48,19,-46,26,48,43,68,34,29,-19
-39,14,53,12,-46,34,48,43,68,34,34,-19
-39,14,53,12,-46,34,48,34,63,34,34,-19
-34,14,48,9,-41,31,48,29,63,34,34,-19
-39,9,48,14,-43,29,39,24,58,29,34,-14
-43,4,48,19,-46,26,39,24,53,29,34,-9
-43,0,43,21,-43,21,39,24,48,29,29,-9
-43,0,43,21,-43,21,39,19,48,24,24,-9
-43,0,43,21,-43,21,39,19,53,24,24,-14
-39,0,39,19,-39,19,34,14,58,24,24,-19
-39,-4,34,21,-36,14,34,19,48,24,24,-19
-39,-4,34,21,-36,14,34,14,43,24,29,-19
-34,0,34,17,-34,17,29,9,39,19,29,-19
-29,0,29,14,-29,14,29,9,39,19,29,-19
-29,4,34,12,-31,19,29,9,39,19,29,-19
-29,9,39,9,-34,24,29,9,39,19,29,-19
-29,9,39,9,-34,24,29,14,39,19,24,-19
-24,9,34,7,-29,21,29,14,39,19,24,-14
-19,14,34,2,-26,24,29,19,39,19,29,-14
-14,24,39,-4,-26,31,29,24,48,29,29,-9
-14,39,53,-12,-34,46,24,19,53,34,43,0
-14,63,78,-24,-46,70,24,24,68,48,63,14
-14,68,82,-26,-48,75,29,24,68,58,63,14
-19,68,87,-24,-53,78,39,29,78,58,63,9
-19,68,87,-24,-53,78,63,39,87,58,63,9
-9,73,82,-31,-46,78,63,43,92,58,63,9
4,78,73,-41,-34,75,48,39,92,58,63,14
4,82,78,-43,-36,80,4,14,82,58,68,19
24,107,82,-65,-29,95,-43,-4,68,68,82,34
24,122,97,-73,-36,109,-68,-29,53,68,87,48
34,146,112,-90,-39,129,-78,-34,34,68,92,53
53,170,117,-112,-31,143,-92,-53,29,68,97,63
63,185,122,-124,-29,153,-102,-53,19,68,97,73
73,165,92,-119,-9,129,-92,-43,19,63,97,63
73,136,63,-104,4,100,-87,-43,4,43,78,53
78,136,58,-107,9,97,-82,-43,4,39,73,53
73,141,68,-107,2,104,-78,-29,9,43,78,53
68,122,53,-95,7,87,-68,-19,14,43,78,48
63,112,48,-87,7,80,-48,-9,24,43,73,48
39,87,48,-63,-4,68,-24,4,34,43,73,39
14,63,48,-39,-17,56,-4,0,34,34,58,24
-4,34,39,-14,-21,36,0,-14,19,24,39,4
-34,9,43,12,-39,26,4,-24,9,9,24,-14
-43,-4,39,24,-41,17,14,-29,4,4,19,-24
-43,-4,39,24,-41,17,14,-19,4,-4,14,-24
-43,-4,39,24,-41,17,14,-19,4,-4,14,-19
-48,-4,43,26,-46,19,19,-19,9,0,19,-19
-48,-9,39,29,-43,14,19,-14,14,0,19,-19
-53,-9,43,31,-48,17,19,-14,14,0,14,-29
-53,-9,43,31,-48,17,24,-14,14,0,9,-34
-53,-9,43,31,-48,17,29,-14,14,-4,9,-34
-53,-9,43,31,-48,17,29,-14,14,-4,9,-34
-53,-9,43,31,-48,17,29,-14,14,-4,9,-29
-53,-9,43,31,-48,17,29,-14,14,-4,9,-24
-53,-9,43,31,-48,17,34,-9,19,-4,9,-24
-53,-9,43,31,-48,17,34,-9,24,-4,14,-24
-53,-9,43,31,-48,17,34,-9,24,0,14,-29
-73,-9,63,41,-68,26,34,-9,24,0,14,-34
-78,-9,68,43,-73,29,48,-9,29,0,14,-43
-107,-14,92,61,-100,39,78,-19,34,0,4,-43
-161,-14,146,87,-153,65,102,-39,58,19,29,-43
-185,0,185,92,-185,92,122,-39,97,73,53,-29
-165,78,244,43,-204,161,102,-29,180,234,175,29
-117,200,317,-41,-217,258,58,-14,312,468,366,146
-34,385,419,-175,-226,402,-58,-19,424,761,614,312
102,610,507,-356,-202,558,-248,-53,517,1093,902,512
317,917,600,-617,-141,758,-546,-126,561,1400,1195,751
624,1322,697,-973,-36,1010,-980,-200,566,1790,1590,1073
976,1600,624,-1288,175,1112,-1405,-273,385,1854,1727,1273
1385,1742,356,-1564,514,1049,-1786,-253,-58,1454,1595,1351
1688,1590,-97,-1639,893,746,-2049,-312,-649,756,1141,1224
1883,1098,-785,-1490,1334,156,-2078,-561,-1493,-258,409,844
1971,629,-1342,-1300,1656,-356,-2005,-790,-2074,-1019,-195,492
1830,63,-1766,-946,1798,-851,-1869,-1210,-2552,-1590,-727,107
1610,-253,-1864,-678,1737,-1058,-1683,-1454,-2659,-1790,-956,-92
1473,-258,-1732,-607,1603,-995,-1468,-1385,-2337,-1610,-873,-97
1234,-180,-1415,-527,1324,-797,-1190,-1220,-1903,-1302,-697,-4
819,-29,-849,-395,834,-439,-927,-1049,-1415,-936,-453,92
483,97,-385,-290,434,-143,-678,-849,-951,-610,-244,165
156,131,-24,-143,90,53,-380,-507,-522,-331,-102,151
-4,87,92,-41,-48,90,-165,-297,-258,-185,-34,82
-39,-14,24,26,-31,4,-14,-117,-97,-136,-53,-9
-92,-82,9,87,-51,-36,117,24,29,-92,-63,-68
-97,-92,4,95,-51,-43,131,58,58,-78,-63,-87
-92,-97,-4,95,-43,-51,151,78,87,-63,-53,-87
-102,-97,4,100,-53,-46,165,87,102,-48,-39,-87
-112,-97,14,104,-63,-41,170,107,117,-48,-39,-92
-117,-107,9,112,-63,-48,175,112,126,-43,-43,-97
-131,-107,24,119,-78,-41,190,117,136,-34,-43,-97
-131,-107,24,119,-78,-41,200,122,151,-29,-43,-97
-131,-107,24,119,-78,-41,200,126,156,-24,-48,-97
-136,-107,29,122,-82,-39,204,131,156,-24,-48,-97
-131,-107,24,119,-78,-41,209,141,161,-24,-48,-97
-131,-112,19,122,-75,-46,214,146,165,-19,-48,-107
-131,-112,19,122,-75,-46,209,146,165,-19,-48,-97
-131,-107,24,119,-78,-41,204,146,165,-19,-48,-97
-136,-107,29,122,-82,-39,204,151,170,-19,-48,-102
-141,-112,29,126,-85,-41,204,151,170,-19,-48,-102
-141,-112,29,126,-85,-41,209,151,170,-19,-48,-102
-141,-112,29,126,-85,-41,209,151,175,-19,-48,-102
-146,-117,29,131,-87,-43,209,151,175,-19,-53,-107
-151,-117,34,134,-92,-41,219,151,180,-19,-53,-107
-151,-117,34,134,-92,-41,219,151,180,-24,-53,-107
-151,-117,34,134,-92,-41,219,146,180,-24,-53,-107
-151,-122,29,136,-90,-46,219,146,180,-29,-53,-112
-151,-122,29,136,-90,-46,224,151,180,-34,-63,-122
-151,-122,29,136,-90,-46,224,151,185,-34,-68,-122
-161,-126,34,143,-97,-46,229,151,185,-39,-68,-122
-165,-136,29,151,-97,-53,229,156,185,-39,-68,-126
-165,-141,24,153,-95,-58,234,156,190,-43,-68,-126
-165,-141,24,153,-95,-58,244,156,190,-48,-78,-136
-170,-146,24,158,-97,-61,244,165,185,-48,-82,-141
-170,-141,29,156,-100,-56,244,170,185,-58,-87,-141
-170,-146,24,158,-97,-61,253,175,185,-63,-92,-146
-170,-151,19,161,-95,-65,248,180,185,-68,-97,-151
-161,-141,19,151,-90,-61,244,185,180,-73,-102,-156
-170,-151,19,161,-95,-65,258,185,175,-78,-112,-161
-190,-161,29,175,-109,-65,273,190,170,-82,-122,-161
-195,-165,29,180,-112,-68,278,195,170,-97,-126,-165
-200,-175,24,187,-112,-75,283,200,165,-112,-141,-170
-200,-190,9,195,-104,-90,287,204,165,-122,-151,-180
-209,-200,9,204,-109,-95,287,209,165,-136,-165,-190
-214,-204,9,209,-112,-97,302,219,156,-156,-170,-200
-224,-224,0,224,-112,-112,312,229,156,-170,-190,-209
-234,-229,4,231,-119,-112,326,229,151,-190,-209,-219
-244,-244,0,244,-122,-122,341,234,136,-209,-229,-234
-253,-258,-4,256,-124,-131,351,244,131,-229,-244,-244
-263,-268,-4,265,-129,-136,361,248,122,-248,-263,-258
-278,-287,-9,283,-134,-148,366,248,107,-273,-283,-273
-283,-307,-24,295,-129,-165,375,248,97,-297,-302,-287
-292,-317,-24,305,-134,-170,385,244,82,-326,-322,-297
-302,-331,-29,317,-136,-180,395,244,68,-351,-341,-302
-317,-336,-19,326,-148,-178,390,244,53,-370,-356,-322
-317,-336,-19,326,-148,-178,390,234,29,-395,-375,-326
-322,-336,-14,329,-153,-175,390,229,14,-409,-390,-326
-326,-331,-4,329,-161,-168,390,224,-4,-429,-390,-322
-331,-331,0,331,-165,-165,380,209,-14,-434,-400,-322
-331,-331,0,331,-165,-165,370,200,-29,-448,-400,-322
-326,-307,19,317,-173,-143,356,195,-43,-448,-395,-312
-322,-297,24,309,-173,-136,331,185,-53,-444,-385,-302
-307,-283,24,295,-165,-129,322,175,-53,-429,-370,-283
-287,-248,39,268,-163,-104,302,165,-53,-409,-351,-258
-268,-229,39,248,-153,-95,283,151,-53,-390,-326,-239
-253,-209,43,231,-148,-82,263,141,-48,-366,-302,-214
-229,-170,58,200,-143,-56,239,136,-34,-341,-268,-195
-209,-131,78,170,-143,-26,214,131,-14,-297,-239,-170
-185,-102,82,143,-134,-9,185,126,0,-263,-200,-146
-165,-73,92,119,-129,9,156,122,19,-219,-165,-122
-141,-53,87,97,-114,17,136,107,29,-175,-131,-97
-126,-39,87,82,-107,24,112,102,29,-146,-97,-73
-107,-9,97,58,-102,43,92,92,43,-117,-73,-58
-92,4,97,43,-95,51,68,78,53,-92,-48,-48
-73,14,87,29,-80,51,43,63,53,-73,-39,-34
-58,19,78,19,-68,48,34,48,48,-48,-24,-29
-48,24,73,12,-61,48,29,39,43,-43,-9,-24
-34,34,68,0,-51,51,19,34,39,-24,-4,-24
-29,34,63,-2,-46,48,19,29,39,-24,4,-19
-19,29,48,-4,-34,39,9,24,39,-19,9,-14
-19,34,53,-7,-36,43,4,14,39,-9,9,-14
-14,34,48,-9,-31,41,-4,4,39,-9,9,-14
-9,29,39,-9,-24,34,-4,4,39,-9,19,-14
-9,24,34,-7,-21,29,-9,-4,29,-14,19,-14
-9,19,29,-4,-19,24,-14,-9,24,-9,14,-14
-4,19,24,-7,-14,21,-14,-14,19,-9,14,-14
-9,19,29,-4,-19,24,-14,-19,19,-9,14,-14
-14,19,34,-2,-24,26,-14,-19,14,-9,14,-14
-14,14,29,0,-21,21,-14,-19,9,-9,14,-14
-14,14,29,0,-21,21,-14,-19,4,-14,14,-14
-9,14,24,-2,-17,19,-14,-19,4,-14,9,-14
-14,14,29,0,-21,21,-9,-29,0,-14,9,-19
-14,14,29,0,-21,21,-4,-29,0,-14,9,-19
-14,14,29,0,-21,21,0,-29,0,-14,9,-19
-14,9,24,2,-19,17,0,-29,-4,-19,4,-19
-19,9,29,4,-24,19,0,-29,-4,-19,4,-24
-24,4,29,9,-26,17,4,-29,0,-19,0,-24
-29,-4,24,17,-26,9,14,-24,4,-19,-4,-24
-34,-4,29,19,-31,12,19,-24,9,-24,-9,-24
-43,-9,34,26,-39,12,19,-24,9,-24,-9,-29
-43,-4,39,24,-41,17,19,-24,9,-19,-9,-29
-48,0,48,24,-48,24,24,-24,14,-19,-4,-29
-48,0,48,24,-48,24,29,-24,24,-19,-4,-34
-53,-4,48,29,-51,21,29,-24,29,-14,-4,-39
-58,-4,53,31,-56,24,39,-19,34,-19,-4,-43
-63,-9,53,36,-58,21,39,-14,39,-14,-4,-43
-63,-14,48,39,-56,17,48,-9,39,-9,-4,-43
-78,-24,53,51,-65,14,48,-9,43,-4,-4,-43
-78,-24,53,51,-65,14,48,-4,53,0,-4,-39
-82,-24,58,53,-70,17,58,0,58,4,-4,-39
-73,-9,63,41,-68,26,58,0,68,9,4,-39
-63,0,63,31,-63,31,58,9,73,14,9,-39
-82,-9,73,46,-78,31,63,9,78,14,14,-39
-97,-24,73,61,-85,24,63,9,82,14,14,-39
-97,-24,73,61,-85,24,63,9,87,19,14,-39
-97,-19,78,58,-87,29,68,14,92,24,19,-39
-97,-19,78,58,-87,29,63,19,97,24,19,-39
-97,-19,78,58,-87,29,58,19,102,29,19,-39
-92,-19,73,56,-82,26,58,29,97,24,19,-39
-87,-19,68,53,-78,24,58,29,92,19,14,-34
-82,-14,68,48,-75,26,53,29,92,24,19,-34
-82,-9,73,46,-78,31,53,29,97,29,19,-34
-78,-9,68,43,-73,29,53,24,97,29,19,-34
-78,-9,68,43,-73,29,48,24,97,24,19,-34
-78,-9,68,43,-73,29,48,24,97,24,19,-34
-73,-9,63,41,-68,26,43,24,92,24,19,-34
-68,-9,58,39,-63,24,39,24,87,19,14,-39
-63,-9,53,36,-58,21,39,24,87,19,14,-39
-58,-9,48,34,-53,19,39,24,78,19,19,-39
-58,-9,48,34,-53,19,39,14,78,19,19,-39
-58,-14,43,36,-51,14,34,14,73,19,19,-39
-63,-19,43,41,-53,12,29,14,68,14,14,-39
-63,-14,48,39,-56,17,29,14,68,14,14,-39
-68,-14,53,41,-61,19,29,9,63,14,14,-39
-63,-14,48,39,-56,17,29,9,63,19,14,-39
-63,-14,48,39,-56,17,19,4,58,19,14,-39
-63,-14,48,39,-56,17,19,4,53,19,14,-39
-63,-14,48,39,-56,17,19,4,48,19,14,-39
-63,-9,53,36,-58,21,19,0,48,14,14,-39
-63,-9,53,36,-58,21,19,0,48,14,14,-39
-58,-9,48,34,-53,19,14,-4,53,14,14,-39
-58,-14,43,36,-51,14,14,-4,48,14,9,-39
-58,-14,43,36,-51,14,14,-9,48,14,9,-39
-58,-14,43,36,-51,14,14,-14,43,14,14,-39
-58,-14,43,36,-51,14,14,-14,43,14,14,-39
-58,-14,43,36,-51,14,9,-9,43,9,9,-39
-58,-9,48,34,-53,19,9,-14,39,9,9,-34
-58,-9,48,34,-53,19,9,-24,39,9,9,-29
-58,-9,48,34,-53,19,9,-19,39,9,14,-29
-58,-9,48,34,-53,19,9,-19,39,9,19,-29
-58,-9,48,34,-53,19,9,-19,39,9,19,-29
-58,-9,48,34,-53,19,9,-19,39,9,19,-29
-53,-9,43,31,-48,17,9,-19,39,9,24,-29
-48,0,48,24,-48,24,9,-14,43,14,24,-24
-43,4,48,19,-46,26,9,-14,48,19,29,-19
-39,19,58,9,-48,39,4,-14,53,24,39,-9
-34,43,78,-4,-56,61,4,-4,68,39,53,4
-34,48,82,-7,-58,65,9,-4,68,48,53,4
-39,48,87,-4,-63,68,19,0,78,48,53,0
-39,48,87,-4,-63,68,43,9,82,48,53,0
-24,53,78,-14,-51,65,43,14,82,48,53,0
-4,58,63,-26,-34,61,29,14,82,48,53,4
-4,63,68,-29,-36,65,-14,-4,68,48,53,4
14,87,73,-51,-29,80,-63,-24,53,58,63,14
9,102,92,-56,-41,97,-87,-53,43,58,68,29
4,117,112,-61,-53,114,-97,-68,24,58,73,34
14,131,117,-73,-51,124,-112,-92,19,58,78,43
34,156,122,-95,-43,139,-122,-92,9,58,78,53
53,146,92,-100,-19,119,-112,-82,9,53,78,43
53,117,63,-85,-4,90,-107,-82,-4,39,63,34
63,122,58,-92,2,90,-102,-78,-4,43,63,39
68,136,68,-102,0,102,-97,-63,0,53,68,48
73,126,53,-100,9,90,-87,-53,9,53,73,48
73,122,48,-97,12,85,-73,-39,24,53,73,48
48,97,48,-73,0,73,-53,-24,34,53,73,39
19,73,53,-46,-17,63,-34,-24,34,43,58,24
-9,39,48,-14,-29,43,-29,-39,19,34,39,4
-43,9,53,17,-48,31,-19,-48,14,19,24,-14
-53,-4,48,29,-51,21,-4,-48,14,14,14,-24
-53,-9,43,31,-48,17,-4,-39,14,4,4,-29
-53,-14,39,34,-46,12,0,-39,9,0,4,-29
-58,-14,43,36,-51,14,9,-39,4,0,9,-29
-58,-24,34,41,-46,4,9,-34,4,0,9,-29
-63,-29,34,46,-48,2,9,-34,4,0,4,-34
-63,-29,34,46,-48,2,9,-34,4,0,0,-34
-63,-29,34,46,-48,2,9,-34,4,-4,0,-34
-63,-29,34,46,-48,2,9,-34,4,-4,0,-34
-63,-29,34,46,-48,2,9,-34,4,-4,0,-34
-63,-24,39,43,-51,7,9,-34,4,-4,0,-34
-63,-19,43,41,-53,12,14,-29,9,-4,0,-34
-63,-19,43,41,-53,12,14,-29,14,-4,4,-34
-53,-19,34,36,-43,7,14,-29,14,0,4,-34
-63,-19,43,41,-53,12,14,-29,14,0,4,-34
-68,-19,48,43,-58,14,19,-29,14,0,4,-43
-97,-24,73,61,-85,24,39,-43,9,-4,-9,-43
-161,-39,122,100,-141,41,78,-68,14,-19,-14,-58
-195,-39,156,117,-175,58,112,-68,34,4,-14,-58
-195,0,195,97,-195,97,112,-73,97,107,58,-34
-170,87,258,41,-214,173,82,-87,195,283,204,48
-122,244,366,-61,-244,305,4,-73,302,536,414,180
-24,434,458,-204,-241,446,-156,-87,380,839,663,346
136,727,590,-431,-226,658,-424,-170,463,1220,985,575
370,1132,761,-751,-195,946,-814,-239,561,1737,1439,902
707,1551,844,-1129,-68,1198,-1332,-302,536,2103,1795,1220
1132,1820,688,-1476,222,1254,-1781,-180,356,2030,1912,1434
1517,1790,273,-1654,622,1032,-2078,-87,-126,1464,1595,1410
1849,1405,-444,-1627,1146,480,-2161,-185,-995,434,907,1083
2054,888,-1166,-1471,1610,-139,-2122,-341,-1708,-536,175,678
2000,273,-1727,-1137,1864,-727,-2015,-800,-2405,-1346,-512,219
1830,-195,-2025,-817,1927,-1110,-1839,-1176,-2752,-1776,-922,-87
1766,-346,-2113,-710,1939,-1229,-1664,-1293,-2610,-1776,-1000,-195
1625,-292,-1917,-666,1771,-1105,-1424,-1239,-2249,-1546,-883,-141
1244,-165,-1410,-539,1327,-788,-1200,-1180,-1830,-1239,-673,-43
810,0,-810,-405,810,-405,-936,-1054,-1317,-863,-419,92
346,102,-244,-224,295,-70,-595,-722,-800,-497,-195,151
82,87,4,-85,39,46,-326,-488,-468,-297,-92,102
-9,4,14,2,-12,9,-126,-258,-229,-185,-87,9
-73,-63,9,68,-41,-26,43,-73,-48,-107,-82,-63
-82,-82,0,82,-41,-41,97,-4,19,-87,-82,-97
-87,-92,-4,90,-41,-48,126,29,63,-68,-73,-97
-102,-97,4,100,-53,-46,146,48,82,-43,-58,-97
-112,-97,14,104,-63,-41,151,68,97,-39,-58,-102
-117,-107,9,112,-63,-48,156,68,107,-34,-63,-107
-131,-107,24,119,-78,-41,170,73,117,-24,-63,-107
-136,-107,29,122,-82,-39,180,82,131,-24,-63,-107
-141,-107,34,124,-87,-36,180,87,141,-24,-63,-107
-146,-107,39,126,-92,-34,185,92,146,-24,-58,-107
-146,-107,39,126,-92,-34,190,97,151,-24,-58,-107
-151,-112,39,131,-95,-36,200,102,156,-19,-58,-117
-151,-112,39,131,-95,-36,204,107,156,-19,-58,-107
-151,-107,43,129,-97,-31,209,107,156,-19,-58,-107
-151,-107,43,129,-97,-31,214,112,161,-19,-58,-112
-151,-107,43,129,-97,-31,214,112,161,-19,-58,-112
-151,-102,48,126,-100,-26,219,112,161,-19,-58,-112
-151,-102,48,126,-100,-26,219,112,165,-19,-58,-112
-156,-107,48,131,-102,-29,219,112,165,-19,-63,-117
-161,-112,48,136,-104,-31,229,112,175,-14,-63,-117
-161,-117,43,139,-102,-36,229,117,180,-14,-63,-117
-165,-117,48,141,-107,-34,229,117,180,-14,-63,-117
-170,-122,48,146,-109,-36,229,117,180,-19,-63,-117
-170,-122,48,146,-109,-36,239,122,180,-24,-73,-122
-170,-122,48,146,-109,-36,244,122,185,-24,-78,-122
-180,-126,53,153,-117,-36,248,122,185,-29,-78,-122
-185,-131,53,158,-119,-39,248,126,185,-29,-78,-126
-180,-131,48,156,-114,-41,253,126,190,-34,-78,-126
-175,-131,43,153,-109,-43,263,126,190,-39,-87,-136
-180,-136,43,158,-112,-46,263,136,185,-43,-92,-141
-180,-136,43,158,-112,-46,263,136,185,-58,-97,-141
-190,-146,43,168,-117,-51,273,136,185,-63,-102,-146
-209,-161,48,185,-129,-56,278,141,185,-68,-107,-151
-195,-161,34,178,-114,-63,283,146,185,-68,-112,-156
-180,-161,19,170,-100,-70,287,151,190,-68,-117,-161
-200,-161,39,180,-119,-61,292,161,190,-73,-122,-161
-214,-165,48,190,-131,-58,297,165,190,-82,-126,-165
-219,-175,43,197,-131,-65,307,170,185,-92,-141,-170
-224,-190,34,207,-129,-78,322,175,185,-102,-151,-180
-239,-200,39,219,-139,-80,326,180,190,-117,-165,-190
-244,-204,39,224,-141,-82,341,190,185,-131,-170,-200
-253,-224,29,239,-141,-97,351,200,185,-141,-190,-209
-263,-229,34,246,-148,-97,361,200,180,-161,-204,-219
-273,-244,29,258,-151,-107,375,204,165,-180,-219,-234
-283,-258,24,270,-153,-117,390,214,161,-200,-234,-244
-292,-268,24,280,-158,-122,400,219,151,-224,-253,-258
-307,-283,24,295,-165,-129,409,219,136,-248,-273,-273
-317,-297,19,307,-168,-139,429,214,126,-268,-292,-287
-336,-307,29,322,-183,-139,444,209,112,-297,-312,-297
-351,-322,29,336,-190,-146,458,214,97,-322,-336,-302
-366,-331,34,348,-200,-148,463,214,82,-341,-356,-322
-366,-336,29,351,-197,-153,468,209,58,-366,-375,-326
-375,-341,34,358,-204,-153,468,209,43,-385,-390,-331
-385,-341,43,363,-214,-148,463,204,24,-409,-385,-331
-390,-341,48,366,-219,-146,453,190,14,-414,-395,-331
-390,-341,48,366,-219,-146,448,180,9,-429,-400,-326
-385,-317,68,351,-226,-124,439,175,4,-434,-400,-312
-380,-302,78,341,-229,-112,419,165,-4,-429,-390,-302
-370,-287,82,329,-226,-102,409,156,-9,-419,-375,-292
-356,-258,97,307,-226,-80,385,146,-9,-409,-361,-278
-336,-239,97,287,-217,-70,361,136,-4,-390,-336,-258
-317,-219,97,268,-207,-61,341,131,0,-361,-312,-234
-287,-185,102,236,-195,-41,317,126,9,-336,-283,-209
-268,-151,117,209,-192,-17,287,122,19,-292,-253,-180
-244,-122,122,183,-183,0,253,117,29,-258,-209,-156
-224,-92,131,158,-178,19,219,112,48,-219,-175,-131
-195,-63,131,129,-163,34,190,97,63,-175,-141,-107
-170,-39,131,104,-151,46,156,92,63,-146,-107,-82
-141,-9,131,75,-136,61,131,82,73,-112,-82,-63
-117,9,126,53,-122,68,102,73,82,-78,-58,-48
-92,24,117,34,-104,70,73,63,82,-53,-43,-34
-78,29,107,24,-92,68,58,48,78,-29,-24,-29
-63,34,97,14,-80,65,43,39,78,-24,-9,-19
-43,39,82,2,-63,61,29,34,73,-4,-4,-14
-39,39,78,0,-58,58,24,29,68,0,4,-9
-29,39,68,-4,-48,53,9,24,68,9,9,-4
-29,43,73,-7,-51,58,4,14,68,19,14,-4
-24,43,68,-9,-46,56,-4,4,68,19,19,-4
-19,43,63,-12,-41,53,-4,4,68,24,29,-4
-19,43,63,-12,-41,53,-9,0,58,19,29,-4
-19,39,58,-9,-39,48,-14,0,53,19,24,-4
-14,39,53,-12,-34,46,-14,-4,43,19,24,-4
-14,39,53,-12,-34,46,-14,-9,39,19,24,-4
-9,39,48,-14,-29,43,-14,-9,34,19,24,-4
-4,34,39,-14,-21,36,-14,-9,34,19,24,-4
-4,34,39,-14,-21,36,-14,-9,34,14,24,-4
-4,29,34,-12,-19,31,-14,-9,34,14,19,-4
-14,24,39,-4,-26,31,-9,-19,29,9,14,-9
-14,24,39,-4,-26,31,-9,-19,29,4,9,-9
-14,24,39,-4,-26,31,-9,-19,29,4,9,-14
-14,19,34,-2,-24,26,-9,-19,24,0,4,-19
-19,14,34,2,-26,24,-9,-19,19,0,4,-24
-19,9,29,4,-24,19,-4,-19,14,0,4,-24
-19,4,24,7,-21,14,4,-14,14,0,4,-24
-24,4,29,9,-26,17,9,-14,19,-4,0,-24
-34,0,34,17,-34,17,9,-14,19,-4,0,-29
-34,0,34,17,-34,17,9,-14,19,0,0,-29
-39,0,39,19,-39,19,14,-24,19,-4,0,-29
-39,0,39,19,-39,19,19,-34,24,-9,-4,-29
-43,-4,39,24,-41,17,19,-34,24,-4,-4,-29
-48,-4,43,26,-46,19,29,-34,24,-4,-4,-34
-58,-9,48,34,-53,19,29,-34,29,0,-4,-34
-63,-9,53,36,-58,21,39,-29,29,0,-4,-34
-82,-14,68,48,-75,26,39,-34,29,4,-4,-34
-87,-14,73,51,-80,29,39,-34,34,4,-4,-34
-92,-14,78,53,-85,31,48,-34,39,4,-4,-39
-92,-9,82,51,-87,36,48,-39,48,9,0,-39
-87,-9,78,48,-82,34,48,-29,53,14,0,-34
-87,-9,78,48,-82,34,53,-24,58,14,4,-29
-87,-14,73,51,-80,29,53,-24,63,14,4,-29
-87,-14,73,51,-80,29,53,-29,68,19,4,-29
-92,-9,82,51,-87,36,58,-24,73,29,9,-29
-97,-9,87,53,-92,39,58,-19,78,34,9,-29
-97,-9,87,53,-92,39,58,-19,82,39,9,-29
-97,-9,87,53,-92,39,58,-9,82,39,14,-29
-97,-9,87,53,-92,39,58,-4,87,39,14,-24
-92,-9,82,51,-87,36,53,0,92,43,19,-24
-92,-9,82,51,-87,36,53,0,97,48,19,-29
-87,-9,78,48,-82,34,53,0,97,48,19,-34
-87,-9,78,48,-82,34,48,9,97,48,24,-34
-87,-9,78,48,-82,34,48,14,97,53,29,-34
-82,-9,73,46,-78,31,43,14,97,53,29,-34
-82,-9,73,46,-78,31,39,14,97,48,24,-34
-87,-14,73,51,-80,29,39,14,97,48,24,-29
-87,-19,68,53,-78,24,39,14,87,48,29,-29
-87,-19,68,53,-78,24,39,4,87,48,29,-29
-82,-19,63,51,-73,21,34,4,82,48,29,-29
-73,-14,58,43,-65,21,29,9,82,43,24,-29
-58,-4,53,31,-56,24,29,14,87,43,24,-29
-58,-4,53,31,-56,24,29,9,82,43,24,-29
-53,-4,48,29,-51,21,29,9,82,43,24,-29
-53,-4,48,29,-51,21,19,4,78,39,24,-29
-53,-4,48,29,-51,21,19,4,73,39,24,-29
-53,-4,48,29,-51,21,19,4,68,39,24,-24
-53,0,53,26,-53,26,19,0,68,34,24,-19
-53,0,53,26,-53,26,19,0,68,34,24,-19
-48,0,48,24,-48,24,14,-4,68,34,24,-19
-48,0,48,24,-48,24,14,-4,58,34,19,-19
-48,4,53,21,-51,29,14,-9,58,34,19,-19
-48,4,53,21,-51,29,14,-14,53,34,24,-19
-48,4,53,21,-51,29,14,-14,53,34,24,-19
-48,0,48,24,-48,24,4,-9,48,29,19,-19
-48,-4,43,26,-46,19,0,-9,43,29,19,-19
-53,0,53,26,-53,26,0,-14,43,29,19,-19
-58,0,58,29,-58,29,-4,-19,43,29,19,-19
-58,0,58,29,-58,29,0,-24,39,29,19,-19
-58,0,58,29,-58,29,0,-29,39,29,19,-19
-58,0,58,29,-58,29,0,-24,39,29,19,-19
-58,0,58,29,-58,29,0,-19,39,29,19,-19
-58,4,63,26,-61,34,0,-19,43,34,19,-19
-48,9,58,19,-53,34,0,-19,43,34,24,-14
-43,14,58,14,-51,36,0,-19,48,39,29,-14
-34,24,58,4,-46,41,0,-14,58,48,29,-9
-29,39,68,-4,-48,53,-4,-14,63,53,43,0
-24,63,87,-19,-56,75,-4,-4,78,68,63,14
-24,68,92,-21,-58,80,0,-4,78,78,63,19
-29,68,97,-19,-63,82,9,0,87,78,63,19
-29,68,97,-19,-63,82,34,9,92,78,63,19
-19,73,92,-26,-56,82,34,14,92,78,63,19
-4,78,82,-36,-43,80,24,19,92,78,63,19
-4,82,87,-39,-46,85,-14,4,82,78,68,19
14,102,87,-58,-36,95,-63,-14,73,87,78,29
14,112,97,-63,-41,104,-87,-39,63,87,78,39
14,126,112,-70,-48,119,-102,-53,39,87,82,43
24,141,117,-82,-46,129,-122,-82,29,87,87,53
39,165,126,-102,-43,146,-131,-82,19,87,92,68
53,156,102,-104,-24,129,-122,-73,19,82,97,63
53,126,73,-90,-9,100,-117,-73,4,68,82,53
58,126,68,-92,-4,97,-112,-73,4,68,82,53
68,146,78,-107,-4,112,-112,-63,14,78,87,63
78,141,63,-109,7,102,-107,-58,24,82,87,68
78,131,53,-104,12,92,-92,-43,34,82,82,68
58,107,48,-82,4,78,-73,-24,43,82,82,58
29,78,48,-53,-9,63,-48,-24,43,73,68,43
4,43,39,-24,-17,41,-39,-34,29,63,48,24
-34,14,48,9,-41,31,-29,-39,24,48,34,4
-53,-4,48,29,-51,21,-14,-39,24,43,29,-4
-53,-9,43,31,-48,17,-14,-34,24,34,19,-14
-53,-14,39,34,-46,12,-14,-39,24,34,14,-19
-58,-14,43,36,-51,14,-9,-39,24,34,19,-19
-58,-19,39,39,-48,9,-9,-34,24,29,19,-19
-63,-19,43,41,-53,12,-9,-34,24,29,14,-24
-63,-19,43,41,-53,12,-4,-34,24,29,9,-24
-63,-19,43,41,-53,12,0,-34,24,29,14,-24
-63,-19,43,41,-53,12,0,-34,24,34,19,-24
-68,-19,48,43,-58,14,0,-34,24,34,19,-24
-73,-19,53,46,-63,17,0,-34,24,34,19,-24
-73,-19,53,46,-63,17,4,-29,29,34,19,-24
-73,-19,53,46,-63,17,4,-29,34,34,24,-24
-58,-19,39,39,-48,9,4,-29,34,39,24,-19
-63,-19,43,41,-53,12,4,-29,34,39,24,-14
-58,-14,43,36,-51,14,4,-34,29,39,24,-24
-78,-14,63,46,-70,24,19,-48,24,39,14,-24
-156,-29,126,92,-141,48,58,-78,24,9,4,-43
-204,-29,175,117,-190,73,92,-87,39,14,-4,-48
-209,-9,200,109,-204,95,97,-92,102,107,48,-34
-185,53,239,65,-212,146,78,-92,214,273,170,39
-136,200,336,-31,-236,268,9,-48,341,527,375,161
-34,385,419,-175,-226,402,-131,-34,448,819,619,317
117,678,561,-397,-222,619,-385,-82,595,1205,936,546
361,1068,707,-714,-173,888,-775,-131,702,1673,1356,858
727,1507,780,-1117,-26,1144,-1312,-141,722,2098,1751,1185
1151,1810,658,-1481,246,1234,-1805,-58,478,2059,1878,1390
1581,1815,234,-1698,673,1024,-2156,24,-122,1405,1532,1361
1903,1478,-424,-1690,1163,527,-2274,-82,-976,434,907,1078
2108,941,-1166,-1525,1637,-112,-2249,-356,-1781,-566,141,644
2083,307,-1776,-1195,1930,-734,-2161,-819,-2483,-1376,-551,175
1922,-195,-2117,-863,2020,-1156,-1995,-1268,-2825,-1795,-971,-136
1844,-385,-2230,-729,2037,-1307,-1800,-1405,-2737,-1834,-1078,-253
1688,-331,-2020,-678,1854,-1176,-1561,-1356,-2366,-1581,-932,-170
1356,-204,-1561,-575,1459,-883,-1337,-1302,-1942,-1268,-717,-82
878,9,-868,-444,873,-429,-1029,-1117,-1366,-844,-419,87
409,131,-278,-270,344,-73,-673,-790,-824,-468,-190,170
141,122,-19,-131,80,51,-405,-536,-492,-258,-92,112
0,53,53,-26,-26,53,-200,-312,-263,-146,-82,29
-63,-24,39,43,-51,7,-14,-131,-92,-87,-92,-53
-78,-43,34,61,-56,-4,53,-58,-19,-58,-92,-97
-78,-48,29,63,-53,-9,87,-24,14,-39,-82,-102
-92,-48,43,70,-68,-2,117,0,34,-19,-68,-107
-102,-48,53,75,-78,2,122,24,58,-19,-68,-112
-107,-58,48,82,-78,-4,126,34,78,-14,-73,-117
-122,-63,58,92,-90,-2,141,48,92,0,-63,-112
-122,-68,53,95,-87,-7,151,63,112,9,-53,-107
-122,-73,48,97,-85,-12,156,68,122,14,-53,-102
-126,-78,48,102,-87,-14,165,73,126,14,-48,-97
-126,-82,43,104,-85,-19,180,82,136,19,-48,-97
-131,-92,39,112,-85,-26,195,87,146,29,-48,-107
-131,-92,39,112,-85,-26,195,97,151,29,-43,-97
-131,-87,43,109,-87,-21,195,107,156,29,-39,-97
-136,-92,43,114,-90,-24,195,112,161,29,-39,-102
-141,-102,39,122,-90,-31,195,112,161,29,-39,-102
-141,-102,39,122,-90,-31,200,117,161,29,-39,-102
-141,-102,39,122,-90,-31,200,122,165,29,-39,-102
-146,-107,39,126,-92,-34,200,122,170,29,-43,-102
-151,-107,43,129,-97,-31,209,122,180,29,-43,-97
-151,-107,43,129,-97,-31,214,126,180,24,-43,-97
-151,-107,43,129,-97,-31,219,126,180,24,-43,-97
-151,-112,39,131,-95,-36,219,131,180,19,-43,-97
-151,-112,39,131,-95,-36,224,141,180,14,-53,-102
-151,-112,39,131,-95,-36,224,141,185,14,-58,-102
-161,-117,43,139,-102,-36,229,141,185,9,-58,-102
-165,-126,39,146,-102,-43,229,146,185,9,-58,-107
-165,-131,34,148,-100,-48,234,146,190,4,-58,-107
-165,-131,34,148,-100,-48,239,151,190,0,-68,-117
-170,-136,34,153,-102,-51,234,165,185,0,-73,-122
-170,-131,39,151,-104,-46,234,165,190,-4,-73,-117
-170,-136,34,153,-102,-51,244,165,195,-4,-73,-117
-180,-151,29,165,-104,-61,253,165,195,-9,-78,-122
-180,-151,29,165,-104,-61,263,165,190,-14,-82,-126
-180,-151,29,165,-104,-61,268,170,190,-19,-87,-131
-190,-151,39,170,-114,-56,273,180,190,-24,-92,-131
-195,-156,39,175,-117,-58,278,185,190,-34,-97,-136
-200,-165,34,183,-117,-65,283,190,185,-43,-112,-141
-209,-185,24,197,-117,-80,297,195,180,-53,-122,-151
-229,-200,29,214,-129,-85,307,200,175,-68,-136,-161
-234,-204,29,219,-131,-87,322,209,165,-82,-136,-170
-244,-224,19,234,-131,-102,331,219,165,-92,-151,-180
-258,-229,29,244,-143,-100,341,219,165,-112,-165,-190
-273,-244,29,258,-151,-107,351,224,156,-131,-180,-204
-287,-258,29,273,-158,-114,361,234,151,-151,-195,-214
-302,-268,34,285,-168,-117,370,239,141,-170,-214,-229
-317,-283,34,300,-175,-124,380,239,126,-190,-234,-244
-322,-297,24,309,-173,-136,395,239,117,-209,-253,-258
-336,-307,29,322,-183,-139,409,239,102,-239,-283,-268
-351,-322,29,336,-190,-146,424,244,87,-263,-312,-273
-366,-331,34,348,-200,-148,429,244,73,-278,-317,-292
-366,-336,29,351,-197,-153,439,234,48,-297,-326,-297
-375,-341,34,358,-204,-153,439,229,34,-317,-341,-302
-385,-341,43,363,-214,-148,439,224,14,-341,-341,-302
-395,-341,53,368,-224,-143,434,209,4,-346,-356,-302
-400,-341,58,370,-229,-141,429,200,-9,-361,-361,-302
-400,-317,82,358,-241,-117,424,195,-24,-366,-366,-297
-400,-307,92,353,-246,-107,409,185,-34,-366,-366,-292
-390,-297,92,344,-241,-102,400,175,-39,-361,-361,-283
-375,-268,107,322,-241,-80,380,165,-43,-351,-351,-268
-356,-248,107,302,-231,-70,356,151,-43,-331,-326,-248
-341,-229,112,285,-226,-58,331,141,-39,-307,-302,-224
-312,-190,122,251,-217,-34,302,136,-34,-287,-268,-200
-287,-151,136,219,-212,-7,273,131,-24,-248,-239,-170
-263,-122,141,192,-202,9,244,126,-9,-224,-200,-146
-244,-92,151,168,-197,29,214,122,9,-190,-165,-122
-214,-63,151,139,-183,43,185,107,24,-146,-131,-97
-195,-39,156,117,-175,58,151,102,29,-117,-97,-73
-161,-9,151,85,-156,70,131,97,43,-82,-73,-53
-131,4,136,63,-134,70,107,87,53,-53,-48,-39
-107,14,122,46,-114,68,78,78,58,-34,-39,-24
-87,19,107,34,-97,63,63,68,58,-9,-24,-19
-73,19,92,26,-82,56,48,58,58,-4,-9,-9
-53,24,78,14,-65,51,29,53,58,14,-4,-4
-48,29,78,9,-63,53,24,43,53,19,4,0
-39,29,68,4,-53,48,9,34,48,29,9,4
-39,39,78,0,-58,58,4,24,48,39,14,9
-34,43,78,-4,-56,61,-4,14,48,39,19,14
-24,43,68,-9,-46,56,-9,19,48,43,29,14
-19,43,63,-12,-41,53,-19,14,39,43,29,14
-19,39,58,-9,-39,48,-24,9,34,43,24,14
-14,39,53,-12,-34,46,-24,4,29,39,24,14
-14,34,48,-9,-31,41,-24,-4,29,39,24,14
-14,29,43,-7,-29,36,-24,-9,24,39,24,14
-14,24,39,-4,-26,31,-24,-9,24,39,24,14
-14,24,39,-4,-26,31,-24,-9,24,34,24,14
-4,19,24,-7,-14,21,-24,-4,24,34,14,9
-4,14,19,-4,-12,17,-19,-9,19,34,9,0
-4,14,19,-4,-12,17,-19,-9,19,34,9,0
-4,14,19,-4,-12,17,-19,-9,19,34,9,0
-14,4,19,4,-17,12,-19,-14,14,29,4,0
-29,0,29,14,-29,14,-19,-19,14,29,4,-4
-29,0,29,14,-29,14,-14,-24,9,24,4,-4
-29,-4,24,17,-26,9,-4,-24,4,19,4,-4
-29,4,34,12,-31,19,0,-24,9,14,0,-4
-34,9,43,12,-39,26,0,-24,9,14,0,-9
-34,9,43,12,-39,26,0,-24,9,24,0,-9
-39,9,48,14,-43,29,4,-24,14,29,4,-9
-39,9,48,14,-43,29,9,-24,24,29,4,-9
-43,4,48,19,-46,26,9,-24,29,34,4,-9
-53,-4,48,29,-51,21,19,-24,34,29,4,-14
-63,-19,43,41,-53,12,19,-24,39,34,4,-14
-63,-19,43,41,-53,12,29,-19,34,39,4,-14
-78,-24,53,51,-65,14,29,-19,34,43,4,-14
-78,-14,63,46,-70,24,29,-14,43,43,9,-14
-82,-4,78,43,-80,36,39,-9,48,43,14,-19
-82,-9,73,46,-78,31,39,-9,58,48,19,-19
-82,-19,63,51,-73,21,39,0,63,53,19,-19
-87,-19,68,53,-78,24,48,4,68,53,19,-19
-87,-24,63,56,-75,19,53,9,73,53,14,-19
-87,-24,63,56,-75,19,53,9,82,58,14,-19
-87,-19,68,53,-78,24,58,14,92,63,19,-19
-87,-14,73,51,-80,29,58,19,97,68,19,-19
-87,-9,78,48,-82,34,58,19,102,78,19,-19
-87,-9,78,48,-82,34,58,29,102,78,24,-19
-87,-9,78,48,-82,34,58,29,102,78,24,-14
-82,-9,73,46,-78,31,48,29,102,82,34,-14
-82,-9,73,46,-78,31,43,29,107,87,39,-14
-78,-9,68,43,-73,29,43,29,107,87,39,-14
-78,-9,68,43,-73,29,39,34,107,82,39,-14
-78,-9,68,43,-73,29,43,34,107,82,34,-14
-73,-9,63,41,-68,26,43,34,102,82,29,-14
-73,-9,63,41,-68,26,39,34,97,78,24,-14
-73,-9,63,41,-68,26,39,34,97,78,24,-9
-68,-9,58,39,-63,24,34,34,87,78,29,-9
-68,-9,58,39,-63,24,29,24,87,78,29,-9
-63,-9,53,36,-58,21,24,24,82,78,29,-9
-63,-9,53,36,-58,21,19,24,78,73,24,-9
-58,-4,53,31,-56,24,19,24,78,73,24,-9
-58,-4,53,31,-56,24,19,19,73,73,24,-9
-53,-4,48,29,-51,21,19,19,73,73,24,-9
-53,-4,48,29,-51,21,9,14,68,68,24,-9
-53,-4,48,29,-51,21,9,14,63,68,24,-9
-53,-4,48,29,-51,21,9,14,58,68,24,-9
-53,0,53,26,-53,26,9,9,58,63,24,-9
-53,0,53,26,-53,26,9,9,58,63,24,-9
-48,0,48,24,-48,24,4,4,58,63,29,-9
-48,-4,43,26,-46,19,4,0,48,63,29,-9
-48,-4,43,26,-46,19,0,-4,48,58,29,-9
-48,-9,39,29,-43,14,0,-9,48,58,29,-9
-43,-9,34,26,-39,12,0,-9,48,58,24,-14
-39,-9,29,24,-34,9,0,-9,48,58,19,-19
-39,-4,34,21,-36,14,0,-9,48,58,19,-19
-34,0,34,17,-34,17,0,-9,48,58,24,-14
-34,4,39,14,-36,21,0,-9,48,58,29,-14
-34,14,48,9,-41,31,0,-4,58,68,29,-9
-29,24,53,2,-41,39,0,-4,63,73,39,0
-24,43,68,-9,-46,56,4,4,78,87,53,14
-24,48,73,-12,-48,61,9,9,78,97,58,14
-29,48,78,-9,-53,63,19,19,87,97,63,9
-29,48,78,-9,-53,63,43,29,92,97,63,9
-19,53,73,-17,-46,63,43,34,92,97,63,9
-4,58,63,-26,-34,61,43,34,92,97,63,19
-4,63,68,-29,-36,65,14,14,82,97,68,29
19,97,78,-58,-29,87,-53,-4,73,112,82,43
24,122,97,-73,-36,109,-97,-29,63,117,87,58
24,136,112,-80,-43,124,-107,-39,43,117,92,63
34,151,117,-92,-41,134,-122,-63,39,117,97,73
53,175,122,-114,-34,148,-131,-68,29,117,97,82
73,165,92,-119,-9,129,-122,-63,29,112,97,73
73,136,63,-104,4,100,-117,-63,9,92,78,63
78,136,58,-107,9,97,-112,-63,4,87,73,63
78,146,68,-112,4,107,-97,-53,9,92,78,68
78,131,53,-104,12,92,-78,-48,14,92,78,68
73,122,48,-97,12,85,-73,-39,24,92,78,68
48,97,48,-73,0,73,-63,-24,34,92,82,58
19,73,53,-46,-17,63,-43,-24,34,82,68,43
-4,43,48,-19,-26,46,-39,-34,19,73,48,24
-34,19,53,7,-43,36,-24,-39,19,58,34,4
-43,4,48,19,-46,26,-4,-39,24,53,29,-4
-43,-4,39,24,-41,17,-4,-29,24,43,24,-9
-43,-14,29,29,-36,7,-4,-29,24,43,24,-9
-48,-14,34,31,-41,9,-4,-29,24,48,29,-9
-48,-19,29,34,-39,4,-9,-24,24,48,29,-9
-43,-9,34,26,-39,12,-9,-24,24,48,24,-14
-34,0,34,17,-34,17,-4,-24,24,48,19,-14
-43,-9,34,26,-39,12,4,-24,24,43,19,-14
-53,-19,34,36,-43,7,9,-24,24,43,19,-14
-53,-24,29,39,-41,2,9,-24,24,43,19,-19
-53,-29,24,41,-39,-2,9,-24,24,43,19,-24
-53,-29,24,41,-39,-2,9,-19,24,43,19,-24
-53,-29,24,41,-39,-2,4,-19,24,43,24,-24
-43,-24,19,34,-31,-2,4,-19,24,48,24,-19
-53,-19,34,36,-43,7,4,-19,24,48,24,-14
-48,-4,43,26,-46,19,9,-19,24,48,24,-24
-68,4,73,31,-70,39,29,-29,24,48,14,-24
-146,-39,107,92,-126,34,73,-48,34,24,4,-53
-195,-68,126,131,-161,29,112,-48,58,34,-4,-68
-204,-48,156,126,-180,53,131,-43,126,122,48,-48
-185,14,200,85,-192,107,126,-34,244,283,170,29
-141,131,273,4,-207,202,102,24,380,502,351,136
-43,287,331,-122,-187,309,4,53,497,761,570,278
102,551,448,-326,-173,500,-180,0,649,1107,858,483
341,912,570,-627,-114,741,-502,-53,761,1537,1249,771
727,1361,634,-1044,46,997,-1049,-161,727,1917,1615,1098
1171,1673,502,-1422,334,1088,-1551,-175,429,1834,1712,1302
1576,1751,175,-1664,700,963,-1971,-234,-229,1210,1395,1312
1873,1488,-385,-1681,1129,551,-2156,-483,-1141,268,800,1068
2025,1000,-1024,-1512,1525,-12,-2156,-756,-1869,-644,97,688
1947,414,-1532,-1180,1739,-558,-2093,-1220,-2493,-1366,-531,273
1732,-92,-1825,-819,1778,-958,-1937,-1620,-2810,-1742,-912,-34
1600,-287,-1888,-656,1744,-1088,-1751,-1708,-2698,-1737,-980,-146
1434,-234,-1668,-600,1551,-951,-1459,-1527,-2278,-1459,-824,-53
1093,-107,-1200,-492,1146,-653,-1180,-1342,-1805,-1122,-600,43
673,92,-580,-383,627,-244,-897,-1093,-1239,-707,-312,175
263,200,-63,-231,163,68,-566,-702,-707,-341,-92,219
58,151,92,-104,-17,122,-312,-448,-400,-161,-14,151
