I,II,III,aVR,aVL,aVF,V1,V2,V3,V4,V5,V6,
-58,-68,-9,63,-24,-39,-9,-78,-78,-87,-107,-87
-58,-63,-4,61,-26,-34,-9,-78,-78,-87,-107,-87
-58,-58,0,58,-29,-29,-9,-78,-78,-87,-107,-87
-58,-58,0,58,-29,-29,-9,-78,-78,-87,-102,-87
-58,-58,0,58,-29,-29,-9,-78,-78,-87,-97,-87
-53,-63,-9,58,-21,-36,-9,-73,-78,-87,-97,-82
-48,-68,-19,58,-14,-43,-9,-68,-78,-87,-97,-78
-48,-68,-19,58,-14,-43,-9,-68,-78,-87,-97,-78
-48,-68,-19,58,-14,-43,-9,-68,-78,-87,-97,-78
-48,-68,-19,58,-14,-43,-9,-73,-78,-87,-97,-78
-48,-68,-19,58,-14,-43,-9,-78,-78,-87,-97,-78
-48,-63,-14,56,-17,-39,-9,-78,-78,-87,-97,-82
-48,-58,-9,53,-19,-34,-9,-78,-78,-87,-97,-87
-48,-58,-9,53,-19,-34,-9,-78,-78,-87,-97,-87
-48,-58,-9,53,-19,-34,-9,-78,-78,-87,-97,-87
-48,-58,-9,53,-19,-34,-9,-78,-78,-87,-97,-87
-48,-58,-9,53,-19,-34,-9,-78,-78,-87,-97,-87
-48,-58,-9,53,-19,-34,-9,-82,-78,-87,-97,-87
-48,-58,-9,53,-19,-34,-9,-87,-78,-87,-97,-87
-48,-58,-9,53,-19,-34,-9,-87,-82,-92,-97,-87
-48,-58,-9,53,-19,-34,-9,-87,-87,-97,-97,-87
-53,-58,-4,56,-24,-31,-9,-87,-87,-97,-97,-87
-58,-58,0,58,-29,-29,-9,-87,-87,-97,-97,-87
-58,-63,-4,61,-26,-34,-14,-92,-87,-97,-102,-87
-58,-68,-9,63,-24,-39,-19,-97,-87,-97,-107,-87
-58,-68,-9,63,-24,-39,-19,-102,-92,-102,-107,-87
-58,-68,-9,63,-24,-39,-19,-107,-97,-107,-107,-87
-53,-68,-14,61,-19,-41,-14,-107,-97,-107,-107,-92
-48,-68,-19,58,-14,-43,-9,-107,-97,-107,-107,-97
-48,-68,-19,58,-14,-43,-9,-107,-97,-107,-107,-97
-48,-68,-19,58,-14,-43,-9,-107,-97,-107,-107,-97
-48,-68,-19,58,-14,-43,-9,-107,-102,-107,-112,-102
-48,-68,-19,58,-14,-43,-9,-107,-107,-107,-117,-107
-48,-63,-14,56,-17,-39,-9,-107,-107,-112,-117,-107
-48,-58,-9,53,-19,-34,-9,-107,-107,-117,-117,-107
-53,-58,-4,56,-24,-31,-9,-107,-107,-117,-117,-107
-58,-58,0,58,-29,-29,-9,-107,-107,-117,-117,-107
-58,-63,-4,61,-26,-34,-14,-112,-107,-117,-122,-112
-58,-68,-9,63,-24,-39,-19,-117,-107,-117,-126,-117
-58,-68,-9,63,-24,-39,-19,-117,-107,-117,-126,-117
-58,-68,-9,63,-24,-39,-19,-117,-107,-117,-126,-117
-58,-68,-9,63,-24,-39,-14,-117,-112,-117,-126,-112
-58,-68,-9,63,-24,-39,-9,-117,-117,-117,-122,-107
-58,-68,-9,63,-24,-39,-9,-117,-122,-117,-122,-107
-58,-68,-9,63,-24,-39,-9,-117,-122,-117,-122,-107
-58,-73,-14,65,-21,-43,-14,-117,-117,-122,-122,-107
-58,-73,-14,65,-21,-43,-19,-117,-117,-126,-122,-107
-58,-58,0,58,-29,-29,-9,-107,-112,-122,-122,-107
-53,-43,9,48,-31,-17,0,-97,-102,-107,-117,-97
-53,-24,29,39,-41,2,4,-87,-92,-97,-107,-92
-48,-9,39,29,-43,14,14,-78,-82,-87,-97,-92
-43,-9,34,26,-39,12,14,-73,-78,-82,-97,-92
-43,-9,34,26,-39,12,14,-73,-73,-82,-92,-87
-29,-9,19,19,-24,4,4,-73,-73,-82,-92,-87
-19,-4,14,12,-17,4,4,-78,-68,-82,-92,-87
-19,-4,14,12,-17,4,0,-78,-68,-78,-82,-78
-14,0,14,7,-14,7,-4,-78,-58,-68,-73,-58
0,34,34,-17,-17,34,-4,-78,-48,-53,-58,-48
9,43,34,-26,-12,39,-14,-78,-48,-48,-53,-43
19,48,29,-34,-4,39,-24,-87,-58,-48,-53,-43
19,39,19,-29,0,29,-29,-92,-68,-63,-63,-53
24,29,4,-26,9,17,-29,-87,-73,-63,-68,-53
24,29,4,-26,9,17,-29,-82,-73,-63,-68,-53
19,34,14,-26,2,24,-29,-82,-68,-58,-63,-48
9,19,9,-14,0,14,-29,-82,-63,-58,-58,-53
-4,-4,0,4,-2,-2,-34,-107,-92,-82,-82,-78
-9,-34,-24,21,7,-29,-43,-136,-122,-112,-107,-92
-19,-63,-43,41,12,-53,-48,-146,-136,-131,-131,-112
-29,-78,-48,53,9,-63,-48,-151,-146,-151,-151,-131
-43,-82,-39,63,-2,-61,-39,-151,-146,-151,-151,-131
-53,-87,-34,70,-9,-61,-34,-146,-141,-151,-151,-131
-68,-97,-29,82,-19,-63,-34,-146,-141,-151,-151,-141
-73,-107,-34,90,-19,-70,-34,-146,-141,-151,-156,-141
-73,-107,-34,90,-19,-70,-34,-151,-146,-156,-165,-151
-73,-112,-39,92,-17,-75,-39,-156,-151,-165,-165,-151
-73,-117,-43,95,-14,-80,-39,-156,-156,-170,-165,-151
-73,-117,-43,95,-14,-80,-39,-156,-161,-170,-165,-151
-73,-117,-43,95,-14,-80,-39,-151,-161,-165,-165,-151
-78,-117,-39,97,-19,-78,-34,-151,-161,-165,-165,-151
-78,-122,-43,100,-17,-82,-34,-151,-156,-170,-165,-161
-78,-122,-43,100,-17,-82,-34,-146,-151,-170,-165,-170
-78,-122,-43,100,-17,-82,-34,-146,-151,-165,-165,-170
-82,-122,-39,102,-21,-80,-34,-146,-151,-165,-165,-175
-82,-131,-48,107,-17,-90,-29,-151,-156,-165,-165,-161
-87,-136,-48,112,-19,-92,-24,-146,-156,-165,-170,-151
-87,-161,-73,124,-7,-117,-19,-131,-151,-175,-180,-170
-87,-175,-87,131,0,-131,0,-82,-122,-151,-165,-165
-92,-141,-48,117,-21,-95,29,-9,-39,-78,-112,-146
-68,-97,-29,82,-19,-63,34,48,39,-4,-34,-107
-39,-73,-34,56,-2,-53,73,170,131,82,43,-34
29,14,-14,-21,21,0,131,366,302,248,214,107
136,229,92,-183,21,161,195,605,590,561,536,380
292,502,209,-397,41,356,185,785,912,946,961,746
414,780,366,-597,24,573,170,971,1283,1420,1483,1200
478,922,444,-700,17,683,78,932,1415,1644,1761,1459
463,927,463,-695,0,695,-19,771,1356,1668,1820,1503
356,839,483,-597,-63,661,-102,370,946,1239,1366,1190
102,683,580,-392,-239,631,-239,-395,204,497,605,692
-73,517,590,-222,-331,553,-370,-985,-390,-43,97,346
-112,390,502,-139,-307,446,-395,-1044,-551,-214,-87,161
-112,317,429,-102,-270,373,-361,-893,-507,-219,-136,58
-92,234,326,-70,-209,280,-278,-629,-390,-190,-122,19
-68,161,229,-46,-148,195,-209,-458,-317,-185,-131,-4
-58,78,136,-9,-97,107,-151,-346,-278,-185,-141,-63
-58,24,82,17,-70,53,-107,-253,-239,-165,-141,-92
-63,0,63,31,-63,31,-78,-209,-195,-146,-126,-92
-63,-24,39,43,-51,7,-43,-156,-165,-131,-117,-92
-68,-68,0,68,-34,-34,-14,-107,-136,-122,-117,-102
-68,-87,-19,78,-24,-53,-4,-82,-131,-122,-122,-117
-68,-87,-19,78,-24,-53,-4,-82,-131,-126,-126,-117
-63,-87,-24,75,-19,-56,-4,-78,-131,-126,-126,-117
-63,-92,-29,78,-17,-61,0,-68,-126,-126,-131,-117
-63,-97,-34,80,-14,-65,0,-58,-122,-122,-131,-117
-63,-97,-34,80,-14,-65,0,-48,-117,-117,-126,-117
-63,-97,-34,80,-14,-65,4,-48,-117,-117,-126,-117
-58,-97,-39,78,-9,-68,4,-43,-112,-117,-126,-117
-53,-97,-43,75,-4,-70,4,-34,-97,-112,-126,-117
-53,-97,-43,75,-4,-70,4,-29,-92,-107,-122,-117
-48,-92,-43,70,-2,-68,4,-24,-92,-107,-117,-112
-48,-92,-43,70,-2,-68,4,-14,-82,-97,-107,-97
-39,-92,-53,65,7,-73,9,-9,-73,-97,-107,-92
-39,-97,-58,68,9,-78,9,0,-73,-92,-97,-92
-39,-97,-58,68,9,-78,9,4,-68,-87,-87,-87
-29,-92,-63,61,17,-78,9,14,-58,-78,-82,-87
-29,-92,-63,61,17,-78,9,19,-53,-78,-78,-87
-29,-87,-58,58,14,-73,14,29,-43,-68,-78,-78
-14,-82,-68,48,26,-75,14,43,-39,-58,-73,-73
-14,-73,-58,43,21,-65,19,48,-24,-48,-63,-68
-4,-68,-63,36,29,-65,19,53,-14,-43,-53,-58
0,-68,-68,34,34,-68,19,73,-4,-34,-43,-43
9,-58,-68,24,39,-63,19,82,4,-24,-29,-34
19,-48,-68,14,43,-58,24,102,14,-14,-19,-24
24,-43,-68,9,46,-56,24,122,29,0,-9,-19
34,-39,-73,2,53,-56,24,136,48,9,4,-4
48,-29,-78,-9,63,-53,24,156,63,14,14,4
53,-19,-73,-17,63,-46,29,180,78,39,24,14
68,-9,-78,-29,73,-43,29,200,92,43,43,19
78,4,-73,-41,75,-34,29,224,102,63,68,43
92,14,-78,-53,85,-31,34,248,126,87,82,58
102,34,-68,-68,85,-17,34,273,146,107,102,68
117,48,-68,-82,92,-9,34,297,165,126,117,87
126,63,-63,-95,95,0,39,322,195,146,141,107
141,73,-68,-107,104,2,39,341,219,170,161,126
161,82,-78,-122,119,2,39,361,239,190,180,146
170,92,-78,-131,124,7,39,366,248,200,195,161
180,102,-78,-141,129,12,39,385,263,214,214,170
190,107,-82,-148,136,12,39,400,273,224,229,185
204,117,-87,-161,146,14,39,409,283,234,244,195
214,122,-92,-168,153,14,34,414,287,239,253,204
214,126,-87,-170,151,19,29,419,292,248,263,214
219,126,-92,-173,156,17,29,424,292,258,263,224
219,136,-82,-178,151,26,24,419,292,258,263,219
219,141,-78,-180,148,31,19,414,292,258,268,219
219,141,-78,-180,148,31,14,395,283,263,268,219
214,141,-73,-178,143,34,14,375,273,263,263,214
204,146,-58,-175,131,43,19,346,258,253,253,209
195,146,-48,-170,122,48,19,317,244,239,234,200
175,131,-43,-153,109,43,14,287,229,219,219,185
156,122,-34,-139,95,43,9,253,209,200,200,165
136,112,-24,-124,80,43,9,224,180,175,175,146
117,97,-19,-107,68,39,9,185,156,141,146,122
97,82,-14,-90,56,34,9,151,131,122,117,92
73,58,-14,-65,43,21,9,117,112,92,102,78
48,34,-14,-41,31,9,9,87,78,68,73,48
39,9,-29,-24,34,-9,4,58,48,48,43,29
19,0,-19,-9,19,-9,0,34,34,29,29,9
4,-4,-9,0,7,-7,-4,19,14,14,9,-9
-4,-14,-9,9,2,-12,-4,0,-4,-4,-14,-24
-14,-24,-9,19,-2,-17,-4,-9,-19,-19,-34,-39
-19,-29,-9,24,-4,-19,0,-24,-34,-29,-43,-48
-24,-39,-14,31,-4,-26,0,-34,-39,-39,-53,-53
-29,-43,-14,36,-7,-29,0,-43,-48,-53,-63,-63
-39,-43,-4,41,-17,-24,0,-53,-53,-63,-73,-73
-39,-53,-14,46,-12,-34,0,-58,-58,-73,-73,-87
-39,-63,-24,51,-7,-43,0,-63,-58,-73,-78,-87
-39,-63,-24,51,-7,-43,0,-63,-73,-73,-78,-87
-43,-68,-24,56,-9,-46,0,-68,-78,-78,-78,-87
-53,-68,-14,61,-19,-41,-4,-68,-78,-87,-87,-92
-58,-68,-9,63,-24,-39,-9,-73,-82,-92,-92,-97
-58,-73,-14,65,-21,-43,-9,-73,-82,-92,-97,-97
-58,-73,-14,65,-21,-43,-14,-73,-82,-92,-97,-97
-53,-73,-19,63,-17,-46,-9,-73,-82,-87,-92,-92
-48,-68,-19,58,-14,-43,-4,-73,-82,-82,-82,-87
-48,-68,-19,58,-14,-43,-4,-73,-82,-82,-82,-87
-48,-68,-19,58,-14,-43,-4,-68,-82,-82,-82,-87
-48,-73,-24,61,-12,-48,-4,-68,-82,-82,-82,-87
-48,-73,-24,61,-12,-48,-4,-68,-82,-82,-82,-87
-43,-73,-29,58,-7,-51,-4,-68,-82,-82,-82,-87
-43,-78,-34,61,-4,-56,-4,-68,-82,-82,-82,-87
-43,-78,-34,61,-4,-56,-4,-73,-78,-82,-82,-82
-43,-78,-34,61,-4,-56,-4,-78,-78,-82,-82,-78
-43,-78,-34,61,-4,-56,-9,-78,-87,-87,-82,-78
-43,-78,-34,61,-4,-56,-14,-78,-92,-92,-82,-78
-43,-78,-34,61,-4,-56,-14,-78,-92,-92,-82,-78
-43,-78,-34,61,-4,-56,-14,-78,-92,-92,-82,-78
-43,-78,-34,61,-4,-56,-14,-82,-87,-97,-82,-78
-43,-78,-34,61,-4,-56,-14,-82,-82,-97,-82,-78
-43,-82,-39,63,-2,-61,-14,-82,-82,-92,-82,-78
-43,-82,-39,63,-2,-61,-14,-87,-87,-87,-87,-82
-43,-82,-39,63,-2,-61,-14,-87,-87,-87,-87,-82
-43,-82,-39,63,-2,-61,-14,-87,-87,-87,-92,-82
-43,-82,-39,63,-2,-61,-14,-87,-87,-92,-92,-82
-48,-82,-34,65,-7,-58,-14,-92,-92,-92,-92,-87
-48,-87,-39,68,-4,-63,-14,-92,-92,-97,-92,-87
-48,-87,-39,68,-4,-63,-19,-97,-97,-107,-97,-87
-53,-87,-34,70,-9,-61,-19,-97,-97,-107,-97,-87
-58,-87,-29,73,-14,-58,-14,-97,-97,-107,-97,-92
-58,-87,-29,73,-14,-58,-14,-97,-102,-107,-102,-92
-58,-87,-29,73,-14,-58,-14,-97,-102,-107,-102,-92
-58,-87,-29,73,-14,-58,-14,-102,-107,-117,-102,-97
-53,-92,-39,73,-7,-65,-19,-102,-107,-117,-102,-97
-53,-92,-39,73,-7,-65,-19,-107,-107,-112,-107,-102
-58,-92,-34,75,-12,-63,-19,-107,-107,-107,-107,-102
-63,-92,-29,78,-17,-61,-19,-112,-107,-112,-112,-102
-68,-92,-24,80,-21,-58,-14,-112,-112,-112,-112,-102
-68,-92,-24,80,-21,-58,-14,-112,-112,-117,-122,-102
-68,-87,-19,78,-24,-53,-19,-117,-117,-126,-126,-107
-68,-87,-19,78,-24,-53,-14,-117,-117,-126,-126,-112
-68,-87,-19,78,-24,-53,-9,-117,-117,-126,-126,-117
-63,-87,-24,75,-19,-56,-9,-117,-117,-126,-126,-117
-58,-87,-29,73,-14,-58,-9,-117,-117,-126,-126,-117
-58,-87,-29,73,-14,-58,-14,-117,-117,-126,-126,-117
-58,-87,-29,73,-14,-58,-14,-117,-122,-126,-122,-112
-58,-92,-34,75,-12,-63,-19,-117,-126,-126,-122,-112
-58,-97,-39,78,-9,-68,-19,-117,-131,-126,-122,-107
-63,-97,-34,80,-14,-65,-19,-117,-126,-126,-122,-107
-68,-92,-24,80,-21,-58,-19,-117,-126,-126,-122,-107
-68,-78,-9,73,-29,-43,-9,-112,-117,-122,-117,-107
-63,-63,0,63,-31,-31,0,-107,-102,-107,-107,-97
-58,-43,14,51,-36,-14,4,-97,-87,-97,-97,-87
-48,-29,19,39,-34,-4,14,-87,-73,-87,-87,-82
-43,-24,19,34,-31,-2,14,-78,-73,-82,-92,-82
-43,-19,24,31,-34,2,14,-73,-73,-82,-92,-78
-34,-19,14,26,-24,-2,4,-73,-78,-82,-92,-78
-29,-14,14,21,-21,0,4,-78,-78,-82,-92,-78
-29,-4,24,17,-26,9,0,-82,-82,-78,-82,-73
-24,9,34,7,-29,21,-4,-87,-78,-68,-73,-58
-9,39,48,-14,-29,43,-4,-87,-68,-58,-63,-48
0,43,43,-21,-21,43,-14,-87,-68,-58,-63,-43
9,43,34,-26,-12,39,-24,-92,-78,-58,-58,-43
9,29,19,-19,-4,24,-29,-92,-87,-73,-63,-53
9,19,9,-14,0,14,-29,-92,-92,-73,-68,-53
4,19,14,-12,-4,17,-29,-92,-92,-73,-68,-53
0,24,24,-12,-12,24,-29,-92,-87,-73,-68,-53
-9,9,19,0,-14,14,-29,-92,-82,-78,-68,-63
-24,-14,9,19,-17,-2,-34,-112,-112,-102,-92,-87
-29,-43,-14,36,-7,-29,-43,-136,-141,-131,-117,-102
-34,-78,-43,56,4,-61,-53,-146,-156,-146,-136,-117
-39,-97,-58,68,9,-78,-58,-151,-165,-161,-151,-131
-53,-97,-43,75,-4,-70,-48,-151,-165,-161,-151,-131
-63,-97,-34,80,-14,-65,-43,-146,-161,-161,-151,-131
-73,-112,-39,92,-17,-75,-43,-146,-161,-161,-156,-141
-73,-126,-53,100,-9,-90,-43,-146,-161,-161,-165,-141
-73,-126,-53,100,-9,-90,-43,-156,-175,-165,-175,-151
-73,-131,-58,102,-7,-95,-48,-165,-190,-175,-175,-151
-73,-131,-58,102,-7,-95,-48,-165,-180,-175,-175,-151
-73,-126,-53,100,-9,-90,-48,-165,-170,-170,-175,-151
-78,-126,-48,102,-14,-87,-43,-161,-170,-165,-175,-151
-87,-126,-39,107,-24,-82,-34,-161,-170,-165,-175,-151
-87,-131,-43,109,-21,-87,-34,-161,-170,-175,-175,-151
-87,-131,-43,109,-21,-87,-34,-156,-170,-180,-175,-151
-87,-131,-43,109,-21,-87,-39,-156,-170,-175,-175,-151
-92,-131,-39,112,-26,-85,-43,-156,-170,-175,-175,-156
-92,-141,-48,117,-21,-95,-39,-156,-175,-175,-175,-156
-97,-146,-48,122,-24,-97,-34,-146,-175,-175,-180,-161
-97,-161,-63,129,-17,-112,-24,-126,-161,-185,-185,-175
-97,-165,-68,131,-14,-117,0,-73,-122,-161,-165,-165
-92,-131,-39,112,-26,-85,39,14,-24,-68,-102,-126
-58,-87,-29,73,-14,-58,53,87,68,24,-14,-68
-29,-34,-4,31,-12,-19,92,219,185,141,97,29
39,82,43,-61,-2,63,151,424,380,336,302,195
136,307,170,-222,-17,239,209,644,683,678,649,492
283,590,307,-436,-12,448,195,805,1019,1093,1098,883
375,839,463,-607,-43,651,161,927,1327,1512,1571,1283
409,951,541,-680,-65,746,48,824,1395,1683,1800,1488
366,912,546,-639,-90,729,-43,610,1244,1600,1747,1464
229,780,551,-505,-161,666,-122,156,741,1063,1180,1083
19,639,619,-329,-300,629,-248,-522,58,361,473,610
-112,488,600,-187,-356,544,-370,-1024,-478,-141,19,287
-131,361,492,-114,-312,427,-375,-1034,-580,-268,-136,126
-112,287,400,-87,-256,344,-322,-834,-478,-229,-156,48
-97,204,302,-53,-200,253,-248,-585,-380,-204,-141,0
-78,131,209,-26,-143,170,-190,-429,-326,-204,-151,-34
-68,53,122,7,-95,87,-136,-326,-287,-204,-161,-78
-68,4,73,31,-70,39,-97,-244,-248,-185,-161,-92
-73,-19,53,46,-63,17,-73,-200,-200,-165,-146,-92
-73,-43,29,58,-51,-7,-43,-146,-165,-151,-136,-92
-73,-73,0,73,-36,-36,-19,-107,-141,-136,-136,-102
-68,-78,-9,73,-29,-43,-14,-92,-141,-131,-141,-117
-68,-78,-9,73,-29,-43,-14,-92,-141,-136,-146,-117
-63,-78,-14,70,-24,-46,-14,-87,-141,-136,-146,-117
-63,-87,-24,75,-19,-56,-4,-78,-131,-136,-146,-117
-63,-97,-34,80,-14,-65,0,-68,-122,-131,-141,-117
-63,-97,-34,80,-14,-65,0,-58,-112,-126,-131,-117
-63,-97,-34,80,-14,-65,4,-58,-107,-126,-126,-117
-58,-102,-43,80,-7,-73,4,-53,-107,-126,-126,-117
-53,-107,-53,80,0,-80,4,-43,-97,-122,-126,-117
-53,-107,-53,80,0,-80,4,-39,-92,-112,-122,-117
-48,-102,-53,75,2,-78,4,-34,-92,-107,-117,-112
-48,-97,-48,73,0,-73,4,-24,-82,-97,-107,-97
-39,-92,-53,65,7,-73,9,-19,-73,-97,-107,-92
-39,-92,-53,65,7,-73,9,-9,-73,-92,-102,-92
-39,-87,-48,63,4,-68,9,-4,-68,-87,-97,-87
-29,-82,-53,56,12,-68,9,4,-58,-78,-92,-82
-29,-82,-53,56,12,-68,9,9,-53,-78,-87,-78
-29,-78,-48,53,9,-63,14,19,-43,-68,-82,-68
-14,-73,-58,43,21,-65,14,34,-39,-58,-73,-63
-14,-63,-48,39,17,-56,19,43,-24,-48,-63,-58
-4,-58,-53,31,24,-56,19,53,-14,-43,-53,-48
0,-58,-58,29,29,-58,19,73,0,-34,-48,-39
9,-48,-58,19,34,-53,19,82,14,-24,-39,-34
19,-34,-53,7,36,-43,24,102,24,-14,-29,-24
24,-24,-48,0,36,-36,24,122,39,0,-19,-19
34,-19,-53,-7,43,-36,24,136,53,14,0,-4
48,-9,-58,-19,53,-34,24,156,63,24,14,4
48,0,-48,-24,48,-24,29,180,82,48,19,19
58,9,-48,-34,53,-19,29,200,102,53,34,29
68,19,-48,-43,58,-14,34,224,117,73,58,48
82,24,-58,-53,70,-17,43,248,146,97,73,58
92,39,-53,-65,73,-7,43,268,165,117,92,68
107,48,-58,-78,82,-4,43,287,185,136,107,87
117,63,-53,-90,85,4,48,312,204,151,136,107
131,73,-58,-102,95,7,48,331,219,170,161,126
151,87,-63,-119,107,12,48,356,239,190,175,146
161,102,-58,-131,109,21,48,366,248,200,185,161
170,112,-58,-141,114,26,48,380,263,219,204,170
180,117,-63,-148,122,26,48,390,273,234,219,185
195,126,-68,-161,131,29,48,400,283,244,234,195
204,131,-73,-168,139,29,43,405,287,248,244,204
204,136,-68,-170,136,34,39,405,297,253,258,214
209,136,-73,-173,141,31,39,405,302,258,263,224
214,146,-68,-180,141,39,34,400,302,258,263,224
219,151,-68,-185,143,41,29,395,302,258,268,229
219,151,-68,-185,143,41,24,380,292,258,268,229
214,151,-63,-183,139,43,24,366,283,253,263,224
204,151,-53,-178,129,48,29,336,263,244,253,219
195,146,-48,-170,122,48,29,307,244,229,234,209
175,126,-48,-151,112,39,24,278,224,209,214,190
156,112,-43,-134,100,34,19,244,200,190,190,165
136,102,-34,-119,85,34,19,214,170,170,165,146
117,87,-29,-102,73,29,19,175,146,141,136,122
102,73,-29,-87,65,21,19,146,122,122,107,92
82,48,-34,-65,58,7,19,117,102,92,92,78
58,34,-24,-46,41,4,19,87,68,68,63,48
48,19,-29,-34,39,-4,14,58,39,48,34,29
24,0,-24,-12,24,-12,9,34,24,24,19,9
4,-14,-19,4,12,-17,4,19,4,4,0,-9
-4,-29,-24,17,9,-26,4,0,-14,-14,-19,-24
-14,-43,-29,29,7,-36,4,-9,-29,-29,-34,-39
-19,-48,-29,34,4,-39,4,-29,-43,-39,-43,-48
-24,-58,-34,41,4,-46,0,-43,-48,-48,-53,-53
-29,-63,-34,46,2,-48,4,-48,-58,-58,-63,-58
-39,-63,-24,51,-7,-43,9,-53,-63,-63,-73,-63
-39,-68,-29,53,-4,-48,9,-58,-68,-73,-73,-78
-39,-73,-34,56,-2,-53,9,-63,-68,-73,-78,-78
-39,-73,-34,56,-2,-53,4,-58,-78,-73,-78,-78
-43,-78,-34,61,-4,-56,0,-58,-78,-78,-78,-78
-48,-73,-24,61,-12,-48,0,-58,-78,-82,-78,-82
-48,-68,-19,58,-14,-43,0,-63,-82,-82,-73,-87
-48,-73,-24,61,-12,-48,0,-63,-78,-78,-78,-87
-48,-73,-24,61,-12,-48,-4,-63,-73,-73,-78,-87
-48,-78,-29,63,-9,-53,-4,-63,-73,-73,-82,-82
-48,-78,-29,63,-9,-53,-4,-63,-73,-73,-82,-78
-48,-78,-29,63,-9,-53,0,-63,-73,-73,-82,-78
-48,-78,-29,63,-9,-53,4,-58,-73,-73,-82,-78
-53,-78,-24,65,-14,-51,4,-58,-73,-78,-82,-73
-58,-73,-14,65,-21,-43,4,-58,-73,-82,-82,-68
-53,-73,-19,63,-17,-46,4,-58,-73,-82,-82,-68
-53,-78,-24,65,-14,-51,4,-58,-73,-82,-82,-68
-53,-78,-24,65,-14,-51,4,-58,-68,-82,-82,-73
-53,-78,-24,65,-14,-51,4,-58,-68,-82,-82,-78
-53,-78,-24,65,-14,-51,4,-58,-73,-82,-82,-78
-53,-78,-24,65,-14,-51,4,-58,-73,-82,-82,-78
-48,-78,-29,63,-9,-53,4,-58,-73,-82,-82,-78
-43,-78,-34,61,-4,-56,4,-58,-73,-82,-82,-78
-43,-78,-34,61,-4,-56,4,-63,-73,-87,-82,-78
-43,-78,-34,61,-4,-56,4,-63,-73,-87,-82,-78
-43,-82,-39,63,-2,-61,0,-63,-73,-87,-82,-78
-43,-82,-39,63,-2,-61,-4,-68,-78,-87,-87,-82
-39,-82,-43,61,2,-63,-4,-73,-82,-87,-87,-82
-34,-82,-48,58,7,-65,-4,-78,-87,-87,-92,-82
-34,-82,-48,58,7,-65,-4,-78,-87,-92,-92,-82
-39,-82,-43,61,2,-63,-4,-82,-92,-92,-92,-87
-43,-87,-43,65,0,-65,-4,-82,-92,-92,-92,-87
-48,-87,-39,68,-4,-63,-9,-87,-97,-97,-97,-87
-48,-87,-39,68,-4,-63,-9,-87,-97,-97,-97,-87
-48,-87,-39,68,-4,-63,-4,-87,-97,-97,-97,-92
-48,-87,-39,68,-4,-63,-4,-87,-102,-97,-107,-97
-48,-87,-39,68,-4,-63,-4,-87,-102,-97,-112,-102
-53,-87,-34,70,-9,-61,-4,-92,-107,-107,-112,-107
-53,-92,-39,73,-7,-65,-9,-92,-107,-107,-112,-107
-53,-92,-39,73,-7,-65,-9,-97,-102,-107,-117,-102
-58,-92,-34,75,-12,-63,-9,-97,-97,-107,-117,-92
-58,-87,-29,73,-14,-58,-9,-102,-97,-112,-117,-92
-58,-82,-24,70,-17,-53,-4,-102,-102,-112,-112,-92
-58,-87,-29,73,-14,-58,0,-102,-102,-112,-117,-92
-58,-87,-29,73,-14,-58,0,-102,-102,-117,-117,-97
-58,-87,-29,73,-14,-58,0,-107,-107,-117,-117,-97
-58,-87,-29,73,-14,-58,0,-107,-107,-117,-117,-97
-58,-87,-29,73,-14,-58,0,-107,-112,-117,-117,-102
-58,-87,-29,73,-14,-58,0,-107,-117,-117,-117,-107
-58,-87,-29,73,-14,-58,0,-107,-117,-117,-122,-112
-58,-87,-29,73,-14,-58,0,-107,-117,-117,-126,-117
-63,-92,-29,78,-17,-61,-4,-107,-117,-117,-126,-112
-68,-97,-29,82,-19,-63,-9,-107,-117,-117,-126,-107
-68,-97,-29,82,-19,-63,-9,-107,-117,-117,-126,-107
-63,-97,-34,80,-14,-65,-9,-107,-117,-117,-122,-107
-63,-97,-34,80,-14,-65,-9,-107,-117,-117,-122,-107
-58,-97,-39,78,-9,-68,-9,-107,-112,-117,-122,-107
-58,-102,-43,80,-7,-73,-9,-107,-107,-117,-122,-107
-58,-102,-43,80,-7,-73,-9,-107,-107,-117,-122,-107
-63,-87,-24,75,-19,-56,0,-97,-97,-112,-117,-102
-63,-73,-9,68,-26,-41,9,-87,-82,-97,-107,-87
-58,-53,4,56,-31,-24,14,-78,-73,-87,-97,-78
-48,-39,9,43,-29,-14,24,-68,-63,-78,-87,-73
-43,-34,9,39,-26,-12,24,-63,-58,-73,-87,-73
-43,-29,14,36,-29,-7,24,-63,-53,-73,-82,-68
-34,-29,4,31,-19,-12,14,-63,-53,-73,-82,-68
-29,-24,4,26,-17,-9,14,-68,-48,-73,-82,-68
-29,-14,14,21,-21,0,14,-63,-48,-68,-78,-68
-24,0,24,12,-24,12,14,-58,-39,-58,-73,-58
-9,24,34,-7,-21,29,14,-58,-29,-48,-63,-48
0,24,24,-12,-12,24,4,-58,-29,-48,-63,-43
14,24,9,-19,2,17,-4,-68,-39,-48,-58,-43
19,9,-9,-14,14,0,-9,-73,-48,-63,-63,-53
19,4,-14,-12,17,-4,-9,-73,-53,-63,-68,-53
14,9,-4,-12,9,2,-9,-73,-53,-63,-68,-53
9,9,0,-9,4,4,-9,-73,-48,-63,-63,-43
0,-9,-9,4,4,-9,-9,-73,-43,-68,-58,-43
-14,-34,-19,24,2,-26,-14,-92,-73,-92,-82,-68
-19,-63,-43,41,12,-53,-24,-117,-102,-122,-107,-82
-29,-92,-63,61,17,-78,-34,-131,-122,-141,-131,-97
-39,-107,-68,73,14,-87,-39,-141,-136,-161,-151,-112
-53,-102,-48,78,-2,-75,-29,-141,-136,-161,-151,-117
-63,-97,-34,80,-14,-65,-24,-136,-131,-161,-151,-122
-73,-107,-34,90,-19,-70,-24,-136,-131,-161,-151,-131
-73,-117,-43,95,-14,-80,-24,-136,-131,-161,-156,-131
-73,-122,-48,97,-12,-85,-24,-141,-136,-161,-165,-141
-73,-131,-58,102,-7,-95,-29,-146,-141,-165,-165,-141
-78,-131,-53,104,-12,-92,-29,-146,-141,-165,-165,-141
-82,-126,-43,104,-19,-85,-29,-146,-141,-161,-165,-141
-82,-126,-43,104,-19,-85,-29,-141,-141,-156,-165,-141
-87,-126,-39,107,-24,-82,-24,-141,-141,-156,-165,-141
-87,-131,-43,109,-21,-87,-24,-141,-141,-165,-165,-141
-87,-131,-43,109,-21,-87,-24,-136,-141,-170,-165,-141
-87,-131,-43,109,-21,-87,-24,-136,-141,-165,-165,-141
-92,-131,-39,112,-26,-85,-24,-136,-141,-165,-165,-146
-92,-141,-48,117,-21,-95,-19,-141,-141,-165,-165,-146
-97,-146,-48,122,-24,-97,-14,-136,-136,-165,-170,-151
-97,-161,-63,129,-17,-112,-9,-122,-136,-185,-185,-170
-97,-165,-68,131,-14,-117,9,-73,-112,-170,-175,-165
-102,-141,-39,122,-31,-90,43,4,-24,-87,-122,-136
-78,-107,-29,92,-24,-68,53,68,58,-4,-43,-87
-39,-73,-34,56,-2,-53,92,190,156,87,43,-19
39,24,-14,-31,26,4,151,385,331,258,224,117
146,248,102,-197,21,175,214,619,619,575,546,400
302,531,229,-417,36,380,204,795,941,966,971,775
414,800,385,-607,14,592,175,951,1283,1415,1473,1205
468,932,463,-700,2,697,68,883,1385,1615,1732,1439
434,907,473,-671,-19,690,-19,707,1302,1605,1756,1464
307,790,483,-549,-87,636,-92,292,868,1141,1268,1132
68,649,580,-358,-256,614,-229,-444,151,424,527,649
-92,497,590,-202,-341,544,-361,-1005,-419,-92,39,317
-122,370,492,-124,-307,431,-375,-1044,-556,-258,-126,146
-112,297,409,-92,-261,353,-331,-873,-488,-258,-156,58
-92,214,307,-61,-200,261,-258,-619,-380,-219,-141,14
-68,141,209,-36,-139,175,-200,-458,-317,-204,-151,-14
-58,58,117,0,-87,87,-136,-341,-273,-204,-161,-68
-58,4,63,26,-61,34,-87,-244,-229,-185,-161,-92
-63,-19,43,41,-53,12,-63,-200,-185,-165,-146,-92
-63,-43,19,53,-41,-12,-34,-146,-156,-151,-136,-92
-73,-78,-4,75,-34,-41,-4,-107,-126,-136,-136,-102
-78,-87,-9,82,-34,-48,4,-92,-122,-131,-141,-117
-78,-87,-9,82,-34,-48,4,-92,-122,-136,-146,-117
-73,-87,-14,80,-29,-51,4,-87,-122,-136,-146,-117
-73,-92,-19,82,-26,-56,9,-78,-112,-136,-146,-117
-73,-97,-24,85,-24,-61,9,-68,-102,-131,-141,-117
-73,-97,-24,85,-24,-61,9,-58,-97,-126,-136,-112
-73,-97,-24,85,-24,-61,14,-58,-97,-126,-136,-107
-68,-97,-29,82,-19,-63,14,-53,-97,-126,-136,-107
-63,-97,-34,80,-14,-65,14,-43,-87,-122,-136,-107
-63,-97,-34,80,-14,-65,14,-39,-82,-117,-126,-112
-58,-92,-34,75,-12,-63,14,-34,-82,-117,-117,-112
-58,-92,-34,75,-12,-63,14,-24,-73,-107,-107,-102
-48,-92,-43,70,-2,-68,19,-19,-63,-107,-107,-102
-48,-92,-43,70,-2,-68,19,-9,-63,-102,-102,-102
-48,-87,-39,68,-4,-63,19,-4,-58,-97,-97,-97
-39,-82,-43,61,2,-63,19,4,-48,-92,-97,-92
-39,-82,-43,61,2,-63,19,9,-43,-97,-97,-87
-39,-78,-39,58,0,-58,24,19,-34,-87,-92,-78
-24,-73,-48,48,12,-61,24,34,-29,-78,-82,-73
-24,-63,-39,43,7,-51,29,43,-14,-63,-68,-68
-14,-58,-43,36,14,-51,29,53,-4,-53,-53,-58
-9,-63,-53,36,21,-58,29,73,4,-43,-48,-48
0,-58,-58,29,29,-58,29,82,14,-34,-39,-43
9,-48,-58,19,34,-53,34,102,24,-29,-34,-29
14,-43,-58,14,36,-51,34,122,39,-19,-29,-19
24,-39,-63,7,43,-51,29,131,53,-4,-9,-4
39,-29,-68,-4,53,-48,24,146,63,4,4,4
43,-14,-58,-14,51,-36,29,170,82,29,9,14
58,0,-58,-29,58,-29,29,190,102,34,24,19
68,14,-53,-41,61,-19,29,214,112,48,48,43
82,24,-58,-53,70,-17,34,239,136,68,63,58
92,39,-53,-65,73,-7,34,258,156,87,82,63
107,48,-58,-78,82,-4,34,278,175,107,97,78
117,63,-53,-90,85,4,43,302,195,126,122,97
131,73,-58,-102,95,7,48,322,209,151,141,117
151,87,-63,-119,107,12,48,346,229,170,156,131
161,102,-58,-131,109,21,48,356,239,180,165,141
170,112,-58,-141,114,26,48,370,253,195,185,151
180,117,-63,-148,122,26,48,380,263,204,200,165
195,126,-68,-161,131,29,48,390,278,214,214,175
204,131,-73,-168,139,29,43,395,287,219,224,185
209,136,-73,-173,141,31,39,395,292,224,234,195
219,136,-82,-178,151,26,39,395,292,229,234,204
219,141,-78,-180,148,31,34,395,292,229,234,204
219,141,-78,-180,148,31,29,395,292,229,239,209
219,141,-78,-180,148,31,24,380,287,234,239,214
214,141,-73,-178,143,34,24,366,283,234,234,214
204,146,-58,-175,131,43,24,336,268,224,224,209
195,146,-48,-170,122,48,19,307,253,209,204,200
180,131,-48,-156,114,41,14,278,234,190,190,185
165,122,-43,-143,104,39,9,244,209,170,170,165
146,112,-34,-129,90,39,4,214,180,151,151,151
126,97,-29,-112,78,34,0,175,156,122,126,131
107,82,-24,-95,65,29,0,146,131,107,97,102
82,58,-24,-70,53,17,0,117,112,82,82,87
58,43,-14,-51,36,14,0,82,82,58,53,58
48,29,-19,-39,34,4,-4,48,58,39,24,39
24,9,-14,-17,19,-2,-4,24,43,19,9,19
4,-4,-9,0,7,-7,-4,9,24,4,-9,0
-4,-14,-9,9,2,-12,-4,-14,0,-19,-29,-19
-14,-24,-9,19,-2,-17,-4,-29,-19,-39,-43,-39
-19,-34,-14,26,-2,-24,-4,-43,-34,-48,-53,-48
-24,-48,-24,36,0,-36,-9,-53,-39,-58,-63,-53
-29,-53,-24,41,-2,-39,-4,-58,-48,-68,-73,-58
-39,-53,-14,46,-12,-34,0,-63,-53,-73,-82,-63
-43,-58,-14,51,-14,-36,0,-68,-58,-87,-87,-82
-48,-63,-14,56,-17,-39,0,-73,-58,-92,-97,-87
-48,-63,-14,56,-17,-39,-4,-73,-68,-92,-97,-87
-53,-68,-14,61,-19,-41,-9,-78,-68,-97,-97,-87
-58,-63,-4,61,-26,-34,-9,-78,-68,-102,-102,-87
-58,-58,0,58,-29,-29,-9,-82,-73,-102,-102,-87
-58,-63,-4,61,-26,-34,-4,-82,-73,-97,-107,-87
-58,-63,-4,61,-26,-34,-4,-82,-73,-92,-107,-87
-58,-63,-4,61,-26,-34,-4,-82,-73,-92,-107,-82
-58,-58,0,58,-29,-29,-4,-82,-73,-92,-102,-78
-58,-58,0,58,-29,-29,-4,-82,-73,-92,-102,-78
-58,-58,0,58,-29,-29,-4,-78,-73,-92,-102,-78
-58,-63,-4,61,-26,-34,-4,-73,-73,-92,-102,-78
-58,-63,-4,61,-26,-34,-4,-68,-73,-92,-102,-78
-53,-63,-9,58,-21,-36,-4,-68,-73,-92,-102,-78
-53,-68,-14,61,-19,-41,-4,-68,-73,-92,-102,-78
-48,-68,-19,58,-14,-43,-4,-73,-68,-92,-97,-78
-43,-68,-24,56,-9,-46,-4,-78,-68,-92,-92,-78
-43,-68,-24,56,-9,-46,-4,-78,-73,-92,-92,-82
-43,-68,-24,56,-9,-46,-4,-78,-73,-92,-92,-87
-48,-68,-19,58,-14,-43,-4,-78,-73,-92,-97,-87
-53,-68,-14,61,-19,-41,-4,-78,-73,-92,-102,-87
-53,-68,-14,61,-19,-41,-4,-78,-73,-97,-102,-87
-53,-68,-14,61,-19,-41,-4,-73,-73,-97,-102,-87
-53,-73,-19,63,-17,-46,-4,-73,-73,-97,-102,-87
-53,-73,-19,63,-17,-46,-4,-78,-78,-97,-107,-92
-53,-73,-19,63,-17,-46,-4,-78,-78,-97,-107,-92
-53,-73,-19,63,-17,-46,-4,-78,-78,-97,-112,-92
-53,-73,-19,63,-17,-46,-4,-78,-78,-102,-112,-87
-58,-73,-14,65,-21,-43,-4,-82,-82,-102,-112,-87
-58,-78,-19,68,-19,-48,-4,-82,-82,-97,-107,-87
-58,-78,-19,68,-19,-48,-9,-87,-87,-97,-107,-87
-58,-78,-19,68,-19,-48,-9,-87,-87,-97,-107,-87
-58,-78,-19,68,-19,-48,-4,-87,-87,-97,-107,-92
-58,-78,-19,68,-19,-48,-4,-87,-87,-97,-112,-92
-58,-78,-19,68,-19,-48,-4,-87,-82,-97,-112,-92
-63,-78,-14,70,-24,-46,-4,-92,-87,-107,-112,-97
-63,-82,-19,73,-21,-51,-9,-92,-87,-107,-112,-97
-63,-87,-24,75,-19,-56,-9,-97,-87,-107,-117,-102
-68,-92,-24,80,-21,-58,-9,-97,-87,-107,-117,-102
-68,-92,-24,80,-21,-58,-9,-102,-87,-112,-122,-107
-68,-92,-24,80,-21,-58,-4,-102,-92,-112,-122,-112
-68,-92,-24,80,-21,-58,-4,-102,-92,-112,-126,-112
-68,-87,-19,78,-24,-53,-9,-102,-92,-117,-126,-117
-68,-87,-19,78,-24,-53,-9,-107,-97,-117,-126,-117
-68,-87,-19,78,-24,-53,-9,-107,-97,-117,-126,-117
-68,-87,-19,78,-24,-53,-9,-107,-97,-122,-126,-112
-68,-87,-19,78,-24,-53,-9,-107,-97,-126,-126,-107
-68,-87,-19,78,-24,-53,-9,-107,-102,-126,-126,-112
-68,-87,-19,78,-24,-53,-9,-107,-107,-131,-131,-117
-68,-87,-19,78,-24,-53,-9,-107,-107,-126,-126,-117
-68,-87,-19,78,-24,-53,-9,-107,-107,-126,-126,-117
-68,-87,-19,78,-24,-53,-9,-107,-107,-126,-131,-117
-68,-87,-19,78,-24,-53,-9,-107,-107,-126,-136,-117
-73,-87,-14,80,-29,-51,-9,-107,-107,-126,-136,-117
-73,-87,-14,80,-29,-51,-9,-107,-107,-126,-131,-117
-78,-92,-14,85,-31,-53,-9,-107,-112,-126,-131,-117
-78,-97,-19,87,-29,-58,-9,-107,-107,-126,-131,-117
-73,-92,-19,82,-26,-56,-14,-107,-107,-126,-131,-122
-68,-78,-9,73,-29,-43,-9,-97,-97,-122,-126,-122
-63,-63,0,63,-31,-31,0,-87,-82,-107,-117,-107
-58,-43,14,51,-36,-14,4,-78,-73,-97,-107,-97
-48,-24,24,36,-36,0,19,-68,-63,-87,-92,-87
-43,-19,24,31,-34,2,24,-63,-63,-82,-87,-82
-43,-19,24,31,-34,2,24,-63,-63,-82,-82,-78
-34,-19,14,26,-24,-2,14,-63,-63,-82,-82,-78
-29,-19,9,24,-19,-4,14,-68,-58,-82,-87,-78
-29,-14,14,21,-21,0,9,-68,-58,-78,-82,-73
-24,0,24,12,-24,12,4,-68,-43,-68,-73,-58
-9,24,34,-7,-21,29,4,-68,-29,-58,-63,-48
0,29,29,-14,-14,29,-4,-58,-29,-53,-58,-43
9,34,24,-21,-7,29,-14,-58,-39,-48,-53,-43
9,19,9,-14,0,14,-19,-73,-53,-63,-63,-53
9,9,0,-9,4,4,-19,-82,-63,-63,-68,-53
4,14,9,-9,-2,12,-19,-82,-63,-63,-68,-53
0,19,19,-9,-9,19,-19,-82,-63,-63,-68,-53
-9,0,9,4,-9,4,-19,-78,-53,-63,-63,-58
-24,-24,0,24,-12,-12,-24,-92,-73,-82,-82,-78
-29,-53,-24,41,-2,-39,-34,-117,-102,-112,-107,-92
-39,-82,-43,61,2,-63,-39,-126,-117,-126,-126,-107
-48,-102,-53,75,2,-78,-39,-136,-136,-151,-146,-122
-63,-107,-43,85,-9,-75,-29,-141,-146,-161,-151,-122
-73,-107,-34,90,-19,-70,-19,-136,-141,-161,-151,-122
-82,-117,-34,100,-24,-75,-14,-136,-141,-161,-151,-131
-82,-126,-43,104,-19,-85,-14,-136,-141,-161,-156,-141
-82,-126,-43,104,-19,-85,-14,-141,-146,-165,-165,-161
-82,-131,-48,107,-17,-90,-24,-146,-156,-170,-165,-161
-82,-131,-48,107,-17,-90,-29,-146,-161,-165,-165,-161
-82,-126,-43,104,-19,-85,-29,-146,-161,-161,-165,-156
-82,-126,-43,104,-19,-85,-29,-141,-161,-156,-165,-151
-87,-126,-39,107,-24,-82,-24,-141,-161,-156,-165,-151
-87,-131,-43,109,-21,-87,-24,-141,-161,-161,-165,-151
-87,-131,-43,109,-21,-87,-24,-136,-156,-161,-165,-151
-87,-131,-43,109,-21,-87,-24,-136,-151,-156,-165,-151
-97,-131,-34,114,-31,-82,-24,-136,-151,-156,-165,-156
-102,-141,-39,122,-31,-90,-19,-136,-151,-156,-165,-156
-107,-146,-39,126,-34,-92,-14,-136,-156,-161,-175,-161
-107,-156,-48,131,-29,-102,-4,-117,-146,-165,-180,-170
-107,-165,-58,136,-24,-112,14,-63,-122,-151,-170,-165
-102,-141,-39,122,-31,-90,43,14,-43,-78,-112,-131
-82,-126,-43,104,-19,-85,53,63,19,-9,-43,-102
-53,-92,-39,73,-7,-65,92,180,122,97,53,-24
14,0,-14,-7,14,-7,156,395,292,244,200,97
107,190,82,-148,12,136,209,605,541,512,473,336
292,502,209,-397,41,356,204,819,922,966,971,766
400,751,351,-575,24,551,190,980,1249,1376,1424,1156
473,897,424,-685,24,661,82,956,1420,1659,1776,1459
468,922,453,-695,7,688,0,805,1381,1712,1869,1542
307,805,497,-556,-95,651,-58,322,878,1156,1259,1122
87,678,590,-383,-251,634,-165,-302,273,536,614,688
-87,512,600,-212,-344,556,-326,-941,-361,-14,112,341
-151,375,527,-112,-339,451,-370,-1102,-595,-253,-136,131
-131,302,434,-85,-283,368,-317,-873,-478,-209,-136,63
-112,214,326,-51,-219,270,-248,-639,-380,-180,-122,19
-87,136,224,-24,-156,180,-190,-468,-322,-175,-131,-4
-78,58,136,9,-107,97,-136,-336,-278,-175,-141,-48
-73,9,82,31,-78,46,-97,-244,-239,-156,-146,-73
-73,-19,53,46,-63,17,-73,-195,-195,-136,-136,-82
-73,-43,29,58,-51,-7,-39,-141,-161,-122,-126,-82
-78,-73,4,75,-41,-34,-9,-102,-131,-112,-126,-92
-78,-87,-9,82,-34,-48,-4,-92,-131,-117,-131,-112
-78,-97,-19,87,-29,-58,-4,-92,-131,-126,-136,-117
-73,-97,-24,85,-24,-61,-4,-87,-131,-126,-136,-117
-73,-102,-29,87,-21,-65,0,-78,-122,-126,-136,-117
-73,-112,-39,92,-17,-75,4,-63,-112,-122,-131,-117
-73,-117,-43,95,-14,-80,9,-48,-107,-117,-126,-117
-73,-117,-43,95,-14,-80,14,-48,-107,-117,-131,-117
-68,-117,-48,92,-9,-82,14,-43,-107,-117,-136,-117
-63,-112,-48,87,-7,-80,14,-34,-97,-112,-136,-117
-63,-107,-43,85,-9,-75,14,-29,-92,-107,-131,-117
-58,-102,-43,80,-7,-73,14,-24,-92,-107,-122,-112
-58,-102,-43,80,-7,-73,14,-14,-82,-97,-107,-102
-48,-102,-53,75,2,-78,19,-9,-73,-102,-107,-102
-48,-102,-53,75,2,-78,19,0,-73,-102,-102,-102
-48,-92,-43,70,-2,-68,19,4,-73,-97,-102,-97
-39,-82,-43,61,2,-63,19,14,-68,-87,-102,-92
-34,-82,-48,58,7,-65,19,19,-63,-87,-97,-87
-29,-78,-48,53,9,-63,24,29,-53,-78,-92,-78
-14,-73,-58,43,21,-65,24,43,-43,-68,-78,-73
-14,-63,-48,39,17,-56,29,53,-24,-58,-63,-68
-4,-58,-53,31,24,-56,29,58,-14,-53,-53,-58
0,-58,-58,29,29,-58,29,73,-4,-43,-48,-48
4,-48,-53,21,29,-51,24,82,0,-34,-43,-43
9,-39,-48,14,29,-43,24,102,4,-24,-39,-34
14,-34,-48,9,31,-41,24,122,19,-9,-29,-29
24,-29,-53,2,39,-41,24,136,39,4,-9,-14
39,-24,-63,-7,51,-43,24,156,53,14,4,-9
43,-19,-63,-12,53,-41,29,180,73,39,14,0
58,-9,-68,-24,63,-39,29,200,92,39,29,9
68,4,-63,-36,65,-29,29,224,102,53,48,34
82,9,-73,-46,78,-31,34,248,122,78,63,48
92,19,-73,-56,82,-26,34,268,136,97,82,58
107,29,-78,-68,92,-24,34,287,156,117,97,73
117,43,-73,-80,95,-14,39,312,175,131,122,87
131,58,-73,-95,102,-7,39,331,190,151,141,107
151,78,-73,-114,112,2,39,351,209,170,156,122
161,92,-68,-126,114,12,39,356,224,180,165,131
170,102,-68,-136,119,17,39,370,244,195,185,141
180,107,-73,-143,126,17,39,380,253,209,200,156
195,117,-78,-156,136,19,39,390,263,224,214,165
209,122,-87,-165,148,17,34,400,268,234,234,180
214,126,-87,-170,151,19,29,405,273,239,244,195
219,122,-97,-170,158,12,34,405,278,239,239,204
219,122,-97,-170,158,12,34,400,283,239,244,204
219,122,-97,-170,158,12,29,405,283,239,248,209
219,122,-97,-170,158,12,24,395,273,239,248,209
219,122,-97,-170,158,12,19,375,268,239,244,204
214,122,-92,-168,153,14,14,346,258,234,234,200
204,122,-82,-163,143,19,9,317,244,224,224,200
185,112,-73,-148,129,19,4,287,224,209,219,195
165,102,-63,-134,114,19,0,253,204,190,200,175
146,92,-53,-119,100,19,0,224,180,170,175,156
126,78,-48,-102,87,14,0,185,156,141,146,131
107,63,-43,-85,75,9,0,156,131,122,117,102
82,48,-34,-65,58,7,0,126,112,92,102,87
58,43,-14,-51,36,14,0,97,82,68,73,58
48,29,-19,-39,34,4,0,68,58,48,43,34
29,9,-19,-19,24,-4,4,43,43,29,29,9
9,-9,-19,0,14,-14,4,29,24,14,9,-9
-4,-24,-19,14,7,-21,4,9,4,-4,-9,-24
-14,-34,-19,24,2,-26,4,-4,-9,-19,-29,-43
-19,-39,-19,29,0,-29,4,-24,-24,-29,-43,-58
-24,-48,-24,36,0,-36,0,-34,-29,-43,-53,-63
-29,-53,-24,41,-2,-39,0,-39,-39,-58,-63,-68
-43,-53,-9,48,-17,-31,0,-48,-53,-63,-73,-73
-48,-58,-9,53,-19,-34,0,-58,-68,-73,-73,-87
-48,-63,-14,56,-17,-39,0,-63,-68,-73,-82,-87
-48,-63,-14,56,-17,-39,0,-63,-78,-73,-87,-87
-48,-68,-19,58,-14,-43,0,-68,-73,-78,-87,-87
-48,-68,-19,58,-14,-43,0,-68,-68,-82,-92,-92
-48,-68,-19,58,-14,-43,0,-73,-73,-82,-92,-97
-48,-73,-24,61,-12,-48,0,-73,-73,-82,-97,-97
-48,-78,-29,63,-9,-53,-4,-68,-73,-82,-97,-102
-48,-82,-34,65,-7,-58,-4,-63,-73,-82,-97,-102
-48,-78,-29,63,-9,-53,-4,-63,-73,-82,-92,-97
-48,-78,-29,63,-9,-53,-4,-63,-73,-82,-92,-97
-48,-73,-24,61,-12,-48,-4,-63,-73,-82,-92,-97
-48,-68,-19,58,-14,-43,-4,-68,-73,-82,-92,-97
-48,-63,-14,56,-17,-39,-4,-68,-78,-82,-87,-92
-43,-63,-19,53,-12,-41,-4,-68,-82,-82,-82,-87
-43,-68,-24,56,-9,-46,-4,-68,-82,-82,-82,-87
-43,-68,-24,56,-9,-46,-4,-68,-78,-82,-82,-87
-43,-73,-29,58,-7,-51,-4,-68,-78,-87,-87,-87
-43,-78,-34,61,-4,-56,-4,-68,-82,-92,-92,-87
-48,-78,-29,63,-9,-53,-4,-68,-82,-92,-92,-87
-53,-78,-24,65,-14,-51,-4,-68,-82,-92,-92,-87
-53,-78,-24,65,-14,-51,-4,-68,-82,-92,-87,-87
-53,-78,-24,65,-14,-51,-4,-73,-82,-97,-82,-87
-48,-78,-29,63,-9,-53,-4,-73,-82,-97,-82,-87
-43,-82,-39,63,-2,-61,-4,-73,-82,-97,-82,-87
-43,-78,-34,61,-4,-56,-4,-78,-87,-97,-87,-92
-43,-73,-29,58,-7,-51,-4,-78,-87,-97,-87,-92
-43,-73,-29,58,-7,-51,-4,-78,-87,-97,-92,-92
-43,-73,-29,58,-7,-51,-4,-78,-87,-102,-92,-92
-48,-73,-24,61,-12,-48,-4,-82,-92,-102,-92,-97
-48,-78,-29,63,-9,-53,-4,-82,-92,-102,-92,-97
-53,-82,-29,68,-12,-56,-9,-82,-97,-107,-97,-97
-58,-87,-29,73,-14,-58,-9,-78,-97,-107,-97,-97
-58,-87,-29,73,-14,-58,-4,-78,-97,-107,-97,-102
-58,-87,-29,73,-14,-58,-4,-78,-102,-107,-102,-102
-53,-87,-34,70,-9,-61,-4,-82,-97,-102,-102,-102
-53,-87,-34,70,-9,-61,-4,-92,-97,-107,-102,-107
-53,-92,-39,73,-7,-65,-9,-92,-97,-107,-102,-107
-53,-92,-39,73,-7,-65,-9,-97,-97,-107,-107,-112
-58,-87,-29,73,-14,-58,-9,-92,-97,-107,-107,-112
-58,-82,-24,70,-17,-53,-9,-92,-97,-112,-112,-112
-63,-82,-19,73,-21,-51,-4,-92,-102,-112,-112,-112
-68,-87,-19,78,-24,-53,-4,-92,-102,-112,-117,-112
-68,-87,-19,78,-24,-53,-9,-92,-102,-117,-117,-112
-68,-87,-19,78,-24,-53,-9,-97,-107,-117,-117,-107
-68,-92,-24,80,-21,-58,-9,-97,-112,-117,-117,-112
-68,-97,-29,82,-19,-63,-9,-97,-117,-117,-117,-117
-68,-97,-29,82,-19,-63,-9,-97,-117,-117,-122,-117
-68,-97,-29,82,-19,-63,-9,-97,-117,-117,-126,-117
-68,-97,-29,82,-19,-63,-9,-97,-112,-117,-126,-117
-68,-92,-24,80,-21,-58,-9,-97,-112,-117,-126,-117
-68,-92,-24,80,-21,-58,-14,-97,-112,-117,-126,-117
-68,-87,-19,78,-24,-53,-19,-97,-112,-117,-131,-117
-63,-87,-24,75,-19,-56,-19,-97,-107,-117,-131,-117
-58,-82,-24,70,-17,-53,-19,-97,-107,-117,-131,-117
-58,-68,-9,63,-24,-39,-4,-87,-97,-112,-122,-112
-53,-53,0,53,-26,-26,9,-78,-82,-97,-107,-97
-48,-34,14,41,-31,-9,14,-68,-73,-87,-97,-87
-39,-19,19,29,-29,0,24,-58,-63,-78,-87,-82
-34,-24,9,29,-21,-7,24,-53,-63,-73,-87,-82
-34,-29,4,31,-19,-12,24,-53,-63,-73,-82,-78
-24,-29,-4,26,-9,-17,14,-53,-63,-73,-82,-78
-19,-24,-4,21,-7,-14,14,-58,-58,-73,-82,-78
-24,-9,14,17,-19,2,14,-58,-58,-68,-73,-73
-24,9,34,7,-29,21,14,-58,-48,-58,-63,-58
-9,39,48,-14,-29,43,14,-58,-39,-48,-53,-48
0,43,43,-21,-21,43,4,-58,-39,-48,-53,-43
9,43,34,-26,-12,39,-4,-68,-43,-43,-48,-43
9,29,19,-19,-4,24,-9,-73,-48,-53,-53,-53
9,14,4,-12,2,9,-9,-73,-53,-53,-58,-53
4,9,4,-7,0,7,-9,-73,-53,-53,-58,-53
0,9,9,-4,-4,9,-9,-73,-58,-58,-63,-58
-9,-9,0,9,-4,-4,-9,-73,-63,-68,-68,-73
-24,-39,-14,31,-4,-26,-14,-92,-92,-92,-92,-97
-29,-73,-43,51,7,-58,-24,-117,-122,-122,-117,-112
-39,-102,-63,70,12,-82,-34,-126,-136,-136,-136,-126
-48,-117,-68,82,9,-92,-39,-131,-146,-151,-151,-141
-58,-117,-58,87,0,-87,-29,-131,-146,-151,-151,-141
-63,-117,-53,90,-4,-85,-24,-126,-141,-151,-151,-141
-73,-122,-48,97,-12,-85,-29,-131,-146,-151,-151,-146
-73,-126,-53,100,-9,-90,-34,-136,-151,-151,-156,-141
-73,-126,-53,100,-9,-90,-34,-141,-156,-156,-165,-151
-73,-131,-58,102,-7,-95,-39,-146,-161,-165,-165,-151
-73,-136,-63,104,-4,-100,-34,-146,-156,-165,-165,-156
-73,-136,-63,104,-4,-100,-29,-146,-151,-161,-165,-161
-73,-136,-63,104,-4,-100,-29,-141,-151,-156,-165,-161
-78,-136,-58,107,-9,-97,-24,-141,-151,-156,-165,-161
-78,-141,-63,109,-7,-102,-24,-141,-151,-161,-165,-156
-78,-141,-63,109,-7,-102,-24,-136,-151,-161,-165,-151
-78,-141,-63,109,-7,-102,-24,-131,-151,-156,-165,-151
-82,-141,-58,112,-12,-100,-24,-126,-151,-156,-165,-156
-82,-151,-68,117,-7,-109,-19,-122,-146,-156,-165,-156
-87,-156,-68,122,-9,-112,-14,-107,-136,-156,-170,-161
-87,-161,-73,124,-7,-117,-4,-73,-97,-136,-156,-161
-87,-156,-68,122,-9,-112,19,-4,-34,-82,-117,-136
-68,-112,-43,90,-12,-78,53,92,63,19,-29,-78
-19,-58,-39,39,9,-48,63,175,156,122,82,0
24,14,-9,-19,17,2,97,317,297,278,239,136
107,151,43,-129,31,97,151,531,517,512,488,341
204,375,170,-290,17,273,200,736,805,844,834,649
351,658,307,-505,21,483,175,883,1127,1249,1283,1049
414,854,439,-634,-12,646,146,966,1366,1576,1649,1351
419,912,492,-666,-36,702,39,824,1366,1654,1771,1459
331,888,556,-610,-112,722,-24,536,1166,1493,1615,1356
151,771,619,-461,-234,695,-73,9,614,878,946,897
-39,614,653,-287,-346,634,-185,-566,9,283,336,478
-151,448,600,-148,-375,524,-292,-966,-448,-112,-19,209
-161,326,488,-82,-324,407,-307,-956,-536,-234,-151,68
-131,258,390,-63,-261,324,-263,-736,-419,-190,-146,9
-107,175,283,-34,-195,229,-200,-507,-326,-165,-131,-29
-78,102,180,-12,-129,141,-151,-370,-278,-165,-141,-53
-68,34,102,17,-85,68,-102,-278,-244,-165,-146,-87
-68,-4,63,36,-65,29,-68,-204,-209,-146,-141,-92
-68,-29,39,48,-53,4,-48,-165,-165,-126,-126,-92
-63,-53,9,58,-36,-21,-24,-117,-136,-112,-117,-92
-68,-87,-19,78,-24,-53,0,-82,-112,-107,-122,-102
-68,-97,-29,82,-19,-63,4,-73,-112,-112,-131,-117
-68,-97,-29,82,-19,-63,4,-73,-117,-117,-136,-117
-63,-97,-34,80,-14,-65,4,-68,-122,-117,-136,-117
-63,-97,-34,80,-14,-65,9,-58,-112,-117,-136,-112
-63,-97,-34,80,-14,-65,9,-48,-102,-112,-131,-107
-63,-97,-34,80,-14,-65,9,-39,-97,-107,-126,-107
-63,-97,-34,80,-14,-65,14,-39,-97,-107,-126,-107
-58,-97,-39,78,-9,-68,14,-34,-97,-107,-126,-107
-53,-97,-43,75,-4,-70,14,-24,-87,-102,-126,-107
-53,-97,-43,75,-4,-70,14,-24,-82,-97,-122,-112
-48,-92,-43,70,-2,-68,14,-24,-82,-97,-117,-112
-48,-92,-43,70,-2,-68,14,-14,-73,-92,-107,-102
-39,-92,-53,65,7,-73,19,-9,-63,-97,-107,-102
-34,-92,-58,63,12,-75,19,0,-63,-92,-102,-102
-29,-87,-58,58,14,-73,19,4,-58,-87,-97,-97
-19,-82,-63,51,21,-73,19,14,-48,-73,-87,-87
-19,-82,-63,51,21,-73,19,19,-43,-68,-78,-78
-19,-78,-58,48,19,-68,19,29,-34,-58,-73,-68
-4,-73,-68,39,31,-70,14,43,-29,-48,-63,-63
-4,-68,-63,36,29,-65,19,53,-14,-39,-53,-58
4,-68,-73,31,39,-70,19,63,-4,-34,-43,-48
9,-68,-78,29,43,-73,19,82,4,-24,-39,-39
19,-58,-78,19,48,-68,19,92,14,-14,-29,-34
29,-48,-78,9,53,-63,24,112,19,-4,-19,-24
34,-43,-78,4,56,-61,24,131,29,9,-9,-19
43,-39,-82,-2,63,-61,24,146,48,24,9,0
58,-29,-87,-14,73,-58,24,165,63,34,24,14
63,-19,-82,-21,73,-51,24,190,82,58,34,29
78,-9,-87,-34,82,-48,19,209,102,63,53,39
87,4,-82,-46,85,-39,19,234,112,82,78,63
102,14,-87,-58,95,-36,24,258,136,107,92,78
112,29,-82,-70,97,-26,24,278,156,126,112,87
126,39,-87,-82,107,-24,24,297,175,146,126,107
136,53,-82,-95,109,-14,29,317,195,161,151,126
151,63,-87,-107,119,-12,29,331,209,180,170,146
170,78,-92,-124,131,-7,29,351,229,200,190,161
180,92,-87,-136,134,2,29,356,239,209,204,170
185,107,-78,-146,131,14,29,370,253,224,224,175
190,117,-73,-153,131,21,29,380,263,234,239,185
204,126,-78,-165,141,24,24,385,268,244,253,190
214,131,-82,-173,148,24,14,385,268,248,263,195
214,136,-78,-175,146,29,9,380,273,248,263,204
219,136,-82,-178,151,26,9,375,273,248,253,214
219,141,-78,-180,148,31,4,370,273,248,253,219
219,141,-78,-180,148,31,0,366,273,248,258,229
219,141,-78,-180,148,31,-4,346,263,248,258,229
214,141,-73,-178,143,34,-4,326,253,244,253,224
204,141,-63,-173,134,39,0,297,239,234,244,214
195,136,-58,-165,126,39,0,268,224,219,224,200
175,122,-53,-148,114,34,-4,239,204,200,209,180
156,112,-43,-134,100,34,-9,204,180,180,190,156
136,102,-34,-119,85,34,-9,180,156,161,165,136
117,87,-29,-102,73,29,-9,146,136,131,136,112
97,73,-24,-85,61,24,-4,122,112,112,107,82
73,48,-24,-61,48,12,0,97,92,82,92,68
48,34,-14,-41,31,9,0,68,63,63,63,43
39,19,-19,-29,29,0,-4,39,39,48,34,29
19,0,-19,-9,19,-9,-4,14,29,29,19,9
4,-14,-19,4,12,-17,-4,0,14,14,0,-9
-9,-24,-14,17,2,-19,0,-14,-4,-9,-19,-24
-24,-34,-9,29,-7,-21,4,-19,-19,-29,-34,-39
-29,-43,-14,36,-7,-29,4,-34,-39,-39,-43,-48
-34,-58,-24,46,-4,-41,0,-43,-48,-48,-53,-53
-39,-63,-24,51,-7,-43,0,-53,-58,-58,-63,-58
-48,-63,-14,56,-17,-39,0,-63,-63,-63,-73,-63
-48,-63,-14,56,-17,-39,0,-68,-68,-73,-73,-82
-48,-63,-14,56,-17,-39,0,-73,-68,-73,-78,-87
-43,-63,-19,53,-12,-41,0,-68,-78,-73,-78,-87
-43,-68,-24,56,-9,-46,0,-68,-78,-78,-78,-87
-48,-68,-19,58,-14,-43,0,-68,-73,-78,-82,-87
-48,-68,-19,58,-14,-43,0,-73,-73,-73,-82,-87
-48,-73,-24,61,-12,-48,0,-73,-73,-73,-87,-87
-48,-73,-24,61,-12,-48,-4,-73,-73,-73,-87,-87
-48,-73,-24,61,-12,-48,-4,-73,-73,-73,-87,-87
-48,-68,-19,58,-14,-43,-4,-73,-73,-73,-82,-87
-48,-68,-19,58,-14,-43,-4,-73,-73,-78,-82,-87
-48,-68,-19,58,-14,-43,-4,-68,-73,-82,-82,-87
-48,-68,-19,58,-14,-43,-4,-68,-73,-82,-82,-87
-48,-63,-14,56,-17,-39,-4,-68,-73,-82,-82,-87
-43,-63,-19,53,-12,-41,-4,-68,-73,-82,-82,-87
-43,-68,-24,56,-9,-46,-4,-68,-73,-82,-82,-87
-43,-68,-24,56,-9,-46,-4,-68,-68,-82,-82,-87
-43,-68,-24,56,-9,-46,-4,-68,-68,-82,-82,-87
-43,-68,-24,56,-9,-46,-4,-68,-73,-78,-82,-87
-43,-68,-24,56,-9,-46,-4,-68,-73,-73,-82,-87
-43,-68,-24,56,-9,-46,-4,-68,-73,-73,-82,-82
-43,-68,-24,56,-9,-46,-4,-68,-73,-73,-82,-78
-43,-68,-24,56,-9,-46,-4,-73,-73,-82,-82,-78
-43,-68,-24,56,-9,-46,-4,-73,-73,-87,-82,-78
-43,-73,-29,58,-7,-51,-4,-78,-73,-87,-82,-78
-43,-73,-29,58,-7,-51,-4,-87,-78,-87,-87,-82
-43,-73,-29,58,-7,-51,-4,-87,-78,-87,-92,-87
-43,-73,-29,58,-7,-51,-4,-87,-78,-87,-102,-92
-43,-73,-29,58,-7,-51,-4,-82,-78,-92,-102,-92
-48,-73,-24,61,-12,-48,-4,-82,-82,-92,-102,-97
-48,-78,-29,63,-9,-53,-4,-82,-82,-92,-97,-97
-48,-78,-29,63,-9,-53,-9,-87,-87,-97,-97,-97
-48,-82,-34,65,-7,-58,-9,-87,-87,-97,-97,-97
-48,-87,-39,68,-4,-63,-4,-87,-87,-97,-97,-102
-48,-87,-39,68,-4,-63,-4,-87,-87,-97,-102,-102
-48,-87,-39,68,-4,-63,-4,-87,-82,-97,-102,-102
-53,-82,-29,68,-12,-56,-4,-92,-87,-107,-102,-102
-53,-82,-29,68,-12,-56,-9,-92,-87,-107,-102,-97
-53,-82,-29,68,-12,-56,-9,-97,-87,-107,-107,-102
-58,-82,-24,70,-17,-53,-9,-97,-87,-107,-107,-102
-58,-82,-24,70,-17,-53,-9,-102,-87,-112,-112,-102
-58,-87,-29,73,-14,-58,-4,-102,-92,-112,-112,-102
-58,-87,-29,73,-14,-58,-4,-102,-92,-117,-117,-107
-58,-87,-29,73,-14,-58,-9,-107,-97,-122,-122,-112
-58,-87,-29,73,-14,-58,-14,-107,-97,-117,-117,-112
-58,-87,-29,73,-14,-58,-19,-107,-97,-117,-117,-117
-58,-87,-29,73,-14,-58,-19,-107,-102,-117,-122,-117
-58,-87,-29,73,-14,-58,-19,-107,-107,-117,-126,-117
-63,-92,-29,78,-17,-61,-19,-112,-107,-122,-126,-122
-63,-92,-29,78,-17,-61,-19,-112,-112,-122,-126,-122
-68,-97,-29,82,-19,-63,-19,-117,-117,-126,-126,-126
-68,-97,-29,82,-19,-63,-19,-117,-117,-126,-131,-126
-68,-97,-29,82,-19,-63,-19,-117,-117,-126,-131,-126
-68,-87,-19,78,-24,-53,-9,-107,-107,-122,-126,-122
-63,-73,-9,68,-26,-41,0,-97,-92,-107,-117,-107
-58,-53,4,56,-31,-24,4,-87,-82,-97,-107,-97
-48,-29,19,39,-34,-4,14,-78,-68,-82,-92,-87
-43,-19,24,31,-34,2,14,-73,-63,-73,-87,-82
-43,-19,24,31,-34,2,14,-73,-63,-73,-82,-78
-34,-19,14,26,-24,-2,4,-73,-63,-73,-82,-78
-29,-19,9,24,-19,-4,9,-78,-58,-73,-82,-78
-29,-14,14,21,-21,0,9,-78,-58,-68,-73,-73
-24,0,24,12,-24,12,4,-78,-43,-58,-63,-58
-9,24,34,-7,-21,29,4,-78,-29,-48,-53,-48
-4,29,34,-12,-19,31,-4,-73,-29,-48,-53,-43
0,34,34,-17,-17,34,-14,-78,-39,-48,-53,-43
0,19,19,-9,-9,19,-19,-82,-53,-63,-63,-58
0,9,9,-4,-4,9,-19,-82,-63,-63,-68,-63
0,14,14,-7,-7,14,-19,-82,-63,-63,-68,-63
0,19,19,-9,-9,19,-19,-82,-63,-63,-68,-63
-9,4,14,2,-12,9,-19,-78,-48,-63,-63,-63
-24,-14,9,19,-17,-2,-24,-92,-63,-82,-82,-78
-24,-43,-19,34,-2,-31,-39,-117,-102,-112,-107,-92
-29,-73,-43,51,7,-58,-48,-126,-126,-126,-126,-107
-39,-97,-58,68,9,-78,-48,-136,-136,-146,-146,-131
-53,-107,-53,80,0,-80,-39,-141,-136,-151,-151,-141
-63,-107,-43,85,-9,-75,-34,-136,-131,-151,-151,-141
-73,-117,-43,95,-14,-80,-34,-136,-131,-151,-151,-151
-73,-126,-53,100,-9,-90,-34,-136,-136,-151,-156,-151
-73,-126,-53,100,-9,-90,-34,-141,-146,-156,-165,-161
-73,-136,-63,104,-4,-100,-39,-151,-151,-165,-165,-156
-73,-141,-68,107,-2,-104,-39,-156,-151,-165,-165,-151
-73,-136,-63,104,-4,-100,-39,-156,-151,-161,-165,-151
-73,-136,-63,104,-4,-100,-39,-151,-151,-156,-165,-151
-78,-136,-58,107,-9,-97,-29,-146,-151,-156,-165,-151
-78,-141,-63,109,-7,-102,-24,-141,-151,-161,-165,-151
-78,-136,-58,107,-9,-97,-24,-136,-146,-161,-170,-156
-78,-131,-53,104,-12,-92,-24,-136,-141,-156,-175,-161
-82,-131,-48,107,-17,-90,-29,-141,-141,-156,-175,-165
-82,-141,-58,112,-12,-100,-29,-146,-141,-156,-175,-165
-87,-151,-63,119,-12,-107,-29,-146,-156,-165,-185,-175
-87,-165,-78,126,-4,-122,-24,-126,-156,-175,-190,-190
-97,-175,-78,136,-9,-126,-4,-82,-136,-170,-200,-195
-102,-151,-48,126,-26,-100,24,-14,-63,-107,-161,-170
-82,-141,-58,112,-12,-100,24,19,4,-39,-87,-141
-53,-112,-58,82,2,-85,53,122,112,68,14,-63
-4,-29,-24,17,9,-26,131,336,278,214,156,53
68,151,82,-109,-7,117,200,546,522,483,424,287
248,483,234,-366,7,358,209,775,922,966,956,741
351,751,400,-551,-24,575,209,951,1268,1405,1444,1156
429,936,507,-683,-39,722,107,946,1498,1766,1873,1522
429,1000,570,-714,-70,785,29,814,1517,1898,2044,1668
297,868,570,-583,-136,719,-29,395,1039,1351,1449,1259
107,727,619,-417,-256,673,-136,-165,458,741,819,834
-87,551,639,-231,-363,595,-312,-878,-263,87,219,429
-170,405,575,-117,-373,490,-370,-1112,-585,-253,-126,161
-151,326,478,-87,-314,402,-326,-902,-473,-214,-141,68
-131,234,366,-51,-248,300,-268,-688,-380,-190,-141,0
-92,156,248,-31,-170,202,-209,-517,-326,-195,-156,-29
-68,78,146,-4,-107,112,-156,-385,-287,-204,-170,-78
-68,24,92,21,-80,58,-112,-278,-248,-185,-170,-102
-73,-9,63,41,-68,26,-82,-214,-204,-165,-156,-112
-73,-39,34,56,-53,-2,-43,-156,-161,-141,-136,-102
-78,-73,4,75,-41,-34,-9,-112,-122,-122,-126,-102
-78,-82,-4,80,-36,-43,-4,-97,-122,-122,-131,-117
-78,-87,-9,82,-34,-48,-4,-92,-122,-126,-136,-117
-73,-87,-14,80,-29,-51,-4,-87,-122,-126,-141,-117
-73,-92,-19,82,-26,-56,0,-78,-112,-126,-146,-117
-73,-97,-24,85,-24,-61,0,-68,-102,-126,-141,-117
-73,-97,-24,85,-24,-61,0,-58,-97,-126,-136,-117
-73,-102,-29,87,-21,-65,4,-58,-97,-126,-136,-117
-68,-107,-39,87,-14,-73,4,-53,-97,-126,-136,-117
-63,-107,-43,85,-9,-75,4,-43,-87,-117,-136,-117
-63,-107,-43,85,-9,-75,4,-39,-82,-107,-131,-117
-58,-97,-39,78,-9,-68,4,-34,-82,-107,-126,-112
-58,-92,-34,75,-12,-63,4,-24,-73,-97,-117,-102
-43,-92,-48,68,2,-70,9,-19,-63,-97,-117,-102
-39,-92,-53,65,7,-73,9,-9,-63,-92,-112,-102
-39,-87,-48,63,4,-68,9,-4,-58,-87,-107,-102
-29,-82,-53,56,12,-68,9,4,-48,-78,-102,-102
-29,-82,-53,56,12,-68,9,9,-43,-78,-97,-97
-29,-78,-48,53,9,-63,14,19,-34,-68,-92,-87
-19,-73,-53,46,17,-63,14,34,-29,-58,-82,-82
-24,-63,-39,43,7,-51,19,43,-14,-48,-73,-78
-14,-63,-48,39,17,-56,19,48,-4,-43,-63,-68
-9,-68,-58,39,24,-63,19,63,4,-34,-58,-58
0,-58,-58,29,29,-58,19,73,14,-24,-48,-48
9,-48,-58,19,34,-53,24,92,24,-14,-39,-34
9,-43,-53,17,31,-48,24,112,39,0,-29,-29
14,-39,-53,12,34,-46,24,126,58,14,-9,-14
29,-29,-58,0,43,-43,24,146,68,24,4,-4
34,-19,-53,-7,43,-36,29,170,82,48,14,9
48,-9,-58,-19,53,-34,29,190,102,53,34,19
58,4,-53,-31,56,-24,29,214,112,73,58,43
73,14,-58,-43,65,-21,39,239,141,97,73,58
82,29,-53,-56,68,-12,43,258,165,117,92,68
97,39,-58,-68,78,-9,43,278,185,136,107,87
107,53,-53,-80,80,0,48,302,204,151,131,107
122,63,-58,-92,90,2,43,322,219,170,156,126
141,78,-63,-109,102,7,39,341,239,190,175,141
151,92,-58,-122,104,17,39,351,248,204,185,156
161,102,-58,-131,109,21,39,370,263,224,204,170
170,112,-58,-141,114,26,39,380,273,234,219,185
185,126,-58,-156,122,34,39,390,283,244,234,195
204,131,-73,-168,139,29,39,395,292,253,258,204
214,136,-78,-175,146,29,39,395,302,258,273,214
219,136,-82,-178,151,26,39,400,302,263,268,224
219,141,-78,-180,148,31,34,400,302,268,273,224
219,141,-78,-180,148,31,29,400,307,268,278,234
219,141,-78,-180,148,31,24,385,302,268,278,239
219,146,-73,-183,146,36,24,366,292,263,278,234
214,151,-63,-183,139,43,24,336,278,253,273,229
204,146,-58,-175,131,43,19,307,263,244,253,219
185,131,-53,-158,119,39,14,278,244,229,239,204
165,122,-43,-143,104,39,9,248,219,209,219,185
146,112,-34,-129,90,39,9,224,190,190,195,165
126,97,-29,-112,78,34,9,185,165,161,165,141
107,82,-24,-95,65,29,9,156,141,141,136,112
82,58,-24,-70,53,17,9,126,122,112,122,97
58,43,-14,-51,36,14,9,97,92,87,92,68
48,29,-19,-39,34,4,4,63,63,63,58,48
29,9,-19,-19,24,-4,4,34,43,39,39,29
9,-14,-24,2,17,-19,4,19,24,24,14,9
-4,-34,-29,19,12,-31,4,0,4,4,-9,-4
-14,-43,-29,29,7,-36,4,-9,-9,-14,-24,-24
-19,-48,-29,34,4,-39,4,-24,-24,-29,-34,-39
-24,-58,-34,41,4,-46,0,-39,-29,-39,-43,-43
-29,-63,-34,46,2,-48,0,-48,-39,-48,-53,-48
-43,-63,-19,53,-12,-41,0,-53,-43,-53,-63,-53
-48,-68,-19,58,-14,-43,0,-58,-48,-63,-63,-68
-48,-73,-24,61,-12,-48,-4,-63,-48,-63,-73,-73
-48,-73,-24,61,-12,-48,-9,-63,-58,-63,-78,-78
-53,-78,-24,65,-14,-51,-9,-68,-63,-68,-78,-78
-58,-78,-19,68,-19,-48,-9,-68,-68,-73,-82,-82
-53,-78,-24,65,-14,-51,-9,-73,-73,-73,-82,-87
-48,-82,-34,65,-7,-58,-9,-73,-73,-73,-87,-87
-48,-78,-29,63,-9,-53,-9,-73,-73,-73,-87,-92
-48,-73,-24,61,-12,-48,-4,-73,-73,-73,-87,-92
-48,-68,-19,58,-14,-43,-4,-73,-68,-73,-87,-87
-48,-68,-19,58,-14,-43,-4,-73,-63,-73,-92,-87
-48,-73,-24,61,-12,-48,-4,-68,-63,-73,-92,-87
-48,-78,-29,63,-9,-53,-4,-68,-63,-73,-92,-87
-48,-73,-24,61,-12,-48,-4,-68,-68,-73,-92,-82
-43,-73,-29,58,-7,-51,-4,-68,-73,-73,-92,-78
-43,-73,-29,58,-7,-51,-4,-68,-73,-73,-87,-78
-43,-68,-24,56,-9,-46,-4,-68,-68,-73,-82,-78
-43,-68,-24,56,-9,-46,-4,-68,-68,-73,-82,-78
-43,-68,-24,56,-9,-46,-4,-68,-73,-73,-82,-78
-43,-68,-24,56,-9,-46,-4,-68,-73,-73,-82,-78
-43,-68,-24,56,-9,-46,-4,-68,-73,-73,-82,-78
-43,-68,-24,56,-9,-46,-4,-68,-73,-73,-82,-78
-43,-68,-24,56,-9,-46,-4,-73,-73,-78,-82,-78
-48,-68,-19,58,-14,-43,-4,-73,-73,-78,-82,-78
-53,-73,-19,63,-17,-46,-4,-73,-73,-78,-82,-78
-53,-73,-19,63,-17,-46,-4,-78,-78,-78,-87,-78
-53,-73,-19,63,-17,-46,-4,-78,-78,-78,-87,-73
-48,-78,-29,63,-9,-53,-4,-78,-82,-78,-92,-73
-43,-82,-39,63,-2,-61,-4,-78,-87,-82,-92,-73
-48,-82,-34,65,-7,-58,-4,-82,-92,-82,-92,-82
-48,-87,-39,68,-4,-63,-4,-82,-92,-82,-92,-87
-48,-87,-39,68,-4,-63,-9,-87,-97,-87,-97,-87
-48,-87,-39,68,-4,-63,-9,-87,-97,-87,-97,-87
-48,-87,-39,68,-4,-63,-4,-87,-97,-87,-97,-92
-48,-87,-39,68,-4,-63,-4,-87,-102,-87,-102,-92
-48,-87,-39,68,-4,-63,-4,-87,-102,-87,-102,-92
-53,-87,-34,70,-9,-61,-4,-92,-107,-97,-102,-97
-53,-87,-34,70,-9,-61,-9,-92,-107,-97,-102,-97
-53,-82,-29,68,-12,-56,-9,-97,-107,-97,-107,-102
-58,-82,-24,70,-17,-53,-9,-97,-107,-97,-107,-102
-58,-82,-24,70,-17,-53,-9,-102,-107,-102,-112,-102
-58,-82,-24,70,-17,-53,-4,-102,-112,-102,-112,-102
-58,-87,-29,73,-14,-58,-4,-102,-112,-102,-117,-102
-58,-87,-29,73,-14,-58,-9,-102,-112,-107,-117,-107
-58,-87,-29,73,-14,-58,-9,-107,-117,-107,-117,-107
-58,-87,-29,73,-14,-58,-9,-107,-117,-107,-117,-107
-58,-87,-29,73,-14,-58,-9,-107,-117,-107,-117,-107
-58,-87,-29,73,-14,-58,-9,-107,-117,-112,-117,-107
-58,-87,-29,73,-14,-58,-9,-107,-117,-117,-117,-107
-63,-92,-29,78,-17,-61,-9,-107,-122,-117,-122,-107
-68,-97,-29,82,-19,-63,-9,-107,-126,-117,-126,-107
-68,-97,-29,82,-19,-63,-9,-107,-126,-117,-126,-107
-68,-97,-29,82,-19,-63,-9,-107,-126,-117,-122,-107
-68,-97,-29,82,-19,-63,-9,-107,-126,-117,-122,-112
-68,-97,-29,82,-19,-63,-9,-107,-122,-117,-122,-117
-68,-97,-29,82,-19,-63,-9,-107,-117,-117,-122,-117
-68,-92,-24,80,-21,-58,-9,-107,-117,-117,-122,-117
-68,-73,-4,70,-31,-39,0,-97,-107,-112,-117,-112
-63,-53,9,58,-36,-21,9,-87,-92,-97,-107,-97
-58,-34,24,46,-41,-4,14,-78,-82,-87,-97,-87
-48,-19,29,34,-39,4,24,-68,-73,-78,-87,-82
-39,-19,19,29,-29,0,24,-63,-73,-73,-87,-82
-34,-19,14,26,-24,-2,24,-63,-73,-73,-82,-78
-24,-19,4,21,-14,-7,14,-63,-78,-73,-82,-78
-19,-14,4,17,-12,-4,14,-68,-78,-73,-82,-78
-24,-4,19,14,-21,7,9,-68,-78,-68,-73,-73
-24,9,34,7,-29,21,4,-68,-68,-58,-63,-58
-9,34,43,-12,-26,39,4,-68,-58,-48,-53,-48
0,34,34,-17,-17,34,-4,-68,-58,-48,-53,-43
9,34,24,-21,-7,29,-14,-78,-68,-48,-48,-43
9,19,9,-14,0,14,-19,-82,-78,-63,-53,-53
9,4,-4,-7,7,0,-19,-82,-78,-63,-58,-48
4,0,-4,-2,4,-2,-19,-82,-73,-63,-58,-43
4,0,-4,-2,4,-2,-19,-82,-73,-63,-63,-43
0,-19,-19,9,9,-19,-19,-82,-73,-68,-68,-53
-14,-43,-29,29,7,-36,-24,-102,-102,-92,-92,-78
-19,-73,-53,46,17,-63,-34,-126,-131,-122,-117,-92
-29,-102,-73,65,21,-87,-39,-136,-146,-136,-136,-107
-39,-117,-78,78,19,-97,-39,-141,-156,-151,-151,-122
-58,-117,-58,87,0,-87,-29,-141,-156,-151,-151,-122
-73,-117,-43,95,-14,-80,-24,-136,-151,-151,-151,-122
-82,-126,-43,104,-19,-85,-24,-136,-151,-151,-151,-136
-82,-136,-53,109,-14,-95,-24,-136,-151,-151,-156,-141
-82,-136,-53,109,-14,-95,-24,-141,-156,-156,-165,-151
-82,-141,-58,112,-12,-100,-29,-146,-161,-165,-165,-151
-82,-141,-58,112,-12,-100,-29,-146,-161,-165,-165,-151
-82,-136,-53,109,-14,-95,-29,-146,-161,-161,-165,-151
-82,-131,-48,107,-17,-90,-29,-141,-161,-156,-165,-146
-87,-126,-39,107,-24,-82,-24,-141,-161,-156,-165,-141
-87,-131,-43,109,-21,-87,-24,-141,-156,-161,-165,-141
-87,-131,-43,109,-21,-87,-24,-136,-151,-161,-165,-141
-87,-131,-43,109,-21,-87,-24,-136,-151,-156,-165,-141
-92,-131,-39,112,-26,-85,-24,-136,-151,-156,-165,-146
-92,-141,-48,117,-21,-95,-19,-136,-156,-161,-165,-146
-97,-146,-48,122,-24,-97,-14,-126,-156,-165,-170,-151
-97,-156,-58,126,-19,-107,-4,-112,-151,-175,-180,-170
-97,-156,-58,126,-19,-107,19,-63,-122,-151,-165,-165
-97,-126,-29,112,-34,-78,53,24,-24,-58,-97,-122
-68,-87,-19,78,-24,-53,63,97,68,34,-4,-58
-29,-34,-4,31,-12,-19,102,239,200,156,102,34
48,82,34,-65,7,58,161,453,409,356,302,195
156,307,151,-231,2,229,219,673,697,688,649,492
312,590,278,-451,17,434,204,834,1019,1093,1098,883
405,829,424,-617,-9,627,170,946,1317,1493,1551,1273
439,932,492,-685,-26,712,58,834,1376,1644,1761,1468
400,893,492,-646,-46,692,-39,624,1229,1566,1717,1449
268,761,492,-514,-112,627,-122,175,732,1034,1161,1073
43,614,570,-329,-263,592,-248,-512,43,341,453,600
-102,458,561,-178,-331,509,-370,-1024,-497,-151,0,278
-126,336,463,-104,-295,400,-370,-1019,-590,-278,-141,122
-112,268,380,-78,-246,324,-312,-805,-478,-239,-146,48
-97,185,283,-43,-190,234,-239,-570,-380,-209,-131,4
-78,112,190,-17,-134,151,-180,-429,-326,-204,-141,-24
-68,39,107,14,-87,73,-126,-322,-278,-204,-151,-73
-68,-4,63,36,-65,29,-87,-234,-229,-185,-151,-92
-73,-29,43,51,-58,7,-58,-190,-185,-161,-136,-92
-73,-53,19,63,-46,-17,-24,-136,-156,-141,-126,-92
-78,-82,-4,80,-36,-43,0,-97,-131,-126,-122,-102
-78,-87,-9,82,-34,-48,4,-82,-131,-122,-122,-117
-78,-87,-9,82,-34,-48,4,-82,-131,-126,-126,-117
-73,-87,-14,80,-29,-51,4,-78,-131,-126,-126,-117
-68,-92,-24,80,-21,-58,9,-68,-122,-126,-131,-117
-63,-97,-34,80,-14,-65,9,-58,-112,-122,-131,-117
-63,-97,-34,80,-14,-65,9,-48,-102,-117,-126,-117
-63,-97,-34,80,-14,-65,14,-48,-97,-117,-126,-117
-58,-97,-39,78,-9,-68,14,-43,-97,-117,-126,-117
-53,-97,-43,75,-4,-70,14,-34,-87,-112,-126,-117
-53,-97,-43,75,-4,-70,14,-29,-82,-107,-122,-117
-48,-92,-43,70,-2,-68,14,-24,-82,-107,-117,-112
-53,-92,-39,73,-7,-65,14,-14,-78,-97,-102,-97
-48,-92,-43,70,-2,-68,19,-9,-73,-97,-97,-92
-48,-92,-43,70,-2,-68,24,4,-73,-92,-92,-92
-48,-87,-39,68,-4,-63,29,14,-68,-87,-87,-87
-39,-82,-43,61,2,-63,29,24,-58,-78,-82,-82
-39,-82,-43,61,2,-63,29,29,-53,-78,-78,-78
-39,-78,-39,58,0,-58,34,34,-39,-68,-78,-68
-24,-73,-48,48,12,-61,34,43,-29,-58,-73,-63
-24,-63,-39,43,7,-51,39,53,-14,-48,-63,-58
-14,-58,-43,36,14,-51,39,63,-4,-43,-53,-48
-9,-63,-53,36,21,-58,39,82,4,-34,-43,-39
0,-58,-58,29,29,-58,39,92,14,-24,-29,-34
9,-48,-58,19,34,-53,39,112,24,-14,-19,-24
14,-43,-58,14,36,-51,34,131,39,0,-9,-19
24,-39,-63,7,43,-51,34,146,58,14,9,-4
39,-29,-68,-4,53,-48,34,165,73,24,24,4
39,-14,-53,-12,46,-34,43,190,92,48,29,14
48,0,-48,-24,48,-24,48,209,112,53,43,19
58,14,-43,-36,51,-14,48,234,122,73,68,43
73,24,-48,-48,61,-12,53,258,146,97,82,58
82,39,-43,-61,63,-2,53,278,165,117,102,68
97,48,-48,-73,73,0,53,297,185,136,117,87
107,63,-43,-85,75,9,58,322,204,151,141,107
122,73,-48,-97,85,12,58,341,219,170,161,126
141,78,-63,-109,102,7,58,366,244,190,175,146
151,82,-68,-117,109,7,58,375,258,200,185,161
161,102,-58,-131,109,21,63,390,273,219,204,170
170,117,-53,-143,112,31,68,400,283,234,219,185
185,126,-58,-156,122,34,68,409,287,244,234,190
195,131,-63,-163,129,34,63,414,287,248,244,195
200,136,-63,-168,131,36,58,414,292,253,253,204
209,136,-73,-173,141,31,58,414,292,258,253,214
209,141,-68,-175,139,36,53,409,292,258,253,214
209,141,-68,-175,139,36,48,405,292,258,258,219
214,141,-73,-178,143,34,39,390,283,258,258,219
214,141,-73,-178,143,34,34,375,273,253,253,214
204,146,-58,-175,131,43,34,346,268,244,248,214
195,146,-48,-170,122,48,29,317,263,229,234,209
175,131,-43,-153,109,43,24,287,244,209,219,195
