I,II,III,aVR,aVL,aVF,V1,V2,V3,V4,V5,V6,
-43,39,82,2,-63,61,24,-48,-29,-9,-29,43
-39,39,78,0,-58,58,24,-48,-24,-9,-19,43
-39,39,78,0,-58,58,29,-48,-19,-4,-19,43
-39,43,82,-2,-61,63,29,-43,-19,-4,-19,43
-29,43,73,-7,-51,58,24,-43,-14,4,-9,53
-29,43,73,-7,-51,58,24,-43,-14,4,-9,53
-29,48,78,-9,-53,63,24,-43,-14,4,-9,53
-29,48,78,-9,-53,63,19,-43,-14,4,-9,53
-24,58,82,-17,-53,70,9,-53,-24,0,-9,48
-24,58,82,-17,-53,70,-4,-53,-24,0,-9,48
-24,58,82,-17,-53,70,-19,-63,-24,0,-9,48
-19,58,78,-19,-48,68,-24,-63,-24,0,-9,48
-29,78,107,-24,-68,92,-29,-78,-24,0,-9,58
-34,78,112,-21,-73,95,-43,-82,-24,0,-9,63
-34,78,112,-21,-73,95,-48,-82,-24,4,-4,63
-24,92,117,-34,-70,104,-48,-82,-24,4,0,68
-9,82,92,-36,-51,87,-48,-82,-24,-4,-4,68
4,87,82,-46,-39,85,-53,-82,-24,0,-4,63
9,87,78,-48,-34,82,-53,-82,-24,0,-9,63
14,78,63,-46,-24,70,-58,-82,-34,0,-14,58
4,68,63,-36,-29,65,-48,-87,-39,4,-9,53
4,63,58,-34,-26,61,-48,-87,-43,0,-14,53
4,58,53,-31,-24,56,-48,-87,-48,-4,-14,43
-4,53,58,-24,-31,56,-48,-87,-48,-9,-19,39
-9,39,48,-14,-29,43,-29,-78,-53,-14,-34,29
-19,34,53,-7,-36,43,-24,-78,-58,-14,-34,29
-19,29,48,-4,-34,39,-19,-82,-63,-19,-39,24
-19,29,48,-4,-34,39,-19,-82,-63,-24,-39,24
-9,24,34,-7,-21,29,-24,-92,-63,-24,-29,34
-9,19,29,-4,-19,24,-29,-92,-68,-24,-29,34
-9,9,19,0,-14,14,-34,-92,-73,-29,-39,29
-9,4,14,2,-12,9,-39,-97,-78,-34,-43,29
-14,14,29,0,-21,21,-43,-87,-78,-34,-43,19
-14,14,29,0,-21,21,-43,-87,-73,-34,-39,19
-14,14,29,0,-21,21,-43,-87,-73,-34,-39,19
-14,14,29,0,-21,21,-43,-87,-73,-34,-39,19
-9,14,24,-2,-17,19,-39,-92,-82,-29,-39,29
-9,19,29,-4,-19,24,-39,-97,-82,-29,-39,29
-14,19,34,-2,-24,26,-39,-107,-92,-39,-43,29
-14,4,19,4,-17,12,-39,-112,-97,-39,-43,29
-19,-4,14,12,-17,4,-29,-102,-92,-43,-48,19
-24,-9,14,17,-19,2,-24,-107,-92,-48,-48,19
-29,-24,4,26,-17,-9,-19,-107,-97,-48,-53,19
-34,-24,9,29,-21,-7,-19,-107,-102,-53,-58,9
-34,-19,14,26,-24,-2,-29,-107,-102,-68,-68,0
-39,-14,24,26,-31,4,-24,-107,-102,-68,-73,0
-43,-9,34,26,-39,12,-14,-107,-102,-68,-73,0
-48,-9,39,29,-43,14,-14,-102,-102,-68,-73,-4
-53,-19,34,36,-43,7,-9,-102,-102,-58,-73,-4
-58,-29,29,43,-43,0,-9,-102,-102,-63,-73,-4
-63,-34,29,48,-46,-2,-9,-112,-102,-63,-78,-4
-68,-39,29,53,-48,-4,-9,-117,-102,-63,-78,-9
-73,-34,39,53,-56,2,-19,-117,-112,-73,-78,-9
-78,-29,48,53,-63,9,-14,-117,-112,-73,-78,-14
-78,-24,53,51,-65,14,-14,-117,-112,-73,-87,-14
-73,-19,53,46,-63,17,-14,-117,-117,-82,-87,-19
-73,-14,58,43,-65,21,-4,-107,-107,-73,-82,-19
-73,-14,58,43,-65,21,-4,-107,-102,-68,-82,-14
-73,-24,48,48,-61,12,-4,-102,-102,-63,-82,-14
-73,-24,48,48,-61,12,-4,-102,-102,-63,-82,-14
-73,-14,58,43,-65,21,-4,-112,-102,-63,-78,-9
-73,-9,63,41,-68,26,-4,-112,-102,-63,-78,-9
-73,-9,63,41,-68,26,-4,-112,-102,-63,-78,-9
-73,-9,63,41,-68,26,0,-112,-97,-63,-78,-9
-73,-19,53,46,-63,17,0,-102,-97,-68,-78,-19
-78,-19,58,48,-68,19,0,-102,-97,-68,-78,-19
-78,-24,53,51,-65,14,0,-102,-97,-68,-78,-19
-78,-24,53,51,-65,14,4,-102,-97,-68,-78,-19
-78,-34,43,56,-61,4,4,-102,-87,-58,-73,-14
-78,-29,48,53,-63,9,4,-97,-82,-53,-68,-9
-78,-29,48,53,-63,9,4,-92,-82,-53,-68,-4
-78,-29,48,53,-63,9,4,-92,-82,-53,-68,0
-87,-14,73,51,-80,29,4,-107,-82,-43,-63,0
-78,-14,63,46,-70,24,14,-97,-73,-43,-63,0
-78,-14,63,46,-70,24,19,-82,-78,-53,-63,0
-92,-14,78,53,-85,31,29,-78,-78,-53,-73,-9
-102,9,112,46,-107,61,34,-87,-68,-53,-63,-9
-107,24,131,41,-119,78,43,-82,-53,-34,-53,-4
-107,24,131,41,-119,78,63,-48,-24,-4,-39,9
-107,34,141,36,-124,87,82,-9,19,19,-29,24
-107,43,151,31,-129,97,97,24,53,39,-9,29
-97,43,141,26,-119,92,102,68,97,68,0,39
-82,19,102,31,-92,61,112,97,136,92,9,39
-53,-4,48,29,-51,21,112,131,156,112,34,53
-19,4,24,7,-21,14,122,170,204,156,73,78
24,48,24,-36,0,36,126,248,292,239,136,126
87,87,0,-87,43,43,146,370,409,331,204,180
165,73,-92,-119,129,-9,170,551,527,400,258,209
239,63,-175,-151,207,-56,190,697,634,453,292,229
322,107,-214,-214,268,-53,190,785,751,522,346,278
409,170,-239,-290,324,-34,131,839,868,639,453,361
522,224,-297,-373,409,-36,29,824,917,722,541,463
605,273,-331,-439,468,-29,-58,751,888,746,590,512
658,312,-346,-485,502,-17,-117,653,824,732,619,541
732,375,-356,-553,544,9,-239,541,732,712,644,595
790,400,-390,-595,590,4,-351,434,585,619,614,610
810,346,-463,-578,636,-58,-400,341,385,448,488,531
790,273,-517,-531,653,-122,-409,204,151,234,326,409
727,214,-512,-470,619,-148,-453,-4,-82,34,180,307
624,151,-473,-387,549,-161,-483,-224,-273,-102,58,214
473,112,-361,-292,417,-124,-483,-409,-419,-209,-29,136
297,92,-204,-195,251,-56,-448,-570,-541,-287,-92,97
107,53,-53,-80,80,0,-390,-692,-629,-331,-131,68
-34,-14,19,24,-26,2,-341,-790,-707,-385,-185,4
-122,-73,48,97,-85,-12,-317,-854,-810,-478,-283,-78
-156,-126,29,141,-92,-48,-292,-834,-893,-546,-361,-146
-146,-156,-9,151,-68,-82,-253,-707,-863,-536,-366,-180
-146,-185,-39,165,-53,-112,-190,-570,-785,-497,-356,-195
-146,-209,-63,178,-41,-136,-131,-463,-736,-483,-366,-204
-136,-209,-73,173,-31,-141,-97,-375,-697,-473,-366,-214
-117,-200,-82,158,-17,-141,-73,-283,-634,-453,-346,-204
-112,-204,-92,158,-9,-148,-34,-195,-566,-405,-317,-190
-92,-214,-122,153,14,-168,34,-87,-473,-346,-278,-156
-58,-190,-131,124,36,-161,92,19,-375,-283,-234,-141
-34,-156,-122,95,43,-139,122,107,-297,-229,-190,-122
-34,-117,-82,75,24,-100,126,146,-244,-180,-170,-112
-34,-107,-73,70,19,-90,126,146,-204,-165,-161,-102
-14,-97,-82,56,34,-90,131,156,-190,-151,-161,-82
4,-87,-92,41,48,-90,112,165,-156,-122,-136,-63
4,-78,-82,36,43,-80,87,156,-131,-97,-112,-48
0,-63,-63,31,31,-63,68,131,-112,-87,-97,-43
0,-39,-39,19,19,-39,63,97,-97,-78,-82,-24
-14,-29,-14,21,0,-21,53,63,-78,-68,-78,-14
-29,-9,19,19,-24,4,39,34,-78,-53,-73,-14
-34,-4,29,19,-31,12,34,14,-68,-48,-63,-14
-43,-9,34,26,-39,12,24,0,-63,-34,-53,-9
-39,-9,29,24,-34,9,19,-4,-39,-24,-43,4
-39,-9,29,24,-34,9,19,-9,-39,-19,-43,4
-39,-9,29,24,-34,9,19,-9,-34,-14,-43,4
-39,-9,29,24,-34,9,19,-9,-29,-9,-34,9
-39,0,39,19,-39,19,19,-9,-14,-9,-24,19
-39,4,43,17,-41,24,19,-9,-14,-4,-24,19
-39,4,43,17,-41,24,19,-9,-9,0,-24,24
-39,9,48,14,-43,29,19,-9,-9,0,-19,24
-43,9,53,17,-48,31,9,-9,-19,0,-29,14
-43,14,58,14,-51,36,4,-9,-14,0,-29,19
-43,14,58,14,-51,36,4,-9,-14,4,-29,19
-39,14,53,12,-46,34,4,-14,-14,4,-24,19
-29,14,43,7,-36,29,9,-4,-14,14,-14,29
-24,14,39,4,-31,26,9,-4,-4,14,-14,29
-24,14,39,4,-31,26,9,0,0,19,-9,34
-24,19,43,2,-34,31,9,0,0,24,-9,34
-34,19,53,7,-43,36,9,0,0,19,-9,29
-34,19,53,7,-43,36,9,0,4,19,-4,29
-29,24,53,2,-41,39,9,0,4,19,-4,29
-29,24,53,2,-41,39,9,0,4,19,-4,29
-29,24,53,2,-41,39,9,4,14,29,-4,29
-19,24,43,-2,-31,34,9,4,14,34,0,29
-19,24,43,-2,-31,34,9,9,19,34,0,29
-19,29,48,-4,-34,39,4,9,19,34,0,34
-19,29,48,-4,-34,39,-4,0,19,34,0,34
-19,34,53,-7,-36,43,-4,0,24,34,4,34
-19,34,53,-7,-36,43,-4,4,24,39,4,39
-19,34,53,-7,-36,43,-4,9,29,43,4,39
-19,39,58,-9,-39,48,9,9,19,43,9,48
-19,39,58,-9,-39,48,9,19,24,48,9,48
-19,39,58,-9,-39,48,9,19,24,48,9,48
-14,39,53,-12,-34,46,4,14,24,43,9,53
-14,48,63,-17,-39,56,4,14,24,39,0,43
-9,48,58,-19,-34,53,4,14,29,39,4,43
-9,48,58,-19,-34,53,4,24,39,43,9,48
-9,53,63,-21,-36,58,4,29,39,43,14,53
0,43,43,-21,-21,43,4,39,43,53,14,53
4,43,39,-24,-17,41,4,43,48,53,14,53
4,43,39,-24,-17,41,4,43,48,53,14,53
9,43,34,-26,-12,39,0,43,58,63,19,53
9,48,39,-29,-14,43,-9,43,58,63,19,58
4,58,53,-31,-24,56,-9,48,58,63,24,58
0,63,63,-31,-31,63,-19,53,63,63,24,63
0,68,68,-34,-34,68,-9,63,63,63,29,63
14,63,48,-39,-17,56,-9,63,82,82,43,63
19,63,43,-41,-12,53,-9,68,87,87,43,68
19,58,39,-39,-9,48,-19,73,92,87,43,68
19,58,39,-39,-9,48,-19,73,92,97,48,73
19,73,53,-46,-17,63,-24,82,87,102,39,63
24,73,48,-48,-12,61,-24,82,92,97,43,68
29,73,43,-51,-7,58,-19,82,97,92,43,68
34,78,43,-56,-4,61,-19,92,102,92,53,78
34,78,43,-56,-4,61,-24,102,107,107,58,92
34,78,43,-56,-4,61,-24,107,112,112,63,92
39,82,43,-61,-2,63,-24,112,122,112,68,92
43,92,48,-68,-2,70,-29,117,126,112,68,97
48,97,48,-73,0,73,-29,131,141,131,73,102
58,97,39,-78,9,68,-29,141,146,136,82,107
63,97,34,-80,14,65,-39,146,156,141,87,112
63,107,43,-85,9,75,-39,151,161,146,87,117
68,131,63,-100,2,97,-53,151,156,151,97,117
73,136,63,-104,4,100,-58,156,165,156,102,122
78,136,58,-107,9,97,-58,161,175,165,107,126
82,136,53,-109,14,95,-58,180,180,175,112,131
97,141,43,-119,26,92,-53,185,185,170,117,136
102,161,58,-131,21,109,-63,195,190,175,122,141
112,175,63,-143,24,119,-63,195,200,180,126,146
112,180,68,-146,21,124,-63,204,209,195,136,151
122,180,58,-151,31,119,-68,224,219,200,151,156
126,185,58,-156,34,122,-68,234,229,204,156,161
131,175,43,-153,43,109,-68,248,239,219,161,165
136,170,34,-153,51,102,-68,258,248,229,170,170
141,180,39,-161,51,109,-78,258,258,234,180,170
151,190,39,-170,56,114,-78,268,268,244,180,175
156,195,39,-175,58,117,-87,273,278,258,185,190
161,204,43,-183,58,124,-92,283,287,258,185,195
170,204,34,-187,68,119,-107,302,287,273,200,200
175,219,43,-197,65,131,-112,307,297,273,204,204
180,224,43,-202,68,134,-112,317,307,287,219,209
190,224,34,-207,78,129,-117,326,317,297,229,214
190,244,53,-217,68,148,-112,326,336,297,224,214
195,253,58,-224,68,156,-117,326,336,297,229,219
200,268,68,-234,65,168,-122,331,341,302,234,224
204,268,63,-236,70,165,-122,336,346,312,239,229
219,258,39,-239,90,148,-122,346,346,322,244,244
224,258,34,-241,95,146,-122,351,361,331,253,248
229,268,39,-248,95,153,-131,356,361,331,258,248
234,278,43,-256,95,161,-131,356,361,331,263,258
229,292,63,-261,82,178,-131,356,366,336,263,258
229,292,63,-261,82,178,-131,361,370,341,268,258
229,297,68,-263,80,183,-136,361,370,341,268,263
229,297,68,-263,80,183,-141,361,370,341,268,263
244,292,48,-268,97,170,-141,361,370,336,258,258
244,297,53,-270,95,175,-141,361,370,336,263,258
244,297,53,-270,95,175,-141,361,370,336,263,258
244,292,48,-268,97,170,-146,361,370,336,263,258
234,292,58,-263,87,175,-146,351,370,346,273,273
234,292,58,-263,87,175,-151,336,366,346,273,273
234,297,63,-265,85,180,-151,331,361,341,273,273
234,297,63,-265,85,180,-146,317,356,336,268,273
234,287,53,-261,90,170,-146,322,351,336,268,273
234,287,53,-261,90,170,-146,317,346,331,263,263
224,283,58,-253,82,170,-146,307,341,326,263,258
219,278,58,-248,80,168,-141,297,336,322,258,258
204,268,63,-236,70,165,-122,278,322,317,244,244
190,263,73,-226,58,168,-122,268,317,302,234,234
190,258,68,-224,61,163,-122,248,302,292,229,224
175,258,82,-217,46,170,-122,244,292,287,214,224
165,244,78,-204,43,161,-117,234,273,268,209,219
161,224,63,-192,48,143,-107,229,263,258,204,214
151,214,63,-183,43,139,-102,214,248,248,195,200
141,209,68,-175,36,139,-97,200,234,229,185,190
131,190,58,-161,36,124,-82,185,229,224,165,180
122,180,58,-151,31,119,-78,170,214,214,151,170
112,170,58,-141,26,114,-73,161,200,209,146,161
102,161,58,-131,21,109,-68,146,185,200,131,151
87,146,58,-117,14,102,-73,136,170,175,117,131
78,151,73,-114,2,112,-68,122,156,156,97,122
73,146,73,-109,0,109,-63,112,136,146,92,112
63,141,78,-102,-7,109,-58,102,131,122,82,102
53,131,78,-92,-12,104,-48,92,126,112,78,97
53,117,63,-85,-4,90,-43,78,122,112,73,92
43,102,58,-73,-7,80,-39,68,107,107,68,97
34,87,53,-61,-9,70,-34,58,97,102,58,87
24,87,63,-56,-19,75,-34,58,82,82,43,68
19,82,63,-51,-21,73,-29,48,78,73,34,68
9,73,63,-41,-26,68,-19,43,68,68,29,63
9,73,63,-41,-26,68,-19,34,53,58,19,53
-4,58,63,-26,-34,61,-9,29,58,53,14,53
-14,43,58,-14,-36,51,-4,19,48,53,9,48
-14,43,58,-14,-36,51,-4,14,39,48,0,43
-19,34,53,-7,-36,43,-4,9,34,53,-4,39
-24,29,53,-2,-39,41,-9,4,34,34,0,29
-29,24,53,2,-41,39,-4,0,24,34,0,24
-34,19,53,7,-43,36,-4,-4,19,24,-4,19
-39,9,48,14,-43,29,4,-4,14,19,-14,14
-34,14,48,9,-41,31,14,-4,0,14,-14,19
-34,14,48,9,-41,31,14,-14,-4,9,-19,14
-34,9,43,12,-39,26,14,-14,-9,4,-24,9
-43,9,53,17,-48,31,14,-19,-9,0,-24,9
-43,-4,39,24,-41,17,14,-9,-4,9,-24,0
-43,-4,39,24,-41,17,14,-14,-9,9,-29,0
-48,-4,43,26,-46,19,19,-14,-9,4,-29,0
-48,-14,34,31,-41,9,24,-9,-14,4,-29,-4
-53,-4,48,29,-51,21,19,-14,-14,-4,-34,4
-53,-4,48,29,-51,21,14,-14,-19,-9,-39,4
-58,-9,48,34,-53,19,9,-24,-19,-9,-39,0
-58,-9,48,34,-53,19,4,-24,-19,-9,-39,0
-58,0,58,29,-58,29,14,-29,-24,-19,-48,-4
-58,0,58,29,-58,29,14,-29,-24,-19,-48,-9
-58,-4,53,31,-56,24,19,-29,-24,-24,-48,-14
-63,-9,53,36,-58,21,19,-29,-24,-29,-48,-19
-63,-14,48,39,-56,17,29,-19,-14,-24,-39,-14
-63,-19,43,41,-53,12,24,-19,-14,-14,-39,-9
-63,-24,39,43,-51,7,24,-19,-14,-9,-39,-9
-63,-29,34,46,-48,2,24,-19,-14,-9,-43,-4
-53,-19,34,36,-43,7,24,-19,-14,-19,-53,-14
-53,-19,34,36,-43,7,24,-19,-14,-19,-53,-14
-53,-24,29,39,-41,2,24,-24,-19,-19,-48,-14
-53,-24,29,39,-41,2,29,-24,-19,-19,-48,-14
-63,-14,48,39,-56,17,19,-34,-19,-4,-39,-4
-63,-14,48,39,-56,17,19,-34,-19,-4,-39,-4
-63,-14,48,39,-56,17,19,-34,-19,-9,-39,-4
-63,-14,48,39,-56,17,19,-34,-19,-9,-43,-4
-53,-4,48,29,-51,21,9,-34,-19,-19,-53,-19
-53,0,53,26,-53,26,4,-34,-19,-19,-53,-19
-53,4,58,24,-56,31,4,-34,-19,-19,-53,-14
-58,9,68,24,-63,39,4,-34,-14,-19,-53,-14
-68,9,78,29,-73,43,14,-39,-14,-9,-48,-4
-68,4,73,31,-70,39,19,-39,-14,-9,-43,-4
-68,-4,63,36,-65,29,24,-39,-14,-9,-39,-4
-68,-9,58,39,-63,24,24,-39,-14,-9,-34,-4
-68,-9,58,39,-63,24,24,-29,-14,-9,-48,-14
-68,-9,58,39,-63,24,24,-29,-14,-9,-48,-14
-68,-9,58,39,-63,24,24,-29,-14,-9,-43,-14
-68,-9,58,39,-63,24,19,-29,-14,-9,-43,-14
-58,-9,48,34,-53,19,19,-29,-14,-9,-39,-4
-53,-9,43,31,-48,17,24,-24,-14,-4,-39,-4
-53,-14,39,34,-46,12,24,-24,-9,-4,-43,-4
-53,-14,39,34,-46,12,24,-29,-9,-4,-43,-4
-53,0,53,26,-53,26,24,-29,-9,-14,-43,-14
-53,0,53,26,-53,26,24,-24,-9,-14,-43,-14
-53,0,53,26,-53,26,24,-24,-9,-14,-39,-9
-53,0,53,26,-53,26,19,-24,-9,-9,-39,-9
-53,-9,43,31,-48,17,19,-24,-9,-9,-43,-9
-53,-4,48,29,-51,21,19,-29,-4,-9,-43,-9
-58,-4,53,31,-56,24,14,-29,-4,-9,-48,-9
-58,0,58,29,-58,29,14,-29,-4,-9,-48,-9
-68,-9,58,39,-63,24,29,-29,4,0,-39,-9
-68,-19,48,43,-58,14,29,-29,4,0,-34,-4
-68,-9,58,39,-63,24,29,-29,4,0,-34,-4
-68,-9,58,39,-63,24,24,-29,4,0,-29,-4
-68,0,68,34,-68,34,14,-29,-4,4,-34,-4
-68,0,68,34,-68,34,14,-29,-4,4,-29,-4
-63,0,63,31,-63,31,19,-29,-4,4,-29,-4
-63,0,63,31,-63,31,19,-29,-4,4,-29,-4
-63,-4,58,34,-61,26,29,-29,0,4,-29,4
-63,-4,58,34,-61,26,24,-29,0,4,-34,4
-58,-4,53,31,-56,24,24,-29,0,4,-34,4
-58,-4,53,31,-56,24,29,-24,4,4,-29,4
-58,0,58,29,-58,29,19,-34,0,4,-39,-4
-58,0,58,29,-58,29,19,-34,0,4,-39,-4
-63,0,63,31,-63,31,19,-34,-4,4,-34,0
-63,4,68,29,-65,36,14,-34,-9,4,-34,0
-53,14,68,19,-61,41,14,-34,-14,-4,-29,-4
-53,14,68,19,-61,41,14,-34,-14,-4,-29,-4
-53,9,63,21,-58,36,14,-34,-14,-4,-34,-4
-53,9,63,21,-58,36,14,-34,-14,-4,-34,-4
-43,9,53,17,-48,31,14,-29,-14,4,-29,-4
-43,9,53,17,-48,31,14,-29,-14,4,-29,0
-43,9,53,17,-48,31,14,-29,-14,4,-29,0
-43,9,53,17,-48,31,19,-29,-19,4,-29,-4
-53,24,78,14,-65,51,9,-39,-19,4,-34,-4
-48,24,73,12,-61,48,9,-34,-19,0,-34,-4
-48,14,63,17,-56,39,9,-34,-19,0,-34,-4
-48,14,63,17,-56,39,9,-39,-19,0,-34,-4
-53,0,53,26,-53,26,19,-39,-19,4,-34,4
-53,-4,48,29,-51,21,19,-39,-19,4,-34,4
-53,-9,43,31,-48,17,19,-39,-19,-4,-34,0
-53,-14,39,34,-46,12,14,-39,-19,-4,-29,0
-53,-14,39,34,-46,12,14,-48,-19,-4,-29,-9
-53,-9,43,31,-48,17,14,-48,-24,-4,-34,-9
-53,0,53,26,-53,26,19,-48,-24,-4,-34,-9
-53,4,58,24,-56,31,19,-48,-24,-4,-39,-9
-53,4,58,24,-56,31,9,-43,-24,-14,-39,-9
-53,0,53,26,-53,26,9,-48,-29,-14,-39,-9
-53,-9,43,31,-48,17,9,-48,-29,-14,-39,-9
-53,0,53,26,-53,26,9,-48,-34,-14,-39,-14
-53,0,53,26,-53,26,19,-39,-24,-14,-53,-14
-53,-4,48,29,-51,21,19,-39,-24,-19,-53,-14
-53,-9,43,31,-48,17,19,-39,-24,-19,-48,-14
-53,-9,43,31,-48,17,24,-39,-24,-19,-48,-14
-63,-14,48,39,-56,17,24,-48,-34,-29,-58,-24
-63,-14,48,39,-56,17,19,-53,-39,-29,-58,-24
-63,-14,48,39,-56,17,19,-53,-39,-29,-58,-24
-63,-19,43,41,-53,12,19,-48,-39,-29,-58,-24
-73,-29,43,51,-58,7,19,-58,-48,-29,-53,-19
-82,-24,58,53,-70,17,19,-63,-53,-29,-53,-19
-82,-24,58,53,-70,17,19,-63,-53,-29,-58,-19
-78,-24,53,51,-65,14,19,-63,-53,-29,-58,-19
-68,-19,48,43,-58,14,29,-53,-43,-39,-68,-19
-73,-19,53,46,-63,17,29,-58,-43,-34,-68,-19
-73,-19,53,46,-63,17,29,-58,-43,-34,-63,-19
-68,-19,48,43,-58,14,34,-53,-43,-34,-63,-19
-68,-19,48,43,-58,14,24,-53,-43,-24,-53,-19
-68,-24,43,46,-56,9,24,-53,-48,-29,-58,-24
-68,-24,43,46,-56,9,24,-53,-48,-34,-58,-24
-68,-19,48,43,-58,14,24,-53,-48,-34,-58,-24
-58,-9,48,34,-53,19,24,-68,-63,-34,-68,-24
-63,-9,53,36,-58,21,19,-68,-63,-39,-68,-24
-63,-9,53,36,-58,21,19,-68,-58,-39,-68,-24
-63,-9,53,36,-58,21,19,-68,-58,-39,-68,-24
-73,-9,63,41,-68,26,14,-68,-48,-39,-58,-24
-73,-14,58,43,-65,21,14,-68,-48,-34,-58,-24
-73,-14,58,43,-65,21,14,-68,-53,-34,-63,-24
-73,-14,58,43,-65,21,9,-73,-58,-39,-68,-24
-73,-24,48,48,-61,12,19,-63,-48,-29,-58,-24
-73,-29,43,51,-58,7,24,-63,-48,-24,-58,-24
-73,-29,43,51,-58,7,24,-63,-48,-24,-53,-24
-73,-24,48,48,-61,12,19,-63,-48,-29,-53,-24
-82,-29,53,56,-68,12,29,-63,-43,-29,-53,-24
-82,-34,48,58,-65,7,34,-58,-43,-29,-53,-24
-82,-43,39,63,-61,-2,34,-58,-43,-34,-53,-24
-82,-48,34,65,-58,-7,34,-63,-43,-34,-58,-24
-73,-43,29,58,-51,-7,24,-58,-53,-43,-68,-34
-73,-43,29,58,-51,-7,24,-58,-58,-43,-68,-34
-73,-39,34,56,-53,-2,24,-58,-63,-43,-68,-34
-78,-29,48,53,-63,9,24,-58,-63,-39,-68,-34
-68,-19,48,43,-58,14,19,-68,-63,-39,-63,-34
-63,-19,43,41,-53,12,19,-68,-63,-43,-63,-34
-63,-24,39,43,-51,7,19,-68,-63,-43,-63,-34
-68,-24,43,46,-56,9,19,-68,-63,-43,-63,-34
-68,-19,48,43,-58,14,9,-68,-53,-34,-63,-39
-68,-19,48,43,-58,14,9,-63,-53,-34,-63,-39
-68,-24,43,46,-56,9,9,-63,-53,-34,-63,-34
-68,-24,43,46,-56,9,9,-63,-53,-34,-63,-34
-73,-29,43,51,-58,7,9,-63,-53,-34,-63,-34
-78,-34,43,56,-61,4,9,-63,-58,-34,-63,-34
-82,-34,48,58,-65,7,14,-63,-58,-34,-63,-39
-87,-39,48,63,-68,4,14,-68,-58,-34,-68,-39
-87,-48,39,68,-63,-4,24,-68,-63,-43,-68,-39
-82,-53,29,68,-56,-12,24,-68,-63,-43,-68,-39
-82,-53,29,68,-56,-12,24,-68,-63,-43,-68,-39
-82,-48,34,65,-58,-7,24,-68,-63,-43,-68,-39
-73,-39,34,56,-53,-2,24,-68,-63,-39,-68,-43
-78,-39,39,58,-58,0,24,-68,-63,-39,-68,-43
-78,-48,29,63,-53,-9,29,-68,-63,-39,-68,-43
-78,-48,29,63,-53,-9,29,-68,-63,-39,-68,-43
-87,-43,43,65,-65,0,14,-82,-73,-48,-78,-48
-87,-34,53,61,-70,9,14,-82,-73,-48,-82,-48
-87,-29,58,58,-73,14,19,-82,-73,-48,-82,-48
-87,-24,63,56,-75,19,19,-82,-73,-48,-78,-43
-78,-34,43,56,-61,4,19,-73,-73,-39,-68,-34
-78,-34,43,56,-61,4,19,-73,-68,-34,-68,-34
-78,-34,43,56,-61,4,19,-73,-63,-34,-63,-34
-78,-34,43,56,-61,4,19,-68,-53,-34,-63,-34
-78,-43,34,61,-56,-4,29,-68,-63,-43,-68,-43
-73,-43,29,58,-51,-7,24,-63,-63,-43,-68,-43
-73,-39,34,56,-53,-2,24,-63,-63,-43,-68,-43
-73,-39,34,56,-53,-2,24,-63,-63,-48,-68,-43
-82,-39,43,61,-63,2,14,-73,-68,-48,-78,-53
-82,-39,43,61,-63,2,19,-73,-68,-48,-78,-48
-82,-34,48,58,-65,7,19,-78,-68,-48,-78,-48
-82,-34,48,58,-65,7,19,-78,-63,-48,-78,-48
-82,-34,48,58,-65,7,19,-78,-63,-39,-73,-48
-82,-34,48,58,-65,7,19,-78,-63,-39,-73,-48
-82,-34,48,58,-65,7,19,-78,-63,-39,-73,-48
-82,-29,53,56,-68,12,19,-82,-63,-43,-68,-48
-82,-9,73,46,-78,31,19,-82,-58,-43,-73,-48
-78,-39,39,58,-58,0,29,-68,-48,-29,-58,-39
-78,-39,39,58,-58,0,19,-68,-48,-29,-58,-29
-78,-39,39,58,-58,0,19,-68,-48,-29,-58,-29
-78,-39,39,58,-58,0,19,-68,-48,-29,-58,-29
-78,-39,39,58,-58,0,19,-68,-48,-29,-58,-29
-73,-39,34,56,-53,-2,24,-58,-48,-29,-58,-29
-73,-29,43,51,-58,7,24,-58,-48,-29,-58,-29
-73,-29,43,51,-58,7,24,-58,-48,-24,-58,-29
-73,-24,48,48,-61,12,19,-58,-39,-24,-53,-24
-68,-24,43,46,-56,9,4,-68,-43,-29,-53,-19
-68,-9,58,39,-63,24,4,-68,-39,-19,-43,-14
-68,-9,58,39,-63,24,4,-68,-39,-14,-43,-14
-68,-4,63,36,-65,29,9,-68,-39,-14,-39,-14
-63,-4,58,34,-61,26,24,-63,-29,-14,-48,-19
-63,-4,58,34,-61,26,29,-63,-29,-14,-48,-19
-63,-4,58,34,-61,26,39,-58,-29,-14,-48,-19
-63,0,63,31,-63,31,43,-58,-29,-9,-48,-19
-73,0,73,36,-73,36,43,-48,-19,-9,-39,-14
-68,0,68,34,-68,34,43,-48,-14,-9,-29,-14
-68,0,68,34,-68,34,48,-48,-9,-4,-29,-14
-68,4,73,31,-70,39,48,-43,-9,-4,-29,-14
-58,9,68,24,-63,39,43,-53,-14,-4,-39,-14
-58,14,73,21,-65,43,43,-53,-14,-4,-39,-14
-58,24,82,17,-70,53,43,-53,-14,-4,-39,-14
-58,29,87,14,-73,58,39,-53,-14,-4,-39,-14
-53,29,82,12,-68,56,24,-53,-14,0,-39,-9
-53,29,82,12,-68,56,14,-53,-14,0,-39,-9
-53,29,82,12,-68,56,4,-63,-14,0,-39,-9
-48,29,78,9,-63,53,4,-63,-14,0,-39,-9
-48,39,87,4,-68,63,-9,-68,-14,0,-29,-9
-53,39,92,7,-73,65,-24,-73,-14,0,-29,-4
-53,39,92,7,-73,65,-29,-73,-14,4,-24,-4
-43,53,97,-4,-70,75,-29,-73,-14,4,-19,0
-29,53,82,-12,-56,68,-29,-63,-14,4,-19,4
-14,58,73,-21,-43,65,-34,-63,-14,9,-14,4
-9,58,68,-24,-39,63,-34,-63,-14,9,-14,9
-4,48,53,-21,-29,51,-39,-63,-24,9,-14,9
-14,34,48,-9,-31,41,-29,-68,-29,4,-19,4
-14,24,39,-4,-26,31,-29,-68,-34,0,-24,4
-14,14,29,0,-21,21,-29,-68,-39,-4,-24,-4
-24,4,29,9,-26,17,-29,-68,-39,-9,-29,-9
-34,9,43,12,-39,26,-29,-78,-53,-14,-43,-9
-48,4,53,21,-51,29,-24,-78,-58,-14,-43,-9
-53,0,53,26,-53,26,-19,-82,-63,-19,-48,-14
-58,0,58,29,-58,29,-19,-82,-63,-24,-48,-14
-48,-4,43,26,-46,19,-19,-82,-53,-24,-39,-14
-48,-9,39,29,-43,14,-19,-82,-58,-24,-39,-14
-48,-19,29,34,-39,4,-19,-82,-63,-29,-48,-19
-48,-24,24,36,-36,0,-19,-87,-68,-34,-53,-19
-43,-24,19,34,-31,-2,-24,-87,-68,-24,-53,-19
-43,-24,19,34,-31,-2,-24,-87,-63,-24,-48,-19
-43,-24,19,34,-31,-2,-24,-87,-63,-24,-48,-19
-43,-24,19,34,-31,-2,-24,-87,-63,-24,-48,-19
-39,-14,24,26,-31,4,-39,-97,-63,-29,-48,-19
-39,-9,29,24,-34,9,-39,-97,-63,-29,-48,-19
-43,-9,34,26,-39,12,-39,-102,-73,-39,-53,-19
-43,-24,19,34,-31,-2,-39,-102,-78,-39,-53,-19
-39,-34,4,36,-21,-14,-29,-92,-82,-53,-63,-39
-43,-39,4,41,-24,-17,-24,-97,-82,-58,-68,-39
-48,-53,-4,51,-21,-29,-19,-97,-87,-58,-78,-39
-53,-53,0,53,-26,-26,-19,-97,-92,-63,-87,-48
-58,-43,14,51,-36,-14,-19,-97,-92,-58,-78,-39
-68,-43,24,56,-46,-9,-14,-97,-92,-58,-82,-39
-78,-43,34,61,-56,-4,-4,-97,-92,-58,-82,-39
-87,-48,39,68,-63,-4,-4,-92,-92,-58,-82,-43
-92,-58,34,75,-63,-12,9,-102,-92,-48,-82,-43
-97,-68,29,82,-63,-19,9,-102,-92,-53,-82,-43
-102,-73,29,87,-65,-21,9,-112,-92,-53,-87,-43
-107,-78,29,92,-68,-24,9,-117,-92,-53,-87,-48
-102,-78,24,90,-63,-26,9,-107,-92,-63,-78,-39
-107,-78,29,92,-68,-24,14,-107,-92,-63,-78,-43
-107,-78,29,92,-68,-24,14,-107,-92,-63,-87,-43
-102,-78,24,90,-63,-26,14,-107,-97,-73,-87,-48
-102,-63,39,82,-70,-12,4,-107,-107,-73,-92,-58
-102,-63,39,82,-70,-12,4,-107,-102,-68,-92,-53
-102,-73,29,87,-65,-21,4,-102,-102,-63,-92,-53
-102,-73,29,87,-65,-21,4,-102,-102,-63,-92,-53
-102,-63,39,82,-70,-12,4,-112,-92,-53,-78,-48
-102,-58,43,80,-73,-7,4,-112,-92,-53,-78,-48
-102,-58,43,80,-73,-7,4,-112,-92,-53,-78,-48
-102,-58,43,80,-73,-7,9,-112,-87,-53,-78,-48
-92,-68,24,80,-58,-21,9,-102,-87,-58,-78,-48
-97,-68,29,82,-63,-19,9,-102,-87,-58,-78,-48
-97,-73,24,85,-61,-24,9,-102,-87,-58,-78,-48
-97,-73,24,85,-61,-24,14,-102,-87,-58,-78,-48
-107,-73,34,90,-70,-19,14,-112,-87,-58,-82,-39
-107,-68,39,87,-73,-14,14,-107,-82,-53,-78,-39
-107,-68,39,87,-73,-14,14,-102,-82,-53,-78,-39
-107,-68,39,87,-73,-14,14,-102,-82,-53,-78,-39
-107,-53,53,80,-80,0,24,-97,-82,-43,-82,-48
-107,-34,73,70,-90,19,24,-97,-82,-53,-82,-48
-107,-43,63,75,-85,9,19,-92,-87,-43,-82,-48
-112,-53,58,82,-85,2,29,-97,-78,-43,-82,-48
-122,-39,82,80,-102,21,34,-87,-58,-43,-73,-48
-136,-24,112,80,-124,43,53,-82,-43,-24,-53,-34
-146,-14,131,80,-139,58,73,-68,-24,-14,-48,-29
-136,-14,122,75,-129,53,92,-29,0,9,-39,-24
-126,4,131,61,-129,68,97,14,53,39,-29,-19
-117,14,131,51,-124,73,102,48,87,68,-9,-19
-102,0,102,51,-102,51,112,78,117,82,0,0
-82,-24,58,53,-70,17,112,112,146,112,24,14
-58,-24,34,41,-46,4,112,151,195,146,53,29
-14,9,24,2,-19,17,117,229,292,229,117,68
39,29,-9,-34,24,9,146,361,419,331,195,131
117,14,-102,-65,109,-43,180,512,546,409,258,180
190,4,-185,-97,187,-90,219,668,653,463,283,200
263,39,-224,-151,244,-92,209,775,780,541,336,239
351,112,-239,-231,295,-63,141,819,888,649,424,312
453,185,-268,-319,361,-41,39,814,956,751,541,414
536,234,-302,-385,419,-34,-29,741,956,805,619,492
600,263,-336,-431,468,-36,-97,653,902,810,649,541
673,326,-346,-500,509,-9,-209,561,819,800,683,605
741,390,-351,-566,546,19,-331,473,702,736,673,619
771,356,-414,-563,592,-29,-390,380,502,575,566,551
761,273,-488,-517,624,-107,-400,263,268,341,395,429
717,204,-512,-461,614,-153,-434,73,24,131,239,317
614,151,-463,-383,539,-156,-473,-126,-185,-24,126,234
473,92,-380,-283,427,-143,-473,-312,-351,-141,9,156
307,53,-253,-180,280,-100,-439,-483,-473,-219,-53,107
136,4,-131,-70,134,-63,-380,-605,-570,-283,-102,68
4,-53,-58,24,31,-56,-331,-712,-678,-356,-165,4
-102,-112,-9,107,-46,-61,-307,-795,-800,-448,-263,-78
-165,-175,-9,170,-78,-92,-283,-805,-883,-536,-351,-165
-175,-224,-48,200,-63,-136,-234,-697,-873,-556,-385,-209
-165,-253,-87,209,-39,-170,-180,-551,-795,-517,-375,-214
-165,-258,-92,212,-36,-175,-131,-444,-736,-492,-366,-224
-156,-268,-112,212,-21,-190,-87,-375,-697,-473,-366,-234
-146,-258,-112,202,-17,-185,-63,-302,-644,-444,-346,-224
-131,-234,-102,183,-14,-168,-24,-214,-575,-405,-317,-209
-112,-224,-112,168,0,-168,24,-107,-492,-346,-287,-195
-97,-229,-131,163,17,-180,82,9,-385,-283,-234,-161
-73,-204,-131,139,29,-168,131,97,-297,-219,-209,-141
-63,-146,-82,104,9,-114,136,136,-244,-190,-190,-141
-53,-126,-73,90,9,-100,136,146,-214,-165,-170,-131
-43,-126,-82,85,19,-104,131,156,-190,-141,-151,-102
-24,-136,-112,80,43,-124,122,175,-146,-112,-126,-82
-24,-107,-82,65,29,-95,107,165,-122,-87,-112,-68
-19,-82,-63,51,21,-73,78,131,-112,-78,-97,-63
-29,-58,-29,43,0,-43,63,97,-97,-68,-92,-53
-24,-48,-24,36,0,-36,53,63,-78,-48,-78,-53
-39,-39,0,39,-19,-19,39,34,-68,-43,-73,-43
-53,-43,9,48,-31,-17,34,4,-58,-29,-63,-24
-63,-48,14,56,-39,-17,34,-9,-53,-24,-53,-19
-68,-29,39,48,-53,4,29,-14,-39,-14,-43,-24
-68,-29,39,48,-53,4,29,-19,-39,-9,-43,-24
-68,-29,39,48,-53,4,29,-19,-34,-4,-43,-24
-68,-29,39,48,-53,4,29,-19,-29,0,-34,-19
-58,-39,19,48,-39,-9,19,-19,-24,0,-34,-9
-58,-34,24,46,-41,-4,19,-19,-24,4,-34,-9
-58,-34,24,46,-41,-4,19,-19,-19,9,-34,-4
-58,-29,29,43,-43,0,19,-19,-19,9,-29,-4
-63,-19,43,41,-53,12,9,-24,-19,9,-29,-14
-63,-14,48,39,-56,17,4,-29,-14,9,-29,-9
-63,-14,48,39,-56,17,4,-34,-14,14,-29,-9
-58,-14,43,36,-51,14,4,-43,-14,14,-24,-9
-58,-14,43,36,-51,14,9,-39,-4,14,-14,0
-53,-14,39,34,-46,12,9,-34,4,14,-14,0
-53,-14,39,34,-46,12,9,-24,9,19,-9,4
-53,-9,43,31,-48,17,9,-19,9,24,-9,4
-53,-19,34,36,-43,7,0,-29,9,29,-9,9
-53,-19,34,36,-43,7,0,-29,14,29,-4,9
-48,-14,34,31,-41,9,0,-29,14,29,-4,9
-48,-14,34,31,-41,9,0,-29,14,29,-4,9
-58,-4,53,31,-56,24,9,-24,14,19,-14,0
-48,-4,43,26,-46,19,9,-24,14,24,-9,0
-48,-4,43,26,-46,19,9,-19,19,24,-9,0
-48,0,48,24,-48,24,4,-19,19,24,-9,4
-48,0,48,24,-48,24,-4,-29,19,24,-9,4
-48,4,53,21,-51,29,-4,-29,24,24,-4,4
-48,4,53,21,-51,29,-4,-24,24,29,-4,9
-48,4,53,21,-51,29,-4,-19,29,34,-4,9
-48,9,58,19,-53,34,0,-19,29,34,0,9
-48,9,58,19,-53,34,0,-9,34,39,0,9
-48,9,58,19,-53,34,0,-9,34,39,0,9
-43,9,53,17,-48,31,-4,-14,34,34,0,14
-43,0,43,21,-43,21,-4,-14,34,43,0,14
-39,0,39,19,-39,19,-4,-14,39,48,4,14
-39,0,39,19,-39,19,-4,-4,48,58,9,19
-39,4,43,17,-41,24,-4,0,48,63,14,24
-29,14,43,7,-36,29,-4,0,43,53,14,24
-24,14,39,4,-31,26,-4,4,48,53,14,24
-24,14,39,4,-31,26,-4,4,48,53,14,24
-19,14,34,2,-26,24,-9,4,58,63,19,24
-14,19,34,-2,-24,26,-19,4,58,73,19,29
-14,29,43,-7,-29,36,-19,9,58,73,24,29
-14,34,48,-9,-31,41,-29,14,63,73,24,34
-9,39,48,-14,-29,43,-19,24,63,73,29,34
-14,39,53,-12,-34,46,-9,24,73,82,34,34
-9,43,53,-17,-31,48,-9,29,78,87,34,39
-9,43,53,-17,-31,48,-19,34,82,87,34,39
-9,48,58,-19,-34,53,-19,34,82,97,39,43
0,53,53,-26,-26,53,-24,43,87,97,39,43
4,53,48,-29,-21,51,-24,43,92,97,43,48
9,53,43,-31,-17,48,-19,43,97,97,43,48
14,58,43,-36,-14,51,-19,53,102,102,53,58
14,68,53,-41,-19,61,-34,63,107,107,48,63
14,68,53,-41,-19,61,-34,68,112,112,53,63
19,73,53,-46,-17,63,-34,73,122,112,58,63
24,82,58,-53,-17,70,-39,78,126,112,58,68
19,78,58,-48,-19,68,-39,82,141,122,73,73
29,78,48,-53,-9,63,-39,92,146,126,82,78
34,78,43,-56,-4,61,-48,97,156,131,87,82
34,87,53,-61,-9,70,-48,102,161,136,87,87
39,92,53,-65,-7,73,-43,112,165,151,97,87
43,97,53,-70,-4,75,-48,117,175,156,102,92
48,97,48,-73,0,73,-48,122,185,165,107,97
53,97,43,-75,4,70,-48,141,190,175,112,102
68,102,34,-85,17,68,-53,146,195,180,117,107
73,122,48,-97,12,85,-63,156,200,185,122,112
82,136,53,-109,14,95,-63,156,209,190,126,117
82,141,58,-112,12,100,-63,165,219,204,136,122
92,151,58,-122,17,104,-78,175,229,209,141,126
97,165,68,-131,14,117,-78,185,239,214,146,131
102,165,63,-134,19,114,-78,200,248,229,151,136
107,170,63,-139,21,117,-78,209,258,239,161,141
122,165,43,-143,39,104,-78,229,278,234,175,151
131,170,39,-151,46,104,-78,239,287,244,180,156
136,170,34,-153,51,102,-87,244,297,258,190,170
141,175,34,-158,53,104,-92,253,307,258,195,175
141,195,53,-168,43,124,-107,253,307,283,200,190
146,209,63,-178,41,136,-112,258,317,283,204,195
151,214,63,-183,43,139,-112,268,326,297,219,200
161,214,53,-187,53,134,-117,278,336,307,229,204
161,224,63,-192,48,143,-122,287,346,307,234,204
165,234,68,-200,48,151,-126,287,346,307,239,209
170,248,78,-209,46,163,-131,292,351,312,244,214
175,248,73,-212,51,161,-131,297,356,322,248,219
190,239,48,-214,70,143,-131,317,375,341,253,234
195,239,43,-217,75,141,-131,322,390,351,263,239
200,248,48,-224,75,148,-141,326,390,351,268,239
204,258,53,-231,75,156,-141,326,390,351,273,248
209,273,63,-241,73,168,-141,317,385,346,263,239
209,273,63,-241,73,168,-141,322,390,351,268,239
209,278,68,-244,70,173,-146,322,390,351,268,244
209,278,68,-244,70,173,-151,322,390,351,268,244
204,273,68,-239,68,170,-141,312,390,366,278,248
204,278,73,-241,65,175,-141,312,390,366,283,248
204,278,73,-241,65,175,-141,312,390,366,283,248
204,273,68,-239,68,170,-146,312,390,366,283,248
214,273,58,-244,78,165,-146,312,390,356,273,244
214,273,58,-244,78,165,-151,297,385,356,273,244
214,278,63,-246,75,170,-151,292,380,351,273,244
214,278,63,-246,75,170,-146,278,375,346,268,244
204,287,82,-246,61,185,-156,273,370,346,278,253
204,287,82,-246,61,185,-156,268,366,341,273,244
195,283,87,-239,53,185,-156,258,361,336,273,239
190,278,87,-234,51,183,-151,248,356,331,268,239
185,263,78,-224,53,170,-141,248,331,317,253,224
170,253,82,-212,43,168,-141,239,326,302,244,214
170,244,73,-207,48,158,-141,219,312,292,239,204
156,239,82,-197,36,161,-141,214,302,287,224,204
146,224,78,-185,34,151,-126,185,292,287,219,200
141,204,63,-173,39,134,-117,180,283,278,214,195
131,195,63,-163,34,129,-112,165,268,268,204,180
122,190,68,-156,26,129,-107,151,253,248,195,170
112,190,78,-151,17,134,-102,136,239,229,165,161
102,180,78,-141,12,129,-97,122,224,214,151,151
92,170,78,-131,7,124,-92,112,209,204,146,141
82,161,78,-122,2,119,-87,97,195,190,131,131
68,151,82,-109,-7,117,-92,78,180,180,126,112
58,151,92,-104,-17,122,-87,63,165,165,107,102
53,141,87,-97,-17,114,-82,53,146,161,102,92
43,131,87,-87,-21,109,-78,43,141,141,92,82
34,112,78,-73,-21,95,-58,43,126,126,82,73
34,97,63,-65,-14,80,-53,29,122,122,73,63
24,82,58,-53,-17,70,-48,19,107,112,63,63
14,68,53,-41,-19,61,-43,9,97,102,48,48
4,58,53,-31,-24,56,-53,0,82,92,43,39
0,53,53,-26,-26,53,-48,-9,78,82,34,39
-9,43,53,-17,-31,48,-39,-14,68,78,29,34
-9,43,53,-17,-31,48,-39,-24,53,68,19,24
-14,43,58,-14,-36,51,-39,-19,48,58,24,24
-24,34,58,-4,-41,46,-34,-29,39,53,19,19
-24,39,63,-7,-43,51,-34,-34,29,43,9,14
-29,34,63,-2,-46,48,-34,-39,24,43,4,9
-34,19,53,7,-43,36,-29,-53,24,34,0,9
-39,14,53,12,-46,34,-24,-58,14,34,0,4
-43,9,53,17,-48,31,-24,-63,9,24,-4,0
-48,0,48,24,-48,24,-14,-63,4,19,-14,-4
-43,-4,39,24,-41,17,-4,-53,9,24,-14,-9
-43,-4,39,24,-41,17,-4,-63,4,19,-19,-14
-43,-9,34,26,-39,12,-4,-63,0,14,-24,-19
-53,-9,43,31,-48,17,-4,-68,0,9,-24,-19
-53,-4,48,29,-51,21,-14,-68,-14,0,-34,-19
-53,-4,48,29,-51,21,-14,-73,-19,0,-39,-19
-58,-4,53,31,-56,24,-9,-73,-19,-4,-39,-19
-58,-14,43,36,-51,14,-4,-68,-24,-4,-39,-24
-53,-14,39,34,-46,12,-4,-73,-24,-4,-34,-34
-53,-14,39,34,-46,12,-4,-73,-29,-9,-39,-34
-58,-19,39,39,-48,9,-4,-82,-29,-9,-39,-39
-58,-19,39,39,-48,9,-4,-82,-29,-9,-39,-39
-58,-9,48,34,-53,19,-14,-78,-34,-9,-48,-39
-58,-9,48,34,-53,19,-14,-78,-34,-9,-48,-39
-58,-14,43,36,-51,14,-9,-78,-34,-14,-48,-39
-63,-19,43,41,-53,12,-9,-78,-34,-19,-48,-39
-63,-19,43,41,-53,12,0,-78,-34,-9,-48,-29
-63,-19,43,41,-53,12,-4,-78,-34,-4,-48,-29
-63,-19,43,41,-53,12,-4,-78,-34,-4,-48,-34
-63,-19,43,41,-53,12,-4,-78,-34,-9,-53,-34
-73,-19,53,46,-63,17,-4,-78,-34,-19,-53,-43
-73,-19,53,46,-63,17,-4,-78,-34,-19,-53,-43
-73,-24,48,48,-61,12,-4,-82,-39,-19,-48,-43
-73,-24,48,48,-61,12,0,-82,-39,-19,-48,-43
-73,-24,48,48,-61,12,9,-73,-29,-4,-48,-43
-73,-24,48,48,-61,12,9,-73,-29,-4,-48,-43
-73,-24,48,48,-61,12,9,-73,-29,-9,-48,-43
-73,-24,48,48,-61,12,9,-73,-29,-9,-53,-43
-73,-29,43,51,-58,7,9,-82,-29,-9,-53,-48
-73,-29,43,51,-58,7,4,-82,-29,-9,-53,-48
-73,-29,43,51,-58,7,4,-82,-29,-9,-53,-43
-78,-29,48,53,-63,9,4,-82,-24,-9,-53,-43
-78,-14,63,46,-70,24,-4,-87,-34,-19,-53,-43
-78,-14,63,46,-70,24,0,-87,-34,-19,-53,-43
-78,-19,58,48,-68,19,4,-87,-34,-19,-53,-43
-78,-19,58,48,-68,19,4,-87,-34,-19,-53,-43
-68,-14,53,41,-61,19,-4,-78,-34,-9,-58,-53
-68,-9,58,39,-63,24,-4,-78,-34,-9,-58,-53
-68,-4,63,36,-65,29,-4,-78,-34,-9,-53,-53
-68,0,68,34,-68,34,-9,-78,-34,-9,-53,-53
-78,-4,73,41,-75,34,0,-78,-24,-9,-39,-43
-73,-9,63,41,-68,26,4,-73,-24,-4,-39,-43
-73,-19,53,46,-63,17,4,-73,-19,-4,-43,-43
-73,-24,48,48,-61,12,4,-78,-19,-4,-43,-43
-63,-9,53,36,-58,21,4,-87,-29,-14,-53,-53
-63,-9,53,36,-58,21,4,-82,-29,-14,-53,-53
-63,-9,53,36,-58,21,4,-82,-29,-14,-48,-48
-63,-9,53,36,-58,21,0,-82,-29,-9,-48,-48
-63,-9,53,36,-58,21,0,-73,-19,0,-34,-43
-63,-4,58,34,-61,26,0,-78,-14,0,-34,-39
-68,-4,63,36,-65,29,-4,-78,-14,0,-39,-34
-68,0,68,34,-68,34,-4,-78,-14,0,-39,-29
-68,9,78,29,-73,43,0,-78,-24,-9,-43,-34
-68,0,68,34,-68,34,0,-78,-24,-9,-43,-34
-68,9,78,29,-73,43,0,-78,-24,-9,-48,-39
-68,9,78,29,-73,43,-4,-78,-24,-9,-48,-43
-68,4,73,31,-70,39,-4,-78,-24,4,-34,-39
-68,0,68,34,-68,34,-4,-78,-24,4,-29,-34
-63,-4,58,34,-61,26,0,-78,-24,4,-29,-29
-63,-9,53,36,-58,21,0,-78,-24,4,-29,-24
-63,4,68,29,-65,36,0,-78,-19,-4,-39,-34
-63,4,68,29,-65,36,-4,-78,-19,-4,-43,-34
-58,4,63,26,-61,34,-4,-78,-19,-4,-43,-34
-58,4,63,26,-61,34,0,-73,-14,-4,-39,-34
-58,-9,48,34,-53,19,-9,-73,-24,-4,-29,-34
-58,-9,48,34,-53,19,-9,-73,-19,-4,-29,-34
-63,-9,53,36,-58,21,-9,-73,-19,-4,-24,-29
-63,-4,58,34,-61,26,-14,-73,-19,-4,-24,-29
-63,4,68,29,-65,36,-4,-82,-24,-4,-39,-34
-63,4,68,29,-65,36,-4,-82,-24,-4,-39,-34
-63,0,63,31,-63,31,-4,-82,-24,-4,-43,-34
-63,0,63,31,-63,31,-4,-82,-24,-4,-43,-34
-63,-9,53,36,-58,21,-4,-78,-24,4,-29,-24
-63,-9,53,36,-58,21,-4,-78,-24,4,-29,-19
-63,-9,53,36,-58,21,-4,-78,-24,4,-29,-19
-63,-9,53,36,-58,21,0,-78,-29,4,-29,-24
-63,-14,48,39,-56,17,0,-78,-19,4,-34,-24
-58,-14,43,36,-51,14,0,-73,-19,0,-34,-24
-58,-24,34,41,-46,4,0,-73,-19,0,-34,-24
-58,-24,34,41,-46,4,0,-78,-19,0,-34,-24
-63,-19,43,41,-53,12,0,-78,-24,4,-43,-34
-63,-14,48,39,-56,17,0,-78,-29,4,-43,-34
-63,-9,53,36,-58,21,0,-78,-34,-4,-43,-39
-63,-4,58,34,-61,26,-4,-78,-39,-4,-39,-39
-53,-9,43,31,-48,17,-4,-87,-39,-14,-39,-48
-53,-9,43,31,-48,17,-4,-87,-43,-14,-43,-48
-53,-4,48,29,-51,21,0,-87,-43,-14,-43,-48
-53,-4,48,29,-51,21,0,-87,-43,-14,-48,-48
-53,4,58,24,-56,31,-9,-82,-43,-14,-48,-39
-53,0,53,26,-53,26,-9,-87,-48,-14,-48,-39
-53,-9,43,31,-48,17,-9,-87,-48,-14,-48,-39
-53,0,53,26,-53,26,-9,-87,-53,-14,-48,-43
-63,-9,53,36,-58,21,0,-87,-43,-4,-53,-43
-63,-14,48,39,-56,17,0,-87,-43,-9,-53,-43
-63,-19,43,41,-53,12,0,-87,-43,-9,-48,-43
-63,-19,43,41,-53,12,4,-87,-43,-9,-48,-43
-53,-24,29,39,-41,2,-4,-87,-43,-9,-48,-43
-53,-24,29,39,-41,2,-9,-92,-48,-9,-48,-43
-53,-24,29,39,-41,2,-9,-92,-48,-9,-48,-43
-53,-29,24,41,-39,-2,-9,-87,-48,-9,-48,-43
-63,-29,34,46,-48,2,0,-87,-48,-29,-53,-48
-73,-24,48,48,-61,12,0,-92,-53,-29,-53,-48
-73,-24,48,48,-61,12,0,-92,-53,-29,-58,-48
-68,-24,43,46,-56,9,0,-92,-53,-29,-58,-48
-68,-19,48,43,-58,14,-9,-102,-63,-39,-58,-58
-73,-19,53,46,-63,17,-9,-107,-63,-34,-58,-58
-73,-19,53,46,-63,17,-9,-107,-63,-34,-53,-58
-68,-19,48,43,-58,14,-4,-102,-63,-34,-53,-58
-68,-29,39,48,-53,4,4,-102,-53,-34,-53,-48
-68,-34,34,51,-51,0,4,-102,-58,-39,-58,-53
-68,-34,34,51,-51,0,4,-102,-58,-43,-58,-53
-68,-29,39,48,-53,4,4,-102,-58,-43,-58,-53
-78,-19,58,48,-68,19,-4,-107,-73,-43,-68,-53
-82,-19,63,51,-73,21,-9,-107,-73,-48,-68,-53
-82,-19,63,51,-73,21,-9,-107,-68,-48,-68,-53
-82,-19,63,51,-73,21,-9,-107,-68,-48,-68,-53
-73,-29,43,51,-58,7,4,-97,-58,-39,-58,-53
-73,-34,39,53,-56,2,4,-97,-58,-34,-58,-53
-73,-34,39,53,-56,2,4,-97,-63,-34,-63,-53
-73,-34,39,53,-56,2,0,-102,-68,-39,-68,-53
-73,-34,39,53,-56,2,0,-102,-68,-39,-68,-53
-73,-39,34,56,-53,-2,4,-102,-68,-34,-68,-53
-73,-39,34,56,-53,-2,4,-102,-68,-34,-63,-53
-73,-34,39,53,-56,2,0,-102,-68,-39,-63,-53
-73,-24,48,48,-61,12,-9,-102,-73,-39,-63,-53
-73,-24,48,48,-61,12,-4,-97,-73,-39,-63,-53
-73,-29,43,51,-58,7,-4,-97,-73,-43,-63,-53
-73,-29,43,51,-58,7,-4,-102,-73,-43,-68,-53
-63,-29,34,46,-48,2,-4,-107,-63,-43,-68,-53
-63,-34,29,48,-46,-2,-4,-107,-68,-43,-68,-53
-63,-34,29,48,-46,-2,-4,-107,-73,-43,-68,-53
-68,-29,39,48,-53,4,-4,-107,-73,-39,-68,-53
-78,-19,58,48,-68,19,0,-107,-82,-48,-73,-63
-73,-19,53,46,-63,17,0,-107,-82,-53,-73,-63
-73,-24,48,48,-61,12,0,-107,-82,-53,-73,-63
-78,-24,53,51,-65,14,0,-107,-82,-53,-73,-63
-78,-29,48,53,-63,9,0,-107,-73,-43,-73,-68
-78,-29,48,53,-63,9,0,-102,-73,-43,-73,-68
-78,-34,43,56,-61,4,0,-102,-73,-43,-73,-63
-78,-34,43,56,-61,4,0,-102,-73,-43,-73,-63
-78,-34,43,56,-61,4,-9,-102,-63,-43,-63,-63
-78,-34,43,56,-61,4,-9,-102,-68,-43,-63,-63
-78,-29,48,53,-63,9,-4,-102,-68,-43,-63,-68
-78,-29,48,53,-63,9,-4,-107,-68,-43,-68,-68
-78,-29,48,53,-63,9,4,-107,-73,-53,-78,-68
-73,-34,39,53,-56,2,4,-107,-73,-53,-78,-68
-73,-34,39,53,-56,2,4,-107,-73,-53,-78,-68
-73,-29,43,51,-58,7,4,-107,-73,-53,-78,-68
-73,-29,43,51,-58,7,4,-107,-73,-53,-73,-53
-78,-29,48,53,-63,9,4,-107,-73,-48,-68,-53
-78,-39,39,58,-58,0,9,-107,-73,-43,-63,-53
-78,-39,39,58,-58,0,9,-107,-73,-39,-58,-53
-68,-29,39,48,-53,4,-4,-112,-73,-48,-68,-63
-68,-24,43,46,-56,9,-4,-112,-73,-48,-73,-68
-68,-24,43,46,-56,9,0,-112,-73,-48,-73,-73
-68,-24,43,46,-56,9,0,-112,-73,-48,-68,-73
-78,-34,43,56,-61,4,0,-112,-78,-48,-68,-63
-78,-34,43,56,-61,4,0,-112,-78,-43,-68,-63
-78,-34,43,56,-61,4,0,-112,-78,-43,-63,-63
-78,-34,43,56,-61,4,0,-107,-73,-43,-63,-63
-68,-24,43,46,-56,9,0,-117,-82,-53,-78,-73
-63,-24,39,43,-51,7,-4,-112,-82,-53,-78,-73
-63,-19,43,41,-53,12,-4,-112,-82,-53,-78,-73
-63,-19,43,41,-53,12,-4,-112,-82,-58,-78,-73
-73,-29,43,51,-58,7,-4,-102,-78,-58,-78,-63
-73,-29,43,51,-58,7,0,-102,-78,-58,-78,-58
-73,-24,48,48,-61,12,0,-107,-78,-58,-78,-58
-73,-24,48,48,-61,12,0,-107,-73,-58,-78,-58
-63,-34,29,48,-46,-2,0,-107,-73,-58,-78,-68
-63,-34,29,48,-46,-2,0,-107,-73,-58,-82,-68
-63,-34,29,48,-46,-2,0,-107,-73,-58,-87,-68
-63,-29,34,46,-48,2,0,-112,-73,-63,-87,-68
-73,-34,39,53,-56,2,9,-112,-68,-53,-73,-58
-73,-39,34,56,-53,-2,4,-112,-68,-48,-68,-53
-73,-39,34,56,-53,-2,4,-112,-68,-43,-68,-53
-73,-39,34,56,-53,-2,4,-112,-73,-43,-68,-53
-73,-29,43,51,-58,7,4,-107,-82,-43,-78,-58
-73,-34,39,53,-56,2,4,-107,-78,-43,-78,-63
-73,-39,34,56,-53,-2,9,-107,-73,-48,-78,-68
-73,-39,34,56,-53,-2,9,-102,-68,-53,-73,-73
-68,-24,43,46,-56,9,4,-112,-78,-53,-78,-73
-68,-24,43,46,-56,9,0,-112,-73,-48,-73,-68
-68,-24,43,46,-56,9,-4,-112,-68,-43,-68,-63
-68,-14,53,41,-61,19,-4,-112,-68,-43,-68,-63
-58,-14,43,36,-51,14,-4,-122,-78,-58,-73,-73
-68,-29,39,48,-53,4,4,-107,-68,-53,-68,-73
-68,-39,29,53,-48,-4,14,-102,-63,-48,-58,-63
-58,-29,29,43,-43,0,9,-107,-68,-58,-68,-68
-68,-19,48,43,-58,14,0,-107,-78,-48,-68,-68
-68,-19,48,43,-58,14,0,-107,-78,-48,-68,-68
-68,-19,48,43,-58,14,0,-107,-78,-48,-68,-68
-68,-19,48,43,-58,14,0,-107,-78,-48,-68,-68
-68,-19,48,43,-58,14,0,-97,-73,-39,-58,-58
-63,-19,43,41,-53,12,4,-97,-68,-39,-58,-58
-63,-9,53,36,-58,21,4,-97,-63,-39,-58,-58
-63,-9,53,36,-58,21,4,-97,-58,-34,-58,-58
-63,-14,48,39,-56,17,0,-107,-58,-43,-63,-63
-58,-4,53,31,-56,24,-4,-107,-53,-39,-63,-58
-58,9,68,24,-63,39,-4,-107,-48,-29,-53,-53
-58,9,68,24,-63,39,-4,-107,-48,-24,-53,-53
-58,24,82,17,-70,53,9,-107,-48,-24,-48,-53
-53,24,78,14,-65,51,9,-102,-39,-24,-48,-48
-53,24,78,14,-65,51,9,-102,-39,-24,-48,-48
-53,24,78,14,-65,51,14,-97,-39,-24,-48,-48
-53,29,82,12,-68,56,14,-87,-39,-29,-48,-48
-53,29,82,12,-68,56,14,-87,-39,-29,-48,-43
-48,29,78,9,-63,53,14,-87,-34,-29,-39,-43
-48,29,78,9,-63,53,19,-87,-29,-24,-39,-43
-48,24,73,12,-61,48,19,-92,-29,-14,-39,-34
-48,24,73,12,-61,48,24,-92,-24,-14,-39,-34
-48,24,73,12,-61,48,24,-92,-24,-14,-39,-34
-48,29,78,9,-63,53,24,-92,-24,-14,-39,-34
-48,29,78,9,-63,53,9,-82,-24,-14,-39,-43
-43,29,73,7,-58,51,4,-82,-24,-9,-39,-39
-43,29,73,7,-58,51,-4,-82,-24,-9,-39,-39
-43,29,73,7,-58,51,-14,-92,-24,-9,-39,-39
-39,39,78,0,-58,58,-14,-102,-24,-9,-39,-29
-39,48,87,-4,-63,68,-19,-107,-24,-9,-39,-29
-43,48,92,-2,-68,70,-34,-112,-24,-9,-39,-24
-43,48,92,-2,-68,70,-39,-112,-24,-4,-34,-24
-24,63,87,-19,-56,75,-39,-112,-34,-4,-29,-29
-19,63,82,-21,-51,73,-48,-112,-34,-4,-29,-24
-4,68,73,-31,-39,70,-53,-112,-34,0,-24,-24
0,68,68,-34,-34,68,-53,-112,-34,0,-24,-19
-4,58,63,-26,-34,61,-58,-112,-43,-9,-34,-19
-4,48,53,-21,-29,51,-58,-117,-48,-14,-39,-24
-4,43,48,-19,-26,46,-58,-117,-53,-19,-43,-24
-4,39,43,-17,-24,41,-58,-117,-58,-24,-43,-34
-14,24,39,-4,-26,31,-48,-117,-48,-29,-48,-29
-19,19,39,0,-29,29,-39,-117,-53,-34,-53,-29
-29,14,43,7,-36,29,-34,-117,-58,-34,-53,-29
-29,9,39,9,-34,24,-29,-122,-63,-39,-58,-34
-29,19,48,4,-39,34,-29,-122,-63,-34,-58,-43
-29,14,43,7,-36,29,-29,-122,-63,-34,-58,-43
-29,9,39,9,-34,24,-29,-122,-68,-34,-58,-43
-29,0,29,14,-29,14,-29,-122,-73,-39,-68,-48
-29,-4,24,17,-26,9,-39,-117,-78,-43,-63,-48
-24,-4,19,14,-21,7,-43,-117,-78,-43,-63,-48
-24,-4,19,14,-21,7,-43,-117,-73,-43,-58,-48
-24,-4,19,14,-21,7,-43,-117,-73,-43,-58,-48
-24,-14,9,19,-17,-2,-34,-117,-63,-34,-48,-39
-19,-14,4,17,-12,-4,-39,-117,-63,-29,-48,-39
-19,-9,9,14,-14,0,-39,-117,-63,-29,-48,-39
-24,-9,14,17,-19,2,-39,-122,-73,-39,-53,-39
-24,-14,9,19,-17,-2,-39,-131,-87,-43,-58,-43
-29,-14,14,21,-21,0,-39,-131,-92,-53,-68,-58
-34,-19,14,26,-24,-2,-34,-136,-92,-63,-73,-63
-39,-34,4,36,-21,-14,-29,-136,-97,-68,-82,-68
-43,-34,9,39,-26,-12,-29,-136,-102,-73,-87,-68
-43,-34,9,39,-26,-12,-29,-136,-102,-78,-87,-68
-48,-34,14,41,-31,-9,-24,-136,-102,-78,-92,-68
-53,-34,19,43,-36,-7,-14,-136,-102,-78,-92,-68
-58,-39,19,48,-39,-9,-14,-122,-102,-78,-92,-82
-63,-43,19,53,-41,-12,-9,-122,-102,-78,-92,-82
-68,-48,19,58,-43,-14,-9,-122,-102,-82,-92,-82
-73,-48,24,61,-48,-12,-9,-131,-102,-82,-97,-82
-78,-48,29,63,-53,-9,-9,-146,-102,-73,-87,-78
-82,-48,34,65,-58,-7,-9,-146,-102,-73,-87,-78
-87,-48,39,68,-63,-4,-4,-146,-102,-73,-87,-82
-87,-48,39,68,-63,-4,-4,-146,-102,-73,-97,-82
-82,-48,34,65,-58,-7,-4,-146,-107,-82,-97,-97
-82,-43,39,63,-61,-2,-4,-146,-107,-82,-92,-97
-82,-43,39,63,-61,-2,-4,-146,-102,-78,-92,-92
-82,-53,29,68,-56,-12,-4,-141,-102,-73,-92,-92
-82,-53,29,68,-56,-12,-4,-141,-102,-82,-102,-82
-82,-53,29,68,-56,-12,-4,-141,-102,-82,-97,-78
-82,-48,34,65,-58,-7,-4,-141,-102,-82,-97,-78
-82,-48,34,65,-58,-7,-4,-141,-102,-82,-97,-78
-82,-58,24,70,-53,-17,0,-131,-97,-82,-87,-87
-82,-58,24,70,-53,-17,0,-131,-97,-78,-87,-87
-87,-58,29,73,-58,-14,0,-131,-97,-78,-87,-87
-87,-63,24,75,-56,-19,0,-131,-97,-78,-87,-87
-78,-53,24,65,-51,-14,4,-131,-97,-68,-97,-78
-78,-53,24,65,-51,-14,4,-131,-97,-68,-92,-78
-78,-48,29,63,-53,-9,4,-126,-92,-63,-87,-78
-78,-48,29,63,-53,-9,4,-122,-92,-63,-87,-78
-87,-48,39,68,-63,-4,4,-122,-92,-63,-78,-78
-87,-43,43,65,-65,0,4,-126,-92,-63,-82,-78
-87,-43,43,65,-65,0,4,-126,-92,-63,-82,-78
-87,-43,43,65,-65,0,9,-122,-87,-63,-82,-78
-92,-34,58,63,-75,12,19,-117,-87,-73,-92,-78
-102,-39,63,70,-82,12,34,-107,-68,-53,-73,-78
-107,-14,92,61,-100,39,34,-102,-53,-43,-73,-73
-117,14,131,51,-124,73,43,-97,-34,-34,-68,-68
-117,14,131,51,-124,73,73,-68,0,-19,-58,-63
-107,24,131,41,-119,78,87,-24,43,9,-48,-58
-97,43,141,26,-119,92,92,9,78,39,-29,-48
-92,29,122,31,-107,75,102,39,117,73,0,-29
-73,-4,68,39,-70,31,112,73,156,112,24,-14
-39,-4,34,21,-36,14,122,122,195,156,63,9
-4,9,14,-2,-9,12,126,200,283,219,117,48
48,39,-9,-43,29,14,156,322,419,312,195,112
117,63,-53,-90,85,4,170,473,536,390,248,141
200,82,-117,-141,158,-17,190,619,644,444,283,161
283,97,-185,-190,234,-43,190,727,751,522,326,200
361,141,-219,-251,290,-39,141,790,868,629,414,273
453,195,-258,-324,356,-31,58,785,946,732,512,375
517,263,-253,-390,385,4,-19,692,946,785,600,453
590,312,-278,-451,434,17,-97,614,893,800,649,502
692,385,-307,-539,500,39,-219,541,839,800,683,566
771,419,-351,-595,561,34,-331,453,741,766,692,610
780,375,-405,-578,592,-14,-380,331,551,614,614,570
771,292,-478,-531,624,-92,-400,204,297,390,444,439
746,224,-522,-485,634,-148,-463,24,53,170,278,326
673,170,-502,-422,588,-165,-502,-165,-175,-14,136,224
541,92,-448,-317,495,-178,-502,-361,-351,-161,19,146
375,43,-331,-209,353,-143,-478,-531,-502,-268,-63,78
195,-4,-200,-95,197,-102,-439,-663,-629,-341,-112,29
43,-63,-107,9,75,-85,-400,-771,-727,-405,-185,-34
-53,-122,-68,87,7,-95,-366,-834,-829,-488,-283,-117
-107,-195,-87,151,-9,-141,-322,-834,-922,-575,-370,-195
-126,-244,-117,185,-4,-180,-273,-756,-941,-624,-414,-248
-126,-244,-117,185,-4,-180,-219,-629,-873,-595,-414,-273
-117,-248,-131,183,7,-190,-180,-502,-805,-570,-414,-283
-107,-268,-161,187,26,-214,-126,-395,-746,-541,-405,-283
-107,-268,-161,187,26,-214,-82,-312,-673,-492,-375,-263
-92,-244,-151,168,29,-197,-53,-234,-605,-453,-336,-248
-73,-214,-141,143,34,-178,-4,-126,-512,-395,-317,-234
-58,-180,-122,119,31,-151,53,-19,-414,-331,-273,-209
-34,-146,-112,90,39,-129,92,78,-317,-258,-229,-190
-24,-117,-92,70,34,-104,107,126,-253,-209,-200,-170
-14,-107,-92,61,39,-100,117,156,-214,-185,-180,-141
-4,-97,-92,51,43,-95,122,156,-180,-151,-161,-122
4,-78,-82,36,43,-80,102,146,-156,-131,-136,-112
4,-48,-53,21,29,-51,78,126,-131,-126,-122,-107
9,-63,-73,26,41,-68,78,102,-112,-107,-97,-82
0,-68,-68,34,34,-68,63,58,-87,-78,-82,-73
-14,-48,-34,31,9,-41,53,24,-78,-68,-78,-73
-29,-29,0,29,-14,-14,39,-4,-68,-63,-73,-63
-24,-24,0,24,-12,-12,34,-24,-58,-58,-63,-53
-34,-9,24,21,-29,7,14,-39,-53,-53,-63,-58
-39,-9,29,24,-34,9,9,-43,-48,-43,-53,-53
-39,-9,29,24,-34,9,9,-48,-48,-39,-53,-53
-39,-9,29,24,-34,9,9,-48,-43,-34,-53,-53
-39,-9,29,24,-34,9,9,-48,-39,-29,-43,-48
-39,-19,19,29,-29,0,19,-39,-24,-29,-43,-39
-39,-14,24,26,-31,4,19,-39,-24,-24,-43,-39
-39,-14,24,26,-31,4,19,-39,-19,-19,-43,-34
-39,-9,29,24,-34,9,19,-39,-19,-19,-39,-34
-43,0,43,21,-43,21,19,-48,-29,-29,-48,-34
-43,4,48,19,-46,26,14,-48,-24,-29,-48,-29
-43,4,48,19,-46,26,14,-48,-24,-24,-48,-29
-39,4,43,17,-41,24,14,-53,-24,-24,-43,-29
-39,-4,34,21,-36,14,19,-48,-24,-14,-43,-29
-34,-4,29,19,-31,12,19,-43,-14,-14,-43,-29
-34,-4,29,19,-31,12,19,-34,-9,-9,-39,-24
-34,0,34,17,-34,17,19,-29,-9,-4,-39,-24
-34,9,43,12,-39,26,14,-34,-9,-9,-39,-29
-34,9,43,12,-39,26,9,-39,-4,-9,-34,-29
-29,14,43,7,-36,29,4,-43,-4,-9,-34,-29
-29,14,43,7,-36,29,0,-48,-4,-9,-34,-29
-29,14,43,7,-36,29,0,-43,-4,-9,-34,-29
-19,14,34,2,-26,24,0,-43,-4,-4,-29,-29
-19,14,34,2,-26,24,0,-39,0,-4,-29,-29
-19,19,39,0,-29,29,-4,-39,0,-4,-29,-24
-19,9,29,4,-24,19,-9,-29,9,4,-19,-24
-19,14,34,2,-26,24,-4,-29,14,4,-14,-24
-19,14,34,2,-26,24,0,-24,14,9,-14,-19
-19,14,34,2,-26,24,4,-19,19,14,-14,-19
-19,19,39,0,-29,29,0,-19,19,4,-19,-19
-19,19,39,0,-29,29,0,-9,24,9,-19,-19
-19,19,39,0,-29,29,0,-9,24,9,-19,-19
-14,19,34,-2,-24,26,-4,-14,24,4,-19,-14
-14,19,34,-2,-24,26,-4,-14,14,4,-19,-14
-9,19,29,-4,-19,24,-4,-14,19,9,-14,-14
-9,19,29,-4,-19,24,-4,-4,29,19,-9,-9
-9,24,34,-7,-21,29,-4,0,29,24,-4,-4
-9,39,48,-14,-29,43,-4,-9,34,14,-4,-4
-4,43,48,-19,-26,46,-4,-4,39,14,-4,-4
-4,48,53,-21,-29,51,-4,-4,39,14,-4,-4
0,53,53,-26,-26,53,-9,-4,48,24,0,-4
4,43,39,-24,-17,41,0,4,48,29,0,0
4,48,43,-26,-19,46,0,9,48,34,4,0
4,48,43,-26,-19,46,-9,14,53,39,4,4
9,48,39,-29,-14,43,0,24,53,43,9,4
14,53,39,-34,-12,46,-9,24,73,43,14,4
19,63,43,-41,-12,53,-9,29,78,48,14,9
19,68,48,-43,-14,58,-19,34,82,48,14,9
19,78,58,-48,-19,68,-19,34,82,58,19,14
19,73,53,-46,-17,63,-24,43,87,68,29,14
24,73,48,-48,-12,61,-24,43,92,68,34,19
29,73,43,-51,-7,58,-19,43,97,68,34,19
34,78,43,-56,-4,61,-19,53,102,73,43,29
34,78,43,-56,-4,61,-24,63,107,78,39,34
34,78,43,-56,-4,61,-24,68,112,82,43,34
39,82,43,-61,-2,63,-24,73,122,82,48,34
43,92,48,-68,-2,70,-29,78,126,82,48,39
48,87,39,-68,4,63,-29,92,122,102,53,43
58,87,29,-73,14,58,-29,102,126,107,63,48
63,87,24,-75,19,56,-39,107,136,112,68,53
63,97,34,-80,14,65,-39,112,141,117,68,58
58,117,58,-87,0,87,-43,112,146,112,68,58
63,126,63,-95,0,95,-48,117,156,117,73,63
68,131,63,-100,2,97,-48,122,165,126,78,68
73,136,63,-104,4,100,-48,141,170,136,82,73
78,131,53,-104,12,92,-43,156,195,141,97,78
82,141,58,-112,12,100,-53,165,200,146,102,82
92,146,53,-119,19,100,-53,165,209,151,107,87
92,141,48,-117,21,95,-53,175,219,165,117,92
102,161,58,-131,21,109,-58,185,229,180,122,107
107,175,68,-141,19,122,-58,195,239,185,126,112
112,175,63,-143,24,119,-58,209,248,200,131,117
117,180,63,-148,26,122,-58,219,258,209,141,122
122,180,58,-151,31,119,-78,229,258,204,146,126
131,190,58,-161,36,124,-78,239,268,214,151,126
136,195,58,-165,39,126,-87,244,278,229,161,136
141,204,63,-173,39,134,-92,253,287,229,165,136
151,214,63,-183,43,139,-87,273,297,244,180,151
156,229,73,-192,41,151,-92,278,307,244,185,156
161,234,73,-197,43,153,-92,287,317,258,200,161
170,234,63,-202,53,148,-97,297,326,268,209,165
180,244,63,-212,58,153,-102,307,346,278,214,165
185,253,68,-219,58,161,-107,307,346,278,219,170
190,268,78,-229,56,173,-112,312,351,283,224,175
195,268,73,-231,61,170,-112,317,356,292,229,180
200,258,58,-229,70,158,-112,326,375,302,234,195
204,258,53,-231,75,156,-112,331,390,312,244,200
209,268,58,-239,75,163,-122,336,390,312,248,200
214,278,63,-246,75,170,-122,336,390,312,253,209
219,292,73,-256,73,183,-122,336,385,317,253,209
219,292,73,-256,73,183,-122,341,390,322,258,209
219,297,78,-258,70,187,-126,341,390,322,258,214
219,297,78,-258,70,187,-131,341,390,322,258,214
224,292,68,-258,78,180,-122,341,400,336,258,229
224,297,73,-261,75,185,-122,341,400,336,263,229
224,297,73,-261,75,185,-122,341,400,336,263,229
224,292,68,-258,78,180,-126,341,400,336,263,229
224,297,73,-261,75,185,-136,341,390,326,253,229
224,302,78,-263,73,190,-141,326,385,326,253,224
224,312,87,-268,68,200,-141,322,380,322,253,219
224,317,92,-270,65,204,-136,307,375,317,248,214
224,312,87,-268,68,200,-136,302,370,326,258,224
224,307,82,-265,70,195,-136,297,366,322,253,214
214,297,82,-256,65,190,-136,287,361,317,253,209
209,287,78,-248,65,183,-131,278,356,312,248,209
204,283,78,-244,63,180,-131,258,331,297,234,204
190,283,92,-236,48,187,-131,248,326,283,224,195
190,283,92,-236,48,187,-131,229,312,273,219,185
175,287,112,-231,31,200,-131,224,302,268,204,185
165,263,97,-214,34,180,-126,204,292,258,209,180
161,244,82,-202,39,163,-117,200,283,248,204,175
151,234,82,-192,34,158,-112,185,268,239,195,161
141,229,87,-185,26,158,-107,170,253,219,185,151
131,209,78,-170,26,143,-92,165,248,219,165,141
122,200,78,-161,21,139,-87,151,234,204,151,131
112,190,78,-151,17,134,-82,141,219,195,146,122
102,180,78,-141,12,129,-78,126,204,180,131,112
97,170,73,-134,12,122,-73,117,190,161,126,102
87,170,82,-129,2,126,-68,102,175,146,107,92
82,161,78,-122,2,119,-63,92,156,141,102,82
73,151,78,-112,-2,114,-58,82,151,122,92,73
63,141,78,-102,-7,109,-58,73,136,107,82,63
63,126,63,-95,0,95,-53,58,131,102,73,53
53,112,58,-82,-2,85,-48,48,117,92,63,53
43,97,53,-70,-4,75,-43,39,107,82,48,39
34,97,63,-65,-14,80,-43,19,82,73,43,39
29,92,63,-61,-17,78,-39,9,78,63,34,39
19,82,63,-51,-21,73,-29,4,68,58,29,34
19,82,63,-51,-21,73,-29,-4,53,48,19,24
4,78,73,-41,-34,75,-19,-9,48,39,14,4
-4,63,68,-29,-36,65,-14,-19,39,34,9,0
-4,63,68,-29,-36,65,-14,-24,29,24,0,-4
-9,53,63,-21,-36,58,-14,-29,24,24,-4,-9
-14,53,68,-19,-41,61,-14,-34,14,14,-9,-9
-19,53,73,-17,-46,63,-14,-39,4,14,-9,-14
-24,53,78,-14,-51,65,-19,-43,0,4,-14,-19
-29,48,78,-9,-53,63,-14,-43,-4,0,-24,-24
-24,39,63,-7,-43,51,-4,-34,-4,4,-14,-24
-24,34,58,-4,-41,46,-4,-43,-4,0,-19,-24
-24,24,48,0,-36,36,-4,-43,-4,-4,-24,-24
-34,19,53,7,-43,36,-4,-48,0,-9,-24,-19
-34,14,48,9,-41,31,-4,-58,-14,-19,-34,-29
-34,14,48,9,-41,31,-4,-63,-19,-19,-39,-29
-39,14,53,12,-46,34,0,-63,-19,-24,-39,-29
-39,4,43,17,-41,24,4,-58,-24,-24,-39,-34
-34,-4,29,19,-31,12,14,-53,-24,-24,-43,-34
-34,-4,29,19,-31,12,14,-53,-29,-29,-48,-34
-39,-9,29,24,-34,9,14,-63,-29,-29,-48,-39
-39,-9,29,24,-34,9,14,-63,-29,-29,-48,-39
-48,0,48,24,-48,24,4,-78,-34,-29,-48,-48
-48,0,48,24,-48,24,4,-78,-34,-29,-48,-48
-48,-4,43,26,-46,19,9,-78,-34,-34,-48,-48
-53,-9,43,31,-48,17,9,-78,-34,-39,-48,-48
-43,0,43,21,-43,21,9,-78,-34,-48,-48,-48
-43,0,43,21,-43,21,4,-78,-34,-43,-48,-48
-43,0,43,21,-43,21,4,-78,-34,-43,-48,-53
-43,0,43,21,-43,21,4,-78,-34,-48,-53,-53
-43,0,43,21,-43,21,4,-68,-34,-39,-53,-53
-43,0,43,21,-43,21,4,-68,-34,-39,-53,-53
-43,-4,39,24,-41,17,4,-73,-39,-39,-48,-53
-43,-4,39,24,-41,17,9,-73,-39,-39,-48,-53
-43,-4,39,24,-41,17,9,-73,-39,-34,-48,-53
-43,-4,39,24,-41,17,9,-73,-39,-34,-48,-53
-43,-4,39,24,-41,17,9,-73,-39,-39,-48,-53
-43,-4,39,24,-41,17,9,-73,-39,-39,-53,-53
-43,0,43,21,-43,21,9,-73,-39,-39,-53,-58
-43,0,43,21,-43,21,4,-73,-39,-39,-53,-58
-43,0,43,21,-43,21,4,-73,-39,-39,-53,-53
-48,0,48,24,-48,24,4,-73,-34,-39,-53,-53
-48,-4,43,26,-46,19,4,-68,-43,-39,-53,-53
-48,-4,43,26,-46,19,9,-68,-43,-39,-53,-53
-48,-9,39,29,-43,14,14,-68,-43,-39,-53,-53
-48,-9,39,29,-43,14,14,-68,-43,-39,-53,-53
-48,-4,43,26,-46,19,4,-78,-43,-48,-58,-63
-48,0,48,24,-48,24,4,-78,-43,-48,-58,-63
-48,4,53,21,-51,29,4,-78,-43,-48,-53,-63
-48,9,58,19,-53,34,0,-78,-43,-48,-53,-63
-48,9,58,19,-53,34,9,-68,-43,-48,-48,-53
-43,9,53,17,-48,31,14,-63,-43,-43,-48,-53
-43,4,48,19,-46,26,14,-63,-39,-43,-53,-53
-43,4,48,19,-46,26,14,-68,-39,-43,-53,-53
-53,9,63,21,-58,36,14,-78,-39,-43,-53,-63
-53,9,63,21,-58,36,14,-73,-39,-43,-53,-63
-53,9,63,21,-58,36,14,-73,-39,-43,-48,-58
-53,9,63,21,-58,36,9,-73,-39,-39,-48,-58
-43,9,53,17,-48,31,19,-73,-29,-29,-43,-48
-43,14,58,14,-51,36,19,-78,-24,-29,-43,-48
-48,14,63,17,-56,39,14,-78,-24,-29,-48,-48
-48,19,68,14,-58,43,14,-78,-24,-29,-48,-48
-48,19,68,14,-58,43,19,-68,-34,-39,-53,-58
-48,9,58,19,-53,34,19,-68,-34,-39,-53,-53
-48,19,68,14,-58,43,19,-68,-34,-39,-58,-53
-48,19,68,14,-58,43,14,-68,-34,-39,-58,-53
-48,29,78,9,-63,53,4,-78,-34,-34,-53,-43
-48,29,78,9,-63,53,4,-78,-34,-34,-48,-43
-43,29,73,7,-58,51,9,-78,-34,-34,-48,-43
-43,29,73,7,-58,51,9,-78,-34,-34,-48,-43
-53,29,82,12,-68,56,19,-68,-34,-24,-39,-43
-53,24,78,14,-65,51,14,-68,-29,-24,-43,-43
-48,19,68,14,-58,43,14,-68,-24,-24,-43,-43
-48,14,63,17,-56,39,19,-63,-14,-24,-39,-43
-48,9,58,19,-53,34,19,-63,-24,-24,-39,-43
-48,9,58,19,-53,34,19,-63,-19,-24,-39,-43
-53,9,63,21,-58,36,19,-63,-19,-24,-34,-39
-53,14,68,19,-61,41,14,-63,-19,-24,-34,-39
-43,24,68,9,-56,46,14,-63,-34,-34,-39,-53
-43,24,68,9,-56,46,14,-63,-34,-34,-39,-53
-43,19,63,12,-53,41,14,-63,-34,-34,-43,-53
-43,19,63,12,-53,41,14,-63,-34,-34,-43,-53
-43,29,73,7,-58,51,4,-78,-24,-24,-39,-53
-43,29,73,7,-58,51,4,-78,-24,-24,-39,-48
-43,29,73,7,-58,51,4,-78,-24,-24,-39,-48
-43,29,73,7,-58,51,9,-78,-29,-24,-39,-53
-43,24,68,9,-56,46,9,-68,-29,-24,-43,-53
-39,24,63,7,-51,43,9,-63,-29,-29,-43,-53
-39,14,53,12,-46,34,9,-63,-29,-29,-43,-53
-39,14,53,12,-46,34,9,-68,-29,-29,-43,-53
-43,14,58,14,-51,36,9,-68,-19,-24,-34,-48
-43,14,58,14,-51,36,9,-68,-19,-24,-34,-43
-43,14,58,14,-51,36,9,-68,-19,-34,-34,-43
-43,14,58,14,-51,36,4,-68,-19,-34,-29,-39
-53,0,53,26,-53,26,14,-68,-29,-34,-39,-48
-53,0,53,26,-53,26,14,-68,-34,-34,-43,-48
-53,4,58,24,-56,31,19,-68,-34,-34,-43,-48
-53,4,58,24,-56,31,19,-68,-34,-34,-48,-48
-43,9,53,17,-48,31,9,-82,-34,-43,-48,-48
-43,9,53,17,-48,31,9,-87,-39,-43,-48,-48
-43,4,48,19,-46,26,9,-87,-39,-43,-48,-48
-43,19,63,12,-53,41,9,-87,-43,-43,-48,-53
-53,9,63,21,-58,36,9,-87,-34,-43,-53,-63
-53,4,58,24,-56,31,9,-87,-34,-48,-53,-63
-53,0,53,26,-53,26,9,-87,-34,-48,-48,-63
-53,0,53,26,-53,26,14,-87,-34,-48,-48,-63
-43,14,58,14,-51,36,14,-87,-43,-48,-58,-63
-43,14,58,14,-51,36,9,-92,-48,-48,-58,-63
-43,14,58,14,-51,36,9,-92,-48,-48,-58,-63
-43,9,53,17,-48,31,9,-87,-48,-48,-58,-63
-43,9,53,17,-48,31,19,-87,-48,-58,-53,-68
-53,14,68,19,-61,41,19,-92,-53,-58,-53,-68
-53,14,68,19,-61,41,19,-92,-53,-58,-58,-68
-48,14,63,17,-56,39,19,-92,-53,-58,-58,-68
-48,0,48,24,-48,24,19,-82,-53,-48,-58,-58
-53,0,53,26,-53,26,19,-87,-53,-43,-58,-58
-53,0,53,26,-53,26,19,-87,-53,-43,-53,-58
-48,0,48,24,-48,24,24,-82,-53,-43,-53,-58
-48,4,53,21,-51,29,14,-92,-53,-43,-53,-58
-48,4,53,21,-51,29,14,-92,-58,-48,-58,-63
-48,9,58,19,-53,34,14,-92,-58,-53,-58,-63
-48,19,68,14,-58,43,14,-92,-58,-53,-58,-63
-48,9,58,19,-53,34,24,-87,-63,-43,-58,-63
-53,0,53,26,-53,26,19,-87,-63,-48,-58,-63
-53,-9,43,31,-48,17,19,-87,-58,-48,-58,-63
-53,-19,34,36,-43,7,19,-87,-58,-48,-58,-63
-43,-14,29,29,-36,7,14,-97,-58,-53,-68,-63
-43,-14,29,29,-36,7,14,-97,-58,-53,-68,-63
-43,-9,34,26,-39,12,14,-97,-63,-58,-73,-63
-43,-4,39,24,-41,17,9,-102,-68,-68,-78,-63
-53,0,53,26,-53,26,0,-102,-68,-68,-68,-63
-53,0,53,26,-53,26,4,-102,-68,-63,-68,-63
-53,4,58,24,-56,31,4,-102,-68,-63,-63,-63
-53,14,68,19,-61,41,0,-102,-68,-68,-63,-63
-43,0,43,21,-43,21,9,-92,-63,-63,-63,-53
-43,-4,39,24,-41,17,14,-87,-63,-58,-63,-53
-43,-14,29,29,-36,7,14,-87,-63,-58,-63,-53
-43,-19,24,31,-34,2,14,-92,-63,-53,-68,-53
-43,-14,29,29,-36,7,4,-97,-63,-63,-68,-53
-43,-14,29,29,-36,7,4,-97,-68,-63,-68,-53
-43,-9,34,26,-39,12,4,-97,-73,-63,-68,-53
-48,0,48,24,-48,24,4,-97,-73,-58,-68,-53
-58,-9,48,34,-53,19,9,-97,-73,-58,-63,-53
-53,-9,43,31,-48,17,9,-97,-73,-63,-63,-53
-53,-14,39,34,-46,12,9,-97,-73,-63,-63,-53
-58,-14,43,36,-51,14,9,-97,-73,-63,-63,-53
-58,-9,48,34,-53,19,9,-97,-73,-63,-63,-58
-58,-9,48,34,-53,19,9,-92,-73,-63,-63,-58
-58,-14,43,36,-51,14,9,-92,-73,-63,-63,-53
-58,-14,43,36,-51,14,9,-92,-73,-63,-63,-53
-58,-4,53,31,-56,24,0,-102,-73,-63,-63,-53
-58,-4,53,31,-56,24,0,-102,-78,-63,-63,-53
-58,0,58,29,-58,29,4,-102,-78,-63,-63,-58
-58,0,58,29,-58,29,4,-107,-78,-63,-68,-58
-48,0,48,24,-48,24,14,-97,-73,-63,-58,-58
-43,-4,39,24,-41,17,14,-97,-73,-63,-58,-58
-43,-4,39,24,-41,17,14,-97,-73,-63,-58,-58
-43,0,43,21,-43,21,14,-97,-73,-63,-58,-58
-53,0,53,26,-53,26,14,-107,-73,-58,-58,-53
-58,0,58,29,-58,29,14,-107,-73,-58,-58,-53
-58,-9,48,34,-53,19,19,-107,-73,-58,-58,-53
-58,-9,48,34,-53,19,19,-107,-73,-58,-58,-53
-58,-19,39,39,-48,9,14,-102,-73,-68,-58,-58
-58,-14,43,36,-51,14,14,-102,-73,-68,-63,-58
-58,-14,43,36,-51,14,19,-102,-73,-68,-63,-58
-58,-14,43,36,-51,14,19,-102,-73,-68,-58,-53
-58,-4,53,31,-56,24,9,-112,-78,-68,-68,-53
-58,-4,53,31,-56,24,9,-112,-78,-63,-68,-53
-58,-4,53,31,-56,24,9,-112,-78,-63,-63,-53
-58,-4,53,31,-56,24,9,-107,-73,-63,-63,-53
-58,-4,53,31,-56,24,9,-107,-82,-63,-68,-63
-53,-4,48,29,-51,21,4,-102,-82,-63,-68,-63
-53,0,53,26,-53,26,4,-102,-82,-63,-68,-63
-53,0,53,26,-53,26,4,-102,-82,-68,-68,-63
-53,-4,48,29,-51,21,4,-92,-78,-58,-68,-53
-53,-9,43,31,-48,17,9,-92,-78,-58,-68,-48
-53,-9,43,31,-48,17,9,-97,-78,-58,-68,-48
-53,-14,39,34,-46,12,9,-97,-73,-58,-68,-48
-63,-14,48,39,-56,17,19,-97,-73,-68,-58,-58
-63,-14,48,39,-56,17,19,-97,-73,-68,-63,-58
-63,-14,48,39,-56,17,19,-97,-73,-68,-68,-58
-63,-9,53,36,-58,21,19,-102,-73,-73,-68,-58
-53,-9,43,31,-48,17,9,-112,-78,-73,-63,-48
-53,-9,43,31,-48,17,4,-112,-78,-68,-58,-43
-53,-4,48,29,-51,21,4,-112,-78,-63,-58,-43
-53,0,53,26,-53,26,4,-112,-82,-63,-58,-43
-53,0,53,26,-53,26,4,-97,-82,-68,-58,-53
-53,-4,48,29,-51,21,4,-97,-78,-63,-58,-53
-53,-9,43,31,-48,17,9,-97,-73,-63,-58,-53
-53,-9,43,31,-48,17,9,-92,-68,-63,-53,-53
-48,-9,39,29,-43,14,4,-102,-78,-63,-58,-43
-48,-14,34,31,-41,9,0,-102,-73,-58,-53,-39
-48,-19,29,34,-39,4,-4,-102,-68,-53,-48,-34
-48,-14,34,31,-41,9,-4,-102,-68,-53,-48,-34
-48,-14,34,31,-41,9,14,-92,-68,-58,-53,-43
-48,-19,29,34,-39,4,24,-87,-68,-53,-48,-34
-48,-9,39,29,-43,14,14,-102,-82,-58,-48,-43
-58,9,68,24,-63,39,9,-107,-87,-68,-58,-58
-68,4,73,31,-70,39,9,-107,-87,-58,-48,-48
-68,0,68,34,-68,34,9,-107,-87,-58,-48,-48
-68,-4,63,36,-65,29,9,-107,-87,-58,-48,-48
-68,-9,58,39,-63,24,9,-107,-87,-58,-48,-48
-68,-19,48,43,-58,14,19,-97,-78,-58,-58,-48
-68,-19,48,43,-58,14,19,-97,-78,-58,-58,-48
-68,-19,48,43,-58,14,19,-97,-78,-58,-58,-48
-68,-19,48,43,-58,14,19,-97,-78,-58,-58,-48
-58,-9,48,34,-53,19,9,-97,-68,-58,-48,-39
-58,-9,48,34,-53,19,9,-97,-68,-58,-48,-39
-58,-9,48,34,-53,19,9,-97,-68,-58,-48,-39
-58,-9,48,34,-53,19,9,-97,-68,-58,-48,-39
-43,0,43,21,-43,21,24,-97,-78,-58,-58,-39
-43,9,53,17,-48,31,24,-97,-78,-58,-58,-39
-43,9,53,17,-48,31,24,-97,-78,-53,-58,-39
-43,14,58,14,-51,36,19,-97,-68,-53,-53,-34
-29,34,63,-2,-46,48,14,-87,-63,-48,-43,-39
-29,48,78,-9,-53,63,14,-87,-58,-39,-34,-34
-29,48,78,-9,-53,63,14,-87,-58,-34,-34,-34
-29,53,82,-12,-56,68,19,-87,-58,-34,-29,-34
-24,53,78,-14,-51,65,19,-82,-39,-34,-29,-29
-24,53,78,-14,-51,65,19,-82,-39,-34,-29,-29
-24,53,78,-14,-51,65,24,-78,-39,-34,-29,-29
-24,58,82,-17,-53,70,24,-78,-39,-29,-29,-29
-34,53,87,-9,-61,70,34,-68,-39,-19,-29,-14
-29,48,78,-9,-53,63,34,-68,-34,-19,-19,-14
-29,43,73,-7,-51,58,39,-68,-29,-14,-19,-14
-29,43,73,-7,-51,58,39,-63,-29,-14,-19,-14
-39,43,82,-2,-61,63,34,-73,-34,-24,-29,-14
-39,43,82,-2,-61,63,34,-73,-34,-24,-29,-14
-39,48,87,-4,-63,68,34,-73,-34,-24,-29,-14
-39,48,87,-4,-63,68,29,-73,-34,-24,-29,-14
-24,48,73,-12,-48,61,24,-73,-34,-19,-19,-9
-24,48,73,-12,-48,61,14,-73,-34,-19,-19,-9
-24,48,73,-12,-48,61,4,-82,-34,-19,-19,-9
-19,48,68,-14,-43,58,4,-82,-34,-19,-19,-9
-19,68,87,-24,-53,78,0,-87,-24,-9,-19,-9
-24,68,92,-21,-58,80,-14,-92,-24,-9,-19,-4
-24,68,92,-21,-58,80,-19,-92,-24,-4,-14,-4
-14,82,97,-34,-56,90,-19,-92,-24,-4,-9,0
0,78,78,-39,-39,78,-29,-92,-24,-14,-9,4
14,78,63,-46,-24,70,-34,-92,-24,-9,-4,4
19,73,53,-46,-17,63,-34,-92,-24,-9,-4,9
24,58,34,-41,-4,46,-39,-92,-34,-9,-4,9
14,58,43,-36,-14,51,-39,-97,-39,-14,-9,4
14,53,39,-34,-12,46,-39,-97,-43,-19,-14,4
14,48,34,-31,-9,41,-39,-97,-48,-24,-14,-4
4,43,39,-24,-17,41,-39,-97,-48,-29,-19,-9
-9,48,58,-19,-34,53,-29,-97,-63,-34,-34,-9
-19,43,63,-12,-41,53,-24,-97,-68,-34,-34,-9
-19,39,58,-9,-39,48,-19,-102,-73,-39,-39,-14
-19,39,58,-9,-39,48,-19,-102,-73,-43,-39,-14
-9,24,34,-7,-21,29,-9,-102,-73,-43,-29,-14
-9,19,29,-4,-19,24,-9,-102,-78,-43,-29,-14
-9,9,19,0,-14,14,-9,-102,-82,-48,-39,-19
-9,4,14,2,-12,9,-9,-107,-87,-53,-43,-19
-4,4,9,0,-7,7,-24,-107,-87,-53,-43,-29
-4,4,9,0,-7,7,-24,-107,-82,-53,-39,-29
-4,4,9,0,-7,7,-24,-107,-82,-53,-39,-29
-4,4,9,0,-7,7,-24,-107,-82,-53,-39,-29
0,-4,-4,2,2,-4,-29,-97,-73,-48,-39,-19
0,0,0,0,0,0,-29,-97,-73,-48,-39,-19
-4,0,4,2,-4,2,-29,-102,-82,-58,-43,-19
-4,-14,-9,9,2,-12,-29,-102,-87,-58,-43,-19
-9,-9,0,9,-4,-4,-29,-112,-102,-73,-58,-39
-14,-9,4,12,-9,-2,-24,-117,-102,-78,-58,-39
-19,-19,0,19,-9,-9,-19,-117,-107,-78,-63,-39
-24,-14,9,19,-17,-2,-19,-117,-112,-82,-68,-48
-24,-14,9,19,-17,-2,-29,-117,-102,-78,-58,-48
-29,-14,14,21,-21,0,-24,-117,-102,-78,-63,-48
-34,-14,19,24,-26,2,-14,-117,-102,-78,-63,-48
-39,-19,19,29,-29,0,-14,-112,-102,-78,-63,-53
-43,-24,19,34,-31,-2,0,-112,-102,-78,-63,-53
-48,-29,19,39,-34,-4,0,-112,-102,-82,-63,-53
-53,-29,24,41,-39,-2,0,-122,-102,-82,-68,-53
-58,-29,29,43,-43,0,0,-126,-102,-82,-68,-58
-63,-29,34,46,-48,2,-9,-136,-112,-82,-68,-58
-68,-29,39,48,-53,4,-4,-136,-112,-82,-68,-63
-68,-29,39,48,-53,4,-4,-136,-112,-82,-78,-63
-63,-29,34,46,-48,2,-4,-136,-117,-92,-78,-68
-63,-24,39,43,-51,7,4,-131,-107,-92,-73,-68
-63,-24,39,43,-51,7,4,-126,-102,-87,-73,-63
-63,-34,29,48,-46,-2,4,-117,-102,-82,-73,-63
-63,-34,29,48,-46,-2,4,-112,-102,-82,-73,-63
-73,-34,39,53,-56,2,4,-122,-102,-73,-68,-48
-73,-29,43,51,-58,7,4,-122,-102,-73,-68,-48
-73,-29,43,51,-58,7,4,-122,-102,-73,-68,-48
-73,-29,43,51,-58,7,9,-122,-97,-73,-68,-48
-73,-29,43,51,-58,7,9,-122,-97,-78,-68,-58
-78,-29,48,53,-63,9,9,-122,-97,-78,-68,-58
-78,-34,43,56,-61,4,9,-122,-97,-78,-68,-58
-78,-34,43,56,-61,4,14,-122,-97,-78,-68,-58
-68,-29,39,48,-53,4,4,-131,-97,-78,-63,-48
-68,-19,48,43,-58,14,4,-126,-92,-73,-58,-48
-68,-14,53,41,-61,19,4,-122,-92,-73,-58,-48
-68,-9,58,39,-63,24,4,-122,-92,-73,-58,-48
-68,-4,63,36,-65,29,14,-117,-92,-63,-63,-48
-68,-4,63,36,-65,29,14,-117,-82,-73,-73,-58
-68,-4,63,36,-65,29,19,-102,-87,-82,-73,-58
-73,-24,48,48,-61,12,39,-97,-78,-82,-73,-58
-92,-19,73,56,-82,26,43,-87,-68,-73,-73,-58
-97,4,102,46,-100,53,43,-92,-53,-53,-53,-53
-107,14,122,46,-114,68,63,-78,-24,-34,-39,-39
-107,24,131,41,-119,78,82,-39,9,-9,-29,-34
-87,43,131,21,-109,87,97,4,43,9,-9,-29
-78,53,131,12,-104,92,102,39,87,39,0,-9
-73,39,112,17,-92,75,112,58,126,63,19,0
-53,24,78,14,-65,51,122,92,146,82,34,4
-19,24,43,-2,-31,34,131,151,195,126,63,19
24,48,24,-36,0,36,136,229,283,200,126,68
87,78,-9,-82,48,34,156,361,400,302,204,131
165,82,-82,-124,124,0,180,522,527,390,258,170
239,73,-165,-156,202,-46,209,678,644,444,302,190
312,97,-214,-204,263,-58,190,785,751,522,366,239
400,151,-248,-275,324,-48,141,839,858,610,444,302
502,224,-278,-363,390,-26,48,814,927,702,531,385
585,273,-312,-429,448,-19,-29,722,907,746,600,463
658,312,-346,-485,502,-17,-107,634,854,751,649,512
741,366,-375,-553,558,-4,-229,551,790,751,683,566
810,409,-400,-610,605,4,-331,444,663,688,663,590
810,375,-434,-592,622,-29,-380,322,453,517,556,531
790,292,-497,-541,644,-102,-419,165,200,292,385,409
766,234,-531,-500,649,-148,-473,-34,-43,82,229,297
673,170,-502,-422,588,-165,-512,-234,-253,-92,107,204
531,92,-439,-312,485,-173,-502,-409,-409,-219,0,117
366,43,-322,-204,344,-139,-478,-580,-541,-297,-82,58
185,14,-170,-100,178,-78,-439,-732,-658,-361,-131,29
34,-14,-48,-9,41,-31,-400,-829,-756,-424,-195,-34
-53,-73,-19,63,-17,-46,-375,-873,-839,-507,-263,-107
-107,-156,-48,131,-29,-102,-331,-854,-912,-575,-331,-175
-126,-195,-68,161,-29,-131,-273,-746,-902,-585,-366,-219
-117,-204,-87,161,-14,-146,-219,-610,-834,-556,-366,-234
-107,-219,-112,163,2,-165,-161,-492,-775,-531,-366,-253
-107,-229,-122,168,7,-175,-117,-405,-727,-522,-366,-263
-107,-219,-112,163,2,-165,-82,-322,-663,-483,-346,-253
-92,-224,-131,158,19,-178,-34,-214,-575,-424,-307,-229
-73,-214,-141,143,34,-178,24,-107,-492,-375,-278,-214
-48,-180,-131,114,41,-156,73,-9,-395,-322,-244,-190
-34,-146,-112,90,39,-129,112,87,-297,-258,-200,-161
-24,-126,-102,75,39,-114,136,136,-234,-209,-170,-141
-14,-97,-82,56,34,-90,126,146,-204,-185,-151,-131
4,-78,-82,36,43,-80,122,136,-170,-161,-131,-112
14,-68,-82,26,48,-75,102,136,-146,-141,-107,-92
14,-58,-73,21,43,-65,87,117,-122,-117,-92,-78
9,-53,-63,21,36,-58,68,92,-102,-107,-87,-73
0,-39,-39,19,19,-39,63,58,-87,-87,-73,-63
-4,-29,-24,17,9,-26,43,34,-78,-68,-58,-43
0,-29,-29,14,14,-29,39,24,-58,-53,-43,-34
-4,-34,-29,19,12,-31,43,4,-48,-39,-34,-24
-14,-9,4,12,-9,-2,34,-19,-43,-43,-34,-29
-29,9,39,9,-34,24,19,-24,-34,-43,-29,-24
-29,9,39,9,-34,24,19,-29,-39,-39,-34,-24
-29,9,39,9,-34,24,19,-29,-39,-34,-39,-24
-29,9,39,9,-34,24,19,-29,-39,-29,-34,-19
-29,0,29,14,-29,14,29,-29,-24,-39,-34,-29
-29,4,34,12,-31,19,29,-29,-24,-34,-34,-29
-29,4,34,12,-31,19,29,-29,-19,-29,-34,-24
-29,9,39,9,-34,24,29,-29,-19,-29,-29,-24
-34,0,34,17,-34,17,29,-29,-19,-19,-29,-14
-34,4,39,14,-36,21,24,-29,-14,-19,-29,-9
-34,4,39,14,-36,21,24,-29,-14,-14,-29,-9
-29,4,34,12,-31,19,24,-34,-14,-14,-24,-9
-29,9,39,9,-34,24,19,-24,-14,-14,-24,-9
-24,14,39,4,-31,26,19,-24,-4,-14,-24,-9
-24,19,43,2,-34,31,19,-19,0,-9,-19,-4
-24,29,53,-2,-39,41,19,-19,0,-4,-19,-4
-24,24,48,0,-36,36,19,-9,0,0,-9,-9
-24,19,43,2,-34,31,19,-9,4,0,-4,-9
-19,19,39,0,-29,29,19,-9,4,0,-4,-9
-19,14,34,2,-26,24,19,-9,4,0,-4,-9
-9,19,29,-4,-19,24,19,-14,4,0,-4,0
0,24,24,-12,-12,24,19,-14,4,4,0,0
0,29,29,-14,-14,29,19,-9,9,4,0,0
0,39,39,-19,-19,39,14,-9,9,4,0,4
-9,34,43,-12,-26,39,4,-9,9,4,0,4
-9,34,43,-12,-26,39,4,-9,14,4,4,4
-9,29,39,-9,-24,34,4,-4,14,9,4,9
-9,24,34,-7,-21,29,4,0,19,14,4,9
0,29,29,-14,-14,29,9,0,19,14,0,9
0,29,29,-14,-14,29,9,9,24,19,0,9
0,29,29,-14,-14,29,9,9,24,19,0,9
4,29,24,-17,-9,26,4,4,24,14,0,14
4,43,39,-24,-17,41,-4,-4,24,4,0,4
9,48,39,-29,-14,43,-4,-4,29,9,4,4
9,53,43,-31,-17,48,-4,4,39,19,9,9
9,63,53,-36,-21,58,-4,9,39,24,14,14
9,58,48,-34,-19,53,4,19,34,24,14,24
14,53,39,-34,-12,46,4,24,39,24,14,24
14,48,34,-31,-9,41,4,24,39,24,14,24
19,43,24,-31,-2,34,0,24,48,34,19,24
24,39,14,-31,4,26,0,34,48,34,19,19
24,48,24,-36,0,36,0,39,48,34,24,19
24,53,29,-39,-2,41,-9,43,53,34,24,24
29,58,29,-43,0,43,0,53,53,34,29,24
34,68,34,-51,0,51,0,53,63,43,34,34
39,73,34,-56,2,53,0,58,68,48,34,39
39,73,34,-56,2,53,-9,63,73,48,34,39
39,78,39,-58,0,58,-9,63,73,58,39,43
29,73,43,-51,-7,58,-14,73,78,58,29,39
34,73,39,-53,-2,56,-14,73,82,58,34,39
39,73,34,-56,2,53,-9,73,87,58,34,34
43,78,34,-61,4,56,-9,82,92,63,43,39
43,78,34,-61,4,56,-4,92,87,78,58,53
43,78,34,-61,4,56,-4,97,92,82,63,53
48,82,34,-65,7,58,-4,102,102,82,68,53
53,92,39,-73,7,65,-9,107,107,82,68,58
58,97,39,-78,9,68,-19,122,122,92,63,63
68,97,29,-82,19,63,-19,131,126,97,73,68
73,97,24,-85,24,61,-29,136,136,102,78,73
73,107,34,-90,19,70,-29,141,141,107,78,78
78,131,53,-104,12,92,-34,141,146,112,87,78
82,136,53,-109,14,95,-39,146,156,117,92,82
87,136,48,-112,19,92,-39,151,165,126,97,87
92,136,43,-114,24,90,-39,170,170,136,102,92
97,136,39,-117,29,87,-34,175,175,131,107,87
102,151,48,-126,26,100,-43,185,180,136,112,92
112,161,48,-136,31,104,-43,185,190,141,117,97
112,161,48,-136,31,104,-43,195,200,156,126,102
122,161,39,-141,41,100,-48,214,209,170,131,117
126,175,48,-151,39,112,-48,224,219,175,136,122
131,175,43,-153,43,109,-48,239,229,190,141,126
136,180,43,-158,46,112,-48,248,239,200,151,131
151,190,39,-170,56,114,-58,258,248,195,156,131
161,200,39,-180,61,119,-58,268,258,204,161,136
165,204,39,-185,63,122,-68,273,268,219,170,151
170,214,43,-192,63,129,-73,283,278,219,175,156
180,214,34,-197,73,124,-87,292,287,234,190,170
185,229,43,-207,70,136,-92,297,297,234,195,175
190,234,43,-212,73,139,-92,307,307,248,209,180
200,234,34,-217,82,134,-97,317,317,258,219,185
219,253,34,-236,92,143,-102,336,326,268,214,185
224,263,39,-244,92,151,-107,336,326,268,219,190
229,278,48,-253,90,163,-112,341,331,273,224,195
234,278,43,-256,95,161,-112,346,336,283,229,200
229,278,48,-253,90,163,-112,346,346,283,224,204
234,278,43,-256,95,161,-112,351,361,292,234,209
239,287,48,-263,95,168,-122,356,361,292,239,209
244,297,53,-270,95,175,-122,356,361,292,244,219
248,302,53,-275,97,178,-122,366,366,297,253,219
248,302,53,-275,97,178,-122,370,370,302,258,219
248,307,58,-278,95,183,-126,370,370,302,258,224
248,307,58,-278,95,183,-131,370,370,302,258,224
253,302,48,-278,102,175,-131,370,380,317,268,239
253,307,53,-280,100,180,-131,370,380,317,273,239
253,307,53,-280,100,180,-131,370,380,317,273,239
253,302,48,-278,102,175,-136,370,380,317,273,239
253,312,58,-283,97,185,-126,370,370,317,273,234
253,312,58,-283,97,185,-131,356,366,317,273,234
253,317,63,-285,95,190,-131,351,361,312,273,234
253,317,63,-285,95,190,-126,336,356,307,268,234
253,317,63,-285,95,190,-131,331,351,317,268,244
253,317,63,-285,95,190,-136,326,346,312,263,234
244,312,68,-278,87,190,-141,317,341,307,263,229
239,307,68,-273,85,187,-141,307,336,302,258,229
234,287,53,-261,90,170,-131,297,331,297,253,214
219,283,63,-251,78,173,-131,287,326,283,244,204
219,278,58,-248,80,168,-131,268,312,273,239,195
204,278,73,-241,65,175,-131,263,302,268,224,195
195,263,68,-229,63,165,-117,244,292,248,209,190
190,244,53,-217,68,148,-107,239,283,239,204,185
180,234,53,-207,63,143,-102,224,268,229,195,170
170,229,58,-200,56,143,-97,209,253,209,185,161
161,219,58,-190,51,139,-82,195,229,200,175,151
151,209,58,-180,46,134,-78,180,214,185,161,141
141,200,58,-170,41,129,-73,170,200,175,156,131
131,190,58,-161,36,124,-68,156,185,161,141,122
117,161,43,-139,36,102,-63,146,180,151,136,122
107,161,53,-134,26,107,-58,131,165,136,117,112
102,151,48,-126,26,100,-53,122,146,131,112,102
92,141,48,-117,21,95,-48,112,141,112,102,92
82,141,58,-112,12,100,-43,102,126,107,92,82
82,126,43,-104,19,85,-43,87,122,102,82,73
73,112,39,-92,17,75,-43,78,107,92,73,73
63,97,34,-80,14,65,-43,68,97,82,58,58
43,107,63,-75,-9,85,-43,48,82,73,63,39
39,102,63,-70,-12,82,-39,39,78,63,53,39
29,92,63,-61,-17,78,-29,34,68,58,48,34
29,92,63,-61,-17,78,-29,24,53,48,39,24
24,78,53,-51,-14,65,-19,19,48,39,24,14
14,63,48,-39,-17,56,-14,9,39,34,19,9
14,63,48,-39,-17,56,-14,4,29,24,9,4
9,53,43,-31,-17,48,-14,0,24,24,4,0
4,58,53,-31,-24,56,-9,-4,24,4,-9,-9
0,53,53,-26,-26,53,-4,-9,14,4,-9,-14
-4,48,53,-21,-29,51,-4,-14,9,-4,-14,-19
-9,39,48,-14,-29,43,4,-14,4,-9,-24,-24
-14,24,39,-4,-26,31,4,-4,0,-4,-14,-19
-14,24,39,-4,-26,31,4,-14,-4,-9,-19,-24
-14,19,34,-2,-24,26,4,-14,-9,-14,-24,-29
-24,19,43,2,-34,31,4,-19,-9,-19,-24,-29
-24,4,29,9,-26,17,4,-29,-14,-19,-24,-29
-24,4,29,9,-26,17,4,-34,-19,-19,-29,-29
-29,4,34,12,-31,19,9,-34,-19,-24,-29,-29
-29,-4,24,17,-26,9,14,-29,-24,-24,-29,-34
-24,4,29,9,-26,17,14,-34,-24,-24,-34,-24
-24,4,29,9,-26,17,14,-34,-29,-29,-39,-24
-29,0,29,14,-29,14,14,-43,-29,-29,-39,-29
-29,0,29,14,-29,14,14,-43,-29,-29,-39,-29
-29,9,39,9,-34,24,14,-48,-34,-39,-39,-39
-29,9,39,9,-34,24,14,-48,-34,-39,-39,-39
-29,4,34,12,-31,19,19,-48,-34,-43,-39,-39
-34,0,34,17,-34,17,19,-48,-34,-48,-39,-39
-34,-9,24,21,-29,7,29,-39,-43,-48,-48,-39
-34,-9,24,21,-29,7,24,-39,-43,-43,-48,-39
-34,-9,24,21,-29,7,24,-39,-43,-43,-48,-43
-34,-9,24,21,-29,7,24,-39,-43,-48,-53,-43
-24,0,24,12,-24,12,24,-48,-43,-48,-53,-43
-24,0,24,12,-24,12,24,-48,-43,-48,-53,-43
-24,-4,19,14,-21,7,24,-53,-48,-48,-48,-43
-24,-4,19,14,-21,7,29,-53,-48,-48,-48,-43
-34,0,34,17,-34,17,19,-43,-39,-43,-48,-43
-34,4,39,14,-36,21,19,-43,-39,-43,-48,-43
-34,9,43,12,-39,26,19,-43,-39,-48,-48,-43
-34,14,48,9,-41,31,19,-43,-39,-48,-53,-43
-34,14,48,9,-41,31,19,-43,-48,-58,-53,-48
-34,9,43,12,-39,26,14,-43,-48,-58,-53,-48
-34,4,39,14,-36,21,14,-43,-48,-58,-53,-43
-39,0,39,19,-39,19,14,-43,-43,-58,-53,-43
-39,-4,34,21,-36,14,14,-39,-43,-53,-43,-43
-39,-4,34,21,-36,14,19,-39,-43,-48,-43,-43
-39,-9,29,24,-34,9,24,-39,-43,-43,-43,-43
-39,-9,29,24,-34,9,24,-39,-43,-39,-43,-43
-39,-9,29,24,-34,9,24,-39,-43,-48,-58,-53
-39,-9,29,24,-34,9,24,-39,-43,-48,-58,-53
-39,-9,29,24,-34,9,24,-39,-43,-48,-53,-53
-39,-9,29,24,-34,9,19,-39,-43,-48,-53,-53
-39,-9,29,24,-34,9,19,-39,-43,-48,-48,-43
-34,-9,24,21,-29,7,24,-34,-43,-43,-48,-43
-34,-14,19,24,-26,2,24,-34,-39,-43,-53,-43
-34,-14,19,24,-26,2,24,-39,-39,-43,-53,-43
-34,0,34,17,-34,17,24,-39,-39,-43,-53,-53
-34,0,34,17,-34,17,24,-34,-39,-43,-53,-53
-34,0,34,17,-34,17,24,-34,-39,-43,-48,-48
-34,0,34,17,-34,17,19,-34,-39,-39,-48,-48
-34,9,43,12,-39,26,9,-34,-39,-39,-43,-39
-34,14,48,9,-41,31,9,-39,-34,-39,-43,-39
-39,14,53,12,-46,34,4,-39,-34,-39,-48,-39
-39,19,58,9,-48,39,4,-39,-34,-39,-48,-39
-48,14,63,17,-56,39,19,-29,-34,-39,-43,-48
-48,0,48,24,-48,24,19,-29,-34,-39,-43,-43
-48,4,53,21,-51,29,19,-29,-34,-39,-48,-43
-48,0,48,24,-48,24,14,-29,-34,-39,-48,-43
-48,0,48,24,-48,24,14,-39,-34,-34,-43,-34
-48,0,48,24,-48,24,14,-39,-34,-34,-39,-34
-43,0,43,21,-43,21,19,-39,-34,-34,-39,-34
-43,0,43,21,-43,21,19,-39,-34,-34,-39,-34
-34,9,43,12,-39,26,19,-29,-29,-34,-39,-43
-34,14,48,9,-41,31,14,-29,-29,-34,-43,-43
-29,19,48,4,-39,34,14,-29,-29,-34,-43,-43
-29,24,53,2,-41,39,19,-24,-24,-34,-39,-43
-29,9,39,9,-34,24,19,-29,-34,-24,-29,-43
-29,9,39,9,-34,24,19,-34,-29,-24,-29,-43
-34,9,43,12,-39,26,19,-39,-29,-24,-24,-39
-34,14,48,9,-41,31,14,-43,-29,-24,-24,-39
-34,14,48,9,-41,31,24,-34,-24,-24,-39,-43
-34,14,48,9,-41,31,24,-34,-24,-24,-39,-43
-34,9,43,12,-39,26,24,-34,-24,-24,-43,-43
-34,9,43,12,-39,26,24,-34,-24,-24,-43,-43
-43,0,43,21,-43,21,14,-39,-34,-34,-39,-43
-43,0,43,21,-43,21,14,-39,-34,-34,-39,-39
-43,0,43,21,-43,21,14,-39,-34,-34,-39,-39
-43,0,43,21,-43,21,19,-39,-39,-34,-39,-43
-34,9,43,12,-39,26,19,-48,-39,-24,-34,-43
-29,14,43,7,-36,29,19,-43,-39,-29,-34,-43
-29,9,39,9,-34,24,19,-43,-39,-29,-34,-43
-29,14,43,7,-36,29,19,-48,-39,-29,-34,-43
-34,14,48,9,-41,31,19,-48,-29,-24,-34,-34
-34,14,48,9,-41,31,19,-48,-29,-24,-34,-34
-34,14,48,9,-41,31,19,-48,-29,-34,-34,-39
-34,14,48,9,-41,31,14,-48,-29,-34,-29,-39
-43,0,43,21,-43,21,14,-48,-39,-43,-39,-48
-43,0,43,21,-43,21,14,-48,-43,-43,-43,-48
-43,4,48,19,-46,26,19,-48,-43,-43,-43,-48
-43,4,48,19,-46,26,19,-48,-43,-43,-48,-48
-43,-4,39,24,-41,17,19,-53,-43,-43,-48,-48
-43,-9,34,26,-39,12,19,-58,-48,-43,-48,-48
-43,-19,24,31,-34,2,19,-58,-48,-43,-48,-48
-43,-9,34,26,-39,12,19,-58,-53,-43,-48,-53
-43,-9,34,26,-39,12,29,-48,-43,-34,-43,-53
-43,-14,29,29,-36,7,29,-48,-43,-39,-43,-53
-43,-19,24,31,-34,2,29,-48,-43,-39,-39,-53
-43,-19,24,31,-34,2,34,-48,-43,-39,-39,-53
-34,-4,29,19,-31,12,24,-48,-53,-48,-43,-63
-34,-4,29,19,-31,12,19,-53,-58,-48,-48,-63
-34,-4,29,19,-31,12,19,-53,-58,-48,-53,-63
-34,-9,24,21,-29,7,19,-48,-58,-48,-58,-63
-34,-19,14,26,-24,-2,29,-48,-48,-48,-53,-58
-43,-14,29,29,-36,7,29,-53,-53,-48,-53,-58
-43,-14,29,29,-36,7,29,-53,-53,-48,-58,-58
-39,-14,24,26,-31,4,29,-53,-53,-48,-58,-58
-39,-19,19,29,-29,0,29,-43,-63,-58,-58,-58
-43,-19,24,31,-34,2,29,-48,-63,-53,-58,-58
-43,-19,24,31,-34,2,29,-48,-63,-53,-53,-58
-39,-19,19,29,-29,0,34,-43,-63,-53,-53,-58
-48,-9,39,29,-43,14,24,-53,-53,-43,-53,-58
-48,-14,34,31,-41,9,24,-53,-58,-48,-58,-63
-48,-14,34,31,-41,9,24,-53,-58,-53,-58,-63
-48,-9,39,29,-43,14,24,-53,-58,-53,-58,-63
-48,-9,39,29,-43,14,24,-58,-73,-53,-58,-63
-53,-9,43,31,-48,17,19,-58,-73,-58,-58,-63
-53,-9,43,31,-48,17,19,-58,-68,-58,-58,-63
-53,-9,43,31,-48,17,19,-58,-68,-58,-58,-63
-43,0,43,21,-43,21,24,-58,-58,-58,-48,-53
-43,-4,39,24,-41,17,24,-58,-58,-53,-48,-53
-43,-4,39,24,-41,17,24,-58,-63,-53,-53,-53
-43,-4,39,24,-41,17,19,-63,-68,-58,-58,-53
-53,-9,43,31,-48,17,29,-53,-68,-58,-68,-53
-53,-19,34,36,-43,7,34,-53,-68,-53,-68,-53
-53,-24,29,39,-41,2,34,-53,-68,-53,-63,-53
-53,-24,29,39,-41,2,29,-53,-68,-58,-63,-53
-53,-19,34,36,-43,7,19,-58,-73,-58,-63,-43
-53,-14,39,34,-46,12,24,-58,-73,-58,-63,-43
-53,-14,39,34,-46,12,24,-63,-73,-63,-63,-43
-53,-9,43,31,-48,17,24,-73,-73,-63,-68,-43
-53,-19,34,36,-43,7,24,-68,-73,-63,-68,-53
-53,-24,29,39,-41,2,24,-68,-78,-63,-68,-53
-53,-24,29,39,-41,2,24,-68,-82,-63,-68,-53
-58,-19,39,39,-48,9,24,-68,-82,-58,-68,-53
-48,-19,29,34,-39,4,29,-68,-73,-58,-63,-43
-43,-19,24,31,-34,2,29,-68,-73,-63,-63,-43
-43,-24,19,34,-31,-2,29,-68,-73,-63,-63,-43
-48,-24,24,36,-36,0,29,-68,-73,-63,-63,-43
-58,-19,39,39,-48,9,29,-68,-82,-53,-63,-48
-58,-19,39,39,-48,9,29,-63,-82,-53,-63,-48
-58,-24,34,41,-46,4,29,-63,-82,-53,-63,-43
-58,-24,34,41,-46,4,29,-63,-82,-53,-63,-43
-58,-24,34,41,-46,4,19,-73,-73,-53,-63,-34
-58,-24,34,41,-46,4,19,-73,-78,-53,-63,-34
-58,-19,39,39,-48,9,24,-73,-78,-53,-63,-39
-58,-19,39,39,-48,9,24,-78,-78,-53,-68,-39
-48,-9,39,29,-43,14,24,-68,-82,-63,-68,-48
-43,-14,29,29,-36,7,24,-68,-82,-63,-68,-48
-43,-14,29,29,-36,7,24,-68,-82,-63,-68,-48
-43,-9,34,26,-39,12,24,-68,-82,-63,-68,-48
-53,-24,29,39,-41,2,24,-68,-73,-68,-78,-43
-58,-29,29,43,-43,0,24,-68,-73,-68,-78,-43
-58,-43,14,51,-36,-14,29,-68,-73,-68,-78,-43
-58,-48,9,53,-34,-19,29,-68,-73,-68,-78,-43
-48,-39,9,43,-29,-14,34,-63,-82,-68,-68,-39
-48,-34,14,41,-31,-9,34,-63,-82,-68,-73,-39
-48,-34,14,41,-31,-9,39,-63,-82,-68,-73,-39
-48,-34,14,41,-31,-9,39,-63,-82,-68,-68,-34
-58,-43,14,51,-36,-14,29,-73,-87,-68,-68,-34
-58,-43,14,51,-36,-14,29,-73,-87,-63,-68,-34
-58,-43,14,51,-36,-14,29,-73,-87,-63,-63,-34
-58,-43,14,51,-36,-14,29,-68,-82,-63,-63,-34
-58,-34,24,46,-41,-4,29,-78,-82,-73,-78,-43
-53,-34,19,43,-36,-7,24,-73,-82,-73,-78,-43
-53,-29,24,41,-39,-2,24,-73,-82,-73,-78,-43
-53,-29,24,41,-39,-2,24,-73,-82,-78,-78,-43
-63,-34,29,48,-46,-2,24,-63,-78,-73,-73,-34
-63,-39,24,51,-43,-7,29,-63,-78,-68,-68,-29
-63,-39,24,51,-43,-7,29,-68,-78,-63,-63,-29
-63,-43,19,53,-41,-12,29,-68,-73,-58,-58,-29
-63,-34,29,48,-46,-2,29,-68,-82,-58,-58,-39
-63,-34,29,48,-46,-2,29,-68,-82,-58,-63,-39
-63,-34,29,48,-46,-2,29,-68,-82,-58,-68,-39
-63,-29,34,46,-48,2,29,-73,-82,-63,-68,-39
-53,-29,24,41,-39,-2,29,-73,-87,-63,-73,-39
-53,-29,24,41,-39,-2,24,-73,-87,-58,-68,-34
-53,-24,29,39,-41,2,24,-73,-87,-53,-68,-34
-53,-19,34,36,-43,7,24,-73,-92,-53,-68,-34
-53,-29,24,41,-39,-2,34,-68,-92,-53,-68,-34
-53,-34,19,43,-36,-7,34,-68,-87,-53,-68,-34
-53,-39,14,46,-34,-12,39,-68,-82,-58,-68,-34
-53,-39,14,46,-34,-12,39,-63,-78,-63,-63,-34
-48,-34,14,41,-31,-9,34,-63,-78,-63,-78,-43
-48,-24,24,36,-36,0,29,-73,-82,-68,-73,-39
-58,-34,24,46,-41,-4,34,-82,-87,-63,-68,-34
-58,-34,24,46,-41,-4,34,-73,-78,-63,-68,-34
-48,-19,29,34,-39,4,39,-68,-78,-58,-68,-48
-58,-29,29,43,-43,0,29,-68,-87,-68,-68,-39
-58,-29,29,43,-43,0,29,-68,-87,-68,-68,-39
-58,-29,29,43,-43,0,29,-68,-87,-68,-68,-39
-58,-29,29,43,-43,0,29,-68,-87,-68,-68,-39
-43,-39,4,41,-24,-17,34,-68,-78,-58,-58,-29
-43,-29,14,36,-29,-7,34,-68,-78,-58,-58,-29
-43,-29,14,36,-29,-7,34,-68,-78,-53,-58,-29
-43,-24,19,34,-31,-2,29,-68,-68,-53,-53,-24
-48,-4,43,26,-46,19,29,-58,-63,-58,-63,-29
-48,9,58,19,-53,34,34,-58,-58,-48,-53,-24
-48,9,58,19,-53,34,39,-58,-58,-43,-53,-24
-48,14,63,17,-56,39,48,-58,-58,-43,-48,-24
-43,4,48,19,-46,26,39,-53,-48,-43,-48,-19
-43,4,48,19,-46,26,39,-53,-48,-43,-48,-19
-43,4,48,19,-46,26,43,-48,-48,-43,-48,-19
-43,9,53,17,-48,31,43,-48,-48,-39,-48,-19
-34,19,53,7,-43,36,53,-39,-39,-39,-48,-24
-29,19,48,4,-39,34,53,-39,-34,-39,-39,-24
-29,19,48,4,-39,34,58,-39,-29,-34,-39,-24
-29,24,53,2,-41,39,58,-34,-29,-34,-39,-24
-29,14,43,7,-36,29,58,-43,-29,-34,-48,-24
-29,14,43,7,-36,29,53,-43,-34,-34,-48,-24
-29,19,48,4,-39,34,48,-43,-39,-34,-48,-24
-29,19,48,4,-39,34,39,-43,-43,-34,-48,-24
-29,9,39,9,-34,24,39,-43,-34,-29,-39,-19
-34,9,43,12,-39,26,34,-43,-34,-29,-39,-19
-39,9,48,14,-43,29,29,-53,-34,-29,-39,-19
-39,9,48,14,-43,29,34,-53,-34,-29,-39,-19
-29,19,48,4,-39,34,19,-58,-34,-19,-29,-14
-34,19,53,7,-43,36,4,-63,-34,-19,-29,-4
-34,19,53,7,-43,36,0,-63,-34,-14,-24,0
-24,34,58,-4,-41,46,0,-63,-34,-14,-19,9
-9,48,58,-19,-34,53,-19,-63,-43,-24,-29,4
4,58,53,-31,-24,56,-24,-63,-43,-19,-24,4
9,63,53,-36,-21,58,-24,-63,-43,-19,-24,9
14,58,43,-36,-14,51,-29,-63,-53,-19,-24,9
4,43,39,-24,-17,41,-29,-68,-58,-24,-29,4
4,34,29,-19,-12,31,-29,-68,-63,-29,-34,4
4,24,19,-14,-7,21,-29,-68,-68,-34,-34,-4
-4,14,19,-4,-12,17,-29,-68,-68,-39,-39,-9
-9,0,9,4,-9,4,-14,-68,-63,-43,-43,-9
-19,-4,14,12,-17,4,-4,-68,-68,-43,-43,-9
-19,-9,9,14,-14,0,4,-73,-73,-48,-48,-14
-19,-9,9,14,-14,0,9,-73,-73,-53,-48,-14
-19,-4,14,12,-17,4,4,-73,-82,-53,-48,-24
-19,-9,9,14,-14,0,0,-73,-87,-53,-48,-24
-19,-19,0,19,-9,-9,-4,-73,-92,-58,-58,-29
-19,-24,-4,21,-7,-14,-9,-78,-97,-63,-63,-29
-14,-34,-19,24,2,-26,-4,-78,-87,-63,-53,-19
-14,-34,-19,24,2,-26,-4,-78,-82,-63,-48,-19
-14,-34,-19,24,2,-26,-4,-78,-82,-63,-48,-19
-14,-34,-19,24,2,-26,-4,-78,-82,-63,-48,-19
-9,-34,-24,21,7,-29,-9,-78,-92,-58,-58,-29
-9,-29,-19,19,4,-24,-9,-78,-92,-58,-58,-29
-14,-29,-14,21,0,-21,-9,-82,-102,-68,-63,-29
-14,-43,-29,29,7,-36,-9,-82,-107,-68,-63,-29
-19,-34,-14,26,-2,-24,-9,-73,-102,-63,-68,-29
-24,-39,-14,31,-4,-26,-4,-78,-102,-68,-68,-29
-29,-53,-24,41,-2,-39,0,-78,-107,-68,-73,-29
-34,-53,-19,43,-7,-36,0,-78,-112,-73,-78,-39
-34,-63,-29,48,-2,-46,0,-87,-122,-87,-78,-48
-39,-63,-24,51,-7,-43,4,-87,-122,-87,-82,-48
-43,-63,-19,53,-12,-41,14,-87,-122,-87,-82,-48
-48,-68,-19,58,-14,-43,14,-82,-122,-87,-82,-53
-53,-63,-9,58,-21,-36,19,-82,-112,-78,-82,-43
-58,-68,-9,63,-24,-39,19,-82,-112,-82,-82,-43
-63,-68,-4,65,-29,-36,19,-92,-112,-82,-87,-43
-68,-68,0,68,-34,-34,19,-97,-112,-82,-87,-48
-82,-68,14,75,-48,-26,19,-97,-122,-92,-87,-58
-87,-68,19,78,-53,-24,24,-97,-122,-92,-87,-63
-87,-68,19,78,-53,-24,24,-97,-122,-92,-97,-63
-82,-68,14,75,-48,-26,24,-97,-126,-102,-97,-68
-73,-63,9,68,-41,-26,24,-97,-126,-92,-82,-63
-73,-63,9,68,-41,-26,24,-97,-122,-87,-82,-53
-73,-73,0,73,-36,-36,24,-92,-122,-82,-82,-48
-73,-73,0,73,-36,-36,24,-92,-122,-82,-82,-43
-73,-68,4,70,-39,-31,14,-92,-122,-92,-87,-43
-73,-58,14,65,-43,-21,14,-92,-122,-92,-87,-48
-73,-53,19,63,-46,-17,14,-92,-122,-92,-87,-53
-73,-48,24,61,-48,-12,19,-92,-117,-92,-87,-58
-73,-63,9,68,-41,-26,29,-92,-117,-78,-78,-48
-78,-68,9,73,-43,-29,29,-92,-117,-78,-78,-48
-78,-78,0,78,-39,-39,29,-92,-117,-78,-78,-48
-78,-82,-4,80,-36,-43,34,-92,-117,-78,-78,-48
-78,-82,-4,80,-36,-43,34,-82,-107,-78,-82,-48
-78,-78,0,78,-39,-39,34,-78,-102,-73,-78,-48
-78,-78,0,78,-39,-39,34,-73,-102,-73,-78,-48
-78,-78,0,78,-39,-39,34,-73,-102,-73,-78,-48
-78,-53,24,65,-51,-14,34,-87,-102,-82,-82,-58
-87,-53,34,70,-61,-9,34,-78,-102,-73,-73,-48
-87,-63,24,75,-56,-19,39,-63,-97,-63,-73,-48
-92,-53,39,73,-65,-7,48,-58,-87,-63,-73,-48
-92,-39,53,65,-73,7,53,-58,-68,-63,-73,-48
-107,-24,82,65,-95,29,63,-53,-53,-53,-63,-53
-117,-24,92,70,-104,34,73,-39,-34,-34,-58,-48
-117,-34,82,75,-100,24,92,0,-9,-19,-48,-43
-117,-34,82,75,-100,24,117,43,34,9,-29,-29
-107,-24,82,65,-95,29,122,78,87,48,-9,-19
-92,-19,73,56,-82,26,131,97,107,73,0,-9
-53,-24,29,39,-41,2,131,141,136,102,24,4
-19,-34,-14,26,-2,-24,141,190,195,156,63,39
14,-9,-24,-2,19,-17,156,268,292,229,126,87
78,29,-48,-53,63,-9,165,390,409,312,195,131
156,34,-122,-95,139,-43,190,551,517,370,229,161
229,24,-204,-126,217,-90,209,688,624,434,273,190
292,58,-234,-175,263,-87,209,795,751,522,346,239
390,122,-268,-256,329,-73,131,829,868,639,453,331
502,195,-307,-348,405,-56,29,814,936,722,551,424
585,244,-341,-414,463,-48,-39,761,917,766,610,483
649,292,-356,-470,502,-31,-87,673,854,761,639,522
712,346,-366,-529,539,-9,-200,561,761,732,663,585
771,380,-390,-575,580,-4,-322,453,614,649,634,590
790,336,-453,-563,622,-58,-370,370,424,478,507,502
780,244,-536,-512,658,-146,-390,253,200,253,336,390
736,185,-551,-461,644,-183,-424,73,-34,73,209,307
624,131,-492,-378,558,-180,-453,-146,-234,-73,97,234
453,82,-370,-268,412,-143,-434,-341,-390,-190,9,156
278,63,-214,-170,246,-75,-400,-502,-512,-268,-63,97
117,43,-73,-80,95,-14,-351,-624,-619,-331,-122,48
-14,-14,0,14,-7,-7,-302,-722,-717,-405,-204,-24
-122,-112,9,117,-65,-51,-278,-795,-819,-497,-292,-107
-165,-185,-19,175,-73,-102,-244,-785,-883,-556,-361,-175
-165,-234,-68,200,-48,-151,-204,-658,-854,-546,-366,-209
-156,-263,-107,209,-24,-185,-161,-522,-785,-517,-356,-214
-156,-268,-112,212,-21,-190,-112,-434,-727,-502,-356,-224
-156,-248,-92,202,-31,-170,-78,-356,-697,-492,-356,-244
-136,-229,-92,183,-21,-161,-43,-273,-653,-483,-366,-244
-112,-224,-112,168,0,-168,-14,-195,-595,-444,-346,-239
-92,-244,-151,168,29,-197,43,-87,-502,-375,-297,-214
-87,-229,-141,158,26,-185,92,9,-405,-302,-253,-180
-73,-195,-122,134,24,-158,131,87,-326,-258,-219,-170
-53,-175,-122,114,34,-148,146,136,-273,-229,-200,-151
-43,-156,-112,100,34,-134,146,156,-234,-204,-180,-131
-24,-136,-112,80,43,-124,141,165,-219,-190,-170,-122
-14,-107,-92,61,39,-100,131,165,-195,-161,-156,-112
-4,-97,-92,51,43,-95,126,165,-161,-136,-141,-97
-9,-82,-73,46,31,-78,97,151,-141,-126,-117,-92
-9,-78,-68,43,29,-73,82,126,-126,-107,-102,-82
-14,-87,-73,51,29,-80,73,102,-97,-78,-87,-53
-19,-78,-58,48,19,-68,58,73,-78,-63,-73,-34
-24,-43,-19,34,-2,-31,43,34,-78,-58,-63,-43
-24,-39,-14,31,-4,-26,34,9,-63,-53,-63,-29
-34,-34,0,34,-17,-17,39,4,-58,-53,-63,-34
-39,-39,0,39,-19,-19,39,0,-58,-48,-63,-34
-43,-43,0,43,-21,-21,39,0,-53,-43,-63,-34
-48,-48,0,48,-24,-24,39,0,-48,-39,-53,-29
-48,-39,9,43,-29,-14,39,-9,-43,-39,-53,-29
-48,-34,14,41,-31,-9,39,-9,-43,-34,-53,-29
-48,-34,14,41,-31,-9,39,-9,-39,-29,-53,-24
-48,-29,19,39,-34,-4,39,-9,-39,-29,-48,-24
-53,-39,14,46,-34,-12,48,0,-29,-29,-48,-24
-53,-34,19,43,-36,-7,43,0,-24,-29,-48,-19
-53,-34,19,43,-36,-7,43,0,-24,-24,-48,-19
-48,-34,14,41,-31,-9,43,-4,-24,-24,-43,-19
-48,-24,24,36,-36,0,29,-14,-24,-14,-34,-19
-43,-24,19,34,-31,-2,29,-14,-14,-14,-34,-19
-43,-24,19,34,-31,-2,29,-9,-9,-9,-29,-14
-43,-19,24,31,-34,2,29,-9,-9,-4,-29,-14
-43,-29,14,36,-29,-7,29,0,-19,-9,-29,0
-43,-29,14,36,-29,-7,29,0,-14,-9,-24,0
-39,-24,14,31,-26,-4,29,0,-14,-9,-24,0
-39,-24,14,31,-26,-4,29,0,-14,-9,-24,0
-39,-14,24,26,-31,4,19,-4,-14,0,-24,0
-29,-14,14,21,-21,0,19,-4,-14,4,-19,0
-29,-14,14,21,-21,0,19,0,-9,4,-19,0
-29,-9,19,19,-24,4,14,0,-9,4,-19,4
-19,0,19,9,-19,9,14,0,0,4,-19,-4
-19,4,24,7,-21,14,14,0,4,4,-14,-4
-19,4,24,7,-21,14,14,4,4,9,-14,0
-19,4,24,7,-21,14,14,9,9,14,-14,0
-29,0,29,14,-29,14,9,0,0,4,-9,9
-29,0,29,14,-29,14,9,9,4,9,-9,9
-29,0,29,14,-29,14,9,9,4,9,-9,9
-24,0,24,12,-24,12,4,4,4,4,-9,14
-24,0,24,12,-24,12,14,14,14,14,-19,4
-19,0,19,9,-19,9,14,14,19,19,-14,4
-19,0,19,9,-19,9,14,24,29,29,-9,9
-19,4,24,7,-21,14,14,29,29,34,-4,14
-19,-4,14,12,-17,4,4,29,24,34,4,24
-14,-4,9,9,-12,2,4,34,29,34,4,24
-14,-4,9,9,-12,2,4,34,29,34,4,24
-9,-4,4,7,-7,0,0,34,39,43,9,24
4,14,9,-9,-2,12,-9,34,39,34,9,19
4,29,24,-17,-9,26,-9,39,39,34,14,19
4,39,34,-21,-14,36,-19,43,43,34,14,24
9,48,39,-29,-14,43,-9,53,43,34,19,24
14,43,29,-29,-7,36,-9,53,53,43,24,34
19,43,24,-31,-2,34,-9,58,58,48,24,39
19,39,19,-29,0,29,-19,63,63,48,24,39
19,39,19,-29,0,29,-19,63,63,58,29,43
19,43,24,-31,-2,34,-14,73,68,68,29,43
24,43,19,-34,2,31,-14,73,73,68,34,48
29,43,14,-36,7,29,-9,73,78,68,34,48
34,48,14,-41,9,31,-9,82,82,73,43,58
34,39,4,-36,14,21,-24,82,78,87,39,63
34,39,4,-36,14,21,-24,87,82,92,43,63
39,43,4,-41,17,24,-24,92,92,92,48,63
43,53,9,-48,17,31,-29,97,97,92,48,68
39,63,24,-51,7,43,-19,102,102,102,53,73
48,68,19,-58,14,43,-19,112,107,107,63,78
53,73,19,-63,17,46,-29,117,117,112,68,82
53,87,34,-70,9,61,-29,122,122,117,68,87
58,97,39,-78,9,68,-34,141,136,112,87,87
63,97,34,-80,14,65,-39,146,146,117,92,92
68,92,24,-80,21,58,-39,151,156,126,97,97
73,87,14,-80,29,51,-39,170,161,136,102,102
87,97,9,-92,39,53,-43,175,175,151,107,107
92,112,19,-102,36,65,-53,185,180,156,112,112
102,122,19,-112,41,70,-53,185,190,161,117,117
102,122,19,-112,41,70,-53,195,200,175,126,122
112,122,9,-117,51,65,-58,204,209,180,141,126
117,136,19,-126,48,78,-58,214,219,185,146,131
122,136,14,-129,53,75,-58,229,229,200,151,136
126,141,14,-134,56,78,-58,239,239,209,161,141
131,146,14,-139,58,80,-68,239,248,214,165,151
141,161,19,-151,61,90,-68,248,258,224,170,156
146,170,24,-158,61,97,-78,253,268,239,180,170
151,185,34,-168,58,109,-82,263,278,239,185,175
161,185,24,-173,68,104,-78,283,278,253,190,180
165,200,34,-183,65,117,-82,287,287,253,195,185
170,204,34,-187,68,119,-82,297,297,268,209,190
180,204,24,-192,78,114,-87,307,307,278,219,195
180,214,34,-197,73,124,-102,317,326,287,224,204
185,224,39,-204,73,131,-107,317,326,287,229,209
190,239,48,-214,70,143,-112,322,331,292,234,214
195,239,43,-217,75,141,-112,326,336,302,239,219
200,239,39,-219,80,139,-122,326,346,302,234,214
204,239,34,-222,85,136,-122,331,361,312,244,219
209,248,39,-229,85,143,-131,336,361,312,248,219
214,258,43,-236,85,151,-131,336,361,312,253,229
229,263,34,-246,97,148,-141,336,356,326,263,239
229,263,34,-246,97,148,-141,341,361,331,268,239
229,268,39,-248,95,153,-146,341,361,331,268,244
229,268,39,-248,95,153,-151,341,361,331,268,244
224,268,43,-246,90,156,-146,341,361,336,268,239
224,268,43,-246,90,156,-141,341,361,336,273,239
224,263,39,-244,92,151,-136,341,361,336,273,239
224,253,29,-239,97,141,-136,341,361,336,273,239
224,253,29,-239,97,141,-126,341,361,326,263,253
224,253,29,-239,97,141,-131,326,356,326,263,253
224,258,34,-241,95,146,-131,322,351,322,263,253
224,258,34,-241,95,146,-126,307,346,317,258,253
214,263,48,-239,82,156,-131,302,341,307,258,244
214,268,53,-241,80,161,-136,297,336,302,253,234
204,268,63,-236,70,165,-141,287,331,297,253,229
200,268,68,-234,65,168,-141,278,326,292,248,229
195,248,53,-222,70,151,-131,268,312,292,244,224
180,244,63,-212,58,153,-131,258,307,283,234,214
180,239,58,-209,61,148,-131,239,292,278,229,204
165,239,73,-202,46,156,-131,234,283,278,214,204
165,214,48,-190,58,131,-117,224,283,268,209,200
161,195,34,-178,63,114,-107,219,273,258,204,195
151,185,34,-168,58,109,-102,204,258,248,195,180
141,180,39,-161,51,109,-97,190,244,229,185,170
122,180,58,-151,31,119,-92,175,229,219,175,170
112,170,58,-141,26,114,-87,161,214,204,161,161
102,161,58,-131,21,109,-82,151,200,195,156,151
92,151,58,-122,17,104,-78,136,185,180,141,141
78,122,43,-100,17,82,-63,126,170,161,131,126
68,122,53,-95,7,87,-58,112,156,146,107,112
63,112,48,-87,7,80,-53,102,136,141,97,97
53,102,48,-78,2,75,-48,92,131,122,82,82
43,102,58,-73,-7,80,-39,73,117,107,73,73
43,87,43,-65,0,65,-34,58,112,102,63,63
34,73,39,-53,-2,56,-29,48,97,92,53,63
24,58,34,-41,-4,46,-24,39,87,82,39,48
14,58,43,-36,-14,51,-34,39,73,63,34,39
9,53,43,-31,-17,48,-29,29,68,53,24,39
0,43,43,-21,-21,43,-19,24,58,48,19,34
0,43,43,-21,-21,43,-19,14,43,39,9,24
-14,39,53,-12,-34,46,-9,9,39,39,4,24
-24,24,48,0,-36,36,-4,0,29,34,0,19
-24,24,48,0,-36,36,-4,-4,19,24,-9,14
-29,14,43,7,-36,29,-4,-9,14,24,-14,9
-24,0,24,12,-24,12,9,-14,14,14,-19,0
-29,-4,24,17,-26,9,14,-19,4,14,-19,-4
-34,-9,24,21,-29,7,14,-24,0,4,-24,-9
-39,-19,19,29,-29,0,24,-24,-4,0,-34,-14
-43,-19,24,31,-34,2,19,-24,0,-4,-24,-9
-43,-14,29,29,-36,7,14,-34,-4,-9,-29,-14
-43,-14,29,29,-36,7,9,-34,-9,-14,-34,-19
-53,-9,43,31,-48,17,4,-39,-9,-19,-34,-19
-53,-24,29,39,-41,2,14,-39,-24,-19,-43,-29
-53,-24,29,39,-41,2,14,-43,-29,-19,-48,-29
-58,-24,34,41,-46,4,19,-43,-29,-24,-48,-29
-58,-34,24,46,-41,-4,24,-39,-34,-24,-48,-34
-63,-34,29,48,-46,-2,24,-43,-34,-34,-53,-34
-63,-34,29,48,-46,-2,24,-43,-39,-39,-58,-34
-68,-39,29,53,-48,-4,24,-53,-39,-39,-58,-39
-68,-39,29,53,-48,-4,24,-53,-39,-39,-58,-39
-58,-24,34,41,-46,4,14,-58,-43,-29,-58,-39
-58,-19,39,39,-48,9,14,-58,-43,-29,-58,-39
-58,-19,39,39,-48,9,19,-58,-43,-34,-58,-39
-63,-19,43,41,-53,12,19,-58,-43,-39,-58,-39
-73,-24,48,48,-61,12,29,-58,-43,-39,-58,-39
-73,-29,43,51,-58,7,24,-58,-43,-34,-58,-39
-73,-34,39,53,-56,2,24,-58,-43,-34,-58,-43
-73,-39,34,56,-53,-2,24,-58,-43,-39,-63,-43
-63,-29,34,46,-48,2,24,-58,-43,-39,-53,-34
-63,-29,34,46,-48,2,24,-58,-43,-39,-53,-34
-63,-34,29,48,-46,-2,24,-63,-48,-39,-48,-34
-63,-34,29,48,-46,-2,29,-63,-48,-39,-48,-34
-73,-43,29,58,-51,-7,29,-53,-48,-34,-58,-43
-73,-43,29,58,-51,-7,29,-53,-48,-34,-58,-43
-73,-43,29,58,-51,-7,29,-53,-48,-39,-58,-43
-73,-43,29,58,-51,-7,29,-53,-48,-39,-63,-43
-73,-48,24,61,-48,-12,39,-63,-39,-29,-53,-39
-73,-48,24,61,-48,-12,34,-63,-39,-29,-53,-39
-73,-48,24,61,-48,-12,34,-63,-39,-29,-53,-34
-78,-48,29,63,-53,-9,34,-63,-34,-29,-53,-34
-68,-39,29,53,-48,-4,24,-58,-34,-39,-63,-43
-68,-34,34,51,-51,0,29,-58,-34,-39,-63,-43
-68,-34,34,51,-51,0,34,-58,-34,-39,-63,-43
-68,-29,39,48,-53,4,34,-58,-34,-39,-63,-43
-68,-29,39,48,-53,4,24,-58,-34,-39,-63,-34
-68,-29,39,48,-53,4,24,-58,-34,-39,-58,-34
-68,-29,39,48,-53,4,24,-58,-34,-39,-48,-34
-68,-29,39,48,-53,4,19,-58,-34,-39,-43,-34
-68,-39,29,53,-48,-4,19,-58,-34,-39,-48,-34
-63,-39,24,51,-43,-7,24,-53,-34,-34,-48,-34
-63,-43,19,53,-41,-12,24,-53,-29,-34,-53,-34
-63,-43,19,53,-41,-12,24,-58,-29,-34,-53,-34
-63,-39,24,51,-43,-7,24,-58,-29,-24,-43,-24
-63,-39,24,51,-43,-7,24,-53,-29,-24,-43,-24
-63,-39,24,51,-43,-7,24,-53,-29,-24,-39,-19
-63,-39,24,51,-43,-7,19,-53,-29,-19,-39,-19
-63,-39,24,51,-43,-7,29,-43,-39,-29,-43,-29
-63,-34,29,48,-46,-2,29,-48,-34,-29,-43,-29
-68,-34,34,51,-51,0,24,-48,-34,-29,-48,-29
-68,-29,39,48,-53,4,24,-48,-34,-29,-48,-29
-58,-19,39,39,-48,9,24,-58,-24,-19,-43,-29
-58,-29,29,43,-43,0,19,-58,-24,-19,-43,-24
-58,-19,39,39,-48,9,14,-58,-24,-19,-48,-24
-58,-19,39,39,-48,9,4,-58,-24,-19,-48,-24
-58,-9,48,34,-53,19,4,-58,-34,-24,-53,-24
-58,-9,48,34,-53,19,4,-58,-34,-24,-48,-24
-53,-9,43,31,-48,17,9,-58,-34,-24,-48,-24
-53,-9,43,31,-48,17,9,-58,-34,-24,-48,-24
-63,-4,58,34,-61,26,9,-68,-39,-24,-39,-24
-63,-4,58,34,-61,26,4,-68,-39,-24,-43,-24
-58,-4,53,31,-56,24,4,-68,-39,-24,-43,-24
-58,-4,53,31,-56,24,9,-63,-34,-24,-39,-24
-58,-14,43,36,-51,14,9,-63,-34,-14,-48,-24
-58,-19,39,39,-48,9,9,-63,-29,-14,-48,-24
-63,-24,39,43,-51,7,9,-63,-29,-14,-43,-19
-63,-24,39,43,-51,7,4,-63,-29,-14,-43,-19
-63,-24,39,43,-51,7,4,-63,-24,-14,-39,-24
-63,-24,39,43,-51,7,4,-63,-24,-14,-39,-24
-63,-29,34,46,-48,2,4,-63,-24,-14,-43,-24
-63,-29,34,46,-48,2,4,-63,-24,-14,-43,-24
-53,-19,34,36,-43,7,4,-58,-34,-24,-48,-34
-53,-19,34,36,-43,7,4,-58,-34,-24,-48,-29
-53,-19,34,36,-43,7,4,-58,-34,-24,-48,-29
-53,-19,34,36,-43,7,9,-58,-39,-24,-48,-34
-53,-24,29,39,-41,2,0,-68,-39,-24,-43,-24
-48,-24,24,36,-36,0,0,-63,-39,-29,-43,-24
-48,-34,14,41,-31,-9,0,-63,-39,-29,-43,-24
-48,-34,14,41,-31,-9,0,-68,-39,-29,-43,-24
-63,-24,39,43,-51,7,0,-68,-39,-24,-53,-24
-63,-24,39,43,-51,7,0,-68,-39,-24,-53,-24
-63,-24,39,43,-51,7,0,-68,-39,-34,-53,-29
-63,-24,39,43,-51,7,-4,-68,-39,-34,-48,-29
-53,-34,19,43,-36,-7,0,-68,-39,-24,-39,-29
-53,-39,14,46,-34,-12,4,-68,-43,-24,-43,-29
-53,-39,14,46,-34,-12,14,-68,-43,-24,-43,-29
-53,-43,9,48,-31,-17,19,-68,-43,-24,-48,-29
-63,-43,19,53,-41,-12,19,-63,-43,-24,-48,-29
-63,-48,14,56,-39,-17,19,-68,-48,-24,-48,-29
-63,-58,4,61,-34,-26,19,-68,-48,-24,-48,-29
-63,-48,14,56,-39,-17,19,-68,-53,-24,-48,-34
-53,-43,9,48,-31,-17,14,-78,-53,-34,-63,-43
-53,-43,9,48,-31,-17,9,-78,-53,-39,-63,-43
-53,-43,9,48,-31,-17,4,-78,-53,-39,-58,-43
-53,-39,14,46,-34,-12,4,-78,-53,-39,-58,-43
-53,-34,19,43,-36,-7,14,-68,-53,-48,-58,-43
-53,-34,19,43,-36,-7,9,-73,-58,-48,-58,-43
-53,-34,19,43,-36,-7,9,-73,-58,-48,-58,-43
-53,-39,14,46,-34,-12,9,-68,-58,-48,-58,-43
-63,-48,14,56,-39,-17,0,-78,-58,-48,-63,-48
-73,-43,29,58,-51,-7,0,-82,-63,-48,-63,-48
-73,-43,29,58,-51,-7,0,-82,-63,-48,-68,-48
-68,-43,24,56,-46,-9,0,-82,-63,-48,-68,-48
-58,-48,9,53,-34,-19,9,-82,-63,-58,-78,-48
-63,-48,14,56,-39,-17,9,-87,-63,-53,-78,-48
-63,-48,14,56,-39,-17,9,-87,-63,-53,-73,-48
-58,-48,9,53,-34,-19,14,-82,-63,-53,-73,-48
-68,-48,19,58,-43,-14,14,-92,-63,-53,-63,-48
-68,-53,14,61,-41,-19,14,-92,-68,-58,-68,-53
-68,-53,14,61,-41,-19,14,-92,-68,-63,-68,-53
-68,-48,19,58,-43,-14,14,-92,-68,-63,-68,-53
-68,-58,9,63,-39,-24,24,-87,-73,-53,-68,-43
-73,-58,14,65,-43,-21,19,-87,-73,-58,-68,-43
-73,-58,14,65,-43,-21,19,-87,-68,-58,-68,-43
-73,-58,14,65,-43,-21,19,-87,-68,-58,-68,-43
-63,-48,14,56,-39,-17,14,-87,-68,-68,-68,-48
-63,-53,9,58,-36,-21,14,-87,-68,-63,-68,-53
-63,-53,9,58,-36,-21,14,-87,-73,-63,-73,-58
-63,-53,9,58,-36,-21,9,-92,-78,-68,-78,-63
-63,-43,19,53,-41,-12,9,-92,-78,-58,-78,-53
-63,-48,14,56,-39,-17,14,-92,-78,-53,-78,-53
-63,-48,14,56,-39,-17,14,-92,-78,-53,-73,-53
-63,-43,19,53,-41,-12,9,-92,-78,-58,-73,-53
-73,-53,19,63,-46,-17,9,-82,-73,-58,-63,-53
-73,-53,19,63,-46,-17,14,-78,-73,-58,-63,-53
-73,-58,14,65,-43,-21,14,-78,-73,-63,-63,-53
-73,-58,14,65,-43,-21,14,-82,-73,-63,-68,-53
-73,-58,14,65,-43,-21,14,-97,-73,-63,-78,-53
-73,-63,9,68,-41,-26,14,-97,-78,-63,-78,-53
-73,-63,9,68,-41,-26,14,-97,-82,-63,-78,-53
-78,-58,19,68,-48,-19,14,-97,-82,-58,-78,-53
-78,-58,19,68,-48,-19,19,-97,-82,-68,-73,-63
-73,-58,14,65,-43,-21,19,-97,-82,-73,-73,-63
-73,-63,9,68,-41,-26,19,-97,-82,-73,-73,-63
-78,-63,14,70,-46,-24,19,-97,-82,-73,-73,-63
-78,-58,19,68,-48,-19,9,-107,-82,-63,-73,-58
-78,-58,19,68,-48,-19,9,-102,-82,-63,-73,-58
-78,-63,14,70,-46,-24,9,-102,-82,-63,-73,-53
-78,-63,14,70,-46,-24,9,-102,-82,-63,-73,-53
-78,-63,14,70,-46,-24,9,-92,-82,-73,-82,-63
-78,-63,14,70,-46,-24,9,-92,-87,-73,-82,-63
-78,-58,19,68,-48,-19,14,-92,-87,-73,-82,-68
-78,-58,19,68,-48,-19,14,-97,-87,-73,-87,-68
-78,-58,19,68,-48,-19,4,-87,-82,-63,-78,-58
-73,-63,9,68,-41,-26,4,-87,-82,-63,-78,-58
-73,-63,9,68,-41,-26,4,-87,-82,-63,-78,-58
-73,-58,14,65,-43,-21,4,-87,-82,-63,-78,-58
-73,-68,4,70,-39,-31,4,-97,-82,-68,-78,-63
-78,-68,9,73,-43,-29,4,-97,-82,-68,-78,-63
-78,-78,0,78,-39,-39,9,-97,-82,-68,-78,-63
-78,-78,0,78,-39,-39,9,-97,-82,-68,-78,-63
-78,-68,9,73,-43,-29,4,-102,-82,-68,-78,-58
-78,-63,14,70,-46,-24,4,-102,-82,-68,-82,-58
-78,-63,14,70,-46,-24,9,-102,-82,-68,-82,-58
-78,-63,14,70,-46,-24,9,-102,-82,-68,-78,-53
-78,-53,24,65,-51,-14,9,-102,-87,-78,-87,-58
-78,-53,24,65,-51,-14,9,-102,-87,-73,-87,-63
-78,-53,24,65,-51,-14,9,-102,-87,-73,-82,-68
-78,-53,24,65,-51,-14,9,-97,-82,-73,-82,-73
-78,-63,14,70,-46,-24,9,-107,-82,-63,-78,-68
-73,-63,9,68,-41,-26,4,-102,-82,-63,-78,-63
-73,-58,14,65,-43,-21,4,-102,-82,-63,-78,-58
-73,-58,14,65,-43,-21,4,-102,-82,-68,-78,-53
-63,-58,4,61,-34,-26,4,-92,-87,-68,-87,-58
-63,-58,4,61,-34,-26,9,-92,-87,-68,-87,-58
-63,-53,9,58,-36,-21,9,-97,-87,-68,-87,-63
-63,-53,9,58,-36,-21,9,-97,-82,-68,-87,-68
-68,-58,9,63,-39,-24,0,-97,-82,-68,-82,-58
-73,-63,9,68,-41,-26,0,-97,-82,-68,-82,-58
-78,-68,9,73,-43,-29,0,-97,-82,-68,-82,-58
-82,-68,14,75,-48,-26,0,-102,-82,-73,-78,-58
-82,-68,14,75,-48,-26,4,-102,-87,-73,-82,-68
-82,-68,14,75,-48,-26,4,-102,-87,-68,-78,-63
-82,-63,19,73,-51,-21,9,-102,-87,-63,-78,-63
-82,-58,24,70,-53,-17,14,-102,-92,-63,-78,-63
-82,-68,14,75,-48,-26,4,-97,-92,-68,-78,-63
-82,-73,9,78,-46,-31,4,-97,-87,-63,-78,-63
-82,-78,4,80,-43,-36,9,-97,-82,-63,-78,-63
-82,-78,4,80,-43,-36,9,-92,-78,-63,-73,-63
-78,-63,14,70,-46,-24,14,-102,-82,-68,-73,-73
-78,-63,14,70,-46,-24,9,-102,-82,-68,-73,-68
-78,-63,14,70,-46,-24,4,-102,-82,-68,-73,-63
-78,-53,24,65,-51,-14,4,-102,-87,-73,-78,-63
-78,-53,24,65,-51,-14,14,-102,-78,-68,-82,-63
-78,-58,19,68,-48,-19,9,-107,-78,-68,-78,-58
-78,-48,29,63,-53,-9,19,-107,-87,-68,-78,-58
-78,-48,29,63,-53,-9,19,-107,-87,-68,-78,-58
-78,-48,29,63,-53,-9,19,-107,-87,-68,-78,-58
-78,-48,29,63,-53,-9,19,-107,-87,-68,-78,-58
-63,-48,14,56,-39,-17,14,-97,-87,-68,-87,-68
-63,-39,24,51,-43,-7,14,-97,-87,-68,-87,-68
-63,-39,24,51,-43,-7,14,-97,-87,-63,-87,-68
-63,-34,29,48,-46,-2,9,-97,-78,-63,-82,-63
-58,-24,34,41,-46,4,-4,-97,-63,-58,-78,-48
-58,-9,48,34,-53,19,-4,-97,-58,-48,-63,-43
-58,-9,48,34,-53,19,-4,-97,-58,-43,-58,-43
-58,-4,53,31,-56,24,0,-97,-58,-43,-48,-43
-63,-4,58,34,-61,26,9,-92,-58,-43,-58,-39
-63,-4,58,34,-61,26,9,-92,-58,-43,-58,-39
-63,-4,58,34,-61,26,14,-87,-58,-43,-58,-39
-63,0,63,31,-63,31,14,-87,-58,-39,-58,-39
-53,9,63,21,-58,36,14,-87,-48,-39,-58,-34
-48,9,58,19,-53,34,14,-87,-43,-39,-48,-34
-48,9,58,19,-53,34,19,-87,-39,-34,-48,-34
-48,14,63,17,-56,39,19,-82,-39,-34,-48,-34
-48,9,58,19,-53,34,24,-73,-34,-34,-48,-34
-48,4,53,21,-51,29,24,-73,-34,-34,-48,-34
-48,4,53,21,-51,29,24,-73,-34,-34,-48,-34
-48,0,48,24,-48,24,19,-73,-34,-34,-48,-34
-43,9,53,17,-48,31,4,-82,-43,-29,-39,-39
-43,9,53,17,-48,31,-4,-82,-43,-29,-39,-39
-43,9,53,17,-48,31,-14,-92,-43,-29,-39,-39
-39,9,48,14,-43,29,-14,-92,-43,-29,-39,-39
-48,19,68,14,-58,43,-9,-107,-43,-39,-48,-39
-53,19,73,17,-63,46,-24,-112,-43,-39,-48,-34
-53,19,73,17,-63,46,-29,-112,-43,-34,-43,-34
-43,34,78,4,-61,56,-29,-112,-43,-34,-39,-29
-39,24,63,7,-51,43,-39,-102,-34,-24,-39,-24
-24,29,53,-2,-39,41,-43,-102,-34,-19,-34,-24
-19,29,48,-4,-34,39,-43,-102,-34,-19,-34,-19
-14,19,34,-2,-24,26,-48,-102,-43,-19,-34,-19
-14,19,34,-2,-24,26,-48,-117,-58,-34,-39,-24
-14,14,29,0,-21,21,-48,-117,-63,-39,-43,-24
-14,9,24,2,-19,17,-48,-117,-68,-43,-43,-34
-24,4,29,9,-26,17,-48,-117,-68,-48,-48,-39
-29,-9,19,19,-24,4,-48,-117,-73,-53,-63,-39
-39,-14,24,26,-31,4,-43,-117,-78,-53,-63,-39
-39,-19,19,29,-29,0,-39,-122,-82,-58,-68,-43
-39,-19,19,29,-29,0,-39,-122,-82,-63,-68,-43
-39,-34,4,36,-21,-14,-29,-112,-73,-53,-58,-43
-39,-39,0,39,-19,-19,-29,-112,-78,-53,-58,-43
-39,-48,-9,43,-14,-29,-29,-112,-82,-58,-68,-48
-39,-53,-14,46,-12,-34,-29,-117,-87,-63,-73,-48
-34,-63,-29,48,-2,-46,-34,-117,-97,-73,-73,-48
-34,-63,-29,48,-2,-46,-34,-117,-92,-73,-68,-48
-34,-63,-29,48,-2,-46,-34,-117,-92,-73,-68,-48
-34,-63,-29,48,-2,-46,-34,-117,-92,-73,-68,-48
-29,-48,-19,39,-4,-34,-39,-126,-92,-68,-68,-48
-29,-39,-9,34,-9,-24,-39,-126,-92,-68,-68,-48
-34,-34,0,34,-17,-17,-39,-131,-102,-78,-73,-48
-34,-43,-9,39,-12,-26,-39,-131,-107,-78,-73,-48
-39,-53,-14,46,-12,-34,-39,-122,-102,-73,-78,-48
-43,-58,-14,51,-14,-36,-34,-126,-102,-78,-78,-48
-48,-73,-24,61,-12,-48,-29,-126,-107,-78,-82,-48
-53,-73,-19,63,-17,-46,-29,-126,-112,-82,-87,-58
-43,-73,-29,58,-7,-51,-29,-117,-112,-87,-87,-58
-48,-73,-24,61,-12,-48,-24,-117,-112,-87,-92,-58
-53,-73,-19,63,-17,-46,-14,-117,-112,-87,-92,-58
-58,-78,-19,68,-19,-48,-14,-112,-112,-87,-92,-63
-63,-73,-9,68,-26,-41,-19,-117,-122,-97,-102,-68
-68,-78,-9,73,-29,-43,-19,-122,-122,-102,-102,-73
-73,-78,-4,75,-34,-41,-19,-136,-122,-102,-107,-78
-78,-78,0,78,-39,-39,-19,-146,-122,-102,-107,-87
-92,-68,24,80,-58,-21,-9,-146,-122,-102,-107,-78
-97,-68,29,82,-63,-19,-4,-146,-122,-102,-107,-82
-97,-68,29,82,-63,-19,-4,-146,-122,-102,-117,-82
-92,-68,24,80,-58,-21,-4,-146,-126,-112,-117,-87
-92,-73,19,82,-56,-26,-4,-146,-126,-102,-102,-87
-92,-73,19,82,-56,-26,-4,-146,-122,-97,-102,-82
-92,-82,9,87,-51,-36,-4,-141,-122,-92,-102,-82
-92,-82,9,87,-51,-36,-4,-141,-122,-92,-102,-82
-92,-82,9,87,-51,-36,-4,-141,-122,-102,-107,-78
-92,-78,14,85,-53,-31,-4,-141,-122,-102,-107,-78
-92,-78,14,85,-53,-31,-4,-141,-122,-102,-107,-78
-92,-78,14,85,-53,-31,0,-141,-117,-102,-107,-78
-82,-68,14,75,-48,-26,-9,-141,-117,-107,-107,-78
-87,-68,19,78,-53,-24,-9,-141,-117,-107,-107,-78
-87,-73,14,80,-51,-29,-9,-141,-117,-107,-107,-78
-87,-73,14,80,-51,-29,-4,-141,-117,-107,-107,-78
-87,-82,4,85,-46,-39,-4,-141,-117,-97,-92,-68
-87,-78,9,82,-48,-34,-4,-136,-112,-92,-87,-68
-87,-78,9,82,-48,-34,-4,-131,-112,-92,-87,-68
-87,-78,9,82,-48,-34,-4,-131,-112,-92,-87,-68
-87,-73,14,80,-51,-29,-4,-136,-112,-92,-102,-78
-87,-53,34,70,-61,-9,-4,-136,-112,-102,-102,-87
-97,-63,34,80,-65,-14,19,-122,-97,-92,-92,-78
-112,-73,39,92,-75,-17,29,-107,-87,-82,-92,-78
-122,-48,73,85,-97,12,34,-107,-87,-82,-92,-78
-126,-24,102,75,-114,39,43,-112,-73,-63,-82,-73
-136,-14,122,75,-129,53,63,-87,-34,-43,-78,-68
-126,-24,102,75,-114,39,82,-39,9,-19,-58,-53
-117,-24,92,70,-104,34,97,-4,53,9,-39,-48
-117,-4,112,61,-114,53,92,19,87,39,-29,-39
-102,-19,82,61,-92,31,102,48,107,63,-9,-29
-73,-53,19,63,-46,-17,112,92,156,92,14,-4
-39,-34,4,36,-21,-14,122,151,224,156,73,29
4,9,4,-7,0,7,136,248,331,248,146,78
68,39,-29,-53,48,4,156,390,458,341,214,131
146,24,-122,-85,134,-48,190,551,575,409,258,161
219,24,-195,-122,207,-85,209,688,702,483,302,190
292,68,-224,-180,258,-78,170,756,819,570,366,248
390,131,-258,-261,324,-63,92,780,907,668,473,331
473,195,-278,-334,375,-41,9,727,946,751,570,424
546,234,-312,-390,429,-39,-58,634,917,795,639,492
619,302,-317,-461,468,-7,-156,556,873,800,678,551
712,395,-317,-553,514,39,-287,483,790,790,702,595
761,419,-341,-590,551,39,-370,385,634,697,673,590
771,336,-434,-553,602,-48,-390,283,414,488,536,502
751,234,-517,-492,634,-141,-429,136,170,263,356,390
688,165,-522,-427,605,-178,-483,-53,-63,73,209,297
595,102,-492,-348,544,-195,-512,-244,-273,-92,87,195
444,43,-400,-244,422,-178,-492,-429,-429,-219,-19,117
268,4,-263,-136,265,-129,-458,-580,-561,-307,-82,58
97,-43,-141,-26,119,-92,-409,-702,-678,-370,-151,0
-24,-92,-68,58,21,-80,-370,-800,-795,-463,-244,-73
-102,-170,-68,136,-17,-119,-336,-844,-888,-556,-322,-165
-136,-244,-107,190,-14,-175,-292,-795,-951,-624,-390,-234
-136,-273,-136,204,0,-204,-244,-678,-912,-614,-405,-268
-136,-263,-126,200,-4,-195,-200,-551,-834,-595,-405,-273
-136,-268,-131,202,-2,-200,-151,-453,-795,-570,-414,-292
-126,-278,-151,202,12,-214,-107,-375,-736,-541,-395,-283
-117,-278,-161,197,21,-219,-73,-292,-663,-492,-366,-263
-112,-273,-161,192,24,-217,-24,-195,-575,-434,-326,-248
-82,-244,-161,163,39,-202,24,-87,-483,-385,-307,-234
-68,-209,-141,139,36,-175,73,9,-395,-322,-263,-209
-53,-185,-131,119,39,-158,102,97,-307,-268,-229,-190
-43,-175,-131,109,43,-153,117,136,-253,-229,-190,-161
-34,-165,-131,100,48,-148,117,146,-214,-195,-170,-151
-24,-136,-112,80,43,-124,112,146,-180,-161,-151,-131
-14,-107,-92,61,39,-100,92,136,-156,-151,-136,-112
-4,-87,-82,46,39,-85,68,126,-131,-136,-122,-107
-9,-73,-63,41,26,-68,58,92,-122,-126,-117,-102
-19,-68,-48,43,14,-58,43,58,-107,-107,-102,-92
-24,-48,-24,36,0,-36,34,14,-97,-97,-97,-82
-48,-29,19,39,-34,-4,19,-14,-87,-82,-92,-82
-43,-34,9,39,-26,-12,24,-24,-68,-68,-73,-63
-53,-58,-4,56,-24,-31,24,-29,-53,-53,-53,-48
-48,-39,9,43,-29,-14,19,-43,-48,-63,-53,-53
-48,-39,9,43,-29,-14,19,-48,-48,-58,-53,-53
-48,-39,9,43,-29,-14,19,-48,-43,-53,-53,-53
-48,-39,9,43,-29,-14,19,-48,-39,-48,-43,-48
-58,-39,19,48,-39,-9,9,-48,-43,-58,-53,-58
-58,-34,24,46,-41,-4,9,-48,-43,-53,-53,-58
-58,-34,24,46,-41,-4,9,-48,-39,-48,-53,-53
-58,-29,29,43,-43,0,9,-48,-39,-48,-48,-53
-53,-29,24,41,-39,-2,9,-58,-39,-48,-48,-53
-53,-24,29,39,-41,2,4,-58,-34,-48,-48,-48
-53,-24,29,39,-41,2,4,-58,-34,-43,-48,-48
-48,-24,24,36,-36,0,4,-63,-34,-43,-43,-48
-58,-24,34,41,-46,4,9,-53,-34,-43,-43,-39
-53,-24,29,39,-41,2,9,-53,-24,-43,-43,-39
-53,-24,29,39,-41,2,9,-48,-19,-39,-39,-34
-53,-19,34,36,-43,7,9,-48,-19,-34,-39,-34
-53,-9,43,31,-48,17,9,-58,-29,-29,-48,-39
-53,-9,43,31,-48,17,9,-58,-24,-29,-43,-39
-48,-4,43,26,-46,19,9,-58,-24,-29,-43,-39
-48,-4,43,26,-46,19,9,-58,-24,-29,-43,-39
-48,-14,34,31,-41,9,9,-43,-14,-19,-43,-29
-39,-14,24,26,-31,4,9,-43,-14,-14,-39,-29
-39,-14,24,26,-31,4,9,-39,-9,-14,-39,-29
-39,-9,29,24,-34,9,4,-39,-9,-14,-39,-24
-39,-9,29,24,-34,9,-4,-39,-19,-24,-39,-24
-39,-4,34,21,-36,14,-4,-39,-14,-24,-34,-24
-39,-4,34,21,-36,14,-4,-34,-14,-19,-34,-19
-39,-4,34,21,-36,14,-4,-29,-9,-14,-34,-19
-29,9,39,9,-34,24,0,-29,0,-4,-19,-19
-29,9,39,9,-34,24,0,-19,4,0,-19,-19
-29,9,39,9,-34,24,0,-19,4,0,-19,-19
-24,9,34,7,-29,21,-4,-24,4,-4,-19,-14
-24,0,24,12,-24,12,-14,-34,4,-4,-19,-14
-19,0,19,9,-19,9,-14,-34,9,0,-14,-14
-19,0,19,9,-19,9,-14,-24,19,9,-9,-9
-19,4,24,7,-21,14,-14,-19,19,14,-4,-4
-29,14,43,7,-36,29,-4,-9,14,4,-14,-14
-24,14,39,4,-31,26,-4,-4,19,4,-14,-14
-24,14,39,4,-31,26,-4,-4,19,4,-14,-14
-19,14,34,2,-26,24,-9,-4,29,14,-9,-14
-4,19,24,-7,-14,21,-19,-14,39,14,0,0
-4,29,34,-12,-19,31,-19,-9,39,14,4,0
-4,34,39,-14,-21,36,-29,-4,43,14,4,4
0,39,39,-19,-19,39,-19,4,43,14,9,4
4,34,29,-19,-12,31,-9,14,53,24,14,4
9,34,24,-21,-7,29,-9,19,58,29,14,9
9,29,19,-19,-4,24,-19,24,63,29,14,9
9,29,19,-19,-4,24,-19,24,63,39,19,14
9,43,34,-26,-12,39,-34,34,68,39,19,4
14,43,29,-29,-7,36,-34,34,73,39,24,9
19,43,24,-31,-2,34,-29,34,78,39,24,9
24,48,24,-36,0,36,-29,43,82,43,34,19
24,58,34,-41,-4,46,-34,53,97,53,29,24
24,58,34,-41,-4,46,-34,58,102,63,34,24
29,63,34,-46,-2,48,-34,63,112,68,39,24
34,73,39,-53,-2,56,-39,68,117,73,39,29
39,78,39,-58,0,58,-39,73,112,82,43,34
48,78,29,-63,9,53,-39,82,117,87,53,39
53,78,24,-65,14,51,-48,87,126,92,58,43
53,87,34,-70,9,61,-48,92,131,97,58,48
48,102,53,-75,-2,78,-43,102,146,92,68,48
53,107,53,-80,0,80,-48,107,156,97,73,53
58,107,48,-82,4,78,-48,112,165,107,78,58
63,107,43,-85,9,75,-48,131,170,117,82,63
68,97,29,-82,19,63,-53,146,185,131,87,68
73,112,39,-92,17,75,-63,156,190,136,92,73
82,122,39,-102,21,80,-63,156,200,141,97,78
82,122,39,-102,21,80,-63,165,209,156,107,82
92,131,39,-112,26,85,-68,185,219,161,122,97
97,146,48,-122,24,97,-68,195,229,165,126,102
102,146,43,-124,29,95,-68,209,239,180,131,107
107,151,43,-129,31,97,-68,219,248,190,141,112
112,161,48,-136,31,104,-78,219,258,195,156,112
122,170,48,-146,36,109,-78,229,268,204,161,117
126,175,48,-151,39,112,-87,234,278,219,170,131
131,185,53,-158,39,119,-92,244,287,219,175,136
151,195,43,-173,53,119,-97,263,297,234,180,151
156,209,53,-183,51,131,-102,268,307,234,185,156
161,214,53,-187,53,134,-102,278,317,248,200,161
170,214,43,-192,63,129,-107,287,326,258,209,165
180,224,43,-202,68,134,-112,297,336,268,214,165
185,234,48,-209,68,141,-117,297,336,268,219,170
190,248,58,-219,65,153,-122,302,341,273,224,175
195,248,53,-222,70,151,-122,307,346,283,229,180
190,258,68,-224,61,163,-122,307,356,292,224,185
195,258,63,-226,65,161,-122,312,370,302,234,190
200,268,68,-234,65,168,-131,317,370,302,239,190
204,278,73,-241,65,175,-131,317,370,302,244,200
209,278,68,-244,70,173,-131,326,385,307,253,209
209,273,63,-241,73,168,-131,331,390,312,258,209
209,273,63,-241,73,168,-136,331,390,312,258,214
209,268,58,-239,75,163,-141,331,390,312,258,214
214,278,63,-246,75,170,-141,331,380,317,258,219
214,287,73,-251,70,180,-141,331,380,317,263,219
214,292,78,-253,68,185,-141,331,380,317,263,219
214,292,78,-253,68,185,-146,331,380,317,263,219
214,283,68,-248,73,175,-146,331,380,307,263,214
214,283,68,-248,73,175,-151,317,375,307,263,214
214,287,73,-251,70,180,-151,312,370,302,263,214
214,287,73,-251,70,180,-146,297,366,297,258,214
214,297,82,-256,65,190,-146,283,361,307,258,224
214,297,82,-256,65,190,-146,278,356,302,253,214
204,292,87,-248,58,190,-146,268,351,297,253,209
200,287,87,-244,56,187,-141,258,346,292,248,209
195,268,73,-231,61,170,-131,248,331,278,244,204
180,263,82,-222,48,173,-131,239,326,263,234,195
180,258,78,-219,51,168,-131,219,312,253,229,185
165,258,92,-212,36,175,-131,214,302,248,214,185
156,244,87,-200,34,165,-126,195,292,248,209,180
151,224,73,-187,39,148,-117,190,283,239,204,175
141,214,73,-178,34,143,-112,175,268,229,195,161
131,209,78,-170,26,143,-107,161,253,209,185,151
122,200,78,-161,21,139,-102,146,239,200,165,131
112,190,78,-151,17,134,-97,131,224,185,151,122
102,180,78,-141,12,129,-92,122,209,175,146,112
92,170,78,-131,7,124,-87,107,195,161,131,102
78,161,82,-119,-2,122,-92,87,170,141,117,92
68,161,92,-114,-12,126,-87,73,156,126,97,82
63,151,87,-107,-12,119,-82,63,136,122,92,73
53,141,87,-97,-17,114,-78,53,131,102,82,63
53,131,78,-92,-12,104,-58,53,117,87,73,53
53,117,63,-85,-4,90,-53,39,112,82,63,43
43,102,58,-73,-7,80,-48,29,97,73,53,43
34,87,53,-61,-9,70,-43,19,87,63,39,29
24,73,48,-48,-12,61,-43,19,82,63,39,29
19,63,43,-41,-12,53,-39,9,78,53,34,29
9,48,39,-29,-14,43,-29,4,68,48,34,24
9,43,34,-26,-12,39,-29,-4,53,39,29,14
4,43,39,-24,-17,41,-29,-19,48,19,14,4
-4,34,39,-14,-21,36,-24,-29,39,14,9,0
-4,39,43,-17,-24,41,-24,-34,29,4,0,-4
-9,34,43,-12,-26,39,-24,-39,24,4,-4,-9
-14,29,43,-7,-29,36,-19,-43,14,4,0,-9
-19,24,43,-2,-31,34,-14,-48,4,4,0,-14
-24,19,43,2,-34,31,-14,-53,0,-4,-4,-19
-29,9,39,9,-34,24,-4,-53,-4,-9,-14,-24
-43,-4,39,24,-41,17,-4,-53,-9,-14,-24,-29
-43,-4,39,24,-41,17,-4,-63,-14,-19,-29,-34
-43,-9,34,26,-39,12,-4,-63,-19,-24,-34,-39
-53,-9,43,31,-48,17,-4,-68,-19,-29,-34,-39
-43,-4,39,24,-41,17,-14,-78,-24,-39,-43,-48
-43,-4,39,24,-41,17,-14,-82,-29,-39,-48,-48
-48,-4,43,26,-46,19,-9,-82,-29,-43,-48,-48
-48,-14,34,31,-41,9,-4,-78,-34,-43,-48,-53
-53,-9,43,31,-48,17,-4,-73,-34,-43,-43,-43
-53,-4,48,29,-51,21,-4,-73,-39,-48,-48,-43
-58,-4,53,31,-56,24,-4,-82,-39,-48,-48,-48
-58,0,58,29,-58,29,-4,-82,-39,-48,-48,-48
-58,-4,53,31,-56,24,-4,-78,-43,-39,-48,-48
-58,-9,48,34,-53,19,-4,-78,-43,-39,-48,-48
-58,-19,39,39,-48,9,0,-78,-43,-43,-48,-48
-63,-29,34,46,-48,2,0,-78,-43,-48,-48,-48
-63,-19,43,41,-53,12,9,-87,-53,-58,-48,-58
-63,-19,43,41,-53,12,4,-87,-53,-53,-48,-58
-63,-19,43,41,-53,12,4,-87,-53,-53,-48,-63
-63,-19,43,41,-53,12,4,-87,-53,-58,-53,-63
-63,-19,43,41,-53,12,4,-87,-53,-48,-53,-63
-63,-19,43,41,-53,12,4,-87,-53,-48,-53,-63
-63,-24,39,43,-51,7,4,-92,-58,-48,-48,-63
-63,-24,39,43,-51,7,9,-92,-58,-48,-48,-63
-53,-24,29,39,-41,2,0,-82,-48,-43,-48,-53
-53,-24,29,39,-41,2,0,-82,-48,-43,-48,-53
-53,-24,29,39,-41,2,0,-82,-48,-48,-48,-53
-53,-24,29,39,-41,2,0,-82,-48,-48,-53,-53
-53,-19,34,36,-43,7,0,-92,-58,-58,-53,-68
-53,-19,34,36,-43,7,-4,-92,-58,-58,-53,-68
-53,-19,34,36,-43,7,-4,-92,-58,-58,-53,-63
-58,-19,39,39,-48,9,-4,-92,-53,-58,-53,-63
-58,-24,34,41,-46,4,4,-78,-53,-58,-53,-53
-58,-24,34,41,-46,4,9,-78,-53,-58,-53,-53
-58,-29,29,43,-43,0,14,-78,-53,-58,-53,-53
-58,-29,29,43,-43,0,14,-78,-53,-58,-53,-53
-48,-29,19,39,-34,-4,4,-78,-43,-48,-58,-53
-48,-29,19,39,-34,-4,4,-78,-43,-48,-58,-53
-48,-29,19,39,-34,-4,4,-78,-43,-48,-53,-53
-48,-29,19,39,-34,-4,0,-78,-43,-48,-53,-53
-58,-19,39,39,-48,9,0,-78,-43,-58,-58,-53
-53,-19,34,36,-43,7,4,-73,-43,-53,-58,-53
-53,-24,29,39,-41,2,4,-73,-39,-53,-63,-53
-53,-24,29,39,-41,2,4,-78,-39,-53,-63,-53
-63,-19,43,41,-53,12,4,-87,-39,-53,-53,-53
-63,-19,43,41,-53,12,4,-82,-39,-53,-53,-53
-63,-19,43,41,-53,12,4,-82,-39,-53,-48,-48
-63,-19,43,41,-53,12,0,-82,-39,-48,-48,-48
-53,-19,34,36,-43,7,0,-82,-48,-48,-53,-58
-53,-14,39,34,-46,12,0,-87,-43,-48,-53,-58
-58,-14,43,36,-51,14,-4,-87,-43,-48,-58,-58
-58,-9,48,34,-53,19,-4,-87,-43,-48,-58,-58
-58,-19,39,39,-48,9,0,-87,-43,-48,-53,-58
-58,-29,29,43,-43,0,0,-87,-43,-48,-53,-53
-58,-19,39,39,-48,9,0,-87,-43,-48,-58,-53
-58,-19,39,39,-48,9,-4,-87,-43,-48,-58,-53
-58,-19,39,39,-48,9,4,-87,-34,-34,-43,-43
-58,-19,39,39,-48,9,4,-87,-34,-34,-39,-43
-53,-19,34,36,-43,7,9,-87,-34,-34,-39,-43
-53,-19,34,36,-43,7,9,-87,-34,-34,-39,-43
-53,-14,39,34,-46,12,9,-87,-39,-43,-48,-53
-53,-14,39,34,-46,12,4,-87,-39,-43,-53,-53
-48,-14,34,31,-41,9,4,-87,-39,-43,-53,-53
-48,-14,34,31,-41,9,9,-82,-34,-43,-48,-53
-48,-14,34,31,-41,9,0,-82,-43,-34,-48,-43
-48,-9,39,29,-43,14,0,-82,-39,-34,-48,-43
-53,-4,48,29,-51,21,0,-82,-39,-34,-43,-39
-53,4,58,24,-56,31,-4,-82,-39,-34,-43,-39
-43,-4,39,24,-41,17,-4,-82,-43,-43,-48,-53
-43,-4,39,24,-41,17,-4,-82,-43,-43,-48,-53
-43,-9,34,26,-39,12,-4,-82,-43,-43,-53,-53
-43,-9,34,26,-39,12,-4,-82,-43,-43,-53,-53
-53,-9,43,31,-48,17,-4,-78,-34,-43,-39,-53
-53,-9,43,31,-48,17,-4,-78,-34,-43,-39,-48
-53,-9,43,31,-48,17,-4,-78,-34,-43,-39,-48
-53,-9,43,31,-48,17,0,-78,-39,-43,-39,-53
-53,-4,48,29,-51,21,0,-87,-39,-43,-53,-53
-48,-4,43,26,-46,19,0,-82,-39,-48,-53,-53
-48,-14,34,31,-41,9,0,-82,-39,-48,-53,-53
-48,-14,34,31,-41,9,0,-87,-39,-48,-53,-53
-53,-24,29,39,-41,2,0,-87,-39,-34,-43,-43
-53,-24,29,39,-41,2,0,-87,-39,-34,-43,-43
-53,-24,29,39,-41,2,0,-87,-39,-43,-43,-48
-53,-24,29,39,-41,2,-4,-87,-39,-43,-39,-48
-53,-19,34,36,-43,7,-4,-87,-48,-53,-39,-58
-53,-19,34,36,-43,7,-4,-87,-53,-53,-43,-58
-53,-14,39,34,-46,12,0,-87,-53,-53,-43,-58
-53,-14,39,34,-46,12,0,-87,-53,-53,-48,-58
-53,-9,43,31,-48,17,-9,-92,-53,-53,-48,-58
-53,-9,43,31,-48,17,-9,-97,-58,-53,-48,-58
-53,-14,39,34,-46,12,-9,-97,-58,-53,-48,-58
-53,0,53,26,-53,26,-9,-97,-63,-53,-48,-63
-53,-9,43,31,-48,17,0,-87,-53,-43,-53,-63
-53,-14,39,34,-46,12,0,-87,-53,-48,-53,-63
-53,-19,34,36,-43,7,0,-87,-53,-48,-48,-63
-53,-19,34,36,-43,7,4,-87,-53,-48,-48,-63
-53,-24,29,39,-41,2,4,-87,-53,-48,-48,-53
-53,-24,29,39,-41,2,0,-92,-58,-48,-48,-53
-53,-24,29,39,-41,2,0,-92,-58,-48,-48,-53
-53,-29,24,41,-39,-2,0,-87,-58,-48,-48,-53
-53,-39,14,46,-34,-12,9,-97,-58,-58,-63,-68
-63,-34,29,48,-46,-2,9,-102,-63,-58,-63,-68
-63,-34,29,48,-46,-2,9,-102,-63,-58,-68,-68
-58,-34,24,46,-41,-4,9,-102,-63,-58,-68,-68
-58,-29,29,43,-43,0,9,-102,-63,-68,-58,-68
-63,-29,34,46,-48,2,9,-107,-63,-63,-58,-68
-63,-29,34,46,-48,2,9,-107,-63,-63,-53,-68
-58,-29,29,43,-43,0,14,-102,-63,-63,-53,-68
-58,-29,29,43,-43,0,4,-92,-63,-53,-53,-68
-58,-34,24,46,-41,-4,4,-92,-68,-58,-58,-73
-58,-34,24,46,-41,-4,4,-92,-68,-63,-58,-73
-58,-29,29,43,-43,0,4,-92,-68,-63,-58,-73
-58,-19,39,39,-48,9,4,-107,-73,-63,-68,-73
-63,-19,43,41,-53,12,0,-107,-73,-68,-68,-73
-63,-19,43,41,-53,12,0,-107,-68,-68,-68,-73
-63,-19,43,41,-53,12,0,-107,-68,-68,-68,-73
-53,-19,34,36,-43,7,4,-97,-68,-68,-58,-73
-53,-24,29,39,-41,2,4,-97,-68,-63,-58,-73
-53,-24,29,39,-41,2,4,-97,-73,-63,-63,-73
-53,-24,29,39,-41,2,0,-102,-78,-68,-68,-73
-53,-24,29,39,-41,2,0,-102,-78,-78,-68,-73
-53,-29,24,41,-39,-2,4,-102,-78,-73,-68,-73
-53,-29,24,41,-39,-2,4,-102,-78,-73,-63,-73
-53,-24,29,39,-41,2,0,-102,-78,-78,-63,-73
-63,-14,48,39,-56,17,0,-112,-82,-68,-63,-73
-63,-14,48,39,-56,17,4,-107,-82,-68,-63,-73
-63,-19,43,41,-53,12,4,-107,-82,-73,-63,-73
-63,-19,43,41,-53,12,4,-112,-82,-73,-68,-73
-63,-19,43,41,-53,12,4,-107,-73,-73,-68,-73
-63,-24,39,43,-51,7,4,-107,-78,-73,-68,-73
-63,-24,39,43,-51,7,4,-107,-82,-73,-68,-73
-68,-19,48,43,-58,14,4,-107,-82,-68,-68,-73
-68,-29,39,48,-53,4,9,-107,-82,-68,-73,-82
-63,-29,34,46,-48,2,9,-107,-82,-73,-73,-82
-63,-34,29,48,-46,-2,9,-107,-82,-73,-73,-82
-68,-34,34,51,-51,0,9,-107,-82,-73,-73,-82
-58,-39,19,48,-39,-9,9,-117,-82,-73,-63,-78
-58,-39,19,48,-39,-9,9,-112,-82,-73,-63,-78
-58,-43,14,51,-36,-14,9,-112,-82,-73,-63,-73
-58,-43,14,51,-36,-14,9,-112,-82,-73,-63,-73
-68,-39,29,53,-48,-4,0,-112,-82,-73,-73,-73
-68,-34,34,51,-51,0,0,-112,-87,-73,-73,-73
-68,-24,43,46,-56,9,4,-112,-87,-73,-73,-78
-68,-19,48,43,-58,14,4,-117,-87,-73,-78,-78
-58,-24,34,41,-46,4,4,-107,-73,-73,-68,-78
-53,-34,19,43,-36,-7,4,-107,-73,-73,-68,-78
-53,-39,14,46,-34,-12,4,-107,-73,-73,-68,-78
-53,-39,14,46,-34,-12,4,-107,-73,-73,-68,-78
-58,-39,19,48,-39,-9,4,-107,-82,-78,-68,-73
-68,-39,29,53,-48,-4,4,-107,-82,-78,-68,-73
-73,-48,24,61,-48,-12,9,-107,-82,-78,-68,-73
-78,-48,29,63,-53,-9,9,-107,-82,-78,-68,-73
-68,-48,19,58,-43,-14,4,-122,-82,-78,-78,-87
-68,-43,24,56,-46,-9,4,-122,-82,-78,-82,-87
-68,-43,24,56,-46,-9,9,-122,-82,-78,-82,-87
-68,-43,24,56,-46,-9,9,-122,-82,-78,-78,-82
-68,-29,39,48,-53,4,0,-122,-87,-87,-78,-82
-68,-24,43,46,-56,9,0,-122,-87,-82,-78,-82
-68,-19,48,43,-58,14,0,-122,-87,-82,-73,-82
-68,-14,53,41,-61,19,0,-117,-82,-82,-73,-82
-68,-29,39,48,-53,4,9,-117,-82,-73,-68,-73
-63,-34,29,48,-46,-2,4,-112,-82,-73,-68,-73
-63,-34,29,48,-46,-2,4,-112,-82,-73,-68,-73
-63,-39,24,51,-43,-7,4,-112,-82,-78,-68,-73
-73,-43,29,58,-51,-7,4,-112,-78,-78,-68,-73
-73,-48,24,61,-48,-12,9,-112,-78,-78,-68,-68
-73,-48,24,61,-48,-12,9,-117,-78,-78,-68,-68
-73,-53,19,63,-46,-17,9,-117,-73,-78,-68,-68
