I,II,III,aVR,aVL,aVF,V1,V2,V3,V4,V5,V6,
-400,-156,244,278,-322,43,195,-253,-702,-634,-517,-331
-366,-146,219,256,-292,36,170,-234,-663,-605,-488,-317
-331,-136,195,234,-263,29,146,-214,-624,-575,-458,-302
-292,-131,161,212,-226,14,131,-190,-566,-531,-424,-278
-253,-126,126,190,-190,0,117,-165,-507,-488,-390,-253
-214,-112,102,163,-158,-4,92,-141,-444,-424,-341,-224
-175,-97,78,136,-126,-9,68,-117,-380,-361,-292,-195
-141,-87,53,114,-97,-17,48,-97,-322,-307,-253,-170
-107,-78,29,92,-68,-24,29,-78,-263,-253,-214,-146
-82,-63,19,73,-51,-21,14,-58,-214,-209,-180,-122
-58,-48,9,53,-34,-19,0,-39,-165,-165,-146,-97
-34,-43,-9,39,-12,-26,-14,-29,-126,-131,-117,-78
-9,-39,-29,24,9,-34,-29,-19,-87,-97,-87,-58
4,-34,-39,14,21,-36,-34,-19,-63,-68,-68,-43
19,-29,-48,4,34,-39,-39,-19,-39,-39,-48,-29
29,-24,-53,-2,41,-39,-43,-14,-19,-24,-34,-19
39,-19,-58,-9,48,-39,-48,-9,0,-9,-19,-9
43,-14,-58,-14,51,-36,-53,-4,9,9,-9,-4
48,-9,-58,-19,53,-34,-58,0,19,29,0,0
53,-4,-58,-24,56,-31,-63,0,29,34,9,9
58,0,-58,-29,58,-29,-68,0,39,39,19,19
58,0,-58,-29,58,-29,-68,0,39,39,19,19
58,0,-58,-29,58,-29,-68,0,39,39,19,19
58,0,-58,-29,58,-29,-68,0,39,39,19,19
58,0,-58,-29,58,-29,-68,0,39,39,19,19
58,0,-58,-29,58,-29,-63,0,39,39,19,19
58,0,-58,-29,58,-29,-58,0,39,39,19,19
53,0,-53,-26,53,-26,-58,0,39,34,19,14
48,0,-48,-24,48,-24,-58,0,39,29,19,9
43,-4,-48,-19,46,-26,-58,-4,34,29,19,9
39,-9,-48,-14,43,-29,-58,-9,29,29,19,9
39,-9,-48,-14,43,-29,-58,-14,24,24,14,4
39,-9,-48,-14,43,-29,-58,-19,19,19,9,0
34,-14,-48,-9,41,-31,-53,-19,19,19,4,0
29,-19,-48,-4,39,-34,-48,-19,19,19,0,0
24,-19,-43,-2,34,-31,-43,-24,9,14,-4,-4
19,-19,-39,0,29,-29,-39,-29,0,9,-9,-9
14,-19,-34,2,24,-26,-39,-34,-4,0,-14,-14
9,-19,-29,4,19,-24,-39,-39,-9,-9,-19,-19
4,-24,-29,9,17,-26,-39,-43,-19,-14,-24,-19
0,-29,-29,14,14,-29,-39,-48,-29,-19,-29,-19
0,-34,-34,17,17,-34,-34,-48,-29,-24,-29,-24
0,-39,-39,19,19,-39,-29,-48,-29,-29,-29,-29
-4,-39,-34,21,14,-36,-29,-53,-39,-34,-34,-29
-9,-39,-29,24,9,-34,-29,-58,-48,-39,-39,-29
-14,-39,-24,26,4,-31,-29,-58,-48,-43,-43,-29
-19,-39,-19,29,0,-29,-29,-58,-48,-48,-48,-29
-19,-39,-19,29,0,-29,-29,-58,-53,-53,-48,-39
-19,-39,-19,29,0,-29,-29,-58,-58,-58,-48,-48
-19,-39,-19,29,0,-29,-29,-63,-58,-58,-53,-48
-19,-39,-19,29,0,-29,-29,-68,-58,-58,-58,-48
-19,-39,-19,29,0,-29,-34,-68,-58,-63,-58,-48
-19,-39,-19,29,0,-29,-39,-68,-58,-68,-58,-48
-14,-43,-29,29,7,-36,-39,-68,-58,-68,-58,-48
-9,-48,-39,29,14,-43,-39,-68,-58,-68,-58,-48
-9,-48,-39,29,14,-43,-39,-68,-58,-68,-58,-48
-9,-48,-39,29,14,-43,-39,-68,-58,-68,-58,-48
-9,-48,-39,29,14,-43,-39,-68,-58,-63,-58,-48
-9,-48,-39,29,14,-43,-39,-68,-58,-58,-58,-48
-9,-48,-39,29,14,-43,-39,-68,-63,-58,-58,-48
-4,-43,-39,24,17,-41,-34,-63,-58,-58,-58,-43
-4,-43,-39,24,17,-41,-34,-63,-58,-58,-58,-43
4,-29,-34,12,19,-31,-34,-58,-48,-48,-48,-34
14,-4,-19,-4,17,-12,-24,-48,-39,-39,-39,-24
14,4,-9,-9,12,-2,-24,-48,-34,-34,-29,-19
19,14,-4,-17,12,4,-19,-48,-24,-24,-19,-14
24,19,-4,-21,14,7,-19,-48,-14,-24,-19,-9
24,29,4,-26,9,17,-29,-48,-14,-14,-14,-4
34,39,4,-36,14,21,-39,-43,0,-4,-4,0
39,43,4,-41,17,24,-53,-39,9,4,9,4
53,58,4,-56,24,31,-87,-39,9,19,19,14
63,82,19,-73,21,51,-117,-53,9,19,24,24
73,87,14,-80,29,51,-136,-73,0,19,24,29
87,97,9,-92,39,53,-156,-97,-4,19,19,29
117,102,-14,-109,65,43,-170,-107,-4,24,19,39
141,102,-39,-122,90,31,-175,-87,4,29,29,48
165,107,-58,-136,112,24,-180,-78,9,29,48,58
156,117,-39,-136,97,39,-185,-97,-9,19,34,53
146,87,-58,-117,102,14,-170,-117,-34,0,14,39
131,73,-58,-102,95,7,-165,-122,-43,-14,9,29
112,53,-58,-82,85,-2,-151,-126,-48,-14,0,19
68,24,-43,-46,56,-9,-117,-112,-39,-14,-4,0
34,0,-34,-17,34,-17,-87,-102,-39,-19,-14,-14
4,-29,-34,12,19,-31,-68,-102,-48,-34,-24,-24
-4,-48,-43,26,19,-46,-63,-97,-48,-34,-29,-34
0,-48,-48,24,24,-48,-63,-97,-48,-34,-29,-39
9,-58,-68,24,39,-63,-63,-97,-48,-34,-34,-39
9,-58,-68,24,39,-63,-63,-97,-58,-39,-39,-39
9,-63,-73,26,41,-68,-63,-97,-63,-39,-43,-39
4,-63,-68,29,36,-65,-63,-97,-63,-39,-43,-43
4,-68,-73,31,39,-70,-58,-97,-63,-39,-43,-43
4,-68,-73,31,39,-70,-58,-92,-53,-39,-43,-43
4,-68,-73,31,39,-70,-53,-82,-53,-34,-43,-43
4,-68,-73,31,39,-70,-53,-82,-48,-34,-43,-39
4,-68,-73,31,39,-70,-53,-82,-39,-34,-39,-39
4,-68,-73,31,39,-70,-48,-78,-39,-29,-39,-39
4,-73,-78,34,41,-75,-48,-78,-39,-29,-39,-39
4,-73,-78,34,41,-75,-43,-73,-34,-29,-39,-43
4,-68,-73,31,39,-70,-43,-73,-34,-24,-34,-48
4,-68,-73,31,39,-70,-48,-78,-39,-29,-34,-48
-9,-73,-63,41,26,-68,-39,-68,-34,-29,-34,-48
-24,-82,-58,53,17,-70,-9,-24,-43,-48,-53,-58
-29,-87,-58,58,14,-73,39,82,14,-34,-48,-63
-53,-48,4,51,-29,-21,165,297,209,92,24,-39
24,34,9,-29,7,21,214,497,478,322,200,73
219,131,-87,-175,153,21,165,629,688,570,405,229
473,322,-151,-397,312,85,87,844,1019,907,683,444
727,614,-112,-671,419,251,0,1268,1473,1307,1015,712
1107,844,-263,-976,685,290,-263,1312,1795,1668,1332,956
1786,863,-922,-1324,1354,-29,-829,932,1893,1927,1600,1171
2205,1054,-1151,-1629,1678,-48,-1268,556,2210,2342,1991,1478
2034,1356,-678,-1695,1356,339,-1273,336,3040,3128,2596,1888
1805,1415,-390,-1610,1098,512,-1141,278,3513,3513,2869,2054
1654,1229,-424,-1442,1039,402,-1010,258,3411,3313,2776,1981
1288,785,-502,-1037,895,141,-727,97,2430,2283,2030,1483
463,156,-307,-309,385,-75,-214,-297,644,634,683,536
-180,-253,-73,217,-53,-163,136,-444,-488,-390,-244,-170
-302,-302,0,302,-151,-151,253,-229,-478,-453,-361,-278
-292,-283,9,287,-151,-136,297,-112,-419,-424,-351,-273
-234,-234,0,234,-117,-117,258,-4,-297,-322,-278,-219
-185,-190,-4,187,-90,-97,219,53,-219,-248,-224,-185
-175,-136,39,156,-107,-48,190,39,-190,-204,-180,-151
-170,-112,58,141,-114,-26,161,39,-170,-185,-161,-131
-170,-112,58,141,-114,-26,151,39,-156,-180,-161,-131
-161,-112,48,136,-104,-31,131,39,-141,-170,-161,-131
-146,-107,39,126,-92,-34,131,39,-136,-161,-146,-126
-141,-97,43,119,-92,-26,131,39,-131,-151,-136,-122
-141,-97,43,119,-92,-26,126,43,-126,-151,-136,-122
-141,-97,43,119,-92,-26,117,43,-122,-151,-136,-117
-141,-97,43,119,-92,-26,117,43,-117,-151,-141,-117
-136,-97,39,117,-87,-29,117,48,-117,-146,-146,-117
-136,-97,39,117,-87,-29,117,48,-112,-141,-141,-117
-141,-92,48,117,-95,-21,112,48,-112,-141,-141,-117
-146,-87,58,117,-102,-14,107,48,-107,-141,-141,-112
-146,-87,58,117,-102,-14,107,53,-107,-141,-141,-112
-146,-82,63,114,-104,-9,107,48,-107,-141,-141,-112
-151,-82,68,117,-109,-7,107,43,-102,-141,-141,-112
-151,-78,73,114,-112,-2,107,48,-102,-136,-136,-112
-146,-73,73,109,-109,0,107,48,-102,-136,-131,-112
-146,-73,73,109,-109,0,107,53,-102,-136,-131,-107
-156,-68,87,112,-122,9,107,58,-102,-136,-131,-107
-156,-68,87,112,-122,9,107,58,-107,-141,-131,-107
-156,-68,87,112,-122,9,107,58,-107,-141,-131,-112
-161,-63,97,112,-129,17,107,58,-107,-141,-131,-112
-165,-63,102,114,-134,19,112,63,-107,-141,-136,-112
-165,-63,102,114,-134,19,112,63,-107,-141,-136,-112
-165,-63,102,114,-134,19,112,63,-112,-141,-141,-112
-175,-63,112,119,-143,24,117,63,-122,-146,-146,-117
-180,-63,117,122,-148,26,117,58,-131,-156,-156,-117
-180,-63,117,122,-148,26,122,58,-136,-161,-156,-117
-185,-63,122,124,-153,29,122,58,-141,-170,-161,-122
-190,-63,126,126,-158,31,126,53,-151,-175,-161,-126
-200,-63,136,131,-168,36,131,48,-161,-185,-170,-131
-209,-63,146,136,-178,41,131,43,-175,-195,-175,-141
-214,-63,151,139,-183,43,136,34,-185,-209,-185,-151
-224,-63,161,143,-192,48,141,29,-209,-219,-195,-156
-234,-68,165,151,-200,48,146,19,-224,-239,-209,-156
-239,-68,170,153,-204,51,156,19,-239,-253,-224,-161
-248,-73,175,161,-212,51,161,14,-258,-268,-234,-170
-258,-78,180,168,-219,51,170,-4,-283,-287,-244,-180
-278,-82,195,180,-236,56,175,-19,-307,-307,-258,-185
-297,-87,209,192,-253,61,185,-39,-336,-336,-278,-190
-317,-92,224,204,-270,65,190,-58,-370,-366,-302,-204
-331,-97,234,214,-283,68,200,-78,-405,-395,-322,-224
-351,-102,248,226,-300,73,204,-97,-444,-429,-341,-234
-366,-107,258,236,-312,75,214,-112,-478,-448,-370,-253
-380,-117,263,248,-322,73,219,-131,-517,-483,-390,-263
-400,-122,278,261,-339,78,224,-151,-551,-512,-414,-283
-414,-131,283,273,-348,75,229,-170,-585,-541,-434,-297
-429,-136,292,283,-361,78,229,-190,-614,-570,-453,-302
-444,-136,307,290,-375,85,234,-204,-639,-590,-468,-317
-448,-141,307,295,-378,82,234,-219,-653,-610,-483,-326
-453,-141,312,297,-383,85,234,-229,-673,-619,-492,-331
-453,-146,307,300,-380,80,229,-239,-678,-624,-497,-331
-444,-151,292,297,-368,70,219,-239,-678,-624,-497,-326
-419,-151,268,285,-344,58,209,-239,-683,-619,-492,-331
-395,-146,248,270,-322,51,190,-229,-658,-590,-473,-322
-366,-141,224,253,-295,41,175,-209,-614,-566,-448,-302
-326,-136,190,231,-258,26,156,-190,-570,-527,-424,-287
-287,-126,161,207,-224,17,131,-165,-522,-483,-385,-258
-244,-117,126,180,-185,4,107,-141,-458,-434,-346,-234
-200,-102,97,151,-148,-2,87,-122,-390,-375,-302,-204
-165,-92,73,129,-119,-9,68,-97,-331,-322,-258,-175
-126,-82,43,104,-85,-19,43,-73,-278,-273,-224,-151
-102,-68,34,85,-68,-17,24,-58,-224,-224,-190,-131
-73,-58,14,65,-43,-21,9,-53,-185,-180,-156,-107
-43,-48,-4,46,-19,-26,-4,-34,-141,-136,-122,-87
-19,-43,-24,31,2,-34,-14,-24,-112,-107,-97,-73
0,-39,-39,19,19,-39,-29,-14,-78,-78,-73,-58
19,-34,-53,7,36,-43,-39,-4,-53,-53,-48,-43
24,-29,-53,2,39,-41,-43,0,-29,-29,-29,-29
34,-24,-58,-4,46,-41,-48,0,-14,-9,-19,-19
43,-19,-63,-12,53,-41,-53,4,0,4,0,-9
53,-14,-68,-19,61,-41,-58,0,19,19,4,0
58,-4,-63,-26,61,-34,-63,0,29,24,14,0
58,-4,-63,-26,61,-34,-63,0,34,29,14,0
63,0,-63,-31,63,-31,-63,0,34,29,14,4
63,-4,-68,-29,65,-36,-63,0,39,39,14,4
63,-4,-68,-29,65,-36,-68,-4,43,39,24,9
63,-4,-68,-29,65,-36,-73,-4,43,39,24,4
63,-4,-68,-29,65,-36,-73,-4,43,39,24,4
58,-4,-63,-26,61,-34,-63,-4,39,39,24,4
58,-4,-63,-26,61,-34,-58,-4,39,39,24,4
53,-9,-63,-21,58,-36,-58,-4,39,39,24,0
53,-14,-68,-19,61,-41,-58,0,39,39,24,0
48,-14,-63,-17,56,-39,-58,-4,34,34,24,0
48,-14,-63,-17,56,-39,-53,-4,29,34,19,-4
39,-14,-53,-12,46,-34,-53,-14,24,29,14,-4
39,-19,-58,-9,48,-39,-53,-24,24,24,9,-4
29,-19,-48,-4,39,-34,-48,-24,19,14,9,-9
24,-19,-43,-2,34,-31,-48,-29,9,9,9,-14
19,-24,-43,2,31,-34,-43,-34,4,0,4,-14
19,-24,-43,2,31,-34,-43,-34,4,-4,-4,-19
14,-24,-39,4,26,-31,-43,-39,0,0,-4,-24
9,-29,-39,9,24,-34,-39,-43,-4,-4,-14,-29
9,-29,-39,9,24,-34,-39,-43,-14,-4,-14,-29
4,-34,-39,14,21,-36,-34,-48,-19,-19,-19,-29
0,-34,-34,17,17,-34,-34,-48,-19,-24,-24,-34
-4,-39,-34,21,14,-36,-34,-53,-24,-29,-29,-39
-4,-39,-34,21,14,-36,-34,-53,-34,-34,-29,-39
-9,-39,-29,24,9,-34,-29,-58,-39,-34,-34,-43
-9,-43,-34,26,12,-39,-29,-53,-39,-34,-34,-43
-9,-43,-34,26,12,-39,-24,-53,-39,-39,-43,-48
-14,-48,-34,31,9,-41,-29,-53,-43,-43,-48,-53
-14,-48,-34,31,9,-41,-34,-53,-48,-48,-48,-53
-19,-48,-29,34,4,-39,-34,-53,-53,-53,-48,-53
-19,-48,-29,34,4,-39,-34,-53,-58,-58,-48,-53
-19,-53,-34,36,7,-43,-34,-58,-58,-58,-53,-58
-19,-53,-34,36,7,-43,-34,-58,-58,-58,-58,-58
-19,-53,-34,36,7,-43,-34,-58,-58,-58,-58,-53
-14,-53,-39,34,12,-46,-39,-58,-63,-58,-58,-48
-9,-48,-39,29,14,-43,-39,-63,-58,-58,-58,-48
-9,-48,-39,29,14,-43,-39,-68,-58,-58,-58,-48
-9,-48,-39,29,14,-43,-39,-68,-58,-58,-53,-48
-9,-48,-39,29,14,-43,-39,-68,-58,-58,-48,-48
-9,-48,-39,29,14,-43,-39,-68,-58,-58,-48,-48
-9,-48,-39,29,14,-43,-39,-68,-58,-58,-48,-48
-9,-48,-39,29,14,-43,-39,-68,-58,-58,-43,-53
-4,-48,-43,26,19,-46,-34,-63,-53,-53,-39,-53
-4,-48,-43,26,19,-46,-34,-63,-48,-53,-39,-53
4,-39,-43,17,24,-41,-34,-58,-39,-39,-29,-43
14,-14,-29,0,21,-21,-24,-43,-24,-29,-19,-34
14,-4,-19,-4,17,-12,-24,-39,-14,-24,-9,-29
19,14,-4,-17,12,4,-24,-39,-9,-14,0,-24
24,29,4,-26,9,17,-29,-39,-4,-14,0,-19
24,39,14,-31,4,26,-34,-43,-4,-4,0,-14
34,48,14,-41,9,31,-39,-43,9,4,4,-9
43,48,4,-46,19,26,-53,-39,19,9,14,-4
63,58,-4,-61,34,26,-87,-39,19,19,19,4
73,78,4,-75,34,41,-117,-53,19,19,24,14
82,78,-4,-80,43,36,-136,-73,9,19,24,19
97,92,-4,-95,51,43,-151,-87,4,19,29,19
126,102,-24,-114,75,39,-161,-87,4,24,39,29
151,102,-48,-126,100,26,-165,-78,9,34,43,39
175,107,-68,-141,122,19,-170,-78,9,39,58,48
161,112,-48,-136,104,31,-175,-97,-9,29,43,48
146,78,-68,-112,107,4,-161,-117,-34,9,24,39
131,63,-68,-97,100,-2,-156,-122,-43,-4,19,29
112,43,-68,-78,90,-12,-141,-126,-48,-4,9,19
68,19,-48,-43,58,-14,-107,-112,-39,-4,4,4
34,0,-34,-17,34,-17,-78,-102,-39,-9,-4,-4
4,-29,-34,12,19,-31,-63,-97,-48,-29,-19,-19
-4,-48,-43,26,19,-46,-63,-87,-48,-34,-29,-34
0,-48,-48,24,24,-48,-63,-87,-48,-34,-29,-39
9,-58,-68,24,39,-63,-63,-87,-48,-34,-34,-39
9,-58,-68,24,39,-63,-63,-87,-53,-39,-34,-39
9,-63,-73,26,41,-68,-63,-87,-53,-39,-34,-39
4,-63,-68,29,36,-65,-63,-92,-53,-39,-34,-43
4,-68,-73,31,39,-70,-58,-97,-53,-39,-34,-43
4,-68,-73,31,39,-70,-58,-92,-43,-39,-34,-43
4,-68,-73,31,39,-70,-53,-82,-43,-34,-34,-43
4,-68,-73,31,39,-70,-53,-82,-43,-34,-34,-39
4,-68,-73,31,39,-70,-53,-82,-39,-34,-29,-39
4,-68,-73,31,39,-70,-48,-78,-39,-29,-29,-39
4,-73,-78,34,41,-75,-48,-78,-39,-29,-29,-39
4,-73,-78,34,41,-75,-43,-73,-34,-29,-29,-39
4,-68,-73,31,39,-70,-43,-73,-34,-24,-24,-39
4,-68,-73,31,39,-70,-43,-73,-34,-24,-24,-39
-9,-73,-63,41,26,-68,-29,-58,-24,-19,-24,-39
-24,-87,-63,56,19,-75,0,-24,-34,-34,-43,-48
-29,-97,-68,63,19,-82,48,73,24,-14,-39,-53
-48,-48,0,48,-24,-24,165,287,214,102,29,-29
34,43,9,-39,12,26,204,488,478,322,200,82
224,141,-82,-183,153,29,156,619,688,575,409,239
473,331,-141,-402,307,95,78,834,1019,917,692,453
741,619,-122,-680,431,248,0,1278,1488,1317,1029,722
1137,844,-292,-990,714,275,-253,1342,1825,1678,1351,966
1815,858,-956,-1337,1385,-48,-810,951,1922,1942,1625,1185
2235,1044,-1190,-1639,1712,-73,-1239,566,2239,2361,2020,1498
2059,1351,-707,-1705,1383,322,-1244,341,3045,3123,2605,1898
1825,1415,-409,-1620,1117,502,-1112,278,3494,3484,2859,2054
1659,1224,-434,-1442,1046,395,-980,253,3372,3279,2762,1976
1278,775,-502,-1027,890,136,-697,87,2371,2244,2010,1473
444,146,-297,-295,370,-75,-190,-317,605,610,663,527
-209,-263,-53,236,-78,-158,156,-473,-507,-400,-263,-180
-326,-317,9,322,-168,-153,263,-248,-507,-468,-375,-287
-312,-302,9,307,-161,-146,297,-122,-458,-444,-361,-283
-244,-253,-9,248,-117,-131,258,-9,-322,-336,-287,-229
-185,-209,-24,197,-80,-117,219,53,-229,-258,-234,-195
-175,-151,24,163,-100,-63,195,43,-195,-209,-185,-156
-170,-122,48,146,-109,-36,170,48,-170,-185,-161,-131
-170,-122,48,146,-109,-36,156,48,-156,-180,-161,-131
-161,-122,39,141,-100,-41,131,48,-141,-170,-161,-131
-146,-117,29,131,-87,-43,131,48,-136,-161,-146,-122
-141,-107,34,124,-87,-36,131,48,-131,-151,-136,-112
-141,-107,34,124,-87,-36,126,53,-126,-146,-131,-112
-141,-107,34,124,-87,-36,117,53,-122,-141,-126,-107
-141,-102,39,122,-90,-31,117,53,-117,-141,-126,-107
-136,-97,39,117,-87,-29,117,58,-117,-136,-126,-107
-136,-97,39,117,-87,-29,117,58,-112,-136,-126,-107
-141,-92,48,117,-95,-21,112,58,-112,-141,-131,-107
-141,-92,48,117,-95,-21,112,58,-107,-141,-131,-102
-136,-97,39,117,-87,-29,117,63,-107,-141,-131,-102
-136,-92,43,114,-90,-24,117,63,-107,-141,-126,-102
-141,-92,48,117,-95,-21,117,63,-102,-141,-122,-102
-151,-87,63,119,-107,-12,117,68,-102,-136,-122,-102
-156,-82,73,119,-114,-4,117,68,-102,-136,-122,-102
-156,-82,73,119,-114,-4,117,68,-102,-136,-126,-97
-165,-78,87,122,-126,4,117,68,-102,-136,-131,-97
-161,-73,87,117,-124,7,117,68,-107,-141,-131,-97
-156,-68,87,112,-122,9,117,68,-107,-141,-131,-102
-161,-63,97,112,-129,17,117,68,-107,-141,-131,-102
-165,-63,102,114,-134,19,122,73,-107,-141,-136,-102
-165,-63,102,114,-134,19,122,73,-112,-146,-131,-102
-165,-63,102,114,-134,19,122,73,-122,-151,-131,-102
-175,-68,107,122,-141,19,126,73,-131,-151,-136,-107
-180,-73,107,126,-143,17,126,68,-141,-156,-146,-107
-180,-73,107,126,-143,17,131,68,-146,-161,-146,-107
-185,-73,112,129,-148,19,131,68,-151,-170,-151,-112
-190,-73,117,131,-153,21,136,68,-161,-175,-151,-112
-200,-73,126,136,-163,26,141,68,-170,-185,-161,-112
-209,-73,136,141,-173,31,141,63,-185,-195,-165,-122
-214,-73,141,143,-178,34,146,53,-195,-209,-175,-131
-224,-73,151,148,-187,39,151,48,-214,-219,-185,-136
-234,-78,156,156,-195,39,156,39,-224,-239,-200,-136
-239,-78,161,158,-200,41,161,34,-239,-253,-214,-146
-248,-82,165,165,-207,41,161,24,-258,-268,-224,-161
-258,-82,175,170,-217,46,170,9,-287,-287,-239,-170
-278,-82,195,180,-236,56,175,0,-317,-307,-258,-175
-297,-87,209,192,-253,61,185,-14,-346,-336,-278,-185
-317,-92,224,204,-270,65,190,-29,-380,-366,-302,-204
-331,-102,229,217,-280,63,200,-48,-409,-390,-322,-219
-351,-112,239,231,-295,63,204,-68,-444,-419,-341,-224
-366,-117,248,241,-307,65,214,-87,-478,-444,-370,-244
-380,-126,253,253,-317,63,219,-112,-517,-483,-390,-253
-400,-126,273,263,-336,73,224,-131,-551,-512,-414,-273
-414,-131,283,273,-348,75,229,-151,-585,-541,-434,-287
-429,-136,292,283,-361,78,229,-170,-614,-570,-453,-292
-444,-136,307,290,-375,85,234,-185,-639,-590,-468,-307
-444,-141,302,292,-373,80,234,-200,-653,-614,-483,-317
-444,-141,302,292,-373,80,234,-209,-673,-629,-492,-322
-444,-146,297,295,-370,75,234,-219,-678,-639,-497,-322
-434,-151,283,292,-358,65,229,-219,-678,-644,-497,-317
-414,-151,263,283,-339,56,219,-214,-678,-639,-492,-322
-395,-146,248,270,-322,51,200,-200,-649,-610,-473,-312
-366,-146,219,256,-292,36,185,-185,-614,-585,-448,-292
-326,-146,180,236,-253,17,165,-170,-580,-546,-424,-278
-292,-136,156,214,-224,9,141,-151,-531,-497,-390,-248
-253,-126,126,190,-190,0,117,-131,-468,-444,-356,-224
-209,-112,97,161,-153,-7,97,-112,-405,-385,-312,-195
-175,-102,73,139,-124,-14,78,-87,-351,-331,-268,-165
-136,-92,43,114,-90,-24,53,-63,-292,-283,-229,-136
-112,-78,34,95,-73,-21,34,-48,-234,-234,-190,-112
-82,-68,14,75,-48,-26,19,-43,-190,-190,-156,-87
-53,-58,-4,56,-24,-31,4,-24,-141,-146,-122,-68
-24,-48,-24,36,0,-36,-4,-14,-112,-117,-97,-53
0,-39,-39,19,19,-39,-19,-4,-78,-87,-73,-39
19,-34,-53,7,36,-43,-29,4,-53,-58,-48,-24
24,-29,-53,2,39,-41,-34,9,-29,-29,-29,-9
29,-24,-53,-2,41,-39,-39,4,-9,-9,-14,0
34,-19,-53,-7,43,-36,-43,4,9,4,9,9
43,-19,-63,-12,53,-41,-48,4,24,19,14,19
48,-14,-63,-17,56,-39,-53,9,29,24,24,19
48,-14,-63,-17,56,-39,-53,9,34,29,29,19
53,-9,-63,-21,58,-36,-53,9,34,29,34,24
53,-14,-68,-19,61,-41,-48,9,39,39,29,24
53,-14,-68,-19,61,-41,-48,4,43,39,34,29
53,-14,-68,-19,61,-41,-53,4,43,39,34,29
53,-14,-68,-19,61,-41,-53,4,43,39,34,34
48,-14,-63,-17,56,-39,-48,4,34,39,34,34
48,-14,-63,-17,56,-39,-48,4,29,39,34,34
43,-14,-58,-14,51,-36,-48,0,29,39,34,29
43,-14,-58,-14,51,-36,-48,0,29,39,34,29
39,-14,-53,-12,46,-34,-48,-4,29,34,34,29
39,-14,-53,-12,46,-34,-43,-4,29,34,29,24
34,-14,-48,-9,41,-31,-43,-9,24,29,24,24
39,-19,-58,-9,48,-39,-43,-14,24,24,19,24
29,-19,-48,-4,39,-34,-39,-14,19,19,19,19
24,-19,-43,-2,34,-31,-39,-19,9,19,19,14
14,-24,-39,4,26,-31,-34,-24,0,9,14,14
9,-24,-34,7,21,-29,-34,-24,-4,4,4,9
4,-24,-29,9,17,-26,-34,-29,-9,4,4,4
0,-29,-29,14,14,-29,-29,-34,-14,-4,-4,0
0,-29,-29,14,14,-29,-29,-34,-24,0,-4,0
-4,-34,-29,19,12,-31,-24,-39,-29,-9,-9,0
-9,-34,-24,21,7,-29,-24,-39,-29,-14,-14,-4
-14,-39,-24,26,4,-31,-24,-43,-34,-19,-19,-9
-14,-39,-24,26,4,-31,-24,-43,-43,-29,-19,-9
-19,-39,-19,29,0,-29,-19,-48,-48,-34,-24,-14
-19,-43,-24,31,2,-34,-19,-48,-48,-34,-24,-14
-19,-43,-24,31,2,-34,-14,-53,-48,-39,-34,-19
-24,-48,-24,36,0,-36,-14,-58,-53,-43,-43,-24
-24,-48,-24,36,0,-36,-14,-63,-58,-48,-48,-24
-29,-48,-19,39,-4,-34,-14,-63,-63,-53,-48,-24
-29,-48,-19,39,-4,-34,-14,-63,-68,-58,-48,-24
-29,-53,-24,41,-2,-39,-19,-68,-68,-58,-48,-29
-29,-53,-24,41,-2,-39,-24,-68,-68,-58,-48,-29
-29,-53,-24,41,-2,-39,-24,-63,-68,-58,-48,-29
-24,-53,-29,39,2,-41,-24,-58,-73,-58,-48,-29
-24,-53,-29,39,2,-41,-29,-58,-73,-58,-48,-29
-24,-53,-29,39,2,-41,-29,-58,-73,-63,-48,-29
-19,-53,-34,36,7,-43,-29,-58,-68,-63,-48,-29
-19,-58,-39,39,9,-48,-29,-58,-68,-68,-48,-29
-19,-53,-34,36,7,-43,-34,-63,-68,-68,-48,-29
-19,-48,-29,34,4,-39,-39,-68,-68,-68,-48,-29
-19,-48,-29,34,4,-39,-39,-68,-68,-63,-48,-24
-19,-48,-29,34,4,-39,-39,-63,-68,-58,-48,-19
-19,-53,-34,36,7,-43,-39,-63,-68,-53,-48,-19
-14,-53,-39,34,12,-46,-34,-53,-58,-43,-48,-14
-4,-39,-34,21,14,-36,-34,-48,-43,-29,-39,-9
4,-14,-19,4,12,-17,-24,-39,-29,-19,-29,-4
4,-4,-9,0,7,-7,-24,-39,-24,-14,-19,0
9,9,0,-9,4,4,-24,-39,-19,-4,-9,4
14,19,4,-17,4,12,-24,-39,-14,-4,-9,9
14,29,14,-21,0,21,-29,-43,-14,4,-4,14
24,39,14,-31,4,26,-39,-43,0,14,4,19
34,43,9,-39,12,26,-53,-39,9,19,14,24
53,58,4,-56,24,31,-87,-39,9,29,19,34
63,78,14,-70,24,46,-117,-53,9,29,24,43
73,78,4,-75,34,41,-141,-73,0,29,24,48
87,87,0,-87,43,43,-161,-87,-4,29,29,48
117,97,-19,-107,68,39,-170,-87,-4,34,43,58
136,102,-34,-119,85,34,-170,-78,0,39,48,68
161,112,-48,-136,104,31,-175,-78,0,39,63,82
146,117,-29,-131,87,43,-180,-97,-19,29,53,78
126,78,-48,-102,87,14,-161,-122,-43,9,34,58
112,63,-48,-87,80,7,-156,-126,-48,-4,29,48
107,43,-63,-75,85,-9,-141,-126,-48,-4,19,39
78,19,-58,-48,68,-19,-112,-112,-39,-4,14,24
29,0,-29,-14,29,-14,-87,-102,-39,-9,0,14
-4,-24,-19,14,7,-21,-73,-102,-48,-24,-14,4
-9,-43,-34,26,12,-39,-68,-97,-48,-29,-19,-4
-9,-48,-39,29,14,-43,-63,-97,-48,-34,-19,-9
0,-58,-58,29,29,-58,-63,-92,-48,-34,-24,-14
0,-58,-58,29,29,-58,-63,-87,-53,-39,-24,-19
0,-63,-63,31,31,-63,-63,-87,-53,-39,-24,-19
-4,-63,-58,34,26,-61,-63,-87,-53,-39,-24,-24
-4,-68,-63,36,29,-65,-58,-87,-58,-39,-24,-24
-4,-68,-63,36,29,-65,-58,-82,-53,-39,-24,-24
-4,-68,-63,36,29,-65,-53,-73,-53,-34,-24,-24
-4,-68,-63,36,29,-65,-53,-73,-53,-34,-24,-19
-4,-68,-63,36,29,-65,-53,-73,-48,-34,-19,-19
-4,-68,-63,36,29,-65,-48,-68,-48,-29,-19,-19
0,-73,-73,36,36,-73,-48,-68,-48,-29,-19,-19
4,-73,-78,34,41,-75,-43,-63,-43,-29,-19,-19
4,-68,-73,31,39,-70,-48,-68,-43,-24,-14,-19
4,-68,-73,31,39,-70,-53,-68,-39,-24,-14,-19
-9,-78,-68,43,29,-73,-43,-78,-39,-29,-24,-24
-19,-82,-63,51,21,-73,-4,-39,-29,-29,-34,-29
-48,-102,-53,75,2,-78,58,68,9,-39,-53,-53
-58,-63,-4,61,-26,-34,146,258,170,68,9,-29
19,19,0,-19,9,9,185,448,448,312,200,87
190,122,-68,-156,129,26,146,590,688,570,414,244
424,341,-82,-383,253,129,102,863,1058,936,717,483
692,595,-97,-644,395,248,9,1215,1483,1337,1049,751
1137,800,-336,-968,736,231,-278,1259,1776,1698,1371,995
1688,858,-829,-1273,1259,14,-712,990,1961,2025,1688,1234
2122,1102,-1019,-1612,1571,41,-1185,546,2366,2547,2176,1610
2059,1342,-717,-1700,1388,312,-1268,283,2981,3157,2664,1952
1830,1424,-405,-1627,1117,509,-1117,283,3586,3664,3020,2166
1620,1283,-336,-1451,978,473,-971,239,3528,3542,2962,2108
1200,751,-448,-976,824,151,-658,-9,2225,2196,2000,1483
527,200,-326,-363,427,-63,-234,-326,722,741,834,673
-170,-219,-48,195,-61,-134,122,-429,-390,-292,-156,-102
-385,-341,43,363,-214,-148,268,-278,-605,-556,-444,-341
-312,-297,14,305,-163,-141,278,-131,-473,-453,-361,-283
-253,-253,0,253,-126,-126,248,-9,-336,-351,-297,-229
-195,-209,-14,202,-90,-112,209,48,-244,-278,-244,-190
-175,-161,14,168,-95,-73,185,48,-200,-224,-195,-156
-170,-131,39,151,-104,-46,161,48,-175,-200,-175,-136
-170,-122,48,146,-109,-36,151,48,-161,-190,-170,-131
-161,-122,39,141,-100,-41,126,48,-151,-180,-170,-131
-151,-117,34,134,-92,-41,122,48,-146,-170,-156,-126
-146,-107,39,126,-92,-34,122,43,-141,-161,-141,-122
-141,-107,34,124,-87,-36,117,43,-136,-161,-136,-122
-141,-107,34,124,-87,-36,107,43,-126,-156,-136,-112
-141,-107,34,124,-87,-36,107,43,-117,-151,-136,-107
-136,-102,34,119,-85,-34,107,48,-117,-146,-136,-107
-136,-97,39,117,-87,-29,107,48,-112,-141,-131,-107
-146,-92,53,119,-100,-19,102,48,-117,-141,-131,-112
-151,-87,63,119,-107,-12,102,48,-117,-141,-131,-112
-146,-87,58,117,-102,-14,102,53,-117,-141,-131,-112
-146,-82,63,114,-104,-9,97,53,-117,-141,-131,-112
-146,-82,63,114,-104,-9,97,53,-112,-146,-136,-112
-146,-78,68,112,-107,-4,97,58,-112,-146,-141,-112
-146,-78,68,112,-107,-4,97,58,-112,-146,-141,-112
-146,-82,63,114,-104,-9,97,58,-112,-146,-141,-107
-156,-78,78,117,-117,0,97,58,-112,-146,-136,-107
-156,-78,78,117,-117,0,97,58,-117,-151,-131,-107
-156,-78,78,117,-117,0,102,53,-117,-151,-131,-112
-161,-73,87,117,-124,7,107,48,-117,-151,-131,-112
-165,-73,92,119,-129,9,112,53,-117,-151,-136,-112
-165,-73,92,119,-129,9,112,53,-122,-156,-136,-112
-165,-73,92,119,-129,9,107,53,-126,-161,-141,-112
-175,-73,102,124,-139,14,107,53,-131,-165,-146,-117
-180,-73,107,126,-143,17,107,48,-141,-170,-156,-117
-180,-73,107,126,-143,17,112,48,-146,-170,-156,-117
-180,-73,107,126,-143,17,112,48,-156,-180,-161,-122
-180,-73,107,126,-143,17,117,43,-170,-185,-165,-126
-190,-73,117,131,-153,21,122,39,-180,-195,-180,-126
-200,-73,126,136,-163,26,122,34,-195,-204,-185,-131
-204,-73,131,139,-168,29,126,24,-204,-219,-195,-141
-214,-73,141,143,-178,34,131,19,-229,-229,-204,-146
-224,-78,146,151,-185,34,131,9,-244,-248,-219,-146
-234,-78,156,156,-195,39,136,4,-263,-268,-234,-156
-248,-82,165,165,-207,41,141,-4,-287,-287,-244,-170
-258,-87,170,173,-214,41,151,-24,-317,-312,-258,-180
-273,-92,180,183,-226,43,156,-39,-341,-331,-278,-185
-287,-97,190,192,-239,46,165,-58,-370,-356,-297,-195
-307,-97,209,202,-258,56,170,-78,-409,-385,-317,-214
-322,-102,219,212,-270,58,180,-97,-444,-414,-336,-234
-341,-112,229,226,-285,58,185,-117,-483,-448,-361,-244
-356,-117,239,236,-297,61,195,-136,-517,-473,-390,-263
-370,-126,244,248,-307,58,200,-161,-556,-512,-409,-273
-390,-131,258,261,-324,63,204,-180,-590,-541,-434,-292
-405,-141,263,273,-334,61,209,-200,-624,-570,-453,-307
-419,-146,273,283,-346,63,209,-219,-653,-600,-473,-312
-434,-146,287,290,-361,70,214,-234,-683,-624,-492,-326
-434,-151,283,292,-358,65,214,-248,-702,-649,-512,-336
-434,-151,283,292,-358,65,219,-258,-722,-663,-522,-341
-434,-156,278,295,-356,61,219,-268,-727,-673,-527,-341
-429,-161,268,295,-348,53,209,-273,-727,-673,-531,-336
-409,-161,248,285,-329,43,200,-273,-722,-668,-527,-336
-390,-156,234,273,-312,39,180,-258,-697,-644,-507,-331
-366,-151,214,258,-290,31,165,-239,-663,-619,-488,-317
-331,-151,180,241,-256,14,151,-219,-619,-580,-463,-297
-297,-146,151,222,-224,2,131,-195,-566,-536,-419,-268
-253,-136,117,195,-185,-9,107,-165,-497,-483,-375,-244
-209,-122,87,165,-148,-17,87,-141,-429,-419,-331,-214
-175,-112,63,143,-119,-24,68,-117,-370,-361,-287,-185
-136,-102,34,119,-85,-34,43,-92,-312,-312,-248,-161
-112,-87,24,100,-68,-31,24,-73,-253,-263,-209,-136
-82,-78,4,80,-43,-36,9,-63,-209,-219,-175,-107
-53,-68,-14,61,-19,-41,-4,-43,-156,-170,-141,-87
-29,-58,-29,43,0,-43,-14,-34,-122,-136,-117,-73
-9,-48,-39,29,14,-43,-29,-24,-82,-107,-92,-58
9,-43,-53,17,31,-48,-39,-14,-53,-78,-68,-43
14,-34,-48,9,31,-41,-43,-9,-29,-48,-48,-34
24,-24,-48,0,36,-36,-48,-9,-14,-29,-39,-29
34,-19,-53,-7,43,-36,-48,-4,0,-9,-14,-19
43,-19,-63,-12,53,-41,-48,-4,14,9,-4,-9
48,-14,-63,-17,56,-39,-53,0,24,14,4,-4
48,-14,-63,-17,56,-39,-53,0,34,19,9,0
53,-9,-63,-21,58,-36,-53,0,34,19,14,4
53,-9,-63,-21,58,-36,-53,0,39,29,14,4
53,-9,-63,-21,58,-36,-58,-4,43,29,24,4
53,-14,-68,-19,61,-41,-63,-4,43,29,24,0
53,-14,-68,-19,61,-41,-63,-4,43,29,19,4
48,-14,-63,-17,56,-39,-58,-4,39,29,14,4
48,-14,-63,-17,56,-39,-58,-4,34,29,14,4
43,-14,-58,-14,51,-36,-58,-9,29,29,14,0
43,-14,-58,-14,51,-36,-58,-9,29,29,14,0
39,-14,-53,-12,46,-34,-58,-14,24,24,14,0
39,-14,-53,-12,46,-34,-53,-14,19,24,9,-4
29,-14,-43,-7,36,-29,-53,-19,14,19,4,-4
29,-19,-48,-4,39,-34,-53,-24,19,14,0,-4
19,-19,-39,0,29,-29,-48,-24,19,9,0,-9
14,-19,-34,2,24,-26,-48,-29,9,9,4,-14
9,-24,-34,7,21,-29,-43,-34,4,0,4,-14
9,-24,-34,7,21,-29,-43,-34,4,-4,-4,-19
4,-24,-29,9,17,-26,-43,-39,0,-4,-4,-24
0,-29,-29,14,14,-29,-39,-43,-4,-14,-14,-34
0,-29,-29,14,14,-29,-39,-43,-14,-14,-14,-39
-4,-34,-29,19,12,-31,-34,-48,-19,-29,-19,-39
-9,-34,-24,21,7,-29,-34,-48,-19,-34,-24,-43
-14,-39,-24,26,4,-31,-34,-53,-24,-43,-34,-48
-14,-39,-24,26,4,-31,-34,-53,-34,-53,-39,-48
-19,-39,-19,29,0,-29,-29,-58,-39,-53,-43,-48
-19,-43,-24,31,2,-34,-29,-58,-39,-53,-43,-43
-19,-43,-24,31,2,-34,-24,-63,-39,-53,-53,-48
-24,-48,-24,36,0,-36,-24,-63,-43,-53,-58,-53
-19,-48,-29,34,4,-39,-24,-63,-48,-58,-58,-53
-19,-48,-29,34,4,-39,-24,-63,-53,-63,-58,-53
-19,-48,-29,34,4,-39,-24,-58,-58,-68,-58,-53
-19,-53,-34,36,7,-43,-24,-58,-58,-68,-63,-58
-19,-53,-34,36,7,-43,-24,-58,-58,-68,-68,-58
-19,-53,-34,36,7,-43,-24,-58,-58,-68,-68,-58
-14,-53,-39,34,12,-46,-24,-58,-63,-68,-68,-58
-14,-53,-39,34,12,-46,-29,-58,-63,-68,-68,-58
-9,-53,-43,31,17,-48,-29,-63,-63,-68,-68,-58
-9,-58,-48,34,19,-53,-29,-68,-68,-68,-68,-58
-9,-53,-43,31,17,-48,-29,-68,-68,-68,-68,-58
-9,-48,-39,29,14,-43,-29,-68,-68,-68,-68,-58
-9,-48,-39,29,14,-43,-34,-68,-68,-68,-63,-58
-9,-48,-39,29,14,-43,-34,-68,-68,-68,-58,-58
-9,-48,-39,29,14,-43,-39,-68,-68,-68,-58,-63
-4,-43,-39,24,17,-41,-34,-63,-58,-63,-58,-63
4,-34,-39,14,21,-36,-34,-53,-43,-48,-48,-53
14,-14,-29,0,21,-21,-24,-39,-29,-39,-39,-43
14,-4,-19,-4,17,-12,-24,-39,-24,-34,-29,-39
19,9,-9,-14,14,0,-24,-39,-19,-24,-19,-34
24,19,-4,-21,14,7,-24,-39,-14,-24,-19,-29
24,29,4,-26,9,17,-29,-43,-14,-14,-14,-24
34,39,4,-36,14,21,-34,-43,4,-4,-4,-19
43,43,0,-43,21,21,-43,-39,19,0,4,-14
63,58,-4,-61,34,26,-78,-39,19,9,9,-4
73,78,4,-75,34,41,-107,-53,19,9,14,4
78,78,0,-78,39,39,-131,-73,4,9,14,9
87,87,0,-87,43,43,-151,-87,-4,9,19,9
117,97,-19,-107,68,39,-165,-87,-4,14,29,19
136,102,-34,-119,85,34,-170,-78,0,19,29,29
165,107,-58,-136,112,24,-175,-78,4,29,39,43
156,107,-48,-131,102,29,-180,-97,-9,29,24,39
136,68,-68,-102,102,0,-161,-122,-34,9,4,19
122,53,-68,-87,95,-7,-156,-126,-39,-4,0,9
102,34,-68,-68,85,-17,-141,-126,-43,-9,-9,0
58,9,-48,-34,53,-19,-112,-112,-39,-14,-14,-14
14,-9,-24,-2,19,-17,-82,-102,-39,-19,-24,-24
-14,-34,-19,24,2,-26,-63,-102,-48,-34,-34,-34
-14,-48,-34,31,9,-41,-63,-97,-48,-39,-39,-48
-9,-48,-39,29,14,-43,-63,-97,-48,-43,-39,-58
0,-58,-58,29,29,-58,-63,-97,-48,-43,-43,-58
0,-58,-58,29,29,-58,-63,-97,-53,-48,-43,-58
0,-63,-63,31,31,-63,-63,-97,-53,-48,-43,-58
-4,-63,-58,34,26,-61,-63,-97,-53,-48,-43,-63
-4,-68,-63,36,29,-65,-58,-97,-53,-43,-43,-58
-4,-68,-63,36,29,-65,-58,-92,-43,-39,-43,-53
0,-68,-68,34,34,-68,-53,-82,-43,-34,-43,-53
4,-68,-73,31,39,-70,-53,-82,-43,-34,-43,-48
4,-68,-73,31,39,-70,-53,-82,-39,-34,-39,-53
4,-68,-73,31,39,-70,-48,-78,-39,-29,-39,-58
4,-73,-78,34,41,-75,-48,-78,-39,-29,-39,-58
4,-73,-78,34,41,-75,-43,-73,-34,-29,-39,-58
4,-68,-73,31,39,-70,-48,-78,-39,-29,-39,-58
4,-68,-73,31,39,-70,-53,-78,-39,-34,-43,-58
-14,-73,-58,43,21,-65,-43,-82,-39,-39,-48,-58
-29,-73,-43,51,7,-58,-4,-39,-29,-39,-53,-58
-53,-92,-39,73,-7,-65,58,73,9,-48,-73,-82
-58,-53,4,56,-31,-24,146,268,170,58,-9,-58
24,29,4,-26,9,17,195,468,434,287,165,48
200,131,-68,-165,134,31,165,619,658,531,366,195
434,351,-82,-392,258,134,117,902,1029,883,658,424
702,605,-97,-653,400,253,19,1263,1454,1268,980,683
1151,810,-341,-980,746,234,-292,1293,1727,1595,1273,907
1708,868,-839,-1288,1273,14,-751,1010,1893,1888,1561,1127
2161,1112,-1049,-1637,1605,31,-1234,556,2298,2405,2044,1503
2117,1351,-766,-1734,1442,292,-1327,283,2913,3010,2527,1844
1883,1439,-444,-1661,1163,497,-1176,287,3567,3547,2903,2069
1668,1302,-366,-1485,1017,468,-1029,248,3557,3455,2864,2020
1254,766,-488,-1010,871,139,-697,14,2283,2166,1942,1424
585,209,-375,-397,480,-82,-253,-287,810,771,814,644
-141,-209,-68,175,-36,-139,117,-419,-341,-268,-165,-122
-385,-331,53,358,-219,-139,278,-297,-595,-536,-444,-351
-312,-283,29,297,-170,-126,287,-146,-463,-444,-361,-292
-253,-234,19,244,-136,-107,258,-19,-326,-351,-297,-239
-195,-190,4,192,-100,-92,219,39,-234,-278,-248,-204
-175,-141,34,158,-104,-53,195,39,-190,-224,-204,-175
-170,-122,48,146,-109,-36,165,39,-170,-204,-185,-156
-170,-122,48,146,-109,-36,151,39,-161,-200,-180,-151
-161,-122,39,141,-100,-41,131,39,-151,-190,-180,-151
-151,-117,34,134,-92,-41,131,39,-146,-180,-165,-146
-151,-102,48,126,-100,-26,131,39,-136,-165,-156,-141
-151,-97,53,124,-102,-21,126,43,-126,-161,-156,-141
-151,-97,53,124,-102,-21,112,43,-122,-161,-156,-136
-151,-97,53,124,-102,-21,107,43,-117,-161,-156,-136
-146,-97,48,122,-97,-24,107,48,-117,-156,-156,-136
-146,-97,48,122,-97,-24,107,48,-112,-151,-151,-136
-151,-92,58,122,-104,-17,102,48,-112,-151,-151,-136
-151,-87,63,119,-107,-12,102,48,-107,-151,-151,-131
-146,-87,58,117,-102,-14,107,53,-107,-151,-146,-131
-146,-82,63,114,-104,-9,107,53,-107,-151,-141,-131
-151,-82,68,117,-109,-7,107,53,-102,-151,-141,-131
-156,-78,78,117,-117,0,107,58,-102,-146,-141,-131
-156,-73,82,114,-119,4,107,58,-102,-146,-141,-131
-156,-73,82,114,-119,4,107,58,-102,-146,-141,-126
-161,-68,92,114,-126,12,107,58,-102,-146,-146,-126
-156,-68,87,112,-122,9,107,58,-107,-151,-151,-126
-156,-68,87,112,-122,9,107,58,-107,-151,-151,-131
-161,-63,97,112,-129,17,107,58,-107,-151,-151,-131
-165,-63,102,114,-134,19,112,63,-102,-151,-151,-131
-165,-63,102,114,-134,19,112,63,-102,-156,-146,-131
-165,-63,102,114,-134,19,112,63,-112,-161,-151,-131
-175,-63,112,119,-143,24,117,63,-122,-165,-156,-136
-180,-63,117,122,-148,26,117,58,-131,-175,-165,-136
-180,-63,117,122,-148,26,122,58,-136,-180,-165,-136
-185,-63,122,124,-153,29,122,58,-141,-190,-170,-136
-190,-63,126,126,-158,31,126,53,-151,-195,-175,-136
-200,-63,136,131,-168,36,136,53,-161,-200,-190,-141
-209,-63,146,136,-178,41,141,53,-175,-204,-195,-151
-214,-63,151,139,-183,43,146,43,-185,-214,-200,-161
-224,-63,161,143,-192,48,151,39,-209,-219,-204,-165
-234,-68,165,151,-200,48,151,29,-224,-239,-219,-165
-244,-68,175,156,-209,53,156,24,-244,-258,-234,-175
-258,-73,185,165,-222,56,161,19,-263,-278,-244,-190
-268,-78,190,173,-229,56,170,4,-287,-302,-258,-200
-287,-82,204,185,-246,61,175,-9,-312,-322,-273,-204
-307,-87,219,197,-263,65,185,-29,-341,-346,-287,-214
-326,-92,234,209,-280,70,190,-48,-380,-375,-312,-229
-341,-102,239,222,-290,68,200,-68,-414,-405,-336,-244
-361,-112,248,236,-305,68,204,-87,-453,-439,-356,-253
-375,-117,258,246,-317,70,214,-107,-488,-463,-380,-273
-390,-126,263,258,-326,68,219,-131,-527,-497,-400,-283
-409,-131,278,270,-344,73,224,-151,-561,-522,-424,-302
-424,-141,283,283,-353,70,229,-175,-595,-551,-444,-317
-439,-146,292,292,-366,73,229,-200,-624,-580,-463,-322
-458,-146,312,302,-385,82,239,-214,-649,-605,-483,-336
-463,-151,312,307,-387,80,244,-229,-663,-629,-502,-346
-463,-151,312,307,-387,80,244,-239,-688,-644,-517,-356
-463,-156,307,309,-385,75,239,-248,-697,-653,-527,-361
-458,-161,297,309,-378,68,234,-253,-702,-658,-531,-356
-439,-161,278,300,-358,58,229,-253,-702,-658,-527,-356
-414,-156,258,285,-336,51,209,-239,-678,-634,-502,-346
-385,-151,234,268,-309,41,195,-219,-644,-610,-478,-326
-346,-146,200,246,-273,26,170,-200,-605,-570,-458,-312
-307,-136,170,222,-239,17,141,-175,-556,-527,-419,-287
-263,-131,131,197,-197,0,117,-151,-488,-473,-375,-263
-219,-122,97,170,-158,-12,97,-131,-419,-409,-331,-234
-185,-112,73,148,-129,-19,78,-107,-366,-351,-292,-204
-146,-102,43,124,-95,-29,53,-82,-312,-302,-258,-180
-122,-82,39,102,-80,-21,29,-68,-253,-258,-219,-161
-92,-68,24,80,-58,-21,9,-63,-209,-219,-185,-136
-58,-58,0,58,-29,-29,-4,-43,-156,-175,-151,-117
-29,-48,-19,39,-4,-34,-14,-34,-122,-146,-126,-102
-9,-39,-29,24,9,-34,-29,-24,-82,-117,-102,-87
9,-34,-43,12,26,-39,-39,-14,-53,-87,-78,-73
14,-29,-43,7,29,-36,-43,-9,-29,-58,-58,-58
24,-24,-48,0,36,-36,-48,-9,-14,-39,-48,-48
34,-19,-53,-7,43,-36,-53,-4,0,-24,-24,-39
43,-19,-63,-12,53,-41,-58,-4,14,-9,-14,-29
48,-14,-63,-17,56,-39,-63,0,19,0,-4,-24
48,-14,-63,-17,56,-39,-63,0,24,9,0,-19
53,-9,-63,-21,58,-36,-63,0,24,9,4,-14
53,-9,-63,-21,58,-36,-63,0,29,19,4,-14
53,-4,-58,-24,56,-31,-68,-4,39,19,14,-9
53,-4,-58,-24,56,-31,-73,-4,43,19,14,-9
53,-9,-63,-21,58,-36,-73,-4,43,19,14,-4
48,-14,-63,-17,56,-39,-68,-4,39,19,14,-4
48,-14,-63,-17,56,-39,-68,-4,34,19,14,-4
43,-14,-58,-14,51,-36,-68,-9,29,19,14,-9
43,-14,-58,-14,51,-36,-68,-9,29,19,14,-9
39,-14,-53,-12,46,-34,-68,-14,24,14,14,-9
39,-14,-53,-12,46,-34,-63,-14,24,14,9,-14
29,-14,-43,-7,36,-29,-63,-19,24,9,4,-14
34,-19,-53,-7,43,-36,-63,-24,24,4,0,-14
29,-19,-48,-4,39,-34,-58,-24,19,0,0,-19
24,-19,-43,-2,34,-31,-58,-29,9,4,0,-24
19,-24,-43,2,31,-34,-53,-34,4,0,-4,-24
14,-19,-34,2,24,-26,-48,-34,4,-4,-14,-29
4,-14,-19,4,12,-17,-43,-39,0,-4,-14,-34
0,-19,-19,9,9,-19,-39,-43,-4,-14,-24,-39
0,-19,-19,9,9,-19,-39,-43,-14,-14,-24,-39
-4,-24,-19,14,7,-21,-34,-48,-19,-29,-29,-39
-9,-24,-14,17,2,-19,-34,-48,-19,-34,-34,-43
-14,-29,-14,21,0,-21,-34,-53,-24,-39,-39,-48
-14,-29,-14,21,0,-21,-34,-53,-34,-43,-39,-48
-19,-29,-9,24,-4,-19,-34,-58,-43,-48,-48,-53
-19,-34,-14,26,-2,-24,-39,-58,-48,-53,-53,-53
-19,-34,-14,26,-2,-24,-34,-63,-48,-58,-63,-58
-24,-39,-14,31,-4,-26,-34,-63,-53,-63,-68,-63
-24,-39,-14,31,-4,-26,-34,-63,-58,-63,-68,-63
-29,-39,-9,34,-9,-24,-34,-63,-63,-63,-68,-63
-29,-39,-9,34,-9,-24,-34,-58,-68,-68,-68,-63
-29,-43,-14,36,-7,-29,-34,-58,-68,-68,-73,-68
-29,-43,-14,36,-7,-29,-34,-58,-63,-68,-78,-68
-29,-43,-14,36,-7,-29,-34,-58,-58,-68,-78,-68
-24,-43,-19,34,-2,-31,-34,-58,-63,-68,-73,-68
-24,-43,-19,34,-2,-31,-39,-58,-63,-68,-68,-68
-24,-43,-19,34,-2,-31,-39,-58,-63,-73,-68,-68
-19,-43,-24,31,2,-34,-39,-58,-63,-68,-68,-68
-19,-43,-24,31,2,-34,-39,-58,-58,-68,-68,-68
-19,-48,-29,34,4,-39,-39,-58,-58,-68,-68,-68
-14,-48,-34,31,9,-41,-39,-58,-58,-68,-63,-63
-9,-48,-39,29,14,-43,-39,-58,-58,-68,-58,-58
-9,-48,-39,29,14,-43,-39,-58,-58,-68,-58,-58
-9,-48,-39,29,14,-43,-39,-58,-58,-68,-58,-58
-9,-48,-39,29,14,-43,-39,-58,-58,-68,-58,-58
-4,-43,-39,24,17,-41,-34,-53,-48,-63,-58,-53
4,-29,-34,12,19,-31,-34,-48,-39,-43,-48,-43
14,-4,-19,-4,17,-12,-24,-39,-29,-29,-39,-34
14,4,-9,-9,12,-2,-24,-39,-24,-24,-29,-29
19,19,0,-19,9,9,-24,-39,-19,-14,-19,-24
24,29,4,-26,9,17,-29,-39,-9,-19,-19,-19
24,39,14,-31,4,26,-39,-43,-4,-14,-14,-14
34,48,14,-41,9,31,-43,-43,9,-4,-4,-9
43,53,9,-48,17,31,-53,-39,19,0,4,-4
63,68,4,-65,29,36,-87,-39,14,14,9,4
73,87,14,-80,29,51,-117,-53,9,19,14,14
82,92,9,-87,36,51,-141,-73,0,19,14,19
97,107,9,-102,43,58,-161,-87,-4,19,19,19
126,112,-14,-119,70,48,-170,-87,-4,24,29,29
146,112,-34,-129,90,39,-170,-78,0,29,29,39
170,117,-53,-143,112,31,-175,-78,0,29,39,53
156,117,-39,-136,97,39,-180,-97,-19,19,24,48
136,78,-58,-107,97,9,-161,-122,-43,0,4,34
122,63,-58,-92,90,2,-156,-126,-48,-14,0,29
102,43,-58,-73,80,-7,-141,-126,-48,-14,-9,19
58,19,-39,-39,48,-9,-112,-112,-39,-14,-14,4
19,0,-19,-9,19,-9,-87,-102,-39,-19,-24,-4
-4,-24,-19,14,7,-21,-73,-102,-48,-34,-34,-14
-4,-39,-34,21,14,-36,-73,-97,-48,-34,-39,-29
0,-39,-39,19,19,-39,-73,-97,-48,-34,-39,-39
9,-48,-58,19,34,-53,-73,-97,-53,-34,-43,-39
9,-48,-58,19,34,-53,-73,-97,-63,-39,-43,-39
9,-53,-63,21,36,-58,-73,-97,-63,-43,-43,-39
4,-53,-58,24,31,-56,-73,-97,-63,-48,-43,-43
4,-58,-63,26,34,-61,-68,-97,-63,-48,-43,-39
4,-58,-63,26,34,-61,-68,-92,-53,-48,-43,-34
4,-58,-63,26,34,-61,-58,-82,-53,-43,-43,-34
4,-58,-63,26,34,-61,-53,-82,-53,-43,-43,-29
4,-58,-63,26,34,-61,-53,-82,-48,-43,-39,-29
4,-58,-63,26,34,-61,-48,-78,-48,-39,-39,-29
4,-63,-68,29,36,-65,-53,-82,-48,-39,-39,-29
4,-63,-68,29,36,-65,-53,-82,-43,-39,-39,-29
4,-58,-63,26,34,-61,-53,-82,-43,-34,-34,-29
4,-58,-63,26,34,-61,-53,-78,-39,-34,-34,-29
-9,-68,-58,39,24,-63,-43,-78,-43,-34,-34,-29
-19,-73,-53,46,17,-63,-4,-29,-39,-29,-34,-29
-43,-87,-43,65,0,-65,58,68,4,-34,-48,-48
-48,-43,4,46,-26,-19,146,248,170,78,19,-19
34,43,9,-39,12,26,180,448,439,307,200,97
209,151,-58,-180,134,46,136,600,668,551,405,253
444,370,-73,-407,258,148,87,868,1039,912,712,483
712,624,-87,-668,400,268,-9,1215,1464,1307,1049,741
1166,819,-346,-993,756,236,-297,1278,1771,1659,1351,976
1727,868,-858,-1298,1293,4,-732,1029,1971,1976,1649,1205
2176,1107,-1068,-1642,1622,19,-1210,570,2376,2503,2142,1586
2127,1342,-785,-1734,1456,278,-1298,292,2991,3118,2635,1932
1893,1444,-448,-1668,1171,497,-1151,273,3586,3616,2986,2147
1678,1322,-356,-1500,1017,483,-1010,209,3518,3484,2923,2088
1244,785,-458,-1015,851,163,-688,-43,2225,2176,1991,1483
556,229,-326,-392,441,-48,-253,-366,732,761,854,692
-161,-200,-39,180,-61,-119,112,-458,-395,-278,-146,-87
-395,-331,63,363,-229,-134,268,-297,-624,-546,-444,-331
-322,-283,39,302,-180,-122,283,-151,-492,-453,-361,-273
-263,-234,29,248,-146,-102,258,-29,-356,-361,-297,-219
-195,-190,4,192,-100,-92,219,39,-253,-283,-239,-180
-165,-141,24,153,-95,-58,195,48,-200,-224,-185,-146
-161,-112,48,136,-104,-31,170,48,-180,-200,-161,-122
-161,-102,58,131,-109,-21,161,48,-170,-190,-151,-112
-151,-102,48,126,-100,-26,131,48,-156,-180,-151,-112
-141,-97,43,119,-92,-26,122,48,-146,-170,-136,-107
-141,-87,53,114,-97,-17,122,48,-141,-161,-126,-102
-141,-87,53,114,-97,-17,117,53,-136,-161,-126,-102
-141,-87,53,114,-97,-17,107,53,-131,-161,-126,-97
-141,-87,53,114,-97,-17,107,53,-126,-161,-126,-97
-136,-87,48,112,-92,-19,107,58,-126,-156,-126,-97
-136,-87,48,112,-92,-19,107,58,-122,-151,-122,-97
-141,-82,58,112,-100,-12,97,58,-126,-151,-122,-97
-141,-78,63,109,-102,-7,92,58,-126,-151,-122,-92
-136,-78,58,107,-97,-9,97,63,-126,-151,-117,-87
-136,-73,63,104,-100,-4,97,63,-126,-151,-112,-82
-141,-73,68,107,-104,-2,97,58,-122,-146,-112,-82
-146,-68,78,107,-112,4,97,58,-122,-136,-112,-82
-146,-63,82,104,-114,9,97,58,-122,-136,-112,-82
-146,-63,82,104,-114,9,97,58,-122,-136,-112,-78
-156,-58,97,107,-126,19,102,63,-122,-141,-112,-82
-156,-58,97,107,-126,19,107,68,-126,-151,-112,-87
-156,-58,97,107,-126,19,107,68,-126,-151,-117,-92
-161,-53,107,107,-134,26,107,68,-126,-151,-122,-92
-165,-53,112,109,-139,29,112,68,-126,-151,-126,-92
-165,-53,112,109,-139,29,112,63,-131,-156,-126,-92
-165,-53,112,109,-139,29,112,63,-141,-161,-126,-92
-175,-53,122,114,-148,34,117,63,-151,-165,-126,-97
-180,-53,126,117,-153,36,117,58,-161,-170,-136,-97
-180,-53,126,117,-153,36,122,58,-165,-170,-136,-97
-185,-53,131,119,-158,39,122,58,-170,-180,-141,-102
-190,-53,136,122,-163,41,126,53,-180,-185,-146,-107
-195,-53,141,124,-168,43,126,48,-190,-195,-161,-107
-200,-53,146,126,-173,46,122,43,-204,-204,-165,-112
-204,-53,151,129,-178,48,126,39,-214,-219,-170,-122
-214,-53,161,134,-187,53,131,39,-239,-229,-175,-126
-229,-58,170,143,-200,56,141,29,-253,-248,-190,-126
-244,-58,185,151,-214,63,156,24,-273,-268,-204,-136
-258,-63,195,161,-226,65,161,19,-287,-283,-214,-151
-268,-68,200,168,-234,65,170,4,-307,-302,-229,-161
-283,-68,214,175,-248,73,175,-9,-331,-326,-248,-161
-297,-68,229,183,-263,80,185,-29,-361,-356,-268,-165
-317,-73,244,195,-280,85,190,-48,-400,-385,-292,-185
-331,-82,248,207,-290,82,200,-68,-434,-414,-317,-204
-351,-87,263,219,-307,87,204,-87,-473,-448,-341,-214
-366,-87,278,226,-322,95,214,-107,-507,-473,-370,-234
-385,-97,287,241,-336,95,219,-126,-546,-512,-390,-244
-409,-102,307,256,-358,102,224,-141,-580,-541,-414,-263
-424,-117,307,270,-366,95,229,-161,-614,-570,-439,-278
-439,-126,312,283,-375,92,229,-180,-644,-600,-463,-283
-458,-126,331,292,-395,102,234,-195,-678,-624,-478,-297
-463,-131,331,297,-397,100,234,-209,-702,-649,-492,-307
-463,-131,331,297,-397,100,239,-224,-722,-663,-507,-317
-463,-136,326,300,-395,95,239,-239,-727,-673,-517,-322
-453,-141,312,297,-383,85,229,-244,-732,-678,-522,-317
-429,-141,287,285,-358,73,219,-244,-732,-678,-517,-317
-405,-136,268,270,-336,65,200,-234,-712,-653,-492,-307
-375,-131,244,253,-309,56,185,-219,-683,-629,-468,-287
-341,-131,209,236,-275,39,165,-200,-639,-590,-444,-268
-307,-126,180,217,-244,26,141,-175,-585,-546,-400,-239
-263,-117,146,190,-204,14,117,-156,-517,-492,-356,-214
-219,-102,117,161,-168,7,97,-141,-448,-429,-312,-185
-185,-92,92,139,-139,0,78,-117,-390,-370,-268,-156
-146,-82,63,114,-104,-9,53,-92,-331,-322,-229,-131
-122,-68,53,95,-87,-7,34,-73,-273,-263,-185,-107
-92,-58,34,75,-63,-12,19,-63,-229,-209,-146,-78
-63,-48,14,56,-39,-17,4,-43,-170,-165,-107,-53
-39,-39,0,39,-19,-19,-4,-34,-131,-136,-78,-34
-14,-29,-14,21,0,-21,-19,-24,-92,-102,-53,-19
9,-24,-34,7,21,-29,-29,-14,-63,-68,-29,-4
14,-19,-34,2,24,-26,-39,-9,-39,-39,-4,9
24,-14,-39,-4,31,-26,-48,-9,-24,-19,9,19
34,-9,-43,-12,39,-26,-58,-4,-9,4,29,29
43,-9,-53,-17,48,-31,-68,-4,4,29,34,39
48,-4,-53,-21,51,-29,-73,-4,14,34,43,43
48,-4,-53,-21,51,-29,-73,-9,24,39,48,48
53,0,-53,-26,53,-26,-68,-9,24,39,53,53
53,0,-53,-26,53,-26,-63,-9,29,48,53,53
53,0,-53,-26,53,-26,-63,-9,34,48,63,58
53,-4,-58,-24,56,-31,-63,-4,34,48,63,58
53,-4,-58,-24,56,-31,-63,-4,34,48,63,63
48,-4,-53,-21,51,-29,-58,-4,29,48,63,63
48,-4,-53,-21,51,-29,-58,-4,29,48,63,58
43,-4,-48,-19,46,-26,-58,-9,29,48,63,48
48,-4,-53,-21,51,-29,-63,-9,29,48,63,48
48,-4,-53,-21,51,-29,-68,-14,24,43,63,48
48,-4,-53,-21,51,-29,-63,-14,19,43,58,43
39,-4,-43,-17,41,-24,-63,-19,14,39,53,43
39,-9,-48,-14,43,-29,-58,-24,14,34,48,43
29,-9,-39,-9,34,-24,-48,-24,9,29,48,39
24,-9,-34,-7,29,-21,-48,-29,0,29,48,34
19,-14,-34,-2,26,-24,-43,-34,-4,19,43,34
19,-14,-34,-2,26,-24,-43,-34,-4,14,34,29
14,-14,-29,0,21,-21,-43,-39,-9,14,34,24
9,-19,-29,4,19,-24,-39,-43,-14,4,24,19
9,-19,-29,4,19,-24,-39,-43,-24,4,24,19
4,-24,-29,9,17,-26,-34,-48,-29,-9,19,19
0,-24,-24,12,12,-24,-34,-48,-29,-14,14,14
-9,-29,-19,19,4,-24,-39,-53,-34,-19,9,9
-14,-29,-14,21,0,-21,-43,-53,-43,-24,9,9
-19,-29,-9,24,-4,-19,-39,-58,-48,-24,4,4
-19,-34,-14,26,-2,-24,-39,-58,-48,-24,4,4
-19,-34,-14,26,-2,-24,-34,-68,-48,-29,-9,0
-24,-39,-14,31,-4,-26,-34,-73,-53,-34,-19,-4
-19,-39,-19,29,0,-29,-34,-73,-58,-39,-19,-4
-19,-39,-19,29,0,-29,-34,-73,-63,-43,-19,-4
-19,-39,-19,29,0,-29,-34,-73,-68,-53,-19,-4
-19,-43,-24,31,2,-34,-34,-78,-68,-58,-24,-9
-24,-43,-19,34,-2,-31,-34,-78,-68,-58,-29,-14
-29,-43,-14,36,-7,-29,-34,-78,-68,-58,-29,-19
-24,-43,-19,34,-2,-31,-34,-78,-73,-58,-29,-19
-24,-43,-19,34,-2,-31,-39,-78,-73,-58,-29,-19
-14,-43,-29,29,7,-36,-39,-78,-68,-58,-34,-19
-9,-48,-39,29,14,-43,-39,-78,-68,-58,-39,-19
-9,-48,-39,29,14,-43,-43,-78,-68,-58,-39,-19
-9,-48,-39,29,14,-43,-48,-78,-68,-58,-39,-19
-9,-48,-39,29,14,-43,-48,-73,-68,-53,-34,-19
-9,-48,-39,29,14,-43,-48,-68,-68,-48,-29,-19
-9,-48,-39,29,14,-43,-48,-68,-68,-48,-29,-19
-4,-43,-39,24,17,-41,-43,-63,-63,-43,-29,-14
-4,-43,-39,24,17,-41,-43,-63,-58,-43,-29,-14
4,-29,-34,12,19,-31,-43,-58,-48,-29,-19,-4
14,-4,-19,-4,17,-12,-34,-48,-34,-24,-9,4
14,4,-9,-9,12,-2,-34,-48,-24,-24,0,9
19,19,0,-19,9,9,-34,-48,-19,-14,9,14
24,29,4,-26,9,17,-39,-48,-14,-14,9,19
24,39,14,-31,4,26,-43,-53,-14,-4,14,24
34,48,14,-41,9,31,-48,-53,0,4,24,29
39,53,14,-46,12,34,-63,-48,4,9,34,34
53,68,14,-61,19,41,-97,-48,0,19,39,43
63,87,24,-75,19,56,-126,-68,0,19,43,53
73,87,14,-80,29,51,-146,-92,-9,19,43,58
87,97,9,-92,39,53,-165,-107,-14,19,48,53
117,102,-14,-109,65,43,-180,-107,-14,24,58,58
141,102,-39,-122,90,31,-180,-92,-9,34,58,68
165,107,-58,-136,112,24,-180,-87,-9,39,68,78
146,107,-39,-126,92,34,-180,-107,-24,29,53,73
126,68,-58,-97,92,4,-161,-126,-43,9,34,58
112,53,-58,-82,85,-2,-156,-126,-48,-4,29,48
92,34,-58,-63,75,-12,-141,-126,-48,-4,19,39
48,9,-39,-29,43,-14,-112,-112,-39,-4,14,24
14,-9,-24,-2,19,-17,-87,-102,-39,-9,4,14
-9,-39,-29,24,9,-34,-73,-102,-48,-24,-9,4
-14,-58,-43,36,14,-51,-73,-97,-48,-24,-19,-4
-9,-58,-48,34,19,-53,-73,-97,-48,-24,-19,-9
0,-68,-68,34,34,-68,-73,-97,-48,-24,-24,-9
0,-68,-68,34,34,-68,-73,-92,-53,-34,-24,-14
0,-73,-73,36,36,-73,-73,-87,-53,-39,-24,-19
-4,-73,-68,39,31,-70,-68,-87,-53,-39,-24,-24
-4,-78,-73,41,34,-75,-58,-87,-53,-39,-24,-24
0,-78,-78,39,39,-78,-58,-82,-43,-34,-24,-24
4,-78,-82,36,43,-80,-53,-73,-43,-24,-24,-24
4,-78,-82,36,43,-80,-53,-73,-43,-24,-24,-19
4,-78,-82,36,43,-80,-53,-73,-39,-24,-19,-19
4,-78,-82,36,43,-80,-48,-68,-39,-19,-19,-19
4,-82,-87,39,46,-85,-48,-68,-39,-19,-19,-19
4,-82,-87,39,46,-85,-43,-63,-34,-19,-19,-19
4,-78,-82,36,43,-80,-43,-63,-34,-14,-14,-19
4,-78,-82,36,43,-80,-43,-63,-29,-19,-14,-19
-9,-82,-73,46,31,-78,-29,-48,-14,-19,-14,-19
-19,-87,-68,53,24,-78,14,9,0,-14,-24,-24
-19,-87,-68,53,24,-78,78,131,82,24,-9,-24
-14,-29,-14,21,0,-21,170,346,297,175,82,19
92,73,-19,-82,56,26,185,546,585,429,278,151
292,200,-92,-246,192,53,122,683,824,717,527,331
551,419,-131,-485,341,143,29,902,1185,1093,849,570
829,673,-156,-751,492,258,-82,1268,1634,1512,1200,849
1234,863,-370,-1049,802,246,-370,1254,1952,1893,1537,1102
1810,907,-902,-1359,1356,2,-863,854,2117,2230,1864,1351
2127,1122,-1005,-1625,1566,58,-1229,458,2503,2723,2313,1693
1932,1356,-575,-1644,1254,390,-1205,244,3191,3372,2815,2034
1678,1346,-331,-1512,1005,507,-1044,190,3523,3620,2986,2132
1478,1112,-366,-1295,922,373,-883,136,3176,3191,2713,1942
1063,619,-444,-841,753,87,-570,-58,1952,1932,1786,1327
307,48,-258,-178,283,-104,-107,-356,356,409,507,424
-268,-302,-34,285,-117,-168,195,-405,-585,-488,-351,-239
-341,-326,14,334,-178,-156,278,-190,-527,-497,-409,-307
-283,-283,0,283,-141,-141,287,-73,-419,-414,-341,-263
-224,-234,-9,229,-107,-122,248,19,-297,-322,-278,-209
-175,-190,-14,183,-80,-102,209,63,-219,-258,-234,-175
-165,-141,24,153,-95,-58,180,48,-190,-214,-185,-146
-161,-122,39,141,-100,-41,151,48,-170,-195,-161,-131
-161,-126,34,143,-97,-46,141,48,-156,-190,-161,-131
-151,-131,19,141,-85,-56,122,48,-141,-180,-161,-131
-141,-126,14,134,-78,-56,122,48,-136,-170,-146,-126
-141,-117,24,129,-82,-46,122,48,-131,-161,-136,-122
-141,-112,29,126,-85,-41,117,53,-126,-161,-141,-122
-141,-107,34,124,-87,-36,107,53,-122,-161,-146,-117
-141,-107,34,124,-87,-36,107,53,-117,-161,-146,-117
-136,-107,29,122,-82,-39,107,58,-117,-156,-146,-117
-136,-107,29,122,-82,-39,107,53,-112,-151,-141,-117
-141,-102,39,122,-90,-31,102,48,-112,-151,-141,-117
-141,-97,43,119,-92,-26,97,48,-107,-151,-141,-112
-136,-97,39,117,-87,-29,97,53,-107,-151,-141,-112
-136,-92,43,114,-90,-24,97,53,-107,-151,-141,-112
-141,-92,48,117,-95,-21,97,53,-102,-151,-141,-112
-146,-87,58,117,-102,-14,97,58,-107,-146,-146,-112
-146,-82,63,114,-104,-9,97,58,-112,-146,-151,-112
-146,-82,63,114,-104,-9,102,58,-112,-146,-151,-107
-156,-78,78,117,-117,0,107,58,-112,-146,-151,-107
-156,-78,78,117,-117,0,107,58,-117,-156,-151,-107
-156,-78,78,117,-117,0,107,58,-117,-161,-151,-112
-161,-73,87,117,-124,7,107,58,-117,-161,-151,-117
-165,-73,92,119,-129,9,112,63,-117,-161,-156,-122
-165,-73,92,119,-129,9,112,63,-117,-161,-156,-122
-165,-73,92,119,-129,9,112,63,-122,-161,-161,-122
-175,-73,102,124,-139,14,112,63,-131,-165,-165,-126
-180,-73,107,126,-143,17,107,58,-141,-175,-175,-126
-180,-73,107,126,-143,17,112,58,-151,-180,-175,-126
-185,-73,112,129,-148,19,112,58,-161,-190,-180,-131
-190,-73,117,131,-153,21,122,53,-170,-195,-185,-131
-200,-73,126,136,-163,26,131,48,-180,-204,-200,-131
-209,-73,136,141,-173,31,131,43,-195,-214,-204,-141
-214,-73,141,143,-178,34,136,34,-204,-229,-214,-151
-219,-73,146,146,-183,36,136,29,-234,-239,-224,-156
-224,-78,146,151,-185,34,136,19,-253,-258,-239,-156
-234,-78,156,156,-195,39,146,14,-273,-278,-253,-165
-248,-82,165,165,-207,41,151,4,-297,-297,-263,-180
-258,-87,170,173,-214,41,161,-14,-326,-326,-278,-195
-278,-92,185,185,-231,46,165,-29,-356,-356,-297,-204
-297,-97,200,197,-248,51,175,-53,-390,-385,-317,-214
-317,-102,214,209,-265,56,180,-78,-429,-414,-341,-234
-331,-112,219,222,-275,53,190,-97,-463,-444,-366,-253
-351,-122,229,236,-290,53,195,-117,-502,-478,-390,-263
-366,-126,239,246,-302,56,204,-136,-536,-502,-419,-283
-380,-136,244,258,-312,53,209,-161,-575,-541,-439,-292
-400,-141,258,270,-329,58,214,-180,-614,-570,-463,-307
-414,-151,263,283,-339,56,219,-200,-653,-600,-483,-317
-429,-156,273,292,-351,58,219,-219,-683,-629,-507,-322
-444,-156,287,300,-366,65,224,-234,-707,-649,-527,-336
-444,-161,283,302,-363,61,224,-248,-727,-673,-541,-351
-444,-161,283,302,-363,61,224,-258,-751,-688,-551,-361
-444,-165,278,305,-361,56,219,-273,-756,-692,-561,-361
-434,-170,263,302,-348,46,209,-278,-756,-692,-566,-356
-414,-170,244,292,-329,36,200,-273,-751,-688,-556,-361
-395,-165,229,280,-312,31,180,-258,-717,-658,-531,-351
-366,-161,204,263,-285,21,165,-234,-668,-629,-507,-326
-326,-156,170,241,-248,7,146,-209,-619,-585,-483,-307
-287,-146,141,217,-214,-2,126,-180,-566,-536,-434,-278
-244,-136,107,190,-175,-14,107,-151,-497,-483,-385,-253
-200,-122,78,161,-139,-21,87,-131,-429,-419,-341,-224
-165,-112,53,139,-109,-29,68,-107,-370,-361,-297,-195
-126,-102,24,114,-75,-39,43,-82,-307,-302,-258,-165
-102,-87,14,95,-58,-36,24,-68,-244,-244,-219,-141
-78,-78,0,78,-39,-39,9,-63,-195,-200,-185,-117
-53,-68,-14,61,-19,-41,-4,-43,-141,-156,-151,-97
-29,-58,-29,43,0,-43,-14,-34,-112,-126,-122,-82
-9,-48,-39,29,14,-43,-29,-24,-78,-97,-92,-68
14,-43,-58,14,36,-51,-39,-14,-48,-68,-68,-53
24,-39,-63,7,43,-51,-43,-9,-19,-39,-48,-39
34,-29,-63,-2,48,-46,-48,-9,-4,-19,-34,-29
43,-19,-63,-12,53,-41,-53,-4,9,-4,-9,-19
53,-19,-73,-17,63,-46,-58,-4,24,9,-4,-9
58,-14,-73,-21,65,-43,-63,0,29,14,4,-9
58,-14,-73,-21,65,-43,-63,0,34,24,9,-9
63,-9,-73,-26,68,-41,-63,0,34,29,14,-4
63,-9,-73,-26,68,-41,-63,0,39,39,14,0
63,-4,-68,-29,65,-36,-68,-4,43,39,24,9
63,-4,-68,-29,65,-36,-73,-4,43,39,19,9
63,-4,-68,-29,65,-36,-73,-4,43,39,14,14
58,-4,-63,-26,61,-34,-68,-4,39,39,14,9
58,-4,-63,-26,61,-34,-68,-4,39,39,14,4
53,-4,-58,-24,56,-31,-63,-9,39,39,14,0
53,-4,-58,-24,56,-31,-58,-9,39,39,14,0
48,-9,-58,-19,53,-34,-58,-14,34,34,14,0
48,-14,-63,-17,56,-39,-53,-14,29,34,9,-4
39,-14,-53,-12,46,-34,-53,-14,24,24,4,-4
39,-19,-58,-9,48,-39,-53,-14,24,14,0,-4
29,-19,-48,-4,39,-34,-48,-14,19,9,0,-4
24,-19,-43,-2,34,-31,-48,-19,9,9,0,-4
19,-24,-43,2,31,-34,-43,-29,4,4,-4,-4
19,-24,-43,2,31,-34,-43,-34,4,4,-14,-9
14,-19,-34,2,24,-26,-43,-39,0,4,-14,-19
9,-19,-29,4,19,-24,-39,-43,-4,-4,-24,-29
9,-19,-29,4,19,-24,-43,-43,-14,-4,-24,-29
4,-24,-29,9,17,-26,-43,-48,-19,-19,-29,-29
0,-29,-29,14,14,-29,-43,-48,-19,-24,-34,-34
-4,-39,-34,21,14,-36,-43,-53,-24,-29,-39,-39
-4,-39,-34,21,14,-36,-43,-53,-34,-34,-39,-39
-9,-39,-29,24,9,-34,-39,-58,-39,-34,-43,-43
-9,-43,-34,26,12,-39,-39,-58,-39,-34,-39,-43
-9,-43,-34,26,12,-39,-34,-63,-39,-39,-43,-48
-14,-48,-34,31,9,-41,-34,-63,-43,-43,-48,-53
-14,-48,-34,31,9,-41,-34,-63,-48,-48,-48,-53
-19,-48,-29,34,4,-39,-34,-63,-53,-53,-48,-53
-19,-48,-29,34,4,-39,-34,-63,-58,-58,-48,-53
-19,-48,-29,34,4,-39,-34,-68,-58,-58,-53,-58
-19,-43,-24,31,2,-34,-34,-68,-58,-58,-58,-58
-14,-43,-29,29,7,-36,-34,-68,-58,-58,-58,-58
-9,-48,-39,29,14,-43,-39,-68,-58,-58,-58,-58
-9,-48,-39,29,14,-43,-39,-68,-58,-58,-58,-58
-9,-48,-39,29,14,-43,-39,-68,-58,-58,-58,-58
-9,-53,-43,31,17,-48,-39,-68,-58,-58,-58,-58
-9,-58,-48,34,19,-53,-39,-68,-58,-58,-58,-58
-9,-58,-48,34,19,-53,-39,-68,-58,-58,-58,-58
-4,-53,-48,29,21,-51,-34,-63,-53,-58,-58,-53
-4,-53,-48,29,21,-51,-34,-63,-48,-58,-63,-53
4,-39,-43,17,24,-41,-34,-58,-39,-48,-58,-43
14,-14,-29,0,21,-21,-24,-48,-29,-39,-48,-34
14,-4,-19,-4,17,-12,-24,-48,-24,-34,-39,-29
19,9,-9,-14,14,0,-19,-48,-19,-24,-29,-24
24,19,-4,-21,14,7,-19,-48,-14,-24,-29,-19
24,29,4,-26,9,17,-29,-53,-14,-9,-24,-14
34,39,4,-36,14,21,-39,-53,0,4,-14,-9
43,43,0,-43,21,21,-53,-48,9,9,-4,-4
63,58,-4,-61,34,26,-87,-48,9,19,0,4
73,78,4,-75,34,41,-117,-63,9,19,4,14
82,78,-4,-80,43,36,-136,-82,0,19,4,19
97,87,-9,-92,53,39,-156,-97,-4,19,9,19
126,92,-34,-109,80,29,-170,-97,-4,24,19,29
146,97,-48,-122,97,24,-170,-82,0,29,29,39
165,107,-58,-136,112,24,-170,-78,0,29,48,48
156,112,-43,-134,100,34,-175,-97,-19,19,34,39
146,78,-68,-112,107,4,-161,-117,-43,0,14,19
131,63,-68,-97,100,-2,-156,-122,-48,-14,9,9
112,43,-68,-78,90,-12,-141,-126,-48,-14,0,0
63,19,-43,-41,53,-12,-107,-112,-39,-14,-4,-14
24,0,-24,-12,24,-12,-78,-102,-39,-19,-14,-24
0,-29,-29,14,14,-29,-63,-102,-48,-34,-29,-34
-4,-48,-43,26,19,-46,-63,-97,-48,-34,-39,-43
0,-48,-48,24,24,-48,-58,-97,-48,-34,-39,-48
9,-58,-68,24,39,-63,-53,-97,-48,-34,-43,-48
9,-58,-68,24,39,-63,-53,-97,-53,-39,-43,-48
9,-63,-73,26,41,-68,-53,-97,-53,-39,-43,-48
4,-63,-68,29,36,-65,-53,-97,-53,-39,-43,-53
4,-68,-73,31,39,-70,-48,-97,-53,-39,-43,-53
4,-68,-73,31,39,-70,-53,-92,-43,-39,-43,-53
4,-68,-73,31,39,-70,-53,-82,-43,-34,-43,-53
4,-68,-73,31,39,-70,-53,-78,-43,-34,-43,-48
4,-68,-73,31,39,-70,-53,-73,-39,-34,-39,-48
4,-68,-73,31,39,-70,-48,-68,-39,-29,-39,-48
4,-73,-78,34,41,-75,-48,-68,-39,-29,-39,-48
4,-73,-78,34,41,-75,-43,-68,-34,-29,-39,-48
4,-68,-73,31,39,-70,-43,-73,-34,-24,-34,-48
4,-68,-73,31,39,-70,-43,-73,-34,-24,-34,-48
-9,-73,-63,41,26,-68,-29,-58,-24,-19,-34,-48
-24,-78,-53,51,14,-65,4,0,-19,-24,-48,-53
-29,-78,-48,53,9,-63,58,122,53,4,-39,-53
-29,-29,0,29,-14,-14,170,336,263,141,48,-14
73,63,-9,-68,41,26,204,536,546,380,239,112
278,175,-102,-226,190,36,146,688,780,649,458,278
541,380,-161,-461,351,109,58,922,1137,1005,751,502
824,658,-165,-741,495,246,-58,1283,1561,1400,1088,766
1234,873,-361,-1054,797,256,-351,1263,1854,1756,1410,1005
1854,902,-951,-1378,1403,-24,-883,873,2000,2049,1698,1234
2215,1102,-1112,-1659,1664,-4,-1288,488,2366,2498,2108,1556
2015,1366,-649,-1690,1332,358,-1259,278,3113,3191,2649,1917
1756,1385,-370,-1571,1063,507,-1093,229,3503,3484,2859,2034
1556,1156,-400,-1356,978,378,-932,190,3245,3152,2654,1888
1141,668,-473,-905,807,97,-619,9,2108,1991,1795,1317
356,87,-268,-222,312,-90,-141,-341,448,453,527,419
-248,-273,-24,261,-112,-148,175,-444,-556,-458,-322,-239
-336,-307,29,322,-183,-139,268,-219,-512,-478,-395,-317
-292,-273,19,283,-156,-126,287,-92,-419,-405,-341,-283
-234,-224,9,229,-122,-107,248,4,-297,-312,-278,-229
-185,-180,4,183,-95,-87,209,53,-219,-248,-234,-195
-175,-131,43,153,-109,-43,185,39,-190,-204,-190,-165
-170,-112,58,141,-114,-26,161,39,-170,-185,-170,-151
-170,-112,58,141,-114,-26,151,39,-161,-180,-170,-151
-161,-112,48,136,-104,-31,131,39,-151,-170,-170,-151
-146,-107,39,126,-92,-34,126,39,-141,-161,-156,-141
-141,-97,43,119,-92,-26,122,39,-131,-151,-146,-131
-141,-97,43,119,-92,-26,117,43,-126,-151,-146,-131
-141,-97,43,119,-92,-26,107,43,-122,-151,-146,-126
-141,-97,43,119,-92,-26,107,43,-117,-151,-146,-126
-136,-97,39,117,-87,-29,107,48,-117,-146,-146,-126
-136,-97,39,117,-87,-29,107,48,-112,-141,-141,-126
-141,-92,48,117,-95,-21,102,48,-112,-141,-141,-126
-146,-87,58,117,-102,-14,102,48,-107,-141,-141,-122
-146,-87,58,117,-102,-14,107,53,-107,-141,-141,-122
-146,-82,63,114,-104,-9,112,58,-107,-141,-141,-122
-151,-82,68,117,-109,-7,117,63,-102,-141,-141,-122
-151,-78,73,114,-112,-2,117,68,-102,-136,-141,-122
-146,-73,73,109,-109,0,117,68,-102,-136,-141,-122
-146,-73,73,109,-109,0,117,68,-102,-136,-141,-117
-156,-68,87,112,-122,9,117,68,-102,-136,-141,-117
-156,-68,87,112,-122,9,117,68,-107,-141,-141,-117
-156,-68,87,112,-122,9,117,68,-107,-141,-141,-122
-165,-63,102,114,-134,19,117,68,-107,-141,-141,-122
-175,-63,112,119,-143,24,122,73,-107,-141,-146,-122
-175,-63,112,119,-143,24,122,73,-107,-146,-146,-122
-175,-63,112,119,-143,24,122,73,-112,-151,-151,-122
-185,-63,122,124,-153,29,126,73,-122,-156,-156,-126
-190,-63,126,126,-158,31,126,68,-131,-165,-165,-126
-190,-63,126,126,-158,31,131,68,-136,-170,-165,-126
-195,-63,131,129,-163,34,131,68,-141,-180,-170,-131
-200,-68,131,134,-165,31,136,63,-151,-180,-175,-136
-209,-73,136,141,-173,31,141,58,-161,-185,-190,-141
-219,-73,146,146,-183,36,141,58,-180,-195,-195,-151
-224,-73,151,148,-187,39,146,53,-195,-209,-204,-161
-229,-73,156,151,-192,41,151,48,-219,-219,-214,-165
-234,-78,156,156,-195,39,156,39,-234,-239,-229,-165
-244,-78,165,161,-204,43,165,34,-248,-258,-244,-175
-258,-82,175,170,-217,46,170,24,-268,-278,-253,-190
-273,-87,185,180,-229,48,180,4,-297,-302,-268,-200
-297,-92,204,195,-251,56,185,-9,-326,-326,-287,-204
-317,-97,219,207,-268,61,195,-29,-361,-356,-307,-209
-336,-102,234,219,-285,65,200,-48,-400,-385,-331,-224
-351,-112,239,231,-295,63,214,-68,-429,-414,-351,-244
-370,-122,248,246,-309,63,224,-87,-463,-448,-370,-253
-385,-126,258,256,-322,65,234,-107,-497,-473,-400,-273
-400,-136,263,268,-331,63,239,-131,-536,-512,-419,-283
-419,-141,278,280,-348,68,244,-151,-575,-541,-444,-302
-434,-151,283,292,-358,65,248,-170,-614,-570,-463,-317
-448,-156,292,302,-370,68,248,-190,-644,-600,-483,-322
-463,-156,307,309,-385,75,253,-204,-668,-619,-497,-336
-468,-161,307,314,-387,73,253,-224,-683,-639,-517,-351
-473,-161,312,317,-392,75,253,-239,-702,-649,-531,-361
-473,-165,307,319,-390,70,248,-248,-707,-658,-541,-361
-463,-170,292,317,-378,61,239,-248,-707,-663,-546,-356
-439,-175,263,307,-351,43,229,-244,-712,-658,-536,-361
-414,-175,239,295,-326,31,209,-229,-688,-629,-512,-351
-385,-170,214,278,-300,21,195,-209,-644,-605,-488,-326
-346,-165,180,256,-263,7,175,-190,-600,-566,-463,-307
-307,-156,151,231,-229,-2,151,-170,-551,-522,-419,-278
