I,II,III,aVR,aVL,aVF,V1,V2,V3,V4,V5,V6,
-39,-39,0,39,-19,-19,-87,-165,-78,-29,-9,-9
-39,-39,0,39,-19,-19,-82,-161,-68,-24,-9,-9
-39,-39,0,39,-19,-19,-78,-156,-58,-19,-9,-9
-39,-39,0,39,-19,-19,-78,-156,-58,-19,-14,-9
-39,-39,0,39,-19,-19,-78,-156,-58,-19,-19,-9
-43,-34,9,39,-26,-12,-82,-161,-63,-24,-19,-9
-48,-29,19,39,-34,-4,-87,-165,-68,-29,-19,-9
-48,-24,24,36,-36,0,-87,-165,-68,-29,-19,-14
-48,-19,29,34,-39,4,-87,-165,-68,-29,-19,-19
-48,-19,29,34,-39,4,-87,-165,-68,-29,-19,-24
-48,-19,29,34,-39,4,-87,-165,-68,-29,-19,-29
-48,-29,19,39,-34,-4,-82,-165,-68,-29,-24,-29
-48,-39,9,43,-29,-14,-78,-165,-68,-29,-29,-29
-48,-39,9,43,-29,-14,-78,-165,-73,-34,-29,-34
-48,-39,9,43,-29,-14,-78,-165,-78,-39,-29,-39
-48,-24,24,36,-36,0,-78,-165,-78,-39,-29,-39
-48,-9,39,29,-43,14,-78,-165,-78,-39,-29,-39
-48,-9,39,29,-43,14,-78,-165,-78,-39,-29,-34
-48,-9,39,29,-43,14,-78,-165,-78,-39,-29,-29
-53,-14,39,34,-46,12,-68,-165,-78,-39,-29,-29
-58,-19,39,39,-48,9,-58,-165,-78,-39,-29,-29
-58,-19,39,39,-48,9,-58,-161,-78,-39,-29,-29
-58,-19,39,39,-48,9,-58,-156,-78,-39,-29,-29
-63,-29,34,46,-48,2,-58,-156,-73,-39,-29,-29
-68,-39,29,53,-48,-4,-58,-156,-68,-39,-29,-29
-68,-39,29,53,-48,-4,-58,-156,-68,-39,-29,-29
-68,-39,29,53,-48,-4,-58,-156,-68,-39,-29,-29
-68,-39,29,53,-48,-4,-58,-156,-68,-39,-34,-29
-68,-39,29,53,-48,-4,-58,-156,-68,-39,-39,-29
-68,-39,29,53,-48,-4,-63,-161,-73,-43,-43,-29
-68,-39,29,53,-48,-4,-68,-165,-78,-48,-48,-29
-68,-39,29,53,-48,-4,-68,-170,-78,-48,-48,-29
-68,-39,29,53,-48,-4,-68,-175,-78,-48,-48,-29
-68,-43,24,56,-46,-9,-68,-175,-78,-48,-48,-34
-68,-48,19,58,-43,-14,-68,-175,-78,-48,-48,-39
-68,-48,19,58,-43,-14,-68,-175,-82,-48,-48,-39
-68,-48,19,58,-43,-14,-68,-175,-87,-48,-48,-39
-68,-43,24,56,-46,-9,-78,-185,-92,-48,-48,-39
-68,-39,29,53,-48,-4,-87,-195,-97,-48,-48,-39
-68,-34,34,51,-51,0,-87,-195,-97,-48,-43,-39
-68,-29,39,48,-53,4,-87,-195,-97,-48,-39,-39
-68,-29,39,48,-53,4,-87,-200,-102,-53,-39,-39
-68,-29,39,48,-53,4,-87,-204,-107,-58,-39,-39
-68,-29,39,48,-53,4,-87,-204,-107,-58,-39,-34
-68,-29,39,48,-53,4,-87,-204,-107,-58,-39,-29
-63,-34,29,48,-46,-2,-87,-204,-107,-53,-39,-29
-58,-34,24,46,-41,-4,-87,-204,-107,-48,-39,-29
-58,-39,19,48,-39,-9,-87,-204,-107,-48,-39,-34
-58,-39,19,48,-39,-9,-87,-209,-107,-48,-39,-39
-58,-39,19,48,-39,-9,-87,-209,-107,-48,-39,-34
-53,-34,19,43,-36,-7,-82,-209,-102,-48,-34,-34
-53,-19,34,36,-43,7,-82,-200,-97,-48,-34,-29
-48,-4,43,26,-46,19,-68,-190,-92,-43,-29,-19
-48,4,53,21,-51,29,-63,-190,-92,-34,-24,-14
-48,9,58,19,-53,34,-58,-195,-97,-34,-19,-9
-48,4,53,21,-51,29,-48,-195,-92,-34,-9,-4
-48,4,53,21,-51,29,-39,-185,-78,-24,0,0
-39,19,58,9,-48,39,-29,-175,-68,-19,0,4
-24,39,63,-7,-43,51,-24,-151,-39,-4,19,19
0,68,68,-34,-34,68,-24,-146,-29,14,29,24
9,82,73,-46,-31,78,-39,-146,-39,14,24,24
19,92,73,-56,-26,82,-58,-165,-48,9,24,24
24,97,73,-61,-24,85,-87,-185,-58,4,19,24
29,92,63,-61,-17,78,-122,-209,-73,-4,19,24
39,102,63,-70,-12,82,-151,-234,-92,-14,14,24
48,102,53,-75,-2,78,-161,-244,-97,-19,14,29
48,102,53,-75,-2,78,-161,-244,-97,-24,14,34
48,97,48,-73,0,73,-161,-239,-97,-19,9,34
43,82,39,-63,2,61,-151,-234,-87,-19,4,24
34,73,39,-53,-2,56,-136,-209,-78,-14,4,19
29,58,29,-43,0,43,-126,-195,-68,-14,0,9
9,29,19,-19,-4,24,-107,-185,-63,-9,0,0
-14,4,19,4,-17,12,-87,-170,-63,-9,-4,-4
-29,-4,24,17,-26,9,-87,-180,-73,-24,-19,-14
-48,-14,34,31,-41,9,-97,-209,-102,-39,-29,-19
-53,-34,19,43,-36,-7,-102,-224,-112,-48,-34,-29
-68,-53,14,61,-41,-19,-107,-234,-122,-58,-39,-34
-73,-58,14,65,-43,-21,-112,-244,-136,-73,-48,-43
-73,-48,24,61,-48,-12,-112,-253,-146,-78,-53,-48
-73,-48,24,61,-48,-12,-112,-258,-146,-82,-58,-48
-73,-48,24,61,-48,-12,-112,-258,-146,-82,-63,-48
-78,-53,24,65,-51,-14,-112,-258,-146,-82,-63,-48
-78,-63,14,70,-46,-24,-112,-253,-146,-82,-63,-48
-78,-63,14,70,-46,-24,-112,-253,-141,-78,-58,-48
-78,-63,14,70,-46,-24,-107,-248,-141,-78,-53,-48
-78,-63,14,70,-46,-24,-107,-248,-141,-78,-58,-53
-87,-73,14,80,-51,-29,-97,-248,-141,-82,-68,-63
-107,-78,29,92,-68,-24,-78,-248,-146,-92,-68,-68
-156,-102,53,129,-104,-24,-34,-283,-175,-122,-97,-92
-204,-126,78,165,-141,-24,4,-331,-234,-165,-136,-117
-204,-131,73,168,-139,-29,24,-302,-180,-117,-112,-107
-200,-107,92,153,-146,-7,107,-117,0,14,-29,-68
-117,-68,48,92,-82,-9,141,73,200,165,78,-9
58,-4,-63,-26,61,-34,165,361,434,336,195,48
312,146,-165,-229,239,-9,156,761,805,629,414,175
658,424,-234,-541,446,95,0,1268,1385,1107,766,409
1112,834,-278,-973,695,278,-366,1825,2093,1722,1229,727
1507,1259,-248,-1383,878,505,-722,2186,2615,2210,1654,1034
1610,1068,-541,-1339,1076,263,-878,2122,2366,1912,1449,927
1376,629,-746,-1002,1061,-58,-946,1322,1298,1005,829,595
1107,292,-814,-700,961,-261,-1093,375,400,312,341,317
771,-48,-819,-361,795,-434,-1376,-1117,-775,-429,-141,58
492,-190,-683,-151,588,-436,-1366,-1771,-1263,-722,-336,-53
346,-34,-380,-156,363,-207,-1039,-1195,-849,-468,-190,29
239,24,-214,-131,226,-95,-756,-829,-590,-317,-126,39
136,9,-126,-73,131,-58,-551,-624,-458,-263,-126,4
68,9,-58,-39,63,-24,-336,-395,-287,-170,-92,-4
19,-14,-34,-2,26,-24,-156,-200,-156,-102,-63,-19
-14,-43,-29,29,7,-36,-63,-117,-87,-63,-53,-29
-43,-53,-9,48,-17,-31,0,-82,-68,-48,-48,-34
-58,-63,-4,61,-26,-34,14,-73,-63,-48,-48,-43
-63,-68,-4,65,-29,-36,14,-73,-63,-63,-68,-58
-63,-58,4,61,-34,-26,14,-73,-63,-63,-73,-63
-73,-58,14,65,-43,-21,29,-63,-63,-58,-68,-58
-73,-58,14,65,-43,-21,43,-39,-53,-53,-63,-58
-73,-58,14,65,-43,-21,48,-39,-53,-53,-68,-63
-73,-58,14,65,-43,-21,53,-34,-58,-53,-73,-68
-82,-58,24,70,-53,-17,58,-24,-53,-48,-73,-68
-87,-58,29,73,-58,-14,68,-14,-39,-43,-73,-68
-87,-58,29,73,-58,-14,73,-4,-34,-34,-68,-63
-87,-58,29,73,-58,-14,78,0,-24,-29,-58,-58
-82,-63,19,73,-51,-21,87,14,-19,-29,-53,-58
-78,-63,14,70,-46,-24,97,39,-9,-24,-43,-53
-78,-63,14,70,-46,-24,107,43,-9,-19,-39,-53
-78,-68,9,73,-43,-29,107,53,-4,-19,-39,-58
-78,-68,9,73,-43,-29,112,63,4,-14,-39,-58
-78,-63,14,70,-46,-24,117,73,9,-14,-39,-58
-78,-58,19,68,-48,-19,117,87,14,-14,-39,-58
-78,-58,19,68,-48,-19,122,97,24,-9,-39,-58
-78,-53,24,65,-51,-14,131,102,29,-9,-43,-53
-78,-48,29,63,-53,-9,136,107,29,-4,-48,-53
-78,-48,29,63,-53,-9,146,117,39,-4,-48,-53
-78,-48,29,63,-53,-9,161,131,43,0,-43,-53
-78,-53,24,65,-51,-14,165,141,43,0,-43,-53
-78,-58,19,68,-48,-19,175,151,48,0,-43,-53
-78,-53,24,65,-51,-14,190,161,58,0,-43,-53
-78,-53,24,65,-51,-14,200,175,63,4,-43,-53
-78,-53,24,65,-51,-14,209,185,63,4,-48,-53
-73,-53,19,63,-46,-17,219,204,63,4,-48,-53
-73,-48,24,61,-48,-12,229,214,68,4,-48,-53
-78,-48,29,63,-53,-9,239,229,73,4,-48,-48
-82,-48,34,65,-58,-7,248,244,78,4,-48,-43
-87,-43,43,65,-65,0,258,253,78,4,-53,-48
-87,-43,43,65,-65,0,268,268,82,0,-53,-48
-87,-39,48,63,-68,4,278,283,82,0,-58,-48
-87,-29,58,58,-73,14,292,297,82,0,-58,-53
-87,-24,63,56,-75,19,307,317,87,-4,-58,-58
-82,-19,63,51,-73,21,326,336,92,-4,-58,-58
-78,-24,53,51,-65,14,336,351,97,-9,-63,-58
-82,-24,58,53,-70,17,356,366,102,-9,-63,-58
-82,-24,58,53,-70,17,375,375,107,-19,-63,-63
-87,-29,58,58,-73,14,390,395,97,-29,-73,-63
-92,-29,63,61,-78,17,400,405,92,-34,-73,-68
-87,-19,68,53,-78,24,414,419,82,-43,-78,-68
-82,-29,53,56,-68,12,429,434,73,-58,-87,-73
-87,-29,58,58,-73,14,439,444,63,-78,-97,-78
-87,-43,43,65,-65,0,458,453,58,-82,-107,-78
-97,-53,43,75,-70,-4,468,473,43,-97,-112,-82
-107,-53,53,80,-80,0,478,483,29,-112,-122,-87
-107,-53,53,80,-80,0,488,488,19,-122,-131,-92
-107,-53,53,80,-80,0,497,488,9,-136,-136,-92
-107,-43,63,75,-85,9,497,483,-4,-151,-146,-92
-107,-34,73,70,-90,19,488,468,-19,-161,-151,-97
-102,-29,73,65,-87,21,473,444,-39,-170,-156,-97
-102,-29,73,65,-87,21,444,400,-53,-180,-156,-97
-97,-29,68,63,-82,19,405,356,-73,-180,-151,-97
-87,-24,63,56,-75,19,366,307,-92,-180,-146,-92
-78,-34,43,56,-61,4,317,258,-112,-180,-136,-78
-73,-39,34,56,-53,-2,268,204,-126,-175,-126,-68
-63,-29,34,46,-48,2,219,151,-131,-165,-117,-63
-58,-29,29,43,-43,0,170,102,-131,-151,-102,-53
-48,-14,34,31,-41,9,126,48,-136,-136,-97,-48
-39,-9,29,24,-34,9,82,9,-141,-122,-92,-39
-34,-4,29,19,-31,12,48,-34,-136,-107,-82,-34
-24,0,24,12,-24,12,14,-63,-126,-92,-68,-34
-19,4,24,7,-21,14,-4,-92,-126,-87,-58,-34
-14,9,24,2,-19,17,-29,-112,-126,-73,-53,-29
-14,0,14,7,-14,7,-43,-126,-112,-58,-43,-24
-14,-14,0,14,-7,-7,-58,-141,-97,-53,-39,-19
-14,-19,-4,17,-4,-12,-68,-151,-87,-43,-39,-19
-14,-19,-4,17,-4,-12,-73,-156,-87,-39,-34,-19
-19,-24,-4,21,-7,-14,-78,-165,-78,-29,-29,-14
-19,-24,-4,21,-7,-14,-78,-165,-78,-24,-29,-9
-19,-24,-4,21,-7,-14,-78,-165,-73,-24,-24,-9
-19,-24,-4,21,-7,-14,-78,-161,-68,-19,-24,-9
-19,-24,-4,21,-7,-14,-82,-161,-68,-19,-24,-9
-19,-24,-4,21,-7,-14,-82,-165,-68,-19,-24,-9
-24,-24,0,24,-12,-12,-78,-165,-68,-14,-24,-9
-24,-24,0,24,-12,-12,-73,-165,-63,-14,-24,-9
-29,-24,4,26,-17,-9,-73,-165,-63,-14,-24,-9
-34,-24,9,29,-21,-7,-68,-165,-63,-19,-24,-9
-29,-24,4,26,-17,-9,-68,-161,-68,-19,-24,-9
-29,-24,4,26,-17,-9,-68,-161,-68,-19,-24,-9
-34,-29,4,31,-19,-12,-68,-161,-68,-19,-24,-9
-34,-29,4,31,-19,-12,-73,-161,-68,-19,-29,-14
-34,-24,9,29,-21,-7,-73,-156,-73,-24,-34,-19
-34,-19,14,26,-24,-2,-73,-156,-73,-34,-39,-29
-39,-24,14,31,-26,-4,-63,-156,-73,-34,-39,-29
-43,-24,19,34,-31,-2,-63,-151,-73,-34,-39,-29
-43,-24,19,34,-31,-2,-63,-151,-78,-34,-39,-24
-43,-24,19,34,-31,-2,-63,-151,-82,-34,-39,-19
-43,-24,19,34,-31,-2,-53,-151,-82,-34,-39,-19
-48,-19,29,34,-39,4,-48,-151,-82,-34,-39,-19
-48,-19,29,34,-39,4,-48,-146,-78,-39,-43,-19
-48,-24,24,36,-36,0,-48,-146,-73,-39,-43,-24
-48,-29,19,39,-34,-4,-48,-146,-78,-39,-43,-24
-48,-34,14,41,-31,-9,-48,-146,-78,-39,-43,-24
-53,-39,14,46,-34,-12,-48,-146,-78,-34,-43,-19
-53,-43,9,48,-31,-17,-48,-146,-78,-34,-43,-14
-53,-43,9,48,-31,-17,-48,-151,-78,-34,-43,-14
-53,-48,4,51,-29,-21,-48,-151,-78,-34,-43,-14
-53,-39,14,46,-34,-12,-48,-156,-82,-34,-43,-19
-53,-34,19,43,-36,-7,-53,-156,-82,-34,-48,-24
-53,-34,19,43,-36,-7,-53,-161,-87,-43,-53,-24
-53,-34,19,43,-36,-7,-53,-165,-87,-48,-58,-24
-53,-34,19,43,-36,-7,-58,-170,-92,-48,-58,-24
-58,-34,24,46,-41,-4,-68,-180,-102,-48,-58,-29
-58,-34,24,46,-41,-4,-68,-185,-102,-48,-58,-29
-58,-34,24,46,-41,-4,-73,-185,-102,-48,-58,-29
-58,-34,24,46,-41,-4,-78,-185,-102,-48,-53,-29
-58,-34,24,46,-41,-4,-78,-180,-102,-43,-48,-29
-63,-34,29,48,-46,-2,-78,-180,-102,-43,-48,-24
-68,-34,34,51,-51,0,-87,-195,-107,-43,-48,-24
-68,-34,34,51,-51,0,-87,-200,-112,-43,-48,-24
-68,-39,29,53,-48,-4,-87,-204,-117,-48,-48,-29
-63,-43,19,53,-41,-12,-87,-204,-117,-48,-48,-24
-58,-48,9,53,-34,-19,-87,-204,-117,-48,-48,-19
-58,-48,9,53,-34,-19,-82,-204,-117,-48,-48,-19
-58,-48,9,53,-34,-19,-78,-204,-117,-48,-48,-19
-58,-53,4,56,-31,-24,-78,-204,-117,-53,-48,-19
-58,-58,0,58,-29,-29,-78,-209,-117,-58,-48,-19
-58,-58,0,58,-29,-29,-78,-209,-117,-58,-48,-19
-53,-53,0,53,-26,-26,-73,-209,-112,-58,-43,-24
-58,-39,19,48,-39,-9,-78,-209,-107,-53,-43,-24
-58,-24,34,41,-46,4,-68,-209,-102,-43,-39,-19
-58,-14,43,36,-51,14,-63,-195,-97,-29,-29,-14
-58,-9,48,34,-53,19,-58,-185,-97,-24,-19,-9
-58,-14,43,36,-51,14,-48,-185,-92,-24,-14,-4
-58,-14,43,36,-51,14,-39,-175,-78,-14,-9,0
-48,-4,43,26,-46,19,-29,-165,-73,-9,-9,4
-34,9,43,12,-39,26,-24,-141,-48,4,9,19
-9,34,43,-12,-26,39,-14,-131,-34,24,24,29
0,43,43,-21,-21,43,-19,-126,-39,24,24,34
9,53,43,-31,-17,48,-39,-146,-48,14,24,34
14,58,43,-36,-14,51,-68,-165,-58,4,19,34
19,63,43,-41,-12,53,-107,-195,-78,-4,19,34
29,82,53,-56,-12,68,-141,-224,-102,-14,14,34
43,97,53,-70,-4,75,-151,-234,-107,-14,14,39
48,112,63,-80,-7,87,-151,-234,-107,-14,14,43
48,102,53,-75,-2,78,-151,-234,-107,-14,9,43
43,82,39,-63,2,61,-141,-234,-97,-19,4,34
34,63,29,-48,2,46,-126,-209,-87,-14,4,34
29,39,9,-34,9,24,-117,-195,-78,-14,0,29
9,19,9,-14,0,14,-97,-180,-73,0,9,19
-14,4,19,4,-17,12,-78,-161,-73,9,14,14
-29,-14,14,21,-21,0,-73,-156,-73,-4,0,4
-48,-34,14,41,-31,-9,-78,-170,-92,-19,-9,0
-53,-53,0,53,-26,-26,-82,-195,-102,-29,-19,-9
-68,-73,-4,70,-31,-39,-87,-214,-112,-39,-29,-14
-73,-92,-19,82,-26,-56,-97,-229,-131,-58,-43,-24
-73,-97,-24,85,-24,-61,-102,-244,-146,-68,-53,-29
-73,-82,-9,78,-31,-46,-102,-253,-146,-78,-58,-29
-73,-68,4,70,-39,-31,-102,-258,-146,-82,-63,-29
-78,-68,9,73,-43,-29,-102,-258,-146,-82,-63,-34
-78,-73,4,75,-41,-34,-102,-253,-146,-82,-63,-39
-78,-73,4,75,-41,-34,-102,-253,-146,-78,-63,-39
-78,-73,4,75,-41,-34,-97,-248,-151,-78,-63,-39
-73,-78,-4,75,-34,-41,-97,-248,-151,-73,-63,-39
-78,-92,-14,85,-31,-53,-87,-248,-151,-73,-68,-43
-97,-97,0,97,-48,-48,-78,-234,-151,-82,-68,-48
-146,-122,24,134,-85,-48,-43,-253,-175,-112,-97,-73
-209,-151,58,180,-134,-46,4,-331,-263,-190,-161,-112
-224,-161,63,192,-143,-48,34,-331,-239,-175,-161,-117
-244,-146,97,195,-170,-24,107,-175,-78,-58,-92,-92
-185,-117,68,151,-126,-24,131,-14,102,78,0,-48
-58,-97,-39,78,-9,-68,204,234,307,224,92,-4
146,9,-136,-78,141,-63,244,595,649,492,287,107
448,239,-209,-344,329,14,151,1102,1234,966,644,331
858,600,-258,-729,558,170,-151,1659,1947,1576,1112,639
1366,1195,-170,-1281,768,512,-566,2210,2723,2298,1717,1073
1581,1176,-405,-1378,993,385,-780,2337,2727,2235,1693,1093
1381,751,-629,-1066,1005,61,-824,1683,1693,1317,1073,771
1146,429,-717,-788,932,-143,-946,883,829,614,585,502
775,24,-751,-400,763,-363,-1293,-878,-580,-273,0,175
463,-180,-644,-141,553,-412,-1346,-1800,-1302,-712,-297,-4
307,-39,-346,-134,326,-192,-1049,-1254,-897,-478,-165,68
190,4,-185,-97,187,-90,-795,-917,-649,-346,-117,68
92,-9,-102,-41,97,-56,-605,-707,-517,-292,-117,29
29,-9,-39,-9,34,-24,-405,-473,-346,-200,-82,14
-4,-34,-29,19,12,-31,-195,-244,-185,-122,-63,-4
-24,-63,-39,43,7,-51,-73,-126,-87,-73,-63,-19
-48,-63,-14,56,-17,-39,-9,-92,-73,-58,-58,-24
-58,-63,-4,61,-26,-34,4,-82,-73,-58,-58,-34
-73,-78,-4,75,-34,-41,4,-82,-78,-73,-73,-48
-82,-78,4,80,-43,-36,4,-82,-82,-73,-73,-53
-92,-78,14,85,-53,-31,24,-73,-78,-68,-68,-53
-92,-78,14,85,-53,-31,43,-48,-63,-63,-63,-58
-92,-78,14,85,-53,-31,48,-43,-58,-63,-63,-58
-92,-78,14,85,-53,-31,53,-34,-58,-63,-63,-58
-97,-78,19,87,-58,-29,48,-24,-53,-48,-58,-53
-97,-78,19,87,-58,-29,48,-14,-39,-34,-53,-48
-97,-78,19,87,-58,-29,63,0,-34,-29,-53,-48
-97,-78,19,87,-58,-29,78,9,-24,-29,-48,-48
-97,-78,19,87,-58,-29,87,14,-19,-29,-48,-48
-97,-73,24,85,-61,-24,97,29,-9,-24,-43,-43
-92,-78,14,85,-53,-31,107,39,-4,-19,-39,-34
-87,-87,0,87,-43,-43,107,53,4,-19,-39,-29
-82,-92,-9,87,-36,-51,117,63,14,-14,-34,-29
-78,-92,-14,85,-31,-53,126,73,19,-14,-29,-29
-78,-87,-9,82,-34,-48,131,87,24,-14,-29,-29
-78,-87,-9,82,-34,-48,141,97,34,-9,-29,-29
-82,-87,-4,85,-39,-46,151,107,39,-14,-34,-29
-87,-87,0,87,-43,-43,156,117,39,-14,-39,-34
-87,-78,9,82,-48,-34,161,122,43,-14,-39,-34
-87,-68,19,78,-53,-24,170,131,43,-9,-34,-34
-87,-68,19,78,-53,-24,170,141,43,-9,-34,-34
-87,-68,19,78,-53,-24,175,151,48,-9,-34,-34
-87,-63,24,75,-56,-19,185,161,58,-9,-29,-34
-87,-63,24,75,-56,-19,190,175,63,-4,-24,-34
-87,-63,24,75,-56,-19,200,175,63,-4,-29,-34
-82,-63,19,73,-51,-21,209,185,63,-4,-29,-34
-82,-48,34,65,-58,-7,209,195,63,-9,-34,-34
-87,-39,48,63,-68,4,209,209,63,-14,-39,-29
-87,-39,48,63,-68,4,219,229,68,-14,-39,-29
-87,-34,53,61,-70,9,229,244,68,-14,-43,-39
-82,-43,39,63,-61,-2,248,258,82,-14,-39,-39
-78,-48,29,63,-53,-9,268,273,92,-9,-39,-39
-78,-48,29,63,-53,-9,283,287,92,-9,-39,-39
-78,-53,24,65,-51,-14,297,307,97,-14,-39,-39
-78,-43,34,61,-56,-4,317,331,97,-9,-39,-43
-78,-43,34,61,-56,-4,326,351,97,-9,-43,-48
-82,-43,39,63,-61,-2,346,366,97,-14,-48,-48
-82,-43,39,63,-61,-2,366,375,97,-29,-53,-53
-87,-48,39,68,-63,-4,385,395,87,-39,-63,-48
-92,-48,43,70,-68,-2,400,405,82,-43,-63,-48
-92,-34,58,63,-75,12,414,419,73,-48,-68,-48
-92,-39,53,65,-73,7,429,434,63,-58,-78,-53
-97,-39,58,68,-78,9,439,448,58,-78,-87,-58
-97,-53,43,75,-70,-4,458,463,58,-82,-97,-58
-102,-63,39,82,-70,-12,468,478,43,-97,-102,-63
-107,-63,43,85,-75,-9,478,483,29,-112,-112,-68
-107,-68,39,87,-73,-14,488,488,14,-126,-122,-78
-107,-73,34,90,-70,-19,497,488,0,-146,-126,-82
-107,-73,34,90,-70,-19,497,488,-14,-161,-136,-82
-107,-73,34,90,-70,-19,488,478,-29,-170,-141,-87
-102,-68,34,85,-68,-17,478,453,-53,-185,-151,-87
-102,-68,34,85,-68,-17,453,409,-73,-200,-156,-87
-102,-68,34,85,-68,-17,414,366,-92,-200,-156,-87
-97,-63,34,80,-65,-14,375,317,-112,-200,-156,-82
-87,-63,24,75,-56,-19,326,268,-126,-200,-146,-73
-82,-58,24,70,-53,-17,278,214,-136,-195,-136,-68
-68,-48,19,58,-43,-14,229,161,-141,-180,-126,-63
-58,-48,9,53,-34,-19,180,112,-141,-161,-112,-53
-48,-34,14,41,-31,-9,136,58,-146,-151,-97,-48
-39,-29,9,34,-24,-9,92,19,-151,-141,-82,-39
-43,-14,29,29,-36,7,58,-24,-146,-122,-73,-34
-43,0,43,21,-43,21,24,-53,-136,-102,-58,-34
-39,-9,29,24,-34,9,4,-82,-126,-92,-43,-24
-34,-19,14,26,-24,-2,-19,-102,-117,-73,-34,-9
-34,-14,19,24,-26,2,-29,-117,-112,-58,-24,-4
-34,-14,19,24,-26,2,-39,-131,-107,-53,-19,0
-34,-19,14,26,-24,-2,-48,-141,-97,-48,-24,-4
-34,-19,14,26,-24,-2,-53,-146,-97,-48,-24,-9
-39,-24,14,31,-26,-4,-63,-156,-87,-43,-19,-9
-39,-24,14,31,-26,-4,-68,-156,-87,-43,-19,-9
-39,-24,14,31,-26,-4,-73,-161,-82,-43,-14,-9
-39,-24,14,31,-26,-4,-78,-161,-78,-39,-14,-9
-34,-24,9,29,-21,-7,-82,-161,-78,-39,-14,-9
-29,-24,4,26,-17,-9,-82,-165,-78,-39,-14,-9
-34,-29,4,31,-19,-12,-78,-161,-78,-34,-14,-4
-34,-34,0,34,-17,-17,-73,-156,-73,-34,-14,0
-34,-34,0,34,-17,-17,-73,-156,-68,-29,-14,0
-34,-34,0,34,-17,-17,-68,-156,-63,-29,-14,0
-29,-34,-4,31,-12,-19,-68,-151,-63,-29,-9,0
-29,-34,-4,31,-12,-19,-68,-151,-58,-29,-4,0
-34,-34,0,34,-17,-17,-63,-151,-58,-29,-4,0
-34,-29,4,31,-19,-12,-63,-151,-58,-29,-9,-4
-34,-24,9,29,-21,-7,-68,-146,-63,-29,-14,-4
-34,-19,14,26,-24,-2,-73,-146,-63,-34,-19,-9
-39,-24,14,31,-26,-4,-63,-146,-63,-34,-24,-14
-43,-24,19,34,-31,-2,-63,-141,-63,-34,-29,-19
-39,-24,14,31,-26,-4,-53,-141,-63,-34,-29,-19
-34,-24,9,29,-21,-7,-43,-141,-63,-34,-29,-19
-34,-19,14,26,-24,-2,-39,-141,-63,-34,-29,-19
-39,-9,29,24,-34,9,-39,-141,-63,-34,-29,-19
-39,-9,29,24,-34,9,-43,-136,-63,-39,-34,-19
-39,-14,24,26,-31,4,-48,-136,-63,-39,-34,-24
-39,-24,14,31,-26,-4,-48,-136,-63,-34,-29,-19
-39,-34,4,36,-21,-14,-48,-136,-58,-29,-24,-14
-43,-34,9,39,-26,-12,-48,-136,-58,-29,-29,-14
-43,-34,9,39,-26,-12,-48,-136,-58,-34,-34,-14
-48,-29,19,39,-34,-4,-48,-141,-63,-39,-34,-14
-53,-29,24,41,-39,-2,-48,-141,-68,-43,-34,-14
-53,-29,24,41,-39,-2,-48,-146,-73,-43,-34,-14
-53,-34,19,43,-36,-7,-53,-146,-73,-43,-39,-14
-53,-34,19,43,-36,-7,-53,-151,-78,-48,-39,-14
-53,-34,19,43,-36,-7,-53,-156,-78,-48,-39,-14
-53,-34,19,43,-36,-7,-53,-156,-78,-48,-39,-14
-58,-34,24,46,-41,-4,-58,-161,-82,-48,-39,-19
-58,-43,14,51,-36,-14,-58,-165,-82,-48,-39,-24
-58,-53,4,56,-31,-24,-63,-165,-82,-48,-39,-29
-58,-53,4,56,-31,-24,-68,-170,-82,-53,-39,-29
-58,-53,4,56,-31,-24,-68,-170,-82,-53,-39,-29
-53,-48,4,51,-29,-21,-68,-170,-87,-53,-39,-19
-48,-43,4,46,-26,-19,-78,-185,-97,-53,-39,-14
-48,-43,4,46,-26,-19,-82,-185,-97,-53,-39,-14
-48,-48,0,48,-24,-24,-87,-185,-97,-58,-39,-19
-48,-48,0,48,-24,-24,-87,-185,-97,-58,-34,-19
-48,-48,0,48,-24,-24,-87,-185,-97,-58,-29,-19
-48,-48,0,48,-24,-24,-87,-190,-97,-58,-29,-19
-48,-48,0,48,-24,-24,-87,-190,-97,-58,-29,-19
-53,-48,4,51,-29,-21,-87,-195,-97,-58,-34,-24
-58,-48,9,53,-34,-19,-87,-200,-97,-58,-39,-29
-58,-48,9,53,-34,-19,-87,-204,-102,-58,-43,-24
-53,-43,9,48,-31,-17,-82,-209,-102,-58,-43,-24
-53,-19,34,36,-43,7,-92,-204,-102,-58,-43,-29
-48,4,53,21,-51,29,-87,-200,-102,-53,-39,-29
-48,14,63,17,-56,39,-82,-195,-97,-43,-34,-24
-48,19,68,14,-58,43,-78,-195,-97,-43,-29,-19
-48,14,63,17,-56,39,-63,-195,-92,-43,-19,-14
-48,14,63,17,-56,39,-48,-185,-78,-34,-9,-9
-43,24,68,9,-56,46,-39,-175,-73,-29,-9,-4
-34,39,73,-2,-53,56,-34,-151,-48,-14,9,9
-9,63,73,-26,-41,68,-24,-141,-34,9,24,24
0,73,73,-36,-36,73,-29,-136,-39,14,24,34
9,82,73,-46,-31,78,-48,-156,-48,4,24,34
14,87,73,-51,-29,80,-78,-175,-58,-4,19,34
24,87,63,-56,-19,75,-112,-200,-73,-14,19,34
39,102,63,-70,-12,82,-141,-224,-92,-24,14,34
48,107,58,-78,-4,82,-156,-234,-97,-24,14,39
48,112,63,-80,-7,87,-161,-234,-97,-24,14,43
53,102,48,-78,2,75,-161,-234,-97,-19,14,48
53,82,29,-68,12,56,-151,-234,-87,-19,14,43
43,63,19,-53,12,41,-136,-209,-78,-14,19,39
39,39,0,-39,19,19,-126,-195,-68,-14,19,29
19,14,-4,-17,12,4,-107,-185,-63,-9,19,19
-4,-4,0,4,-2,-2,-87,-170,-63,-9,14,14
-19,-14,4,17,-12,-4,-82,-175,-63,-19,0,4
-39,-24,14,31,-26,-4,-87,-200,-82,-29,-9,0
-43,-34,9,39,-26,-12,-92,-214,-92,-39,-19,-9
-58,-43,14,51,-36,-14,-97,-224,-102,-48,-29,-14
-68,-63,4,65,-36,-29,-102,-234,-122,-68,-43,-29
-73,-68,4,70,-39,-31,-102,-244,-136,-78,-53,-39
-73,-78,-4,75,-34,-41,-102,-248,-136,-82,-53,-39
-73,-87,-14,80,-29,-51,-102,-248,-136,-82,-53,-39
-78,-78,0,78,-39,-39,-102,-248,-136,-82,-53,-39
-78,-73,4,75,-41,-34,-102,-244,-136,-82,-53,-39
-78,-73,4,75,-41,-34,-107,-244,-131,-78,-53,-39
-78,-73,4,75,-41,-34,-107,-239,-131,-78,-53,-39
-78,-78,0,78,-39,-39,-112,-244,-131,-78,-58,-43
-87,-92,-4,90,-41,-48,-107,-248,-131,-82,-68,-53
-97,-97,0,97,-48,-48,-92,-248,-151,-102,-78,-58
-136,-122,14,129,-75,-53,-53,-283,-195,-141,-117,-82
-200,-151,48,175,-124,-51,-4,-361,-278,-209,-165,-112
-214,-161,53,187,-134,-53,24,-361,-248,-185,-151,-107
-234,-131,102,183,-168,-14,102,-200,-78,-58,-73,-78
-175,-87,87,131,-131,0,131,-34,112,87,29,-29
-34,-39,-4,36,-14,-21,185,244,356,258,146,24
185,97,-87,-141,136,4,204,634,736,551,366,146
517,361,-156,-439,336,102,87,1200,1371,1063,736,380
956,756,-200,-856,578,278,-239,1815,2132,1712,1220,697
1420,1302,-117,-1361,768,592,-619,2366,2898,2410,1795,1107
1590,1234,-356,-1412,973,439,-800,2493,2893,2322,1742,1102
1395,771,-624,-1083,1010,73,-858,1771,1800,1371,1102,761
1166,409,-756,-788,961,-173,-995,902,878,634,595,473
814,4,-810,-409,812,-402,-1346,-849,-541,-263,9,146
522,-200,-722,-161,622,-461,-1405,-1761,-1273,-712,-287,-34
366,-48,-414,-158,390,-231,-1083,-1215,-868,-478,-156,53
248,4,-244,-126,246,-119,-805,-878,-619,-346,-107,68
136,-9,-146,-63,141,-78,-595,-663,-483,-287,-107,24
58,-9,-68,-24,63,-39,-375,-424,-307,-190,-73,4
9,-29,-39,9,24,-34,-180,-214,-165,-122,-53,-14
-24,-53,-29,39,2,-41,-73,-117,-87,-82,-53,-29
-53,-53,0,53,-26,-26,-9,-82,-73,-58,-48,-34
-68,-53,14,61,-41,-19,4,-73,-73,-48,-48,-43
-78,-68,9,73,-43,-29,4,-73,-73,-73,-63,-58
-82,-68,14,75,-48,-26,4,-73,-73,-82,-63,-63
-92,-68,24,80,-58,-21,24,-63,-68,-73,-58,-58
-92,-68,24,80,-58,-21,43,-39,-53,-63,-53,-58
-92,-68,24,80,-58,-21,48,-34,-43,-63,-53,-53
-92,-68,24,80,-58,-21,53,-24,-39,-63,-53,-48
-97,-68,29,82,-63,-19,58,-14,-34,-58,-48,-48
-97,-68,29,82,-63,-19,68,-4,-19,-53,-43,-48
-97,-78,19,87,-58,-29,73,4,-19,-48,-43,-48
-97,-87,9,92,-53,-39,78,9,-14,-48,-39,-48
-97,-87,9,92,-53,-39,82,14,-9,-48,-43,-48
-97,-82,14,90,-56,-34,87,29,0,-43,-43,-43
-97,-82,14,90,-56,-34,97,34,0,-39,-39,-43
-97,-87,9,92,-53,-39,97,43,4,-39,-39,-48
-97,-87,9,92,-53,-39,112,53,14,-29,-39,-48
-97,-82,14,90,-56,-34,126,63,19,-24,-39,-48
-97,-73,24,85,-61,-24,131,78,24,-24,-34,-48
-97,-68,29,82,-63,-19,141,87,34,-19,-29,-48
-97,-63,34,80,-65,-14,146,97,39,-19,-29,-43
-97,-58,39,78,-68,-9,146,107,39,-14,-29,-43
-97,-58,39,78,-68,-9,151,117,48,-14,-29,-43
-97,-58,39,78,-68,-9,161,131,53,-9,-24,-43
-97,-58,39,78,-68,-9,170,141,53,-9,-29,-43
-97,-58,39,78,-68,-9,185,151,58,-9,-34,-43
-92,-53,39,73,-65,-7,195,165,68,-9,-34,-43
-87,-53,34,70,-61,-9,200,185,73,-4,-34,-43
-87,-58,29,73,-58,-14,209,190,78,0,-34,-43
-82,-63,19,73,-51,-21,219,204,82,4,-29,-43
-82,-58,24,70,-53,-17,229,214,87,4,-29,-43
-87,-58,29,73,-58,-14,239,229,92,4,-29,-39
-87,-53,34,70,-61,-9,248,244,97,0,-29,-39
-87,-43,43,65,-65,0,258,253,97,-4,-34,-48
-92,-43,48,68,-70,2,273,268,97,-9,-39,-53
-97,-39,58,68,-78,9,287,283,92,-9,-48,-58
-97,-34,63,65,-80,14,302,297,92,-9,-48,-58
-97,-34,63,65,-80,14,317,317,97,-14,-48,-58
-97,-34,63,65,-80,14,336,341,102,-14,-48,-58
-97,-43,53,70,-75,4,346,361,107,-19,-53,-58
-102,-43,58,73,-80,7,366,375,107,-24,-58,-53
-102,-43,58,73,-80,7,385,385,107,-39,-63,-53
-102,-48,53,75,-78,2,400,405,97,-48,-73,-53
-102,-48,53,75,-78,2,409,414,92,-53,-73,-58
-102,-39,63,70,-82,12,429,434,87,-58,-78,-63
-102,-48,53,75,-78,2,448,453,82,-68,-87,-73
-112,-48,63,80,-87,7,463,463,73,-87,-92,-78
-117,-63,53,90,-85,-4,488,473,68,-92,-97,-78
-122,-73,48,97,-85,-12,497,488,53,-107,-102,-82
-126,-73,53,100,-90,-9,507,492,39,-122,-112,-87
-126,-68,58,97,-92,-4,512,497,24,-136,-126,-97
-126,-63,63,95,-95,0,517,497,9,-156,-136,-102
-126,-63,63,95,-95,0,517,492,-9,-170,-146,-102
-126,-63,63,95,-95,0,507,478,-29,-180,-151,-107
-122,-58,63,90,-92,2,488,453,-53,-195,-161,-112
-122,-58,63,90,-92,2,453,409,-73,-209,-165,-117
-117,-58,58,87,-87,0,414,366,-92,-209,-165,-117
-107,-53,53,80,-80,0,375,317,-112,-209,-165,-112
-92,-48,43,70,-68,-2,326,258,-131,-209,-156,-97
-82,-39,43,61,-63,2,278,195,-146,-204,-146,-87
-68,-29,39,48,-53,4,229,141,-151,-190,-131,-82
-58,-29,29,43,-43,0,180,92,-151,-170,-112,-73
-48,-19,29,34,-39,4,131,43,-151,-156,-97,-58
-39,-19,19,29,-29,0,82,9,-151,-141,-82,-39
-39,-19,19,29,-29,0,48,-34,-141,-122,-73,-34
-34,-19,14,26,-24,-2,14,-63,-126,-102,-58,-34
-29,-14,14,21,-21,0,0,-92,-117,-92,-48,-34
-24,-9,14,17,-19,2,-19,-112,-107,-73,-43,-29
-24,0,24,12,-24,12,-34,-126,-102,-58,-29,-24
-24,4,29,9,-26,17,-48,-141,-97,-53,-19,-19
-24,0,24,12,-24,12,-58,-151,-87,-48,-19,-19
-24,0,24,12,-24,12,-63,-156,-87,-48,-14,-19
-29,-4,24,17,-26,9,-73,-165,-78,-39,-9,-19
-29,-4,24,17,-26,9,-78,-165,-78,-34,-9,-19
-29,-4,24,17,-26,9,-78,-165,-73,-34,-4,-14
-29,-4,24,17,-26,9,-78,-161,-68,-29,-4,-9
-29,-9,19,19,-24,4,-78,-161,-68,-24,-4,-4
-29,-14,14,21,-21,0,-73,-165,-68,-19,-4,0
-34,-14,19,24,-26,2,-73,-161,-68,-14,-4,0
-34,-14,19,24,-26,2,-73,-156,-63,-14,-4,0
-34,-9,24,21,-29,7,-78,-156,-63,-14,-9,-4
-34,-4,29,19,-31,12,-78,-156,-63,-19,-14,-9
-24,-4,19,14,-21,7,-78,-156,-63,-24,-14,-14
-19,-4,14,12,-17,4,-78,-161,-58,-29,-14,-19
-24,-9,14,17,-19,2,-73,-161,-58,-29,-14,-19
-24,-9,14,17,-19,2,-73,-161,-58,-29,-19,-24
-24,0,24,12,-24,12,-73,-156,-63,-29,-19,-24
-24,9,34,7,-29,21,-73,-156,-63,-34,-19,-29
-29,-9,19,19,-24,4,-58,-151,-58,-29,-14,-24
-34,-24,9,29,-21,-7,-53,-141,-53,-24,-9,-19
-34,-24,9,29,-21,-7,-53,-141,-53,-24,-9,-19
-34,-24,9,29,-21,-7,-53,-141,-53,-24,-9,-19
-34,-14,19,24,-26,2,-53,-146,-58,-29,-14,-24
-39,0,39,19,-39,19,-58,-151,-63,-34,-19,-29
-43,0,43,21,-43,21,-58,-146,-68,-39,-24,-29
-48,-4,43,26,-46,19,-58,-146,-73,-39,-24,-34
-48,-9,39,29,-43,14,-58,-146,-78,-39,-24,-34
-48,-14,34,31,-41,9,-58,-146,-78,-39,-24,-34
-53,-14,39,34,-46,12,-58,-146,-78,-39,-29,-34
-53,-14,39,34,-46,12,-58,-146,-78,-43,-34,-34
-53,-14,39,34,-46,12,-58,-151,-73,-43,-34,-34
-53,-19,34,36,-43,7,-58,-151,-68,-43,-34,-34
-53,-19,34,36,-43,7,-58,-156,-73,-43,-34,-34
-53,-24,29,39,-41,2,-63,-156,-73,-43,-39,-34
-53,-24,29,39,-41,2,-63,-161,-78,-48,-39,-34
-53,-24,29,39,-41,2,-63,-165,-78,-48,-39,-34
-53,-29,24,41,-39,-2,-63,-165,-78,-48,-34,-34
-58,-34,24,46,-41,-4,-68,-170,-82,-48,-29,-39
-58,-34,24,46,-41,-4,-68,-175,-82,-48,-29,-39
-58,-34,24,46,-41,-4,-73,-175,-82,-48,-29,-39
-58,-34,24,46,-41,-4,-78,-180,-82,-53,-29,-39
-58,-34,24,46,-41,-4,-78,-180,-82,-53,-29,-39
-58,-29,29,43,-43,0,-78,-180,-87,-53,-29,-34
-58,-24,34,41,-46,4,-82,-190,-92,-53,-29,-34
-58,-24,34,41,-46,4,-82,-195,-97,-48,-29,-34
-53,-29,24,41,-39,-2,-82,-200,-97,-48,-29,-39
-48,-29,19,39,-34,-4,-82,-204,-97,-48,-29,-39
-48,-29,19,39,-34,-4,-87,-209,-102,-48,-29,-39
-48,-29,19,39,-34,-4,-92,-209,-102,-63,-34,-39
-48,-29,19,39,-34,-4,-97,-214,-107,-78,-39,-39
-48,-29,19,39,-34,-4,-97,-214,-107,-68,-39,-39
-48,-29,19,39,-34,-4,-97,-214,-107,-58,-39,-39
-48,-34,14,41,-31,-9,-92,-209,-102,-58,-29,-34
-48,-34,14,41,-31,-9,-87,-209,-97,-58,-24,-29
-48,-39,9,43,-29,-14,-87,-209,-97,-58,-19,-29
-48,-39,9,43,-29,-14,-87,-209,-97,-58,-19,-24
-43,-19,24,31,-34,2,-82,-214,-92,-58,-14,-24
-43,9,53,17,-48,31,-82,-209,-87,-53,-14,-24
-39,24,63,7,-51,43,-73,-200,-82,-43,-14,-24
-39,34,73,2,-56,53,-73,-195,-78,-34,-14,-24
-39,39,78,0,-58,58,-68,-195,-78,-34,-9,-19
-39,39,78,0,-58,58,-58,-195,-73,-34,-4,-14
-39,34,73,2,-56,53,-48,-180,-58,-24,0,-9
-29,39,68,-4,-48,53,-39,-165,-53,-19,0,-4
-14,58,73,-21,-43,65,-34,-141,-29,-4,19,9
9,82,73,-46,-31,78,-34,-136,-19,14,34,19
19,92,73,-56,-26,82,-53,-141,-29,14,34,24
29,102,73,-65,-21,87,-78,-165,-39,4,34,24
34,107,73,-70,-19,90,-107,-185,-48,-4,29,24
39,107,68,-73,-14,87,-136,-209,-63,-14,29,24
48,117,68,-82,-9,92,-156,-229,-82,-24,24,24
58,112,53,-85,2,82,-161,-234,-87,-24,24,29
58,107,48,-82,4,78,-161,-234,-87,-24,24,34
58,92,34,-75,12,63,-161,-229,-87,-19,24,34
53,73,19,-63,17,46,-146,-224,-78,-14,24,29
43,53,9,-48,17,31,-126,-200,-68,-4,24,29
39,34,-4,-36,21,14,-117,-185,-58,-4,19,19
19,19,0,-19,9,9,-97,-175,-53,0,19,9
-4,4,9,0,-7,7,-82,-165,-58,-4,14,0
-19,-4,14,12,-17,4,-87,-180,-68,-24,0,-14
-39,-14,24,26,-31,4,-97,-209,-92,-39,-9,-19
-43,-24,19,34,-31,-2,-102,-224,-102,-48,-19,-29
-58,-29,29,43,-43,0,-107,-234,-112,-58,-29,-34
-63,-43,19,53,-41,-12,-112,-244,-126,-73,-39,-43
-63,-48,14,56,-39,-17,-112,-253,-136,-73,-43,-43
-63,-48,14,56,-39,-17,-112,-258,-136,-73,-43,-39
-63,-53,9,58,-36,-21,-112,-253,-136,-73,-43,-39
-68,-58,9,63,-39,-24,-112,-248,-136,-73,-43,-39
-68,-63,4,65,-36,-29,-112,-244,-131,-73,-43,-39
-68,-63,4,65,-36,-29,-112,-244,-122,-68,-43,-39
-68,-63,4,65,-36,-29,-107,-239,-122,-73,-43,-39
-68,-68,0,68,-34,-34,-107,-239,-122,-78,-48,-43
-82,-82,0,82,-41,-41,-97,-248,-126,-82,-58,-53
-107,-87,19,97,-63,-34,-78,-258,-146,-102,-68,-58
-156,-112,43,134,-100,-34,-34,-292,-185,-141,-107,-82
-204,-131,73,168,-139,-29,14,-326,-224,-175,-136,-107
-190,-122,68,156,-129,-26,43,-273,-131,-97,-92,-87
-165,-78,87,122,-126,4,117,-73,78,63,9,-39
-68,-4,63,36,-65,29,141,161,317,244,146,29
117,97,-19,-107,68,39,161,502,629,478,312,122
405,297,-107,-351,256,95,97,956,1078,844,585,287
771,610,-161,-690,466,224,-107,1503,1703,1366,980,546
1171,961,-209,-1066,690,375,-453,2000,2357,1922,1405,834
1498,1293,-204,-1395,851,544,-771,2259,2732,2269,1722,1078
1551,1044,-507,-1298,1029,268,-907,2069,2352,1869,1439,922
1298,580,-717,-939,1007,-68,-990,1151,1205,917,790,566
1029,244,-785,-636,907,-270,-1141,195,302,234,317,297
707,-73,-780,-317,744,-427,-1381,-1185,-810,-458,-136,48
458,-165,-624,-146,541,-395,-1307,-1683,-1205,-688,-292,-48
331,0,-331,-165,331,-165,-971,-1068,-751,-419,-136,39
229,29,-200,-129,214,-85,-697,-732,-502,-287,-87,39
131,-4,-136,-63,134,-70,-488,-527,-375,-234,-87,4
63,-9,-73,-26,68,-41,-287,-317,-224,-151,-58,-4
14,-34,-48,9,31,-41,-126,-156,-117,-97,-43,-24
-19,-68,-48,43,14,-58,-43,-92,-58,-63,-43,-34
-48,-73,-24,61,-12,-48,14,-63,-43,-48,-39,-34
-58,-73,-14,65,-21,-43,24,-53,-43,-48,-34,-43
-63,-87,-24,75,-19,-56,24,-53,-43,-63,-43,-53
-63,-78,-14,70,-24,-46,19,-53,-43,-63,-43,-53
-73,-68,4,70,-39,-31,34,-43,-39,-53,-39,-48
-73,-63,9,68,-41,-26,48,-24,-24,-43,-43,-53
-73,-58,14,65,-43,-21,48,-24,-19,-43,-53,-58
-73,-58,14,65,-43,-21,53,-14,-24,-48,-53,-58
-78,-58,19,68,-48,-19,58,-4,-24,-48,-53,-58
-78,-58,19,68,-48,-19,73,4,-9,-43,-53,-58
-78,-58,19,68,-48,-19,82,14,-9,-39,-53,-58
-78,-63,14,70,-46,-24,92,24,-4,-39,-48,-58
-78,-68,9,73,-43,-29,102,34,0,-39,-48,-58
-78,-63,14,70,-46,-24,107,48,14,-29,-43,-53
-78,-63,14,70,-46,-24,117,53,19,-19,-39,-53
-78,-68,9,73,-43,-29,112,63,24,-19,-39,-58
-78,-68,9,73,-43,-29,117,73,34,-14,-39,-58
-78,-63,14,70,-46,-24,126,82,34,-14,-39,-58
-78,-58,19,68,-48,-19,131,97,34,-14,-39,-58
-78,-53,24,65,-51,-14,141,107,43,-9,-39,-58
-78,-48,29,63,-53,-9,151,117,48,-9,-39,-53
-78,-43,34,61,-56,-4,156,122,48,-4,-39,-53
-78,-39,39,58,-58,0,161,126,58,-4,-39,-53
-82,-39,43,61,-63,2,170,141,63,0,-34,-53
-87,-39,48,63,-68,4,175,151,63,0,-34,-53
-87,-39,48,63,-68,4,185,165,68,0,-34,-53
-87,-34,53,61,-70,9,195,180,78,0,-34,-53
-82,-39,43,61,-63,2,204,200,92,4,-24,-48
-78,-43,34,61,-56,-4,219,209,102,4,-19,-43
-73,-48,24,61,-48,-12,229,229,102,4,-19,-43
-73,-48,24,61,-48,-12,239,244,107,4,-19,-43
-78,-48,29,63,-53,-9,258,258,112,4,-24,-39
-78,-48,29,63,-53,-9,278,273,117,4,-29,-39
-78,-43,34,61,-56,-4,278,278,112,4,-34,-48
-78,-43,34,61,-56,-4,283,287,112,0,-34,-48
-78,-39,39,58,-58,0,297,302,112,0,-39,-48
-78,-29,48,53,-63,9,312,317,112,0,-39,-48
-78,-24,53,51,-65,14,331,336,117,-4,-43,-48
-78,-24,53,51,-65,14,356,356,117,-4,-48,-48
-78,-29,48,53,-63,9,366,370,117,-9,-53,-53
-82,-24,58,53,-70,17,385,385,117,-14,-58,-58
-82,-24,58,53,-70,17,405,395,117,-29,-63,-63
-87,-29,58,58,-73,14,419,414,107,-39,-73,-63
-92,-29,63,61,-78,17,424,419,102,-43,-73,-68
-92,-19,73,56,-82,26,434,429,92,-53,-78,-73
-97,-34,63,65,-80,14,448,444,82,-68,-87,-82
-107,-39,68,73,-87,14,458,453,73,-87,-97,-87
-107,-53,53,80,-80,0,483,463,68,-92,-107,-87
-112,-63,48,87,-80,-7,497,478,53,-107,-112,-92
-112,-58,53,85,-82,-2,507,483,43,-122,-117,-92
-107,-53,53,80,-80,0,517,488,34,-131,-122,-92
-107,-53,53,80,-80,0,522,488,19,-141,-126,-92
-107,-53,53,80,-80,0,517,488,4,-151,-136,-92
-107,-53,53,80,-80,0,507,478,-9,-161,-141,-97
-102,-48,53,75,-78,2,492,453,-29,-170,-146,-97
-102,-43,58,73,-80,7,458,405,-43,-185,-146,-97
-97,-39,58,68,-78,9,414,356,-63,-190,-146,-97
-87,-34,53,61,-70,9,370,302,-87,-190,-146,-92
-78,-29,48,53,-63,9,317,248,-107,-190,-136,-82
-73,-19,53,46,-63,17,268,190,-117,-185,-126,-78
-58,-9,48,34,-53,19,219,131,-122,-170,-117,-73
-48,-9,39,29,-43,14,170,82,-122,-151,-102,-63
-39,0,39,19,-39,19,126,34,-122,-136,-87,-53
-29,0,29,14,-29,14,82,0,-122,-122,-73,-43
-29,0,29,14,-29,14,48,-43,-117,-102,-63,-43
-24,-4,19,14,-21,7,14,-68,-112,-82,-53,-43
-19,-4,14,12,-17,4,-4,-92,-107,-78,-48,-39
-14,0,14,7,-14,7,-29,-112,-97,-63,-43,-29
-14,4,19,4,-17,12,-43,-126,-92,-48,-34,-24
-14,4,19,4,-17,12,-58,-136,-87,-43,-29,-19
-14,0,14,7,-14,7,-68,-141,-78,-39,-29,-19
-19,0,19,9,-19,9,-73,-146,-78,-39,-24,-19
-29,-4,24,17,-26,9,-78,-156,-68,-29,-19,-19
-29,-4,24,17,-26,9,-78,-156,-68,-24,-19,-19
-29,-4,24,17,-26,9,-78,-156,-63,-24,-14,-19
-29,-4,24,17,-26,9,-78,-151,-58,-19,-14,-19
-29,-4,24,17,-26,9,-82,-151,-58,-19,-14,-19
-24,-4,19,14,-21,7,-78,-156,-58,-19,-14,-19
-24,-4,19,14,-21,7,-73,-156,-58,-14,-14,-19
-24,-4,19,14,-21,7,-73,-156,-53,-19,-19,-19
-24,-4,19,14,-21,7,-73,-156,-53,-24,-24,-19
-24,-9,14,17,-19,2,-68,-156,-53,-29,-24,-19
-19,-14,4,17,-12,-4,-68,-151,-53,-29,-24,-19
-19,-19,0,19,-9,-9,-68,-151,-53,-29,-24,-14
-24,-29,-4,26,-9,-17,-63,-151,-58,-29,-24,-9
-29,-29,0,29,-14,-14,-63,-151,-58,-29,-24,-14
-34,-29,4,31,-19,-12,-63,-146,-63,-29,-19,-14
-34,-29,4,31,-19,-12,-63,-146,-63,-34,-19,-24
-39,-34,4,36,-21,-14,-53,-146,-63,-34,-19,-29
-43,-29,14,36,-29,-7,-53,-141,-63,-29,-19,-29
-43,-24,19,34,-31,-2,-53,-141,-63,-24,-19,-29
-43,-24,19,34,-31,-2,-53,-141,-58,-24,-19,-29
-43,-24,19,34,-31,-2,-48,-141,-53,-24,-19,-29
-48,-19,29,34,-39,4,-48,-146,-53,-24,-19,-29
-48,-19,29,34,-39,4,-48,-146,-53,-29,-24,-29
-48,-24,24,36,-36,0,-48,-146,-58,-29,-24,-34
-48,-24,24,36,-36,0,-48,-146,-68,-29,-24,-34
-48,-24,24,36,-36,0,-48,-146,-68,-29,-24,-34
-53,-24,29,39,-41,2,-48,-146,-68,-29,-29,-34
-48,-24,24,36,-36,0,-48,-141,-68,-34,-34,-34
-43,-24,19,34,-31,-2,-48,-141,-68,-34,-34,-34
-43,-24,19,34,-31,-2,-53,-141,-68,-34,-34,-34
-43,-19,24,31,-34,2,-58,-146,-73,-34,-34,-34
-48,-24,24,36,-36,0,-63,-146,-73,-34,-39,-34
-53,-24,29,39,-41,2,-63,-151,-78,-39,-39,-34
-53,-24,29,39,-41,2,-63,-156,-78,-43,-39,-34
-53,-24,29,39,-41,2,-63,-156,-78,-48,-39,-34
-58,-24,34,41,-46,4,-63,-161,-78,-48,-39,-39
-58,-24,34,41,-46,4,-58,-165,-73,-48,-39,-39
-58,-29,29,43,-43,0,-63,-165,-73,-43,-39,-39
-58,-34,24,46,-41,-4,-68,-170,-73,-43,-39,-39
-58,-39,19,48,-39,-9,-68,-170,-73,-43,-39,-39
-58,-43,14,51,-36,-14,-68,-170,-78,-43,-39,-34
-58,-48,9,53,-34,-19,-73,-180,-82,-39,-39,-29
-58,-53,4,56,-31,-24,-78,-185,-87,-34,-39,-24
-53,-63,-9,58,-21,-36,-82,-185,-87,-34,-39,-24
-53,-78,-24,65,-14,-51,-82,-190,-87,-39,-39,-29
-53,-63,-9,58,-21,-36,-82,-195,-92,-43,-39,-34
-58,-48,9,53,-34,-19,-87,-200,-97,-48,-39,-39
-58,-29,29,43,-43,0,-87,-200,-97,-53,-39,-43
-58,-9,48,34,-53,19,-87,-204,-97,-58,-39,-48
-58,-9,48,34,-53,19,-92,-209,-102,-58,-39,-48
-58,-9,48,34,-53,19,-97,-214,-107,-58,-39,-48
-58,-14,43,36,-51,14,-97,-214,-107,-58,-39,-48
-58,-14,43,36,-51,14,-97,-214,-107,-58,-39,-48
-58,-19,39,39,-48,9,-97,-219,-107,-58,-43,-48
-58,-19,39,39,-48,9,-97,-219,-107,-58,-48,-43
-53,-19,34,36,-43,7,-92,-219,-102,-58,-43,-43
-53,-9,43,31,-48,17,-92,-209,-97,-53,-43,-43
-48,4,53,21,-51,29,-78,-195,-87,-43,-34,-34
-48,14,63,17,-56,39,-73,-185,-78,-34,-24,-24
-48,19,68,14,-58,43,-68,-185,-78,-29,-19,-19
-48,19,68,14,-58,43,-58,-185,-73,-24,-14,-14
-48,19,68,14,-58,43,-48,-175,-58,-14,-9,-9
-39,29,68,4,-53,48,-39,-165,-53,-9,-9,-4
-24,48,73,-12,-48,61,-24,-136,-24,9,14,14
0,73,73,-36,-36,73,-14,-126,-9,34,34,29
9,82,73,-46,-31,78,-29,-122,-19,39,34,34
19,92,73,-56,-26,82,-48,-136,-29,34,34,34
24,97,73,-61,-24,85,-78,-156,-39,24,24,29
29,97,68,-63,-19,82,-107,-180,-53,14,19,24
39,112,73,-75,-17,92,-136,-209,-78,-4,14,24
48,112,63,-80,-7,87,-151,-224,-87,-14,14,29
53,112,58,-82,-2,85,-156,-229,-92,-14,14,34
58,102,43,-80,7,73,-161,-229,-97,-9,14,34
53,73,19,-63,17,46,-151,-224,-87,-9,14,24
43,43,0,-43,21,21,-136,-200,-78,-4,14,19
39,19,-19,-29,29,0,-126,-185,-68,-4,9,9
19,0,-19,-9,19,-9,-107,-175,-63,0,9,0
-4,4,9,0,-7,7,-87,-161,-63,0,4,-4
-19,14,34,2,-26,24,-87,-170,-68,-14,-9,-14
-43,9,53,17,-48,31,-97,-204,-92,-29,-19,-19
-53,4,58,24,-56,31,-102,-224,-102,-39,-29,-29
-68,-4,63,36,-65,29,-107,-234,-112,-48,-39,-34
-73,-24,48,48,-61,12,-112,-244,-126,-63,-48,-43
-73,-34,39,53,-56,2,-112,-244,-136,-68,-58,-48
-73,-39,34,56,-53,-2,-112,-239,-136,-73,-63,-48
-73,-43,29,58,-51,-7,-112,-239,-136,-73,-63,-48
-78,-48,29,63,-53,-9,-112,-239,-136,-73,-63,-48
-78,-53,24,65,-51,-14,-112,-239,-136,-73,-63,-48
-78,-53,24,65,-51,-14,-112,-244,-131,-68,-63,-48
-73,-53,19,63,-46,-17,-107,-239,-131,-68,-58,-48
-68,-58,9,63,-39,-24,-107,-239,-131,-68,-58,-53
-78,-73,4,75,-41,-34,-102,-229,-122,-73,-63,-58
-97,-78,19,87,-58,-29,-87,-219,-126,-92,-68,-58
-146,-102,43,124,-95,-29,-43,-253,-175,-131,-107,-82
-195,-122,73,158,-134,-24,4,-287,-224,-165,-136,-107
-224,-131,92,178,-158,-19,39,-297,-195,-146,-136,-117
-244,-107,136,175,-190,14,117,-161,-48,-43,-78,-97
-190,-97,92,143,-141,-2,146,-19,97,68,9,-58
-48,-58,-9,53,-19,-34,170,229,317,234,126,4
161,29,-131,-95,146,-51,244,570,610,458,287,92
448,229,-219,-339,334,4,175,1005,1078,839,570,273
971,741,-229,-856,600,256,-224,1688,1986,1644,1180,683
1420,1234,-185,-1327,802,524,-595,2132,2615,2239,1683,1049
1610,1117,-492,-1363,1051,312,-761,2283,2547,2059,1556,990
1493,785,-707,-1139,1100,39,-873,1708,1712,1327,1063,732
1215,395,-819,-805,1017,-212,-1054,688,712,527,507,419
883,24,-858,-453,871,-417,-1322,-756,-497,-283,-29,126
566,-165,-732,-200,649,-448,-1366,-1634,-1171,-668,-283,-24
370,-97,-468,-136,419,-283,-1146,-1400,-995,-556,-224,9
268,-19,-287,-124,278,-153,-863,-990,-692,-390,-151,29
170,-4,-175,-82,173,-90,-644,-712,-512,-302,-126,14
87,-4,-92,-41,90,-48,-400,-448,-322,-195,-82,4
24,-24,-48,0,36,-36,-195,-234,-175,-117,-53,-14
-9,-53,-43,31,17,-48,-92,-141,-97,-78,-53,-29
-39,-53,-14,46,-12,-34,-14,-82,-63,-58,-48,-34
-53,-43,9,48,-31,-17,4,-73,-63,-48,-53,-43
-63,-48,14,56,-39,-17,14,-73,-63,-53,-73,-53
-63,-48,14,56,-39,-17,4,-73,-63,-63,-73,-58
-73,-48,24,61,-48,-12,14,-63,-58,-63,-68,-58
-73,-48,24,61,-48,-12,34,-39,-43,-53,-63,-58
-73,-48,24,61,-48,-12,39,-34,-39,-53,-63,-58
-73,-48,24,61,-48,-12,48,-19,-34,-48,-63,-58
-78,-48,29,63,-53,-9,58,-4,-24,-39,-63,-58
-78,-48,29,63,-53,-9,68,4,-9,-34,-63,-58
-78,-48,29,63,-53,-9,73,14,-9,-29,-63,-58
-78,-53,24,65,-51,-14,78,19,-9,-29,-58,-58
-78,-58,19,68,-48,-19,82,24,-9,-29,-58,-58
-78,-58,19,68,-48,-19,87,39,0,-24,-53,-48
-78,-63,14,70,-46,-24,97,43,0,-19,-48,-43
-78,-68,9,73,-43,-29,97,53,4,-19,-48,-48
-78,-68,9,73,-43,-29,107,63,14,-14,-48,-48
-78,-63,14,70,-46,-24,117,73,19,-14,-43,-48
-78,-58,19,68,-48,-19,122,87,24,-14,-39,-48
-78,-68,9,73,-43,-29,131,97,34,-9,-39,-53
-78,-78,0,78,-39,-39,141,107,39,-9,-39,-53
-78,-78,0,78,-39,-39,146,117,39,-4,-39,-53
-78,-78,0,78,-39,-39,151,126,48,-4,-39,-53
-82,-73,9,78,-46,-31,156,141,53,0,-34,-53
-87,-68,19,78,-53,-24,156,151,53,0,-34,-53
-87,-63,24,75,-56,-19,165,156,58,0,-34,-53
-87,-53,34,70,-61,-9,175,161,68,0,-34,-53
-87,-53,34,70,-61,-9,180,175,73,4,-34,-53
-87,-53,34,70,-61,-9,190,180,73,4,-39,-53
-82,-53,29,68,-56,-12,200,195,73,4,-39,-53
-82,-48,34,65,-58,-7,209,204,78,4,-39,-53
-87,-43,43,65,-65,0,219,219,82,4,-39,-48
-87,-39,48,63,-68,4,229,234,87,4,-39,-48
-87,-34,53,61,-70,9,234,244,87,4,-43,-58
-87,-34,53,61,-70,9,244,258,92,0,-43,-58
-87,-29,58,58,-73,14,258,273,92,0,-48,-58
-87,-19,68,53,-78,24,273,287,92,0,-48,-58
-82,-14,68,48,-75,26,287,307,97,-4,-43,-58
-78,-14,63,46,-70,24,307,326,97,-4,-39,-58
-78,-24,53,51,-65,14,317,341,97,-9,-43,-58
-82,-24,58,53,-70,17,336,356,97,-14,-48,-58
-82,-29,53,56,-68,12,356,366,97,-29,-53,-58
-87,-39,48,63,-68,4,370,385,87,-39,-63,-53
-97,-39,58,68,-78,9,380,395,87,-39,-63,-58
-102,-29,73,65,-87,21,395,409,82,-43,-68,-63
-102,-39,63,70,-82,12,409,424,73,-58,-78,-78
-107,-39,68,73,-87,14,419,434,63,-78,-87,-87
-107,-53,53,80,-80,0,439,444,48,-82,-97,-87
-112,-63,48,87,-80,-7,448,458,24,-97,-102,-92
-117,-63,53,90,-85,-4,458,463,19,-112,-107,-92
-117,-63,53,90,-85,-4,468,468,14,-122,-112,-92
-117,-68,48,92,-82,-9,488,478,4,-136,-117,-92
-117,-73,43,95,-80,-14,497,488,-4,-151,-126,-92
-117,-73,43,95,-80,-14,497,492,-14,-151,-131,-97
-112,-68,43,90,-78,-12,492,483,-29,-151,-136,-97
-112,-63,48,87,-80,-7,463,439,-43,-170,-136,-97
-107,-58,48,82,-78,-4,424,395,-63,-180,-136,-97
-97,-53,43,75,-70,-4,385,346,-87,-180,-141,-97
-87,-48,39,68,-63,-4,336,297,-107,-180,-136,-92
-82,-34,48,58,-65,7,287,234,-126,-185,-136,-92
-68,-19,48,43,-58,14,239,170,-141,-180,-136,-92
-63,-19,43,41,-53,12,190,122,-141,-161,-122,-82
-58,-9,48,34,-53,19,146,73,-141,-146,-107,-73
-48,-19,29,34,-39,4,102,39,-141,-131,-87,-53
-48,-29,19,39,-34,-4,68,-4,-136,-112,-73,-43
-43,-29,14,36,-29,-7,34,-34,-131,-92,-58,-39
-39,-24,14,31,-26,-4,14,-63,-126,-87,-48,-29
-29,-19,9,24,-19,-4,-9,-82,-117,-73,-43,-19
-24,-14,9,19,-17,-2,-24,-97,-112,-58,-34,-14
-24,-9,14,17,-19,2,-43,-117,-107,-53,-29,-14
-24,-9,14,17,-19,2,-58,-131,-97,-48,-29,-19
-24,-9,14,17,-19,2,-63,-141,-102,-48,-24,-19
-29,-14,14,21,-21,0,-68,-156,-97,-39,-19,-19
-29,-14,14,21,-21,0,-78,-161,-97,-34,-19,-19
-29,-14,14,21,-21,0,-87,-165,-92,-34,-14,-19
-29,-14,14,21,-21,0,-87,-161,-87,-29,-14,-19
-29,-14,14,21,-21,0,-92,-161,-87,-29,-14,-19
-29,-19,9,24,-19,-4,-87,-165,-87,-34,-19,-19
-34,-24,9,29,-21,-7,-82,-165,-87,-34,-24,-19
-34,-24,9,29,-21,-7,-82,-165,-82,-34,-24,-19
-34,-24,9,29,-21,-7,-82,-165,-82,-34,-24,-19
-34,-24,9,29,-21,-7,-78,-165,-82,-34,-19,-19
-29,-24,4,26,-17,-9,-78,-161,-82,-29,-14,-19
-29,-24,4,26,-17,-9,-73,-156,-73,-29,-14,-19
-34,-29,4,31,-19,-12,-63,-151,-68,-29,-14,-19
-34,-29,4,31,-19,-12,-63,-151,-68,-29,-19,-24
-34,-29,4,31,-19,-12,-63,-146,-73,-29,-19,-24
-34,-29,4,31,-19,-12,-68,-146,-73,-34,-19,-29
-39,-34,4,36,-21,-14,-63,-146,-73,-34,-19,-29
-43,-34,9,39,-26,-12,-63,-141,-73,-34,-19,-24
-43,-34,9,39,-26,-12,-63,-141,-73,-34,-19,-19
-43,-29,14,36,-29,-7,-63,-141,-78,-34,-24,-19
-43,-24,19,34,-31,-2,-58,-141,-82,-34,-29,-19
-48,-19,29,34,-39,4,-58,-141,-82,-34,-29,-24
-48,-19,29,34,-39,4,-58,-136,-82,-39,-34,-29
-48,-24,24,36,-36,0,-58,-136,-82,-39,-34,-34
-48,-24,24,36,-36,0,-58,-136,-87,-39,-34,-34
-48,-24,24,36,-36,0,-53,-136,-87,-39,-34,-34
-53,-24,29,39,-41,2,-48,-136,-87,-39,-39,-34
-53,-24,29,39,-41,2,-48,-136,-82,-43,-43,-34
-53,-24,29,39,-41,2,-48,-141,-78,-43,-43,-34
-53,-34,19,43,-36,-7,-48,-141,-78,-43,-43,-34
-53,-39,14,46,-34,-12,-48,-146,-82,-43,-43,-34
-53,-43,9,48,-31,-17,-58,-146,-87,-43,-48,-34
-53,-43,9,48,-31,-17,-63,-151,-97,-48,-48,-34
-53,-43,9,48,-31,-17,-63,-156,-97,-48,-48,-34
-53,-43,9,48,-31,-17,-63,-156,-97,-48,-48,-34
-58,-39,19,48,-39,-9,-68,-161,-102,-48,-48,-39
-58,-34,24,46,-41,-4,-68,-165,-102,-48,-48,-39
-58,-34,24,46,-41,-4,-68,-165,-102,-48,-48,-34
-58,-34,24,46,-41,-4,-68,-170,-102,-53,-48,-29
-58,-34,24,46,-41,-4,-68,-170,-97,-53,-43,-29
-58,-34,24,46,-41,-4,-68,-170,-97,-53,-39,-24
-58,-34,24,46,-41,-4,-73,-180,-102,-53,-39,-24
-58,-34,24,46,-41,-4,-78,-185,-107,-53,-39,-24
-53,-34,19,43,-36,-7,-82,-185,-107,-53,-39,-24
-53,-39,14,46,-34,-12,-82,-190,-107,-58,-39,-29
-53,-34,19,43,-36,-7,-82,-195,-112,-58,-39,-29
-58,-29,29,43,-43,0,-87,-200,-117,-58,-39,-29
-53,-24,29,39,-41,2,-87,-200,-117,-58,-43,-29
-48,-19,29,34,-39,4,-87,-204,-117,-58,-48,-29
-48,-19,29,34,-39,4,-87,-204,-117,-58,-48,-29
-48,-19,29,34,-39,4,-87,-204,-117,-58,-48,-29
-53,-34,19,43,-36,-7,-87,-204,-117,-58,-48,-29
-53,-39,14,46,-34,-12,-87,-204,-117,-58,-43,-29
-58,-48,9,53,-34,-19,-87,-209,-117,-58,-43,-29
-58,-48,9,53,-34,-19,-87,-209,-117,-58,-39,-24
-53,-53,0,53,-26,-26,-73,-209,-112,-58,-34,-19
-53,-48,4,51,-29,-21,-63,-200,-107,-53,-34,-14
-48,-34,14,41,-31,-9,-58,-190,-102,-43,-29,-9
-48,-24,24,36,-36,0,-63,-185,-97,-34,-24,-4
-53,-4,48,29,-51,21,-63,-195,-102,-34,-19,0
-58,9,68,24,-63,39,-58,-204,-102,-34,-14,4
-58,14,73,21,-65,43,-48,-195,-87,-29,-14,0
-48,29,78,9,-63,53,-39,-185,-82,-29,-19,-4
-43,43,87,0,-65,65,-24,-151,-53,-14,0,9
-29,63,92,-17,-61,78,-14,-136,-39,4,14,19
-9,73,82,-31,-46,78,-24,-136,-43,14,14,24
9,82,73,-46,-31,78,-39,-156,-48,14,14,24
14,87,73,-51,-29,80,-68,-165,-58,4,14,29
19,87,68,-53,-24,78,-97,-180,-73,-4,19,34
29,102,73,-65,-21,87,-131,-214,-92,-14,14,34
39,102,63,-70,-12,82,-151,-234,-97,-14,14,39
39,112,73,-75,-17,92,-156,-244,-107,-19,14,43
39,112,73,-75,-17,92,-161,-248,-117,-19,14,43
39,92,53,-65,-7,73,-161,-244,-107,-19,14,34
34,73,39,-53,-2,56,-156,-219,-97,-14,14,29
29,43,14,-36,7,29,-136,-200,-78,-14,9,24
9,19,9,-14,0,14,-107,-185,-63,-9,9,19
-14,4,19,4,-17,12,-78,-161,-58,-4,4,14
-29,-4,24,17,-26,9,-68,-161,-58,-14,-9,4
-43,-14,29,29,-36,7,-78,-190,-82,-29,-14,0
-43,-24,19,34,-31,-2,-82,-204,-92,-39,-19,-9
-58,-39,19,48,-39,-9,-87,-214,-102,-48,-29,-19
-63,-63,0,63,-31,-31,-92,-224,-117,-63,-39,-34
-63,-68,-4,65,-29,-36,-97,-239,-131,-68,-48,-39
-63,-68,-4,65,-29,-36,-102,-248,-136,-73,-53,-39
-68,-68,0,68,-34,-34,-102,-248,-141,-73,-53,-39
-78,-68,9,73,-43,-29,-102,-248,-146,-73,-53,-39
-78,-68,9,73,-43,-29,-107,-244,-146,-78,-53,-39
-78,-63,14,70,-46,-24,-112,-244,-141,-78,-53,-39
-78,-58,19,68,-48,-19,-107,-239,-141,-78,-53,-34
-78,-58,19,68,-48,-19,-107,-239,-141,-78,-58,-34
-78,-73,4,75,-41,-34,-97,-234,-131,-73,-58,-43
-87,-78,9,82,-48,-34,-78,-229,-136,-82,-58,-48
-136,-112,24,124,-80,-43,-34,-263,-190,-136,-112,-78
-185,-141,43,163,-114,-48,14,-297,-244,-185,-156,-107
-219,-161,58,190,-139,-51,48,-297,-214,-161,-146,-117
-244,-146,97,195,-170,-24,126,-151,-68,-53,-78,-97
-200,-141,58,170,-129,-41,161,-19,87,63,4,-53
-68,-107,-39,87,-14,-73,190,219,317,234,117,14
122,-14,-136,-53,129,-75,273,566,634,478,292,112
390,190,-200,-290,295,-4,214,1005,1127,878,590,302
902,712,-190,-807,546,261,-190,1683,2049,1708,1215,712
1342,1215,-126,-1278,734,544,-566,2122,2693,2327,1732,1078
1537,1107,-429,-1322,983,339,-722,2293,2620,2137,1620,1039
1424,785,-639,-1105,1032,73,-824,1737,1781,1395,1141,800
1146,424,-722,-785,934,-148,-990,746,790,610,590,497
814,82,-732,-448,773,-324,-1244,-668,-409,-185,58,214
492,-117,-610,-187,551,-363,-1298,-1581,-1117,-605,-224,43
292,-58,-351,-117,322,-204,-1088,-1381,-976,-527,-195,58
200,14,-185,-107,192,-85,-824,-985,-692,-375,-136,58
112,24,-87,-68,100,-31,-624,-722,-531,-302,-126,24
48,34,-14,-41,31,9,-400,-463,-341,-195,-82,14
4,24,19,-14,-7,21,-214,-253,-195,-117,-53,-4
-24,-24,0,24,-12,-12,-92,-146,-107,-73,-48,-19
-48,-43,4,46,-26,-19,4,-73,-63,-48,-39,-24
-58,-53,4,56,-31,-24,14,-63,-63,-39,-39,-34
-63,-78,-14,70,-24,-46,14,-63,-63,-43,-53,-43
-63,-82,-19,73,-21,-51,9,-63,-63,-53,-53,-43
-73,-87,-14,80,-29,-51,24,-53,-58,-53,-48,-39
-82,-87,-4,85,-39,-46,43,-29,-48,-43,-43,-39
-92,-87,4,90,-48,-41,48,-24,-48,-43,-43,-39
-92,-82,9,87,-51,-36,53,-14,-48,-43,-48,-39
-97,-78,19,87,-58,-29,58,-4,-43,-39,-53,-39
-87,-68,19,78,-53,-24,68,4,-29,-34,-53,-39
-78,-58,19,68,-48,-19,73,14,-29,-29,-53,-39
-78,-58,19,68,-48,-19,78,19,-24,-24,-48,-39
-78,-58,19,68,-48,-19,82,24,-19,-19,-48,-39
-78,-58,19,68,-48,-19,87,39,-9,-14,-43,-34
-78,-63,14,70,-46,-24,97,43,-9,-9,-39,-34
-78,-68,9,73,-43,-29,97,53,0,-14,-39,-39
-78,-68,9,73,-43,-29,107,63,14,-14,-39,-39
-78,-63,14,70,-46,-24,117,73,19,-14,-39,-39
-78,-58,19,68,-48,-19,122,87,24,-14,-39,-39
-78,-58,19,68,-48,-19,136,97,34,-9,-39,-39
-78,-58,19,68,-48,-19,151,107,39,-9,-39,-34
-82,-68,14,75,-48,-26,156,117,39,-4,-39,-34
-87,-78,9,82,-48,-34,161,126,48,-4,-39,-34
-87,-78,9,82,-48,-34,170,141,53,0,-34,-34
-87,-78,9,82,-48,-34,175,151,53,0,-34,-34
-87,-73,14,80,-51,-29,175,156,53,0,-34,-34
-87,-63,24,75,-56,-19,175,161,58,0,-34,-34
-82,-58,24,70,-53,-17,180,175,63,9,-29,-34
-78,-53,24,65,-51,-14,190,180,63,14,-29,-34
-73,-53,19,63,-46,-17,204,200,63,14,-29,-34
-73,-48,24,61,-48,-12,219,214,68,14,-29,-34
-78,-48,29,63,-53,-9,229,229,73,14,-29,-29
-78,-48,29,63,-53,-9,239,244,78,14,-29,-29
-78,-48,29,63,-53,-9,248,248,78,14,-39,-43
-78,-53,24,65,-51,-14,263,258,82,9,-43,-48
-78,-48,29,63,-53,-9,273,273,82,4,-48,-48
-78,-39,39,58,-58,0,283,287,82,0,-48,-48
-78,-34,43,56,-61,4,297,307,87,-4,-43,-43
-78,-34,43,56,-61,4,317,326,87,-4,-39,-39
-78,-43,34,61,-56,-4,326,341,87,-4,-43,-39
-82,-43,39,63,-61,-2,346,356,87,-4,-48,-39
-82,-39,43,61,-63,2,361,366,87,-19,-53,-39
-87,-39,48,63,-68,4,370,385,78,-29,-63,-34
-87,-39,48,63,-68,4,380,400,73,-34,-63,-39
-82,-29,53,56,-68,12,395,419,63,-43,-68,-43
-82,-34,48,58,-65,7,409,434,53,-58,-78,-53
-87,-29,58,58,-73,14,419,444,43,-78,-87,-58
-92,-43,48,68,-70,2,439,448,34,-87,-97,-63
-102,-53,48,78,-75,-2,448,458,14,-107,-102,-73
-107,-53,53,80,-80,0,458,463,0,-122,-112,-82
-107,-53,53,80,-80,0,468,468,-14,-131,-122,-92
-107,-53,53,80,-80,0,483,478,-24,-146,-126,-92
-107,-53,53,80,-80,0,488,488,-34,-161,-136,-92
-107,-58,48,82,-78,-4,488,483,-48,-170,-146,-97
-102,-58,43,80,-73,-7,483,463,-68,-180,-156,-97
-107,-68,39,87,-73,-14,453,424,-82,-195,-156,-97
-107,-78,29,92,-68,-24,414,385,-102,-200,-156,-97
-97,-63,34,80,-65,-14,375,336,-122,-200,-156,-87
-87,-48,39,68,-63,-4,326,287,-136,-200,-146,-73
-82,-29,53,56,-68,12,283,234,-146,-195,-136,-68
-68,-9,58,39,-63,24,239,180,-151,-180,-126,-63
-58,-24,34,41,-46,4,195,126,-151,-165,-112,-53
-48,-29,19,39,-34,-4,156,73,-151,-156,-97,-43
-39,-34,4,36,-21,-14,112,39,-151,-141,-82,-24
-39,-39,0,39,-19,-19,78,-4,-146,-122,-73,-14
-34,-39,-4,36,-14,-21,39,-34,-141,-102,-63,-14
-29,-34,-4,31,-12,-19,14,-63,-136,-97,-58,-9
-24,-29,-4,26,-9,-17,-9,-87,-126,-82,-53,-4
-24,-24,0,24,-12,-12,-24,-107,-122,-68,-43,-4
-24,-24,0,24,-12,-12,-39,-122,-117,-58,-34,0
-24,-29,-4,26,-9,-17,-48,-131,-107,-48,-29,0
-24,-24,0,24,-12,-12,-53,-141,-107,-48,-24,0
-29,-24,4,26,-17,-9,-58,-156,-97,-39,-19,0
-29,-19,9,24,-19,-4,-58,-156,-92,-34,-19,0
-29,-14,14,21,-21,0,-58,-156,-82,-34,-14,0
-29,-14,14,21,-21,0,-63,-156,-78,-29,-19,-4
-29,-14,14,21,-21,0,-73,-161,-78,-29,-24,-9
-29,-9,19,19,-24,4,-73,-165,-78,-29,-24,-9
-34,-4,29,19,-31,12,-73,-165,-78,-24,-24,-9
-29,-4,24,17,-26,9,-73,-165,-78,-24,-24,-4
-24,-4,19,14,-21,7,-73,-165,-82,-24,-24,0
-24,-14,9,19,-17,-2,-68,-161,-82,-29,-24,0
-19,-24,-4,21,-7,-14,-68,-151,-82,-29,-24,0
-24,-24,0,24,-12,-12,-68,-151,-78,-29,-19,0
-34,-29,4,31,-19,-12,-63,-151,-78,-29,-14,0
-34,-29,4,31,-19,-12,-63,-151,-73,-29,-19,-4
-34,-29,4,31,-19,-12,-63,-146,-73,-29,-19,-4
-29,-29,0,29,-14,-14,-63,-141,-73,-29,-19,-9
-29,-34,-4,31,-12,-19,-53,-136,-73,-24,-19,-9
-34,-34,0,34,-17,-17,-53,-131,-73,-24,-19,-9
-34,-34,0,34,-17,-17,-53,-131,-73,-24,-19,-9
-39,-34,4,36,-21,-14,-53,-131,-73,-29,-19,-9
-43,-34,9,39,-26,-12,-48,-131,-73,-34,-19,-9
-48,-24,24,36,-36,0,-43,-136,-73,-34,-19,-9
-48,-19,29,34,-39,4,-39,-136,-73,-39,-24,-9
-43,-24,19,34,-31,-2,-39,-136,-73,-39,-24,-9
-39,-24,14,31,-26,-4,-39,-136,-78,-39,-24,-4
-39,-24,14,31,-26,-4,-43,-136,-78,-39,-24,-4
-43,-24,19,34,-31,-2,-48,-136,-78,-39,-29,-4
-48,-24,24,36,-36,0,-48,-136,-78,-43,-34,-9
-53,-24,29,39,-41,2,-48,-141,-78,-43,-34,-14
-53,-29,24,41,-39,-2,-48,-136,-73,-43,-34,-14
-53,-29,24,41,-39,-2,-48,-136,-73,-43,-34,-14
-53,-43,9,48,-31,-17,-53,-136,-73,-39,-39,-14
-53,-53,0,53,-26,-26,-53,-141,-78,-39,-39,-14
-53,-43,9,48,-31,-17,-53,-151,-78,-39,-39,-14
-53,-34,19,43,-36,-7,-53,-156,-78,-39,-39,-14
-53,-34,19,43,-36,-7,-58,-161,-87,-39,-39,-19
-48,-34,14,41,-31,-9,-58,-165,-92,-39,-39,-19
-48,-39,9,43,-29,-14,-63,-165,-92,-39,-34,-19
-48,-43,4,46,-26,-19,-68,-170,-92,-43,-29,-19
-48,-43,4,46,-26,-19,-68,-170,-92,-48,-29,-19
-48,-43,4,46,-26,-19,-68,-170,-97,-53,-29,-14
-48,-34,14,41,-31,-9,-73,-180,-102,-53,-29,-14
-48,-24,24,36,-36,0,-78,-185,-107,-53,-29,-14
-43,-24,19,34,-31,-2,-82,-185,-107,-53,-29,-14
-43,-29,14,36,-29,-7,-82,-190,-107,-58,-29,-19
-48,-29,19,39,-34,-4,-87,-190,-112,-58,-34,-19
-58,-29,29,43,-43,0,-97,-200,-122,-58,-39,-19
-58,-34,24,46,-41,-4,-97,-200,-122,-58,-39,-19
-58,-39,19,48,-39,-9,-97,-204,-126,-58,-39,-19
-53,-48,4,51,-29,-21,-87,-204,-122,-58,-39,-19
-48,-58,-9,53,-19,-34,-78,-204,-117,-58,-39,-19
-48,-58,-9,53,-19,-34,-78,-204,-117,-58,-39,-19
-48,-53,-4,51,-21,-29,-82,-204,-117,-58,-39,-19
-53,-53,0,53,-26,-26,-92,-204,-122,-58,-39,-19
-58,-48,9,53,-34,-19,-107,-209,-126,-58,-39,-19
-58,-34,24,46,-41,-4,-107,-209,-126,-58,-39,-14
-53,-14,39,34,-46,12,-102,-209,-122,-58,-34,-14
-53,0,53,26,-53,26,-97,-200,-112,-53,-34,-14
-48,14,63,17,-56,39,-78,-190,-102,-43,-29,-9
-48,9,58,19,-53,34,-73,-185,-97,-34,-24,-4
-48,0,48,24,-48,24,-68,-185,-97,-34,-19,0
-48,-9,39,29,-43,14,-43,-185,-92,-29,-4,4
-48,-14,34,31,-41,9,-19,-175,-78,-14,9,9
-39,0,39,19,-39,19,-19,-165,-73,-9,0,14
-24,19,43,2,-34,31,-24,-141,-48,4,9,29
0,63,63,-31,-31,63,-29,-136,-39,19,19,29
9,92,82,-51,-36,87,-48,-136,-48,14,14,24
19,102,82,-61,-31,92,-68,-165,-58,4,14,34
24,107,82,-65,-29,95,-97,-195,-68,-4,9,43
29,102,73,-65,-21,87,-126,-209,-82,-14,14,43
39,112,73,-75,-17,92,-151,-224,-102,-24,14,43
48,112,63,-80,-7,87,-161,-234,-107,-24,14,48
48,112,63,-80,-7,87,-161,-234,-107,-24,14,53
48,102,53,-75,-2,78,-156,-229,-107,-14,14,53
43,82,39,-63,2,61,-141,-224,-97,-9,14,43
34,58,24,-46,4,41,-126,-200,-82,-4,9,39
29,29,0,-29,14,14,-117,-185,-68,-4,0,29
9,4,-4,-7,7,0,-97,-175,-63,0,0,19
-14,-14,0,14,-7,-7,-78,-161,-63,0,-4,14
-29,-24,4,26,-17,-9,-78,-170,-68,-14,-19,4
-48,-34,14,41,-31,-9,-87,-200,-92,-29,-29,0
-53,-34,19,43,-36,-7,-92,-214,-102,-39,-39,-14
-68,-34,34,51,-51,0,-97,-224,-112,-48,-48,-24
-73,-53,19,63,-46,-17,-107,-234,-126,-68,-58,-34
-73,-58,14,65,-43,-21,-112,-244,-136,-78,-63,-39
-73,-63,9,68,-41,-26,-112,-248,-141,-82,-68,-39
-73,-68,4,70,-39,-31,-112,-248,-146,-82,-73,-39
-78,-68,9,73,-43,-29,-112,-248,-146,-78,-73,-39
-78,-73,4,75,-41,-34,-112,-244,-146,-73,-73,-39
-78,-82,-4,80,-36,-43,-107,-244,-141,-68,-63,-34
-78,-92,-14,85,-31,-53,-97,-239,-141,-68,-53,-29
-78,-97,-19,87,-29,-58,-92,-239,-141,-68,-58,-34
-87,-112,-24,100,-31,-68,-78,-239,-141,-73,-68,-43
-102,-112,-9,107,-46,-61,-58,-239,-156,-92,-78,-48
-146,-131,14,139,-80,-58,-14,-273,-195,-131,-117,-73
-195,-141,53,168,-124,-43,34,-297,-214,-156,-141,-97
-195,-131,63,163,-129,-34,63,-244,-122,-87,-102,-87
-170,-87,82,129,-126,-2,131,-34,82,63,0,-43
-68,-29,39,48,-53,4,151,180,307,234,126,19
117,73,-43,-95,80,14,146,502,634,492,302,126
380,263,-117,-322,248,73,107,936,1098,873,580,302
702,541,-161,-622,431,190,-48,1434,1703,1366,961,546
1132,951,-180,-1041,656,385,-414,1981,2435,1995,1454,873
1444,1268,-175,-1356,810,546,-727,2200,2747,2298,1737,1102
1464,971,-492,-1217,978,239,-839,1995,2288,1815,1390,917
1220,531,-688,-875,954,-78,-922,1112,1166,907,790,600
941,195,-746,-568,844,-275,-1083,82,214,214,322,336
634,-73,-707,-280,671,-390,-1288,-1156,-800,-424,-107,102
385,-141,-527,-122,456,-334,-1200,-1556,-1127,-614,-248,14
253,-9,-263,-122,258,-136,-907,-1039,-746,-400,-126,73
161,24,-136,-92,148,-56,-658,-732,-522,-287,-87,58
82,4,-78,-43,80,-36,-473,-536,-395,-234,-87,19
39,0,-39,-19,39,-19,-278,-317,-229,-141,-53,4
-4,-29,-24,17,9,-26,-117,-151,-126,-87,-43,-14
-34,-63,-29,48,-2,-46,-43,-97,-87,-63,-53,-29
-58,-63,-4,61,-26,-34,9,-63,-73,-53,-48,-34
-68,-63,4,65,-36,-29,14,-53,-73,-58,-48,-43
-73,-78,-4,75,-34,-41,14,-53,-73,-73,-63,-53
-73,-78,-4,75,-34,-41,14,-53,-73,-73,-63,-53
-82,-78,4,80,-43,-36,29,-43,-68,-63,-58,-48
-82,-78,4,80,-43,-36,43,-19,-53,-53,-53,-48
-82,-82,0,82,-41,-41,48,-14,-43,-53,-53,-48
-82,-87,-4,85,-39,-46,53,-4,-39,-53,-53,-48
-87,-87,0,87,-43,-43,58,0,-34,-48,-48,-48
-87,-87,0,87,-43,-43,68,4,-19,-43,-43,-48
-87,-87,0,87,-43,-43,73,14,-19,-34,-43,-43
-87,-87,0,87,-43,-43,78,19,-14,-29,-39,-39
-87,-87,0,87,-43,-43,82,24,-9,-29,-39,-39
-87,-82,4,85,-46,-39,87,39,0,-24,-34,-34
-87,-68,19,78,-53,-24,97,43,0,-19,-34,-39
-87,-58,29,73,-58,-14,97,53,4,-19,-39,-48
-87,-68,19,78,-53,-24,107,63,14,-14,-39,-48
-87,-73,14,80,-51,-29,117,73,19,-14,-39,-48
-87,-68,19,78,-53,-24,126,87,24,-24,-39,-48
-87,-68,19,78,-53,-24,141,97,34,-29,-39,-48
-87,-68,19,78,-53,-24,151,107,39,-29,-39,-43
-87,-68,19,78,-53,-24,156,117,39,-24,-39,-43
-87,-68,19,78,-53,-24,161,126,48,-19,-39,-39
-87,-68,19,78,-53,-24,170,141,53,-9,-34,-34
-87,-68,19,78,-53,-24,175,156,53,-9,-34,-34
-87,-68,19,78,-53,-24,185,170,58,-9,-34,-34
-87,-53,34,70,-61,-9,195,180,68,-14,-39,-43
-87,-43,43,65,-65,0,200,195,73,-14,-43,-53
-87,-43,43,65,-65,0,209,200,73,-14,-48,-53
-82,-43,39,63,-61,-2,219,214,73,-14,-48,-53
-78,-43,34,61,-56,-4,229,224,78,-14,-48,-53
-78,-48,29,63,-53,-9,239,239,82,-14,-48,-48
-78,-48,29,63,-53,-9,239,248,82,-14,-48,-43
