I,II,III,aVR,aVL,aVF,V1,V2,V3,V4,V5,V6,
-87,-58,29,73,-58,-14,58,58,19,-9,-29,-39
-92,-58,34,75,-63,-12,58,58,19,-9,-29,-48
-97,-58,39,78,-68,-9,58,58,19,-9,-29,-58
-97,-53,43,75,-70,-4,58,58,19,-9,-29,-48
-97,-48,48,73,-73,0,58,58,19,-9,-29,-39
-92,-48,43,70,-68,-2,63,58,19,0,-29,-39
-87,-48,39,68,-63,-4,68,58,19,9,-29,-39
-82,-24,58,53,-70,17,68,53,19,0,-29,-39
-78,0,78,39,-78,39,68,48,19,-9,-29,-39
-78,-34,43,56,-61,4,68,48,19,-9,-29,-39
-78,-68,9,73,-43,-29,68,48,19,-9,-29,-39
-97,-87,9,92,-53,-39,58,43,14,-9,-29,-39
-117,-107,9,112,-63,-48,48,39,9,-9,-29,-39
-102,-73,29,87,-65,-21,58,39,9,-9,-29,-39
-87,-39,48,63,-68,4,68,39,9,-9,-29,-39
-73,-39,34,56,-53,-2,78,43,14,-9,-29,-39
-58,-39,19,48,-39,-9,87,48,19,-9,-29,-39
-68,-48,19,58,-43,-14,87,48,19,-4,-24,-39
-78,-58,19,68,-48,-19,87,48,19,0,-19,-39
-78,-43,34,61,-56,-4,78,48,19,4,-19,-39
-78,-29,48,53,-63,9,68,48,19,9,-19,-39
-73,-19,53,46,-63,17,78,53,24,9,-19,-39
-68,-9,58,39,-63,24,87,58,29,9,-19,-39
-68,-9,58,39,-63,24,87,58,34,14,-14,-34
-68,-9,58,39,-63,24,87,58,39,19,-9,-29
-58,0,58,29,-58,29,78,58,43,24,-4,-19
-48,9,58,19,-53,34,68,58,48,29,0,-9
-24,29,53,-2,-39,41,63,68,53,39,9,0
0,48,48,-24,-24,48,58,78,58,48,19,9
0,48,48,-24,-24,48,48,68,58,48,19,9
0,48,48,-24,-24,48,39,58,58,48,19,9
-4,34,39,-14,-21,36,39,53,53,43,14,4
-9,19,29,-4,-19,24,39,48,48,39,9,0
-9,19,29,-4,-19,24,34,48,43,39,9,0
-9,14,24,-2,-17,19,29,43,34,29,4,0
-9,9,19,0,-14,14,24,43,29,19,4,-4
-19,-9,9,14,-14,0,19,34,24,4,-4,-24
-19,-9,9,14,-14,0,19,29,14,-4,-14,-29
-19,-9,9,14,-14,0,19,29,14,-4,-14,-29
-19,-9,9,14,-14,0,34,34,14,-9,-14,-29
-24,-9,14,17,-19,2,53,39,9,-9,-14,-29
-39,-14,24,26,-31,4,68,39,9,0,-19,-34
-73,-34,39,53,-56,2,87,43,19,0,-24,-43
-92,-53,39,73,-65,-7,87,39,9,0,-29,-53
-102,-58,43,80,-73,-7,82,34,0,-9,-39,-58
-112,-58,53,85,-82,-2,82,34,0,-9,-39,-63
-122,-63,58,92,-90,-2,82,29,-4,-14,-39,-63
-122,-63,58,92,-90,-2,78,34,-4,-14,-39,-63
-126,-68,58,97,-92,-4,73,34,-4,-19,-43,-68
-122,-68,53,95,-87,-7,73,34,-9,-19,-43,-68
-122,-78,43,100,-82,-17,73,34,-9,-19,-48,-73
-126,-63,63,95,-95,0,73,34,-9,-19,-48,-68
-126,-48,78,87,-102,14,78,39,-4,-14,-43,-58
-131,-68,63,100,-97,-2,82,39,-4,-4,-43,-58
-131,-78,53,104,-92,-12,82,39,-4,0,-43,-58
-126,-73,53,100,-90,-9,82,39,-4,-9,-43,-58
-122,-73,48,97,-85,-12,82,39,-4,-14,-43,-58
-131,-87,43,109,-87,-21,82,39,-4,-14,-43,-58
-151,-102,48,126,-100,-26,78,39,-4,-14,-43,-58
-136,-97,39,117,-87,-29,78,29,-9,-19,-48,-58
-122,-78,43,100,-82,-17,82,19,-9,-19,-48,-63
-122,-68,53,95,-87,-7,87,34,-4,-14,-43,-58
-122,-58,63,90,-92,2,97,48,0,-9,-39,-53
-126,-82,43,104,-85,-19,97,53,4,-4,-34,-53
-131,-102,29,117,-80,-36,97,53,4,-4,-34,-53
-131,-92,39,112,-85,-26,97,48,4,-4,-34,-58
-131,-92,39,112,-85,-26,97,43,9,-4,-34,-63
-117,-73,43,95,-80,-14,97,53,9,-4,-34,-58
-107,-58,48,82,-78,-4,117,68,19,4,-29,-58
-112,-58,53,85,-82,-2,122,92,29,4,-29,-53
-112,-58,53,85,-82,-2,122,97,43,9,-29,-53
-107,-48,58,78,-82,4,151,141,87,29,-14,-53
-87,-29,58,58,-73,14,161,180,141,63,19,-29
-43,4,48,19,-46,26,165,97,136,82,43,9
9,53,43,-31,-17,48,156,4,122,107,78,58
97,107,9,-102,43,58,-4,-195,14,87,102,97
219,180,-39,-200,129,70,-278,-405,-78,73,122,136
312,248,-63,-280,187,92,-536,-658,-209,63,146,170
395,302,-92,-348,244,104,-854,-1010,-424,19,146,219
522,341,-180,-431,351,80,-1137,-1273,-585,-24,146,248
629,366,-263,-497,446,51,-1298,-1459,-766,-102,122,268
727,409,-317,-568,522,46,-1424,-1620,-927,-161,117,287
829,473,-356,-651,592,58,-1561,-1805,-1058,-161,141,341
868,541,-326,-705,597,107,-1654,-1971,-1151,-151,170,385
897,605,-292,-751,595,156,-1742,-2117,-1239,-151,190,419
927,639,-287,-783,607,175,-1766,-2156,-1263,-136,224,463
936,614,-322,-775,629,146,-1742,-2108,-1239,-126,239,478
927,570,-356,-749,641,107,-1693,-2069,-1229,-161,200,463
888,473,-414,-680,651,29,-1634,-2034,-1249,-244,122,405
834,361,-473,-597,653,-56,-1551,-1956,-1249,-326,48,346
810,263,-546,-536,678,-141,-1464,-1849,-1239,-429,-43,273
761,156,-605,-458,683,-224,-1351,-1703,-1185,-478,-117,229
722,73,-649,-397,685,-287,-1205,-1512,-1078,-502,-151,200
678,14,-663,-346,671,-324,-1078,-1337,-985,-507,-180,175
639,0,-639,-319,639,-319,-976,-1200,-878,-478,-175,175
619,24,-595,-322,607,-285,-854,-1044,-790,-453,-165,175
614,43,-570,-329,592,-263,-736,-893,-688,-405,-141,180
600,43,-556,-322,578,-256,-624,-736,-561,-326,-82,214
575,9,-566,-292,570,-278,-527,-610,-468,-278,-53,209
527,9,-517,-268,522,-253,-439,-483,-380,-253,-73,165
414,0,-414,-207,414,-207,-351,-366,-326,-244,-107,92
326,-34,-361,-146,344,-197,-239,-268,-263,-214,-117,24
239,-58,-297,-90,268,-178,-141,-180,-209,-180,-126,-24
126,-73,-200,-26,163,-136,-58,-97,-156,-141,-117,-39
53,-82,-136,14,95,-109,0,-29,-97,-112,-102,-48
0,-82,-82,41,41,-82,63,24,-48,-78,-82,-58
-53,-82,-29,68,-12,-56,112,82,-4,-48,-68,-68
-107,-92,14,100,-61,-39,156,141,43,-24,-53,-68
-151,-107,43,129,-97,-31,180,180,68,-19,-53,-82
-170,-117,53,143,-112,-31,204,195,78,-9,-68,-92
-170,-97,73,134,-122,-12,209,195,73,-9,-78,-92
-185,-97,87,141,-136,-4,214,200,73,-4,-63,-92
-175,-107,68,141,-122,-19,219,200,73,-4,-48,-92
-170,-117,53,143,-112,-31,224,214,97,4,-48,-92
-175,-117,58,146,-117,-29,234,224,102,9,-48,-97
-180,-112,68,146,-124,-21,224,219,102,9,-48,-97
-180,-107,73,143,-126,-17,214,214,102,9,-48,-97
-190,-107,82,148,-136,-12,219,224,102,9,-53,-102
-200,-117,82,158,-141,-17,219,224,102,4,-53,-102
-209,-136,73,173,-141,-31,224,234,102,0,-63,-102
-219,-151,68,185,-143,-41,229,248,102,0,-68,-102
-195,-126,68,161,-131,-29,239,258,107,0,-58,-97
-175,-102,73,139,-124,-14,248,268,112,4,-48,-92
-175,-92,82,134,-129,-4,248,263,117,4,-48,-92
-175,-78,97,126,-136,9,248,258,117,4,-53,-97
-180,-97,82,139,-131,-7,258,268,122,4,-53,-97
-190,-112,78,151,-134,-17,258,273,122,4,-53,-97
-190,-131,58,161,-124,-36,263,287,126,4,-53,-97
-195,-141,53,168,-124,-43,268,302,131,0,-58,-102
-195,-141,53,168,-124,-43,268,307,141,0,-58,-102
-195,-136,58,165,-126,-39,273,317,146,4,-58,-102
-195,-122,73,158,-134,-24,278,322,151,4,-63,-107
-195,-107,87,151,-141,-9,283,336,161,4,-63,-112
-200,-122,78,161,-139,-21,302,351,170,14,-63,-112
-214,-131,82,173,-148,-24,302,361,175,24,-68,-117
-214,-136,78,175,-146,-29,307,370,175,24,-68,-117
-214,-136,78,175,-146,-29,312,375,180,24,-68,-117
-214,-122,92,168,-153,-14,317,385,185,24,-68,-122
-229,-117,112,173,-170,-2,322,400,195,24,-68,-122
-229,-131,97,180,-163,-17,336,424,214,34,-63,-122
-229,-131,97,180,-163,-17,346,434,224,34,-58,-122
-219,-131,87,175,-153,-21,361,448,229,34,-58,-122
-219,-131,87,175,-153,-21,370,458,239,39,-58,-122
-239,-126,112,183,-175,-7,375,473,248,39,-58,-122
-253,-126,126,190,-190,0,380,488,263,48,-58,-122
-244,-122,122,183,-183,0,390,507,273,58,-53,-122
-239,-122,117,180,-178,-2,400,527,292,68,-48,-122
-244,-136,107,190,-175,-14,414,546,307,73,-43,-117
-244,-136,107,190,-175,-14,419,561,326,82,-34,-112
-248,-141,107,195,-178,-17,424,575,341,82,-24,-107
-248,-102,146,175,-197,21,439,590,351,87,-24,-102
-239,-92,146,165,-192,26,448,610,370,97,-14,-107
-239,-92,146,165,-192,26,453,619,380,102,-9,-107
-239,-92,146,165,-192,26,453,624,385,112,-4,-102
-239,-87,151,163,-195,31,453,624,385,117,-9,-102
-253,-73,180,163,-217,53,444,629,395,122,0,-97
-263,-73,190,168,-226,58,434,639,405,131,9,-87
-244,-73,170,158,-207,48,429,639,419,141,19,-78
-200,-58,141,129,-170,41,429,644,424,146,34,-63
-195,-29,165,112,-180,68,429,644,429,151,34,-63
-190,4,195,92,-192,100,429,634,434,151,34,-58
-200,-19,180,109,-190,80,419,619,429,156,43,-53
-209,-43,165,126,-187,61,395,610,424,161,48,-43
-204,-34,170,119,-187,68,380,600,434,165,58,-48
-195,-14,180,104,-187,82,361,590,434,170,68,-43
-151,24,175,63,-163,100,366,575,434,175,87,-24
-107,73,180,17,-143,126,351,556,424,180,97,-9
-112,73,185,19,-148,129,326,531,419,180,87,-4
-112,73,185,19,-148,129,312,507,414,185,87,9
-92,73,165,9,-129,119,292,473,395,185,92,14
-68,63,131,2,-100,97,268,448,380,180,97,24
-58,78,136,-9,-97,107,244,419,370,180,102,29
-48,78,126,-14,-87,102,214,380,351,175,102,34
-39,82,122,-21,-80,102,190,341,326,161,97,39
-19,92,112,-36,-65,102,165,307,297,151,87,39
-19,82,102,-31,-61,92,161,287,283,141,82,43
-29,53,82,-12,-56,68,141,244,244,126,78,43
-24,48,73,-12,-48,61,107,209,219,117,68,39
-19,43,63,-12,-41,53,82,185,200,107,63,34
-9,34,43,-12,-26,39,87,165,175,107,63,29
0,24,24,-12,-12,24,82,141,156,102,63,29
0,53,53,-26,-26,53,73,117,126,82,48,29
0,82,82,-41,-41,82,68,92,92,63,29,14
-9,48,58,-19,-34,53,53,73,78,48,19,9
-14,24,39,-4,-26,31,43,63,68,43,14,4
-14,14,29,0,-21,21,29,43,48,34,9,-4
-24,0,24,12,-24,12,24,34,34,24,9,-9
-34,14,48,9,-41,31,24,24,24,14,4,-14
-29,14,43,7,-36,29,24,14,14,9,-4,-14
-24,14,39,4,-31,26,24,14,14,9,-4,-9
-24,19,43,2,-34,31,24,4,0,0,-9,-9
-29,19,48,4,-39,34,19,4,0,0,-9,-14
-34,4,39,14,-36,21,19,4,0,-4,-14,-14
-39,0,39,19,-39,19,19,0,-4,-9,-24,-19
-48,19,68,14,-58,43,19,0,-14,-14,-39,-34
-53,9,63,21,-58,36,19,0,-14,-14,-39,-34
-58,4,63,26,-61,34,19,4,-14,-14,-39,-39
-58,-24,34,41,-46,4,34,4,-14,-14,-34,-39
-58,-53,4,56,-31,-24,48,9,-14,-14,-29,-39
-53,-53,0,53,-26,-26,48,14,-14,-14,-34,-39
-48,-34,14,41,-31,-9,48,14,-14,-14,-34,-43
-48,-24,24,36,-36,0,48,14,-19,-14,-34,-48
-58,-24,34,41,-46,4,48,14,-19,-14,-34,-48
-73,-39,34,56,-53,-2,43,24,-9,-9,-34,-48
-87,-43,43,65,-65,0,48,24,-9,-9,-34,-48
-78,-53,24,65,-51,-14,48,34,-4,-9,-39,-48
-68,-53,14,61,-41,-19,48,39,0,-9,-39,-48
-68,-43,24,56,-46,-9,58,39,4,-14,-39,-43
-68,-43,24,56,-46,-9,58,43,9,-19,-43,-43
-68,-43,24,56,-46,-9,58,39,9,-19,-43,-43
-73,-43,29,58,-51,-7,58,39,4,-19,-48,-48
-73,-43,29,58,-51,-7,63,43,4,-19,-48,-48
-73,-39,34,56,-53,-2,63,48,4,-14,-39,-43
-73,-29,43,51,-58,7,63,48,9,-14,-39,-43
-73,-19,53,46,-63,17,63,53,14,-9,-39,-43
-73,-39,34,56,-53,-2,68,53,14,-4,-43,-53
-73,-48,24,61,-48,-12,68,48,9,-4,-43,-58
-73,-34,39,53,-56,2,68,48,9,-4,-39,-58
-73,-29,43,51,-58,7,73,53,14,0,-24,-48
-73,-14,58,43,-65,21,73,58,9,0,-24,-48
-73,4,78,34,-75,41,68,43,4,-4,-24,-48
-78,-19,58,48,-68,19,63,43,4,-4,-24,-48
-87,-43,43,65,-65,0,63,43,9,-4,-29,-48
-92,-53,39,73,-65,-7,68,48,9,-4,-29,-48
-92,-82,9,87,-51,-36,73,53,9,-4,-29,-43
-73,-43,29,58,-51,-7,78,48,9,-4,-29,-43
-53,0,53,26,-53,26,78,43,4,-4,-29,-43
-63,-14,48,39,-56,17,78,43,9,-4,-29,-39
-73,-34,39,53,-56,2,73,48,14,-4,-24,-29
-73,-43,29,58,-51,-7,73,48,14,-4,-24,-29
-73,-53,19,63,-46,-17,73,39,14,-4,-24,-29
-92,-53,39,73,-65,-7,63,39,9,-4,-24,-34
-112,-58,53,85,-82,-2,48,43,4,-4,-24,-43
-87,-34,53,61,-70,9,58,43,0,-4,-29,-48
-63,-4,58,34,-61,26,58,39,-4,-4,-29,-48
-63,-9,53,36,-58,21,58,39,-4,-4,-29,-39
-58,-14,43,36,-51,14,68,39,0,-4,-19,-39
-73,-14,58,43,-65,21,68,39,4,0,-19,-39
-92,-19,73,56,-82,26,63,39,4,4,-19,-39
-92,-34,58,63,-75,12,68,43,19,9,-14,-34
-92,-43,48,68,-70,2,82,53,34,14,-9,-29
-73,-19,53,46,-63,17,97,63,34,24,-4,-24
-48,14,63,17,-56,39,102,68,39,34,4,-14
-34,29,63,2,-48,46,97,68,39,34,9,-14
-19,58,78,-19,-48,68,87,63,39,29,9,-14
-19,58,78,-19,-48,68,78,58,39,29,9,-9
-9,48,58,-19,-34,53,53,58,43,39,14,-4
4,53,48,-29,-21,51,43,58,48,43,24,0
19,58,39,-39,-9,48,39,58,58,48,39,9
14,58,43,-36,-14,51,39,58,58,48,29,9
9,58,48,-34,-19,53,39,58,58,48,19,9
4,43,39,-24,-17,41,39,53,48,48,14,4
4,29,24,-17,-9,26,39,48,39,43,9,0
9,19,9,-14,0,14,39,48,34,39,4,0
9,0,-9,-4,9,-4,39,43,34,34,-4,-14
9,4,-4,-7,7,0,39,39,24,19,-14,-19
9,9,0,-9,4,4,39,39,24,14,-14,-19
4,14,9,-9,-2,12,29,34,19,4,-14,-19
-4,19,24,-7,-14,21,24,29,9,0,-14,-19
-9,14,24,-2,-17,19,39,29,9,9,-14,-19
-34,-4,29,19,-31,12,58,34,19,9,-14,-24
-73,-34,39,53,-56,2,68,34,14,9,-19,-34
-102,-48,53,75,-78,2,73,34,9,0,-29,-39
-102,-48,53,75,-78,2,73,34,9,0,-29,-43
-102,-53,48,78,-75,-2,73,29,4,-4,-29,-43
-112,-53,58,82,-85,2,73,29,4,-4,-29,-43
-126,-58,68,92,-97,4,73,24,4,-9,-34,-48
-117,-58,58,87,-87,0,73,24,0,-9,-34,-53
-112,-68,43,90,-78,-12,73,24,0,-9,-39,-63
-117,-68,48,92,-82,-9,73,24,-4,-9,-39,-63
-117,-68,48,92,-82,-9,78,29,-4,-4,-34,-58
-122,-63,58,92,-90,-2,92,29,-4,-4,-34,-58
-122,-48,73,85,-97,12,102,29,-4,-9,-34,-58
-117,-43,73,80,-95,14,82,29,-4,-9,-39,-58
-112,-43,68,78,-90,12,63,29,-4,-4,-43,-58
-126,-82,43,104,-85,-19,78,29,-4,-4,-43,-58
-151,-122,29,136,-90,-46,87,29,-4,-4,-43,-58
-131,-92,39,112,-85,-26,87,29,-4,-9,-48,-58
-112,-48,63,80,-87,7,92,29,0,-9,-48,-63
-112,-58,53,85,-82,-2,92,29,0,-9,-43,-58
-112,-68,43,90,-78,-12,97,29,0,-9,-39,-53
-112,-73,39,92,-75,-17,97,34,4,-4,-34,-53
-112,-73,39,92,-75,-17,97,34,4,-4,-34,-53
-117,-68,48,92,-82,-9,97,34,4,-4,-34,-53
-122,-73,48,97,-85,-12,97,34,9,-4,-34,-53
-117,-68,48,92,-82,-9,92,43,9,-4,-34,-48
-117,-68,48,92,-82,-9,107,58,19,4,-29,-48
-122,-68,53,95,-87,-7,122,87,29,4,-29,-43
-122,-68,53,95,-87,-7,131,97,43,9,-29,-43
-117,-53,63,85,-90,4,151,146,87,24,-19,-43
-97,-29,68,63,-82,19,151,190,141,53,9,-19
-58,9,68,24,-63,39,161,126,146,73,34,4
-9,63,73,-26,-41,68,156,53,141,97,68,39
97,122,24,-109,36,73,-14,-126,63,87,92,78
239,200,-39,-219,139,80,-297,-317,0,82,112,117
336,268,-68,-302,202,100,-556,-546,-102,78,136,146
424,322,-102,-373,263,109,-873,-873,-287,39,136,190
551,336,-214,-444,383,61,-1166,-1132,-434,-9,136,214
658,336,-322,-497,490,7,-1337,-1312,-600,-92,112,229
766,380,-385,-573,575,-2,-1454,-1473,-761,-156,92,234
878,444,-434,-661,656,4,-1581,-1659,-893,-161,102,273
951,502,-448,-727,700,26,-1688,-1844,-990,-141,146,331
1015,556,-458,-785,736,48,-1790,-2010,-1083,-131,180,380
1078,629,-448,-854,763,90,-1825,-2078,-1107,-122,209,414
1122,644,-478,-883,800,82,-1810,-2059,-1083,-117,219,419
1122,580,-541,-851,832,19,-1766,-2020,-1063,-141,200,429
1093,463,-629,-778,861,-82,-1712,-1986,-1073,-214,141,395
1039,366,-673,-702,856,-153,-1634,-1927,-1093,-283,58,317
1015,283,-732,-649,873,-224,-1551,-1839,-1102,-370,-43,224
966,161,-805,-563,885,-322,-1439,-1698,-1068,-434,-122,185
927,63,-863,-495,895,-400,-1293,-1512,-980,-473,-161,161
863,0,-863,-431,863,-431,-1156,-1337,-907,-492,-200,122
805,-19,-824,-392,814,-422,-1044,-1200,-819,-478,-204,107
761,-29,-790,-366,775,-409,-922,-1044,-732,-458,-200,107
732,-43,-775,-344,753,-409,-805,-893,-629,-414,-180,112
712,-4,-717,-353,714,-361,-702,-751,-531,-356,-136,136
683,0,-683,-341,683,-341,-614,-639,-468,-326,-122,122
639,9,-629,-324,634,-309,-502,-512,-380,-292,-122,102
531,9,-522,-270,527,-256,-390,-395,-326,-273,-136,53
409,-29,-439,-190,424,-234,-273,-302,-283,-244,-136,0
287,-58,-346,-114,317,-202,-170,-219,-248,-209,-136,-34
170,-63,-234,-53,202,-148,-78,-136,-195,-170,-126,-48
92,-63,-156,-14,124,-109,-9,-68,-136,-141,-112,-58
24,-63,-87,19,56,-75,48,-9,-82,-102,-87,-58
-43,-63,-19,53,-12,-41,92,53,-34,-68,-68,-58
-107,-78,29,92,-68,-24,141,112,19,-34,-53,-58
-161,-97,63,129,-112,-17,170,151,48,-19,-53,-73
-165,-107,58,136,-112,-24,204,180,68,-9,-58,-82
-151,-87,63,119,-107,-12,219,195,73,-9,-58,-82
-180,-92,87,136,-134,-2,219,200,73,-4,-53,-82
-185,-107,78,146,-131,-14,219,200,73,-4,-48,-82
-185,-131,53,158,-119,-39,224,209,92,4,-48,-78
-195,-146,48,170,-122,-48,234,214,92,9,-48,-78
-190,-122,68,156,-129,-26,224,214,92,9,-43,-78
-180,-97,82,139,-131,-7,214,214,92,9,-39,-78
-200,-107,92,153,-146,-7,229,229,92,14,-43,-82
-219,-126,92,173,-156,-17,239,234,92,14,-43,-82
-209,-126,82,168,-146,-21,248,234,92,9,-43,-82
-200,-122,78,161,-139,-21,258,239,92,9,-39,-82
-195,-112,82,153,-139,-14,253,244,92,4,-39,-82
-195,-102,92,148,-143,-4,248,248,92,4,-39,-82
-200,-126,73,163,-136,-26,248,248,97,4,-39,-82
-204,-146,58,175,-131,-43,248,248,97,4,-43,-87
-204,-126,78,165,-141,-24,263,258,102,4,-43,-87
-209,-102,107,156,-158,2,268,263,102,4,-43,-87
-209,-122,87,165,-148,-17,273,273,107,4,-48,-87
-214,-131,82,173,-148,-24,278,283,112,0,-58,-92
-219,-131,87,175,-153,-21,278,287,122,0,-58,-92
-224,-126,97,175,-161,-14,283,297,126,4,-58,-92
-224,-126,97,175,-161,-14,287,302,131,4,-58,-92
-224,-126,97,175,-161,-14,292,317,141,4,-53,-92
-229,-131,97,180,-163,-17,312,331,146,9,-53,-92
-244,-131,112,187,-178,-9,312,341,146,14,-58,-97
-244,-136,107,190,-175,-14,317,351,146,14,-58,-97
-244,-136,107,190,-175,-14,322,356,151,14,-58,-97
-244,-126,117,185,-180,-4,326,366,156,19,-53,-102
-258,-126,131,192,-195,2,331,380,165,24,-48,-102
-258,-151,107,204,-183,-21,346,405,185,34,-43,-102
-258,-161,97,209,-178,-31,356,414,195,34,-39,-102
-258,-151,107,204,-183,-21,370,434,200,34,-39,-102
-268,-141,126,204,-197,-7,380,448,209,39,-39,-102
-268,-126,141,197,-204,7,385,463,219,39,-39,-102
-263,-117,146,190,-204,14,390,478,234,48,-39,-102
-263,-112,151,187,-207,19,400,488,239,48,-34,-102
-268,-112,156,190,-212,21,409,497,253,48,-29,-102
-273,-112,161,192,-217,24,419,517,263,53,-29,-102
-273,-97,175,185,-224,39,419,531,278,63,-24,-102
-283,-126,156,204,-219,14,424,546,292,68,-14,-97
-287,-112,175,200,-231,31,439,561,302,78,-14,-92
-278,-102,175,190,-226,36,453,580,322,87,-4,-92
-278,-102,175,190,-226,36,463,590,331,92,0,-87
-278,-102,175,190,-226,36,463,600,341,102,9,-78
-278,-97,180,187,-229,41,463,605,346,107,9,-73
-278,-82,195,180,-236,56,468,610,356,112,19,-68
-273,-82,190,178,-231,53,473,619,366,122,29,-58
-273,-78,195,175,-234,58,468,624,380,131,34,-53
-248,-58,190,153,-219,65,468,634,385,136,43,-43
-244,-53,190,148,-217,68,458,634,385,141,43,-43
-239,-43,195,141,-217,75,448,624,385,141,43,-39
-234,-19,214,126,-224,97,439,614,385,146,43,-43
-229,4,234,112,-231,119,414,610,385,151,39,-43
-214,-14,200,114,-207,92,409,600,400,161,58,-29
-195,-24,170,109,-183,73,400,590,405,170,78,-4
-180,-4,175,92,-178,85,400,575,405,175,87,4
-165,24,190,70,-178,107,380,556,395,180,87,9
-156,34,190,61,-173,112,356,536,395,180,87,19
-141,43,185,48,-163,114,341,517,395,185,97,39
-122,48,170,36,-146,109,322,483,375,185,102,43
-97,43,141,26,-119,92,297,458,361,180,107,53
-87,58,146,14,-117,102,263,429,351,175,107,53
-78,58,136,9,-107,97,224,390,331,165,102,53
-63,73,136,-4,-100,104,200,351,307,151,97,58
-39,92,131,-26,-85,112,175,317,278,141,87,58
-29,92,122,-31,-75,107,165,302,268,136,92,63
-29,73,102,-21,-65,87,141,263,234,126,97,63
-24,68,92,-21,-58,80,122,229,209,117,87,58
-19,63,82,-21,-51,73,112,204,190,107,82,53
-14,43,58,-14,-36,51,102,180,165,97,73,48
-9,24,34,-7,-21,29,82,151,146,82,63,48
-9,34,43,-12,-26,39,63,122,122,73,58,48
-9,43,53,-17,-31,48,48,92,92,63,48,34
-14,39,53,-12,-34,46,39,63,68,39,29,19
-14,43,58,-14,-36,51,34,43,48,24,14,4
-14,9,24,2,-19,17,34,43,48,24,14,14
-24,-29,-4,26,-9,-17,43,53,53,24,19,29
-39,-14,24,26,-31,4,34,34,34,14,14,14
-39,-14,24,26,-31,4,24,14,14,9,4,4
-29,-4,24,17,-26,9,24,14,14,9,4,4
-24,9,34,7,-29,21,24,4,0,0,0,0
-29,9,39,9,-34,24,29,4,0,0,0,-4
-34,-4,29,19,-31,12,39,4,0,-4,-4,-4
-39,-24,14,31,-26,-4,29,-4,-4,-9,-9,-4
-48,-19,29,34,-39,4,19,-9,-14,-14,-19,-14
-53,-29,24,41,-39,-2,19,-9,-14,-14,-19,-14
-58,-34,24,46,-41,-4,19,-4,-14,-14,-19,-19
-58,-29,29,43,-43,0,24,-4,-14,-14,-19,-19
-58,-24,34,41,-46,4,29,0,-14,-14,-19,-19
-58,-34,24,46,-41,-4,29,4,-14,-19,-24,-19
-58,-24,34,41,-46,4,29,4,-14,-24,-24,-24
-58,-34,24,46,-41,-4,34,4,-19,-24,-24,-29
-68,-53,14,61,-41,-19,39,4,-19,-24,-24,-29
-68,-63,4,65,-36,-29,24,14,-14,-19,-29,-29
-68,-63,4,65,-36,-29,19,14,-19,-19,-34,-29
-73,-73,0,73,-36,-36,34,19,-19,-19,-39,-29
-78,-73,4,75,-41,-34,48,19,-19,-19,-39,-29
-78,-58,19,68,-48,-19,58,19,-14,-19,-34,-29
-78,-53,24,65,-51,-14,58,24,-9,-19,-34,-34
-73,-24,48,48,-61,12,58,24,-4,-19,-34,-34
-73,4,78,34,-75,41,58,29,-4,-19,-39,-39
-73,-34,39,53,-56,2,63,34,-4,-19,-39,-39
-73,-68,4,70,-39,-31,63,39,-4,-14,-29,-34
-78,-68,9,73,-43,-29,58,39,0,-14,-29,-34
-82,-68,14,75,-48,-26,53,43,4,-9,-29,-34
-82,-68,14,75,-48,-26,58,43,9,-9,-34,-39
-82,-58,24,70,-53,-17,58,39,9,-14,-34,-39
-82,-58,24,70,-53,-17,68,43,9,-9,-29,-39
-82,-68,14,75,-48,-26,82,53,14,0,-14,-29
-68,-43,24,56,-46,-9,82,63,14,4,-14,-29
-53,-14,39,34,-46,12,78,53,14,4,-14,-29
-73,-29,43,51,-58,7,68,48,14,0,-14,-29
-97,-43,53,70,-75,4,63,43,19,-4,-19,-29
-102,-43,58,73,-80,7,63,43,19,-4,-19,-29
-102,-63,39,82,-70,-12,63,43,19,-4,-19,-24
-92,-53,39,73,-65,-7,68,39,19,-4,-19,-24
-82,-39,43,61,-63,2,68,34,14,-4,-19,-24
-82,-34,48,58,-65,7,68,34,14,-4,-19,-24
-82,-34,48,58,-65,7,63,39,14,-4,-14,-19
-82,-24,58,53,-70,17,68,39,14,-4,-14,-19
-82,-14,68,48,-75,26,73,29,14,-4,-14,-19
-82,-24,58,53,-70,17,78,29,9,-4,-14,-24
-82,-39,43,61,-63,2,78,34,4,-4,-14,-34
-82,-43,39,63,-61,-2,68,34,0,-4,-24,-39
-82,-43,39,63,-61,-2,48,29,-4,-4,-29,-39
-82,-39,43,61,-63,2,48,29,-4,-4,-29,-29
-78,-34,43,56,-61,4,58,29,0,-4,-19,-29
-78,-39,39,58,-58,0,63,29,4,0,-14,-29
-82,-48,34,65,-58,-7,63,29,4,4,-9,-29
-82,-39,43,61,-63,2,63,29,4,0,-9,-29
-82,-24,58,53,-70,17,73,34,4,-4,-9,-29
-73,-14,58,43,-65,21,82,43,14,4,-9,-24
-58,4,63,26,-61,34,82,48,29,14,-4,-14
-53,4,58,24,-56,31,78,58,29,19,0,-14
-48,19,68,14,-58,43,68,63,29,19,0,-14
-48,29,78,9,-63,53,68,58,29,19,4,-9
-39,29,68,4,-53,48,53,58,34,29,14,-4
-14,43,58,-14,-36,51,48,58,48,34,19,4
4,58,53,-31,-24,56,43,63,63,39,29,19
4,58,53,-31,-24,56,39,58,58,39,29,19
9,58,48,-34,-19,53,39,58,58,39,29,19
9,58,48,-34,-19,53,39,53,48,39,29,19
9,58,48,-34,-19,53,39,48,39,39,29,19
14,53,39,-34,-12,46,39,48,39,34,29,19
9,39,29,-24,-9,34,29,39,29,24,14,9
4,29,24,-17,-9,26,24,34,24,14,4,0
-9,29,39,-9,-24,34,19,19,4,-4,-14,-9
4,14,9,-9,-2,12,19,29,14,4,-4,-9
14,0,-14,-7,14,-7,19,39,24,9,4,-9
24,9,-14,-17,19,-2,24,39,19,9,4,-9
29,14,-14,-21,21,0,39,39,19,19,4,-9
-19,0,19,9,-19,9,48,34,24,14,0,-14
-63,-14,48,39,-56,17,43,24,9,9,-9,-24
-92,-19,73,56,-82,26,63,24,0,0,-24,-34
-102,-19,82,61,-92,31,82,24,0,0,-29,-43
-102,-24,78,63,-90,26,68,19,-4,-4,-29,-43
-102,-24,78,63,-90,26,53,19,-4,-4,-29,-43
-112,-29,82,70,-97,26,53,14,-4,-9,-29,-48
-117,-29,87,73,-102,29,53,14,-9,-9,-24,-48
-122,-39,82,80,-102,21,53,14,-9,-9,-29,-53
-126,-39,87,82,-107,24,53,14,-9,-9,-29,-53
-126,-63,63,95,-95,0,63,24,-4,-4,-24,-43
-131,-97,34,114,-82,-31,73,29,-4,-4,-24,-39
-122,-78,43,100,-82,-17,73,29,-4,-9,-24,-39
-107,-53,53,80,-80,0,73,29,-4,-9,-24,-39
-112,-63,48,87,-80,-7,73,29,-4,-4,-24,-39
-122,-73,48,97,-85,-12,73,29,-4,-4,-24,-39
-131,-73,58,102,-95,-7,58,29,-4,-4,-24,-39
-131,-68,63,100,-97,-2,48,29,-9,-9,-29,-39
-131,-39,92,85,-112,26,53,19,-14,-14,-34,-48
-131,-39,92,85,-112,26,53,9,-19,-19,-39,-53
-122,-19,102,70,-112,41,68,9,-19,-19,-39,-53
-112,4,117,53,-114,61,78,14,-14,-14,-34,-53
-112,-29,82,70,-97,26,92,19,-9,-9,-24,-48
-112,-53,58,82,-85,2,107,24,-4,-4,-14,-43
-126,-73,53,100,-90,-9,97,24,0,-4,-14,-43
-136,-87,48,112,-92,-19,87,34,0,-4,-14,-39
-136,-68,68,102,-102,0,92,43,0,0,-14,-43
-141,-48,92,95,-117,21,92,63,0,-4,-19,-43
-141,-63,78,102,-109,7,112,68,14,0,-19,-43
-131,-68,63,100,-97,-2,141,117,58,14,-9,-43
-117,-48,68,82,-92,9,141,195,122,43,9,-29
-82,-9,73,46,-78,31,136,146,131,63,24,-9
-53,43,97,4,-75,70,175,97,156,97,58,29
29,102,73,-65,-21,87,73,-43,102,97,82,68
180,204,24,-192,78,114,-200,-209,58,92,102,107
287,297,9,-292,139,153,-458,-429,-19,87,126,136
385,336,-48,-361,217,143,-785,-775,-185,78,146,190
522,351,-170,-436,346,90,-1088,-1039,-307,63,165,224
629,356,-273,-492,451,41,-1278,-1224,-458,-24,126,224
736,390,-346,-563,541,21,-1415,-1385,-595,-92,97,214
858,439,-419,-649,639,9,-1546,-1576,-732,-117,102,244
936,492,-444,-714,690,24,-1644,-1747,-834,-122,136,292
1029,580,-448,-805,739,65,-1761,-1947,-936,-97,185,356
1102,644,-458,-873,780,92,-1820,-2049,-980,-78,219,400
1151,644,-507,-897,829,68,-1805,-2015,-956,-58,239,409
1180,619,-561,-900,871,29,-1766,-1981,-946,-73,229,414
1166,551,-614,-858,890,-31,-1742,-1991,-980,-156,161,370
1127,468,-658,-797,893,-95,-1693,-1961,-1005,-224,87,317
1102,351,-751,-727,927,-200,-1615,-1878,-1024,-322,-4,244
1054,224,-829,-639,941,-302,-1507,-1756,-1010,-395,-82,190
1015,112,-902,-563,958,-395,-1361,-1571,-941,-458,-151,126
961,19,-941,-490,951,-461,-1224,-1395,-888,-497,-214,73
902,-9,-912,-446,907,-461,-1117,-1263,-819,-497,-224,58
854,-29,-883,-412,868,-456,-1000,-1112,-751,-497,-229,48
829,-43,-873,-392,851,-458,-883,-961,-649,-453,-209,63
810,-4,-814,-402,812,-409,-780,-814,-546,-390,-165,97
785,0,-785,-392,785,-392,-692,-697,-483,-356,-151,87
741,0,-741,-370,741,-370,-585,-570,-400,-322,-151,73
629,0,-629,-314,629,-314,-463,-453,-346,-302,-156,39
507,-34,-541,-236,524,-287,-336,-361,-297,-273,-146,0
370,-68,-439,-151,405,-253,-229,-278,-273,-239,-146,-34
244,-73,-317,-85,280,-195,-136,-195,-234,-200,-136,-48
165,-53,-219,-56,192,-136,-73,-122,-175,-170,-122,-58
97,-34,-131,-31,114,-82,0,-58,-122,-131,-97,-58
9,-43,-53,17,31,-48,63,14,-63,-82,-68,-53
-68,-63,4,65,-36,-29,122,82,-4,-39,-43,-48
-122,-78,43,100,-82,-17,151,126,24,-29,-43,-63
-156,-87,68,122,-112,-9,175,151,43,-19,-48,-73
-170,-68,102,119,-136,17,185,161,43,-19,-48,-73
-195,-68,126,131,-161,29,190,170,43,-14,-43,-73
-185,-82,102,134,-143,9,190,170,43,-9,-39,-68
-185,-97,87,141,-136,-4,195,185,63,0,-39,-58
-195,-97,97,146,-146,0,209,195,68,0,-29,-58
-200,-97,102,148,-151,2,214,195,73,0,-19,-58
-200,-92,107,146,-153,7,214,195,73,0,-29,-63
-204,-87,117,146,-161,14,219,204,73,4,-43,-73
-209,-97,112,153,-161,7,219,204,73,4,-43,-73
-209,-97,112,153,-161,7,219,204,73,0,-43,-73
-219,-112,107,165,-163,-2,209,209,73,0,-39,-73
-224,-131,92,178,-158,-19,209,219,78,0,-39,-73
-224,-102,122,163,-173,9,219,229,82,4,-39,-73
-224,-78,146,151,-185,34,219,229,87,4,-39,-73
-219,-102,117,161,-168,7,219,229,87,4,-43,-78
-214,-117,97,165,-156,-9,229,239,92,4,-43,-78
-214,-78,136,146,-175,29,244,244,92,4,-39,-78
-209,-73,136,141,-173,31,263,253,97,4,-34,-78
-204,-92,112,148,-158,9,268,263,102,0,-39,-82
-200,-102,97,151,-148,-2,268,268,107,0,-39,-82
-214,-97,117,156,-165,9,268,278,97,4,-48,-82
-224,-97,126,161,-175,14,268,283,92,4,-58,-82
-224,-97,126,161,-175,14,273,297,112,4,-43,-78
-224,-102,122,163,-173,9,292,312,131,9,-34,-73
-234,-102,131,168,-183,14,287,322,136,14,-39,-78
-234,-107,126,170,-180,9,287,331,136,14,-39,-78
-234,-126,107,180,-170,-9,292,336,141,14,-39,-78
-234,-136,97,185,-165,-19,297,346,146,14,-39,-82
-253,-117,136,185,-195,9,302,356,146,14,-43,-82
-258,-112,146,185,-202,17,317,375,156,24,-43,-82
-258,-112,146,185,-202,17,326,385,165,24,-39,-82
-258,-112,146,185,-202,17,341,405,170,29,-39,-82
-268,-117,151,192,-209,17,341,419,180,39,-34,-82
-273,-117,156,195,-214,19,336,434,190,39,-29,-82
-273,-136,136,204,-204,0,351,448,204,48,-29,-82
-273,-151,122,212,-197,-14,370,463,209,48,-24,-82
-278,-131,146,204,-212,7,380,478,224,48,-19,-82
-283,-112,170,197,-226,29,395,497,234,53,-19,-82
-263,-73,190,168,-226,58,409,512,248,63,-14,-82
-248,-68,180,158,-214,56,424,527,263,68,-4,-78
-268,-82,185,175,-226,51,439,546,273,78,-4,-73
-278,-112,165,195,-222,26,448,570,292,87,4,-73
-278,-102,175,190,-226,36,453,585,302,92,9,-63
-278,-92,185,185,-231,46,453,600,312,102,19,-53
-273,-53,219,163,-246,82,448,605,317,102,19,-53
-268,-4,263,136,-265,129,444,610,326,102,29,-48
-263,-19,244,141,-253,112,444,619,336,112,34,-43
-263,-24,239,143,-251,107,439,619,351,122,34,-43
-244,-19,224,131,-234,102,439,624,361,126,43,-34
-244,-34,209,139,-226,87,434,624,370,131,43,-34
-239,-24,214,131,-226,95,434,619,375,136,43,-29
-234,-24,209,129,-222,92,429,614,375,146,53,-24
-229,-9,219,119,-224,104,405,610,375,151,58,-14
-214,14,229,100,-222,122,400,600,385,156,68,-9
-195,24,219,85,-207,122,400,595,385,161,82,9
-180,24,204,78,-192,114,405,585,385,165,97,24
-165,43,209,61,-187,126,361,566,375,170,97,29
-156,43,200,56,-178,122,317,541,370,170,97,34
-141,43,185,48,-163,114,317,522,375,180,107,48
-122,58,180,31,-151,119,312,492,366,185,112,53
-87,63,151,12,-119,107,287,468,351,180,117,58
-68,78,146,-4,-107,112,263,439,341,180,122,58
-58,92,151,-17,-104,122,239,400,322,175,122,63
-48,117,165,-34,-107,141,219,361,297,161,117,68
-29,117,146,-43,-87,131,195,331,273,151,112,68
-19,102,122,-41,-70,112,180,317,268,146,117,73
-9,97,107,-43,-58,102,151,273,234,136,117,78
4,107,102,-56,-48,104,131,239,209,126,107,78
9,102,92,-56,-41,97,112,214,190,117,102,73
14,102,87,-58,-36,95,92,190,165,107,92,68
14,97,82,-56,-34,90,73,156,146,97,82,68
9,87,78,-48,-34,82,63,126,122,92,78,68
9,82,73,-46,-31,78,53,102,92,82,68,53
4,63,58,-34,-26,61,39,82,78,68,58,48
4,48,43,-26,-19,46,34,73,73,63,53,43
4,43,39,-24,-17,41,19,53,58,53,43,34
-4,39,43,-17,-24,41,4,43,43,39,34,29
-19,34,53,-7,-36,43,-4,34,34,24,24,24
-29,-9,19,19,-24,4,9,24,24,19,14,24
-34,-34,0,34,-17,-17,24,24,24,19,14,24
-19,4,24,7,-21,14,14,14,4,9,14,19
-9,39,48,-14,-29,43,0,14,0,9,19,14
-9,24,34,-7,-21,29,0,14,0,9,14,14
-4,14,19,-4,-12,17,0,9,-4,9,9,14
-9,29,39,-9,-24,34,9,0,-14,4,0,4
-14,19,34,-2,-24,26,19,-9,-14,4,0,4
-29,4,34,12,-31,19,9,-4,-14,0,0,-4
-39,-14,24,26,-31,4,4,-4,-14,-4,0,-9
-53,-29,24,41,-39,-2,9,0,-14,-4,0,-9
-68,-43,24,56,-46,-9,9,4,-14,-9,-4,-9
-53,-34,19,43,-36,-7,9,4,-14,-14,-4,-9
-39,-24,14,31,-26,-4,14,4,-19,-14,-4,-9
-48,-14,34,31,-41,9,19,4,-19,-14,-4,-9
-48,-14,34,31,-41,9,19,14,-9,-9,-4,-9
-48,-14,34,31,-41,9,29,14,-9,-9,-4,-14
-53,-24,29,39,-41,2,29,19,-9,-9,-9,-19
-58,-29,29,43,-43,0,29,19,-9,-9,-9,-19
-58,-24,34,41,-46,4,39,19,-4,-9,-4,-14
-58,-24,34,41,-46,4,43,24,0,-9,-4,-14
-58,-24,34,41,-46,4,48,24,4,-9,-4,-14
-73,-34,39,53,-56,2,48,29,-4,-9,-19,-19
-82,-48,34,65,-58,-7,53,34,-14,-9,-29,-19
-73,-39,34,56,-53,-2,53,43,-4,0,-4,-9
-63,-29,34,46,-48,2,53,48,9,4,9,-4
-63,-29,34,46,-48,2,53,53,14,9,9,-4
-63,-29,34,46,-48,2,58,53,14,9,4,-14
-63,-4,58,34,-61,26,58,43,9,0,-4,-24
-63,9,73,26,-68,41,58,39,9,-4,-14,-29
-68,-14,53,41,-61,19,63,43,9,0,-4,-19
-73,-29,43,51,-58,7,63,53,4,4,-4,-19
-73,-24,48,48,-61,12,58,43,4,4,-4,-19
-73,-24,48,48,-61,12,53,43,4,4,-4,-19
-63,-24,39,43,-51,7,53,53,14,4,0,-19
-53,-24,29,39,-41,2,53,63,19,4,9,-19
-68,-53,14,61,-41,-19,53,63,19,4,0,-19
-78,-53,24,65,-51,-14,58,58,19,4,-9,-24
-73,-24,48,48,-61,12,63,53,14,4,-9,-24
-73,-4,68,39,-70,31,68,53,14,4,-9,-24
-63,4,68,29,-65,36,63,58,9,4,-4,-19
-53,14,68,19,-61,41,63,58,4,4,-4,-19
-73,-4,68,39,-70,31,53,39,4,4,-4,-19
-92,-24,68,58,-80,21,48,29,4,4,-4,-19
-68,-4,63,36,-65,29,48,34,9,4,0,-24
-43,14,58,14,-51,36,48,34,9,4,0,-29
-73,-34,39,53,-56,2,48,39,4,9,0,-24
-102,-78,24,90,-63,-26,58,48,4,14,0,-9
-68,-48,19,58,-43,-14,68,48,9,14,9,-9
-39,-19,19,29,-29,0,68,48,14,19,9,-9
-53,-19,34,36,-43,7,58,43,9,19,9,-9
-63,-19,43,41,-53,12,53,39,4,14,9,-9
-82,-48,34,65,-58,-7,63,43,4,14,9,-9
-92,-78,14,85,-53,-31,73,53,14,24,14,-4
-68,-34,34,51,-51,0,82,58,29,34,24,4
-53,-4,48,29,-51,21,87,63,29,34,29,4
-48,9,58,19,-53,34,78,68,29,29,29,4
-48,19,68,14,-58,43,78,68,29,29,29,9
-58,0,58,29,-58,29,63,68,43,34,29,9
-53,-19,34,36,-43,7,63,68,58,39,34,14
-19,19,39,0,-29,29,53,78,58,43,39,14
9,39,29,-24,-9,34,34,82,53,48,39,19
19,78,58,-48,-19,68,39,68,48,48,39,24
29,117,87,-73,-29,102,48,58,48,53,39,29
34,97,63,-65,-14,80,58,58,53,58,53,39
39,78,39,-58,0,58,68,58,58,68,68,48
39,68,29,-53,4,48,53,53,58,58,58,39
39,58,19,-48,9,39,39,48,58,48,48,29
34,39,4,-36,14,21,34,48,53,39,43,29
29,29,0,-29,14,14,19,43,43,29,34,19
29,19,-9,-24,19,4,4,39,39,24,24,9
29,39,9,-34,9,24,-9,29,24,14,14,0
29,29,0,-29,14,14,0,29,24,19,19,0
24,19,-4,-21,14,7,9,29,24,19,24,0
14,19,4,-17,4,12,14,34,19,19,24,9
0,14,14,-7,-7,14,29,39,19,29,24,19
-34,-4,29,19,-31,12,53,43,29,29,24,14
-63,-24,39,43,-51,7,63,43,19,29,19,4
-82,-48,34,65,-58,-7,73,53,19,19,9,0
-82,-68,14,75,-48,-26,82,63,29,19,9,-4
-82,-63,19,73,-51,-21,73,48,14,9,4,-9
-82,-53,29,68,-56,-12,63,39,4,4,0,-14
-97,-58,39,78,-68,-9,63,34,4,0,-4,-19
-107,-58,48,82,-78,-4,63,34,0,0,-4,-19
-112,-78,34,95,-73,-21,63,34,0,0,-9,-24
-117,-87,29,102,-73,-29,63,34,0,0,-9,-24
-107,-63,43,85,-75,-9,73,39,4,4,-9,-24
-102,-48,53,75,-78,2,82,39,4,4,-14,-29
-102,-58,43,80,-73,-7,82,39,-4,0,-14,-29
-97,-63,34,80,-65,-14,82,39,-14,0,-14,-29
-92,-63,29,78,-61,-17,92,48,4,14,-9,-19
-92,-63,29,78,-61,-17,102,58,24,24,-4,-9
-102,-53,48,78,-75,-2,82,48,14,14,-4,-19
-102,-39,63,70,-82,12,68,39,0,0,-9,-29
-112,-39,73,75,-92,17,73,39,0,0,-9,-34
-122,-68,53,95,-87,-7,73,39,0,0,-9,-34
-122,-58,63,90,-92,2,78,39,0,-9,-19,-34
-122,-43,78,82,-100,17,78,43,4,-14,-24,-34
-117,-43,73,80,-95,14,78,43,4,-4,-9,-29
-112,-34,78,73,-95,21,78,43,4,4,4,-24
-112,-48,63,80,-87,7,87,43,9,14,4,-24
-107,-58,48,82,-78,-4,97,53,9,24,4,-19
-117,-58,58,87,-87,0,107,68,19,24,9,-19
-131,-58,73,95,-102,7,112,92,29,14,9,-14
-117,-58,58,87,-87,0,122,107,48,19,9,-14
-92,-48,43,70,-68,-2,141,165,97,34,19,-14
-68,-39,29,53,-48,-4,146,209,151,63,48,9
-24,-9,14,17,-19,2,146,126,151,82,73,39
29,53,24,-41,2,39,136,14,126,102,97,73
136,122,-14,-129,75,53,-14,-190,24,87,112,107
278,214,-63,-246,170,75,-287,-390,-48,82,131,146
375,297,-78,-336,226,109,-546,-644,-156,78,156,175
463,331,-131,-397,297,100,-873,-1015,-351,39,161,219
590,341,-248,-466,419,46,-1176,-1302,-502,-4,165,244
697,366,-331,-531,514,17,-1346,-1503,-673,-82,141,268
805,419,-385,-612,595,17,-1464,-1678,-829,-141,126,283
917,483,-434,-700,675,24,-1595,-1864,-951,-136,146,322
985,551,-434,-768,710,58,-1693,-2030,-1039,-112,195,380
1034,624,-409,-829,722,107,-1781,-2166,-1117,-102,229,429
1063,673,-390,-868,727,141,-1810,-2205,-1137,-97,248,458
1083,663,-419,-873,751,122,-1790,-2156,-1107,-87,253,463
1083,629,-453,-856,768,87,-1747,-2108,-1093,-112,229,463
1054,531,-522,-793,788,4,-1693,-2074,-1112,-195,161,414
1000,419,-580,-710,790,-80,-1615,-2000,-1122,-263,87,356
946,322,-624,-634,785,-151,-1532,-1898,-1137,-356,-4,278
868,214,-653,-541,761,-219,-1420,-1756,-1117,-424,-82,219
839,131,-707,-485,773,-287,-1268,-1561,-1029,-463,-122,180
795,68,-727,-431,761,-329,-1127,-1376,-956,-478,-156,151
751,24,-727,-387,739,-351,-1010,-1224,-849,-453,-156,151
717,-9,-727,-353,722,-368,-883,-1054,-741,-429,-151,156
692,-14,-707,-339,700,-361,-766,-902,-639,-385,-131,161
673,34,-639,-353,656,-302,-663,-756,-536,-322,-87,185
644,43,-600,-344,622,-278,-585,-639,-468,-292,-73,165
595,48,-546,-322,570,-248,-488,-512,-380,-263,-73,141
488,39,-448,-263,468,-204,-380,-385,-322,-244,-92,92
370,-4,-375,-183,373,-190,-268,-283,-268,-214,-97,39
248,-63,-312,-92,280,-187,-161,-200,-224,-185,-97,0
136,-92,-229,-21,183,-161,-68,-117,-165,-151,-87,-19
73,-73,-146,0,109,-109,-9,-43,-107,-122,-78,-34
19,-53,-73,17,46,-63,58,19,-53,-82,-58,-39
-39,-63,-24,51,-7,-43,102,82,-4,-48,-39,-39
-87,-82,4,85,-46,-39,141,141,43,-19,-24,-39
-131,-97,34,114,-82,-31,185,180,68,-9,-14,-53
-156,-107,48,131,-102,-29,224,200,82,0,-9,-63
-161,-87,73,124,-117,-7,219,204,82,-4,-19,-63
-175,-87,87,131,-131,0,209,209,82,-4,-24,-63
-165,-97,68,131,-117,-14,209,209,82,-4,-19,-63
-165,-107,58,136,-112,-24,214,224,102,0,-19,-58
-175,-97,78,136,-126,-9,214,234,102,-4,-24,-63
-180,-87,92,134,-136,2,204,234,102,-9,-29,-68
-180,-87,92,134,-136,2,214,234,102,-9,-29,-68
-185,-87,97,136,-141,4,229,244,102,-4,-34,-73
-175,-102,73,139,-124,-14,239,248,107,0,-34,-73
-161,-107,53,134,-107,-26,248,253,112,0,-34,-73
-180,-117,63,148,-122,-26,234,258,112,0,-29,-73
-195,-131,63,163,-129,-34,229,268,117,0,-29,-73
-180,-107,73,143,-126,-17,239,278,122,4,-29,-68
-165,-87,78,126,-122,-4,239,278,126,4,-29,-63
-175,-102,73,139,-124,-14,239,278,122,4,-34,-68
-185,-107,78,146,-131,-14,248,287,122,4,-34,-68
-195,-107,87,151,-141,-9,248,292,122,0,-34,-73
-200,-141,58,170,-129,-41,253,302,126,-4,-34,-78
-204,-141,63,173,-134,-39,258,312,131,-9,-39,-82
-209,-131,78,170,-143,-26,258,317,136,-9,-39,-82
-209,-122,87,165,-148,-17,263,326,141,0,-39,-82
-204,-117,87,161,-146,-14,268,331,151,4,-39,-82
-185,-107,78,146,-131,-14,278,346,161,4,-34,-82
-165,-102,63,134,-114,-19,302,361,170,9,-34,-82
-185,-102,82,143,-134,-9,302,370,175,14,-39,-87
-195,-107,87,151,-141,-9,307,380,175,14,-39,-87
-200,-92,107,146,-153,7,312,385,180,14,-39,-87
-204,-68,136,136,-170,34,317,395,185,14,-39,-92
-219,-87,131,153,-175,21,322,414,195,14,-39,-92
-219,-122,97,170,-158,-12,336,444,214,24,-34,-92
-214,-122,92,168,-153,-14,346,453,224,24,-29,-92
-209,-122,87,165,-148,-17,361,473,229,29,-29,-92
-219,-122,97,170,-158,-12,370,488,244,39,-29,-92
-224,-117,107,170,-165,-4,375,502,258,39,-29,-92
-224,-117,107,170,-165,-4,380,517,273,48,-29,-97
-224,-112,112,168,-168,0,390,531,278,48,-24,-102
-239,-126,112,183,-175,-7,400,546,292,48,-19,-102
-253,-141,112,197,-183,-14,414,566,302,53,-19,-102
-253,-126,126,190,-190,0,409,575,317,63,-24,-102
-258,-146,112,202,-185,-17,405,585,331,68,-24,-97
-253,-112,141,183,-197,14,419,600,341,78,-14,-92
-239,-92,146,165,-192,26,429,619,361,87,4,-92
-239,-92,146,165,-192,26,444,634,375,92,9,-87
-239,-92,146,165,-192,26,453,649,390,102,19,-82
-239,-82,156,161,-197,36,439,653,395,107,14,-87
-239,-63,175,151,-207,56,424,658,405,112,19,-87
-224,-63,161,143,-192,48,434,663,409,122,29,-78
-214,-53,161,134,-187,53,439,658,419,131,34,-73
-200,-29,170,114,-185,70,444,663,424,136,43,-58
-204,-24,180,114,-192,78,444,663,429,141,43,-53
-200,-24,175,112,-187,75,439,653,434,141,43,-48
-195,-34,161,114,-178,63,429,644,434,146,53,-43
-190,-24,165,107,-178,70,400,639,434,151,58,-34
-175,-4,170,90,-173,82,390,629,444,156,68,-29
-156,14,170,70,-163,92,380,614,444,161,78,-14
-141,24,165,58,-153,95,375,595,444,165,87,-4
-146,29,175,58,-161,102,351,575,434,170,87,0
-156,14,170,70,-163,92,326,551,429,170,87,4
-122,14,136,53,-129,75,317,527,424,175,97,19
-82,29,112,26,-97,70,302,492,405,175,102,24
-58,48,107,4,-82,78,283,468,385,170,107,34
-48,78,126,-14,-87,102,263,439,370,170,112,39
-39,78,117,-19,-78,97,234,400,351,165,112,43
-29,87,117,-29,-73,102,209,361,326,151,107,48
-24,97,122,-36,-73,109,175,322,297,141,97,48
-29,92,122,-31,-75,107,151,297,287,136,97,53
-39,53,92,-7,-65,73,112,253,248,126,97,53
-43,29,73,7,-58,51,82,219,219,117,87,48
-19,34,53,-7,-36,43,92,195,200,107,87,48
4,43,39,-24,-17,41,102,170,175,97,82,48
-4,58,63,-26,-34,61,82,141,156,82,73,48
-19,68,87,-24,-53,78,73,117,131,73,68,48
-19,48,68,-14,-43,58,68,92,102,63,58,34
-24,14,39,4,-31,26,58,73,87,48,48,29
-29,4,34,12,-31,19,53,63,73,43,43,24
-34,4,39,14,-36,21,39,43,48,34,34,14
-43,14,58,14,-51,36,24,34,29,24,24,4
-58,24,82,17,-70,53,14,24,14,14,14,-4
-48,4,53,21,-51,29,14,14,4,9,4,-4
-34,4,39,14,-36,21,14,14,4,9,4,-4
-34,4,39,14,-36,21,24,4,-9,0,0,-9
-39,0,39,19,-39,19,29,4,-9,0,0,-14
-53,-14,39,34,-46,12,29,4,-4,-4,-4,-14
-63,-24,39,43,-51,7,29,0,-4,-9,-9,-14
-58,-19,39,39,-48,9,39,0,-14,-14,-19,-14
-53,-39,14,46,-34,-12,48,0,-14,-14,-19,-4
-58,-29,29,43,-43,0,39,4,-14,-14,-24,-24
-58,-24,34,41,-46,4,34,4,-14,-14,-29,-39
-68,-43,24,56,-46,-9,29,9,-14,-14,-29,-39
-78,-63,14,70,-46,-24,19,14,-14,-19,-34,-39
-78,-53,24,65,-51,-14,19,14,-14,-24,-29,-39
-78,-43,34,61,-56,-4,24,14,-19,-24,-24,-39
-78,-43,34,61,-56,-4,39,19,-14,-24,-24,-39
-68,-53,14,61,-41,-19,48,34,0,-19,-24,-39
-68,-58,9,63,-39,-24,68,34,0,-19,-24,-39
-73,-73,0,73,-36,-36,78,39,0,-19,-29,-39
-87,-73,14,80,-51,-29,63,29,-14,-29,-34,-43
-97,-63,34,80,-65,-14,58,19,-24,-39,-34,-43
-82,-63,19,73,-51,-21,58,39,-9,-29,-34,-43
-68,-63,4,65,-36,-29,58,53,4,-19,-34,-43
-73,-39,34,56,-53,-2,63,48,4,-19,-39,-48
-73,-19,53,46,-63,17,73,43,4,-19,-39,-48
-78,-34,43,56,-61,4,73,48,4,-14,-29,-39
-82,-48,34,65,-58,-7,73,48,9,-14,-29,-34
-87,-58,29,73,-58,-14,73,58,19,-9,-29,-34
-92,-68,24,80,-58,-21,78,63,24,-9,-34,-43
-92,-58,34,75,-63,-12,73,58,19,-14,-39,-48
-92,-58,34,75,-63,-12,68,58,19,-14,-43,-48
-92,-68,24,80,-58,-21,73,58,19,-14,-34,-48
-92,-68,24,80,-58,-21,73,63,14,-14,-34,-58
-92,-53,39,73,-65,-7,73,53,14,-14,-34,-58
-92,-43,48,68,-70,2,73,53,14,-14,-34,-58
-97,-58,39,78,-68,-9,73,53,19,-14,-39,-58
-102,-73,29,87,-65,-21,73,53,19,-14,-39,-58
-102,-82,19,92,-61,-31,58,53,19,-14,-39,-53
-97,-63,34,80,-65,-14,48,48,19,-14,-39,-53
-92,-48,43,70,-68,-2,58,43,14,-14,-39,-53
-92,-43,48,68,-70,2,68,43,14,-14,-39,-53
-102,-53,48,78,-75,-2,63,48,14,-14,-34,-48
-112,-63,48,87,-80,-7,63,48,14,-14,-34,-48
-102,-63,39,82,-70,-12,68,39,14,-14,-34,-48
-92,-63,29,78,-61,-17,78,39,14,-14,-34,-48
-87,-53,34,70,-61,-9,82,48,24,-14,-29,-53
-82,-43,39,63,-61,-2,87,53,29,-14,-29,-58
-82,-34,48,58,-65,7,78,53,24,-9,-29,-58
-82,-19,63,51,-73,21,78,58,24,-4,-29,-48
-78,-43,34,61,-56,-4,97,68,34,0,-14,-39
-78,-68,9,73,-43,-29,107,78,43,9,-9,-29
-73,-19,53,46,-63,17,87,68,43,14,-9,-29
-63,29,92,17,-78,61,73,58,43,14,-9,-29
-63,14,78,24,-70,46,68,58,43,14,-9,-29
-43,9,53,17,-48,31,63,63,63,29,0,-19
-24,19,43,2,-34,31,58,63,63,34,4,-9
-9,34,43,-12,-26,39,58,63,68,39,14,-4
-4,39,43,-17,-24,41,48,58,63,39,14,0
0,48,48,-24,-24,48,39,58,58,39,19,0
-19,34,53,-7,-36,43,39,48,48,34,9,-4
-39,19,58,9,-48,39,39,39,39,29,0,-9
-34,14,48,9,-41,31,29,39,39,24,0,-9
-24,-4,19,14,-21,7,24,39,34,19,0,-9
-19,-24,-4,21,-7,-14,19,43,34,14,-4,-14
-9,-39,-29,24,9,-34,29,48,24,4,-4,-9
-9,-39,-29,24,9,-34,29,39,24,0,-14,-19
-14,-39,-24,26,4,-31,29,29,24,-9,-24,-29
-19,-24,-4,21,-7,-14,39,29,19,-9,-24,-29
-29,-14,14,21,-21,0,58,29,19,0,-24,-29
-63,-34,29,48,-46,-2,78,39,34,9,-14,-34
-92,-53,39,73,-65,-7,82,43,29,19,-9,-43
-112,-43,68,78,-90,12,82,43,19,0,-29,-48
-112,-29,82,70,-97,26,82,43,19,-9,-39,-53
-112,-53,58,82,-85,2,82,39,14,-14,-39,-53
-112,-73,39,92,-75,-17,82,39,14,-14,-39,-53
-117,-87,29,102,-73,-29,78,34,9,-19,-43,-63
-117,-97,19,107,-68,-39,73,34,0,-19,-43,-68
-126,-78,48,102,-87,-14,58,19,-9,-29,-58,-82
-136,-48,87,92,-112,19,43,4,-19,-39,-68,-92
-136,-82,53,109,-95,-14,73,29,0,-24,-48,-73
-141,-126,14,134,-78,-56,102,48,14,-14,-34,-58
-131,-117,14,124,-73,-51,102,48,14,-19,-34,-58
-117,-102,14,109,-65,-43,102,48,14,-19,-34,-58
-122,-87,34,104,-78,-26,92,43,9,-14,-34,-58
-131,-73,58,102,-95,-7,82,39,4,-14,-34,-58
-141,-87,53,114,-97,-17,73,39,4,-14,-39,-63
-141,-97,43,119,-92,-26,68,39,0,-19,-48,-68
-146,-78,68,112,-107,-4,73,39,-4,-19,-53,-73
-151,-87,63,119,-107,-12,73,39,-9,-19,-58,-73
-161,-117,43,139,-102,-36,78,39,-9,-19,-58,-73
-170,-141,29,156,-100,-56,78,43,-4,-14,-53,-73
-146,-97,48,122,-97,-24,78,43,0,-9,-48,-73
-122,-43,78,82,-100,17,78,43,4,-4,-43,-73
-122,-53,68,87,-95,7,97,43,9,-4,-34,-58
-117,-58,58,87,-87,0,117,53,9,-4,-24,-39
-122,-58,63,90,-92,2,122,63,14,0,-29,-53
-131,-58,73,95,-102,7,122,82,19,-4,-39,-63
-141,-73,68,107,-104,-2,131,78,34,-4,-43,-68
-141,-78,63,109,-102,-7,151,117,78,4,-39,-73
-122,-58,63,90,-92,2,161,200,141,34,-9,-48
-82,-19,63,51,-73,21,165,156,151,53,14,-19
-53,34,87,9,-70,61,229,97,156,92,48,19
29,92,63,-61,-17,78,151,-53,82,97,73,58
170,146,-24,-158,97,61,-87,-224,19,92,97,97
268,190,-78,-229,173,56,-312,-448,-78,87,126,126
336,263,-73,-300,204,95,-658,-839,-292,58,141,185
444,312,-131,-378,287,90,-980,-1146,-463,24,156,224
541,326,-214,-434,378,56,-1195,-1361,-653,-68,122,239
639,370,-268,-505,453,51,-1356,-1551,-829,-141,97,244
751,434,-317,-592,534,58,-1503,-1742,-980,-156,102,283
819,502,-317,-661,568,92,-1615,-1912,-1098,-151,136,341
878,570,-307,-724,592,131,-1727,-2103,-1205,-141,185,405
917,614,-302,-766,610,156,-1781,-2196,-1254,-136,219,448
946,649,-297,-797,622,175,-1776,-2166,-1229,-117,234,463
956,658,-297,-807,627,180,-1747,-2137,-1220,-131,219,473
912,541,-370,-727,641,85,-1693,-2108,-1239,-204,161,434
844,409,-434,-627,639,-12,-1615,-2039,-1249,-263,97,385
834,336,-497,-585,666,-80,-1556,-1966,-1263,-370,-9,297
800,253,-546,-527,673,-146,-1468,-1854,-1244,-453,-102,229
771,146,-624,-458,697,-239,-1332,-1654,-1146,-497,-151,190
727,58,-668,-392,697,-305,-1205,-1464,-1063,-517,-195,161
678,29,-649,-353,663,-309,-1078,-1322,-966,-497,-195,161
639,9,-629,-324,634,-309,-941,-1161,-868,-478,-190,165
614,-19,-634,-297,624,-326,-814,-990,-741,-434,-170,170
595,4,-590,-300,592,-292,-702,-824,-614,-370,-126,195
605,39,-566,-322,585,-263,-624,-702,-531,-331,-97,190
595,68,-527,-331,561,-229,-527,-570,-429,-292,-82,180
497,43,-453,-270,475,-204,-419,-434,-361,-273,-117,117
390,-14,-405,-187,397,-209,-307,-322,-297,-244,-136,48
268,-63,-331,-102,300,-197,-200,-239,-258,-214,-141,-4
156,-82,-239,-36,197,-161,-107,-156,-204,-180,-136,-39
82,-82,-165,0,124,-124,-48,-78,-141,-151,-126,-58
19,-82,-102,31,61,-92,19,-9,-82,-112,-107,-68
-34,-82,-48,58,7,-65,78,53,-29,-73,-87,-68
-78,-92,-14,85,-31,-53,131,112,24,-39,-73,-68
-131,-107,24,119,-78,-41,175,161,53,-29,-73,-82
-165,-117,48,141,-107,-34,214,190,73,-19,-78,-92
-170,-97,73,134,-122,-12,219,195,73,-19,-78,-92
-185,-97,87,141,-136,-4,219,200,73,-14,-73,-92
-175,-112,63,143,-119,-24,209,200,73,-14,-68,-97
-175,-126,48,151,-112,-39,204,214,92,-9,-68,-97
-185,-126,58,156,-122,-34,214,224,92,-9,-68,-97
-190,-126,63,158,-126,-31,214,224,92,-9,-68,-97
-190,-126,63,158,-126,-31,224,224,92,-9,-63,-97
-195,-126,68,161,-131,-29,239,234,92,-4,-63,-102
-200,-136,63,168,-131,-36,239,234,92,-4,-63,-102
-200,-136,63,168,-131,-36,239,234,92,-9,-63,-102
-200,-117,82,158,-141,-17,239,239,97,-9,-58,-97
-195,-102,92,148,-143,-4,248,248,107,-9,-58,-92
-195,-122,73,158,-134,-24,258,258,112,-4,-58,-92
-195,-146,48,170,-122,-48,258,258,117,-4,-58,-92
-195,-146,48,170,-122,-48,248,258,112,-4,-68,-102
-195,-136,58,165,-126,-39,248,268,112,-4,-73,-107
-200,-92,107,146,-153,7,248,268,102,-4,-73,-107
-200,-82,117,141,-158,17,253,273,97,-4,-73,-107
-204,-102,102,153,-153,0,258,283,112,-9,-78,-112
-209,-112,97,161,-153,-7,258,287,126,-9,-78,-112
-224,-117,107,170,-165,-4,258,302,126,-4,-78,-112
-234,-126,107,180,-170,-9,258,312,131,-4,-78,-112
-224,-126,97,175,-161,-14,263,326,146,-4,-73,-112
-214,-131,82,173,-148,-24,283,341,161,0,-73,-112
-219,-131,87,175,-153,-21,302,361,165,9,-68,-112
-214,-136,78,175,-146,-29,326,380,165,14,-58,-107
-214,-131,82,173,-148,-24,322,375,170,14,-58,-107
-214,-117,97,165,-156,-9,317,375,175,14,-58,-112
-234,-117,117,175,-175,0,307,390,185,14,-63,-117
-239,-131,107,185,-173,-12,307,414,204,24,-63,-122
-239,-136,102,187,-170,-17,331,424,214,24,-58,-122
-239,-141,97,190,-168,-21,361,444,219,29,-58,-122
-248,-141,107,195,-178,-17,370,458,229,39,-58,-122
-253,-136,117,195,-185,-9,375,473,239,39,-58,-122
-253,-136,117,195,-185,-9,375,492,258,48,-58,-122
-253,-131,122,192,-187,-4,380,512,268,48,-53,-122
-258,-136,122,197,-190,-7,390,527,283,48,-48,-122
-263,-141,122,202,-192,-9,405,546,292,53,-48,-122
-263,-136,126,200,-195,-4,409,561,307,63,-43,-122
-268,-165,102,217,-185,-31,414,575,322,68,-34,-117
-263,-122,141,192,-202,9,429,590,331,78,-34,-112
-248,-92,156,170,-202,31,439,610,351,87,-24,-112
-248,-92,156,170,-202,31,453,619,361,92,-19,-107
-248,-92,156,170,-202,31,463,629,370,102,-9,-102
-253,-97,156,175,-204,29,453,634,375,107,-14,-107
-258,-92,165,175,-212,36,444,639,385,112,-9,-107
-253,-92,161,173,-207,34,444,649,395,117,0,-97
-253,-82,170,168,-212,43,439,649,409,122,4,-92
-229,-34,195,131,-212,80,439,653,414,126,14,-82
-224,-4,219,114,-222,107,434,653,419,131,14,-82
-224,-19,204,122,-214,92,439,649,424,141,19,-73
-224,-43,180,134,-202,68,439,644,424,156,34,-63
-219,-43,175,131,-197,65,414,639,424,161,39,-53
-204,-34,170,119,-187,68,409,629,434,165,48,-48
-175,4,180,85,-178,92,400,619,439,165,58,-34
-151,34,185,58,-168,109,395,605,444,165,68,-24
-146,34,180,56,-163,107,366,580,434,170,68,-19
-146,14,161,65,-153,87,336,551,429,170,68,-14
-131,34,165,48,-148,100,322,527,419,175,78,0
-112,68,180,21,-146,124,302,492,395,175,82,4
-87,63,151,12,-119,107,292,468,380,170,87,14
-78,68,146,4,-112,107,283,439,370,170,92,19
-78,53,131,12,-104,92,244,400,351,165,92,24
-78,48,126,14,-102,87,209,361,326,151,87,29
-48,82,131,-17,-90,107,185,326,297,141,78,29
-29,102,131,-36,-80,117,170,307,287,136,78,34
-29,82,112,-26,-70,97,141,263,248,126,78,39
-24,78,102,-26,-63,90,122,229,219,117,68,39
-24,63,87,-19,-56,75,112,204,195,107,63,34
-24,53,78,-14,-51,65,102,180,165,97,53,29
-19,53,73,-17,-46,63,82,151,146,82,43,29
-19,48,68,-14,-43,58,73,126,122,73,39,29
-19,43,63,-12,-41,53,68,97,92,63,29,14
-24,24,48,0,-36,36,58,73,78,48,19,9
-24,14,39,4,-31,26,53,63,68,43,14,4
-24,14,39,4,-31,26,39,43,48,34,4,-4
-34,29,63,2,-48,46,29,34,24,24,-9,-9
-48,43,92,2,-70,68,24,24,4,14,-24,-14
-48,14,63,17,-56,39,24,14,4,9,-24,-14
-43,4,48,19,-46,26,24,14,14,9,-14,-14
-43,0,43,21,-43,21,29,4,0,0,-19,-19
-48,-9,39,29,-43,14,29,4,0,0,-19,-24
-48,-24,24,36,-36,0,29,4,0,-4,-19,-24
-43,-34,9,39,-26,-12,29,0,-4,-9,-19,-24
-48,-14,34,31,-41,9,29,0,-14,-14,-29,-34
-53,-19,34,36,-43,7,29,0,-14,-14,-29,-34
-63,-24,39,43,-51,7,29,0,-24,-19,-34,-39
-68,-34,34,51,-51,0,34,-4,-34,-24,-39,-39
-68,-43,24,56,-46,-9,39,0,-24,-24,-39,-39
-68,-53,14,61,-41,-19,39,4,-14,-29,-43,-39
-63,-43,19,53,-41,-12,39,4,-14,-34,-43,-43
-58,-34,24,46,-41,-4,43,4,-19,-34,-43,-48
-63,-19,43,41,-53,12,43,4,-24,-34,-43,-48
-58,-14,43,36,-51,14,39,14,-19,-29,-43,-48
-58,-29,29,43,-43,0,48,19,-19,-29,-43,-48
-63,-53,9,58,-36,-21,48,29,-19,-29,-48,-48
-73,-63,9,68,-41,-26,48,29,-19,-29,-48,-53
-78,-63,14,70,-46,-24,58,29,-14,-29,-43,-53
-78,-53,24,65,-51,-14,58,34,-9,-29,-43,-53
-78,-43,34,61,-56,-4,58,34,-4,-29,-43,-53
-82,-43,39,63,-61,-2,63,34,-4,-29,-48,-58
-82,-48,34,65,-58,-7,73,34,-4,-29,-48,-58
-82,-43,39,63,-61,-2,73,39,-4,-24,-39,-53
-82,-39,43,61,-63,2,73,39,0,-24,-39,-53
-78,-39,39,58,-58,0,68,43,4,-19,-39,-48
-73,-39,34,56,-53,-2,68,43,4,-19,-43,-53
-73,-19,53,46,-63,17,68,39,0,-24,-48,-58
-73,-9,63,41,-68,26,68,39,0,-24,-53,-58
-78,-34,43,56,-61,4,73,43,4,-19,-43,-48
-82,-48,34,65,-58,-7,73,53,4,-14,-43,-48
-82,-43,39,63,-61,-2,68,43,4,-14,-43,-48
-82,-43,39,63,-61,-2,63,43,4,-14,-43,-48
-87,-43,43,65,-65,0,63,43,9,-14,-48,-48
-92,-43,48,68,-70,2,63,43,9,-14,-48,-48
-92,-63,29,78,-61,-17,68,43,9,-14,-48,-48
-87,-53,34,70,-61,-9,78,39,9,-14,-48,-53
-82,-39,43,61,-63,2,78,34,4,-14,-48,-53
-82,-34,48,58,-65,7,78,34,4,-14,-48,-53
-82,-34,48,58,-65,7,68,39,4,-14,-43,-48
-82,-34,48,58,-65,7,63,39,4,-14,-43,-48
-87,-29,58,58,-73,14,43,29,4,-19,-43,-48
-92,-24,68,58,-80,21,29,29,4,-24,-43,-48
-92,-29,63,61,-78,17,48,34,4,-24,-43,-53
-92,-34,58,63,-75,12,68,34,0,-24,-48,-58
-82,-19,63,51,-73,21,63,29,-4,-24,-48,-58
-73,0,73,36,-73,36,68,29,-4,-24,-48,-48
-68,-4,63,36,-65,29,78,34,0,-24,-34,-43
-68,-9,58,39,-63,24,78,39,4,-19,-29,-39
-78,-9,68,43,-73,29,73,39,4,-9,-24,-39
-82,-9,73,46,-78,31,73,39,4,-4,-19,-39
-82,-4,78,43,-80,36,82,43,4,-4,-19,-39
-73,0,73,36,-73,36,92,53,14,4,-14,-34
-48,4,53,21,-51,29,92,68,39,14,-4,-24
-34,-4,29,19,-31,12,87,82,48,14,0,-24
-19,29,48,-4,-34,39,63,73,48,9,0,-24
-9,58,68,-24,-39,63,39,58,48,14,0,-19
-4,63,68,-29,-36,65,39,53,48,19,4,-14
0,68,68,-34,-34,68,39,48,48,29,9,-9
0,68,68,-34,-34,68,39,43,43,29,9,-9
0,68,68,-34,-34,68,39,39,39,29,9,-9
0,68,68,-34,-34,68,39,39,34,29,9,-9
0,63,63,-31,-31,63,34,39,29,24,4,-4
4,58,53,-31,-24,56,34,39,24,19,4,-4
0,39,39,-19,-19,39,29,34,24,14,-4,-14
0,9,9,-4,-4,9,24,29,14,4,-14,-19
0,-19,-19,9,9,-19,19,29,14,4,-14,-19
4,0,-4,-2,4,-2,19,29,14,0,-14,-19
4,19,14,-12,-4,17,24,29,9,0,-14,-19
0,14,14,-7,-7,14,39,34,14,9,-14,-19
-24,-4,19,14,-21,7,58,43,29,9,-14,-24
-68,-24,43,46,-56,9,73,43,19,4,-19,-34
-102,-29,73,65,-87,21,82,43,9,-9,-29,-39
-102,-29,73,65,-87,21,82,39,9,-9,-29,-43
-102,-34,68,68,-85,17,82,29,4,-14,-29,-43
-97,-39,58,68,-78,9,82,29,4,-14,-29,-43
-97,-48,48,73,-73,0,82,24,4,-19,-34,-48
-97,-48,48,73,-73,0,78,24,0,-19,-34,-48
-102,-58,43,80,-73,-7,73,24,0,-19,-39,-53
-107,-43,63,75,-85,9,73,24,0,-19,-39,-53
-107,-29,78,68,-92,24,78,29,4,-14,-34,-48
-126,-58,68,92,-97,4,82,29,0,-14,-34,-48
-141,-78,63,109,-102,-7,82,29,-4,-19,-34,-48
-136,-82,53,109,-95,-14,82,29,-4,-19,-34,-48
-131,-92,39,112,-85,-26,82,29,-4,-14,-34,-48
-122,-78,43,100,-82,-17,82,29,-4,-14,-34,-48
-122,-63,58,92,-90,-2,78,29,-4,-14,-34,-48
-122,-43,78,82,-100,17,78,29,-9,-19,-39,-48
-122,-9,112,65,-117,51,82,29,-9,-19,-39,-53
-122,-34,87,78,-104,26,78,29,-9,-19,-39,-53
-122,-58,63,90,-92,2,78,29,-9,-19,-39,-53
-126,-63,63,95,-95,0,73,29,-9,-14,-39,-53
-131,-63,68,97,-100,2,68,24,-14,-14,-43,-53
-131,-39,92,85,-112,26,68,24,-14,-14,-43,-53
-131,-24,107,78,-119,41,68,24,-9,-14,-43,-53
-122,-34,87,78,-104,26,78,34,-4,-14,-34,-43
-117,-48,68,82,-92,9,107,48,9,-4,-19,-39
-122,-53,68,87,-95,7,122,73,19,-4,-19,-34
-122,-58,63,90,-92,2,131,78,34,0,-19,-34
-126,-63,63,95,-95,0,156,141,78,14,-19,-39
-117,-58,58,87,-87,0,161,200,131,43,0,-19
-78,4,82,36,-80,43,161,141,146,68,24,4
-29,82,112,-26,-70,97,146,73,151,97,58,39
78,131,53,-104,12,92,4,-73,92,92,92,78
219,200,-19,-209,119,90,-248,-229,48,92,122,117
317,263,-53,-290,185,104,-507,-463,-48,92,146,146
405,312,-92,-358,248,109,-824,-795,-229,58,146,190
531,336,-195,-434,363,70,-1141,-1058,-370,14,141,214
639,346,-292,-492,466,26,-1337,-1244,-531,-63,112,229
751,380,-370,-566,561,4,-1454,-1405,-683,-136,92,229
868,434,-434,-651,651,0,-1581,-1590,-805,-151,102,263
961,527,-434,-744,697,46,-1688,-1790,-922,-131,136,322
1044,614,-429,-829,736,92,-1790,-1971,-1034,-122,161,370
1102,639,-463,-871,783,87,-1830,-2049,-1063,-112,200,409
1141,605,-536,-873,839,34,-1820,-2039,-1044,-107,219,419
1151,580,-570,-866,861,4,-1795,-2020,-1034,-136,190,414
1132,502,-629,-817,880,-63,-1761,-2005,-1054,-214,122,366
1078,390,-688,-734,883,-148,-1688,-1942,-1068,-273,58,307
1054,292,-761,-673,907,-234,-1610,-1849,-1073,-351,-24,234
1015,180,-834,-597,924,-326,-1498,-1722,-1054,-434,-112,175
985,92,-893,-539,939,-400,-1351,-1551,-980,-492,-161,131
922,24,-897,-473,910,-436,-1205,-1376,-907,-507,-195,102
863,0,-863,-431,863,-431,-1083,-1239,-819,-488,-195,97
819,-14,-834,-402,827,-424,-956,-1083,-736,-478,-204,87
790,-34,-824,-378,807,-429,-834,-932,-639,-444,-200,82
756,-4,-761,-375,758,-383,-727,-780,-536,-370,-146,117
712,-9,-722,-351,717,-366,-634,-658,-468,-326,-122,112
673,4,-668,-339,671,-331,-527,-531,-380,-292,-122,102
570,9,-561,-290,566,-275,-419,-414,-326,-273,-136,63
448,-34,-483,-207,466,-258,-297,-322,-278,-244,-136,9
326,-68,-395,-129,361,-231,-190,-239,-239,-209,-136,-24
200,-73,-273,-63,236,-173,-107,-156,-190,-170,-126,-39
112,-73,-185,-19,148,-129,-48,-87,-136,-141,-112,-48
39,-73,-112,17,75,-92,24,-24,-82,-92,-82,-48
-34,-73,-39,53,2,-56,82,43,-34,-48,-58,-48
-92,-82,9,87,-51,-36,136,107,19,-19,-43,-48
-141,-97,43,119,-92,-26,170,151,48,-9,-43,-63
-175,-112,63,143,-119,-24,195,170,63,-4,-48,-73
-190,-97,92,143,-141,-2,200,175,63,-9,-48,-73
-204,-97,107,151,-156,4,204,180,63,-4,-43,-73
-195,-107,87,151,-141,-9,209,180,63,-4,-39,-73
-185,-112,73,148,-129,-19,224,200,87,14,-29,-63
-185,-107,78,146,-131,-14,244,214,92,29,-19,-58
-190,-107,82,148,-136,-12,244,214,92,19,-19,-58
-190,-107,82,148,-136,-12,244,214,92,9,-19,-58
-195,-92,102,143,-148,4,239,219,87,9,-34,-73
-200,-87,112,143,-156,12,229,214,82,4,-43,-82
-200,-87,112,143,-156,12,229,214,82,0,-43,-82
-200,-82,117,141,-158,17,229,219,82,0,-39,-82
-209,-102,107,156,-158,2,239,229,87,0,-39,-78
-224,-122,102,173,-163,-9,248,239,92,4,-39,-73
-224,-136,87,180,-156,-24,248,239,97,4,-39,-73
-224,-146,78,185,-151,-34,248,239,97,4,-43,-78
-209,-112,97,161,-153,-7,268,258,102,14,-34,-73
-200,-73,126,136,-163,26,278,273,102,24,-24,-68
-200,-92,107,146,-153,7,273,273,107,24,-24,-68
-204,-102,102,153,-153,0,268,273,112,19,-29,-73
-224,-107,117,165,-170,4,268,278,117,14,-29,-73
-244,-107,136,175,-190,14,273,287,117,14,-29,-73
-224,-112,112,168,-168,0,278,302,122,14,-29,-73
-204,-117,87,161,-146,-14,283,326,131,14,-24,-73
-219,-126,92,173,-156,-17,302,322,141,19,-29,-73
-244,-131,112,187,-178,-9,302,312,146,24,-39,-78
-244,-136,107,190,-175,-14,312,331,146,29,-39,-78
-244,-136,107,190,-175,-14,322,346,151,34,-39,-78
-239,-112,126,175,-183,7,326,356,156,34,-39,-82
-248,-97,151,173,-200,26,331,370,165,34,-39,-82
-248,-136,112,192,-180,-12,346,395,185,43,-34,-82
-248,-161,87,204,-168,-36,356,405,195,43,-29,-82
-248,-151,97,200,-173,-26,370,424,195,43,-29,-82
-258,-141,117,200,-187,-12,380,439,200,48,-29,-82
-263,-136,126,200,-195,-4,390,453,209,48,-29,-82
-263,-136,126,200,-195,-4,400,468,224,58,-29,-82
-268,-131,136,200,-202,2,409,483,229,53,-29,-87
-278,-131,146,204,-212,7,419,497,244,48,-29,-92
-292,-126,165,209,-229,19,414,517,253,53,-29,-92
-302,-107,195,204,-248,43,400,531,268,63,-24,-92
-292,-122,170,207,-231,24,419,546,283,68,-9,-82
-278,-92,185,185,-231,46,448,561,292,78,-4,-73
-258,-68,190,163,-224,61,458,580,312,92,4,-73
-248,-53,195,151,-222,70,463,590,322,102,9,-68
-263,-73,190,168,-226,58,468,600,331,112,19,-63
-278,-87,190,183,-234,51,473,605,336,117,19,-63
-287,-82,204,185,-246,61,473,610,346,117,24,-58
-292,-92,200,192,-246,53,473,619,356,122,29,-48
-292,-82,209,187,-251,63,468,624,370,131,34,-43
-268,-58,209,163,-239,75,468,634,375,136,43,-34
-253,-53,200,153,-226,73,463,634,380,146,48,-29
-239,-43,195,141,-217,75,458,624,385,151,53,-19
-234,-24,209,129,-222,92,434,614,385,156,63,-14
-229,-4,224,117,-226,109,395,610,385,161,68,-4
-224,-9,214,117,-219,102,414,605,400,170,78,0
-214,-4,209,109,-212,102,429,600,405,180,87,14
-200,-9,190,104,-195,90,424,585,405,185,97,24
-185,-4,180,95,-183,87,400,566,395,190,97,29
-165,19,185,73,-175,102,361,541,390,185,97,29
-141,43,185,48,-163,114,331,517,385,185,107,39
-117,58,175,29,-146,117,312,488,370,185,112,43
-87,63,151,12,-119,107,287,468,361,180,117,53
-73,78,151,-2,-112,114,268,439,351,180,122,58
-58,78,136,-9,-97,107,244,400,331,175,122,63
-48,87,136,-19,-92,112,219,356,307,161,117,68
-29,102,131,-36,-80,117,195,317,278,151,107,68
-24,87,112,-31,-68,100,180,297,273,151,107,73
-29,53,82,-12,-56,68,151,253,244,146,107,73
-24,48,73,-12,-48,61,122,224,219,136,97,68
-19,43,63,-12,-41,53,102,204,200,126,92,63
-4,58,63,-26,-34,61,87,180,175,117,82,58
9,73,63,-41,-26,68,63,151,156,102,73,58
9,78,68,-43,-29,73,53,122,126,87,68,53
9,82,73,-46,-31,78,48,92,92,73,58,34
-9,43,53,-17,-31,48,43,73,78,58,48,29
-24,14,39,4,-31,26,43,63,68,53,43,24
-14,24,39,-4,-26,31,29,43,48,43,34,14
-14,29,43,-7,-29,36,24,34,34,34,29,9
-29,24,53,2,-41,39,24,24,24,24,24,4
-29,4,34,12,-31,19,24,14,14,19,14,4
-29,-9,19,19,-24,4,24,14,14,24,14,9
-34,-19,14,26,-24,-2,24,4,0,19,9,9
-39,-19,19,29,-29,0,19,4,0,19,9,4
-43,-34,9,39,-26,-12,19,4,0,14,4,4
-43,-39,4,41,-24,-17,14,-4,-4,4,0,4
-48,-19,29,34,-39,4,9,-9,-14,-4,-9,-4
-53,-29,24,41,-39,-2,9,-9,-14,-4,-9,-4
-58,-34,24,46,-41,-4,9,-4,-14,-4,-9,-9
-48,-29,19,39,-34,-4,19,-4,-9,-4,-9,-9
-39,-24,14,31,-26,-4,29,0,-4,-4,-9,-9
-39,-34,4,36,-21,-14,29,4,-4,-9,-14,-9
-39,-24,14,31,-26,-4,29,4,-4,-14,-14,-14
-43,-19,24,31,-34,2,34,4,-14,-14,-14,-19
-58,-24,34,41,-46,4,39,4,-19,-14,-14,-19
-58,-34,24,46,-41,-4,39,14,-9,-9,-14,-19
-58,-34,24,46,-41,-4,48,14,-9,-9,-14,-19
-63,-53,9,58,-36,-21,48,24,-9,-9,-19,-19
-68,-63,4,65,-36,-29,48,29,-9,-9,-19,-19
-68,-53,14,61,-41,-19,58,29,-4,-9,-14,-14
-68,-53,14,61,-41,-19,58,34,0,-9,-14,-14
-68,-43,24,56,-46,-9,58,34,4,-9,-14,-19
-73,-34,39,53,-56,2,58,39,4,-9,-19,-29
-78,-39,39,58,-58,0,58,39,0,-14,-24,-29
-82,-39,43,61,-63,2,53,39,-4,-14,-19,-24
-82,-39,43,61,-63,2,53,39,0,-14,-19,-24
-82,-39,43,61,-63,2,53,43,4,-9,-19,-24
-82,-43,39,63,-61,-2,63,48,14,-4,-19,-29
-82,-39,43,61,-63,2,68,48,19,-4,-14,-29
-82,-39,43,61,-63,2,68,48,19,-4,-14,-29
-82,-48,34,65,-58,-7,73,53,24,0,-4,-19
-82,-58,24,70,-53,-17,73,63,24,4,-4,-19
-82,-63,19,73,-51,-21,68,53,24,4,-4,-19
-78,-48,29,63,-53,-9,68,53,19,4,-4,-19
-78,-34,43,56,-61,4,73,53,19,4,-9,-19
-82,-19,63,51,-73,21,73,53,19,4,-9,-19
-82,-24,58,53,-70,17,73,53,19,4,-9,-14
-92,-48,43,70,-68,-2,68,48,19,4,-14,-19
-102,-68,34,85,-68,-17,58,43,14,4,-19,-24
-87,-48,39,68,-63,-4,68,43,14,4,-19,-24
-73,-34,39,53,-56,2,73,48,14,4,-14,-19
-63,-29,34,46,-48,2,73,48,14,4,-14,-19
-53,-24,29,39,-41,2,73,39,14,4,-14,-19
-63,-24,39,43,-51,7,78,39,14,4,-14,-19
-73,-29,43,51,-58,7,78,43,14,4,-14,-24
-73,-39,34,56,-53,-2,78,43,9,4,-19,-29
-73,-43,29,58,-51,-7,68,39,4,4,-19,-29
-82,-39,43,61,-63,2,48,29,0,0,-24,-19
-87,-34,53,61,-70,9,39,19,0,-4,-19,-19
-87,-29,58,58,-73,14,48,19,4,0,-19,-19
-92,-29,63,61,-78,17,53,19,4,4,-19,-19
-87,-39,48,63,-68,4,53,24,9,4,-9,-14
-82,-43,39,63,-61,-2,63,34,14,4,0,-9
-73,-19,53,46,-63,17,82,48,24,14,4,-4
-58,14,73,21,-65,43,92,58,39,24,14,4
-63,-9,53,36,-58,21,92,63,39,29,19,4
-68,-19,48,43,-58,14,87,63,39,29,19,4
-58,4,63,26,-61,34,87,63,39,34,19,9
-48,19,68,14,-58,43,73,68,43,43,19,9
-29,19,48,4,-39,34,68,68,48,48,29,14
-9,34,43,-12,-26,39,58,63,43,48,39,14
-4,29,34,-12,-19,31,48,53,48,53,39,19
-4,29,34,-12,-19,31,39,48,58,58,39,29
9,58,48,-34,-19,53,39,48,58,58,39,29
29,87,58,-58,-14,73,39,48,58,58,39,29
19,78,58,-48,-19,68,39,48,48,48,34,19
9,68,58,-39,-24,63,39,48,39,39,29,9
14,53,39,-34,-12,46,39,48,39,34,29,19
14,34,19,-24,-2,26,34,43,34,29,19,14
19,19,0,-19,9,9,29,43,34,24,14,14
19,19,0,-19,9,9,29,39,24,14,4,9
19,29,9,-24,4,19,24,34,24,14,4,4
