I,II,III,aVR,aVL,aVF,V1,V2,V3,V4,V5,V6,
-107,-29,78,68,-92,24,-19,-68,-136,-87,-87,-48
-97,-19,78,58,-87,29,-14,-73,-141,-97,-97,-53
-87,-9,78,48,-82,34,-9,-78,-146,-107,-107,-58
-73,9,82,31,-78,46,-9,-82,-146,-112,-112,-58
-58,29,87,14,-73,58,-9,-87,-146,-117,-117,-58
-82,-4,78,43,-80,36,-24,-92,-165,-136,-131,-78
-107,-39,68,73,-87,14,-39,-97,-185,-156,-146,-97
-107,-39,68,73,-87,14,-39,-102,-190,-161,-165,-102
-107,-39,68,73,-87,14,-39,-107,-195,-165,-185,-107
-107,-19,87,63,-97,34,-29,-107,-195,-165,-170,-107
-107,0,107,53,-107,53,-19,-107,-195,-165,-156,-107
-102,0,102,51,-102,51,-29,-107,-195,-170,-175,-117
-97,0,97,48,-97,48,-39,-107,-195,-175,-195,-126
-97,9,107,43,-102,58,-39,-102,-190,-175,-185,-117
-97,19,117,39,-107,68,-39,-97,-185,-175,-175,-107
-97,43,141,26,-119,92,-29,-82,-170,-161,-156,-97
-97,68,165,14,-131,117,-19,-68,-156,-146,-136,-87
-97,43,141,26,-119,92,-43,-82,-165,-146,-151,-87
-97,19,117,39,-107,68,-68,-97,-175,-146,-165,-87
-68,19,87,24,-78,53,-78,-97,-175,-131,-141,-78
-39,19,58,9,-48,39,-87,-97,-175,-117,-117,-68
4,39,34,-21,-14,36,-92,-92,-156,-87,-87,-43
48,58,9,-53,19,34,-97,-87,-136,-58,-58,-19
48,58,9,-53,19,34,-97,-87,-126,-43,-39,-9
48,58,9,-53,19,34,-97,-87,-117,-29,-19,0
48,63,14,-56,17,39,-92,-78,-102,-9,0,19
48,68,19,-58,14,43,-87,-68,-87,9,19,39
43,78,34,-61,4,56,-68,-48,-68,29,39,48
39,87,48,-63,-4,68,-48,-29,-48,48,58,58
24,78,53,-51,-14,65,-48,-29,-48,48,58,58
9,68,58,-39,-24,63,-48,-29,-48,48,58,58
48,68,19,-58,14,43,-48,-34,-48,43,43,43
87,68,-19,-78,53,24,-48,-39,-48,39,29,29
73,48,-24,-61,48,12,-48,-39,-53,34,29,29
58,29,-29,-43,43,0,-48,-39,-58,29,29,29
39,29,-9,-34,24,9,-43,-29,-58,29,29,29
19,29,9,-24,4,19,-39,-19,-58,29,29,29
19,29,9,-24,4,19,-34,-19,-58,24,24,24
19,29,9,-24,4,19,-29,-19,-58,19,19,19
19,19,0,-19,9,9,-29,-24,-63,9,9,9
19,9,-9,-14,14,0,-29,-29,-68,0,0,0
34,9,-24,-21,29,-7,-29,-29,-68,0,0,0
48,9,-39,-29,43,-14,-29,-29,-68,0,0,0
39,4,-34,-21,36,-14,-29,-34,-73,0,0,0
29,0,-29,-14,29,-14,-29,-39,-78,0,0,0
-14,-34,-19,24,2,-26,-39,-48,-87,-9,-14,-4
-58,-68,-9,63,-24,-39,-48,-58,-97,-19,-29,-9
-39,-43,-4,41,-17,-24,-39,-48,-87,-19,-19,-9
-19,-19,0,19,-9,-9,-29,-39,-78,-19,-9,-9
-9,-19,-9,14,0,-14,-29,-39,-78,-19,-9,-9
0,-19,-19,9,9,-19,-29,-39,-78,-19,-9,-9
0,-14,-14,7,7,-14,-29,-39,-78,-14,-9,-4
0,-9,-9,4,4,-9,-29,-39,-78,-9,-9,0
4,9,4,-7,0,7,-14,-29,-73,0,4,9
9,29,19,-19,-4,24,0,-19,-68,9,19,19
9,4,-4,-7,7,0,-19,-34,-68,-9,0,4
9,-19,-29,4,19,-24,-39,-48,-68,-29,-19,-9
9,-4,-14,-2,12,-9,-29,-39,-68,-19,-9,0
9,9,0,-9,4,4,-19,-29,-68,-9,0,9
0,9,9,-4,-4,9,-19,-29,-68,-9,0,9
-9,9,19,0,-14,14,-19,-29,-68,-9,0,9
4,9,4,-7,0,7,-19,-29,-68,-9,0,9
19,9,-9,-14,14,0,-19,-29,-68,-9,0,9
34,24,-9,-29,21,7,-19,-29,-68,-9,0,9
48,39,-9,-43,29,14,-19,-29,-68,-9,0,9
14,9,-4,-12,9,2,-24,-34,-73,-14,-4,4
-19,-19,0,19,-9,-9,-29,-39,-78,-19,-9,0
-19,-19,0,19,-9,-9,-34,-43,-78,-24,-14,-4
-19,-19,0,19,-9,-9,-39,-48,-78,-29,-19,-9
-4,-19,-14,12,4,-17,-39,-48,-82,-29,-19,-14
9,-19,-29,4,19,-24,-39,-48,-87,-29,-19,-19
9,-19,-29,4,19,-24,-48,-48,-87,-29,-19,-19
9,-19,-29,4,19,-24,-58,-48,-87,-29,-19,-19
9,0,-9,-4,9,-4,-43,-39,-78,-19,-9,-9
9,19,9,-14,0,14,-29,-29,-68,-9,0,0
-9,9,19,0,-14,14,-24,-29,-68,-9,0,0
-29,0,29,14,-29,14,-19,-29,-68,-9,0,0
-19,0,19,9,-19,9,-19,-29,-68,-9,0,0
-9,0,9,4,-9,4,-19,-29,-68,-9,0,0
0,9,9,-4,-4,9,-9,-29,-68,-9,0,0
9,19,9,-14,0,14,0,-29,-68,-9,0,0
34,19,-14,-26,24,2,-19,-39,-73,-14,-4,-4
58,19,-39,-39,48,-9,-39,-48,-78,-19,-9,-9
19,-9,-29,-4,24,-19,-39,-48,-78,-24,-14,-14
-19,-39,-19,29,0,-29,-39,-48,-78,-29,-19,-19
-29,-39,-9,34,-9,-24,-39,-48,-78,-29,-19,-19
-39,-39,0,39,-19,-19,-39,-48,-78,-29,-19,-19
-14,-4,9,9,-12,2,-29,-39,-68,-19,-4,-9
9,29,19,-19,-4,24,-19,-29,-58,-9,9,0
9,19,9,-14,0,14,-19,-29,-58,-9,9,0
9,9,0,-9,4,4,-19,-29,-58,-9,9,0
-9,-9,0,9,-4,-4,-34,-34,-63,-19,-4,-9
-29,-29,0,29,-14,-14,-48,-39,-68,-29,-19,-19
-4,-4,0,4,-2,-2,-34,-39,-68,-14,-9,-4
19,19,0,-19,9,9,-19,-39,-68,0,0,9
39,19,-19,-29,29,0,-34,-39,-68,-9,0,0
58,19,-39,-39,48,-9,-48,-39,-68,-19,0,-9
48,19,-29,-34,39,-4,-34,-39,-68,-19,0,-9
39,19,-19,-29,29,0,-19,-39,-68,-19,0,-9
-4,-14,-9,9,2,-12,-29,-43,-68,-19,-4,-19
-48,-48,0,48,-24,-24,-39,-48,-68,-19,-9,-29
-34,-39,-4,36,-14,-21,-39,-48,-68,-19,-9,-19
-19,-29,-9,24,-4,-19,-39,-48,-68,-19,-9,-9
4,0,-4,-2,4,-2,-29,-39,-63,-9,0,-9
29,29,0,-29,14,14,-19,-29,-58,0,9,-9
14,0,-14,-7,14,-7,-34,-43,-58,-9,0,-19
0,-29,-29,14,14,-29,-48,-58,-58,-19,-9,-29
29,4,-24,-17,26,-9,-34,-43,-58,-19,-9,-19
58,39,-19,-48,39,9,-19,-29,-58,-19,-9,-9
9,4,-4,-7,7,0,-29,-39,-58,-19,-9,-9
-39,-29,9,34,-24,-9,-39,-48,-58,-19,-9,-9
-39,-29,9,34,-24,-9,-39,-48,-58,-19,-9,-9
-39,-29,9,34,-24,-9,-39,-48,-58,-19,-9,-9
-19,-14,4,17,-12,-4,-34,-48,-58,-19,-9,-9
0,0,0,0,0,0,-29,-48,-58,-19,-9,-9
24,9,-14,-17,19,-2,-29,-48,-58,-19,-9,-9
48,19,-29,-34,39,-4,-29,-48,-58,-19,-9,-9
48,9,-39,-29,43,-14,-29,-53,-58,-24,-14,-14
48,0,-48,-24,48,-24,-29,-58,-58,-29,-19,-19
9,-24,-34,7,21,-29,-29,-58,-58,-29,-19,-19
-29,-48,-19,39,-4,-34,-29,-58,-58,-29,-19,-19
-14,-29,-14,21,0,-21,-29,-48,-53,-19,-9,-14
0,-9,-9,4,4,-9,-29,-39,-48,-9,0,-9
24,4,-19,-14,21,-7,-19,-29,-39,-4,4,-9
48,19,-29,-34,39,-4,-9,-19,-29,0,9,-9
39,19,-19,-29,29,0,-24,-19,-29,0,9,-9
29,19,-9,-24,19,4,-39,-19,-29,0,9,-9
29,19,-9,-24,19,4,-39,-19,-14,4,14,-4
34,34,0,-34,17,17,-34,-14,4,19,24,4
39,53,14,-46,12,34,-29,-9,24,34,34,19
43,73,29,-58,7,51,-19,0,34,53,48,43
39,73,34,-56,2,53,-39,4,34,53,53,48
39,73,34,-56,2,53,-43,0,39,53,53,48
53,82,29,-68,12,56,-68,-39,34,39,48,39
73,92,19,-82,26,56,-102,-87,14,24,34,34
73,92,19,-82,26,56,-112,-117,-4,24,24,24
78,82,4,-80,36,43,-136,-141,-19,19,19,19
78,97,19,-87,29,58,-141,-141,-19,14,19,19
73,97,24,-85,24,61,-151,-141,-34,9,19,24
68,107,39,-87,14,73,-161,-170,-48,-4,19,34
68,117,48,-92,9,82,-175,-190,-63,-14,14,43
97,146,48,-122,24,97,-180,-204,-78,-19,19,48
107,180,73,-143,17,126,-180,-190,-78,-19,34,63
97,156,58,-126,19,107,-175,-190,-68,-9,34,63
82,136,53,-109,14,95,-161,-185,-58,-4,39,68
63,126,63,-95,0,95,-165,-175,-58,-9,39,58
29,87,58,-58,-14,73,-161,-165,-58,-19,29,39
48,48,0,-48,24,24,-141,-141,-63,-29,19,29
73,39,-34,-56,53,2,-107,-122,-63,-29,9,24
53,34,-19,-43,36,7,-78,-92,-53,-19,4,19
43,34,-9,-39,26,12,-58,-78,-43,-14,4,14
39,48,9,-43,14,29,-19,-58,-34,-4,14,9
43,53,9,-48,17,31,0,-48,-29,-9,9,-4
-39,-48,-9,43,-14,-29,-34,-68,-63,-39,-29,-39
-97,-117,-19,107,-39,-68,-63,-87,-87,-73,-53,-63
-68,-92,-24,80,-21,-58,-43,-82,-82,-63,-48,-53
-58,-82,-24,70,-17,-53,-29,-82,-78,-63,-48,-43
-9,-39,-29,24,9,-34,-24,-68,-58,-58,-48,-34
39,4,-34,-21,36,-14,-24,-58,-39,-53,-48,-24
-9,-39,-29,24,9,-34,-24,-58,-43,-53,-43,-39
-63,-78,-14,70,-24,-46,-24,-58,-53,-48,-43,-53
-34,-43,-9,39,-12,-26,-24,-53,-53,-48,-39,-43
-14,-39,-24,26,4,-31,-24,-48,-53,-53,-39,-39
-43,-58,-14,51,-14,-36,-24,-53,-53,-53,-39,-39
-68,-78,-9,73,-29,-43,-24,-53,-53,-48,-39,-34
-68,-73,-4,70,-31,-39,-24,-58,-53,-48,-34,-34
-63,-63,0,63,-31,-31,-19,-58,-48,-48,-29,-29
-29,-53,-24,41,-2,-39,-19,-58,-48,-43,-29,-29
-9,-43,-34,26,12,-39,-24,-58,-48,-43,-34,-34
-4,-29,-24,17,9,-26,-19,-48,-39,-39,-34,-34
0,0,0,0,0,0,-14,-39,-9,-19,-14,-9
-4,43,48,-19,-26,46,-14,-43,24,9,4,9
-24,63,87,-19,-56,75,-24,-78,24,9,9,19
-73,39,112,17,-92,75,-29,-107,4,-24,-14,14
-107,4,112,51,-109,58,-43,-122,-24,-53,-29,9
-4,43,48,-19,-26,46,-63,-112,-24,4,63,78
131,131,0,-131,65,65,-92,-73,14,141,234,219
283,234,-48,-258,165,92,-165,-39,78,322,429,380
448,346,-102,-397,275,122,-258,-19,146,502,639,546
570,468,-102,-519,336,183,-331,-24,214,668,819,683
639,614,-24,-627,331,295,-390,-34,292,810,971,795
697,736,39,-717,329,387,-453,-73,366,907,1058,883
736,580,-156,-658,446,212,-370,68,351,790,858,683
771,146,-624,-458,697,-239,-180,302,224,405,326,219
712,-24,-736,-344,724,-380,-39,434,170,141,-19,-48
453,-34,-488,-209,470,-261,180,644,453,322,102,-14
58,-112,-170,26,114,-141,395,780,634,390,122,-48
-190,-239,-48,214,-70,-143,512,819,590,244,-24,-180
-317,-307,9,312,-163,-148,570,824,570,165,-87,-219
-317,-322,-4,319,-156,-163,590,810,497,107,-112,-219
-317,-312,4,314,-161,-153,629,844,512,107,-92,-204
-312,-248,63,280,-187,-92,663,873,605,156,-58,-170
-322,-209,112,265,-217,-48,717,858,610,146,-63,-165
-370,-253,117,312,-244,-68,751,795,551,78,-97,-185
-429,-292,136,361,-283,-78,766,697,453,4,-141,-200
-444,-351,92,397,-268,-129,751,658,287,-82,-185,-224
-405,-361,43,383,-224,-158,727,634,185,-107,-204,-229
-346,-331,14,339,-180,-158,697,629,136,-107,-175,-200
-302,-268,34,285,-168,-117,614,541,102,-87,-136,-151
-200,-165,34,183,-117,-65,507,409,102,-63,-102,-122
-87,-73,14,80,-51,-29,380,283,73,-58,-73,-97
-97,-97,0,97,-48,-48,248,175,24,-58,-73,-92
-87,-102,-14,95,-36,-58,131,97,-9,-53,-68,-68
-78,-102,-24,90,-26,-63,58,19,-24,-63,-68,-58
-87,-107,-19,97,-34,-63,24,-19,-34,-58,-73,-58
-73,-73,0,73,-36,-36,24,-4,-9,-48,-48,-48
-53,-53,0,53,-26,-26,24,-14,-19,-48,-39,-39
-39,-34,4,36,-21,-14,24,-19,-19,-39,-34,-29
-24,0,24,12,-24,12,9,-19,-19,-34,-19,-19
-19,0,19,9,-19,9,4,-29,-9,-24,-19,-34
-19,9,29,4,-24,19,4,-29,4,-9,-9,-34
-34,-24,9,29,-21,-7,0,-39,-19,-34,-24,-34
-78,-63,14,70,-46,-24,-9,-53,-39,-58,-39,-39
-92,-63,29,78,-61,-17,-9,-53,-39,-48,-39,-43
-78,-63,14,70,-46,-24,-14,-53,-39,-43,-43,-43
-53,-43,9,48,-31,-17,-14,-53,-43,-43,-43,-39
-19,-14,4,17,-12,-4,-9,-53,-43,-43,-43,-39
-19,-14,4,17,-12,-4,-9,-48,-19,-34,-29,-34
-24,-14,9,19,-17,-2,-14,-43,-14,-24,-19,-29
-24,-43,-19,34,-2,-31,-19,-48,-39,-43,-39,-34
-19,-53,-34,36,7,-43,-24,-53,-48,-63,-48,-39
-14,-58,-43,36,14,-51,-29,-68,-53,-68,-58,-58
0,-68,-68,34,34,-68,-34,-68,-53,-73,-63,-73
0,-34,-34,17,17,-34,-29,-53,-53,-58,-58,-48
-14,-19,-4,17,-4,-12,-24,-43,-48,-43,-43,-24
-24,-9,14,17,-19,2,-24,-53,-48,-43,-43,-24
-39,-24,14,31,-26,-4,-24,-63,-48,-43,-48,-24
-43,-43,0,43,-21,-21,-29,-73,-53,-58,-58,-39
-53,-43,9,48,-31,-17,-29,-78,-53,-68,-63,-48
-63,-48,14,56,-39,-17,-29,-78,-48,-78,-63,-48
-58,-43,14,51,-36,-14,-29,-78,-43,-68,-63,-48
-73,-34,39,53,-56,2,-29,-73,-43,-63,-58,-43
-87,-34,53,61,-70,9,-29,-68,-48,-58,-53,-39
-78,-24,53,51,-65,14,-29,-73,-48,-63,-53,-39
-48,-14,34,31,-41,9,-29,-73,-43,-63,-53,-39
-43,-14,29,29,-36,7,-29,-78,-48,-78,-58,-43
-39,-9,29,24,-34,9,-34,-82,-53,-78,-58,-48
-39,-9,29,24,-34,9,-34,-87,-58,-82,-63,-53
-58,-9,48,34,-53,19,-29,-87,-58,-82,-73,-53
-68,4,73,31,-70,39,-29,-82,-58,-87,-73,-48
-92,-4,87,48,-90,41,-39,-87,-63,-92,-82,-53
-87,-34,53,61,-70,9,-39,-112,-78,-97,-87,-53
-68,-48,19,58,-43,-14,-48,-126,-87,-117,-107,-73
-68,-39,29,53,-48,-4,-48,-126,-92,-126,-107,-78
-53,-9,43,31,-48,17,-39,-122,-97,-122,-97,-73
-43,4,48,19,-46,26,-48,-122,-97,-122,-97,-68
-68,4,73,31,-70,39,-53,-122,-102,-122,-102,-68
-102,-14,87,58,-95,36,-53,-126,-107,-131,-122,-73
-141,-29,112,85,-126,41,-58,-136,-112,-146,-146,-78
-126,-29,97,78,-112,34,-58,-136,-112,-156,-146,-82
-112,-9,102,61,-107,46,-53,-126,-112,-165,-146,-87
-97,0,97,48,-97,48,-48,-122,-117,-165,-161,-97
-87,14,102,36,-95,58,-53,-131,-117,-165,-156,-97
-87,14,102,36,-95,58,-58,-136,-122,-165,-161,-102
-97,19,117,39,-107,68,-63,-136,-122,-165,-161,-102
-102,19,122,41,-112,70,-63,-146,-117,-161,-156,-102
-112,19,131,46,-122,75,-63,-151,-112,-151,-151,-92
-82,58,141,12,-112,100,-53,-131,-112,-136,-136,-78
-53,87,141,-17,-97,114,-53,-112,-107,-126,-117,-63
-58,58,117,0,-87,87,-78,-126,-107,-131,-126,-68
-68,39,107,14,-87,73,-102,-141,-107,-131,-136,-73
-68,24,92,21,-80,58,-107,-151,-107,-112,-117,-63
-53,24,78,14,-65,51,-112,-151,-97,-97,-107,-53
39,78,39,-58,0,58,-112,-126,-82,-78,-63,-24
82,107,24,-95,29,65,-117,-117,-68,-53,-29,0
58,87,29,-73,14,58,-122,-117,-58,-34,-9,14
24,73,48,-48,-12,61,-122,-107,-39,-9,14,39
68,97,29,-82,19,63,-107,-92,-19,19,39,53
126,131,4,-129,61,68,-97,-78,-9,29,53,63
151,141,-9,-146,80,65,-92,-73,4,43,58,73
141,126,-14,-134,78,56,-92,-73,4,43,58,73
58,53,-4,-56,31,24,-92,-78,0,34,48,58
-4,-9,-4,7,0,-7,-92,-78,0,19,39,48
-4,4,9,0,-7,7,-92,-78,0,19,39,48
-4,24,29,-9,-17,26,-73,-63,4,24,43,48
48,53,4,-51,21,29,-58,-48,14,29,48,53
87,92,4,-90,41,48,-43,-43,19,29,53,58
87,82,-4,-85,46,39,-43,-43,19,14,43,48
63,53,-9,-58,36,21,-48,-43,14,14,34,43
29,29,0,-29,14,14,-48,-53,4,4,24,24
9,14,4,-12,2,9,-48,-58,4,-4,19,19
-9,0,9,4,-9,4,-43,-53,4,-4,19,24
-14,-4,9,9,-12,2,-39,-48,9,-4,19,24
9,9,0,-9,4,4,-39,-43,9,-4,14,29
34,14,-19,-24,26,-2,-43,-48,4,-9,4,29
39,14,-24,-26,31,-4,-43,-48,4,-9,4,19
39,14,-24,-26,31,-4,-43,-48,4,-9,4,19
4,-9,-14,2,9,-12,-48,-53,-4,-9,0,9
-9,-19,-9,14,0,-14,-48,-53,-4,-9,0,9
0,-9,-9,4,4,-9,-48,-48,0,-4,4,14
4,0,-4,-2,4,-2,-48,-43,4,0,9,19
24,4,-19,-14,21,-7,-48,-53,9,0,9,19
19,4,-14,-12,17,-4,-48,-63,9,0,9,19
14,14,0,-14,7,7,-43,-53,14,-4,14,19
14,29,14,-21,0,21,-39,-53,19,0,19,24
14,29,14,-21,0,21,-39,-53,19,0,19,24
34,43,9,-39,12,26,-34,-53,19,0,24,24
39,39,0,-39,19,19,-39,-53,14,-4,19,19
24,24,0,-24,12,12,-43,-58,14,-9,14,14
19,24,4,-21,7,14,-43,-58,14,-9,9,14
14,24,9,-19,2,17,-34,-58,14,-9,9,14
-4,-4,0,4,-2,-2,-53,-58,0,-14,9,9
-19,-24,-4,21,-7,-14,-63,-63,-9,-24,-4,0
0,-24,-24,12,12,-24,-63,-63,-9,-24,-4,0
4,-19,-24,7,14,-21,-63,-63,-9,-24,0,4
29,9,-19,-19,24,-4,-43,-53,0,-19,4,9
48,29,-19,-39,34,4,-34,-43,4,-9,9,14
14,9,-4,-12,9,2,-43,-43,4,-19,9,19
24,9,-14,-17,19,-2,-43,-48,4,-19,4,14
43,24,-19,-34,31,2,-39,-48,9,-9,14,19
43,24,-19,-34,31,2,-39,-48,9,0,24,24
4,4,0,-4,2,2,-39,-53,4,-4,14,24
-14,0,14,7,-14,7,-39,-58,4,-9,14,24
0,0,0,0,0,0,-39,-58,4,-9,9,24
0,9,9,-4,-4,9,-29,-48,4,-4,9,24
4,9,4,-7,0,7,-29,-48,9,-4,9,29
4,4,0,-4,2,2,-29,-48,9,-4,9,29
-24,-14,9,19,-17,-2,-34,-48,4,-14,4,19
-43,-24,19,34,-31,-2,-34,-48,4,-19,4,14
-19,-14,4,17,-12,-4,-39,-48,4,-14,9,14
0,0,0,0,0,0,-39,-48,0,-9,14,19
43,14,-29,-29,36,-7,-43,-48,0,-14,9,14
87,29,-58,-58,73,-14,-48,-53,0,-19,4,9
68,14,-53,-41,61,-19,-53,-53,-4,-24,0,9
48,0,-48,-24,48,-24,-58,-58,-9,-24,-4,9
24,-9,-34,-7,29,-21,-58,-53,-14,-19,-9,9
-4,-24,-19,14,7,-21,-63,-48,-14,-14,-9,9
-9,-24,-14,17,2,-19,-53,-58,-9,-19,-9,4
0,-14,-14,7,7,-14,-48,-58,-4,-19,-4,9
9,-9,-19,0,14,-14,-48,-53,-4,-19,0,9
14,-4,-19,-4,17,-12,-43,-48,0,-14,4,14
19,0,-19,-9,19,-9,-39,-43,0,-9,4,19
14,4,-9,-9,12,-2,-34,-39,0,-4,4,24
14,14,0,-14,7,7,-34,-39,0,-4,9,24
9,24,14,-17,-2,19,-29,-29,0,0,9,29
9,14,4,-12,2,9,-34,-43,0,0,9,29
0,4,4,-2,-2,4,-39,-48,0,0,9,19
0,0,0,0,0,0,-43,-48,0,-4,4,14
14,0,-14,-7,14,-7,-43,-48,0,-9,4,9
19,14,-4,-17,12,4,-43,-48,0,-9,4,14
19,24,4,-21,7,14,-43,-48,0,-4,9,14
9,0,-9,-4,9,-4,-43,-53,-4,-9,4,9
-9,-39,-29,24,9,-34,-48,-53,-14,-24,-9,-4
-9,-29,-19,19,4,-24,-48,-53,-14,-24,-9,-4
0,-24,-24,12,12,-24,-48,-53,-9,-19,-4,4
39,4,-34,-21,36,-14,-43,-48,-4,-9,9,24
73,34,-39,-53,56,-2,-39,-43,0,-4,24,39
24,4,-19,-14,21,-7,-39,-43,0,-9,19,29
0,-19,-19,9,9,-19,-39,-43,0,-9,9,19
4,9,4,-7,0,7,-34,-39,4,-4,9,24
4,9,4,-7,0,7,-34,-39,4,-4,9,24
-9,-19,-9,14,0,-14,-39,-43,-4,-19,4,14
0,-19,-19,9,9,-19,-39,-48,-9,-24,0,14
4,-29,-34,12,19,-31,-53,-58,-19,-34,-14,0
24,-29,-53,2,39,-41,-63,-63,-24,-39,-29,-9
34,4,-29,-19,31,-12,-43,-48,-9,-24,0,4
29,24,-4,-26,17,9,-29,-39,4,-14,14,19
29,9,-19,-19,24,-4,-34,-43,0,-19,4,9
29,-4,-34,-12,31,-19,-43,-48,0,-24,-4,4
4,-19,-24,7,14,-21,-43,-53,-4,-19,0,0
-19,-39,-19,29,0,-29,-48,-58,-9,-19,0,0
-9,-29,-19,19,4,-24,-48,-58,-9,-19,0,0
0,-19,-19,9,9,-19,-48,-58,-9,-19,0,0
19,14,-4,-17,12,4,-39,-48,0,-9,4,19
39,48,9,-43,14,29,-29,-39,9,0,9,39
14,24,9,-19,2,17,-29,-39,9,0,9,29
-9,0,9,4,-9,4,-29,-39,9,0,9,19
-9,-24,-14,17,2,-19,-34,-48,0,-14,-9,9
-9,-48,-39,29,14,-43,-39,-58,-9,-29,-29,0
19,-14,-34,-2,26,-24,-39,-58,-9,-29,-19,0
48,19,-29,-34,39,-4,-39,-58,-9,-29,-9,0
29,0,-29,-14,29,-14,-48,-63,-14,-29,-9,0
9,-19,-29,4,19,-24,-58,-68,-19,-29,-9,0
0,-19,-19,9,9,-19,-58,-68,-19,-29,-9,0
-9,-19,-9,14,0,-14,-58,-68,-19,-29,-9,0
9,-9,-19,0,14,-14,-48,-58,-9,-24,-9,0
29,0,-29,-14,29,-14,-39,-48,0,-19,-9,0
29,4,-24,-17,26,-9,-34,-34,4,-9,4,9
29,9,-19,-19,24,-4,-29,-19,9,0,19,19
29,9,-19,-19,24,-4,-29,-19,14,4,19,24
29,9,-19,-19,24,-4,-29,-19,19,9,19,29
39,29,-9,-34,24,9,-39,-19,24,9,19,29
48,48,0,-48,24,24,-48,-19,29,9,19,29
58,53,-4,-56,31,24,-48,-19,39,14,19,29
58,58,0,-58,29,29,-48,-14,43,19,24,39
58,68,9,-63,24,39,-48,-9,53,29,34,53
39,73,34,-56,2,53,-68,-9,48,34,43,68
58,87,29,-73,14,58,-63,-4,58,39,48,68
73,102,29,-87,21,65,-78,-29,63,34,48,63
58,87,29,-73,14,58,-112,-92,29,24,34,53
43,82,39,-63,2,61,-112,-122,9,24,34,43
78,102,24,-90,26,63,-122,-122,19,19,39,58
112,136,24,-124,43,80,-122,-122,19,14,39,68
112,151,39,-131,36,95,-122,-131,4,19,48,73
107,175,68,-141,19,122,-126,-161,0,14,53,73
39,107,68,-73,-14,87,-180,-204,-39,-19,14,53
0,43,43,-21,-21,43,-219,-244,-78,-48,-14,34
53,102,48,-78,2,75,-204,-209,-68,-39,9,53
97,131,34,-114,31,82,-185,-185,-48,-19,24,63
107,136,29,-122,39,82,-170,-175,-39,-9,39,73
117,146,29,-131,43,87,-165,-165,-39,-4,48,78
78,102,24,-90,26,63,-151,-156,-39,-9,29,68
48,34,-14,-41,31,9,-131,-131,-43,-19,9,48
43,19,-24,-31,34,-2,-97,-112,-43,-19,0,34
24,14,-9,-19,17,2,-78,-92,-39,-19,-9,24
4,4,0,-4,2,2,-68,-87,-34,-24,-14,9
-29,-9,19,19,-24,4,-48,-78,-34,-24,-14,0
-9,-19,-9,14,0,-14,-48,-78,-39,-39,-29,-14
-9,-39,-29,24,9,-34,-48,-73,-48,-43,-43,-24
-19,-39,-19,29,0,-29,-34,-63,-43,-48,-34,-19
0,-24,-24,12,12,-24,-14,-53,-34,-34,-19,-14
-19,-29,-9,24,-4,-19,-9,-53,-29,-34,-19,-4
-34,-34,0,34,-17,-17,-4,-43,-29,-34,-19,4
-29,-48,-19,39,-4,-34,-19,-48,-39,-43,-29,-9
-24,-63,-39,43,7,-51,-34,-58,-43,-53,-34,-24
-24,-58,-34,41,4,-46,-34,-58,-43,-48,-34,-24
-24,-48,-24,36,0,-36,-34,-58,-43,-48,-34,-24
-29,-48,-19,39,-4,-34,-24,-48,-39,-48,-34,-24
-24,-29,-4,26,-9,-17,-14,-43,-34,-43,-29,-19
-19,-29,-9,24,-4,-19,-14,-43,-29,-39,-29,-14
-19,-24,-4,21,-7,-14,-14,-43,-24,-39,-24,-14
-14,-14,0,14,-7,-7,-4,-34,-19,-39,-19,-9
-14,-14,0,14,-7,-7,0,-29,-19,-34,-19,-9
-14,-4,9,9,-12,2,4,-29,-19,-34,-14,-14
-9,4,14,2,-12,9,14,-29,-9,-29,-4,-14
-29,0,29,14,-29,14,-4,-43,9,-14,-4,4
-43,24,68,9,-56,46,-24,-63,19,0,-4,19
-82,39,122,21,-102,80,-34,-97,4,-9,0,29
-78,53,131,12,-104,92,-39,-112,0,-9,9,53
-29,63,92,-17,-61,78,-53,-107,-14,0,39,87
82,87,4,-85,39,46,-97,-92,-14,73,146,165
229,161,-68,-195,148,46,-161,-53,19,219,322,297
390,283,-107,-336,248,87,-234,-19,92,400,517,448
556,414,-141,-485,348,136,-307,4,175,580,727,614
649,507,-141,-578,395,183,-351,14,234,717,863,722
688,624,-63,-656,375,280,-380,19,302,814,951,785
736,649,-87,-692,412,280,-390,34,341,814,917,756
766,409,-356,-588,561,26,-263,224,297,624,624,473
741,68,-673,-405,707,-302,-82,424,229,331,204,107
595,-48,-644,-273,619,-346,48,507,229,151,-39,-78
283,-97,-380,-92,331,-239,253,678,473,297,63,-43
-117,-170,-53,143,-31,-112,453,800,614,336,73,-68
-268,-239,29,253,-148,-104,561,844,570,214,-34,-170
-312,-268,43,290,-178,-112,605,844,551,156,-68,-190
-307,-268,39,287,-173,-114,619,829,502,112,-92,-190
-297,-244,53,270,-175,-95,649,844,536,117,-82,-185
-307,-219,87,263,-197,-65,668,814,585,126,-78,-175
-356,-219,136,287,-246,-41,727,761,551,87,-102,-185
-405,-263,141,334,-273,-61,756,697,478,19,-136,-204
-463,-312,151,387,-307,-80,756,600,366,-53,-180,-219
-478,-356,122,417,-300,-117,732,556,214,-122,-204,-229
-424,-341,82,383,-253,-129,697,527,126,-122,-204,-219
-356,-297,58,326,-207,-119,663,507,92,-117,-175,-190
-287,-209,78,248,-183,-65,575,414,78,-92,-126,-136
-224,-151,73,187,-148,-39,453,302,68,-63,-97,-107
-131,-97,34,114,-82,-31,312,190,24,-58,-82,-87
-68,-78,-9,73,-29,-43,209,117,-9,-58,-73,-82
-53,-78,-24,65,-14,-51,117,68,-34,-58,-63,-63
-63,-78,-14,70,-24,-46,48,9,-39,-63,-58,-53
-63,-68,-4,65,-29,-36,24,-9,-34,-48,-53,-48
-68,-63,4,65,-36,-29,24,4,-19,-39,-39,-39
-63,-43,19,53,-41,-12,29,0,-34,-34,-39,-29
-63,-24,39,43,-51,7,29,-4,-29,-24,-39,-29
-43,0,43,21,-43,21,9,-9,-29,-24,-29,-29
-19,0,19,9,-19,9,4,-19,-34,-29,-39,-43
-29,-9,19,19,-24,4,4,-19,-34,-29,-39,-39
-29,-19,9,24,-19,-4,4,-19,-39,-29,-39,-29
-68,-43,24,56,-46,-9,4,-24,-34,-29,-39,-29
-102,-63,39,82,-70,-12,9,-24,-29,-29,-39,-34
-39,-24,14,31,-26,-4,9,-19,-29,-34,-43,-34
9,14,4,-12,2,9,14,-14,-34,-34,-43,-29
0,14,14,-7,-7,14,19,-14,-34,-24,-29,-19
-19,4,24,7,-21,14,19,-14,-24,-14,-9,-9
-68,-48,19,58,-43,-14,-19,-43,-63,-48,-43,-43
-112,-122,-9,117,-51,-65,-53,-78,-107,-87,-87,-82
-92,-102,-9,97,-41,-56,-34,-63,-92,-78,-73,-78
-78,-78,0,78,-39,-39,-19,-58,-82,-68,-68,-73
-63,-68,-4,65,-29,-36,-19,-48,-68,-68,-68,-68
-58,-39,19,48,-39,-9,-14,-34,-58,-63,-63,-58
-58,-39,19,48,-39,-9,-14,-43,-68,-63,-53,-53
-43,-29,14,36,-29,-7,-14,-53,-78,-63,-53,-53
-48,-34,14,41,-31,-9,-14,-53,-78,-63,-68,-53
-53,-43,9,48,-31,-17,-19,-63,-82,-68,-82,-58
-63,-43,19,53,-41,-12,-14,-63,-82,-63,-73,-53
-63,-39,24,51,-43,-7,-9,-58,-82,-68,-63,-48
-29,0,29,14,-29,14,0,-48,-73,-58,-63,-48
-9,34,43,-12,-26,39,9,-39,-63,-58,-63,-48
-43,-4,39,24,-41,17,-4,-48,-82,-63,-73,-53
-97,-48,48,73,-73,0,-19,-63,-102,-73,-82,-58
-97,-53,43,75,-70,-4,-19,-63,-102,-73,-73,-58
-92,-53,39,73,-65,-7,-24,-68,-107,-87,-73,-63
-53,-19,34,36,-43,7,-29,-68,-102,-82,-78,-68
-9,9,19,0,-14,14,-24,-68,-97,-82,-82,-73
-29,-4,24,17,-26,9,-19,-68,-97,-82,-92,-73
-39,4,43,17,-41,24,-9,-58,-92,-82,-82,-63
-97,-14,82,56,-90,34,-14,-58,-97,-87,-82,-63
-156,-63,92,109,-124,14,-19,-73,-117,-97,-87,-63
-107,-48,58,78,-82,4,-29,-78,-126,-117,-107,-82
-73,-19,53,46,-63,17,-39,-87,-131,-131,-117,-92
-87,-19,68,53,-78,24,-39,-92,-141,-131,-122,-92
-82,-24,58,53,-70,17,-39,-92,-146,-131,-126,-87
-126,-43,82,85,-104,19,-34,-102,-151,-131,-131,-97
-156,-63,92,109,-124,14,-34,-112,-156,-141,-141,-112
-136,-34,102,85,-119,34,-34,-107,-161,-156,-156,-107
-112,-9,102,61,-107,46,-29,-97,-161,-156,-156,-102
-112,14,126,48,-119,70,-24,-87,-161,-156,-156,-107
-112,9,122,51,-117,65,-24,-87,-170,-165,-175,-117
-102,14,117,43,-109,65,-34,-102,-175,-175,-175,-117
-87,24,112,31,-100,68,-39,-107,-180,-175,-180,-122
-112,4,117,53,-114,61,-43,-107,-180,-185,-180,-122
-112,-4,107,58,-109,51,-43,-107,-175,-190,-175,-122
-102,19,122,41,-112,70,-43,-102,-170,-170,-170,-112
-87,39,126,24,-107,82,-43,-102,-170,-156,-165,-107
-68,39,107,14,-87,73,-53,-102,-165,-156,-156,-102
-53,29,82,12,-68,56,-68,-102,-165,-151,-151,-97
-48,29,78,9,-63,53,-82,-102,-165,-141,-151,-92
-24,34,58,-4,-41,46,-82,-102,-165,-112,-122,-73
14,63,48,-39,-17,56,-82,-92,-151,-87,-97,-48
63,97,34,-80,14,65,-82,-78,-131,-68,-63,-24
34,73,39,-53,-2,56,-87,-78,-117,-39,-34,-9
0,43,43,-21,-21,43,-92,-78,-107,-14,-9,4
0,58,58,-29,-29,58,-92,-73,-87,9,14,29
29,82,53,-56,-12,68,-78,-63,-68,34,39,43
58,102,43,-80,7,73,-68,-48,-58,39,53,53
73,102,29,-87,21,65,-63,-43,-43,53,58,63
87,97,9,-92,39,53,-63,-43,-39,53,58,63
87,82,-4,-85,46,39,-63,-48,-39,43,48,48
48,43,-4,-46,26,19,-63,-48,-39,29,39,39
24,29,4,-26,9,17,-63,-48,-39,29,39,39
4,14,9,-9,-2,12,-43,-34,-39,34,43,39
4,4,0,-4,2,2,-34,-24,-39,39,43,39
63,58,-4,-61,34,26,-24,-24,-39,39,43,39
117,82,-34,-100,75,24,-24,-24,-39,24,34,29
48,29,-19,-39,34,4,-34,-29,-48,14,19,14
-9,-9,0,9,-4,-4,-39,-39,-63,0,9,-9
0,-14,-14,7,7,-14,-39,-39,-63,-4,9,-9
9,-14,-24,2,17,-19,-34,-34,-63,-4,9,-4
24,9,-14,-17,19,-2,-24,-24,-53,4,14,4
24,24,0,-24,12,12,-19,-19,-48,9,14,9
24,4,-19,-14,21,-7,-24,-29,-53,0,4,0
19,-4,-24,-7,21,-14,-24,-29,-53,0,4,0
9,-4,-14,-2,12,-9,-24,-29,-53,0,4,9
-9,-19,-9,14,0,-14,-29,-34,-63,0,0,0
-24,-19,4,21,-14,-7,-34,-34,-63,-4,0,0
-29,-9,19,19,-24,4,-34,-29,-58,-4,4,4
-14,0,14,7,-14,7,-29,-24,-53,0,9,9
9,0,-9,-4,9,-4,-29,-24,-48,0,9,9
39,24,-14,-31,26,4,-14,-24,-48,9,9,9
73,48,-24,-61,48,12,-4,-24,-53,9,4,4
29,4,-24,-17,26,-9,-19,-43,-68,-4,-4,-4
-14,-39,-24,26,4,-31,-29,-53,-78,-19,-9,-14
4,-9,-14,2,9,-12,-24,-43,-68,-9,-4,-4
4,4,0,-4,2,2,-24,-29,-58,0,-4,4
-14,-4,9,9,-12,2,-24,-29,-53,0,-4,4
-19,-4,14,12,-17,4,-24,-29,-53,0,-4,4
4,0,-4,-2,4,-2,-14,-29,-58,-4,0,0
29,-4,-34,-12,31,-19,-24,-29,-68,-9,0,-4
14,-4,-19,-4,17,-12,-24,-34,-68,-14,-9,-9
19,-4,-24,-7,21,-14,-24,-34,-68,-14,-4,-9
-9,-9,0,9,-4,-4,-24,-34,-68,-9,0,0
-39,-9,29,24,-34,9,-14,-29,-63,0,4,4
-24,-9,14,17,-19,2,-14,-24,-63,9,4,4
-43,-29,14,36,-29,-7,-24,-24,-63,0,0,4
-4,-24,-19,14,7,-21,-34,-39,-73,-14,-14,-19
43,-4,-48,-19,46,-26,-43,-48,-82,-29,-24,-34
24,-4,-29,-9,26,-17,-39,-39,-78,-14,-14,-19
-14,-19,-4,17,-4,-12,-29,-34,-73,-4,-14,-4
-14,-14,0,14,-7,-7,-29,-39,-73,-9,-9,-4
0,-9,-9,4,4,-9,-29,-39,-73,-9,-4,-4
-4,0,4,2,-4,2,-19,-29,-73,-4,0,-4
-4,4,9,0,-7,7,-19,-29,-68,-4,0,0
-4,-4,0,4,-2,-2,-19,-29,-68,-4,-4,0
-14,-24,-9,19,-2,-17,-24,-29,-73,-9,-14,-4
9,-4,-14,-2,12,-9,-24,-29,-73,-14,-14,-4
34,14,-19,-24,26,-2,-24,-29,-68,-14,-9,-4
9,4,-4,-7,7,0,-19,-29,-68,-9,0,0
-9,-9,0,9,-4,-4,-19,-24,-68,-9,4,0
-19,-9,9,14,-14,0,-19,-24,-68,-4,4,0
-29,-9,19,19,-24,4,-19,-24,-68,-4,4,0
-19,-9,9,14,-14,0,-19,-29,-63,-4,4,0
-4,-9,-4,7,0,-7,-19,-29,-63,-4,0,0
-4,-9,-4,7,0,-7,-24,-29,-63,-4,0,0
-19,-14,4,17,-12,-4,-24,-39,-63,-9,-4,-9
-19,-14,4,17,-12,-4,-34,-43,-68,-14,-9,-14
-9,-9,0,9,-4,-4,-39,-43,-73,-19,-14,-19
14,-4,-19,-4,17,-12,-34,-39,-68,-24,-14,-14
43,0,-43,-21,43,-21,-34,-39,-68,-34,-14,-14
43,4,-39,-24,41,-17,-34,-34,-68,-24,-9,-14
43,4,-39,-24,41,-17,-34,-29,-68,-14,0,-14
0,-9,-9,4,4,-9,-29,-19,-68,-9,0,-9
-39,-24,14,31,-26,-4,-29,-29,-68,-9,0,-9
-29,-9,19,19,-24,4,-24,-29,-63,-9,0,-19
-9,0,9,4,-9,4,-24,-29,-58,-14,-4,-19
19,19,0,-19,9,9,-14,-29,-58,-4,9,0
39,43,4,-41,17,24,-4,-29,-58,9,24,24
14,9,-4,-12,9,2,-19,-39,-68,-4,4,0
-14,-29,-14,21,0,-21,-34,-53,-78,-24,-19,-24
-19,-48,-29,34,4,-39,-39,-53,-82,-34,-29,-34
-9,-39,-29,24,9,-34,-39,-53,-82,-34,-29,-34
19,4,-14,-12,17,-4,-29,-43,-63,-19,-4,-14
43,43,0,-43,21,21,-19,-34,-48,-4,14,-4
19,19,0,-19,9,9,-29,-34,-48,-4,4,-9
-19,-4,14,12,-17,4,-39,-34,-48,-9,0,-9
-24,-19,4,21,-14,-7,-39,-34,-53,-19,0,-9
-34,-19,14,26,-24,-2,-34,-29,-53,-24,0,-4
4,0,-4,-2,4,-2,-29,-29,-53,-9,4,0
19,0,-19,-9,19,-9,-29,-34,-58,-4,4,-4
29,19,-9,-24,19,4,-19,-29,-43,4,9,-4
43,43,0,-43,21,21,-9,-19,-29,14,19,-4
29,9,-19,-19,24,-4,-24,-34,-43,0,0,-14
-4,-34,-29,19,12,-31,-43,-53,-63,-19,-9,-29
-34,-39,-4,36,-14,-21,-48,-58,-68,-24,-14,-34
-63,-68,-4,65,-29,-36,-48,-73,-78,-39,-29,-43
-29,-39,-9,34,-9,-24,-43,-63,-68,-34,-24,-29
0,-9,-9,4,4,-9,-39,-58,-58,-29,-19,-19
14,-9,-24,-2,19,-17,-43,-58,-58,-29,-19,-19
29,-9,-39,-9,34,-24,-48,-58,-58,-29,-19,-19
14,-9,-24,-2,19,-17,-48,-53,-58,-24,-14,-19
0,-9,-9,4,4,-9,-48,-48,-58,-19,-9,-19
0,-4,-4,2,2,-4,-34,-43,-48,-19,-9,-14
0,0,0,0,0,0,-19,-39,-39,-19,-9,-9
39,24,-14,-31,26,4,-19,-39,-39,-19,-9,-9
78,48,-29,-63,53,9,-19,-39,-39,-19,-9,-9
43,14,-29,-29,36,-7,-29,-39,-48,-19,-9,-19
9,-19,-29,4,19,-24,-39,-39,-58,-19,-9,-29
9,-4,-14,-2,12,-9,-39,-34,-43,-14,-4,-19
9,9,0,-9,4,4,-39,-29,-29,-9,0,-9
24,29,4,-26,9,17,-39,-24,-14,4,9,0
39,48,9,-43,14,29,-39,-19,0,19,19,9
58,68,9,-63,24,39,-39,-19,9,24,19,9
58,73,14,-65,21,43,-34,-14,14,29,24,14
63,78,14,-70,24,46,-34,-9,24,34,34,24
39,63,24,-51,7,43,-48,-9,19,34,43,29
24,63,39,-43,-7,51,-48,-9,19,39,43,34
4,63,58,-34,-26,61,-68,-39,14,34,39,34
19,78,58,-48,-19,68,-102,-87,4,24,29,34
34,102,68,-68,-17,85,-102,-102,9,24,34,34
48,102,53,-75,-2,78,-117,-112,9,19,39,39
63,117,53,-90,4,85,-122,-122,0,14,39,39
68,102,34,-85,17,68,-146,-141,-39,0,24,34
68,97,29,-82,19,63,-175,-180,-68,-24,4,24
68,107,39,-87,14,73,-195,-200,-82,-34,-4,24
97,122,24,-109,36,73,-200,-214,-97,-39,-4,24
107,156,48,-131,29,102,-190,-195,-92,-34,14,43
107,161,53,-134,26,107,-175,-185,-78,-19,24,53
107,161,53,-134,26,107,-161,-175,-68,-14,29,58
107,165,58,-136,24,112,-156,-165,-68,-14,29,58
87,136,48,-112,19,92,-151,-165,-68,-14,19,43
78,82,4,-80,36,43,-141,-151,-73,-19,9,19
63,48,-14,-56,39,17,-97,-117,-68,-19,4,4
34,24,-9,-29,21,7,-68,-82,-58,-19,0,-4
53,43,-9,-48,31,17,-58,-78,-43,-24,-4,0
58,58,0,-58,29,29,-39,-68,-34,-24,-4,9
19,0,-19,-9,19,-9,-39,-73,-48,-48,-29,-19
-39,-68,-29,53,-4,-48,-39,-73,-68,-63,-53,-43
-63,-68,-4,65,-29,-36,-39,-68,-68,-63,-43,-43
-58,-53,4,56,-31,-24,-34,-63,-63,-43,-29,-43
-63,-53,9,58,-36,-21,-29,-63,-58,-43,-29,-43
-63,-53,9,58,-36,-21,-24,-53,-58,-43,-29,-43
-58,-53,4,56,-31,-24,-24,-48,-58,-43,-29,-43
-53,-53,0,53,-26,-26,-24,-48,-53,-43,-24,-43
-24,-24,0,24,-12,-12,-24,-48,-53,-39,-24,-34
4,9,4,-7,0,7,-24,-48,-53,-39,-24,-24
-29,-53,-24,41,-2,-39,-29,-58,-53,-48,-39,-43
-53,-97,-43,75,-4,-70,-34,-73,-53,-53,-48,-58
-39,-78,-39,58,0,-58,-34,-73,-53,-48,-48,-53
-29,-53,-24,41,-2,-39,-34,-73,-53,-48,-43,-53
0,-39,-39,19,19,-39,-29,-63,-48,-48,-39,-48
24,-34,-58,4,41,-46,-29,-58,-48,-43,-39,-48
0,-34,-34,17,17,-34,-24,-53,-48,-43,-43,-43
-19,-34,-14,26,-2,-24,-14,-48,-39,-39,-43,-34
-43,-29,14,36,-29,-7,-14,-48,-4,-19,-24,-19
-63,4,68,29,-65,36,-14,-53,19,0,-4,-9
-87,43,131,21,-109,87,-24,-87,14,-9,0,0
-68,82,151,-7,-109,117,-29,-102,19,-9,9,24
-63,73,136,-4,-100,104,-34,-107,-9,-29,0,29
4,78,73,-41,-34,75,-68,-102,-24,14,68,78
126,126,0,-126,63,63,-122,-73,0,141,229,204
263,224,-39,-244,151,92,-185,-48,63,302,409,351
483,380,-102,-431,292,139,-273,-14,161,507,649,546
629,497,-131,-563,380,183,-331,4,234,668,814,683
639,658,19,-649,309,339,-400,-39,307,834,995,829
658,727,68,-692,295,397,-448,-73,351,902,1054,883
727,488,-239,-607,483,124,-341,117,302,722,766,585
741,146,-595,-444,668,-224,-180,317,229,439,351,204
692,14,-678,-353,685,-331,-48,419,190,190,29,-34
478,-48,-527,-214,502,-287,156,610,395,268,53,-53
14,-141,-156,63,85,-148,375,761,590,346,82,-73
-200,-229,-29,214,-85,-129,502,834,600,263,-4,-170
-248,-268,-19,258,-114,-143,570,834,570,175,-58,-204
-248,-278,-29,263,-109,-153,610,819,512,102,-102,-219
-283,-253,29,268,-156,-112,634,868,551,126,-82,-204
-336,-229,107,283,-222,-61,649,873,605,156,-68,-185
-356,-229,126,292,-241,-51,712,834,590,117,-92,-195
-375,-273,102,324,-239,-85,746,785,536,48,-126,-214
-444,-317,126,380,-285,-95,756,688,434,-24,-170,-229
-468,-356,112,412,-290,-122,741,644,292,-92,-195,-239
-414,-346,68,380,-241,-139,722,634,190,-102,-195,-229
-346,-307,39,326,-192,-134,702,634,141,-107,-165,-200
-292,-229,63,261,-178,-82,624,531,122,-87,-122,-151
-244,-180,63,212,-153,-58,512,409,107,-63,-97,-126
-200,-141,58,170,-129,-41,361,273,58,-58,-82,-107
-185,-136,48,161,-117,-43,248,175,19,-58,-73,-102
-107,-107,0,107,-53,-53,141,102,-14,-53,-63,-78
-53,-78,-24,65,-14,-51,58,19,-29,-53,-58,-63
-19,-34,-14,26,-2,-24,34,-4,-14,-39,-53,-58
9,4,-4,-7,7,0,34,4,9,-29,-39,-48
-19,-19,0,19,-9,-9,34,-4,-9,-34,-39,-39
-53,-43,9,48,-31,-17,29,-14,-9,-34,-39,-39
-73,-43,29,58,-51,-7,4,-24,-14,-34,-29,-39
-87,-68,19,78,-53,-24,-4,-39,-24,-39,-39,-53
-53,-43,9,48,-31,-17,-4,-39,-24,-39,-39,-48
-9,-19,-9,14,0,-14,-4,-39,-29,-39,-39,-39
-4,-4,0,4,-2,-2,-9,-43,-19,-29,-39,-39
4,14,9,-9,-2,12,-9,-43,-9,-19,-39,-43
-29,-24,4,26,-17,-9,-29,-48,-19,-39,-48,-53
-78,-63,14,70,-46,-24,-43,-53,-34,-53,-53,-58
-82,-53,29,68,-56,-12,-29,-53,-34,-53,-53,-58
-97,-53,43,75,-70,-4,-19,-53,-24,-53,-48,-58
-73,-14,58,43,-65,21,-9,-43,-19,-43,-43,-48
-43,4,48,19,-46,26,4,-39,-19,-39,-48,-43
-39,-19,19,29,-29,0,-4,-43,-29,-43,-48,-48
-39,-39,0,39,-19,-19,-19,-58,-43,-48,-58,-53
-19,-39,-19,29,0,-29,-24,-58,-43,-53,-63,-53
-9,-19,-9,14,0,-14,-24,-53,-48,-53,-63,-48
-39,-19,19,29,-29,0,-24,-53,-48,-53,-53,-43
-53,-9,43,31,-48,17,-24,-53,-48,-53,-53,-43
-68,-24,43,46,-56,9,-24,-53,-48,-58,-58,-48
-82,-43,39,63,-61,-2,-29,-63,-53,-68,-63,-58
-68,-34,34,51,-51,0,-34,-68,-53,-68,-63,-58
-43,-19,24,31,-34,2,-39,-68,-53,-78,-63,-58
-29,-19,9,24,-19,-4,-39,-73,-53,-68,-63,-58
-29,-24,4,26,-17,-9,-39,-78,-53,-68,-63,-58
-19,0,19,9,-19,9,-29,-78,-53,-63,-63,-58
-29,19,48,4,-39,34,-19,-82,-53,-63,-63,-58
-78,-14,63,46,-70,24,-19,-82,-53,-63,-63,-58
-122,-43,78,82,-100,17,-24,-87,-58,-78,-73,-63
-102,-39,63,70,-82,12,-34,-92,-63,-78,-78,-68
-78,-39,39,58,-58,0,-34,-97,-68,-82,-82,-73
-43,-4,39,24,-41,17,-29,-97,-68,-82,-92,-73
0,53,53,-26,-26,53,-19,-87,-63,-82,-82,-63
-53,14,68,19,-61,41,-39,-97,-63,-92,-92,-63
-107,-53,53,80,-80,0,-58,-122,-78,-107,-107,-63
-107,-58,48,82,-78,-4,-58,-117,-82,-117,-117,-82
-122,-48,73,85,-97,12,-58,-117,-82,-122,-117,-92
-102,-4,97,53,-100,46,-43,-117,-82,-117,-112,-87
-63,34,97,14,-80,65,-29,-112,-78,-112,-107,-78
-63,34,97,14,-80,65,-34,-112,-82,-112,-112,-78
-48,34,82,7,-65,58,-43,-112,-87,-122,-122,-82
-97,-4,92,51,-95,43,-53,-131,-102,-146,-146,-97
-141,-48,92,95,-117,21,-58,-146,-112,-156,-156,-112
-126,-9,117,68,-122,53,-53,-136,-112,-156,-156,-117
-112,0,112,56,-112,56,-53,-136,-122,-165,-175,-126
-117,9,126,53,-122,68,-53,-141,-117,-170,-165,-112
-117,24,141,46,-129,82,-48,-136,-112,-165,-161,-102
-126,29,156,48,-141,92,-53,-136,-112,-165,-161,-102
-112,43,156,34,-134,100,-53,-136,-107,-161,-156,-102
-92,58,151,17,-122,104,-53,-131,-102,-151,-151,-92
-68,68,136,0,-102,102,-53,-131,-102,-146,-146,-87
-73,48,122,12,-97,85,-68,-136,-102,-151,-146,-92
-82,19,102,31,-92,61,-87,-141,-107,-151,-151,-97
-53,48,102,2,-78,75,-102,-141,-107,-141,-146,-92
-4,82,87,-39,-46,85,-102,-141,-107,-112,-112,-73
0,78,78,-39,-39,78,-102,-131,-97,-92,-97,-53
14,78,63,-46,-24,70,-102,-117,-82,-78,-73,-34
29,78,48,-53,-9,63,-112,-126,-68,-58,-48,-29
39,73,34,-56,2,53,-122,-136,-58,-43,-29,-24
43,87,43,-65,0,65,-122,-117,-39,-19,0,9
78,112,34,-95,21,73,-107,-92,-19,4,29,34
92,122,29,-107,31,75,-97,-78,-9,9,43,43
92,112,19,-102,36,65,-92,-73,4,24,48,53
73,87,14,-80,29,51,-92,-73,9,29,48,53
39,53,14,-46,12,34,-92,-78,9,24,39,39
34,39,4,-36,14,21,-92,-78,9,9,29,29
43,48,4,-46,19,26,-92,-78,9,9,29,29
24,43,19,-34,2,31,-68,-58,14,19,39,34
24,43,19,-34,2,31,-53,-43,19,29,43,39
29,63,34,-46,-2,48,-43,-43,24,29,43,43
29,53,24,-41,2,39,-43,-43,29,14,34,39
19,39,19,-29,0,29,-43,-39,29,19,24,34
19,39,19,-29,0,29,-39,-39,24,19,19,19
19,34,14,-26,2,24,-39,-39,24,14,19,19
19,34,14,-26,2,24,-34,-34,24,14,19,24
39,34,-4,-36,21,14,-43,-43,14,9,19,14
43,24,-19,-34,31,2,-58,-58,0,0,14,0
43,14,-29,-29,36,-7,-48,-58,4,-9,4,0
39,14,-24,-26,31,-4,-34,-48,14,-9,4,9
9,14,4,-12,2,9,-34,-48,14,-9,4,19
-29,0,29,14,-29,14,-39,-53,4,-9,0,9
-19,-4,14,12,-17,4,-43,-58,4,-14,-4,4
0,0,0,0,0,0,-43,-58,9,-14,-4,4
4,9,4,-7,0,7,-39,-53,14,-9,0,9
19,9,-9,-14,14,0,-39,-53,19,-9,0,9
-4,4,9,0,-7,7,-39,-48,19,-4,4,14
-24,0,24,12,-24,12,-43,-43,14,-9,4,14
4,19,14,-12,-4,17,-48,-53,9,-9,0,14
34,39,4,-36,14,21,-48,-53,9,-9,0,14
53,53,0,-53,26,26,-43,-53,9,-9,4,14
53,53,0,-53,26,26,-43,-48,9,-9,4,14
-9,4,14,2,-12,9,-53,-53,9,-14,0,4
-58,-34,24,46,-41,-4,-63,-58,4,-19,-4,-4
-34,-19,14,26,-24,-2,-43,-58,4,-19,0,-4
-9,-14,-4,12,-2,-9,-43,-58,0,-19,0,-4
19,24,4,-21,7,14,-43,-63,4,-24,-9,-4
68,63,-4,-65,36,29,-43,-63,9,-24,-4,0
39,48,9,-43,14,29,-43,-63,9,-24,0,4
9,39,29,-24,-9,34,-34,-58,14,-19,4,4
9,39,29,-24,-9,34,-34,-43,14,0,9,4
-24,19,43,2,-34,31,-43,-34,14,0,9,4
-14,9,24,2,-19,17,-48,-48,9,-9,0,-4
4,14,9,-9,-2,12,-53,-58,4,-19,-4,-4
9,14,4,-12,2,9,-58,-58,0,-19,-4,-9
-4,0,4,2,-4,2,-58,-63,-4,-24,-14,-14
0,4,4,-2,-2,4,-58,-68,-4,-29,-14,-14
19,9,-9,-14,14,0,-58,-68,-4,-29,-14,-14
29,34,4,-31,12,19,-43,-53,-4,-24,-9,-14
43,53,9,-48,17,31,-39,-48,0,-24,-9,-9
14,34,19,-24,-2,26,-39,-48,0,-24,-9,-9
-24,4,29,9,-26,17,-43,-48,-4,-29,-14,-14
-34,4,39,14,-36,21,-43,-48,-4,-29,-14,-4
-43,4,48,19,-46,26,-43,-48,0,-24,-9,4
0,29,29,-14,-14,29,-39,-53,0,-19,-4,0
48,48,0,-48,24,24,-39,-53,0,-19,-4,-9
48,48,0,-48,24,24,-43,-53,0,-19,-9,-14
48,48,0,-48,24,24,-48,-53,0,-24,-14,-19
29,43,14,-36,7,29,-48,-58,0,-24,-14,-19
14,39,24,-26,-4,31,-48,-58,-4,-24,-19,-19
14,29,14,-21,0,21,-58,-58,-9,-29,-24,-19
0,14,14,-7,-7,14,-63,-68,-14,-39,-34,-29
-24,0,24,12,-24,12,-68,-68,-14,-39,-34,-29
-39,-9,29,24,-34,9,-68,-63,-14,-39,-34,-29
-24,9,34,7,-29,21,-58,-58,-9,-29,-34,-24
-4,29,34,-12,-19,31,-53,-58,-9,-24,-34,-24
19,34,14,-26,2,24,-53,-58,-9,-24,-34,-24
43,34,-9,-39,26,12,-53,-58,-9,-24,-29,-24
14,34,19,-24,-2,26,-48,-48,-9,-19,-29,-19
-9,34,43,-12,-26,39,-48,-58,-9,-19,-29,-19
-4,34,39,-14,-21,36,-53,-58,-9,-29,-29,-29
9,29,19,-19,-4,24,-63,-58,-9,-43,-34,-29
24,29,4,-26,9,17,-63,-58,-9,-48,-34,-34
29,34,4,-31,12,19,-63,-58,-9,-48,-34,-34
19,34,14,-26,2,24,-58,-58,-9,-39,-29,-34
4,29,24,-17,-9,26,-53,-63,-9,-34,-29,-34
-29,9,39,9,-34,24,-53,-63,-14,-43,-34,-39
-48,19,68,14,-58,43,-48,-63,-14,-43,-29,-34
-4,34,39,-14,-21,36,-48,-63,-9,-39,-24,-24
34,43,9,-39,12,26,-48,-63,-9,-34,-24,-24
34,43,9,-39,12,26,-43,-58,-9,-29,-24,-29
19,43,24,-31,-2,34,-39,-53,-9,-29,-19,-29
19,43,24,-31,-2,34,-39,-53,-9,-29,-19,-29
14,58,43,-36,-14,51,-34,-48,-4,-24,-19,-24
14,43,29,-29,-7,36,-43,-48,-9,-29,-24,-24
-9,9,19,0,-14,14,-58,-53,-19,-43,-34,-34
-9,9,19,0,-14,14,-58,-58,-19,-43,-39,-34
-4,14,19,-4,-12,17,-58,-58,-19,-43,-39,-34
14,29,14,-21,0,21,-53,-53,-14,-39,-39,-29
14,34,19,-24,-2,26,-53,-53,-14,-39,-29,-29
-9,29,39,-9,-24,34,-58,-53,-19,-39,-29,-29
-34,0,34,17,-34,17,-58,-63,-29,-48,-39,-34
-24,-4,19,14,-21,7,-53,-63,-24,-48,-39,-39
-19,-9,9,14,-14,0,-48,-68,-19,-48,-39,-48
9,14,4,-12,2,9,-48,-68,-19,-48,-39,-39
39,39,0,-39,19,19,-48,-68,-19,-48,-39,-29
14,24,9,-19,2,17,-53,-68,-19,-48,-39,-29
-9,9,19,0,-14,14,-58,-68,-19,-48,-39,-29
-9,9,19,0,-14,14,-58,-68,-19,-43,-39,-29
-9,9,19,0,-14,14,-58,-68,-19,-39,-39,-29
-24,9,34,7,-29,21,-48,-63,-14,-39,-39,-29
-39,9,48,14,-43,29,-39,-58,-9,-39,-39,-29
-24,19,43,2,-34,31,-39,-58,-9,-39,-39,-29
-9,29,39,-9,-24,34,-39,-58,-9,-39,-39,-29
-4,29,34,-12,-19,31,-39,-58,-9,-39,-39,-29
0,29,29,-14,-14,29,-39,-58,-9,-39,-39,-29
19,43,24,-31,-2,34,-34,-53,-4,-34,-24,-24
39,58,19,-48,9,39,-29,-48,0,-29,-9,-19
39,58,19,-48,9,39,-29,-48,0,-29,-9,-19
39,58,19,-48,9,39,-29,-48,0,-29,-9,-19
-14,-9,4,12,-9,-2,-48,-58,-19,-43,-39,-43
-68,-78,-9,73,-29,-43,-68,-68,-39,-58,-68,-68
-34,-29,4,31,-19,-12,-53,-53,-19,-43,-48,-48
0,19,19,-9,-9,19,-39,-39,0,-29,-29,-29
24,58,34,-41,-4,46,-39,-19,24,-4,-4,-9
39,78,39,-58,0,58,-39,-14,39,4,4,0
53,97,43,-75,4,70,-43,-14,53,14,14,4
53,82,29,-68,12,56,-48,-29,43,4,9,4
58,92,34,-75,12,63,-68,-19,39,4,14,9
68,102,34,-85,17,68,-73,-19,39,4,14,9
63,107,43,-85,9,75,-87,-48,43,4,14,9
63,112,48,-87,7,80,-112,-87,34,4,4,14
73,122,48,-97,12,85,-112,-102,29,4,4,14
87,122,34,-104,26,78,-126,-112,29,0,9,19
73,117,43,-95,14,80,-131,-122,19,-4,9,19
53,97,43,-75,4,70,-141,-131,-4,-9,9,24
48,117,68,-82,-9,92,-151,-156,-19,-19,9,29
48,136,87,-92,-19,112,-165,-170,-34,-24,4,34
92,175,82,-134,4,129,-170,-185,-48,-29,4,34
117,219,102,-168,7,161,-170,-170,-48,-29,14,43
92,170,78,-131,7,124,-185,-185,-48,-24,4,43
63,126,63,-95,0,95,-190,-195,-48,-24,0,48
43,141,97,-92,-26,119,-185,-185,-48,-24,9,53
9,126,117,-68,-53,122,-170,-175,-48,-29,9,48
34,82,48,-58,-7,65,-146,-141,-53,-39,0,29
63,68,4,-65,29,36,-107,-112,-53,-39,-9,14
58,53,-4,-56,31,24,-87,-92,-48,-39,-19,-4
63,43,-19,-53,41,12,-78,-87,-43,-43,-24,-24
9,19,9,-14,0,14,-58,-78,-43,-39,-24,-19
-34,-14,19,24,-26,2,-58,-78,-48,-48,-39,-24
-58,-39,19,48,-39,-9,-48,-68,-53,-48,-53,-34
-58,-29,29,43,-43,0,-34,-58,-48,-53,-53,-34
-19,-14,4,17,-12,-4,-24,-53,-43,-43,-48,-34
0,-14,-14,7,7,-14,-19,-53,-39,-43,-48,-34
-29,-39,-9,34,-9,-24,-24,-53,-48,-58,-53,-43
-58,-63,-4,61,-26,-34,-34,-58,-58,-73,-58,-53
-34,-53,-19,43,-7,-36,-34,-58,-53,-73,-53,-53
-14,-39,-24,26,4,-31,-34,-58,-53,-68,-53,-53
-14,-29,-14,21,0,-21,-34,-53,-53,-63,-53,-53
-24,-48,-24,36,0,-36,-34,-48,-53,-63,-58,-58
-53,-48,4,51,-29,-21,-34,-53,-53,-63,-58,-58
-78,-48,29,63,-53,-9,-34,-53,-53,-58,-58,-53
-53,-29,24,41,-39,-2,-19,-48,-48,-48,-43,-43
-24,-4,19,14,-21,7,0,-39,-39,-39,-29,-29
-4,4,9,0,-7,7,0,-39,-39,-34,-29,-29
0,14,14,-7,-7,14,-4,-39,-39,-34,-34,-34
-58,-48,9,53,-34,-19,-24,-53,-53,-53,-58,-48
-117,-97,19,107,-68,-39,-43,-68,-48,-58,-63,-39
-107,-29,78,68,-92,24,-29,-53,-4,-24,-29,-19
-112,14,126,48,-119,70,-24,-68,4,-19,-9,-9
-87,58,146,14,-117,102,-19,-92,0,-29,-14,9
-48,92,141,-21,-95,117,-24,-102,-14,-34,-9,29
39,82,43,-61,-2,63,-63,-102,-39,-9,39,58
161,122,-39,-141,100,41,-112,-73,-24,92,165,161
297,234,-63,-265,180,85,-175,-19,53,283,375,336
448,356,-92,-402,270,131,-258,19,136,473,600,517
556,458,-97,-507,326,180,-312,24,200,649,780,658
610,585,-24,-597,317,280,-351,24,273,800,932,775
697,732,34,-714,331,383,-439,-24,351,917,1054,893
766,600,-165,-683,466,217,-380,107,341,819,888,722
800,136,-663,-468,732,-263,-219,292,180,405,331,229
741,-63,-805,-339,773,-434,-107,375,92,112,-39,-68
478,-53,-531,-212,505,-292,112,600,385,292,92,-9
78,-112,-190,17,134,-151,326,751,575,361,122,-19
-156,-200,-43,178,-56,-122,483,810,556,234,-14,-156
-268,-229,39,248,-153,-95,580,834,561,175,-68,-200
-273,-248,24,261,-148,-112,600,819,483,112,-107,-204
-278,-244,34,261,-156,-104,639,854,492,107,-102,-195
-297,-204,92,251,-195,-56,668,844,585,146,-78,-175
-331,-190,141,261,-236,-24,717,790,590,126,-92,-185
-390,-234,156,312,-273,-39,746,727,536,58,-126,-204
-458,-273,185,366,-322,-43,756,629,444,-14,-170,-219
-507,-346,161,427,-334,-92,732,551,263,-107,-209,-239
-502,-370,131,436,-317,-119,697,488,146,-136,-224,-239
-409,-326,82,368,-246,-122,702,507,107,-136,-195,-209
-331,-248,82,290,-207,-82,653,444,82,-117,-156,-161
-283,-195,87,239,-185,-53,531,326,68,-92,-136,-136
-224,-151,73,187,-148,-39,390,214,24,-87,-122,-117
-195,-146,48,170,-122,-48,283,151,-9,-78,-102,-107
-146,-122,24,134,-85,-48,190,117,-29,-63,-78,-78
-107,-87,19,97,-63,-34,102,39,-34,-63,-68,-63
-87,-58,29,73,-58,-14,53,0,-34,-48,-63,-58
-87,-43,43,65,-65,0,43,14,-24,-39,-48,-48
-82,-43,39,63,-61,-2,34,4,-48,-39,-48,-39
-53,-43,9,48,-31,-17,29,-9,-48,-39,-48,-39
-24,-29,-4,26,-9,-17,9,-19,-48,-43,-39,-39
-19,-29,-9,24,-4,-19,4,-29,-53,-48,-48,-48
-19,-19,0,19,-9,-9,4,-29,-53,-48,-48,-43
-9,-9,0,9,-4,-4,9,-14,-58,-43,-43,-39
-29,-4,24,17,-26,9,9,-4,-58,-39,-39,-39
-63,-19,43,41,-53,12,9,-14,-58,-39,-39,-43
-68,-34,34,51,-51,0,4,-24,-58,-43,-43,-43
-78,-43,34,61,-56,-4,0,-24,-68,-43,-43,-39
-78,-43,34,61,-56,-4,0,-24,-73,-43,-43,-39
-63,-43,19,53,-41,-12,0,-24,-63,-43,-39,-39
-53,-43,9,48,-31,-17,-4,-24,-73,-43,-39,-39
-43,-48,-4,46,-19,-26,0,-24,-82,-43,-43,-43
-29,-34,-4,31,-12,-19,4,-24,-78,-43,-39,-48
-43,-39,4,41,-24,-17,0,-39,-82,-48,-48,-53
-48,-48,0,48,-24,-24,-4,-39,-82,-53,-53,-53
-63,-63,0,63,-31,-31,-19,-48,-102,-68,-78,-63
-92,-97,-4,95,-43,-51,-34,-63,-117,-82,-92,-73
-68,-53,14,61,-41,-19,-19,-48,-102,-68,-68,-58
-48,-34,14,41,-31,-9,-4,-34,-87,-53,-48,-43
-78,-53,24,65,-51,-14,0,-34,-92,-48,-53,-48
-112,-53,58,82,-85,2,9,-29,-92,-39,-53,-48
-112,-58,53,85,-82,-2,0,-39,-97,-58,-58,-48
-97,-53,43,75,-70,-4,-9,-48,-102,-58,-63,-48
-68,-43,24,56,-46,-9,-14,-58,-107,-68,-73,-53
-39,-43,-4,41,-17,-24,-19,-68,-117,-78,-82,-58
-53,-34,19,43,-36,-7,-19,-73,-122,-82,-82,-58
-48,-24,24,36,-36,0,-19,-73,-122,-82,-82,-58
-29,0,29,14,-29,14,-4,-63,-122,-78,-73,-43
-9,29,39,-9,-24,34,4,-53,-122,-58,-58,-29
-43,-19,24,31,-34,2,-14,-73,-126,-82,-78,-48
-97,-68,29,82,-63,-19,-29,-87,-126,-102,-102,-63
-87,-29,58,58,-73,14,-19,-68,-122,-92,-82,-53
-92,-14,78,53,-85,31,-19,-58,-122,-82,-73,-53
-73,-14,58,43,-65,21,-19,-73,-136,-87,-78,-53
-39,0,39,19,-39,19,-29,-78,-146,-107,-97,-73
-112,-58,53,85,-82,-2,-48,-102,-161,-136,-122,-92
-170,-97,73,134,-122,-12,-58,-122,-175,-151,-136,-102
-131,-58,73,95,-102,7,-43,-107,-165,-136,-126,-87
-126,-34,92,80,-109,29,-24,-92,-161,-122,-122,-78
-122,-14,107,68,-114,46,-24,-92,-165,-131,-131,-82
-122,9,131,56,-126,70,-29,-97,-170,-146,-146,-87
-117,-4,112,61,-114,53,-29,-97,-170,-146,-146,-92
-112,0,112,56,-112,56,-24,-87,-170,-146,-146,-97
-92,4,97,43,-95,51,-19,-87,-180,-156,-165,-107
-78,14,92,31,-85,53,-24,-102,-185,-165,-165,-107
-87,0,87,43,-87,43,-29,-107,-195,-175,-175,-112
-107,-9,97,58,-102,43,-34,-107,-200,-185,-180,-112
-112,-14,97,63,-104,41,-48,-107,-195,-190,-185,-122
-122,-19,102,70,-112,41,-63,-102,-190,-190,-190,-122
-107,19,126,43,-117,73,-39,-97,-185,-175,-175,-107
-92,48,141,21,-117,95,-24,-92,-175,-165,-156,-92
-97,29,126,34,-112,78,-39,-92,-175,-161,-151,-87
-107,19,126,43,-117,73,-53,-92,-175,-151,-146,-82
-102,0,102,51,-102,51,-73,-107,-175,-122,-122,-73
-82,-4,78,43,-80,36,-92,-112,-165,-97,-107,-63
4,48,43,-26,-19,46,-82,-82,-151,-78,-73,-34
43,78,34,-61,4,56,-78,-68,-136,-53,-48,-9
48,73,24,-61,12,48,-82,-78,-126,-34,-29,4
43,73,29,-58,7,51,-82,-78,-107,-9,-4,29
39,68,29,-53,4,48,-73,-73,-87,14,19,43
48,73,24,-61,12,48,-68,-68,-78,19,34,53
92,102,9,-97,41,56,-63,-48,-58,48,53,68
102,107,4,-104,48,56,-63,-34,-53,63,68,73
68,73,4,-70,31,39,-63,-39,-58,53,58,58
53,48,-4,-51,29,21,-63,-39,-58,39,48,48
53,48,-4,-51,29,21,-63,-39,-58,39,48,48
53,53,0,-53,26,26,-43,-24,-53,43,53,48
43,19,-24,-31,34,-2,-39,-29,-53,39,39,34
19,-4,-24,-7,21,-14,-34,-43,-58,29,24,19
9,-4,-14,-2,12,-9,-34,-43,-58,14,24,24
-24,-24,0,24,-12,-12,-39,-43,-63,14,24,34
-4,-14,-9,9,2,-12,-34,-39,-68,14,24,19
29,4,-24,-17,26,-9,-29,-29,-63,14,29,19
19,4,-14,-12,17,-4,-24,-24,-63,19,29,29
24,14,-9,-19,17,2,-19,-19,-58,24,29,34
9,9,0,-9,4,4,-14,-14,-58,19,29,29
-4,-4,0,4,-2,-2,-14,-19,-63,9,24,19
0,-9,-9,4,4,-9,-14,-19,-63,9,24,19
0,-14,-14,7,7,-14,-14,-19,-63,9,24,29
-9,-29,-19,19,4,-24,-24,-39,-73,4,9,14
0,-29,-29,14,14,-29,-29,-53,-73,0,0,9
9,-9,-19,0,14,-14,-24,-39,-68,4,4,14
14,9,-4,-12,9,2,-19,-24,-63,9,9,19
14,9,-4,-12,9,2,-19,-14,-58,19,29,29
-9,4,14,2,-12,9,-19,-4,-58,29,48,39
-14,-19,-4,17,-4,-12,-24,-14,-68,9,24,24
-14,-39,-24,26,4,-31,-29,-34,-78,0,0,14
14,-24,-39,4,26,-31,-29,-34,-78,0,0,14
63,4,-58,-34,61,-26,-24,-34,-78,0,4,14
39,-19,-58,-9,48,-39,-29,-39,-82,-9,0,4
-4,-53,-48,29,21,-51,-34,-48,-82,-19,-4,-4
-29,-53,-24,41,-2,-39,-34,-48,-82,-19,-4,-4
-53,-53,0,53,-26,-26,-24,-48,-82,-19,0,-4
-34,-43,-9,39,-12,-26,-29,-43,-82,-4,14,0
-9,-24,-14,17,2,-19,-24,-43,-78,4,14,0
14,-24,-39,4,26,-31,-24,-43,-78,-4,4,0
24,-19,-43,-2,34,-31,-24,-43,-78,-14,0,4
39,0,-39,-19,39,-19,-14,-39,-68,-9,4,4
48,9,-39,-29,43,-14,-14,-34,-63,0,9,4
-39,-29,9,34,-24,-9,-14,-19,-58,0,24,19
-82,-48,34,65,-58,-7,-4,-9,-53,9,34,24
-24,-9,14,17,-19,2,-4,-9,-53,9,34,24
14,14,0,-14,7,7,-9,-9,-58,9,34,24
9,-9,-19,0,14,-14,-19,-24,-68,0,14,14
24,-19,-43,-2,34,-31,-29,-39,-73,-9,4,4
24,-34,-58,4,41,-46,-39,-43,-73,-9,-4,4
9,-39,-48,14,29,-43,-39,-39,-73,-4,-9,4
0,-34,-34,17,17,-34,-29,-39,-68,-4,0,9
-14,-34,-19,24,2,-26,-19,-39,-68,-4,9,9
4,-24,-29,9,17,-26,-19,-29,-68,-4,4,9
34,-4,-39,-14,36,-21,-14,-19,-63,0,4,14
43,-4,-48,-19,46,-26,-14,-19,-58,4,19,14
48,0,-48,-24,48,-24,-9,-19,-58,9,34,19
-4,-39,-34,21,14,-36,-24,-29,-63,0,19,9
-58,-78,-19,68,-19,-48,-39,-43,-68,-9,4,0
-34,-68,-34,51,0,-51,-39,-34,-68,-14,4,0
-9,-58,-48,34,19,-53,-39,-29,-68,-14,4,0
9,-43,-53,17,31,-48,-29,-29,-68,-4,4,4
24,-34,-58,4,41,-46,-24,-29,-63,4,9,9
29,-24,-53,-2,41,-39,-14,-39,-63,0,4,9
48,-4,-53,-21,51,-29,-9,-39,-63,0,4,19
29,-24,-53,-2,41,-39,-19,-34,-63,0,4,9
4,-43,-48,19,26,-46,-24,-29,-58,4,4,4
-14,-58,-43,36,14,-51,-24,-29,-58,4,4,4
-43,-73,-29,58,-7,-51,-24,-29,-58,4,4,4
-29,-58,-29,43,0,-43,-24,-29,-58,4,14,9
-19,-43,-24,31,2,-34,-19,-19,-58,9,19,19
-4,-39,-34,21,14,-36,-19,-29,-53,9,19,19
0,-34,-34,17,17,-34,-19,-29,-48,9,19,9
0,-39,-39,19,19,-39,-24,-24,-48,4,14,9
14,-39,-53,12,34,-46,-24,-19,-48,0,14,9
9,-34,-43,12,26,-39,-24,-19,-48,0,14,14
0,-34,-34,17,17,-34,-24,-19,-48,4,19,14
29,-24,-53,-2,41,-39,-24,-24,-48,4,19,14
48,-29,-78,-9,63,-53,-29,-24,-53,-4,9,4
58,-4,-63,-26,61,-34,-19,-24,-53,-4,9,4
78,14,-63,-46,70,-24,-9,-24,-48,0,14,14
43,-24,-68,-9,56,-46,-24,-29,-48,4,9,14
4,-63,-68,29,36,-65,-39,-34,-48,4,4,9
-24,-73,-48,48,12,-61,-39,-34,-53,0,9,4
-29,-78,-48,53,9,-63,-39,-34,-58,0,9,0
-14,-48,-34,31,9,-41,-34,-39,-53,4,9,4
-4,-48,-43,26,19,-46,-34,-48,-53,4,9,4
-9,-58,-48,34,19,-53,-34,-43,-53,-4,4,0
9,-39,-48,14,29,-43,-29,-39,-48,-4,0,4
24,-34,-58,4,41,-46,-29,-39,-48,-4,0,4
53,-19,-73,-17,63,-46,-24,-34,-43,0,0,9
29,-34,-63,2,46,-48,-34,-39,-53,-4,9,4
-9,-63,-53,36,21,-58,-48,-48,-63,-14,4,0
-9,-48,-39,29,14,-43,-34,-39,-43,-4,9,4
-9,-34,-24,21,7,-29,-24,-29,-29,4,14,14
19,-9,-29,-4,24,-19,-9,-24,-19,9,19,19
48,9,-39,-29,43,-14,0,-19,-9,19,29,29
14,-29,-43,7,29,-36,-19,-34,-29,0,4,14
-19,-68,-48,43,14,-58,-39,-48,-48,-19,-19,0
-19,-68,-48,43,14,-58,-39,-48,-48,-19,-9,0
-19,-68,-48,43,14,-58,-39,-48,-48,-19,0,0
-9,-48,-39,29,14,-43,-24,-34,-39,-4,9,9
0,-29,-29,14,14,-29,-9,-19,-29,9,19,19
43,0,-43,-21,43,-21,-9,-19,-19,9,19,19
87,29,-58,-58,73,-14,-9,-19,-9,9,19,19
58,-14,-73,-21,65,-43,-19,-34,-29,-4,4,4
29,-58,-87,14,58,-73,-29,-48,-48,-19,-9,-9
4,-58,-63,26,34,-61,-29,-34,-39,-9,0,0
-19,-58,-39,39,9,-48,-29,-19,-29,0,9,9
0,-34,-34,17,17,-34,-24,-14,-9,14,24,19
19,-9,-29,-4,24,-19,-19,-9,9,29,39,29
48,14,-34,-31,41,-9,-19,-9,19,34,39,29
73,29,-43,-51,58,-7,-19,-4,24,39,43,34
97,43,-53,-70,75,-4,-19,0,34,43,48,43
107,43,-63,-75,85,-9,-39,0,29,43,53,48
82,29,-53,-56,68,-12,-39,0,29,43,53,48
53,14,-39,-34,46,-12,-58,-29,24,34,48,43
48,29,-19,-39,34,4,-92,-78,14,29,39,48
43,53,9,-48,17,31,-92,-92,19,34,43,53
48,53,4,-51,21,29,-112,-102,19,29,48,58
53,68,14,-61,19,41,-122,-112,9,24,48,58
58,63,4,-61,26,34,-136,-122,-14,19,48,58
58,68,9,-63,24,39,-156,-151,-29,4,43,53
63,78,14,-70,24,46,-175,-185,-48,-4,34,53
97,92,-4,-95,51,43,-180,-214,-68,-9,34,53
107,122,14,-114,46,68,-175,-190,-68,-9,43,68
107,122,14,-114,46,68,-165,-175,-58,0,43,73
102,131,29,-117,36,80,-146,-165,-39,14,53,87
97,146,48,-122,24,97,-136,-156,-29,24,58,97
87,136,48,-112,19,92,-122,-146,-29,19,48,87
87,102,14,-95,36,58,-102,-122,-34,9,39,68
82,43,-39,-63,61,2,-82,-112,-43,-9,14,34
63,-4,-68,-29,65,-36,-78,-102,-48,-29,-9,4
34,-39,-73,2,53,-56,-78,-97,-58,-34,-14,-4
-9,-78,-68,43,29,-73,-68,-87,-73,-34,-14,-9
0,-73,-73,36,36,-73,-43,-82,-53,-43,-19,-24
-9,-78,-68,43,29,-73,-19,-73,-39,-43,-24,-34
-29,-87,-58,58,14,-73,-24,-68,-48,-53,-34,-34
-19,-82,-63,51,21,-73,-24,-63,-53,-43,-39,-34
-43,-102,-58,73,7,-80,-19,-63,-48,-43,-39,-34
-63,-122,-58,92,-2,-90,-14,-53,-48,-43,-39,-34
-39,-97,-58,68,9,-78,-14,-48,-48,-43,-29,-24
-14,-73,-58,43,21,-65,-14,-48,-43,-43,-14,-14
-14,-58,-43,36,14,-51,-9,-43,-39,-39,-14,-14
-14,-39,-24,26,4,-31,-4,-39,-34,-39,-14,-14
-34,-68,-34,51,0,-51,-4,-39,-34,-43,-19,-19
-43,-78,-34,61,-4,-56,-4,-43,-34,-43,-19,-19
-24,-78,-53,51,14,-65,-4,-43,-34,-39,-19,-14
-9,-73,-63,41,26,-68,-4,-43,-34,-39,-14,-14
-24,-78,-53,51,14,-65,-4,-48,-34,-39,-14,-14
-43,-92,-48,68,2,-70,-9,-58,-39,-34,-19,-19
-48,-92,-43,70,-2,-68,-14,-58,-39,-34,-24,-29
-48,-92,-43,70,-2,-68,-14,-58,-29,-29,-24,-34
-48,-73,-24,61,-12,-48,-9,-43,4,-9,-4,-9
-43,-24,19,34,-31,-2,-4,-34,29,9,14,9
-78,-4,73,41,-75,34,-14,-78,14,-9,4,9
-68,14,82,26,-75,48,-19,-102,9,-19,0,24
-48,24,73,12,-61,48,-14,-102,-9,-34,-4,39
34,48,14,-41,9,31,-39,-92,-14,14,68,97
170,117,-53,-143,112,31,-82,-53,14,141,229,219
322,234,-87,-278,204,73,-136,-19,82,302,409,361
483,336,-146,-409,314,95,-239,-14,156,492,639,546
570,400,-170,-485,370,114,-312,-24,204,639,795,673
610,600,-9,-605,309,295,-400,-63,297,829,995,839
658,707,48,-683,305,378,-468,-92,361,922,1073,912
756,492,-263,-624,509,114,-346,107,326,751,805,639
800,175,-624,-488,712,-224,-170,317,268,478,409,283
746,19,-727,-383,736,-353,-68,414,200,204,53,9
527,-68,-595,-229,561,-331,107,600,375,258,43,-43
29,-170,-200,70,114,-185,361,756,585,346,82,-58
-219,-268,-48,244,-85,-158,522,834,610,273,4,-151
-278,-317,-39,297,-119,-178,575,834,580,185,-53,-195
-287,-336,-48,312,-119,-192,600,819,522,112,-102,-219
-273,-297,-24,285,-124,-161,639,878,561,141,-68,-190
-278,-258,19,268,-148,-119,668,893,614,175,-39,-156
-331,-248,82,290,-207,-82,727,858,610,146,-63,-165
-385,-283,102,334,-244,-90,756,814,566,87,-97,-185
-444,-336,107,390,-275,-114,771,717,463,4,-151,-209
-458,-385,73,422,-265,-156,761,673,322,-73,-185,-229
-405,-380,24,392,-214,-178,736,658,209,-82,-190,-219
-336,-346,-9,341,-163,-178,712,653,151,-87,-165,-190
-302,-278,24,290,-163,-126,639,551,131,-73,-126,-141
-273,-239,34,256,-153,-102,531,429,117,-53,-107,-117
-170,-161,9,165,-90,-75,390,292,73,-48,-82,-87
-97,-117,-19,107,-39,-68,287,195,39,-48,-63,-73
-63,-117,-53,90,-4,-85,165,117,4,-48,-63,-58
-53,-117,-63,85,4,-90,68,29,-9,-53,-68,-53
-68,-102,-34,85,-17,-68,43,4,-4,-39,-53,-48
-87,-92,-4,90,-41,-48,43,14,9,-29,-29,-39
-82,-92,-9,87,-36,-51,39,4,-9,-29,-29,-29
-82,-92,-9,87,-36,-51,29,-4,-9,-24,-29,-29
-53,-68,-14,61,-19,-41,9,-9,-9,-24,-19,-24
-19,-68,-48,43,14,-58,4,-19,-14,-29,-29,-34
-4,-48,-43,26,19,-46,9,-19,-9,-24,-29,-34
19,-29,-48,4,34,-39,14,-19,-9,-19,-29,-29
0,-34,-34,17,17,-34,9,-24,-9,-19,-29,-29
-14,-34,-19,24,2,-26,9,-24,-9,-19,-29,-34
-39,-73,-34,56,-2,-53,-4,-34,-24,-39,-39,-48
-78,-112,-34,95,-21,-73,-14,-43,-43,-53,-43,-58
-68,-92,-24,80,-21,-58,-9,-43,-34,-43,-43,-48
-68,-82,-14,75,-26,-48,-9,-43,-14,-34,-39,-39
-58,-53,4,56,-31,-24,-9,-39,-14,-34,-34,-34
-43,-43,0,43,-21,-21,-4,-39,-19,-39,-39,-34
-58,-53,4,56,-31,-24,-4,-43,-19,-43,-39,-39
-78,-58,19,68,-48,-19,-9,-58,-24,-48,-48,-43
-39,-58,-19,48,-9,-39,-9,-58,-24,-53,-53,-43
-9,-39,-29,24,9,-34,-4,-53,-29,-53,-53,-39
-24,-39,-14,31,-4,-26,-4,-53,-29,-53,-43,-34
-24,-29,-4,26,-9,-17,-4,-53,-29,-53,-43,-34
-39,-53,-14,46,-12,-34,-9,-58,-34,-53,-53,-39
-53,-82,-29,68,-12,-56,-19,-73,-43,-58,-63,-48
-63,-82,-19,73,-21,-51,-19,-78,-43,-63,-63,-48
-63,-78,-14,70,-24,-46,-19,-78,-43,-78,-63,-48
-48,-63,-14,56,-17,-39,-19,-73,-39,-68,-63,-48
-48,-53,-4,51,-21,-29,-19,-68,-34,-68,-63,-48
-68,-43,24,56,-46,-9,-19,-58,-34,-53,-53,-39
-107,-39,68,73,-87,14,-19,-53,-34,-43,-43,-29
-58,-14,43,36,-51,14,-4,-53,-34,-43,-43,-29
-4,14,19,-4,-12,17,4,-58,-39,-58,-53,-34
-29,-24,4,26,-17,-9,-24,-82,-58,-78,-73,-53
-48,-68,-19,58,-14,-43,-43,-107,-78,-102,-92,-73
-68,-82,-14,75,-26,-48,-48,-117,-78,-102,-102,-82
-78,-73,4,75,-41,-34,-48,-117,-73,-102,-92,-82
-58,-14,43,36,-51,14,-24,-87,-48,-78,-73,-58
-39,14,53,12,-46,34,0,-73,-39,-58,-58,-34
-78,-43,34,61,-56,-4,-29,-97,-68,-97,-97,-68
-131,-87,43,109,-87,-21,-58,-126,-92,-131,-126,-92
-131,-68,63,100,-97,-2,-48,-117,-87,-122,-112,-82
-112,-53,58,82,-85,2,-39,-102,-78,-112,-97,-68
-117,-29,87,73,-102,29,-29,-102,-78,-107,-102,-63
-107,-4,102,56,-104,48,-24,-102,-78,-112,-112,-63
-107,0,107,53,-107,53,-29,-112,-82,-126,-126,-68
-102,0,102,51,-102,51,-29,-117,-82,-126,-126,-73
-97,-4,92,51,-95,43,-39,-122,-102,-146,-136,-97
-92,-39,53,65,-73,7,-53,-136,-131,-175,-165,-126
-92,-29,63,61,-78,17,-63,-141,-126,-175,-165,-117
-87,-14,73,51,-80,29,-68,-136,-122,-165,-170,-112
-97,9,107,43,-102,58,-68,-136,-112,-165,-161,-102
-82,43,126,19,-104,85,-63,-136,-97,-161,-146,-92
-87,34,122,26,-104,78,-63,-136,-102,-156,-151,-92
-87,19,107,34,-97,63,-63,-141,-112,-156,-156,-97
-73,19,92,26,-82,56,-73,-141,-107,-156,-146,-92
-63,9,73,26,-68,41,-87,-141,-107,-151,-141,-87
-34,24,58,4,-46,41,-102,-141,-102,-141,-141,-82
14,43,29,-29,-7,36,-102,-141,-97,-112,-112,-63
29,63,34,-46,-2,48,-102,-131,-87,-87,-87,-34
53,87,34,-70,9,61,-102,-117,-73,-68,-53,-4
34,63,29,-48,2,46,-107,-117,-58,-43,-39,-4
9,34,24,-21,-7,29,-112,-117,-48,-24,-29,-4
34,73,39,-53,-2,56,-97,-92,-24,9,4,34
87,122,34,-104,26,78,-68,-63,0,43,39,63
107,126,19,-117,43,73,-68,-58,9,39,53,63
112,112,0,-112,56,56,-73,-63,24,43,58,63
53,58,4,-56,24,31,-82,-68,19,43,58,58
-19,-4,14,12,-17,4,-92,-78,9,34,48,39
0,-14,-14,7,7,-14,-92,-78,9,19,34,29
34,0,-34,-17,34,-17,-92,-78,9,19,29,29
34,4,-29,-19,31,-12,-68,-58,19,24,34,34
53,14,-39,-34,46,-12,-53,-43,29,29,34,39
58,39,-19,-48,39,9,-39,-43,34,29,34,39
58,34,-24,-46,41,4,-34,-43,39,14,24,29
34,4,-29,-19,31,-12,-39,-43,34,14,14,24
19,-9,-29,-4,24,-19,-39,-48,24,9,9,9
19,-9,-29,-4,24,-19,-39,-48,24,4,14,9
19,-4,-24,-7,21,-14,-34,-43,24,4,19,14
43,4,-39,-24,41,-17,-29,-39,29,4,19,14
53,4,-48,-29,51,-21,-29,-39,29,0,14,9
34,-19,-53,-7,43,-36,-43,-58,19,-9,4,-9
9,-34,-43,12,26,-39,-53,-68,14,-9,4,-19
39,-9,-48,-14,43,-29,-39,-58,14,-9,4,9
58,0,-58,-29,58,-29,-29,-53,4,-9,0,19
24,-24,-48,0,36,-36,-43,-53,4,-9,-9,0
0,-39,-39,19,19,-39,-53,-48,9,-4,-14,-14
4,-9,-14,2,9,-12,-39,-39,19,0,4,4
19,9,-9,-14,14,0,-29,-34,29,0,19,19
4,-4,-9,0,7,-7,-29,-34,29,0,9,9
-4,-19,-14,12,4,-17,-34,-34,24,-9,-4,-4
-14,-39,-24,26,4,-31,-43,-48,14,-14,-14,-4
-24,-58,-34,41,4,-46,-48,-53,9,-19,-19,-4
19,-24,-43,2,31,-34,-43,-53,9,-19,-14,-4
43,-4,-48,-19,46,-26,-43,-48,9,-19,-14,-4
43,14,-29,-29,36,-7,-34,-34,24,0,-4,9
58,43,-14,-51,36,14,-24,-19,34,19,4,24
19,14,-4,-17,12,4,-24,-29,34,4,9,14
-19,-24,-4,21,-7,-14,-43,-39,29,-9,9,4
-19,-39,-19,29,0,-29,-53,-53,14,-14,-14,-14
0,-53,-53,26,26,-53,-63,-63,0,-14,-24,-29
14,-34,-48,9,31,-41,-48,-53,9,-9,-9,-14
29,-9,-39,-9,34,-24,-24,-39,24,0,4,-4
29,-9,-39,-9,34,-24,-24,-34,24,9,9,-4
-4,-29,-24,17,9,-26,-34,-34,24,0,9,-4
4,-34,-39,14,21,-36,-34,-43,19,-9,-4,-14
24,-24,-48,0,36,-36,-34,-48,14,-19,-14,-14
29,-34,-63,2,46,-48,-48,-48,0,-19,-14,-24
14,-58,-73,21,43,-65,-58,-53,-14,-24,-24,-34
14,-39,-53,12,34,-46,-48,-58,-4,-24,-19,-14
29,-19,-48,-4,39,-34,-39,-58,4,-19,-14,4
29,-9,-39,-9,34,-24,-29,-43,14,-14,-4,4
34,-4,-39,-14,36,-21,-29,-39,29,-14,0,9
34,-9,-43,-12,39,-26,-29,-39,19,-14,0,4
24,-24,-48,0,36,-36,-34,-39,4,-19,-4,-4
24,-24,-48,0,36,-36,-48,-43,-4,-29,-14,-14
24,-24,-48,0,36,-36,-63,-48,-9,-34,-19,-24
19,-19,-39,0,29,-29,-48,-48,0,-19,-4,-9
19,-19,-39,0,29,-29,-39,-43,9,-9,4,0
19,-14,-34,-2,26,-24,-29,-39,14,-9,4,0
19,-9,-29,-4,24,-19,-19,-34,19,-14,4,0
19,-9,-29,-4,24,-19,-19,-39,19,-14,0,-4
24,-9,-34,-7,29,-21,-19,-39,14,-14,-9,-9
4,-48,-53,21,29,-51,-34,-48,0,-24,-24,-19
-29,-92,-63,61,17,-78,-43,-68,-14,-39,-43,-39
-19,-63,-43,41,12,-53,-39,-58,0,-29,-24,-24
0,-29,-29,14,14,-29,-29,-43,14,-19,-4,-9
4,-24,-29,9,17,-26,-24,-39,19,-14,-4,-4
14,-19,-34,2,24,-26,-24,-39,19,-14,-4,-4
14,-24,-39,4,26,-31,-29,-39,14,-19,-9,-4
14,-34,-48,9,31,-41,-34,-39,9,-24,-9,-4
24,-24,-48,0,36,-36,-29,-29,9,-19,-9,0
39,-14,-53,-12,46,-34,-29,-39,9,-19,-9,0
43,-14,-58,-14,51,-36,-24,-39,14,-19,-9,-9
58,-19,-78,-19,68,-48,-24,-39,19,-24,-14,-9
73,-4,-78,-34,75,-41,-24,-39,19,-29,-14,-9
78,14,-63,-46,70,-24,-24,-39,19,-29,-14,-4
43,-9,-53,-17,48,-31,-29,-39,14,-24,-9,-4
4,-39,-43,17,24,-41,-34,-43,9,-24,-9,-4
-19,-58,-39,39,9,-48,-39,-43,4,-29,-14,-14
-29,-48,-19,39,-4,-34,-39,-43,4,-24,-9,-14
4,-29,-34,12,19,-31,-39,-43,9,-19,-4,-4
34,-14,-48,-9,41,-31,-39,-43,9,-14,-4,-4
34,-24,-58,-4,46,-41,-43,-48,4,-19,-14,-14
19,-34,-53,7,36,-43,-48,-53,0,-29,-19,-19
29,-34,-63,2,46,-48,-48,-53,0,-29,-19,-19
34,-19,-53,-7,43,-36,-43,-48,4,-24,-19,-14
24,-29,-53,2,39,-41,-34,-43,9,-14,-9,-9
-9,-58,-48,34,19,-53,-29,-43,9,-14,-4,-14
-29,-68,-39,48,4,-53,-29,-43,9,-14,-9,-14
-43,-73,-29,58,-7,-51,-29,-39,9,-14,-9,-14
-9,-43,-34,26,12,-39,-24,-34,14,-9,-9,-9
4,-24,-29,9,17,-26,-24,-34,14,-9,0,-9
29,-4,-34,-12,31,-19,-34,-39,14,-9,-4,-9
53,-9,-63,-21,58,-36,-39,-53,9,-19,-19,-14
63,4,-58,-34,61,-26,-34,-43,14,-19,-14,-4
78,19,-58,-48,68,-19,-29,-39,19,-19,-9,0
34,-4,-39,-14,36,-21,-29,-39,14,-19,-9,-4
-9,-29,-19,19,4,-24,-29,-39,9,-19,-9,-9
0,-29,-29,14,14,-29,-29,-39,4,-24,-14,-9
9,-29,-39,9,24,-34,-29,-39,0,-29,-19,-9
24,-39,-63,7,43,-51,-29,-43,0,-34,-24,-14
39,-48,-87,4,63,-68,-29,-48,0,-39,-29,-19
0,-68,-68,34,34,-68,-39,-48,0,-39,-29,-19
-39,-87,-48,63,4,-68,-48,-48,0,-39,-29,-19
-29,-68,-39,48,4,-53,-39,-43,4,-29,-19,-14
-19,-48,-29,34,4,-39,-29,-39,9,-19,-9,-9
19,-24,-43,2,31,-34,-29,-39,9,-19,-9,-9
58,0,-58,-29,58,-29,-29,-39,9,-19,-9,-9
43,-19,-63,-12,53,-41,-34,-43,0,-34,-14,-14
29,-39,-68,4,48,-53,-39,-48,-9,-48,-19,-19
4,-53,-58,24,31,-56,-39,-48,-9,-39,-19,-19
-19,-68,-48,43,14,-58,-39,-48,-9,-29,-19,-19
0,-43,-43,21,21,-43,-34,-39,0,-24,-19,-19
19,-19,-39,0,29,-29,-29,-29,9,-19,-19,-19
29,-19,-48,-4,39,-34,-29,-24,9,-19,-19,-19
39,-19,-58,-9,48,-39,-29,-19,9,-19,-19,-19
39,-14,-53,-12,46,-34,-29,-19,14,-9,-9,-14
39,-9,-48,-14,43,-29,-29,-19,19,0,0,-9
53,19,-34,-36,43,-7,-24,-4,43,14,14,4
63,39,-24,-51,43,7,-19,4,63,24,24,14
73,63,-9,-68,41,26,-19,14,82,39,39,29
73,63,-9,-68,41,26,-19,19,82,43,48,43
68,63,-4,-65,36,29,-43,14,68,39,53,48
68,63,-4,-65,36,29,-53,0,58,34,53,48
53,43,-9,-48,31,17,-87,-48,53,24,34,34
43,24,-19,-34,31,2,-131,-107,34,14,4,24
63,53,-9,-58,36,21,-117,-107,29,19,19,34
87,73,-14,-80,51,29,-117,-102,29,19,39,48
68,87,19,-78,24,53,-122,-112,19,14,39,48
43,87,43,-65,0,65,-131,-122,-4,9,39,53
63,97,34,-80,14,65,-151,-156,-19,-14,24,43
87,107,19,-97,34,63,-175,-180,-34,-34,4,34
136,122,-14,-129,75,53,-180,-195,-53,-39,-4,34
165,141,-24,-153,95,58,-180,-180,-58,-39,-4,43
126,117,-9,-122,68,53,-175,-175,-48,-29,4,43
