I,II,III,aVR,aVL,aVF,V1,V2,V3,V4,V5,V6,
19,9,-9,-14,14,0,19,58,-9,-48,-39,-29
19,9,-9,-14,14,0,19,58,-9,-48,-39,-29
19,9,-9,-14,14,0,19,58,-9,-48,-39,-29
19,9,-9,-14,14,0,19,58,-9,-48,-39,-29
19,9,-9,-14,14,0,29,63,-4,-43,-39,-29
19,9,-9,-14,14,0,29,68,0,-39,-39,-29
19,9,-9,-14,14,0,29,73,4,-34,-39,-29
19,9,-9,-14,14,0,29,78,9,-29,-39,-29
24,14,-9,-19,17,2,29,87,9,-29,-39,-29
29,19,-9,-24,19,4,29,87,9,-29,-39,-29
34,24,-9,-29,21,7,29,87,9,-29,-39,-29
39,29,-9,-34,24,9,29,87,9,-29,-39,-29
39,29,-9,-34,24,9,29,97,19,-29,-39,-29
39,29,-9,-34,24,9,29,97,19,-29,-39,-29
39,29,-9,-34,24,9,29,97,19,-29,-39,-29
39,29,-9,-34,24,9,29,97,19,-29,-39,-29
39,39,0,-39,19,19,29,97,9,-29,-39,-39
39,39,0,-39,19,19,29,97,9,-29,-39,-39
39,39,0,-39,19,19,29,97,9,-29,-39,-39
39,39,0,-39,19,19,29,97,9,-29,-39,-39
39,39,0,-39,19,19,39,107,19,-19,-48,-48
39,39,0,-39,19,19,39,107,19,-19,-48,-48
39,39,0,-39,19,19,39,107,19,-19,-48,-48
39,39,0,-39,19,19,39,107,19,-19,-48,-48
39,53,14,-46,12,34,29,107,9,-24,-39,-58
39,58,19,-48,9,39,29,107,9,-29,-39,-58
39,63,24,-51,7,43,29,107,9,-34,-39,-58
39,68,29,-53,4,48,29,107,9,-39,-39,-58
39,58,19,-48,9,39,39,117,19,-34,-39,-58
39,58,19,-48,9,39,39,117,19,-29,-39,-58
39,58,19,-48,9,39,39,117,19,-24,-39,-58
39,58,19,-48,9,39,39,117,19,-19,-39,-58
48,68,19,-58,14,43,29,117,19,-24,-43,-58
48,78,29,-63,9,53,29,117,19,-29,-48,-58
48,87,39,-68,4,63,29,117,19,-34,-53,-58
48,97,48,-73,0,73,29,117,19,-39,-58,-58
48,92,43,-70,2,68,39,122,29,-29,-48,-58
48,87,39,-68,4,63,39,126,29,-29,-48,-58
48,82,34,-65,7,58,39,131,29,-29,-48,-58
48,78,29,-63,9,53,39,136,29,-29,-48,-58
58,82,24,-70,17,53,39,146,19,-29,-58,-68
58,87,29,-73,14,58,39,146,19,-29,-58,-68
58,92,34,-75,12,63,39,146,19,-29,-58,-68
58,97,39,-78,9,68,39,146,19,-29,-58,-68
58,92,34,-75,12,63,48,146,29,-19,-58,-68
58,87,29,-73,14,58,48,146,29,-19,-58,-68
58,82,24,-70,17,53,48,146,29,-19,-58,-68
58,78,19,-68,19,48,48,146,29,-19,-58,-68
48,92,43,-70,2,68,48,146,29,-19,-58,-68
48,97,48,-73,0,73,48,146,29,-19,-58,-68
48,102,53,-75,-2,78,48,146,29,-19,-58,-68
48,107,58,-78,-4,82,48,146,29,-19,-58,-68
58,102,43,-80,7,73,58,151,34,-19,-58,-78
58,97,39,-78,9,68,58,156,39,-19,-58,-78
58,92,34,-75,12,63,58,161,43,-19,-58,-78
58,87,29,-73,14,58,58,165,48,-19,-58,-78
58,102,43,-80,7,73,58,165,39,-29,-68,-78
58,107,48,-82,4,78,58,165,39,-29,-68,-78
58,112,53,-85,2,82,58,165,39,-29,-68,-78
58,117,58,-87,0,87,58,165,39,-29,-68,-78
58,112,53,-85,2,82,58,175,48,-19,-58,-78
58,107,48,-82,4,78,58,175,48,-19,-58,-78
58,102,43,-80,7,73,58,175,48,-19,-58,-78
58,97,39,-78,9,68,58,175,48,-19,-58,-78
48,102,53,-75,-2,78,58,185,48,-19,-58,-78
48,107,58,-78,-4,82,58,185,48,-19,-58,-78
48,112,63,-80,-7,87,58,185,48,-19,-58,-78
48,117,68,-82,-9,92,58,185,48,-19,-58,-78
48,107,58,-78,-4,82,68,195,58,-9,-68,-78
48,107,58,-78,-4,82,68,195,58,-9,-68,-78
48,107,58,-78,-4,82,68,195,58,-9,-68,-78
48,107,58,-78,-4,82,68,195,58,-9,-68,-78
58,117,58,-87,0,87,68,195,58,-19,-68,-87
58,117,58,-87,0,87,68,195,58,-19,-68,-87
58,117,58,-87,0,87,68,195,58,-19,-68,-87
58,117,58,-87,0,87,68,195,58,-19,-68,-87
58,107,48,-82,4,78,73,204,58,-19,-68,-87
58,107,48,-82,4,78,78,204,58,-19,-68,-87
58,107,48,-82,4,78,82,204,58,-19,-68,-87
58,107,48,-82,4,78,87,204,58,-19,-68,-87
48,107,58,-78,-4,82,97,204,68,-9,-68,-87
48,107,58,-78,-4,82,97,204,68,-9,-68,-87
48,107,58,-78,-4,82,97,204,68,-9,-68,-87
48,107,58,-78,-4,82,97,204,68,-9,-68,-87
48,97,48,-73,0,73,107,214,78,-9,-58,-87
48,97,48,-73,0,73,107,214,78,-9,-58,-87
48,97,48,-73,0,73,107,214,78,-9,-58,-87
48,97,48,-73,0,73,107,214,78,-9,-58,-87
39,97,58,-68,-9,78,107,224,78,-9,-68,-87
39,97,58,-68,-9,78,107,224,78,-9,-68,-87
39,97,58,-68,-9,78,107,224,78,-9,-68,-87
39,97,58,-68,-9,78,107,224,78,-9,-68,-87
29,97,68,-63,-19,82,117,224,78,-14,-73,-87
29,97,68,-63,-19,82,117,224,78,-19,-78,-87
29,97,68,-63,-19,82,117,224,78,-24,-82,-87
29,97,68,-63,-19,82,117,224,78,-29,-87,-87
24,107,82,-65,-29,95,126,214,78,-29,-87,-97
19,107,87,-63,-34,97,126,214,78,-29,-87,-97
14,107,92,-61,-39,100,126,214,78,-29,-87,-97
9,107,97,-58,-43,102,126,214,78,-29,-87,-97
0,117,117,-58,-58,117,136,214,68,-39,-87,-97
0,117,117,-58,-58,117,136,214,68,-39,-87,-97
0,117,117,-58,-58,117,136,214,68,-39,-87,-97
0,117,117,-58,-58,117,136,214,68,-39,-87,-97
-9,117,126,-53,-68,122,136,204,68,-48,-92,-107
-9,117,126,-53,-68,122,136,204,68,-48,-97,-107
-9,117,126,-53,-68,122,136,204,68,-48,-102,-107
-9,117,126,-53,-68,122,136,204,68,-48,-107,-107
-14,126,141,-56,-78,134,146,200,68,-58,-117,-117
-19,126,146,-53,-82,136,146,195,68,-58,-117,-117
-24,126,151,-51,-87,139,146,190,68,-58,-117,-117
-29,126,156,-48,-92,141,146,185,68,-58,-117,-117
-39,122,161,-41,-100,141,146,175,58,-68,-126,-126
-39,117,156,-39,-97,136,146,175,58,-68,-126,-126
-39,112,151,-36,-95,131,146,175,58,-68,-126,-126
-39,107,146,-34,-92,126,146,175,58,-68,-126,-126
-53,112,165,-29,-109,139,136,165,48,-73,-136,-122
-58,117,175,-29,-117,146,136,156,48,-78,-136,-117
-63,122,185,-29,-124,153,136,146,48,-82,-136,-112
-68,126,195,-29,-131,161,136,136,48,-87,-136,-107
-73,136,209,-31,-141,173,126,131,39,-92,-141,-112
-78,136,214,-29,-146,175,126,126,39,-97,-146,-117
-82,136,219,-26,-151,178,126,122,39,-102,-151,-122
-87,136,224,-24,-156,180,126,117,39,-107,-156,-126
-97,151,248,-26,-173,200,112,97,34,-112,-165,-126
-97,156,253,-29,-175,204,107,87,29,-117,-165,-126
-97,161,258,-31,-178,209,102,78,24,-122,-165,-126
-97,165,263,-34,-180,214,97,68,19,-126,-165,-126
-102,165,268,-31,-185,217,82,48,4,-136,-175,-136
-107,165,273,-29,-190,219,78,39,0,-136,-175,-136
-112,165,278,-26,-195,222,73,29,-4,-136,-175,-136
-117,165,283,-24,-200,224,68,19,-9,-136,-175,-136
-126,170,297,-21,-212,234,58,-4,-19,-146,-180,-136
-126,175,302,-24,-214,239,48,-19,-29,-156,-185,-136
-126,180,307,-26,-217,244,39,-34,-39,-165,-190,-136
-126,185,312,-29,-219,248,29,-48,-48,-175,-195,-136
-136,175,312,-19,-224,244,14,-63,-63,-175,-195,-136
-136,175,312,-19,-224,244,9,-68,-68,-175,-195,-136
-136,175,312,-19,-224,244,4,-73,-73,-175,-195,-136
-136,175,312,-19,-224,244,0,-78,-78,-175,-195,-136
-126,185,312,-29,-219,248,-14,-87,-92,-180,-204,-136
-126,185,312,-29,-219,248,-19,-97,-97,-185,-204,-136
-126,185,312,-29,-219,248,-24,-107,-102,-190,-204,-136
-126,185,312,-29,-219,248,-29,-117,-107,-195,-204,-136
-122,175,297,-26,-209,236,-39,-126,-117,-204,-204,-146
-117,175,292,-29,-204,234,-39,-126,-117,-204,-204,-146
-112,175,287,-31,-200,231,-39,-126,-117,-204,-204,-146
-107,175,283,-34,-195,229,-39,-126,-117,-204,-204,-146
-97,180,278,-41,-187,229,-53,-136,-126,-195,-195,-131
-97,185,283,-43,-190,234,-58,-136,-126,-195,-195,-126
-97,190,287,-46,-192,239,-63,-136,-126,-195,-195,-122
-97,195,292,-48,-195,244,-68,-136,-126,-195,-195,-117
-82,195,278,-56,-180,236,-78,-146,-122,-185,-185,-107
-78,195,273,-58,-175,234,-78,-146,-117,-175,-175,-107
-73,195,268,-61,-170,231,-78,-146,-112,-165,-165,-107
-68,195,263,-63,-165,229,-78,-146,-107,-156,-156,-107
-58,209,268,-75,-163,239,-87,-146,-97,-151,-151,-102
-58,214,273,-78,-165,244,-87,-146,-97,-146,-146,-97
-58,219,278,-80,-168,248,-87,-146,-97,-141,-141,-92
-58,224,283,-82,-170,253,-87,-146,-97,-136,-136,-87
-43,214,258,-85,-151,236,-97,-141,-87,-131,-122,-73
-39,214,253,-87,-146,234,-97,-136,-87,-126,-117,-68
-34,214,248,-90,-141,231,-97,-131,-87,-122,-112,-63
-29,214,244,-92,-136,229,-97,-126,-87,-117,-107,-58
-19,219,239,-100,-129,229,-97,-126,-87,-107,-107,-58
-19,224,244,-102,-131,234,-97,-126,-87,-107,-107,-58
-19,229,248,-104,-134,239,-97,-126,-87,-107,-107,-58
-19,234,253,-107,-136,244,-97,-126,-87,-107,-107,-58
-9,229,239,-109,-124,234,-87,-117,-78,-92,-102,-48
-9,224,234,-107,-122,229,-87,-117,-78,-87,-97,-48
-9,219,229,-104,-119,224,-87,-117,-78,-82,-92,-48
-9,214,224,-102,-117,219,-87,-117,-78,-78,-87,-48
0,219,219,-109,-109,219,-97,-107,-73,-73,-82,-48
0,224,224,-112,-112,224,-97,-107,-68,-68,-78,-48
0,229,229,-114,-114,229,-97,-107,-63,-63,-73,-48
0,234,234,-117,-117,234,-97,-107,-58,-58,-68,-48
9,224,214,-117,-102,219,-87,-97,-58,-68,-68,-48
9,224,214,-117,-102,219,-87,-97,-58,-68,-68,-48
9,224,214,-117,-102,219,-87,-97,-58,-68,-68,-48
9,224,214,-117,-102,219,-87,-97,-58,-68,-68,-48
9,234,224,-122,-107,229,-97,-97,-58,-58,-68,-39
9,234,224,-122,-107,229,-97,-97,-58,-58,-68,-39
9,234,224,-122,-107,229,-97,-97,-58,-58,-68,-39
9,234,224,-122,-107,229,-97,-97,-58,-58,-68,-39
9,234,224,-122,-107,229,-87,-87,-48,-48,-58,-39
9,234,224,-122,-107,229,-87,-87,-48,-48,-58,-39
9,234,224,-122,-107,229,-87,-87,-48,-48,-58,-39
9,234,224,-122,-107,229,-87,-87,-48,-48,-58,-39
9,244,234,-126,-112,239,-87,-78,-48,-58,-68,-48
9,244,234,-126,-112,239,-87,-78,-48,-58,-68,-48
9,244,234,-126,-112,239,-87,-78,-48,-58,-68,-48
9,244,234,-126,-112,239,-87,-78,-48,-58,-68,-48
9,234,224,-122,-107,229,-87,-78,-48,-48,-58,-48
9,234,224,-122,-107,229,-87,-78,-48,-48,-58,-48
9,234,224,-122,-107,229,-87,-78,-48,-48,-58,-48
9,234,224,-122,-107,229,-87,-78,-48,-48,-58,-48
19,234,214,-126,-97,224,-97,-78,-58,-48,-68,-48
19,234,214,-126,-97,224,-97,-78,-58,-48,-68,-48
19,234,214,-126,-97,224,-97,-78,-58,-48,-68,-48
19,234,214,-126,-97,224,-97,-78,-58,-48,-68,-48
19,248,229,-134,-104,239,-107,-87,-58,-53,-78,-39
19,253,234,-136,-107,244,-107,-87,-58,-58,-78,-39
19,258,239,-139,-109,248,-107,-87,-58,-63,-78,-39
19,263,244,-141,-112,253,-107,-87,-58,-68,-78,-39
19,273,253,-146,-117,263,-97,-97,-68,-68,-78,-48
19,273,253,-146,-117,263,-97,-97,-68,-68,-78,-48
19,273,253,-146,-117,263,-97,-97,-68,-68,-78,-48
19,273,253,-146,-117,263,-97,-97,-68,-68,-78,-48
9,287,278,-148,-134,283,-107,-97,-78,-68,-78,-58
9,292,283,-151,-136,287,-107,-97,-78,-68,-78,-58
9,297,287,-153,-139,292,-107,-97,-78,-68,-78,-58
9,302,292,-156,-141,297,-107,-97,-78,-68,-78,-58
9,302,292,-156,-141,297,-117,-107,-87,-73,-82,-63
9,302,292,-156,-141,297,-117,-107,-87,-78,-87,-68
9,302,292,-156,-141,297,-117,-107,-87,-82,-92,-73
9,302,292,-156,-141,297,-117,-107,-87,-87,-97,-78
0,317,317,-158,-158,317,-126,-107,-87,-97,-107,-78
0,322,322,-161,-161,322,-126,-107,-87,-97,-107,-78
0,326,326,-163,-163,326,-126,-107,-87,-97,-107,-78
0,331,331,-165,-165,331,-126,-107,-87,-97,-107,-78
9,322,312,-165,-151,317,-126,-107,-87,-87,-97,-87
9,322,312,-165,-151,317,-126,-107,-87,-87,-97,-87
9,322,312,-165,-151,317,-126,-107,-87,-87,-97,-87
9,322,312,-165,-151,317,-126,-107,-87,-87,-97,-87
0,326,326,-163,-163,326,-136,-117,-97,-87,-97,-87
0,331,331,-165,-165,331,-136,-117,-97,-87,-97,-87
0,336,336,-168,-168,336,-136,-117,-97,-87,-97,-87
0,341,341,-170,-170,341,-136,-117,-97,-87,-97,-87
9,331,322,-170,-156,326,-126,-117,-87,-87,-97,-78
9,331,322,-170,-156,326,-126,-117,-87,-87,-97,-78
9,331,322,-170,-156,326,-126,-117,-87,-87,-97,-78
9,331,322,-170,-156,326,-126,-117,-87,-87,-97,-78
9,341,331,-175,-161,336,-126,-117,-92,-97,-107,-78
9,341,331,-175,-161,336,-126,-117,-97,-97,-107,-78
9,341,331,-175,-161,336,-126,-117,-102,-97,-107,-78
9,341,331,-175,-161,336,-126,-117,-107,-97,-107,-78
9,336,326,-173,-158,331,-117,-107,-97,-97,-107,-68
9,331,322,-170,-156,326,-117,-107,-97,-97,-107,-68
9,326,317,-168,-153,322,-117,-107,-97,-97,-107,-68
9,322,312,-165,-151,317,-117,-107,-97,-97,-107,-68
9,331,322,-170,-156,326,-126,-117,-102,-107,-117,-78
9,331,322,-170,-156,326,-126,-117,-107,-107,-117,-78
9,331,322,-170,-156,326,-126,-117,-112,-107,-117,-78
9,331,322,-170,-156,326,-126,-117,-117,-107,-117,-78
9,326,317,-168,-153,322,-126,-117,-107,-97,-107,-78
9,322,312,-165,-151,317,-126,-117,-107,-97,-107,-78
9,317,307,-163,-148,312,-126,-117,-107,-97,-107,-78
9,312,302,-161,-146,307,-126,-117,-107,-97,-107,-78
0,322,322,-161,-161,322,-126,-117,-107,-87,-97,-68
0,322,322,-161,-161,322,-126,-117,-107,-87,-97,-68
0,322,322,-161,-161,322,-126,-117,-107,-87,-97,-68
0,322,322,-161,-161,322,-126,-117,-107,-87,-97,-68
9,312,302,-161,-146,307,-117,-107,-107,-87,-97,-68
9,302,292,-156,-141,297,-117,-107,-107,-87,-97,-68
9,292,283,-151,-136,287,-117,-107,-107,-87,-97,-68
9,283,273,-146,-131,278,-117,-107,-107,-87,-97,-68
9,292,283,-151,-136,287,-126,-107,-107,-87,-97,-58
9,292,283,-151,-136,287,-126,-107,-107,-87,-97,-58
9,292,283,-151,-136,287,-126,-107,-107,-87,-97,-58
9,292,283,-151,-136,287,-126,-107,-107,-87,-97,-58
0,283,283,-141,-141,283,-117,-107,-97,-87,-87,-58
0,283,283,-141,-141,283,-117,-107,-97,-87,-87,-58
0,283,283,-141,-141,283,-117,-107,-97,-87,-87,-58
0,283,283,-141,-141,283,-117,-107,-97,-87,-87,-58
9,283,273,-146,-131,278,-126,-107,-107,-87,-87,-58
9,283,273,-146,-131,278,-126,-107,-107,-87,-87,-58
9,283,273,-146,-131,278,-126,-107,-107,-87,-87,-58
9,283,273,-146,-131,278,-126,-107,-107,-87,-87,-58
9,268,258,-139,-124,263,-122,-97,-97,-87,-78,-58
9,263,253,-136,-122,258,-117,-97,-97,-87,-78,-58
9,258,248,-134,-119,253,-112,-97,-97,-87,-78,-58
9,253,244,-131,-117,248,-107,-97,-97,-87,-78,-58
9,253,244,-131,-117,248,-107,-107,-97,-78,-78,-48
9,253,244,-131,-117,248,-107,-107,-97,-78,-78,-48
9,253,244,-131,-117,248,-107,-107,-97,-78,-78,-48
9,253,244,-131,-117,248,-107,-107,-97,-78,-78,-48
9,248,239,-129,-114,244,-107,-97,-97,-73,-68,-39
9,244,234,-126,-112,239,-107,-97,-97,-68,-68,-39
9,239,229,-124,-109,234,-107,-97,-97,-63,-68,-39
9,234,224,-122,-107,229,-107,-97,-97,-58,-68,-39
0,224,224,-112,-112,224,-97,-87,-97,-58,-58,-39
0,224,224,-112,-112,224,-97,-87,-97,-58,-58,-39
0,224,224,-112,-112,224,-97,-87,-97,-58,-58,-39
0,224,224,-112,-112,224,-97,-87,-97,-58,-58,-39
9,219,209,-114,-100,214,-107,-87,-107,-58,-68,-29
9,214,204,-112,-97,209,-107,-87,-107,-58,-68,-29
9,209,200,-109,-95,204,-107,-87,-107,-58,-68,-29
9,204,195,-107,-92,200,-107,-87,-107,-58,-68,-29
0,200,200,-100,-100,200,-97,-78,-97,-48,-58,-29
0,195,195,-97,-97,195,-97,-78,-97,-48,-58,-29
0,190,190,-95,-95,190,-97,-78,-97,-48,-58,-29
0,185,185,-92,-92,185,-97,-78,-97,-48,-58,-29
9,175,165,-92,-78,170,-87,-78,-97,-48,-58,-29
9,175,165,-92,-78,170,-87,-78,-97,-48,-58,-29
9,175,165,-92,-78,170,-87,-78,-97,-48,-58,-29
9,175,165,-92,-78,170,-87,-78,-97,-48,-58,-29
9,165,156,-87,-73,161,-87,-78,-92,-39,-48,-19
9,165,156,-87,-73,161,-87,-78,-87,-39,-48,-19
9,165,156,-87,-73,161,-87,-78,-82,-39,-48,-19
9,165,156,-87,-73,161,-87,-78,-78,-39,-48,-19
9,165,156,-87,-73,161,-87,-68,-87,-39,-48,-19
9,165,156,-87,-73,161,-87,-68,-87,-39,-48,-19
9,165,156,-87,-73,161,-87,-68,-87,-39,-48,-19
9,165,156,-87,-73,161,-87,-68,-87,-39,-48,-19
9,161,151,-85,-70,156,-78,-68,-78,-29,-39,-19
9,156,146,-82,-68,151,-78,-68,-78,-29,-39,-19
9,151,141,-80,-65,146,-78,-68,-78,-29,-39,-19
9,146,136,-78,-63,141,-78,-68,-78,-29,-39,-19
0,146,146,-73,-73,146,-78,-68,-78,-29,-29,-9
0,146,146,-73,-73,146,-78,-68,-78,-29,-29,-9
0,146,146,-73,-73,146,-78,-68,-78,-29,-29,-9
0,146,146,-73,-73,146,-78,-68,-78,-29,-29,-9
9,141,131,-75,-61,136,-78,-58,-68,-29,-29,-9
9,136,126,-73,-58,131,-78,-58,-68,-29,-29,-9
9,131,122,-70,-56,126,-78,-58,-68,-29,-29,-9
9,126,117,-68,-53,122,-78,-58,-68,-29,-29,-9
0,136,136,-68,-68,136,-78,-68,-78,-29,-29,-9
0,136,136,-68,-68,136,-78,-68,-78,-29,-29,-9
0,136,136,-68,-68,136,-78,-68,-78,-29,-29,-9
0,136,136,-68,-68,136,-78,-68,-78,-29,-29,-9
9,122,112,-65,-51,117,-68,-58,-78,-19,-29,-9
9,117,107,-63,-48,112,-68,-58,-78,-19,-29,-9
9,112,102,-61,-46,107,-68,-58,-78,-19,-29,-9
9,107,97,-58,-43,102,-68,-58,-78,-19,-29,-9
9,117,107,-63,-48,112,-68,-68,-78,-19,-19,-9
9,117,107,-63,-48,112,-68,-63,-78,-19,-19,-9
14,117,102,-65,-43,109,-68,-58,-78,-19,-19,-9
14,122,107,-68,-46,114,-68,-58,-68,-14,-14,-9
14,112,97,-63,-41,104,-63,-53,-63,0,-9,-4
19,117,97,-68,-39,107,-58,-48,-58,4,-4,0
19,112,92,-65,-36,102,-53,-39,-43,4,-4,9
19,107,87,-63,-34,97,-43,-29,-39,4,4,19
9,112,102,-61,-46,107,-48,-39,-39,-4,0,9
9,117,107,-63,-48,112,-48,-39,-34,4,9,14
14,122,107,-68,-46,114,-48,-39,-29,9,9,14
19,126,107,-73,-43,117,-48,-34,-24,14,9,14
19,117,97,-68,-39,107,-34,-24,-14,24,14,29
19,117,97,-68,-39,107,-34,-19,-4,29,19,39
29,112,82,-70,-26,97,-34,-19,-4,29,24,39
29,97,68,-63,-19,82,-29,-19,-4,29,29,39
24,107,82,-65,-29,95,-39,-14,-14,39,34,29
29,107,78,-68,-24,92,-39,-9,-9,39,34,29
34,102,68,-68,-17,85,-34,-4,-9,39,34,29
39,102,63,-70,-12,82,-34,4,-4,43,39,34
43,97,53,-70,-4,75,-19,9,9,58,43,34
48,92,43,-70,2,68,-24,14,9,63,43,34
48,82,34,-65,7,58,-24,24,9,68,53,43
53,73,19,-63,17,46,-24,29,14,68,58,48
58,87,29,-73,14,58,-29,19,29,78,63,53
58,97,39,-78,9,68,-39,4,29,82,73,63
58,107,48,-82,4,78,-53,-4,29,82,73,68
58,112,53,-85,2,82,-68,-19,14,82,73,68
48,102,53,-75,-2,78,-73,-19,9,82,78,78
48,97,48,-73,0,73,-78,-24,4,78,78,78
43,97,53,-70,-4,75,-78,-29,4,73,78,78
43,97,53,-70,-4,75,-73,-29,9,73,78,78
53,107,53,-80,0,80,-68,-39,4,73,82,87
53,112,58,-82,-2,85,-68,-34,0,73,82,87
53,117,63,-85,-4,90,-68,-34,-4,78,82,87
53,112,58,-82,-2,85,-63,-34,-4,78,87,87
63,102,39,-82,12,70,-63,-29,4,78,97,82
63,82,19,-73,21,51,-58,-19,0,78,92,82
53,78,24,-65,14,51,-58,-14,-4,68,87,78
48,73,24,-61,12,48,-48,-9,-4,68,82,78
43,63,19,-53,12,41,-48,-9,-4,73,73,78
39,63,24,-51,7,43,-43,-9,-4,73,78,78
34,53,19,-43,7,36,-39,-9,0,68,78,78
29,43,14,-36,7,29,-39,-9,0,68,78,68
34,29,-4,-31,19,12,-24,0,0,68,73,68
29,19,-9,-24,19,4,-24,0,-4,63,73,68
14,9,-4,-12,9,2,-24,-9,-4,53,68,63
9,4,-4,-7,7,0,-19,-9,-4,48,63,63
4,-4,-9,0,7,-7,-29,-19,-24,43,53,53
0,-14,-14,7,7,-14,-29,-19,-24,39,43,53
-4,-29,-24,17,9,-26,-24,-19,-29,29,43,48
-4,-34,-29,19,12,-31,-24,-19,-34,29,39,34
0,-48,-48,24,24,-48,-14,-9,-29,24,34,34
0,-58,-58,29,29,-58,-14,-9,-29,19,29,34
0,-63,-63,31,31,-63,-14,-9,-34,14,29,29
-4,-73,-68,39,31,-70,-14,-9,-34,9,29,29
-14,-82,-68,48,26,-75,-14,-9,-48,9,29,24
-14,-82,-68,48,26,-75,-14,-14,-48,9,19,24
-14,-87,-73,51,29,-80,-14,-14,-48,9,19,24
-14,-87,-73,51,29,-80,-14,-14,-48,9,24,24
-14,-102,-87,58,36,-95,-4,-14,-39,19,34,24
-19,-102,-82,61,31,-92,-4,-9,-39,19,34,24
-19,-102,-82,61,31,-92,0,-9,-39,19,34,24
-24,-102,-78,63,26,-90,0,-9,-39,24,29,24
-14,-102,-87,58,36,-95,0,-4,-29,24,29,34
-9,-107,-97,58,43,-102,-4,-4,-29,19,29,34
-9,-112,-102,61,46,-107,-4,-4,-29,19,34,34
-9,-117,-107,63,48,-112,0,-4,-29,19,34,34
-14,-126,-112,70,48,-119,0,-9,-24,19,34,34
-14,-126,-112,70,48,-119,4,-9,-24,19,29,34
-9,-126,-117,68,53,-122,4,-9,-24,19,29,34
-9,-126,-117,68,53,-122,0,-9,-24,24,29,29
-9,-131,-122,70,56,-126,0,0,-14,24,29,29
-9,-131,-122,70,56,-126,0,0,-9,24,34,34
-9,-131,-122,70,56,-126,0,0,-9,24,34,34
-9,-131,-122,70,56,-126,0,0,-9,24,34,34
-9,-122,-112,65,51,-117,4,0,-9,29,34,34
-9,-122,-112,65,51,-117,4,4,-14,29,34,34
-14,-141,-126,78,56,-134,19,19,4,39,39,34
-4,-151,-146,78,70,-148,29,43,19,48,39,29
9,-156,-165,73,87,-161,34,58,39,68,48,29
24,-161,-185,68,104,-173,39,97,73,97,63,34
48,-151,-200,51,124,-175,53,156,112,126,78,34
63,-165,-229,51,146,-197,92,248,141,141,78,34
82,-185,-268,51,175,-226,131,326,190,175,87,24
82,-175,-258,46,170,-217,165,356,268,234,136,34
73,-146,-219,36,146,-183,165,317,351,307,195,82
53,-92,-146,19,100,-119,131,219,409,385,263,141
63,-19,-82,-21,73,-51,63,97,444,478,346,219
97,63,-34,-80,65,14,-19,29,488,570,458,307
136,146,9,-141,63,78,-97,-29,551,683,556,400
170,224,53,-197,58,139,-141,-92,605,766,663,483
214,312,97,-263,58,204,-214,-190,619,834,746,570
229,405,175,-317,26,290,-326,-361,575,873,814,663
219,463,244,-341,-12,353,-439,-541,434,810,824,722
190,419,229,-305,-19,324,-507,-668,190,624,712,678
151,302,151,-226,0,226,-531,-751,-102,326,502,551
73,185,112,-129,-19,148,-551,-849,-400,24,268,409
-102,146,248,-21,-175,197,-585,-1044,-663,-219,87,331
-331,170,502,80,-417,336,-624,-1327,-878,-414,-29,297
-531,190,722,170,-627,456,-658,-1561,-1054,-600,-156,248
-644,156,800,244,-722,478,-668,-1649,-1200,-746,-278,170
-653,63,717,295,-685,390,-663,-1581,-1244,-814,-351,92
-600,-29,570,314,-585,270,-639,-1454,-1239,-844,-390,24
-546,-73,473,309,-509,200,-629,-1351,-1195,-834,-400,-4
-507,-48,458,278,-483,204,-610,-1244,-1093,-756,-351,24
-453,4,458,224,-456,231,-580,-1122,-932,-629,-273,63
-385,24,409,180,-397,217,-512,-956,-780,-522,-209,82
-322,0,322,161,-322,161,-419,-775,-649,-444,-175,87
-273,-43,229,158,-251,92,-302,-595,-512,-346,-126,87
-234,-78,156,156,-195,39,-209,-439,-395,-258,-92,78
-204,-117,87,161,-146,-14,-146,-336,-317,-219,-87,48
-161,-151,9,156,-85,-70,-102,-253,-258,-180,-82,29
-122,-185,-63,153,-29,-124,-68,-180,-190,-126,-53,34
-102,-185,-82,143,-9,-134,-34,-112,-146,-82,-29,39
-82,-175,-92,129,4,-134,-19,-82,-107,-63,-9,53
-58,-170,-112,114,26,-141,-9,-53,-87,-48,4,43
-48,-175,-126,112,39,-151,9,-19,-63,-29,9,39
-43,-200,-156,122,56,-178,39,14,-34,-14,9,29
-29,-224,-195,126,82,-209,48,48,-14,4,19,29
-34,-234,-200,134,82,-217,63,68,4,29,24,29
-19,-244,-224,131,102,-234,78,92,19,39,34,39
0,-244,-244,122,122,-244,87,92,24,39,34,29
4,-244,-248,119,126,-246,87,102,24,43,34,29
4,-248,-253,122,129,-251,87,112,29,43,34,29
4,-248,-253,122,129,-251,87,117,34,48,39,29
4,-244,-248,119,126,-246,87,122,39,53,39,29
4,-253,-258,124,131,-256,92,126,43,53,39,34
4,-253,-258,124,131,-256,92,136,43,53,39,34
9,-248,-258,119,134,-253,92,136,48,58,39,29
9,-253,-263,122,136,-258,102,141,58,68,39,29
9,-253,-263,122,136,-258,107,146,58,68,39,29
14,-253,-268,119,141,-261,107,146,63,73,39,29
14,-258,-273,122,143,-265,107,151,63,73,39,29
14,-253,-268,119,141,-261,102,151,68,68,34,29
19,-253,-273,117,146,-263,102,151,68,68,34,29
19,-258,-278,119,148,-268,107,161,73,68,34,29
19,-258,-278,119,148,-268,107,161,73,73,34,29
19,-268,-287,124,153,-278,117,170,78,73,43,29
19,-263,-283,122,151,-273,117,175,78,73,43,29
19,-263,-283,122,151,-273,117,175,78,73,43,29
19,-268,-287,124,153,-278,122,180,82,73,43,29
19,-268,-287,124,153,-278,122,180,82,73,43,19
24,-273,-297,124,161,-285,122,185,82,73,43,19
24,-273,-297,124,161,-285,126,185,87,78,48,19
24,-273,-297,124,161,-285,126,190,87,78,48,19
14,-278,-292,131,153,-285,126,190,97,87,48,19
14,-278,-292,131,153,-285,126,195,97,87,48,19
14,-278,-292,131,153,-285,126,195,97,87,48,19
14,-273,-287,129,151,-280,131,195,102,92,48,19
29,-263,-292,117,161,-278,131,190,102,82,48,29
29,-268,-297,119,163,-283,131,190,102,82,48,24
29,-268,-297,119,163,-283,131,200,107,82,48,24
29,-268,-297,119,163,-283,136,200,107,82,48,24
29,-283,-312,126,170,-297,146,209,107,92,48,14
29,-287,-317,129,173,-302,146,209,107,92,48,14
29,-287,-317,129,173,-302,146,214,112,92,48,14
34,-292,-326,129,180,-309,146,214,112,97,48,9
34,-283,-317,124,175,-300,141,204,112,97,48,19
34,-283,-317,124,175,-300,141,214,117,97,53,24
34,-283,-317,124,175,-300,141,214,117,97,53,24
39,-283,-322,122,180,-302,146,214,117,102,48,24
39,-292,-331,126,185,-312,156,224,126,102,58,24
39,-297,-336,129,187,-317,156,229,126,102,58,24
39,-297,-336,129,187,-317,156,234,126,102,58,24
39,-302,-341,131,190,-322,156,234,131,102,58,24
39,-297,-336,129,187,-317,156,229,131,102,48,19
39,-297,-336,129,187,-317,161,229,131,102,48,19
39,-292,-331,126,185,-312,161,229,136,107,48,24
39,-287,-326,124,183,-307,165,234,136,107,48,24
34,-302,-336,134,185,-319,165,244,136,117,53,24
34,-307,-341,136,187,-324,165,244,141,117,53,24
34,-312,-346,139,190,-329,165,248,141,117,53,24
34,-317,-351,141,192,-334,165,248,141,117,53,24
34,-307,-341,136,187,-324,170,253,141,107,53,34
34,-307,-341,136,187,-324,170,253,146,107,53,34
34,-302,-336,134,185,-319,170,258,146,112,53,34
34,-302,-336,134,185,-319,170,263,151,112,53,34
34,-307,-341,136,187,-324,185,263,151,122,63,34
34,-322,-356,143,195,-339,185,263,151,122,63,34
34,-326,-361,146,197,-344,185,263,151,122,63,34
34,-326,-361,146,197,-344,190,268,151,122,63,34
34,-312,-346,139,190,-329,180,268,156,122,63,34
34,-312,-346,139,190,-329,180,268,156,122,63,34
34,-312,-346,139,190,-329,180,273,156,126,63,34
34,-307,-341,136,187,-324,180,273,156,126,63,34
39,-317,-356,139,197,-336,195,273,170,126,73,43
43,-322,-366,139,204,-344,195,278,170,126,73,43
48,-326,-375,139,212,-351,195,278,170,126,73,43
53,-326,-380,136,217,-353,200,278,175,126,73,43
48,-322,-370,136,209,-346,200,292,165,126,73,34
48,-322,-370,136,209,-346,200,292,165,126,73,34
48,-322,-370,136,209,-346,200,297,165,126,73,29
43,-322,-366,139,204,-344,200,302,170,126,73,29
43,-331,-375,143,209,-353,200,302,170,126,63,29
43,-336,-380,146,212,-358,204,302,175,131,63,29
43,-341,-385,148,214,-363,209,302,175,131,63,29
43,-341,-385,148,214,-363,209,302,175,131,63,29
43,-326,-370,141,207,-348,209,307,175,131,73,39
43,-326,-370,141,207,-348,209,307,175,131,73,39
43,-326,-370,141,207,-348,214,307,175,131,73,34
43,-326,-370,141,207,-348,214,312,175,131,73,34
29,-341,-370,156,200,-356,219,312,185,122,63,34
29,-341,-370,156,200,-356,219,312,190,122,63,34
29,-346,-375,158,202,-361,224,312,190,122,63,34
29,-346,-375,158,202,-361,224,317,190,122,63,34
29,-336,-366,153,197,-351,224,326,180,131,58,24
29,-331,-361,151,195,-346,229,326,180,126,58,24
34,-331,-366,148,200,-348,229,326,180,126,58,19
34,-331,-366,148,200,-348,229,331,180,126,58,19
24,-346,-370,161,197,-358,239,322,190,126,68,29
24,-346,-370,161,197,-358,239,322,190,126,63,29
24,-346,-370,161,197,-358,239,322,190,126,63,29
24,-346,-370,161,197,-358,244,322,195,122,63,29
24,-351,-375,163,200,-363,244,326,195,122,63,14
19,-351,-370,165,195,-361,244,326,190,122,58,14
19,-351,-370,165,195,-361,244,322,190,122,58,14
14,-351,-366,168,190,-358,248,322,190,117,58,14
9,-341,-351,165,180,-346,248,331,180,117,43,19
4,-346,-351,170,178,-348,253,331,180,117,43,19
0,-346,-346,173,173,-346,253,331,180,117,43,19
0,-346,-346,173,173,-346,258,331,180,107,34,19
0,-356,-356,178,178,-356,258,331,190,107,43,14
0,-351,-351,175,175,-351,258,326,190,107,39,9
-4,-351,-346,178,170,-348,263,326,190,102,39,9
-9,-351,-341,180,165,-346,263,322,190,102,39,9
0,-351,-351,175,175,-351,268,322,190,97,24,0
-4,-351,-346,178,170,-348,268,322,190,97,24,0
-9,-351,-341,180,165,-346,268,317,185,97,24,0
-14,-356,-341,185,163,-348,273,312,180,92,24,0
-19,-356,-336,187,158,-346,273,322,180,87,19,-4
-24,-356,-331,190,153,-344,273,317,175,82,14,-4
-24,-356,-331,190,153,-344,278,312,170,78,14,-4
-29,-356,-326,192,148,-341,278,307,170,73,14,-4
-34,-346,-312,190,139,-329,268,292,170,73,9,-4
-39,-351,-312,195,136,-331,268,292,170,68,4,-4
-43,-351,-307,197,131,-329,268,287,165,63,0,-9
-48,-346,-297,197,124,-322,268,283,161,63,-4,-9
-43,-351,-307,197,131,-329,273,283,151,48,-4,-9
-48,-351,-302,200,126,-326,268,278,151,43,-9,-9
-53,-351,-297,202,122,-324,263,273,151,39,-14,-9
-58,-356,-297,207,119,-326,268,263,151,34,-14,-9
-63,-351,-287,207,112,-319,258,253,141,29,-24,-19
-68,-346,-278,207,104,-312,258,244,141,29,-34,-19
-73,-341,-268,207,97,-305,248,234,136,24,-34,-19
-73,-326,-253,200,90,-290,244,229,131,24,-34,-19
-73,-326,-253,200,90,-290,244,229,131,14,-34,-29
-78,-331,-253,204,87,-292,239,219,122,9,-43,-29
-87,-331,-244,209,78,-287,234,204,117,9,-43,-29
-87,-331,-244,209,78,-287,239,195,112,4,-43,-29
-97,-322,-224,209,63,-273,234,180,97,-9,-53,-29
-97,-317,-219,207,61,-268,219,165,92,-14,-58,-29
-102,-317,-214,209,56,-265,214,156,82,-19,-58,-29
-102,-312,-209,207,53,-261,204,146,82,-24,-58,-29
-107,-312,-204,209,48,-258,195,136,68,-39,-68,-34
-107,-312,-204,209,48,-258,185,126,58,-43,-73,-34
-107,-312,-204,209,48,-258,180,112,48,-48,-73,-39
-107,-307,-200,207,46,-253,170,102,48,-53,-73,-39
-117,-302,-185,209,34,-244,156,92,29,-68,-73,-39
-117,-287,-170,202,26,-229,151,82,24,-73,-73,-39
-122,-292,-170,207,24,-231,151,78,19,-73,-73,-39
-122,-292,-170,207,24,-231,136,68,14,-73,-82,-39
-117,-302,-185,209,34,-244,136,48,9,-78,-92,-48
-117,-302,-185,209,34,-244,136,43,0,-78,-92,-48
-117,-302,-185,209,34,-244,131,34,-4,-78,-87,-48
-107,-307,-200,207,46,-253,126,34,-4,-82,-87,-48
-102,-302,-200,202,48,-251,107,29,-19,-82,-87,-39
-102,-292,-190,197,43,-241,102,24,-24,-82,-87,-34
-102,-287,-185,195,41,-236,102,19,-24,-82,-82,-34
-97,-283,-185,190,43,-234,97,19,-24,-78,-78,-29
-92,-292,-200,192,53,-246,92,19,-24,-78,-73,-39
-87,-283,-195,185,53,-239,87,14,-24,-78,-68,-34
-82,-292,-209,187,63,-251,82,14,-24,-68,-63,-34
-82,-292,-209,187,63,-251,78,14,-24,-63,-58,-34
-87,-278,-190,183,51,-234,73,4,-24,-53,-43,-19
-82,-273,-190,178,53,-231,68,4,-24,-48,-39,-19
-78,-268,-190,173,56,-229,68,4,-24,-43,-34,-9
-73,-263,-190,168,58,-226,68,9,-19,-39,-29,-4
-68,-273,-204,170,68,-239,63,9,-9,-34,-19,0
-63,-258,-195,161,65,-226,63,9,-9,-24,-9,9
-63,-258,-195,161,65,-226,63,9,-9,-14,-4,14
-58,-258,-200,158,70,-229,63,14,-9,-9,0,14
-53,-244,-190,148,68,-217,53,4,-4,0,4,14
-48,-239,-190,143,70,-214,48,4,0,4,4,14
-43,-234,-190,139,73,-212,48,9,0,9,9,14
-39,-229,-190,134,75,-209,48,14,0,14,14,14
-43,-229,-185,136,70,-207,48,24,14,29,29,29
-43,-224,-180,134,68,-202,43,24,14,29,29,34
-43,-224,-180,134,68,-202,43,29,19,29,39,34
-43,-224,-180,134,68,-202,43,29,24,34,39,34
-39,-214,-175,126,68,-195,34,24,14,34,39,24
-39,-209,-170,124,65,-190,34,24,19,39,39,29
-34,-204,-170,119,68,-187,34,29,19,39,43,29
-34,-204,-170,119,68,-187,34,29,19,43,43,29
-19,-204,-185,112,82,-195,34,24,24,43,48,43
-14,-204,-190,109,87,-197,29,24,24,43,48,43
-14,-204,-190,109,87,-197,29,24,29,53,48,43
-14,-204,-190,109,87,-197,34,29,29,53,53,43
-24,-195,-170,109,73,-183,34,29,29,53,63,34
-24,-190,-165,107,70,-178,34,29,34,53,63,39
-19,-190,-170,104,75,-180,34,34,34,53,68,39
-14,-195,-180,104,82,-187,34,39,34,53,68,39
-24,-204,-180,114,78,-192,34,39,39,58,58,39
-24,-204,-180,114,78,-192,34,39,39,58,58,39
-19,-200,-180,109,80,-190,34,39,39,58,58,34
-19,-200,-180,109,80,-190,34,39,39,58,58,34
-19,-195,-175,107,78,-185,34,39,29,58,58,43
-14,-190,-175,102,80,-183,29,39,29,58,58,43
-4,-185,-180,95,87,-183,29,43,34,58,63,43
0,-185,-185,92,92,-185,34,43,34,63,63,43
-9,-175,-165,92,78,-170,34,43,43,63,63,43
-9,-180,-170,95,80,-175,34,43,43,63,63,43
-9,-180,-170,95,80,-175,34,43,43,63,63,43
-9,-165,-156,87,73,-161,34,43,43,63,63,43
-9,-165,-156,87,73,-161,34,34,53,73,58,39
-4,-165,-161,85,78,-163,34,34,48,73,58,39
-4,-170,-165,87,80,-168,29,39,48,73,58,43
-4,-175,-170,90,82,-173,29,39,48,73,63,43
-4,-170,-165,87,80,-168,24,39,43,73,63,43
-4,-170,-165,87,80,-168,24,39,48,73,63,43
-4,-165,-161,85,78,-163,24,39,48,73,58,43
-4,-161,-156,82,75,-158,24,39,48,73,58,39
-4,-156,-151,80,73,-153,24,39,39,73,68,29
0,-156,-156,78,78,-156,29,39,39,73,68,34
0,-161,-161,80,80,-161,29,39,43,73,68,34
-4,-170,-165,87,80,-168,24,39,48,73,68,34
-4,-165,-161,85,78,-163,24,39,39,73,58,43
-4,-161,-156,82,75,-158,24,39,39,68,58,39
-4,-156,-151,80,73,-153,24,39,39,68,58,39
-4,-136,-131,70,63,-134,24,39,39,68,58,39
-4,-141,-136,73,65,-139,29,39,39,68,58,29
-4,-146,-141,75,68,-143,29,39,39,68,58,29
-4,-156,-151,80,73,-153,24,39,39,68,53,29
-4,-161,-156,82,75,-158,19,39,39,68,53,34
-4,-161,-156,82,75,-158,19,39,34,58,63,43
0,-165,-165,82,82,-165,24,43,34,58,63,39
0,-170,-170,85,85,-170,24,43,34,58,63,39
-4,-151,-146,78,70,-148,24,39,34,58,63,34
-4,-146,-141,75,68,-143,24,48,39,58,63,34
-4,-151,-146,78,70,-148,24,43,39,58,63,34
-4,-146,-141,75,68,-143,24,43,39,53,63,34
-4,-161,-156,82,75,-158,19,43,39,53,63,29
-4,-161,-156,82,75,-158,19,43,39,63,63,29
-9,-156,-146,82,68,-151,19,43,39,63,63,34
-9,-156,-146,82,68,-151,19,43,39,63,63,34
-4,-151,-146,78,70,-148,19,43,39,63,58,34
-4,-151,-146,78,70,-148,29,43,39,68,58,34
-4,-151,-146,78,70,-148,29,48,39,68,58,34
-4,-156,-151,80,73,-153,29,48,39,68,58,34
-4,-161,-156,82,75,-158,29,43,39,68,58,34
-4,-165,-161,85,78,-163,19,39,29,63,58,34
-4,-161,-156,82,75,-158,19,39,34,58,58,34
-4,-161,-156,82,75,-158,19,39,34,53,58,34
-4,-156,-151,80,73,-153,19,39,34,48,48,34
-14,-161,-146,87,65,-153,19,43,34,58,58,39
-14,-165,-151,90,68,-158,19,43,24,58,58,39
-19,-165,-146,92,63,-156,24,43,24,58,58,39
-19,-170,-151,95,65,-161,24,43,24,53,53,39
-9,-170,-161,90,75,-165,19,43,24,53,63,39
-9,-170,-161,90,75,-165,19,43,24,53,63,39
-9,-165,-156,87,73,-161,24,43,19,53,63,39
-9,-161,-151,85,70,-156,24,39,19,53,63,39
-9,-175,-165,92,78,-170,24,29,24,63,63,29
-9,-165,-156,87,73,-161,24,34,24,63,63,29
-9,-170,-161,90,75,-165,24,34,24,63,63,29
-9,-175,-165,92,78,-170,19,34,24,63,63,24
-9,-170,-161,90,75,-165,9,39,24,53,63,24
-9,-170,-161,90,75,-165,9,34,24,53,63,24
-9,-170,-161,90,75,-165,4,34,19,48,63,29
-9,-175,-165,92,78,-170,4,34,19,48,58,29
-9,-170,-161,90,75,-165,14,29,24,53,58,29
-9,-161,-151,85,70,-156,14,29,24,53,58,29
-4,-165,-161,85,78,-163,14,29,24,48,63,29
-4,-170,-165,87,80,-168,14,29,24,48,63,29
-4,-170,-165,87,80,-168,4,29,19,48,53,34
-9,-165,-156,87,73,-161,4,29,19,48,53,34
-9,-161,-151,85,70,-156,4,29,19,48,53,39
-9,-165,-156,87,73,-161,4,29,19,48,53,39
-9,-170,-161,90,75,-165,14,29,29,58,63,39
-9,-165,-156,87,73,-161,14,29,29,58,63,39
-9,-170,-161,90,75,-165,19,24,29,58,63,39
-9,-175,-165,92,78,-170,19,24,29,58,63,39
-19,-170,-151,95,65,-161,9,14,24,48,53,39
-19,-175,-156,97,68,-165,9,14,24,48,53,39
-19,-170,-151,95,65,-161,9,14,24,48,53,39
-19,-170,-151,95,65,-161,4,14,24,53,53,39
-19,-180,-161,100,70,-170,9,24,14,53,53,39
-19,-175,-156,97,68,-165,14,24,19,48,53,34
-19,-170,-151,95,65,-161,19,24,19,48,53,34
-19,-165,-146,92,63,-156,24,24,19,48,53,39
-19,-156,-136,87,58,-146,14,14,24,48,53,34
-19,-161,-141,90,61,-151,14,14,19,48,53,34
-19,-161,-141,90,61,-151,9,14,19,48,53,34
-19,-165,-146,92,63,-156,9,14,19,53,53,34
-9,-175,-165,92,78,-170,19,14,14,53,53,34
-9,-175,-165,92,78,-170,19,14,14,53,53,34
-4,-165,-161,85,78,-163,19,14,19,53,53,34
-4,-161,-156,82,75,-158,19,14,19,53,53,34
-9,-151,-141,80,65,-146,9,14,19,53,43,34
-9,-156,-146,82,68,-151,4,9,19,53,48,34
-9,-161,-151,85,70,-156,4,9,19,53,48,34
-9,-161,-151,85,70,-156,4,9,14,53,48,34
-9,-175,-165,92,78,-170,9,19,4,53,48,34
-9,-175,-165,92,78,-170,9,19,9,53,48,34
-9,-165,-156,87,73,-161,9,19,14,53,48,34
-9,-161,-151,85,70,-156,9,19,14,53,48,29
-9,-161,-151,85,70,-156,9,9,9,53,58,29
-9,-161,-151,85,70,-156,4,9,9,53,58,34
-9,-170,-161,90,75,-165,4,9,9,53,58,34
-9,-175,-165,92,78,-170,9,9,9,53,58,34
-9,-180,-170,95,80,-175,14,14,9,48,48,34
-9,-180,-170,95,80,-175,14,19,14,48,48,34
-9,-170,-161,90,75,-165,14,19,14,48,48,34
-9,-165,-156,87,73,-161,9,14,14,48,48,34
-9,-165,-156,87,73,-161,9,9,19,48,53,34
-9,-165,-156,87,73,-161,9,9,19,48,53,34
-9,-165,-156,87,73,-161,9,9,19,48,53,34
-9,-165,-156,87,73,-161,9,9,14,48,53,34
0,-165,-165,82,82,-165,14,14,4,48,43,34
0,-165,-165,82,82,-165,14,14,9,48,43,34
0,-161,-161,80,80,-161,14,14,14,48,43,34
0,-156,-156,78,78,-156,9,9,14,48,43,34
-9,-165,-156,87,73,-161,9,9,24,48,53,39
-9,-165,-156,87,73,-161,9,9,19,48,53,39
-9,-165,-156,87,73,-161,9,9,14,48,53,39
-9,-165,-156,87,73,-161,9,9,14,48,53,34
-9,-156,-146,82,68,-151,0,4,4,48,53,34
-9,-161,-151,85,70,-156,4,4,4,48,53,34
-4,-170,-165,87,80,-168,4,9,4,53,53,34
-4,-161,-156,82,75,-158,0,9,9,53,53,39
-4,-165,-161,85,78,-163,9,14,9,53,53,39
-4,-170,-165,87,80,-168,9,14,9,53,53,34
-4,-175,-170,90,82,-173,9,14,9,53,53,34
-9,-180,-170,95,80,-175,9,14,4,53,53,34
-9,-175,-165,92,78,-170,0,9,4,43,48,43
-9,-170,-161,90,75,-165,4,9,9,43,48,43
-4,-165,-161,85,78,-163,4,9,9,48,48,48
-4,-151,-146,78,70,-148,4,9,14,48,48,48
-9,-170,-161,90,75,-165,24,19,14,58,63,43
-19,-180,-161,100,70,-170,24,29,14,63,63,43
0,-165,-165,82,82,-165,9,19,4,53,58,48
9,-156,-165,73,87,-161,0,0,-9,39,48,39
4,-165,-170,80,87,-168,9,9,0,48,48,39
0,-165,-165,82,82,-165,9,9,0,48,48,39
-4,-165,-161,85,78,-163,9,9,0,48,48,39
-9,-165,-156,87,73,-161,9,9,0,48,48,39
0,-175,-175,87,87,-175,9,14,0,48,58,48
4,-175,-180,85,92,-178,9,19,0,48,58,48
4,-170,-175,82,90,-173,9,19,9,53,63,48
4,-161,-165,78,85,-163,9,19,9,58,68,48
0,-136,-136,68,68,-136,9,19,19,63,63,48
0,-131,-131,65,65,-131,9,24,29,63,63,53
0,-126,-126,63,63,-126,14,29,29,63,73,58
0,-126,-126,63,63,-126,19,29,39,63,78,58
0,-122,-122,61,61,-122,19,29,43,63,87,63
4,-117,-122,56,63,-119,19,29,48,68,87,63
9,-112,-122,51,65,-117,19,34,53,73,87,63
9,-102,-112,46,61,-107,24,34,53,82,87,68
0,-82,-82,41,41,-82,14,34,58,87,87,78
9,-78,-87,34,48,-82,14,29,53,87,87,78
9,-82,-92,36,51,-87,19,24,48,87,87,78
14,-78,-92,31,53,-85,19,24,43,87,92,78
9,-92,-102,41,56,-97,29,39,58,87,92,78
14,-102,-117,43,65,-109,34,43,58,87,92,78
19,-107,-126,43,73,-117,34,53,63,92,97,82
24,-102,-126,39,75,-114,34,53,68,97,102,82
29,-92,-122,31,75,-107,34,53,68,92,92,73
29,-87,-117,29,73,-102,29,58,68,97,102,82
34,-82,-117,24,75,-100,24,58,73,97,107,87
39,-73,-112,17,75,-92,9,48,78,97,112,92
48,-78,-126,14,87,-102,9,43,87,107,122,92
48,-73,-122,12,85,-97,-4,34,87,112,122,97
48,-73,-122,12,85,-97,-19,19,73,117,122,97
48,-78,-126,14,87,-102,-24,9,63,112,117,97
48,-63,-112,7,80,-87,-43,-4,43,97,107,107
43,-53,-97,4,70,-75,-48,-9,39,92,107,107
43,-43,-87,0,65,-65,-48,-9,39,92,107,107
43,-34,-78,-4,61,-56,-48,-9,39,92,102,107
43,-24,-68,-9,56,-46,-39,-4,39,92,112,107
43,-24,-68,-9,56,-46,-39,-4,39,97,112,107
43,-34,-78,-4,61,-56,-34,-4,43,97,117,107
43,-39,-82,-2,63,-61,-34,-4,43,97,117,102
53,-39,-92,-7,73,-65,-39,-9,48,97,122,112
43,-34,-78,-4,61,-56,-39,-9,43,87,117,107
39,-29,-68,-4,53,-48,-29,-9,43,87,112,107
34,-24,-58,-4,46,-41,-29,-9,43,92,112,107
29,-29,-58,0,43,-43,-24,0,34,92,107,97
24,-43,-68,9,46,-56,-19,0,39,87,107,97
19,-58,-78,19,48,-68,-19,0,39,87,107,87
14,-68,-82,26,48,-75,-14,0,34,78,97,82
19,-63,-82,21,51,-73,-24,0,24,82,92,87
4,-68,-73,31,39,-70,-24,-9,19,73,82,78
0,-68,-68,34,34,-68,-19,-9,14,68,73,73
-4,-73,-68,39,31,-70,-19,-9,4,63,63,63
-9,-92,-82,51,36,-87,-19,-9,-4,53,53,63
-14,-107,-92,61,39,-100,-14,-9,-9,39,53,58
-14,-112,-97,63,41,-104,-14,-9,-14,34,48,43
-9,-122,-112,65,51,-117,-14,-9,-19,24,43,43
-9,-117,-107,63,48,-112,-14,-19,-19,19,39,34
-9,-117,-107,63,48,-112,-14,-19,-24,14,39,29
-14,-122,-107,68,46,-114,-14,-19,-24,9,39,29
-14,-122,-107,68,46,-114,-14,-19,-29,9,39,24
-24,-126,-102,75,39,-114,-14,-24,-39,9,19,14
-24,-136,-112,80,43,-124,-14,-24,-39,9,19,14
-24,-141,-117,82,46,-129,-14,-24,-39,9,24,14
-24,-151,-126,87,51,-139,-14,-24,-39,9,24,14
-19,-146,-126,82,53,-136,-24,-19,-39,0,24,14
-19,-141,-122,80,51,-131,-19,-19,-39,0,24,14
-24,-136,-112,80,43,-124,-19,-19,-39,4,19,14
-24,-126,-102,75,39,-114,-19,-24,-39,4,19,14
-19,-136,-117,78,48,-126,-14,-14,-39,9,19,14
-19,-136,-117,78,48,-126,-14,-14,-39,9,24,14
-19,-136,-117,78,48,-126,-9,-14,-39,9,24,14
-24,-136,-112,80,43,-124,-9,-9,-34,9,24,14
-24,-126,-102,75,39,-114,-4,-19,-34,9,19,14
-19,-126,-107,73,43,-117,-4,-19,-34,9,19,14
-19,-126,-107,73,43,-117,-9,-19,-34,14,19,9
-19,-122,-102,70,41,-112,-9,-19,-34,14,19,9
-29,-131,-102,80,36,-117,-9,-19,-29,14,24,24
-29,-131,-102,80,36,-117,-9,-19,-29,14,24,24
-29,-131,-102,80,36,-117,-9,-19,-29,14,24,24
-29,-131,-102,80,36,-117,-4,-9,-29,19,24,24
-19,-141,-122,80,51,-131,-4,-4,-24,19,14,24
-4,-141,-136,73,65,-139,0,0,-24,29,19,24
-4,-141,-136,73,65,-139,0,14,-9,29,29,19
-9,-126,-117,68,53,-122,14,48,19,39,39,19
4,-112,-117,53,61,-114,29,87,63,68,53,24
19,-122,-141,51,80,-131,63,146,112,107,68,24
43,-146,-190,51,117,-168,112,239,161,131,68,14
43,-165,-209,61,126,-187,151,297,229,165,78,4
43,-146,-190,51,117,-168,165,297,307,234,117,24
24,-107,-131,41,78,-119,136,209,361,307,175,63
4,-14,-19,4,12,-17,63,63,390,375,244,131
24,78,53,-51,-14,65,-34,-29,453,478,336,209
68,180,112,-124,-21,146,-107,-68,546,600,458,307
107,263,156,-185,-24,209,-156,-107,619,712,575,400
141,322,180,-231,-19,251,-219,-180,653,795,663,483
165,400,234,-283,-34,317,-312,-287,649,854,736,570
190,473,283,-331,-46,378,-424,-429,556,863,805,653
200,492,292,-346,-46,392,-517,-541,356,771,785,673
190,419,229,-305,-19,324,-575,-629,82,546,644,610
161,292,131,-226,14,212,-619,-702,-229,239,424,483
92,175,82,-134,4,129,-658,-829,-556,-92,190,341
-73,136,209,-31,-141,173,-722,-1063,-849,-346,19,273
-283,151,434,65,-358,292,-790,-1356,-1093,-541,-97,248
-453,131,585,161,-519,358,-834,-1571,-1317,-746,-234,190
-546,58,605,244,-575,331,-824,-1629,-1464,-912,-366,92
-556,-4,551,280,-553,273,-800,-1561,-1478,-961,-429,24
-502,-29,473,265,-488,222,-775,-1444,-1395,-922,-419,14
-448,14,463,217,-456,239,-756,-1322,-1263,-844,-380,34
-400,78,478,161,-439,278,-707,-1205,-1083,-717,-292,73
-356,112,468,122,-412,290,-629,-1044,-912,-580,-214,112
-297,92,390,102,-344,241,-522,-849,-761,-483,-161,122
-253,58,312,97,-283,185,-419,-697,-629,-405,-126,117
-224,24,248,100,-236,136,-341,-575,-512,-336,-107,107
-195,-9,185,102,-190,87,-258,-468,-414,-278,-82,97
-165,-29,136,97,-151,53,-204,-375,-346,-229,-78,68
-131,-63,68,97,-100,2,-151,-283,-287,-190,-63,48
-112,-78,34,95,-73,-21,-117,-200,-219,-156,-53,34
-82,-78,4,80,-43,-36,-92,-151,-185,-131,-39,29
-73,-87,-14,80,-29,-51,-68,-112,-156,-112,-39,14
-58,-102,-43,80,-7,-73,-48,-82,-126,-87,-34,14
-48,-126,-78,87,14,-102,-29,-58,-92,-68,-29,9
-34,-141,-107,87,36,-124,0,-24,-63,-43,-19,0
-29,-146,-117,87,43,-131,19,9,-43,-24,-19,0
-34,-146,-112,90,39,-129,24,29,-24,-19,-14,9
-29,-136,-107,82,39,-122,29,43,-19,-9,-4,0
-9,-146,-136,78,63,-141,39,43,-14,-9,-14,0
-4,-146,-141,75,68,-143,39,53,-14,-4,-14,0
-4,-151,-146,78,70,-148,39,63,-9,-4,-14,0
-4,-151,-146,78,70,-148,39,68,-4,0,-9,0
-4,-165,-161,85,78,-163,58,73,9,4,0,0
-4,-175,-170,90,82,-173,63,78,14,4,0,4
-4,-175,-170,90,82,-173,63,87,14,4,0,4
0,-170,-170,85,85,-170,63,87,19,9,0,0
0,-156,-156,78,78,-156,53,82,19,9,0,-9
0,-156,-156,78,78,-156,58,87,19,9,0,-9
4,-156,-161,75,82,-158,58,87,24,14,0,-9
4,-161,-165,78,85,-163,58,92,24,14,0,-9
4,-175,-180,85,92,-178,73,102,39,19,4,0
9,-175,-185,82,97,-180,73,102,39,19,4,0
9,-180,-190,85,100,-185,78,112,43,19,4,0
9,-180,-190,85,100,-185,78,112,43,24,4,0
0,-170,-170,85,85,-170,68,102,43,24,-4,-9
0,-156,-156,78,78,-156,68,107,39,24,-4,-9
0,-146,-146,73,73,-146,68,107,34,24,-4,-9
0,-141,-141,70,70,-141,73,112,34,24,-4,-9
0,-161,-161,80,80,-161,82,122,43,24,-4,-9
4,-165,-170,80,87,-168,82,126,43,24,-4,-9
4,-165,-170,80,87,-168,87,126,48,29,0,-9
4,-165,-170,80,87,-168,87,131,48,29,0,-9
4,-161,-165,78,85,-163,78,131,48,29,9,-9
4,-161,-165,78,85,-163,78,136,48,29,9,-9
4,-161,-165,78,85,-163,78,136,48,29,9,-9
4,-156,-161,75,82,-158,82,136,53,34,9,-9
19,-165,-185,73,102,-175,92,141,53,34,0,0
19,-170,-190,75,104,-180,92,141,53,34,0,-4
19,-170,-190,75,104,-180,92,151,58,34,0,-4
19,-170,-190,75,104,-180,97,151,58,34,0,-4
9,-165,-175,78,92,-170,87,151,58,34,0,-14
9,-161,-170,75,90,-165,87,151,58,34,0,-14
9,-151,-161,70,85,-156,87,156,63,34,0,-14
14,-146,-161,65,87,-153,87,156,63,39,0,-19
14,-156,-170,70,92,-163,92,146,63,39,0,-19
14,-156,-170,70,92,-163,92,156,68,39,4,-14
14,-156,-170,70,92,-163,92,156,68,39,4,-14
19,-156,-175,68,97,-165,97,156,68,43,0,-14
9,-151,-161,70,85,-156,97,156,68,34,0,-14
9,-151,-161,70,85,-156,97,161,68,34,0,-14
9,-146,-156,68,82,-151,97,165,68,34,0,-14
9,-146,-156,68,82,-151,97,165,73,34,0,-14
9,-156,-165,73,87,-161,107,170,73,43,0,-19
9,-161,-170,75,90,-165,112,170,73,43,0,-19
9,-161,-170,75,90,-165,112,170,78,48,0,-14
9,-161,-170,75,90,-165,117,175,78,48,0,-14
14,-156,-170,70,92,-163,107,175,78,48,4,-14
14,-151,-165,68,90,-158,107,175,82,48,4,-14
14,-146,-161,65,87,-153,107,180,82,48,4,-14
14,-141,-156,63,85,-148,107,180,82,48,4,-14
14,-151,-165,68,90,-158,112,185,82,48,4,-24
14,-151,-165,68,90,-158,112,185,87,48,4,-24
14,-146,-161,65,87,-153,112,190,87,53,4,-24
14,-146,-161,65,87,-153,112,195,92,53,4,-24
14,-136,-151,61,82,-143,117,195,102,53,4,-14
14,-146,-161,65,87,-153,117,195,102,53,4,-14
14,-146,-161,65,87,-153,117,195,102,53,4,-14
14,-141,-156,63,85,-148,122,200,102,53,4,-14
14,-141,-156,63,85,-148,122,200,107,53,4,-24
14,-146,-161,65,87,-153,122,200,107,53,4,-24
14,-151,-165,68,90,-158,122,204,107,58,4,-24
14,-151,-165,68,90,-158,122,204,107,58,4,-24
24,-146,-170,61,97,-158,126,204,102,58,-4,-24
24,-146,-170,61,97,-158,126,209,102,58,-4,-24
24,-146,-170,61,97,-158,126,209,102,58,-4,-24
24,-141,-165,58,95,-153,131,209,107,58,-4,-24
19,-136,-156,58,87,-146,131,214,117,58,4,-24
19,-136,-156,58,87,-146,131,214,117,58,4,-24
19,-136,-156,58,87,-146,131,219,117,58,4,-29
14,-136,-151,61,82,-143,131,224,122,58,4,-29
14,-151,-165,68,90,-158,131,224,122,58,-4,-39
14,-151,-165,68,90,-158,136,224,126,63,-4,-39
14,-151,-165,68,90,-158,141,224,126,63,-4,-39
14,-146,-161,65,87,-153,141,224,126,63,-4,-39
4,-141,-146,68,75,-143,141,229,117,53,4,-29
4,-141,-146,68,75,-143,141,229,117,53,4,-29
4,-141,-146,68,75,-143,146,229,117,53,4,-34
4,-141,-146,68,75,-143,146,234,117,53,4,-34
9,-146,-156,68,82,-151,151,234,117,53,-4,-43
9,-146,-156,68,82,-151,151,234,122,53,-4,-43
9,-151,-161,70,85,-156,156,234,122,53,-4,-43
9,-151,-161,70,85,-156,156,239,122,53,-4,-43
0,-141,-141,70,70,-141,156,229,122,53,-9,-43
0,-136,-136,68,68,-136,161,229,122,48,-9,-43
4,-136,-141,65,73,-139,161,229,122,48,-9,-48
4,-136,-141,65,73,-139,161,234,122,48,-9,-48
-4,-141,-136,73,65,-139,170,244,131,58,-9,-48
-4,-141,-136,73,65,-139,170,244,131,58,-14,-48
-4,-141,-136,73,65,-139,170,244,131,58,-14,-48
-4,-141,-136,73,65,-139,175,244,136,53,-14,-48
-4,-146,-141,75,68,-143,175,239,136,43,-14,-63
-9,-146,-136,78,63,-141,175,239,131,43,-19,-63
-9,-146,-136,78,63,-141,175,234,131,43,-19,-63
-14,-146,-131,80,58,-139,180,234,131,39,-19,-63
-9,-146,-136,78,63,-141,190,234,122,39,-24,-58
-14,-151,-136,82,61,-143,195,234,122,39,-24,-58
-19,-151,-131,85,56,-141,195,234,122,39,-24,-58
-19,-151,-131,85,56,-141,200,234,122,29,-34,-58
-29,-141,-112,85,41,-126,190,234,122,19,-34,-63
-29,-136,-107,82,39,-122,190,229,122,19,-39,-68
-34,-136,-102,85,34,-119,195,229,122,14,-39,-68
-39,-136,-97,87,29,-117,195,224,122,14,-39,-68
-39,-141,-102,90,31,-122,200,234,112,19,-43,-78
-43,-146,-102,95,29,-124,200,234,112,19,-43,-78
-48,-151,-102,100,26,-126,200,229,107,19,-43,-78
-53,-161,-107,107,26,-134,204,224,102,14,-43,-78
-48,-156,-107,102,29,-131,195,214,112,0,-58,-92
-53,-151,-97,102,21,-124,195,209,107,-4,-63,-92
-53,-146,-92,100,19,-119,200,204,102,-9,-63,-92
-58,-141,-82,100,12,-112,200,200,102,-14,-63,-92
-63,-151,-87,107,12,-119,209,204,102,-4,-58,-82
-68,-156,-87,112,9,-122,209,204,102,-9,-63,-82
-73,-156,-82,114,4,-119,209,200,97,-14,-68,-87
-78,-151,-73,114,-2,-112,209,195,92,-14,-73,-87
-82,-146,-63,114,-9,-104,209,185,82,-29,-73,-97
-87,-136,-48,112,-19,-92,200,180,82,-34,-78,-97
-92,-126,-34,109,-29,-80,190,175,82,-39,-82,-97
-97,-122,-24,109,-36,-73,190,165,82,-43,-82,-97
-92,-126,-34,109,-29,-80,200,165,82,-39,-82,-97
-97,-131,-34,114,-31,-82,200,156,82,-39,-92,-97
-102,-136,-34,119,-34,-85,190,146,78,-43,-92,-97
-102,-131,-29,117,-36,-80,185,141,73,-43,-92,-97
-102,-117,-14,109,-43,-65,180,122,63,-63,-92,-97
-107,-117,-9,112,-48,-63,170,112,53,-68,-102,-97
-117,-112,4,114,-61,-53,161,97,48,-68,-102,-97
-117,-107,9,112,-63,-48,161,87,43,-73,-102,-97
-117,-112,4,114,-61,-53,165,78,39,-78,-102,-87
-117,-112,4,114,-61,-53,151,68,34,-82,-107,-87
-122,-117,4,119,-63,-56,146,63,24,-87,-107,-87
-122,-117,4,119,-63,-56,136,58,24,-92,-107,-87
-126,-102,24,114,-75,-39,117,39,9,-97,-117,-82
-126,-97,29,112,-78,-34,107,29,0,-102,-122,-82
-126,-92,34,109,-80,-29,102,14,-9,-107,-122,-87
-126,-82,43,104,-85,-19,92,4,-9,-112,-122,-87
-126,-87,39,107,-82,-24,97,-4,-19,-117,-122,-97
-126,-82,43,104,-85,-19,92,-14,-24,-122,-122,-97
-131,-97,34,114,-82,-31,92,-19,-29,-122,-122,-97
-131,-107,24,119,-78,-41,78,-29,-34,-122,-131,-97
-126,-102,24,114,-75,-39,58,-39,-48,-131,-141,-107
-126,-97,29,112,-78,-34,58,-43,-58,-136,-141,-107
-126,-92,34,109,-80,-29,53,-53,-63,-141,-136,-107
-117,-92,24,104,-70,-34,48,-53,-63,-151,-136,-107
-122,-97,24,109,-73,-36,48,-48,-68,-146,-126,-97
-122,-97,24,109,-73,-36,43,-53,-73,-141,-126,-92
-122,-102,19,112,-70,-41,43,-58,-73,-136,-122,-92
-117,-107,9,112,-63,-48,39,-58,-73,-126,-117,-87
-112,-102,9,107,-61,-46,24,-68,-82,-122,-122,-87
-107,-87,19,97,-63,-34,19,-73,-82,-126,-117,-82
-102,-92,9,97,-56,-41,14,-73,-82,-122,-112,-82
-102,-87,14,95,-58,-36,9,-73,-82,-122,-107,-82
-97,-82,14,90,-56,-34,4,-73,-73,-112,-102,-78
-92,-87,4,90,-48,-41,0,-73,-73,-107,-97,-78
-87,-92,-4,90,-41,-48,0,-73,-73,-102,-92,-68
-82,-97,-14,90,-34,-56,0,-68,-68,-97,-87,-63
-78,-97,-19,87,-29,-58,-4,-68,-58,-92,-78,-58
-73,-82,-9,78,-31,-46,-4,-68,-58,-82,-68,-48
-73,-82,-9,78,-31,-46,-4,-68,-58,-73,-63,-43
-68,-82,-14,75,-26,-48,-4,-63,-58,-68,-58,-43
-63,-82,-19,73,-21,-51,-4,-63,-53,-58,-43,-34
-58,-82,-24,70,-17,-53,-9,-63,-48,-53,-43,-34
-53,-82,-29,68,-12,-56,-9,-58,-48,-48,-39,-34
-48,-82,-34,65,-7,-58,-9,-53,-48,-43,-34,-34
-34,-73,-39,53,2,-56,-9,-43,-43,-39,-29,-29
-34,-68,-34,51,0,-51,-14,-43,-43,-39,-29,-24
-34,-68,-34,51,0,-51,-14,-39,-39,-39,-19,-24
-34,-68,-34,51,0,-51,-14,-39,-34,-34,-19,-24
-29,-78,-48,53,9,-63,-14,-43,-34,-24,-9,-14
-29,-73,-43,51,7,-58,-14,-43,-29,-19,-9,-9
-24,-68,-43,46,9,-56,-14,-39,-29,-19,-4,-9
-24,-68,-43,46,9,-56,-14,-39,-29,-14,-4,-9
-19,-58,-39,39,9,-48,-14,-34,-14,-4,9,-14
-14,-58,-43,36,14,-51,-19,-34,-14,-4,9,-14
-14,-58,-43,36,14,-51,-19,-34,-9,4,9,-14
-14,-58,-43,36,14,-51,-14,-29,-9,4,14,-14
-14,-58,-43,36,14,-51,-14,-29,-9,4,4,-4
-14,-53,-39,34,12,-46,-14,-29,-4,4,4,0
-9,-53,-43,31,17,-48,-14,-24,-4,4,9,0
-4,-58,-53,31,24,-56,-14,-19,-4,4,9,0
-4,-58,-53,31,24,-56,-14,-19,0,9,19,0
-4,-58,-53,31,24,-56,-14,-19,0,9,19,0
0,-53,-53,26,26,-53,-14,-19,0,9,19,-4
0,-53,-53,26,26,-53,-14,-19,0,9,19,-4
-14,-43,-29,29,7,-36,-4,-9,0,9,19,-4
-14,-43,-29,29,7,-36,-9,-9,0,9,19,-4
-9,-43,-34,26,12,-39,-9,-4,4,9,24,-4
-9,-48,-39,29,14,-43,-4,-4,4,14,24,-4
-9,-58,-48,34,19,-53,-4,-4,4,14,14,-4
-9,-63,-53,36,21,-58,-4,-4,4,14,14,-4
-9,-63,-53,36,21,-58,-4,-4,4,14,14,-4
-9,-48,-39,29,14,-43,-4,-4,4,14,14,-4
0,-48,-48,24,24,-48,-14,-14,4,14,19,-9
4,-48,-53,21,29,-51,-14,-14,0,14,19,-9
4,-53,-58,24,31,-56,-19,-9,0,14,19,-4
4,-58,-63,26,34,-61,-19,-9,0,14,24,-4
4,-73,-78,34,41,-75,-4,0,4,24,14,-14
4,-73,-78,34,41,-75,-4,0,9,24,14,-14
4,-68,-73,31,39,-70,-4,0,9,24,9,-14
4,-63,-68,29,36,-65,-4,0,9,24,9,-19
4,-48,-53,21,29,-51,-14,-9,0,14,19,-19
9,-48,-58,19,34,-53,-9,-9,0,14,19,-14
9,-53,-63,21,36,-58,-9,-9,4,14,19,-14
4,-63,-68,29,36,-65,-14,-9,9,14,19,-14
4,-63,-68,29,36,-65,-4,0,9,24,9,-4
4,-63,-68,29,36,-65,-4,0,9,19,9,-9
4,-63,-68,29,36,-65,-4,0,9,19,9,-9
4,-48,-53,21,29,-51,-4,0,9,19,9,-9
4,-48,-53,21,29,-51,-9,0,0,9,9,-9
4,-48,-53,21,29,-51,-9,0,0,9,9,-9
4,-53,-58,24,31,-56,-14,0,0,9,4,-9
4,-53,-58,24,31,-56,-19,0,0,9,4,-4
4,-58,-63,26,34,-61,-9,0,4,19,4,-14
9,-68,-78,29,43,-73,-4,4,4,19,4,-19
9,-78,-87,34,48,-82,-4,4,4,19,4,-19
4,-63,-68,29,36,-65,-4,0,4,19,4,-24
4,-43,-48,19,26,-46,-14,0,0,19,4,-14
4,-43,-48,19,26,-46,-14,-4,0,19,4,-14
4,-34,-39,14,21,-36,-14,-4,0,14,4,-14
4,-43,-48,19,26,-46,-19,-4,0,14,4,-19
4,-58,-63,26,34,-61,-9,4,0,14,14,-9
0,-58,-58,29,29,-58,-9,4,0,14,14,-4
0,-63,-63,31,31,-63,-9,4,0,14,14,-4
4,-63,-68,29,36,-65,-9,4,0,14,9,-4
4,-53,-58,24,31,-56,-19,-4,0,9,9,-14
4,-43,-48,19,26,-46,-19,0,0,9,9,-14
4,-39,-43,17,24,-41,-19,0,0,9,9,-14
4,-34,-39,14,21,-36,-19,-4,0,9,9,-14
4,-53,-58,24,31,-56,-9,0,0,9,9,-14
4,-53,-58,24,31,-56,-9,0,4,9,9,-14
4,-58,-63,26,34,-61,-9,0,4,9,9,-14
4,-58,-63,26,34,-61,-9,0,4,9,0,-14
4,-39,-43,17,24,-41,-19,-4,4,9,9,-19
4,-39,-43,17,24,-41,-19,-4,-4,9,9,-19
0,-34,-34,17,17,-34,-14,-4,-4,9,9,-19
0,-34,-34,17,17,-34,-14,-4,-4,4,4,-19
0,-48,-48,24,24,-48,-9,-4,4,4,4,-9
0,-53,-53,26,26,-53,-9,-4,4,4,4,-9
0,-53,-53,26,26,-53,-4,-4,0,4,4,-9
0,-53,-53,26,26,-53,-4,-9,0,4,4,-9
9,-53,-63,21,36,-58,-14,-19,-4,4,4,-19
9,-39,-48,14,29,-43,-14,-14,-4,4,4,-19
9,-39,-48,14,29,-43,-14,-14,-4,4,4,-19
9,-39,-48,14,29,-43,-19,-14,-4,4,4,-24
9,-48,-58,19,34,-53,-9,-9,-4,4,4,-34
9,-53,-63,21,36,-58,-9,-14,-4,4,4,-34
9,-58,-68,24,39,-63,-14,-14,-9,0,4,-29
9,-68,-78,29,43,-73,-14,-14,-9,0,0,-29
0,-58,-58,29,29,-58,-24,-9,-4,14,0,-19
0,-43,-43,21,21,-43,-24,-9,-4,14,0,-19
4,-43,-48,19,26,-46,-24,-9,-4,9,4,-19
4,-43,-48,19,26,-46,-24,-9,-4,9,4,-19
14,-48,-63,17,39,-56,-14,-9,0,9,4,-24
9,-48,-58,19,34,-53,-14,-9,0,9,4,-24
9,-48,-58,19,34,-53,-14,-9,0,9,4,-19
9,-58,-68,24,39,-63,-14,-9,0,9,4,-19
9,-58,-68,24,39,-63,-24,-9,-9,9,4,-19
9,-48,-58,19,34,-53,-24,-9,-9,9,4,-19
9,-48,-58,19,34,-53,-19,-14,-9,9,4,-19
9,-48,-58,19,34,-53,-19,-14,-9,9,4,-19
0,-48,-48,24,24,-48,-19,-14,-4,9,4,-19
0,-58,-58,29,29,-58,-19,-14,-4,9,4,-19
0,-58,-58,29,29,-58,-19,-14,-4,9,4,-19
0,-63,-63,31,31,-63,-24,-14,-4,14,4,-19
0,-53,-53,26,26,-53,-24,-14,-14,14,4,-19
0,-48,-48,24,24,-48,-24,-14,-9,9,4,-24
0,-43,-43,21,21,-43,-24,-14,-9,9,4,-24
0,-39,-39,19,19,-39,-24,-14,-9,9,4,-19
0,-48,-48,24,24,-48,-14,-14,-4,9,4,-14
0,-53,-53,26,26,-53,-14,-14,-9,9,4,-14
0,-53,-53,26,26,-53,-19,-14,-9,9,4,-14
0,-58,-58,29,29,-58,-19,-14,-9,14,4,-14
9,-58,-68,24,39,-63,-19,-14,-4,14,4,-14
9,-58,-68,24,39,-63,-19,-14,-4,14,4,-14
14,-48,-63,17,39,-56,-19,-14,0,14,4,-14
14,-43,-58,14,36,-51,-19,-14,0,14,4,-14
9,-34,-43,12,26,-39,-19,-14,0,4,4,-14
9,-39,-48,14,29,-43,-24,-19,0,4,9,-14
9,-43,-53,17,31,-48,-24,-19,0,4,9,-14
9,-43,-53,17,31,-48,-24,-19,-4,4,9,-14
9,-48,-58,19,34,-53,-19,-19,-4,14,9,-14
9,-48,-58,19,34,-53,-19,-19,0,14,9,-14
9,-39,-48,14,29,-43,-19,-19,4,14,9,-14
9,-34,-43,12,26,-39,-19,-19,4,14,9,-19
9,-34,-43,12,26,-39,-19,-19,-9,14,0,-19
9,-34,-43,12,26,-39,-24,-19,-9,14,0,-14
9,-43,-53,17,31,-48,-24,-19,-9,14,0,-14
9,-48,-58,19,34,-53,-19,-19,-9,14,0,-14
9,-53,-63,21,36,-58,-14,-14,-9,9,9,-14
9,-53,-63,21,36,-58,-14,-9,-4,9,9,-14
9,-43,-53,17,31,-48,-14,-9,-4,9,9,-14
9,-39,-48,14,29,-43,-19,-14,-4,9,9,-14
9,-39,-48,14,29,-43,-19,-19,-9,9,4,-24
9,-39,-48,14,29,-43,-19,-19,-9,9,4,-24
9,-39,-48,14,29,-43,-19,-19,-9,9,4,-24
9,-39,-48,14,29,-43,-19,-19,-14,9,4,-24
9,-48,-58,19,34,-53,-14,-14,-4,19,4,-14
9,-48,-58,19,34,-53,-14,-14,0,19,4,-14
9,-43,-53,17,31,-48,-14,-14,4,19,4,-14
9,-39,-48,14,29,-43,-19,-19,4,19,4,-14
9,-29,-39,9,24,-34,-29,-19,-4,14,4,-19
9,-29,-39,9,24,-34,-29,-19,-9,9,4,-19
9,-29,-39,9,24,-34,-29,-19,-14,4,4,-19
9,-29,-39,9,24,-34,-29,-19,-14,0,4,-24
9,-48,-58,19,34,-53,-19,-4,-4,19,14,-14
9,-53,-63,21,36,-58,-14,-4,4,19,14,-14
14,-53,-68,19,41,-61,-14,0,4,24,14,-14
9,-39,-48,14,29,-43,-19,-9,-9,19,9,-19
9,-39,-48,14,29,-43,-19,-9,-9,9,9,-19
9,-39,-48,14,29,-43,-19,-9,-9,9,9,-19
9,-39,-48,14,29,-43,-19,-9,-9,9,9,-19
9,-39,-48,14,29,-43,-19,-9,-9,9,9,-19
9,-43,-53,17,31,-48,-19,-14,-9,19,9,-9
14,-48,-63,17,39,-56,-19,-9,-9,19,9,-9
14,-48,-63,17,39,-56,-19,-9,0,24,14,-9
14,-43,-58,14,36,-51,-19,-9,0,29,19,-9
19,-24,-43,2,31,-34,-19,-19,0,24,14,-9
19,-14,-34,-2,26,-24,-19,-14,9,24,14,-4
19,-4,-24,-7,21,-14,-14,-9,9,24,24,0
19,0,-19,-9,19,-9,-9,-9,19,24,29,0
29,9,-19,-19,24,-4,-9,-4,34,43,39,14
34,9,-24,-21,29,-7,-9,0,39,48,39,14
39,9,-29,-24,34,-9,-9,9,43,53,39,14
39,14,-24,-26,31,-4,-4,14,43,63,39,19
29,24,-4,-26,17,9,-4,14,43,58,48,29
39,29,-9,-34,24,9,-4,9,43,58,48,29
39,24,-14,-31,26,4,0,4,43,58,48,29
43,29,-14,-36,29,7,0,4,43,58,53,29
48,24,-24,-36,36,0,9,19,48,58,53,29
53,14,-39,-34,46,-12,14,24,48,58,53,29
58,9,-48,-34,53,-19,14,34,53,63,58,34
63,14,-48,-39,56,-17,14,34,58,68,63,34
68,24,-43,-46,56,-9,14,43,68,73,53,29
68,29,-39,-48,53,-4,9,48,68,78,63,34
73,34,-39,-53,56,-2,4,48,73,78,68,34
78,43,-34,-61,56,4,-9,39,78,78,73,34
82,58,-24,-70,53,17,-14,39,82,87,92,48
87,63,-24,-75,56,19,-24,34,87,92,92,58
92,63,-29,-78,61,17,-34,24,78,97,92,63
97,58,-39,-78,68,9,-34,19,73,92,87,68
97,63,-34,-80,65,14,-53,9,63,87,78,68
92,73,-19,-82,56,26,-58,0,58,82,78,68
92,82,-9,-87,51,36,-58,-4,58,82,78,68
92,92,0,-92,46,46,-58,-9,58,82,73,68
82,82,0,-82,41,41,-68,-9,53,73,73,68
82,82,0,-82,41,41,-68,-14,48,78,73,68
82,73,-9,-78,46,31,-63,-19,48,78,78,68
82,68,-14,-75,48,26,-63,-24,43,78,78,63
92,58,-34,-75,63,12,-58,-9,39,87,82,73
82,63,-19,-73,51,21,-58,-9,34,78,78,68
78,68,-9,-73,43,29,-48,-9,34,78,73,68
73,73,0,-73,36,36,-48,-9,34,82,73,68
78,63,-14,-70,46,24,-43,-9,34,73,78,68
73,53,-19,-63,46,17,-39,-9,39,68,78,68
68,43,-24,-56,46,9,-39,-9,39,68,78,58
63,39,-24,-51,43,7,-34,-9,34,58,68,53
58,34,-24,-46,41,4,-34,-9,34,58,73,48
43,29,-14,-36,29,7,-34,-19,29,53,63,39
39,29,-9,-34,24,9,-29,-19,24,53,53,34
34,24,-9,-29,21,7,-29,-19,14,53,43,24
29,4,-24,-17,26,-9,-29,-19,4,39,24,14
24,-9,-34,-7,29,-21,-24,-19,0,29,24,9
24,-14,-39,-4,31,-26,-24,-19,-4,29,19,-4
29,-24,-53,-2,41,-39,-24,-19,-9,24,14,-4
29,-29,-58,0,43,-43,-14,-19,0,19,9,-4
29,-29,-58,0,43,-43,-14,-19,-4,14,9,-9
24,-34,-58,4,41,-46,-14,-19,-4,9,9,-9
24,-34,-58,4,41,-46,-14,-19,-9,9,9,-14
14,-43,-58,14,36,-51,-14,-24,-14,0,-9,-14
14,-48,-63,17,39,-56,-14,-24,-19,0,-9,-14
14,-48,-63,17,39,-56,-14,-24,-24,0,-4,-14
14,-53,-68,19,41,-61,-14,-24,-29,0,-4,-14
19,-53,-73,17,46,-63,-24,-19,-29,-9,-4,-24
19,-53,-73,17,46,-63,-19,-19,-29,-9,-4,-24
14,-53,-68,19,41,-61,-19,-19,-29,-4,-9,-24
14,-48,-63,17,39,-56,-19,-24,-29,-4,-9,-24
9,-48,-58,19,34,-53,-24,-24,-29,0,-9,-14
9,-48,-58,19,34,-53,-24,-24,-29,0,-4,-14
9,-48,-58,19,34,-53,-19,-24,-29,0,-4,-14
4,-48,-53,21,29,-51,-19,-19,-24,0,-4,-14
4,-58,-63,26,34,-61,-14,-19,-24,0,-9,-24
9,-58,-68,24,39,-63,-14,-19,-24,0,-9,-24
9,-58,-68,24,39,-63,-19,-19,-24,4,-9,-29
9,-53,-63,21,36,-58,-19,-19,-24,4,-9,-29
0,-43,-43,21,21,-43,-9,-19,-19,4,-4,-14
0,-43,-43,21,21,-43,-9,-19,-19,4,-4,-14
0,-43,-43,21,21,-43,-9,-19,-19,4,-4,-14
0,-43,-43,21,21,-43,-4,-9,-19,9,-4,-14
9,-53,-63,21,36,-58,-4,-4,-4,9,-4,-14
14,-53,-68,19,41,-61,0,0,-4,9,0,-24
24,-53,-78,14,51,-65,0,4,0,9,0,-39
29,-48,-78,9,53,-63,4,19,19,19,0,-29
34,-34,-68,0,51,-51,19,68,53,39,24,-14
48,-34,-82,-7,65,-58,43,136,102,87,39,-14
73,-48,-122,-12,97,-85,92,229,151,112,39,-24
82,-78,-161,-2,122,-119,141,307,209,136,39,-24
73,-68,-141,-2,107,-104,175,336,268,185,68,-14
53,-29,-82,-12,68,-56,165,278,331,258,117,14
43,34,-9,-39,26,12,102,151,370,317,175,63
43,126,82,-85,-19,104,4,29,405,390,258,141
87,219,131,-153,-21,175,-78,-29,478,502,370,229
126,302,175,-214,-24,239,-126,-78,551,605,468,322
161,370,209,-265,-24,290,-190,-151,605,688,556,395
195,429,234,-312,-19,331,-273,-248,600,746,629,463
229,492,263,-361,-17,378,-385,-380,536,766,688,546
258,531,273,-395,-7,402,-488,-522,385,712,697,585
248,488,239,-368,4,363,-556,-629,141,536,595,551
219,370,151,-295,34,261,-610,-722,-151,248,395,424
151,234,82,-192,34,158,-649,-829,-448,-53,161,273
4,156,151,-80,-73,153,-692,-1044,-722,-297,-19,185
-224,170,395,26,-309,283,-751,-1356,-946,-483,-117,180
-434,180,614,126,-524,397,-814,-1629,-1141,-649,-214,151
-566,117,683,224,-624,400,-824,-1747,-1298,-805,-326,82
-595,43,639,275,-617,341,-800,-1698,-1332,-873,-400,14
-551,9,561,270,-556,285,-785,-1581,-1278,-873,-419,-14
-488,34,522,226,-505,278,-766,-1439,-1185,-814,-390,-24
-448,97,546,175,-497,322,-717,-1312,-1034,-697,-312,24
-385,151,536,117,-461,344,-649,-1141,-863,-570,-224,73
-326,161,488,82,-407,324,-551,-956,-712,-463,-170,92
-263,136,400,63,-331,268,-448,-775,-590,-395,-146,97
-234,112,346,61,-290,229,-351,-634,-492,-326,-107,87
-214,87,302,63,-258,195,-278,-507,-395,-258,-92,78
-175,68,244,53,-209,156,-214,-414,-317,-219,-87,48
-131,53,185,39,-158,119,-170,-331,-258,-190,-82,29
-102,29,131,36,-117,80,-126,-239,-200,-146,-63,24
-73,29,102,21,-87,65,-102,-180,-165,-122,-58,19
-53,19,73,17,-63,46,-78,-141,-146,-102,-58,-4
-39,-4,34,21,-36,14,-58,-102,-117,-97,-53,-14
-19,-19,0,19,-9,-9,-29,-68,-92,-78,-48,-19
-4,-43,-39,24,17,-41,-9,-34,-63,-53,-48,-19
9,-58,-68,24,39,-63,9,9,-34,-43,-39,-29
4,-58,-63,26,34,-61,14,29,-24,-29,-34,-29
9,-58,-68,24,39,-63,19,34,-9,-19,-24,-29
19,-48,-68,14,43,-58,39,43,-4,-19,-34,-39
24,-48,-73,12,48,-61,39,53,-4,-14,-34,-39
24,-53,-78,14,51,-65,39,63,0,-14,-34,-39
24,-53,-78,14,51,-65,39,68,4,-9,-29,-39
24,-68,-92,21,58,-80,48,82,9,-4,-19,-39
24,-78,-102,26,63,-90,53,87,14,-4,-19,-34
24,-78,-102,26,63,-90,53,97,14,-4,-19,-34
29,-73,-102,21,65,-87,53,97,19,0,-19,-39
19,-58,-78,19,48,-68,53,92,9,0,-19,-39
19,-58,-78,19,48,-68,58,97,9,0,-19,-39
24,-58,-82,17,53,-70,58,97,14,4,-19,-39
24,-63,-87,19,56,-75,58,102,14,4,-19,-39
34,-78,-112,21,73,-95,63,112,29,9,-24,-39
39,-78,-117,19,78,-97,63,112,29,9,-24,-39
39,-82,-122,21,80,-102,68,122,34,9,-24,-39
39,-82,-122,21,80,-102,68,122,34,14,-24,-39
39,-68,-107,14,73,-87,58,122,29,14,-24,-39
39,-58,-97,9,68,-78,58,126,29,14,-24,-39
39,-53,-92,7,65,-73,58,126,29,14,-24,-39
39,-53,-92,7,65,-73,63,131,34,14,-24,-39
39,-73,-112,17,75,-92,73,131,43,14,-14,-39
43,-78,-122,17,82,-100,73,136,43,14,-14,-39
43,-78,-122,17,82,-100,78,136,48,19,-9,-39
43,-78,-122,17,82,-100,78,141,48,19,-9,-39
43,-63,-107,9,75,-85,78,141,48,9,-9,-39
43,-63,-107,9,75,-85,78,146,48,9,-9,-39
43,-63,-107,9,75,-85,78,146,48,9,-9,-39
43,-58,-102,7,73,-80,82,146,53,14,-9,-39
48,-68,-117,9,82,-92,82,151,53,24,-9,-39
48,-73,-122,12,85,-97,82,151,53,24,-9,-43
48,-73,-122,12,85,-97,82,161,58,24,-9,-43
48,-73,-122,12,85,-97,87,161,58,24,-9,-43
39,-63,-102,12,70,-82,87,161,58,34,-19,-43
39,-63,-102,12,70,-82,87,161,58,34,-19,-43
39,-58,-97,9,68,-78,87,165,63,34,-19,-43
43,-58,-102,7,73,-80,87,165,63,39,-19,-48
43,-63,-107,9,75,-85,92,165,63,29,-19,-48
43,-68,-112,12,78,-90,92,175,68,29,-14,-43
43,-73,-117,14,80,-95,92,175,68,29,-14,-43
48,-78,-126,14,87,-102,97,175,68,34,-19,-43
48,-78,-126,14,87,-102,97,175,68,34,-9,-43
48,-73,-122,12,85,-97,97,180,68,34,-9,-43
48,-63,-112,7,80,-87,97,185,68,34,-9,-43
48,-58,-107,4,78,-82,97,185,73,34,-9,-43
58,-63,-122,2,90,-92,97,190,82,43,-9,-39
58,-73,-131,7,95,-102,102,190,82,43,-9,-39
58,-78,-136,9,97,-107,102,190,87,48,-9,-34
58,-82,-141,12,100,-112,107,195,87,48,-9,-34
63,-73,-136,4,100,-104,107,195,78,39,-14,-34
63,-73,-136,4,100,-104,107,195,82,39,-14,-34
63,-73,-136,4,100,-104,107,200,82,39,-14,-34
63,-73,-136,4,100,-104,107,200,82,39,-14,-34
63,-82,-146,9,104,-114,122,204,82,39,-14,-43
63,-82,-146,9,104,-114,122,204,87,39,-14,-43
63,-78,-141,7,102,-109,122,209,87,43,-14,-43
63,-78,-141,7,102,-109,122,214,92,43,-14,-43
63,-68,-131,2,97,-100,126,224,102,53,-4,-34
63,-78,-141,7,102,-109,126,224,102,53,-4,-34
63,-78,-141,7,102,-109,126,224,102,53,-4,-34
63,-73,-136,4,100,-104,131,229,102,53,-4,-34
63,-78,-141,7,102,-109,131,219,107,43,-4,-34
63,-78,-141,7,102,-109,131,219,107,43,-4,-34
63,-78,-141,7,102,-109,131,224,107,48,-4,-34
63,-73,-136,4,100,-104,131,224,107,48,-4,-34
53,-73,-126,9,90,-100,136,234,112,58,-4,-43
53,-78,-131,12,92,-104,136,239,112,58,-4,-43
53,-82,-136,14,95,-109,136,239,112,58,-4,-43
53,-82,-136,14,95,-109,141,239,117,58,-4,-43
58,-68,-126,4,92,-97,141,234,117,48,-14,-34
58,-68,-126,4,92,-97,141,234,117,48,-14,-34
58,-68,-126,4,92,-97,141,239,117,48,-14,-39
53,-68,-122,7,87,-95,141,244,122,48,-14,-39
53,-73,-126,9,90,-100,151,253,122,48,-4,-48
53,-73,-126,9,90,-100,156,253,126,53,-4,-48
53,-73,-126,9,90,-100,161,253,126,53,-4,-48
53,-68,-122,7,87,-95,161,253,126,53,-4,-48
53,-63,-117,4,85,-90,151,248,126,53,-14,-48
53,-63,-117,4,85,-90,151,248,126,53,-14,-48
53,-63,-117,4,85,-90,156,248,126,53,-14,-53
53,-63,-117,4,85,-90,156,253,126,53,-14,-53
48,-78,-126,14,87,-102,161,253,126,63,-4,-43
48,-78,-126,14,87,-102,161,253,131,63,-4,-43
48,-82,-131,17,90,-107,165,253,131,63,-4,-43
48,-82,-131,17,90,-107,165,258,131,63,-4,-43
39,-73,-112,17,75,-92,165,258,122,53,-19,-43
39,-68,-107,14,73,-87,170,258,122,48,-19,-43
43,-68,-112,12,78,-90,170,258,122,48,-19,-48
43,-68,-112,12,78,-90,170,263,122,48,-19,-48
34,-73,-107,19,70,-90,190,273,126,58,-19,-58
34,-73,-107,19,70,-90,190,273,131,58,-24,-58
34,-73,-107,19,70,-90,190,273,136,58,-24,-58
34,-73,-107,19,70,-90,195,273,146,53,-24,-58
34,-58,-92,12,63,-75,185,273,141,43,-24,-63
29,-58,-87,14,58,-73,185,268,131,43,-29,-63
29,-58,-87,14,58,-73,185,258,126,43,-29,-63
24,-58,-82,17,53,-70,190,253,122,39,-29,-63
29,-68,-97,19,63,-82,190,263,131,48,-34,-68
24,-73,-97,24,61,-85,195,263,131,48,-34,-68
19,-73,-92,26,56,-82,195,263,131,48,-34,-68
19,-73,-92,26,56,-82,200,263,131,39,-43,-68
19,-63,-82,21,51,-73,200,253,122,29,-34,-73
19,-58,-78,19,48,-68,200,248,122,29,-39,-78
14,-58,-73,21,43,-65,204,248,122,24,-39,-78
9,-58,-68,24,39,-63,204,244,122,24,-39,-78
9,-63,-73,26,41,-68,209,253,131,29,-43,-68
4,-68,-73,31,39,-70,209,253,131,29,-43,-68
0,-73,-73,36,36,-73,209,248,126,29,-43,-68
-4,-82,-78,43,36,-80,214,244,122,24,-43,-68
-19,-68,-48,43,14,-58,214,244,122,9,-58,-82
-24,-63,-39,43,7,-51,214,239,117,4,-63,-82
-24,-58,-34,41,4,-46,219,234,112,0,-63,-82
-29,-53,-24,41,-2,-39,219,229,112,-4,-63,-82
-34,-58,-24,46,-4,-41,229,234,112,4,-58,-73
-39,-68,-29,53,-4,-48,229,234,112,0,-63,-73
-43,-73,-29,58,-7,-51,229,229,107,-4,-68,-78
-48,-73,-24,61,-12,-48,229,224,102,-4,-73,-78
-43,-68,-24,56,-9,-46,219,204,92,-9,-73,-87
-48,-58,-9,53,-19,-34,209,200,92,-14,-78,-87
-53,-48,4,51,-29,-21,200,195,92,-19,-82,-87
-58,-43,14,51,-36,-14,200,185,92,-24,-82,-87
-63,-48,14,56,-39,-17,209,185,92,-29,-73,-78
-68,-53,14,61,-41,-19,209,175,92,-29,-82,-78
-73,-58,14,65,-43,-21,200,165,87,-34,-82,-78
-73,-53,19,63,-46,-17,195,161,82,-34,-82,-78
-73,-43,29,58,-51,-7,190,141,73,-43,-82,-78
-78,-39,39,58,-58,0,180,131,63,-48,-92,-78
-87,-29,58,58,-73,14,170,117,58,-48,-92,-78
-87,-19,68,53,-78,24,170,107,53,-53,-92,-78
-97,-24,73,61,-85,24,165,102,58,-58,-92,-78
-97,-24,73,61,-85,24,151,87,53,-63,-97,-78
-102,-29,73,65,-87,21,146,78,43,-68,-97,-78
-102,-29,73,65,-87,21,136,68,43,-73,-97,-78
-107,-24,82,65,-95,29,126,48,29,-68,-107,-73
-107,-19,87,63,-97,34,117,39,19,-73,-112,-73
-107,-14,92,61,-100,39,112,24,9,-78,-112,-78
-107,-4,102,56,-104,48,102,14,9,-82,-112,-78
-107,-9,97,58,-102,43,97,4,0,-87,-112,-68
-107,-4,102,56,-104,48,92,-4,-4,-92,-112,-68
-112,-19,92,65,-102,36,92,-9,-9,-92,-112,-68
-112,-29,82,70,-97,26,78,-19,-14,-92,-122,-68
-117,-24,92,70,-104,34,68,-29,-29,-107,-122,-78
-117,-19,97,68,-107,39,68,-34,-39,-107,-122,-78
-117,-14,102,65,-109,43,63,-43,-43,-107,-117,-78
-107,-14,92,61,-100,39,58,-43,-43,-112,-117,-78
-92,-24,68,58,-80,21,48,-58,-48,-112,-126,-87
-92,-19,73,56,-82,26,43,-63,-53,-112,-126,-82
-92,-19,73,56,-82,26,43,-68,-53,-112,-122,-82
-87,-19,68,53,-78,24,39,-68,-53,-107,-117,-78
-92,-9,82,51,-87,36,24,-68,-53,-107,-112,-78
-87,0,87,43,-87,43,19,-73,-53,-107,-107,-73
-82,-9,73,46,-78,31,14,-73,-53,-97,-102,-73
-82,-9,73,46,-78,31,9,-73,-53,-92,-97,-73
-68,-9,58,39,-63,24,4,-73,-53,-92,-102,-58
-63,-9,53,36,-58,21,0,-73,-53,-87,-97,-58
-58,-9,48,34,-53,19,0,-73,-53,-82,-92,-48
-53,-9,43,31,-48,17,0,-68,-48,-78,-87,-43
-48,0,48,24,-48,24,-4,-78,-48,-73,-78,-48
-43,14,58,14,-51,36,-4,-78,-48,-63,-68,-39
-43,14,58,14,-51,36,-4,-78,-48,-53,-63,-34
-39,14,53,12,-46,34,-4,-73,-48,-48,-58,-34
-34,14,48,9,-41,31,-4,-63,-43,-48,-53,-34
-29,14,43,7,-36,29,-9,-63,-39,-43,-53,-34
-24,14,39,4,-31,26,-9,-58,-39,-39,-48,-34
-19,14,34,2,-26,24,-9,-53,-39,-34,-43,-34
-4,24,29,-9,-17,26,-9,-53,-34,-29,-39,-29
-4,29,34,-12,-19,31,-14,-53,-34,-29,-39,-24
-4,29,34,-12,-19,31,-14,-48,-29,-29,-29,-24
-4,29,34,-12,-19,31,-14,-48,-24,-24,-29,-24
0,29,29,-14,-14,29,-14,-43,-24,-24,-29,-24
0,34,34,-17,-17,34,-14,-43,-19,-19,-29,-19
4,39,34,-21,-14,36,-14,-39,-19,-19,-24,-19
4,39,34,-21,-14,36,-14,-39,-19,-14,-24,-19
9,39,29,-24,-9,34,-14,-34,-4,-4,-19,-14
14,39,24,-26,-4,31,-19,-34,-4,-4,-19,-14
14,39,24,-26,-4,31,-19,-34,0,4,-19,-14
14,39,24,-26,-4,31,-14,-29,0,4,-14,-14
14,43,29,-29,-7,36,-14,-29,-9,-4,-14,-24
14,53,39,-34,-12,46,-14,-29,-4,-4,-14,-19
19,58,39,-39,-9,48,-14,-24,-4,-4,-9,-19
24,58,34,-41,-4,46,-14,-19,-4,-4,-9,-19
24,58,34,-41,-4,46,-14,-19,0,9,-9,-19
24,58,34,-41,-4,46,-14,-19,0,9,-9,-19
29,63,34,-46,-2,48,-14,-19,0,9,-9,-24
29,63,34,-46,-2,48,-14,-19,0,9,-9,-24
34,73,39,-53,-2,56,-24,-29,-9,0,-19,-24
34,73,39,-53,-2,56,-29,-29,-9,0,-19,-24
39,73,34,-56,2,53,-29,-24,-4,0,-14,-24
39,68,29,-53,4,48,-24,-24,-4,4,-14,-24
39,58,19,-48,9,39,-24,-14,-4,4,-14,-24
39,53,14,-46,12,34,-24,-14,-4,4,-14,-24
39,53,14,-46,12,34,-24,-14,-4,4,-14,-24
39,68,29,-53,4,48,-24,-14,-4,4,-14,-24
39,73,34,-56,2,53,-24,-24,-4,-4,-19,-39
43,78,34,-61,4,56,-24,-24,-9,-4,-19,-39
43,78,34,-61,4,56,-29,-19,-9,-4,-19,-34
43,78,34,-61,4,56,-29,-19,-9,-4,-14,-34
43,73,29,-58,7,51,-24,-19,-4,4,-24,-34
43,73,29,-58,7,51,-24,-19,0,4,-24,-34
43,78,34,-61,4,56,-24,-19,0,4,-29,-34
43,82,39,-63,2,61,-24,-19,0,4,-29,-39
43,97,53,-70,-4,75,-29,-19,-19,-4,-29,-39
48,97,48,-73,0,73,-29,-19,-19,-4,-29,-34
48,92,43,-70,2,68,-34,-19,-14,-4,-29,-34
43,82,39,-63,2,61,-43,-19,-9,-4,-29,-34
43,82,39,-63,2,61,-34,-19,-9,-4,-29,-43
43,82,39,-63,2,61,-34,-19,-9,-9,-29,-48
43,82,39,-63,2,61,-34,-19,-9,-9,-29,-48
43,97,53,-70,-4,75,-34,-19,-9,-9,-29,-48
43,102,58,-73,-7,80,-34,-29,-19,-19,-29,-48
43,107,63,-75,-9,85,-39,-29,-19,-19,-29,-48
43,107,63,-75,-9,85,-48,-29,-19,-19,-34,-48
43,112,68,-78,-12,90,-58,-29,-19,-19,-34,-43
43,117,73,-80,-14,95,-48,-29,-14,-19,-34,-43
48,107,58,-78,-4,82,-43,-24,-14,-19,-34,-48
48,97,48,-73,0,73,-43,-24,-14,-19,-34,-48
43,112,68,-78,-12,90,-43,-29,-14,-19,-34,-53
43,122,78,-82,-17,100,-43,-39,-29,-19,-43,-53
43,122,78,-82,-17,100,-43,-43,-29,-19,-43,-53
43,131,87,-87,-21,109,-43,-43,-29,-24,-43,-53
43,122,78,-82,-17,100,-48,-43,-29,-24,-43,-58
43,117,73,-80,-14,95,-48,-34,-19,-24,-43,-58
39,117,78,-78,-19,97,-48,-34,-19,-24,-43,-53
39,112,73,-75,-17,92,-48,-34,-19,-24,-43,-53
43,112,68,-78,-12,90,-48,-34,-19,-24,-48,-53
43,126,82,-85,-19,104,-48,-43,-24,-29,-48,-53
43,131,87,-87,-21,109,-48,-39,-29,-29,-48,-53
43,131,87,-87,-21,109,-48,-39,-34,-29,-48,-53
43,131,87,-87,-21,109,-48,-43,-39,-29,-48,-53
34,122,87,-78,-26,104,-48,-39,-29,-19,-39,-53
34,122,87,-78,-26,104,-48,-39,-24,-19,-39,-53
34,117,82,-75,-24,100,-48,-39,-24,-19,-39,-53
34,117,82,-75,-24,100,-48,-39,-24,-19,-48,-53
39,136,97,-87,-29,117,-58,-43,-34,-29,-48,-58
43,136,92,-90,-24,114,-58,-43,-43,-29,-48,-58
43,141,97,-92,-26,119,-53,-43,-43,-29,-48,-58
48,141,92,-95,-21,117,-53,-43,-43,-34,-53,-58
48,126,78,-87,-14,102,-58,-43,-34,-34,-53,-58
48,122,73,-85,-12,97,-58,-43,-34,-34,-53,-58
48,122,73,-85,-12,97,-53,-43,-39,-34,-53,-58
48,122,73,-85,-12,97,-53,-48,-39,-34,-53,-58
48,122,73,-85,-12,97,-53,-48,-34,-43,-53,-58
48,136,87,-92,-19,112,-53,-43,-34,-43,-53,-58
48,136,87,-92,-19,112,-53,-43,-34,-43,-53,-58
48,136,87,-92,-19,112,-58,-43,-34,-43,-53,-63
48,126,78,-87,-14,102,-48,-39,-34,-34,-53,-63
48,122,73,-85,-12,97,-48,-43,-34,-34,-53,-63
48,117,68,-82,-9,92,-53,-43,-39,-39,-53,-58
48,107,58,-78,-4,82,-53,-43,-39,-39,-58,-58
48,117,68,-82,-9,92,-53,-48,-34,-34,-48,-58
48,131,82,-90,-17,107,-53,-48,-34,-34,-48,-58
53,131,78,-92,-12,104,-53,-48,-34,-39,-43,-58
53,131,78,-92,-12,104,-53,-48,-34,-39,-43,-58
43,117,73,-80,-14,95,-53,-39,-39,-39,-43,-53
39,117,78,-78,-19,97,-53,-39,-39,-39,-43,-53
39,117,78,-78,-19,97,-53,-39,-39,-39,-43,-48
39,107,68,-73,-14,87,-53,-39,-39,-39,-43,-48
48,107,58,-78,-4,82,-53,-39,-39,-39,-43,-48
48,117,68,-82,-9,92,-53,-39,-39,-39,-43,-48
48,117,68,-82,-9,92,-48,-43,-39,-39,-43,-48
48,117,68,-82,-9,92,-48,-43,-39,-39,-43,-48
39,117,78,-78,-19,97,-58,-43,-34,-39,-43,-48
39,107,68,-73,-14,87,-58,-43,-34,-39,-43,-48
39,107,68,-73,-14,87,-58,-43,-34,-39,-43,-48
39,102,63,-70,-12,82,-63,-43,-34,-34,-43,-48
39,92,53,-65,-7,73,-53,-34,-43,-24,-43,-39
39,97,58,-68,-9,78,-53,-34,-39,-29,-43,-43
39,102,63,-70,-12,82,-53,-34,-39,-29,-43,-43
39,107,68,-73,-14,87,-53,-34,-39,-29,-43,-39
39,107,68,-73,-14,87,-53,-43,-39,-29,-43,-43
39,102,63,-70,-12,82,-53,-43,-39,-29,-43,-43
39,102,63,-70,-12,82,-58,-43,-34,-29,-43,-43
39,97,58,-68,-9,78,-58,-43,-29,-24,-43,-43
39,97,58,-68,-9,78,-48,-34,-34,-24,-34,-43
39,97,58,-68,-9,78,-48,-34,-34,-24,-34,-43
43,107,63,-75,-9,85,-48,-34,-29,-24,-34,-43
43,112,68,-78,-12,90,-48,-34,-29,-24,-34,-43
39,112,73,-75,-17,92,-48,-34,-39,-34,-43,-43
39,107,68,-73,-14,87,-53,-39,-39,-34,-39,-43
39,102,63,-70,-12,82,-53,-39,-39,-34,-39,-43
39,102,63,-70,-12,82,-53,-39,-43,-34,-39,-43
39,92,53,-65,-7,73,-48,-39,-34,-24,-39,-43
39,87,48,-63,-4,68,-48,-39,-29,-24,-39,-43
39,92,53,-65,-7,73,-48,-39,-24,-24,-39,-43
39,92,53,-65,-7,73,-48,-39,-24,-24,-39,-48
39,102,63,-70,-12,82,-48,-39,-29,-34,-39,-39
39,102,63,-70,-12,82,-53,-39,-29,-34,-39,-34
39,92,53,-65,-7,73,-53,-39,-29,-34,-39,-34
39,87,48,-63,-4,68,-48,-39,-29,-34,-39,-34
39,82,43,-61,-2,63,-43,-43,-29,-19,-39,-43
39,82,43,-61,-2,63,-43,-39,-24,-19,-39,-43
39,92,53,-65,-7,73,-43,-39,-24,-19,-39,-43
39,97,58,-68,-9,78,-48,-43,-24,-19,-39,-43
39,87,48,-63,-4,68,-58,-39,-39,-29,-34,-43
39,87,48,-63,-4,68,-58,-39,-39,-29,-34,-43
39,87,48,-63,-4,68,-58,-39,-39,-29,-34,-43
39,87,48,-63,-4,68,-58,-39,-43,-29,-34,-43
39,68,29,-53,4,48,-43,-34,-34,-19,-34,-43
39,68,29,-53,4,48,-43,-34,-29,-19,-34,-43
39,73,34,-56,2,53,-43,-34,-24,-19,-34,-43
39,78,39,-58,0,58,-48,-39,-24,-19,-34,-43
48,87,39,-68,4,63,-48,-39,-24,-19,-43,-48
48,97,48,-73,0,73,-48,-39,-39,-29,-43,-39
48,97,48,-73,0,73,-48,-39,-34,-29,-43,-39
48,87,39,-68,4,63,-48,-48,-34,-19,-43,-34
48,78,29,-63,9,53,-48,-39,-39,-19,-39,-39
39,78,39,-58,0,58,-48,-39,-29,-19,-39,-39
39,78,39,-58,0,58,-48,-39,-29,-19,-39,-39
39,78,39,-58,0,58,-48,-39,-29,-19,-39,-39
39,78,39,-58,0,58,-48,-39,-29,-19,-39,-39
39,87,48,-63,-4,68,-48,-43,-39,-29,-39,-39
43,87,43,-65,0,65,-48,-39,-39,-29,-39,-39
43,92,48,-68,-2,70,-48,-39,-29,-24,-34,-39
43,102,58,-73,-7,80,-48,-39,-29,-19,-29,-39
58,112,53,-85,2,82,-48,-29,-29,-14,-34,-29
58,112,53,-85,2,82,-48,-24,-19,-14,-34,-24
58,112,53,-85,2,82,-43,-19,-19,-14,-24,-19
58,107,48,-82,4,78,-39,-19,-9,-14,-19,-19
58,126,68,-92,-4,97,-39,-29,4,-4,-9,-14
63,136,73,-100,-4,104,-39,-29,9,0,-9,-14
68,146,78,-107,-4,112,-39,-24,14,4,-9,-14
68,161,92,-114,-12,126,-34,-24,14,14,-9,-9
58,156,97,-107,-19,126,-34,-9,24,29,0,0
68,156,87,-112,-9,122,-34,-9,24,29,0,0
68,146,78,-107,-4,112,-29,-9,24,29,0,0
73,146,73,-109,0,109,-29,-4,24,29,4,0
68,156,87,-112,-9,122,-29,-9,19,19,4,-9
73,151,78,-112,-2,114,-24,-4,19,19,4,-9
78,151,73,-114,2,112,-24,4,24,24,9,-4
82,161,78,-122,2,119,-24,4,29,29,14,-4
97,165,68,-131,14,117,-29,9,39,34,14,-4
97,165,68,-131,14,117,-29,19,39,39,24,4
102,165,63,-134,19,114,-29,24,43,39,29,9
107,170,63,-139,21,117,-39,19,48,39,34,14
117,185,68,-151,24,126,-48,4,53,48,53,34
117,200,82,-158,17,141,-63,-4,58,53,53,39
117,209,92,-163,12,151,-78,-19,48,58,53,39
117,214,97,-165,9,156,-82,-29,43,53,48,39
117,209,92,-163,12,151,-97,-34,34,58,48,39
112,209,97,-161,7,153,-97,-39,29,53,48,39
112,209,97,-161,7,153,-92,-39,29,53,48,39
112,209,97,-161,7,153,-87,-39,29,53,43,39
112,219,107,-165,2,163,-92,-48,14,39,34,39
112,219,107,-165,2,163,-97,-53,9,39,34,39
112,209,97,-161,7,153,-97,-58,9,34,39,39
112,204,92,-158,9,148,-102,-63,4,29,39,34
112,190,78,-151,17,134,-87,-48,9,29,34,34
102,190,87,-146,7,139,-87,-48,4,19,29,29
97,190,92,-143,2,141,-78,-48,4,19,24,29
92,190,97,-141,-2,143,-78,-48,4,24,24,29
87,200,112,-143,-12,156,-82,-48,-4,24,29,19
82,190,107,-136,-12,148,-78,-48,0,19,29,19
78,180,102,-129,-12,141,-78,-48,0,19,29,9
73,175,102,-124,-14,139,-73,-48,-4,9,19,4
58,156,97,-107,-19,126,-63,-39,-9,9,24,9
43,146,102,-95,-29,124,-63,-48,-9,4,14,0
39,141,102,-90,-31,122,-58,-48,-9,4,4,-4
34,131,97,-82,-31,114,-58,-48,-14,4,-4,-14
24,126,102,-75,-39,114,-68,-58,-24,-4,-24,-24
14,117,102,-65,-43,109,-63,-58,-29,-19,-24,-29
9,117,107,-63,-48,112,-63,-58,-34,-24,-29,-43
9,112,102,-61,-46,107,-63,-58,-39,-34,-34,-43
9,97,87,-53,-39,92,-53,-58,-39,-39,-39,-43
9,97,87,-53,-39,92,-53,-58,-43,-43,-39,-48
4,92,87,-48,-41,90,-53,-58,-43,-48,-39,-48
4,92,87,-48,-41,90,-53,-58,-48,-48,-39,-53
4,102,97,-53,-46,100,-63,-63,-48,-48,-48,-53
4,97,92,-51,-43,95,-63,-63,-48,-48,-48,-53
4,97,92,-51,-43,95,-63,-63,-48,-48,-43,-53
4,92,87,-48,-41,90,-63,-63,-48,-48,-43,-53
9,82,73,-46,-31,78,-63,-68,-58,-48,-53,-53
9,82,73,-46,-31,78,-58,-68,-58,-48,-53,-53
4,82,78,-43,-36,80,-58,-68,-58,-43,-58,-53
4,87,82,-46,-39,85,-58,-73,-58,-43,-58,-53
0,97,97,-48,-48,97,-63,-63,-58,-48,-58,-53
0,97,97,-48,-48,97,-63,-63,-58,-48,-53,-53
0,97,97,-48,-48,97,-58,-63,-58,-48,-53,-53
-4,97,102,-46,-53,100,-58,-58,-53,-48,-53,-53
4,87,82,-46,-39,85,-53,-68,-53,-58,-48,-53
9,87,78,-48,-34,82,-53,-68,-53,-58,-48,-53
9,87,78,-48,-34,82,-58,-68,-53,-53,-48,-58
9,92,82,-51,-36,87,-58,-68,-53,-53,-48,-58
0,92,92,-46,-46,92,-58,-68,-58,-53,-53,-53
0,92,92,-46,-46,92,-58,-68,-58,-53,-53,-53
0,92,92,-46,-46,92,-58,-68,-58,-53,-53,-53
0,92,92,-46,-46,92,-53,-58,-58,-48,-53,-53
9,112,102,-61,-46,107,-53,-63,-53,-48,-53,-63
14,102,87,-58,-36,95,-48,-48,-43,-48,-48,-63
14,92,78,-53,-31,85,-48,-24,-29,-39,-48,-58
29,87,58,-58,-14,73,-34,0,-9,-19,-39,-58
43,102,58,-73,-7,80,-19,58,34,9,-24,-53
58,102,43,-80,7,73,14,136,82,39,-9,-53
73,87,14,-80,29,51,63,239,112,63,-9,-63
82,87,4,-85,39,46,102,307,161,87,0,-63
82,117,34,-100,24,75,117,307,229,136,39,-43
63,156,92,-109,-14,124,97,229,283,200,87,-4
43,219,175,-131,-65,197,34,102,312,268,156,53
63,283,219,-173,-78,251,-53,-9,366,361,248,131
117,366,248,-241,-65,307,-126,-68,419,453,351,219
165,439,273,-302,-53,356,-185,-136,483,546,439,292
200,517,317,-358,-58,417,-258,-209,517,619,517,366
234,605,370,-419,-68,488,-361,-346,492,649,580,444
258,678,419,-468,-80,549,-492,-527,400,639,619,507
258,678,419,-468,-80,549,-585,-668,209,536,580,517
239,595,356,-417,-58,475,-634,-775,-53,312,419,424
200,439,239,-319,-19,339,-658,-858,-336,14,200,287
92,322,229,-207,-68,275,-697,-1015,-605,-248,-4,165
-131,302,434,-85,-283,368,-732,-1278,-819,-434,-126,117
-390,336,727,26,-558,531,-790,-1600,-1005,-580,-195,122
-580,336,917,122,-749,627,-844,-1834,-1161,-727,-292,82
-673,292,966,190,-819,629,-844,-1893,-1259,-844,-385,14
-663,229,893,217,-778,561,-819,-1786,-1263,-873,-429,-34
-600,204,805,197,-702,505,-805,-1639,-1220,-863,-439,-63
-536,229,766,153,-651,497,-785,-1517,-1117,-805,-400,-53
-478,292,771,92,-624,531,-736,-1361,-956,-678,-312,4
-414,326,741,43,-578,534,-649,-1171,-785,-541,-224,53
-346,317,663,14,-505,490,-551,-966,-673,-463,-190,53
-283,302,585,-9,-434,444,-468,-805,-570,-414,-175,29
-234,287,522,-26,-378,405,-380,-663,-463,-336,-136,39
-214,283,497,-34,-356,390,-307,-546,-385,-287,-122,29
-175,253,429,-39,-302,341,-253,-444,-326,-248,-117,9
-131,219,351,-43,-241,285,-200,-351,-268,-209,-112,-9
-82,195,278,-56,-180,236,-165,-278,-219,-185,-102,-24
-63,175,239,-56,-151,207,-141,-219,-185,-161,-97,-39
-53,156,209,-51,-131,183,-117,-170,-165,-141,-97,-53
-39,141,180,-51,-109,161,-97,-131,-136,-136,-102,-63
-19,146,165,-63,-92,156,-87,-97,-122,-126,-97,-78
-14,131,146,-58,-80,139,-68,-63,-102,-112,-97,-87
0,126,126,-63,-63,126,-48,-39,-92,-102,-87,-78
4,117,112,-61,-53,114,-43,-19,-73,-87,-82,-68
9,107,97,-58,-43,102,-29,4,-58,-78,-73,-68
9,97,87,-53,-39,92,-19,14,-53,-68,-82,-78
14,97,82,-56,-34,90,-19,24,-53,-63,-82,-78
14,92,78,-53,-31,85,-19,34,-48,-63,-82,-78
14,92,78,-53,-31,85,-19,39,-43,-58,-78,-78
14,92,78,-53,-31,85,-19,34,-48,-58,-78,-87
14,87,73,-51,-29,80,-14,39,-43,-63,-78,-82
14,92,78,-53,-31,85,-14,48,-43,-68,-78,-82
19,102,82,-61,-31,92,-14,48,-39,-68,-78,-87
29,97,68,-63,-19,82,-4,53,-29,-58,-78,-87
29,97,68,-63,-19,82,0,58,-29,-58,-78,-87
34,97,63,-65,-14,80,0,58,-24,-53,-78,-87
34,92,58,-63,-12,75,0,63,-24,-53,-78,-87
34,92,58,-63,-12,75,4,63,-29,-58,-73,-87
39,97,58,-68,-9,78,4,63,-29,-58,-73,-87
39,97,58,-68,-9,78,9,73,-24,-58,-73,-87
39,102,63,-70,-12,82,9,73,-24,-53,-73,-87
39,102,63,-70,-12,82,9,82,-19,-53,-73,-87
39,107,68,-73,-14,87,9,87,-19,-53,-73,-87
39,107,68,-73,-14,87,9,87,-19,-53,-73,-87
39,102,63,-70,-12,82,14,92,-14,-53,-73,-87
39,107,68,-73,-14,87,14,82,-14,-53,-82,-87
43,107,63,-75,-9,85,14,87,-14,-53,-82,-87
43,112,68,-78,-12,90,19,87,-9,-48,-78,-87
43,117,73,-80,-14,95,19,92,-9,-48,-78,-87
43,117,73,-80,-14,95,19,92,-9,-48,-68,-87
43,112,68,-78,-12,90,19,97,-9,-48,-68,-87
43,107,63,-75,-9,85,19,97,-9,-48,-68,-87
43,107,63,-75,-9,85,24,97,-4,-43,-68,-87
39,112,73,-75,-17,92,14,92,-4,-53,-78,-87
39,112,73,-75,-17,92,14,92,-4,-53,-78,-92
39,117,78,-78,-19,97,14,102,0,-53,-78,-92
39,122,82,-80,-21,102,19,102,0,-53,-78,-92
48,112,63,-80,-7,87,29,112,0,-43,-68,-92
48,112,63,-80,-7,87,29,112,0,-43,-68,-92
48,117,68,-82,-9,92,29,117,4,-43,-68,-92
53,117,63,-85,-4,90,29,117,4,-39,-68,-97
53,126,73,-90,-9,100,24,107,-4,-48,-78,-97
53,126,73,-90,-9,100,24,117,0,-48,-73,-92
53,126,73,-90,-9,100,24,117,0,-48,-73,-92
58,126,68,-92,-4,97,29,117,0,-43,-78,-92
58,112,53,-85,2,82,39,126,9,-43,-78,-92
58,112,53,-85,2,82,39,131,9,-43,-78,-92
58,117,58,-87,0,87,39,136,9,-43,-78,-92
58,117,58,-87,0,87,39,136,14,-43,-78,-92
48,126,78,-87,-14,102,39,141,4,-34,-68,-97
48,122,73,-85,-12,97,43,141,4,-34,-68,-97
48,122,73,-85,-12,97,43,141,9,-29,-68,-92
48,122,73,-85,-12,97,48,146,9,-29,-68,-92
63,112,48,-87,7,80,48,146,9,-39,-73,-102
63,112,48,-87,7,80,48,146,14,-39,-73,-102
63,112,48,-87,7,80,48,151,14,-39,-73,-102
63,112,48,-87,7,80,48,151,14,-39,-73,-102
63,117,53,-90,4,85,43,146,24,-29,-63,-92
63,122,58,-92,2,90,43,146,29,-29,-63,-92
63,131,68,-97,-2,100,43,151,29,-24,-63,-92
63,136,73,-100,-4,104,43,156,34,-24,-63,-92
53,126,73,-90,-9,100,48,165,34,-24,-73,-92
53,117,63,-85,-4,90,48,165,34,-24,-73,-92
53,117,63,-85,-4,90,48,165,34,-24,-73,-92
53,122,68,-87,-7,95,53,170,34,-24,-73,-92
63,136,73,-100,-4,104,53,161,29,-24,-63,-92
63,136,73,-100,-4,104,53,161,29,-24,-63,-92
63,136,73,-100,-4,104,53,165,29,-19,-63,-92
63,141,78,-102,-7,109,53,165,29,-19,-63,-92
53,141,87,-97,-17,114,58,165,43,-19,-73,-92
53,136,82,-95,-14,109,58,170,43,-19,-73,-92
53,131,78,-92,-12,104,58,170,43,-19,-73,-92
53,131,78,-92,-12,104,63,170,48,-19,-73,-92
58,141,82,-100,-12,112,53,165,43,-29,-73,-102
58,146,87,-102,-14,117,53,165,39,-29,-73,-102
58,151,92,-104,-17,122,53,170,34,-29,-73,-107
53,156,102,-104,-24,129,53,175,34,-29,-73,-107
53,161,107,-107,-26,134,63,185,43,-29,-73,-107
53,161,107,-107,-26,134,68,185,48,-24,-73,-107
53,161,107,-107,-26,134,73,185,48,-24,-73,-107
53,165,112,-109,-29,139,73,185,48,-24,-73,-107
63,170,107,-117,-21,139,73,180,39,-34,-82,-117
63,170,107,-117,-21,139,73,180,39,-34,-82,-117
63,170,107,-117,-21,139,78,180,39,-34,-82,-122
63,170,107,-117,-21,139,78,185,39,-34,-82,-122
58,175,117,-117,-29,146,73,175,39,-34,-82,-112
58,175,117,-117,-29,146,73,175,43,-34,-82,-112
58,170,112,-114,-26,141,78,175,43,-34,-82,-112
58,170,112,-114,-26,141,78,180,43,-34,-82,-112
48,180,131,-114,-41,156,78,190,43,-34,-87,-122
48,185,136,-117,-43,161,82,190,43,-39,-87,-122
53,185,131,-119,-39,158,82,190,43,-39,-87,-126
53,185,131,-119,-39,158,82,195,43,-39,-87,-126
43,185,141,-114,-48,163,82,195,34,-39,-87,-126
43,190,146,-117,-51,168,82,195,34,-39,-92,-126
43,195,151,-119,-53,173,82,195,34,-39,-92,-126
43,200,156,-122,-56,178,87,195,39,-43,-92,-126
43,195,151,-119,-53,173,87,190,39,-43,-102,-131
39,195,156,-117,-58,175,87,190,34,-43,-107,-131
39,195,156,-117,-58,175,87,185,34,-43,-107,-131
34,195,161,-114,-63,178,92,185,34,-48,-107,-131
19,200,180,-109,-80,190,92,185,34,-58,-102,-136
14,200,185,-107,-85,192,97,185,34,-58,-102,-136
9,204,195,-107,-92,200,97,185,34,-58,-102,-136
9,209,200,-109,-95,204,102,185,34,-68,-112,-136
19,209,190,-114,-85,200,102,185,34,-58,-112,-141
19,214,195,-117,-87,204,102,180,34,-58,-117,-146
14,214,200,-114,-92,207,107,180,34,-63,-117,-146
9,214,204,-112,-97,209,107,175,34,-63,-117,-146
0,224,224,-112,-112,224,112,175,24,-78,-131,-146
-4,224,229,-109,-117,226,112,175,24,-78,-131,-146
-9,224,234,-107,-122,229,112,170,19,-78,-131,-146
-14,219,234,-102,-124,226,117,165,14,-82,-131,-146
-19,219,239,-100,-129,229,117,165,24,-78,-136,-151
-24,219,244,-97,-134,231,117,161,19,-82,-141,-151
-24,219,244,-97,-134,231,122,156,14,-87,-141,-151
-29,219,248,-95,-139,234,122,151,14,-92,-141,-151
-34,234,268,-100,-151,251,112,136,4,-102,-146,-151
-39,234,273,-97,-156,253,112,136,4,-107,-151,-151
-43,239,283,-97,-163,261,112,131,0,-112,-156,-156
-48,248,297,-100,-173,273,112,126,-4,-112,-161,-156
-43,244,287,-100,-165,265,117,117,-4,-107,-161,-156
-48,244,292,-97,-170,268,112,112,-4,-112,-165,-156
-53,244,297,-95,-175,270,107,107,-4,-117,-170,-156
-58,239,297,-90,-178,268,112,97,-4,-122,-170,-156
-73,244,317,-85,-195,280,102,87,-9,-136,-170,-165
-78,248,326,-85,-202,287,102,78,-14,-136,-180,-165
-82,253,336,-85,-209,295,92,68,-24,-141,-180,-165
-82,268,351,-92,-217,309,87,63,-34,-141,-180,-165
-82,268,351,-92,-217,309,82,53,-34,-151,-180,-156
-87,263,351,-87,-219,307,73,43,-43,-156,-190,-156
-97,263,361,-82,-229,312,63,29,-48,-156,-190,-156
-97,263,361,-82,-229,312,63,19,-53,-161,-190,-156
-117,283,400,-82,-258,341,48,0,-58,-165,-190,-165
-117,287,405,-85,-261,346,34,-19,-63,-170,-195,-165
-122,287,409,-82,-265,348,29,-34,-73,-175,-195,-165
-122,292,414,-85,-268,353,19,-48,-73,-180,-195,-165
-126,283,409,-78,-268,346,19,-58,-78,-175,-195,-151
-126,283,409,-78,-268,346,9,-68,-87,-180,-200,-151
-126,283,409,-78,-268,346,4,-82,-97,-185,-200,-156
-126,287,414,-80,-270,351,-4,-92,-97,-190,-200,-156
-126,292,419,-82,-273,356,-14,-107,-117,-204,-209,-165
-126,307,434,-90,-280,370,-24,-122,-122,-209,-209,-165
-131,302,434,-85,-283,368,-29,-131,-126,-209,-209,-165
-131,302,434,-85,-283,368,-48,-146,-131,-209,-219,-165
-117,292,409,-87,-263,351,-48,-146,-126,-224,-209,-165
-117,292,409,-87,-263,351,-48,-151,-136,-224,-209,-165
-117,292,409,-87,-263,351,-53,-161,-141,-224,-204,-165
-107,287,395,-90,-251,341,-58,-161,-141,-229,-204,-165
-102,292,395,-95,-248,344,-78,-175,-156,-219,-214,-165
-102,302,405,-100,-253,353,-82,-180,-161,-219,-214,-161
-102,307,409,-102,-256,358,-82,-185,-161,-219,-209,-161
-97,312,409,-107,-253,361,-87,-185,-161,-214,-204,-156
-92,302,395,-104,-244,348,-92,-175,-161,-204,-200,-146
-87,312,400,-112,-244,356,-97,-180,-161,-204,-195,-141
-82,302,385,-109,-234,344,-102,-180,-161,-195,-190,-141
-82,302,385,-109,-234,344,-107,-180,-161,-190,-185,-141
-78,322,400,-122,-239,361,-112,-190,-151,-190,-180,-146
-73,322,395,-124,-234,358,-117,-190,-151,-185,-175,-146
-68,322,390,-126,-229,356,-117,-190,-151,-180,-170,-136
-63,322,385,-129,-224,353,-117,-185,-146,-175,-165,-131
-58,312,370,-126,-214,341,-122,-175,-136,-170,-156,-126
-53,326,380,-136,-217,353,-122,-175,-136,-161,-146,-117
-53,326,380,-136,-217,353,-122,-175,-136,-151,-141,-112
-48,326,375,-139,-212,351,-122,-170,-136,-146,-136,-112
-43,336,380,-146,-212,358,-122,-170,-141,-146,-131,-112
-39,336,375,-148,-207,356,-126,-170,-136,-141,-131,-112
-34,336,370,-151,-202,353,-126,-165,-136,-136,-126,-112
-29,336,366,-153,-197,351,-126,-161,-136,-131,-122,-112
-24,331,356,-153,-190,344,-117,-161,-131,-136,-126,-117
-24,331,356,-153,-190,344,-122,-161,-131,-136,-126,-112
-24,326,351,-151,-187,339,-122,-156,-126,-136,-117,-112
-24,322,346,-148,-185,334,-122,-156,-122,-131,-117,-112
-9,331,341,-161,-175,336,-131,-151,-122,-122,-107,-102
-9,336,346,-163,-178,341,-131,-151,-117,-117,-107,-97
-4,341,346,-168,-175,344,-131,-146,-117,-117,-102,-97
-4,341,346,-168,-175,344,-131,-146,-117,-112,-102,-97
0,331,331,-165,-165,331,-122,-141,-112,-112,-107,-92
4,331,326,-168,-161,329,-126,-141,-112,-112,-107,-92
4,331,326,-168,-161,329,-126,-141,-107,-102,-107,-92
4,331,326,-168,-161,329,-122,-136,-107,-102,-102,-92
-4,331,336,-163,-170,334,-122,-136,-107,-92,-102,-92
-4,336,341,-165,-173,339,-122,-136,-102,-92,-102,-87
0,336,336,-168,-168,336,-122,-131,-102,-92,-97,-87
4,331,326,-168,-161,329,-122,-126,-102,-92,-97,-87
4,322,317,-163,-156,319,-122,-117,-97,-87,-87,-87
4,322,317,-163,-156,319,-122,-117,-97,-87,-87,-87
9,326,317,-168,-153,322,-122,-117,-97,-87,-87,-92
9,326,317,-168,-153,322,-122,-117,-97,-87,-87,-92
4,326,322,-165,-158,324,-122,-117,-97,-87,-87,-92
4,326,322,-165,-158,324,-126,-117,-97,-87,-87,-92
9,326,317,-168,-153,322,-126,-112,-92,-87,-82,-92
9,322,312,-165,-151,317,-122,-112,-92,-82,-82,-92
9,331,322,-170,-156,326,-131,-122,-102,-92,-92,-92
9,326,317,-168,-153,322,-131,-122,-102,-92,-92,-92
9,326,317,-168,-153,322,-131,-122,-102,-92,-92,-92
9,341,331,-175,-161,336,-131,-122,-102,-92,-92,-92
9,331,322,-170,-156,326,-122,-122,-92,-92,-87,-97
14,331,317,-173,-151,324,-122,-122,-97,-92,-87,-97
14,326,312,-170,-148,319,-126,-117,-97,-92,-87,-92
14,322,307,-168,-146,314,-126,-117,-97,-92,-82,-92
14,322,307,-168,-146,314,-131,-126,-102,-102,-92,-102
14,326,312,-170,-148,319,-131,-126,-97,-102,-92,-102
14,336,322,-175,-153,329,-131,-126,-97,-102,-97,-102
14,346,331,-180,-158,339,-131,-126,-97,-102,-97,-107
4,351,346,-178,-170,348,-131,-117,-97,-92,-97,-107
9,351,341,-180,-165,346,-126,-117,-97,-92,-97,-102
9,346,336,-178,-163,341,-126,-117,-92,-92,-97,-102
4,336,331,-170,-163,334,-131,-117,-87,-92,-97,-102
14,351,336,-183,-161,344,-131,-126,-92,-102,-107,-92
14,356,341,-185,-163,348,-131,-126,-97,-107,-107,-97
14,361,346,-187,-165,353,-131,-126,-102,-107,-107,-97
14,380,366,-197,-175,373,-131,-126,-107,-107,-107,-97
14,366,351,-190,-168,358,-126,-117,-107,-97,-97,-107
14,361,346,-187,-165,353,-126,-117,-107,-97,-97,-107
14,351,336,-183,-161,344,-131,-117,-107,-97,-102,-107
14,346,331,-180,-158,339,-136,-117,-107,-97,-102,-102
14,351,336,-183,-161,344,-141,-122,-107,-107,-102,-102
19,351,331,-185,-156,341,-141,-122,-112,-107,-102,-107
19,351,331,-185,-156,341,-146,-126,-117,-107,-102,-107
14,375,361,-195,-173,368,-151,-136,-122,-107,-102,-112
24,370,346,-197,-161,358,-146,-126,-117,-107,-102,-112
24,366,341,-195,-158,353,-141,-131,-117,-107,-102,-112
24,370,346,-197,-161,358,-136,-131,-117,-112,-102,-112
24,356,331,-190,-153,344,-136,-131,-117,-112,-102,-117
24,361,336,-192,-156,348,-146,-141,-126,-122,-112,-117
19,370,351,-195,-165,361,-146,-141,-126,-122,-112,-112
19,375,356,-197,-168,366,-146,-141,-126,-122,-112,-112
24,385,361,-204,-168,373,-146,-141,-126,-122,-117,-112
24,385,361,-204,-168,373,-146,-141,-126,-117,-117,-122
24,385,361,-204,-168,373,-146,-136,-126,-117,-117,-122
24,380,356,-202,-165,368,-146,-136,-126,-117,-117,-122
24,375,351,-200,-163,363,-146,-141,-126,-117,-117,-122
14,375,361,-195,-173,368,-156,-156,-131,-126,-126,-122
14,385,370,-200,-178,378,-156,-156,-131,-126,-126,-122
14,390,375,-202,-180,383,-156,-156,-136,-126,-126,-122
14,400,385,-207,-185,392,-156,-156,-141,-126,-136,-122
24,405,380,-214,-178,392,-156,-141,-136,-117,-117,-117
24,400,375,-212,-175,387,-156,-141,-141,-117,-117,-117
19,400,380,-209,-180,390,-151,-141,-136,-117,-117,-117
19,395,375,-207,-178,385,-151,-141,-131,-122,-122,-117
9,405,395,-207,-192,400,-165,-151,-141,-131,-122,-126
9,405,395,-207,-192,400,-165,-151,-141,-131,-122,-126
9,409,400,-209,-195,405,-161,-151,-146,-131,-122,-126
9,414,405,-212,-197,409,-161,-156,-146,-131,-122,-126
19,409,390,-214,-185,400,-161,-156,-141,-131,-122,-126
19,419,400,-219,-190,409,-161,-151,-141,-131,-122,-126
19,414,395,-217,-187,405,-161,-151,-141,-131,-122,-126
19,409,390,-214,-185,400,-165,-151,-141,-131,-122,-131
9,414,405,-212,-197,409,-165,-156,-141,-131,-131,-131
9,414,405,-212,-197,409,-165,-161,-141,-131,-131,-131
9,414,405,-212,-197,409,-170,-161,-146,-136,-131,-126
9,409,400,-209,-195,405,-170,-161,-146,-136,-136,-126
19,414,395,-217,-187,405,-161,-156,-141,-131,-136,-126
19,424,405,-222,-192,414,-161,-156,-141,-131,-136,-126
24,419,395,-222,-185,407,-161,-156,-141,-136,-131,-126
24,414,390,-219,-183,402,-161,-156,-141,-136,-131,-126
24,414,390,-219,-183,402,-170,-165,-146,-126,-131,-131
19,419,400,-219,-190,409,-170,-165,-146,-126,-131,-131
19,424,405,-222,-192,414,-170,-165,-146,-126,-131,-126
19,419,400,-219,-190,409,-170,-165,-146,-126,-131,-126
19,409,390,-214,-185,400,-170,-156,-146,-136,-131,-126
19,419,400,-219,-190,409,-170,-156,-146,-136,-131,-126
19,419,400,-219,-190,409,-165,-161,-146,-136,-131,-126
19,419,400,-219,-190,409,-165,-161,-146,-136,-131,-126
19,429,409,-224,-195,419,-165,-161,-141,-136,-131,-126
19,419,400,-219,-190,409,-165,-161,-141,-136,-131,-126
19,419,400,-219,-190,409,-165,-161,-141,-136,-131,-126
19,414,395,-217,-187,405,-170,-161,-141,-131,-131,-126
9,400,390,-204,-190,395,-161,-151,-141,-122,-122,-117
9,400,390,-204,-190,395,-161,-151,-136,-126,-122,-122
9,400,390,-204,-190,395,-161,-151,-136,-126,-122,-122
9,400,390,-204,-190,395,-161,-151,-136,-126,-122,-117
19,400,380,-209,-180,390,-161,-151,-131,-126,-122,-112
19,395,375,-207,-178,385,-161,-151,-136,-126,-122,-112
19,395,375,-207,-178,385,-165,-151,-136,-126,-122,-112
19,390,370,-204,-175,380,-165,-151,-136,-122,-122,-112
19,385,366,-202,-173,375,-156,-151,-131,-112,-112,-112
19,380,361,-200,-170,370,-156,-151,-131,-112,-112,-112
24,385,361,-204,-168,373,-156,-151,-126,-112,-112,-112
24,385,361,-204,-168,373,-156,-151,-126,-112,-112,-112
19,370,351,-195,-165,361,-146,-146,-126,-112,-112,-102
19,361,341,-190,-161,351,-151,-146,-126,-112,-107,-102
19,351,331,-185,-156,341,-151,-141,-126,-112,-107,-102
19,346,326,-183,-153,336,-151,-136,-131,-112,-107,-102
19,331,312,-175,-146,322,-146,-126,-131,-112,-97,-92
19,331,312,-175,-146,322,-146,-126,-126,-112,-97,-92
19,341,322,-180,-151,331,-146,-126,-122,-112,-97,-92
19,346,326,-183,-153,336,-146,-126,-122,-112,-97,-97
19,331,312,-175,-146,322,-141,-126,-122,-102,-87,-97
19,326,307,-173,-143,317,-141,-126,-117,-102,-87,-92
19,312,292,-165,-136,302,-136,-126,-112,-102,-87,-92
19,302,283,-161,-131,292,-126,-126,-107,-102,-87,-92
19,287,268,-153,-124,278,-131,-122,-107,-87,-87,-82
19,287,268,-153,-124,278,-131,-117,-102,-87,-87,-82
19,297,278,-158,-129,287,-131,-117,-102,-87,-87,-82
19,302,283,-161,-131,292,-136,-122,-102,-87,-87,-82
19,292,273,-156,-126,283,-131,-122,-102,-78,-73,-78
19,283,263,-151,-122,273,-126,-117,-97,-78,-73,-73
19,273,253,-146,-117,263,-122,-112,-92,-78,-73,-68
19,263,244,-141,-112,253,-117,-107,-92,-78,-73,-63
19,248,229,-134,-104,239,-112,-102,-92,-68,-63,-63
19,244,224,-131,-102,234,-112,-102,-87,-68,-63,-63
19,244,224,-131,-102,234,-112,-102,-82,-68,-63,-63
19,244,224,-131,-102,234,-117,-107,-82,-68,-63,-63
19,229,209,-124,-95,219,-107,-97,-73,-58,-53,-58
19,224,204,-122,-92,214,-107,-97,-78,-58,-53,-58
19,219,200,-119,-90,209,-107,-97,-82,-58,-53,-58
19,214,195,-117,-87,204,-107,-97,-82,-58,-53,-63
9,214,204,-112,-97,209,-97,-92,-73,-48,-53,-53
19,214,195,-117,-87,204,-107,-87,-78,-48,-48,-58
19,204,185,-112,-82,195,-97,-78,-73,-48,-39,-48
19,195,175,-107,-78,185,-97,-78,-68,-48,-39,-48
19,185,165,-102,-73,175,-97,-78,-63,-48,-39,-48
19,175,156,-97,-68,165,-97,-78,-58,-48,-39,-48
19,175,156,-97,-68,165,-87,-73,-58,-39,-39,-43
24,175,151,-100,-63,163,-87,-68,-58,-39,-39,-39
24,180,156,-102,-65,168,-87,-68,-48,-34,-34,-34
24,190,165,-107,-70,178,-87,-68,-48,-29,-29,-29
29,195,165,-112,-68,180,-78,-68,-39,-14,-14,-19
29,190,161,-109,-65,175,-78,-63,-29,-14,-14,-14
29,185,156,-107,-63,170,-73,-58,-29,-14,-4,-9
29,175,146,-102,-58,161,-68,-58,-19,-14,0,-9
19,175,156,-97,-68,165,-58,-58,-14,-14,0,4
24,175,151,-100,-63,163,-58,-58,-9,-9,0,4
29,175,146,-102,-58,161,-58,-53,-4,-4,0,4
29,180,151,-104,-61,165,-53,-53,-4,4,0,9
39,180,141,-109,-51,161,-53,-43,4,9,4,9
48,175,126,-112,-39,151,-53,-39,4,9,9,9
48,161,112,-104,-31,136,-48,-34,4,9,14,9
53,156,102,-104,-24,129,-48,-24,4,9,24,9
48,151,102,-100,-26,126,-39,-19,19,19,34,19
53,141,87,-97,-17,114,-34,-14,19,19,34,19
58,136,78,-97,-9,107,-34,-4,24,24,39,24
63,141,78,-102,-7,109,-34,-4,29,29,43,24
78,141,63,-109,7,102,-39,0,34,39,43,29
78,146,68,-112,4,107,-39,9,39,48,53,43
82,151,68,-117,7,109,-39,14,48,53,58,53
87,161,73,-124,7,117,-48,9,58,58,63,63
87,165,78,-126,4,122,-48,0,63,78,82,73
87,170,82,-129,2,126,-63,-4,68,82,82,78
87,170,82,-129,2,126,-78,-14,58,87,82,78
87,165,78,-126,4,122,-82,-19,53,82,78,78
87,156,68,-122,9,112,-92,-29,34,78,87,87
82,161,78,-122,2,119,-97,-39,29,73,87,87
82,165,82,-124,0,124,-97,-43,29,73,87,87
82,170,87,-126,-2,129,-97,-48,29,73,82,87
82,165,82,-124,0,124,-87,-43,29,73,92,87
82,161,78,-122,2,119,-87,-43,29,78,92,87
82,146,63,-114,9,104,-82,-43,34,78,97,87
82,136,53,-109,14,95,-82,-43,34,78,97,82
82,112,29,-97,26,70,-78,-39,39,68,92,82
73,112,39,-92,17,75,-78,-39,34,58,87,78
68,112,43,-90,12,78,-68,-39,34,58,82,78
63,112,48,-87,7,80,-68,-39,34,63,82,78
58,102,43,-80,7,73,-58,-34,43,68,87,87
53,82,29,-68,12,56,-48,-29,48,68,87,87
48,63,14,-56,17,39,-43,-24,48,73,87,78
43,48,4,-46,19,26,-34,-19,43,68,78,73
29,48,19,-39,4,34,-43,-19,24,53,73,78
14,39,24,-26,-4,31,-43,-29,19,43,63,68
9,34,24,-21,-7,29,-39,-29,14,39,53,63
4,24,19,-14,-7,21,-39,-29,4,34,43,53
9,0,-9,-4,9,-4,-29,-29,4,29,34,43
4,-19,-24,7,14,-21,-24,-29,0,19,34,39
4,-29,-34,12,19,-31,-24,-29,-4,19,29,24
9,-43,-53,17,31,-48,-24,-29,-9,14,24,24
9,-39,-48,14,29,-43,-34,-29,-9,19,19,34
9,-39,-48,14,29,-43,-34,-29,-14,14,19,29
4,-43,-48,19,26,-46,-34,-29,-14,9,19,29
4,-43,-48,19,26,-46,-34,-29,-19,9,19,24
4,-53,-58,24,31,-56,-29,-24,-9,9,19,24
4,-68,-73,31,39,-70,-24,-24,-9,9,19,24
4,-78,-82,36,43,-80,-19,-24,-9,9,24,24
4,-92,-97,43,51,-95,-14,-24,-9,9,24,24
0,-87,-87,43,43,-87,-24,-19,-9,9,24,24
0,-82,-82,41,41,-82,-19,-19,-9,9,24,24
-4,-78,-73,41,34,-75,-19,-19,-9,14,19,24
-4,-68,-63,36,29,-65,-19,-24,-9,14,19,24
0,-78,-78,39,39,-78,-19,-19,0,19,19,34
0,-87,-87,43,43,-87,-14,-14,0,19,24,34
0,-97,-97,48,48,-97,-4,-9,0,19,24,34
-4,-107,-102,56,48,-104,0,0,4,19,24,34
-14,-97,-82,56,34,-90,-4,-9,4,19,29,34
-9,-97,-87,53,39,-92,-4,-9,4,19,29,34
-9,-97,-87,53,39,-92,-9,-9,4,24,29,29
-9,-92,-82,51,36,-87,-9,-9,4,24,29,29
0,-112,-112,56,56,-112,0,0,19,34,34,34
0,-122,-122,61,61,-122,0,0,19,34,34,34
0,-131,-131,65,65,-131,0,0,19,34,34,34
0,-141,-141,70,70,-141,4,9,19,39,34,34
9,-131,-141,61,75,-136,14,14,24,48,34,43
4,-141,-146,68,75,-143,9,29,34,48,39,43
24,-141,-165,58,95,-153,19,53,48,48,39,39
39,-146,-185,53,112,-165,34,78,78,78,58,48
53,-161,-214,53,134,-187,48,136,122,107,82,53
78,-180,-258,51,168,-219,92,224,161,136,97,43
92,-204,-297,56,195,-251,131,317,209,161,97,34
92,-195,-287,51,190,-241,170,375,268,204,117,43
92,-165,-258,36,175,-212,185,375,336,273,165,73
73,-107,-180,17,126,-143,156,287,380,336,224,112
63,-34,-97,-14,80,-65,82,161,409,405,292,180
82,39,-43,-61,63,-2,4,68,453,497,385,268
126,92,-34,-109,80,29,-68,9,507,580,488,356
175,165,-9,-170,92,78,-117,-58,570,663,566,439
209,234,24,-222,92,129,-180,-131,595,736,653,512
244,322,78,-283,82,200,-283,-278,570,785,727,580
248,405,156,-326,46,280,-405,-488,478,775,766,663
239,424,185,-331,26,305,-507,-649,278,634,707,663
200,351,151,-275,24,251,-556,-746,-4,380,527,570
141,224,82,-183,29,153,-570,-849,-297,92,297,424
-14,136,151,-61,-82,143,-590,-1015,-556,-161,102,331
-248,126,375,61,-312,251,-634,-1278,-761,-346,0,292
-488,151,639,168,-563,395,-673,-1571,-917,-483,-87,278
-649,151,800,248,-724,475,-697,-1747,-1054,-619,-175,229
-692,87,780,302,-736,434,-688,-1727,-1122,-707,-258,170
-653,24,678,314,-666,351,-683,-1610,-1137,-746,-312,102
-590,-9,580,300,-585,285,-668,-1493,-1112,-756,-331,53
-536,14,551,261,-544,283,-658,-1381,-1039,-707,-312,73
-488,68,556,209,-522,312,-629,-1244,-888,-600,-234,122
-424,92,517,165,-470,305,-580,-1083,-727,-473,-156,161
-356,63,419,146,-387,241,-473,-888,-605,-395,-112,161
-283,19,302,131,-292,161,-361,-697,-492,-317,-87,136
-224,-4,219,114,-222,107,-273,-527,-366,-239,-58,136
-195,-29,165,112,-180,68,-200,-409,-278,-180,-34,126
-175,-58,117,117,-146,29,-146,-317,-229,-151,-29,97
-131,-73,58,102,-95,-7,-112,-244,-180,-112,-14,87
-92,-78,14,85,-53,-31,-78,-161,-122,-78,4,82
-73,-107,-34,90,-19,-70,-43,-112,-87,-43,9,78
-53,-126,-73,90,9,-100,-19,-73,-58,-34,19,73
-39,-141,-102,90,31,-122,0,-34,-29,-9,14,63
-29,-156,-126,92,48,-141,19,9,-4,0,19,48
-14,-170,-156,92,70,-163,39,43,4,4,19,48
-9,-165,-156,87,73,-161,39,48,14,14,19,39
-4,-156,-151,80,73,-153,53,68,24,29,24,39
0,-156,-156,78,78,-156,58,92,39,39,34,39
9,-170,-180,80,95,-175,68,92,43,39,34,39
14,-175,-190,80,102,-183,68,102,43,43,34,39
14,-185,-200,85,107,-192,68,112,48,43,34,39
14,-190,-204,87,109,-197,68,117,53,48,39,39
4,-190,-195,92,100,-192,78,112,58,53,29,39
4,-195,-200,95,102,-197,82,117,63,53,29,43
4,-190,-195,92,100,-192,82,126,63,53,29,43
9,-180,-190,85,100,-185,82,126,68,58,29,39
19,-185,-204,82,112,-195,82,141,68,58,39,39
19,-185,-204,82,112,-195,87,146,68,58,39,39
24,-185,-209,80,117,-197,87,146,73,63,39,39
24,-190,-214,82,119,-202,87,151,73,63,39,39
14,-195,-209,90,112,-202,92,151,78,58,34,39
19,-195,-214,87,117,-204,92,151,78,58,34,39
19,-200,-219,90,119,-209,97,161,82,58,34,39
19,-200,-219,90,119,-209,97,161,82,63,34,39
29,-204,-234,87,131,-219,97,170,87,73,34,39
29,-195,-224,82,126,-209,97,175,87,73,34,39
29,-190,-219,80,124,-204,97,175,87,73,34,39
29,-190,-219,80,124,-204,102,180,92,73,34,39
29,-190,-219,80,124,-204,102,170,92,73,43,48
34,-195,-229,80,131,-212,102,175,92,73,43,48
34,-195,-229,80,131,-212,107,175,97,78,48,48
34,-195,-229,80,131,-212,107,180,97,78,48,48
34,-200,-234,82,134,-217,107,180,97,78,48,39
34,-200,-234,82,134,-217,107,185,97,78,48,39
34,-200,-234,82,134,-217,107,185,97,78,48,39
34,-195,-229,80,131,-212,112,185,102,82,48,39
29,-204,-234,87,131,-219,112,190,102,82,48,39
29,-209,-239,90,134,-224,112,190,102,82,48,34
29,-209,-239,90,134,-224,112,200,107,82,48,34
29,-209,-239,90,134,-224,117,200,107,82,48,34
39,-200,-239,80,139,-219,117,209,107,92,48,43
39,-200,-239,80,139,-219,117,209,107,92,48,43
39,-195,-234,78,136,-214,117,214,112,92,48,43
43,-195,-239,75,141,-217,117,214,112,97,48,39
43,-200,-244,78,143,-222,131,204,112,97,48,29
43,-204,-248,80,146,-226,131,214,117,97,53,34
43,-209,-253,82,148,-231,131,214,117,97,53,34
48,-214,-263,82,156,-239,136,214,117,102,48,34
39,-209,-248,85,143,-229,136,224,117,102,58,43
39,-209,-248,85,143,-229,136,229,117,102,58,43
39,-204,-244,82,141,-224,136,234,117,102,58,43
39,-204,-244,82,141,-224,136,234,122,102,58,43
48,-209,-258,80,153,-234,136,239,122,92,48,39
48,-219,-268,85,158,-244,141,239,122,92,48,39
48,-224,-273,87,161,-248,141,239,126,97,48,43
48,-229,-278,90,163,-253,146,244,126,97,48,43
53,-224,-278,85,165,-251,136,244,126,97,53,34
53,-219,-273,82,163,-246,136,244,131,97,53,34
53,-214,-268,80,161,-241,136,248,131,97,53,34
53,-209,-263,78,158,-236,136,248,131,97,53,34
53,-224,-278,85,165,-251,151,253,131,107,53,34
53,-229,-283,87,168,-256,151,253,136,107,53,34
53,-229,-283,87,168,-256,151,258,136,112,53,34
53,-234,-287,90,170,-261,151,263,141,112,53,34
53,-219,-273,82,163,-246,146,253,141,102,53,34
53,-224,-278,85,165,-251,146,253,141,102,53,34
53,-219,-273,82,163,-246,146,253,141,102,53,34
53,-209,-263,78,158,-236,151,258,141,102,53,34
53,-219,-273,82,163,-246,161,268,146,112,53,43
53,-224,-278,85,165,-251,161,268,146,112,53,43
53,-229,-283,87,168,-256,161,273,146,117,53,43
53,-229,-283,87,168,-256,161,273,146,117,53,43
53,-224,-278,85,165,-251,156,263,151,117,63,34
53,-224,-278,85,165,-251,156,268,151,117,63,34
53,-224,-278,85,165,-251,156,268,151,117,63,34
53,-219,-273,82,163,-246,161,268,156,117,63,34
58,-219,-278,80,168,-248,170,283,156,117,63,43
58,-224,-283,82,170,-253,170,283,156,117,63,43
58,-229,-287,85,173,-258,170,287,156,117,63,39
53,-234,-287,90,170,-261,170,292,161,117,63,39
53,-234,-287,90,170,-261,170,292,161,117,63,39
53,-229,-283,87,168,-256,175,292,165,122,63,39
53,-224,-278,85,165,-251,180,292,165,122,63,39
53,-214,-268,80,161,-241,180,292,165,122,63,39
53,-224,-278,85,165,-251,180,297,165,131,53,39
53,-229,-283,87,168,-256,180,297,165,131,53,39
53,-234,-287,90,170,-261,185,297,165,131,53,34
53,-239,-292,92,173,-265,185,302,165,131,53,34
39,-229,-268,95,153,-248,180,302,175,122,63,34
39,-224,-263,92,151,-244,180,302,180,122,63,34
39,-224,-263,92,151,-244,185,302,180,122,63,34
39,-219,-258,90,148,-239,185,307,180,122,63,34
39,-224,-263,92,151,-244,195,307,180,131,58,43
39,-224,-263,92,151,-244,200,307,180,126,58,43
43,-229,-273,92,158,-251,200,307,180,126,58,39
43,-234,-278,95,161,-256,200,312,180,126,58,39
24,-234,-258,104,141,-246,200,302,180,126,58,29
24,-229,-253,102,139,-241,200,302,180,126,53,29
24,-224,-248,100,136,-236,200,302,180,126,53,29
24,-219,-244,97,134,-231,204,302,185,122,53,29
34,-229,-263,97,148,-246,209,317,195,122,53,24
29,-234,-263,102,146,-248,214,317,190,122,48,24
29,-239,-268,104,148,-253,219,312,190,122,48,24
24,-244,-268,109,146,-256,229,312,190,117,48,24
19,-239,-258,109,139,-248,219,302,180,117,43,29
14,-239,-253,112,134,-246,224,302,180,117,43,29
9,-234,-244,112,126,-239,224,302,180,117,43,29
9,-229,-239,109,124,-234,229,302,180,107,34,29
9,-239,-248,114,129,-244,229,302,180,107,34,24
9,-234,-244,112,126,-239,229,297,180,107,29,19
4,-234,-239,114,122,-236,234,297,180,102,29,19
0,-234,-234,117,117,-234,234,292,180,102,29,19
0,-234,-234,117,117,-234,239,292,180,97,24,19
-4,-234,-229,119,112,-231,239,292,180,97,24,19
-9,-234,-224,122,107,-229,239,287,175,97,24,19
-14,-239,-224,126,104,-231,244,283,170,92,24,19
-19,-239,-219,129,100,-229,244,283,180,87,19,4
-24,-239,-214,131,95,-226,244,278,175,82,14,4
-24,-239,-214,131,95,-226,248,273,170,78,14,4
-29,-239,-209,134,90,-224,248,268,170,73,14,4
-34,-239,-204,136,85,-222,248,263,161,63,9,4
-39,-244,-204,141,82,-224,248,263,161,58,4,4
-43,-244,-200,143,78,-222,248,258,156,53,0,0
-48,-239,-190,143,70,-214,248,253,151,53,-4,0
-53,-248,-195,151,70,-222,258,244,141,48,-4,0
-58,-244,-185,151,63,-214,248,239,141,43,-9,0
-63,-239,-175,151,56,-207,239,234,141,39,-14,0
-68,-239,-170,153,51,-204,239,224,141,34,-14,0
-73,-239,-165,156,46,-202,239,224,141,29,-14,-9
-78,-239,-161,158,41,-200,239,214,141,29,-24,-9
-82,-239,-156,161,36,-197,229,204,136,24,-24,-9
-82,-229,-146,156,31,-187,224,200,131,24,-24,-9
-82,-234,-151,158,34,-192,229,180,122,14,-24,0
-87,-234,-146,161,29,-190,219,170,112,9,-34,0
-97,-229,-131,163,17,-180,209,156,107,9,-34,0
-97,-224,-126,161,14,-175,209,146,102,4,-34,0
-107,-229,-122,168,7,-175,195,141,97,0,-43,0
-107,-229,-122,168,7,-175,180,126,92,-4,-48,0
-112,-234,-122,173,4,-178,175,117,82,-9,-48,0
-112,-234,-122,173,4,-178,165,107,82,-14,-48,0
-117,-229,-112,173,-2,-170,165,87,68,-29,-48,-4
-117,-224,-107,170,-4,-165,156,78,58,-34,-53,-4
-117,-219,-102,168,-7,-161,151,63,48,-39,-53,-9
-117,-209,-92,163,-12,-151,141,53,48,-43,-53,-9
-117,-214,-97,165,-9,-156,136,53,39,-39,-53,-9
-117,-209,-92,163,-12,-151,131,43,34,-43,-53,-9
-122,-224,-102,173,-9,-163,131,39,29,-43,-53,-9
-122,-234,-112,178,-4,-173,117,29,24,-43,-63,-9
-117,-219,-102,168,-7,-161,107,9,19,-58,-63,-9
-117,-214,-97,165,-9,-156,107,4,9,-58,-63,-9
-117,-209,-92,163,-12,-151,102,-4,4,-58,-58,-9
-107,-209,-102,158,-2,-156,97,-4,4,-63,-58,-9
-102,-209,-107,156,2,-158,87,0,9,-58,-58,-9
-102,-204,-102,153,0,-153,82,-4,4,-53,-58,-4
-102,-204,-102,153,0,-153,82,-9,4,-48,-53,-4
-97,-204,-107,151,4,-156,78,-9,4,-39,-48,0
-92,-200,-107,146,7,-153,63,-14,-4,-39,-34,9
-87,-185,-97,136,4,-141,58,-24,-4,-39,-29,14
-82,-190,-107,136,12,-148,53,-29,-4,-29,-24,14
-82,-185,-102,134,9,-143,48,-34,-4,-24,-19,14
-78,-185,-107,131,14,-146,48,-29,0,-19,-4,29
-73,-185,-112,129,19,-148,48,-24,4,-9,0,29
-68,-185,-117,126,24,-151,53,-19,9,0,4,39
-63,-185,-122,124,29,-153,58,-9,19,9,9,43
-58,-175,-117,117,29,-146,43,-19,19,4,19,39
-53,-161,-107,107,26,-134,43,-19,19,14,29,48
-53,-161,-107,107,26,-134,43,-19,19,24,34,53
-48,-161,-112,104,31,-136,43,-14,19,29,39,53
-43,-170,-126,107,41,-148,43,-14,24,29,43,43
-39,-170,-131,104,46,-151,39,-14,29,34,43,43
-34,-170,-136,102,51,-153,39,-9,29,39,48,43
-29,-170,-141,100,56,-156,39,-4,29,43,53,43
-24,-165,-141,95,58,-153,39,-4,24,48,53,48
-24,-156,-131,90,53,-143,34,-4,24,48,48,53
-24,-151,-126,87,51,-139,34,0,29,48,53,53
-24,-146,-122,85,48,-134,34,0,34,53,48,53
-19,-151,-131,85,56,-141,34,4,43,53,58,63
-19,-151,-131,85,56,-141,34,4,48,58,58,68
-14,-151,-136,82,61,-143,34,9,48,58,63,68
-14,-156,-141,85,63,-148,34,9,48,63,63,68
-9,-151,-141,80,65,-146,24,14,43,63,58,68
-4,-146,-141,75,68,-143,19,14,43,63,58,63
-4,-141,-136,73,65,-139,19,14,48,73,58,58
-4,-136,-131,70,63,-134,24,19,48,73,63,53
-14,-146,-131,80,58,-139,34,19,58,82,63,53
-14,-141,-126,78,56,-134,34,19,63,82,63,58
-9,-141,-131,75,61,-136,34,24,63,82,68,58
-4,-146,-141,75,68,-143,34,29,63,82,68,58
-4,-131,-126,68,61,-129,24,19,58,78,68,58
-4,-126,-122,65,58,-124,24,19,58,78,68,58
0,-117,-117,58,58,-117,24,19,58,78,68,53
0,-112,-112,56,56,-112,24,19,58,78,68,53
-4,-117,-112,61,53,-114,34,29,58,78,68,53
-4,-122,-117,63,56,-119,29,29,58,78,68,53
0,-126,-126,63,63,-126,29,34,63,78,73,53
0,-136,-136,68,68,-136,34,34,63,82,73,53
0,-122,-122,61,61,-122,24,24,53,82,63,43
0,-122,-122,61,61,-122,24,24,53,82,63,43
0,-117,-117,58,58,-117,24,24,53,82,63,43
0,-97,-97,48,48,-97,24,24,53,82,63,43
0,-107,-107,53,53,-107,24,34,63,73,68,39
4,-107,-112,51,58,-109,24,34,58,73,68,39
4,-112,-117,53,61,-114,19,39,58,73,68,43
4,-117,-122,56,63,-119,19,39,58,73,73,43
4,-107,-112,51,58,-109,14,29,53,73,63,43
4,-102,-107,48,56,-104,14,29,58,73,63,43
4,-92,-97,43,51,-95,14,29,58,73,58,43
4,-82,-87,39,46,-85,14,29,58,73,58,39
4,-87,-92,41,48,-90,14,29,48,73,68,29
9,-87,-97,39,53,-92,19,29,48,73,68,34
9,-92,-102,41,56,-97,19,29,53,73,68,34
4,-102,-107,48,56,-104,14,29,58,73,68,34
4,-92,-97,43,51,-95,14,19,48,73,58,34
4,-92,-97,43,51,-95,14,19,48,68,58,29
4,-92,-97,43,51,-95,14,19,48,68,58,29
4,-78,-82,36,43,-80,14,19,48,68,58,29
4,-78,-82,36,43,-80,19,29,48,68,58,29
4,-78,-82,36,43,-80,19,29,48,68,58,29
4,-82,-87,39,46,-85,14,29,48,68,53,29
4,-82,-87,39,46,-85,9,29,48,68,53,34
4,-82,-87,39,46,-85,9,19,43,58,63,34
9,-87,-97,39,53,-92,14,24,43,58,63,29
9,-92,-102,41,56,-97,14,24,43,58,63,29
4,-73,-78,34,41,-75,14,19,43,58,63,24
4,-73,-78,34,41,-75,4,19,39,68,53,24
4,-73,-78,34,41,-75,4,14,39,68,53,24
4,-63,-68,29,36,-65,4,14,39,63,53,24
4,-73,-78,34,41,-75,0,14,39,63,53,19
4,-68,-73,31,39,-70,9,14,48,53,53,9
0,-68,-68,34,34,-68,9,14,48,53,53,14
0,-73,-73,36,36,-73,9,14,48,53,53,14
4,-73,-78,34,41,-75,9,14,48,53,48,14
4,-58,-63,26,34,-61,0,4,39,58,48,14
4,-53,-58,24,31,-56,0,9,39,58,48,14
4,-53,-58,24,31,-56,0,9,39,58,48,14
4,-53,-58,24,31,-56,0,4,39,58,48,14
4,-63,-68,29,36,-65,0,9,39,58,58,14
4,-63,-68,29,36,-65,0,9,43,58,58,14
4,-68,-73,31,39,-70,0,9,43,58,58,14
4,-68,-73,31,39,-70,0,9,43,58,48,14
4,-58,-63,26,34,-61,0,4,34,48,48,19
4,-58,-63,26,34,-61,0,4,24,48,48,19
0,-53,-53,26,26,-53,4,4,24,48,48,19
0,-53,-53,26,26,-53,4,4,24,43,43,19
0,-58,-58,29,29,-58,0,4,34,43,43,9
0,-63,-63,31,31,-63,0,4,34,43,43,9
0,-63,-63,31,31,-63,4,4,29,43,43,9
0,-63,-63,31,31,-63,4,0,29,43,43,9
0,-53,-53,26,26,-53,-4,0,24,34,34,9
0,-39,-39,19,19,-39,-4,4,24,34,34,9
0,-39,-39,19,19,-39,-4,4,24,34,34,9
0,-39,-39,19,19,-39,-9,4,24,34,34,4
0,-48,-48,24,24,-48,0,9,24,39,43,4
0,-53,-53,26,26,-53,0,4,24,43,43,4
0,-58,-58,29,29,-58,-4,4,19,43,43,9
0,-68,-68,34,34,-68,-4,4,19,48,39,9
0,-58,-58,29,29,-58,-14,4,14,48,29,9
0,-43,-43,21,21,-43,-14,0,14,43,29,9
4,-43,-48,19,26,-46,-14,-4,14,34,34,9
4,-43,-48,19,26,-46,-14,-9,14,29,34,9
4,-58,-63,26,34,-61,-4,0,14,34,43,4
0,-58,-58,29,29,-58,-4,0,19,39,43,4
0,-58,-58,29,29,-58,-4,0,24,43,43,9
0,-68,-68,34,34,-68,-4,0,29,48,43,9
-9,-58,-48,34,19,-53,-14,0,19,39,43,9
-9,-48,-39,29,14,-43,-14,0,19,39,43,9
-9,-48,-39,29,14,-43,-9,-4,19,39,43,9
-9,-48,-39,29,14,-43,-9,-4,19,39,43,9
0,-58,-58,29,29,-58,-9,4,24,39,43,9
0,-68,-68,34,34,-68,-9,4,24,39,43,9
0,-68,-68,34,34,-68,-9,4,24,39,43,9
0,-73,-73,36,36,-73,-14,4,24,43,43,9
0,-63,-63,31,31,-63,-14,-4,14,43,43,9
0,-58,-58,29,29,-58,-14,-4,19,39,43,4
0,-53,-53,26,26,-53,-14,-4,19,39,43,4
0,-48,-48,24,24,-48,-14,-4,19,39,43,9
0,-53,-53,26,26,-53,-9,4,19,48,43,14
0,-63,-63,31,31,-63,-4,4,19,48,43,14
0,-68,-68,34,34,-68,-4,4,24,48,43,14
0,-78,-78,39,39,-78,0,4,29,53,43,14
0,-68,-68,34,34,-68,-9,0,29,43,43,14
0,-68,-68,34,34,-68,-9,-4,24,43,43,14
4,-58,-63,26,34,-61,-9,-9,24,43,43,14
4,-53,-58,24,31,-56,-9,-14,19,43,43,14
9,-58,-68,24,39,-63,0,-9,29,43,43,24
9,-68,-78,29,43,-73,-4,-9,29,43,48,24
9,-78,-87,34,48,-82,-4,-4,29,43,48,24
9,-82,-92,36,51,-87,-4,0,24,43,48,24
0,-82,-82,41,41,-82,-9,-9,14,43,48,14
0,-78,-78,39,39,-78,-9,-9,19,43,48,14
0,-63,-63,31,31,-63,-9,-9,24,43,48,14
0,-53,-53,26,26,-53,-9,-9,24,43,48,9
9,-68,-78,29,43,-73,0,-4,29,43,48,19
9,-73,-82,31,46,-78,-4,0,29,43,48,24
9,-87,-97,39,53,-92,-4,4,29,43,48,24
9,-97,-107,43,58,-102,0,9,29,43,48,24
0,-97,-97,48,48,-97,-4,9,19,48,48,24
0,-92,-92,46,46,-92,-4,9,24,48,48,24
0,-78,-78,39,39,-78,-4,4,24,48,48,24
0,-68,-68,34,34,-68,-9,-4,24,48,48,24
0,-82,-82,41,41,-82,-4,0,29,48,53,24
0,-87,-87,43,43,-87,0,0,29,48,53,24
0,-92,-92,46,46,-92,4,0,29,48,53,24
0,-97,-97,48,48,-97,9,0,24,48,53,24
9,-102,-112,46,61,-107,9,4,24,48,53,14
9,-97,-107,43,58,-102,4,4,29,48,53,14
9,-87,-97,39,53,-92,0,4,34,48,53,14
9,-78,-87,34,48,-82,-9,0,34,48,53,14
9,-82,-92,36,51,-87,-4,9,43,58,53,29
9,-87,-97,39,53,-92,0,9,39,58,53,29
9,-92,-102,41,56,-97,4,9,34,58,53,29
9,-97,-107,43,58,-102,9,9,34,58,53,24
9,-97,-107,43,58,-102,9,14,43,68,63,34
9,-92,-102,41,56,-97,4,4,43,68,53,34
9,-78,-87,34,48,-82,0,0,29,58,48,19
9,-87,-97,39,53,-92,0,0,39,58,58,19
9,-87,-97,39,53,-92,0,0,39,58,58,19
9,-87,-97,39,53,-92,0,0,39,58,58,19
9,-87,-97,39,53,-92,0,0,39,58,58,19
9,-97,-107,43,58,-102,9,14,48,68,68,29
14,-97,-112,41,63,-104,9,19,48,68,68,29
14,-92,-107,39,61,-100,9,19,58,73,73,29
14,-82,-97,34,56,-90,9,19,58,78,78,29
