I,II,III,aVR,aVL,aVF,V1,V2,V3,V4,V5,V6,
-126,-97,29,112,-78,-34,68,-58,-126,-146,-126,-107
-126,-97,29,112,-78,-34,68,-53,-126,-141,-126,-107
-126,-97,29,112,-78,-34,68,-48,-126,-136,-126,-107
-126,-97,29,112,-78,-34,73,-48,-122,-136,-126,-107
-126,-97,29,112,-78,-34,78,-48,-117,-136,-126,-107
-126,-92,34,109,-80,-29,78,-48,-117,-136,-126,-107
-126,-87,39,107,-82,-24,78,-48,-117,-136,-126,-107
-126,-87,39,107,-82,-24,73,-48,-112,-136,-126,-107
-126,-87,39,107,-82,-24,68,-48,-107,-136,-126,-107
-126,-87,39,107,-82,-24,68,-43,-102,-131,-126,-107
-126,-87,39,107,-82,-24,68,-39,-97,-126,-126,-107
-131,-87,43,109,-87,-21,73,-39,-92,-126,-122,-107
-136,-87,48,112,-92,-19,78,-39,-87,-126,-117,-107
-136,-87,48,112,-92,-19,78,-39,-82,-122,-117,-107
-136,-87,48,112,-92,-19,78,-39,-78,-117,-117,-107
-136,-82,53,109,-95,-14,82,-34,-68,-112,-112,-102
-136,-78,58,107,-97,-9,87,-29,-58,-107,-107,-97
-136,-73,63,104,-100,-4,87,-19,-48,-102,-107,-97
-136,-68,68,102,-102,0,87,-9,-39,-97,-107,-97
-131,-63,68,97,-100,2,87,-9,-29,-87,-102,-97
-126,-58,68,92,-97,4,87,-9,-19,-78,-97,-97
-126,-53,73,90,-100,9,92,0,0,-73,-92,-97
-126,-48,78,87,-102,14,97,9,19,-68,-87,-97
-122,-43,78,82,-100,17,102,19,34,-53,-78,-87
-117,-39,78,78,-97,19,107,29,48,-39,-68,-78
-112,-29,82,70,-97,26,107,43,73,-29,-63,-78
-107,-19,87,63,-97,34,107,58,97,-19,-58,-78
-102,-14,87,58,-95,36,107,73,122,0,-43,-68
-97,-9,87,53,-92,39,107,87,146,19,-29,-58
-87,0,87,43,-87,43,112,102,175,39,-14,-53
-78,9,87,34,-82,48,117,117,204,58,0,-48
-68,19,87,24,-78,53,122,136,234,78,9,-43
-58,29,87,14,-73,58,126,156,263,97,19,-39
-53,39,92,7,-73,65,126,170,292,122,43,-29
-48,48,97,0,-73,73,126,185,322,146,68,-19
-34,58,92,-12,-63,75,126,200,351,165,78,-9
-19,68,87,-24,-53,78,126,214,380,185,87,0
-9,78,87,-34,-48,82,126,229,409,209,107,9
0,87,87,-43,-43,87,126,244,439,234,126,19
14,102,87,-58,-36,95,122,258,463,253,141,29
29,117,87,-73,-29,102,117,273,488,273,156,39
39,122,82,-80,-21,102,112,273,488,283,165,48
48,126,78,-87,-14,102,107,273,488,292,175,58
48,131,82,-90,-17,107,92,258,483,292,175,63
48,136,87,-92,-19,112,78,244,478,292,175,68
48,136,87,-92,-19,112,63,224,439,278,175,68
48,136,87,-92,-19,112,48,204,400,263,175,68
48,126,78,-87,-14,102,39,175,356,234,161,68
48,117,68,-82,-9,92,29,146,312,204,146,68
43,107,63,-75,-9,85,14,117,258,175,126,63
39,97,58,-68,-9,78,0,87,204,146,107,58
24,82,58,-53,-17,70,-4,58,156,112,87,48
9,68,58,-39,-24,63,-9,29,107,78,68,39
4,53,48,-29,-21,51,-9,9,68,58,48,29
0,39,39,-19,-19,39,-9,-9,29,39,29,19
-9,29,39,-9,-24,34,-14,-19,9,14,14,14
-19,19,39,0,-29,29,-19,-29,-9,-9,0,9
-24,9,34,7,-29,21,-19,-34,-29,-19,-9,0
-29,0,29,14,-29,14,-19,-39,-48,-29,-19,-9
-34,-9,24,21,-29,7,-19,-43,-58,-39,-24,-9
-39,-19,19,29,-29,0,-19,-48,-68,-48,-29,-9
-43,-24,19,34,-31,-2,-19,-53,-73,-53,-34,-19
-48,-29,19,39,-34,-4,-19,-58,-78,-58,-39,-29
-48,-29,19,39,-34,-4,-19,-58,-78,-63,-39,-29
-48,-29,19,39,-34,-4,-19,-58,-78,-68,-39,-29
-48,-29,19,39,-34,-4,-19,-63,-82,-68,-43,-29
-48,-29,19,39,-34,-4,-19,-68,-87,-68,-48,-29
-48,-29,19,39,-34,-4,-19,-68,-87,-68,-53,-29
-48,-29,19,39,-34,-4,-19,-68,-87,-68,-58,-29
-48,-29,19,39,-34,-4,-14,-63,-87,-68,-58,-29
-48,-29,19,39,-34,-4,-9,-58,-87,-68,-58,-29
-48,-29,19,39,-34,-4,-9,-58,-87,-73,-58,-29
-48,-29,19,39,-34,-4,-9,-58,-87,-78,-58,-29
-48,-29,19,39,-34,-4,-9,-58,-87,-78,-58,-29
-48,-29,19,39,-34,-4,-9,-58,-87,-78,-58,-29
-48,-29,19,39,-34,-4,-9,-58,-87,-78,-58,-29
-48,-29,19,39,-34,-4,-9,-58,-87,-78,-58,-29
-48,-29,19,39,-34,-4,-9,-58,-87,-78,-58,-29
-48,-29,19,39,-34,-4,-9,-58,-87,-78,-58,-29
-48,-34,14,41,-31,-9,-9,-58,-92,-78,-58,-29
-48,-39,9,43,-29,-14,-9,-58,-97,-78,-58,-29
-53,-39,14,46,-34,-12,-4,-58,-97,-78,-58,-29
-58,-39,19,48,-39,-9,0,-58,-97,-78,-58,-29
-58,-39,19,48,-39,-9,0,-63,-97,-78,-63,-29
-58,-39,19,48,-39,-9,0,-68,-97,-78,-68,-29
-58,-39,19,48,-39,-9,0,-68,-97,-78,-68,-29
-58,-39,19,48,-39,-9,0,-68,-97,-78,-68,-29
-58,-39,19,48,-39,-9,0,-68,-97,-78,-63,-29
-58,-39,19,48,-39,-9,0,-68,-97,-78,-58,-29
-58,-39,19,48,-39,-9,0,-68,-97,-78,-58,-29
-58,-39,19,48,-39,-9,0,-68,-97,-78,-58,-29
-58,-39,19,48,-39,-9,0,-68,-97,-78,-58,-29
-58,-39,19,48,-39,-9,0,-68,-97,-78,-58,-29
-58,-39,19,48,-39,-9,0,-63,-92,-78,-58,-34
-58,-39,19,48,-39,-9,0,-58,-87,-78,-58,-39
-58,-39,19,48,-39,-9,0,-58,-87,-78,-58,-39
-58,-39,19,48,-39,-9,0,-58,-87,-78,-58,-39
-63,-39,24,51,-43,-7,0,-58,-87,-78,-58,-39
-68,-39,29,53,-48,-4,0,-58,-87,-78,-58,-39
-68,-43,24,56,-46,-9,0,-58,-82,-78,-58,-39
-68,-48,19,58,-43,-14,0,-58,-78,-78,-58,-39
-68,-48,19,58,-43,-14,0,-53,-78,-73,-58,-39
-68,-48,19,58,-43,-14,0,-48,-78,-68,-58,-39
-68,-48,19,58,-43,-14,0,-48,-78,-68,-58,-39
-68,-48,19,58,-43,-14,0,-48,-78,-68,-58,-39
-63,-48,14,56,-39,-17,0,-48,-78,-68,-58,-39
-58,-48,9,53,-34,-19,0,-48,-78,-68,-58,-39
-58,-48,9,53,-34,-19,-4,-53,-78,-68,-58,-39
-58,-48,9,53,-34,-19,-9,-58,-78,-68,-58,-39
-58,-48,9,53,-34,-19,-9,-58,-82,-68,-58,-39
-58,-48,9,53,-34,-19,-9,-58,-87,-68,-58,-39
-58,-48,9,53,-34,-19,-4,-58,-87,-68,-63,-39
-58,-48,9,53,-34,-19,0,-58,-87,-68,-68,-39
-58,-48,9,53,-34,-19,0,-58,-87,-73,-68,-39
-58,-48,9,53,-34,-19,0,-58,-87,-78,-68,-39
-53,-43,9,48,-31,-17,0,-58,-87,-78,-63,-39
-48,-39,9,43,-29,-14,0,-58,-87,-78,-58,-39
-48,-19,29,34,-39,4,-9,-58,-82,-63,-48,-29
-43,4,48,19,-46,26,-14,-58,-73,-48,-39,-19
-43,29,73,7,-58,51,-24,-58,-63,-39,-29,-9
-39,48,87,-4,-63,68,-24,-58,-58,-29,-24,0
-43,53,97,-4,-70,75,-19,-58,-53,-29,-19,0
-48,53,102,-2,-75,78,-14,-58,-53,-29,-19,-4
-48,48,97,0,-73,73,-9,-53,-48,-24,-19,-4
-43,58,102,-7,-73,80,-14,-48,-39,-14,-9,9
-29,63,92,-17,-61,78,-24,-48,-24,-9,4,19
-19,68,87,-24,-53,78,-34,-53,-29,-9,4,24
-19,78,97,-29,-58,87,-53,-58,-39,-9,4,24
-24,78,102,-26,-63,90,-63,-73,-48,-19,4,24
-29,73,102,-21,-65,87,-63,-82,-68,-29,-4,24
-34,73,107,-19,-70,90,-73,-97,-87,-34,-14,24
-24,73,97,-24,-61,85,-82,-97,-97,-39,-14,24
-14,73,87,-29,-51,80,-87,-97,-107,-39,-14,24
4,82,78,-43,-36,80,-97,-97,-107,-34,-9,29
19,107,87,-63,-34,97,-102,-97,-97,-24,4,48
24,131,107,-78,-41,119,-107,-92,-92,-9,19,68
29,141,112,-85,-41,126,-107,-92,-92,-9,24,73
9,107,97,-58,-43,102,-87,-92,-97,-29,9,53
-39,58,97,-9,-68,78,-58,-87,-102,-48,-19,24
-68,34,102,17,-85,68,-39,-87,-107,-53,-29,9
-82,9,92,36,-87,51,-34,-87,-112,-58,-39,0
-82,-9,73,46,-78,31,-24,-82,-122,-68,-48,-19
-82,-43,39,63,-61,-2,-14,-78,-126,-87,-78,-39
-78,-73,4,75,-41,-34,4,-73,-131,-102,-87,-48
-82,-78,4,80,-43,-36,9,-73,-131,-102,-97,-58
-82,-78,4,80,-43,-36,14,-73,-131,-107,-92,-58
-82,-78,4,80,-43,-36,14,-73,-131,-107,-87,-58
-82,-82,0,82,-41,-41,14,-73,-136,-107,-87,-63
-87,-87,0,87,-43,-43,14,-73,-141,-107,-87,-73
-87,-92,-4,90,-41,-48,19,-73,-146,-107,-97,-73
-87,-92,-4,90,-41,-48,19,-73,-146,-112,-102,-73
-87,-92,-4,90,-41,-48,19,-73,-151,-112,-107,-73
-87,-97,-9,92,-39,-53,19,-73,-151,-112,-107,-78
-92,-97,-4,95,-43,-51,19,-73,-151,-112,-107,-73
-92,-97,-4,95,-43,-51,24,-73,-151,-112,-107,-68
-92,-97,-4,95,-43,-51,24,-73,-151,-117,-107,-73
-92,-97,-4,95,-43,-51,24,-73,-151,-117,-112,-73
-92,-97,-4,95,-43,-51,24,-73,-146,-117,-112,-73
-92,-97,-4,95,-43,-51,24,-73,-146,-112,-107,-68
-92,-102,-9,97,-41,-56,24,-73,-146,-112,-107,-73
-92,-107,-14,100,-39,-61,24,-73,-146,-112,-107,-78
-92,-97,-4,95,-43,-51,14,-78,-146,-107,-102,-73
-97,-73,24,85,-61,-24,9,-78,-141,-102,-97,-68
-117,-53,63,85,-90,4,14,-92,-136,-107,-102,-78
-107,-19,87,63,-97,34,0,-73,-87,-63,-63,-48
-87,4,92,41,-90,48,4,-9,-4,-4,-19,-14
63,82,19,-73,21,51,-43,97,161,146,102,73
336,253,-82,-295,209,85,-200,195,375,448,361,234
644,488,-156,-566,400,165,-390,322,697,819,688,463
1058,790,-268,-924,663,261,-605,590,1220,1424,1195,819
1381,1000,-380,-1190,880,309,-756,775,1566,1839,1571,1107
1415,1054,-361,-1234,888,346,-839,605,1390,1737,1542,1180
1342,678,-663,-1010,1002,7,-746,424,746,1044,1005,878
1093,122,-971,-607,1032,-424,-605,0,-434,9,209,434
775,-224,-1000,-275,888,-612,-473,-229,-1019,-517,-200,175
492,-351,-844,-70,668,-597,-287,-209,-907,-546,-322,-9
268,-331,-600,31,434,-466,-165,-214,-775,-502,-326,-68
117,-244,-361,63,239,-302,-92,-175,-556,-390,-263,-48
14,-151,-165,68,90,-158,-53,-141,-375,-273,-200,-39
-14,-97,-82,56,34,-90,-29,-107,-287,-204,-151,-39
-29,-78,-48,53,9,-63,-9,-82,-234,-161,-126,-39
-68,-87,-19,78,-24,-53,24,-73,-190,-151,-126,-73
-102,-97,4,100,-53,-46,43,-63,-156,-151,-131,-92
-112,-97,14,104,-63,-41,53,-63,-151,-146,-131,-97
-122,-97,24,109,-73,-36,58,-58,-151,-146,-131,-102
-126,-92,34,109,-80,-29,63,-58,-151,-141,-131,-102
-136,-92,43,114,-90,-24,63,-58,-146,-141,-136,-102
-136,-92,43,114,-90,-24,68,-58,-141,-141,-136,-97
-136,-92,43,114,-90,-24,73,-58,-136,-136,-136,-97
-131,-92,39,112,-85,-26,73,-58,-136,-136,-136,-97
-126,-92,34,109,-80,-29,73,-58,-136,-136,-136,-97
-131,-92,39,112,-85,-26,73,-53,-126,-136,-136,-97
-131,-87,43,109,-87,-21,73,-53,-126,-136,-136,-97
-136,-87,48,112,-92,-19,68,-53,-126,-131,-136,-102
-141,-87,53,114,-97,-17,63,-53,-126,-131,-136,-102
-141,-92,48,117,-95,-21,68,-48,-126,-131,-131,-97
-141,-97,43,119,-92,-26,68,-48,-122,-131,-126,-97
-141,-97,43,119,-92,-26,73,-48,-117,-131,-126,-97
-141,-97,43,119,-92,-26,78,-48,-117,-131,-126,-97
-141,-97,43,119,-92,-26,78,-48,-112,-131,-126,-97
-141,-92,48,117,-95,-21,78,-48,-107,-126,-126,-97
-146,-87,58,117,-102,-14,78,-43,-107,-126,-122,-97
-146,-82,63,114,-104,-9,78,-43,-92,-122,-122,-97
-146,-78,68,112,-107,-4,78,-39,-92,-122,-126,-92
-146,-78,68,112,-107,-4,78,-39,-82,-117,-126,-92
-146,-78,68,112,-107,-4,78,-34,-73,-117,-126,-92
-146,-73,73,109,-109,0,82,-29,-68,-112,-122,-97
-146,-78,68,112,-107,-4,82,-24,-58,-102,-117,-97
-146,-78,68,112,-107,-4,82,-19,-53,-97,-107,-92
-141,-73,68,107,-104,-2,82,-14,-43,-87,-102,-87
-136,-68,68,102,-102,0,87,-4,-29,-78,-97,-87
-136,-63,73,100,-104,4,87,4,-14,-73,-92,-82
-136,-58,78,97,-107,9,92,14,0,-68,-87,-82
-126,-53,73,90,-100,9,92,19,14,-58,-82,-78
-122,-43,78,82,-100,17,92,29,29,-43,-78,-78
-117,-34,82,75,-100,24,92,39,53,-39,-73,-68
-112,-24,87,68,-100,31,102,48,78,-29,-63,-63
-107,-14,92,61,-100,39,102,63,92,-4,-53,-58
-102,-4,97,53,-100,46,107,73,112,4,-43,-58
-97,-9,87,53,-92,39,112,87,141,24,-34,-48
-92,-9,82,51,-87,36,112,102,170,43,-14,-39
-78,4,82,36,-80,43,112,122,200,63,0,-39
-68,14,82,26,-75,48,112,136,229,87,14,-39
-58,24,82,17,-70,53,112,156,258,112,29,-29
-48,34,82,7,-65,58,117,175,287,131,48,-19
-39,48,87,-4,-63,68,122,195,317,151,58,-4
-29,58,87,-14,-58,73,126,214,351,175,68,4
-14,68,82,-26,-48,75,126,229,375,195,82,19
0,78,78,-39,-39,78,126,244,405,214,97,24
9,87,78,-48,-34,82,122,263,429,234,117,29
24,97,73,-61,-24,85,112,273,458,253,131,34
39,117,78,-78,-19,97,107,283,488,278,146,43
48,131,82,-90,-17,107,102,287,497,292,165,53
63,136,73,-100,-4,104,97,292,497,302,175,63
63,141,78,-102,-7,109,87,287,497,302,180,68
63,146,82,-104,-9,114,78,278,478,302,180,73
63,146,82,-104,-9,114,68,263,448,292,175,78
63,141,78,-102,-7,109,48,224,409,268,170,82
58,131,73,-95,-7,102,29,195,366,239,165,87
58,122,63,-90,-2,92,9,165,317,219,146,82
48,107,58,-78,-4,82,0,136,263,195,126,73
48,102,53,-75,-2,78,-4,102,209,156,107,73
39,92,53,-65,-7,73,-9,73,161,122,87,68
24,73,48,-48,-12,61,-14,48,122,97,68,58
14,58,43,-36,-14,51,-19,29,78,73,48,48
9,48,39,-29,-14,43,-19,9,39,53,29,39
-4,34,39,-14,-21,36,-19,-9,9,29,14,29
-9,14,24,-2,-17,19,-19,-19,-4,4,-4,19
-14,0,14,7,-14,7,-19,-34,-24,-9,-14,14
-19,-4,14,12,-17,4,-19,-39,-43,-19,-19,9
-29,-9,19,19,-24,4,-19,-48,-53,-34,-29,0
-34,-14,19,24,-26,2,-19,-53,-63,-43,-34,-4
-39,-24,14,31,-26,-4,-19,-58,-73,-43,-39,-14
-43,-24,19,34,-31,-2,-14,-58,-78,-43,-39,-14
-48,-24,24,36,-36,0,-14,-63,-82,-53,-39,-14
-48,-24,24,36,-36,0,-14,-63,-82,-53,-39,-14
-48,-29,19,39,-34,-4,-14,-68,-82,-53,-48,-19
-48,-29,19,39,-34,-4,-14,-63,-87,-63,-48,-19
-48,-34,14,41,-31,-9,-14,-58,-87,-68,-48,-19
-53,-39,14,46,-34,-12,-14,-58,-87,-68,-48,-19
-53,-43,9,48,-31,-17,-14,-58,-87,-68,-48,-19
-53,-43,9,48,-31,-17,-14,-58,-87,-68,-53,-19
-53,-48,4,51,-29,-21,-9,-58,-87,-63,-53,-19
-53,-43,9,48,-31,-17,-9,-63,-87,-63,-53,-19
-53,-39,14,46,-34,-12,-9,-63,-87,-63,-53,-19
-53,-34,19,43,-36,-7,-9,-63,-87,-63,-53,-19
-53,-34,19,43,-36,-7,-9,-63,-87,-63,-53,-24
-53,-43,9,48,-31,-17,-9,-58,-92,-68,-53,-24
-53,-48,4,51,-29,-21,-4,-53,-92,-68,-53,-24
-53,-48,4,51,-29,-21,-4,-53,-87,-68,-58,-24
-53,-48,4,51,-29,-21,-4,-53,-87,-68,-58,-24
-53,-43,9,48,-31,-17,-4,-53,-97,-68,-58,-24
-58,-39,19,48,-39,-9,-4,-58,-102,-68,-58,-24
-58,-39,19,48,-39,-9,-9,-63,-102,-68,-58,-24
-58,-39,19,48,-39,-9,-9,-63,-102,-68,-58,-29
-58,-43,14,51,-36,-14,-9,-63,-102,-68,-58,-29
-58,-48,9,53,-34,-19,-9,-63,-102,-68,-58,-29
-63,-48,14,56,-39,-17,-4,-63,-107,-73,-58,-29
-63,-48,14,56,-39,-17,0,-68,-107,-73,-58,-29
-68,-48,19,58,-43,-14,0,-68,-102,-68,-58,-29
-73,-48,24,61,-48,-12,0,-63,-102,-68,-58,-29
-73,-48,24,61,-48,-12,0,-63,-102,-68,-63,-29
-73,-48,24,61,-48,-12,0,-63,-102,-73,-68,-29
-73,-48,24,61,-48,-12,0,-63,-102,-73,-68,-29
-73,-48,24,61,-48,-12,0,-63,-102,-73,-68,-29
-73,-48,24,61,-48,-12,0,-63,-102,-73,-68,-34
-73,-48,24,61,-48,-12,0,-63,-97,-73,-68,-34
-73,-53,19,63,-46,-17,0,-58,-97,-73,-68,-34
-73,-58,14,65,-43,-21,0,-58,-92,-68,-63,-39
-73,-63,9,68,-41,-26,4,-58,-92,-68,-58,-39
-73,-63,9,68,-41,-26,9,-58,-87,-68,-53,-39
-68,-58,9,63,-39,-24,9,-53,-87,-63,-48,-34
-68,-58,9,63,-39,-24,9,-53,-82,-63,-48,-34
-68,-58,9,63,-39,-24,9,-53,-82,-58,-53,-34
-63,-53,9,58,-36,-21,9,-53,-78,-53,-58,-34
-63,-58,4,61,-34,-26,9,-48,-82,-58,-58,-43
-58,-58,0,58,-29,-29,4,-48,-87,-63,-58,-48
-63,-68,-4,65,-29,-36,0,-48,-82,-63,-63,-43
-68,-63,4,65,-36,-29,0,-53,-87,-58,-68,-43
-68,-63,4,65,-36,-29,4,-53,-82,-58,-68,-43
-68,-73,-4,70,-31,-39,9,-53,-82,-68,-68,-39
-63,-73,-9,68,-26,-41,0,-53,-82,-63,-63,-34
-63,-73,-9,68,-26,-41,0,-53,-92,-58,-58,-29
-58,-63,-4,61,-26,-34,0,-48,-92,-63,-58,-34
-58,-58,0,58,-29,-29,0,-48,-97,-68,-58,-39
-58,-53,4,56,-31,-24,0,-48,-92,-63,-58,-39
-58,-48,9,53,-34,-19,0,-48,-87,-58,-58,-39
-58,-34,24,46,-41,-4,-4,-48,-82,-48,-48,-34
-53,-14,39,34,-46,12,-9,-48,-73,-39,-39,-24
-53,4,58,24,-56,31,-14,-48,-63,-29,-29,-19
-48,19,68,14,-58,43,-14,-48,-58,-19,-24,-9
-43,24,68,9,-56,46,-9,-43,-53,-19,-19,-4
-39,24,63,7,-51,43,-4,-39,-53,-19,-19,-4
-39,24,63,7,-51,43,-4,-39,-48,-14,-14,-4
-34,39,73,-2,-53,56,-14,-39,-39,-4,0,9
-24,58,82,-17,-53,70,-24,-43,-24,4,14,24
-19,78,97,-29,-58,87,-34,-53,-29,9,14,34
-19,87,107,-34,-63,97,-53,-58,-34,9,14,34
-24,87,112,-31,-68,100,-63,-73,-39,0,14,34
-24,78,102,-26,-63,90,-63,-78,-58,-9,4,34
-24,73,97,-24,-61,85,-73,-87,-78,-14,-4,34
-14,73,87,-29,-51,80,-87,-92,-87,-24,-4,34
-4,73,78,-34,-41,75,-97,-97,-97,-29,-4,34
9,82,73,-46,-31,78,-102,-97,-102,-29,-9,39
19,107,87,-63,-34,97,-102,-97,-97,-24,-4,58
24,126,102,-75,-39,114,-102,-92,-92,-4,14,73
29,131,102,-80,-36,117,-97,-92,-92,0,24,73
9,97,87,-53,-39,92,-78,-92,-92,-19,14,58
-39,48,87,-4,-63,68,-48,-87,-92,-39,-9,34
-68,24,92,21,-80,58,-29,-87,-97,-43,-19,19
-82,0,82,41,-82,41,-24,-87,-102,-48,-29,9
-82,-19,63,51,-73,21,-14,-82,-112,-58,-34,-14
-82,-53,29,68,-56,-12,-4,-78,-117,-78,-58,-39
-82,-82,0,82,-41,-41,9,-73,-126,-92,-73,-48
-92,-87,4,90,-48,-41,9,-73,-131,-92,-87,-58
-92,-92,0,92,-46,-46,14,-73,-131,-97,-87,-58
-92,-97,-4,95,-43,-51,14,-73,-131,-97,-87,-58
-92,-102,-9,97,-41,-56,14,-73,-131,-97,-82,-58
-97,-107,-9,102,-43,-58,14,-73,-131,-97,-78,-63
-97,-112,-14,104,-41,-63,19,-73,-136,-97,-82,-63
-97,-112,-14,104,-41,-63,19,-73,-136,-102,-82,-63
-97,-112,-14,104,-41,-63,19,-73,-141,-107,-92,-63
-97,-117,-19,107,-39,-68,19,-73,-141,-112,-97,-68
-102,-117,-14,109,-43,-65,19,-73,-141,-112,-97,-68
-102,-117,-14,109,-43,-65,24,-73,-141,-112,-97,-68
-102,-112,-9,107,-46,-61,24,-73,-141,-112,-92,-73
-102,-107,-4,104,-48,-56,24,-73,-141,-107,-92,-73
-102,-107,-4,104,-48,-56,24,-73,-136,-107,-92,-73
-102,-107,-4,104,-48,-56,24,-73,-136,-102,-87,-68
-102,-112,-9,107,-46,-61,29,-73,-136,-102,-87,-73
-102,-117,-14,109,-43,-65,34,-73,-136,-102,-87,-78
-102,-122,-19,112,-41,-70,24,-78,-136,-102,-92,-73
-107,-112,-4,109,-51,-58,19,-78,-131,-102,-97,-68
-146,-107,39,126,-92,-34,34,-112,-156,-131,-117,-92
-156,-87,68,122,-112,-9,29,-112,-136,-112,-92,-78
-131,-92,39,112,-85,-26,43,-19,-78,-92,-87,-73
24,-43,-68,9,46,-56,4,117,63,19,-4,-14
341,92,-248,-217,295,-78,-136,263,287,307,234,131
692,292,-400,-492,546,-53,-312,439,619,663,541,346
1176,644,-531,-910,854,56,-566,712,1151,1283,1073,717
1566,902,-663,-1234,1115,119,-756,902,1507,1712,1473,1019
1546,980,-566,-1263,1056,207,-868,644,1317,1629,1459,1112
1420,629,-790,-1024,1105,-80,-805,375,658,956,936,829
1088,78,-1010,-583,1049,-466,-644,-117,-546,-87,131,370
688,-263,-951,-212,819,-607,-492,-414,-1156,-624,-287,97
424,-409,-834,-7,629,-622,-287,-341,-1019,-644,-405,-92
219,-409,-629,95,424,-519,-146,-292,-863,-590,-405,-156
87,-331,-419,122,253,-375,-53,-219,-629,-463,-331,-122
4,-248,-253,122,129,-251,4,-151,-434,-331,-258,-97
-24,-180,-156,102,65,-168,29,-97,-312,-239,-185,-78
-39,-146,-107,92,34,-126,48,-53,-224,-170,-136,-58
-73,-141,-68,107,-2,-104,68,-48,-180,-151,-126,-82
-102,-136,-34,119,-34,-85,73,-43,-146,-141,-122,-92
-107,-136,-29,122,-39,-82,78,-43,-141,-136,-122,-92
-112,-136,-24,124,-43,-80,78,-39,-141,-136,-122,-92
-117,-131,-14,124,-51,-73,82,-39,-136,-126,-117,-92
-126,-131,-4,129,-61,-68,82,-39,-126,-122,-117,-92
-131,-131,0,131,-65,-65,87,-39,-122,-122,-117,-92
-136,-131,4,134,-70,-63,92,-39,-117,-117,-117,-97
-136,-131,4,134,-70,-63,87,-43,-117,-117,-117,-97
-136,-131,4,134,-70,-63,82,-48,-117,-117,-117,-97
-141,-122,19,131,-80,-51,82,-43,-107,-117,-117,-97
-141,-107,34,124,-87,-36,82,-43,-107,-117,-117,-97
-141,-117,24,129,-82,-46,87,-43,-107,-117,-117,-102
-141,-126,14,134,-78,-56,92,-43,-107,-122,-117,-102
-141,-136,4,139,-73,-65,97,-34,-112,-122,-117,-97
-141,-146,-4,143,-68,-75,97,-29,-112,-122,-117,-97
-141,-146,-4,143,-68,-75,92,-29,-107,-122,-117,-97
-141,-146,-4,143,-68,-75,87,-29,-107,-122,-117,-97
-136,-141,-4,139,-65,-73,87,-34,-102,-122,-117,-97
-131,-131,0,131,-65,-65,87,-39,-97,-117,-117,-97
-136,-131,4,134,-70,-63,87,-34,-97,-117,-112,-102
-136,-131,4,134,-70,-63,87,-34,-82,-112,-112,-107
-136,-122,14,129,-75,-53,87,-29,-82,-112,-112,-102
-136,-117,19,126,-78,-48,87,-29,-73,-107,-107,-102
-136,-117,19,126,-78,-48,87,-24,-63,-107,-107,-102
-136,-112,24,124,-80,-43,92,-19,-58,-102,-102,-107
-136,-107,29,122,-82,-39,92,-14,-48,-92,-102,-107
-136,-97,39,117,-87,-29,92,-9,-43,-87,-97,-102
-131,-92,39,112,-85,-26,92,-4,-39,-78,-92,-97
-126,-87,39,107,-82,-24,97,4,-29,-68,-87,-97
-126,-87,39,107,-82,-24,92,14,-14,-63,-82,-82
-126,-87,39,107,-82,-24,92,24,0,-58,-78,-73
-117,-82,34,100,-75,-24,92,29,9,-53,-68,-68
-112,-73,39,92,-75,-17,92,39,19,-43,-58,-68
-107,-68,39,87,-73,-14,92,53,43,-34,-53,-63
-102,-63,39,82,-70,-12,102,68,68,-19,-43,-63
-92,-53,39,73,-65,-7,102,82,87,4,-34,-63
-82,-43,39,63,-61,-2,107,92,112,14,-24,-68
-78,-34,43,56,-61,4,112,107,136,34,-14,-58
-73,-19,53,46,-63,17,112,122,161,53,4,-48
-58,0,58,29,-58,29,107,141,190,73,19,-43
-48,14,63,17,-56,39,102,156,219,97,34,-39
-39,24,63,7,-51,43,102,175,248,117,48,-24
-29,34,63,-2,-46,48,107,195,278,131,68,-9
-19,43,63,-12,-41,53,107,209,307,151,78,0
-9,48,58,-19,-34,53,107,224,341,175,87,4
4,58,53,-31,-24,56,107,239,366,195,102,19
19,68,48,-43,-14,58,107,253,395,214,117,24
29,78,48,-53,-9,63,102,273,419,234,141,34
43,87,43,-65,0,65,92,283,448,253,161,43
58,102,43,-80,7,73,87,297,483,278,175,53
68,112,43,-90,12,78,82,307,497,292,195,63
87,126,39,-107,24,82,73,312,502,312,209,78
92,141,48,-117,21,95,58,307,507,322,219,87
92,156,63,-124,14,109,53,292,497,322,224,92
92,165,73,-129,9,119,48,273,478,312,224,97
92,151,58,-122,17,104,39,234,434,292,214,92
87,131,43,-109,21,87,29,204,385,268,204,87
82,122,39,-102,21,80,14,175,336,244,180,82
68,107,39,-87,14,73,9,146,283,214,156,73
63,97,34,-80,14,65,0,112,229,175,136,73
48,82,34,-65,7,58,-9,82,180,141,117,68
29,68,39,-48,-4,53,-14,58,146,117,97,58
14,58,43,-36,-14,51,-19,39,107,92,78,48
9,48,39,-29,-14,43,-19,14,63,68,58,39
-4,34,39,-14,-21,36,-19,-9,29,39,43,29
-14,14,29,0,-21,21,-19,-14,14,14,24,14
-24,0,24,12,-24,12,-19,-24,-4,0,14,4
-29,-9,19,19,-24,4,-14,-34,-24,-14,4,0
-39,-19,19,29,-29,0,-9,-48,-34,-34,-9,-9
-39,-29,9,34,-24,-9,-9,-48,-43,-43,-14,-14
-39,-43,-4,41,-17,-24,-9,-48,-53,-43,-19,-24
-43,-43,0,43,-21,-21,-4,-53,-63,-48,-19,-24
-48,-43,4,46,-26,-19,-4,-63,-73,-63,-19,-24
-53,-34,19,43,-36,-7,-9,-63,-73,-63,-19,-29
-58,-29,29,43,-43,0,-14,-68,-73,-63,-29,-39
-58,-29,29,43,-43,0,-14,-68,-78,-68,-34,-39
-58,-34,24,46,-41,-4,-14,-68,-78,-68,-39,-39
-63,-43,19,53,-41,-12,-9,-68,-78,-68,-39,-39
-63,-53,9,58,-36,-21,-4,-68,-78,-68,-39,-39
-63,-53,9,58,-36,-21,-4,-68,-78,-73,-43,-39
-63,-58,4,61,-34,-26,0,-68,-78,-73,-43,-39
-63,-58,4,61,-34,-26,-4,-68,-78,-73,-48,-39
-63,-58,4,61,-34,-26,-9,-63,-78,-73,-53,-39
-63,-48,14,56,-39,-17,-9,-63,-78,-73,-53,-39
-63,-43,19,53,-41,-12,-9,-63,-78,-73,-53,-43
-63,-43,19,53,-41,-12,-9,-63,-82,-78,-53,-43
-63,-39,24,51,-43,-7,-4,-63,-82,-78,-53,-43
-63,-39,24,51,-43,-7,-4,-63,-78,-78,-53,-43
-63,-39,24,51,-43,-7,-4,-63,-78,-78,-48,-43
-68,-39,29,53,-48,-4,-4,-63,-82,-78,-48,-43
-78,-39,39,58,-58,0,-4,-68,-82,-78,-48,-43
-78,-43,34,61,-56,-4,-4,-68,-82,-78,-48,-39
-78,-48,29,63,-53,-9,0,-63,-82,-78,-48,-39
-73,-48,24,61,-48,-12,0,-58,-82,-78,-53,-39
-68,-48,19,58,-43,-14,0,-53,-82,-78,-58,-39
-73,-48,24,61,-48,-12,4,-53,-82,-82,-58,-39
-73,-48,24,61,-48,-12,9,-58,-78,-82,-58,-39
-73,-48,24,61,-48,-12,9,-53,-73,-78,-58,-39
-73,-48,24,61,-48,-12,9,-43,-73,-78,-58,-39
-73,-48,24,61,-48,-12,9,-43,-73,-73,-58,-39
-73,-48,24,61,-48,-12,9,-43,-73,-73,-58,-39
-73,-48,24,61,-48,-12,4,-48,-73,-68,-53,-39
-73,-48,24,61,-48,-12,0,-53,-73,-63,-48,-39
-73,-48,24,61,-48,-12,0,-53,-73,-58,-48,-48
-73,-48,24,61,-48,-12,0,-53,-68,-53,-48,-53
-68,-43,24,56,-46,-9,0,-48,-68,-53,-48,-48
-63,-39,24,51,-43,-7,0,-48,-63,-48,-43,-48
-63,-43,19,53,-41,-12,0,-43,-63,-53,-43,-43
-63,-43,19,53,-41,-12,0,-39,-58,-58,-43,-39
-58,-43,14,51,-36,-14,4,-34,-58,-58,-43,-34
-58,-48,9,53,-34,-19,9,-34,-53,-63,-48,-34
-58,-53,4,56,-31,-24,9,-39,-53,-68,-48,-39
-53,-53,0,53,-26,-26,9,-39,-48,-73,-48,-43
-48,-48,0,48,-24,-24,9,-39,-48,-63,-43,-39
-48,-48,0,48,-24,-24,9,-39,-48,-58,-39,-39
-48,-39,9,43,-29,-14,9,-39,-48,-53,-39,-39
-48,-29,19,39,-34,-4,9,-39,-48,-48,-39,-39
-48,-14,34,31,-41,9,4,-39,-34,-39,-29,-34
-43,0,43,21,-43,21,0,-34,-19,-29,-19,-24
-43,19,63,12,-53,41,-4,-34,-4,-19,-9,-14
-39,29,68,4,-53,48,-4,-29,0,-9,-4,0
-39,34,73,2,-56,53,-4,-29,0,-14,0,0
-39,34,73,2,-56,53,-4,-29,-4,-19,0,-4
-34,39,73,-2,-53,56,-4,-34,0,-14,0,-4
-24,58,82,-17,-53,70,-14,-39,9,-4,9,9
-14,73,87,-29,-51,80,-24,-43,24,9,34,24
-9,87,97,-39,-53,92,-34,-53,19,19,43,34
-14,102,117,-43,-65,109,-53,-58,9,19,43,34
-24,107,131,-41,-78,119,-63,-73,0,9,43,34
-24,102,126,-39,-75,114,-63,-78,-19,-4,29,34
-24,102,126,-39,-75,114,-73,-87,-39,-14,14,34
-14,102,117,-43,-65,109,-82,-92,-48,-19,14,29
-4,102,107,-48,-56,104,-87,-97,-58,-19,14,24
9,107,97,-58,-43,102,-92,-97,-63,-24,14,29
19,126,107,-73,-43,117,-92,-97,-58,-24,24,48
19,141,122,-80,-51,131,-92,-87,-53,-9,34,63
19,141,122,-80,-51,131,-87,-82,-53,-9,34,63
0,107,107,-53,-53,107,-68,-82,-58,-24,29,43
-48,58,107,-4,-78,82,-39,-78,-63,-39,9,14
-68,34,102,17,-85,68,-19,-78,-68,-43,-9,0
-73,9,82,31,-78,46,-14,-78,-73,-48,-29,-9
-73,-9,63,41,-68,26,-4,-73,-82,-58,-34,-29
-73,-43,29,58,-51,-7,4,-68,-87,-78,-58,-48
-73,-68,4,70,-39,-31,19,-63,-97,-92,-63,-58
-82,-68,14,75,-48,-26,19,-63,-102,-92,-68,-68
-82,-68,14,75,-48,-26,24,-63,-102,-97,-68,-73
-82,-68,14,75,-48,-26,24,-63,-102,-97,-68,-78
-82,-78,4,80,-43,-36,24,-63,-97,-97,-73,-78
-87,-87,0,87,-43,-43,24,-63,-92,-97,-78,-82
-87,-92,-4,90,-41,-48,29,-63,-97,-97,-82,-82
-87,-92,-4,90,-41,-48,29,-63,-97,-102,-82,-82
-87,-87,0,87,-43,-43,29,-63,-102,-102,-87,-82
-87,-87,0,87,-43,-43,29,-63,-102,-102,-87,-87
-87,-87,0,87,-43,-43,29,-63,-102,-102,-87,-87
-82,-87,-4,85,-39,-46,34,-63,-102,-102,-87,-87
-82,-87,-4,85,-39,-46,34,-63,-102,-107,-87,-92
-82,-87,-4,85,-39,-46,34,-63,-102,-107,-92,-92
-82,-87,-4,85,-39,-46,34,-63,-97,-107,-92,-87
-82,-87,-4,85,-39,-46,34,-63,-97,-102,-87,-78
-82,-87,-4,85,-39,-46,34,-63,-97,-102,-87,-78
-82,-87,-4,85,-39,-46,34,-63,-97,-102,-87,-78
-87,-82,4,85,-46,-39,29,-68,-92,-102,-87,-78
-97,-63,34,80,-65,-14,29,-68,-82,-102,-87,-78
-107,-63,43,85,-75,-9,39,-78,-82,-107,-82,-82
-87,-48,39,68,-63,-4,29,-53,-39,-63,-34,-48
4,-4,-9,0,7,-7,4,58,92,58,53,9
229,92,-136,-161,183,-21,-73,214,307,273,219,122
551,287,-263,-419,407,12,-239,341,605,668,561,341
907,546,-361,-727,634,92,-439,497,1010,1132,971,629
1244,829,-414,-1037,829,207,-653,629,1346,1590,1385,951
1488,1019,-468,-1254,978,275,-805,678,1507,1859,1668,1205
1351,907,-444,-1129,897,231,-810,395,1029,1439,1371,1117
1107,366,-741,-736,924,-187,-639,102,82,429,566,653
814,-82,-897,-366,856,-490,-473,-229,-785,-361,-68,268
453,-322,-775,-65,614,-549,-317,-366,-1058,-644,-317,68
263,-395,-658,65,461,-527,-161,-278,-873,-610,-390,-87
131,-322,-453,95,292,-387,-68,-214,-668,-502,-346,-117
39,-244,-283,102,161,-263,-4,-151,-463,-385,-268,-97
-4,-161,-156,82,75,-158,24,-92,-297,-263,-190,-87
-24,-117,-92,70,34,-104,43,-58,-214,-200,-151,-78
-29,-107,-78,68,24,-92,58,-34,-165,-161,-136,-68
-58,-102,-43,80,-7,-73,73,-34,-131,-146,-126,-97
-82,-97,-14,90,-34,-56,73,-34,-107,-141,-122,-112
-82,-97,-14,90,-34,-56,78,-39,-97,-136,-122,-112
-82,-97,-14,90,-34,-56,78,-39,-92,-136,-122,-112
-87,-92,-4,90,-41,-48,82,-39,-92,-131,-117,-112
-97,-92,4,95,-51,-43,82,-39,-87,-131,-117,-112
-97,-92,4,95,-51,-43,82,-39,-82,-131,-117,-112
-97,-92,4,95,-51,-43,82,-39,-78,-126,-117,-117
-97,-92,4,95,-51,-43,82,-39,-78,-131,-122,-117
-97,-92,4,95,-51,-43,82,-39,-78,-136,-126,-117
-102,-92,9,97,-56,-41,82,-34,-68,-136,-126,-117
-102,-87,14,95,-58,-36,82,-34,-68,-136,-126,-117
-102,-87,14,95,-58,-36,82,-34,-68,-131,-126,-122
-102,-87,14,95,-58,-36,82,-34,-68,-131,-126,-122
-102,-92,9,97,-56,-41,87,-29,-68,-131,-126,-117
-102,-97,4,100,-53,-46,87,-29,-63,-131,-126,-117
-102,-97,4,100,-53,-46,87,-29,-58,-131,-126,-117
-102,-97,4,100,-53,-46,87,-29,-58,-131,-126,-117
-102,-92,9,97,-56,-41,87,-29,-53,-126,-126,-117
-102,-82,19,92,-61,-31,87,-29,-48,-117,-126,-117
-107,-82,24,95,-65,-29,87,-24,-48,-117,-122,-117
-107,-82,24,95,-65,-29,87,-24,-34,-112,-122,-117
-102,-78,24,90,-63,-26,87,-14,-34,-112,-122,-112
-97,-78,19,87,-58,-29,87,-9,-24,-107,-117,-112
-97,-78,19,87,-58,-29,87,-4,-19,-107,-117,-112
-97,-73,24,85,-61,-24,92,0,-19,-102,-112,-117
-97,-73,24,85,-61,-24,92,0,-9,-97,-112,-117
-97,-68,29,82,-63,-19,92,0,-4,-97,-107,-112
-92,-63,29,78,-61,-17,92,0,0,-87,-102,-107
-87,-58,29,73,-58,-14,97,4,9,-78,-97,-107
-82,-53,29,68,-56,-12,92,14,24,-73,-92,-102
-78,-48,29,63,-53,-9,92,24,39,-68,-87,-102
-73,-48,24,61,-48,-12,92,29,53,-58,-78,-97
-73,-43,29,58,-51,-7,92,39,68,-43,-68,-97
-68,-39,29,53,-48,-4,92,53,92,-34,-58,-87
-63,-34,29,48,-46,-2,102,68,117,-19,-43,-82
-53,-14,39,34,-46,12,102,78,136,4,-34,-78
-43,4,48,19,-46,26,107,82,161,14,-24,-78
-39,9,48,14,-43,29,112,102,190,39,-14,-68
-34,19,53,7,-43,36,112,122,219,63,4,-58
-19,34,53,-7,-36,43,112,141,248,82,19,-53
-9,43,53,-17,-31,48,112,156,278,107,34,-48
0,53,53,-26,-26,53,112,175,307,131,48,-39
9,63,53,-36,-21,58,117,195,336,151,68,-29
14,73,58,-43,-21,65,112,209,366,170,82,-19
19,78,58,-48,-19,68,107,224,400,195,97,-14
29,82,53,-56,-12,68,107,234,424,214,112,0
39,87,48,-63,-4,68,107,244,453,234,126,4
48,97,48,-73,0,73,102,263,473,253,146,14
63,107,43,-85,9,75,92,273,497,273,161,24
78,122,43,-100,17,82,87,278,522,292,170,34
87,131,43,-109,21,87,82,278,527,302,185,43
102,136,34,-119,34,85,78,283,527,312,200,58
102,141,39,-122,31,90,68,278,527,312,209,68
102,146,43,-124,29,95,58,258,502,312,209,73
102,146,43,-124,29,95,48,234,468,302,204,78
97,146,48,-122,24,97,39,195,424,278,190,78
87,141,53,-114,17,97,29,165,375,248,175,78
82,131,48,-107,17,90,14,136,326,219,151,68
68,117,48,-92,9,82,9,107,273,185,126,53
63,107,43,-85,9,75,4,73,219,146,107,48
48,92,43,-70,2,68,0,43,170,112,87,39
34,73,39,-53,-2,56,-4,24,136,82,73,29
24,58,34,-41,-4,46,-9,9,97,53,58,19
19,48,29,-34,-4,39,-9,-9,58,34,39,9
4,34,29,-19,-12,31,-9,-29,29,9,24,0
0,24,24,-12,-12,24,-9,-34,14,-9,4,-9
-4,19,24,-7,-14,21,-9,-43,-4,-19,-4,-14
-9,14,24,-2,-17,19,-9,-48,-24,-29,-9,-19
-19,9,29,4,-24,19,-9,-58,-34,-43,-19,-29
-19,4,24,7,-21,14,-9,-58,-39,-53,-29,-29
-19,-4,14,12,-17,4,-9,-58,-43,-53,-39,-34
-29,-9,19,19,-24,4,-4,-58,-53,-53,-39,-34
-39,-14,24,26,-31,4,-4,-63,-63,-63,-39,-34
-39,-14,24,26,-31,4,-4,-58,-63,-63,-39,-29
-39,-19,19,29,-29,0,-4,-58,-63,-63,-48,-29
-39,-19,19,29,-29,0,-4,-58,-68,-68,-48,-29
-39,-24,14,31,-26,-4,-4,-58,-68,-68,-48,-29
-43,-24,19,34,-31,-2,-4,-58,-68,-68,-43,-29
-43,-24,19,34,-31,-2,-4,-58,-68,-68,-39,-29
-43,-24,19,34,-31,-2,-4,-58,-68,-73,-43,-34
-43,-29,14,36,-29,-7,0,-58,-68,-73,-43,-39
-43,-29,14,36,-29,-7,0,-58,-68,-73,-48,-39
-43,-29,14,36,-29,-7,0,-53,-68,-73,-53,-39
-43,-24,19,34,-31,-2,0,-53,-68,-78,-53,-39
-43,-24,19,34,-31,-2,0,-53,-68,-82,-53,-43
-48,-29,19,39,-34,-4,0,-58,-73,-87,-53,-43
-53,-29,24,41,-39,-2,4,-63,-73,-87,-53,-43
-53,-29,24,41,-39,-2,4,-63,-68,-82,-58,-43
-53,-29,24,41,-39,-2,4,-63,-68,-78,-58,-43
-53,-34,19,43,-36,-7,4,-58,-73,-78,-58,-39
-58,-39,19,48,-39,-9,4,-58,-73,-78,-58,-34
-58,-39,19,48,-39,-9,4,-58,-73,-78,-53,-34
-58,-39,19,48,-39,-9,9,-53,-73,-78,-48,-39
-53,-39,14,46,-34,-12,9,-53,-68,-73,-48,-39
-48,-39,9,43,-29,-14,9,-53,-63,-68,-48,-39
-53,-39,14,46,-34,-12,9,-53,-68,-73,-48,-39
-53,-39,14,46,-34,-12,9,-58,-68,-73,-48,-39
-53,-34,19,43,-36,-7,9,-58,-63,-68,-43,-39
-53,-29,24,41,-39,-2,9,-53,-63,-68,-39,-39
-53,-29,24,41,-39,-2,9,-53,-63,-63,-39,-39
-53,-29,24,41,-39,-2,9,-53,-63,-63,-39,-39
-53,-29,24,41,-39,-2,9,-53,-63,-58,-39,-39
-53,-29,24,41,-39,-2,9,-53,-63,-53,-39,-39
-53,-29,24,41,-39,-2,9,-48,-58,-53,-39,-43
-53,-29,24,41,-39,-2,9,-43,-48,-53,-39,-43
-53,-29,24,41,-39,-2,9,-39,-48,-58,-39,-39
-53,-29,24,41,-39,-2,9,-39,-43,-58,-34,-39
-53,-34,19,43,-36,-7,9,-39,-48,-58,-34,-39
-48,-29,19,39,-34,-4,9,-34,-48,-53,-29,-34
-43,-29,14,36,-29,-7,4,-34,-48,-48,-29,-34
-39,-29,9,34,-24,-9,0,-39,-48,-48,-29,-39
-34,-14,19,24,-26,2,0,-39,-39,-39,-19,-29
-29,0,29,14,-29,14,0,-39,-29,-29,-9,-19
-29,9,39,9,-34,24,0,-39,-29,-24,-9,-14
-24,24,48,0,-36,36,-4,-39,-19,-14,-4,-4
-24,39,63,-7,-43,51,-9,-39,-14,-9,0,0
-19,48,68,-14,-43,58,-14,-39,-9,0,4,9
-19,53,73,-17,-46,63,-14,-39,-4,0,14,9
-19,53,73,-17,-46,63,-14,-39,-4,0,19,4
-19,53,73,-17,-46,63,-19,-39,0,4,19,4
-14,68,82,-26,-48,75,-34,-39,9,14,29,19
-9,78,87,-34,-48,82,-43,-43,9,14,39,29
-9,87,97,-39,-53,92,-53,-53,-9,9,34,34
-9,97,107,-43,-58,102,-68,-58,-19,9,34,34
-14,97,112,-41,-63,104,-73,-73,-29,0,34,34
-14,97,112,-41,-63,104,-73,-78,-48,-9,29,34
-14,102,117,-43,-65,109,-82,-87,-68,-14,24,34
-4,102,107,-48,-56,104,-92,-87,-68,-19,24,34
4,102,97,-53,-46,100,-97,-87,-68,-19,24,34
19,107,87,-63,-34,97,-102,-87,-68,-19,29,39
29,126,97,-78,-34,112,-102,-87,-58,-14,43,58
24,126,102,-75,-39,114,-97,-82,-63,-4,43,68
19,112,92,-65,-36,102,-87,-82,-73,-9,34,63
0,87,87,-43,-43,87,-68,-82,-78,-29,19,43
-48,48,97,0,-73,73,-39,-78,-82,-48,-9,14
-68,24,92,21,-80,58,-19,-78,-87,-53,-19,-4
-73,0,73,36,-73,36,-14,-78,-92,-58,-29,-19
-73,-14,58,43,-65,21,-4,-73,-102,-63,-34,-39
-73,-43,29,58,-51,-7,4,-68,-107,-78,-58,-58
-68,-68,0,68,-34,-34,19,-68,-117,-92,-68,-68
-73,-68,4,70,-39,-31,19,-73,-122,-92,-78,-78
-73,-68,4,70,-39,-31,24,-73,-122,-97,-78,-78
-73,-68,4,70,-39,-31,24,-73,-122,-97,-78,-78
-73,-73,0,73,-36,-36,24,-68,-122,-102,-78,-73
-78,-78,0,78,-39,-39,24,-63,-122,-107,-78,-73
-78,-82,-4,80,-36,-43,24,-63,-131,-107,-82,-73
-78,-82,-4,80,-36,-43,19,-63,-136,-112,-82,-73
-78,-82,-4,80,-36,-43,19,-63,-141,-112,-87,-73
-78,-87,-9,82,-34,-48,19,-63,-141,-112,-87,-78
-82,-87,-4,85,-39,-46,19,-63,-141,-112,-87,-78
-82,-87,-4,85,-39,-46,24,-63,-141,-112,-87,-78
-82,-82,0,82,-41,-41,24,-68,-141,-117,-87,-82
-82,-78,4,80,-43,-36,24,-73,-141,-117,-92,-82
-82,-78,4,80,-43,-36,24,-73,-136,-117,-92,-82
-82,-78,4,80,-43,-36,24,-73,-136,-112,-87,-78
-82,-78,4,80,-43,-36,24,-68,-131,-107,-87,-78
-82,-78,4,80,-43,-36,24,-63,-126,-102,-87,-78
-82,-63,19,73,-51,-21,14,-63,-112,-92,-78,-68
-87,-34,53,61,-70,9,9,-58,-92,-82,-68,-58
-58,0,58,29,-58,29,-4,-34,-34,-34,-29,-39
0,48,48,-24,-24,48,-39,24,68,63,53,19
126,141,14,-134,56,78,-87,131,253,253,209,117
385,287,-97,-336,241,95,-190,283,522,536,444,268
692,492,-200,-592,446,146,-356,409,824,936,785,502
1034,761,-273,-897,653,244,-556,566,1234,1405,1195,805
1283,893,-390,-1088,836,251,-697,644,1395,1649,1424,1000
1439,932,-507,-1185,973,212,-775,639,1381,1703,1522,1127
1307,775,-531,-1041,919,122,-761,385,854,1254,1205,1000
1068,190,-878,-629,973,-344,-570,122,-141,214,380,497
814,-180,-995,-317,905,-588,-419,-156,-844,-434,-156,161
492,-341,-834,-75,663,-588,-278,-239,-951,-575,-307,9
283,-375,-658,46,470,-517,-141,-190,-780,-541,-356,-107
131,-263,-395,65,263,-329,-68,-165,-590,-434,-287,-97
39,-195,-234,78,136,-214,-14,-126,-419,-331,-224,-78
-4,-122,-117,63,56,-119,4,-92,-287,-224,-161,-68
-34,-82,-48,58,7,-65,19,-73,-219,-180,-126,-68
-48,-78,-29,63,-9,-53,29,-63,-185,-161,-117,-68
-82,-87,-4,85,-39,-46,48,-63,-161,-151,-117,-92
-112,-97,14,104,-63,-41,53,-63,-146,-151,-122,-102
-112,-97,14,104,-63,-41,58,-63,-141,-151,-126,-102
-112,-97,14,104,-63,-41,58,-58,-141,-156,-131,-102
-112,-92,19,102,-65,-36,63,-58,-141,-151,-126,-102
-117,-92,24,104,-70,-34,63,-58,-136,-151,-126,-102
-117,-92,24,104,-70,-34,68,-58,-136,-146,-126,-102
-117,-92,24,104,-70,-34,73,-58,-136,-136,-126,-107
-117,-92,24,104,-70,-34,73,-58,-136,-136,-126,-107
-117,-92,24,104,-70,-34,73,-58,-136,-136,-126,-107
-122,-97,24,109,-73,-36,73,-53,-126,-141,-122,-107
-122,-97,24,109,-73,-36,73,-53,-126,-146,-117,-107
-122,-97,24,109,-73,-36,73,-53,-126,-141,-117,-112
-122,-97,24,109,-73,-36,73,-53,-126,-141,-117,-112
-122,-97,24,109,-73,-36,78,-48,-126,-141,-122,-107
-122,-97,24,109,-73,-36,78,-48,-122,-141,-126,-107
-126,-97,29,112,-78,-34,78,-48,-117,-141,-126,-107
-131,-97,34,114,-82,-31,78,-48,-117,-141,-126,-107
-131,-97,34,114,-82,-31,78,-48,-112,-141,-122,-107
-131,-92,39,112,-85,-26,78,-48,-107,-136,-117,-107
-131,-92,39,112,-85,-26,78,-43,-107,-131,-112,-107
-126,-92,34,109,-80,-29,78,-43,-92,-122,-112,-107
-126,-87,39,107,-82,-24,78,-39,-92,-122,-112,-102
-126,-87,39,107,-82,-24,78,-39,-82,-117,-107,-102
-126,-87,39,107,-82,-24,78,-34,-73,-117,-107,-102
-126,-82,43,104,-85,-19,82,-29,-68,-112,-102,-107
-126,-82,43,104,-85,-19,82,-24,-58,-102,-102,-107
-126,-78,48,102,-87,-14,82,-19,-53,-97,-97,-102
-122,-68,53,95,-87,-7,82,-14,-43,-87,-92,-92
-117,-58,58,87,-87,0,87,-4,-29,-78,-87,-87
-117,-53,63,85,-90,4,87,4,-9,-73,-82,-82
-117,-48,68,82,-92,9,92,14,9,-68,-78,-82
-112,-48,63,80,-87,7,92,19,24,-58,-68,-78
-112,-43,68,78,-90,12,92,29,39,-43,-58,-78
-107,-39,68,73,-87,14,97,43,68,-34,-48,-68
-102,-34,68,68,-85,17,112,58,97,-19,-34,-63
-92,-24,68,58,-80,21,112,73,117,9,-24,-58
-82,-14,68,48,-75,26,117,82,141,24,-14,-58
-78,-9,68,43,-73,29,122,102,170,43,-4,-48
-73,0,73,36,-73,36,122,122,200,63,14,-39
-58,14,73,21,-65,43,122,141,229,82,29,-34
-48,24,73,12,-61,48,122,156,258,107,43,-29
-39,34,73,2,-56,53,122,175,287,136,58,-19
-29,43,73,-7,-51,58,126,195,317,161,78,-9
-19,58,78,-19,-48,68,122,204,346,180,92,0
-9,68,78,-29,-43,73,117,214,380,204,107,4
4,78,73,-41,-34,75,117,229,405,224,122,19
19,87,68,-53,-24,78,117,244,434,244,136,24
24,97,73,-61,-24,85,112,263,448,263,156,34
34,107,73,-70,-19,90,102,273,468,283,170,43
43,122,78,-82,-17,100,97,273,492,297,180,53
48,131,82,-90,-17,107,92,268,497,302,195,63
63,131,68,-97,-2,100,82,263,483,307,200,73
63,131,68,-97,-2,100,68,248,468,302,200,78
63,136,73,-100,-4,104,58,229,439,292,195,82
63,136,73,-100,-4,104,48,204,400,273,185,87
63,131,68,-97,-2,100,34,165,356,248,170,82
58,122,63,-90,-2,92,19,136,307,219,156,78
53,112,58,-82,-2,85,4,107,258,195,136,73
39,97,58,-68,-9,78,0,78,204,165,117,63
34,87,53,-61,-9,70,-4,48,151,126,97,58
19,73,53,-46,-17,63,-9,24,102,92,78,48
4,53,48,-29,-21,51,-9,4,68,68,58,39
-4,39,43,-17,-24,41,-9,-9,29,43,39,29
-4,29,34,-12,-19,31,-9,-24,-4,24,19,19
-14,14,29,0,-21,21,-9,-39,-29,0,4,9
-19,0,19,9,-19,9,-14,-43,-43,-19,-9,0
-24,-9,14,17,-19,2,-19,-53,-63,-29,-14,-4
-29,-14,14,21,-21,0,-19,-58,-78,-34,-19,-9
-39,-19,19,29,-29,0,-19,-68,-82,-43,-29,-19
-39,-24,14,31,-26,-4,-19,-68,-87,-53,-34,-19
-39,-34,4,36,-21,-14,-19,-68,-92,-53,-39,-24
-43,-29,14,36,-29,-7,-14,-68,-97,-53,-39,-24
-48,-24,24,36,-36,0,-14,-73,-102,-63,-39,-24
-48,-24,24,36,-36,0,-14,-68,-102,-63,-39,-19
-48,-29,19,39,-34,-4,-14,-68,-102,-63,-48,-19
-48,-29,19,39,-34,-4,-9,-68,-107,-68,-48,-19
-48,-34,14,41,-31,-9,-4,-68,-107,-68,-48,-19
-53,-34,19,43,-36,-7,-4,-68,-107,-68,-48,-24
-53,-34,19,43,-36,-7,-4,-68,-107,-68,-48,-29
-53,-34,19,43,-36,-7,-4,-68,-107,-73,-53,-29
-53,-39,14,46,-34,-12,0,-68,-107,-73,-53,-29
-53,-39,14,46,-34,-12,0,-68,-107,-73,-53,-29
-53,-39,14,46,-34,-12,0,-63,-107,-73,-53,-29
-53,-34,19,43,-36,-7,0,-63,-107,-73,-53,-29
-53,-34,19,43,-36,-7,0,-63,-107,-73,-53,-34
-53,-39,14,46,-34,-12,-4,-63,-112,-78,-53,-34
-53,-39,14,46,-34,-12,-4,-63,-112,-78,-53,-34
-53,-39,14,46,-34,-12,-4,-63,-107,-78,-58,-34
-53,-39,14,46,-34,-12,-4,-63,-107,-78,-58,-34
-53,-39,14,46,-34,-12,-4,-63,-112,-78,-58,-34
-58,-39,19,48,-39,-9,-4,-68,-112,-78,-58,-34
-58,-39,19,48,-39,-9,-4,-68,-112,-78,-58,-34
-58,-39,19,48,-39,-9,0,-63,-112,-78,-58,-39
-58,-39,19,48,-39,-9,0,-63,-107,-78,-58,-39
-58,-39,19,48,-39,-9,0,-63,-102,-78,-58,-39
-63,-39,24,51,-43,-7,0,-63,-107,-82,-58,-39
-63,-39,24,51,-43,-7,0,-68,-107,-82,-58,-39
-63,-39,24,51,-43,-7,4,-68,-102,-78,-58,-39
-63,-39,24,51,-43,-7,9,-63,-102,-78,-58,-39
-63,-43,19,53,-41,-12,9,-63,-102,-73,-58,-39
-63,-48,14,56,-39,-17,9,-63,-102,-73,-58,-39
-63,-48,14,56,-39,-17,9,-63,-102,-73,-58,-39
-63,-48,14,56,-39,-17,9,-63,-102,-73,-58,-39
-63,-48,14,56,-39,-17,9,-63,-102,-73,-58,-43
-63,-48,14,56,-39,-17,9,-63,-97,-73,-58,-43
-63,-48,14,56,-39,-17,9,-58,-97,-73,-63,-39
-63,-48,14,56,-39,-17,9,-58,-92,-68,-63,-39
-63,-53,9,58,-36,-21,9,-63,-97,-68,-63,-39
-63,-53,9,58,-36,-21,9,-68,-97,-68,-63,-39
-58,-48,9,53,-34,-19,9,-63,-97,-68,-58,-34
-58,-48,9,53,-34,-19,9,-63,-92,-68,-58,-34
-58,-39,19,48,-39,-9,9,-58,-82,-63,-53,-29
-58,-29,29,43,-43,0,9,-58,-78,-58,-48,-29
-58,-29,29,43,-43,0,9,-53,-73,-58,-48,-29
-58,-29,29,43,-43,0,9,-48,-68,-58,-48,-29
-58,-14,43,36,-51,14,4,-48,-68,-48,-39,-24
-53,4,58,24,-56,31,0,-48,-58,-39,-29,-14
-53,24,78,14,-65,51,-4,-48,-53,-29,-19,-4
-48,39,87,4,-68,63,-4,-48,-48,-19,-14,9
-43,43,87,0,-65,65,-4,-48,-43,-19,-9,9
-39,43,82,-2,-61,63,-4,-48,-43,-19,-9,4
-39,43,82,-2,-61,63,-4,-48,-39,-14,-9,0
-34,58,92,-12,-63,75,-14,-48,-29,-4,0,9
-29,68,97,-19,-63,82,-24,-53,-19,0,14,19
-29,78,107,-24,-68,92,-34,-63,-29,0,14,24
-29,87,117,-29,-73,102,-53,-68,-39,0,14,24
-34,87,122,-26,-78,104,-63,-82,-48,-9,14,24
-34,78,112,-21,-73,95,-63,-87,-68,-19,9,24
-34,73,107,-19,-70,90,-73,-97,-87,-24,4,24
-24,73,97,-24,-61,85,-82,-97,-97,-29,4,24
-14,73,87,-29,-51,80,-87,-97,-107,-29,4,24
0,82,82,-41,-41,82,-92,-97,-107,-29,4,29
9,107,97,-58,-43,102,-92,-97,-97,-24,14,48
14,122,107,-68,-46,114,-92,-92,-92,-9,24,63
19,122,102,-70,-41,112,-87,-92,-92,-9,24,63
0,92,92,-46,-46,92,-68,-92,-97,-29,9,43
-48,48,97,0,-73,73,-39,-87,-102,-48,-19,14
-68,24,92,21,-80,58,-19,-87,-107,-53,-29,4
-73,0,73,36,-73,36,-14,-87,-112,-58,-39,0
-73,-19,53,46,-63,17,-9,-82,-122,-68,-48,-19
-73,-53,19,63,-46,-17,-4,-78,-126,-87,-78,-39
-73,-82,-9,78,-31,-46,9,-73,-136,-107,-87,-53
-82,-87,-4,85,-39,-46,9,-73,-141,-112,-97,-68
-82,-87,-4,85,-39,-46,14,-73,-146,-117,-92,-68
-82,-87,-4,85,-39,-46,14,-73,-151,-117,-87,-68
-82,-87,-4,85,-39,-46,19,-73,-151,-117,-87,-68
-87,-87,0,87,-43,-43,24,-73,-151,-117,-87,-73
-87,-92,-4,90,-41,-48,29,-73,-151,-117,-92,-73
-87,-92,-4,90,-41,-48,29,-73,-146,-122,-92,-73
-87,-92,-4,90,-41,-48,29,-73,-151,-122,-97,-73
-87,-97,-9,92,-39,-53,29,-73,-151,-122,-97,-78
-92,-97,-4,95,-43,-51,24,-78,-151,-122,-97,-78
-92,-97,-4,95,-43,-51,24,-82,-151,-122,-97,-78
-92,-97,-4,95,-43,-51,24,-82,-151,-126,-97,-82
-92,-97,-4,95,-43,-51,24,-82,-151,-126,-102,-82
-92,-97,-4,95,-43,-51,29,-82,-146,-126,-102,-82
-92,-97,-4,95,-43,-51,34,-82,-146,-122,-97,-78
-92,-97,-4,95,-43,-51,34,-78,-146,-122,-97,-73
-92,-97,-4,95,-43,-51,34,-73,-146,-122,-97,-68
-92,-87,4,90,-48,-41,24,-78,-141,-112,-92,-63
-97,-63,34,80,-65,-14,19,-78,-131,-102,-87,-58
-107,-39,68,73,-87,14,19,-87,-112,-92,-78,-63
-87,0,87,43,-87,43,0,-63,-48,-34,-24,-29
-43,53,97,-4,-70,75,-14,9,68,68,53,24
131,161,29,-146,51,95,-82,126,268,263,209,131
405,346,-58,-375,231,143,-244,229,527,614,507,331
712,595,-117,-653,414,239,-439,361,893,1034,873,600
1098,883,-214,-990,656,334,-629,595,1385,1605,1361,932
1390,1078,-312,-1234,851,383,-756,746,1703,1986,1717,1195
1415,1054,-361,-1234,888,346,-814,580,1420,1771,1590,1210
1332,600,-732,-966,1032,-65,-697,405,668,966,956,849
1078,73,-1005,-575,1041,-466,-556,9,-458,-24,195,414
756,-244,-1000,-256,878,-622,-424,-190,-990,-507,-180,165
478,-346,-824,-65,651,-585,-248,-175,-858,-527,-297,-4
258,-302,-561,21,409,-431,-136,-185,-707,-473,-297,-48
122,-224,-346,51,234,-285,-73,-156,-512,-370,-234,-39
34,-141,-175,53,104,-158,-43,-131,-356,-263,-170,-39
-4,-97,-92,51,43,-95,-19,-97,-273,-204,-136,-39
-29,-87,-58,58,14,-73,0,-73,-224,-170,-126,-39
-73,-97,-24,85,-24,-61,34,-68,-185,-161,-126,-78
-112,-107,4,109,-58,-51,53,-63,-156,-161,-131,-102
-112,-107,4,109,-58,-51,58,-63,-151,-156,-131,-102
-112,-107,4,109,-58,-51,58,-58,-151,-156,-131,-102
-117,-102,14,109,-65,-43,63,-58,-151,-151,-126,-102
-126,-102,24,114,-75,-39,63,-58,-146,-151,-126,-102
-126,-102,24,114,-75,-39,68,-58,-141,-151,-126,-102
-126,-102,24,114,-75,-39,73,-58,-136,-146,-126,-107
-126,-102,24,114,-75,-39,73,-58,-136,-146,-131,-107
-126,-102,24,114,-75,-39,73,-58,-136,-146,-136,-107
-131,-102,29,117,-80,-36,73,-53,-126,-146,-136,-107
-131,-97,34,114,-82,-31,73,-53,-126,-146,-136,-107
-131,-97,34,114,-82,-31,73,-53,-126,-141,-136,-112
-131,-97,34,114,-82,-31,73,-53,-126,-141,-136,-112
-131,-97,34,114,-82,-31,78,-48,-126,-141,-136,-107
-131,-97,34,114,-82,-31,78,-48,-122,-141,-136,-107
-131,-97,34,114,-82,-31,78,-48,-112,-141,-136,-107
-131,-97,34,114,-82,-31,78,-48,-107,-141,-136,-107
-131,-97,34,114,-82,-31,78,-48,-102,-141,-131,-107
-131,-92,39,112,-85,-26,78,-48,-97,-136,-126,-107
-136,-92,43,114,-90,-24,78,-43,-97,-136,-122,-107
-136,-92,43,114,-90,-24,78,-43,-82,-131,-122,-107
-136,-82,53,109,-95,-14,78,-39,-87,-131,-122,-102
-136,-78,58,107,-97,-9,78,-39,-82,-126,-117,-102
-136,-78,58,107,-97,-9,78,-34,-73,-126,-122,-102
-136,-73,63,104,-100,-4,82,-29,-68,-122,-122,-107
-136,-78,58,107,-97,-9,82,-24,-58,-112,-122,-107
-136,-78,58,107,-97,-9,82,-19,-53,-107,-117,-102
-136,-73,63,104,-100,-4,82,-14,-43,-97,-112,-97
-136,-68,68,102,-102,0,87,-4,-29,-87,-107,-97
-136,-63,73,100,-104,4,87,4,-14,-82,-102,-92
-136,-58,78,97,-107,9,92,14,0,-78,-97,-92
-131,-53,78,92,-104,12,97,19,14,-68,-82,-87
-131,-43,87,87,-109,21,102,29,29,-53,-68,-87
-126,-39,87,82,-107,24,102,43,53,-43,-63,-78
-122,-34,87,78,-104,26,112,58,78,-29,-53,-73
-112,-24,87,68,-100,31,112,68,102,-4,-43,-68
-102,-14,87,58,-95,36,117,73,131,4,-34,-68
-102,-9,92,56,-97,41,122,92,161,24,-24,-58
-102,0,102,51,-102,51,122,112,190,43,-4,-48
-87,14,102,36,-95,58,122,131,219,63,9,-43
-78,24,102,26,-90,63,122,146,248,87,24,-39
-68,34,102,17,-85,68,122,165,278,112,39,-34
-58,43,102,7,-80,73,126,185,307,131,58,-29
-48,58,107,-4,-78,82,126,200,341,151,73,-19
-39,68,107,-14,-73,87,126,214,380,175,87,-14
-24,78,102,-26,-63,90,126,229,405,195,102,0
-9,87,97,-39,-53,92,126,244,434,214,117,4
0,97,97,-48,-48,97,126,263,453,234,136,14
14,107,92,-61,-39,100,122,273,478,253,151,24
29,117,87,-73,-29,102,117,278,502,278,161,34
39,122,82,-80,-21,102,112,278,507,292,175,43
53,126,73,-90,-9,100,102,283,507,302,185,53
53,131,78,-92,-12,104,87,278,507,302,190,58
58,141,82,-100,-12,112,73,258,483,297,190,68
63,146,82,-104,-9,114,58,234,448,283,185,78
63,141,78,-102,-7,109,43,200,405,258,175,78
58,131,73,-95,-7,102,29,175,356,229,165,78
53,122,68,-87,-7,95,9,146,307,204,146,73
39,107,68,-73,-14,87,0,117,253,175,126,63
34,97,63,-65,-14,80,-4,82,195,136,107,58
19,82,63,-51,-21,73,-9,53,141,102,87,48
4,63,58,-34,-26,61,-14,29,107,78,68,39
-4,48,53,-21,-29,51,-19,9,68,53,48,29
-9,39,48,-14,-29,43,-19,-9,29,34,29,19
-24,24,48,0,-36,36,-19,-29,0,9,14,9
-29,9,39,9,-34,24,-19,-34,-14,-9,-4,0
-34,0,34,17,-34,17,-19,-43,-34,-19,-14,-4
-34,-4,29,19,-31,12,-19,-48,-53,-29,-19,-9
-39,-9,29,24,-34,9,-19,-58,-63,-43,-29,-19
-39,-14,24,26,-31,4,-19,-58,-68,-53,-34,-19
-39,-24,14,31,-26,-4,-19,-58,-73,-53,-39,-24
-43,-29,14,36,-29,-7,-14,-58,-82,-53,-39,-24
-48,-34,14,41,-31,-9,-14,-63,-92,-63,-39,-24
-48,-34,14,41,-31,-9,-14,-63,-92,-63,-39,-24
-48,-39,9,43,-29,-14,-14,-68,-92,-63,-48,-29
-48,-39,9,43,-29,-14,-14,-68,-92,-68,-48,-29
-48,-43,4,46,-26,-19,-14,-68,-87,-68,-48,-29
-53,-43,9,48,-31,-17,-14,-68,-87,-68,-48,-29
-53,-43,9,48,-31,-17,-14,-68,-87,-68,-48,-29
-53,-43,9,48,-31,-17,-14,-68,-92,-73,-53,-29
-53,-48,4,51,-29,-21,-9,-68,-97,-73,-53,-29
-53,-48,4,51,-29,-21,-9,-68,-97,-73,-53,-29
-53,-48,4,51,-29,-21,-9,-63,-97,-73,-53,-29
-53,-39,14,46,-34,-12,-9,-63,-97,-73,-53,-29
-53,-34,19,43,-36,-7,-9,-63,-97,-73,-53,-34
-53,-39,14,46,-34,-12,-9,-63,-102,-78,-53,-34
-53,-39,14,46,-34,-12,-4,-63,-102,-78,-53,-34
-53,-39,14,46,-34,-12,-4,-58,-97,-78,-58,-34
-53,-39,14,46,-34,-12,-4,-53,-97,-78,-58,-34
-53,-43,9,48,-31,-17,-4,-53,-97,-78,-58,-34
-58,-48,9,53,-34,-19,-4,-58,-92,-78,-58,-34
-58,-48,9,53,-34,-19,-4,-63,-92,-78,-58,-34
-58,-48,9,53,-34,-19,0,-63,-92,-78,-58,-39
-58,-48,9,53,-34,-19,0,-63,-92,-73,-58,-39
-58,-48,9,53,-34,-19,0,-63,-92,-68,-58,-39
-63,-48,14,56,-39,-17,0,-63,-97,-73,-58,-39
-63,-48,14,56,-39,-17,0,-68,-97,-73,-58,-39
-63,-48,14,56,-39,-17,0,-68,-92,-73,-58,-39
-63,-48,14,56,-39,-17,0,-63,-92,-78,-58,-39
-68,-48,19,58,-43,-14,0,-63,-92,-73,-58,-39
-73,-48,24,61,-48,-12,0,-63,-92,-73,-58,-39
-73,-43,29,58,-51,-7,0,-63,-92,-73,-58,-39
-73,-39,34,56,-53,-2,0,-63,-92,-73,-58,-39
-73,-39,34,56,-53,-2,0,-63,-97,-73,-58,-48
-73,-39,34,56,-53,-2,0,-63,-97,-73,-58,-53
-73,-39,34,56,-53,-2,0,-58,-97,-73,-58,-48
-73,-39,34,56,-53,-2,0,-58,-92,-68,-53,-48
-73,-43,29,58,-51,-7,0,-58,-92,-68,-53,-48
-73,-43,29,58,-51,-7,0,-58,-87,-68,-53,-48
-68,-43,24,56,-46,-9,0,-53,-87,-68,-48,-43
-68,-48,19,58,-43,-14,0,-53,-82,-73,-48,-43
-68,-48,19,58,-43,-14,0,-53,-87,-73,-53,-43
-63,-43,19,53,-41,-12,0,-53,-87,-73,-58,-43
-68,-48,19,58,-43,-14,0,-53,-92,-73,-63,-48
-68,-48,19,58,-43,-14,-9,-58,-92,-73,-63,-43
-68,-48,19,58,-43,-14,-4,-58,-87,-73,-63,-39
-68,-48,19,58,-43,-14,0,-58,-87,-73,-63,-39
-68,-43,24,56,-46,-9,0,-58,-87,-68,-58,-39
-68,-39,29,53,-48,-4,0,-58,-87,-68,-58,-39
-63,-29,34,46,-48,2,-4,-53,-78,-58,-48,-34
-58,-19,39,39,-48,9,-9,-48,-68,-48,-39,-29
-58,4,63,26,-61,34,-9,-48,-63,-43,-29,-24
-53,19,73,17,-63,46,-9,-48,-53,-34,-19,-14
-48,39,87,4,-68,63,-14,-53,-48,-29,-14,-9
-48,43,92,2,-70,68,-14,-58,-43,-29,-9,-9
-48,43,92,2,-70,68,-14,-58,-43,-29,-9,-14
-48,43,92,2,-70,68,-14,-58,-39,-24,-9,-14
-43,48,92,-2,-68,70,-24,-53,-29,-14,-4,4
-34,48,82,-7,-58,65,-34,-53,-19,-9,4,19
-24,58,82,-17,-53,70,-43,-63,-29,-9,4,24
-19,68,87,-24,-53,78,-63,-68,-39,-9,4,24
-24,68,92,-21,-58,80,-73,-82,-48,-19,4,19
-24,63,87,-19,-56,75,-73,-87,-68,-29,-4,14
-24,63,87,-19,-56,75,-78,-97,-87,-34,-14,14
-14,63,78,-24,-46,70,-82,-97,-97,-39,-14,14
-4,63,68,-29,-36,65,-87,-97,-107,-39,-14,19
9,73,63,-41,-26,68,-92,-97,-107,-39,-9,29
24,102,78,-63,-26,90,-97,-97,-92,-29,9,48
29,122,92,-75,-31,107,-102,-92,-82,-9,24,63
29,126,97,-78,-34,112,-97,-92,-82,-9,24,63
9,97,87,-53,-39,92,-78,-92,-87,-29,9,43
-39,48,87,-4,-63,68,-48,-92,-92,-48,-19,14
-58,24,82,17,-70,53,-29,-97,-97,-53,-29,0
-68,0,68,34,-68,34,-24,-97,-102,-58,-39,-9
-73,-19,53,46,-63,17,-14,-92,-112,-68,-43,-29
-73,-58,14,65,-43,-21,-4,-82,-117,-87,-68,-48
-73,-87,-14,80,-29,-51,9,-73,-126,-102,-78,-58
-82,-87,-4,85,-39,-46,14,-73,-131,-102,-87,-68
-82,-87,-4,85,-39,-46,24,-73,-131,-107,-87,-68
-82,-87,-4,85,-39,-46,24,-73,-131,-107,-87,-68
-82,-92,-9,87,-36,-51,24,-73,-131,-107,-87,-68
-87,-92,-4,90,-41,-48,24,-73,-131,-107,-87,-73
-87,-92,-4,90,-41,-48,29,-73,-136,-107,-92,-73
-92,-92,0,92,-46,-46,29,-73,-136,-112,-92,-73
-97,-92,4,95,-51,-43,29,-73,-141,-112,-97,-73
-97,-97,0,97,-48,-48,29,-73,-141,-112,-97,-78
-102,-97,4,100,-53,-46,29,-73,-141,-112,-97,-78
-102,-102,0,102,-51,-51,34,-73,-141,-112,-97,-78
-102,-107,-4,104,-48,-56,34,-73,-141,-117,-97,-82
-102,-107,-4,104,-48,-56,34,-73,-141,-117,-102,-82
-102,-107,-4,104,-48,-56,34,-73,-136,-117,-102,-82
-97,-107,-9,102,-43,-58,34,-73,-136,-112,-97,-78
-92,-107,-14,100,-39,-61,34,-73,-136,-112,-97,-78
-92,-107,-14,100,-39,-61,34,-73,-136,-112,-97,-78
-92,-97,-4,95,-43,-51,24,-78,-131,-107,-92,-73
-97,-73,24,85,-61,-24,19,-82,-122,-102,-87,-68
-107,-53,53,80,-80,0,19,-87,-102,-92,-78,-68
-112,-19,92,65,-102,36,4,-68,-43,-43,-34,-34
-48,34,82,7,-65,58,-14,9,73,58,43,19
126,141,14,-134,56,78,-87,117,239,229,180,117
390,326,-63,-358,226,131,-248,214,478,556,458,302
732,566,-165,-649,448,200,-439,380,873,995,834,561
1068,810,-258,-939,663,275,-619,551,1234,1454,1224,844
1400,1073,-326,-1237,863,373,-780,722,1634,1927,1664,1180
1424,1088,-336,-1256,880,375,-844,580,1459,1815,1629,1244
1322,536,-785,-929,1054,-124,-707,361,522,824,854,790
1112,53,-1058,-583,1085,-502,-566,34,-458,-58,156,380
732,-244,-976,-244,854,-610,-424,-190,-907,-468,-175,161
458,-380,-839,-39,649,-610,-258,-209,-883,-556,-322,-9
244,-312,-556,34,400,-434,-146,-200,-707,-463,-287,-48
97,-234,-331,68,214,-283,-73,-175,-512,-361,-234,-48
19,-151,-170,65,95,-161,-43,-141,-351,-253,-170,-43
-24,-107,-82,65,29,-95,-19,-107,-263,-195,-131,-48
-39,-97,-58,68,9,-78,9,-78,-209,-161,-122,-48
-73,-107,-34,90,-19,-70,43,-68,-170,-151,-126,-78
-102,-117,-14,109,-43,-65,58,-63,-146,-151,-131,-97
-102,-117,-14,109,-43,-65,68,-63,-141,-146,-131,-102
-102,-117,-14,109,-43,-65,68,-58,-141,-146,-131,-102
-107,-112,-4,109,-51,-58,73,-58,-141,-141,-126,-102
-122,-112,9,117,-65,-51,73,-58,-136,-141,-126,-102
-126,-112,14,119,-70,-48,78,-58,-131,-141,-126,-102
-126,-112,14,119,-70,-48,82,-58,-126,-136,-126,-107
-126,-112,14,119,-70,-48,82,-58,-126,-136,-126,-107
-126,-112,14,119,-70,-48,82,-58,-126,-136,-126,-107
-131,-112,19,122,-75,-46,82,-53,-117,-136,-126,-107
-131,-107,24,119,-78,-41,82,-53,-117,-136,-126,-107
-131,-107,24,119,-78,-41,82,-53,-117,-131,-126,-112
-131,-107,24,119,-78,-41,82,-53,-117,-131,-126,-112
-131,-107,24,119,-78,-41,87,-48,-117,-131,-126,-107
-131,-102,29,117,-80,-36,87,-48,-107,-131,-126,-107
-131,-97,34,114,-82,-31,87,-48,-97,-131,-126,-107
-131,-97,34,114,-82,-31,87,-48,-97,-131,-126,-107
-131,-97,34,114,-82,-31,87,-48,-92,-131,-126,-107
-131,-97,34,114,-82,-31,87,-48,-87,-126,-126,-107
-136,-102,34,119,-85,-34,87,-43,-87,-126,-122,-107
-136,-102,34,119,-85,-34,87,-43,-73,-122,-122,-107
-136,-97,39,117,-87,-29,87,-39,-73,-122,-122,-102
-136,-97,39,117,-87,-29,87,-39,-63,-117,-117,-102
-136,-97,39,117,-87,-29,87,-34,-53,-117,-117,-102
-136,-92,43,114,-90,-24,92,-29,-48,-112,-112,-102
-136,-92,43,114,-90,-24,92,-24,-39,-102,-112,-97
-136,-87,48,112,-92,-19,92,-19,-34,-97,-107,-92
-131,-82,48,107,-90,-17,92,-14,-24,-87,-102,-87
-131,-78,53,104,-92,-12,97,-4,-9,-78,-97,-87
-136,-73,63,104,-100,-4,97,4,4,-73,-92,-82
-136,-68,68,102,-102,0,102,14,19,-68,-87,-82
-131,-63,68,97,-100,2,102,19,34,-58,-78,-78
-131,-53,78,92,-104,12,102,29,48,-43,-68,-78
-126,-48,78,87,-102,14,102,43,73,-34,-63,-68
-122,-43,78,82,-100,17,112,58,97,-19,-53,-63
-112,-34,78,73,-95,21,112,73,117,4,-43,-58
-102,-24,78,63,-90,26,117,82,141,14,-34,-63
-97,-19,78,58,-87,29,122,102,170,34,-24,-58
-97,-9,87,53,-92,39,126,122,200,53,-9,-48
-87,4,92,41,-90,48,131,141,229,73,0,-43
-78,14,92,31,-85,53,131,156,258,97,14,-39
-68,24,92,21,-80,58,131,175,287,122,29,-29
-58,34,92,12,-75,63,136,195,317,141,48,-19
-48,48,97,0,-73,73,136,209,346,161,63,-9
-39,58,97,-9,-68,78,136,224,380,185,78,-4
-24,68,92,-21,-58,80,136,239,405,204,92,9
-4,78,82,-36,-43,80,141,253,434,224,107,14
9,87,78,-48,-34,82,141,273,453,244,126,24
24,97,73,-61,-24,85,131,287,478,263,141,34
39,112,73,-75,-17,92,126,297,502,283,151,43
53,122,68,-87,-7,95,122,297,512,292,165,53
73,126,53,-100,9,90,112,297,517,302,175,63
73,131,58,-102,7,95,97,292,517,307,185,68
73,136,63,-104,4,100,87,278,492,307,190,73
73,136,63,-104,4,100,68,253,458,292,185,78
73,131,58,-102,7,95,43,214,414,268,175,78
68,122,53,-95,7,87,29,185,366,239,170,82
63,112,48,-87,7,80,14,156,317,214,156,82
53,102,48,-78,2,75,9,126,263,190,136,73
53,97,43,-75,4,70,4,92,209,156,117,68
39,82,43,-61,-2,63,0,58,156,122,97,58
24,63,39,-43,-7,51,-4,34,117,97,78,48
9,48,39,-29,-14,43,-14,19,78,68,53,39
0,39,39,-19,-19,39,-19,0,39,43,29,29
-14,24,39,-4,-26,31,-19,-19,9,19,14,19
-19,9,29,4,-24,19,-19,-24,-4,0,-4,9
-24,-4,19,14,-21,7,-19,-39,-29,-9,-14,4
-29,-14,14,21,-21,0,-19,-48,-53,-19,-19,0
-39,-19,19,29,-29,0,-19,-58,-63,-34,-29,-14
-39,-24,14,31,-26,-4,-19,-58,-68,-43,-34,-19
-39,-34,4,36,-21,-14,-19,-58,-73,-48,-39,-24
-43,-34,9,39,-26,-12,-14,-58,-78,-53,-39,-24
-48,-34,14,41,-31,-9,-14,-63,-82,-63,-39,-24
-48,-34,14,41,-31,-9,-14,-63,-82,-63,-39,-24
-48,-39,9,43,-29,-14,-14,-68,-82,-63,-48,-29
-48,-39,9,43,-29,-14,-14,-68,-87,-68,-48,-29
-48,-43,4,46,-26,-19,-14,-68,-87,-68,-48,-29
-53,-43,9,48,-31,-17,-14,-68,-87,-68,-48,-29
-53,-43,9,48,-31,-17,-14,-68,-87,-68,-48,-29
-53,-43,9,48,-31,-17,-14,-68,-87,-73,-53,-29
-53,-48,4,51,-29,-21,-9,-68,-87,-73,-53,-29
-53,-48,4,51,-29,-21,-9,-68,-87,-73,-53,-29
-53,-48,4,51,-29,-21,-9,-63,-87,-73,-53,-29
-53,-43,9,48,-31,-17,-9,-63,-87,-73,-53,-29
-53,-43,9,48,-31,-17,-14,-63,-87,-73,-53,-34
-53,-48,4,51,-29,-21,-19,-63,-92,-78,-53,-34
-53,-48,4,51,-29,-21,-14,-68,-92,-78,-53,-34
-53,-48,4,51,-29,-21,-14,-73,-87,-78,-58,-34
-53,-43,9,48,-31,-17,-14,-73,-87,-78,-58,-34
-53,-39,14,46,-34,-12,-14,-73,-92,-78,-58,-34
-58,-39,19,48,-39,-9,-14,-73,-92,-78,-58,-34
-58,-39,19,48,-39,-9,-14,-68,-92,-78,-58,-34
-58,-39,19,48,-39,-9,-9,-63,-92,-78,-58,-39
-58,-39,19,48,-39,-9,-9,-63,-92,-78,-58,-39
-58,-39,19,48,-39,-9,-9,-63,-92,-78,-58,-39
-63,-39,24,51,-43,-7,-9,-63,-97,-82,-58,-39
-63,-39,24,51,-43,-7,-9,-73,-97,-82,-58,-39
-63,-39,24,51,-43,-7,-9,-78,-92,-78,-58,-39
-63,-39,24,51,-43,-7,-9,-73,-92,-82,-58,-39
-63,-39,24,51,-43,-7,-9,-73,-92,-82,-58,-39
-63,-39,24,51,-43,-7,-9,-68,-92,-82,-58,-39
-63,-39,24,51,-43,-7,-9,-63,-92,-82,-58,-39
-63,-39,24,51,-43,-7,-9,-63,-97,-82,-58,-39
-63,-39,24,51,-43,-7,-9,-63,-102,-82,-58,-43
-63,-39,24,51,-43,-7,-9,-63,-97,-82,-58,-43
-63,-39,24,51,-43,-7,-9,-58,-97,-82,-58,-39
-63,-39,24,51,-43,-7,-9,-63,-92,-78,-58,-39
-63,-43,19,53,-41,-12,-9,-68,-92,-78,-63,-39
-68,-48,19,58,-43,-14,-4,-68,-92,-78,-68,-39
-68,-48,19,58,-43,-14,0,-63,-97,-73,-68,-34
-68,-48,19,58,-43,-14,0,-63,-92,-78,-68,-39
-68,-48,19,58,-43,-14,0,-63,-92,-78,-68,-43
-63,-48,14,56,-39,-17,0,-63,-87,-73,-68,-43
-63,-53,9,58,-36,-21,0,-58,-87,-73,-68,-43
-63,-53,9,58,-36,-21,0,-58,-92,-73,-68,-43
-68,-48,19,58,-43,-14,0,-58,-87,-68,-58,-43
-68,-48,19,58,-43,-14,0,-58,-87,-68,-58,-39
-68,-53,14,61,-41,-19,0,-58,-87,-68,-58,-39
-68,-48,19,58,-43,-14,-4,-58,-87,-68,-58,-39
-68,-48,19,58,-43,-14,-9,-58,-87,-68,-58,-39
-63,-39,24,51,-43,-7,-9,-58,-82,-63,-53,-34
-58,-29,29,43,-43,0,-9,-58,-78,-58,-48,-29
-58,-9,48,34,-53,19,-9,-58,-68,-48,-39,-19
-53,4,58,24,-56,31,-9,-58,-58,-34,-29,-9
-48,24,73,12,-61,48,-14,-58,-48,-24,-24,0
-48,34,82,7,-65,58,-14,-58,-43,-19,-19,0
-48,34,82,7,-65,58,-14,-58,-43,-19,-19,-4
-48,34,82,7,-65,58,-14,-58,-39,-14,-19,-4
-43,43,87,0,-65,65,-19,-53,-29,-4,-9,9
-34,48,82,-7,-58,65,-24,-53,-19,0,4,19
-29,58,87,-14,-58,73,-34,-63,-29,0,4,24
-29,68,97,-19,-63,82,-53,-68,-39,0,4,24
-34,78,112,-21,-73,95,-63,-82,-43,-9,4,24
-34,82,117,-24,-75,100,-63,-87,-58,-19,-4,24
-34,73,107,-19,-70,90,-73,-97,-78,-24,-14,24
-24,63,87,-19,-56,75,-82,-97,-87,-29,-14,24
-14,63,78,-24,-46,70,-92,-97,-97,-29,-14,24
0,73,73,-36,-36,73,-102,-97,-97,-29,-9,29
14,102,87,-58,-36,95,-102,-97,-87,-24,9,53
19,122,102,-70,-41,112,-102,-92,-82,-9,24,73
34,141,107,-87,-36,124,-102,-92,-82,-9,34,73
29,126,97,-78,-34,112,-87,-92,-87,-29,29,53
-34,68,102,-17,-68,85,-58,-87,-92,-48,-9,24
-68,34,102,17,-85,68,-39,-87,-97,-53,-29,9
-78,9,87,34,-82,48,-34,-87,-102,-58,-39,0
-82,-9,73,46,-78,31,-24,-82,-112,-68,-43,-19
-82,-48,34,65,-58,-7,-9,-78,-117,-87,-68,-39
-82,-78,4,80,-43,-36,9,-73,-126,-102,-78,-48
-92,-82,9,87,-51,-36,9,-73,-131,-102,-87,-63
-92,-87,4,90,-48,-41,14,-73,-131,-107,-87,-68
-92,-87,4,90,-48,-41,14,-73,-131,-107,-87,-68
-92,-92,0,92,-46,-46,14,-73,-131,-107,-87,-68
-97,-97,0,97,-48,-48,14,-73,-131,-107,-87,-73
