I,II,III,aVR,aVL,aVF,V1,V2,V3,V4,V5,V6,
0,-78,-78,39,39,-78,-48,-29,-19,-78,-146,-117
0,-78,-78,39,39,-78,-48,-29,-19,-78,-146,-117
0,-78,-78,39,39,-78,-48,-29,-19,-78,-146,-117
0,-78,-78,39,39,-78,-48,-29,-19,-78,-146,-117
9,-68,-78,29,43,-73,-48,-24,-19,-78,-156,-107
9,-68,-78,29,43,-73,-48,-19,-19,-78,-156,-107
9,-68,-78,29,43,-73,-48,-14,-19,-78,-156,-107
9,-68,-78,29,43,-73,-48,-9,-19,-78,-156,-107
9,-78,-87,34,48,-82,-48,-9,-19,-68,-146,-107
9,-78,-87,34,48,-82,-48,-9,-19,-68,-146,-107
9,-78,-87,34,48,-82,-48,-9,-19,-68,-146,-107
9,-82,-92,36,51,-87,-43,-9,-19,-68,-141,-107
9,-73,-82,31,46,-78,-53,0,-9,-73,-141,-117
9,-73,-82,31,46,-78,-48,0,-9,-73,-141,-117
9,-73,-82,31,46,-78,-48,0,-4,-73,-141,-117
14,-73,-87,29,51,-80,-53,4,-4,-73,-141,-112
9,-73,-82,31,46,-78,-58,9,-14,-63,-141,-107
14,-73,-87,29,51,-80,-58,9,-9,-63,-141,-107
14,-73,-87,29,51,-80,-53,9,-9,-63,-141,-112
14,-73,-87,29,51,-80,-53,9,-9,-63,-141,-112
24,-73,-97,24,61,-85,-63,9,0,-63,-146,-112
24,-82,-107,29,65,-95,-63,9,0,-63,-151,-122
24,-87,-112,31,68,-100,-63,9,0,-68,-151,-126
24,-87,-112,31,68,-100,-58,9,-4,-68,-151,-126
34,-78,-112,21,73,-95,-58,14,4,-68,-156,-131
39,-78,-117,19,78,-97,-58,19,4,-68,-156,-131
48,-78,-126,14,87,-102,-58,29,4,-68,-156,-131
53,-78,-131,12,92,-104,-58,34,4,-68,-151,-131
48,-87,-136,19,92,-112,-48,34,4,-58,-151,-126
58,-73,-131,7,95,-102,-48,34,14,-53,-151,-122
58,-53,-112,-2,85,-82,-48,34,19,-48,-141,-102
58,-48,-107,-4,82,-78,-48,34,24,-39,-131,-92
68,-39,-107,-14,87,-73,-53,43,34,-39,-122,-102
68,-39,-107,-14,87,-73,-48,43,43,-29,-122,-102
73,-39,-112,-17,92,-75,-48,43,43,-24,-122,-92
78,-39,-117,-19,97,-78,-48,43,43,-24,-122,-92
92,-48,-141,-21,117,-95,-63,63,34,-19,-131,-92
92,-58,-151,-17,122,-104,-63,73,29,-24,-131,-92
102,-68,-170,-17,136,-119,-63,73,24,-34,-131,-92
107,-68,-175,-19,141,-122,-68,68,24,-34,-131,-92
102,-39,-141,-31,122,-90,-73,63,39,-29,-112,-78
107,-4,-112,-51,109,-58,-82,58,48,-14,-102,-63
107,29,-78,-68,92,-24,-82,43,63,-4,-92,-53
107,48,-58,-78,82,-4,-97,34,68,9,-82,-43
112,63,-48,-87,80,7,-107,24,68,14,-82,-43
112,73,-39,-92,75,17,-122,19,63,9,-82,-43
117,58,-58,-87,87,0,-126,19,53,4,-82,-43
117,43,-73,-80,95,-14,-131,14,39,-9,-87,-43
117,29,-87,-73,102,-29,-141,24,14,-24,-97,-63
117,9,-107,-63,112,-48,-141,24,9,-39,-112,-78
117,-14,-131,-51,124,-73,-141,24,-4,-58,-126,-97
117,-34,-151,-41,134,-92,-136,24,-14,-58,-126,-97
102,-43,-146,-29,124,-95,-131,24,-24,-58,-136,-102
102,-43,-146,-29,124,-95,-122,29,-24,-58,-136,-102
102,-39,-141,-31,122,-90,-112,29,-19,-58,-131,-97
102,-24,-126,-39,114,-75,-107,24,-19,-58,-126,-92
87,-24,-112,-31,100,-68,-107,9,-29,-68,-136,-92
87,-29,-117,-29,102,-73,-107,4,-34,-63,-136,-92
92,-29,-122,-31,107,-75,-112,0,-34,-63,-136,-87
92,-29,-122,-31,107,-75,-112,-4,-34,-73,-136,-87
87,-29,-117,-29,102,-73,-112,-4,-34,-63,-131,-87
87,-29,-117,-29,102,-73,-117,-4,-34,-63,-136,-87
92,-29,-122,-31,107,-75,-117,-4,-34,-63,-122,-87
92,-19,-112,-36,102,-65,-117,-4,-29,-58,-117,-87
92,-14,-107,-39,100,-61,-126,-4,-39,-68,-126,-82
82,-14,-97,-34,90,-56,-126,-4,-39,-68,-126,-82
78,-14,-92,-31,85,-53,-122,0,-39,-68,-126,-87
68,-29,-97,-19,82,-63,-112,0,-34,-78,-136,-102
43,-48,-92,2,68,-70,-102,-9,-43,-92,-131,-102
24,-63,-87,19,56,-75,-92,-14,-53,-92,-136,-107
0,-82,-82,41,41,-82,-92,-19,-53,-92,-136,-107
-14,-92,-78,53,31,-85,-82,-34,-53,-92,-136,-107
-19,-92,-73,56,26,-82,-82,-48,-63,-92,-131,-97
-19,-92,-73,56,26,-82,-82,-53,-63,-92,-131,-97
-14,-92,-78,53,31,-85,-82,-53,-63,-97,-131,-97
-14,-97,-82,56,34,-90,-82,-53,-63,-97,-131,-97
-4,-92,-87,48,41,-90,-78,-63,-73,-107,-122,-102
-4,-87,-82,46,39,-85,-78,-68,-78,-107,-126,-102
-4,-78,-73,41,34,-75,-78,-68,-78,-107,-126,-102
-9,-73,-63,41,26,-68,-78,-68,-78,-107,-126,-102
-9,-73,-63,41,26,-68,-73,-58,-92,-122,-117,-102
-14,-73,-58,43,21,-65,-68,-58,-97,-122,-117,-102
-14,-78,-63,46,24,-70,-68,-58,-97,-122,-117,-102
-14,-82,-68,48,26,-75,-68,-58,-102,-122,-117,-102
-14,-87,-73,51,29,-80,-63,-43,-112,-122,-117,-102
-24,-102,-78,63,26,-90,-48,-43,-112,-136,-126,-112
-29,-122,-92,75,31,-107,-34,-43,-131,-161,-136,-122
-39,-151,-112,95,36,-131,-14,-24,-146,-170,-156,-141
-39,-175,-136,107,48,-156,4,-4,-161,-190,-175,-165
-39,-200,-161,119,61,-180,29,19,-165,-204,-180,-175
-39,-219,-180,129,70,-200,68,53,-165,-200,-190,-190
-34,-229,-195,131,80,-212,107,87,-141,-190,-190,-195
-24,-204,-180,114,78,-192,117,126,-92,-156,-170,-185
0,-180,-180,90,90,-180,117,175,-43,-112,-141,-170
34,-161,-195,63,114,-178,117,209,9,-78,-131,-170
53,-136,-190,41,122,-163,117,224,53,-29,-102,-146
63,-97,-161,17,112,-129,126,224,97,9,-63,-126
92,-73,-165,-9,129,-119,97,214,122,34,-34,-102
161,-14,-175,-73,168,-95,4,180,136,68,14,-43
263,107,-156,-185,209,-24,-141,126,195,151,112,39
351,253,-97,-302,224,78,-297,68,278,268,234,146
448,424,-24,-436,236,200,-448,14,370,385,356,263
580,600,19,-590,280,309,-629,-24,473,522,507,400
707,771,63,-739,322,417,-829,-58,566,653,663,536
800,941,141,-871,329,541,-990,-122,649,775,814,673
858,1093,234,-976,312,663,-1132,-190,727,883,961,814
893,1215,322,-1054,285,768,-1234,-278,790,990,1088,951
858,1327,468,-1093,195,897,-1298,-405,868,1098,1220,1078
795,1449,653,-1122,70,1051,-1346,-551,956,1210,1342,1185
780,1576,795,-1178,-7,1185,-1420,-678,1005,1302,1459,1302
780,1688,907,-1234,-63,1298,-1522,-795,1034,1381,1571,1405
780,1761,980,-1271,-100,1371,-1605,-868,1068,1444,1673,1517
780,1756,976,-1268,-97,1366,-1620,-873,1049,1449,1722,1586
771,1703,932,-1237,-80,1317,-1615,-863,951,1376,1703,1595
790,1683,893,-1237,-51,1288,-1610,-839,854,1312,1678,1615
810,1703,893,-1256,-41,1298,-1581,-780,834,1298,1698,1644
775,1683,907,-1229,-65,1295,-1488,-722,824,1259,1664,1634
707,1537,829,-1122,-61,1183,-1322,-639,683,1088,1498,1517
624,1273,649,-949,-12,961,-1122,-551,414,771,1195,1278
531,946,414,-739,58,680,-902,-488,97,409,854,1000
419,653,234,-536,92,444,-712,-434,-165,122,566,746
331,444,112,-387,109,278,-541,-375,-268,-48,351,551
263,346,82,-305,90,214,-419,-292,-224,-63,258,424
185,278,92,-231,46,185,-297,-248,-161,-29,219,322
87,185,97,-136,-4,141,-170,-204,-136,-48,146,214
29,92,63,-61,-17,78,-87,-165,-122,-68,92,136
0,34,34,-17,-17,34,-39,-126,-92,-68,63,87
-14,-9,4,12,-9,-2,-4,-107,-82,-68,39,48
-43,-34,9,39,-26,-12,24,-97,-73,-68,29,24
-58,-39,19,48,-39,-9,48,-78,-63,-68,24,4
-73,-48,24,61,-48,-12,68,-78,-73,-78,9,-4
-78,-58,19,68,-48,-19,73,-87,-87,-92,0,-4
-87,-63,24,75,-56,-19,87,-92,-92,-112,-9,-9
-87,-73,14,80,-51,-29,92,-87,-97,-122,-9,-9
-87,-87,0,87,-43,-43,102,-92,-102,-122,-24,-19
-87,-97,-9,92,-39,-53,107,-92,-112,-131,-43,-34
-97,-102,-4,100,-46,-53,102,-92,-112,-141,-43,-53
-102,-102,0,102,-51,-51,107,-92,-112,-141,-48,-53
-107,-107,0,107,-53,-53,107,-87,-117,-141,-53,-58
-107,-112,-4,109,-51,-58,112,-87,-126,-146,-53,-58
-97,-117,-19,107,-39,-68,117,-78,-131,-151,-43,-58
-102,-122,-19,112,-41,-70,117,-82,-136,-156,-48,-58
-107,-126,-19,117,-43,-73,122,-82,-146,-161,-58,-68
-117,-131,-14,124,-51,-73,122,-82,-156,-161,-58,-68
-126,-131,-4,129,-61,-68,131,-92,-146,-165,-58,-58
-126,-131,-4,129,-61,-68,131,-92,-151,-165,-58,-58
-131,-131,0,131,-65,-65,131,-87,-156,-165,-58,-58
-131,-131,0,131,-65,-65,136,-87,-156,-165,-58,-63
-141,-131,9,136,-75,-61,151,-87,-146,-161,-48,-63
-141,-136,4,139,-73,-65,151,-82,-151,-161,-48,-63
-141,-136,4,139,-73,-65,156,-82,-151,-156,-48,-63
-141,-136,4,139,-73,-65,156,-78,-146,-156,-48,-63
-141,-131,9,136,-75,-61,161,-68,-146,-156,-48,-63
-141,-131,9,136,-75,-61,161,-63,-141,-156,-48,-63
-141,-131,9,136,-75,-61,161,-63,-136,-161,-48,-68
-141,-126,14,134,-78,-56,165,-63,-131,-161,-53,-68
-131,-117,14,124,-73,-51,156,-58,-117,-151,-63,-78
-131,-117,14,124,-73,-51,165,-53,-117,-151,-58,-78
-131,-117,14,124,-73,-51,156,-48,-112,-151,-58,-78
-131,-112,19,122,-75,-46,156,-48,-107,-151,-58,-82
-122,-102,19,112,-70,-41,165,-58,-102,-146,-48,-73
-122,-112,9,117,-65,-51,170,-58,-87,-136,-48,-73
-122,-112,9,117,-65,-51,170,-58,-82,-131,-48,-73
-122,-112,9,117,-65,-51,170,-53,-78,-126,-48,-68
-117,-97,19,107,-68,-39,161,-43,-68,-126,-58,-68
-107,-97,9,102,-58,-43,156,-43,-73,-131,-53,-68
-102,-92,9,97,-56,-41,156,-43,-73,-136,-53,-68
-97,-92,4,95,-51,-43,156,-43,-73,-141,-53,-68
-107,-97,9,102,-58,-43,156,-43,-58,-136,-53,-68
-107,-92,14,100,-61,-39,151,-39,-58,-136,-53,-68
-107,-92,14,100,-61,-39,151,-34,-58,-131,-53,-68
-112,-92,19,102,-65,-36,156,-29,-58,-126,-53,-68
-122,-97,24,109,-73,-36,161,-39,-48,-117,-53,-78
-122,-97,24,109,-73,-36,161,-39,-48,-117,-53,-78
-122,-97,24,109,-73,-36,161,-39,-48,-117,-53,-78
-122,-97,24,109,-73,-36,161,-34,-48,-117,-53,-78
-122,-107,14,114,-68,-46,161,-29,-48,-126,-63,-78
-126,-112,14,119,-70,-48,161,-29,-48,-122,-63,-78
-126,-112,14,119,-70,-48,165,-29,-48,-122,-63,-78
-126,-112,14,119,-70,-48,165,-24,-53,-122,-63,-78
-126,-112,14,119,-70,-48,180,-9,-53,-112,-63,-68
-126,-112,14,119,-70,-48,180,-9,-48,-112,-63,-73
-126,-107,19,117,-73,-43,180,-9,-48,-112,-63,-73
-126,-107,19,117,-73,-43,180,0,-48,-112,-63,-73
-126,-107,19,117,-73,-43,180,-9,-39,-112,-73,-82
-126,-107,19,117,-73,-43,185,-4,-39,-112,-73,-82
-126,-107,19,117,-73,-43,185,-4,-29,-102,-73,-82
-126,-107,19,117,-73,-43,185,0,-29,-102,-68,-82
-126,-92,34,109,-80,-29,180,14,-29,-92,-68,-92
-126,-92,34,109,-80,-29,175,14,-19,-92,-68,-92
-126,-92,34,109,-80,-29,175,14,-19,-87,-73,-92
-117,-87,29,102,-73,-29,170,24,-9,-87,-73,-92
-117,-87,29,102,-73,-29,170,29,-9,-82,-63,-82
-117,-82,34,100,-75,-24,175,34,-9,-73,-63,-82
-117,-82,34,100,-75,-24,180,39,0,-68,-58,-82
-117,-82,34,100,-75,-24,185,43,4,-68,-58,-82
-112,-92,19,102,-65,-36,185,53,9,-68,-58,-82
-107,-87,19,97,-63,-34,185,58,19,-68,-63,-82
-102,-82,19,92,-61,-31,185,63,24,-68,-68,-82
-92,-82,9,87,-51,-36,185,63,24,-63,-73,-82
-102,-78,24,90,-63,-26,195,78,29,-63,-73,-82
-97,-78,19,87,-58,-29,200,78,29,-63,-68,-82
-97,-73,24,85,-61,-24,204,78,34,-63,-68,-82
-97,-63,34,80,-65,-14,204,78,34,-58,-73,-82
-82,-63,19,73,-51,-21,195,78,43,-58,-68,-78
-82,-63,19,73,-51,-21,200,82,53,-48,-63,-78
-82,-58,24,70,-53,-17,200,82,58,-48,-58,-73
-82,-58,24,70,-53,-17,200,82,63,-43,-53,-68
-78,-53,24,65,-51,-14,200,73,63,-34,-58,-73
-78,-48,29,63,-53,-9,204,78,68,-34,-53,-78
-78,-43,34,61,-56,-4,204,87,73,-29,-48,-78
-78,-39,39,58,-58,0,209,92,78,-19,-43,-82
-87,-43,43,65,-65,0,214,92,73,-29,-53,-82
-92,-48,43,70,-68,-2,214,87,82,-24,-53,-82
-92,-48,43,70,-68,-2,219,87,87,-19,-43,-82
-92,-48,43,70,-68,-2,224,92,92,-19,-43,-78
-107,-48,58,78,-82,4,234,102,82,-9,-39,-87
-107,-48,58,78,-82,4,244,112,87,-4,-39,-87
-107,-53,53,80,-80,0,244,122,97,-4,-39,-87
-102,-53,48,78,-75,-2,244,136,97,4,-34,-87
-112,-43,68,78,-90,12,253,131,92,-4,-34,-82
-107,-43,63,75,-85,9,268,131,97,0,-29,-78
-107,-34,73,70,-90,19,273,141,107,0,-29,-73
-107,-34,73,70,-90,19,273,151,117,9,-29,-68
-107,-34,73,70,-90,19,268,151,131,9,-29,-73
-107,-24,82,65,-95,29,273,170,146,14,-24,-73
-102,-14,87,58,-95,36,273,180,151,24,-19,-68
-102,-9,92,56,-97,41,273,195,165,34,-9,-68
-92,4,97,43,-95,51,273,209,175,48,-4,-78
-87,4,92,41,-90,48,278,219,195,48,-4,-73
-78,14,92,31,-85,53,283,229,204,63,0,-73
-63,29,92,17,-78,61,283,248,209,73,4,-68
-63,34,97,14,-80,65,307,263,234,82,9,-68
-53,39,92,7,-73,65,312,273,244,92,14,-63
-53,43,97,4,-75,70,312,283,263,102,24,-58
-53,53,107,0,-80,80,322,297,278,112,29,-58
-43,68,112,-12,-78,90,322,312,302,126,34,-53
-39,78,117,-19,-78,97,322,326,322,131,39,-53
-34,78,112,-21,-73,95,322,341,336,146,43,-43
-34,92,126,-29,-80,109,331,356,346,165,48,-43
-29,87,117,-29,-73,102,336,366,366,170,58,-39
-19,107,126,-43,-73,117,341,380,380,185,63,-34
-14,122,136,-53,-75,129,346,395,395,200,73,-29
-4,136,141,-65,-73,139,351,414,409,209,82,-29
-9,141,151,-65,-80,146,361,434,424,209,73,-29
0,146,146,-73,-73,146,361,453,444,219,78,-29
4,151,146,-78,-70,148,361,468,453,229,87,-19
9,156,146,-82,-68,151,361,483,468,239,92,-19
14,161,146,-87,-65,153,361,492,478,258,102,-19
19,175,156,-97,-68,165,361,507,488,268,102,-9
24,175,151,-100,-63,163,361,522,507,278,107,-4
29,180,151,-104,-61,165,361,527,527,292,117,-4
39,195,156,-117,-58,175,351,551,536,287,126,0
48,195,146,-122,-48,170,341,556,551,292,126,4
53,200,146,-126,-46,173,341,556,551,297,131,9
58,209,151,-134,-46,180,336,556,556,302,136,14
68,214,146,-141,-39,180,322,566,566,307,141,19
68,219,151,-143,-41,185,317,566,570,317,141,19
73,219,146,-146,-36,183,312,566,575,317,141,14
78,224,146,-151,-34,185,307,556,575,317,136,9
78,214,136,-146,-29,175,287,551,570,312,136,9
78,214,136,-146,-29,175,287,546,570,312,136,9
78,219,141,-148,-31,180,273,536,566,312,136,9
82,224,141,-153,-29,183,268,527,556,302,131,19
73,229,156,-151,-41,192,248,497,546,297,141,29
73,229,156,-151,-41,192,239,483,527,283,141,29
73,219,146,-146,-36,183,229,463,502,278,141,29
73,209,136,-141,-31,173,214,448,483,263,131,34
73,209,136,-141,-31,173,200,424,468,253,141,34
73,209,136,-141,-31,173,180,400,448,244,136,34
63,209,146,-136,-41,178,165,375,434,239,131,39
58,209,151,-134,-46,180,151,346,405,239,126,43
48,195,146,-122,-48,170,141,302,390,219,122,43
43,190,146,-117,-51,168,126,283,351,200,107,43
39,185,146,-112,-53,165,117,258,326,185,107,43
34,180,146,-107,-56,163,107,234,302,170,102,43
29,151,122,-90,-46,136,87,224,273,156,97,34
24,146,122,-85,-48,134,78,195,248,141,87,29
19,141,122,-80,-51,131,78,165,234,131,87,29
19,126,107,-73,-43,117,63,146,214,112,73,24
14,117,102,-65,-43,109,53,112,185,82,58,24
9,107,97,-58,-43,102,53,97,156,73,53,24
9,97,87,-53,-39,92,48,82,131,58,43,24
4,87,82,-46,-39,85,39,73,102,48,24,14
0,78,78,-39,-39,78,39,58,82,34,24,14
-4,68,73,-31,-39,70,34,39,68,19,19,9
-9,58,68,-24,-39,63,34,24,58,9,9,4
-9,48,58,-19,-34,53,34,9,43,-4,4,-4
-4,39,43,-17,-24,41,24,9,34,-4,0,0
-4,34,39,-14,-21,36,24,4,24,-4,-4,-9
-4,29,34,-12,-19,31,19,-4,9,-9,-9,-9
-4,14,19,-4,-12,17,19,-14,4,-14,-14,-9
-14,19,34,-2,-24,26,9,-34,-14,-24,-19,-19
-19,24,43,-2,-31,34,9,-39,-19,-24,-24,-19
-19,29,48,-4,-34,39,9,-39,-24,-39,-29,-19
-19,34,53,-7,-36,43,4,-48,-29,-48,-34,-29
-19,34,53,-7,-36,43,4,-53,-29,-48,-39,-29
-29,34,63,-2,-46,48,0,-58,-34,-48,-39,-29
-29,29,58,0,-43,43,-4,-63,-34,-53,-39,-34
-24,24,48,0,-36,36,-4,-63,-39,-58,-39,-34
-24,34,58,-4,-41,46,-14,-58,-43,-63,-48,-24
-24,19,43,2,-34,31,-14,-58,-43,-68,-53,-34
-24,14,39,4,-31,26,-14,-63,-48,-73,-53,-39
-29,9,39,9,-34,24,-14,-63,-48,-73,-53,-39
-39,0,39,19,-39,19,-14,-73,-58,-82,-58,-43
-39,4,43,17,-41,24,-14,-73,-58,-82,-58,-43
-39,4,43,17,-41,24,-14,-73,-58,-82,-58,-43
-43,4,48,19,-46,26,-14,-73,-58,-82,-58,-43
-53,0,53,26,-53,26,-4,-87,-63,-78,-68,-53
-53,-4,48,29,-51,21,-4,-92,-63,-82,-68,-53
-48,-9,39,29,-43,14,-4,-97,-63,-82,-68,-53
-48,-14,34,31,-41,9,-4,-107,-63,-82,-68,-53
-43,-4,39,24,-41,17,-4,-102,-63,-82,-68,-63
-39,-4,34,21,-36,14,-4,-97,-63,-87,-68,-63
-39,-4,34,21,-36,14,-9,-92,-63,-87,-73,-68
-34,-4,29,19,-31,12,-9,-87,-63,-92,-73,-68
-34,-4,29,19,-31,12,-9,-73,-63,-92,-78,-58
-39,-9,29,24,-34,9,-9,-73,-63,-92,-78,-58
-39,-14,24,26,-31,4,-4,-78,-68,-97,-78,-58
-34,-19,14,26,-24,-2,-4,-78,-68,-102,-82,-58
-24,-24,0,24,-12,-12,-19,-68,-58,-92,-73,-48
-29,-19,9,24,-19,-4,-19,-68,-58,-97,-73,-53
-34,-19,14,26,-24,-2,-19,-68,-53,-97,-78,-53
-34,-14,19,24,-26,2,-19,-68,-53,-97,-78,-53
-34,-19,14,26,-24,-2,-29,-78,-58,-102,-78,-58
-29,-19,9,24,-19,-4,-29,-78,-63,-102,-78,-63
-29,-24,4,26,-17,-9,-29,-82,-68,-102,-78,-68
-39,-24,14,31,-26,-4,-24,-82,-73,-102,-78,-73
-39,-24,14,31,-26,-4,-14,-73,-63,-102,-82,-73
-39,-24,14,31,-26,-4,-14,-73,-63,-102,-82,-68
-39,-34,4,36,-21,-14,-14,-73,-68,-107,-82,-68
-39,-34,4,36,-21,-14,-14,-73,-68,-107,-78,-68
-43,-24,19,34,-31,-2,-4,-73,-68,-107,-78,-63
-43,-24,19,34,-31,-2,-4,-68,-68,-107,-78,-63
-43,-24,19,34,-31,-2,-9,-68,-68,-107,-78,-68
-43,-24,19,34,-31,-2,-9,-68,-68,-107,-78,-68
-34,-9,24,21,-29,7,-9,-73,-68,-97,-87,-68
-29,0,29,14,-29,14,-9,-73,-63,-97,-87,-73
-29,4,34,12,-31,19,-9,-73,-63,-102,-87,-73
-29,4,34,12,-31,19,-4,-73,-63,-102,-87,-68
-39,0,39,19,-39,19,-4,-73,-63,-102,-78,-68
-39,-4,34,21,-36,14,-9,-73,-63,-102,-82,-68
-39,-9,29,24,-34,9,-9,-73,-58,-102,-82,-68
-48,-14,34,31,-41,9,-14,-82,-58,-102,-82,-68
-58,-19,39,39,-48,9,-4,-87,-63,-117,-87,-78
-58,-24,34,41,-46,4,-4,-92,-68,-117,-92,-78
-58,-29,29,43,-43,0,0,-97,-73,-117,-92,-78
-58,-29,29,43,-43,0,0,-102,-78,-117,-97,-78
-53,-19,34,36,-43,7,-9,-97,-73,-117,-87,-78
-53,-19,34,36,-43,7,-9,-87,-73,-117,-87,-73
-48,-19,29,34,-39,4,-9,-78,-78,-117,-92,-73
-43,-29,14,36,-29,-7,-9,-68,-78,-122,-92,-68
-43,-34,9,39,-26,-12,-9,-68,-87,-131,-107,-73
-43,-34,9,39,-26,-12,-9,-68,-87,-131,-107,-73
-39,-39,0,39,-19,-19,-9,-68,-87,-131,-107,-68
-39,-39,0,39,-19,-19,-9,-68,-87,-131,-107,-63
-53,-29,24,41,-39,-2,-14,-73,-97,-131,-117,-68
-53,-29,24,41,-39,-2,-14,-73,-97,-131,-117,-73
-63,-34,29,48,-46,-2,-14,-73,-97,-131,-117,-87
-63,-34,29,48,-46,-2,-9,-73,-102,-131,-117,-92
-58,-34,24,46,-41,-4,-4,-68,-112,-131,-117,-87
-58,-39,19,48,-39,-9,-4,-63,-117,-131,-117,-87
-58,-39,19,48,-39,-9,0,-53,-117,-131,-117,-87
-58,-39,19,48,-39,-9,0,-48,-117,-126,-117,-87
-53,-39,14,46,-34,-12,0,-39,-117,-126,-117,-87
-48,-39,9,43,-29,-14,0,-39,-117,-131,-117,-87
-43,-39,4,41,-24,-17,0,-39,-117,-131,-117,-87
-39,-34,4,36,-21,-14,0,-39,-117,-131,-117,-92
-39,-29,9,34,-24,-9,-4,-29,-122,-117,-102,-82
-39,-19,19,29,-29,0,-9,-29,-122,-112,-97,-82
-39,-14,24,26,-31,4,-19,-29,-122,-107,-92,-82
-39,-9,29,24,-34,9,-24,-24,-122,-102,-87,-78
-39,-14,24,26,-31,4,-14,-14,-131,-117,-102,-78
-39,-19,19,29,-29,0,-14,-14,-131,-122,-107,-82
-34,-24,9,29,-21,-7,-14,-14,-131,-122,-112,-87
-34,-29,4,31,-19,-12,-9,-14,-126,-126,-117,-87
-48,-39,9,43,-29,-14,0,-19,-136,-122,-122,-87
-48,-39,9,43,-29,-14,0,-19,-136,-122,-122,-87
-48,-39,9,43,-29,-14,0,-24,-136,-122,-117,-87
-43,-39,4,41,-24,-17,0,-24,-136,-122,-112,-92
-48,-39,9,43,-29,-14,-9,-24,-136,-112,-107,-97
-48,-34,14,41,-31,-9,-9,-24,-131,-107,-107,-97
-48,-34,14,41,-31,-9,-9,-24,-131,-107,-102,-97
-48,-34,14,41,-31,-9,-9,-24,-126,-107,-102,-102
-34,-39,-4,36,-14,-21,-19,-24,-141,-112,-117,-102
-34,-39,-4,36,-14,-21,-19,-24,-146,-117,-126,-102
-34,-34,0,34,-17,-17,-19,-24,-151,-122,-131,-102
-39,-34,4,36,-21,-14,-24,-24,-156,-126,-141,-102
-39,-43,-4,41,-17,-24,-14,-14,-156,-126,-136,-102
-39,-48,-9,43,-14,-29,-14,-14,-161,-136,-136,-102
-34,-48,-14,41,-9,-31,-14,-14,-165,-136,-136,-102
-34,-53,-19,43,-7,-36,-14,-9,-165,-136,-136,-102
-34,-48,-14,41,-9,-31,-24,-19,-156,-131,-126,-92
-34,-48,-14,41,-9,-31,-24,-19,-156,-126,-126,-92
-34,-48,-14,41,-9,-31,-24,-19,-156,-122,-126,-92
-34,-58,-24,46,-4,-41,-24,-19,-151,-117,-126,-92
-34,-68,-34,51,0,-51,-34,-14,-161,-131,-131,-97
-34,-63,-29,48,-2,-46,-34,-9,-165,-136,-136,-107
-34,-58,-24,46,-4,-41,-34,-9,-165,-141,-141,-112
-34,-53,-19,43,-7,-36,-34,-4,-161,-136,-141,-117
-43,-53,-9,48,-17,-31,-53,0,-170,-126,-141,-112
-43,-53,-9,48,-17,-31,-53,0,-170,-126,-141,-112
-43,-48,-4,46,-19,-26,-48,0,-175,-131,-141,-112
-43,-48,-4,46,-19,-26,-48,0,-180,-136,-141,-112
-48,-58,-9,53,-19,-34,-43,-14,-175,-131,-141,-102
-48,-58,-9,53,-19,-34,-43,-14,-175,-126,-141,-102
-48,-63,-14,56,-17,-39,-43,-14,-175,-122,-136,-102
-48,-63,-14,56,-17,-39,-43,-14,-175,-117,-136,-102
-48,-63,-14,56,-17,-39,-34,-24,-175,-126,-136,-112
-48,-63,-14,56,-17,-39,-34,-24,-175,-126,-136,-112
-48,-63,-14,56,-17,-39,-29,-24,-175,-126,-136,-112
-48,-63,-14,56,-17,-39,-29,-29,-185,-126,-136,-112
-43,-68,-24,56,-9,-46,-43,-14,-195,-141,-151,-117
-39,-68,-29,53,-4,-48,-43,-14,-200,-141,-151,-117
-34,-73,-39,53,2,-56,-43,-9,-195,-141,-151,-112
-29,-73,-43,51,7,-58,-53,0,-200,-141,-151,-112
-29,-73,-43,51,7,-58,-43,0,-200,-131,-136,-112
-29,-73,-43,51,7,-58,-39,0,-200,-131,-136,-112
-29,-82,-53,56,12,-68,-39,0,-200,-131,-141,-112
-29,-73,-43,51,7,-58,-39,0,-200,-131,-141,-112
-39,-82,-43,61,2,-63,-29,0,-214,-146,-151,-122
-39,-87,-48,63,4,-68,-29,0,-219,-156,-151,-126
-39,-87,-48,63,4,-68,-29,0,-224,-161,-151,-126
-43,-87,-43,65,0,-65,-29,0,-229,-161,-151,-122
-43,-87,-43,65,0,-65,-39,9,-224,-151,-151,-112
-43,-87,-43,65,0,-65,-39,0,-224,-151,-151,-112
-43,-87,-43,65,0,-65,-39,0,-224,-151,-151,-112
-43,-92,-48,68,2,-70,-39,4,-219,-151,-146,-107
-29,-87,-58,58,14,-73,-39,-4,-214,-146,-146,-107
-29,-78,-48,53,9,-63,-39,-4,-214,-141,-146,-107
-29,-73,-43,51,7,-58,-43,-4,-214,-136,-146,-107
-29,-68,-39,48,4,-53,-43,-4,-214,-136,-146,-112
-19,-58,-39,39,9,-48,-53,4,-214,-136,-136,-102
-19,-58,-39,39,9,-48,-53,4,-214,-136,-136,-102
-19,-63,-43,41,12,-53,-53,4,-219,-146,-136,-107
-19,-63,-43,41,12,-53,-58,4,-219,-146,-136,-107
-19,-78,-58,48,19,-68,-58,4,-214,-151,-146,-107
-24,-82,-58,53,17,-70,-58,4,-214,-151,-151,-107
-24,-87,-63,56,19,-75,-58,4,-214,-146,-151,-102
-24,-92,-68,58,21,-80,-58,4,-214,-146,-151,-102
-29,-92,-63,61,17,-78,-48,4,-214,-151,-151,-112
-34,-92,-58,63,12,-75,-48,4,-214,-151,-151,-112
-39,-92,-53,65,7,-73,-48,9,-214,-146,-146,-112
-43,-92,-48,68,2,-70,-48,9,-214,-146,-146,-112
-29,-82,-53,56,12,-68,-58,4,-219,-156,-151,-122
-29,-82,-53,56,12,-68,-58,0,-219,-156,-151,-122
-29,-82,-53,56,12,-68,-58,-4,-219,-156,-151,-122
-29,-78,-48,53,9,-63,-58,-9,-219,-156,-151,-122
-29,-78,-48,53,9,-63,-58,-4,-219,-156,-151,-122
-29,-78,-48,53,9,-63,-58,-4,-219,-156,-151,-122
-29,-78,-48,53,9,-63,-58,0,-219,-156,-146,-122
-29,-73,-43,51,7,-58,-58,0,-219,-156,-141,-122
-24,-63,-39,43,7,-51,-63,0,-209,-136,-136,-107
-24,-63,-39,43,7,-51,-63,0,-209,-131,-131,-107
-24,-63,-39,43,7,-51,-68,0,-209,-126,-126,-107
-24,-63,-39,43,7,-51,-68,0,-209,-126,-122,-102
-24,-78,-53,51,14,-65,-68,0,-219,-126,-136,-102
-24,-78,-53,51,14,-65,-68,0,-219,-131,-136,-102
-24,-78,-53,51,14,-65,-68,0,-219,-131,-141,-102
-24,-82,-58,53,17,-70,-68,0,-219,-136,-141,-107
-24,-92,-68,58,21,-80,-58,9,-219,-136,-146,-117
-29,-92,-63,61,17,-78,-58,9,-219,-136,-141,-117
-29,-87,-58,58,14,-73,-58,9,-219,-136,-141,-117
-29,-87,-58,58,14,-73,-53,4,-219,-136,-141,-112
-29,-97,-68,63,19,-82,-53,4,-224,-146,-151,-112
-29,-97,-68,63,19,-82,-48,4,-234,-146,-156,-112
-29,-97,-68,63,19,-82,-48,4,-239,-146,-156,-122
-29,-97,-68,63,19,-82,-48,4,-244,-146,-156,-122
-19,-87,-68,53,24,-78,-43,4,-234,-146,-146,-107
-29,-87,-58,58,14,-73,-43,9,-234,-136,-131,-107
-29,-78,-48,53,9,-63,-53,4,-224,-126,-131,-107
-29,-78,-48,53,9,-63,-48,0,-234,-136,-146,-117
-29,-78,-48,53,9,-63,-48,0,-244,-146,-146,-117
-29,-78,-48,53,9,-63,-48,0,-244,-146,-146,-117
-29,-78,-48,53,9,-63,-48,0,-244,-146,-146,-117
-29,-78,-48,53,9,-63,-48,0,-244,-146,-146,-117
-39,-78,-39,58,0,-58,-39,-4,-253,-146,-136,-117
-39,-78,-39,58,0,-58,-39,-9,-253,-146,-136,-117
-39,-78,-39,58,0,-58,-39,-14,-253,-146,-136,-117
-39,-78,-39,58,0,-58,-39,-19,-253,-146,-136,-117
-29,-78,-48,53,9,-63,-48,-19,-244,-136,-131,-107
-29,-78,-48,53,9,-63,-48,-19,-244,-136,-126,-107
-29,-78,-48,53,9,-63,-48,-19,-244,-136,-122,-107
-29,-78,-48,53,9,-63,-48,-19,-244,-136,-117,-107
-29,-87,-58,58,14,-73,-58,-19,-253,-141,-122,-107
-29,-87,-58,58,14,-73,-58,-19,-253,-146,-126,-107
-29,-87,-58,58,14,-73,-58,-19,-253,-151,-131,-107
-29,-87,-58,58,14,-73,-58,-19,-253,-156,-136,-107
-43,-97,-53,70,4,-75,-53,-29,-253,-161,-126,-107
-48,-97,-48,73,0,-73,-48,-29,-253,-165,-126,-107
-53,-97,-43,75,-4,-70,-43,-29,-253,-170,-126,-107
-58,-97,-39,78,-9,-68,-39,-29,-253,-175,-126,-107
-48,-87,-39,68,-4,-63,-39,-29,-253,-170,-117,-97
-48,-87,-39,68,-4,-63,-39,-29,-253,-165,-117,-97
-48,-87,-39,68,-4,-63,-39,-29,-253,-161,-117,-97
-48,-87,-39,68,-4,-63,-39,-29,-253,-156,-117,-97
-34,-78,-43,56,4,-61,-43,-14,-263,-156,-117,-97
-29,-78,-48,53,9,-63,-48,-9,-263,-156,-117,-97
-24,-78,-53,51,14,-65,-53,-4,-263,-156,-117,-97
-19,-78,-58,48,19,-68,-58,0,-263,-156,-117,-97
-24,-87,-63,56,19,-75,-48,-4,-263,-165,-117,-87
-29,-87,-58,58,14,-73,-48,-9,-263,-165,-117,-87
-34,-87,-53,61,9,-70,-48,-14,-263,-165,-117,-87
-39,-87,-48,63,4,-68,-48,-19,-263,-165,-117,-87
-43,-78,-34,61,-4,-56,-39,-29,-258,-161,-107,-87
-48,-78,-29,63,-9,-53,-39,-29,-253,-156,-107,-87
-53,-78,-24,65,-14,-51,-39,-29,-248,-151,-107,-87
-58,-78,-19,68,-19,-48,-39,-29,-244,-146,-107,-87
-53,-78,-24,65,-14,-51,-39,-19,-253,-161,-117,-97
-48,-78,-29,63,-9,-53,-39,-19,-253,-165,-117,-97
-43,-78,-34,61,-4,-56,-39,-19,-253,-170,-117,-97
-39,-78,-39,58,0,-58,-39,-19,-253,-175,-117,-97
-39,-87,-48,63,4,-68,-39,-9,-263,-185,-126,-87
-39,-87,-48,63,4,-68,-39,-9,-263,-185,-126,-87
-39,-87,-48,63,4,-68,-39,-9,-263,-185,-126,-87
-39,-87,-48,63,4,-68,-39,-9,-263,-185,-126,-87
-29,-87,-58,58,14,-73,-29,-9,-253,-175,-117,-97
-29,-87,-58,58,14,-73,-29,-9,-253,-175,-117,-97
-29,-87,-58,58,14,-73,-29,-9,-253,-175,-117,-97
-29,-87,-58,58,14,-73,-29,-9,-253,-175,-117,-97
-39,-78,-39,58,0,-58,-39,-9,-244,-165,-112,-97
-39,-78,-39,58,0,-58,-39,-9,-244,-165,-107,-97
-39,-78,-39,58,0,-58,-39,-9,-244,-165,-102,-97
-39,-78,-39,58,0,-58,-39,-9,-244,-165,-97,-97
-39,-68,-29,53,-4,-48,-39,-9,-234,-161,-97,-87
-39,-68,-29,53,-4,-48,-39,-9,-234,-156,-97,-87
-39,-68,-29,53,-4,-48,-39,-9,-234,-151,-97,-87
-39,-68,-29,53,-4,-48,-39,-9,-234,-146,-97,-87
-48,-68,-19,58,-14,-43,-39,-9,-234,-156,-107,-87
-48,-73,-24,61,-12,-48,-34,-9,-234,-156,-102,-87
-48,-73,-24,61,-12,-48,-34,-9,-234,-151,-102,-87
-48,-73,-24,61,-12,-48,-29,-9,-234,-151,-102,-87
-58,-82,-24,70,-17,-53,-29,-19,-239,-151,-102,-97
-53,-82,-29,68,-12,-56,-34,-14,-239,-151,-102,-92
-48,-82,-34,65,-7,-58,-39,-9,-239,-151,-102,-87
-43,-82,-39,63,-2,-61,-39,-9,-234,-151,-102,-87
-43,-82,-39,63,-2,-61,-34,-9,-224,-141,-92,-82
-43,-82,-39,63,-2,-61,-34,-9,-224,-141,-92,-82
-43,-82,-39,63,-2,-61,-34,-9,-224,-141,-97,-82
-43,-92,-48,68,2,-70,-34,-9,-224,-141,-102,-92
-34,-97,-63,65,14,-80,-24,-9,-224,-146,-102,-87
-34,-97,-63,65,14,-80,-19,-9,-229,-146,-102,-87
-34,-97,-63,65,14,-80,-19,-4,-229,-146,-107,-82
-29,-97,-68,63,19,-82,-19,0,-229,-146,-107,-82
-9,-97,-87,53,39,-92,-29,0,-229,-146,-107,-92
-4,-97,-92,51,43,-95,-29,4,-229,-146,-102,-92
0,-97,-97,48,48,-97,-29,4,-229,-146,-102,-92
9,-82,-92,36,51,-87,-29,4,-219,-141,-102,-92
9,-53,-63,21,36,-58,-39,9,-204,-146,-92,-78
9,-48,-58,19,34,-53,-39,14,-200,-136,-82,-73
9,-39,-48,14,29,-43,-34,29,-190,-126,-73,-73
9,-39,-48,14,29,-43,-29,34,-180,-117,-73,-73
24,-29,-53,2,39,-41,-19,43,-170,-112,-63,-53
29,-29,-58,0,43,-43,-19,43,-170,-112,-63,-53
34,-29,-63,-2,48,-46,-24,53,-170,-117,-63,-53
34,-39,-73,2,53,-56,-24,63,-175,-122,-63,-53
43,-58,-102,7,73,-80,-14,63,-190,-136,-68,-53
48,-58,-107,4,78,-82,-19,58,-190,-141,-73,-53
53,-43,-97,-4,75,-70,-24,58,-185,-141,-68,-48
58,-14,-73,-21,65,-43,-34,58,-175,-131,-63,-34
48,14,-34,-31,41,-9,-34,39,-151,-107,-48,-24
48,29,-19,-39,34,4,-48,34,-146,-87,-34,-14
53,48,-4,-51,29,21,-58,24,-141,-73,-19,-4
53,63,9,-58,21,36,-73,19,-141,-68,-14,-4
48,53,4,-51,21,29,-68,14,-136,-78,-24,-4
48,43,-4,-46,26,19,-73,4,-146,-87,-29,-4
48,29,-19,-39,34,4,-82,0,-161,-102,-39,-14
48,9,-39,-29,43,-14,-82,-4,-165,-117,-53,-29
48,-14,-63,-17,56,-39,-92,-4,-190,-146,-68,-48
48,-34,-82,-7,65,-58,-87,-4,-200,-146,-68,-48
43,-34,-78,-4,61,-56,-87,-4,-200,-146,-78,-53
43,-34,-78,-4,61,-56,-82,0,-200,-146,-78,-53
34,-39,-73,2,53,-56,-78,0,-190,-141,-63,-39
34,-24,-58,-4,46,-41,-78,-4,-185,-136,-58,-34
29,-24,-53,-2,41,-39,-78,-9,-180,-131,-58,-34
29,-29,-58,0,43,-43,-78,-14,-180,-122,-58,-34
24,-39,-63,7,43,-51,-82,-19,-185,-126,-63,-39
24,-39,-63,7,43,-51,-82,-24,-190,-141,-68,-39
19,-39,-58,9,39,-48,-82,-24,-195,-146,-73,-39
19,-39,-58,9,39,-48,-87,-24,-200,-151,-87,-39
39,-34,-73,-2,56,-53,-92,-34,-190,-141,-68,-48
43,-19,-63,-12,53,-41,-97,-34,-185,-136,-68,-48
48,-9,-58,-19,53,-34,-102,-34,-185,-136,-68,-43
43,-4,-48,-19,46,-26,-107,-34,-185,-136,-68,-43
29,4,-24,-17,26,-9,-102,-24,-190,-151,-73,-48
19,-9,-29,-4,24,-19,-92,-19,-190,-165,-87,-63
0,-24,-24,12,12,-24,-82,-19,-195,-175,-97,-73
-14,-34,-19,24,2,-26,-73,-14,-209,-180,-107,-78
-24,-53,-29,39,2,-41,-58,-4,-200,-170,-107,-87
-34,-63,-29,48,-2,-46,-43,-14,-200,-170,-107,-87
-39,-68,-29,53,-4,-48,-39,-19,-200,-170,-112,-87
-39,-73,-34,56,-2,-53,-34,-24,-200,-170,-112,-87
-34,-73,-39,53,2,-56,-43,-14,-209,-175,-102,-78
-34,-78,-43,56,4,-61,-43,-14,-209,-175,-102,-78
-34,-78,-43,56,4,-61,-48,-14,-209,-175,-102,-82
-34,-78,-43,56,4,-61,-48,-19,-214,-175,-107,-82
-34,-63,-29,48,-2,-46,-53,-19,-204,-165,-97,-73
-39,-63,-24,51,-7,-43,-58,-19,-204,-165,-97,-73
-39,-63,-24,51,-7,-43,-58,-19,-204,-170,-97,-73
-43,-63,-19,53,-12,-41,-58,-19,-204,-170,-97,-73
-43,-68,-24,56,-9,-46,-48,-29,-200,-170,-87,-53
-53,-82,-29,68,-12,-56,-48,-29,-209,-170,-97,-63
-53,-87,-34,70,-9,-61,-43,-34,-219,-170,-97,-63
-63,-92,-29,78,-17,-61,-29,-34,-229,-175,-107,-63
-68,-112,-43,90,-12,-78,-14,-24,-239,-190,-126,-82
-68,-131,-63,100,-2,-97,4,-14,-244,-200,-136,-112
-78,-156,-78,117,0,-117,14,-4,-239,-209,-146,-126
-78,-170,-92,124,7,-131,39,19,-234,-214,-151,-136
-78,-190,-112,134,17,-151,68,53,-244,-229,-170,-161
-73,-200,-126,136,26,-163,97,87,-229,-229,-190,-175
-63,-185,-122,124,29,-153,117,136,-180,-195,-180,-175
-39,-170,-131,104,46,-151,117,195,-122,-151,-170,-180
-4,-151,-146,78,70,-148,126,239,-87,-126,-151,-170
14,-126,-141,56,78,-134,117,253,-43,-87,-112,-156
34,-87,-122,26,78,-104,107,244,-9,-29,-82,-126
43,-63,-107,9,75,-85,97,224,24,4,-53,-102
82,-34,-117,-24,100,-75,63,200,48,19,-14,-63
146,58,-87,-102,117,-14,-43,156,97,82,63,9
234,204,-29,-219,131,87,-200,97,180,200,175,107
312,346,34,-329,139,190,-341,24,273,326,317,224
424,502,78,-463,173,290,-492,-24,366,463,468,380
551,663,112,-607,219,387,-673,-58,458,595,634,536
663,824,161,-744,251,492,-844,-102,531,717,785,673
741,995,253,-868,244,624,-985,-161,610,844,941,805
795,1146,351,-971,222,749,-1117,-248,683,961,1088,951
790,1288,497,-1039,146,893,-1210,-356,751,1068,1220,1078
746,1410,663,-1078,41,1037,-1268,-473,839,1180,1332,1195
712,1527,814,-1119,-51,1171,-1312,-590,907,1273,1439,1293
712,1639,927,-1176,-107,1283,-1385,-688,946,1361,1551,1405
732,1732,1000,-1232,-134,1366,-1488,-780,971,1444,1664,1507
741,1776,1034,-1259,-146,1405,-1532,-824,961,1478,1742,1605
722,1732,1010,-1227,-143,1371,-1527,-814,893,1424,1751,1634
702,1664,961,-1183,-129,1312,-1522,-790,785,1342,1717,1634
702,1664,961,-1183,-129,1312,-1522,-771,727,1288,1708,1644
678,1654,976,-1166,-148,1315,-1468,-751,707,1259,1683,1654
610,1546,936,-1078,-163,1241,-1332,-688,614,1117,1546,1556
556,1312,756,-934,-100,1034,-1171,-590,385,849,1273,1346
502,1015,512,-758,-4,763,-961,-488,97,517,941,1078
400,692,292,-546,53,492,-741,-414,-195,190,605,814
302,444,141,-373,80,292,-561,-346,-375,-39,341,561
244,346,102,-295,70,224,-439,-273,-370,-92,229,405
175,297,122,-236,26,209,-336,-209,-278,-48,190,302
97,214,117,-156,-9,165,-229,-165,-234,-48,126,204
29,131,102,-80,-36,117,-136,-107,-219,-68,53,117
19,53,34,-36,-7,43,-87,-48,-200,-68,24,68
14,0,-14,-7,14,-7,-63,0,-180,-68,0,39
-14,-43,-29,29,7,-36,-24,29,-180,-68,-19,24
-39,-68,-29,53,-4,-48,9,48,-170,-68,-24,14
-43,-58,-14,51,-14,-36,29,48,-170,-78,-29,4
-48,-58,-9,53,-19,-34,34,39,-185,-92,-39,-4
-58,-73,-14,65,-21,-43,39,24,-190,-102,-48,-19
-58,-73,-14,65,-21,-43,43,19,-195,-112,-48,-29
-58,-78,-19,68,-19,-48,43,14,-200,-112,-63,-48
-58,-87,-29,73,-14,-58,48,14,-209,-131,-73,-53
-68,-102,-34,85,-17,-68,43,14,-209,-122,-73,-73
-73,-102,-29,87,-21,-65,48,14,-209,-122,-78,-73
-78,-107,-29,92,-24,-68,48,19,-214,-122,-82,-78
-78,-112,-34,95,-21,-73,53,19,-224,-126,-82,-78
-87,-117,-29,102,-29,-73,68,19,-219,-131,-82,-87
-92,-122,-29,107,-31,-75,68,14,-224,-136,-87,-87
-97,-126,-29,112,-34,-78,73,14,-234,-141,-97,-97
-107,-131,-24,119,-41,-78,73,14,-244,-141,-97,-97
-112,-151,-39,131,-36,-95,87,14,-248,-161,-102,-97
-117,-161,-43,139,-36,-102,92,14,-258,-165,-107,-97
-126,-170,-43,148,-41,-107,97,19,-268,-170,-112,-97
-131,-180,-48,156,-41,-114,107,19,-273,-175,-117,-102
-131,-161,-29,146,-51,-95,102,9,-268,-165,-112,-102
-131,-156,-24,143,-53,-90,102,14,-268,-161,-107,-102
-131,-146,-14,139,-58,-80,107,14,-263,-151,-102,-102
-131,-136,-4,134,-63,-70,107,19,-253,-146,-97,-102
-126,-131,-4,129,-61,-68,102,29,-253,-146,-87,-97
-122,-131,-9,126,-56,-70,102,34,-248,-146,-87,-92
-117,-131,-14,124,-51,-73,102,34,-244,-151,-87,-92
-112,-126,-14,119,-48,-70,107,34,-239,-151,-92,-87
-112,-141,-29,126,-41,-85,107,39,-234,-151,-102,-97
-112,-146,-34,129,-39,-90,117,43,-234,-151,-97,-97
-112,-151,-39,131,-36,-95,107,48,-229,-151,-97,-97
-112,-151,-39,131,-36,-95,107,48,-224,-151,-97,-102
-122,-141,-19,131,-51,-80,117,39,-214,-146,-87,-102
-122,-151,-29,136,-46,-90,122,39,-204,-136,-87,-102
-122,-151,-29,136,-46,-90,122,39,-204,-131,-87,-102
-122,-151,-29,136,-46,-90,122,43,-204,-126,-87,-97
-122,-136,-14,129,-53,-75,122,34,-200,-117,-87,-97
-117,-136,-19,126,-48,-78,117,34,-200,-122,-82,-97
-117,-131,-14,124,-51,-73,117,34,-195,-126,-82,-97
-117,-131,-14,124,-51,-73,117,34,-190,-131,-82,-97
-117,-151,-34,134,-41,-92,117,29,-195,-122,-92,-87
-117,-151,-34,134,-41,-92,112,29,-195,-126,-92,-87
-117,-156,-39,136,-39,-97,112,29,-195,-126,-92,-87
-122,-161,-39,141,-41,-100,117,29,-195,-126,-92,-87
-131,-156,-24,143,-53,-90,112,39,-204,-136,-82,-87
-131,-156,-24,143,-53,-90,112,39,-204,-136,-82,-87
-131,-156,-24,143,-53,-90,112,39,-204,-136,-82,-87
-131,-156,-24,143,-53,-90,112,43,-204,-136,-82,-87
-131,-156,-24,143,-53,-90,122,39,-204,-146,-92,-97
-136,-161,-24,148,-56,-92,122,39,-204,-141,-92,-97
-136,-161,-24,148,-56,-92,126,39,-204,-141,-92,-97
-136,-161,-24,148,-56,-92,126,43,-209,-141,-92,-97
-126,-151,-24,139,-51,-87,131,39,-200,-136,-82,-87
-126,-151,-24,139,-51,-87,131,39,-195,-131,-82,-92
-126,-146,-19,136,-53,-82,131,39,-195,-126,-82,-92
-126,-146,-19,136,-53,-82,131,48,-195,-122,-82,-92
-136,-146,-9,141,-63,-78,122,48,-185,-117,-78,-82
-136,-146,-9,141,-63,-78,126,53,-185,-112,-73,-82
-136,-146,-9,141,-63,-78,126,53,-175,-97,-68,-82
-136,-146,-9,141,-63,-78,126,58,-175,-92,-58,-82
-131,-131,0,131,-65,-65,126,73,-175,-92,-58,-73
-126,-131,-4,129,-61,-68,126,73,-165,-92,-58,-73
-122,-131,-9,126,-56,-70,131,73,-165,-87,-63,-73
-107,-126,-19,117,-43,-73,131,82,-156,-87,-63,-73
-107,-117,-9,112,-48,-63,131,92,-165,-87,-53,-63
-107,-112,-4,109,-51,-58,136,92,-165,-82,-53,-63
-107,-112,-4,109,-51,-58,141,92,-156,-82,-48,-63
-107,-112,-4,109,-51,-58,146,92,-151,-87,-48,-63
-117,-122,-4,119,-56,-63,146,87,-156,-97,-48,-73
-117,-117,0,117,-58,-58,146,87,-146,-97,-53,-73
-117,-112,4,114,-61,-53,146,87,-141,-97,-58,-73
-112,-112,0,112,-56,-56,146,82,-141,-92,-63,-73
-122,-117,4,119,-63,-56,151,78,-146,-92,-63,-82
-117,-117,0,117,-58,-58,161,78,-146,-92,-58,-82
-117,-112,4,114,-61,-53,170,78,-141,-92,-58,-82
-117,-102,14,109,-65,-43,175,78,-141,-87,-63,-82
-112,-112,0,112,-56,-56,185,78,-151,-97,-53,-87
-112,-112,0,112,-56,-56,190,82,-141,-87,-53,-87
-112,-107,4,109,-58,-51,190,82,-136,-87,-53,-82
-112,-107,4,109,-58,-51,190,82,-131,-82,-53,-78
-107,-112,-4,109,-51,-58,180,78,-131,-73,-39,-73
-107,-107,0,107,-53,-53,185,87,-126,-73,-34,-68
-107,-102,4,104,-56,-48,185,102,-122,-68,-29,-58
-107,-97,9,102,-58,-43,190,112,-117,-58,-24,-53
-107,-87,19,97,-63,-34,195,102,-112,-48,-24,-63
-112,-87,24,100,-68,-31,195,97,-102,-43,-24,-63
-112,-82,29,97,-70,-26,200,97,-97,-39,-14,-63
-112,-78,34,95,-73,-21,204,102,-92,-39,-14,-58
-112,-87,24,100,-68,-31,195,112,-102,-43,-19,-48
-107,-87,19,97,-63,-34,204,122,-97,-43,-19,-48
-102,-92,9,97,-56,-41,204,131,-87,-48,-19,-48
-92,-92,0,92,-46,-46,204,146,-87,-43,-14,-48
-92,-82,9,87,-51,-36,204,161,-78,-34,-9,-39
-87,-82,4,85,-46,-39,219,161,-68,-29,0,-39
-87,-73,14,80,-51,-29,224,170,-53,-29,4,-39
-87,-73,14,80,-51,-29,224,180,-39,-19,9,-39
-87,-63,24,75,-56,-19,219,185,-24,-9,9,-43
-87,-53,34,70,-61,-9,224,200,-9,-4,14,-43
-82,-43,39,63,-61,-2,224,204,-4,4,19,-39
-82,-39,43,61,-63,2,224,214,9,14,29,-39
-78,-19,58,48,-68,19,224,234,29,34,39,-29
-78,-14,63,46,-70,24,229,239,48,39,43,-24
-73,0,73,36,-73,36,234,244,58,58,53,-24
-63,19,82,21,-73,51,234,258,63,73,63,-19
-63,9,73,26,-68,41,248,283,73,68,58,-19
-53,9,63,21,-58,36,253,292,78,73,63,-14
-53,9,63,21,-58,36,253,302,92,78,73,-9
-53,14,68,19,-61,41,263,317,102,82,78,-9
-53,9,63,21,-58,36,273,331,117,78,73,-14
-48,19,68,14,-58,43,273,346,136,82,78,-14
-43,19,63,12,-53,41,273,361,151,97,82,-4
-43,34,78,4,-61,56,283,375,161,117,87,-4
-29,53,82,-12,-56,68,283,375,190,141,112,9
-19,78,97,-29,-58,87,283,390,214,165,122,14
-14,97,112,-41,-63,104,283,405,239,190,136,19
-4,117,122,-56,-63,119,283,424,263,209,151,19
-9,117,126,-53,-68,122,283,424,273,214,146,9
0,117,117,-58,-58,117,283,444,287,219,146,9
4,117,112,-61,-53,114,283,458,292,224,151,19
9,117,107,-63,-48,112,283,473,302,229,151,19
19,131,112,-75,-46,122,283,488,317,244,170,24
29,146,117,-87,-43,131,283,507,331,258,170,39
39,146,107,-92,-34,126,283,527,356,273,175,48
48,151,102,-100,-26,126,283,536,380,292,185,53
43,165,122,-104,-39,143,283,536,385,297,195,53
48,165,117,-107,-34,141,273,536,405,302,195,53
48,170,122,-109,-36,146,273,531,409,307,200,53
48,180,131,-114,-41,156,268,527,419,312,204,53
48,185,136,-117,-43,161,273,531,429,317,209,63
48,190,141,-119,-46,165,268,536,434,326,209,68
53,190,136,-122,-41,163,263,541,439,326,209,68
58,195,136,-126,-39,165,258,536,439,326,204,68
68,204,136,-136,-34,170,239,531,434,322,204,78
68,204,136,-136,-34,170,239,527,434,322,204,78
68,209,141,-139,-36,175,224,517,429,322,204,78
73,214,141,-143,-34,178,219,507,419,312,200,87
68,214,146,-141,-39,180,209,478,409,307,209,87
63,209,146,-136,-41,178,200,463,390,292,209,87
58,195,136,-126,-39,165,190,444,366,287,209,87
53,180,126,-117,-36,153,175,429,346,273,200,92
43,175,131,-109,-43,153,175,395,322,268,200,102
43,170,126,-107,-41,148,161,370,302,253,195,102
34,165,131,-100,-48,148,151,346,287,244,190,107
29,161,131,-95,-51,146,141,317,258,239,185,112
29,156,126,-92,-48,141,122,273,244,219,180,107
24,151,126,-87,-51,139,107,253,204,200,165,102
19,146,126,-82,-53,136,97,229,180,185,165,97
14,141,126,-78,-56,134,87,204,156,170,161,92
9,126,117,-68,-53,122,87,185,122,141,146,82
4,126,122,-65,-58,124,78,156,92,122,136,78
0,126,126,-63,-63,126,78,126,73,107,136,78
0,117,117,-58,-58,117,63,107,48,82,122,73
-4,97,102,-46,-53,100,43,87,24,63,112,73
-9,87,97,-39,-53,92,43,78,0,53,112,73
-9,78,87,-34,-48,82,39,68,-19,39,107,73
-14,68,82,-26,-48,75,29,63,-43,29,92,63
-24,58,82,-17,-53,70,29,43,-78,14,73,58
-34,48,82,-7,-58,65,24,19,-97,0,68,48
-43,39,82,2,-63,61,24,0,-112,-9,58,39
-48,29,78,9,-63,53,24,-19,-131,-24,53,24
-58,4,63,26,-61,34,29,-14,-146,-34,43,29
-63,-4,58,34,-61,26,34,-14,-161,-43,34,19
-68,-14,53,41,-61,19,34,-19,-180,-58,24,19
-73,-34,39,53,-56,2,39,-24,-190,-73,14,19
-78,-24,53,51,-65,14,29,-34,-190,-78,14,29
-78,-24,53,51,-65,14,29,-39,-195,-73,14,29
-73,-24,48,48,-61,12,29,-39,-200,-82,14,29
-68,-24,43,46,-56,9,24,-48,-204,-87,14,19
-68,-29,39,48,-53,4,24,-48,-224,-87,9,9
-78,-34,43,56,-61,4,19,-48,-229,-87,9,9
-78,-43,34,61,-56,-4,14,-48,-229,-92,9,4
-73,-53,19,63,-46,-17,14,-43,-234,-97,9,4
-82,-53,29,68,-56,-12,14,-39,-248,-112,-4,14
-82,-68,14,75,-48,-26,14,-39,-248,-117,-14,4
-82,-73,9,78,-46,-31,14,-43,-253,-122,-19,0
-87,-78,9,82,-48,-34,14,-43,-253,-122,-24,0
-82,-63,19,73,-51,-21,4,-53,-248,-112,-24,-4
-78,-53,24,65,-51,-14,4,-53,-244,-102,-19,-4
-73,-48,24,61,-48,-12,4,-53,-239,-92,-14,-4
-73,-43,29,58,-51,-7,4,-53,-234,-82,-9,-4
-63,-53,9,58,-36,-21,-4,-53,-239,-97,-19,-14
-63,-53,9,58,-36,-21,-4,-53,-239,-102,-19,-14
-58,-53,4,56,-31,-24,-4,-53,-239,-102,-19,-14
-58,-53,4,56,-31,-24,-4,-58,-239,-102,-19,-14
-63,-63,0,63,-31,-31,0,-68,-248,-107,-29,-24
-68,-63,4,65,-36,-29,4,-68,-248,-107,-29,-24
-78,-63,14,70,-46,-24,4,-68,-248,-102,-34,-29
-82,-63,19,73,-51,-21,9,-68,-248,-102,-34,-29
-92,-73,19,82,-56,-26,14,-63,-239,-102,-19,-19
-97,-78,19,87,-58,-29,19,-63,-239,-102,-19,-19
-97,-82,14,90,-56,-34,29,-68,-244,-107,-19,-19
-92,-87,4,90,-48,-41,34,-68,-244,-112,-24,-19
-92,-87,4,90,-48,-41,29,-78,-253,-102,-34,-19
-97,-87,9,92,-53,-39,29,-78,-253,-107,-34,-24
-102,-92,9,97,-56,-41,29,-78,-248,-107,-39,-24
-102,-92,9,97,-56,-41,29,-78,-248,-107,-39,-24
-92,-73,19,82,-56,-26,24,-87,-239,-102,-29,-14
-87,-68,19,78,-53,-24,19,-87,-239,-102,-29,-14
-87,-68,19,78,-53,-24,14,-92,-239,-102,-29,-14
-97,-63,34,80,-65,-14,14,-92,-239,-102,-29,-14
-92,-63,29,78,-61,-17,4,-87,-248,-102,-34,-24
-87,-63,24,75,-56,-19,4,-82,-248,-102,-34,-19
-82,-73,9,78,-46,-31,4,-78,-253,-107,-34,-19
-78,-73,4,75,-41,-34,4,-73,-253,-107,-29,-19
-73,-63,9,68,-41,-26,14,-82,-253,-107,-29,-14
-73,-63,9,68,-41,-26,14,-78,-253,-107,-29,-14
-73,-63,9,68,-41,-26,9,-78,-253,-107,-29,-19
-73,-63,9,68,-41,-26,9,-78,-253,-107,-29,-19
-82,-53,29,68,-56,-12,9,-82,-263,-107,-29,-9
-78,-48,29,63,-53,-9,9,-82,-258,-107,-29,-14
-78,-48,29,63,-53,-9,9,-82,-258,-112,-29,-14
-78,-53,24,65,-51,-14,14,-82,-258,-112,-29,-9
-87,-58,29,73,-58,-14,19,-92,-268,-122,-39,-19
-87,-63,24,75,-56,-19,19,-92,-268,-122,-43,-19
-87,-68,19,78,-53,-24,24,-92,-263,-122,-43,-19
-97,-73,24,85,-61,-24,24,-102,-263,-122,-43,-19
-97,-63,34,80,-65,-14,14,-92,-253,-117,-34,-9
-97,-63,34,80,-65,-14,14,-92,-253,-117,-34,-9
-97,-63,34,80,-65,-14,19,-92,-253,-117,-29,-9
-97,-58,39,78,-68,-9,19,-92,-253,-117,-29,-9
-97,-58,39,78,-68,-9,19,-92,-268,-122,-34,-19
-102,-58,43,80,-73,-7,19,-87,-268,-126,-39,-24
-102,-58,43,80,-73,-7,19,-82,-273,-131,-48,-34
-102,-68,34,85,-68,-17,19,-78,-273,-141,-53,-39
-107,-73,34,90,-70,-19,29,-82,-283,-131,-48,-43
-112,-73,39,92,-75,-17,29,-87,-283,-131,-48,-43
-112,-78,34,95,-73,-21,29,-92,-283,-131,-48,-39
-117,-78,39,97,-78,-19,29,-97,-283,-131,-48,-34
-112,-78,34,95,-73,-21,34,-92,-278,-126,-43,-29
-112,-78,34,95,-73,-21,34,-92,-273,-122,-39,-24
-122,-82,39,102,-80,-21,34,-92,-268,-117,-34,-29
-122,-82,39,102,-80,-21,39,-92,-268,-112,-29,-24
-107,-87,19,97,-63,-34,34,-82,-268,-117,-34,-29
-107,-97,9,102,-58,-43,34,-82,-273,-122,-39,-29
-107,-102,4,104,-56,-48,39,-78,-273,-126,-43,-29
-107,-107,0,107,-53,-53,39,-78,-273,-126,-48,-29
-107,-97,9,102,-58,-43,39,-78,-263,-126,-58,-43
-107,-97,9,102,-58,-43,39,-78,-263,-131,-58,-48
-107,-97,9,102,-58,-43,39,-78,-263,-131,-58,-53
-107,-92,14,100,-61,-39,39,-78,-263,-131,-58,-63
-107,-82,24,95,-65,-29,39,-78,-248,-112,-58,-58
-107,-78,29,92,-68,-24,39,-78,-248,-112,-58,-53
-107,-78,29,92,-68,-24,34,-78,-248,-112,-58,-48
-107,-78,29,92,-68,-24,34,-73,-248,-112,-58,-39
-102,-68,34,85,-68,-17,24,-63,-239,-107,-53,-24
-97,-68,29,82,-63,-19,24,-63,-239,-102,-48,-24
-87,-68,19,78,-53,-24,24,-63,-239,-92,-43,-24
-82,-68,14,75,-48,-26,29,-63,-234,-87,-39,-19
-87,-78,9,82,-48,-34,19,-58,-234,-97,-53,-24
-87,-78,9,82,-48,-34,19,-58,-234,-102,-53,-29
-87,-78,9,82,-48,-34,19,-63,-234,-107,-48,-34
-82,-78,4,80,-43,-36,19,-63,-234,-112,-43,-43
-78,-73,4,75,-41,-34,19,-63,-244,-112,-48,-48
-78,-63,14,70,-46,-24,19,-63,-239,-107,-48,-48
-78,-58,19,68,-48,-19,19,-63,-239,-107,-43,-48
-78,-53,24,65,-51,-14,19,-63,-234,-107,-43,-53
-73,-58,14,65,-43,-21,19,-53,-229,-92,-39,-43
-73,-58,14,65,-43,-21,19,-53,-224,-87,-39,-43
-73,-53,19,63,-46,-17,19,-53,-219,-82,-34,-43
-78,-53,24,65,-51,-14,14,-53,-214,-78,-34,-43
-87,-63,24,75,-56,-19,14,-63,-224,-82,-48,-34
-87,-68,19,78,-53,-24,14,-63,-229,-97,-48,-34
-82,-68,14,75,-48,-26,14,-63,-234,-102,-48,-34
-82,-73,9,78,-46,-31,14,-58,-234,-107,-48,-34
-92,-87,4,90,-48,-41,24,-68,-234,-107,-58,-34
-92,-87,4,90,-48,-41,24,-68,-234,-107,-58,-34
-92,-87,4,90,-48,-41,24,-68,-234,-107,-58,-34
-92,-97,-4,95,-43,-51,24,-68,-229,-107,-58,-34
-97,-97,0,97,-48,-48,34,-78,-219,-102,-48,-43
-102,-92,9,97,-56,-41,34,-78,-224,-97,-48,-48
-107,-87,19,97,-63,-34,34,-82,-224,-92,-48,-48
-112,-82,29,97,-70,-26,34,-82,-219,-78,-43,-48
-107,-82,24,95,-65,-29,24,-68,-224,-82,-53,-53
-102,-82,19,92,-61,-31,24,-68,-229,-87,-53,-53
-97,-78,19,87,-58,-29,29,-68,-239,-97,-53,-53
-92,-78,14,85,-53,-31,29,-68,-248,-107,-53,-53
-82,-78,4,80,-43,-36,19,-68,-248,-97,-53,-53
-78,-78,0,78,-39,-39,14,-63,-244,-97,-53,-53
-73,-82,-9,78,-31,-46,9,-58,-239,-97,-48,-53
-68,-82,-14,75,-26,-48,4,-53,-234,-97,-48,-53
-78,-73,4,75,-41,-34,4,-53,-244,-97,-39,-48
-78,-73,4,75,-41,-34,4,-53,-244,-97,-39,-43
-78,-73,4,75,-41,-34,9,-53,-244,-97,-39,-39
-78,-73,4,75,-41,-34,9,-58,-253,-97,-39,-34
-87,-73,14,80,-51,-29,9,-68,-258,-102,-43,-29
-87,-78,9,82,-48,-34,14,-73,-258,-102,-43,-29
-87,-87,0,87,-43,-43,19,-73,-248,-102,-43,-24
-87,-92,-4,90,-41,-48,14,-68,-248,-102,-43,-24
-78,-82,-4,80,-36,-43,14,-58,-248,-112,-39,-29
-78,-82,-4,80,-36,-43,19,-58,-248,-112,-39,-34
-78,-92,-14,85,-31,-53,19,-58,-248,-112,-43,-39
-78,-82,-4,80,-36,-43,19,-58,-248,-112,-43,-43
-68,-78,-9,73,-29,-43,14,-68,-248,-97,-34,-43
-68,-78,-9,73,-29,-43,9,-68,-248,-97,-34,-48
-68,-73,-4,70,-31,-39,4,-68,-248,-92,-34,-48
-73,-68,4,70,-39,-31,0,-68,-248,-82,-34,-43
-82,-78,4,80,-43,-36,9,-68,-258,-87,-39,-53
-82,-78,4,80,-43,-36,9,-78,-263,-92,-43,-53
-82,-78,4,80,-43,-36,9,-78,-268,-97,-48,-53
-82,-82,0,82,-41,-41,9,-73,-268,-102,-48,-48
-78,-92,-14,85,-31,-53,9,-63,-263,-112,-39,-43
-78,-87,-9,82,-34,-48,9,-63,-263,-112,-39,-39
-78,-87,-9,82,-34,-48,4,-63,-263,-112,-39,-34
-78,-87,-9,82,-34,-48,4,-63,-263,-117,-39,-34
-78,-87,-9,82,-34,-48,14,-63,-263,-117,-48,-34
-78,-87,-9,82,-34,-48,14,-63,-263,-117,-48,-34
-78,-92,-14,85,-31,-53,14,-63,-268,-126,-48,-39
-78,-92,-14,85,-31,-53,9,-63,-268,-126,-48,-39
-68,-82,-14,75,-26,-48,9,-63,-253,-112,-39,-39
-73,-82,-9,78,-31,-46,9,-63,-253,-112,-43,-39
-73,-82,-9,78,-31,-46,9,-63,-253,-107,-43,-34
-73,-82,-9,78,-31,-46,9,-63,-253,-107,-43,-34
-82,-73,9,78,-46,-31,0,-63,-253,-122,-53,-43
-82,-73,9,78,-46,-31,0,-63,-253,-122,-53,-43
-82,-73,9,78,-46,-31,0,-58,-253,-117,-48,-43
-82,-73,9,78,-46,-31,0,-58,-253,-117,-48,-43
-68,-73,-4,70,-31,-39,9,-68,-268,-122,-63,-53
-68,-73,-4,70,-31,-39,9,-68,-268,-126,-63,-53
-68,-73,-4,70,-31,-39,9,-68,-268,-131,-63,-53
-68,-68,0,68,-34,-34,9,-68,-268,-136,-63,-53
-58,-58,0,58,-29,-29,9,-68,-253,-126,-58,-39
-58,-58,0,58,-29,-29,9,-63,-248,-117,-53,-34
-58,-58,0,58,-29,-29,9,-53,-244,-107,-43,-29
-58,-53,4,56,-31,-24,9,-48,-239,-97,-34,-24
-63,-53,9,58,-36,-21,-4,-53,-248,-92,-43,-29
-63,-53,9,58,-36,-21,-4,-58,-248,-92,-43,-29
-63,-53,9,58,-36,-21,-9,-63,-248,-92,-43,-29
-63,-53,9,58,-36,-21,-9,-68,-248,-97,-43,-24
-68,-73,-4,70,-31,-39,0,-68,-258,-102,-58,-34
-73,-78,-4,75,-34,-41,0,-68,-258,-112,-58,-34
-78,-82,-4,80,-36,-43,0,-68,-258,-117,-63,-34
-82,-92,-9,87,-36,-51,0,-68,-258,-126,-63,-39
-82,-102,-19,92,-31,-61,0,-78,-248,-122,-68,-48
-87,-102,-14,95,-36,-58,0,-78,-248,-117,-63,-48
-87,-97,-9,92,-39,-53,0,-78,-248,-112,-63,-48
-87,-97,-9,92,-39,-53,4,-82,-248,-107,-63,-43
-87,-82,4,85,-46,-39,-4,-73,-258,-107,-58,-43
-87,-78,9,82,-48,-34,0,-73,-263,-107,-58,-43
-87,-73,14,80,-51,-29,0,-73,-263,-107,-53,-53
-87,-68,19,78,-53,-24,0,-73,-263,-107,-48,-53
-87,-58,29,73,-58,-14,4,-82,-244,-87,-39,-39
-87,-58,29,73,-58,-14,4,-87,-244,-78,-34,-39
-78,-58,19,68,-48,-19,4,-73,-234,-68,-14,-29
-68,-48,19,58,-43,-14,0,-68,-253,-87,-39,-29
-68,-48,19,58,-43,-14,-9,-73,-258,-102,-43,-39
-68,-48,19,58,-43,-14,-9,-78,-263,-107,-48,-39
-68,-48,19,58,-43,-14,-9,-82,-268,-112,-53,-39
-68,-48,19,58,-43,-14,-9,-87,-273,-117,-58,-39
-78,-63,14,70,-46,-24,0,-87,-273,-126,-68,-48
-78,-68,9,73,-43,-29,0,-87,-273,-126,-68,-48
-78,-73,4,75,-41,-34,0,-87,-273,-126,-68,-48
-78,-78,0,78,-39,-39,0,-87,-273,-126,-68,-48
-68,-73,-4,70,-31,-39,0,-87,-273,-117,-58,-39
-68,-68,0,68,-34,-34,0,-87,-273,-117,-58,-39
-68,-63,4,65,-36,-29,0,-87,-273,-117,-58,-39
-68,-58,9,63,-39,-24,0,-87,-273,-117,-58,-39
-63,-48,14,56,-39,-17,-9,-78,-273,-117,-48,-29
-58,-48,9,53,-34,-19,-9,-78,-273,-117,-48,-29
-53,-48,4,51,-29,-21,-9,-78,-273,-117,-48,-29
-48,-48,0,48,-24,-24,-9,-78,-273,-117,-48,-29
-58,-58,0,58,-29,-29,0,-78,-283,-117,-48,-39
-58,-58,0,58,-29,-29,0,-78,-283,-117,-48,-39
-58,-58,0,58,-29,-29,0,-78,-283,-117,-48,-39
-58,-58,0,58,-29,-29,0,-78,-283,-117,-48,-39
-68,-53,14,61,-41,-19,-9,-82,-268,-112,-43,-29
-68,-48,19,58,-43,-14,-9,-87,-263,-107,-39,-29
-68,-43,24,56,-46,-9,-9,-92,-258,-102,-34,-29
-68,-39,29,53,-48,-4,-9,-97,-253,-97,-29,-29
-78,-53,24,65,-51,-14,0,-97,-268,-107,-34,-29
-78,-58,19,68,-48,-19,0,-97,-273,-117,-39,-29
-78,-63,14,70,-46,-24,0,-97,-278,-126,-43,-29
-78,-68,9,73,-43,-29,0,-97,-283,-136,-48,-29
-68,-58,9,63,-39,-24,0,-107,-283,-146,-58,-29
-68,-58,9,63,-39,-24,0,-107,-283,-146,-58,-29
-68,-58,9,63,-39,-24,0,-107,-283,-146,-58,-29
-68,-58,9,63,-39,-24,0,-107,-283,-146,-58,-29
-78,-53,24,65,-51,-14,0,-117,-273,-131,-43,-29
-78,-48,29,63,-53,-9,0,-117,-273,-126,-39,-29
-78,-43,34,61,-56,-4,0,-117,-273,-122,-34,-29
-78,-39,39,58,-58,0,0,-117,-273,-117,-29,-29
-78,-43,34,61,-56,-4,9,-126,-263,-117,-39,-39
-78,-48,29,63,-53,-9,9,-126,-263,-117,-39,-39
-78,-53,24,65,-51,-14,9,-126,-263,-117,-39,-39
-78,-58,19,68,-48,-19,9,-126,-263,-117,-39,-39
-73,-53,19,63,-46,-17,0,-112,-263,-107,-39,-29
-68,-48,19,58,-43,-14,0,-107,-263,-107,-39,-29
-63,-43,19,53,-41,-12,0,-102,-263,-107,-39,-29
-58,-39,19,48,-39,-9,0,-97,-263,-107,-39,-29
-58,-29,29,43,-43,0,0,-87,-263,-117,-48,-29
-58,-29,29,43,-43,0,0,-87,-263,-117,-48,-29
-58,-29,29,43,-43,0,0,-87,-263,-117,-48,-29
-58,-34,24,46,-41,-4,4,-87,-263,-117,-43,-29
-58,-39,19,48,-39,-9,9,-97,-258,-112,-43,-29
-58,-43,14,51,-36,-14,19,-97,-253,-112,-43,-29
-58,-48,9,53,-34,-19,24,-97,-244,-112,-43,-29
-53,-53,0,53,-26,-26,24,-92,-239,-112,-43,-24
-58,-48,9,53,-34,-19,9,-92,-239,-102,-43,-29
-53,-43,9,48,-31,-17,9,-97,-234,-102,-43,-29
-53,-39,14,46,-34,-12,14,-102,-234,-102,-43,-34
-53,-34,19,43,-36,-7,14,-107,-234,-102,-43,-34
-43,-34,9,39,-26,-12,0,-97,-234,-92,-48,-43
-43,-43,0,43,-21,-21,-4,-97,-234,-92,-53,-53
-43,-48,-4,46,-19,-26,-9,-97,-234,-97,-53,-58
-43,-48,-4,46,-19,-26,-9,-97,-239,-97,-53,-58
-53,-53,0,53,-26,-26,-4,-92,-239,-97,-58,-53
-48,-58,-9,53,-19,-34,0,-87,-239,-97,-58,-53
-39,-63,-24,51,-7,-43,4,-78,-239,-97,-58,-53
-34,-68,-34,51,0,-51,9,-73,-239,-97,-53,-53
-39,-78,-39,58,0,-58,9,-73,-239,-102,-63,-48
-29,-63,-34,46,2,-48,9,-73,-229,-102,-63,-43
-29,-43,-14,36,-7,-29,9,-73,-224,-102,-53,-24
-29,-39,-9,34,-9,-24,9,-73,-219,-97,-43,-14
-19,-19,0,19,-9,-9,4,-63,-219,-97,-43,-24
-19,-19,0,19,-9,-9,9,-63,-209,-87,-43,-24
-14,-19,-4,17,-4,-12,9,-63,-209,-82,-43,-14
-9,-19,-9,14,0,-14,9,-63,-209,-82,-43,-14
4,-9,-14,2,9,-12,14,-53,-195,-73,-39,-14
4,-19,-24,7,14,-21,14,-43,-195,-73,-34,-14
14,-29,-43,7,29,-36,14,-43,-195,-78,-29,-14
19,-29,-48,4,34,-39,9,-48,-190,-73,-24,-14
24,-29,-53,2,39,-41,14,-39,-195,-78,-14,-9
29,-4,-34,-12,31,-19,4,-39,-185,-63,-4,4
29,19,-9,-24,19,4,4,-48,-170,-53,4,14
29,29,0,-29,14,14,-9,-53,-165,-39,14,24
19,63,43,-41,-12,53,-19,-73,-151,-19,34,43
14,82,68,-48,-26,75,-34,-78,-151,-19,34,43
14,78,63,-46,-24,70,-39,-78,-156,-19,34,43
9,73,63,-41,-26,68,-43,-82,-165,-29,29,43
9,48,39,-29,-14,43,-43,-92,-190,-43,19,34
9,29,19,-19,-4,24,-43,-92,-195,-58,4,19
9,4,-4,-7,7,0,-43,-92,-209,-78,-9,0
9,-14,-24,2,17,-19,-39,-92,-219,-78,-9,0
9,-14,-24,2,17,-19,-48,-82,-209,-87,-29,-4
14,-14,-29,0,21,-21,-43,-78,-209,-87,-29,-4
19,-9,-29,-4,24,-19,-39,-78,-204,-87,-24,0
24,4,-19,-14,21,-7,-39,-82,-204,-87,-19,4
24,14,-9,-19,17,2,-48,-82,-214,-97,-19,4
29,9,-19,-19,24,-4,-48,-82,-219,-92,-19,4
39,9,-29,-24,34,-9,-53,-82,-219,-92,-19,9
43,9,-34,-26,39,-12,-53,-82,-219,-102,-19,9
43,14,-29,-29,36,-7,-53,-73,-209,-87,-9,9
48,19,-29,-34,39,-4,-58,-73,-209,-82,-19,9
58,24,-34,-41,46,-4,-58,-73,-209,-78,-9,9
63,39,-24,-51,43,7,-58,-73,-204,-68,-9,9
68,48,-19,-58,43,14,-58,-63,-200,-58,-4,19
63,53,-9,-58,36,21,-58,-63,-195,-58,0,24
63,58,-4,-61,34,26,-53,-58,-190,-58,4,24
58,48,-9,-53,34,19,-43,-58,-180,-68,0,14
48,43,-4,-46,26,19,-29,-68,-170,-63,-14,4
34,34,0,-34,17,17,-14,-73,-180,-63,-19,0
14,19,4,-17,4,12,-9,-78,-180,-63,-19,0
4,14,9,-9,-2,12,4,-92,-180,-63,-19,0
-4,9,14,-2,-9,12,14,-87,-190,-68,-34,-9
-9,4,14,2,-12,9,14,-92,-190,-73,-34,-9
-9,0,9,4,-9,4,14,-92,-190,-82,-34,-9
-14,-9,4,12,-9,-2,14,-92,-190,-87,-34,-9
-24,-19,4,21,-14,-7,0,-92,-180,-87,-34,-24
-24,-19,4,21,-14,-7,0,-97,-185,-87,-39,-24
-24,-14,9,19,-17,-2,0,-97,-185,-87,-39,-24
-29,-14,14,21,-21,0,0,-97,-185,-87,-39,-24
-39,-19,19,29,-29,0,0,-107,-185,-92,-48,-24
-43,-24,19,34,-31,-2,0,-107,-185,-92,-48,-24
-43,-34,9,39,-26,-12,-4,-107,-180,-92,-48,-24
-43,-43,0,43,-21,-21,-9,-107,-180,-92,-48,-24
-53,-48,4,51,-29,-21,-4,-102,-180,-82,-48,-24
-63,-63,0,63,-31,-31,0,-92,-190,-97,-58,-43
-68,-82,-14,75,-26,-48,24,-82,-190,-102,-58,-63
-78,-102,-24,90,-26,-63,24,-82,-185,-112,-68,-63
-78,-117,-39,97,-19,-78,34,-73,-200,-122,-78,-78
-87,-141,-53,114,-17,-97,48,-48,-214,-146,-112,-97
-87,-161,-73,124,-7,-117,78,-14,-204,-161,-141,-112
-92,-170,-78,131,-7,-124,97,9,-190,-151,-151,-126
-92,-165,-73,129,-9,-119,117,39,-161,-136,-141,-126
-68,-151,-82,109,7,-117,136,68,-102,-92,-112,-112
-43,-131,-87,87,21,-109,136,112,-39,-39,-73,-102
-24,-107,-82,65,29,-95,136,146,24,9,-43,-87
4,-78,-82,36,43,-80,126,156,78,58,-4,-48
34,-34,-68,0,51,-51,97,156,131,102,34,-14
73,4,-68,-39,70,-31,53,141,156,136,73,14
126,87,-39,-107,82,24,-53,117,185,200,131,68
204,214,9,-209,97,112,-200,58,248,297,234,156
283,356,73,-319,104,214,-341,-4,322,405,366,263
366,512,146,-439,109,329,-483,-53,424,541,517,400
473,673,200,-573,136,436,-673,-87,536,692,683,546
575,834,258,-705,158,546,-844,-141,639,834,844,683
663,1005,341,-834,161,673,-995,-209,717,961,1000,834
717,1137,419,-927,148,778,-1127,-278,800,1088,1156,971
732,1249,517,-990,107,883,-1200,-375,868,1195,1288,1098
688,1361,673,-1024,7,1017,-1259,-502,927,1288,1390,1205
653,1478,824,-1066,-85,1151,-1322,-619,985,1371,1498,1302
644,1571,927,-1107,-141,1249,-1385,-717,1015,1449,1610,1405
653,1654,1000,-1154,-173,1327,-1459,-790,1049,1542,1722,1507
673,1727,1054,-1200,-190,1390,-1532,-834,1088,1595,1810,1595
673,1712,1039,-1193,-183,1376,-1537,-834,1039,1561,1820,1644
653,1625,971,-1139,-158,1298,-1522,-829,912,1449,1776,1634
653,1595,941,-1124,-143,1268,-1512,-839,834,1385,1737,1644
639,1595,956,-1117,-158,1276,-1468,-819,795,1356,1722,1644
580,1488,907,-1034,-163,1198,-1351,-756,702,1224,1605,1566
517,1283,766,-900,-124,1024,-1190,-668,492,966,1342,1366
453,995,541,-724,-43,768,-990,-566,224,614,1019,1107
351,683,331,-517,9,507,-771,-473,-68,268,673,834
253,424,170,-339,41,297,-590,-385,-278,9,400,600
195,307,112,-251,41,209,-468,-312,-283,-63,258,444
136,258,122,-197,7,190,-356,-268,-190,-29,200,351
58,185,126,-122,-34,156,-239,-224,-146,-29,136,244
0,92,92,-46,-46,92,-146,-185,-122,-39,63,146
-29,34,63,-2,-46,48,-97,-136,-82,-39,34,87
-43,-9,34,26,-39,12,-63,-117,-63,-29,9,58
-63,-24,39,43,-51,7,-24,-97,-53,-39,-9,24
-97,-48,48,73,-73,0,9,-78,-34,-29,-14,14
-112,-58,53,85,-82,-2,19,-68,-14,-19,-9,4
-117,-58,58,87,-87,0,34,-68,-19,-24,-19,4
-107,-63,43,85,-75,-9,39,-63,-34,-43,-39,-9
-107,-73,34,90,-70,-19,43,-58,-48,-63,-58,-19
-87,-87,0,87,-43,-43,53,-43,-73,-82,-73,-39
-78,-97,-19,87,-29,-58,39,-43,-82,-102,-82,-53
-78,-92,-14,85,-31,-53,34,-34,-78,-92,-73,-63
-82,-92,-9,87,-36,-51,39,-34,-73,-92,-78,-63
-87,-97,-9,92,-39,-53,39,-29,-73,-92,-82,-68
-87,-102,-14,95,-36,-58,43,-29,-78,-97,-82,-68
-87,-97,-9,92,-39,-53,58,-29,-68,-92,-82,-68
-92,-102,-9,97,-41,-56,58,-34,-68,-97,-87,-68
-97,-107,-9,102,-43,-58,63,-34,-73,-102,-97,-78
-107,-112,-4,109,-51,-58,63,-34,-78,-102,-97,-78
-117,-117,0,117,-58,-58,73,-39,-73,-117,-107,-78
-117,-122,-4,119,-56,-63,73,-43,-73,-117,-107,-78
-122,-126,-4,124,-58,-65,73,-43,-73,-117,-107,-78
-122,-131,-9,126,-56,-70,78,-48,-68,-117,-107,-82
-131,-141,-9,136,-61,-75,82,-48,-58,-102,-107,-92
-131,-146,-14,139,-58,-80,82,-43,-63,-102,-107,-92
-131,-146,-14,139,-58,-80,87,-43,-63,-97,-107,-92
-131,-146,-14,139,-58,-80,87,-39,-58,-97,-107,-92
-122,-141,-19,131,-51,-80,92,-29,-58,-107,-107,-97
-122,-141,-19,131,-51,-80,92,-24,-53,-107,-107,-102
-122,-141,-19,131,-51,-80,92,-24,-48,-112,-107,-112
-122,-136,-14,129,-53,-75,97,-24,-43,-112,-112,-117
-131,-146,-14,139,-58,-80,107,-29,-39,-102,-122,-107
-131,-146,-14,139,-58,-80,117,-24,-39,-102,-117,-107
-131,-146,-14,139,-58,-80,107,-19,-34,-102,-117,-107
-131,-141,-9,136,-61,-75,107,-19,-29,-102,-117,-112
-131,-131,0,131,-65,-65,97,-19,-24,-97,-112,-97
-131,-141,-9,136,-61,-75,102,-19,-9,-87,-107,-92
-131,-141,-9,136,-61,-75,102,-19,-4,-82,-102,-87
-131,-141,-9,136,-61,-75,102,-14,0,-78,-97,-78
-122,-126,-4,124,-58,-65,92,-14,4,-78,-107,-82
-117,-126,-9,122,-53,-68,87,-14,4,-82,-102,-87
-117,-122,-4,119,-56,-63,87,-14,9,-87,-102,-92
-117,-122,-4,119,-56,-63,87,-14,14,-92,-102,-97
-107,-131,-24,119,-41,-78,97,-9,9,-92,-112,-97
-107,-131,-24,119,-41,-78,92,-9,9,-97,-112,-97
-107,-136,-29,122,-39,-82,92,-9,9,-97,-112,-97
-112,-141,-29,126,-41,-85,97,-9,9,-97,-112,-97
-112,-136,-24,124,-43,-80,102,-19,9,-97,-102,-97
-112,-136,-24,124,-43,-80,102,-19,9,-97,-102,-97
-112,-136,-24,124,-43,-80,102,-19,9,-97,-102,-97
-112,-136,-24,124,-43,-80,102,-14,9,-97,-102,-97
-112,-146,-34,129,-39,-90,92,-9,4,-107,-112,-97
-117,-151,-34,134,-41,-92,92,-9,0,-102,-112,-97
-117,-151,-34,134,-41,-92,97,-9,-4,-102,-112,-97
-117,-151,-34,134,-41,-92,97,-4,-14,-102,-112,-97
-117,-151,-34,134,-41,-92,102,9,-4,-92,-102,-97
-117,-151,-34,134,-41,-92,102,9,0,-92,-102,-102
-117,-146,-29,131,-43,-87,102,9,0,-92,-102,-102
-117,-146,-29,131,-43,-87,102,19,0,-92,-102,-102
-107,-141,-34,124,-36,-87,112,19,9,-82,-102,-92
-107,-136,-29,122,-39,-82,117,24,9,-82,-102,-92
-107,-131,-24,119,-41,-78,117,24,19,-73,-102,-92
-107,-126,-19,117,-43,-73,117,29,19,-73,-97,-92
-117,-131,-14,124,-51,-73,107,24,9,-78,-107,-92
-117,-131,-14,124,-51,-73,107,24,19,-82,-107,-92
-117,-131,-14,124,-51,-73,112,24,19,-82,-112,-92
-107,-126,-19,117,-43,-73,112,34,29,-87,-112,-92
-117,-131,-14,124,-51,-73,112,34,29,-82,-112,-102
-117,-131,-14,124,-51,-73,117,34,29,-73,-112,-102
-117,-136,-19,126,-48,-78,122,34,39,-68,-107,-102
-117,-141,-24,129,-46,-82,126,34,43,-68,-107,-102
-107,-141,-34,124,-36,-87,126,34,48,-58,-102,-102
-107,-136,-29,122,-39,-82,126,39,58,-58,-102,-102
-107,-131,-24,119,-41,-78,126,43,63,-58,-102,-102
-102,-131,-29,117,-36,-80,126,43,63,-53,-102,-102
-92,-122,-29,107,-31,-75,126,48,68,-53,-102,-112
-87,-117,-29,102,-29,-73,131,48,68,-53,-97,-112
-87,-107,-19,97,-34,-63,136,48,73,-53,-97,-112
-87,-92,-4,90,-41,-48,136,48,73,-48,-102,-112
-82,-112,-29,97,-26,-70,136,48,82,-48,-97,-107
-82,-112,-29,97,-26,-70,141,53,92,-39,-92,-107
-82,-107,-24,95,-29,-65,141,53,97,-39,-87,-102
-82,-107,-24,95,-29,-65,141,53,102,-34,-82,-97
-78,-102,-24,90,-26,-63,141,48,92,-34,-87,-97
-78,-97,-19,87,-29,-58,146,58,97,-34,-82,-97
-78,-92,-14,85,-31,-53,146,73,102,-29,-78,-92
-78,-87,-9,82,-34,-48,151,82,107,-19,-73,-92
-78,-87,-9,82,-34,-48,165,73,117,-9,-73,-92
-82,-87,-4,85,-39,-46,165,68,131,-4,-73,-92
-82,-82,0,82,-41,-41,170,68,141,0,-63,-92
-82,-78,4,80,-43,-36,175,73,151,0,-63,-87
-87,-68,19,78,-53,-24,170,68,151,9,-58,-87
-87,-68,19,78,-53,-24,175,73,156,14,-58,-87
-87,-73,14,80,-51,-29,170,78,165,14,-58,-87
-82,-73,9,78,-46,-31,165,87,165,24,-53,-87
-87,-73,14,80,-51,-29,165,92,180,14,-53,-78
-87,-73,14,80,-51,-29,180,92,185,19,-48,-78
-92,-63,29,78,-61,-17,185,102,195,19,-48,-78
-97,-63,34,80,-65,-14,185,112,204,29,-48,-78
-87,-73,14,80,-51,-29,195,112,214,43,-48,-73
-87,-63,24,75,-56,-19,204,131,234,53,-43,-73
-82,-53,29,68,-56,-12,209,141,244,68,-39,-68
-82,-48,34,65,-58,-7,214,156,263,82,-29,-68
-63,-34,29,48,-46,-2,209,170,283,87,-34,-73
-58,-34,24,46,-41,-4,209,180,302,87,-34,-73
-48,-24,24,36,-36,0,209,190,312,102,-29,-78
-34,-9,24,21,-29,7,204,209,317,112,-24,-78
-24,9,34,7,-29,21,209,214,336,131,-9,-78
-14,19,34,-2,-24,26,214,224,351,141,-4,-73
-14,29,43,-7,-29,36,214,234,375,151,4,-68
-14,43,58,-14,-36,51,224,248,395,161,9,-68
-14,58,73,-21,-43,65,214,263,414,170,24,-53
-9,68,78,-29,-43,73,214,278,439,180,29,-53
-4,68,73,-31,-39,70,214,292,458,200,34,-43
-4,82,87,-39,-46,85,224,307,473,224,39,-43
-4,73,78,-34,-41,75,239,312,492,234,39,-39
0,87,87,-43,-43,87,244,322,507,244,43,-34
0,97,97,-48,-48,97,248,331,522,253,53,-29
4,107,102,-56,-48,104,253,346,536,258,63,-29
14,117,102,-65,-43,109,244,366,570,273,53,-29
29,117,87,-73,-29,102,244,385,590,287,58,-29
39,117,78,-78,-19,97,244,400,600,302,68,-19
48,117,68,-82,-9,92,244,414,614,317,73,-19
53,126,73,-90,-9,100,244,414,624,326,82,-24
58,146,87,-102,-14,117,244,429,634,336,82,-19
63,151,87,-107,-12,119,244,444,653,346,87,-19
68,161,92,-114,-12,126,244,448,673,361,97,-24
73,175,102,-124,-14,139,234,458,688,370,107,-19
78,175,97,-126,-9,136,224,458,707,380,107,-14
78,180,102,-129,-12,141,224,453,712,390,112,-9
78,190,112,-134,-17,151,219,448,722,400,117,-4
78,214,136,-146,-29,175,214,458,732,405,126,4
78,219,141,-148,-31,180,209,458,736,414,131,9
82,219,136,-151,-26,178,204,458,741,414,136,9
87,224,136,-156,-24,180,200,448,741,414,136,9
78,214,136,-146,-29,175,190,439,736,409,136,19
78,214,136,-146,-29,175,190,429,736,409,136,19
78,219,141,-148,-31,180,175,414,732,409,136,19
82,224,141,-153,-29,183,170,400,722,400,131,29
73,224,151,-148,-39,187,170,380,722,395,131,29
73,219,146,-146,-36,183,161,366,702,380,131,29
73,204,131,-139,-29,168,151,346,678,375,131,29
73,190,117,-131,-21,153,136,331,658,361,122,34
82,185,102,-134,-9,143,136,312,634,336,112,24
82,180,97,-131,-7,139,122,292,605,322,107,24
73,175,102,-124,-14,139,112,273,580,312,102,29
68,170,102,-119,-17,136,102,248,541,307,97,34
58,156,97,-107,-19,126,97,229,522,287,102,43
53,151,97,-102,-21,124,87,214,488,268,87,43
48,146,97,-97,-24,122,82,195,468,253,87,43
43,141,97,-92,-26,119,78,175,448,239,82,43
39,126,87,-82,-24,107,68,151,405,214,68,34
34,126,92,-80,-29,109,58,117,375,200,58,29
29,126,97,-78,-34,112,58,82,356,190,58,29
29,117,87,-73,-29,102,43,58,331,170,43,24
14,102,87,-58,-36,95,34,34,307,151,43,24
9,87,78,-48,-34,82,34,19,283,141,43,24
9,73,63,-41,-26,68,29,4,263,126,39,24
4,58,53,-31,-24,56,19,-4,239,117,24,14
0,58,58,-29,-29,58,29,-9,214,92,14,14
-4,48,53,-21,-29,51,24,-29,195,78,9,9
-9,39,48,-14,-29,43,24,-43,180,68,0,4
-9,29,39,-9,-24,34,24,-58,161,53,-4,-4
-9,24,34,-7,-21,29,24,-53,146,39,-9,0
-4,14,19,-4,-12,17,24,-53,131,34,-14,-9
0,4,4,-2,-2,4,19,-58,112,24,-19,-9
4,-14,-19,4,12,-17,19,-63,102,14,-24,-9
-4,-4,0,4,-2,-2,14,-73,78,-4,-39,-14
-9,-4,4,7,-7,0,9,-78,68,-4,-43,-19
-9,-4,4,7,-7,0,4,-78,58,-19,-48,-24
-9,-4,4,7,-7,0,-4,-87,48,-29,-53,-39
-24,-19,4,21,-14,-7,0,-102,39,-29,-58,-39
-39,-24,14,31,-26,-4,0,-107,34,-29,-58,-39
-43,-34,9,39,-26,-12,0,-112,34,-34,-58,-43
-43,-43,0,43,-21,-21,4,-112,29,-39,-58,-43
-43,-43,0,43,-21,-21,14,-107,24,-34,-58,-34
-43,-58,-14,51,-14,-36,14,-107,24,-39,-63,-43
-43,-63,-19,53,-12,-41,14,-112,19,-43,-63,-48
-48,-68,-19,58,-14,-43,14,-112,19,-43,-63,-48
-43,-58,-14,51,-14,-36,4,-122,9,-48,-68,-43
-39,-53,-14,46,-12,-34,4,-122,9,-53,-68,-43
-34,-53,-19,43,-7,-36,4,-122,9,-58,-68,-43
-34,-53,-19,43,-7,-36,4,-122,9,-63,-68,-43
-34,-58,-24,46,-4,-41,4,-117,4,-58,-78,-43
-34,-63,-29,48,-2,-46,4,-112,4,-63,-78,-43
-29,-68,-39,48,4,-53,4,-107,4,-63,-78,-43
-29,-73,-43,51,7,-58,4,-107,4,-63,-78,-43
-39,-63,-24,51,-7,-43,-4,-107,4,-58,-68,-53
-39,-63,-24,51,-7,-43,-4,-107,4,-58,-68,-53
-43,-63,-19,53,-12,-41,-9,-107,4,-53,-73,-58
-43,-63,-19,53,-12,-41,-9,-107,4,-53,-73,-58
-39,-53,-14,46,-12,-34,0,-102,4,-53,-58,-48
-39,-58,-19,48,-9,-39,0,-102,4,-53,-58,-48
-34,-63,-29,48,-2,-46,4,-107,0,-58,-58,-48
-24,-68,-43,46,9,-56,4,-107,0,-63,-63,-48
-34,-78,-43,56,4,-61,9,-97,-9,-73,-68,-39
-39,-78,-39,58,0,-58,9,-97,-9,-78,-73,-43
-43,-82,-39,63,-2,-61,9,-97,-4,-78,-82,-43
-43,-82,-39,63,-2,-61,9,-97,-4,-78,-87,-43
-43,-82,-39,63,-2,-61,9,-107,-4,-68,-73,-43
-39,-78,-39,58,0,-58,9,-107,-4,-63,-68,-43
-39,-78,-39,58,0,-58,9,-112,-4,-58,-63,-43
-48,-73,-24,61,-12,-48,14,-112,-4,-53,-58,-43
-58,-73,-14,65,-21,-43,14,-122,-4,-58,-58,-43
-58,-73,-14,65,-21,-43,14,-122,-4,-63,-63,-39
-58,-82,-24,70,-17,-53,14,-122,-9,-73,-68,-39
-58,-82,-24,70,-17,-53,14,-122,-9,-78,-68,-39
-53,-73,-19,63,-17,-46,4,-112,-19,-78,-68,-43
-53,-73,-19,63,-17,-46,4,-107,-19,-78,-68,-43
-53,-73,-19,63,-17,-46,0,-107,-19,-78,-68,-48
-53,-73,-19,63,-17,-46,0,-107,-19,-78,-68,-48
-53,-78,-24,65,-14,-51,9,-97,-29,-78,-68,-58
-48,-78,-29,63,-9,-53,9,-92,-24,-78,-68,-63
-48,-82,-34,65,-7,-58,9,-87,-24,-82,-68,-63
-48,-92,-43,70,-2,-68,14,-82,-24,-82,-68,-58
-39,-82,-43,61,2,-63,9,-73,-29,-92,-78,-58
-39,-82,-43,61,2,-63,9,-73,-34,-92,-82,-58
-39,-82,-43,61,2,-63,14,-73,-34,-92,-82,-58
-48,-82,-34,65,-7,-58,14,-82,-39,-92,-82,-58
-48,-73,-24,61,-12,-48,14,-82,-29,-87,-82,-58
-48,-73,-24,61,-12,-48,14,-82,-29,-87,-82,-58
-48,-73,-24,61,-12,-48,19,-82,-29,-87,-78,-58
-48,-68,-19,58,-14,-43,19,-82,-29,-87,-78,-58
-48,-82,-34,65,-7,-58,19,-82,-24,-78,-78,-53
-53,-87,-34,70,-9,-61,19,-78,-24,-78,-78,-53
-53,-92,-39,73,-7,-65,19,-73,-29,-78,-82,-58
-53,-107,-53,80,0,-80,19,-68,-29,-82,-82,-58
-43,-112,-68,78,12,-90,19,-78,-39,-82,-78,-53
-43,-112,-68,78,12,-90,19,-78,-39,-82,-78,-53
-39,-117,-78,78,19,-97,19,-78,-39,-82,-78,-48
-39,-117,-78,78,19,-97,19,-78,-39,-82,-78,-43
-53,-117,-63,85,4,-90,24,-73,-48,-87,-87,-48
-53,-117,-63,85,4,-90,24,-73,-48,-92,-87,-53
-63,-122,-58,92,-2,-90,24,-73,-48,-97,-87,-68
-63,-122,-58,92,-2,-90,29,-73,-53,-102,-87,-73
-63,-122,-58,92,-2,-90,34,-73,-43,-102,-87,-68
-68,-126,-58,97,-4,-92,34,-73,-48,-102,-87,-68
-73,-126,-53,100,-9,-90,39,-68,-48,-102,-87,-68
-78,-126,-48,102,-14,-87,39,-68,-48,-97,-87,-68
-78,-126,-48,102,-14,-87,29,-68,-48,-87,-87,-68
-78,-126,-48,102,-14,-87,29,-68,-48,-92,-87,-68
-78,-126,-48,102,-14,-87,29,-68,-48,-92,-87,-68
-78,-122,-43,100,-17,-82,29,-68,-48,-92,-87,-73
-73,-122,-48,97,-12,-85,39,-68,-53,-82,-97,-82
-68,-117,-48,92,-9,-82,39,-68,-53,-82,-97,-82
-63,-117,-53,90,-4,-85,34,-68,-53,-82,-97,-82
-58,-117,-58,87,0,-87,34,-63,-53,-82,-97,-78
-58,-107,-48,82,-4,-78,24,-63,-53,-92,-97,-73
-58,-107,-48,82,-4,-78,24,-63,-53,-92,-97,-73
-53,-107,-53,80,0,-80,24,-63,-53,-87,-97,-73
-53,-107,-53,80,0,-80,29,-63,-48,-87,-97,-68
-58,-107,-48,82,-4,-78,19,-58,-48,-92,-102,-68
-58,-107,-48,82,-4,-78,19,-58,-48,-92,-102,-68
-58,-107,-48,82,-4,-78,19,-63,-48,-92,-97,-68
-53,-107,-53,80,0,-80,19,-63,-48,-92,-92,-73
-48,-97,-48,73,0,-73,9,-73,-48,-87,-97,-68
-48,-92,-43,70,-2,-68,9,-73,-43,-78,-97,-68
-48,-92,-43,70,-2,-68,9,-73,-43,-73,-92,-68
-48,-92,-43,70,-2,-68,9,-73,-39,-68,-92,-73
-53,-87,-34,70,-9,-61,19,-73,-39,-68,-87,-63
-53,-87,-34,70,-9,-61,19,-73,-39,-68,-87,-63
-53,-82,-29,68,-12,-56,19,-73,-39,-68,-82,-63
-58,-82,-24,70,-17,-53,14,-73,-39,-68,-82,-63
-58,-92,-34,75,-12,-63,14,-73,-39,-68,-97,-73
-58,-97,-39,78,-9,-68,14,-73,-43,-78,-97,-73
-53,-97,-43,75,-4,-70,14,-73,-48,-78,-97,-73
-53,-102,-48,78,-2,-75,14,-68,-48,-78,-97,-73
-53,-97,-43,75,-4,-70,24,-78,-48,-87,-107,-82
-53,-97,-43,75,-4,-70,24,-78,-48,-87,-107,-82
-53,-97,-43,75,-4,-70,24,-78,-48,-87,-107,-82
-53,-107,-53,80,0,-80,24,-78,-43,-87,-107,-82
-48,-107,-58,78,4,-82,14,-73,-43,-82,-107,-82
-43,-102,-58,73,7,-80,14,-68,-48,-78,-107,-87
-39,-97,-58,68,9,-78,14,-68,-48,-73,-107,-87
-34,-92,-58,63,12,-75,14,-63,-43,-58,-102,-87
-34,-82,-48,58,7,-65,-4,-58,-53,-58,-102,-82
-34,-82,-48,58,7,-65,-4,-58,-53,-58,-102,-82
-34,-78,-43,56,4,-61,0,-58,-58,-63,-102,-82
-34,-78,-43,56,4,-61,0,-58,-63,-68,-102,-82
-29,-68,-39,48,4,-53,-4,-63,-68,-68,-112,-82
-29,-68,-39,48,4,-53,-4,-63,-68,-68,-112,-82
-29,-73,-43,51,7,-58,-4,-63,-68,-68,-107,-82
-29,-73,-43,51,7,-58,-4,-63,-68,-68,-107,-82
-19,-78,-58,48,19,-68,-4,-53,-68,-78,-117,-82
-19,-82,-63,51,21,-73,-4,-53,-68,-78,-117,-82
-19,-87,-68,53,24,-78,0,-53,-68,-78,-117,-82
-19,-92,-73,56,26,-82,0,-58,-78,-78,-117,-82
-29,-87,-58,58,14,-73,-4,-68,-92,-82,-112,-87
-29,-87,-58,58,14,-73,-4,-73,-92,-82,-112,-87
-29,-92,-63,61,17,-78,-4,-73,-82,-82,-112,-82
-29,-92,-63,61,17,-78,-14,-68,-82,-82,-112,-82
-29,-102,-73,65,21,-87,-14,-58,-87,-92,-117,-82
-29,-102,-73,65,21,-87,-9,-58,-92,-92,-117,-82
-29,-112,-82,70,26,-97,-9,-58,-97,-92,-122,-82
-29,-102,-73,65,21,-87,-9,-58,-102,-92,-122,-82
-34,-112,-78,73,21,-95,-4,-68,-112,-92,-122,-92
-39,-117,-78,78,19,-97,0,-68,-112,-97,-122,-97
-43,-117,-73,80,14,-95,4,-68,-112,-97,-122,-97
-53,-117,-63,85,4,-90,9,-68,-112,-92,-122,-92
-43,-112,-68,78,12,-90,0,-58,-107,-82,-122,-102
-43,-107,-63,75,9,-85,0,-68,-107,-82,-122,-102
-43,-102,-58,73,7,-80,0,-68,-107,-82,-122,-102
-43,-102,-58,73,7,-80,0,-63,-102,-82,-117,-97
-39,-87,-48,63,4,-68,-9,-73,-97,-73,-107,-87
-39,-78,-39,58,0,-58,-9,-73,-97,-73,-107,-87
-39,-73,-34,56,-2,-53,-14,-73,-97,-73,-107,-87
-39,-68,-29,53,-4,-48,-14,-73,-97,-78,-107,-92
-39,-82,-43,61,2,-63,-4,-82,-112,-82,-122,-102
-39,-87,-48,63,4,-68,-4,-82,-117,-87,-126,-102
-39,-97,-58,68,9,-78,-4,-82,-126,-102,-131,-107
-39,-102,-63,70,12,-82,-9,-82,-131,-107,-136,-107
-48,-112,-63,80,7,-87,0,-82,-126,-112,-126,-97
-53,-112,-58,82,2,-85,0,-82,-126,-112,-131,-97
-53,-112,-58,82,2,-85,0,-82,-126,-107,-131,-92
-53,-112,-58,82,2,-85,0,-82,-126,-107,-131,-92
-43,-112,-68,78,12,-90,0,-73,-117,-102,-122,-82
-43,-112,-68,78,12,-90,0,-73,-117,-102,-122,-82
-43,-112,-68,78,12,-90,0,-68,-117,-97,-117,-82
-43,-112,-68,78,12,-90,0,-68,-117,-97,-117,-82
-39,-112,-73,75,17,-92,0,-68,-112,-97,-122,-82
-39,-112,-73,75,17,-92,0,-68,-112,-97,-122,-82
-39,-112,-73,75,17,-92,0,-68,-112,-97,-122,-82
-39,-107,-68,73,14,-87,0,-68,-112,-97,-122,-82
-39,-107,-68,73,14,-87,-9,-63,-117,-97,-122,-92
-39,-107,-68,73,14,-87,-9,-63,-122,-97,-122,-92
-39,-107,-68,73,14,-87,-9,-58,-126,-97,-117,-92
-39,-102,-63,70,12,-82,-9,-58,-131,-97,-112,-92
-34,-102,-68,68,17,-85,-14,-68,-141,-97,-122,-92
-34,-102,-68,68,17,-85,-14,-68,-141,-102,-122,-97
-34,-102,-68,68,17,-85,-19,-68,-141,-107,-122,-102
-34,-102,-68,68,17,-85,-19,-68,-141,-117,-122,-102
-34,-107,-73,70,19,-90,-19,-58,-141,-107,-117,-92
-34,-107,-73,70,19,-90,-19,-58,-141,-112,-117,-92
-34,-107,-73,70,19,-90,-19,-58,-141,-112,-122,-92
-34,-112,-78,73,21,-95,-19,-58,-141,-117,-122,-97
-43,-112,-68,78,12,-90,-19,-68,-151,-107,-126,-87
-48,-112,-63,80,7,-87,-19,-68,-151,-107,-122,-87
-48,-107,-58,78,4,-82,-19,-68,-151,-107,-122,-87
-48,-107,-58,78,4,-82,-14,-73,-151,-107,-122,-82
-58,-112,-53,85,-2,-82,-4,-73,-151,-117,-122,-92
-58,-117,-58,87,0,-87,0,-73,-156,-117,-126,-92
-58,-122,-63,90,2,-92,0,-73,-156,-117,-126,-102
-58,-126,-68,92,4,-97,0,-73,-156,-117,-126,-102
-48,-117,-68,82,9,-92,4,-73,-146,-107,-117,-87
-48,-107,-58,78,4,-82,-4,-78,-146,-107,-112,-87
-48,-117,-68,82,9,-92,-4,-73,-156,-117,-112,-87
-39,-126,-87,82,24,-107,-9,-58,-156,-117,-117,-87
-39,-122,-82,80,21,-102,-9,-68,-165,-117,-117,-97
-39,-117,-78,78,19,-97,-9,-68,-165,-117,-117,-97
-39,-112,-73,75,17,-92,-9,-68,-165,-117,-117,-97
-39,-107,-68,73,14,-87,-9,-68,-165,-117,-117,-97
-39,-107,-68,73,14,-87,-19,-68,-165,-117,-117,-87
-39,-107,-68,73,14,-87,-19,-68,-165,-117,-117,-87
-39,-107,-68,73,14,-87,-19,-68,-165,-117,-117,-87
-39,-107,-68,73,14,-87,-19,-68,-165,-117,-117,-87
-39,-97,-58,68,9,-78,-19,-78,-161,-107,-117,-97
-39,-97,-58,68,9,-78,-19,-78,-156,-107,-117,-97
-39,-97,-58,68,9,-78,-19,-78,-151,-107,-117,-97
-39,-97,-58,68,9,-78,-19,-78,-146,-107,-117,-97
-39,-107,-68,73,14,-87,-19,-78,-156,-117,-117,-97
-39,-107,-68,73,14,-87,-19,-78,-156,-117,-117,-97
-39,-107,-68,73,14,-87,-19,-78,-156,-117,-117,-97
-39,-107,-68,73,14,-87,-19,-78,-156,-117,-117,-97
-48,-107,-58,78,4,-82,-9,-78,-156,-126,-117,-97
-48,-107,-58,78,4,-82,-9,-78,-156,-126,-117,-97
-48,-107,-58,78,4,-82,-9,-78,-156,-126,-117,-97
-48,-107,-58,78,4,-82,-9,-78,-156,-126,-117,-97
-48,-97,-48,73,0,-73,-9,-78,-146,-117,-117,-87
-48,-97,-48,73,0,-73,-9,-78,-146,-117,-117,-87
-48,-97,-48,73,0,-73,-9,-78,-146,-117,-117,-87
-48,-97,-48,73,0,-73,-9,-78,-146,-117,-117,-87
-48,-107,-58,78,4,-82,-19,-68,-146,-117,-126,-87
-48,-107,-58,78,4,-82,-19,-68,-146,-117,-126,-87
-48,-107,-58,78,4,-82,-19,-68,-146,-117,-126,-87
-48,-107,-58,78,4,-82,-19,-68,-146,-117,-126,-87
-39,-107,-68,73,14,-87,-24,-68,-136,-117,-136,-92
-39,-107,-68,73,14,-87,-29,-68,-136,-117,-136,-97
-39,-107,-68,73,14,-87,-34,-68,-136,-117,-136,-102
-39,-107,-68,73,14,-87,-39,-68,-136,-117,-136,-107
-48,-107,-58,78,4,-82,-29,-78,-146,-126,-136,-107
-48,-107,-58,78,4,-82,-29,-78,-146,-126,-136,-107
-48,-107,-58,78,4,-82,-29,-78,-146,-126,-136,-107
-48,-107,-58,78,4,-82,-29,-78,-146,-126,-136,-107
-58,-107,-48,82,-4,-78,-19,-87,-146,-136,-136,-107
-58,-107,-48,82,-4,-78,-19,-87,-146,-136,-136,-107
-58,-107,-48,82,-4,-78,-19,-87,-146,-136,-136,-107
-58,-107,-48,82,-4,-78,-19,-87,-146,-136,-136,-107
-48,-107,-58,78,4,-82,-19,-82,-146,-126,-136,-107
-48,-107,-58,78,4,-82,-19,-78,-146,-126,-136,-107
-48,-107,-58,78,4,-82,-19,-73,-146,-126,-136,-107
-48,-107,-58,78,4,-82,-19,-68,-146,-126,-136,-107
-39,-117,-78,78,19,-97,-29,-68,-136,-126,-136,-107
-39,-117,-78,78,19,-97,-29,-68,-136,-126,-136,-107
-39,-117,-78,78,19,-97,-29,-68,-136,-126,-136,-107
-39,-117,-78,78,19,-97,-29,-68,-136,-126,-136,-107
-48,-107,-58,78,4,-82,-29,-68,-126,-117,-126,-107
-48,-107,-58,78,4,-82,-29,-68,-126,-117,-126,-107
-48,-107,-58,78,4,-82,-29,-68,-126,-117,-126,-107
-48,-107,-58,78,4,-82,-29,-68,-126,-117,-126,-107
-48,-107,-58,78,4,-82,-29,-68,-126,-117,-136,-107
-48,-107,-58,78,4,-82,-29,-68,-126,-117,-136,-107
-48,-107,-58,78,4,-82,-29,-68,-126,-117,-136,-107
-48,-107,-58,78,4,-82,-29,-68,-126,-117,-136,-107
-48,-107,-58,78,4,-82,-19,-68,-126,-126,-136,-107
-48,-107,-58,78,4,-82,-19,-68,-126,-126,-136,-107
-48,-107,-58,78,4,-82,-19,-68,-126,-126,-136,-107
-48,-107,-58,78,4,-82,-19,-68,-126,-126,-136,-107
-39,-107,-68,73,14,-87,-29,-58,-126,-126,-136,-107
-39,-107,-68,73,14,-87,-29,-58,-126,-126,-136,-107
-39,-107,-68,73,14,-87,-29,-58,-126,-126,-136,-107
-39,-107,-68,73,14,-87,-29,-58,-126,-126,-136,-107
-39,-97,-58,68,9,-78,-39,-68,-117,-117,-126,-107
-39,-97,-58,68,9,-78,-39,-68,-117,-117,-126,-107
-39,-97,-58,68,9,-78,-39,-68,-117,-117,-126,-107
-39,-97,-58,68,9,-78,-39,-68,-117,-117,-126,-107
-39,-97,-58,68,9,-78,-39,-78,-126,-126,-131,-107
-39,-97,-58,68,9,-78,-39,-78,-126,-126,-136,-107
-39,-102,-63,70,12,-82,-34,-78,-126,-126,-136,-107
-39,-102,-63,70,12,-82,-34,-78,-126,-122,-141,-107
-29,-112,-82,70,26,-97,-19,-68,-126,-131,-141,-107
-29,-112,-82,70,26,-97,-19,-68,-122,-131,-141,-107
-24,-112,-87,68,31,-100,-24,-63,-122,-131,-141,-102
-19,-112,-92,65,36,-102,-29,-58,-122,-131,-141,-97
-14,-122,-107,68,46,-114,-39,-58,-117,-122,-141,-107
-14,-122,-107,68,46,-114,-34,-58,-117,-122,-141,-112
-14,-122,-107,68,46,-114,-34,-58,-117,-122,-141,-112
-14,-122,-107,68,46,-114,-34,-58,-117,-122,-146,-112
-19,-122,-102,70,41,-112,-24,-58,-117,-131,-141,-112
-24,-126,-102,75,39,-114,-24,-58,-117,-136,-141,-117
-29,-126,-97,78,34,-112,-19,-58,-122,-136,-141,-117
-34,-126,-92,80,29,-109,-19,-53,-122,-136,-146,-112
-19,-126,-107,73,43,-117,-9,-39,-122,-126,-156,-112
-9,-126,-117,68,53,-122,-9,-29,-122,-126,-156,-112
-4,-126,-122,65,58,-124,-9,-24,-122,-126,-151,-112
0,-126,-126,63,63,-126,-9,-24,-122,-126,-151,-112
9,-112,-122,51,65,-117,-14,-34,-112,-122,-141,-112
9,-92,-102,41,56,-97,-19,-34,-107,-117,-131,-97
9,-87,-97,39,53,-92,-24,-34,-102,-107,-122,-92
9,-78,-87,34,48,-82,-24,-24,-92,-97,-112,-92
0,-78,-78,39,39,-78,-14,-34,-82,-78,-112,-102
4,-78,-82,36,43,-80,-9,-34,-82,-73,-112,-92
9,-78,-87,34,48,-82,-4,-34,-82,-73,-112,-92
14,-78,-92,31,53,-85,-4,-24,-82,-78,-112,-92
4,-87,-92,41,48,-90,4,-14,-87,-92,-117,-102
14,-97,-112,41,63,-104,4,-14,-92,-102,-122,-102
19,-97,-117,39,68,-107,0,-19,-92,-102,-126,-102
24,-82,-107,29,65,-95,-4,-19,-87,-97,-122,-97
39,-63,-102,12,70,-82,-14,-14,-68,-92,-112,-78
39,-34,-73,-2,56,-53,-14,-19,-53,-82,-102,-63
39,-19,-58,-9,48,-39,-29,-19,-48,-68,-92,-48
43,0,-43,-21,43,-21,-39,-24,-43,-58,-82,-34
53,29,-24,-41,39,2,-63,-34,-39,-53,-68,-24
58,24,-34,-41,46,-4,-68,-39,-39,-48,-63,-24
58,19,-39,-39,48,-9,-73,-48,-43,-53,-63,-24
58,9,-48,-34,53,-19,-82,-53,-53,-63,-68,-34
48,-9,-58,-19,53,-34,-92,-63,-68,-78,-82,-48
48,-34,-82,-7,65,-58,-92,-63,-82,-97,-97,-68
48,-53,-102,2,75,-78,-87,-63,-92,-97,-97,-68
43,-53,-97,4,70,-75,-87,-63,-92,-97,-107,-73
43,-58,-102,7,73,-80,-73,-48,-102,-102,-112,-82
43,-58,-102,7,73,-80,-68,-48,-97,-107,-112,-78
43,-48,-92,2,68,-70,-68,-53,-97,-112,-112,-73
39,-53,-92,7,65,-73,-68,-58,-97,-117,-117,-73
39,-68,-107,14,73,-87,-68,-58,-92,-112,-117,-73
43,-68,-112,12,78,-90,-73,-58,-92,-112,-117,-68
43,-68,-112,12,78,-90,-73,-58,-92,-122,-117,-68
39,-68,-107,14,73,-87,-73,-53,-92,-122,-117,-68
39,-58,-97,9,68,-78,-78,-63,-102,-122,-126,-68
43,-58,-102,7,73,-80,-78,-63,-102,-122,-117,-68
43,-48,-92,2,68,-70,-78,-63,-97,-117,-117,-68
43,-43,-87,0,65,-65,-78,-63,-97,-117,-117,-63
39,-34,-73,-2,56,-53,-78,-73,-87,-112,-107,-58
39,-34,-73,-2,56,-53,-73,-68,-87,-107,-107,-58
34,-48,-82,7,58,-65,-63,-68,-82,-112,-117,-68
19,-63,-82,21,51,-73,-53,-73,-82,-112,-122,-73
4,-63,-68,29,36,-65,-43,-63,-92,-112,-126,-82
-14,-78,-63,46,24,-70,-43,-63,-92,-112,-126,-87
-24,-82,-58,53,17,-70,-34,-73,-92,-112,-126,-92
-29,-82,-53,56,12,-68,-34,-78,-92,-112,-131,-97
-43,-92,-48,68,2,-70,-24,-92,-92,-122,-131,-97
-43,-92,-48,68,2,-70,-24,-92,-92,-126,-131,-97
-48,-97,-48,73,0,-73,-24,-92,-92,-126,-131,-97
-53,-97,-43,75,-4,-70,-29,-92,-92,-126,-131,-102
-53,-107,-53,80,0,-80,-19,-97,-87,-126,-146,-92
-53,-102,-48,78,-2,-75,-19,-97,-87,-126,-146,-92
-58,-102,-43,80,-7,-73,-19,-97,-87,-126,-146,-92
-58,-102,-43,80,-7,-73,-14,-97,-87,-131,-146,-92
-63,-102,-39,82,-12,-70,-9,-97,-87,-131,-146,-102
-63,-107,-43,85,-9,-75,-9,-97,-82,-122,-146,-92
-63,-112,-48,87,-7,-80,-9,-97,-73,-122,-136,-102
-63,-107,-43,85,-9,-75,-14,-102,-82,-122,-136,-112
-63,-112,-48,87,-7,-80,-9,-92,-82,-126,-136,-112
-68,-131,-63,100,-2,-97,4,-82,-82,-122,-146,-122
-68,-151,-82,109,7,-117,4,-73,-78,-131,-156,-131
-58,-156,-97,107,19,-126,14,-53,-82,-141,-175,-146
-58,-170,-112,114,26,-141,39,-19,-107,-165,-200,-165
-58,-200,-141,129,41,-170,58,4,-107,-180,-219,-190
-53,-209,-156,131,51,-183,87,39,-82,-180,-229,-204
-43,-204,-161,124,58,-183,107,68,-43,-165,-219,-204
-19,-180,-161,100,70,-170,117,107,4,-112,-190,-190
14,-161,-175,73,95,-168,117,141,68,-48,-151,-170
43,-126,-170,41,107,-148,107,175,122,0,-122,-156
73,-87,-161,7,117,-124,97,185,175,29,-102,-126
92,-53,-146,-19,119,-100,97,185,219,73,-63,-102
122,-4,-126,-58,124,-65,53,161,244,107,-24,-63
185,78,-107,-131,146,-14,-53,126,263,161,34,-9
263,204,-58,-234,161,73,-200,68,326,248,136,78
341,336,-4,-339,173,165,-341,4,409,366,258,195
434,492,58,-463,187,275,-502,-53,512,502,419,331
561,673,112,-617,224,392,-683,-97,624,653,585,478
673,834,161,-753,256,497,-883,-141,717,795,756,624
741,995,253,-868,244,624,-1034,-209,814,941,902,766
795,1146,351,-971,222,749,-1146,-297,878,1049,1049,902
780,1268,488,-1024,146,878,-1239,-405,936,1156,1180,1029
736,1400,663,-1068,36,1032,-1298,-531,1034,1268,1302,1137
702,1517,814,-1110,-56,1166,-1351,-668,1093,1371,1410,1234
712,1610,897,-1161,-92,1254,-1415,-756,1122,1439,1522,1346
722,1693,971,-1207,-124,1332,-1498,-829,1166,1522,1634,1459
741,1747,1005,-1244,-131,1376,-1561,-863,1195,1586,1732,1556
741,1722,980,-1232,-119,1351,-1566,-863,1146,1551,1742,1595
722,1644,922,-1183,-100,1283,-1561,-849,1029,1459,1698,1605
722,1634,912,-1178,-95,1273,-1551,-839,951,1405,1678,1625
707,1634,927,-1171,-109,1281,-1507,-800,922,1366,1664,1625
658,1556,897,-1107,-119,1227,-1381,-727,849,1254,1566,1556
595,1371,775,-983,-90,1073,-1210,-639,658,1015,1322,1366
531,1073,541,-802,-4,807,-1000,-527,361,683,1000,1107
439,751,312,-595,63,531,-780,-434,58,326,653,834
341,473,131,-407,104,302,-610,-366,-161,58,361,600
263,336,73,-300,95,204,-478,-292,-195,-43,200,434
195,268,73,-231,61,170,-356,-239,-112,-19,141,331
107,185,78,-146,14,131,-229,-195,-58,0,87,224
29,82,53,-56,-12,68,-136,-146,-43,-29,14,117
9,24,14,-17,-2,19,-78,-117,-24,-39,-34,48
-4,-19,-14,12,4,-17,-43,-87,-4,-29,-48,9
-34,-63,-29,48,-2,-46,-4,-58,14,-29,-58,-14
-39,-87,-48,63,4,-68,29,-39,24,-29,-63,-43
-43,-87,-43,65,0,-65,39,-29,24,-39,-78,-53
-48,-87,-39,68,-4,-63,43,-29,9,-43,-87,-63
-48,-92,-43,70,-2,-68,48,-24,4,-53,-97,-68
-48,-92,-43,70,-2,-68,53,-19,0,-63,-117,-78
-39,-107,-68,73,14,-87,53,-24,-14,-82,-141,-97
-39,-107,-68,73,14,-87,58,-14,-14,-82,-141,-102
-48,-122,-73,85,12,-97,63,-14,-4,-82,-131,-102
-53,-122,-68,87,7,-95,68,-14,-4,-82,-136,-102
-58,-126,-68,92,4,-97,68,-9,-9,-82,-141,-107
-58,-131,-73,95,7,-102,73,-9,-19,-87,-141,-107
-68,-126,-58,97,-4,-92,78,-19,-14,-92,-131,-107
-73,-131,-58,102,-7,-95,78,-24,-19,-97,-136,-107
-78,-136,-58,107,-9,-97,82,-24,-29,-102,-146,-117
-87,-141,-53,114,-17,-97,82,-24,-39,-102,-146,-117
-78,-151,-73,114,-2,-112,92,-24,-43,-117,-151,-126
-78,-151,-73,114,-2,-112,92,-24,-53,-117,-156,-126
-82,-151,-68,117,-7,-109,92,-19,-63,-117,-161,-126
-82,-151,-68,117,-7,-109,97,-19,-68,-117,-165,-131
-92,-151,-58,122,-17,-104,102,-19,-58,-122,-165,-131
-92,-156,-63,124,-14,-109,102,-14,-63,-122,-165,-131
-92,-156,-63,124,-14,-109,107,-14,-63,-117,-165,-131
-92,-156,-63,124,-14,-109,107,-9,-58,-117,-165,-131
-97,-161,-63,129,-17,-112,112,-19,-68,-117,-165,-141
-102,-161,-58,131,-21,-109,112,-14,-63,-117,-165,-141
-107,-161,-53,134,-26,-107,112,-14,-58,-122,-165,-146
-112,-156,-43,134,-34,-100,117,-14,-53,-122,-170,-146
-112,-156,-43,134,-34,-100,117,0,-48,-122,-180,-146
-112,-156,-43,134,-34,-100,126,4,-48,-122,-175,-146
-112,-156,-43,134,-34,-100,117,9,-43,-122,-175,-146
-112,-151,-39,131,-36,-95,117,9,-39,-122,-175,-151
-107,-141,-34,124,-36,-87,107,9,-39,-117,-165,-141
-102,-151,-48,126,-26,-100,112,9,-29,-107,-165,-141
-97,-151,-53,124,-21,-102,112,9,-29,-102,-165,-141
-92,-151,-58,122,-17,-104,112,14,-29,-97,-165,-136
-92,-146,-53,119,-19,-100,112,14,-24,-97,-165,-146
-87,-146,-58,117,-14,-102,107,14,-24,-102,-161,-146
-87,-141,-53,114,-17,-97,107,14,-19,-107,-161,-146
-87,-141,-53,114,-17,-97,107,14,-14,-112,-161,-146
-87,-141,-53,114,-17,-97,117,9,-9,-107,-161,-146
-87,-141,-53,114,-17,-97,112,9,-9,-107,-161,-146
-87,-146,-58,117,-14,-102,112,9,-9,-102,-161,-146
-92,-151,-58,122,-17,-104,117,9,-9,-97,-161,-146
-82,-146,-63,114,-9,-104,122,9,-19,-107,-161,-136
-82,-146,-63,114,-9,-104,122,9,-19,-107,-161,-136
-82,-146,-63,114,-9,-104,122,9,-19,-107,-161,-136
-82,-146,-63,114,-9,-104,122,14,-19,-107,-161,-136
-92,-146,-53,119,-19,-100,112,19,-19,-117,-161,-146
-97,-151,-53,124,-21,-102,112,19,-19,-112,-161,-146
-97,-151,-53,124,-21,-102,117,19,-19,-112,-161,-146
-97,-151,-53,124,-21,-102,117,24,-24,-112,-161,-146
-107,-161,-53,134,-26,-107,131,29,-24,-112,-161,-136
-107,-161,-53,134,-26,-107,131,29,-19,-112,-161,-141
-107,-156,-48,131,-29,-102,131,29,-19,-112,-161,-141
-107,-156,-48,131,-29,-102,131,39,-19,-112,-161,-141
-97,-146,-48,122,-24,-97,131,39,-29,-112,-151,-131
-97,-146,-48,122,-24,-97,136,43,-29,-112,-151,-131
-97,-146,-48,122,-24,-97,136,43,-19,-102,-151,-131
-97,-146,-48,122,-24,-97,136,48,-19,-102,-146,-131
-97,-151,-53,124,-21,-102,136,53,-19,-102,-156,-141
-97,-151,-53,124,-21,-102,136,53,-9,-102,-156,-141
-97,-151,-53,124,-21,-102,141,53,-9,-97,-161,-141
-87,-146,-58,117,-14,-102,141,63,0,-97,-161,-141
-97,-136,-39,117,-29,-87,131,73,9,-82,-161,-141
-97,-131,-34,114,-31,-82,136,73,9,-73,-161,-141
-97,-131,-34,114,-31,-82,141,73,19,-68,-156,-141
-97,-131,-34,114,-31,-82,146,73,24,-68,-156,-141
-92,-126,-34,109,-29,-80,136,63,39,-58,-141,-141
-87,-117,-29,102,-29,-73,136,68,48,-58,-141,-141
-82,-107,-24,95,-29,-65,136,73,53,-58,-141,-141
-73,-102,-29,87,-21,-65,136,73,53,-53,-141,-141
-82,-117,-34,100,-24,-75,146,78,58,-53,-151,-141
-78,-117,-39,97,-19,-78,151,78,58,-53,-146,-141
-78,-112,-34,95,-21,-73,156,78,63,-53,-146,-141
-78,-102,-24,90,-26,-63,156,78,63,-48,-151,-141
-82,-112,-29,97,-26,-70,165,68,53,-58,-151,-156
-82,-112,-29,97,-26,-70,170,73,63,-48,-151,-156
-82,-107,-24,95,-29,-65,170,73,68,-48,-151,-151
-82,-107,-24,95,-29,-65,170,73,73,-43,-151,-146
-73,-92,-19,82,-26,-56,161,87,82,-34,-146,-136
-68,-87,-19,78,-24,-53,165,97,87,-34,-141,-136
-63,-82,-19,73,-21,-51,165,112,92,-29,-136,-131
-58,-78,-19,68,-19,-48,170,122,97,-19,-131,-131
-48,-68,-19,58,-14,-43,170,122,102,-19,-131,-131
-53,-68,-14,61,-19,-41,165,117,112,-14,-131,-131
-53,-63,-9,58,-21,-36,165,117,117,-9,-122,-131
-53,-58,-4,56,-24,-31,165,122,122,-9,-122,-126
-58,-58,0,58,-29,-29,175,117,112,-9,-126,-136
-58,-58,0,58,-29,-29,185,122,117,-4,-126,-136
-58,-63,-4,61,-26,-34,185,126,126,-4,-126,-136
-53,-63,-9,58,-21,-36,185,136,126,4,-122,-136
-63,-63,0,63,-31,-31,195,151,131,14,-122,-136
-58,-63,-4,61,-26,-34,209,151,136,19,-117,-136
-58,-53,4,56,-31,-24,214,161,146,19,-117,-136
-58,-53,4,56,-31,-24,214,170,156,29,-117,-136
-53,-53,0,53,-26,-26,209,180,161,29,-107,-131
-48,-43,4,46,-26,-19,214,200,175,34,-102,-131
-39,-34,4,36,-21,-14,214,209,180,43,-97,-126
-34,-29,4,31,-19,-12,214,224,195,53,-87,-126
-29,-24,4,26,-17,-9,224,234,204,68,-82,-117
-29,-24,4,26,-17,-9,229,239,224,68,-82,-112
-24,-14,9,19,-17,-2,234,244,234,82,-78,-112
-14,0,14,7,-14,7,234,258,239,92,-73,-107
-19,0,19,9,-19,9,248,273,263,102,-68,-97
-14,0,14,7,-14,7,253,283,273,112,-63,-92
-19,0,19,9,-19,9,253,292,292,122,-53,-87
-24,4,29,9,-26,17,263,307,307,131,-48,-87
-24,19,43,2,-34,31,263,322,331,141,-34,-92
-19,29,48,-4,-34,39,263,336,351,151,-29,-92
-14,29,43,-7,-29,36,263,351,366,170,-24,-82
-14,43,58,-14,-36,51,273,366,375,195,-19,-82
-9,43,53,-17,-31,48,278,366,385,204,-19,-87
0,58,58,-29,-29,58,283,380,400,214,-14,-82
4,68,63,-36,-29,65,287,395,414,224,-4,-78
14,78,63,-46,-24,70,292,414,429,229,4,-78
19,92,73,-56,-26,82,292,424,453,229,4,-78
29,97,68,-63,-19,82,292,444,473,239,9,-78
34,102,68,-68,-17,85,292,458,483,248,19,-68
39,107,68,-73,-14,87,292,473,497,258,24,-68
48,126,78,-87,-14,102,273,488,512,278,34,-58
58,146,87,-102,-14,117,273,507,517,287,34,-48
68,151,82,-109,-7,117,273,527,531,297,39,-43
78,161,82,-119,-2,122,273,536,546,312,48,-43
82,165,82,-124,0,124,273,541,561,317,68,-39
87,165,78,-126,4,122,263,546,580,322,68,-34
87,170,82,-129,2,126,263,546,585,326,73,-29
87,180,92,-134,-2,136,258,546,595,331,78,-24
87,204,117,-146,-14,161,253,546,600,341,97,-14
87,209,122,-148,-17,165,248,546,610,356,102,-9
92,209,117,-151,-12,163,244,546,619,361,107,-9
97,214,117,-156,-9,165,239,536,624,366,107,-9
87,204,117,-146,-14,161,239,531,619,361,117,0
87,204,117,-146,-14,161,239,527,619,361,117,0
87,209,122,-148,-17,165,224,517,614,361,117,0
92,214,122,-153,-14,168,219,507,605,351,112,9
82,214,131,-148,-24,173,200,488,585,346,102,9
82,209,126,-146,-21,168,190,473,566,331,102,9
82,195,112,-139,-14,153,180,453,541,326,102,9
82,180,97,-131,-7,139,165,439,522,312,92,14
82,185,102,-134,-9,143,165,414,497,287,92,24
82,180,97,-131,-7,139,151,390,478,273,87,24
73,175,102,-124,-14,139,141,366,463,263,82,29
68,170,102,-119,-17,136,131,336,434,258,78,34
78,175,97,-126,-9,136,112,302,409,239,82,24
73,170,97,-122,-12,134,97,283,370,219,68,24
68,165,97,-117,-14,131,87,258,346,204,68,24
63,161,97,-112,-17,129,78,234,322,190,63,24
48,131,82,-90,-17,107,78,204,292,165,58,34
43,126,82,-85,-19,104,68,175,268,151,48,29
39,122,82,-80,-21,102,68,146,253,141,48,29
39,107,68,-73,-14,87,53,126,234,122,34,24
24,87,63,-56,-19,75,43,112,204,92,14,14
19,78,58,-48,-19,68,43,97,175,82,14,14
19,68,48,-43,-14,58,39,82,151,68,9,14
14,58,43,-36,-14,51,29,73,122,58,-4,4
19,39,19,-29,0,29,29,48,102,43,-14,-4
14,29,14,-21,0,21,24,29,87,29,-19,-9
9,19,9,-14,0,14,24,14,78,19,-29,-14
9,9,0,-9,4,4,24,0,63,4,-34,-24
-4,9,14,-2,-9,12,14,-9,39,-9,-48,-19
-4,4,9,0,-7,7,14,-14,24,-14,-53,-29
-4,0,4,2,-4,2,9,-24,4,-24,-58,-29
-4,-14,-9,9,2,-12,9,-34,-4,-34,-63,-29
-14,-4,9,9,-12,2,19,-34,-14,-34,-58,-19
-19,-4,14,12,-17,4,19,-39,-19,-34,-63,-19
-19,-4,14,12,-17,4,19,-39,-24,-48,-68,-19
-19,-4,14,12,-17,4,14,-48,-29,-58,-73,-29
-29,-9,19,19,-24,4,4,-53,-39,-58,-78,-29
-39,-14,24,26,-31,4,0,-58,-43,-58,-78,-29
-39,-24,14,31,-26,-4,-4,-63,-43,-63,-78,-34
-34,-34,0,34,-17,-17,-4,-63,-48,-68,-78,-34
-43,-43,0,43,-21,-21,-4,-58,-63,-82,-87,-39
-43,-58,-14,51,-14,-36,-4,-58,-63,-87,-92,-53
-43,-63,-19,53,-12,-41,-4,-63,-68,-92,-92,-63
-48,-68,-19,58,-14,-43,-4,-63,-68,-92,-92,-68
-39,-78,-39,58,0,-58,4,-73,-73,-102,-107,-63
-39,-73,-34,56,-2,-53,4,-73,-78,-102,-107,-63
-39,-73,-34,56,-2,-53,4,-73,-82,-102,-107,-63
-43,-73,-29,58,-7,-51,4,-73,-87,-102,-107,-63
-43,-73,-29,58,-7,-51,-4,-73,-82,-97,-107,-73
-43,-73,-29,58,-7,-51,-4,-73,-82,-102,-107,-73
-39,-73,-34,56,-2,-53,-4,-73,-82,-102,-107,-73
-39,-73,-34,56,-2,-53,-4,-78,-82,-102,-107,-73
-39,-63,-24,51,-7,-43,4,-68,-73,-97,-97,-68
-39,-63,-24,51,-7,-43,4,-68,-73,-97,-97,-63
-43,-63,-19,53,-12,-41,0,-68,-73,-92,-102,-63
-43,-63,-19,53,-12,-41,0,-68,-73,-92,-102,-58
-43,-58,-14,51,-14,-36,-9,-73,-63,-82,-97,-58
-48,-58,-9,53,-19,-34,-9,-73,-63,-82,-97,-58
-48,-58,-9,53,-19,-34,-4,-78,-68,-87,-97,-58
-43,-58,-14,51,-14,-36,-4,-78,-68,-92,-102,-58
-43,-58,-14,51,-14,-36,-9,-78,-78,-102,-112,-63
-48,-58,-9,53,-19,-34,-9,-78,-78,-107,-112,-73
-53,-63,-9,58,-21,-36,-9,-78,-73,-107,-117,-78
-53,-63,-9,58,-21,-36,-9,-78,-73,-107,-117,-82
-53,-63,-9,58,-21,-36,-9,-78,-82,-102,-117,-73
-48,-58,-9,53,-19,-34,-9,-78,-82,-102,-117,-73
-48,-58,-9,53,-19,-34,-9,-82,-82,-102,-117,-73
-58,-53,4,56,-31,-24,-4,-82,-82,-102,-117,-73
-58,-48,9,53,-34,-19,-4,-82,-73,-102,-102,-73
-58,-53,4,56,-31,-24,-4,-82,-73,-102,-102,-68
-58,-68,-9,63,-24,-39,-4,-82,-78,-107,-102,-68
-58,-73,-14,65,-21,-43,-4,-82,-78,-107,-97,-68
-43,-63,-19,53,-12,-41,-4,-82,-78,-107,-107,-53
-43,-63,-19,53,-12,-41,-4,-78,-78,-107,-107,-53
-43,-63,-19,53,-12,-41,-9,-78,-78,-107,-107,-58
-43,-63,-19,53,-12,-41,-9,-78,-78,-107,-107,-58
-43,-58,-14,51,-14,-36,-9,-73,-68,-107,-97,-58
-39,-48,-9,43,-14,-29,-9,-73,-63,-107,-97,-63
-39,-43,-4,41,-17,-24,-9,-73,-63,-112,-97,-63
-39,-43,-4,41,-17,-24,-4,-73,-63,-112,-97,-58
-48,-34,14,41,-31,-9,0,-78,-63,-102,-107,-68
-48,-34,14,41,-31,-9,0,-82,-63,-102,-112,-68
-48,-34,14,41,-31,-9,4,-87,-58,-102,-112,-68
-58,-34,24,46,-41,-4,4,-102,-58,-102,-112,-68
-68,-39,29,53,-48,-4,14,-112,-48,-107,-112,-68
-68,-43,24,56,-46,-9,14,-112,-48,-107,-112,-68
-68,-48,19,58,-43,-14,19,-112,-48,-107,-107,-68
-68,-48,19,58,-43,-14,19,-112,-48,-107,-107,-68
-68,-58,9,63,-39,-24,19,-122,-53,-97,-97,-63
-73,-58,14,65,-43,-21,19,-117,-53,-97,-97,-63
-73,-58,14,65,-43,-21,19,-112,-58,-97,-102,-68
-73,-68,4,70,-39,-31,19,-107,-58,-102,-102,-68
-63,-68,-4,65,-29,-36,9,-92,-58,-107,-107,-63
-63,-63,0,63,-31,-31,9,-87,-58,-112,-107,-63
-58,-63,-4,61,-26,-34,9,-82,-58,-117,-107,-58
-58,-58,0,58,-29,-29,9,-78,-58,-122,-107,-53
-53,-48,4,51,-29,-21,4,-82,-68,-122,-117,-63
-53,-48,4,51,-29,-21,4,-82,-68,-122,-117,-63
-63,-53,9,58,-36,-21,4,-82,-68,-122,-117,-73
-63,-53,9,58,-36,-21,9,-82,-73,-122,-117,-73
-68,-63,4,65,-36,-29,14,-92,-82,-122,-117,-78
-68,-68,0,68,-34,-34,14,-92,-87,-122,-117,-78
-68,-68,0,68,-34,-34,19,-87,-87,-122,-117,-78
-68,-68,0,68,-34,-34,19,-87,-87,-117,-117,-78
-78,-78,0,78,-39,-39,19,-87,-87,-107,-117,-78
-78,-78,0,78,-39,-39,19,-87,-87,-112,-117,-78
-78,-78,0,78,-39,-39,19,-87,-87,-112,-117,-78
-78,-73,4,75,-41,-34,19,-87,-87,-112,-117,-82
-87,-82,4,85,-46,-39,29,-87,-82,-112,-117,-73
-87,-78,9,82,-48,-34,29,-87,-82,-112,-117,-73
-87,-78,9,82,-48,-34,24,-87,-82,-112,-117,-73
-87,-78,9,82,-48,-34,24,-82,-82,-112,-117,-68
-78,-78,0,78,-39,-39,34,-82,-82,-112,-117,-73
-78,-78,0,78,-39,-39,34,-82,-82,-112,-117,-73
-73,-78,-4,75,-34,-41,34,-82,-82,-107,-117,-73
-73,-78,-4,75,-34,-41,39,-82,-78,-107,-117,-68
-78,-73,4,75,-41,-34,29,-78,-78,-102,-112,-78
-78,-68,9,73,-43,-29,29,-78,-78,-102,-112,-78
-78,-63,14,70,-46,-24,29,-82,-78,-102,-107,-78
-73,-58,14,65,-43,-21,29,-82,-78,-102,-102,-82
-58,-48,9,53,-34,-19,19,-73,-78,-102,-102,-78
-58,-43,14,51,-36,-14,19,-73,-73,-97,-107,-78
-58,-43,14,51,-36,-14,19,-73,-73,-97,-107,-78
-58,-43,14,51,-36,-14,19,-73,-68,-97,-112,-82
-53,-48,4,51,-29,-21,29,-78,-68,-97,-112,-82
-53,-48,4,51,-29,-21,29,-82,-68,-97,-117,-82
-53,-43,9,48,-31,-17,29,-87,-68,-97,-117,-82
-58,-43,14,51,-36,-14,24,-92,-68,-97,-122,-82
-58,-34,24,46,-41,-4,24,-92,-68,-87,-117,-82
-58,-39,19,48,-39,-9,24,-92,-73,-97,-117,-82
-53,-39,14,46,-34,-12,24,-92,-78,-97,-117,-82
-53,-43,9,48,-31,-17,24,-87,-78,-97,-117,-82
-53,-48,4,51,-29,-21,14,-82,-68,-97,-117,-82
-53,-48,4,51,-29,-21,14,-78,-68,-97,-117,-82
-53,-48,4,51,-29,-21,14,-73,-68,-97,-117,-82
-53,-58,-4,56,-24,-31,14,-68,-63,-97,-117,-82
-53,-58,-4,56,-24,-31,24,-78,-63,-97,-117,-73
-53,-53,0,53,-26,-26,24,-78,-68,-97,-117,-78
-53,-48,4,51,-29,-21,24,-82,-68,-97,-117,-78
-53,-43,9,48,-31,-17,24,-82,-63,-87,-112,-78
-53,-43,9,48,-31,-17,14,-78,-63,-78,-102,-63
-53,-43,9,48,-31,-17,14,-78,-63,-78,-102,-63
-53,-39,14,46,-34,-12,19,-78,-68,-82,-102,-63
-53,-39,14,46,-34,-12,19,-78,-73,-87,-102,-63
-48,-39,9,43,-29,-14,14,-73,-68,-92,-122,-68
-48,-39,9,43,-29,-14,14,-73,-68,-97,-122,-73
-48,-43,4,46,-26,-19,14,-73,-68,-102,-117,-78
-48,-43,4,46,-26,-19,14,-73,-68,-107,-117,-82
-48,-43,4,46,-26,-19,4,-82,-68,-97,-126,-82
-48,-43,4,46,-26,-19,4,-82,-68,-97,-126,-82
-48,-43,4,46,-26,-19,9,-82,-68,-97,-126,-82
-48,-43,4,46,-26,-19,9,-87,-78,-97,-126,-82
-58,-39,19,48,-39,-9,9,-78,-82,-112,-131,-87
-58,-39,19,48,-39,-9,14,-82,-82,-112,-131,-87
-58,-43,14,51,-36,-14,19,-82,-73,-112,-131,-82
-58,-43,14,51,-36,-14,14,-78,-73,-112,-131,-82
-58,-34,24,46,-41,-4,4,-78,-73,-112,-126,-82
-58,-34,24,46,-41,-4,9,-78,-73,-112,-126,-82
-58,-43,14,51,-36,-14,9,-78,-73,-112,-131,-82
-58,-34,24,46,-41,-4,9,-78,-73,-112,-131,-82
-53,-43,9,48,-31,-17,0,-78,-73,-102,-122,-73
-48,-48,0,48,-24,-24,0,-78,-73,-107,-122,-78
-43,-48,-4,46,-19,-26,0,-78,-73,-107,-122,-78
-43,-48,-4,46,-19,-26,0,-78,-73,-102,-122,-73
-43,-39,4,41,-24,-17,0,-78,-73,-112,-122,-73
-43,-39,4,41,-24,-17,0,-87,-78,-112,-122,-73
-43,-39,4,41,-24,-17,0,-87,-82,-112,-122,-73
-43,-43,0,43,-21,-21,0,-82,-82,-112,-117,-68
-48,-43,4,46,-26,-19,9,-92,-87,-112,-117,-78
-48,-39,9,43,-29,-14,9,-92,-87,-112,-117,-78
-48,-39,9,43,-29,-14,4,-92,-87,-112,-117,-78
-48,-39,9,43,-29,-14,4,-92,-87,-117,-117,-82
-53,-43,9,48,-31,-17,14,-102,-87,-107,-126,-73
-58,-48,9,53,-34,-19,14,-102,-87,-107,-126,-73
-63,-58,4,61,-34,-26,14,-102,-92,-117,-126,-78
-68,-63,4,65,-36,-29,9,-102,-92,-117,-126,-78
-68,-53,14,61,-41,-19,9,-107,-87,-112,-117,-87
-73,-53,19,63,-46,-17,9,-112,-87,-112,-122,-87
-73,-53,19,63,-46,-17,9,-117,-87,-107,-122,-82
-73,-53,19,63,-46,-17,9,-122,-87,-107,-122,-82
-68,-48,19,58,-43,-14,4,-117,-78,-112,-122,-82
-63,-43,19,53,-41,-12,0,-112,-78,-112,-122,-82
-58,-39,19,48,-39,-9,-4,-102,-78,-107,-117,-82
-53,-34,19,43,-36,-7,-9,-97,-78,-107,-117,-82
-48,-34,14,41,-31,-9,-9,-92,-73,-107,-122,-73
-48,-34,14,41,-31,-9,-9,-87,-73,-107,-122,-73
-48,-34,14,41,-31,-9,-9,-82,-73,-107,-122,-73
-48,-29,19,39,-34,-4,-9,-78,-73,-107,-122,-73
-58,-39,19,48,-39,-9,-9,-87,-73,-107,-122,-82
-58,-39,19,48,-39,-9,-9,-92,-73,-107,-122,-82
-58,-39,19,48,-39,-9,-9,-92,-73,-107,-117,-82
-58,-34,24,46,-41,-4,-9,-97,-73,-107,-112,-82
-43,-34,9,39,-26,-12,-24,-87,-73,-102,-112,-87
-43,-34,9,39,-26,-12,-24,-87,-73,-102,-112,-87
-43,-34,9,39,-26,-12,-29,-87,-73,-102,-112,-87
-43,-34,9,39,-26,-12,-29,-87,-73,-107,-112,-82
-34,-39,-4,36,-14,-21,-29,-87,-63,-97,-117,-82
-34,-39,-4,36,-14,-21,-29,-87,-63,-102,-117,-82
-34,-39,-4,36,-14,-21,-29,-87,-63,-102,-122,-82
-34,-43,-9,39,-12,-26,-29,-87,-63,-107,-122,-87
-34,-34,0,34,-17,-17,-29,-78,-63,-107,-126,-78
-39,-34,4,36,-21,-14,-29,-78,-63,-107,-122,-78
-39,-29,9,34,-24,-9,-29,-78,-63,-107,-122,-78
-39,-29,9,34,-24,-9,-24,-82,-63,-107,-122,-73
-48,-29,19,39,-34,-4,-24,-73,-63,-102,-112,-73
-48,-29,19,39,-34,-4,-19,-73,-68,-97,-117,-73
-48,-29,19,39,-34,-4,-19,-73,-68,-92,-117,-82
-48,-29,19,39,-34,-4,-19,-73,-68,-87,-117,-82
-58,-29,29,43,-43,0,-24,-73,-68,-87,-117,-68
-58,-29,29,43,-43,0,-24,-78,-68,-87,-122,-78
-39,-19,19,29,-29,0,-24,-92,-68,-97,-122,-87
-39,-19,19,29,-29,0,-39,-87,-58,-97,-126,-78
-39,-29,9,34,-24,-9,-29,-87,-68,-97,-126,-68
-39,-29,9,34,-24,-9,-29,-87,-68,-97,-126,-68
-39,-29,9,34,-24,-9,-29,-87,-68,-97,-126,-68
-39,-29,9,34,-24,-9,-29,-87,-68,-97,-126,-68
-39,-19,19,29,-29,0,-29,-87,-68,-107,-126,-73
-39,-19,19,29,-29,0,-29,-87,-68,-107,-126,-78
-39,-19,19,29,-29,0,-29,-87,-68,-107,-126,-82
-39,-19,19,29,-29,0,-29,-87,-68,-107,-126,-87
-39,-29,9,34,-24,-9,-39,-97,-68,-107,-126,-87
-39,-29,9,34,-24,-9,-39,-97,-68,-107,-126,-87
-39,-29,9,34,-24,-9,-39,-97,-68,-107,-126,-87
-39,-29,9,34,-24,-9,-39,-97,-68,-107,-126,-87
-48,-29,19,39,-34,-4,-29,-87,-68,-107,-126,-87
-48,-29,19,39,-34,-4,-29,-87,-68,-107,-126,-87
-48,-29,19,39,-34,-4,-29,-87,-68,-107,-126,-87
-48,-29,19,39,-34,-4,-29,-87,-68,-107,-126,-87
-58,-39,19,48,-39,-9,-29,-87,-78,-107,-136,-97
-58,-39,19,48,-39,-9,-29,-87,-78,-107,-136,-97
-58,-39,19,48,-39,-9,-29,-87,-78,-107,-136,-97
-58,-39,19,48,-39,-9,-29,-87,-78,-107,-136,-97
-58,-29,29,43,-43,0,-39,-78,-78,-117,-136,-97
-58,-29,29,43,-43,0,-39,-78,-78,-117,-136,-97
-58,-29,29,43,-43,0,-39,-78,-78,-117,-136,-97
-58,-29,29,43,-43,0,-39,-78,-78,-117,-136,-97
-43,-24,19,34,-31,-2,-48,-78,-78,-107,-126,-92
-39,-19,19,29,-29,0,-48,-78,-78,-107,-126,-87
-34,-14,19,24,-26,2,-48,-78,-78,-107,-126,-82
-29,-9,19,19,-24,4,-48,-78,-78,-107,-126,-78
-29,-9,19,19,-24,4,-48,-87,-78,-107,-126,-78
-29,-9,19,19,-24,4,-48,-87,-78,-107,-126,-78
-29,-9,19,19,-24,4,-48,-87,-78,-107,-126,-78
-29,-9,19,19,-24,4,-48,-87,-78,-107,-126,-78
-39,-24,14,31,-26,-4,-39,-87,-78,-97,-126,-78
-39,-29,9,34,-24,-9,-39,-87,-78,-97,-126,-78
-39,-34,4,36,-21,-14,-39,-87,-78,-97,-126,-78
-39,-39,0,39,-19,-19,-39,-87,-78,-97,-126,-78
-48,-39,9,43,-29,-14,-29,-87,-87,-107,-126,-78
-48,-39,9,43,-29,-14,-29,-87,-87,-107,-126,-78
-48,-39,9,43,-29,-14,-29,-87,-87,-107,-126,-78
-48,-39,9,43,-29,-14,-29,-87,-87,-107,-126,-78
-48,-29,19,39,-34,-4,-39,-92,-78,-107,-136,-87
-48,-29,19,39,-34,-4,-39,-97,-78,-107,-136,-87
-48,-29,19,39,-34,-4,-39,-102,-78,-107,-136,-87
-48,-29,19,39,-34,-4,-39,-107,-78,-107,-136,-87
-43,-29,14,36,-29,-7,-48,-102,-78,-107,-126,-87
-39,-29,9,34,-24,-9,-48,-97,-78,-107,-126,-87
-34,-29,4,31,-19,-12,-48,-92,-78,-107,-126,-87
-29,-29,0,29,-14,-14,-48,-87,-78,-107,-126,-87
-29,-19,9,24,-19,-4,-39,-87,-68,-107,-126,-78
-29,-19,9,24,-19,-4,-39,-87,-68,-107,-126,-78
-29,-19,9,24,-19,-4,-39,-87,-68,-107,-126,-78
-29,-19,9,24,-19,-4,-39,-87,-68,-107,-126,-78
-39,-29,9,34,-24,-9,-29,-87,-58,-97,-126,-78
-39,-29,9,34,-24,-9,-29,-87,-58,-97,-126,-78
-39,-29,9,34,-24,-9,-29,-87,-58,-97,-126,-78
-39,-34,4,36,-21,-14,-24,-87,-58,-97,-122,-78
-48,-34,14,41,-31,-9,-24,-97,-58,-92,-122,-78
-48,-34,14,41,-31,-9,-19,-97,-58,-92,-122,-78
-48,-34,14,41,-31,-9,-19,-97,-53,-92,-122,-78
-43,-34,9,39,-26,-12,-24,-92,-53,-92,-122,-73
-39,-29,9,34,-24,-9,-29,-97,-53,-82,-122,-68
-34,-24,9,29,-21,-7,-29,-97,-48,-82,-122,-68
-34,-19,14,26,-24,-2,-24,-97,-48,-82,-122,-73
-34,-14,19,24,-26,2,-24,-97,-48,-82,-122,-73
-43,-24,19,34,-31,-2,-19,-87,-48,-92,-126,-73
-43,-34,9,39,-26,-12,-14,-87,-48,-92,-131,-82
-43,-39,4,41,-24,-17,-9,-87,-48,-97,-131,-87
-43,-39,4,41,-24,-17,0,-87,-53,-97,-131,-87
-53,-48,4,51,-29,-21,-9,-92,-53,-107,-146,-92
-48,-48,0,48,-24,-24,-9,-87,-53,-107,-146,-92
-39,-48,-9,43,-14,-29,-9,-78,-53,-107,-146,-92
-34,-48,-14,41,-9,-31,-9,-73,-53,-107,-141,-92
-19,-48,-29,34,4,-39,-19,-68,-53,-102,-131,-92
-9,-34,-24,21,7,-29,-19,-63,-43,-92,-131,-92
-9,-14,-4,12,-2,-9,-19,-58,-39,-82,-122,-78
-9,-9,0,9,-4,-4,-19,-53,-34,-68,-112,-73
-4,9,14,-2,-9,12,-14,-43,-24,-68,-102,-73
0,9,9,-4,-4,9,-9,-43,-14,-58,-102,-73
9,9,0,-9,4,4,-9,-43,-14,-53,-102,-63
19,9,-9,-14,14,0,-9,-43,-14,-53,-102,-63
24,9,-14,-17,19,-2,-4,-24,-4,-48,-102,-63
24,0,-24,-12,24,-12,-4,-14,-9,-53,-102,-63
34,-9,-43,-12,39,-26,-4,-14,-14,-63,-102,-63
39,-9,-48,-14,43,-29,-9,-19,-14,-63,-102,-63
34,0,-34,-17,34,-17,-14,-19,-19,-68,-102,-68
39,24,-14,-31,26,4,-24,-19,-9,-53,-92,-53
39,48,9,-43,14,29,-24,-29,4,-43,-82,-43
39,58,19,-48,9,39,-39,-34,9,-29,-73,-34
43,82,39,-63,2,61,-58,-53,14,-19,-53,-19
43,102,58,-73,-7,80,-73,-58,14,-19,-53,-14
48,97,48,-73,0,73,-78,-58,9,-19,-53,-9
48,92,43,-70,2,68,-82,-63,0,-29,-58,-4
58,78,19,-68,19,48,-102,-73,-14,-34,-78,-24
58,58,0,-58,29,29,-102,-73,-19,-48,-92,-39
58,34,-24,-46,41,4,-102,-73,-34,-68,-107,-58
58,14,-43,-36,51,-14,-97,-73,-43,-68,-107,-58
53,4,-48,-29,51,-21,-97,-63,-53,-78,-117,-63
53,4,-48,-29,51,-21,-92,-58,-53,-78,-117,-63
53,9,-43,-31,48,-17,-87,-58,-48,-78,-112,-58
53,24,-29,-39,41,-2,-87,-63,-48,-78,-107,-53
48,34,-14,-41,31,9,-87,-68,-48,-78,-107,-53
48,29,-19,-39,34,4,-87,-73,-53,-73,-107,-53
53,29,-24,-41,39,2,-92,-78,-53,-73,-107,-48
53,29,-24,-41,39,2,-92,-82,-53,-82,-107,-48
48,34,-14,-41,31,9,-92,-82,-53,-73,-97,-48
48,39,-9,-43,29,14,-97,-82,-53,-73,-107,-48
53,43,-9,-48,31,17,-97,-82,-53,-73,-97,-48
53,58,4,-56,24,31,-97,-82,-48,-68,-97,-48
53,53,0,-53,26,26,-97,-82,-39,-58,-87,-34
43,53,9,-48,17,31,-97,-82,-39,-58,-87,-34
39,53,14,-46,12,34,-92,-78,-39,-58,-87,-39
29,39,9,-34,9,24,-82,-78,-34,-68,-97,-53
9,24,14,-17,-2,19,-63,-82,-39,-82,-112,-63
-4,14,19,-4,-12,17,-53,-82,-53,-82,-117,-68
-24,0,24,12,-24,12,-53,-82,-58,-82,-117,-68
-34,-4,29,19,-31,12,-43,-92,-63,-82,-117,-68
-39,4,43,17,-41,24,-53,-87,-53,-73,-112,-78
-39,4,43,17,-41,24,-53,-92,-53,-73,-112,-78
-34,4,39,14,-36,21,-53,-92,-53,-78,-112,-78
-34,0,34,17,-34,17,-53,-92,-53,-78,-112,-78
-29,9,39,9,-34,24,-68,-92,-63,-78,-112,-82
-24,9,34,7,-29,21,-68,-97,-68,-78,-117,-82
-19,14,34,2,-26,24,-68,-97,-68,-78,-117,-82
-19,14,34,2,-26,24,-68,-97,-68,-78,-117,-82
-29,9,39,9,-34,24,-53,-87,-58,-92,-126,-82
-34,4,39,14,-36,21,-48,-87,-58,-92,-126,-82
-34,-4,29,19,-31,12,-48,-87,-53,-92,-126,-82
-34,-14,19,24,-26,2,-48,-87,-53,-92,-126,-82
-43,-19,24,31,-34,2,-34,-82,-53,-82,-126,-82
-53,-43,9,48,-31,-17,-19,-82,-63,-87,-126,-82
-48,-63,-14,56,-17,-39,-4,-82,-73,-102,-146,-92
-58,-92,-34,75,-12,-63,4,-82,-87,-112,-156,-122
-68,-107,-39,87,-14,-73,14,-63,-102,-122,-165,-136
-68,-112,-43,90,-12,-78,19,-48,-107,-146,-190,-156
-78,-141,-63,109,-7,-102,48,-24,-107,-161,-219,-180
-73,-151,-78,112,2,-114,78,9,-92,-151,-229,-185
-73,-156,-82,114,4,-119,117,48,-63,-117,-209,-175
-58,-141,-82,100,12,-112,136,97,-4,-82,-180,-161
-24,-112,-87,68,31,-100,146,151,58,-29,-151,-151
24,-97,-122,36,73,-109,136,195,92,9,-122,-136
53,-68,-122,7,87,-95,126,204,136,39,-92,-126
73,-34,-107,-19,90,-70,107,195,161,63,-73,-112
102,14,-87,-58,95,-36,53,170,195,97,-43,-82
185,97,-87,-141,136,4,-63,136,234,161,14,-19
283,234,-48,-258,165,92,-219,78,307,248,126,78
361,385,24,-373,168,204,-370,24,390,366,248,195
463,541,78,-502,192,309,-531,-24,473,502,400,331
600,702,102,-651,248,402,-722,-48,556,624,546,468
722,863,141,-793,290,502,-902,-92,639,736,697,595
810,1034,224,-922,292,629,-1063,-170,727,863,844,736
863,1166,302,-1015,280,734,-1185,-258,790,971,961,863
858,1288,429,-1073,214,858,-1278,-375,858,1058,1083,971
805,1410,605,-1107,100,1007,-1337,-512,946,1180,1205,1098
761,1546,785,-1154,-12,1166,-1390,-629,1024,1293,1322,1224
771,1659,888,-1215,-58,1273,-1473,-736,1063,1371,1444,1337
780,1742,961,-1261,-90,1351,-1566,-829,1088,1454,1566,1449
790,1795,1005,-1293,-107,1400,-1629,-873,1117,1498,1654,1546
800,1761,961,-1281,-80,1361,-1634,-863,1049,1464,1664,1576
800,1703,902,-1251,-51,1302,-1639,-849,941,1371,1629,1576
800,1712,912,-1256,-56,1312,-1620,-819,902,1337,1620,1595
785,1742,956,-1263,-85,1349,-1566,-771,902,1327,1615,1615
736,1664,927,-1200,-95,1295,-1439,-697,829,1224,1527,1546
653,1439,785,-1046,-65,1112,-1249,-610,629,976,1283,1366
561,1132,570,-846,-4,851,-1039,-507,331,634,961,1107
458,790,331,-624,63,561,-819,-444,29,307,624,844
361,531,170,-446,95,351,-649,-405,-170,58,361,600
292,405,112,-348,90,258,-507,-331,-175,-24,219,434
214,336,122,-275,46,229,-395,-258,-102,0,161,331
117,253,136,-185,-9,195,-258,-224,-48,9,97,224
58,161,102,-109,-21,131,-156,-175,-34,-9,34,117
29,92,63,-61,-17,78,-107,-107,-4,-9,-14,58
4,39,34,-21,-14,36,-63,-68,14,-9,-39,19
-14,-4,9,9,-12,2,-24,-39,24,-9,-58,-4
-29,-19,9,24,-19,-4,0,-19,34,-9,-73,-24
-43,-29,14,36,-29,-7,9,-19,43,-9,-68,-24
-58,-19,39,39,-48,9,24,-29,29,-24,-68,-34
-58,-24,34,41,-46,4,39,-34,24,-24,-87,-29
-58,-34,24,46,-41,-4,43,-29,29,-34,-97,-39
-58,-39,19,48,-39,-9,53,-34,14,-43,-102,-48
-58,-48,9,53,-34,-19,58,-24,4,-53,-102,-53
-58,-58,0,58,-29,-29,53,-24,4,-63,-112,-73
-63,-63,0,63,-31,-31,58,-24,4,-63,-117,-73
-68,-73,-4,70,-31,-39,58,-19,0,-63,-122,-78
-68,-82,-14,75,-26,-48,63,-19,-9,-68,-122,-78
-78,-87,-9,82,-34,-48,68,-19,-24,-82,-131,-82
-82,-92,-9,87,-36,-51,68,-24,-29,-87,-136,-87
-87,-97,-9,92,-39,-53,73,-24,-39,-92,-146,-102
-97,-102,-4,100,-46,-53,73,-24,-48,-92,-146,-107
-107,-102,4,104,-56,-48,82,-34,-48,-97,-136,-107
-107,-102,4,104,-56,-48,82,-34,-53,-97,-136,-107
-112,-102,9,107,-61,-46,82,-29,-58,-97,-136,-107
-112,-102,9,107,-61,-46,87,-29,-58,-97,-136,-112
-112,-112,0,112,-56,-56,92,-39,-68,-97,-146,-112
-112,-117,-4,114,-53,-61,92,-34,-73,-102,-146,-112
-112,-117,-4,114,-53,-61,97,-34,-73,-102,-146,-112
-112,-117,-4,114,-53,-61,97,-29,-68,-107,-146,-112
-102,-122,-19,112,-41,-70,102,-14,-78,-107,-146,-102
-102,-122,-19,112,-41,-70,102,-4,-73,-107,-146,-102
-102,-122,-19,112,-41,-70,102,0,-68,-112,-146,-107
-102,-117,-14,109,-43,-65,107,4,-63,-112,-151,-107
-102,-107,-4,104,-48,-56,107,0,-58,-107,-141,-107
-102,-107,-4,104,-48,-56,117,4,-58,-102,-136,-107
-102,-107,-4,104,-48,-56,107,9,-53,-97,-136,-107
-102,-102,0,102,-51,-51,107,9,-48,-92,-136,-112
-102,-102,0,102,-51,-51,97,0,-48,-92,-126,-102
-102,-112,-9,107,-46,-61,102,0,-39,-87,-126,-102
-102,-112,-9,107,-46,-61,102,0,-39,-87,-126,-102
-102,-112,-9,107,-46,-61,102,4,-39,-87,-126,-97
-92,-97,-4,95,-43,-51,112,-4,-29,-78,-126,-107
-87,-97,-9,92,-39,-53,107,-4,-34,-82,-122,-107
-87,-92,-4,90,-41,-48,107,-4,-34,-87,-122,-107
-87,-92,-4,90,-41,-48,107,-4,-34,-92,-122,-107
-87,-112,-24,100,-31,-68,117,0,-29,-82,-131,-107
-87,-112,-24,100,-31,-68,112,0,-29,-87,-131,-107
-87,-117,-29,102,-29,-73,112,0,-29,-87,-131,-107
-92,-122,-29,107,-31,-75,117,0,-29,-87,-131,-107
-97,-117,-19,107,-39,-68,122,-9,-29,-87,-131,-117
-102,-117,-14,109,-43,-65,122,-9,-29,-87,-131,-117
-107,-117,-9,112,-48,-63,122,-9,-29,-87,-131,-117
-112,-117,-4,114,-53,-61,122,-4,-29,-87,-131,-117
-112,-117,-4,114,-53,-61,122,9,-39,-87,-131,-117
-117,-122,-4,119,-56,-63,122,9,-39,-82,-131,-117
-117,-122,-4,119,-56,-63,126,9,-39,-82,-131,-117
-117,-122,-4,119,-56,-63,126,14,-43,-82,-131,-117
-107,-122,-14,114,-46,-68,122,19,-34,-82,-131,-107
-107,-122,-14,114,-46,-68,122,19,-29,-82,-131,-112
-107,-117,-9,112,-48,-63,122,19,-29,-82,-131,-112
-107,-117,-9,112,-48,-63,122,29,-29,-82,-131,-112
-117,-126,-9,122,-53,-68,122,39,-29,-82,-131,-112
-117,-126,-9,122,-53,-68,126,43,-29,-82,-131,-112
-117,-126,-9,122,-53,-68,126,43,-19,-73,-131,-112
-117,-126,-9,122,-53,-68,126,48,-19,-73,-126,-112
-107,-131,-24,119,-41,-78,126,53,-29,-82,-136,-112
-107,-131,-24,119,-41,-78,126,53,-19,-82,-136,-112
-107,-131,-24,119,-41,-78,131,53,-19,-78,-141,-112
-97,-126,-29,112,-34,-78,131,63,-9,-78,-141,-112
-107,-126,-19,117,-43,-73,122,68,0,-82,-131,-122
-107,-122,-14,114,-46,-68,126,73,0,-73,-131,-122
-107,-122,-14,114,-46,-68,131,78,9,-68,-126,-122
-107,-122,-14,114,-46,-68,136,82,14,-68,-126,-122
-107,-112,-4,109,-51,-58,146,73,9,-58,-122,-122
-107,-107,0,107,-53,-53,146,78,19,-58,-122,-122
-107,-102,4,104,-56,-48,146,82,24,-58,-122,-122
-102,-102,0,102,-51,-51,146,82,24,-53,-122,-122
-102,-97,4,100,-53,-46,151,87,39,-53,-112,-112
-97,-97,0,97,-48,-48,161,87,39,-53,-107,-112
-97,-92,4,95,-51,-43,170,87,43,-53,-107,-112
-97,-82,14,90,-56,-34,175,87,43,-48,-112,-112
-82,-92,-9,87,-36,-51,185,97,43,-48,-102,-117
-82,-92,-9,87,-36,-51,190,102,53,-39,-102,-117
-82,-87,-4,85,-39,-46,190,102,58,-39,-102,-112
-82,-87,-4,85,-39,-46,190,102,63,-34,-102,-107
-78,-82,-4,80,-36,-43,185,102,63,-34,-107,-117
-78,-78,0,78,-39,-39,185,107,68,-34,-102,-117
-78,-73,4,75,-41,-34,180,117,73,-29,-97,-112
-78,-68,9,73,-43,-29,180,122,78,-19,-92,-112
-87,-73,14,80,-51,-29,195,112,73,-29,-102,-112
-92,-78,14,85,-53,-31,195,107,82,-24,-102,-112
-92,-78,14,85,-53,-31,200,107,87,-19,-92,-112
-92,-78,14,85,-53,-31,204,112,92,-19,-92,-107
-97,-78,19,87,-58,-29,209,126,102,-9,-87,-107
-97,-78,19,87,-58,-29,224,131,107,-4,-87,-107
-97,-82,14,90,-56,-34,229,136,117,-4,-87,-107
-92,-82,9,87,-51,-36,234,146,117,4,-82,-107
-92,-73,19,82,-56,-26,224,156,122,4,-82,-107
-87,-73,14,80,-51,-29,239,161,126,9,-78,-107
-87,-63,24,75,-56,-19,244,175,136,9,-78,-107
-87,-63,24,75,-56,-19,244,190,146,19,-78,-107
-87,-63,24,75,-56,-19,248,190,151,29,-68,-92
-87,-53,34,70,-61,-9,253,209,165,34,-63,-92
-82,-43,39,63,-61,-2,253,219,170,43,-58,-87
-82,-39,43,61,-63,2,253,234,185,53,-48,-87
-78,-29,48,53,-63,9,253,234,204,68,-34,-78
-78,-24,53,51,-65,14,258,239,224,68,-34,-73
-73,-9,63,41,-68,26,263,244,234,82,-29,-73
-63,9,73,26,-68,41,263,258,239,92,-24,-68
-63,4,68,29,-65,36,273,283,244,92,-24,-73
-53,9,63,21,-58,36,273,292,253,102,-24,-73
-53,14,68,19,-61,41,268,302,273,112,-19,-73
-53,24,78,14,-65,51,273,317,287,122,-19,-78
-34,19,53,7,-43,36,287,331,312,136,-14,-73
-29,29,58,0,-43,43,292,346,331,141,-9,-73
-24,29,53,-2,-39,41,297,361,346,156,-4,-63
-24,43,68,-9,-46,56,312,375,356,175,0,-63
-29,58,87,-14,-58,73,317,395,375,180,19,-58
-19,78,97,-29,-58,87,322,409,390,195,24,-53
-14,92,107,-39,-61,100,326,424,405,209,34,-48
-4,107,112,-51,-58,109,331,444,419,219,43,-48
-9,107,117,-48,-63,112,331,453,434,229,34,-48
0,107,107,-53,-53,107,331,473,453,239,39,-48
4,107,102,-56,-48,104,331,488,463,248,48,-39
9,107,97,-58,-43,102,331,502,478,258,53,-39
24,117,92,-70,-34,104,322,512,492,268,63,-39
29,136,107,-82,-39,122,322,527,497,278,63,-29
34,141,107,-87,-36,124,322,541,512,287,68,-24
39,151,112,-95,-36,131,322,546,527,302,78,-24
53,161,107,-107,-26,134,322,561,541,307,97,-19
58,165,107,-112,-24,136,312,566,561,312,97,-14
58,175,117,-117,-29,146,312,566,566,317,102,-9
58,190,131,-124,-36,161,307,566,575,322,107,-4
58,200,141,-129,-41,170,302,575,575,317,107,4
58,200,141,-129,-41,170,297,575,580,326,112,9
63,195,131,-129,-34,163,292,575,585,326,117,9
68,195,126,-131,-29,161,287,566,585,326,117,9
58,185,126,-122,-34,156,278,551,580,331,117,0
58,185,126,-122,-34,156,278,546,580,331,117,0
58,190,131,-124,-36,161,263,536,575,331,117,0
63,195,131,-129,-34,163,258,527,566,322,112,9
73,190,117,-131,-21,153,239,517,556,317,102,9
73,190,117,-131,-21,153,229,502,536,302,102,9
73,180,107,-126,-17,143,219,483,512,297,102,9
73,170,97,-122,-12,134,204,468,492,283,92,14
63,175,112,-119,-24,143,185,434,478,278,102,24
63,170,107,-117,-21,139,170,409,458,263,97,24
53,165,112,-109,-29,139,161,385,444,253,92,29
48,161,112,-104,-31,136,151,356,414,248,87,34
39,146,107,-92,-34,126,141,312,390,219,82,34
34,141,107,-87,-36,124,126,292,351,200,68,34
29,136,107,-82,-39,122,117,268,326,185,68,34
24,131,107,-78,-41,119,107,244,302,170,63,34
29,112,82,-70,-26,97,87,229,273,151,68,34
24,107,82,-65,-29,95,78,204,248,141,58,29
19,102,82,-61,-31,92,78,180,234,136,58,29
19,87,68,-53,-24,78,63,165,214,122,43,24
24,87,63,-56,-19,75,53,141,180,92,34,24
19,78,58,-48,-19,68,53,126,156,82,34,24
19,68,48,-43,-14,58,48,112,136,68,29,24
14,58,43,-36,-14,51,39,102,112,58,14,14
0,48,48,-24,-24,48,39,78,102,53,14,14
-4,39,43,-17,-24,41,34,58,87,39,9,9
-9,29,39,-9,-24,34,34,43,78,29,0,4
-9,19,29,-4,-19,24,34,29,63,14,-4,-4
-14,9,24,2,-19,17,24,9,39,4,-19,-9
-14,4,19,4,-17,12,24,4,24,-4,-24,-19
-14,0,14,7,-14,7,19,-4,4,-19,-29,-19
-14,-14,0,14,-7,-7,19,-14,-4,-34,-34,-19
-34,-14,19,24,-26,2,19,-34,-24,-43,-39,-19
-39,-14,24,26,-31,4,19,-39,-29,-43,-43,-19
-39,-14,24,26,-31,4,19,-39,-34,-58,-48,-19
-39,-14,24,26,-31,4,14,-48,-39,-68,-53,-29
-43,-24,19,34,-31,-2,14,-43,-58,-68,-58,-29
-48,-24,24,36,-36,0,9,-48,-63,-68,-58,-29
-43,-29,14,36,-29,-7,4,-53,-63,-73,-58,-34
-34,-34,0,34,-17,-17,4,-53,-68,-78,-58,-34
-24,-24,0,24,-12,-12,-4,-48,-82,-92,-78,-34
-24,-39,-14,31,-4,-26,-4,-48,-82,-97,-82,-43
-24,-43,-19,34,-2,-31,-4,-53,-87,-102,-82,-48
-29,-48,-19,39,-4,-34,-4,-53,-87,-102,-82,-48
-39,-58,-19,48,-9,-39,-4,-73,-87,-102,-78,-43
-39,-53,-14,46,-12,-34,-4,-73,-87,-102,-78,-43
-39,-53,-14,46,-12,-34,-4,-73,-87,-102,-78,-43
-43,-53,-9,48,-17,-31,-4,-73,-87,-102,-78,-43
-43,-53,-9,48,-17,-31,-4,-63,-92,-97,-78,-53
-43,-53,-9,48,-17,-31,-4,-63,-92,-102,-78,-53
-39,-53,-14,46,-12,-34,-4,-63,-92,-102,-78,-53
-39,-53,-14,46,-12,-34,-4,-68,-92,-102,-78,-53
-48,-53,-4,51,-21,-29,4,-58,-82,-107,-68,-53
-48,-53,-4,51,-21,-29,4,-58,-82,-107,-68,-53
-53,-53,0,53,-26,-26,0,-58,-82,-102,-73,-58
-53,-53,0,53,-26,-26,0,-58,-82,-102,-73,-58
-53,-63,-9,58,-21,-36,0,-58,-82,-102,-78,-58
-58,-68,-9,63,-24,-39,0,-63,-82,-102,-78,-58
-58,-73,-14,65,-21,-43,4,-73,-87,-107,-78,-58
-53,-78,-24,65,-14,-51,4,-78,-87,-112,-82,-58
-43,-82,-39,63,-2,-61,0,-68,-78,-102,-73,-48
-48,-78,-29,63,-9,-53,0,-68,-78,-107,-73,-53
-53,-78,-24,65,-14,-51,0,-68,-73,-107,-78,-53
-53,-73,-19,63,-17,-46,0,-68,-73,-107,-78,-53
-43,-73,-29,58,-7,-51,0,-58,-82,-102,-87,-63
-39,-68,-29,53,-4,-48,0,-58,-82,-102,-87,-63
-39,-68,-29,53,-4,-48,0,-63,-82,-102,-87,-63
-48,-63,-14,56,-17,-39,4,-63,-82,-102,-87,-63
-58,-63,-4,61,-26,-34,4,-63,-82,-102,-82,-63
-58,-63,-4,61,-26,-34,4,-63,-82,-102,-82,-58
-58,-73,-14,65,-21,-43,4,-63,-87,-107,-82,-58
-58,-73,-14,65,-21,-43,4,-63,-87,-107,-78,-58
-58,-73,-14,65,-21,-43,14,-73,-78,-107,-87,-53
-63,-73,-9,68,-26,-41,14,-68,-78,-107,-87,-53
-68,-73,-4,70,-31,-39,9,-68,-78,-107,-87,-58
-73,-73,0,73,-36,-36,9,-68,-78,-107,-87,-58
-82,-73,9,78,-46,-31,19,-73,-68,-97,-78,-58
-78,-68,9,73,-43,-29,19,-73,-63,-97,-78,-63
-78,-68,9,73,-43,-29,19,-73,-63,-102,-78,-63
-78,-73,4,75,-41,-34,24,-73,-63,-102,-78,-58
-73,-63,9,68,-41,-26,24,-82,-53,-102,-78,-58
-68,-63,4,65,-36,-29,19,-82,-53,-102,-82,-58
-63,-63,0,63,-31,-31,19,-82,-48,-102,-82,-58
-68,-63,4,65,-36,-29,14,-92,-48,-102,-82,-58
-63,-73,-9,68,-26,-41,4,-78,-58,-107,-82,-58
-58,-73,-14,65,-21,-43,4,-73,-58,-107,-82,-58
-53,-73,-19,63,-17,-46,9,-68,-58,-107,-78,-58
-48,-68,-19,58,-14,-43,9,-63,-58,-107,-78,-58
-48,-68,-19,58,-14,-43,19,-73,-53,-107,-87,-63
-53,-68,-14,61,-19,-41,19,-68,-53,-107,-87,-63
-53,-68,-14,61,-19,-41,19,-63,-58,-107,-92,-68
-53,-78,-24,65,-14,-51,19,-58,-58,-112,-92,-68
-58,-73,-14,65,-21,-43,29,-68,-58,-102,-87,-53
-63,-73,-9,68,-26,-41,29,-68,-58,-102,-87,-53
-63,-78,-14,70,-24,-46,29,-68,-58,-102,-87,-48
-68,-78,-9,73,-29,-43,29,-68,-58,-102,-87,-43
-68,-68,0,68,-34,-34,34,-63,-68,-102,-87,-53
-63,-68,-4,65,-29,-36,34,-63,-68,-102,-87,-53
-68,-73,-4,70,-31,-39,34,-63,-68,-102,-87,-63
-63,-73,-9,68,-26,-41,39,-63,-73,-102,-87,-63
-68,-73,-4,70,-31,-39,43,-73,-73,-112,-87,-68
-68,-78,-9,73,-29,-43,43,-73,-78,-112,-87,-68
-68,-78,-9,73,-29,-43,48,-68,-78,-112,-87,-68
-68,-78,-9,73,-29,-43,48,-68,-78,-107,-87,-68
-68,-78,-9,73,-29,-43,48,-68,-78,-107,-87,-58
-68,-78,-9,73,-29,-43,48,-68,-78,-112,-87,-58
-68,-78,-9,73,-29,-43,48,-68,-78,-112,-87,-58
-68,-73,-4,70,-31,-39,48,-68,-78,-112,-87,-63
-68,-73,-4,70,-31,-39,39,-58,-73,-102,-87,-73
-68,-68,0,68,-34,-34,39,-58,-73,-102,-87,-73
-68,-68,0,68,-34,-34,34,-58,-73,-102,-87,-73
-68,-68,0,68,-34,-34,34,-53,-73,-102,-87,-68
-68,-68,0,68,-34,-34,43,-53,-63,-102,-87,-63
-68,-68,0,68,-34,-34,43,-53,-63,-102,-87,-63
-63,-68,-4,65,-29,-36,43,-53,-63,-97,-87,-63
-63,-68,-4,65,-29,-36,48,-53,-58,-97,-87,-58
-68,-68,0,68,-34,-34,48,-48,-68,-102,-87,-48
-68,-68,0,68,-34,-34,48,-48,-68,-102,-82,-48
-68,-68,0,68,-34,-34,48,-53,-68,-102,-73,-48
-63,-68,-4,65,-29,-36,48,-53,-68,-102,-63,-53
-58,-68,-9,63,-24,-39,39,-43,-78,-92,-63,-58
-58,-63,-4,61,-26,-34,39,-43,-73,-87,-68,-58
-58,-63,-4,61,-26,-34,39,-43,-73,-87,-68,-58
-58,-63,-4,61,-26,-34,39,-43,-68,-87,-73,-63
-63,-78,-14,70,-24,-46,39,-53,-68,-97,-82,-63
-63,-78,-14,70,-24,-46,39,-53,-68,-97,-87,-63
-63,-73,-9,68,-26,-41,39,-53,-68,-97,-87,-63
-68,-73,-4,70,-31,-39,34,-53,-68,-97,-92,-63
-68,-78,-9,73,-29,-43,43,-53,-68,-87,-97,-63
-68,-87,-19,78,-24,-53,43,-53,-73,-97,-97,-63
-63,-92,-29,78,-17,-61,43,-53,-78,-97,-97,-63
-63,-102,-39,82,-12,-70,43,-48,-78,-97,-97,-63
-63,-102,-39,82,-12,-70,43,-48,-68,-97,-97,-73
-63,-97,-34,80,-14,-65,43,-48,-68,-97,-97,-73
-63,-92,-29,78,-17,-61,43,-48,-68,-97,-97,-73
-63,-97,-34,80,-14,-65,43,-48,-63,-97,-97,-73
-53,-87,-34,70,-9,-61,39,-48,-73,-107,-87,-63
-53,-82,-29,68,-12,-56,34,-48,-78,-107,-87,-68
-53,-78,-24,65,-14,-51,29,-53,-78,-107,-87,-68
-53,-73,-19,63,-17,-46,24,-53,-73,-97,-82,-68
-53,-82,-29,68,-12,-56,19,-39,-68,-87,-73,-53
-53,-82,-29,68,-12,-56,24,-39,-63,-87,-73,-53
-53,-78,-24,65,-14,-51,34,-39,-63,-92,-73,-53
-53,-78,-24,65,-14,-51,39,-39,-63,-97,-73,-53
-48,-78,-29,63,-9,-53,24,-53,-68,-97,-92,-58
-48,-78,-29,63,-9,-53,24,-53,-68,-97,-92,-63
-48,-82,-34,65,-7,-58,24,-53,-68,-97,-87,-68
-48,-82,-34,65,-7,-58,24,-53,-68,-97,-87,-73
-48,-87,-39,68,-4,-63,34,-48,-78,-107,-87,-73
-48,-92,-43,70,-2,-68,34,-43,-78,-107,-87,-73
-48,-97,-48,73,0,-73,39,-39,-78,-107,-87,-73
-48,-102,-53,75,2,-78,39,-39,-87,-107,-87,-73
-39,-87,-48,63,4,-68,24,-39,-82,-102,-92,-68
-39,-87,-48,63,4,-68,24,-43,-82,-102,-92,-68
-39,-92,-53,65,7,-73,24,-43,-73,-102,-92,-63
-39,-92,-53,65,7,-73,14,-39,-73,-102,-92,-63
-39,-87,-48,63,4,-68,9,-43,-73,-102,-97,-73
-39,-82,-43,61,2,-63,9,-48,-73,-102,-97,-73
-39,-87,-48,63,4,-68,4,-53,-73,-102,-102,-73
-39,-73,-34,56,-2,-53,0,-58,-73,-102,-102,-73
-48,-78,-29,63,-9,-53,9,-58,-82,-102,-102,-63
-48,-87,-39,68,-4,-63,9,-58,-82,-107,-102,-68
-48,-92,-43,70,-2,-68,9,-58,-82,-107,-102,-68
-53,-97,-43,75,-4,-70,9,-58,-82,-102,-102,-63
-53,-97,-43,75,-4,-70,19,-58,-82,-112,-102,-73
-53,-97,-43,75,-4,-70,19,-68,-87,-112,-102,-73
-53,-97,-43,75,-4,-70,19,-68,-92,-112,-102,-73
