I,II,III,aVR,aVL,aVF,V1,V2,V3,V4,V5,V6,
-68,-68,0,68,-34,-34,-92,-82,-258,-58,-4,-14
-68,-68,0,68,-34,-34,-92,-82,-258,-58,-4,-14
-68,-68,0,68,-34,-34,-87,-82,-258,-58,0,-14
-63,-68,-4,65,-29,-36,-87,-82,-258,-63,0,-14
-73,-68,4,70,-39,-31,-87,-82,-248,-53,9,-14
-73,-68,4,70,-39,-31,-87,-82,-244,-53,9,-14
-78,-68,9,73,-43,-29,-87,-82,-239,-53,9,-14
-78,-68,9,73,-43,-29,-87,-82,-234,-53,9,-14
-78,-63,14,70,-46,-24,-87,-82,-229,-53,0,-24
-78,-63,14,70,-46,-24,-87,-82,-224,-53,4,-24
-73,-63,9,68,-41,-26,-87,-82,-224,-53,4,-24
-63,-53,9,58,-36,-21,-87,-82,-219,-58,-4,-24
-58,-63,-4,61,-26,-34,-78,-92,-224,-53,-14,-19
-63,-63,0,63,-31,-31,-82,-87,-209,-53,-14,-19
-68,-63,4,65,-36,-29,-82,-82,-195,-53,-14,-19
-78,-63,14,70,-46,-24,-82,-82,-195,-48,-14,-19
-73,-48,24,61,-48,-12,-73,-82,-204,-48,-14,-9
-73,-48,24,61,-48,-12,-73,-78,-195,-48,-14,-9
-68,-43,24,56,-46,-9,-68,-78,-190,-43,-14,-9
-63,-34,29,48,-46,-2,-68,-82,-190,-43,-14,-9
-53,-19,34,36,-43,7,-78,-87,-185,-34,9,4
-53,9,63,21,-58,36,-78,-78,-175,-14,19,14
-34,48,82,-7,-58,65,-82,-68,-141,14,39,39
-19,97,117,-39,-68,107,-102,-68,-102,58,82,68
24,185,161,-104,-68,173,-126,-73,-29,122,122,102
68,258,190,-163,-61,224,-151,-53,58,180,165,131
102,341,239,-222,-68,290,-156,-19,156,253,214,156
161,444,283,-302,-61,363,-170,24,278,346,268,200
253,566,312,-409,-29,439,-165,107,414,448,336,239
361,688,326,-524,17,507,-165,229,551,541,390,278
497,829,331,-663,82,580,-151,385,707,663,458,312
644,990,346,-817,148,668,-141,556,883,780,522,356
775,1151,375,-963,200,763,-151,712,1029,897,595,414
912,1278,366,-1095,273,822,-175,858,1137,976,653,463
1054,1351,297,-1202,378,824,-209,971,1185,1010,678,478
1112,1327,214,-1220,448,771,-200,1058,1137,961,644,448
1088,1112,24,-1100,531,568,-131,1098,941,785,507,351
951,819,-131,-885,541,344,-48,1024,658,546,351,239
780,590,-190,-685,485,200,9,761,409,370,258,190
639,473,-165,-556,402,153,9,478,268,278,200,170
566,375,-190,-470,378,92,-14,297,170,190,146,131
478,263,-214,-370,346,24,-34,122,39,97,82,97
312,136,-175,-224,244,-19,0,-87,-107,14,43,78
131,53,-78,-92,104,-12,63,-258,-200,-43,29,78
-39,-14,24,26,-31,4,141,-341,-214,-73,14,78
-175,-82,92,129,-134,4,248,-341,-200,-73,-14,48
-292,-165,126,229,-209,-19,341,-312,-195,-107,-48,-14
-341,-244,97,292,-219,-73,424,-253,-214,-146,-97,-58
-341,-268,73,305,-207,-97,468,-209,-229,-161,-112,-78
-331,-248,82,290,-207,-82,492,-175,-209,-161,-117,-87
-331,-258,73,295,-202,-92,517,-151,-195,-151,-126,-97
-341,-292,48,317,-195,-122,551,-126,-204,-161,-141,-122
-370,-331,39,351,-204,-146,600,-97,-214,-180,-156,-146
-380,-361,19,370,-200,-170,649,-87,-214,-190,-175,-170
-366,-370,-4,368,-180,-187,683,-63,-229,-200,-185,-180
-366,-370,-4,368,-180,-187,717,-58,-234,-204,-185,-180
-356,-370,-14,363,-170,-192,756,-53,-234,-204,-175,-175
-361,-351,9,356,-185,-170,790,-63,-234,-195,-170,-165
-370,-351,19,361,-195,-165,824,-82,-229,-185,-170,-165
-375,-366,9,370,-192,-178,858,-97,-239,-190,-170,-175
-375,-385,-9,380,-183,-197,922,-92,-244,-200,-180,-185
-380,-405,-24,392,-178,-214,961,-102,-248,-204,-190,-200
-390,-419,-29,405,-180,-224,990,-112,-253,-209,-185,-200
-400,-414,-14,407,-192,-214,995,-131,-263,-214,-195,-200
-405,-419,-14,412,-195,-217,995,-156,-268,-214,-185,-185
-419,-400,19,409,-219,-190,956,-165,-283,-219,-175,-175
-400,-390,9,395,-204,-190,863,-195,-283,-200,-175,-165
-375,-370,4,373,-190,-183,775,-219,-273,-185,-165,-156
-370,-361,9,366,-190,-175,732,-224,-278,-185,-165,-151
-390,-370,19,380,-204,-175,702,-214,-273,-175,-161,-151
-400,-380,19,390,-209,-180,658,-204,-273,-165,-161,-151
-380,-361,19,370,-200,-170,575,-190,-268,-161,-151,-131
-326,-322,4,324,-165,-158,448,-170,-268,-156,-141,-117
-253,-263,-9,258,-122,-136,322,-136,-268,-141,-126,-107
-180,-204,-24,192,-78,-114,219,-97,-244,-126,-107,-82
-136,-165,-29,151,-53,-97,161,-63,-200,-102,-102,-68
-92,-141,-48,117,-21,-95,146,-43,-180,-82,-92,-73
-97,-126,-29,112,-34,-78,136,-24,-165,-68,-87,-63
-107,-122,-14,114,-46,-68,126,-24,-151,-43,-73,-53
-107,-112,-4,109,-51,-58,112,-19,-151,-39,-68,-58
-112,-102,9,107,-61,-46,112,-19,-151,-39,-68,-39
-97,-102,-4,100,-46,-53,102,-29,-156,-48,-78,-48
-82,-92,-9,87,-36,-51,87,-29,-165,-53,-82,-48
-63,-92,-29,78,-17,-61,78,-34,-170,-68,-87,-48
-58,-97,-39,78,-9,-68,73,-39,-180,-73,-92,-48
-63,-92,-29,78,-17,-61,73,-34,-175,-58,-87,-48
-63,-92,-29,78,-17,-61,68,-24,-165,-53,-87,-48
-63,-82,-19,73,-21,-51,58,-19,-156,-39,-87,-48
-58,-73,-14,65,-21,-43,39,-4,-151,-34,-78,-48
-58,-73,-14,65,-21,-43,34,0,-156,-39,-78,-48
-53,-73,-19,63,-17,-46,24,9,-170,-43,-78,-48
-43,-68,-24,56,-9,-46,19,9,-185,-48,-78,-48
-24,-63,-39,43,7,-51,19,9,-190,-63,-82,-48
-14,-63,-48,39,17,-56,19,9,-190,-63,-73,-58
-29,-73,-43,51,7,-58,19,9,-180,-58,-73,-58
-29,-73,-43,51,7,-58,19,9,-175,-48,-68,-58
-9,-63,-53,36,21,-58,9,19,-170,-43,-58,-58
4,-58,-63,26,34,-61,-9,14,-175,-58,-58,-68
9,-58,-68,24,39,-63,-19,14,-175,-63,-58,-68
19,-58,-78,19,48,-68,-19,19,-180,-78,-63,-68
43,-58,-102,7,73,-80,-14,19,-185,-82,-78,-68
43,-68,-112,12,78,-90,-14,19,-180,-73,-78,-82
34,-73,-107,19,70,-90,-14,19,-170,-68,-73,-82
24,-73,-97,24,61,-85,-14,19,-170,-58,-68,-82
24,-73,-97,24,61,-85,-14,19,-165,-53,-63,-82
39,-53,-92,7,65,-73,-14,39,-165,-53,-73,-73
48,-48,-97,0,73,-73,-14,39,-161,-58,-73,-63
48,-48,-97,0,73,-73,-14,39,-156,-63,-68,-63
43,-58,-102,7,73,-80,-14,39,-156,-78,-68,-63
43,-68,-112,12,78,-90,0,48,-146,-68,-68,-73
43,-68,-112,12,78,-90,4,48,-141,-63,-68,-73
43,-68,-112,12,78,-90,9,53,-126,-63,-68,-73
43,-68,-112,12,78,-90,14,58,-112,-53,-63,-73
48,-58,-107,4,78,-82,4,68,-102,-53,-73,-68
53,-53,-107,0,80,-80,4,68,-97,-58,-73,-68
63,-48,-112,-7,87,-80,9,68,-97,-63,-78,-63
78,-43,-122,-17,100,-82,9,68,-97,-78,-78,-63
87,-53,-141,-17,114,-97,29,73,-102,-68,-92,-68
73,-68,-141,-2,107,-104,34,73,-82,-68,-92,-68
73,-68,-141,-2,107,-104,34,78,-68,-68,-87,-68
73,-68,-141,-2,107,-104,34,82,-48,-58,-87,-68
73,-58,-131,-7,102,-95,24,97,-43,-53,-78,-73
68,-53,-122,-7,95,-87,24,107,-39,-53,-73,-73
87,-34,-122,-26,104,-78,24,122,-43,-53,-73,-73
97,-29,-126,-34,112,-78,24,131,-43,-63,-73,-73
97,-19,-117,-39,107,-68,24,141,-48,-53,-73,-78
92,-24,-117,-34,104,-70,34,141,-34,-48,-73,-78
92,-24,-117,-34,104,-70,39,141,-19,-48,-68,-82
92,-19,-112,-36,102,-65,43,146,0,-39,-58,-82
92,-19,-112,-36,102,-65,29,146,9,-29,-43,-73
92,-9,-102,-41,97,-56,19,151,14,-24,-39,-68
92,-4,-97,-43,95,-51,14,156,19,-24,-29,-68
102,0,-102,-51,102,-51,9,161,19,-24,-29,-68
92,0,-92,-46,92,-46,4,151,4,-24,-29,-58
92,-9,-102,-41,97,-56,14,146,0,-24,-29,-58
92,-9,-102,-41,97,-56,19,146,9,-19,-29,-63
92,-9,-102,-41,97,-56,24,156,14,-19,-29,-63
97,4,-92,-51,95,-43,19,151,14,0,-14,-63
97,9,-87,-53,92,-39,19,165,19,4,-4,-63
97,24,-73,-61,85,-24,19,175,24,4,0,-63
102,24,-78,-63,90,-26,19,175,19,4,0,-63
92,19,-73,-56,82,-26,24,170,9,4,-4,-63
97,19,-78,-58,87,-29,39,170,9,4,-14,-63
102,19,-82,-61,92,-31,48,175,14,4,-14,-63
102,19,-82,-61,92,-31,58,185,29,4,-9,-63
97,19,-78,-58,87,-29,68,185,24,29,0,-48
97,24,-73,-61,85,-24,63,190,29,29,9,-48
102,34,-68,-68,85,-17,63,195,29,29,9,-43
107,39,-68,-73,87,-14,73,190,29,29,9,-39
117,43,-73,-80,95,-14,87,185,34,24,14,-48
122,43,-78,-82,100,-17,92,185,29,24,14,-48
126,43,-82,-85,104,-19,102,195,29,24,4,-48
126,43,-82,-85,104,-19,107,200,29,24,4,-53
136,53,-82,-95,109,-14,102,214,39,29,14,-43
126,53,-73,-90,100,-9,107,224,43,39,24,-43
126,63,-63,-95,95,0,107,234,48,43,29,-43
131,73,-58,-102,95,7,107,239,48,43,34,-34
131,68,-63,-100,97,2,117,234,58,43,29,-24
131,68,-63,-100,97,2,122,234,48,43,29,-24
126,68,-58,-97,92,4,136,234,48,43,29,-24
122,68,-53,-95,87,7,146,234,48,53,29,-29
122,78,-43,-100,82,17,141,244,63,68,39,-19
126,87,-39,-107,82,24,151,248,68,73,48,-14
126,92,-34,-109,80,29,156,253,73,78,53,-14
117,97,-19,-107,68,39,161,258,73,82,53,-9
126,92,-34,-109,80,29,165,253,68,73,43,-4
126,92,-34,-109,80,29,170,248,68,68,43,-4
126,92,-34,-109,80,29,180,248,63,68,43,-4
126,92,-34,-109,80,29,195,244,63,68,43,0
136,92,-43,-114,90,24,190,234,68,68,43,0
131,92,-39,-112,85,26,190,234,73,78,43,0
126,92,-34,-109,80,29,190,234,82,82,48,0
126,102,-24,-114,75,39,190,234,82,87,58,0
131,112,-19,-122,75,46,190,224,78,82,58,0
131,112,-19,-122,75,46,195,219,68,73,58,0
131,112,-19,-122,75,46,195,214,58,68,58,0
131,102,-29,-117,80,36,195,200,53,63,58,0
122,112,-9,-117,65,51,190,185,43,73,68,4
122,112,-9,-117,65,51,190,180,48,78,68,4
107,112,4,-109,51,58,180,175,48,87,73,4
97,117,19,-107,39,68,175,165,48,87,73,4
107,117,9,-112,48,63,170,161,34,78,82,9
117,117,0,-117,58,58,161,146,19,78,82,14
117,112,-4,-114,61,53,156,131,14,68,82,14
117,102,-14,-109,65,43,146,126,4,68,82,14
107,112,4,-109,51,58,136,117,14,68,87,14
107,112,4,-109,51,58,126,107,9,73,92,14
107,112,4,-109,51,58,117,97,4,73,102,14
107,112,4,-109,51,58,97,87,4,78,112,19
117,107,-9,-112,63,48,82,78,0,68,117,19
117,107,-9,-112,63,48,68,68,-9,68,117,19
117,107,-9,-112,63,48,63,48,-19,58,117,19
117,97,-19,-107,68,39,53,39,-29,53,117,19
97,82,-14,-90,56,34,34,29,-29,53,122,24
92,68,-24,-80,58,21,24,19,-29,53,122,24
87,68,-19,-78,53,24,14,9,-29,58,122,24
82,68,-14,-75,48,26,4,4,-34,58,122,24
87,58,-29,-73,58,14,-14,-14,-48,39,122,24
92,58,-34,-75,63,12,-19,-24,-63,39,122,24
92,48,-43,-70,68,2,-29,-39,-78,34,117,24
92,39,-53,-65,73,-7,-34,-48,-82,24,112,24
82,29,-53,-56,68,-12,-29,-48,-82,19,97,14
78,29,-48,-53,63,-9,-34,-53,-82,19,92,9
68,14,-53,-41,61,-19,-39,-58,-87,19,92,9
58,4,-53,-31,56,-24,-39,-63,-92,24,92,14
58,14,-43,-36,51,-14,-39,-53,-92,14,82,14
58,14,-43,-36,51,-14,-43,-58,-102,9,82,14
53,9,-43,-31,48,-17,-48,-63,-112,4,82,14
53,0,-53,-26,53,-26,-48,-63,-122,0,73,9
48,-9,-58,-19,53,-34,-43,-58,-112,4,68,9
43,-14,-58,-14,51,-36,-39,-63,-107,4,68,9
24,-19,-43,-2,34,-31,-34,-63,-102,4,68,0
9,-34,-43,12,26,-39,-39,-63,-97,4,68,0
9,-34,-43,12,26,-39,-53,-53,-97,-4,63,0
14,-29,-43,7,29,-36,-53,-53,-97,-4,58,0
19,-29,-48,4,34,-39,-58,-53,-102,-9,53,0
24,-29,-53,2,39,-41,-58,-58,-102,-9,48,0
29,-24,-53,-2,41,-39,-73,-48,-107,-9,48,-9
24,-29,-53,2,39,-41,-78,-48,-112,-9,43,-9
24,-34,-58,4,41,-46,-82,-48,-117,-14,43,-9
24,-34,-58,4,41,-46,-87,-53,-126,-14,43,-19
34,-29,-63,-2,48,-46,-92,-68,-141,-14,34,-19
29,-29,-58,0,43,-43,-97,-68,-146,-14,34,-19
24,-34,-58,4,41,-46,-102,-68,-151,-14,34,-19
19,-34,-53,7,36,-43,-107,-73,-156,-19,34,-19
19,-43,-63,12,41,-53,-117,-87,-161,-19,43,-9
14,-43,-58,14,36,-51,-117,-97,-170,-19,43,-9
9,-48,-58,19,34,-53,-117,-102,-175,-19,43,-9
9,-48,-58,19,34,-53,-117,-107,-180,-19,43,-9
9,-48,-58,19,34,-53,-112,-117,-185,-29,43,-9
9,-48,-58,19,34,-53,-107,-122,-190,-29,43,-14
9,-53,-63,21,36,-58,-102,-131,-200,-29,39,-14
9,-53,-63,21,36,-58,-97,-136,-204,-29,39,-19
0,-63,-63,31,31,-63,-87,-131,-209,-29,29,-19
0,-63,-63,31,31,-63,-87,-131,-214,-34,29,-19
0,-63,-63,31,31,-63,-87,-131,-214,-34,29,-19
0,-63,-63,31,31,-63,-87,-131,-219,-39,24,-24
-4,-68,-63,36,29,-65,-82,-122,-224,-29,19,-24
-4,-68,-63,36,29,-65,-78,-122,-229,-34,19,-24
-4,-68,-63,36,29,-65,-73,-122,-229,-39,14,-24
0,-68,-68,34,34,-68,-68,-122,-234,-39,14,-24
-4,-58,-53,31,24,-56,-63,-122,-224,-29,14,-19
-9,-63,-53,36,21,-58,-63,-117,-229,-29,14,-19
-14,-63,-48,39,17,-56,-63,-117,-234,-29,9,-24
-14,-63,-48,39,17,-56,-63,-112,-239,-29,9,-24
-4,-63,-58,34,26,-61,-63,-107,-239,-34,-4,-14
-9,-63,-53,36,21,-58,-63,-107,-239,-39,-9,-19
-9,-63,-53,36,21,-58,-63,-107,-239,-39,-9,-19
-14,-63,-48,39,17,-56,-63,-107,-239,-39,-9,-19
-19,-53,-34,36,7,-43,-63,-97,-224,-39,-19,-19
-19,-53,-34,36,7,-43,-58,-92,-224,-43,-19,-19
-14,-53,-39,34,12,-46,-53,-92,-224,-43,-19,-24
-14,-53,-39,34,12,-46,-48,-92,-224,-43,-24,-24
0,-53,-53,26,26,-53,-48,-87,-209,-48,-24,-24
0,-53,-53,26,26,-53,-48,-82,-204,-48,-24,-24
0,-53,-53,26,26,-53,-48,-78,-200,-48,-24,-24
0,-53,-53,26,26,-53,-48,-73,-195,-48,-24,-29
4,-53,-58,24,31,-56,-53,-73,-185,-43,-19,-19
4,-53,-58,24,31,-56,-53,-68,-185,-43,-14,-19
4,-53,-58,24,31,-56,-53,-63,-185,-43,-9,-19
4,-58,-63,26,34,-61,-53,-58,-180,-43,-4,-19
4,-48,-53,21,29,-51,-53,-48,-170,-43,4,-19
4,-48,-53,21,29,-51,-53,-48,-170,-43,4,-19
9,-48,-58,19,34,-53,-58,-48,-170,-48,4,-19
9,-48,-58,19,34,-53,-58,-48,-165,-48,4,-24
0,-43,-43,21,21,-43,-68,-39,-156,-39,4,-24
0,-43,-43,21,21,-43,-68,-39,-146,-39,4,-24
0,-43,-43,21,21,-43,-68,-39,-141,-39,4,-24
0,-43,-43,21,21,-43,-68,-39,-141,-39,4,-24
-9,-34,-24,21,7,-29,-68,-39,-136,-39,9,-14
-9,-34,-24,21,7,-29,-68,-39,-131,-39,9,-14
-4,-34,-29,19,12,-31,-68,-39,-122,-39,4,-14
-4,-34,-29,19,12,-31,-68,-39,-117,-39,4,-14
-9,-29,-19,19,4,-24,-63,-48,-97,-29,4,-14
-14,-29,-14,21,0,-21,-63,-43,-87,-29,4,-14
-24,-24,0,24,-12,-12,-63,-43,-73,-24,4,-14
-29,-24,4,26,-17,-9,-63,-43,-58,-24,4,-9
-29,-24,4,26,-17,-9,-63,-43,-39,-24,0,0
-29,-24,4,26,-17,-9,-63,-39,-24,-24,-4,0
-29,-29,0,29,-14,-14,-63,-39,-9,-24,-9,0
-29,-29,0,29,-14,-14,-63,-39,9,-19,-14,0
-29,-29,0,29,-14,-14,-63,-34,43,-24,-24,0
-29,-29,0,29,-14,-14,-63,-34,63,-24,-19,0
-34,-29,4,31,-19,-12,-63,-34,87,-24,-19,0
-34,-24,9,29,-21,-7,-63,-29,107,-24,-14,0
-43,-24,19,34,-31,-2,-53,-19,141,-14,-14,9
-43,-24,19,34,-31,-2,-53,-19,161,-14,-14,9
-43,-24,19,34,-31,-2,-53,-19,185,-9,-14,9
-43,-24,19,34,-31,-2,-53,-14,209,-9,-9,9
-43,-34,9,39,-26,-12,-43,-24,229,-19,4,9
-43,-29,14,36,-29,-7,-43,-24,253,-19,4,9
-43,-29,14,36,-29,-7,-43,-24,278,-19,4,14
-43,-29,14,36,-29,-7,-43,-24,302,-19,9,14
-34,-29,4,31,-19,-12,-43,-34,317,-24,9,14
-29,-29,0,29,-14,-14,-43,-34,331,-24,9,14
-29,-29,0,29,-14,-14,-43,-34,341,-24,9,14
-29,-24,4,26,-17,-9,-43,-34,361,-24,14,14
-19,-24,-4,21,-7,-14,-53,-19,370,-29,14,4
-19,-24,-4,21,-7,-14,-53,-19,390,-34,14,4
-19,-24,-4,21,-7,-14,-53,-19,414,-34,14,4
-19,-24,-4,21,-7,-14,-53,-14,439,-39,14,4
-4,-19,-14,12,4,-17,-68,-9,448,-29,14,0
-4,-14,-9,9,2,-12,-68,-4,453,-29,14,0
-4,-9,-4,7,0,-7,-68,0,453,-29,14,0
-4,-4,0,4,-2,-2,-68,4,453,-29,14,0
-4,0,4,2,-4,2,-78,9,468,-24,24,-9
-4,4,9,0,-7,7,-78,14,453,-19,24,-9
-4,9,14,-2,-9,12,-78,19,429,-14,24,-9
-4,14,19,-4,-12,17,-78,24,405,-9,24,-9
-9,14,24,-2,-17,19,-82,19,395,-4,24,-19
-9,14,24,-2,-17,19,-82,19,385,0,29,-19
-14,14,29,0,-21,21,-82,19,370,0,34,-19
-19,19,39,0,-29,29,-87,14,361,4,39,-19
-14,19,34,-2,-24,26,-97,9,351,4,48,-19
-9,19,29,-4,-19,24,-97,4,336,4,48,-19
-4,19,24,-7,-14,21,-97,0,331,9,48,-19
0,19,19,-9,-9,19,-97,-4,331,9,48,-19
0,9,9,-4,-4,9,-92,-19,307,-4,58,-19
0,9,9,-4,-4,9,-92,-19,292,-4,58,-19
0,9,9,-4,-4,9,-92,-19,278,-4,58,-19
0,9,9,-4,-4,9,-92,-24,263,-9,58,-14
0,9,9,-4,-4,9,-102,-29,248,-9,48,-14
0,9,9,-4,-4,9,-102,-34,234,-9,48,-14
0,4,4,-2,-2,4,-102,-39,224,-9,53,-14
-4,4,9,0,-7,7,-102,-43,214,-9,53,-14
-9,0,9,4,-9,4,-102,-53,209,-19,43,-4
-14,-4,9,9,-12,2,-107,-53,204,-19,43,-4
-19,-9,9,14,-14,0,-107,-53,204,-19,43,0
-24,-14,9,19,-17,-2,-107,-53,200,-19,43,0
-29,-14,14,21,-21,0,-97,-58,209,-19,43,0
-34,-14,19,24,-26,2,-97,-63,214,-19,43,0
-39,-14,24,26,-31,4,-97,-68,219,-19,43,-4
-43,-14,29,29,-36,7,-97,-73,224,-19,43,-4
-48,-14,34,31,-41,9,-87,-73,214,-19,43,-4
-48,-19,29,34,-39,4,-87,-73,209,-19,43,-4
-48,-19,29,34,-39,4,-87,-73,204,-19,43,-4
-48,-19,29,34,-39,4,-87,-82,200,-19,43,-4
-48,-19,29,34,-39,4,-82,-73,175,-19,34,-9
-48,-19,29,34,-39,4,-82,-73,156,-19,34,-14
-48,-19,29,34,-39,4,-82,-78,136,-19,34,-19
-48,-19,29,34,-39,4,-82,-78,117,-19,29,-24
-39,-19,19,29,-29,0,-82,-82,92,-19,29,-29
-39,-19,19,29,-29,0,-82,-82,78,-19,29,-29
-39,-19,19,29,-29,0,-82,-82,53,-19,24,-29
-39,-19,19,29,-29,0,-82,-82,39,-19,19,-29
-24,-19,4,21,-14,-7,-82,-73,53,-14,29,-29
-24,-19,4,21,-14,-7,-82,-73,58,-19,29,-34
-24,-19,4,21,-14,-7,-82,-73,68,-4,29,-34
-24,-19,4,21,-14,-7,-82,-73,73,0,24,-34
-34,-19,14,26,-24,-2,-82,-63,117,0,24,-34
-34,-14,19,24,-26,2,-87,-63,151,0,19,-34
-34,-14,19,24,-26,2,-87,-63,185,0,19,-34
-34,-14,19,24,-26,2,-87,-63,219,0,19,-34
-34,-14,19,24,-26,2,-87,-53,258,0,19,-34
-34,-14,19,24,-26,2,-87,-53,297,-4,9,-34
-34,-14,19,24,-26,2,-87,-53,336,-4,9,-34
-39,-14,24,26,-31,4,-87,-53,375,-4,9,-34
-34,-24,9,29,-21,-7,-97,-63,409,-14,-4,-34
-34,-19,14,26,-24,-2,-97,-63,439,-14,-9,-34
-34,-19,14,26,-24,-2,-92,-63,463,-14,-14,-34
-34,-19,14,26,-24,-2,-92,-63,488,-14,-19,-34
-24,-19,4,21,-14,-7,-107,-73,507,-14,-34,-24
-24,-19,4,21,-14,-7,-107,-73,522,-19,-34,-24
-29,-19,9,24,-19,-4,-107,-73,527,-19,-34,-24
-29,-19,9,24,-19,-4,-107,-73,531,-14,-39,-24
-19,-9,9,14,-14,0,-117,-82,536,-14,-48,-19
-19,-14,4,17,-12,-4,-112,-82,541,-14,-48,-19
-24,-14,9,19,-17,-2,-112,-82,546,-14,-48,-19
-24,-14,9,19,-17,-2,-112,-82,551,-14,-48,-19
-24,-24,0,24,-12,-12,-112,-92,566,-14,-58,-9
-24,-24,0,24,-12,-12,-112,-92,566,-14,-58,-9
-24,-24,0,24,-12,-12,-112,-97,570,-14,-58,-9
-34,-24,9,29,-21,-7,-112,-97,575,-14,-58,-9
-39,-24,14,31,-26,-4,-102,-107,575,-14,-58,0
-39,-24,14,31,-26,-4,-102,-102,580,-19,-58,4
-43,-24,19,34,-31,-2,-102,-102,585,-19,-58,4
-43,-24,19,34,-31,-2,-102,-102,590,-24,-58,4
-43,-34,9,39,-26,-12,-107,-107,580,-34,-58,-4
-39,-34,4,36,-21,-14,-107,-107,585,-34,-58,-4
-34,-34,0,34,-17,-17,-107,-107,585,-34,-58,-4
-29,-34,-4,31,-12,-19,-107,-107,585,-34,-58,-4
-24,-34,-9,29,-7,-21,-107,-107,566,-39,-68,-9
-19,-34,-14,26,-2,-24,-107,-107,561,-39,-63,-14
-19,-34,-14,26,-2,-24,-107,-107,551,-39,-63,-19
-14,-34,-19,24,2,-26,-107,-107,531,-39,-63,-24
-9,-34,-24,21,7,-29,-97,-97,512,-48,-73,-24
-4,-34,-29,19,12,-31,-97,-97,502,-48,-78,-24
-4,-34,-29,19,12,-31,-97,-97,492,-48,-78,-24
0,-34,-34,17,17,-34,-97,-97,478,-48,-78,-24
0,-24,-24,12,12,-24,-87,-87,458,-39,-68,-24
-4,-24,-19,14,7,-21,-87,-87,439,-39,-68,-29
-9,-24,-14,17,2,-19,-87,-78,429,-29,-73,-29
-14,-24,-9,19,-2,-17,-87,-78,414,-34,-73,-29
-9,-29,-19,19,4,-24,-87,-78,400,-29,-68,-19
-9,-29,-19,19,4,-24,-87,-78,385,-19,-78,-19
-9,-29,-19,19,4,-24,-87,-78,380,-19,-78,-19
-9,-29,-19,19,4,-24,-87,-78,375,-19,-78,-19
-9,-29,-19,19,4,-24,-87,-78,370,-19,-78,-19
0,-29,-29,14,14,-29,-87,-78,351,-9,-78,-19
0,-29,-29,14,14,-29,-87,-78,341,-9,-78,-19
0,-29,-29,14,14,-29,-87,-78,331,-9,-78,-19
0,-29,-29,14,14,-29,-87,-78,322,-9,-78,-19
0,-29,-29,14,14,-29,-87,-78,312,-9,-68,-19
0,-29,-29,14,14,-29,-87,-78,302,-9,-68,-19
0,-29,-29,14,14,-29,-87,-78,292,-9,-68,-19
0,-29,-29,14,14,-29,-87,-78,283,-9,-68,-19
-9,-29,-19,19,4,-24,-87,-68,268,-19,-78,-19
-9,-29,-19,19,4,-24,-87,-68,263,-19,-78,-19
-9,-29,-19,19,4,-24,-87,-68,258,-19,-78,-19
-9,-29,-19,19,4,-24,-87,-68,253,-19,-78,-19
-14,-39,-24,26,4,-31,-87,-58,248,-19,-78,-19
-19,-39,-19,29,0,-29,-87,-58,244,-19,-78,-19
-24,-39,-14,31,-4,-26,-87,-58,239,-19,-78,-19
-29,-39,-9,34,-9,-24,-87,-58,234,-19,-78,-19
-34,-39,-4,36,-14,-21,-87,-48,234,-19,-87,-19
-39,-39,0,39,-19,-19,-87,-48,234,-19,-87,-19
-43,-39,4,41,-24,-17,-87,-48,234,-19,-87,-19
-48,-39,9,43,-29,-14,-87,-48,234,-19,-87,-19
-53,-29,24,41,-39,-2,-87,-58,244,-14,-78,-9
-58,-29,29,43,-43,0,-87,-58,244,-9,-78,-9
-63,-29,34,46,-48,2,-87,-58,244,-4,-78,-9
-68,-29,39,48,-53,4,-87,-58,244,0,-78,-9
-68,-29,39,48,-53,4,-78,-58,244,0,-78,0
-68,-29,39,48,-53,4,-78,-58,244,0,-78,0
-68,-29,39,48,-53,4,-78,-58,244,0,-78,0
-68,-29,39,48,-53,4,-78,-58,244,0,-78,0
-78,-29,48,53,-63,9,-78,-58,244,0,-73,0
-78,-29,48,53,-63,9,-78,-58,244,0,-68,0
-78,-29,48,53,-63,9,-78,-58,244,0,-63,0
-78,-29,48,53,-63,9,-78,-58,244,0,-58,0
-87,-29,58,58,-73,14,-68,-58,234,9,-48,9
-87,-29,58,58,-73,14,-68,-58,234,9,-48,9
-87,-29,58,58,-73,14,-68,-58,234,9,-48,9
-87,-29,58,58,-73,14,-68,-58,234,9,-48,9
-87,-29,58,58,-73,14,-68,-58,229,9,-48,9
-87,-29,58,58,-73,14,-68,-58,224,9,-48,9
-87,-29,58,58,-73,14,-68,-58,219,9,-48,9
-87,-29,58,58,-73,14,-68,-58,214,9,-48,9
-97,-29,68,63,-82,19,-58,-48,204,9,-39,0
-97,-29,68,63,-82,19,-58,-48,195,9,-39,0
-97,-29,68,63,-82,19,-58,-48,185,9,-39,0
-97,-29,68,63,-82,19,-58,-48,175,9,-39,0
-87,-29,58,58,-73,14,-58,-39,161,0,-39,0
-87,-29,58,58,-73,14,-58,-39,156,0,-39,0
-87,-29,58,58,-73,14,-58,-39,151,0,-39,0
-87,-29,58,58,-73,14,-58,-39,146,0,-39,0
-87,-29,58,58,-73,14,-48,-39,141,0,-29,9
-87,-29,58,58,-73,14,-48,-39,136,0,-29,9
-87,-29,58,58,-73,14,-48,-39,131,0,-29,9
-87,-29,58,58,-73,14,-48,-39,126,0,-29,9
-78,-19,58,48,-68,19,-58,-39,126,4,-19,19
-78,-19,58,48,-68,19,-58,-39,126,9,-19,19
-78,-19,58,48,-68,19,-58,-39,126,14,-19,19
-78,-19,58,48,-68,19,-58,-39,126,19,-19,19
-87,-19,68,53,-78,24,-58,-48,131,19,-19,19
-87,-19,68,53,-78,24,-58,-48,136,19,-19,19
-87,-19,68,53,-78,24,-58,-48,141,19,-19,19
-87,-19,68,53,-78,24,-58,-48,146,19,-19,19
-87,-19,68,53,-78,24,-58,-58,161,19,-29,19
-87,-19,68,53,-78,24,-58,-58,165,19,-29,19
-87,-19,68,53,-78,24,-58,-58,170,19,-29,19
-87,-19,68,53,-78,24,-58,-58,175,19,-29,19
-87,-19,68,53,-78,24,-58,-58,190,19,-29,19
-87,-19,68,53,-78,24,-58,-58,195,19,-29,19
-87,-19,68,53,-78,24,-58,-58,200,19,-29,19
-87,-19,68,53,-78,24,-58,-58,204,19,-29,19
-87,-9,78,48,-82,34,-48,-48,204,9,-29,19
-87,-9,78,48,-82,34,-48,-48,204,9,-29,19
-87,-9,78,48,-82,34,-48,-48,204,9,-29,19
-87,-9,78,48,-82,34,-48,-48,204,9,-29,19
-82,-9,73,46,-78,31,-58,-58,195,9,-29,19
-78,-9,68,43,-73,29,-58,-58,185,9,-29,19
-73,-9,63,41,-68,26,-58,-58,175,9,-29,19
-68,-9,58,39,-63,24,-58,-58,165,9,-29,19
-68,0,68,34,-68,34,-58,-58,156,9,-19,19
-68,0,68,34,-68,34,-58,-58,146,9,-19,19
-68,0,68,34,-68,34,-58,-58,136,9,-19,19
-68,0,68,34,-68,34,-58,-58,126,9,-19,19
-58,0,58,29,-58,29,-68,-58,122,9,-9,9
-58,0,58,29,-58,29,-68,-58,117,9,-9,9
-58,0,58,29,-58,29,-68,-58,112,9,-9,9
-58,0,58,29,-58,29,-68,-58,107,9,-9,9
-68,0,68,34,-68,34,-78,-53,117,19,0,9
-68,0,68,34,-68,34,-78,-48,117,19,0,9
-68,0,68,34,-68,34,-78,-43,117,19,0,9
-78,0,78,39,-78,39,-78,-39,117,19,0,9
-68,0,68,34,-68,34,-78,-29,126,24,0,9
-68,4,73,31,-70,39,-78,-29,131,24,4,9
-63,4,68,29,-65,36,-78,-29,141,24,4,9
-63,9,73,26,-68,41,-78,-29,151,24,4,9
-73,0,73,36,-73,36,-78,-34,165,39,-4,9
-68,0,68,34,-68,34,-78,-34,165,39,0,14
-58,14,73,21,-65,43,-73,-29,170,39,0,14
-58,19,78,19,-68,48,-73,-29,175,39,0,14
-63,14,78,24,-70,46,-73,-39,175,43,4,19
-58,19,78,19,-68,48,-63,-39,170,48,9,19
-58,24,82,17,-70,53,-58,-39,170,48,9,24
-48,29,78,9,-63,53,-58,-39,165,53,14,24
-58,34,92,12,-75,63,-43,-39,156,68,14,29
-58,39,97,9,-78,68,-43,-39,141,68,19,29
-58,43,102,7,-80,73,-43,-34,136,73,19,29
-58,43,102,7,-80,73,-43,-34,126,73,19,29
-58,53,112,2,-85,82,-34,-43,112,73,19,39
-58,53,112,2,-85,82,-34,-43,97,73,24,43
-58,53,112,2,-85,82,-39,-39,87,73,24,43
-58,53,112,2,-85,82,-43,-39,82,73,24,43
-58,53,112,2,-85,82,-43,-43,68,73,24,53
-48,58,107,-4,-78,82,-48,-43,58,73,24,53
-48,63,112,-7,-80,87,-58,-43,53,73,24,53
-39,68,107,-14,-73,87,-68,-53,39,78,24,58
-43,73,117,-14,-80,95,-78,-63,9,87,39,58
-43,78,122,-17,-82,100,-87,-63,-4,87,39,58
-39,78,117,-19,-78,97,-97,-68,-19,87,43,58
-39,78,117,-19,-78,97,-107,-73,-39,87,43,63
-48,78,126,-14,-87,102,-117,-82,-63,78,53,73
-48,78,126,-14,-87,102,-126,-87,-82,78,53,73
-43,82,126,-19,-85,104,-126,-97,-112,78,53,78
-43,82,126,-19,-85,104,-131,-102,-126,78,53,78
-43,92,136,-24,-90,114,-146,-102,-156,78,53,78
-43,92,136,-24,-90,114,-146,-102,-185,78,53,78
-43,92,136,-24,-90,114,-146,-102,-200,78,58,78
-43,92,136,-24,-90,114,-146,-102,-219,73,58,78
-48,82,131,-17,-90,107,-136,-92,-244,78,63,78
-43,82,126,-19,-85,104,-136,-92,-258,73,63,78
-43,78,122,-17,-82,100,-136,-87,-273,73,63,73
-34,78,112,-21,-73,95,-136,-87,-292,73,58,73
-34,73,107,-19,-70,90,-136,-78,-317,63,63,68
-29,68,97,-19,-63,82,-131,-78,-331,63,63,68
-29,63,92,-17,-61,78,-131,-73,-346,58,58,68
-29,63,92,-17,-61,78,-131,-73,-356,58,58,68
-34,58,92,-12,-63,75,-131,-82,-375,68,58,63
-39,53,92,-7,-65,73,-126,-82,-380,68,53,63
-43,43,87,0,-65,65,-122,-78,-390,63,53,53
-58,43,102,7,-80,73,-117,-78,-395,63,48,53
-68,29,97,19,-82,63,-112,-78,-405,48,43,53
-82,19,102,31,-92,61,-107,-82,-414,48,43,48
-87,9,97,39,-92,53,-102,-87,-429,39,39,48
-102,0,102,51,-102,51,-97,-87,-439,39,34,43
-107,-9,97,58,-102,43,-92,-92,-448,34,19,39
-107,-14,92,61,-100,39,-87,-92,-463,34,14,34
-107,-24,82,65,-95,29,-82,-92,-478,29,14,34
-122,-29,92,75,-107,31,-78,-92,-488,24,9,29
-122,-48,73,85,-97,12,-68,-102,-512,9,0,24
-126,-48,78,87,-102,14,-68,-107,-527,9,-9,19
-126,-53,73,90,-100,9,-68,-107,-541,4,-19,14
-126,-58,68,92,-97,4,-68,-107,-551,0,-29,9
-131,-63,68,97,-100,2,-68,-117,-570,4,-39,9
-126,-68,58,97,-92,-4,-68,-117,-580,4,-43,9
-122,-68,53,95,-87,-7,-68,-117,-595,0,-43,9
-112,-68,43,90,-78,-12,-68,-117,-605,0,-43,9
-112,-68,43,90,-78,-12,-63,-126,-624,-4,-43,9
-112,-68,43,90,-78,-12,-63,-122,-634,-4,-43,9
-112,-68,43,90,-78,-12,-63,-122,-644,-4,-43,9
-107,-68,39,87,-73,-14,-63,-122,-629,-9,-43,4
-107,-68,39,87,-73,-14,-63,-112,-629,-9,-43,14
-107,-68,39,87,-73,-14,-58,-112,-629,-9,-39,14
-102,-68,34,85,-68,-17,-58,-112,-629,-14,-39,14
-102,-68,34,85,-68,-17,-58,-112,-629,-14,-39,14
-92,-68,24,80,-58,-21,-68,-102,-605,-14,-39,14
-97,-68,29,82,-63,-19,-68,-102,-590,-14,-39,14
-97,-68,29,82,-63,-19,-68,-102,-575,-14,-39,14
-97,-73,24,85,-61,-24,-68,-102,-566,-14,-39,14
-97,-73,24,85,-61,-24,-68,-92,-541,-24,-24,14
-92,-73,19,82,-56,-26,-68,-92,-522,-24,-24,14
-82,-63,19,73,-51,-21,-68,-92,-497,-29,-34,14
-73,-63,9,68,-41,-26,-68,-92,-468,-34,-34,9
-82,-63,19,73,-51,-21,-63,-87,-424,-34,-29,19
-82,-63,19,73,-51,-21,-63,-82,-390,-34,-24,19
-87,-63,24,75,-56,-19,-63,-82,-370,-29,-19,19
-87,-58,29,73,-58,-14,-63,-82,-351,-29,-14,19
-92,-58,34,75,-63,-12,-53,-78,-292,-29,-4,19
-92,-53,39,73,-65,-7,-48,-78,-258,-34,4,19
-82,-53,29,68,-56,-12,-48,-73,-239,-43,4,9
-73,-58,14,65,-43,-21,-48,-78,-224,-43,0,14
-73,-48,24,61,-48,-12,-58,-87,-195,-34,9,24
-63,-29,34,46,-48,2,-63,-78,-161,-24,19,29
-48,0,48,24,-48,24,-73,-68,-122,0,34,39
-24,48,73,-12,-48,61,-87,-63,-58,34,53,73
19,122,102,-70,-41,112,-122,-53,29,82,97,102
63,175,112,-119,-24,143,-146,-29,107,136,117,117
112,248,136,-180,-12,192,-170,14,200,190,161,131
185,341,156,-263,14,248,-175,68,317,273,200,161
283,453,170,-368,56,312,-185,161,444,356,253,209
390,566,175,-478,107,370,-180,307,570,448,302,234
556,717,161,-636,197,439,-180,497,727,556,356,268
717,878,161,-797,278,519,-190,683,893,673,419,307
854,1024,170,-939,341,597,-204,868,1039,771,478,346
1005,1146,141,-1076,431,644,-239,1029,1137,863,522,380
1161,1229,68,-1195,546,649,-268,1176,1176,883,546,390
1234,1200,-34,-1217,634,583,-258,1273,1127,844,507,370
1215,1005,-209,-1110,712,397,-185,1327,941,673,380,268
1102,727,-375,-915,739,175,-107,1259,663,448,229,161
932,502,-429,-717,680,36,-58,995,424,268,131,112
780,385,-395,-583,588,-4,-53,707,307,180,97,102
702,302,-400,-502,551,-48,-73,502,234,107,53,68
595,204,-390,-400,492,-92,-78,322,126,24,-4,39
414,73,-341,-244,378,-134,-53,102,4,-53,-39,19
204,-14,-219,-95,212,-117,24,-87,-87,-92,-43,19
48,-63,-112,7,80,-87,102,-185,-92,-112,-43,19
-117,-117,0,117,-58,-58,214,-214,-48,-107,-48,4
-253,-195,58,224,-156,-68,307,-185,-39,-126,-78,-39
-312,-258,53,285,-183,-102,390,-151,-53,-141,-112,-78
-322,-278,43,300,-183,-117,434,-107,-63,-161,-136,-97
-322,-268,53,295,-187,-107,458,-82,-39,-151,-136,-97
-331,-273,58,302,-195,-107,483,-58,-29,-141,-131,-112
-331,-292,39,312,-185,-126,502,-39,-48,-151,-146,-136
-351,-331,19,341,-185,-156,551,-9,-68,-170,-156,-161
-366,-351,14,358,-190,-168,605,4,-82,-170,-175,-170
-356,-361,-4,358,-175,-183,639,19,-97,-185,-165,-180
-356,-351,4,353,-180,-173,668,24,-117,-185,-165,-165
-351,-351,0,351,-175,-175,712,34,-136,-175,-170,-165
-361,-341,19,351,-190,-161,746,24,-151,-175,-161,-156
-375,-346,29,361,-202,-158,780,19,-170,-170,-161,-156
-385,-366,19,375,-202,-173,834,4,-195,-170,-161,-165
-390,-385,4,387,-197,-190,912,-4,-229,-185,-170,-170
-419,-409,9,414,-214,-200,980,-14,-253,-190,-175,-180
-429,-414,14,422,-222,-200,1024,-24,-273,-195,-185,-190
-434,-419,14,427,-224,-202,1044,-48,-297,-195,-185,-185
-448,-419,29,434,-239,-195,1054,-78,-322,-200,-185,-165
-458,-409,48,434,-253,-180,1029,-107,-351,-209,-185,-165
-444,-400,43,422,-244,-178,961,-141,-370,-204,-185,-146
-439,-400,39,419,-239,-180,897,-165,-375,-195,-175,-141
-439,-390,48,414,-244,-170,858,-185,-390,-185,-170,-141
-448,-390,58,419,-253,-165,844,-185,-400,-175,-170,-141
-448,-400,48,424,-248,-175,790,-190,-405,-161,-170,-141
-424,-370,53,397,-239,-158,692,-190,-424,-165,-161,-136
-361,-341,19,351,-190,-161,556,-165,-424,-151,-156,-117
-297,-292,4,295,-151,-143,424,-136,-429,-136,-146,-102
-234,-234,0,234,-117,-117,307,-102,-405,-122,-131,-78
-180,-190,-9,185,-85,-100,244,-63,-385,-92,-122,-63
-146,-156,-9,151,-68,-82,214,-34,-370,-78,-97,-63
-136,-131,4,134,-70,-63,185,-24,-356,-63,-82,-53
-126,-122,4,124,-65,-58,161,-19,-346,-48,-78,-48
-122,-112,9,117,-65,-51,131,-9,-356,-39,-68,-48
-107,-102,4,104,-56,-48,112,-9,-361,-48,-68,-39
-92,-92,0,92,-46,-46,97,-9,-370,-53,-73,-39
-73,-92,-19,82,-26,-56,87,-14,-375,-68,-78,-39
-68,-97,-29,82,-19,-63,82,-19,-385,-73,-82,-39
-68,-102,-34,85,-17,-68,73,-29,-385,-63,-78,-58
-63,-102,-39,82,-12,-70,68,-24,-380,-63,-78,-58
-58,-92,-34,75,-12,-63,58,-24,-375,-53,-78,-58
-48,-82,-34,65,-7,-58,39,-14,-375,-53,-68,-58
-29,-78,-48,53,9,-63,24,-9,-366,-43,-68,-58
-24,-73,-48,48,12,-61,14,0,-375,-43,-68,-58
-14,-63,-48,39,17,-56,9,0,-385,-43,-68,-58
4,-53,-58,24,31,-56,9,0,-385,-53,-73,-58
4,-53,-58,24,31,-56,19,0,-380,-43,-63,-58
-9,-63,-53,36,21,-58,19,0,-366,-39,-63,-58
-9,-63,-53,36,21,-58,19,0,-356,-29,-58,-58
9,-53,-63,21,36,-58,9,9,-346,-24,-48,-58
9,-48,-58,19,34,-53,-9,14,-336,-14,-39,-58
9,-48,-58,19,34,-53,-19,14,-331,-14,-29,-58
14,-48,-63,17,39,-56,-19,19,-331,-24,-24,-58
34,-48,-82,7,58,-65,-14,19,-331,-24,-29,-58
24,-58,-82,17,53,-70,-4,9,-317,-14,-19,-53
14,-63,-78,24,46,-70,-4,9,-297,-9,-14,-53
4,-63,-68,29,36,-65,-4,9,-287,0,-9,-53
4,-63,-68,29,36,-65,-4,9,-273,4,-4,-53
0,-53,-53,26,26,-53,-4,24,-248,9,4,-53
9,-48,-58,19,34,-53,-4,29,-239,9,4,-43
9,-48,-58,19,34,-53,-4,34,-229,9,9,-43
4,-58,-63,26,34,-61,-4,39,-224,0,9,-43
-4,-68,-63,36,29,-65,14,48,-209,0,-4,-43
-4,-68,-63,36,29,-65,14,48,-200,4,-9,-43
-4,-68,-63,36,29,-65,14,53,-180,4,-14,-43
-4,-68,-63,36,29,-65,14,58,-161,14,-14,-43
-14,-58,-43,36,14,-51,4,73,-131,29,-14,-39
-14,-53,-39,34,12,-46,4,78,-117,29,-14,-39
-9,-48,-39,29,14,-43,9,82,-107,29,-19,-34
0,-43,-43,21,21,-43,9,87,-97,19,-19,-34
9,-43,-53,17,31,-48,9,87,-92,19,-24,-29
-4,-58,-53,31,24,-56,14,82,-73,19,-24,-29
-4,-58,-53,31,24,-56,14,82,-58,19,-19,-29
-4,-58,-53,31,24,-56,14,82,-39,29,-19,-29
-9,-43,-34,26,12,-39,4,82,-19,53,-9,-24
-19,-43,-24,31,2,-34,4,87,-9,53,-4,-24
-4,-29,-24,17,9,-26,4,97,-9,53,-4,-24
0,-29,-29,14,14,-29,4,102,-4,43,-4,-24
0,-39,-39,19,19,-39,4,102,-14,34,-14,-19
-4,-43,-39,24,17,-41,14,102,-4,39,-14,-19
-4,-43,-39,24,17,-41,19,102,4,39,-9,-24
-4,-39,-34,21,14,-36,24,107,19,48,0,-24
-4,-48,-43,26,19,-46,34,107,24,48,4,-34
-4,-39,-34,21,14,-36,29,112,34,53,9,-29
-4,-34,-29,19,12,-31,29,117,43,53,19,-29
4,-29,-34,12,19,-31,29,122,48,53,19,-29
4,-29,-34,12,19,-31,34,122,39,39,19,-29
4,-39,-43,17,24,-41,43,117,29,34,19,-29
4,-39,-43,17,24,-41,48,117,34,34,19,-34
4,-39,-43,17,24,-41,53,126,34,29,19,-34
9,-24,-34,7,21,-29,58,141,43,39,14,-34
9,-19,-29,4,19,-24,58,156,48,43,24,-34
9,-4,-14,-2,12,-9,58,165,53,43,29,-34
14,-4,-19,-4,17,-12,58,165,48,43,29,-34
14,0,-14,-7,14,-7,48,170,34,43,24,-34
19,0,-19,-9,19,-9,58,170,29,43,14,-34
24,0,-24,-12,24,-12,63,175,29,43,14,-34
24,0,-24,-12,24,-12,68,185,39,43,19,-34
19,9,-9,-14,14,0,68,195,39,58,19,-29
19,14,-4,-17,12,4,63,209,39,58,29,-29
24,24,0,-24,12,12,63,224,34,58,29,-24
29,29,0,-29,14,14,73,229,29,58,29,-19
39,24,-14,-31,26,4,87,234,14,53,34,-19
43,24,-19,-34,31,2,92,234,0,53,34,-19
48,24,-24,-36,36,0,102,244,-9,53,24,-19
48,24,-24,-36,36,0,107,248,-19,53,24,-24
48,24,-24,-36,36,0,102,244,-24,48,29,-24
39,24,-14,-31,26,4,107,253,-24,58,34,-24
39,34,-4,-36,21,14,107,263,-24,63,34,-24
43,43,0,-43,21,21,107,268,-29,63,34,-14
53,48,-4,-51,29,21,117,263,-43,63,39,-4
53,48,-4,-51,29,21,122,263,-58,63,39,-4
48,48,0,-48,24,24,136,263,-63,63,39,-4
43,48,4,-46,19,26,146,263,-68,73,39,-9
43,58,14,-51,14,36,141,283,-73,78,39,0
48,68,19,-58,14,43,151,287,-68,82,48,4
48,73,24,-61,12,48,156,292,-63,87,53,4
39,78,39,-58,0,58,161,297,-63,92,53,9
48,82,34,-65,7,58,165,297,-73,102,53,14
48,82,34,-65,7,58,170,297,-78,97,53,14
48,82,34,-65,7,58,180,302,-87,97,53,14
48,82,34,-65,7,58,195,302,-92,97,53,19
58,82,24,-70,17,53,209,312,-102,97,43,19
53,82,29,-68,12,56,209,312,-102,107,43,19
48,82,34,-65,7,58,209,312,-97,112,48,19
48,92,43,-70,2,68,209,312,-102,117,58,19
53,92,39,-73,7,65,219,312,-117,107,58,29
53,92,39,-73,7,65,224,307,-126,102,58,29
53,92,39,-73,7,65,224,302,-136,102,58,29
53,82,29,-68,12,56,224,287,-141,102,58,29
53,92,39,-73,7,65,219,292,-156,92,48,24
53,92,39,-73,7,65,219,287,-156,97,48,24
39,92,53,-65,-7,73,209,283,-161,107,53,24
29,97,68,-63,-19,82,204,273,-165,107,53,24
29,107,78,-68,-24,92,200,258,-170,107,73,39
39,107,68,-73,-14,87,190,244,-185,107,73,43
39,102,63,-70,-12,82,185,229,-190,97,73,43
39,92,53,-65,-7,73,175,224,-200,97,73,43
34,92,58,-63,-12,75,156,224,-204,97,63,43
39,92,53,-65,-7,73,146,214,-214,102,63,43
43,92,48,-68,-2,70,136,204,-224,102,68,43
48,92,43,-70,2,68,117,195,-229,107,73,48
48,102,53,-75,-2,78,102,180,-244,107,87,58
48,107,58,-78,-4,82,87,165,-253,107,87,58
48,112,63,-80,-7,87,82,141,-263,97,87,58
48,107,58,-78,-4,82,73,126,-273,92,87,58
29,92,63,-61,-17,78,73,97,-287,82,92,63
24,78,53,-51,-14,65,63,87,-292,82,92,63
19,78,58,-48,-19,68,53,78,-297,87,92,63
14,78,63,-46,-24,70,43,73,-307,87,92,63
9,78,68,-43,-29,73,29,63,-317,87,92,63
4,78,73,-41,-34,75,29,53,-336,87,92,63
-4,68,73,-31,-39,70,24,39,-356,82,87,63
-14,58,73,-21,-43,65,24,29,-366,73,82,63
-14,48,63,-17,-39,56,19,19,-385,63,68,53
-19,48,68,-14,-43,58,14,14,-385,58,63,48
-29,34,63,-2,-46,48,9,9,-390,53,63,48
-39,24,63,7,-51,43,9,4,-395,53,63,53
-39,34,73,2,-56,53,-9,4,-405,43,63,53
-39,34,73,2,-56,53,-14,0,-414,39,63,53
-43,29,73,7,-58,51,-19,-4,-424,34,63,53
-43,19,63,12,-53,41,-19,-4,-434,29,53,48
-34,9,43,12,-39,26,-19,-19,-424,14,48,58
-34,4,39,14,-36,21,-19,-24,-419,14,48,58
-48,0,48,24,-48,24,-19,-24,-414,14,48,48
-58,-14,43,36,-51,14,-29,-24,-409,14,48,48
-63,-4,58,34,-61,26,-34,-29,-395,14,48,48
-63,0,63,31,-63,31,-34,-34,-390,14,48,48
-63,0,63,31,-63,31,-39,-39,-390,9,48,48
-63,0,63,31,-63,31,-39,-48,-385,9,48,48
-78,-4,73,41,-75,34,-39,-39,-370,9,58,48
-82,-9,73,46,-78,31,-39,-39,-366,9,53,48
-82,-14,68,48,-75,26,-39,-39,-361,4,53,48
-82,-14,68,48,-75,26,-39,-43,-361,4,53,39
-82,-19,63,51,-73,21,-39,-43,-351,-4,43,39
-87,-19,68,53,-78,24,-39,-39,-351,-4,43,39
-92,-24,68,58,-80,21,-39,-34,-351,-4,43,39
-97,-24,73,61,-85,24,-39,-34,-351,-9,43,39
-107,-24,82,65,-95,29,-39,-24,-351,0,43,39
-112,-24,87,68,-100,31,-39,-29,-356,0,43,39
-117,-29,87,73,-102,29,-39,-29,-356,0,43,39
-117,-29,87,73,-102,29,-39,-29,-356,0,43,39
-126,-39,87,82,-107,24,-39,-34,-356,0,43,39
-126,-39,87,82,-107,24,-39,-34,-356,0,43,34
-126,-43,82,85,-104,19,-39,-39,-361,0,39,34
-126,-43,82,85,-104,19,-39,-39,-361,0,39,29
-136,-43,92,90,-114,24,-29,-53,-361,0,39,34
-136,-43,92,90,-114,24,-29,-53,-361,-4,39,39
-136,-43,92,90,-114,24,-29,-53,-356,-4,39,43
-136,-43,92,90,-114,24,-29,-53,-356,-9,34,43
-131,-39,92,85,-112,26,-29,-63,-351,0,39,43
-131,-39,92,85,-112,26,-29,-63,-356,-4,39,43
-131,-39,92,85,-112,26,-29,-63,-356,-9,34,43
-126,-39,87,82,-107,24,-29,-63,-361,-9,34,43
-126,-39,87,82,-107,24,-24,-68,-361,-9,34,39
-126,-43,82,85,-104,19,-24,-68,-366,-9,34,39
-126,-43,82,85,-104,19,-24,-73,-370,-9,29,34
-122,-43,78,82,-100,17,-24,-73,-375,-9,29,34
-117,-43,73,80,-95,14,-24,-63,-375,-14,24,34
-117,-43,73,80,-95,14,-24,-58,-375,-19,19,29
-112,-43,68,78,-90,12,-24,-53,-375,-19,19,29
-112,-43,68,78,-90,12,-24,-48,-375,-19,19,29
-107,-43,63,75,-85,9,-39,-48,-366,-9,19,29
-107,-43,63,75,-85,9,-39,-43,-370,-14,19,29
-102,-43,58,73,-80,7,-39,-43,-375,-14,19,24
-102,-43,58,73,-80,7,-39,-43,-380,-14,14,24
-92,-43,48,68,-70,2,-39,-43,-370,-19,14,14
-87,-43,43,65,-65,0,-39,-43,-370,-19,14,14
-82,-43,39,63,-61,-2,-39,-43,-370,-19,14,14
-78,-43,34,61,-56,-4,-39,-43,-370,-19,14,9
-63,-43,19,53,-41,-12,-43,-53,-366,-34,9,9
-63,-43,19,53,-41,-12,-43,-58,-361,-34,4,9
-63,-43,19,53,-41,-12,-43,-63,-356,-34,0,9
-63,-48,14,56,-39,-17,-43,-68,-346,-34,-4,9
-53,-48,4,51,-29,-21,-43,-78,-331,-34,-4,4
-53,-48,4,51,-29,-21,-43,-78,-326,-34,-4,0
-48,-48,0,48,-24,-24,-48,-78,-322,-39,-4,-4
-48,-48,0,48,-24,-24,-48,-78,-312,-39,-4,-14
-48,-43,4,46,-26,-19,-48,-78,-307,-39,-14,-14
-48,-43,4,46,-26,-19,-48,-78,-292,-39,-14,-14
-48,-43,4,46,-26,-19,-48,-78,-283,-39,-14,-14
-48,-43,4,46,-26,-19,-48,-78,-278,-39,-14,-14
-48,-43,4,46,-26,-19,-48,-87,-258,-39,-19,-14
-48,-43,4,46,-26,-19,-48,-87,-248,-39,-19,-14
-43,-43,0,43,-21,-21,-48,-87,-234,-39,-24,-14
-43,-43,0,43,-21,-21,-48,-87,-224,-39,-24,-14
-43,-48,-4,46,-19,-26,-43,-87,-209,-39,-24,-24
-43,-48,-4,46,-19,-26,-43,-82,-195,-39,-24,-24
-48,-43,4,46,-26,-19,-43,-82,-175,-34,-24,-24
-48,-43,4,46,-26,-19,-43,-82,-156,-34,-24,-19
-39,-43,-4,41,-17,-24,-43,-82,-141,-43,-24,-19
-39,-43,-4,41,-17,-24,-43,-78,-131,-43,-24,-19
-39,-48,-9,43,-14,-29,-43,-78,-122,-43,-24,-19
-39,-48,-9,43,-14,-29,-43,-78,-107,-39,-24,-19
-39,-48,-9,43,-14,-29,-43,-73,-82,-39,-24,-19
-39,-48,-9,43,-14,-29,-43,-73,-73,-43,-19,-19
-43,-48,-4,46,-19,-26,-43,-73,-58,-48,-19,-19
-43,-43,0,43,-21,-21,-43,-68,-48,-53,-14,-19
-43,-43,0,43,-21,-21,-43,-68,-24,-63,-4,-19
-43,-43,0,43,-21,-21,-43,-68,-14,-63,-4,-19
-43,-43,0,43,-21,-21,-43,-68,0,-58,-4,-19
-43,-43,0,43,-21,-21,-43,-63,14,-58,0,-19
-34,-43,-9,39,-12,-26,-53,-73,24,-68,-4,-19
-34,-39,-4,36,-14,-21,-53,-73,39,-68,-4,-19
-34,-39,-4,36,-14,-21,-53,-73,53,-68,-4,-14
-34,-39,-4,36,-14,-21,-53,-73,68,-68,0,-14
-24,-39,-14,31,-4,-26,-63,-63,78,-73,-9,-14
-19,-39,-19,29,0,-29,-63,-63,87,-73,-9,-14
-19,-39,-19,29,0,-29,-63,-63,92,-73,-9,-14
-19,-34,-14,26,-2,-24,-63,-63,107,-73,-4,-14
-19,-24,-4,21,-7,-14,-63,-48,97,-73,-4,-14
-19,-24,-4,21,-7,-14,-63,-48,117,-73,-4,-14
-19,-24,-4,21,-7,-14,-63,-48,141,-68,-4,-14
-19,-24,-4,21,-7,-14,-63,-43,165,-68,-4,-14
-24,-24,0,24,-12,-12,-68,-43,170,-68,-4,-19
-24,-24,0,24,-12,-12,-68,-43,180,-68,-4,-19
-24,-24,0,24,-12,-12,-68,-43,185,-68,-4,-19
-24,-24,0,24,-12,-12,-68,-43,190,-68,-4,-19
-24,-14,9,19,-17,-2,-68,-53,214,-78,-4,-19
-24,-14,9,19,-17,-2,-68,-53,200,-78,-4,-19
-24,-14,9,19,-17,-2,-68,-53,175,-78,-4,-19
-24,-14,9,19,-17,-2,-68,-53,151,-78,-4,-19
-24,-14,9,19,-17,-2,-73,-58,156,-87,-19,-19
-19,-14,4,17,-12,-4,-73,-58,161,-87,-19,-19
-19,-14,4,17,-12,-4,-73,-58,161,-92,-19,-19
-19,-9,9,14,-14,0,-78,-63,165,-92,-19,-19
-19,-19,0,19,-9,-9,-68,-63,165,-92,-29,-19
-19,-19,0,19,-9,-9,-68,-63,170,-92,-29,-19
-19,-19,0,19,-9,-9,-68,-63,185,-87,-29,-19
-19,-19,0,19,-9,-9,-68,-63,204,-87,-29,-19
-9,-19,-9,14,0,-14,-82,-68,200,-92,-29,-29
-9,-19,-9,14,0,-14,-82,-68,204,-92,-29,-29
-9,-19,-9,14,0,-14,-82,-68,209,-92,-29,-29
-9,-19,-9,14,0,-14,-82,-73,214,-97,-29,-24
-4,-19,-14,12,4,-17,-92,-73,219,-107,-34,-34
0,-19,-19,9,9,-19,-92,-73,214,-107,-39,-34
4,-24,-29,9,17,-26,-92,-73,214,-107,-39,-34
4,-24,-29,9,17,-26,-92,-73,214,-107,-43,-34
9,-24,-34,7,21,-29,-92,-82,214,-117,-43,-39
14,-24,-39,4,26,-31,-97,-82,214,-117,-43,-43
19,-24,-43,2,31,-34,-97,-82,219,-117,-43,-43
24,-24,-48,0,36,-36,-97,-82,219,-117,-43,-48
34,-24,-58,-4,46,-41,-97,-92,219,-126,-43,-48
34,-24,-58,-4,46,-41,-97,-92,224,-126,-43,-48
34,-24,-58,-4,46,-41,-97,-92,229,-126,-43,-53
34,-24,-58,-4,46,-41,-97,-92,234,-126,-43,-53
39,-24,-63,-7,51,-43,-107,-97,248,-136,-43,-53
39,-29,-68,-4,53,-48,-107,-102,248,-136,-43,-53
39,-29,-68,-4,53,-48,-107,-107,248,-136,-43,-53
39,-29,-68,-4,53,-48,-107,-122,248,-136,-43,-53
48,-19,-68,-14,58,-43,-102,-112,263,-136,-53,-53
48,-19,-68,-14,58,-43,-102,-112,263,-136,-53,-53
48,-19,-68,-14,58,-43,-102,-117,263,-136,-53,-53
48,-19,-68,-14,58,-43,-102,-117,263,-136,-58,-53
58,-19,-78,-19,68,-48,-112,-102,273,-146,-58,-58
58,-19,-78,-19,68,-48,-112,-102,273,-146,-58,-58
58,-19,-78,-19,68,-48,-112,-102,263,-146,-63,-58
58,-19,-78,-19,68,-48,-112,-102,263,-146,-68,-58
63,-19,-82,-21,73,-51,-122,-92,273,-156,-68,-58
63,-19,-82,-21,73,-51,-122,-92,273,-165,-68,-63
63,-19,-82,-21,73,-51,-122,-92,278,-156,-68,-63
63,-19,-82,-21,73,-51,-122,-92,278,-156,-73,-63
68,-29,-97,-19,82,-63,-122,-92,273,-165,-82,-63
73,-24,-97,-24,85,-61,-126,-92,278,-165,-87,-63
78,-24,-102,-26,90,-63,-126,-92,283,-165,-87,-63
82,-24,-107,-29,95,-65,-126,-92,287,-165,-87,-63
82,-24,-107,-29,95,-65,-126,-102,292,-165,-87,-73
82,-24,-107,-29,95,-65,-126,-102,297,-170,-97,-73
82,-24,-107,-29,95,-65,-126,-102,302,-170,-97,-73
78,-24,-102,-26,90,-63,-126,-102,307,-170,-97,-73
82,-24,-107,-29,95,-65,-126,-102,322,-170,-97,-73
82,-19,-102,-31,92,-61,-126,-102,331,-170,-97,-73
82,-19,-102,-31,92,-61,-122,-102,336,-170,-97,-73
82,-19,-102,-31,92,-61,-122,-102,341,-170,-97,-73
92,-19,-112,-36,102,-65,-126,-102,356,-170,-92,-73
92,-19,-112,-36,102,-65,-126,-102,366,-175,-92,-73
87,-19,-107,-34,97,-63,-126,-102,366,-175,-92,-73
87,-19,-107,-34,97,-63,-126,-102,366,-170,-97,-73
87,-19,-107,-34,97,-63,-136,-102,375,-170,-97,-78
87,-24,-112,-31,100,-68,-131,-102,385,-170,-97,-78
82,-24,-107,-29,95,-65,-131,-102,395,-170,-97,-78
82,-24,-107,-29,95,-65,-131,-102,405,-170,-97,-78
92,-24,-117,-34,104,-70,-131,-102,419,-170,-97,-78
92,-24,-117,-34,104,-70,-131,-102,419,-170,-97,-78
92,-24,-117,-34,104,-70,-131,-107,424,-170,-97,-78
82,-24,-107,-29,95,-65,-131,-107,429,-170,-97,-78
68,-24,-92,-21,80,-58,-122,-117,429,-156,-107,-78
68,-24,-92,-21,80,-58,-122,-112,434,-156,-107,-73
63,-24,-87,-19,75,-56,-122,-112,439,-151,-107,-73
63,-24,-87,-19,75,-56,-122,-112,444,-151,-107,-73
58,-24,-82,-17,70,-53,-126,-107,439,-151,-107,-73
58,-24,-82,-17,70,-53,-126,-107,439,-151,-107,-73
58,-24,-82,-17,70,-53,-126,-107,434,-151,-107,-73
58,-24,-82,-17,70,-53,-126,-107,429,-151,-107,-73
48,-14,-63,-17,56,-39,-117,-117,419,-141,-107,-63
48,-14,-63,-17,56,-39,-117,-117,424,-136,-102,-63
43,-14,-58,-14,51,-36,-117,-117,424,-131,-102,-63
43,-14,-58,-14,51,-36,-117,-117,414,-126,-102,-63
43,-14,-58,-14,51,-36,-126,-117,405,-117,-102,-63
43,-14,-58,-14,51,-36,-126,-117,405,-117,-107,-63
39,-14,-53,-12,46,-34,-126,-117,405,-117,-107,-63
39,-14,-53,-12,46,-34,-126,-117,400,-117,-107,-63
48,-14,-63,-17,56,-39,-126,-117,390,-117,-107,-63
43,-14,-58,-14,51,-36,-126,-117,390,-107,-107,-58
48,-14,-63,-17,56,-39,-126,-117,380,-107,-112,-68
53,-14,-68,-19,61,-41,-126,-117,375,-112,-112,-68
58,-19,-78,-19,68,-48,-126,-107,370,-107,-117,-68
58,-19,-78,-19,68,-48,-126,-97,366,-107,-117,-68
58,-19,-78,-19,68,-48,-126,-97,361,-107,-117,-68
58,-19,-78,-19,68,-48,-126,-97,356,-107,-117,-68
58,-19,-78,-19,68,-48,-126,-97,351,-107,-117,-68
58,-19,-78,-19,68,-48,-126,-87,346,-97,-117,-68
58,-19,-78,-19,68,-48,-126,-87,341,-97,-117,-68
58,-19,-78,-19,68,-48,-126,-87,336,-97,-117,-68
58,-19,-78,-19,68,-48,-126,-87,331,-97,-117,-68
48,-9,-58,-19,53,-34,-126,-87,326,-97,-117,-68
48,-9,-58,-19,53,-34,-126,-87,322,-97,-117,-68
48,-9,-58,-19,53,-34,-126,-87,317,-97,-117,-68
48,-9,-58,-19,53,-34,-126,-87,312,-97,-117,-68
58,-19,-78,-19,68,-48,-126,-87,297,-87,-117,-68
58,-19,-78,-19,68,-48,-126,-87,292,-87,-117,-68
58,-19,-78,-19,68,-48,-126,-87,287,-87,-117,-68
58,-19,-78,-19,68,-48,-126,-87,283,-87,-117,-68
58,-19,-78,-19,68,-48,-126,-97,273,-87,-117,-68
58,-19,-78,-19,68,-48,-126,-97,263,-87,-117,-68
58,-19,-78,-19,68,-48,-126,-97,253,-87,-117,-68
58,-19,-78,-19,68,-48,-126,-97,244,-87,-117,-68
58,-19,-78,-19,68,-48,-136,-97,229,-78,-117,-68
58,-19,-78,-19,68,-48,-136,-97,224,-78,-117,-68
58,-19,-78,-19,68,-48,-136,-97,219,-78,-117,-68
58,-19,-78,-19,68,-48,-136,-97,214,-78,-117,-68
58,-19,-78,-19,68,-48,-136,-107,200,-78,-117,-68
58,-19,-78,-19,68,-48,-136,-107,195,-78,-117,-68
58,-19,-78,-19,68,-48,-136,-107,190,-78,-117,-68
58,-19,-78,-19,68,-48,-136,-107,185,-78,-117,-68
58,-9,-68,-24,63,-39,-136,-107,175,-78,-117,-68
58,-9,-68,-24,63,-39,-136,-107,175,-78,-117,-68
58,-9,-68,-24,63,-39,-136,-107,175,-78,-117,-68
58,-9,-68,-24,63,-39,-136,-107,175,-78,-117,-68
58,-9,-68,-24,63,-39,-136,-107,170,-78,-117,-68
58,-9,-68,-24,63,-39,-136,-107,165,-78,-117,-68
58,-9,-68,-24,63,-39,-136,-107,161,-78,-117,-68
58,-9,-68,-24,63,-39,-136,-107,156,-78,-117,-68
58,-19,-78,-19,68,-48,-126,-107,156,-87,-107,-78
58,-19,-78,-19,68,-48,-126,-107,156,-87,-107,-78
58,-19,-78,-19,68,-48,-126,-107,156,-87,-107,-78
58,-19,-78,-19,68,-48,-126,-107,156,-87,-107,-78
63,-19,-82,-21,73,-51,-136,-107,146,-87,-107,-78
68,-19,-87,-24,78,-53,-136,-107,146,-87,-107,-78
73,-19,-92,-26,82,-56,-136,-107,146,-87,-107,-78
78,-19,-97,-29,87,-58,-136,-107,146,-87,-107,-78
78,-29,-107,-24,92,-68,-126,-107,146,-87,-97,-78
78,-29,-107,-24,92,-68,-126,-107,146,-87,-97,-78
78,-29,-107,-24,92,-68,-126,-107,146,-87,-97,-78
78,-29,-107,-24,92,-68,-126,-107,146,-87,-97,-78
78,-29,-107,-24,92,-68,-126,-117,156,-87,-97,-78
78,-29,-107,-24,92,-68,-126,-117,156,-87,-97,-78
78,-29,-107,-24,92,-68,-126,-117,156,-87,-97,-78
78,-29,-107,-24,92,-68,-126,-117,156,-87,-97,-78
78,-29,-107,-24,92,-68,-126,-107,161,-78,-87,-68
78,-29,-107,-24,92,-68,-126,-107,165,-78,-87,-68
78,-29,-107,-24,92,-68,-126,-107,170,-78,-87,-68
78,-29,-107,-24,92,-68,-126,-107,175,-78,-87,-68
68,-29,-97,-19,82,-63,-126,-102,180,-73,-87,-58
68,-29,-97,-19,82,-63,-126,-97,185,-68,-87,-58
68,-29,-97,-19,82,-63,-126,-92,190,-63,-87,-58
68,-29,-97,-19,82,-63,-126,-87,195,-58,-87,-58
58,-29,-87,-14,73,-58,-126,-78,200,-48,-78,-48
58,-29,-87,-14,73,-58,-126,-78,204,-48,-78,-48
58,-29,-87,-14,73,-58,-126,-78,209,-48,-78,-48
58,-29,-87,-14,73,-58,-126,-78,214,-48,-78,-48
48,-29,-78,-9,63,-53,-126,-87,214,-39,-68,-39
48,-29,-78,-9,63,-53,-126,-87,214,-39,-68,-39
48,-29,-78,-9,63,-53,-126,-87,214,-39,-68,-39
48,-29,-78,-9,63,-53,-126,-87,214,-39,-68,-39
48,-29,-78,-9,63,-53,-126,-97,209,-29,-58,-39
48,-29,-78,-9,63,-53,-126,-97,204,-29,-58,-39
48,-29,-78,-9,63,-53,-126,-97,200,-29,-58,-39
48,-29,-78,-9,63,-53,-126,-97,195,-29,-58,-39
48,-29,-78,-9,63,-53,-126,-87,180,-19,-48,-29
48,-29,-78,-9,63,-53,-126,-87,175,-19,-48,-29
48,-29,-78,-9,63,-53,-126,-87,170,-19,-48,-29
48,-29,-78,-9,63,-53,-126,-87,165,-19,-48,-29
48,-29,-78,-9,63,-53,-117,-87,156,-19,-48,-29
48,-29,-78,-9,63,-53,-117,-87,146,-19,-48,-29
48,-29,-78,-9,63,-53,-117,-87,136,-19,-48,-29
48,-29,-78,-9,63,-53,-117,-87,126,-19,-48,-29
48,-29,-78,-9,63,-53,-117,-87,117,-19,-48,-29
48,-29,-78,-9,63,-53,-117,-87,107,-19,-48,-29
48,-29,-78,-9,63,-53,-117,-87,97,-19,-48,-29
48,-29,-78,-9,63,-53,-117,-87,87,-19,-48,-29
39,-29,-68,-4,53,-48,-117,-78,73,-19,-48,-19
39,-29,-68,-4,53,-48,-117,-78,68,-19,-48,-19
39,-29,-68,-4,53,-48,-117,-78,63,-19,-48,-19
39,-29,-68,-4,53,-48,-117,-78,58,-19,-48,-19
48,-29,-78,-9,63,-53,-126,-78,43,-19,-39,-19
48,-29,-78,-9,63,-53,-126,-78,39,-19,-39,-19
48,-29,-78,-9,63,-53,-126,-78,34,-19,-39,-19
39,-29,-68,-4,53,-48,-126,-78,29,-19,-39,-19
48,-29,-78,-9,63,-53,-126,-68,29,-24,-29,-19
48,-24,-73,-12,61,-48,-126,-68,24,-24,-24,-19
53,-24,-78,-14,65,-51,-126,-68,24,-24,-24,-19
53,-19,-73,-17,63,-46,-126,-68,24,-24,-24,-19
53,-19,-73,-17,63,-46,-117,-73,24,-19,-24,-9
58,-19,-78,-19,68,-48,-117,-73,19,-19,-19,-4
68,-4,-73,-31,70,-39,-112,-68,19,-19,-19,-4
68,0,-68,-34,68,-34,-112,-68,19,-19,-19,-4
63,4,-58,-34,61,-26,-112,-68,14,-4,-4,0
68,9,-58,-39,63,-24,-102,-68,14,0,0,0
68,14,-53,-41,61,-19,-97,-68,19,0,0,4
78,19,-58,-48,68,-19,-97,-68,19,4,4,4
68,24,-43,-46,56,-9,-92,-68,34,9,4,19
68,29,-39,-48,53,-4,-92,-68,24,9,9,19
68,34,-34,-51,51,0,-92,-63,24,14,9,19
68,34,-34,-51,51,0,-92,-63,19,14,9,19
73,43,-29,-58,51,7,-82,-53,24,24,14,19
68,43,-24,-56,46,9,-82,-53,19,24,24,24
63,43,-19,-53,41,12,-87,-48,19,24,29,24
58,43,-14,-51,36,14,-92,-48,24,24,34,24
53,53,0,-53,26,26,-92,-53,19,34,43,34
58,58,0,-58,29,29,-97,-53,19,34,43,34
53,63,9,-58,21,36,-107,-53,24,34,43,34
58,68,9,-63,24,39,-117,-63,19,39,43,39
53,63,9,-58,21,36,-117,-58,9,48,58,48
53,68,14,-61,19,41,-126,-53,4,48,58,48
58,68,9,-63,24,39,-136,-53,0,48,63,48
58,68,9,-63,24,39,-146,-53,-9,48,63,53
58,68,9,-63,24,39,-156,-58,-14,48,73,53
58,68,9,-63,24,39,-165,-58,-24,48,73,53
63,73,9,-68,26,41,-165,-63,-43,48,73,58
63,73,9,-68,26,41,-170,-63,-48,48,73,58
63,63,0,-63,31,31,-175,-53,-53,48,82,68
63,63,0,-63,31,31,-175,-53,-68,48,82,68
63,63,0,-63,31,31,-175,-53,-68,48,87,68
63,63,0,-63,31,31,-175,-53,-73,43,87,68
68,63,-4,-65,36,29,-165,-53,-87,48,92,68
73,63,-9,-68,41,26,-165,-53,-92,43,92,68
73,58,-14,-65,43,21,-165,-48,-97,43,92,63
82,58,-24,-70,53,17,-165,-48,-107,43,87,63
82,63,-19,-73,51,21,-165,-58,-117,43,92,58
87,58,-29,-73,58,14,-161,-58,-126,43,92,58
87,53,-34,-70,61,9,-161,-53,-136,39,87,58
87,53,-34,-70,61,9,-161,-53,-141,39,87,58
87,48,-39,-68,63,4,-156,-53,-151,29,87,43
87,43,-43,-65,65,0,-156,-53,-156,29,82,43
87,34,-53,-61,70,-9,-156,-48,-165,24,82,34
78,34,-43,-56,61,-4,-156,-48,-170,24,78,34
87,29,-58,-58,73,-14,-151,-48,-175,19,73,34
73,19,-53,-46,63,-17,-146,-53,-180,19,73,29
68,9,-58,-39,63,-24,-141,-58,-190,9,68,29
53,0,-53,-26,53,-26,-136,-58,-195,9,63,24
39,-9,-48,-14,43,-29,-131,-63,-204,14,58,19
39,-14,-53,-12,46,-34,-126,-63,-209,14,53,14
39,-24,-63,-7,51,-43,-122,-63,-214,9,53,14
24,-29,-53,2,39,-41,-117,-63,-214,4,48,9
14,-39,-53,12,34,-46,-117,-73,-229,0,43,4
9,-39,-48,14,29,-43,-117,-78,-234,0,39,0
9,-43,-53,17,31,-48,-117,-78,-239,-4,34,-4
9,-48,-58,19,34,-53,-117,-78,-239,-9,29,-9
0,-53,-53,26,26,-53,-117,-78,-239,-24,39,-9
0,-58,-58,29,29,-58,-117,-78,-239,-24,34,-9
0,-58,-58,29,29,-58,-117,-78,-244,-29,34,-9
4,-58,-63,26,34,-61,-117,-78,-244,-29,34,-9
-4,-68,-63,36,29,-65,-112,-78,-253,-34,43,-9
-4,-68,-63,36,29,-65,-112,-73,-253,-34,43,-9
-4,-68,-63,36,29,-65,-112,-73,-253,-34,43,-9
0,-68,-68,34,34,-68,-112,-73,-229,-39,43,-14
0,-68,-68,34,34,-68,-112,-82,-234,-39,43,-14
0,-68,-68,34,34,-68,-107,-82,-239,-39,48,-14
4,-68,-73,31,39,-70,-107,-82,-244,-43,48,-14
4,-68,-73,31,39,-70,-107,-82,-248,-43,48,-14
4,-78,-82,36,43,-80,-97,-73,-248,-43,48,-14
0,-78,-78,39,39,-78,-97,-73,-248,-43,48,-14
0,-78,-78,39,39,-78,-97,-73,-248,-43,48,-14
0,-82,-82,41,41,-82,-97,-73,-253,-43,48,-14
0,-73,-73,36,36,-73,-107,-73,-263,-43,43,-14
4,-73,-78,34,41,-75,-107,-73,-268,-43,43,-14
14,-63,-78,24,46,-70,-107,-73,-268,-48,34,-14
24,-63,-87,19,56,-75,-107,-73,-263,-53,34,-19
19,-53,-73,17,46,-63,-112,-68,-263,-43,34,-19
14,-53,-68,19,41,-61,-112,-63,-253,-43,34,-19
4,-53,-58,24,31,-56,-112,-63,-258,-39,34,-19
0,-48,-48,24,24,-48,-112,-63,-263,-39,34,-19
-14,-39,-24,26,4,-31,-102,-58,-253,-29,43,-19
-14,-34,-19,24,2,-26,-87,-58,-248,-34,43,-19
-14,-24,-9,19,-2,-17,-87,-63,-258,-24,43,-9
-4,-19,-14,12,4,-17,-87,-68,-263,-24,48,-4
4,0,-4,-2,4,-2,-97,-78,-263,-14,58,4
4,29,24,-17,-9,26,-92,-68,-248,4,78,19
19,58,39,-39,-9,48,-102,-58,-229,39,102,39
43,117,73,-80,-14,95,-117,-43,-175,82,131,63
87,190,102,-139,-7,146,-141,-34,-117,141,185,102
122,263,141,-192,-9,202,-165,-19,-39,214,224,136
170,346,175,-258,-2,261,-180,24,53,278,268,161
244,458,214,-351,14,336,-185,78,161,361,317,190
331,570,239,-451,46,405,-185,161,278,463,380,239
448,692,244,-570,102,468,-180,297,405,546,429,273
575,824,248,-700,163,536,-170,468,551,653,473,307
707,976,268,-841,219,622,-161,644,697,761,546,346
834,1122,287,-978,273,705,-165,790,844,878,614,395
956,1244,287,-1100,334,766,-190,932,951,961,668,448
1083,1327,244,-1205,419,785,-209,1049,990,990,692,468
1127,1298,170,-1212,478,734,-190,1117,932,951,663,448
1078,1102,24,-1090,527,563,-126,1151,746,780,536,356
946,795,-151,-871,549,322,-29,1073,458,546,375,248
756,570,-185,-663,470,192,29,829,209,356,278,190
585,444,-141,-514,363,151,43,522,63,258,234,180
497,341,-156,-419,326,92,24,336,-39,175,180,146
400,224,-175,-312,287,24,9,156,-146,92,122,107
239,122,-117,-180,178,2,43,-63,-287,14,87,97
58,43,-14,-51,36,14,102,-234,-370,-43,73,97
-117,-24,92,70,-104,34,190,-312,-385,-53,63,87
-263,-87,175,175,-219,43,292,-312,-361,-58,39,63
-380,-165,214,273,-297,24,395,-273,-351,-87,9,19
-439,-239,200,339,-319,-19,478,-209,-356,-112,-43,-29
-439,-258,180,348,-309,-39,512,-156,-366,-131,-68,-48
-429,-248,180,339,-305,-34,546,-112,-351,-122,-68,-58
-429,-244,185,336,-307,-29,561,-97,-341,-122,-73,-63
-439,-273,165,356,-302,-53,590,-78,-351,-131,-87,-97
-448,-302,146,375,-297,-78,639,-48,-361,-141,-107,-112
-463,-331,131,397,-297,-100,683,-34,-366,-141,-126,-131
-463,-341,122,402,-292,-109,727,-9,-370,-156,-126,-141
-473,-341,131,407,-302,-104,756,4,-380,-146,-126,-136
-478,-341,136,409,-307,-102,800,4,-380,-146,-131,-126
-478,-331,146,405,-312,-92,844,-14,-385,-136,-112,-126
-483,-336,146,409,-314,-95,868,-39,-395,-131,-112,-117
-483,-356,126,419,-305,-114,902,-63,-409,-131,-122,-126
-478,-366,112,422,-295,-126,961,-73,-434,-156,-131,-141
-488,-390,97,439,-292,-146,1010,-82,-448,-161,-136,-151
-497,-395,102,446,-300,-146,1044,-82,-458,-165,-146,-161
-502,-400,102,451,-302,-148,1054,-97,-483,-165,-146,-156
-497,-400,97,448,-297,-151,1034,-126,-497,-170,-136,-146
-497,-390,107,444,-302,-141,990,-146,-517,-180,-136,-136
-473,-380,92,427,-283,-143,902,-170,-536,-175,-136,-126
-439,-370,68,405,-253,-151,810,-195,-531,-165,-126,-122
-429,-351,78,390,-253,-136,751,-195,-546,-165,-131,-131
-429,-361,68,395,-248,-146,727,-195,-546,-156,-131,-131
-429,-361,68,395,-248,-146,673,-190,-561,-151,-131,-131
-405,-341,63,373,-234,-139,585,-170,-570,-146,-122,-126
-351,-302,48,326,-200,-126,468,-146,-570,-141,-117,-117
-278,-263,14,270,-146,-124,336,-107,-566,-126,-107,-92
-214,-195,19,204,-117,-87,219,-82,-561,-112,-82,-78
-141,-161,-19,151,-61,-90,156,-43,-531,-92,-82,-63
-107,-136,-29,122,-39,-82,136,-24,-517,-78,-68,-63
-97,-112,-14,104,-41,-63,136,-14,-502,-63,-63,-63
-107,-102,4,104,-56,-48,122,-9,-492,-39,-58,-48
-102,-102,0,102,-51,-51,112,0,-492,-39,-39,-48
-92,-92,0,92,-46,-46,102,-9,-497,-48,-48,-48
-82,-82,0,82,-41,-41,87,-9,-507,-53,-53,-48
-68,-82,-14,75,-26,-48,78,-14,-512,-68,-58,-48
-68,-87,-19,78,-24,-53,73,-19,-522,-73,-63,-48
-58,-102,-43,80,-7,-73,73,-19,-512,-63,-78,-58
-53,-102,-48,78,-2,-75,68,-14,-507,-63,-78,-58
-48,-92,-43,70,-2,-68,58,-14,-502,-53,-78,-58
-39,-82,-43,61,2,-63,39,-4,-502,-53,-68,-58
-29,-73,-43,51,7,-58,24,9,-497,-53,-68,-48
-24,-73,-48,48,12,-61,14,19,-502,-53,-68,-48
-14,-68,-53,41,19,-61,9,19,-507,-53,-68,-48
4,-63,-68,29,36,-65,9,19,-502,-63,-73,-48
4,-73,-78,34,41,-75,9,19,-497,-73,-82,-58
-9,-82,-73,46,31,-78,9,19,-483,-68,-82,-58
-9,-82,-73,46,31,-78,9,19,-473,-58,-78,-58
9,-73,-82,31,46,-78,0,29,-463,-53,-68,-58
0,-58,-58,29,29,-58,-9,34,-453,-63,-63,-68
0,-58,-58,29,29,-58,-19,34,-448,-63,-58,-68
4,-58,-63,26,34,-61,-19,39,-448,-73,-58,-68
24,-58,-82,17,53,-70,-14,39,-448,-73,-68,-68
14,-68,-82,26,48,-75,-9,39,-434,-63,-58,-63
4,-73,-78,34,41,-75,-4,39,-414,-58,-53,-63
-4,-73,-68,39,31,-70,0,39,-405,-48,-48,-63
-4,-73,-68,39,31,-70,4,39,-390,-43,-43,-63
0,-63,-63,31,31,-63,4,48,-370,-39,-34,-53
9,-58,-68,24,39,-63,4,48,-356,-39,-34,-43
9,-58,-68,24,39,-63,4,48,-341,-39,-29,-43
4,-68,-73,31,39,-70,4,48,-331,-48,-29,-43
14,-58,-73,21,43,-65,14,39,-317,-48,-29,-48
14,-58,-73,21,43,-65,14,39,-307,-43,-29,-53
14,-58,-73,21,43,-65,14,43,-287,-43,-29,-58
14,-58,-73,21,43,-65,14,48,-268,-34,-24,-63
14,-39,-53,12,34,-46,-4,58,-258,-29,-14,-68
14,-34,-48,9,31,-41,-4,58,-244,-29,-14,-68
19,-29,-48,4,34,-39,0,58,-234,-29,-19,-63
29,-24,-53,-2,41,-39,0,58,-224,-39,-19,-63
39,-24,-63,-7,51,-43,9,63,-229,-39,-14,-58
24,-39,-63,7,43,-51,14,63,-209,-39,-14,-58
24,-39,-63,7,43,-51,14,68,-195,-39,-9,-58
24,-39,-63,7,43,-51,14,73,-175,-29,-9,-58
19,-34,-53,7,36,-43,14,82,-156,-9,0,-43
9,-34,-43,12,26,-39,14,87,-146,-4,4,-43
24,-19,-43,-2,34,-31,14,97,-146,0,4,-43
29,-19,-48,-4,39,-34,14,102,-141,-4,4,-43
19,-29,-48,4,34,-39,14,102,-141,-14,4,-29
14,-34,-48,9,31,-41,24,102,-131,-9,4,-29
14,-34,-48,9,31,-41,29,102,-122,-9,9,-34
14,-29,-43,7,29,-36,34,107,-107,0,19,-34
14,-39,-53,12,34,-46,34,117,-102,19,24,-34
14,-29,-43,7,29,-36,29,122,-92,24,29,-29
14,-24,-39,4,26,-31,29,126,-82,24,39,-29
24,-19,-43,-2,34,-31,29,131,-78,24,39,-29
24,-19,-43,-2,34,-31,34,131,-73,14,39,-19
24,-29,-53,2,39,-41,43,126,-68,14,39,-19
24,-29,-53,2,39,-41,48,126,-48,19,39,-24
24,-29,-53,2,39,-41,53,136,-34,19,39,-24
29,-24,-53,-2,41,-39,58,141,-9,39,34,-24
29,-19,-48,-4,39,-34,58,156,9,43,43,-24
29,-4,-34,-12,31,-19,58,165,29,43,48,-24
34,-4,-39,-14,36,-21,58,165,39,43,48,-24
34,0,-34,-17,34,-17,58,161,53,34,53,-34
39,0,-39,-19,39,-19,68,161,58,34,43,-34
43,0,-43,-21,43,-21,73,165,68,34,43,-34
43,0,-43,-21,43,-21,78,175,87,34,48,-34
34,0,-34,-17,34,-17,82,180,112,58,48,-29
29,4,-24,-17,26,-9,82,190,126,58,58,-29
29,14,-14,-21,21,0,87,200,136,58,58,-24
29,19,-9,-24,19,4,102,200,146,58,58,-19
39,34,-4,-36,21,14,97,204,156,53,53,-19
43,34,-9,-39,26,12,102,204,156,53,53,-19
48,34,-14,-41,31,9,112,214,161,53,43,-19
48,34,-14,-41,31,9,117,219,165,53,43,-24
39,34,-4,-36,21,14,131,234,175,58,58,-14
29,34,4,-31,12,19,136,244,190,68,63,-14
29,43,14,-36,7,29,136,253,204,73,63,-14
34,53,19,-43,7,36,136,258,214,73,63,-4
48,58,9,-53,19,34,136,263,224,63,68,-4
53,58,4,-56,24,31,141,263,214,63,68,-4
53,58,4,-56,24,31,156,263,214,63,68,-4
53,58,4,-56,24,31,165,263,214,73,68,-9
43,58,14,-51,14,36,180,283,229,78,68,-19
48,68,19,-58,14,43,190,287,234,82,78,-14
48,73,24,-61,12,48,195,292,239,87,82,-14
39,78,39,-58,0,58,200,297,239,92,82,-9
39,92,53,-65,-7,73,195,292,234,92,82,4
39,92,53,-65,-7,73,200,287,234,87,82,4
39,92,53,-65,-7,73,209,287,229,87,82,4
39,92,53,-65,-7,73,224,283,229,87,82,9
39,92,53,-65,-7,73,229,273,224,87,78,0
34,92,58,-63,-12,75,229,273,229,97,73,0
29,92,63,-61,-17,78,229,273,239,102,73,0
29,102,73,-65,-21,87,229,273,239,107,78,0
34,112,78,-73,-21,95,229,263,234,97,68,9
34,112,78,-73,-21,95,234,258,224,92,68,9
34,112,78,-73,-21,95,234,253,214,92,68,9
34,102,68,-68,-17,85,234,239,209,92,68,9
39,102,63,-70,-12,82,229,244,200,82,63,14
43,102,58,-73,-7,80,229,239,204,87,58,14
34,102,68,-68,-17,85,219,234,204,97,58,14
29,107,78,-68,-24,92,214,224,204,97,53,14
29,117,87,-73,-29,102,209,209,200,97,63,29
39,117,78,-78,-19,97,200,195,185,97,63,34
39,112,73,-75,-17,92,195,180,180,87,63,34
39,102,63,-70,-12,82,185,175,170,87,63,34
29,102,73,-65,-21,87,165,175,170,82,53,34
29,102,73,-65,-21,87,156,165,165,82,53,34
29,102,73,-65,-21,87,146,156,161,78,58,34
29,102,73,-65,-21,87,126,146,161,78,63,39
39,117,78,-78,-19,97,102,136,156,78,58,39
39,117,78,-78,-19,97,87,126,146,78,58,39
39,117,78,-78,-19,97,82,107,136,68,58,39
39,107,68,-73,-14,87,73,97,126,63,58,39
34,92,58,-63,-12,75,63,68,117,58,43,34
34,78,43,-56,-4,61,53,58,117,53,43,34
34,78,43,-56,-4,61,43,48,117,53,43,34
34,78,43,-56,-4,61,34,43,112,48,43,34
39,87,48,-63,-4,68,4,43,97,29,34,34
43,87,43,-65,0,65,0,34,82,29,34,34
43,78,34,-61,4,56,-9,19,68,24,29,34
43,68,24,-56,9,46,-14,9,63,14,24,34
53,58,4,-56,24,31,-19,9,53,9,19,24
48,58,9,-53,19,34,-24,4,53,9,14,19
39,43,4,-41,17,24,-29,0,48,9,14,19
29,34,4,-31,12,19,-29,-4,43,14,14,24
19,43,24,-31,-2,34,-48,-4,34,14,24,24
19,43,24,-31,-2,34,-53,-9,24,9,24,24
14,39,24,-26,-4,31,-58,-14,14,4,24,24
14,29,14,-21,0,21,-58,-14,4,0,14,19
14,39,24,-26,-4,31,-58,-29,-9,-4,0,19
14,34,19,-24,-2,26,-58,-34,-9,-4,0,19
0,29,29,-14,-14,29,-58,-34,-9,-4,0,9
-9,14,24,-2,-17,19,-68,-34,-9,-4,0,9
-14,14,29,0,-21,21,-73,-43,-14,-4,0,9
-14,19,34,-2,-24,26,-73,-43,-19,-4,0,9
-14,19,34,-2,-24,26,-78,-43,-29,-9,0,9
-14,19,34,-2,-24,26,-78,-48,-34,-9,0,9
-19,4,24,7,-21,14,-78,-48,-39,-9,0,9
-24,0,24,12,-24,12,-78,-48,-43,-9,-4,9
-24,-4,19,14,-21,7,-78,-48,-48,-14,-4,9
-24,-4,19,14,-21,7,-78,-53,-58,-14,-4,0
-34,-9,24,21,-29,7,-68,-48,-68,-14,-4,9
-39,-9,29,24,-34,9,-68,-48,-68,-14,-4,9
-43,-14,29,29,-36,7,-68,-48,-68,-14,-4,9
-48,-14,34,31,-41,9,-68,-53,-68,-19,-4,9
-39,-14,24,26,-31,4,-68,-53,-78,-19,-4,0
-43,-14,29,29,-36,7,-68,-58,-82,-19,-4,0
-48,-19,29,34,-39,4,-68,-58,-82,-19,-4,0
-48,-19,29,34,-39,4,-68,-58,-82,-19,-4,0
-58,-19,39,39,-48,9,-68,-53,-87,-19,4,0
-58,-19,39,39,-48,9,-68,-53,-92,-19,4,-4
-58,-24,34,41,-46,4,-68,-58,-102,-19,0,-4
-58,-24,34,41,-46,4,-68,-58,-107,-19,0,-9
-58,-14,43,36,-51,14,-78,-53,-112,-9,0,-19
-58,-14,43,36,-51,14,-78,-53,-117,-14,0,-19
-58,-14,43,36,-51,14,-78,-53,-117,-14,0,-19
-58,-14,43,36,-51,14,-78,-53,-122,-19,-4,-24
-63,-19,43,41,-53,12,-68,-53,-126,-9,-9,-24
-63,-19,43,41,-53,12,-68,-53,-131,-14,-9,-24
-63,-19,43,41,-53,12,-68,-53,-131,-19,-14,-24
-58,-19,39,39,-48,9,-68,-53,-136,-19,-14,-24
-58,-19,39,39,-48,9,-73,-58,-126,-9,-14,-19
-58,-24,34,41,-46,4,-73,-58,-131,-9,-14,-19
-58,-24,34,41,-46,4,-73,-63,-136,-9,-19,-24
-53,-24,29,39,-41,2,-73,-63,-141,-9,-19,-24
-48,-24,24,36,-36,0,-73,-58,-136,-14,-24,-24
-48,-24,24,36,-36,0,-73,-58,-141,-19,-29,-29
-43,-24,19,34,-31,-2,-73,-58,-146,-19,-29,-29
-43,-24,19,34,-31,-2,-73,-58,-151,-19,-29,-29
-39,-24,14,31,-26,-4,-68,-68,-141,-19,-39,-19
-39,-24,14,31,-26,-4,-68,-63,-146,-24,-39,-19
-34,-24,9,29,-21,-7,-68,-63,-151,-24,-39,-24
-34,-24,9,29,-21,-7,-68,-63,-156,-24,-43,-24
-39,-24,14,31,-26,-4,-68,-63,-156,-29,-43,-24
-39,-24,14,31,-26,-4,-68,-63,-156,-29,-43,-24
-39,-24,14,31,-26,-4,-68,-63,-156,-29,-43,-24
-39,-24,14,31,-26,-4,-68,-63,-156,-29,-43,-29
-39,-24,14,31,-26,-4,-63,-68,-156,-34,-43,-19
-43,-24,19,34,-31,-2,-63,-68,-156,-34,-43,-19
-48,-24,24,36,-36,0,-63,-68,-156,-34,-43,-19
-53,-29,24,41,-39,-2,-63,-68,-151,-34,-43,-19
-63,-29,34,46,-48,2,-63,-68,-151,-34,-53,-9
-63,-29,34,46,-48,2,-63,-68,-151,-34,-53,-9
-58,-29,29,43,-43,0,-68,-68,-151,-39,-53,-9
-58,-29,29,43,-43,0,-68,-68,-146,-39,-53,-14
-58,-24,34,41,-46,4,-58,-58,-136,-29,-53,-14
-58,-24,34,41,-46,4,-58,-58,-126,-29,-53,-14
-58,-24,34,41,-46,4,-58,-58,-122,-29,-53,-14
-58,-24,34,41,-46,4,-58,-58,-122,-29,-53,-14
-58,-24,34,41,-46,4,-58,-58,-117,-39,-58,-14
-58,-24,34,41,-46,4,-58,-58,-112,-39,-58,-14
-53,-24,29,39,-41,2,-58,-58,-102,-39,-63,-14
-53,-24,29,39,-41,2,-58,-58,-97,-39,-63,-14
-53,-19,34,36,-43,7,-53,-68,-92,-39,-58,-24
-53,-19,34,36,-43,7,-53,-63,-87,-39,-53,-24
-58,-14,43,36,-51,14,-53,-63,-78,-34,-48,-24
-58,-14,43,36,-51,14,-53,-63,-68,-34,-43,-19
-58,-4,53,31,-56,24,-53,-63,-68,-24,-34,-19
-58,-4,53,31,-56,24,-53,-58,-63,-24,-34,-19
-58,-9,48,34,-53,19,-53,-58,-58,-24,-34,-19
-58,-9,48,34,-53,19,-53,-58,-48,-19,-34,-19
-58,0,58,29,-58,29,-53,-43,-29,-14,-34,-19
-58,0,58,29,-58,29,-53,-43,-24,-14,-29,-19
-63,0,63,31,-63,31,-53,-43,-14,-14,-29,-19
-63,4,68,29,-65,36,-53,-39,-9,-14,-24,-19
-63,4,68,29,-65,36,-53,-29,0,-14,-14,-19
-63,4,68,29,-65,36,-53,-29,4,-14,-14,-19
-63,4,68,29,-65,36,-53,-29,14,-9,-14,-19
-63,4,68,29,-65,36,-53,-24,24,-9,-9,-19
-63,4,68,29,-65,36,-53,-34,24,0,-14,-29
-63,9,73,26,-68,41,-53,-34,29,0,-14,-29
-63,9,73,26,-68,41,-53,-34,34,0,-14,-24
-63,9,73,26,-68,41,-53,-34,39,0,-9,-24
-73,9,82,31,-78,46,-53,-39,34,-4,-9,-24
-68,9,78,29,-73,43,-53,-43,39,-4,-9,-24
-68,9,78,29,-73,43,-53,-48,39,-4,-9,-24
-68,14,82,26,-75,48,-53,-53,48,-4,-4,-24
-58,4,63,26,-61,34,-63,-48,29,-4,-14,-24
-58,4,63,26,-61,34,-63,-48,39,-4,-14,-24
-58,4,63,26,-61,34,-63,-48,53,0,-14,-24
-58,4,63,26,-61,34,-63,-43,68,0,-14,-24
-48,4,53,21,-51,29,-68,-43,58,0,-14,-19
-43,4,48,19,-46,26,-68,-43,53,0,-14,-19
-39,4,43,17,-41,24,-68,-43,43,0,-14,-19
-34,4,39,14,-36,21,-68,-43,34,0,-14,-19
-34,4,39,14,-36,21,-68,-43,39,-9,-24,-19
-34,4,39,14,-36,21,-68,-43,14,-9,-24,-19
-34,4,39,14,-36,21,-68,-43,-19,-9,-24,-19
-34,4,39,14,-36,21,-68,-43,-53,-9,-24,-19
-43,14,58,14,-51,36,-73,-48,-63,-19,-19,-19
-39,14,53,12,-46,34,-73,-48,-73,-19,-19,-19
-39,14,53,12,-46,34,-73,-48,-87,-24,-19,-19
-39,19,58,9,-48,39,-78,-53,-97,-24,-19,-19
-48,9,58,19,-53,34,-78,-63,-107,-24,-19,-19
-48,9,58,19,-53,34,-78,-63,-112,-24,-19,-19
-48,9,58,19,-53,34,-78,-63,-107,-19,-19,-19
-48,9,58,19,-53,34,-78,-63,-97,-19,-19,-19
-39,9,48,14,-43,29,-82,-68,-122,-24,-29,-19
-39,9,48,14,-43,29,-82,-68,-126,-24,-29,-19
-39,9,48,14,-43,29,-82,-68,-131,-24,-29,-19
-39,9,48,14,-43,29,-82,-73,-136,-29,-29,-14
-29,0,29,14,-29,14,-82,-82,-136,-29,-29,-14
-29,0,29,14,-29,14,-82,-82,-146,-29,-29,-14
-29,-4,24,17,-26,9,-82,-82,-151,-29,-24,-14
-34,-4,29,19,-31,12,-82,-82,-156,-29,-24,-14
-29,4,34,12,-31,19,-82,-78,-151,-29,-24,-24
-24,4,29,9,-26,17,-87,-73,-156,-29,-24,-24
-19,4,24,7,-21,14,-87,-68,-156,-29,-24,-19
-14,4,19,4,-17,12,-87,-63,-161,-29,-24,-19
-4,4,9,0,-7,7,-97,-58,-156,-39,-24,-19
-4,4,9,0,-7,7,-97,-53,-156,-39,-24,-19
-4,4,9,0,-7,7,-97,-48,-156,-39,-24,-24
-4,4,9,0,-7,7,-97,-43,-156,-39,-24,-24
0,4,4,-2,-2,4,-97,-43,-146,-39,-24,-24
0,0,0,0,0,0,-97,-43,-151,-39,-24,-24
0,0,0,0,0,0,-97,-43,-156,-39,-24,-24
0,0,0,0,0,0,-97,-53,-161,-39,-24,-24
0,9,9,-4,-4,9,-102,-63,-156,-39,-24,-24
0,9,9,-4,-4,9,-102,-63,-156,-39,-24,-24
0,9,9,-4,-4,9,-102,-68,-156,-39,-24,-24
0,9,9,-4,-4,9,-102,-68,-156,-39,-29,-24
0,9,9,-4,-4,9,-102,-68,-146,-39,-19,-29
0,9,9,-4,-4,9,-102,-73,-146,-39,-19,-29
0,9,9,-4,-4,9,-102,-78,-156,-39,-24,-29
0,9,9,-4,-4,9,-102,-82,-156,-39,-29,-29
14,9,-4,-12,9,2,-112,-92,-156,-39,-29,-29
14,9,-4,-12,9,2,-112,-92,-156,-48,-29,-34
14,9,-4,-12,9,2,-112,-92,-151,-39,-29,-34
14,9,-4,-12,9,2,-112,-92,-151,-39,-34,-34
14,4,-9,-9,12,-2,-112,-92,-151,-39,-34,-24
14,4,-9,-9,12,-2,-117,-92,-151,-39,-39,-24
14,0,-14,-7,14,-7,-117,-92,-151,-39,-39,-24
14,-4,-19,-4,17,-12,-117,-92,-151,-39,-39,-24
14,-14,-29,0,21,-21,-117,-82,-151,-39,-29,-24
14,-14,-29,0,21,-21,-117,-82,-151,-43,-39,-24
14,-14,-29,0,21,-21,-117,-82,-151,-43,-39,-24
9,-14,-24,2,17,-19,-117,-82,-151,-43,-39,-24
9,-24,-34,7,21,-29,-117,-82,-161,-43,-29,-24
14,-19,-34,2,24,-26,-117,-82,-156,-43,-29,-24
19,-19,-39,0,29,-29,-112,-82,-156,-43,-29,-24
24,-19,-43,-2,34,-31,-112,-82,-156,-43,-29,-24
34,-19,-53,-7,43,-36,-117,-92,-156,-43,-34,-24
34,-19,-53,-7,43,-36,-117,-92,-151,-48,-34,-24
29,-19,-48,-4,39,-34,-117,-92,-156,-48,-34,-24
29,-19,-48,-4,39,-34,-117,-92,-161,-43,-39,-24
29,-14,-43,-7,36,-29,-117,-82,-161,-43,-29,-29
29,-14,-43,-7,36,-29,-112,-82,-161,-43,-29,-29
24,-9,-34,-7,29,-21,-112,-82,-161,-43,-29,-29
24,-4,-29,-9,26,-17,-112,-82,-161,-43,-29,-29
24,-4,-29,-9,26,-17,-112,-82,-161,-34,-29,-29
24,-4,-29,-9,26,-17,-112,-82,-165,-34,-29,-29
24,-4,-29,-9,26,-17,-112,-87,-165,-34,-29,-29
14,-4,-19,-4,17,-12,-112,-87,-165,-34,-29,-29
19,4,-14,-12,17,-4,-112,-78,-175,-39,-29,-39
19,4,-14,-12,17,-4,-112,-73,-170,-39,-29,-34
14,4,-9,-9,12,-2,-112,-73,-165,-34,-29,-34
14,4,-9,-9,12,-2,-112,-73,-161,-34,-29,-34
0,-4,-4,2,2,-4,-117,-78,-165,-34,-19,-24
0,-4,-4,2,2,-4,-117,-78,-165,-34,-19,-24
0,-4,-4,2,2,-4,-117,-78,-170,-34,-19,-24
0,-4,-4,2,2,-4,-117,-78,-175,-34,-19,-24
0,-14,-14,7,7,-14,-107,-78,-175,-29,-9,-14
0,-14,-14,7,7,-14,-107,-78,-170,-29,-4,-14
-4,-14,-9,9,2,-12,-107,-78,-170,-29,-4,-14
-4,-14,-9,9,2,-12,-107,-78,-180,-29,-4,-14
-4,-14,-9,9,2,-12,-107,-87,-180,-29,-4,-14
-4,-14,-9,9,2,-12,-107,-87,-180,-29,-9,-14
-9,-14,-4,12,-2,-9,-107,-87,-180,-29,-9,-14
-9,-14,-4,12,-2,-9,-107,-87,-185,-29,-9,-14
-19,-14,4,17,-12,-4,-107,-87,-175,-29,0,-14
-14,-14,0,14,-7,-7,-107,-97,-175,-29,0,-9
-19,-14,4,17,-12,-4,-97,-97,-175,-29,4,-9
-24,-14,9,19,-17,-2,-97,-87,-170,-24,4,-9
-19,-9,9,14,-14,0,-97,-87,-175,-29,0,-9
-19,-9,9,14,-14,0,-107,-87,-175,-29,0,-9
-19,-9,9,14,-14,0,-107,-87,-175,-29,0,-9
-19,-9,9,14,-14,0,-107,-87,-175,-29,0,-9
-19,-9,9,14,-14,0,-107,-87,-175,-29,0,-9
-9,-9,0,9,-4,-4,-107,-78,-175,-29,0,-19
-9,-9,0,9,-4,-4,-107,-78,-175,-29,0,-19
-9,-9,0,9,-4,-4,-107,-78,-175,-29,0,-19
-9,-9,0,9,-4,-4,-107,-78,-175,-29,0,-19
0,-9,-9,4,4,-9,-107,-68,-175,-29,0,-19
0,-9,-9,4,4,-9,-107,-68,-175,-29,0,-19
0,-9,-9,4,4,-9,-107,-68,-175,-29,0,-19
0,-9,-9,4,4,-9,-107,-68,-175,-29,0,-19
0,-19,-19,9,9,-19,-107,-82,-175,-29,0,-19
0,-19,-19,9,9,-19,-107,-87,-175,-29,0,-19
0,-19,-19,9,9,-19,-107,-92,-175,-29,0,-19
0,-19,-19,9,9,-19,-107,-97,-175,-29,0,-19
0,-19,-19,9,9,-19,-107,-97,-185,-39,0,-19
0,-19,-19,9,9,-19,-107,-97,-185,-39,0,-19
0,-19,-19,9,9,-19,-107,-97,-185,-39,0,-19
0,-19,-19,9,9,-19,-107,-97,-185,-39,0,-19
9,-19,-29,4,19,-24,-117,-97,-195,-39,-9,-19
9,-19,-29,4,19,-24,-117,-97,-195,-39,-9,-19
9,-19,-29,4,19,-24,-117,-97,-195,-39,-9,-19
9,-19,-29,4,19,-24,-117,-97,-195,-39,-9,-19
19,-19,-39,0,29,-29,-117,-92,-204,-39,-19,-19
19,-19,-39,0,29,-29,-117,-87,-204,-39,-19,-19
19,-19,-39,0,29,-29,-117,-82,-204,-39,-19,-19
19,-19,-39,0,29,-29,-117,-78,-204,-39,-19,-19
24,-19,-43,-2,34,-31,-117,-78,-214,-39,-29,-29
29,-19,-48,-4,39,-34,-117,-78,-214,-39,-29,-29
34,-19,-53,-7,43,-36,-117,-78,-214,-39,-29,-29
39,-19,-58,-9,48,-39,-117,-78,-214,-39,-29,-29
39,-19,-58,-9,48,-39,-126,-78,-214,-39,-29,-29
39,-19,-58,-9,48,-39,-126,-78,-214,-39,-29,-29
39,-19,-58,-9,48,-39,-126,-78,-214,-39,-29,-29
39,-19,-58,-9,48,-39,-126,-78,-214,-39,-29,-29
29,-19,-48,-4,39,-34,-126,-78,-214,-39,-29,-19
29,-19,-48,-4,39,-34,-126,-78,-214,-39,-29,-19
29,-19,-48,-4,39,-34,-126,-78,-214,-39,-29,-19
29,-19,-48,-4,39,-34,-126,-78,-214,-39,-29,-19
19,-19,-39,0,29,-29,-126,-87,-214,-29,-29,-19
19,-19,-39,0,29,-29,-126,-87,-214,-29,-29,-19
19,-19,-39,0,29,-29,-126,-87,-214,-29,-29,-19
19,-19,-39,0,29,-29,-126,-87,-214,-29,-29,-19
9,-19,-29,4,19,-24,-117,-87,-224,-29,-19,-14
9,-19,-29,4,19,-24,-117,-87,-224,-29,-19,-9
9,-19,-29,4,19,-24,-117,-87,-224,-29,-19,-4
9,-19,-29,4,19,-24,-117,-87,-224,-29,-19,0
0,-19,-19,9,9,-19,-117,-87,-224,-29,-19,0
0,-19,-19,9,9,-19,-117,-87,-224,-29,-19,0
0,-19,-19,9,9,-19,-117,-87,-224,-29,-19,0
0,-19,-19,9,9,-19,-117,-87,-224,-29,-19,0
0,-19,-19,9,9,-19,-117,-87,-224,-29,-19,0
0,-19,-19,9,9,-19,-117,-87,-224,-29,-19,0
0,-19,-19,9,9,-19,-117,-87,-224,-29,-19,0
0,-19,-19,9,9,-19,-117,-87,-224,-29,-19,0
0,-19,-19,9,9,-19,-117,-97,-214,-19,-14,0
0,-19,-19,9,9,-19,-117,-97,-214,-19,-9,0
0,-19,-19,9,9,-19,-117,-97,-214,-19,-4,0
0,-19,-19,9,9,-19,-117,-97,-214,-19,0,0
-9,-19,-9,14,0,-14,-107,-97,-209,-19,9,0
-9,-19,-9,14,0,-14,-107,-97,-204,-19,9,0
-9,-19,-9,14,0,-14,-107,-97,-200,-19,9,0
-9,-19,-9,14,0,-14,-107,-97,-195,-19,9,0
-19,-29,-9,24,-4,-19,-107,-87,-180,-9,9,9
-19,-29,-9,24,-4,-19,-107,-87,-175,-9,9,9
-19,-29,-9,24,-4,-19,-107,-87,-170,-9,9,9
-19,-29,-9,24,-4,-19,-107,-87,-165,-9,9,9
-24,-39,-14,31,-4,-26,-97,-78,-156,0,19,9
-29,-39,-9,34,-9,-24,-97,-78,-146,0,19,9
-34,-39,-4,36,-14,-21,-97,-78,-136,0,19,9
-39,-39,0,39,-19,-19,-97,-78,-126,0,19,9
-39,-39,0,39,-19,-19,-97,-78,-107,9,29,9
-39,-39,0,39,-19,-19,-97,-78,-97,9,29,9
-39,-39,0,39,-19,-19,-97,-78,-87,9,29,9
-39,-39,0,39,-19,-19,-97,-78,-78,9,29,9
-39,-39,0,39,-19,-19,-87,-78,-53,9,29,9
-39,-39,0,39,-19,-19,-87,-78,-39,9,29,9
-39,-39,0,39,-19,-19,-87,-78,-24,9,29,9
-39,-39,0,39,-19,-19,-87,-78,-9,9,29,9
-29,-29,0,29,-14,-14,-97,-78,9,0,29,9
-29,-29,0,29,-14,-14,-97,-78,29,0,29,9
-29,-29,0,29,-14,-14,-97,-78,48,0,29,9
-29,-29,0,29,-14,-14,-97,-78,68,0,29,9
-19,-29,-9,24,-4,-19,-87,-78,92,9,29,19
-19,-29,-9,24,-4,-19,-87,-78,107,9,29,19
-29,-29,0,29,-14,-14,-87,-78,122,9,29,19
-19,-29,-9,24,-4,-19,-87,-78,141,4,29,19
-24,-34,-9,29,-7,-21,-87,-78,156,4,34,19
-24,-34,-9,29,-7,-21,-87,-78,175,4,34,19
-29,-29,0,29,-14,-14,-87,-78,195,4,34,19
-34,-29,4,31,-19,-12,-87,-73,214,9,34,19
-39,-39,0,39,-19,-19,-87,-73,229,9,39,24
-29,-24,4,26,-17,-9,-82,-68,248,9,39,24
-29,-19,9,24,-19,-4,-82,-68,268,9,39,24
-24,-14,9,19,-17,-2,-82,-68,287,14,43,29
-29,-9,19,19,-24,4,-73,-58,302,19,58,29
-29,-4,24,17,-26,9,-68,-58,322,19,58,34
-19,0,19,9,-19,9,-68,-58,336,24,63,34
-19,4,24,7,-21,14,-63,-58,351,29,63,39
-19,9,29,4,-24,19,-53,-48,356,29,68,39
-19,14,34,2,-26,24,-53,-43,370,34,68,39
-19,14,34,2,-26,24,-53,-43,380,34,68,39
-9,24,34,-7,-21,29,-53,-43,390,34,68,39
-9,24,34,-7,-21,29,-43,-43,395,43,73,43
-9,24,34,-7,-21,29,-48,-39,405,43,73,43
-9,24,34,-7,-21,29,-53,-39,419,43,73,43
-9,24,34,-7,-21,29,-53,-43,434,43,73,43
0,29,29,-14,-14,29,-58,-43,429,34,73,43
0,34,34,-17,-17,34,-68,-43,439,34,73,43
9,39,29,-24,-9,34,-78,-53,439,39,73,48
14,43,29,-29,-7,36,-87,-53,429,39,78,48
24,48,24,-36,0,36,-87,-53,434,48,78,58
29,48,19,-39,4,34,-97,-58,429,48,82,58
29,48,19,-39,4,34,-107,-63,419,48,82,63
29,48,19,-39,4,34,-117,-68,419,48,82,63
19,48,29,-34,-4,39,-126,-68,405,39,82,63
24,53,29,-39,-2,41,-126,-73,390,39,82,68
24,53,29,-39,-2,41,-131,-73,390,39,82,68
24,53,29,-39,-2,41,-136,-73,385,39,82,68
24,63,39,-43,-7,51,-146,-73,370,48,73,68
24,63,39,-43,-7,51,-146,-73,370,48,78,68
24,63,39,-43,-7,51,-146,-73,366,43,78,68
29,63,34,-46,-2,48,-146,-73,356,39,73,68
24,63,39,-43,-7,51,-146,-73,346,34,73,68
24,58,34,-41,-4,46,-146,-68,346,34,73,63
34,58,24,-46,4,41,-146,-68,341,34,68,63
34,53,19,-43,7,36,-146,-68,336,34,63,58
48,48,0,-48,24,24,-141,-78,322,34,73,48
48,43,-4,-46,26,19,-141,-73,317,29,68,48
48,43,-4,-46,26,19,-141,-73,317,29,68,48
43,39,-4,-41,24,17,-131,-73,312,29,68,43
39,34,-4,-36,21,14,-136,-73,322,29,63,53
34,24,-9,-29,21,7,-131,-68,317,24,63,43
19,24,4,-21,7,14,-126,-68,317,24,58,43
19,19,0,-19,9,9,-122,-68,317,19,53,43
14,19,4,-17,4,12,-107,-73,326,29,53,39
9,9,0,-9,4,4,-102,-78,322,19,48,39
-4,0,4,2,-4,2,-97,-78,322,19,43,34
-19,-9,9,14,-14,0,-92,-82,322,14,39,29
-29,-24,4,26,-17,-9,-87,-73,322,14,34,24
-29,-34,-4,31,-12,-19,-82,-73,322,9,34,24
-43,-39,4,41,-24,-17,-78,-73,326,4,29,19
-43,-48,-4,46,-19,-26,-78,-73,326,0,24,14
-58,-48,9,53,-34,-19,-68,-78,326,0,9,9
-58,-53,4,56,-31,-24,-68,-78,326,-4,4,4
-58,-58,0,58,-29,-29,-68,-78,331,-9,0,0
-68,-63,4,65,-36,-29,-68,-78,336,-14,0,0
-78,-78,0,78,-39,-39,-78,-73,341,-14,-4,-9
-78,-78,0,78,-39,-39,-78,-68,341,-19,-4,-9
-73,-78,-4,75,-34,-41,-78,-63,346,-19,-4,-9
-73,-78,-4,75,-34,-41,-73,-58,351,-14,-4,-9
-78,-78,0,78,-39,-39,-73,-63,361,-14,-4,-9
-82,-78,4,80,-43,-36,-73,-63,361,-14,-4,-9
-82,-78,4,80,-43,-36,-73,-63,385,-19,-4,-14
-87,-78,9,82,-48,-34,-73,-63,385,-19,-4,-14
-92,-78,14,85,-53,-31,-68,-73,400,-9,9,-9
-92,-78,14,85,-53,-31,-68,-73,405,-14,9,-4
-97,-78,19,87,-58,-29,-68,-73,409,-14,9,0
-102,-78,24,90,-63,-26,-68,-73,419,-14,9,4
-107,-87,19,97,-63,-34,-58,-73,429,-14,9,4
-107,-87,19,97,-63,-34,-58,-73,439,-14,9,4
-107,-92,14,100,-61,-39,-58,-73,444,-14,9,4
-107,-92,14,100,-61,-39,-58,-73,448,-14,14,4
-112,-92,19,102,-65,-36,-68,-63,458,-14,14,4
-102,-82,19,92,-61,-31,-68,-63,463,-19,4,4
-92,-82,9,87,-51,-36,-68,-63,473,-24,4,0
-92,-82,9,87,-51,-36,-73,-58,492,-24,4,0
-87,-73,14,80,-51,-29,-73,-63,507,-24,4,-9
-87,-73,14,80,-51,-29,-73,-63,507,-19,4,-9
-82,-68,14,75,-48,-26,-73,-63,507,-19,4,-9
-82,-68,14,75,-48,-26,-73,-58,517,-19,4,-9
-92,-63,29,78,-61,-17,-58,-68,541,-14,14,0
-102,-63,39,82,-70,-12,-58,-73,541,-14,14,0
-102,-58,43,80,-73,-7,-48,-68,546,-24,9,4
-92,-58,34,75,-63,-12,-48,-78,546,-24,9,4
-92,-39,53,65,-73,7,-53,-87,551,-14,19,9
-78,-29,48,53,-63,9,-63,-78,561,-9,34,19
-63,9,73,26,-68,41,-68,-63,566,14,43,34
-48,53,102,-2,-75,78,-82,-63,605,43,78,53
-14,126,141,-56,-78,134,-117,-58,663,107,117,87
34,180,146,-107,-56,163,-141,-43,727,161,151,112
78,253,175,-165,-48,214,-156,0,795,224,180,131
146,356,209,-251,-31,283,-165,63,893,287,234,161
253,468,214,-361,19,341,-161,161,1000,380,273,204
370,590,219,-480,75,405,-161,302,1127,478,326,229
522,732,209,-627,156,470,-161,488,1273,585,380,268
678,897,219,-788,229,558,-156,692,1439,702,448,297
829,1049,219,-939,305,634,-161,883,1586,814,512,341
985,1171,185,-1078,400,678,-190,1049,1693,893,556,380
1127,1259,131,-1193,497,695,-219,1185,1722,922,575,390
1205,1229,24,-1217,590,627,-195,1288,1673,888,546,366
1190,1039,-151,-1115,671,444,-126,1356,1493,722,424,268
1078,746,-331,-912,705,207,-48,1298,1205,483,258,151
897,522,-375,-710,636,73,14,1049,961,307,156,102
751,390,-361,-570,556,14,14,746,829,214,112,78
673,302,-370,-488,522,-34,0,536,732,141,73,58
570,190,-380,-380,475,-95,-14,346,619,53,9,19
390,73,-317,-231,353,-122,14,107,478,-34,-34,9
185,-14,-200,-85,192,-107,92,-117,375,-73,-34,9
9,-68,-78,29,43,-73,165,-234,361,-87,-39,14
-156,-126,29,141,-92,-48,278,-263,400,-78,-48,0
-292,-200,92,246,-192,-53,380,-248,414,-92,-73,-39
-361,-268,92,314,-226,-87,453,-214,395,-122,-107,-68
-380,-287,92,334,-236,-97,497,-180,390,-131,-126,-87
-380,-273,107,326,-244,-82,522,-156,409,-122,-112,-92
-380,-263,117,322,-248,-73,541,-146,419,-112,-107,-87
-400,-283,117,341,-258,-82,570,-117,409,-112,-117,-112
-424,-322,102,373,-263,-109,624,-92,385,-122,-126,-131
-444,-341,102,392,-273,-119,678,-68,370,-126,-136,-151
-434,-351,82,392,-258,-134,707,-43,361,-136,-146,-156
-439,-351,87,395,-263,-131,741,-34,341,-146,-141,-146
-439,-351,87,395,-263,-131,785,-34,336,-136,-141,-146
-444,-346,97,395,-270,-124,829,-29,326,-131,-131,-136
-453,-346,107,400,-280,-119,863,-53,312,-122,-131,-136
-458,-366,92,412,-275,-136,912,-73,297,-126,-131,-141
-468,-390,78,429,-273,-156,980,-82,273,-131,-136,-151
-488,-405,82,446,-285,-161,1054,-92,253,-136,-146,-161
-502,-419,82,461,-292,-168,1093,-97,229,-136,-146,-165
-517,-419,97,468,-307,-161,1112,-117,214,-141,-146,-156
-527,-419,107,473,-317,-156,1107,-146,195,-141,-156,-156
-522,-419,102,470,-312,-158,1088,-170,165,-146,-146,-146
-517,-400,117,458,-317,-141,1005,-195,151,-146,-146,-131
-497,-390,107,444,-302,-141,927,-224,146,-136,-141,-122
-488,-380,107,434,-297,-136,883,-234,136,-136,-151,-131
-497,-390,107,444,-302,-141,858,-229,122,-131,-151,-131
-492,-400,92,446,-292,-153,800,-229,92,-126,-151,-136
-468,-370,97,419,-283,-136,702,-214,63,-122,-146,-126
-405,-331,73,368,-239,-129,570,-195,58,-117,-146,-112
-322,-292,29,307,-175,-131,434,-151,53,-102,-131,-97
-248,-229,19,239,-134,-104,302,-122,53,-92,-122,-73
-185,-185,0,185,-92,-92,244,-82,68,-68,-117,-63
-146,-161,-14,153,-65,-87,214,-53,73,-53,-102,-63
-136,-131,4,134,-70,-63,180,-39,92,-39,-87,-58
-141,-122,19,131,-80,-51,161,-29,92,-19,-87,-48
-126,-102,24,114,-75,-39,146,-19,82,-19,-82,-48
-112,-92,19,102,-65,-36,126,-19,68,-24,-82,-48
-92,-92,0,92,-46,-46,112,-24,58,-39,-82,-48
-87,-97,-9,92,-39,-53,102,-29,43,-43,-82,-48
-78,-92,-14,85,-31,-53,82,-29,29,-53,-97,-48
-73,-92,-19,82,-26,-56,78,-24,29,-53,-97,-48
-68,-82,-14,75,-26,-48,68,-24,29,-43,-97,-48
-58,-73,-14,65,-21,-43,48,-14,24,-43,-87,-48
-58,-73,-14,65,-21,-43,43,0,34,-43,-78,-48
-53,-73,-19,63,-17,-46,34,9,24,-43,-78,-48
-43,-68,-24,56,-9,-46,29,9,14,-43,-78,-48
-24,-63,-39,43,7,-51,29,9,14,-53,-82,-48
-4,-63,-58,34,26,-61,29,9,4,-63,-92,-58
-19,-73,-53,46,17,-63,29,9,14,-58,-92,-58
-19,-73,-53,46,17,-63,29,9,19,-48,-87,-58
0,-63,-63,31,31,-63,19,19,24,-43,-78,-58
-9,-58,-48,34,19,-53,9,14,39,-34,-73,-58
-9,-58,-48,34,19,-53,0,14,48,-34,-68,-58
-4,-58,-53,31,24,-56,0,19,53,-43,-68,-58
14,-58,-73,21,43,-65,4,19,58,-43,-78,-58
24,-58,-82,17,53,-70,4,29,78,-48,-78,-63
14,-63,-78,24,46,-70,4,29,92,-48,-73,-63
4,-63,-68,29,36,-65,4,29,97,-43,-68,-63
4,-63,-68,29,36,-65,4,29,107,-43,-63,-63
0,-53,-53,26,26,-53,-4,39,131,-34,-53,-63
9,-48,-58,19,34,-53,-4,39,141,-29,-53,-53
9,-48,-58,19,34,-53,-4,39,151,-24,-48,-53
4,-58,-63,26,34,-61,-4,39,156,-29,-48,-53
4,-48,-53,21,29,-51,4,29,175,-39,-48,-53
4,-48,-53,21,29,-51,4,29,180,-34,-48,-53
4,-48,-53,21,29,-51,4,34,195,-34,-48,-53
4,-48,-53,21,29,-51,4,39,209,-24,-43,-53
4,-43,-48,19,26,-46,-4,48,219,-19,-53,-58
4,-43,-48,19,26,-46,-4,48,234,-19,-53,-58
9,-43,-53,17,31,-48,0,48,244,-19,-58,-53
19,-43,-63,12,41,-53,0,48,253,-29,-58,-53
24,-34,-58,4,41,-46,0,63,244,-39,-73,-48
14,-48,-63,17,39,-56,4,63,258,-39,-73,-48
19,-48,-68,14,43,-58,4,68,268,-39,-68,-48
24,-48,-73,12,48,-61,4,73,283,-29,-68,-48
29,-43,-73,7,51,-58,4,82,297,-14,-63,-53
19,-43,-63,12,41,-53,4,87,302,-14,-63,-53
34,-29,-63,-2,48,-46,4,97,297,-14,-68,-53
39,-29,-68,-4,53,-48,4,102,297,-24,-73,-53
29,-29,-58,0,43,-43,-4,102,287,-24,-73,-39
24,-34,-58,4,41,-46,4,102,297,-19,-73,-39
24,-34,-58,4,41,-46,9,102,307,-19,-68,-43
24,-29,-53,2,39,-41,14,107,322,-9,-58,-43
14,-29,-43,7,29,-36,24,107,331,0,-53,-53
14,-19,-34,2,24,-26,19,112,336,4,-48,-48
14,-14,-29,0,21,-21,19,117,341,4,-39,-48
24,-9,-34,-7,29,-21,19,122,341,4,-39,-48
24,-4,-29,-9,26,-17,14,131,326,-14,-39,-39
24,-9,-34,-7,29,-21,24,126,322,-14,-39,-39
24,-4,-29,-9,26,-17,29,126,331,-9,-39,-43
24,0,-24,-12,24,-12,34,136,336,-9,-39,-43
29,0,-29,-14,29,-14,39,131,341,0,-34,-53
29,0,-29,-14,29,-14,39,146,341,4,-24,-53
29,9,-19,-19,24,-4,39,156,341,4,-19,-53
34,4,-29,-19,31,-12,39,156,331,4,-19,-53
39,19,-19,-29,29,0,29,161,317,-4,-24,-43
48,19,-29,-34,39,-4,39,161,312,-4,-34,-43
58,19,-39,-39,48,-9,43,165,312,-4,-34,-43
63,19,-43,-41,53,-12,48,175,322,-4,-29,-43
58,9,-48,-34,53,-19,58,180,312,0,-39,-48
58,14,-43,-36,51,-14,53,190,312,0,-29,-48
63,24,-39,-43,51,-7,53,200,307,0,-29,-43
68,29,-39,-48,53,-4,63,200,302,0,-29,-39
68,34,-34,-51,51,0,58,214,283,-4,-24,-29
73,34,-39,-53,56,-2,63,214,273,-4,-24,-29
78,34,-43,-56,61,-4,73,224,268,-4,-34,-29
78,34,-43,-56,61,-4,78,229,263,-4,-34,-34
78,34,-43,-56,61,-4,82,234,258,0,-29,-43
68,34,-34,-51,51,0,87,244,258,9,-24,-43
68,43,-24,-56,46,9,87,253,258,14,-24,-43
73,53,-19,-63,46,17,87,258,253,14,-24,-34
92,68,-24,-80,58,21,87,273,248,24,-19,-24
92,68,-24,-80,58,21,92,273,234,24,-19,-24
87,68,-19,-78,53,24,107,273,229,24,-19,-24
82,68,-14,-75,48,26,117,273,224,34,-19,-29
82,58,-24,-70,53,17,122,283,214,39,-19,-29
87,68,-19,-78,53,24,131,287,214,43,-9,-24
87,73,-14,-80,51,29,136,292,214,48,-4,-24
78,78,0,-78,39,39,141,297,209,53,-4,-19
97,92,-4,-95,51,43,136,307,190,53,-4,-24
97,92,-4,-95,51,43,141,307,185,48,-4,-24
97,92,-4,-95,51,43,151,312,175,48,-4,-24
97,92,-4,-95,51,43,165,312,170,48,-4,-19
97,82,-14,-90,56,34,170,312,170,58,-14,-19
92,82,-9,-87,51,36,170,312,170,68,-14,-19
87,82,-4,-85,46,39,170,312,175,73,-9,-19
87,92,4,-90,41,48,170,312,170,78,0,-19
87,107,19,-97,34,63,180,322,170,82,9,-4
82,112,29,-97,26,70,185,317,165,82,9,0
78,117,39,-97,19,78,185,312,161,87,9,4
73,112,39,-92,17,75,185,297,161,92,9,9
73,122,48,-97,12,85,200,283,146,92,9,14
73,122,48,-97,12,85,200,278,146,97,9,14
58,122,63,-90,-2,92,190,273,141,107,14,14
48,126,78,-87,-14,102,185,263,136,107,14,14
58,136,78,-97,-9,107,180,258,117,107,24,24
68,136,68,-102,0,102,170,244,97,107,24,24
68,131,63,-100,2,97,165,229,87,97,24,19
68,122,53,-95,7,87,156,224,73,97,24,14
63,112,48,-87,7,80,156,204,53,82,19,14
68,112,43,-90,12,78,146,195,39,82,14,14
73,112,39,-92,17,75,136,185,24,78,14,14
78,112,34,-95,21,73,117,175,14,78,14,19
87,126,39,-107,24,82,92,175,0,78,29,19
87,126,39,-107,24,82,78,165,-19,78,29,19
87,126,39,-107,24,82,73,146,-39,68,29,19
87,117,29,-102,29,73,63,136,-58,63,29,19
87,112,24,-100,31,68,53,112,-78,63,24,24
82,97,14,-90,34,56,43,97,-78,63,24,24
78,97,19,-87,29,58,34,82,-78,68,24,24
73,97,24,-85,24,61,24,73,-82,68,24,24
63,107,43,-85,9,75,4,53,-78,58,34,24
63,107,43,-85,9,75,0,43,-92,58,34,24
58,97,39,-78,9,68,-9,29,-107,53,29,24
53,87,34,-70,9,61,-14,19,-112,43,24,24
58,68,9,-63,24,39,-29,0,-131,29,9,24
58,68,9,-63,24,39,-34,-4,-131,29,4,19
53,53,0,-53,26,26,-39,-9,-136,29,4,19
48,43,-4,-46,26,19,-39,-14,-141,34,4,24
39,53,14,-46,12,34,-48,-24,-126,34,14,14
39,53,14,-46,12,34,-53,-29,-131,29,14,14
34,48,14,-41,9,31,-58,-34,-136,24,14,14
34,39,4,-36,14,21,-58,-34,-141,19,4,9
43,39,-4,-41,24,17,-68,-39,-131,4,9,9
43,34,-9,-39,26,12,-68,-43,-126,4,9,9
29,29,0,-29,14,14,-68,-43,-122,4,9,0
19,14,-4,-17,12,4,-78,-43,-117,4,9,0
0,4,4,-2,-2,4,-73,-43,-102,9,19,9
-4,9,14,-2,-9,12,-73,-43,-97,14,19,9
-9,9,19,0,-14,14,-78,-43,-97,14,19,9
-14,9,24,2,-19,17,-78,-48,-92,19,19,9
-19,14,34,2,-26,24,-78,-48,-78,19,29,19
-24,9,34,7,-29,21,-78,-48,-73,19,24,19
-24,4,29,9,-26,17,-78,-48,-68,14,24,19
-24,4,29,9,-26,17,-78,-53,-68,14,24,9
-34,0,34,17,-34,17,-78,-58,-63,14,34,19
-39,0,39,19,-39,19,-78,-58,-58,14,34,19
-43,-4,39,24,-41,17,-78,-58,-53,14,34,19
-48,-4,43,26,-46,19,-78,-63,-48,9,34,19
-58,-14,43,36,-51,14,-68,-63,-43,19,34,19
-63,-14,48,39,-56,17,-68,-68,-43,19,34,19
-68,-19,48,43,-58,14,-68,-68,-39,19,34,19
-68,-19,48,43,-58,14,-68,-68,-34,19,34,19
-78,-19,58,48,-68,19,-68,-82,-34,19,34,29
-78,-19,58,48,-68,19,-68,-82,-34,19,34,24
-78,-24,53,51,-65,14,-68,-87,-39,19,29,24
-78,-24,53,51,-65,14,-68,-87,-39,19,29,19
-82,-24,58,53,-70,17,-58,-92,-34,29,39,29
-87,-24,63,56,-75,19,-58,-92,-39,24,39,29
-92,-24,68,58,-80,21,-58,-92,-39,24,39,29
-97,-24,73,61,-85,24,-58,-92,-43,19,34,24
-82,-19,63,51,-73,21,-58,-87,-53,19,29,14
-82,-19,63,51,-73,21,-58,-82,-63,14,29,14
-82,-19,63,51,-73,21,-58,-78,-68,9,24,14
-78,-19,58,48,-68,19,-58,-73,-78,9,24,14
-68,-29,39,48,-53,4,-53,-73,-92,9,24,9
-68,-34,34,51,-51,0,-53,-68,-102,9,24,9
-68,-34,34,51,-51,0,-53,-68,-112,9,19,4
-63,-34,29,48,-46,-2,-53,-63,-122,9,19,4
-53,-34,19,43,-36,-7,-63,-48,-141,14,14,4
-58,-34,24,46,-41,-4,-63,-48,-151,9,9,0
-58,-34,24,46,-41,-4,-63,-48,-161,9,9,0
-63,-34,29,48,-46,-2,-63,-48,-170,9,9,0
-58,-34,24,46,-41,-4,-58,-58,-185,9,9,0
-58,-34,24,46,-41,-4,-58,-53,-195,4,9,0
-53,-34,19,43,-36,-7,-58,-53,-204,4,9,-4
-53,-34,19,43,-36,-7,-58,-53,-214,4,4,-4
-48,-34,14,41,-31,-9,-58,-53,-234,0,4,-14
-48,-34,14,41,-31,-9,-58,-53,-244,0,4,-14
-48,-34,14,41,-31,-9,-58,-53,-253,0,4,-14
-48,-34,14,41,-31,-9,-58,-53,-263,0,4,-19
-34,-43,-9,39,-12,-26,-63,-68,-278,-14,-4,-19
-34,-43,-9,39,-12,-26,-63,-68,-292,-14,-4,-19
-34,-43,-9,39,-12,-26,-63,-68,-307,-14,-4,-19
-34,-48,-14,41,-9,-31,-63,-68,-317,-14,-4,-19
-24,-48,-24,36,0,-36,-63,-78,-336,-14,-14,-19
-24,-48,-24,36,0,-36,-63,-78,-346,-14,-14,-19
-19,-48,-29,34,4,-39,-68,-78,-356,-19,-14,-19
-19,-48,-29,34,4,-39,-68,-78,-361,-19,-14,-24
-29,-43,-14,36,-7,-29,-68,-78,-370,-19,-14,-24
-29,-43,-14,36,-7,-29,-68,-78,-370,-19,-14,-24
-29,-43,-14,36,-7,-29,-68,-78,-375,-19,-14,-24
-29,-43,-14,36,-7,-29,-68,-78,-385,-19,-14,-24
-29,-43,-14,36,-7,-29,-58,-78,-390,-9,-19,-24
-29,-43,-14,36,-7,-29,-58,-78,-395,-9,-19,-24
-24,-43,-19,34,-2,-31,-58,-78,-395,-9,-24,-24
-24,-43,-19,34,-2,-31,-58,-78,-400,-9,-24,-24
-24,-48,-24,36,0,-36,-63,-68,-409,0,-24,-24
-24,-48,-24,36,0,-36,-63,-63,-409,0,-24,-24
-29,-43,-14,36,-7,-29,-63,-63,-405,4,-24,-24
-29,-43,-14,36,-7,-29,-63,-63,-400,4,-24,-19
-19,-43,-24,31,2,-34,-63,-63,-400,-4,-34,-19
-19,-43,-24,31,2,-34,-63,-58,-405,-4,-34,-19
-19,-48,-29,34,4,-39,-63,-58,-409,-4,-34,-19
-19,-48,-29,34,4,-39,-63,-58,-409,0,-34,-19
-19,-58,-39,39,9,-48,-53,-63,-409,0,-48,-29
-19,-58,-39,39,9,-48,-53,-63,-414,-4,-48,-29
-24,-58,-34,41,4,-46,-53,-63,-414,-9,-53,-29
-24,-53,-29,39,2,-41,-53,-58,-419,-14,-53,-29
-24,-43,-19,34,-2,-31,-53,-58,-424,-24,-53,-29
-24,-43,-19,34,-2,-31,-53,-58,-424,-24,-53,-29
-24,-43,-19,34,-2,-31,-53,-58,-419,-19,-53,-29
-24,-43,-19,34,-2,-31,-53,-53,-414,-19,-48,-29
-24,-34,-9,29,-7,-21,-53,-53,-414,-9,-43,-29
-24,-29,-4,26,-9,-17,-53,-53,-409,-9,-43,-29
-24,-29,-4,26,-9,-17,-53,-53,-405,-9,-43,-24
-24,-29,-4,26,-9,-17,-53,-53,-400,-9,-39,-24
-34,-29,4,31,-19,-12,-53,-48,-405,0,-29,-24
-29,-29,0,29,-14,-14,-53,-43,-400,4,-29,-24
-29,-29,0,29,-14,-14,-53,-39,-400,9,-29,-24
-29,-24,4,26,-17,-9,-53,-34,-390,14,-24,-24
-39,-34,4,36,-21,-14,-43,-29,-405,14,-24,-24
-39,-34,4,36,-21,-14,-43,-29,-390,14,-24,-24
-39,-34,4,36,-21,-14,-43,-29,-370,19,-24,-24
-39,-34,4,36,-21,-14,-43,-24,-351,19,-24,-24
-34,-43,-9,39,-12,-26,-39,-34,-346,29,-24,-19
-34,-43,-9,39,-12,-26,-39,-34,-346,29,-24,-19
-34,-43,-9,39,-12,-26,-39,-34,-351,29,-24,-19
-34,-43,-9,39,-12,-26,-39,-34,-356,29,-24,-19
-34,-53,-19,43,-7,-36,-39,-34,-341,29,-34,-9
-34,-53,-19,43,-7,-36,-39,-34,-356,29,-34,-9
-34,-53,-19,43,-7,-36,-39,-34,-380,29,-34,-9
-34,-53,-19,43,-7,-36,-39,-34,-405,29,-34,-9
-43,-53,-9,48,-17,-31,-43,-29,-405,39,-39,0
-39,-53,-14,46,-12,-34,-43,-29,-405,39,-39,0
-39,-53,-14,46,-12,-34,-43,-29,-409,34,-39,0
-39,-48,-9,43,-14,-29,-48,-34,-409,34,-39,0
-43,-48,-4,46,-19,-26,-48,-24,-414,43,-29,9
-48,-48,0,48,-24,-24,-48,-24,-414,43,-29,9
-53,-48,4,51,-29,-21,-48,-24,-405,48,-29,9
-58,-48,9,53,-34,-19,-48,-24,-390,48,-29,9
-68,-48,19,58,-43,-14,-43,-29,-390,48,-19,14
-68,-48,19,58,-43,-14,-43,-29,-390,53,-19,19
-68,-48,19,58,-43,-14,-43,-29,-390,58,-19,24
-68,-48,19,58,-43,-14,-43,-34,-390,58,-19,34
-58,-48,9,53,-34,-19,-43,-24,-395,53,-19,34
-58,-48,9,53,-34,-19,-43,-24,-400,48,-19,34
-58,-53,4,56,-31,-24,-43,-24,-400,43,-14,34
-63,-53,9,58,-36,-21,-43,-24,-400,39,-14,34
-63,-53,9,58,-36,-21,-43,-24,-400,29,-14,24
-63,-53,9,58,-36,-21,-48,-24,-400,29,-14,24
-63,-53,9,58,-36,-21,-48,-24,-395,29,-14,29
-63,-53,9,58,-36,-21,-48,-24,-395,29,-14,29
-53,-53,0,53,-26,-26,-58,-14,-395,29,-9,29
-53,-53,0,53,-26,-26,-58,-14,-390,29,-4,29
-53,-53,0,53,-26,-26,-58,-14,-385,29,0,24
-53,-53,0,53,-26,-26,-58,-14,-380,29,4,24
-68,-53,14,61,-41,-19,-58,-4,-366,29,9,24
-68,-58,9,63,-39,-24,-58,-4,-366,29,14,24
-68,-58,9,63,-39,-24,-58,-4,-366,29,19,24
-68,-58,9,63,-39,-24,-58,-14,-366,29,24,24
-78,-48,29,63,-53,-9,-63,-14,-351,39,34,34
-78,-48,29,63,-53,-9,-63,-14,-351,39,34,34
-78,-48,29,63,-53,-9,-63,-19,-351,39,34,34
-78,-48,29,63,-53,-9,-63,-19,-351,39,29,34
-82,-48,34,65,-58,-7,-53,-24,-336,48,29,39
-87,-48,39,68,-63,-4,-53,-24,-331,48,29,39
-92,-48,43,70,-68,-2,-53,-24,-336,48,24,39
-97,-48,48,73,-73,0,-53,-24,-331,48,19,39
-102,-58,43,80,-73,-7,-53,-24,-322,48,29,39
-102,-58,43,80,-73,-7,-53,-24,-322,39,29,34
-102,-58,43,80,-73,-7,-53,-24,-317,48,29,34
-102,-58,43,80,-73,-7,-53,-24,-317,48,24,34
-102,-58,43,80,-73,-7,-43,-14,-322,48,14,34
-102,-53,48,78,-75,-2,-48,-14,-317,48,9,34
-102,-53,48,78,-75,-2,-48,-14,-312,48,9,34
-102,-53,48,78,-75,-2,-48,-14,-307,48,9,34
-112,-63,48,87,-80,-7,-48,-14,-312,39,19,34
-112,-63,48,87,-80,-7,-48,-14,-317,34,9,34
-112,-63,48,87,-80,-7,-48,-14,-322,34,9,34
-117,-63,53,90,-85,-4,-48,-14,-326,34,9,34
-122,-73,48,97,-85,-12,-48,-14,-336,24,9,34
-122,-68,53,95,-87,-7,-48,-14,-331,24,9,34
-122,-68,53,95,-87,-7,-43,-14,-331,24,9,34
-122,-68,53,95,-87,-7,-43,-14,-331,24,9,34
-122,-58,63,90,-92,2,-39,-19,-341,24,14,43
-122,-58,63,90,-92,2,-39,-24,-336,19,14,43
-126,-58,68,92,-97,4,-39,-29,-341,19,14,43
-126,-58,68,92,-97,4,-39,-34,-346,24,9,43
-136,-58,78,97,-107,9,-48,-34,-346,24,19,48
-136,-63,73,100,-104,4,-43,-34,-346,24,19,48
-141,-63,78,102,-109,7,-43,-34,-346,24,19,48
-141,-63,78,102,-109,7,-43,-34,-346,24,19,48
-141,-53,87,97,-114,17,-43,-43,-351,14,19,48
-141,-53,87,97,-114,17,-43,-43,-361,14,19,48
-141,-53,87,97,-114,17,-43,-48,-366,14,19,48
-151,-53,97,102,-124,21,-43,-48,-370,14,19,48
-146,-53,92,100,-119,19,-43,-39,-380,9,19,39
-146,-53,92,100,-119,19,-43,-34,-385,9,19,43
-151,-53,97,102,-124,21,-43,-34,-390,14,19,43
-151,-53,97,102,-124,21,-43,-34,-395,14,19,43
-146,-43,102,95,-124,29,-48,-29,-400,14,29,43
-146,-43,102,95,-124,29,-48,-29,-400,14,29,43
-146,-43,102,95,-124,29,-48,-29,-405,14,29,43
-146,-43,102,95,-124,29,-48,-29,-409,14,29,43
-136,-43,92,90,-114,24,-48,-19,-409,29,29,43
-136,-43,92,90,-114,24,-48,-19,-405,29,34,43
-141,-43,97,92,-119,26,-48,-19,-405,29,34,43
-141,-43,97,92,-119,26,-48,-19,-414,29,34,43
-131,-43,87,87,-109,21,-48,-19,-414,29,24,43
-131,-43,87,87,-109,21,-48,-19,-414,29,19,43
-136,-43,92,90,-114,24,-48,-19,-414,29,19,43
-136,-43,92,90,-114,24,-48,-19,-419,29,19,43
-126,-43,82,85,-104,19,-48,-19,-419,29,19,43
-131,-53,78,92,-104,12,-48,-19,-409,29,19,39
-126,-53,73,90,-100,9,-48,-19,-400,29,14,39
-131,-53,78,92,-104,12,-48,-19,-395,24,14,39
-126,-48,78,87,-102,14,-48,-19,-390,29,9,39
-126,-58,68,92,-97,4,-48,-19,-380,19,9,39
-126,-58,68,92,-97,4,-48,-19,-380,19,9,39
-126,-58,68,92,-97,4,-48,-19,-380,19,9,39
-126,-58,68,92,-97,4,-48,-19,-380,19,9,39
-136,-58,78,97,-107,9,-39,-29,-366,9,9,39
-136,-58,78,97,-107,9,-39,-29,-361,9,9,39
-136,-58,78,97,-107,9,-39,-29,-356,9,9,39
-136,-58,78,97,-107,9,-39,-29,-351,9,9,39
-126,-58,68,92,-97,4,-48,-29,-341,0,0,39
-126,-58,68,92,-97,4,-48,-29,-341,0,0,39
-126,-58,68,92,-97,4,-48,-29,-341,0,0,39
-126,-58,68,92,-97,4,-48,-29,-341,0,0,39
-136,-58,78,97,-107,9,-48,-29,-331,0,0,39
-136,-58,78,97,-107,9,-48,-29,-331,0,0,39
-136,-58,78,97,-107,9,-48,-29,-331,0,0,39
-136,-58,78,97,-107,9,-48,-29,-331,0,0,39
-146,-58,87,102,-117,14,-48,-19,-322,0,9,29
-146,-58,87,102,-117,14,-48,-19,-322,0,9,29
-146,-58,87,102,-117,14,-48,-19,-322,0,9,29
-146,-58,87,102,-117,14,-48,-19,-322,0,9,29
-156,-58,97,107,-126,19,-48,-19,-322,0,9,39
-156,-58,97,107,-126,19,-48,-19,-322,0,9,39
-156,-58,97,107,-126,19,-48,-19,-322,0,9,39
-156,-58,97,107,-126,19,-48,-19,-322,0,9,39
-165,-48,117,107,-141,34,-48,-29,-322,0,19,39
-165,-48,117,107,-141,34,-48,-29,-322,0,19,39
-165,-48,117,107,-141,34,-48,-29,-322,0,19,39
-165,-48,117,107,-141,34,-48,-29,-322,0,19,39
-156,-39,117,97,-136,39,-58,-43,-322,0,9,29
-156,-39,117,97,-136,39,-58,-48,-322,0,9,29
-156,-39,117,97,-136,39,-58,-53,-322,0,9,29
-156,-39,117,97,-136,39,-58,-58,-322,0,9,29
-156,-39,117,97,-136,39,-58,-58,-317,-9,9,29
-156,-39,117,97,-136,39,-58,-58,-312,-9,9,29
-156,-39,117,97,-136,39,-58,-58,-307,-9,9,29
-156,-39,117,97,-136,39,-58,-58,-302,-9,9,29
-146,-39,107,92,-126,34,-58,-48,-287,-19,0,29
-146,-39,107,92,-126,34,-58,-48,-283,-19,0,29
-146,-39,107,92,-126,34,-58,-48,-278,-19,0,29
-146,-39,107,92,-126,34,-58,-48,-273,-19,0,29
-146,-39,107,92,-126,34,-58,-43,-258,-19,0,39
-146,-39,107,92,-126,34,-58,-39,-253,-19,0,39
-146,-39,107,92,-126,34,-58,-34,-248,-19,0,39
-146,-39,107,92,-126,34,-58,-29,-244,-19,0,39
-141,-29,112,85,-126,41,-58,-39,-239,-29,0,29
-136,-29,107,82,-122,39,-58,-39,-234,-29,0,29
-131,-29,102,80,-117,36,-58,-39,-229,-29,0,29
-126,-29,97,78,-112,34,-58,-39,-224,-29,0,29
-117,-29,87,73,-102,29,-68,-39,-204,-29,0,29
-117,-29,87,73,-102,29,-68,-39,-195,-29,0,29
-117,-29,87,73,-102,29,-68,-39,-185,-29,0,29
-117,-29,87,73,-102,29,-68,-39,-175,-29,0,29
-107,-19,87,63,-97,34,-68,-39,-165,-29,0,19
-107,-19,87,63,-97,34,-68,-39,-156,-29,0,19
-107,-19,87,63,-97,34,-68,-39,-146,-29,0,19
-107,-19,87,63,-97,34,-68,-39,-136,-29,0,19
-107,-19,87,63,-97,34,-68,-39,-117,-29,9,19
-107,-19,87,63,-97,34,-68,-39,-97,-29,9,19
-107,-19,87,63,-97,34,-68,-39,-78,-29,9,19
-107,-19,87,63,-97,34,-68,-39,-58,-29,9,19
-117,-29,87,73,-102,29,-68,-48,-39,-29,9,19
-117,-29,87,73,-102,29,-68,-48,-19,-29,9,19
-117,-29,87,73,-102,29,-68,-48,0,-29,9,19
-117,-29,87,73,-102,29,-68,-48,19,-29,9,19
-107,-29,78,68,-92,24,-68,-48,39,-29,19,19
-107,-29,78,68,-92,24,-68,-48,58,-29,19,19
-107,-29,78,68,-92,24,-68,-48,78,-29,19,19
-107,-29,78,68,-92,24,-68,-48,97,-29,19,19
-117,-29,87,73,-102,29,-68,-58,122,-29,19,29
-117,-29,87,73,-102,29,-68,-58,136,-29,19,29
-117,-29,87,73,-102,29,-68,-58,151,-29,19,29
-117,-29,87,73,-102,29,-68,-58,165,-29,19,29
-107,-29,78,68,-92,24,-68,-68,190,-39,19,19
-107,-29,78,68,-92,24,-68,-68,204,-39,19,19
-107,-29,78,68,-92,24,-68,-68,219,-39,19,19
-107,-29,78,68,-92,24,-68,-68,234,-39,19,19
-102,-19,82,61,-92,31,-78,-68,248,-48,9,9
-97,-19,78,58,-87,29,-78,-68,263,-48,9,9
-92,-19,73,56,-82,26,-78,-68,278,-48,9,9
-87,-19,68,53,-78,24,-78,-68,292,-48,9,9
-73,-19,53,46,-63,17,-87,-78,312,-58,9,0
-68,-19,48,43,-58,14,-87,-78,322,-58,9,0
-63,-19,43,41,-53,12,-87,-78,331,-58,9,0
-58,-19,39,39,-48,9,-87,-78,341,-58,9,0
-63,-9,53,36,-58,21,-87,-87,361,-58,0,-9
-48,-9,39,29,-43,14,-87,-87,375,-63,0,-9
-43,-4,39,24,-41,17,-87,-87,385,-63,4,-9
-34,-4,29,19,-31,12,-87,-87,400,-63,4,-9
-24,0,24,12,-24,12,-87,-87,414,-73,14,-19
-24,0,24,12,-24,12,-87,-82,429,-68,14,-19
-19,0,19,9,-19,9,-87,-82,439,-68,19,-14
-9,14,24,-2,-17,19,-82,-78,453,-68,19,-14
-4,9,14,-2,-9,12,-92,-78,463,-68,9,-14
4,14,9,-9,-2,12,-92,-78,473,-63,14,-9
14,19,4,-17,4,12,-82,-78,478,-58,19,-9
19,24,4,-21,7,14,-78,-78,488,-58,19,-4
29,29,0,-29,14,14,-78,-78,507,-63,14,-4
29,34,4,-31,12,19,-73,-78,517,-58,14,0
29,39,9,-34,9,24,-73,-78,512,-58,19,0
29,43,14,-36,7,29,-73,-73,517,-53,19,0
34,34,0,-34,17,17,-82,-82,527,-63,9,0
48,43,-4,-46,26,19,-82,-82,527,-63,9,0
53,43,-9,-48,31,17,-82,-82,527,-63,14,4
58,43,-14,-51,36,14,-87,-78,531,-63,14,4
68,53,-14,-61,41,19,-102,-87,546,-63,4,-4
68,53,-14,-61,41,19,-102,-92,551,-63,4,-4
78,58,-19,-68,48,19,-107,-92,561,-63,4,-4
78,63,-14,-70,46,24,-117,-92,575,-63,4,-4
97,68,-29,-82,63,19,-126,-102,585,-68,4,0
102,73,-29,-87,65,21,-136,-102,575,-68,9,0
102,78,-24,-90,63,26,-146,-102,570,-68,9,0
107,78,-29,-92,68,24,-156,-107,566,-68,14,0
112,87,-24,-100,68,31,-165,-112,566,-68,4,-4
117,87,-29,-102,73,29,-175,-117,566,-68,4,-4
122,87,-34,-104,78,26,-185,-117,561,-68,4,-4
131,92,-39,-112,85,26,-185,-122,546,-68,4,0
136,92,-43,-114,90,24,-200,-122,551,-78,-4,-9
141,92,-48,-117,95,21,-204,-122,551,-78,-4,-9
146,92,-53,-119,100,19,-204,-122,541,-78,-4,-9
151,92,-58,-122,104,17,-204,-122,546,-78,0,-9
156,82,-73,-119,114,4,-204,-122,531,-82,-9,-19
165,82,-82,-124,124,0,-204,-122,522,-87,-14,-19
175,82,-92,-129,134,-4,-204,-122,522,-92,-14,-19
180,78,-102,-129,141,-12,-204,-117,522,-92,-14,-24
180,68,-112,-124,146,-21,-204,-117,517,-102,-29,-24
180,63,-117,-122,148,-26,-204,-117,512,-102,-34,-29
185,58,-126,-122,156,-34,-200,-117,507,-102,-34,-29
185,53,-131,-119,158,-39,-200,-112,502,-107,-39,-29
185,53,-131,-119,158,-39,-200,-122,492,-117,-48,-39
180,48,-131,-114,156,-41,-190,-122,488,-117,-48,-43
175,43,-131,-109,153,-43,-185,-122,488,-117,-53,-43
170,34,-136,-102,153,-51,-180,-117,483,-122,-53,-53
156,24,-131,-90,143,-53,-185,-126,473,-131,-68,-53
156,19,-136,-87,146,-58,-180,-126,473,-136,-73,-53
141,9,-131,-75,136,-61,-175,-131,473,-136,-73,-58
136,0,-136,-68,136,-68,-170,-136,468,-146,-78,-58
126,0,-126,-63,126,-63,-175,-146,463,-156,-82,-73
117,-9,-126,-53,122,-68,-170,-151,458,-161,-87,-78
122,-14,-136,-53,129,-75,-165,-151,448,-161,-92,-82
126,-24,-151,-51,139,-87,-161,-151,439,-165,-92,-82
122,-29,-151,-46,136,-90,-156,-151,434,-170,-97,-87
122,-39,-161,-41,141,-100,-156,-151,424,-175,-102,-92
117,-39,-156,-39,136,-97,-156,-156,414,-175,-107,-97
117,-43,-161,-36,139,-102,-156,-156,405,-180,-112,-102
126,-48,-175,-39,151,-112,-156,-156,390,-175,-107,-107
117,-53,-170,-31,143,-112,-156,-156,385,-180,-107,-107
117,-58,-175,-29,146,-117,-156,-156,380,-180,-112,-107
117,-58,-175,-29,146,-117,-156,-156,370,-185,-112,-107
122,-48,-170,-36,146,-109,-156,-156,366,-175,-112,-107
122,-48,-170,-36,146,-109,-151,-156,361,-170,-112,-107
122,-48,-170,-36,146,-109,-151,-151,356,-170,-112,-107
122,-48,-170,-36,146,-109,-151,-151,351,-170,-112,-107
126,-48,-175,-39,151,-112,-161,-141,366,-165,-112,-112
126,-48,-175,-39,151,-112,-161,-141,356,-165,-112,-112
126,-48,-175,-39,151,-112,-156,-141,346,-165,-107,-112
131,-48,-180,-41,156,-114,-156,-141,336,-170,-107,-112
141,-48,-190,-46,165,-119,-156,-151,331,-161,-107,-112
141,-48,-190,-46,165,-119,-156,-151,331,-161,-107,-112
136,-48,-185,-43,161,-117,-156,-151,331,-161,-107,-112
136,-48,-185,-43,161,-117,-156,-151,331,-161,-107,-112
146,-53,-200,-46,173,-126,-156,-151,326,-170,-117,-112
146,-53,-200,-46,173,-126,-156,-151,322,-170,-112,-112
151,-53,-204,-48,178,-129,-156,-151,312,-170,-112,-112
161,-43,-204,-58,183,-124,-156,-151,307,-175,-122,-112
161,-43,-204,-58,183,-124,-156,-141,307,-175,-122,-117
161,-43,-204,-58,183,-124,-161,-136,317,-170,-122,-117
161,-43,-204,-58,183,-124,-161,-131,326,-165,-122,-117
156,-43,-200,-56,178,-122,-161,-131,322,-156,-122,-117
156,-39,-195,-58,175,-117,-161,-131,317,-156,-131,-107
151,-39,-190,-56,170,-114,-161,-126,322,-156,-131,-107
151,-34,-185,-58,168,-109,-156,-126,322,-151,-131,-107
151,-24,-175,-63,163,-100,-156,-131,317,-151,-131,-107
161,-19,-180,-70,170,-100,-156,-126,312,-141,-117,-102
170,19,-151,-95,161,-65,-165,-126,322,-122,-107,-92
190,48,-141,-119,165,-46,-170,-117,346,-102,-87,-78
224,107,-117,-165,170,-4,-190,-117,385,-58,-53,-48
268,185,-82,-226,175,51,-224,-112,448,14,-4,-14
312,248,-63,-280,187,92,-248,-92,517,73,29,24
346,331,-14,-339,180,158,-253,-58,605,146,68,39
414,434,19,-424,197,226,-258,4,717,229,131,82
497,556,58,-527,219,307,-263,97,834,322,180,122
614,678,63,-646,275,370,-253,229,961,424,244,161
741,800,58,-771,341,429,-248,395,1098,527,292,195
878,961,82,-919,397,522,-239,566,1254,644,356,239
1000,1112,112,-1056,444,612,-248,722,1400,751,429,297
1137,1239,102,-1188,517,671,-273,858,1498,839,488,336
1259,1312,53,-1285,602,683,-307,980,1537,873,512,351
1307,1288,-19,-1298,663,634,-297,1068,1488,834,478,331
1273,1102,-170,-1188,722,466,-229,1107,1302,668,361,244
1127,800,-326,-963,727,236,-126,1044,1010,439,204,131
917,561,-356,-739,636,102,-68,800,761,253,112,73
756,444,-312,-600,534,65,-58,507,619,151,63,73
683,346,-336,-514,509,4,-63,307,531,82,29,43
585,224,-361,-405,473,-68,-82,131,409,-9,-43,0
429,107,-322,-268,375,-107,-58,-78,273,-92,-73,-19
258,34,-224,-146,241,-95,14,-248,190,-131,-87,-19
87,-24,-112,-31,100,-68,92,-322,165,-141,-92,-29
-68,-82,-14,75,-26,-48,190,-312,200,-151,-102,-48
-175,-165,9,170,-92,-78,302,-273,214,-165,-126,-92
-234,-234,0,234,-117,-117,385,-214,195,-195,-165,-126
-234,-258,-24,246,-104,-141,419,-161,180,-219,-200,-156
-204,-248,-43,226,-80,-146,444,-126,190,-219,-214,-165
-195,-239,-43,217,-75,-141,458,-112,195,-200,-214,-165
-195,-263,-68,229,-63,-165,473,-97,175,-209,-229,-190
-224,-302,-78,263,-73,-190,522,-68,156,-219,-244,-214
-234,-322,-87,278,-73,-204,570,-58,146,-229,-253,-229
-229,-331,-102,280,-63,-217,605,-34,131,-229,-253,-239
-239,-331,-92,285,-73,-212,639,-29,117,-234,-253,-229
-239,-322,-82,280,-78,-202,688,-34,107,-224,-244,-224
-244,-322,-78,283,-82,-200,712,-43,97,-214,-248,-214
-253,-312,-58,283,-97,-185,736,-63,82,-204,-239,-214
-258,-326,-68,292,-95,-197,780,-87,73,-200,-239,-214
-268,-346,-78,307,-95,-212,844,-92,39,-209,-248,-224
-273,-356,-82,314,-95,-219,902,-102,24,-214,-248,-239
-283,-370,-87,326,-97,-229,932,-112,0,-219,-253,-248
-292,-366,-73,329,-109,-219,946,-131,-29,-214,-253,-239
-307,-370,-63,339,-122,-217,946,-156,-53,-214,-253,-234
-302,-370,-68,336,-117,-219,917,-185,-78,-219,-244,-224
-292,-351,-58,322,-117,-204,834,-214,-87,-219,-244,-214
-268,-351,-82,309,-92,-217,756,-239,-107,-214,-234,-195
-263,-341,-78,302,-92,-209,702,-244,-122,-214,-234,-200
-263,-341,-78,302,-92,-209,683,-244,-126,-204,-239,-200
-263,-351,-87,307,-87,-219,639,-253,-146,-195,-239,-200
-244,-331,-87,287,-78,-209,546,-239,-170,-190,-229,-190
-180,-292,-112,236,-34,-202,429,-219,-170,-185,-219,-175
-117,-263,-146,190,14,-204,292,-185,-180,-170,-214,-156
-43,-195,-151,119,53,-173,180,-156,-165,-156,-195,-141
19,-156,-175,68,97,-165,112,-122,-151,-131,-180,-117
53,-141,-195,43,124,-168,97,-82,-141,-122,-170,-122
58,-117,-175,29,117,-146,87,-73,-136,-107,-165,-112
58,-112,-170,26,114,-141,68,-53,-131,-82,-151,-112
58,-102,-161,21,109,-131,53,-48,-131,-87,-146,-107
63,-92,-156,14,109,-124,43,-48,-141,-87,-136,-97
78,-92,-170,7,124,-131,34,-48,-156,-87,-146,-97
92,-82,-175,-4,134,-129,19,-48,-165,-92,-151,-97
112,-82,-195,-14,153,-139,9,-53,-170,-107,-156,-97
117,-87,-204,-14,161,-146,4,-58,-180,-112,-161,-97
107,-92,-200,-7,153,-146,-4,-53,-170,-107,-151,-107
112,-92,-204,-9,158,-148,-9,-43,-165,-102,-146,-107
117,-82,-200,-17,158,-141,-19,-39,-161,-87,-141,-107
126,-73,-200,-26,163,-136,-39,-24,-161,-82,-126,-107
136,-73,-209,-31,173,-141,-34,-29,-165,-87,-126,-97
141,-73,-214,-34,178,-143,-43,-19,-180,-92,-126,-97
151,-68,-219,-41,185,-143,-48,-19,-195,-97,-126,-97
170,-63,-234,-53,202,-148,-48,-19,-200,-112,-131,-97
165,-73,-239,-46,202,-156,-48,-19,-190,-102,-131,-107
146,-82,-229,-31,187,-156,-48,-19,-180,-97,-131,-107
141,-82,-224,-29,183,-153,-48,-19,-175,-87,-126,-107
156,-73,-229,-41,192,-151,-58,-9,-170,-82,-117,-107
161,-58,-219,-51,190,-139,-58,-4,-180,-92,-112,-107
165,-58,-224,-53,195,-141,-68,-4,-175,-92,-107,-107
175,-58,-234,-58,204,-146,-68,0,-175,-102,-107,-107
200,-58,-258,-70,229,-158,-63,0,-175,-102,-117,-107
185,-68,-253,-58,219,-161,-53,0,-161,-97,-107,-112
170,-73,-244,-48,207,-158,-53,0,-141,-87,-102,-112
156,-73,-229,-41,192,-151,-53,0,-131,-73,-97,-112
151,-73,-224,-39,187,-148,-53,0,-117,-63,-92,-112
165,-53,-219,-56,192,-136,-63,9,-97,-68,-82,-102
175,-48,-224,-63,200,-136,-63,9,-92,-68,-82,-92
175,-48,-224,-63,200,-136,-63,9,-87,-68,-78,-92
170,-58,-229,-56,200,-143,-63,9,-87,-78,-78,-92
161,-48,-209,-56,185,-129,-53,19,-63,-68,-78,-92
161,-48,-209,-56,185,-129,-53,19,-53,-63,-78,-92
161,-48,-209,-56,185,-129,-53,24,-34,-63,-78,-92
161,-48,-209,-56,185,-129,-53,29,-14,-53,-73,-92
170,-39,-209,-65,190,-124,-63,48,0,-48,-63,-87
170,-34,-204,-68,187,-119,-63,48,9,-48,-63,-87
175,-29,-204,-73,190,-117,-58,48,14,-48,-68,-82
185,-24,-209,-80,197,-117,-58,48,19,-58,-68,-82
180,-34,-214,-73,197,-124,-39,53,24,-48,-63,-68
161,-48,-209,-56,185,-129,-34,53,43,-48,-63,-68
156,-48,-204,-53,180,-126,-34,58,58,-48,-58,-68
151,-48,-200,-51,175,-124,-34,63,78,-39,-58,-68
136,-43,-180,-46,158,-112,-34,73,87,-34,-39,-58
126,-43,-170,-41,148,-107,-34,78,97,-34,-34,-53
141,-29,-170,-56,156,-100,-34,87,97,-34,-34,-48
146,-29,-175,-58,161,-102,-34,92,102,-43,-34,-43
131,-39,-170,-46,151,-104,-29,92,117,-43,-34,-48
122,-43,-165,-39,143,-104,-14,92,131,-39,-34,-48
117,-43,-161,-36,139,-102,-4,92,146,-39,-29,-53
112,-39,-151,-36,131,-95,4,97,165,-29,-19,-53
102,-29,-131,-36,117,-80,4,107,180,-9,-9,-43
102,-19,-122,-41,112,-70,0,112,190,-4,0,-39
102,-14,-117,-43,109,-65,0,117,200,-4,14,-39
112,-9,-122,-51,117,-65,0,122,204,-4,19,-39
102,-9,-112,-46,107,-61,4,112,214,-4,9,-39
102,-19,-122,-41,112,-70,14,107,214,-4,9,-39
102,-19,-122,-41,112,-70,19,107,229,0,9,-43
102,-19,-122,-41,112,-70,24,117,239,0,9,-43
87,-14,-102,-36,95,-58,29,126,244,9,14,-43
87,-9,-97,-39,92,-53,29,146,253,14,24,-43
87,4,-82,-46,85,-39,29,161,263,14,29,-43
92,4,-87,-48,90,-41,29,165,263,14,29,-43
82,9,-73,-46,78,-31,39,170,258,14,24,-43
87,9,-78,-48,82,-34,48,170,253,14,14,-43
92,9,-82,-51,87,-36,53,175,253,14,14,-43
92,9,-82,-51,87,-36,58,185,263,14,19,-43
78,9,-68,-43,73,-29,63,200,253,29,19,-39
78,14,-63,-46,70,-24,63,209,253,29,29,-39
82,24,-58,-53,70,-17,68,219,248,29,29,-34
87,29,-58,-58,73,-14,82,219,244,29,29,-29
107,34,-73,-70,90,-19,87,214,224,24,14,-29
112,34,-78,-73,95,-21,92,214,214,24,14,-29
117,34,-82,-75,100,-24,102,224,209,24,4,-29
117,34,-82,-75,100,-24,107,229,204,24,4,-34
126,34,-92,-80,109,-29,112,224,190,29,9,-34
117,34,-82,-75,100,-24,117,234,190,39,14,-34
117,43,-73,-80,95,-14,117,244,190,43,14,-34
122,53,-68,-87,95,-7,117,248,185,43,14,-24
131,48,-82,-90,107,-17,136,253,175,34,19,-24
131,48,-82,-90,107,-17,141,253,156,34,19,-24
126,48,-78,-87,102,-14,156,253,146,34,19,-24
122,48,-73,-85,97,-12,165,253,136,43,19,-29
107,58,-48,-82,78,4,170,263,136,58,19,-19
107,68,-39,-87,73,14,180,268,136,63,29,-14
102,73,-29,-87,65,21,185,273,136,68,34,-14
87,78,-9,-82,48,34,190,278,131,73,34,-9
92,92,0,-92,46,46,204,278,122,73,34,4
87,92,4,-90,41,48,209,278,117,68,34,4
82,92,9,-87,36,51,219,283,107,68,34,4
78,92,14,-85,31,53,234,283,102,68,34,9
68,92,24,-80,21,58,229,283,97,68,34,19
63,92,29,-78,17,61,229,283,102,78,34,19
58,92,34,-75,12,63,229,283,112,82,39,19
58,102,43,-80,7,73,229,283,112,87,48,19
53,102,48,-78,2,75,229,292,107,87,39,29
53,102,48,-78,2,75,234,287,97,82,39,29
53,102,48,-78,2,75,234,283,87,82,39,29
53,92,39,-73,7,65,234,268,82,82,39,29
43,102,58,-73,-7,80,239,263,82,92,48,43
43,102,58,-73,-7,80,239,258,87,97,48,43
29,102,73,-65,-21,87,229,253,87,107,53,43
19,107,87,-63,-34,97,224,244,87,107,53,43
4,107,102,-56,-48,104,219,239,73,107,73,68
9,107,97,-58,-43,102,209,224,58,107,73,73
4,102,97,-53,-46,100,204,209,53,97,73,73
0,92,92,-46,-46,92,195,204,43,97,73,73
-24,102,126,-39,-75,114,185,185,43,97,82,82
-29,102,131,-36,-80,117,175,175,39,102,82,82
-34,102,136,-34,-85,119,165,165,34,102,87,82
-39,102,141,-31,-90,122,146,156,34,107,92,87
-43,97,141,-26,-92,119,131,156,19,107,97,97
-48,97,146,-24,-97,122,117,146,9,107,97,97
-53,97,151,-21,-102,124,112,126,0,97,97,97
-58,87,146,-14,-102,117,102,117,-9,92,97,97
-78,92,170,-7,-124,131,92,107,-29,92,92,92
-82,78,161,2,-122,119,82,97,-29,92,92,92
-87,78,165,4,-126,122,73,87,-29,97,92,92
-92,78,170,7,-131,124,63,82,-34,97,92,92
-92,87,180,2,-136,134,53,82,-43,87,92,92
-92,87,180,2,-136,134,48,73,-63,87,92,92
-97,78,175,9,-136,126,39,58,-82,82,87,92
-102,68,170,17,-136,119,34,48,-92,73,82,92
-102,68,170,17,-136,119,29,39,-112,68,78,82
-107,68,175,19,-141,122,24,34,-112,68,73,78
-117,53,170,31,-143,112,19,29,-117,68,73,78
-126,43,170,41,-148,107,19,24,-122,73,73,82
-117,63,180,26,-148,122,0,24,-136,73,73,73
-117,63,180,26,-148,122,-4,19,-151,68,73,73
-122,58,180,31,-151,119,-9,14,-165,63,73,73
-122,48,170,36,-146,109,-9,14,-180,58,63,68
-122,39,161,41,-141,100,-19,19,-190,53,48,58
-122,34,156,43,-139,95,-19,14,-195,53,48,58
-136,29,165,53,-151,97,-19,14,-200,53,48,48
-146,14,161,65,-153,87,-29,14,-204,53,48,48
-146,24,170,61,-158,97,-34,14,-209,43,48,48
-141,29,170,56,-156,100,-34,14,-214,43,48,48
-136,29,165,53,-151,97,-39,14,-224,39,48,48
-131,29,161,51,-146,95,-39,9,-229,39,48,48
-136,24,161,56,-148,92,-29,0,-239,39,39,48
-141,19,161,61,-151,90,-29,0,-239,39,34,48
-141,14,156,63,-148,85,-29,0,-239,34,34,48
-141,14,156,63,-148,85,-29,-4,-244,34,34,39
-131,9,141,61,-136,75,-29,-19,-234,34,34,39
-136,9,146,63,-141,78,-29,-19,-234,34,34,39
-141,4,146,68,-143,75,-29,-19,-234,34,34,39
-146,4,151,70,-148,78,-29,-24,-234,29,34,39
-136,14,151,61,-143,82,-29,-24,-224,39,24,39
-141,14,156,63,-148,85,-29,-29,-229,39,24,39
-146,9,156,68,-151,82,-29,-29,-229,39,24,39
-146,9,156,68,-151,82,-29,-29,-229,39,24,39
-136,9,146,63,-141,78,-39,-39,-239,29,34,29
-136,9,146,63,-141,78,-39,-43,-239,29,34,24
-136,4,141,65,-139,73,-39,-53,-244,29,29,24
-136,4,141,65,-139,73,-39,-58,-244,29,29,19
-126,4,131,61,-129,68,-48,-73,-248,29,39,19
-126,4,131,61,-129,68,-48,-73,-253,24,39,19
-126,4,131,61,-129,68,-48,-73,-253,24,39,19
-126,4,131,61,-129,68,-48,-73,-258,19,34,14
-117,-4,112,61,-114,53,-48,-82,-273,19,39,14
-112,-9,102,61,-107,46,-48,-82,-278,14,39,14
-107,-14,92,61,-100,39,-48,-82,-278,9,34,14
-97,-19,78,58,-87,29,-48,-82,-283,9,34,14
-87,-19,68,53,-78,24,-53,-73,-292,19,43,19
-87,-24,63,56,-75,19,-53,-68,-297,19,43,19
-87,-24,63,56,-75,19,-53,-68,-302,19,39,14
-82,-24,58,53,-70,17,-53,-63,-307,19,39,14
-78,-24,53,51,-65,14,-63,-48,-312,19,39,14
-78,-24,53,51,-65,14,-63,-48,-317,19,39,9
-73,-24,48,48,-61,12,-63,-48,-322,24,43,9
-73,-24,48,48,-61,12,-63,-48,-326,29,48,9
-78,-34,43,56,-61,4,-58,-39,-326,39,58,19
-78,-34,43,56,-61,4,-58,-34,-331,34,58,19
-73,-34,39,53,-56,2,-58,-34,-336,34,58,14
-73,-34,39,53,-56,2,-58,-34,-341,34,53,14
-78,-34,43,56,-61,4,-58,-43,-351,39,63,14
-78,-34,43,56,-61,4,-58,-43,-351,39,63,14
-78,-34,43,56,-61,4,-58,-43,-351,39,63,14
-78,-34,43,56,-61,4,-58,-43,-351,39,63,9
-82,-34,48,58,-65,7,-43,-58,-341,34,73,9
-82,-34,48,58,-65,7,-43,-58,-341,34,73,9
-82,-34,48,58,-65,7,-43,-58,-341,34,73,9
-82,-39,43,61,-63,2,-43,-58,-336,34,73,9
-92,-39,53,65,-73,7,-43,-68,-326,24,82,9
-92,-39,53,65,-73,7,-43,-68,-326,24,82,9
-87,-39,48,63,-68,4,-48,-68,-326,19,82,9
-87,-39,48,63,-68,4,-48,-68,-322,19,82,4
-87,-43,43,65,-65,0,-39,-58,-317,19,82,14
-87,-43,43,65,-65,0,-39,-58,-302,19,82,14
-87,-43,43,65,-65,0,-39,-58,-292,19,82,14
-87,-43,43,65,-65,0,-39,-58,-287,19,82,14
-87,-43,43,65,-65,0,-39,-48,-283,19,78,4
-87,-43,43,65,-65,0,-39,-48,-278,19,78,4
-82,-43,39,63,-61,-2,-39,-48,-268,19,73,4
-82,-43,39,63,-61,-2,-39,-48,-263,19,73,4
-73,-39,34,56,-53,-2,-43,-48,-248,19,78,4
-73,-39,34,56,-53,-2,-43,-43,-244,19,82,4
-78,-34,43,56,-61,4,-43,-43,-234,24,87,4
-78,-34,43,56,-61,4,-43,-43,-224,24,92,9
-73,-24,48,48,-61,12,-43,-43,-229,19,92,0
-68,-24,43,46,-56,9,-43,-39,-229,14,92,0
-63,-29,34,46,-48,2,-43,-39,-229,9,92,0
-58,-29,29,43,-43,0,-43,-39,-224,9,92,0
-58,-24,34,41,-46,4,-53,-43,-219,4,92,0
-58,-19,39,39,-48,9,-53,-43,-219,4,97,0
-63,-14,48,39,-56,17,-53,-43,-214,4,97,0
-63,-4,58,34,-61,26,-53,-39,-214,4,102,0
-53,4,58,24,-56,31,-53,-39,-219,4,102,-9
-53,4,58,24,-56,31,-53,-39,-219,4,102,-9
-53,4,58,24,-56,31,-53,-39,-214,9,102,-9
-53,4,58,24,-56,31,-53,-34,-209,9,107,-9
-43,4,48,19,-46,26,-63,-34,-209,0,107,-19
-43,9,53,17,-48,31,-63,-34,-204,0,102,-19
-43,9,53,17,-48,31,-63,-34,-200,0,97,-14
-43,9,53,17,-48,31,-63,-34,-195,0,97,-14
-43,9,53,17,-48,31,-63,-34,-195,4,87,-14
-39,9,48,14,-43,29,-63,-34,-195,4,87,-14
-39,9,48,14,-43,29,-63,-34,-200,4,87,-14
-39,14,53,12,-46,34,-63,-34,-195,4,92,-14
-43,14,58,14,-51,36,-63,-39,-200,14,82,-4
-48,14,63,17,-56,39,-63,-39,-185,14,82,-4
-53,14,68,19,-61,41,-63,-39,-165,19,82,-4
-58,14,73,21,-65,43,-63,-34,-146,19,82,-4
-63,4,68,29,-65,36,-58,-34,-146,9,73,0
-63,4,68,29,-65,36,-58,-34,-141,9,73,0
-63,4,68,29,-65,36,-58,-34,-141,9,73,0
-63,4,68,29,-65,36,-58,-34,-141,9,73,0
-63,4,68,29,-65,36,-58,-43,-122,9,63,9
-63,4,68,29,-65,36,-58,-43,-131,9,63,9
-63,4,68,29,-65,36,-58,-43,-151,9,63,9
-63,4,68,29,-65,36,-58,-43,-170,9,63,9
-48,4,53,21,-51,29,-73,-39,-165,0,53,4
-39,4,43,17,-41,24,-73,-39,-161,0,48,0
-34,4,39,14,-36,21,-73,-39,-161,-4,43,-4
-29,9,39,9,-34,24,-78,-43,-156,-4,39,-9
-19,9,29,4,-24,19,-78,-34,-151,-4,39,-19
-19,9,29,4,-24,19,-78,-34,-141,-4,39,-19
-19,9,29,4,-24,19,-78,-34,-122,0,39,-19
-19,9,29,4,-24,19,-78,-34,-97,0,39,-19
-19,19,39,0,-29,29,-92,-29,-102,4,39,-19
-19,19,39,0,-29,29,-92,-29,-97,4,39,-19
-19,19,39,0,-29,29,-92,-29,-92,4,39,-19
-19,19,39,0,-29,29,-92,-34,-87,0,39,-14
-29,19,48,4,-39,34,-92,-43,-78,9,48,-14
-29,19,48,4,-39,34,-92,-43,-78,9,48,-14
-29,14,43,7,-36,29,-92,-43,-73,9,53,-14
-34,14,48,9,-41,31,-92,-43,-68,9,53,-14
-34,4,39,14,-36,21,-82,-53,-68,9,63,-4
-34,4,39,14,-36,21,-87,-53,-68,9,63,-4
-34,4,39,14,-36,21,-87,-53,-63,9,63,0
-34,4,39,14,-36,21,-87,-53,-63,9,63,0
-34,-4,29,19,-31,12,-87,-53,-68,0,63,0
-34,-4,29,19,-31,12,-87,-53,-68,0,63,0
-34,-4,29,19,-31,12,-87,-53,-68,0,63,-4
-34,-4,29,19,-31,12,-87,-53,-68,0,63,-4
-34,-4,29,19,-31,12,-87,-53,-68,0,63,4
-29,-9,19,19,-24,4,-87,-53,-73,0,63,4
-24,-9,14,17,-19,2,-87,-53,-78,0,63,4
-19,-9,9,14,-14,0,-87,-63,-82,0,63,4
-4,-9,-4,7,0,-7,-92,-63,-73,-9,53,-4
0,-9,-9,4,4,-9,-92,-63,-78,-9,53,-4
4,-9,-14,2,9,-12,-92,-68,-82,-9,53,-4
9,-9,-19,0,14,-14,-92,-68,-87,-9,48,-4
19,0,-19,-9,19,-9,-97,-73,-97,-19,39,-9
19,0,-19,-9,19,-9,-102,-73,-97,-19,39,-9
19,0,-19,-9,19,-9,-107,-73,-107,-19,34,-9
19,0,-19,-9,19,-9,-112,-73,-107,-19,29,-9
24,-9,-34,-7,29,-21,-112,-78,-117,-19,24,-9
24,-9,-34,-7,29,-21,-112,-82,-117,-29,19,-14
24,-9,-34,-7,29,-21,-112,-87,-112,-19,14,-14
24,-9,-34,-7,29,-21,-112,-92,-112,-19,4,-14
34,0,-34,-17,34,-17,-112,-92,-117,-29,0,-24
34,4,-29,-19,31,-12,-117,-92,-122,-29,-9,-24
34,4,-29,-19,31,-12,-117,-92,-126,-29,-14,-24
34,4,-29,-19,31,-12,-117,-92,-131,-29,-19,-24
43,-4,-48,-19,46,-26,-117,-92,-141,-39,-19,-24
43,-4,-48,-19,46,-26,-117,-92,-141,-43,-29,-24
43,-4,-48,-19,46,-26,-117,-92,-141,-43,-29,-24
39,-4,-43,-17,41,-24,-117,-92,-141,-43,-29,-24
43,-4,-48,-19,46,-26,-126,-82,-151,-43,-29,-24
43,0,-43,-21,43,-21,-126,-82,-146,-43,-29,-24
43,0,-43,-21,43,-21,-122,-82,-146,-43,-29,-24
43,0,-43,-21,43,-21,-122,-82,-146,-43,-29,-24
34,-9,-43,-12,39,-26,-126,-92,-146,-43,-34,-24
34,-9,-43,-12,39,-26,-126,-92,-141,-48,-34,-24
29,-9,-39,-9,34,-24,-126,-92,-146,-48,-34,-24
29,-9,-39,-9,34,-24,-126,-92,-151,-43,-39,-24
29,0,-29,-14,29,-14,-126,-102,-151,-43,-39,-29
29,-4,-34,-12,31,-19,-122,-102,-151,-43,-39,-29
24,-4,-29,-9,26,-17,-122,-102,-151,-43,-39,-29
24,-4,-29,-9,26,-17,-122,-102,-151,-43,-39,-29
14,-4,-19,-4,17,-12,-112,-102,-146,-43,-39,-29
14,-4,-19,-4,17,-12,-112,-102,-146,-43,-39,-29
14,-4,-19,-4,17,-12,-112,-107,-141,-43,-39,-29
4,-4,-9,0,7,-7,-112,-107,-136,-43,-39,-29
-9,-14,-4,12,-2,-9,-102,-102,-136,-39,-39,-29
-9,-14,-4,12,-2,-9,-102,-92,-131,-39,-39,-24
-14,-14,0,14,-7,-7,-102,-87,-126,-34,-39,-24
-14,-14,0,14,-7,-7,-102,-82,-122,-34,-39,-24
-9,-14,-4,12,-2,-9,-107,-68,-112,-34,-39,-24
-9,-14,-4,12,-2,-9,-107,-68,-107,-34,-39,-24
-9,-14,-4,12,-2,-9,-107,-68,-107,-34,-39,-24
-9,-14,-4,12,-2,-9,-107,-68,-107,-34,-39,-24
-19,-4,14,12,-17,4,-107,-68,-97,-39,-48,-34
-19,-4,14,12,-17,4,-107,-68,-92,-39,-43,-34
-24,-4,19,14,-21,7,-107,-68,-92,-39,-43,-34
-24,-4,19,14,-21,7,-107,-68,-102,-39,-43,-34
-14,-4,9,9,-12,2,-107,-78,-97,-39,-43,-34
-14,-4,9,9,-12,2,-107,-78,-92,-39,-48,-34
-19,-4,14,12,-17,4,-107,-78,-87,-39,-48,-34
-19,-4,14,12,-17,4,-107,-78,-87,-39,-48,-34
-19,4,24,7,-21,14,-107,-87,-78,-39,-48,-34
-24,4,29,9,-26,17,-107,-78,-68,-39,-48,-29
-29,4,34,12,-31,19,-107,-78,-58,-29,-43,-29
-34,4,39,14,-36,21,-107,-78,-53,-34,-43,-29
-29,9,39,9,-34,24,-107,-78,-58,-29,-39,-29
-29,0,29,14,-29,14,-107,-78,-58,-29,-39,-29
-29,0,29,14,-29,14,-107,-78,-58,-29,-39,-29
-29,0,29,14,-29,14,-107,-78,-58,-29,-39,-29
-29,0,29,14,-29,14,-107,-78,-58,-29,-39,-29
-39,-9,29,24,-34,9,-107,-68,-48,-29,-39,-19
-39,-9,29,24,-34,9,-107,-68,-48,-29,-39,-19
-39,-9,29,24,-34,9,-107,-68,-48,-29,-39,-19
-39,-9,29,24,-34,9,-107,-68,-48,-29,-39,-19
-39,-19,19,29,-29,0,-97,-78,-39,-29,-39,-19
-39,-19,19,29,-29,0,-97,-78,-39,-29,-39,-19
-39,-19,19,29,-29,0,-97,-78,-39,-29,-39,-19
-39,-19,19,29,-29,0,-97,-78,-39,-29,-39,-19
-39,-19,19,29,-29,0,-97,-78,-39,-29,-39,-19
-39,-19,19,29,-29,0,-97,-78,-39,-29,-39,-19
-39,-19,19,29,-29,0,-97,-78,-39,-29,-39,-19
-39,-19,19,29,-29,0,-97,-78,-39,-29,-39,-19
-39,-9,29,24,-34,9,-87,-68,-39,-29,-29,-9
-39,-9,29,24,-34,9,-87,-68,-39,-29,-29,-9
-39,-9,29,24,-34,9,-87,-68,-39,-29,-29,-9
-39,-9,29,24,-34,9,-87,-68,-39,-29,-29,-9
-29,-9,19,19,-24,4,-97,-68,-39,-29,-29,-9
-29,-9,19,19,-24,4,-97,-68,-39,-29,-29,-9
-29,-9,19,19,-24,4,-97,-68,-39,-29,-29,-9
-29,-9,19,19,-24,4,-97,-68,-39,-29,-29,-9
-29,-19,9,24,-19,-4,-97,-78,-48,-29,-29,-9
-29,-19,9,24,-19,-4,-97,-78,-48,-29,-29,-9
-29,-19,9,24,-19,-4,-97,-78,-48,-29,-29,-9
-29,-19,9,24,-19,-4,-97,-78,-48,-29,-29,-9
-19,-19,0,19,-9,-9,-97,-78,-58,-29,-29,-9
-19,-19,0,19,-9,-9,-97,-78,-58,-29,-29,-9
-19,-19,0,19,-9,-9,-97,-78,-58,-29,-29,-9
-19,-19,0,19,-9,-9,-97,-78,-58,-29,-29,-9
-19,-19,0,19,-9,-9,-97,-68,-58,-29,-19,0
-19,-19,0,19,-9,-9,-97,-68,-58,-29,-19,0
-19,-19,0,19,-9,-9,-97,-68,-58,-29,-19,0
-19,-19,0,19,-9,-9,-97,-68,-58,-29,-19,0
-19,-19,0,19,-9,-9,-97,-58,-58,-19,-19,0
-19,-19,0,19,-9,-9,-97,-58,-58,-19,-19,0
-19,-19,0,19,-9,-9,-97,-58,-58,-19,-19,0
-19,-19,0,19,-9,-9,-97,-58,-58,-19,-19,0
-9,-29,-19,19,4,-24,-97,-58,-68,-19,-19,0
-9,-29,-19,19,4,-24,-97,-58,-68,-19,-19,0
-9,-29,-19,19,4,-24,-97,-58,-68,-19,-19,0
-9,-29,-19,19,4,-24,-97,-58,-68,-19,-19,0
-19,-29,-9,24,-4,-19,-97,-68,-68,-19,-19,0
-19,-29,-9,24,-4,-19,-97,-68,-68,-19,-19,0
-19,-29,-9,24,-4,-19,-97,-68,-68,-19,-19,0
-19,-29,-9,24,-4,-19,-97,-68,-68,-19,-19,0
-19,-29,-9,24,-4,-19,-97,-68,-68,-29,-19,0
-19,-29,-9,24,-4,-19,-97,-68,-68,-29,-19,0
-19,-29,-9,24,-4,-19,-97,-68,-68,-29,-19,0
-19,-29,-9,24,-4,-19,-97,-68,-68,-29,-19,0
-24,-29,-4,26,-9,-17,-97,-78,-68,-29,-9,9
-29,-29,0,29,-14,-14,-97,-78,-68,-29,-9,9
-34,-29,4,31,-19,-12,-97,-78,-68,-29,-9,9
-39,-29,9,34,-24,-9,-97,-78,-68,-29,-9,9
-48,-39,9,43,-29,-14,-97,-78,-68,-29,-9,9
-48,-39,9,43,-29,-14,-97,-78,-68,-29,-9,9
-48,-39,9,43,-29,-14,-97,-78,-68,-29,-9,9
-48,-39,9,43,-29,-14,-97,-78,-68,-29,-9,9
-39,-29,9,34,-24,-9,-97,-78,-78,-29,-19,9
-39,-29,9,34,-24,-9,-97,-78,-78,-29,-19,9
-39,-29,9,34,-24,-9,-97,-78,-78,-29,-19,9
-39,-29,9,34,-24,-9,-97,-78,-78,-29,-19,9
-48,-29,19,39,-34,-4,-97,-78,-87,-29,-29,9
-48,-29,19,39,-34,-4,-97,-78,-87,-29,-29,9
-48,-29,19,39,-34,-4,-97,-78,-87,-29,-29,9
-48,-29,19,39,-34,-4,-97,-78,-87,-29,-29,9
-43,-19,24,31,-34,2,-97,-68,-87,-29,-29,0
-39,-19,19,29,-29,0,-97,-68,-87,-29,-29,0
-34,-19,14,26,-24,-2,-97,-68,-87,-29,-29,0
-29,-19,9,24,-19,-4,-97,-68,-87,-29,-29,0
-39,-19,19,29,-29,0,-97,-58,-87,-29,-19,0
-39,-19,19,29,-29,0,-97,-58,-87,-29,-19,0
-39,-19,19,29,-29,0,-97,-58,-87,-29,-19,0
-39,-19,19,29,-29,0,-97,-58,-87,-29,-19,0
-48,-9,39,29,-43,14,-97,-68,-87,-19,-19,0
-48,-9,39,29,-43,14,-97,-68,-87,-19,-19,0
-48,-9,39,29,-43,14,-97,-68,-87,-19,-19,0
-48,-9,39,29,-43,14,-97,-68,-87,-19,-19,0
-58,-14,43,36,-51,14,-107,-68,-92,-19,-19,0
-68,-19,48,43,-58,14,-107,-68,-97,-19,-19,0
-58,-24,34,41,-46,4,-107,-68,-97,-24,-19,0
-58,-24,34,41,-46,4,-107,-68,-102,-24,-14,0
-63,-34,29,48,-46,-2,-97,-68,-107,-24,-14,9
-63,-29,34,46,-48,2,-97,-68,-102,-24,-14,9
-63,-29,34,46,-48,2,-97,-63,-97,-19,-14,9
-58,-29,29,43,-43,0,-97,-63,-97,-19,-9,14
-58,-14,43,36,-51,14,-92,-48,-102,-9,0,14
-58,-9,48,34,-53,19,-92,-48,-97,-9,0,14
-53,-4,48,29,-51,21,-92,-48,-92,-4,4,19
-48,0,48,24,-48,24,-82,-48,-92,0,9,19
-48,9,58,19,-53,34,-78,-48,-78,9,9,24
-39,19,58,9,-48,39,-78,-48,-78,14,14,24
-39,29,68,4,-53,48,-73,-48,-78,19,14,29
-39,39,78,0,-58,58,-73,-48,-92,19,19,29
-39,43,82,-2,-61,63,-63,-43,-87,24,19,39
-39,43,82,-2,-61,63,-63,-43,-87,24,19,39
-29,53,82,-12,-56,68,-63,-43,-87,24,19,39
-29,53,82,-12,-56,68,-63,-43,-87,24,24,43
-29,53,82,-12,-56,68,-68,-39,-82,34,24,34
-29,53,82,-12,-56,68,-73,-39,-82,34,24,34
-29,53,82,-12,-56,68,-73,-43,-82,34,24,34
-19,58,78,-19,-48,68,-78,-43,-78,34,24,34
-14,53,68,-19,-41,61,-97,-43,-68,24,24,34
0,58,58,-29,-29,58,-107,-53,-68,29,24,39
9,63,53,-36,-21,58,-117,-53,-78,29,29,39
14,68,53,-41,-19,61,-126,-53,-82,29,29,39
19,68,48,-43,-14,58,-136,-58,-87,29,34,39
19,68,48,-43,-14,58,-146,-63,-97,29,34,43
19,68,48,-43,-14,58,-156,-68,-97,29,34,43
19,68,48,-43,-14,58,-165,-68,-102,29,34,43
34,73,39,-53,-2,56,-165,-82,-107,29,34,48
34,73,39,-53,-2,56,-170,-82,-107,29,34,48
34,73,39,-53,-2,56,-175,-82,-112,29,34,48
34,73,39,-53,-2,56,-175,-82,-126,29,34,48
43,63,19,-53,12,41,-175,-82,-126,29,29,39
43,63,19,-53,12,41,-175,-82,-131,24,29,39
48,63,14,-56,17,39,-175,-82,-141,19,24,39
53,63,9,-58,21,36,-175,-82,-141,14,24,39
63,68,4,-65,29,36,-175,-68,-131,14,24,34
73,68,-4,-70,39,31,-175,-68,-136,14,19,34
