I,II,III,aVR,aVL,aVF,V1,V2,V3,V4,V5,V6,
-48,-48,0,48,-24,-24,0,-58,-39,-19,-19,-48
-48,-48,0,48,-24,-24,0,-63,-39,-14,-14,-48
-48,-48,0,48,-24,-24,0,-68,-39,-9,-9,-48
-48,-48,0,48,-24,-24,0,-68,-39,-9,-9,-48
-48,-48,0,48,-24,-24,0,-68,-39,-9,-9,-48
-48,-48,0,48,-24,-24,0,-68,-39,-14,-9,-48
-48,-48,0,48,-24,-24,0,-68,-39,-19,-9,-48
-48,-48,0,48,-24,-24,0,-68,-39,-19,-9,-48
-48,-48,0,48,-24,-24,0,-68,-39,-19,-9,-48
-53,-48,4,51,-29,-21,4,-68,-39,-19,-9,-48
-58,-48,9,53,-34,-19,9,-68,-39,-19,-9,-48
-58,-48,9,53,-34,-19,9,-68,-39,-19,-9,-48
-58,-48,9,53,-34,-19,9,-68,-39,-19,-9,-48
-53,-53,0,53,-26,-26,9,-68,-39,-14,-9,-48
-48,-58,-9,53,-19,-34,9,-68,-39,-9,-9,-48
-48,-63,-14,56,-17,-39,9,-68,-34,-9,-9,-48
-48,-68,-19,58,-14,-43,9,-68,-29,-9,-9,-48
-48,-68,-19,58,-14,-43,9,-68,-29,-4,-4,-43
-48,-68,-19,58,-14,-43,9,-68,-29,0,0,-39
-48,-63,-14,56,-17,-39,14,-63,-24,4,4,-39
-48,-58,-9,53,-19,-34,19,-58,-19,9,9,-39
-43,-48,-4,46,-19,-26,24,-58,-9,19,19,-29
-39,-39,0,39,-19,-19,29,-58,0,29,29,-19
-39,-29,9,34,-24,-9,34,-58,9,34,34,-9
-39,-19,19,29,-29,0,39,-58,19,39,39,0
-34,-9,24,21,-29,7,43,-53,24,48,43,9
-29,0,29,14,-29,14,48,-48,29,58,48,19
-24,0,24,12,-24,12,48,-48,34,63,53,19
-14,4,19,4,-17,12,43,-43,39,68,58,24
-9,9,19,0,-14,14,43,-39,48,73,63,34
-9,9,19,0,-14,14,39,-39,53,78,63,34
-9,14,24,-2,-17,19,29,-34,58,82,78,39
-4,24,29,-9,-17,26,9,-43,63,82,92,48
9,53,43,-31,-17,48,-14,-53,68,92,97,58
14,63,48,-39,-17,56,-34,-53,68,102,107,68
24,58,34,-41,-4,46,-34,-48,68,102,107,68
29,14,-14,-21,21,0,-34,-39,43,78,87,48
34,-14,-48,-9,41,-31,-24,-39,14,58,68,34
34,-43,-78,4,56,-61,-19,-39,0,39,48,14
34,-48,-82,7,58,-65,-19,-39,-4,39,48,19
34,-53,-87,9,61,-70,-19,-39,-4,39,53,24
29,-63,-92,17,61,-78,-24,-39,0,39,53,24
24,-68,-92,21,58,-80,-24,-39,0,39,48,19
9,-73,-82,31,46,-78,-19,-39,0,39,48,14
-14,-97,-82,56,34,-90,-4,-39,0,39,43,4
-34,-102,-68,68,17,-85,4,-53,-4,24,29,0
-48,-126,-78,87,14,-102,4,-58,-24,9,14,-14
-48,-136,-87,92,19,-112,4,-58,-24,4,14,-24
-48,-136,-87,92,19,-112,4,-58,-24,4,14,-24
-48,-141,-92,95,21,-117,4,-53,-24,4,9,-24
-48,-141,-92,95,21,-117,9,-48,-24,4,9,-24
-53,-156,-102,104,24,-129,9,-48,-24,0,9,-24
-53,-156,-102,104,24,-129,14,-48,-24,0,14,-29
-58,-161,-102,109,21,-131,24,-48,-24,0,14,-29
-63,-165,-102,114,19,-134,29,-48,-24,0,14,-29
-63,-165,-102,114,19,-134,29,-48,-24,0,9,-29
-68,-170,-102,119,17,-136,29,-53,-24,0,4,-29
-68,-170,-102,119,17,-136,29,-53,-24,0,4,-34
-68,-175,-107,122,19,-141,34,-53,-24,0,4,-34
-68,-175,-107,122,19,-141,34,-48,-24,4,9,-34
-68,-175,-107,122,19,-141,34,-48,-24,4,14,-34
-68,-175,-107,122,19,-141,34,-48,-24,4,14,-34
-63,-175,-112,119,24,-143,34,-48,-24,4,14,-34
-63,-170,-107,117,21,-139,34,-48,-24,4,9,-39
-68,-175,-107,122,19,-141,34,-48,-24,4,9,-39
-82,-190,-107,136,12,-148,58,-34,-14,4,4,-43
-107,-204,-97,156,-4,-151,102,-19,14,14,4,-58
-117,-214,-97,165,-9,-156,151,9,53,29,4,-68
-112,-248,-136,180,12,-192,190,78,82,43,9,-68
-43,-258,-214,151,85,-236,209,185,112,82,43,-39
92,-263,-356,85,224,-309,229,366,136,131,87,9
248,-131,-380,-58,314,-256,204,502,268,287,253,185
370,68,-302,-219,336,-117,117,517,390,458,444,400
361,209,-151,-285,256,29,-43,302,375,522,531,488
195,190,-4,-192,100,92,-204,-126,63,195,253,297
9,24,14,-17,-2,19,-287,-463,-287,-185,-92,14
-136,-126,9,131,-73,-58,-375,-673,-551,-395,-287,-175
-175,-131,43,153,-109,-43,-536,-785,-717,-488,-361,-248
-102,-112,-9,107,-46,-61,-585,-683,-746,-492,-361,-248
14,-73,-87,29,51,-80,-556,-468,-668,-409,-283,-190
68,-53,-122,-7,95,-87,-424,-263,-522,-302,-209,-131
68,-34,-102,-17,85,-68,-253,-122,-366,-200,-122,-78
53,34,-19,-43,36,7,-165,-68,-195,-82,-19,-9
34,34,0,-34,17,17,-126,-53,-117,-29,14,4
4,19,14,-12,-4,17,-87,-48,-92,-19,14,0
-29,-19,9,24,-19,-4,-39,-43,-63,-9,14,-19
-39,-53,-14,46,-12,-34,-4,-39,-43,-14,9,-29
-43,-53,-9,48,-17,-31,-4,-39,-43,-14,0,-39
-43,-53,-9,48,-17,-31,-9,-39,-48,-19,-4,-39
-53,-48,4,51,-29,-21,0,-39,-43,-19,-4,-43
-53,-48,4,51,-29,-21,9,-39,-43,-14,-4,-48
-58,-43,14,51,-36,-14,14,-39,-39,-14,-9,-48
-58,-39,19,48,-39,-9,14,-43,-43,-19,-14,-48
-58,-29,29,43,-43,0,19,-43,-43,-19,-14,-53
-58,-24,34,41,-46,4,19,-48,-39,-19,-14,-58
-58,-19,39,39,-48,9,24,-48,-39,-19,-14,-58
-58,-14,43,36,-51,14,29,-48,-39,-19,-9,-58
-53,-9,43,31,-48,17,24,-43,-39,-24,-9,-58
-48,-9,39,29,-43,14,19,-48,-39,-24,-9,-58
-48,0,48,24,-48,24,19,-48,-43,-19,-19,-58
-48,4,53,21,-51,29,14,-48,-43,-19,-19,-58
-53,9,63,21,-58,36,14,-43,-39,-14,-19,-53
-53,14,68,19,-61,41,14,-43,-39,-14,-19,-53
-53,19,73,17,-63,46,14,-39,-34,-14,-14,-53
-53,29,82,12,-68,56,14,-39,-34,-14,-9,-53
-48,29,78,9,-63,53,14,-39,-29,-9,-9,-53
-43,34,78,4,-61,56,14,-29,-24,-9,0,-53
-39,39,78,0,-58,58,14,-29,-24,-4,0,-48
-39,39,78,0,-58,58,14,-24,-19,0,0,-48
-34,43,78,-4,-56,61,14,-19,-9,4,4,-43
-34,48,82,-7,-58,65,19,-9,-4,4,4,-39
-29,48,78,-9,-53,63,14,-4,0,14,14,-34
-29,53,82,-12,-56,68,9,0,9,34,14,-29
-24,58,82,-17,-53,70,4,-4,14,34,19,-29
-19,63,82,-21,-51,73,4,0,14,39,29,-19
-19,63,82,-21,-51,73,9,4,24,39,34,-14
-14,68,82,-26,-48,75,14,9,29,43,39,-4
-9,68,78,-29,-43,73,14,29,39,53,48,0
-9,68,78,-29,-43,73,9,43,43,63,58,9
-4,68,73,-31,-39,70,9,53,53,73,73,24
4,73,68,-39,-31,70,9,53,63,82,87,34
14,73,58,-43,-21,65,14,68,78,97,92,43
14,78,63,-46,-24,70,19,82,92,117,107,58
24,82,58,-53,-17,70,14,97,107,126,117,73
34,92,58,-63,-12,75,9,112,122,141,126,87
43,112,68,-78,-12,90,9,126,136,161,141,102
58,122,63,-90,-2,92,9,141,156,170,165,117
68,136,68,-102,0,102,9,161,175,185,175,122
78,156,78,-117,0,117,9,175,200,209,195,141
92,175,82,-134,4,129,4,190,219,234,219,161
102,195,92,-148,4,143,0,204,239,258,239,180
117,224,107,-170,4,165,-9,229,263,278,268,200
131,244,112,-187,9,178,-14,239,292,302,292,224
141,263,122,-202,9,192,-24,248,312,326,317,244
156,292,136,-224,9,214,-29,268,336,351,341,268
170,317,146,-244,12,231,-39,278,361,375,366,297
185,326,141,-256,21,234,-43,297,380,395,385,322
200,351,151,-275,24,251,-53,307,400,414,405,341
209,375,165,-292,21,270,-63,312,419,439,419,361
224,395,170,-309,26,283,-68,312,429,458,439,370
229,409,180,-319,24,295,-68,312,434,468,448,380
239,434,195,-336,21,314,-78,312,444,473,458,395
239,448,209,-344,14,329,-87,302,448,478,468,405
244,448,204,-346,19,326,-97,283,448,478,478,414
244,453,209,-348,17,331,-112,253,444,478,478,414
234,453,219,-344,7,336,-122,224,429,473,473,414
224,444,219,-334,2,331,-122,200,400,444,458,400
204,414,209,-309,-2,312,-117,165,370,414,429,380
185,380,195,-283,-4,287,-102,136,341,385,400,346
161,346,185,-253,-12,265,-97,107,307,361,370,317
141,302,161,-222,-9,231,-87,82,268,317,326,278
107,258,151,-183,-21,204,-73,63,229,273,283,244
82,214,131,-148,-24,173,-58,39,190,239,248,204
63,180,117,-122,-26,148,-43,24,165,200,209,170
43,131,87,-87,-21,109,-29,9,136,161,175,141
29,107,78,-68,-24,92,-19,-4,107,126,141,112
9,78,68,-43,-29,73,-9,-14,82,97,117,82
0,48,48,-24,-24,48,0,-24,68,82,97,58
-4,24,29,-9,-17,26,0,-34,34,63,73,48
-14,14,29,0,-21,21,4,-39,19,43,63,29
-19,-4,14,12,-17,4,9,-43,9,24,48,14
-29,-19,9,24,-19,-4,14,-48,0,19,39,4
-29,-29,0,29,-14,-14,19,-53,-9,14,34,0
-34,-34,0,34,-17,-17,14,-53,-14,4,24,-9
-34,-43,-9,39,-12,-26,9,-53,-9,0,14,-14
-34,-48,-14,41,-9,-31,14,-58,-24,0,9,-19
-34,-53,-19,43,-7,-36,14,-58,-24,0,4,-19
-34,-53,-19,43,-7,-36,14,-58,-29,-14,0,-19
-39,-53,-14,46,-12,-34,14,-58,-29,-24,0,-24
-39,-53,-14,46,-12,-34,19,-58,-29,-19,0,-19
-39,-53,-14,46,-12,-34,19,-63,-29,-9,0,-14
-39,-58,-19,48,-9,-39,14,-58,-29,-14,0,-14
-39,-58,-19,48,-9,-39,14,-53,-29,-14,-4,-14
-39,-63,-24,51,-7,-43,19,-53,-29,-14,-4,-14
-39,-63,-24,51,-7,-43,19,-53,-29,-9,0,-14
-39,-63,-24,51,-7,-43,24,-53,-29,-9,0,-14
-43,-63,-19,53,-12,-41,29,-53,-29,-9,0,-14
-43,-63,-19,53,-12,-41,24,-53,-34,-9,0,-14
-39,-63,-24,51,-7,-43,24,-53,-34,-9,0,-14
-39,-63,-24,51,-7,-43,24,-53,-29,-9,0,-14
-39,-63,-24,51,-7,-43,24,-53,-29,-9,4,-14
-39,-63,-24,51,-7,-43,24,-53,-29,-9,4,-14
-39,-58,-19,48,-9,-39,24,-53,-24,-4,4,-14
-39,-58,-19,48,-9,-39,24,-53,-24,-4,4,-14
-39,-58,-19,48,-9,-39,24,-53,-24,-4,-4,-14
-39,-58,-19,48,-9,-39,24,-53,-24,-4,-4,-14
-39,-58,-19,48,-9,-39,24,-53,-29,-4,-4,-14
-39,-63,-24,51,-7,-43,19,-53,-29,-9,-4,-14
-39,-63,-24,51,-7,-43,19,-53,-29,-14,-4,-9
-39,-63,-24,51,-7,-43,14,-53,-29,-9,0,-4
-39,-63,-24,51,-7,-43,9,-48,-24,-4,4,-4
-39,-63,-24,51,-7,-43,9,-48,-24,-4,4,-4
-39,-58,-19,48,-9,-39,9,-48,-24,0,4,-4
-39,-63,-24,51,-7,-43,14,-48,-24,0,9,-4
-39,-68,-29,53,-4,-48,19,-48,-24,0,9,-4
-39,-68,-29,53,-4,-48,19,-48,-24,0,4,-4
-39,-68,-29,53,-4,-48,14,-48,-24,0,0,-4
-34,-68,-34,51,0,-51,14,-48,-24,0,0,-4
-34,-68,-34,51,0,-51,14,-48,-24,0,0,-4
-39,-63,-24,51,-7,-43,14,-53,-29,-4,0,-4
-39,-58,-19,48,-9,-39,14,-53,-34,-9,0,-4
-34,-58,-24,46,-4,-41,14,-53,-34,-14,0,-9
-34,-58,-24,46,-4,-41,14,-48,-34,-19,0,-14
-34,-58,-24,46,-4,-41,14,-43,-34,-19,-4,-9
-34,-58,-24,46,-4,-41,14,-39,-34,-19,-4,-9
-39,-63,-24,51,-7,-43,14,-43,-39,-14,-4,-9
-39,-68,-29,53,-4,-48,14,-43,-48,-14,-4,-9
-39,-68,-29,53,-4,-48,14,-43,-48,-14,-4,-9
-39,-68,-29,53,-4,-48,14,-43,-48,-14,-4,-9
-39,-63,-24,51,-7,-43,14,-48,-48,-19,-4,-14
-39,-63,-24,51,-7,-43,14,-53,-48,-24,-4,-14
-39,-63,-24,51,-7,-43,14,-53,-48,-24,-14,-19
-39,-63,-24,51,-7,-43,9,-53,-48,-24,-19,-19
-39,-63,-24,51,-7,-43,9,-53,-53,-24,-14,-19
-39,-63,-24,51,-7,-43,9,-53,-58,-24,-14,-19
-39,-63,-24,51,-7,-43,9,-53,-58,-29,-14,-14
-39,-63,-24,51,-7,-43,9,-53,-58,-34,-14,-14
-39,-63,-24,51,-7,-43,9,-48,-63,-39,-19,-19
-39,-63,-24,51,-7,-43,9,-43,-68,-43,-24,-24
-39,-63,-24,51,-7,-43,9,-43,-68,-43,-29,-24
-39,-63,-24,51,-7,-43,9,-43,-68,-43,-39,-24
-39,-68,-29,53,-4,-48,9,-48,-73,-43,-39,-24
-39,-68,-29,53,-4,-48,9,-48,-73,-48,-39,-29
-39,-63,-24,51,-7,-43,9,-48,-73,-48,-29,-29
-39,-63,-24,51,-7,-43,9,-48,-73,-48,-19,-29
-39,-63,-24,51,-7,-43,9,-48,-78,-48,-29,-29
-39,-63,-24,51,-7,-43,9,-48,-78,-48,-34,-29
-39,-63,-24,51,-7,-43,9,-48,-78,-53,-34,-34
-39,-68,-29,53,-4,-48,9,-48,-78,-53,-39,-39
-43,-68,-24,56,-9,-46,4,-53,-82,-53,-43,-39
-48,-68,-19,58,-14,-43,0,-58,-82,-58,-48,-39
-48,-63,-14,56,-17,-39,0,-58,-82,-58,-48,-39
-48,-58,-9,53,-19,-34,0,-58,-82,-58,-43,-39
-48,-58,-9,53,-19,-34,0,-58,-82,-63,-43,-43
-43,-63,-19,53,-12,-41,0,-58,-82,-68,-48,-48
-43,-63,-19,53,-12,-41,0,-58,-82,-68,-48,-48
-43,-63,-19,53,-12,-41,0,-58,-82,-73,-48,-48
-43,-63,-19,53,-12,-41,0,-58,-82,-73,-48,-48
-43,-63,-19,53,-12,-41,4,-58,-82,-63,-43,-48
-39,-39,0,39,-19,-19,4,-53,-73,-53,-39,-43
-39,-19,19,29,-29,0,9,-53,-63,-48,-34,-39
-34,0,34,17,-34,17,14,-48,-48,-39,-24,-29
-29,19,48,4,-39,34,19,-48,-39,-29,-19,-19
-29,24,53,2,-41,39,19,-48,-39,-29,-19,-14
-29,29,58,0,-43,43,19,-48,-39,-29,-19,-9
-24,34,58,-4,-41,46,19,-48,-34,-24,-14,-9
-14,39,53,-12,-34,46,19,-43,-24,-19,-9,0
-9,48,58,-19,-34,53,24,-39,-19,-14,-4,4
-9,48,58,-19,-34,53,29,-39,-14,-9,-4,4
-9,48,58,-19,-34,53,19,-39,-14,-4,4,9
-4,53,58,-24,-31,56,0,-53,-14,-4,14,19
9,97,87,-53,-39,92,-24,-68,-4,4,19,29
14,122,107,-68,-46,114,-43,-73,0,14,29,39
19,122,102,-70,-41,112,-48,-68,0,24,29,43
19,82,63,-51,-21,73,-53,-58,-24,9,9,29
29,58,29,-43,0,43,-48,-53,-58,-19,-9,14
34,34,0,-34,17,17,-48,-48,-78,-48,-29,-4
34,24,-9,-29,21,7,-48,-48,-82,-58,-39,-14
34,14,-19,-24,26,-2,-48,-48,-82,-68,-43,-24
34,9,-24,-21,29,-7,-53,-48,-82,-68,-43,-24
34,9,-24,-21,29,-7,-53,-48,-87,-68,-48,-29
19,4,-14,-12,17,-4,-48,-48,-87,-68,-48,-34
-4,-19,-14,12,4,-17,-34,-48,-87,-68,-53,-43
-24,-24,0,24,-12,-12,-19,-63,-97,-82,-68,-48
-39,-48,-9,43,-14,-29,-14,-68,-122,-97,-82,-63
-39,-63,-24,51,-7,-43,-14,-68,-126,-102,-87,-73
-39,-68,-29,53,-4,-48,-14,-68,-131,-102,-92,-73
-39,-73,-34,56,-2,-53,-14,-63,-131,-102,-97,-73
-39,-73,-34,56,-2,-53,-9,-58,-131,-102,-97,-73
-48,-87,-39,68,-4,-63,-9,-58,-131,-117,-102,-73
-53,-87,-34,70,-9,-61,-4,-58,-131,-126,-102,-78
-58,-87,-29,73,-14,-58,0,-53,-126,-117,-102,-78
-63,-87,-24,75,-19,-56,0,-48,-122,-107,-102,-78
-58,-92,-34,75,-12,-63,0,-48,-122,-107,-102,-78
-58,-102,-43,80,-7,-73,0,-53,-122,-107,-102,-78
-58,-102,-43,80,-7,-73,0,-53,-126,-112,-107,-82
-58,-107,-48,82,-4,-78,4,-53,-131,-117,-112,-82
-58,-107,-48,82,-4,-78,4,-48,-131,-117,-112,-82
-58,-107,-48,82,-4,-78,4,-48,-131,-122,-112,-82
-58,-107,-48,82,-4,-78,4,-48,-131,-122,-112,-82
-53,-107,-53,80,0,-80,4,-48,-131,-122,-112,-82
-53,-107,-53,80,0,-80,4,-48,-131,-117,-112,-87
-58,-117,-58,87,0,-87,4,-48,-131,-112,-107,-87
-63,-131,-68,97,2,-100,24,-39,-117,-107,-112,-97
-78,-146,-68,112,-4,-107,63,-29,-82,-92,-112,-117
-102,-161,-58,131,-21,-109,112,-14,-39,-78,-112,-126
-112,-200,-87,156,-12,-143,151,39,-4,-63,-107,-126
-78,-239,-161,158,41,-200,180,126,29,-34,-82,-107
24,-273,-297,124,161,-285,209,287,58,4,-48,-68
204,-141,-346,-31,275,-244,209,488,224,229,180,151
351,58,-292,-204,322,-117,146,566,380,468,434,409
395,263,-131,-329,263,65,0,424,414,566,570,566
283,307,24,-295,129,165,-146,68,151,273,341,444
82,126,43,-104,19,85,-185,-278,-258,-180,-78,107
-78,-39,39,58,-58,0,-229,-497,-580,-463,-346,-136
-170,-73,97,122,-134,12,-424,-702,-814,-610,-468,-253
-151,-82,68,117,-109,-7,-507,-692,-912,-668,-517,-297
-19,-63,-43,41,12,-53,-531,-488,-858,-595,-439,-248
48,-63,-112,7,80,-87,-453,-292,-736,-497,-366,-200
63,-58,-122,-2,92,-90,-268,-122,-556,-385,-287,-146
63,-4,-68,-29,65,-36,-165,-39,-361,-258,-195,-78
43,9,-34,-26,39,-12,-126,-24,-253,-185,-141,-48
14,9,-4,-12,9,2,-87,-19,-200,-156,-122,-39
-19,-34,-14,26,-2,-24,-39,-14,-156,-131,-112,-53
-29,-73,-43,51,7,-58,-4,-9,-122,-122,-107,-58
-34,-78,-43,56,4,-61,0,-9,-117,-122,-112,-68
-34,-82,-48,58,7,-65,0,-9,-117,-126,-112,-68
-43,-87,-43,65,0,-65,14,-9,-102,-126,-112,-73
-43,-97,-53,70,4,-75,29,-9,-92,-122,-112,-78
-48,-97,-48,73,0,-73,34,-4,-78,-117,-112,-78
-48,-97,-48,73,0,-73,34,-4,-73,-117,-112,-78
-48,-97,-48,73,0,-73,39,0,-73,-117,-112,-78
-48,-102,-53,75,2,-78,39,0,-68,-117,-112,-78
-48,-102,-53,75,2,-78,39,0,-58,-112,-112,-78
-48,-102,-53,75,2,-78,39,0,-48,-107,-107,-78
-48,-97,-48,73,0,-73,39,9,-48,-107,-107,-78
-48,-97,-48,73,0,-73,39,9,-48,-102,-107,-78
-48,-92,-43,70,-2,-68,43,9,-48,-102,-112,-78
-48,-92,-43,70,-2,-68,43,9,-43,-107,-107,-78
-48,-92,-43,70,-2,-68,48,14,-39,-102,-107,-73
-43,-92,-48,68,2,-70,53,14,-39,-102,-107,-73
-43,-92,-48,68,2,-70,53,19,-34,-102,-107,-73
-43,-87,-43,65,0,-65,53,19,-34,-102,-107,-73
-43,-87,-43,65,0,-65,48,19,-29,-97,-107,-68
-43,-82,-39,63,-2,-61,43,29,-24,-97,-97,-63
-39,-78,-39,58,0,-58,43,29,-24,-92,-97,-58
-39,-78,-39,58,0,-58,43,34,-19,-87,-97,-58
-34,-73,-39,53,2,-56,43,34,-14,-82,-92,-58
-34,-68,-34,51,0,-51,48,39,-14,-82,-92,-58
-29,-68,-39,48,4,-53,48,43,-9,-78,-82,-53
-29,-63,-34,46,2,-48,48,48,0,-63,-82,-48
-24,-58,-34,41,4,-46,43,43,4,-63,-82,-53
-19,-53,-34,36,7,-43,43,48,4,-58,-78,-48
-19,-48,-29,34,4,-39,43,53,14,-58,-73,-43
-14,-39,-24,26,4,-31,43,58,19,-53,-68,-34
-9,-34,-24,21,7,-29,43,63,29,-43,-58,-29
-9,-29,-19,19,4,-24,39,63,34,-34,-48,-19
-4,-24,-19,14,7,-21,39,73,43,-29,-39,-9
4,-14,-19,4,12,-17,39,73,53,-24,-29,-4
9,-9,-19,0,14,-14,39,87,63,-14,-24,0
4,0,-4,-2,4,-2,39,102,73,0,-9,9
14,9,-4,-12,9,2,34,112,87,14,0,19
24,24,0,-24,12,12,29,122,102,34,9,29
29,43,14,-36,7,29,29,131,117,53,24,43
39,53,14,-46,12,34,29,141,136,63,48,58
48,68,19,-58,14,43,24,156,156,78,58,73
58,87,29,-73,14,58,19,165,180,102,78,102
73,112,39,-92,17,75,14,170,200,131,102,122
82,136,53,-109,14,95,9,175,219,161,122,141
97,165,68,-131,14,117,0,200,248,180,146,161
112,185,73,-148,19,129,-4,209,283,204,165,185
122,209,87,-165,17,148,-14,214,302,229,190,204
136,244,107,-190,14,175,-19,229,326,253,214,229
151,273,122,-212,14,197,-29,234,351,278,239,253
165,287,122,-226,21,204,-34,248,370,297,258,273
180,312,131,-246,24,222,-43,253,390,317,287,292
190,336,146,-263,21,241,-53,253,409,341,312,312
200,356,156,-278,21,256,-63,258,424,361,331,331
200,370,170,-285,14,270,-68,263,434,370,341,351
209,395,185,-302,12,290,-78,263,448,380,351,366
209,409,200,-309,4,305,-87,253,458,390,361,375
214,414,200,-314,7,307,-92,248,458,390,370,385
214,424,209,-319,2,317,-102,234,453,390,370,385
209,429,219,-319,-4,324,-117,204,434,385,366,385
204,424,219,-314,-7,322,-122,180,400,356,351,370
190,400,209,-295,-9,305,-122,156,370,326,322,346
175,370,195,-273,-9,283,-112,136,341,297,292,307
151,341,190,-246,-19,265,-102,107,302,268,263,278
131,302,170,-217,-19,236,-87,82,258,219,219,239
102,258,156,-180,-26,207,-73,68,219,175,175,204
82,214,131,-148,-24,173,-58,48,180,141,141,165
63,175,112,-119,-24,143,-48,34,141,87,87,122
43,122,78,-82,-17,100,-39,19,97,34,39,82
34,97,63,-65,-14,80,-29,9,68,0,0,48
19,68,48,-43,-14,58,-19,4,43,-29,-29,14
4,39,34,-21,-14,36,-9,-4,29,-43,-48,-9
-4,14,19,-4,-12,17,-9,-14,-4,-63,-73,-19
-14,4,19,4,-17,12,-4,-19,-24,-87,-82,-39
-19,-14,4,17,-12,-4,0,-24,-39,-112,-97,-53
-29,-29,0,29,-14,-14,4,-29,-48,-117,-107,-63
-29,-39,-9,34,-9,-24,9,-34,-58,-122,-112,-68
-39,-43,-4,41,-17,-24,9,-34,-68,-136,-126,-78
-43,-53,-9,48,-17,-31,9,-34,-68,-146,-141,-82
-43,-58,-14,51,-14,-36,14,-34,-82,-146,-141,-92
-43,-63,-19,53,-12,-41,14,-29,-82,-146,-141,-97
-43,-63,-19,53,-12,-41,14,-29,-87,-151,-146,-97
-48,-63,-14,56,-17,-39,14,-29,-87,-151,-146,-102
-48,-63,-14,56,-17,-39,19,-29,-87,-156,-146,-102
-48,-63,-14,56,-17,-39,19,-34,-87,-156,-146,-102
-48,-68,-19,58,-14,-43,14,-34,-87,-156,-146,-102
-48,-68,-19,58,-14,-43,14,-34,-87,-151,-151,-102
-48,-68,-19,58,-14,-43,19,-34,-87,-151,-151,-102
-48,-63,-14,56,-17,-39,19,-34,-87,-146,-146,-102
-48,-63,-14,56,-17,-39,19,-39,-87,-146,-146,-102
-53,-63,-9,58,-21,-36,19,-43,-87,-146,-146,-102
-53,-63,-9,58,-21,-36,19,-43,-92,-146,-146,-102
-48,-63,-14,56,-17,-39,24,-43,-92,-146,-146,-102
-48,-63,-14,56,-17,-39,24,-39,-87,-146,-146,-97
-48,-63,-14,56,-17,-39,24,-34,-87,-146,-141,-92
-48,-63,-14,56,-17,-39,24,-34,-87,-146,-141,-92
-48,-58,-9,53,-19,-34,24,-34,-82,-141,-141,-92
-48,-58,-9,53,-19,-34,19,-34,-82,-141,-131,-92
-48,-58,-9,53,-19,-34,14,-34,-82,-141,-131,-92
-48,-58,-9,53,-19,-34,14,-34,-78,-136,-131,-92
-48,-58,-9,53,-19,-34,14,-34,-78,-131,-131,-92
-48,-58,-9,53,-19,-34,9,-34,-78,-131,-131,-92
-48,-53,-4,51,-21,-29,9,-34,-78,-131,-131,-87
-48,-53,-4,51,-21,-29,14,-34,-78,-131,-131,-82
-48,-53,-4,51,-21,-29,19,-29,-73,-131,-131,-82
-43,-58,-14,51,-14,-36,19,-29,-73,-131,-131,-82
-39,-58,-19,48,-9,-39,19,-29,-73,-126,-131,-82
-39,-58,-19,48,-9,-39,19,-29,-73,-126,-126,-82
-39,-58,-19,48,-9,-39,19,-29,-73,-126,-126,-82
-39,-58,-19,48,-9,-39,19,-29,-73,-126,-126,-82
-39,-58,-19,48,-9,-39,14,-29,-73,-126,-126,-82
-34,-58,-24,46,-4,-41,14,-29,-73,-122,-126,-82
-34,-58,-24,46,-4,-41,14,-29,-73,-117,-126,-82
-39,-58,-19,48,-9,-39,14,-34,-73,-117,-122,-82
-39,-58,-19,48,-9,-39,14,-34,-73,-117,-117,-82
-34,-58,-24,46,-4,-41,14,-34,-73,-117,-117,-82
-34,-58,-24,46,-4,-41,14,-29,-73,-117,-117,-82
-34,-63,-29,48,-2,-46,14,-29,-73,-117,-122,-78
-34,-68,-34,51,0,-51,14,-29,-73,-117,-122,-78
-39,-68,-29,53,-4,-48,14,-34,-73,-117,-122,-78
-39,-68,-29,53,-4,-48,14,-34,-78,-122,-122,-78
-39,-68,-29,53,-4,-48,14,-34,-78,-117,-122,-78
-39,-68,-29,53,-4,-48,14,-34,-78,-112,-122,-78
-39,-68,-29,53,-4,-48,14,-34,-78,-112,-122,-82
-39,-73,-34,56,-2,-53,14,-34,-78,-112,-122,-82
-39,-73,-34,56,-2,-53,19,-34,-82,-117,-126,-87
-39,-73,-34,56,-2,-53,19,-34,-87,-122,-126,-87
-39,-73,-34,56,-2,-53,19,-34,-87,-122,-122,-87
-39,-73,-34,56,-2,-53,19,-34,-87,-122,-122,-87
-39,-73,-34,56,-2,-53,19,-34,-87,-122,-122,-82
-39,-73,-34,56,-2,-53,19,-34,-87,-122,-122,-82
-39,-78,-39,58,0,-58,19,-34,-82,-122,-122,-87
-39,-82,-43,61,2,-63,19,-34,-78,-122,-122,-92
-39,-82,-43,61,2,-63,19,-34,-78,-122,-122,-92
-39,-82,-43,61,2,-63,19,-34,-78,-122,-126,-92
-39,-87,-48,63,4,-68,19,-39,-82,-117,-126,-87
-39,-87,-48,63,4,-68,19,-39,-82,-117,-126,-87
-39,-82,-43,61,2,-63,14,-39,-82,-117,-126,-87
-39,-82,-43,61,2,-63,9,-39,-82,-117,-126,-87
-39,-82,-43,61,2,-63,9,-39,-82,-117,-122,-87
-39,-82,-43,61,2,-63,9,-39,-78,-117,-112,-87
-39,-82,-43,61,2,-63,14,-39,-78,-117,-112,-87
-39,-87,-48,63,4,-68,19,-39,-78,-112,-117,-87
-39,-87,-48,63,4,-68,19,-39,-82,-107,-117,-87
-39,-87,-48,63,4,-68,19,-39,-82,-107,-117,-87
-39,-87,-48,63,4,-68,19,-34,-82,-107,-117,-87
-39,-87,-48,63,4,-68,19,-29,-82,-107,-112,-87
-43,-87,-43,65,0,-65,19,-29,-78,-107,-112,-87
-43,-92,-48,68,2,-70,19,-29,-73,-107,-117,-87
-43,-92,-48,68,2,-70,19,-34,-73,-107,-117,-82
-43,-92,-48,68,2,-70,19,-39,-73,-112,-117,-78
-43,-92,-48,68,2,-70,19,-39,-73,-112,-117,-78
-43,-92,-48,68,2,-70,19,-39,-73,-102,-112,-78
-43,-92,-48,68,2,-70,24,-39,-73,-102,-112,-78
-43,-92,-48,68,2,-70,24,-39,-73,-102,-112,-78
-43,-92,-48,68,2,-70,24,-39,-73,-102,-107,-78
-43,-92,-48,68,2,-70,19,-39,-73,-102,-97,-78
-34,-73,-39,53,2,-56,24,-39,-58,-87,-87,-63
-29,-58,-29,43,0,-43,29,-39,-48,-78,-78,-48
-29,-43,-14,36,-7,-29,29,-39,-34,-68,-78,-48
-29,-29,0,29,-14,-14,29,-39,-19,-58,-78,-48
-24,-24,0,24,-12,-12,34,-34,-19,-58,-73,-43
-19,-19,0,19,-9,-9,34,-29,-9,-48,-63,-39
-14,-14,0,14,-7,-7,39,-24,0,-39,-58,-34
-9,-9,0,9,-4,-4,39,-19,9,-24,-53,-24
-14,-9,4,12,-9,-2,43,-14,14,-19,-53,-24
-14,0,14,7,-14,7,39,-9,14,-14,-43,-19
-4,14,19,-4,-12,17,19,-24,14,-14,-29,-9
9,43,34,-26,-12,39,-4,-34,19,-4,-19,0
14,73,58,-43,-21,65,-29,-39,29,9,-4,14
19,92,73,-56,-26,82,-34,-39,39,14,0,19
19,53,34,-36,-7,43,-34,-29,14,-9,-19,0
24,29,4,-26,9,17,-29,-29,-14,-29,-39,-14
24,-4,-29,-9,26,-17,-29,-29,-39,-53,-63,-39
24,-19,-43,-2,34,-31,-29,-29,-53,-63,-73,-43
24,-24,-48,0,36,-36,-29,-29,-53,-68,-73,-43
24,-29,-53,2,39,-41,-34,-29,-53,-68,-73,-43
29,-24,-53,-2,41,-39,-34,-29,-58,-68,-78,-43
19,-24,-43,2,31,-34,-29,-29,-58,-68,-78,-43
-4,-48,-43,26,19,-46,-14,-29,-58,-68,-78,-53
-24,-53,-29,39,2,-41,-4,-43,-63,-82,-87,-58
-43,-82,-39,63,-2,-61,-4,-48,-82,-97,-102,-73
-48,-97,-48,73,0,-73,-4,-48,-82,-102,-102,-82
-48,-97,-48,73,0,-73,-4,-48,-82,-102,-102,-87
-48,-102,-53,75,2,-78,-4,-43,-82,-102,-107,-92
-43,-102,-58,73,7,-80,0,-39,-82,-102,-112,-97
-43,-117,-73,80,14,-95,0,-39,-82,-107,-122,-102
-43,-117,-73,80,14,-95,4,-39,-82,-112,-126,-107
-48,-117,-68,82,9,-92,9,-39,-82,-117,-131,-107
-53,-112,-58,82,2,-85,9,-39,-82,-117,-131,-107
-53,-107,-53,80,0,-80,9,-39,-82,-117,-131,-107
-58,-112,-53,85,-2,-82,9,-43,-82,-112,-131,-107
-58,-112,-53,85,-2,-82,9,-43,-82,-107,-131,-112
-58,-117,-58,87,0,-87,14,-43,-87,-107,-131,-112
-58,-117,-58,87,0,-87,14,-39,-92,-107,-131,-112
-58,-117,-58,87,0,-87,14,-39,-92,-112,-126,-107
-58,-117,-58,87,0,-87,14,-39,-92,-112,-122,-102
-53,-117,-63,85,4,-90,14,-39,-92,-112,-122,-102
-53,-117,-63,85,4,-90,14,-39,-92,-112,-126,-107
-58,-122,-63,90,2,-92,4,-43,-97,-117,-131,-107
-73,-131,-58,102,-7,-95,19,-39,-92,-122,-141,-117
-97,-146,-48,122,-24,-97,63,-43,-63,-112,-141,-141
-112,-161,-48,136,-31,-104,112,-39,-19,-97,-141,-156
-141,-200,-58,170,-41,-129,151,-9,14,-87,-146,-165
-117,-214,-97,165,-9,-156,175,68,58,-39,-112,-141
-14,-268,-253,141,119,-261,224,258,97,9,-78,-117
131,-180,-312,24,222,-246,229,424,253,190,107,58
317,58,-258,-187,287,-100,175,566,497,522,453,395
390,258,-131,-324,261,63,43,497,580,707,668,600
287,317,29,-302,129,173,-136,107,258,370,409,463
136,195,58,-165,39,126,-224,-229,-146,-63,29,180
-48,-29,19,39,-34,-4,-278,-483,-541,-414,-307,-107
-146,-112,34,129,-90,-39,-419,-658,-810,-624,-492,-268
-112,-122,-9,117,-51,-65,-512,-629,-907,-673,-536,-312
-14,-97,-82,56,34,-90,-536,-478,-883,-614,-488,-283
58,-82,-141,12,100,-112,-419,-268,-722,-507,-405,-229
78,-68,-146,-4,112,-107,-253,-112,-541,-395,-307,-175
63,14,-48,-39,56,-17,-165,-48,-326,-244,-185,-92
43,34,-9,-39,26,12,-126,-29,-204,-156,-126,-58
14,19,4,-17,4,12,-87,-29,-161,-131,-117,-53
-19,-24,-4,21,-7,-14,-39,-24,-117,-112,-107,-63
-29,-68,-39,48,4,-53,-4,-19,-87,-102,-107,-68
-34,-73,-39,53,2,-56,0,-19,-78,-92,-112,-78
-34,-73,-39,53,2,-56,0,-19,-78,-97,-112,-82
-43,-78,-34,61,-4,-56,9,-19,-73,-97,-112,-87
-48,-87,-39,68,-4,-63,19,-19,-73,-92,-107,-87
-58,-87,-29,73,-14,-58,24,-14,-63,-87,-102,-87
-58,-87,-29,73,-14,-58,24,-14,-63,-87,-102,-87
-58,-87,-29,73,-14,-58,29,-9,-63,-87,-102,-87
-58,-92,-34,75,-12,-63,29,-9,-58,-87,-107,-87
-58,-92,-34,75,-12,-63,34,-9,-53,-87,-112,-87
-58,-92,-34,75,-12,-63,39,-9,-43,-87,-107,-87
-58,-87,-29,73,-14,-58,39,0,-39,-87,-107,-87
-53,-87,-34,70,-9,-61,39,0,-39,-82,-107,-87
-48,-82,-34,65,-7,-58,43,0,-39,-78,-107,-87
-48,-82,-34,65,-7,-58,43,0,-34,-78,-97,-87
-48,-82,-34,65,-7,-58,43,4,-29,-73,-97,-82
-43,-78,-34,61,-4,-56,43,0,-29,-73,-92,-82
-43,-73,-29,58,-7,-51,43,0,-24,-73,-87,-82
-43,-68,-24,56,-9,-46,43,0,-24,-68,-87,-82
-43,-68,-24,56,-9,-46,43,0,-19,-58,-87,-78
-43,-68,-24,56,-9,-46,43,9,-14,-58,-78,-73
-39,-68,-29,53,-4,-48,43,9,-14,-53,-78,-68
-39,-68,-29,53,-4,-48,43,14,-9,-48,-73,-68
-34,-63,-29,48,-2,-46,43,14,-4,-43,-63,-68
-34,-53,-19,43,-7,-36,48,19,-4,-43,-63,-68
-29,-48,-19,39,-4,-34,48,24,0,-39,-53,-63
-29,-43,-14,36,-7,-29,48,29,9,-24,-53,-58
-24,-39,-14,31,-4,-26,43,29,14,-24,-48,-58
-19,-34,-14,26,-2,-24,43,39,14,-19,-39,-48
-19,-29,-9,24,-4,-19,43,43,24,-19,-34,-43
-14,-19,-4,17,-4,-12,43,43,29,-14,-29,-34
-9,-14,-4,12,-2,-9,43,48,39,-4,-24,-29
-14,-9,4,12,-9,-2,39,53,43,4,-19,-19
-14,-4,9,9,-12,2,39,63,53,14,-9,-9
-4,4,9,0,-7,7,39,63,63,19,0,-4
4,14,9,-9,-2,12,39,73,73,24,4,0
4,24,19,-14,-7,21,39,82,82,39,19,9
14,29,14,-21,0,21,34,92,97,48,29,19
24,43,19,-34,2,31,29,97,112,63,39,29
29,63,34,-46,-2,48,29,107,126,82,53,43
34,73,39,-53,-2,56,29,122,146,97,78,58
39,87,48,-63,-4,68,24,136,165,117,87,68
48,107,58,-78,-4,82,19,146,190,141,107,92
63,126,63,-95,0,95,14,161,209,165,131,112
73,146,73,-109,0,109,19,170,229,190,151,131
87,175,87,-131,0,131,19,190,253,209,175,151
102,195,92,-148,4,143,14,200,287,234,195,175
112,219,107,-165,2,163,4,209,312,258,219,195
126,253,126,-190,0,190,0,229,336,283,244,219
141,283,141,-212,0,212,-9,234,361,307,268,244
156,297,141,-226,7,219,-14,248,385,326,287,268
170,322,151,-246,9,236,-24,258,409,346,312,292
180,346,165,-263,7,256,-34,263,429,370,331,312
195,366,170,-280,12,268,-43,268,444,390,351,326
200,380,180,-290,9,280,-48,273,453,400,366,341
209,405,195,-307,7,300,-58,273,463,409,380,356
209,424,214,-317,-2,319,-68,268,473,424,390,366
214,434,219,-324,-2,326,-73,258,478,429,400,375
219,444,224,-331,-2,334,-82,239,473,434,405,380
214,444,229,-329,-7,336,-92,214,458,434,405,385
204,444,239,-324,-17,341,-97,190,429,405,390,375
190,429,239,-309,-24,334,-102,161,400,375,361,361
180,400,219,-290,-19,309,-97,136,366,346,331,326
161,366,204,-263,-21,285,-97,107,326,317,302,297
141,322,180,-231,-19,251,-87,87,287,268,258,258
112,278,165,-195,-26,222,-73,73,248,224,214,224
92,234,141,-163,-24,187,-58,48,204,190,180,185
73,200,126,-136,-26,163,-48,34,165,151,141,146
53,151,97,-102,-21,124,-39,19,122,107,102,112
39,126,87,-82,-24,107,-29,4,87,73,63,82
19,92,73,-56,-26,82,-19,-4,63,39,34,48
4,58,53,-31,-24,56,-9,-14,48,14,9,19
-4,29,34,-12,-19,31,-9,-24,14,-4,-14,9
-14,14,29,0,-21,21,-4,-29,0,-29,-29,-9
-19,-4,14,12,-17,4,4,-34,-9,-53,-48,-24
-29,-19,9,24,-19,-4,14,-39,-19,-58,-58,-34
-29,-29,0,29,-14,-14,19,-43,-34,-63,-63,-39
-34,-34,0,34,-17,-17,19,-43,-48,-73,-73,-48
-34,-43,-9,39,-12,-26,19,-43,-48,-78,-82,-53
-34,-48,-14,41,-9,-31,24,-48,-63,-78,-82,-58
-34,-58,-24,46,-4,-41,24,-43,-63,-78,-82,-58
-34,-63,-29,48,-2,-46,24,-39,-68,-82,-87,-58
-39,-63,-24,51,-7,-43,19,-39,-68,-82,-87,-63
-39,-63,-24,51,-7,-43,19,-39,-68,-87,-87,-63
-39,-63,-24,51,-7,-43,19,-43,-68,-92,-87,-63
-39,-68,-29,53,-4,-48,14,-43,-68,-102,-87,-63
-39,-68,-29,53,-4,-48,14,-43,-68,-102,-92,-68
-39,-68,-29,53,-4,-48,19,-43,-68,-102,-92,-73
-39,-63,-24,51,-7,-43,19,-43,-68,-92,-92,-73
-39,-63,-24,51,-7,-43,19,-43,-68,-87,-97,-73
-43,-63,-19,53,-12,-41,19,-43,-68,-87,-97,-73
-43,-63,-19,53,-12,-41,14,-43,-73,-87,-97,-73
-39,-63,-24,51,-7,-43,14,-43,-73,-87,-92,-73
-39,-63,-24,51,-7,-43,14,-43,-68,-87,-92,-73
-39,-63,-24,51,-7,-43,14,-43,-68,-87,-92,-73
-39,-63,-24,51,-7,-43,14,-43,-68,-87,-92,-73
-39,-58,-19,48,-9,-39,14,-43,-63,-82,-92,-73
-39,-58,-19,48,-9,-39,14,-43,-63,-82,-82,-73
-39,-58,-19,48,-9,-39,14,-43,-63,-82,-82,-73
-39,-58,-19,48,-9,-39,14,-43,-58,-82,-82,-73
-39,-58,-19,48,-9,-39,19,-43,-58,-82,-82,-73
-39,-58,-19,48,-9,-39,19,-43,-58,-82,-82,-73
-39,-53,-14,46,-12,-34,19,-43,-58,-82,-82,-68
-39,-53,-14,46,-12,-34,19,-43,-58,-78,-78,-63
-39,-58,-19,48,-9,-39,19,-43,-48,-73,-73,-63
-39,-63,-24,51,-7,-43,19,-48,-43,-73,-73,-63
-39,-58,-19,48,-9,-39,19,-48,-43,-63,-73,-63
-39,-58,-19,48,-9,-39,19,-48,-43,-58,-68,-63
-39,-58,-19,48,-9,-39,19,-43,-43,-58,-68,-63
-39,-58,-19,48,-9,-39,19,-39,-43,-58,-68,-63
-39,-58,-19,48,-9,-39,14,-39,-43,-58,-68,-63
-34,-58,-24,46,-4,-41,14,-39,-43,-58,-68,-63
-34,-58,-24,46,-4,-41,14,-39,-43,-58,-68,-63
-39,-58,-19,48,-9,-39,14,-43,-43,-58,-68,-63
-39,-58,-19,48,-9,-39,14,-43,-43,-58,-68,-63
-34,-58,-24,46,-4,-41,14,-43,-43,-58,-68,-63
-34,-58,-24,46,-4,-41,14,-39,-43,-58,-68,-63
-34,-58,-24,46,-4,-41,14,-39,-43,-58,-73,-58
-34,-58,-24,46,-4,-41,14,-39,-43,-58,-73,-58
-39,-58,-19,48,-9,-39,14,-43,-43,-58,-73,-58
-39,-58,-19,48,-9,-39,14,-43,-48,-63,-73,-58
-39,-58,-19,48,-9,-39,14,-43,-48,-63,-73,-58
-39,-58,-19,48,-9,-39,14,-43,-48,-63,-68,-58
-39,-58,-19,48,-9,-39,14,-43,-48,-63,-63,-63
-39,-58,-19,48,-9,-39,14,-43,-53,-63,-63,-63
-39,-53,-14,46,-12,-34,14,-43,-58,-63,-68,-68
-39,-53,-14,46,-12,-34,9,-43,-58,-63,-73,-68
-39,-53,-14,46,-12,-34,9,-43,-58,-63,-73,-68
-39,-53,-14,46,-12,-34,9,-43,-58,-63,-73,-73
-39,-53,-14,46,-12,-34,9,-43,-58,-63,-73,-73
-39,-53,-14,46,-12,-34,9,-43,-58,-68,-73,-73
-39,-53,-14,46,-12,-34,9,-43,-58,-73,-73,-73
-39,-53,-14,46,-12,-34,9,-43,-58,-73,-73,-73
-39,-53,-14,46,-12,-34,9,-43,-58,-73,-73,-73
-39,-53,-14,46,-12,-34,9,-43,-53,-73,-78,-73
-39,-58,-19,48,-9,-39,9,-48,-53,-73,-78,-73
-39,-58,-19,48,-9,-39,4,-48,-53,-73,-78,-78
-39,-53,-14,46,-12,-34,0,-48,-53,-68,-78,-78
-39,-53,-14,46,-12,-34,0,-48,-53,-68,-78,-78
-39,-53,-14,46,-12,-34,0,-48,-58,-68,-78,-78
-39,-53,-14,46,-12,-34,4,-48,-58,-73,-73,-78
-39,-53,-14,46,-12,-34,9,-48,-58,-78,-73,-78
-43,-58,-14,51,-14,-36,9,-48,-63,-73,-78,-78
-48,-58,-9,53,-19,-34,9,-48,-68,-73,-78,-78
-48,-58,-9,53,-19,-34,9,-48,-63,-73,-78,-78
-48,-58,-9,53,-19,-34,9,-48,-63,-68,-78,-78
-43,-58,-14,51,-14,-36,9,-48,-63,-68,-73,-78
-43,-58,-14,51,-14,-36,9,-48,-63,-68,-73,-78
-43,-58,-14,51,-14,-36,9,-53,-63,-68,-78,-78
-43,-53,-9,48,-17,-31,9,-58,-63,-68,-78,-78
-43,-53,-9,48,-17,-31,9,-58,-63,-78,-78,-73
-43,-53,-9,48,-17,-31,9,-58,-63,-82,-78,-68
-43,-53,-9,48,-17,-31,4,-58,-63,-73,-73,-68
-43,-53,-9,48,-17,-31,4,-58,-63,-73,-73,-68
-43,-53,-9,48,-17,-31,4,-53,-63,-68,-68,-68
-43,-53,-9,48,-17,-31,4,-48,-63,-63,-68,-68
-43,-53,-9,48,-17,-31,0,-48,-58,-58,-68,-68
-43,-53,-9,48,-17,-31,0,-48,-53,-58,-68,-68
-39,-34,4,36,-21,-14,0,-48,-39,-43,-53,-63
-39,-19,19,29,-29,0,4,-53,-24,-34,-39,-58
-34,-9,24,21,-29,7,9,-48,-9,-29,-29,-48
-29,0,29,14,-29,14,19,-48,0,-29,-19,-39
-29,9,39,9,-34,24,24,-43,0,-19,-19,-34
-29,19,48,4,-39,34,29,-39,0,-9,-19,-29
-24,24,48,0,-36,36,29,-39,4,-4,-9,-29
-14,29,43,-7,-29,36,24,-34,9,0,0,-19
-9,39,48,-14,-29,43,24,-34,19,4,4,-9
-9,39,48,-14,-29,43,19,-39,24,9,4,-4
-9,48,58,-19,-34,53,9,-39,24,14,14,0
-4,63,68,-29,-36,65,-9,-53,24,14,24,9
9,92,82,-51,-36,87,-34,-63,34,24,29,19
14,102,87,-58,-36,95,-53,-63,39,34,39,29
24,102,78,-63,-26,90,-48,-58,39,34,39,29
29,63,34,-46,-2,48,-43,-48,14,9,19,9
34,39,4,-36,14,21,-39,-48,-19,-9,0,-4
34,14,-19,-24,26,-2,-39,-48,-39,-29,-19,-24
34,9,-24,-21,29,-7,-39,-48,-43,-34,-29,-24
34,4,-29,-19,31,-12,-39,-48,-43,-39,-34,-24
34,0,-34,-17,34,-17,-43,-43,-43,-39,-34,-24
34,0,-34,-17,34,-17,-43,-39,-48,-39,-39,-29
19,-4,-24,-7,21,-14,-39,-39,-48,-39,-34,-34
-4,-29,-24,17,9,-26,-24,-39,-48,-39,-34,-43
-24,-34,-9,29,-7,-21,-14,-53,-53,-53,-48,-48
-39,-58,-19,48,-9,-39,-14,-58,-73,-68,-63,-63
-39,-68,-29,53,-4,-48,-14,-58,-73,-73,-63,-73
-39,-68,-29,53,-4,-48,-14,-58,-73,-73,-63,-73
-39,-73,-34,56,-2,-53,-14,-53,-73,-73,-68,-73
-39,-73,-34,56,-2,-53,-9,-48,-73,-73,-68,-73
-43,-87,-43,65,0,-65,-9,-48,-73,-78,-73,-73
-43,-87,-43,65,0,-65,-4,-48,-73,-78,-73,-78
-48,-87,-39,68,-4,-63,0,-48,-73,-73,-73,-78
-53,-87,-34,70,-9,-61,0,-48,-73,-68,-73,-78
-53,-87,-34,70,-9,-61,0,-48,-73,-68,-73,-78
-58,-92,-34,75,-12,-63,0,-53,-73,-68,-73,-78
-58,-92,-34,75,-12,-63,0,-53,-73,-68,-73,-82
-58,-97,-39,78,-9,-68,4,-53,-73,-68,-73,-82
-58,-97,-39,78,-9,-68,4,-48,-73,-68,-73,-82
-58,-97,-39,78,-9,-68,4,-48,-73,-73,-73,-82
-58,-97,-39,78,-9,-68,4,-48,-68,-73,-73,-82
-53,-97,-43,75,-4,-70,4,-48,-63,-73,-73,-82
-53,-97,-43,75,-4,-70,4,-48,-63,-73,-78,-87
-58,-107,-48,82,-4,-78,4,-48,-63,-73,-78,-87
-78,-122,-43,100,-17,-82,29,-43,-58,-73,-82,-97
-107,-136,-29,122,-39,-82,73,-39,-34,-63,-82,-117
-122,-151,-29,136,-46,-90,122,-24,9,-48,-82,-126
-122,-190,-68,156,-26,-129,161,29,43,-34,-78,-126
-68,-204,-136,136,34,-170,195,136,97,24,-29,-92
53,-214,-268,80,161,-241,229,317,146,92,29,-39
219,-82,-302,-68,261,-192,209,483,317,302,234,170
351,117,-234,-234,292,-58,126,527,478,527,463,419
375,278,-97,-326,236,90,-43,351,448,575,561,531
244,278,34,-261,104,156,-214,-39,122,234,292,366
58,87,29,-73,14,58,-283,-366,-292,-200,-102,48
-87,-87,0,87,-43,-43,-356,-566,-619,-463,-346,-175
-146,-112,34,129,-90,-39,-512,-697,-800,-575,-434,-268
-92,-112,-19,102,-36,-65,-556,-614,-844,-600,-448,-287
24,-68,-92,21,58,-80,-527,-414,-746,-507,-366,-224
78,-43,-122,-17,100,-82,-395,-224,-580,-390,-287,-161
78,-29,-107,-24,92,-68,-234,-87,-414,-278,-200,-107
63,34,-29,-48,46,2,-156,-39,-234,-151,-97,-39
39,34,-4,-36,21,14,-117,-29,-146,-92,-58,-19
4,19,14,-12,-4,17,-78,-29,-112,-78,-53,-19
-29,-24,4,26,-17,-9,-29,-24,-82,-63,-53,-43
-39,-63,-24,51,-7,-43,4,-19,-63,-63,-58,-58
-43,-68,-24,56,-9,-46,9,-19,-58,-63,-63,-68
-43,-73,-29,58,-7,-51,9,-19,-58,-68,-63,-68
-53,-78,-24,65,-14,-51,19,-19,-53,-68,-58,-68
-53,-87,-34,70,-9,-61,29,-19,-53,-63,-53,-68
-58,-87,-29,73,-14,-58,34,-14,-43,-58,-53,-68
-58,-87,-29,73,-14,-58,34,-14,-43,-58,-53,-68
-58,-87,-29,73,-14,-58,39,-9,-43,-53,-53,-68
-58,-92,-34,75,-12,-63,39,-9,-39,-48,-53,-68
-58,-92,-34,75,-12,-63,39,-9,-34,-48,-53,-68
-58,-92,-34,75,-12,-63,39,-9,-29,-48,-48,-68
-58,-87,-29,73,-14,-58,39,0,-29,-53,-48,-68
-58,-87,-29,73,-14,-58,39,0,-29,-53,-48,-68
-58,-82,-24,70,-17,-53,48,0,-29,-48,-48,-68
-58,-82,-24,70,-17,-53,53,0,-24,-48,-39,-68
-58,-87,-29,73,-14,-58,53,4,-19,-39,-39,-58
-53,-92,-39,73,-7,-65,53,4,-19,-34,-39,-53
-53,-92,-39,73,-7,-65,53,9,-14,-34,-39,-53
-53,-87,-34,70,-9,-61,53,9,-14,-34,-39,-53
-53,-87,-34,70,-9,-61,53,9,-9,-29,-39,-48
-53,-82,-29,68,-12,-56,53,19,-4,-29,-29,-43
-43,-78,-34,61,-4,-56,53,19,-4,-24,-29,-34
-39,-78,-39,58,0,-58,53,24,0,-19,-29,-29
-34,-73,-39,53,2,-56,53,24,9,-14,-19,-29
-34,-68,-34,51,0,-51,58,29,14,-14,-14,-29
-34,-68,-34,51,0,-51,58,34,19,-9,-4,-24
-39,-63,-24,51,-7,-43,58,39,29,4,-4,-19
-34,-63,-29,48,-2,-46,53,39,34,9,0,-19
-29,-63,-34,46,2,-48,53,48,34,19,9,-9
-29,-58,-29,43,0,-43,53,53,43,19,14,-4
-24,-48,-24,36,0,-36,53,58,48,24,19,4
-14,-39,-24,26,4,-31,53,68,58,34,24,4
-9,-29,-19,19,4,-24,48,73,63,43,29,9
-4,-24,-19,14,7,-21,48,82,73,48,34,19
4,-14,-19,4,12,-17,48,82,82,53,39,24
14,-4,-19,-4,17,-12,48,92,92,63,43,29
14,9,-4,-12,9,2,48,102,102,78,58,39
24,19,-4,-21,14,7,43,112,117,87,68,48
34,34,0,-34,17,17,39,122,131,102,78,58
39,53,14,-46,12,34,39,136,146,122,92,73
48,63,14,-56,17,39,39,151,165,131,117,87
58,78,19,-68,19,48,39,165,185,146,126,97
68,97,29,-82,19,63,39,175,209,170,146,122
82,117,34,-100,24,75,34,190,229,195,170,141
92,136,43,-114,24,90,29,204,248,219,190,161
107,165,58,-136,24,112,19,234,273,239,214,180
122,185,63,-153,29,124,14,248,302,263,234,204
131,204,73,-168,29,139,9,258,322,292,258,224
146,234,87,-190,29,161,9,278,346,322,283,248
161,263,102,-212,29,183,0,283,370,346,307,273
175,278,102,-226,36,190,-4,297,390,366,326,292
190,297,107,-244,41,202,-14,307,409,380,351,312
200,317,117,-258,41,217,-24,312,429,400,370,331
214,336,122,-275,46,229,-34,317,444,419,390,341
219,351,131,-285,43,241,-39,322,453,429,400,351
229,375,146,-302,41,261,-48,322,463,439,409,366
229,390,161,-309,34,275,-58,312,468,448,419,375
234,395,161,-314,36,278,-63,297,468,448,429,385
234,405,170,-319,31,287,-73,273,463,448,429,385
224,405,180,-314,21,292,-82,244,448,444,424,385
214,395,180,-305,17,287,-82,219,419,414,409,370
195,370,175,-283,9,273,-82,190,385,385,380,351
175,341,165,-258,4,253,-73,165,351,356,351,317
151,307,156,-229,-2,231,-68,136,317,326,322,287
131,263,131,-197,0,197,-58,112,278,278,278,248
102,219,117,-161,-7,168,-48,92,239,234,234,214
82,175,92,-129,-4,134,-39,68,200,200,200,175
63,146,82,-104,-9,114,-29,48,165,161,161,136
43,102,58,-73,-7,80,-19,29,126,122,126,102
34,78,43,-56,-4,61,-9,14,97,92,92,73
19,48,29,-34,-4,39,0,4,73,68,68,43
4,19,14,-12,-4,17,9,-4,58,53,48,19
-4,-4,0,4,-2,-2,9,-14,24,34,24,9
-14,-14,0,14,-7,-7,14,-19,9,9,9,-4
-19,-34,-14,26,-2,-24,19,-24,0,-14,-9,-14
-29,-43,-14,36,-7,-29,19,-29,-9,-19,-19,-24
-29,-48,-19,39,-4,-34,19,-34,-19,-24,-24,-29
-34,-48,-14,41,-9,-31,19,-34,-29,-39,-34,-39
-34,-53,-19,43,-7,-36,19,-34,-29,-48,-43,-43
-34,-58,-24,46,-4,-41,19,-39,-43,-48,-43,-53
-34,-63,-29,48,-2,-46,14,-39,-43,-48,-43,-58
-34,-63,-29,48,-2,-46,14,-39,-48,-53,-48,-58
-39,-63,-24,51,-7,-43,14,-39,-48,-53,-48,-63
-39,-63,-24,51,-7,-43,19,-43,-48,-58,-48,-63
-39,-63,-24,51,-7,-43,19,-53,-48,-58,-48,-63
-43,-68,-24,56,-9,-46,14,-53,-48,-63,-48,-63
-48,-68,-19,58,-14,-43,14,-53,-48,-63,-53,-63
-48,-68,-19,58,-14,-43,19,-53,-48,-63,-53,-63
-48,-63,-14,56,-17,-39,19,-53,-48,-58,-48,-63
-48,-58,-9,53,-19,-34,19,-53,-48,-58,-48,-63
-53,-53,0,53,-26,-26,19,-53,-48,-58,-48,-63
-53,-48,4,51,-29,-21,14,-53,-53,-58,-48,-63
-48,-43,4,46,-26,-19,14,-53,-53,-58,-48,-63
-48,-43,4,46,-26,-19,14,-53,-48,-58,-53,-63
-48,-43,4,46,-26,-19,14,-53,-48,-58,-53,-63
-48,-43,4,46,-26,-19,14,-53,-48,-58,-53,-63
-48,-39,9,43,-29,-14,14,-53,-43,-53,-53,-63
-43,-39,4,41,-24,-17,14,-53,-43,-53,-48,-63
-39,-39,0,39,-19,-19,14,-53,-43,-53,-53,-63
-39,-39,0,39,-19,-19,14,-53,-39,-53,-53,-63
-39,-39,0,39,-19,-19,14,-53,-39,-53,-53,-63
-43,-39,4,41,-24,-17,9,-53,-39,-53,-53,-63
-48,-34,14,41,-31,-9,9,-53,-39,-53,-53,-58
-48,-34,14,41,-31,-9,9,-53,-43,-48,-48,-53
-48,-34,14,41,-31,-9,9,-48,-43,-43,-43,-53
-48,-34,14,41,-31,-9,9,-53,-43,-43,-43,-53
-48,-29,19,39,-34,-4,9,-58,-43,-39,-43,-53
-43,-29,14,36,-29,-7,9,-58,-43,-39,-39,-53
-39,-29,9,34,-24,-9,9,-58,-43,-39,-39,-53
-39,-29,9,34,-24,-9,9,-58,-43,-39,-39,-53
-39,-29,9,34,-24,-9,4,-58,-43,-39,-39,-53
-34,-29,4,31,-19,-12,4,-58,-43,-39,-39,-53
-34,-29,4,31,-19,-12,4,-58,-43,-39,-39,-53
-39,-34,4,36,-21,-14,4,-63,-43,-39,-39,-58
-39,-39,0,39,-19,-19,4,-63,-43,-39,-39,-63
-34,-39,-4,36,-14,-21,4,-63,-43,-39,-39,-63
-34,-39,-4,36,-14,-21,4,-58,-43,-39,-39,-63
-34,-39,-4,36,-14,-21,4,-58,-43,-39,-43,-53
-34,-39,-4,36,-14,-21,4,-58,-43,-39,-43,-48
-39,-39,0,39,-19,-19,4,-63,-43,-39,-39,-48
-39,-39,0,39,-19,-19,4,-63,-48,-43,-34,-48
-43,-39,4,41,-24,-17,4,-63,-48,-43,-34,-48
-48,-39,9,43,-29,-14,4,-63,-48,-43,-34,-48
-48,-34,14,41,-31,-9,4,-63,-48,-43,-34,-53
-48,-34,14,41,-31,-9,4,-63,-48,-43,-34,-53
-43,-34,9,39,-26,-12,4,-58,-48,-43,-39,-58
-39,-34,4,36,-21,-14,0,-53,-48,-43,-39,-58
-39,-39,0,39,-19,-19,0,-53,-48,-43,-34,-58
-39,-43,-4,41,-17,-24,0,-53,-48,-43,-34,-58
-39,-43,-4,41,-17,-24,0,-53,-48,-43,-34,-53
-39,-43,-4,41,-17,-24,0,-53,-48,-43,-34,-53
-39,-43,-4,41,-17,-24,0,-53,-48,-43,-34,-53
-39,-43,-4,41,-17,-24,0,-53,-48,-43,-34,-53
-43,-43,0,43,-21,-21,0,-58,-48,-43,-34,-53
-48,-43,4,46,-26,-19,0,-63,-48,-43,-39,-53
-48,-48,0,48,-24,-24,0,-68,-53,-43,-39,-53
-48,-48,0,48,-24,-24,0,-68,-53,-48,-39,-58
-48,-43,4,46,-26,-19,0,-63,-53,-48,-43,-58
-48,-43,4,46,-26,-19,0,-58,-53,-48,-48,-58
-48,-43,4,46,-26,-19,0,-58,-58,-48,-48,-58
-48,-43,4,46,-26,-19,0,-58,-58,-48,-43,-58
-48,-43,4,46,-26,-19,0,-58,-58,-48,-39,-58
-48,-48,0,48,-24,-24,0,-58,-58,-43,-39,-58
-48,-48,0,48,-24,-24,0,-58,-58,-39,-39,-58
-48,-48,0,48,-24,-24,0,-58,-53,-39,-39,-58
-48,-48,0,48,-24,-24,0,-58,-53,-39,-39,-58
-48,-48,0,48,-24,-24,0,-58,-53,-39,-34,-58
-48,-48,0,48,-24,-24,0,-58,-53,-39,-34,-58
-43,-53,-9,48,-17,-31,0,-58,-53,-39,-39,-58
-43,-53,-9,48,-17,-31,0,-58,-53,-39,-39,-58
-43,-53,-9,48,-17,-31,0,-58,-53,-43,-39,-58
-48,-53,-4,51,-21,-29,0,-58,-53,-48,-43,-58
-53,-53,0,53,-26,-26,0,-58,-53,-43,-43,-58
-53,-53,0,53,-26,-26,4,-58,-53,-43,-43,-58
-53,-53,0,53,-26,-26,4,-58,-53,-43,-43,-58
-53,-53,0,53,-26,-26,9,-58,-48,-39,-48,-58
-53,-53,0,53,-26,-26,9,-58,-43,-34,-48,-58
-53,-53,0,53,-26,-26,9,-58,-43,-39,-43,-58
-48,-53,-4,51,-21,-29,9,-58,-43,-39,-39,-58
-39,-43,-4,41,-17,-24,9,-53,-29,-29,-29,-48
-34,-34,0,34,-17,-17,14,-53,-19,-24,-19,-39
-29,-14,14,21,-21,0,19,-48,-9,-9,-9,-24
-29,0,29,14,-29,14,29,-48,0,0,0,-9
-29,0,29,14,-29,14,34,-43,4,4,4,-4
-29,0,29,14,-29,14,39,-39,9,9,9,0
-29,4,34,12,-31,19,39,-39,14,19,14,0
-24,9,34,7,-29,21,39,-34,19,24,19,4
-19,19,39,0,-29,29,39,-29,29,34,24,14
-19,19,39,0,-29,29,39,-29,34,39,24,14
-14,29,43,-7,-29,36,34,-29,34,43,34,19
-4,43,48,-19,-26,46,19,-43,34,43,43,29
9,73,63,-41,-26,68,-4,-53,43,53,53,39
14,82,68,-48,-26,75,-24,-53,48,63,68,48
24,82,58,-53,-17,70,-29,-48,48,63,68,48
29,43,14,-36,7,29,-34,-39,24,39,48,29
34,19,-14,-26,24,2,-29,-39,-4,19,29,14
34,-4,-39,-14,36,-21,-29,-39,-19,0,9,-4
34,-9,-43,-12,39,-26,-29,-39,-24,-9,0,-4
34,-14,-48,-9,41,-31,-29,-39,-24,-19,-4,-4
34,-19,-53,-7,43,-36,-34,-39,-24,-19,-4,-4
34,-19,-53,-7,43,-36,-34,-39,-29,-19,-9,-9
19,-24,-43,2,31,-34,-29,-39,-29,-14,-4,-14
-4,-48,-43,26,19,-46,-14,-39,-29,-9,-4,-24
-24,-53,-29,39,2,-41,-4,-53,-34,-24,-19,-29
-39,-78,-39,58,0,-58,-4,-58,-53,-39,-34,-43
-39,-87,-48,63,4,-68,-4,-58,-58,-43,-39,-53
-39,-87,-48,63,4,-68,-4,-58,-63,-43,-43,-53
-39,-92,-53,65,7,-73,-4,-58,-63,-48,-48,-53
-39,-92,-53,65,7,-73,0,-58,-63,-53,-48,-53
-43,-102,-58,73,7,-80,-4,-58,-63,-58,-53,-58
-43,-97,-53,70,4,-75,-4,-58,-63,-58,-53,-68
-48,-97,-48,73,0,-73,0,-58,-63,-58,-53,-68
-53,-97,-43,75,-4,-70,0,-58,-63,-58,-53,-68
-58,-97,-39,78,-9,-68,4,-58,-63,-58,-53,-68
-68,-102,-34,85,-17,-68,9,-63,-63,-58,-53,-68
-68,-102,-34,85,-17,-68,9,-63,-63,-58,-53,-73
-68,-107,-39,87,-14,-73,14,-63,-63,-58,-53,-73
-68,-107,-39,87,-14,-73,9,-58,-63,-58,-58,-73
-68,-107,-39,87,-14,-73,4,-58,-63,-63,-63,-73
-68,-107,-39,87,-14,-73,4,-58,-63,-63,-63,-73
-63,-107,-43,85,-9,-75,4,-58,-63,-63,-63,-73
-58,-102,-43,80,-7,-73,4,-58,-63,-63,-63,-73
-58,-107,-48,82,-4,-78,4,-58,-63,-63,-58,-68
-73,-122,-48,97,-12,-85,29,-53,-53,-63,-63,-78
-97,-136,-39,117,-29,-87,73,-48,-24,-53,-63,-97
-122,-151,-29,136,-46,-90,122,-39,9,-43,-68,-117
-131,-190,-58,161,-36,-124,161,9,34,-34,-68,-126
-97,-224,-126,161,14,-175,200,117,63,-14,-53,-117
4,-253,-258,124,131,-256,239,297,87,14,-29,-87
195,-141,-336,-26,265,-239,234,502,253,219,175,107
351,39,-312,-195,331,-136,165,585,409,439,405,341
405,248,-156,-326,280,46,-4,434,473,585,580,522
302,297,-4,-300,153,146,-175,68,239,341,390,424
92,102,9,-97,41,56,-248,-317,-180,-112,-24,92
-78,-78,0,78,-39,-39,-326,-575,-512,-395,-287,-146
-161,-107,53,134,-107,-26,-522,-761,-727,-531,-400,-253
-131,-112,19,122,-75,-46,-605,-732,-805,-580,-439,-287
4,-78,-82,36,43,-80,-600,-517,-741,-502,-366,-234
78,-63,-141,-7,109,-102,-492,-312,-610,-400,-297,-180
78,-43,-122,-17,100,-82,-297,-141,-444,-287,-209,-117
63,24,-39,-43,51,-7,-185,-58,-263,-161,-107,-39
43,24,-19,-34,31,2,-141,-43,-165,-92,-58,-19
14,9,-4,-12,9,2,-97,-39,-122,-68,-43,-19
-24,-34,-9,29,-7,-21,-43,-34,-87,-53,-39,-39
-39,-73,-34,56,-2,-53,-4,-29,-63,-53,-39,-48
-43,-78,-34,61,-4,-56,0,-29,-58,-53,-48,-58
-43,-82,-39,63,-2,-61,0,-29,-58,-58,-53,-58
-53,-87,-34,70,-9,-61,9,-29,-53,-58,-53,-58
-53,-97,-43,75,-4,-70,19,-29,-53,-53,-53,-58
-58,-97,-39,78,-9,-68,24,-19,-43,-48,-48,-58
-58,-97,-39,78,-9,-68,24,-14,-43,-48,-43,-58
-58,-92,-34,75,-12,-63,34,-9,-43,-48,-43,-58
-58,-92,-34,75,-12,-63,39,-9,-39,-48,-43,-58
-58,-92,-34,75,-12,-63,43,-9,-34,-48,-43,-58
-58,-92,-34,75,-12,-63,48,-9,-29,-48,-39,-58
-58,-87,-29,73,-14,-58,43,0,-29,-48,-39,-58
-58,-87,-29,73,-14,-58,39,0,-29,-43,-39,-58
-58,-82,-24,70,-17,-53,43,0,-34,-39,-43,-58
-58,-82,-24,70,-17,-53,43,0,-34,-39,-39,-58
-58,-82,-24,70,-17,-53,43,4,-29,-34,-39,-53
-53,-82,-29,68,-12,-56,43,4,-29,-34,-39,-53
-53,-82,-29,68,-12,-56,43,9,-24,-34,-39,-53
-53,-78,-24,65,-14,-51,43,9,-24,-34,-39,-53
-53,-78,-24,65,-14,-51,43,9,-19,-29,-39,-48
-53,-73,-19,63,-17,-46,43,19,-14,-29,-29,-43
-48,-63,-14,56,-17,-39,43,14,-14,-24,-29,-39
-48,-58,-9,53,-19,-34,43,14,-9,-19,-29,-39
-43,-53,-9,48,-17,-31,43,14,-4,-14,-24,-39
-43,-48,-4,46,-19,-26,48,19,-4,-14,-24,-39
-39,-48,-9,43,-14,-29,48,24,0,-9,-14,-34
-39,-43,-4,41,-17,-24,48,29,9,4,-14,-29
-29,-39,-9,34,-9,-24,43,29,14,4,-9,-29
-19,-34,-14,26,-2,-24,43,39,14,9,0,-19
-19,-29,-9,24,-4,-19,43,43,19,4,4,-19
-14,-19,-4,17,-4,-12,43,48,19,4,9,-14
-9,-14,-4,12,-2,-9,43,58,29,14,14,-9
-9,-9,0,9,-4,-4,39,63,34,24,19,0
-9,-4,4,7,-7,0,39,78,43,34,29,9
-4,4,9,0,-7,7,39,82,53,43,39,14
4,9,4,-7,0,7,39,92,63,53,43,19
4,19,14,-12,-4,17,39,102,73,68,58,29
19,29,9,-24,4,19,34,112,87,78,68,39
34,43,9,-39,12,26,29,122,102,92,78,48
39,63,24,-51,7,43,29,136,112,112,87,63
48,73,24,-61,12,48,29,151,126,122,107,78
58,87,29,-73,14,58,24,165,146,131,117,87
68,107,39,-87,14,73,19,175,170,151,136,112
82,126,43,-104,19,85,14,190,190,175,161,131
92,146,53,-119,19,100,9,204,209,200,180,151
107,175,68,-141,19,122,4,234,229,219,204,170
122,195,73,-158,24,134,4,248,253,244,224,195
131,219,87,-175,21,153,-4,258,273,263,244,209
146,253,107,-200,19,180,-9,278,297,283,263,229
161,283,122,-222,19,202,-19,287,322,307,287,253
175,297,122,-236,26,209,-24,307,341,326,307,273
190,322,131,-256,29,226,-34,317,361,346,331,292
200,346,146,-273,26,246,-43,322,380,370,351,312
214,366,151,-290,31,258,-53,326,395,390,375,326
219,380,161,-300,29,270,-58,331,405,400,390,341
229,405,175,-317,26,290,-68,331,414,414,400,356
229,419,190,-324,19,305,-78,322,419,429,409,366
234,424,190,-329,21,307,-82,312,424,429,419,380
234,434,200,-334,17,317,-92,292,424,429,419,385
229,434,204,-331,12,319,-102,263,409,429,414,385
224,424,200,-324,12,312,-102,239,380,405,400,370
209,405,195,-307,7,300,-102,204,356,380,375,356
195,380,185,-287,4,283,-92,175,331,356,351,326
170,346,175,-258,-2,261,-87,146,297,326,322,297
151,302,151,-226,0,226,-78,122,258,278,278,258
117,258,141,-187,-12,200,-63,97,224,234,234,224
92,214,122,-153,-14,168,-48,68,190,200,200,185
73,180,107,-126,-17,143,-39,48,156,161,161,146
53,131,78,-92,-12,104,-29,29,117,122,126,112
39,107,68,-73,-14,87,-19,14,92,92,92,82
19,78,58,-48,-19,68,-9,4,73,68,68,53
4,48,43,-26,-19,46,0,-4,58,53,48,29
-4,24,29,-9,-17,26,0,-14,24,34,24,19
-14,9,24,2,-19,17,4,-24,4,9,9,0
-19,-14,4,17,-12,-4,9,-34,-9,-14,-9,-14
-29,-29,0,29,-14,-14,14,-39,-19,-19,-19,-24
-29,-39,-9,34,-9,-24,19,-43,-29,-24,-24,-29
-34,-43,-9,39,-12,-26,19,-39,-34,-34,-34,-39
-34,-53,-19,43,-7,-36,19,-34,-29,-39,-43,-43
-34,-58,-24,46,-4,-41,24,-39,-43,-43,-43,-48
-34,-63,-29,48,-2,-46,24,-39,-43,-48,-43,-48
-34,-68,-34,51,0,-51,24,-39,-53,-53,-48,-48
-39,-73,-34,56,-2,-53,24,-39,-58,-53,-48,-53
-39,-73,-34,56,-2,-53,29,-39,-58,-53,-48,-53
-39,-73,-34,56,-2,-53,29,-43,-58,-48,-48,-53
-39,-73,-34,56,-2,-53,19,-43,-58,-53,-48,-53
-39,-68,-29,53,-4,-48,14,-43,-58,-53,-53,-53
-39,-68,-29,53,-4,-48,19,-43,-58,-58,-53,-53
-39,-63,-24,51,-7,-43,19,-43,-58,-58,-48,-53
-39,-63,-24,51,-7,-43,24,-43,-58,-58,-48,-53
-43,-63,-19,53,-12,-41,29,-43,-58,-58,-48,-53
-48,-68,-19,58,-14,-43,24,-43,-63,-53,-48,-53
-48,-73,-24,61,-12,-48,24,-43,-63,-48,-48,-53
-48,-73,-24,61,-12,-48,24,-43,-53,-48,-53,-53
-48,-73,-24,61,-12,-48,24,-43,-48,-48,-53,-53
-48,-73,-24,61,-12,-48,24,-43,-48,-48,-53,-48
-48,-68,-19,58,-14,-43,24,-43,-43,-43,-53,-43
-43,-68,-24,56,-9,-46,24,-43,-43,-43,-43,-43
-39,-68,-29,53,-4,-48,24,-43,-43,-43,-43,-43
-39,-68,-29,53,-4,-48,24,-43,-39,-43,-43,-43
-39,-68,-29,53,-4,-48,24,-43,-39,-43,-43,-43
-39,-68,-29,53,-4,-48,19,-43,-39,-43,-43,-48
-39,-63,-24,51,-7,-43,19,-43,-39,-43,-43,-48
-39,-63,-24,51,-7,-43,19,-43,-43,-43,-39,-43
-39,-63,-24,51,-7,-43,19,-39,-43,-43,-34,-43
-39,-63,-24,51,-7,-43,19,-39,-43,-43,-34,-43
-39,-58,-19,48,-9,-39,19,-39,-43,-39,-34,-43
-39,-58,-19,48,-9,-39,19,-39,-43,-34,-34,-43
-39,-58,-19,48,-9,-39,19,-39,-43,-29,-39,-43
-39,-58,-19,48,-9,-39,19,-39,-43,-29,-39,-39
-39,-58,-19,48,-9,-39,14,-39,-43,-29,-39,-34
-34,-58,-24,46,-4,-41,14,-39,-43,-29,-39,-34
-34,-58,-24,46,-4,-41,14,-39,-43,-29,-39,-34
-39,-58,-19,48,-9,-39,14,-43,-43,-29,-39,-34
-39,-58,-19,48,-9,-39,14,-43,-43,-29,-39,-34
-34,-58,-24,46,-4,-41,14,-48,-43,-29,-34,-39
-34,-58,-24,46,-4,-41,14,-48,-43,-29,-29,-43
-34,-58,-24,46,-4,-41,14,-48,-43,-29,-34,-39
-34,-58,-24,46,-4,-41,14,-48,-43,-29,-34,-39
-39,-58,-19,48,-9,-39,14,-48,-43,-29,-34,-39
-39,-58,-19,48,-9,-39,14,-43,-48,-34,-34,-39
-39,-58,-19,48,-9,-39,14,-43,-48,-34,-34,-39
-39,-58,-19,48,-9,-39,14,-43,-48,-34,-34,-39
-39,-58,-19,48,-9,-39,14,-43,-48,-34,-34,-39
-39,-63,-24,51,-7,-43,14,-43,-48,-34,-34,-34
-39,-63,-24,51,-7,-43,14,-43,-48,-39,-39,-39
-39,-63,-24,51,-7,-43,9,-43,-48,-43,-39,-39
-39,-63,-24,51,-7,-43,9,-43,-48,-43,-39,-39
-39,-63,-24,51,-7,-43,9,-43,-48,-43,-43,-39
-39,-63,-24,51,-7,-43,9,-43,-48,-43,-43,-39
-39,-63,-24,51,-7,-43,9,-43,-48,-43,-43,-43
-39,-63,-24,51,-7,-43,9,-48,-48,-43,-43,-43
-39,-63,-24,51,-7,-43,9,-53,-48,-43,-43,-43
-39,-58,-19,48,-9,-39,9,-53,-48,-43,-43,-43
-39,-53,-14,46,-12,-34,9,-53,-48,-43,-48,-43
-39,-58,-19,48,-9,-39,9,-58,-53,-43,-48,-43
-39,-58,-19,48,-9,-39,9,-58,-53,-48,-48,-48
-39,-53,-14,46,-12,-34,9,-58,-53,-48,-48,-48
-39,-53,-14,46,-12,-34,9,-58,-53,-48,-48,-48
-39,-53,-14,46,-12,-34,9,-58,-58,-48,-48,-48
-39,-53,-14,46,-12,-34,9,-58,-58,-48,-43,-48
-39,-53,-14,46,-12,-34,9,-58,-58,-48,-43,-48
-39,-58,-19,48,-9,-39,9,-58,-58,-43,-48,-48
-43,-58,-14,51,-14,-36,9,-58,-63,-43,-48,-48
-48,-58,-9,53,-19,-34,9,-58,-63,-48,-48,-48
-48,-58,-9,53,-19,-34,9,-58,-63,-48,-48,-53
-48,-58,-9,53,-19,-34,9,-58,-63,-48,-43,-58
-48,-53,-4,51,-21,-29,9,-58,-63,-48,-43,-58
-43,-53,-9,48,-17,-31,9,-58,-63,-48,-48,-58
-43,-53,-9,48,-17,-31,9,-58,-63,-48,-48,-58
-43,-53,-9,48,-17,-31,9,-58,-63,-53,-48,-58
-43,-53,-9,48,-17,-31,9,-58,-63,-53,-48,-58
-43,-53,-9,48,-17,-31,9,-58,-63,-43,-43,-58
-43,-53,-9,48,-17,-31,14,-58,-63,-43,-43,-58
-43,-53,-9,48,-17,-31,14,-58,-63,-43,-43,-58
-43,-53,-9,48,-17,-31,14,-58,-63,-43,-48,-53
-43,-53,-9,48,-17,-31,9,-58,-63,-43,-48,-48
-48,-53,-4,51,-21,-29,9,-58,-63,-48,-48,-48
-53,-53,0,53,-26,-26,9,-58,-63,-48,-48,-48
-48,-58,-9,53,-19,-34,4,-58,-63,-48,-48,-48
-39,-43,-4,41,-17,-24,4,-58,-48,-43,-43,-43
-34,-29,4,31,-19,-12,9,-58,-43,-24,-29,-39
-34,-14,19,24,-26,2,19,-63,-39,-9,-19,-34
-29,0,29,14,-29,14,24,-58,-29,-4,-14,-24
-29,9,39,9,-34,24,29,-58,-19,0,-9,-19
-24,9,34,7,-29,21,34,-53,-9,4,-4,-14
-19,9,29,4,-24,19,39,-48,0,9,0,-9
-19,14,34,2,-26,24,39,-48,4,14,4,-9
-14,19,34,-2,-24,26,39,-43,9,19,9,0
-9,29,39,-9,-24,34,39,-39,19,24,14,4
-9,29,39,-9,-24,34,39,-39,24,29,14,4
-4,39,43,-17,-24,41,29,-39,24,34,24,9
4,53,48,-29,-21,51,9,-53,24,34,34,19
19,82,63,-51,-21,73,-14,-58,29,43,39,29
24,92,68,-58,-21,80,-34,-53,29,53,48,39
29,92,63,-61,-17,78,-34,-48,29,53,48,39
29,53,24,-41,2,39,-34,-39,4,29,29,19
29,29,0,-29,14,14,-34,-43,-24,9,9,4
24,4,-19,-14,21,-7,-39,-48,-39,-9,-9,-14
24,0,-24,-12,24,-12,-39,-48,-43,-14,-14,-14
24,-4,-29,-9,26,-17,-39,-48,-43,-19,-14,-14
24,-9,-34,-7,29,-21,-43,-48,-43,-19,-9,-14
24,-9,-34,-7,29,-21,-43,-48,-48,-19,-9,-19
9,-14,-24,2,17,-19,-39,-48,-48,-19,-9,-24
-14,-39,-24,26,4,-31,-24,-48,-48,-19,-14,-34
-34,-43,-9,39,-12,-26,-9,-63,-53,-34,-29,-39
-48,-68,-19,58,-14,-43,-4,-68,-73,-48,-43,-53
-48,-78,-29,63,-9,-53,-4,-68,-73,-53,-48,-63
-48,-78,-29,63,-9,-53,-4,-68,-73,-53,-53,-63
-48,-82,-34,65,-7,-58,-4,-63,-73,-53,-58,-63
-48,-82,-34,65,-7,-58,0,-58,-73,-53,-58,-63
-53,-97,-43,75,-4,-70,0,-58,-73,-58,-63,-63
-53,-97,-43,75,-4,-70,4,-58,-73,-58,-63,-68
-58,-92,-34,75,-12,-63,9,-58,-73,-58,-63,-73
-63,-87,-24,75,-19,-56,9,-58,-73,-58,-63,-78
-63,-87,-24,75,-19,-56,4,-58,-73,-63,-63,-78
-68,-92,-24,80,-21,-58,0,-63,-73,-68,-63,-78
-68,-92,-24,80,-21,-58,0,-63,-78,-68,-63,-82
-68,-97,-29,82,-19,-63,4,-63,-82,-68,-63,-82
-68,-97,-29,82,-19,-63,4,-58,-82,-68,-63,-82
-68,-97,-29,82,-19,-63,4,-58,-82,-73,-63,-82
-68,-97,-29,82,-19,-63,4,-63,-82,-73,-63,-82
-63,-97,-34,80,-14,-65,4,-68,-82,-73,-63,-82
-63,-97,-34,80,-14,-65,4,-68,-82,-68,-68,-87
-68,-107,-39,87,-14,-73,4,-68,-82,-63,-68,-87
-82,-122,-39,102,-21,-80,34,-58,-73,-63,-73,-97
-107,-136,-29,122,-39,-82,82,-48,-43,-53,-73,-117
-122,-156,-34,139,-43,-95,131,-29,-4,-43,-78,-126
-122,-200,-78,161,-21,-139,170,29,24,-34,-78,-126
-68,-214,-146,141,39,-180,195,146,48,-4,-53,-107
53,-224,-278,85,165,-251,219,336,68,34,-19,-68
234,-92,-326,-70,280,-209,200,507,224,219,175,126
380,107,-273,-244,326,-82,117,556,370,419,395,361
400,268,-131,-334,265,68,-43,366,395,527,527,492
263,268,4,-265,129,136,-204,-39,122,244,292,346
63,87,24,-75,19,56,-283,-400,-253,-175,-92,39
-97,-78,19,87,-58,-29,-366,-634,-541,-424,-326,-175
-156,-97,58,126,-107,-19,-541,-780,-732,-536,-414,-263
-102,-92,9,97,-56,-41,-605,-712,-785,-561,-429,-278
19,-58,-78,19,48,-68,-585,-497,-727,-488,-356,-224
78,-43,-122,-17,100,-82,-463,-292,-600,-390,-287,-170
78,-29,-107,-24,92,-68,-283,-131,-434,-278,-200,-117
63,34,-29,-48,46,2,-185,-58,-253,-151,-97,-48
43,34,-9,-39,26,12,-141,-48,-165,-87,-58,-29
14,19,4,-17,4,12,-97,-48,-131,-68,-53,-29
-24,-24,0,24,-12,-12,-43,-39,-102,-53,-48,-43
-39,-63,-24,51,-7,-43,-4,-29,-82,-53,-48,-48
-43,-63,-19,53,-12,-41,0,-29,-78,-58,-53,-63
-43,-63,-19,53,-12,-41,0,-29,-78,-68,-53,-68
-53,-68,-14,61,-19,-41,9,-29,-73,-68,-53,-68
-53,-78,-24,65,-14,-51,19,-29,-73,-63,-53,-68
-58,-78,-19,68,-19,-48,24,-24,-63,-58,-53,-68
-58,-78,-19,68,-19,-48,24,-24,-63,-58,-53,-68
-58,-78,-19,68,-19,-48,29,-19,-63,-58,-58,-68
-58,-82,-24,70,-17,-53,29,-19,-58,-58,-63,-68
-58,-82,-24,70,-17,-53,34,-19,-58,-58,-63,-68
-58,-82,-24,70,-17,-53,39,-19,-58,-58,-58,-68
-58,-78,-19,68,-19,-48,39,-9,-58,-58,-58,-68
-58,-78,-19,68,-19,-48,39,-9,-58,-53,-58,-68
-58,-73,-14,65,-21,-43,43,-9,-58,-48,-58,-68
-58,-73,-14,65,-21,-43,43,-9,-53,-48,-48,-68
-58,-73,-14,65,-21,-43,43,-4,-48,-43,-48,-63
-53,-73,-19,63,-17,-46,43,-4,-48,-43,-48,-63
-48,-73,-24,61,-12,-48,43,0,-39,-43,-48,-63
-43,-68,-24,56,-9,-46,43,0,-34,-43,-48,-63
-43,-68,-24,56,-9,-46,43,0,-29,-39,-48,-58
-43,-63,-19,53,-12,-41,43,9,-24,-39,-39,-53
-39,-58,-19,48,-9,-39,43,9,-24,-34,-39,-43
-39,-58,-19,48,-9,-39,43,14,-19,-29,-39,-39
-39,-53,-14,46,-12,-34,43,14,-14,-24,-34,-39
-43,-48,-4,46,-19,-26,48,19,-14,-24,-34,-39
-39,-48,-9,43,-14,-29,48,24,-9,-19,-24,-34
-39,-43,-4,41,-17,-24,48,29,0,-4,-24,-29
-34,-39,-4,36,-14,-21,43,29,0,-4,-19,-34
-29,-34,-4,31,-12,-19,43,39,-4,0,-9,-29
-29,-34,-4,31,-12,-19,43,43,4,0,-4,-24
-24,-29,-4,26,-9,-17,43,48,9,4,0,-14
-14,-24,-9,19,-2,-17,43,63,19,14,4,-9
-9,-19,-9,14,0,-14,39,73,24,24,9,0
-4,-14,-9,9,2,-12,39,82,34,34,19,9
4,-4,-9,0,7,-7,39,82,43,43,29,14
14,4,-9,-9,12,-2,39,97,53,53,34,24
14,19,4,-17,4,12,39,112,63,68,48,39
24,29,4,-26,9,17,34,122,78,78,63,48
34,43,9,-39,12,26,29,131,92,92,78,58
39,63,24,-51,7,43,29,146,102,112,92,73
48,73,24,-61,12,48,29,161,117,122,117,87
58,87,29,-73,14,58,24,175,131,136,122,92
68,107,39,-87,14,73,19,185,151,161,136,112
82,126,43,-104,19,85,19,200,170,180,161,131
92,146,53,-119,19,100,19,214,190,200,180,151
112,175,63,-143,24,119,9,239,209,219,204,170
131,195,63,-163,34,129,4,248,234,244,224,195
141,219,78,-180,31,148,-9,263,253,263,248,209
156,253,97,-204,29,175,-19,287,278,283,273,229
170,283,112,-226,29,197,-29,292,302,307,292,253
185,297,112,-241,36,204,-34,307,322,326,307,273
204,322,117,-263,43,219,-43,317,341,346,331,292
219,346,126,-283,46,236,-53,322,361,370,351,312
234,366,131,-300,51,248,-63,326,375,390,370,326
239,380,141,-309,48,261,-68,331,385,400,380,341
248,405,156,-326,46,280,-78,336,395,409,390,356
248,419,170,-334,39,295,-87,331,400,419,400,366
253,419,165,-336,43,292,-92,317,405,419,409,380
253,424,170,-339,41,297,-102,292,405,419,409,385
244,424,180,-334,31,302,-112,263,395,419,409,385
234,414,180,-324,26,297,-112,239,370,395,400,370
214,390,175,-302,19,283,-112,204,341,370,370,351
195,361,165,-278,14,263,-102,175,312,346,341,317
170,326,156,-248,7,241,-92,141,278,317,317,287
151,283,131,-217,9,207,-78,112,239,268,278,248
122,239,117,-180,2,178,-63,92,209,229,234,214
102,195,92,-148,4,143,-48,68,180,200,200,175
78,161,82,-119,-2,122,-39,53,146,161,161,141
53,112,58,-82,-2,85,-29,39,107,122,126,112
39,87,48,-63,-4,68,-19,24,78,92,92,82
19,58,39,-39,-9,48,-9,14,53,68,68,53
4,29,24,-17,-9,26,0,0,43,53,48,29
-4,4,9,0,-7,7,0,-14,14,34,24,19
-14,-4,9,9,-12,2,4,-19,0,9,9,0
-19,-24,-4,21,-7,-14,9,-24,-9,-14,-9,-14
-29,-39,-9,34,-9,-24,14,-29,-24,-19,-19,-24
-29,-48,-19,39,-4,-34,19,-34,-39,-24,-24,-29
-34,-53,-19,43,-7,-36,19,-34,-48,-34,-34,-39
-34,-63,-29,48,-2,-46,19,-34,-48,-39,-43,-43
-39,-68,-29,53,-4,-48,24,-43,-63,-39,-43,-48
-43,-73,-29,58,-7,-51,24,-48,-63,-39,-43,-48
-43,-78,-34,61,-4,-56,24,-48,-68,-43,-48,-48
-48,-82,-34,65,-7,-58,24,-48,-68,-43,-48,-53
-48,-82,-34,65,-7,-58,29,-43,-68,-48,-48,-53
-48,-82,-34,65,-7,-58,29,-43,-68,-48,-48,-53
-48,-87,-39,68,-4,-63,24,-43,-68,-53,-48,-53
-48,-87,-39,68,-4,-63,24,-43,-68,-53,-53,-53
-48,-87,-39,68,-4,-63,29,-43,-68,-53,-53,-53
-48,-82,-34,65,-7,-58,29,-43,-68,-48,-48,-53
-48,-82,-34,65,-7,-58,29,-43,-68,-48,-48,-53
-53,-82,-29,68,-12,-56,29,-43,-68,-48,-48,-53
-53,-78,-24,65,-14,-51,29,-43,-68,-48,-48,-53
-48,-73,-24,61,-12,-48,34,-43,-63,-48,-48,-53
-48,-73,-24,61,-12,-48,34,-43,-58,-48,-48,-53
-48,-73,-24,61,-12,-48,34,-43,-58,-48,-43,-53
-48,-73,-24,61,-12,-48,34,-43,-58,-48,-43,-53
-48,-68,-19,58,-14,-43,34,-43,-53,-43,-43,-53
-43,-68,-24,56,-9,-46,29,-43,-58,-43,-39,-48
-39,-68,-29,53,-4,-48,24,-43,-63,-43,-43,-43
-39,-68,-29,53,-4,-48,24,-43,-58,-43,-43,-43
-39,-68,-29,53,-4,-48,24,-43,-58,-43,-43,-43
-43,-68,-24,56,-9,-46,19,-43,-58,-43,-43,-48
-48,-63,-14,56,-17,-39,19,-43,-58,-43,-43,-48
-48,-63,-14,56,-17,-39,24,-43,-58,-39,-39,-43
-48,-63,-14,56,-17,-39,29,-39,-53,-34,-34,-43
-48,-63,-14,56,-17,-39,29,-39,-53,-34,-29,-43
-48,-58,-9,53,-19,-34,29,-39,-53,-29,-24,-43
-48,-58,-9,53,-19,-34,29,-43,-53,-29,-19,-43
-48,-58,-9,53,-19,-34,29,-48,-53,-29,-19,-43
-48,-58,-9,53,-19,-34,29,-48,-53,-29,-24,-43
-48,-58,-9,53,-19,-34,24,-48,-53,-29,-29,-43
-43,-58,-14,51,-14,-36,24,-48,-53,-29,-29,-43
-43,-58,-14,51,-14,-36,24,-48,-53,-29,-29,-43
-48,-58,-9,53,-19,-34,19,-53,-53,-29,-29,-43
-48,-58,-9,53,-19,-34,14,-53,-53,-29,-29,-43
-43,-58,-14,51,-14,-36,14,-53,-53,-29,-29,-43
-43,-58,-14,51,-14,-36,14,-48,-53,-29,-29,-43
-43,-53,-9,48,-17,-31,14,-48,-53,-29,-34,-39
-43,-48,-4,46,-19,-26,14,-48,-53,-29,-34,-39
-48,-48,0,48,-24,-24,14,-53,-53,-29,-34,-39
-48,-48,0,48,-24,-24,14,-53,-58,-34,-34,-39
-48,-48,0,48,-24,-24,14,-53,-63,-34,-34,-39
-48,-48,0,48,-24,-24,14,-53,-68,-34,-34,-39
-48,-48,0,48,-24,-24,14,-53,-68,-34,-34,-43
-48,-53,-4,51,-21,-29,14,-53,-68,-34,-34,-43
-48,-53,-4,51,-21,-29,14,-53,-68,-34,-39,-48
-48,-53,-4,51,-21,-29,9,-53,-68,-34,-39,-48
-48,-53,-4,51,-21,-29,9,-53,-68,-34,-34,-48
-48,-53,-4,51,-21,-29,9,-53,-68,-34,-34,-48
-48,-53,-4,51,-21,-29,9,-53,-68,-34,-34,-43
-48,-53,-4,51,-21,-29,9,-53,-68,-34,-34,-43
-48,-53,-4,51,-21,-29,9,-53,-68,-34,-34,-43
-48,-53,-4,51,-21,-29,9,-53,-68,-34,-34,-43
-48,-53,-4,51,-21,-29,4,-53,-68,-34,-34,-43
-48,-53,-4,51,-21,-29,0,-53,-68,-34,-39,-43
-48,-58,-9,53,-19,-34,0,-58,-73,-34,-39,-43
-48,-58,-9,53,-19,-34,0,-58,-73,-39,-39,-48
-48,-53,-4,51,-21,-29,0,-58,-68,-39,-39,-48
-48,-53,-4,51,-21,-29,0,-58,-63,-39,-39,-48
-48,-53,-4,51,-21,-29,4,-58,-68,-39,-39,-48
-48,-53,-4,51,-21,-29,9,-58,-68,-39,-34,-48
-48,-53,-4,51,-21,-29,9,-58,-73,-39,-34,-48
-48,-58,-9,53,-19,-34,9,-58,-78,-34,-39,-48
-48,-58,-9,53,-19,-34,9,-58,-78,-34,-39,-48
-48,-58,-9,53,-19,-34,9,-58,-73,-39,-39,-48
-48,-58,-9,53,-19,-34,9,-58,-73,-39,-39,-48
-48,-58,-9,53,-19,-34,9,-58,-73,-39,-34,-48
-53,-58,-4,56,-24,-31,9,-58,-73,-34,-29,-48
-53,-63,-9,58,-21,-36,9,-58,-73,-29,-29,-48
-53,-63,-9,58,-21,-36,9,-58,-73,-29,-29,-48
-53,-63,-9,58,-21,-36,9,-58,-73,-34,-29,-48
-53,-58,-4,56,-24,-31,4,-58,-73,-39,-34,-48
