I,II,III,aVR,aVL,aVF,V1,V2,V3,V4,V5,V6,
-29,-58,-29,43,0,-43,0,-39,-19,-19,-29,-29
-29,-58,-29,43,0,-43,-4,-39,-19,-14,-24,-24
-29,-58,-29,43,0,-43,-9,-39,-19,-9,-19,-19
-24,-58,-34,41,4,-46,-9,-39,-14,-9,-19,-19
-19,-58,-39,39,9,-48,-9,-39,-9,-9,-19,-19
-19,-58,-39,39,9,-48,-9,-43,-9,-9,-19,-19
-19,-58,-39,39,9,-48,-9,-48,-9,-9,-19,-19
-19,-53,-34,36,7,-43,-14,-53,-9,-9,-14,-19
-19,-48,-29,34,4,-39,-19,-58,-9,-9,-9,-19
-19,-48,-29,34,4,-39,-19,-58,-9,-9,-9,-19
-19,-48,-29,34,4,-39,-19,-58,-9,-9,-9,-19
-19,-48,-29,34,4,-39,-19,-58,-9,-9,-9,-14
-19,-48,-29,34,4,-39,-19,-58,-9,-9,-9,-9
-19,-48,-29,34,4,-39,-19,-58,-9,-4,-9,-9
-19,-48,-29,34,4,-39,-19,-58,-9,0,-9,-9
-19,-48,-29,34,4,-39,-19,-63,-9,0,-4,-4
-19,-48,-29,34,4,-39,-19,-68,-9,0,0,0
-19,-48,-29,34,4,-39,-19,-68,-9,4,0,0
-19,-48,-29,34,4,-39,-19,-68,-9,9,0,0
-19,-48,-29,34,4,-39,-19,-68,-4,9,4,0
-19,-48,-29,34,4,-39,-19,-68,0,9,9,0
-19,-48,-29,34,4,-39,-24,-68,0,9,9,0
-19,-48,-29,34,4,-39,-29,-68,0,9,9,0
-14,-43,-29,29,7,-36,-29,-68,-4,9,9,0
-9,-39,-29,24,9,-34,-29,-68,-9,9,9,0
-9,-39,-29,24,9,-34,-29,-68,-9,9,14,0
-9,-39,-29,24,9,-34,-29,-68,-9,9,19,0
-9,-39,-29,24,9,-34,-29,-68,-4,9,19,4
-9,-39,-29,24,9,-34,-29,-68,0,9,19,9
-9,-39,-29,24,9,-34,-29,-68,0,9,19,9
-9,-39,-29,24,9,-34,-29,-68,0,9,19,9
-9,-39,-29,24,9,-34,-29,-68,0,9,19,9
-9,-39,-29,24,9,-34,-29,-68,0,9,19,9
-9,-39,-29,24,9,-34,-29,-68,0,9,19,9
-9,-39,-29,24,9,-34,-29,-68,0,9,19,9
-9,-39,-29,24,9,-34,-29,-68,0,9,19,9
-9,-39,-29,24,9,-34,-29,-68,0,9,19,9
-9,-39,-29,24,9,-34,-29,-73,-4,9,19,9
-9,-39,-29,24,9,-34,-29,-78,-9,9,19,9
-9,-39,-29,24,9,-34,-29,-78,-9,9,19,9
-9,-39,-29,24,9,-34,-29,-78,-9,9,19,9
-9,-39,-29,24,9,-34,-29,-78,-9,9,19,9
-9,-39,-29,24,9,-34,-29,-78,-9,9,19,9
-9,-39,-29,24,9,-34,-29,-78,-9,9,19,9
-9,-39,-29,24,9,-34,-29,-78,-9,9,19,9
-9,-39,-29,24,9,-34,-29,-78,-9,14,19,14
-9,-39,-29,24,9,-34,-29,-78,-9,19,19,19
-9,-39,-29,24,9,-34,-29,-78,-9,19,19,19
-9,-39,-29,24,9,-34,-29,-78,-9,19,19,19
-9,-34,-24,21,7,-29,-29,-73,-4,19,24,19
-9,-29,-19,19,4,-24,-29,-68,0,19,29,19
-9,-24,-14,17,2,-19,-24,-63,0,29,34,19
-9,-19,-9,14,0,-14,-19,-58,0,39,39,19
-9,-19,-9,14,0,-14,-19,-53,4,43,43,24
-4,-4,0,4,-2,-2,-9,-48,9,43,43,29
0,4,4,-2,-2,4,-4,-43,19,48,48,34
4,19,14,-12,-4,17,4,-34,19,53,48,39
4,24,19,-14,-7,21,14,-24,29,53,53,43
4,29,24,-17,-9,26,29,-4,39,53,53,43
4,34,29,-19,-12,31,34,4,48,68,68,48
14,58,43,-36,-14,51,34,14,68,82,87,68
24,82,58,-53,-17,70,29,19,78,97,102,78
24,122,97,-73,-36,109,0,9,87,112,122,97
39,136,97,-87,-29,117,-58,-19,82,117,122,102
58,141,82,-100,-12,112,-92,-34,78,122,122,102
73,156,82,-114,-4,119,-107,-58,68,122,122,107
87,170,82,-129,2,126,-107,-63,63,122,126,112
92,165,73,-129,9,119,-107,-63,63,122,131,117
92,165,73,-129,9,119,-97,-63,63,117,131,117
97,141,43,-119,26,92,-87,-63,63,112,122,122
97,126,29,-112,34,78,-87,-73,53,92,112,112
78,102,24,-90,26,63,-82,-82,34,78,97,92
34,82,48,-58,-7,65,-68,-82,24,68,78,73
9,34,24,-21,-7,29,-48,-78,19,53,58,58
-4,-4,0,4,-2,-2,-34,-78,0,39,48,43
-4,-24,-19,14,7,-21,-34,-78,0,29,39,29
-4,-29,-24,17,9,-26,-39,-92,-9,19,29,19
-4,-34,-29,19,12,-31,-43,-97,-19,19,19,14
-14,-43,-29,29,7,-36,-43,-97,-19,14,14,14
-14,-48,-34,31,9,-41,-43,-97,-24,9,9,9
-14,-53,-39,34,12,-46,-43,-97,-24,9,9,9
-19,-63,-43,41,12,-53,-43,-97,-29,4,4,9
-29,-68,-39,48,4,-53,-34,-102,-34,4,4,4
-34,-68,-34,51,0,-51,-34,-97,-34,4,0,0
-34,-73,-39,53,2,-56,-29,-97,-34,0,0,0
-39,-78,-39,58,0,-58,-24,-97,-34,-4,0,0
-39,-78,-39,58,0,-58,-19,-92,-34,-9,0,0
-39,-82,-43,61,2,-63,-24,-92,-34,-9,0,-4
-39,-82,-43,61,2,-63,-29,-87,-29,-9,0,-4
-34,-82,-48,58,7,-65,-29,-87,-29,-9,4,-4
-29,-82,-53,56,12,-68,-24,-82,-29,-9,9,-4
-29,-82,-53,56,12,-68,-29,-92,-34,-9,9,-4
-39,-82,-43,61,2,-63,-24,-82,-29,-4,9,-4
-58,-92,-34,75,-12,-63,29,-39,-19,-4,-9,-19
-92,-97,-4,95,-43,-51,107,48,-4,0,-24,-34
-161,-117,43,139,-102,-36,219,180,39,9,-39,-68
-170,-78,92,124,-131,7,287,307,156,112,43,-24
-14,122,136,-53,-75,129,278,561,527,478,375,214
331,478,146,-405,92,312,-29,502,961,980,888,644
814,936,122,-875,346,529,-610,-53,1298,1522,1512,1176
1268,1376,107,-1322,580,741,-1151,-658,1551,2010,2108,1688
1717,1869,151,-1793,783,1010,-1761,-1439,1673,2410,2669,2215
2020,2264,244,-2142,888,1254,-2318,-2200,1610,2640,3035,2601
2220,2552,331,-2386,944,1442,-3006,-2918,1488,2762,3259,2849
2322,2708,385,-2515,968,1546,-3489,-3269,1483,2898,3469,3059
2274,2830,556,-2552,858,1693,-3411,-3181,1659,3220,3816,3333
2161,2849,688,-2505,736,1769,-3020,-2640,2005,3489,4050,3503
1976,2235,258,-2105,858,1246,-2220,-1776,2186,3054,3591,3137
1400,1527,126,-1464,636,827,-1454,-1073,1795,2147,2483,2205
453,766,312,-610,70,539,-727,-663,546,810,849,805
63,273,209,-168,-73,241,-292,-400,-126,19,39,131
-39,24,63,7,-51,43,-48,-165,-161,-146,-107,-53
-87,-87,0,87,-43,-43,73,-19,-146,-190,-175,-131
-92,-112,-19,102,-36,-65,82,14,-146,-190,-185,-146
-102,-122,-19,112,-41,-70,92,24,-146,-185,-185,-156
-107,-131,-24,119,-41,-78,112,39,-131,-180,-180,-156
-122,-151,-29,136,-46,-90,136,73,-122,-170,-180,-156
-126,-170,-43,148,-41,-107,156,102,-112,-170,-180,-165
-131,-180,-48,156,-41,-114,161,117,-102,-170,-185,-170
-131,-180,-48,156,-41,-114,161,122,-97,-165,-185,-170
-131,-190,-58,161,-36,-124,170,131,-87,-165,-185,-170
-136,-195,-58,165,-39,-126,175,146,-78,-161,-185,-170
-136,-195,-58,165,-39,-126,175,156,-68,-161,-185,-170
-136,-200,-63,168,-36,-131,180,161,-68,-156,-190,-175
-136,-200,-63,168,-36,-131,185,165,-58,-156,-195,-175
-131,-200,-68,165,-31,-134,190,175,-58,-156,-195,-175
-126,-200,-73,163,-26,-136,190,185,-53,-161,-195,-175
-126,-200,-73,163,-26,-136,190,195,-53,-161,-195,-180
-126,-200,-73,163,-26,-136,195,200,-48,-156,-195,-180
-126,-200,-73,163,-26,-136,195,209,-43,-156,-190,-185
-126,-200,-73,163,-26,-136,200,219,-39,-156,-190,-185
-131,-200,-68,165,-31,-134,204,224,-34,-156,-195,-185
-136,-200,-63,168,-36,-131,209,234,-29,-156,-195,-185
-136,-200,-63,168,-36,-131,209,244,-34,-156,-195,-190
-136,-200,-63,168,-36,-131,214,253,-39,-156,-195,-190
-136,-200,-63,168,-36,-131,219,263,-34,-156,-200,-195
-141,-200,-58,170,-41,-129,229,278,-29,-156,-204,-195
-141,-195,-53,168,-43,-124,229,287,-24,-156,-204,-195
-141,-195,-53,168,-43,-124,239,297,-24,-156,-209,-204
-141,-200,-58,170,-41,-129,248,307,-24,-156,-214,-204
-151,-200,-48,175,-51,-124,253,322,-19,-156,-214,-209
-151,-195,-43,173,-53,-119,263,341,-19,-156,-219,-219
-151,-195,-43,173,-53,-119,273,361,-19,-156,-219,-219
-156,-195,-39,175,-58,-117,278,380,-19,-156,-224,-229
-156,-200,-43,178,-56,-122,292,395,-14,-161,-234,-229
-161,-200,-39,180,-61,-119,302,414,-9,-165,-244,-234
-165,-200,-34,183,-65,-117,317,429,-4,-175,-248,-239
-170,-200,-29,185,-70,-114,326,453,0,-170,-258,-244
-175,-204,-29,190,-73,-117,336,483,0,-170,-263,-248
-180,-204,-24,192,-78,-114,351,502,0,-185,-268,-258
-180,-209,-29,195,-75,-119,370,536,0,-190,-278,-268
-185,-209,-24,197,-80,-117,390,561,0,-195,-283,-278
-190,-209,-19,200,-85,-114,400,585,0,-204,-302,-287
-195,-209,-14,202,-90,-112,424,614,4,-209,-312,-297
-200,-209,-9,204,-95,-109,444,644,0,-219,-336,-317
-214,-219,-4,217,-104,-112,458,673,0,-239,-351,-331
-224,-224,0,224,-112,-112,478,697,-4,-253,-370,-346
-239,-224,14,231,-126,-104,502,722,-19,-273,-400,-370
-253,-229,24,241,-139,-102,522,741,-34,-302,-419,-390
-263,-234,29,248,-146,-102,536,761,-53,-322,-444,-405
-273,-244,29,258,-151,-107,556,775,-82,-346,-468,-424
-287,-248,39,268,-163,-104,570,785,-107,-380,-507,-453
-307,-263,43,285,-175,-109,590,795,-146,-419,-546,-483
-326,-273,53,300,-190,-109,595,800,-180,-458,-590,-517
-346,-287,58,317,-202,-114,605,800,-214,-502,-639,-546
-366,-307,58,336,-212,-124,619,780,-273,-561,-692,-575
-390,-326,63,358,-226,-131,629,756,-331,-619,-741,-614
-409,-336,73,373,-241,-131,629,732,-385,-663,-795,-653
-424,-356,68,390,-246,-143,619,692,-448,-717,-839,-683
-444,-375,68,409,-256,-153,614,639,-517,-775,-888,-712
-458,-395,63,427,-261,-165,600,585,-590,-839,-941,-741
-468,-409,58,439,-263,-175,585,531,-658,-897,-990,-775
-473,-419,53,446,-263,-183,570,473,-712,-956,-1034,-800
-478,-439,39,458,-258,-200,551,414,-775,-990,-1073,-824
-483,-448,34,466,-258,-207,527,351,-839,-1029,-1107,-844
-483,-458,24,470,-253,-217,497,292,-878,-1073,-1132,-849
-478,-463,14,470,-246,-224,468,239,-912,-1093,-1146,-849
-463,-463,0,463,-231,-231,439,185,-932,-1107,-1156,-844
-448,-463,-14,456,-217,-239,405,131,-951,-1112,-1156,-834
-429,-458,-29,444,-200,-244,370,87,-956,-1107,-1122,-814
-400,-453,-53,427,-173,-253,336,53,-936,-1083,-1088,-790
-370,-434,-63,402,-153,-248,307,14,-907,-1044,-1058,-746
-341,-419,-78,380,-131,-248,268,-19,-873,-1000,-1010,-702
-302,-390,-87,346,-107,-239,239,-39,-834,-951,-946,-653
-268,-361,-92,314,-87,-226,209,-58,-771,-878,-873,-600
-239,-331,-92,285,-73,-212,175,-68,-697,-800,-795,-541
-204,-297,-92,251,-56,-195,141,-73,-629,-732,-717,-478
-175,-258,-82,217,-46,-170,112,-73,-551,-644,-629,-414
-141,-224,-82,183,-29,-153,87,-78,-473,-556,-541,-351
-117,-195,-78,156,-19,-136,68,-78,-400,-473,-463,-292
-87,-165,-78,126,-4,-122,48,-73,-326,-400,-390,-234
-68,-136,-68,102,0,-102,24,-78,-268,-331,-317,-185
-53,-112,-58,82,2,-85,9,-82,-214,-263,-244,-146
-34,-92,-58,63,12,-75,0,-82,-161,-195,-195,-102
-14,-73,-58,43,21,-65,-14,-82,-122,-146,-146,-68
0,-58,-58,29,29,-58,-29,-78,-87,-102,-102,-34
4,-43,-48,19,26,-46,-39,-73,-58,-63,-58,-9
9,-34,-43,12,26,-39,-39,-73,-24,-19,-19,9
14,-24,-39,4,26,-31,-48,-68,0,4,4,24
19,-9,-29,-4,24,-19,-53,-68,4,19,19,34
24,0,-24,-12,24,-12,-58,-63,19,34,39,43
24,4,-19,-14,21,-7,-63,-63,29,43,48,53
29,4,-24,-17,26,-9,-63,-68,39,53,58,58
29,4,-24,-17,26,-9,-58,-73,43,58,68,68
34,9,-24,-21,29,-7,-58,-78,48,63,73,73
34,14,-19,-24,26,-2,-58,-73,53,68,78,78
34,14,-19,-24,26,-2,-58,-73,63,68,78,78
34,14,-19,-24,26,-2,-63,-63,63,73,82,78
29,14,-14,-21,21,0,-63,-58,63,73,87,78
29,14,-14,-21,21,0,-63,-53,63,73,87,78
29,14,-14,-21,21,0,-63,-53,68,78,87,78
29,14,-14,-21,21,0,-58,-48,68,78,87,78
29,14,-14,-21,21,0,-58,-43,68,78,87,78
24,14,-9,-19,17,2,-53,-43,68,73,87,73
24,14,-9,-19,17,2,-48,-39,68,73,87,68
24,9,-14,-17,19,-2,-48,-43,68,78,82,68
24,9,-14,-17,19,-2,-48,-39,63,78,78,63
14,4,-9,-9,12,-2,-48,-39,63,78,78,63
14,4,-9,-9,12,-2,-43,-39,63,68,73,58
14,4,-9,-9,12,-2,-39,-34,63,68,68,53
9,4,-4,-7,7,0,-34,-34,63,68,58,48
4,4,0,-4,2,2,-34,-29,58,63,53,43
4,4,0,-4,2,2,-29,-24,53,58,53,39
0,0,0,0,0,0,-24,-14,48,53,53,34
-4,-4,0,4,-2,-2,-19,-9,48,48,48,34
-4,-14,-9,9,2,-12,-14,-9,43,48,34,34
-9,-19,-9,14,0,-14,-14,-4,39,43,29,19
-19,-24,-4,21,-7,-14,-9,-4,34,34,29,19
-19,-29,-9,24,-4,-19,-4,-4,29,29,24,4
-19,-34,-14,26,-2,-24,0,0,29,19,14,4
-24,-34,-9,29,-7,-21,9,0,29,14,4,4
-29,-39,-9,34,-9,-24,9,0,29,9,4,0
-29,-39,-9,34,-9,-24,14,0,19,4,4,-4
-34,-43,-9,39,-12,-26,9,0,14,9,-4,-4
-34,-43,-9,39,-12,-26,9,0,14,4,-9,-9
-39,-43,-4,41,-17,-24,9,0,14,4,-9,-14
-39,-48,-9,43,-14,-29,9,-4,9,-4,-14,-14
-39,-53,-14,46,-12,-34,9,-4,4,-4,-14,-19
-39,-53,-14,46,-12,-34,9,-4,4,-9,-19,-24
-39,-53,-14,46,-12,-34,14,-4,0,-14,-19,-24
-39,-53,-14,46,-12,-34,14,-9,-4,-14,-19,-29
-39,-53,-14,46,-12,-34,14,-9,-4,-14,-19,-24
-39,-53,-14,46,-12,-34,14,-14,-4,-14,-19,-24
-39,-53,-14,46,-12,-34,14,-14,-9,-19,-24,-24
-39,-58,-19,48,-9,-39,9,-14,-9,-19,-24,-24
-39,-53,-14,46,-12,-34,9,-19,-9,-19,-24,-19
-34,-48,-14,41,-9,-31,9,-19,-9,-19,-24,-19
-34,-48,-14,41,-9,-31,4,-24,-9,-19,-24,-19
-34,-48,-14,41,-9,-31,4,-24,-9,-19,-24,-19
-34,-53,-19,43,-7,-36,0,-29,-9,-19,-19,-14
-29,-58,-29,43,0,-43,0,-29,-9,-14,-19,-14
-29,-58,-29,43,0,-43,-4,-34,-9,-14,-14,-14
-29,-53,-24,41,-2,-39,-9,-39,-9,-14,-14,-14
-24,-53,-29,39,2,-41,-9,-39,-9,-9,-9,-14
-24,-48,-24,36,0,-36,-14,-39,-4,-9,-9,-19
-29,-48,-19,39,-4,-34,-14,-48,-4,-9,-9,-19
-29,-48,-19,39,-4,-34,-19,-53,-4,-9,-9,-19
-29,-48,-19,39,-4,-34,-19,-53,-4,-4,-4,-14
-29,-48,-19,39,-4,-34,-19,-53,-4,-4,-4,-14
-24,-48,-24,36,0,-36,-19,-48,-4,-4,0,-14
-19,-48,-29,34,4,-39,-19,-48,-4,-4,0,-9
-14,-48,-34,31,9,-41,-19,-48,-4,0,0,-9
-14,-48,-34,31,9,-41,-19,-48,-4,0,0,-4
-14,-48,-34,31,9,-41,-19,-53,-4,0,0,-4
-14,-43,-29,29,7,-36,-24,-53,-4,4,4,-4
-14,-43,-29,29,7,-36,-29,-53,-4,4,4,-4
-14,-43,-29,29,7,-36,-29,-53,-4,4,9,-4
-14,-43,-29,29,7,-36,-29,-58,-9,4,4,0
-14,-43,-29,29,7,-36,-24,-63,-9,9,4,0
-9,-43,-34,26,12,-39,-24,-68,-9,9,4,0
-9,-39,-29,24,9,-34,-29,-68,-9,9,4,0
-9,-39,-29,24,9,-34,-29,-63,-9,9,9,0
-9,-39,-29,24,9,-34,-29,-58,-9,14,14,4
-9,-39,-29,24,9,-34,-29,-63,-4,14,14,9
-9,-39,-29,24,9,-34,-29,-63,0,14,14,14
-9,-39,-29,24,9,-34,-34,-63,0,9,19,14
-9,-39,-29,24,9,-34,-34,-63,0,4,19,14
-9,-39,-29,24,9,-34,-34,-68,0,9,19,14
-9,-39,-29,24,9,-34,-34,-73,0,9,19,19
-9,-39,-29,24,9,-34,-34,-73,0,9,24,19
-9,-39,-29,24,9,-34,-39,-73,0,9,24,19
-14,-34,-19,24,2,-26,-39,-73,0,9,24,19
-14,-34,-19,24,2,-26,-34,-73,0,9,24,19
-9,-34,-24,21,7,-29,-34,-68,0,14,24,19
-9,-39,-29,24,9,-34,-39,-68,0,19,29,19
-9,-39,-29,24,9,-34,-39,-68,0,19,29,19
-9,-39,-29,24,9,-34,-39,-68,0,19,29,19
-9,-39,-29,24,9,-34,-39,-73,0,19,29,19
-9,-39,-29,24,9,-34,-39,-78,0,19,29,19
-9,-39,-29,24,9,-34,-39,-78,0,19,29,19
-9,-39,-29,24,9,-34,-39,-78,0,19,29,19
-9,-39,-29,24,9,-34,-39,-73,0,19,29,19
-9,-39,-29,24,9,-34,-39,-68,0,19,29,19
-9,-34,-24,21,7,-29,-34,-68,0,19,29,24
-9,-29,-19,19,4,-24,-29,-68,0,19,29,29
-9,-24,-14,17,2,-19,-29,-63,4,24,34,29
-9,-19,-9,14,0,-14,-29,-53,9,34,43,34
-9,-14,-4,12,-2,-9,-29,-48,19,43,53,39
-4,0,4,2,-4,2,-19,-43,29,48,63,43
-4,9,14,-2,-9,12,-14,-39,24,53,68,48
-4,14,19,-4,-12,17,-4,-39,29,58,73,53
-4,19,24,-7,-14,21,19,-24,39,58,63,48
0,29,29,-14,-14,29,29,-14,48,68,63,48
14,58,43,-36,-14,51,34,4,73,82,78,68
24,82,58,-53,-17,70,29,14,78,97,92,78
24,126,102,-75,-39,114,-9,4,78,117,117,97
34,146,112,-90,-39,129,-58,-19,73,122,122,102
48,151,102,-100,-26,126,-92,-34,68,122,126,107
63,165,102,-114,-19,134,-117,-53,63,122,131,117
82,185,102,-134,-9,143,-126,-58,63,122,136,122
92,180,87,-136,2,134,-131,-63,63,122,141,126
97,175,78,-136,9,126,-117,-63,68,122,141,126
102,151,48,-126,26,100,-107,-63,68,122,131,126
107,136,29,-122,39,82,-107,-73,53,102,126,117
97,112,14,-104,41,63,-102,-82,34,87,117,102
43,92,48,-68,-2,70,-87,-82,24,78,97,82
14,43,29,-29,-7,36,-68,-78,24,63,78,68
0,4,4,-2,-2,4,-48,-78,4,48,63,48
-4,-14,-9,9,2,-12,-43,-78,0,39,48,34
-4,-19,-14,12,4,-17,-48,-92,-9,24,39,29
-4,-24,-19,14,7,-21,-53,-97,-19,19,34,24
-14,-34,-19,24,2,-26,-53,-97,-19,14,34,24
-14,-39,-24,26,4,-31,-53,-97,-24,9,29,19
-14,-43,-29,29,7,-36,-53,-102,-24,9,29,19
-14,-53,-39,34,12,-46,-53,-102,-24,4,24,19
-19,-58,-39,39,9,-48,-43,-102,-24,4,24,14
-24,-58,-34,41,4,-46,-43,-97,-24,4,19,9
-24,-63,-39,43,7,-51,-39,-92,-24,0,14,9
-29,-68,-39,48,4,-53,-34,-87,-24,0,9,9
-29,-73,-43,51,7,-58,-29,-82,-24,0,9,9
-29,-82,-53,56,12,-68,-29,-82,-24,0,9,4
-29,-82,-53,56,12,-68,-29,-82,-19,0,14,4
-29,-82,-53,56,12,-68,-29,-87,-19,0,19,4
-24,-82,-58,53,17,-70,-29,-82,-24,0,19,4
-19,-82,-63,51,21,-73,-29,-82,-29,0,19,4
-29,-82,-53,56,12,-68,-29,-87,-29,0,19,4
-48,-87,-39,68,-4,-63,9,-53,-14,4,14,-9
-97,-112,-14,104,-41,-63,87,29,-24,-24,-29,-53
-131,-102,29,117,-80,-36,165,141,43,24,-9,-48
-195,-102,92,148,-143,-4,331,356,146,92,14,-58
-68,68,136,0,-102,102,331,546,439,380,283,131
326,444,117,-385,104,280,-9,541,946,941,868,610
771,858,87,-814,341,473,-512,136,1307,1464,1459,1102
1263,1332,68,-1298,597,700,-1073,-492,1600,1995,2088,1654
1703,1815,112,-1759,795,963,-1678,-1205,1771,2430,2649,2171
2005,2254,248,-2130,878,1251,-2274,-2083,1644,2635,3006,2557
2205,2566,361,-2386,922,1464,-2849,-2766,1551,2796,3284,2845
2318,2737,419,-2527,949,1578,-3469,-3225,1512,2957,3518,3074
2293,2801,507,-2547,893,1654,-3528,-3284,1571,3137,3728,3254
2264,2874,610,-2569,827,1742,-3069,-2640,2113,3586,4182,3601
2078,2400,322,-2239,878,1361,-2391,-1917,2264,3298,3879,3357
1322,1561,239,-1442,541,900,-1512,-1156,1688,2127,2430,2147
507,829,322,-668,92,575,-766,-658,707,927,966,893
170,336,165,-253,2,251,-356,-429,9,131,200,258
-39,24,63,7,-51,43,-63,-200,-214,-195,-131,-73
-78,-63,14,70,-46,-24,43,-48,-156,-185,-156,-117
-92,-107,-14,100,-39,-61,78,19,-146,-190,-175,-146
-102,-112,-9,107,-46,-61,82,24,-146,-185,-175,-156
-107,-122,-14,114,-46,-68,102,39,-131,-180,-170,-156
-122,-146,-24,134,-48,-85,131,78,-122,-170,-170,-156
-122,-165,-43,143,-39,-104,151,107,-112,-170,-170,-165
-122,-170,-48,146,-36,-109,151,117,-102,-170,-175,-175
-122,-170,-48,146,-36,-109,151,122,-97,-165,-175,-180
-122,-180,-58,151,-31,-119,161,131,-87,-165,-175,-180
-126,-185,-58,156,-34,-122,165,146,-82,-161,-175,-180
-126,-185,-58,156,-34,-122,165,156,-78,-161,-175,-180
-126,-190,-63,158,-31,-126,170,161,-78,-156,-175,-185
-126,-195,-68,161,-29,-131,175,161,-68,-156,-180,-185
-126,-200,-73,163,-26,-136,180,165,-68,-156,-185,-185
-126,-200,-73,163,-26,-136,180,175,-63,-161,-185,-185
-126,-200,-73,163,-26,-136,180,185,-63,-161,-185,-190
-126,-195,-68,161,-29,-131,185,190,-58,-156,-180,-190
-126,-190,-63,158,-31,-126,185,200,-53,-156,-175,-195
-126,-190,-63,158,-31,-126,190,209,-48,-156,-180,-190
-126,-190,-63,158,-31,-126,195,214,-43,-156,-185,-185
-126,-195,-68,161,-29,-131,200,224,-39,-156,-190,-185
-126,-200,-73,163,-26,-136,200,234,-39,-156,-195,-190
-126,-200,-73,163,-26,-136,204,244,-39,-156,-195,-190
-126,-200,-73,163,-26,-136,209,253,-34,-156,-200,-195
-136,-200,-63,168,-36,-131,219,268,-29,-156,-204,-195
-141,-195,-53,168,-43,-124,219,278,-24,-156,-204,-195
-141,-195,-53,168,-43,-124,229,287,-24,-156,-209,-209
-141,-200,-58,170,-41,-129,239,297,-24,-156,-214,-214
-151,-200,-48,175,-51,-124,239,307,-24,-161,-209,-219
-151,-195,-43,173,-53,-119,244,322,-29,-170,-214,-229
-151,-195,-43,173,-53,-119,253,341,-29,-175,-219,-229
-156,-195,-39,175,-58,-117,258,361,-29,-175,-224,-239
-156,-200,-43,178,-56,-122,273,375,-29,-185,-234,-239
-161,-200,-39,180,-61,-119,283,395,-34,-195,-244,-248
-161,-200,-39,180,-61,-119,297,409,-34,-204,-248,-258
-161,-200,-39,180,-61,-119,312,434,-29,-204,-258,-263
-165,-204,-39,185,-63,-122,326,463,-29,-204,-263,-268
-175,-204,-29,190,-73,-117,341,483,-29,-214,-268,-278
-185,-209,-24,197,-80,-117,361,517,-29,-219,-278,-287
-195,-209,-14,202,-90,-112,380,541,-29,-224,-287,-297
-200,-209,-9,204,-95,-109,390,566,-29,-234,-312,-307
-204,-209,-4,207,-100,-107,414,595,-29,-244,-322,-317
-204,-209,-4,207,-100,-107,434,624,-39,-253,-346,-336
-214,-219,-4,217,-104,-112,448,653,-43,-268,-361,-351
-224,-224,0,224,-112,-112,468,678,-48,-283,-380,-361
-239,-229,9,234,-124,-109,492,697,-58,-302,-409,-380
-253,-239,14,246,-134,-112,512,717,-73,-331,-429,-400
-268,-244,24,256,-146,-109,527,741,-92,-356,-463,-419
-283,-253,29,268,-156,-112,546,756,-122,-385,-497,-444
-297,-258,39,278,-168,-109,561,761,-151,-424,-536,-473
-317,-273,43,295,-180,-114,585,766,-195,-468,-575,-502
-336,-283,53,309,-195,-114,595,766,-234,-507,-619,-536
-356,-297,58,326,-207,-119,610,766,-268,-546,-663,-566
-370,-317,53,344,-212,-131,624,751,-322,-600,-712,-595
-390,-336,53,363,-222,-141,629,732,-380,-658,-761,-639
-409,-346,63,378,-236,-141,629,707,-439,-707,-819,-683
-424,-366,58,395,-241,-153,619,668,-507,-771,-873,-717
-444,-385,58,414,-251,-163,614,619,-575,-834,-927,-751
-463,-405,58,434,-261,-173,605,570,-649,-897,-980,-780
-478,-419,58,448,-268,-180,590,522,-717,-951,-1029,-810
-488,-429,58,458,-273,-185,575,463,-775,-1010,-1078,-829
-492,-444,48,468,-270,-197,556,405,-834,-1049,-1112,-849
-497,-448,48,473,-273,-200,527,341,-893,-1093,-1141,-873
-502,-458,43,480,-273,-207,497,283,-936,-1137,-1171,-888
-497,-468,29,483,-263,-219,468,229,-980,-1156,-1190,-888
-478,-473,4,475,-241,-234,439,175,-1000,-1171,-1195,-878
-458,-473,-14,466,-222,-244,405,117,-1015,-1185,-1200,-868
-439,-463,-24,451,-207,-244,370,73,-1019,-1180,-1176,-844
-414,-453,-39,434,-187,-246,336,43,-1000,-1146,-1137,-814
-390,-429,-39,409,-175,-234,307,9,-966,-1107,-1098,-775
-361,-414,-53,387,-153,-234,268,-29,-927,-1063,-1049,-732
-322,-390,-68,356,-126,-229,239,-53,-883,-1010,-985,-678
-287,-361,-73,324,-107,-217,209,-68,-810,-927,-902,-624
-258,-331,-73,295,-92,-202,180,-78,-736,-849,-824,-570
-219,-297,-78,258,-70,-187,151,-82,-668,-780,-746,-507
-185,-258,-73,222,-56,-165,122,-82,-590,-688,-658,-444
-151,-224,-73,187,-39,-148,97,-87,-507,-595,-566,-375
-131,-200,-68,165,-31,-134,78,-87,-434,-512,-483,-317
-107,-170,-63,139,-21,-117,53,-82,-366,-434,-405,-258
-87,-136,-48,112,-19,-92,29,-82,-307,-361,-331,-204
-73,-112,-39,92,-17,-75,19,-82,-239,-283,-253,-161
-58,-92,-34,75,-12,-63,9,-82,-175,-214,-195,-117
-39,-73,-34,56,-2,-53,-9,-82,-141,-170,-146,-82
-19,-58,-39,39,9,-48,-29,-82,-107,-122,-107,-48
-9,-43,-34,26,12,-39,-39,-82,-73,-78,-63,-29
0,-34,-34,17,17,-34,-39,-82,-39,-34,-24,-9
4,-24,-29,9,17,-26,-48,-82,-14,-9,0,4
9,-14,-24,2,17,-19,-48,-87,-4,9,19,14
14,-4,-19,-4,17,-12,-48,-82,9,29,43,24
14,4,-9,-9,12,-2,-53,-82,19,43,58,34
14,4,-9,-9,12,-2,-53,-82,29,53,68,43
9,4,-4,-7,7,0,-53,-78,34,58,73,53
14,9,-4,-12,9,2,-58,-78,43,63,73,53
14,14,0,-14,7,7,-58,-73,48,68,78,58
19,14,-4,-17,12,4,-58,-73,53,68,78,58
24,14,-9,-19,17,2,-58,-68,53,73,82,58
19,14,-4,-17,12,4,-53,-68,53,73,87,58
19,14,-4,-17,12,4,-53,-63,53,73,87,58
19,14,-4,-17,12,4,-53,-63,58,78,87,58
19,14,-4,-17,12,4,-48,-58,58,78,87,58
19,14,-4,-17,12,4,-48,-53,58,78,87,63
14,14,0,-14,7,7,-43,-53,58,73,87,63
14,14,0,-14,7,7,-39,-48,58,78,92,58
14,9,-4,-12,9,2,-39,-48,58,82,92,58
14,9,-4,-12,9,2,-39,-39,53,78,87,53
4,4,0,-4,2,2,-39,-39,53,78,87,53
4,0,-4,-2,4,-2,-34,-39,53,68,82,48
4,-4,-9,0,7,-7,-29,-34,53,68,78,43
0,-4,-4,2,2,-4,-24,-34,53,68,68,39
-4,-9,-4,7,0,-7,-24,-29,48,63,63,34
-4,-9,-4,7,0,-7,-19,-24,43,58,63,29
-9,-9,0,9,-4,-4,-14,-19,39,53,63,24
-14,-14,0,14,-7,-7,-9,-19,39,48,58,24
-14,-19,-4,17,-4,-12,-4,-19,34,48,43,24
-19,-19,0,19,-9,-9,-4,-19,29,43,39,9
-29,-24,4,26,-17,-9,0,-24,24,34,39,9
-29,-29,0,29,-14,-14,4,-24,19,29,34,-4
-29,-34,-4,31,-12,-19,4,-19,19,24,24,-4
-29,-34,-4,31,-12,-19,4,-19,14,24,14,-4
-29,-39,-9,34,-9,-24,0,-19,9,19,14,-9
-29,-43,-14,36,-7,-29,4,-19,0,9,14,-14
-34,-53,-19,43,-7,-36,4,-19,-4,4,4,-14
-39,-53,-14,46,-12,-34,9,-19,-4,-4,0,-19
-48,-53,-4,51,-21,-29,9,-19,-4,-4,0,-24
-48,-53,-4,51,-21,-29,9,-24,-9,-14,-9,-29
-48,-53,-4,51,-21,-29,9,-24,-14,-14,-14,-34
-48,-53,-4,51,-21,-29,9,-24,-14,-19,-19,-34
-48,-53,-4,51,-21,-29,9,-24,-19,-24,-19,-34
-48,-53,-4,51,-21,-29,4,-29,-24,-24,-19,-34
-48,-53,-4,51,-21,-29,4,-29,-24,-24,-19,-29
-43,-53,-9,48,-17,-31,4,-34,-24,-24,-14,-34
-39,-53,-14,46,-12,-34,4,-34,-29,-29,-14,-34
-39,-58,-19,48,-9,-39,0,-34,-29,-29,-14,-34
-39,-58,-19,48,-9,-39,0,-39,-29,-29,-14,-29
-39,-58,-19,48,-9,-39,0,-39,-29,-29,-14,-29
-43,-58,-14,51,-14,-36,-4,-43,-29,-29,-14,-29
-43,-58,-14,51,-14,-36,-4,-43,-29,-29,-14,-29
-43,-58,-14,51,-14,-36,-9,-48,-29,-29,-9,-24
-39,-58,-19,48,-9,-39,-9,-48,-29,-24,-9,-24
-39,-58,-19,48,-9,-39,-9,-53,-29,-24,-4,-24
-39,-58,-19,48,-9,-39,-9,-58,-29,-24,-4,-24
-34,-63,-29,48,-2,-46,-9,-58,-29,-19,0,-19
-34,-58,-24,46,-4,-41,-14,-58,-19,-19,0,-19
-34,-58,-24,46,-4,-41,-14,-63,-14,-19,0,-19
-29,-58,-29,43,0,-43,-19,-63,-14,-14,0,-19
-29,-58,-29,43,0,-43,-19,-63,-14,-4,4,-14
-29,-53,-24,41,-2,-39,-19,-63,-14,-4,4,-14
-29,-48,-19,39,-4,-34,-19,-63,-14,-4,9,-14
-29,-48,-19,39,-4,-34,-19,-68,-14,-4,9,-9
-24,-48,-24,36,0,-36,-19,-68,-14,0,9,-9
-24,-48,-24,36,0,-36,-19,-68,-14,0,9,-4
-24,-48,-24,36,0,-36,-19,-73,-14,0,9,-4
-24,-43,-19,34,-2,-31,-24,-68,-14,4,14,-4
-24,-43,-19,34,-2,-31,-29,-63,-14,4,14,-4
-24,-48,-24,36,0,-36,-29,-63,-14,4,19,-4
-24,-53,-29,39,2,-41,-29,-63,-14,4,19,0
-24,-53,-29,39,2,-41,-19,-63,-9,9,24,0
-19,-53,-34,36,7,-43,-14,-68,-9,9,24,0
-19,-48,-29,34,4,-39,-19,-68,-9,9,24,0
-19,-48,-29,34,4,-39,-19,-68,-9,9,24,0
-19,-48,-29,34,4,-39,-19,-68,-9,14,24,4
-19,-48,-29,34,4,-39,-19,-73,-9,14,24,4
-19,-48,-29,34,4,-39,-19,-73,-9,14,24,4
-19,-48,-29,34,4,-39,-24,-73,-9,14,29,4
-19,-48,-29,34,4,-39,-24,-73,-9,14,29,4
-19,-48,-29,34,4,-39,-24,-73,-9,19,29,4
-19,-48,-29,34,4,-39,-24,-73,-9,19,29,9
-19,-48,-29,34,4,-39,-24,-73,-9,19,34,9
-14,-43,-29,29,7,-36,-24,-73,-4,19,34,4
-14,-39,-24,26,4,-31,-29,-73,-4,19,34,4
-14,-34,-19,24,2,-26,-24,-68,0,24,34,4
-19,-29,-9,24,-4,-19,-19,-68,0,29,39,9
-19,-29,-9,24,-4,-19,-14,-68,0,34,43,9
-19,-29,-9,24,-4,-19,-9,-68,0,39,48,9
-19,-24,-4,21,-7,-14,-9,-63,4,43,53,14
-14,-9,4,12,-9,-2,-4,-58,9,43,58,19
-14,0,14,7,-14,7,0,-53,19,48,63,24
-14,9,24,2,-19,17,4,-43,19,53,68,29
-14,14,29,0,-21,21,14,-39,29,58,73,39
-14,19,34,-2,-24,26,29,-24,39,63,73,43
-9,29,39,-9,-24,34,29,-14,48,78,82,48
4,58,53,-31,-24,56,24,-4,68,92,97,68
14,82,68,-48,-26,75,14,0,68,107,112,78
14,122,107,-68,-46,114,-19,-9,68,122,131,97
29,136,107,-82,-39,122,-68,-39,63,122,131,102
48,141,92,-95,-21,117,-92,-53,58,122,131,102
63,156,92,-109,-14,124,-112,-73,53,126,131,107
78,170,92,-124,-7,131,-117,-73,53,131,136,112
82,165,82,-124,0,124,-117,-73,53,131,146,117
82,165,82,-124,0,124,-107,-73,53,126,151,117
87,141,53,-114,17,97,-97,-73,53,122,141,122
87,126,39,-107,24,82,-97,-82,43,102,131,112
68,112,43,-90,12,78,-92,-92,24,87,117,92
24,102,78,-63,-26,90,-78,-92,14,78,97,73
4,43,39,-24,-17,41,-58,-87,14,63,78,53
-4,-4,0,4,-2,-2,-43,-87,0,48,68,34
-9,-24,-14,17,2,-19,-39,-87,0,39,58,24
-14,-29,-14,21,0,-21,-39,-102,-9,29,48,19
-14,-34,-19,24,2,-26,-43,-107,-19,29,43,14
-24,-43,-19,34,-2,-31,-43,-107,-19,24,43,14
-24,-48,-24,36,0,-36,-43,-107,-24,19,39,9
-24,-53,-29,39,2,-41,-43,-107,-24,19,39,9
-24,-63,-39,43,7,-51,-43,-102,-24,14,34,9
-29,-68,-39,48,4,-53,-34,-102,-24,14,34,4
-34,-73,-39,53,2,-56,-34,-97,-24,14,29,0
-34,-82,-48,58,7,-65,-29,-97,-24,9,29,0
-39,-87,-48,63,4,-68,-24,-97,-24,9,29,0
-39,-87,-48,63,4,-68,-19,-92,-24,9,29,0
-39,-92,-53,65,7,-73,-19,-92,-24,9,29,-4
-39,-92,-53,65,7,-73,-19,-87,-19,9,29,-4
-39,-87,-48,63,4,-68,-19,-87,-19,9,29,-4
-39,-82,-43,61,2,-63,-14,-82,-19,9,29,-4
-34,-82,-48,58,7,-65,-19,-92,-24,9,29,-4
-39,-82,-43,61,2,-63,-14,-82,-19,14,29,-4
-58,-97,-39,78,-9,-68,39,-29,-4,14,14,-24
-92,-107,-14,100,-39,-61,117,68,14,19,4,-43
-141,-102,39,122,-90,-31,219,200,92,73,29,-43
-131,-39,92,85,-112,26,278,326,244,219,151,34
68,204,136,-136,-34,170,204,527,639,639,546,322
458,605,146,-531,156,375,-165,414,1098,1195,1122,800
927,1073,146,-1000,390,610,-756,-161,1434,1756,1751,1337
1366,1522,156,-1444,605,839,-1307,-785,1688,2264,2352,1854
1781,2010,229,-1895,775,1119,-1908,-1527,1825,2669,2913,2371
2049,2400,351,-2225,849,1376,-2454,-2249,1776,2903,3279,2747
2200,2649,448,-2425,875,1549,-3059,-2888,1678,3040,3498,2981
2254,2766,512,-2510,871,1639,-3459,-3162,1698,3191,3703,3176
2181,2801,619,-2491,780,1710,-3298,-3006,1844,3420,3957,3372
2044,2732,688,-2388,678,1710,-2825,-2396,2161,3596,4099,3464
1800,2069,268,-1934,766,1168,-2015,-1581,2156,2976,3440,2957
1166,1312,146,-1239,509,729,-1239,-927,1581,1883,2132,1883
322,619,297,-470,12,458,-585,-561,419,644,644,610
34,195,161,-114,-63,178,-224,-341,-165,-48,-19,63
-53,-24,29,39,-41,2,-4,-131,-175,-175,-131,-92
-87,-107,-19,97,-34,-63,92,-9,-136,-180,-165,-141
-92,-131,-39,112,-26,-85,97,24,-136,-180,-175,-156
-102,-141,-39,122,-31,-90,102,34,-136,-175,-175,-165
-107,-151,-43,129,-31,-97,122,48,-122,-170,-170,-165
-122,-170,-48,146,-36,-109,146,82,-112,-161,-170,-165
-122,-185,-63,153,-29,-124,161,107,-102,-161,-165,-175
-122,-190,-68,156,-26,-129,161,117,-92,-161,-165,-180
-122,-190,-68,156,-26,-129,161,122,-87,-151,-165,-180
-122,-200,-78,161,-21,-139,170,131,-78,-146,-165,-180
-126,-204,-78,165,-24,-141,175,146,-73,-141,-165,-180
-126,-204,-78,165,-24,-141,175,156,-68,-141,-165,-180
-126,-209,-82,168,-21,-146,180,161,-68,-136,-165,-185
-126,-209,-82,168,-21,-146,185,165,-58,-136,-165,-185
-126,-209,-82,168,-21,-146,190,175,-58,-136,-170,-185
-126,-209,-82,168,-21,-146,190,185,-53,-141,-175,-185
-126,-209,-82,168,-21,-146,190,195,-53,-141,-175,-190
-126,-209,-82,168,-21,-146,195,200,-48,-136,-175,-190
-126,-209,-82,168,-21,-146,200,209,-39,-136,-175,-190
-126,-209,-82,168,-21,-146,209,219,-29,-136,-180,-185
-126,-209,-82,168,-21,-146,214,224,-24,-136,-185,-185
-126,-209,-82,168,-21,-146,219,234,-19,-136,-185,-185
-126,-209,-82,168,-21,-146,214,244,-19,-136,-180,-190
-126,-209,-82,168,-21,-146,214,253,-19,-136,-175,-190
-126,-209,-82,168,-21,-146,219,263,-19,-136,-180,-195
-131,-209,-78,170,-26,-143,229,278,-19,-136,-185,-195
-131,-204,-73,168,-29,-139,229,287,-14,-141,-185,-195
-131,-204,-73,168,-29,-139,239,297,-14,-146,-190,-204
-131,-209,-78,170,-26,-143,248,307,-14,-146,-195,-204
-141,-209,-68,175,-36,-139,253,322,-9,-146,-195,-209
-141,-204,-63,173,-39,-134,263,341,-9,-151,-204,-219
-141,-204,-63,173,-39,-134,273,361,-9,-156,-209,-219
-146,-204,-58,175,-43,-131,278,380,-9,-156,-214,-229
-146,-209,-63,178,-41,-136,292,395,-4,-161,-224,-229
-151,-209,-58,180,-46,-134,302,414,-4,-165,-234,-239
-156,-209,-53,183,-51,-131,317,429,-4,-175,-239,-248
-161,-209,-48,185,-56,-129,331,453,0,-175,-248,-253
-165,-214,-48,190,-58,-131,346,483,0,-180,-253,-258
-175,-214,-39,195,-68,-126,361,502,0,-195,-263,-268
-180,-219,-39,200,-70,-129,380,536,0,-200,-278,-278
-190,-219,-29,204,-80,-124,400,561,0,-204,-287,-287
-200,-219,-19,209,-90,-119,409,585,0,-214,-312,-297
-204,-219,-14,212,-95,-117,434,614,-4,-224,-322,-307
-209,-219,-9,214,-100,-114,453,644,-19,-239,-346,-326
-219,-229,-9,224,-104,-119,468,673,-24,-258,-361,-346
-224,-234,-9,229,-107,-122,488,697,-34,-273,-380,-366
-239,-239,0,239,-119,-119,512,722,-53,-292,-409,-390
-253,-248,4,251,-129,-122,531,741,-73,-322,-429,-409
-273,-253,19,263,-146,-117,546,761,-92,-351,-463,-429
-292,-263,29,278,-161,-117,566,775,-122,-385,-497,-453
-307,-273,34,290,-170,-119,585,780,-151,-424,-536,-483
-326,-292,34,309,-180,-129,610,785,-195,-468,-575,-512
-346,-302,43,324,-195,-129,614,785,-234,-507,-624,-546
-366,-317,48,341,-207,-134,624,780,-273,-551,-678,-575
-380,-336,43,358,-212,-146,634,761,-331,-610,-732,-605
-400,-356,43,378,-222,-156,639,736,-390,-668,-780,-644
-419,-361,58,390,-239,-151,639,707,-448,-717,-839,-692
-434,-375,58,405,-246,-158,629,663,-517,-775,-888,-732
-453,-395,58,424,-256,-168,624,610,-585,-834,-936,-761
-468,-414,53,441,-261,-180,610,556,-658,-897,-990,-790
-478,-434,43,456,-261,-195,595,502,-727,-956,-1039,-819
-483,-448,34,466,-258,-207,580,444,-780,-1015,-1083,-839
-488,-468,19,478,-253,-224,556,385,-834,-1049,-1112,-858
-492,-478,14,485,-253,-231,527,322,-888,-1088,-1137,-873
-492,-488,4,490,-248,-241,497,263,-927,-1127,-1161,-878
-488,-492,-4,490,-241,-248,468,209,-961,-1141,-1176,-878
-468,-488,-19,478,-224,-253,439,156,-976,-1151,-1176,-868
-448,-483,-34,466,-207,-258,405,102,-990,-1151,-1166,-854
-429,-473,-43,451,-192,-258,370,63,-990,-1132,-1127,-824
-400,-463,-63,431,-168,-263,336,34,-966,-1093,-1088,-790
-370,-439,-68,405,-151,-253,302,-4,-927,-1054,-1054,-746
-341,-419,-78,380,-131,-248,258,-39,-883,-1010,-1000,-702
-302,-390,-87,346,-107,-239,229,-53,-834,-951,-927,-649
-268,-361,-92,314,-87,-226,200,-68,-761,-868,-844,-590
-239,-331,-92,285,-73,-212,170,-78,-688,-785,-766,-531
-204,-297,-92,251,-56,-195,141,-82,-619,-712,-688,-468
-175,-258,-82,217,-46,-170,112,-82,-536,-619,-600,-400
-141,-224,-82,183,-29,-153,87,-87,-453,-527,-512,-331
-122,-200,-78,161,-21,-139,63,-87,-380,-439,-434,-278
-97,-175,-78,136,-9,-126,39,-82,-307,-361,-361,-224
-78,-141,-63,109,-7,-102,19,-82,-248,-292,-287,-175
-63,-112,-48,87,-7,-80,9,-82,-195,-224,-214,-136
-43,-92,-48,68,2,-70,0,-82,-146,-165,-165,-97
-24,-73,-48,48,12,-61,-14,-82,-112,-126,-117,-68
-9,-58,-48,34,19,-53,-29,-78,-78,-78,-73,-34
-4,-43,-39,24,17,-41,-39,-73,-48,-34,-29,-9
0,-34,-34,17,17,-34,-39,-73,-14,4,4,9
4,-24,-29,9,17,-26,-48,-68,9,24,24,24
9,-14,-24,2,17,-19,-48,-68,14,43,39,34
14,-9,-24,-2,19,-17,-48,-63,29,63,58,43
14,-4,-19,-4,17,-12,-53,-63,39,73,68,53
19,-4,-24,-7,21,-14,-53,-68,48,82,78,58
19,-4,-24,-7,21,-14,-53,-68,53,87,87,63
24,0,-24,-12,24,-12,-58,-68,58,92,92,63
24,4,-19,-14,21,-7,-58,-63,58,97,97,68
24,4,-19,-14,21,-7,-58,-63,63,97,97,68
24,4,-19,-14,21,-7,-58,-58,63,102,102,68
19,4,-14,-12,17,-4,-53,-58,63,102,107,68
19,4,-14,-12,17,-4,-53,-53,63,102,107,68
19,4,-14,-12,17,-4,-53,-53,68,107,107,68
19,9,-9,-14,14,0,-48,-48,68,107,102,68
19,14,-4,-17,12,4,-48,-43,68,107,97,68
14,14,0,-14,7,7,-43,-43,68,102,97,63
14,14,0,-14,7,7,-39,-39,68,102,97,58
14,9,-4,-12,9,2,-39,-39,68,102,92,58
14,9,-4,-12,9,2,-39,-29,63,97,87,53
4,0,-4,-2,4,-2,-39,-29,63,97,87,53
4,-4,-9,0,7,-7,-34,-29,63,87,82,48
4,-4,-9,0,7,-7,-29,-24,63,87,78,48
0,-4,-4,2,2,-4,-24,-24,63,87,68,48
-4,-9,-4,7,0,-7,-24,-19,63,82,63,43
-4,-14,-9,9,2,-12,-19,-14,63,78,63,39
-9,-19,-9,14,0,-14,-14,-9,58,73,63,34
-14,-24,-9,19,-2,-17,-9,-9,58,68,58,34
-14,-29,-14,21,0,-21,-4,-9,53,68,43,34
-19,-29,-9,24,-4,-19,-4,-4,48,63,39,19
-29,-34,-4,31,-12,-19,0,-4,39,53,39,19
-29,-39,-9,34,-9,-24,4,-4,29,48,34,4
-29,-43,-14,36,-7,-29,4,0,29,43,29,4
-34,-43,-9,39,-12,-26,9,0,29,43,24,4
-39,-48,-9,43,-14,-29,4,0,29,39,24,0
-39,-48,-9,43,-14,-29,4,0,19,34,24,-4
-39,-53,-14,46,-12,-34,4,-4,14,34,9,-4
-34,-53,-19,43,-7,-36,9,-9,14,24,0,-9
-39,-53,-14,46,-12,-34,9,-9,14,24,0,-19
-39,-58,-19,48,-9,-39,9,-14,9,14,-4,-24
-39,-63,-24,51,-7,-43,14,-14,9,14,-4,-24
-39,-63,-24,51,-7,-43,19,-14,14,9,-9,-24
-39,-63,-24,51,-7,-43,19,-14,9,4,-9,-19
-39,-63,-24,51,-7,-43,14,-19,4,4,-9,-19
-39,-63,-24,51,-7,-43,14,-19,4,4,-9,-19
-39,-63,-24,51,-7,-43,14,-24,4,4,-9,-24
-39,-63,-24,51,-7,-43,14,-24,0,0,-14,-24
-39,-68,-29,53,-4,-48,9,-24,0,0,-14,-24
-39,-63,-24,51,-7,-43,9,-29,0,0,-9,-19
-34,-58,-24,46,-4,-41,9,-29,0,0,-4,-19
-34,-58,-24,46,-4,-41,4,-34,0,0,-4,-19
-34,-58,-24,46,-4,-41,4,-34,0,0,-4,-19
-34,-58,-24,46,-4,-41,0,-39,0,0,0,-14
-29,-58,-29,43,0,-43,0,-39,0,4,0,-14
-29,-58,-29,43,0,-43,0,-43,0,4,4,-14
-29,-53,-24,41,-2,-39,0,-48,0,4,4,-14
-24,-53,-29,39,2,-41,0,-48,0,9,9,-9
-24,-48,-24,36,0,-36,-4,-48,4,9,9,-9
-24,-48,-24,36,0,-36,-4,-53,4,9,4,-9
-19,-48,-29,34,4,-39,-9,-53,4,9,0,-9
-19,-48,-29,34,4,-39,-9,-53,4,14,4,-4
-19,-48,-29,34,4,-39,-9,-53,4,14,4,-4
-19,-48,-29,34,4,-39,-9,-53,0,14,9,-4
-19,-48,-29,34,4,-39,-9,-58,-4,14,9,0
-14,-48,-34,31,9,-41,-9,-58,-4,19,9,0
-14,-48,-34,31,9,-41,-9,-58,-4,19,9,4
-14,-48,-34,31,9,-41,-9,-63,-4,19,9,4
-14,-43,-29,29,7,-36,-14,-63,-4,24,14,4
-14,-48,-34,31,9,-41,-19,-63,0,24,14,4
-14,-53,-39,34,12,-46,-19,-63,4,24,19,4
-14,-53,-39,34,12,-46,-19,-63,4,24,19,9
-14,-53,-39,34,12,-46,-14,-63,9,29,24,9
-9,-53,-43,31,17,-48,-14,-63,4,29,24,9
-9,-48,-39,29,14,-43,-19,-58,0,29,24,9
-9,-48,-39,29,14,-43,-19,-58,0,29,24,9
-9,-48,-39,29,14,-43,-19,-58,0,34,24,14
-9,-48,-39,29,14,-43,-19,-63,0,34,24,14
-9,-48,-39,29,14,-43,-19,-63,0,34,24,14
-9,-48,-39,29,14,-43,-24,-63,0,34,29,14
-9,-48,-39,29,14,-43,-24,-63,0,34,29,14
-9,-48,-39,29,14,-43,-24,-63,0,34,29,14
-9,-48,-39,29,14,-43,-24,-63,0,29,29,19
-9,-48,-39,29,14,-43,-24,-63,0,29,34,19
-9,-48,-39,29,14,-43,-29,-63,0,29,34,19
-9,-43,-34,26,12,-39,-29,-63,0,29,34,19
-4,-43,-39,24,17,-41,-24,-63,0,29,34,19
-4,-39,-34,21,14,-36,-24,-63,4,34,34,19
-9,-39,-29,24,9,-34,-29,-68,9,39,39,19
-9,-39,-29,24,9,-34,-29,-68,9,39,39,19
-9,-39,-29,24,9,-34,-29,-68,9,39,39,19
-9,-39,-29,24,9,-34,-29,-68,4,39,34,19
-9,-39,-29,24,9,-34,-29,-68,0,39,29,19
-9,-39,-29,24,9,-34,-29,-68,0,39,29,14
-9,-39,-29,24,9,-34,-29,-68,0,39,29,9
-9,-39,-29,24,9,-34,-29,-68,0,39,29,9
-9,-39,-29,24,9,-34,-29,-68,0,39,29,9
-9,-39,-29,24,9,-34,-29,-68,0,34,29,9
-9,-39,-29,24,9,-34,-29,-68,0,29,29,9
-9,-39,-29,24,9,-34,-29,-68,0,29,29,9
-9,-39,-29,24,9,-34,-29,-68,0,29,29,9
-4,-29,-24,17,9,-26,-24,-63,4,39,39,14
0,-19,-19,9,9,-19,-19,-58,9,48,48,19
0,-14,-14,7,7,-14,-14,-53,9,48,48,19
0,-9,-9,4,4,-9,-9,-43,14,53,53,24
0,-4,-4,2,2,-4,-9,-39,19,63,58,29
4,9,4,-7,0,7,0,-34,29,68,63,34
4,19,14,-12,-4,17,9,-24,29,73,68,39
4,24,19,-14,-7,21,24,-19,39,78,73,43
4,29,24,-17,-9,26,39,-4,48,78,73,43
9,39,29,-24,-9,34,39,4,58,87,82,48
24,68,43,-46,-9,56,34,14,78,102,92,68
34,92,58,-63,-12,75,19,14,78,117,102,78
34,131,97,-82,-31,114,-24,0,78,131,122,97
43,146,102,-95,-29,124,-78,-29,73,131,122,102
58,151,92,-104,-17,122,-102,-43,68,131,122,102
73,165,92,-119,-9,129,-117,-63,63,131,122,107
87,180,92,-134,-2,136,-117,-63,63,131,126,112
92,170,78,-131,7,124,-112,-63,63,131,131,117
92,165,73,-129,9,119,-97,-63,68,126,136,117
92,141,48,-117,21,95,-87,-63,68,122,131,117
87,126,39,-107,24,82,-92,-73,53,102,122,102
68,102,34,-85,17,68,-92,-82,34,87,107,82
24,87,63,-56,-19,75,-78,-82,24,78,87,63
4,43,39,-24,-17,41,-58,-78,24,63,68,48
-4,4,9,0,-7,7,-43,-78,9,48,58,34
-4,-14,-9,9,2,-12,-43,-78,9,39,48,24
-4,-24,-19,14,7,-21,-48,-92,-4,29,39,19
-4,-34,-29,19,12,-31,-53,-97,-19,29,34,14
-19,-43,-24,31,2,-34,-48,-97,-19,24,34,14
-24,-48,-24,36,0,-36,-43,-97,-24,19,29,9
-24,-53,-29,39,2,-41,-43,-97,-24,19,29,9
-24,-63,-39,43,7,-51,-43,-92,-24,14,24,9
-29,-68,-39,48,4,-53,-34,-92,-24,14,19,4
-34,-68,-34,51,0,-51,-34,-87,-24,14,9,0
-34,-73,-39,53,2,-56,-29,-87,-24,9,9,0
-39,-78,-39,58,0,-58,-24,-87,-24,9,9,0
-39,-78,-39,58,0,-58,-19,-82,-24,9,14,0
-39,-82,-43,61,2,-63,-19,-82,-24,9,19,-4
-34,-82,-48,58,7,-65,-19,-78,-19,9,19,-4
-29,-82,-53,56,12,-68,-19,-78,-19,9,19,-4
-29,-82,-53,56,12,-68,-14,-73,-19,9,19,-4
-29,-82,-53,56,12,-68,-9,-73,-19,9,19,-4
-39,-82,-43,61,2,-63,0,-63,-9,14,19,-4
-58,-87,-29,73,-14,-58,48,-14,14,24,14,-19
-97,-97,0,97,-48,-48,126,87,29,24,-4,-43
-122,-73,48,97,-85,-12,204,219,122,102,39,-19
-112,-9,102,61,-107,46,278,370,292,258,165,58
87,224,136,-156,-24,180,185,497,653,634,536,336
497,644,146,-570,175,395,-224,322,1088,1195,1132,839
956,1102,146,-1029,405,624,-795,-253,1376,1717,1732,1356
1410,1551,141,-1481,634,846,-1346,-912,1605,2186,2327,1883
1810,2010,200,-1910,805,1105,-1942,-1654,1712,2557,2854,2376
2069,2376,307,-2222,880,1342,-2513,-2425,1590,2737,3162,2713
2225,2615,390,-2420,917,1503,-3064,-3001,1503,2874,3391,2952
2278,2737,458,-2508,910,1598,-3459,-3225,1551,3045,3611,3157
2196,2752,556,-2474,819,1654,-3294,-3050,1698,3235,3806,3313
2088,2688,600,-2388,744,1644,-2762,-2357,2083,3445,3986,3430
1825,2078,253,-1952,785,1166,-2010,-1586,2078,2918,3411,2957
1088,1288,200,-1188,444,744,-1220,-932,1434,1766,2000,1781
292,605,312,-448,-9,458,-561,-541,385,585,575,561
58,195,136,-126,-39,165,-224,-331,-136,-34,-4,78
-48,-34,14,41,-31,-9,-4,-122,-185,-185,-151,-102
-82,-102,-19,92,-31,-61,78,0,-136,-175,-170,-136
-92,-126,-34,109,-29,-80,87,39,-136,-180,-185,-156
-102,-131,-29,117,-36,-80,92,43,-136,-175,-185,-165
-107,-141,-34,124,-36,-87,112,58,-122,-170,-180,-165
-126,-161,-34,143,-46,-97,136,92,-112,-161,-180,-165
-131,-175,-43,153,-43,-109,151,117,-102,-161,-180,-175
-131,-185,-53,158,-39,-119,156,126,-92,-161,-185,-180
-131,-190,-58,161,-36,-124,161,131,-87,-156,-185,-180
-126,-200,-73,163,-26,-136,170,141,-78,-156,-185,-180
-126,-204,-78,165,-24,-141,175,156,-73,-151,-185,-180
-126,-204,-78,165,-24,-141,175,165,-68,-151,-185,-180
-126,-209,-82,168,-21,-146,180,170,-68,-146,-185,-185
-126,-209,-82,168,-21,-146,185,175,-58,-146,-190,-185
-126,-209,-82,168,-21,-146,190,185,-58,-146,-195,-185
-126,-204,-78,165,-24,-141,190,195,-53,-151,-195,-185
-126,-200,-73,163,-26,-136,190,204,-53,-151,-195,-190
-126,-200,-73,163,-26,-136,195,209,-43,-146,-195,-190
-126,-200,-73,163,-26,-136,195,219,-34,-146,-195,-195
-126,-200,-73,163,-26,-136,200,229,-29,-146,-195,-195
-126,-200,-73,163,-26,-136,204,234,-24,-146,-195,-195
-126,-200,-73,163,-26,-136,209,244,-19,-146,-195,-195
-126,-200,-73,163,-26,-136,209,253,-19,-146,-195,-200
-126,-200,-73,163,-26,-136,214,263,-19,-146,-195,-200
-126,-200,-73,163,-26,-136,219,273,-14,-146,-200,-204
-131,-200,-68,165,-31,-134,229,287,-14,-146,-204,-204
-131,-195,-63,163,-34,-129,229,297,-14,-146,-204,-204
-131,-195,-63,163,-34,-129,239,307,-14,-146,-209,-214
-131,-200,-68,165,-31,-134,248,317,-14,-146,-214,-214
-141,-200,-58,170,-41,-129,253,331,-4,-146,-209,-219
-141,-195,-53,168,-43,-124,263,351,0,-151,-214,-229
-141,-195,-53,168,-43,-124,273,370,0,-156,-219,-229
-146,-195,-48,170,-48,-122,278,390,0,-156,-224,-239
-146,-200,-53,173,-46,-126,292,405,4,-156,-234,-234
-151,-200,-48,175,-51,-124,302,424,4,-156,-244,-239
-156,-200,-43,178,-56,-122,317,439,4,-165,-248,-248
-161,-200,-39,180,-61,-119,331,463,9,-165,-258,-253
-165,-204,-39,185,-63,-122,346,492,9,-170,-263,-258
-175,-204,-29,190,-73,-117,361,512,9,-185,-268,-268
-180,-209,-29,195,-75,-119,380,546,9,-190,-278,-278
-185,-209,-24,197,-80,-117,400,570,9,-195,-287,-287
-190,-209,-19,200,-85,-114,409,595,9,-204,-312,-297
-195,-209,-14,202,-90,-112,434,624,9,-214,-322,-307
-200,-209,-9,204,-95,-109,453,653,4,-229,-346,-326
-214,-219,-4,217,-104,-112,468,683,4,-248,-361,-341
-224,-224,0,224,-112,-112,488,707,-4,-263,-380,-356
-239,-229,9,234,-124,-109,512,727,-19,-283,-409,-380
-253,-239,14,246,-134,-112,531,746,-34,-312,-429,-400
-268,-244,24,256,-146,-109,546,771,-53,-336,-463,-419
-278,-253,24,265,-151,-114,566,785,-82,-366,-497,-444
-287,-258,29,273,-158,-114,580,790,-112,-405,-536,-473
-307,-273,34,290,-170,-119,600,795,-156,-444,-570,-502
-326,-283,43,305,-185,-119,605,795,-195,-478,-610,-536
-351,-297,53,324,-202,-122,614,790,-229,-517,-658,-566
-370,-317,53,344,-212,-131,624,771,-283,-570,-712,-595
-390,-336,53,363,-222,-141,629,746,-341,-629,-761,-634
-409,-346,63,378,-236,-141,629,717,-400,-678,-819,-673
-424,-361,63,392,-244,-148,619,678,-468,-736,-868,-702
-444,-375,68,409,-256,-153,614,629,-536,-795,-917,-732
-458,-395,63,427,-261,-165,600,575,-610,-858,-971,-761
-468,-409,58,439,-263,-175,580,522,-678,-912,-1019,-790
-473,-424,48,448,-261,-187,561,463,-732,-966,-1063,-810
-473,-444,29,458,-251,-207,536,405,-785,-1000,-1093,-829
-473,-448,24,461,-248,-212,507,336,-839,-1039,-1117,-844
-473,-458,14,466,-244,-222,478,273,-878,-1078,-1141,-849
-473,-463,9,468,-241,-226,448,219,-917,-1093,-1156,-849
-458,-463,-4,461,-226,-234,419,165,-932,-1102,-1156,-839
-439,-463,-24,451,-207,-244,390,112,-941,-1112,-1151,-829
-419,-453,-34,436,-192,-244,361,73,-941,-1102,-1117,-805
-390,-444,-53,417,-168,-248,326,43,-922,-1063,-1078,-771
-361,-419,-58,390,-151,-239,297,9,-888,-1019,-1039,-727
-331,-400,-68,366,-131,-234,258,-19,-849,-976,-990,-683
-292,-370,-78,331,-107,-224,229,-34,-805,-922,-927,-629
-258,-341,-82,300,-87,-212,200,-53,-732,-844,-844,-575
-229,-312,-82,270,-73,-197,170,-68,-658,-771,-766,-522
-195,-283,-87,239,-53,-185,141,-73,-595,-707,-688,-458
-165,-248,-82,207,-41,-165,112,-73,-522,-619,-600,-395
-131,-214,-82,173,-24,-148,82,-78,-444,-527,-512,-331
-112,-190,-78,151,-17,-134,58,-78,-375,-444,-434,-278
-87,-165,-78,126,-4,-122,39,-73,-307,-370,-361,-224
-68,-136,-68,102,0,-102,19,-73,-248,-302,-292,-175
-53,-112,-58,82,2,-85,9,-73,-195,-234,-224,-136
-39,-92,-53,65,7,-73,0,-73,-146,-175,-175,-97
-19,-68,-48,43,14,-58,-14,-73,-112,-136,-126,-63
0,-48,-48,24,24,-48,-29,-73,-78,-92,-87,-29
4,-34,-39,14,21,-36,-39,-73,-43,-53,-48,-9
9,-24,-34,7,21,-29,-39,-73,-9,-14,-14,9
14,-14,-29,0,21,-21,-48,-68,9,4,4,24
19,-4,-24,-7,21,-14,-48,-68,14,19,19,34
24,0,-24,-12,24,-12,-53,-63,29,39,39,43
24,4,-19,-14,21,-7,-63,-63,39,53,48,53
29,4,-24,-17,26,-9,-63,-68,48,63,58,58
29,4,-24,-17,26,-9,-63,-68,53,68,63,63
34,9,-24,-21,29,-7,-63,-68,58,73,63,63
34,14,-19,-24,26,-2,-58,-63,58,78,68,68
34,14,-19,-24,26,-2,-58,-63,63,78,68,68
34,14,-19,-24,26,-2,-58,-58,63,82,73,68
29,14,-14,-21,21,0,-53,-58,63,78,78,63
29,14,-14,-21,21,0,-53,-53,63,73,78,58
29,14,-14,-21,21,0,-58,-53,68,78,78,58
29,14,-14,-21,21,0,-58,-48,68,78,78,58
29,14,-14,-21,21,0,-58,-43,63,78,78,63
24,14,-9,-19,17,2,-53,-43,58,73,78,63
24,14,-9,-19,17,2,-48,-39,58,78,78,58
24,9,-14,-17,19,-2,-48,-39,58,82,73,58
24,9,-14,-17,19,-2,-43,-29,58,78,68,53
14,4,-9,-9,12,-2,-39,-29,63,78,68,53
14,4,-9,-9,12,-2,-34,-34,63,68,63,48
14,4,-9,-9,12,-2,-29,-34,63,68,58,43
9,4,-4,-7,7,0,-24,-34,63,68,48,39
4,0,-4,-2,4,-2,-24,-29,58,63,43,34
4,-4,-9,0,7,-7,-19,-24,53,58,43,29
0,-9,-9,4,4,-9,-14,-19,48,53,43,24
-4,-14,-9,9,2,-12,-9,-14,48,48,39,24
-4,-19,-14,12,4,-17,-4,-9,43,48,24,24
-9,-19,-9,14,0,-14,-4,-4,39,43,19,9
-19,-24,-4,21,-7,-14,0,-4,34,34,19,9
-24,-29,-4,26,-9,-17,4,-9,29,29,19,-4
-29,-34,-4,31,-12,-19,4,-9,29,24,14,-4
-34,-34,0,34,-17,-17,9,-9,29,24,4,-4
-39,-39,0,39,-19,-19,9,-9,29,19,4,-9
-39,-39,0,39,-19,-19,9,-9,19,14,4,-14
-43,-43,0,43,-21,-21,4,-9,14,14,-4,-14
-43,-43,0,43,-21,-21,9,-9,14,4,-9,-19
-48,-43,4,46,-26,-19,9,-9,14,4,-9,-24
-48,-48,0,48,-24,-24,9,-14,9,-4,-19,-24
-48,-53,-4,51,-21,-29,9,-14,4,-4,-24,-24
-48,-53,-4,51,-21,-29,9,-14,0,-9,-34,-24
-48,-53,-4,51,-21,-29,9,-14,-9,-14,-39,-24
-48,-53,-4,51,-21,-29,9,-19,-14,-19,-39,-29
-48,-53,-4,51,-21,-29,14,-19,-14,-24,-39,-29
-48,-58,-9,53,-19,-34,14,-24,-9,-24,-34,-34
-48,-63,-14,56,-17,-39,14,-24,-9,-29,-34,-34
-48,-68,-19,58,-14,-43,9,-24,-9,-29,-34,-34
-48,-68,-19,58,-14,-43,9,-29,-9,-29,-34,-29
-43,-63,-19,53,-12,-41,9,-29,-9,-24,-34,-29
-43,-58,-14,51,-14,-36,4,-34,-9,-19,-34,-29
-39,-58,-19,48,-9,-39,4,-34,-9,-19,-34,-29
-34,-58,-24,46,-4,-41,0,-39,-9,-19,-29,-24
-29,-58,-29,43,0,-43,0,-39,-9,-14,-29,-24
-29,-58,-29,43,0,-43,0,-43,-9,-14,-24,-24
-34,-53,-19,43,-7,-36,0,-48,-14,-14,-24,-24
-34,-53,-19,43,-7,-36,0,-48,-19,-9,-19,-19
-34,-48,-14,41,-9,-31,-4,-48,-14,-9,-19,-19
-34,-48,-14,41,-9,-31,-4,-53,-14,-9,-19,-19
-29,-48,-19,39,-4,-34,-9,-53,-14,-9,-19,-19
-29,-48,-19,39,-4,-34,-9,-53,-14,-4,-14,-14
-29,-43,-14,36,-7,-29,-14,-53,-9,-4,-14,-14
-29,-39,-9,34,-9,-24,-19,-53,-4,-4,-9,-14
-29,-39,-9,34,-9,-24,-19,-53,-4,-4,-9,-9
-24,-39,-14,31,-4,-26,-19,-48,-4,0,-9,-9
-24,-39,-14,31,-4,-26,-19,-48,-4,0,-9,-4
-24,-39,-14,31,-4,-26,-19,-53,-4,0,-9,-4
-24,-34,-9,29,-7,-21,-19,-58,-4,4,-4,-4
-24,-34,-9,29,-7,-21,-19,-63,-4,4,-4,-4
-24,-39,-14,31,-4,-26,-19,-63,-4,4,0,-4
-24,-43,-19,34,-2,-31,-19,-63,-4,4,0,0
-24,-43,-19,34,-2,-31,-14,-63,0,9,4,0
-19,-43,-24,31,2,-34,-14,-68,0,9,4,0
-19,-39,-19,29,0,-29,-19,-68,-4,9,4,0
-19,-39,-19,29,0,-29,-19,-68,-9,9,4,0
-14,-39,-24,26,4,-31,-19,-63,-9,14,4,4
-9,-39,-29,24,9,-34,-19,-63,-9,14,4,4
-9,-39,-29,24,9,-34,-19,-63,-4,14,4,4
-9,-39,-29,24,9,-34,-24,-63,0,14,9,4
-9,-39,-29,24,9,-34,-24,-63,0,14,9,4
-9,-39,-29,24,9,-34,-24,-63,0,19,9,4
-9,-39,-29,24,9,-34,-24,-68,0,19,9,9
-9,-39,-29,24,9,-34,-24,-73,0,19,14,9
-9,-39,-29,24,9,-34,-29,-73,0,19,14,9
-9,-34,-24,21,7,-29,-29,-73,0,19,14,9
-9,-29,-19,19,4,-24,-24,-68,0,19,19,9
-9,-29,-19,19,4,-24,-24,-63,-4,19,24,14
-9,-29,-19,19,4,-24,-24,-63,0,19,19,14
-9,-29,-19,19,4,-24,-29,-68,0,19,19,19
-9,-29,-19,19,4,-24,-29,-68,0,14,19,19
-9,-29,-19,19,4,-24,-29,-68,0,9,19,19
-4,-29,-24,17,9,-26,-29,-73,0,9,19,19
0,-29,-29,14,14,-29,-29,-78,0,9,19,19
0,-29,-29,14,14,-29,-29,-78,0,9,19,19
0,-29,-29,14,14,-29,-29,-78,0,9,19,19
0,-29,-29,14,14,-29,-29,-78,0,9,19,19
0,-29,-29,14,14,-29,-29,-78,0,9,19,19
0,-29,-29,14,14,-29,-29,-73,4,14,24,19
0,-29,-29,14,14,-29,-29,-68,9,19,29,19
0,-19,-19,9,9,-19,-24,-63,9,24,34,19
0,-9,-9,4,4,-9,-19,-58,9,29,39,19
0,-9,-9,4,4,-9,-19,-53,14,34,43,24
0,0,0,0,0,0,-14,-48,19,34,43,29
4,14,9,-9,-2,12,-9,-43,29,39,48,34
4,29,24,-17,-9,26,-4,-34,29,43,48,39
4,34,29,-19,-12,31,4,-29,39,48,53,43
4,39,34,-21,-14,36,19,-14,48,53,53,43
9,34,24,-21,-7,29,29,4,58,68,63,48
24,48,24,-36,0,36,34,24,78,82,78,68
34,82,48,-58,-7,65,19,24,82,102,92,78
34,131,97,-82,-31,114,-19,9,87,122,112,97
43,146,102,-95,-29,124,-73,-19,82,122,117,102
58,151,92,-104,-17,122,-102,-34,78,122,122,102
73,170,97,-122,-12,134,-122,-63,68,122,122,112
87,190,102,-139,-7,146,-126,-73,63,122,126,122
97,185,87,-141,4,136,-126,-73,63,122,131,126
102,185,82,-143,9,134,-117,-73,63,117,131,126
107,165,58,-136,24,112,-107,-73,63,117,126,131
107,156,48,-131,29,102,-107,-82,53,102,122,122
87,131,43,-109,21,87,-102,-92,34,87,107,102
43,112,68,-78,-12,90,-87,-92,24,78,87,82
14,58,43,-36,-14,51,-63,-82,24,63,63,63
-4,14,19,-4,-12,17,-43,-78,9,48,48,43
-4,-9,-4,7,0,-7,-43,-78,9,34,39,34
-4,-19,-14,12,4,-17,-48,-92,0,19,29,29
-4,-24,-19,14,7,-21,-53,-102,-14,19,24,24
-14,-34,-19,24,2,-26,-53,-107,-19,14,24,24
-14,-39,-24,26,4,-31,-53,-107,-29,9,19,14
-14,-43,-29,29,7,-36,-53,-107,-34,9,19,9
-14,-53,-39,34,12,-46,-53,-102,-34,4,9,9
-19,-58,-39,39,9,-48,-43,-102,-34,4,4,4
-24,-58,-34,41,4,-46,-43,-97,-29,4,0,0
-24,-63,-39,43,7,-51,-39,-97,-24,0,0,0
-29,-68,-39,48,4,-53,-34,-97,-24,0,0,0
-29,-68,-39,48,4,-53,-29,-92,-24,0,0,0
-29,-73,-43,51,7,-58,-29,-92,-24,0,0,-4
-29,-73,-43,51,7,-58,-29,-87,-19,0,0,-4
-29,-68,-39,48,4,-53,-34,-87,-19,0,4,-4
-29,-63,-34,46,2,-48,-34,-82,-19,0,9,-4
-24,-63,-39,43,7,-51,-39,-92,-24,-4,9,-4
-29,-63,-34,46,2,-48,-34,-82,-19,-4,9,-4
-48,-82,-34,65,-7,-58,19,-39,-14,-9,-4,-19
-82,-97,-14,90,-34,-56,97,48,-4,-9,-14,-34
-151,-112,39,131,-95,-36,214,180,43,9,-29,-63
-161,-68,92,114,-126,12,287,307,165,122,53,-14
-4,126,131,-61,-68,129,287,575,536,473,380,219
341,478,136,-409,102,307,-9,531,971,961,888,644
839,936,97,-888,370,517,-600,-19,1312,1507,1507,1176
1307,1376,68,-1342,619,722,-1151,-619,1571,2000,2098,1688
1756,1888,131,-1822,812,1010,-1771,-1400,1708,2405,2669,2220
2059,2303,244,-2181,907,1273,-2337,-2161,1659,2640,3045,2610
2259,2586,326,-2422,966,1456,-3025,-2888,1532,2776,3269,2859
2361,2737,375,-2549,993,1556,-3508,-3250,1522,2928,3479,3069
2313,2859,546,-2586,883,1703,-3445,-3181,1688,3240,3830,3342
2200,2879,678,-2540,761,1778,-3069,-2659,2025,3498,4069,3513
2010,2259,248,-2135,880,1254,-2259,-1795,2210,3069,3620,3157
1429,1546,117,-1488,656,832,-1483,-1093,1825,2166,2522,2235
473,785,312,-629,80,549,-751,-673,566,824,873,819
73,292,219,-183,-73,256,-312,-400,-117,29,48,131
-34,29,63,2,-48,46,-58,-165,-151,-141,-97,-48
-87,-97,-9,92,-39,-53,73,-19,-136,-190,-165,-122
-92,-117,-24,104,-34,-70,78,14,-136,-190,-180,-141
-102,-122,-19,112,-41,-70,82,24,-136,-185,-185,-156
-107,-131,-24,119,-41,-78,102,39,-122,-180,-180,-156
-122,-151,-29,136,-46,-90,126,73,-112,-170,-180,-156
-122,-165,-43,143,-39,-104,146,102,-102,-170,-180,-170
-122,-170,-48,146,-36,-109,151,117,-92,-170,-185,-180
-122,-170,-48,146,-36,-109,151,122,-92,-165,-185,-180
-122,-180,-58,151,-31,-119,161,131,-87,-165,-185,-180
-126,-185,-58,156,-34,-122,165,146,-82,-161,-185,-180
-126,-185,-58,156,-34,-122,165,156,-78,-161,-185,-180
-126,-195,-68,161,-29,-131,170,161,-73,-156,-185,-185
-126,-200,-73,163,-26,-136,175,165,-58,-156,-185,-185
-126,-200,-73,163,-26,-136,180,175,-58,-156,-185,-185
-126,-200,-73,163,-26,-136,180,185,-53,-161,-185,-185
-126,-200,-73,163,-26,-136,180,195,-53,-161,-185,-190
-126,-200,-73,163,-26,-136,185,200,-48,-156,-185,-190
-126,-195,-68,161,-29,-131,185,209,-48,-156,-185,-195
-126,-190,-63,158,-31,-126,190,219,-48,-156,-190,-195
-131,-190,-58,161,-36,-124,195,224,-43,-156,-195,-195
-136,-190,-53,163,-41,-122,200,234,-39,-156,-195,-195
-136,-190,-53,163,-41,-122,200,244,-39,-156,-195,-200
-136,-190,-53,163,-41,-122,204,253,-39,-156,-195,-200
-136,-190,-53,163,-41,-122,209,263,-34,-156,-200,-204
-141,-190,-48,165,-46,-119,219,278,-29,-156,-204,-204
-141,-185,-43,163,-48,-114,219,287,-24,-161,-204,-200
-141,-185,-43,163,-48,-114,229,297,-24,-165,-209,-204
-141,-190,-48,165,-46,-119,239,307,-24,-165,-214,-204
-151,-190,-39,170,-56,-114,244,322,-19,-165,-214,-209
-151,-185,-34,168,-58,-109,253,336,-24,-165,-224,-219
-151,-185,-34,168,-58,-109,263,351,-29,-165,-229,-219
-156,-185,-29,170,-63,-107,268,370,-29,-165,-234,-229
-156,-190,-34,173,-61,-112,283,385,-24,-170,-244,-229
-161,-190,-29,175,-65,-109,292,405,-24,-175,-253,-239
-165,-190,-24,178,-70,-107,307,419,-24,-185,-258,-248
-170,-195,-24,183,-73,-109,322,444,-19,-185,-268,-253
-175,-204,-29,190,-73,-117,336,473,-19,-190,-273,-258
-185,-204,-19,195,-82,-112,346,492,-19,-204,-278,-268
-190,-209,-19,200,-85,-114,361,527,-19,-209,-287,-278
-195,-209,-14,202,-90,-112,380,551,-19,-214,-292,-287
-200,-209,-9,204,-95,-109,390,575,-19,-224,-312,-297
-204,-209,-4,207,-100,-107,414,605,-19,-234,-322,-307
-209,-209,0,209,-104,-104,434,634,-29,-248,-346,-326
-224,-214,9,219,-117,-102,448,663,-34,-263,-361,-341
-234,-214,19,224,-126,-97,468,688,-43,-273,-380,-356
-248,-219,29,234,-139,-95,492,707,-58,-292,-409,-375
-263,-229,34,246,-148,-97,512,722,-73,-322,-429,-390
-273,-234,39,253,-156,-97,527,746,-87,-341,-458,-409
-283,-244,39,263,-161,-102,546,766,-112,-366,-488,-434
-297,-248,48,273,-173,-100,566,771,-136,-405,-527,-463
-317,-263,53,290,-185,-104,590,775,-175,-448,-566,-492
-336,-273,63,305,-200,-104,600,780,-214,-488,-605,-527
-356,-287,68,322,-212,-109,614,780,-253,-531,-649,-556
-370,-307,63,339,-217,-122,624,766,-307,-585,-702,-585
-390,-326,63,358,-226,-131,629,746,-361,-639,-751,-624
-414,-336,78,375,-246,-129,629,722,-419,-688,-814,-668
-434,-356,78,395,-256,-139,619,683,-488,-746,-868,-702
-453,-375,78,414,-265,-148,619,629,-556,-805,-917,-736
-468,-395,73,431,-270,-161,610,575,-629,-868,-971,-771
-483,-409,73,446,-278,-168,590,522,-697,-927,-1019,-800
-492,-419,73,456,-283,-173,570,463,-751,-985,-1063,-819
-497,-434,63,466,-280,-185,546,405,-814,-1019,-1098,-839
-502,-439,63,470,-283,-187,517,341,-878,-1058,-1127,-854
-502,-448,53,475,-278,-197,488,283,-917,-1112,-1156,-868
-497,-453,43,475,-270,-204,458,229,-951,-1141,-1176,-878
-483,-458,24,470,-253,-217,434,175,-971,-1156,-1185,-873
-468,-463,4,466,-236,-229,405,122,-990,-1161,-1185,-863
-448,-458,-9,453,-219,-234,370,73,-1000,-1151,-1151,-839
-419,-453,-34,436,-192,-244,336,34,-985,-1122,-1117,-810
-390,-429,-39,409,-175,-234,307,0,-951,-1088,-1093,-766
-361,-409,-48,385,-156,-229,268,-29,-912,-1049,-1049,-722
-322,-380,-58,351,-131,-219,234,-43,-868,-990,-976,-668
-287,-351,-63,319,-112,-207,200,-58,-800,-907,-893,-610
-258,-326,-68,292,-95,-197,170,-68,-727,-839,-814,-556
-224,-297,-73,261,-75,-185,141,-73,-658,-780,-736,-497
-190,-258,-68,224,-61,-163,107,-78,-580,-688,-649,-434
-151,-224,-73,187,-39,-148,78,-87,-502,-595,-561,-370
-126,-195,-68,161,-29,-131,58,-87,-429,-507,-483,-317
-97,-165,-68,131,-14,-117,39,-82,-356,-429,-409,-263
-78,-136,-58,107,-9,-97,19,-82,-292,-361,-336,-209
-63,-112,-48,87,-7,-80,9,-82,-234,-292,-263,-165
-48,-92,-43,70,-2,-68,0,-82,-175,-224,-209,-122
-34,-73,-39,53,2,-56,-14,-82,-131,-175,-156,-87
-14,-58,-43,36,14,-51,-34,-82,-97,-126,-112,-53
-4,-43,-39,24,17,-41,-48,-82,-68,-82,-68,-29
0,-34,-34,17,17,-34,-48,-87,-34,-43,-34,-4
4,-24,-29,9,17,-26,-58,-87,-9,-24,-14,14
9,-9,-19,0,14,-14,-63,-87,-4,-4,9,24
14,0,-14,-7,14,-7,-68,-82,9,14,39,34
14,4,-9,-9,12,-2,-73,-78,19,29,48,43
19,4,-14,-12,17,-4,-73,-78,29,43,58,48
19,4,-14,-12,17,-4,-73,-78,39,48,68,53
24,9,-14,-17,19,-2,-78,-78,48,53,73,53
24,14,-9,-19,17,2,-78,-73,48,58,78,58
24,14,-9,-19,17,2,-78,-73,53,58,78,58
24,14,-9,-19,17,2,-78,-68,53,63,78,58
19,14,-4,-17,12,4,-73,-68,53,63,78,58
19,14,-4,-17,12,4,-68,-63,53,63,78,58
19,14,-4,-17,12,4,-63,-63,58,68,78,58
19,14,-4,-17,12,4,-58,-58,58,68,78,58
19,14,-4,-17,12,4,-58,-53,58,68,78,58
14,14,0,-14,7,7,-53,-53,58,63,82,53
14,14,0,-14,7,7,-48,-48,58,63,87,48
14,9,-4,-12,9,2,-48,-48,58,63,82,48
14,9,-4,-12,9,2,-48,-39,53,58,78,43
4,4,0,-4,2,2,-53,-39,48,63,78,43
4,4,0,-4,2,2,-53,-39,43,58,73,39
4,0,-4,-2,4,-2,-48,-34,43,58,68,39
0,-4,-4,2,2,-4,-43,-34,43,58,58,39
-4,-9,-4,7,0,-7,-43,-29,39,53,53,34
-4,-14,-9,9,2,-12,-39,-24,34,48,53,29
-9,-14,-4,12,-2,-9,-34,-24,29,43,53,24
-14,-14,0,14,-7,-7,-29,-29,29,39,48,24
-14,-19,-4,17,-4,-12,-24,-29,24,39,34,24
-19,-19,0,19,-9,-9,-24,-24,19,34,29,9
-29,-24,4,26,-17,-9,-19,-24,14,24,29,9
-29,-29,0,29,-14,-14,-14,-24,9,19,24,-4
-29,-34,-4,31,-12,-19,-14,-19,9,9,14,-4
-34,-34,0,34,-17,-17,-9,-19,9,4,4,-4
-39,-39,0,39,-19,-19,-9,-19,9,0,4,-9
-39,-39,0,39,-19,-19,-4,-19,0,-4,4,-14
-43,-43,0,43,-21,-21,-4,-19,-4,-4,-4,-14
-43,-43,0,43,-21,-21,0,-19,-4,-14,-9,-19
-48,-48,0,48,-24,-24,0,-19,-4,-14,-9,-24
-48,-58,-9,53,-19,-34,0,-24,-9,-24,-14,-24
-48,-63,-14,56,-17,-39,0,-24,-14,-24,-14,-29
-48,-63,-14,56,-17,-39,0,-24,-14,-29,-19,-34
-48,-58,-9,53,-19,-34,0,-24,-19,-34,-24,-34
-48,-53,-4,51,-21,-29,-4,-29,-24,-34,-29,-39
-48,-53,-4,51,-21,-29,-4,-29,-24,-34,-29,-39
-48,-53,-4,51,-21,-29,-4,-34,-24,-34,-29,-43
-48,-53,-4,51,-21,-29,-4,-34,-29,-39,-34,-43
-48,-58,-9,53,-19,-34,-9,-34,-29,-39,-34,-43
-48,-58,-9,53,-19,-34,-9,-39,-29,-39,-29,-39
-43,-58,-14,51,-14,-36,-9,-39,-29,-39,-24,-39
-43,-58,-14,51,-14,-36,-14,-43,-29,-39,-24,-39
-43,-58,-14,51,-14,-36,-14,-43,-29,-39,-24,-39
-43,-58,-14,51,-14,-36,-19,-48,-29,-39,-19,-34
-39,-58,-19,48,-9,-39,-19,-48,-29,-34,-19,-34
-39,-63,-24,51,-7,-43,-19,-53,-29,-34,-14,-34
-39,-63,-24,51,-7,-43,-19,-58,-29,-34,-14,-34
-34,-63,-29,48,-2,-46,-19,-58,-29,-29,-9,-29
-34,-58,-24,46,-4,-41,-24,-58,-24,-29,-9,-29
-34,-58,-24,46,-4,-41,-24,-63,-24,-29,-14,-29
-29,-58,-29,43,0,-43,-29,-63,-24,-29,-19,-29
-29,-58,-29,43,0,-43,-29,-63,-24,-24,-14,-24
-29,-58,-29,43,0,-43,-29,-63,-24,-24,-14,-24
-29,-58,-29,43,0,-43,-29,-63,-24,-24,-9,-24
-29,-58,-29,43,0,-43,-29,-68,-24,-24,-9,-19
-24,-58,-34,41,4,-46,-29,-68,-24,-19,-4,-19
-24,-58,-34,41,4,-46,-29,-68,-24,-19,0,-14
-24,-58,-34,41,4,-46,-29,-73,-24,-19,0,-9
-24,-53,-29,39,2,-41,-34,-73,-24,-14,4,-4
-24,-53,-29,39,2,-41,-39,-68,-24,-14,4,-4
-24,-53,-29,39,2,-41,-39,-63,-24,-14,9,-4
-29,-53,-24,41,-2,-39,-39,-63,-24,-14,9,0
-34,-53,-19,43,-7,-36,-34,-63,-19,-9,14,0
-29,-58,-29,43,0,-43,-34,-68,-19,-9,14,0
-29,-58,-29,43,0,-43,-39,-68,-19,-9,14,0
-24,-58,-34,41,4,-46,-39,-68,-19,-9,14,0
-19,-58,-39,39,9,-48,-39,-68,-19,-4,14,4
-19,-53,-34,36,7,-43,-39,-73,-19,-4,14,4
-19,-48,-29,34,4,-39,-39,-73,-19,-4,14,4
-19,-48,-29,34,4,-39,-43,-73,-19,-4,19,4
-19,-48,-29,34,4,-39,-43,-73,-19,-4,19,4
-19,-48,-29,34,4,-39,-43,-78,-19,0,19,4
-19,-48,-29,34,4,-39,-43,-82,-19,0,19,9
-19,-48,-29,34,4,-39,-43,-82,-19,0,24,9
-19,-43,-24,31,2,-34,-48,-82,-19,0,24,9
-19,-39,-19,29,0,-29,-39,-73,-14,9,24,14
