I,II,III,aVR,aVL,aVF,V1,V2,V3,V4,V5,V6,
19,-48,-68,14,43,-58,68,97,39,29,9,-165
19,-53,-73,17,46,-63,73,107,43,19,-4,-175
19,-58,-78,19,48,-68,78,117,48,9,-19,-185
29,-58,-87,14,58,-73,78,131,63,19,-19,-190
39,-58,-97,9,68,-78,78,146,78,29,-19,-195
43,-43,-87,0,65,-65,82,156,87,43,-9,-195
48,-29,-78,-9,63,-53,87,165,97,58,0,-195
58,-24,-82,-17,70,-53,92,180,117,63,0,-195
68,-19,-87,-24,78,-53,97,195,136,68,0,-195
78,-14,-92,-31,85,-53,102,214,151,73,0,-204
87,-9,-97,-39,92,-53,107,234,165,78,0,-214
97,4,-92,-51,95,-43,112,253,190,92,9,-219
107,19,-87,-63,97,-34,117,273,214,107,19,-224
117,29,-87,-73,102,-29,122,287,229,112,19,-224
126,39,-87,-82,107,-24,126,302,244,117,19,-224
136,43,-92,-90,114,-24,131,317,263,126,19,-224
146,48,-97,-97,122,-24,136,331,283,136,19,-224
156,53,-102,-104,129,-24,136,336,292,146,24,-224
165,58,-107,-112,136,-24,136,341,302,156,29,-224
165,73,-92,-119,129,-9,131,341,307,165,43,-209
165,87,-78,-126,122,4,126,341,312,175,58,-195
165,87,-78,-126,122,4,122,331,312,175,58,-190
165,87,-78,-126,122,4,117,322,312,175,58,-185
156,87,-68,-122,112,9,107,302,302,170,58,-185
146,87,-58,-117,102,14,97,283,292,165,58,-185
141,87,-53,-114,97,17,87,248,258,156,58,-185
136,87,-48,-112,92,19,78,214,224,146,58,-185
126,87,-39,-107,82,24,53,175,190,136,58,-175
117,87,-29,-102,73,29,29,136,156,126,58,-165
102,82,-19,-92,61,31,24,112,122,112,58,-165
87,78,-9,-82,48,34,19,87,87,97,58,-165
73,58,-14,-65,43,21,9,63,58,73,48,-165
58,39,-19,-48,39,9,0,39,29,48,39,-165
48,34,-14,-41,31,9,-9,24,14,39,34,-165
39,29,-9,-34,24,9,-19,9,0,29,29,-165
34,19,-14,-26,24,2,-19,-4,-9,19,24,-170
29,9,-19,-19,24,-4,-19,-19,-19,9,19,-175
24,4,-19,-14,21,-7,-19,-24,-34,0,14,-175
19,0,-19,-9,19,-9,-19,-29,-48,-9,9,-175
14,-14,-29,0,21,-21,-19,-29,-53,-19,4,-175
9,-29,-39,9,24,-34,-19,-29,-58,-29,0,-175
4,-29,-34,12,19,-31,-19,-34,-63,-29,-4,-175
0,-29,-29,14,14,-29,-19,-39,-68,-29,-9,-175
0,-24,-24,12,12,-24,-19,-39,-68,-29,-9,-175
0,-19,-19,9,9,-19,-19,-39,-68,-29,-9,-175
0,-19,-19,9,9,-19,-19,-34,-68,-34,-14,-170
0,-19,-19,9,9,-19,-19,-29,-68,-39,-19,-165
0,-29,-29,14,14,-29,-19,-29,-68,-39,-19,-165
0,-39,-39,19,19,-39,-19,-29,-68,-39,-19,-165
-4,-39,-34,21,14,-36,-19,-34,-68,-39,-19,-161
-9,-39,-29,24,9,-34,-19,-39,-68,-39,-19,-156
-9,-34,-24,21,7,-29,-19,-39,-68,-34,-19,-151
-9,-29,-19,19,4,-24,-19,-39,-68,-29,-19,-146
-9,-29,-19,19,4,-24,-14,-34,-68,-29,-19,-146
-9,-29,-19,19,4,-24,-9,-29,-68,-29,-19,-146
-9,-34,-24,21,7,-29,-9,-24,-68,-34,-24,-146
-9,-39,-29,24,9,-34,-9,-19,-68,-39,-29,-146
-4,-39,-34,21,14,-36,-9,-19,-68,-39,-29,-141
0,-34,-34,17,17,-34,-9,-19,-63,-34,-24,-131
0,-29,-29,14,14,-29,-9,-19,-63,-34,-24,-126
0,-14,-14,7,7,-14,-9,-14,-63,-24,-19,-117
0,-14,-14,7,7,-14,-9,-14,-63,-24,-19,-112
0,-14,-14,7,7,-14,-9,-14,-63,-24,-19,-112
0,-19,-19,9,9,-19,-4,-14,-63,-24,-19,-112
-4,-24,-19,14,7,-21,-4,-14,-58,-24,-19,-117
-9,-24,-14,17,2,-19,-4,-14,-53,-19,-19,-112
-14,-24,-9,19,-2,-17,-4,-14,-48,-19,-19,-107
-14,-24,-9,19,-2,-17,-4,-9,-48,-19,-14,-102
-9,-14,-4,12,-2,-9,0,-9,-43,-19,-14,-97
-4,-9,-4,7,0,-7,0,-9,-39,-9,-4,-92
4,-4,-9,0,7,-7,4,-4,-34,-4,0,-78
4,14,9,-9,-2,12,4,-4,-24,4,9,-63
9,29,19,-19,-4,24,4,0,-19,14,14,-48
9,29,19,-19,-4,24,4,0,-14,19,24,-48
9,48,39,-29,-14,43,4,0,-9,24,29,-39
14,68,53,-41,-19,61,4,-4,0,39,43,-9
24,102,78,-63,-26,90,-19,-4,4,48,53,9
39,117,78,-78,-19,97,-48,-14,4,53,68,24
39,117,78,-78,-19,97,-58,-19,0,53,68,24
48,102,53,-75,-2,78,-58,-19,-9,43,58,19
48,87,39,-68,4,63,-58,-19,-29,29,53,9
43,63,19,-53,12,41,-58,-19,-43,14,39,0
43,53,9,-48,17,31,-53,-19,-48,9,34,-9
34,43,9,-39,12,26,-43,-19,-48,9,29,-14
29,43,14,-36,7,29,-43,-19,-48,4,29,-14
29,24,-4,-26,17,9,-34,-14,-53,0,19,-19
19,14,-4,-17,12,4,-34,-14,-58,-4,19,-24
9,4,-4,-7,7,0,-29,-19,-68,-9,4,-29
0,-24,-24,12,12,-24,-24,-19,-78,-24,-14,-43
-4,-43,-39,24,17,-41,-19,-19,-87,-34,-29,-48
-14,-53,-39,34,12,-46,-14,-19,-92,-43,-34,-48
-14,-58,-43,36,14,-51,-14,-19,-97,-53,-43,-58
-14,-68,-53,41,19,-61,-14,-19,-102,-53,-43,-58
-14,-73,-58,43,21,-65,-9,-19,-102,-53,-48,-63
-14,-78,-63,46,24,-70,-9,-19,-97,-53,-48,-63
-14,-82,-68,48,26,-75,-4,-14,-97,-53,-48,-58
-14,-82,-68,48,26,-75,0,-14,-97,-53,-48,-58
-9,-87,-78,48,34,-82,0,-14,-97,-48,-48,-53
-9,-92,-82,51,36,-87,0,-9,-97,-53,-48,-53
-14,-97,-82,56,34,-90,9,9,-92,-53,-53,-58
-14,-102,-87,58,36,-95,39,43,-68,-48,-68,-68
14,-87,-102,36,58,-95,68,97,14,0,-39,-53
78,0,-78,-39,78,-39,43,122,112,102,39,-19
214,165,-48,-190,131,58,-78,136,141,283,195,87
453,400,-53,-427,253,173,-336,102,97,507,429,268
756,624,-131,-690,444,246,-570,92,0,639,624,409
1039,736,-302,-888,671,217,-780,73,-214,702,741,488
1166,800,-366,-983,766,217,-1000,-34,-453,644,766,531
1078,771,-307,-924,692,231,-1107,-209,-722,458,702,551
858,570,-287,-714,573,141,-1093,-385,-917,122,492,478
385,161,-224,-273,305,-31,-878,-590,-1063,-283,151,283
175,43,-131,-109,153,-43,-717,-610,-990,-351,48,200
107,136,29,-122,39,82,-522,-453,-688,-185,92,214
39,117,78,-78,-19,97,-346,-341,-448,-117,82,180
34,82,48,-58,-7,65,-224,-214,-302,-92,63,131
29,53,24,-41,2,39,-126,-107,-219,-53,34,92
24,-14,-39,-4,31,-26,-53,-34,-175,-39,-9,53
24,-53,-78,14,51,-65,-9,-29,-122,-39,-29,14
14,-58,-73,21,43,-65,9,-14,-102,-39,-34,14
9,-58,-68,24,39,-63,24,24,-87,-39,-39,0
4,-63,-68,29,36,-65,34,34,-82,-39,-48,0
0,-68,-68,34,34,-68,39,19,-78,-39,-53,0
0,-68,-68,34,34,-68,43,19,-68,-39,-53,-4
0,-78,-78,39,39,-78,53,24,-58,-39,-53,-4
0,-82,-82,41,41,-82,53,34,-53,-39,-53,-4
0,-82,-82,41,41,-82,58,39,-48,-34,-53,-9
0,-82,-82,41,41,-82,63,43,-43,-29,-48,-9
4,-78,-82,36,43,-80,58,48,-39,-29,-48,0
9,-68,-78,29,43,-73,53,53,-39,-24,-43,4
14,-68,-82,26,48,-75,58,58,-34,-24,-43,9
14,-68,-82,26,48,-75,58,58,-29,-24,-43,14
19,-58,-78,19,48,-68,58,63,-24,-19,-39,19
19,-58,-78,19,48,-68,58,63,-19,-19,-34,24
29,-48,-78,9,53,-63,58,68,-14,-9,-29,34
34,-43,-78,4,56,-61,58,73,-4,-9,-29,39
29,-43,-73,7,51,-58,58,78,0,-4,-29,39
29,-43,-73,7,51,-58,63,82,4,-4,-34,43
34,-43,-78,4,56,-61,63,87,4,0,-34,43
34,-34,-68,0,51,-51,68,92,9,4,-34,48
39,-29,-68,-4,53,-48,68,97,14,9,-29,48
43,-24,-68,-9,56,-46,68,102,24,14,-24,53
43,-24,-68,-9,56,-46,68,107,34,14,-24,58
48,-19,-68,-14,58,-43,68,112,43,19,-19,58
53,-14,-68,-19,61,-41,78,122,53,24,-14,63
58,-9,-68,-24,63,-39,78,126,58,29,-9,73
68,0,-68,-34,68,-34,78,141,73,34,-9,73
78,9,-68,-43,73,-29,78,161,82,43,-4,78
78,19,-58,-48,68,-19,82,170,97,48,-9,82
82,19,-63,-51,73,-21,87,185,117,63,-4,87
87,29,-58,-58,73,-14,92,204,131,73,-4,82
97,34,-63,-65,80,-14,97,224,151,78,0,97
107,39,-68,-73,87,-14,102,239,170,92,9,102
117,48,-68,-82,92,-9,112,253,190,97,14,107
122,58,-63,-90,92,-2,112,273,209,107,19,107
126,58,-68,-92,97,-4,112,283,229,117,24,112
136,73,-63,-104,100,4,117,292,239,131,24,112
141,82,-58,-112,100,12,117,297,253,136,29,122
146,92,-53,-119,100,19,117,302,258,146,34,126
151,102,-48,-126,100,26,117,307,268,151,39,131
151,107,-43,-129,97,31,117,307,268,156,39,131
146,107,-39,-126,92,34,117,307,268,156,39,141
146,112,-34,-129,90,39,107,297,268,156,43,146
146,117,-29,-131,87,43,102,283,258,156,53,151
136,122,-14,-129,75,53,97,263,248,151,58,156
131,122,-9,-126,70,56,82,229,224,141,63,165
122,122,0,-122,61,61,68,204,195,136,63,175
107,122,14,-114,46,68,53,175,161,122,63,180
82,117,34,-100,24,75,39,146,131,117,63,185
78,112,34,-95,21,73,29,117,97,102,63,180
68,102,34,-85,17,68,14,92,73,87,63,180
53,87,34,-70,9,61,0,78,48,63,53,180
43,78,34,-61,4,56,-9,63,29,53,48,180
34,63,29,-48,2,46,-9,48,9,39,39,180
24,53,29,-39,-2,41,-14,39,-9,29,34,170
14,43,29,-29,-7,36,-19,29,-19,24,29,165
9,39,29,-24,-9,34,-24,14,-29,9,24,165
0,34,34,-17,-17,34,-24,4,-43,0,19,165
0,24,24,-12,-12,24,-24,0,-48,-9,9,156
-4,19,24,-7,-14,21,-19,-4,-58,-14,0,156
-9,9,19,0,-14,14,-19,-9,-63,-19,-4,151
-14,9,24,2,-19,17,-19,-14,-68,-24,-4,151
-14,4,19,4,-17,12,-19,-14,-73,-29,4,151
-19,0,19,9,-19,9,-19,-14,-78,-29,0,151
-19,0,19,9,-19,9,-19,-14,-78,-29,0,156
-19,0,19,9,-19,9,-19,-14,-78,-29,4,156
-19,0,19,9,-19,9,-19,-14,-78,-29,0,151
-19,0,19,9,-19,9,-19,-14,-78,-29,-4,151
-19,0,19,9,-19,9,-24,-14,-78,-29,-4,146
-14,0,14,7,-14,7,-24,-14,-73,-29,-9,146
-9,0,9,4,-9,4,-19,-9,-68,-29,-9,146
-9,0,9,4,-9,4,-19,-9,-68,-29,-9,146
-9,0,9,4,-9,4,-19,-9,-68,-29,-9,146
-9,0,9,4,-9,4,-19,-9,-68,-29,-9,146
-4,4,9,0,-7,7,-19,-9,-63,-24,-4,151
0,9,9,-4,-4,9,-19,-9,-58,-19,0,156
0,9,9,-4,-4,9,-19,-9,-58,-19,0,156
0,9,9,-4,-4,9,-19,-9,-53,-19,0,156
0,9,9,-4,-4,9,-19,-9,-53,-19,0,156
0,14,14,-7,-7,14,-19,-4,-53,-14,0,156
0,9,9,-4,-4,9,-19,0,-53,-14,-4,151
0,4,4,-2,-2,4,-19,4,-53,-14,-9,141
0,4,4,-2,-2,4,-14,4,-53,-14,-9,141
-4,4,9,0,-7,7,-14,4,-48,-14,-9,136
-4,4,9,0,-7,7,-14,4,-48,-9,-9,136
-4,4,9,0,-7,7,-14,4,-48,-9,-9,136
-4,4,9,0,-7,7,-14,4,-48,-9,-4,136
0,14,14,-7,-7,14,-9,0,-43,-9,-4,136
4,19,14,-12,-4,17,-9,0,-39,-4,0,136
14,24,9,-19,2,17,-4,4,-34,-4,0,146
14,39,24,-26,-4,31,0,4,-24,0,9,146
19,48,29,-34,-4,39,4,9,-19,4,14,146
14,48,34,-31,-9,41,4,9,-14,14,24,146
9,68,58,-39,-24,63,4,9,-9,24,29,156
19,87,68,-53,-24,78,4,0,0,39,43,175
34,122,87,-78,-26,104,-19,-4,4,48,53,185
53,141,87,-97,-17,114,-48,-14,9,53,68,200
58,146,87,-102,-14,117,-58,-19,9,53,68,200
68,136,68,-102,0,102,-63,-24,0,48,63,200
68,126,58,-97,4,92,-68,-29,-19,39,63,195
63,102,39,-82,12,70,-68,-29,-34,24,48,190
63,92,29,-78,17,61,-63,-29,-39,19,43,185
53,82,29,-68,12,56,-53,-24,-39,19,39,175
48,82,34,-65,7,58,-53,-19,-39,14,39,170
48,63,14,-56,17,39,-43,-14,-43,9,29,165
39,53,14,-46,12,34,-43,-14,-48,4,29,161
19,39,19,-29,0,29,-39,-24,-53,-4,19,156
0,4,4,-2,-2,4,-34,-29,-58,-24,4,141
-4,-14,-9,9,2,-12,-29,-29,-73,-34,-9,122
-14,-24,-9,19,-2,-17,-24,-29,-82,-43,-14,107
-14,-29,-14,21,0,-21,-24,-29,-87,-53,-29,92
-14,-39,-24,26,4,-31,-24,-29,-92,-53,-34,87
-14,-43,-29,29,7,-36,-19,-24,-97,-53,-39,82
-14,-48,-34,31,9,-41,-19,-19,-97,-53,-39,82
-14,-53,-39,34,12,-46,-14,-14,-97,-53,-39,78
-14,-53,-39,34,12,-46,-9,-14,-97,-53,-39,68
-14,-63,-48,39,17,-56,-9,-19,-97,-53,-48,58
-19,-73,-53,46,17,-63,-9,-19,-97,-63,-58,43
-24,-87,-63,56,19,-75,0,-14,-107,-68,-63,34
-24,-102,-78,63,26,-90,29,4,-97,-68,-78,19
-14,-92,-78,53,31,-85,63,68,-9,-48,-68,24
29,-9,-39,-9,34,-24,43,102,92,24,-9,48
141,136,-4,-139,73,65,-92,102,126,180,112,126
356,351,-4,-353,180,173,-366,53,87,380,312,278
722,600,-122,-661,422,239,-610,78,39,541,502,400
1068,736,-331,-902,700,202,-829,92,-126,634,614,458
1332,873,-458,-1102,895,207,-1141,29,-351,678,722,551
1381,917,-463,-1149,922,226,-1342,-102,-605,595,741,619
1137,678,-458,-907,797,109,-1327,-356,-893,200,522,522
639,229,-409,-434,524,-90,-1112,-639,-1132,-263,170,302
326,82,-244,-204,285,-80,-922,-678,-1073,-346,68,229
156,146,-9,-151,82,68,-697,-541,-785,-195,112,253
78,146,68,-112,4,107,-473,-429,-502,-122,107,234
63,131,68,-97,-2,100,-302,-302,-312,-92,92,200
39,92,53,-65,-7,73,-190,-161,-219,-53,48,131
14,14,0,-14,7,7,-102,-53,-165,-39,-9,63
14,-24,-39,4,26,-31,-53,-53,-107,-43,-29,24
4,-29,-34,12,19,-31,-29,-43,-82,-48,-34,24
-4,-34,-29,19,12,-31,-4,0,-73,-48,-39,0
-14,-43,-29,29,7,-36,14,14,-73,-48,-48,-9
-19,-48,-29,34,4,-39,24,4,-68,-48,-53,-9
-19,-48,-29,34,4,-39,34,9,-58,-48,-53,-14
-19,-53,-34,36,7,-43,43,14,-48,-48,-53,-14
-19,-53,-34,36,7,-43,43,24,-43,-48,-53,-14
-19,-53,-34,36,7,-43,48,29,-39,-43,-58,-19
-19,-53,-34,36,7,-43,53,34,-34,-39,-58,-19
-19,-53,-34,36,7,-43,53,34,-24,-39,-58,-14
-19,-48,-29,34,4,-39,53,34,-19,-34,-53,-14
-14,-48,-34,31,9,-41,58,39,-14,-34,-48,-9
-14,-48,-34,31,9,-41,58,39,-9,-34,-43,-4
-9,-39,-29,24,9,-34,58,48,-4,-29,-43,4
-9,-39,-29,24,9,-34,58,53,0,-29,-43,14
0,-29,-29,14,14,-29,58,58,0,-24,-39,19
4,-24,-29,9,17,-26,58,63,4,-29,-39,19
4,-19,-24,7,14,-21,53,63,9,-24,-34,24
9,-14,-24,2,17,-19,53,63,14,-24,-34,34
14,-14,-29,0,21,-21,53,68,19,-14,-34,48
14,-4,-19,-4,17,-12,58,73,29,-4,-34,68
19,0,-19,-9,19,-9,58,82,34,0,-29,73
24,4,-19,-14,21,-7,58,92,43,4,-24,82
24,4,-19,-14,21,-7,58,97,53,4,-24,97
29,9,-19,-19,24,-4,58,102,63,9,-19,107
34,14,-19,-24,26,-2,73,117,78,14,-19,112
39,19,-19,-29,29,0,78,126,87,19,-19,122
43,24,-19,-34,31,2,82,136,102,24,-19,122
48,29,-19,-39,34,4,87,151,112,34,-14,126
53,39,-14,-46,34,12,92,165,126,39,-14,126
63,39,-24,-51,43,7,97,185,146,53,-4,126
68,48,-19,-58,43,14,107,204,165,63,-4,117
78,53,-24,-65,51,14,117,224,190,68,0,126
87,63,-24,-75,56,19,122,244,209,82,4,126
97,78,-19,-87,58,29,131,263,229,87,4,126
107,87,-19,-97,63,34,141,287,248,97,9,117
117,87,-29,-102,73,29,151,302,268,107,14,112
126,102,-24,-114,75,39,156,317,278,122,14,107
131,112,-19,-122,75,46,156,326,292,126,19,112
136,117,-19,-126,78,48,161,331,297,136,24,112
141,122,-19,-131,80,51,165,336,307,141,29,112
146,122,-24,-134,85,48,165,336,307,146,29,102
146,117,-29,-131,87,43,165,336,307,146,29,102
146,122,-24,-134,85,48,151,326,307,146,29,97
146,126,-19,-136,82,53,141,312,297,146,34,92
136,131,-4,-134,70,63,131,292,287,146,39,97
131,131,0,-131,65,65,112,258,263,141,43,107
131,131,0,-131,65,65,92,229,234,136,43,112
126,131,4,-129,61,68,73,195,200,122,43,112
102,126,24,-114,39,75,53,161,170,112,43,112
97,122,24,-109,36,73,39,126,136,92,43,102
92,112,19,-102,36,65,24,92,97,78,43,102
82,97,14,-90,34,56,9,68,58,53,34,102
73,87,14,-80,29,51,-4,43,39,43,34,102
63,73,9,-68,26,41,-9,19,19,29,29,102
53,63,9,-58,21,36,-19,9,-4,19,24,97
43,53,9,-48,17,31,-29,0,-19,14,19,97
39,43,4,-41,17,24,-34,-14,-29,0,14,97
29,34,4,-31,12,19,-34,-24,-43,-9,9,97
29,24,-4,-26,17,9,-39,-29,-53,-19,4,92
24,19,-4,-21,14,7,-39,-34,-68,-24,0,97
24,9,-14,-17,19,-2,-39,-39,-73,-29,-4,97
24,9,-14,-17,19,-2,-39,-43,-78,-34,-4,102
24,4,-19,-14,21,-7,-39,-43,-82,-39,-4,107
19,0,-19,-9,19,-9,-39,-43,-87,-39,-19,112
19,0,-19,-9,19,-9,-39,-43,-87,-39,-19,117
19,0,-19,-9,19,-9,-39,-43,-87,-39,-14,117
14,0,-14,-7,14,-7,-39,-43,-87,-34,-14,122
9,0,-9,-4,9,-4,-39,-43,-87,-29,-14,131
4,0,-4,-2,4,-2,-39,-43,-87,-29,-14,126
4,0,-4,-2,4,-2,-39,-43,-82,-29,-14,126
4,0,-4,-2,4,-2,-34,-43,-82,-34,-14,126
4,0,-4,-2,4,-2,-34,-43,-82,-34,-9,122
0,0,0,0,0,0,-29,-39,-78,-29,-9,117
0,0,0,0,0,0,-29,-39,-78,-29,-9,117
0,0,0,0,0,0,-29,-39,-73,-29,-9,112
0,0,0,0,0,0,-29,-39,-68,-29,-9,107
0,0,0,0,0,0,-29,-39,-68,-24,-9,107
0,0,0,0,0,0,-29,-39,-68,-19,-9,102
-4,-4,0,4,-2,-2,-29,-39,-68,-19,-9,102
-9,-9,0,9,-4,-4,-29,-39,-63,-19,-9,97
-9,-4,4,7,-7,0,-29,-29,-63,-14,-9,92
-9,-4,4,7,-7,0,-29,-24,-63,-14,-9,87
-9,-4,4,7,-7,0,-29,-24,-63,-14,-9,82
-4,-4,0,4,-2,-2,-24,-24,-63,-14,-9,82
-4,-4,0,4,-2,-2,-24,-24,-63,-14,-9,73
-4,-4,0,4,-2,-2,-24,-24,-68,-9,-9,68
-4,-4,0,4,-2,-2,-24,-24,-68,-9,-9,63
-4,-4,0,4,-2,-2,-24,-19,-68,-9,-4,58
0,4,4,-2,-2,4,-19,-19,-63,-9,-4,53
0,9,9,-4,-4,9,-19,-19,-58,0,0,48
4,14,9,-9,-2,12,-14,-14,-53,4,0,53
4,29,24,-17,-9,26,-9,-14,-43,9,9,48
4,34,29,-19,-12,31,0,-9,-39,9,9,43
0,29,29,-14,-14,29,4,-9,-34,9,9,39
0,48,48,-24,-24,48,4,-9,-29,14,9,39
9,68,58,-39,-24,63,4,-14,-19,29,24,48
24,102,78,-63,-26,90,-24,-14,-14,39,34,58
43,117,73,-80,-14,95,-58,-24,-9,43,48,73
48,117,68,-82,-9,92,-68,-29,-9,43,48,73
58,107,48,-82,4,78,-73,-29,-19,39,43,68
63,102,39,-82,12,70,-78,-29,-39,34,43,53
63,82,19,-73,21,51,-78,-29,-53,24,29,43
63,73,9,-68,26,41,-73,-29,-58,19,24,34
53,63,9,-58,21,36,-63,-29,-58,19,19,24
48,63,14,-56,17,39,-63,-29,-58,14,19,24
48,43,-4,-46,26,19,-53,-24,-63,9,9,19
39,34,-4,-36,21,14,-53,-24,-68,4,9,9
19,24,4,-21,7,14,-48,-29,-73,0,0,0
0,-4,-4,2,2,-4,-43,-29,-73,-14,-14,-19
-4,-24,-19,14,7,-21,-39,-29,-78,-24,-29,-34
-19,-34,-14,26,-2,-24,-34,-29,-82,-34,-34,-39
-24,-39,-14,31,-4,-26,-34,-29,-87,-43,-43,-48
-24,-48,-24,36,0,-36,-34,-24,-92,-48,-43,-48
-24,-53,-29,39,2,-41,-29,-19,-97,-53,-48,-53
-29,-58,-29,43,0,-43,-29,-19,-97,-53,-48,-53
-34,-63,-29,48,-2,-46,-24,-14,-97,-53,-48,-53
-34,-63,-29,48,-2,-46,-19,-14,-92,-53,-48,-58
-34,-68,-34,51,0,-51,-19,-14,-87,-53,-53,-58
-39,-73,-34,56,-2,-53,-19,-14,-87,-63,-58,-63
-43,-87,-43,65,0,-65,-9,-9,-97,-68,-63,-73
-43,-112,-68,78,12,-90,19,14,-102,-78,-87,-97
-39,-122,-82,80,21,-102,63,82,-34,-68,-97,-107
-39,-78,-39,58,0,-58,87,122,78,-19,-78,-107
34,19,-14,-26,24,2,0,122,122,92,0,-58
200,200,0,-200,100,100,-258,63,63,273,185,82
507,409,-97,-458,302,156,-502,73,-24,405,356,195
907,546,-361,-727,634,92,-727,112,-175,522,478,244
1234,707,-527,-971,880,90,-1034,73,-361,619,614,336
1400,854,-546,-1127,973,153,-1298,-29,-614,610,712,453
1288,756,-531,-1022,910,112,-1390,-248,-873,331,600,434
766,263,-502,-514,634,-119,-1210,-595,-1171,-200,204,214
414,34,-380,-224,397,-173,-1005,-697,-1200,-395,29,117
204,117,-87,-161,146,14,-756,-561,-883,-229,82,146
87,136,48,-112,19,92,-531,-448,-580,-136,92,131
68,122,53,-95,7,87,-356,-322,-370,-92,82,102
39,92,53,-65,-7,73,-229,-180,-239,-43,53,48
9,19,9,-14,0,14,-122,-63,-175,-29,9,-9
0,-24,-24,12,12,-24,-53,-48,-117,-29,-9,-53
-19,-34,-14,26,-2,-24,-29,-34,-82,-24,-14,-53
-34,-43,-9,39,-12,-26,-4,9,-58,-19,-19,-73
-43,-53,-9,48,-17,-31,14,29,-53,-19,-34,-78
-48,-58,-9,53,-19,-34,19,19,-48,-19,-43,-78
-48,-58,-9,53,-19,-34,24,19,-39,-19,-43,-82
-48,-63,-14,56,-17,-39,34,24,-29,-19,-43,-87
-48,-63,-14,56,-17,-39,34,34,-24,-19,-43,-97
-48,-63,-14,56,-17,-39,39,39,-19,-14,-48,-107
-48,-63,-14,56,-17,-39,48,43,-14,-9,-48,-107
-48,-63,-14,56,-17,-39,53,48,-4,-9,-48,-102
-48,-58,-9,53,-19,-34,53,53,0,-4,-43,-107
-43,-58,-14,51,-14,-36,58,58,4,-4,-43,-112
-43,-58,-14,51,-14,-36,58,58,9,-4,-43,-112
-39,-48,-9,43,-14,-29,58,63,14,0,-43,-112
-43,-48,-4,46,-19,-26,58,63,24,0,-43,-112
-39,-39,0,39,-19,-19,58,68,29,9,-39,-107
-34,-34,0,34,-17,-17,58,73,34,9,-39,-107
-34,-34,0,34,-17,-17,58,78,39,14,-34,-107
-34,-34,0,34,-17,-17,58,82,43,14,-29,-102
-34,-34,0,34,-17,-17,53,87,48,19,-24,-102
-34,-24,9,29,-21,-7,58,92,58,24,-24,-97
-29,-19,9,24,-19,-4,58,97,63,29,-19,-97
-19,-14,4,17,-12,-4,58,102,73,34,-14,-92
-14,-14,0,14,-7,-7,58,107,82,34,-14,-87
-9,-4,4,7,-7,0,58,112,97,39,-9,-82
-4,4,9,0,-7,7,68,126,112,43,-9,-78
0,9,9,-4,-4,9,73,131,117,53,-9,-73
9,14,4,-12,2,9,82,141,131,63,-9,-73
19,24,4,-21,7,14,87,161,146,73,-4,-68
24,39,14,-31,4,26,92,175,165,78,-4,-68
29,39,9,-34,9,24,97,195,185,92,4,-63
29,48,19,-39,4,34,107,214,204,102,4,-68
39,48,9,-43,14,29,117,234,234,112,9,-53
48,53,4,-51,21,29,122,253,258,131,14,-48
53,68,14,-61,19,41,131,273,278,136,14,-43
58,78,19,-68,19,48,136,292,297,146,19,-43
68,78,9,-73,29,43,141,307,322,156,24,-43
78,92,14,-85,31,53,146,326,336,170,24,-43
87,102,14,-95,36,58,146,336,351,175,29,-39
97,107,9,-102,43,58,146,341,356,185,34,-39
102,112,9,-107,46,61,146,351,366,190,39,-34
107,117,9,-112,48,63,146,356,366,195,39,-34
112,117,4,-114,53,61,151,356,366,195,39,-24
117,122,4,-119,56,63,146,346,366,195,43,-19
117,126,9,-122,53,68,141,336,356,195,48,-14
107,131,24,-119,41,78,131,322,346,195,48,-9
102,126,24,-114,39,75,112,287,317,190,53,0
97,122,24,-109,36,73,97,258,283,185,53,4
92,122,29,-107,31,75,82,224,248,165,53,9
73,117,43,-95,14,80,63,190,219,151,53,14
68,112,43,-90,12,78,48,156,180,131,53,4
58,102,43,-80,7,73,34,122,141,117,53,4
43,87,43,-65,0,65,19,97,102,87,43,4
34,78,43,-56,-4,61,4,78,78,73,39,4
24,63,39,-43,-7,51,-4,48,48,53,29,4
14,53,39,-34,-12,46,-14,29,14,39,24,-4
4,43,39,-24,-17,41,-19,19,0,34,19,-14
0,34,34,-17,-17,34,-24,4,-9,19,14,-19
-9,24,34,-7,-21,29,-24,-4,-29,9,9,-19
-9,14,24,-2,-17,19,-29,-9,-39,0,4,-29
-14,9,24,2,-19,17,-29,-14,-48,-4,0,-29
-19,0,19,9,-19,9,-29,-19,-53,-9,-4,-34
-24,0,24,12,-24,12,-29,-24,-58,-14,-4,-34
-24,-4,19,14,-21,7,-29,-24,-63,-19,-4,-34
-29,-14,14,21,-21,0,-29,-29,-68,-19,-19,-34
-29,-19,9,24,-19,-4,-29,-34,-68,-19,-19,-29
-29,-19,9,24,-19,-4,-29,-34,-73,-19,-14,-29
-29,-19,9,24,-19,-4,-29,-34,-78,-19,-14,-34
-29,-19,9,24,-19,-4,-29,-34,-78,-19,-14,-34
-34,-19,14,26,-24,-2,-29,-34,-78,-19,-14,-39
-34,-19,14,26,-24,-2,-29,-34,-73,-19,-14,-39
-34,-19,14,26,-24,-2,-24,-34,-73,-24,-19,-39
-29,-19,9,24,-19,-4,-19,-29,-68,-19,-19,-39
-29,-19,9,24,-19,-4,-19,-29,-68,-19,-19,-39
-29,-19,9,24,-19,-4,-19,-29,-68,-19,-14,-39
-29,-19,9,24,-19,-4,-19,-29,-68,-19,-9,-39
-29,-19,9,24,-19,-4,-19,-29,-63,-19,-9,-39
-29,-19,9,24,-19,-4,-19,-29,-58,-19,-9,-39
-29,-19,9,24,-19,-4,-19,-29,-58,-19,-9,-39
-29,-19,9,24,-19,-4,-19,-29,-53,-19,-9,-39
-29,-19,9,24,-19,-4,-19,-29,-53,-19,-9,-39
-29,-14,14,21,-21,0,-19,-24,-53,-14,-9,-39
-29,-14,14,21,-21,0,-19,-19,-53,-9,-9,-39
-29,-14,14,21,-21,0,-19,-14,-53,-4,-9,-43
-24,-14,9,19,-17,-2,-14,-14,-53,-4,-9,-43
-24,-14,9,19,-17,-2,-14,-14,-48,-4,-9,-48
-19,-14,4,17,-12,-4,-14,-14,-48,-4,-14,-53
-14,-14,0,14,-7,-7,-14,-14,-48,-9,-19,-58
-14,-14,0,14,-7,-7,-14,-9,-48,-9,-14,-58
-9,-4,4,7,-7,0,-9,-9,-43,-9,-14,-58
-9,0,9,4,-9,4,-9,-9,-39,0,-9,-53
-4,4,9,0,-7,7,-4,-4,-34,4,-9,-39
-4,19,24,-7,-14,21,0,-9,-24,9,0,-39
0,29,29,-14,-14,29,4,-9,-19,14,4,-39
0,29,29,-14,-14,29,4,-9,-14,19,9,-39
0,48,48,-24,-24,48,4,-9,-9,24,9,-29
9,63,53,-36,-21,58,0,-14,0,39,24,-9
24,92,68,-58,-21,80,-29,-14,4,48,34,0
43,107,63,-75,-9,85,-58,-19,9,53,48,14
48,107,58,-78,-4,82,-68,-19,9,53,48,14
58,97,39,-78,9,68,-73,-19,0,48,43,9
58,87,29,-73,14,58,-78,-19,-19,39,43,0
53,68,14,-61,19,41,-78,-19,-34,24,29,-4
53,63,9,-58,21,36,-73,-19,-39,19,24,-9
43,53,9,-48,17,31,-63,-19,-39,19,19,-19
39,53,14,-46,12,34,-63,-19,-39,14,19,-24
39,29,-9,-34,24,9,-48,-14,-43,9,9,-29
29,14,-14,-21,21,0,-43,-14,-48,4,9,-34
9,4,-4,-7,7,0,-39,-19,-58,0,0,-39
-9,-24,-14,17,2,-19,-34,-19,-68,-14,-14,-53
-14,-43,-29,29,7,-36,-29,-19,-78,-19,-29,-58
-24,-53,-29,39,2,-41,-24,-19,-82,-24,-34,-58
-24,-53,-29,39,2,-41,-24,-19,-82,-34,-43,-68
-24,-58,-34,41,4,-46,-24,-19,-82,-34,-43,-68
-29,-63,-34,46,2,-48,-19,-19,-87,-39,-48,-78
-34,-68,-34,51,0,-51,-19,-19,-87,-43,-48,-82
-34,-78,-43,56,4,-61,-14,-14,-87,-43,-48,-82
-34,-82,-48,58,7,-65,-9,-14,-87,-43,-48,-87
-34,-87,-53,61,9,-70,-9,-14,-87,-43,-53,-87
-39,-92,-53,65,7,-73,-9,-9,-87,-53,-58,-92
-43,-107,-63,75,9,-85,0,4,-97,-58,-63,-102
-43,-122,-78,82,17,-100,29,34,-87,-58,-78,-117
-39,-122,-82,80,21,-102,68,102,-4,-39,-78,-117
0,-48,-48,24,24,-48,53,141,92,34,-29,-97
82,29,-53,-56,68,-12,-68,112,34,112,39,-53
268,175,-92,-222,180,41,-326,34,-97,234,185,63
634,366,-268,-500,451,48,-556,68,-180,341,331,151
980,444,-536,-712,758,-46,-761,92,-380,380,400,175
1273,595,-678,-934,976,-41,-1088,24,-585,453,522,268
1351,653,-697,-1002,1024,-21,-1302,-112,-819,400,556,336
1122,463,-658,-793,890,-97,-1312,-366,-1068,48,375,273
639,63,-575,-351,607,-256,-1122,-649,-1268,-370,63,87
331,-53,-385,-139,358,-219,-912,-678,-1161,-419,-19,43
165,39,-126,-102,146,-43,-668,-531,-824,-234,43,97
87,58,-29,-73,58,14,-453,-414,-536,-146,53,92
73,63,-9,-68,41,26,-292,-283,-341,-102,53,73
39,43,4,-41,17,24,-180,-141,-234,-48,34,19
4,-14,-19,4,12,-17,-92,-34,-165,-19,0,-34
0,-48,-48,24,24,-48,-43,-34,-102,-19,-19,-63
-14,-48,-34,31,9,-41,-19,-24,-73,-19,-24,-53
-24,-53,-29,39,2,-41,4,19,-58,-19,-29,-73
-34,-63,-29,48,-2,-46,24,34,-53,-19,-39,-78
-43,-68,-24,56,-9,-46,29,19,-48,-19,-43,-78
-48,-68,-19,58,-14,-43,34,19,-39,-19,-43,-82
-48,-73,-24,61,-12,-48,43,24,-29,-19,-43,-87
-48,-73,-24,61,-12,-48,43,34,-24,-19,-43,-92
-48,-68,-19,58,-14,-43,48,39,-19,-14,-48,-97
-48,-63,-14,56,-17,-39,53,43,-14,-9,-48,-97
-43,-63,-19,53,-12,-41,53,48,-4,-9,-48,-92
-39,-58,-19,48,-9,-39,53,53,0,-4,-43,-92
-34,-58,-24,46,-4,-41,58,58,4,-4,-43,-92
-34,-58,-24,46,-4,-41,58,58,9,-4,-43,-92
-34,-48,-14,41,-9,-31,58,68,14,0,-39,-87
-39,-48,-9,43,-14,-29,58,73,19,0,-34,-82
-29,-43,-14,36,-7,-29,63,78,24,9,-29,-78
-24,-43,-19,34,-2,-31,68,82,34,9,-29,-78
-24,-43,-19,34,-2,-31,68,87,39,14,-29,-78
-19,-43,-24,31,2,-34,73,92,43,14,-34,-73
-14,-43,-29,29,7,-36,73,97,48,19,-34,-73
-14,-34,-19,24,2,-26,78,102,58,24,-34,-68
-9,-29,-19,19,4,-24,78,112,63,29,-29,-68
-4,-24,-19,14,7,-21,78,122,73,34,-24,-63
-4,-24,-19,14,7,-21,78,126,82,39,-19,-58
0,-19,-19,9,9,-19,78,131,92,48,-9,-58
4,-14,-19,4,12,-17,87,146,107,53,-9,-58
9,-9,-19,0,14,-14,87,156,117,58,-9,-53
19,-9,-29,-4,24,-19,97,175,131,63,-14,-58
29,-9,-39,-9,34,-24,107,200,141,73,-14,-58
34,0,-34,-17,34,-17,112,214,156,78,-14,-58
43,0,-43,-21,43,-21,117,234,175,92,-4,-58
48,24,-24,-36,36,0,126,253,195,102,0,-58
58,43,-14,-51,36,14,136,273,219,107,9,-39
68,39,-29,-53,48,4,146,297,239,122,14,-39
78,39,-39,-58,58,0,161,322,258,126,14,-39
87,39,-48,-63,68,-4,165,351,278,136,14,-48
97,29,-68,-63,82,-19,170,370,297,146,14,-53
107,43,-63,-75,85,-9,175,385,307,161,14,-53
112,53,-58,-82,85,-2,175,395,322,165,19,-43
122,63,-58,-92,90,2,175,400,326,175,24,-39
131,73,-58,-102,95,7,175,405,336,180,29,-34
136,78,-58,-107,97,9,175,409,336,185,29,-39
136,78,-58,-107,97,9,175,414,336,185,29,-34
136,87,-48,-112,92,19,165,405,336,185,34,-29
136,97,-39,-117,87,29,161,390,326,185,43,-24
126,102,-24,-114,75,39,151,370,317,185,48,-19
122,102,-19,-112,70,41,131,336,292,180,53,-9
117,92,-24,-104,70,34,117,307,263,170,53,-4
107,82,-24,-95,65,29,102,273,229,151,53,-4
82,78,-4,-80,43,36,78,229,195,141,53,-4
78,73,-4,-75,41,34,58,185,156,122,53,-14
68,63,-4,-65,36,29,43,151,122,107,53,-14
53,48,-4,-51,29,21,29,126,87,82,43,-14
43,39,-4,-41,24,17,14,102,63,73,34,-14
34,24,-9,-29,21,7,9,78,39,58,19,-14
24,14,-9,-19,17,2,4,63,14,48,14,-34
14,4,-9,-9,12,-2,0,48,0,43,9,-48
9,-4,-14,-2,12,-9,-4,34,-9,29,9,-48
0,-14,-14,7,7,-14,-4,24,-24,19,9,-48
-4,-24,-19,14,7,-21,-9,19,-29,4,4,-58
-14,-29,-14,21,0,-21,-9,14,-39,-4,0,-58
-19,-48,-29,34,4,-39,-9,9,-43,-9,-14,-68
-24,-58,-34,41,4,-46,-9,4,-48,-14,-24,-73
-24,-63,-39,43,7,-51,-9,4,-53,-19,-14,-78
-29,-68,-39,48,4,-53,-9,4,-58,-19,-19,-82
-29,-63,-34,46,2,-48,-9,0,-58,-19,-14,-78
-29,-58,-29,43,0,-43,-9,-4,-58,-19,-4,-78
-29,-58,-29,43,0,-43,-9,-4,-58,-19,-4,-82
-29,-58,-29,43,0,-43,-9,-4,-58,-19,-4,-82
-34,-63,-29,48,-2,-46,-9,-4,-58,-14,-4,-87
-34,-68,-34,51,0,-51,-4,-4,-53,-9,-9,-87
-34,-68,-34,51,0,-51,0,0,-48,-9,-9,-92
-39,-68,-29,53,-4,-48,0,0,-48,-9,-9,-97
-39,-68,-29,53,-4,-48,0,0,-48,-9,-9,-102
-39,-68,-29,53,-4,-48,0,0,-48,-9,-9,-107
-39,-68,-29,53,-4,-48,0,0,-48,-9,-9,-112
-39,-68,-29,53,-4,-48,0,0,-48,-9,-9,-117
-34,-68,-34,51,0,-51,-4,0,-48,-9,-9,-117
-29,-68,-39,48,4,-53,-4,0,-43,-9,-9,-117
-29,-68,-39,48,4,-53,-9,0,-39,-9,-9,-122
-29,-63,-34,46,2,-48,-9,4,-34,-4,-9,-126
-34,-63,-29,48,-2,-46,-9,4,-34,-4,-9,-131
-39,-63,-24,51,-7,-43,-9,4,-34,-4,-9,-141
-34,-63,-29,48,-2,-46,-4,4,-34,-4,-9,-141
-34,-63,-29,48,-2,-46,-4,4,-29,-4,-9,-146
-34,-58,-24,46,-4,-41,-4,4,-29,0,-9,-146
-34,-53,-19,43,-7,-36,-4,4,-29,0,-9,-146
-34,-53,-19,43,-7,-36,-4,9,-29,0,-4,-146
-29,-43,-14,36,-7,-29,0,9,-24,0,-4,-146
-29,-43,-14,36,-7,-29,-4,4,-19,4,-4,-156
-24,-43,-19,34,-2,-31,-4,4,-14,4,-9,-156
-24,-29,-4,26,-9,-17,0,4,-4,9,0,-161
-19,-19,0,19,-9,-9,4,9,0,14,4,-165
-19,-19,0,19,-9,-9,9,9,4,19,14,-165
-19,0,19,9,-19,9,14,9,9,24,19,-156
-9,24,34,-7,-21,29,14,4,19,43,39,-131
4,63,58,-34,-26,61,-9,4,24,58,53,-117
29,87,58,-58,-14,73,-39,-4,29,63,68,-102
39,97,58,-68,-9,78,-48,-9,29,63,68,-102
48,73,24,-61,12,48,-53,-9,19,58,58,-107
48,48,0,-48,24,24,-58,-9,0,48,53,-117
43,24,-19,-34,31,2,-58,-9,-14,29,39,-122
43,14,-29,-29,36,-7,-53,-9,-19,19,34,-126
34,4,-29,-19,31,-12,-43,-9,-19,19,29,-131
29,4,-24,-17,26,-9,-43,-9,-19,14,29,-131
29,-14,-43,-7,36,-29,-34,-4,-24,9,19,-136
19,-24,-43,2,31,-34,-34,-4,-29,4,19,-141
0,-29,-29,14,14,-29,-29,-14,-34,4,14,-146
-19,-53,-34,36,7,-43,-24,-19,-39,-4,4,-161
-29,-73,-43,51,7,-58,-19,-19,-48,-14,-9,-170
-43,-82,-39,63,-2,-61,-14,-19,-53,-24,-14,-175
-43,-92,-48,68,2,-70,-14,-19,-58,-34,-24,-190
-43,-107,-63,75,9,-85,-14,-19,-63,-34,-24,-195
-43,-112,-68,78,12,-90,-14,-19,-68,-34,-29,-209
-43,-117,-73,80,14,-95,-19,-19,-68,-34,-29,-219
-43,-112,-68,78,12,-90,-14,-14,-68,-34,-29,-209
-43,-102,-58,73,7,-80,-9,-14,-68,-34,-29,-204
-43,-107,-63,75,9,-85,-9,-14,-68,-34,-34,-204
-48,-112,-63,80,7,-87,-9,-9,-68,-43,-39,-209
-53,-141,-87,97,17,-114,0,-4,-87,-53,-48,-229
-53,-170,-117,112,31,-143,29,14,-87,-58,-68,-253
-58,-170,-112,114,26,-141,92,82,-4,-43,-73,-253
-29,-97,-68,63,19,-82,102,122,92,24,-29,-234
34,-9,-43,-12,39,-26,34,126,156,131,48,-185
200,146,-53,-173,126,46,-170,82,146,283,204,-63
556,361,-195,-458,375,82,-414,102,63,395,361,34
893,463,-429,-678,661,17,-634,112,-136,439,439,68
1234,658,-575,-946,905,41,-985,58,-370,551,600,190
1361,761,-600,-1061,980,80,-1224,-63,-634,536,673,287
1132,570,-561,-851,846,4,-1288,-351,-946,156,483,234
649,170,-478,-409,563,-153,-1151,-668,-1210,-292,161,58
312,0,-312,-156,312,-156,-966,-732,-1166,-375,48,-9
117,39,-78,-78,97,-19,-746,-619,-893,-224,82,19
39,63,24,-51,7,43,-517,-488,-585,-146,92,4
24,73,48,-48,-12,61,-341,-341,-370,-112,92,-24
4,43,39,-24,-17,41,-209,-185,-248,-43,63,-82
-14,-24,-9,19,-2,-17,-102,-63,-165,0,19,-141
-9,-63,-53,36,21,-58,-53,-58,-107,-9,0,-180
-14,-68,-53,41,19,-61,-29,-43,-82,-19,-4,-180
-24,-78,-53,51,14,-65,0,9,-63,-19,-9,-200
-34,-92,-58,63,12,-75,24,34,-53,-19,-19,-204
-39,-97,-58,68,9,-78,29,19,-48,-19,-24,-204
-39,-97,-58,68,9,-78,34,19,-39,-19,-24,-209
-39,-102,-63,70,12,-82,43,24,-24,-19,-29,-214
-39,-102,-63,70,12,-82,43,34,-14,-19,-34,-219
-39,-107,-68,73,14,-87,48,39,-9,-14,-39,-229
-39,-112,-73,75,17,-92,53,43,-4,-9,-39,-234
-39,-112,-73,75,17,-92,53,48,0,-9,-34,-229
-39,-107,-68,73,14,-87,53,53,0,-4,-24,-229
-34,-107,-73,70,19,-90,58,58,4,-4,-24,-229
-34,-107,-73,70,19,-90,58,58,9,-4,-24,-229
-29,-97,-68,63,19,-82,58,63,14,-4,-29,-229
-29,-97,-68,63,19,-82,58,63,19,-9,-34,-229
-19,-87,-68,53,24,-78,58,68,19,0,-29,-219
-14,-82,-68,48,26,-75,58,73,24,0,-29,-214
-14,-82,-68,48,26,-75,53,78,29,9,-19,-209
-9,-82,-73,46,31,-78,53,82,34,14,-14,-200
-4,-82,-78,43,36,-80,53,87,39,19,-14,-200
-4,-73,-68,39,31,-70,58,92,48,24,-14,-195
0,-68,-68,34,34,-68,58,97,48,24,-14,-195
4,-63,-68,29,36,-65,58,102,53,24,-14,-190
4,-63,-68,29,36,-65,58,107,63,24,-14,-185
9,-58,-68,24,39,-63,58,112,73,29,-9,-185
14,-58,-73,21,43,-65,68,126,82,34,-9,-185
19,-58,-78,19,48,-68,68,136,87,39,-9,-180
29,-53,-82,12,56,-68,73,146,102,43,-9,-185
39,-48,-87,4,63,-68,78,161,112,53,-4,-185
43,-39,-82,-2,63,-61,82,175,126,58,-4,-185
53,-39,-92,-7,73,-65,87,195,146,73,4,-185
63,-29,-92,-17,78,-61,92,209,165,82,4,-195
78,-24,-102,-26,90,-63,97,224,190,87,9,-185
87,-9,-97,-39,92,-53,102,244,209,102,14,-180
97,9,-87,-53,92,-39,112,263,229,107,14,-175
107,19,-87,-63,97,-34,117,283,248,117,19,-180
117,19,-97,-68,107,-39,122,292,268,126,24,-180
122,34,-87,-78,104,-26,126,307,278,141,24,-180
122,43,-78,-82,100,-17,126,317,292,146,29,-170
126,48,-78,-87,102,-14,126,322,297,156,34,-165
131,53,-78,-92,104,-12,126,326,307,161,39,-161
136,58,-78,-97,107,-9,126,326,312,165,39,-161
136,58,-78,-97,107,-9,126,326,317,165,39,-151
141,68,-73,-104,107,-2,117,322,317,170,43,-136
146,78,-68,-112,107,4,112,312,307,175,53,-122
136,87,-48,-112,92,19,102,292,302,175,63,-112
131,92,-39,-112,85,26,82,258,283,170,73,-97
131,97,-34,-114,82,31,68,229,253,170,78,-87
126,102,-24,-114,75,39,53,195,219,161,82,-82
102,102,0,-102,51,51,34,161,195,151,82,-68
97,102,4,-100,46,53,19,126,165,131,82,-63
87,92,4,-90,41,48,4,92,131,117,82,-58
73,78,4,-75,34,41,-9,68,97,92,73,-53
63,68,4,-65,29,36,-24,48,78,82,68,-53
53,53,0,-53,26,26,-29,29,58,68,58,-53
43,39,-4,-41,24,17,-29,19,34,53,48,-63
34,24,-9,-29,21,7,-29,9,19,43,39,-68
24,14,-9,-19,17,2,-34,-4,4,29,34,-63
9,4,-4,-7,7,0,-34,-14,-14,19,29,-58
9,-4,-14,-2,12,-9,-39,-19,-19,9,24,-63
4,-9,-14,2,9,-12,-39,-24,-29,4,19,-58
0,-19,-19,9,9,-19,-39,-29,-34,-4,14,-63
-4,-19,-14,12,4,-17,-39,-34,-39,-14,14,-63
-4,-24,-19,14,7,-21,-34,-34,-43,-19,14,-63
-9,-29,-19,19,4,-24,-29,-34,-48,-19,0,-63
-9,-29,-19,19,4,-24,-29,-34,-48,-19,0,-58
-9,-29,-19,19,4,-24,-29,-34,-48,-19,4,-58
-9,-29,-19,19,4,-24,-29,-34,-48,-19,4,-58
-9,-29,-19,19,4,-24,-29,-34,-48,-19,4,-53
-14,-29,-14,21,0,-21,-29,-29,-48,-19,4,-53
-14,-29,-14,21,0,-21,-29,-24,-43,-19,4,-48
-14,-29,-14,21,0,-21,-24,-24,-43,-24,0,-48
-14,-29,-14,21,0,-21,-24,-24,-43,-24,0,-53
-9,-29,-19,19,4,-24,-19,-19,-39,-19,0,-43
-9,-29,-19,19,4,-24,-19,-19,-39,-19,0,-39
-9,-29,-19,19,4,-24,-19,-19,-39,-19,-4,-39
-9,-29,-19,19,4,-24,-19,-19,-39,-19,-9,-39
-9,-29,-19,19,4,-24,-19,-19,-34,-19,-9,-39
-4,-29,-24,17,9,-26,-19,-19,-29,-19,-9,-34
-4,-29,-24,17,9,-26,-19,-19,-29,-19,-9,-34
0,-29,-29,14,14,-29,-19,-19,-24,-19,-9,-29
0,-24,-24,12,12,-24,-19,-14,-24,-14,-9,-24
0,-24,-24,12,12,-24,-19,-14,-24,-14,-9,-19
-4,-24,-19,14,7,-21,-19,-14,-24,-14,-9,-19
-4,-24,-19,14,7,-21,-14,-14,-24,-14,-9,-14
-4,-24,-19,14,7,-21,-14,-14,-19,-14,-9,-19
-4,-24,-19,14,7,-21,-14,-14,-19,-9,-9,-19
-4,-19,-14,12,4,-17,-14,-14,-19,-9,-4,-14
-4,-14,-9,9,2,-12,-14,-9,-19,-9,4,-9
0,-4,-4,2,2,-4,-9,-14,-19,-9,4,-4
0,0,0,0,0,0,-9,-19,-19,0,9,0
4,0,-4,-2,4,-2,-4,-14,-14,4,4,9
4,9,4,-7,0,7,0,-14,-4,9,9,9
4,19,14,-12,-4,17,4,-9,0,14,14,14
0,19,19,-9,-9,19,4,-9,4,19,19,19
0,43,43,-21,-21,43,4,-9,9,24,24,29
9,68,58,-39,-24,63,4,-14,19,39,43,48
24,112,87,-68,-31,100,-19,-14,29,53,58,68
43,136,92,-90,-24,114,-48,-24,39,63,78,92
48,126,78,-87,-14,102,-58,-29,39,63,78,92
58,107,48,-82,4,78,-63,-29,29,58,73,87
58,92,34,-75,12,63,-68,-29,9,43,68,73
53,63,9,-58,21,36,-68,-29,-4,24,48,63
53,53,0,-53,26,26,-63,-29,-14,19,43,58
43,43,0,-43,21,21,-53,-29,-19,19,39,53
39,48,9,-43,14,29,-53,-29,-19,14,39,53
39,34,-4,-36,21,14,-43,-24,-24,9,29,48
34,24,-9,-29,21,7,-43,-19,-29,4,29,43
19,14,-4,-17,12,4,-39,-19,-34,0,19,39
0,-14,-14,7,7,-14,-34,-19,-39,-14,4,29
-4,-34,-29,19,12,-31,-29,-19,-48,-24,-9,24
-14,-39,-24,26,4,-31,-24,-19,-53,-34,-14,19
-14,-39,-24,26,4,-31,-24,-19,-58,-43,-24,9
-14,-48,-34,31,9,-41,-24,-19,-63,-43,-24,9
-14,-53,-39,34,12,-46,-19,-19,-68,-43,-29,4
-14,-58,-43,36,14,-51,-19,-19,-68,-43,-29,4
-14,-63,-48,39,17,-56,-14,-14,-68,-43,-29,4
-14,-63,-48,39,17,-56,-9,-14,-68,-43,-29,0
-14,-68,-53,41,19,-61,-9,-14,-68,-43,-34,0
-19,-73,-53,46,17,-63,-9,-14,-68,-53,-39,0
-24,-87,-63,56,19,-75,0,-9,-78,-58,-43,-4
-24,-107,-82,65,29,-95,29,14,-78,-58,-58,-19
-19,-112,-92,65,36,-102,73,82,-4,-39,-58,-19
0,-39,-39,19,19,-39,97,126,122,34,-9,0
92,87,-4,-90,48,41,9,131,180,170,97,68
278,302,24,-290,126,163,-239,82,170,380,312,239
605,546,-58,-575,331,244,-473,102,131,541,512,380
951,668,-283,-810,617,192,-678,122,-58,629,629,444
1224,814,-409,-1019,817,202,-966,63,-283,697,761,551
1293,893,-400,-1093,846,246,-1180,-73,-551,614,780,639
1083,727,-356,-905,719,185,-1224,-326,-824,263,590,590
585,268,-317,-427,451,-24,-1068,-629,-1088,-214,229,375
258,73,-185,-165,222,-56,-888,-688,-1083,-356,87,283
107,136,29,-122,39,82,-663,-551,-795,-204,131,307
48,136,87,-92,-19,112,-463,-439,-522,-126,131,287
43,136,92,-90,-24,114,-307,-312,-326,-82,122,258
29,122,92,-75,-31,107,-200,-170,-209,-34,92,204
9,53,43,-31,-17,48,-112,-63,-146,-19,48,151
9,14,4,-12,2,9,-63,-58,-87,-19,29,112
-4,-4,0,4,-2,-2,-34,-43,-63,-24,14,102
-14,-24,-9,19,-2,-17,-4,0,-48,-29,0,73
-24,-34,-9,29,-7,-21,14,14,-43,-29,-9,68
-29,-39,-9,34,-9,-24,19,0,-39,-29,-14,68
-29,-39,-9,34,-9,-24,24,4,-29,-29,-14,68
-29,-43,-14,36,-7,-29,34,14,-19,-29,-14,68
-29,-43,-14,36,-7,-29,34,24,-14,-29,-14,63
-29,-43,-14,36,-7,-29,39,29,-9,-24,-19,58
-29,-43,-14,36,-7,-29,39,34,-4,-14,-19,53
-29,-43,-14,36,-7,-29,34,39,4,-9,-19,53
-29,-39,-9,34,-9,-24,34,39,9,-4,-14,53
-24,-39,-14,31,-4,-26,39,39,14,-4,-14,53
-24,-43,-19,34,-2,-31,43,39,19,-9,-14,53
-19,-39,-19,29,0,-29,48,43,24,-9,-14,53
-19,-39,-19,29,0,-29,48,43,29,-9,-14,53
-9,-29,-19,19,4,-24,48,48,29,0,-9,58
-4,-24,-19,14,7,-21,48,53,34,0,-9,58
-4,-24,-19,14,7,-21,48,58,39,4,-4,58
0,-24,-24,12,12,-24,48,63,43,4,-4,63
4,-24,-29,9,17,-26,43,68,48,9,-4,63
0,-24,-24,12,12,-24,48,73,53,9,-4,63
0,-29,-29,14,14,-29,48,78,53,9,0,58
4,-24,-29,9,17,-26,48,82,63,14,4,58
4,-24,-29,9,17,-26,48,87,73,14,4,58
14,-9,-24,-2,19,-17,48,87,82,24,9,58
24,4,-19,-14,21,-7,58,97,92,34,9,58
29,9,-19,-19,24,-4,53,102,97,39,9,63
39,14,-24,-26,31,-4,53,112,112,43,9,63
43,19,-24,-31,34,-2,58,131,122,48,14,63
43,29,-14,-36,29,7,63,146,136,48,14,58
53,24,-29,-39,41,-2,63,165,151,63,24,58
58,29,-29,-43,43,0,68,185,165,73,24,48
68,34,-34,-51,51,0,78,204,190,78,29,58
78,43,-34,-61,56,4,82,224,209,92,34,58
87,58,-29,-73,58,14,92,244,229,97,29,58
97,68,-29,-82,63,19,97,263,248,107,29,53
107,63,-43,-85,75,9,102,273,268,117,34,53
117,73,-43,-95,80,14,107,287,278,131,34,53
122,82,-39,-102,80,21,112,297,292,136,39,58
126,87,-39,-107,82,24,117,302,297,146,43,58
131,102,-29,-117,80,36,117,307,312,151,48,63
136,117,-19,-126,78,48,117,307,317,156,48,63
136,117,-19,-126,78,48,117,307,317,156,48,68
136,122,-14,-129,75,53,107,297,317,156,53,68
136,126,-9,-131,73,58,102,283,307,156,63,73
126,131,4,-129,61,68,92,263,297,156,68,78
122,136,14,-129,53,75,73,234,278,156,73,87
117,141,24,-129,46,82,58,209,253,156,73,92
107,141,34,-124,36,87,43,175,219,141,78,102
82,136,53,-109,14,95,24,141,190,131,82,112
78,131,53,-104,12,92,14,112,161,112,82,102
68,122,53,-95,7,87,4,82,131,97,82,102
58,107,48,-82,4,78,-9,58,97,78,73,102
53,97,43,-75,4,70,-24,39,78,73,68,102
43,82,39,-63,2,61,-29,19,58,58,58,102
34,73,39,-53,-2,56,-34,9,34,48,53,92
24,63,39,-43,-7,51,-39,0,19,43,48,87
19,53,34,-36,-7,43,-43,-14,9,29,43,87
4,43,39,-24,-17,41,-39,-24,-4,19,39,87
0,34,34,-17,-17,34,-39,-29,-9,9,34,78
-9,29,39,-9,-24,34,-39,-34,-19,4,29,78
-19,19,39,0,-29,29,-39,-39,-24,0,24,73
-24,19,43,2,-34,31,-39,-43,-29,-4,24,68
-24,14,39,4,-31,26,-39,-43,-34,-9,24,63
-29,9,39,9,-34,24,-39,-43,-39,-14,9,63
-29,9,39,9,-34,24,-39,-43,-39,-19,9,68
-29,4,34,12,-31,19,-39,-43,-39,-19,9,68
-29,0,29,14,-29,14,-39,-43,-39,-19,4,63
-24,0,24,12,-24,12,-39,-43,-43,-19,4,63
-24,0,24,12,-24,12,-39,-43,-48,-19,4,58
-24,0,24,12,-24,12,-43,-43,-43,-14,4,58
-24,0,24,12,-24,12,-43,-43,-43,-14,0,58
-24,0,24,12,-24,12,-43,-43,-43,-14,0,53
-24,0,24,12,-24,12,-43,-39,-43,-14,0,53
-19,0,19,9,-19,9,-39,-43,-39,-9,0,48
-19,0,19,9,-19,9,-39,-48,-39,-9,0,48
-14,4,19,4,-17,12,-39,-48,-39,-9,0,48
-9,9,19,0,-14,14,-39,-48,-39,-9,0,48
-9,9,19,0,-14,14,-39,-43,-39,-14,0,48
-9,4,14,2,-12,9,-39,-39,-39,-14,0,43
-9,4,14,2,-12,9,-39,-39,-39,-19,-4,43
-9,0,9,4,-9,4,-39,-39,-34,-19,-9,39
-9,0,9,4,-9,4,-39,-34,-34,-14,-9,39
-9,-4,4,7,-7,0,-39,-34,-34,-14,-9,39
-9,-4,4,7,-7,0,-39,-34,-34,-14,-9,34
-4,-4,0,4,-2,-2,-34,-34,-34,-14,-9,34
-4,-4,0,4,-2,-2,-34,-34,-29,-14,-9,29
-4,-4,0,4,-2,-2,-34,-34,-29,-9,-9,29
-4,-4,0,4,-2,-2,-34,-39,-29,-9,-4,34
-4,-4,0,4,-2,-2,-34,-39,-29,-9,4,39
-4,4,9,0,-7,7,-29,-39,-24,-9,4,39
-9,9,19,0,-14,14,-29,-39,-19,0,9,39
-4,14,19,-4,-12,17,-24,-34,-14,4,9,48
-4,29,34,-12,-19,31,-19,-34,-4,9,19,48
0,39,39,-19,-19,39,-9,-29,0,14,24,48
0,39,39,-19,-19,39,-4,-29,4,19,29,48
0,58,58,-29,-29,58,-4,-24,9,24,29,58
9,78,68,-43,-29,73,-4,-24,19,39,43,78
19,117,97,-68,-39,107,-29,-24,29,53,53,92
34,136,102,-85,-34,119,-58,-34,39,63,68,112
39,136,97,-87,-29,117,-73,-39,39,63,68,112
48,126,78,-87,-14,102,-82,-39,29,58,63,107
53,117,63,-85,-4,90,-87,-39,9,43,63,97
53,92,39,-73,7,65,-87,-39,-4,24,48,92
53,82,29,-68,12,56,-82,-39,-9,19,43,87
43,73,29,-58,7,51,-73,-39,-9,19,39,82
39,73,34,-56,2,53,-73,-34,-9,14,39,82
39,53,14,-46,12,34,-63,-24,-14,9,29,78
29,43,14,-36,7,29,-63,-24,-19,9,29,73
9,34,24,-21,-7,29,-58,-29,-24,9,19,68
-9,4,14,2,-12,9,-53,-34,-34,-4,4,53
-14,-14,0,14,-7,-7,-48,-39,-48,-14,-9,43
-24,-24,0,24,-12,-12,-43,-39,-53,-29,-14,39
-24,-29,-4,26,-9,-17,-43,-39,-58,-43,-24,29
-24,-39,-14,31,-4,-26,-43,-34,-58,-43,-24,29
-24,-43,-19,34,-2,-31,-39,-29,-58,-43,-29,24
-24,-48,-24,36,0,-36,-39,-29,-58,-43,-29,19
-24,-53,-29,39,2,-41,-34,-24,-58,-43,-29,14
-29,-53,-24,41,-2,-39,-29,-24,-58,-43,-29,9
-34,-58,-24,46,-4,-41,-29,-24,-58,-43,-34,9
-39,-63,-24,51,-7,-43,-29,-19,-58,-53,-39,4
-43,-78,-34,61,-4,-56,-19,-9,-68,-58,-43,-4
-43,-97,-53,70,4,-75,14,14,-63,-63,-63,-19
-39,-102,-63,70,12,-82,63,82,14,-48,-68,-19
-14,-39,-24,26,4,-31,53,122,112,9,-34,-9
82,78,-4,-80,43,36,-68,122,141,131,58,48
287,287,0,-287,143,143,-326,78,126,331,253,204
634,527,-107,-580,370,209,-570,102,82,483,434,331
1019,658,-361,-839,690,148,-814,141,-92,580,546,380
1332,814,-517,-1073,924,148,-1141,102,-302,658,673,473
1434,902,-531,-1168,983,185,-1361,-34,-566,605,727,570
1259,746,-512,-1002,885,117,-1410,-287,-834,283,570,531
727,278,-448,-502,588,-85,-1229,-614,-1112,-204,209,322
366,73,-292,-219,329,-109,-1024,-697,-1122,-356,68,234
175,146,-29,-161,102,58,-761,-561,-819,-195,122,278
78,156,78,-117,0,117,-522,-448,-531,-107,131,278
53,151,97,-102,-21,124,-351,-312,-331,-73,122,239
19,131,112,-75,-46,122,-229,-161,-209,-34,92,175
-4,43,48,-19,-26,46,-126,-53,-146,-19,39,117
-9,-14,-4,12,-2,-9,-63,-48,-87,-19,9,73
-24,-19,4,21,-14,-7,-39,-29,-63,-19,4,68
-34,-24,9,29,-21,-7,-14,19,-48,-19,0,43
-43,-34,9,39,-26,-12,9,34,-43,-19,-14,39
-48,-39,9,43,-29,-14,19,19,-39,-19,-24,39
-53,-39,14,46,-34,-12,24,19,-29,-19,-24,39
-58,-43,14,51,-36,-14,34,24,-19,-19,-24,39
-58,-39,19,48,-39,-9,34,34,-9,-19,-19,34
-58,-34,24,46,-41,-4,39,39,0,-14,-19,29
-53,-34,19,43,-36,-7,43,43,4,-4,-19,24
-48,-34,14,41,-31,-9,43,48,14,0,-19,24
-48,-29,19,39,-34,-4,43,53,19,4,-14,24
-43,-29,14,36,-29,-7,48,58,24,4,-14,24
-43,-29,14,36,-29,-7,48,58,29,4,-14,24
-39,-19,19,29,-29,0,48,63,34,9,-14,24
-43,-19,24,31,-34,2,48,63,39,4,-14,24
-39,-9,29,24,-34,9,48,68,39,9,-9,29
-34,-4,29,19,-31,12,48,68,43,9,-9,34
-34,-4,29,19,-31,12,48,68,48,14,-4,39
-29,-4,24,17,-26,9,53,73,53,19,-4,43
-24,-4,19,14,-21,7,53,78,58,29,-4,43
-24,4,29,9,-26,17,58,87,68,34,-4,48
-19,9,29,4,-24,19,58,97,73,39,0,48
-14,14,29,0,-21,21,58,102,82,43,4,53
-14,14,29,0,-21,21,58,107,92,43,4,58
-9,19,29,-4,-19,24,58,112,102,48,9,58
-4,24,29,-9,-17,26,68,126,112,53,9,58
-4,34,39,-14,-21,36,68,136,122,58,9,58
0,43,43,-21,-21,43,73,151,141,63,9,53
9,48,39,-29,-14,43,78,170,151,73,9,58
14,58,43,-36,-14,51,82,185,165,78,4,58
24,58,34,-41,-4,46,87,204,185,92,14,58
29,68,39,-48,-4,53,97,224,204,102,14,48
39,73,34,-56,2,53,107,244,229,107,19,53
48,82,34,-65,7,58,112,263,248,122,24,48
58,97,39,-78,9,68,122,283,268,126,24,48
68,107,39,-87,14,73,126,302,287,136,29,43
78,102,24,-90,26,63,131,312,307,146,34,43
87,112,24,-100,31,68,136,326,317,161,34,43
92,122,29,-107,31,75,141,336,331,165,39,53
97,126,29,-112,34,78,146,341,336,175,43,58
102,131,29,-117,36,80,146,351,351,180,48,58
107,136,29,-122,39,82,146,356,356,185,48,53
107,136,29,-122,39,82,146,356,356,185,48,58
107,141,34,-124,36,87,136,346,356,185,53,58
112,146,34,-129,39,90,131,336,346,185,63,63
107,151,43,-129,31,97,122,322,336,185,68,68
102,151,48,-126,26,100,102,287,312,185,73,78
97,151,53,-124,21,102,87,258,283,185,73,82
92,151,58,-122,17,104,73,224,248,170,73,87
73,146,73,-109,0,109,53,190,219,161,73,92
68,141,73,-104,-2,107,39,156,180,141,73,82
58,131,73,-95,-7,102,24,122,141,126,73,82
43,117,73,-80,-14,95,9,97,102,102,68,78
34,107,73,-70,-19,90,-4,78,78,92,68,73
29,92,63,-61,-17,78,-14,53,58,73,58,73
24,82,58,-53,-17,70,-24,39,34,58,53,63
14,73,58,-43,-21,65,-29,29,14,53,43,53
9,63,53,-36,-21,58,-34,14,0,39,34,48
0,53,53,-26,-26,53,-34,4,-14,29,29,48
0,43,43,-21,-21,43,-39,0,-19,19,24,39
-4,39,43,-17,-24,41,-39,-4,-29,14,19,39
-9,29,39,-9,-24,34,-39,-9,-34,9,14,34
-14,29,43,-7,-29,36,-39,-14,-39,4,14,29
-14,24,39,-4,-26,31,-39,-14,-43,0,14,24
-19,19,39,0,-29,29,-39,-14,-48,-4,0,24
-19,19,39,0,-29,29,-39,-14,-48,-9,0,29
-19,14,34,2,-26,24,-39,-14,-48,-9,0,29
-19,9,29,4,-24,19,-39,-14,-48,-9,-4,24
-19,9,29,4,-24,19,-34,-14,-53,-9,-4,24
-24,9,34,7,-29,21,-29,-14,-58,-9,-4,19
-24,4,29,9,-26,17,-29,-9,-53,-4,0,19
-24,0,24,12,-24,12,-24,-4,-53,-4,0,19
-19,0,19,9,-19,9,-19,0,-48,0,0,14
-19,0,19,9,-19,9,-19,0,-48,0,0,9
-19,0,19,9,-19,9,-19,0,-48,0,0,4
-19,0,19,9,-19,9,-19,0,-48,0,0,0
-19,0,19,9,-19,9,-19,0,-48,0,0,-4
-19,0,19,9,-19,9,-19,0,-48,0,0,-9
-19,0,19,9,-19,9,-19,0,-48,0,0,-9
-19,0,19,9,-19,9,-19,0,-43,0,0,-9
-19,-4,14,12,-17,4,-19,0,-43,0,0,-14
-19,-4,14,12,-17,4,-19,4,-43,4,0,-19
-19,-4,14,12,-17,4,-19,4,-39,4,0,-19
-19,-4,14,12,-17,4,-19,4,-34,4,0,-24
-14,-4,9,9,-12,2,-14,4,-34,4,0,-24
-14,-4,9,9,-12,2,-14,4,-29,4,0,-29
-14,-4,9,9,-12,2,-14,4,-29,9,0,-29
-14,-4,9,9,-12,2,-14,4,-29,9,0,-29
-14,-9,4,12,-9,-2,-14,9,-29,4,0,-34
-9,-4,4,7,-7,0,-9,9,-24,0,-4,-39
-9,0,9,4,-9,4,-9,4,-19,9,0,-39
-4,4,9,0,-7,7,-4,4,-14,14,0,-29
-9,19,29,-4,-19,24,0,4,-4,19,9,-29
-9,29,39,-9,-24,34,4,9,0,24,14,-29
-9,29,39,-9,-24,34,4,9,0,29,19,-34
-9,48,58,-19,-34,53,4,9,0,34,19,-29
0,68,68,-34,-34,68,4,4,9,48,34,-9
14,102,87,-58,-36,95,-19,4,14,58,43,0
39,117,78,-78,-19,97,-48,-4,19,63,58,14
48,117,68,-82,-9,92,-58,-9,19,63,58,14
58,107,48,-82,4,78,-63,-9,9,63,53,9
58,97,39,-78,9,68,-68,-9,-9,58,53,0
53,78,24,-65,14,51,-73,-9,-24,43,39,-4
53,73,19,-63,17,46,-73,-9,-29,39,34,-9
43,63,19,-53,12,41,-63,-9,-29,39,29,-14
39,63,24,-51,7,43,-63,-9,-29,34,29,-14
39,39,0,-39,19,19,-53,-4,-39,24,19,-19
29,24,-4,-26,17,9,-53,-4,-48,14,19,-24
9,14,4,-12,2,9,-43,-9,-53,9,9,-19
-9,-14,-4,12,-2,-9,-34,-9,-58,-4,-4,-24
-14,-34,-19,24,2,-26,-29,-9,-68,-14,-19,-24
-24,-43,-19,34,-2,-31,-24,-9,-73,-24,-24,-19
-24,-48,-24,36,0,-36,-24,-9,-73,-34,-34,-24
-24,-58,-34,41,4,-46,-24,-9,-73,-34,-34,-19
-29,-63,-34,46,2,-48,-19,-9,-78,-34,-39,-24
-34,-68,-34,51,0,-51,-19,-9,-78,-34,-39,-24
-34,-73,-39,53,2,-56,-14,-4,-78,-34,-39,-19
-34,-73,-39,53,2,-56,-9,-4,-78,-34,-39,-19
-34,-78,-43,56,4,-61,-9,-4,-78,-34,-43,-19
-39,-82,-43,61,2,-63,-9,0,-78,-43,-48,-24
-43,-97,-53,70,4,-75,0,9,-87,-53,-53,-34
-43,-112,-68,78,12,-90,29,34,-78,-58,-68,-48
-43,-126,-82,85,19,-104,82,102,4,-48,-82,-58
-9,-68,-58,39,24,-63,82,141,102,14,-48,-48
43,24,-19,-34,31,2,-14,126,97,112,34,4
200,185,-14,-192,107,85,-248,63,19,253,195,131
575,400,-175,-488,375,112,-492,97,-39,395,366,234
932,502,-429,-717,680,36,-712,122,-214,468,458,273
1268,688,-580,-978,924,53,-1054,73,-419,585,614,380
1390,780,-610,-1085,1000,85,-1283,-43,-653,575,683,463
1180,580,-600,-880,890,-9,-1332,-312,-951,180,478,395
717,170,-546,-444,631,-187,-1180,-610,-1200,-283,141,204
375,24,-351,-200,363,-163,-961,-673,-1141,-366,39,141
175,87,-87,-131,131,0,-707,-561,-854,-214,82,175
87,97,9,-92,39,53,-488,-434,-556,-131,87,161
63,92,29,-78,17,61,-322,-292,-351,-92,82,131
34,68,34,-51,0,51,-195,-146,-239,-43,53,78
4,4,0,-4,2,2,-92,-34,-165,-19,9,24
0,-34,-34,17,17,-34,-43,-29,-107,-19,-9,-14
-14,-39,-24,26,4,-31,-19,-14,-82,-19,-14,-14
-29,-43,-14,36,-7,-29,4,29,-63,-19,-19,-39
-43,-53,-9,48,-17,-31,24,43,-53,-19,-29,-48
-48,-58,-9,53,-19,-34,29,34,-48,-14,-34,-48
-48,-58,-9,53,-19,-34,34,39,-39,-9,-34,-53
-48,-63,-14,56,-17,-39,48,43,-29,-9,-29,-58
-48,-63,-14,56,-17,-39,53,53,-24,-9,-24,-63
-48,-58,-9,53,-19,-34,58,58,-14,-4,-29,-73
-48,-53,-4,51,-21,-29,63,63,-4,0,-29,-78
-48,-53,-4,51,-21,-29,63,63,4,0,-29,-73
-48,-48,0,48,-24,-24,63,63,9,4,-24,-73
-43,-48,-4,46,-19,-26,68,68,9,4,-24,-78
-43,-48,-4,46,-19,-26,68,68,9,4,-24,-82
-39,-43,-4,41,-17,-24,68,78,14,4,-24,-82
-39,-48,-9,43,-14,-29,68,82,19,0,-24,-82
-29,-39,-9,34,-9,-24,68,87,24,9,-19,-78
-24,-34,-9,29,-7,-21,68,92,34,9,-19,-78
-24,-29,-4,26,-9,-17,63,92,39,19,-14,-78
-19,-24,-4,21,-7,-14,63,92,43,24,-14,-73
-14,-24,-9,19,-2,-17,63,97,48,29,-14,-73
-14,-14,0,14,-7,-7,68,102,58,34,-14,-68
-9,-9,0,9,-4,-4,73,107,63,39,-9,-73
-4,-4,0,4,-2,-2,78,112,73,43,-4,-73
-4,-4,0,4,-2,-2,78,117,82,43,-4,-68
0,0,0,0,0,0,78,122,92,48,0,-68
4,4,0,-4,2,2,87,136,107,58,4,-63
9,9,0,-9,4,4,87,146,117,68,9,-53
14,14,0,-14,7,7,92,161,136,73,9,-53
19,19,0,-19,9,9,97,180,151,82,14,-48
24,34,9,-29,7,21,102,195,165,87,9,-43
34,39,4,-36,14,21,107,214,185,102,14,-39
39,48,9,-43,14,29,112,234,204,117,14,-48
48,53,4,-51,21,29,117,253,229,126,19,-39
58,63,4,-61,26,34,122,278,248,141,29,-34
68,78,9,-73,29,43,131,302,268,146,34,-29
78,87,9,-82,34,48,141,322,292,156,39,-29
87,87,0,-87,43,43,151,331,317,165,43,-24
97,97,0,-97,48,48,156,351,326,180,43,-19
102,102,0,-102,51,51,156,366,341,185,48,-4
107,107,0,-107,53,53,156,370,346,195,53,0
112,112,0,-112,56,56,156,375,356,200,58,4
122,117,-4,-119,63,56,156,380,356,204,58,0
126,117,-9,-122,68,53,156,385,356,204,58,4
126,122,-4,-124,65,58,151,380,356,204,58,9
126,126,0,-126,63,63,151,370,346,204,63,14
117,131,14,-124,51,73,141,351,336,200,68,19
112,131,19,-122,46,75,122,317,312,190,73,29
112,131,19,-122,46,75,107,287,278,185,73,34
107,131,24,-119,41,78,92,253,239,170,73,34
82,122,39,-102,21,80,73,214,204,161,68,39
78,112,34,-95,21,73,58,175,165,141,63,34
68,102,34,-85,17,68,43,141,131,126,63,34
53,87,34,-70,9,61,29,117,97,102,53,34
43,78,34,-61,4,56,14,92,78,87,48,34
34,63,29,-48,2,46,9,68,58,68,39,34
24,53,29,-39,-2,41,0,53,29,58,34,19
14,43,29,-29,-7,36,-9,39,9,53,29,9
9,39,29,-24,-9,34,-14,24,-4,39,24,9
0,34,34,-17,-17,34,-14,14,-24,29,19,9
0,24,24,-12,-12,24,-19,4,-29,14,14,0
-4,19,24,-7,-14,21,-19,-4,-39,4,9,0
-4,4,9,0,-7,7,-19,-9,-43,0,4,-4
-4,0,4,2,-4,2,-19,-14,-48,-4,4,-4
-4,-4,0,4,-2,-2,-19,-14,-53,-9,4,-9
-9,-9,0,9,-4,-4,-19,-14,-58,-9,-9,-14
-14,-9,4,12,-9,-2,-19,-14,-63,-9,-14,-9
-19,-9,9,14,-14,0,-19,-14,-68,-9,-14,-9
-19,-14,4,17,-12,-4,-19,-14,-68,-9,-14,-14
-19,-19,0,19,-9,-9,-19,-14,-68,-9,-14,-14
-24,-19,4,21,-14,-7,-19,-14,-68,-9,-9,-19
-24,-19,4,21,-14,-7,-14,-14,-63,-9,-9,-19
-19,-19,0,19,-9,-9,-9,-9,-58,-9,-9,-19
-19,-19,0,19,-9,-9,-9,-9,-58,-9,-9,-19
-19,-19,0,19,-9,-9,-9,-9,-58,-9,-9,-19
-19,-19,0,19,-9,-9,-9,-9,-58,-9,-9,-19
-19,-19,0,19,-9,-9,-9,-9,-58,-9,-9,-24
-19,-19,0,19,-9,-9,-9,-9,-58,-9,-9,-29
-14,-19,-4,17,-4,-12,-9,-9,-58,-9,-9,-34
-9,-19,-9,14,0,-14,-9,-9,-53,-9,-9,-34
-9,-24,-14,17,2,-19,-9,-9,-48,-9,-14,-39
-9,-24,-14,17,2,-19,-9,-4,-43,-4,-19,-39
-14,-24,-9,19,-2,-17,-9,-4,-43,-4,-19,-39
-19,-24,-4,21,-7,-14,-9,-4,-43,-4,-19,-43
-14,-19,-4,17,-4,-12,-4,-4,-43,-4,-19,-43
-14,-14,0,14,-7,-7,-4,-4,-39,-4,-19,-48
-14,-14,0,14,-7,-7,-4,0,-39,-4,-19,-48
-14,-14,0,14,-7,-7,-4,4,-39,-9,-19,-48
-14,-24,-9,19,-2,-17,-4,9,-39,-9,-14,-53
-9,-24,-14,17,2,-19,0,9,-34,-9,-14,-58
-9,-19,-9,14,0,-14,0,4,-29,0,-9,-58
-4,-14,-9,9,2,-12,4,4,-24,4,-9,-48
-4,0,4,2,-4,2,9,4,-14,9,0,-48
0,9,9,-4,-4,9,14,9,-9,14,4,-48
0,4,4,-2,-2,4,14,9,-9,14,9,-48
0,19,19,-9,-9,19,14,9,-9,14,9,-39
9,39,29,-24,-9,34,19,4,0,29,24,-24
24,73,48,-48,-12,61,0,4,4,39,34,-19
48,87,39,-68,4,63,-29,-4,14,48,48,-4
58,87,29,-73,14,58,-39,-9,19,53,48,-4
68,82,14,-75,26,48,-48,-9,9,48,43,-9
68,78,9,-73,29,43,-58,-9,-9,39,43,-19
68,53,-14,-61,41,19,-58,-9,-24,24,29,-24
73,43,-29,-58,51,7,-53,-9,-29,19,24,-29
63,29,-34,-46,48,-2,-43,-9,-29,19,14,-39
58,24,-34,-41,46,-4,-43,-9,-29,14,9,-43
58,4,-53,-31,56,-24,-34,-4,-39,9,0,-48
48,-4,-53,-21,51,-29,-34,-4,-48,4,0,-53
24,-9,-34,-7,29,-21,-29,-14,-53,0,-4,-58
0,-34,-34,17,17,-34,-24,-19,-58,-14,-14,-73
-9,-53,-43,31,17,-48,-19,-19,-68,-24,-29,-82
-24,-63,-39,43,7,-51,-14,-19,-73,-34,-34,-87
-24,-68,-43,46,9,-56,-14,-19,-78,-43,-43,-97
-24,-78,-53,51,14,-65,-14,-19,-82,-43,-43,-97
-24,-82,-58,53,17,-70,-9,-19,-87,-43,-48,-102
-24,-87,-63,56,19,-75,-9,-19,-87,-43,-48,-102
-24,-92,-68,58,21,-80,-4,-14,-87,-43,-48,-102
-24,-92,-68,58,21,-80,0,-14,-87,-43,-48,-107
-24,-97,-73,61,24,-85,0,-14,-87,-43,-53,-107
-29,-102,-73,65,21,-87,0,-9,-87,-53,-58,-112
-39,-122,-82,80,21,-102,-4,-19,-117,-73,-63,-122
-43,-141,-97,92,26,-119,9,-14,-126,-87,-78,-136
-63,-170,-107,117,21,-139,97,73,-43,-87,-107,-151
-48,-126,-78,87,14,-102,131,131,53,-34,-87,-146
-9,-48,-39,29,14,-43,73,131,112,53,-29,-107
131,97,-34,-114,82,31,-122,82,97,185,107,4
502,312,-190,-407,346,61,-375,102,24,307,258,92
854,414,-439,-634,646,-12,-605,112,-165,361,331,117
1283,619,-663,-951,973,-21,-976,87,-361,492,507,229
1498,732,-766,-1115,1132,-17,-1234,-4,-585,497,595,317
1298,570,-727,-934,1012,-78,-1346,-312,-912,161,439,283
844,200,-644,-522,744,-222,-1259,-649,-1190,-244,151,126
453,-4,-458,-224,456,-231,-1054,-756,-1205,-395,19,58
204,0,-204,-102,204,-102,-814,-688,-990,-312,34,87
107,43,-63,-75,85,-9,-570,-546,-658,-190,63,92
73,73,0,-73,36,36,-380,-390,-419,-112,82,82
48,53,4,-51,21,29,-229,-219,-283,-68,53,19
24,-4,-29,-9,26,-17,-102,-82,-185,-48,9,-43
14,-58,-73,21,43,-65,-48,-68,-126,-39,-9,-82
-4,-78,-73,41,34,-75,-19,-43,-102,-29,-14,-82
-19,-82,-63,51,21,-73,14,9,-78,-29,-19,-102
-34,-92,-58,63,12,-75,43,34,-63,-29,-29,-107
-43,-97,-53,70,4,-75,48,19,-58,-29,-34,-107
-48,-97,-48,73,0,-73,53,19,-48,-29,-34,-112
-48,-107,-58,78,4,-82,63,24,-34,-29,-34,-117
-48,-112,-63,80,7,-87,63,34,-24,-29,-34,-122
-43,-117,-73,80,14,-95,68,39,-19,-24,-43,-131
-39,-122,-82,80,21,-102,73,43,-14,-19,-48,-136
-39,-122,-82,80,21,-102,73,48,-4,-19,-48,-136
-39,-117,-78,78,19,-97,73,53,0,-14,-43,-141
-34,-117,-82,75,24,-100,78,63,4,-9,-43,-141
-34,-117,-82,75,24,-100,78,68,9,-4,-43,-141
-29,-112,-82,70,26,-97,78,73,14,0,-39,-141
-29,-117,-87,73,29,-102,78,73,19,0,-34,-141
-24,-112,-87,68,31,-100,82,78,19,9,-29,-136
-24,-112,-87,68,31,-100,87,82,24,9,-29,-136
-24,-117,-92,70,34,-104,87,87,29,14,-29,-146
-19,-122,-102,70,41,-112,92,92,34,14,-34,-151
-9,-122,-112,65,51,-117,92,97,39,19,-34,-151
-4,-112,-107,58,51,-109,97,102,48,24,-34,-146
0,-107,-107,53,53,-107,97,107,53,29,-24,-141
