I,II,III,aVR,aVL,aVF,V1,V2,V3,V4,V5,V6,
87,58,-29,-73,58,14,-29,87,87,78,78,78
48,34,-14,-41,31,9,-14,68,73,58,53,53
9,9,0,-9,4,4,0,48,58,39,29,29
-9,0,9,4,-9,4,4,43,53,29,19,19
-29,-9,19,19,-24,4,9,39,48,19,9,9
-39,-24,14,31,-26,-4,14,24,39,4,-4,-4
-48,-39,9,43,-29,-14,19,9,29,-9,-19,-19
-48,-48,0,48,-24,-24,19,0,19,-24,-34,-34
-48,-58,-9,53,-19,-34,19,-9,9,-39,-48,-48
-58,-63,-4,61,-26,-34,24,-9,4,-39,-48,-48
-68,-68,0,68,-34,-34,29,-9,0,-39,-48,-48
-68,-73,-4,70,-31,-39,34,-9,0,-43,-53,-53
-68,-78,-9,73,-29,-43,39,-9,0,-48,-58,-58
-68,-78,-9,73,-29,-43,39,-9,-4,-53,-58,-58
-68,-78,-9,73,-29,-43,39,-9,-9,-58,-58,-58
-68,-78,-9,73,-29,-43,39,-9,-14,-63,-63,-63
-68,-78,-9,73,-29,-43,39,-9,-19,-68,-68,-68
-53,-82,-29,68,-12,-56,39,-9,-19,-68,-68,-68
-39,-87,-48,63,4,-68,39,-9,-19,-68,-68,-68
-58,-87,-29,73,-14,-58,39,-9,-19,-63,-68,-68
-78,-87,-9,82,-34,-48,39,-9,-19,-58,-68,-68
-78,-82,-4,80,-36,-43,39,-9,-19,-58,-68,-68
-78,-78,0,78,-39,-39,39,-9,-19,-58,-68,-68
-87,-78,9,82,-48,-34,39,-9,-14,-58,-68,-68
-97,-78,19,87,-58,-29,39,-9,-9,-58,-68,-68
-87,-78,9,82,-48,-34,39,-9,-9,-58,-68,-68
-78,-78,0,78,-39,-39,39,-9,-9,-58,-68,-68
-63,-78,-14,70,-24,-46,39,-9,-9,-58,-68,-68
-48,-78,-29,63,-9,-53,39,-9,-9,-58,-68,-68
-58,-78,-19,68,-19,-48,39,-9,-9,-58,-68,-68
-68,-78,-9,73,-29,-43,39,-9,-9,-58,-68,-68
-68,-78,-9,73,-29,-43,39,-9,-9,-58,-68,-68
-68,-78,-9,73,-29,-43,39,-9,-9,-58,-68,-68
-78,-78,0,78,-39,-39,39,-9,-9,-58,-68,-68
-87,-78,9,82,-48,-34,39,-9,-9,-58,-68,-68
-73,-78,-4,75,-34,-41,34,-14,-9,-58,-68,-68
-58,-78,-19,68,-19,-48,29,-19,-9,-58,-68,-68
-58,-78,-19,68,-19,-48,29,-19,-9,-58,-68,-68
-58,-78,-19,68,-19,-48,29,-19,-9,-58,-68,-68
-63,-78,-14,70,-24,-46,29,-14,-9,-53,-68,-63
-68,-78,-9,73,-29,-43,29,-9,-9,-48,-68,-58
-68,-73,-4,70,-31,-39,29,-9,-9,-48,-68,-58
-68,-68,0,68,-34,-34,29,-9,-9,-48,-68,-58
-82,-68,14,75,-48,-26,39,-9,-9,-48,-58,-58
-97,-68,29,82,-63,-19,48,-9,-9,-48,-48,-58
-73,-68,4,70,-39,-31,39,-19,-19,-58,-58,-68
-48,-68,-19,58,-14,-43,29,-29,-29,-68,-68,-78
-48,-68,-19,58,-14,-43,29,-29,-29,-68,-68,-78
-48,-68,-19,58,-14,-43,29,-29,-29,-68,-68,-78
-58,-73,-14,65,-21,-43,34,-29,-29,-68,-68,-78
-68,-78,-9,73,-29,-43,39,-29,-29,-68,-68,-78
-68,-78,-9,73,-29,-43,39,-29,-29,-68,-68,-73
-68,-78,-9,73,-29,-43,39,-29,-29,-68,-68,-68
-68,-78,-9,73,-29,-43,39,-29,-29,-68,-68,-68
-68,-78,-9,73,-29,-43,39,-29,-29,-68,-68,-68
-58,-78,-19,68,-19,-48,34,-34,-34,-68,-73,-73
-48,-78,-29,63,-9,-53,29,-39,-39,-68,-78,-78
-58,-78,-19,68,-19,-48,29,-39,-39,-68,-78,-78
-68,-78,-9,73,-29,-43,29,-39,-39,-68,-78,-78
-73,-82,-9,78,-31,-46,34,-34,-34,-68,-73,-73
-78,-87,-9,82,-34,-48,39,-29,-29,-68,-68,-68
-92,-87,4,90,-48,-41,39,-29,-29,-68,-68,-68
-107,-87,19,97,-63,-34,39,-29,-29,-68,-68,-68
-87,-82,4,85,-46,-39,39,-34,-34,-68,-73,-73
-68,-78,-9,73,-29,-43,39,-39,-39,-68,-78,-78
-53,-78,-24,65,-14,-51,39,-39,-39,-73,-78,-78
-39,-78,-39,58,0,-58,39,-39,-39,-78,-78,-78
-53,-82,-29,68,-12,-56,39,-39,-39,-78,-78,-78
-68,-87,-19,78,-24,-53,39,-39,-39,-78,-78,-78
-68,-87,-19,78,-24,-53,39,-39,-39,-78,-78,-78
-68,-87,-19,78,-24,-53,39,-39,-39,-78,-78,-78
-73,-82,-9,78,-31,-46,39,-39,-39,-78,-78,-78
-78,-78,0,78,-39,-39,39,-39,-39,-78,-78,-78
-78,-78,0,78,-39,-39,39,-39,-39,-78,-78,-78
-78,-78,0,78,-39,-39,39,-39,-39,-78,-78,-78
-78,-82,-4,80,-36,-43,39,-39,-39,-78,-78,-78
-78,-87,-9,82,-34,-48,39,-39,-39,-78,-78,-78
-82,-87,-4,85,-39,-46,39,-39,-39,-78,-78,-78
-87,-87,0,87,-43,-43,39,-39,-39,-78,-78,-78
-87,-87,0,87,-43,-43,39,-39,-39,-78,-78,-78
-87,-87,0,87,-43,-43,39,-39,-39,-78,-78,-78
-87,-87,0,87,-43,-43,39,-39,-39,-78,-78,-78
-87,-87,0,87,-43,-43,39,-39,-39,-78,-78,-78
-82,-87,-4,85,-39,-46,39,-43,-43,-78,-78,-78
-78,-87,-9,82,-34,-48,39,-48,-48,-78,-78,-78
-78,-87,-9,82,-34,-48,39,-48,-48,-78,-82,-78
-78,-87,-9,82,-34,-48,39,-48,-48,-78,-87,-78
-63,-87,-24,75,-19,-56,29,-48,-48,-78,-87,-82
-48,-87,-39,68,-4,-63,19,-48,-48,-78,-87,-87
-63,-87,-24,75,-19,-56,29,-48,-48,-78,-87,-87
-78,-87,-9,82,-34,-48,39,-48,-48,-78,-87,-87
-92,-87,4,90,-48,-41,39,-48,-48,-78,-87,-87
-107,-87,19,97,-63,-34,39,-48,-48,-78,-87,-87
-92,-87,4,90,-48,-41,34,-48,-48,-82,-87,-87
-82,-87,-4,85,-39,-46,29,-48,-48,-82,-87,-87
-73,-87,-14,80,-29,-51,29,-48,-48,-87,-87,-87
-63,-82,-19,73,-21,-51,29,-48,-48,-82,-87,-87
-63,-73,-9,68,-26,-41,34,-43,-43,-78,-87,-82
-68,-53,14,61,-41,-19,48,-34,-29,-68,-73,-63
-87,-43,43,65,-65,0,58,-14,-9,-48,-58,-58
-82,-43,39,63,-61,-2,63,-4,0,-39,-53,-58
-48,-48,0,48,-24,-24,68,0,0,-48,-53,-58
-39,-48,-9,43,-14,-29,78,14,4,-48,-53,-58
-19,-48,-29,34,4,-39,78,29,4,-39,-53,-53
9,-43,-53,17,31,-48,58,29,0,-39,-53,-53
19,-39,-58,9,39,-48,39,29,0,-39,-48,-53
29,-34,-63,2,46,-48,-14,4,-4,-39,-43,-48
14,-29,-43,7,29,-36,-34,-14,-4,-39,-39,-43
0,-29,-29,14,14,-29,-43,-39,-19,-43,-34,-39
0,-29,-29,14,14,-29,-34,-53,-29,-53,-39,-53
0,-43,-43,21,21,-43,-29,-63,-39,-68,-48,-63
4,-53,-58,24,31,-56,-29,-63,-48,-78,-58,-73
24,-53,-78,14,51,-65,-29,-63,-53,-78,-73,-73
14,-58,-73,21,43,-65,-19,-63,-53,-78,-73,-73
19,-63,-82,21,51,-73,-19,-68,-58,-82,-73,-73
19,-58,-78,19,48,-68,-14,-68,-58,-82,-73,-78
-4,-58,-53,31,24,-56,-4,-68,-58,-82,-73,-78
-53,-68,-14,61,-19,-41,14,-53,-48,-78,-73,-73
-82,-73,9,78,-46,-31,24,-39,-43,-73,-73,-68
-107,-82,24,95,-65,-29,39,-48,-48,-82,-82,-87
-136,-102,34,119,-85,-34,48,-58,-63,-97,-97,-97
-97,-107,-9,102,-43,-58,39,-73,-68,-107,-102,-107
-58,-107,-48,82,-4,-78,29,-82,-73,-112,-107,-112
-68,-112,-43,90,-12,-78,29,-82,-73,-112,-112,-112
-82,-117,-34,100,-24,-75,29,-82,-73,-112,-112,-112
-87,-117,-29,102,-29,-73,34,-78,-73,-107,-112,-112
-92,-117,-24,104,-34,-70,34,-73,-73,-102,-112,-112
-102,-117,-14,109,-43,-65,29,-73,-73,-102,-107,-112
-122,-117,4,119,-63,-56,29,-73,-68,-102,-102,-112
-117,-117,0,117,-58,-58,34,-68,-63,-97,-102,-112
-112,-117,-4,114,-53,-61,39,-63,-63,-97,-97,-107
-97,-117,-19,107,-39,-68,39,-63,-58,-102,-107,-107
-78,-117,-39,97,-19,-78,39,-63,-58,-112,-117,-107
-73,-112,-39,92,-17,-75,39,-58,-58,-102,-107,-102
-82,-122,-39,102,-21,-80,43,-58,-58,-107,-107,-107
-107,-146,-39,126,-34,-92,63,-34,-68,-122,-141,-136
-141,-209,-68,175,-36,-139,136,48,-58,-156,-200,-190
-141,-248,-107,195,-17,-178,200,131,-48,-170,-244,-224
-63,-224,-161,143,48,-192,195,209,-34,-136,-195,-175
117,-156,-273,19,195,-214,136,331,43,-14,-78,-58
302,53,-248,-178,275,-97,24,390,180,200,151,170
483,356,-126,-419,305,114,-141,317,356,497,502,507
585,644,58,-614,263,351,-312,126,522,824,878,878
556,932,375,-744,90,653,-473,-170,644,1102,1205,1205
453,883,429,-668,12,656,-512,-405,546,1044,1176,1146
273,614,341,-444,-34,478,-448,-746,219,683,849,780
-24,385,409,-180,-217,397,-302,-980,-87,224,414,326
-278,141,419,68,-348,280,-214,-1190,-522,-419,-136,-283
-346,-102,244,224,-295,70,-165,-1107,-692,-634,-341,-483
-322,-185,136,253,-229,-24,-165,-951,-624,-566,-336,-453
-253,-200,53,226,-153,-73,-156,-717,-507,-444,-273,-361
-161,-161,0,161,-80,-80,-126,-444,-336,-297,-185,-244
-73,-63,9,68,-41,-26,-97,-248,-161,-151,-92,-122
-43,-19,24,31,-34,2,-63,-165,-78,-78,-53,-73
-43,-29,14,36,-29,-7,-34,-112,-58,-68,-53,-68
-48,-48,0,48,-24,-24,4,-43,-53,-68,-58,-68
-58,-58,0,58,-29,-29,29,-24,-29,-53,-58,-58
-58,-58,0,58,-29,-29,34,-24,-29,-53,-58,-58
-53,-53,0,53,-26,-26,34,-19,-29,-53,-58,-58
-58,-53,4,56,-31,-24,39,0,-24,-48,-58,-58
-68,-53,14,61,-41,-19,39,14,-19,-39,-58,-53
-48,-53,-4,51,-21,-29,34,14,-14,-39,-53,-43
-34,-53,-19,43,-7,-36,29,14,-9,-29,-53,-43
-29,-53,-24,41,-2,-39,29,19,-4,-34,-48,-48
-19,-48,-29,34,4,-39,34,24,0,-34,-43,-48
-29,-48,-19,39,-4,-34,34,24,0,-29,-43,-43
-39,-48,-9,43,-14,-29,34,24,0,-29,-39,-43
-39,-43,-4,41,-17,-24,34,29,9,-24,-34,-43
-39,-43,-4,41,-17,-24,34,29,9,-24,-34,-39
-43,-43,0,43,-21,-21,39,34,9,-14,-34,-34
-43,-39,4,41,-24,-17,43,39,9,-4,-29,-24
-34,-43,-9,39,-12,-26,43,39,9,-4,-29,-24
-34,-48,-14,41,-9,-31,43,39,14,-4,-29,-24
-34,-43,-9,39,-12,-26,39,43,14,-9,-29,-19
-34,-43,-9,39,-12,-26,39,43,14,-14,-29,-19
-34,-39,-4,36,-14,-21,39,48,19,-9,-19,-14
-24,-39,-14,31,-4,-26,39,48,19,-9,-14,-14
-14,-34,-19,24,2,-26,34,48,19,-4,-14,-19
-4,-29,-24,17,9,-26,24,53,24,-4,-14,-19
-4,-24,-19,14,7,-21,24,58,24,-4,-14,-19
-9,-24,-14,17,2,-19,24,58,29,0,-14,-14
-9,-24,-14,17,2,-19,24,63,29,4,-9,-14
0,-24,-24,12,12,-24,24,68,29,9,-9,-9
4,-19,-24,7,14,-21,19,68,29,9,-9,-9
4,-14,-19,4,12,-17,19,73,34,14,-4,0
4,-14,-19,4,12,-17,19,82,34,19,4,4
9,-14,-24,2,17,-19,14,82,34,29,9,4
19,-9,-29,-4,24,-19,14,87,39,24,9,4
29,-4,-34,-12,31,-19,4,92,39,19,14,4
39,0,-39,-19,39,-19,4,97,39,24,14,4
34,4,-29,-19,31,-12,4,102,39,29,19,14
29,9,-19,-19,24,-4,9,112,43,34,29,29
29,14,-14,-21,21,0,9,117,58,43,34,34
29,14,-14,-21,21,0,9,126,58,48,43,43
34,24,-9,-29,21,7,4,136,58,58,53,48
43,24,-19,-34,31,2,-4,146,68,63,58,58
78,29,-48,-53,63,-9,-19,156,68,68,53,58
87,39,-48,-63,68,-4,-19,156,68,78,58,68
97,43,-53,-70,75,-4,-19,165,78,87,68,78
97,48,-48,-73,73,0,-29,175,87,87,78,82
112,58,-53,-85,82,2,-34,185,97,97,92,87
126,68,-58,-97,92,4,-43,195,102,107,102,102
141,82,-58,-112,100,12,-48,204,107,117,117,112
165,92,-73,-129,119,9,-53,224,112,131,136,122
190,102,-87,-146,139,7,-63,229,122,151,141,141
195,117,-78,-156,136,19,-73,244,122,165,161,151
209,126,-82,-168,146,21,-82,253,122,170,170,161
229,146,-82,-187,156,31,-97,253,126,180,185,175
248,156,-92,-202,170,31,-107,268,136,195,204,190
258,170,-87,-214,173,41,-117,278,146,214,224,209
273,185,-87,-229,180,48,-122,287,156,224,244,224
278,195,-82,-236,180,56,-131,287,161,239,263,239
297,209,-87,-253,192,61,-141,292,170,248,273,248
326,219,-107,-273,217,56,-151,292,170,258,283,258
346,229,-117,-287,231,56,-151,292,170,268,292,263
336,229,-107,-283,222,61,-151,292,180,278,302,283
317,234,-82,-275,200,75,-151,287,185,283,302,287
292,244,-48,-268,170,97,-151,273,190,287,307,292
273,239,-34,-256,153,102,-146,258,190,278,292,278
278,219,-58,-248,168,80,-146,234,180,253,263,253
287,204,-82,-246,185,61,-141,204,161,224,234,219
244,170,-73,-207,158,48,-112,185,156,204,204,200
195,146,-48,-170,122,48,-92,165,146,175,175,180
151,122,-29,-136,90,46,-68,141,131,156,151,141
122,97,-24,-109,73,36,-48,117,117,126,122,117
92,68,-24,-80,58,21,-29,92,107,107,92,92
58,48,-9,-53,34,19,-14,78,92,82,68,68
19,34,14,-26,2,24,-9,63,73,53,39,39
-19,14,34,2,-26,24,0,43,58,43,24,14
-19,0,19,9,-19,9,-4,29,43,29,0,4
-19,-9,9,14,-14,0,0,19,34,14,-19,-9
-24,-19,4,21,-14,-7,9,4,24,0,-29,-24
-19,-29,-9,24,-4,-19,9,-9,19,-19,-39,-39
-34,-39,-4,36,-14,-21,19,-14,9,-24,-43,-48
-48,-39,9,43,-29,-14,24,-14,9,-34,-48,-53
-58,-39,19,48,-39,-9,24,-14,4,-34,-53,-53
-78,-48,29,63,-53,-9,29,-14,4,-34,-53,-58
-78,-58,19,68,-48,-19,34,-24,0,-39,-53,-58
-78,-63,14,70,-46,-24,34,-24,-4,-43,-63,-63
-53,-63,-9,58,-21,-36,24,-24,-4,-43,-63,-73
-34,-63,-29,48,-2,-46,19,-24,-9,-48,-63,-73
-43,-63,-19,53,-12,-41,19,-29,-14,-48,-68,-73
-53,-63,-9,58,-21,-36,19,-29,-14,-48,-68,-73
-78,-68,9,73,-43,-29,29,-24,-4,-48,-63,-63
-102,-68,34,85,-68,-17,34,-24,0,-48,-58,-53
-92,-68,24,80,-58,-21,34,-19,0,-48,-58,-63
-87,-68,19,78,-53,-24,39,-19,0,-48,-58,-68
-78,-68,9,73,-43,-29,34,-14,0,-48,-63,-68
-58,-73,-14,65,-21,-43,29,-14,0,-48,-63,-68
-58,-73,-14,65,-21,-43,29,-14,0,-48,-63,-68
-58,-68,-9,63,-24,-39,24,-14,0,-48,-63,-68
-58,-68,-9,63,-24,-39,24,-14,-4,-48,-63,-68
-63,-68,-4,65,-29,-36,29,-14,-9,-43,-63,-68
-63,-68,-4,65,-29,-36,29,-14,-9,-43,-63,-68
-68,-68,0,68,-34,-34,29,-14,-9,-43,-63,-68
-82,-68,14,75,-48,-26,39,-14,0,-43,-58,-63
-87,-68,19,78,-53,-24,43,-14,4,-43,-53,-58
-78,-68,9,73,-43,-29,34,-19,-4,-43,-53,-58
-68,-68,0,68,-34,-34,24,-24,-14,-43,-53,-58
-53,-63,-9,58,-21,-36,24,-24,-14,-43,-53,-58
-43,-63,-19,53,-12,-41,24,-24,-9,-43,-53,-58
-53,-68,-14,61,-19,-41,29,-24,-4,-39,-53,-58
-58,-73,-14,65,-21,-43,29,-19,-4,-34,-53,-58
-58,-73,-14,65,-21,-43,29,-19,-4,-34,-53,-58
-73,-73,0,73,-36,-36,34,-19,-4,-29,-48,-53
-73,-73,0,73,-36,-36,34,-19,-4,-29,-53,-53
-68,-73,-4,70,-31,-39,34,-19,-4,-34,-58,-53
-68,-73,-4,70,-31,-39,34,-19,-4,-39,-58,-58
-68,-73,-4,70,-31,-39,34,-19,-4,-43,-58,-63
-68,-73,-4,70,-31,-39,34,-19,-9,-43,-58,-63
-68,-73,-4,70,-31,-39,29,-24,-14,-43,-58,-63
-63,-73,-9,68,-26,-41,29,-24,-14,-43,-58,-63
-63,-73,-9,68,-26,-41,29,-24,-14,-39,-63,-58
-63,-73,-9,68,-26,-41,29,-29,-14,-39,-63,-58
-63,-73,-9,68,-26,-41,29,-29,-19,-39,-63,-58
-68,-73,-4,70,-31,-39,29,-24,-19,-39,-63,-58
-78,-73,4,75,-41,-34,29,-19,-19,-39,-63,-58
-87,-78,9,82,-48,-34,29,-24,-19,-39,-63,-63
-92,-78,14,85,-53,-31,29,-24,-24,-39,-63,-63
-78,-78,0,78,-39,-39,24,-29,-29,-43,-63,-68
-63,-78,-14,70,-24,-46,19,-34,-34,-48,-68,-73
-63,-78,-14,70,-24,-46,19,-34,-34,-53,-68,-73
-63,-78,-14,70,-24,-46,19,-34,-34,-53,-68,-73
-73,-78,-4,75,-34,-41,24,-39,-24,-48,-63,-73
-73,-82,-9,78,-31,-46,34,-39,-14,-43,-58,-68
-73,-82,-9,78,-31,-46,34,-39,-14,-48,-58,-68
-73,-82,-9,78,-31,-46,34,-39,-19,-48,-58,-68
-68,-87,-19,78,-24,-53,29,-39,-19,-48,-58,-68
-63,-92,-29,78,-17,-61,29,-39,-19,-48,-58,-68
-68,-92,-24,80,-21,-58,24,-39,-24,-48,-63,-68
-68,-92,-24,80,-21,-58,19,-39,-29,-48,-68,-68
-78,-92,-14,85,-31,-53,19,-39,-29,-48,-68,-68
-78,-87,-9,82,-34,-48,19,-34,-29,-48,-68,-73
-97,-87,9,92,-53,-39,19,-34,-19,-48,-68,-73
-117,-87,29,102,-73,-29,19,-39,-14,-53,-73,-73
-92,-87,4,90,-48,-41,19,-43,-24,-53,-78,-73
-68,-82,-14,75,-26,-48,19,-48,-34,-53,-82,-73
-63,-82,-19,73,-21,-51,19,-48,-34,-53,-82,-73
-58,-82,-24,70,-17,-53,19,-48,-34,-53,-78,-73
-68,-82,-14,75,-26,-48,19,-43,-29,-48,-68,-73
-78,-87,-9,82,-34,-48,19,-39,-29,-43,-63,-73
-78,-87,-9,82,-34,-48,19,-39,-29,-43,-63,-73
-78,-87,-9,82,-34,-48,19,-39,-29,-43,-63,-73
-73,-87,-14,80,-29,-51,19,-39,-29,-43,-63,-73
-73,-87,-14,80,-29,-51,19,-39,-29,-48,-63,-78
-73,-87,-14,80,-29,-51,19,-39,-34,-48,-68,-78
-78,-87,-9,82,-34,-48,19,-39,-39,-48,-68,-78
-73,-87,-14,80,-29,-51,19,-43,-39,-58,-82,-78
-63,-87,-24,75,-19,-56,19,-48,-39,-68,-92,-73
-68,-87,-19,78,-24,-53,24,-48,-34,-58,-78,-73
-78,-87,-9,82,-34,-48,29,-48,-29,-48,-68,-78
-92,-87,4,90,-48,-41,29,-43,-29,-48,-68,-78
-107,-87,19,97,-63,-34,29,-39,-29,-48,-68,-78
-97,-87,9,92,-53,-39,29,-39,-29,-48,-68,-78
-87,-87,0,87,-43,-43,29,-39,-29,-48,-68,-78
-87,-87,0,87,-43,-43,29,-39,-29,-48,-68,-78
-78,-87,-9,82,-34,-48,29,-39,-29,-43,-68,-78
-73,-87,-14,80,-29,-51,29,-39,-29,-43,-68,-78
-73,-82,-9,78,-31,-46,29,-34,-24,-39,-68,-73
-78,-63,14,70,-46,-24,34,-24,-9,-29,-53,-53
-87,-53,34,70,-61,-9,39,-9,4,-19,-43,-48
-63,-48,14,56,-39,-17,43,-4,9,-24,-43,-48
-29,-48,-19,39,-4,-34,48,0,9,-29,-43,-48
-39,-48,-9,43,-14,-29,63,14,14,-19,-43,-48
-43,-48,-4,46,-19,-26,68,29,19,-9,-39,-39
-29,-43,-14,36,-7,-29,48,29,19,-4,-34,-34
-19,-39,-19,29,0,-29,29,29,19,0,-29,-34
-4,-34,-29,19,12,-31,-24,4,19,0,-24,-29
0,-29,-29,14,14,-29,-43,-14,19,0,-24,-29
0,-19,-19,9,9,-19,-53,-39,0,-4,-19,-24
0,-9,-9,4,4,-9,-43,-48,-9,-14,-19,-34
-4,-34,-29,19,12,-31,-39,-53,-19,-29,-29,-43
-9,-53,-43,31,17,-48,-34,-53,-24,-39,-34,-53
4,-53,-58,24,31,-56,-29,-53,-24,-39,-43,-53
-9,-58,-48,34,19,-53,-19,-53,-24,-39,-43,-53
-9,-58,-48,34,19,-53,-19,-58,-29,-39,-43,-53
-9,-53,-43,31,17,-48,-14,-58,-29,-34,-43,-58
-24,-58,-34,41,4,-46,-4,-58,-29,-34,-43,-58
-48,-68,-19,58,-14,-43,14,-48,-24,-34,-48,-58
-63,-78,-14,70,-24,-46,24,-39,-24,-34,-53,-58
-73,-92,-19,82,-26,-56,29,-48,-29,-43,-63,-78
-87,-112,-24,100,-31,-68,29,-58,-48,-58,-82,-87
-87,-117,-29,102,-29,-73,29,-63,-53,-63,-87,-92
-87,-117,-29,102,-29,-73,29,-63,-53,-63,-87,-92
-82,-117,-34,100,-24,-75,29,-63,-53,-63,-92,-92
-87,-117,-29,102,-29,-73,29,-63,-48,-63,-92,-92
-92,-117,-24,104,-34,-70,34,-63,-43,-63,-92,-92
-97,-117,-19,107,-39,-68,39,-63,-43,-63,-87,-87
-102,-117,-14,109,-43,-65,39,-63,-48,-63,-82,-82
-112,-117,-4,114,-53,-61,39,-63,-48,-63,-82,-82
-117,-117,0,117,-58,-58,43,-58,-43,-58,-82,-82
-117,-117,0,117,-58,-58,43,-53,-43,-58,-82,-78
-112,-117,-4,114,-53,-61,39,-53,-39,-53,-87,-78
-107,-112,-4,109,-51,-58,39,-48,-39,-48,-87,-78
-92,-107,-14,100,-39,-61,39,-39,-39,-43,-87,-78
-92,-122,-29,107,-31,-75,43,-39,-29,-48,-78,-78
-102,-146,-43,124,-29,-95,63,-14,-29,-53,-92,-97
-112,-209,-97,161,-7,-153,136,63,-19,-87,-161,-151
-102,-239,-136,170,17,-187,190,141,4,-87,-195,-165
-48,-214,-165,131,58,-190,185,219,29,-48,-131,-102
97,-131,-229,17,163,-180,136,331,122,97,9,43
273,87,-185,-180,229,-48,34,414,278,331,253,292
434,375,-58,-405,246,158,-122,366,453,624,590,624
527,702,175,-614,175,439,-287,209,653,990,995,1029
483,976,492,-729,-4,734,-424,-43,775,1263,1312,1342
356,873,517,-614,-80,695,-444,-263,668,1190,1254,1263
204,605,400,-405,-97,502,-380,-566,346,805,907,873
-68,400,468,-165,-268,434,-219,-824,19,302,429,366
-292,185,478,53,-385,331,-126,-1058,-395,-322,-126,-234
-341,-92,248,217,-295,78,-87,-985,-610,-566,-346,-448
-341,-200,141,270,-241,-29,-87,-863,-595,-536,-351,-444
-283,-234,48,258,-165,-92,-102,-673,-512,-434,-297,-370
-204,-229,-24,217,-90,-126,-97,-463,-385,-317,-234,-283
-112,-107,4,109,-58,-51,-82,-268,-175,-136,-112,-126
-63,-39,24,51,-43,-7,-63,-170,-63,-34,-43,-48
-53,-39,14,46,-34,-12,-34,-112,-43,-29,-43,-48
-43,-48,-4,46,-19,-26,0,-39,-34,-29,-48,-48
-58,-68,-9,63,-24,-39,24,-19,-4,-4,-39,-34
-68,-78,-9,73,-29,-43,34,-14,0,4,-29,-29
-73,-73,0,73,-36,-36,34,-9,0,4,-29,-29
-78,-73,4,75,-41,-34,39,4,4,4,-29,-29
-43,-68,-24,56,-9,-46,34,14,9,9,-34,-24
-4,-63,-58,34,26,-61,29,14,14,9,-34,-14
-19,-63,-43,41,12,-53,29,14,19,19,-34,-9
-39,-63,-24,51,-7,-43,29,24,24,19,-29,-4
-39,-58,-19,48,-9,-39,34,34,24,24,-24,0
-34,-58,-24,46,-4,-41,34,34,19,29,-24,4
-29,-58,-29,43,0,-43,34,34,19,24,-19,-4
-29,-53,-24,41,-2,-39,34,39,29,24,-14,-14
-34,-53,-19,43,-7,-36,34,39,34,24,-14,-9
-39,-53,-14,46,-12,-34,34,43,39,29,-14,-9
-34,-48,-14,41,-9,-31,39,48,39,34,-9,0
-24,-48,-24,36,0,-36,43,48,39,34,-9,4
-24,-48,-24,36,0,-36,43,43,43,34,-9,4
-24,-43,-19,34,-2,-31,39,43,43,34,-9,9
-19,-43,-24,31,2,-34,34,43,39,34,-9,9
-14,-39,-24,26,4,-31,29,48,39,39,-4,14
-4,-39,-34,21,14,-36,29,48,39,43,-4,14
0,-39,-39,19,19,-39,29,48,39,53,-4,14
4,-39,-43,17,24,-41,24,53,43,53,-4,19
4,-34,-39,14,21,-36,24,58,43,53,0,19
-14,-34,-19,24,2,-26,24,58,48,58,4,24
-29,-34,-4,31,-12,-19,24,63,48,63,9,24
0,-34,-34,17,17,-34,19,68,48,58,9,29
24,-29,-53,2,39,-41,9,68,48,48,9,29
34,-24,-58,-4,46,-41,9,73,48,53,4,34
39,-24,-63,-7,51,-43,9,82,48,58,4,34
19,-24,-43,2,31,-34,4,82,53,73,19,34
9,-19,-29,4,19,-24,4,87,58,78,29,39
19,-14,-34,-2,26,-24,-4,92,58,78,34,43
34,-9,-43,-12,39,-26,-4,97,58,82,34,43
39,-4,-43,-17,41,-24,-4,97,58,82,39,53
43,0,-43,-21,43,-21,-4,102,63,82,48,63
48,4,-43,-26,46,-19,-9,107,78,87,48,63
48,4,-43,-26,46,-19,-9,117,78,87,53,73
53,14,-39,-34,46,-12,-14,126,78,97,63,78
58,19,-39,-39,48,-9,-19,136,87,102,73,87
87,29,-58,-58,73,-14,-24,146,87,107,73,87
97,39,-58,-68,78,-9,-19,151,87,117,78,97
97,43,-53,-70,75,-4,-19,161,92,126,87,107
87,48,-39,-68,63,4,-29,165,97,131,97,117
117,58,-58,-87,87,0,-39,175,102,146,112,122
146,68,-78,-107,112,-4,-53,185,102,156,122,131
161,78,-82,-119,122,-2,-58,190,102,161,131,136
175,82,-92,-129,134,-4,-63,204,107,170,151,146
180,87,-92,-134,136,-2,-68,209,122,185,156,170
185,97,-87,-141,136,4,-73,224,122,195,170,180
204,107,-97,-156,151,4,-82,234,122,200,180,190
219,126,-92,-173,156,17,-97,234,126,209,195,204
239,136,-102,-187,170,17,-107,244,131,224,214,214
248,151,-97,-200,173,26,-117,248,136,244,234,229
263,161,-102,-212,183,29,-122,258,146,248,253,239
268,165,-102,-217,185,31,-131,258,151,258,273,253
292,180,-112,-236,202,34,-151,263,156,268,283,268
312,190,-122,-251,217,34,-170,263,151,278,292,278
331,209,-122,-270,226,43,-170,263,151,287,302,283
346,219,-126,-283,236,46,-170,258,161,292,312,297
322,224,-97,-273,209,63,-165,253,165,297,312,302
297,224,-73,-261,185,75,-161,244,165,302,307,302
292,214,-78,-253,185,68,-156,234,170,292,292,287
263,200,-63,-231,163,68,-146,214,170,273,273,273
244,190,-53,-217,148,68,-131,195,151,244,244,239
204,161,-43,-183,124,58,-102,180,141,224,209,214
156,136,-19,-146,87,58,-82,156,131,195,175,190
126,112,-14,-119,70,48,-68,131,117,165,146,146
122,92,-29,-107,75,31,-58,107,97,126,107,117
102,68,-34,-85,68,17,-39,82,87,107,73,92
53,48,-4,-51,29,21,-19,73,78,87,48,68
19,34,14,-26,2,24,-9,63,63,58,19,39
0,9,9,-4,-4,9,4,43,63,43,14,24
-14,-9,4,12,-9,-2,9,29,63,29,4,24
-29,-19,9,24,-19,-4,19,19,43,14,-19,0
-43,-29,14,36,-29,-7,29,9,24,4,-39,-19
-48,-39,9,43,-29,-14,24,0,19,-9,-48,-29
-48,-48,0,48,-24,-24,24,-4,9,-14,-53,-39
-48,-43,4,46,-26,-19,24,-4,9,-24,-58,-43
-53,-39,14,46,-34,-12,24,-4,4,-24,-63,-43
-68,-48,19,58,-43,-14,29,-4,4,-24,-68,-48
-68,-53,14,61,-41,-19,34,-14,0,-29,-73,-48
-48,-53,-4,51,-21,-29,34,-14,-4,-34,-82,-53
-24,-53,-29,39,2,-41,29,-14,-4,-34,-82,-63
-39,-53,-14,46,-12,-34,29,-14,-9,-39,-78,-63
-53,-53,0,53,-26,-26,29,-19,-14,-39,-78,-63
-58,-48,9,53,-34,-19,29,-19,-14,-39,-78,-63
-68,-48,19,58,-43,-14,34,-14,-9,-39,-78,-63
-73,-48,24,61,-48,-12,34,-14,-9,-34,-78,-58
-73,-48,24,61,-48,-12,34,-9,-9,-29,-78,-53
-73,-48,24,61,-48,-12,39,-9,-4,-29,-78,-48
-68,-48,19,58,-43,-14,39,-4,0,-29,-78,-48
-53,-53,0,53,-26,-26,39,-9,0,-34,-73,-53
-48,-53,-4,51,-21,-29,39,-14,0,-39,-73,-58
-48,-48,0,48,-24,-24,34,-14,-4,-39,-78,-58
-48,-48,0,48,-24,-24,34,-14,-9,-39,-82,-58
-58,-48,9,53,-34,-19,39,-9,-9,-34,-82,-58
-63,-48,14,56,-39,-17,39,-4,-9,-34,-82,-58
-78,-48,29,63,-53,-9,39,-4,-9,-34,-78,-58
-87,-48,39,68,-63,-4,39,-4,-9,-34,-73,-58
-48,-53,-4,51,-21,-29,29,-9,-14,-34,-73,-58
-19,-58,-39,39,9,-48,24,-14,-14,-34,-73,-58
-39,-58,-19,48,-9,-39,24,-14,-14,-34,-73,-58
-53,-53,0,53,-26,-26,24,-14,-14,-34,-73,-58
-53,-53,0,53,-26,-26,24,-14,-14,-34,-73,-58
-53,-53,0,53,-26,-26,24,-19,-19,-34,-73,-58
-39,-53,-14,46,-12,-34,19,-19,-24,-34,-73,-58
-29,-53,-24,41,-2,-39,19,-19,-24,-34,-73,-58
-43,-53,-9,48,-17,-31,24,-19,-24,-29,-68,-53
-43,-53,-9,48,-17,-31,24,-19,-24,-29,-68,-53
-58,-53,4,56,-31,-24,24,-19,-24,-34,-68,-53
-78,-53,24,65,-51,-14,24,-19,-24,-34,-68,-53
-58,-53,4,56,-31,-24,24,-24,-24,-39,-73,-53
-39,-53,-14,46,-12,-34,24,-29,-24,-43,-78,-53
-39,-53,-14,46,-12,-34,19,-34,-34,-43,-78,-53
-34,-53,-19,43,-7,-36,19,-34,-43,-48,-78,-58
-53,-53,0,53,-26,-26,24,-29,-34,-48,-78,-58
-73,-53,19,63,-46,-17,29,-29,-24,-48,-73,-58
-58,-53,4,56,-31,-24,29,-29,-29,-48,-73,-63
-43,-53,-9,48,-17,-31,29,-29,-29,-48,-73,-68
-39,-53,-14,46,-12,-34,29,-29,-29,-53,-78,-68
-29,-58,-29,43,0,-43,29,-34,-29,-58,-82,-73
-39,-58,-19,48,-9,-39,29,-34,-34,-58,-82,-73
-53,-58,-4,56,-24,-31,29,-34,-34,-58,-82,-73
-68,-58,9,63,-39,-24,29,-29,-34,-53,-82,-68
-82,-58,24,70,-53,-17,29,-24,-34,-53,-78,-63
-73,-58,14,65,-43,-21,29,-24,-39,-53,-78,-63
-73,-58,14,65,-43,-21,29,-29,-43,-53,-78,-68
-58,-63,-4,61,-26,-34,24,-34,-43,-58,-82,-73
-43,-63,-19,53,-12,-41,14,-39,-43,-68,-87,-78
-58,-63,-4,61,-26,-34,24,-39,-43,-68,-87,-78
-73,-63,9,68,-41,-26,29,-39,-39,-68,-87,-78
-73,-63,9,68,-41,-26,29,-39,-39,-68,-87,-78
-78,-63,14,70,-46,-24,29,-39,-39,-68,-87,-78
-68,-63,4,65,-36,-29,24,-39,-43,-68,-92,-78
-58,-68,-9,63,-24,-39,19,-43,-48,-68,-97,-78
-48,-63,-14,56,-17,-39,19,-43,-48,-68,-97,-82
-48,-58,-9,53,-19,-34,19,-43,-48,-68,-97,-82
-48,-58,-9,53,-19,-34,19,-48,-53,-73,-102,-82
-48,-58,-9,53,-19,-34,19,-48,-53,-73,-102,-82
-53,-58,-4,56,-24,-31,24,-48,-53,-73,-102,-82
-63,-63,0,63,-31,-31,29,-48,-53,-73,-102,-82
-68,-63,4,65,-36,-29,29,-43,-53,-73,-92,-82
-68,-63,4,65,-36,-29,29,-39,-53,-73,-87,-82
-68,-68,0,68,-34,-34,29,-39,-58,-73,-92,-82
-68,-68,0,68,-34,-34,29,-39,-58,-73,-92,-82
-68,-68,0,68,-34,-34,29,-43,-58,-78,-92,-82
-68,-68,0,68,-34,-34,29,-48,-58,-87,-97,-87
-68,-68,0,68,-34,-34,29,-48,-58,-87,-97,-87
-68,-68,0,68,-34,-34,29,-48,-58,-87,-97,-87
-68,-68,0,68,-34,-34,29,-43,-53,-82,-92,-82
-68,-68,0,68,-34,-34,29,-39,-48,-78,-87,-78
-82,-63,19,73,-51,-21,29,-39,-48,-78,-87,-78
-68,-58,9,63,-39,-24,29,-39,-53,-78,-87,-82
-53,-53,0,53,-26,-26,29,-43,-58,-78,-92,-87
-24,-43,-19,34,-2,-31,29,-43,-63,-78,-97,-92
-43,-29,14,36,-29,-7,39,-34,-48,-68,-82,-73
-68,-24,43,46,-56,9,48,-19,-34,-58,-73,-68
-53,-24,29,39,-41,2,53,-14,-29,-58,-73,-68
-29,-29,0,29,-14,-14,58,-9,-29,-58,-73,-68
-29,-29,0,29,-14,-14,68,0,-19,-48,-73,-68
-24,-29,-4,26,-9,-17,68,9,-9,-39,-68,-58
-9,-24,-14,17,2,-19,48,9,-9,-39,-63,-53
0,-19,-19,9,9,-19,29,9,-9,-39,-58,-53
19,-9,-29,-4,24,-19,-29,-14,-19,-39,-53,-48
29,0,-29,-14,29,-14,-53,-34,-29,-39,-53,-48
29,0,-29,-14,29,-14,-63,-53,-48,-43,-53,-43
29,0,-29,-14,29,-14,-53,-58,-58,-53,-58,-53
14,-14,-29,0,21,-21,-39,-63,-58,-63,-63,-58
0,-24,-24,12,12,-24,-24,-63,-53,-68,-63,-63
0,-24,-24,12,12,-24,-19,-63,-53,-68,-73,-63
-29,-29,0,29,-14,-14,-9,-63,-53,-68,-73,-63
4,-34,-39,14,21,-36,-14,-68,-63,-78,-78,-68
39,-34,-73,-2,56,-53,-14,-68,-68,-82,-82,-78
0,-39,-39,19,19,-39,-4,-68,-68,-82,-82,-78
-48,-48,0,48,-24,-24,14,-58,-63,-82,-87,-78
-63,-58,4,61,-34,-26,24,-48,-68,-82,-92,-78
-73,-73,0,73,-36,-36,29,-58,-78,-92,-102,-97
-87,-92,-4,90,-41,-48,29,-68,-92,-107,-117,-107
-87,-97,-9,92,-39,-53,29,-73,-92,-112,-117,-112
-82,-97,-14,90,-34,-56,29,-78,-97,-117,-122,-117
-73,-97,-24,85,-24,-61,29,-82,-102,-122,-131,-122
-73,-97,-24,85,-24,-61,29,-82,-102,-122,-131,-122
-73,-97,-24,85,-24,-61,34,-82,-102,-122,-131,-122
-73,-97,-24,85,-24,-61,34,-82,-97,-122,-131,-122
-73,-97,-24,85,-24,-61,29,-82,-97,-122,-131,-122
-82,-92,-9,87,-36,-51,29,-78,-97,-122,-126,-117
-87,-87,0,87,-43,-43,34,-68,-92,-117,-122,-112
-97,-87,9,92,-53,-39,39,-63,-92,-117,-117,-107
-102,-87,14,95,-58,-36,39,-63,-87,-112,-117,-107
-97,-87,9,92,-53,-39,39,-63,-87,-112,-117,-107
-82,-87,-4,85,-39,-46,39,-58,-87,-112,-117,-107
-73,-102,-29,87,-21,-65,43,-53,-87,-126,-136,-117
-73,-126,-53,100,-9,-90,63,-24,-97,-141,-180,-146
-92,-190,-97,141,2,-143,136,58,-82,-165,-224,-195
-92,-219,-126,156,17,-173,190,141,-53,-156,-234,-204
-14,-165,-151,90,68,-158,170,214,-14,-92,-146,-117
156,-53,-209,-51,183,-131,107,322,92,78,19,53
317,190,-126,-253,222,31,-4,351,258,331,283,326
463,502,39,-483,212,270,-170,248,444,644,639,683
507,775,268,-641,119,522,-326,48,600,980,1015,1063
414,995,580,-705,-82,788,-453,-248,678,1224,1302,1351
302,878,575,-590,-136,727,-458,-458,531,1112,1210,1229
165,595,429,-380,-131,512,-380,-751,170,688,829,795
-87,361,448,-136,-268,405,-234,-936,-156,175,356,278
-292,117,409,87,-351,263,-156,-1098,-570,-458,-195,-331
-312,-122,190,217,-251,34,-126,-1000,-722,-653,-390,-502
-283,-190,92,236,-187,-48,-136,-854,-644,-575,-370,-453
-224,-190,34,207,-129,-78,-141,-639,-517,-444,-292,-351
-146,-151,-4,148,-70,-78,-126,-405,-346,-297,-204,-234
-78,-48,29,63,-53,-9,-97,-229,-170,-146,-107,-107
-53,0,53,26,-53,26,-63,-151,-92,-73,-63,-58
-53,-9,43,31,-48,17,-39,-107,-78,-68,-63,-58
-53,-29,24,41,-39,-2,-9,-48,-73,-68,-68,-58
-43,-39,4,41,-24,-17,9,-34,-48,-58,-73,-53
-29,-39,-9,34,-9,-24,14,-34,-48,-63,-78,-58
-24,-34,-9,29,-7,-21,14,-29,-48,-63,-78,-58
-19,-34,-14,26,-2,-24,19,-14,-43,-63,-78,-58
-24,-34,-9,29,-7,-21,19,-4,-39,-53,-73,-53
-24,-34,-9,29,-7,-21,19,-4,-34,-48,-63,-43
-24,-34,-9,29,-7,-21,19,-4,-29,-39,-58,-43
-29,-34,-4,31,-12,-19,19,4,-24,-39,-48,-43
-29,-29,0,29,-14,-14,24,14,-19,-39,-43,-39
-24,-29,-4,26,-9,-17,24,14,-19,-39,-43,-34
-29,-29,0,29,-14,-14,24,19,-19,-39,-39,-29
-39,-24,14,31,-26,-4,24,29,-9,-34,-34,-24
-39,-24,14,31,-26,-4,24,29,-9,-29,-34,-19
-39,-24,14,31,-26,-4,24,34,-9,-19,-34,-19
-34,-19,14,26,-24,-2,24,39,-9,-14,-29,-14
-24,-19,4,21,-14,-7,24,39,-9,-14,-29,-14
-4,-19,-14,12,4,-17,24,29,-4,-14,-29,-14
14,-14,-29,0,21,-21,19,24,-4,-14,-29,-9
-4,-19,-14,12,4,-17,19,34,-4,-14,-29,-9
-24,-19,4,21,-14,-7,19,48,0,-9,-24,-4
-4,-19,-14,12,4,-17,19,48,0,-9,-29,-9
9,-19,-29,4,19,-24,19,48,0,-4,-34,-14
14,-14,-29,0,21,-21,14,53,4,-4,-34,-9
14,-4,-19,-4,17,-12,14,58,4,-4,-29,-9
4,-4,-9,0,7,-7,14,58,14,0,-19,0
0,-4,-4,2,2,-4,14,63,19,4,-9,4
9,-4,-14,-2,12,-9,14,68,19,9,-9,9
14,0,-14,-7,14,-7,9,68,19,9,-9,9
14,4,-9,-9,12,-2,9,73,24,14,-4,19
9,4,-4,-7,7,0,9,82,29,19,4,24
9,4,-4,-7,7,0,4,82,29,29,9,24
19,9,-9,-14,14,0,4,87,29,29,9,29
29,14,-14,-21,21,0,-4,92,29,29,14,34
43,19,-24,-31,34,-2,-4,97,29,34,14,34
43,24,-19,-34,31,2,-4,102,29,39,19,43
43,29,-14,-36,29,7,-4,112,34,43,29,53
48,34,-14,-41,31,9,-9,112,48,53,34,53
48,34,-14,-41,31,9,-9,117,48,58,43,63
53,43,-9,-48,31,17,-14,126,53,68,53,73
58,48,-9,-53,34,19,-19,136,68,73,63,87
82,58,-24,-70,53,17,-29,151,73,82,63,87
87,68,-19,-78,53,24,-29,161,78,97,68,97
97,68,-29,-82,63,19,-29,175,87,107,82,107
97,68,-29,-82,63,19,-39,185,97,112,97,117
117,78,-39,-97,78,19,-43,195,97,126,112,126
136,87,-48,-112,92,19,-53,204,92,136,122,141
151,107,-43,-129,97,31,-58,214,97,146,136,151
165,122,-43,-143,104,39,-63,234,107,161,161,165
175,131,-43,-153,109,43,-73,239,126,180,170,190
185,146,-39,-165,112,53,-82,253,131,195,190,200
209,156,-53,-183,131,51,-87,263,131,200,200,209
229,175,-53,-202,141,61,-97,263,136,209,214,224
248,185,-63,-217,156,61,-107,273,146,224,234,239
258,200,-58,-229,158,70,-117,278,156,244,253,258
273,214,-58,-244,165,78,-126,287,165,253,273,273
278,224,-53,-251,165,85,-141,287,170,268,292,292
297,239,-58,-268,178,90,-151,292,180,278,302,307
312,248,-63,-280,187,92,-161,292,180,287,312,317
317,258,-58,-287,187,100,-161,292,175,297,322,322
317,258,-58,-287,187,100,-161,287,180,302,331,336
297,263,-34,-280,165,114,-156,278,185,302,331,336
278,263,-14,-270,146,124,-151,263,185,302,326,331
273,248,-24,-261,148,112,-146,248,180,287,302,307
244,229,-14,-236,129,107,-136,224,170,263,273,283
234,214,-19,-224,126,97,-122,195,151,229,244,248
204,180,-24,-192,114,78,-92,170,141,204,209,224
136,156,19,-146,58,87,-73,146,126,175,170,200
87,131,43,-109,21,87,-58,122,107,146,136,156
87,107,19,-97,34,63,-53,97,82,102,102,122
73,78,4,-75,34,41,-39,73,68,78,73,92
58,58,0,-58,29,29,-24,48,53,53,43,63
58,43,-14,-51,36,14,-19,24,34,19,9,29
24,24,0,-24,12,12,-4,14,19,4,-4,4
-4,9,14,-2,-9,12,0,9,4,-9,-24,-4
-24,0,24,12,-24,12,9,0,-4,-24,-39,-19
-43,-9,34,26,-39,12,19,-9,-14,-34,-48,-29
-48,-19,29,34,-39,4,19,-19,-19,-48,-58,-39
-48,-29,19,39,-34,-4,24,-24,-29,-53,-63,-48
-39,-34,4,36,-21,-14,19,-24,-29,-68,-68,-53
-34,-39,-4,36,-14,-21,14,-24,-34,-73,-73,-53
-58,-48,9,53,-34,-19,19,-24,-34,-73,-73,-58
-68,-53,14,61,-41,-19,24,-34,-39,-78,-73,-58
-68,-53,14,61,-41,-19,24,-34,-43,-82,-82,-63
-63,-53,9,58,-36,-21,19,-34,-43,-82,-82,-73
-63,-53,9,58,-36,-21,19,-29,-48,-87,-82,-73
-63,-53,9,58,-36,-21,19,-29,-53,-87,-87,-73
-63,-53,9,58,-36,-21,19,-29,-53,-87,-87,-73
-68,-58,9,63,-39,-24,24,-24,-48,-87,-87,-73
-73,-58,14,65,-43,-21,24,-24,-48,-87,-87,-73
-73,-58,14,65,-43,-21,24,-19,-48,-87,-87,-73
-78,-58,19,68,-48,-19,29,-24,-48,-87,-87,-68
-78,-58,19,68,-48,-19,29,-24,-48,-87,-87,-68
-63,-63,0,63,-31,-31,29,-24,-48,-87,-82,-73
-58,-63,-4,61,-26,-34,29,-24,-48,-87,-82,-78
-48,-58,-9,53,-19,-34,24,-24,-48,-92,-87,-78
-39,-58,-19,48,-9,-39,24,-24,-48,-97,-92,-78
-43,-63,-19,53,-12,-41,29,-24,-48,-92,-92,-73
-43,-68,-24,56,-9,-46,29,-24,-48,-92,-92,-68
-63,-68,-4,65,-29,-36,34,-24,-43,-87,-87,-68
-78,-68,9,73,-43,-29,39,-24,-39,-82,-82,-68
-68,-68,0,68,-34,-34,34,-24,-43,-82,-82,-68
-68,-68,0,68,-34,-34,34,-24,-43,-82,-82,-68
-58,-73,-14,65,-21,-43,34,-24,-43,-82,-82,-68
-43,-73,-29,58,-7,-51,34,-24,-43,-82,-82,-68
-53,-73,-19,63,-17,-46,34,-19,-39,-82,-78,-68
-63,-73,-9,68,-26,-41,34,-19,-39,-82,-73,-68
-58,-68,-9,63,-24,-39,29,-19,-43,-82,-73,-68
-58,-63,-4,61,-26,-34,29,-19,-43,-82,-73,-68
-68,-63,4,65,-36,-29,29,-19,-48,-82,-73,-68
-63,-63,0,63,-31,-31,24,-19,-53,-87,-78,-73
-58,-63,-4,61,-26,-34,24,-19,-53,-92,-78,-73
-58,-63,-4,61,-26,-34,24,-19,-53,-92,-78,-73
-58,-68,-9,63,-24,-39,24,-19,-53,-92,-78,-73
-58,-73,-14,65,-21,-43,24,-19,-53,-92,-78,-73
-53,-73,-19,63,-17,-46,19,-29,-58,-92,-78,-73
-43,-73,-29,58,-7,-51,19,-34,-63,-97,-78,-78
-43,-73,-29,58,-7,-51,19,-34,-63,-97,-82,-78
-43,-73,-29,58,-7,-51,19,-39,-63,-97,-82,-78
-53,-68,-14,61,-19,-41,24,-39,-63,-97,-82,-78
-63,-63,0,63,-31,-31,29,-39,-58,-97,-82,-78
-68,-63,4,65,-36,-29,29,-39,-58,-97,-82,-78
-68,-68,0,68,-34,-34,29,-43,-58,-97,-82,-82
-63,-73,-9,68,-26,-41,29,-43,-63,-97,-82,-82
-63,-78,-14,70,-24,-46,29,-43,-63,-97,-82,-82
-58,-78,-19,68,-19,-48,29,-43,-63,-97,-92,-82
-53,-78,-24,65,-14,-51,29,-43,-63,-102,-97,-82
-53,-78,-24,65,-14,-51,29,-43,-63,-102,-97,-82
-63,-78,-14,70,-24,-46,29,-48,-63,-102,-97,-87
-68,-82,-14,75,-26,-48,34,-43,-63,-102,-92,-82
-73,-82,-9,78,-31,-46,34,-39,-63,-107,-87,-78
-73,-82,-9,78,-31,-46,34,-39,-68,-107,-87,-78
-73,-82,-9,78,-31,-46,29,-39,-68,-107,-87,-78
-73,-82,-9,78,-31,-46,29,-39,-68,-107,-87,-82
-78,-82,-4,80,-36,-43,29,-39,-68,-107,-87,-87
-78,-78,0,78,-39,-39,29,-39,-68,-107,-87,-87
-78,-78,0,78,-39,-39,29,-43,-68,-107,-87,-87
-53,-78,-24,65,-14,-51,29,-43,-68,-107,-87,-92
-39,-78,-39,58,0,-58,29,-43,-68,-107,-87,-92
-53,-78,-24,65,-14,-51,29,-48,-68,-112,-92,-87
-68,-78,-9,73,-29,-43,29,-48,-63,-112,-92,-82
-68,-73,-4,70,-31,-39,29,-48,-63,-112,-92,-82
-73,-73,0,73,-36,-36,29,-48,-63,-112,-92,-82
-68,-78,-9,73,-29,-43,24,-53,-68,-112,-87,-87
-58,-82,-24,70,-17,-53,19,-58,-73,-112,-87,-92
-58,-87,-29,73,-14,-58,19,-58,-78,-112,-92,-92
-58,-87,-29,73,-14,-58,19,-58,-78,-112,-92,-92
-58,-87,-29,73,-14,-58,19,-58,-78,-112,-92,-92
-53,-87,-34,70,-9,-61,19,-58,-78,-117,-92,-97
-58,-82,-24,70,-17,-53,19,-58,-78,-117,-92,-97
-68,-78,-9,73,-29,-43,19,-58,-78,-117,-97,-97
-68,-78,-9,73,-29,-43,19,-63,-78,-117,-97,-97
-68,-78,-9,73,-29,-43,19,-68,-78,-117,-97,-97
-68,-78,-9,73,-29,-43,19,-68,-78,-117,-97,-97
-68,-78,-9,73,-29,-43,19,-68,-78,-117,-97,-97
-73,-78,-4,75,-34,-41,19,-63,-78,-117,-97,-97
-68,-73,-4,70,-31,-39,19,-58,-78,-112,-97,-97
-63,-73,-9,68,-26,-41,19,-58,-78,-112,-97,-97
-63,-63,0,63,-31,-31,19,-53,-73,-107,-97,-92
-63,-43,19,53,-41,-12,29,-43,-58,-102,-82,-73
-68,-34,34,51,-51,0,39,-29,-43,-97,-73,-68
-53,-34,19,43,-36,-7,43,-24,-39,-97,-73,-68
-29,-39,-9,34,-9,-24,48,-19,-39,-97,-73,-68
-34,-39,-4,36,-14,-21,63,-4,-34,-87,-73,-68
-34,-39,-4,36,-14,-21,68,9,-29,-78,-68,-58
-19,-34,-14,26,-2,-24,63,19,-24,-78,-63,-53
-9,-29,-19,19,4,-24,58,29,-19,-78,-58,-53
0,-24,-24,12,12,-24,-9,4,-24,-78,-53,-48
0,-19,-19,9,9,-19,-43,-14,-29,-78,-53,-48
4,-14,-19,4,12,-17,-58,-48,-53,-82,-53,-48
9,-9,-19,0,14,-14,-53,-68,-68,-92,-58,-63
9,-24,-34,7,21,-29,-48,-73,-82,-107,-68,-78
9,-34,-43,12,26,-39,-43,-73,-92,-117,-73,-92
39,-34,-73,-2,56,-53,-39,-73,-92,-117,-82,-92
39,-39,-78,0,58,-58,-29,-73,-92,-117,-82,-92
19,-43,-63,12,41,-53,-29,-73,-92,-117,-82,-87
0,-43,-43,21,21,-43,-24,-68,-87,-112,-82,-87
-24,-48,-24,36,0,-36,-14,-68,-87,-112,-82,-87
-58,-58,0,58,-29,-29,4,-58,-82,-112,-87,-87
-63,-63,0,63,-31,-31,14,-53,-82,-112,-92,-87
-63,-73,-9,68,-26,-41,19,-68,-87,-122,-102,-107
-78,-92,-14,85,-31,-53,19,-78,-102,-141,-122,-122
-78,-97,-19,87,-29,-58,19,-82,-102,-151,-126,-131
-87,-97,-9,92,-39,-53,19,-82,-102,-151,-126,-131
-92,-97,-4,95,-43,-51,19,-82,-102,-151,-131,-131
-92,-97,-4,95,-43,-51,19,-78,-102,-151,-131,-126
-92,-97,-4,95,-43,-51,24,-73,-102,-151,-131,-122
-97,-97,0,97,-48,-48,29,-73,-97,-146,-126,-122
-102,-97,4,100,-53,-46,29,-73,-97,-141,-122,-122
-112,-97,14,104,-63,-41,29,-78,-97,-141,-122,-122
-117,-97,19,107,-68,-39,34,-78,-92,-136,-122,-122
-112,-97,14,104,-63,-41,34,-73,-97,-141,-122,-122
-102,-97,4,100,-53,-46,29,-73,-97,-141,-126,-126
-97,-97,0,97,-48,-48,29,-73,-97,-141,-126,-126
-82,-97,-14,90,-34,-56,29,-68,-97,-141,-126,-126
-87,-97,-9,92,-39,-53,24,-82,-97,-141,-117,-117
-102,-107,-4,104,-48,-56,34,-73,-107,-141,-131,-126
-161,-195,-34,178,-63,-114,126,4,-107,-204,-219,-214
-200,-248,-48,224,-75,-148,200,82,-92,-234,-273,-263
-136,-273,-136,204,0,-204,209,161,-107,-258,-283,-268
19,-239,-258,109,139,-248,175,273,-53,-175,-214,-190
234,-39,-273,-97,253,-156,87,395,102,48,-4,29
434,229,-204,-331,319,12,-53,385,278,331,297,331
566,619,53,-592,256,336,-263,195,517,785,795,839
561,956,395,-758,82,675,-444,-92,678,1146,1205,1254
468,956,488,-712,-9,722,-536,-341,644,1239,1327,1356
351,790,439,-570,-43,614,-546,-673,395,1019,1161,1146
58,541,483,-300,-212,512,-380,-961,14,458,653,585
-185,283,468,-48,-326,375,-283,-1224,-453,-224,68,-68
-263,-29,234,146,-248,102,-229,-1176,-722,-590,-278,-414
-292,-170,122,231,-207,-24,-214,-1078,-761,-683,-409,-541
-248,-195,53,222,-151,-70,-204,-824,-634,-551,-331,-439
-185,-180,4,183,-95,-87,-175,-551,-463,-405,-244,-322
-112,-68,43,90,-78,-12,-131,-317,-234,-224,-131,-165
-82,-9,73,46,-78,31,-82,-180,-102,-122,-73,-87
-73,-19,53,46,-63,17,-53,-131,-87,-112,-73,-87
-63,-39,24,51,-43,-7,-19,-68,-82,-107,-78,-87
-68,-48,19,58,-43,-14,4,-48,-58,-92,-82,-82
-68,-48,19,58,-43,-14,14,-43,-58,-92,-87,-87
-58,-43,14,51,-36,-14,14,-39,-58,-92,-87,-87
-48,-43,4,46,-26,-19,19,-24,-53,-92,-87,-87
-48,-43,4,46,-26,-19,24,-9,-53,-87,-87,-82
-43,-43,0,43,-21,-21,29,-4,-53,-87,-82,-73
-43,-39,4,41,-24,-17,29,-4,-48,-78,-82,-73
-48,-34,14,41,-31,-9,29,4,-43,-78,-78,-73
-48,-29,19,39,-34,-4,34,14,-39,-73,-73,-68
-43,-29,14,36,-29,-7,34,14,-39,-68,-73,-63
-48,-34,14,41,-31,-9,34,14,-39,-68,-68,-63
-58,-34,24,46,-41,-4,34,19,-29,-63,-63,-63
-43,-34,9,39,-26,-12,29,14,-29,-68,-68,-63
-29,-34,-4,31,-12,-19,24,14,-29,-68,-73,-68
-24,-29,-4,26,-9,-17,24,19,-29,-63,-68,-63
-14,-29,-14,21,0,-21,24,19,-29,-63,-68,-63
-24,-29,-4,26,-9,-17,29,24,-19,-58,-63,-58
-34,-24,9,29,-21,-7,29,34,-14,-53,-58,-48
-39,-24,14,31,-26,-4,29,39,-9,-53,-58,-48
-43,-19,24,31,-34,2,29,48,0,-48,-53,-43
-48,-19,29,34,-39,4,29,48,0,-48,-53,-43
-58,-19,39,39,-48,9,29,48,0,-43,-53,-43
-29,-19,9,24,-19,-4,24,53,0,-43,-53,-39
-4,-14,-9,9,2,-12,24,58,-4,-43,-48,-39
-9,-9,0,9,-4,-4,24,58,0,-39,-43,-34
-9,-4,4,7,-7,0,24,63,0,-34,-39,-34
0,-4,-4,2,2,-4,24,68,0,-29,-39,-29
4,0,-4,-2,4,-2,19,68,0,-29,-39,-29
-14,4,19,4,-17,12,19,73,14,-24,-34,-19
-39,4,43,17,-41,24,19,82,29,-19,-24,-14
-29,4,34,12,-31,19,14,82,24,-9,-19,-14
-9,9,19,0,-14,14,14,87,19,-9,-19,-9
14,9,-4,-12,9,2,4,92,19,-9,-14,-9
43,9,-34,-26,39,-12,4,97,19,-4,-14,-14
34,14,-19,-24,26,-2,9,102,19,0,-9,-4
24,19,-4,-21,14,7,14,112,24,4,0,4
29,24,-4,-26,17,9,9,117,39,14,4,9
29,24,-4,-26,17,9,9,126,39,19,14,24
9,34,24,-21,-7,29,4,136,43,29,24,29
-9,39,48,-14,-29,43,0,146,58,34,34,39
43,48,4,-46,19,26,-14,156,58,39,34,39
78,58,-19,-68,48,19,-19,161,58,48,39,48
97,68,-29,-82,63,19,-19,175,68,58,48,58
107,78,-29,-92,68,24,-29,185,78,63,58,68
107,87,-19,-97,63,34,-29,200,87,78,73,78
107,97,-9,-102,58,43,-34,214,92,87,82,92
122,112,-9,-117,65,51,-39,224,97,97,92,102
136,122,-14,-129,75,53,-43,244,107,112,112,117
156,131,-24,-143,90,53,-53,248,122,131,122,141
175,146,-29,-161,102,58,-63,263,122,146,141,151
200,156,-43,-178,122,56,-73,278,126,151,151,161
219,175,-43,-197,131,65,-87,283,136,161,165,175
234,185,-48,-209,141,68,-92,302,146,180,190,195
239,200,-39,-219,139,80,-97,317,156,204,214,219
253,214,-39,-234,146,87,-102,326,165,219,239,234
258,224,-34,-241,146,95,-112,326,170,239,263,253
278,239,-39,-258,158,100,-122,336,185,248,273,268
292,248,-43,-270,168,102,-131,341,190,258,283,278
297,263,-34,-280,165,114,-136,341,190,273,292,283
297,268,-29,-283,163,119,-141,336,200,283,302,297
302,273,-29,-287,165,122,-146,322,200,283,307,302
307,273,-34,-290,170,119,-151,302,195,283,307,302
307,268,-39,-287,173,114,-146,287,190,268,287,283
283,258,-24,-270,153,117,-136,263,180,244,263,263
268,244,-24,-256,146,109,-126,234,161,214,234,229
234,209,-24,-222,129,92,-102,209,151,195,200,204
175,185,9,-180,82,97,-82,180,136,165,165,180
136,161,24,-148,56,92,-68,151,117,136,136,136
122,131,9,-126,56,70,-58,122,97,97,102,107
92,97,4,-95,43,51,-39,92,87,78,73,82
53,78,24,-65,14,51,-24,78,73,53,48,58
29,63,34,-46,-2,48,-19,63,53,19,19,29
-4,39,43,-17,-24,41,-9,43,39,4,4,4
-34,19,53,7,-43,36,-9,29,24,-9,-14,-4
-29,9,39,9,-34,24,0,9,9,-29,-34,-29
-24,0,24,12,-24,12,9,-9,-4,-43,-48,-48
-39,-9,29,24,-34,9,9,-19,-9,-58,-58,-58
-48,-19,29,34,-39,4,14,-24,-19,-63,-63,-68
-63,-19,43,41,-53,12,24,-24,-19,-73,-68,-73
-82,-19,63,51,-73,21,34,-24,-24,-73,-73,-73
-82,-29,53,56,-68,12,29,-24,-29,-73,-78,-78
-68,-34,34,51,-51,0,24,-34,-39,-78,-82,-78
-68,-34,34,51,-51,0,24,-34,-43,-82,-92,-82
-63,-34,29,48,-46,-2,19,-34,-43,-82,-92,-92
-63,-34,29,48,-46,-2,19,-34,-48,-87,-92,-92
-63,-34,29,48,-46,-2,19,-39,-53,-87,-97,-92
-58,-34,24,46,-41,-4,19,-43,-53,-92,-97,-92
-58,-39,19,48,-39,-9,24,-43,-48,-97,-97,-92
-63,-39,24,51,-43,-7,24,-43,-48,-97,-97,-92
-63,-39,24,51,-43,-7,24,-39,-48,-97,-97,-92
-87,-39,48,63,-68,4,29,-34,-43,-92,-97,-87
-107,-39,68,73,-87,14,29,-24,-39,-87,-97,-87
-87,-43,43,65,-65,0,29,-24,-39,-87,-92,-87
-78,-43,34,61,-56,-4,29,-24,-39,-87,-92,-87
-78,-39,39,58,-58,0,24,-24,-39,-87,-92,-87
-78,-39,39,58,-58,0,24,-24,-39,-87,-92,-87
-92,-39,53,65,-73,7,29,-24,-39,-82,-87,-87
-102,-39,63,70,-82,12,29,-24,-39,-82,-82,-87
-92,-39,53,65,-73,7,29,-24,-39,-82,-82,-87
-78,-39,39,58,-58,0,29,-24,-39,-82,-82,-87
-58,-39,19,48,-39,-9,24,-24,-43,-82,-82,-87
-48,-39,9,43,-29,-14,24,-24,-43,-82,-82,-87
-68,-39,29,53,-48,-4,29,-24,-39,-82,-82,-82
-82,-34,48,58,-65,7,34,-24,-34,-82,-82,-78
-73,-34,39,53,-56,2,34,-24,-29,-82,-82,-78
-63,-34,29,48,-46,-2,34,-29,-29,-82,-82,-78
-58,-34,24,46,-41,-4,29,-29,-34,-82,-82,-78
-58,-34,24,46,-41,-4,29,-29,-34,-82,-82,-78
-78,-34,43,56,-61,4,34,-24,-29,-73,-73,-73
-82,-34,48,58,-65,7,34,-19,-24,-68,-68,-73
-78,-34,43,56,-61,4,34,-19,-24,-73,-68,-73
-78,-34,43,56,-61,4,34,-19,-24,-73,-68,-73
-68,-34,34,51,-51,0,34,-24,-29,-73,-73,-73
-58,-34,24,46,-41,-4,34,-29,-34,-73,-78,-73
-58,-34,24,46,-41,-4,29,-34,-34,-68,-78,-68
-53,-34,19,43,-36,-7,29,-34,-34,-68,-78,-68
-63,-34,29,48,-46,-2,29,-29,-34,-68,-73,-68
-73,-34,39,53,-56,2,29,-29,-34,-68,-63,-68
-73,-34,39,53,-56,2,29,-29,-39,-73,-63,-68
-73,-34,39,53,-56,2,29,-29,-39,-78,-63,-68
-63,-34,29,48,-46,-2,24,-34,-39,-82,-68,-73
-48,-39,9,43,-29,-14,19,-43,-39,-87,-73,-82
-43,-39,4,41,-24,-17,19,-43,-43,-87,-73,-82
-43,-39,4,41,-24,-17,19,-43,-43,-87,-73,-82
-58,-39,19,48,-39,-9,24,-43,-39,-82,-73,-78
-73,-39,34,56,-53,-2,29,-43,-34,-82,-68,-73
-78,-39,39,58,-58,0,29,-43,-34,-82,-68,-73
-92,-39,53,65,-73,7,29,-48,-34,-82,-68,-78
-92,-43,48,68,-70,2,34,-48,-34,-78,-73,-78
-92,-43,48,68,-70,2,34,-48,-34,-78,-78,-78
-78,-43,34,61,-56,-4,34,-48,-39,-78,-78,-78
-63,-43,19,53,-41,-12,29,-48,-39,-78,-78,-78
-63,-43,19,53,-41,-12,29,-48,-39,-78,-78,-78
-68,-43,24,56,-46,-9,29,-48,-39,-78,-78,-78
-68,-43,24,56,-46,-9,29,-48,-48,-78,-78,-78
-68,-48,19,58,-43,-14,29,-53,-58,-78,-78,-78
-63,-48,14,56,-39,-17,29,-53,-48,-78,-78,-82
-68,-48,19,58,-43,-14,29,-53,-39,-78,-78,-82
-68,-48,19,58,-43,-14,29,-58,-43,-82,-82,-82
-68,-48,19,58,-43,-14,29,-58,-43,-82,-82,-82
-68,-43,24,56,-46,-9,29,-58,-43,-82,-82,-82
-73,-43,29,58,-51,-7,29,-58,-43,-82,-82,-82
-78,-43,34,61,-56,-4,29,-58,-43,-82,-78,-82
-78,-43,34,61,-56,-4,29,-58,-43,-82,-78,-82
-78,-48,29,63,-53,-9,29,-58,-48,-82,-82,-82
-78,-48,29,63,-53,-9,29,-58,-48,-82,-82,-82
-92,-48,43,70,-68,-2,29,-53,-48,-78,-78,-78
-102,-48,53,75,-78,2,29,-48,-48,-73,-73,-73
-92,-48,43,70,-68,-2,24,-48,-48,-78,-73,-78
-82,-48,34,65,-58,-7,19,-48,-48,-78,-78,-78
-82,-48,34,65,-58,-7,19,-53,-48,-78,-78,-82
-82,-48,34,65,-58,-7,19,-58,-48,-78,-78,-87
-73,-48,24,61,-48,-12,19,-58,-48,-78,-78,-87
-68,-48,19,58,-43,-14,19,-58,-48,-78,-78,-87
-68,-48,19,58,-43,-14,24,-53,-48,-78,-78,-87
-68,-48,19,58,-43,-14,29,-48,-48,-78,-78,-87
-73,-48,24,61,-48,-12,29,-48,-48,-78,-78,-87
-73,-48,24,61,-48,-12,29,-48,-48,-78,-78,-87
-73,-48,24,61,-48,-12,29,-53,-48,-82,-78,-87
-63,-43,19,53,-41,-12,29,-58,-48,-82,-78,-87
-53,-34,19,43,-36,-7,29,-53,-43,-78,-78,-82
-48,-14,34,31,-41,9,39,-43,-29,-68,-63,-63
-73,-4,68,39,-70,31,48,-24,-14,-53,-48,-58
-73,-4,68,39,-70,31,53,-14,-9,-48,-43,-58
-58,-9,48,34,-53,19,63,-9,-9,-48,-43,-53
-68,-9,58,39,-63,24,78,4,-4,-39,-43,-48
-53,-9,43,31,-48,17,78,19,0,-29,-43,-39
-29,-4,24,17,-26,9,58,19,0,-29,-43,-34
-14,-4,9,9,-12,2,48,24,4,-29,-39,-39
0,-4,-4,2,2,-4,4,4,4,-29,-34,-39
0,0,0,0,0,0,-34,-14,0,-29,-34,-39
0,0,0,0,0,0,-63,-39,-19,-34,-34,-39
0,0,0,0,0,0,-53,-53,-34,-48,-39,-53
0,-14,-14,7,7,-14,-48,-63,-48,-68,-48,-63
0,-24,-24,12,12,-24,-43,-63,-53,-78,-53,-73
14,-24,-39,4,26,-31,-39,-63,-53,-78,-63,-73
14,-29,-43,7,29,-36,-29,-68,-53,-78,-63,-82
29,-34,-63,2,46,-48,-29,-78,-58,-82,-63,-92
19,-29,-48,4,34,-39,-24,-78,-58,-78,-63,-87
-14,-29,-14,21,0,-21,-14,-78,-58,-73,-63,-78
-53,-39,14,46,-34,-12,4,-63,-48,-73,-63,-73
-73,-43,29,58,-51,-7,14,-48,-43,-73,-63,-68
-82,-53,29,68,-56,-12,19,-58,-48,-82,-73,-87
-97,-73,24,85,-61,-24,19,-68,-63,-97,-87,-97
-102,-78,24,90,-63,-26,19,-73,-63,-102,-87,-102
-107,-78,29,92,-68,-24,19,-73,-63,-102,-87,-102
-122,-78,43,100,-82,-17,19,-73,-63,-102,-92,-102
-141,-78,63,109,-102,-7,19,-73,-63,-102,-92,-102
-107,-78,29,92,-68,-24,24,-82,-73,-107,-102,-112
-73,-78,-4,75,-34,-41,24,-92,-82,-112,-112,-122
-73,-78,-4,75,-34,-41,19,-92,-87,-112,-112,-122
-82,-78,4,80,-43,-36,19,-92,-87,-112,-112,-122
-107,-78,29,92,-68,-24,29,-82,-73,-102,-107,-112
-131,-78,53,104,-92,-12,39,-73,-63,-97,-97,-97
-131,-78,53,104,-92,-12,39,-73,-58,-92,-97,-97
-126,-78,48,102,-87,-14,39,-73,-58,-92,-97,-97
-97,-73,24,85,-61,-24,29,-73,-63,-92,-92,-97
-82,-82,0,82,-41,-41,24,-78,-68,-107,-97,-107
-92,-97,-4,95,-43,-51,29,-87,-87,-126,-131,-136
-112,-151,-39,131,-36,-95,87,-39,-87,-165,-190,-190
-185,-224,-39,204,-73,-131,185,43,-87,-214,-268,-258
-180,-234,-53,207,-63,-143,214,122,-82,-214,-253,-244
0,-214,-214,107,107,-214,180,287,-14,-117,-180,-165
185,-53,-239,-65,212,-146,92,390,112,73,4,24
414,248,-165,-331,290,41,-73,375,297,380,346,361
566,536,-29,-551,297,253,-244,244,473,717,712,732
585,936,351,-761,117,644,-468,-78,673,1132,1190,1215
531,1000,468,-766,31,734,-570,-336,653,1210,1312,1312
395,732,336,-563,29,534,-531,-688,351,912,1054,1005
141,502,361,-322,-109,431,-409,-932,68,517,688,610
-161,234,395,-36,-278,314,-312,-1229,-473,-283,4,-141
-278,-34,244,156,-261,104,-253,-1234,-751,-653,-331,-483
-307,-141,165,224,-236,12,-239,-1078,-688,-600,-346,-473
-292,-180,112,236,-202,-34,-214,-844,-575,-492,-302,-400
-190,-141,48,165,-119,-46,-170,-522,-385,-331,-200,-273
-92,-43,48,68,-70,2,-126,-278,-190,-170,-92,-141
-63,4,68,29,-65,36,-87,-200,-92,-92,-53,-87
-63,0,63,31,-63,31,-53,-151,-58,-78,-53,-78
-48,-19,29,34,-39,4,-19,-68,-53,-78,-58,-78
-39,-29,9,34,-24,-9,0,-34,-29,-63,-58,-68
-39,-29,9,34,-24,-9,9,-34,-29,-58,-53,-63
-34,-24,9,29,-21,-7,14,-29,-29,-53,-48,-58
-58,-29,29,43,-43,0,24,-9,-24,-53,-48,-58
-87,-34,53,61,-70,9,29,4,-19,-48,-48,-53
-68,-34,34,51,-51,0,29,4,-14,-48,-43,-43
-53,-34,19,43,-36,-7,29,4,-9,-39,-43,-43
-58,-34,24,46,-41,-4,29,14,0,-34,-39,-43
-58,-29,29,43,-43,0,34,24,9,-24,-34,-39
-63,-29,34,46,-48,2,34,24,9,-19,-34,-34
-68,-29,39,48,-53,4,34,24,9,-19,-29,-34
-53,-24,29,39,-41,2,34,24,19,-19,-29,-39
-39,-24,14,31,-26,-4,34,19,19,-24,-34,-39
-39,-24,14,31,-26,-4,34,24,19,-19,-34,-39
-34,-19,14,26,-24,-2,34,29,19,-14,-29,-34
-24,-19,4,21,-14,-7,34,34,19,-9,-24,-29
-24,-19,4,21,-14,-7,34,39,24,-4,-19,-24
-19,-14,4,17,-12,-4,24,43,19,-4,-19,-19
-14,-14,0,14,-7,-7,19,43,14,-4,-19,-19
-14,-9,4,12,-9,-2,19,48,19,0,-14,-14
-4,-9,-4,7,0,-7,19,48,19,0,-14,-14
0,-9,-9,4,4,-9,24,48,19,4,-14,-14
4,-9,-14,2,9,-12,24,53,24,4,-14,-9
-4,-4,0,4,-2,-2,24,58,24,4,-9,-9
-19,-4,14,12,-17,4,24,58,29,9,-4,-4
-19,-4,14,12,-17,4,24,63,29,9,0,-4
-9,-4,4,7,-7,0,24,68,29,9,0,0
4,0,-4,-2,4,-2,19,68,29,9,0,0
14,4,-9,-9,12,-2,19,73,34,14,4,9
0,0,0,0,0,0,24,82,39,19,14,14
-9,-4,4,7,-7,0,24,82,43,29,19,14
0,0,0,0,0,0,24,87,48,29,19,19
9,4,-4,-7,7,0,14,92,48,29,24,24
39,9,-29,-24,34,-9,9,97,48,34,24,14
53,14,-39,-34,46,-12,4,102,48,39,29,14
43,19,-24,-31,34,-2,4,112,58,48,39,34
39,24,-14,-31,26,4,0,117,78,63,43,43
39,24,-14,-31,26,4,0,126,78,68,53,53
43,34,-9,-39,26,12,-4,136,78,78,63,58
43,39,-4,-41,24,17,-9,146,87,82,73,68
68,48,-19,-58,43,14,-19,156,87,87,73,68
63,58,-4,-61,34,26,-14,161,87,97,78,78
58,63,4,-61,26,34,-9,175,97,107,87,87
87,68,-19,-78,53,24,-19,185,107,112,92,97
131,78,-53,-104,92,12,-24,195,117,126,102,107
131,87,-43,-109,87,21,-34,209,122,136,112,122
131,102,-29,-117,80,36,-39,224,126,146,126,131
131,117,-14,-124,73,51,-43,244,136,161,161,146
131,131,0,-131,65,65,-53,248,151,180,180,170
170,146,-24,-158,97,61,-63,263,151,195,190,175
219,156,-63,-187,141,46,-73,273,151,200,190,180
239,175,-63,-207,151,56,-87,273,156,209,204,195
258,185,-73,-222,165,56,-97,287,165,224,224,209
268,200,-68,-234,168,65,-107,297,175,244,244,229
283,214,-68,-248,175,73,-112,307,185,253,263,244
287,224,-63,-256,175,80,-122,312,190,268,283,263
307,239,-68,-273,187,85,-131,322,200,278,292,278
322,248,-73,-285,197,87,-146,322,200,287,302,287
326,258,-68,-292,197,95,-151,322,200,297,312,292
331,263,-68,-297,200,97,-151,317,209,307,326,312
326,273,-53,-300,190,109,-151,307,214,312,331,317
322,278,-43,-300,183,117,-156,292,214,317,336,322
322,268,-53,-295,187,107,-156,278,209,307,322,307
292,248,-43,-270,168,102,-146,258,200,283,292,283
268,234,-34,-251,151,100,-131,234,180,253,263,248
224,200,-24,-212,124,87,-102,209,175,239,234,229
175,175,0,-175,87,87,-82,185,165,214,204,209
141,151,9,-146,65,80,-68,161,146,185,175,165
122,126,4,-124,58,65,-58,136,126,146,141,136
73,92,19,-82,26,56,-39,112,117,126,112,112
19,68,48,-43,-14,58,-24,97,102,102,87,87
34,53,19,-43,7,36,-24,68,78,58,48,48
48,34,-14,-41,31,9,-19,34,58,34,24,14
34,19,-14,-26,24,2,-19,19,43,19,4,4
19,9,-9,-14,14,0,-9,9,34,4,-9,-9
-24,0,24,12,-24,12,9,0,24,-4,-14,-19
-58,-9,48,34,-53,19,19,-9,19,-19,-19,-29
-58,-24,34,41,-46,4,24,-14,9,-24,-24,-39
-58,-29,29,43,-43,0,24,-14,9,-34,-29,-43
-39,-29,9,34,-24,-9,19,-14,0,-34,-43,-48
-29,-39,-9,34,-9,-24,19,-14,-4,-34,-53,-58
-43,-43,0,43,-21,-21,24,-24,-9,-39,-53,-58
-58,-43,14,51,-36,-14,24,-24,-14,-43,-63,-63
-68,-43,24,56,-46,-9,19,-24,-9,-43,-58,-68
-82,-43,39,63,-61,-2,19,-24,-9,-48,-53,-63
-63,-43,19,53,-41,-12,19,-29,-14,-48,-58,-63
-43,-43,0,43,-21,-21,19,-29,-14,-48,-58,-63
-63,-53,9,58,-36,-21,24,-24,-9,-48,-58,-63
-82,-58,24,70,-53,-17,24,-24,-9,-48,-58,-63
-68,-58,9,63,-39,-24,24,-19,-9,-48,-58,-68
-58,-58,0,58,-29,-29,29,-19,-9,-48,-58,-68
-68,-58,9,63,-39,-24,34,-14,-9,-48,-58,-68
-68,-63,4,65,-36,-29,39,-14,-9,-48,-53,-68
-68,-63,4,65,-36,-29,39,-14,-14,-48,-58,-68
-68,-58,9,63,-39,-24,34,-14,-19,-48,-63,-68
-68,-58,9,63,-39,-24,34,-14,-19,-48,-63,-68
-73,-58,14,65,-43,-21,39,-14,-19,-43,-63,-68
-82,-58,24,70,-53,-17,39,-14,-14,-43,-63,-68
-97,-58,39,78,-68,-9,39,-14,-9,-43,-63,-68
-87,-58,29,73,-58,-14,39,-14,-9,-43,-63,-68
-68,-58,9,63,-39,-24,34,-14,-14,-43,-63,-68
-58,-58,0,58,-29,-29,34,-14,-19,-43,-63,-68
-48,-58,-9,53,-19,-34,34,-14,-24,-43,-63,-68
-53,-53,0,53,-26,-26,34,-14,-24,-48,-63,-68
-63,-53,9,58,-36,-21,34,-14,-19,-53,-63,-68
-63,-53,9,58,-36,-21,34,-19,-14,-53,-63,-68
-58,-53,4,56,-31,-24,29,-19,-14,-53,-63,-68
-68,-53,14,61,-41,-19,34,-14,-9,-48,-58,-63
-92,-53,39,73,-65,-7,43,-9,-4,-39,-48,-53
-92,-53,39,73,-65,-7,43,-9,-4,-39,-48,-53
-87,-53,34,70,-61,-9,43,-9,-4,-43,-48,-53
-63,-53,9,58,-36,-21,29,-14,-9,-43,-53,-53
-39,-53,-14,46,-12,-34,14,-19,-14,-43,-58,-53
-53,-48,4,51,-29,-21,24,-19,-14,-43,-58,-53
-68,-43,24,56,-46,-9,29,-24,-14,-43,-58,-53
-63,-43,19,53,-41,-12,29,-24,-14,-48,-58,-63
-63,-43,19,53,-41,-12,29,-24,-14,-48,-63,-68
-53,-43,9,48,-31,-17,29,-29,-14,-48,-63,-68
-43,-43,0,43,-21,-21,29,-29,-19,-48,-63,-68
-63,-48,14,56,-39,-17,29,-24,-19,-43,-63,-58
-87,-53,34,70,-61,-9,29,-19,-19,-39,-63,-48
-87,-58,29,73,-58,-14,29,-24,-19,-39,-63,-53
-82,-58,24,70,-53,-17,29,-24,-24,-39,-63,-53
-58,-58,0,58,-29,-29,29,-29,-29,-43,-63,-63
-34,-58,-24,46,-4,-41,29,-34,-34,-48,-68,-73
-43,-58,-14,51,-14,-36,29,-34,-34,-53,-68,-73
-53,-58,-4,56,-24,-31,29,-34,-34,-53,-68,-73
-78,-58,19,68,-48,-19,29,-39,-29,-48,-68,-73
-92,-63,29,78,-61,-17,34,-39,-24,-43,-68,-68
-92,-63,29,78,-61,-17,34,-39,-24,-48,-68,-68
-92,-63,29,78,-61,-17,34,-39,-29,-48,-68,-68
-78,-63,14,70,-46,-24,29,-39,-29,-48,-68,-68
-63,-63,0,63,-31,-31,29,-39,-29,-48,-68,-68
-78,-63,14,70,-46,-24,29,-34,-29,-48,-68,-68
-87,-63,24,75,-56,-19,29,-29,-29,-48,-68,-68
-87,-68,19,78,-53,-24,29,-34,-29,-48,-68,-68
-78,-68,9,73,-43,-29,29,-34,-29,-48,-68,-73
-73,-68,4,70,-39,-31,29,-39,-29,-48,-68,-73
-68,-68,0,68,-34,-34,29,-48,-34,-53,-73,-73
-68,-73,-4,70,-31,-39,29,-48,-34,-53,-73,-73
-68,-73,-4,70,-31,-39,29,-48,-34,-53,-73,-73
-63,-73,-9,68,-26,-41,29,-48,-39,-53,-73,-73
-58,-73,-14,65,-21,-43,29,-48,-43,-53,-68,-73
-73,-73,0,73,-36,-36,29,-48,-43,-53,-68,-73
-87,-78,9,82,-48,-34,29,-48,-48,-53,-73,-73
-87,-78,9,82,-48,-34,29,-48,-48,-53,-73,-73
-87,-78,9,82,-48,-34,29,-48,-48,-53,-73,-73
-78,-78,0,78,-39,-39,29,-48,-48,-53,-73,-73
-73,-78,-4,75,-34,-41,29,-48,-48,-58,-78,-78
-73,-78,-4,75,-34,-41,29,-48,-48,-58,-78,-78
-78,-78,0,78,-39,-39,29,-48,-48,-58,-78,-78
-82,-78,4,80,-43,-36,29,-43,-43,-53,-73,-78
-87,-78,9,82,-48,-34,29,-39,-39,-48,-68,-78
-87,-78,9,82,-48,-34,29,-39,-39,-48,-68,-78
-87,-78,9,82,-48,-34,29,-39,-39,-48,-68,-78
-82,-78,4,80,-43,-36,29,-43,-39,-53,-73,-78
-68,-73,-4,70,-31,-39,29,-43,-39,-53,-73,-78
-53,-73,-19,63,-17,-46,29,-48,-43,-53,-78,-78
-43,-63,-19,53,-12,-41,29,-43,-43,-48,-78,-73
-63,-43,19,53,-41,-12,39,-34,-29,-39,-63,-53
-87,-34,53,61,-70,9,48,-19,-14,-29,-53,-48
-73,-34,39,53,-56,2,53,-14,-9,-29,-53,-48
-48,-39,9,43,-29,-14,58,-9,-9,-29,-53,-48
-48,-39,9,43,-29,-14,73,4,0,-19,-53,-53
-43,-39,4,41,-24,-17,78,19,9,-9,-48,-48
-29,-34,-4,31,-12,-19,58,24,9,-9,-43,-43
-19,-29,-9,24,-4,-19,39,29,9,-9,-39,-43
0,-24,-24,12,12,-24,-19,4,4,-9,-34,-39
9,-19,-29,4,19,-24,-43,-14,0,-9,-34,-39
9,-19,-29,4,19,-24,-53,-39,-19,-4,-29,-29
9,-19,-29,4,19,-24,-43,-48,-29,-4,-29,-34
-4,-34,-29,19,12,-31,-39,-53,-39,-19,-39,-43
-19,-43,-24,31,2,-34,-34,-53,-43,-29,-43,-53
14,-43,-58,14,36,-51,-29,-58,-48,-34,-53,-58
19,-48,-68,14,43,-58,-19,-63,-53,-39,-53,-63
19,-53,-73,17,46,-63,-19,-68,-58,-43,-53,-63
19,-53,-73,17,46,-63,-14,-68,-58,-43,-53,-68
-9,-53,-43,31,17,-48,-4,-68,-53,-43,-53,-68
-48,-58,-9,53,-19,-34,14,-58,-43,-43,-58,-68
-63,-63,0,63,-31,-31,24,-43,-43,-43,-63,-58
-73,-73,0,73,-36,-36,29,-48,-48,-53,-73,-68
-92,-97,-4,95,-43,-51,29,-58,-63,-68,-87,-78
-97,-107,-9,102,-43,-58,29,-63,-63,-73,-87,-82
-97,-107,-9,102,-43,-58,29,-68,-63,-73,-87,-87
-92,-107,-14,100,-39,-61,29,-73,-63,-73,-92,-92
-87,-107,-19,97,-34,-63,29,-73,-63,-73,-92,-92
-82,-107,-24,95,-29,-65,34,-73,-63,-73,-92,-92
-82,-107,-24,95,-29,-65,34,-68,-63,-73,-92,-92
-82,-107,-24,95,-29,-65,29,-63,-68,-73,-92,-92
-92,-107,-14,100,-39,-61,29,-63,-68,-78,-92,-92
-97,-107,-9,102,-43,-58,34,-58,-63,-78,-92,-92
-97,-107,-9,102,-43,-58,39,-58,-63,-78,-87,-87
-92,-107,-14,100,-39,-61,39,-63,-58,-73,-87,-87
-87,-107,-19,97,-34,-63,39,-63,-58,-68,-87,-87
-73,-107,-34,90,-19,-70,39,-58,-58,-63,-87,-87
-73,-102,-29,87,-21,-65,29,-68,-58,-73,-78,-78
-82,-107,-24,95,-29,-65,34,-53,-68,-82,-92,-87
-122,-190,-68,156,-26,-129,122,29,-58,-117,-170,-161
-141,-239,-97,190,-21,-168,190,112,-34,-117,-214,-195
-107,-253,-146,180,19,-200,204,190,-34,-122,-204,-180
19,-209,-229,95,124,-219,175,302,34,-19,-117,-82
214,-9,-224,-102,219,-117,87,424,170,180,97,131
395,258,-136,-326,265,61,-53,414,326,439,405,429
541,629,87,-585,226,358,-244,268,570,868,868,902
551,946,395,-749,78,671,-405,24,736,1205,1244,1283
468,912,444,-690,12,678,-468,-180,697,1259,1307,1327
361,712,351,-536,4,531,-448,-468,444,1000,1083,1058
39,492,453,-265,-207,473,-273,-780,97,463,575,522
-234,263,497,-14,-366,380,-165,-1068,-336,-195,-9,-107
-307,-39,268,173,-287,114,-107,-1034,-614,-531,-302,-405
-331,-170,161,251,-246,-4,-87,-951,-663,-595,-380,-483
-287,-219,68,253,-178,-75,-112,-761,-585,-497,-331,-409
-224,-229,-4,226,-109,-117,-117,-551,-463,-385,-273,-322
-107,-102,4,104,-56,-48,-102,-326,-239,-185,-141,-156
-34,-29,4,31,-19,-12,-82,-200,-112,-63,-63,-68
-34,-34,0,34,-17,-17,-53,-141,-82,-53,-53,-58
-34,-48,-14,41,-9,-31,-19,-68,-63,-48,-48,-48
-43,-58,-14,51,-14,-36,9,-34,-29,-29,-48,-39
-48,-58,-9,53,-19,-34,24,-14,-19,-24,-48,-39
-53,-53,0,53,-26,-26,24,-9,-19,-24,-43,-39
-58,-53,4,56,-31,-24,29,4,-14,-24,-39,-39
-48,-53,-4,51,-21,-29,29,9,-9,-19,-39,-34
-34,-53,-19,43,-7,-36,29,4,-4,-19,-34,-24
-24,-53,-29,39,2,-41,24,4,-4,-9,-39,-24
