I, II, III, aVR, aVL, aVF, V1, V2, V3, V4, V5, V6, 
361, 253, -107, -307, 234, 73, -312, -292, 48, 244, 273, 253, 
346, 229, -117, -287, 231, 56, -297, -278, 43, 229, 248, 239, 
331, 204, -126, -268, 229, 39, -283, -263, 39, 214, 224, 224, 
317, 190, -126, -253, 222, 31, -258, -239, 34, 195, 204, 204, 
302, 175, -126, -239, 214, 24, -234, -214, 29, 175, 185, 185, 
283, 151, -131, -217, 207, 9, -214, -185, 29, 161, 165, 165, 
263, 126, -136, -195, 200, -4, -195, -156, 29, 146, 146, 146, 
244, 112, -131, -178, 187, -9, -175, -131, 29, 126, 122, 126, 
224, 97, -126, -161, 175, -14, -156, -107, 29, 107, 97, 107, 
195, 68, -126, -131, 161, -29, -131, -78, 24, 87, 78, 87, 
165, 39, -126, -102, 146, -43, -107, -48, 19, 68, 58, 68, 
151, 19, -131, -85, 141, -56, -87, -24, 19, 58, 43, 48, 
136, 0, -136, -68, 136, -68, -68, 0, 19, 48, 29, 29, 
117, -19, -136, -48, 126, -78, -39, 24, 14, 34, 14, 9, 
97, -39, -136, -29, 117, -87, -9, 48, 9, 19, 0, -9, 
87, -48, -136, -19, 112, -92, 0, 68, 4, 9, -9, -24, 
78, -58, -136, -9, 107, -97, 9, 87, 0, 0, -19, -39, 
63, -73, -136, 4, 100, -104, 24, 97, 0, -9, -29, -48, 
48, -87, -136, 19, 92, -112, 39, 107, 0, -19, -39, -58, 
39, -97, -136, 29, 87, -117, 48, 107, -4, -24, -43, -68, 
29, -107, -136, 39, 82, -122, 58, 107, -9, -29, -48, -78, 
24, -112, -136, 43, 80, -124, 68, 112, -14, -34, -53, -78, 
19, -117, -136, 48, 78, -126, 78, 117, -19, -39, -58, -78, 
19, -122, -141, 51, 80, -131, 78, 117, -19, -39, -63, -78, 
19, -126, -146, 53, 82, -136, 78, 117, -19, -39, -68, -78, 
14, -126, -141, 56, 78, -134, 78, 122, -24, -39, -68, -78, 
9, -126, -136, 58, 73, -131, 78, 126, -29, -39, -68, -78, 
9, -117, -126, 53, 68, -122, 78, 126, -29, -39, -63, -73, 
9, -107, -117, 48, 63, -112, 78, 126, -29, -39, -58, -68, 
9, -107, -117, 48, 63, -112, 78, 122, -24, -39, -58, -68, 
9, -107, -117, 48, 63, -112, 78, 117, -19, -39, -58, -68, 
4, -112, -117, 53, 61, -114, 73, 117, -19, -39, -58, -68, 
0, -117, -117, 58, 58, -117, 68, 117, -19, -39, -58, -68, 
0, -117, -117, 58, 58, -117, 68, 117, -19, -39, -58, -68, 
0, -117, -117, 58, 58, -117, 68, 117, -19, -39, -58, -68, 
0, -112, -112, 56, 56, -112, 68, 112, -19, -39, -58, -68, 
0, -107, -107, 53, 53, -107, 68, 107, -19, -39, -58, -68, 
0, -107, -107, 53, 53, -107, 63, 107, -19, -39, -58, -73, 
0, -107, -107, 53, 53, -107, 58, 107, -19, -39, -58, -78, 
4, -107, -112, 51, 58, -109, 58, 107, -19, -39, -58, -82, 
9, -107, -117, 48, 63, -112, 58, 107, -19, -39, -58, -87, 
9, -102, -112, 46, 61, -107, 53, 107, -19, -39, -53, -87, 
9, -97, -107, 43, 58, -102, 48, 107, -19, -39, -48, -87, 
9, -97, -107, 43, 58, -102, 43, 97, -14, -39, -48, -87, 
9, -97, -107, 43, 58, -102, 39, 87, -9, -39, -48, -87, 
9, -97, -107, 43, 58, -102, 39, 87, -9, -34, -48, -87, 
9, -97, -107, 43, 58, -102, 39, 87, -9, -29, -48, -87, 
14, -92, -107, 39, 61, -100, 39, 87, -9, -24, -48, -87, 
19, -87, -107, 34, 63, -97, 39, 87, -9, -19, -48, -87, 
19, -78, -97, 29, 58, -87, 39, 87, -4, -19, -43, -82, 
19, -68, -87, 24, 53, -78, 39, 87, 0, -19, -39, -78, 
24, -58, -82, 17, 53, -70, 39, 87, 4, -9, -34, -73, 
29, -48, -78, 9, 53, -63, 39, 87, 9, 0, -29, -68, 
29, -43, -73, 7, 51, -58, 53, 97, 14, 0, -24, -63, 
29, -39, -68, 4, 48, -53, 68, 107, 19, 0, -19, -58, 
29, -34, -63, 2, 46, -48, 68, 112, 24, 0, -19, -48, 
29, -29, -58, 0, 43, -43, 68, 117, 29, 0, -19, -39, 
34, -19, -53, -7, 43, -36, 63, 117, 34, 9, -14, -29, 
43, -4, -48, -19, 46, -26, 53, 112, 34, 14, -4, -19, 
53, 9, -43, -31, 48, -17, 48, 112, 39, 24, 0, -14, 
53, 14, -39, -34, 46, -12, 24, 82, 39, 24, 4, -9, 
53, 19, -34, -36, 43, -7, 14, 48, 39, 29, 9, -9, 
53, 9, -43, -31, 48, -17, 0, 39, 29, 24, 9, -9, 
58, 4, -53, -31, 56, -24, -14, 39, 19, 19, 14, -9, 
63, 0, -63, -31, 63, -31, -24, 39, 14, 14, 9, -9, 
63, 0, -63, -31, 63, -31, -34, 39, 4, 4, 4, -9, 
63, -24, -87, -19, 75, -56, -34, 34, -14, -9, -4, -14, 
63, -48, -112, -7, 87, -80, -29, 24, -43, -24, -19, -29, 
63, -63, -126, 0, 95, -95, -24, 14, -53, -34, -34, -39, 
53, -82, -136, 14, 95, -109, -19, 14, -63, -48, -39, -48, 
48, -87, -136, 19, 92, -112, -19, 14, -63, -48, -39, -53, 
53, -87, -141, 17, 97, -114, -24, 4, -63, -43, -48, -53, 
48, -92, -141, 21, 95, -117, -14, 19, -63, -43, -53, -58, 
39, -92, -131, 26, 85, -112, -9, 24, -48, -39, -48, -53, 
29, -92, -122, 31, 75, -107, 0, 34, -43, -39, -48, -53, 
14, -97, -112, 41, 63, -104, 9, 39, -43, -39, -48, -63, 
-4, -107, -102, 56, 48, -104, 19, 39, -43, -48, -58, -63, 
-9, -112, -102, 61, 46, -107, 19, 39, -43, -48, -63, -73, 
-14, -122, -107, 68, 46, -114, 29, 39, -48, -48, -68, -78, 
-24, -122, -97, 73, 36, -109, 29, 34, -48, -53, -68, -78, 
-24, -122, -97, 73, 36, -109, 29, 34, -48, -53, -63, -78, 
-14, -117, -102, 65, 43, -109, 34, 34, -48, -53, -63, -78, 
-4, -117, -112, 61, 53, -114, 34, 34, -48, -53, -63, -82, 
-4, -122, -117, 63, 56, -119, 34, 34, -48, -53, -68, -82, 
-4, -122, -117, 63, 56, -119, 34, 34, -48, -53, -68, -82, 
-4, -122, -117, 63, 56, -119, 34, 34, -48, -53, -68, -82, 
-4, -122, -117, 63, 56, -119, 34, 34, -48, -53, -63, -82, 
-9, -131, -122, 70, 56, -126, 29, 34, -48, -53, -63, -82, 
-9, -136, -126, 73, 58, -131, 24, 34, -48, -48, -63, -82, 
-9, -126, -117, 68, 53, -122, 24, 29, -48, -48, -63, -87, 
-9, -117, -107, 63, 48, -112, 24, 24, -43, -48, -63, -87, 
-9, -117, -107, 63, 48, -112, 24, 24, -43, -48, -63, -92, 
-4, -112, -107, 58, 51, -109, 24, 24, -43, -43, -63, -97, 
-4, -107, -102, 56, 48, -104, 24, 24, -43, -48, -58, -87, 
-9, -92, -82, 51, 36, -87, 24, 14, -29, -43, -48, -82, 
-19, -48, -29, 34, 4, -39, 24, -9, -14, -19, -24, -68, 
-43, 9, 53, 17, -48, 31, 14, -34, 24, 39, 29, -34, 
-58, 92, 151, -17, -104, 122, 9, -63, 87, 122, 112, 24, 
-68, 195, 263, -63, -165, 229, -9, -87, 175, 258, 229, 126, 
-39, 346, 385, -153, -212, 366, -48, -117, 341, 473, 424, 268, 
29, 497, 468, -263, -219, 483, -97, -131, 502, 697, 624, 419, 
126, 585, 458, -356, -165, 522, -126, -136, 624, 824, 741, 502, 
239, 561, 322, -400, -41, 441, -141, -102, 624, 824, 741, 522, 
346, 292, -53, -319, 200, 119, -112, 34, 370, 448, 439, 336, 
419, -385, -805, -17, 612, -595, -9, 302, -175, -336, -234, -87, 
488, -976, -1464, 244, 976, -1220, 107, 507, -624, -927, -800, -527, 
502, -1283, -1786, 390, 1144, -1534, 195, 610, -863, -1200, -1093, -780, 
497, -1576, -2074, 539, 1285, -1825, 278, 775, -1005, -1420, -1332, -1000, 
439, -1854, -2293, 707, 1366, -2074, 370, 951, -1161, -1664, -1571, -1200, 
395, -1995, -2391, 800, 1393, -2193, 405, 971, -1312, -1795, -1693, -1317, 
312, -2044, -2357, 866, 1334, -2200, 434, 971, -1385, -1854, -1756, -1390, 
244, -2059, -2303, 907, 1273, -2181, 458, 980, -1356, -1820, -1732, -1395, 
170, -1976, -2147, 902, 1159, -2061, 458, 932, -1298, -1737, -1654, -1346, 
122, -1825, -1947, 851, 1034, -1886, 458, 868, -1229, -1615, -1546, -1293, 
29, -1605, -1634, 788, 832, -1620, 458, 795, -1063, -1439, -1395, -1180, 
-73, -1415, -1342, 744, 634, -1378, 463, 727, -883, -1234, -1215, -1034, 
-175, -1273, -1098, 724, 461, -1185, 502, 736, -732, -1073, -1068, -927, 
-239, -1112, -873, 675, 317, -993, 570, 775, -575, -917, -927, -844, 
-287, -912, -624, 600, 168, -768, 634, 883, -375, -732, -771, -727, 
-326, -761, -434, 544, 53, -597, 683, 971, -258, -590, -629, -590, 
-336, -712, -375, 524, 19, -544, 736, 1039, -209, -517, -551, -522, 
-351, -639, -287, 495, -31, -463, 790, 1088, -165, -444, -478, -478, 
-361, -536, -175, 448, -92, -356, 800, 1058, -117, -351, -390, -414, 
-370, -448, -78, 409, -146, -263, 785, 941, -78, -283, -322, -346, 
-380, -439, -58, 409, -161, -248, 746, 800, -68, -273, -302, -317, 
-375, -400, -24, 387, -175, -212, 668, 673, -68, -244, -268, -283, 
-326, -307, 19, 317, -173, -143, 570, 566, -63, -190, -209, -234, 
-292, -268, 24, 280, -158, -122, 522, 507, -58, -170, -185, -190, 
-244, -244, 0, 244, -122, -122, 448, 439, -53, -146, -161, -161, 
-204, -209, -4, 207, -100, -107, 370, 341, -53, -112, -126, -141, 
-165, -151, 14, 158, -90, -68, 283, 278, -39, -73, -82, -97, 
-102, -107, -4, 104, -48, -56, 204, 214, -29, -39, -48, -48, 
-34, -87, -53, 61, 9, -70, 126, 122, -19, -19, -29, -24, 
-4, -43, -39, 24, 17, -41, 58, 39, -9, -4, -14, -19, 
4, -9, -14, 2, 9, -12, 39, 29, 0, 14, 4, -4, 
24, -9, -34, -7, 29, -21, 24, 24, 4, 24, 14, 14, 
39, -19, -58, -9, 48, -39, 9, 0, 19, 24, 19, 14, 
39, -9, -48, -14, 43, -29, -4, -14, 19, 34, 24, 9, 
43, 0, -43, -21, 43, -21, -14, -24, 19, 34, 29, 14, 
48, 0, -48, -24, 48, -24, -19, -29, 19, 34, 34, 19, 
53, 4, -48, -29, 51, -21, -29, -43, 24, 43, 43, 19, 
58, 9, -48, -34, 53, -19, -34, -48, 24, 43, 43, 19, 
63, 14, -48, -39, 56, -17, -43, -53, 29, 48, 43, 34, 
63, 24, -39, -43, 51, -7, -53, -58, 29, 53, 43, 43, 
63, 34, -29, -48, 46, 2, -63, -63, 29, 63, 48, 48, 
63, 39, -24, -51, 43, 7, -68, -63, 29, 73, 58, 53, 
73, 48, -24, -61, 48, 12, -73, -63, 34, 73, 63, 63, 
78, 53, -24, -65, 51, 14, -68, -68, 34, 78, 68, 68, 
78, 58, -19, -68, 48, 19, -63, -73, 34, 78, 73, 73, 
78, 63, -14, -70, 46, 24, -68, -78, 34, 78, 73, 78, 
92, 68, -24, -80, 58, 21, -68, -82, 39, 87, 78, 78, 
92, 68, -24, -80, 58, 21, -73, -87, 39, 87, 82, 73, 
97, 78, -19, -87, 58, 29, -78, -92, 39, 87, 87, 78, 
102, 82, -19, -92, 61, 31, -78, -97, 39, 92, 92, 82, 
112, 92, -19, -102, 65, 36, -92, -102, 39, 97, 102, 87, 
112, 97, -14, -104, 63, 41, -107, -112, 43, 107, 107, 87, 
117, 107, -9, -112, 63, 48, -122, -122, 43, 117, 112, 92, 
122, 122, 0, -122, 61, 61, -131, -131, 43, 131, 126, 102, 
136, 136, 0, -136, 68, 68, -141, -141, 43, 141, 136, 107, 
146, 146, 0, -146, 73, 73, -146, -156, 48, 146, 146, 122, 
146, 156, 9, -151, 68, 82, -156, -170, 48, 161, 161, 131, 
170, 175, 4, -173, 82, 90, -165, -170, 53, 165, 175, 151, 
175, 180, 4, -178, 85, 92, -175, -185, 53, 175, 190, 170, 
185, 204, 19, -195, 82, 112, -180, -200, 58, 180, 200, 180, 
195, 214, 19, -204, 87, 117, -195, -214, 58, 185, 219, 195, 
209, 219, 9, -214, 100, 114, -209, -229, 58, 200, 229, 224, 
229, 234, 4, -231, 112, 119, -219, -244, 58, 209, 239, 234, 
239, 248, 9, -244, 114, 129, -229, -258, 58, 219, 248, 248, 
239, 258, 19, -248, 109, 139, -244, -278, 53, 224, 258, 253, 
268, 263, -4, -265, 136, 129, -268, -287, 53, 234, 263, 273, 
278, 278, 0, -278, 139, 139, -273, -302, 53, 239, 278, 297, 
283, 283, 0, -283, 141, 141, -283, -307, 53, 248, 283, 307, 
297, 302, 4, -300, 146, 153, -292, -317, 53, 258, 287, 312, 
312, 302, -9, -307, 161, 146, -307, -326, 53, 268, 292, 322, 
326, 307, -19, -317, 173, 143, -322, -331, 58, 268, 297, 326, 
331, 307, -24, -319, 178, 141, -322, -331, 58, 263, 297, 326, 
336, 302, -34, -319, 185, 134, -322, -326, 58, 258, 292, 326, 
341, 297, -43, -319, 192, 126, -322, -326, 53, 253, 287, 317, 
341, 283, -58, -312, 200, 112, -312, -317, 48, 229, 268, 302, 
341, 268, -73, -305, 207, 97, -312, -302, 43, 219, 253, 273, 
322, 239, -82, -280, 202, 78, -307, -292, 39, 209, 239, 244, 
317, 229, -87, -273, 202, 70, -287, -268, 34, 190, 214, 224, 
307, 204, -102, -256, 204, 51, -263, -244, 29, 170, 195, 204, 
292, 185, -107, -239, 200, 39, -244, -224, 24, 151, 175, 185, 
263, 170, -92, -217, 178, 39, -209, -195, 19, 126, 146, 156, 
239, 141, -97, -190, 168, 21, -200, -175, 14, 107, 122, 122, 
224, 122, -102, -173, 163, 9, -180, -146, 14, 92, 107, 107, 
200, 102, -97, -151, 148, 2, -165, -117, 14, 68, 87, 82, 
180, 78, -102, -129, 141, -12, -131, -97, 9, 58, 58, 53, 
156, 53, -102, -104, 129, -24, -107, -63, 4, 29, 29, 34, 
146, 34, -112, -90, 129, -39, -82, -34, 0, 4, 4, 19, 
126, 14, -112, -70, 119, -48, -73, -4, 0, 0, -4, 19, 
107, 0, -107, -53, 107, -53, -58, 14, 0, -4, -24, 9, 
97, -19, -117, -39, 107, -68, -34, 39, 0, -14, -34, -4, 
82, -29, -112, -26, 97, -70, -4, 58, -9, -29, -48, -14, 
63, -39, -102, -12, 82, -70, 14, 63, -9, -43, -53, -29, 
43, -48, -92, 2, 68, -70, 24, 73, -9, -48, -63, -29, 
39, -68, -107, 14, 73, -87, 34, 78, -14, -58, -68, -39, 
24, -73, -97, 24, 61, -85, 43, 87, -19, -63, -78, -48, 
29, -73, -102, 21, 65, -87, 48, 82, -24, -68, -82, -48, 
19, -82, -102, 31, 61, -92, 53, 87, -34, -78, -92, -48, 
19, -87, -107, 34, 63, -97, 53, 87, -39, -82, -92, -48, 
9, -97, -107, 43, 58, -102, 53, 87, -39, -82, -92, -53, 
4, -107, -112, 51, 58, -109, 58, 92, -43, -82, -92, -48, 
0, -107, -107, 53, 53, -107, 63, 97, -43, -82, -87, -43, 
-4, -102, -97, 53, 46, -100, 68, 97, -43, -82, -87, -43, 
-4, -97, -92, 51, 43, -95, 68, 97, -43, -82, -87, -43, 
-4, -92, -87, 48, 41, -90, 68, 92, -43, -82, -92, -43, 
-4, -92, -87, 48, 41, -90, 68, 87, -43, -82, -97, -43, 
4, -92, -97, 43, 51, -95, 63, 87, -39, -87, -97, -48, 
9, -87, -97, 39, 53, -92, 58, 87, -34, -87, -92, -43, 
9, -82, -92, 36, 51, -87, 58, 82, -34, -87, -92, -48, 
9, -82, -92, 36, 51, -87, 53, 78, -34, -82, -87, -43, 
4, -78, -82, 36, 43, -80, 53, 78, -34, -73, -82, -43, 
0, -82, -82, 41, 41, -82, 53, 73, -34, -73, -78, -43, 
0, -82, -82, 41, 41, -82, 53, 78, -34, -68, -78, -48, 
4, -82, -87, 39, 46, -85, 53, 78, -29, -68, -73, -53, 
14, -78, -92, 31, 53, -85, 53, 78, -29, -68, -73, -53, 
19, -68, -87, 24, 53, -78, 53, 73, -29, -68, -73, -53, 
24, -63, -87, 19, 56, -75, 43, 73, -34, -63, -68, -48, 
24, -53, -78, 14, 51, -65, 43, 73, -29, -63, -63, -43, 
24, -53, -78, 14, 51, -65, 43, 63, -29, -58, -63, -39, 
19, -58, -78, 19, 48, -68, 43, 53, -29, -58, -63, -39, 
14, -48, -63, 17, 39, -56, 43, 48, -24, -53, -63, -34, 
14, -43, -58, 14, 36, -51, 43, 53, -9, -48, -58, -29, 
19, -29, -48, 4, 34, -39, 39, 58, 0, -43, -48, -24, 
29, -14, -43, -7, 36, -29, 39, 63, 4, -39, -43, -19, 
34, -4, -39, -14, 36, -21, 39, 68, 9, -34, -39, -14, 
39, 0, -39, -19, 39, -19, 39, 78, 19, -29, -39, -9, 
43, 14, -29, -29, 36, -7, 39, 78, 24, -24, -34, -4, 
48, 29, -19, -39, 34, 4, 39, 78, 29, -19, -29, 0, 
53, 34, -19, -43, 36, 7, 29, 78, 34, -14, -24, 4, 
58, 39, -19, -48, 39, 9, 9, 58, 34, -4, -14, 14, 
63, 43, -19, -53, 41, 12, -4, 43, 39, 0, -9, 24, 
63, 43, -19, -53, 41, 12, -9, 9, 34, 4, -4, 29, 
63, 29, -34, -46, 48, -2, -24, 0, 19, -4, -9, 34, 
63, 24, -39, -43, 51, -7, -34, 0, 9, -9, -9, 39, 
68, 24, -43, -46, 56, -9, -34, 0, 4, -9, -9, 43, 
73, 29, -43, -51, 58, -7, -43, 0, -4, -9, -4, 48, 
73, 4, -68, -39, 70, -31, -43, -4, -24, -19, -14, 43, 
73, -14, -87, -29, 80, -51, -39, -9, -48, -34, -24, 34, 
73, -24, -97, -24, 85, -61, -34, -14, -58, -53, -39, 29, 
63, -43, -107, -9, 85, -75, -29, -14, -73, -78, -48, 24, 
63, -48, -112, -7, 87, -80, -29, -14, -73, -78, -48, 19, 
63, -48, -112, -7, 87, -80, -29, -24, -73, -73, -53, 14, 
48, -53, -102, 2, 75, -78, -14, -9, -73, -73, -53, 4, 
39, -53, -92, 7, 65, -73, -9, -4, -63, -68, -48, 0, 
29, -53, -82, 12, 56, -68, 0, 4, -63, -68, -48, -9, 
19, -58, -78, 19, 48, -68, 4, 9, -63, -68, -48, -24, 
4, -68, -73, 31, 39, -70, 9, 9, -63, -73, -53, -24, 
4, -73, -78, 34, 41, -75, 9, 9, -63, -68, -53, -34, 
4, -82, -87, 39, 46, -85, 19, 9, -68, -68, -58, -43, 
-4, -82, -78, 43, 36, -80, 19, 9, -68, -73, -58, -48, 
-4, -82, -78, 43, 36, -80, 19, 14, -68, -73, -53, -48, 
-4, -82, -78, 43, 36, -80, 24, 14, -68, -73, -53, -48, 
-4, -82, -78, 43, 36, -80, 24, 14, -68, -73, -53, -58, 
-4, -82, -78, 43, 36, -80, 24, 14, -68, -73, -58, -63, 
-4, -82, -78, 43, 36, -80, 24, 14, -63, -73, -58, -63, 
-4, -82, -78, 43, 36, -80, 24, 14, -58, -73, -58, -63, 
-4, -82, -78, 43, 36, -80, 19, 14, -58, -73, -53, -58, 
-9, -82, -73, 46, 31, -78, 14, 14, -58, -73, -53, -53, 
-9, -82, -73, 46, 31, -78, 14, 9, -58, -68, -53, -53, 
-9, -87, -78, 48, 34, -82, 14, 4, -58, -68, -53, -53, 
-9, -87, -78, 48, 34, -82, 14, 4, -58, -68, -53, -48, 
-9, -87, -78, 48, 34, -82, 14, 4, -63, -68, -53, -48, 
-4, -82, -78, 43, 36, -80, 19, 9, -63, -68, -53, -48, 
-4, -78, -73, 41, 34, -75, 24, 14, -63, -73, -48, -39, 
-9, -63, -53, 36, 21, -58, 24, 4, -48, -63, -39, -34, 
-24, -19, 4, 21, -14, -7, 24, -19, -34, -39, -14, -19, 
-53, 24, 78, 14, -65, 51, 14, -43, -14, -4, 19, 0, 
-68, 87, 156, -9, -112, 122, 9, -73, 29, 53, 82, 43, 
-92, 185, 278, -46, -185, 231, -9, -97, 102, 190, 190, 136, 
-68, 336, 405, -134, -236, 370, -48, -126, 253, 400, 375, 258, 
-14, 522, 536, -253, -275, 529, -102, -156, 453, 668, 624, 434, 
68, 649, 580, -358, -256, 614, -136, -170, 614, 844, 790, 551, 
190, 736, 546, -463, -178, 641, -161, -175, 727, 985, 917, 658, 
297, 600, 302, -448, -2, 451, -146, -82, 590, 771, 751, 561, 
395, -126, -522, -134, 458, -324, -48, 214, -14, -97, 9, 107, 
488, -766, -1254, 139, 871, -1010, 68, 458, -497, -771, -610, -346, 
522, -1088, -1610, 283, 1066, -1349, 156, 556, -732, -1063, -912, -600, 
531, -1420, -1952, 444, 1241, -1686, 229, 707, -917, -1322, -1185, -834, 
492, -1722, -2215, 614, 1354, -1969, 312, 907, -1107, -1595, -1459, -1068, 
473, -1912, -2386, 719, 1429, -2149, 356, 951, -1273, -1761, -1620, -1215, 
380, -2000, -2381, 810, 1381, -2191, 400, 951, -1376, -1849, -1708, -1302, 
312, -2015, -2327, 851, 1320, -2171, 429, 961, -1376, -1839, -1708, -1322, 
248, -1932, -2181, 841, 1215, -2056, 429, 922, -1342, -1776, -1654, -1288, 
185, -1825, -2010, 819, 1098, -1917, 434, 868, -1302, -1678, -1566, -1254, 
78, -1634, -1712, 778, 895, -1673, 434, 775, -1146, -1507, -1415, -1141, 
-24, -1429, -1405, 727, 690, -1417, 439, 707, -971, -1312, -1239, -1000, 
-126, -1273, -1146, 700, 509, -1210, 478, 702, -829, -1156, -1098, -897, 
-195, -1122, -927, 658, 366, -1024, 546, 722, -683, -995, -956, -814, 
-253, -907, -653, 580, 200, -780, 610, 834, -444, -790, -775, -692, 
-297, -732, -434, 514, 68, -583, 653, 902, -297, -629, -614, -566, 
-307, -668, -361, 488, 26, -514, 707, 1000, -253, -546, -536, -512, 
-336, -600, -263, 468, -36, -431, 761, 1063, -204, -473, -468, -468, 
-380, -527, -146, 453, -117, -336, 795, 1044, -156, -390, -390, -395, 
-400, -439, -39, 419, -180, -239, 800, 956, -117, -322, -322, -317, 
-405, -419, -14, 412, -195, -217, 775, 819, -107, -312, -302, -287, 
-400, -380, 19, 390, -209, -180, 717, 702, -107, -278, -263, -253, 
-346, -283, 63, 314, -204, -109, 610, 580, -97, -209, -185, -195, 
-312, -239, 73, 275, -192, -82, 541, 497, -82, -180, -146, -141, 
-268, -214, 53, 241, -161, -80, 458, 429, -68, -156, -136, -126, 
-219, -180, 39, 200, -129, -70, 380, 341, -63, -126, -122, -122, 
-165, -117, 48, 141, -107, -34, 287, 278, -48, -87, -73, -68, 
-117, -68, 48, 92, -82, -9, 200, 209, -39, -48, -29, -19, 
-53, -43, 9, 48, -31, -17, 117, 107, -24, -29, -9, -4, 
-14, -4, 9, 9, -12, 2, 48, 19, -9, -14, 4, 9, 
-4, 24, 29, -9, -17, 26, 29, 4, 0, 9, 29, 34, 
14, 39, 24, -26, -4, 31, 14, -4, 0, 24, 43, 53, 
34, 43, 9, -39, 12, 26, -4, -29, 9, 24, 48, 53, 
39, 58, 19, -48, 9, 39, -24, -43, 9, 34, 53, 53, 
43, 68, 24, -56, 9, 46, -39, -53, 9, 34, 58, 63, 
48, 68, 19, -58, 14, 43, -48, -58, 9, 34, 63, 68, 
48, 68, 19, -58, 14, 43, -63, -73, 14, 43, 78, 73, 
48, 68, 19, -58, 14, 43, -68, -78, 14, 43, 82, 78, 
48, 73, 24, -61, 12, 48, -73, -82, 19, 48, 82, 92, 
48, 78, 29, -63, 9, 53, -78, -87, 19, 48, 82, 97, 
53, 82, 29, -68, 12, 56, -78, -97, 19, 53, 82, 102, 
53, 87, 34, -70, 9, 61, -78, -107, 19, 63, 87, 112, 
68, 97, 29, -82, 19, 63, -82, -112, 24, 68, 92, 126, 
78, 102, 24, -90, 26, 63, -82, -117, 24, 78, 97, 136, 
78, 107, 29, -92, 24, 68, -87, -122, 24, 78, 107, 141, 
78, 112, 34, -95, 21, 73, -102, -126, 24, 78, 112, 146, 
92, 122, 29, -107, 31, 75, -117, -131, 29, 87, 117, 146, 
92, 126, 34, -109, 29, 80, -131, -136, 29, 92, 122, 146, 
92, 136, 43, -114, 24, 90, -126, -141, 29, 97, 126, 151, 
92, 141, 48, -117, 21, 95, -117, -146, 29, 102, 131, 151, 
102, 151, 48, -126, 26, 100, -131, -151, 29, 107, 141, 156, 
102, 156, 53, -129, 24, 104, -136, -161, 34, 112, 146, 156, 
122, 170, 48, -146, 36, 109, -141, -170, 34, 117, 151, 156, 
141, 190, 48, -165, 46, 119, -151, -180, 34, 131, 165, 161, 
146, 204, 58, -175, 43, 131, -156, -190, 34, 141, 175, 165, 
146, 214, 68, -180, 39, 141, -161, -204, 39, 146, 185, 180, 
141, 224, 82, -183, 29, 153, -175, -214, 39, 161, 200, 190, 
161, 244, 82, -202, 39, 163, -185, -214, 43, 165, 209, 200, 
165, 248, 82, -207, 41, 165, -200, -234, 43, 175, 219, 209, 
175, 273, 97, -224, 39, 185, -214, -248, 48, 185, 229, 219, 
185, 283, 97, -234, 43, 190, -234, -263, 48, 195, 248, 234, 
204, 292, 87, -248, 58, 190, -248, -278, 48, 209, 258, 258, 
229, 312, 82, -270, 73, 197, -258, -292, 48, 224, 273, 263, 
239, 326, 87, -283, 75, 207, -268, -307, 48, 234, 287, 278, 
239, 336, 97, -287, 70, 217, -283, -326, 43, 234, 297, 287, 
268, 341, 73, -305, 97, 207, -307, -336, 43, 244, 302, 297, 
278, 356, 78, -317, 100, 217, -312, -351, 43, 248, 317, 307, 
283, 356, 73, -319, 104, 214, -322, -356, 43, 253, 322, 317, 
297, 370, 73, -334, 112, 222, -331, -366, 39, 258, 326, 322, 
307, 370, 63, -339, 122, 217, -341, -375, 34, 268, 331, 331, 
322, 380, 58, -351, 131, 219, -351, -380, 39, 273, 341, 336, 
331, 385, 53, -358, 139, 219, -351, -380, 39, 278, 346, 336, 
336, 385, 48, -361, 143, 217, -356, -375, 39, 278, 341, 336, 
341, 385, 43, -363, 148, 214, -361, -375, 34, 273, 336, 331, 
346, 380, 34, -363, 156, 207, -351, -366, 29, 248, 317, 322, 
351, 375, 24, -363, 163, 200, -351, -351, 24, 239, 302, 302, 
331, 336, 4, -334, 163, 170, -346, -346, 19, 229, 287, 283, 
326, 317, -9, -322, 168, 153, -331, -326, 14, 209, 263, 268, 
317, 292, -24, -305, 170, 134, -317, -302, 9, 190, 244, 253, 
302, 273, -29, -287, 165, 122, -302, -283, 4, 175, 224, 239, 
278, 258, -19, -268, 148, 119, -278, -253, 0, 156, 195, 214, 
258, 229, -29, -244, 143, 100, -273, -229, -4, 136, 170, 185, 
244, 209, -34, -226, 139, 87, -229, -195, -4, 122, 156, 175, 
219, 190, -29, -204, 124, 80, -195, -165, -4, 97, 136, 156, 
195, 165, -29, -180, 112, 68, -170, -151, -9, 87, 107, 131, 
161, 141, -19, -151, 90, 61, -156, -122, -9, 68, 87, 112, 
146, 122, -24, -134, 85, 48, -131, -92, -9, 53, 73, 97, 
126, 102, -24, -114, 75, 39, -112, -63, -9, 39, 63, 87, 
112, 92, -19, -102, 65, 36, -82, -43, -9, 19, 39, 73, 
107, 73, -34, -90, 70, 19, -63, -19, -9, 4, 24, 58, 
92, 58, -34, -75, 63, 12, -43, 0, -19, -9, 9, 43, 
78, 48, -29, -63, 53, 9, -24, 9, -24, -24, 0, 29, 
58, 39, -19, -48, 39, 9, -14, 29, -29, -29, -14, 24, 
48, 19, -29, -34, 39, -4, -4, 39, -34, -39, -19, 9, 
34, 9, -24, -21, 29, -7, 4, 48, -39, -48, -29, 0, 
34, 4, -29, -19, 31, -12, 14, 48, -39, -53, -29, -9, 
19, -4, -24, -7, 21, -14, 24, 58, -43, -58, -34, -19, 
19, -4, -24, -7, 21, -14, 24, 58, -48, -63, -34, -19, 
4, -9, -14, 2, 9, -12, 29, 53, -48, -58, -34, -24, 
0, -19, -19, 9, 9, -19, 34, 48, -53, -53, -39, -24, 
0, -19, -19, 9, 9, -19, 34, 48, -53, -53, -39, -24, 
-4, -19, -14, 12, 4, -17, 39, 48, -53, -53, -39, -24, 
-4, -14, -9, 9, 2, -12, 34, 48, -53, -53, -39, -24, 
-4, -4, 0, 4, -2, -2, 29, 48, -53, -53, -39, -19, 
-4, -4, 0, 4, -2, -2, 29, 48, -53, -53, -39, -14, 
0, -4, -4, 2, 2, -4, 24, 48, -48, -53, -39, -14, 
0, -4, -4, 2, 2, -4, 24, 48, -43, -48, -34, 0, 
0, -4, -4, 2, 2, -4, 29, 48, -43, -48, -34, 4, 
0, -4, -4, 2, 2, -4, 24, 48, -43, -43, -34, 14, 
0, 4, 4, -2, -2, 4, 24, 48, -43, -34, -34, 14, 
0, 4, 4, -2, -2, 4, 24, 43, -43, -34, -29, 14, 
0, 4, 4, -2, -2, 4, 24, 43, -43, -29, -29, 14, 
0, 4, 4, -2, -2, 4, 24, 39, -39, -29, -24, 14, 
0, 4, 4, -2, -2, 4, 24, 39, -39, -29, -24, 14, 
0, 9, 9, -4, -4, 9, 19, 34, -39, -34, -24, 9, 
4, 14, 9, -9, -2, 12, 4, 34, -39, -34, -19, 4, 
9, 14, 4, -12, 2, 9, 4, 29, -34, -34, -14, 4, 
19, 14, -4, -17, 12, 4, 4, 24, -39, -29, -14, 4, 
19, 19, 0, -19, 9, 9, 4, 24, -39, -29, -14, 0, 
19, 29, 9, -24, 4, 19, 4, 24, -34, -19, -9, 0, 
24, 39, 14, -31, 4, 26, 4, 29, -24, -14, -4, 0, 
29, 53, 24, -41, 2, 39, 9, 24, -14, -9, 4, 0, 
29, 68, 39, -48, -4, 53, 14, 29, -4, 0, 9, 0, 
29, 87, 58, -58, -14, 73, 24, 34, 0, 14, 19, 4, 
34, 92, 58, -63, -12, 75, 19, 39, 4, 14, 24, 4, 
39, 97, 58, -68, -9, 78, 19, 48, 9, 19, 29, 9, 
53, 102, 48, -78, 2, 75, 4, 48, 19, 24, 29, 14, 
68, 107, 39, -87, 14, 73, -9, 48, 29, 29, 29, 19, 
73, 112, 39, -92, 17, 75, -14, 43, 29, 29, 34, 19, 
78, 117, 39, -97, 19, 78, -29, 24, 29, 29, 34, 24, 
82, 126, 43, -104, 19, 85, -43, 4, 29, 34, 39, 29, 
82, 131, 48, -107, 17, 90, -48, -29, 24, 34, 34, 29, 
82, 117, 34, -100, 24, 75, -58, -39, 9, 24, 29, 29, 
82, 112, 29, -97, 26, 70, -63, -39, 0, 19, 29, 29, 
82, 97, 14, -90, 34, 56, -63, -39, -14, 9, 19, 29, 
82, 87, 4, -85, 39, 46, -73, -39, -34, 0, 14, 29, 
73, 63, -9, -68, 41, 26, -73, -43, -43, -9, 9, 24, 
63, 43, -19, -53, 41, 12, -68, -48, -58, -24, 4, 14, 
63, 39, -24, -51, 43, 7, -58, -53, -58, -29, -4, 9, 
53, 24, -29, -39, 41, -2, -48, -53, -63, -39, -9, 4, 
53, 19, -34, -36, 43, -7, -48, -43, -63, -39, -9, 4, 
53, 19, -34, -36, 43, -7, -48, -43, -63, -34, -14, 4, 
39, 14, -24, -26, 31, -4, -39, -29, -63, -39, -19, 0, 
29, 14, -14, -21, 21, 0, -39, -24, -53, -39, -19, 0, 
24, 14, -9, -19, 17, 2, -29, -14, -58, -39, -19, -9, 
19, 9, -9, -14, 14, 0, -24, -9, -63, -39, -19, -24, 
4, 0, -4, -2, 4, -2, -14, -9, -63, -48, -29, -24, 
4, -4, -9, 0, 7, -7, -9, -9, -63, -48, -34, -34, 
4, -14, -19, 4, 12, -17, 0, -14, -68, -48, -39, -39, 
-4, -14, -9, 9, 2, -12, 0, -19, -68, -53, -39, -39, 
-4, -9, -4, 7, 0, -7, -4, -14, -68, -53, -34, -43, 
-4, -4, 0, 4, -2, -2, -4, -14, -68, -53, -34, -48, 
-4, -9, -4, 7, 0, -7, -4, -9, -68, -53, -34, -53, 
-4, -14, -9, 9, 2, -12, -4, -4, -68, -53, -39, -53, 
-9, -14, -4, 12, -2, -9, 0, 0, -63, -48, -39, -53, 
-14, -14, 0, 14, -7, -7, 4, 4, -58, -43, -39, -53, 
-14, -14, 0, 14, -7, -7, 4, 4, -58, -43, -34, -53, 
-19, -14, 4, 17, -12, -4, 4, 4, -58, -43, -34, -53, 
-19, -9, 9, 14, -14, 0, 4, 0, -58, -39, -34, -53, 
-19, -9, 9, 14, -14, 0, 4, -4, -58, -39, -34, -53, 
-19, -9, 9, 14, -14, 0, 4, -4, -53, -39, -34, -43, 
-19, -9, 9, 14, -14, 0, 4, -4, -53, -39, -34, -39, 
-14, 0, 14, 7, -14, 7, 0, -4, -53, -29, -29, -34, 
-14, 9, 24, 2, -19, 17, -4, -4, -53, -24, -19, -19, 
-24, 39, 63, -7, -43, 51, -4, -19, -34, -4, 0, 0, 
-43, 97, 141, -26, -92, 119, -4, -48, -14, 29, 34, 29, 
-73, 161, 234, -43, -153, 197, -19, -73, 39, 107, 102, 73, 
-87, 244, 331, -78, -209, 287, -29, -102, 117, 209, 200, 141, 
-78, 370, 448, -146, -263, 409, -48, -122, 229, 366, 336, 258, 
-19, 551, 570, -265, -295, 561, -87, -146, 419, 595, 551, 405, 
58, 649, 590, -353, -265, 619, -122, -151, 541, 761, 702, 512, 
165, 688, 522, -427, -178, 605, -136, -141, 624, 834, 771, 561, 
297, 570, 273, -434, 12, 422, -126, -48, 551, 722, 673, 502, 
414, 229, -185, -322, 300, 21, -78, 141, 229, 253, 283, 239, 
468, -414, -883, -26, 675, -649, 9, 390, -287, -463, -341, -165, 
517, -971, -1488, 226, 1002, -1229, 117, 585, -683, -985, -844, -570, 
522, -1234, -1756, 356, 1139, -1495, 200, 692, -883, -1229, -1102, -800, 
502, -1507, -2010, 502, 1256, -1759, 268, 854, -1034, -1439, -1332, -1010, 
439, -1742, -2181, 651, 1310, -1961, 346, 1005, -1190, -1644, -1537, -1185, 
395, -1864, -2259, 734, 1327, -2061, 385, 1000, -1322, -1742, -1629, -1273, 
312, -1888, -2200, 788, 1256, -2044, 419, 985, -1371, -1771, -1659, -1312, 
253, -1839, -2093, 793, 1173, -1966, 439, 980, -1317, -1703, -1600, -1283, 
190, -1737, -1927, 773, 1058, -1832, 439, 922, -1254, -1620, -1527, -1220, 
126, -1610, -1737, 741, 932, -1673, 444, 849, -1185, -1503, -1420, -1156, 
4, -1405, -1410, 700, 707, -1407, 453, 790, -1010, -1312, -1259, -1044, 
-112, -1185, -1073, 649, 480, -1129, 468, 756, -814, -1098, -1073, -902, 
-200, -1049, -849, 624, 324, -949, 512, 785, -673, -961, -941, -800, 
-253, -917, -663, 585, 204, -790, 585, 839, -527, -819, -810, -717, 
-307, -727, -419, 517, 56, -573, 653, 956, -336, -639, -653, -600, 
-346, -575, -229, 461, -58, -402, 702, 1029, -239, -502, -517, -478, 
-351, -536, -185, 444, -82, -361, 756, 1063, -209, -439, -453, -429, 
-375, -492, -117, 434, -129, -305, 810, 1063, -175, -385, -400, -390, 
-400, -409, -9, 405, -195, -209, 795, 1005, -126, -302, -322, -326, 
-400, -312, 87, 356, -244, -112, 751, 878, -87, -234, -253, -258, 
-390, -292, 97, 341, -244, -97, 707, 732, -78, -224, -234, -229, 
-370, -253, 117, 312, -244, -68, 629, 605, -78, -190, -195, -195, 
-317, -161, 156, 239, -236, -2, 531, 497, -73, -131, -131, -151, 
-283, -122, 161, 202, -222, 19, 473, 429, -63, -112, -107, -112, 
-234, -107, 126, 170, -180, 9, 390, 361, -53, -87, -87, -87, 
-180, -82, 97, 131, -139, 7, 312, 273, -53, -58, -63, -73, 
-126, -9, 117, 68, -122, 53, 214, 209, -34, -24, -24, -29, 
-78, 48, 126, 14, -102, 87, 122, 141, -19, 9, 9, 9, 
-29, 53, 82, -12, -56, 68, 58, 58, -9, 24, 24, 19, 
-4, 73, 78, -34, -41, 75, 9, -9, 0, 34, 34, 29, 
4, 97, 92, -51, -43, 95, -9, -19, 4, 48, 48, 48, 
24, 107, 82, -65, -29, 95, -24, -24, 0, 53, 53, 63, 
39, 107, 68, -73, -14, 87, -34, -48, 9, 53, 58, 63, 
39, 117, 78, -78, -19, 97, -43, -63, 9, 63, 63, 63, 
39, 126, 87, -82, -24, 107, -53, -73, 9, 63, 68, 73, 
39, 126, 87, -82, -24, 107, -58, -78, 9, 63, 73, 78, 
43, 131, 87, -87, -21, 109, -73, -92, 14, 73, 87, 82, 
48, 136, 87, -92, -19, 112, -78, -97, 14, 73, 92, 87, 
58, 146, 87, -102, -14, 117, -87, -102, 19, 78, 92, 107, 
68, 156, 87, -112, -9, 122, -97, -107, 19, 78, 92, 117, 
73, 161, 87, -117, -7, 124, -102, -112, 19, 82, 97, 117, 
73, 165, 92, -119, -9, 129, -107, -117, 19, 92, 107, 122, 
82, 170, 87, -126, -2, 129, -112, -122, 24, 92, 107, 131, 
87, 170, 82, -129, 2, 126, -112, -126, 24, 97, 107, 136, 
87, 175, 87, -131, 0, 131, -107, -131, 24, 97, 112, 141, 
87, 180, 92, -134, -2, 136, -112, -136, 24, 97, 112, 146, 
102, 190, 87, -146, 7, 139, -117, -141, 29, 107, 117, 141, 
102, 195, 92, -148, 4, 143, -122, -146, 29, 112, 122, 136, 
107, 204, 97, -156, 4, 151, -126, -151, 29, 117, 126, 146, 
112, 209, 97, -161, 7, 153, -126, -156, 29, 122, 131, 151, 
122, 219, 97, -170, 12, 158, -141, -161, 29, 126, 141, 156, 
122, 224, 102, -173, 9, 163, -146, -170, 34, 131, 146, 156, 
126, 239, 112, -183, 7, 175, -151, -180, 34, 136, 151, 156, 
131, 258, 126, -195, 2, 192, -161, -190, 34, 151, 165, 161, 
146, 273, 126, -209, 9, 200, -170, -200, 34, 161, 175, 161, 
156, 283, 126, -219, 14, 204, -180, -214, 39, 165, 185, 170, 
156, 292, 136, -224, 9, 214, -195, -229, 39, 180, 204, 180, 
180, 312, 131, -246, 24, 222, -204, -234, 43, 185, 219, 190, 
195, 317, 122, -256, 36, 219, -214, -253, 43, 195, 229, 200, 
214, 341, 126, -278, 43, 234, -224, -268, 48, 204, 239, 209, 
209, 351, 141, -280, 34, 246, -244, -283, 48, 214, 258, 224, 
214, 361, 146, -287, 34, 253, -258, -297, 48, 229, 268, 248, 
239, 375, 136, -307, 51, 256, -273, -312, 48, 239, 273, 253, 
248, 385, 136, -317, 56, 261, -287, -326, 48, 244, 278, 268, 
253, 395, 141, -324, 56, 268, -302, -351, 39, 244, 287, 273, 
287, 400, 112, -344, 87, 256, -326, -366, 34, 253, 292, 278, 
297, 419, 122, -358, 87, 270, -331, -380, 34, 258, 307, 287, 
302, 424, 122, -363, 90, 273, -341, -385, 34, 263, 312, 297, 
317, 439, 122, -378, 97, 280, -351, -395, 29, 268, 317, 302, 
326, 439, 112, -383, 107, 275, -361, -405, 24, 278, 322, 312, 
336, 444, 107, -390, 114, 275, -370, -409, 24, 273, 326, 317, 
341, 444, 102, -392, 119, 273, -370, -409, 19, 268, 326, 317, 
341, 439, 97, -390, 122, 268, -370, -405, 19, 268, 322, 317, 
341, 434, 92, -387, 124, 263, -370, -405, 14, 263, 317, 312, 
341, 419, 78, -380, 131, 248, -351, -395, 9, 239, 297, 302, 
341, 405, 63, -373, 139, 234, -341, -380, 4, 229, 283, 283, 
322, 375, 53, -348, 134, 214, -336, -370, 4, 219, 268, 263, 
317, 366, 48, -341, 134, 207, -322, -346, 4, 200, 244, 248, 
307, 341, 34, -324, 136, 187, -312, -322, 0, 185, 224, 234, 
292, 322, 29, -307, 131, 175, -302, -302, -4, 175, 204, 219, 
268, 312, 43, -290, 112, 178, -268, -273, -4, 156, 175, 195, 
248, 287, 39, -268, 104, 163, -253, -248, -4, 136, 151, 165, 
234, 268, 34, -251, 100, 151, -229, -214, -4, 122, 136, 151, 
209, 248, 39, -229, 85, 143, -214, -185, -4, 97, 117, 126, 
190, 224, 34, -207, 78, 129, -180, -165, -9, 87, 87, 102, 
161, 200, 39, -180, 61, 119, -156, -131, -9, 68, 68, 82, 
146, 185, 39, -165, 53, 112, -131, -102, -14, 53, 53, 68, 
126, 170, 43, -148, 41, 107, -112, -73, -19, 39, 43, 58, 
107, 156, 48, -131, 29, 102, -78, -53, -19, 24, 24, 39, 
97, 131, 34, -114, 31, 82, -53, -29, -19, 14, 14, 19, 
82, 117, 34, -100, 24, 75, -43, -14, -29, 0, 0, 4, 
68, 107, 39, -87, 14, 73, -34, -9, -34, -14, -9, -9, 
53, 97, 43, -75, 4, 70, -24, 4, -39, -19, -24, -9, 
48, 78, 29, -63, 9, 53, -14, 9, -43, -29, -29, -19, 
34, 73, 39, -53, -2, 56, 0, 19, -48, -34, -39, -24, 
34, 73, 39, -53, -2, 56, 14, 19, -48, -34, -39, -29, 
19, 63, 43, -41, -12, 53, 24, 29, -53, -39, -43, -39, 
19, 63, 43, -41, -12, 53, 24, 29, -58, -43, -43, -39, 
9, 58, 48, -34, -19, 53, 24, 29, -58, -43, -43, -43, 
9, 48, 39, -29, -14, 43, 24, 29, -63, -43, -48, -43, 
9, 48, 39, -29, -14, 43, 19, 24, -63, -43, -48, -43, 
4, 48, 43, -26, -19, 46, 19, 19, -63, -43, -48, -43, 
4, 48, 43, -26, -19, 46, 19, 19, -58, -43, -43, -43, 
4, 53, 48, -29, -21, 51, 19, 19, -53, -43, -39, -39, 
0, 53, 53, -26, -26, 53, 19, 19, -53, -43, -39, -39, 
0, 53, 53, -26, -26, 53, 14, 19, -48, -43, -39, -43, 
0, 53, 53, -26, -26, 53, 14, 19, -43, -39, -34, -34, 
0, 53, 53, -26, -26, 53, 19, 19, -43, -39, -34, -34, 
0, 53, 53, -26, -26, 53, 14, 19, -43, -34, -29, -24, 
0, 63, 63, -31, -31, 63, 14, 19, -43, -24, -24, -24, 
0, 63, 63, -31, -31, 63, 9, 14, -39, -24, -19, -19, 
0, 63, 63, -31, -31, 63, 4, 14, -34, -19, -19, -14, 
4, 58, 53, -31, -24, 56, 4, 14, -29, -19, -14, -14, 
9, 53, 43, -31, -17, 48, 4, 19, -29, -19, -14, -14, 
9, 53, 43, -31, -17, 48, 4, 14, -34, -19, -19, -9, 
14, 53, 39, -34, -12, 46, -4, 14, -39, -14, -19, -4, 
14, 58, 43, -36, -14, 51, -4, 9, -29, -14, -14, -4, 
19, 63, 43, -41, -12, 53, -4, 4, -29, -9, -14, -4, 
14, 63, 48, -39, -17, 56, -4, 4, -34, -14, -14, -9, 
9, 68, 58, -39, -24, 63, -4, 4, -34, -9, -9, -9, 
14, 73, 58, -43, -21, 65, -4, 9, -29, -4, -9, -9, 
14, 73, 58, -43, -21, 65, 0, 4, -29, 0, -9, -9, 
14, 87, 73, -51, -29, 80, 9, 4, -24, 0, 0, -9, 
9, 102, 92, -56, -41, 97, 14, 9, -9, 4, 4, 4, 
19, 107, 87, -63, -34, 97, 9, 14, 0, 14, 9, 4, 
29, 117, 87, -73, -29, 102, 9, 19, 9, 29, 19, 9, 
34, 122, 87, -78, -26, 104, 9, 29, 19, 29, 24, 9, 
39, 126, 87, -82, -24, 107, 9, 39, 29, 29, 29, 9, 
39, 126, 87, -82, -24, 107, -4, 39, 34, 34, 29, 14, 
48, 131, 82, -90, -17, 107, -9, 34, 34, 39, 34, 19, 
58, 141, 82, -100, -12, 112, -19, 29, 39, 43, 39, 24, 
63, 141, 78, -102, -7, 109, -34, -4, 39, 43, 43, 29, 
63, 141, 78, -102, -7, 109, -39, -39, 34, 43, 39, 24, 
63, 126, 63, -95, 0, 95, -48, -48, 19, 34, 29, 19, 
63, 122, 58, -92, 2, 90, -53, -48, 9, 29, 29, 19, 
63, 117, 53, -90, 4, 85, -53, -48, 4, 24, 19, 19, 
63, 117, 53, -90, 4, 85, -63, -48, 0, 19, 19, 24, 
63, 92, 29, -78, 17, 61, -63, -53, -14, 9, 14, 24, 
68, 73, 4, -70, 31, 39, -63, -58, -39, -4, 4, 14, 
73, 63, -9, -68, 41, 26, -63, -63, -43, -14, -4, 9, 
63, 43, -19, -53, 41, 12, -58, -63, -58, -29, -9, 4, 
58, 39, -19, -48, 39, 9, -58, -63, -63, -29, -9, 4, 
53, 39, -14, -46, 34, 12, -58, -73, -63, -29, -19, 0, 
39, 34, -4, -36, 21, 14, -43, -58, -63, -34, -24, -9, 
14, 29, 14, -21, 0, 21, -34, -53, -53, -29, -19, -9, 
-9, 24, 34, -7, -21, 29, -19, -43, -53, -29, -19, -14, 
-9, 19, 29, -4, -19, 24, -14, -39, -53, -24, -14, -24, 
-14, 9, 24, 2, -19, 17, -9, -39, -53, -29, -19, -24, 
-14, 4, 19, 4, -17, 12, -9, -34, -53, -29, -24, -34, 
-14, -4, 9, 9, -12, 2, 0, -29, -58, -29, -29, -39, 
-24, -9, 14, 17, -19, 2, 0, -29, -58, -34, -34, -43, 
-24, -14, 9, 19, -17, -2, 0, -24, -58, -34, -34, -48, 
-24, -14, 9, 19, -17, -2, 4, -24, -58, -39, -34, -48, 
-24, -19, 4, 21, -14, -7, 4, -24, -58, -43, -34, -53, 
-24, -24, 0, 24, -12, -12, 4, -24, -53, -43, -39, -53, 
-24, -24, 0, 24, -12, -12, 4, -24, -48, -43, -39, -53, 
-19, -24, -4, 21, -7, -14, 0, -19, -48, -43, -39, -48, 
-14, -24, -9, 19, -2, -17, -4, -14, -48, -43, -34, -43, 
-19, -24, -4, 21, -7, -14, -4, -14, -48, -43, -34, -43, 
-19, -19, 0, 19, -9, -9, -4, -14, -48, -39, -34, -43, 
-19, -19, 0, 19, -9, -9, -4, -14, -48, -39, -34, -43, 
-19, -19, 0, 19, -9, -9, -4, -14, -43, -39, -34, -39, 
-19, -19, 0, 19, -9, -9, -4, -14, -43, -39, -34, -39, 
-14, -14, 0, 14, -7, -7, -4, -14, -43, -34, -34, -39, 
-14, -9, 4, 12, -9, -2, -4, -9, -48, -39, -34, -34, 
-19, 4, 24, 7, -21, 14, -4, -14, -39, -34, -29, -34, 
-34, 48, 82, -7, -58, 65, -4, -39, -29, -14, -14, -19, 
-63, 107, 170, -21, -117, 139, -14, -63, 4, 39, 29, 14, 
-82, 185, 268, -51, -175, 226, -14, -92, 68, 117, 107, 68, 
-97, 283, 380, -92, -239, 331, -29, -117, 156, 248, 219, 165, 
-68, 439, 507, -185, -287, 473, -58, -151, 322, 458, 414, 297, 
0, 595, 595, -297, -297, 595, -97, -170, 483, 678, 614, 439, 
107, 732, 624, -419, -258, 678, -141, -185, 663, 868, 795, 561, 
229, 756, 527, -492, -148, 641, -170, -161, 722, 932, 858, 619, 
351, 580, 229, -466, 61, 405, -151, -24, 517, 649, 629, 473, 
439, -4, -444, -217, 441, -224, -58, 244, 19, -43, 29, 87, 
512, -639, -1151, 63, 832, -895, 58, 458, -463, -692, -575, -370, 
531, -990, -1522, 229, 1027, -1256, 146, 570, -736, -1024, -907, -644, 
522, -1288, -1810, 383, 1166, -1549, 229, 766, -897, -1254, -1161, -878, 
458, -1571, -2030, 556, 1244, -1800, 322, 971, -1073, -1507, -1415, -1093, 
424, -1756, -2181, 666, 1302, -1969, 366, 995, -1249, -1668, -1556, -1220, 
351, -1849, -2200, 749, 1276, -2025, 405, 1000, -1346, -1756, -1639, -1302, 
278, -1873, -2152, 797, 1215, -2013, 429, 1024, -1322, -1727, -1629, -1307, 
200, -1800, -2000, 800, 1100, -1900, 429, 990, -1268, -1649, -1566, -1259, 
156, -1688, -1844, 766, 1000, -1766, 429, 927, -1220, -1556, -1483, -1215, 
68, -1507, -1576, 719, 822, -1542, 429, 854, -1073, -1410, -1356, -1112, 
-48, -1302, -1254, 675, 602, -1278, 439, 780, -893, -1205, -1171, -971, 
-165, -1146, -980, 656, 407, -1063, 483, 785, -741, -1044, -1019, -868, 
-234, -1005, -771, 619, 268, -888, 556, 819, -595, -888, -878, -785, 
-287, -824, -536, 556, 124, -680, 624, 922, -405, -702, -722, -668, 
-331, -644, -312, 488, -9, -478, 673, 1029, -278, -551, -575, -536, 
-346, -566, -219, 456, -63, -392, 727, 1117, -219, -468, -492, -473, 
-390, -527, -136, 458, -126, -331, 800, 1151, -175, -405, -429, -429, 
-429, -458, -29, 444, -200, -244, 829, 1107, -126, -322, -351, -366, 
-429, -341, 87, 385, -258, -126, 814, 976, -82, -253, -283, -292, 
-429, -302, 126, 366, -278, -87, 775, 819, -68, -244, -263, -258, 
-414, -273, 141, 344, -278, -65, 697, 678, -63, -209, -224, -224, 
-356, -190, 165, 273, -261, -12, 600, 556, -53, -151, -161, -175, 
-322, -151, 170, 236, -246, 9, 536, 497, -43, -131, -136, -136, 
-273, -126, 146, 200, -209, 9, 448, 429, -34, -107, -112, -112, 
-219, -92, 126, 156, -173, 17, 370, 331, -34, -78, -82, -92, 
-165, -34, 131, 100, -148, 48, 283, 268, -19, -43, -43, -48, 
-117, 9, 126, 53, -122, 68, 190, 200, -9, -9, -9, -9, 
-63, 29, 92, 17, -78, 61, 97, 102, 0, 9, 9, 4, 
-24, 63, 87, -19, -56, 75, 24, 4, 9, 24, 24, 19, 
-4, 87, 92, -41, -48, 90, 0, -19, 19, 43, 43, 43, 
14, 97, 82, -56, -34, 90, -24, -24, 19, 58, 58, 63, 
29, 97, 68, -63, -19, 82, -48, -48, 29, 63, 68, 63, 
29, 112, 82, -70, -26, 97, -53, -58, 29, 73, 73, 63, 
34, 126, 92, -80, -29, 109, -53, -63, 29, 73, 78, 73, 
39, 126, 87, -82, -24, 107, -53, -68, 29, 73, 82, 82, 
43, 131, 87, -87, -21, 109, -58, -82, 34, 82, 92, 87, 
48, 131, 82, -90, -17, 107, -58, -87, 29, 82, 92, 87, 
53, 131, 78, -92, -12, 104, -63, -92, 29, 87, 92, 102, 
58, 136, 78, -97, -9, 107, -68, -102, 29, 87, 92, 107, 
63, 141, 78, -102, -7, 109, -73, -112, 29, 92, 97, 107, 
63, 146, 82, -104, -9, 114, -82, -117, 29, 102, 102, 112, 
73, 156, 82, -114, -4, 119, -92, -122, 34, 102, 102, 122, 
78, 161, 82, -119, -2, 122, -92, -126, 34, 107, 107, 126, 
78, 165, 87, -122, -4, 126, -92, -131, 34, 107, 112, 131, 
78, 170, 92, -124, -7, 131, -102, -136, 34, 107, 112, 141, 
92, 175, 82, -134, 4, 129, -107, -141, 39, 117, 117, 146, 
92, 175, 82, -134, 4, 129, -112, -146, 43, 122, 126, 151, 
97, 185, 87, -141, 4, 136, -117, -151, 48, 126, 136, 165, 
102, 190, 87, -146, 7, 139, -117, -156, 48, 131, 141, 170, 
112, 200, 87, -156, 12, 143, -131, -161, 48, 136, 151, 175, 
117, 204, 87, -161, 14, 146, -141, -170, 53, 136, 151, 175, 
126, 214, 87, -170, 19, 151, -151, -180, 53, 136, 151, 180, 
131, 229, 97, -180, 17, 163, -161, -185, 53, 151, 165, 190, 
146, 244, 97, -195, 24, 170, -170, -190, 53, 161, 175, 195, 
156, 248, 92, -202, 31, 170, -175, -204, 58, 165, 185, 204, 
156, 253, 97, -204, 29, 175, -185, -219, 58, 180, 200, 209, 
180, 273, 92, -226, 43, 183, -195, -224, 63, 185, 209, 214, 
185, 278, 92, -231, 46, 185, -204, -244, 63, 195, 219, 219, 
195, 302, 107, -248, 43, 204, -209, -258, 68, 204, 229, 229, 
204, 312, 107, -258, 48, 209, -224, -273, 68, 214, 248, 244, 
224, 322, 97, -273, 63, 209, -239, -292, 68, 229, 258, 263, 
248, 341, 92, -295, 78, 217, -248, -312, 68, 239, 268, 263, 
258, 356, 97, -307, 80, 226, -263, -326, 68, 244, 273, 278, 
258, 366, 107, -312, 75, 236, -283, -346, 63, 244, 278, 283, 
287, 370, 82, -329, 102, 226, -307, -351, 63, 253, 278, 287, 
297, 385, 87, -341, 104, 236, -312, -361, 63, 258, 287, 297, 
302, 385, 82, -344, 109, 234, -322, -366, 58, 263, 292, 302, 
317, 400, 82, -358, 117, 241, -331, -375, 53, 268, 297, 302, 
326, 400, 73, -363, 126, 236, -346, -390, 53, 278, 307, 307, 
336, 405, 68, -370, 134, 236, -361, -400, 58, 278, 317, 307, 
341, 400, 58, -370, 141, 229, -361, -400, 58, 278, 317, 307, 
346, 390, 43, -368, 151, 217, -361, -395, 58, 278, 312, 307, 
351, 385, 34, -368, 158, 209, -361, -395, 53, 273, 312, 307, 
351, 370, 19, -361, 165, 195, -351, -385, 48, 248, 297, 302, 
361, 370, 9, -366, 175, 190, -351, -370, 43, 244, 287, 287, 
351, 356, 4, -353, 173, 180, -346, -361, 39, 239, 278, 273, 
336, 346, 9, -341, 163, 178, -331, -346, 39, 224, 253, 258, 
317, 322, 4, -319, 156, 163, -312, -331, 39, 209, 234, 244, 
302, 297, -4, -300, 153, 146, -292, -312, 34, 195, 219, 234, 
273, 278, 4, -275, 134, 141, -258, -283, 29, 175, 195, 214, 
253, 248, -4, -251, 129, 122, -244, -258, 24, 156, 170, 190, 
244, 229, -14, -236, 129, 107, -219, -224, 24, 141, 156, 185, 
219, 209, -9, -214, 114, 100, -200, -190, 24, 117, 136, 165, 
200, 185, -14, -192, 107, 85, -161, -165, 19, 107, 107, 141, 
170, 161, -9, -165, 90, 75, -136, -131, 19, 92, 87, 117, 
156, 141, -14, -148, 85, 63, -112, -102, 19, 82, 73, 97, 
136, 117, -19, -126, 78, 48, -102, -73, 19, 68, 63, 87, 
117, 97, -19, -107, 68, 39, -87, -53, 19, 53, 43, 68, 
102, 73, -29, -87, 65, 21, -63, -19, 19, 43, 34, 48, 
82, 58, -24, -70, 53, 17, -34, 9, 9, 29, 19, 34, 
68, 48, -19, -58, 43, 14, -14, 19, 4, 14, 9, 9, 
53, 39, -14, -46, 34, 12, -4, 34, 0, 9, -4, 0, 
43, 14, -29, -29, 36, -7, 4, 39, -4, -4, -9, -9, 
24, 4, -19, -14, 21, -7, 14, 48, -9, -14, -19, -19, 
24, 4, -19, -14, 21, -7, 24, 48, -9, -14, -19, -24, 
9, -4, -14, -2, 12, -9, 34, 58, -14, -19, -24, -29, 
9, -9, -19, 0, 14, -14, 34, 58, -19, -24, -24, -29, 
0, -19, -19, 9, 9, -19, 34, 58, -19, -24, -24, -34, 
0, -29, -29, 14, 14, -29, 34, 58, -24, -24, -34, -34, 
0, -29, -29, 14, 14, -29, 34, 58, -24, -24, -39, -34, 
-4, -29, -24, 17, 9, -26, 39, 58, -24, -24, -39, -34, 
-4, -29, -24, 17, 9, -26, 39, 58, -24, -24, -39, -34, 
-4, -24, -19, 14, 7, -21, 43, 58, -24, -24, -34, -29, 
-4, -24, -19, 14, 7, -21, 48, 58, -24, -24, -29, -24, 
0, -29, -29, 14, 14, -29, 48, 58, -19, -24, -29, -24, 
0, -29, -29, 14, 14, -29, 48, 58, -14, -19, -24, -14, 
0, -24, -24, 12, 12, -24, 48, 58, -14, -24, -29, -14, 
0, -24, -24, 12, 12, -24, 43, 58, -14, -24, -29, -4, 
0, -14, -14, 7, 7, -14, 43, 58, -14, -14, -24, -4, 
0, -14, -14, 7, 7, -14, 43, 53, -14, -14, -19, -4, 
0, -9, -9, 4, 4, -9, 43, 53, -14, -4, -19, 0, 
4, -4, -9, 0, 7, -7, 43, 48, -9, 0, -14, 4, 
14, -4, -19, -4, 17, -12, 43, 48, -9, 0, -14, 4, 
19, 0, -19, -9, 19, -9, 43, 43, -9, 0, -14, 4, 
24, -4, -29, -9, 26, -17, 29, 43, -14, 0, -9, 4, 
24, -4, -29, -9, 26, -17, 24, 43, -9, -4, -4, 4, 
24, -4, -29, -9, 26, -17, 24, 39, -9, 0, -4, 4, 
19, -9, -29, -4, 24, -19, 24, 34, -9, 0, -4, 0, 
19, 0, -19, -9, 19, -9, 24, 29, -9, 4, -4, 0, 
24, 4, -19, -14, 21, -7, 24, 34, -4, 4, -4, 0, 
24, -4, -29, -9, 26, -17, 29, 34, -4, 9, -4, -4, 
34, 0, -34, -17, 34, -17, 29, 34, -4, 9, 0, -9, 
39, 9, -29, -24, 34, -9, 24, 34, 4, 14, 4, 0, 
43, 24, -19, -34, 31, 2, 24, 39, 14, 19, 9, 4, 
48, 43, -4, -46, 26, 19, 34, 43, 24, 29, 19, 9, 
53, 68, 14, -61, 19, 41, 43, 53, 34, 39, 29, 19, 
53, 68, 14, -61, 19, 41, 39, 58, 34, 43, 34, 19, 
58, 68, 9, -63, 24, 39, 39, 68, 39, 48, 39, 19, 
63, 78, 14, -70, 24, 46, 29, 68, 48, 48, 39, 19, 
68, 87, 19, -78, 24, 53, 19, 68, 58, 48, 39, 19, 
78, 92, 14, -85, 31, 53, 0, 63, 58, 48, 43, 19, 
82, 92, 9, -87, 36, 51, -14, 43, 53, 48, 43, 24, 
92, 97, 4, -95, 43, 51, -34, 24, 53, 53, 48, 29, 
92, 92, 0, -92, 46, 46, -29, -9, 43, 53, 43, 29, 
92, 78, -14, -85, 53, 31, -34, -19, 29, 43, 39, 29, 
92, 73, -19, -82, 56, 26, -34, -19, 19, 39, 39, 29, 
87, 63, -24, -75, 56, 19, -34, -19, 14, 29, 29, 29, 
82, 58, -24, -70, 53, 17, -43, -19, 4, 19, 24, 29, 
82, 34, -48, -58, 65, -7, -43, -24, -14, 9, 19, 24, 
82, 14, -68, -48, 75, -26, -39, -29, -39, -4, 14, 14, 
87, 4, -82, -46, 85, -39, -34, -34, -39, -14, 4, 9, 
82, -14, -97, -34, 90, -56, -29, -34, -43, -29, 0, 4, 
78, -19, -97, -29, 87, -58, -24, -34, -43, -29, 0, 4, 
73, -19, -92, -26, 82, -56, -19, -43, -43, -24, -4, 4, 
58, -24, -82, -17, 70, -53, -4, -29, -43, -19, -4, 0, 
48, -24, -73, -12, 61, -48, 0, -24, -34, -9, 0, 0, 
29, -24, -53, -2, 41, -39, 4, -14, -34, -9, 0, -4, 
9, -29, -39, 9, 24, -34, 4, -9, -34, -9, 0, -14, 
-4, -39, -34, 21, 14, -36, 9, -4, -34, -19, -9, -14, 
-4, -43, -39, 24, 17, -41, 9, 0, -34, -19, -14, -24, 
0, -53, -53, 26, 26, -53, 19, 0, -39, -19, -19, -29, 
-4, -53, -48, 29, 21, -51, 19, 0, -39, -24, -19, -29, 
-4, -53, -48, 29, 21, -51, 19, 4, -39, -24, -14, -29, 
-4, -53, -48, 29, 21, -51, 24, 4, -39, -24, -14, -29, 
-4, -58, -53, 31, 24, -56, 24, 9, -39, -24, -14, -34, 
-4, -63, -58, 34, 26, -61, 24, 14, -39, -24, -19, -34, 
-4, -63, -58, 34, 26, -61, 24, 14, -39, -24, -24, -34, 
-4, -63, -58, 34, 26, -61, 24, 14, -39, -24, -29, -34, 
-4, -63, -58, 34, 26, -61, 29, 14, -39, -24, -24, -34, 
-9, -63, -53, 36, 21, -58, 34, 14, -39, -24, -24, -34, 
-9, -58, -48, 34, 19, -53, 34, 14, -39, -19, -24, -39, 
-9, -58, -48, 34, 19, -53, 34, 14, -39, -19, -24, -43, 
-9, -58, -48, 34, 19, -53, 34, 14, -34, -19, -24, -39, 
-9, -58, -48, 34, 19, -53, 34, 14, -34, -19, -24, -39, 
-4, -53, -48, 29, 21, -51, 34, 9, -34, -14, -19, -39, 
-4, -48, -43, 26, 19, -46, 34, 4, -34, -14, -9, -29, 
-9, -34, -24, 21, 7, -29, 34, -4, -14, 0, 0, -24, 
-24, 9, 34, 7, -29, 21, 34, -29, 4, 29, 24, -9, 
-53, 68, 122, -7, -87, 95, 24, -53, 48, 87, 78, 29, 
-68, 146, 214, -39, -141, 180, 19, -82, 117, 170, 161, 92, 
-68, 253, 322, -92, -195, 287, 0, -117, 209, 307, 273, 195, 
-19, 414, 434, -197, -226, 424, -39, -156, 380, 517, 463, 326, 
58, 566, 507, -312, -224, 536, -87, -156, 541, 732, 663, 468, 
165, 658, 492, -412, -163, 575, -117, -141, 663, 854, 780, 551, 
297, 634, 336, -466, -19, 485, -131, -92, 663, 854, 780, 561, 
414, 385, -29, -400, 222, 178, -107, 53, 414, 497, 488, 366, 
488, -268, -756, -109, 622, -512, -9, 336, -126, -244, -151, -43, 
556, -834, -1390, 139, 973, -1112, 107, 566, -546, -790, -668, -453, 
566, -1107, -1673, 270, 1119, -1390, 195, 692, -756, -1044, -932, -692, 
551, -1390, -1942, 419, 1246, -1666, 268, 873, -917, -1263, -1166, -912, 
478, -1659, -2137, 590, 1307, -1898, 361, 1049, -1093, -1507, -1405, -1112, 
424, -1815, -2239, 695, 1332, -2027, 414, 1068, -1244, -1644, -1532, -1224, 
341, -1888, -2230, 773, 1285, -2059, 453, 1088, -1312, -1703, -1595, -1288, 
283, -1888, -2171, 802, 1227, -2030, 478, 1117, -1278, -1664, -1571, -1283, 
214, -1795, -2010, 790, 1112, -1903, 483, 1068, -1220, -1581, -1498, -1229, 
146, -1678, -1825, 766, 985, -1751, 492, 1005, -1156, -1464, -1390, -1176, 
39, -1493, -1532, 727, 785, -1512, 497, 932, -1000, -1293, -1239, -1063, 
-63, -1293, -1229, 678, 583, -1261, 507, 883, -824, -1098, -1063, -922, 
-175, -1146, -971, 661, 397, -1058, 561, 907, -678, -951, -922, -819, 
-253, -1005, -751, 629, 248, -878, 644, 956, -527, -800, -780, -736, 
-307, -829, -522, 568, 107, -675, 712, 1068, -336, -629, -644, -619, 
-346, -692, -346, 519, 0, -519, 761, 1137, -239, -502, -527, -497, 
-370, -644, -273, 507, -48, -458, 814, 1176, -204, -434, -458, -444, 
-414, -590, -175, 502, -119, -383, 868, 1180, -165, -375, -400, -400, 
-439, -507, -68, 473, -185, -287, 878, 1102, -117, -292, -322, -336, 
-439, -409, 29, 424, -234, -190, 858, 956, -78, -224, -253, -268, 
-424, -385, 39, 405, -231, -173, 805, 810, -68, -214, -229, -239, 
-400, -341, 58, 370, -229, -141, 717, 683, -68, -180, -185, -204, 
-336, -248, 87, 292, -212, -80, 619, 580, -58, -117, -122, -156, 
-292, -209, 82, 251, -187, -63, 561, 517, -43, -92, -97, -112, 
-239, -185, 53, 212, -146, -65, 468, 439, -29, -68, -73, -78, 
-180, -151, 29, 165, -104, -61, 380, 341, -24, -39, -43, -53, 
-126, -92, 34, 109, -80, -29, 287, 273, -9, -4, -4, -9, 
-78, -48, 29, 63, -53, -9, 200, 200, 0, 29, 29, 29, 
-24, -29, -4, 26, -9, -17, 117, 102, 9, 43, 43, 39, 
4, 4, 0, -4, 2, 2, 48, 19, 19, 53, 53, 48, 
9, 24, 14, -17, -2, 19, 29, 9, 29, 73, 73, 73, 
24, 29, 4, -26, 9, 17, 14, 4, 29, 82, 82, 92, 
39, 29, -9, -34, 24, 9, 0, -19, 39, 82, 87, 92, 
39, 39, 0, -39, 19, 19, -14, -34, 39, 92, 92, 92, 
43, 48, 4, -46, 19, 26, -19, -39, 39, 97, 97, 102, 
48, 48, 0, -48, 24, 24, -19, -39, 39, 102, 102, 107, 
53, 53, 0, -53, 26, 26, -29, -53, 43, 112, 117, 107, 
58, 58, 0, -58, 29, 29, -29, -58, 43, 112, 122, 107, 
68, 63, -4, -65, 36, 29, -34, -63, 48, 112, 122, 117, 
78, 68, -9, -73, 43, 29, -39, -68, 48, 107, 122, 117, 
82, 68, -14, -75, 48, 26, -43, -73, 48, 112, 122, 112, 
82, 68, -14, -75, 48, 26, -48, -78, 48, 122, 126, 112, 
87, 78, -9, -82, 48, 34, -58, -82, 53, 122, 131, 117, 
87, 82, -4, -85, 46, 39, -63, -87, 53, 126, 136, 117, 
87, 87, 0, -87, 43, 43, -63, -92, 53, 126, 141, 122, 
87, 92, 4, -90, 41, 48, -73, -97, 53, 126, 141, 126, 
102, 97, -4, -100, 53, 46, -78, -102, 58, 141, 151, 126, 
102, 97, -4, -100, 53, 46, -82, -107, 58, 151, 161, 126, 
107, 107, 0, -107, 53, 53, -87, -117, 58, 156, 165, 136, 
112, 112, 0, -112, 56, 56, -87, -126, 58, 161, 170, 141, 
122, 122, 0, -122, 61, 61, -102, -131, 58, 165, 180, 146, 
122, 126, 4, -124, 58, 65, -107, -141, 63, 170, 185, 146, 
131, 136, 4, -134, 63, 70, -112, -146, 68, 170, 190, 151, 
141, 151, 9, -146, 65, 80, -122, -151, 73, 180, 204, 161, 
156, 165, 9, -161, 73, 87, -131, -161, 73, 190, 209, 165, 
165, 175, 9, -170, 78, 92, -141, -175, 78, 195, 214, 180, 
170, 185, 14, -178, 78, 100, -156, -190, 73, 214, 229, 195, 
200, 204, 4, -202, 97, 104, -165, -195, 73, 224, 239, 209, 
204, 209, 4, -207, 100, 107, -175, -214, 73, 234, 248, 219, 
214, 234, 19, -224, 97, 126, -185, -229, 78, 244, 258, 229, 
224, 244, 19, -234, 102, 131, -204, -244, 78, 248, 278, 234, 
244, 253, 9, -248, 117, 131, -219, -258, 78, 258, 287, 248, 
263, 263, 0, -263, 131, 131, -229, -273, 78, 268, 292, 253, 
268, 268, 0, -268, 134, 134, -239, -287, 78, 273, 297, 268, 
268, 278, 9, -273, 129, 143, -253, -307, 73, 273, 307, 273, 
297, 283, -14, -290, 156, 134, -278, -317, 73, 283, 312, 278, 
307, 297, -9, -302, 158, 143, -278, -326, 73, 287, 326, 287, 
312, 297, -14, -305, 163, 141, -283, -326, 73, 292, 331, 297, 
336, 312, -24, -324, 180, 143, -292, -331, 73, 297, 336, 302, 
356, 312, -43, -334, 200, 134, -302, -336, 73, 307, 341, 312, 
366, 317, -48, -341, 207, 134, -312, -341, 78, 307, 346, 317, 
370, 317, -53, -344, 212, 131, -312, -341, 78, 307, 346, 317, 
370, 312, -58, -341, 214, 126, -312, -336, 78, 312, 341, 317, 
370, 307, -63, -339, 217, 122, -312, -336, 73, 312, 336, 312, 
370, 292, -78, -331, 224, 107, -302, -326, 68, 287, 317, 307, 
370, 278, -92, -324, 231, 92, -302, -312, 63, 278, 302, 292, 
351, 253, -97, -302, 224, 78, -297, -302, 63, 273, 297, 273, 
346, 248, -97, -297, 222, 75, -283, -278, 63, 258, 283, 258, 
341, 224, -117, -283, 229, 53, -263, -253, 58, 239, 268, 244, 
331, 204, -126, -268, 229, 39, -244, -234, 53, 224, 253, 229, 
302, 190, -112, -246, 207, 39, -209, -204, 53, 209, 224, 209, 
278, 161, -117, -219, 197, 21, -195, -180, 53, 195, 200, 185, 
263, 136, -126, -200, 195, 4, -175, -146, 53, 180, 190, 175, 
239, 112, -126, -175, 183, -7, -165, -117, 53, 156, 175, 156, 
219, 87, -131, -153, 175, -21, -131, -97, 48, 146, 146, 131, 
190, 63, -126, -126, 158, -31, -107, -63, 48, 126, 126, 112, 
170, 43, -126, -107, 148, -41, -68, -34, 48, 112, 112, 92, 
146, 24, -122, -85, 134, -48, -34, -4, 48, 97, 102, 78, 
126, 9, -117, -68, 122, -53, -19, 14, 43, 82, 82, 58, 
117, -14, -131, -51, 124, -73, -14, 39, 39, 73, 73, 39, 
102, -29, -131, -36, 117, -80, 4, 58, 29, 58, 58, 24, 
87, -39, -126, -24, 107, -82, 24, 68, 24, 43, 48, 9, 
73, -43, -117, -14, 95, -80, 34, 82, 19, 39, 29, 9, 
68, -58, -126, -4, 97, -92, 43, 87, 14, 29, 19, 0, 
53, -63, -117, 4, 85, -90, 53, 97, 4, 19, 9, -9, 
53, -63, -117, 4, 85, -90, 63, 97, 0, 14, 9, -19, 
39, -73, -112, 17, 75, -92, 73, 107, -4, 9, 4, -29, 
39, -73, -112, 17, 75, -92, 73, 107, -9, 4, 4, -29, 
29, -73, -102, 21, 65, -87, 73, 107, -9, 4, 4, -34, 
29, -78, -107, 24, 68, -92, 73, 107, -14, 4, 0, -34, 
29, -78, -107, 24, 68, -92, 73, 107, -14, 0, -4, -29, 
24, -78, -102, 26, 63, -90, 78, 107, -14, -4, -9, -24, 
24, -78, -102, 26, 63, -90, 78, 107, -14, -4, -9, -24, 
24, -73, -97, 24, 61, -85, 78, 107, -14, -4, -9, -19, 
24, -73, -97, 24, 61, -85, 78, 102, -14, -4, -9, -14, 
29, -73, -102, 21, 65, -87, 73, 97, -9, -4, -9, -14, 
29, -68, -97, 19, 63, -82, 68, 97, -4, 0, -4, -4, 
29, -63, -92, 17, 61, -78, 68, 97, -4, 0, -4, -4, 
24, -68, -92, 21, 58, -80, 63, 97, -4, 0, 0, 4, 
19, -63, -82, 21, 51, -73, 63, 97, -4, 4, 4, 4, 
19, -63, -82, 21, 51, -73, 63, 92, -4, 4, 9, 0, 
19, -63, -82, 21, 51, -73, 63, 92, -4, 9, 9, -4, 
24, -53, -78, 14, 51, -65, 63, 92, 0, 9, 14, -4, 
29, -43, -73, 7, 51, -58, 63, 97, 0, 9, 14, -4, 
29, -48, -78, 9, 53, -63, 63, 92, 0, 9, 14, -4, 
34, -53, -87, 9, 61, -70, 53, 92, 0, 14, 19, -4, 
24, -48, -73, 12, 48, -61, 53, 87, 9, 14, 19, -4, 
19, -43, -63, 12, 41, -53, 53, 82, 9, 19, 14, -4, 
19, -48, -68, 14, 43, -58, 53, 82, 4, 14, 14, -9, 
19, -48, -68, 14, 43, -58, 53, 82, 4, 19, 19, -9, 
24, -43, -68, 9, 46, -56, 53, 92, 9, 19, 14, -9, 
24, -43, -68, 9, 46, -56, 58, 92, 9, 19, 9, -9, 
29, -29, -58, 0, 43, -43, 63, 92, 14, 19, 19, -14, 
29, -14, -43, -7, 36, -29, 63, 97, 29, 24, 24, -4, 
29, 0, -29, -14, 29, -14, 63, 97, 34, 34, 29, 0, 
34, 9, -24, -21, 29, -7, 63, 102, 43, 48, 39, 0, 
34, 19, -14, -26, 24, 2, 58, 107, 48, 53, 43, 4, 
39, 29, -9, -34, 24, 9, 58, 117, 58, 58, 48, 9, 
53, 39, -14, -46, 34, 12, 58, 117, 63, 58, 48, 14, 
68, 48, -19, -58, 43, 14, 58, 117, 68, 58, 48, 19, 
73, 43, -29, -58, 51, 7, 43, 112, 68, 58, 53, 19, 
73, 43, -29, -58, 51, 7, 24, 92, 63, 58, 53, 19, 
73, 43, -29, -58, 51, 7, 4, 73, 63, 58, 58, 24, 
63, 43, -19, -53, 41, 12, 0, 39, 53, 53, 53, 19, 
58, 24, -34, -41, 46, -4, -9, 29, 39, 43, 48, 19, 
53, 14, -39, -34, 46, -12, -14, 29, 29, 39, 48, 19, 
53, 9, -43, -31, 48, -17, -9, 29, 24, 34, 39, 24, 
53, 9, -43, -31, 48, -17, -14, 29, 14, 29, 34, 29, 
53, -9, -63, -21, 58, -36, -14, 24, 0, 19, 24, 24, 
53, -24, -78, -14, 65, -51, -9, 19, -19, 4, 14, 14, 
53, -34, -87, -9, 70, -61, -4, 14, -24, -4, 4, 9, 
43, -53, -97, 4, 70, -75, 0, 14, -34, -19, 0, 4, 
34, -58, -92, 12, 63, -75, 0, 14, -34, -19, 0, 4, 
24, -58, -82, 17, 53, -70, 0, 4, -34, -14, -4, 4, 
9, -63, -73, 26, 41, -68, 9, 19, -34, -14, -4, 4, 
0, -63, -63, 31, 31, -63, 9, 24, -24, -9, 0, 9, 
-14, -63, -48, 39, 17, -56, 19, 34, -24, -9, 0, 4, 
-29, -68, -39, 48, 4, -53, 24, 39, -24, -9, 0, -4, 
-43, -82, -39, 63, -2, -61, 34, 39, -29, -19, -9, -9, 
-43, -92, -48, 68, 2, -70, 39, 39, -34, -19, -14, -24, 
-39, -102, -63, 70, 12, -82, 48, 39, -39, -19, -24, -29, 
-43, -102, -58, 73, 7, -80, 48, 39, -39, -24, -29, -29, 
-43, -102, -58, 73, 7, -80, 48, 43, -34, -24, -24, -29, 
-43, -102, -58, 73, 7, -80, 53, 43, -29, -24, -24, -29, 
-53, -107, -53, 80, 0, -80, 53, 43, -29, -24, -24, -34, 
-63, -112, -48, 87, -7, -80, 53, 43, -29, -24, -29, -34, 
-63, -112, -48, 87, -7, -80, 53, 43, -29, -24, -29, -34, 
-63, -112, -48, 87, -7, -80, 53, 43, -29, -24, -29, -34, 
-58, -112, -53, 85, -2, -82, 48, 43, -34, -24, -24, -34, 
-58, -112, -53, 85, -2, -82, 43, 43, -39, -24, -24, -34, 
-53, -107, -53, 80, 0, -80, 43, 43, -39, -19, -24, -34, 
-48, -107, -58, 78, 4, -82, 43, 43, -39, -19, -24, -34, 
-48, -107, -58, 78, 4, -82, 48, 43, -34, -19, -24, -29, 
-48, -107, -58, 78, 4, -82, 53, 43, -34, -19, -24, -29, 
-48, -102, -53, 75, 2, -78, 58, 43, -34, -14, -24, -29, 
-53, -97, -43, 75, -4, -70, 63, 43, -34, -14, -19, -19, 
-58, -82, -24, 70, -17, -53, 63, 29, -19, -4, -9, -14, 
-73, -39, 34, 56, -53, -2, 63, 0, -4, 19, 14, 0, 
-102, 19, 122, 41, -112, 70, 48, -34, 34, 73, 63, 29, 
-117, 97, 214, 9, -165, 156, 39, -73, 97, 151, 141, 82, 
-126, 195, 322, -34, -224, 258, 19, -97, 190, 283, 253, 180, 
-87, 346, 434, -129, -261, 390, -19, -126, 361, 488, 444, 307, 
0, 497, 497, -248, -248, 497, -68, -141, 522, 697, 634, 439, 
117, 590, 473, -353, -178, 531, -97, -141, 644, 814, 741, 512, 
239, 570, 331, -405, -46, 451, -112, -87, 644, 814, 741, 522, 
346, 326, -19, -336, 183, 153, -87, 63, 395, 458, 448, 326, 
419, -312, -732, -53, 575, -522, 9, 336, -136, -263, -170, -73, 
488, -863, -1351, 187, 919, -1107, 126, 556, -546, -790, -668, -473, 
497, -1132, -1629, 317, 1063, -1381, 224, 697, -756, -1044, -932, -702, 
483, -1410, -1893, 463, 1188, -1651, 307, 893, -917, -1263, -1166, -912, 
414, -1683, -2098, 634, 1256, -1891, 390, 1068, -1093, -1503, -1405, -1112, 
366, -1844, -2210, 739, 1288, -2027, 434, 1088, -1244, -1634, -1532, -1224, 
283, -1903, -2186, 810, 1234, -2044, 473, 1107, -1307, -1688, -1590, -1283, 
224, -1888, -2113, 832, 1168, -2000, 497, 1137, -1268, -1644, -1561, -1273, 
156, -1810, -1966, 827, 1061, -1888, 497, 1093, -1210, -1561, -1488, -1215, 
87, -1708, -1795, 810, 941, -1751, 502, 1034, -1146, -1444, -1381, -1156, 
-19, -1517, -1498, 768, 739, -1507, 522, 961, -990, -1283, -1234, -1044, 
-122, -1312, -1190, 717, 534, -1251, 546, 912, -814, -1098, -1063, -902, 
-224, -1171, -946, 697, 361, -1058, 605, 941, -668, -946, -927, -800, 
-292, -1034, -741, 663, 224, -888, 692, 995, -517, -790, -790, -717, 
-346, -854, -507, 600, 80, -680, 771, 1117, -326, -619, -644, -610, 
-385, -712, -326, 549, -29, -519, 829, 1195, -229, -492, -517, -497, 
-419, -673, -253, 546, -82, -463, 873, 1205, -200, -434, -458, -448, 
-473, -629, -156, 551, -158, -392, 917, 1180, -165, -385, -409, -409, 
-497, -546, -48, 522, -224, -297, 907, 1083, -117, -302, -331, -351, 
-497, -448, 48, 473, -273, -200, 868, 917, -78, -234, -263, -287, 
-468, -424, 43, 446, -256, -190, 805, 790, -63, -224, -244, -258, 
-429, -380, 48, 405, -239, -165, 707, 683, -58, -190, -204, -224, 
-366, -287, 78, 326, -222, -104, 600, 575, -53, -126, -141, -175, 
-322, -248, 73, 285, -197, -87, 531, 507, -43, -102, -117, -131, 
-268, -224, 43, 246, -156, -90, 444, 424, -34, -78, -92, -102, 
-209, -190, 19, 200, -114, -85, 361, 322, -34, -48, -63, -82, 
-156, -131, 24, 143, -90, -53, 273, 248, -19, -29, -29, -43, 
-107, -87, 19, 97, -63, -34, 190, 170, -9, -9, 0, -9, 
-58, -73, -14, 65, -21, -43, 112, 97, 0, 9, 19, 0, 
-34, -43, -9, 39, -12, -26, 48, 39, 9, 24, 34, 9, 
-24, -19, 4, 21, -14, -7, 34, 29, 14, 43, 48, 34, 
-4, -9, -4, 7, 0, -7, 24, 24, 9, 53, 53, 53, 
9, -19, -29, 4, 19, -24, 14, 0, 19, 48, 53, 53, 
9, -19, -29, 4, 19, -24, 4, -14, 19, 53, 53, 53, 
9, -9, -19, 0, 14, -14, 4, -24, 14, 53, 53, 58, 
9, -9, -19, 0, 14, -14, 9, -29, 9, 53, 53, 58, 
14, -4, -19, -4, 17, -12, 0, -39, 9, 58, 63, 53, 
19, 0, -19, -9, 19, -9, 0, -39, 4, 53, 63, 48, 
24, 0, -24, -12, 24, -12, -9, -43, 9, 58, 63, 58, 
29, 0, -29, -14, 29, -14, -19, -48, 9, 58, 63, 58, 
34, 4, -29, -19, 31, -12, -29, -58, 9, 63, 68, 53, 
34, 9, -24, -21, 29, -7, -39, -68, 9, 73, 78, 53, 
43, 14, -29, -29, 36, -7, -43, -73, 9, 73, 78, 53, 
48, 14, -34, -31, 41, -9, -43, -78, 4, 78, 78, 48, 
48, 19, -29, -34, 39, -4, -43, -82, 4, 78, 82, 48, 
48, 24, -24, -36, 36, 0, -53, -87, 4, 78, 82, 48, 
63, 29, -34, -46, 48, -2, -58, -92, 9, 82, 87, 48, 
63, 29, -34, -46, 48, -2, -63, -97, 9, 82, 92, 48, 
68, 39, -29, -53, 48, 4, -68, -102, 9, 82, 92, 58, 
73, 43, -29, -58, 51, 7, -68, -107, 9, 82, 92, 63, 
82, 53, -29, -68, 56, 12, -78, -107, 9, 87, 102, 68, 
82, 58, -24, -70, 53, 17, -78, -112, 14, 92, 107, 68, 
87, 63, -24, -75, 56, 19, -82, -122, 9, 92, 107, 73, 
92, 73, -19, -82, 56, 26, -92, -131, 4, 102, 117, 82, 
107, 87, -19, -97, 63, 34, -102, -141, 4, 107, 126, 87, 
117, 97, -19, -107, 68, 39, -112, -156, 9, 107, 136, 102, 
122, 107, -14, -114, 68, 46, -126, -170, 4, 122, 146, 112, 
151, 126, -24, -139, 87, 51, -136, -175, 4, 126, 151, 122, 
156, 126, -29, -141, 92, 48, -146, -195, 4, 136, 161, 131, 
165, 146, -19, -156, 92, 63, -156, -209, 9, 146, 170, 141, 
170, 156, -14, -163, 92, 70, -175, -224, 4, 151, 190, 151, 
185, 165, -19, -175, 102, 73, -190, -239, 0, 161, 200, 170, 
209, 180, -29, -195, 119, 75, -200, -253, 0, 170, 204, 175, 
219, 190, -29, -204, 124, 80, -209, -268, 0, 175, 209, 190, 
219, 200, -19, -209, 119, 90, -224, -287, -4, 175, 219, 195, 
248, 204, -43, -226, 146, 80, -248, -297, -4, 185, 224, 200, 
258, 214, -43, -236, 151, 85, -248, -312, -9, 185, 234, 209, 
263, 209, -53, -236, 158, 78, -253, -317, -14, 185, 234, 219, 
283, 224, -58, -253, 170, 82, -263, -326, -14, 185, 239, 224, 
297, 224, -73, -261, 185, 75, -273, -336, -14, 190, 244, 234, 
307, 229, -78, -268, 192, 75, -283, -341, -14, 190, 248, 239, 
312, 229, -82, -270, 197, 73, -283, -341, -19, 190, 248, 239, 
317, 224, -92, -270, 204, 65, -287, -336, -19, 195, 244, 239, 
322, 219, -102, -270, 212, 58, -292, -336, -24, 195, 239, 234, 
322, 204, -117, -263, 219, 43, -283, -326, -24, 170, 219, 224, 
322, 190, -131, -256, 226, 29, -283, -312, -24, 161, 204, 204, 
302, 161, -141, -231, 222, 9, -273, -302, -29, 151, 190, 180, 
297, 151, -146, -224, 222, 2, -253, -278, -34, 131, 165, 161, 
287, 126, -161, -207, 224, -17, -234, -248, -34, 117, 156, 146, 
273, 107, -165, -190, 219, -29, -214, -224, -34, 107, 146, 131, 
234, 92, -141, -163, 187, -24, -180, -195, -34, 92, 117, 107, 
200, 63, -136, -131, 168, -36, -165, -170, -34, 78, 92, 78, 
185, 43, -141, -114, 163, -48, -136, -131, -34, 63, 78, 68, 
161, 24, -136, -92, 148, -56, -117, -97, -34, 39, 58, 48, 
146, 0, -146, -73, 146, -73, -82, -78, -39, 29, 29, 24, 
122, -24, -146, -48, 134, -85, -58, -43, -39, 9, 9, 4, 
107, -39, -146, -34, 126, -92, -34, -14, -39, -4, -4, -4, 
87, -53, -141, -17, 114, -97, -14, 14, -39, -19, -14, -9, 
63, -68, -131, 2, 97, -100, 9, 34, -39, -34, -34, -29, 
48, -92, -141, 21, 95, -117, 24, 58, -39, -43, -43, -48, 
34, -107, -141, 36, 87, -124, 34, 78, -39, -53, -53, -63, 
19, -117, -136, 48, 78, -126, 43, 87, -34, -63, -58, -78, 
4, -122, -126, 58, 65, -124, 53, 102, -39, -68, -68, -78, 
0, -136, -136, 68, 68, -136, 63, 107, -43, -78, -68, -87, 
-14, -141, -126, 78, 56, -134, 73, 117, -48, -82, -78, -92, 
-14, -141, -126, 78, 56, -134, 82, 117, -48, -82, -78, -97, 
-29, -151, -122, 90, 46, -136, 97, 126, -53, -87, -87, -107, 
-29, -151, -122, 90, 46, -136, 102, 126, -58, -92, -92, -107, 
-39, -156, -117, 97, 39, -136, 102, 126, -58, -92, -92, -112, 
-39, -165, -126, 102, 43, -146, 102, 126, -63, -92, -97, -112, 
-34, -165, -131, 100, 48, -148, 102, 126, -63, -97, -97, -112, 
-34, -165, -131, 100, 48, -148, 107, 126, -63, -102, -97, -112, 
-29, -165, -136, 97, 53, -151, 107, 126, -58, -102, -97, -107, 
-24, -161, -136, 92, 56, -148, 107, 126, -53, -102, -97, -97, 
-24, -146, -122, 85, 48, -134, 107, 126, -53, -97, -97, -92, 
-19, -131, -112, 75, 46, -122, 102, 126, -48, -92, -97, -92, 
-19, -136, -117, 78, 48, -126, 97, 122, -48, -87, -92, -82, 
-19, -141, -122, 80, 51, -131, 97, 117, -53, -87, -92, -82, 
-19, -156, -136, 87, 58, -146, 92, 117, -53, -92, -92, -78, 
-19, -161, -141, 90, 61, -151, 92, 117, -53, -92, -92, -82, 
-14, -151, -136, 82, 61, -143, 92, 117, -53, -92, -87, -82, 
-9, -141, -131, 75, 61, -136, 92, 122, -53, -87, -87, -82, 
-4, -141, -136, 73, 65, -139, 102, 122, -48, -87, -82, -82, 
0, -141, -141, 70, 70, -141, 112, 126, -48, -87, -82, -82, 
-4, -141, -136, 73, 65, -139, 112, 122, -48, -87, -82, -82, 
-4, -141, -136, 73, 65, -139, 102, 122, -48, -82, -78, -82, 
-9, -141, -131, 75, 61, -136, 97, 122, -43, -87, -78, -87, 
-9, -141, -131, 75, 61, -136, 92, 122, -48, -87, -82, -92, 
-9, -141, -131, 75, 61, -136, 87, 117, -53, -92, -82, -102, 
-9, -136, -126, 73, 58, -131, 82, 112, -53, -87, -78, -107, 
-4, -131, -126, 68, 61, -129, 82, 117, -48, -82, -78, -107, 
-4, -131, -126, 68, 61, -129, 87, 112, -48, -78, -78, -107, 
0, -117, -117, 58, 58, -117, 87, 112, -43, -78, -68, -112, 
0, -102, -102, 51, 51, -102, 82, 117, -29, -73, -63, -102, 
4, -82, -87, 39, 46, -85, 87, 117, -14, -63, -58, -97, 
14, -68, -82, 26, 48, -75, 92, 122, -4, -58, -58, -97, 
19, -63, -82, 21, 51, -73, 87, 126, 0, -53, -53, -87, 
29, -58, -87, 14, 58, -73, 87, 136, 9, -48, -48, -78, 
34, -53, -87, 9, 61, -70, 82, 136, 14, -39, -43, -68, 
39, -48, -87, 4, 63, -68, 78, 136, 19, -29, -39, -58, 
43, -43, -87, 0, 65, -65, 73, 126, 19, -29, -34, -58, 
48, -34, -82, -7, 65, -58, 58, 102, 19, -24, -29, -53, 
53, -29, -82, -12, 68, -56, 43, 82, 19, -24, -24, -48, 
53, -24, -78, -14, 65, -51, 39, 48, 14, -24, -24, -48, 
53, -39, -92, -7, 73, -65, 29, 43, 0, -34, -29, -48, 
53, -43, -97, -4, 75, -70, 24, 48, -9, -39, -29, -48, 
53, -48, -102, -2, 78, -75, 19, 48, -14, -43, -39, -48, 
53, -48, -102, -2, 78, -75, 4, 48, -24, -48, -43, -48, 
53, -73, -126, 9, 90, -100, 4, 39, -43, -58, -53, -53, 
53, -92, -146, 19, 100, -119, 9, 29, -68, -73, -63, -63, 
53, -97, -151, 21, 102, -124, 14, 24, -73, -82, -73, -73, 
43, -112, -156, 34, 100, -134, 19, 24, -82, -97, -78, -82, 
39, -112, -151, 36, 95, -131, 19, 24, -82, -97, -78, -82, 
34, -107, -141, 36, 87, -124, 19, 14, -82, -92, -82, -82, 
19, -112, -131, 46, 75, -122, 29, 29, -82, -92, -82, -87, 
9, -112, -122, 51, 65, -117, 29, 34, -73, -87, -78, -87, 
0, -117, -117, 58, 58, -117, 39, 43, -73, -87, -78, -87, 
-9, -126, -117, 68, 53, -122, 43, 48, -73, -87, -78, -92, 
-24, -136, -112, 80, 43, -124, 43, 53, -73, -97, -82, -92, 
-24, -141, -117, 82, 46, -129, 39, 58, -73, -97, -82, -102, 
-19, -151, -131, 85, 56, -141, 48, 58, -78, -92, -87, -107, 
-24, -151, -126, 87, 51, -139, 48, 58, -78, -92, -87, -107, 
-24, -151, -126, 87, 51, -139, 48, 63, -78, -92, -82, -107, 
-24, -151, -126, 87, 51, -139, 53, 63, -78, -92, -82, -107, 
-29, -156, -126, 92, 48, -141, 53, 63, -78, -92, -78, -107, 
-34, -161, -126, 97, 46, -143, 53, 63, -78, -92, -78, -102, 
-34, -156, -122, 95, 43, -139, 48, 58, -78, -87, -78, -97, 
-34, -151, -117, 92, 41, -134, 43, 53, -78, -82, -78, -92, 
-34, -146, -112, 90, 39, -129, 43, 53, -78, -82, -73, -92, 
-39, -141, -102, 90, 31, -122, 43, 53, -78, -82, -73, -92, 
-34, -136, -102, 85, 34, -119, 48, 53, -73, -73, -68, -87, 
-29, -136, -107, 82, 39, -122, 53, 53, -68, -68, -63, -82, 
-29, -136, -107, 82, 39, -122, 53, 53, -63, -68, -63, -73, 
-29, -136, -107, 82, 39, -122, 53, 53, -63, -68, -63, -68, 
-34, -131, -97, 82, 31, -114, 48, 48, -63, -63, -63, -68, 
-43, -126, -82, 85, 19, -104, 43, 43, -63, -63, -58, -58, 
-39, -107, -68, 73, 14, -87, 43, 34, -48, -53, -48, -43, 
-43, -58, -14, 51, -14, -36, 43, 9, -34, -29, -24, -19, 
-73, 0, 73, 36, -73, 36, 34, -14, 4, 43, 34, 14, 
-87, 78, 165, 4, -126, 122, 29, -43, 68, 141, 122, 73, 
-92, 165, 258, -36, -175, 212, 9, -63, 151, 258, 239, 175, 
-48, 307, 356, -129, -202, 331, -29, -87, 312, 448, 434, 307, 
48, 439, 390, -244, -170, 414, -78, -87, 448, 629, 595, 424, 
175, 512, 336, -344, -80, 424, -107, -73, 546, 717, 673, 483, 
278, 429, 151, -353, 63, 290, -107, -19, 478, 634, 595, 424, 
366, 122, -244, -244, 305, -61, -68, 131, 161, 195, 224, 161, 
414, -517, -932, 51, 673, -724, 29, 370, -356, -512, -400, -244, 
458, -1068, -1527, 305, 993, -1298, 146, 556, -751, -1024, -902, -649, 
448, -1332, -1781, 441, 1115, -1556, 234, 668, -946, -1268, -1156, -873, 
414, -1605, -2020, 595, 1217, -1812, 307, 834, -1093, -1478, -1381, -1078, 
351, -1854, -2205, 751, 1278, -2030, 385, 1000, -1244, -1693, -1595, -1268, 
307, -1991, -2298, 841, 1302, -2144, 424, 1010, -1371, -1800, -1698, -1371, 
234, -2025, -2259, 895, 1246, -2142, 448, 1005, -1410, -1830, -1727, -1410, 
185, -1986, -2171, 900, 1178, -2078, 458, 1010, -1346, -1761, -1668, -1381, 
102, -1888, -1991, 893, 1046, -1939, 468, 961, -1263, -1664, -1581, -1302, 
19, -1766, -1786, 873, 902, -1776, 483, 897, -1176, -1532, -1459, -1224, 
-63, -1546, -1483, 805, 710, -1515, 488, 839, -1000, -1337, -1293, -1107, 
-141, -1312, -1171, 727, 514, -1241, 497, 805, -805, -1117, -1102, -961, 
-224, -1171, -946, 697, 361, -1058, 541, 844, -663, -976, -971, -849, 
-273, -1034, -761, 653, 244, -897, 614, 907, -517, -829, -839, -756, 
-322, -854, -531, 588, 104, -692, 683, 1029, -331, -663, -692, -649, 
-356, -712, -356, 534, 0, -534, 732, 1107, -239, -541, -566, -536, 
-366, -663, -297, 514, -34, -480, 785, 1161, -200, -468, -492, -483, 
-395, -610, -214, 502, -90, -412, 839, 1180, -156, -405, -429, -439, 
-419, -536, -117, 478, -151, -326, 849, 1127, -117, -331, -361, -380, 
-419, -448, -29, 434, -195, -239, 829, 1005, -87, -273, -302, -317, 
-414, -429, -14, 422, -200, -222, 771, 839, -82, -263, -283, -287, 
-400, -390, 9, 395, -204, -190, 678, 692, -87, -229, -244, -253, 
-346, -297, 48, 322, -197, -124, 580, 595, -82, -175, -180, -209, 
-312, -258, 53, 285, -183, -102, 522, 536, -73, -161, -156, -170, 
-263, -239, 24, 251, -143, -107, 448, 458, -63, -136, -136, -141, 
-209, -209, 0, 209, -104, -104, 380, 361, -63, -107, -112, -122, 
-141, -156, -14, 148, -63, -85, 292, 297, -53, -78, -73, -82, 
-78, -117, -39, 97, -19, -78, 209, 229, -48, -48, -39, -48, 
-34, -97, -63, 65, 14, -80, 126, 131, -39, -29, -19, -34, 
-14, -63, -48, 39, 17, -56, 58, 48, -29, -14, -4, -19, 
-4, -39, -34, 21, 14, -36, 34, 39, -24, 0, 9, -9, 
14, -29, -43, 7, 29, -36, 14, 34, -29, 4, 14, -4, 
24, -29, -53, 2, 39, -41, 0, 9, -19, 4, 19, -4, 
19, -19, -39, 0, 29, -29, -14, -4, -19, 14, 24, -4, 
24, -9, -34, -7, 29, -21, -19, -9, -14, 19, 29, 4, 
29, -9, -39, -9, 34, -24, -19, -9, -9, 24, 34, 9, 
39, -4, -43, -17, 41, -24, -29, -24, -4, 34, 43, 9, 
48, 0, -48, -24, 48, -24, -29, -29, -4, 34, 43, 9, 
53, 4, -48, -29, 51, -21, -34, -34, 0, 34, 43, 29, 
58, 9, -48, -34, 53, -19, -39, -39, 0, 29, 43, 39, 
63, 14, -48, -39, 56, -17, -48, -43, 0, 34, 48, 39, 
63, 19, -43, -41, 53, -12, -58, -48, 0, 43, 58, 43, 
73, 29, -43, -51, 58, -7, -63, -53, 4, 48, 63, 53, 
78, 34, -43, -56, 61, -4, -63, -58, 4, 58, 68, 58, 
73, 39, -34, -56, 53, 2, -58, -63, 4, 58, 73, 63, 
68, 43, -24, -56, 46, 9, -63, -68, 4, 58, 73, 68, 
82, 48, -34, -65, 58, 7, -68, -73, 9, 63, 73, 68, 
82, 48, -34, -65, 58, 7, -73, -78, 9, 63, 73, 68, 
87, 58, -29, -73, 58, 14, -78, -82, 9, 68, 78, 78, 
92, 63, -29, -78, 61, 17, -78, -87, 9, 73, 82, 82, 
107, 73, -34, -90, 70, 19, -92, -92, 9, 78, 97, 87, 
112, 78, -34, -95, 73, 21, -97, -102, 14, 82, 107, 87, 
117, 82, -34, -100, 75, 24, -102, -112, 14, 82, 112, 87, 
122, 92, -29, -107, 75, 31, -112, -122, 14, 92, 126, 92, 
131, 107, -24, -119, 78, 41, -122, -131, 14, 102, 136, 92, 
136, 117, -19, -126, 78, 48, -131, -146, 19, 107, 146, 102, 
136, 131, -4, -134, 70, 63, -146, -161, 19, 122, 161, 112, 
161, 156, -4, -158, 82, 75, -156, -165, 24, 126, 170, 122, 
170, 161, -9, -165, 90, 75, -165, -190, 19, 136, 175, 131, 
185, 185, 0, -185, 92, 92, -175, -209, 19, 146, 180, 141, 
195, 195, 0, -195, 97, 97, -200, -224, 19, 156, 200, 156, 
214, 204, -9, -209, 112, 97, -219, -239, 19, 170, 209, 180, 
239, 229, -9, -234, 124, 109, -229, -253, 19, 180, 224, 195, 
248, 248, 0, -248, 124, 124, -239, -268, 19, 185, 239, 219, 
244, 258, 14, -251, 114, 136, -248, -287, 14, 185, 248, 229, 
268, 263, -4, -265, 136, 129, -268, -297, 14, 195, 253, 239, 
278, 278, 0, -278, 139, 139, -273, -307, 14, 200, 268, 248, 
283, 278, -4, -280, 143, 136, -283, -307, 14, 204, 273, 258, 
302, 302, 0, -302, 151, 151, -292, -317, 14, 209, 278, 268, 
317, 312, -4, -314, 161, 153, -302, -326, 14, 219, 283, 283, 
326, 307, -19, -317, 173, 143, -312, -326, 19, 219, 283, 287, 
331, 297, -34, -314, 183, 131, -312, -322, 19, 219, 278, 287, 
336, 287, -48, -312, 192, 119, -312, -317, 19, 219, 273, 287, 
341, 278, -63, -309, 202, 107, -312, -317, 14, 214, 268, 283, 
341, 263, -78, -302, 209, 92, -302, -302, 9, 180, 244, 268, 
341, 248, -92, -295, 217, 78, -302, -283, 4, 161, 224, 244, 
317, 219, -97, -268, 207, 61, -297, -273, 0, 151, 209, 219, 
307, 209, -97, -258, 202, 56, -283, -248, -4, 131, 185, 200, 
297, 185, -112, -241, 204, 36, -263, -224, -9, 112, 156, 175, 
283, 165, -117, -224, 200, 24, -244, -204, -14, 97, 126, 151, 
253, 151, -102, -202, 178, 24, -204, -175, -19, 82, 107, 122, 
229, 122, -107, -175, 168, 7, -185, -151, -24, 68, 92, 87, 
209, 112, -97, -161, 153, 7, -161, -117, -14, 58, 78, 73, 
180, 102, -78, -141, 129, 12, -146, -87, -4, 39, 58, 48, 
161, 78, -82, -119, 122, -2, -112, -68, -9, 29, 29, 19, 
131, 53, -78, -92, 104, -12, -87, -34, -9, 9, 9, -4, 
117, 34, -82, -75, 100, -24, -53, -9, -4, -4, -4, -19, 
97, 14, -82, -56, 90, -34, -24, 14, 0, -19, -14, -29, 
78, 9, -68, -43, 73, -29, -19, 34, 0, -29, -29, -43, 
68, -4, -73, -31, 70, -39, -24, 58, 0, -34, -34, -58, 
68, -19, -87, -24, 78, -53, -4, 73, -4, -48, -48, -68, 
68, -29, -97, -19, 82, -63, 14, 78, -4, -63, -58, -78, 
34, -43, -78, 4, 56, -61, 29, 92, -9, -68, -73, -78, 
9, -68, -78, 29, 43, -73, 43, 97, -14, -78, -78, -87, 
-4, -73, -68, 39, 31, -70, 53, 107, -19, -82, -92, -92, 
-4, -73, -68, 39, 31, -70, 63, 107, -19, -82, -97, -97, 
-14, -73, -58, 43, 21, -65, 73, 117, -24, -87, -102, -102, 
-9, -63, -53, 36, 21, -58, 73, 117, -29, -92, -102, -97, 
-19, -68, -48, 43, 14, -58, 73, 117, -29, -97, -102, -97, 
-19, -78, -58, 48, 19, -68, 73, 117, -34, -102, -107, -92, 
-9, -73, -63, 41, 26, -68, 68, 117, -34, -102, -102, -87, 
-4, -68, -63, 36, 29, -65, 68, 117, -34, -102, -97, -82, 
-4, -63, -58, 34, 26, -61, 68, 117, -34, -97, -97, -82, 
-4, -53, -48, 29, 21, -51, 68, 117, -34, -92, -97, -78, 
-4, -53, -48, 29, 21, -51, 68, 117, -34, -92, -97, -78, 
0, -53, -53, 26, 26, -53, 63, 117, -29, -92, -97, -82, 
0, -53, -53, 26, 26, -53, 58, 117, -29, -92, -92, -78, 
0, -53, -53, 26, 26, -53, 58, 117, -34, -97, -92, -82, 
0, -53, -53, 26, 26, -53, 53, 117, -34, -97, -97, -78, 
0, -43, -43, 21, 21, -43, 53, 117, -34, -92, -102, -82, 
0, -39, -39, 19, 19, -39, 53, 107, -34, -92, -97, -87, 
0, -34, -34, 17, 17, -34, 53, 102, -34, -87, -97, -92, 
4, -34, -39, 14, 21, -36, 53, 97, -29, -87, -92, -92, 
9, -34, -43, 12, 26, -39, 53, 97, -29, -87, -92, -92, 
9, -29, -39, 9, 24, -34, 53, 92, -29, -87, -92, -92, 
14, -24, -39, 4, 26, -31, 43, 92, -29, -82, -87, -92, 
9, -19, -29, 4, 19, -24, 43, 92, -24, -82, -82, -92, 
9, -14, -24, 2, 17, -19, 43, 92, -29, -78, -82, -92, 
9, -14, -24, 2, 17, -19, 43, 92, -29, -82, -87, -97, 
9, -9, -19, 0, 14, -14, 43, 92, -24, -78, -87, -97, 
9, -4, -14, -2, 12, -9, 43, 102, -14, -73, -82, -97, 
9, 4, -4, -7, 7, 0, 48, 102, -4, -68, -73, -97, 
14, 19, 4, -17, 4, 12, 53, 107, 0, -58, -63, -87, 
19, 39, 19, -29, 0, 29, 58, 117, 0, -48, -58, -78, 
29, 53, 24, -41, 2, 39, 48, 122, 14, -43, -53, -73, 
39, 68, 29, -53, 4, 48, 39, 126, 29, -39, -48, -68, 
39, 68, 29, -53, 4, 48, 39, 126, 34, -39, -48, -68, 
43, 73, 29, -58, 7, 51, 29, 122, 34, -34, -43, -63, 
53, 82, 29, -68, 12, 56, 19, 117, 39, -29, -39, -58, 
53, 82, 29, -68, 12, 56, -14, 82, 39, -24, -34, -48, 
53, 92, 39, -73, 7, 65, -19, 43, 34, -24, -34, -48, 
53, 87, 34, -70, 9, 61, -29, 29, 19, -34, -39, -48, 
58, 82, 24, -70, 17, 53, -34, 29, 9, -39, -34, -48, 
63, 78, 14, -70, 24, 46, -34, 29, 4, -43, -39, -48, 
63, 78, 14, -70, 24, 46, -43, 29, -4, -48, -43, -43, 
63, 53, -9, -58, 36, 21, -43, 24, -24, -58, -53, -43, 
63, 34, -29, -48, 46, 2, -39, 19, -48, -68, -63, -53, 
63, 24, -39, -43, 51, -7, -34, 14, -53, -73, -73, -58, 
53, 4, -48, -29, 51, -21, -29, 14, -63, -87, -78, -63, 
48, 0, -48, -24, 48, -24, -29, 14, -63, -87, -78, -63, 
43, 0, -43, -21, 43, -21, -29, 4, -63, -82, -82, -58, 
29, -4, -34, -12, 31, -19, -14, 19, -63, -82, -82, -58, 
19, -4, -24, -7, 21, -14, -9, 19, -53, -78, -78, -58, 
9, -4, -14, -2, 12, -9, 0, 24, -53, -78, -78, -63, 
4, 0, -4, -2, 4, -2, 0, 29, -53, -78, -78, -73, 
-4, 0, 4, 2, -4, 2, 0, 29, -53, -87, -87, -73, 
-4, -14, -9, 9, 2, -12, 0, 29, -58, -87, -92, -82, 
-4, -34, -29, 19, 12, -31, 9, 29, -68, -87, -97, -87, 
-14, -34, -19, 24, 2, -26, 14, 29, -68, -92, -97, -87, 
-14, -34, -19, 24, 2, -26, 19, 34, -68, -92, -92, -87, 
-14, -29, -14, 21, 0, -21, 24, 34, -68, -87, -87, -87, 
-14, -29, -14, 21, 0, -21, 24, 34, -68, -82, -82, -92, 
-19, -34, -14, 26, -2, -24, 24, 34, -63, -82, -87, -92, 
-24, -34, -9, 29, -7, -21, 24, 34, -58, -82, -87, -92, 
-24, -34, -9, 29, -7, -21, 24, 34, -58, -82, -92, -97, 
-24, -34, -9, 29, -7, -21, 24, 34, -58, -82, -92, -102, 
-24, -34, -9, 29, -7, -21, 19, 29, -58, -82, -92, -102, 
-19, -29, -9, 24, -4, -19, 14, 24, -58, -78, -92, -102, 
-19, -29, -9, 24, -4, -19, 14, 24, -58, -78, -87, -102, 
-19, -29, -9, 24, -4, -19, 14, 24, -53, -78, -82, -97, 
-19, -29, -9, 24, -4, -19, 14, 24, -53, -78, -82, -97, 
-14, -24, -9, 19, -2, -17, 14, 24, -53, -73, -82, -97, 
-14, -19, -4, 17, -4, -12, 14, 29, -53, -68, -78, -87, 
-19, -4, 14, 12, -17, 4, 14, 24, -39, -53, -68, -82, 
-29, 39, 68, -4, -48, 53, 4, 0, -24, -29, -43, -63, 
-53, 97, 151, -21, -102, 124, -14, -24, 14, 29, 9, -24, 
-68, 170, 239, -51, -153, 204, -4, -53, 73, 107, 92, 34, 
-78, 263, 341, -92, -209, 302, -9, -78, 156, 239, 209, 136, 
-39, 414, 453, -187, -246, 434, -48, -107, 322, 448, 409, 278, 
39, 566, 527, -302, -244, 546, -97, -122, 483, 668, 614, 429, 
131, 658, 527, -395, -197, 592, -136, -131, 605, 795, 732, 512, 
239, 639, 400, -439, -80, 519, -161, -102, 605, 795, 732, 531, 
346, 375, 29, -361, 158, 202, -126, 29, 341, 419, 414, 326, 
419, -297, -717, -61, 568, -507, -19, 292, -214, -366, -273, -117, 
488, -888, -1376, 200, 932, -1132, 97, 488, -649, -971, -839, -551, 
502, -1195, -1698, 346, 1100, -1446, 185, 580, -873, -1259, -1132, -800, 
492, -1473, -1966, 490, 1229, -1720, 248, 736, -1010, -1454, -1356, -1010, 
429, -1737, -2166, 653, 1298, -1952, 322, 902, -1161, -1673, -1581, -1200, 
385, -1883, -2269, 749, 1327, -2076, 366, 917, -1312, -1805, -1703, -1312, 
302, -1937, -2239, 817, 1271, -2088, 405, 912, -1385, -1864, -1766, -1381, 
248, -1937, -2186, 844, 1217, -2061, 424, 922, -1356, -1830, -1742, -1381, 
190, -1839, -2030, 824, 1110, -1934, 419, 873, -1298, -1747, -1664, -1327, 
131, -1708, -1839, 788, 985, -1773, 424, 810, -1234, -1629, -1556, -1273, 
29, -1507, -1537, 739, 783, -1522, 429, 736, -1073, -1459, -1405, -1161, 
-63, -1298, -1234, 680, 585, -1266, 429, 683, -883, -1244, -1220, -1019, 
-156, -1137, -980, 646, 412, -1058, 463, 707, -722, -1073, -1068, -917, 
-219, -985, -766, 602, 273, -875, 531, 746, -580, -932, -927, -834, 
-268, -795, -527, 531, 129, -661, 595, 854, -395, -761, -771, -717, 
-307, -629, -322, 468, 7, -475, 639, 941, -273, -610, -634, -585, 
-317, -566, -248, 441, -34, -407, 688, 1010, -219, -527, -561, -522, 
-346, -512, -165, 429, -90, -339, 741, 1078, -175, -463, -497, -488, 
-370, -429, -58, 400, -156, -244, 751, 1068, -126, -380, -419, -434, 
-375, -341, 34, 358, -204, -153, 751, 956, -87, -312, -351, -366, 
-380, -331, 48, 356, -214, -141, 727, 819, -78, -302, -331, -336, 
-380, -302, 78, 341, -229, -112, 649, 692, -78, -268, -292, -302, 
-336, -219, 117, 278, -226, -51, 551, 585, -73, -209, -229, -253, 
-302, -170, 131, 236, -217, -19, 507, 517, -63, -180, -204, -209, 
-253, -136, 117, 195, -185, -9, 439, 439, -53, -146, -180, -180, 
-204, -102, 102, 153, -153, 0, 366, 341, -58, -126, -151, -161, 
-156, -43, 112, 100, -134, 34, 283, 278, -48, -102, -112, -117, 
-107, 0, 107, 53, -107, 53, 200, 209, -39, -68, -73, -68, 
-53, 19, 73, 17, -63, 46, 117, 112, -29, -48, -48, -43, 
-24, 53, 78, -14, -51, 65, 43, 24, -14, -24, -34, -29, 
-14, 78, 92, -31, -53, 85, 19, 9, 0, 4, -14, -4, 
4, 87, 82, -46, -39, 85, 4, 4, 0, 14, -4, 14, 
19, 87, 68, -53, -24, 78, -9, -19, 9, 14, 0, 14, 
19, 107, 87, -63, -34, 97, -29, -29, 14, 24, 4, 14, 
24, 126, 102, -75, -39, 114, -43, -34, 19, 24, 9, 24, 
29, 126, 97, -78, -34, 112, -48, -34, 19, 24, 14, 29, 
34, 131, 97, -82, -31, 114, -58, -43, 24, 34, 24, 29, 
39, 131, 92, -85, -26, 112, -58, -48, 19, 34, 24, 24, 
43, 131, 87, -87, -21, 109, -63, -53, 19, 39, 24, 34, 
48, 136, 87, -92, -19, 112, -68, -63, 19, 39, 24, 39, 
53, 141, 87, -97, -17, 114, -73, -73, 19, 43, 29, 39, 
43, 141, 97, -92, -26, 119, -78, -78, 19, 48, 39, 43, 
43, 146, 102, -95, -29, 124, -82, -82, 24, 43, 43, 53, 
63, 151, 87, -107, -12, 119, -82, -87, 24, 48, 48, 58, 
78, 156, 78, -117, 0, 117, -82, -92, 24, 48, 53, 63, 
78, 175, 97, -126, -9, 136, -92, -97, 24, 53, 58, 73, 
92, 195, 102, -143, -4, 148, -97, -102, 29, 68, 68, 78, 
92, 195, 102, -143, -4, 148, -102, -107, 29, 73, 73, 78, 
97, 204, 107, -151, -4, 156, -107, -112, 29, 78, 78, 87, 
97, 209, 112, -153, -7, 161, -107, -117, 29, 82, 78, 87, 
102, 219, 117, -161, -7, 168, -122, -122, 29, 87, 82, 87, 
102, 219, 117, -161, -7, 168, -126, -131, 34, 92, 87, 87, 
107, 224, 117, -165, -4, 170, -131, -141, 34, 97, 92, 92, 
112, 239, 126, -175, -7, 183, -141, -151, 34, 112, 112, 102, 
126, 253, 126, -190, 0, 190, -151, -161, 34, 122, 126, 107, 
136, 263, 126, -200, 4, 195, -161, -175, 43, 126, 136, 122, 
136, 273, 136, -204, 0, 204, -175, -190, 48, 141, 151, 131, 
156, 292, 136, -224, 9, 214, -195, -195, 53, 151, 165, 151, 
156, 297, 141, -226, 7, 219, -214, -214, 53, 165, 180, 170, 
165, 322, 156, -244, 4, 239, -209, -229, 63, 175, 190, 180, 
175, 331, 156, -253, 9, 244, -214, -244, 68, 185, 209, 195, 
185, 341, 156, -263, 14, 248, -229, -258, 68, 200, 219, 224, 
200, 361, 161, -280, 19, 261, -239, -273, 68, 209, 229, 234, 
209, 375, 165, -292, 21, 270, -253, -287, 63, 219, 244, 248, 
209, 385, 175, -297, 17, 280, -273, -307, 53, 224, 258, 253, 
239, 390, 151, -314, 43, 270, -297, -317, 53, 239, 263, 263, 
248, 405, 156, -326, 46, 280, -302, -331, 53, 248, 278, 278, 
263, 405, 141, -334, 61, 273, -312, -336, 53, 253, 283, 292, 
287, 419, 131, -353, 78, 275, -322, -346, 53, 258, 287, 302, 
297, 419, 122, -358, 87, 270, -331, -356, 53, 263, 292, 312, 
307, 424, 117, -366, 95, 270, -341, -361, 58, 258, 297, 317, 
312, 424, 112, -368, 100, 268, -341, -361, 53, 258, 297, 317, 
317, 419, 102, -368, 107, 261, -341, -356, 48, 258, 292, 317, 
326, 414, 87, -370, 119, 251, -341, -356, 43, 253, 287, 307, 
331, 400, 68, -366, 131, 234, -331, -346, 39, 229, 268, 292, 
331, 380, 48, -356, 141, 214, -331, -326, 34, 209, 248, 273, 
312, 346, 34, -329, 139, 190, -326, -312, 29, 190, 229, 253, 
297, 336, 39, -317, 129, 187, -307, -287, 29, 170, 204, 229, 
278, 312, 34, -295, 122, 173, -283, -263, 29, 151, 185, 204, 
273, 292, 19, -283, 126, 156, -263, -244, 24, 136, 161, 185, 
253, 278, 24, -265, 114, 151, -229, -214, 19, 117, 126, 156, 
229, 248, 19, -239, 104, 134, -214, -190, 9, 92, 97, 122, 
214, 229, 14, -222, 100, 122, -190, -156, 4, 73, 78, 107, 
185, 195, 9, -190, 87, 102, -175, -126, 4, 48, 58, 87, 
161, 156, -4, -158, 82, 75, -141, -107, 0, 39, 29, 63, 
131, 141, 9, -136, 61, 75, -122, -78, 0, 19, 9, 48, 
117, 131, 14, -124, 51, 73, -102, -53, 0, 4, -4, 39, 
97, 117, 19, -107, 39, 68, -82, -29, 4, -4, -14, 29, 
78, 107, 29, -92, 24, 68, -58, -14, 9, -14, -34, 9, 
73, 82, 9, -78, 31, 46, -43, 9, 9, -24, -43, -9, 
63, 68, 4, -65, 29, 36, -24, 29, 0, -39, -58, -24, 
53, 58, 4, -56, 24, 31, -4, 43, -4, -58, -68, -39, 
43, 48, 4, -46, 19, 26, 4, 63, -9, -68, -82, -39, 
39, 29, -9, -34, 24, 9, 19, 68, -14, -78, -82, -43, 
24, 24, 0, -24, 12, 12, 34, 78, -19, -82, -87, -48, 
19, 14, -4, -17, 12, 4, 43, 73, -19, -78, -87, -53, 
0, -4, -4, 2, 2, -4, 53, 78, -24, -78, -92, -58, 
0, 4, 4, -2, -2, 4, 53, 78, -29, -82, -92, -53, 
-9, 9, 19, 0, -14, 14, 53, 78, -29, -82, -92, -53, 
-9, 0, 9, 4, -9, 4, 53, 78, -34, -82, -97, -53, 
-9, 0, 9, 4, -9, 4, 53, 78, -34, -82, -97, -53, 
-14, -9, 4, 12, -9, -2, 58, 78, -34, -82, -97, -53, 
-14, -19, -4, 17, -4, -12, 58, 78, -34, -82, -97, -53, 
-9, -4, 4, 7, -7, 0, 53, 78, -34, -78, -97, -43, 
-4, 4, 9, 0, -7, 7, 48, 78, -34, -73, -97, -34, 
0, 4, 4, -2, -2, 4, 43, 78, -34, -73, -97, -34, 
0, 9, 9, -4, -4, 9, 39, 78, -34, -68, -92, -24, 
-4, 9, 14, -2, -9, 12, 43, 78, -34, -73, -92, -34, 
-9, 4, 14, 2, -12, 9, 43, 78, -34, -73, -87, -34, 
-9, 14, 24, -2, -17, 19, 43, 78, -29, -63, -82, -34, 
-9, 14, 24, -2, -17, 19, 43, 73, -24, -63, -78, -34, 
-4, 19, 24, -7, -14, 21, 43, 73, -24, -58, -78, -34, 
4, 24, 19, -14, -7, 21, 43, 68, -19, -58, -73, -34, 
9, 24, 14, -17, -2, 19, 43, 68, -19, -58, -73, -29, 
14, 34, 19, -24, -2, 26, 39, 63, -19, -53, -68, -24, 
19, 53, 34, -36, -7, 43, 29, 68, -4, -39, -58, -14, 
29, 73, 43, -51, -7, 58, 24, 78, 9, -29, -53, -4, 
24, 87, 63, -56, -19, 75, 19, 82, 24, -14, -43, 0, 
19, 107, 87, -63, -34, 97, 19, 87, 39, 0, -39, 0, 
34, 107, 73, -70, -19, 90, 19, 87, 39, 0, -34, 4, 
48, 107, 58, -78, -4, 82, 19, 87, 39, 0, -29, 9, 
58, 117, 58, -87, 0, 87, 9, 82, 43, 0, -24, 14, 
63, 126, 63, -95, 0, 95, -4, 63, 43, 4, -14, 19, 
73, 136, 63, -104, 4, 100, -24, 48, 48, 9, -9, 29, 
73, 141, 68, -107, 2, 104, -29, 19, 43, 14, -4, 29, 
73, 126, 53, -100, 9, 90, -39, 9, 34, 4, -9, 34, 
73, 122, 48, -97, 12, 85, -43, 9, 29, 0, -9, 39, 
73, 117, 43, -95, 14, 80, -39, 9, 24, -4, -9, 43, 
73, 117, 43, -95, 14, 80, -43, 9, 14, -9, -4, 48, 
73, 92, 19, -82, 26, 56, -39, 0, -9, -19, -14, 43, 
73, 73, 0, -73, 36, 36, -29, -9, -39, -34, -24, 34, 
73, 58, -14, -65, 43, 21, -24, -14, -43, -43, -39, 24, 
63, 34, -29, -48, 46, 2, -19, -14, -53, -58, -48, 14, 
58, 29, -29, -43, 43, 0, -29, -14, -53, -58, -48, 14, 
53, 29, -24, -41, 39, 2, -39, -24, -53, -53, -53, 14, 
34, 19, -14, -26, 24, 2, -14, -9, -53, -53, -53, 9, 
19, 14, -4, -17, 12, 4, 0, -4, -43, -48, -48, 9, 
9, 9, 0, -9, 4, 4, 9, 9, -48, -48, -48, 4, 
0, 0, 0, 0, 0, 0, 14, 19, -53, -48, -48, -4, 
-9, -9, 0, 9, -4, -4, 19, 19, -53, -63, -58, -4, 
-4, -14, -9, 9, 2, -12, 19, 19, -53, -68, -63, -14, 
-4, -24, -19, 14, 7, -21, 29, 19, -58, -68, -68, -24, 
-14, -24, -9, 19, -2, -17, 29, 19, -58, -73, -68, -29, 
-14, -24, -9, 19, -2, -17, 24, 24, -53, -73, -63, -29, 
-14, -24, -9, 19, -2, -17, 24, 24, -48, -73, -63, -29, 
-14, -24, -9, 19, -2, -17, 24, 24, -48, -68, -58, -34, 
-14, -24, -9, 19, -2, -17, 24, 24, -48, -63, -58, -34, 
-14, -24, -9, 19, -2, -17, 24, 24, -48, -63, -58, -34, 
-14, -24, -9, 19, -2, -17, 24, 24, -48, -63, -58, -34, 
-14, -24, -9, 19, -2, -17, 24, 24, -48, -63, -53, -34, 
-19, -24, -4, 21, -7, -14, 24, 24, -48, -63, -53, -34, 
-19, -19, 0, 19, -9, -9, 24, 24, -48, -58, -53, -34, 
-19, -19, 0, 19, -9, -9, 24, 24, -48, -58, -53, -34, 
-14, -19, -4, 17, -4, -12, 24, 24, -39, -58, -53, -29, 
-9, -19, -9, 14, 0, -14, 24, 24, -34, -58, -53, -29, 
-4, -19, -14, 12, 4, -17, 24, 24, -34, -58, -53, -29, 
-4, -19, -14, 12, 4, -17, 24, 24, -34, -63, -48, -19, 
-9, -14, -4, 12, -2, -9, 24, 19, -29, -63, -48, -19, 
-24, 19, 43, 2, -34, 31, 24, 0, -24, -48, -34, -9, 
-53, 58, 112, -2, -82, 85, 19, -24, 0, -4, 4, 14, 
-68, 117, 185, -24, -126, 151, 19, -53, 48, 63, 73, 63, 
-107, 214, 322, -53, -214, 268, 4, -82, 117, 185, 175, 151, 
-97, 366, 463, -134, -280, 414, -29, -117, 263, 380, 356, 268, 
-29, 561, 590, -265, -309, 575, -78, -136, 468, 663, 614, 448, 
68, 697, 629, -383, -280, 663, -107, -141, 634, 854, 790, 570, 
190, 805, 614, -497, -212, 710, -141, -151, 771, 1019, 941, 688, 
297, 688, 390, -492, -46, 539, -136, -63, 658, 829, 800, 600, 
385, -39, -424, -173, 405, -231, -39, 229, 53, -39, 53, 141, 
468, -678, -1146, 104, 807, -912, 78, 468, -429, -712, -570, -317, 
512, -1010, -1522, 248, 1017, -1266, 165, 566, -668, -1015, -888, -580, 
531, -1351, -1883, 409, 1207, -1617, 239, 717, -858, -1283, -1176, -824, 
488, -1649, -2137, 580, 1312, -1893, 322, 922, -1049, -1556, -1444, -1058, 
463, -1834, -2298, 685, 1381, -2066, 366, 971, -1215, -1722, -1600, -1205, 
380, -1937, -2318, 778, 1349, -2127, 414, 976, -1332, -1825, -1703, -1302, 
322, -1966, -2288, 822, 1305, -2127, 448, 990, -1346, -1830, -1717, -1332, 
268, -1898, -2166, 814, 1217, -2032, 439, 956, -1312, -1771, -1659, -1293, 
214, -1805, -2020, 795, 1117, -1912, 434, 907, -1273, -1678, -1566, -1254, 
107, -1605, -1712, 749, 910, -1659, 429, 805, -1112, -1498, -1415, -1141, 
4, -1390, -1395, 692, 700, -1393, 429, 727, -932, -1293, -1239, -1000, 
-112, -1234, -1122, 673, 505, -1178, 463, 722, -795, -1137, -1098, -897, 
-195, -1083, -888, 639, 346, -985, 527, 741, -653, -976, -956, -814, 
-263, -873, -610, 568, 173, -741, 595, 863, -414, -771, -780, -692, 
-317, -702, -385, 509, 34, -544, 644, 941, -268, -610, -624, -566, 
-312, -639, -326, 475, 7, -483, 707, 1039, -229, -536, -551, -507, 
-326, -570, -244, 448, -41, -407, 771, 1102, -185, -473, -488, -458, 
-361, -488, -126, 424, -117, -307, 805, 1098, -126, -375, -395, -390, 
-370, -390, -19, 380, -175, -204, 810, 1024, -78, -292, -312, -317, 
-385, -380, 4, 383, -195, -187, 775, 878, -68, -283, -292, -287, 
-390, -351, 39, 370, -214, -156, 707, 751, -68, -248, -253, -253, 
-346, -244, 102, 295, -224, -70, 610, 624, -63, -185, -185, -200, 
-322, -190, 131, 256, -226, -29, 551, 536, -53, -161, -156, -151, 
-278, -165, 112, 222, -195, -26, 468, 468, -43, -136, -131, -122, 
-229, -131, 97, 180, -163, -17, 390, 380, -43, -107, -102, -102, 
-175, -73, 102, 124, -139, 14, 317, 317, -29, -73, -58, -53, 
-126, -29, 97, 78, -112, 34, 248, 248, -19, -39, -19, -9, 
-63, -9, 53, 36, -58, 21, 141, 141, 0, -9, 0, 9, 
-24, 24, 48, 0, -36, 36, 48, 48, 19, 14, 14, 29, 
-14, 58, 73, -21, -43, 65, 29, 29, 29, 39, 39, 53, 
4, 78, 73, -41, -34, 75, 14, 14, 29, 53, 53, 73, 
19, 78, 58, -48, -19, 68, -9, -9, 39, 53, 58, 73, 
19, 87, 68, -53, -24, 78, -34, -24, 39, 63, 63, 73, 
24, 97, 73, -61, -24, 85, -43, -34, 39, 63, 68, 82, 
29, 97, 68, -63, -19, 82, -48, -39, 39, 63, 73, 87, 
34, 102, 68, -68, -17, 85, -53, -53, 43, 73, 82, 87, 
39, 107, 68, -73, -14, 87, -48, -58, 43, 73, 82, 87, 
43, 112, 68, -78, -12, 90, -53, -63, 48, 78, 87, 102, 
48, 117, 68, -82, -9, 92, -58, -68, 48, 78, 92, 107, 
53, 122, 68, -87, -7, 95, -68, -73, 53, 82, 97, 112, 
53, 126, 73, -90, -9, 100, -78, -78, 58, 92, 107, 122, 
63, 136, 73, -100, -4, 104, -82, -82, 63, 97, 112, 136, 
68, 141, 73, -104, -2, 107, -82, -87, 63, 107, 117, 146, 
68, 146, 78, -107, -4, 112, -73, -92, 63, 107, 122, 156, 
68, 151, 82, -109, -7, 117, -73, -97, 63, 107, 122, 165, 
78, 156, 78, -117, 0, 117, -78, -102, 68, 117, 126, 165, 
73, 156, 82, -114, -4, 119, -82, -107, 68, 122, 131, 165, 
78, 165, 87, -122, -4, 126, -87, -112, 68, 126, 141, 175, 
82, 170, 87, -126, -2, 129, -87, -117, 68, 131, 151, 180, 
97, 180, 82, -139, 7, 131, -102, -117, 68, 136, 161, 185, 
102, 185, 82, -143, 9, 134, -107, -122, 73, 141, 165, 185, 
107, 195, 87, -151, 9, 141, -112, -131, 73, 146, 170, 190, 
112, 209, 97, -161, 7, 153, -122, -141, 73, 161, 185, 200, 
126, 224, 97, -175, 14, 161, -131, -151, 78, 170, 195, 200, 
136, 234, 97, -185, 19, 165, -141, -165, 87, 175, 204, 209, 
126, 244, 117, -185, 4, 180, -156, -180, 87, 195, 219, 214, 
141, 263, 122, -202, 9, 192, -165, -185, 92, 204, 229, 219, 
165, 268, 102, -217, 31, 185, -175, -204, 87, 214, 239, 229, 
195, 292, 97, -244, 48, 195, -185, -219, 87, 224, 248, 239, 
190, 297, 107, -244, 41, 202, -204, -234, 87, 234, 268, 248, 
195, 302, 107, -248, 43, 204, -219, -248, 87, 248, 278, 268, 
214, 322, 107, -268, 53, 214, -229, -263, 92, 263, 292, 273, 
219, 336, 117, -278, 51, 226, -239, -278, 97, 273, 307, 287, 
219, 346, 126, -283, 46, 236, -253, -297, 92, 273, 317, 292, 
248, 351, 102, -300, 73, 226, -278, -307, 92, 283, 322, 297, 
258, 366, 107, -312, 75, 236, -287, -326, 87, 287, 336, 307, 
263, 366, 102, -314, 80, 234, -302, -336, 82, 292, 341, 317, 
287, 380, 92, -334, 97, 236, -312, -351, 82, 297, 346, 322, 
307, 380, 73, -344, 117, 226, -322, -366, 82, 307, 351, 331, 
317, 385, 68, -351, 124, 226, -331, -370, 87, 307, 356, 336, 
322, 385, 63, -353, 129, 224, -331, -370, 87, 307, 356, 336, 
326, 385, 58, -356, 134, 222, -331, -366, 92, 307, 351, 341, 
331, 385, 53, -358, 139, 219, -331, -366, 92, 302, 346, 341, 
336, 370, 34, -353, 151, 202, -322, -356, 87, 278, 326, 336, 
341, 356, 14, -348, 163, 185, -322, -341, 82, 268, 312, 322, 
322, 326, 4, -324, 158, 165, -317, -331, 73, 258, 297, 302, 
317, 317, 0, -317, 158, 158, -302, -307, 63, 239, 273, 287, 
307, 292, -14, -300, 161, 139, -283, -283, 58, 214, 253, 268, 
292, 273, -19, -283, 156, 126, -263, -263, 53, 195, 234, 248, 
263, 253, -9, -258, 136, 122, -229, -234, 48, 175, 204, 224, 
239, 219, -19, -229, 129, 100, -214, -209, 43, 156, 180, 195, 
224, 200, -24, -212, 124, 87, -190, -170, 43, 146, 165, 180, 
200, 180, -19, -190, 109, 80, -175, -136, 43, 126, 146, 156, 
180, 156, -24, -168, 102, 65, -141, -117, 39, 117, 117, 131, 
151, 131, -19, -141, 85, 56, -117, -82, 39, 97, 97, 112, 
136, 112, -24, -124, 80, 43, -87, -53, 39, 82, 82, 97, 
117, 92, -24, -104, 70, 34, -63, -24, 39, 68, 73, 87, 
97, 78, -19, -87, 58, 29, -39, -4, 39, 48, 48, 68, 
87, 53, -34, -70, 61, 9, -24, 19, 39, 34, 34, 48, 
73, 39, -34, -56, 53, 2, -4, 39, 29, 19, 14, 34, 
58, 29, -29, -43, 43, 0, 14, 48, 24, 4, 0, 19, 
43, 14, -29, -29, 36, -7, 24, 63, 19, 0, -14, 19, 
39, -9, -48, -14, 43, -29, 34, 68, 14, -9, -19, 9, 
19, -14, -34, -2, 26, -24, 43, 78, 9, -14, -29, 0, 
14, -14, -29, 0, 21, -21, 53, 78, 9, -14, -29, -9, 
0, -24, -24, 12, 12, -24, 58, 92, 4, -19, -34, -19, 
0, -24, -24, 12, 12, -24, 53, 97, 0, -24, -34, -19, 
-9, -24, -14, 17, 2, -19, 53, 97, 0, -24, -29, -24, 
-9, -29, -19, 19, 4, -24, 53, 97, -4, -24, -29, -24, 
-4, -29, -24, 17, 9, -26, 58, 92, -4, -24, -29, -24, 
-4, -29, -24, 17, 9, -26, 68, 87, -4, -24, -29, -24, 
-4, -29, -24, 17, 9, -26, 68, 87, -4, -24, -29, -24, 
-4, -24, -19, 14, 7, -21, 68, 87, -4, -24, -29, -19, 
-9, -29, -19, 19, 4, -24, 68, 87, -9, -24, -29, -14, 
-9, -34, -24, 21, 7, -29, 63, 87, -9, -24, -29, -14, 
-9, -29, -19, 19, 4, -24, 63, 87, -4, -19, -24, -4, 
-9, -24, -14, 17, 2, -19, 68, 87, -4, -19, -24, -4, 
-9, -29, -19, 19, 4, -24, 63, 87, -4, -19, -24, 4, 
-9, -24, -14, 17, 2, -19, 63, 87, -4, -14, -24, 4, 
-9, -24, -14, 17, 2, -19, 63, 87, -4, -14, -19, 4, 
-9, -24, -14, 17, 2, -19, 63, 92, -4, -9, -19, 4, 
-4, -19, -14, 12, 4, -17, 58, 87, 0, -9, -14, 4, 
0, -14, -14, 7, 7, -14, 53, 87, 0, -9, -14, 4, 
0, -9, -9, 4, 4, -9, 53, 78, 0, -4, -14, 4, 
4, -4, -9, 0, 7, -7, 43, 73, 0, 4, -9, 4, 
9, 4, -4, -7, 7, 0, 43, 73, 9, 4, 0, 4, 
19, 14, -4, -17, 12, 4, 43, 73, 9, 9, 4, 4, 
19, 19, 0, -19, 9, 9, 48, 73, 9, 9, 4, 0, 
24, 34, 9, -29, 7, 21, 53, 78, 19, 24, 14, 0, 
29, 53, 24, -41, 2, 39, 48, 87, 34, 34, 24, 9, 
39, 78, 39, -58, 0, 58, 48, 97, 48, 48, 39, 19, 
48, 82, 34, -65, 7, 58, 48, 97, 58, 48, 39, 24, 
58, 87, 29, -73, 14, 58, 48, 97, 68, 48, 39, 29, 
58, 87, 29, -73, 14, 58, 39, 97, 68, 48, 39, 34, 
63, 92, 29, -78, 17, 61, 24, 92, 68, 48, 43, 39, 
73, 102, 29, -87, 21, 65, 14, 87, 68, 53, 48, 43, 
73, 102, 29, -87, 21, 65, -14, 53, 68, 53, 53, 48, 
73, 102, 29, -87, 21, 65, -19, 19, 63, 53, 53, 48, 
73, 87, 14, -80, 29, 51, -29, 9, 48, 43, 48, 48, 
73, 82, 9, -78, 31, 46, -34, 9, 39, 39, 48, 48, 
73, 78, 4, -75, 34, 41, -34, 9, 34, 34, 39, 48, 
73, 73, 0, -73, 36, 36, -39, 9, 24, 29, 34, 48, 
73, 43, -29, -58, 51, 7, -34, 4, 4, 19, 24, 43, 
73, 24, -48, -48, 61, -12, -29, 0, -19, 4, 14, 34, 
73, 14, -58, -43, 65, -21, -24, -4, -24, -4, 4, 29, 
58, -4, -63, -26, 61, -34, -19, -4, -34, -19, 0, 24, 
48, -9, -58, -19, 53, -34, -19, -4, -34, -19, 0, 24, 
43, -4, -48, -19, 46, -26, -14, -14, -29, -9, -4, 19, 
29, -4, -34, -12, 31, -19, 4, 0, -24, -4, -4, 9, 
24, -4, -29, -9, 26, -17, 9, 4, -14, 0, 0, 9, 
19, -4, -24, -7, 21, -14, 19, 14, -14, 0, 0, 4, 
9, -9, -19, 0, 14, -14, 24, 19, -19, 0, 0, -4, 
-4, -19, -14, 12, 4, -17, 29, 19, -24, -9, -9, -4, 
-4, -29, -24, 17, 9, -26, 24, 19, -24, -9, -14, -14, 
-4, -43, -39, 24, 17, -41, 29, 19, -29, -9, -19, -19, 
-14, -43, -29, 29, 7, -36, 24, 19, -29, -14, -19, -19, 
-14, -43, -29, 29, 7, -36, 19, 24, -29, -14, -14, -19, 
-14, -43, -29, 29, 7, -36, 24, 24, -29, -14, -14, -19, 
-14, -48, -34, 31, 9, -41, 24, 24, -29, -14, -14, -24, 
-19, -53, -34, 36, 7, -43, 29, 29, -29, -14, -19, -24, 
-24, -53, -29, 39, 2, -41, 34, 34, -29, -14, -19, -24, 
-24, -53, -29, 39, 2, -41, 39, 34, -29, -14, -24, -24, 
-24, -53, -29, 39, 2, -41, 43, 34, -29, -14, -24, -24, 
-29, -53, -24, 41, -2, -39, 43, 34, -29, -19, -24, -19, 
-29, -48, -19, 39, -4, -34, 43, 34, -29, -19, -24, -14, 
-29, -48, -19, 39, -4, -34, 34, 34, -29, -19, -24, -14, 
-29, -48, -19, 39, -4, -34, 24, 34, -24, -19, -24, -9, 
-29, -39, -9, 34, -9, -24, 24, 34, -19, -14, -19, -4, 
-24, -24, 0, 24, -12, -12, 24, 34, -14, -4, -14, 0, 
-29, -14, 14, 21, -21, 0, 24, 34, -9, 4, 0, 14, 
-39, 4, 43, 17, -41, 24, 24, 24, 9, 24, 19, 24, 
-53, 48, 102, 2, -78, 75, 24, -9, 29, 48, 43, 48, 
-82, 107, 190, -12, -136, 148, 14, -43, 73, 107, 97, 92, 
-87, 200, 287, -56, -187, 244, 9, -73, 165, 229, 214, 165, 
-87, 312, 400, -112, -244, 356, -9, -97, 283, 405, 366, 283, 
-39, 463, 502, -212, -270, 483, -43, -117, 439, 595, 541, 405, 
48, 614, 566, -331, -258, 590, -87, -122, 590, 795, 722, 536, 
156, 634, 478, -395, -161, 556, -107, -87, 658, 839, 771, 566, 
278, 541, 263, -409, 7, 402, -112, -14, 605, 756, 702, 531, 
395, 263, -131, -329, 263, 65, -78, 122, 326, 375, 375, 307, 
478, -424, -902, -26, 690, -663, 29, 390, -244, -414, -322, -156, 
531, -966, -1498, 217, 1015, -1232, 136, 600, -634, -941, -819, -541, 
531, -1224, -1756, 346, 1144, -1490, 214, 707, -814, -1151, -1044, -741, 
522, -1483, -2005, 480, 1263, -1744, 287, 849, -976, -1366, -1273, -961, 
458, -1727, -2186, 634, 1322, -1956, 370, 1000, -1151, -1605, -1503, -1161, 
405, -1859, -2264, 727, 1334, -2061, 409, 1010, -1273, -1703, -1595, -1244, 
312, -1898, -2210, 793, 1261, -2054, 444, 1000, -1317, -1727, -1629, -1283, 
253, -1888, -2142, 817, 1198, -2015, 453, 1010, -1283, -1693, -1610, -1283, 
190, -1781, -1971, 795, 1080, -1876, 439, 961, -1220, -1610, -1537, -1229, 
117, -1639, -1756, 761, 936, -1698, 453, 902, -1132, -1468, -1405, -1166, 
0, -1429, -1429, 714, 714, -1429, 468, 834, -946, -1273, -1229, -1044, 
-87, -1239, -1151, 663, 531, -1195, 492, 790, -775, -1088, -1063, -902, 
-175, -1098, -922, 636, 373, -1010, 551, 824, -634, -946, -932, -800, 
-253, -956, -702, 605, 224, -829, 624, 878, -483, -790, -790, -717, 
-317, -775, -458, 546, 70, -617, 692, 1000, -287, -605, -634, -600, 
-356, -629, -273, 492, -41, -451, 741, 1088, -190, -488, -522, -492, 
-366, -585, -219, 475, -73, -402, 795, 1156, -161, -439, -473, -453, 
-390, -531, -141, 461, -124, -336, 834, 1156, -117, -366, -390, -390, 
-409, -448, -39, 429, -185, -244, 829, 1078, -68, -273, -292, -307, 
-405, -356, 48, 380, -226, -153, 795, 956, -39, -204, -234, -253, 
-400, -341, 58, 370, -229, -141, 736, 810, -39, -195, -224, -239, 
-390, -302, 87, 346, -239, -107, 658, 683, -39, -161, -185, -204, 
-336, -209, 126, 273, -231, -41, 561, 575, -34, -102, -122, -156, 
-297, -170, 126, 234, -212, -21, 502, 502, -24, -92, -102, -112, 
-244, -146, 97, 195, -170, -24, 419, 419, -14, -78, -82, -82, 
-190, -117, 73, 153, -131, -21, 341, 322, -19, -48, -53, -58, 
-136, -63, 73, 100, -104, 4, 253, 258, -9, -14, -14, -9, 
-92, -19, 73, 56, -82, 26, 170, 190, 0, 19, 14, 29, 
-43, 0, 43, 21, -43, 21, 87, 92, 9, 39, 29, 43, 
-14, 34, 48, -9, -31, 41, 29, 14, 19, 53, 43, 58, 
-4, 58, 63, -26, -34, 61, 19, 9, 29, 73, 63, 82, 
14, 68, 53, -41, -19, 61, 4, 4, 29, 78, 73, 102, 
29, 68, 39, -48, -4, 53, -9, -19, 39, 73, 78, 102, 
29, 73, 43, -51, -7, 58, -19, -34, 39, 82, 78, 102, 
34, 78, 43, -56, -4, 61, -24, -43, 39, 82, 78, 112, 
34, 78, 43, -56, -4, 61, -29, -48, 39, 87, 82, 117, 
34, 82, 48, -58, -7, 65, -39, -63, 43, 102, 92, 117, 
39, 92, 53, -65, -7, 73, -39, -63, 43, 102, 97, 117, 
43, 102, 58, -73, -7, 80, -43, -63, 48, 107, 102, 131, 
48, 107, 58, -78, -4, 82, -48, -68, 48, 102, 102, 136, 
53, 112, 58, -82, -2, 85, -53, -73, 48, 102, 107, 136, 
53, 117, 63, -85, -4, 90, -58, -78, 48, 112, 112, 131, 
63, 126, 63, -95, 0, 95, -63, -82, 53, 112, 112, 131, 
68, 131, 63, -100, 2, 97, -63, -92, 53, 122, 117, 136, 
68, 136, 68, -102, 0, 102, -63, -102, 53, 126, 122, 141, 
68, 141, 73, -104, -2, 107, -78, -107, 53, 126, 126, 146, 
82, 146, 63, -114, 9, 104, -87, -112, 58, 136, 136, 146, 
82, 146, 63, -114, 9, 104, -92, -117, 53, 136, 141, 146, 
87, 156, 68, -122, 9, 112, -97, -122, 48, 136, 146, 156, 
92, 161, 68, -126, 12, 114, -97, -126, 48, 141, 146, 161, 
102, 170, 68, -136, 17, 119, -112, -131, 48, 146, 151, 165, 
102, 170, 68, -136, 17, 119, -112, -141, 53, 151, 156, 165, 
107, 175, 68, -141, 19, 122, -112, -151, 53, 156, 161, 170, 
112, 190, 78, -151, 17, 134, -122, -161, 53, 170, 175, 180, 
126, 204, 78, -165, 24, 141, -131, -170, 53, 180, 185, 185, 
136, 219, 82, -178, 26, 151, -146, -185, 58, 185, 200, 200, 
136, 234, 97, -185, 19, 165, -165, -200, 58, 200, 219, 209, 
161, 253, 92, -207, 34, 173, -175, -204, 63, 204, 229, 214, 
165, 258, 92, -212, 36, 175, -185, -224, 63, 214, 239, 219, 
175, 283, 107, -229, 34, 195, -190, -239, 68, 224, 248, 224, 
185, 292, 107, -239, 39, 200, -204, -253, 68, 234, 268, 234, 
204, 302, 97, -253, 53, 200, -219, -268, 68, 248, 278, 258, 
229, 322, 92, -275, 68, 207, -229, -283, 68, 258, 287, 263, 
239, 331, 92, -285, 73, 212, -239, -302, 68, 263, 292, 278, 
239, 336, 97, -287, 70, 217, -253, -326, 63, 263, 297, 283, 
268, 341, 73, -305, 97, 207, -278, -336, 63, 273, 302, 287, 
278, 356, 78, -317, 100, 217, -283, -351, 63, 278, 317, 297, 
283, 356, 73, -319, 104, 214, -292, -351, 58, 278, 322, 307, 
297, 370, 73, -334, 112, 222, -302, -356, 53, 278, 326, 312, 
307, 366, 58, -336, 124, 212, -312, -366, 53, 287, 326, 322, 
317, 366, 48, -341, 134, 207, -322, -370, 58, 287, 326, 326, 
326, 366, 39, -346, 143, 202, -322, -375, 53, 287, 326, 326, 
336, 361, 24, -348, 156, 192, -322, -375, 48, 287, 322, 326, 
341, 356, 14, -348, 163, 185, -322, -375, 43, 283, 317, 322, 
341, 341, 0, -341, 170, 170, -312, -366, 39, 258, 297, 312, 
336, 326, -9, -331, 173, 158, -312, -346, 34, 248, 283, 292, 
312, 297, -14, -305, 163, 141, -307, -331, 29, 239, 268, 273, 
307, 287, -19, -297, 163, 134, -292, -307, 29, 219, 244, 258, 
297, 263, -34, -280, 165, 114, -273, -283, 29, 200, 224, 244, 
283, 244, -39, -263, 161, 102, -253, -263, 24, 185, 204, 229, 
253, 229, -24, -241, 139, 102, -219, -234, 19, 165, 175, 204, 
229, 200, -29, -214, 129, 85, -204, -209, 14, 146, 151, 175, 
214, 180, -34, -197, 124, 73, -180, -175, 14, 131, 136, 165, 
190, 161, -29, -175, 109, 65, -161, -146, 14, 107, 122, 146, 
170, 136, -34, -153, 102, 51, -122, -126, 9, 97, 97, 122, 
141, 112, -29, -126, 85, 41, -97, -92, 9, 78, 78, 102, 
126, 92, -34, -109, 80, 29, -73, -63, 9, 63, 63, 87, 
107, 73, -34, -90, 70, 19, -53, -34, 9, 53, 53, 78, 
87, 58, -29, -73, 58, 14, -29, -14, 9, 43, 34, 58, 
73, 34, -39, -53, 56, -2, -19, 9, 9, 34, 24, 39, 
53, 19, -34, -36, 43, -7, -4, 29, 0, 19, 9, 24, 
39, 14, -24, -26, 31, -4, 14, 39, -4, 4, 0, 9, 
24, 9, -14, -17, 19, -2, 24, 53, -9, 0, -14, 9, 
24, -9, -34, -7, 29, -21, 34, 58, -14, -14, -19, 0, 
14, -14, -29, 0, 21, -21, 43, 68, -19, -24, -29, -9, 
14, -14, -29, 0, 21, -21, 53, 68, -19, -24, -29, -19, 
0, -24, -24, 12, 12, -24, 63, 78, -24, -29, -34, -29, 
0, -24, -24, 12, 12, -24, 63, 78, -24, -29, -34, -29, 
-9, -29, -19, 19, 4, -24, 63, 78, -19, -24, -34, -34, 
-9, -39, -29, 24, 9, -34, 63, 78, -24, -24, -39, -34, 
-9, -39, -29, 24, 9, -34, 63, 78, -24, -24, -39, -34, 
-14, -39, -24, 26, 4, -31, 68, 78, -24, -24, -39, -34, 
-14, -39, -24, 26, 4, -31, 68, 78, -24, -24, -39, -34, 
-9, -34, -24, 21, 7, -29, 68, 78, -24, -24, -34, -29, 
-4, -34, -29, 19, 12, -31, 68, 78, -24, -24, -29, -24, 
0, -29, -29, 14, 14, -29, 63, 78, -19, -24, -29, -24, 
0, -19, -19, 9, 9, -19, 58, 78, -14, -19, -24, -14, 
0, -14, -14, 7, 7, -14, 58, 78, -9, -19, -24, -14, 
0, -14, -14, 7, 7, -14, 53, 78, -4, -14, -19, -4, 
-4, -9, -4, 7, 0, -7, 53, 73, -4, -9, -19, -4, 
-9, -14, -4, 12, -2, -9, 53, 63, -4, -14, -19, -4, 
-9, -14, -4, 12, -2, -9, 53, 63, -4, -9, -19, -4, 
-4, -14, -9, 9, 2, -12, 53, 58, 0, -9, -14, -4, 
4, -14, -19, 4, 12, -17, 53, 58, 0, -4, -9, 0, 
9, -9, -19, 0, 14, -14, 53, 53, 0, 0, -4, 4, 
14, 0, -14, -7, 14, -7, 43, 53, 0, 4, 0, 4, 
14, 14, 0, -14, 7, 7, 43, 53, 9, 4, 4, 4, 
19, 24, 4, -21, 7, 14, 48, 53, 9, 9, 4, 9, 
19, 34, 14, -26, 2, 24, 53, 53, 14, 14, 9, 9, 
24, 48, 24, -36, 0, 36, 53, 63, 29, 24, 14, 14, 
34, 68, 34, -51, 0, 51, 53, 73, 48, 39, 19, 19, 
39, 78, 39, -58, 0, 58, 48, 82, 58, 43, 24, 24, 
48, 87, 39, -68, 4, 63, 48, 97, 68, 48, 29, 29, 
58, 92, 34, -75, 12, 63, 43, 97, 68, 48, 29, 29, 
68, 97, 29, -82, 19, 63, 39, 97, 68, 48, 29, 29, 
73, 102, 29, -87, 21, 65, 29, 87, 63, 48, 34, 29, 
78, 107, 29, -92, 24, 68, 9, 63, 58, 48, 39, 29, 
82, 112, 29, -97, 26, 70, -4, 43, 58, 53, 43, 34, 
82, 112, 29, -97, 26, 70, -9, 9, 53, 53, 43, 29, 
78, 97, 19, -87, 29, 58, -19, 0, 39, 43, 39, 29, 
73, 92, 19, -82, 26, 56, -24, 0, 29, 39, 39, 29, 
73, 82, 9, -78, 31, 46, -24, -4, 24, 34, 29, 24, 
73, 78, 4, -75, 34, 41, -34, -9, 14, 29, 24, 19, 
78, 53, -24, -65, 51, 14, -34, -14, -4, 19, 14, 14, 
82, 34, -48, -58, 65, -7, -29, -19, -29, 4, 4, 4, 
82, 24, -58, -53, 70, -17, -24, -24, -34, -4, -4, 0, 
73, 4, -68, -39, 70, -31, -19, -24, -43, -19, -9, -4, 
68, 0, -68, -34, 68, -34, -19, -19, -43, -24, -9, -4, 
63, 0, -63, -31, 63, -31, -19, -24, -43, -24, -14, -4, 
43, -4, -48, -19, 46, -26, -4, -9, -43, -24, -19, -9, 
29, -4, -34, -12, 31, -19, 0, -4, -34, -19, -19, -9, 
19, -4, -24, -7, 21, -14, 9, 4, -34, -19, -19, -14, 
9, -9, -19, 0, 14, -14, 14, 9, -34, -19, -19, -24, 
-4, -19, -14, 12, 4, -17, 9, 9, -34, -29, -29, -24, 
-4, -24, -19, 14, 7, -21, 0, 9, -34, -29, -34, -34, 
-4, -34, -29, 19, 12, -31, 9, 9, -39, -29, -39, -39, 
-14, -34, -19, 24, 2, -26, 9, 9, -39, -34, -39, -39, 
-14, -34, -19, 24, 2, -26, 19, 14, -39, -34, -39, -39, 
-14, -34, -19, 24, 2, -26, 34, 14, -39, -34, -43, -39, 
-19, -39, -19, 29, 0, -29, 34, 14, -39, -39, -43, -39, 
-24, -43, -19, 34, -2, -31, 34, 14, -39, -43, -48, -34, 
-24, -43, -19, 34, -2, -31, 34, 14, -39, -43, -48, -34, 
-24, -43, -19, 34, -2, -31, 34, 14, -39, -43, -48, -34, 
-24, -43, -19, 34, -2, -31, 34, 14, -39, -43, -43, -29, 
-29, -43, -14, 36, -7, -29, 34, 14, -39, -43, -43, -24, 
-29, -39, -9, 34, -9, -24, 29, 14, -39, -39, -43, -24, 
-29, -39, -9, 34, -9, -24, 24, 14, -39, -39, -43, -24, 
-24, -39, -14, 31, -4, -26, 24, 14, -34, -39, -43, -24, 
-19, -39, -19, 29, 0, -29, 24, 14, -34, -39, -43, -29, 
-14, -29, -14, 21, 0, -21, 24, 14, -34, -34, -43, -29, 
-14, -19, -4, 17, -4, -12, 24, 14, -34, -34, -39, -19, 
-19, -4, 14, 12, -17, 4, 29, 4, -19, -24, -29, -14, 
-34, 39, 73, -2, -53, 56, 34, -19, -4, 0, -4, 0, 
-63, 97, 161, -17, -112, 129, 24, -48, 39, 58, 48, 34, 
-78, 175, 253, -48, -165, 214, 19, -82, 107, 141, 131, 92, 
-87, 278, 366, -95, -226, 322, -4, -107, 195, 283, 248, 200, 
-48, 434, 483, -192, -265, 458, -48, -136, 361, 497, 444, 336, 
29, 585, 556, -307, -263, 570, -97, -151, 527, 717, 644, 478, 
136, 678, 541, -407, -202, 610, -126, -151, 653, 844, 761, 561, 
273, 658, 385, -466, -56, 522, -146, -92, 653, 834, 761, 566, 
395, 414, 19, -405, 187, 217, -126, 63, 405, 468, 468, 366, 
468, -239, -707, -114, 588, -473, -29, 331, -136, -278, -185, -48, 
536, -805, -1342, 134, 939, -1073, 87, 546, -556, -829, -717, -463, 
551, -1083, -1634, 265, 1093, -1359, 180, 673, -766, -1083, -985, -702, 
541, -1371, -1912, 414, 1227, -1642, 258, 854, -927, -1302, -1224, -922, 
473, -1639, -2113, 583, 1293, -1876, 341, 1029, -1102, -1546, -1459, -1122, 
424, -1795, -2220, 685, 1322, -2008, 385, 1049, -1254, -1683, -1581, -1234, 
341, -1869, -2210, 763, 1276, -2039, 429, 1058, -1327, -1742, -1644, -1298, 
283, -1869, -2152, 793, 1217, -2010, 458, 1078, -1298, -1703, -1620, -1293, 
214, -1771, -1986, 778, 1100, -1878, 458, 1034, -1234, -1620, -1546, -1234, 
146, -1649, -1795, 751, 971, -1722, 463, 976, -1166, -1503, -1439, -1176, 
39, -1459, -1498, 710, 768, -1478, 473, 902, -1005, -1332, -1288, -1063, 
-63, -1254, -1190, 658, 563, -1222, 488, 854, -824, -1137, -1112, -922, 
-175, -1107, -932, 641, 378, -1019, 541, 873, -673, -990, -976, -819, 
-253, -966, -712, 610, 229, -839, 624, 917, -517, -839, -839, -736, 
-307, -780, -473, 544, 82, -627, 692, 1039, -326, -658, -688, -624, 
-346, -634, -287, 490, -29, -461, 741, 1117, -229, -522, -556, -507, 
-366, -590, -224, 478, -70, -407, 810, 1166, -190, -453, -483, -453, 
-405, -541, -136, 473, -134, -339, 878, 1180, -146, -395, -419, -409, 
-429, -458, -29, 444, -200, -244, 863, 1112, -102, -312, -341, -356, 
-429, -361, 68, 395, -248, -146, 819, 976, -68, -244, -273, -297, 
-419, -336, 82, 378, -251, -126, 761, 814, -58, -234, -253, -268, 
-400, -292, 107, 346, -253, -92, 668, 673, -58, -200, -214, -234, 
-346, -200, 146, 273, -246, -26, 585, 580, -48, -141, -156, -190, 
-312, -161, 151, 236, -231, -4, 541, 527, -34, -122, -136, -151, 
-263, -136, 126, 200, -195, -4, 444, 439, -24, -97, -112, -122, 
-209, -102, 107, 156, -158, 2, 351, 331, -24, -68, -82, -102, 
-146, -43, 102, 95, -124, 29, 258, 263, -14, -34, -43, -58, 
-87, 0, 87, 43, -87, 43, 170, 190, -9, 0, -9, -19, 
-34, 14, 48, 9, -41, 31, 87, 92, 0, 19, 9, -4, 
-4, 43, 48, -19, -26, 46, 19, 9, 9, 34, 24, 9, 
4, 68, 63, -36, -29, 65, 9, 0, 19, 48, 39, 34, 
24, 78, 53, -51, -14, 65, 4, -4, 19, 53, 43, 53, 
34, 78, 43, -56, -4, 61, -9, -29, 24, 53, 48, 53, 
29, 87, 58, -58, -14, 73, -24, -43, 19, 63, 53, 53, 
34, 97, 63, -65, -14, 80, -39, -53, 19, 63, 58, 63, 
39, 97, 58, -68, -9, 78, -48, -58, 19, 63, 63, 68, 
43, 97, 53, -70, -4, 75, -58, -68, 24, 73, 73, 68, 
48, 97, 48, -73, 0, 73, -58, -68, 24, 73, 73, 68, 
53, 102, 48, -78, 2, 75, -63, -73, 29, 73, 73, 78, 
58, 107, 48, -82, 4, 78, -68, -78, 29, 68, 73, 78, 
63, 122, 58, -92, 2, 90, -78, -82, 29, 73, 78, 73, 
63, 136, 73, -100, -4, 104, -87, -87, 29, 82, 87, 73, 
73, 136, 63, -104, 4, 100, -92, -97, 34, 82, 87, 73, 
78, 131, 53, -104, 12, 92, -92, -107, 34, 87, 87, 68, 
78, 136, 58, -107, 9, 97, -87, -117, 34, 87, 92, 68, 
78, 141, 63, -109, 7, 102, -92, -126, 34, 87, 92, 68, 
92, 156, 63, -124, 14, 109, -97, -131, 39, 97, 97, 68, 
92, 165, 73, -129, 9, 119, -102, -136, 39, 102, 102, 68, 
97, 175, 78, -136, 9, 126, -117, -141, 39, 112, 107, 78, 
102, 180, 78, -141, 12, 129, -126, -146, 39, 122, 112, 82, 
112, 190, 78, -151, 17, 134, -131, -146, 39, 126, 122, 87, 
112, 195, 82, -153, 14, 139, -126, -151, 43, 131, 126, 87, 
117, 204, 87, -161, 14, 146, -131, -161, 43, 131, 131, 92, 
122, 219, 97, -170, 12, 158, -141, -170, 43, 141, 146, 102, 
136, 234, 97, -185, 19, 165, -165, -180, 43, 151, 156, 102, 
146, 244, 97, -195, 24, 170, -190, -195, 48, 156, 165, 112, 
146, 248, 102, -197, 21, 175, -195, -209, 48, 170, 180, 117, 
170, 263, 92, -217, 39, 178, -195, -214, 53, 175, 190, 122, 
185, 268, 82, -226, 51, 175, -204, -239, 48, 185, 200, 131, 
204, 292, 87, -248, 58, 190, -214, -258, 48, 195, 209, 141, 
214, 302, 87, -258, 63, 195, -234, -273, 48, 204, 229, 141, 
234, 312, 78, -273, 78, 195, -248, -287, 48, 219, 239, 151, 
258, 331, 73, -295, 92, 202, -258, -297, 53, 229, 248, 156, 
268, 346, 78, -307, 95, 212, -268, -307, 58, 234, 258, 170, 
263, 356, 92, -309, 85, 224, -283, -326, 53, 234, 268, 165, 
287, 361, 73, -324, 107, 217, -307, -336, 53, 244, 273, 161, 
297, 375, 78, -336, 109, 226, -312, -356, 48, 248, 287, 165, 
302, 375, 73, -339, 114, 224, -322, -366, 43, 253, 292, 170, 
322, 385, 63, -353, 129, 224, -331, -375, 43, 258, 292, 161, 
336, 380, 43, -358, 146, 212, -341, -385, 43, 268, 292, 156, 
346, 385, 39, -366, 153, 212, -351, -385, 48, 268, 297, 156, 
351, 385, 34, -368, 158, 209, -351, -380, 48, 268, 297, 151, 
356, 380, 24, -368, 165, 202, -351, -375, 48, 268, 292, 146, 
361, 375, 14, -368, 173, 195, -351, -375, 43, 263, 287, 136, 
361, 366, 4, -363, 178, 185, -341, -366, 39, 239, 268, 122, 
361, 356, -4, -358, 183, 175, -341, -351, 34, 229, 253, 97, 
341, 326, -14, -334, 178, 156, -326, -341, 29, 219, 239, 73, 
336, 317, -19, -326, 178, 148, -302, -317, 24, 200, 214, 53, 
326, 292, -34, -309, 180, 129, -297, -292, 24, 185, 200, 39, 
312, 273, -39, -292, 175, 117, -292, -273, 24, 175, 185, 24, 
283, 258, -24, -270, 153, 117, -258, -239, 24, 156, 156, 0, 
258, 229, -29, -244, 143, 100, -244, -209, 24, 136, 131, -29, 
239, 209, -29, -224, 134, 90, -209, -175, 24, 122, 117, -39, 
209, 190, -19, -200, 114, 85, -185, -146, 24, 97, 97, -58, 
190, 165, -24, -178, 107, 70, -165, -126, 14, 87, 68, -82, 
161, 141, -19, -151, 90, 61, -156, -92, 9, 68, 48, -102, 
141, 122, -19, -131, 80, 51, -112, -58, 9, 53, 34, -117, 
117, 102, -14, -109, 65, 43, -73, -24, 9, 39, 24, -126, 
97, 92, -4, -95, 51, 43, -48, -4, 9, 29, 4, -146, 
87, 73, -14, -80, 51, 29, -34, 19, 9, 24, -4, -165, 
73, 58, -14, -65, 43, 21, -24, 39, 0, 9, -19, -180, 
58, 48, -9, -53, 34, 19, -14, 48, -4, -4, -29, -195, 
53, 39, -14, -46, 34, 12, -4, 63, -9, -9, -39, -200, 
58, 19, -39, -39, 48, -9, 4, 68, -14, -19, -39, -214, 
43, 14, -29, -29, 36, -7, 24, 78, -19, -29, -48, -224, 
43, 14, -29, -29, 36, -7, 43, 78, -19, -34, -48, -234, 
24, 4, -19, -14, 21, -7, 43, 87, -24, -39, -58, -248, 
19, 4, -14, -12, 17, -4, 34, 87, -29, -43, -63, -253, 
9, 0, -9, -4, 9, -4, 34, 87, -29, -43, -63, -268, 
9, -9, -19, 0, 14, -14, 34, 87, -34, -43, -68, -278, 
9, -9, -19, 0, 14, -14, 34, 87, -34, -43, -63, -278, 
4, -9, -14, 2, 9, -12, 39, 87, -34, -43, -58, -278, 
4, -4, -9, 0, 7, -7, 43, 87, -34, -43, -58, -278, 
4, 4, 0, -4, 2, 2, 48, 87, -34, -43, -58, -273, 
4, 4, 0, -4, 2, 2, 48, 87, -34, -43, -58, -278, 
9, 4, -4, -7, 7, 0, 43, 87, -29, -43, -58, -287, 
9, 9, 0, -9, 4, 4, 29, 87, -24, -39, -53, -283, 
9, 14, 4, -12, 2, 9, 19, 87, -24, -39, -53, -287, 
0, 9, 9, -4, -4, 9, 24, 87, -19, -34, -48, -283, 
-9, 14, 24, -2, -17, 19, 34, 87, -14, -24, -43, -287, 
-9, 14, 24, -2, -17, 19, 34, 82, -14, -24, -43, -292, 
-9, 14, 24, -2, -17, 19, 34, 82, -14, -19, -48, -297, 
-4, 14, 19, -4, -12, 17, 34, 78, -9, -19, -43, -302, 
0, 14, 14, -7, -7, 14, 34, 78, -9, -19, -43, -307, 
0, 24, 24, -12, -12, 24, 34, 73, -9, -14, -39, -312, 
4, 34, 29, -19, -12, 31, 24, 73, -9, -4, -29, -317, 
9, 43, 34, -26, -12, 39, 24, 78, 0, -4, -24, -317, 
19, 53, 34, -36, -7, 43, 24, 82, 0, 0, -24, -317, 
19, 58, 39, -39, -9, 48, 29, 82, 0, -4, -24, -322, 
24, 73, 48, -48, -12, 61, 34, 87, 9, 4, -14, -322, 
24, 82, 58, -53, -17, 70, 34, 97, 29, 14, 0, -312, 
29, 97, 68, -63, -19, 82, 39, 107, 48, 29, 9, -302, 
39, 107, 68, -73, -14, 87, 39, 112, 48, 29, 9, -292, 
48, 117, 68, -82, -9, 92, 39, 117, 48, 29, 9, -283, 
53, 117, 63, -85, -4, 90, 24, 117, 48, 29, 9, -263, 
63, 122, 58, -92, 2, 90, 14, 112, 48, 29, 9, -244, 
73, 126, 53, -100, 9, 90, 9, 107, 48, 34, 14, -224, 
73, 122, 48, -97, 12, 85, -4, 73, 48, 34, 14, -204, 
68, 122, 53, -95, 7, 87, -9, 39, 39, 34, 14, -185, 
63, 107, 43, -85, 9, 75, -19, 29, 19, 24, 9, -165, 
63, 102, 39, -82, 12, 70, -29, 29, 9, 19, 9, -156, 
63, 97, 34, -80, 14, 65, -34, 29, 4, 14, 0, -146, 
68, 97, 29, -82, 19, 63, -43, 29, 0, 9, -4, -141, 
73, 73, 0, -73, 36, 36, -43, 24, -14, 0, -14, -141, 
73, 53, -19, -63, 46, 17, -39, 9, -39, -14, -24, -141, 
73, 43, -29, -58, 51, 7, -34, -4, -43, -24, -34, -136, 
58, 24, -34, -41, 46, -4, -19, 4, -53, -39, -39, -131, 
48, 19, -29, -34, 39, -4, -9, 14, -53, -39, -39, -122, 
43, 19, -24, -31, 34, -2, -9, 4, -58, -43, -48, -112, 
29, 14, -14, -21, 21, 0, 4, 19, -63, -53, -53, -107, 
19, 14, -4, -17, 12, 4, 4, 24, -53, -48, -48, -97, 
9, 14, 4, -12, 2, 9, 9, 34, -53, -48, -48, -92, 
0, 9, 9, -4, -4, 9, 14, 39, -53, -48, -48, -92, 
-14, 0, 14, 7, -14, 7, 19, 39, -53, -58, -58, -82, 
-14, -9, 4, 12, -9, -2, 19, 39, -53, -58, -63, -82, 
-14, -24, -9, 19, -2, -17, 29, 39, -58, -58, -68, -78, 
-24, -24, 0, 24, -12, -12, 29, 39, -58, -58, -68, -78, 
-24, -24, 0, 24, -12, -12, 29, 43, -58, -53, -63, -78, 
-19, -24, -4, 21, -7, -14, 34, 43, -58, -53, -63, -78, 
-14, -29, -14, 21, 0, -21, 34, 43, -58, -53, -63, -82, 
-14, -34, -19, 24, 2, -26, 34, 34, -58, -58, -68, -97, 
-14, -34, -19, 24, 2, -26, 34, 24, -58, -63, -68, -112, 
-19, -34, -14, 26, -2, -24, 34, 24, -58, -63, -68, -117, 
-24, -34, -9, 29, -7, -21, 34, 24, -58, -63, -63, -122, 
-29, -34, -4, 31, -12, -19, 34, 24, -58, -63, -68, -126, 
-29, -29, 0, 29, -14, -14, 34, 24, -58, -58, -73, -131, 
-29, -29, 0, 29, -14, -14, 34, 24, -63, -58, -73, -136, 
-29, -29, 0, 29, -14, -14, 34, 24, -63, -58, -73, -136, 
-29, -29, 0, 29, -14, -14, 34, 19, -63, -58, -73, -136, 
-24, -24, 0, 24, -12, -12, 34, 14, -63, -53, -73, -136, 
-24, -19, 4, 21, -14, -7, 34, 14, -63, -53, -68, -126, 
-29, -4, 24, 17, -26, 9, 34, 4, -48, -43, -58, -122, 
-43, 39, 82, 2, -63, 61, 39, -19, -29, -14, -29, -102, 
-73, 97, 170, -12, -122, 134, 34, -43, 14, 48, 29, -63, 
-87, 175, 263, -43, -175, 219, 29, -73, 78, 131, 112, 0, 
-97, 273, 370, -87, -234, 322, 9, -97, 165, 268, 229, 107, 
-58, 419, 478, -180, -268, 448, -29, -126, 331, 463, 409, 239, 
19, 566, 546, -292, -263, 556, -78, -141, 492, 668, 595, 380, 
136, 658, 522, -397, -192, 590, -107, -131, 610, 785, 702, 463, 
268, 639, 370, -453, -51, 505, -122, -82, 605, 775, 692, 483, 
375, 395, 19, -385, 178, 207, -97, 53, 351, 429, 409, 307, 
448, -258, -707, -95, 578, -483, 0, 322, -195, -326, -244, -107, 
527, -814, -1342, 143, 934, -1078, 117, 546, -614, -883, -771, -512, 
551, -1088, -1639, 268, 1095, -1363, 204, 668, -824, -1122, -1024, -732, 
517, -1381, -1898, 431, 1207, -1639, 287, 834, -985, -1342, -1263, -946, 
429, -1659, -2088, 614, 1259, -1873, 380, 1010, -1161, -1586, -1503, -1141, 
385, -1815, -2200, 714, 1293, -2008, 414, 1034, -1307, -1712, -1620, -1254, 
302, -1878, -2181, 788, 1241, -2030, 444, 1039, -1376, -1766, -1678, -1322, 
239, -1878, -2117, 819, 1178, -1998, 468, 1063, -1337, -1732, -1659, -1307, 
170, -1781, -1952, 805, 1061, -1866, 468, 1029, -1268, -1649, -1586, -1239, 
107, -1649, -1756, 771, 932, -1703, 483, 971, -1195, -1517, -1468, -1180, 
0, -1449, -1449, 724, 724, -1449, 497, 902, -1024, -1332, -1307, -1063, 
-117, -1263, -1146, 690, 514, -1205, 527, 863, -854, -1151, -1141, -922, 
-234, -1127, -893, 680, 329, -1010, 590, 902, -712, -1015, -1010, -819, 
-287, -980, -692, 634, 202, -836, 663, 961, -556, -858, -868, -741, 
-326, -795, -468, 561, 70, -631, 732, 1088, -356, -673, -712, -629, 
-375, -658, -283, 517, -46, -470, 790, 1166, -253, -546, -585, -522, 
-395, -624, -229, 509, -82, -427, 854, 1224, -219, -488, -522, -483, 
-424, -556, -131, 490, -146, -344, 897, 1210, -180, -424, -463, -453, 
-448, -458, -9, 453, -219, -234, 897, 1117, -136, -341, -390, -405, 
-444, -361, 82, 402, -263, -139, 854, 980, -97, -273, -322, -336, 
-439, -341, 97, 390, -268, -122, 785, 819, -87, -263, -302, -307, 
-424, -302, 122, 363, -273, -90, 707, 692, -87, -229, -263, -273, 
-366, -209, 156, 287, -261, -26, 610, 585, -82, -170, -200, -224, 
-322, -170, 151, 246, -236, -9, 546, 512, -73, -151, -175, -180, 
-263, -146, 117, 204, -190, -14, 458, 429, -63, -126, -151, -151, 
-209, -117, 92, 163, -151, -12, 375, 331, -63, -97, -126, -136, 
-156, -63, 92, 109, -124, 14, 283, 268, -48, -63, -92, -97, 
-107, -19, 87, 63, -97, 34, 200, 200, -43, -39, -58, -58, 
-53, 0, 53, 26, -53, 26, 117, 102, -39, -29, -39, -43, 
-24, 34, 58, -4, -41, 46, 48, 19, -34, -14, -24, -29, 
-14, 58, 73, -21, -43, 65, 29, 9, -29, 4, -4, -4, 
4, 63, 58, -34, -26, 61, 14, 9, -29, 14, 4, 14, 
19, 58, 39, -39, -9, 48, 0, -9, -19, 14, 9, 14, 
19, 63, 43, -41, -12, 53, -9, -24, -19, 24, 14, 14, 
24, 68, 43, -46, -9, 56, -14, -34, -19, 24, 19, 24, 
24, 68, 43, -46, -9, 56, -19, -39, -19, 24, 24, 34, 
24, 73, 48, -48, -12, 61, -29, -53, -14, 34, 34, 39, 
24, 78, 53, -51, -14, 65, -24, -58, -14, 34, 34, 39, 
24, 82, 58, -53, -17, 70, -24, -63, -9, 39, 34, 53, 
29, 82, 53, -56, -12, 68, -29, -68, -9, 34, 34, 63, 
34, 82, 48, -58, -7, 65, -34, -73, -9, 34, 39, 68, 
39, 87, 48, -63, -4, 68, -39, -78, -9, 43, 43, 73, 
53, 97, 43, -75, 4, 70, -43, -82, -4, 43, 43, 82, 
58, 102, 43, -80, 7, 73, -43, -87, -4, 48, 48, 87, 
58, 107, 48, -82, 4, 78, -43, -92, -4, 48, 53, 92, 
48, 112, 63, -80, -7, 87, -53, -97, -4, 48, 58, 97, 
53, 117, 63, -85, -4, 90, -58, -102, 0, 58, 68, 97, 
