I, II, III, aVR, aVL, aVF, V1, V2, V3, V4, V5, V6, 
-126, -29, 97, 78, -112, 34, 126, -185, -156, -214, -263, -204, 
-126, -29, 97, 78, -112, 34, 126, -185, -156, -214, -263, -204, 
-126, -29, 97, 78, -112, 34, 126, -185, -156, -214, -263, -204, 
-126, -29, 97, 78, -112, 34, 126, -185, -156, -214, -263, -204, 
-122, -34, 87, 78, -104, 26, 136, -141, -107, -175, -224, -175, 
-117, -39, 78, 78, -97, 19, 136, -97, -68, -136, -185, -156, 
-112, -43, 68, 78, -90, 12, 136, -53, -29, -97, -146, -136, 
-107, -48, 58, 78, -82, 4, 136, -9, 9, -58, -107, -117, 
-92, -48, 43, 70, -68, -2, 126, 0, 14, -48, -92, -112, 
-87, -48, 39, 68, -63, -4, 117, 9, 19, -39, -87, -107, 
-82, -48, 34, 65, -58, -7, 107, 19, 24, -29, -82, -102, 
-78, -48, 29, 63, -53, -9, 97, 29, 29, -19, -78, -97, 
-68, -63, 4, 65, -36, -29, 107, 39, 43, -4, -63, -82, 
-68, -68, 0, 68, -34, -34, 107, 48, 48, 0, -58, -78, 
-68, -73, -4, 70, -31, -39, 107, 58, 53, 4, -53, -73, 
-68, -78, -9, 73, -29, -43, 107, 68, 58, 9, -48, -68, 
-58, -68, -9, 63, -24, -39, 102, 78, 58, 9, -39, -68, 
-58, -58, 0, 58, -29, -29, 97, 78, 58, 9, -39, -68, 
-58, -48, 9, 53, -34, -19, 92, 78, 58, 9, -39, -68, 
-58, -39, 19, 48, -39, -9, 87, 78, 58, 9, -39, -68, 
-58, -43, 14, 51, -36, -14, 97, 82, 63, 14, -29, -58, 
-58, -48, 9, 53, -34, -19, 97, 87, 68, 19, -29, -58, 
-58, -53, 4, 56, -31, -24, 97, 92, 73, 24, -29, -58, 
-58, -58, 0, 58, -29, -29, 97, 97, 78, 29, -29, -58, 
-58, -48, 9, 53, -34, -19, 92, 97, 87, 39, -29, -68, 
-58, -48, 9, 53, -34, -19, 87, 97, 87, 39, -29, -68, 
-58, -48, 9, 53, -34, -19, 82, 97, 87, 39, -29, -68, 
-58, -48, 9, 53, -34, -19, 78, 97, 87, 39, -29, -68, 
-58, -53, 4, 56, -31, -24, 82, 112, 97, 43, -24, -63, 
-58, -58, 0, 58, -29, -29, 87, 117, 97, 48, -19, -58, 
-58, -63, -4, 61, -26, -34, 92, 122, 97, 53, -14, -53, 
-58, -68, -9, 63, -24, -39, 97, 126, 97, 58, -9, -48, 
-58, -53, 4, 56, -31, -24, 87, 136, 107, 58, -9, -48, 
-58, -48, 9, 53, -34, -19, 87, 136, 107, 58, -9, -48, 
-58, -43, 14, 51, -36, -14, 87, 136, 107, 58, -9, -48, 
-58, -39, 19, 48, -39, -9, 87, 136, 107, 58, -9, -48, 
-58, -53, 4, 56, -31, -24, 97, 151, 112, 63, 4, -39, 
-58, -58, 0, 58, -29, -29, 97, 156, 117, 68, 9, -39, 
-58, -63, -4, 61, -26, -34, 97, 161, 122, 73, 14, -39, 
-58, -68, -9, 63, -24, -39, 97, 165, 126, 78, 19, -39, 
-58, -63, -4, 61, -26, -34, 97, 175, 136, 87, 29, -39, 
-58, -58, 0, 58, -29, -29, 97, 175, 136, 87, 29, -39, 
-58, -53, 4, 56, -31, -24, 97, 175, 136, 87, 29, -39, 
-58, -48, 9, 53, -34, -19, 97, 175, 136, 87, 29, -39, 
-58, -58, 0, 58, -29, -29, 107, 180, 141, 92, 39, -29, 
-58, -58, 0, 58, -29, -29, 107, 185, 146, 97, 39, -29, 
-58, -58, 0, 58, -29, -29, 107, 190, 151, 102, 39, -29, 
-58, -58, 0, 58, -29, -29, 107, 195, 156, 107, 39, -29, 
-48, -53, -4, 51, -21, -29, 97, 200, 165, 112, 43, -19, 
-48, -48, 0, 48, -24, -24, 97, 204, 165, 117, 48, -19, 
-48, -43, 4, 46, -26, -19, 97, 209, 165, 122, 53, -19, 
-48, -39, 9, 43, -29, -14, 97, 214, 165, 126, 58, -19, 
-58, -48, 9, 53, -34, -19, 107, 219, 170, 131, 63, -9, 
-58, -48, 9, 53, -34, -19, 107, 224, 175, 136, 68, -9, 
-58, -48, 9, 53, -34, -19, 107, 229, 180, 141, 73, -9, 
-58, -48, 9, 53, -34, -19, 107, 234, 185, 146, 78, -9, 
-48, -43, 4, 46, -26, -19, 107, 248, 190, 151, 87, 0, 
-48, -39, 9, 43, -29, -14, 107, 253, 195, 156, 87, 0, 
-48, -34, 14, 41, -31, -9, 107, 258, 200, 161, 87, 0, 
-48, -29, 19, 39, -34, -4, 107, 263, 204, 165, 87, 0, 
-48, -39, 9, 43, -29, -14, 117, 278, 209, 170, 102, 4, 
-48, -39, 9, 43, -29, -14, 117, 283, 214, 175, 107, 9, 
-48, -39, 9, 43, -29, -14, 117, 287, 219, 180, 112, 14, 
-48, -39, 9, 43, -29, -14, 117, 292, 224, 185, 117, 19, 
-48, -34, 14, 41, -31, -9, 117, 307, 229, 190, 126, 9, 
-48, -29, 19, 39, -34, -4, 117, 312, 234, 195, 126, 9, 
-48, -24, 24, 36, -36, 0, 117, 317, 239, 200, 126, 9, 
-48, -19, 29, 34, -39, 4, 117, 322, 244, 204, 126, 9, 
-39, -29, 9, 34, -24, -9, 126, 331, 253, 214, 131, 14, 
-39, -29, 9, 34, -24, -9, 126, 341, 263, 224, 136, 19, 
-39, -29, 9, 34, -24, -9, 126, 351, 273, 234, 141, 24, 
-39, -29, 9, 34, -24, -9, 126, 361, 283, 244, 146, 29, 
-39, -19, 19, 29, -29, 0, 126, 375, 292, 253, 151, 39, 
-39, -9, 29, 24, -34, 9, 126, 380, 292, 253, 156, 39, 
-39, 0, 39, 19, -39, 19, 126, 385, 292, 253, 161, 39, 
-39, 9, 48, 14, -43, 29, 126, 390, 292, 253, 165, 39, 
-39, 0, 39, 19, -39, 19, 126, 409, 302, 263, 180, 43, 
-39, 0, 39, 19, -39, 19, 126, 419, 312, 273, 185, 48, 
-39, 0, 39, 19, -39, 19, 126, 429, 322, 283, 190, 53, 
-39, 0, 39, 19, -39, 19, 126, 439, 331, 292, 195, 58, 
-29, 9, 39, 9, -34, 24, 131, 458, 341, 307, 209, 68, 
-29, 9, 39, 9, -34, 24, 136, 468, 351, 312, 214, 68, 
-29, 9, 39, 9, -34, 24, 141, 478, 361, 317, 219, 68, 
-29, 9, 39, 9, -34, 24, 146, 488, 370, 322, 224, 68, 
-29, 14, 43, 7, -36, 29, 156, 497, 385, 331, 239, 78, 
-29, 19, 48, 4, -39, 34, 156, 507, 390, 341, 244, 78, 
-29, 24, 53, 2, -41, 39, 156, 517, 395, 351, 248, 78, 
-29, 29, 58, 0, -43, 43, 156, 527, 400, 361, 253, 78, 
-19, 39, 58, -9, -39, 48, 165, 541, 419, 370, 268, 82, 
-19, 39, 58, -9, -39, 48, 165, 556, 429, 380, 273, 87, 
-19, 39, 58, -9, -39, 48, 165, 570, 439, 390, 278, 92, 
-19, 39, 58, -9, -39, 48, 165, 585, 448, 400, 283, 97, 
-19, 43, 63, -12, -41, 53, 165, 600, 453, 405, 287, 97, 
-19, 48, 68, -14, -43, 58, 165, 605, 458, 409, 292, 97, 
-19, 53, 73, -17, -46, 63, 165, 610, 463, 414, 297, 97, 
-19, 58, 78, -19, -48, 68, 165, 614, 468, 419, 302, 97, 
-29, 48, 78, -9, -53, 63, 180, 629, 488, 439, 317, 112, 
-29, 48, 78, -9, -53, 63, 185, 644, 497, 448, 322, 117, 
-29, 48, 78, -9, -53, 63, 190, 658, 507, 458, 326, 122, 
-29, 48, 78, -9, -53, 63, 195, 673, 517, 468, 331, 126, 
-29, 53, 82, -12, -56, 68, 185, 688, 531, 483, 336, 126, 
-29, 58, 87, -14, -58, 73, 185, 692, 536, 488, 341, 126, 
-29, 63, 92, -17, -61, 78, 185, 697, 541, 492, 346, 126, 
-29, 68, 97, -19, -63, 82, 185, 702, 546, 497, 351, 126, 
-29, 68, 97, -19, -63, 82, 190, 712, 556, 512, 366, 136, 
-29, 68, 97, -19, -63, 82, 195, 722, 566, 517, 370, 136, 
-29, 68, 97, -19, -63, 82, 200, 732, 575, 522, 375, 136, 
-29, 68, 97, -19, -63, 82, 204, 741, 585, 527, 380, 136, 
-19, 82, 102, -31, -61, 92, 195, 746, 590, 536, 390, 136, 
-19, 87, 107, -34, -63, 97, 195, 751, 595, 536, 390, 136, 
-19, 92, 112, -36, -65, 102, 195, 756, 600, 536, 390, 136, 
-19, 97, 117, -39, -68, 107, 195, 761, 605, 536, 390, 136, 
-29, 87, 117, -29, -73, 102, 200, 766, 610, 551, 400, 141, 
-29, 87, 117, -29, -73, 102, 204, 771, 614, 556, 400, 146, 
-29, 87, 117, -29, -73, 102, 209, 775, 619, 561, 400, 151, 
-29, 87, 117, -29, -73, 102, 214, 780, 624, 566, 400, 156, 
-29, 102, 131, -36, -80, 117, 209, 775, 614, 556, 400, 146, 
-29, 107, 136, -39, -82, 122, 204, 771, 614, 556, 400, 146, 
-29, 112, 141, -41, -85, 126, 200, 766, 614, 556, 400, 146, 
-29, 117, 146, -43, -87, 131, 195, 761, 614, 556, 400, 146, 
-29, 112, 141, -41, -85, 126, 204, 756, 614, 556, 409, 156, 
-29, 107, 136, -39, -82, 122, 204, 751, 614, 556, 409, 156, 
-29, 102, 131, -36, -80, 117, 204, 746, 614, 556, 409, 156, 
-29, 97, 126, -34, -78, 112, 204, 741, 614, 556, 409, 156, 
-29, 107, 136, -39, -82, 122, 195, 722, 605, 536, 390, 151, 
-29, 117, 146, -43, -87, 131, 185, 702, 595, 527, 380, 146, 
-29, 126, 156, -48, -92, 141, 175, 683, 585, 517, 370, 141, 
-29, 136, 165, -53, -97, 151, 165, 663, 575, 507, 361, 136, 
-39, 126, 165, -43, -102, 146, 165, 644, 561, 497, 356, 146, 
-39, 117, 156, -39, -97, 136, 165, 624, 546, 488, 351, 146, 
-39, 107, 146, -34, -92, 126, 165, 605, 531, 478, 346, 146, 
-39, 97, 136, -29, -87, 117, 165, 585, 517, 468, 341, 146, 
-29, 112, 141, -41, -85, 126, 151, 556, 488, 448, 322, 131, 
-29, 117, 146, -43, -87, 131, 136, 527, 468, 429, 312, 126, 
-29, 122, 151, -46, -90, 136, 122, 497, 448, 409, 302, 122, 
-29, 126, 156, -48, -92, 141, 107, 468, 429, 390, 292, 117, 
-19, 112, 131, -46, -75, 122, 102, 434, 409, 366, 273, 117, 
-19, 107, 126, -43, -73, 117, 97, 409, 390, 351, 263, 117, 
-19, 102, 122, -41, -70, 112, 92, 385, 370, 336, 253, 117, 
-19, 97, 117, -39, -68, 107, 87, 361, 351, 322, 244, 117, 
-19, 97, 117, -39, -68, 107, 78, 326, 322, 292, 219, 107, 
-19, 97, 117, -39, -68, 107, 68, 302, 302, 273, 204, 97, 
-19, 97, 117, -39, -68, 107, 58, 278, 283, 253, 190, 87, 
-19, 97, 117, -39, -68, 107, 48, 253, 263, 234, 175, 78, 
-9, 87, 97, -39, -53, 92, 43, 229, 244, 209, 165, 68, 
-9, 78, 87, -34, -48, 82, 39, 204, 224, 195, 156, 68, 
-9, 68, 78, -29, -43, 73, 34, 180, 204, 180, 146, 68, 
-9, 58, 68, -24, -39, 63, 29, 156, 185, 165, 136, 68, 
-9, 68, 78, -29, -43, 73, 19, 136, 165, 141, 117, 63, 
-9, 68, 78, -29, -43, 73, 9, 117, 146, 126, 107, 58, 
-9, 68, 78, -29, -43, 73, 0, 97, 126, 112, 97, 53, 
-9, 68, 78, -29, -43, 73, -9, 78, 107, 97, 87, 48, 
0, 58, 58, -29, -29, 58, -9, 58, 97, 87, 73, 39, 
0, 48, 48, -24, -24, 48, -9, 48, 87, 78, 68, 39, 
0, 39, 39, -19, -19, 39, -9, 39, 78, 68, 63, 39, 
0, 29, 29, -14, -14, 29, -9, 29, 68, 58, 58, 39, 
0, 24, 24, -12, -12, 24, -19, 19, 48, 39, 48, 34, 
0, 19, 19, -9, -9, 19, -19, 9, 39, 29, 39, 29, 
0, 14, 14, -7, -7, 14, -19, 0, 29, 19, 29, 24, 
0, 9, 9, -4, -4, 9, -19, -9, 19, 9, 19, 19, 
0, 0, 0, 0, 0, 0, -29, -24, 4, -4, 4, 14, 
0, 0, 0, 0, 0, 0, -29, -29, 0, -9, 0, 9, 
0, 0, 0, 0, 0, 0, -29, -34, -4, -14, -4, 4, 
0, 0, 0, 0, 0, 0, -29, -39, -9, -19, -9, 0, 
-9, -9, 0, 9, -4, -4, -29, -48, -14, -24, -19, 0, 
-9, -9, 0, 9, -4, -4, -29, -48, -19, -29, -19, 0, 
-9, -9, 0, 9, -4, -4, -29, -48, -24, -34, -19, 0, 
-9, -9, 0, 9, -4, -4, -29, -48, -29, -39, -19, 0, 
-9, -14, -4, 12, -2, -9, -29, -58, -29, -39, -19, 9, 
-9, -19, -9, 14, 0, -14, -29, -58, -29, -39, -19, 9, 
-9, -24, -14, 17, 2, -19, -29, -58, -29, -39, -19, 9, 
-9, -29, -19, 19, 4, -24, -29, -58, -29, -39, -19, 9, 
-9, -29, -19, 19, 4, -24, -29, -68, -39, -48, -29, 4, 
-9, -29, -19, 19, 4, -24, -29, -68, -39, -48, -29, 0, 
-9, -29, -19, 19, 4, -24, -29, -68, -39, -48, -29, -4, 
-9, -29, -19, 19, 4, -24, -29, -68, -39, -48, -29, -9, 
-9, -19, -9, 14, 0, -14, -39, -78, -48, -58, -34, -19, 
-9, -19, -9, 14, 0, -14, -39, -78, -48, -58, -39, -19, 
-9, -19, -9, 14, 0, -14, -39, -78, -48, -58, -43, -19, 
-9, -19, -9, 14, 0, -14, -39, -78, -48, -58, -48, -19, 
-9, -24, -14, 17, 2, -19, -29, -68, -39, -48, -43, -14, 
-9, -29, -19, 19, 4, -24, -29, -68, -39, -48, -39, -9, 
-9, -34, -24, 21, 7, -29, -29, -68, -39, -48, -34, -4, 
-9, -39, -29, 24, 9, -34, -29, -68, -39, -48, -29, 0, 
-9, -29, -19, 19, 4, -24, -29, -78, -39, -48, -34, -4, 
-9, -29, -19, 19, 4, -24, -29, -78, -39, -48, -39, -9, 
-9, -29, -19, 19, 4, -24, -29, -78, -39, -48, -43, -14, 
-9, -29, -19, 19, 4, -24, -29, -78, -39, -48, -48, -19, 
-9, -29, -19, 19, 4, -24, -19, -78, -39, -58, -48, -19, 
-9, -29, -19, 19, 4, -24, -19, -78, -39, -58, -48, -19, 
-9, -29, -19, 19, 4, -24, -19, -78, -39, -58, -48, -19, 
-9, -29, -19, 19, 4, -24, -19, -78, -39, -58, -48, -19, 
-19, -29, -9, 24, -4, -19, -29, -68, -39, -48, -48, -29, 
-19, -29, -9, 24, -4, -19, -29, -68, -39, -48, -48, -29, 
-19, -29, -9, 24, -4, -19, -29, -68, -39, -48, -48, -29, 
-19, -29, -9, 24, -4, -19, -29, -68, -39, -48, -48, -29, 
-29, -34, -4, 31, -12, -19, -24, -58, -29, -39, -48, -19, 
-29, -39, -9, 34, -9, -24, -19, -58, -29, -39, -48, -19, 
-29, -43, -14, 36, -7, -29, -14, -58, -29, -39, -48, -19, 
-29, -48, -19, 39, -4, -34, -9, -58, -29, -39, -48, -19, 
-29, -39, -9, 34, -9, -24, -19, -63, -29, -48, -48, -19, 
-29, -39, -9, 34, -9, -24, -19, -68, -29, -48, -48, -19, 
-29, -39, -9, 34, -9, -24, -19, -73, -29, -48, -48, -19, 
-29, -39, -9, 34, -9, -24, -19, -78, -29, -48, -48, -19, 
-29, -48, -19, 39, -4, -34, -14, -68, -19, -43, -39, -19, 
-29, -48, -19, 39, -4, -34, -9, -68, -19, -39, -39, -19, 
-29, -48, -19, 39, -4, -34, -4, -68, -19, -34, -39, -19, 
-29, -48, -19, 39, -4, -34, 0, -68, -19, -29, -39, -19, 
-39, -43, -4, 41, -17, -24, -9, -68, -19, -39, -48, -29, 
-39, -39, 0, 39, -19, -19, -9, -68, -19, -39, -48, -29, 
-39, -34, 4, 36, -21, -14, -9, -68, -19, -39, -48, -29, 
-39, -29, 9, 34, -24, -9, -9, -68, -19, -39, -48, -29, 
-48, -43, 4, 46, -26, -19, -4, -58, -9, -39, -39, -19, 
-48, -48, 0, 48, -24, -24, 0, -58, -9, -39, -39, -19, 
-48, -53, -4, 51, -21, -29, 4, -58, -9, -39, -39, -19, 
-48, -58, -9, 53, -19, -34, 9, -58, -9, -39, -39, -19, 
-48, -48, 0, 48, -24, -24, 0, -63, -19, -48, -48, -29, 
-48, -48, 0, 48, -24, -24, 0, -68, -19, -48, -48, -29, 
-48, -48, 0, 48, -24, -24, 0, -73, -19, -48, -48, -29, 
-48, -48, 0, 48, -24, -24, 0, -78, -19, -48, -48, -29, 
-48, -63, -14, 56, -17, -39, 4, -68, -9, -43, -39, -19, 
-48, -68, -19, 58, -14, -43, 9, -68, -9, -39, -39, -19, 
-48, -73, -24, 61, -12, -48, 14, -68, -9, -34, -39, -19, 
-48, -78, -29, 63, -9, -53, 19, -68, -9, -29, -39, -19, 
-48, -73, -24, 61, -12, -48, 14, -78, -14, -34, -43, -24, 
-48, -68, -19, 58, -14, -43, 9, -78, -19, -39, -48, -29, 
-48, -63, -14, 56, -17, -39, 4, -78, -24, -43, -53, -34, 
-48, -58, -9, 53, -19, -34, 0, -78, -29, -48, -58, -39, 
-48, -73, -24, 61, -12, -48, 4, -78, -19, -39, -48, -29, 
-48, -78, -29, 63, -9, -53, 9, -78, -19, -39, -48, -29, 
-48, -82, -34, 65, -7, -58, 14, -78, -19, -39, -48, -29, 
-48, -87, -39, 68, -4, -63, 19, -78, -19, -39, -48, -29, 
-58, -82, -24, 70, -17, -53, 9, -87, -29, -48, -58, -34, 
-58, -78, -19, 68, -19, -48, 9, -87, -29, -48, -58, -39, 
-58, -73, -14, 65, -21, -43, 9, -87, -29, -48, -58, -43, 
-58, -68, -9, 63, -24, -39, 9, -87, -29, -48, -58, -48, 
-48, -68, -19, 58, -14, -43, 9, -97, -39, -58, -58, -48, 
-48, -68, -19, 58, -14, -43, 9, -97, -39, -58, -58, -48, 
-48, -68, -19, 58, -14, -43, 9, -97, -39, -58, -58, -48, 
-48, -68, -19, 58, -14, -43, 9, -97, -39, -58, -58, -48, 
-58, -68, -9, 63, -24, -39, 0, -97, -48, -68, -58, -48, 
-58, -68, -9, 63, -24, -39, 0, -97, -48, -68, -58, -48, 
-58, -68, -9, 63, -24, -39, 0, -97, -48, -68, -58, -48, 
-58, -68, -9, 63, -24, -39, 0, -97, -48, -68, -58, -48, 
-58, -78, -19, 68, -19, -48, 9, -97, -39, -58, -58, -43, 
-58, -87, -29, 73, -14, -58, 9, -97, -39, -58, -58, -39, 
-58, -97, -39, 78, -9, -68, 9, -97, -39, -58, -58, -34, 
-58, -107, -48, 82, -4, -78, 9, -97, -39, -58, -58, -29, 
-48, -102, -53, 75, 2, -78, 0, -97, -48, -63, -63, -34, 
-48, -97, -48, 73, 0, -73, 0, -97, -48, -68, -68, -39, 
-48, -92, -43, 70, -2, -68, 0, -97, -48, -73, -73, -43, 
-48, -87, -39, 68, -4, -63, 0, -97, -48, -78, -78, -48, 
-58, -102, -43, 80, -7, -73, 9, -107, -48, -78, -78, -39, 
-58, -107, -48, 82, -4, -78, 9, -107, -48, -78, -78, -39, 
-58, -112, -53, 85, -2, -82, 9, -107, -48, -78, -78, -39, 
-58, -117, -58, 87, 0, -87, 9, -107, -48, -78, -78, -39, 
-58, -112, -53, 85, -2, -82, 0, -107, -58, -87, -78, -48, 
-58, -107, -48, 82, -4, -78, 0, -107, -58, -87, -78, -48, 
-58, -102, -43, 80, -7, -73, 0, -107, -58, -87, -78, -48, 
-58, -97, -39, 78, -9, -68, 0, -107, -58, -87, -78, -48, 
-58, -107, -48, 82, -4, -78, 0, -107, -68, -97, -78, -48, 
-58, -107, -48, 82, -4, -78, 0, -107, -68, -97, -78, -48, 
-58, -107, -48, 82, -4, -78, 0, -107, -68, -97, -78, -48, 
-58, -107, -48, 82, -4, -78, 0, -107, -68, -97, -78, -48, 
-48, -107, -58, 78, 4, -82, 0, -117, -68, -97, -87, -48, 
-48, -107, -58, 78, 4, -82, 0, -117, -68, -97, -87, -48, 
-48, -107, -58, 78, 4, -82, 0, -117, -68, -97, -87, -48, 
-48, -107, -58, 78, 4, -82, 0, -117, -68, -97, -87, -48, 
-48, -117, -68, 82, 9, -92, 0, -117, -68, -97, -78, -39, 
-48, -117, -68, 82, 9, -92, 0, -117, -68, -97, -78, -39, 
-48, -117, -68, 82, 9, -92, 0, -117, -68, -97, -78, -39, 
-48, -117, -68, 82, 9, -92, 0, -117, -68, -97, -78, -39, 
-48, -117, -68, 82, 9, -92, 0, -107, -68, -97, -87, -48, 
-48, -117, -68, 82, 9, -92, 0, -107, -68, -97, -87, -48, 
-48, -117, -68, 82, 9, -92, 0, -107, -68, -97, -87, -48, 
-48, -117, -68, 82, 9, -92, 0, -107, -68, -97, -87, -48, 
-48, -126, -78, 87, 14, -102, 0, -112, -78, -107, -87, -48, 
-48, -126, -78, 87, 14, -102, 0, -117, -78, -107, -87, -48, 
-48, -126, -78, 87, 14, -102, 0, -122, -78, -107, -87, -48, 
-48, -126, -78, 87, 14, -102, 0, -126, -78, -107, -87, -48, 
-58, -117, -58, 87, 0, -87, 9, -126, -68, -107, -97, -48, 
-58, -117, -58, 87, 0, -87, 9, -126, -68, -107, -97, -48, 
-58, -117, -58, 87, 0, -87, 9, -126, -68, -107, -97, -48, 
-58, -117, -58, 87, 0, -87, 9, -126, -68, -107, -97, -48, 
-48, -107, -58, 78, 4, -82, 0, -126, -78, -117, -97, -58, 
-48, -107, -58, 78, 4, -82, 0, -126, -78, -117, -97, -58, 
-48, -107, -58, 78, 4, -82, 0, -126, -78, -117, -97, -58, 
-48, -107, -58, 78, 4, -82, 0, -126, -78, -117, -97, -58, 
-58, -112, -53, 85, -2, -82, 9, -117, -78, -107, -97, -48, 
-58, -117, -58, 87, 0, -87, 9, -117, -78, -107, -97, -48, 
-58, -122, -63, 90, 2, -92, 9, -117, -78, -107, -97, -48, 
-58, -126, -68, 92, 4, -97, 9, -117, -78, -107, -97, -48, 
-48, -122, -73, 85, 12, -97, 4, -126, -87, -117, -97, -53, 
-48, -117, -68, 82, 9, -92, 0, -126, -87, -117, -97, -58, 
-48, -112, -63, 80, 7, -87, -4, -126, -87, -117, -97, -63, 
-48, -107, -58, 78, 4, -82, -9, -126, -87, -117, -97, -68, 
-48, -107, -58, 78, 4, -82, 0, -136, -78, -117, -97, -58, 
-48, -107, -58, 78, 4, -82, 0, -136, -78, -117, -97, -58, 
-48, -107, -58, 78, 4, -82, 0, -136, -78, -117, -97, -58, 
-48, -107, -58, 78, 4, -82, 0, -136, -78, -117, -97, -58, 
-48, -97, -48, 73, 0, -73, -9, -136, -87, -126, -97, -58, 
-48, -97, -48, 73, 0, -73, -9, -136, -87, -126, -97, -58, 
-48, -97, -48, 73, 0, -73, -9, -136, -87, -126, -97, -58, 
-48, -97, -48, 73, 0, -73, -9, -136, -87, -126, -97, -58, 
-48, -112, -63, 80, 7, -87, 0, -136, -87, -126, -97, -58, 
-48, -117, -68, 82, 9, -92, 0, -136, -87, -126, -97, -58, 
-48, -122, -73, 85, 12, -97, 0, -136, -87, -126, -97, -58, 
-48, -126, -78, 87, 14, -102, 0, -136, -87, -126, -97, -58, 
-48, -122, -73, 85, 12, -97, -9, -126, -87, -126, -97, -58, 
-48, -117, -68, 82, 9, -92, -9, -126, -87, -126, -97, -58, 
-48, -112, -63, 80, 7, -87, -9, -126, -87, -126, -97, -58, 
-48, -107, -58, 78, 4, -82, -9, -126, -87, -126, -97, -58, 
-58, -117, -58, 87, 0, -87, 0, -136, -87, -117, -97, -48, 
-58, -117, -58, 87, 0, -87, 0, -136, -87, -117, -97, -48, 
-58, -117, -58, 87, 0, -87, 0, -136, -87, -117, -97, -48, 
-58, -117, -58, 87, 0, -87, 0, -136, -87, -117, -97, -48, 
-48, -102, -53, 75, 2, -78, -4, -146, -97, -122, -107, -53, 
-48, -97, -48, 73, 0, -73, -9, -146, -97, -126, -107, -58, 
-48, -92, -43, 70, -2, -68, -14, -146, -97, -131, -107, -63, 
-48, -87, -39, 68, -4, -63, -19, -146, -97, -136, -107, -68, 
-58, -102, -43, 80, -7, -73, -14, -136, -87, -126, -107, -58, 
-58, -107, -48, 82, -4, -78, -9, -136, -87, -126, -107, -58, 
-58, -112, -53, 85, -2, -82, -4, -136, -87, -126, -107, -58, 
-58, -117, -58, 87, 0, -87, 0, -136, -87, -126, -107, -58, 
-48, -112, -63, 80, 7, -87, -4, -146, -97, -126, -97, -58, 
-48, -107, -58, 78, 4, -82, -9, -146, -97, -126, -97, -58, 
-48, -102, -53, 75, 2, -78, -14, -146, -97, -126, -97, -58, 
-48, -97, -48, 73, 0, -73, -19, -146, -97, -126, -97, -58, 
-58, -102, -43, 80, -7, -73, -14, -141, -87, -117, -97, -48, 
-58, -107, -48, 82, -4, -78, -9, -136, -87, -117, -97, -48, 
-58, -112, -53, 85, -2, -82, -4, -131, -87, -117, -97, -48, 
-58, -117, -58, 87, 0, -87, 0, -126, -87, -117, -97, -48, 
-48, -102, -53, 75, 2, -78, -4, -131, -92, -131, -102, -53, 
-48, -97, -48, 73, 0, -73, -9, -136, -97, -136, -107, -58, 
-48, -92, -43, 70, -2, -68, -14, -141, -102, -141, -112, -63, 
-48, -87, -39, 68, -4, -63, -19, -146, -107, -146, -117, -68, 
-58, -102, -43, 80, -7, -73, -14, -136, -102, -141, -112, -63, 
-58, -107, -48, 82, -4, -78, -9, -136, -97, -136, -107, -58, 
-58, -112, -53, 85, -2, -82, -4, -136, -92, -131, -102, -53, 
-58, -117, -58, 87, 0, -87, 0, -136, -87, -126, -97, -48, 
-58, -107, -48, 82, -4, -78, -4, -146, -97, -136, -107, -53, 
-58, -97, -39, 78, -9, -68, -9, -146, -97, -136, -107, -58, 
-58, -87, -29, 73, -14, -58, -14, -146, -97, -136, -107, -63, 
-58, -78, -19, 68, -19, -48, -19, -146, -97, -136, -107, -68, 
-58, -92, -34, 75, -12, -63, -9, -136, -97, -136, -107, -68, 
-58, -97, -39, 78, -9, -68, -9, -136, -97, -136, -107, -68, 
-58, -102, -43, 80, -7, -73, -9, -136, -97, -136, -107, -68, 
-58, -107, -48, 82, -4, -78, -9, -136, -97, -136, -107, -68, 
-58, -102, -43, 80, -7, -73, -19, -146, -107, -136, -117, -68, 
-58, -97, -39, 78, -9, -68, -19, -146, -107, -136, -117, -68, 
-58, -92, -34, 75, -12, -63, -19, -146, -107, -136, -117, -68, 
-58, -87, -29, 73, -14, -58, -19, -146, -107, -136, -117, -68, 
-58, -97, -39, 78, -9, -68, -19, -156, -107, -136, -117, -68, 
-58, -97, -39, 78, -9, -68, -19, -156, -107, -136, -117, -68, 
-58, -97, -39, 78, -9, -68, -19, -156, -107, -136, -117, -68, 
-58, -97, -39, 78, -9, -68, -19, -156, -107, -136, -117, -68, 
-58, -82, -24, 70, -17, -53, -19, -146, -97, -126, -107, -68, 
-58, -78, -19, 68, -19, -48, -19, -146, -97, -126, -107, -68, 
-58, -73, -14, 65, -21, -43, -19, -146, -97, -126, -107, -68, 
-58, -68, -9, 63, -24, -39, -19, -146, -97, -126, -107, -68, 
-58, -68, -9, 63, -24, -39, -19, -136, -87, -126, -97, -63, 
-58, -68, -9, 63, -24, -39, -19, -136, -87, -126, -97, -58, 
-58, -68, -9, 63, -24, -39, -19, -136, -87, -126, -97, -53, 
-58, -68, -9, 63, -24, -39, -19, -136, -87, -126, -97, -48, 
-53, -58, -4, 56, -24, -31, -9, -131, -73, -112, -92, -39, 
-48, -48, 0, 48, -24, -24, -9, -126, -68, -107, -87, -39, 
-43, -39, 4, 41, -24, -17, -9, -122, -63, -102, -82, -39, 
-39, -29, 9, 34, -24, -9, -9, -117, -58, -97, -78, -39, 
-29, -19, 9, 24, -19, -4, 0, -107, -53, -87, -68, -29, 
-29, -19, 9, 24, -19, -4, 0, -107, -48, -87, -68, -29, 
-29, -19, 9, 24, -19, -4, 0, -107, -43, -87, -68, -29, 
-29, -19, 9, 24, -19, -4, 0, -107, -39, -87, -68, -29, 
-29, -19, 9, 24, -19, -4, 0, -107, -39, -78, -58, -29, 
-29, -19, 9, 24, -19, -4, 0, -107, -39, -78, -58, -29, 
-29, -19, 9, 24, -19, -4, 0, -107, -39, -78, -58, -29, 
-29, -19, 9, 24, -19, -4, 0, -107, -39, -78, -58, -29, 
-29, -4, 24, 17, -26, 9, -4, -97, -29, -68, -58, -29, 
-29, 4, 34, 12, -31, 19, -4, -97, -29, -68, -58, -29, 
-29, 19, 48, 4, -39, 34, -9, -97, -24, -68, -53, -29, 
-29, 34, 63, -2, -46, 48, -19, -97, -24, -63, -53, -24, 
-29, 29, 58, 0, -43, 43, -24, -97, -9, -63, -43, -14, 
-19, 29, 48, -4, -34, 39, -29, -92, -9, -53, -43, -4, 
-4, 34, 39, -14, -21, 36, -39, -92, -9, -43, -34, 4, 
0, 43, 43, -21, -21, 43, -43, -97, 0, -39, -24, 19, 
4, 63, 58, -34, -26, 61, -63, -102, 0, -39, -24, 19, 
14, 68, 53, -41, -19, 61, -68, -117, -9, -48, -24, 9, 
19, 73, 53, -46, -17, 63, -78, -126, -19, -58, -34, 9, 
29, 73, 43, -51, -7, 58, -82, -136, -29, -68, -39, 0, 
24, 68, 43, -46, -9, 56, -82, -136, -43, -68, -53, 0, 
24, 58, 34, -41, -4, 46, -82, -141, -58, -78, -58, 0, 
24, 43, 19, -34, 2, 31, -82, -141, -68, -87, -63, -4, 
29, 19, -9, -24, 19, 4, -87, -146, -73, -92, -63, -4, 
29, 24, -4, -26, 17, 9, -102, -151, -92, -107, -68, -14, 
34, 19, -14, -26, 24, 2, -117, -161, -102, -112, -73, -14, 
39, 24, -14, -31, 26, 4, -126, -170, -112, -131, -82, -24, 
39, 29, -9, -34, 24, 9, -131, -190, -122, -141, -92, -29, 
34, 14, -19, -24, 26, -2, -122, -185, -126, -141, -102, -29, 
29, 9, -19, -19, 24, -4, -112, -180, -126, -141, -102, -29, 
29, 4, -24, -17, 26, -9, -107, -170, -117, -136, -102, -24, 
29, 0, -29, -14, 29, -14, -87, -165, -117, -131, -102, -24, 
9, 14, 4, -12, 2, 9, -82, -165, -122, -136, -107, -24, 
-4, 14, 19, -4, -12, 17, -82, -165, -122, -136, -107, -29, 
-9, 19, 29, -4, -19, 24, -82, -165, -117, -131, -102, -34, 
-9, 24, 34, -7, -21, 29, -78, -165, -117, -131, -102, -43, 
-14, 9, 24, 2, -19, 17, -68, -151, -107, -122, -97, -43, 
-19, -4, 14, 12, -17, 4, -58, -146, -102, -122, -92, -39, 
-34, -29, 4, 31, -19, -12, -43, -146, -97, -122, -97, -39, 
-43, -48, -4, 46, -19, -26, -34, -156, -102, -136, -102, -48, 
-48, -53, -4, 51, -21, -29, -39, -170, -112, -146, -122, -73, 
-53, -58, -4, 56, -24, -31, -34, -175, -117, -156, -126, -78, 
-53, -48, 4, 51, -29, -21, -39, -175, -122, -161, -131, -82, 
-48, -39, 9, 43, -29, -14, -43, -175, -126, -165, -141, -87, 
-48, -48, 0, 48, -24, -24, -39, -165, -126, -161, -136, -78, 
-48, -58, -9, 53, -19, -34, -39, -165, -131, -161, -131, -78, 
-48, -68, -19, 58, -14, -43, -34, -165, -131, -156, -126, -78, 
-48, -78, -29, 63, -9, -53, -24, -165, -131, -151, -122, -73, 
-53, -78, -24, 65, -14, -51, -24, -165, -122, -156, -122, -78, 
-53, -78, -24, 65, -14, -51, -24, -161, -122, -156, -122, -78, 
-48, -68, -19, 58, -14, -43, -29, -161, -122, -156, -122, -82, 
-48, -48, 0, 48, -24, -24, -34, -161, -126, -165, -126, -87, 
-58, -58, 0, 58, -29, -29, -24, -165, -131, -156, -136, -87, 
-58, -58, 0, 58, -29, -29, -34, -165, -131, -156, -141, -92, 
-58, -68, -9, 63, -24, -39, -24, -165, -126, -156, -141, -92, 
-58, -78, -19, 68, -19, -48, -24, -165, -122, -151, -136, -87, 
-53, -68, -14, 61, -19, -41, -34, -165, -131, -156, -141, -97, 
-53, -63, -9, 58, -21, -36, -29, -161, -131, -156, -141, -102, 
-53, -53, 0, 53, -26, -26, -29, -161, -131, -161, -141, -107, 
-53, -39, 14, 46, -34, -12, -29, -161, -131, -165, -141, -112, 
-58, -58, 0, 58, -29, -29, -24, -151, -126, -156, -131, -112, 
-58, -63, -4, 61, -26, -34, -19, -151, -122, -161, -131, -107, 
-58, -73, -14, 65, -21, -43, -14, -151, -117, -161, -131, -102, 
-58, -82, -24, 70, -17, -53, -9, -151, -112, -161, -131, -92, 
-58, -73, -14, 65, -21, -43, -19, -156, -112, -156, -131, -102, 
-58, -73, -14, 65, -21, -43, -19, -161, -117, -156, -136, -102, 
-58, -63, -4, 61, -26, -34, -24, -161, -122, -156, -136, -102, 
-58, -53, 4, 56, -31, -24, -24, -165, -122, -156, -136, -102, 
-68, -68, 0, 68, -34, -34, -9, -161, -122, -146, -126, -97, 
-68, -68, 0, 68, -34, -34, -14, -156, -122, -146, -122, -92, 
-68, -63, 4, 65, -36, -29, -14, -151, -122, -146, -122, -87, 
-68, -68, 0, 68, -34, -34, -9, -146, -122, -146, -126, -82, 
-68, -63, 4, 65, -36, -29, -19, -151, -131, -151, -136, -87, 
-68, -68, 0, 68, -34, -34, -19, -156, -131, -156, -131, -92, 
-68, -68, 0, 68, -34, -34, -24, -156, -131, -156, -131, -92, 
-68, -63, 4, 65, -36, -29, -24, -161, -131, -156, -131, -97, 
-73, -68, 4, 70, -39, -31, -19, -151, -122, -146, -126, -92, 
-73, -68, 4, 70, -39, -31, -24, -151, -122, -151, -126, -97, 
-68, -63, 4, 65, -36, -29, -19, -151, -126, -156, -131, -92, 
-68, -63, 4, 65, -36, -29, -9, -151, -126, -156, -131, -82, 
-58, -68, -9, 63, -24, -39, -9, -151, -117, -156, -131, -92, 
-58, -63, -4, 61, -26, -34, -9, -151, -112, -146, -131, -92, 
-58, -48, 9, 53, -34, -19, -14, -156, -122, -156, -131, -97, 
-68, -58, 9, 63, -39, -24, -19, -156, -126, -165, -146, -122, 
-78, -78, 0, 78, -39, -39, 0, -151, -122, -170, -165, -131, 
-92, -82, 9, 87, -51, -36, 24, -141, -117, -170, -165, -131, 
-97, -92, 4, 95, -51, -43, 39, -136, -107, -170, -170, -141, 
-112, -107, 4, 109, -58, -51, 39, -141, -97, -161, -170, -156, 
-126, -107, 19, 117, -73, -43, 39, -161, -97, -161, -180, -156, 
-131, -87, 43, 109, -87, -21, 39, -170, -102, -161, -180, -161, 
-141, -73, 68, 107, -104, -2, 29, -204, -117, -180, -195, -170, 
-151, -73, 78, 112, -114, 2, 14, -234, -141, -195, -204, -175, 
-136, -87, 48, 112, -92, -19, 4, -248, -170, -209, -195, -161, 
-107, -97, 9, 102, -58, -43, -14, -273, -204, -219, -180, -117, 
-78, -112, -34, 95, -21, -73, -43, -273, -214, -224, -161, -78, 
-58, -122, -63, 90, 2, -92, -43, -273, -224, -234, -151, -53, 
-34, -97, -63, 65, 14, -80, -68, -297, -244, -239, -146, -48, 
14, -58, -73, 21, 43, -65, -112, -317, -248, -224, -107, 4, 
63, 14, -48, -39, 56, -17, -170, -346, -229, -180, -34, 87, 
146, 107, -39, -126, 92, 34, -258, -375, -229, -141, 63, 204, 
263, 180, -82, -222, 173, 48, -375, -405, -248, -102, 175, 351, 
395, 214, -180, -305, 287, 17, -468, -419, -278, -58, 302, 527, 
512, 239, -273, -375, 392, -17, -570, -444, -312, -58, 395, 663, 
644, 278, -366, -461, 505, -43, -692, -497, -405, -92, 444, 780, 
780, 351, -429, -566, 605, -39, -814, -561, -492, -136, 507, 907, 
897, 488, -409, -692, 653, 39, -917, -580, -512, -102, 619, 1068, 
966, 614, -351, -790, 658, 131, -990, -610, -497, -53, 712, 1210, 
1010, 634, -375, -822, 692, 129, -1024, -668, -536, -82, 707, 1249, 
1063, 595, -468, -829, 766, 63, -1054, -717, -624, -151, 658, 1244, 
1078, 546, -531, -812, 805, 7, -1058, -771, -683, -224, 580, 1185, 
1015, 405, -610, -710, 812, -102, -1005, -834, -741, -336, 351, 936, 
888, 204, -683, -546, 785, -239, -922, -912, -839, -517, -4, 536, 
761, 43, -717, -402, 739, -336, -854, -1010, -941, -702, -312, 190, 
649, 4, -644, -326, 646, -319, -829, -1151, -1010, -819, -492, 0, 
502, 48, -453, -275, 478, -202, -771, -1278, -1029, -878, -605, -122, 
331, 156, -175, -244, 253, -9, -673, -1317, -941, -849, -653, -204, 
209, 278, 68, -244, 70, 173, -551, -1244, -810, -736, -614, -204, 
141, 356, 214, -248, -36, 285, -444, -1161, -702, -653, -566, -175, 
97, 322, 224, -209, -63, 273, -356, -1078, -649, -629, -566, -190, 
34, 200, 165, -117, -65, 183, -248, -961, -590, -595, -556, -214, 
-14, 107, 122, -46, -68, 114, -146, -844, -522, -566, -527, -229, 
-53, 73, 126, -9, -90, 100, -68, -746, -497, -561, -531, -273, 
-107, 43, 151, 31, -129, 97, 4, -678, -483, -570, -556, -326, 
-141, 19, 161, 61, -151, 90, 63, -605, -444, -561, -566, -361, 
-156, 14, 170, 70, -163, 92, 117, -546, -400, -536, -551, -380, 
-170, -4, 165, 87, -168, 80, 146, -497, -370, -512, -527, -375, 
-180, -34, 146, 107, -163, 56, 156, -429, -331, -463, -483, -351, 
-180, -68, 112, 124, -146, 21, 165, -351, -278, -400, -414, -317, 
-175, -68, 107, 122, -141, 19, 185, -283, -239, -341, -366, -287, 
-175, -58, 117, 117, -146, 29, 185, -234, -204, -292, -331, -263, 
-165, -48, 117, 107, -141, 34, 175, -190, -170, -258, -302, -258, 
-161, -34, 126, 97, -143, 46, 161, -131, -126, -214, -253, -244, 
-151, -4, 146, 78, -148, 70, 161, -82, -87, -180, -209, -219, 
-146, -14, 131, 80, -139, 58, 161, -39, -48, -141, -180, -195, 
-136, -34, 102, 85, -119, 34, 161, -9, -14, -107, -151, -175, 
-122, -34, 87, 78, -104, 26, 156, 19, 9, -82, -122, -146, 
-97, -34, 63, 65, -80, 14, 151, 29, 19, -68, -102, -126, 
-102, -53, 48, 78, -75, -2, 136, 34, 19, -63, -97, -122, 
-112, -58, 53, 85, -82, -2, 126, 48, 29, -53, -87, -117, 
-97, -53, 43, 75, -70, -4, 112, 48, 34, -53, -87, -112, 
-92, -58, 34, 75, -63, -12, 107, 58, 34, -48, -78, -117, 
-92, -53, 39, 73, -65, -7, 102, 63, 34, -43, -78, -122, 
-92, -48, 43, 70, -68, -2, 87, 68, 29, -39, -73, -117, 
-92, -63, 29, 78, -61, -17, 97, 87, 39, -29, -63, -112, 
-87, -58, 29, 73, -58, -14, 102, 87, 43, -19, -58, -102, 
-87, -58, 29, 73, -58, -14, 102, 87, 58, -9, -53, -97, 
-87, -63, 24, 75, -56, -19, 107, 87, 63, 0, -34, -87, 
-78, -53, 24, 65, -51, -14, 107, 97, 58, 9, -39, -97, 
-73, -53, 19, 63, -46, -17, 102, 102, 58, 9, -34, -97, 
-68, -53, 14, 61, -41, -19, 97, 107, 63, 14, -34, -92, 
-63, -48, 14, 56, -39, -17, 92, 112, 68, 19, -34, -92, 
-73, -48, 24, 61, -48, -12, 102, 112, 78, 9, -24, -92, 
-73, -53, 19, 63, -46, -17, 92, 112, 78, 14, -24, -92, 
-68, -53, 14, 61, -41, -19, 92, 117, 78, 14, -24, -92, 
-68, -58, 9, 63, -39, -24, 97, 126, 82, 19, -19, -87, 
-68, -58, 9, 63, -39, -24, 92, 117, 82, 19, -19, -97, 
-68, -53, 14, 61, -41, -19, 87, 122, 78, 24, -14, -92, 
-68, -53, 14, 61, -41, -19, 82, 126, 82, 24, -14, -87, 
-68, -48, 19, 58, -43, -14, 82, 131, 78, 24, -14, -87, 
-68, -58, 9, 63, -39, -24, 92, 136, 82, 34, -14, -82, 
-68, -53, 14, 61, -41, -19, 87, 136, 82, 34, -9, -78, 
-68, -53, 14, 61, -41, -19, 87, 136, 87, 34, -4, -68, 
-68, -48, 19, 58, -43, -14, 87, 141, 87, 34, -4, -63, 
-68, -39, 29, 53, -48, -4, 87, 146, 97, 39, 4, -63, 
-68, -43, 24, 56, -46, -9, 87, 151, 97, 39, 9, -63, 
-68, -48, 19, 58, -43, -14, 87, 161, 102, 48, 14, -63, 
-63, -48, 14, 56, -39, -17, 92, 165, 107, 53, 19, -58, 
-63, -48, 14, 56, -39, -17, 92, 170, 117, 58, 24, -58, 
-68, -53, 14, 61, -41, -19, 92, 175, 122, 58, 24, -53, 
-68, -53, 14, 61, -41, -19, 92, 175, 122, 63, 24, -53, 
-63, -53, 9, 58, -36, -21, 87, 175, 126, 63, 29, -53, 
-63, -39, 24, 51, -43, -7, 87, 175, 122, 68, 19, -63, 
-63, -39, 24, 51, -43, -7, 92, 185, 122, 73, 29, -58, 
-63, -48, 14, 56, -39, -17, 92, 190, 126, 82, 34, -53, 
-63, -48, 14, 56, -39, -17, 97, 195, 126, 87, 34, -48, 
-63, -34, 29, 48, -46, -2, 97, 200, 126, 92, 43, -58, 
-63, -34, 29, 48, -46, -2, 97, 204, 126, 92, 43, -58, 
-63, -29, 34, 46, -48, 2, 92, 209, 131, 92, 43, -58, 
-63, -24, 39, 43, -51, 7, 92, 214, 136, 97, 43, -58, 
-63, -34, 29, 48, -46, -2, 97, 219, 136, 97, 48, -48, 
-63, -34, 29, 48, -46, -2, 97, 224, 146, 102, 58, -43, 
-58, -39, 19, 48, -39, -9, 97, 234, 151, 107, 63, -43, 
-58, -39, 19, 48, -39, -9, 112, 239, 156, 112, 68, -39, 
-58, -24, 34, 41, -46, 4, 102, 239, 156, 102, 68, -48, 
-58, -24, 34, 41, -46, 4, 92, 244, 161, 112, 68, -48, 
-58, -19, 39, 39, -48, 9, 92, 244, 161, 112, 68, -43, 
-58, -19, 39, 39, -48, 9, 92, 248, 165, 122, 78, -43, 
-68, -19, 48, 43, -58, 14, 97, 263, 175, 136, 73, -34, 
-68, -24, 43, 46, -56, 9, 97, 268, 180, 141, 78, -29, 
-63, -34, 29, 48, -46, -2, 102, 273, 185, 146, 82, -24, 
-63, -39, 24, 51, -43, -7, 102, 283, 190, 151, 87, -24, 
-53, -24, 29, 39, -41, 2, 102, 278, 185, 151, 82, -29, 
-53, -19, 34, 36, -43, 7, 102, 287, 190, 151, 82, -29, 
-53, -19, 34, 36, -43, 7, 102, 292, 195, 151, 92, -29, 
-53, -14, 39, 34, -46, 12, 102, 297, 200, 156, 92, -29, 
-53, -14, 39, 34, -46, 12, 107, 307, 204, 170, 102, -24, 
-53, -19, 34, 36, -43, 7, 107, 312, 209, 170, 107, -24, 
-53, -19, 34, 36, -43, 7, 107, 326, 214, 175, 117, -19, 
-53, -24, 29, 39, -41, 2, 117, 336, 224, 190, 122, -19, 
-48, -14, 34, 31, -41, 9, 112, 341, 219, 180, 122, -19, 
-48, -4, 43, 26, -46, 19, 107, 341, 224, 190, 122, -19, 
-48, 4, 53, 21, -51, 29, 107, 351, 234, 200, 131, -14, 
-43, 14, 58, 14, -51, 36, 102, 356, 239, 209, 136, -9, 
-43, 19, 63, 12, -53, 41, 107, 366, 258, 224, 151, -4, 
-43, 14, 58, 14, -51, 36, 112, 370, 258, 224, 156, 0, 
-43, 4, 48, 19, -46, 26, 122, 385, 263, 229, 161, 4, 
-43, -14, 29, 29, -36, 7, 131, 400, 273, 244, 170, 19, 
-39, -4, 34, 21, -36, 14, 117, 400, 287, 244, 180, 19, 
-39, 9, 48, 14, -43, 29, 117, 409, 292, 253, 175, 24, 
-34, 19, 53, 7, -43, 36, 117, 424, 292, 263, 180, 19, 
-34, 39, 73, -2, -53, 56, 112, 439, 292, 263, 185, 14, 
-34, 34, 68, 0, -51, 51, 122, 444, 317, 273, 195, 29, 
-34, 29, 63, 2, -48, 46, 122, 453, 326, 287, 209, 39, 
-34, 24, 58, 4, -46, 41, 126, 468, 336, 302, 219, 39, 
-34, 19, 53, 7, -43, 36, 126, 478, 346, 317, 219, 48, 
-29, 29, 58, 0, -43, 43, 131, 483, 351, 312, 219, 43, 
-29, 34, 63, -2, -46, 48, 131, 497, 361, 317, 229, 43, 
-24, 39, 63, -7, -43, 51, 126, 507, 370, 317, 224, 39, 
-24, 48, 73, -12, -48, 61, 122, 522, 375, 326, 229, 39, 
-24, 39, 63, -7, -43, 51, 141, 536, 400, 341, 248, 53, 
-24, 39, 63, -7, -43, 51, 146, 551, 409, 361, 258, 58, 
-24, 29, 53, -2, -39, 41, 156, 570, 419, 370, 258, 73, 
-24, 14, 39, 4, -31, 26, 161, 585, 429, 380, 268, 82, 
-24, 34, 58, -4, -41, 46, 156, 590, 434, 385, 273, 73, 
-24, 43, 68, -9, -46, 56, 156, 595, 439, 390, 283, 73, 
-24, 53, 78, -14, -51, 65, 151, 605, 444, 390, 287, 68, 
-24, 68, 92, -21, -58, 80, 146, 605, 444, 405, 297, 63, 
-24, 53, 78, -14, -51, 65, 161, 624, 453, 419, 307, 78, 
-24, 53, 78, -14, -51, 65, 165, 634, 468, 424, 312, 82, 
-24, 43, 68, -9, -46, 56, 170, 644, 478, 429, 317, 87, 
-29, 34, 63, -2, -46, 48, 175, 653, 492, 444, 326, 92, 
-39, 63, 102, -12, -70, 82, 170, 658, 492, 434, 322, 92, 
-34, 78, 112, -21, -73, 95, 170, 658, 497, 439, 326, 97, 
-34, 92, 126, -29, -80, 109, 161, 663, 497, 448, 326, 92, 
-34, 107, 141, -36, -87, 124, 156, 658, 497, 458, 336, 92, 
-24, 87, 112, -31, -68, 100, 170, 678, 507, 473, 351, 97, 
-24, 82, 107, -29, -65, 95, 175, 683, 522, 483, 351, 102, 
-24, 82, 107, -29, -65, 95, 175, 683, 531, 488, 351, 107, 
-24, 78, 102, -26, -63, 90, 180, 692, 541, 492, 356, 112, 
-29, 92, 122, -31, -75, 107, 180, 697, 546, 492, 351, 107, 
-29, 97, 126, -34, -78, 112, 175, 702, 551, 497, 356, 102, 
-29, 102, 131, -36, -80, 117, 175, 702, 556, 502, 361, 102, 
-29, 107, 136, -39, -82, 122, 170, 697, 556, 507, 361, 102, 
-29, 102, 131, -36, -80, 117, 170, 697, 566, 517, 366, 107, 
-29, 102, 131, -36, -80, 117, 170, 697, 566, 517, 366, 107, 
-24, 112, 136, -43, -80, 124, 170, 697, 566, 517, 370, 107, 
-24, 107, 131, -41, -78, 119, 175, 688, 566, 512, 375, 112, 
-24, 117, 141, -46, -82, 129, 170, 697, 566, 517, 375, 117, 
-24, 112, 136, -43, -80, 124, 170, 692, 566, 517, 375, 117, 
-24, 112, 136, -43, -80, 124, 170, 678, 556, 507, 375, 117, 
-24, 112, 136, -43, -80, 124, 165, 668, 556, 502, 366, 117, 
-29, 112, 141, -41, -85, 126, 170, 668, 556, 497, 366, 126, 
-29, 117, 146, -43, -87, 131, 165, 649, 546, 492, 361, 122, 
-29, 126, 156, -48, -92, 141, 156, 634, 536, 483, 356, 122, 
-29, 112, 141, -41, -85, 126, 151, 614, 527, 468, 351, 122, 
-24, 122, 146, -48, -85, 134, 146, 600, 507, 458, 346, 117, 
-24, 122, 146, -48, -85, 134, 136, 580, 492, 448, 336, 117, 
-34, 131, 165, -48, -100, 148, 131, 561, 478, 439, 326, 112, 
-34, 141, 175, -53, -104, 158, 122, 531, 453, 419, 317, 97, 
-29, 136, 165, -53, -97, 151, 112, 507, 453, 409, 312, 102, 
-29, 126, 156, -48, -92, 141, 112, 488, 429, 395, 307, 107, 
-29, 122, 151, -46, -90, 136, 102, 463, 414, 380, 297, 107, 
-29, 112, 141, -41, -85, 126, 92, 439, 390, 370, 297, 107, 
-24, 122, 146, -48, -85, 134, 78, 414, 370, 341, 268, 97, 
-24, 122, 146, -48, -85, 134, 73, 385, 351, 331, 258, 97, 
-24, 117, 141, -46, -82, 129, 68, 361, 326, 307, 244, 92, 
-24, 122, 146, -48, -85, 134, 63, 331, 312, 292, 229, 87, 
-14, 112, 126, -48, -70, 119, 63, 322, 292, 278, 219, 82, 
-9, 112, 122, -51, -65, 117, 58, 287, 268, 253, 204, 78, 
-9, 112, 122, -51, -65, 117, 43, 263, 248, 229, 190, 73, 
-9, 112, 122, -51, -65, 117, 34, 234, 224, 209, 170, 68, 
-9, 122, 131, -56, -70, 126, 29, 224, 209, 195, 161, 63, 
-9, 122, 131, -56, -70, 126, 19, 200, 190, 175, 156, 58, 
-9, 107, 117, -48, -63, 112, 19, 175, 175, 161, 141, 58, 
-9, 107, 117, -48, -63, 112, 14, 156, 156, 141, 126, 53, 
-14, 97, 112, -41, -63, 104, 19, 136, 146, 126, 117, 48, 
-14, 87, 102, -36, -58, 95, 9, 122, 131, 112, 102, 43, 
-14, 82, 97, -34, -56, 90, 0, 102, 112, 92, 87, 39, 
-9, 78, 87, -34, -48, 82, -9, 82, 92, 78, 73, 39, 
-9, 78, 87, -34, -48, 82, -14, 53, 68, 58, 63, 34, 
-9, 73, 82, -31, -46, 78, -14, 39, 48, 43, 58, 29, 
-9, 63, 73, -26, -41, 68, -14, 29, 39, 34, 48, 24, 
-9, 53, 63, -21, -36, 58, -14, 14, 34, 29, 43, 24, 
-9, 48, 58, -19, -34, 53, -19, 19, 24, 19, 34, 9, 
-9, 43, 53, -17, -31, 48, -19, 0, 9, 9, 24, 4, 
-4, 43, 48, -19, -26, 46, -24, -9, -4, -9, 14, 0, 
-4, 48, 53, -21, -29, 51, -34, -24, -19, -19, 4, -9, 
-9, 39, 48, -14, -29, 43, -34, -29, -34, -34, -14, -4, 
-9, 34, 43, -12, -26, 39, -34, -39, -39, -39, -14, -4, 
-9, 24, 34, -7, -21, 29, -34, -43, -43, -39, -24, -9, 
-9, 14, 24, -2, -17, 19, -29, -43, -43, -43, -29, -9, 
-14, 24, 39, -4, -26, 31, -39, -48, -48, -48, -19, -19, 
-14, 24, 39, -4, -26, 31, -39, -53, -48, -53, -29, -19, 
-14, 24, 39, -4, -26, 31, -48, -58, -53, -58, -29, -24, 
-14, 24, 39, -4, -26, 31, -53, -68, -68, -73, -39, -34, 
-14, 24, 39, -4, -26, 31, -48, -58, -58, -68, -43, -24, 
-14, 24, 39, -4, -26, 31, -43, -63, -63, -68, -48, -24, 
-14, 14, 29, 0, -21, 21, -39, -63, -63, -68, -48, -24, 
-14, 9, 24, 2, -19, 17, -34, -63, -63, -68, -48, -24, 
-14, 9, 24, 2, -19, 17, -39, -73, -68, -78, -48, -39, 
-19, 9, 29, 4, -24, 19, -39, -78, -73, -82, -48, -39, 
-19, 14, 34, 2, -26, 24, -43, -82, -87, -87, -58, -43, 
-19, 19, 39, 0, -29, 29, -43, -82, -97, -92, -58, -43, 
-19, 19, 39, 0, -29, 29, -34, -82, -87, -82, -58, -39, 
-19, 19, 39, 0, -29, 29, -34, -82, -82, -82, -58, -39, 
-19, 4, 24, 7, -21, 14, -29, -82, -82, -78, -58, -39, 
-19, -4, 14, 12, -17, 4, -29, -82, -82, -78, -58, -39, 
-24, 9, 34, 7, -29, 21, -29, -92, -82, -87, -58, -48, 
-24, 14, 39, 4, -31, 26, -34, -92, -82, -87, -63, -48, 
-24, 19, 43, 2, -34, 31, -39, -92, -82, -87, -63, -48, 
-24, 29, 53, -2, -39, 41, -48, -92, -82, -97, -63, -53, 
-24, 39, 63, -7, -43, 51, -43, -92, -73, -87, -63, -43, 
-24, 19, 43, 2, -34, 31, -39, -87, -73, -82, -68, -43, 
-29, 9, 39, 9, -34, 24, -34, -82, -73, -82, -68, -43, 
-29, -4, 24, 17, -26, 9, -29, -78, -68, -82, -68, -43, 
-29, 4, 34, 12, -31, 19, -34, -82, -78, -87, -68, -53, 
-29, 4, 34, 12, -31, 19, -34, -82, -78, -87, -73, -53, 
-29, 9, 39, 9, -34, 24, -34, -82, -78, -87, -82, -58, 
-29, 14, 43, 7, -36, 29, -34, -82, -78, -87, -87, -58, 
-29, 9, 39, 9, -34, 24, -29, -73, -68, -82, -73, -58, 
-29, 4, 34, 12, -31, 19, -24, -73, -68, -78, -68, -53, 
-29, 0, 29, 14, -29, 14, -19, -73, -68, -73, -63, -43, 
-29, -4, 24, 17, -26, 9, -14, -73, -68, -68, -58, -39, 
-24, 4, 29, 9, -26, 17, -24, -82, -73, -78, -63, -53, 
-24, 14, 39, 4, -31, 26, -19, -82, -73, -82, -63, -53, 
-24, 29, 53, -2, -39, 41, -24, -78, -68, -87, -68, -58, 
-29, 43, 73, -7, -51, 58, -34, -78, -68, -92, -78, -68, 
-39, 29, 68, 4, -53, 48, -29, -68, -58, -87, -73, -68, 
-39, 29, 68, 4, -53, 48, -24, -73, -63, -82, -73, -63, 
-39, 19, 58, 9, -48, 39, -19, -73, -63, -78, -68, -58, 
-39, 4, 43, 17, -41, 24, -14, -73, -63, -73, -58, -53, 
-29, 9, 39, 9, -34, 24, -19, -78, -63, -82, -63, -63, 
-34, 14, 48, 9, -41, 31, -19, -78, -68, -82, -68, -63, 
-34, 24, 58, 4, -46, 41, -24, -78, -73, -82, -73, -68, 
-34, 34, 68, 0, -51, 51, -29, -78, -78, -82, -78, -68, 
-34, 34, 68, 0, -51, 51, -29, -68, -73, -73, -73, -63, 
-34, 24, 58, 4, -46, 41, -24, -68, -68, -73, -68, -58, 
-39, 14, 53, 12, -46, 34, -14, -68, -63, -68, -63, -53, 
-39, 4, 43, 17, -41, 24, -9, -68, -58, -68, -58, -43, 
-39, 4, 43, 17, -41, 24, -9, -78, -63, -78, -63, -48, 
-39, 14, 53, 12, -46, 34, -14, -78, -68, -78, -63, -53, 
-39, 24, 63, 7, -51, 43, -19, -78, -73, -78, -63, -58, 
-43, 34, 78, 4, -61, 56, -29, -78, -82, -78, -63, -68, 
-43, 19, 63, 12, -53, 41, -24, -78, -73, -78, -53, -63, 
-43, 9, 53, 17, -48, 31, -19, -78, -68, -73, -58, -63, 
-43, 9, 53, 17, -48, 31, -14, -82, -68, -63, -58, -58, 
-39, 0, 39, 19, -39, 19, -9, -82, -68, -53, -58, -48, 
-39, 0, 39, 19, -39, 19, -19, -82, -68, -58, -68, -63, 
-43, 4, 48, 19, -46, 26, -14, -87, -68, -73, -68, -68, 
-43, 9, 53, 17, -48, 31, -14, -87, -68, -78, -68, -73, 
-43, 19, 63, 12, -53, 41, -14, -87, -73, -82, -73, -78, 
-53, 4, 58, 24, -56, 31, -9, -87, -63, -73, -73, -68, 
-53, 4, 58, 24, -56, 31, -9, -87, -63, -73, -78, -78, 
-58, 4, 63, 26, -61, 34, -9, -92, -63, -82, -78, -78, 
-63, 0, 63, 31, -63, 31, -4, -92, -63, -82, -78, -78, 
-63, 0, 63, 31, -63, 31, -14, -82, -73, -78, -78, -78, 
-63, 0, 63, 31, -63, 31, -14, -82, -73, -78, -78, -78, 
-63, -14, 48, 39, -56, 17, -9, -82, -73, -78, -78, -78, 
-63, -4, 58, 34, -61, 26, -9, -82, -73, -78, -78, -78, 
-53, -14, 39, 34, -46, 12, 0, -82, -73, -82, -78, -73, 
-53, -4, 48, 29, -51, 21, 0, -92, -73, -87, -87, -78, 
-53, 0, 53, 26, -53, 26, -9, -92, -78, -92, -92, -82, 
-53, 0, 53, 26, -53, 26, -9, -92, -78, -92, -92, -82, 
-53, 9, 63, 21, -58, 36, -14, -102, -87, -97, -97, -87, 
-53, 0, 53, 26, -53, 26, -14, -102, -87, -97, -97, -87, 
-63, 0, 63, 31, -63, 31, -14, -102, -82, -97, -97, -87, 
-53, -9, 43, 31, -48, 17, -4, -102, -82, -97, -97, -87, 
-53, -9, 43, 31, -48, 17, -4, -102, -87, -102, -102, -78, 
-53, -9, 43, 31, -48, 17, -4, -112, -92, -107, -102, -82, 
-53, -9, 43, 31, -48, 17, -9, -112, -92, -112, -102, -87, 
-53, -4, 48, 29, -51, 21, -9, -112, -97, -112, -107, -87, 
-63, -4, 58, 34, -61, 26, -19, -107, -97, -102, -107, -87, 
-63, -9, 53, 36, -58, 21, -14, -107, -97, -102, -107, -87, 
-63, -9, 53, 36, -58, 21, -14, -107, -97, -107, -107, -87, 
-68, -9, 58, 39, -63, 24, -14, -107, -102, -107, -107, -87, 
-63, 0, 63, 31, -63, 31, -14, -117, -112, -112, -107, -97, 
-58, -4, 53, 31, -56, 24, -14, -122, -112, -112, -107, -97, 
-53, -4, 48, 29, -51, 21, -19, -126, -117, -117, -112, -97, 
-48, 9, 58, 19, -53, 34, -19, -126, -117, -122, -117, -102, 
-58, 0, 58, 29, -58, 29, -19, -122, -107, -117, -107, -92, 
-58, 0, 58, 29, -58, 29, -19, -122, -112, -117, -107, -92, 
-58, -9, 48, 34, -53, 19, -19, -122, -112, -117, -107, -87, 
-58, -14, 43, 36, -51, 14, -19, -122, -107, -117, -107, -87, 
-58, -9, 48, 34, -53, 19, -19, -131, -117, -117, -117, -97, 
-58, -9, 48, 34, -53, 19, -19, -131, -126, -122, -122, -97, 
-58, -4, 53, 31, -56, 24, -19, -131, -126, -126, -122, -107, 
-58, -4, 53, 31, -56, 24, -19, -131, -126, -126, -122, -107, 
-53, -9, 43, 31, -48, 17, -14, -122, -117, -126, -112, -92, 
-53, -9, 43, 31, -48, 17, -14, -126, -117, -126, -112, -92, 
-53, -19, 34, 36, -43, 7, -9, -126, -117, -122, -112, -92, 
-58, -24, 34, 41, -46, 4, -9, -126, -117, -122, -112, -92, 
-48, -19, 29, 34, -39, 4, -19, -131, -126, -122, -122, -102, 
-48, -14, 34, 31, -41, 9, -19, -136, -126, -126, -122, -107, 
-43, -9, 34, 26, -39, 12, -24, -141, -131, -126, -117, -107, 
-43, 0, 43, 21, -43, 21, -29, -146, -131, -136, -117, -107, 
-53, 4, 58, 24, -56, 31, -19, -136, -131, -136, -122, -107, 
-53, -9, 43, 31, -48, 17, -14, -136, -131, -131, -122, -107, 
-53, -19, 34, 36, -43, 7, -14, -136, -131, -131, -122, -102, 
-53, -29, 24, 41, -39, -2, -14, -141, -131, -131, -122, -102, 
-53, -14, 39, 34, -46, 12, -14, -151, -136, -141, -131, -107, 
-53, -9, 43, 31, -48, 17, -19, -151, -136, -141, -131, -107, 
-53, -4, 48, 29, -51, 21, -24, -151, -136, -146, -131, -107, 
-53, 4, 58, 24, -56, 31, -39, -151, -136, -146, -131, -117, 
-53, 4, 58, 24, -56, 31, -34, -156, -131, -141, -122, -107, 
-53, -4, 48, 29, -51, 21, -29, -151, -131, -141, -126, -107, 
-53, -24, 29, 39, -41, 2, -24, -146, -126, -136, -126, -107, 
-53, -34, 19, 43, -36, -7, -14, -141, -122, -136, -126, -107, 
-48, -24, 24, 36, -36, 0, -19, -141, -126, -151, -136, -117, 
-48, -19, 29, 34, -39, 4, -24, -141, -131, -151, -136, -117, 
-53, -9, 43, 31, -48, 17, -29, -141, -136, -151, -136, -117, 
-53, -4, 48, 29, -51, 21, -39, -141, -146, -156, -141, -122, 
-53, -9, 43, 31, -48, 17, -39, -141, -136, -151, -131, -117, 
-53, -4, 48, 29, -51, 21, -34, -141, -136, -146, -131, -112, 
-53, -24, 29, 39, -41, 2, -24, -141, -136, -141, -131, -102, 
-48, -34, 14, 41, -31, -9, -19, -141, -136, -136, -126, -97, 
-48, -24, 24, 36, -36, 0, -29, -156, -136, -146, -136, -107, 
-48, -19, 29, 34, -39, 4, -29, -156, -136, -146, -136, -107, 
-53, -9, 43, 31, -48, 17, -29, -156, -141, -146, -141, -107, 
-53, -4, 48, 29, -51, 21, -29, -156, -141, -146, -141, -107, 
-53, -4, 48, 29, -51, 21, -29, -151, -141, -141, -131, -102, 
-53, -14, 39, 34, -46, 12, -29, -151, -141, -141, -131, -102, 
-53, -29, 24, 41, -39, -2, -24, -151, -146, -141, -131, -102, 
-53, -43, 9, 48, -31, -17, -14, -151, -146, -141, -131, -102, 
-48, -24, 24, 36, -36, 0, -29, -161, -141, -141, -141, -107, 
-48, -24, 24, 36, -36, 0, -29, -156, -141, -141, -136, -107, 
-48, -14, 34, 31, -41, 9, -34, -156, -141, -141, -136, -107, 
-48, -4, 43, 26, -46, 19, -43, -156, -141, -146, -141, -107, 
-58, -4, 53, 31, -56, 24, -43, -156, -141, -141, -131, -107, 
-58, -9, 48, 34, -53, 19, -39, -156, -146, -141, -131, -102, 
-58, -19, 39, 39, -48, 9, -34, -156, -146, -141, -131, -97, 
-58, -24, 34, 41, -46, 4, -29, -156, -146, -141, -131, -92, 
-48, 4, 53, 21, -51, 29, -34, -165, -146, -141, -131, -97, 
-48, -14, 34, 31, -41, 9, -34, -161, -146, -141, -131, -97, 
-48, -9, 39, 29, -43, 14, -39, -161, -146, -141, -131, -102, 
-53, -4, 48, 29, -51, 21, -43, -161, -146, -141, -131, -107, 
-53, -19, 34, 36, -43, 7, -39, -151, -146, -141, -131, -107, 
-53, -14, 39, 34, -46, 12, -39, -151, -146, -141, -131, -102, 
-48, -19, 29, 34, -39, 4, -34, -151, -146, -141, -136, -97, 
-48, -24, 24, 36, -36, 0, -29, -156, -146, -141, -136, -87, 
-39, -24, 14, 31, -26, -4, -34, -165, -156, -151, -131, -92, 
-39, -19, 19, 29, -29, 0, -29, -165, -156, -151, -131, -97, 
-39, -9, 29, 24, -34, 9, -34, -165, -156, -151, -131, -102, 
-39, 4, 43, 17, -41, 24, -48, -165, -156, -151, -136, -112, 
-48, -14, 34, 31, -41, 9, -43, -156, -151, -146, -136, -102, 
-48, -19, 29, 34, -39, 4, -39, -156, -146, -146, -136, -102, 
-48, -24, 24, 36, -36, 0, -34, -156, -146, -146, -136, -102, 
-48, -34, 14, 41, -31, -9, -29, -156, -141, -146, -136, -102, 
-39, -34, 4, 36, -21, -14, -39, -165, -146, -151, -136, -112, 
-39, -29, 9, 34, -24, -9, -34, -165, -151, -151, -136, -107, 
-39, -19, 19, 29, -29, 0, -34, -165, -156, -151, -136, -107, 
-43, -14, 29, 29, -36, 7, -34, -165, -161, -151, -136, -107, 
-43, -19, 24, 31, -34, 2, -24, -156, -151, -141, -126, -97, 
-43, -24, 19, 34, -31, -2, -29, -156, -151, -141, -126, -97, 
-43, -24, 19, 34, -31, -2, -34, -156, -151, -141, -126, -97, 
-39, -29, 9, 34, -24, -9, -34, -156, -151, -141, -126, -97, 
-48, -19, 29, 34, -39, 4, -39, -165, -156, -151, -131, -107, 
-43, -19, 24, 31, -34, 2, -34, -165, -156, -151, -136, -107, 
-43, -14, 29, 29, -36, 7, -34, -165, -156, -151, -136, -107, 
-43, -9, 34, 26, -39, 12, -34, -161, -156, -151, -141, -102, 
-43, -24, 19, 34, -31, -2, -24, -161, -146, -141, -141, -92, 
-43, -29, 14, 36, -29, -7, -29, -161, -146, -141, -141, -92, 
-48, -19, 29, 34, -39, 4, -29, -165, -146, -141, -141, -97, 
-48, -24, 24, 36, -36, 0, -24, -165, -146, -141, -141, -97, 
-43, -14, 29, 29, -36, 7, -34, -156, -156, -141, -131, -97, 
-43, -14, 29, 29, -36, 7, -34, -156, -156, -141, -131, -92, 
-48, -19, 29, 34, -39, 4, -34, -156, -156, -141, -131, -92, 
-48, -24, 24, 36, -36, 0, -34, -156, -151, -141, -131, -92, 
-39, -24, 14, 31, -26, -4, -24, -151, -151, -141, -126, -92, 
-24, -29, -4, 26, -9, -17, -24, -151, -141, -136, -126, -82, 
-29, -39, -9, 34, -9, -24, -29, -156, -146, -136, -136, -78, 
-34, -39, -4, 36, -14, -21, -29, -156, -146, -136, -136, -87, 
-39, -39, 0, 39, -19, -19, -29, -156, -146, -136, -136, -87, 
-43, -39, 4, 41, -24, -17, -29, -156, -146, -136, -136, -87, 
-48, -39, 9, 43, -29, -14, -29, -156, -146, -136, -136, -87, 
-39, -24, 14, 31, -26, -4, -39, -165, -156, -146, -136, -97, 
-39, -19, 19, 29, -29, 0, -39, -165, -156, -146, -136, -97, 
-39, -14, 24, 26, -31, 4, -39, -165, -156, -146, -136, -97, 
-39, -9, 29, 24, -34, 9, -39, -165, -156, -146, -136, -97, 
-48, -14, 34, 31, -41, 9, -29, -156, -146, -146, -136, -87, 
-48, -19, 29, 34, -39, 4, -29, -156, -146, -146, -136, -87, 
-48, -24, 24, 36, -36, 0, -29, -156, -146, -146, -136, -87, 
-48, -29, 19, 39, -34, -4, -29, -156, -146, -146, -136, -87, 
-48, -19, 29, 34, -39, 4, -39, -165, -156, -146, -146, -92, 
-48, -19, 29, 34, -39, 4, -39, -165, -156, -146, -146, -97, 
-48, -19, 29, 34, -39, 4, -39, -165, -156, -146, -146, -102, 
-48, -19, 29, 34, -39, 4, -39, -165, -156, -146, -146, -107, 
-39, -34, 4, 36, -21, -14, -34, -161, -151, -136, -141, -102, 
-39, -39, 0, 39, -19, -19, -29, -156, -146, -136, -136, -97, 
-39, -43, -4, 41, -17, -24, -24, -151, -141, -136, -131, -92, 
-39, -48, -9, 43, -14, -29, -19, -146, -136, -136, -126, -87, 
-39, -39, 0, 39, -19, -19, -24, -151, -141, -146, -136, -97, 
-39, -29, 9, 34, -24, -9, -29, -156, -146, -146, -136, -97, 
-39, -19, 19, 29, -29, 0, -34, -161, -151, -146, -136, -97, 
-39, -9, 29, 24, -34, 9, -39, -165, -156, -146, -136, -97, 
-39, 0, 39, 19, -39, 19, -29, -156, -151, -141, -131, -92, 
-39, 0, 39, 19, -39, 19, -29, -156, -146, -136, -126, -87, 
-39, 0, 39, 19, -39, 19, -29, -156, -141, -131, -122, -82, 
-39, 0, 39, 19, -39, 19, -29, -156, -136, -126, -117, -78, 
-29, 14, 43, 7, -36, 29, -29, -151, -131, -117, -107, -68, 
-29, 19, 48, 4, -39, 34, -29, -146, -126, -117, -107, -68, 
-29, 24, 53, 2, -41, 39, -29, -141, -122, -117, -107, -68, 
-29, 29, 58, 0, -43, 43, -29, -136, -117, -117, -107, -68, 
-29, 19, 48, 4, -39, 34, -24, -131, -102, -102, -102, -63, 
-29, 19, 48, 4, -39, 34, -19, -126, -97, -97, -97, -58, 
-29, 19, 48, 4, -39, 34, -14, -122, -92, -92, -92, -53, 
-29, 19, 48, 4, -39, 34, -9, -117, -87, -87, -87, -48, 
-24, 34, 58, -4, -41, 46, -19, -117, -78, -78, -78, -58, 
-19, 39, 58, -9, -39, 48, -19, -117, -78, -78, -78, -58, 
-14, 43, 58, -14, -36, 51, -19, -117, -78, -78, -78, -58, 
-9, 48, 58, -19, -34, 53, -19, -117, -78, -78, -78, -58, 
-9, 43, 53, -17, -31, 48, -19, -117, -68, -78, -78, -48, 
-9, 39, 48, -14, -29, 43, -19, -117, -68, -78, -78, -48, 
-9, 39, 48, -14, -29, 43, -14, -117, -68, -68, -78, -48, 
-9, 43, 53, -17, -31, 48, -14, -117, -68, -68, -78, -48, 
-19, 63, 82, -21, -51, 73, -29, -117, -73, -68, -63, -48, 
-19, 82, 102, -31, -61, 92, -39, -117, -73, -63, -63, -43, 
-19, 92, 112, -36, -65, 102, -48, -117, -68, -63, -53, -43, 
-9, 97, 107, -43, -58, 102, -58, -112, -68, -53, -53, -34, 
14, 97, 82, -56, -34, 90, -63, -102, -58, -34, -34, -19, 
19, 102, 82, -61, -31, 92, -73, -107, -48, -29, -24, 0, 
19, 102, 82, -61, -31, 92, -82, -112, -48, -29, -24, 14, 
24, 97, 73, -61, -24, 85, -87, -126, -58, -39, -24, 9, 
24, 97, 73, -61, -24, 85, -97, -136, -68, -53, -43, 4, 
29, 92, 63, -61, -17, 78, -102, -146, -78, -68, -48, -9, 
34, 92, 58, -63, -12, 75, -112, -156, -92, -82, -63, -24, 
34, 87, 53, -61, -9, 70, -112, -161, -107, -97, -68, -29, 
34, 68, 34, -51, 0, 51, -102, -161, -117, -97, -73, -24, 
39, 48, 9, -43, 14, 29, -107, -165, -122, -102, -73, -24, 
39, 48, 9, -43, 14, 29, -107, -165, -131, -112, -78, -24, 
43, 39, -4, -41, 24, 17, -117, -170, -141, -112, -82, -24, 
39, 48, 9, -43, 14, 29, -131, -175, -161, -126, -92, -43, 
39, 48, 9, -43, 14, 29, -131, -190, -170, -131, -102, -48, 
34, 48, 14, -41, 9, 31, -126, -190, -175, -141, -102, -58, 
29, 48, 19, -39, 4, 34, -122, -190, -175, -141, -102, -58, 
39, 58, 19, -48, 9, 39, -112, -175, -156, -126, -102, -43, 
39, 58, 19, -48, 9, 39, -97, -175, -156, -122, -102, -43, 
29, 58, 29, -43, 0, 43, -87, -170, -151, -117, -97, -39, 
14, 53, 39, -34, -12, 46, -82, -165, -151, -117, -97, -39, 
0, 48, 48, -24, -24, 48, -78, -161, -136, -112, -92, -39, 
0, 43, 43, -21, -21, 43, -68, -156, -136, -112, -92, -43, 
-4, 39, 43, -17, -24, 41, -63, -151, -131, -112, -92, -48, 
-9, 24, 34, -7, -21, 29, -58, -146, -131, -112, -92, -48, 
-24, 4, 29, 9, -26, 17, -48, -146, -141, -112, -102, -53, 
-34, -9, 24, 21, -29, 7, -43, -156, -151, -126, -112, -68, 
-48, -24, 24, 36, -36, 0, -43, -165, -156, -131, -126, -78, 
-53, -39, 14, 46, -34, -12, -34, -165, -156, -136, -126, -78, 
-43, -29, 14, 36, -29, -7, -34, -161, -156, -136, -117, -78, 
-39, -29, 9, 34, -24, -9, -34, -156, -156, -136, -122, -78, 
-39, -29, 9, 34, -24, -9, -34, -156, -156, -136, -122, -82, 
-39, -29, 9, 34, -24, -9, -39, -156, -161, -141, -122, -87, 
-39, -29, 9, 34, -24, -9, -39, -165, -161, -151, -131, -92, 
-39, -29, 9, 34, -24, -9, -34, -165, -161, -151, -131, -92, 
-43, -48, -4, 46, -19, -26, -29, -165, -161, -146, -131, -87, 
-43, -58, -14, 51, -14, -36, -24, -161, -161, -146, -131, -87, 
-48, -58, -9, 53, -19, -34, -34, -161, -161, -146, -131, -92, 
-48, -48, 0, 48, -24, -24, -34, -161, -165, -156, -136, -97, 
-48, -48, 0, 48, -24, -24, -34, -165, -170, -156, -136, -97, 
-48, -39, 9, 43, -29, -14, -43, -165, -170, -156, -141, -102, 
-39, -39, 0, 39, -19, -19, -34, -156, -156, -156, -141, -102, 
-39, -39, 0, 39, -19, -19, -34, -156, -151, -151, -136, -97, 
-43, -48, -4, 46, -19, -26, -34, -156, -151, -151, -131, -92, 
-43, -53, -9, 48, -17, -31, -29, -151, -151, -146, -131, -92, 
-43, -63, -19, 53, -12, -41, -19, -161, -161, -146, -131, -92, 
-43, -58, -14, 51, -14, -36, -19, -161, -161, -146, -131, -92, 
-48, -58, -9, 53, -19, -34, -19, -161, -161, -146, -131, -97, 
-48, -53, -4, 51, -21, -29, -19, -161, -161, -151, -131, -97, 
-39, -43, -4, 41, -17, -24, -29, -161, -161, -141, -122, -97, 
-39, -43, -4, 41, -17, -24, -29, -161, -161, -141, -122, -92, 
-39, -43, -4, 41, -17, -24, -24, -161, -156, -136, -122, -92, 
-39, -53, -14, 46, -12, -34, -19, -161, -156, -136, -126, -92, 
-48, -63, -14, 56, -17, -39, -9, -146, -156, -136, -126, -92, 
-48, -63, -14, 56, -17, -39, -4, -146, -151, -136, -126, -92, 
-48, -63, -14, 56, -17, -39, -4, -146, -151, -136, -126, -92, 
-48, -58, -9, 53, -19, -34, -14, -146, -151, -136, -122, -92, 
-48, -39, 9, 43, -29, -14, -29, -156, -151, -146, -131, -102, 
-48, -39, 9, 43, -29, -14, -29, -156, -151, -146, -136, -102, 
-48, -39, 9, 43, -29, -14, -24, -156, -151, -146, -136, -102, 
-48, -48, 0, 48, -24, -24, -19, -156, -151, -146, -131, -102, 
-48, -63, -14, 56, -17, -39, -19, -151, -151, -131, -122, -87, 
-48, -63, -14, 56, -17, -39, -14, -151, -151, -126, -122, -87, 
-53, -58, -4, 56, -24, -31, -14, -151, -151, -126, -117, -87, 
-53, -58, -4, 56, -24, -31, -24, -151, -151, -131, -117, -97, 
-48, -43, 4, 46, -26, -19, -34, -151, -156, -136, -131, -87, 
-48, -43, 4, 46, -26, -19, -19, -141, -156, -136, -131, -82, 
-48, -58, -9, 53, -19, -34, -9, -141, -156, -136, -122, -92, 
-48, -63, -14, 56, -17, -39, -9, -141, -151, -136, -122, -92, 
-58, -78, -19, 68, -19, -48, 4, -136, -151, -136, -131, -97, 
-68, -97, -29, 82, -19, -63, 29, -136, -146, -136, -146, -112, 
-78, -97, -19, 87, -29, -58, 29, -122, -141, -141, -156, -122, 
-82, -82, 0, 82, -41, -41, 24, -122, -136, -141, -156, -131, 
-97, -63, 34, 80, -65, -14, 39, -136, -126, -141, -161, -151, 
-112, -68, 43, 90, -78, -12, 39, -161, -126, -151, -170, -165, 
-126, -68, 58, 97, -92, -4, 39, -170, -136, -151, -170, -165, 
-122, -78, 43, 100, -82, -17, 29, -180, -141, -151, -170, -161, 
-122, -92, 29, 107, -75, -31, 29, -204, -146, -151, -165, -141, 
-112, -102, 9, 107, -61, -46, 34, -214, -170, -156, -165, -126, 
-87, -87, 0, 87, -43, -43, 4, -229, -200, -170, -156, -102, 
-58, -58, 0, 58, -29, -29, -34, -244, -224, -170, -141, -87, 
-39, -53, -14, 46, -12, -34, -53, -244, -244, -195, -141, -68, 
-9, -53, -43, 31, 17, -48, -82, -263, -273, -214, -141, -43, 
24, -29, -53, 2, 39, -41, -107, -278, -273, -200, -97, 9, 
73, 9, -63, -41, 68, -26, -141, -287, -239, -146, -9, 102, 
141, 63, -78, -102, 109, -7, -200, -287, -209, -73, 112, 244, 
253, 126, -126, -190, 190, 0, -297, -317, -219, -24, 229, 390, 
380, 209, -170, -295, 275, 19, -414, -336, -239, 14, 361, 566, 
502, 283, -219, -392, 361, 31, -527, -351, -258, 48, 488, 712, 
639, 326, -312, -483, 475, 7, -639, -375, -331, 48, 580, 849, 
771, 375, -395, -573, 583, -9, -751, -419, -414, 14, 658, 995, 
878, 478, -400, -678, 639, 39, -854, -434, -444, 39, 771, 1151, 
966, 605, -361, -785, 663, 122, -936, -453, -424, 112, 902, 1322, 
1015, 653, -361, -834, 688, 146, -971, -512, -448, 112, 927, 1405, 
1068, 634, -434, -851, 751, 100, -985, -570, -536, 34, 873, 1415, 
1093, 585, -507, -839, 800, 39, -1005, -619, -614, -34, 805, 1381, 
1058, 497, -561, -778, 810, -31, -990, -692, -683, -136, 629, 1205, 
976, 317, -658, -646, 817, -170, -927, -775, -771, -317, 292, 839, 
858, 146, -712, -502, 785, -283, -863, -873, -888, -527, -63, 448, 
741, 73, -668, -407, 705, -297, -844, -1000, -990, -702, -302, 190, 
619, 73, -546, -346, 583, -236, -819, -1171, -1068, -819, -473, 39, 
453, 107, -346, -280, 400, -119, -722, -1288, -1058, -858, -595, -82, 
292, 195, -97, -244, 195, 48, -575, -1288, -951, -800, -634, -146, 
180, 268, 87, -224, 46, 178, -444, -1205, -849, -727, -605, -136, 
122, 287, 165, -204, -21, 226, -366, -1132, -790, -712, -605, -146, 
78, 214, 136, -146, -29, 175, -297, -1039, -756, -707, -614, -200, 
34, 141, 107, -87, -36, 124, -209, -932, -697, -673, -614, -244, 
-14, 97, 112, -41, -63, 104, -126, -824, -639, -653, -605, -278, 
-53, 53, 107, 0, -80, 80, -58, -736, -614, -649, -590, -302, 
-97, 4, 102, 46, -100, 53, 24, -649, -551, -610, -575, -326, 
-131, -29, 102, 80, -117, 36, 92, -566, -483, -561, -546, -331, 
-136, -53, 82, 95, -109, 14, 136, -507, -439, -517, -522, -331, 
-151, -73, 78, 112, -114, 2, 146, -439, -409, -473, -478, -317, 
-151, -63, 87, 107, -119, 12, 146, -370, -361, -424, -434, -292, 
-141, -39, 102, 90, -122, 31, 136, -312, -326, -380, -395, -287, 
-146, -39, 107, 92, -126, 34, 136, -253, -278, -331, -336, -268, 
-146, -48, 97, 97, -122, 24, 136, -195, -224, -273, -292, -244, 
-136, -48, 87, 92, -112, 19, 146, -131, -161, -209, -244, -209, 
-122, -53, 68, 87, -95, 7, 161, -73, -107, -156, -195, -185, 
-122, -63, 58, 92, -90, -2, 170, -24, -58, -102, -161, -161, 
-107, -63, 43, 85, -75, -9, 170, 9, -29, -73, -131, -136, 
-97, -43, 53, 70, -75, 4, 151, 19, -14, -48, -112, -126, 
-92, -24, 68, 58, -80, 21, 126, 29, 0, -34, -92, -126, 
-87, -34, 53, 61, -70, 9, 122, 39, 9, -39, -82, -117, 
-82, -43, 39, 63, -61, -2, 117, 53, 19, -34, -68, -112, 
-73, -48, 24, 61, -48, -12, 107, 68, 29, -24, -68, -107, 
-78, -58, 19, 68, -48, -19, 117, 78, 29, -4, -58, -97, 
-73, -68, 4, 70, -39, -31, 117, 87, 34, 0, -48, -97, 
-73, -68, 4, 70, -39, -31, 117, 92, 39, 4, -48, -97, 
-73, -68, 4, 70, -39, -31, 107, 97, 39, 9, -43, -87, 
-73, -58, 14, 65, -43, -21, 92, 107, 43, 4, -39, -87, 
-68, -48, 19, 58, -43, -14, 92, 107, 43, 9, -39, -82, 
-68, -43, 24, 56, -46, -9, 87, 107, 53, 14, -39, -82, 
-68, -43, 24, 56, -46, -9, 87, 107, 53, 19, -24, -78, 
-63, -63, 0, 63, -31, -31, 97, 126, 68, 24, -19, -78, 
-63, -73, -9, 68, -26, -41, 102, 131, 68, 29, -14, -78, 
-63, -82, -19, 73, -21, -51, 107, 136, 73, 39, -14, -73, 
-63, -87, -24, 75, -19, -56, 112, 141, 78, 48, -14, -73, 
-63, -73, -9, 68, -26, -41, 102, 131, 68, 39, -14, -73, 
-63, -63, 0, 63, -31, -31, 92, 131, 68, 43, -14, -73, 
-58, -48, 9, 53, -34, -19, 92, 136, 68, 43, -14, -73, 
-58, -39, 19, 48, -39, -9, 97, 146, 73, 48, -9, -68, 
-58, -58, 0, 58, -29, -29, 97, 146, 87, 53, 9, -68, 
-58, -63, -4, 61, -26, -34, 97, 151, 87, 63, 14, -63, 
-58, -73, -14, 65, -21, -43, 97, 156, 97, 68, 14, -58, 
-58, -78, -19, 68, -19, -48, 102, 161, 97, 73, 14, -58, 
-58, -68, -9, 63, -24, -39, 102, 175, 102, 73, 4, -68, 
-58, -63, -4, 61, -26, -34, 97, 175, 102, 73, 9, -68, 
-58, -63, -4, 61, -26, -34, 97, 175, 107, 73, 14, -63, 
-58, -58, 0, 58, -29, -29, 97, 180, 107, 73, 14, -63, 
-48, -68, -19, 58, -14, -43, 107, 175, 107, 87, 24, -53, 
-48, -73, -24, 61, -12, -48, 107, 180, 107, 87, 29, -53, 
-48, -78, -29, 63, -9, -53, 107, 190, 112, 97, 34, -53, 
-43, -78, -34, 61, -4, -56, 112, 195, 117, 102, 39, -48, 
-53, -68, -14, 61, -19, -41, 107, 200, 117, 97, 43, -48, 
-58, -63, -4, 61, -26, -34, 102, 204, 122, 97, 43, -43, 
-58, -53, 4, 56, -31, -24, 97, 204, 122, 102, 43, -43, 
-53, -43, 9, 48, -31, -17, 87, 204, 126, 102, 48, -43, 
-53, -39, 14, 46, -34, -12, 97, 204, 136, 117, 48, -53, 
-53, -39, 14, 46, -34, -12, 102, 214, 141, 122, 58, -48, 
-53, -48, 4, 51, -29, -21, 102, 219, 151, 131, 63, -43, 
-53, -48, 4, 51, -29, -21, 107, 224, 156, 136, 63, -39, 
-53, -53, 0, 53, -26, -26, 107, 239, 156, 141, 73, -29, 
-53, -53, 0, 53, -26, -26, 107, 244, 156, 141, 73, -29, 
-53, -48, 4, 51, -29, -21, 102, 248, 161, 141, 73, -29, 
-53, -43, 9, 48, -31, -17, 102, 253, 165, 146, 73, -29, 
-53, -34, 19, 43, -36, -7, 107, 248, 156, 146, 68, -39, 
-53, -34, 19, 43, -36, -7, 107, 253, 165, 151, 78, -34, 
-48, -39, 9, 43, -29, -14, 107, 263, 170, 156, 82, -34, 
-48, -39, 9, 43, -29, -14, 122, 268, 175, 161, 87, -29, 
-48, -43, 4, 46, -26, -19, 122, 278, 175, 170, 92, -19, 
-48, -43, 4, 46, -26, -19, 112, 283, 180, 180, 97, -19, 
-48, -39, 9, 43, -29, -14, 112, 283, 180, 180, 102, -14, 
-48, -39, 9, 43, -29, -14, 112, 287, 185, 190, 117, -14, 
-48, -24, 24, 36, -36, 0, 107, 292, 195, 185, 112, -24, 
-48, -24, 24, 36, -36, 0, 107, 297, 200, 190, 117, -19, 
-43, -29, 14, 36, -29, -7, 112, 302, 204, 195, 122, -14, 
-43, -29, 14, 36, -29, -7, 112, 312, 209, 200, 126, -14, 
-43, -24, 19, 34, -31, -2, 122, 317, 214, 204, 122, -9, 
-43, -19, 24, 31, -34, 2, 122, 326, 219, 209, 122, -9, 
-43, -19, 24, 31, -34, 2, 122, 331, 224, 214, 131, -9, 
-43, -14, 29, 29, -36, 7, 122, 336, 229, 224, 131, -9, 
-43, -4, 39, 24, -41, 17, 107, 346, 234, 229, 131, -4, 
-43, 0, 43, 21, -43, 21, 107, 351, 239, 229, 136, -4, 
-43, 9, 53, 17, -48, 31, 107, 366, 244, 234, 146, 0, 
-43, 14, 58, 14, -51, 36, 117, 375, 253, 248, 151, 0, 
-39, -4, 34, 21, -36, 14, 122, 395, 268, 258, 170, 19, 
-39, -14, 24, 26, -31, 4, 126, 400, 273, 268, 170, 19, 
-39, -24, 14, 31, -26, -4, 136, 414, 283, 278, 180, 24, 
-34, -34, 0, 34, -17, -17, 141, 424, 287, 287, 185, 29, 
-24, -4, 19, 14, -21, 7, 126, 424, 287, 292, 190, 29, 
-24, 4, 29, 9, -26, 17, 122, 429, 287, 292, 195, 29, 
-24, 9, 34, 7, -29, 21, 122, 444, 292, 297, 200, 29, 
-24, 4, 29, 9, -26, 17, 122, 458, 302, 312, 209, 39, 
-29, -9, 19, 19, -24, 4, 126, 478, 331, 326, 224, 53, 
-29, -9, 19, 19, -24, 4, 136, 488, 341, 341, 224, 63, 
-24, -14, 9, 19, -17, -2, 146, 502, 346, 356, 234, 63, 
-24, -9, 14, 17, -19, 2, 151, 517, 351, 361, 244, 63, 
-14, 4, 19, 4, -17, 12, 151, 512, 366, 356, 244, 63, 
-14, 9, 24, 2, -19, 17, 151, 522, 375, 366, 258, 68, 
-14, 14, 29, 0, -21, 21, 156, 536, 385, 375, 268, 63, 
-14, 19, 34, -2, -24, 26, 156, 546, 395, 385, 268, 68, 
-19, 4, 24, 7, -21, 14, 165, 570, 409, 395, 283, 78, 
-19, 4, 24, 7, -21, 14, 170, 585, 419, 405, 297, 82, 
-14, 4, 19, 4, -17, 12, 170, 595, 429, 409, 297, 82, 
-14, 9, 24, 2, -19, 17, 170, 610, 434, 424, 307, 87, 
-14, 24, 39, -4, -26, 31, 165, 610, 448, 434, 307, 87, 
-14, 39, 53, -12, -34, 46, 165, 619, 458, 448, 317, 87, 
-14, 43, 58, -14, -36, 51, 170, 634, 468, 453, 317, 97, 
-14, 43, 58, -14, -36, 51, 170, 644, 478, 458, 326, 102, 
-14, 34, 48, -9, -31, 41, 190, 663, 497, 478, 341, 117, 
-14, 34, 48, -9, -31, 41, 195, 673, 507, 488, 351, 122, 
-14, 34, 48, -9, -31, 41, 195, 688, 517, 492, 356, 122, 
-14, 39, 53, -12, -34, 46, 195, 692, 522, 512, 366, 122, 
-14, 43, 58, -14, -36, 51, 185, 692, 527, 507, 356, 117, 
-14, 53, 68, -19, -41, 61, 185, 702, 536, 512, 361, 112, 
-14, 53, 68, -19, -41, 61, 185, 712, 541, 517, 366, 107, 
-19, 53, 73, -17, -46, 63, 185, 722, 551, 531, 375, 102, 
-29, 48, 78, -9, -53, 63, 200, 732, 566, 541, 380, 117, 
-24, 48, 73, -12, -48, 61, 209, 736, 575, 546, 385, 126, 
-24, 48, 73, -12, -48, 61, 209, 746, 580, 556, 385, 126, 
-24, 48, 73, -12, -48, 61, 214, 746, 585, 566, 395, 131, 
-14, 53, 68, -19, -41, 61, 204, 756, 580, 561, 390, 122, 
-14, 63, 78, -24, -46, 70, 204, 761, 590, 561, 390, 122, 
-14, 78, 92, -31, -53, 85, 200, 761, 595, 556, 390, 122, 
-14, 87, 102, -36, -58, 95, 200, 771, 600, 551, 395, 122, 
-19, 73, 92, -26, -56, 82, 214, 785, 614, 556, 400, 131, 
-19, 68, 87, -24, -53, 78, 214, 790, 619, 566, 405, 131, 
-19, 63, 82, -21, -51, 73, 219, 790, 624, 575, 409, 136, 
-19, 58, 78, -19, -48, 68, 219, 785, 624, 585, 409, 141, 
-19, 63, 82, -21, -51, 73, 214, 775, 624, 585, 419, 141, 
-19, 73, 92, -26, -56, 82, 209, 775, 624, 585, 414, 136, 
-14, 92, 107, -39, -61, 100, 204, 775, 624, 585, 414, 131, 
-14, 97, 112, -41, -63, 104, 204, 766, 624, 580, 414, 131, 
-14, 87, 102, -36, -58, 95, 209, 766, 624, 580, 424, 146, 
-14, 82, 97, -34, -56, 90, 209, 761, 624, 585, 424, 146, 
-14, 82, 97, -34, -56, 90, 209, 746, 614, 580, 424, 146, 
-14, 82, 97, -34, -56, 90, 204, 736, 614, 580, 414, 146, 
-19, 92, 112, -36, -65, 102, 200, 717, 595, 570, 409, 141, 
-19, 107, 126, -43, -73, 117, 195, 697, 585, 561, 400, 131, 
-19, 126, 146, -53, -82, 136, 185, 683, 575, 546, 390, 126, 
-19, 122, 141, -51, -80, 131, 180, 663, 566, 527, 380, 122, 
-14, 112, 126, -48, -70, 119, 170, 649, 556, 517, 375, 131, 
-14, 102, 117, -43, -65, 109, 165, 629, 541, 507, 366, 136, 
-24, 102, 126, -39, -75, 114, 165, 610, 527, 497, 356, 136, 
-24, 102, 126, -39, -75, 114, 161, 580, 502, 478, 346, 126, 
-29, 107, 136, -39, -82, 122, 146, 556, 492, 473, 336, 126, 
-29, 107, 136, -39, -82, 122, 141, 536, 468, 453, 326, 126, 
-29, 112, 141, -41, -85, 126, 126, 512, 453, 434, 312, 122, 
-29, 112, 141, -41, -85, 126, 112, 488, 429, 419, 307, 117, 
-14, 102, 117, -43, -65, 109, 117, 463, 409, 400, 297, 117, 
-14, 92, 107, -39, -61, 100, 112, 434, 390, 390, 287, 117, 
-14, 78, 92, -31, -53, 85, 107, 409, 366, 366, 273, 112, 
-14, 73, 87, -29, -51, 80, 102, 380, 351, 351, 258, 107, 
-14, 78, 92, -31, -53, 85, 82, 351, 312, 326, 248, 102, 
-9, 82, 92, -36, -51, 87, 78, 317, 287, 302, 234, 97, 
-9, 87, 97, -39, -53, 92, 63, 292, 268, 278, 219, 92, 
-9, 92, 102, -41, -56, 97, 53, 263, 244, 258, 200, 87, 
-9, 87, 97, -39, -53, 92, 58, 253, 219, 253, 200, 87, 
-9, 82, 92, -36, -51, 87, 48, 229, 200, 234, 195, 87, 
-9, 63, 73, -26, -41, 68, 48, 204, 185, 219, 180, 92, 
-9, 58, 68, -24, -39, 63, 43, 185, 165, 200, 165, 92, 
-4, 58, 63, -26, -34, 61, 29, 165, 156, 175, 156, 78, 
-4, 58, 63, -26, -34, 61, 19, 151, 141, 161, 141, 73, 
-4, 63, 68, -29, -36, 65, 9, 131, 122, 141, 126, 68, 
0, 68, 68, -34, -34, 68, 0, 112, 102, 126, 112, 68, 
9, 58, 48, -34, -19, 53, -4, 92, 78, 97, 92, 53, 
9, 53, 43, -31, -17, 48, -4, 78, 58, 82, 87, 48, 
9, 43, 34, -26, -12, 39, -4, 68, 48, 73, 78, 43, 
9, 34, 24, -21, -7, 29, -4, 53, 43, 68, 73, 43, 
0, 19, 19, -9, -9, 19, 0, 58, 34, 68, 63, 48, 
0, 14, 14, -7, -7, 14, 0, 39, 19, 58, 53, 43, 
4, 14, 9, -9, -2, 12, -4, 29, 4, 39, 43, 39, 
4, 19, 14, -12, -4, 17, -14, 14, -9, 29, 34, 29, 
9, 34, 24, -21, -7, 29, -19, 0, -24, 14, 24, 24, 
9, 34, 24, -21, -7, 29, -24, -9, -29, 9, 24, 24, 
9, 29, 19, -19, -4, 24, -29, -14, -34, 9, 14, 19, 
9, 24, 14, -17, -2, 19, -29, -14, -34, 4, 9, 19, 
14, 19, 4, -17, 4, 12, -19, -9, -29, -9, 9, 29, 
14, 14, 0, -14, 7, 7, -19, -14, -29, -14, 0, 29, 
14, 9, -4, -12, 9, 2, -29, -19, -34, -19, 0, 24, 
14, 4, -9, -9, 12, -2, -34, -29, -48, -34, -9, 14, 
4, 14, 9, -9, -2, 12, -34, -39, -58, -29, -14, 9, 
4, 14, 9, -9, -2, 12, -34, -43, -63, -29, -19, 4, 
4, 4, 0, -4, 2, 2, -34, -43, -63, -29, -19, 0, 
4, 0, -4, -2, 4, -2, -34, -43, -63, -29, -19, -4, 
4, -14, -19, 4, 12, -17, -19, -34, -53, -19, -19, -4, 
0, -19, -19, 9, 9, -19, -19, -39, -53, -24, -19, 0, 
0, -19, -19, 9, 9, -19, -24, -43, -63, -29, -29, 0, 
0, -19, -19, 9, 9, -19, -24, -43, -68, -34, -29, 4, 
0, 4, 4, -2, -2, 4, -34, -53, -78, -39, -39, -4, 
0, 9, 9, -4, -4, 9, -34, -53, -73, -43, -39, -9, 
0, 0, 0, 0, 0, 0, -29, -53, -73, -43, -39, -14, 
0, -4, -4, 2, 2, -4, -29, -53, -73, -48, -39, -19, 
-4, -14, -9, 9, 2, -12, -14, -43, -63, -43, -34, -14, 
-4, -14, -9, 9, 2, -12, -14, -43, -63, -39, -34, -9, 
-4, -14, -9, 9, 2, -12, -14, -43, -63, -34, -29, -4, 
-4, -9, -4, 7, 0, -7, -19, -43, -63, -39, -24, -4, 
-4, 9, 14, -2, -9, 12, -29, -48, -63, -48, -24, -14, 
-4, 0, 4, 2, -4, 2, -29, -48, -63, -43, -29, -14, 
-9, 0, 9, 4, -9, 4, -29, -48, -63, -43, -29, -14, 
-9, -4, 4, 7, -7, 0, -29, -48, -58, -43, -29, -14, 
0, -19, -19, 9, 9, -19, -14, -34, -48, -29, -14, -9, 
0, -24, -24, 12, 12, -24, -14, -34, -48, -29, -14, -4, 
0, -24, -24, 12, 12, -24, -14, -34, -48, -29, -19, -4, 
0, -24, -24, 12, 12, -24, -14, -34, -48, -29, -19, 0, 
0, 0, 0, 0, 0, 0, -24, -43, -48, -39, -29, -9, 
0, 4, 4, -2, -2, 4, -24, -43, -48, -39, -29, -14, 
0, 9, 9, -4, -4, 9, -24, -43, -48, -39, -29, -14, 
0, 14, 14, -7, -7, 14, -24, -43, -48, -39, -29, -19, 
-14, -4, 9, 9, -12, 2, -9, -34, -43, -24, -19, -14, 
-14, -14, 0, 14, -7, -7, 0, -34, -43, -24, -14, -4, 
-14, -19, -4, 17, -4, -12, 0, -29, -39, -24, -14, 0, 
-19, -24, -4, 21, -7, -14, -4, -29, -39, -24, -19, 0, 
-19, -14, 4, 17, -12, -4, -14, -39, -39, -34, -29, -9, 
-19, 0, 19, 9, -19, 9, -14, -43, -43, -34, -34, -14, 
-19, 4, 24, 7, -21, 14, -14, -43, -43, -34, -34, -19, 
-19, 4, 24, 7, -21, 14, -14, -43, -43, -34, -29, -24, 
-19, -14, 4, 17, -12, -4, -9, -39, -39, -24, -19, -19, 
-24, -24, 0, 24, -12, -12, 0, -39, -39, -24, -19, -14, 
-24, -29, -4, 26, -9, -17, 4, -39, -39, -24, -19, -14, 
-24, -34, -9, 29, -7, -21, 9, -39, -39, -24, -19, -9, 
-24, -9, 14, 17, -19, 2, 0, -39, -48, -24, -19, -14, 
-24, -4, 19, 14, -21, 7, -4, -39, -48, -24, -19, -19, 
-29, 0, 29, 14, -29, 14, -4, -39, -48, -19, -19, -24, 
-29, 4, 34, 12, -31, 19, -9, -39, -48, -19, -19, -24, 
-19, -14, 4, 17, -12, -4, 4, -39, -39, -19, -14, -14, 
-19, -14, 4, 17, -12, -4, 4, -39, -39, -19, -14, -14, 
-19, -14, 4, 17, -12, -4, 4, -39, -39, -19, -14, -14, 
-24, -14, 9, 19, -17, -2, 0, -39, -43, -19, -14, -19, 
-24, -4, 19, 14, -21, 7, -9, -48, -53, -34, -24, -29, 
-24, 0, 24, 12, -24, 12, -9, -48, -48, -34, -29, -34, 
-24, 14, 39, 4, -31, 26, -9, -53, -48, -29, -29, -34, 
-19, 19, 39, 0, -29, 29, -9, -53, -48, -24, -29, -29, 
-29, -4, 24, 17, -26, 9, 0, -43, -48, -14, -29, -19, 
-34, -14, 19, 24, -26, 2, 4, -48, -48, -24, -29, -19, 
-34, -24, 9, 29, -21, -7, 4, -48, -48, -24, -29, -19, 
-34, -29, 4, 31, -19, -12, 4, -48, -53, -24, -34, -19, 
-24, -19, 4, 21, -14, -7, -9, -48, -53, -24, -34, -19, 
-24, -14, 9, 19, -17, -2, -9, -48, -53, -24, -39, -29, 
-29, -9, 19, 19, -24, 4, -9, -53, -53, -34, -39, -29, 
-34, -9, 24, 21, -29, 7, -4, -53, -53, -34, -39, -29, 
-43, -24, 19, 34, -31, -2, 4, -53, -43, -29, -39, -29, 
-43, -29, 14, 36, -29, -7, 4, -53, -43, -29, -39, -29, 
-43, -48, -4, 46, -19, -26, 9, -53, -43, -29, -39, -29, 
-43, -43, 0, 43, -21, -21, 9, -53, -43, -29, -39, -29, 
-43, -29, 14, 36, -29, -7, 0, -63, -63, -43, -39, -34, 
-43, -14, 29, 29, -36, 7, 0, -73, -63, -48, -48, -39, 
-43, -4, 39, 24, -41, 17, -9, -73, -68, -53, -53, -43, 
-43, 0, 43, 21, -43, 21, -9, -73, -68, -53, -53, -43, 
-43, -4, 39, 24, -41, 17, 4, -73, -58, -39, -39, -39, 
-43, -19, 24, 31, -34, 2, 4, -73, -58, -39, -39, -39, 
-53, -24, 29, 39, -41, 2, 4, -73, -53, -39, -39, -39, 
-43, -39, 4, 41, -24, -17, 14, -73, -53, -39, -39, -39, 
-43, -34, 9, 39, -26, -12, -4, -63, -68, -53, -53, -48, 
-43, -29, 14, 36, -29, -7, -4, -73, -73, -58, -53, -53, 
-43, -24, 19, 34, -31, -2, -9, -73, -73, -63, -53, -58, 
-43, -14, 29, 29, -36, 7, -9, -73, -78, -63, -58, -58, 
-43, -24, 19, 34, -31, -2, -9, -78, -68, -63, -58, -48, 
-43, -29, 14, 36, -29, -7, -4, -78, -68, -63, -58, -48, 
-43, -29, 14, 36, -29, -7, -4, -78, -68, -68, -58, -48, 
-48, -29, 19, 39, -34, -4, -4, -78, -73, -68, -58, -48, 
-48, -29, 19, 39, -34, -4, -4, -87, -82, -63, -58, -58, 
-48, -34, 14, 41, -31, -9, -4, -92, -82, -63, -58, -58, 
-48, -34, 14, 41, -31, -9, -9, -97, -87, -68, -63, -58, 
-48, -19, 29, 34, -39, 4, -9, -97, -87, -73, -68, -63, 
-39, -9, 29, 24, -34, 9, -9, -102, -87, -78, -68, -53, 
-39, -9, 29, 24, -34, 9, -9, -102, -92, -78, -68, -53, 
-39, -19, 19, 29, -29, 0, -9, -102, -92, -78, -68, -48, 
-39, -24, 14, 31, -26, -4, -9, -102, -87, -78, -68, -48, 
-39, -39, 0, 39, -19, -19, 0, -102, -87, -68, -68, -48, 
-39, -39, 0, 39, -19, -19, 0, -102, -97, -73, -73, -48, 
-39, -34, 4, 36, -21, -14, 0, -102, -97, -78, -73, -58, 
-39, -34, 4, 36, -21, -14, 0, -102, -97, -78, -73, -58, 
-43, -19, 24, 31, -34, 2, -14, -102, -97, -87, -73, -53, 
-43, -19, 24, 31, -34, 2, -14, -107, -97, -87, -73, -53, 
-43, -29, 14, 36, -29, -7, -9, -107, -97, -82, -73, -53, 
-48, -34, 14, 41, -31, -9, -9, -107, -97, -82, -73, -53, 
-48, -39, 9, 43, -29, -14, 0, -97, -87, -73, -73, -43, 
-48, -43, 4, 46, -26, -19, 0, -97, -87, -78, -73, -48, 
-43, -48, -4, 46, -19, -26, -4, -97, -92, -78, -68, -48, 
-43, -48, -4, 46, -19, -26, -9, -97, -92, -87, -68, -48, 
-43, -29, 14, 36, -29, -7, -9, -107, -102, -87, -82, -58, 
-43, -39, 4, 41, -24, -17, -4, -107, -102, -82, -82, -58, 
-43, -43, 0, 43, -21, -21, -4, -107, -102, -82, -82, -53, 
-43, -48, -4, 46, -19, -26, -4, -112, -102, -82, -82, -53, 
-34, -48, -14, 41, -9, -31, 0, -102, -107, -82, -73, -48, 
-34, -48, -14, 41, -9, -31, 0, -102, -107, -82, -73, -48, 
-34, -48, -14, 41, -9, -31, 0, -102, -107, -87, -73, -48, 
-34, -43, -9, 39, -12, -26, -9, -102, -107, -87, -73, -58, 
-34, -34, 0, 34, -17, -17, -19, -122, -107, -102, -73, -58, 
-34, -34, 0, 34, -17, -17, -19, -122, -112, -102, -78, -58, 
-34, -43, -9, 39, -12, -26, -19, -122, -112, -97, -78, -58, 
-34, -43, -9, 39, -12, -26, -14, -122, -112, -97, -78, -58, 
-39, -48, -9, 43, -14, -29, -4, -112, -112, -102, -78, -48, 
-39, -48, -9, 43, -14, -29, -4, -112, -112, -102, -78, -48, 
-43, -43, 0, 43, -21, -21, -4, -112, -112, -102, -78, -48, 
-43, -43, 0, 43, -21, -21, -9, -112, -117, -107, -82, -53, 
-34, -34, 0, 34, -17, -17, -24, -122, -117, -107, -92, -63, 
-34, -24, 9, 29, -21, -7, -24, -122, -117, -107, -92, -63, 
-34, -39, -4, 36, -14, -21, -19, -122, -117, -107, -92, -58, 
-29, -43, -14, 36, -7, -29, -19, -122, -117, -107, -87, -58, 
-29, -48, -19, 39, -4, -34, -9, -117, -107, -97, -87, -48, 
-29, -48, -19, 39, -4, -34, -9, -117, -107, -97, -87, -48, 
-34, -43, -9, 39, -12, -26, -9, -117, -112, -97, -92, -48, 
-34, -43, -9, 39, -12, -26, -9, -117, -112, -97, -92, -48, 
-34, -24, 9, 29, -21, -7, -24, -122, -112, -112, -92, -63, 
-34, -24, 9, 29, -21, -7, -29, -122, -112, -112, -92, -63, 
-34, -29, 4, 31, -19, -12, -29, -122, -117, -112, -92, -63, 
-34, -34, 0, 34, -17, -17, -24, -122, -117, -112, -92, -63, 
-29, -43, -14, 36, -7, -29, -24, -122, -112, -92, -82, -58, 
-29, -53, -24, 41, -2, -39, -19, -117, -112, -92, -78, -58, 
-29, -53, -24, 41, -2, -39, -19, -117, -112, -92, -78, -58, 
-29, -53, -24, 41, -2, -39, -24, -117, -112, -97, -82, -58, 
-29, -39, -9, 34, -9, -24, -29, -136, -122, -112, -92, -73, 
-29, -29, 0, 29, -14, -14, -29, -136, -126, -112, -92, -73, 
-29, -24, 4, 26, -17, -9, -29, -136, -126, -112, -92, -73, 
-29, -14, 14, 21, -21, 0, -29, -136, -126, -112, -92, -73, 
-39, -14, 24, 26, -31, 4, -19, -126, -117, -102, -92, -68, 
-39, -43, -4, 41, -17, -24, -14, -122, -117, -102, -92, -58, 
-39, -48, -9, 43, -14, -29, -14, -122, -117, -102, -92, -53, 
-43, -53, -9, 48, -17, -31, -14, -122, -117, -102, -92, -48, 
-34, -48, -14, 41, -9, -31, -24, -131, -126, -102, -92, -63, 
-34, -34, 0, 34, -17, -17, -29, -131, -126, -102, -92, -63, 
-29, -29, 0, 29, -14, -14, -29, -131, -126, -102, -97, -63, 
-29, -24, 4, 26, -17, -9, -29, -136, -126, -102, -97, -58, 
-39, -43, -4, 41, -17, -24, -19, -126, -117, -102, -92, -48, 
-39, -48, -9, 43, -14, -29, -9, -126, -117, -102, -92, -48, 
-39, -48, -9, 43, -14, -29, -9, -126, -117, -102, -92, -48, 
-39, -43, -4, 41, -17, -24, -19, -126, -117, -102, -97, -53, 
-39, -34, 4, 36, -21, -14, -29, -136, -126, -107, -87, -63, 
-39, -29, 9, 34, -24, -9, -29, -136, -126, -107, -87, -63, 
-39, -24, 14, 31, -26, -4, -29, -136, -131, -107, -87, -63, 
-39, -24, 14, 31, -26, -4, -29, -136, -131, -107, -87, -63, 
-29, -43, -14, 36, -7, -29, -19, -126, -122, -92, -87, -53, 
-29, -48, -19, 39, -4, -34, -14, -126, -122, -92, -87, -48, 
-29, -48, -19, 39, -4, -34, -14, -126, -122, -92, -87, -48, 
-34, -53, -19, 43, -7, -36, -14, -126, -122, -92, -87, -48, 
-34, -48, -14, 41, -9, -31, -24, -126, -122, -102, -87, -58, 
-34, -43, -9, 39, -12, -26, -29, -126, -122, -102, -87, -58, 
-34, -34, 0, 34, -17, -17, -34, -126, -122, -102, -87, -58, 
-29, -29, 0, 29, -14, -14, -34, -126, -122, -102, -87, -58, 
-29, -48, -19, 39, -4, -34, -19, -126, -117, -102, -87, -48, 
-24, -58, -34, 41, 4, -46, -14, -126, -117, -102, -87, -48, 
-24, -63, -39, 43, 7, -51, -14, -126, -117, -102, -82, -48, 
-24, -68, -43, 46, 9, -56, -14, -122, -117, -102, -82, -43, 
-34, -58, -24, 46, -4, -41, -24, -131, -126, -112, -92, -48, 
-34, -48, -14, 41, -9, -31, -29, -131, -126, -112, -92, -53, 
-39, -24, 14, 31, -26, -4, -29, -136, -126, -112, -92, -63, 
-39, -14, 24, 26, -31, 4, -24, -136, -126, -112, -92, -68, 
-24, -29, -4, 26, -9, -17, -14, -136, -117, -102, -92, -58, 
-24, -34, -9, 29, -7, -21, -14, -136, -117, -102, -92, -53, 
-29, -43, -14, 36, -7, -29, -14, -136, -117, -102, -92, -53, 
-29, -53, -24, 41, -2, -39, -14, -136, -112, -102, -92, -53, 
-29, -53, -24, 41, -2, -39, -14, -122, -122, -92, -87, -53, 
-24, -29, -4, 26, -9, -17, -24, -131, -122, -107, -97, -63, 
-29, -9, 19, 19, -24, 4, -29, -136, -136, -107, -97, -68, 
-29, -14, 14, 21, -21, 0, -29, -136, -126, -107, -97, -58, 
-29, -19, 9, 24, -19, -4, -29, -136, -126, -107, -97, -58, 
-29, -24, 4, 26, -17, -9, -29, -136, -126, -107, -97, -58, 
-29, -29, 0, 29, -14, -14, -29, -136, -126, -107, -97, -58, 
-29, -43, -14, 36, -7, -29, -19, -126, -117, -97, -87, -48, 
-29, -48, -19, 39, -4, -34, -19, -126, -117, -97, -87, -48, 
-29, -53, -24, 41, -2, -39, -19, -126, -117, -97, -87, -48, 
-29, -58, -29, 43, 0, -43, -19, -126, -117, -97, -87, -48, 
-29, -53, -24, 41, -2, -39, -29, -126, -126, -107, -87, -58, 
-29, -48, -19, 39, -4, -34, -29, -126, -126, -107, -87, -58, 
-29, -43, -14, 36, -7, -29, -29, -126, -126, -107, -87, -58, 
-29, -39, -9, 34, -9, -24, -29, -126, -126, -107, -87, -58, 
-29, -48, -19, 39, -4, -34, -19, -126, -126, -107, -87, -48, 
-29, -48, -19, 39, -4, -34, -19, -126, -126, -107, -87, -48, 
-29, -48, -19, 39, -4, -34, -19, -126, -126, -107, -87, -48, 
-29, -48, -19, 39, -4, -34, -19, -126, -126, -107, -87, -48, 
-29, -34, -4, 31, -12, -19, -29, -136, -126, -117, -97, -58, 
-29, -29, 0, 29, -14, -14, -29, -136, -126, -117, -97, -58, 
-29, -24, 4, 26, -17, -9, -29, -136, -126, -117, -97, -58, 
-29, -19, 9, 24, -19, -4, -29, -136, -126, -117, -97, -58, 
-29, -34, -4, 31, -12, -19, -24, -126, -126, -107, -87, -48, 
-29, -39, -9, 34, -9, -24, -19, -126, -126, -107, -87, -48, 
-29, -43, -14, 36, -7, -29, -14, -126, -126, -107, -87, -48, 
-29, -48, -19, 39, -4, -34, -9, -126, -126, -107, -87, -48, 
-29, -43, -14, 36, -7, -29, -14, -136, -126, -107, -97, -58, 
-29, -39, -9, 34, -9, -24, -19, -136, -126, -107, -97, -58, 
-29, -34, -4, 31, -12, -19, -24, -136, -126, -107, -97, -58, 
-29, -29, 0, 29, -14, -14, -29, -136, -126, -107, -97, -58, 
-29, -43, -14, 36, -7, -29, -19, -126, -126, -97, -87, -48, 
-29, -48, -19, 39, -4, -34, -19, -126, -126, -97, -87, -48, 
-29, -53, -24, 41, -2, -39, -19, -126, -126, -97, -87, -48, 
-29, -58, -29, 43, 0, -43, -19, -126, -126, -97, -87, -48, 
-19, -43, -24, 31, 2, -34, -29, -136, -126, -102, -97, -58, 
-19, -39, -19, 29, 0, -29, -29, -136, -126, -107, -97, -58, 
-19, -34, -14, 26, -2, -24, -29, -136, -126, -112, -97, -58, 
-19, -29, -9, 24, -4, -19, -29, -136, -126, -117, -97, -58, 
-29, -43, -14, 36, -7, -29, -19, -136, -126, -107, -97, -48, 
-29, -48, -19, 39, -4, -34, -19, -136, -126, -107, -97, -48, 
-29, -53, -24, 41, -2, -39, -19, -136, -126, -107, -97, -48, 
-29, -58, -29, 43, 0, -43, -19, -136, -126, -107, -97, -48, 
-19, -48, -29, 34, 4, -39, -29, -136, -117, -117, -87, -58, 
-19, -48, -29, 34, 4, -39, -29, -136, -117, -117, -87, -58, 
-19, -48, -29, 34, 4, -39, -29, -136, -117, -117, -87, -58, 
-19, -48, -29, 34, 4, -39, -29, -136, -117, -117, -87, -58, 
-19, -58, -39, 39, 9, -48, -19, -126, -126, -107, -87, -48, 
-19, -58, -39, 39, 9, -48, -19, -126, -126, -107, -87, -48, 
-19, -58, -39, 39, 9, -48, -19, -126, -126, -107, -87, -48, 
-19, -58, -39, 39, 9, -48, -19, -126, -126, -107, -87, -48, 
-19, -43, -24, 31, 2, -34, -24, -126, -126, -117, -97, -58, 
-19, -39, -19, 29, 0, -29, -29, -126, -126, -117, -97, -58, 
-19, -34, -14, 26, -2, -24, -34, -126, -126, -117, -97, -58, 
-19, -29, -9, 24, -4, -19, -39, -126, -126, -117, -97, -58, 
-29, -43, -14, 36, -7, -29, -34, -136, -117, -117, -87, -48, 
-29, -48, -19, 39, -4, -34, -29, -136, -117, -117, -87, -48, 
-29, -53, -24, 41, -2, -39, -24, -136, -117, -117, -87, -48, 
-29, -58, -29, 43, 0, -43, -19, -136, -117, -117, -87, -48, 
-19, -53, -34, 36, 7, -43, -29, -136, -117, -107, -97, -58, 
-19, -48, -29, 34, 4, -39, -29, -136, -117, -107, -97, -58, 
-19, -43, -24, 31, 2, -34, -29, -136, -117, -107, -97, -58, 
-19, -39, -19, 29, 0, -29, -29, -136, -117, -107, -97, -58, 
-19, -39, -19, 29, 0, -29, -24, -126, -117, -107, -87, -48, 
-19, -39, -19, 29, 0, -29, -19, -126, -117, -107, -87, -48, 
-19, -39, -19, 29, 0, -29, -14, -126, -117, -107, -87, -48, 
-19, -39, -19, 29, 0, -29, -9, -126, -117, -107, -87, -48, 
-19, -24, -4, 21, -7, -14, -9, -122, -102, -102, -82, -43, 
-19, -19, 0, 19, -9, -9, -9, -117, -97, -97, -78, -39, 
-19, -14, 4, 17, -12, -4, -9, -112, -92, -92, -73, -34, 
-19, -9, 9, 14, -14, 0, -9, -107, -87, -87, -68, -29, 
-14, 4, 19, 4, -17, 12, -9, -97, -82, -73, -58, -24, 
-9, 9, 19, 0, -14, 14, -9, -97, -78, -68, -58, -19, 
-4, 14, 19, -4, -12, 17, -9, -97, -73, -63, -58, -14, 
0, 19, 19, -9, -9, 19, -9, -97, -68, -58, -58, -9, 
9, 19, 9, -14, 0, 14, -9, -87, -63, -48, -53, -9, 
9, 19, 9, -14, 0, 14, -9, -87, -58, -48, -48, -9, 
9, 19, 9, -14, 0, 14, -9, -87, -53, -48, -43, -9, 
9, 19, 9, -14, 0, 14, -9, -87, -48, -48, -39, -9, 
9, 29, 19, -19, -4, 24, -9, -78, -39, -39, -39, 0, 
9, 29, 19, -19, -4, 24, -9, -78, -39, -39, -39, 0, 
9, 29, 19, -19, -4, 24, -9, -78, -39, -39, -39, 0, 
9, 29, 19, -19, -4, 24, -9, -78, -39, -39, -39, 0, 
19, 24, 4, -21, 7, 14, -4, -68, -29, -19, -34, 9, 
19, 34, 14, -26, 2, 24, -4, -68, -29, -19, -29, 9, 
19, 48, 29, -34, -4, 39, -9, -68, -24, -19, -19, 9, 
19, 63, 43, -41, -12, 53, -19, -68, -24, -14, -14, 14, 
19, 78, 58, -48, -19, 68, -39, -78, -19, -14, -4, 14, 
29, 78, 48, -53, -9, 63, -48, -73, -19, -4, -4, 24, 
43, 82, 39, -63, 2, 61, -63, -73, -19, 4, 4, 34, 
48, 92, 43, -70, 2, 68, -73, -78, -9, 9, 14, 48, 
39, 82, 43, -61, -2, 63, -73, -92, -14, 4, 9, 53, 
43, 78, 34, -61, 4, 56, -78, -107, -29, -9, 4, 39, 
43, 73, 29, -58, 7, 51, -87, -117, -43, -24, -9, 34, 
48, 63, 14, -56, 17, 39, -92, -126, -58, -39, -19, 19, 
63, 73, 9, -68, 26, 41, -107, -126, -73, -58, -43, 9, 
63, 68, 4, -65, 29, 36, -112, -131, -87, -68, -48, 9, 
63, 58, -4, -61, 34, 26, -117, -131, -97, -78, -53, 4, 
68, 39, -29, -53, 48, 4, -126, -136, -102, -82, -53, 4, 
58, 29, -29, -43, 43, 0, -122, -136, -102, -82, -58, 4, 
63, 19, -43, -41, 53, -12, -126, -141, -112, -82, -63, 4, 
68, 19, -48, -43, 58, -14, -126, -146, -122, -97, -73, -4, 
68, 19, -48, -43, 58, -14, -122, -161, -131, -102, -82, -9, 
63, 34, -29, -48, 46, 2, -107, -161, -126, -102, -73, -9, 
58, 39, -19, -48, 39, 9, -102, -161, -126, -102, -73, -9, 
58, 43, -14, -51, 36, 14, -102, -156, -117, -97, -73, -4, 
58, 48, -9, -53, 34, 19, -87, -156, -117, -92, -73, -4, 
39, 34, -4, -36, 21, 14, -68, -141, -102, -87, -58, 9, 
24, 24, 0, -24, 12, 12, -63, -136, -102, -87, -58, 9, 
19, 19, 0, -19, 9, 9, -58, -131, -97, -82, -53, 9, 
19, 14, -4, -17, 12, 4, -48, -126, -97, -82, -53, 4, 
14, 24, 9, -19, 2, 17, -53, -131, -97, -92, -63, -4, 
9, 14, 4, -12, 2, 9, -48, -126, -102, -92, -63, -9, 
-4, -4, 0, 4, -2, -2, -39, -126, -107, -92, -73, -19, 
-14, -19, -4, 17, -4, -12, -34, -136, -122, -107, -82, -39, 
-19, -34, -14, 26, -2, -24, -24, -136, -117, -102, -87, -39, 
-24, -48, -24, 36, 0, -36, -14, -136, -117, -107, -87, -39, 
-24, -48, -24, 36, 0, -36, -14, -131, -117, -107, -87, -39, 
-19, -48, -29, 34, 4, -39, -14, -126, -117, -107, -92, -39, 
-19, -39, -19, 29, 0, -29, -24, -136, -117, -117, -102, -53, 
-19, -39, -19, 29, 0, -29, -29, -136, -122, -122, -102, -58, 
-19, -39, -19, 29, 0, -29, -29, -136, -122, -122, -102, -63, 
-19, -39, -19, 29, 0, -29, -24, -136, -122, -122, -102, -63, 
-24, -68, -43, 46, 9, -56, -19, -136, -122, -107, -102, -48, 
-24, -78, -53, 51, 14, -65, -14, -131, -122, -107, -102, -48, 
-19, -78, -58, 48, 19, -68, -14, -131, -122, -107, -102, -53, 
-19, -68, -48, 43, 14, -58, -14, -131, -126, -117, -107, -58, 
-29, -58, -29, 43, 0, -43, -24, -136, -141, -126, -107, -68, 
-29, -48, -19, 39, -4, -34, -34, -136, -141, -126, -112, -73, 
-29, -48, -19, 39, -4, -34, -24, -136, -136, -126, -112, -73, 
-29, -48, -19, 39, -4, -34, -24, -136, -131, -122, -107, -68, 
-24, -63, -39, 43, 7, -51, -14, -126, -122, -122, -102, -53, 
-24, -73, -48, 48, 12, -61, -9, -122, -122, -117, -102, -53, 
-24, -78, -53, 51, 14, -65, -9, -122, -122, -117, -102, -53, 
-24, -78, -53, 51, 14, -65, -9, -122, -122, -117, -102, -53, 
-29, -63, -34, 46, 2, -48, -19, -122, -122, -117, -102, -68, 
-29, -53, -24, 41, -2, -39, -19, -122, -122, -122, -102, -68, 
-29, -48, -19, 39, -4, -34, -19, -122, -122, -122, -102, -68, 
-29, -43, -14, 36, -7, -29, -19, -122, -122, -122, -102, -63, 
-29, -53, -24, 41, -2, -39, -9, -122, -107, -107, -92, -58, 
-29, -73, -43, 51, 7, -58, 0, -122, -107, -107, -97, -53, 
-29, -82, -53, 56, 12, -68, 4, -117, -107, -107, -97, -48, 
-29, -92, -63, 61, 17, -78, 14, -117, -102, -107, -97, -43, 
-29, -78, -48, 53, 9, -63, 9, -126, -112, -117, -107, -48, 
-29, -68, -39, 48, 4, -53, -4, -126, -112, -117, -102, -53, 
-29, -53, -24, 41, -2, -39, -14, -126, -112, -117, -102, -58, 
-29, -48, -19, 39, -4, -34, -19, -126, -112, -117, -107, -63, 
-29, -58, -29, 43, 0, -43, -4, -117, -102, -107, -107, -53, 
-29, -68, -39, 48, 4, -53, 0, -117, -102, -107, -102, -53, 
-29, -73, -43, 51, 7, -58, 0, -112, -102, -102, -102, -48, 
-29, -73, -43, 51, 7, -58, 4, -112, -102, -97, -102, -48, 
-34, -58, -24, 46, -4, -41, -4, -122, -112, -107, -97, -58, 
-34, -58, -24, 46, -4, -41, -14, -122, -112, -112, -97, -68, 
-29, -53, -24, 41, -2, -39, -14, -122, -117, -117, -102, -68, 
-29, -53, -24, 41, -2, -39, -9, -122, -117, -117, -102, -63, 
-29, -58, -29, 43, 0, -43, -9, -112, -107, -107, -102, -63, 
-19, -73, -53, 46, 17, -63, 9, -112, -102, -107, -92, -63, 
-29, -87, -58, 58, 14, -73, 24, -107, -102, -107, -112, -58, 
-39, -97, -58, 68, 9, -78, 39, -87, -97, -107, -126, -82, 
-48, -97, -48, 73, 0, -73, 48, -92, -92, -112, -136, -102, 
-63, -82, -19, 73, -21, -51, 53, -102, -87, -112, -136, -112, 
-87, -73, 14, 80, -51, -29, 48, -107, -87, -112, -151, -131, 
-92, -68, 24, 80, -58, -21, 48, -122, -87, -112, -151, -136, 
-97, -78, 19, 87, -58, -29, 48, -141, -78, -102, -141, -126, 
-102, -78, 24, 90, -63, -26, 48, -151, -82, -92, -141, -102, 
-102, -82, 19, 92, -61, -31, 48, -165, -97, -102, -136, -92, 
-92, -82, 9, 87, -51, -36, 34, -185, -122, -117, -136, -87, 
-68, -68, 0, 68, -34, -34, 4, -200, -141, -122, -117, -63, 
-39, -58, -19, 48, -9, -39, -14, -195, -165, -131, -102, -39, 
-9, -34, -24, 21, 7, -29, -43, -204, -185, -156, -92, -19, 
29, -24, -53, -2, 41, -39, -82, -224, -195, -156, -82, 4, 
63, -9, -73, -26, 68, -41, -117, -239, -204, -131, -29, 78, 
122, 19, -102, -70, 112, -41, -151, -258, -180, -68, 58, 190, 
209, 73, -136, -141, 173, -31, -219, -278, -161, -14, 170, 322, 
322, 146, -175, -234, 248, -14, -326, -307, -180, 14, 287, 468, 
448, 209, -239, -329, 344, -14, -444, -326, -209, 53, 419, 644, 
570, 273, -297, -422, 434, -12, -556, -351, -248, 78, 527, 790, 
707, 326, -380, -517, 544, -26, -668, -385, -322, 48, 600, 907, 
849, 375, -473, -612, 661, -48, -780, -400, -395, 24, 668, 1034, 
956, 458, -497, -707, 727, -19, -863, -395, -405, 68, 790, 1200, 
1034, 575, -458, -805, 746, 58, -917, -424, -385, 141, 912, 1361, 
1093, 624, -468, -858, 780, 78, -961, -502, -419, 122, 927, 1434, 
1146, 605, -541, -875, 844, 31, -995, -580, -497, 53, 893, 1454, 
1171, 566, -605, -868, 888, -19, -1015, -649, -575, -24, 805, 1400, 
1127, 468, -658, -797, 893, -95, -1000, -722, -653, -156, 590, 1185, 
1034, 287, -746, -661, 890, -229, -936, -814, -771, -356, 234, 780, 
907, 136, -771, -522, 839, -317, -893, -912, -878, -566, -122, 390, 
790, 63, -727, -427, 758, -331, -863, -1058, -1000, -732, -370, 151, 
658, 53, -605, -356, 631, -275, -819, -1229, -1107, -858, -541, 0, 
483, 87, -395, -285, 439, -153, -722, -1327, -1107, -927, -673, -131, 
322, 156, -165, -239, 244, -4, -575, -1317, -1010, -897, -712, -195, 
219, 190, -29, -204, 124, 80, -444, -1234, -907, -824, -692, -185, 
161, 200, 39, -180, 61, 119, -356, -1161, -849, -800, -692, -204, 
117, 136, 19, -126, 48, 78, -287, -1049, -805, -795, -702, -268, 
63, 63, 0, -63, 31, 31, -190, -922, -727, -761, -692, -302, 
14, 19, 4, -17, 4, 12, -107, -814, -668, -712, -653, -317, 
-24, -14, 9, 19, -17, -2, -39, -727, -614, -668, -629, -331, 
-68, -53, 14, 61, -41, -19, 43, -629, -531, -610, -605, -336, 
-92, -78, 14, 85, -53, -31, 112, -546, -463, -551, -566, -312, 
-107, -73, 34, 90, -70, -19, 126, -478, -429, -507, -512, -302, 
-112, -73, 39, 92, -75, -17, 117, -409, -390, -463, -468, -287, 
-112, -63, 48, 87, -80, -7, 107, -351, -351, -414, -414, -273, 
-122, -39, 82, 80, -102, 21, 97, -283, -297, -351, -366, -258, 
-117, -9, 107, 63, -112, 48, 107, -214, -229, -283, -317, -229, 
-97, 0, 97, 48, -97, 48, 117, -146, -165, -214, -263, -204, 
-97, -19, 78, 58, -87, 29, 136, -82, -112, -161, -214, -180, 
-92, -43, 48, 68, -70, 2, 151, -24, -48, -107, -156, -146, 
-82, -53, 29, 68, -56, -12, 161, 14, 0, -53, -112, -112, 
-78, -53, 24, 65, -51, -14, 161, 48, 29, -24, -92, -97, 
-68, -53, 14, 61, -41, -19, 141, 58, 43, -19, -82, -97, 
-63, -34, 29, 48, -46, -2, 117, 68, 48, -4, -73, -97, 
-58, -14, 43, 36, -51, 14, 102, 68, 48, 0, -73, -97, 
-53, -24, 29, 39, -41, 2, 97, 82, 58, 4, -58, -92, 
-53, -48, 4, 51, -29, -21, 107, 97, 68, 14, -48, -78, 
-58, -53, 4, 56, -31, -24, 112, 107, 78, 24, -39, -58, 
-53, -68, -14, 61, -19, -41, 117, 117, 82, 29, -29, -58, 
-53, -73, -19, 63, -17, -46, 122, 122, 87, 34, -29, -58, 
-53, -78, -24, 65, -14, -51, 117, 126, 87, 39, -24, -48, 
-43, -68, -24, 56, -9, -46, 112, 136, 92, 43, -19, -53, 
-39, -58, -19, 48, -9, -39, 112, 136, 92, 48, -19, -53, 
-39, -53, -14, 46, -12, -34, 107, 136, 102, 53, -19, -58, 
-39, -53, -14, 46, -12, -34, 107, 136, 102, 58, -4, -58, 
-39, -68, -29, 53, -4, -48, 112, 156, 117, 58, 0, -48, 
-43, -73, -29, 58, -7, -51, 112, 161, 117, 58, 4, -48, 
-48, -78, -29, 63, -9, -53, 112, 165, 122, 63, 4, -43, 
-53, -78, -24, 65, -14, -51, 112, 170, 126, 68, 4, -43, 
-53, -58, -4, 56, -24, -31, 102, 165, 117, 58, 4, -53, 
-53, -53, 0, 53, -26, -26, 92, 161, 117, 63, 4, -53, 
-48, -43, 4, 46, -26, -19, 92, 161, 117, 63, 4, -53, 
-48, -39, 9, 43, -29, -14, 97, 165, 122, 68, 9, -48, 
-48, -58, -9, 53, -19, -34, 107, 175, 136, 73, 19, -39, 
-48, -63, -14, 56, -17, -39, 107, 180, 136, 82, 24, -34, 
-48, -73, -24, 61, -12, -48, 107, 185, 146, 87, 24, -29, 
-48, -78, -29, 63, -9, -53, 112, 190, 146, 92, 24, -29, 
-48, -63, -14, 56, -17, -39, 102, 195, 141, 92, 24, -39, 
-48, -53, -4, 51, -21, -29, 97, 195, 141, 92, 29, -39, 
-48, -48, 0, 48, -24, -24, 97, 195, 146, 92, 34, -34, 
-48, -39, 9, 43, -29, -14, 97, 200, 146, 92, 34, -34, 
-39, -43, -4, 41, -17, -24, 107, 195, 165, 107, 34, -24, 
-39, -53, -14, 46, -12, -34, 107, 200, 165, 107, 39, -24, 
-39, -63, -24, 51, -7, -43, 107, 209, 170, 117, 43, -24, 
-34, -68, -34, 51, 0, -51, 112, 214, 175, 122, 48, -19, 
-34, -53, -19, 43, -7, -36, 112, 229, 175, 126, 53, -19, 
-39, -53, -14, 46, -12, -34, 112, 234, 180, 126, 53, -14, 
-39, -48, -9, 43, -14, -29, 112, 234, 180, 131, 53, -14, 
-34, -43, -9, 39, -12, -26, 107, 234, 185, 131, 58, -14, 
-34, -39, -4, 36, -14, -21, 107, 234, 185, 136, 58, -14, 
-34, -39, -4, 36, -14, -21, 112, 244, 190, 141, 68, -9, 
-34, -48, -14, 41, -9, -31, 112, 248, 200, 151, 73, -4, 
-34, -48, -14, 41, -9, -31, 117, 253, 204, 156, 73, 0, 
-34, -34, 0, 34, -17, -17, 117, 248, 204, 151, 82, 0, 
-34, -34, 0, 34, -17, -17, 117, 253, 204, 151, 82, 0, 
-34, -29, 4, 31, -19, -12, 112, 258, 209, 151, 82, 0, 
-34, -24, 9, 29, -21, -7, 112, 263, 214, 156, 82, 0, 
-34, -34, 0, 34, -17, -17, 107, 278, 224, 175, 97, 9, 
-34, -34, 0, 34, -17, -17, 107, 283, 234, 180, 107, 14, 
-29, -39, -9, 34, -9, -24, 107, 292, 239, 185, 112, 14, 
-29, -39, -9, 34, -9, -24, 122, 297, 244, 190, 117, 19, 
-29, -24, 4, 26, -17, -9, 131, 307, 244, 190, 126, 19, 
-29, -24, 4, 26, -17, -9, 122, 312, 248, 200, 126, 19, 
-29, -19, 9, 24, -19, -4, 122, 312, 248, 200, 126, 24, 
-29, -19, 9, 24, -19, -4, 122, 317, 253, 209, 136, 24, 
-29, -24, 4, 26, -17, -9, 126, 322, 263, 214, 141, 24, 
-29, -24, 4, 26, -17, -9, 126, 326, 268, 219, 146, 29, 
-24, -29, -4, 26, -9, -17, 131, 331, 273, 224, 151, 34, 
-24, -29, -4, 26, -9, -17, 131, 341, 278, 229, 156, 34, 
-24, -14, 9, 19, -17, -2, 131, 346, 283, 234, 161, 39, 
-24, -9, 14, 17, -19, 2, 131, 356, 287, 239, 161, 39, 
-24, -9, 14, 17, -19, 2, 131, 361, 292, 244, 170, 39, 
-24, -4, 19, 14, -21, 7, 131, 366, 297, 253, 170, 39, 
-24, 0, 24, 12, -24, 12, 126, 375, 302, 268, 180, 53, 
-24, 0, 24, 12, -24, 12, 126, 380, 307, 268, 185, 53, 
-24, 4, 29, 9, -26, 17, 126, 395, 312, 273, 195, 58, 
-24, 4, 29, 9, -26, 17, 136, 405, 322, 287, 200, 58, 
-19, -4, 14, 12, -17, 4, 136, 414, 336, 287, 209, 58, 
-19, -4, 14, 12, -17, 4, 136, 419, 341, 297, 209, 58, 
-19, -4, 14, 12, -17, 4, 141, 434, 351, 307, 219, 63, 
-14, -4, 9, 9, -12, 2, 141, 444, 356, 317, 224, 68, 
-14, 19, 34, -2, -24, 26, 131, 444, 366, 331, 229, 68, 
-14, 24, 39, -4, -26, 31, 131, 448, 366, 331, 234, 68, 
-14, 24, 39, -4, -26, 31, 136, 463, 370, 336, 239, 68, 
-14, 14, 29, 0, -21, 21, 141, 478, 380, 351, 248, 78, 
-19, 4, 24, 7, -21, 14, 151, 497, 400, 356, 263, 92, 
-19, 9, 29, 4, -24, 19, 156, 507, 409, 370, 263, 102, 
-14, 9, 24, 2, -19, 17, 161, 522, 414, 385, 273, 102, 
-14, 19, 34, -2, -24, 26, 161, 536, 419, 390, 283, 102, 
-4, 29, 34, -12, -19, 31, 151, 541, 434, 395, 273, 97, 
-4, 29, 34, -12, -19, 31, 151, 551, 444, 405, 287, 107, 
-4, 29, 34, -12, -19, 31, 156, 566, 453, 414, 297, 107, 
-4, 29, 34, -12, -19, 31, 156, 575, 463, 424, 297, 117, 
-9, 24, 34, -7, -21, 29, 175, 590, 478, 434, 312, 126, 
-9, 24, 34, -7, -21, 29, 180, 605, 488, 444, 326, 131, 
-4, 24, 29, -9, -17, 26, 180, 614, 497, 448, 326, 131, 
-4, 29, 34, -12, -19, 31, 180, 629, 502, 463, 336, 136, 
-4, 48, 53, -21, -29, 51, 175, 639, 517, 463, 336, 126, 
-4, 58, 63, -26, -34, 61, 175, 649, 527, 478, 346, 126, 
-4, 58, 63, -26, -34, 61, 180, 663, 536, 483, 346, 136, 
-4, 53, 58, -24, -31, 56, 180, 673, 546, 488, 356, 141, 
-4, 48, 53, -21, -29, 51, 200, 683, 556, 507, 370, 146, 
-4, 43, 48, -19, -26, 46, 204, 692, 566, 517, 380, 151, 
-4, 39, 43, -17, -24, 41, 204, 707, 575, 522, 385, 151, 
-4, 39, 43, -17, -24, 41, 204, 712, 580, 541, 395, 151, 
-4, 48, 53, -21, -29, 51, 195, 722, 585, 541, 385, 151, 
-4, 63, 68, -29, -36, 65, 195, 732, 595, 541, 390, 151, 
-4, 68, 73, -31, -39, 70, 195, 741, 600, 541, 395, 151, 
-9, 73, 82, -31, -46, 78, 195, 751, 610, 551, 405, 151, 
-9, 63, 73, -26, -41, 68, 204, 771, 624, 556, 409, 156, 
-4, 58, 63, -26, -34, 61, 219, 775, 634, 566, 414, 165, 
-4, 53, 58, -24, -31, 56, 224, 785, 639, 580, 414, 165, 
-4, 48, 53, -21, -29, 51, 234, 785, 644, 595, 424, 170, 
-4, 63, 68, -29, -36, 65, 229, 795, 639, 600, 419, 161, 
-4, 73, 78, -34, -41, 75, 224, 800, 649, 600, 419, 161, 
-4, 87, 92, -41, -48, 90, 214, 800, 653, 595, 419, 161, 
-4, 97, 102, -46, -53, 100, 209, 810, 658, 590, 424, 161, 
-9, 82, 92, -36, -51, 87, 224, 805, 673, 600, 439, 161, 
-9, 78, 87, -34, -48, 82, 224, 810, 678, 605, 444, 161, 
-9, 73, 82, -31, -46, 78, 229, 810, 683, 610, 448, 165, 
-9, 68, 78, -29, -43, 73, 229, 805, 683, 614, 448, 170, 
-9, 73, 82, -31, -46, 78, 224, 814, 673, 619, 439, 170, 
-9, 82, 92, -36, -51, 87, 219, 814, 673, 614, 434, 165, 
-4, 102, 107, -48, -56, 104, 214, 814, 673, 610, 434, 161, 
-4, 107, 112, -51, -58, 109, 214, 805, 673, 600, 434, 161, 
-14, 97, 112, -41, -63, 104, 229, 795, 683, 605, 434, 165, 
-14, 92, 107, -39, -61, 100, 229, 790, 683, 605, 434, 165, 
-14, 92, 107, -39, -61, 100, 229, 775, 673, 595, 434, 165, 
-14, 92, 107, -39, -61, 100, 224, 766, 673, 590, 424, 165, 
-9, 97, 107, -43, -58, 102, 209, 766, 653, 585, 424, 165, 
-9, 107, 117, -48, -63, 112, 204, 746, 644, 580, 419, 161, 
-9, 122, 131, -56, -70, 126, 195, 732, 634, 570, 414, 161, 
-9, 112, 122, -51, -65, 117, 190, 712, 624, 556, 409, 161, 
-14, 102, 117, -43, -65, 109, 190, 697, 624, 556, 405, 170, 
-14, 92, 107, -39, -61, 100, 185, 678, 610, 546, 395, 175, 
-24, 92, 117, -34, -70, 104, 185, 658, 595, 536, 385, 175, 
-24, 92, 117, -34, -70, 104, 180, 629, 570, 517, 375, 165, 
-14, 107, 122, -46, -68, 114, 165, 595, 551, 492, 366, 156, 
-9, 107, 117, -48, -63, 112, 161, 575, 527, 473, 356, 156, 
-4, 112, 117, -53, -61, 114, 146, 551, 512, 453, 341, 151, 
0, 112, 112, -56, -56, 112, 131, 527, 488, 439, 336, 146, 
-4, 97, 102, -46, -53, 100, 126, 492, 468, 419, 317, 146, 
-4, 92, 97, -43, -51, 95, 122, 463, 448, 409, 307, 146, 
-4, 82, 87, -39, -46, 85, 117, 439, 424, 385, 292, 141, 
-4, 82, 87, -39, -46, 85, 112, 409, 409, 370, 278, 136, 
-4, 87, 92, -41, -48, 90, 92, 390, 370, 346, 278, 131, 
0, 92, 92, -46, -46, 92, 87, 356, 346, 322, 263, 126, 
0, 97, 97, -48, -48, 97, 73, 331, 326, 297, 248, 122, 
0, 102, 102, -51, -51, 102, 63, 302, 302, 278, 229, 117, 
9, 102, 92, -56, -41, 97, 58, 273, 278, 263, 209, 112, 
9, 102, 92, -56, -41, 97, 48, 248, 258, 244, 204, 107, 
9, 87, 78, -48, -34, 82, 48, 224, 244, 229, 190, 107, 
9, 87, 78, -48, -34, 82, 43, 204, 224, 209, 175, 102, 
14, 73, 58, -43, -21, 65, 39, 195, 214, 204, 175, 107, 
14, 68, 53, -41, -19, 61, 29, 180, 200, 190, 161, 102, 
14, 68, 53, -41, -19, 61, 19, 161, 180, 170, 146, 97, 
19, 68, 48, -43, -14, 58, 9, 141, 161, 156, 131, 97, 
19, 58, 39, -39, -9, 48, 4, 122, 136, 136, 122, 92, 
19, 53, 34, -36, -7, 43, 4, 107, 117, 122, 117, 87, 
19, 43, 24, -31, -2, 34, 4, 97, 107, 112, 107, 82, 
19, 34, 14, -26, 2, 24, 4, 82, 102, 107, 102, 82, 
19, 39, 19, -29, 0, 29, 0, 68, 82, 87, 82, 68, 
19, 34, 14, -26, 2, 24, 0, 48, 68, 78, 73, 63, 
24, 34, 9, -29, 7, 21, -4, 39, 53, 58, 63, 58, 
24, 39, 14, -31, 4, 26, -14, 24, 39, 48, 53, 48, 
19, 39, 19, -29, 0, 29, -24, 19, 34, 34, 43, 53, 
19, 34, 14, -26, 2, 24, -24, 9, 29, 29, 43, 53, 
19, 24, 4, -21, 7, 14, -24, 4, 24, 29, 34, 48, 
19, 14, -4, -17, 12, 4, -19, 4, 24, 24, 29, 48, 
14, 4, -9, -9, 12, -2, -9, 0, 19, 19, 29, 48, 
14, 4, -9, -9, 12, -2, -9, -4, 19, 14, 19, 48, 
14, 4, -9, -9, 12, -2, -19, -9, 14, 9, 19, 43, 
14, 4, -9, -9, 12, -2, -24, -19, 0, -4, 9, 34, 
24, 14, -9, -19, 17, 2, -34, -29, 0, -9, 4, 24, 
24, 14, -9, -19, 17, 2, -34, -34, -4, -9, 0, 24, 
24, 4, -19, -14, 21, -7, -34, -34, -4, -9, 0, 24, 
24, 0, -24, -12, 24, -12, -34, -34, -4, -9, 0, 24, 
24, -9, -34, -7, 29, -21, -19, -24, -4, -9, 0, 29, 
19, -9, -29, -4, 24, -19, -19, -29, -4, -14, 0, 29, 
19, -4, -24, -7, 21, -14, -24, -34, -14, -19, -9, 24, 
19, 0, -19, -9, 19, -9, -24, -34, -19, -24, -9, 24, 
19, 9, -9, -14, 14, 0, -34, -43, -19, -34, -19, 9, 
19, 9, -9, -14, 14, 0, -34, -43, -14, -34, -19, 9, 
19, -4, -24, -7, 21, -14, -29, -43, -14, -29, -19, 9, 
19, -14, -34, -2, 26, -24, -29, -43, -14, -29, -19, 9, 
14, -24, -39, 4, 26, -31, -14, -34, -14, -19, -14, 19, 
14, -24, -39, 4, 26, -31, -14, -34, -14, -19, -14, 19, 
14, -24, -39, 4, 26, -31, -14, -34, -14, -19, -9, 19, 
14, -19, -34, 2, 24, -26, -19, -34, -14, -29, -4, 14, 
14, 4, -9, -9, 12, -2, -29, -48, -24, -39, -14, 4, 
14, 0, -14, -7, 14, -7, -29, -48, -24, -34, -19, 4, 
9, 4, -4, -7, 7, 0, -29, -48, -24, -34, -19, 4, 
9, 4, -4, -7, 7, 0, -29, -48, -19, -34, -19, 4, 
9, -4, -14, -2, 12, -9, -14, -34, -9, -29, -14, 14, 
9, -14, -24, 2, 17, -19, -14, -34, -9, -29, -14, 14, 
9, -19, -29, 4, 19, -24, -14, -34, -9, -29, -19, 9, 
9, -24, -34, 7, 21, -29, -14, -34, -9, -29, -19, 9, 
9, -9, -19, 0, 14, -14, -24, -43, -19, -29, -19, -4, 
9, -4, -14, -2, 12, -9, -24, -43, -19, -29, -19, -4, 
9, 0, -9, -4, 9, -4, -24, -43, -19, -29, -19, 0, 
9, 4, -4, -7, 7, 0, -24, -43, -19, -29, -19, 0, 
-4, -14, -9, 9, 2, -12, -9, -34, -4, -14, -9, 0, 
-4, -24, -19, 14, 7, -21, 0, -34, -4, -14, -4, 4, 
-4, -29, -24, 17, 9, -26, 0, -29, 0, -14, -4, 4, 
-9, -34, -24, 21, 7, -29, -4, -29, 0, -14, -9, 0, 
-9, -24, -14, 17, 2, -19, -9, -39, -9, -24, -9, -4, 
-9, -9, 0, 9, -4, -4, -14, -43, -14, -24, -14, -4, 
-9, -4, 4, 7, -7, 0, -19, -43, -14, -24, -14, -4, 
-9, -4, 4, 7, -7, 0, -24, -43, -14, -24, -9, -4, 
-9, -24, -14, 17, 2, -19, -19, -29, 0, -19, -9, 4, 
-14, -34, -19, 24, 2, -26, -9, -29, 0, -14, -9, 4, 
-14, -39, -24, 26, 4, -31, -4, -29, 0, -9, -9, 0, 
-14, -43, -29, 29, 7, -36, 0, -29, 0, -4, -9, 0, 
-14, -19, -4, 17, -4, -12, -9, -39, -9, -9, -19, -9, 
-14, -14, 0, 14, -7, -7, -14, -39, -9, -14, -19, -9, 
-19, -9, 9, 14, -14, 0, -14, -39, -9, -14, -19, -9, 
-19, -4, 14, 12, -17, 4, -19, -39, -9, -19, -19, -4, 
-19, -24, -4, 21, -7, -14, -9, -39, 0, -14, -14, 4, 
-19, -24, -4, 21, -7, -14, -4, -39, 0, -9, -14, 4, 
-19, -24, -4, 21, -7, -14, 0, -39, 0, -4, -14, 4, 
-24, -24, 0, 24, -12, -12, 0, -39, -4, 0, -14, 0, 
-24, -19, 4, 21, -14, -7, -9, -39, -14, -14, -14, -9, 
-24, -19, 4, 21, -14, -7, -9, -39, -9, -14, -19, -14, 
-24, -9, 14, 17, -19, 2, -9, -43, -9, -9, -19, -14, 
-19, -9, 9, 14, -14, 0, -9, -43, -9, -4, -19, -9, 
-29, -29, 0, 29, -14, -14, 0, -43, 0, -4, -19, 0, 
-34, -34, 0, 34, -17, -17, 4, -48, 0, -14, -19, 0, 
-34, -39, -4, 36, -14, -21, 4, -48, 0, -14, -19, 0, 
-34, -39, -4, 36, -14, -21, 4, -48, -4, -14, -24, 0, 
-24, -34, -9, 29, -7, -21, -9, -48, -14, -14, -24, -9, 
-24, -24, 0, 24, -12, -12, -9, -48, -14, -14, -29, -19, 
-29, -14, 14, 21, -21, 0, -9, -53, -14, -24, -29, -19, 
-34, -9, 24, 21, -29, 7, -4, -53, -14, -24, -29, -19, 
-24, -29, -4, 26, -9, -17, -4, -43, -4, -19, -29, -9, 
-24, -29, -4, 26, -9, -17, -4, -43, -4, -19, -29, -9, 
-24, -43, -19, 34, -2, -31, 0, -43, -4, -19, -29, -9, 
-24, -34, -9, 29, -7, -21, 0, -43, -4, -19, -29, -9, 
-24, -19, 4, 21, -14, -7, -9, -53, -24, -24, -29, -24, 
-24, -4, 19, 14, -21, 7, -9, -63, -24, -29, -39, -29, 
-24, 4, 29, 9, -26, 17, -19, -63, -29, -34, -43, -34, 
-24, 9, 34, 7, -29, 21, -19, -63, -29, -34, -43, -34, 
-34, 0, 34, 17, -34, 17, -9, -53, -19, -29, -39, -19, 
-34, -19, 14, 26, -24, -2, -4, -53, -19, -29, -39, -19, 
-43, -29, 14, 36, -29, -7, 0, -53, -14, -29, -39, -19, 
-34, -48, -14, 41, -9, -31, 14, -53, -14, -29, -39, -19, 
-34, -43, -9, 39, -12, -26, -4, -63, -29, -34, -43, -29, 
-34, -39, -4, 36, -14, -21, -4, -73, -34, -39, -43, -34, 
-34, -34, 0, 34, -17, -17, -9, -73, -34, -43, -43, -39, 
-34, -24, 9, 29, -21, -7, -9, -73, -39, -43, -48, -39, 
-34, -29, 4, 31, -19, -12, 0, -78, -29, -34, -39, -29, 
-34, -39, -4, 36, -14, -21, 4, -78, -29, -34, -39, -29, 
-34, -43, -9, 39, -12, -26, 4, -78, -29, -39, -39, -29, 
-39, -48, -9, 43, -14, -29, 4, -78, -34, -39, -39, -29, 
-29, -43, -14, 36, -7, -29, -4, -78, -43, -39, -43, -39, 
-29, -43, -14, 36, -7, -29, -4, -82, -43, -43, -48, -39, 
-29, -39, -9, 34, -9, -24, -9, -87, -48, -53, -58, -39, 
-29, -19, 9, 24, -19, -4, -9, -87, -48, -63, -68, -43, 
-29, -29, 0, 29, -14, -14, -9, -92, -48, -68, -68, -43, 
-29, -29, 0, 29, -14, -14, -9, -92, -53, -68, -68, -43, 
-29, -39, -9, 34, -9, -24, -9, -92, -53, -68, -68, -39, 
-29, -43, -14, 36, -7, -29, -9, -92, -48, -68, -68, -39, 
-39, -48, -9, 43, -14, -29, -9, -92, -48, -58, -58, -39, 
-39, -48, -9, 43, -14, -29, -9, -92, -58, -63, -63, -39, 
-39, -43, -4, 41, -17, -24, -9, -92, -58, -68, -63, -48, 
-39, -43, -4, 41, -17, -24, -9, -92, -58, -68, -63, -48, 
-34, -39, -4, 36, -14, -21, -14, -92, -58, -78, -73, -43, 
-34, -39, -4, 36, -14, -21, -14, -97, -58, -78, -73, -43, 
-34, -48, -14, 41, -9, -31, -9, -97, -58, -73, -73, -43, 
-39, -53, -14, 46, -12, -34, -9, -97, -58, -73, -73, -43, 
-39, -53, -14, 46, -12, -34, 0, -97, -58, -73, -73, -43, 
-39, -53, -14, 46, -12, -34, 0, -97, -58, -78, -73, -48, 
-34, -53, -19, 43, -7, -36, -4, -97, -63, -78, -68, -48, 
-34, -48, -14, 41, -9, -31, -9, -97, -63, -87, -68, -48, 
-43, -43, 0, 43, -21, -21, -9, -97, -63, -78, -73, -48, 
-43, -58, -14, 51, -14, -36, -4, -97, -63, -73, -73, -48, 
-43, -68, -24, 56, -9, -46, -4, -97, -63, -73, -73, -43, 
-43, -78, -34, 61, -4, -56, -4, -102, -63, -73, -73, -43, 
-34, -68, -34, 51, 0, -51, 0, -92, -68, -82, -73, -39, 
-34, -68, -34, 51, 0, -51, 0, -92, -68, -82, -73, -39, 
-34, -68, -34, 51, 0, -51, 0, -92, -68, -87, -73, -39, 
-34, -63, -29, 48, -2, -46, -9, -92, -68, -87, -73, -48, 
-34, -53, -19, 43, -7, -36, -19, -112, -68, -82, -73, -48, 
-34, -53, -19, 43, -7, -36, -19, -112, -73, -82, -78, -48, 
-34, -63, -29, 48, -2, -46, -19, -112, -73, -78, -78, -48, 
-34, -63, -29, 48, -2, -46, -14, -112, -73, -78, -78, -48, 
-39, -78, -39, 58, 0, -58, -4, -102, -63, -82, -78, -48, 
-39, -78, -39, 58, 0, -58, -4, -102, -63, -82, -78, -48, 
-43, -73, -29, 58, -7, -51, -4, -102, -63, -82, -78, -48, 
-43, -73, -29, 58, -7, -51, -9, -102, -68, -87, -82, -53, 
-34, -53, -19, 43, -7, -36, -24, -112, -78, -97, -92, -63, 
-34, -43, -9, 39, -12, -26, -24, -112, -78, -97, -92, -63, 
-34, -58, -24, 46, -4, -41, -19, -112, -78, -97, -92, -58, 
-29, -63, -34, 46, 2, -48, -19, -112, -78, -97, -87, -58, 
-39, -78, -39, 58, 0, -58, -9, -107, -78, -87, -87, -48, 
-39, -78, -39, 58, 0, -58, -9, -107, -78, -87, -87, -48, 
-43, -73, -29, 58, -7, -51, -9, -107, -82, -87, -92, -48, 
-43, -73, -29, 58, -7, -51, -9, -107, -82, -87, -92, -48, 
-34, -58, -24, 46, -4, -41, -24, -122, -92, -102, -92, -53, 
-34, -53, -19, 43, -7, -36, -29, -122, -92, -102, -92, -53, 
-34, -53, -19, 43, -7, -36, -29, -122, -97, -102, -92, -53, 
-34, -53, -19, 43, -7, -36, -24, -122, -97, -102, -92, -53, 
-39, -58, -19, 48, -9, -39, -14, -112, -82, -92, -82, -48, 
-39, -73, -34, 56, -2, -53, -9, -107, -82, -92, -78, -48, 
-39, -78, -39, 58, 0, -58, -9, -107, -82, -92, -78, -48, 
-39, -82, -43, 61, 2, -63, -14, -107, -82, -97, -82, -48, 
-39, -68, -29, 53, -4, -48, -19, -126, -82, -102, -92, -63, 
-39, -58, -19, 48, -9, -39, -19, -126, -87, -102, -92, -63, 
-39, -53, -14, 46, -12, -34, -19, -126, -87, -102, -92, -63, 
-39, -43, -4, 41, -17, -24, -19, -126, -87, -102, -92, -63, 
-39, -43, -4, 41, -17, -24, -19, -126, -78, -92, -82, -58, 
-39, -73, -34, 56, -2, -53, -14, -122, -78, -92, -82, -48, 
-39, -78, -39, 58, 0, -58, -14, -122, -78, -92, -82, -43, 
-43, -82, -39, 63, -2, -61, -14, -122, -78, -92, -82, -39, 
-39, -73, -34, 56, -2, -53, -24, -131, -87, -102, -92, -48, 
-34, -53, -19, 43, -7, -36, -29, -131, -87, -102, -92, -53, 
-24, -43, -19, 34, -2, -31, -29, -131, -87, -102, -97, -58, 
-19, -34, -14, 26, -2, -24, -29, -136, -87, -102, -97, -58, 
-29, -63, -34, 46, 2, -48, -24, -131, -87, -102, -82, -53, 
-29, -78, -48, 53, 9, -63, -9, -126, -87, -102, -82, -48, 
-29, -87, -58, 58, 14, -73, -4, -122, -87, -102, -82, -43, 
-29, -92, -63, 61, 17, -78, -9, -117, -87, -102, -87, -43, 
-39, -82, -43, 61, 2, -63, -14, -122, -97, -117, -97, -48, 
-39, -68, -29, 53, -4, -48, -19, -126, -97, -117, -97, -53, 
-39, -53, -14, 46, -12, -34, -24, -131, -102, -117, -97, -58, 
-39, -43, -4, 41, -17, -24, -29, -136, -102, -117, -97, -63, 
-29, -63, -34, 46, 2, -48, -19, -136, -92, -102, -87, -58, 
-29, -68, -39, 48, 4, -53, -14, -136, -92, -102, -87, -48, 
-29, -68, -39, 48, 4, -53, -14, -136, -92, -102, -87, -43, 
-34, -73, -39, 53, 2, -56, -14, -136, -92, -102, -87, -39, 
-34, -68, -34, 51, 0, -51, -24, -136, -102, -112, -97, -43, 
-34, -63, -29, 48, -2, -46, -29, -136, -102, -112, -97, -48, 
-34, -53, -19, 43, -7, -36, -34, -136, -102, -112, -97, -53, 
-29, -48, -19, 39, -4, -34, -34, -136, -102, -112, -97, -58, 
-39, -58, -19, 48, -9, -39, -19, -136, -97, -102, -97, -48, 
-34, -68, -34, 51, 0, -51, -14, -136, -97, -102, -97, -48, 
-34, -73, -39, 53, 2, -56, -14, -136, -97, -102, -92, -48, 
-34, -78, -43, 56, 4, -61, -14, -131, -97, -102, -92, -43, 
-34, -73, -39, 53, 2, -56, -24, -131, -97, -112, -102, -53, 
-34, -68, -34, 51, 0, -51, -29, -131, -97, -112, -102, -53, 
-39, -48, -9, 43, -14, -29, -29, -136, -97, -112, -102, -58, 
-39, -43, -4, 41, -17, -24, -24, -136, -97, -112, -102, -58, 
-24, -58, -34, 41, 4, -46, -24, -136, -97, -102, -92, -48, 
-24, -63, -39, 43, 7, -51, -24, -136, -97, -102, -92, -43, 
-29, -73, -43, 51, 7, -58, -24, -136, -97, -102, -92, -43, 
-29, -82, -53, 56, 12, -68, -24, -136, -92, -102, -92, -43, 
-29, -82, -53, 56, 12, -68, -4, -122, -82, -102, -78, -43, 
-24, -78, -53, 51, 14, -65, -4, -122, -82, -107, -78, -43, 
-19, -58, -39, 39, 9, -48, -19, -126, -87, -107, -87, -48, 
-29, -68, -39, 48, 4, -53, -19, -136, -97, -107, -97, -58, 
-29, -68, -39, 48, 4, -53, -19, -136, -97, -107, -97, -58, 
-29, -68, -39, 48, 4, -53, -19, -136, -97, -107, -97, -58, 
-29, -68, -39, 48, 4, -53, -19, -136, -97, -107, -97, -58, 
-39, -78, -39, 58, 0, -58, -19, -126, -97, -107, -97, -48, 
-39, -78, -39, 58, 0, -58, -19, -126, -97, -107, -97, -48, 
-39, -78, -39, 58, 0, -58, -19, -126, -97, -107, -97, -48, 
-39, -78, -39, 58, 0, -58, -19, -126, -97, -107, -97, -48, 
-29, -78, -48, 53, 9, -63, -19, -136, -97, -107, -97, -48, 
-29, -78, -48, 53, 9, -63, -19, -136, -97, -107, -97, -48, 
-29, -78, -48, 53, 9, -63, -19, -136, -97, -107, -97, -48, 
-29, -78, -48, 53, 9, -63, -19, -136, -97, -107, -97, -48, 
-29, -68, -39, 48, 4, -53, -19, -126, -97, -107, -97, -48, 
-29, -68, -39, 48, 4, -53, -19, -126, -97, -107, -97, -48, 
-29, -68, -39, 48, 4, -53, -19, -126, -97, -107, -97, -48, 
-29, -68, -39, 48, 4, -53, -19, -126, -97, -107, -97, -48, 
-29, -58, -29, 43, 0, -43, -29, -131, -97, -117, -107, -58, 
-29, -58, -29, 43, 0, -43, -29, -136, -97, -117, -107, -58, 
-29, -58, -29, 43, 0, -43, -29, -141, -97, -117, -107, -58, 
-29, -58, -29, 43, 0, -43, -29, -146, -97, -117, -107, -58, 
-39, -63, -24, 51, -7, -43, -19, -141, -97, -117, -97, -48, 
-39, -68, -29, 53, -4, -48, -19, -136, -97, -117, -97, -48, 
-39, -73, -34, 56, -2, -53, -19, -131, -97, -117, -97, -48, 
-39, -78, -39, 58, 0, -58, -19, -126, -97, -117, -97, -48, 
-29, -63, -34, 46, 2, -48, -29, -131, -107, -117, -97, -58, 
-29, -58, -29, 43, 0, -43, -29, -136, -107, -117, -97, -58, 
-29, -53, -24, 41, -2, -39, -29, -141, -107, -117, -97, -58, 
-29, -48, -19, 39, -4, -34, -29, -146, -107, -117, -97, -58, 
-39, -53, -14, 46, -12, -34, -19, -141, -97, -107, -97, -53, 
-39, -58, -19, 48, -9, -39, -19, -136, -97, -107, -97, -48, 
-39, -63, -24, 51, -7, -43, -19, -131, -97, -107, -97, -43, 
-39, -68, -29, 53, -4, -48, -19, -126, -97, -107, -97, -39, 
-39, -63, -24, 51, -7, -43, -29, -131, -107, -117, -107, -43, 
-39, -58, -19, 48, -9, -39, -29, -136, -107, -117, -107, -48, 
-39, -53, -14, 46, -12, -34, -29, -141, -107, -117, -107, -53, 
-39, -48, -9, 43, -14, -29, -29, -146, -107, -117, -107, -58, 
-29, -63, -34, 46, 2, -48, -24, -136, -97, -107, -97, -48, 
-29, -68, -39, 48, 4, -53, -19, -136, -97, -107, -97, -48, 
-29, -73, -43, 51, 7, -58, -14, -136, -97, -107, -97, -48, 
-29, -78, -48, 53, 9, -63, -9, -136, -97, -107, -97, -48, 
-39, -73, -34, 56, -2, -53, -14, -136, -97, -117, -97, -58, 
-39, -68, -29, 53, -4, -48, -19, -136, -97, -117, -97, -58, 
-39, -63, -24, 51, -7, -43, -24, -136, -97, -117, -97, -58, 
-39, -58, -19, 48, -9, -39, -29, -136, -97, -117, -97, -58, 
-29, -63, -34, 46, 2, -48, -19, -136, -97, -117, -97, -48, 
-29, -68, -39, 48, 4, -53, -19, -136, -97, -117, -97, -48, 
-29, -73, -43, 51, 7, -58, -19, -136, -97, -117, -97, -48, 
-29, -78, -48, 53, 9, -63, -19, -136, -97, -117, -97, -48, 
-29, -63, -34, 46, 2, -48, -24, -146, -107, -117, -107, -58, 
-29, -58, -29, 43, 0, -43, -29, -146, -107, -117, -107, -58, 
-29, -53, -24, 41, -2, -39, -34, -146, -107, -117, -107, -58, 
-29, -48, -19, 39, -4, -34, -39, -146, -107, -117, -107, -58, 
-29, -53, -24, 41, -2, -39, -34, -141, -102, -112, -102, -53, 
-29, -58, -29, 43, 0, -43, -29, -136, -97, -107, -97, -48, 
-29, -63, -34, 46, 2, -48, -24, -131, -92, -102, -92, -43, 
-29, -68, -39, 48, 4, -53, -19, -126, -87, -97, -87, -39, 
-19, -53, -34, 36, 7, -43, -29, -117, -78, -87, -82, -29, 
-19, -39, -19, 29, 0, -29, -29, -117, -78, -87, -78, -29, 
-19, -24, -4, 21, -7, -14, -29, -117, -78, -87, -73, -29, 
-19, -9, 9, 14, -14, 0, -29, -117, -78, -87, -68, -29, 
-9, -19, -9, 14, 0, -14, -24, -112, -63, -73, -58, -19, 
-9, -19, -9, 14, 0, -14, -19, -107, -58, -68, -58, -19, 
-9, -19, -9, 14, 0, -14, -14, -102, -53, -63, -58, -19, 
-9, -19, -9, 14, 0, -14, -9, -97, -48, -58, -58, -19, 
0, -9, -9, 4, 4, -9, -19, -87, -39, -58, -48, -19, 
0, 0, 0, 0, 0, 0, -19, -87, -39, -58, -48, -19, 
0, 9, 9, -4, -4, 9, -19, -87, -39, -58, -48, -19, 
0, 19, 19, -9, -9, 19, -19, -87, -39, -58, -48, -19, 
0, 0, 0, 0, 0, 0, -14, -82, -24, -53, -43, -4, 
0, -9, -9, 4, 4, -9, -9, -78, -19, -48, -39, 0, 
0, -19, -19, 9, 9, -19, -4, -73, -14, -43, -34, 4, 
0, -24, -24, 12, 12, -24, 4, -68, -9, -29, -29, 9, 
0, 0, 0, 0, 0, 0, -4, -78, -9, -39, -29, 9, 
0, 19, 19, -9, -9, 19, -9, -78, -4, -39, -24, 9, 
0, 39, 39, -19, -19, 39, -19, -78, -4, -34, -24, 14, 
0, 48, 48, -24, -24, 48, -29, -78, 0, -34, -14, 14, 
9, 58, 48, -34, -19, 53, -39, -73, -9, -24, -24, 14, 
24, 63, 39, -43, -7, 51, -53, -73, -9, -14, -14, 24, 
29, 73, 43, -51, -7, 58, -63, -78, 0, -9, -4, 39, 
29, 78, 48, -53, -9, 63, -73, -82, 0, -9, -4, 48, 
34, 87, 53, -61, -9, 70, -78, -97, 0, -9, 4, 39, 
34, 87, 53, -61, -9, 70, -87, -107, -9, -19, -4, 39, 
39, 82, 43, -61, -2, 63, -92, -117, -19, -29, -9, 29, 
43, 82, 39, -63, 2, 61, -102, -126, -34, -39, -24, 19, 
53, 63, 9, -58, 21, 36, -102, -131, -48, -48, -29, 19, 
53, 48, -4, -51, 29, 21, -102, -131, -58, -58, -34, 14, 
58, 24, -34, -41, 46, -4, -107, -136, -63, -63, -34, 14, 
58, 19, -39, -39, 48, -9, -107, -136, -73, -73, -39, 14, 
63, 19, -43, -41, 53, -12, -117, -141, -82, -82, -53, 14, 
68, 19, -48, -43, 58, -14, -122, -146, -92, -97, -63, 4, 
68, 19, -48, -43, 58, -14, -122, -161, -102, -102, -73, 0, 
63, 19, -43, -41, 53, -12, -117, -161, -107, -112, -73, -9, 
48, 19, -29, -34, 39, -4, -112, -161, -107, -112, -63, -9, 
48, 19, -29, -34, 39, -4, -112, -156, -97, -107, -63, -4, 
48, 19, -29, -34, 39, -4, -97, -156, -97, -102, -63, -4, 
39, 19, -19, -29, 29, 0, -87, -151, -92, -97, -58, 0, 
34, 24, -9, -29, 21, 7, -82, -156, -102, -97, -68, 0, 
29, 24, -4, -26, 17, 9, -78, -151, -97, -92, -63, 0, 
29, 24, -4, -26, 17, 9, -68, -146, -97, -92, -63, -4, 
24, 24, 0, -24, 12, 12, -63, -141, -92, -92, -63, -9, 
19, 14, -4, -17, 12, 4, -58, -136, -92, -92, -53, -9, 
4, -4, -9, 0, 7, -7, -48, -136, -92, -92, -63, -14, 
-4, -19, -14, 12, 4, -17, -43, -146, -102, -107, -73, -29, 
-19, -34, -14, 26, -2, -24, -43, -156, -107, -112, -87, -39, 
-34, -53, -19, 43, -7, -36, -34, -146, -107, -107, -87, -29, 
-34, -58, -24, 46, -4, -41, -34, -141, -107, -107, -87, -29, 
-29, -63, -34, 46, 2, -48, -34, -136, -107, -107, -92, -29, 
-29, -68, -39, 48, 4, -53, -34, -136, -107, -107, -92, -34, 
-29, -63, -34, 46, 2, -48, -48, -146, -112, -122, -97, -48, 
-29, -58, -29, 43, 0, -43, -48, -146, -112, -122, -102, -53, 
-29, -53, -24, 41, -2, -39, -43, -146, -112, -122, -107, -53, 
-34, -68, -34, 51, 0, -51, -39, -146, -112, -117, -112, -48, 
-34, -87, -53, 61, 9, -70, -24, -131, -112, -117, -102, -39, 
-29, -87, -58, 58, 14, -73, -24, -131, -112, -117, -102, -43, 
-29, -78, -48, 53, 9, -63, -24, -131, -117, -126, -107, -48, 
-29, -78, -48, 53, 9, -63, -24, -136, -122, -126, -107, -48, 
-29, -58, -29, 43, 0, -43, -43, -146, -122, -126, -102, -63, 
-29, -58, -29, 43, 0, -43, -34, -146, -117, -126, -102, -63, 
-29, -58, -29, 43, 0, -43, -34, -146, -112, -122, -97, -58, 
-34, -68, -34, 51, 0, -51, -34, -146, -112, -122, -92, -53, 
-43, -78, -34, 61, -4, -56, -24, -131, -102, -107, -92, -43, 
-43, -82, -39, 63, -2, -61, -19, -131, -102, -107, -92, -43, 
-43, -82, -39, 63, -2, -61, -14, -131, -102, -107, -92, -43, 
-48, -87, -39, 68, -4, -63, -9, -131, -102, -107, -92, -48, 
-39, -78, -39, 58, 0, -58, -14, -141, -102, -122, -102, -58, 
-39, -73, -34, 56, -2, -53, -19, -141, -102, -122, -102, -58, 
-39, -68, -29, 53, -4, -48, -24, -141, -102, -122, -102, -53, 
-39, -63, -24, 51, -7, -43, -24, -141, -97, -117, -102, -53, 
-39, -82, -43, 61, 2, -63, -9, -131, -107, -117, -107, -43, 
-39, -82, -43, 61, 2, -63, -9, -126, -107, -117, -107, -43, 
-39, -82, -43, 61, 2, -63, -4, -126, -102, -117, -107, -43, 
-39, -82, -43, 61, 2, -63, -4, -126, -102, -117, -107, -43, 
-39, -73, -34, 56, -2, -53, -24, -136, -112, -126, -112, -53, 
-39, -58, -19, 48, -9, -39, -29, -136, -112, -126, -112, -53, 
-39, -53, -14, 46, -12, -34, -29, -136, -112, -126, -117, -53, 
-39, -48, -9, 43, -14, -29, -24, -136, -112, -126, -117, -53, 
-48, -68, -19, 58, -14, -43, -9, -131, -107, -122, -107, -48, 
-48, -82, -34, 65, -7, -58, -9, -122, -102, -112, -102, -39, 
-48, -92, -43, 70, -2, -68, -4, -117, -97, -102, -97, -34, 
-53, -97, -43, 75, -4, -70, -4, -112, -92, -97, -87, -29, 
-43, -87, -43, 65, 0, -65, -24, -117, -92, -112, -97, -43, 
-39, -73, -34, 56, -2, -53, -24, -122, -97, -117, -102, -48, 
-39, -63, -24, 51, -7, -43, -19, -126, -97, -117, -102, -48, 
-39, -58, -19, 48, -9, -39, -19, -131, -97, -117, -102, -53, 
-48, -92, -43, 70, -2, -68, 0, -122, -92, -107, -92, -43, 
-48, -107, -58, 78, 4, -82, -4, -117, -92, -97, -92, -48, 
-58, -97, -39, 78, -9, -68, 9, -117, -97, -107, -107, -63, 
-68, -87, -19, 78, -24, -53, 19, -112, -92, -112, -117, -82, 
-82, -82, 0, 82, -41, -41, 34, -112, -87, -112, -126, -102, 
-87, -63, 24, 75, -56, -19, 29, -126, -78, -122, -141, -122, 
-92, -58, 34, 75, -63, -12, 29, -141, -78, -122, -151, -126, 
-97, -68, 29, 82, -63, -19, 39, -151, -78, -112, -141, -117, 
-102, -87, 14, 95, -58, -36, 39, -161, -73, -112, -131, -112, 
-112, -102, 9, 107, -61, -46, 39, -175, -87, -112, -126, -92, 
-122, -102, 19, 112, -70, -41, 34, -195, -102, -117, -126, -87, 
-107, -97, 9, 102, -58, -43, 14, -209, -122, -131, -126, -73, 
-68, -78, -9, 73, -29, -43, -14, -214, -146, -141, -102, -48, 
-29, -73, -43, 51, 7, -58, -34, -214, -165, -156, -102, -29, 
-9, -73, -63, 41, 26, -68, -63, -244, -195, -175, -112, -14, 
24, -58, -82, 17, 53, -70, -97, -278, -214, -180, -97, 19, 
63, -29, -92, -17, 78, -61, -141, -287, -200, -146, -29, 92, 
131, 14, -117, -73, 124, -51, -180, -297, -170, -92, 53, 195, 
244, 68, -175, -156, 209, -53, -278, -326, -180, -43, 161, 322, 
370, 141, -229, -256, 300, -43, -395, -366, -200, -14, 273, 478, 
492, 214, -278, -353, 385, -31, -507, -390, -239, 9, 380, 634, 
629, 268, -361, -448, 495, -46, -629, -424, -302, 0, 453, 741, 
771, 297, -473, -534, 622, -87, -741, -478, -395, -53, 492, 839, 
