I, II, III, aVR, aVL, aVF, V1, V2, V3, V4, V5, V6, 
1063, 1346, 283, -1205, 390, 814, -1151, -234, -107, 546, 771, 800, 
1063, 1346, 283, -1205, 390, 814, -1151, -234, -107, 546, 771, 800, 
1063, 1346, 283, -1205, 390, 814, -1151, -234, -107, 546, 771, 800, 
1063, 1346, 283, -1205, 390, 814, -1151, -234, -107, 546, 771, 800, 
1180, 1551, 370, -1366, 405, 961, -1307, -302, -126, 619, 883, 927, 
1298, 1756, 458, -1527, 419, 1107, -1464, -370, -146, 692, 995, 1054, 
1415, 1961, 546, -1688, 434, 1254, -1620, -439, -165, 766, 1107, 1180, 
1532, 2166, 634, -1849, 448, 1400, -1776, -507, -185, 839, 1220, 1307, 
1488, 2239, 751, -1864, 368, 1495, -1854, -649, -234, 829, 1254, 1366, 
1444, 2303, 858, -1873, 292, 1581, -1932, -780, -283, 819, 1278, 1424, 
1400, 2366, 966, -1883, 217, 1666, -2010, -912, -331, 810, 1302, 1483, 
1356, 2430, 1073, -1893, 141, 1751, -2088, -1044, -380, 800, 1327, 1542, 
1161, 2288, 1127, -1725, 17, 1708, -2020, -1156, -478, 649, 1200, 1468, 
976, 2147, 1171, -1561, -97, 1659, -1961, -1259, -575, 497, 1073, 1395, 
790, 2005, 1215, -1398, -212, 1610, -1903, -1361, -673, 346, 946, 1322, 
605, 1864, 1259, -1234, -326, 1561, -1844, -1464, -771, 195, 819, 1249, 
478, 1625, 1146, -1051, -334, 1385, -1659, -1371, -814, 53, 653, 1098, 
361, 1395, 1034, -878, -336, 1215, -1483, -1278, -858, -78, 497, 946, 
244, 1166, 922, -705, -339, 1044, -1307, -1185, -902, -209, 341, 795, 
126, 936, 810, -531, -341, 873, -1132, -1093, -946, -341, 185, 644, 
78, 736, 658, -407, -290, 697, -946, -922, -834, -331, 102, 512, 
29, 546, 517, -287, -244, 531, -761, -761, -732, -331, 29, 380, 
-19, 356, 375, -168, -197, 366, -575, -600, -629, -331, -43, 248, 
-68, 165, 234, -48, -151, 200, -390, -439, -527, -331, -117, 117, 
-78, 107, 185, -14, -131, 146, -307, -361, -448, -297, -122, 68, 
-87, 48, 136, 19, -112, 92, -224, -292, -370, -263, -126, 29, 
-97, -9, 87, 53, -92, 39, -141, -224, -292, -229, -131, -9, 
-107, -68, 39, 87, -73, -14, -58, -156, -214, -195, -136, -48, 
-117, -97, 19, 107, -68, -39, -14, -122, -180, -170, -136, -63, 
-117, -126, -9, 122, -53, -68, 19, -87, -146, -156, -136, -78, 
-117, -156, -39, 136, -39, -97, 53, -53, -112, -141, -136, -92, 
-117, -185, -68, 151, -24, -126, 87, -19, -78, -126, -136, -107, 
-117, -200, -82, 158, -17, -141, 107, -9, -73, -117, -136, -117, 
-117, -204, -87, 161, -14, -146, 117, 0, -68, -117, -136, -117, 
-117, -209, -92, 163, -12, -151, 126, 9, -63, -117, -136, -117, 
-117, -214, -97, 165, -9, -156, 136, 19, -58, -117, -136, -117, 
-126, -229, -102, 178, -12, -165, 146, 29, -48, -117, -146, -131, 
-126, -244, -117, 185, -4, -180, 156, 39, -48, -117, -146, -136, 
-126, -258, -131, 192, 2, -195, 165, 48, -48, -117, -146, -141, 
-126, -273, -146, 200, 9, -209, 175, 58, -48, -117, -146, -146, 
-122, -263, -141, 192, 9, -202, 175, 58, -39, -107, -141, -131, 
-117, -253, -136, 185, 9, -195, 175, 58, -39, -107, -136, -126, 
-112, -244, -131, 178, 9, -187, 175, 58, -39, -107, -131, -122, 
-107, -234, -126, 170, 9, -180, 175, 58, -39, -107, -126, -117, 
-107, -248, -141, 178, 17, -195, 185, 73, -34, -107, -131, -126, 
-107, -253, -146, 180, 19, -200, 185, 78, -29, -107, -136, -136, 
-107, -258, -151, 183, 21, -204, 185, 82, -24, -107, -141, -146, 
-107, -263, -156, 185, 24, -209, 185, 87, -19, -107, -146, -156, 
-102, -258, -156, 180, 26, -207, 175, 87, -19, -97, -136, -151, 
-97, -253, -156, 175, 29, -204, 175, 87, -19, -97, -136, -146, 
-92, -248, -156, 170, 31, -202, 175, 87, -19, -97, -136, -141, 
-87, -244, -156, 165, 34, -200, 175, 87, -19, -97, -136, -136, 
-87, -258, -170, 173, 41, -214, 185, 102, -9, -107, -146, -151, 
-87, -263, -175, 175, 43, -219, 185, 107, -9, -107, -146, -156, 
-87, -268, -180, 178, 46, -224, 185, 112, -9, -107, -146, -161, 
-87, -273, -185, 180, 48, -229, 185, 117, -9, -107, -146, -165, 
-97, -263, -165, 180, 34, -214, 185, 112, 0, -97, -136, -161, 
-97, -263, -165, 180, 34, -214, 185, 107, 0, -97, -136, -156, 
-97, -263, -165, 180, 34, -214, 185, 102, 0, -97, -136, -151, 
-97, -263, -165, 180, 34, -214, 185, 97, 0, -97, -136, -146, 
-102, -268, -165, 185, 31, -217, 190, 102, 4, -97, -141, -151, 
-107, -273, -165, 190, 29, -219, 195, 107, 9, -97, -146, -156, 
-112, -278, -165, 195, 26, -222, 200, 112, 14, -97, -151, -161, 
-117, -283, -165, 200, 24, -224, 204, 117, 19, -97, -156, -165, 
-107, -278, -170, 192, 31, -224, 214, 117, 24, -82, -141, -161, 
-107, -273, -165, 190, 29, -219, 214, 117, 29, -78, -136, -156, 
-107, -268, -161, 187, 26, -214, 214, 117, 34, -73, -131, -151, 
-107, -263, -156, 185, 24, -209, 214, 117, 39, -68, -126, -146, 
-107, -263, -156, 185, 24, -209, 224, 122, 43, -68, -136, -151, 
-107, -263, -156, 185, 24, -209, 224, 126, 48, -68, -136, -156, 
-107, -263, -156, 185, 24, -209, 224, 131, 53, -68, -136, -161, 
-107, -263, -156, 185, 24, -209, 224, 136, 58, -68, -136, -165, 
-107, -263, -156, 185, 24, -209, 234, 146, 63, -53, -122, -156, 
-107, -263, -156, 185, 24, -209, 234, 146, 68, -48, -117, -156, 
-107, -263, -156, 185, 24, -209, 234, 146, 73, -43, -112, -156, 
-107, -263, -156, 185, 24, -209, 234, 146, 78, -39, -107, -156, 
-112, -268, -156, 190, 21, -212, 239, 146, 87, -48, -112, -161, 
-117, -273, -156, 195, 19, -214, 244, 146, 87, -48, -117, -165, 
-122, -278, -156, 200, 17, -217, 248, 146, 87, -48, -122, -170, 
-126, -283, -156, 204, 14, -219, 253, 146, 87, -48, -126, -175, 
-136, -287, -151, 212, 7, -219, 268, 151, 92, -43, -117, -175, 
-136, -292, -156, 214, 9, -224, 273, 156, 97, -39, -117, -175, 
-136, -297, -161, 217, 12, -229, 278, 161, 102, -34, -117, -175, 
-136, -302, -165, 219, 14, -234, 283, 165, 107, -29, -117, -175, 
-136, -302, -165, 219, 14, -234, 287, 170, 122, -39, -122, -175, 
-136, -302, -165, 219, 14, -234, 292, 175, 126, -39, -126, -175, 
-136, -302, -165, 219, 14, -234, 297, 180, 131, -39, -131, -175, 
-136, -302, -165, 219, 14, -234, 302, 185, 136, -39, -136, -175, 
-136, -307, -170, 222, 17, -239, 317, 195, 146, -24, -126, -185, 
-136, -312, -175, 224, 19, -244, 322, 204, 156, -19, -126, -185, 
-136, -317, -180, 226, 21, -248, 326, 214, 165, -14, -126, -185, 
-136, -322, -185, 229, 24, -253, 331, 224, 175, -9, -126, -185, 
-122, -307, -185, 214, 31, -246, 336, 234, 190, 0, -126, -175, 
-117, -302, -185, 209, 34, -244, 341, 244, 195, 0, -126, -175, 
-112, -297, -185, 204, 36, -241, 346, 253, 200, 0, -126, -175, 
-107, -292, -185, 200, 39, -239, 351, 263, 204, 0, -126, -175, 
-97, -302, -204, 200, 53, -253, 356, 283, 224, 9, -122, -180, 
-97, -302, -204, 200, 53, -253, 361, 292, 234, 19, -117, -185, 
-97, -302, -204, 200, 53, -253, 366, 302, 244, 29, -112, -190, 
-97, -302, -204, 200, 53, -253, 370, 312, 253, 39, -107, -195, 
-92, -287, -195, 190, 51, -241, 375, 326, 263, 48, -97, -185, 
-87, -283, -195, 185, 53, -239, 380, 331, 273, 48, -97, -185, 
-82, -278, -195, 180, 56, -236, 385, 336, 283, 48, -97, -185, 
-78, -273, -195, 175, 58, -234, 390, 341, 292, 48, -97, -185, 
-87, -287, -200, 187, 56, -244, 400, 356, 312, 53, -107, -195, 
-97, -302, -204, 200, 53, -253, 409, 361, 322, 58, -107, -204, 
-107, -317, -209, 212, 51, -263, 419, 366, 331, 63, -107, -214, 
-117, -331, -214, 224, 48, -273, 429, 370, 341, 68, -107, -224, 
-126, -336, -209, 231, 41, -273, 444, 380, 356, 78, -117, -234, 
-136, -341, -204, 239, 34, -273, 448, 380, 361, 78, -117, -234, 
-146, -346, -200, 246, 26, -273, 453, 380, 366, 78, -117, -234, 
-156, -351, -195, 253, 19, -273, 458, 380, 370, 78, -117, -234, 
-170, -361, -190, 265, 9, -275, 468, 395, 385, 87, -126, -239, 
-175, -370, -195, 273, 9, -283, 478, 400, 400, 87, -126, -244, 
-180, -380, -200, 280, 9, -290, 488, 405, 414, 87, -126, -248, 
-185, -390, -204, 287, 9, -297, 497, 409, 429, 87, -126, -253, 
-185, -375, -190, 280, 2, -283, 507, 419, 434, 97, -117, -253, 
-185, -370, -185, 278, 0, -278, 507, 419, 439, 97, -117, -253, 
-185, -366, -180, 275, -2, -273, 507, 419, 444, 97, -117, -253, 
-185, -361, -175, 273, -4, -268, 507, 419, 448, 97, -117, -253, 
-195, -370, -175, 283, -9, -273, 522, 429, 463, 97, -122, -263, 
-195, -370, -175, 283, -9, -273, 527, 429, 468, 97, -126, -263, 
-195, -370, -175, 283, -9, -273, 531, 429, 473, 97, -131, -263, 
-195, -370, -175, 283, -9, -273, 536, 429, 478, 97, -136, -263, 
-195, -361, -165, 278, -14, -263, 536, 419, 478, 87, -136, -263, 
-195, -361, -165, 278, -14, -263, 536, 419, 478, 87, -136, -263, 
-195, -361, -165, 278, -14, -263, 536, 419, 478, 87, -136, -263, 
-195, -361, -165, 278, -14, -263, 536, 419, 478, 87, -136, -263, 
-209, -370, -161, 290, -24, -265, 527, 409, 478, 78, -141, -273, 
-214, -370, -156, 292, -29, -263, 527, 409, 478, 78, -146, -273, 
-219, -370, -151, 295, -34, -261, 527, 409, 478, 78, -151, -273, 
-224, -370, -146, 297, -39, -258, 527, 409, 478, 78, -156, -273, 
-224, -351, -126, 287, -48, -239, 517, 390, 468, 73, -146, -268, 
-224, -341, -117, 283, -53, -229, 507, 380, 458, 68, -146, -263, 
-224, -331, -107, 278, -58, -219, 497, 370, 448, 63, -146, -258, 
-224, -322, -97, 273, -63, -209, 488, 361, 439, 58, -146, -253, 
-214, -331, -117, 273, -48, -224, 478, 351, 419, 43, -151, -263, 
-214, -331, -117, 273, -48, -224, 468, 341, 409, 39, -156, -263, 
-214, -331, -117, 273, -48, -224, 458, 331, 400, 34, -161, -263, 
-214, -331, -117, 273, -48, -224, 448, 322, 390, 29, -165, -263, 
-204, -317, -112, 261, -46, -214, 429, 297, 361, 19, -165, -248, 
-204, -312, -107, 258, -48, -209, 409, 283, 341, 9, -165, -244, 
-204, -307, -102, 256, -51, -204, 390, 268, 322, 0, -165, -239, 
-204, -302, -97, 253, -53, -200, 370, 253, 302, -9, -165, -234, 
-195, -297, -102, 246, -46, -200, 356, 244, 278, -24, -175, -224, 
-195, -292, -97, 244, -48, -195, 341, 234, 263, -29, -175, -224, 
-195, -287, -92, 241, -51, -190, 326, 224, 248, -34, -175, -224, 
-195, -283, -87, 239, -53, -185, 312, 214, 234, -39, -175, -224, 
-185, -268, -82, 226, -51, -175, 283, 195, 214, -48, -165, -209, 
-175, -253, -78, 214, -48, -165, 263, 175, 195, -48, -156, -195, 
-165, -239, -73, 202, -46, -156, 244, 156, 175, -48, -146, -180, 
-156, -224, -68, 190, -43, -146, 224, 136, 156, -48, -136, -165, 
-136, -209, -73, 173, -31, -141, 209, 122, 141, -58, -131, -151, 
-126, -195, -68, 161, -29, -131, 195, 117, 126, -58, -126, -146, 
-117, -180, -63, 148, -26, -122, 180, 112, 112, -58, -122, -141, 
-107, -165, -58, 136, -24, -112, 165, 107, 97, -58, -117, -136, 
-87, -141, -53, 114, -17, -97, 151, 87, 78, -48, -107, -117, 
-78, -126, -48, 102, -14, -87, 136, 78, 68, -48, -97, -107, 
-68, -112, -43, 90, -12, -78, 122, 68, 58, -48, -87, -97, 
-58, -97, -39, 78, -9, -68, 107, 58, 48, -48, -78, -87, 
-48, -92, -43, 70, -2, -68, 97, 53, 39, -58, -68, -82, 
-48, -87, -39, 68, -4, -63, 87, 48, 29, -58, -68, -78, 
-48, -82, -34, 65, -7, -58, 78, 43, 19, -58, -68, -73, 
-48, -78, -29, 63, -9, -53, 68, 39, 9, -58, -68, -68, 
-39, -73, -34, 56, -2, -53, 53, 29, 4, -53, -58, -58, 
-39, -68, -29, 53, -4, -48, 48, 19, 0, -48, -48, -48, 
-39, -63, -24, 51, -7, -43, 43, 9, -4, -43, -39, -39, 
-39, -58, -19, 48, -9, -39, 39, 0, -9, -39, -29, -29, 
-24, -43, -19, 34, -2, -31, 24, -4, -24, -48, -39, -19, 
-19, -39, -19, 29, 0, -29, 19, -9, -29, -48, -39, -19, 
-14, -34, -19, 24, 2, -26, 14, -14, -34, -48, -39, -19, 
-9, -29, -19, 19, 4, -24, 9, -19, -39, -48, -39, -19, 
-4, -29, -24, 17, 9, -26, -4, -9, -48, -48, -34, -19, 
0, -29, -29, 14, 14, -29, -9, -9, -48, -48, -29, -19, 
4, -29, -34, 12, 19, -31, -14, -9, -48, -48, -24, -19, 
9, -29, -39, 9, 24, -34, -19, -9, -48, -48, -19, -19, 
14, -19, -34, 2, 24, -26, -29, -19, -48, -48, -19, -9, 
19, -19, -39, 0, 29, -29, -29, -19, -48, -48, -19, -9, 
24, -19, -43, -2, 34, -31, -29, -19, -48, -48, -19, -9, 
29, -19, -48, -4, 39, -34, -29, -19, -48, -48, -19, -9, 
29, -14, -43, -7, 36, -29, -29, -19, -58, -39, -9, 0, 
29, -9, -39, -9, 34, -24, -29, -19, -58, -39, -9, 0, 
29, -4, -34, -12, 31, -19, -29, -19, -58, -39, -9, 0, 
29, 0, -29, -14, 29, -14, -29, -19, -58, -39, -9, 0, 
19, 0, -19, -9, 19, -9, -39, -29, -58, -39, 0, 0, 
19, 0, -19, -9, 19, -9, -39, -29, -58, -39, 0, 0, 
19, 0, -19, -9, 19, -9, -39, -29, -58, -39, 0, 0, 
19, 0, -19, -9, 19, -9, -39, -29, -58, -39, 0, 0, 
19, 0, -19, -9, 19, -9, -39, -29, -58, -39, 0, 0, 
19, 0, -19, -9, 19, -9, -39, -29, -58, -39, 0, 0, 
19, 0, -19, -9, 19, -9, -39, -29, -58, -39, 0, 0, 
19, 0, -19, -9, 19, -9, -39, -29, -58, -39, 0, 0, 
19, -4, -24, -7, 21, -14, -39, -29, -68, -48, -9, 0, 
19, -9, -29, -4, 24, -19, -39, -29, -68, -48, -9, 0, 
19, -14, -34, -2, 26, -24, -39, -29, -68, -48, -9, 0, 
19, -19, -39, 0, 29, -29, -39, -29, -68, -48, -9, 0, 
19, -19, -39, 0, 29, -29, -29, -29, -68, -48, -19, 0, 
19, -19, -39, 0, 29, -29, -29, -29, -68, -48, -19, 0, 
19, -19, -39, 0, 29, -29, -29, -29, -68, -48, -19, 0, 
19, -19, -39, 0, 29, -29, -29, -29, -68, -48, -19, 0, 
19, -29, -48, 4, 34, -39, -19, -29, -58, -48, -19, 0, 
19, -29, -48, 4, 34, -39, -19, -29, -58, -48, -19, 0, 
19, -29, -48, 4, 34, -39, -19, -29, -58, -48, -19, 0, 
19, -29, -48, 4, 34, -39, -19, -29, -58, -48, -19, 0, 
19, -24, -43, 2, 31, -34, -19, -29, -58, -39, -9, 0, 
19, -19, -39, 0, 29, -29, -19, -29, -58, -39, -9, 0, 
19, -14, -34, -2, 26, -24, -19, -29, -58, -39, -9, 0, 
19, -9, -29, -4, 24, -19, -19, -29, -58, -39, -9, 0, 
9, 0, -9, -4, 9, -4, -19, -29, -48, -29, 0, 9, 
9, 0, -9, -4, 9, -4, -19, -29, -48, -29, 0, 9, 
9, 0, -9, -4, 9, -4, -19, -29, -48, -29, 0, 9, 
9, 0, -9, -4, 9, -4, -19, -29, -48, -29, 0, 9, 
4, 0, -4, -2, 4, -2, -9, -39, -39, -19, 9, 0, 
0, 0, 0, 0, 0, 0, -9, -39, -39, -19, 9, 0, 
-4, 0, 4, 2, -4, 2, -9, -39, -39, -19, 9, 0, 
-9, 0, 9, 4, -9, 4, -9, -39, -39, -19, 9, 0, 
-19, -4, 14, 12, -17, 4, -4, -29, -29, -9, 9, 0, 
-19, -9, 9, 14, -14, 0, 0, -29, -29, -9, 9, 0, 
-19, -14, 4, 17, -12, -4, 4, -29, -29, -9, 9, 0, 
-19, -19, 0, 19, -9, -9, 9, -29, -29, -9, 9, 0, 
-19, -19, 0, 19, -9, -9, 19, -29, -29, -19, 0, 0, 
-19, -19, 0, 19, -9, -9, 19, -29, -29, -19, 0, 0, 
-19, -19, 0, 19, -9, -9, 19, -29, -29, -19, 0, 0, 
-19, -19, 0, 19, -9, -9, 19, -29, -29, -19, 0, 0, 
-19, -29, -9, 24, -4, -19, 19, -29, -29, -9, 0, -9, 
-19, -29, -9, 24, -4, -19, 19, -29, -29, -9, 0, -9, 
-19, -29, -9, 24, -4, -19, 19, -29, -29, -9, 0, -9, 
-19, -29, -9, 24, -4, -19, 19, -29, -29, -9, 0, -9, 
-29, -29, 0, 29, -14, -14, 14, -19, -39, -19, -9, -19, 
-29, -29, 0, 29, -14, -14, 9, -19, -39, -19, -9, -19, 
-29, -29, 0, 29, -14, -14, 4, -19, -39, -19, -9, -19, 
-29, -29, 0, 29, -14, -14, 0, -19, -39, -19, -9, -19, 
-39, -34, 4, 36, -21, -14, -9, -19, -39, -24, -14, -24, 
-39, -39, 0, 39, -19, -19, -9, -19, -39, -29, -19, -29, 
-39, -43, -4, 41, -17, -24, -9, -19, -39, -34, -24, -34, 
-39, -48, -9, 43, -14, -29, -9, -19, -39, -39, -29, -39, 
-34, -48, -14, 41, -9, -31, -19, -9, -48, -39, -29, -39, 
-29, -48, -19, 39, -4, -34, -19, -9, -48, -39, -29, -39, 
-24, -48, -24, 36, 0, -36, -19, -9, -48, -39, -29, -39, 
-19, -48, -29, 34, 4, -39, -19, -9, -48, -39, -29, -39, 
-19, -48, -29, 34, 4, -39, -9, -19, -48, -39, -39, -39, 
-19, -48, -29, 34, 4, -39, -9, -19, -48, -39, -39, -39, 
-19, -48, -29, 34, 4, -39, -9, -19, -48, -39, -39, -39, 
-19, -48, -29, 34, 4, -39, -9, -19, -48, -39, -39, -39, 
-19, -39, -19, 29, 0, -29, 0, -19, -58, -39, -29, -29, 
-19, -39, -19, 29, 0, -29, 0, -19, -58, -39, -29, -29, 
-19, -39, -19, 29, 0, -29, 0, -19, -58, -39, -29, -29, 
-19, -39, -19, 29, 0, -29, 0, -19, -58, -39, -29, -29, 
-29, -39, -9, 34, -9, -24, 9, -19, -58, -39, -29, -39, 
-29, -39, -9, 34, -9, -24, 9, -19, -58, -39, -29, -39, 
-29, -39, -9, 34, -9, -24, 9, -19, -58, -39, -29, -39, 
-29, -39, -9, 34, -9, -24, 9, -19, -58, -39, -29, -39, 
-29, -39, -9, 34, -9, -24, 9, -29, -48, -39, -29, -39, 
-29, -39, -9, 34, -9, -24, 9, -29, -48, -39, -29, -39, 
-29, -39, -9, 34, -9, -24, 9, -29, -48, -39, -29, -39, 
-29, -39, -9, 34, -9, -24, 9, -29, -48, -39, -29, -39, 
-29, -34, -4, 31, -12, -19, 9, -29, -39, -34, -24, -34, 
-29, -29, 0, 29, -14, -14, 9, -29, -39, -29, -19, -29, 
-29, -24, 4, 26, -17, -9, 9, -29, -39, -24, -14, -24, 
-29, -19, 9, 24, -19, -4, 9, -29, -39, -19, -9, -19, 
-19, -9, 9, 14, -14, 0, 0, -29, -34, -14, 4, -4, 
-19, 0, 19, 9, -19, 9, 0, -29, -29, -9, 9, 0, 
-19, 9, 29, 4, -24, 19, 0, -29, -24, -4, 14, 4, 
-19, 19, 39, 0, -29, 29, 0, -29, -19, 0, 19, 9, 
-29, 24, 53, 2, -41, 39, 9, -39, -19, 9, 29, 19, 
-24, 34, 58, -4, -41, 46, 4, -39, -14, 14, 34, 24, 
-24, 48, 73, -12, -48, 61, 4, -39, -9, 19, 34, 24, 
-19, 63, 82, -21, -51, 73, -4, -39, -4, 19, 43, 29, 
-9, 68, 78, -29, -43, 73, -14, -39, 9, 14, 39, 34, 
0, 73, 73, -36, -36, 73, -24, -39, 14, 19, 43, 39, 
9, 87, 78, -48, -34, 82, -29, -43, 14, 24, 48, 43, 
19, 97, 78, -58, -29, 87, -43, -48, 14, 29, 53, 48, 
29, 107, 78, -68, -24, 92, -58, -48, 14, 29, 48, 43, 
34, 117, 82, -75, -24, 100, -68, -48, 14, 34, 53, 48, 
53, 126, 73, -90, -9, 100, -78, -48, 19, 39, 53, 48, 
63, 136, 73, -100, -4, 104, -82, -43, 24, 43, 58, 53, 
73, 146, 73, -109, 0, 109, -102, -43, 14, 48, 63, 58, 
78, 156, 78, -117, 0, 117, -107, -43, 14, 48, 68, 63, 
82, 165, 82, -124, 0, 124, -112, -43, 14, 48, 73, 68, 
87, 175, 87, -131, 0, 131, -112, -53, 14, 48, 73, 73, 
87, 170, 82, -129, 2, 126, -122, -53, 9, 48, 82, 73, 
87, 175, 87, -131, 0, 131, -126, -53, 0, 48, 82, 73, 
82, 175, 92, -129, -4, 134, -131, -53, 0, 48, 82, 73, 
78, 175, 97, -126, -9, 136, -136, -53, -4, 43, 82, 78, 
73, 175, 102, -124, -14, 139, -136, -58, -9, 43, 78, 78, 
73, 175, 102, -124, -14, 139, -141, -68, -14, 43, 78, 78, 
73, 175, 102, -124, -14, 139, -146, -78, -19, 34, 78, 78, 
78, 175, 97, -126, -9, 136, -146, -82, -24, 34, 78, 82, 
78, 175, 97, -126, -9, 136, -141, -82, -29, 29, 68, 82, 
78, 175, 97, -126, -9, 136, -141, -82, -29, 24, 63, 78, 
78, 175, 97, -126, -9, 136, -141, -82, -39, 24, 63, 78, 
78, 170, 92, -124, -7, 131, -141, -82, -43, 19, 63, 78, 
82, 175, 92, -129, -4, 134, -141, -82, -43, 19, 63, 78, 
78, 170, 92, -124, -7, 131, -131, -87, -48, 19, 53, 73, 
73, 165, 92, -119, -9, 129, -131, -87, -53, 9, 53, 68, 
68, 156, 87, -112, -9, 122, -126, -87, -58, 4, 48, 63, 
43, 131, 87, -87, -21, 109, -112, -73, -63, 14, 43, 58, 
43, 122, 78, -82, -17, 100, -102, -73, -63, 9, 39, 53, 
29, 102, 73, -65, -21, 87, -97, -73, -68, 4, 34, 48, 
19, 92, 73, -56, -26, 82, -92, -68, -73, -9, 29, 39, 
0, 68, 68, -34, -34, 68, -73, -68, -78, -9, 29, 39, 
-4, 53, 58, -24, -31, 56, -58, -63, -78, -24, 19, 34, 
-9, 39, 48, -14, -29, 43, -53, -63, -82, -29, 9, 29, 
-19, 24, 43, -2, -31, 34, -43, -63, -87, -29, 4, 19, 
-34, 0, 34, 17, -34, 17, -34, -63, -92, -48, -14, 14, 
-43, -14, 29, 29, -36, 7, -29, -63, -97, -53, -24, 4, 
-48, -29, 19, 39, -34, -4, -24, -58, -107, -58, -29, -4, 
-53, -43, 9, 48, -31, -17, -19, -58, -112, -63, -34, -14, 
-53, -43, 9, 48, -31, -17, -14, -53, -117, -58, -29, -14, 
-58, -48, 9, 53, -34, -19, -9, -53, -117, -63, -34, -19, 
-58, -58, 0, 58, -29, -29, -4, -53, -117, -68, -39, -24, 
-58, -63, -4, 61, -26, -34, 0, -48, -117, -68, -39, -29, 
-53, -63, -9, 58, -21, -36, -9, -48, -131, -78, -39, -29, 
-48, -68, -19, 58, -14, -43, -9, -48, -131, -87, -48, -29, 
-43, -73, -29, 58, -7, -51, -4, -43, -131, -87, -48, -34, 
-39, -78, -39, 58, 0, -58, -4, -43, -136, -87, -48, -34, 
-29, -68, -39, 48, 4, -53, 0, -34, -136, -78, -48, -34, 
-29, -68, -39, 48, 4, -53, 0, -29, -136, -78, -48, -34, 
-29, -78, -48, 53, 9, -63, 0, -29, -136, -78, -48, -34, 
-29, -78, -48, 53, 9, -63, 0, -29, -136, -78, -48, -34, 
-19, -87, -68, 53, 24, -78, 0, -29, -146, -87, -63, -43, 
-24, -87, -63, 56, 19, -75, 0, -29, -146, -87, -63, -48, 
-24, -87, -63, 56, 19, -75, 0, -29, -146, -92, -63, -48, 
-24, -87, -63, 56, 19, -75, 0, -29, -146, -92, -63, -48, 
-34, -102, -68, 68, 17, -85, -9, -19, -146, -92, -63, -58, 
-34, -102, -68, 68, 17, -85, -4, -19, -146, -92, -63, -58, 
-34, -102, -68, 68, 17, -85, -4, -19, -146, -92, -63, -58, 
-34, -102, -68, 68, 17, -85, -4, -19, -146, -92, -63, -58, 
-24, -102, -78, 63, 26, -90, -4, -19, -136, -92, -63, -48, 
-24, -102, -78, 63, 26, -90, -4, -19, -141, -92, -63, -48, 
-24, -102, -78, 63, 26, -90, -4, -19, -141, -92, -63, -48, 
-24, -102, -78, 63, 26, -90, -4, -14, -141, -92, -63, -53, 
-14, -92, -78, 53, 31, -85, -14, -14, -141, -92, -63, -53, 
-9, -92, -82, 51, 36, -87, -14, -14, -141, -92, -63, -53, 
-9, -92, -82, 51, 36, -87, -14, -14, -141, -92, -63, -53, 
-4, -92, -87, 48, 41, -90, -14, -14, -141, -92, -68, -53, 
-24, -82, -58, 53, 17, -70, -14, -24, -141, -97, -68, -53, 
-29, -82, -53, 56, 12, -68, 0, -19, -141, -97, -73, -53, 
-29, -92, -63, 61, 17, -78, 0, -19, -141, -102, -73, -53, 
-29, -102, -73, 65, 21, -87, 0, -19, -146, -107, -73, -58, 
-34, -117, -82, 75, 24, -100, 0, -19, -161, -117, -82, -63, 
-48, -136, -87, 92, 19, -112, 14, -19, -165, -131, -102, -78, 
-58, -165, -107, 112, 24, -136, 24, -4, -175, -141, -117, -102, 
-73, -200, -126, 136, 26, -163, 53, 4, -170, -156, -131, -126, 
-82, -239, -156, 161, 36, -197, 73, 14, -180, -170, -151, -136, 
-92, -268, -175, 180, 41, -222, 92, 14, -195, -185, -170, -156, 
-102, -302, -200, 202, 48, -251, 112, 24, -209, -204, -180, -170, 
-112, -312, -200, 212, 43, -256, 122, 14, -219, -214, -190, -180, 
-112, -302, -190, 207, 39, -246, 112, 9, -214, -195, -175, -175, 
-107, -253, -146, 180, 19, -200, 102, 9, -170, -151, -136, -141, 
-87, -170, -82, 129, -2, -126, 63, 0, -126, -92, -78, -102, 
-29, -73, -43, 51, 7, -58, 14, -14, -82, -9, 0, -34, 
39, 78, 39, -58, 0, 58, -63, -24, -24, 97, 117, 58, 
122, 268, 146, -195, -12, 207, -165, -68, 24, 219, 239, 175, 
224, 463, 239, -344, -7, 351, -292, -107, 63, 336, 385, 312, 
341, 668, 326, -505, 7, 497, -444, -131, 73, 439, 512, 434, 
468, 849, 380, -658, 43, 614, -585, -165, 58, 517, 634, 551, 
575, 1024, 448, -800, 63, 736, -717, -204, 0, 566, 722, 653, 
697, 1161, 463, -929, 117, 812, -868, -248, -87, 580, 785, 746, 
834, 1332, 497, -1083, 168, 915, -1029, -287, -165, 614, 878, 863, 
966, 1551, 585, -1259, 190, 1068, -1200, -336, -190, 683, 985, 995, 
1088, 1790, 702, -1439, 192, 1246, -1371, -405, -190, 775, 1122, 1141, 
1195, 2020, 824, -1607, 185, 1422, -1517, -473, -200, 873, 1249, 1293, 
1293, 2225, 932, -1759, 180, 1578, -1654, -536, -229, 936, 1366, 1415, 
1351, 2376, 1024, -1864, 163, 1700, -1756, -624, -273, 976, 1449, 1522, 
1361, 2474, 1112, -1917, 124, 1793, -1849, -722, -336, 961, 1483, 1581, 
1322, 2513, 1190, -1917, 65, 1851, -1912, -839, -405, 922, 1473, 1610, 
1244, 2503, 1259, -1873, -7, 1881, -1952, -951, -458, 893, 1468, 1644, 
1093, 2474, 1381, -1783, -143, 1927, -1961, -1098, -507, 834, 1434, 1644, 
902, 2381, 1478, -1642, -287, 1930, -1927, -1239, -575, 722, 1356, 1610, 
717, 2244, 1527, -1481, -405, 1886, -1869, -1327, -653, 580, 1239, 1542, 
546, 2030, 1483, -1288, -468, 1756, -1756, -1366, -756, 380, 1034, 1395, 
366, 1693, 1327, -1029, -480, 1510, -1590, -1346, -941, 53, 722, 1166, 
209, 1351, 1141, -780, -466, 1246, -1395, -1273, -1117, -248, 429, 927, 
117, 1146, 1029, -631, -456, 1088, -1220, -1166, -1132, -346, 292, 790, 
92, 1019, 927, -556, -417, 973, -1073, -1019, -1049, -346, 248, 717, 
63, 805, 741, -434, -339, 773, -878, -839, -976, -380, 122, 551, 
0, 551, 551, -275, -275, 551, -668, -649, -863, -380, 34, 380, 
-48, 346, 395, -148, -222, 370, -483, -483, -727, -361, -53, 239, 
-53, 156, 209, -51, -131, 183, -331, -336, -600, -351, -131, 97, 
-63, 24, 87, 19, -75, 56, -219, -239, -502, -317, -151, 24, 
-63, -24, 39, 43, -51, 7, -141, -180, -400, -287, -161, -29, 
-82, -78, 4, 80, -43, -36, -78, -136, -312, -244, -161, -68, 
-92, -92, 0, 92, -46, -46, -43, -112, -263, -200, -131, -68, 
-92, -102, -9, 97, -41, -56, -14, -87, -229, -185, -141, -73, 
-97, -141, -43, 119, -26, -92, 29, -48, -185, -165, -131, -97, 
-112, -180, -68, 146, -21, -124, 58, -19, -156, -146, -126, -102, 
-112, -204, -92, 158, -9, -148, 78, 4, -141, -151, -156, -126, 
-112, -234, -122, 173, 4, -178, 92, 14, -117, -122, -136, -136, 
-122, -224, -102, 173, -9, -163, 102, 19, -107, -122, -126, -126, 
-112, -229, -117, 170, 2, -173, 102, 24, -107, -126, -126, -126, 
-112, -229, -117, 170, 2, -173, 112, 24, -107, -126, -131, -126, 
-112, -229, -117, 170, 2, -173, 112, 29, -107, -136, -146, -136, 
-112, -253, -141, 183, 14, -197, 126, 39, -107, -136, -151, -151, 
-122, -268, -146, 195, 12, -207, 136, 48, -92, -136, -151, -161, 
-122, -287, -165, 204, 21, -226, 146, 63, -82, -136, -165, -170, 
-122, -297, -175, 209, 26, -236, 146, 68, -78, -126, -151, -170, 
-122, -283, -161, 202, 19, -222, 146, 63, -78, -126, -136, -165, 
-122, -268, -146, 195, 12, -207, 146, 63, -73, -117, -136, -151, 
-117, -263, -146, 190, 14, -204, 146, 63, -73, -117, -136, -141, 
-117, -263, -146, 190, 14, -204, 146, 63, -78, -126, -141, -141, 
-117, -283, -165, 200, 24, -224, 151, 73, -78, -126, -156, -161, 
-122, -287, -165, 204, 21, -226, 170, 78, -68, -126, -156, -165, 
-122, -302, -180, 212, 29, -241, 175, 82, -63, -126, -161, -175, 
-126, -317, -190, 222, 31, -253, 180, 82, -58, -117, -161, -190, 
-126, -307, -180, 217, 26, -244, 180, 78, -58, -112, -146, -175, 
-117, -283, -165, 200, 24, -224, 175, 73, -58, -112, -131, -156, 
-117, -278, -161, 197, 21, -219, 175, 73, -58, -112, -131, -156, 
-107, -268, -161, 187, 26, -214, 175, 78, -58, -117, -131, -146, 
-107, -268, -161, 187, 26, -214, 175, 78, -58, -126, -141, -156, 
-102, -268, -165, 185, 31, -217, 175, 92, -48, -117, -146, -161, 
-112, -283, -170, 197, 29, -226, 180, 97, -43, -117, -146, -165, 
-117, -292, -175, 204, 29, -234, 190, 97, -39, -107, -146, -180, 
-117, -292, -175, 204, 29, -234, 190, 97, -24, -97, -136, -170, 
-102, -292, -190, 197, 43, -241, 185, 102, -24, -97, -126, -161, 
-102, -283, -180, 192, 39, -231, 175, 97, -24, -92, -122, -161, 
-97, -268, -170, 183, 36, -219, 170, 97, -24, -92, -122, -156, 
-97, -268, -170, 183, 36, -219, 165, 102, -24, -97, -141, -156, 
-97, -283, -185, 190, 43, -234, 175, 112, -34, -107, -146, -165, 
-97, -287, -190, 192, 46, -239, 180, 117, -19, -107, -151, -165, 
-102, -302, -200, 202, 48, -251, 180, 122, -14, -107, -156, -170, 
-102, -317, -214, 209, 56, -265, 175, 122, 0, -92, -151, -180, 
-87, -312, -224, 200, 68, -268, 175, 126, 9, -78, -141, -175, 
-78, -302, -224, 190, 73, -263, 175, 126, 9, -78, -136, -170, 
-78, -283, -204, 180, 63, -244, 175, 126, 9, -78, -136, -165, 
-78, -273, -195, 175, 58, -234, 175, 126, 9, -82, -146, -165, 
-87, -287, -200, 187, 56, -244, 175, 136, 14, -92, -146, -175, 
-87, -297, -209, 192, 61, -253, 185, 146, 29, -82, -146, -175, 
-82, -297, -214, 190, 65, -256, 190, 151, 34, -82, -156, -190, 
-82, -307, -224, 195, 70, -265, 195, 146, 48, -73, -146, -190, 
-97, -312, -214, 204, 58, -263, 204, 136, 53, -63, -136, -195, 
-97, -297, -200, 197, 51, -248, 204, 136, 53, -58, -131, -185, 
-102, -297, -195, 200, 46, -246, 204, 131, 53, -58, -126, -185, 
-107, -292, -185, 200, 39, -239, 200, 131, 53, -63, -126, -175, 
-112, -302, -190, 207, 39, -246, 209, 126, 58, -63, -136, -190, 
-112, -312, -200, 212, 43, -256, 219, 146, 68, -63, -141, -200, 
-117, -322, -204, 219, 43, -263, 224, 156, 73, -63, -146, -204, 
-126, -331, -204, 229, 39, -268, 234, 161, 87, -53, -146, -209, 
-131, -341, -209, 236, 39, -275, 244, 161, 107, -29, -122, -209, 
-131, -336, -204, 234, 36, -270, 244, 161, 107, -29, -117, -195, 
-131, -326, -195, 229, 31, -261, 248, 161, 112, -29, -112, -195, 
-131, -312, -180, 222, 24, -246, 248, 161, 112, -29, -112, -195, 
-122, -307, -185, 214, 31, -246, 253, 161, 102, -43, -122, -190, 
-131, -322, -190, 226, 29, -256, 263, 175, 117, -43, -126, -195, 
-131, -331, -200, 231, 34, -265, 278, 190, 131, -39, -131, -200, 
-141, -346, -204, 244, 31, -275, 287, 204, 141, -39, -131, -214, 
-141, -366, -224, 253, 41, -295, 292, 214, 161, -19, -131, -214, 
-141, -356, -214, 248, 36, -285, 292, 209, 170, -14, -122, -204, 
-136, -341, -204, 239, 34, -273, 297, 209, 170, -9, -117, -204, 
-136, -336, -200, 236, 31, -268, 297, 219, 180, -9, -117, -195, 
-126, -331, -204, 229, 39, -268, 302, 214, 185, -9, -122, -195, 
-122, -331, -209, 226, 43, -270, 312, 229, 200, -9, -126, -204, 
-117, -336, -219, 226, 51, -278, 326, 248, 214, 0, -126, -209, 
-122, -341, -219, 231, 48, -280, 336, 253, 224, 4, -126, -219, 
-117, -361, -244, 239, 63, -302, 326, 273, 244, 19, -136, -239, 
-117, -361, -244, 239, 63, -302, 336, 273, 248, 24, -126, -229, 
-117, -346, -229, 231, 56, -287, 341, 273, 258, 24, -126, -229, 
-117, -341, -224, 229, 53, -283, 341, 278, 258, 24, -117, -224, 
-112, -326, -214, 219, 51, -270, 346, 283, 263, 24, -117, -204, 
-107, -326, -219, 217, 56, -273, 361, 292, 278, 24, -126, -219, 
-102, -341, -239, 222, 68, -290, 370, 307, 292, 34, -131, -234, 
-102, -346, -244, 224, 70, -295, 385, 326, 307, 39, -136, -239, 
-107, -370, -263, 239, 78, -317, 390, 331, 326, 53, -136, -258, 
-112, -380, -268, 246, 78, -324, 395, 331, 336, 63, -126, -258, 
-112, -370, -258, 241, 73, -314, 395, 336, 346, 68, -126, -253, 
-107, -361, -253, 234, 73, -307, 395, 346, 356, 73, -122, -248, 
-97, -346, -248, 222, 75, -297, 390, 341, 361, 73, -122, -239, 
-107, -346, -239, 226, 65, -292, 395, 346, 366, 73, -131, -253, 
-107, -366, -258, 236, 75, -312, 409, 361, 380, 73, -136, -263, 
-112, -375, -263, 244, 75, -319, 419, 366, 395, 78, -136, -263, 
-117, -390, -273, 253, 78, -331, 429, 385, 405, 68, -146, -278, 
-122, -400, -278, 261, 78, -339, 434, 385, 414, 78, -141, -278, 
-126, -385, -258, 256, 65, -322, 439, 385, 419, 82, -141, -273, 
-131, -385, -253, 258, 61, -319, 444, 385, 424, 82, -141, -273, 
-136, -380, -244, 258, 53, -312, 444, 375, 434, 82, -141, -268, 
-141, -380, -239, 261, 48, -309, 448, 375, 434, 78, -151, -268, 
-151, -390, -239, 270, 43, -314, 453, 385, 444, 78, -156, -283, 
-165, -400, -234, 283, 34, -317, 458, 390, 453, 78, -156, -287, 
-185, -419, -234, 302, 24, -326, 463, 385, 448, 78, -170, -312, 
-185, -429, -244, 307, 29, -336, 468, 385, 463, 78, -170, -312, 
-185, -434, -248, 309, 31, -341, 468, 385, 463, 78, -170, -297, 
-185, -424, -239, 305, 26, -331, 468, 375, 458, 78, -170, -297, 
-190, -424, -234, 307, 21, -329, 473, 361, 458, 68, -170, -297, 
-195, -419, -224, 307, 14, -322, 468, 361, 448, 53, -175, -287, 
-209, -419, -209, 314, 0, -314, 468, 361, 444, 48, -190, -312, 
-219, -429, -209, 324, -4, -319, 468, 361, 439, 48, -190, -312, 
-229, -444, -214, 336, -7, -329, 483, 351, 434, 34, -204, -312, 
-239, -453, -214, 346, -12, -334, 483, 351, 434, 34, -204, -317, 
-244, -453, -209, 348, -17, -331, 483, 341, 434, 34, -195, -317, 
-248, -439, -190, 344, -29, -314, 473, 326, 424, 29, -195, -307, 
-263, -424, -161, 344, -51, -292, 468, 317, 414, 29, -195, -302, 
-263, -409, -146, 336, -58, -278, 463, 297, 395, 14, -195, -292, 
-263, -405, -141, 334, -61, -273, 453, 292, 380, 4, -209, -292, 
-263, -405, -141, 334, -61, -273, 448, 292, 366, -4, -219, -297, 
-263, -400, -136, 331, -63, -268, 444, 287, 361, -14, -209, -297, 
-253, -400, -146, 326, -53, -273, 434, 283, 346, -19, -209, -307, 
-248, -395, -146, 322, -51, -270, 419, 278, 331, -19, -204, -297, 
-248, -370, -122, 309, -63, -246, 400, 248, 317, -24, -200, -283, 
-234, -356, -122, 295, -56, -239, 375, 239, 292, -39, -209, -283, 
-219, -336, -117, 278, -51, -226, 356, 219, 273, -48, -195, -273, 
-209, -322, -112, 265, -48, -217, 331, 209, 244, -63, -209, -258, 
-195, -322, -126, 258, -34, -224, 317, 195, 229, -73, -209, -258, 
-180, -307, -126, 244, -26, -217, 307, 195, 214, -73, -209, -253, 
-165, -302, -136, 234, -14, -219, 292, 180, 195, -78, -209, -253, 
-161, -297, -136, 229, -12, -217, 273, 170, 185, -78, -195, -248, 
-146, -278, -131, 212, -7, -204, 253, 161, 165, -73, -180, -224, 
-136, -248, -112, 192, -12, -180, 229, 146, 146, -73, -161, -200, 
-126, -229, -102, 178, -12, -165, 204, 136, 126, -78, -151, -185, 
-122, -209, -87, 165, -17, -148, 190, 122, 107, -82, -151, -170, 
-112, -200, -87, 156, -12, -143, 170, 107, 87, -92, -151, -170, 
-112, -190, -78, 151, -17, -134, 151, 102, 78, -82, -141, -165, 
-102, -185, -82, 143, -9, -134, 136, 92, 68, -82, -141, -161, 
-92, -175, -82, 134, -4, -129, 122, 87, 68, -78, -136, -156, 
-87, -161, -73, 124, -7, -117, 107, 78, 58, -68, -117, -136, 
-68, -141, -73, 104, 2, -107, 97, 63, 43, -68, -102, -107, 
-53, -122, -68, 87, 7, -95, 82, 53, 29, -68, -92, -92, 
-43, -102, -58, 73, 7, -80, 68, 43, 14, -73, -87, -82, 
-34, -92, -58, 63, 12, -75, 53, 39, 0, -73, -87, -82, 
-39, -82, -43, 61, 2, -63, 53, 29, -4, -73, -87, -78, 
-34, -82, -48, 58, 7, -65, 43, 29, -9, -73, -78, -78, 
-29, -82, -53, 56, 12, -68, 34, 24, -14, -73, -78, -78, 
-24, -82, -58, 53, 17, -70, 29, 19, -19, -63, -68, -68, 
-29, -73, -43, 51, 7, -58, 19, 4, -24, -53, -48, -43, 
-29, -63, -34, 46, 2, -48, 14, -4, -29, -53, -43, -34, 
-29, -58, -29, 43, 0, -43, 4, -9, -43, -53, -34, -29, 
-29, -58, -29, 43, 0, -43, -4, -14, -53, -58, -29, -29, 
-24, -58, -34, 41, 4, -46, -4, -14, -58, -68, -39, -29, 
-24, -58, -34, 41, 4, -46, -4, -9, -58, -63, -39, -29, 
-24, -63, -39, 43, 7, -51, -9, -9, -58, -63, -39, -29, 
-19, -63, -43, 41, 12, -53, -14, -9, -63, -63, -39, -29, 
-29, -63, -34, 46, 2, -48, -14, -19, -63, -53, -24, -19, 
-24, -58, -34, 41, 4, -46, -19, -24, -63, -53, -24, -14, 
-24, -58, -34, 41, 4, -46, -19, -24, -63, -53, -19, -14, 
-24, -48, -24, 36, 0, -36, -19, -24, -63, -53, -19, -14, 
-24, -39, -14, 31, -4, -26, -19, -34, -53, -43, -4, 0, 
-24, -39, -14, 31, -4, -26, -19, -34, -53, -39, -4, 0, 
-24, -34, -9, 29, -7, -21, -24, -39, -58, -39, 0, 4, 
-24, -34, -9, 29, -7, -21, -24, -39, -63, -39, 0, 4, 
-24, -19, 4, 21, -14, -7, -24, -34, -53, -39, 9, 14, 
-24, -19, 4, 21, -14, -7, -24, -34, -53, -39, 9, 14, 
-24, -19, 4, 21, -14, -7, -24, -39, -53, -39, 9, 14, 
-24, -19, 4, 21, -14, -7, -29, -39, -53, -34, 14, 14, 
-24, -14, 9, 19, -17, -2, -29, -39, -43, -24, 14, 14, 
-24, -9, 14, 17, -19, 2, -34, -39, -43, -24, 19, 19, 
-19, 0, 19, 9, -19, 9, -34, -39, -43, -24, 19, 19, 
-19, 9, 29, 4, -24, 19, -34, -39, -43, -24, 19, 19, 
-14, 9, 24, 2, -19, 17, -34, -39, -43, -34, 9, 19, 
-4, 9, 14, -2, -9, 12, -34, -39, -43, -34, 9, 19, 
0, 9, 9, -4, -4, 9, -39, -39, -43, -34, 9, 19, 
4, 9, 4, -7, 0, 7, -39, -39, -43, -29, 9, 19, 
4, 0, -4, -2, 4, -2, -29, -29, -43, -29, 9, 19, 
4, 0, -4, -2, 4, -2, -29, -29, -43, -29, 14, 19, 
4, 4, 0, -4, 2, 2, -29, -34, -43, -29, 14, 24, 
9, 4, -4, -7, 7, 0, -29, -34, -43, -29, 14, 24, 
19, 4, -14, -12, 17, -4, -34, -24, -53, -39, 9, 14, 
19, 4, -14, -12, 17, -4, -34, -24, -53, -39, 9, 14, 
19, 4, -14, -12, 17, -4, -34, -19, -48, -39, 9, 14, 
19, 4, -14, -12, 17, -4, -34, -19, -48, -34, 9, 14, 
29, 4, -24, -17, 26, -9, -34, -19, -48, -24, 9, 14, 
29, 4, -24, -17, 26, -9, -34, -19, -43, -24, 9, 14, 
29, 4, -24, -17, 26, -9, -34, -19, -43, -24, 9, 14, 
34, 4, -29, -19, 31, -12, -34, -19, -43, -24, 9, 14, 
24, 4, -19, -14, 21, -7, -43, -19, -43, -24, 9, 4, 
24, 4, -19, -14, 21, -7, -43, -19, -43, -24, 9, 4, 
19, 0, -19, -9, 19, -9, -43, -19, -43, -24, 9, 4, 
19, -4, -24, -7, 21, -14, -39, -19, -39, -19, 9, 4, 
0, -14, -14, 7, 7, -14, -29, -29, -39, -29, 9, 4, 
0, -9, -9, 4, 4, -9, -29, -29, -39, -29, 9, 4, 
0, -9, -9, 4, 4, -9, -29, -29, -34, -24, 9, 4, 
0, -9, -9, 4, 4, -9, -29, -34, -34, -24, 9, 4, 
-14, -19, -4, 17, -4, -12, -29, -34, -34, -24, 9, 4, 
-14, -19, -4, 17, -4, -12, -24, -34, -34, -24, 9, 4, 
-14, -19, -4, 17, -4, -12, -24, -34, -34, -29, 4, 0, 
-19, -29, -9, 24, -4, -19, -19, -34, -29, -29, 4, 0, 
-9, -29, -19, 19, 4, -24, -19, -24, -29, -24, -4, 0, 
-14, -29, -14, 21, 0, -21, -19, -24, -29, -24, -4, 0, 
-14, -29, -14, 21, 0, -21, -19, -24, -24, -24, -4, -4, 
-14, -29, -14, 21, 0, -21, -14, -24, -24, -24, -4, -4, 
-19, -29, -9, 24, -4, -19, -14, -34, -24, -34, -14, 4, 
-19, -29, -9, 24, -4, -19, -14, -34, -24, -34, -14, 4, 
-19, -34, -14, 26, -2, -24, -9, -29, -24, -34, -19, 4, 
-19, -39, -19, 29, 0, -29, -9, -29, -24, -34, -19, -4, 
-24, -43, -19, 34, -2, -31, 0, -29, -24, -29, -14, -4, 
-34, -43, -9, 39, -12, -26, 4, -29, -24, -29, -14, -4, 
-39, -43, -4, 41, -17, -24, 4, -29, -24, -29, -14, -4, 
-48, -43, 4, 46, -26, -19, 0, -29, -24, -29, -14, -4, 
-58, -43, 14, 51, -36, -14, 9, -34, -24, -29, -4, -4, 
-58, -43, 14, 51, -36, -14, 14, -34, -24, -29, -4, -4, 
-58, -43, 14, 51, -36, -14, 14, -34, -24, -29, -9, -4, 
-63, -48, 14, 56, -39, -17, 19, -29, -24, -34, -14, -9, 
-58, -39, 19, 48, -39, -9, 9, -24, -24, -24, -14, -9, 
-53, -39, 14, 46, -34, -12, 9, -19, -24, -24, -14, -14, 
-48, -39, 9, 43, -29, -14, 9, -14, -24, -24, -14, -14, 
-43, -43, 0, 43, -21, -21, 9, -9, -24, -24, -14, -14, 
-34, -39, -4, 36, -14, -21, 0, -9, -29, -34, -14, -4, 
-24, -34, -9, 29, -7, -21, 0, -9, -29, -39, -14, -4, 
-14, -29, -14, 21, 0, -21, 0, -9, -29, -39, -19, -4, 
-4, -29, -24, 17, 9, -26, 0, -9, -29, -39, -19, -4, 
4, -34, -39, 14, 21, -36, -9, 0, -29, -39, -24, -19, 
4, -34, -39, 14, 21, -36, -9, 0, -34, -43, -24, -19, 
4, -34, -39, 14, 21, -36, -9, 0, -34, -43, -24, -19, 
4, -34, -39, 14, 21, -36, -9, 0, -34, -43, -19, -19, 
0, -34, -34, 17, 17, -34, -19, 0, -34, -43, -19, -9, 
0, -34, -34, 17, 17, -34, -24, -4, -39, -43, -24, -14, 
4, -34, -39, 14, 21, -36, -24, -9, -39, -48, -24, -14, 
4, -34, -39, 14, 21, -36, -24, -19, -43, -48, -29, -14, 
-4, -34, -29, 19, 12, -31, -24, -19, -43, -48, -29, -14, 
0, -34, -34, 17, 17, -34, -24, -19, -43, -48, -29, -14, 
0, -34, -34, 17, 17, -34, -24, -14, -43, -48, -29, -14, 
4, -34, -39, 14, 21, -36, -24, -14, -43, -48, -29, -14, 
4, -24, -29, 9, 17, -26, -24, -24, -34, -39, -14, -9, 
4, -9, -14, 2, 9, -12, -24, -24, -34, -39, -14, -4, 
4, 0, -4, -2, 4, -2, -24, -24, -34, -34, -14, 4, 
4, 4, 0, -4, 2, 2, -24, -24, -29, -34, -14, 9, 
4, 24, 19, -14, -7, 21, -24, -24, -19, -24, 4, 14, 
4, 24, 19, -14, -7, 21, -24, -24, -9, -14, 0, 14, 
4, 29, 24, -17, -9, 26, -24, -29, -14, -19, 9, 19, 
0, 29, 29, -14, -14, 29, -19, -29, -9, -9, 9, 19, 
0, 39, 39, -19, -19, 39, -19, -39, 0, 0, 19, 29, 
0, 39, 39, -19, -19, 39, -19, -39, 0, 0, 19, 29, 
0, 39, 39, -19, -19, 39, -19, -39, 0, 0, 19, 29, 
0, 39, 39, -19, -19, 39, -19, -39, 0, 0, 19, 29, 
0, 34, 34, -17, -17, 34, -24, -48, -4, 4, 24, 34, 
-4, 43, 48, -19, -26, 46, -24, -48, 0, 9, 24, 34, 
-4, 53, 58, -24, -31, 56, -34, -48, 4, 9, 34, 39, 
-4, 58, 63, -26, -34, 61, -34, -48, 9, 14, 39, 43, 
-4, 63, 68, -29, -36, 65, -34, -48, 14, 29, 53, 58, 
-4, 78, 82, -36, -43, 80, -39, -53, 14, 34, 58, 63, 
-4, 87, 92, -41, -48, 90, -53, -58, 14, 39, 63, 68, 
-4, 97, 102, -46, -53, 100, -58, -63, 14, 39, 68, 73, 
4, 112, 107, -58, -51, 109, -68, -68, 19, 43, 63, 78, 
19, 126, 107, -73, -43, 117, -78, -73, 29, 48, 63, 78, 
24, 141, 117, -82, -46, 129, -82, -73, 39, 53, 68, 82, 
24, 156, 131, -90, -53, 143, -92, -73, 43, 58, 73, 87, 
34, 165, 131, -100, -48, 148, -107, -63, 34, 58, 78, 92, 
43, 175, 131, -109, -43, 153, -112, -63, 34, 58, 82, 97, 
53, 185, 131, -119, -39, 158, -112, -73, 34, 58, 82, 102, 
63, 190, 126, -126, -31, 158, -122, -73, 29, 58, 82, 102, 
73, 195, 122, -134, -24, 158, -126, -63, 19, 48, 73, 92, 
78, 195, 117, -136, -19, 156, -131, -63, 19, 48, 73, 92, 
82, 195, 112, -139, -14, 153, -136, -63, 14, 43, 73, 97, 
92, 195, 102, -143, -4, 148, -136, -63, 9, 43, 68, 97, 
97, 200, 102, -148, -2, 151, -141, -68, 4, 53, 78, 97, 
102, 204, 102, -153, 0, 153, -146, -73, 0, 43, 78, 97, 
112, 209, 97, -161, 7, 153, -146, -73, -4, 43, 78, 102, 
117, 214, 97, -165, 9, 156, -141, -73, -9, 39, 78, 102, 
112, 224, 112, -168, 0, 168, -141, -82, -19, 34, 73, 107, 
107, 224, 117, -165, -4, 170, -141, -82, -29, 34, 73, 107, 
102, 219, 117, -161, -7, 168, -141, -82, -34, 29, 73, 107, 
92, 214, 122, -153, -14, 168, -141, -82, -34, 29, 73, 107, 
87, 200, 112, -143, -12, 156, -131, -87, -29, 39, 73, 112, 
82, 195, 112, -139, -14, 153, -131, -87, -34, 29, 73, 107, 
78, 185, 107, -131, -14, 146, -126, -87, -39, 24, 68, 102, 
63, 170, 107, -117, -21, 139, -122, -82, -43, 24, 63, 97, 
53, 161, 107, -107, -26, 134, -112, -73, -43, 9, 48, 82, 
39, 141, 102, -90, -31, 122, -107, -73, -48, 4, 43, 78, 
29, 131, 102, -80, -36, 117, -102, -68, -53, -9, 39, 68, 
19, 107, 87, -63, -34, 97, -87, -68, -58, -9, 29, 58, 
14, 82, 68, -48, -26, 75, -87, -63, -58, -24, 19, 43, 
9, 68, 58, -39, -24, 63, -87, -63, -63, -29, 9, 39, 
0, 53, 53, -26, -26, 53, -82, -63, -68, -29, 4, 29, 
-4, 39, 43, -17, -24, 41, -73, -63, -73, -39, -4, 24, 
-14, 24, 39, -4, -26, 31, -58, -63, -68, -43, -14, 14, 
-19, 9, 29, 4, -24, 19, -53, -58, -78, -48, -19, 4, 
-24, -4, 19, 14, -21, 7, -48, -58, -82, -53, -24, -4, 
-24, -14, 9, 19, -17, -2, -43, -53, -87, -58, -29, -4, 
-39, -24, 14, 31, -26, -4, -29, -63, -87, -73, -34, -9, 
-39, -39, 0, 39, -19, -19, -24, -63, -87, -78, -39, -14, 
-39, -48, -9, 43, -14, -29, -19, -58, -87, -78, -39, -19, 
-39, -53, -14, 46, -12, -34, -19, -58, -92, -78, -39, -19, 
-48, -58, -9, 53, -19, -34, -9, -58, -92, -78, -39, -19, 
-48, -63, -14, 56, -17, -39, -4, -53, -92, -78, -39, -24, 
-48, -68, -19, 58, -14, -43, -4, -53, -97, -78, -39, -24, 
-48, -68, -19, 58, -14, -43, 0, -53, -97, -78, -39, -24, 
-48, -68, -19, 58, -14, -43, 0, -48, -107, -87, -48, -24, 
-48, -78, -29, 63, -9, -53, 0, -48, -107, -87, -48, -24, 
-48, -78, -29, 63, -9, -53, 0, -48, -107, -87, -48, -24, 
-48, -78, -29, 63, -9, -53, 0, -48, -107, -87, -53, -24, 
-48, -68, -19, 58, -14, -43, 9, -39, -107, -87, -53, -29, 
-43, -68, -24, 56, -9, -46, 9, -39, -107, -92, -53, -29, 
-39, -68, -29, 53, -4, -48, 9, -39, -107, -92, -53, -29, 
-34, -73, -39, 53, 2, -56, 9, -39, -107, -92, -53, -29, 
-34, -73, -39, 53, 2, -56, 4, -29, -97, -92, -63, -29, 
-34, -73, -39, 53, 2, -56, 4, -29, -97, -92, -63, -29, 
-34, -73, -39, 53, 2, -56, 4, -29, -97, -92, -63, -29, 
-34, -73, -39, 53, 2, -56, 4, -29, -97, -92, -63, -29, 
-24, -82, -58, 53, 17, -70, 0, -39, -102, -92, -73, -29, 
-24, -82, -58, 53, 17, -70, -4, -39, -102, -92, -73, -29, 
-24, -82, -58, 53, 17, -70, -9, -34, -102, -92, -73, -34, 
-24, -82, -58, 53, 17, -70, -14, -34, -102, -92, -73, -34, 
-19, -82, -63, 51, 21, -73, -24, -34, -102, -92, -63, -34, 
-19, -82, -63, 51, 21, -73, -24, -34, -102, -92, -63, -34, 
-14, -82, -68, 48, 26, -75, -24, -34, -102, -92, -68, -34, 
-14, -82, -68, 48, 26, -75, -24, -34, -102, -97, -68, -34, 
-19, -82, -63, 51, 21, -73, -19, -39, -102, -87, -63, -34, 
-9, -82, -73, 46, 31, -78, -19, -39, -112, -92, -63, -34, 
-9, -82, -73, 46, 31, -78, -19, -39, -117, -97, -73, -39, 
-14, -97, -82, 56, 34, -90, 0, -39, -122, -107, -82, -53, 
-29, -126, -97, 78, 34, -112, 14, -29, -126, -122, -102, -78, 
-39, -156, -117, 97, 39, -136, 43, -14, -136, -141, -117, -92, 
-43, -200, -156, 122, 56, -178, 73, -4, -151, -156, -131, -117, 
-63, -229, -165, 146, 51, -197, 92, 4, -161, -170, -161, -136, 
-73, -268, -195, 170, 61, -231, 112, 14, -175, -195, -190, -156, 
-82, -283, -200, 183, 58, -241, 122, 14, -190, -224, -200, -170, 
-82, -283, -200, 183, 58, -241, 122, 14, -180, -214, -200, -170, 
-82, -253, -170, 168, 43, -212, 112, 9, -146, -175, -165, -146, 
-58, -195, -136, 126, 39, -165, 82, 9, -102, -122, -117, -112, 
-9, -102, -92, 56, 41, -97, 34, 0, -48, -53, -48, -63, 
48, 24, -24, -36, 36, 0, -34, -14, 14, 58, 48, 24, 
126, 185, 58, -156, 34, 122, -131, -43, 63, 165, 165, 126, 
229, 375, 146, -302, 41, 261, -263, -78, 102, 278, 297, 253, 
361, 570, 209, -466, 75, 390, -400, -87, 131, 375, 424, 361, 
497, 746, 248, -622, 124, 497, -531, -112, 112, 458, 522, 473, 
614, 888, 273, -751, 170, 580, -683, -136, 58, 497, 605, 561, 
741, 1034, 292, -888, 224, 663, -814, -156, -19, 507, 673, 644, 
883, 1200, 317, -1041, 283, 758, -976, -190, -78, 551, 756, 746, 
1029, 1410, 380, -1220, 324, 895, -1156, -239, -97, 634, 878, 883, 
1151, 1659, 507, -1405, 322, 1083, -1327, -297, -92, 732, 1015, 1034, 
1273, 1888, 614, -1581, 329, 1251, -1478, -356, -92, 834, 1141, 1180, 
1381, 2108, 727, -1744, 326, 1417, -1615, -434, -122, 912, 1268, 1322, 
1449, 2283, 834, -1866, 307, 1559, -1742, -517, -161, 956, 1356, 1434, 
1468, 2396, 927, -1932, 270, 1661, -1854, -624, -234, 956, 1410, 1503, 
1429, 2464, 1034, -1947, 197, 1749, -1937, -751, -287, 941, 1434, 1561, 
1342, 2483, 1141, -1912, 100, 1812, -1991, -897, -336, 922, 1444, 1600, 
1205, 2474, 1268, -1839, -31, 1871, -2030, -1068, -390, 883, 1420, 1625, 
1015, 2405, 1390, -1710, -187, 1898, -2010, -1224, -458, 775, 1366, 1615, 
824, 2283, 1459, -1554, -317, 1871, -1966, -1346, -546, 653, 1268, 1561, 
639, 2098, 1459, -1368, -409, 1778, -1878, -1415, -673, 444, 1073, 1444, 
458, 1776, 1317, -1117, -429, 1546, -1727, -1415, -883, 117, 771, 1229, 
297, 1459, 1161, -878, -431, 1310, -1542, -1356, -1068, -180, 488, 1000, 
190, 1263, 1073, -727, -441, 1168, -1366, -1263, -1088, -287, 361, 878, 
146, 1137, 990, -641, -422, 1063, -1210, -1137, -1024, -287, 312, 800, 
102, 922, 819, -512, -358, 871, -1015, -961, -951, -326, 180, 639, 
34, 649, 614, -341, -290, 631, -780, -761, -849, -351, 82, 473, 
-29, 444, 473, -207, -251, 458, -590, -590, -727, -351, -14, 312, 
-39, 248, 287, -104, -163, 268, -434, -444, -600, -341, -92, 161, 
-43, 126, 170, -41, -107, 148, -302, -326, -502, -302, -112, 97, 
-63, 73, 136, -4, -100, 104, -229, -258, -395, -278, -131, 43, 
-73, 14, 87, 29, -80, 51, -151, -200, -312, -239, -141, -9, 
-82, -29, 53, 56, -68, 12, -87, -156, -253, -195, -112, -19, 
-82, -43, 39, 63, -61, -2, -53, -122, -214, -190, -131, -39, 
-82, -102, -19, 92, -31, -61, 4, -78, -161, -165, -131, -73, 
-87, -141, -53, 114, -17, -97, 39, -39, -136, -146, -122, -78, 
-82, -161, -78, 122, -2, -119, 58, -19, -107, -146, -146, -102, 
-82, -185, -102, 134, 9, -143, 78, 4, -82, -112, -126, -107, 
-82, -175, -92, 129, 4, -134, 82, 4, -78, -122, -126, -97, 
-63, -185, -122, 124, 29, -153, 92, 9, -78, -122, -136, -117, 
-63, -195, -131, 129, 34, -163, 112, 29, -78, -117, -136, -117, 
-63, -200, -136, 131, 36, -168, 122, 34, -78, -117, -141, -117, 
-63, -204, -141, 134, 39, -173, 122, 43, -78, -126, -156, -126, 
-63, -234, -170, 148, 53, -202, 136, 58, -78, -126, -161, -141, 
-82, -239, -156, 161, 36, -197, 136, 53, -63, -126, -151, -141, 
-82, -258, -175, 170, 46, -217, 146, 63, -53, -126, -165, -151, 
-82, -268, -185, 175, 51, -226, 146, 63, -48, -117, -151, -151, 
-82, -253, -170, 168, 43, -212, 146, 53, -48, -117, -136, -146, 
-82, -248, -165, 165, 41, -207, 146, 63, -53, -117, -146, -151, 
-78, -244, -165, 161, 43, -204, 146, 63, -53, -117, -146, -141, 
-78, -244, -165, 161, 43, -204, 146, 63, -58, -126, -151, -141, 
-78, -263, -185, 170, 53, -224, 151, 73, -58, -126, -165, -161, 
-102, -278, -175, 190, 36, -226, 161, 68, -39, -126, -156, -165, 
-102, -292, -190, 197, 43, -241, 165, 73, -34, -126, -161, -175, 
-107, -307, -200, 207, 46, -253, 170, 73, -29, -117, -161, -190, 
-107, -297, -190, 202, 41, -244, 170, 68, -29, -112, -146, -175, 
-97, -283, -185, 190, 43, -234, 175, 73, -29, -112, -151, -175, 
-97, -278, -180, 187, 41, -229, 175, 73, -29, -112, -151, -175, 
-87, -268, -180, 178, 46, -224, 175, 78, -29, -117, -151, -165, 
-87, -268, -180, 178, 46, -224, 175, 78, -29, -126, -161, -175, 
-102, -268, -165, 185, 31, -217, 195, 92, -9, -107, -156, -175, 
-112, -283, -170, 197, 29, -226, 200, 97, -4, -107, -156, -175, 
-117, -292, -175, 204, 29, -234, 209, 97, 0, -97, -156, -185, 
-117, -292, -175, 204, 29, -234, 209, 97, 14, -87, -146, -170, 
-112, -283, -170, 197, 29, -226, 209, 82, 4, -97, -136, -151, 
-112, -273, -161, 192, 24, -217, 204, 78, 4, -92, -131, -151, 
-107, -258, -151, 183, 21, -204, 204, 78, 4, -92, -131, -146, 
-107, -258, -151, 183, 21, -204, 204, 82, 4, -97, -151, -146, 
-131, -287, -156, 209, 12, -222, 219, 92, 14, -97, -151, -165, 
-136, -297, -161, 217, 12, -229, 229, 97, 29, -97, -151, -165, 
-146, -317, -170, 231, 12, -244, 234, 102, 34, -97, -151, -170, 
-151, -336, -185, 244, 17, -261, 234, 102, 48, -82, -141, -180, 
-146, -312, -165, 229, 9, -239, 224, 97, 43, -87, -141, -165, 
-136, -302, -165, 219, 14, -234, 224, 97, 39, -87, -136, -161, 
-136, -283, -146, 209, 4, -214, 224, 97, 34, -87, -136, -156, 
-136, -273, -136, 204, 0, -204, 224, 97, 29, -92, -146, -156, 
-126, -297, -170, 212, 21, -234, 224, 112, 34, -82, -146, -175, 
-126, -307, -180, 217, 26, -244, 234, 126, 48, -73, -146, -175, 
-122, -307, -185, 214, 31, -246, 239, 136, 53, -73, -156, -190, 
-122, -317, -195, 219, 36, -256, 244, 136, 68, -63, -146, -190, 
-117, -302, -185, 209, 34, -244, 234, 136, 73, -63, -136, -175, 
-107, -278, -170, 192, 31, -224, 234, 136, 73, -58, -131, -165, 
-102, -268, -165, 185, 31, -217, 234, 131, 73, -58, -126, -165, 
-97, -253, -156, 175, 29, -204, 229, 131, 73, -63, -126, -156, 
-87, -273, -185, 180, 48, -229, 239, 146, 78, -53, -136, -180, 
-82, -283, -200, 183, 58, -241, 248, 165, 87, -53, -141, -190, 
-82, -292, -209, 187, 63, -251, 253, 175, 92, -53, -146, -195, 
-87, -302, -214, 195, 63, -258, 263, 180, 107, -43, -146, -200, 
-82, -292, -209, 187, 63, -251, 253, 170, 117, -39, -131, -190, 
-82, -287, -204, 185, 61, -246, 253, 170, 117, -39, -126, -175, 
-82, -278, -195, 180, 56, -236, 258, 170, 122, -39, -122, -175, 
-82, -263, -180, 173, 48, -222, 258, 170, 122, -39, -122, -175, 
-87, -278, -190, 183, 51, -234, 263, 180, 122, -34, -141, -190, 
-102, -302, -200, 202, 48, -251, 273, 195, 136, -34, -146, -195, 
-107, -322, -214, 214, 53, -268, 287, 209, 151, -29, -151, -200, 
-122, -346, -224, 234, 51, -285, 297, 224, 161, -29, -151, -214, 
-122, -351, -229, 236, 53, -290, 302, 214, 161, -9, -146, -209, 
-122, -336, -214, 229, 46, -275, 302, 209, 170, -4, -131, -195, 
-117, -317, -200, 217, 41, -258, 307, 209, 170, 0, -122, -190, 
-117, -307, -190, 212, 36, -248, 307, 219, 180, 0, -117, -175, 
-112, -307, -195, 209, 41, -251, 312, 224, 195, -9, -131, -190, 
-112, -312, -200, 212, 43, -256, 322, 239, 209, -9, -136, -204, 
-112, -322, -209, 217, 48, -265, 336, 258, 224, 0, -136, -214, 
-122, -331, -209, 226, 43, -270, 346, 263, 234, 4, -136, -229, 
-117, -331, -214, 224, 48, -273, 346, 263, 253, 29, -131, -224, 
-117, -331, -214, 224, 48, -273, 356, 263, 258, 34, -117, -209, 
-117, -317, -200, 217, 41, -258, 361, 263, 268, 34, -112, -204, 
-117, -312, -195, 214, 39, -253, 361, 268, 268, 34, -97, -195, 
-107, -307, -200, 207, 46, -253, 375, 278, 283, 34, -107, -190, 
-107, -307, -200, 207, 46, -253, 390, 292, 297, 34, -117, -209, 
-107, -322, -214, 214, 53, -268, 400, 312, 312, 43, -122, -229, 
-112, -326, -214, 219, 51, -270, 414, 336, 326, 48, -126, -239, 
-126, -341, -214, 234, 43, -278, 414, 341, 346, 63, -117, -244, 
-131, -351, -219, 241, 43, -285, 424, 341, 356, 73, -107, -239, 
-131, -341, -209, 236, 39, -275, 429, 346, 366, 78, -107, -229, 
-126, -331, -204, 229, 39, -268, 434, 356, 375, 82, -102, -219, 
-131, -336, -204, 234, 36, -270, 448, 351, 380, 82, -112, -219, 
-146, -336, -190, 241, 21, -263, 453, 356, 385, 82, -122, -234, 
-151, -356, -204, 253, 26, -280, 468, 370, 400, 82, -126, -244, 
-161, -366, -204, 263, 21, -285, 478, 375, 414, 87, -126, -244, 
-156, -361, -204, 258, 24, -283, 478, 375, 434, 97, -126, -258, 
-161, -370, -209, 265, 24, -290, 483, 375, 444, 107, -122, -258, 
-165, -356, -190, 261, 12, -273, 488, 375, 448, 112, -122, -253, 
-170, -356, -185, 263, 7, -270, 492, 375, 453, 112, -122, -253, 
-180, -361, -180, 270, 0, -270, 483, 375, 453, 107, -131, -258, 
-180, -361, -180, 270, 0, -270, 488, 375, 453, 97, -141, -258, 
-185, -370, -185, 278, 0, -278, 492, 385, 463, 92, -146, -273, 
-195, -380, -185, 287, -4, -283, 497, 390, 473, 87, -146, -278, 
-200, -385, -185, 292, -7, -285, 492, 395, 468, 87, -151, -302, 
-195, -390, -195, 292, 0, -292, 497, 395, 483, 87, -151, -302, 
-190, -390, -200, 290, 4, -295, 497, 395, 483, 87, -151, -287, 
-185, -375, -190, 280, 2, -283, 497, 385, 478, 87, -151, -287, 
-195, -380, -185, 287, -4, -283, 502, 380, 468, 78, -161, -297, 
-195, -380, -185, 287, -4, -283, 497, 380, 458, 63, -165, -287, 
-204, -385, -180, 295, -12, -283, 497, 380, 453, 58, -180, -312, 
-209, -400, -190, 305, -9, -295, 497, 380, 448, 58, -180, -312, 
-219, -414, -195, 317, -12, -305, 502, 361, 453, 53, -195, -302, 
-229, -424, -195, 326, -17, -309, 502, 361, 453, 53, -195, -307, 
-234, -424, -190, 329, -21, -307, 502, 351, 453, 53, -185, -307, 
-239, -409, -170, 324, -34, -290, 492, 336, 444, 48, -185, -297, 
-244, -395, -151, 319, -46, -273, 478, 336, 424, 48, -185, -292, 
-244, -380, -136, 312, -53, -258, 473, 317, 405, 34, -185, -283, 
-244, -375, -131, 309, -56, -253, 463, 312, 390, 24, -200, -283, 
-244, -375, -131, 309, -56, -253, 458, 312, 375, 14, -209, -287, 
-244, -366, -122, 305, -61, -244, 444, 287, 370, 4, -200, -287, 
-234, -370, -136, 302, -48, -253, 434, 283, 356, 0, -200, -297, 
-229, -370, -141, 300, -43, -256, 419, 278, 341, 0, -195, -287, 
-229, -351, -122, 290, -53, -236, 400, 248, 326, -4, -190, -273, 
-209, -326, -117, 268, -46, -222, 385, 239, 302, -19, -190, -263, 
-200, -307, -107, 253, -46, -207, 366, 219, 283, -29, -175, -253, 
-195, -292, -97, 244, -48, -195, 341, 209, 253, -43, -190, -239, 
-185, -292, -107, 239, -39, -200, 326, 195, 239, -53, -190, -239, 
-180, -278, -97, 229, -41, -187, 317, 200, 224, -53, -190, -234, 
-165, -273, -107, 219, -29, -190, 302, 180, 204, -58, -190, -234, 
-161, -268, -107, 214, -26, -187, 283, 165, 195, -58, -175, -229, 
-146, -248, -102, 197, -21, -175, 263, 151, 175, -53, -161, -204, 
-141, -229, -87, 185, -26, -158, 244, 126, 146, -53, -151, -190, 
-136, -209, -73, 173, -31, -141, 224, 117, 126, -58, -141, -175, 
-136, -190, -53, 163, -41, -122, 214, 102, 107, -63, -141, -161, 
-131, -180, -48, 156, -41, -114, 200, 87, 87, -73, -141, -161, 
-126, -190, -63, 158, -31, -126, 190, 82, 78, -73, -122, -156, 
-122, -185, -63, 153, -29, -124, 175, 73, 68, -73, -122, -151, 
-117, -175, -58, 146, -29, -117, 161, 68, 68, -68, -117, -146, 
-117, -161, -43, 139, -36, -102, 146, 58, 58, -58, -97, -126, 
-107, -131, -24, 119, -41, -78, 126, 53, 43, -58, -92, -107, 
-92, -112, -19, 102, -36, -65, 112, 43, 29, -58, -82, -92, 
-82, -92, -9, 87, -36, -51, 97, 34, 14, -63, -78, -82, 
-73, -82, -9, 78, -31, -46, 82, 29, 0, -63, -78, -82, 
-68, -92, -24, 80, -21, -58, 73, 29, -4, -63, -78, -78, 
-63, -92, -29, 78, -17, -61, 63, 29, -9, -63, -68, -78, 
-58, -92, -34, 75, -12, -63, 53, 24, -14, -63, -68, -78, 
-53, -92, -39, 73, -7, -65, 48, 19, -19, -53, -58, -68, 
-39, -68, -29, 53, -4, -48, 29, 14, -34, -53, -53, -53, 
-29, -53, -24, 41, -2, -39, 24, 4, -39, -53, -53, -43, 
-19, -43, -24, 31, 2, -34, 14, 0, -53, -53, -48, -39, 
-9, -39, -29, 24, 9, -34, 4, -4, -63, -58, -48, -39, 
-4, -48, -43, 26, 19, -46, -4, -4, -58, -58, -39, -39, 
-4, -48, -43, 26, 19, -46, -4, 0, -58, -53, -39, -39, 
-4, -53, -48, 29, 21, -51, -9, 0, -58, -53, -39, -39, 
0, -53, -53, 26, 26, -53, -14, 0, -63, -53, -39, -39, 
0, -43, -43, 21, 21, -43, -14, -19, -73, -53, -34, -29, 
4, -39, -43, 17, 24, -41, -19, -24, -73, -53, -34, -24, 
4, -39, -43, 17, 24, -41, -19, -24, -73, -53, -29, -24, 
4, -29, -34, 12, 19, -31, -19, -24, -73, -53, -29, -24, 
4, -19, -24, 7, 14, -21, -19, -24, -63, -53, -24, -19, 
4, -19, -24, 7, 14, -21, -19, -24, -63, -48, -24, -19, 
4, -14, -19, 4, 12, -17, -24, -29, -68, -48, -19, -14, 
4, -14, -19, 4, 12, -17, -24, -29, -73, -48, -19, -14, 
4, -19, -24, 7, 14, -21, -24, -24, -73, -48, -19, -4, 
4, -19, -24, 7, 14, -21, -24, -24, -73, -48, -19, -4, 
4, -19, -24, 7, 14, -21, -24, -29, -73, -48, -19, -4, 
4, -19, -24, 7, 14, -21, -29, -29, -73, -43, -14, -4, 
14, -9, -24, -2, 19, -17, -29, -29, -73, -43, -14, -4, 
14, -9, -24, -2, 19, -17, -34, -29, -73, -43, -9, 0, 
19, -4, -24, -7, 21, -14, -34, -29, -73, -43, -9, 0, 
19, 0, -19, -9, 19, -9, -34, -29, -73, -43, -9, 0, 
19, 0, -19, -9, 19, -9, -34, -29, -73, -34, 0, 0, 
24, 0, -24, -12, 24, -12, -34, -29, -73, -34, 0, 0, 
24, 0, -24, -12, 24, -12, -39, -29, -73, -34, 0, 0, 
24, 0, -24, -12, 24, -12, -39, -29, -73, -29, 0, 0, 
24, 9, -14, -17, 19, -2, -29, -29, -73, -29, 0, 0, 
24, 9, -14, -17, 19, -2, -29, -29, -73, -29, 4, 0, 
24, 14, -9, -19, 17, 2, -29, -34, -73, -29, 4, 4, 
29, 14, -14, -21, 21, 0, -29, -34, -73, -29, 4, 4, 
24, 4, -19, -14, 21, -7, -34, -34, -73, -29, 0, 4, 
19, 4, -14, -12, 17, -4, -34, -34, -73, -29, 0, 4, 
14, 4, -9, -9, 12, -2, -34, -29, -68, -29, 0, 4, 
9, 4, -4, -7, 7, 0, -34, -29, -68, -24, 0, 4, 
0, -4, -4, 2, 2, -4, -24, -29, -68, -34, 0, 4, 
0, -4, -4, 2, 2, -4, -24, -29, -63, -34, 0, 4, 
0, -4, -4, 2, 2, -4, -24, -29, -63, -34, 0, 4, 
4, -4, -9, 0, 7, -7, -24, -29, -63, -34, 0, 4, 
-4, -4, 0, 4, -2, -2, -24, -29, -63, -24, -9, 14, 
-4, -4, 0, 4, -2, -2, -24, -29, -63, -24, -9, 14, 
-9, -9, 0, 9, -4, -4, -24, -29, -63, -24, -9, 14, 
-9, -14, -4, 12, -2, -9, -19, -29, -58, -19, -9, 14, 
-14, -4, 9, 9, -12, 2, -9, -19, -58, -19, 0, 4, 
-9, 0, 9, 4, -9, 4, -9, -19, -58, -19, 0, 4, 
-4, 0, 4, 2, -4, 2, -9, -19, -53, -14, 0, 4, 
0, 0, 0, 0, 0, 0, -9, -24, -53, -14, 0, 4, 
-4, 0, 4, 2, -4, 2, -19, -24, -53, -14, 0, 4, 
-4, 0, 4, 2, -4, 2, -14, -24, -53, -14, 0, 4, 
-4, 0, 4, 2, -4, 2, -14, -24, -53, -19, -4, 0, 
-9, -9, 0, 9, -4, -4, -9, -24, -48, -19, -4, 0, 
-19, -19, 0, 19, -9, -9, -19, -24, -48, -24, -4, -9, 
-24, -19, 4, 21, -14, -7, -19, -24, -48, -24, -4, -9, 
-24, -19, 4, 21, -14, -7, -19, -24, -43, -24, -4, -14, 
-24, -19, 4, 21, -14, -7, -14, -24, -43, -24, -4, -14, 
-29, -29, 0, 29, -14, -14, -4, -34, -53, -24, -4, -14, 
-29, -29, 0, 29, -14, -14, -4, -34, -53, -24, -4, -14, 
-29, -34, -4, 31, -12, -19, 0, -29, -53, -24, -9, -14, 
-29, -39, -9, 34, -9, -24, 0, -29, -53, -24, -9, -24, 
-29, -34, -4, 31, -12, -19, 0, -19, -43, -19, -4, -14, 
-34, -34, 0, 34, -17, -17, 4, -19, -43, -19, -4, -14, 
-34, -34, 0, 34, -17, -17, 4, -19, -43, -19, -4, -14, 
-39, -34, 4, 36, -21, -14, 0, -19, -43, -19, -4, -14, 
-29, -24, 4, 26, -17, -9, 0, -24, -43, -19, -4, -14, 
-29, -24, 4, 26, -17, -9, 4, -24, -43, -19, -4, -14, 
-29, -24, 4, 26, -17, -9, 4, -24, -43, -19, -9, -14, 
-34, -29, 4, 31, -19, -12, 9, -19, -43, -24, -14, -19, 
-24, -29, -4, 26, -9, -17, 0, -19, -53, -24, -14, -19, 
-24, -29, -4, 26, -9, -17, 0, -19, -53, -24, -14, -24, 
-24, -29, -4, 26, -9, -17, 0, -19, -53, -24, -14, -24, 
-24, -34, -9, 29, -7, -21, 0, -19, -53, -24, -14, -24, 
-19, -24, -4, 21, -7, -14, -9, -19, -58, -34, -24, -24, 
-14, -24, -9, 19, -2, -17, -9, -19, -58, -39, -24, -24, 
-9, -24, -14, 17, 2, -19, -9, -19, -58, -39, -29, -24, 
-4, -29, -24, 17, 9, -26, -9, -19, -58, -39, -29, -24, 
4, -24, -29, 9, 17, -26, -19, -19, -58, -39, -34, -29, 
4, -24, -29, 9, 17, -26, -19, -19, -63, -43, -34, -29, 
4, -24, -29, 9, 17, -26, -19, -19, -63, -43, -34, -29, 
4, -24, -29, 9, 17, -26, -19, -19, -63, -43, -29, -29, 
0, -24, -24, 12, 12, -24, -9, -24, -53, -34, -19, -19, 
0, -24, -24, 12, 12, -24, -14, -24, -58, -34, -24, -24, 
4, -24, -29, 9, 17, -26, -14, -24, -58, -39, -24, -24, 
4, -24, -29, 9, 17, -26, -14, -29, -63, -39, -29, -24, 
-9, -34, -24, 21, 7, -29, -4, -29, -63, -39, -29, -24, 
-9, -34, -24, 21, 7, -29, -4, -29, -63, -39, -29, -24, 
-14, -34, -19, 24, 2, -26, -4, -24, -63, -39, -29, -24, 
-14, -34, -19, 24, 2, -26, -4, -24, -63, -39, -29, -24, 
-24, -29, -4, 26, -9, -17, -4, -24, -53, -29, -14, -24, 
-24, -19, 4, 21, -14, -7, -4, -24, -53, -29, -14, -24, 
-24, -14, 9, 19, -17, -2, -4, -24, -53, -24, -14, -19, 
-24, -14, 9, 19, -17, -2, -4, -24, -48, -24, -14, -19, 
-14, -14, 0, 14, -7, -7, -14, -24, -48, -24, -14, -14, 
-14, -4, 9, 9, -12, 2, -14, -34, -48, -24, 0, -4, 
-14, 0, 14, 7, -14, 7, -14, -29, -43, -19, 0, 0, 
-19, 4, 24, 7, -21, 14, -14, -29, -34, -9, 9, 4, 
-19, 19, 39, 0, -29, 29, -19, -39, -39, 0, 9, 9, 
-9, 29, 39, -9, -24, 34, -29, -48, -29, 0, 9, 19, 
-9, 29, 39, -9, -24, 34, -29, -48, -29, 0, 9, 19, 
-9, 29, 39, -9, -24, 34, -29, -48, -29, 0, 9, 19, 
-9, 29, 39, -9, -24, 34, -29, -48, -29, 0, 9, 19, 
4, 43, 39, -24, -17, 41, -24, -39, -24, -4, 14, 24, 
4, 53, 48, -29, -21, 51, -24, -39, -19, 0, 14, 24, 
9, 63, 53, -36, -21, 58, -34, -39, -14, 0, 24, 29, 
14, 68, 53, -41, -19, 61, -34, -39, -9, 4, 29, 34, 
9, 82, 73, -46, -31, 78, -43, -48, 4, 19, 34, 39, 
14, 97, 82, -56, -34, 90, -48, -53, 4, 24, 39, 43, 
19, 107, 87, -63, -34, 97, -63, -58, 4, 29, 43, 48, 
24, 117, 92, -70, -34, 104, -68, -63, 4, 29, 48, 53, 
14, 122, 107, -68, -46, 114, -78, -58, 4, 34, 63, 58, 
29, 126, 97, -78, -34, 112, -87, -63, 9, 39, 63, 58, 
34, 131, 97, -82, -31, 114, -92, -63, 14, 43, 68, 63, 
34, 136, 102, -85, -34, 119, -102, -63, 14, 48, 73, 68, 
39, 146, 107, -92, -34, 126, -107, -73, 4, 48, 78, 82, 
43, 156, 112, -100, -34, 134, -112, -73, 4, 48, 82, 87, 
48, 165, 117, -107, -34, 141, -112, -82, 4, 48, 82, 92, 
53, 170, 117, -112, -31, 143, -122, -82, 0, 48, 82, 92, 
68, 175, 107, -122, -19, 141, -126, -82, -9, 48, 82, 92, 
68, 175, 107, -122, -19, 141, -131, -82, -9, 48, 82, 92, 
68, 175, 107, -122, -19, 141, -136, -82, -14, 43, 82, 97, 
73, 175, 102, -124, -14, 139, -136, -82, -19, 43, 78, 97, 
82, 185, 102, -134, -9, 143, -141, -78, -14, 43, 78, 97, 
82, 185, 102, -134, -9, 143, -146, -82, -19, 34, 78, 97, 
87, 185, 97, -136, -4, 141, -146, -82, -24, 34, 78, 102, 
87, 185, 97, -136, -4, 141, -141, -82, -29, 29, 78, 102, 
87, 195, 107, -141, -9, 151, -141, -82, -29, 24, 73, 97, 
87, 195, 107, -141, -9, 151, -141, -82, -39, 24, 73, 97, 
87, 190, 102, -139, -7, 146, -141, -82, -43, 19, 73, 97, 
82, 185, 102, -134, -9, 143, -141, -82, -43, 19, 73, 97, 
78, 190, 112, -134, -17, 151, -122, -87, -48, 29, 73, 102, 
73, 185, 112, -129, -19, 148, -122, -87, -53, 19, 73, 97, 
68, 175, 107, -122, -19, 141, -117, -87, -58, 14, 68, 92, 
53, 161, 107, -107, -26, 134, -112, -82, -63, 14, 63, 87, 
43, 151, 107, -97, -31, 129, -92, -82, -63, 9, 58, 82, 
29, 131, 102, -80, -36, 117, -87, -82, -68, 4, 53, 78, 
19, 122, 102, -70, -41, 112, -82, -78, -73, -9, 48, 68, 
9, 97, 87, -53, -39, 92, -68, -78, -78, -9, 39, 58, 
-4, 73, 78, -34, -41, 75, -68, -82, -87, -24, 29, 43, 
-9, 58, 68, -24, -39, 63, -68, -82, -92, -29, 19, 39, 
-19, 43, 63, -12, -41, 53, -63, -82, -97, -29, 14, 29, 
-24, 29, 53, -2, -39, 41, -53, -82, -102, -39, 4, 24, 
-24, 4, 29, 9, -26, 17, -48, -73, -107, -53, -9, 14, 
-29, -9, 19, 19, -24, 4, -43, -68, -117, -58, -19, 4, 
-34, -24, 9, 29, -21, -7, -39, -68, -122, -63, -29, -4, 
-34, -34, 0, 34, -17, -17, -34, -63, -126, -68, -39, -4, 
-29, -39, -9, 34, -9, -24, -39, -63, -126, -73, -43, -9, 
-29, -48, -19, 39, -4, -34, -34, -63, -126, -78, -48, -14, 
-29, -53, -24, 41, -2, -39, -29, -58, -126, -78, -48, -19, 
-29, -53, -24, 41, -2, -39, -29, -58, -131, -78, -48, -19, 
-29, -48, -19, 39, -4, -34, -29, -58, -131, -87, -58, -19, 
-29, -53, -24, 41, -2, -39, -24, -53, -131, -87, -58, -24, 
-29, -58, -29, 43, 0, -43, -24, -53, -136, -87, -58, -24, 
-29, -58, -29, 43, 0, -43, -19, -53, -136, -87, -58, -24, 
-29, -58, -29, 43, 0, -43, -29, -48, -136, -97, -58, -24, 
-29, -68, -39, 48, 4, -53, -29, -48, -136, -97, -58, -24, 
-29, -68, -39, 48, 4, -53, -29, -48, -136, -97, -58, -24, 
-29, -68, -39, 48, 4, -53, -29, -48, -136, -97, -63, -24, 
-34, -68, -34, 51, 0, -51, -19, -48, -136, -97, -63, -29, 
-34, -68, -34, 51, 0, -51, -19, -48, -136, -102, -63, -29, 
-34, -68, -34, 51, 0, -51, -19, -48, -136, -102, -63, -29, 
-34, -73, -39, 53, 2, -56, -19, -48, -136, -102, -63, -29, 
-24, -73, -48, 48, 12, -61, -14, -48, -136, -102, -63, -29, 
-24, -73, -48, 48, 12, -61, -14, -48, -136, -102, -63, -29, 
-24, -73, -48, 48, 12, -61, -14, -48, -136, -102, -63, -29, 
-24, -73, -48, 48, 12, -61, -14, -48, -136, -102, -63, -29, 
-14, -73, -58, 43, 21, -65, -24, -48, -131, -102, -63, -29, 
-14, -73, -58, 43, 21, -65, -24, -48, -131, -102, -63, -29, 
-14, -73, -58, 43, 21, -65, -24, -43, -131, -102, -63, -34, 
-14, -73, -58, 43, 21, -65, -24, -43, -131, -102, -63, -34, 
-19, -73, -53, 46, 17, -63, -34, -43, -131, -92, -53, -34, 
-19, -73, -53, 46, 17, -63, -34, -43, -131, -92, -53, -34, 
-14, -73, -58, 43, 21, -65, -34, -43, -131, -92, -58, -34, 
-14, -73, -58, 43, 21, -65, -34, -43, -131, -97, -58, -34, 
-19, -73, -53, 46, 17, -63, -29, -39, -131, -87, -63, -34, 
-19, -73, -53, 46, 17, -63, -29, -39, -141, -102, -63, -43, 
-19, -92, -73, 56, 26, -82, -19, -39, -146, -107, -73, -48, 
-34, -107, -73, 70, 19, -90, -9, -29, -141, -126, -92, -63, 
-48, -146, -97, 97, 24, -122, 24, -19, -156, -141, -112, -78, 
-68, -175, -107, 122, 19, -141, 43, -4, -156, -161, -136, -102, 
-73, -209, -136, 141, 31, -173, 63, 4, -161, -175, -151, -117, 
-82, -248, -165, 165, 41, -207, 92, 4, -180, -190, -170, -146, 
-82, -278, -195, 180, 56, -236, 112, 14, -195, -214, -190, -165, 
-92, -292, -200, 192, 53, -246, 122, 14, -200, -234, -209, -170, 
-92, -292, -200, 192, 53, -246, 131, 14, -200, -224, -200, -180, 
-92, -263, -170, 178, 39, -217, 122, 9, -165, -185, -165, -156, 
-78, -195, -117, 136, 19, -156, 92, 9, -122, -122, -117, -112, 
-29, -102, -73, 65, 21, -87, 43, 9, -68, -43, -39, -63, 
29, 34, 4, -31, 12, 19, -34, -14, -24, 58, 68, 24, 
107, 195, 87, -151, 9, 141, -131, -53, 34, 165, 185, 136, 
209, 385, 175, -297, 17, 280, -263, -87, 73, 287, 317, 263, 
331, 570, 239, -451, 46, 405, -409, -107, 82, 385, 444, 370, 
448, 736, 287, -592, 80, 512, -541, -122, 73, 468, 551, 483, 
556, 897, 341, -727, 107, 619, -683, -146, 19, 517, 644, 570, 
673, 1034, 361, -854, 156, 697, -814, -175, -58, 536, 712, 673, 
814, 1200, 385, -1007, 214, 793, -985, -219, -117, 580, 795, 775, 
951, 1420, 468, -1185, 241, 944, -1166, -268, -136, 673, 927, 912, 
1083, 1668, 585, -1376, 248, 1127, -1327, -326, -131, 771, 1073, 1083, 
1185, 1908, 722, -1546, 231, 1315, -1478, -385, -141, 873, 1210, 1229, 
1293, 2137, 844, -1715, 224, 1490, -1625, -453, -161, 961, 1337, 1361, 
1361, 2313, 951, -1837, 204, 1632, -1742, -536, -190, 1015, 1434, 1483, 
1381, 2425, 1044, -1903, 168, 1734, -1834, -644, -263, 1015, 1478, 1561, 
1351, 2493, 1141, -1922, 104, 1817, -1917, -761, -317, 1000, 1503, 1610, 
1283, 2532, 1249, -1908, 17, 1891, -1971, -897, -366, 971, 1512, 1659, 
1156, 2522, 1366, -1839, -104, 1944, -2000, -1058, -419, 912, 1488, 1673, 
985, 2454, 1468, -1720, -241, 1961, -1981, -1205, -497, 814, 1424, 1664, 
795, 2342, 1546, -1568, -375, 1944, -1927, -1327, -585, 683, 1307, 1600, 
629, 2147, 1517, -1388, -444, 1832, -1839, -1395, -702, 463, 1112, 1473, 
448, 1815, 1366, -1132, -458, 1590, -1688, -1385, -922, 126, 800, 1249, 
287, 1478, 1190, -883, -451, 1334, -1503, -1317, -1098, -180, 507, 1010, 
190, 1273, 1083, -732, -446, 1178, -1337, -1224, -1127, -297, 370, 878, 
156, 1146, 990, -651, -417, 1068, -1180, -1088, -1063, -307, 312, 800, 
122, 922, 800, -522, -339, 861, -985, -902, -990, -346, 180, 629, 
63, 649, 585, -356, -261, 617, -761, -712, -888, -370, 73, 463, 
9, 424, 414, -217, -202, 419, -570, -541, -756, -370, -24, 302, 
-9, 239, 248, -114, -129, 244, -424, -395, -639, -361, -112, 161, 
-24, 97, 122, -36, -73, 109, -292, -287, -522, -322, -131, 78, 
-34, 34, 68, 0, -51, 51, -219, -229, -424, -297, -151, 24, 
-53, -34, 19, 43, -36, -7, -141, -180, -341, -268, -161, -29, 
-73, -68, 4, 70, -39, -31, -87, -136, -283, -214, -141, -39, 
-73, -82, -9, 78, -31, -46, -53, -102, -234, -219, -151, -58, 
-82, -131, -48, 107, -17, -90, -14, -68, -180, -185, -151, -82, 
-97, -161, -63, 129, -17, -112, 29, -39, -146, -165, -141, -97, 
-102, -190, -87, 146, -7, -139, 58, -9, -126, -165, -156, -122, 
-102, -214, -112, 158, 4, -163, 68, 4, -102, -131, -136, -126, 
-102, -214, -112, 158, 4, -163, 73, 4, -87, -131, -136, -117, 
-92, -214, -122, 153, 14, -168, 82, 0, -87, -131, -146, -126, 
-92, -219, -126, 156, 17, -173, 102, 9, -78, -126, -141, -126, 
-92, -219, -126, 156, 17, -173, 112, 14, -78, -126, -141, -126, 
-92, -219, -126, 156, 17, -173, 112, 24, -78, -136, -151, -136, 
-92, -244, -151, 168, 29, -197, 126, 39, -78, -136, -151, -151, 
-102, -248, -146, 175, 21, -197, 126, 34, -63, -126, -141, -151, 
-102, -268, -165, 185, 31, -217, 136, 43, -53, -126, -156, -161, 
-102, -278, -175, 190, 36, -226, 136, 43, -48, -117, -141, -161, 
-102, -263, -161, 183, 29, -212, 136, 34, -48, -117, -126, -156, 
-102, -248, -146, 175, 21, -197, 136, 43, -53, -117, -136, -151, 
-97, -244, -146, 170, 24, -195, 136, 43, -53, -117, -136, -141, 
-97, -244, -146, 170, 24, -195, 136, 43, -58, -126, -141, -141, 
-97, -263, -165, 180, 34, -214, 141, 53, -58, -126, -156, -161, 
-122, -278, -156, 200, 17, -217, 151, 58, -48, -126, -156, -165, 
-122, -292, -170, 207, 24, -231, 156, 63, -43, -126, -161, -175, 
-126, -307, -180, 217, 26, -244, 161, 63, -39, -117, -161, -190, 
-126, -297, -170, 212, 21, -234, 161, 58, -39, -112, -146, -175, 
-117, -292, -175, 204, 29, -234, 156, 53, -39, -112, -141, -165, 
-117, -287, -170, 202, 26, -229, 156, 53, -39, -112, -141, -165, 
-107, -278, -170, 192, 31, -224, 156, 58, -39, -117, -141, -156, 
-107, -278, -170, 192, 31, -224, 156, 58, -39, -126, -151, -165, 
-122, -287, -165, 204, 21, -226, 175, 82, -19, -117, -156, -170, 
-131, -302, -170, 217, 19, -236, 180, 87, -14, -117, -156, -175, 
-136, -312, -175, 224, 19, -244, 190, 87, -9, -107, -156, -190, 
-136, -312, -175, 224, 19, -244, 190, 87, 4, -97, -146, -180, 
-122, -302, -180, 212, 29, -241, 180, 82, -4, -107, -146, -170, 
-122, -292, -170, 207, 24, -231, 175, 78, -4, -102, -141, -170, 
-117, -278, -161, 197, 21, -219, 175, 78, -4, -102, -141, -165, 
-117, -278, -161, 197, 21, -219, 175, 82, -4, -107, -161, -165, 
-122, -302, -180, 212, 29, -241, 180, 92, 4, -107, -161, -185, 
-117, -307, -190, 212, 36, -248, 190, 97, 19, -107, -161, -185, 
-117, -322, -204, 219, 43, -263, 195, 102, 24, -107, -161, -190, 
-112, -336, -224, 224, 56, -280, 195, 102, 39, -92, -151, -200, 
-102, -312, -209, 207, 53, -261, 190, 87, 34, -97, -151, -175, 
-87, -302, -214, 195, 63, -258, 185, 87, 29, -97, -146, -170, 
-82, -283, -200, 183, 58, -241, 180, 87, 24, -97, -146, -165, 
-78, -273, -195, 175, 58, -234, 175, 87, 19, -102, -156, -165, 
-78, -287, -209, 183, 65, -248, 185, 112, 34, -92, -146, -175, 
-78, -297, -219, 187, 70, -258, 195, 126, 48, -82, -146, -175, 
-73, -297, -224, 185, 75, -261, 200, 136, 53, -82, -156, -190, 
-73, -307, -234, 190, 80, -270, 204, 136, 68, -73, -146, -190, 
-78, -297, -219, 187, 70, -258, 214, 126, 73, -63, -136, -175, 
-78, -278, -200, 178, 61, -239, 214, 126, 73, -58, -131, -165, 
-82, -273, -190, 178, 53, -231, 214, 122, 73, -58, -126, -165, 
-87, -263, -175, 175, 43, -219, 209, 122, 73, -63, -126, -156, 
-97, -283, -185, 190, 43, -234, 219, 126, 87, -58, -126, -180, 
-92, -292, -200, 192, 53, -246, 229, 146, 97, -53, -131, -190, 
-92, -302, -209, 197, 58, -256, 234, 156, 102, -48, -136, -195, 
-97, -312, -214, 204, 58, -263, 244, 161, 117, -34, -136, -200, 
-102, -307, -204, 204, 51, -256, 244, 156, 126, -29, -122, -190, 
-102, -297, -195, 200, 46, -246, 244, 151, 126, -29, -117, -175, 
-102, -283, -180, 192, 39, -231, 248, 146, 131, -29, -112, -175, 
-102, -263, -161, 183, 29, -212, 248, 141, 131, -29, -112, -175, 
-112, -278, -165, 195, 26, -222, 253, 151, 131, -34, -131, -185, 
-122, -302, -180, 212, 29, -241, 263, 165, 146, -34, -136, -195, 
-122, -322, -200, 222, 39, -261, 278, 180, 161, -29, -141, -204, 
-131, -346, -214, 239, 41, -280, 287, 195, 170, -29, -141, -224, 
-131, -346, -214, 239, 41, -280, 283, 195, 170, -19, -131, -219, 
-131, -336, -204, 234, 36, -270, 283, 190, 180, -14, -122, -204, 
-126, -322, -195, 224, 34, -258, 287, 190, 180, -9, -117, -200, 
-126, -317, -190, 222, 31, -253, 287, 200, 190, -9, -117, -185, 
-122, -322, -200, 222, 39, -261, 302, 214, 204, -9, -126, -190, 
-122, -331, -209, 226, 43, -270, 312, 229, 219, -9, -136, -204, 
-122, -346, -224, 234, 51, -285, 326, 248, 234, 0, -141, -214, 
-131, -361, -229, 246, 48, -295, 336, 253, 244, 4, -146, -229, 
-136, -370, -234, 253, 48, -302, 336, 253, 263, 29, -136, -229, 
-136, -370, -234, 253, 48, -302, 346, 253, 268, 34, -126, -219, 
-136, -356, -219, 246, 41, -287, 351, 253, 278, 34, -126, -219, 
-136, -351, -214, 244, 39, -283, 351, 258, 278, 34, -117, -214, 
-126, -336, -209, 231, 41, -273, 356, 263, 283, 34, -126, -214, 
-126, -336, -209, 231, 41, -273, 370, 273, 297, 34, -136, -229, 
-126, -351, -224, 239, 48, -287, 380, 287, 312, 43, -141, -244, 
-131, -356, -224, 244, 46, -290, 395, 307, 326, 48, -146, -248, 
-136, -366, -229, 251, 46, -297, 395, 312, 346, 63, -141, -253, 
-141, -370, -229, 256, 43, -300, 405, 312, 356, 73, -126, -248, 
-141, -356, -214, 248, 36, -285, 409, 317, 366, 78, -122, -239, 
-136, -341, -204, 239, 34, -273, 414, 326, 375, 82, -112, -229, 
-136, -336, -200, 236, 31, -268, 409, 331, 380, 73, -122, -224, 
-146, -336, -190, 241, 21, -263, 414, 336, 385, 73, -131, -244, 
-146, -356, -209, 251, 31, -283, 429, 351, 400, 73, -136, -258, 
-151, -366, -214, 258, 31, -290, 439, 356, 414, 78, -136, -263, 
-141, -361, -219, 251, 39, -290, 439, 366, 424, 78, -136, -278, 
-141, -370, -229, 256, 43, -300, 444, 366, 434, 87, -131, -278, 
-141, -356, -214, 248, 36, -285, 448, 366, 439, 92, -131, -273, 
-141, -356, -214, 248, 36, -285, 453, 366, 444, 92, -131, -273, 
-141, -351, -209, 246, 34, -280, 453, 375, 444, 82, -141, -268, 
-141, -351, -209, 246, 34, -280, 458, 375, 444, 78, -151, -268, 
-146, -361, -214, 253, 34, -287, 463, 385, 453, 78, -156, -283, 
-156, -370, -214, 263, 29, -292, 468, 390, 463, 78, -156, -287, 
-165, -385, -219, 275, 26, -302, 473, 385, 468, 78, -151, -302, 
-165, -390, -224, 278, 29, -307, 478, 385, 483, 78, -151, -302, 
-165, -390, -224, 278, 29, -307, 478, 385, 483, 78, -151, -287, 
-165, -375, -209, 270, 21, -292, 478, 375, 478, 78, -151, -287, 
-170, -390, -219, 280, 24, -305, 483, 361, 478, 68, -161, -287, 
-175, -390, -214, 283, 19, -302, 478, 361, 468, 53, -165, -278, 
-190, -395, -204, 292, 7, -300, 478, 361, 463, 48, -180, -302, 
-200, -409, -209, 305, 4, -309, 478, 361, 458, 48, -180, -302, 
-219, -424, -204, 322, -7, -314, 483, 351, 453, 43, -195, -302, 
-229, -434, -204, 331, -12, -319, 483, 351, 453, 43, -195, -307, 
-234, -434, -200, 334, -17, -317, 483, 341, 453, 43, -185, -307, 
-239, -419, -180, 329, -29, -300, 473, 326, 444, 39, -185, -297, 
-244, -414, -170, 329, -36, -292, 458, 317, 424, 34, -195, -302, 
-244, -400, -156, 322, -43, -278, 453, 297, 405, 14, -195, -292, 
-244, -395, -151, 319, -46, -273, 444, 292, 390, 0, -209, -292, 
-244, -395, -151, 319, -46, -273, 439, 292, 375, -14, -219, -297, 
-253, -385, -131, 319, -61, -258, 429, 287, 370, -24, -219, -297, 
-244, -390, -146, 317, -48, -268, 424, 283, 356, -29, -219, -307, 
-239, -390, -151, 314, -43, -270, 414, 278, 341, -29, -214, -297, 
-239, -370, -131, 305, -53, -251, 400, 248, 326, -34, -209, -283, 
-239, -346, -107, 292, -65, -226, 385, 239, 302, -29, -204, -273, 
-229, -326, -97, 278, -65, -212, 366, 219, 283, -39, -185, -263, 
-224, -312, -87, 268, -68, -200, 341, 209, 253, -53, -195, -248, 
-214, -312, -97, 263, -58, -204, 326, 195, 239, -63, -190, -248, 
-214, -297, -82, 256, -65, -190, 326, 180, 224, -53, -180, -234, 
-204, -292, -87, 248, -58, -190, 312, 161, 204, -58, -180, -234, 
-204, -287, -82, 246, -61, -185, 292, 146, 195, -58, -165, -229, 
-195, -268, -73, 231, -61, -170, 273, 131, 175, -53, -151, -204, 
-185, -248, -63, 217, -61, -156, 248, 117, 156, -53, -151, -180, 
-175, -229, -53, 202, -61, -141, 224, 107, 136, -58, -141, -165, 
-170, -209, -39, 190, -65, -124, 209, 92, 117, -63, -141, -151, 
-161, -200, -39, 180, -61, -119, 190, 78, 97, -73, -141, -151, 
-151, -200, -48, 175, -51, -124, 170, 78, 87, -73, -122, -146, 
-141, -195, -53, 168, -43, -124, 156, 73, 78, -73, -122, -141, 
-131, -185, -53, 158, -39, -119, 141, 73, 78, -68, -117, -136, 
-126, -170, -43, 148, -41, -107, 126, 68, 68, -58, -97, -117, 
-112, -141, -29, 126, -41, -85, 107, 53, 43, -58, -92, -107, 
-92, -122, -29, 107, -31, -75, 92, 43, 29, -58, -82, -92, 
-78, -102, -24, 90, -26, -63, 78, 34, 14, -63, -78, -82, 
-63, -92, -29, 78, -17, -61, 63, 29, 0, -63, -78, -82, 
-58, -92, -34, 75, -12, -63, 58, 29, 4, -53, -68, -68, 
-53, -92, -39, 73, -7, -65, 53, 29, 0, -53, -58, -68, 
-48, -92, -43, 70, -2, -68, 48, 24, -4, -53, -58, -68, 
-43, -92, -48, 68, 2, -70, 48, 19, -9, -43, -48, -58, 
-34, -73, -39, 53, 2, -56, 29, 14, -24, -43, -34, -43, 
-29, -53, -24, 41, -2, -39, 24, 4, -29, -43, -34, -34, 
-24, -39, -14, 31, -4, -26, 14, 0, -43, -43, -29, -29, 
-19, -29, -9, 24, -4, -19, 4, -4, -53, -48, -29, -29, 
-4, -34, -29, 19, 12, -31, 4, -4, -48, -48, -29, -29, 
-4, -39, -34, 21, 14, -36, 4, 0, -48, -43, -29, -29, 
-4, -48, -43, 26, 19, -46, 0, 0, -48, -43, -29, -29, 
0, -53, -53, 26, 26, -53, -4, 0, -53, -43, -29, -29, 
9, -43, -53, 17, 31, -48, -24, -19, -63, -53, -24, -29, 
14, -39, -53, 12, 34, -46, -29, -24, -63, -53, -24, -24, 
14, -39, -53, 12, 34, -46, -29, -24, -63, -53, -19, -24, 
14, -29, -43, 7, 29, -36, -29, -24, -63, -53, -19, -24, 
4, -29, -34, 12, 19, -31, -19, -24, -53, -43, -24, -19, 
4, -29, -34, 12, 19, -31, -19, -24, -53, -39, -24, -19, 
4, -24, -29, 9, 17, -26, -24, -29, -58, -39, -19, -14, 
4, -24, -29, 9, 17, -26, -24, -29, -63, -39, -19, -14, 
-4, -29, -24, 17, 9, -26, -24, -24, -63, -48, -19, -14, 
-4, -29, -24, 17, 9, -26, -24, -24, -63, -48, -19, -14, 
-4, -29, -24, 17, 9, -26, -24, -29, -63, -48, -19, -14, 
-4, -29, -24, 17, 9, -26, -29, -29, -63, -43, -14, -14, 
-9, -29, -19, 19, 4, -24, -19, -39, -63, -34, -4, -14, 
-14, -29, -14, 21, 0, -21, -24, -39, -63, -34, 0, -9, 
-14, -24, -9, 19, -2, -17, -24, -39, -63, -34, 0, -9, 
-19, -19, 0, 19, -9, -9, -24, -39, -63, -34, 0, -9, 
-29, -19, 9, 24, -19, -4, -14, -39, -63, -34, 9, 0, 
-24, -19, 4, 21, -14, -7, -14, -39, -63, -34, 9, 0, 
-24, -19, 4, 21, -14, -7, -19, -39, -63, -34, 9, 0, 
-24, -19, 4, 21, -14, -7, -19, -39, -63, -29, 9, 0, 
-14, -9, 4, 12, -9, -2, -19, -29, -53, -19, 9, 9, 
-14, -9, 4, 12, -9, -2, -19, -29, -53, -19, 14, 9, 
-14, -4, 9, 9, -12, 2, -19, -34, -53, -19, 14, 14, 
-9, -4, 4, 7, -7, 0, -19, -34, -53, -19, 14, 14, 
-19, -4, 14, 12, -17, 4, -14, -34, -53, -29, 9, 14, 
-19, -4, 14, 12, -17, 4, -14, -34, -53, -29, 9, 14, 
-19, -4, 14, 12, -17, 4, -14, -29, -48, -29, 9, 14, 
-19, -4, 14, 12, -17, 4, -14, -29, -48, -24, 9, 14, 
-19, -9, 9, 14, -14, 0, -14, -29, -48, -24, 9, 14, 
-19, -14, 4, 17, -12, -4, -14, -29, -43, -24, 9, 14, 
-19, -19, 0, 19, -9, -9, -14, -29, -43, -24, 9, 14, 
-14, -24, -9, 19, -2, -17, -14, -29, -43, -24, 9, 14, 
-4, -14, -9, 9, 2, -12, -14, -19, -53, -24, 0, 4, 
-4, -14, -9, 9, 2, -12, -14, -19, -53, -24, 0, 4, 
-9, -19, -9, 14, 0, -14, -14, -19, -53, -24, 0, 4, 
-9, -24, -14, 17, 2, -19, -9, -19, -48, -19, 0, 4, 
-14, -19, -4, 17, -4, -12, -19, -19, -48, -19, 9, 4, 
-9, -9, 0, 9, -4, -4, -19, -19, -48, -19, 9, 4, 
-4, -4, 0, 4, -2, -2, -19, -19, -43, -14, 9, 4, 
0, 0, 0, 0, 0, 0, -19, -24, -43, -14, 9, 4, 
4, 0, -4, -2, 4, -2, -29, -14, -43, -14, 9, 4, 
4, 0, -4, -2, 4, -2, -24, -14, -43, -14, 9, 4, 
4, 0, -4, -2, 4, -2, -24, -14, -43, -19, 4, 0, 
0, -9, -9, 4, 4, -9, -19, -14, -39, -19, 4, 0, 
0, -9, -9, 4, 4, -9, -19, -14, -39, -14, 4, 0, 
-4, -9, -4, 7, 0, -7, -19, -14, -39, -14, 4, 0, 
-4, -9, -4, 7, 0, -7, -19, -14, -34, -14, 4, -4, 
-4, -9, -4, 7, 0, -7, -14, -14, -34, -14, 4, -4, 
-9, -19, -9, 14, 0, -14, -14, -24, -43, -24, -4, -14, 
-9, -19, -9, 14, 0, -14, -14, -24, -43, -24, -4, -14, 
-9, -24, -14, 17, 2, -19, -9, -19, -43, -24, -9, -14, 
-9, -29, -19, 19, 4, -24, -9, -19, -43, -24, -9, -24, 
-19, -43, -24, 31, 2, -34, 0, -19, -43, -29, -14, -24, 
-24, -43, -19, 34, -2, -31, 4, -19, -43, -29, -14, -24, 
-24, -43, -19, 34, -2, -31, 4, -19, -43, -29, -14, -24, 
-29, -43, -14, 36, -7, -29, 0, -19, -43, -29, -14, -24, 
-29, -48, -19, 39, -4, -34, 0, -24, -53, -39, -24, -34, 
-29, -53, -24, 41, -2, -39, 4, -24, -53, -39, -24, -34, 
-29, -58, -29, 43, 0, -43, 4, -24, -53, -39, -29, -34, 
-34, -68, -34, 51, 0, -51, 9, -19, -53, -43, -34, -39, 
-39, -68, -29, 53, -4, -48, 9, -19, -53, -43, -34, -39, 
-43, -68, -24, 56, -9, -46, 9, -19, -53, -43, -34, -43, 
-48, -68, -19, 58, -14, -43, 9, -19, -53, -43, -34, -43, 
-53, -73, -19, 63, -17, -46, 9, -19, -53, -43, -34, -43, 
-53, -73, -19, 63, -17, -46, 19, -19, -48, -43, -34, -34, 
-53, -73, -19, 63, -17, -46, 19, -19, -48, -48, -34, -34, 
-53, -73, -19, 63, -17, -46, 19, -19, -48, -48, -39, -34, 
-53, -78, -24, 65, -14, -51, 19, -19, -48, -48, -39, -34, 
-53, -73, -19, 63, -17, -46, 29, -19, -48, -39, -34, -39, 
-53, -73, -19, 63, -17, -46, 29, -19, -53, -43, -34, -39, 
-53, -73, -19, 63, -17, -46, 29, -19, -53, -43, -34, -39, 
-53, -73, -19, 63, -17, -46, 29, -19, -53, -43, -29, -39, 
-48, -63, -14, 56, -17, -39, 29, -24, -53, -34, -19, -29, 
-48, -63, -14, 56, -17, -39, 24, -24, -58, -34, -24, -34, 
-43, -63, -19, 53, -12, -41, 24, -24, -58, -39, -24, -34, 
-43, -63, -19, 53, -12, -41, 24, -29, -63, -39, -29, -34, 
-53, -63, -9, 58, -21, -36, 24, -19, -53, -39, -29, -34, 
-48, -63, -14, 56, -17, -39, 24, -19, -53, -39, -29, -34, 
-48, -63, -14, 56, -17, -39, 24, -14, -53, -39, -29, -34, 
-43, -63, -19, 53, -12, -41, 24, -14, -53, -39, -29, -34, 
-34, -58, -24, 46, -4, -41, 14, -4, -53, -39, -24, -34, 
-34, -48, -14, 41, -9, -31, 14, -4, -53, -39, -24, -34, 
-34, -43, -9, 39, -12, -26, 14, -4, -53, -34, -24, -29, 
-34, -43, -9, 39, -12, -26, 14, -4, -48, -34, -24, -29, 
-29, -34, -4, 31, -12, -19, 4, 4, -48, -34, -24, -24, 
-24, -24, 0, 24, -12, -12, 4, 4, -48, -34, -19, -24, 
-19, -19, 0, 19, -9, -9, 4, 0, -43, -29, -19, -19, 
-9, -14, -4, 12, -2, -9, 4, 0, -34, -19, -9, -14, 
0, 4, 4, -2, -2, 4, 4, -9, -39, -24, 0, -14, 
4, 9, 4, -7, 0, 7, -4, -19, -39, -24, -4, -9, 
19, 19, 0, -19, 9, 9, -9, -19, -43, -24, -4, -4, 
19, 24, 4, -21, 7, 14, -19, -24, -43, -24, -4, -4, 
19, 19, 0, -19, 9, 9, -19, -19, -39, -19, 0, 0, 
9, 29, 19, -19, -4, 24, -29, -29, -29, -9, 9, 9, 
9, 29, 19, -19, -4, 24, -29, -29, -29, -9, 9, 9, 
9, 29, 19, -19, -4, 24, -29, -29, -29, -9, 9, 9, 
9, 29, 19, -19, -4, 24, -29, -29, -29, -9, 9, 9, 
24, 48, 24, -36, 0, 36, -34, -39, -24, 4, 24, 24, 
24, 63, 39, -43, -7, 51, -34, -39, -19, 9, 24, 24, 
29, 78, 48, -53, -9, 63, -43, -39, -14, 9, 34, 29, 
34, 87, 53, -61, -9, 70, -43, -39, -9, 14, 39, 34, 
39, 102, 63, -70, -12, 82, -43, -39, 4, 29, 53, 48, 
43, 117, 73, -80, -14, 95, -48, -43, 4, 34, 58, 53, 
48, 126, 78, -87, -14, 102, -63, -48, 4, 39, 63, 58, 
53, 136, 82, -95, -14, 109, -68, -53, 4, 39, 68, 63, 
43, 146, 102, -95, -29, 124, -68, -58, 14, 43, 73, 68, 
58, 156, 97, -107, -19, 126, -78, -63, 19, 48, 73, 68, 
63, 165, 102, -114, -19, 134, -82, -63, 24, 53, 78, 73, 
63, 175, 112, -119, -24, 143, -92, -63, 24, 58, 82, 78, 
63, 170, 107, -117, -21, 139, -97, -63, 14, 58, 78, 73, 
63, 175, 112, -119, -24, 143, -102, -63, 14, 58, 82, 78, 
63, 180, 117, -122, -26, 148, -102, -73, 14, 58, 82, 82, 
63, 180, 117, -122, -26, 148, -112, -73, 9, 58, 82, 82, 
63, 175, 112, -119, -24, 143, -107, -82, -9, 48, 82, 82, 
58, 175, 117, -117, -29, 146, -112, -82, -9, 48, 82, 82, 
53, 175, 122, -114, -34, 148, -117, -82, -14, 43, 82, 87, 
53, 175, 122, -114, -34, 148, -117, -82, -19, 43, 78, 87, 
43, 165, 122, -104, -39, 143, -112, -78, -24, 43, 68, 78, 
43, 165, 122, -104, -39, 143, -117, -82, -29, 34, 68, 78, 
48, 165, 117, -107, -34, 141, -117, -82, -34, 34, 68, 82, 
48, 165, 117, -107, -34, 141, -112, -82, -39, 29, 68, 82, 
48, 175, 126, -112, -39, 151, -112, -82, -29, 34, 73, 87, 
48, 175, 126, -112, -39, 151, -112, -82, -39, 34, 73, 87, 
48, 170, 122, -109, -36, 146, -112, -82, -43, 29, 73, 87, 
43, 165, 122, -104, -39, 143, -112, -82, -43, 29, 73, 87, 
43, 170, 126, -107, -41, 148, -102, -82, -39, 29, 73, 92, 
43, 165, 122, -104, -39, 143, -102, -78, -43, 19, 73, 87, 
43, 156, 112, -100, -34, 134, -97, -73, -48, 14, 68, 82, 
34, 141, 107, -87, -36, 124, -92, -63, -53, 14, 63, 78, 
39, 131, 92, -85, -26, 112, -92, -63, -63, 9, 48, 73, 
29, 112, 82, -70, -26, 97, -87, -63, -68, 4, 43, 68, 
24, 102, 78, -63, -26, 90, -82, -58, -73, -9, 39, 58, 
19, 78, 58, -48, -19, 68, -68, -58, -78, -9, 29, 48, 
19, 73, 53, -46, -17, 63, -68, -53, -78, -34, 19, 34, 
19, 58, 39, -39, -9, 48, -68, -53, -82, -39, 9, 29, 
14, 43, 29, -29, -7, 36, -63, -53, -87, -39, 4, 19, 
14, 29, 14, -21, 0, 21, -53, -53, -92, -48, -4, 14, 
14, 14, 0, -14, 7, 7, -58, -53, -97, -53, -24, 4, 
9, 0, -9, -4, 9, -4, -53, -48, -107, -58, -29, -4, 
4, -14, -19, 4, 12, -17, -48, -48, -112, -63, -34, -14, 
4, -24, -29, 9, 17, -26, -43, -43, -117, -68, -39, -14, 
-9, -39, -29, 24, 9, -34, -39, -53, -126, -73, -43, -19, 
-9, -48, -39, 29, 14, -43, -34, -53, -126, -78, -48, -24, 
-9, -53, -43, 31, 17, -48, -29, -48, -126, -78, -48, -29, 
-9, -53, -43, 31, 17, -48, -29, -48, -131, -78, -48, -29, 
-14, -48, -34, 31, 9, -41, -29, -58, -122, -78, -48, -29, 
-19, -53, -34, 36, 7, -43, -24, -53, -122, -78, -48, -34, 
-24, -58, -34, 41, 4, -46, -24, -53, -126, -78, -48, -34, 
-29, -58, -29, 43, 0, -43, -19, -53, -126, -78, -48, -34, 
-39, -58, -19, 48, -9, -39, -19, -48, -136, -78, -58, -34, 
-39, -68, -29, 53, -4, -48, -19, -48, -136, -78, -58, -34, 
-39, -68, -29, 53, -4, -48, -19, -48, -136, -78, -58, -34, 
-39, -68, -29, 53, -4, -48, -19, -48, -136, -78, -63, -34, 
-34, -68, -34, 51, 0, -51, -19, -48, -126, -78, -53, -29, 
-34, -68, -34, 51, 0, -51, -19, -48, -126, -82, -53, -29, 
-34, -68, -34, 51, 0, -51, -19, -48, -126, -82, -53, -29, 
-34, -73, -39, 53, 2, -56, -19, -48, -126, -82, -53, -29, 
-43, -73, -29, 58, -7, -51, -14, -48, -126, -82, -53, -29, 
-43, -73, -29, 58, -7, -51, -14, -48, -126, -82, -53, -29, 
-43, -73, -29, 58, -7, -51, -14, -48, -126, -82, -53, -29, 
-43, -73, -29, 58, -7, -51, -14, -48, -126, -82, -53, -29, 
-53, -82, -29, 68, -12, -56, -4, -58, -131, -82, -53, -29, 
-53, -82, -29, 68, -12, -56, -4, -58, -131, -82, -53, -29, 
-53, -82, -29, 68, -12, -56, -4, -53, -131, -82, -53, -34, 
-53, -82, -29, 68, -12, -56, -4, -53, -131, -82, -53, -34, 
-48, -73, -24, 61, -12, -48, -4, -53, -122, -82, -53, -34, 
-48, -73, -24, 61, -12, -48, -4, -53, -122, -82, -53, -34, 
-43, -73, -29, 58, -7, -51, -4, -53, -122, -82, -58, -34, 
-43, -73, -29, 58, -7, -51, -4, -53, -122, -87, -58, -34, 
-29, -73, -43, 51, 7, -58, -9, -39, -131, -78, -53, -24, 
-19, -73, -53, 46, 17, -63, -19, -39, -131, -82, -53, -34, 
-9, -82, -73, 46, 31, -78, 0, -39, -136, -87, -53, -39, 
-24, -97, -73, 61, 24, -85, 9, -29, -141, -107, -73, -43, 
-29, -126, -97, 78, 34, -112, 24, -19, -146, -122, -92, -68, 
-39, -165, -126, 102, 43, -146, 53, 4, -156, -141, -117, -82, 
-43, -200, -156, 122, 56, -178, 73, 14, -170, -156, -141, -107, 
-63, -239, -175, 151, 56, -207, 92, 24, -180, -180, -161, -136, 
-73, -287, -214, 180, 70, -251, 112, 34, -204, -214, -190, -165, 
-73, -302, -229, 187, 78, -265, 122, 34, -209, -224, -209, -170, 
-82, -302, -219, 192, 68, -261, 122, 34, -200, -214, -200, -180, 
-82, -273, -190, 178, 53, -231, 112, 19, -165, -185, -175, -156, 
-58, -214, -156, 136, 48, -185, 82, 29, -122, -122, -126, -122, 
-9, -131, -122, 70, 56, -126, 34, 29, -78, -53, -58, -73, 
58, -4, -63, -26, 61, -34, -43, 24, -24, 39, 39, 14, 
136, 165, 29, -151, 53, 97, -131, 4, 43, 156, 156, 107, 
248, 346, 97, -297, 75, 222, -263, -19, 82, 278, 287, 224, 
380, 531, 151, -456, 114, 341, -400, -29, 102, 375, 405, 331, 
517, 707, 190, -612, 163, 448, -541, -43, 102, 458, 512, 434, 
644, 858, 214, -751, 214, 536, -683, -58, 48, 497, 595, 522, 
771, 1005, 234, -888, 268, 619, -814, -78, -29, 517, 653, 614, 
932, 1171, 239, -1051, 346, 705, -985, -102, -87, 551, 727, 717, 
1088, 1390, 302, -1239, 392, 846, -1166, -141, -97, 644, 858, 844, 
1229, 1629, 400, -1429, 414, 1015, -1337, -200, -82, 751, 995, 985, 
1351, 1869, 517, -1610, 417, 1193, -1498, -258, -92, 854, 1122, 1132, 
1459, 2088, 629, -1773, 414, 1359, -1634, -326, -102, 932, 1259, 1273, 
1537, 2274, 736, -1905, 400, 1505, -1771, -409, -131, 985, 1346, 1395, 
1556, 2386, 829, -1971, 363, 1607, -1883, -527, -195, 995, 1400, 1473, 
1527, 2474, 946, -2000, 290, 1710, -1976, -663, -258, 990, 1434, 1532, 
1459, 2513, 1054, -1986, 202, 1783, -2049, -810, -307, 971, 1454, 1581, 
1322, 2503, 1180, -1912, 70, 1842, -2078, -990, -361, 922, 1439, 1605, 
1141, 2444, 1302, -1793, -80, 1873, -2069, -1146, -439, 824, 1376, 1605, 
932, 2332, 1400, -1632, -234, 1866, -2025, -1288, -527, 692, 1268, 1551, 
756, 2147, 1390, -1451, -317, 1769, -1947, -1366, -653, 483, 1083, 1434, 
556, 1825, 1268, -1190, -356, 1546, -1786, -1376, -873, 146, 780, 1220, 
375, 1507, 1132, -941, -378, 1320, -1600, -1327, -1058, -151, 497, 1000, 
268, 1302, 1034, -785, -383, 1168, -1434, -1254, -1088, -258, 380, 888, 
224, 1176, 951, -700, -363, 1063, -1278, -1137, -1034, -268, 331, 819, 
170, 961, 790, -566, -309, 875, -1073, -961, -971, -317, 209, 658, 
92, 688, 595, -390, -251, 641, -839, -771, -868, -331, 102, 483, 
19, 473, 453, -246, -217, 463, -629, -610, -736, -341, 4, 331, 
-9, 278, 287, -134, -148, 283, -463, -463, -629, -331, -82, 180, 
-34, 136, 170, -51, -102, 153, -322, -356, -512, -292, -102, 117, 
-63, 82, 146, -9, -104, 114, -229, -287, -414, -268, -112, 63, 
-82, 14, 97, 34, -90, 56, -151, -229, -331, -229, -122, 19, 
-102, -29, 73, 65, -87, 21, -97, -195, -273, -175, -102, 9, 
-112, -43, 68, 78, -90, 12, -43, -151, -234, -180, -122, -19, 
-112, -92, 19, 102, -65, -36, 14, -107, -180, -156, -112, -53, 
-126, -131, -4, 129, -61, -68, 48, -68, -146, -136, -102, -58, 
-131, -161, -29, 146, -51, -95, 78, -39, -117, -136, -126, -82, 
-131, -175, -43, 153, -43, -109, 87, -14, -92, -112, -107, -87, 
-122, -175, -53, 148, -34, -114, 92, -14, -87, -102, -107, -78, 
-112, -175, -63, 143, -24, -119, 102, 0, -78, -112, -117, -87, 
-102, -190, -87, 146, -7, -139, 102, 9, -87, -117, -117, -97, 
-102, -190, -87, 146, -7, -139, 112, 14, -87, -117, -122, -97, 
-102, -190, -87, 146, -7, -139, 112, 24, -87, -126, -136, -107, 
-102, -214, -112, 158, 4, -163, 126, 39, -87, -126, -141, -122, 
-102, -239, -136, 170, 17, -187, 126, 53, -73, -126, -141, -131, 
-102, -258, -156, 180, 26, -207, 136, 63, -63, -126, -156, -141, 
-102, -268, -165, 185, 31, -217, 136, 63, -58, -117, -141, -141, 
-102, -253, -151, 178, 24, -202, 136, 53, -58, -117, -126, -136, 
-92, -239, -146, 165, 26, -192, 136, 53, -63, -117, -136, -131, 
-87, -234, -146, 161, 29, -190, 136, 53, -63, -117, -136, -122, 
-87, -234, -146, 161, 29, -190, 136, 53, -68, -126, -141, -122, 
-87, -253, -165, 170, 39, -209, 141, 63, -68, -126, -156, -141, 
-102, -258, -156, 180, 26, -207, 161, 68, -48, -126, -156, -146, 
-102, -273, -170, 187, 34, -222, 165, 73, -43, -126, -161, -156, 
-107, -287, -180, 197, 36, -234, 170, 73, -39, -117, -161, -170, 
-107, -278, -170, 192, 31, -224, 170, 68, -39, -112, -146, -156, 
-107, -263, -156, 185, 24, -209, 156, 63, -48, -112, -141, -146, 
-107, -258, -151, 183, 21, -204, 156, 63, -48, -112, -141, -146, 
-97, -248, -151, 173, 26, -200, 156, 68, -48, -117, -141, -136, 
-97, -248, -151, 173, 26, -200, 156, 68, -48, -126, -151, -146, 
-112, -268, -156, 190, 21, -212, 175, 82, -29, -117, -156, -161, 
-122, -283, -161, 202, 19, -222, 180, 87, -24, -117, -156, -165, 
-126, -292, -165, 209, 19, -229, 190, 87, -19, -107, -156, -180, 
-126, -292, -165, 209, 19, -229, 190, 87, -4, -97, -146, -170, 
-112, -273, -161, 192, 24, -217, 180, 73, -4, -107, -136, -151, 
-112, -263, -151, 187, 19, -207, 175, 68, -4, -102, -131, -151, 
-107, -248, -141, 178, 17, -195, 175, 68, -4, -102, -131, -146, 
-107, -248, -141, 178, 17, -195, 175, 73, -4, -107, -151, -146, 
-117, -268, -151, 192, 17, -209, 190, 92, 4, -97, -151, -165, 
-117, -278, -161, 197, 21, -219, 200, 97, 19, -97, -151, -165, 
-122, -297, -175, 209, 26, -236, 204, 102, 24, -97, -151, -170, 
-122, -317, -195, 219, 36, -256, 204, 102, 39, -82, -141, -180, 
-126, -297, -170, 212, 21, -234, 204, 87, 29, -78, -131, -156, 
-117, -283, -165, 200, 24, -224, 204, 87, 29, -78, -126, -151, 
-117, -258, -141, 187, 12, -200, 204, 87, 29, -78, -126, -146, 
-117, -244, -126, 180, 4, -185, 204, 87, 29, -82, -136, -146, 
-126, -263, -136, 195, 4, -200, 214, 102, 43, -73, -126, -156, 
-126, -278, -151, 202, 12, -214, 224, 117, 58, -63, -126, -156, 
-122, -283, -161, 202, 19, -222, 229, 126, 63, -63, -136, -170, 
-122, -297, -175, 209, 26, -236, 234, 126, 78, -53, -126, -170, 
-126, -292, -165, 209, 19, -229, 244, 117, 82, -53, -117, -156, 
-126, -268, -141, 197, 7, -204, 244, 117, 82, -48, -112, -146, 
-131, -258, -126, 195, -2, -192, 244, 112, 82, -48, -107, -146, 
-136, -244, -107, 190, -14, -175, 239, 112, 82, -53, -107, -136, 
-136, -258, -122, 197, -7, -190, 248, 126, 97, -43, -117, -161, 
-131, -273, -141, 202, 4, -207, 258, 146, 107, -43, -122, -170, 
-131, -287, -156, 209, 12, -222, 263, 156, 112, -43, -126, -175, 
-136, -302, -165, 219, 14, -234, 273, 161, 126, -34, -126, -180, 
-136, -297, -161, 217, 12, -229, 268, 151, 126, -19, -102, -175, 
-131, -287, -156, 209, 12, -222, 263, 151, 126, -19, -97, -156, 
-126, -273, -146, 200, 9, -209, 263, 151, 131, -19, -92, -151, 
-122, -253, -131, 187, 4, -192, 258, 151, 131, -19, -92, -146, 
-112, -263, -151, 187, 19, -207, 253, 156, 141, -24, -112, -156, 
-122, -283, -161, 202, 19, -222, 263, 175, 156, -24, -117, -165, 
-122, -297, -175, 209, 26, -236, 278, 195, 170, -19, -122, -175, 
-131, -317, -185, 224, 26, -251, 287, 214, 180, -19, -122, -195, 
-117, -312, -195, 214, 39, -253, 292, 224, 190, 0, -117, -190, 
-112, -297, -185, 204, 36, -241, 292, 219, 200, 4, -102, -175, 
-102, -278, -175, 190, 36, -226, 297, 219, 200, 9, -92, -170, 
-97, -268, -170, 183, 36, -219, 297, 229, 209, 9, -87, -156, 
-102, -278, -175, 190, 36, -226, 312, 234, 214, 0, -97, -161, 
-102, -283, -180, 192, 39, -231, 322, 248, 229, 0, -107, -175, 
-102, -292, -190, 197, 43, -241, 336, 268, 244, 9, -112, -185, 
-112, -302, -190, 207, 39, -246, 346, 273, 253, 14, -117, -200, 
-126, -312, -185, 219, 29, -248, 346, 278, 263, 29, -107, -204, 
-126, -312, -185, 219, 29, -248, 356, 273, 268, 34, -97, -190, 
-126, -297, -170, 212, 21, -234, 361, 268, 278, 34, -97, -185, 
-126, -292, -165, 209, 19, -229, 361, 268, 278, 34, -87, -175, 
-131, -302, -170, 217, 19, -236, 366, 273, 283, 24, -92, -180, 
-136, -307, -170, 222, 17, -239, 380, 283, 297, 24, -107, -200, 
-141, -326, -185, 234, 21, -256, 390, 297, 312, 34, -117, -219, 
-151, -336, -185, 244, 17, -261, 405, 317, 326, 39, -126, -229, 
-165, -351, -185, 258, 9, -268, 414, 312, 336, 43, -117, -229, 
-170, -361, -190, 265, 9, -275, 424, 312, 346, 53, -107, -229, 
-170, -351, -180, 261, 4, -265, 429, 317, 356, 58, -107, -224, 
-165, -341, -175, 253, 4, -258, 434, 326, 366, 63, -102, -219, 
-175, -336, -161, 256, -7, -248, 439, 341, 361, 53, -112, -219, 
-185, -336, -151, 261, -17, -244, 444, 346, 366, 53, -122, -234, 
-185, -356, -170, 270, -7, -263, 458, 361, 380, 53, -126, -244, 
-190, -366, -175, 278, -7, -270, 468, 366, 395, 58, -126, -244, 
-190, -361, -170, 275, -9, -265, 488, 375, 424, 68, -117, -248, 
-190, -370, -180, 280, -4, -275, 492, 375, 434, 78, -112, -248, 
-190, -356, -165, 273, -12, -261, 497, 375, 439, 82, -112, -244, 
-190, -356, -165, 273, -12, -261, 502, 375, 444, 82, -112, -244, 
-190, -351, -161, 270, -14, -256, 502, 385, 444, 82, -122, -239, 
-190, -351, -161, 270, -14, -256, 507, 385, 444, 78, -131, -239, 
-195, -361, -165, 278, -14, -263, 512, 395, 453, 78, -136, -253, 
-204, -370, -165, 287, -19, -268, 517, 400, 463, 78, -136, -258, 
-224, -375, -151, 300, -36, -263, 531, 405, 468, 78, -141, -273, 
-224, -380, -156, 302, -34, -268, 536, 405, 483, 78, -141, -273, 
-224, -380, -156, 302, -34, -268, 536, 405, 483, 78, -141, -258, 
-224, -366, -141, 295, -41, -253, 536, 395, 478, 78, -141, -258, 
-234, -366, -131, 300, -51, -248, 541, 390, 478, 78, -131, -258, 
-234, -361, -126, 297, -53, -244, 536, 390, 468, 63, -136, -248, 
-244, -361, -117, 302, -63, -239, 536, 390, 463, 58, -151, -273, 
-248, -370, -122, 309, -63, -246, 536, 390, 458, 58, -151, -273, 
-253, -380, -126, 317, -63, -253, 541, 380, 463, 53, -156, -263, 
-258, -385, -126, 322, -65, -256, 541, 380, 463, 53, -156, -268, 
-258, -380, -122, 319, -68, -251, 541, 370, 463, 53, -146, -268, 
-258, -361, -102, 309, -78, -231, 531, 356, 453, 48, -146, -258, 
-258, -351, -92, 305, -82, -222, 512, 346, 434, 48, -146, -253, 
-253, -331, -78, 292, -87, -204, 502, 326, 414, 34, -146, -244, 
-248, -322, -73, 285, -87, -197, 488, 322, 400, 24, -161, -244, 
-244, -317, -73, 280, -85, -195, 478, 322, 385, 14, -170, -248, 
-248, -322, -73, 285, -87, -197, 453, 307, 370, -4, -180, -258, 
-234, -331, -97, 283, -68, -214, 444, 302, 356, -9, -180, -268, 
-224, -336, -112, 280, -56, -224, 429, 297, 341, -9, -175, -258, 
-219, -322, -102, 270, -58, -212, 409, 268, 326, -14, -170, -244, 
-209, -307, -97, 258, -56, -202, 375, 258, 302, -29, -170, -244, 
-200, -287, -87, 244, -56, -187, 356, 239, 283, -39, -156, -234, 
-195, -273, -78, 234, -58, -175, 331, 229, 253, -53, -170, -219, 
-185, -273, -87, 229, -48, -180, 317, 214, 239, -63, -170, -219, 
-185, -278, -92, 231, -46, -185, 307, 209, 234, -53, -170, -214, 
-175, -273, -97, 224, -39, -185, 292, 190, 214, -58, -170, -214, 
-175, -268, -92, 222, -41, -180, 273, 175, 204, -58, -156, -209, 
-165, -248, -82, 207, -41, -165, 253, 161, 185, -53, -141, -185, 
-165, -209, -43, 187, -61, -126, 229, 136, 175, -43, -122, -161, 
-156, -190, -34, 173, -61, -112, 204, 126, 156, -48, -112, -146, 
-151, -170, -19, 161, -65, -95, 190, 112, 136, -53, -112, -131, 
-141, -161, -19, 151, -61, -90, 170, 97, 117, -63, -112, -131, 
-131, -161, -29, 146, -51, -95, 161, 92, 107, -53, -102, -126, 
-122, -156, -34, 139, -43, -95, 146, 82, 97, -53, -102, -122, 
-112, -146, -34, 129, -39, -90, 131, 78, 97, -48, -97, -117, 
-107, -131, -24, 119, -41, -78, 117, 68, 87, -39, -78, -97, 
-87, -102, -14, 95, -36, -58, 97, 43, 73, -39, -63, -78, 
-73, -82, -9, 78, -31, -46, 82, 34, 58, -39, -53, -63, 
-63, -63, 0, 63, -31, -31, 68, 24, 43, -43, -48, -53, 
-53, -53, 0, 53, -26, -26, 53, 19, 29, -43, -48, -53, 
-58, -58, 0, 58, -29, -29, 53, 19, 34, -43, -48, -58, 
-53, -63, -9, 58, -21, -36, 43, 19, 29, -43, -39, -58, 
-48, -68, -19, 58, -14, -43, 34, 14, 24, -43, -39, -58, 
-43, -73, -29, 58, -7, -51, 29, 9, 19, -34, -29, -48, 
-43, -48, -4, 46, -19, -26, 19, -4, 4, -34, -24, -24, 
-39, -34, 4, 36, -21, -14, 14, -14, 0, -34, -24, -14, 
-34, -24, 9, 29, -21, -7, 4, -19, -14, -34, -19, -9, 
-29, -19, 9, 24, -19, -4, -4, -24, -24, -39, -19, -9, 
-24, -29, -4, 26, -9, -17, 0, -24, -19, -39, -9, -9, 
-24, -29, -4, 26, -9, -17, 4, -19, -19, -34, -9, -9, 
-24, -34, -9, 29, -7, -21, 4, -19, -19, -34, -9, -9, 
-19, -34, -14, 26, -2, -24, 4, -19, -24, -34, -9, -9, 
-9, -24, -14, 17, 2, -19, -4, -29, -24, -34, -4, 0, 
-4, -19, -14, 12, 4, -17, -9, -34, -24, -34, -4, 4, 
-4, -19, -14, 12, 4, -17, -9, -34, -24, -34, 0, 4, 
-4, -9, -4, 7, 0, -7, -9, -34, -24, -34, 0, 4, 
4, 0, -4, -2, 4, -2, -14, -34, -24, -34, 4, 9, 
4, 0, -4, -2, 4, -2, -19, -34, -24, -29, 4, 9, 
4, 4, 0, -4, 2, 2, -29, -39, -29, -29, 9, 14, 
4, 4, 0, -4, 2, 2, -34, -39, -34, -29, 9, 14, 
14, 0, -14, -7, 14, -7, -34, -34, -43, -39, 0, 4, 
14, 0, -14, -7, 14, -7, -34, -34, -43, -39, 0, 4, 
14, 0, -14, -7, 14, -7, -34, -39, -43, -39, 0, 4, 
14, 0, -14, -7, 14, -7, -39, -39, -43, -34, 4, 4, 
14, 9, -4, -12, 9, 2, -39, -29, -43, -34, 4, 4, 
14, 9, -4, -12, 9, 2, -43, -29, -43, -34, 9, 9, 
19, 14, -4, -17, 12, 4, -43, -29, -43, -34, 9, 9, 
19, 19, 0, -19, 9, 9, -43, -29, -43, -34, 9, 9, 
29, 19, -9, -24, 19, 4, -43, -29, -34, -34, 9, 9, 
34, 19, -14, -26, 24, 2, -43, -29, -34, -34, 9, 9, 
34, 19, -14, -26, 24, 2, -48, -29, -34, -34, 9, 9, 
34, 19, -14, -26, 24, 2, -48, -29, -34, -29, 9, 9, 
43, 29, -14, -36, 29, 7, -39, -29, -34, -19, 9, 19, 
43, 29, -14, -36, 29, 7, -39, -29, -34, -19, 14, 19, 
43, 34, -9, -39, 26, 12, -39, -34, -34, -19, 14, 24, 
48, 34, -14, -41, 31, 9, -39, -34, -34, -19, 14, 24, 
39, 24, -14, -31, 26, 4, -34, -34, -34, -29, 19, 24, 
39, 24, -14, -31, 26, 4, -34, -34, -34, -29, 19, 24, 
39, 24, -14, -31, 26, 4, -34, -29, -29, -29, 19, 24, 
39, 24, -14, -31, 26, 4, -34, -29, -29, -24, 19, 24, 
34, 24, -9, -29, 21, 7, -34, -39, -29, -24, 9, 14, 
29, 24, -4, -26, 17, 9, -34, -39, -24, -24, 9, 14, 
24, 24, 0, -24, 12, 12, -34, -39, -24, -24, 9, 14, 
24, 24, 0, -24, 12, 12, -34, -39, -24, -24, 9, 14, 
14, 14, 0, -14, 7, 7, -43, -39, -24, -24, 9, 14, 
14, 14, 0, -14, 7, 7, -43, -39, -24, -24, 9, 14, 
9, 9, 0, -9, 4, 4, -43, -39, -24, -24, 9, 14, 
9, 4, -4, -7, 7, 0, -39, -39, -19, -19, 9, 14, 
0, -4, -4, 2, 2, -4, -39, -39, -19, -19, 9, 14, 
0, 0, 0, 0, 0, 0, -39, -39, -19, -19, 9, 14, 
0, 0, 0, 0, 0, 0, -39, -39, -14, -14, 9, 14, 
0, 0, 0, 0, 0, 0, -39, -43, -14, -14, 9, 14, 
-14, -9, 4, 12, -9, -2, -29, -43, -24, -14, 0, 4, 
-14, -9, 4, 12, -9, -2, -24, -43, -24, -14, 0, 4, 
-14, -9, 4, 12, -9, -2, -24, -43, -24, -19, -4, 0, 
-19, -19, 0, 19, -9, -9, -19, -43, -19, -19, -4, 0, 
-24, -24, 0, 24, -12, -12, -19, -43, -19, -24, -4, 0, 
-34, -29, 4, 31, -19, -12, -19, -43, -19, -24, -4, 0, 
-39, -34, 4, 36, -21, -14, -19, -43, -14, -24, -4, -4, 
-43, -39, 4, 41, -24, -17, -14, -43, -14, -24, -4, -4, 
-39, -29, 9, 34, -24, -9, -4, -53, -14, -24, -4, -4, 
-39, -29, 9, 34, -24, -9, -4, -53, -14, -24, -4, -4, 
-39, -34, 4, 36, -21, -14, 0, -48, -14, -24, -9, -4, 
-39, -39, 0, 39, -19, -19, 0, -48, -14, -24, -9, -14, 
-29, -43, -14, 36, -7, -29, -9, -48, -14, -19, -14, -14, 
-34, -43, -9, 39, -12, -26, -4, -48, -14, -19, -14, -14, 
-34, -43, -9, 39, -12, -26, -4, -48, -14, -19, -14, -14, 
-39, -43, -4, 41, -17, -24, -9, -48, -14, -19, -14, -14, 
-29, -34, -4, 31, -12, -19, 0, -43, -14, -29, -14, -14, 
-29, -34, -4, 31, -12, -19, 4, -43, -14, -29, -14, -14, 
-29, -34, -4, 31, -12, -19, 4, -43, -14, -29, -19, -14, 
-34, -39, -4, 36, -14, -21, 9, -39, -14, -34, -24, -19, 
-24, -39, -14, 31, -4, -26, 0, -29, -14, -24, -14, -9, 
-24, -39, -14, 31, -4, -26, 0, -29, -14, -24, -14, -14, 
-24, -39, -14, 31, -4, -26, 0, -29, -14, -24, -14, -14, 
-24, -43, -19, 34, -2, -31, 0, -29, -14, -24, -14, -14, 
-24, -34, -9, 29, -7, -21, 9, -29, -19, -24, -24, -14, 
-24, -34, -9, 29, -7, -21, 9, -29, -19, -29, -24, -14, 
-24, -34, -9, 29, -7, -21, 9, -29, -19, -29, -29, -14, 
-24, -39, -14, 31, -4, -26, 9, -29, -19, -29, -29, -14, 
-24, -43, -19, 34, -2, -31, 0, -29, -19, -29, -24, -19, 
-24, -43, -19, 34, -2, -31, 0, -29, -24, -34, -24, -19, 
-24, -43, -19, 34, -2, -31, 0, -29, -24, -34, -24, -19, 
-24, -43, -19, 34, -2, -31, 0, -29, -24, -34, -19, -19, 
-29, -43, -14, 36, -7, -29, 9, -34, -24, -34, -19, -19, 
-29, -43, -14, 36, -7, -29, 4, -34, -29, -34, -24, -24, 
-24, -43, -19, 34, -2, -31, 4, -34, -29, -39, -24, -24, 
-24, -43, -19, 34, -2, -31, 4, -39, -34, -39, -29, -24, 
-24, -43, -19, 34, -2, -31, -4, -29, -24, -39, -29, -34, 
-19, -43, -24, 31, 2, -34, -4, -29, -24, -39, -29, -34, 
-19, -43, -24, 31, 2, -34, -4, -24, -24, -39, -29, -34, 
-14, -43, -29, 29, 7, -36, -4, -24, -24, -39, -29, -34, 
-4, -48, -43, 26, 19, -46, -4, -24, -34, -48, -34, -34, 
-4, -39, -34, 21, 14, -36, -4, -24, -34, -48, -34, -34, 
-4, -34, -29, 19, 12, -31, -4, -24, -34, -43, -34, -29, 
-4, -34, -29, 19, 12, -31, -4, -24, -29, -43, -34, -29, 
-4, -39, -34, 21, 14, -36, -4, -24, -39, -43, -43, -34, 
-4, -34, -29, 19, 12, -31, -4, -24, -39, -43, -39, -34, 
-4, -34, -29, 19, 12, -31, -4, -29, -34, -39, -39, -29, 
0, -34, -34, 17, 17, -34, -4, -29, -24, -29, -29, -24, 
-4, -39, -34, 21, 14, -36, -4, -29, -24, -34, -24, -19, 
-4, -39, -34, 21, 14, -36, -4, -29, -29, -34, -24, -19, 
-4, -34, -29, 19, 12, -31, -9, -29, -29, -34, -29, -19, 
-9, -34, -24, 21, 7, -29, -9, -34, -34, -34, -34, -24, 
-19, -34, -14, 26, -2, -24, -14, -34, -29, -39, -19, -24, 
-14, -29, -14, 21, 0, -21, -14, -34, -24, -29, -14, -24, 
-14, -24, -9, 19, -2, -17, -19, -34, -19, -24, -9, -14, 
-14, -19, -4, 17, -4, -12, -29, -39, -19, -19, -4, -9, 
-14, 4, 19, 4, -17, 12, -14, -39, -14, -14, 0, -4, 
-9, 9, 19, 0, -14, 14, -19, -39, -9, 0, 4, 0, 
-9, 19, 29, -4, -19, 24, -19, -39, 0, 0, 9, 9, 
-9, 29, 39, -9, -24, 34, -19, -39, 9, 9, 19, 19, 
-9, 29, 39, -9, -24, 34, -19, -39, 9, 9, 19, 19, 
-9, 29, 39, -9, -24, 34, -19, -39, 9, 9, 19, 19, 
-9, 29, 39, -9, -24, 34, -19, -39, 9, 9, 19, 19, 
-4, 43, 48, -19, -26, 46, -14, -48, 14, 14, 24, 24, 
-4, 53, 58, -24, -31, 56, -14, -48, 19, 19, 24, 24, 
0, 63, 63, -31, -31, 63, -24, -48, 24, 19, 34, 29, 
4, 68, 63, -36, -29, 65, -24, -48, 29, 24, 39, 34, 
9, 63, 53, -36, -21, 58, -34, -39, 34, 29, 34, 39, 
14, 78, 63, -46, -24, 70, -39, -43, 34, 34, 39, 43, 
19, 87, 68, -53, -24, 78, -53, -48, 34, 39, 43, 48, 
24, 97, 73, -61, -24, 85, -58, -53, 34, 39, 48, 53, 
34, 107, 73, -70, -19, 90, -68, -58, 34, 43, 53, 68, 
48, 117, 68, -82, -9, 92, -78, -63, 39, 48, 53, 68, 
53, 126, 73, -90, -9, 100, -82, -63, 43, 53, 58, 73, 
53, 136, 82, -95, -14, 109, -92, -63, 43, 58, 63, 78, 
68, 156, 87, -112, -9, 122, -107, -63, 34, 58, 68, 82, 
73, 165, 92, -119, -9, 129, -112, -63, 34, 58, 73, 87, 
78, 175, 97, -126, -9, 136, -112, -73, 34, 58, 73, 92, 
82, 180, 97, -131, -7, 139, -122, -73, 29, 58, 73, 92, 
97, 185, 87, -141, 4, 136, -126, -73, 29, 58, 73, 92, 
97, 185, 87, -141, 4, 136, -131, -73, 29, 58, 73, 92, 
97, 185, 87, -141, 4, 136, -136, -73, 24, 53, 73, 97, 
102, 185, 82, -143, 9, 134, -136, -73, 19, 53, 68, 97, 
112, 200, 87, -156, 12, 143, -141, -68, 14, 53, 68, 97, 
112, 204, 92, -158, 9, 148, -146, -73, 9, 43, 68, 97, 
117, 209, 92, -163, 12, 151, -146, -73, 4, 43, 68, 102, 
117, 214, 97, -165, 9, 156, -141, -73, 0, 39, 68, 102, 
126, 204, 78, -165, 24, 141, -151, -73, 0, 34, 63, 97, 
126, 204, 78, -165, 24, 141, -151, -73, -9, 34, 63, 97, 
126, 200, 73, -163, 26, 136, -151, -73, -14, 29, 63, 97, 
122, 195, 73, -158, 24, 134, -151, -73, -14, 29, 63, 97, 
107, 180, 73, -143, 17, 126, -141, -78, -19, 29, 53, 92, 
102, 175, 73, -139, 14, 124, -141, -78, -24, 19, 53, 87, 
97, 165, 68, -131, 14, 117, -136, -78, -29, 14, 48, 82, 
82, 151, 68, -117, 7, 109, -131, -73, -34, 14, 43, 78, 
78, 131, 53, -104, 12, 92, -122, -82, -34, 19, 39, 73, 
58, 112, 53, -85, 2, 82, -117, -82, -39, 14, 34, 68, 
43, 102, 58, -73, -7, 80, -112, -78, -43, 0, 29, 58, 
29, 78, 48, -53, -9, 63, -97, -78, -48, 0, 19, 48, 
19, 63, 43, -41, -12, 53, -78, -73, -58, -14, 9, 43, 
9, 48, 39, -29, -14, 43, -78, -73, -63, -19, 0, 39, 
-4, 34, 39, -14, -21, 36, -73, -73, -68, -19, -4, 29, 
-14, 19, 34, -2, -24, 26, -63, -73, -73, -29, -14, 24, 
-24, 4, 29, 9, -26, 17, -58, -82, -78, -43, -14, 24, 
-29, -9, 19, 19, -24, 4, -53, -78, -87, -48, -19, 14, 
-34, -24, 9, 29, -21, -7, -48, -78, -92, -53, -24, 4, 
-34, -34, 0, 34, -17, -17, -43, -73, -97, -58, -29, 4, 
-39, -39, 0, 39, -19, -19, -39, -73, -97, -63, -34, -9, 
-39, -48, -9, 43, -14, -29, -34, -73, -97, -68, -39, -14, 
-39, -53, -14, 46, -12, -34, -29, -68, -97, -68, -39, -19, 
-39, -53, -14, 46, -12, -34, -29, -68, -102, -68, -39, -19, 
-39, -58, -19, 48, -9, -39, -29, -68, -102, -78, -58, -29, 
-39, -63, -24, 51, -7, -43, -24, -63, -102, -78, -58, -34, 
-39, -68, -29, 53, -4, -48, -24, -63, -107, -78, -58, -34, 
-39, -68, -29, 53, -4, -48, -19, -63, -107, -78, -58, -34, 
-39, -68, -29, 53, -4, -48, -19, -58, -107, -78, -58, -34, 
-39, -78, -39, 58, 0, -58, -19, -58, -107, -78, -58, -34, 
-39, -78, -39, 58, 0, -58, -19, -58, -107, -78, -58, -34, 
-39, -78, -39, 58, 0, -58, -19, -58, -107, -78, -63, -34, 
-34, -87, -53, 61, 9, -70, -14, -48, -107, -78, -63, -39, 
-34, -87, -53, 61, 9, -70, -9, -48, -107, -82, -63, -39, 
-34, -87, -53, 61, 9, -70, -4, -48, -107, -82, -63, -39, 
-34, -92, -58, 63, 12, -75, 0, -48, -107, -82, -63, -39, 
-43, -82, -39, 63, -2, -61, -4, -48, -107, -73, -53, -39, 
-43, -82, -39, 63, -2, -61, -4, -48, -107, -73, -53, -39, 
-43, -82, -39, 63, -2, -61, -4, -48, -107, -73, -53, -39, 
-43, -82, -39, 63, -2, -61, -4, -48, -107, -73, -53, -39, 
-43, -73, -29, 58, -7, -51, 4, -48, -102, -73, -53, -29, 
-43, -73, -29, 58, -7, -51, 4, -48, -102, -73, -53, -29, 
-43, -73, -29, 58, -7, -51, 4, -43, -102, -73, -53, -34, 
-43, -73, -29, 58, -7, -51, 4, -43, -102, -73, -53, -34, 
-29, -63, -34, 46, 2, -48, -4, -43, -102, -73, -63, -34, 
-29, -63, -34, 46, 2, -48, -4, -43, -102, -73, -63, -34, 
-24, -63, -39, 43, 7, -51, -4, -43, -102, -73, -68, -34, 
-24, -63, -39, 43, 7, -51, -4, -43, -102, -78, -68, -34, 
-9, -73, -63, 41, 26, -68, -9, -39, -102, -87, -73, -43, 
0, -73, -73, 36, 36, -73, -9, -39, -112, -82, -73, -43, 
0, -82, -82, 41, 41, -82, -19, -39, -117, -97, -82, -58, 
4, -87, -92, 41, 48, -90, 0, -39, -122, -107, -82, -63, 
-9, -107, -97, 58, 43, -102, 4, -39, -126, -122, -102, -68, 
-19, -146, -126, 82, 53, -136, 24, -24, -136, -131, -117, -92, 
-34, -170, -136, 102, 51, -153, 43, -14, -141, -146, -131, -107, 
-43, -200, -156, 122, 56, -178, 63, 4, -151, -161, -151, -126, 
-53, -239, -185, 146, 65, -212, 82, 4, -165, -175, -170, -156, 
-53, -273, -219, 163, 82, -246, 102, 24, -170, -195, -190, -170, 
-63, -283, -219, 173, 78, -251, 102, 14, -180, -204, -190, -180, 
-63, -273, -209, 168, 73, -241, 102, 9, -175, -195, -195, -175, 
-58, -244, -185, 151, 63, -214, 82, 0, -141, -161, -156, -151, 
-29, -170, -141, 100, 56, -156, 53, 0, -97, -102, -107, -112, 
29, -73, -102, 21, 65, -87, -4, -4, -53, -39, -39, -53, 
107, 58, -48, -82, 78, 4, -82, -14, 4, 58, 58, 19, 
180, 219, 39, -200, 70, 129, -185, -48, 53, 161, 170, 126, 
302, 414, 112, -358, 95, 263, -322, -68, 92, 278, 297, 244, 
439, 590, 151, -514, 143, 370, -463, -82, 102, 370, 424, 356, 
566, 771, 204, -668, 180, 488, -605, -97, 87, 439, 517, 463, 
692, 917, 224, -805, 234, 570, -756, -126, 39, 478, 595, 556, 
834, 1054, 219, -944, 307, 636, -897, -151, -58, 483, 649, 639, 
980, 1205, 224, -1093, 378, 714, -1068, -180, -126, 497, 712, 736, 
1122, 1415, 292, -1268, 414, 854, -1249, -229, -141, 566, 829, 858, 
1254, 1654, 400, -1454, 427, 1027, -1410, -297, -141, 668, 946, 995, 
1361, 1873, 512, -1617, 424, 1193, -1566, -366, -141, 746, 1073, 1137, 
1449, 2078, 629, -1764, 409, 1354, -1703, -439, -161, 829, 1190, 1268, 
1507, 2239, 732, -1873, 387, 1485, -1815, -527, -195, 878, 1283, 1385, 
1517, 2347, 829, -1932, 344, 1588, -1917, -653, -258, 883, 1327, 1454, 
1468, 2396, 927, -1932, 270, 1661, -1991, -780, -326, 854, 1337, 1503, 
1371, 2415, 1044, -1893, 163, 1729, -2039, -932, -370, 834, 1351, 1537, 
1229, 2405, 1176, -1817, 26, 1790, -2059, -1107, -419, 785, 1337, 1556, 
1039, 2332, 1293, -1686, -126, 1812, -2034, -1259, -488, 702, 1278, 1542, 
834, 2205, 1371, -1520, -268, 1788, -1966, -1385, -556, 580, 1171, 1483, 
653, 2010, 1356, -1332, -351, 1683, -1873, -1444, -668, 380, 985, 1356, 
463, 1693, 1229, -1078, -383, 1461, -1717, -1434, -863, 73, 702, 1137, 
278, 1351, 1073, -814, -397, 1212, -1522, -1371, -1039, -219, 409, 917, 
175, 1156, 980, -666, -402, 1068, -1337, -1273, -1063, -317, 292, 790, 
131, 1039, 907, -585, -387, 973, -1180, -1137, -990, -317, 258, 727, 
92, 834, 741, -463, -324, 788, -976, -946, -917, -351, 141, 570, 
29, 580, 551, -305, -261, 566, -756, -746, -805, -351, 43, 409, 
-19, 385, 405, -183, -212, 395, -561, -580, -668, -341, -34, 268, 
-34, 204, 239, -85, -136, 222, -400, -424, -551, -331, -112, 126, 
-43, 73, 117, -14, -80, 95, -278, -307, -453, -287, -131, 53, 
-63, 24, 87, 19, -75, 56, -180, -248, -361, -258, -141, 9, 
-73, -29, 43, 51, -58, 7, -117, -195, -283, -224, -141, -39, 
-82, -53, 29, 68, -56, -12, -73, -161, -234, -180, -112, -39, 
-73, -53, 19, 63, -46, -17, -34, -117, -190, -175, -131, -53, 
-78, -92, -14, 85, -31, -53, 9, -78, -146, -146, -122, -68, 
-82, -122, -39, 102, -21, -80, 48, -39, -126, -146, -117, -82, 
-73, -146, -73, 109, 0, -109, 78, -14, -102, -141, -136, -97, 
-73, -165, -92, 119, 9, -129, 92, 14, -78, -112, -117, -107, 
-63, -165, -102, 114, 19, -134, 102, 19, -68, -112, -117, -97, 
-53, -170, -117, 112, 31, -143, 102, 29, -78, -107, -117, -97, 
-53, -170, -117, 112, 31, -143, 112, 34, -78, -107, -122, -97, 
-53, -170, -117, 112, 31, -143, 112, 43, -78, -117, -136, -107, 
-53, -195, -141, 124, 43, -168, 126, 58, -78, -117, -141, -122, 
-68, -224, -156, 146, 43, -190, 146, 63, -73, -126, -151, -141, 
-73, -248, -175, 161, 51, -212, 156, 73, -63, -126, -165, -151, 
-78, -263, -185, 170, 53, -224, 156, 73, -58, -117, -151, -151, 
-82, -253, -170, 168, 43, -212, 156, 63, -58, -117, -136, -146, 
-92, -239, -146, 165, 26, -192, 146, 53, -43, -107, -136, -141, 
-87, -234, -146, 161, 29, -190, 146, 53, -43, -107, -136, -131, 
-87, -234, -146, 161, 29, -190, 146, 53, -48, -117, -141, -131, 
-87, -253, -165, 170, 39, -209, 151, 63, -48, -117, -156, -151, 
-112, -278, -165, 195, 26, -222, 161, 68, -48, -126, -165, -165, 
-112, -292, -180, 202, 34, -236, 165, 73, -43, -126, -170, -175, 
-117, -307, -190, 212, 36, -248, 170, 73, -39, -117, -170, -190, 
-117, -297, -180, 207, 31, -239, 170, 68, -39, -112, -156, -175, 
-126, -283, -156, 204, 14, -219, 165, 63, -39, -112, -151, -165, 
-126, -278, -151, 202, 12, -214, 165, 63, -39, -112, -151, -165, 
-117, -268, -151, 192, 17, -209, 165, 68, -39, -117, -151, -156, 
-117, -268, -151, 192, 17, -209, 165, 68, -39, -126, -161, -165, 
-122, -278, -156, 200, 17, -217, 185, 73, -39, -117, -165, -170, 
-131, -292, -161, 212, 14, -226, 190, 78, -34, -117, -165, -175, 
-136, -302, -165, 219, 14, -234, 200, 78, -29, -107, -165, -190, 
-136, -302, -165, 219, 14, -234, 200, 78, -14, -97, -156, -180, 
-136, -302, -165, 219, 14, -234, 209, 73, -4, -97, -136, -161, 
-141, -292, -151, 217, 4, -222, 204, 68, -4, -92, -131, -161, 
-141, -278, -136, 209, -2, -207, 204, 68, -4, -92, -131, -156, 
-146, -278, -131, 212, -7, -204, 204, 73, -4, -97, -151, -156, 
-146, -287, -141, 217, -2, -214, 209, 82, -14, -107, -151, -165, 
-146, -287, -141, 217, -2, -214, 219, 87, 0, -107, -151, -165, 
-151, -297, -146, 224, -2, -222, 224, 92, 4, -107, -151, -170, 
-151, -307, -156, 229, 2, -231, 224, 92, 19, -92, -141, -180, 
-146, -292, -146, 219, 0, -219, 214, 97, 29, -82, -122, -156, 
-136, -283, -146, 209, 4, -214, 214, 97, 29, -78, -117, -151, 
-136, -263, -126, 200, -4, -195, 214, 97, 29, -73, -117, -146, 
-136, -253, -117, 195, -9, -185, 214, 97, 29, -73, -126, -146, 
-131, -263, -131, 197, 0, -197, 224, 112, 24, -73, -126, -156, 
-126, -268, -141, 197, 7, -204, 234, 126, 39, -63, -126, -156, 
-117, -263, -146, 190, 14, -204, 239, 136, 43, -63, -136, -170, 
-112, -268, -156, 190, 21, -212, 244, 136, 58, -53, -126, -170, 
-112, -273, -161, 192, 24, -217, 244, 146, 73, -43, -117, -175, 
-107, -258, -151, 183, 21, -204, 244, 146, 73, -39, -112, -165, 
-107, -258, -151, 183, 21, -204, 244, 141, 73, -39, -107, -165, 
-107, -253, -146, 180, 19, -200, 239, 141, 73, -43, -107, -156, 
-117, -263, -146, 190, 14, -204, 239, 136, 73, -53, -126, -170, 
-112, -273, -161, 192, 24, -217, 248, 156, 78, -53, -131, -180, 
-112, -283, -170, 197, 29, -226, 253, 165, 78, -53, -136, -185, 
-117, -292, -175, 204, 29, -234, 263, 170, 87, -43, -136, -190, 
-112, -297, -185, 204, 36, -241, 263, 170, 97, -29, -122, -200, 
-112, -297, -185, 204, 36, -241, 263, 170, 97, -29, -117, -185, 
-112, -292, -180, 202, 34, -236, 268, 170, 102, -29, -112, -185, 
-112, -283, -170, 197, 29, -226, 268, 170, 102, -29, -112, -185, 
-107, -268, -161, 187, 26, -214, 263, 170, 102, -43, -122, -180, 
-112, -283, -170, 197, 29, -226, 273, 185, 117, -43, -126, -185, 
-107, -292, -185, 200, 39, -239, 287, 200, 131, -39, -131, -190, 
-112, -307, -195, 209, 41, -251, 297, 214, 141, -39, -131, -204, 
-107, -307, -200, 207, 46, -253, 312, 219, 151, -9, -131, -214, 
-102, -297, -195, 200, 46, -246, 312, 219, 161, -4, -122, -204, 
-92, -283, -190, 187, 48, -236, 317, 224, 161, 0, -117, -204, 
-87, -278, -190, 183, 51, -234, 317, 239, 170, 0, -117, -195, 
-92, -278, -185, 185, 46, -231, 312, 239, 175, 0, -112, -190, 
-92, -283, -190, 187, 48, -236, 322, 248, 190, 0, -117, -195, 
-92, -292, -200, 192, 53, -246, 336, 263, 204, 9, -117, -195, 
-102, -302, -200, 202, 48, -251, 346, 263, 214, 14, -117, -200, 
-122, -326, -204, 224, 41, -265, 356, 273, 234, 29, -126, -219, 
-126, -331, -204, 229, 39, -268, 366, 273, 239, 34, -117, -209, 
-131, -322, -190, 226, 29, -256, 370, 273, 248, 34, -117, -209, 
-136, -322, -185, 229, 24, -253, 370, 278, 248, 34, -107, -204, 
-146, -317, -170, 231, 12, -244, 366, 273, 253, 34, -97, -195, 
-146, -317, -170, 231, 12, -244, 380, 283, 268, 34, -107, -209, 
-146, -331, -185, 239, 19, -258, 390, 297, 283, 43, -112, -224, 
-151, -336, -185, 244, 17, -261, 405, 317, 297, 48, -117, -229, 
-156, -351, -195, 253, 19, -273, 424, 331, 317, 53, -126, -239, 
-161, -361, -200, 261, 19, -280, 434, 331, 326, 63, -117, -239, 
-161, -351, -190, 256, 14, -270, 439, 336, 336, 68, -117, -234, 
-156, -341, -185, 248, 14, -263, 444, 346, 346, 73, -112, -229, 
-146, -326, -180, 236, 17, -253, 448, 351, 351, 73, -102, -219, 
-156, -326, -170, 241, 7, -248, 453, 356, 356, 73, -112, -234, 
-156, -346, -190, 251, 17, -268, 468, 370, 370, 73, -117, -244, 
-161, -356, -195, 258, 17, -275, 478, 375, 385, 78, -117, -244, 
-170, -366, -195, 268, 12, -280, 488, 385, 405, 78, -126, -258, 
-180, -380, -200, 280, 9, -290, 492, 385, 414, 87, -122, -258, 
-190, -370, -180, 280, -4, -275, 497, 385, 419, 92, -122, -253, 
-200, -375, -175, 287, -12, -275, 502, 385, 424, 92, -122, -253, 
-190, -370, -180, 280, -4, -275, 492, 385, 434, 92, -122, -248, 
-190, -370, -180, 280, -4, -275, 497, 385, 434, 87, -131, -248, 
-195, -380, -185, 287, -4, -283, 502, 395, 444, 87, -136, -263, 
-204, -390, -185, 297, -9, -287, 507, 400, 453, 87, -136, -268, 
-204, -385, -180, 295, -12, -283, 502, 409, 448, 87, -141, -283, 
-204, -390, -185, 297, -9, -287, 507, 414, 463, 87, -141, -283, 
-204, -390, -185, 297, -9, -287, 507, 419, 463, 87, -141, -268, 
-204, -375, -170, 290, -17, -273, 507, 414, 458, 87, -141, -268, 
-195, -366, -170, 280, -12, -268, 502, 400, 468, 97, -131, -268, 
-195, -361, -165, 278, -14, -263, 497, 400, 458, 82, -136, -258, 
-204, -361, -156, 283, -24, -258, 497, 400, 453, 78, -151, -283, 
-209, -370, -161, 290, -24, -265, 497, 400, 448, 78, -151, -283, 
-219, -375, -156, 297, -31, -265, 512, 390, 444, 63, -165, -283, 
-229, -385, -156, 307, -36, -270, 512, 390, 444, 63, -165, -287, 
-234, -385, -151, 309, -41, -268, 512, 380, 444, 63, -156, -287, 
-239, -370, -131, 305, -53, -251, 502, 366, 434, 58, -156, -278, 
-234, -356, -122, 295, -56, -239, 507, 356, 434, 68, -146, -263, 
-234, -341, -107, 287, -63, -224, 502, 336, 414, 53, -146, -253, 
-234, -336, -102, 285, -65, -219, 492, 331, 400, 43, -161, -253, 
-234, -336, -102, 285, -65, -219, 488, 331, 385, 34, -170, -258, 
-244, -336, -92, 290, -75, -214, 483, 317, 380, 24, -170, -258, 
-234, -341, -107, 287, -63, -224, 473, 312, 366, 19, -170, -268, 
-229, -341, -112, 285, -58, -226, 458, 307, 351, 19, -165, -258, 
-229, -322, -92, 275, -68, -207, 439, 278, 336, 14, -161, -244, 
-224, -302, -78, 263, -73, -190, 414, 258, 312, 9, -170, -244, 
-219, -287, -68, 253, -75, -178, 395, 239, 292, 0, -156, -234, 
-219, -278, -58, 248, -80, -168, 370, 229, 263, -14, -170, -219, 
-214, -283, -68, 248, -73, -175, 356, 214, 248, -24, -170, -219, 
-224, -283, -58, 253, -82, -170, 336, 209, 234, -34, -180, -219, 
-214, -283, -68, 248, -73, -175, 322, 190, 214, -39, -180, -224, 
-214, -283, -68, 248, -73, -175, 302, 175, 204, -39, -165, -224, 
-204, -268, -63, 236, -70, -165, 283, 161, 185, -34, -151, -204, 
-185, -248, -63, 217, -61, -156, 258, 136, 165, -34, -141, -190, 
-175, -229, -53, 202, -61, -141, 234, 126, 146, -39, -131, -175, 
-170, -209, -39, 190, -65, -124, 219, 112, 126, -43, -131, -161, 
-161, -200, -39, 180, -61, -119, 200, 97, 107, -53, -131, -161, 
-141, -195, -53, 168, -43, -124, 190, 92, 87, -53, -122, -156, 
-131, -185, -53, 158, -39, -119, 175, 82, 78, -53, -122, -151, 
-122, -170, -48, 146, -36, -109, 161, 78, 78, -48, -117, -146, 
-117, -151, -34, 134, -41, -92, 146, 68, 68, -39, -97, -126, 
-92, -122, -29, 107, -31, -75, 126, 63, 53, -39, -73, -107, 
-73, -102, -29, 87, -21, -65, 112, 53, 39, -39, -63, -92, 
-58, -82, -24, 70, -17, -53, 97, 43, 24, -43, -58, -82, 
-43, -73, -29, 58, -7, -51, 82, 39, 9, -43, -58, -82, 
-34, -63, -29, 48, -2, -46, 73, 48, -4, -53, -68, -78, 
-24, -63, -39, 43, 7, -51, 63, 48, -9, -53, -58, -78, 
-14, -63, -48, 39, 17, -56, 53, 43, -14, -53, -58, -78, 
-4, -63, -58, 34, 26, -61, 48, 39, -19, -43, -48, -68, 
4, -53, -58, 24, 31, -56, 39, 34, -14, -43, -34, -63, 
9, -43, -53, 17, 31, -48, 34, 24, -19, -43, -34, -53, 
14, -39, -53, 12, 34, -46, 24, 19, -34, -43, -29, -48, 
19, -39, -58, 9, 39, -48, 14, 14, -43, -48, -29, -48, 
9, -48, -58, 19, 34, -53, 14, 4, -53, -58, -29, -39, 
4, -48, -53, 21, 29, -51, 14, 9, -58, -53, -29, -39, 
0, -53, -53, 26, 26, -53, 9, 9, -63, -53, -29, -39, 
0, -53, -53, 26, 26, -53, 4, 9, -73, -53, -29, -39, 
-4, -63, -58, 34, 26, -61, -4, -9, -73, -53, -24, -29, 
-4, -58, -53, 31, 24, -56, -9, -14, -73, -53, -24, -24, 
-9, -58, -48, 34, 19, -53, -9, -14, -73, -53, -19, -24, 
-14, -48, -34, 31, 9, -41, -9, -14, -73, -53, -19, -24, 
