I,II,III,aVR,aVL,aVF,V1,V2,V3,V4,V5,V6,
-204,-19,185,112,-195,82,273,253,-39,-263,-380,-292
-204,-19,185,112,-195,82,273,253,-39,-263,-380,-292
-204,-19,185,112,-195,82,273,253,-39,-263,-380,-292
-204,-19,185,112,-195,82,273,253,-39,-263,-380,-292
-219,-9,209,114,-214,100,283,248,-43,-278,-400,-302
-224,-9,214,117,-219,102,283,244,-48,-292,-409,-312
-229,-9,219,119,-224,104,283,239,-53,-307,-419,-322
-234,-9,224,122,-229,107,283,234,-58,-322,-429,-331
-248,-14,234,131,-241,109,292,229,-73,-341,-444,-341
-253,-19,234,136,-244,107,292,224,-78,-351,-458,-351
-258,-24,234,141,-246,104,292,219,-82,-361,-473,-361
-263,-29,234,146,-248,102,292,214,-87,-370,-488,-370
-278,-19,258,148,-268,119,292,209,-102,-395,-507,-390
-283,-19,263,151,-273,122,292,204,-107,-409,-527,-400
-287,-19,268,153,-278,124,292,200,-112,-424,-546,-409
-292,-19,273,156,-283,126,292,195,-117,-439,-566,-419
-307,-24,283,165,-295,129,292,185,-126,-463,-580,-429
-312,-29,283,170,-297,126,292,175,-136,-478,-595,-439
-317,-34,283,175,-300,124,292,165,-146,-492,-610,-448
-322,-39,283,180,-302,122,292,156,-156,-507,-624,-458
-336,-43,292,190,-314,124,283,141,-165,-531,-649,-478
-341,-48,292,195,-317,122,283,136,-175,-546,-663,-488
-346,-53,292,200,-319,119,283,131,-185,-561,-678,-497
-351,-58,292,204,-322,117,283,126,-195,-575,-692,-507
-361,-63,297,212,-329,117,273,107,-214,-600,-707,-517
-361,-68,292,214,-326,112,273,97,-224,-614,-722,-527
-361,-73,287,217,-324,107,273,87,-234,-629,-736,-536
-361,-78,283,219,-322,102,273,78,-244,-644,-751,-546
-361,-92,268,226,-314,87,263,63,-253,-658,-766,-556
-361,-97,263,229,-312,82,263,58,-263,-673,-780,-566
-361,-102,258,231,-309,78,263,53,-273,-688,-795,-575
-361,-107,253,234,-307,73,263,48,-283,-702,-810,-585
-351,-117,234,234,-292,58,258,39,-302,-712,-819,-600
-351,-126,224,239,-287,48,253,29,-312,-722,-829,-605
-351,-136,214,244,-283,39,248,19,-322,-732,-839,-610
-351,-146,204,248,-278,29,244,9,-331,-741,-849,-614
-346,-161,185,253,-265,12,239,-4,-346,-746,-858,-614
-341,-165,175,253,-258,4,234,-9,-351,-751,-858,-614
-336,-170,165,253,-251,-2,229,-14,-356,-756,-858,-614
-331,-175,156,253,-244,-9,224,-19,-361,-761,-858,-614
-317,-185,131,251,-224,-26,209,-34,-370,-756,-844,-605
-312,-185,126,248,-219,-29,204,-39,-370,-751,-839,-605
-307,-185,122,246,-214,-31,200,-43,-370,-746,-834,-605
-302,-185,117,244,-209,-34,195,-48,-370,-741,-829,-605
-292,-185,107,239,-200,-39,180,-58,-366,-727,-810,-590
-283,-185,97,234,-190,-43,175,-58,-361,-722,-800,-585
-273,-185,87,229,-180,-48,170,-58,-356,-717,-790,-580
-263,-185,78,224,-170,-53,165,-58,-351,-712,-780,-575
-244,-185,58,214,-151,-63,156,-58,-346,-692,-761,-561
-234,-185,48,209,-141,-68,146,-58,-341,-673,-741,-546
-224,-185,39,204,-131,-73,136,-58,-336,-653,-722,-531
-214,-185,29,200,-122,-78,126,-58,-331,-634,-702,-517
-204,-180,24,192,-114,-78,122,-48,-312,-614,-673,-492
-195,-175,19,185,-107,-78,117,-48,-302,-595,-653,-478
-185,-170,14,178,-100,-78,112,-48,-292,-575,-634,-463
-175,-165,9,170,-92,-78,107,-48,-283,-556,-614,-448
-165,-151,14,158,-90,-68,102,-48,-273,-522,-580,-424
-156,-146,9,151,-82,-68,97,-48,-263,-497,-556,-409
-146,-141,4,143,-75,-68,92,-48,-253,-473,-531,-395
-136,-136,0,136,-68,-68,87,-48,-244,-448,-507,-380
-122,-131,-9,126,-56,-70,73,-39,-224,-424,-478,-351
-117,-126,-9,122,-53,-68,68,-39,-214,-400,-448,-331
-112,-122,-9,117,-51,-65,63,-39,-204,-375,-419,-312
-107,-117,-9,112,-48,-63,58,-39,-195,-351,-390,-292
-92,-102,-9,97,-41,-56,53,-39,-180,-326,-361,-263
-87,-97,-9,92,-39,-53,48,-39,-165,-302,-331,-244
-82,-92,-9,87,-36,-51,43,-39,-151,-278,-302,-224
-78,-87,-9,82,-34,-48,39,-39,-136,-253,-273,-204
-63,-82,-19,73,-21,-51,34,-39,-126,-224,-244,-190
-58,-78,-19,68,-19,-48,29,-39,-117,-204,-224,-175
-53,-73,-19,63,-17,-46,24,-39,-107,-185,-204,-161
-48,-68,-19,58,-14,-43,19,-39,-97,-165,-185,-146
-43,-53,-9,48,-17,-31,14,-39,-87,-141,-165,-131
-39,-48,-9,43,-14,-29,9,-39,-78,-126,-146,-117
-34,-43,-9,39,-12,-26,4,-39,-68,-112,-126,-102
-29,-39,-9,34,-9,-24,0,-39,-58,-97,-107,-87
-24,-29,-4,26,-9,-17,-9,-39,-43,-82,-92,-78
-19,-29,-9,24,-4,-19,-9,-39,-39,-68,-78,-68
-14,-29,-14,21,0,-21,-9,-39,-34,-53,-63,-58
-9,-29,-19,19,4,-24,-9,-39,-29,-39,-48,-48
-9,-24,-14,17,2,-19,-19,-29,-19,-24,-39,-34
-9,-19,-9,14,0,-14,-19,-29,-19,-19,-29,-29
-9,-14,-4,12,-2,-9,-19,-29,-19,-14,-19,-24
-9,-9,0,9,-4,-4,-19,-29,-19,-9,-9,-19
0,-9,-9,4,4,-9,-19,-29,-9,0,0,-4
0,-9,-9,4,4,-9,-19,-29,-9,9,9,0
0,-9,-9,4,4,-9,-19,-29,-9,19,19,4
0,-9,-9,4,4,-9,-19,-29,-9,29,29,9
9,0,-9,-4,9,-4,-19,-29,0,39,34,19
9,0,-9,-4,9,-4,-19,-29,0,39,39,19
9,0,-9,-4,9,-4,-19,-29,0,39,43,19
9,0,-9,-4,9,-4,-19,-29,0,39,48,19
9,-9,-19,0,14,-14,-19,-19,0,43,58,29
9,-9,-19,0,14,-14,-19,-19,0,48,58,29
9,-9,-19,0,14,-14,-19,-19,0,53,58,29
9,-9,-19,0,14,-14,-19,-19,0,58,58,29
9,0,-9,-4,9,-4,-29,-9,0,48,48,29
9,0,-9,-4,9,-4,-29,-9,0,48,48,29
9,0,-9,-4,9,-4,-29,-9,0,48,48,29
9,0,-9,-4,9,-4,-29,-9,0,48,48,29
9,-9,-19,0,14,-14,-19,0,9,58,58,29
9,-9,-19,0,14,-14,-19,0,9,58,58,29
9,-9,-19,0,14,-14,-19,0,9,58,58,29
9,-9,-19,0,14,-14,-19,0,9,58,58,29
9,-9,-19,0,14,-14,-19,-9,9,58,58,29
9,-9,-19,0,14,-14,-19,-9,9,58,58,29
9,-9,-19,0,14,-14,-19,-9,9,58,58,29
9,-9,-19,0,14,-14,-19,-9,9,58,58,29
0,-9,-9,4,4,-9,-9,0,19,58,58,29
0,-9,-9,4,4,-9,-9,0,19,58,58,29
0,-9,-9,4,4,-9,-9,0,19,58,58,29
0,-9,-9,4,4,-9,-9,0,19,58,58,29
-9,-9,0,9,-4,-4,-9,0,9,58,48,24
-9,-9,0,9,-4,-4,-9,0,9,58,48,19
-9,-9,0,9,-4,-4,-9,0,9,58,48,14
-9,-9,0,9,-4,-4,-9,0,9,58,48,9
-9,-9,0,9,-4,-4,0,0,19,48,39,19
-9,-9,0,9,-4,-4,0,0,19,48,39,19
-9,-9,0,9,-4,-4,0,0,19,48,39,19
-9,-9,0,9,-4,-4,0,0,19,48,39,19
-19,-9,9,14,-14,0,-9,0,9,39,29,9
-19,-9,9,14,-14,0,-9,0,9,39,29,9
-19,-9,9,14,-14,0,-9,0,9,39,29,9
-19,-9,9,14,-14,0,-9,0,9,39,29,9
-19,-19,0,19,-9,-9,0,0,9,39,29,9
-19,-19,0,19,-9,-9,0,0,9,39,29,9
-19,-19,0,19,-9,-9,0,0,9,39,29,9
-19,-19,0,19,-9,-9,0,0,9,39,29,9
-29,-19,9,24,-19,-4,0,0,9,29,19,0
-29,-19,9,24,-19,-4,0,0,9,29,19,0
-29,-19,9,24,-19,-4,0,0,9,29,19,0
-29,-19,9,24,-19,-4,0,0,9,29,19,0
-29,-29,0,29,-14,-14,0,0,9,29,19,0
-29,-29,0,29,-14,-14,0,0,9,29,19,0
-29,-29,0,29,-14,-14,0,0,9,29,19,0
-29,-29,0,29,-14,-14,0,0,9,29,19,0
-29,-29,0,29,-14,-14,0,0,9,29,19,-9
-29,-29,0,29,-14,-14,0,0,9,29,19,-9
-29,-29,0,29,-14,-14,0,0,9,29,19,-9
-29,-29,0,29,-14,-14,0,0,9,29,19,-9
-29,-29,0,29,-14,-14,0,0,9,29,9,-9
-29,-29,0,29,-14,-14,0,0,9,29,9,-9
-29,-29,0,29,-14,-14,0,0,9,29,9,-9
-29,-29,0,29,-14,-14,0,0,9,29,9,-9
-29,-29,0,29,-14,-14,0,0,9,19,9,-9
-29,-29,0,29,-14,-14,0,0,9,19,9,-9
-29,-29,0,29,-14,-14,0,0,9,19,9,-9
-29,-29,0,29,-14,-14,0,0,9,19,9,-9
-29,-29,0,29,-14,-14,0,-9,0,19,0,-9
-29,-29,0,29,-14,-14,0,-9,0,19,0,-9
-29,-29,0,29,-14,-14,0,-9,0,19,0,-9
-29,-29,0,29,-14,-14,0,-9,0,19,0,-9
-29,-29,0,29,-14,-14,-9,-9,0,19,0,-19
-29,-29,0,29,-14,-14,-9,-9,0,19,0,-19
-29,-29,0,29,-14,-14,-9,-9,0,19,0,-19
-29,-29,0,29,-14,-14,-9,-9,0,19,0,-19
-29,-39,-9,34,-9,-24,-9,-19,0,19,0,-19
-29,-39,-9,34,-9,-24,-9,-19,0,19,0,-19
-29,-39,-9,34,-9,-24,-9,-19,0,19,0,-19
-29,-39,-9,34,-9,-24,-9,-19,0,19,0,-19
-39,-29,9,34,-24,-9,-9,-19,0,19,0,-9
-39,-29,9,34,-24,-9,-9,-19,0,19,0,-9
-39,-29,9,34,-24,-9,-9,-19,0,19,0,-9
-39,-29,9,34,-24,-9,-9,-19,0,19,0,-9
-29,-29,0,29,-14,-14,-19,-19,0,19,9,-9
-29,-29,0,29,-14,-14,-19,-19,0,19,9,-9
-29,-29,0,29,-14,-14,-19,-19,0,19,9,-9
-29,-29,0,29,-14,-14,-19,-19,0,19,9,-9
-29,-19,9,24,-19,-4,-19,-19,0,29,9,0
-29,-19,9,24,-19,-4,-19,-19,0,29,9,0
-29,-19,9,24,-19,-4,-19,-19,0,29,9,0
-29,-19,9,24,-19,-4,-19,-19,0,29,9,0
-29,-19,9,24,-19,-4,-19,-19,0,29,9,-9
-29,-19,9,24,-19,-4,-19,-19,0,29,9,-9
-29,-19,9,24,-19,-4,-19,-19,0,29,9,-9
-29,-19,9,24,-19,-4,-19,-19,0,29,9,-9
-29,-29,0,29,-14,-14,-19,-19,0,29,19,0
-29,-29,0,29,-14,-14,-19,-19,0,29,19,0
-29,-29,0,29,-14,-14,-19,-19,0,29,19,0
-29,-29,0,29,-14,-14,-19,-19,0,29,19,0
-29,-19,9,24,-19,-4,-19,-19,0,29,19,0
-29,-19,9,24,-19,-4,-19,-19,0,29,19,0
-29,-19,9,24,-19,-4,-19,-19,0,29,19,0
-29,-19,9,24,-19,-4,-19,-19,0,29,19,0
-19,-19,0,19,-9,-9,-19,-29,0,29,19,0
-19,-19,0,19,-9,-9,-19,-29,0,29,19,0
-19,-19,0,19,-9,-9,-19,-29,0,29,19,0
-19,-19,0,19,-9,-9,-19,-29,0,29,19,0
-19,-19,0,19,-9,-9,-29,-29,-9,19,9,0
-19,-19,0,19,-9,-9,-29,-29,-9,19,9,0
-19,-19,0,19,-9,-9,-29,-29,-9,19,9,0
-19,-19,0,19,-9,-9,-29,-29,-9,19,9,0
-19,-19,0,19,-9,-9,-19,-29,0,29,19,0
-19,-19,0,19,-9,-9,-19,-29,0,29,19,0
-19,-19,0,19,-9,-9,-19,-29,0,29,19,0
-19,-19,0,19,-9,-9,-19,-29,0,29,19,0
-19,-19,0,19,-9,-9,-29,-39,0,29,19,0
-19,-19,0,19,-9,-9,-29,-39,0,29,19,0
-19,-19,0,19,-9,-9,-29,-39,0,29,19,0
-19,-19,0,19,-9,-9,-29,-39,0,29,19,0
-19,-19,0,19,-9,-9,-29,-29,0,39,29,9
-19,-19,0,19,-9,-9,-29,-29,0,39,29,9
-19,-19,0,19,-9,-9,-29,-29,0,39,29,9
-19,-19,0,19,-9,-9,-29,-29,0,39,29,9
-19,-9,9,14,-14,0,-29,-39,-9,29,19,0
-19,-9,9,14,-14,0,-29,-39,-9,29,19,0
-19,-9,9,14,-14,0,-29,-39,-9,29,19,0
-19,-9,9,14,-14,0,-29,-39,-9,29,19,0
-19,-19,0,19,-9,-9,-39,-29,0,39,24,9
-19,-19,0,19,-9,-9,-39,-29,0,39,29,9
-19,-19,0,19,-9,-9,-39,-29,0,39,34,9
-19,-19,0,19,-9,-9,-39,-29,0,39,39,9
-19,-9,9,14,-14,0,-39,-39,0,29,29,0
-19,-9,9,14,-14,0,-39,-39,0,29,29,0
-19,-9,9,14,-14,0,-39,-39,0,29,29,0
-19,-9,9,14,-14,0,-39,-39,0,29,29,0
-9,-19,-9,14,0,-14,-39,-39,-9,29,29,0
-9,-19,-9,14,0,-14,-39,-39,-9,29,29,0
-9,-19,-9,14,0,-14,-39,-39,-9,29,29,0
-9,-19,-9,14,0,-14,-39,-39,-9,29,29,0
-19,-9,9,14,-14,0,-39,-39,0,29,29,0
-19,-9,9,14,-14,0,-39,-39,0,29,29,0
-19,-9,9,14,-14,0,-39,-39,0,29,29,0
-19,-9,9,14,-14,0,-39,-39,0,29,29,0
-9,-9,0,9,-4,-4,-39,-29,0,39,39,9
-9,-9,0,9,-4,-4,-39,-29,0,39,39,9
-9,-9,0,9,-4,-4,-39,-29,0,39,39,9
-9,-9,0,9,-4,-4,-39,-29,0,39,39,9
-19,-9,9,14,-14,0,-39,-39,0,39,39,19
-19,-9,9,14,-14,0,-39,-39,0,39,39,19
-19,-9,9,14,-14,0,-39,-39,0,39,39,19
-19,-9,9,14,-14,0,-39,-39,0,39,39,19
-19,-19,0,19,-9,-9,-39,-39,0,39,39,9
-19,-19,0,19,-9,-9,-39,-39,0,39,39,9
-19,-19,0,19,-9,-9,-39,-39,0,39,39,9
-19,-19,0,19,-9,-9,-39,-39,0,39,39,9
-19,-9,9,14,-14,0,-39,-39,0,39,39,9
-19,-9,9,14,-14,0,-39,-39,0,39,39,9
-19,-9,9,14,-14,0,-39,-39,0,39,39,9
-19,-9,9,14,-14,0,-39,-39,0,39,39,9
-19,-9,9,14,-14,0,-29,-39,0,48,39,19
-19,-9,9,14,-14,0,-29,-39,0,48,39,19
-19,-9,9,14,-14,0,-29,-39,0,48,39,19
-19,-9,9,14,-14,0,-29,-39,0,48,39,19
-9,-19,-9,14,0,-14,-29,-39,0,39,39,19
-9,-19,-9,14,0,-14,-29,-39,0,39,39,19
-9,-19,-9,14,0,-14,-29,-39,0,39,39,19
-9,-19,-9,14,0,-14,-29,-39,0,39,39,19
-19,-19,0,19,-9,-9,-29,-39,0,48,39,19
-19,-19,0,19,-9,-9,-29,-39,0,48,39,19
-19,-19,0,19,-9,-9,-29,-39,0,48,39,19
-19,-19,0,19,-9,-9,-29,-39,0,48,39,19
-19,-19,0,19,-9,-9,-39,-39,0,39,39,9
-19,-19,0,19,-9,-9,-39,-39,0,39,39,9
-19,-19,0,19,-9,-9,-39,-39,0,39,39,9
-19,-19,0,19,-9,-9,-39,-39,0,39,39,9
-19,-19,0,19,-9,-9,-39,-39,0,39,39,19
-19,-19,0,19,-9,-9,-39,-39,0,39,39,19
-19,-19,0,19,-9,-9,-39,-39,0,39,39,19
-19,-19,0,19,-9,-9,-39,-39,0,39,39,19
-19,-19,0,19,-9,-9,-39,-39,0,39,39,9
-19,-19,0,19,-9,-9,-39,-39,0,39,39,9
-19,-19,0,19,-9,-9,-39,-39,0,39,39,9
-19,-19,0,19,-9,-9,-39,-39,0,39,39,9
-19,-29,-9,24,-4,-19,-29,-39,9,48,39,19
-19,-29,-9,24,-4,-19,-29,-39,9,48,39,19
-19,-29,-9,24,-4,-19,-29,-39,9,48,39,19
-19,-29,-9,24,-4,-19,-29,-39,9,48,39,19
-19,-29,-9,24,-4,-19,-29,-39,9,48,48,19
-19,-29,-9,24,-4,-19,-29,-39,9,48,48,19
-19,-29,-9,24,-4,-19,-29,-39,9,48,48,19
-19,-29,-9,24,-4,-19,-29,-39,9,48,48,19
-19,-29,-9,24,-4,-19,-29,-39,0,48,48,19
-19,-29,-9,24,-4,-19,-29,-39,0,48,48,19
-19,-29,-9,24,-4,-19,-29,-39,0,48,48,19
-19,-29,-9,24,-4,-19,-29,-39,0,48,48,19
-9,-29,-19,19,4,-24,-39,-39,0,48,48,19
-9,-29,-19,19,4,-24,-39,-39,0,48,48,19
-9,-29,-19,19,4,-24,-39,-39,0,48,48,19
-9,-29,-19,19,4,-24,-39,-39,0,48,48,19
-19,-29,-9,24,-4,-19,-39,-39,9,48,48,19
-19,-29,-9,24,-4,-19,-39,-39,9,48,48,19
-19,-29,-9,24,-4,-19,-39,-39,9,48,48,19
-19,-29,-9,24,-4,-19,-39,-39,9,48,48,19
-9,-29,-19,19,4,-24,-39,-39,0,48,48,19
-9,-29,-19,19,4,-24,-39,-39,0,48,48,19
-9,-29,-19,19,4,-24,-39,-39,0,48,48,19
-9,-29,-19,19,4,-24,-39,-39,0,48,48,19
-19,-29,-9,24,-4,-19,-39,-39,0,48,39,9
-19,-29,-9,24,-4,-19,-39,-39,0,48,39,9
-19,-29,-9,24,-4,-19,-39,-39,0,48,39,9
-19,-29,-9,24,-4,-19,-39,-39,0,48,39,9
-19,-29,-9,24,-4,-19,-39,-39,9,48,48,19
-19,-29,-9,24,-4,-19,-39,-39,9,48,48,19
-19,-29,-9,24,-4,-19,-39,-39,9,48,48,19
-19,-29,-9,24,-4,-19,-39,-39,9,48,48,19
-19,-19,0,19,-9,-9,-39,-29,0,48,48,19
-19,-19,0,19,-9,-9,-39,-29,0,48,48,19
-19,-19,0,19,-9,-9,-39,-29,0,48,48,19
-19,-19,0,19,-9,-9,-39,-29,0,48,48,19
-19,-24,-4,21,-7,-14,-29,-29,9,48,48,19
-19,-29,-9,24,-4,-19,-29,-29,9,48,48,19
-19,-34,-14,26,-2,-24,-29,-29,9,48,48,19
-19,-39,-19,29,0,-29,-29,-29,9,48,48,19
-19,-29,-9,24,-4,-19,-39,-39,9,48,39,9
-19,-29,-9,24,-4,-19,-39,-39,9,48,39,9
-19,-29,-9,24,-4,-19,-39,-39,9,48,39,9
-19,-29,-9,24,-4,-19,-39,-39,9,48,39,9
-19,-19,0,19,-9,-9,-39,-39,9,48,48,19
-19,-19,0,19,-9,-9,-39,-39,9,48,48,19
-19,-19,0,19,-9,-9,-39,-39,9,48,48,19
-19,-19,0,19,-9,-9,-39,-39,9,48,48,19
-9,-19,-9,14,0,-14,-39,-39,0,39,48,19
-9,-19,-9,14,0,-14,-39,-39,0,39,48,19
-9,-19,-9,14,0,-14,-39,-39,0,39,48,19
-9,-19,-9,14,0,-14,-39,-39,0,39,48,19
-9,-29,-19,19,4,-24,-39,-29,9,48,58,19
-9,-29,-19,19,4,-24,-39,-29,9,48,58,19
-9,-29,-19,19,4,-24,-39,-29,9,48,58,19
-9,-29,-19,19,4,-24,-39,-29,9,48,58,19
-9,-29,-19,19,4,-24,-29,-29,9,39,48,9
-9,-29,-19,19,4,-24,-29,-29,9,39,48,9
-9,-29,-19,19,4,-24,-29,-29,9,39,48,9
-9,-29,-19,19,4,-24,-29,-29,9,39,48,9
-9,-29,-19,19,4,-24,-29,-29,9,48,58,14
-9,-29,-19,19,4,-24,-29,-29,9,48,58,19
-9,-29,-19,19,4,-24,-29,-29,9,48,58,24
-9,-29,-19,19,4,-24,-29,-29,9,48,58,29
-19,-39,-19,29,0,-29,-29,-29,0,48,48,19
-19,-39,-19,29,0,-29,-29,-29,0,48,48,19
-19,-39,-19,29,0,-29,-29,-29,0,48,48,19
-19,-39,-19,29,0,-29,-29,-29,0,48,48,19
-9,-39,-29,24,9,-34,-29,-29,9,58,58,29
-9,-39,-29,24,9,-34,-29,-29,9,58,58,29
-9,-39,-29,24,9,-34,-29,-29,9,58,58,29
-9,-39,-29,24,9,-34,-29,-29,9,58,58,29
-9,-39,-29,24,9,-34,-39,-29,9,48,48,19
-9,-39,-29,24,9,-34,-39,-29,9,48,48,19
-9,-39,-29,24,9,-34,-39,-29,9,48,48,19
-9,-39,-29,24,9,-34,-39,-29,9,48,48,19
-9,-48,-39,29,14,-43,-29,-19,9,58,58,29
-9,-48,-39,29,14,-43,-29,-19,9,58,58,29
-9,-48,-39,29,14,-43,-29,-19,9,58,58,29
-9,-48,-39,29,14,-43,-29,-19,9,58,58,29
-9,-39,-29,24,9,-34,-39,-29,0,48,48,19
-9,-39,-29,24,9,-34,-39,-29,0,48,48,19
-9,-39,-29,24,9,-34,-39,-29,0,48,48,19
-9,-39,-29,24,9,-34,-39,-29,0,48,48,19
-19,-39,-19,29,0,-29,-29,-29,0,48,48,29
-19,-39,-19,29,0,-29,-29,-29,0,48,48,29
-19,-39,-19,29,0,-29,-29,-29,0,48,48,29
-19,-39,-19,29,0,-29,-29,-29,0,48,48,29
-19,-39,-19,29,0,-29,-29,-29,4,48,58,19
-19,-39,-19,29,0,-29,-29,-29,9,48,58,19
-19,-39,-19,29,0,-29,-29,-29,14,48,58,19
-19,-39,-19,29,0,-29,-29,-29,19,48,58,19
-19,-48,-29,34,4,-39,-29,-29,9,48,48,19
-19,-48,-29,34,4,-39,-29,-29,9,48,48,19
-19,-48,-29,34,4,-39,-29,-29,9,48,48,19
-19,-48,-29,34,4,-39,-29,-29,9,48,48,19
-19,-39,-19,29,0,-29,-39,-29,0,48,58,19
-19,-39,-19,29,0,-29,-39,-29,0,48,58,19
-19,-39,-19,29,0,-29,-39,-29,0,48,58,19
-19,-39,-19,29,0,-29,-39,-29,0,48,58,19
-9,-29,-19,19,4,-24,-29,-19,4,58,68,29
-9,-29,-19,19,4,-24,-29,-19,9,58,68,29
-9,-29,-19,19,4,-24,-29,-19,14,58,68,29
-9,-29,-19,19,4,-24,-29,-19,19,58,68,29
4,-14,-19,4,12,-17,-19,-14,29,63,78,39
9,-9,-19,0,14,-14,-19,-9,29,68,78,39
14,-4,-19,-4,17,-12,-19,-4,29,73,78,39
19,0,-19,-9,19,-9,-19,0,29,78,78,39
29,14,-14,-21,21,0,-14,14,39,82,82,43
29,19,-9,-24,19,4,-9,19,48,87,87,48
29,24,-4,-26,17,9,-4,24,58,92,92,53
29,29,0,-29,14,14,0,29,68,97,97,58
39,43,4,-41,17,24,4,34,73,102,107,63
39,58,19,-48,9,39,14,48,87,112,112,68
39,63,24,-51,7,43,29,58,92,122,112,73
34,53,19,-43,7,36,39,68,97,126,112,78
29,43,14,-36,7,29,43,68,87,112,102,68
24,24,0,-24,12,12,43,68,87,102,92,58
24,24,0,-24,12,12,43,73,82,102,92,58
39,29,-9,-34,24,9,39,73,82,107,92,63
63,53,-9,-58,36,21,14,73,92,131,122,82
82,78,-4,-80,43,36,4,78,112,146,141,97
87,102,14,-95,36,58,-24,78,122,161,156,112
97,102,4,-100,46,53,-63,58,112,161,161,122
97,92,-4,-95,51,43,-87,43,102,146,161,112
107,82,-24,-95,65,29,-102,39,97,146,151,112
112,68,-43,-90,78,12,-87,39,92,141,151,112
112,58,-53,-85,82,2,-73,29,87,131,141,102
107,48,-58,-78,82,-4,-68,34,73,122,126,102
107,48,-58,-78,82,-4,-68,29,68,117,122,92
107,48,-58,-78,82,-4,-63,24,63,112,117,92
97,39,-58,-68,78,-9,-63,9,43,97,107,78
87,24,-63,-56,75,-19,-73,-9,29,78,92,63
87,0,-87,-43,87,-43,-73,-9,14,73,82,53
78,-9,-87,-34,82,-48,-58,0,24,73,82,53
73,0,-73,-36,73,-36,-48,4,34,82,82,53
78,4,-73,-41,75,-34,-48,-4,34,82,92,53
78,14,-63,-46,70,-24,-58,-4,34,87,102,63
73,19,-53,-46,63,-17,-68,-14,34,87,102,63
68,24,-43,-46,56,-9,-73,-24,34,87,102,63
68,24,-43,-46,56,-9,-63,-24,34,87,102,63
68,24,-43,-46,56,-9,-63,-19,34,87,102,63
68,24,-43,-46,56,-9,-58,-9,39,87,102,63
58,14,-43,-36,51,-14,-58,-9,39,82,102,63
43,0,-43,-21,43,-21,-48,-19,19,78,92,53
34,-24,-58,-4,46,-41,-39,-34,9,63,78,39
19,-53,-73,17,46,-63,-39,-34,0,48,63,29
4,-58,-63,26,34,-61,-29,-34,0,48,58,29
-4,-53,-48,29,21,-51,-19,-29,9,53,58,24
-4,-53,-48,29,21,-51,-24,-24,9,53,63,24
-4,-48,-43,26,19,-46,-34,-24,9,53,63,24
0,-43,-43,21,21,-43,-43,-24,4,53,58,19
0,-53,-53,26,26,-53,-39,-24,4,53,58,19
0,-53,-53,26,26,-53,-43,-34,4,48,58,19
0,-53,-53,26,26,-53,-43,-39,0,48,58,19
-4,-53,-48,29,21,-51,-43,-39,0,43,58,19
-4,-48,-43,26,19,-46,-53,-29,4,43,58,19
-4,-48,-43,26,19,-46,-53,-29,4,43,58,19
0,-53,-53,26,26,-53,-58,-29,0,43,53,19
0,-53,-53,26,26,-53,-58,-29,0,43,53,19
-4,-53,-48,29,21,-51,-48,-29,0,43,53,14
-4,-53,-48,29,21,-51,-48,-29,0,43,53,14
-4,-53,-48,29,21,-51,-48,-29,0,43,53,14
-4,-53,-48,29,21,-51,-43,-29,0,43,53,14
-4,-48,-43,26,19,-46,-53,-39,0,34,43,9
-9,-48,-39,29,14,-43,-53,-39,0,34,43,9
-9,-53,-43,31,17,-48,-53,-34,0,34,43,14
-9,-53,-43,31,17,-48,-53,-34,0,34,43,14
-14,-63,-48,39,17,-56,-43,-24,0,43,53,14
-14,-63,-48,39,17,-56,-43,-24,0,43,53,9
-14,-63,-48,39,17,-56,-43,-19,0,43,48,9
-14,-63,-48,39,17,-56,-43,-19,0,43,48,9
-4,-58,-53,31,24,-56,-48,-29,0,43,48,9
-9,-58,-48,34,19,-53,-48,-29,0,43,48,9
-9,-58,-48,34,19,-53,-48,-29,0,43,48,9
-9,-58,-48,34,19,-53,-48,-29,0,43,48,9
-19,-68,-48,43,14,-58,-34,-19,4,53,48,19
-19,-68,-48,43,14,-58,-34,-19,9,53,48,19
-24,-68,-43,46,9,-56,-34,-19,14,53,48,19
-24,-63,-39,43,7,-51,-34,-14,19,48,48,19
-14,-58,-43,36,14,-51,-43,-24,9,48,48,9
-14,-53,-39,34,12,-46,-43,-24,9,48,48,9
-9,-48,-39,29,14,-43,-43,-24,9,48,48,9
-9,-43,-34,26,12,-39,-43,-24,14,53,48,14
-19,-53,-34,36,7,-43,-43,-24,4,53,48,14
-19,-53,-34,36,7,-43,-43,-24,4,53,48,14
-19,-53,-34,36,7,-43,-43,-24,9,53,53,14
-19,-53,-34,36,7,-43,-43,-24,9,53,53,14
-9,-48,-39,29,14,-43,-34,-24,0,53,63,24
-14,-48,-34,31,9,-41,-34,-9,9,43,58,19
-19,-58,-39,39,9,-48,-19,9,19,43,43,9
-29,-68,-39,48,4,-53,0,14,19,34,39,-9
-53,-82,-29,68,-12,-56,34,43,19,19,19,-19
-73,-112,-39,92,-17,-75,87,97,39,19,0,-39
-97,-141,-43,119,-26,-92,146,185,78,39,-24,-63
-107,-170,-63,139,-21,-117,200,253,117,58,-29,-78
-117,-214,-97,165,-9,-156,248,307,131,43,-43,-112
-117,-239,-122,178,2,-180,273,331,136,43,-68,-136
-112,-248,-136,180,12,-192,283,351,156,53,-68,-146
-112,-229,-117,170,2,-173,292,370,200,92,-39,-131
-92,-209,-117,151,12,-163,292,400,244,136,-14,-112
-48,-224,-175,136,63,-200,292,439,278,180,29,-92
9,-209,-219,100,114,-214,302,531,351,268,107,-29
102,-82,-185,-9,143,-134,263,649,483,444,273,107
224,122,-102,-173,163,9,156,673,644,663,517,322
351,361,9,-356,170,185,-19,590,775,883,785,566
488,605,117,-546,185,361,-234,409,873,1107,1054,814
649,868,219,-758,214,544,-473,117,946,1337,1361,1093
805,1185,380,-995,212,783,-780,-248,985,1576,1698,1405
980,1507,527,-1244,226,1017,-1098,-600,1019,1805,2044,1722
1156,1766,610,-1461,273,1188,-1351,-893,1015,1991,2361,2005
1293,1956,663,-1625,314,1310,-1527,-1166,936,2108,2610,2244
1366,2093,727,-1729,319,1410,-1654,-1473,814,2152,2786,2440
1395,2137,741,-1766,326,1439,-1776,-1751,658,2156,2913,2566
1366,2069,702,-1717,331,1385,-1839,-1961,507,2093,2932,2591
1278,2000,722,-1639,278,1361,-1873,-2137,400,2015,2913,2576
1161,2059,897,-1610,131,1478,-1864,-2220,439,2083,3015,2684
1024,2122,1098,-1573,-36,1610,-1722,-2098,566,2191,3103,2771
834,1917,1083,-1376,-124,1500,-1468,-1942,507,2025,2898,2615
600,1478,878,-1039,-139,1178,-1185,-1839,219,1522,2347,2181
380,1024,644,-702,-131,834,-922,-1751,-141,878,1639,1620
209,644,434,-427,-112,539,-692,-1644,-458,297,1005,1112
92,375,283,-234,-95,329,-556,-1537,-658,-82,561,727
19,224,204,-122,-92,214,-488,-1395,-702,-258,283,473
-24,131,156,-53,-90,143,-463,-1205,-644,-312,126,292
-48,48,97,0,-73,73,-448,-1000,-580,-346,-29,126
-68,-24,43,46,-56,9,-375,-756,-478,-356,-165,-58
-63,-39,24,51,-43,-7,-253,-502,-346,-297,-195,-122
-14,-4,9,9,-12,2,-136,-297,-204,-175,-112,-63
24,14,-9,-19,17,2,-63,-136,-92,-68,-53,-29
29,-9,-39,-9,34,-24,-9,-24,-29,-34,-43,-39
24,-34,-58,4,41,-46,24,19,-14,-24,-43,-39
14,-43,-58,14,36,-51,43,34,0,-9,-39,-39
19,-48,-68,14,43,-58,53,58,9,-9,-39,-43
4,-58,-63,26,34,-61,63,68,9,-19,-48,-58
0,-63,-63,31,31,-63,68,78,4,-24,-53,-68
0,-82,-82,41,41,-82,73,87,4,-19,-58,-68
0,-82,-82,41,41,-82,73,92,4,-24,-53,-73
-4,-87,-82,46,39,-85,73,102,4,-34,-58,-78
-9,-87,-78,48,34,-82,78,102,-4,-43,-73,-87
-9,-87,-78,48,34,-82,78,112,0,-43,-73,-92
-9,-87,-78,48,34,-82,78,112,4,-43,-78,-92
-4,-87,-82,46,39,-85,82,126,9,-43,-78,-92
-4,-92,-87,48,41,-90,82,146,19,-29,-78,-92
-9,-92,-82,51,36,-87,82,146,24,-29,-78,-97
-9,-97,-87,53,39,-92,87,151,24,-29,-78,-102
-9,-107,-97,58,43,-102,92,161,24,-29,-78,-102
0,-97,-97,48,48,-97,92,156,24,-34,-78,-102
0,-97,-97,48,48,-97,92,161,29,-34,-78,-102
0,-97,-97,48,48,-97,92,165,29,-29,-78,-102
0,-107,-107,53,53,-107,92,170,34,-24,-78,-102
-9,-107,-97,58,43,-102,97,170,34,-14,-68,-92
-9,-102,-92,56,41,-97,97,170,34,-14,-68,-92
-9,-102,-92,56,41,-97,97,170,34,-14,-68,-97
-9,-102,-92,56,41,-97,97,175,34,-19,-68,-97
-9,-102,-92,56,41,-97,97,185,34,-29,-82,-107
-9,-102,-92,56,41,-97,97,185,39,-29,-82,-107
-9,-102,-92,56,41,-97,102,185,39,-29,-87,-107
-9,-107,-97,58,43,-102,102,190,43,-24,-87,-107
-9,-107,-97,58,43,-102,102,180,43,-24,-87,-107
-9,-107,-97,58,43,-102,102,180,43,-24,-87,-107
-9,-107,-97,58,43,-102,102,185,43,-29,-87,-107
-9,-102,-92,56,41,-97,107,190,43,-29,-87,-112
-4,-102,-97,53,46,-100,107,200,43,-24,-87,-112
-4,-102,-97,53,46,-100,107,200,43,-24,-87,-112
-4,-102,-97,53,46,-100,102,200,43,-29,-87,-112
-4,-102,-97,53,46,-100,102,195,43,-29,-87,-112
-14,-102,-87,58,36,-95,97,195,34,-34,-87,-112
-9,-102,-92,56,41,-97,97,200,34,-34,-92,-112
-9,-102,-92,56,41,-97,97,200,34,-34,-92,-112
-9,-102,-92,56,41,-97,97,204,34,-34,-97,-112
-14,-92,-78,53,31,-85,97,200,43,-34,-97,-112
-14,-92,-78,53,31,-85,102,200,43,-34,-97,-112
-14,-92,-78,53,31,-85,102,195,43,-34,-97,-112
-14,-92,-78,53,31,-85,102,195,43,-34,-97,-112
-14,-102,-87,58,36,-95,112,200,43,-34,-97,-122
-14,-97,-82,56,34,-90,112,204,43,-34,-97,-122
-14,-97,-82,56,34,-90,112,204,43,-39,-97,-122
-14,-97,-82,56,34,-90,112,204,43,-39,-97,-122
-24,-102,-78,63,26,-90,112,204,34,-39,-97,-117
-24,-102,-78,63,26,-90,112,204,34,-39,-102,-122
-24,-102,-78,63,26,-90,112,204,34,-39,-107,-122
-24,-102,-78,63,26,-90,112,204,29,-43,-107,-122
-24,-97,-73,61,24,-85,107,204,29,-43,-117,-122
-29,-97,-68,63,19,-82,107,209,29,-43,-117,-122
-29,-92,-63,61,17,-78,107,209,29,-43,-117,-122
-29,-87,-58,58,14,-73,112,209,29,-43,-122,-126
-19,-87,-68,53,24,-78,102,214,39,-39,-112,-126
-19,-92,-73,56,26,-82,102,214,39,-39,-112,-126
-19,-97,-78,58,29,-87,102,214,39,-39,-112,-126
-19,-102,-82,61,31,-92,102,214,39,-39,-112,-126
-19,-92,-73,56,26,-82,112,214,29,-43,-122,-136
-24,-92,-68,58,21,-80,112,219,29,-43,-122,-136
-24,-92,-68,58,21,-80,117,219,29,-48,-122,-136
-24,-92,-68,58,21,-80,122,219,29,-63,-122,-136
-24,-97,-73,61,24,-85,122,219,24,-63,-122,-141
-24,-92,-68,58,21,-80,122,224,24,-63,-126,-141
-24,-92,-68,58,21,-80,122,224,24,-63,-131,-141
-29,-92,-63,61,17,-78,122,224,29,-63,-131,-141
-19,-82,-63,51,21,-73,112,224,29,-73,-141,-151
-19,-82,-63,51,21,-73,112,224,24,-73,-141,-151
-19,-87,-68,53,24,-78,117,224,24,-78,-141,-151
-19,-87,-68,53,24,-78,122,229,24,-78,-141,-151
-19,-87,-68,53,24,-78,131,234,34,-73,-136,-146
-24,-87,-63,56,19,-75,126,234,34,-78,-136,-151
-24,-87,-63,56,19,-75,126,234,34,-73,-141,-151
-24,-82,-58,53,17,-70,126,234,34,-68,-146,-151
-34,-87,-53,61,9,-70,126,234,24,-78,-156,-156
-34,-87,-53,61,9,-70,126,234,19,-78,-156,-156
-34,-87,-53,61,9,-70,126,234,19,-78,-156,-156
-34,-87,-53,61,9,-70,131,234,19,-82,-165,-161
-39,-87,-48,63,4,-68,131,234,9,-82,-156,-165
-39,-82,-43,61,2,-63,131,234,9,-82,-156,-170
-39,-78,-39,58,0,-58,136,239,9,-87,-165,-170
-43,-78,-34,61,-4,-56,136,239,9,-97,-170,-170
-43,-68,-24,56,-9,-46,126,234,9,-107,-180,-170
-43,-68,-24,56,-9,-46,126,234,9,-102,-185,-180
-43,-68,-24,56,-9,-46,136,239,9,-102,-185,-180
-43,-68,-24,56,-9,-46,136,239,9,-102,-185,-180
-34,-78,-43,56,4,-61,146,244,14,-92,-195,-175
-39,-78,-39,58,0,-58,146,244,14,-107,-200,-175
-39,-78,-39,58,0,-58,146,248,4,-112,-209,-185
-43,-78,-34,61,-4,-56,146,248,4,-117,-209,-185
-48,-63,-14,56,-17,-39,141,248,0,-122,-219,-200
-48,-63,-14,56,-17,-39,151,248,0,-126,-224,-200
-48,-68,-19,58,-14,-43,156,248,0,-131,-224,-200
-48,-68,-19,58,-14,-43,156,253,0,-141,-229,-204
-58,-68,-9,63,-24,-39,156,253,0,-136,-224,-204
-58,-68,-9,63,-24,-39,156,253,-4,-141,-229,-209
-58,-73,-14,65,-21,-43,161,258,-4,-146,-234,-214
-58,-73,-14,65,-21,-43,165,258,-4,-151,-239,-219
-63,-73,-9,68,-26,-41,170,258,-19,-156,-248,-229
-63,-63,0,63,-31,-31,170,258,-19,-165,-258,-234
-68,-58,9,63,-39,-24,170,263,-19,-170,-268,-234
-68,-58,9,63,-39,-24,175,268,-19,-175,-278,-234
-68,-58,9,63,-39,-24,180,268,-14,-175,-273,-234
-68,-58,9,63,-39,-24,180,268,-14,-185,-278,-234
-78,-58,19,68,-48,-19,180,273,-19,-190,-292,-239
-82,-58,24,70,-53,-17,180,278,-14,-195,-292,-248
-87,-63,24,75,-56,-19,190,278,-19,-200,-297,-258
-87,-58,29,73,-58,-14,190,278,-19,-209,-312,-263
-92,-58,34,75,-63,-12,195,278,-24,-214,-312,-268
-92,-58,34,75,-63,-12,200,278,-24,-219,-326,-278
-112,-43,68,78,-90,12,204,278,-24,-234,-341,-278
-117,-43,73,80,-95,14,209,273,-24,-244,-351,-283
-122,-48,73,85,-97,12,209,273,-29,-248,-361,-287
-126,-53,73,90,-100,9,209,268,-39,-258,-370,-297
-131,-43,87,87,-109,21,200,258,-48,-278,-390,-307
-136,-39,97,87,-117,29,209,258,-48,-278,-400,-317
-141,-34,107,87,-124,36,214,258,-48,-292,-409,-331
-146,-34,112,90,-129,39,214,258,-53,-302,-424,-341
-146,-34,112,90,-129,39,214,258,-58,-326,-448,-346
-151,-34,117,92,-134,41,219,248,-63,-331,-453,-351
-161,-34,126,97,-143,46,224,244,-73,-346,-473,-361
-170,-34,136,102,-153,51,229,244,-78,-361,-483,-370
-180,-34,146,107,-163,56,229,248,-92,-385,-507,-390
-185,-29,156,107,-170,63,229,244,-92,-395,-522,-390
-195,-24,170,109,-183,73,229,239,-97,-409,-536,-405
-204,-19,185,112,-195,82,234,234,-112,-424,-556,-424
-214,-24,190,119,-202,82,229,219,-122,-448,-566,-429
-229,-29,200,129,-214,85,229,214,-122,-463,-585,-439
-229,-39,190,134,-209,75,234,209,-136,-483,-600,-453
-239,-48,190,143,-214,70,234,204,-141,-497,-624,-468
-234,-48,185,141,-209,68,234,190,-161,-531,-644,-483
-248,-43,204,146,-226,80,239,190,-165,-546,-668,-497
-258,-39,219,148,-239,90,239,180,-175,-566,-692,-512
-268,-34,234,151,-251,100,239,170,-185,-585,-717,-527
-278,-43,234,161,-256,95,239,156,-195,-610,-746,-546
-283,-43,239,163,-261,97,244,151,-204,-629,-761,-556
-283,-43,239,163,-261,97,244,141,-214,-649,-780,-570
-297,-48,248,173,-273,100,239,131,-224,-668,-800,-585
-302,-48,253,175,-278,102,229,117,-239,-697,-819,-600
-307,-48,258,178,-283,104,229,107,-253,-717,-839,-610
-312,-58,253,185,-283,97,229,97,-258,-736,-858,-624
-322,-63,258,192,-290,97,224,87,-268,-756,-878,-634
-322,-63,258,192,-290,97,229,78,-287,-771,-902,-653
-331,-68,263,200,-297,97,229,68,-297,-790,-917,-663
-336,-73,263,204,-300,95,229,58,-312,-810,-936,-673
-336,-78,258,207,-297,90,219,48,-326,-829,-951,-688
-336,-78,258,207,-297,90,204,34,-341,-854,-966,-697
-336,-82,253,209,-295,85,204,24,-356,-873,-985,-707
-336,-87,248,212,-292,80,204,19,-361,-893,-1010,-717
-336,-97,239,217,-287,70,200,9,-375,-902,-1015,-727
-336,-107,229,222,-283,61,204,0,-380,-902,-1039,-727
-336,-112,224,224,-280,56,200,-9,-390,-917,-1039,-736
-336,-122,214,229,-275,46,190,-19,-400,-932,-1044,-741
-326,-126,200,226,-263,36,185,-29,-409,-936,-1054,-746
-322,-131,190,226,-256,29,180,-24,-409,-946,-1049,-746
-322,-136,185,229,-253,24,180,-34,-424,-951,-1054,-746
-312,-136,175,224,-244,19,175,-43,-424,-951,-1054,-746
-307,-141,165,224,-236,12,170,-43,-424,-946,-1054,-746
-292,-146,146,219,-219,0,170,-48,-429,-946,-1044,-746
-287,-151,136,219,-212,-7,165,-53,-434,-946,-1034,-746
-273,-151,122,212,-197,-14,151,-58,-434,-936,-1029,-746
-263,-161,102,212,-183,-29,146,-58,-434,-932,-1024,-736
-253,-165,87,209,-170,-39,141,-68,-424,-922,-1000,-722
-248,-165,82,207,-165,-41,136,-68,-424,-897,-985,-707
-239,-165,73,202,-156,-46,126,-68,-419,-883,-966,-692
-229,-165,63,197,-146,-51,122,-68,-409,-868,-951,-673
-219,-165,53,192,-136,-56,117,-68,-400,-834,-922,-663
-209,-165,43,187,-126,-61,112,-63,-390,-819,-907,-649
-200,-165,34,183,-117,-65,112,-63,-385,-805,-883,-634
-185,-165,19,175,-102,-73,107,-63,-375,-785,-858,-619
-175,-165,9,170,-92,-78,107,-53,-361,-746,-834,-595
-165,-161,4,163,-85,-78,92,-48,-356,-727,-805,-580
-156,-151,4,153,-80,-73,87,-48,-341,-702,-771,-561
-146,-146,0,146,-73,-73,82,-48,-326,-683,-741,-541
-146,-141,4,143,-75,-68,78,-48,-307,-644,-697,-522
-131,-136,-4,134,-63,-70,73,-48,-297,-614,-673,-502
-122,-131,-9,126,-56,-70,73,-48,-283,-580,-649,-478
-112,-126,-14,119,-48,-70,68,-43,-273,-561,-614,-458
-102,-122,-19,112,-41,-70,53,-34,-253,-531,-580,-429
-92,-112,-19,102,-36,-65,43,-34,-239,-492,-546,-409
-82,-97,-14,90,-34,-56,43,-29,-224,-458,-512,-380
-73,-97,-24,85,-24,-61,34,-29,-214,-434,-473,-356
-68,-82,-14,75,-26,-48,19,-39,-200,-405,-444,-336
-58,-82,-24,70,-17,-53,14,-39,-185,-370,-414,-317
-58,-73,-14,65,-21,-43,9,-39,-180,-351,-385,-297
-48,-58,-9,53,-19,-34,4,-39,-165,-326,-356,-278
-43,-53,-9,48,-17,-31,4,-24,-141,-287,-326,-253
-39,-53,-14,46,-12,-34,0,-24,-131,-263,-297,-229
-29,-39,-9,34,-9,-24,-4,-24,-122,-244,-268,-204
-24,-39,-14,31,-4,-26,-9,-24,-112,-224,-239,-180
-19,-29,-9,24,-4,-19,-14,-24,-102,-195,-214,-170
-14,-19,-4,17,-4,-12,-19,-24,-97,-180,-195,-156
-4,-9,-4,7,0,-7,-19,-24,-87,-161,-175,-141
0,0,0,0,0,0,-24,-24,-73,-141,-161,-122
0,4,4,-2,-2,4,-29,-24,-68,-112,-126,-107
4,4,0,-4,2,2,-34,-24,-58,-97,-112,-97
4,4,0,-4,2,2,-34,-19,-53,-87,-97,-82
4,9,4,-7,0,7,-34,-19,-43,-73,-78,-73
14,14,0,-14,7,7,-34,-29,-48,-58,-53,-58
19,19,0,-19,9,9,-39,-24,-43,-48,-39,-48
24,24,0,-24,12,12,-43,-24,-39,-39,-29,-43
24,24,0,-24,12,12,-43,-29,-34,-29,-14,-34
24,24,0,-24,12,12,-43,-19,-29,-9,-4,-14
24,24,0,-24,12,12,-43,-19,-24,-4,4,-4
29,19,-9,-24,19,4,-43,-19,-19,4,14,-4
29,19,-9,-24,19,4,-48,-14,-14,14,19,0
29,29,0,-29,14,14,-48,-14,-9,19,14,-4
29,34,4,-31,12,19,-48,-14,-9,29,29,0
29,43,14,-36,7,29,-48,-9,-14,29,29,4
29,48,19,-39,4,34,-53,-9,-14,34,34,4
19,48,29,-34,-4,39,-53,-9,0,34,48,14
24,48,24,-36,0,36,-53,-9,0,39,53,19
24,48,24,-36,0,36,-53,-9,0,39,53,19
24,48,24,-36,0,36,-53,-4,0,39,53,19
24,48,24,-36,0,36,-53,-14,0,43,53,19
24,48,24,-36,0,36,-53,-14,0,43,53,19
24,48,24,-36,0,36,-53,-9,0,43,53,19
24,48,24,-36,0,36,-48,-9,4,43,53,19
24,43,19,-34,2,31,-48,0,4,53,53,19
24,43,19,-34,2,31,-48,0,4,53,53,24
24,43,19,-34,2,31,-48,0,4,53,58,29
24,39,14,-31,4,26,-48,0,4,53,58,29
34,43,9,-39,12,26,-48,0,0,53,48,14
34,43,9,-39,12,26,-48,0,0,53,48,14
34,43,9,-39,12,26,-48,4,-4,53,43,14
34,48,14,-41,9,31,-48,4,-4,53,43,14
34,39,4,-36,14,21,-43,-4,4,48,48,24
29,39,9,-34,9,24,-43,-4,9,48,48,19
29,39,9,-34,9,24,-43,-4,9,48,48,14
29,34,4,-31,12,19,-43,-4,4,48,48,14
19,34,14,-26,2,24,-43,4,-4,43,48,9
19,34,14,-26,2,24,-43,9,-4,39,48,9
19,39,19,-29,0,29,-39,9,-4,39,43,4
19,43,24,-31,-2,34,-39,14,-4,39,43,4
24,43,19,-34,2,31,-39,4,-4,39,43,4
24,43,19,-34,2,31,-39,4,-4,39,43,4
19,39,19,-29,0,29,-39,9,-4,39,43,4
19,34,14,-26,2,24,-39,9,-9,34,34,0
19,43,24,-31,-2,34,-39,9,-4,29,24,0
19,43,24,-31,-2,34,-43,9,-4,29,24,0
19,43,24,-31,-2,34,-43,4,-4,29,24,0
19,43,24,-31,-2,34,-39,4,-4,29,24,0
19,34,14,-26,2,24,-39,4,-4,29,24,0
19,39,19,-29,0,29,-39,4,-4,29,19,-4
19,39,19,-29,0,29,-39,4,-4,29,14,-4
19,34,14,-26,2,24,-39,4,-9,19,14,-4
19,39,19,-29,0,29,-39,-4,-9,19,14,-4
14,39,24,-26,-4,31,-39,-4,-9,19,14,-9
14,39,24,-26,-4,31,-39,-4,-9,19,14,-9
14,39,24,-26,-4,31,-34,-4,-9,19,14,-9
14,39,24,-26,-4,31,-34,0,-9,9,14,-24
9,43,34,-26,-12,39,-34,-4,-9,9,9,-24
9,43,34,-26,-12,39,-34,-4,-9,9,9,-24
9,43,34,-26,-12,39,-34,-4,-14,4,4,-24
4,39,34,-21,-14,36,-39,-4,-14,9,14,-24
4,39,34,-21,-14,36,-39,-4,-9,9,4,-24
4,39,34,-21,-14,36,-34,-4,-9,9,4,-24
4,39,34,-21,-14,36,-34,-4,-14,9,9,-29
4,39,34,-21,-14,36,-34,-4,-24,0,9,-29
4,39,34,-21,-14,36,-39,-4,-24,0,4,-29
4,39,34,-21,-14,36,-39,-4,-24,0,0,-24
4,39,34,-21,-14,36,-34,-4,-24,0,-4,-24
4,39,34,-21,-14,36,-34,-4,-14,0,0,-24
4,34,29,-19,-12,31,-34,-4,-14,-4,0,-24
4,34,29,-19,-12,31,-34,-4,-14,-4,0,-29
4,34,29,-19,-12,31,-34,-4,-14,-4,0,-29
4,43,39,-24,-17,41,-43,-4,-19,0,-4,-29
4,43,39,-24,-17,41,-43,-4,-24,0,-4,-29
4,43,39,-24,-17,41,-43,-9,-24,0,-4,-29
4,43,39,-24,-17,41,-43,-9,-19,0,-4,-29
14,39,24,-26,-4,31,-34,-19,-29,0,-4,-29
14,39,24,-26,-4,31,-34,-19,-29,-4,-4,-29
14,39,24,-26,-4,31,-39,-19,-29,-9,-4,-29
14,43,29,-29,-7,36,-39,-19,-29,-9,-9,-34
4,53,48,-29,-21,51,-48,-19,-34,-14,-9,-39
4,53,48,-29,-21,51,-48,-24,-34,-14,-9,-39
4,53,48,-29,-21,51,-48,-24,-34,-14,-14,-34
4,53,48,-29,-21,51,-48,-24,-34,-14,-14,-29
4,43,39,-24,-17,41,-48,-24,-34,-9,-9,-29
4,43,39,-24,-17,41,-48,-24,-34,-9,-9,-29
4,39,34,-21,-14,36,-48,-24,-34,-9,-4,-29
4,34,29,-19,-12,31,-53,-24,-34,-9,-4,-34
-4,43,48,-19,-26,46,-53,-29,-34,-14,-4,-34
-4,43,48,-19,-26,46,-53,-29,-34,-14,-9,-34
-4,43,48,-19,-26,46,-53,-29,-34,-14,-9,-29
-4,43,48,-19,-26,46,-53,-29,-34,-9,-9,-29
4,43,39,-24,-17,41,-53,-29,-34,-9,-4,-24
4,43,39,-24,-17,41,-53,-29,-34,-14,0,-24
4,43,39,-24,-17,41,-53,-29,-34,-14,0,-24
4,48,43,-26,-19,46,-58,-29,-34,-14,0,-24
4,58,53,-31,-24,56,-68,-29,-34,-14,0,-24
4,58,53,-31,-24,56,-68,-34,-34,-9,0,-24
4,58,53,-31,-24,56,-63,-34,-34,-9,0,-24
4,58,53,-31,-24,56,-63,-29,-29,-9,4,-19
4,53,48,-29,-21,51,-53,-29,-29,0,4,-19
4,53,48,-29,-21,51,-53,-29,-29,0,4,-19
4,48,43,-26,-19,46,-53,-34,-29,0,4,-19
4,43,39,-24,-17,41,-58,-34,-34,0,9,-19
4,53,48,-29,-21,51,-63,-43,-29,-9,4,-19
4,58,53,-31,-24,56,-63,-43,-29,-9,4,-19
4,63,58,-34,-26,61,-63,-43,-29,-9,4,-19
4,68,63,-36,-29,65,-63,-43,-29,-9,4,-19
4,58,53,-31,-24,56,-63,-43,-29,-4,4,-14
4,58,53,-31,-24,56,-63,-48,-29,-4,4,-14
4,58,53,-31,-24,56,-63,-48,-29,-4,4,-14
4,58,53,-31,-24,56,-68,-48,-29,-4,4,-19
4,73,68,-39,-31,70,-68,-39,-34,-4,4,-29
4,73,68,-39,-31,70,-68,-39,-34,0,4,-24
4,73,68,-39,-31,70,-68,-39,-34,0,4,-24
4,73,68,-39,-31,70,-68,-39,-34,0,4,-24
4,63,58,-34,-26,61,-68,-39,-34,0,4,-24
4,63,58,-34,-26,61,-68,-39,-34,0,9,-19
4,68,63,-36,-29,65,-68,-39,-34,0,9,-19
4,68,63,-36,-29,65,-68,-39,-34,0,9,-24
4,78,73,-41,-34,75,-68,-48,-34,0,9,-14
4,78,73,-41,-34,75,-68,-48,-34,0,9,-14
4,78,73,-41,-34,75,-68,-53,-34,0,9,-9
4,78,73,-41,-34,75,-68,-53,-34,0,9,-9
4,78,73,-41,-34,75,-68,-43,-34,0,9,-14
4,78,73,-41,-34,75,-73,-43,-34,0,9,-14
4,78,73,-41,-34,75,-73,-43,-34,0,9,-14
4,78,73,-41,-34,75,-73,-43,-34,0,9,-14
4,82,78,-43,-36,80,-73,-53,-34,0,9,-19
4,82,78,-43,-36,80,-82,-53,-34,0,9,-19
4,82,78,-43,-36,80,-82,-53,-34,0,9,-14
4,87,82,-46,-39,85,-78,-53,-34,0,14,-14
4,87,82,-46,-39,85,-78,-58,-43,0,9,-14
4,87,82,-46,-39,85,-78,-58,-43,0,9,-14
4,87,82,-46,-39,85,-78,-58,-43,0,9,-9
4,87,82,-46,-39,85,-78,-58,-43,0,9,-9
14,87,73,-51,-29,80,-87,-48,-34,-4,9,-9
14,87,73,-51,-29,80,-87,-53,-34,-4,9,-9
14,87,73,-51,-29,80,-87,-53,-34,-4,9,-14
14,87,73,-51,-29,80,-87,-53,-34,-4,9,-14
14,92,78,-53,-31,85,-78,-53,-34,-14,9,-14
14,92,78,-53,-31,85,-78,-53,-34,-14,9,-9
14,92,78,-53,-31,85,-82,-53,-34,-14,9,-9
14,92,78,-53,-31,85,-82,-53,-34,-14,14,-9
14,82,68,-48,-26,75,-73,-53,-34,4,14,0
4,82,78,-43,-36,80,-73,-53,-34,4,14,-9
14,102,87,-58,-36,95,-82,-53,-34,-4,24,-14
9,117,107,-63,-48,112,-87,-58,-39,-9,9,-9
9,107,97,-58,-43,102,-87,-58,-48,-9,9,-9
9,107,97,-58,-43,102,-87,-58,-48,-9,9,-9
9,107,97,-58,-43,102,-87,-58,-48,-9,9,-9
9,107,97,-58,-43,102,-87,-58,-48,-9,9,-9
9,117,107,-63,-48,112,-87,-58,-39,-9,9,-9
9,117,107,-63,-48,112,-87,-58,-39,-9,9,-9
9,117,107,-63,-48,112,-87,-58,-39,-9,9,-9
9,117,107,-63,-48,112,-87,-58,-39,-9,9,-9
9,117,107,-63,-48,112,-87,-68,-48,-9,9,-9
9,117,107,-63,-48,112,-87,-68,-48,-9,9,-9
9,117,107,-63,-48,112,-87,-68,-48,-9,9,-9
9,117,107,-63,-48,112,-87,-68,-48,-9,9,-9
9,117,107,-63,-48,112,-97,-68,-48,-9,9,-9
9,117,107,-63,-48,112,-97,-68,-48,-9,9,-9
9,117,107,-63,-48,112,-97,-68,-48,-9,9,-9
9,117,107,-63,-48,112,-97,-68,-48,-9,9,-9
9,126,117,-68,-53,122,-97,-68,-48,-9,9,-9
9,126,117,-68,-53,122,-97,-68,-48,-9,9,-9
9,126,117,-68,-53,122,-97,-68,-48,-9,9,-9
9,126,117,-68,-53,122,-97,-68,-48,-9,9,-9
19,136,117,-78,-48,126,-97,-78,-48,-9,9,-9
19,136,117,-78,-48,126,-97,-78,-48,-9,9,-9
19,136,117,-78,-48,126,-97,-78,-48,-9,9,-9
19,136,117,-78,-48,126,-97,-78,-48,-9,9,-9
9,136,126,-73,-58,131,-97,-78,-48,-9,9,-19
9,136,126,-73,-58,131,-97,-78,-48,-9,9,-19
9,136,126,-73,-58,131,-97,-78,-48,-9,9,-19
9,136,126,-73,-58,131,-97,-78,-48,-9,9,-19
19,136,117,-78,-48,126,-87,-78,-48,-9,9,-9
19,136,117,-78,-48,126,-87,-78,-48,-9,9,-9
19,136,117,-78,-48,126,-87,-78,-48,-9,9,-9
19,136,117,-78,-48,126,-87,-78,-48,-9,9,-9
9,136,126,-73,-58,131,-97,-78,-58,-9,0,-19
9,136,126,-73,-58,131,-97,-78,-58,-9,0,-19
9,136,126,-73,-58,131,-97,-78,-58,-9,0,-19
9,136,126,-73,-58,131,-97,-78,-58,-9,0,-19
9,136,126,-73,-58,131,-97,-78,-48,-9,9,-9
9,136,126,-73,-58,131,-97,-78,-48,-9,9,-9
9,136,126,-73,-58,131,-97,-78,-48,-9,9,-9
9,136,126,-73,-58,131,-97,-78,-48,-9,9,-9
9,146,136,-78,-63,141,-107,-78,-48,-19,0,-19
9,146,136,-78,-63,141,-107,-78,-48,-19,0,-19
9,146,136,-78,-63,141,-107,-78,-48,-19,0,-19
9,146,136,-78,-63,141,-107,-78,-48,-19,0,-19
19,136,117,-78,-48,126,-97,-78,-48,-9,9,-19
19,136,117,-78,-48,126,-97,-78,-48,-9,9,-19
19,136,117,-78,-48,126,-97,-78,-48,-9,9,-19
19,136,117,-78,-48,126,-97,-78,-48,-9,9,-19
9,146,136,-78,-63,141,-97,-87,-48,-19,0,-19
9,146,136,-78,-63,141,-97,-87,-48,-19,0,-19
9,146,136,-78,-63,141,-97,-87,-48,-19,0,-19
9,146,136,-78,-63,141,-97,-87,-48,-19,0,-19
9,136,126,-73,-58,131,-97,-87,-58,-9,9,-19
9,136,126,-73,-58,131,-97,-87,-58,-9,9,-19
9,136,126,-73,-58,131,-97,-87,-58,-9,9,-19
9,136,126,-73,-58,131,-97,-87,-58,-9,9,-19
9,136,126,-73,-58,131,-97,-78,-58,-19,9,-19
9,136,126,-73,-58,131,-97,-78,-58,-19,9,-19
9,136,126,-73,-58,131,-97,-78,-58,-19,9,-19
9,136,126,-73,-58,131,-97,-78,-58,-19,9,-19
9,136,126,-73,-58,131,-97,-78,-48,-9,9,-19
9,136,126,-73,-58,131,-97,-78,-48,-9,9,-19
9,136,126,-73,-58,131,-97,-78,-48,-9,9,-19
9,136,126,-73,-58,131,-97,-78,-48,-9,9,-19
9,136,126,-73,-58,131,-97,-87,-58,-19,0,-19
9,136,126,-73,-58,131,-97,-87,-58,-19,0,-19
9,136,126,-73,-58,131,-97,-87,-58,-19,0,-19
9,136,126,-73,-58,131,-97,-87,-58,-19,0,-19
9,136,126,-73,-58,131,-97,-87,-58,-19,9,-9
9,136,126,-73,-58,131,-97,-87,-58,-19,9,-9
9,136,126,-73,-58,131,-97,-87,-58,-19,9,-9
9,136,126,-73,-58,131,-97,-87,-58,-19,9,-9
9,136,126,-73,-58,131,-97,-87,-48,-9,9,-19
9,136,126,-73,-58,131,-97,-87,-48,-9,9,-19
9,136,126,-73,-58,131,-97,-87,-48,-9,9,-19
9,136,126,-73,-58,131,-97,-87,-48,-9,9,-19
9,126,117,-68,-53,122,-97,-87,-48,-9,9,-9
9,126,117,-68,-53,122,-97,-87,-48,-9,9,-9
9,126,117,-68,-53,122,-97,-87,-48,-9,9,-9
9,126,117,-68,-53,122,-97,-87,-48,-9,9,-9
9,126,117,-68,-53,122,-97,-87,-48,-9,0,-19
9,126,117,-68,-53,122,-97,-87,-48,-9,0,-19
9,126,117,-68,-53,122,-97,-87,-48,-9,0,-19
9,126,117,-68,-53,122,-97,-87,-48,-9,0,-19
9,126,117,-68,-53,122,-97,-78,-48,-9,4,-9
9,126,117,-68,-53,122,-97,-78,-48,-9,9,-9
9,126,117,-68,-53,122,-97,-78,-48,-9,14,-9
9,126,117,-68,-53,122,-97,-78,-48,-9,19,-9
9,126,117,-68,-53,122,-97,-78,-48,-9,19,-9
9,126,117,-68,-53,122,-97,-78,-48,-9,19,-9
9,126,117,-68,-53,122,-97,-78,-48,-9,19,-9
9,126,117,-68,-53,122,-97,-78,-48,-9,19,-9
9,117,107,-63,-48,112,-97,-78,-48,-9,19,-9
9,117,107,-63,-48,112,-97,-78,-48,-9,19,-9
9,117,107,-63,-48,112,-97,-78,-48,-9,19,-9
9,117,107,-63,-48,112,-97,-78,-48,-9,19,-9
9,117,107,-63,-48,112,-87,-78,-48,0,19,-9
9,117,107,-63,-48,112,-87,-78,-48,0,19,-9
9,117,107,-63,-48,112,-87,-78,-48,0,19,-9
9,117,107,-63,-48,112,-87,-78,-48,0,19,-9
19,107,87,-63,-34,97,-97,-78,-39,-9,19,-9
19,107,87,-63,-34,97,-97,-78,-39,-9,19,-9
19,107,87,-63,-34,97,-97,-78,-39,-9,19,-9
19,107,87,-63,-34,97,-97,-78,-39,-9,19,-9
9,97,87,-53,-39,92,-87,-78,-39,0,19,-9
9,97,87,-53,-39,92,-87,-78,-39,0,19,-9
9,97,87,-53,-39,92,-87,-78,-39,0,19,-9
9,97,87,-53,-39,92,-87,-78,-39,0,19,-9
9,97,87,-53,-39,92,-87,-78,-48,-9,19,-9
9,97,87,-53,-39,92,-87,-78,-48,-9,19,-9
9,97,87,-53,-39,92,-87,-78,-48,-9,19,-9
9,97,87,-53,-39,92,-87,-78,-48,-9,19,-9
9,97,87,-53,-39,92,-87,-78,-39,0,29,0
9,97,87,-53,-39,92,-87,-78,-39,0,29,0
9,97,87,-53,-39,92,-87,-78,-39,0,29,0
9,97,87,-53,-39,92,-87,-78,-39,0,29,0
9,97,87,-53,-39,92,-87,-78,-39,-9,19,-9
9,97,87,-53,-39,92,-87,-78,-39,-9,19,-9
9,97,87,-53,-39,92,-87,-78,-39,-9,19,-9
9,97,87,-53,-39,92,-87,-78,-39,-9,19,-9
9,87,78,-48,-34,82,-87,-78,-29,0,29,0
9,87,78,-48,-34,82,-87,-78,-29,0,29,0
9,87,78,-48,-34,82,-87,-78,-29,0,29,0
9,87,78,-48,-34,82,-87,-78,-29,0,29,0
9,87,78,-48,-34,82,-87,-78,-39,0,29,0
9,87,78,-48,-34,82,-87,-78,-39,0,29,0
9,87,78,-48,-34,82,-87,-78,-39,0,29,0
9,87,78,-48,-34,82,-87,-78,-39,0,29,0
19,87,68,-53,-24,78,-78,-73,-29,4,39,4
19,87,68,-53,-24,78,-78,-68,-29,9,39,9
19,87,68,-53,-24,78,-78,-63,-29,14,39,14
19,87,68,-53,-24,78,-78,-58,-29,19,39,19
29,102,73,-65,-21,87,-68,-48,-24,29,48,29
29,107,78,-68,-24,92,-68,-48,-19,29,48,29
29,112,82,-70,-26,97,-68,-48,-14,29,48,29
29,117,87,-73,-29,102,-68,-48,-9,29,48,29
34,131,97,-82,-31,114,-63,-39,4,43,63,34
39,136,97,-87,-29,117,-58,-29,9,48,68,39
43,141,97,-92,-26,119,-53,-19,14,53,73,43
48,146,97,-97,-24,122,-48,-9,19,58,78,48
58,161,102,-109,-21,131,-34,9,34,73,82,58
58,165,107,-112,-24,136,-24,14,39,78,82,58
53,156,102,-104,-24,129,-19,19,43,78,82,58
48,151,102,-100,-26,126,-4,19,48,73,82,58
43,126,82,-85,-19,104,0,19,48,63,82,58
43,122,78,-82,-17,100,4,24,43,63,82,58
58,122,63,-90,-2,92,4,24,43,68,82,63
73,141,68,-107,2,104,-4,34,53,82,102,73
82,156,73,-119,4,114,-14,39,73,97,112,78
87,180,92,-134,-2,136,-43,39,82,112,126,92
97,180,82,-139,7,131,-82,19,73,112,131,102
107,180,73,-143,17,126,-112,4,63,107,131,102
117,170,53,-143,31,112,-131,9,68,117,126,112
122,156,34,-139,43,95,-122,9,63,112,131,112
122,146,24,-134,48,85,-112,0,58,102,126,102
117,136,19,-126,48,78,-107,-4,43,92,126,92
126,146,19,-136,53,82,-117,-9,48,87,122,82
126,146,19,-136,53,82,-112,-14,43,82,117,82
117,136,19,-126,48,78,-112,-29,24,68,107,68
117,112,-4,-114,61,53,-112,-48,9,48,92,63
117,78,-39,-97,78,19,-112,-48,-14,43,82,53
107,68,-39,-87,73,14,-97,-39,-4,43,82,53
102,78,-24,-90,63,26,-87,-34,4,53,82,53
97,82,-14,-90,56,34,-87,-34,4,53,82,53
97,82,-14,-90,56,34,-87,-24,4,58,92,63
92,87,-4,-90,48,41,-97,-34,4,58,92,63
87,92,4,-90,41,48,-102,-43,4,58,92,63
87,92,4,-90,41,48,-102,-43,4,58,92,63
87,92,4,-90,41,48,-102,-48,14,68,102,73
87,92,4,-90,41,48,-97,-39,19,68,102,73
78,82,4,-80,36,43,-97,-39,19,63,102,73
73,73,0,-73,36,36,-97,-48,0,58,92,63
73,53,-19,-63,46,17,-97,-63,-9,34,68,39
58,29,-29,-43,43,0,-97,-63,-19,19,53,29
43,29,-14,-36,29,7,-87,-63,-19,19,48,29
24,29,4,-26,9,17,-73,-58,-9,24,48,24
14,14,0,-14,7,7,-63,-53,-9,24,53,34
14,14,0,-14,7,7,-68,-53,-9,24,53,34
19,14,-4,-17,12,4,-73,-53,-14,24,48,29
19,14,-4,-17,12,4,-78,-53,-14,24,48,29
19,14,-4,-17,12,4,-82,-63,-14,19,48,29
19,14,-4,-17,12,4,-82,-68,-19,19,48,29
14,14,0,-14,7,7,-82,-68,-19,14,48,29
14,9,-4,-12,9,2,-82,-68,-14,14,48,29
14,0,-14,-7,14,-7,-73,-68,-14,24,58,29
19,-4,-24,-7,21,-14,-78,-68,-19,24,53,29
19,-4,-24,-7,21,-14,-78,-68,-19,24,53,29
14,-4,-19,-4,17,-12,-78,-68,-19,24,53,24
14,-4,-19,-4,17,-12,-78,-68,-19,14,53,24
14,-4,-19,-4,17,-12,-78,-68,-19,14,53,24
14,-4,-19,-4,17,-12,-73,-68,-19,14,53,24
14,0,-14,-7,14,-7,-73,-68,-19,14,53,19
9,-4,-14,-2,12,-9,-73,-68,-9,14,53,19
9,-14,-24,2,17,-19,-73,-63,-9,14,53,24
9,-19,-29,4,19,-24,-73,-63,-9,14,53,24
4,-24,-29,9,17,-26,-73,-63,-9,14,53,24
-4,-24,-19,14,7,-21,-73,-53,-19,24,53,29
-4,-24,-19,14,7,-21,-73,-48,-19,24,48,29
-4,-24,-19,14,7,-21,-73,-48,-19,24,48,29
-4,-29,-24,17,9,-26,-68,-48,-19,24,48,29
-9,-29,-19,19,4,-24,-68,-48,-9,24,48,29
-9,-29,-19,19,4,-24,-68,-48,-9,24,48,29
-9,-29,-19,19,4,-24,-68,-48,-9,24,48,29
-9,-29,-19,19,4,-24,-63,-48,-9,24,48,29
0,-39,-39,19,19,-39,-63,-39,0,24,48,29
-4,-39,-34,21,14,-36,-63,-39,0,24,48,29
-4,-34,-29,19,12,-31,-63,-34,0,19,48,29
-4,-34,-29,19,12,-31,-63,-34,0,19,48,29
-4,-34,-29,19,12,-31,-53,-43,-9,19,58,29
0,-34,-34,17,17,-34,-53,-43,-9,19,58,29
0,-34,-34,17,17,-34,-53,-43,-4,24,58,34
0,-34,-34,17,17,-34,-53,-43,-4,24,58,34
0,-43,-43,21,21,-43,-53,-34,-4,34,58,34
0,-43,-43,21,21,-43,-53,-34,0,34,63,34
0,-43,-43,21,21,-43,-53,-34,0,34,63,34
0,-48,-48,24,24,-48,-53,-34,0,34,63,34
-4,-39,-34,21,14,-36,-53,-29,0,34,58,29
-9,-48,-39,29,14,-43,-48,-19,0,34,63,29
-19,-68,-48,43,14,-58,-29,-4,9,24,48,29
-34,-82,-48,58,7,-65,-14,4,0,19,39,19
-34,-92,-58,63,12,-75,19,29,9,19,19,0
-58,-122,-63,90,2,-92,68,87,39,19,4,-14
-87,-141,-53,114,-17,-97,131,156,68,29,0,-29
-107,-156,-48,131,-29,-102,180,219,112,43,-4,-53
-107,-170,-63,139,-21,-117,214,263,126,43,-19,-78
-102,-209,-107,156,2,-158,234,292,126,43,-48,-97
-102,-219,-117,161,7,-168,253,322,141,43,-39,-102
-102,-200,-97,151,-2,-148,253,341,195,87,-4,-82
-87,-185,-97,136,4,-141,263,370,239,131,29,-43
-48,-209,-161,129,56,-185,273,405,253,170,58,-29
4,-200,-204,97,104,-202,273,483,307,229,107,0
87,-102,-190,7,139,-146,253,585,419,370,234,107
195,87,-107,-141,151,-9,146,590,561,570,463,302
331,322,-9,-326,170,156,-39,478,688,795,722,531
473,556,82,-514,195,319,-258,263,780,1015,990,780
639,805,165,-722,236,485,-507,-43,849,1244,1288,1044
814,1107,292,-961,261,700,-814,-385,902,1483,1625,1361
1010,1434,424,-1222,292,929,-1117,-707,946,1717,1971,1673
1185,1693,507,-1439,339,1100,-1361,-980,956,1912,2269,1952
1317,1878,561,-1598,378,1220,-1527,-1259,883,2025,2513,2176
1405,2030,624,-1717,390,1327,-1698,-1576,736,2078,2688,2371
1464,2108,644,-1786,409,1376,-1839,-1864,595,2093,2825,2513
1434,2069,634,-1751,400,1351,-1932,-2098,448,2044,2884,2566
1337,1971,634,-1654,351,1302,-1971,-2308,331,1956,2859,2547
1229,1956,727,-1593,251,1342,-1966,-2391,322,1976,2908,2596
1127,2025,897,-1576,114,1461,-1830,-2283,419,2074,3006,2693
951,1908,956,-1429,-2,1432,-1586,-2074,414,1971,2884,2610
712,1493,780,-1102,-34,1137,-1302,-1937,180,1551,2410,2225
483,1005,522,-744,-19,763,-1024,-1839,-195,912,1717,1688
307,619,312,-463,-2,466,-810,-1742,-522,326,1078,1176
185,361,175,-273,4,268,-673,-1610,-683,-43,653,805
112,209,97,-161,7,153,-610,-1449,-702,-204,400,575
78,97,19,-87,29,58,-585,-1254,-658,-268,234,409
48,4,-43,-26,46,-19,-541,-1019,-585,-307,87,244
24,-68,-92,21,58,-80,-409,-746,-473,-317,-58,73
4,-73,-78,34,41,-75,-244,-463,-322,-253,-122,-24
34,-53,-87,9,61,-70,-122,-253,-170,-136,-63,-9
68,-48,-117,-9,92,-82,-58,-102,-68,-53,-4,29
63,-73,-136,4,100,-104,-14,-19,-24,-24,-4,29
43,-92,-136,24,90,-114,14,24,0,0,0,19
48,-107,-156,29,102,-131,43,48,19,9,19,24
34,-126,-161,46,97,-143,73,78,29,19,9,19
19,-141,-161,61,90,-151,78,97,34,14,4,9
19,-161,-180,70,100,-170,82,107,34,9,0,0
19,-170,-190,75,104,-180,92,102,34,4,4,-4
4,-156,-161,75,82,-158,92,112,24,-4,-9,-9
-9,-170,-161,90,75,-165,97,122,24,-4,-14,-19
-9,-175,-165,92,78,-170,97,131,29,-4,-14,-24
-9,-180,-170,95,80,-175,97,131,34,-4,-19,-24
-4,-185,-180,95,87,-183,102,146,39,-4,-19,-24
4,-190,-195,92,100,-192,102,156,48,9,-19,-24
0,-190,-190,95,95,-190,102,156,53,9,-19,-29
0,-195,-195,97,97,-195,107,161,53,9,-19,-34
0,-204,-204,102,102,-204,112,170,53,9,-19,-34
0,-214,-214,107,107,-214,122,185,53,4,-19,-34
0,-214,-214,107,107,-214,122,190,58,4,-19,-34
0,-214,-214,107,107,-214,122,195,58,9,-19,-34
0,-224,-224,112,112,-224,122,200,63,14,-19,-34
-9,-234,-224,122,107,-229,136,209,73,14,-19,-24
-9,-229,-219,119,104,-224,136,209,73,14,-19,-24
-9,-229,-219,119,104,-224,136,209,73,14,-19,-29
-9,-229,-219,119,104,-224,136,214,73,9,-19,-29
-9,-229,-219,119,104,-224,126,224,63,19,-14,-29
-9,-229,-219,119,104,-224,126,224,68,19,-14,-29
-9,-229,-219,119,104,-224,131,224,68,19,-19,-29
-9,-234,-224,122,107,-229,131,229,73,24,-19,-29
0,-244,-244,122,122,-244,131,229,73,24,-19,-29
0,-244,-244,122,122,-244,131,229,73,24,-19,-29
0,-244,-244,122,122,-244,131,234,73,19,-19,-29
0,-239,-239,119,119,-239,136,239,73,19,-19,-34
-4,-239,-234,122,114,-236,146,239,73,14,-19,-34
-4,-239,-234,122,114,-236,146,239,73,14,-19,-34
-4,-239,-234,122,114,-236,141,239,73,9,-19,-34
-4,-239,-234,122,114,-236,141,234,73,9,-19,-34
-14,-239,-224,126,104,-231,146,244,82,9,-9,-24
-9,-239,-229,124,109,-234,146,248,82,14,-14,-24
-9,-239,-229,124,109,-234,146,248,82,19,-14,-24
-9,-239,-229,124,109,-234,146,253,82,24,-19,-24
-4,-248,-244,126,119,-246,136,248,82,14,-19,-34
-4,-248,-244,126,119,-246,141,248,82,14,-19,-34
-4,-248,-244,126,119,-246,141,244,82,14,-19,-34
-4,-248,-244,126,119,-246,141,244,82,14,-19,-34
-4,-258,-253,131,124,-256,151,248,82,14,-29,-34
-4,-253,-248,129,122,-251,151,253,82,14,-29,-34
-4,-253,-248,129,122,-251,151,253,82,9,-29,-34
-4,-253,-248,129,122,-251,151,253,82,9,-29,-34
-14,-248,-234,131,109,-241,151,253,82,9,-29,-29
-14,-248,-234,131,109,-241,151,253,82,9,-34,-34
-14,-248,-234,131,109,-241,151,253,82,9,-39,-34
-14,-248,-234,131,109,-241,151,253,78,4,-39,-34
-14,-258,-244,136,114,-251,156,253,87,14,-29,-34
-19,-263,-244,141,112,-253,156,258,87,14,-29,-34
-19,-263,-244,141,112,-253,156,258,87,14,-29,-34
-19,-263,-244,141,112,-253,161,258,87,14,-34,-39
-19,-258,-239,139,109,-248,161,273,87,9,-34,-48
-19,-258,-239,139,109,-248,161,273,87,9,-34,-48
-19,-258,-239,139,109,-248,161,273,87,9,-34,-48
-19,-258,-239,139,109,-248,161,273,87,9,-34,-48
-19,-268,-248,143,114,-258,170,273,87,9,-24,-39
-24,-268,-244,146,109,-256,170,278,87,14,-24,-39
-24,-268,-244,146,109,-256,175,278,87,14,-24,-39
-24,-268,-244,146,109,-256,180,278,87,4,-24,-39
-24,-273,-248,148,112,-261,170,278,92,4,-34,-53
-24,-268,-244,146,109,-256,170,283,92,4,-39,-53
-24,-268,-244,146,109,-256,170,283,92,4,-43,-53
-29,-268,-239,148,104,-253,170,283,97,4,-43,-53
-29,-278,-248,153,109,-263,180,283,97,4,-34,-43
-29,-278,-248,153,109,-263,180,283,92,4,-34,-43
-29,-283,-253,156,112,-268,185,283,92,0,-34,-43
-29,-283,-253,156,112,-268,190,287,92,0,-34,-43
-29,-278,-248,153,109,-263,190,283,82,0,-39,-48
-34,-273,-239,153,102,-256,185,283,82,-9,-39,-53
-34,-268,-234,151,100,-251,185,283,82,-9,-43,-53
-34,-258,-224,146,95,-241,185,283,82,-9,-48,-53
-34,-258,-224,146,95,-241,195,292,92,-9,-48,-48
-34,-263,-229,148,97,-246,195,292,87,-9,-48,-48
-34,-268,-234,151,100,-251,195,292,87,-9,-48,-48
-34,-273,-239,153,102,-256,200,292,87,-14,-58,-53
-39,-283,-244,161,102,-263,200,292,87,-4,-58,-48
-39,-278,-239,158,100,-258,200,292,87,-4,-58,-53
-39,-273,-234,156,97,-253,204,297,87,-9,-68,-53
-43,-273,-229,158,92,-251,204,297,87,-19,-73,-53
-34,-283,-248,158,107,-265,204,302,87,-19,-73,-63
-34,-283,-248,158,107,-265,204,302,87,-14,-78,-73
-34,-283,-248,158,107,-265,214,307,87,-14,-78,-73
-34,-283,-248,158,107,-265,214,307,87,-14,-78,-73
-43,-283,-239,163,97,-261,214,302,92,-4,-68,-68
-48,-283,-234,165,92,-258,214,302,92,-19,-73,-68
-48,-283,-234,165,92,-258,214,307,82,-24,-82,-78
-53,-283,-229,168,87,-256,214,307,82,-29,-82,-78
-58,-278,-219,168,80,-248,219,317,87,-39,-92,-73
-58,-278,-219,168,80,-248,229,317,87,-39,-97,-73
-58,-283,-224,170,82,-253,234,317,87,-39,-97,-73
-58,-283,-224,170,82,-253,234,322,87,-43,-102,-78
-68,-283,-214,175,73,-248,234,322,78,-39,-97,-78
-68,-283,-214,175,73,-248,234,322,73,-43,-102,-82
-68,-287,-219,178,75,-253,239,326,73,-48,-107,-87
-68,-287,-219,178,75,-253,244,326,73,-53,-112,-92
-73,-287,-214,180,70,-251,248,336,78,-53,-117,-102
-73,-278,-204,175,65,-241,248,336,78,-58,-122,-107
-78,-273,-195,175,58,-234,248,341,78,-58,-126,-107
-78,-273,-195,175,58,-234,253,346,78,-58,-131,-107
-78,-273,-195,175,58,-234,258,346,87,-58,-126,-107
-78,-273,-195,175,58,-234,258,346,82,-68,-131,-107
-87,-273,-185,180,48,-229,258,351,73,-73,-146,-112
-92,-273,-180,183,43,-226,258,356,73,-78,-146,-122
-87,-278,-190,183,51,-234,268,356,68,-82,-161,-122
-87,-273,-185,180,48,-229,268,356,68,-92,-175,-126
-92,-273,-180,183,43,-226,273,356,63,-97,-175,-131
-92,-273,-180,183,43,-226,278,356,63,-102,-190,-141
-102,-268,-165,185,31,-217,292,356,73,-107,-185,-131
-107,-268,-161,187,26,-214,297,351,73,-117,-195,-136
-112,-273,-161,192,24,-217,297,351,68,-122,-204,-141
-117,-278,-161,197,21,-219,297,346,58,-131,-214,-151
-122,-268,-146,195,12,-207,297,346,48,-151,-214,-165
-126,-263,-136,195,4,-200,307,346,48,-151,-224,-170
-131,-258,-126,195,-2,-192,312,346,48,-165,-234,-180
-136,-258,-122,197,-7,-190,312,346,43,-175,-248,-185
-146,-258,-112,202,-17,-185,312,356,48,-180,-273,-190
-151,-258,-107,204,-21,-183,317,346,43,-185,-278,-195
-161,-258,-97,209,-31,-178,322,341,34,-200,-297,-204
-170,-258,-87,214,-41,-173,326,341,29,-214,-307,-214
-180,-268,-87,224,-46,-178,326,336,14,-229,-312,-224
-185,-263,-78,224,-53,-170,326,331,14,-239,-326,-224
-195,-258,-63,226,-65,-161,326,326,9,-253,-341,-239
-204,-253,-48,229,-78,-151,331,322,-4,-268,-361,-258
-204,-263,-58,234,-73,-161,326,317,-4,-273,-361,-253
-219,-263,-43,241,-87,-153,326,312,-4,-287,-380,-263
-219,-268,-48,244,-85,-158,331,307,-19,-307,-395,-278
-229,-273,-43,251,-92,-158,331,302,-24,-322,-419,-292
-244,-268,-24,256,-109,-146,341,297,-34,-336,-434,-297
-258,-268,-9,263,-124,-139,346,297,-39,-351,-453,-312
-268,-268,0,268,-134,-134,346,287,-48,-370,-473,-326
-278,-268,9,273,-143,-129,346,278,-58,-390,-492,-341
-278,-278,0,278,-139,-139,346,273,-58,-405,-502,-351
-283,-278,4,280,-143,-136,351,268,-68,-424,-517,-361
-283,-278,4,280,-143,-136,351,258,-78,-444,-536,-375
-297,-283,14,290,-156,-134,346,248,-87,-463,-556,-390
-302,-287,14,295,-158,-136,346,234,-102,-483,-575,-405
-307,-283,24,295,-165,-129,346,224,-117,-502,-595,-414
-312,-287,24,300,-168,-131,346,214,-122,-522,-614,-429
-322,-287,34,305,-178,-126,341,204,-131,-541,-634,-439
-331,-297,34,314,-183,-131,336,195,-141,-556,-658,-448
-341,-302,39,322,-190,-131,336,185,-151,-575,-673,-458
-346,-307,39,326,-192,-134,336,175,-165,-595,-692,-468
-346,-312,34,329,-190,-139,326,165,-180,-614,-707,-483
-356,-312,43,334,-200,-134,322,151,-195,-629,-722,-502
-356,-317,39,336,-197,-139,322,141,-209,-649,-741,-512
-356,-322,34,339,-195,-143,322,136,-214,-668,-766,-522
-356,-331,24,344,-190,-153,317,126,-229,-678,-771,-531
-346,-341,4,344,-175,-168,312,107,-239,-697,-795,-541
-346,-346,0,346,-173,-173,307,97,-253,-712,-795,-551
-346,-356,-9,351,-168,-183,297,87,-268,-727,-800,-556
-336,-361,-24,348,-156,-192,292,78,-283,-732,-810,-561
-341,-375,-34,358,-153,-204,287,73,-283,-751,-824,-570
-341,-380,-39,361,-151,-209,287,63,-297,-756,-829,-570
-331,-380,-48,356,-141,-214,283,53,-297,-756,-829,-570
-326,-385,-58,356,-134,-222,278,53,-297,-751,-829,-570
-322,-390,-68,356,-126,-229,268,39,-312,-761,-839,-570
-317,-395,-78,356,-119,-236,263,34,-317,-761,-829,-570
-302,-395,-92,348,-104,-244,248,29,-317,-751,-824,-570
-292,-405,-112,348,-90,-258,244,29,-317,-746,-819,-561
-283,-409,-126,346,-78,-268,239,19,-326,-751,-814,-561
-278,-409,-131,344,-73,-270,234,19,-326,-732,-800,-551
-268,-409,-141,339,-63,-275,224,19,-322,-722,-780,-541
-258,-409,-151,334,-53,-280,219,19,-312,-712,-766,-527
-248,-409,-161,329,-43,-285,204,14,-312,-697,-756,-527
-239,-409,-170,324,-34,-290,200,14,-302,-683,-741,-512
-229,-409,-180,319,-24,-295,200,9,-297,-668,-717,-497
-214,-409,-195,312,-9,-302,195,4,-287,-649,-692,-483
-204,-400,-195,302,-4,-297,185,4,-283,-629,-683,-478
-195,-395,-200,295,2,-297,170,9,-278,-610,-658,-463
-185,-385,-200,285,7,-292,165,9,-263,-585,-629,-444
-175,-380,-204,278,14,-292,161,9,-248,-566,-605,-424
-175,-375,-200,275,12,-287,156,9,-239,-546,-570,-414
-161,-370,-209,265,24,-290,151,9,-229,-517,-546,-395
-151,-366,-214,258,31,-290,151,9,-214,-483,-522,-370
-141,-361,-219,251,39,-290,146,14,-204,-463,-488,-351
-131,-351,-219,241,43,-285,131,14,-195,-448,-468,-326
-122,-336,-214,229,46,-275,122,14,-180,-414,-439,-312
-112,-317,-204,214,46,-261,122,19,-165,-385,-409,-287
-102,-312,-209,207,53,-261,112,19,-156,-366,-375,-268
-87,-307,-219,197,65,-263,97,19,-141,-336,-356,-248
-78,-307,-229,192,75,-268,92,19,-126,-302,-326,-229
-78,-297,-219,187,70,-258,87,19,-122,-283,-297,-209
-68,-283,-214,175,73,-248,82,19,-107,-258,-268,-190
-53,-273,-219,163,82,-246,73,24,-92,-229,-244,-170
-48,-268,-219,158,85,-244,68,24,-82,-204,-219,-151
-39,-248,-209,143,85,-229,63,24,-73,-185,-195,-131
-34,-244,-209,139,87,-226,58,24,-63,-165,-170,-112
-39,-244,-204,141,82,-224,53,24,-43,-136,-136,-92
-34,-234,-200,134,82,-217,48,24,-39,-122,-117,-78
-24,-224,-200,124,87,-212,48,24,-29,-102,-97,-63
-19,-214,-195,117,87,-204,43,24,-14,-82,-82,-43
-9,-200,-190,104,90,-195,39,24,-19,-63,-58,-39
-4,-200,-195,102,95,-197,34,24,-9,-48,-43,-29
-4,-200,-195,102,95,-197,34,29,-4,-39,-29,-14
-4,-195,-190,100,92,-192,34,29,4,-24,-9,-4
-4,-180,-175,92,85,-178,34,19,9,-9,4,9
0,-175,-175,87,87,-175,29,24,14,0,19,19
4,-170,-175,82,90,-173,24,24,19,9,29,24
4,-170,-175,82,90,-173,24,19,24,19,43,34
14,-161,-175,73,95,-168,14,19,29,39,53,43
14,-161,-175,73,95,-168,14,19,34,43,63,53
19,-165,-185,73,102,-175,14,19,39,53,73,53
19,-165,-185,73,102,-175,9,24,43,63,78,58
19,-165,-185,73,102,-175,9,24,48,58,82,63
19,-161,-180,70,100,-170,9,24,48,68,97,68
19,-151,-170,65,95,-161,9,29,43,68,97,73
19,-146,-165,63,92,-156,4,29,43,73,102,73
19,-136,-156,58,87,-146,4,19,48,82,107,82
24,-136,-161,56,92,-148,4,19,48,87,112,87
24,-136,-161,56,92,-148,4,19,48,87,112,87
24,-136,-161,56,92,-148,4,24,48,87,112,87
24,-136,-161,56,92,-148,4,24,48,92,112,87
24,-136,-161,56,92,-148,4,24,48,92,112,87
24,-136,-161,56,92,-148,4,29,48,92,112,87
24,-136,-161,56,92,-148,9,29,53,92,112,87
34,-122,-156,43,95,-139,0,39,53,92,122,87
34,-122,-156,43,95,-139,0,39,53,92,122,92
34,-122,-156,43,95,-139,0,39,53,92,126,97
34,-126,-161,46,97,-143,0,39,53,92,126,97
34,-122,-156,43,95,-139,0,39,58,92,117,82
34,-122,-156,43,95,-139,0,39,58,92,117,82
34,-122,-156,43,95,-139,0,43,53,92,112,82
34,-117,-151,41,92,-134,0,43,53,92,112,82
34,-117,-151,41,92,-134,4,43,53,97,117,92
29,-117,-146,43,87,-131,4,43,58,97,117,87
29,-117,-146,43,87,-131,4,43,58,97,117,82
29,-122,-151,46,90,-136,4,43,53,97,117,82
19,-122,-141,51,80,-131,4,34,53,92,107,78
19,-122,-141,51,80,-131,4,39,53,87,107,78
19,-117,-136,48,78,-126,9,39,53,87,102,73
19,-112,-131,46,75,-122,9,43,53,87,102,73
14,-112,-126,48,70,-119,19,43,53,87,112,82
14,-112,-126,48,70,-119,19,43,53,87,112,82
9,-117,-126,53,68,-122,19,48,53,87,112,82
9,-122,-131,56,70,-126,19,48,48,82,102,78
9,-122,-131,56,70,-126,19,48,53,78,92,78
9,-122,-131,56,70,-126,14,48,53,78,92,78
9,-122,-131,56,70,-126,14,43,53,78,92,78
9,-122,-131,56,70,-126,19,43,53,78,92,78
9,-122,-131,56,70,-126,19,43,63,78,102,78
9,-117,-126,53,68,-122,19,43,63,78,97,73
9,-117,-126,53,68,-122,19,43,63,78,92,73
9,-122,-131,56,70,-126,19,43,58,68,92,73
9,-117,-126,53,68,-122,9,34,48,68,87,63
4,-117,-122,56,63,-119,9,34,48,68,82,58
4,-117,-122,56,63,-119,9,34,48,68,78,58
4,-117,-122,56,63,-119,14,34,48,68,73,58
14,-126,-141,56,78,-134,14,39,48,68,82,63
9,-122,-131,56,70,-126,14,34,48,68,78,63
9,-122,-131,56,70,-126,14,34,48,68,78,63
9,-122,-131,56,70,-126,14,34,43,63,73,63
-4,-117,-112,61,53,-114,19,43,43,68,73,53
-4,-117,-112,61,53,-114,19,43,48,68,63,53
-4,-117,-112,61,53,-114,24,43,48,68,63,53
-4,-117,-112,61,53,-114,24,43,43,68,68,48
4,-117,-122,56,63,-119,24,34,43,68,73,48
4,-117,-122,56,63,-119,19,34,43,68,73,48
4,-117,-122,56,63,-119,19,34,43,68,73,53
4,-117,-122,56,63,-119,24,34,43,68,73,53
-4,-107,-102,56,48,-104,14,34,34,58,68,43
-4,-112,-107,58,51,-109,14,34,34,53,68,43
-4,-112,-107,58,51,-109,14,34,34,53,68,39
-4,-112,-107,58,51,-109,14,34,34,53,68,39
-4,-112,-107,58,51,-109,24,24,39,48,63,39
-4,-112,-107,58,51,-109,24,24,34,48,63,39
-4,-112,-107,58,51,-109,24,19,34,48,63,39
-4,-112,-107,58,51,-109,24,19,39,48,63,39
-4,-107,-102,56,48,-104,14,19,29,48,63,39
-4,-107,-102,56,48,-104,14,19,29,43,63,39
-4,-107,-102,56,48,-104,9,19,29,39,63,39
-4,-102,-97,53,46,-100,9,19,29,39,58,34
-4,-112,-107,58,51,-109,9,19,24,43,58,39
-4,-112,-107,58,51,-109,9,14,24,43,58,39
-4,-112,-107,58,51,-109,9,14,24,43,53,43
-4,-112,-107,58,51,-109,9,14,24,43,53,48
4,-102,-107,48,56,-104,9,14,24,48,48,39
4,-102,-107,48,56,-104,9,14,24,48,48,39
4,-107,-112,51,58,-109,9,14,24,48,53,39
4,-112,-117,53,61,-114,4,14,24,48,53,34
-4,-102,-97,53,46,-100,4,19,24,43,53,34
-4,-102,-97,53,46,-100,4,19,24,43,48,34
-4,-102,-97,53,46,-100,4,19,24,43,48,39
-4,-102,-97,53,46,-100,4,19,24,48,48,39
4,-102,-107,48,56,-104,4,19,24,48,53,43
4,-102,-107,48,56,-104,4,19,24,43,58,43
4,-102,-107,48,56,-104,4,19,24,43,58,43
4,-97,-102,46,53,-100,0,19,24,43,58,43
4,-107,-112,51,58,-109,0,9,14,43,58,43
4,-107,-112,51,58,-109,0,4,14,48,58,43
4,-107,-112,51,58,-109,4,4,14,48,58,43
4,-107,-112,51,58,-109,4,9,19,48,63,48
4,-102,-107,48,56,-104,4,9,29,48,63,48
4,-102,-107,48,56,-104,4,9,29,48,63,48
4,-107,-112,51,58,-109,4,4,29,48,63,48
4,-112,-117,53,61,-114,0,4,24,48,68,48
4,-112,-117,53,61,-114,-4,4,19,48,68,39
4,-107,-112,51,58,-109,-4,4,19,48,63,39
4,-102,-107,48,56,-104,-4,4,19,48,58,39
4,-97,-102,46,53,-100,-4,4,19,48,53,39
4,-97,-102,46,53,-100,4,4,29,53,63,53
4,-97,-102,46,53,-100,4,0,29,53,63,53
4,-97,-102,46,53,-100,4,0,29,53,63,53
4,-97,-102,46,53,-100,0,0,29,53,63,48
4,-82,-87,39,46,-85,-9,0,24,43,63,39
4,-82,-87,39,46,-85,-9,0,24,48,63,43
4,-82,-87,39,46,-85,-9,0,24,48,63,43
4,-82,-87,39,46,-85,-9,0,24,48,63,43
4,-92,-97,43,51,-95,-9,0,24,48,63,43
4,-92,-97,43,51,-95,-9,0,24,48,68,48
4,-87,-92,41,48,-90,-9,0,24,48,68,48
4,-87,-92,41,48,-90,-9,0,24,48,68,43
4,-78,-82,36,43,-80,-9,0,24,48,58,43
4,-78,-82,36,43,-80,-9,0,24,48,58,43
4,-78,-82,36,43,-80,-9,-4,24,48,58,48
4,-78,-82,36,43,-80,-9,-4,24,48,58,48
14,-87,-102,36,58,-95,-9,-4,14,48,68,53
14,-87,-102,36,58,-95,-14,-4,14,48,68,53
14,-87,-102,36,58,-95,-14,-4,14,48,68,53
14,-87,-102,36,58,-95,-14,-4,14,48,68,53
4,-82,-87,39,46,-85,-14,-14,14,48,58,39
4,-82,-87,39,46,-85,-24,-14,14,48,58,39
4,-82,-87,39,46,-85,-24,-14,14,48,58,43
4,-78,-82,36,43,-80,-19,-14,14,48,63,43
4,-87,-92,41,48,-90,-19,-9,14,58,78,53
4,-87,-92,41,48,-90,-19,-9,14,58,78,53
4,-87,-92,41,48,-90,-19,-9,14,58,78,58
4,-87,-92,41,48,-90,-19,-9,14,58,78,58
4,-78,-82,36,43,-80,-19,-9,14,53,68,48
4,-78,-82,36,43,-80,-19,-14,14,53,68,48
4,-78,-82,36,43,-80,-19,-14,14,53,68,43
4,-78,-82,36,43,-80,-19,-14,14,53,68,43
4,-82,-87,39,46,-85,-19,-14,14,53,78,53
4,-82,-87,39,46,-85,-19,-14,14,53,78,58
4,-82,-87,39,46,-85,-24,-14,14,53,78,58
4,-82,-87,39,46,-85,-24,-14,14,53,82,58
4,-73,-78,34,41,-75,-24,-4,14,63,73,58
4,-73,-78,34,41,-75,-24,-14,14,53,73,58
4,-63,-68,29,36,-65,-14,-24,14,43,73,53
9,-68,-78,29,43,-73,-19,-19,19,48,68,58
9,-78,-87,34,48,-82,-29,-9,9,58,78,58
9,-78,-87,34,48,-82,-29,-9,9,58,78,58
9,-78,-87,34,48,-82,-29,-9,9,58,78,58
9,-78,-87,34,48,-82,-29,-9,9,58,78,58
0,-78,-78,39,39,-78,-19,-9,9,58,78,58
0,-78,-78,39,39,-78,-19,-9,9,58,78,58
0,-78,-78,39,39,-78,-19,-9,9,58,78,58
0,-78,-78,39,39,-78,-19,-9,9,58,78,58
0,-87,-87,43,43,-87,-29,-19,9,58,78,58
0,-87,-87,43,43,-87,-29,-19,9,58,78,58
0,-87,-87,43,43,-87,-29,-19,9,58,78,58
0,-87,-87,43,43,-87,-29,-19,9,58,78,58
0,-78,-78,39,39,-78,-19,-9,9,48,78,58
0,-78,-78,39,39,-78,-19,-9,9,48,78,58
0,-78,-78,39,39,-78,-19,-9,9,48,78,58
0,-78,-78,39,39,-78,-19,-9,9,48,78,58
9,-78,-87,34,48,-82,-19,-19,9,58,78,58
9,-78,-87,34,48,-82,-19,-19,9,58,78,58
9,-78,-87,34,48,-82,-19,-19,9,58,78,58
9,-78,-87,34,48,-82,-19,-19,9,58,78,58
0,-78,-78,39,39,-78,-29,-19,9,58,78,58
0,-78,-78,39,39,-78,-29,-19,9,58,78,58
0,-78,-78,39,39,-78,-29,-19,9,58,78,58
0,-78,-78,39,39,-78,-29,-19,9,58,78,58
0,-78,-78,39,39,-78,-29,-19,19,68,78,58
0,-78,-78,39,39,-78,-29,-19,19,68,78,58
0,-78,-78,39,39,-78,-29,-19,19,68,78,58
0,-78,-78,39,39,-78,-29,-19,19,68,78,58
0,-78,-78,39,39,-78,-29,-19,9,58,78,58
0,-78,-78,39,39,-78,-29,-19,9,58,78,58
0,-78,-78,39,39,-78,-29,-19,9,58,78,58
0,-78,-78,39,39,-78,-29,-19,9,58,78,58
0,-68,-68,34,34,-68,-29,-29,9,58,78,68
0,-68,-68,34,34,-68,-29,-29,9,58,78,68
0,-68,-68,34,34,-68,-29,-29,9,58,78,68
0,-68,-68,34,34,-68,-29,-29,9,58,78,68
0,-68,-68,34,34,-68,-29,-19,9,58,78,58
0,-68,-68,34,34,-68,-29,-19,9,58,78,58
0,-68,-68,34,34,-68,-29,-19,9,58,78,58
0,-68,-68,34,34,-68,-29,-19,9,58,78,58
0,-68,-68,34,34,-68,-29,-29,9,68,78,68
0,-68,-68,34,34,-68,-29,-29,9,68,78,68
0,-68,-68,34,34,-68,-29,-29,9,68,78,68
0,-68,-68,34,34,-68,-29,-29,9,68,78,68
0,-68,-68,34,34,-68,-29,-29,9,68,78,68
0,-68,-68,34,34,-68,-29,-29,9,68,78,68
0,-68,-68,34,34,-68,-29,-29,9,68,78,68
0,-68,-68,34,34,-68,-29,-29,9,68,78,68
0,-68,-68,34,34,-68,-29,-29,9,58,78,68
0,-68,-68,34,34,-68,-29,-29,9,58,78,68
0,-68,-68,34,34,-68,-29,-29,9,58,78,68
0,-68,-68,34,34,-68,-29,-29,9,58,78,68
0,-68,-68,34,34,-68,-29,-19,9,58,87,68
0,-68,-68,34,34,-68,-29,-19,9,58,87,68
0,-68,-68,34,34,-68,-29,-19,9,58,87,68
0,-68,-68,34,34,-68,-29,-19,9,58,87,68
0,-68,-68,34,34,-68,-29,-29,9,58,87,58
0,-68,-68,34,34,-68,-29,-29,9,58,87,58
0,-68,-68,34,34,-68,-29,-29,9,58,87,58
0,-68,-68,34,34,-68,-29,-29,9,58,87,58
0,-68,-68,34,34,-68,-29,-29,9,68,87,58
0,-68,-68,34,34,-68,-29,-29,9,68,87,58
0,-68,-68,34,34,-68,-29,-29,9,68,87,58
0,-68,-68,34,34,-68,-29,-29,9,68,87,58
9,-58,-68,24,39,-63,-39,-29,9,58,78,58
9,-58,-68,24,39,-63,-39,-29,9,58,78,58
9,-58,-68,24,39,-63,-39,-29,9,58,78,58
9,-58,-68,24,39,-63,-39,-29,9,58,78,58
9,-58,-68,24,39,-63,-29,-29,0,58,78,68
9,-58,-68,24,39,-63,-29,-29,0,58,78,68
9,-58,-68,24,39,-63,-29,-29,0,58,78,68
9,-58,-68,24,39,-63,-29,-29,0,58,78,68
9,-58,-68,24,39,-63,-39,-29,9,48,78,68
9,-58,-68,24,39,-63,-39,-29,9,48,78,68
9,-58,-68,24,39,-63,-39,-29,9,48,78,68
9,-58,-68,24,39,-63,-39,-29,9,48,78,68
9,-58,-68,24,39,-63,-29,-29,9,58,87,68
9,-58,-68,24,39,-63,-29,-29,9,58,87,68
9,-58,-68,24,39,-63,-29,-29,9,58,87,68
9,-58,-68,24,39,-63,-29,-29,9,58,87,68
9,-48,-58,19,34,-53,-39,-39,0,58,78,58
9,-48,-58,19,34,-53,-39,-39,0,58,78,58
9,-48,-58,19,34,-53,-39,-39,0,58,78,58
9,-48,-58,19,34,-53,-39,-39,0,58,78,58
9,-58,-68,24,39,-63,-29,-29,0,58,87,58
9,-58,-68,24,39,-63,-29,-29,0,58,87,58
9,-58,-68,24,39,-63,-29,-29,0,58,87,58
9,-58,-68,24,39,-63,-29,-29,0,58,87,58
9,-58,-68,24,39,-63,-29,-29,0,58,78,58
9,-58,-68,24,39,-63,-29,-29,0,58,78,58
9,-58,-68,24,39,-63,-29,-29,0,58,78,58
9,-58,-68,24,39,-63,-29,-29,0,58,78,58
9,-58,-68,24,39,-63,-29,-29,0,58,78,68
9,-58,-68,24,39,-63,-29,-29,0,58,78,68
9,-58,-68,24,39,-63,-29,-29,0,58,78,68
9,-58,-68,24,39,-63,-29,-29,0,58,78,68
9,-48,-58,19,34,-53,-39,-39,0,58,68,63
9,-48,-58,19,34,-53,-39,-39,0,58,68,58
9,-48,-58,19,34,-53,-39,-39,0,58,68,53
9,-48,-58,19,34,-53,-39,-39,0,58,68,48
0,-48,-48,24,24,-48,-29,-39,9,58,78,53
0,-48,-48,24,24,-48,-29,-39,9,58,78,58
0,-48,-48,24,24,-48,-29,-39,9,58,78,63
0,-48,-48,24,24,-48,-29,-39,9,58,78,68
0,-48,-48,24,24,-48,-39,-39,0,58,78,58
0,-48,-48,24,24,-48,-39,-39,0,58,78,58
0,-48,-48,24,24,-48,-39,-39,0,58,78,58
0,-48,-48,24,24,-48,-39,-39,0,58,78,58
0,-48,-48,24,24,-48,-39,-39,0,58,78,68
0,-48,-48,24,24,-48,-39,-39,0,58,78,68
0,-48,-48,24,24,-48,-39,-39,0,58,78,68
0,-48,-48,24,24,-48,-39,-39,0,58,78,68
0,-48,-48,24,24,-48,-48,-39,0,58,78,58
0,-48,-48,24,24,-48,-48,-39,0,58,78,58
0,-48,-48,24,24,-48,-48,-39,0,58,78,58
0,-48,-48,24,24,-48,-48,-39,0,58,78,58
0,-48,-48,24,24,-48,-39,-39,0,58,78,58
0,-48,-48,24,24,-48,-39,-39,0,58,78,58
0,-48,-48,24,24,-48,-39,-39,0,58,78,58
0,-48,-48,24,24,-48,-39,-39,0,58,78,58
9,-48,-58,19,34,-53,-39,-39,0,58,78,58
9,-48,-58,19,34,-53,-39,-39,0,58,78,58
9,-48,-58,19,34,-53,-39,-39,0,58,78,58
9,-48,-58,19,34,-53,-39,-39,0,58,78,58
0,-48,-48,24,24,-48,-39,-39,-9,58,78,58
0,-48,-48,24,24,-48,-39,-39,-9,58,78,58
0,-48,-48,24,24,-48,-39,-39,-9,58,78,58
0,-48,-48,24,24,-48,-39,-39,-9,58,78,58
9,-48,-58,19,34,-53,-48,-39,0,58,78,58
9,-48,-58,19,34,-53,-48,-39,0,58,78,58
9,-48,-58,19,34,-53,-48,-39,0,58,78,58
9,-48,-58,19,34,-53,-48,-39,0,58,78,58
0,-39,-39,19,19,-39,-48,-48,0,48,68,58
0,-39,-39,19,19,-39,-48,-48,0,48,68,58
0,-39,-39,19,19,-39,-48,-48,0,48,68,58
0,-39,-39,19,19,-39,-48,-48,0,48,68,58
0,-39,-39,19,19,-39,-39,-39,0,48,78,48
0,-39,-39,19,19,-39,-39,-39,0,48,78,48
0,-39,-39,19,19,-39,-39,-39,0,48,78,48
0,-39,-39,19,19,-39,-39,-39,0,48,78,48
0,-48,-48,24,24,-48,-39,-48,-9,48,78,58
0,-48,-48,24,24,-48,-39,-48,-9,48,78,58
0,-48,-48,24,24,-48,-39,-48,-9,48,78,58
0,-48,-48,24,24,-48,-39,-48,-9,48,78,58
0,-39,-39,19,19,-39,-48,-39,0,58,78,58
0,-39,-39,19,19,-39,-48,-39,0,58,78,58
0,-39,-39,19,19,-39,-48,-39,0,58,78,58
0,-39,-39,19,19,-39,-48,-39,0,58,78,58
9,-29,-39,9,24,-34,-39,-39,9,58,87,68
9,-29,-39,9,24,-34,-39,-39,9,58,87,68
9,-29,-39,9,24,-34,-39,-39,9,58,87,68
9,-29,-39,9,24,-34,-39,-39,9,58,87,68
14,-19,-34,2,24,-26,-29,-34,14,73,97,73
19,-9,-29,-4,24,-19,-29,-29,19,78,97,78
24,0,-24,-12,24,-12,-29,-24,24,82,97,82
29,9,-19,-19,24,-4,-29,-19,29,87,97,87
34,19,-14,-26,24,2,-14,-9,39,92,112,97
39,29,-9,-34,24,9,-9,0,48,97,117,97
43,39,-4,-41,24,17,-4,9,58,102,122,97
48,48,0,-48,24,24,0,19,68,107,126,97
58,63,4,-61,26,34,14,39,87,117,141,102
58,68,9,-63,24,39,24,43,87,126,141,107
53,58,4,-56,24,31,29,48,87,131,141,112
48,53,4,-51,21,29,43,48,87,131,141,117
43,24,-19,-34,31,2,53,48,78,112,122,97
43,24,-19,-34,31,2,53,53,73,112,122,97
58,29,-29,-43,43,0,48,53,73,117,122,102
73,53,-19,-63,46,17,34,63,82,131,141,112
92,78,-14,-85,53,31,14,78,112,146,161,136
97,102,4,-100,46,53,-14,78,122,161,175,151
107,102,-4,-104,56,48,-53,58,112,161,180,161
117,102,-14,-109,65,43,-82,43,102,156,180,161
126,92,-34,-109,80,29,-102,34,87,146,161,156
131,78,-53,-104,92,12,-92,29,82,141,161,151
131,68,-63,-100,97,2,-82,14,78,131,151,136
126,58,-68,-92,97,-4,-78,4,63,122,146,122
126,58,-68,-92,97,-4,-78,9,58,126,151,122
126,58,-68,-92,97,-4,-73,4,53,122,146,122
117,48,-68,-82,92,-9,-73,-9,34,107,136,107
117,24,-92,-70,104,-34,-73,-29,19,87,122,102
117,9,-107,-63,112,-48,-82,-39,4,82,112,82
107,0,-107,-53,107,-53,-68,-29,14,82,112,82
102,9,-92,-56,97,-41,-58,-24,24,92,112,82
97,14,-82,-56,90,-34,-58,-24,24,92,112,82
97,14,-82,-56,90,-34,-58,-24,24,97,122,102
92,19,-73,-56,82,-26,-68,-34,24,97,122,102
87,24,-63,-56,75,-19,-73,-43,24,97,122,102
87,24,-63,-56,75,-19,-73,-43,24,97,122,102
97,34,-63,-65,80,-14,-82,-39,24,87,122,92
97,34,-63,-65,80,-14,-78,-29,29,87,122,92
87,24,-63,-56,75,-19,-78,-29,29,82,122,92
82,14,-68,-48,75,-26,-78,-39,9,78,112,82
73,-4,-78,-34,75,-41,-68,-53,-9,73,97,78
58,-29,-87,-14,73,-58,-68,-53,-19,58,82,68
43,-29,-73,-7,58,-51,-58,-53,-19,58,78,68
24,-29,-53,2,39,-41,-43,-48,-9,63,78,63
14,-34,-48,9,31,-41,-43,-43,-9,53,73,63
14,-34,-48,9,31,-41,-48,-43,-9,53,73,63
19,-34,-53,7,36,-43,-53,-43,-14,53,68,58
19,-34,-53,7,36,-43,-58,-43,-14,53,68,58
19,-34,-53,7,36,-43,-63,-53,-14,48,68,58
19,-34,-53,7,36,-43,-63,-58,-19,48,68,58
14,-34,-48,9,31,-41,-63,-58,-19,43,68,58
14,-39,-53,12,34,-46,-63,-58,-14,43,68,58
14,-29,-43,7,29,-36,-63,-48,-24,43,68,48
19,-34,-53,7,36,-43,-68,-48,-29,43,63,48
19,-34,-53,7,36,-43,-68,-48,-29,43,63,48
14,-34,-48,9,31,-41,-68,-48,-29,43,63,43
14,-43,-58,14,36,-51,-68,-58,-19,34,73,53
14,-43,-58,14,36,-51,-68,-58,-19,34,73,53
14,-43,-58,14,36,-51,-63,-58,-19,34,73,53
14,-39,-53,12,34,-46,-63,-58,-19,34,73,48
9,-29,-39,9,24,-34,-63,-68,-29,43,63,39
9,-34,-43,12,26,-39,-63,-63,-29,43,63,43
9,-34,-43,12,26,-39,-63,-63,-29,43,63,43
4,-34,-39,14,21,-36,-63,-63,-29,43,63,43
4,-34,-39,14,21,-36,-63,-53,-29,34,63,39
4,-34,-39,14,21,-36,-63,-48,-29,34,58,39
4,-34,-39,14,21,-36,-63,-48,-29,34,58,39
4,-39,-43,17,24,-41,-58,-48,-29,34,58,39
0,-39,-39,19,19,-39,-58,-48,-29,34,58,39
0,-39,-39,19,19,-39,-58,-48,-29,34,58,39
0,-39,-39,19,19,-39,-58,-48,-29,34,58,39
0,-39,-39,19,19,-39,-53,-48,-29,34,58,39
0,-39,-39,19,19,-39,-63,-48,-29,43,58,39
-4,-39,-34,21,14,-36,-63,-48,-29,43,58,39
-4,-34,-29,19,12,-31,-63,-43,-29,39,58,39
-4,-34,-29,19,12,-31,-63,-43,-29,39,58,39
-4,-24,-19,14,7,-21,-63,-43,-29,39,58,39
0,-24,-24,12,12,-24,-63,-43,-29,39,58,39
0,-24,-24,12,12,-24,-63,-43,-24,43,58,43
0,-24,-24,12,12,-24,-63,-43,-24,43,58,43
0,-24,-24,12,12,-24,-63,-53,-24,34,48,34
0,-24,-24,12,12,-24,-63,-53,-19,34,53,34
0,-24,-24,12,12,-24,-63,-53,-19,34,53,34
0,-29,-29,14,14,-29,-63,-53,-19,34,53,34
-4,-29,-24,17,9,-26,-53,-39,-9,43,58,39
-9,-29,-19,19,4,-24,-48,-29,-9,34,53,39
-9,-39,-29,24,9,-34,-39,-24,-19,24,39,19
-24,-53,-29,39,2,-41,-14,-14,-19,19,29,9
-53,-73,-19,63,-17,-46,29,29,-9,19,19,0
-78,-102,-24,90,-26,-63,87,97,19,19,4,-24
-87,-112,-24,100,-31,-68,141,165,58,39,-9,-39
-97,-136,-39,117,-29,-87,190,229,102,53,-14,-53
-97,-161,-63,129,-17,-112,224,263,107,43,-29,-68
-92,-170,-78,131,-7,-124,244,283,107,34,-48,-87
-92,-170,-78,131,-7,-124,253,302,141,63,-29,-82
-92,-151,-58,122,-17,-104,253,322,185,117,4,-53
-68,-146,-78,107,4,-112,253,341,209,141,29,-43
-29,-161,-131,95,51,-146,263,385,234,170,48,-29
43,-131,-175,43,109,-153,263,492,307,258,126,39
136,4,-131,-70,134,-63,204,536,429,429,302,175
263,224,-39,-244,151,92,48,453,561,639,541,400
409,468,58,-439,175,263,-165,273,658,834,790,629
580,722,141,-651,219,431,-414,9,732,1044,1058,868
756,1010,253,-883,251,631,-702,-317,780,1254,1356,1141
951,1332,380,-1141,285,856,-1019,-649,834,1493,1683,1439
1137,1620,483,-1378,326,1051,-1293,-951,868,1698,1981,1722
1302,1820,517,-1561,392,1168,-1498,-1224,819,1844,2230,1952
1405,1986,580,-1695,412,1283,-1654,-1532,717,1917,2425,2147
1483,2108,624,-1795,429,1366,-1825,-1849,590,1952,2591,2322
1503,2137,634,-1820,434,1385,-1966,-2127,458,1937,2698,2425
1424,2059,634,-1742,395,1346,-2059,-2371,302,1859,2688,2420
1298,1981,683,-1639,307,1332,-2078,-2532,214,1810,2674,2410
1200,2025,824,-1612,187,1424,-1966,-2479,273,1878,2762,2488
1088,2025,936,-1556,75,1481,-1761,-2274,351,1927,2801,2537
883,1742,858,-1312,12,1300,-1498,-2083,239,1698,2542,2327
644,1268,624,-956,9,946,-1224,-1976,-82,1171,1971,1864
424,829,405,-627,9,617,-976,-1878,-439,551,1298,1337
268,512,244,-390,12,378,-790,-1742,-668,82,785,912
195,322,126,-258,34,224,-702,-1581,-741,-151,468,639
131,219,87,-175,21,153,-668,-1400,-722,-253,283,439
87,126,39,-107,24,82,-624,-1185,-658,-297,136,283
48,53,4,-51,21,29,-522,-922,-566,-326,-9,126
24,9,-14,-17,19,-2,-351,-629,-424,-307,-117,-14
24,4,-19,-14,21,-7,-195,-375,-273,-214,-122,-53
63,24,-39,-43,51,-7,-112,-195,-151,-107,-43,-9
68,29,-39,-48,53,-4,-58,-92,-78,-43,-4,19
43,4,-39,-24,41,-17,-24,-39,-53,-34,-14,9
43,-4,-48,-19,46,-26,14,-4,-39,-19,-19,0
39,-9,-48,-14,43,-29,34,29,-29,-9,-9,-4
24,-29,-53,2,39,-41,53,48,-19,-9,-19,-19
9,-43,-53,17,31,-48,58,58,-24,-14,-34,-29
0,-53,-53,26,26,-53,63,68,-24,-29,-29,-29
0,-53,-53,26,26,-53,63,73,-24,-24,-34,-34
4,-58,-63,26,34,-61,63,73,-24,-24,-39,-48
-9,-63,-53,36,21,-58,68,82,-24,-34,-43,-58
-9,-68,-58,39,24,-63,68,92,-19,-34,-43,-63
-9,-73,-63,41,26,-68,68,92,-14,-34,-48,-63
-4,-78,-73,41,34,-75,73,107,-9,-34,-48,-63
-4,-78,-73,41,34,-75,73,126,-9,-29,-48,-53
-9,-73,-63,41,26,-68,73,126,-4,-29,-48,-58
-9,-73,-63,41,26,-68,78,131,-4,-29,-48,-63
-9,-78,-68,43,29,-73,82,141,-4,-29,-48,-63
-9,-78,-68,43,29,-73,82,136,-4,-34,-58,-63
-9,-78,-68,43,29,-73,82,141,0,-34,-58,-63
-9,-78,-68,43,29,-73,82,146,0,-29,-58,-63
-9,-87,-78,48,34,-82,82,151,4,-24,-58,-63
-9,-78,-68,43,29,-73,87,161,4,-24,-68,-73
-9,-73,-63,41,26,-68,87,161,4,-24,-68,-73
-9,-73,-63,41,26,-68,87,161,4,-24,-68,-78
-9,-73,-63,41,26,-68,87,165,4,-29,-68,-78
-9,-73,-63,41,26,-68,97,156,-4,-29,-63,-78
-9,-73,-63,41,26,-68,97,156,0,-29,-63,-78
-9,-73,-63,41,26,-68,102,156,0,-29,-68,-78
-9,-78,-68,43,29,-73,102,161,4,-24,-68,-78
-9,-68,-58,39,24,-63,92,170,4,-24,-78,-78
-9,-68,-58,39,24,-63,92,170,4,-24,-78,-78
-9,-68,-58,39,24,-63,92,175,4,-29,-78,-78
-9,-63,-53,36,21,-58,97,180,4,-29,-78,-82
-4,-53,-48,29,21,-51,97,180,-4,-24,-78,-82
-4,-53,-48,29,21,-51,97,180,-4,-24,-78,-82
-4,-53,-48,29,21,-51,92,180,-4,-29,-78,-82
-4,-53,-48,29,21,-51,92,175,-4,-29,-78,-82
-14,-63,-48,39,17,-56,97,165,4,-34,-78,-82
-9,-63,-53,36,21,-58,97,170,4,-34,-82,-82
-9,-63,-53,36,21,-58,97,170,4,-34,-82,-82
-9,-63,-53,36,21,-58,97,175,4,-34,-87,-82
-4,-53,-48,29,21,-51,97,180,-4,-34,-78,-82
-4,-53,-48,29,21,-51,102,180,-4,-34,-78,-82
-4,-53,-48,29,21,-51,102,175,-4,-34,-78,-82
-4,-53,-48,29,21,-51,102,175,-4,-34,-78,-82
-14,-63,-48,39,17,-56,102,190,4,-24,-87,-92
-14,-58,-43,36,14,-51,102,195,4,-24,-87,-92
-14,-58,-43,36,14,-51,102,195,4,-29,-87,-92
-14,-58,-43,36,14,-51,102,195,4,-29,-87,-92
-14,-53,-39,34,12,-46,112,185,4,-29,-78,-87
-14,-53,-39,34,12,-46,112,185,4,-29,-82,-92
-14,-53,-39,34,12,-46,112,185,4,-29,-87,-92
-14,-53,-39,34,12,-46,112,185,0,-34,-87,-92
-14,-53,-39,34,12,-46,117,195,9,-34,-87,-92
-19,-58,-39,39,9,-48,117,200,9,-34,-87,-92
-19,-58,-39,39,9,-48,117,200,9,-34,-87,-92
-19,-58,-39,39,9,-48,122,200,9,-34,-92,-97
-19,-58,-39,39,9,-48,122,204,9,-29,-82,-87
-19,-63,-43,41,12,-53,122,204,9,-29,-82,-87
-19,-68,-48,43,14,-58,122,204,9,-29,-82,-87
-19,-73,-53,46,17,-63,122,204,9,-29,-82,-87
-19,-73,-53,46,17,-63,112,204,0,-39,-92,-97
-24,-73,-48,48,12,-61,112,209,0,-34,-92,-97
-24,-73,-48,48,12,-61,117,209,0,-34,-92,-97
-24,-73,-48,48,12,-61,122,209,0,-43,-92,-97
-14,-68,-53,41,19,-61,122,209,4,-43,-92,-92
-14,-63,-48,39,17,-56,122,214,4,-43,-97,-92
-14,-63,-48,39,17,-56,122,214,4,-43,-102,-92
-19,-63,-43,41,12,-53,122,214,9,-43,-102,-92
-19,-63,-43,41,12,-53,131,214,9,-43,-102,-102
-19,-63,-43,41,12,-53,131,214,4,-43,-102,-102
-19,-68,-48,43,14,-58,136,214,4,-48,-102,-102
-19,-68,-48,43,14,-58,141,219,4,-48,-102,-102
-29,-78,-48,53,9,-63,141,224,4,-39,-97,-107
-34,-78,-43,56,4,-61,136,224,4,-48,-97,-112
-34,-78,-43,56,4,-61,136,224,4,-48,-102,-112
-34,-73,-39,53,2,-56,136,224,4,-48,-107,-112
-34,-68,-34,51,0,-51,146,224,4,-48,-107,-107
-34,-68,-34,51,0,-51,146,224,0,-48,-107,-107
-34,-68,-34,51,0,-51,146,224,0,-48,-107,-107
-34,-68,-34,51,0,-51,151,224,0,-53,-117,-112
-39,-78,-39,58,0,-58,151,234,0,-53,-117,-107
-39,-73,-34,56,-2,-53,151,234,0,-53,-117,-112
-39,-68,-29,53,-4,-48,156,239,0,-58,-126,-112
-43,-68,-24,56,-9,-46,156,239,0,-68,-131,-112
-43,-58,-14,51,-14,-36,156,234,0,-78,-131,-122
-43,-58,-14,51,-14,-36,156,234,0,-73,-136,-131
-43,-58,-14,51,-14,-36,165,239,0,-73,-136,-131
-43,-58,-14,51,-14,-36,165,239,0,-73,-136,-131
-43,-68,-24,56,-9,-46,165,244,4,-68,-126,-126
-48,-68,-19,58,-14,-43,165,244,4,-78,-131,-126
-48,-68,-19,58,-14,-43,165,248,-4,-78,-141,-136
-53,-68,-14,61,-19,-41,165,248,-4,-78,-141,-136
-58,-63,-4,61,-26,-34,170,248,0,-87,-151,-141
-58,-63,-4,61,-26,-34,180,248,0,-87,-156,-141
-58,-68,-9,63,-24,-39,185,248,0,-87,-156,-141
-58,-68,-9,63,-24,-39,185,253,0,-92,-161,-146
-58,-68,-9,63,-24,-39,185,253,0,-92,-156,-136
-58,-68,-9,63,-24,-39,185,253,-4,-92,-161,-141
-58,-73,-14,65,-21,-43,190,258,-4,-92,-165,-146
-58,-73,-14,65,-21,-43,195,258,-4,-92,-170,-151
-63,-73,-9,68,-26,-41,200,268,0,-102,-175,-151
-63,-63,0,63,-31,-31,200,268,0,-107,-180,-156
-68,-58,9,63,-39,-24,200,273,0,-107,-185,-156
-68,-58,9,63,-39,-24,204,278,0,-107,-190,-156
-68,-58,9,63,-39,-24,219,268,9,-107,-195,-165
-68,-58,9,63,-39,-24,219,268,4,-117,-200,-165
-78,-58,19,68,-48,-19,219,273,-4,-122,-214,-170
-82,-58,24,70,-53,-17,219,278,-4,-126,-214,-180
-87,-53,34,70,-61,-9,219,278,0,-131,-209,-180
-87,-48,39,68,-63,-4,219,278,0,-141,-224,-185
-92,-48,43,70,-68,-2,224,278,-4,-146,-224,-190
-92,-48,43,70,-68,-2,229,278,-4,-151,-239,-200
-102,-43,58,73,-80,7,244,287,-4,-161,-244,-200
-107,-43,63,75,-85,9,248,283,-4,-165,-253,-204
-112,-48,63,80,-87,7,248,283,-9,-165,-263,-209
-117,-53,63,85,-90,4,248,278,-19,-170,-273,-219
-122,-53,68,87,-95,7,239,287,-19,-180,-273,-214
-126,-48,78,87,-102,14,248,287,-19,-180,-283,-219
-131,-43,87,87,-109,21,253,287,-19,-195,-292,-229
-136,-43,92,90,-114,24,253,287,-24,-204,-307,-234
-156,-43,112,100,-134,34,263,287,-19,-209,-312,-239
-161,-43,117,102,-139,36,268,278,-24,-214,-317,-244
-170,-43,126,107,-148,41,273,273,-34,-229,-336,-253
-180,-43,136,112,-158,46,278,273,-39,-244,-346,-263
-180,-43,136,112,-158,46,278,278,-43,-248,-351,-273
-185,-39,146,112,-165,53,278,273,-43,-258,-366,-273
-195,-34,161,114,-178,63,278,268,-48,-273,-380,-287
-204,-29,175,117,-190,73,283,263,-63,-287,-400,-307
-204,-29,175,117,-190,73,287,248,-63,-302,-409,-312
-219,-29,190,124,-204,80,287,244,-63,-317,-429,-322
-219,-34,185,126,-202,75,292,239,-78,-336,-444,-336
-229,-39,190,134,-209,75,292,234,-82,-351,-468,-351
-234,-43,190,139,-212,73,302,224,-82,-370,-473,-346
-248,-43,204,146,-226,80,307,229,-87,-380,-492,-361
-258,-43,214,151,-236,85,307,224,-97,-395,-512,-375
-268,-43,224,156,-246,90,307,219,-107,-409,-531,-390
-278,-53,224,165,-251,85,297,214,-117,-424,-551,-400
-283,-53,229,168,-256,87,302,209,-126,-444,-566,-409
-283,-53,229,168,-256,87,302,200,-136,-463,-585,-424
-297,-58,239,178,-268,90,297,190,-146,-483,-605,-439
-302,-58,244,180,-273,92,307,185,-151,-492,-614,-444
-307,-58,248,183,-278,95,307,175,-165,-512,-634,-453
-312,-68,244,190,-278,87,307,165,-170,-531,-653,-468
-322,-73,248,197,-285,87,302,156,-180,-551,-673,-478
-322,-73,248,197,-285,87,297,136,-200,-566,-688,-497
-331,-78,253,204,-292,87,297,126,-209,-585,-702,-507
-336,-82,253,209,-295,85,297,117,-224,-605,-722,-517
-336,-87,248,212,-292,80,287,107,-239,-624,-736,-531
-346,-97,248,222,-297,75,292,102,-244,-629,-741,-531
-346,-102,244,224,-295,70,292,92,-258,-649,-761,-541
-346,-107,239,226,-292,65,292,87,-263,-668,-785,-551
-346,-117,229,231,-287,56,287,78,-278,-678,-790,-561
-336,-126,209,231,-273,41,273,68,-292,-697,-814,-580
-336,-131,204,234,-270,36,268,58,-302,-712,-814,-590
-336,-141,195,239,-265,26,258,48,-312,-727,-819,-595
-326,-146,180,236,-253,17,253,39,-322,-732,-829,-600
-331,-161,170,246,-251,4,248,34,-331,-741,-834,-600
-331,-165,165,248,-248,0,248,24,-346,-746,-839,-600
-322,-165,156,244,-239,-4,244,14,-346,-746,-839,-600
-317,-170,146,244,-231,-12,239,14,-346,-741,-839,-600
-302,-175,126,239,-214,-24,219,4,-361,-746,-849,-610
-297,-180,117,239,-207,-31,214,-4,-366,-751,-839,-610
-283,-180,102,231,-192,-39,200,-14,-366,-746,-834,-610
-273,-190,82,231,-178,-53,195,-19,-366,-746,-829,-600
-273,-195,78,234,-175,-58,200,-29,-366,-741,-824,-590
-268,-195,73,231,-170,-61,195,-29,-366,-722,-810,-580
-258,-195,63,226,-161,-65,185,-29,-361,-712,-790,-570
-248,-195,53,222,-151,-70,180,-29,-351,-702,-775,-556
-229,-195,34,212,-131,-80,165,-39,-346,-688,-766,-551
-219,-195,24,207,-122,-85,161,-34,-341,-673,-751,-541
-209,-195,14,202,-112,-90,161,-34,-341,-658,-727,-531
-195,-195,0,195,-97,-97,156,-34,-336,-639,-702,-522
-195,-195,0,195,-97,-97,146,-43,-322,-614,-692,-507
-185,-190,-4,187,-90,-97,131,-39,-317,-600,-668,-492
-175,-180,-4,178,-85,-92,126,-39,-302,-580,-639,-473
-165,-175,-9,170,-78,-92,122,-39,-287,-566,-614,-453
-156,-170,-14,163,-70,-92,107,-39,-273,-546,-590,-434
-141,-165,-24,153,-58,-95,102,-39,-268,-517,-566,-414
-131,-161,-29,146,-51,-95,102,-39,-258,-483,-541,-390
-122,-156,-34,139,-43,-95,97,-34,-253,-463,-507,-370
-122,-151,-29,136,-46,-90,82,-43,-244,-439,-488,-356
-112,-141,-29,126,-41,-85,73,-43,-229,-405,-458,-341
-102,-126,-24,114,-39,-75,73,-39,-214,-375,-429,-317
-92,-126,-34,109,-29,-80,63,-39,-204,-356,-395,-297
-78,-112,-34,95,-21,-73,58,-39,-180,-336,-375,-278
-68,-112,-43,90,-12,-78,53,-39,-165,-302,-346,-258
-68,-102,-34,85,-17,-68,48,-39,-161,-283,-317,-239
-58,-87,-29,73,-14,-58,43,-39,-146,-258,-287,-219
-53,-82,-29,68,-12,-56,43,-34,-141,-239,-263,-200
-48,-82,-34,65,-7,-58,39,-34,-131,-214,-239,-180
-39,-68,-29,53,-4,-48,34,-34,-122,-195,-214,-161
-34,-68,-34,51,0,-51,29,-34,-112,-175,-190,-141
-19,-58,-39,39,9,-48,14,-34,-112,-156,-175,-141
-14,-48,-34,31,9,-41,9,-34,-107,-141,-156,-126
-4,-39,-34,21,14,-36,9,-34,-97,-122,-136,-112
0,-29,-29,14,14,-29,4,-34,-82,-102,-122,-92
0,-34,-34,17,17,-34,0,-34,-68,-82,-97,-68
4,-34,-39,14,21,-36,-4,-34,-58,-68,-82,-58
4,-34,-39,14,21,-36,-4,-29,-53,-58,-68,-43
4,-29,-34,12,19,-31,-4,-29,-43,-43,-48,-34
14,-14,-29,0,21,-21,-4,-29,-39,-29,-43,-29
19,-9,-29,-4,24,-19,-9,-24,-34,-19,-29,-19
24,-4,-29,-9,26,-17,-14,-24,-29,-9,-19,-14
24,-4,-29,-9,26,-17,-14,-29,-24,0,-4,-4
24,-4,-29,-9,26,-17,-14,-29,-29,9,4,4
24,-4,-29,-9,26,-17,-14,-29,-24,14,14,14
29,-9,-39,-9,34,-24,-14,-29,-19,24,24,14
29,-9,-39,-9,34,-24,-19,-24,-14,34,29,19
29,-4,-34,-12,31,-19,-19,-24,-9,39,34,24
29,-4,-34,-12,31,-19,-19,-24,-9,48,48,29
29,0,-29,-14,29,-14,-19,-19,-14,48,48,34
29,0,-29,-14,29,-14,-24,-19,-14,53,53,34
29,0,-29,-14,29,-14,-24,-19,-9,53,58,34
34,0,-34,-17,34,-17,-24,-19,-9,58,63,39
34,0,-34,-17,34,-17,-24,-19,-9,58,63,39
34,0,-34,-17,34,-17,-24,-14,-9,58,63,39
34,0,-34,-17,34,-17,-14,-14,0,63,73,39
34,0,-34,-17,34,-17,-14,-14,0,63,73,39
34,0,-34,-17,34,-17,-14,-9,0,63,73,39
34,0,-34,-17,34,-17,-9,-9,4,63,73,39
34,4,-29,-19,31,-12,-9,-9,4,63,73,39
34,4,-29,-19,31,-12,-9,-9,4,63,73,43
34,4,-29,-19,31,-12,-9,-9,4,63,78,48
34,0,-34,-17,34,-17,-9,-9,4,63,78,48
24,-4,-29,-9,26,-17,-9,0,9,73,87,43
24,-4,-29,-9,26,-17,-9,0,9,73,87,43
24,-4,-29,-9,26,-17,-9,4,4,73,82,43
24,0,-24,-12,24,-12,-9,4,4,73,82,43
24,0,-24,-12,24,-12,-4,4,4,68,68,43
19,0,-19,-9,19,-9,-4,4,9,68,68,39
19,0,-19,-9,19,-9,-4,4,9,68,68,34
19,-4,-24,-7,21,-14,-4,4,4,68,68,34
19,-4,-24,-7,21,-14,-4,-4,4,73,68,48
19,-4,-24,-7,21,-14,-4,0,4,68,68,48
19,0,-19,-9,19,-9,0,0,4,68,63,43
19,4,-14,-12,17,-4,0,4,4,68,63,43
14,4,-9,-9,12,-2,0,4,4,68,63,34
14,4,-9,-9,12,-2,0,4,4,68,63,34
9,0,-9,-4,9,-4,0,9,4,68,63,34
9,-4,-14,-2,12,-9,0,9,0,63,53,29
9,-4,-14,-2,12,-9,9,9,4,58,53,29
9,-4,-14,-2,12,-9,4,9,4,58,53,29
9,-4,-14,-2,12,-9,4,4,4,58,53,29
9,-4,-14,-2,12,-9,9,4,4,58,53,29
9,-4,-14,-2,12,-9,0,4,4,48,53,19
9,0,-9,-4,9,-4,0,4,4,48,48,14
9,0,-9,-4,9,-4,0,4,4,48,43,14
9,-4,-14,-2,12,-9,0,4,0,39,43,14
9,-9,-19,0,14,-14,9,4,9,48,43,24
4,-9,-14,2,9,-12,9,4,9,48,43,19
4,-9,-14,2,9,-12,9,4,9,48,43,19
4,-9,-14,2,9,-12,14,4,9,48,43,19
4,-9,-14,2,9,-12,4,0,9,48,43,14
0,-4,-4,2,2,-4,4,-4,9,48,39,14
0,-4,-4,2,2,-4,4,-4,9,48,39,14
0,-4,-4,2,2,-4,4,-4,4,43,34,14
-4,-9,-4,7,0,-7,0,-4,-4,39,43,14
-4,-9,-4,7,0,-7,0,-4,0,39,34,14
-4,-9,-4,7,0,-7,4,-4,0,39,34,14
-4,-9,-4,7,0,-7,4,-4,-4,39,39,9
4,-9,-14,2,9,-12,4,-4,4,39,34,9
4,-9,-14,2,9,-12,0,-4,4,39,34,9
4,-9,-14,2,9,-12,0,-4,4,39,34,14
4,-9,-14,2,9,-12,4,-4,4,39,34,14
-4,-9,-4,7,0,-7,4,-4,4,48,39,14
-4,-14,-9,9,2,-12,4,-4,4,43,39,14
-4,-14,-9,9,2,-12,4,-4,4,43,39,9
-4,-14,-9,9,2,-12,4,-4,4,43,39,9
-4,-14,-9,9,2,-12,4,-4,0,43,24,0
-4,-14,-9,9,2,-12,4,-4,-4,39,24,0
-4,-14,-9,9,2,-12,4,-9,-4,34,24,0
-4,-14,-9,9,2,-12,4,-9,0,29,24,0
-4,-19,-14,12,4,-17,4,-9,0,39,24,9
-4,-19,-14,12,4,-17,4,-9,0,34,24,9
-4,-19,-14,12,4,-17,0,-9,0,29,24,9
-4,-14,-9,9,2,-12,0,-9,0,29,19,4
-4,-14,-9,9,2,-12,0,-9,4,34,19,-9
-4,-14,-9,9,2,-12,0,-14,4,34,19,-9
-4,-14,-9,9,2,-12,0,-14,4,34,14,-4
-4,-14,-9,9,2,-12,0,-14,4,34,14,0
-4,-14,-9,9,2,-12,0,-14,4,39,29,9
-4,-14,-9,9,2,-12,0,-14,4,39,29,9
-4,-19,-14,12,4,-17,0,-14,4,39,34,9
-4,-24,-19,14,7,-21,-4,-14,4,39,34,4
-4,-24,-19,14,7,-21,4,-19,-4,34,24,4
-4,-24,-19,14,7,-21,4,-19,-4,34,19,4
-4,-24,-19,14,7,-21,4,-19,-4,34,19,9
-4,-24,-19,14,7,-21,4,-19,-4,39,19,9
-4,-24,-19,14,7,-21,-4,-19,-4,39,34,4
-4,-24,-19,14,7,-21,-4,-19,-4,34,39,4
-4,-24,-19,14,7,-21,-4,-19,-4,34,39,4
-4,-19,-14,12,4,-17,-9,-19,-4,34,39,4
-4,-19,-14,12,4,-17,-9,-19,4,34,29,4
-4,-19,-14,12,4,-17,-9,-24,4,39,29,4
-4,-19,-14,12,4,-17,-4,-24,4,39,29,4
-4,-19,-14,12,4,-17,-4,-19,9,39,34,9
-4,-14,-9,9,2,-12,-14,-19,0,39,34,9
-4,-14,-9,9,2,-12,-14,-19,0,39,34,9
-4,-19,-14,12,4,-17,-14,-24,0,39,34,9
-4,-24,-19,14,7,-21,-19,-24,-4,39,39,9
-4,-19,-14,12,4,-17,-14,-14,0,39,34,9
-4,-19,-14,12,4,-17,-14,-14,0,39,34,9
-4,-19,-14,12,4,-17,-14,-14,0,39,34,9
-4,-19,-14,12,4,-17,-14,-14,0,39,34,9
-4,-19,-14,12,4,-17,-14,-24,0,34,34,14
-4,-19,-14,12,4,-17,-14,-29,0,34,34,14
-4,-19,-14,12,4,-17,-14,-29,0,34,34,14
-4,-19,-14,12,4,-17,-19,-29,0,34,34,9
-4,-14,-9,9,2,-12,-19,-19,-4,34,43,9
-4,-14,-9,9,2,-12,-19,-19,-4,39,43,14
-4,-14,-9,9,2,-12,-19,-19,-4,39,43,14
-4,-14,-9,9,2,-12,-19,-19,-4,39,43,14
-4,-24,-19,14,7,-21,-19,-29,-4,39,34,14
-4,-24,-19,14,7,-21,-19,-29,-4,39,39,19
-4,-19,-14,12,4,-17,-19,-29,-4,39,39,19
-4,-19,-14,12,4,-17,-19,-29,-4,39,39,14
-4,-19,-14,12,4,-17,-19,-29,-4,39,48,14
-4,-19,-14,12,4,-17,-19,-29,-4,39,48,14
-4,-19,-14,12,4,-17,-19,-34,-4,39,48,19
-4,-19,-14,12,4,-17,-19,-34,-4,39,48,19
-4,-19,-14,12,4,-17,-19,-34,-4,39,39,14
-4,-19,-14,12,4,-17,-24,-34,-4,39,39,14
-4,-19,-14,12,4,-17,-24,-34,-4,39,39,14
-4,-19,-14,12,4,-17,-24,-34,-4,39,39,14
4,-14,-19,4,12,-17,-24,-24,-4,39,48,9
4,-14,-19,4,12,-17,-34,-24,-4,39,48,9
4,-14,-19,4,12,-17,-34,-24,-4,39,48,14
4,-9,-14,2,9,-12,-29,-24,-4,39,53,14
-4,-9,-4,7,0,-7,-29,-29,-4,39,48,14
-4,-9,-4,7,0,-7,-29,-29,-4,39,48,14
-4,-9,-4,7,0,-7,-29,-29,-4,39,48,19
-4,-9,-4,7,0,-7,-29,-29,-4,39,48,19
-4,-19,-14,12,4,-17,-29,-29,-4,43,39,19
-4,-19,-14,12,4,-17,-29,-34,-4,43,39,19
-4,-19,-14,12,4,-17,-29,-34,-4,43,39,14
-4,-19,-14,12,4,-17,-29,-34,-4,43,39,14
-4,-14,-9,9,2,-12,-29,-34,-4,43,48,14
-4,-14,-9,9,2,-12,-29,-34,-4,43,48,19
-4,-14,-9,9,2,-12,-34,-34,-4,43,48,19
-4,-14,-9,9,2,-12,-34,-34,-4,43,53,19
4,-24,-29,9,17,-26,-24,-34,4,43,63,19
-4,-24,-19,14,7,-21,-24,-24,4,53,63,29
-14,-14,0,14,-7,-7,-24,-24,4,53,53,34
0,-9,-9,4,4,-9,-29,-29,0,48,58,29
0,-9,-9,4,4,-9,-39,-29,0,48,48,19
0,-9,-9,4,4,-9,-39,-29,0,48,48,19
0,-9,-9,4,4,-9,-39,-29,0,48,48,19
0,-9,-9,4,4,-9,-39,-29,0,48,48,19
0,-19,-19,9,9,-19,-29,-29,0,48,58,29
0,-19,-19,9,9,-19,-29,-29,0,48,58,29
0,-19,-19,9,9,-19,-29,-29,0,48,58,29
0,-19,-19,9,9,-19,-29,-29,0,48,58,29
-9,-9,0,9,-4,-4,-39,-29,0,48,48,29
-9,-9,0,9,-4,-4,-39,-29,0,48,48,29
-9,-9,0,9,-4,-4,-39,-29,0,48,48,29
-9,-9,0,9,-4,-4,-39,-29,0,48,48,29
0,-9,-9,4,4,-9,-29,-39,0,48,58,29
0,-9,-9,4,4,-9,-29,-39,0,48,58,29
0,-9,-9,4,4,-9,-29,-39,0,48,58,29
0,-9,-9,4,4,-9,-29,-39,0,48,58,29
0,-19,-19,9,9,-19,-29,-39,0,39,58,29
0,-19,-19,9,9,-19,-29,-39,0,39,58,29
0,-19,-19,9,9,-19,-29,-39,0,39,58,29
0,-19,-19,9,9,-19,-29,-39,0,39,58,29
9,-9,-19,0,14,-14,-29,-39,9,48,58,39
9,-9,-19,0,14,-14,-29,-39,9,48,58,39
9,-9,-19,0,14,-14,-29,-39,9,48,58,39
9,-9,-19,0,14,-14,-29,-39,9,48,58,39
0,-9,-9,4,4,-9,-29,-39,0,39,48,34
0,-9,-9,4,4,-9,-29,-39,0,39,48,29
0,-9,-9,4,4,-9,-29,-39,0,39,48,24
0,-9,-9,4,4,-9,-29,-39,0,39,48,19
0,-9,-9,4,4,-9,-29,-29,9,48,48,19
0,-9,-9,4,4,-9,-29,-29,9,48,48,19
0,-9,-9,4,4,-9,-29,-29,9,48,48,19
0,-9,-9,4,4,-9,-29,-29,9,48,48,19
0,-9,-9,4,4,-9,-29,-39,0,39,48,19
0,-9,-9,4,4,-9,-29,-39,0,39,48,19
0,-9,-9,4,4,-9,-29,-39,0,39,48,19
0,-9,-9,4,4,-9,-29,-39,0,39,48,19
0,-9,-9,4,4,-9,-29,-39,0,48,58,24
0,-9,-9,4,4,-9,-29,-39,0,48,58,29
0,-9,-9,4,4,-9,-29,-39,0,48,58,34
0,-9,-9,4,4,-9,-29,-39,0,48,58,39
0,0,0,0,0,0,-29,-39,9,48,58,39
0,0,0,0,0,0,-29,-39,9,48,58,39
0,0,0,0,0,0,-29,-39,9,48,58,39
0,0,0,0,0,0,-29,-39,9,48,58,39
0,-9,-9,4,4,-9,-29,-39,9,48,58,29
0,-9,-9,4,4,-9,-29,-39,9,48,58,29
0,-9,-9,4,4,-9,-29,-39,9,48,58,29
0,-9,-9,4,4,-9,-29,-39,9,48,58,29
0,0,0,0,0,0,-29,-39,9,48,48,29
0,0,0,0,0,0,-29,-39,9,48,48,29
0,0,0,0,0,0,-29,-39,9,48,48,29
0,0,0,0,0,0,-29,-39,9,48,48,29
0,-9,-9,4,4,-9,-29,-39,0,48,58,29
0,-9,-9,4,4,-9,-29,-39,0,48,58,29
0,-9,-9,4,4,-9,-29,-39,0,48,58,29
0,-9,-9,4,4,-9,-29,-39,0,48,58,29
0,-9,-9,4,4,-9,-29,-39,0,48,58,29
0,-9,-9,4,4,-9,-29,-39,0,48,58,29
0,-9,-9,4,4,-9,-29,-39,0,48,58,29
0,-9,-9,4,4,-9,-29,-39,0,48,58,29
0,0,0,0,0,0,-29,-39,9,48,68,39
0,0,0,0,0,0,-29,-39,9,48,68,39
0,0,0,0,0,0,-29,-39,9,48,68,39
0,0,0,0,0,0,-29,-39,9,48,68,39
0,0,0,0,0,0,-39,-29,0,48,58,29
0,0,0,0,0,0,-39,-29,0,48,58,29
0,0,0,0,0,0,-39,-29,0,48,58,29
0,0,0,0,0,0,-39,-29,0,48,58,29
0,-9,-9,4,4,-9,-39,-39,0,39,58,29
0,-9,-9,4,4,-9,-39,-39,0,39,58,29
0,-9,-9,4,4,-9,-39,-39,0,39,58,29
0,-9,-9,4,4,-9,-39,-39,0,39,58,29
9,0,-9,-4,9,-4,-39,-39,9,48,58,29
9,0,-9,-4,9,-4,-39,-39,9,48,58,29
9,0,-9,-4,9,-4,-39,-39,9,48,58,29
9,0,-9,-4,9,-4,-39,-39,9,48,58,29
0,0,0,0,0,0,-39,-39,9,48,58,29
0,0,0,0,0,0,-39,-39,9,48,58,29
0,0,0,0,0,0,-39,-39,9,48,58,29
0,0,0,0,0,0,-39,-39,9,48,58,29
9,0,-9,-4,9,-4,-29,-39,0,48,58,29
9,0,-9,-4,9,-4,-29,-39,0,48,58,29
9,0,-9,-4,9,-4,-29,-39,0,48,58,29
9,0,-9,-4,9,-4,-29,-39,0,48,58,29
9,0,-9,-4,9,-4,-39,-39,9,48,58,39
9,0,-9,-4,9,-4,-39,-39,9,48,58,39
9,0,-9,-4,9,-4,-39,-39,9,48,58,39
9,0,-9,-4,9,-4,-39,-39,9,48,58,39
0,-9,-9,4,4,-9,-39,-39,9,48,58,39
0,-9,-9,4,4,-9,-39,-39,9,48,58,39
0,-9,-9,4,4,-9,-39,-39,9,48,58,39
0,-9,-9,4,4,-9,-39,-39,9,48,58,39
0,0,0,0,0,0,-39,-39,9,48,58,39
0,0,0,0,0,0,-39,-39,9,48,58,39
0,0,0,0,0,0,-39,-39,9,48,58,39
0,0,0,0,0,0,-39,-39,9,48,58,39
9,0,-9,-4,9,-4,-39,-39,9,48,68,39
9,0,-9,-4,9,-4,-39,-39,9,48,68,39
9,0,-9,-4,9,-4,-39,-39,9,48,68,39
9,0,-9,-4,9,-4,-39,-39,9,48,68,39
0,0,0,0,0,0,-39,-39,9,48,58,29
0,0,0,0,0,0,-39,-39,9,48,58,29
0,0,0,0,0,0,-39,-39,9,48,58,29
0,0,0,0,0,0,-39,-39,9,48,58,29
0,0,0,0,0,0,-29,-29,9,58,58,39
0,0,0,0,0,0,-29,-29,9,58,58,39
0,0,0,0,0,0,-29,-29,9,58,58,39
0,0,0,0,0,0,-29,-29,9,58,58,39
0,0,0,0,0,0,-39,-39,9,48,58,29
0,0,0,0,0,0,-39,-39,9,48,58,29
0,0,0,0,0,0,-39,-39,9,48,58,29
0,0,0,0,0,0,-39,-39,9,48,58,29
0,0,0,0,0,0,-39,-39,9,58,68,34
0,0,0,0,0,0,-39,-39,9,58,68,39
0,0,0,0,0,0,-39,-39,9,58,68,43
0,0,0,0,0,0,-39,-39,9,58,68,48
0,0,0,0,0,0,-39,-39,9,53,58,43
0,0,0,0,0,0,-39,-39,9,48,58,39
0,0,0,0,0,0,-39,-39,9,43,58,34
0,0,0,0,0,0,-39,-39,9,39,58,29
0,9,9,-4,-4,9,-39,-29,9,48,68,39
0,9,9,-4,-4,9,-39,-29,9,48,68,39
0,9,9,-4,-4,9,-39,-29,9,48,68,39
0,9,9,-4,-4,9,-39,-29,9,48,68,39
0,0,0,0,0,0,-39,-29,9,48,58,39
0,0,0,0,0,0,-39,-29,9,48,58,39
0,0,0,0,0,0,-39,-29,9,48,58,39
0,0,0,0,0,0,-39,-29,9,48,58,39
9,9,0,-9,4,4,-29,-29,19,58,68,39
9,9,0,-9,4,4,-29,-29,19,58,68,39
9,9,0,-9,4,4,-29,-29,19,58,68,39
9,9,0,-9,4,4,-29,-29,19,58,68,39
19,24,4,-21,7,14,-19,-24,29,68,78,48
19,29,9,-24,4,19,-19,-19,29,68,78,48
19,34,14,-26,2,24,-19,-14,29,68,78,48
19,39,19,-29,0,29,-19,-9,29,68,78,48
34,53,19,-43,7,36,-14,-4,43,82,82,53
39,58,19,-48,9,39,-9,0,48,87,87,58
43,63,19,-53,12,41,-4,4,53,92,92,63
48,68,19,-58,14,43,0,9,58,97,97,68
48,82,34,-65,7,58,4,14,63,107,107,73
48,97,48,-73,0,73,14,29,78,112,112,78
48,102,53,-75,-2,78,29,39,82,117,112,82
43,92,48,-68,-2,70,39,48,87,117,112,87
48,73,24,-61,12,48,53,58,87,122,112,87
43,53,9,-48,17,31,53,58,87,112,102,78
43,53,9,-48,17,31,53,63,82,112,102,78
58,58,0,-58,29,29,48,63,82,117,102,82
73,92,19,-82,26,56,24,63,92,131,131,92
92,117,24,-104,34,70,14,68,112,146,151,107
97,141,43,-119,26,92,-14,68,122,161,165,122
107,141,34,-124,36,87,-53,48,112,161,170,131
126,141,14,-134,56,78,-82,34,102,156,170,131
136,131,-4,-134,70,63,-102,29,97,156,161,131
141,117,-24,-129,82,46,-92,29,92,151,161,131
141,107,-34,-124,87,36,-82,19,87,141,151,122
126,97,-29,-112,78,34,-68,24,82,131,146,122
126,97,-29,-112,78,34,-68,19,78,126,141,112
126,97,-29,-112,78,34,-63,14,73,122,136,112
117,87,-29,-102,73,29,-63,0,53,107,126,97
117,63,-53,-90,85,4,-63,-29,39,87,112,82
117,39,-78,-78,97,-19,-63,-29,24,82,102,73
107,29,-78,-68,92,-24,-48,-19,34,82,102,73
102,39,-63,-70,82,-12,-39,-14,43,92,102,73
97,43,-53,-70,75,-4,-39,-14,43,92,102,73
97,53,-43,-75,70,4,-48,-14,43,97,112,82
92,58,-34,-75,63,12,-58,-24,43,97,112,82
87,63,-24,-75,56,19,-63,-34,43,97,112,82
87,63,-24,-75,56,19,-63,-24,43,97,112,82
87,63,-24,-75,56,19,-63,-19,43,97,112,82
87,63,-24,-75,56,19,-58,-9,48,97,112,82
78,53,-24,-65,51,14,-58,-9,48,92,112,82
63,34,-29,-48,46,2,-58,-19,19,78,102,73
53,14,-39,-34,46,-12,-48,-34,9,63,87,58
39,-9,-48,-14,43,-29,-48,-34,0,48,73,48
24,-9,-34,-7,29,-21,-39,-34,0,48,68,48
14,0,-14,-7,14,-7,-34,-39,9,53,68,43
14,-4,-19,-4,17,-12,-34,-34,9,53,73,43
14,-4,-19,-4,17,-12,-39,-34,9,53,73,43
19,-4,-24,-7,21,-14,-43,-34,4,53,68,39
19,-4,-24,-7,21,-14,-39,-34,14,63,68,39
19,-4,-24,-7,21,-14,-43,-43,14,58,68,39
19,-4,-24,-7,21,-14,-43,-48,9,58,68,39
14,-4,-19,-4,17,-12,-43,-48,9,53,68,39
14,-9,-24,-2,19,-17,-43,-48,4,43,68,29
14,-9,-24,-2,19,-17,-43,-48,4,43,68,29
19,-14,-34,-2,26,-24,-48,-48,0,43,63,29
19,-14,-34,-2,26,-24,-48,-48,0,43,63,29
14,-14,-29,0,21,-21,-58,-39,0,43,63,34
14,-14,-29,0,21,-21,-58,-39,0,43,63,34
14,-14,-29,0,21,-21,-58,-39,0,43,63,34
14,-14,-29,0,21,-21,-53,-39,0,43,63,34
14,-9,-24,-2,19,-17,-53,-48,0,43,63,29
9,-9,-19,0,14,-14,-53,-48,0,43,63,29
9,-14,-24,2,17,-19,-53,-43,0,43,63,34
9,-14,-24,2,17,-19,-53,-43,0,43,63,34
4,-14,-19,4,12,-17,-43,-43,0,53,63,34
4,-14,-19,4,12,-17,-43,-43,0,53,63,29
4,-14,-19,4,12,-17,-43,-39,0,53,58,29
4,-14,-19,4,12,-17,-43,-39,0,53,58,29
4,-19,-24,7,14,-21,-48,-39,0,43,58,29
0,-19,-19,9,9,-19,-48,-39,0,43,58,29
0,-19,-19,9,9,-19,-48,-39,0,43,58,29
0,-19,-19,9,9,-19,-48,-39,0,43,58,29
0,-29,-29,14,14,-29,-34,-29,0,43,58,29
0,-29,-29,14,14,-29,-34,-29,0,43,58,29
-4,-29,-24,17,9,-26,-34,-29,0,43,58,29
-4,-24,-19,14,7,-21,-34,-24,0,39,58,29
-4,-24,-19,14,7,-21,-43,-24,0,39,58,19
-4,-24,-19,14,7,-21,-43,-24,0,39,58,19
0,-24,-24,12,12,-24,-43,-24,0,39,58,19
0,-24,-24,12,12,-24,-43,-24,4,43,58,24
0,-24,-24,12,12,-24,-34,-24,4,43,68,34
0,-24,-24,12,12,-24,-34,-24,4,43,68,34
0,-24,-24,12,12,-24,-34,-24,9,43,73,34
0,-24,-24,12,12,-24,-34,-24,9,43,73,34
0,-19,-19,9,9,-19,-34,-14,9,43,63,14
-14,-29,-14,21,0,-21,-24,-19,9,43,58,19
-19,-48,-29,34,4,-39,-9,0,9,34,53,19
-29,-68,-39,48,4,-53,19,24,19,34,39,9
-43,-92,-48,68,2,-70,53,53,29,29,29,-9
-73,-112,-39,92,-17,-75,97,107,48,29,9,-29
-78,-131,-53,104,-12,-92,165,185,87,39,-4,-53
-87,-151,-63,119,-12,-107,209,244,117,48,-19,-68
-97,-185,-87,141,-4,-136,248,287,131,43,-43,-102
-97,-219,-122,158,12,-170,263,322,136,34,-58,-126
-92,-219,-126,156,17,-173,273,341,156,53,-58,-126
-92,-200,-107,146,7,-153,292,370,219,112,-19,-92
-73,-190,-117,131,21,-153,292,409,253,165,24,-73
-29,-185,-156,107,63,-170,302,458,287,209,58,-53
48,-151,-200,51,124,-175,302,551,370,297,146,9
141,-24,-165,-58,153,-95,263,658,502,473,322,156
253,190,-63,-222,158,63,136,673,663,692,575,380
400,439,39,-419,180,239,-48,561,785,922,834,624
546,673,126,-610,209,400,-263,370,883,1146,1112,873
688,946,258,-817,214,602,-512,78,966,1395,1439,1161
854,1263,409,-1058,222,836,-839,-307,1015,1625,1776,1483
1039,1576,536,-1307,251,1056,-1156,-658,1029,1844,2103,1800
1205,1825,619,-1515,292,1222,-1390,-932,1024,2020,2410,2074
1332,2015,683,-1673,324,1349,-1546,-1205,936,2127,2640,2303
1415,2152,736,-1783,339,1444,-1693,-1522,795,2152,2815,2469
1434,2166,732,-1800,351,1449,-1795,-1800,649,2147,2913,2576
1366,2088,722,-1727,322,1405,-1859,-2000,497,2074,2923,2591
1268,2039,771,-1654,248,1405,-1893,-2176,400,2025,2932,2615
1161,2117,956,-1639,102,1537,-1864,-2220,468,2122,3045,2723
1024,2132,1107,-1578,-41,1620,-1683,-2069,595,2200,3103,2791
814,1859,1044,-1337,-114,1451,-1410,-1912,497,1966,2820,2566
590,1400,810,-995,-109,1105,-1137,-1820,170,1415,2230,2083
380,966,585,-673,-102,775,-873,-1732,-209,771,1522,1522
209,595,385,-402,-87,490,-663,-1625,-517,219,907,1034
102,346,244,-224,-70,295,-546,-1507,-678,-122,502,668
19,214,195,-117,-87,204,-478,-1356,-683,-268,263,434
-14,122,136,-53,-75,129,-463,-1166,-634,-312,117,273
-39,48,87,-4,-63,68,-448,-961,-561,-346,-29,107
-48,-14,34,31,-41,9,-356,-707,-458,-346,-165,-58
-43,-19,24,31,-34,2,-224,-453,-317,-258,-175,-92
4,24,19,-14,-7,21,-117,-248,-165,-136,-82,-34
43,43,0,-43,21,21,-53,-107,-73,-58,-34,-9
48,9,-39,-29,43,-14,-9,-24,-39,-34,-43,-19
43,-14,-58,-14,51,-36,24,19,-24,-24,-34,-19
34,-14,-48,-9,41,-31,43,53,0,0,-19,-19
29,-29,-58,0,43,-43,63,68,19,0,-19,-24
24,-48,-73,12,48,-61,73,68,9,-9,-29,-39
19,-63,-82,21,51,-73,78,78,4,-14,-43,-39
9,-63,-73,26,41,-68,73,97,4,-9,-39,-48
9,-73,-82,31,46,-78,73,102,4,-14,-43,-53
4,-78,-82,36,43,-80,82,102,4,-24,-48,-68
0,-73,-73,36,36,-73,78,102,-4,-24,-63,-68
0,-78,-78,39,39,-78,78,112,0,-24,-63,-73
0,-82,-82,41,41,-82,78,112,4,-24,-68,-73
4,-87,-92,41,48,-90,82,126,9,-24,-68,-73
4,-87,-92,41,48,-90,82,136,19,-19,-68,-73
0,-82,-82,41,41,-82,82,136,24,-19,-68,-78
0,-82,-82,41,41,-82,87,141,24,-19,-68,-82
0,-87,-87,43,43,-87,92,151,24,-19,-68,-82
0,-87,-87,43,43,-87,92,165,14,-24,-68,-82
0,-87,-87,43,43,-87,92,170,19,-24,-68,-82
0,-87,-87,43,43,-87,92,175,19,-19,-68,-82
0,-97,-97,48,48,-97,92,180,24,-14,-68,-82
9,-97,-107,43,58,-102,107,170,34,-14,-68,-82
9,-92,-102,41,56,-97,107,170,34,-14,-68,-82
9,-92,-102,41,56,-97,107,170,34,-14,-68,-87
9,-92,-102,41,56,-97,107,175,34,-19,-68,-87
9,-82,-92,36,51,-87,97,185,24,-19,-73,-87
9,-82,-92,36,51,-87,97,185,29,-19,-73,-87
9,-82,-92,36,51,-87,102,185,29,-19,-78,-87
9,-87,-97,39,53,-92,102,190,34,-14,-78,-87
9,-97,-107,43,58,-102,102,190,34,-14,-68,-87
9,-97,-107,43,58,-102,102,190,34,-14,-68,-87
9,-97,-107,43,58,-102,102,195,34,-19,-68,-87
9,-92,-102,41,56,-97,107,200,34,-19,-68,-92
4,-92,-97,43,51,-95,107,190,34,-24,-68,-92
4,-92,-97,43,51,-95,107,190,34,-24,-68,-92
4,-92,-97,43,51,-95,102,190,34,-29,-68,-92
4,-92,-97,43,51,-95,102,185,34,-29,-68,-92
-4,-102,-97,53,46,-100,107,195,34,-24,-68,-92
0,-102,-102,51,51,-102,107,200,34,-24,-73,-92
0,-102,-102,51,51,-102,107,200,34,-24,-73,-92
0,-102,-102,51,51,-102,107,204,34,-24,-78,-92
4,-102,-107,48,56,-104,107,209,43,-34,-87,-102
4,-102,-107,48,56,-104,112,209,43,-34,-87,-102
4,-102,-107,48,56,-104,112,204,43,-34,-87,-102
4,-102,-107,48,56,-104,112,204,43,-34,-87,-102
-4,-102,-97,53,46,-100,112,209,43,-24,-78,-92
-4,-97,-92,51,43,-95,112,214,43,-24,-78,-92
-4,-97,-92,51,43,-95,112,214,43,-29,-78,-92
-4,-97,-92,51,43,-95,112,214,43,-29,-78,-92
-4,-102,-97,53,46,-100,112,204,34,-39,-87,-97
-4,-102,-97,53,46,-100,112,204,34,-39,-92,-102
-4,-102,-97,53,46,-100,112,204,34,-39,-97,-102
-4,-102,-97,53,46,-100,112,204,29,-43,-97,-102
-4,-102,-97,53,46,-100,117,214,39,-43,-87,-102
-9,-107,-97,58,43,-102,117,219,39,-43,-87,-102
-9,-107,-97,58,43,-102,117,219,39,-43,-87,-102
-9,-107,-97,58,43,-102,122,219,39,-43,-92,-107
-9,-102,-92,56,41,-97,122,214,39,-39,-102,-107
-9,-102,-92,56,41,-97,122,214,39,-39,-102,-107
-9,-102,-92,56,41,-97,122,214,39,-39,-102,-107
-9,-102,-92,56,41,-97,122,214,39,-39,-102,-107
-9,-102,-92,56,41,-97,122,224,39,-48,-112,-117
-14,-102,-87,58,36,-95,122,229,39,-43,-112,-117
-14,-102,-87,58,36,-95,126,229,39,-43,-112,-117
-14,-102,-87,58,36,-95,131,229,39,-53,-112,-117
-14,-107,-92,61,39,-100,131,219,24,-63,-112,-122
-14,-102,-87,58,36,-95,131,224,24,-63,-117,-122
-14,-102,-87,58,36,-95,131,224,24,-63,-122,-122
-19,-102,-82,61,31,-92,131,224,29,-63,-122,-122
-19,-102,-82,61,31,-92,131,234,29,-53,-122,-112
-19,-102,-82,61,31,-92,131,234,24,-53,-122,-112
-19,-107,-87,63,34,-97,136,234,24,-58,-122,-112
-19,-107,-87,63,34,-97,141,239,24,-58,-122,-112
-9,-97,-87,53,39,-92,141,234,24,-58,-126,-126
-14,-97,-82,56,34,-90,136,234,24,-68,-126,-131
-14,-97,-82,56,34,-90,136,234,24,-68,-131,-131
-14,-92,-78,53,31,-85,136,234,24,-68,-136,-131
-24,-97,-73,61,24,-85,136,234,34,-68,-136,-126
-24,-97,-73,61,24,-85,136,234,29,-68,-136,-126
-24,-97,-73,61,24,-85,136,234,29,-68,-136,-126
-24,-97,-73,61,24,-85,141,234,29,-73,-146,-131
-19,-97,-78,58,29,-87,141,234,19,-73,-136,-146
-19,-92,-73,56,26,-82,141,234,19,-73,-136,-151
-19,-87,-68,53,24,-78,146,239,19,-78,-146,-151
-24,-87,-63,56,19,-75,146,239,19,-87,-151,-151
-34,-97,-63,65,14,-80,156,234,19,-87,-161,-151
-34,-97,-63,65,14,-80,156,234,19,-82,-165,-161
-34,-97,-63,65,14,-80,165,239,19,-82,-165,-161
-34,-97,-63,65,14,-80,165,239,19,-82,-165,-161
-24,-97,-73,61,24,-85,165,244,14,-82,-165,-146
-29,-97,-68,63,19,-82,165,244,14,-97,-170,-146
-29,-97,-68,63,19,-82,165,248,4,-102,-180,-156
-34,-97,-63,65,14,-80,165,248,4,-107,-180,-156
-48,-102,-53,75,2,-78,161,248,0,-117,-190,-170
-48,-102,-53,75,2,-78,170,248,0,-117,-195,-170
-48,-107,-58,78,4,-82,175,248,0,-117,-195,-170
-48,-107,-58,78,4,-82,175,253,0,-122,-200,-175
-58,-102,-43,80,-7,-73,175,253,9,-126,-214,-175
-58,-97,-39,78,-9,-68,175,253,4,-131,-219,-180
-58,-97,-39,78,-9,-68,180,258,4,-136,-224,-185
-58,-92,-34,75,-12,-63,185,258,4,-141,-229,-190
-63,-102,-39,82,-12,-70,190,258,0,-151,-234,-200
-63,-92,-29,78,-17,-61,190,258,0,-156,-239,-204
-68,-87,-19,78,-24,-53,190,263,0,-156,-244,-204
-68,-87,-19,78,-24,-53,195,268,0,-156,-248,-204
-68,-87,-19,78,-24,-53,200,268,0,-156,-253,-214
-68,-87,-19,78,-24,-53,200,268,-4,-165,-258,-214
-78,-87,-9,82,-34,-48,200,273,-14,-170,-273,-219
-82,-87,-4,85,-39,-46,200,278,-14,-175,-273,-229
-87,-82,4,85,-46,-39,209,278,-9,-190,-287,-239
-87,-78,9,82,-48,-34,209,278,-9,-200,-302,-244
-92,-78,14,85,-53,-31,214,278,-14,-204,-302,-248
-92,-78,14,85,-53,-31,219,278,-14,-209,-317,-258
-92,-73,19,82,-56,-26,224,278,-24,-224,-322,-248
-97,-73,24,85,-61,-24,229,273,-24,-234,-331,-253
-102,-78,24,90,-63,-26,229,273,-29,-239,-341,-258
-107,-82,24,95,-65,-29,229,268,-39,-248,-351,-268
-122,-73,48,97,-85,-12,219,268,-39,-263,-366,-278
-126,-68,58,97,-92,-4,229,268,-39,-268,-380,-287
-131,-63,68,97,-100,2,234,268,-39,-287,-395,-302
-136,-63,73,100,-104,4,234,268,-43,-302,-414,-312
-136,-73,63,104,-100,-4,224,268,-48,-317,-429,-326
-141,-73,68,107,-104,-2,229,258,-53,-322,-434,-331
-151,-73,78,112,-114,2,234,253,-63,-336,-453,-341
-161,-73,87,117,-124,7,239,253,-68,-351,-463,-351
-180,-73,107,126,-143,17,248,248,-82,-375,-478,-370
-185,-68,117,126,-151,24,248,244,-82,-385,-492,-370
-195,-63,131,129,-163,34,248,239,-87,-400,-507,-385
-204,-58,146,131,-175,43,253,234,-102,-414,-527,-405
-204,-68,136,136,-170,34,258,229,-112,-439,-546,-400
-219,-68,151,143,-185,41,258,224,-112,-453,-566,-409
-219,-73,146,146,-183,36,263,219,-126,-473,-580,-424
-229,-78,151,153,-190,36,263,214,-131,-488,-605,-439
-234,-82,151,158,-192,34,263,190,-151,-522,-624,-448
-248,-82,165,165,-207,41,268,190,-156,-536,-649,-468
-258,-82,175,170,-217,46,268,180,-165,-556,-673,-488
-268,-82,185,175,-226,51,268,170,-175,-575,-697,-507
-278,-92,185,185,-231,46,258,165,-185,-590,-717,-507
-283,-92,190,187,-236,48,263,161,-195,-610,-732,-517
-283,-92,190,187,-236,48,263,151,-204,-629,-751,-531
-297,-97,200,197,-248,51,258,141,-214,-649,-771,-546
-292,-97,195,195,-244,48,258,136,-229,-678,-800,-570
-297,-97,200,197,-248,51,258,126,-244,-697,-819,-580
-302,-107,195,204,-248,43,258,117,-248,-717,-839,-595
-312,-112,200,212,-256,43,253,107,-258,-736,-858,-605
-312,-112,200,212,-256,43,258,97,-258,-751,-873,-614
-322,-117,204,219,-263,43,258,87,-268,-771,-888,-624
-326,-122,204,224,-265,41,258,78,-283,-790,-907,-634
-326,-126,200,226,-263,36,248,68,-297,-810,-922,-649
-326,-126,200,226,-263,36,234,43,-322,-834,-936,-668
-326,-131,195,229,-261,31,234,34,-336,-854,-956,-678
-326,-136,190,231,-258,26,234,29,-341,-873,-980,-688
-326,-146,180,236,-253,17,229,19,-356,-883,-985,-697
-326,-156,170,241,-248,7,234,19,-361,-883,-1000,-702
-326,-161,165,244,-246,2,229,9,-370,-897,-1000,-707
-326,-170,156,248,-241,-7,219,0,-380,-912,-1005,-707
-317,-175,141,246,-229,-17,214,-9,-390,-917,-1015,-707
-302,-180,122,241,-212,-29,209,-4,-390,-927,-1019,-717
-302,-185,117,244,-209,-34,209,-14,-405,-932,-1024,-717
-292,-185,107,239,-200,-39,204,-24,-405,-932,-1024,-717
-287,-190,97,239,-192,-46,200,-24,-405,-927,-1024,-717
-283,-204,78,244,-180,-63,190,-29,-400,-922,-1010,-712
-278,-209,68,244,-173,-70,185,-34,-405,-917,-995,-707
-263,-209,53,236,-158,-78,170,-39,-405,-902,-985,-702
-253,-219,34,236,-143,-92,165,-39,-405,-893,-976,-688
-253,-214,39,234,-146,-87,165,-39,-395,-878,-961,-678
-248,-214,34,231,-141,-90,165,-39,-395,-858,-946,-668
-239,-214,24,226,-131,-95,161,-39,-390,-849,-927,-658
-229,-214,14,222,-122,-100,161,-39,-380,-839,-912,-644
-219,-224,-4,222,-107,-114,146,-39,-370,-805,-888,-624
-209,-224,-14,217,-97,-119,141,-34,-361,-790,-868,-610
-200,-224,-24,212,-87,-124,141,-34,-356,-775,-839,-595
-185,-224,-39,204,-73,-131,136,-34,-346,-756,-810,-580
-165,-214,-48,190,-58,-131,126,-34,-331,-717,-780,-556
-156,-209,-53,183,-51,-131,112,-29,-326,-697,-756,-541
-146,-200,-53,173,-46,-126,107,-29,-312,-673,-727,-522
-136,-195,-58,165,-39,-126,102,-29,-297,-653,-702,-502
-136,-190,-53,163,-41,-122,107,-19,-278,-614,-658,-483
-122,-185,-63,153,-29,-124,102,-19,-268,-585,-634,-463
-112,-180,-68,146,-21,-124,102,-19,-253,-551,-610,-439
-102,-175,-73,139,-14,-124,97,-14,-244,-531,-575,-419
-92,-170,-78,131,-7,-124,82,-14,-224,-497,-536,-385
-82,-161,-78,122,-2,-119,73,-14,-209,-463,-507,-370
-73,-146,-73,109,0,-109,73,-9,-195,-434,-478,-346
-63,-146,-82,104,9,-114,63,-9,-185,-414,-444,-326
-58,-131,-73,95,7,-102,58,-9,-170,-375,-405,-302
-48,-131,-82,90,17,-107,53,-9,-156,-341,-375,-278
-48,-122,-73,85,12,-97,48,-9,-151,-322,-346,-253
-39,-107,-68,73,14,-87,43,-9,-136,-297,-317,-229
-34,-92,-58,63,12,-75,43,-14,-122,-268,-292,-209
-29,-92,-63,61,17,-78,39,-14,-112,-244,-268,-190
-19,-78,-58,48,19,-68,34,-14,-102,-224,-244,-170
-14,-78,-63,46,24,-70,29,-14,-92,-204,-219,-151
-19,-73,-53,46,17,-63,24,-14,-82,-175,-185,-141
-14,-68,-53,41,19,-61,19,-14,-78,-161,-165,-126
-4,-63,-58,34,26,-61,19,-14,-68,-141,-146,-112
0,-58,-58,29,29,-58,14,-14,-53,-122,-131,-92
9,-53,-63,21,36,-58,9,-14,-48,-92,-107,-78
14,-53,-68,19,41,-61,4,-14,-39,-78,-92,-68
14,-53,-68,19,41,-61,4,-9,-34,-68,-78,-53
14,-48,-63,17,39,-56,4,-9,-24,-53,-58,-43
14,-43,-58,14,36,-51,-4,-19,-19,-29,-34,-29
19,-39,-58,9,39,-48,-9,-14,-14,-19,-19,-19
24,-34,-58,4,41,-46,-14,-14,-9,-9,-9,-14
24,-34,-58,4,41,-46,-14,-19,-4,0,4,-4
24,-14,-39,-4,31,-26,-4,-9,0,9,14,4
24,-14,-39,-4,31,-26,-4,-9,4,14,24,14
29,-19,-48,-4,39,-34,-4,-9,9,24,34,14
29,-19,-48,-4,39,-34,-9,-4,14,34,39,19
29,-14,-43,-7,36,-29,-19,-4,19,29,43,24
29,-14,-43,-7,36,-29,-19,-4,19,39,58,29
29,-9,-39,-9,34,-24,-19,0,14,39,58,34
29,-9,-39,-9,34,-24,-24,0,14,43,63,34
29,-9,-39,-9,34,-24,-14,0,19,53,68,34
34,-9,-43,-12,39,-26,-14,0,19,58,73,39
34,-9,-43,-12,39,-26,-14,0,19,58,73,39
34,-9,-43,-12,39,-26,-14,4,19,58,73,39
34,-9,-43,-12,39,-26,-24,4,19,53,63,39
34,-9,-43,-12,39,-26,-24,4,19,53,63,39
34,-9,-43,-12,39,-26,-24,9,19,53,63,39
34,-9,-43,-12,39,-26,-19,9,24,53,63,39
34,-14,-48,-9,41,-31,-9,9,24,63,73,39
34,-14,-48,-9,41,-31,-9,9,24,63,73,43
34,-14,-48,-9,41,-31,-9,9,24,63,78,48
34,-19,-53,-7,43,-36,-9,9,24,63,78,48
34,-19,-53,-7,43,-36,-19,0,19,63,78,34
34,-14,-48,-9,41,-31,-19,0,19,63,78,34
34,-9,-43,-12,39,-26,-19,4,14,63,73,34
34,0,-34,-17,34,-17,-19,4,14,63,73,34
34,-4,-39,-14,36,-21,-4,14,24,68,68,43
29,-9,-39,-9,34,-24,-4,14,29,68,68,39
29,-14,-43,-7,36,-29,-4,14,29,68,68,34
29,-24,-53,-2,41,-39,-4,14,24,68,68,34
29,-14,-43,-7,36,-29,-14,14,24,63,68,39
29,-14,-43,-7,36,-29,-14,19,24,58,68,39
29,-9,-39,-9,34,-24,-9,19,24,58,63,34
29,-4,-34,-12,31,-19,-9,24,24,58,63,34
24,-14,-39,-4,31,-26,-9,14,24,58,63,34
24,-14,-39,-4,31,-26,-9,14,24,58,63,34
19,-19,-39,0,29,-29,-9,19,24,58,63,34
19,-24,-43,2,31,-34,-9,19,19,53,53,29
19,-14,-34,-2,26,-24,-9,19,14,39,43,19
19,-14,-34,-2,26,-24,-14,19,14,39,43,19
19,-14,-34,-2,26,-24,-14,14,14,39,43,19
19,-14,-34,-2,26,-24,-9,14,14,39,43,19
19,-24,-43,2,31,-34,-9,14,4,39,43,9
19,-19,-39,0,29,-29,-9,14,4,39,39,4
19,-19,-39,0,29,-29,-9,14,4,39,34,4
19,-24,-43,2,31,-34,-9,14,0,29,34,4
19,-19,-39,0,29,-29,-9,14,9,29,24,4
14,-19,-34,2,24,-26,-9,14,9,29,24,0
14,-19,-34,2,24,-26,-9,14,9,29,24,0
14,-19,-34,2,24,-26,-4,14,9,29,24,0
14,-29,-43,7,29,-36,-4,9,9,29,24,4
9,-24,-34,7,21,-29,-4,4,9,29,19,4
9,-24,-34,7,21,-29,-4,4,9,29,19,4
9,-24,-34,7,21,-29,-4,4,4,24,14,4
4,-29,-34,12,19,-31,-9,14,4,19,24,4
4,-29,-34,12,19,-31,-9,14,9,19,14,4
4,-29,-34,12,19,-31,-4,14,9,19,14,4
4,-29,-34,12,19,-31,-4,14,4,19,19,0
4,-29,-34,12,19,-31,-4,14,4,19,24,0
4,-29,-34,12,19,-31,-9,14,4,19,24,0
4,-29,-34,12,19,-31,-9,14,4,19,24,4
4,-29,-34,12,19,-31,-4,14,4,19,24,4
4,-29,-34,12,19,-31,-4,4,4,19,19,-4
4,-34,-39,14,21,-36,-4,4,4,14,19,-4
4,-34,-39,14,21,-36,-4,4,4,14,19,-9
4,-34,-39,14,21,-36,-4,4,4,14,19,-9
4,-34,-39,14,21,-36,-4,4,0,9,14,0
4,-34,-39,14,21,-36,-4,4,-4,9,14,0
4,-34,-39,14,21,-36,-4,0,-4,9,14,0
4,-34,-39,14,21,-36,-4,0,0,9,14,0
14,-29,-43,7,29,-36,-4,0,0,19,4,-9
14,-29,-43,7,29,-36,-4,0,0,14,4,-9
14,-29,-43,7,29,-36,-9,0,0,9,4,-9
14,-24,-39,4,26,-31,-9,0,0,9,0,-14
4,-29,-34,12,19,-31,0,0,-4,14,4,-9
4,-34,-39,14,21,-36,0,-4,-4,14,9,-9
4,-39,-43,17,24,-41,0,-4,-4,14,9,-4
4,-43,-48,19,26,-46,0,-4,-4,14,14,0
4,-34,-39,14,21,-36,-9,4,-4,9,19,0
4,-34,-39,14,21,-36,-9,4,-4,9,19,0
4,-39,-43,17,24,-41,-9,4,-4,9,24,0
4,-43,-48,19,26,-46,-14,4,-4,9,24,-4
14,-43,-58,14,36,-51,-14,-9,-4,14,14,-4
14,-43,-58,14,36,-51,-14,-9,-4,14,9,-4
14,-43,-58,14,36,-51,-14,-9,-4,14,9,0
14,-43,-58,14,36,-51,-14,-9,-4,19,9,0
4,-43,-48,19,26,-46,-14,-9,-4,19,14,4
4,-43,-48,19,26,-46,-14,-9,-4,14,19,4
4,-43,-48,19,26,-46,-14,-9,-4,14,19,4
4,-39,-43,17,24,-41,-19,-9,-4,14,19,4
4,-39,-43,17,24,-41,-19,-9,-4,14,29,4
4,-39,-43,17,24,-41,-19,-14,-4,19,29,4
4,-39,-43,17,24,-41,-14,-14,-4,19,29,4
4,-39,-43,17,24,-41,-14,-9,0,19,34,9
4,-43,-48,19,26,-46,-14,0,0,19,24,9
4,-43,-48,19,26,-46,-14,0,0,19,24,9
4,-48,-53,21,29,-51,-14,-4,0,19,24,9
4,-53,-58,24,31,-56,-19,-4,-4,19,29,9
4,-48,-53,21,29,-51,-14,-14,0,19,34,9
4,-48,-53,21,29,-51,-14,-14,0,19,34,9
4,-48,-53,21,29,-51,-14,-14,0,19,34,9
4,-48,-53,21,29,-51,-14,-14,0,19,34,9
4,-39,-43,17,24,-41,-24,-4,0,19,43,14
4,-39,-43,17,24,-41,-24,-9,0,24,43,14
4,-39,-43,17,24,-41,-24,-9,0,29,43,14
4,-39,-43,17,24,-41,-29,-9,0,34,43,9
4,-43,-48,19,26,-46,-19,-9,-4,34,34,9
4,-43,-48,19,26,-46,-19,-9,-4,39,34,14
4,-43,-48,19,26,-46,-19,-9,-4,39,34,14
4,-43,-48,19,26,-46,-19,-9,-4,39,34,14
4,-53,-58,24,31,-56,-19,-9,-4,39,34,14
4,-53,-58,24,31,-56,-19,-9,-4,39,39,19
4,-48,-53,21,29,-51,-19,-9,-4,39,39,19
4,-48,-53,21,29,-51,-19,-9,-4,39,39,14
4,-48,-53,21,29,-51,-19,-9,-4,29,39,14
4,-48,-53,21,29,-51,-19,-9,-4,29,39,14
4,-48,-53,21,29,-51,-19,-14,-4,29,39,19
4,-48,-53,21,29,-51,-19,-14,-4,29,39,19
4,-48,-53,21,29,-51,-19,-14,-4,39,39,24
4,-48,-53,21,29,-51,-24,-14,-4,39,39,24
4,-48,-53,21,29,-51,-24,-14,-4,39,39,24
4,-48,-53,21,29,-51,-24,-14,-4,39,39,24
4,-43,-48,19,26,-46,-24,-14,4,39,48,19
4,-43,-48,19,26,-46,-34,-14,4,39,48,19
4,-43,-48,19,26,-46,-34,-14,4,39,48,24
4,-39,-43,17,24,-41,-29,-14,4,39,53,24
4,-48,-53,21,29,-51,-29,-19,4,39,58,24
4,-48,-53,21,29,-51,-29,-19,4,39,58,24
4,-48,-53,21,29,-51,-29,-19,4,39,58,29
4,-48,-53,21,29,-51,-29,-19,4,39,58,29
4,-48,-53,21,29,-51,-29,-9,4,43,48,29
4,-48,-53,21,29,-51,-29,-14,4,43,48,29
4,-48,-53,21,29,-51,-29,-14,4,43,48,24
4,-48,-53,21,29,-51,-29,-14,4,43,48,24
4,-53,-58,24,31,-56,-19,-14,4,43,58,24
4,-53,-58,24,31,-56,-19,-14,4,43,58,29
4,-53,-58,24,31,-56,-24,-14,4,43,58,29
4,-53,-58,24,31,-56,-24,-14,4,43,63,29
14,-43,-58,14,36,-51,-24,-24,4,43,53,29
14,-43,-58,14,36,-51,-24,-14,4,43,53,29
14,-43,-58,14,36,-51,-24,-14,4,43,53,34
9,-48,-58,19,34,-53,-29,-19,9,39,68,29
9,-48,-58,19,34,-53,-29,-19,9,48,68,39
9,-48,-58,19,34,-53,-29,-19,9,48,68,39
9,-48,-58,19,34,-53,-29,-19,9,48,68,39
9,-48,-58,19,34,-53,-29,-19,9,48,68,39
9,-48,-58,19,34,-53,-29,-19,0,39,58,29
9,-48,-58,19,34,-53,-29,-19,0,39,58,29
9,-48,-58,19,34,-53,-29,-19,0,39,58,29
9,-48,-58,19,34,-53,-29,-19,0,39,58,29
9,-48,-58,19,34,-53,-29,-19,9,39,68,39
9,-48,-58,19,34,-53,-29,-19,9,39,68,39
9,-48,-58,19,34,-53,-29,-19,9,39,68,39
9,-48,-58,19,34,-53,-29,-19,9,39,68,39
9,-48,-58,19,34,-53,-29,-19,9,39,58,29
9,-48,-58,19,34,-53,-29,-19,9,39,58,29
9,-48,-58,19,34,-53,-29,-19,9,39,58,29
9,-48,-58,19,34,-53,-29,-19,9,39,58,29
0,-58,-58,29,29,-58,-19,-19,19,48,68,39
0,-58,-58,29,29,-58,-19,-19,19,48,68,39
0,-58,-58,29,29,-58,-19,-19,19,48,68,39
0,-58,-58,29,29,-58,-19,-19,19,48,68,39
0,-58,-58,29,29,-58,-29,-19,9,58,68,39
0,-58,-58,29,29,-58,-29,-19,9,58,68,39
0,-58,-58,29,29,-58,-29,-19,9,58,68,39
0,-58,-58,29,29,-58,-29,-19,9,58,68,39
0,-68,-68,34,34,-68,-29,-19,19,48,58,39
0,-68,-68,34,34,-68,-29,-19,19,48,58,39
0,-68,-68,34,34,-68,-29,-19,19,48,58,39
0,-68,-68,34,34,-68,-29,-19,19,48,58,39
9,-58,-68,24,39,-63,-29,-19,19,48,68,39
9,-58,-68,24,39,-63,-29,-19,19,48,68,39
9,-58,-68,24,39,-63,-29,-19,19,48,68,39
9,-58,-68,24,39,-63,-29,-19,19,48,68,39
0,-58,-58,29,29,-58,-29,-19,9,48,68,48
0,-58,-58,29,29,-58,-29,-19,9,48,68,48
0,-58,-58,29,29,-58,-29,-19,9,48,68,48
0,-58,-58,29,29,-58,-29,-19,9,48,68,48
0,-68,-68,34,34,-68,-19,-9,19,58,78,48
0,-68,-68,34,34,-68,-19,-9,19,58,78,48
0,-68,-68,34,34,-68,-19,-9,19,58,78,48
0,-68,-68,34,34,-68,-19,-9,19,58,78,48
0,-68,-68,34,34,-68,-29,-19,19,58,68,48
0,-68,-68,34,34,-68,-29,-19,19,58,68,48
0,-68,-68,34,34,-68,-29,-19,19,58,68,48
0,-68,-68,34,34,-68,-29,-19,19,58,68,48
9,-68,-78,29,43,-73,-29,-19,19,48,68,48
9,-68,-78,29,43,-73,-29,-19,19,48,68,48
9,-68,-78,29,43,-73,-29,-19,19,48,68,48
9,-68,-78,29,43,-73,-29,-19,19,48,68,48
0,-78,-78,39,39,-78,-19,-9,9,58,68,48
0,-78,-78,39,39,-78,-19,-9,9,58,68,48
0,-78,-78,39,39,-78,-19,-9,9,58,68,48
0,-78,-78,39,39,-78,-19,-9,9,58,68,48
0,-78,-78,39,39,-78,-19,-9,19,58,68,48
0,-78,-78,39,39,-78,-19,-9,19,58,68,48
0,-78,-78,39,39,-78,-19,-9,19,58,68,48
0,-78,-78,39,39,-78,-19,-9,19,58,68,48
0,-78,-78,39,39,-78,-19,-19,19,58,68,48
0,-78,-78,39,39,-78,-19,-19,19,58,68,48
0,-78,-78,39,39,-78,-19,-19,19,58,68,48
0,-78,-78,39,39,-78,-19,-19,19,58,68,48
0,-87,-87,43,43,-87,-19,-19,19,68,78,58
0,-87,-87,43,43,-87,-19,-19,19,68,78,58
0,-87,-87,43,43,-87,-19,-19,19,68,78,58
0,-87,-87,43,43,-87,-19,-19,19,68,78,58
-9,-87,-78,48,34,-82,-19,-19,19,68,78,48
-9,-87,-78,48,34,-82,-19,-19,19,68,78,48
-9,-87,-78,48,34,-82,-19,-19,19,68,78,48
-9,-87,-78,48,34,-82,-19,-19,19,68,78,48
0,-87,-87,43,43,-87,-19,-9,19,58,87,58
0,-87,-87,43,43,-87,-19,-9,19,58,87,58
0,-87,-87,43,43,-87,-19,-9,19,58,87,58
0,-87,-87,43,43,-87,-19,-9,19,58,87,58
0,-87,-87,43,43,-87,-19,-19,19,58,78,48
0,-87,-87,43,43,-87,-19,-19,19,58,78,48
0,-87,-87,43,43,-87,-19,-19,19,58,78,48
0,-87,-87,43,43,-87,-19,-19,19,58,78,48
0,-87,-87,43,43,-87,-9,-19,29,68,87,58
0,-87,-87,43,43,-87,-9,-19,29,68,87,58
0,-87,-87,43,43,-87,-9,-19,29,68,87,58
0,-87,-87,43,43,-87,-9,-19,29,68,87,58
0,-87,-87,43,43,-87,-19,-19,19,58,78,48
0,-87,-87,43,43,-87,-19,-19,19,58,78,48
0,-87,-87,43,43,-87,-19,-19,19,58,78,48
0,-87,-87,43,43,-87,-19,-19,19,58,78,48
0,-97,-97,48,48,-97,-19,-9,29,68,78,58
0,-97,-97,48,48,-97,-19,-9,29,68,78,58
0,-97,-97,48,48,-97,-19,-9,29,68,78,58
0,-97,-97,48,48,-97,-19,-9,29,68,78,58
-9,-97,-87,53,39,-92,-19,-9,29,68,78,48
-9,-97,-87,53,39,-92,-19,-9,29,68,78,48
-9,-97,-87,53,39,-92,-19,-9,29,68,78,48
-9,-97,-87,53,39,-92,-19,-9,29,68,78,48
0,-97,-97,48,48,-97,-9,-9,19,68,87,58
0,-97,-97,48,48,-97,-9,-9,19,68,87,58
0,-97,-97,48,48,-97,-9,-9,19,68,87,58
0,-97,-97,48,48,-97,-9,-9,19,68,87,58
0,-87,-87,43,43,-87,-19,-9,19,68,78,48
0,-87,-87,43,43,-87,-19,-9,19,68,78,48
0,-87,-87,43,43,-87,-19,-9,19,68,78,48
0,-87,-87,43,43,-87,-19,-9,19,68,78,48
0,-97,-97,48,48,-97,-9,-9,19,68,87,58
0,-97,-97,48,48,-97,-9,-9,19,68,87,58
0,-97,-97,48,48,-97,-9,-9,19,68,87,58
0,-97,-97,48,48,-97,-9,-9,19,68,87,58
0,-87,-87,43,43,-87,-9,-19,19,68,87,58
0,-87,-87,43,43,-87,-9,-19,19,68,87,58
0,-87,-87,43,43,-87,-9,-19,19,68,87,58
0,-87,-87,43,43,-87,-9,-19,19,68,87,58
0,-87,-87,43,43,-87,-19,-9,29,68,87,68
0,-87,-87,43,43,-87,-19,-9,29,68,87,68
0,-87,-87,43,43,-87,-19,-9,29,68,87,68
0,-87,-87,43,43,-87,-19,-9,29,68,87,68
4,-78,-82,36,43,-80,-9,0,39,78,97,68
9,-78,-87,34,48,-82,-9,0,39,78,97,68
14,-78,-92,31,53,-85,-9,0,39,78,97,68
19,-78,-97,29,58,-87,-9,0,39,78,97,68
29,-68,-97,19,63,-82,-4,4,43,92,102,73
29,-58,-87,14,58,-73,0,9,48,97,107,78
29,-48,-78,9,53,-63,4,14,53,102,112,82
29,-39,-68,4,48,-53,9,19,58,107,117,87
34,-24,-58,-4,46,-41,19,34,73,117,122,92
39,-19,-58,-9,48,-39,19,39,78,117,126,97
43,-4,-48,-19,46,-26,24,53,92,122,136,102
48,0,-48,-24,48,-24,34,63,97,126,141,107
43,-9,-53,-17,48,-31,48,78,107,131,141,107
39,-14,-53,-12,46,-34,63,78,107,131,141,107
34,-29,-63,-2,48,-46,63,78,107,126,131,97
34,-24,-58,-4,46,-41,63,82,102,131,131,97
39,-24,-63,-7,51,-43,63,73,92,126,122,92
53,-4,-58,-24,56,-31,53,82,102,141,141,102
73,14,-58,-43,65,-21,48,87,122,156,161,117
78,34,-43,-56,61,-4,24,87,131,170,175,131
97,43,-53,-70,75,-4,-14,68,122,170,190,151
107,43,-63,-75,85,-9,-43,53,112,165,190,151
117,34,-82,-75,100,-24,-63,48,107,165,180,151
122,19,-102,-70,112,-41,-53,48,102,161,180,151
122,9,-112,-65,117,-51,-53,48,107,151,170,141
117,0,-117,-58,117,-58,-48,43,92,141,165,131
117,0,-117,-58,117,-58,-48,39,87,136,161,122
117,0,-117,-58,117,-58,-43,34,82,131,156,122
107,0,-107,-53,107,-53,-53,19,63,126,146,117
107,-24,-131,-41,119,-78,-53,0,48,107,131,112
107,-48,-156,-29,131,-102,-53,0,34,102,122,102
97,-58,-156,-19,126,-107,-39,9,43,102,122,102
102,-58,-161,-21,131,-109,-19,14,53,102,122,92
97,-53,-151,-21,124,-102,-19,14,53,102,122,92
97,-43,-141,-26,119,-92,-29,14,53,107,131,102
92,-39,-131,-26,112,-85,-39,4,53,107,131,102
78,-24,-102,-26,90,-63,-43,-14,43,107,122,102
78,-24,-102,-26,90,-63,-43,-14,43,107,122,102
78,-24,-102,-26,90,-63,-43,-9,43,107,122,102
