I,II,III,aVR,aVL,aVF,V1,V2,V3,V4,V5,V6,
19,-39,-58,9,39,-48,9,48,78,68,68,-19
19,-39,-58,9,39,-48,9,48,78,68,68,-19
19,-48,-68,14,43,-58,9,48,78,58,58,-29
19,-48,-68,14,43,-58,9,48,78,58,58,-29
19,-48,-68,14,43,-58,9,48,78,58,58,-29
19,-48,-68,14,43,-58,9,48,78,58,58,-29
19,-39,-58,9,39,-48,0,48,68,58,58,-29
19,-39,-58,9,39,-48,0,48,68,58,58,-29
19,-39,-58,9,39,-48,0,48,68,58,58,-29
19,-39,-58,9,39,-48,0,48,68,58,58,-29
19,-29,-48,4,34,-39,9,48,78,68,58,-29
19,-29,-48,4,34,-39,9,48,78,68,58,-29
19,-29,-48,4,34,-39,9,48,78,68,58,-29
19,-29,-48,4,34,-39,9,48,78,68,58,-29
9,-39,-48,14,29,-43,9,39,68,58,48,-39
9,-39,-48,14,29,-43,9,39,68,58,48,-39
9,-39,-48,14,29,-43,9,39,68,58,48,-39
9,-39,-48,14,29,-43,9,39,68,58,48,-39
19,-39,-58,9,39,-48,19,48,78,58,58,-34
19,-39,-58,9,39,-48,19,48,78,58,58,-29
19,-39,-58,9,39,-48,19,48,78,58,58,-24
19,-39,-58,9,39,-48,19,48,78,58,58,-19
19,-48,-68,14,43,-58,9,48,78,68,58,-24
19,-48,-68,14,43,-58,9,48,78,68,58,-29
19,-48,-68,14,43,-58,9,48,78,68,58,-34
19,-48,-68,14,43,-58,9,48,78,68,58,-39
19,-43,-63,12,41,-53,9,39,68,58,58,-39
19,-39,-58,9,39,-48,9,39,68,58,58,-39
19,-34,-53,7,36,-43,9,39,68,58,58,-39
19,-29,-48,4,34,-39,9,39,68,58,58,-39
29,-29,-58,0,43,-43,9,39,68,68,58,-39
29,-29,-58,0,43,-43,9,39,68,68,58,-39
29,-29,-58,0,43,-43,9,39,68,68,58,-39
29,-29,-58,0,43,-43,9,39,68,68,58,-39
19,-29,-48,4,34,-39,0,39,68,58,58,-39
19,-29,-48,4,34,-39,0,39,68,58,58,-39
19,-29,-48,4,34,-39,0,39,68,58,58,-39
19,-29,-48,4,34,-39,0,39,68,58,58,-39
19,-24,-43,2,31,-34,0,34,68,58,48,-39
19,-19,-39,0,29,-29,0,29,68,58,48,-39
19,-14,-34,-2,26,-24,0,24,68,58,48,-39
19,-9,-29,-4,24,-19,0,19,68,58,48,-39
29,-4,-34,-12,31,-19,0,29,68,48,39,-48
29,0,-29,-14,29,-14,0,29,68,48,39,-48
29,4,-24,-17,26,-9,0,29,68,48,39,-48
29,9,-19,-19,24,-4,0,29,68,48,39,-48
29,-4,-34,-12,31,-19,9,19,68,48,48,-48
29,-9,-39,-9,34,-24,9,19,68,48,48,-48
29,-14,-43,-7,36,-29,9,19,68,48,48,-48
29,-19,-48,-4,39,-34,9,19,68,48,48,-48
19,-19,-39,0,29,-29,0,19,68,58,48,-48
19,-19,-39,0,29,-29,0,19,68,58,48,-48
19,-19,-39,0,29,-29,0,19,68,58,48,-48
19,-19,-39,0,29,-29,0,19,68,58,48,-48
19,-29,-48,4,34,-39,0,19,68,58,58,-39
19,-29,-48,4,34,-39,0,19,68,58,58,-39
19,-29,-48,4,34,-39,0,19,68,58,58,-39
19,-29,-48,4,34,-39,0,19,68,58,58,-39
19,-29,-48,4,34,-39,9,24,68,58,48,-39
19,-29,-48,4,34,-39,9,29,68,58,48,-39
19,-29,-48,4,34,-39,9,34,68,58,48,-39
19,-29,-48,4,34,-39,9,39,68,58,48,-39
19,-39,-58,9,39,-48,9,39,58,48,48,-39
19,-39,-58,9,39,-48,9,39,58,48,48,-39
19,-39,-58,9,39,-48,9,39,58,48,48,-39
19,-39,-58,9,39,-48,9,39,58,48,48,-39
19,-39,-58,9,39,-48,9,29,68,48,39,-39
19,-39,-58,9,39,-48,9,29,68,48,39,-39
19,-39,-58,9,39,-48,9,29,68,48,39,-39
19,-39,-58,9,39,-48,9,29,68,48,39,-39
19,-29,-48,4,34,-39,19,39,68,58,43,-39
19,-29,-48,4,34,-39,19,39,68,58,48,-39
19,-29,-48,4,34,-39,19,39,68,58,53,-39
19,-29,-48,4,34,-39,19,39,68,58,58,-39
19,-29,-48,4,34,-39,14,39,68,58,48,-29
19,-29,-48,4,34,-39,9,39,68,58,48,-29
19,-29,-48,4,34,-39,4,39,68,58,48,-29
19,-29,-48,4,34,-39,0,39,68,58,48,-29
9,-39,-48,14,29,-43,9,29,68,58,48,-39
9,-39,-48,14,29,-43,9,29,68,58,48,-39
9,-39,-48,14,29,-43,9,29,68,58,48,-39
9,-39,-48,14,29,-43,9,29,68,58,48,-39
19,-29,-48,4,34,-39,19,39,58,48,39,-39
19,-29,-48,4,34,-39,19,39,58,48,39,-39
19,-29,-48,4,34,-39,19,39,58,48,39,-39
19,-29,-48,4,34,-39,19,39,58,48,39,-39
19,-34,-53,7,36,-43,9,39,68,48,48,-29
19,-39,-58,9,39,-48,9,39,68,48,48,-29
19,-43,-63,12,41,-53,9,39,68,48,48,-29
19,-48,-68,14,43,-58,9,39,68,48,48,-29
19,-43,-63,12,41,-53,19,39,58,48,39,-34
19,-39,-58,9,39,-48,19,39,58,48,39,-39
19,-34,-53,7,36,-43,19,39,58,48,39,-43
19,-29,-48,4,34,-39,19,39,58,48,39,-48
19,-39,-58,9,39,-48,9,39,68,48,48,-39
19,-39,-58,9,39,-48,9,39,68,48,48,-39
19,-39,-58,9,39,-48,9,39,68,48,48,-39
19,-39,-58,9,39,-48,9,39,68,48,48,-39
19,-34,-53,7,36,-43,0,29,58,58,39,-48
19,-29,-48,4,34,-39,0,29,58,58,39,-48
19,-24,-43,2,31,-34,0,29,58,58,39,-48
19,-19,-39,0,29,-29,0,29,58,58,39,-48
29,-19,-48,-4,39,-34,9,39,58,48,39,-39
29,-29,-58,0,43,-43,9,39,68,48,48,-29
29,-19,-48,-4,39,-34,0,29,68,39,39,-29
29,-9,-39,-9,34,-24,0,29,58,39,39,-29
19,-24,-43,2,31,-34,9,39,68,43,48,-29
19,-29,-48,4,34,-39,9,39,68,48,48,-29
19,-34,-53,7,36,-43,9,39,68,53,48,-29
19,-39,-58,9,39,-48,9,39,68,58,48,-29
9,-48,-58,19,34,-53,19,39,68,58,58,-29
9,-48,-58,19,34,-53,19,39,68,58,58,-29
9,-48,-58,19,34,-53,19,39,68,58,58,-29
9,-48,-58,19,34,-53,19,39,68,58,58,-29
9,-39,-48,14,29,-43,9,39,68,58,48,-39
9,-39,-48,14,29,-43,9,39,68,58,48,-39
9,-39,-48,14,29,-43,9,39,68,58,48,-39
9,-39,-48,14,29,-43,9,39,68,58,48,-39
19,-39,-58,9,39,-48,9,39,58,58,58,-29
19,-39,-58,9,39,-48,9,39,58,58,58,-29
19,-39,-58,9,39,-48,9,39,58,58,58,-29
19,-39,-58,9,39,-48,9,39,58,58,58,-29
19,-48,-68,14,43,-58,9,48,68,58,48,-29
19,-48,-68,14,43,-58,9,48,68,58,48,-29
19,-48,-68,14,43,-58,9,48,68,58,48,-29
19,-48,-68,14,43,-58,9,48,68,58,48,-29
19,-58,-78,19,48,-68,19,48,68,48,39,-29
19,-58,-78,19,48,-68,19,48,68,48,39,-29
19,-58,-78,19,48,-68,19,48,68,48,39,-29
19,-58,-78,19,48,-68,19,48,68,48,39,-29
19,-58,-78,19,48,-68,19,39,78,53,43,-19
19,-58,-78,19,48,-68,19,39,78,58,48,-19
19,-58,-78,19,48,-68,19,39,78,63,53,-19
19,-58,-78,19,48,-68,19,39,78,68,58,-19
19,-53,-73,17,46,-63,9,39,73,68,48,-29
19,-48,-68,14,43,-58,9,39,68,68,48,-29
19,-43,-63,12,41,-53,9,39,63,68,48,-29
19,-39,-58,9,39,-48,9,39,58,68,48,-29
19,-39,-58,9,39,-48,0,29,68,63,48,-39
19,-39,-58,9,39,-48,0,29,68,58,48,-39
19,-39,-58,9,39,-48,0,29,68,53,48,-39
19,-39,-58,9,39,-48,0,29,68,48,48,-39
19,-48,-68,14,43,-58,9,39,68,58,48,-29
19,-48,-68,14,43,-58,9,39,68,58,48,-29
19,-48,-68,14,43,-58,9,39,68,58,48,-29
19,-48,-68,14,43,-58,9,39,68,58,48,-29
29,-48,-78,9,53,-63,19,39,68,48,48,-29
29,-48,-78,9,53,-63,19,39,68,48,48,-29
29,-48,-78,9,53,-63,19,39,68,48,48,-29
29,-48,-78,9,53,-63,19,39,68,48,48,-29
19,-43,-63,12,41,-53,14,39,58,48,39,-39
19,-39,-58,9,39,-48,9,39,58,48,39,-39
19,-34,-53,7,36,-43,4,39,58,48,39,-39
19,-29,-48,4,34,-39,0,39,58,48,39,-39
19,-39,-58,9,39,-48,4,48,68,58,43,-34
19,-39,-58,9,39,-48,9,48,68,58,48,-29
19,-39,-58,9,39,-48,14,48,68,58,53,-24
19,-39,-58,9,39,-48,19,48,68,58,58,-19
19,-39,-58,9,39,-48,14,39,58,58,48,-29
19,-39,-58,9,39,-48,9,39,58,58,48,-29
19,-39,-58,9,39,-48,4,39,58,58,48,-29
19,-39,-58,9,39,-48,0,39,58,58,48,-29
19,-29,-48,4,34,-39,9,29,58,48,48,-39
19,-29,-48,4,34,-39,9,29,58,48,48,-39
19,-29,-48,4,34,-39,9,29,58,48,48,-39
19,-29,-48,4,34,-39,9,29,58,48,48,-39
19,-34,-53,7,36,-43,19,39,68,48,48,-29
19,-39,-58,9,39,-48,19,39,68,48,48,-29
19,-43,-63,12,41,-53,19,39,68,48,48,-29
19,-48,-68,14,43,-58,19,39,68,48,48,-29
19,-39,-58,9,39,-48,19,39,68,58,48,-19
19,-39,-58,9,39,-48,19,39,68,58,48,-19
19,-39,-58,9,39,-48,19,39,68,58,48,-19
19,-39,-58,9,39,-48,19,39,68,58,48,-19
19,-43,-63,12,41,-53,19,48,68,58,58,-19
19,-43,-63,12,41,-53,19,53,73,63,63,-14
19,-43,-63,12,41,-53,19,53,78,68,63,-9
19,-48,-68,14,43,-58,9,53,78,68,63,-9
29,-24,-53,-2,41,-39,9,43,78,58,58,-19
29,-19,-48,-4,39,-34,9,43,87,68,63,-19
29,-9,-39,-9,34,-24,4,43,87,73,63,-14
29,-4,-34,-12,31,-19,4,39,87,73,63,-14
19,0,-19,-9,19,-9,-9,29,87,73,63,-9
19,0,-19,-9,19,-9,-14,29,92,73,68,-9
19,9,-9,-14,14,0,-19,29,92,73,68,-9
24,9,-14,-17,19,-2,-19,29,92,78,68,-4
24,9,-14,-17,19,-2,-9,29,92,78,68,4
29,9,-19,-19,24,-4,-4,34,92,82,73,4
29,14,-14,-21,21,0,0,34,102,87,78,4
29,19,-9,-24,19,4,4,29,107,92,82,9
39,19,-19,-29,29,0,-14,39,117,92,78,0
39,24,-14,-31,26,4,-14,39,117,102,82,9
39,34,-4,-36,21,14,-19,39,122,102,87,14
48,34,-14,-41,31,9,-24,39,122,107,87,19
39,48,9,-43,14,29,-24,19,117,97,87,9
39,58,19,-48,9,39,-29,14,117,97,92,14
43,73,29,-58,7,51,-43,4,122,107,92,19
48,92,43,-70,2,68,-53,4,122,107,92,24
63,87,24,-75,19,56,-53,9,122,112,102,34
63,87,24,-75,19,56,-58,4,122,117,107,43
63,107,43,-85,9,75,-58,0,117,122,107,43
63,122,58,-92,2,90,-63,0,117,126,107,43
73,126,53,-100,9,90,-73,4,122,136,112,48
73,126,53,-100,9,90,-73,0,126,136,112,53
73,131,58,-102,7,95,-73,0,126,136,117,58
73,141,68,-107,2,104,-73,0,131,136,122,63
68,146,78,-107,-4,112,-73,-14,126,126,112,53
63,141,78,-102,-7,109,-68,-9,122,126,112,53
58,131,73,-95,-7,102,-68,-9,117,126,117,53
53,131,78,-92,-12,104,-68,-9,112,126,117,53
73,126,53,-100,9,90,-53,4,122,136,117,63
78,117,39,-97,19,78,-48,14,122,136,117,68
78,102,24,-90,26,63,-43,14,117,126,122,68
78,97,19,-87,29,58,-43,14,117,126,122,63
82,87,4,-85,39,46,-48,24,117,136,122,63
82,73,-9,-78,46,31,-43,24,107,126,117,58
78,58,-19,-68,48,19,-43,24,92,117,107,53
73,53,-19,-63,46,17,-39,24,92,107,102,43
73,43,-29,-58,51,7,-34,34,82,102,92,48
63,34,-29,-48,46,2,-29,34,78,92,78,43
63,19,-43,-41,53,-12,-19,34,73,82,78,29
58,0,-58,-29,58,-29,-4,39,68,73,68,24
48,-19,-68,-14,58,-43,-4,43,68,73,63,9
39,-34,-73,-2,56,-53,4,43,73,73,63,4
39,-34,-73,-2,56,-53,4,48,78,73,58,4
39,-34,-73,-2,56,-53,4,48,82,68,53,0
34,-48,-82,7,58,-65,19,48,68,63,58,-4
29,-53,-82,12,56,-68,19,48,63,58,53,-9
24,-58,-82,17,53,-70,19,48,58,58,48,-14
24,-63,-87,19,56,-75,14,48,53,58,43,-19
24,-73,-97,24,61,-85,24,39,48,39,29,-29
19,-73,-92,26,56,-82,24,39,48,39,29,-29
19,-73,-92,26,56,-82,24,39,48,39,29,-29
19,-78,-97,29,58,-87,29,39,48,39,29,-29
9,-87,-97,39,53,-92,34,48,48,39,34,-29
9,-87,-97,39,53,-92,34,48,48,43,34,-29
9,-87,-97,39,53,-92,34,58,48,43,34,-29
9,-87,-97,39,53,-92,34,58,53,43,34,-29
14,-78,-92,31,53,-85,34,48,43,39,24,-39
14,-78,-92,31,53,-85,34,48,43,39,29,-39
19,-78,-97,29,58,-87,34,53,43,34,29,-39
24,-82,-107,29,65,-95,39,53,48,29,29,-39
24,-97,-122,36,73,-109,29,53,58,39,29,-29
24,-97,-122,36,73,-109,29,53,58,39,29,-29
24,-97,-122,36,73,-109,34,53,58,39,29,-34
24,-107,-131,41,78,-119,34,53,58,39,29,-34
14,-97,-112,41,63,-104,24,63,58,48,43,-34
14,-97,-112,41,63,-104,29,68,63,53,43,-34
14,-97,-112,41,63,-104,29,68,68,53,39,-34
14,-102,-117,43,65,-109,34,78,68,48,34,-39
29,-107,-136,39,82,-122,48,73,63,43,48,-34
34,-126,-161,46,97,-143,53,87,53,24,24,-48
29,-156,-185,63,107,-170,63,112,73,24,14,-68
34,-185,-219,75,126,-202,78,136,97,43,24,-82
39,-195,-234,78,136,-214,87,165,141,68,48,-73
43,-185,-229,70,136,-207,97,180,180,102,78,-53
63,-180,-244,58,153,-212,92,200,244,165,136,-29
107,-175,-283,34,195,-229,92,253,351,278,234,19
161,-151,-312,-4,236,-231,82,322,517,458,390,92
224,-97,-322,-63,273,-209,87,390,741,688,605,224
292,-34,-326,-129,309,-180,78,463,995,941,854,380
375,24,-351,-200,363,-163,39,507,1171,1166,1078,527
463,87,-375,-275,419,-143,-34,492,1254,1322,1249,649
551,170,-380,-361,466,-104,-107,453,1317,1473,1429,785
644,258,-385,-451,514,-63,-185,419,1400,1639,1625,961
727,356,-370,-541,549,-7,-283,370,1415,1756,1795,1127
722,463,-258,-592,490,102,-385,239,1263,1703,1825,1205
614,556,-58,-585,336,248,-453,-14,902,1381,1576,1146
385,658,273,-522,56,466,-492,-346,331,839,1098,980
122,766,644,-444,-261,705,-517,-697,-263,283,595,810
-78,883,961,-402,-519,922,-546,-980,-722,-146,209,683
-175,985,1161,-405,-668,1073,-585,-1141,-1019,-409,-73,595
-219,1024,1244,-402,-732,1134,-614,-1200,-1229,-614,-287,527
-258,907,1166,-324,-712,1037,-575,-1195,-1410,-834,-527,380
-292,668,961,-187,-627,814,-488,-1117,-1546,-1068,-790,170
-326,468,795,-70,-561,631,-424,-1058,-1629,-1239,-951,-14
-341,390,732,-24,-536,561,-400,-1034,-1668,-1307,-1019,-92
-351,346,697,2,-524,522,-395,-1019,-1683,-1346,-1063,-151
-361,253,614,53,-488,434,-390,-985,-1659,-1346,-1093,-224
-356,200,556,78,-456,378,-366,-922,-1586,-1302,-1068,-263
-346,161,507,92,-427,334,-322,-858,-1488,-1229,-1029,-297
-336,107,444,114,-390,275,-297,-790,-1395,-1161,-1000,-336
-326,68,395,129,-361,231,-268,-707,-1254,-1058,-932,-356
-302,63,366,119,-334,214,-224,-610,-1068,-902,-814,-346
-263,63,326,100,-295,195,-195,-517,-878,-751,-683,-312
-224,73,297,75,-261,185,-170,-429,-722,-614,-570,-263
-180,82,263,48,-222,173,-146,-351,-585,-502,-463,-219
-151,87,239,31,-195,163,-107,-278,-483,-424,-405,-190
-131,82,214,24,-173,148,-73,-239,-419,-370,-361,-175
-122,43,165,39,-143,104,-73,-214,-385,-346,-341,-161
-117,19,136,48,-126,78,-48,-175,-336,-322,-322,-170
-107,14,122,46,-114,68,-14,-112,-258,-253,-278,-170
-82,-14,68,48,-75,26,9,-63,-185,-195,-224,-161
-68,-24,43,46,-56,9,9,-43,-136,-151,-180,-146
-53,-19,34,36,-43,7,0,-29,-97,-126,-146,-131
-39,-29,9,34,-24,-9,9,-19,-78,-97,-112,-107
-39,-78,-39,58,0,-58,29,9,-58,-78,-92,-92
-29,-87,-58,58,14,-73,53,24,-48,-68,-82,-78
-19,-78,-58,48,19,-68,53,29,-39,-63,-87,-78
-24,-92,-68,58,21,-80,53,39,-29,-48,-82,-87
-24,-102,-78,63,26,-90,58,48,-14,-39,-78,-87
-29,-102,-73,65,21,-87,58,58,-9,-24,-63,-87
-24,-92,-68,58,21,-80,63,58,4,-9,-43,-87
-24,-112,-87,68,31,-100,63,58,4,-19,-43,-82
-24,-112,-87,68,31,-100,63,58,4,-19,-53,-82
-24,-117,-92,70,34,-104,63,63,4,-29,-53,-87
-24,-117,-92,70,34,-104,63,63,4,-29,-58,-87
-19,-107,-87,63,34,-97,58,78,4,-29,-48,-87
-19,-97,-78,58,29,-87,58,78,14,-24,-48,-87
-19,-107,-87,63,34,-97,58,82,24,-14,-39,-87
-19,-117,-97,68,39,-107,58,82,24,-9,-34,-87
-9,-107,-97,58,43,-102,63,78,39,-14,-34,-92
-9,-107,-97,58,43,-102,63,78,39,-14,-34,-92
-9,-107,-97,58,43,-102,63,82,39,-14,-34,-87
-9,-107,-97,58,43,-102,63,82,39,-14,-39,-87
-19,-117,-97,68,39,-107,63,82,34,-24,-39,-87
-14,-112,-97,63,41,-104,63,82,29,-24,-39,-87
-14,-112,-97,63,41,-104,63,82,34,-24,-34,-87
-9,-117,-107,63,48,-112,63,87,29,-24,-34,-87
-9,-107,-97,58,43,-102,73,78,39,-19,-24,-97
-14,-107,-92,61,39,-100,73,82,39,-14,-24,-97
-14,-107,-92,61,39,-100,73,82,29,-9,-24,-97
-14,-107,-92,61,39,-100,73,78,29,-4,-24,-97
-14,-112,-97,63,41,-104,63,87,29,-14,-34,-92
-19,-112,-92,65,36,-102,63,87,34,-14,-34,-92
-19,-112,-92,65,36,-102,63,87,34,-14,-34,-92
-19,-112,-92,65,36,-102,63,87,34,-9,-34,-92
-19,-102,-82,61,31,-92,68,92,39,-9,-24,-87
-19,-102,-82,61,31,-92,68,92,39,-9,-24,-87
-19,-102,-82,61,31,-92,68,92,39,-14,-29,-92
-19,-102,-82,61,31,-92,68,92,39,-14,-29,-92
-19,-107,-87,63,34,-97,78,102,39,-4,-29,-92
-19,-112,-92,65,36,-102,73,102,39,-9,-34,-92
-19,-117,-97,68,39,-107,73,102,39,-9,-34,-97
-19,-122,-102,70,41,-112,73,102,34,-9,-34,-97
-19,-117,-97,68,39,-107,63,97,24,-19,-43,-97
-19,-112,-92,65,36,-102,63,92,24,-19,-43,-97
-19,-107,-87,63,34,-97,63,87,24,-19,-43,-97
-19,-102,-82,61,31,-92,63,82,24,-19,-43,-97
-19,-107,-87,63,34,-97,63,92,34,-19,-43,-107
-19,-112,-92,65,36,-102,63,92,29,-24,-53,-112
-19,-112,-92,65,36,-102,63,92,29,-24,-53,-112
-24,-112,-87,68,31,-100,63,87,29,-24,-53,-112
-24,-112,-87,68,31,-100,73,78,19,-14,-58,-107
-24,-112,-87,68,31,-100,73,78,19,-19,-58,-112
-24,-112,-87,68,31,-100,73,78,14,-19,-53,-112
-24,-112,-87,68,31,-100,73,78,14,-19,-53,-112
-14,-107,-92,61,39,-100,63,78,19,-19,-48,-112
-14,-107,-92,61,39,-100,68,78,24,-24,-48,-112
-14,-107,-92,61,39,-100,68,78,29,-24,-48,-112
-14,-107,-92,61,39,-100,68,78,34,-24,-48,-112
-24,-107,-82,65,29,-95,78,82,29,-29,-58,-112
-24,-107,-82,65,29,-95,78,82,24,-34,-58,-112
-24,-117,-92,70,34,-104,68,82,19,-39,-63,-112
-29,-107,-78,68,24,-92,68,78,14,-43,-68,-112
-29,-107,-78,68,24,-92,82,87,24,-34,-58,-112
-29,-107,-78,68,24,-92,82,87,24,-34,-58,-112
-29,-107,-78,68,24,-92,82,87,24,-39,-58,-117
-29,-102,-73,65,21,-87,82,87,24,-39,-58,-117
-19,-92,-73,56,26,-82,78,78,24,-29,-63,-117
-19,-87,-68,53,24,-78,73,73,19,-34,-63,-117
-19,-87,-68,53,24,-78,68,73,19,-34,-63,-117
-19,-87,-68,53,24,-78,63,73,19,-34,-63,-117
-29,-87,-58,58,14,-73,53,73,19,-43,-73,-117
-29,-87,-58,58,14,-73,53,73,19,-43,-73,-117
-34,-78,-43,56,4,-61,53,68,14,-43,-73,-117
-39,-78,-39,58,0,-58,53,68,14,-43,-73,-117
-39,-87,-48,63,4,-68,63,78,0,-53,-73,-122
-39,-82,-43,61,2,-63,63,78,0,-53,-73,-122
-39,-73,-34,56,-2,-53,63,78,0,-53,-73,-122
-39,-68,-29,53,-4,-48,53,78,0,-53,-78,-122
-39,-68,-29,53,-4,-48,48,78,9,-53,-78,-112
-39,-63,-24,51,-7,-43,48,78,9,-53,-78,-112
-39,-58,-19,48,-9,-39,53,73,9,-53,-78,-112
-43,-48,-4,46,-19,-26,53,73,9,-53,-82,-112
-34,-43,-9,39,-12,-26,43,68,0,-53,-82,-112
-39,-29,9,34,-24,-9,43,63,-4,-53,-82,-112
-39,-24,14,31,-26,-4,43,63,-4,-58,-78,-112
-39,-14,24,26,-31,4,43,58,-9,-63,-78,-107
-39,-9,29,24,-34,9,39,48,-19,-73,-92,-117
-43,0,43,21,-43,21,34,43,-24,-73,-92,-117
-48,4,53,21,-51,29,34,43,-24,-73,-92,-112
-53,14,68,19,-61,41,34,39,-24,-73,-97,-112
-53,19,73,17,-63,46,43,29,-24,-73,-97,-102
-53,29,82,12,-68,56,34,14,-24,-78,-107,-97
-53,34,87,9,-70,61,29,9,-29,-78,-107,-97
-63,48,112,7,-87,80,24,9,-34,-78,-107,-92
-73,43,117,14,-95,80,29,4,-39,-78,-112,-92
-73,48,122,12,-97,85,24,0,-43,-82,-112,-92
-73,58,131,7,-102,95,19,4,-43,-82,-117,-82
-82,73,156,4,-119,114,19,-4,-48,-87,-122,-82
-82,82,165,0,-124,124,9,-14,-53,-92,-122,-87
-87,92,180,-2,-134,136,9,-24,-63,-97,-126,-87
-92,107,200,-7,-146,153,4,-34,-68,-97,-131,-87
-97,126,224,-14,-161,175,0,-39,-78,-107,-131,-92
-92,136,229,-21,-161,183,0,-48,-92,-117,-146,-87
-92,146,239,-26,-165,192,-4,-48,-92,-117,-146,-87
-102,156,258,-26,-180,207,-9,-63,-97,-117,-146,-78
-107,180,287,-36,-197,234,-14,-73,-102,-117,-146,-73
-107,190,297,-41,-202,244,-9,-73,-97,-126,-156,-68
-112,185,297,-36,-204,241,-14,-82,-107,-126,-161,-63
-112,185,297,-36,-204,241,-19,-92,-112,-131,-161,-63
-112,185,297,-36,-204,241,-24,-97,-126,-136,-165,-63
-112,200,312,-43,-212,256,-24,-107,-141,-136,-180,-63
-117,204,322,-43,-219,263,-24,-117,-141,-136,-180,-53
-122,214,336,-46,-229,275,-29,-122,-146,-141,-180,-53
-126,219,346,-46,-236,283,-34,-126,-151,-141,-180,-48
-131,239,370,-53,-251,305,-43,-146,-161,-151,-190,-43
-136,239,375,-51,-256,307,-43,-151,-165,-151,-190,-39
-136,244,380,-53,-258,312,-48,-151,-170,-151,-190,-39
-136,244,380,-53,-258,312,-48,-161,-170,-151,-190,-39
-146,253,400,-53,-273,326,-58,-165,-175,-151,-200,-48
-146,263,409,-58,-278,336,-68,-170,-175,-151,-200,-43
-146,273,419,-63,-283,346,-58,-175,-180,-156,-200,-43
-146,283,429,-68,-287,356,-53,-190,-190,-161,-200,-43
-146,287,434,-70,-290,361,-63,-200,-195,-165,-209,-34
-146,283,429,-68,-287,356,-63,-195,-195,-170,-200,-34
-136,278,414,-70,-275,346,-63,-190,-185,-165,-195,-29
-136,273,409,-68,-273,341,-63,-190,-185,-161,-195,-29
-141,268,409,-63,-275,339,-58,-185,-190,-161,-185,-29
-136,253,390,-58,-263,322,-53,-175,-180,-156,-180,-24
-131,248,380,-58,-256,314,-53,-175,-175,-146,-170,-19
-126,239,366,-56,-246,302,-53,-175,-165,-141,-165,-19
-126,234,361,-53,-244,297,-48,-170,-161,-126,-151,-19
-122,219,341,-48,-231,280,-48,-165,-146,-117,-141,-14
-117,209,326,-46,-222,268,-43,-151,-136,-107,-126,-9
-112,200,312,-43,-212,256,-43,-141,-126,-97,-122,-4
-107,200,307,-46,-207,253,-34,-136,-117,-87,-112,-4
-102,185,287,-41,-195,236,-34,-131,-102,-78,-97,0
-87,185,273,-48,-180,229,-29,-126,-97,-73,-87,0
-78,170,248,-46,-163,209,-29,-126,-87,-58,-73,0
-63,146,209,-41,-136,178,-39,-102,-68,-34,-68,14
-58,141,200,-41,-129,170,-39,-102,-53,-29,-58,19
-53,131,185,-39,-119,158,-39,-87,-53,-29,-48,24
-43,122,165,-39,-104,143,-34,-82,-48,-29,-43,29
-48,117,165,-34,-107,141,-34,-68,-29,-4,-29,39
-43,102,146,-29,-95,124,-24,-63,-19,9,-14,39
-39,92,131,-26,-85,112,-24,-48,-4,14,0,39
-34,92,126,-29,-80,109,-24,-48,0,19,14,39
-19,73,92,-26,-56,82,-14,-48,9,34,19,48
-14,53,68,-19,-41,61,-14,-39,19,39,24,48
-9,48,58,-19,-34,53,-9,-34,24,43,34,48
-9,48,58,-19,-34,53,-9,-29,39,53,39,48
4,48,43,-26,-19,46,-19,-24,39,63,48,39
4,43,39,-24,-17,41,-14,-19,39,68,48,39
4,34,29,-19,-12,31,-14,-14,39,68,48,39
9,29,19,-19,-4,24,-14,-9,43,68,48,29
9,9,0,-9,4,4,-14,4,48,78,58,39
9,4,-4,-7,7,0,-9,4,53,78,58,39
9,4,-4,-7,7,0,-9,4,58,78,58,39
9,-4,-14,-2,12,-9,-4,4,63,68,53,34
14,4,-9,-9,12,-2,-4,9,63,58,53,34
19,0,-19,-9,19,-9,-4,9,63,63,53,34
19,-4,-24,-7,21,-14,-4,14,63,63,53,34
14,-14,-29,0,21,-21,-4,14,63,58,53,29
24,-4,-29,-9,26,-17,-14,24,63,58,53,19
29,4,-24,-17,26,-9,-14,29,58,58,48,14
29,4,-24,-17,26,-9,-14,29,58,53,48,14
29,0,-29,-14,29,-14,-14,29,58,53,48,14
19,-4,-24,-7,21,-14,-4,39,58,53,48,14
19,-9,-29,-4,24,-19,-4,39,58,48,39,4
24,-14,-39,-4,31,-26,-4,39,58,48,39,4
24,-19,-43,-2,34,-31,-4,39,53,48,39,4
19,-24,-43,2,31,-34,4,29,43,39,29,-4
14,-34,-48,9,31,-41,4,29,34,39,29,-4
14,-34,-48,9,31,-41,9,29,34,39,29,-9
14,-29,-43,7,29,-36,9,29,34,39,24,-9
14,-34,-48,9,31,-41,19,29,43,48,29,0
14,-34,-48,9,31,-41,19,29,43,39,29,-9
19,-34,-53,7,36,-43,19,29,43,39,34,-9
19,-39,-58,9,39,-48,19,29,43,39,39,-9
29,-29,-58,0,43,-43,14,29,39,39,29,-19
29,-24,-53,-2,41,-39,9,29,39,39,29,-19
29,-19,-48,-4,39,-34,4,29,43,39,29,-19
29,-14,-43,-7,36,-29,0,29,43,39,29,-19
29,-24,-53,-2,41,-39,0,34,53,39,34,-19
29,-24,-53,-2,41,-39,9,39,53,39,34,-19
29,-24,-53,-2,41,-39,9,39,53,39,34,-19
34,-24,-58,-4,46,-41,4,39,53,39,34,-19
24,-39,-63,7,43,-51,9,48,43,34,34,-14
19,-43,-63,12,41,-53,14,48,43,34,34,-14
19,-48,-68,14,43,-58,19,48,43,34,34,-14
19,-58,-78,19,48,-68,24,48,43,34,34,-14
14,-53,-68,19,41,-61,24,43,43,43,24,-14
14,-53,-68,19,41,-61,24,43,48,43,24,-14
14,-48,-63,17,39,-56,29,43,53,43,24,-14
14,-48,-63,17,39,-56,29,43,53,43,24,-14
24,-63,-87,19,56,-75,19,43,63,39,34,-14
24,-68,-92,21,58,-80,19,48,63,39,34,-14
24,-68,-92,21,58,-80,19,58,63,43,39,-14
24,-63,-87,19,56,-75,19,48,63,43,43,-14
24,-73,-97,24,61,-85,9,48,73,58,43,-4
24,-82,-107,29,65,-95,14,53,78,63,43,-4
24,-73,-97,24,61,-85,14,58,78,63,43,-4
29,-73,-102,21,65,-87,9,58,78,58,39,-4
19,-68,-87,24,53,-78,19,48,73,48,29,-14
19,-63,-82,21,51,-73,19,43,73,48,29,-14
19,-58,-78,19,48,-68,24,43,73,48,34,-14
19,-58,-78,19,48,-68,24,39,68,48,34,-14
19,-58,-78,19,48,-68,34,43,68,58,43,-4
19,-48,-68,14,43,-58,34,48,68,58,43,-4
24,-48,-73,12,48,-61,34,53,68,63,48,-4
24,-53,-78,14,51,-65,34,58,73,63,48,-4
24,-53,-78,14,51,-65,24,48,73,63,39,-14
24,-48,-73,12,48,-61,19,48,73,63,39,-14
24,-48,-73,12,48,-61,19,53,73,63,39,-14
14,-48,-63,17,39,-56,14,53,73,63,39,-14
24,-39,-63,7,43,-51,14,63,82,63,48,-14
24,-39,-63,7,43,-51,19,63,82,63,48,-19
19,-39,-58,9,39,-48,19,63,82,63,48,-19
19,-39,-58,9,39,-48,19,63,82,63,48,-19
29,-29,-58,0,43,-43,14,53,82,68,48,-14
29,-29,-58,0,43,-43,14,53,87,68,48,-14
29,-29,-58,0,43,-43,14,58,87,68,48,-14
29,-39,-68,4,48,-53,14,58,82,68,48,-14
24,-34,-58,4,41,-46,24,68,82,68,48,-14
24,-39,-63,7,43,-51,24,68,82,68,53,-14
24,-43,-68,9,46,-56,24,68,82,68,53,-14
24,-48,-73,12,48,-61,24,68,82,68,53,-14
24,-39,-63,7,43,-51,14,53,73,58,53,-14
24,-39,-63,7,43,-51,14,53,73,58,48,-14
24,-48,-73,12,48,-61,14,53,73,63,48,-9
24,-53,-78,14,51,-65,9,53,73,68,48,-4
24,-53,-78,14,51,-65,19,63,87,68,58,-14
24,-53,-78,14,51,-65,19,63,87,68,58,-14
24,-53,-78,14,51,-65,19,63,87,68,58,-14
24,-48,-73,12,48,-61,19,63,87,68,58,-14
24,-48,-73,12,48,-61,24,53,92,78,58,-14
24,-48,-73,12,48,-61,24,53,87,73,58,-14
24,-48,-73,12,48,-61,24,53,87,73,58,-14
24,-48,-73,12,48,-61,24,53,87,73,58,-14
24,-48,-73,12,48,-61,24,53,92,78,48,-4
24,-58,-82,17,53,-70,24,53,92,78,48,-4
24,-48,-73,12,48,-61,24,53,92,78,48,-4
24,-43,-68,9,46,-56,24,53,92,78,48,-4
29,-53,-82,12,56,-68,24,53,78,78,48,-9
29,-53,-82,12,56,-68,24,53,78,78,48,-9
24,-53,-78,14,51,-65,24,53,78,78,48,-9
24,-53,-78,14,51,-65,24,53,78,78,48,-9
24,-58,-82,17,53,-70,24,43,82,63,48,-9
29,-58,-87,14,58,-73,24,43,82,63,48,-9
29,-58,-87,14,58,-73,24,43,82,63,48,-9
19,-63,-82,21,51,-73,24,43,78,63,48,-9
9,-63,-73,26,41,-68,29,48,68,63,48,-14
9,-63,-73,26,41,-68,29,48,68,63,48,-14
14,-63,-78,24,46,-70,24,43,68,63,48,-14
14,-58,-73,21,43,-65,24,43,68,63,48,-14
24,-48,-73,12,48,-61,14,53,78,63,48,-14
19,-58,-78,19,48,-68,14,53,73,63,43,-14
19,-58,-78,19,48,-68,14,58,73,63,43,-14
24,-53,-78,14,51,-65,14,63,73,63,48,-9
34,-43,-78,4,56,-61,4,53,73,53,39,-9
34,-43,-78,4,56,-61,0,48,73,58,43,-9
34,-39,-73,2,53,-56,-4,48,73,58,43,-9
34,-39,-73,2,53,-56,-9,48,73,58,43,-9
29,-43,-73,7,51,-58,0,43,58,58,43,-19
24,-48,-73,12,48,-61,9,43,58,48,34,-19
19,-53,-73,17,46,-63,24,43,63,48,34,-19
14,-68,-82,26,48,-75,34,43,63,48,34,-19
24,-58,-82,17,53,-70,24,43,63,58,34,-19
24,-53,-78,14,51,-65,14,39,58,53,34,-24
24,-53,-78,14,51,-65,14,39,58,53,34,-24
24,-53,-78,14,51,-65,19,43,58,53,39,-19
19,-53,-73,17,46,-63,19,48,58,48,39,-19
19,-53,-73,17,46,-63,19,48,58,53,39,-19
19,-53,-73,17,46,-63,19,43,58,53,39,-19
24,-53,-78,14,51,-65,19,43,63,53,39,-19
29,-63,-92,17,61,-78,39,53,63,53,39,-14
19,-63,-82,21,51,-73,29,53,63,53,39,-14
14,-63,-78,24,46,-70,29,58,63,63,43,-14
24,-68,-92,21,58,-80,34,58,63,53,53,-14
29,-68,-97,19,63,-82,29,58,68,58,48,-19
29,-53,-82,12,56,-68,24,53,58,48,39,-19
29,-48,-78,9,53,-63,19,48,58,48,39,-19
29,-43,-73,7,51,-58,14,43,58,48,39,-19
29,-39,-68,4,48,-53,9,39,58,48,39,-19
29,-43,-73,7,51,-58,19,53,63,53,43,-14
29,-39,-68,4,48,-53,19,53,68,58,43,-9
29,-39,-68,4,48,-53,9,53,68,58,43,-9
29,-24,-53,-2,41,-39,9,43,68,58,48,-9
29,-29,-58,0,43,-43,9,43,87,58,53,0
29,-19,-48,-4,39,-34,4,43,87,63,53,4
29,-14,-43,-7,36,-29,4,39,87,63,53,4
29,-9,-39,-9,34,-24,0,39,87,63,53,9
29,-4,-34,-12,31,-19,-4,29,82,73,58,9
29,9,-19,-19,24,-4,-9,29,82,73,58,9
34,14,-19,-24,26,-2,-9,29,82,78,58,14
34,19,-14,-26,24,2,-4,29,82,78,58,14
39,14,-24,-26,31,-4,-4,43,92,82,63,14
39,14,-24,-26,31,-4,-4,43,102,87,68,14
39,14,-24,-26,31,-4,-4,39,107,92,73,19
39,19,-19,-29,29,0,-14,39,117,92,78,19
39,34,-4,-36,21,14,-14,29,107,92,82,19
39,43,4,-41,17,24,-19,29,112,92,87,24
48,43,-4,-46,26,19,-24,29,112,97,87,29
48,48,0,-48,24,24,-24,19,107,97,87,29
48,53,4,-51,21,29,-29,19,107,107,102,39
53,63,9,-58,21,36,-43,14,112,117,102,48
58,78,19,-68,19,48,-53,19,112,117,102,58
63,78,14,-70,24,46,-53,19,112,117,102,63
73,82,9,-78,31,46,-68,4,112,117,107,63
73,107,34,-90,19,70,-68,0,107,117,107,63
73,126,53,-100,9,90,-73,0,107,117,107,63
73,136,63,-104,4,100,-73,-4,107,117,107,63
63,136,73,-100,-4,104,-73,-19,97,107,97,53
63,141,78,-102,-7,109,-73,-19,92,107,92,53
63,151,87,-107,-12,119,-73,-19,92,107,87,53
63,141,78,-102,-7,109,-73,-19,92,107,82,53
53,126,73,-90,-9,100,-63,0,102,117,92,53
53,107,53,-80,0,80,-58,4,102,117,97,53
53,97,43,-75,4,70,-53,9,102,117,97,53
63,87,24,-75,19,56,-43,14,102,117,97,53
73,92,19,-82,26,56,-43,14,102,107,87,58
78,82,4,-80,36,43,-43,14,97,97,92,58
82,82,0,-82,41,41,-48,14,97,97,92,53
92,68,-24,-80,58,21,-48,24,97,97,82,53
82,43,-39,-63,61,2,-34,24,87,87,78,48
78,29,-48,-53,63,-9,-34,24,73,78,68,43
73,24,-48,-48,61,-12,-29,24,73,68,63,34
68,14,-53,-41,61,-19,-24,24,73,68,63,29
53,4,-48,-29,51,-21,-19,24,68,63,58,34
48,-9,-58,-19,53,-34,-9,24,63,58,58,19
39,-29,-68,-4,53,-48,4,29,58,53,48,14
29,-48,-78,9,53,-63,14,34,53,43,43,0
9,-63,-73,26,41,-68,34,43,53,43,34,-14
9,-63,-73,26,41,-68,34,48,53,43,29,-14
9,-63,-73,26,41,-68,34,48,53,39,24,-19
9,-68,-78,29,43,-73,39,48,48,24,19,-24
19,-68,-87,24,53,-78,34,39,43,19,24,-29
19,-68,-87,24,53,-78,29,39,39,19,19,-34
24,-68,-92,21,58,-80,19,39,34,19,14,-39
24,-73,-97,24,61,-85,14,39,29,9,9,-39
9,-82,-92,36,51,-87,24,39,29,19,9,-29
9,-82,-92,36,51,-87,24,39,29,19,9,-29
9,-87,-97,39,53,-92,29,39,29,19,9,-29
9,-87,-97,39,53,-92,34,39,29,19,14,-29
19,-97,-117,39,68,-107,34,39,29,14,4,-39
19,-97,-117,39,68,-107,34,48,29,14,4,-39
19,-97,-117,39,68,-107,34,48,34,14,4,-39
19,-97,-117,39,68,-107,34,48,34,14,4,-39
14,-107,-122,46,68,-114,43,48,34,29,9,-39
14,-107,-122,46,68,-114,43,53,34,29,9,-39
14,-112,-126,48,70,-119,48,53,39,29,9,-39
14,-117,-131,51,73,-124,48,53,39,29,9,-39
14,-117,-131,51,73,-124,43,63,39,29,19,-29
14,-117,-131,51,73,-124,43,63,39,29,19,-34
14,-126,-141,56,78,-134,39,63,39,29,19,-34
14,-126,-141,56,78,-134,34,63,39,29,24,-34
24,-117,-141,46,82,-129,39,78,53,34,24,-24
14,-117,-131,51,73,-124,39,68,48,24,19,-34
14,-122,-136,53,75,-129,43,68,48,19,4,-39
19,-126,-146,53,82,-136,48,73,53,14,0,-43
24,-146,-170,61,97,-158,53,87,43,4,-4,-58
29,-175,-204,73,117,-190,73,112,63,-4,-14,-78
24,-195,-219,85,122,-207,87,136,87,14,-4,-92
19,-175,-195,78,107,-185,107,156,131,58,29,-82
43,-165,-209,61,126,-187,117,180,190,112,78,-63
82,-180,-263,48,173,-222,112,239,273,185,136,-29
126,-165,-292,19,209,-229,112,302,409,317,263,39
180,-112,-292,-34,236,-202,102,361,624,527,448,141
244,-39,-283,-102,263,-161,87,439,878,785,683,273
322,4,-317,-163,319,-156,58,502,1102,1039,922,419
424,53,-370,-239,397,-158,0,517,1239,1234,1127,556
502,136,-366,-319,434,-114,-63,492,1322,1390,1298,678
610,239,-370,-424,490,-65,-126,463,1415,1542,1478,824
712,346,-366,-529,539,-9,-224,448,1468,1698,1683,1000
775,453,-322,-614,549,65,-341,351,1395,1737,1786,1137
732,541,-190,-636,461,175,-424,161,1127,1546,1678,1156
556,624,68,-590,244,346,-473,-141,619,1088,1312,1049
287,697,409,-492,-61,553,-512,-522,0,517,824,883
43,795,751,-419,-353,773,-575,-893,-575,19,390,741
-97,883,980,-392,-539,932,-605,-1127,-966,-322,63,644
-165,936,1102,-385,-634,1019,-624,-1220,-1215,-546,-180,575
-200,907,1107,-353,-653,1007,-624,-1239,-1415,-771,-395,468
-248,741,990,-246,-619,866,-566,-1224,-1595,-1019,-653,283
-292,531,824,-119,-558,678,-488,-1156,-1703,-1224,-878,92
-307,419,727,-56,-517,573,-463,-1117,-1737,-1307,-971,-4
-322,380,702,-29,-512,541,-458,-1112,-1747,-1337,-1010,-63
-331,307,639,12,-485,473,-453,-1078,-1742,-1346,-1044,-122
-331,224,556,53,-444,390,-439,-1015,-1668,-1307,-1034,-175
-317,190,507,63,-412,348,-414,-951,-1566,-1244,-1000,-214
-317,161,478,78,-397,319,-370,-878,-1459,-1171,-961,-248
-307,117,424,95,-366,270,-326,-771,-1317,-1073,-912,-268
-278,117,395,80,-336,256,-287,-668,-1137,-951,-824,-268
-263,131,395,65,-329,263,-244,-580,-951,-795,-717,-248
-234,112,346,61,-290,229,-195,-478,-761,-644,-575,-204
-185,112,297,36,-241,204,-161,-380,-595,-517,-463,-165
-151,112,263,19,-207,187,-136,-312,-497,-424,-395,-151
-141,78,219,31,-180,148,-117,-268,-444,-385,-366,-141
-131,43,175,43,-153,109,-82,-219,-400,-361,-351,-146
-112,24,136,43,-124,80,-63,-175,-356,-326,-322,-141
-107,9,117,48,-112,63,-39,-136,-307,-283,-283,-151
-107,-24,82,65,-95,29,-14,-92,-229,-234,-248,-151
-92,-34,58,63,-75,12,0,-53,-165,-175,-204,-141
-58,-24,34,41,-46,4,0,-34,-117,-141,-161,-126
-43,-19,24,31,-34,2,0,-19,-87,-97,-117,-102
-48,-58,-9,53,-19,-34,29,0,-48,-68,-92,-87
-48,-97,-48,73,0,-73,48,19,-39,-58,-82,-73
-39,-78,-39,58,0,-58,34,24,-48,-78,-92,-78
-29,-48,-19,39,-4,-34,43,29,-48,-73,-97,-87
-39,-58,-19,48,-9,-39,53,39,-34,-58,-92,-87
-34,-73,-39,53,2,-56,58,48,-14,-48,-87,-87
-34,-78,-43,56,4,-61,58,58,-4,-34,-73,-87
-24,-73,-48,48,12,-61,63,58,14,-19,-53,-87
-14,-92,-78,53,31,-85,63,68,14,-19,-34,-73
-14,-92,-78,53,31,-85,63,68,14,-19,-43,-73
-14,-97,-82,56,34,-90,63,73,14,-29,-43,-78
-14,-97,-82,56,34,-90,63,73,14,-29,-48,-78
-19,-97,-78,58,29,-87,68,78,14,-29,-48,-78
-19,-87,-68,53,24,-78,68,78,24,-24,-48,-78
-19,-97,-78,58,29,-87,68,82,34,-14,-39,-78
-19,-107,-87,63,34,-97,68,82,34,-9,-34,-78
-29,-112,-82,70,26,-97,82,78,39,-4,-34,-73
-29,-117,-87,73,29,-102,82,78,39,-4,-34,-73
-29,-122,-92,75,31,-107,82,82,39,-4,-34,-68
-29,-126,-97,78,34,-112,82,82,39,-4,-39,-68
-19,-122,-102,70,41,-112,82,82,39,-4,-29,-68
-14,-112,-97,63,41,-104,82,82,39,-4,-29,-68
-14,-107,-92,61,39,-100,82,82,48,-4,-24,-68
-9,-107,-97,58,43,-102,82,87,48,-4,-24,-68
-9,-117,-107,63,48,-112,82,87,48,4,-24,-68
-14,-117,-102,65,43,-109,82,92,48,4,-24,-68
-14,-117,-102,65,43,-109,82,92,39,4,-24,-68
-14,-117,-102,65,43,-109,82,87,39,4,-24,-68
-14,-112,-97,63,41,-104,73,97,39,-4,-24,-73
-19,-112,-92,65,36,-102,73,97,43,-4,-24,-73
-19,-112,-92,65,36,-102,73,97,43,-4,-24,-73
-19,-112,-92,65,36,-102,73,97,43,0,-24,-73
-19,-112,-92,65,36,-102,78,92,39,0,-24,-68
-19,-112,-92,65,36,-102,78,92,39,0,-24,-68
-19,-112,-92,65,36,-102,78,92,39,-4,-29,-73
-19,-112,-92,65,36,-102,78,92,39,-4,-29,-73
-19,-122,-102,70,41,-112,87,92,39,-4,-29,-73
-19,-122,-102,70,41,-112,82,92,39,-9,-34,-73
-19,-122,-102,70,41,-112,82,92,39,-9,-34,-78
-19,-122,-102,70,41,-112,82,92,34,-9,-34,-78
-29,-117,-87,73,29,-102,73,92,43,-9,-34,-78
-29,-112,-82,70,26,-97,73,92,43,-9,-34,-78
-29,-107,-78,68,24,-92,73,92,43,-9,-34,-78
-29,-102,-73,65,21,-87,73,92,43,-9,-34,-78
-29,-112,-82,70,26,-97,73,92,34,-9,-34,-78
-29,-112,-82,70,26,-97,73,92,29,-14,-43,-82
-29,-107,-78,68,24,-92,73,92,29,-14,-43,-82
-34,-102,-68,68,17,-85,73,87,29,-14,-43,-82
-24,-92,-68,58,21,-80,73,87,39,-24,-48,-78
-24,-92,-68,58,21,-80,73,87,39,-29,-48,-82
-24,-92,-68,58,21,-80,73,87,34,-29,-43,-82
-24,-92,-68,58,21,-80,73,87,34,-29,-43,-82
-24,-87,-63,56,19,-75,73,97,24,-19,-48,-82
-24,-87,-63,56,19,-75,78,97,24,-24,-48,-82
-24,-87,-63,56,19,-75,78,97,24,-24,-48,-82
-24,-87,-63,56,19,-75,78,97,24,-24,-48,-82
-34,-97,-63,65,14,-80,87,92,24,-34,-48,-92
-34,-97,-63,65,14,-80,87,92,24,-34,-48,-92
-34,-107,-73,70,19,-90,78,92,24,-34,-53,-92
-39,-97,-58,68,9,-78,78,87,24,-34,-58,-92
-29,-97,-68,63,19,-82,82,87,24,-34,-58,-92
-29,-97,-68,63,19,-82,82,87,24,-34,-58,-92
-29,-97,-68,63,19,-82,82,87,24,-39,-58,-97
-29,-92,-63,61,17,-78,82,87,24,-39,-58,-97
-39,-92,-53,65,7,-73,73,87,24,-29,-63,-87
-39,-87,-48,63,4,-68,73,82,19,-34,-63,-87
-39,-87,-48,63,4,-68,73,82,19,-34,-63,-87
-39,-87,-48,63,4,-68,73,82,19,-34,-63,-87
-29,-87,-58,58,14,-73,73,92,29,-34,-63,-87
-29,-87,-58,58,14,-73,73,92,29,-34,-63,-87
-34,-78,-43,56,4,-61,73,87,24,-34,-63,-87
-39,-78,-39,58,0,-58,73,87,24,-34,-63,-87
-39,-87,-48,63,4,-68,73,78,19,-34,-63,-92
-39,-82,-43,61,2,-63,73,78,19,-34,-63,-92
-39,-73,-34,56,-2,-53,73,78,19,-34,-63,-92
-39,-68,-29,53,-4,-48,63,78,19,-34,-68,-92
-48,-63,-14,56,-17,-39,58,68,9,-43,-68,-92
-48,-53,-4,51,-21,-29,58,68,9,-43,-68,-92
-48,-43,4,46,-26,-19,63,63,9,-43,-68,-92
-53,-29,24,41,-39,-2,63,63,9,-43,-73,-92
-43,-14,29,29,-36,7,53,58,0,-43,-92,-92
-48,0,48,24,-48,24,53,53,-4,-43,-92,-92
-48,4,53,21,-51,29,53,53,-4,-48,-87,-92
-48,14,63,17,-56,39,53,48,-9,-53,-87,-87
-58,14,73,21,-65,43,58,48,0,-53,-82,-87
-63,19,82,21,-73,51,53,43,-4,-53,-82,-87
-68,19,87,24,-78,53,53,43,-4,-53,-82,-82
-73,24,97,24,-85,61,53,39,-4,-53,-87,-82
-63,29,92,17,-78,61,43,39,-14,-63,-87,-92
-63,39,102,12,-82,70,34,24,-14,-68,-97,-87
-63,43,107,9,-85,75,29,19,-19,-68,-97,-87
-73,58,131,7,-102,95,24,19,-24,-68,-97,-82
-73,78,151,-2,-112,114,29,19,-29,-68,-92,-78
-73,87,161,-7,-117,124,24,9,-34,-73,-92,-73
-73,102,175,-14,-124,139,19,9,-34,-73,-97,-58
-82,122,204,-19,-143,163,19,-4,-39,-78,-102,-53
-82,136,219,-26,-151,178,9,-24,-43,-82,-107,-63
-87,141,229,-26,-158,185,9,-34,-53,-87,-117,-58
-92,151,244,-29,-168,197,4,-43,-58,-87,-126,-53
-97,165,263,-34,-180,214,0,-48,-68,-97,-131,-53
-107,165,273,-29,-190,219,0,-58,-73,-97,-136,-58
-112,175,287,-31,-200,231,-4,-58,-73,-97,-136,-58
-126,185,312,-29,-219,248,-9,-73,-78,-97,-136,-48
-136,209,346,-36,-241,278,-14,-82,-82,-97,-136,-43
-136,229,366,-46,-251,297,-19,-92,-87,-117,-146,-39
-141,234,375,-46,-258,305,-24,-102,-97,-117,-151,-34
-141,244,385,-51,-263,314,-29,-112,-102,-122,-151,-34
-141,253,395,-56,-268,324,-34,-117,-117,-126,-156,-34
-131,263,395,-65,-263,329,-34,-136,-131,-126,-161,-34
-136,263,400,-63,-268,331,-34,-146,-131,-126,-161,-24
-141,268,409,-63,-275,339,-39,-151,-136,-131,-161,-24
-146,268,414,-61,-280,341,-43,-156,-141,-131,-161,-19
-151,278,429,-63,-290,353,-34,-165,-131,-131,-170,-14
-156,278,434,-61,-295,356,-34,-170,-136,-131,-170,-9
-156,283,439,-63,-297,361,-39,-170,-141,-131,-170,-9
-156,283,439,-63,-297,361,-39,-180,-141,-131,-170,-9
-156,268,424,-56,-290,346,-39,-180,-151,-136,-170,-9
-156,263,419,-53,-287,341,-48,-180,-146,-131,-170,-4
-156,258,414,-51,-285,336,-39,-180,-146,-131,-170,-4
-156,253,409,-48,-283,331,-34,-190,-151,-131,-170,-4
-165,239,405,-36,-285,322,-34,-180,-161,-131,-170,-4
-165,234,400,-34,-283,317,-34,-175,-156,-131,-161,-4
-156,229,385,-36,-270,307,-34,-170,-141,-122,-156,0
-156,224,380,-34,-268,302,-34,-170,-136,-112,-156,0
-151,209,361,-29,-256,285,-34,-175,-131,-112,-146,0
-146,195,341,-24,-244,268,-34,-165,-122,-107,-141,4
-141,190,331,-24,-236,261,-39,-165,-117,-97,-131,9
-136,180,317,-21,-226,248,-43,-165,-107,-92,-126,9
-126,180,307,-26,-217,244,-39,-161,-102,-78,-122,9
-122,170,292,-24,-207,231,-39,-156,-87,-68,-112,14
-117,165,283,-24,-200,224,-34,-141,-78,-58,-97,19
-112,161,273,-24,-192,217,-34,-131,-68,-48,-92,24
-97,141,239,-21,-168,190,-24,-122,-68,-39,-73,24
-92,126,219,-17,-156,173,-24,-112,-53,-29,-58,29
-78,126,204,-24,-141,165,-19,-102,-48,-24,-48,29
-68,112,180,-21,-124,146,-19,-97,-39,-9,-34,29
-63,97,161,-17,-112,129,-19,-73,-19,4,-39,39
-58,92,151,-17,-104,122,-19,-73,-4,9,-29,39
-53,82,136,-14,-95,109,-19,-58,-4,9,-19,39
-43,73,117,-14,-80,95,-14,-53,0,9,-14,39
-39,78,117,-19,-78,97,-24,-48,4,19,-9,39
-34,63,97,-14,-65,80,-14,-43,9,29,-4,39
-29,53,82,-12,-56,68,-14,-29,19,29,0,39
-24,53,78,-14,-51,65,-14,-29,19,29,4,39
-9,43,53,-17,-31,48,-14,-29,34,39,9,39
-4,24,29,-9,-17,26,-14,-19,39,39,14,39
0,19,19,-9,-9,19,-9,-14,39,39,24,39
0,19,19,-9,-9,19,-9,-9,48,43,29,39
-4,9,14,-2,-9,12,-9,0,58,48,48,48
-4,4,9,0,-7,7,-4,9,58,58,48,48
-4,-4,0,4,-2,-2,-4,19,58,63,48,48
0,-9,-9,4,4,-9,-4,29,63,68,48,39
9,-19,-29,4,19,-24,4,29,53,63,39,29
9,-24,-34,7,21,-29,9,24,53,58,39,29
9,-24,-34,7,21,-29,9,19,53,53,39,29
9,-34,-43,12,26,-39,14,14,53,39,34,24
14,-29,-43,7,29,-36,4,19,53,48,34,24
19,-29,-48,4,34,-39,4,19,53,53,34,24
19,-29,-48,4,34,-39,4,24,53,53,34,24
14,-34,-48,9,31,-41,4,24,53,48,34,19
14,-39,-53,12,34,-46,14,34,53,48,43,29
19,-34,-53,7,36,-43,14,39,48,48,39,24
19,-39,-58,9,39,-48,14,39,48,43,39,24
19,-48,-68,14,43,-58,14,39,48,43,39,24
19,-39,-58,9,39,-48,14,39,48,43,39,24
19,-39,-58,9,39,-48,14,39,48,39,29,14
24,-39,-63,7,43,-51,14,39,48,39,29,14
24,-39,-63,7,43,-51,14,39,43,39,29,14
9,-43,-53,17,31,-48,4,39,43,29,19,24
4,-53,-58,24,31,-56,4,39,34,29,19,24
4,-53,-58,24,31,-56,9,39,34,29,19,19
4,-48,-53,21,29,-51,9,39,34,29,14,19
14,-34,-48,9,31,-41,9,39,24,19,14,9
14,-34,-48,9,31,-41,9,39,24,9,9,0
19,-34,-53,7,36,-43,9,39,24,9,9,0
19,-39,-58,9,39,-48,9,39,24,9,9,0
19,-34,-53,7,36,-43,9,29,19,9,0,-9
19,-34,-53,7,36,-43,9,29,19,9,0,-9
19,-34,-53,7,36,-43,9,29,24,9,0,-9
19,-34,-53,7,36,-43,9,29,24,9,0,-9
19,-43,-63,12,41,-53,9,34,34,9,0,-9
19,-43,-63,12,41,-53,19,39,34,9,4,-9
19,-43,-63,12,41,-53,19,39,34,9,9,-9
24,-43,-68,9,46,-56,14,39,34,9,14,-9
14,-53,-68,19,41,-61,4,39,34,4,4,-14
9,-53,-63,21,36,-58,4,39,34,4,4,-14
9,-53,-63,21,36,-58,4,39,34,4,4,-14
9,-58,-68,24,39,-63,4,39,34,4,4,-14
14,-63,-78,24,46,-70,-4,53,34,14,4,-4
14,-63,-78,24,46,-70,-4,53,39,14,4,-4
14,-58,-73,21,43,-65,0,53,43,14,4,-4
14,-58,-73,21,43,-65,0,53,43,14,4,-4
14,-63,-78,24,46,-70,9,43,43,19,14,-14
14,-68,-82,26,48,-75,9,48,43,19,14,-14
14,-68,-82,26,48,-75,9,58,43,24,19,-14
14,-63,-78,24,46,-70,9,48,43,24,24,-14
14,-63,-78,24,46,-70,19,39,34,19,14,-14
14,-73,-87,29,51,-80,24,43,39,24,14,-14
14,-63,-78,24,46,-70,24,48,39,24,14,-14
19,-63,-82,21,51,-73,19,48,39,19,9,-14
9,-73,-82,31,46,-78,9,53,48,29,9,-14
9,-73,-82,31,46,-78,9,53,53,29,9,-14
9,-73,-82,31,46,-78,14,58,58,29,14,-14
9,-78,-87,34,48,-82,14,58,58,29,14,-14
9,-78,-87,34,48,-82,14,58,58,39,24,-4
9,-68,-78,29,43,-73,14,58,58,39,24,-4
14,-68,-82,26,48,-75,14,58,58,43,29,-4
14,-73,-87,29,51,-80,14,58,63,43,29,-4
24,-63,-87,19,56,-75,19,58,63,34,19,-4
24,-58,-82,17,53,-70,19,58,63,34,19,-4
24,-58,-82,17,53,-70,24,63,63,34,19,-4
14,-58,-73,21,43,-65,24,63,63,34,19,-4
24,-48,-73,12,48,-61,14,63,53,34,19,-14
24,-48,-73,12,48,-61,19,63,53,34,19,-19
19,-48,-68,14,43,-58,19,63,53,34,19,-19
19,-48,-68,14,43,-58,19,63,53,34,19,-19
19,-63,-82,21,51,-73,24,53,63,39,29,-9
19,-68,-87,24,53,-78,24,53,68,39,29,-4
19,-73,-92,26,56,-82,24,58,68,39,29,0
19,-87,-107,34,63,-97,24,58,63,39,29,4
24,-63,-87,19,56,-75,14,58,53,29,19,-4
24,-58,-82,17,53,-70,14,58,53,29,24,-4
24,-53,-78,14,51,-65,14,58,53,29,24,-4
24,-48,-73,12,48,-61,14,58,53,29,24,-4
24,-53,-78,14,51,-65,24,58,58,39,34,-4
24,-58,-82,17,53,-70,24,63,63,39,29,-4
24,-73,-97,24,61,-85,24,68,68,43,29,0
24,-82,-107,29,65,-95,19,73,73,48,29,4
24,-78,-102,26,63,-90,9,63,68,39,29,-4
24,-73,-97,24,61,-85,9,63,68,39,29,-4
24,-68,-92,21,58,-80,9,63,68,39,29,-4
24,-58,-82,17,53,-70,9,63,68,39,29,-4
14,-48,-63,17,39,-56,4,63,73,48,19,4
14,-48,-63,17,39,-56,4,63,68,43,19,4
14,-48,-63,17,39,-56,4,63,68,43,19,4
14,-48,-63,17,39,-56,4,63,68,43,19,4
24,-53,-78,14,51,-65,9,63,73,48,29,4
24,-68,-92,21,58,-80,14,63,73,48,29,4
24,-63,-87,19,56,-75,19,63,73,48,29,4
24,-63,-87,19,56,-75,24,63,73,48,29,4
19,-63,-82,21,51,-73,14,63,68,39,29,9
19,-63,-82,21,51,-73,14,63,68,39,29,9
14,-63,-78,24,46,-70,14,63,68,39,29,9
14,-63,-78,24,46,-70,14,63,68,39,29,9
24,-68,-92,21,58,-80,14,63,73,43,29,9
29,-68,-97,19,63,-82,14,63,73,43,29,9
29,-68,-97,19,63,-82,14,63,73,43,29,9
19,-73,-92,26,56,-82,14,63,68,43,29,9
9,-63,-73,26,41,-68,9,58,58,34,19,4
9,-63,-73,26,41,-68,9,58,58,34,19,4
14,-63,-78,24,46,-70,4,53,58,34,19,4
14,-58,-73,21,43,-65,4,53,58,34,19,4
24,-53,-78,14,51,-65,9,53,68,43,29,4
19,-68,-87,24,53,-78,14,53,63,43,24,4
19,-73,-92,26,56,-82,19,58,63,43,24,4
24,-73,-97,24,61,-85,24,63,63,43,29,9
24,-63,-87,19,56,-75,19,53,63,43,29,9
24,-63,-87,19,56,-75,19,48,63,48,34,9
24,-58,-82,17,53,-70,19,48,63,48,34,9
24,-58,-82,17,53,-70,19,48,63,48,34,9
14,-53,-68,19,41,-61,14,43,48,48,34,9
14,-48,-63,17,39,-56,9,43,48,39,24,9
14,-43,-58,14,36,-51,9,43,53,39,24,9
14,-48,-63,17,39,-56,4,43,53,39,24,9
14,-53,-68,19,41,-61,4,53,63,39,34,19
14,-53,-68,19,41,-61,-4,48,58,34,34,14
14,-58,-73,21,43,-65,-4,48,58,34,34,14
14,-63,-78,24,46,-70,0,53,58,34,39,19
9,-63,-73,26,41,-68,0,48,48,29,34,14
9,-63,-73,26,41,-68,0,48,48,34,29,9
9,-63,-73,26,41,-68,0,43,48,34,24,4
14,-63,-78,24,46,-70,0,43,53,34,19,0
19,-68,-87,24,53,-78,14,43,63,34,29,14
19,-73,-92,26,56,-82,19,43,63,34,29,14
14,-78,-92,31,53,-85,24,48,63,34,34,14
14,-78,-92,31,53,-85,34,48,63,34,34,14
14,-82,-97,34,56,-90,24,48,53,39,34,14
14,-78,-92,31,53,-85,24,58,48,43,34,24
19,-48,-68,14,43,-58,19,58,58,48,29,19
29,-58,-87,14,58,-73,19,53,58,39,29,9
29,-58,-87,14,58,-73,19,48,58,39,29,9
29,-58,-87,14,58,-73,19,43,58,39,29,9
29,-58,-87,14,58,-73,19,39,58,39,29,9
29,-43,-73,7,51,-58,9,53,73,53,34,14
29,-39,-68,4,48,-53,9,53,78,58,34,19
29,-39,-68,4,48,-53,0,53,78,58,34,19
29,-24,-53,-2,41,-39,0,43,78,58,39,19
29,-19,-48,-4,39,-34,-9,34,78,58,53,29
29,-9,-39,-9,34,-24,-14,34,78,63,53,34
29,-4,-34,-12,31,-19,-14,29,78,63,53,34
29,0,-29,-14,29,-14,-19,29,78,63,53,39
19,0,-19,-9,19,-9,-19,29,82,63,48,29
19,9,-9,-14,14,0,-19,29,82,63,48,29
24,9,-14,-17,19,-2,-14,29,82,68,48,34
24,9,-14,-17,19,-2,-4,29,82,68,48,34
39,9,-29,-24,34,-9,-4,34,82,73,53,43
39,14,-24,-26,31,-4,-4,34,92,78,58,43
39,19,-19,-29,29,0,-4,29,97,82,63,48
39,29,-9,-34,24,9,-14,29,107,82,68,48
39,24,-14,-31,26,4,-24,39,117,102,82,58
39,34,-4,-36,21,14,-29,39,122,102,87,63
48,34,-14,-41,31,9,-34,39,122,107,87,68
48,39,-9,-43,29,14,-34,29,117,107,87,68
58,58,0,-58,29,29,-39,14,107,97,82,73
63,73,9,-68,26,41,-53,4,112,107,82,78
68,92,24,-80,21,58,-63,4,112,107,82,82
73,97,24,-85,24,61,-63,0,112,107,82,82
63,87,24,-75,19,56,-68,-4,102,97,87,92
63,107,43,-85,9,75,-68,-9,97,97,87,92
63,122,58,-92,2,90,-73,-9,97,97,87,92
63,126,63,-95,0,95,-73,-14,97,97,87,92
53,136,82,-95,-14,109,-73,-19,97,97,82,82
53,141,87,-97,-17,114,-73,-19,92,97,82,82
53,151,97,-102,-21,124,-73,-19,92,97,82,82
53,141,87,-97,-17,114,-73,-19,92,97,82,82
63,122,58,-92,2,90,-68,-9,92,107,82,92
63,107,43,-85,9,75,-68,-4,92,107,87,92
63,102,39,-82,12,70,-68,0,92,107,87,92
73,97,24,-85,24,61,-63,4,92,107,87,92
78,82,4,-80,36,43,-48,24,102,107,87,97
78,63,-14,-70,46,24,-43,24,97,97,92,97
78,53,-24,-65,51,14,-43,24,97,97,92,92
82,29,-53,-56,68,-12,-39,34,97,97,82,92
82,29,-53,-56,68,-12,-34,24,87,78,68,78
78,19,-58,-48,68,-19,-34,24,73,68,58,73
73,19,-53,-46,63,-17,-29,24,73,58,53,63
68,14,-53,-41,61,-19,-24,24,73,58,53,58
53,4,-48,-29,51,-21,-29,24,68,63,48,53
48,-9,-58,-19,53,-34,-19,24,63,58,48,39
39,-29,-68,-4,53,-48,-4,29,58,53,39,34
29,-48,-78,9,53,-63,4,34,53,43,34,19
19,-73,-92,26,56,-82,24,34,53,43,34,24
19,-73,-92,26,56,-82,24,39,53,43,29,24
19,-73,-92,26,56,-82,24,39,53,39,24,19
19,-78,-97,29,58,-87,29,39,48,24,19,14
19,-82,-102,31,61,-92,19,39,53,19,14,19
19,-87,-107,34,63,-97,19,39,48,19,9,14
24,-92,-117,34,70,-104,14,39,43,19,4,9
24,-102,-126,39,75,-114,14,39,39,9,0,9
19,-92,-112,36,65,-102,14,39,34,0,0,0
19,-92,-112,36,65,-102,14,39,29,0,0,0
19,-97,-117,39,68,-107,19,39,24,0,0,0
19,-97,-117,39,68,-107,24,39,19,0,4,0
9,-107,-117,48,63,-112,34,39,24,14,4,0
9,-107,-117,48,63,-112,34,48,29,14,4,0
9,-107,-117,48,63,-112,34,48,39,14,4,0
9,-107,-117,48,63,-112,34,48,43,14,4,0
14,-107,-122,46,68,-114,34,58,43,19,9,0
14,-107,-122,46,68,-114,34,63,43,19,9,0
14,-112,-126,48,70,-119,39,63,48,19,9,0
14,-117,-131,51,73,-124,39,63,48,19,9,0
14,-126,-141,56,78,-134,29,63,48,19,9,9
14,-126,-141,56,78,-134,34,63,48,19,9,4
14,-136,-151,61,82,-143,34,63,48,19,9,4
14,-136,-151,61,82,-143,34,63,48,19,14,4
4,-126,-131,61,68,-129,39,68,63,24,14,4
14,-126,-141,56,78,-134,39,68,58,24,19,4
24,-122,-146,48,85,-134,43,78,48,19,4,-9
19,-146,-165,63,92,-156,58,82,53,14,-9,-14
14,-175,-190,80,102,-183,63,117,53,4,-14,-29
29,-195,-224,82,126,-209,73,141,73,4,-24,-58
34,-175,-209,70,122,-192,87,156,117,24,-4,-63
29,-165,-195,68,112,-180,97,165,170,68,39,-43
53,-175,-229,61,141,-202,107,209,239,141,97,-24
102,-170,-273,34,187,-222,112,268,361,253,195,39
156,-136,-292,-9,224,-214,102,341,536,424,351,126
219,-73,-292,-73,256,-183,82,419,780,663,556,248
302,-9,-312,-146,307,-161,68,497,1024,922,800,380
390,43,-346,-217,368,-151,29,541,1200,1137,1010,517
473,112,-361,-292,417,-124,-29,527,1288,1293,1185,624
551,195,-356,-373,453,-80,-92,502,1361,1439,1356,756
658,297,-361,-478,509,-31,-185,463,1424,1590,1537,932
741,395,-346,-568,544,24,-302,390,1410,1688,1693,1088
756,483,-273,-619,514,104,-409,244,1229,1610,1698,1176
614,561,-53,-588,334,253,-473,-14,824,1263,1444,1117
409,644,234,-527,87,439,-522,-375,239,727,1000,961
180,736,556,-458,-187,646,-561,-775,-370,195,551,814
-14,824,839,-405,-427,832,-605,-1068,-849,-204,195,712
-107,883,990,-387,-549,936,-624,-1195,-1141,-468,-73,644
-156,888,1044,-366,-600,966,-634,-1259,-1351,-683,-278,566
-219,790,1010,-285,-614,900,-605,-1278,-1561,-927,-531,409
-268,585,854,-158,-561,719,-556,-1224,-1693,-1156,-790,214
-292,424,717,-65,-505,570,-517,-1176,-1732,-1273,-927,73
-297,370,668,-36,-483,519,-502,-1146,-1747,-1307,-971,14
-302,331,634,-14,-468,483,-497,-1112,-1737,-1317,-990,-34
-292,278,570,7,-431,424,-483,-1058,-1673,-1288,-985,-82
-302,214,517,43,-409,366,-458,-995,-1581,-1229,-966,-126
-297,170,468,63,-383,319,-424,-912,-1478,-1156,-932,-146
-287,141,429,73,-358,285,-370,-819,-1332,-1073,-883,-170
-268,117,385,75,-326,251,-326,-732,-1171,-956,-824,-190
-258,126,385,65,-322,256,-287,-649,-990,-824,-727,-180
-234,151,385,41,-309,268,-244,-541,-805,-668,-610,-151
-204,141,346,31,-275,244,-185,-429,-624,-517,-478,-107
-165,102,268,31,-217,185,-141,-331,-507,-419,-395,-97
-141,73,214,34,-178,143,-117,-273,-439,-366,-346,-92
-122,58,180,31,-151,119,-97,-229,-395,-346,-326,-92
-102,24,126,39,-114,75,-82,-190,-351,-331,-322,-87
-102,-4,97,53,-100,46,-63,-156,-317,-297,-302,-92
-97,-29,68,63,-82,19,-39,-117,-258,-263,-283,-112
-87,-34,53,61,-70,9,-4,-82,-190,-214,-239,-112
-82,-43,39,63,-61,-2,9,-43,-126,-146,-175,-92
-78,-53,24,65,-51,-14,19,-14,-78,-92,-112,-68
-73,-58,14,65,-43,-21,29,0,-48,-68,-78,-53
-48,-58,-9,53,-19,-34,48,9,-39,-68,-82,-48
-29,-58,-29,43,0,-43,48,19,-39,-68,-92,-53
-29,-78,-48,53,9,-63,34,24,-39,-78,-102,-48
-29,-78,-48,53,9,-63,43,29,-29,-73,-97,-48
-39,-82,-43,61,2,-63,43,29,-14,-58,-82,-48
-34,-92,-58,63,12,-75,48,39,4,-48,-78,-48
-34,-92,-58,63,12,-75,48,48,14,-34,-63,-48
-24,-82,-58,53,17,-70,53,48,34,-19,-43,-48
-34,-97,-63,65,14,-80,63,58,24,-9,-34,-43
-34,-102,-68,68,17,-85,63,58,24,-9,-43,-43
-34,-112,-78,73,21,-95,63,63,24,-19,-43,-48
-34,-117,-82,75,24,-100,63,63,24,-19,-48,-48
-19,-112,-92,65,36,-102,63,68,24,-29,-48,-39
-19,-97,-78,58,29,-87,58,68,34,-24,-48,-39
-19,-102,-82,61,31,-92,53,73,43,-14,-39,-39
-19,-107,-87,63,34,-97,48,73,43,-9,-34,-39
-29,-107,-78,68,24,-92,63,78,39,-4,-34,-43
-29,-107,-78,68,24,-92,63,78,39,-4,-34,-43
-29,-107,-78,68,24,-92,63,82,39,-4,-34,-39
-29,-107,-78,68,24,-92,63,82,39,-4,-39,-39
-19,-117,-97,68,39,-107,73,73,39,-4,-39,-48
-14,-112,-97,63,41,-104,73,73,39,-4,-39,-48
-14,-112,-97,63,41,-104,73,73,48,-4,-34,-48
-9,-117,-107,63,48,-112,73,78,48,-4,-34,-48
-19,-107,-87,63,34,-97,73,87,58,-4,-24,-48
-24,-107,-82,65,29,-95,73,92,58,-4,-24,-48
-24,-107,-82,65,29,-95,73,92,48,-4,-24,-48
-24,-107,-82,65,29,-95,73,87,48,-4,-24,-48
-24,-122,-97,73,36,-109,73,78,39,-4,-34,-53
-29,-122,-92,75,31,-107,73,78,43,-4,-34,-53
-29,-122,-92,75,31,-107,73,78,43,-4,-34,-53
-29,-122,-92,75,31,-107,73,78,43,0,-34,-53
-29,-131,-102,80,36,-117,78,82,48,0,-24,-48
-29,-131,-102,80,36,-117,78,82,48,0,-24,-48
-29,-131,-102,80,36,-117,78,82,48,-4,-29,-53
-29,-131,-102,80,36,-117,78,82,48,-4,-29,-53
-19,-122,-102,70,41,-112,78,82,39,-4,-39,-63
-19,-122,-102,70,41,-112,73,82,39,-9,-43,-63
-19,-122,-102,70,41,-112,73,82,39,-9,-43,-68
-19,-122,-102,70,41,-112,73,82,34,-9,-43,-68
-29,-131,-102,80,36,-117,82,92,39,-9,-43,-58
-29,-131,-102,80,36,-117,82,92,43,-9,-43,-58
-29,-131,-102,80,36,-117,82,92,48,-9,-43,-58
-29,-131,-102,80,36,-117,82,92,53,-9,-43,-58
-19,-131,-112,75,46,-122,78,102,53,-9,-34,-58
-19,-131,-112,75,46,-122,73,102,48,-14,-43,-63
-19,-126,-107,73,43,-117,68,102,48,-14,-43,-63
-24,-122,-97,73,36,-109,63,97,48,-14,-43,-63
-24,-112,-87,68,31,-100,63,92,39,-14,-58,-68
-24,-112,-87,68,31,-100,63,87,39,-19,-58,-73
-24,-112,-87,68,31,-100,63,82,34,-19,-53,-73
-24,-112,-87,68,31,-100,63,78,34,-19,-53,-73
-34,-107,-73,70,19,-90,73,78,34,-29,-58,-82
-34,-107,-73,70,19,-90,78,78,34,-34,-58,-82
-34,-107,-73,70,19,-90,78,78,34,-34,-58,-82
-34,-107,-73,70,19,-90,78,78,34,-34,-58,-82
-34,-97,-63,65,14,-80,87,92,24,-34,-58,-82
-34,-97,-63,65,14,-80,87,92,24,-34,-58,-82
-34,-107,-73,70,19,-90,78,92,24,-34,-63,-82
-39,-97,-58,68,9,-78,78,87,24,-34,-68,-82
-39,-97,-58,68,9,-78,78,97,29,-24,-68,-82
-39,-97,-58,68,9,-78,73,97,34,-24,-68,-82
-39,-97,-58,68,9,-78,68,97,39,-29,-68,-87
-39,-92,-53,65,7,-73,63,97,43,-29,-68,-87
-29,-92,-63,61,17,-78,73,87,43,-39,-73,-78
-29,-87,-58,58,14,-73,73,82,39,-43,-73,-78
-29,-87,-58,58,14,-73,73,82,39,-43,-73,-78
-29,-87,-58,58,14,-73,73,82,39,-43,-73,-78
-39,-87,-48,63,4,-68,63,82,29,-43,-82,-87
-39,-87,-48,63,4,-68,63,82,29,-43,-82,-87
-43,-78,-34,61,-4,-56,63,78,24,-43,-82,-87
-48,-78,-29,63,-9,-53,63,78,24,-43,-82,-87
-48,-78,-29,63,-9,-53,73,78,24,-34,-73,-82
-48,-73,-24,61,-12,-48,73,78,29,-34,-73,-82
-48,-63,-14,56,-17,-39,73,78,34,-34,-73,-82
-48,-58,-9,53,-19,-34,63,78,39,-34,-78,-82
-58,-68,-9,63,-24,-39,68,68,29,-43,-87,-82
-58,-63,-4,61,-26,-34,68,68,29,-43,-87,-82
-58,-58,0,58,-29,-29,73,63,29,-43,-87,-82
-63,-48,14,56,-39,-17,73,63,29,-43,-92,-82
-53,-43,9,48,-31,-17,53,58,19,-43,-92,-82
-58,-29,29,43,-43,0,53,53,14,-43,-92,-82
-58,-24,34,41,-46,4,53,53,14,-48,-87,-82
-58,-14,43,36,-51,14,53,48,9,-53,-87,-78
-58,-4,53,31,-56,24,48,39,9,-43,-92,-78
-63,9,73,26,-68,41,43,34,4,-43,-92,-78
-68,19,87,24,-78,53,43,34,4,-43,-92,-73
-73,34,107,19,-90,70,43,29,4,-43,-97,-73
-73,39,112,17,-92,75,53,19,4,-53,-97,-73
-73,48,122,12,-97,85,43,4,4,-58,-107,-68
-73,53,126,9,-100,90,39,0,0,-58,-107,-68
-82,68,151,7,-117,109,34,0,-4,-58,-107,-63
-82,78,161,2,-122,119,19,-9,-19,-68,-112,-63
-82,87,170,-2,-126,129,14,-19,-24,-73,-112,-63
-82,102,185,-9,-134,143,9,-19,-24,-73,-117,-53
-92,122,214,-14,-153,168,9,-34,-29,-78,-122,-53
-102,136,239,-17,-170,187,0,-34,-34,-73,-122,-53
-107,141,248,-17,-178,195,0,-43,-43,-78,-126,-48
-112,151,263,-19,-187,207,-4,-53,-48,-78,-131,-43
-117,165,283,-24,-200,224,-9,-58,-58,-87,-131,-43
-122,165,287,-21,-204,226,-9,-78,-53,-78,-136,-48
-122,175,297,-26,-209,236,-14,-78,-53,-78,-136,-48
-131,185,317,-26,-224,251,-19,-92,-58,-78,-136,-39
-136,209,346,-36,-241,278,-24,-102,-63,-78,-136,-34
-136,229,366,-46,-251,297,-19,-102,-78,-97,-146,-39
-141,234,375,-46,-258,305,-24,-112,-87,-97,-151,-34
-141,244,385,-51,-263,314,-29,-122,-92,-102,-151,-34
-141,253,395,-56,-268,324,-34,-126,-107,-107,-156,-34
-141,273,414,-65,-278,344,-43,-146,-102,-117,-161,-34
-146,273,419,-63,-283,346,-43,-156,-102,-117,-161,-24
-151,278,429,-63,-290,353,-48,-161,-107,-122,-161,-24
-156,278,434,-61,-295,356,-53,-165,-112,-122,-161,-19
-170,287,458,-58,-314,373,-63,-175,-112,-112,-170,-14
-175,287,463,-56,-319,375,-63,-180,-117,-112,-170,-9
-175,292,468,-58,-322,380,-68,-180,-122,-112,-170,-9
-175,292,468,-58,-322,380,-68,-190,-122,-112,-170,-9
-165,273,439,-53,-302,356,-63,-190,-131,-107,-161,0
-165,263,429,-48,-297,346,-68,-190,-126,-102,-161,4
-165,253,419,-43,-292,336,-53,-190,-126,-102,-161,4
-165,244,409,-39,-287,326,-43,-200,-131,-102,-161,4
-165,253,419,-43,-292,336,-48,-209,-141,-112,-170,-4
-165,253,419,-43,-292,336,-53,-204,-136,-112,-161,-4
-156,253,409,-48,-283,331,-58,-200,-122,-102,-156,0
-156,253,409,-48,-283,331,-63,-200,-117,-92,-156,0
-151,229,380,-39,-265,305,-58,-185,-112,-82,-136,9
-146,214,361,-34,-253,287,-53,-175,-102,-78,-131,14
-141,209,351,-34,-246,280,-53,-175,-97,-68,-122,19
-136,200,336,-31,-236,268,-53,-175,-87,-63,-117,19
-117,195,312,-39,-214,253,-48,-161,-82,-58,-112,9
-112,180,292,-34,-202,236,-48,-156,-68,-48,-102,14
-107,170,278,-31,-192,224,-43,-141,-58,-39,-87,19
-102,161,263,-29,-183,212,-43,-131,-48,-29,-82,24
-107,146,253,-19,-180,200,-43,-122,-29,-9,-63,29
-102,126,229,-12,-165,178,-43,-112,-14,0,-48,39
-87,122,209,-17,-148,165,-39,-102,-9,4,-39,43
-78,102,180,-12,-129,141,-39,-97,0,19,-24,48
-63,92,156,-14,-109,124,-29,-92,4,24,-24,53
-58,92,151,-17,-104,122,-29,-92,14,29,-19,48
-53,87,141,-17,-97,114,-29,-78,9,29,-14,43
-43,82,126,-19,-85,104,-24,-73,9,29,-14,39
-39,68,107,-14,-73,87,-34,-58,24,39,0,43
-34,53,87,-9,-61,70,-24,-53,29,48,4,48
-29,43,73,-7,-51,58,-24,-39,39,48,9,53
-24,43,68,-9,-46,56,-24,-39,39,48,14,58
-29,24,53,2,-41,39,-14,-39,43,58,24,53
-24,4,29,9,-26,17,-14,-29,48,58,24,48
-19,0,19,9,-19,9,-9,-24,48,58,29,43
-19,0,19,9,-19,9,-9,-19,58,63,29,39
-14,0,14,7,-14,7,-19,-24,48,53,29,29
-14,-4,9,9,-12,2,-14,-19,48,58,29,29
-14,-14,0,14,-7,-7,-14,-14,48,58,29,29
-9,-19,-9,14,0,-14,-14,-9,53,58,29,19
-4,-24,-19,14,7,-21,-19,0,63,68,39,29
0,-24,-24,12,12,-24,-19,4,63,68,39,29
4,-19,-24,7,14,-21,-24,9,63,68,39,29
9,-24,-34,7,21,-29,-24,14,63,58,34,24
4,-24,-29,9,17,-26,-14,9,53,48,34,14
9,-29,-39,9,24,-34,-14,9,53,53,34,14
9,-34,-43,12,26,-39,-14,14,53,53,34,14
4,-43,-48,19,26,-46,-14,14,53,48,34,9
14,-34,-48,9,31,-41,-14,14,53,48,24,9
19,-24,-43,2,31,-34,-14,19,48,48,19,4
19,-24,-43,2,31,-34,-14,19,48,43,19,4
19,-29,-48,4,34,-39,-14,19,48,43,19,4
9,-34,-43,12,26,-39,-14,19,48,34,19,4
9,-39,-48,14,29,-43,-14,19,48,29,9,-4
14,-43,-58,14,36,-51,-14,19,48,29,9,-4
14,-48,-63,17,39,-56,-14,19,43,29,9,-4
0,-43,-43,21,21,-43,-14,19,53,29,19,-14
-4,-53,-48,29,21,-51,-14,19,43,29,19,-14
-4,-53,-48,29,21,-51,-9,19,43,29,19,-19
-4,-48,-43,26,19,-46,-9,19,43,29,14,-19
0,-34,-34,17,17,-34,-19,19,43,29,4,-19
4,-34,-39,14,21,-36,-19,19,43,19,0,-29
14,-34,-48,9,31,-41,-19,19,43,19,0,-29
19,-39,-58,9,39,-48,-19,19,43,19,0,-29
9,-53,-63,21,36,-58,-9,29,39,29,9,-29
9,-53,-63,21,36,-58,-9,29,39,29,9,-29
9,-53,-63,21,36,-58,-9,29,43,29,9,-29
9,-53,-63,21,36,-58,-9,29,43,29,9,-29
9,-53,-63,21,36,-58,-9,24,43,29,14,-29
9,-53,-63,21,36,-58,0,29,43,29,14,-29
9,-53,-63,21,36,-58,0,29,43,29,14,-29
14,-53,-68,19,41,-61,-4,29,43,29,14,-29
4,-63,-68,29,36,-65,-14,29,43,24,4,-34
0,-63,-63,31,31,-63,-14,29,43,24,4,-34
0,-63,-63,31,31,-63,-14,29,43,24,4,-34
0,-68,-68,34,34,-68,-14,29,43,24,4,-34
4,-73,-78,34,41,-75,-9,34,53,24,14,-43
4,-73,-78,34,41,-75,-4,34,58,24,14,-43
4,-68,-73,31,39,-70,4,34,63,24,14,-43
4,-68,-73,31,39,-70,9,34,63,24,14,-43
4,-78,-82,36,43,-80,9,43,63,29,14,-34
4,-87,-92,41,48,-90,9,48,63,29,14,-34
4,-92,-97,43,51,-95,9,58,63,34,19,-34
4,-92,-97,43,51,-95,9,48,63,34,24,-34
4,-82,-87,39,46,-85,0,39,53,29,14,-43
4,-92,-97,43,51,-95,4,43,58,34,14,-43
4,-82,-87,39,46,-85,4,48,58,34,14,-43
9,-82,-92,36,51,-87,0,48,58,29,9,-43
9,-73,-82,31,46,-78,0,53,58,39,19,-43
9,-73,-82,31,46,-78,0,53,63,39,19,-43
9,-73,-82,31,46,-78,4,58,68,39,24,-43
9,-78,-87,34,48,-82,4,58,68,39,24,-43
9,-68,-78,29,43,-73,4,48,58,39,19,-43
9,-58,-68,24,39,-63,4,48,58,39,14,-43
14,-58,-73,21,43,-65,4,48,58,43,14,-43
14,-63,-78,24,46,-70,4,48,63,43,9,-43
14,-78,-92,31,53,-85,9,53,68,34,19,-43
14,-78,-92,31,53,-85,9,58,73,34,19,-43
14,-82,-97,34,56,-90,14,68,78,34,19,-43
4,-87,-92,41,48,-90,14,73,82,34,19,-43
4,-87,-92,41,48,-90,14,63,82,34,19,-34
4,-87,-92,41,48,-90,19,63,82,34,19,-39
0,-87,-87,43,43,-87,19,63,82,34,19,-39
0,-87,-87,43,43,-87,19,63,82,34,19,-39
4,-78,-82,36,43,-80,14,53,73,39,19,-43
9,-78,-87,34,48,-82,14,53,78,39,19,-43
14,-78,-92,31,53,-85,14,58,78,39,19,-43
19,-87,-107,34,63,-97,14,58,73,39,19,-43
14,-78,-92,31,53,-85,24,68,82,48,29,-34
14,-78,-92,31,53,-85,24,68,82,48,34,-34
14,-78,-92,31,53,-85,24,68,82,48,34,-34
14,-78,-92,31,53,-85,24,68,82,48,34,-34
24,-87,-112,31,68,-100,24,63,82,39,24,-43
24,-87,-112,31,68,-100,24,63,82,39,19,-43
24,-97,-122,36,73,-109,24,63,82,43,19,-39
24,-102,-126,39,75,-114,19,63,82,48,19,-34
14,-92,-107,39,61,-100,19,63,87,48,29,-34
14,-92,-107,39,61,-100,19,63,87,48,29,-34
14,-92,-107,39,61,-100,19,63,87,48,29,-34
14,-87,-102,36,58,-95,19,63,87,48,29,-34
14,-87,-102,36,58,-95,24,63,73,39,29,-43
14,-87,-102,36,58,-95,24,63,68,34,29,-43
14,-87,-102,36,58,-95,24,63,68,34,29,-43
14,-87,-102,36,58,-95,24,63,68,34,29,-43
14,-87,-102,36,58,-95,24,63,73,39,29,-43
14,-97,-112,41,63,-104,24,63,73,39,29,-43
14,-87,-102,36,58,-95,24,63,73,39,29,-43
14,-82,-97,34,56,-90,24,63,73,39,29,-43
19,-92,-112,36,65,-102,14,63,78,48,29,-39
19,-92,-112,36,65,-102,14,63,78,48,29,-39
14,-92,-107,39,61,-100,14,63,78,48,29,-39
14,-92,-107,39,61,-100,14,63,78,48,29,-39
24,-87,-112,31,68,-100,14,73,73,43,39,-39
29,-87,-117,29,73,-102,14,73,73,43,39,-39
29,-87,-117,29,73,-102,14,73,73,43,39,-39
19,-92,-112,36,65,-102,14,73,68,43,39,-39
9,-82,-92,36,51,-87,19,58,68,43,39,-43
9,-82,-92,36,51,-87,19,58,68,43,39,-43
14,-82,-97,34,56,-90,14,53,68,43,39,-43
14,-78,-92,31,53,-85,14,53,68,43,39,-43
24,-78,-102,26,63,-90,14,53,68,34,29,-53
19,-87,-107,34,63,-97,14,53,63,34,24,-53
19,-87,-107,34,63,-97,14,58,63,34,24,-53
24,-82,-107,29,65,-95,14,63,63,34,29,-48
14,-73,-87,29,51,-80,4,53,63,34,29,-39
14,-73,-87,29,51,-80,0,48,63,39,34,-39
14,-68,-82,26,48,-75,-4,48,63,39,34,-39
14,-68,-82,26,48,-75,-9,48,63,39,34,-39
14,-78,-92,31,53,-85,4,53,58,39,34,-39
14,-78,-92,31,53,-85,9,53,58,29,24,-39
14,-78,-92,31,53,-85,19,53,63,29,24,-39
14,-87,-102,36,58,-95,24,53,63,29,24,-39
14,-78,-92,31,53,-85,14,53,63,39,24,-48
14,-73,-87,29,51,-80,4,48,58,34,24,-53
14,-73,-87,29,51,-80,4,48,58,34,24,-53
14,-73,-87,29,51,-80,9,53,58,34,29,-48
9,-73,-82,31,46,-78,9,58,58,39,39,-39
9,-73,-82,31,46,-78,9,58,58,43,39,-39
9,-73,-82,31,46,-78,9,53,58,43,39,-39
14,-73,-87,29,51,-80,9,53,63,43,39,-39
0,-92,-92,46,46,-92,29,63,73,53,48,-43
9,-92,-102,41,56,-97,19,63,73,53,48,-34
24,-73,-97,24,61,-85,19,68,73,43,43,-34
24,-78,-102,26,63,-90,4,58,63,43,34,-43
29,-78,-107,24,68,-92,9,58,58,39,29,-39
29,-78,-107,24,68,-92,9,58,68,48,39,-29
29,-78,-107,24,68,-92,9,58,68,48,39,-29
29,-78,-107,24,68,-92,9,58,68,48,39,-29
29,-78,-107,24,68,-92,9,58,68,48,39,-29
19,-73,-92,26,56,-82,14,63,73,53,53,-24
19,-68,-87,24,53,-78,19,63,78,58,53,-19
19,-68,-87,24,53,-78,14,63,78,58,53,-19
19,-53,-73,17,46,-63,19,53,78,58,58,-19
29,-39,-68,4,48,-53,19,53,87,68,63,-29
29,-29,-58,0,43,-43,14,53,87,73,63,-24
29,-24,-53,-2,41,-39,14,48,87,73,63,-24
29,-19,-48,-4,39,-34,9,48,87,73,63,-19
29,-19,-48,-4,39,-34,0,43,92,63,58,-19
29,-9,-39,-9,34,-24,-9,39,92,63,58,-19
34,-9,-43,-12,39,-26,-14,34,92,68,58,-14
34,-9,-43,-12,39,-26,-14,29,92,68,58,-14
39,0,-39,-19,39,-19,-9,43,92,73,63,-14
39,4,-34,-21,36,-14,-4,43,102,78,68,-14
39,9,-29,-24,34,-9,0,39,107,82,73,-9
39,19,-19,-29,29,0,-4,39,117,82,78,-9
39,14,-24,-26,31,-4,-14,29,107,92,82,0
39,24,-14,-31,26,4,-19,29,112,92,87,4
48,24,-24,-36,36,0,-24,29,112,97,87,9
48,29,-19,-39,34,4,-24,19,107,97,87,9
48,39,-9,-43,29,14,-29,24,117,97,102,24
53,53,0,-53,26,26,-43,14,122,107,102,29
58,73,14,-65,21,43,-53,14,122,107,102,34
63,78,14,-70,24,46,-53,9,122,107,102,34
63,73,9,-68,26,41,-58,14,122,107,97,34
63,87,24,-75,19,56,-58,9,117,107,97,34
63,97,34,-80,14,65,-63,9,117,107,97,34
63,97,34,-80,14,65,-63,4,117,107,97,34
53,97,43,-75,4,70,-63,-9,126,117,102,34
53,102,48,-78,2,75,-63,-9,122,117,102,34
53,112,58,-82,-2,85,-63,-9,122,117,102,34
53,102,48,-78,2,75,-63,-9,122,117,102,34
58,107,48,-82,4,78,-58,9,112,107,92,43
63,97,34,-80,14,65,-58,14,112,107,97,43
68,97,29,-82,19,63,-58,19,112,107,97,43
82,97,14,-90,34,56,-53,24,112,107,97,43
78,82,4,-80,36,43,-48,24,112,117,107,58
78,63,-14,-70,46,24,-43,24,107,107,112,58
78,53,-24,-65,51,14,-43,24,107,107,112,53
82,29,-53,-56,68,-12,-39,34,107,107,102,53
82,14,-68,-48,75,-26,-24,43,107,97,97,39
78,0,-78,-39,78,-39,-24,43,92,87,87,34
73,-4,-78,-34,75,-41,-19,43,92,78,82,24
68,-14,-82,-26,75,-48,-14,43,92,78,82,19
63,-14,-78,-24,70,-46,-19,43,78,63,68,14
58,-29,-87,-14,73,-58,-9,43,73,58,68,0
48,-48,-97,0,73,-73,4,48,68,53,58,-4
39,-68,-107,14,73,-87,14,53,63,43,53,-19
19,-73,-92,26,56,-82,14,53,63,48,53,-24
19,-73,-92,26,56,-82,14,58,63,53,48,-24
19,-73,-92,26,56,-82,14,58,63,53,43,-29
19,-78,-97,29,58,-87,19,58,58,43,39,-34
9,-92,-102,41,56,-97,29,58,53,29,34,-39
9,-97,-107,43,58,-102,29,58,48,29,29,-43
14,-102,-117,43,65,-109,24,58,43,29,24,-48
14,-112,-126,48,70,-119,24,58,39,19,19,-48
19,-112,-131,46,75,-122,14,53,39,9,19,-48
19,-112,-131,46,75,-122,14,48,39,9,19,-48
19,-117,-136,48,78,-126,19,43,39,9,19,-48
19,-117,-136,48,78,-126,24,39,39,9,24,-48
19,-117,-136,48,78,-126,34,48,39,14,24,-48
19,-117,-136,48,78,-126,34,58,39,14,24,-48
19,-117,-136,48,78,-126,34,58,43,14,24,-48
19,-117,-136,48,78,-126,34,58,43,14,24,-48
4,-126,-131,61,68,-129,39,58,43,19,29,-58
4,-126,-131,61,68,-129,43,63,43,19,29,-58
4,-131,-136,63,70,-134,53,63,48,19,29,-58
4,-136,-141,65,73,-139,58,63,48,19,29,-58
14,-136,-151,61,82,-143,48,73,58,29,29,-48
14,-136,-151,61,82,-143,53,73,58,29,29,-53
14,-146,-161,65,87,-153,53,73,58,29,29,-53
14,-146,-161,65,87,-153,53,73,58,29,34,-53
14,-107,-122,46,68,-114,48,78,63,34,24,-53
24,-117,-141,46,82,-129,58,78,68,34,39,-53
14,-131,-146,58,80,-139,63,87,68,39,43,-48
9,-136,-146,63,78,-141,68,102,63,24,29,-53
24,-146,-170,61,97,-158,73,97,43,4,4,-78
29,-165,-195,68,112,-180,73,102,43,-4,-14,-97
34,-195,-229,80,131,-212,78,136,68,4,-4,-102
39,-195,-234,78,136,-214,97,156,122,39,29,-102
34,-185,-219,75,126,-202,87,170,161,82,68,-82
53,-180,-234,63,143,-207,82,209,224,146,126,-58
87,-165,-253,39,170,-209,82,263,322,239,214,-19
161,-122,-283,-19,222,-202,73,331,478,400,361,63
244,-78,-322,-82,283,-200,78,419,702,629,566,195
331,-34,-366,-148,348,-200,68,512,946,863,805,341
424,14,-409,-219,417,-197,29,556,1102,1058,1000,468
512,58,-453,-285,483,-197,-43,541,1176,1195,1161,580
590,122,-468,-356,529,-173,-107,512,1220,1307,1322,707
692,219,-473,-456,583,-126,-185,478,1254,1415,1478,854
766,336,-429,-551,597,-46,-283,409,1249,1483,1600,990
761,434,-326,-597,544,53,-385,239,1058,1381,1581,1058
624,536,-87,-580,356,224,-473,-53,668,1049,1312,990
375,649,273,-512,51,461,-522,-434,165,605,902,844
112,756,644,-434,-265,700,-546,-805,-322,195,517,732
-78,844,922,-383,-500,883,-556,-1078,-712,-136,190,634
-185,917,1102,-366,-644,1010,-585,-1220,-971,-361,-53,575
-229,946,1176,-358,-702,1061,-595,-1268,-1151,-556,-258,497
-278,839,1117,-280,-697,978,-546,-1244,-1332,-785,-497,331
-322,619,941,-148,-631,780,-478,-1176,-1488,-1039,-771,112
-336,458,795,-61,-566,627,-453,-1137,-1590,-1200,-941,-53
-351,380,732,-14,-541,556,-448,-1141,-1639,-1268,-1010,-141
-390,307,697,41,-544,502,-424,-1117,-1634,-1288,-1044,-190
-400,224,624,87,-512,424,-390,-1054,-1600,-1268,-1044,-234
-385,161,546,112,-466,353,-375,-980,-1537,-1224,-1029,-273
-375,122,497,126,-436,309,-361,-927,-1459,-1180,-990,-317
-366,107,473,129,-419,290,-336,-839,-1356,-1112,-961,-356
-336,97,434,119,-385,265,-287,-736,-1205,-1019,-893,-366
-312,92,405,109,-358,248,-253,-639,-1019,-883,-785,-346
-283,82,366,100,-324,224,-224,-546,-839,-722,-663,-312
-244,73,317,85,-280,195,-190,-458,-683,-585,-541,-253
-200,43,244,78,-222,143,-136,-370,-566,-483,-453,-219
-180,29,209,75,-195,119,-97,-307,-483,-414,-395,-200
-151,14,165,68,-158,90,-63,-239,-409,-370,-341,-175
-131,-4,126,68,-129,61,-24,-195,-356,-317,-312,-161
-126,-9,117,68,-122,53,-9,-156,-297,-283,-283,-180
-126,-14,112,70,-119,48,4,-112,-229,-253,-248,-190
-112,-24,87,68,-100,31,9,-73,-156,-195,-195,-180
-97,-43,53,70,-75,4,9,-43,-117,-131,-141,-156
-73,-39,34,56,-53,-2,9,-29,-78,-87,-107,-131
-48,-58,-9,53,-19,-34,29,-9,-48,-58,-82,-117
-39,-87,-48,63,4,-68,39,9,-48,-48,-73,-112
-48,-97,-48,73,0,-73,43,24,-48,-58,-82,-107
-39,-87,-48,63,4,-68,53,39,-29,-63,-78,-107
-39,-82,-43,61,2,-63,53,39,-24,-68,-82,-107
-34,-92,-58,63,12,-75,58,48,-4,-58,-78,-107
-34,-92,-58,63,12,-75,58,58,4,-43,-63,-107
-24,-82,-58,53,17,-70,63,58,24,-29,-43,-107
-34,-102,-68,68,17,-85,63,58,4,-19,-34,-102
-34,-102,-68,68,17,-85,63,58,4,-19,-43,-102
-34,-107,-73,70,19,-90,63,63,4,-29,-43,-107
-34,-107,-73,70,19,-90,63,63,4,-29,-48,-107
-29,-107,-78,68,24,-92,68,78,14,-39,-39,-107
-29,-97,-68,63,19,-82,68,78,24,-34,-39,-107
-29,-107,-78,68,24,-92,68,82,34,-24,-29,-107
-29,-117,-87,73,29,-102,68,82,34,-19,-24,-107
-29,-117,-87,73,29,-102,73,78,39,-4,-4,-102
-29,-117,-87,73,29,-102,73,78,39,-4,-4,-102
-29,-117,-87,73,29,-102,73,82,39,-4,-4,-97
-29,-117,-87,73,29,-102,73,82,39,-4,-9,-97
-19,-126,-107,73,43,-117,63,92,39,-4,-19,-87
-14,-122,-107,68,46,-114,63,92,39,-4,-19,-87
-14,-122,-107,68,46,-114,63,92,48,-4,-14,-87
-9,-126,-117,68,53,-122,63,97,48,-4,-14,-87
-19,-126,-107,73,43,-117,63,87,39,-4,-4,-97
-24,-126,-102,75,39,-114,63,92,39,-4,-4,-97
-24,-126,-102,75,39,-114,63,92,29,-4,-4,-97
-24,-126,-102,75,39,-114,63,87,29,-4,-4,-97
-14,-141,-126,78,56,-134,68,97,39,4,-4,-92
-19,-141,-122,80,51,-131,73,97,43,4,-4,-92
-19,-141,-122,80,51,-131,78,97,43,4,-4,-92
-19,-141,-122,80,51,-131,82,97,43,9,-4,-92
-19,-136,-117,78,48,-126,78,92,48,-4,-14,-92
-19,-131,-112,75,46,-122,78,92,48,-9,-14,-97
-19,-126,-107,73,43,-117,78,92,48,-19,-19,-107
-19,-122,-102,70,41,-112,78,92,48,-24,-19,-112
-19,-131,-112,75,46,-122,78,102,48,-19,-9,-102
-19,-131,-112,75,46,-122,73,102,48,-19,-14,-102
-19,-131,-112,75,46,-122,73,102,48,-14,-14,-107
-19,-131,-112,75,46,-122,73,102,43,-9,-14,-107
-29,-122,-92,75,31,-107,63,102,43,-9,-14,-97
-29,-122,-92,75,31,-107,63,102,43,-9,-14,-97
-29,-122,-92,75,31,-107,63,102,43,-9,-14,-97
-29,-122,-92,75,31,-107,63,102,43,-9,-14,-97
-19,-112,-92,65,36,-102,63,92,43,-9,-14,-107
-19,-112,-92,65,36,-102,63,92,39,-14,-24,-112
-19,-107,-87,63,34,-97,63,92,39,-14,-24,-112
-24,-102,-78,63,26,-90,63,87,39,-14,-24,-112
-24,-102,-78,63,26,-90,73,87,39,-14,-39,-107
-24,-102,-78,63,26,-90,73,87,39,-19,-39,-112
-24,-102,-78,63,26,-90,73,87,34,-19,-34,-112
-24,-102,-78,63,26,-90,73,87,34,-19,-34,-112
-24,-102,-78,63,26,-90,73,87,34,-19,-29,-102
-24,-107,-82,65,29,-95,78,87,34,-24,-29,-102
-24,-112,-87,68,31,-100,78,87,34,-24,-29,-102
-24,-117,-92,70,34,-104,78,87,34,-24,-29,-102
-24,-112,-87,68,31,-100,68,82,24,-14,-29,-102
-24,-107,-82,65,29,-95,68,82,24,-14,-29,-102
-24,-112,-87,68,31,-100,58,82,24,-14,-34,-102
-29,-97,-68,63,19,-82,58,78,24,-14,-39,-102
-39,-97,-58,68,9,-78,73,82,34,-24,-39,-112
-39,-97,-58,68,9,-78,73,87,34,-24,-39,-112
-39,-97,-58,68,9,-78,73,92,34,-29,-39,-117
-39,-92,-53,65,7,-73,73,97,34,-29,-39,-117
-29,-102,-73,65,21,-87,63,87,24,-29,-43,-117
-29,-97,-68,63,19,-82,63,82,19,-34,-43,-117
-29,-97,-68,63,19,-82,63,82,19,-34,-43,-117
-29,-97,-68,63,19,-82,63,82,19,-34,-43,-117
-29,-87,-58,58,14,-73,63,82,19,-34,-43,-117
-29,-87,-58,58,14,-73,63,82,19,-34,-43,-117
-34,-78,-43,56,4,-61,63,78,14,-34,-43,-117
-39,-78,-39,58,0,-58,63,78,14,-34,-43,-117
-29,-82,-53,56,12,-68,73,78,19,-34,-43,-112
-29,-82,-53,56,12,-68,73,78,19,-34,-43,-112
-29,-78,-48,53,9,-63,73,78,19,-34,-43,-112
-29,-78,-48,53,9,-63,63,78,19,-34,-48,-112
-39,-78,-39,58,0,-58,58,78,19,-34,-39,-107
-39,-73,-34,56,-2,-53,58,78,19,-34,-39,-102
-39,-68,-29,53,-4,-48,63,73,19,-34,-39,-97
-43,-58,-14,51,-14,-36,63,73,19,-34,-43,-92
-34,-63,-29,48,-2,-46,43,58,19,-43,-53,-92
-39,-48,-9,43,-14,-29,43,53,14,-43,-53,-92
-39,-43,-4,41,-17,-24,43,53,14,-48,-48,-92
-39,-34,4,36,-21,-14,43,48,9,-53,-48,-87
-48,-19,29,34,-39,4,39,48,0,-43,-53,-92
-53,-9,43,31,-48,17,34,43,-4,-43,-53,-97
-58,-4,53,31,-56,24,34,43,-4,-43,-53,-97
-63,4,68,29,-65,36,34,39,-4,-43,-58,-102
-63,4,68,29,-65,36,34,48,-4,-34,-48,-97
-63,19,82,21,-73,51,24,34,-4,-39,-58,-87
-63,29,92,17,-78,61,19,29,-9,-39,-58,-82
-73,48,122,12,-97,85,14,29,-14,-39,-58,-73
-73,68,141,2,-107,104,9,4,-29,-48,-73,-73
-73,78,151,-2,-112,114,4,-9,-34,-53,-73,-73
-73,92,165,-9,-119,129,0,-14,-34,-53,-78,-63
-82,112,195,-14,-139,153,0,-34,-39,-58,-82,-63
-82,126,209,-21,-146,168,-9,-34,-43,-63,-82,-73
-87,131,219,-21,-153,175,-9,-43,-53,-68,-87,-68
-92,141,234,-24,-163,187,-14,-53,-58,-68,-92,-63
-97,156,253,-29,-175,204,-19,-58,-68,-78,-92,-63
-102,165,268,-31,-185,217,-19,-58,-63,-68,-87,-48
-102,175,278,-36,-190,226,-24,-58,-63,-68,-87,-48
-112,185,297,-36,-204,241,-29,-73,-68,-68,-87,-39
-117,209,326,-46,-222,268,-34,-82,-73,-68,-87,-34
-107,229,336,-61,-222,283,-48,-102,-87,-82,-107,-29
-112,234,346,-61,-229,290,-53,-112,-97,-87,-112,-24
-112,244,356,-65,-234,300,-58,-122,-102,-97,-112,-24
-112,253,366,-70,-239,309,-63,-126,-117,-107,-117,-24
-122,258,380,-68,-251,319,-58,-126,-117,-107,-122,-24
-126,253,380,-63,-253,317,-53,-136,-112,-107,-122,-14
-131,253,385,-61,-258,319,-53,-141,-112,-112,-122,-14
-136,248,385,-56,-261,317,-53,-146,-112,-112,-122,-9
-136,268,405,-65,-270,336,-63,-156,-122,-107,-112,0
-136,268,405,-65,-270,336,-63,-161,-126,-102,-112,9
-131,273,405,-70,-268,339,-68,-161,-131,-97,-112,14
-126,273,400,-73,-263,336,-68,-170,-131,-92,-112,19
-131,278,409,-73,-270,344,-58,-170,-122,-97,-112,9
-136,273,409,-68,-273,341,-68,-170,-117,-92,-112,14
-141,268,409,-63,-275,339,-58,-170,-117,-92,-112,14
-146,263,409,-58,-278,336,-53,-180,-122,-92,-112,14
-146,248,395,-51,-270,322,-43,-170,-122,-92,-112,14
-146,234,380,-43,-263,307,-43,-165,-117,-92,-102,14
-136,219,356,-41,-246,287,-43,-161,-102,-82,-97,19
-136,204,341,-34,-239,273,-43,-161,-97,-73,-97,19
-131,204,336,-36,-234,270,-48,-156,-97,-73,-97,9
-126,195,322,-34,-224,258,-43,-146,-92,-68,-92,14
-122,195,317,-36,-219,256,-43,-146,-92,-58,-82,19
-117,190,307,-36,-212,248,-43,-146,-87,-53,-78,19
-107,185,292,-39,-200,239,-39,-131,-82,-48,-73,29
-102,170,273,-34,-187,222,-39,-126,-68,-39,-63,34
-97,161,258,-31,-178,209,-34,-112,-58,-29,-48,39
-92,151,244,-29,-168,197,-34,-102,-48,-19,-43,43
-97,146,244,-24,-170,195,-34,-102,-39,-19,-34,34
-92,136,229,-21,-161,183,-34,-92,-24,-9,-19,39
-78,141,219,-31,-148,180,-29,-82,-19,-4,-9,39
-68,131,200,-31,-134,165,-29,-78,-9,9,4,39
-63,117,180,-26,-122,148,-19,-63,0,24,0,39
-58,112,170,-26,-114,141,-19,-63,14,29,9,39
-53,102,156,-24,-104,129,-19,-48,14,29,19,39
-43,92,136,-24,-90,114,-14,-43,19,29,24,39
-29,97,126,-34,-78,112,-19,-48,14,39,29,48
-24,82,107,-29,-65,95,-14,-43,19,48,34,48
-19,73,92,-26,-56,82,-19,-29,29,48,39,48
-14,73,87,-29,-51,80,-24,-29,29,48,43,48
-19,63,82,-21,-51,73,-24,-19,34,48,43,48
-14,43,58,-14,-36,51,-24,-9,39,48,43,48
-9,39,48,-14,-29,43,-19,-4,39,48,48,48
-9,39,48,-14,-29,43,-19,0,48,53,48,48
0,29,29,-14,-14,29,-9,4,48,63,68,48
4,24,19,-14,-7,21,-4,9,48,68,68,48
9,14,4,-12,2,9,-4,14,48,68,68,48
19,9,-9,-14,14,0,-4,19,53,68,68,39
14,0,-14,-7,14,-7,4,24,53,58,58,29
9,-4,-14,-2,12,-9,9,24,53,58,58,29
4,-4,-9,0,7,-7,9,24,53,58,58,29
0,-14,-14,7,7,-14,14,24,53,48,53,24
14,-19,-34,2,24,-26,14,29,63,39,43,24
19,-29,-48,4,34,-39,14,29,63,43,43,24
19,-39,-58,9,39,-48,14,34,63,43,43,24
14,-53,-68,19,41,-61,14,34,63,39,43,19
4,-53,-58,24,31,-56,14,34,63,48,43,19
9,-43,-53,17,31,-48,14,39,58,48,39,14
9,-43,-53,17,31,-48,14,39,58,43,39,14
9,-48,-58,19,34,-53,14,39,58,43,39,14
19,-58,-78,19,48,-68,4,48,58,53,43,24
19,-58,-78,19,48,-68,4,48,58,48,39,14
24,-58,-82,17,53,-70,4,48,58,48,43,14
24,-58,-82,17,53,-70,4,48,53,48,48,14
9,-63,-73,26,41,-68,14,39,43,24,34,0
4,-73,-78,34,41,-75,14,39,34,19,29,-4
4,-73,-78,34,41,-75,19,39,34,14,24,-14
4,-68,-73,31,39,-70,19,39,34,9,14,-19
14,-63,-78,24,46,-70,19,39,43,14,19,-14
14,-63,-78,24,46,-70,19,39,43,9,19,-19
19,-63,-82,21,51,-73,19,39,43,14,24,-14
19,-68,-87,24,53,-78,19,39,43,19,29,-9
19,-73,-92,26,56,-82,9,48,48,29,29,0
19,-73,-92,26,56,-82,9,48,48,29,29,0
19,-73,-92,26,56,-82,9,48,53,29,29,0
19,-73,-92,26,56,-82,9,48,53,29,29,0
19,-63,-82,21,51,-73,19,43,43,29,34,-9
19,-63,-82,21,51,-73,29,48,43,29,34,-9
19,-63,-82,21,51,-73,29,48,43,29,34,-9
24,-63,-87,19,56,-75,24,48,43,29,34,-9
24,-68,-92,21,58,-80,24,48,43,24,24,-14
19,-63,-82,21,51,-73,24,48,43,24,24,-14
19,-58,-78,19,48,-68,24,48,43,24,24,-14
19,-58,-78,19,48,-68,24,48,43,24,24,-14
24,-73,-97,24,61,-85,14,53,43,14,24,-4
24,-73,-97,24,61,-85,14,53,48,14,24,-4
24,-68,-92,21,58,-80,19,53,53,14,24,-4
24,-68,-92,21,58,-80,19,53,53,14,24,-4
14,-82,-97,34,56,-90,29,53,43,9,24,-14
14,-87,-102,36,58,-95,29,58,43,9,24,-14
14,-87,-102,36,58,-95,29,68,43,14,29,-14
14,-82,-97,34,56,-90,29,58,43,14,34,-14
14,-78,-92,31,53,-85,19,58,53,34,43,-9
14,-82,-97,34,56,-90,24,63,58,43,43,-4
14,-68,-82,26,48,-75,24,68,58,48,43,0
19,-63,-82,21,51,-73,19,68,58,48,39,4
29,-73,-102,21,65,-87,19,63,58,39,39,-4
29,-73,-102,21,65,-87,19,63,63,39,39,-4
29,-73,-102,21,65,-87,24,68,68,39,43,-4
29,-78,-107,24,68,-92,24,68,68,39,43,-4
19,-87,-107,34,63,-97,34,68,68,48,53,4
19,-78,-97,29,58,-87,34,68,68,48,53,4
24,-78,-102,26,63,-90,34,68,68,53,58,4
24,-82,-107,29,65,-95,34,68,73,53,58,4
24,-73,-97,24,61,-85,24,78,73,43,48,4
24,-68,-92,21,58,-80,19,78,73,43,48,4
24,-68,-92,21,58,-80,19,82,73,43,48,4
14,-68,-82,26,48,-75,14,82,73,43,48,4
24,-73,-97,24,61,-85,19,82,73,43,39,4
24,-78,-102,26,63,-90,29,82,73,43,39,0
19,-82,-102,31,61,-92,34,82,73,43,39,0
19,-87,-107,34,63,-97,39,82,73,43,39,0
29,-97,-126,34,78,-112,34,73,73,39,48,-4
29,-97,-126,34,78,-112,34,73,78,39,48,-4
29,-97,-126,34,78,-112,34,78,78,39,48,-4
29,-107,-136,39,82,-122,34,78,73,39,48,-4
24,-82,-107,29,65,-95,24,73,63,39,43,-4
24,-78,-102,26,63,-90,24,68,63,39,43,-4
24,-73,-97,24,61,-85,24,63,63,39,39,-4
24,-68,-92,21,58,-80,24,58,63,39,34,-4
24,-58,-82,17,53,-70,24,58,73,48,39,4
24,-58,-82,17,53,-70,24,63,73,48,39,4
24,-68,-92,21,58,-80,24,68,73,53,43,9
24,-73,-97,24,61,-85,19,73,73,58,48,14
34,-73,-107,19,70,-90,19,82,87,58,48,14
34,-73,-107,19,70,-90,19,82,87,58,48,14
34,-73,-107,19,70,-90,19,82,87,58,48,14
34,-68,-102,17,68,-85,19,82,87,58,48,14
24,-73,-97,24,61,-85,19,73,73,48,48,4
24,-78,-102,26,63,-90,24,73,68,43,48,4
24,-82,-107,29,65,-95,29,73,68,43,48,4
24,-87,-112,31,68,-100,34,73,68,43,48,4
24,-78,-102,26,63,-90,24,73,63,58,48,14
24,-87,-112,31,68,-100,24,73,63,58,48,14
24,-78,-102,26,63,-90,24,73,63,58,48,14
24,-73,-97,24,61,-85,24,73,63,58,48,14
39,-73,-112,17,75,-92,24,82,68,53,48,9
39,-73,-112,17,75,-92,24,82,68,48,48,9
34,-73,-107,19,70,-90,24,82,68,43,48,9
34,-73,-107,19,70,-90,24,82,68,39,48,9
24,-87,-112,31,68,-100,24,73,73,43,39,0
29,-87,-117,29,73,-102,24,73,73,43,39,0
29,-87,-117,29,73,-102,24,73,73,43,39,0
19,-92,-112,36,65,-102,24,73,68,43,39,0
29,-87,-117,29,73,-102,19,73,68,43,48,4
29,-82,-112,26,70,-97,19,78,68,43,48,4
34,-78,-112,21,73,-95,14,78,68,43,48,4
34,-68,-102,17,68,-85,14,82,68,43,48,4
24,-58,-82,17,53,-70,19,78,58,43,39,-4
19,-68,-87,24,53,-78,24,73,53,43,34,-4
19,-68,-87,24,53,-78,29,73,53,43,34,-4
24,-63,-87,19,56,-75,34,73,53,43,39,0
24,-63,-87,19,56,-75,29,73,63,43,48,0
24,-63,-87,19,56,-75,29,68,63,48,53,0
24,-58,-82,17,53,-70,29,68,63,48,53,0
24,-58,-82,17,53,-70,29,68,63,48,53,0
24,-63,-87,19,56,-75,29,73,58,48,53,0
24,-68,-92,21,58,-80,29,73,58,39,43,0
24,-73,-97,24,61,-85,34,73,63,39,43,0
24,-87,-112,31,68,-100,34,73,63,39,43,0
24,-97,-122,36,73,-109,34,73,63,29,34,-9
24,-102,-126,39,75,-114,43,87,68,24,34,-4
19,-107,-126,43,73,-117,39,87,58,39,39,9
29,-92,-122,31,75,-107,24,78,68,39,39,4
29,-87,-117,29,73,-102,19,78,68,39,39,0
29,-82,-112,26,70,-97,14,78,68,39,39,-4
29,-78,-107,24,68,-92,9,78,68,39,39,-9
29,-63,-92,17,61,-78,14,82,73,43,53,0
29,-58,-87,14,58,-73,19,82,78,48,53,9
29,-58,-87,14,58,-73,14,82,78,48,53,14
29,-43,-73,7,51,-58,19,73,78,48,58,19
39,-43,-82,2,61,-63,29,73,87,58,63,19
39,-39,-78,0,58,-58,24,73,87,63,63,24
39,-39,-78,0,58,-58,24,68,87,63,63,24
39,-39,-78,0,58,-58,19,68,87,63,63,29
29,-29,-58,0,43,-43,14,68,92,73,78,19
29,-19,-48,-4,39,-34,9,68,92,73,78,19
34,-19,-53,-7,43,-36,9,68,92,78,78,24
34,-19,-53,-7,43,-36,14,68,92,78,78,24
48,-29,-78,-9,63,-53,14,73,82,78,68,14
48,-24,-73,-12,61,-48,14,73,92,78,68,14
48,-19,-68,-14,58,-43,14,68,97,78,68,19
48,-9,-58,-19,53,-34,4,68,107,73,68,19
39,4,-34,-21,36,-14,-4,78,117,92,78,39
39,14,-24,-26,31,-4,-9,78,122,92,87,43
48,14,-34,-31,41,-9,-14,78,122,97,92,48
48,19,-29,-34,39,-4,-14,68,117,97,97,48
58,39,-19,-48,39,9,-29,53,117,107,112,43
63,53,-9,-58,36,21,-43,43,122,117,112,48
68,73,4,-70,31,39,-53,43,122,117,112,53
73,78,4,-75,34,41,-53,39,122,117,112,53
73,78,4,-75,34,41,-48,24,112,117,107,53
73,97,24,-85,24,61,-48,19,107,117,107,53
73,112,39,-92,17,75,-53,19,107,117,107,53
73,117,43,-95,14,80,-53,14,107,117,107,53
63,126,63,-95,0,95,-53,9,107,107,92,53
63,131,68,-97,-2,100,-53,9,102,107,92,53
63,141,78,-102,-7,109,-53,9,102,107,92,53
63,131,68,-97,-2,100,-53,9,102,107,92,53
63,126,63,-95,0,95,-48,9,112,117,102,63
63,117,53,-90,4,85,-48,14,112,117,107,63
63,117,53,-90,4,85,-48,19,112,117,107,63
73,117,43,-95,14,80,-43,24,112,117,107,63
78,102,24,-90,26,63,-39,34,112,107,97,58
78,82,4,-80,36,43,-34,34,107,97,102,58
78,73,-4,-75,41,34,-34,34,107,97,102,53
82,48,-34,-65,58,7,-29,43,107,97,92,53
87,34,-53,-61,70,-9,-34,53,97,97,92,48
87,19,-68,-53,78,-24,-34,53,82,87,87,43
87,14,-73,-51,80,-29,-29,53,82,78,87,34
87,4,-82,-46,85,-39,-24,53,82,78,92,29
63,-4,-68,-29,65,-36,-19,53,87,82,78,34
58,-19,-78,-19,68,-48,-9,53,82,78,78,19
48,-39,-87,-4,68,-63,4,58,78,73,68,14
39,-58,-97,9,68,-78,14,63,73,63,63,0
19,-82,-102,31,61,-92,24,53,58,53,48,-19
19,-82,-102,31,61,-92,24,58,53,43,39,-24
19,-82,-102,31,61,-92,24,58,48,29,29,-34
19,-87,-107,34,63,-97,29,58,39,4,19,-43
19,-92,-112,36,65,-102,39,58,43,14,19,-39
19,-97,-117,39,68,-107,39,58,39,19,19,-43
24,-102,-126,39,75,-114,34,58,34,24,19,-48
24,-112,-136,43,80,-124,34,58,29,19,19,-48
19,-122,-141,51,80,-131,43,58,29,9,9,-48
19,-122,-141,51,80,-131,43,58,29,9,9,-48
19,-126,-146,53,82,-136,48,58,29,9,9,-48
19,-126,-146,53,82,-136,53,58,29,9,14,-48
19,-136,-156,58,87,-146,53,68,39,4,14,-48
19,-136,-156,58,87,-146,53,78,39,4,14,-48
19,-136,-156,58,87,-146,53,78,43,4,14,-48
19,-136,-156,58,87,-146,53,78,43,4,14,-48
24,-122,-146,48,85,-134,48,68,34,14,19,-58
24,-117,-141,46,82,-129,43,73,34,19,19,-58
24,-117,-141,46,82,-129,43,73,39,24,19,-58
24,-117,-141,46,82,-129,39,73,39,29,19,-58
24,-107,-131,41,78,-119,29,63,39,24,9,-58
24,-107,-131,41,78,-119,34,63,39,19,9,-63
24,-117,-141,46,82,-129,34,63,39,14,9,-63
24,-117,-141,46,82,-129,34,63,39,9,14,-63
14,-117,-131,51,73,-124,68,78,34,-4,4,-53
14,-136,-151,61,82,-143,78,87,39,4,9,-53
14,-131,-146,58,80,-139,63,97,39,29,24,-48
29,-136,-165,53,97,-151,58,92,43,24,19,-63
34,-146,-180,56,107,-163,63,97,43,4,14,-78
39,-165,-204,63,122,-185,63,112,53,4,14,-87
43,-185,-229,70,136,-207,78,146,68,14,14,-92
48,-195,-244,73,146,-219,87,165,112,29,19,-102
43,-195,-239,75,141,-217,87,180,151,63,48,-102
63,-180,-244,58,153,-212,102,209,204,117,87,-87
97,-195,-292,48,195,-244,102,253,283,209,175,-48
131,-200,-331,34,231,-265,112,302,419,331,292,14
185,-156,-341,-14,263,-248,117,380,624,531,478,126
273,-82,-356,-95,314,-219,107,463,878,814,736,273
366,-24,-390,-170,378,-207,78,527,1102,1068,980,439
453,39,-414,-246,434,-187,14,531,1234,1263,1180,561
531,131,-400,-331,466,-134,-78,512,1307,1405,1351,697
634,219,-414,-427,524,-97,-146,497,1381,1551,1537,854
717,297,-419,-507,568,-61,-224,458,1434,1688,1698,1019
741,395,-346,-568,544,24,-317,346,1351,1693,1776,1127
673,507,-165,-590,419,170,-405,141,1068,1478,1644,1127
473,610,136,-541,168,373,-453,-180,556,1015,1254,990
209,727,517,-468,-153,622,-488,-551,-29,468,771,819
-19,844,863,-412,-441,854,-527,-883,-556,9,346,692
-156,946,1102,-395,-629,1024,-556,-1083,-912,-312,24,605
-219,1024,1244,-402,-732,1134,-585,-1180,-1141,-527,-200,536
-248,995,1244,-373,-746,1119,-585,-1205,-1302,-717,-419,419
-302,795,1098,-246,-700,946,-507,-1127,-1459,-971,-692,219
-326,556,883,-114,-605,719,-424,-1029,-1581,-1200,-932,-14
-341,409,751,-34,-546,580,-390,-1005,-1659,-1327,-1049,-151
-361,336,697,12,-529,517,-375,-1010,-1693,-1385,-1102,-219
-380,253,634,63,-507,444,-351,-966,-1688,-1395,-1132,-283
-375,161,536,107,-456,348,-317,-902,-1634,-1361,-1117,-331
-356,102,458,126,-407,280,-302,-858,-1556,-1298,-1088,-375
-346,78,424,134,-385,251,-307,-810,-1473,-1239,-1058,-414
-336,48,385,143,-361,217,-287,-727,-1351,-1156,-1010,-434
-312,34,346,139,-329,190,-244,-619,-1176,-1029,-912,-444
-283,43,326,119,-305,185,-214,-527,-985,-878,-780,-419
-244,53,297,95,-270,175,-190,-458,-829,-732,-668,-380
-209,53,263,78,-236,158,-165,-380,-692,-610,-551,-326
-170,58,229,56,-200,143,-117,-307,-561,-502,-463,-278
-141,53,195,43,-168,124,-73,-248,-468,-419,-380,-234
-131,24,156,53,-143,90,-34,-185,-405,-375,-341,-219
-136,-9,126,73,-131,58,0,-146,-346,-341,-322,-219
-117,-4,112,61,-114,53,14,-102,-297,-302,-297,-229
-82,-14,68,48,-75,26,0,-73,-234,-253,-253,-229
-68,-43,24,56,-46,-9,0,-53,-175,-200,-209,-214
-63,-68,-4,65,-29,-36,9,-29,-126,-146,-156,-190
-48,-68,-19,58,-14,-43,39,0,-87,-117,-112,-165
-19,-78,-58,48,19,-68,58,29,-68,-97,-82,-141
-19,-87,-68,53,24,-78,53,34,-68,-87,-82,-126
-29,-97,-68,63,19,-82,43,29,-68,-92,-97,-136
-29,-92,-63,61,17,-78,48,39,-53,-87,-102,-146
-24,-102,-78,63,26,-90,48,48,-34,-78,-97,-146
-24,-102,-78,63,26,-90,43,58,-24,-63,-82,-146
-14,-92,-78,53,31,-85,43,58,-4,-48,-63,-146
-4,-102,-97,53,46,-100,53,63,-4,-39,-43,-141
-4,-102,-97,53,46,-100,53,68,-4,-39,-53,-141
-4,-107,-102,56,48,-104,53,78,-4,-48,-53,-146
-4,-107,-102,56,48,-104,53,82,-4,-48,-58,-146
-9,-107,-97,58,43,-102,58,78,-4,-48,-58,-136
-9,-97,-87,53,39,-92,58,78,4,-43,-58,-136
-9,-107,-97,58,43,-102,58,82,14,-34,-48,-136
-9,-117,-107,63,48,-112,58,82,14,-29,-43,-136
0,-126,-126,63,63,-126,73,87,29,-19,-24,-131
0,-126,-126,63,63,-126,73,87,29,-14,-24,-131
0,-126,-126,63,63,-126,73,92,29,-9,-24,-126
0,-126,-126,63,63,-126,73,92,29,-4,-29,-126
-9,-126,-117,68,53,-122,73,102,19,-9,-39,-136
-4,-122,-117,63,56,-119,73,102,19,-14,-39,-136
-4,-122,-117,63,56,-119,73,102,29,-19,-34,-136
0,-126,-126,63,63,-126,73,107,29,-24,-34,-136
0,-136,-136,68,68,-136,73,97,39,-24,-34,-136
-4,-136,-131,70,63,-134,73,102,39,-24,-34,-136
-4,-136,-131,70,63,-134,73,102,29,-24,-34,-136
-4,-136,-131,70,63,-134,73,97,29,-24,-34,-136
-4,-131,-126,68,61,-129,73,97,19,-14,-24,-131
-9,-131,-122,70,56,-126,73,97,24,-14,-24,-131
-9,-131,-122,70,56,-126,73,97,24,-14,-24,-131
-9,-131,-122,70,56,-126,73,97,24,-9,-24,-131
0,-131,-131,65,65,-131,68,102,19,-14,-34,-131
0,-131,-131,65,65,-131,68,102,19,-19,-34,-136
0,-131,-131,65,65,-131,68,102,19,-29,-39,-146
0,-131,-131,65,65,-131,68,102,19,-34,-39,-151
-9,-131,-122,70,56,-126,78,102,29,-24,-29,-141
-9,-131,-122,70,56,-126,73,102,29,-29,-34,-141
-9,-131,-122,70,56,-126,73,102,29,-29,-34,-146
-9,-131,-122,70,56,-126,73,102,24,-29,-34,-146
0,-131,-131,65,65,-131,73,102,24,-19,-34,-136
0,-131,-131,65,65,-131,73,102,24,-19,-34,-136
0,-131,-131,65,65,-131,73,102,24,-19,-34,-136
0,-131,-131,65,65,-131,73,102,24,-19,-34,-136
-9,-122,-112,65,51,-117,63,92,14,-29,-43,-146
-9,-122,-112,65,51,-117,63,92,9,-34,-53,-151
-9,-117,-107,63,48,-112,63,92,9,-34,-53,-151
-14,-112,-97,63,41,-104,63,87,9,-34,-53,-151
-4,-117,-112,61,53,-114,73,87,19,-24,-48,-146
-4,-122,-117,63,56,-119,73,87,19,-29,-48,-151
-4,-126,-122,65,58,-124,73,87,14,-29,-43,-151
-4,-131,-126,68,61,-129,73,87,14,-29,-43,-151
-4,-117,-112,61,53,-114,63,97,14,-29,-48,-151
-4,-117,-112,61,53,-114,68,97,14,-34,-48,-151
-4,-117,-112,61,53,-114,68,97,14,-34,-48,-151
-4,-117,-112,61,53,-114,68,97,14,-34,-48,-151
-4,-117,-112,61,53,-114,68,102,4,-43,-48,-151
-4,-117,-112,61,53,-114,68,102,4,-43,-48,-151
-4,-126,-122,65,58,-124,58,102,4,-43,-53,-151
-9,-117,-107,63,48,-112,58,97,4,-43,-58,-151
-19,-126,-107,73,43,-117,53,87,4,-43,-58,-151
-19,-126,-107,73,43,-117,53,87,4,-43,-58,-151
-19,-126,-107,73,43,-117,53,87,4,-48,-58,-156
-19,-122,-102,70,41,-112,53,87,4,-48,-58,-156
-19,-131,-112,75,46,-122,63,87,4,-48,-63,-156
-19,-126,-107,73,43,-117,63,82,0,-53,-63,-156
-19,-126,-107,73,43,-117,63,82,0,-53,-63,-156
-19,-126,-107,73,43,-117,63,82,0,-53,-63,-156
-19,-122,-102,70,41,-112,73,82,9,-43,-63,-156
-19,-117,-97,68,39,-107,73,82,9,-43,-63,-156
-24,-102,-78,63,26,-90,73,78,4,-43,-63,-156
-29,-97,-68,63,19,-82,73,78,4,-43,-63,-156
-29,-107,-78,68,24,-92,73,78,0,-53,-63,-161
-29,-102,-73,65,21,-87,73,78,0,-53,-63,-161
-29,-92,-63,61,17,-78,73,78,0,-53,-63,-161
-29,-87,-58,58,14,-73,63,78,0,-53,-68,-161
-19,-78,-58,48,19,-68,48,68,0,-53,-68,-161
-19,-73,-53,46,17,-63,48,68,0,-53,-68,-161
-19,-68,-48,43,14,-58,53,63,0,-53,-68,-161
-24,-58,-34,41,4,-46,53,63,0,-53,-73,-161
-24,-63,-39,43,7,-51,34,58,-9,-53,-82,-151
-29,-48,-19,39,-4,-34,34,53,-14,-53,-82,-151
-29,-43,-14,36,-7,-29,34,53,-14,-58,-78,-151
-29,-34,-4,31,-12,-19,34,48,-19,-63,-78,-146
-29,-29,0,29,-14,-14,29,29,-24,-73,-92,-146
-34,-19,14,26,-24,-2,24,24,-34,-73,-92,-146
-39,-14,24,26,-31,4,24,24,-39,-73,-92,-141
-43,-4,39,24,-41,17,24,19,-43,-73,-97,-141
-43,4,48,19,-46,26,34,24,-43,-63,-92,-141
-43,19,63,12,-53,41,24,14,-43,-68,-97,-136
-43,29,73,7,-58,51,19,14,-48,-68,-92,-136
-53,48,102,2,-78,75,14,19,-53,-68,-87,-131
-53,68,122,-7,-87,95,19,4,-58,-73,-102,-141
-53,78,131,-12,-92,104,14,-9,-63,-82,-102,-141
-53,92,146,-19,-100,119,9,-14,-63,-87,-107,-131
-63,112,175,-24,-119,143,9,-34,-68,-97,-112,-131
-63,107,170,-21,-117,139,-9,-39,-73,-102,-112,-122
-68,112,180,-21,-124,146,-9,-43,-82,-107,-117,-117
-73,122,195,-24,-134,158,-14,-48,-87,-107,-122,-112
-78,136,214,-29,-146,175,-19,-48,-97,-117,-122,-112
-78,156,234,-39,-156,195,-29,-68,-112,-117,-136,-107
-73,165,239,-46,-156,202,-34,-68,-112,-117,-136,-107
-78,175,253,-48,-165,214,-39,-82,-117,-117,-136,-97
-78,200,278,-61,-178,239,-43,-92,-122,-117,-136,-92
-87,209,297,-61,-192,253,-39,-97,-126,-126,-136,-87
-92,214,307,-61,-200,261,-43,-102,-136,-126,-141,-82
-92,224,317,-65,-204,270,-48,-107,-141,-131,-141,-82
-92,234,326,-70,-209,280,-53,-107,-156,-136,-146,-82
-92,248,341,-78,-217,295,-63,-122,-161,-136,-151,-82
-97,253,351,-78,-224,302,-63,-136,-161,-136,-151,-73
-102,263,366,-80,-234,314,-68,-146,-165,-141,-151,-73
-107,268,375,-80,-241,322,-73,-156,-170,-141,-151,-68
-122,278,400,-78,-261,339,-73,-165,-170,-151,-161,-73
-126,278,405,-75,-265,341,-73,-170,-175,-151,-161,-68
-126,283,409,-78,-268,346,-78,-170,-180,-151,-161,-68
-126,283,409,-78,-268,346,-78,-180,-180,-151,-161,-68
-117,268,385,-75,-251,326,-68,-170,-180,-156,-161,-68
-117,263,380,-73,-248,322,-78,-170,-175,-151,-161,-63
-117,258,375,-70,-246,317,-68,-170,-175,-151,-161,-63
-117,253,370,-68,-244,312,-63,-180,-180,-151,-161,-63
-122,248,370,-63,-246,309,-53,-180,-180,-146,-161,-63
-126,244,370,-58,-248,307,-53,-175,-175,-141,-151,-63
-122,239,361,-58,-241,300,-53,-170,-161,-126,-146,-58
-126,234,361,-53,-244,297,-53,-170,-156,-112,-146,-58
-112,224,336,-56,-224,280,-58,-175,-161,-107,-146,-58
-107,214,322,-53,-214,268,-53,-165,-151,-107,-141,-53
-102,214,317,-56,-209,265,-53,-165,-146,-102,-131,-48
-97,209,307,-56,-202,258,-53,-165,-136,-102,-126,-48
-97,204,302,-53,-200,253,-39,-141,-122,-87,-102,-39
-92,190,283,-48,-187,236,-39,-136,-107,-78,-92,-34
-87,180,268,-46,-178,224,-34,-122,-97,-68,-78,-29
-82,170,253,-43,-168,212,-34,-112,-87,-58,-73,-24
-68,151,219,-41,-143,185,-34,-102,-68,-39,-63,-14
-63,136,200,-36,-131,168,-34,-92,-53,-29,-48,-9
-48,136,185,-43,-117,161,-29,-82,-48,-24,-39,-9
-39,122,161,-41,-100,141,-29,-78,-39,-9,-24,-9
-43,97,141,-26,-92,119,-29,-73,-29,14,-9,0
-39,92,131,-26,-85,112,-29,-73,-14,19,0,0
-34,82,117,-24,-75,100,-29,-58,-14,19,9,0
-24,73,97,-24,-61,85,-24,-53,-9,19,14,0
-19,73,92,-26,-56,82,-14,-48,4,29,9,0
-14,63,78,-24,-46,70,-4,-43,9,39,14,0
-9,58,68,-24,-39,63,-4,-29,19,39,19,0
-4,63,68,-29,-36,65,-4,-29,19,39,24,0
0,43,43,-21,-21,43,-14,-19,24,39,34,0
4,24,19,-14,-7,21,-14,-9,29,39,34,0
9,19,9,-14,0,14,-9,-4,29,39,39,0
9,19,9,-14,0,14,-9,0,39,43,39,0
14,9,-4,-12,9,2,-9,-4,39,43,39,0
14,4,-9,-9,12,-2,-4,0,39,48,39,0
14,-4,-19,-4,17,-12,-4,4,39,48,39,0
19,-9,-29,-4,24,-19,-4,9,43,48,39,-9
19,-4,-24,-7,21,-14,4,24,43,48,39,-9
19,-4,-24,-7,21,-14,9,24,43,48,39,-9
19,0,-19,-9,19,-9,9,24,43,48,39,-9
19,-4,-24,-7,21,-14,14,24,43,39,34,-14
24,-14,-39,-4,31,-26,4,19,43,39,34,-14
29,-19,-48,-4,39,-34,4,19,43,43,34,-14
29,-24,-53,-2,41,-39,4,24,43,43,34,-14
24,-34,-58,4,41,-46,4,24,43,39,34,-19
24,-34,-58,4,41,-46,4,24,43,48,34,-29
29,-24,-53,-2,41,-39,4,29,39,48,29,-34
29,-24,-53,-2,41,-39,4,29,39,43,29,-34
29,-29,-58,0,43,-43,4,29,39,43,29,-34
19,-34,-53,7,36,-43,-4,29,29,29,19,-34
19,-39,-58,9,39,-48,-4,29,29,19,9,-43
24,-43,-68,9,46,-56,-4,29,29,14,9,-43
24,-48,-73,12,48,-61,-4,29,24,9,9,-43
29,-53,-82,12,56,-68,0,29,34,4,19,-34
24,-63,-87,19,56,-75,4,29,24,9,19,-34
24,-63,-87,19,56,-75,14,29,24,14,19,-39
24,-58,-82,17,53,-70,19,29,24,19,14,-39
14,-53,-68,19,41,-61,29,29,14,19,14,-48
14,-53,-68,19,41,-61,29,29,14,9,9,-58
19,-53,-73,17,46,-63,29,29,14,9,9,-58
19,-58,-78,19,48,-68,29,29,14,9,9,-58
19,-53,-73,17,46,-63,29,39,19,9,9,-48
19,-53,-73,17,46,-63,29,39,19,9,9,-48
19,-53,-73,17,46,-63,29,39,24,9,9,-48
19,-53,-73,17,46,-63,29,39,24,9,9,-48
19,-63,-82,21,51,-73,29,43,34,9,14,-39
19,-63,-82,21,51,-73,39,48,34,9,14,-39
19,-63,-82,21,51,-73,39,48,34,9,14,-39
24,-63,-87,19,56,-75,34,48,34,9,14,-39
34,-73,-107,19,70,-90,29,39,29,14,4,-53
29,-73,-102,21,65,-87,24,39,24,14,4,-53
29,-73,-102,21,65,-87,19,39,19,14,4,-53
29,-78,-107,24,68,-92,14,39,14,14,4,-53
34,-73,-107,19,70,-90,4,43,19,14,14,-43
34,-73,-107,19,70,-90,4,43,29,14,14,-43
34,-68,-102,17,68,-85,9,43,39,14,14,-43
34,-68,-102,17,68,-85,9,43,43,14,14,-43
24,-63,-87,19,56,-75,19,34,34,19,14,-53
24,-68,-92,21,58,-80,19,39,34,19,14,-53
24,-68,-92,21,58,-80,19,48,34,24,19,-53
24,-63,-87,19,56,-75,19,39,34,24,24,-53
24,-73,-97,24,61,-85,29,48,43,29,24,-48
24,-82,-107,29,65,-95,34,53,48,34,24,-43
24,-73,-97,24,61,-85,34,58,48,34,24,-39
29,-73,-102,21,65,-87,29,58,48,29,19,-34
29,-63,-92,17,61,-78,19,53,48,29,29,-34
29,-63,-92,17,61,-78,19,53,53,29,29,-34
29,-63,-92,17,61,-78,24,58,58,29,34,-34
29,-68,-97,19,63,-82,24,58,58,29,34,-34
29,-78,-107,24,68,-92,34,58,58,29,24,-34
29,-68,-97,19,63,-82,34,58,58,29,24,-34
34,-68,-102,17,68,-85,34,58,58,34,29,-34
34,-73,-107,19,70,-90,34,58,63,34,29,-34
34,-73,-107,19,70,-90,19,48,53,34,29,-34
34,-68,-102,17,68,-85,19,48,53,34,29,-34
34,-68,-102,17,68,-85,24,53,53,34,29,-34
24,-68,-92,21,58,-80,24,53,53,34,29,-34
34,-58,-92,12,63,-75,14,63,63,43,29,-34
34,-58,-92,12,63,-75,19,63,63,43,29,-39
29,-58,-87,14,58,-73,19,63,63,43,29,-39
29,-58,-87,14,58,-73,19,63,63,43,29,-39
19,-68,-87,24,53,-78,24,63,73,48,39,-24
19,-68,-87,24,53,-78,24,63,78,48,39,-24
19,-68,-87,24,53,-78,24,68,78,48,39,-24
19,-78,-97,29,58,-87,24,68,73,48,39,-24
29,-68,-97,19,63,-82,34,58,63,39,29,-24
34,-68,-102,17,68,-85,34,58,63,39,34,-24
39,-68,-107,14,73,-87,34,58,63,39,34,-24
43,-68,-112,12,78,-90,34,58,63,39,34,-24
34,-58,-92,12,63,-75,34,53,63,39,43,-24
34,-58,-92,12,63,-75,34,53,63,39,39,-24
34,-68,-102,17,68,-85,34,53,63,43,39,-19
34,-73,-107,19,70,-90,29,53,63,48,39,-14
34,-82,-117,24,75,-100,29,63,68,39,39,-14
34,-82,-117,24,75,-100,29,63,68,39,39,-14
34,-82,-117,24,75,-100,29,63,68,39,39,-14
34,-78,-112,21,73,-95,29,63,68,39,39,-14
34,-78,-112,21,73,-95,24,63,73,48,39,-4
34,-78,-112,21,73,-95,24,63,68,43,39,-4
34,-78,-112,21,73,-95,24,63,68,43,39,-4
34,-78,-112,21,73,-95,24,63,68,43,39,-4
34,-82,-117,24,75,-100,34,63,73,48,48,-14
34,-97,-131,31,82,-114,34,63,73,48,48,-14
34,-92,-126,29,80,-109,34,63,73,48,48,-14
34,-92,-126,29,80,-109,34,63,73,48,48,-14
29,-82,-112,26,70,-97,34,63,68,48,39,-9
29,-82,-112,26,70,-97,34,63,68,48,39,-9
24,-82,-107,29,65,-95,34,63,68,48,39,-9
24,-82,-107,29,65,-95,34,63,68,48,39,-9
34,-78,-112,21,73,-95,24,53,68,34,29,-9
39,-78,-117,19,78,-97,24,53,63,34,29,-9
39,-78,-117,19,78,-97,24,53,58,34,29,-9
29,-82,-112,26,70,-97,24,53,48,34,29,-9
19,-92,-112,36,65,-102,29,58,48,34,39,-4
19,-92,-112,36,65,-102,29,58,48,34,39,-4
24,-92,-117,34,70,-104,24,53,48,34,39,-4
24,-87,-112,31,68,-100,24,53,48,34,39,-4
24,-68,-92,21,58,-80,14,53,58,24,29,-14
19,-78,-97,29,58,-87,14,53,53,24,24,-14
19,-78,-97,29,58,-87,14,58,53,24,24,-14
24,-73,-97,24,61,-85,14,63,53,24,29,-9
34,-73,-107,19,70,-90,19,63,63,34,39,0
34,-73,-107,19,70,-90,19,58,63,39,43,0
34,-68,-102,17,68,-85,19,58,63,39,43,0
34,-68,-102,17,68,-85,19,58,63,39,43,0
24,-68,-92,21,58,-80,29,43,48,29,34,-9
24,-68,-92,21,58,-80,29,43,48,19,24,-9
24,-68,-92,21,58,-80,34,43,53,19,24,-9
24,-78,-102,26,63,-90,34,43,53,19,24,-9
34,-58,-92,12,63,-75,24,43,34,9,14,-9
43,-73,-117,14,80,-95,24,39,39,24,24,-4
34,-73,-107,19,70,-90,14,48,48,34,34,-4
19,-68,-87,24,53,-78,19,48,48,39,29,-9
29,-68,-97,19,63,-82,19,48,48,39,29,-9
29,-68,-97,19,63,-82,19,48,48,39,29,-9
29,-68,-97,19,63,-82,19,48,48,39,29,-9
29,-68,-97,19,63,-82,19,48,48,39,29,-9
29,-53,-82,12,56,-68,9,53,53,34,34,-4
29,-48,-78,9,53,-63,9,53,58,39,34,0
29,-48,-78,9,53,-63,0,53,58,39,34,0
29,-34,-63,2,46,-48,0,43,58,39,39,0
29,-34,-63,2,46,-48,14,53,73,58,48,9
29,-29,-58,0,43,-43,14,53,78,63,53,14
29,-29,-58,0,43,-43,19,48,82,63,58,14
29,-29,-58,0,43,-43,19,48,87,63,63,19
29,-29,-58,0,43,-43,14,39,87,53,58,19
29,-19,-48,-4,39,-34,9,39,82,53,58,19
34,-19,-53,-7,43,-36,9,39,78,58,58,24
34,-19,-53,-7,43,-36,14,39,73,58,58,24
39,-19,-58,-9,48,-39,14,53,82,63,53,24
39,-14,-53,-12,46,-34,14,53,92,68,58,24
39,-9,-48,-14,43,-29,14,48,97,73,63,29
39,0,-39,-19,39,-19,4,48,107,73,68,29
39,0,-39,-19,39,-19,-4,39,97,92,73,39
39,4,-34,-21,36,-14,-9,39,102,92,78,43
48,0,-48,-24,48,-24,-14,39,102,97,78,48
48,0,-48,-24,48,-24,-14,29,97,97,78,48
48,24,-24,-36,36,0,-29,24,107,97,92,53
53,43,-9,-48,31,17,-43,14,112,107,92,58
58,68,9,-63,24,39,-53,14,112,107,92,63
63,78,14,-70,24,46,-53,9,112,107,92,63
63,78,14,-70,24,46,-48,4,112,107,97,73
63,97,34,-80,14,65,-48,0,107,107,97,73
63,112,48,-87,7,80,-53,0,107,107,97,73
63,117,53,-90,4,85,-53,-4,107,107,97,73
63,117,53,-90,4,85,-63,-9,107,107,92,73
63,122,58,-92,2,90,-63,-9,102,107,92,73
63,131,68,-97,-2,100,-63,-9,102,107,92,73
63,122,58,-92,2,90,-63,-9,102,107,92,73
53,112,58,-82,-2,85,-58,-9,92,107,82,73
53,97,43,-75,4,70,-58,-4,92,107,87,73
53,92,39,-73,7,65,-58,0,92,107,87,73
63,87,24,-75,19,56,-53,4,92,107,87,73
68,82,14,-75,26,48,-48,4,82,102,87,68
68,73,4,-70,31,39,-43,4,78,87,92,68
