I,II,III,aVR,aVL,aVF,V1,V2,V3,V4,V5,V6,
19,14,-4,-17,12,4,-34,-14,9,0,34,97
19,0,-19,-9,19,-9,-29,-14,0,-9,19,73
4,-9,-14,2,9,-12,-29,-24,-9,-19,4,68
-14,-19,-4,17,-4,-12,-24,-24,-9,-29,0,73
-24,-29,-4,26,-9,-17,-24,-34,-14,-29,-4,68
-29,-29,0,29,-14,-14,-24,-34,-19,-39,-4,68
-34,-43,-9,39,-12,-26,-29,-43,-29,-43,-9,53
-39,-53,-14,46,-12,-34,-39,-48,-34,-43,-9,48
-43,-53,-9,48,-17,-31,-24,-48,-29,-43,-9,48
-48,-53,-4,51,-21,-29,-9,-48,-29,-48,-9,43
-48,-58,-9,53,-19,-34,-4,-48,-19,-53,-14,43
-48,-63,-14,56,-17,-39,-4,-48,-14,-63,-19,39
-39,-63,-24,51,-7,-43,4,-48,-24,-63,-19,39
-29,-53,-24,41,-2,-39,4,-48,-24,-53,-14,39
-43,-53,-9,48,-17,-31,0,-43,-24,-53,-14,39
-48,-58,-9,53,-19,-34,0,-43,-24,-58,-19,39
-48,-58,-9,53,-19,-34,0,-53,-19,-63,-24,39
-58,-48,9,53,-34,-19,0,-58,-14,-63,-24,43
-68,-58,9,63,-39,-24,0,-58,-24,-53,-24,48
-78,-58,19,68,-48,-19,0,-53,-24,-48,-19,53
-63,-53,9,58,-36,-21,0,-39,-24,-43,-19,48
-63,-53,9,58,-36,-21,0,-48,-24,-43,-19,43
-78,-53,24,65,-51,-14,-4,-48,-19,-43,-14,43
-78,-63,14,70,-46,-24,-14,-48,-14,-48,-14,43
-68,-63,4,65,-36,-29,-14,-48,-14,-48,-14,43
-68,-58,9,63,-39,-24,-14,-48,-14,-43,-14,48
-63,-48,14,56,-39,-17,-19,-53,-14,-48,-19,53
-48,-48,0,48,-24,-24,-14,-58,-19,-53,-19,53
-63,-53,9,58,-36,-21,-4,-53,-19,-53,-19,53
-63,-53,9,58,-36,-21,4,-53,-14,-43,-19,58
-53,-53,0,53,-26,-26,4,-48,-14,-43,-19,63
-43,-58,-14,51,-14,-36,4,-48,-14,-48,-14,63
-43,-53,-9,48,-17,-31,-9,-48,-14,-48,-14,63
-43,-53,-9,48,-17,-31,-14,-48,-14,-43,-9,63
-48,-53,-4,51,-21,-29,-14,-48,-14,-43,-9,68
-43,-53,-9,48,-17,-31,-14,-48,-19,-48,-9,68
-39,-48,-9,43,-14,-29,-14,-48,-19,-48,-9,68
-39,-43,-4,41,-17,-24,-14,-48,-14,-43,-9,68
-53,-43,9,48,-31,-17,-14,-48,-14,-43,-9,68
-53,-53,0,53,-26,-26,-14,-48,-14,-53,-9,63
-39,-53,-14,46,-12,-34,-19,-43,-14,-53,-9,63
-39,-48,-9,43,-14,-29,-9,-39,-19,-53,-4,63
-48,-43,4,46,-26,-19,-14,-48,-19,-48,-4,63
-48,-48,0,48,-24,-24,-19,-63,-19,-48,-9,58
-53,-58,-4,56,-24,-31,-19,-63,-19,-48,-4,73
-53,-48,4,51,-29,-21,-19,-53,-19,-43,0,87
-39,-53,-14,46,-12,-34,-24,-58,-19,-48,0,73
-48,-58,-9,53,-19,-34,-29,-53,-19,-53,0,63
-48,-68,-19,58,-14,-43,-29,-53,-24,-53,-4,58
-58,-78,-19,68,-19,-48,-34,-53,-29,-58,-14,43
-39,-53,-14,46,-12,-34,-29,-53,-29,-58,-19,48
-29,-53,-24,41,-2,-39,-24,-53,-29,-48,-19,48
-29,-63,-34,46,2,-48,-24,-53,-29,-53,-24,48
-39,-68,-29,53,-4,-48,-24,-53,-24,-63,-29,48
-43,-68,-24,56,-9,-46,-24,-58,-24,-68,-29,43
-43,-68,-24,56,-9,-46,-14,-63,-24,-63,-19,39
-39,-87,-48,63,4,-68,-14,-63,-34,-73,-29,39
-53,-107,-53,80,0,-80,-14,-63,-39,-73,-29,43
-53,-92,-39,73,-7,-65,-9,-53,-39,-73,-29,48
-58,-87,-29,73,-14,-58,-14,-48,-39,-68,-29,48
-43,-73,-29,58,-7,-51,-9,-48,-34,-63,-19,48
-29,-58,-29,43,0,-43,0,-48,-29,-58,-9,43
-34,-68,-34,51,0,-51,-9,-58,-34,-68,-24,43
-34,-78,-43,56,4,-61,-19,-63,-34,-68,-24,43
-48,-87,-39,68,-4,-63,-24,-58,-34,-63,-34,53
-63,-102,-39,82,-12,-70,-29,-58,-34,-63,-34,63
-53,-87,-34,70,-9,-61,-19,-58,-34,-63,-34,63
-39,-68,-29,53,-4,-48,-19,-58,-39,-63,-34,63
-39,-87,-48,63,4,-68,-24,-58,-39,-68,-39,53
-39,-87,-48,63,4,-68,-24,-53,-39,-68,-39,53
-39,-68,-29,53,-4,-48,-24,-58,-39,-63,-29,53
-39,-68,-29,53,-4,-48,-29,-58,-34,-63,-19,53
-29,-68,-39,48,4,-53,-29,-63,-34,-68,-19,58
-19,-73,-53,46,17,-63,-24,-58,-39,-68,-19,58
-43,-87,-43,65,0,-65,-19,-58,-39,-63,-19,58
-43,-92,-48,68,2,-70,-19,-63,-39,-58,-19,53
-29,-82,-53,56,12,-68,-14,-68,-34,-58,-19,53
-39,-82,-43,61,2,-63,-9,-68,-29,-58,-19,53
-29,-53,-24,41,-2,-39,-4,-58,-14,-48,-9,58
-24,-34,-9,29,-7,-21,-4,-53,0,-39,-4,68
-24,-34,-9,29,-7,-21,-4,-53,0,-39,-4,87
-24,-39,-14,31,-4,-26,-4,-48,-4,-43,-4,78
-14,-24,-9,19,-2,-17,0,-43,4,-29,0,82
-9,-9,0,9,-4,-4,9,-39,19,-19,9,87
-9,-9,0,9,-4,-4,0,-43,19,-19,9,87
-9,-9,0,9,-4,-4,-9,-48,19,-19,9,87
-9,-4,4,7,-7,0,-14,-48,19,-14,14,92
-4,0,4,2,-4,2,-19,-48,24,-14,14,92
-4,9,14,-2,-9,12,-24,-48,29,-19,19,97
0,24,24,-12,-12,24,-43,-48,34,-19,19,97
24,34,9,-29,7,21,-43,-53,29,-14,19,97
39,43,4,-41,17,24,-58,-58,19,-14,19,97
24,34,9,-29,7,21,-63,-58,14,-19,19,97
19,19,0,-19,9,9,-63,-68,4,-24,14,92
19,-4,-24,-7,21,-14,-82,-87,-14,-43,-4,82
19,-19,-39,0,29,-29,-97,-92,-19,-48,-14,78
39,-9,-48,-14,43,-29,-82,-92,-19,-48,-14,78
58,-4,-63,-26,61,-34,-58,-78,-24,-53,-24,73
24,-24,-48,0,36,-36,-58,-78,-24,-58,-24,63
-9,-39,-29,24,9,-34,-48,-73,-14,-58,-24,63
-14,-48,-34,31,9,-41,-34,-73,-24,-63,-34,58
-19,-58,-39,39,9,-48,-29,-73,-34,-73,-39,48
-9,-68,-58,39,24,-63,-29,-63,-34,-78,-43,39
4,-82,-87,39,46,-85,-29,-53,-34,-82,-48,34
-9,-87,-78,48,34,-82,-29,-63,-34,-97,-63,19
-29,-107,-78,68,24,-92,-29,-73,-43,-102,-63,14
-39,-112,-73,75,17,-92,-29,-82,-43,-107,-68,14
-29,-117,-87,73,29,-102,-29,-82,-48,-112,-68,9
-14,-117,-102,65,43,-109,-29,-82,-53,-112,-73,9
-24,-112,-87,68,31,-100,-29,-78,-53,-107,-73,9
-24,-112,-87,68,31,-100,-19,-78,-53,-107,-73,9
-34,-117,-82,75,24,-100,-14,-73,-53,-107,-73,9
-39,-122,-82,80,21,-102,-14,-73,-48,-107,-82,9
-39,-122,-82,80,21,-102,-24,-73,-48,-112,-87,4
-39,-117,-78,78,19,-97,-24,-73,-48,-112,-87,4
-43,-117,-73,80,14,-95,-29,-73,-43,-112,-82,9
-43,-117,-73,80,14,-95,-29,-78,-48,-112,-82,9
-43,-117,-73,80,14,-95,-24,-78,-53,-112,-82,9
-14,-117,-102,65,43,-109,-24,-78,-53,-126,-97,4
14,-117,-131,51,73,-124,-24,-82,-53,-136,-112,-4
-4,-117,-112,61,53,-114,-19,-82,-53,-126,-97,-4
-19,-117,-97,68,39,-107,-14,-82,-53,-117,-82,-4
-19,-107,-87,63,34,-97,-19,-82,-58,-126,-87,-4
-19,-97,-78,58,29,-87,-19,-78,-58,-126,-87,-4
-24,-117,-92,70,34,-104,-14,-78,-53,-122,-92,-4
-48,-131,-82,90,17,-107,0,-73,-39,-112,-92,-4
-82,-117,-34,100,-24,-75,24,-68,-14,-102,-87,0
-156,-126,29,141,-92,-48,63,-58,19,-92,-82,0
-239,-146,92,192,-165,-26,97,-58,43,-82,-82,-19
-273,-151,122,212,-197,-14,141,9,82,-58,-73,-19
-297,-195,102,246,-200,-46,234,131,117,-39,-53,-14
-156,-219,-63,187,-46,-141,214,219,102,-24,-24,9
224,-48,-273,-87,248,-161,48,278,122,102,131,204
727,229,-497,-478,612,-134,-263,175,68,200,292,419
1024,307,-717,-666,871,-204,-570,-122,-195,-14,131,312
1024,102,-922,-563,973,-409,-712,-468,-546,-409,-263,-43
829,-136,-966,-346,897,-551,-741,-863,-810,-702,-556,-312
575,-248,-824,-163,700,-536,-692,-1044,-907,-810,-668,-419
424,-322,-746,-51,585,-534,-590,-951,-863,-810,-673,-444
297,-346,-644,24,470,-495,-468,-785,-761,-732,-614,-409
234,-244,-478,4,356,-361,-322,-546,-527,-531,-444,-273
190,-165,-356,-12,273,-261,-214,-375,-356,-390,-322,-175
68,-156,-224,43,146,-190,-122,-253,-244,-292,-244,-112
29,-146,-175,58,102,-161,-87,-170,-170,-234,-195,-78
24,-107,-131,41,78,-119,-58,-122,-97,-175,-156,-43
4,-107,-112,51,58,-109,-24,-87,-53,-151,-131,-29
-9,-102,-92,56,41,-97,-9,-73,-58,-146,-126,-24
-4,-92,-87,48,41,-90,0,-73,-58,-141,-122,-24
-24,-107,-82,65,29,-95,0,-68,-53,-141,-122,-29
-24,-107,-82,65,29,-95,4,-48,-43,-131,-122,-34
-19,-107,-87,63,34,-97,9,-48,-43,-126,-117,-34
-19,-107,-87,63,34,-97,9,-43,-43,-126,-107,-24
-19,-102,-82,61,31,-92,14,-34,-39,-122,-107,-24
-19,-102,-82,61,31,-92,19,-34,-39,-117,-107,-24
-39,-117,-78,78,19,-97,34,-34,-34,-117,-102,-24
-53,-112,-58,82,2,-85,43,-34,-34,-117,-102,-24
-43,-112,-68,78,12,-90,29,-34,-29,-122,-102,-24
-34,-122,-87,78,26,-104,19,-34,-29,-122,-102,-24
-19,-117,-97,68,39,-107,14,-34,-29,-122,-107,-29
0,-107,-107,53,53,-107,9,-34,-29,-126,-107,-29
-24,-102,-78,63,26,-90,9,-29,-29,-126,-107,-24
-43,-102,-58,73,7,-80,9,-29,-24,-126,-107,-24
-34,-107,-73,70,19,-90,14,-39,-24,-136,-112,-34
-34,-107,-73,70,19,-90,14,-43,-24,-141,-112,-39
-14,-87,-73,51,29,-80,19,-34,-19,-136,-112,-34
9,-78,-87,34,48,-82,24,-29,-19,-131,-112,-34
-9,-87,-78,48,34,-82,19,-29,-19,-131,-112,-39
-24,-87,-63,56,19,-75,19,-29,-19,-131,-117,-43
-14,-87,-73,51,29,-80,14,-29,-14,-131,-122,-43
-9,-97,-87,53,39,-92,14,-29,-14,-131,-122,-53
-19,-107,-87,63,34,-97,4,-24,-14,-136,-126,-53
-39,-117,-78,78,19,-97,4,-14,-9,-141,-126,-48
-39,-107,-68,73,14,-87,9,-4,-9,-136,-126,-48
-39,-97,-58,68,9,-78,9,-4,-9,-136,-126,-48
-24,-92,-68,58,21,-80,14,-4,-4,-136,-131,-48
-4,-87,-82,46,39,-85,24,4,0,-136,-136,-43
-14,-82,-68,48,26,-75,29,9,4,-141,-136,-43
-34,-82,-48,58,7,-65,39,9,9,-141,-136,-43
-24,-78,-53,51,14,-65,39,9,4,-136,-131,-48
-9,-73,-63,41,26,-68,43,4,4,-126,-131,-43
0,-63,-63,31,31,-63,48,29,9,-126,-126,-39
9,-48,-58,19,34,-53,53,48,19,-122,-117,-34
9,-48,-58,19,34,-53,53,43,19,-117,-117,-34
19,-43,-63,12,41,-53,53,48,29,-107,-112,-34
14,-39,-53,12,34,-46,53,63,39,-97,-102,-29
9,-34,-43,12,26,-39,48,78,43,-92,-102,-29
19,-34,-53,7,36,-43,39,87,39,-92,-97,-24
43,-24,-68,-9,56,-46,29,97,43,-78,-82,-14
53,-24,-78,-14,65,-51,29,107,43,-68,-82,-9
58,-9,-68,-24,63,-39,29,122,53,-58,-73,-4
73,4,-68,-39,70,-31,34,136,68,-48,-53,9
97,19,-78,-58,87,-29,43,151,78,-39,-39,19
102,43,-58,-73,80,-7,48,170,97,-9,-14,39
117,58,-58,-87,87,0,53,175,107,9,4,63
161,73,-87,-117,124,-7,48,190,107,14,9,68
200,87,-112,-143,156,-12,24,209,117,24,24,82
214,97,-117,-156,165,-9,14,219,117,34,34,82
248,107,-141,-178,195,-17,4,234,122,48,43,92
273,131,-141,-202,207,-4,0,244,131,58,58,112
302,146,-156,-224,229,-4,-14,253,131,63,68,126
312,156,-156,-234,234,0,-34,253,136,87,92,136
341,185,-156,-263,248,14,-48,253,141,107,107,146
361,200,-161,-280,261,19,-53,263,141,107,112,151
370,209,-161,-290,265,24,-63,268,141,112,122,165
380,209,-170,-295,275,19,-53,253,141,112,122,165
400,224,-175,-312,287,24,-53,239,131,112,122,170
400,229,-170,-314,285,29,-63,219,126,112,126,161
400,229,-170,-314,285,29,-68,195,112,112,126,156
400,224,-175,-312,287,24,-73,185,107,112,122,156
380,214,-165,-297,273,24,-78,170,102,112,126,151
351,209,-141,-280,246,34,-78,161,97,117,122,151
341,200,-141,-270,241,29,-78,141,78,107,117,136
322,180,-141,-251,231,19,-68,122,78,97,107,126
297,165,-131,-231,214,17,-68,112,78,97,107,122
273,141,-131,-207,202,4,-68,82,68,82,82,102
253,131,-122,-192,187,4,-68,58,58,73,73,87
200,112,-87,-156,143,12,-68,48,53,68,53,68
170,107,-63,-139,117,21,-58,43,53,63,43,58
131,73,-58,-102,95,7,-68,24,48,53,34,39
112,58,-53,-85,82,2,-73,14,39,39,19,14
102,39,-63,-70,82,-12,-68,0,24,19,0,-4
97,34,-63,-65,80,-14,-63,0,19,4,0,-14
87,29,-58,-58,73,-14,-53,-19,9,9,-9,-19
58,9,-48,-34,53,-19,-39,-24,0,9,-19,-34
43,-9,-53,-17,48,-31,-34,-34,-9,0,-39,-58
24,-29,-53,2,39,-41,-24,-34,-9,-9,-48,-73
24,-29,-53,2,39,-41,-19,-43,-14,-9,-58,-78
29,-19,-48,-4,39,-34,-14,-43,-19,-19,-63,-78
24,-24,-48,0,36,-36,0,-43,-24,-19,-68,-87
19,-24,-43,2,31,-34,9,-39,-24,-14,-68,-87
19,-24,-43,2,31,-34,-4,-39,-19,-14,-73,-87
19,-24,-43,2,31,-34,-19,-39,-19,-19,-78,-92
9,-29,-39,9,24,-34,-14,-39,-19,-19,-82,-92
0,-34,-34,17,17,-34,-14,-39,-24,-24,-87,-97
0,-39,-39,19,19,-39,4,-39,-29,-24,-87,-97
0,-34,-34,17,17,-34,14,-39,-24,-14,-82,-97
-14,-39,-24,26,4,-31,-4,-34,-24,-19,-87,-107
-19,-48,-29,34,4,-39,-19,-34,-24,-29,-97,-117
-4,-58,-53,31,24,-56,-19,-48,-24,-34,-102,-126
0,-58,-58,29,29,-58,-19,-58,-24,-34,-102,-131
-14,-53,-39,34,12,-46,-14,-58,-24,-24,-97,-126
-29,-39,-9,34,-9,-24,-9,-53,-14,-19,-87,-122
-19,-29,-9,24,-4,-19,-9,-39,-14,-9,-87,-122
-24,-24,0,24,-12,-12,-9,-48,-14,-4,-87,-122
-39,-24,14,31,-26,-4,-14,-48,-14,-4,-82,-122
-39,-34,4,36,-21,-14,-24,-48,-14,-9,-82,-122
-24,-34,-9,29,-7,-21,-14,-48,-14,-9,-78,-122
-19,-29,-9,24,-4,-19,-4,-48,-14,-4,-73,-117
-19,-19,0,19,-9,-9,-14,-39,-9,0,-73,-107
-9,-19,-9,14,0,-14,-14,-29,-9,4,-68,-102
-24,-29,-4,26,-9,-17,-24,-34,-9,4,-63,-102
-24,-34,-9,29,-7,-21,-34,-43,-4,14,-58,-97
-34,-29,4,31,-19,-12,-19,-43,-4,14,-58,-92
-43,-29,14,36,-29,-7,-4,-48,-4,9,-53,-92
-34,-19,14,26,-24,-2,-14,-48,-4,9,-53,-92
-24,-14,9,19,-17,-2,-14,-48,-4,14,-48,-92
-24,-9,14,17,-19,2,-9,-39,-4,19,-39,-82
-14,-4,9,9,-12,2,-4,-29,-9,19,-29,-78
-19,-4,14,12,-17,4,-4,-39,-9,19,-29,-78
-29,-4,24,17,-26,9,-4,-48,-4,24,-29,-78
-43,-4,39,24,-41,17,-4,-48,-4,29,-29,-78
-43,-14,29,29,-36,7,-4,-48,-4,24,-29,-82
-14,-9,4,12,-9,-2,-14,-43,0,24,-29,-82
0,0,0,0,0,0,-9,-39,0,24,-24,-82
-9,14,24,-2,-17,19,-9,-34,0,34,-14,-78
-9,19,29,-4,-19,24,-9,-34,0,39,-9,-78
-19,-4,14,12,-17,4,-9,-34,0,39,-9,-78
-24,-9,14,17,-19,2,-9,-24,0,43,-9,-78
-9,-19,-9,14,0,-14,-4,-43,0,43,-9,-87
-19,-29,-9,24,-4,-19,0,-53,0,43,-9,-92
-29,-29,0,29,-14,-14,0,-53,-4,43,-9,-82
-48,-29,19,39,-34,-4,-4,-53,-9,39,-14,-82
-29,-19,9,24,-19,-4,-9,-48,-14,29,-19,-87
-19,-34,-14,26,-2,-24,-14,-43,-19,29,-19,-97
-29,-34,-4,31,-12,-19,-14,-43,-19,34,-19,-97
-48,-29,19,39,-34,-4,-14,-43,-14,34,-19,-97
-34,-24,9,29,-21,-7,-14,-43,-14,34,-19,-97
-14,-19,-4,17,-4,-12,-4,-43,-14,43,-9,-97
-19,-14,4,17,-12,-4,4,-43,-14,43,-19,-97
-43,-9,34,26,-39,12,14,-43,-9,53,-19,-92
-34,-9,24,21,-29,7,14,-39,-9,39,-19,-92
-29,-19,9,24,-19,-4,4,-39,-9,29,-19,-97
-29,-19,9,24,-19,-4,-9,-39,-9,29,-19,-97
-29,-19,9,24,-19,-4,-19,-39,-9,29,-19,-102
-39,-24,14,31,-26,-4,-19,-43,-19,19,-39,-107
-43,-29,14,36,-29,-7,-19,-43,-24,19,-43,-112
-43,-24,19,34,-31,-2,-9,-43,-24,19,-43,-112
-43,-24,19,34,-31,-2,0,-48,-24,14,-34,-112
-39,-24,14,31,-26,-4,0,-48,-24,14,-34,-112
-29,-19,9,24,-19,-4,-9,-48,-29,14,-34,-112
-29,-39,-9,34,-9,-24,-14,-53,-24,9,-39,-112
-29,-39,-9,34,-9,-24,-14,-53,-19,9,-39,-102
-39,-24,14,31,-26,-4,-14,-53,-19,14,-39,-102
-48,-29,19,39,-34,-4,-19,-48,-14,14,-39,-102
-48,-29,19,39,-34,-4,-29,-48,-19,9,-39,-97
-48,-34,14,41,-31,-9,-34,-39,-29,9,-39,-97
-58,-39,19,48,-39,-9,-19,-39,-29,9,-39,-97
-43,-34,9,39,-26,-12,-9,-43,-29,9,-39,-102
-19,-24,-4,21,-7,-14,-9,-43,-29,9,-39,-107
-19,-24,-4,21,-7,-14,-9,-39,-29,9,-39,-112
-29,-19,9,24,-19,-4,-14,-34,-24,14,-29,-112
-43,-24,19,34,-31,-2,-24,-34,-19,19,-24,-107
-43,-34,9,39,-26,-12,-14,-48,-19,19,-24,-97
-43,-48,-4,46,-19,-26,-4,-53,-24,19,-24,-117
-48,-48,0,48,-24,-24,4,-63,-24,14,-24,-112
-53,-34,19,43,-36,-7,14,-63,-24,19,-24,-107
-68,-29,39,48,-53,4,9,-43,-19,24,-24,-102
-68,-24,43,46,-56,9,9,-34,-9,24,-19,-97
-29,-14,14,21,-21,0,-4,-43,-19,19,-19,-97
-29,-4,24,17,-26,9,-19,-43,-19,19,-19,-97
-39,4,43,17,-41,24,-4,-39,-4,24,-9,-87
-53,4,58,24,-56,31,4,-34,0,29,-9,-87
-53,4,58,24,-56,31,4,-29,0,34,-4,-87
-39,14,53,12,-46,34,4,-19,4,43,0,-82
-34,29,63,2,-48,46,4,-14,9,48,9,-73
-29,48,78,-9,-53,63,4,-9,19,58,19,-63
-24,53,78,-14,-51,65,14,-9,29,63,24,-53
-19,58,78,-19,-48,68,29,-9,39,68,29,-48
-19,58,78,-19,-48,68,19,-9,39,68,29,-48
-19,58,78,-19,-48,68,9,-9,39,68,29,-48
-19,58,78,-19,-48,68,9,-9,39,63,29,-48
-19,63,82,-21,-51,73,-4,-9,34,58,29,-43
-19,68,87,-24,-53,78,-19,-14,34,58,29,-43
-9,73,82,-31,-46,78,-24,-19,29,63,29,-39
-14,73,87,-29,-51,80,-43,-29,24,68,34,-39
-19,73,92,-26,-56,82,-53,-29,24,68,39,-39
-9,73,82,-31,-46,78,-53,-39,14,63,34,-43
-9,68,78,-29,-43,73,-58,-53,0,48,24,-48
0,68,68,-34,-34,68,-58,-58,-4,48,19,-48
4,58,53,-31,-24,56,-58,-63,-9,48,14,-48
0,39,39,-19,-19,39,-48,-48,-19,43,4,-53
-4,24,29,-9,-17,26,-48,-48,-24,39,4,-63
-9,14,24,-2,-17,19,-39,-43,-14,34,0,-68
-14,0,14,7,-14,7,-24,-43,-24,24,-14,-78
-24,-9,14,17,-19,2,-24,-43,-29,14,-19,-87
-48,-19,29,34,-39,4,-24,-43,-24,14,-24,-92
-63,-29,34,46,-48,2,-19,-39,-24,19,-24,-92
-63,-29,34,46,-48,2,-19,-34,-24,9,-34,-107
-63,-43,19,53,-41,-12,-9,-34,-34,4,-34,-112
-68,-43,24,56,-46,-9,0,-43,-34,0,-39,-112
-58,-48,9,53,-34,-19,0,-43,-39,-4,-39,-112
-43,-48,-4,46,-19,-26,0,-43,-39,-4,-43,-107
-78,-48,29,63,-53,-9,-4,-39,-34,0,-43,-107
-102,-53,48,78,-75,-2,-4,-39,-34,0,-43,-107
-87,-58,29,73,-58,-14,-19,-43,-39,-4,-43,-107
-68,-63,4,65,-36,-29,-34,-53,-43,-9,-48,-107
-68,-58,9,63,-39,-24,-24,-43,-48,-14,-48,-112
-63,-48,14,56,-39,-17,4,-34,-48,-14,-48,-112
-63,-48,14,56,-39,-17,19,-34,-43,-14,-43,-107
-63,-48,14,56,-39,-17,29,-39,-43,-14,-43,-107
-73,-48,24,61,-48,-12,24,-39,-43,-14,-39,-107
-82,-48,34,65,-58,-7,14,-34,-43,-14,-34,-107
-82,-48,34,65,-58,-7,14,-34,-39,-9,-34,-112
-82,-48,34,65,-58,-7,14,-34,-34,-9,-34,-112
-78,-48,29,63,-53,-9,14,-34,-34,-9,-34,-112
-78,-48,29,63,-53,-9,9,-39,-39,-19,-39,-112
-78,-48,29,63,-53,-9,9,-39,-39,-19,-39,-107
-82,-48,34,65,-58,-7,14,-39,-34,-14,-39,-102
-78,-43,34,61,-56,-4,19,-39,-24,-9,-34,-102
-107,-43,63,75,-85,9,34,-39,-9,-4,-29,-97
-234,-68,165,151,-200,48,73,-43,19,4,-29,-97
-336,-87,248,212,-292,80,122,-48,43,19,-24,-107
-395,-92,302,244,-348,104,190,19,82,48,-4,-107
-380,-102,278,241,-329,87,248,122,112,68,14,-97
-200,-117,82,158,-141,-17,224,248,112,92,43,-58
146,-4,-151,-70,148,-78,78,322,112,180,156,82
727,268,-458,-497,592,-95,-283,219,29,258,312,278
1049,326,-722,-688,885,-197,-575,-58,-224,58,165,180
1039,58,-980,-549,1010,-461,-683,-434,-610,-395,-292,-229
888,-170,-1058,-358,973,-614,-717,-800,-873,-688,-580,-488
634,-258,-893,-187,763,-575,-688,-1000,-966,-761,-668,-575
502,-283,-785,-109,644,-534,-610,-932,-907,-727,-653,-580
375,-258,-634,-58,505,-446,-488,-717,-746,-605,-546,-497
253,-175,-429,-39,341,-302,-341,-492,-517,-419,-375,-361
156,-112,-268,-21,212,-190,-219,-346,-361,-283,-258,-273
34,-97,-131,31,82,-114,-102,-224,-248,-185,-185,-219
-14,-87,-73,51,29,-80,-48,-122,-161,-122,-136,-185
-43,-48,-4,46,-19,-26,-9,-58,-82,-53,-87,-141
-73,-58,14,65,-43,-21,24,-29,-53,-34,-63,-126
-107,-73,34,90,-70,-19,29,-14,-48,-29,-58,-122
-97,-58,39,78,-68,-9,19,-14,-39,-24,-48,-122
-102,-58,43,80,-73,-7,9,-14,-34,-24,-43,-122
-102,-58,43,80,-73,-7,24,-4,-24,-14,-43,-122
-97,-53,43,75,-70,-4,39,-9,-24,-9,-39,-122
-126,-63,63,95,-95,0,43,-4,-24,-9,-29,-112
-156,-73,82,114,-119,4,53,4,-19,-4,-29,-112
-122,-53,68,87,-95,7,58,4,-19,0,-29,-112
-92,-43,48,68,-70,2,63,4,-14,0,-24,-112
-112,-34,78,73,-95,21,63,4,-14,0,-24,-107
-131,-34,97,82,-114,31,58,4,-9,0,-24,-102
-131,-48,82,90,-107,17,58,4,-9,4,-24,-102
-141,-53,87,97,-114,17,58,4,-9,4,-24,-102
-136,-48,87,92,-112,19,53,4,-9,0,-19,-102
-126,-43,82,85,-104,19,48,9,-9,0,-19,-102
-122,-39,82,80,-102,21,48,9,-4,0,-19,-102
-112,-39,73,75,-92,17,53,4,-4,-4,-24,-107
-117,-39,78,78,-97,19,58,9,-4,-4,-19,-102
-126,-29,97,78,-112,34,63,24,0,0,-14,-92
-131,-29,102,80,-117,36,63,29,9,4,-14,-92
-141,-39,102,90,-122,31,58,29,19,4,-9,-92
-141,-48,92,95,-117,21,58,29,9,0,-14,-97
-131,-48,82,90,-107,17,53,29,4,-4,-24,-102
-112,-48,63,80,-87,7,39,24,4,-4,-24,-112
-97,-48,48,73,-73,0,29,19,4,-4,-24,-112
-122,-43,78,82,-100,17,58,24,9,-4,-19,-102
-136,-39,97,87,-117,29,78,34,9,0,-19,-97
-136,-39,97,87,-117,29,78,39,9,0,-19,-97
-136,-39,97,87,-117,29,73,43,9,0,-19,-97
-126,-39,87,82,-107,24,68,53,9,0,-19,-107
-112,-34,78,73,-95,21,63,58,14,-4,-19,-122
-97,-24,73,61,-85,24,68,58,19,-4,-19,-107
-87,-9,78,48,-82,34,68,68,19,0,-14,-92
-112,-4,107,58,-109,51,78,73,29,19,-4,-78
-131,0,131,65,-131,65,82,82,39,29,4,-68
-126,4,131,61,-129,68,82,87,48,34,9,-63
-126,0,126,63,-126,63,82,92,48,34,9,-63
-122,4,126,58,-124,65,82,107,58,39,14,-63
-122,9,131,56,-126,70,87,122,68,48,24,-58
-117,14,131,51,-124,73,82,136,73,53,24,-58
-107,19,126,43,-117,73,73,146,73,53,29,-53
-78,34,112,21,-95,73,68,156,78,63,39,-48
-63,34,97,14,-80,65,68,165,73,63,34,-48
-39,48,87,-4,-63,68,87,180,82,68,39,-48
-4,58,63,-26,-34,61,102,195,92,78,43,-39
4,63,58,-34,-26,61,82,209,97,87,48,-29
4,82,78,-43,-36,80,68,229,112,107,68,-19
24,97,73,-61,-24,85,63,234,122,117,87,0
48,112,63,-80,-7,87,53,248,126,122,97,9
68,126,58,-97,4,92,58,268,136,131,112,24
78,136,58,-107,9,97,78,278,141,141,122,29
112,146,34,-129,39,90,73,292,151,156,131,43
141,170,29,-156,56,100,68,302,161,165,146,63
185,204,19,-195,82,112,48,326,161,170,156,78
204,224,19,-214,92,122,29,341,161,180,170,87
234,229,-4,-231,119,112,14,331,161,180,165,87
258,229,-29,-244,143,100,4,322,161,175,161,78
278,229,-48,-253,163,90,-4,317,156,170,170,87
297,219,-78,-258,187,70,-9,312,151,161,170,87
322,244,-78,-283,200,82,-19,307,141,170,170,92
322,258,-63,-290,192,97,-24,297,141,180,175,92
341,258,-82,-300,212,87,-29,283,131,180,175,97
361,253,-107,-307,234,73,-34,263,126,175,165,97
322,244,-78,-283,200,82,-43,239,131,170,165,97
273,239,-34,-256,153,102,-48,224,136,170,161,102
239,214,-24,-226,131,95,-58,200,102,156,156,87
195,190,-4,-192,100,92,-58,180,87,146,146,78
170,200,29,-185,70,114,-48,185,97,146,156,78
136,180,43,-158,46,112,-39,170,92,126,141,63
146,165,19,-156,63,92,-39,131,78,112,131,48
141,151,9,-146,65,80,-39,102,68,102,112,29
122,146,24,-134,48,85,-29,92,63,92,102,19
82,117,34,-100,24,75,-24,73,58,82,92,9
29,107,78,-68,-24,92,-14,68,48,68,82,0
-24,87,112,-31,-68,100,-9,58,39,58,68,-9
-29,82,112,-26,-70,97,0,58,43,53,68,-14
-19,82,102,-31,-61,92,4,39,39,48,58,-19
-29,68,97,-19,-63,82,9,24,29,39,48,-34
-34,48,82,-7,-58,65,9,4,19,29,34,-48
-73,29,102,21,-87,65,14,19,19,24,34,-43
-102,19,122,41,-112,70,14,24,14,29,29,-39
-87,19,107,34,-97,63,14,14,9,19,24,-39
-73,14,87,29,-80,51,19,0,4,14,19,-48
-63,9,73,26,-68,41,14,-9,-9,4,4,-68
-48,4,53,21,-51,29,9,-19,-19,-4,-9,-87
-78,4,82,36,-80,43,9,-9,-9,0,4,-78
-107,0,107,53,-107,53,14,0,0,9,14,-63
-107,-4,102,56,-104,48,14,4,-4,4,9,-68
-107,-4,102,56,-104,48,24,9,-4,4,9,-68
-122,4,126,58,-124,65,39,9,4,19,19,-68
-151,4,156,73,-153,80,48,14,4,24,24,-68
-122,4,126,58,-124,65,39,14,4,19,19,-68
-87,0,87,43,-87,43,29,4,0,14,14,-73
-126,0,126,63,-126,63,14,4,0,19,19,-63
-156,0,156,78,-156,78,0,9,4,34,29,-48
-156,14,170,70,-163,92,24,14,14,39,39,-43
-141,24,165,58,-153,95,48,24,14,43,39,-43
-126,24,151,51,-139,87,48,0,14,43,34,-43
-126,24,151,51,-139,87,53,-9,14,43,34,-43
-141,9,151,65,-146,80,48,-9,14,39,34,-43
-146,4,151,70,-148,78,43,-9,14,39,34,-43
-122,9,131,56,-126,70,29,-9,14,43,34,-48
-97,19,117,39,-107,68,4,-9,19,43,34,-53
-141,19,161,61,-151,90,24,-4,24,48,48,-34
-209,14,224,97,-217,119,48,4,29,53,58,-14
-190,14,204,87,-197,109,53,4,34,63,58,-9
-170,19,190,75,-180,104,53,9,34,63,58,-4
-170,19,190,75,-180,104,53,9,34,58,63,0
-170,24,195,73,-183,109,43,9,34,58,63,4
-170,24,195,73,-183,109,43,9,34,63,68,4
-170,24,195,73,-183,109,43,9,34,63,68,9
-131,24,156,53,-143,90,29,9,19,48,58,-4
-97,24,122,36,-109,73,14,9,9,39,48,-19
-131,29,161,51,-146,95,39,9,24,53,63,-9
-180,34,214,73,-197,124,63,9,34,63,78,0
-180,24,204,78,-192,114,48,0,34,53,78,-4
-165,19,185,73,-175,102,34,-4,34,53,78,-4
-165,24,190,70,-178,107,43,14,29,53,82,0
-175,29,204,73,-190,117,39,29,29,58,82,4
-165,29,195,68,-180,112,39,14,29,58,73,0
-161,29,190,65,-175,109,39,4,29,58,68,0
-161,29,190,65,-175,109,43,14,19,63,68,-4
-146,19,165,63,-156,92,48,4,9,63,68,-14
-156,19,175,68,-165,97,48,14,29,63,68,-14
-161,19,180,70,-170,100,48,24,43,63,68,-4
-175,19,195,78,-185,107,29,24,29,58,63,-4
-156,29,185,63,-170,107,14,24,19,48,58,-9
-156,0,156,78,-156,78,34,9,19,43,53,-19
-165,-14,151,90,-158,68,53,-4,19,43,48,-19
-175,4,180,85,-178,92,53,-4,24,43,48,-14
-175,19,195,78,-185,107,53,-4,24,43,48,-9
-161,29,190,65,-175,109,63,9,34,63,63,-9
-141,39,180,51,-161,109,63,24,39,63,58,-9
-161,24,185,68,-173,104,63,9,29,63,58,-9
-170,9,180,80,-175,95,63,-4,19,58,58,-9
-175,0,175,87,-175,87,53,4,19,58,58,-9
-175,0,175,87,-175,87,48,19,19,58,58,-9
-175,0,175,87,-175,87,39,19,19,58,58,-14
-180,0,180,90,-180,90,29,14,14,48,43,-14
-180,0,180,90,-180,90,29,14,14,48,43,-14
-180,4,185,87,-183,95,34,19,14,53,43,-14
-180,4,185,87,-183,95,39,19,14,53,53,-14
-180,0,180,90,-180,90,39,19,14,53,53,-14
-200,0,200,100,-200,100,43,19,9,53,53,-9
-224,-19,204,122,-214,92,53,14,9,48,48,-14
-180,-9,170,95,-175,80,53,14,9,48,48,-14
-136,19,156,58,-146,87,58,9,9,53,48,-14
-156,4,161,75,-158,82,58,4,19,53,48,-14
-175,-9,165,92,-170,78,58,0,24,48,48,-9
-175,-4,170,90,-173,82,58,9,19,53,48,-4
-185,-4,180,95,-183,87,53,9,19,58,48,0
-185,-4,180,95,-183,87,48,9,19,58,53,0
-185,4,190,90,-187,97,48,9,19,58,58,4
-204,-9,195,107,-200,92,34,9,14,58,58,4
-214,-14,200,114,-207,92,24,14,14,63,63,9
-204,-4,200,104,-202,97,34,9,19,68,63,19
-190,4,195,92,-192,100,43,4,19,68,63,29
-175,0,175,87,-175,87,43,14,14,68,63,9
-161,0,161,80,-161,80,43,4,14,58,63,9
-161,14,175,73,-168,95,43,4,14,63,58,9
-175,14,190,80,-183,102,39,14,19,73,53,9
-185,9,195,87,-190,102,39,14,29,73,58,9
-165,4,170,80,-168,87,39,4,19,68,58,9
-175,4,180,85,-178,92,39,14,19,68,58,14
-175,14,190,80,-183,102,43,24,29,73,68,29
-190,34,224,78,-207,129,43,24,48,87,82,39
-190,63,253,63,-222,158,43,29,68,107,97,53
-214,34,248,90,-231,141,39,34,58,107,87,48
-239,9,248,114,-244,129,34,39,53,107,78,43
-204,43,248,80,-226,146,48,34,58,107,87,48
-175,78,253,48,-214,165,68,29,68,107,97,58
-165,82,248,41,-207,165,68,39,73,117,102,63
-156,87,244,34,-200,165,68,48,78,126,107,68
-156,92,248,31,-202,170,63,48,78,122,107,68
-156,97,253,29,-204,175,48,43,78,117,107,68
-161,102,263,29,-212,183,34,39,78,117,112,73
-156,102,258,26,-207,180,34,29,78,122,117,78
-156,102,258,26,-207,180,19,19,68,122,117,78
-156,102,258,26,-207,180,14,19,63,117,117,78
-146,92,239,26,-192,165,0,9,48,112,112,73
-146,78,224,34,-185,151,-19,-4,29,97,102,68
-146,78,224,34,-185,151,-9,-4,29,97,102,68
-151,68,219,41,-185,143,0,-4,29,97,102,68
-170,53,224,58,-197,139,9,24,34,97,92,63
-190,43,234,73,-212,139,9,39,43,97,92,53
-180,39,219,70,-200,129,9,29,53,97,92,53
-170,29,200,70,-185,114,14,14,43,92,82,48
-175,19,195,78,-185,107,34,14,34,82,78,39
-195,9,204,92,-200,107,53,14,34,82,73,34
-214,-4,209,109,-212,102,68,14,34,82,68,34
-219,-9,209,114,-214,100,78,14,34,68,53,19
-224,-29,195,126,-209,82,68,19,24,63,53,14
-234,-34,200,134,-217,82,58,14,24,58,48,14
-219,-39,180,129,-200,70,53,14,19,48,43,4
-200,-39,161,119,-180,61,48,14,19,43,34,0
-204,-29,175,117,-190,73,48,19,24,48,34,0
-200,-24,175,112,-187,75,53,19,24,48,34,0
-209,-19,190,114,-200,85,68,24,24,53,43,4
-214,-14,200,114,-207,92,82,24,24,58,48,9
-224,-24,200,124,-212,87,73,19,14,53,48,4
-229,-29,200,129,-214,85,82,14,9,53,48,4
-229,-34,195,131,-212,80,78,14,9,48,43,9
-229,-39,190,134,-209,75,68,9,4,43,34,9
-229,-39,190,134,-209,75,73,9,4,43,34,9
-229,-39,190,134,-209,75,73,14,4,43,34,9
-229,-39,190,134,-209,75,78,19,14,53,39,4
-229,-39,190,134,-209,75,82,24,24,58,43,4
-219,-39,180,129,-200,70,82,24,24,58,43,4
-214,-39,175,126,-195,68,78,19,19,48,39,4
-204,-43,161,124,-183,58,73,19,14,39,34,4
-200,-48,151,124,-175,51,73,19,14,34,29,4
-214,-43,170,129,-192,63,87,19,29,43,34,4
-263,-43,219,153,-241,87,112,19,48,53,39,9
-380,-68,312,224,-346,122,141,29,78,63,43,9
-473,-87,385,280,-429,148,180,39,102,78,53,0
-536,-92,444,314,-490,175,263,126,151,117,73,9
-527,-102,424,314,-475,161,336,248,190,146,92,29
-356,-131,224,244,-290,46,322,341,180,146,107,48
-19,-34,-14,26,-2,-24,185,380,170,209,204,170
570,297,-273,-434,422,12,-180,287,131,346,414,429
902,414,-488,-658,695,-36,-478,19,-78,204,322,395
873,161,-712,-517,793,-275,-600,-395,-463,-253,-126,-14
702,-53,-756,-324,729,-405,-649,-800,-727,-551,-405,-273
424,-175,-600,-124,512,-387,-619,-990,-834,-649,-517,-375
268,-234,-502,-17,385,-368,-541,-912,-790,-639,-527,-395
161,-239,-400,39,280,-319,-439,-707,-668,-546,-453,-346
58,-185,-244,63,151,-214,-312,-492,-478,-390,-317,-244
-19,-102,-82,61,31,-92,-180,-312,-297,-239,-185,-131
-122,-68,53,95,-87,-7,-53,-156,-161,-126,-97,-53
-146,-58,87,102,-117,14,9,-73,-92,-78,-58,-29
-151,-19,131,85,-141,56,58,-29,-34,-24,-19,4
-170,-19,151,95,-161,65,92,0,-4,-4,4,19
-195,-24,170,109,-183,73,97,14,0,0,9,24
-200,-24,175,112,-187,75,92,19,14,0,14,24
-219,-39,180,129,-200,70,87,24,24,-4,14,24
-219,-39,180,129,-200,70,82,39,34,4,14,24
-214,-34,180,124,-197,73,78,39,34,9,19,24
-214,-29,185,122,-200,78,97,43,43,19,39,48
-214,-24,190,119,-202,82,122,53,58,34,48,63
-214,-34,180,124,-197,73,126,53,43,29,34,53
-219,-53,165,136,-192,56,131,53,34,19,24,43
-219,-34,185,126,-202,75,131,43,34,19,24,43
-219,-24,195,122,-207,85,126,34,39,19,24,43
-219,-34,185,126,-202,75,117,48,39,24,24,53
-229,-34,195,131,-212,80,107,63,39,24,24,63
-239,-39,200,139,-219,80,97,63,39,14,29,68
-244,-43,200,143,-222,78,87,68,39,9,29,73
-239,-43,195,141,-217,75,87,68,43,9,29,73
-229,-48,180,139,-204,65,92,63,43,4,24,68
-219,-48,170,134,-195,61,92,63,43,4,19,68
-214,-39,175,126,-195,68,92,73,48,9,14,73
-214,-34,180,124,-197,73,92,78,48,14,14,73
-219,-39,180,129,-200,70,87,78,48,14,19,73
-224,-39,185,131,-204,73,97,73,48,14,24,73
-219,-29,190,124,-204,80,102,68,53,14,24,73
-214,-29,185,122,-200,78,102,68,58,14,24,68
-214,-29,185,122,-200,78,107,68,63,14,24,73
-224,-29,195,126,-209,82,122,73,68,19,29,82
-224,-29,195,126,-209,82,126,82,68,29,29,87
-229,-29,200,129,-214,85,131,82,68,29,29,87
-234,-29,204,131,-219,87,131,82,68,29,29,87
-229,-29,200,129,-214,85,131,92,68,34,29,92
-219,-24,195,122,-207,85,131,97,73,34,29,92
-214,-24,190,119,-202,82,131,92,78,34,34,92
-214,-19,195,117,-204,87,126,97,78,39,43,92
-214,-19,195,117,-204,87,126,102,78,48,43,97
-209,-19,190,114,-200,85,122,112,78,48,43,97
-214,-9,204,112,-209,97,112,122,87,53,48,102
-224,-9,214,117,-219,102,102,131,87,53,48,102
-204,-4,200,104,-202,97,112,146,97,58,53,107
-190,0,190,95,-190,95,126,161,107,68,63,117
-185,9,195,87,-190,102,146,175,117,78,68,117
-175,19,195,78,-185,107,161,185,122,82,78,122
-156,34,190,61,-173,112,146,185,131,97,97,131
-151,34,185,58,-168,109,136,185,131,102,102,136
-146,43,190,51,-168,117,131,200,136,102,112,141
-131,48,180,41,-156,114,122,214,141,107,122,156
-107,58,165,24,-136,112,117,234,146,117,126,170
-92,82,175,4,-134,129,117,258,161,136,146,185
-68,102,170,-17,-119,136,112,263,170,156,161,204
-39,122,161,-41,-100,141,102,278,175,170,165,214
-9,136,146,-63,-78,141,82,292,185,170,180,229
9,146,136,-78,-63,141,78,297,190,170,190,234
43,156,112,-100,-34,134,78,312,195,180,200,248
73,180,107,-126,-17,143,78,322,200,185,214,268
107,195,87,-151,9,141,68,336,200,190,219,283
117,195,78,-156,19,136,58,341,200,200,229,292
141,214,73,-178,34,143,48,341,200,209,234,307
161,229,68,-195,46,148,43,341,200,214,239,312
161,239,78,-200,41,158,39,331,200,219,258,322
161,239,78,-200,41,158,39,322,200,219,268,322
209,253,43,-231,82,148,29,317,190,219,253,326
234,258,24,-246,104,141,24,307,190,219,244,326
224,258,34,-241,95,146,19,297,185,219,253,336
214,253,39,-234,87,146,14,283,185,214,253,341
195,244,48,-219,73,146,0,258,180,209,253,336
165,239,73,-202,46,156,-9,244,175,209,248,336
161,229,68,-195,46,148,-19,219,156,195,244,322
146,219,73,-183,36,146,-19,200,156,185,234,312
122,229,107,-175,7,168,-19,195,161,190,234,312
87,209,122,-148,-17,165,-19,170,151,175,209,297
48,180,131,-114,-41,156,-14,146,136,161,200,283
-4,151,156,-73,-80,153,-9,131,126,151,180,263
-9,146,156,-68,-82,151,0,122,117,141,170,248
-34,117,151,-41,-92,134,4,102,107,131,161,234
-63,97,161,-17,-112,129,24,92,97,112,146,214
-92,68,161,12,-126,114,39,78,87,97,126,195
-107,63,170,21,-139,117,53,78,92,92,126,190
-107,63,170,21,-139,117,63,58,87,87,117,185
-122,48,170,36,-146,109,58,53,78,73,107,170
-131,29,161,51,-146,95,48,43,68,58,92,156
-151,4,156,73,-153,80,53,39,63,48,82,141
-161,-9,151,85,-156,70,53,24,53,48,68,126
-161,-9,151,85,-156,70,58,24,48,43,63,141
-161,-14,146,87,-153,65,68,19,43,43,58,146
-165,-4,161,85,-163,78,68,19,43,48,58,146
-165,4,170,80,-168,87,68,19,48,53,58,146
-165,4,170,80,-168,87,58,19,48,48,58,141
-165,0,165,82,-165,82,53,19,48,48,53,141
-165,-9,156,87,-161,73,43,19,39,34,48,131
-165,-14,151,90,-158,68,43,19,34,24,48,126
-165,-4,161,85,-163,78,53,19,43,29,53,126
-180,-4,175,92,-178,85,58,24,43,24,53,126
-170,-9,161,90,-165,75,68,24,43,19,48,122
-156,-19,136,87,-146,58,78,14,39,14,43,112
-165,-19,146,92,-156,63,78,9,34,14,43,112
-165,-19,146,92,-156,63,78,9,34,24,48,117
-170,-9,161,90,-165,75,63,14,43,29,58,122
-161,-4,156,82,-158,75,48,24,43,34,58,122
-161,-4,156,82,-158,75,48,9,48,39,63,126
-175,-4,170,90,-173,82,53,9,53,43,73,131
-195,-14,180,104,-187,82,63,9,53,39,73,131
-204,-14,190,109,-197,87,73,9,53,39,73,131
-195,-14,180,104,-187,82,73,9,48,43,68,131
-185,-9,175,97,-180,82,63,9,48,43,63,131
-175,-9,165,92,-170,78,63,9,48,43,68,131
-190,-14,175,102,-183,80,68,14,48,43,68,131
-165,-14,151,90,-158,68,68,4,53,48,68,131
-141,-9,131,75,-136,61,63,0,53,43,68,131
-141,-9,131,75,-136,61,63,0,53,39,68,131
-141,-4,136,73,-139,65,53,0,53,39,63,131
-141,-4,136,73,-139,65,43,0,53,43,63,122
-141,-4,136,73,-139,65,34,0,53,43,58,117
-117,-4,112,61,-114,53,24,4,43,39,58,117
-97,-4,92,51,-95,43,14,9,39,39,58,117
-117,-4,112,61,-114,53,14,9,43,43,58,117
-151,-4,146,78,-148,70,14,9,43,43,58,117
-165,-9,156,87,-161,73,14,9,43,43,58,117
-165,-9,156,87,-161,73,14,14,43,53,58,122
-146,-9,136,78,-141,63,39,9,39,39,58,122
-136,-9,126,73,-131,58,48,0,39,29,53,122
-131,-19,112,75,-122,46,48,-14,34,24,48,112
-131,-29,102,80,-117,36,48,-24,29,19,48,107
-131,-24,107,78,-119,41,48,0,29,24,43,107
-117,-29,87,73,-102,29,48,4,29,24,39,102
-122,-29,92,75,-107,31,48,4,29,24,39,97
-122,-29,92,75,-107,31,48,4,24,24,39,102
-136,-24,112,80,-124,43,43,-14,14,19,34,102
-117,-9,107,63,-112,48,43,-34,9,9,29,97
-102,-24,78,63,-90,26,34,-34,9,9,29,87
-97,-24,73,61,-85,24,24,-34,9,14,29,87
-107,-24,82,65,-95,29,9,-34,14,9,24,87
-107,-29,78,68,-92,24,-4,-34,14,4,19,87
-112,-43,68,78,-90,12,4,-34,14,14,29,87
-112,-58,53,85,-82,-2,4,-34,9,4,19,87
-102,-34,68,68,-85,17,19,-24,14,14,24,92
-82,-9,73,46,-78,31,34,-14,19,19,29,97
-87,-19,68,53,-78,24,24,-19,19,19,29,97
-87,-19,68,53,-78,24,19,-19,19,19,29,97
-82,-39,43,61,-63,2,9,-24,14,9,24,82
-82,-58,24,70,-53,-17,0,-34,4,-9,4,73
-78,-58,19,68,-48,-19,0,-39,4,-19,0,73
-73,-53,19,63,-46,-17,4,-39,4,-24,-4,73
-73,-39,34,56,-53,-2,19,-39,9,-14,4,73
-73,-29,43,51,-58,7,29,-39,14,-4,4,73
-68,-29,39,48,-53,4,29,-34,9,-4,4,78
-68,-48,19,58,-43,-14,34,-34,9,-9,0,73
-68,-58,9,63,-39,-24,14,-34,0,-9,0,73
-68,-48,19,58,-43,-14,0,-39,-9,-4,0,73
-73,-53,19,63,-46,-17,-9,-39,-4,-4,0,68
-78,-58,19,68,-48,-19,-19,-39,-4,-9,0,68
-78,-73,4,75,-41,-34,0,-48,-9,-14,-4,63
-87,-92,-4,90,-41,-48,14,-68,-9,-19,-9,58
-53,-63,-9,58,-21,-36,19,-58,-9,-19,-9,53
-19,-24,-4,21,-7,-14,29,-48,-9,-19,-9,53
-19,-43,-24,31,2,-34,14,-48,-9,-24,-9,48
-9,-53,-43,31,17,-48,4,-43,-4,-24,-4,48
-24,-53,-29,39,2,-41,4,-43,0,-19,-4,58
-34,-53,-19,43,-7,-36,4,-43,0,-19,-4,68
-34,-53,-19,43,-7,-36,14,-34,0,-9,0,58
-34,-48,-14,41,-9,-31,24,-43,4,-9,4,68
-14,-19,-4,17,-4,-12,24,-48,4,-9,4,68
-9,-4,4,7,-7,0,19,-43,14,-4,9,68
-9,0,9,4,-9,4,14,-39,24,9,19,73
-14,4,19,4,-17,12,14,-39,34,24,34,82
-9,0,9,4,-9,4,9,-34,34,19,34,87
-9,0,9,4,-9,4,9,-29,39,19,39,97
-9,14,24,-2,-17,19,4,-29,39,29,39,97
-9,29,39,-9,-24,34,0,-29,39,39,39,97
4,29,24,-17,-9,26,0,-29,39,34,39,97
9,29,19,-19,-4,24,-9,-34,34,29,39,97
19,34,14,-26,2,24,-24,-39,34,29,39,97
29,34,4,-31,12,19,-24,-48,29,34,39,97
29,39,9,-34,9,24,-43,-58,19,34,39,87
29,43,14,-36,7,29,-53,-58,14,29,39,78
39,39,0,-39,19,19,-53,-68,4,24,34,73
39,29,-9,-34,24,9,-58,-82,-9,9,24,68
53,43,-9,-48,31,17,-53,-82,-9,9,24,82
63,48,-14,-56,39,17,-48,-82,-9,9,24,97
58,24,-34,-41,46,-4,-39,-68,-14,4,14,82
53,4,-48,-29,51,-21,-39,-68,-14,0,14,63
34,-14,-48,-9,41,-31,-43,-63,-9,-4,9,58
14,-39,-53,12,34,-46,-43,-63,-24,-14,-4,48
29,-39,-68,4,48,-53,-39,-68,-34,-24,-9,39
29,-39,-68,4,48,-53,-34,-73,-34,-24,-14,34
14,-53,-68,19,41,-61,-19,-73,-29,-24,-19,34
14,-58,-73,21,43,-65,-9,-73,-24,-39,-34,19
9,-78,-87,34,48,-82,-9,-68,-34,-43,-34,14
0,-82,-82,41,41,-82,-9,-73,-34,-48,-39,14
-4,-87,-82,46,39,-85,-14,-73,-39,-53,-39,9
-4,-87,-82,46,39,-85,-19,-73,-39,-53,-43,9
4,-82,-87,39,46,-85,-19,-73,-39,-53,-48,4
24,-82,-107,29,65,-95,-14,-78,-43,-58,-53,0
19,-87,-107,34,63,-97,-24,-73,-43,-58,-53,0
19,-92,-112,36,65,-102,-34,-73,-43,-58,-58,0
19,-102,-122,41,70,-112,-34,-73,-48,-73,-68,-14
24,-107,-131,41,78,-119,-14,-73,-48,-82,-78,-24
24,-107,-131,41,78,-119,-9,-73,-48,-82,-73,-19
24,-107,-131,41,78,-119,-9,-78,-53,-82,-73,-19
24,-102,-126,39,75,-114,-4,-78,-53,-82,-68,-19
24,-97,-122,36,73,-109,-4,-73,-53,-82,-63,-19
24,-97,-122,36,73,-109,-4,-73,-48,-78,-63,-24
24,-97,-122,36,73,-109,-4,-73,-43,-78,-63,-24
29,-97,-126,34,78,-112,-4,-78,-43,-78,-63,-24
29,-97,-126,34,78,-112,-9,-87,-48,-87,-68,-24
34,-97,-131,31,82,-114,-14,-87,-53,-87,-68,-24
34,-97,-131,31,82,-114,-14,-87,-53,-82,-68,-24
39,-92,-131,26,85,-112,-9,-82,-43,-73,-68,-24
9,-92,-102,41,56,-97,4,-78,-29,-63,-68,-19
-87,-117,-29,102,-29,-73,43,-68,0,-53,-68,-24
-161,-136,24,148,-92,-56,92,-58,24,-39,-63,-39
-248,-146,102,197,-175,-21,180,9,82,-4,-43,-29
-263,-161,102,212,-183,-29,258,112,131,19,-24,-9
-146,-195,-48,170,-48,-122,258,229,136,34,4,9
136,-102,-239,-17,187,-170,136,292,141,112,117,131
707,273,-434,-490,570,-80,-224,219,131,297,380,453
1019,434,-585,-727,802,-75,-517,-29,-48,204,341,483
1034,156,-878,-595,956,-361,-668,-414,-468,-287,-156,34
907,-82,-990,-412,949,-536,-746,-790,-766,-619,-483,-263
624,-229,-854,-197,739,-541,-692,-1015,-897,-751,-619,-400
463,-312,-775,-75,619,-544,-590,-971,-878,-775,-653,-453
370,-302,-673,-34,522,-488,-483,-775,-746,-673,-575,-395
283,-234,-517,-24,400,-375,-351,-570,-546,-507,-434,-283
214,-161,-375,-26,295,-268,-234,-409,-385,-361,-307,-195
122,-136,-258,7,190,-197,-122,-273,-268,-253,-224,-141
97,-126,-224,14,161,-175,-78,-185,-185,-200,-175,-102
92,-87,-180,-2,136,-134,-48,-136,-112,-141,-126,-53
82,-78,-161,-2,122,-119,-14,-97,-78,-107,-92,-34
68,-73,-141,2,104,-107,-9,-73,-68,-87,-78,-24
63,-73,-136,4,100,-104,-9,-73,-58,-82,-73,-24
43,-87,-131,21,87,-109,-9,-73,-53,-82,-73,-24
34,-92,-126,29,80,-109,9,-58,-43,-73,-73,-24
29,-92,-122,31,75,-107,29,-58,-43,-68,-68,-24
29,-87,-117,29,73,-102,19,-53,-43,-68,-58,-14
29,-82,-112,26,70,-97,14,-43,-39,-63,-58,-14
14,-92,-107,39,61,-100,9,-43,-39,-63,-63,-19
-4,-112,-107,58,51,-109,4,-43,-34,-68,-63,-24
14,-102,-117,43,65,-109,4,-43,-39,-78,-68,-24
34,-102,-136,34,85,-119,0,-43,-39,-87,-73,-24
48,-97,-146,24,97,-122,14,-43,-39,-73,-73,-24
53,-82,-136,14,95,-109,29,-43,-39,-63,-73,-24
34,-87,-122,26,78,-104,19,-43,-39,-68,-68,-24
19,-92,-112,36,65,-102,9,-39,-39,-68,-68,-24
24,-92,-117,34,70,-104,9,-39,-34,-68,-68,-24
34,-97,-131,31,82,-114,14,-43,-34,-73,-73,-29
34,-97,-131,31,82,-114,14,-43,-34,-73,-73,-29
29,-87,-117,29,73,-102,14,-34,-29,-68,-73,-24
29,-82,-112,26,70,-97,14,-29,-29,-63,-73,-24
24,-87,-112,31,68,-100,9,-29,-29,-63,-68,-24
24,-87,-112,31,68,-100,9,-29,-19,-63,-58,-14
34,-78,-112,21,73,-95,4,-29,-4,-63,-53,-4
39,-78,-117,19,78,-97,4,-39,-19,-63,-68,-29
39,-78,-117,19,78,-97,9,-48,-34,-63,-82,-43
29,-73,-102,21,65,-87,24,-34,-19,-63,-68,-29
29,-68,-97,19,63,-82,29,-14,-9,-58,-58,-19
29,-68,-97,19,63,-82,29,-14,-9,-58,-58,-19
29,-68,-97,19,63,-82,24,-14,-9,-58,-58,-19
34,-73,-107,19,70,-90,19,-4,-14,-58,-58,-14
43,-73,-117,14,80,-95,14,0,-14,-63,-58,-14
43,-73,-117,14,80,-95,19,0,-9,-63,-58,-14
39,-68,-107,14,73,-87,19,9,-9,-58,-53,-14
43,-63,-107,9,75,-85,29,14,-4,-53,-58,-9
53,-58,-112,2,82,-85,34,24,0,-58,-63,-9
58,-53,-112,-2,85,-82,34,29,4,-53,-58,-4
58,-58,-117,0,87,-87,34,34,0,-53,-58,-4
68,-53,-122,-7,95,-87,34,39,9,-48,-58,-4
73,-48,-122,-12,97,-85,39,43,19,-39,-53,0
78,-43,-122,-17,100,-82,39,58,24,-39,-53,0
87,-39,-126,-24,107,-82,34,68,24,-43,-48,4
107,-24,-131,-41,119,-78,24,78,39,-29,-34,14
112,-24,-136,-43,124,-80,19,87,43,-24,-34,19
112,-4,-117,-53,114,-61,19,102,53,-14,-19,29
122,9,-112,-65,117,-51,14,117,63,0,-4,48
141,19,-122,-80,131,-51,14,131,73,9,0,58
151,43,-107,-97,129,-31,19,151,92,29,19,68
161,53,-107,-107,134,-26,14,156,97,39,29,82
175,63,-112,-119,143,-24,4,170,97,43,29,87
229,78,-151,-153,190,-36,-14,180,107,53,43,102
273,87,-185,-180,229,-48,-19,180,112,63,53,107
297,117,-180,-207,239,-31,-4,204,126,82,73,131
317,161,-156,-239,236,2,9,224,141,97,97,161
346,175,-170,-261,258,2,-4,234,141,102,107,175
351,175,-175,-263,263,0,-19,234,141,112,122,185
366,185,-180,-275,273,2,-29,234,141,117,126,195
375,190,-185,-283,280,2,-34,234,141,117,131,195
405,219,-185,-312,295,17,-43,229,146,126,146,219
434,239,-195,-336,314,21,-48,224,151,131,151,234
463,253,-209,-358,336,21,-68,219,141,131,151,239
468,258,-209,-363,339,24,-82,209,141,131,156,239
468,258,-209,-363,339,24,-107,200,131,131,161,244
468,253,-214,-361,341,19,-131,185,126,126,156,244
458,244,-214,-351,336,14,-126,161,122,122,156,239
439,239,-200,-339,319,19,-117,146,117,122,151,239
419,214,-204,-317,312,4,-107,122,87,107,141,219
390,190,-200,-290,295,-4,-87,102,78,97,126,204
366,200,-165,-283,265,17,-87,107,92,97,126,200
331,180,-151,-256,241,14,-87,92,92,78,102,180
307,151,-156,-229,231,-2,-87,58,68,53,87,161
268,122,-146,-195,207,-12,-87,34,48,34,63,136
253,117,-136,-185,195,-9,-73,19,43,24,53,122
219,87,-131,-153,175,-21,-63,-4,39,14,43,107
200,78,-122,-139,161,-21,-53,-14,29,0,29,92
180,58,-122,-119,151,-31,-48,-29,19,-9,9,78
156,43,-112,-100,134,-34,-43,-24,19,-19,4,68
146,34,-112,-90,129,-39,-43,-39,9,-29,-9,58
136,34,-102,-85,119,-34,-39,-43,0,-39,-19,43
131,29,-102,-80,117,-36,-39,-53,-9,-48,-34,29
112,9,-102,-61,107,-46,-39,-43,-9,-58,-39,24
102,0,-102,-51,102,-51,-43,-43,-14,-58,-48,19
97,-14,-112,-41,104,-63,-43,-43,-19,-68,-53,19
92,-34,-126,-29,109,-80,-39,-48,-24,-73,-58,9
87,-24,-112,-31,100,-68,-39,-53,-24,-68,-58,9
87,-14,-102,-36,95,-58,-39,-58,-19,-63,-58,9
87,-14,-102,-36,95,-58,-43,-63,-24,-68,-58,0
87,-19,-107,-34,97,-63,-43,-68,-29,-68,-63,-4
73,-43,-117,-14,95,-80,-43,-68,-34,-78,-68,-9
58,-63,-122,2,90,-92,-34,-68,-34,-82,-68,-9
68,-39,-107,-14,87,-73,-29,-63,-24,-73,-63,-9
63,-24,-87,-19,75,-56,-29,-53,-24,-73,-63,-9
68,-24,-92,-21,80,-58,-29,-43,-19,-78,-68,0
78,-29,-107,-24,92,-68,-29,-43,-19,-82,-73,4
68,-29,-97,-19,82,-63,-19,-58,-24,-82,-73,-4
68,-29,-97,-19,82,-63,-9,-68,-24,-73,-68,-9
53,-24,-78,-14,65,-51,-29,-63,-19,-73,-63,-4
53,-24,-78,-14,65,-51,-48,-53,-24,-73,-68,-4
53,-34,-87,-9,70,-61,-34,-78,-34,-73,-68,-19
39,-43,-82,2,61,-63,-14,-87,-43,-73,-63,-34
43,-39,-82,-2,63,-61,-14,-73,-34,-78,-63,-24
58,-24,-82,-17,70,-53,-14,-58,-24,-78,-63,-14
58,-19,-78,-19,68,-48,-14,-58,-24,-73,-63,-9
58,-9,-68,-24,63,-39,-24,-58,-19,-73,-63,-4
68,-9,-78,-29,73,-43,-24,-63,-19,-73,-63,-4
53,-14,-68,-19,61,-41,-19,-63,-19,-73,-68,-4
53,-14,-68,-19,61,-41,-14,-68,-14,-68,-68,-4
53,-9,-63,-21,58,-36,-14,-68,-14,-73,-68,-4
53,-9,-63,-21,58,-36,-4,-68,-9,-78,-63,-4
53,-4,-58,-24,56,-31,-4,-68,-4,-78,-63,-4
63,-9,-73,-26,68,-41,-14,-68,-4,-78,-63,-9
73,-14,-87,-29,80,-51,-24,-68,-4,-82,-68,-9
58,-24,-82,-17,70,-53,-34,-68,-14,-92,-73,-9
39,-34,-73,-2,56,-53,-43,-68,-19,-97,-78,-9
48,-24,-73,-12,61,-48,-43,-63,-14,-92,-78,-9
43,-14,-58,-14,51,-36,-43,-58,-14,-92,-78,-9
48,-14,-63,-17,56,-39,-43,-58,-14,-102,-82,-14
68,-9,-78,-29,73,-43,-43,-53,-14,-102,-87,-14
68,-4,-73,-31,70,-39,-29,-53,-19,-107,-82,-19
58,0,-58,-29,58,-29,-29,-58,-19,-107,-82,-24
58,-9,-68,-24,63,-39,-34,-63,-19,-107,-87,-29
53,-19,-73,-17,63,-46,-39,-63,-19,-107,-87,-29
53,-19,-73,-17,63,-46,-39,-53,-19,-102,-87,-29
68,-29,-97,-19,82,-63,-39,-63,-19,-102,-87,-34
58,-29,-87,-14,73,-58,-39,-63,-19,-102,-87,-34
53,-29,-82,-12,68,-56,-39,-63,-24,-102,-87,-24
29,-29,-58,0,43,-43,-43,-63,-29,-107,-92,-24
39,-19,-58,-9,48,-39,-43,-63,-29,-117,-97,-29
58,-29,-87,-14,73,-58,-39,-63,-29,-117,-97,-39
68,-24,-92,-21,80,-58,-34,-63,-29,-112,-97,-39
58,-19,-78,-19,68,-48,-34,-63,-24,-112,-97,-39
58,-19,-78,-19,68,-48,-34,-63,-24,-112,-97,-39
68,-14,-82,-26,75,-48,-24,-63,-24,-102,-87,-39
82,-9,-92,-36,87,-51,-24,-63,-29,-112,-97,-39
82,-9,-92,-36,87,-51,-24,-63,-29,-112,-97,-39
92,-9,-102,-41,97,-56,-24,-63,-29,-117,-97,-39
78,-19,-97,-29,87,-58,-43,-68,-29,-117,-97,-43
68,-19,-87,-24,78,-53,-58,-68,-29,-117,-97,-48
68,-19,-87,-24,78,-53,-48,-68,-29,-117,-87,-53
63,-19,-82,-21,73,-51,-39,-73,-34,-126,-92,-53
63,-24,-87,-19,75,-56,-39,-73,-34,-126,-102,-53
63,-24,-87,-19,75,-56,-34,-68,-34,-122,-112,-53
53,-24,-78,-14,65,-51,-29,-68,-34,-122,-102,-53
43,-29,-73,-7,58,-51,-29,-68,-34,-122,-102,-53
48,-29,-78,-9,63,-53,-29,-68,-39,-122,-102,-48
48,-48,-97,0,73,-73,-24,-73,-39,-126,-107,-53
53,-39,-92,-7,73,-65,-24,-63,-34,-122,-97,-48
58,-9,-68,-24,63,-39,-19,-58,-29,-112,-87,-43
58,-9,-68,-24,63,-39,-19,-58,-19,-102,-82,-39
58,-9,-68,-24,63,-39,-19,-58,-14,-97,-78,-29
48,-14,-63,-17,56,-39,-19,-53,-19,-97,-78,-29
29,-24,-53,-2,41,-39,-24,-58,-19,-97,-78,-29
43,-34,-78,-4,61,-56,-43,-68,-29,-102,-78,-39
58,-34,-92,-12,75,-63,-58,-78,-39,-107,-78,-43
63,-34,-97,-14,80,-65,-48,-78,-39,-107,-78,-48
78,-24,-102,-26,90,-63,-34,-73,-34,-102,-73,-48
63,-29,-92,-17,78,-61,-34,-73,-34,-97,-73,-39
53,-34,-87,-9,70,-61,-34,-73,-39,-97,-73,-29
53,-39,-92,-7,73,-65,-29,-63,-43,-92,-68,-39
53,-39,-92,-7,73,-65,-24,-73,-43,-97,-63,-29
58,-14,-73,-21,65,-43,-24,-73,-39,-87,-58,-24
48,-4,-53,-21,51,-29,-29,-63,-29,-73,-53,-19
48,4,-43,-26,46,-19,-29,-58,-14,-73,-48,-19
78,14,-63,-46,70,-24,-29,-63,-19,-78,-48,-19
63,14,-48,-39,56,-17,-19,-58,-14,-68,-39,-14
58,24,-34,-41,46,-4,-4,-53,0,-48,-19,0
68,39,-29,-53,48,4,-9,-43,9,-39,-9,9
78,58,-19,-68,48,19,-14,-39,19,-34,0,19
68,58,-9,-63,39,24,-14,-34,24,-29,0,19
58,58,0,-58,29,29,-19,-29,29,-29,0,19
58,58,0,-58,29,29,-19,-34,29,-29,0,19
58,58,0,-58,29,29,-19,-39,29,-29,0,19
82,63,-19,-73,51,21,-19,-39,24,-34,0,14
87,68,-19,-78,53,24,-29,-43,19,-34,0,9
92,73,-19,-82,56,26,-43,-48,14,-39,0,9
87,73,-14,-80,51,29,-43,-58,9,-34,0,9
87,78,-9,-82,48,34,-58,-63,9,-29,0,14
87,82,-4,-85,46,39,-63,-58,14,-29,0,19
97,78,-19,-87,58,29,-68,-68,4,-34,-4,14
97,68,-29,-82,63,19,-78,-82,-9,-48,-14,9
97,73,-24,-85,61,24,-87,-78,-9,-48,-14,9
92,68,-24,-80,58,21,-97,-73,-9,-48,-14,9
92,53,-39,-73,65,7,-73,-58,-19,-53,-24,4
92,43,-48,-68,70,-2,-58,-58,-24,-58,-24,-4
87,39,-48,-63,68,-4,-34,-53,-14,-58,-29,-14
82,29,-53,-56,68,-12,-4,-53,-24,-63,-43,-29
78,14,-63,-46,70,-24,-14,-53,-34,-73,-48,-43
58,0,-58,-29,58,-29,-24,-53,-34,-73,-53,-53
34,-19,-53,-7,43,-36,-19,-63,-34,-73,-58,-53
24,-29,-53,2,39,-41,-19,-73,-34,-87,-73,-68
4,-48,-53,21,29,-51,-19,-63,-43,-92,-73,-73
-19,-53,-34,36,7,-43,-19,-63,-43,-97,-78,-73
0,-58,-58,29,29,-58,-19,-63,-48,-102,-78,-78
24,-58,-82,17,53,-70,-19,-63,-48,-102,-82,-78
24,-48,-73,12,48,-61,-29,-58,-43,-92,-82,-78
34,-43,-78,4,56,-61,-34,-58,-43,-87,-82,-78
24,-48,-73,12,48,-61,-34,-53,-43,-87,-87,-82
19,-53,-73,17,46,-63,-34,-53,-43,-87,-97,-87
14,-53,-68,19,41,-61,-39,-58,-58,-102,-97,-92
14,-48,-63,17,39,-56,-24,-63,-68,-112,-97,-92
14,-48,-63,17,39,-56,4,-63,-53,-97,-87,-82
14,-48,-63,17,39,-56,29,-68,-43,-82,-82,-78
29,-34,-63,2,46,-48,14,-68,-43,-82,-82,-73
43,-19,-63,-12,53,-41,-4,-63,-43,-82,-82,-68
24,-34,-58,4,41,-46,-4,-53,-43,-78,-78,-73
4,-48,-53,21,29,-51,-4,-43,-43,-78,-73,-73
9,-48,-58,19,34,-53,-4,-43,-43,-78,-73,-82
9,-48,-58,19,34,-53,-9,-48,-48,-87,-78,-92
9,-63,-73,26,41,-68,-9,-63,-53,-87,-78,-92
4,-78,-82,36,43,-80,-4,-78,-53,-82,-78,-92
-9,-63,-53,36,21,-58,9,-73,-39,-73,-73,-92
-58,-53,4,56,-31,-24,34,-68,-19,-63,-68,-87
-165,-78,87,122,-126,4,53,-58,9,-53,-73,-87
-248,-97,151,173,-200,26,82,-48,34,-39,-73,-97
-278,-92,185,185,-231,46,165,29,82,4,-34,-78
-234,-92,141,163,-187,24,239,141,122,39,4,-48
-39,-82,-43,61,2,-63,195,229,102,58,39,-9
322,53,-268,-187,295,-107,29,263,82,141,156,131
844,292,-551,-568,697,-129,-312,151,-9,190,273,292
1107,317,-790,-712,949,-236,-585,-136,-273,-39,87,161
1078,48,-1029,-563,1054,-490,-712,-497,-639,-463,-351,-234
907,-180,-1088,-363,997,-634,-766,-849,-883,-727,-619,-478
668,-253,-922,-207,795,-588,-712,-995,-946,-790,-678,-546
551,-263,-814,-143,683,-539,-610,-873,-858,-746,-634,-531
424,-239,-663,-92,544,-451,-473,-683,-712,-619,-536,-453
302,-156,-458,-73,380,-307,-312,-483,-497,-429,-375,-322
204,-102,-307,-51,256,-204,-190,-336,-341,-297,-258,-234
82,-97,-180,7,131,-139,-73,-214,-229,-204,-185,-180
58,-87,-146,14,102,-117,-43,-131,-156,-156,-146,-156
53,-48,-102,-2,78,-75,-29,-87,-92,-102,-107,-122
34,-48,-82,7,58,-65,4,-58,-63,-78,-82,-112
9,-53,-63,21,36,-58,9,-43,-58,-68,-78,-112
-4,-53,-48,29,21,-51,14,-48,-48,-63,-73,-112
-34,-68,-34,51,0,-51,19,-53,-43,-63,-73,-112
-34,-58,-24,46,-4,-41,34,-39,-34,-43,-68,-107
-29,-43,-14,36,-7,-29,48,-39,-34,-29,-58,-102
-24,-39,-14,31,-4,-26,39,-29,-34,-29,-48,-92
-19,-34,-14,26,-2,-24,34,-14,-29,-24,-48,-92
-19,-39,-19,29,0,-29,39,-14,-29,-19,-48,-92
-24,-53,-29,39,2,-41,43,-14,-24,-19,-43,-92
-24,-43,-19,34,-2,-31,24,-14,-24,-19,-43,-92
-24,-43,-19,34,-2,-31,0,-14,-19,-19,-43,-92
-14,-48,-34,31,9,-41,24,-14,-19,-14,-43,-92
-14,-43,-29,29,7,-36,48,-14,-19,-14,-43,-92
-19,-39,-19,29,0,-29,48,-14,-19,-19,-39,-87
-19,-34,-14,26,-2,-24,48,-9,-19,-19,-39,-82
-29,-39,-9,34,-9,-24,48,-9,-14,-19,-39,-82
-34,-48,-14,41,-9,-31,53,-14,-14,-24,-43,-87
-34,-63,-29,48,-2,-46,34,-14,-14,-34,-53,-97
-39,-68,-29,53,-4,-48,14,-4,-9,-39,-63,-102
-24,-53,-29,39,2,-41,24,0,-9,-34,-63,-102
-14,-48,-34,31,9,-41,29,0,-9,-34,-58,-102
-34,-48,-14,41,-9,-31,43,0,-9,-29,-53,-97
-43,-39,4,41,-24,-17,53,0,-4,-24,-53,-92
-39,-39,0,39,-19,-19,53,4,-4,-24,-53,-102
-39,-39,0,39,-19,-19,58,9,-4,-24,-53,-102
-24,-19,4,21,-14,-7,68,14,9,-24,-48,-97
0,0,0,0,0,0,68,24,19,-19,-48,-97
-14,-9,4,12,-9,-2,48,24,19,-19,-48,-102
-29,-19,9,24,-19,-4,24,24,19,-19,-48,-107
-43,-48,-4,46,-19,-26,24,24,9,-24,-58,-112
-53,-73,-19,63,-17,-46,24,19,4,-34,-68,-122
-39,-58,-19,48,-9,-39,43,19,9,-34,-68,-112
-29,-39,-9,34,-9,-24,58,29,9,-29,-63,-102
-29,-24,4,26,-17,-9,63,39,19,-14,-48,-92
-24,-9,14,17,-19,2,63,53,29,-9,-34,-87
-19,4,24,7,-21,14,73,73,43,4,-24,-78
-19,9,29,4,-24,19,82,92,48,14,-19,-73
14,29,14,-21,0,21,82,97,58,19,-14,-73
43,48,4,-46,19,26,87,102,68,29,-4,-68
24,29,4,-26,9,17,82,117,73,29,-9,-68
9,9,0,-9,4,4,73,126,73,24,-9,-63
34,24,-9,-29,21,7,68,141,82,39,4,-53
43,24,-19,-34,31,2,68,156,82,43,4,-48
39,39,0,-39,19,19,68,170,92,53,14,-43
43,48,4,-46,19,26,63,185,102,68,24,-29
82,63,-19,-73,51,21,53,195,107,78,29,-19
112,92,-19,-102,65,36,48,209,122,97,48,-9
126,107,-19,-117,73,43,63,214,126,112,68,9
146,122,-24,-134,85,48,73,229,126,122,78,19
170,136,-34,-153,102,51,53,248,136,131,92,34
185,146,-39,-165,112,53,48,258,141,141,102,39
229,156,-73,-192,151,41,39,273,146,156,107,43
268,180,-87,-224,178,46,29,283,151,165,117,53
278,185,-92,-231,185,46,14,292,151,170,126,68
263,175,-87,-219,175,43,0,292,151,180,141,78
307,219,-87,-263,197,65,-4,297,156,200,156,97
346,258,-87,-302,217,85,-4,302,161,214,170,107
370,258,-112,-314,241,73,-14,297,161,209,180,117
395,248,-146,-322,270,51,-19,292,161,200,180,117
419,263,-156,-341,287,53,-43,287,151,200,180,122
419,268,-151,-344,285,58,-63,278,151,200,185,122
409,268,-141,-339,275,63,-68,263,141,200,185,126
400,263,-136,-331,268,63,-73,244,136,195,175,126
380,248,-131,-314,256,58,-68,209,122,190,170,112
351,239,-112,-295,231,63,-58,185,107,190,161,102
341,229,-112,-285,226,58,-58,161,87,175,156,87
322,219,-102,-270,212,58,-48,141,87,165,146,78
273,200,-73,-236,173,63,-48,136,87,165,136,73
214,151,-63,-183,139,43,-48,112,73,146,102,53
214,151,-63,-183,139,43,-68,87,73,131,102,48
200,151,-48,-175,124,51,-87,73,78,122,92,39
180,146,-34,-163,107,56,-58,63,63,112,82,29
141,117,-24,-129,82,46,-34,43,48,102,73,19
102,92,-9,-97,56,41,-14,24,39,87,58,0
63,58,-4,-61,34,26,0,0,29,78,39,-19
73,73,0,-73,36,36,-9,19,39,73,39,-24
97,92,-4,-95,51,43,-24,19,39,68,29,-29
58,63,4,-61,26,34,-19,4,19,53,14,-43
24,29,4,-26,9,17,-19,-14,0,39,-4,-58
14,9,-4,-12,9,2,-9,-14,0,29,-9,-63
14,0,-14,-7,14,-7,-4,-24,-4,29,-19,-68
9,4,-4,-7,7,0,-4,-19,-4,24,-24,-68
4,4,0,-4,2,2,0,-19,-4,24,-29,-78
-14,4,19,4,-17,12,-14,-19,-4,24,-29,-78
-29,4,34,12,-31,19,-29,-19,0,24,-29,-78
0,4,4,-2,-2,4,-29,-24,-4,14,-29,-82
29,0,-29,-14,29,-14,-24,-29,-9,9,-34,-82
14,0,-14,-7,14,-7,4,-29,-14,4,-34,-82
0,4,4,-2,-2,4,43,-29,-14,4,-29,-78
0,14,14,-7,-7,14,43,-29,-4,14,-24,-78
-14,14,29,0,-21,21,39,-24,-4,14,-24,-78
-19,0,19,9,-19,9,14,-29,-9,9,-29,-78
-19,-19,0,19,-9,-9,-9,-43,-19,4,-34,-82
-48,-34,14,41,-31,-9,-9,-48,-24,4,-34,-82
-68,-48,19,58,-43,-14,-9,-48,-24,14,-29,-78
-58,-24,34,41,-46,4,-9,-29,-9,24,-19,-73
-34,-4,29,19,-31,12,-9,-4,-4,34,-19,-73
-34,-4,29,19,-31,12,-9,-29,-4,34,-19,-73
-48,-4,43,26,-46,19,-4,-39,-4,34,-14,-73
-34,-9,24,21,-29,7,-4,-39,-4,29,-14,-73
-9,-4,4,7,-7,0,-4,-39,-4,29,-14,-73
-19,0,19,9,-19,9,14,-39,-4,34,-9,-63
-29,9,39,9,-34,24,24,-39,0,34,-4,-53
-29,9,39,9,-34,24,24,-39,4,34,4,-53
-53,4,58,24,-56,31,29,-34,9,34,9,-53
-24,19,43,2,-34,31,29,-34,14,43,9,-48
4,39,34,-21,-14,36,24,-29,14,43,9,-43
-14,24,39,-4,-26,31,14,-29,14,39,9,-43
-34,14,48,9,-41,31,-4,-29,14,39,4,-43
-34,14,48,9,-41,31,-4,-29,14,43,4,-43
-34,14,48,9,-41,31,-4,-29,14,43,0,-39
-39,14,53,12,-46,34,-14,-29,9,39,0,-39
-48,14,63,17,-56,39,-24,-29,9,39,0,-39
-39,14,53,12,-46,34,-9,-29,14,43,0,-39
-43,14,58,14,-51,36,4,-29,14,43,0,-39
-43,19,63,12,-53,41,14,-29,14,34,0,-43
-29,29,58,0,-43,43,24,-24,14,34,0,-43
-39,14,53,12,-46,34,24,-19,4,29,0,-43
-58,0,58,29,-58,29,9,-19,0,29,-4,-43
-58,-19,39,39,-48,9,-9,-29,0,19,-9,-58
-63,-39,24,51,-43,-7,-29,-34,0,9,-9,-68
-43,-4,39,24,-41,17,-14,-24,0,24,0,-53
-9,19,29,-4,-19,24,0,-34,0,34,9,-43
-4,39,43,-17,-24,41,14,-29,4,34,9,-43
4,58,53,-31,-24,56,29,-24,4,34,9,-34
-43,19,63,12,-53,41,4,-24,0,29,4,-34
-58,-9,48,34,-53,19,-14,-24,0,19,0,-39
-29,4,34,12,-31,19,4,-24,0,29,0,-48
-9,34,43,-12,-26,39,24,-24,0,43,0,-48
-19,19,39,0,-29,29,14,-34,-4,29,-4,-48
-19,0,19,9,-19,9,4,-43,-14,14,-9,-48
-43,-14,29,29,-36,7,14,-43,-4,24,0,-48
-63,-29,34,46,-48,2,14,-43,0,14,-9,-48
-58,-9,48,34,-53,19,4,-39,0,24,-9,-48
-43,9,53,17,-48,31,-4,-34,0,29,-9,-48
-48,-14,34,31,-41,9,-14,-39,0,14,-9,-48
-48,-29,19,39,-34,-4,-19,-39,0,0,-9,-48
-34,-9,24,21,-29,7,-19,-34,0,14,4,-53
-24,9,34,7,-29,21,-19,-34,-4,19,4,-53
-24,14,39,4,-31,26,0,-34,0,19,4,-48
-24,24,48,0,-36,36,24,-29,4,24,4,-43
-24,24,48,0,-36,36,29,-29,4,24,9,-43
-24,19,43,2,-34,31,29,-29,4,24,4,-43
-48,-4,43,26,-46,19,9,-39,-4,19,-9,-43
-78,-48,29,63,-53,-9,-4,-53,-9,9,-29,-53
-63,-29,34,46,-48,2,-4,-34,-9,9,-14,-43
-48,9,58,19,-53,34,0,-19,-9,14,0,-34
-58,-4,53,31,-56,24,0,-34,-9,14,-9,-48
-68,-19,48,43,-58,14,0,-48,-14,9,-19,-58
-68,-24,43,46,-56,9,4,-39,-19,9,-19,-58
-78,-34,43,56,-61,4,4,-39,-19,9,-19,-58
-48,-9,39,29,-43,14,0,-29,-4,19,-14,-48
-19,24,43,-2,-31,34,0,-19,9,29,-9,-34
-29,9,39,9,-34,24,0,-29,0,19,-9,-43
-29,4,34,12,-31,19,4,-34,-4,14,-4,-48
-63,-14,48,39,-56,17,14,-34,0,19,-4,-48
-92,-34,58,63,-75,12,24,-34,0,19,-4,-48
-73,-29,43,51,-58,7,24,-24,-4,24,-4,-53
-53,-19,34,36,-43,7,24,-34,-4,19,-4,-39
-53,-4,48,29,-51,21,9,-34,-4,19,-4,-39
-68,-4,63,36,-65,29,-9,-24,0,24,-4,-39
-68,4,73,31,-70,39,-9,-24,9,24,0,-39
-39,14,53,12,-46,34,-9,-34,0,19,0,-39
-48,4,53,21,-51,29,9,-34,-4,14,-4,-39
-48,4,53,21,-51,29,34,-34,0,14,0,-29
-53,-14,39,34,-46,12,24,-34,-4,9,0,-34
-53,-34,19,43,-36,-7,14,-34,-9,4,0,-39
-39,0,39,19,-39,19,14,-29,-9,14,0,-34
-39,9,48,14,-43,29,14,-29,0,14,0,-34
-53,0,53,26,-53,26,14,-34,-14,9,-9,-43
-48,-9,39,29,-43,14,19,-39,-19,14,-14,-53
-53,-24,29,39,-41,2,14,-29,-19,4,-14,-53
-58,-39,19,48,-39,-9,9,-19,-19,0,-19,-58
-58,-4,53,31,-56,24,9,-14,4,24,0,-43
-58,29,87,14,-73,58,9,-9,29,48,19,-29
-48,39,87,4,-68,63,4,-9,29,48,19,-24
-39,48,87,-4,-63,68,0,-9,29,48,19,-19
-53,29,82,12,-68,56,0,-19,19,39,19,-19
-68,9,78,29,-73,43,0,-29,9,29,19,-19
-68,19,87,24,-78,53,14,-19,24,39,24,-19
-68,29,97,19,-82,63,29,-9,39,48,29,-19
-48,58,107,-4,-78,82,29,-4,43,53,34,-9
-29,87,117,-29,-73,102,29,0,48,58,39,0
-9,87,97,-39,-53,92,24,0,48,53,39,0
-4,87,92,-41,-48,90,9,0,48,53,39,4
-4,92,97,-43,-51,95,-4,-4,48,53,43,9
-9,92,102,-41,-56,97,-4,-9,48,63,48,19
-14,102,117,-43,-65,109,-24,-19,48,63,48,19
-19,112,131,-46,-75,122,-34,-19,53,58,48,19
-14,92,107,-39,-61,100,-34,-34,34,53,43,14
-19,68,87,-24,-53,78,-39,-53,9,39,34,9
-19,68,87,-24,-53,78,-43,-53,9,39,34,9
-24,58,82,-17,-53,70,-48,-53,9,39,34,9
-24,34,58,-4,-41,46,-53,-39,-4,34,14,-4
