I,II,III,aVR,aVL,aVF,V1,V2,V3,V4,V5,V6,
0,-107,-107,53,53,-107,19,19,-39,-48,-68,-78
0,-107,-107,53,53,-107,19,19,-39,-48,-68,-78
0,-107,-107,53,53,-107,19,19,-39,-48,-68,-78
0,-107,-107,53,53,-107,19,19,-39,-48,-68,-78
0,-97,-97,48,48,-97,19,19,-39,-48,-68,-78
0,-97,-97,48,48,-97,19,19,-39,-48,-68,-78
0,-97,-97,48,48,-97,19,19,-39,-48,-68,-78
0,-97,-97,48,48,-97,19,19,-39,-48,-68,-78
0,-107,-107,53,53,-107,19,19,-39,-48,-68,-78
0,-107,-107,53,53,-107,19,19,-39,-48,-68,-78
0,-107,-107,53,53,-107,19,19,-39,-48,-68,-78
0,-107,-107,53,53,-107,19,19,-39,-48,-68,-78
0,-107,-107,53,53,-107,19,19,-39,-58,-78,-78
0,-107,-107,53,53,-107,19,19,-39,-58,-78,-78
0,-107,-107,53,53,-107,19,19,-39,-58,-78,-78
0,-107,-107,53,53,-107,19,19,-39,-58,-78,-78
0,-107,-107,53,53,-107,19,19,-39,-58,-78,-78
0,-107,-107,53,53,-107,19,19,-39,-58,-78,-78
0,-107,-107,53,53,-107,19,19,-39,-58,-78,-78
0,-107,-107,53,53,-107,19,19,-39,-58,-78,-78
0,-97,-97,48,48,-97,29,19,-39,-58,-68,-68
0,-97,-97,48,48,-97,29,19,-39,-58,-68,-68
0,-97,-97,48,48,-97,29,19,-39,-58,-68,-68
0,-97,-97,48,48,-97,29,19,-39,-58,-68,-68
9,-87,-97,39,53,-92,29,19,-29,-53,-58,-58
9,-87,-97,39,53,-92,29,19,-29,-48,-58,-58
9,-87,-97,39,53,-92,29,19,-29,-43,-58,-58
9,-87,-97,39,53,-92,29,19,-29,-39,-58,-58
19,-82,-102,31,61,-92,39,19,-24,-29,-48,-48
19,-78,-97,29,58,-87,39,19,-19,-29,-48,-48
19,-73,-92,26,56,-82,39,19,-14,-29,-48,-48
19,-68,-87,24,53,-78,39,19,-9,-29,-48,-48
29,-63,-92,17,61,-78,39,29,-4,-19,-39,-48
29,-58,-87,14,58,-73,39,29,0,-19,-39,-48
29,-53,-82,12,56,-68,39,29,4,-19,-39,-48
29,-48,-78,9,53,-63,39,29,9,-19,-39,-48
29,-43,-73,7,51,-58,48,39,19,-14,-34,-43
29,-39,-68,4,48,-53,48,39,19,-9,-29,-39
29,-34,-63,2,46,-48,48,39,19,-4,-24,-34
29,-29,-58,0,43,-43,48,39,19,0,-19,-29
29,-19,-48,-4,39,-34,39,48,29,9,-19,-29
29,-19,-48,-4,39,-34,39,48,29,9,-19,-29
29,-19,-48,-4,39,-34,39,48,29,9,-19,-29
29,-19,-48,-4,39,-34,39,48,29,9,-19,-29
39,-19,-58,-9,48,-39,34,48,39,9,-9,-29
39,-19,-58,-9,48,-39,29,48,39,9,-9,-29
39,-19,-58,-9,48,-39,24,48,39,9,-9,-29
39,-19,-58,-9,48,-39,19,48,39,9,-9,-29
48,-9,-58,-19,53,-34,14,39,39,9,0,-19
48,-9,-58,-19,53,-34,9,39,39,9,0,-19
48,-9,-58,-19,53,-34,4,39,39,9,0,-19
48,-9,-58,-19,53,-34,0,39,39,9,0,-19
48,0,-48,-24,48,-24,-14,29,29,19,0,-19
48,0,-48,-24,48,-24,-19,29,29,19,0,-19
48,0,-48,-24,48,-24,-24,29,29,19,0,-19
48,0,-48,-24,48,-24,-29,29,29,19,0,-19
39,-9,-48,-14,43,-29,-39,24,19,19,-9,-19
39,-9,-48,-14,43,-29,-39,19,19,19,-9,-19
39,-9,-48,-14,43,-29,-39,14,19,19,-9,-19
39,-9,-48,-14,43,-29,-39,9,19,14,-9,-19
29,-14,-43,-7,36,-29,-39,9,19,9,-9,-24
29,-19,-48,-4,39,-34,-39,9,14,9,-9,-24
24,-19,-43,-2,34,-31,-39,9,14,9,-14,-24
24,-19,-43,-2,34,-31,-39,9,14,9,-14,-24
24,-19,-43,-2,34,-31,-39,14,4,-4,-29,-24
24,-29,-53,2,39,-41,-34,14,4,-9,-29,-24
24,-29,-53,2,39,-41,-34,14,0,-9,-29,-29
24,-34,-58,4,41,-46,-34,14,-4,-14,-34,-29
24,-43,-68,9,46,-56,-19,19,-4,-29,-34,-29
24,-43,-68,9,46,-56,-19,19,-9,-29,-34,-29
24,-43,-68,9,46,-56,-19,19,-9,-34,-34,-34
24,-43,-68,9,46,-56,-19,19,-14,-34,-34,-34
34,-43,-78,4,56,-61,-24,19,-14,-34,-39,-34
34,-43,-78,4,56,-61,-24,19,-19,-34,-39,-34
34,-48,-82,7,58,-65,-24,19,-19,-39,-39,-34
34,-48,-82,7,58,-65,-24,19,-24,-39,-39,-34
24,-48,-73,12,48,-61,-24,9,-29,-39,-29,-34
24,-48,-73,12,48,-61,-24,9,-29,-39,-29,-34
24,-53,-78,14,51,-65,-24,9,-29,-43,-29,-34
19,-58,-78,19,48,-68,-19,4,-29,-43,-34,-39
19,-53,-73,17,46,-63,-9,14,-29,-34,-34,-39
19,-58,-78,19,48,-68,-9,14,-29,-34,-34,-39
14,-58,-73,21,43,-65,-9,14,-34,-43,-34,-39
14,-63,-78,24,46,-70,0,14,-39,-43,-43,-43
14,-73,-87,29,51,-80,0,19,-39,-48,-43,-43
9,-78,-87,34,48,-82,0,19,-39,-48,-48,-53
4,-87,-92,41,48,-90,9,19,-43,-53,-53,-58
4,-92,-97,43,51,-95,9,19,-43,-53,-53,-63
9,-102,-112,46,61,-107,14,14,-43,-53,-63,-68
9,-112,-122,51,65,-117,19,14,-43,-58,-68,-68
4,-117,-122,56,63,-119,24,14,-43,-58,-68,-68
0,-122,-122,61,61,-122,29,19,-48,-63,-78,-78
0,-126,-126,63,63,-126,29,19,-58,-63,-73,-78
0,-131,-131,65,65,-131,34,19,-58,-68,-73,-78
0,-136,-136,68,68,-136,34,19,-58,-68,-73,-78
0,-141,-141,70,70,-141,34,24,-58,-68,-73,-82
-14,-136,-122,75,53,-129,24,24,-48,-68,-82,-82
-14,-136,-122,75,53,-129,24,24,-53,-68,-82,-82
-14,-136,-122,75,53,-129,24,24,-53,-68,-82,-82
-19,-136,-117,78,48,-126,29,24,-53,-68,-87,-87
-9,-136,-126,73,58,-131,29,24,-53,-82,-87,-87
-9,-136,-126,73,58,-131,29,24,-53,-82,-87,-87
-9,-136,-126,73,58,-131,29,24,-53,-82,-87,-87
-9,-136,-126,73,58,-131,29,24,-53,-82,-87,-87
-9,-136,-126,73,58,-131,29,34,-53,-82,-87,-87
-9,-136,-126,73,58,-131,29,34,-53,-82,-87,-87
-9,-136,-126,73,58,-131,29,34,-53,-82,-87,-92
-9,-136,-126,73,58,-131,29,34,-53,-82,-87,-92
-9,-136,-126,73,58,-131,29,34,-53,-73,-87,-92
-9,-136,-126,73,58,-131,29,34,-53,-73,-87,-92
-9,-136,-126,73,58,-131,29,34,-53,-73,-87,-87
-9,-136,-126,73,58,-131,34,34,-53,-73,-87,-87
-19,-146,-126,82,53,-136,34,29,-53,-73,-78,-78
-19,-146,-126,82,53,-136,34,29,-53,-73,-78,-78
-19,-146,-126,82,53,-136,34,29,-53,-73,-78,-78
-19,-146,-126,82,53,-136,34,29,-53,-73,-78,-78
-19,-146,-126,82,53,-136,34,29,-53,-73,-78,-78
-19,-146,-126,82,53,-136,34,29,-53,-73,-78,-78
-19,-146,-126,82,53,-136,34,29,-53,-73,-78,-78
-19,-146,-126,82,53,-136,34,29,-53,-73,-78,-78
-9,-136,-126,73,58,-131,34,29,-53,-63,-68,-78
-9,-136,-126,73,58,-131,34,29,-53,-63,-68,-78
-9,-136,-126,73,58,-131,34,29,-53,-63,-68,-78
-9,-131,-122,70,56,-126,34,29,-53,-63,-68,-78
-4,-131,-126,68,61,-129,34,39,-53,-73,-68,-78
-4,-131,-126,68,61,-129,34,39,-53,-73,-68,-78
-4,-131,-126,68,61,-129,34,39,-48,-73,-68,-78
-4,-131,-126,68,61,-129,34,39,-48,-73,-68,-78
-14,-136,-122,75,53,-129,34,39,-48,-58,-63,-78
-14,-136,-122,75,53,-129,34,39,-48,-58,-63,-78
-14,-136,-122,75,53,-129,34,39,-48,-58,-63,-78
-14,-136,-122,75,53,-129,34,39,-48,-58,-63,-78
-4,-126,-122,65,58,-124,43,39,-39,-68,-63,-63
-4,-126,-122,65,58,-124,34,39,-39,-58,-63,-73
-4,-126,-122,65,58,-124,39,39,-48,-68,-63,-73
4,-126,-131,61,68,-129,39,34,-48,-68,-73,-73
0,-122,-122,61,61,-122,34,43,-39,-58,-53,-73
9,-97,-107,43,58,-102,34,48,-24,-34,-43,-58
14,-68,-82,26,48,-75,39,58,14,4,-9,-43
39,-29,-68,-4,53,-48,39,73,43,39,29,-19
48,19,-29,-34,39,-4,29,82,82,78,58,9
73,68,-4,-70,39,31,9,87,112,112,92,29
97,112,14,-104,41,63,-4,97,141,161,131,58
107,151,43,-129,31,97,-39,78,161,190,170,82
126,204,78,-165,24,141,-73,63,170,229,224,107
151,253,102,-202,24,178,-117,43,175,273,268,136
180,322,141,-251,19,231,-165,24,195,317,326,180
209,424,214,-317,-2,319,-248,-19,214,375,409,253
248,551,302,-400,-26,427,-341,-68,224,448,507,331
287,673,385,-480,-48,529,-444,-122,224,502,595,419
331,780,448,-556,-58,614,-536,-170,214,551,683,497
375,922,546,-649,-85,734,-649,-239,195,595,780,590
444,1078,634,-761,-95,856,-775,-322,146,639,883,707
507,1254,746,-880,-119,1000,-927,-419,92,673,990,829
561,1420,858,-990,-148,1139,-1073,-507,39,717,1102,951
629,1595,966,-1112,-168,1281,-1190,-590,9,771,1220,1088
692,1751,1058,-1222,-183,1405,-1317,-668,-19,810,1327,1200
756,1903,1146,-1329,-195,1525,-1434,-732,-63,839,1420,1307
819,2059,1239,-1439,-209,1649,-1551,-814,-117,849,1507,1424
873,2210,1337,-1542,-231,1773,-1673,-897,-185,858,1586,1537
936,2337,1400,-1637,-231,1869,-1766,-956,-268,839,1649,1634
1015,2386,1371,-1700,-178,1878,-1859,-966,-385,775,1659,1688
1112,2381,1268,-1747,-78,1825,-1922,-946,-546,673,1620,1698
1229,2313,1083,-1771,73,1698,-1976,-902,-727,531,1556,1673
1342,2161,819,-1751,261,1490,-2005,-810,-922,341,1429,1590
1429,1956,527,-1693,451,1241,-1991,-736,-1132,122,1254,1468
1503,1712,209,-1607,646,961,-1961,-653,-1332,-112,1049,1317
1556,1459,-97,-1507,827,680,-1917,-580,-1507,-356,810,1156
1537,1185,-351,-1361,944,417,-1834,-531,-1654,-575,566,980
1429,868,-561,-1149,995,153,-1683,-483,-1742,-780,312,771
1263,536,-727,-900,995,-95,-1468,-458,-1781,-961,48,580
1019,292,-727,-656,873,-217,-1249,-478,-1722,-1054,-126,448
722,180,-541,-451,631,-180,-1044,-546,-1551,-1000,-190,414
473,219,-253,-346,363,-17,-854,-600,-1278,-854,-141,448
326,312,-14,-319,170,148,-702,-580,-1005,-649,-43,492
278,375,97,-326,90,236,-595,-517,-790,-488,24,507
258,405,146,-331,56,275,-527,-458,-658,-385,73,497
219,395,175,-307,21,285,-453,-395,-546,-317,97,478
175,351,175,-263,0,263,-366,-317,-434,-268,97,424
122,278,156,-200,-17,217,-278,-239,-351,-224,63,361
78,180,102,-129,-12,141,-185,-165,-273,-180,29,273
39,112,73,-75,-17,92,-117,-122,-204,-161,-9,170
9,43,34,-26,-12,39,-53,-82,-151,-141,-39,102
-24,-29,-4,26,-9,-17,4,-53,-107,-107,-68,29
-43,-68,-24,56,-9,-46,53,-24,-87,-107,-68,-19
-58,-102,-43,80,-7,-73,87,0,-73,-92,-63,-34
-78,-126,-48,102,-14,-87,107,24,-58,-82,-63,-58
-78,-136,-58,107,-9,-97,112,39,-43,-82,-63,-58
-82,-161,-78,122,-2,-119,122,58,-39,-82,-82,-63
-82,-170,-87,126,2,-129,131,53,-39,-82,-102,-82
-78,-175,-97,126,9,-136,126,43,-39,-92,-117,-87
-78,-175,-97,126,9,-136,126,48,-43,-87,-117,-117
-78,-175,-97,126,9,-136,126,48,-43,-87,-102,-117
-78,-165,-87,122,4,-126,126,48,-43,-78,-87,-107
-87,-165,-78,126,-4,-122,126,53,-43,-78,-73,-92
-78,-156,-78,117,0,-117,117,58,-43,-78,-73,-82
-78,-156,-78,117,0,-117,117,63,-34,-78,-78,-73
-78,-165,-87,122,4,-126,122,63,-24,-78,-97,-92
-68,-170,-102,119,17,-136,122,63,-24,-78,-107,-107
-63,-170,-107,117,21,-139,122,53,-29,-78,-126,-117
-63,-170,-107,117,21,-139,122,53,-29,-68,-117,-126
-63,-161,-97,112,17,-129,122,48,-29,-63,-97,-117
-73,-161,-87,117,7,-124,122,48,-29,-63,-78,-97
-87,-156,-68,122,-9,-112,122,63,-24,-63,-78,-87
-87,-156,-68,122,-9,-112,122,63,-24,-63,-82,-78
-82,-165,-82,124,0,-124,122,68,-14,-63,-102,-78
-78,-170,-92,124,7,-131,122,68,-14,-68,-112,-112
-73,-170,-97,122,12,-134,122,58,-14,-68,-117,-107
-68,-170,-102,119,17,-136,122,58,-14,-68,-117,-117
-68,-161,-92,114,12,-126,117,58,-14,-68,-92,-117
-73,-156,-82,114,4,-119,117,58,-14,-58,-82,-87
-82,-146,-63,114,-9,-104,117,68,-14,-58,-63,-82
-87,-146,-58,117,-14,-102,117,68,-14,-58,-63,-73
-87,-146,-58,117,-14,-102,122,68,-4,-58,-78,-63
-87,-151,-63,119,-12,-107,122,68,-4,-58,-92,-82
-78,-151,-73,114,-2,-112,122,58,-14,-58,-112,-97
-73,-161,-87,117,7,-124,122,58,-14,-58,-112,-107
-73,-151,-78,112,2,-114,117,53,-14,-58,-97,-117
-73,-141,-68,107,-2,-104,117,53,-19,-53,-92,-97
-68,-136,-68,102,0,-102,117,53,-19,-53,-73,-92
-73,-131,-58,102,-7,-95,117,63,-19,-63,-73,-78
-73,-131,-58,102,-7,-95,117,68,-14,-63,-78,-78
-73,-141,-68,107,-2,-104,122,68,-14,-63,-87,-82
-82,-146,-63,114,-9,-104,122,63,-14,-68,-102,-102
-73,-146,-73,109,0,-109,117,63,-9,-68,-112,-112
-68,-141,-73,104,2,-107,117,63,-9,-58,-102,-122
-68,-131,-63,100,-2,-97,117,58,-9,-53,-82,-107
-73,-136,-63,104,-4,-100,117,68,0,-48,-63,-87
-82,-131,-48,107,-17,-90,117,68,0,-48,-63,-78
-82,-131,-48,107,-17,-90,117,73,0,-48,-63,-68
-82,-136,-53,109,-14,-95,117,73,4,-48,-82,-68
-78,-136,-58,107,-9,-97,117,63,0,-58,-92,-97
-78,-141,-63,109,-7,-102,117,63,0,-58,-92,-102
-73,-141,-68,107,-2,-104,112,58,0,-53,-92,-102
-73,-131,-58,102,-7,-95,112,58,-4,-53,-68,-102
-82,-131,-48,107,-17,-90,112,58,-4,-34,-58,-78
-82,-131,-48,107,-17,-90,112,58,-4,-34,-48,-68
-78,-122,-43,100,-17,-82,112,63,-4,-34,-48,-58
-78,-122,-43,100,-17,-82,112,63,4,-34,-58,-58
-68,-112,-43,90,-12,-78,112,63,14,-34,-78,-73
-68,-122,-53,95,-7,-87,112,63,14,-39,-92,-82
-68,-122,-53,95,-7,-87,112,63,14,-39,-92,-92
-68,-117,-48,92,-9,-82,112,58,14,-29,-78,-92
-68,-107,-39,87,-14,-73,107,58,9,-19,-63,-82
-73,-102,-29,87,-21,-65,107,58,9,-19,-39,-68
-73,-102,-29,87,-21,-65,107,58,9,-19,-39,-53
-73,-102,-29,87,-21,-65,107,58,14,-19,-48,-43
-73,-107,-34,90,-19,-70,107,63,14,-19,-58,-58
-63,-107,-43,85,-9,-75,107,63,14,-29,-73,-73
-63,-102,-39,82,-12,-70,107,63,14,-19,-73,-82
-63,-102,-39,82,-12,-70,107,63,14,-9,-68,-92
-73,-92,-19,82,-26,-56,102,58,14,-9,-48,-78
-73,-87,-14,80,-29,-51,102,58,14,0,-29,-58
-78,-82,-4,80,-36,-43,102,58,14,0,-24,-48
-78,-82,-4,80,-36,-43,102,58,14,0,-24,-39
-68,-92,-24,80,-21,-58,102,63,24,0,-39,-39
-63,-92,-29,78,-17,-61,102,63,29,0,-39,-63
-63,-92,-29,78,-17,-61,102,63,34,0,-53,-63
-63,-92,-29,78,-17,-61,102,63,34,9,-43,-78
-73,-82,-9,78,-31,-46,102,63,29,9,-24,-78
-73,-78,-4,75,-34,-41,102,58,29,14,-14,-53
-78,-73,4,75,-41,-34,102,58,29,14,0,-43
-78,-73,4,75,-41,-34,102,63,29,9,0,-34
-68,-63,4,65,-36,-29,92,63,39,9,-24,-24
-63,-63,0,63,-31,-31,92,68,48,9,-34,-43
-58,-63,-4,61,-26,-34,92,68,53,9,-43,-48
-58,-63,-4,61,-26,-34,92,68,53,9,-43,-63
-58,-53,4,56,-31,-24,92,68,43,19,-29,-63
-58,-48,9,53,-34,-19,92,63,43,24,-14,-48
-63,-43,19,53,-41,-12,87,63,43,29,4,-34
-68,-39,29,53,-48,-4,87,63,43,29,4,-19
-78,-39,39,58,-58,0,87,63,58,34,9,-9
-73,-43,29,58,-51,-7,92,68,63,34,0,-19
-73,-43,29,58,-51,-7,92,68,68,34,-4,-39
-73,-43,29,58,-51,-7,92,63,73,34,-4,-39
-63,-34,29,48,-46,-2,92,63,63,43,4,-39
-58,-19,39,39,-48,9,87,58,63,48,19,-39
-58,-14,43,36,-51,14,87,58,63,53,29,-14
-68,-14,53,41,-61,19,87,58,63,53,39,-4
-78,-19,58,48,-68,19,92,58,73,53,29,9
-78,-19,58,48,-68,19,92,63,82,53,19,9
-78,-14,63,46,-70,24,92,63,87,53,14,-14
-73,-14,58,43,-65,21,92,63,92,53,9,-24
-63,-24,39,43,-51,7,92,63,92,58,0,-34
-63,-9,53,36,-58,21,92,58,92,58,19,-34
-73,-4,68,39,-70,31,92,58,92,68,29,-9
-78,0,78,39,-78,39,97,58,97,68,39,0
-82,4,87,39,-85,46,97,58,102,78,48,14
-82,4,87,39,-85,46,97,63,112,78,43,24
-78,4,82,36,-80,43,97,63,117,82,34,4
-78,0,78,39,-78,39,97,63,117,82,19,0
-73,0,73,36,-73,36,97,58,117,73,24,-14
-73,9,82,31,-78,46,97,58,117,82,34,-14
-73,19,92,26,-82,56,97,58,117,87,43,0
-82,24,107,29,-95,65,102,58,122,92,58,14
-87,29,117,29,-102,73,102,58,126,102,68,34
-87,29,117,29,-102,73,102,58,131,102,63,34
-87,29,117,29,-102,73,102,58,136,102,53,29
-87,29,117,29,-102,73,107,58,141,102,43,19
-87,39,126,24,-107,82,107,48,156,107,34,14
-87,39,126,24,-107,82,107,48,161,117,43,14
-92,58,151,17,-122,104,107,43,161,122,58,14
-97,58,156,19,-126,107,112,43,161,126,68,39
-92,63,156,14,-124,109,112,53,170,122,87,39
-92,63,156,14,-124,109,112,53,175,122,78,48
-92,58,151,17,-122,104,112,53,180,122,68,39
-92,58,151,17,-122,104,112,53,185,122,63,29
-102,58,161,21,-131,109,102,39,180,122,43,24
-102,58,161,21,-131,109,112,39,185,126,43,9
-102,68,170,17,-136,119,112,34,185,126,58,9
-107,73,180,17,-143,126,117,34,185,136,68,34
-112,78,190,17,-151,134,117,43,200,141,82,43
-117,78,195,19,-156,136,126,43,209,141,82,53
-122,78,200,21,-161,139,131,43,214,141,68,53
-122,73,195,24,-158,134,131,43,219,141,63,39
-131,73,204,29,-168,139,131,43,224,141,58,24
-131,73,204,29,-168,139,131,43,224,151,58,19
-141,73,214,34,-178,143,131,34,224,151,63,19
-146,82,229,31,-187,156,141,34,229,151,73,29
-141,97,239,21,-190,168,136,34,229,161,87,48
-146,97,244,24,-195,170,141,39,239,161,97,58
-151,97,248,26,-200,173,146,39,244,161,87,58
-156,87,244,34,-200,165,151,39,248,161,78,53
-161,78,239,41,-200,158,151,39,253,156,63,34
-161,78,239,41,-200,158,151,34,253,156,58,19
-161,78,239,41,-200,158,151,34,253,161,58,19
-170,82,253,43,-212,168,151,29,253,161,73,19
-185,92,278,46,-231,185,151,29,253,161,78,39
-190,92,283,48,-236,187,161,29,263,165,92,48
-195,92,287,51,-241,190,165,29,268,165,82,58
-200,92,292,53,-246,192,170,29,273,165,73,48
-200,87,287,56,-244,187,170,29,278,165,78,34
-200,82,283,58,-241,183,170,29,278,165,63,24
-204,82,287,61,-246,185,180,19,278,165,63,19
-209,82,292,63,-251,187,180,19,278,165,78,19
-214,82,297,65,-256,190,180,14,278,175,82,34
-219,82,302,68,-261,192,180,14,278,180,82,34
-234,82,317,75,-275,200,180,14,287,180,82,39
-239,73,312,82,-275,192,190,19,287,180,73,39
-229,58,287,85,-258,173,200,19,287,161,53,29
-224,58,283,82,-253,170,200,19,287,161,43,14
-224,48,273,87,-248,161,209,14,287,161,34,4
-224,48,273,87,-248,161,209,9,287,161,43,-4
-234,48,283,92,-258,165,209,9,273,161,43,4
-239,43,283,97,-261,163,209,9,273,161,53,14
-239,43,283,97,-261,163,209,9,273,156,53,19
-239,39,278,100,-258,158,209,9,268,151,43,19
-244,14,258,114,-251,136,209,9,278,131,19,0
-244,9,253,117,-248,131,209,9,268,122,0,-24
-244,0,244,122,-244,122,214,9,263,117,-9,-29
-239,-9,229,124,-234,109,214,9,263,112,-9,-43
-248,-9,239,129,-244,114,214,4,248,117,-4,-43
-248,-19,229,134,-239,104,214,4,244,112,-4,-39
-253,-19,234,136,-244,107,214,4,239,112,-4,-39
-253,-24,229,139,-241,102,214,4,234,107,-14,-39
-258,-48,209,153,-234,80,219,4,239,102,-29,-43
-258,-53,204,156,-231,75,219,4,234,92,-39,-58
-258,-63,195,161,-226,65,219,4,229,92,-48,-68
-258,-73,185,165,-222,56,219,4,224,87,-53,-78
-248,-87,161,168,-204,36,219,0,214,82,-53,-87
-248,-87,161,168,-204,36,214,0,204,78,-53,-78
-244,-92,151,168,-197,29,214,0,195,73,-53,-78
-244,-97,146,170,-195,24,214,0,185,68,-53,-73
-244,-107,136,175,-190,14,204,0,185,63,-63,-73
-234,-117,117,175,-175,0,204,0,180,58,-73,-82
-229,-122,107,175,-168,-7,195,0,175,43,-82,-97
-219,-131,87,175,-153,-21,190,0,165,43,-92,-117
-229,-131,97,180,-163,-17,195,-4,156,39,-92,-107
-229,-136,92,183,-161,-21,185,-4,146,34,-87,-102
-229,-141,87,185,-158,-26,180,-4,141,29,-82,-97
-229,-141,87,185,-158,-26,175,-4,131,24,-82,-97
-229,-141,87,185,-158,-26,170,4,131,19,-87,-92
-219,-151,68,185,-143,-41,170,4,126,14,-102,-102
-214,-156,58,185,-136,-48,165,4,122,9,-112,-107
-209,-161,48,185,-129,-56,161,4,117,9,-112,-112
-214,-161,53,187,-134,-53,156,4,112,4,-122,-131
-200,-161,39,180,-119,-61,146,4,97,0,-107,-131
-190,-161,29,175,-109,-65,136,4,87,-4,-102,-122
-190,-156,34,173,-112,-61,136,4,82,-4,-102,-117
-175,-165,9,170,-92,-78,131,4,82,-14,-102,-102
-165,-175,-9,170,-78,-92,126,9,78,-14,-107,-102
-161,-175,-14,168,-73,-95,122,9,73,-19,-112,-112
-156,-175,-19,165,-68,-97,117,9,68,-19,-122,-117
-141,-165,-24,153,-58,-95,112,4,63,-19,-122,-122
-131,-161,-29,146,-51,-95,107,4,58,-19,-112,-122
-126,-151,-24,139,-51,-87,97,9,53,-19,-102,-102
-117,-146,-29,131,-43,-87,92,9,53,-19,-87,-102
-112,-141,-29,126,-41,-85,87,9,48,-19,-87,-87
-102,-141,-39,122,-31,-90,82,9,48,-24,-102,-87
-97,-146,-48,122,-24,-97,73,9,39,-29,-107,-102
-92,-146,-53,119,-19,-100,68,9,39,-29,-107,-102
-87,-151,-63,119,-12,-107,73,9,39,-19,-107,-102
-82,-141,-58,112,-12,-100,68,4,34,-19,-97,-112
-78,-136,-58,107,-9,-97,63,4,29,-19,-92,-97
-78,-131,-53,104,-12,-92,58,9,19,-19,-87,-87
-78,-122,-43,100,-17,-82,53,9,19,-29,-78,-82
-78,-122,-43,100,-17,-82,53,9,24,-29,-78,-73
-68,-122,-53,95,-7,-87,48,9,24,-29,-87,-82
-58,-122,-63,90,2,-92,43,9,14,-29,-92,-92
-63,-122,-58,92,-2,-90,39,9,14,-29,-82,-87
-58,-122,-63,90,2,-92,34,9,9,-29,-82,-87
-53,-107,-53,80,0,-80,29,4,4,-29,-73,-87
-53,-107,-53,80,0,-80,29,4,4,-29,-68,-73
-53,-102,-48,78,-2,-75,34,9,14,-19,-53,-68
-48,-102,-53,75,2,-78,29,9,14,-19,-53,-53
-43,-102,-58,73,7,-80,29,9,14,-19,-68,-53
-39,-102,-63,70,12,-82,24,14,14,-24,-68,-63
-34,-97,-63,65,14,-80,24,14,14,-24,-68,-53
-24,-97,-73,61,24,-85,19,9,14,-24,-68,-53
-24,-87,-63,56,19,-75,14,9,4,-19,-53,-53
-24,-82,-58,53,17,-70,14,9,4,-19,-53,-53
-14,-73,-58,43,21,-65,14,9,4,-9,-48,-53
-14,-68,-53,41,19,-61,14,9,4,-9,-48,-53
-14,-68,-53,41,19,-61,14,9,4,-9,-43,-43
-14,-68,-53,41,19,-61,14,9,0,-9,-43,-43
-24,-68,-43,46,9,-56,14,19,0,-19,-48,-43
-24,-68,-43,46,9,-56,9,19,0,-14,-48,-43
-24,-68,-43,46,9,-56,9,19,0,-14,-48,-43
-19,-68,-48,43,14,-58,9,19,0,-14,-48,-43
-19,-68,-48,43,14,-58,9,19,0,-14,-48,-53
-19,-68,-48,43,14,-58,9,19,0,-14,-48,-53
-19,-68,-48,43,14,-58,9,19,0,-14,-48,-53
-19,-68,-48,43,14,-58,9,19,0,-14,-48,-48
-19,-68,-48,43,14,-58,9,19,0,-14,-48,-39
-19,-68,-48,43,14,-58,9,19,0,-14,-48,-39
-19,-68,-48,43,14,-58,9,19,0,-14,-48,-34
-19,-63,-43,41,12,-53,9,19,0,-14,-48,-34
-19,-63,-43,41,12,-53,9,9,0,-14,-48,-43
-19,-63,-43,41,12,-53,9,9,0,-14,-48,-48
-19,-63,-43,41,12,-53,9,9,0,-14,-48,-48
-24,-63,-39,43,7,-51,9,9,0,-14,-43,-48
-14,-63,-48,39,17,-56,9,9,0,-14,-34,-39
-9,-63,-53,36,21,-58,9,9,0,-14,-34,-39
-9,-68,-58,39,24,-63,9,9,0,-14,-34,-39
-9,-68,-58,39,24,-63,9,9,0,-14,-34,-39
-14,-58,-43,36,14,-51,9,9,0,-14,-39,-48
-14,-58,-43,36,14,-51,9,9,0,-14,-39,-48
-14,-58,-43,36,14,-51,9,9,0,-19,-39,-48
-19,-63,-43,41,12,-53,9,9,0,-19,-39,-48
-19,-53,-34,36,7,-43,14,9,0,-9,-39,-39
-19,-53,-34,36,7,-43,14,9,0,-9,-39,-39
-19,-53,-34,36,7,-43,14,9,0,-9,-39,-39
-19,-58,-39,39,9,-48,14,9,0,-9,-39,-39
-19,-58,-39,39,9,-48,19,9,9,-9,-39,-39
-19,-58,-39,39,9,-48,19,9,9,-9,-43,-43
-24,-58,-34,41,4,-46,19,9,9,-9,-43,-43
-24,-58,-34,41,4,-46,19,9,9,-9,-43,-43
-24,-58,-34,41,4,-46,24,9,9,-9,-43,-43
-29,-58,-29,43,0,-43,24,14,9,-9,-43,-43
-29,-63,-34,46,2,-48,24,14,9,-9,-43,-43
-29,-63,-34,46,2,-48,24,14,9,-9,-43,-43
-29,-68,-39,48,4,-53,29,14,9,-9,-43,-43
-29,-68,-39,48,4,-53,29,14,9,-14,-43,-53
-29,-68,-39,48,4,-53,29,14,9,-14,-48,-53
-29,-68,-39,48,4,-53,29,14,9,-14,-48,-48
-39,-78,-39,58,0,-58,29,14,0,-24,-58,-48
-43,-78,-34,61,-4,-56,29,14,0,-24,-58,-48
-43,-82,-39,63,-2,-61,29,14,0,-24,-58,-48
-48,-82,-34,65,-7,-58,34,14,0,-24,-58,-48
-39,-92,-53,65,7,-73,34,14,0,-34,-68,-53
-39,-92,-53,65,7,-73,39,14,0,-34,-68,-58
-39,-92,-53,65,7,-73,39,14,0,-39,-63,-58
-39,-92,-53,65,7,-73,39,14,0,-39,-63,-58
-39,-92,-53,65,7,-73,34,14,0,-29,-53,-58
-39,-92,-53,65,7,-73,34,14,0,-34,-53,-58
-39,-97,-58,68,9,-78,34,14,0,-34,-53,-58
-39,-102,-63,70,12,-82,39,14,0,-34,-58,-58
-39,-92,-53,65,7,-73,39,14,0,-34,-58,-58
-43,-92,-48,68,2,-70,39,14,0,-34,-63,-63
-43,-92,-48,68,2,-70,39,14,0,-34,-63,-63
-43,-92,-48,68,2,-70,39,14,0,-34,-63,-63
-43,-97,-53,70,4,-75,39,14,0,-34,-63,-63
-43,-97,-53,70,4,-75,39,14,0,-39,-63,-63
-43,-97,-53,70,4,-75,43,19,0,-39,-63,-63
-43,-97,-53,70,4,-75,43,19,0,-39,-63,-63
-43,-97,-53,70,4,-75,43,19,-4,-39,-63,-63
-43,-97,-53,70,4,-75,43,19,-4,-39,-63,-68
-43,-102,-58,73,7,-80,43,19,-4,-39,-68,-68
-43,-102,-58,73,7,-80,39,19,-4,-43,-68,-73
-34,-102,-68,68,17,-85,39,19,-14,-43,-68,-73
-34,-102,-68,68,17,-85,39,19,-14,-43,-68,-73
-34,-107,-73,70,19,-90,39,19,-14,-43,-68,-73
-34,-107,-73,70,19,-90,39,19,-14,-43,-73,-73
-34,-107,-73,70,19,-90,39,19,-14,-43,-73,-73
-34,-107,-73,70,19,-90,39,19,-14,-43,-73,-73
-34,-107,-73,70,19,-90,39,19,-14,-48,-73,-73
-34,-112,-78,73,21,-95,39,19,-14,-48,-73,-78
-34,-112,-78,73,21,-95,39,19,-19,-39,-73,-78
-34,-112,-78,73,21,-95,39,19,-19,-39,-73,-78
-34,-112,-78,73,21,-95,39,19,-19,-39,-73,-78
-34,-112,-78,73,21,-95,39,19,-19,-39,-73,-78
-34,-112,-78,73,21,-95,39,19,-19,-39,-78,-78
-34,-112,-78,73,21,-95,39,19,-19,-39,-78,-78
-34,-112,-78,73,21,-95,39,19,-24,-39,-78,-78
-34,-112,-78,73,21,-95,39,19,-24,-39,-78,-78
-43,-112,-68,78,12,-90,39,19,-14,-39,-78,-78
-43,-112,-68,78,12,-90,39,19,-14,-39,-78,-78
-43,-112,-68,78,12,-90,39,19,-14,-39,-78,-78
-43,-112,-68,78,12,-90,39,19,-14,-43,-78,-78
-39,-112,-73,75,17,-92,39,19,-24,-43,-78,-78
-39,-112,-73,75,17,-92,39,19,-24,-43,-78,-78
-39,-112,-73,75,17,-92,39,19,-24,-43,-78,-78
-39,-112,-73,75,17,-92,39,19,-24,-43,-78,-78
-39,-112,-73,75,17,-92,39,19,-24,-43,-78,-78
-39,-112,-73,75,17,-92,39,19,-24,-43,-78,-78
-39,-112,-73,75,17,-92,34,19,-29,-43,-78,-78
-39,-112,-73,75,17,-92,34,19,-29,-43,-78,-78
-29,-102,-73,65,21,-87,34,19,-29,-43,-78,-78
-29,-102,-73,65,21,-87,34,19,-29,-43,-78,-78
-24,-102,-78,63,26,-90,34,19,-29,-43,-78,-78
-24,-102,-78,63,26,-90,34,19,-29,-43,-78,-78
-24,-112,-87,68,31,-100,34,19,-29,-53,-78,-78
-24,-112,-87,68,31,-100,34,19,-29,-53,-78,-78
-24,-112,-87,68,31,-100,34,19,-29,-53,-78,-78
-19,-112,-92,65,36,-102,34,19,-29,-53,-78,-78
-29,-112,-82,70,26,-97,34,19,-29,-43,-68,-78
-29,-112,-82,70,26,-97,34,19,-29,-43,-68,-78
-29,-112,-82,70,26,-97,34,19,-29,-43,-68,-78
-29,-112,-82,70,26,-97,34,19,-29,-43,-68,-78
-29,-112,-82,70,26,-97,34,19,-19,-43,-68,-78
-29,-107,-78,68,24,-92,29,19,-29,-48,-68,-78
-29,-107,-78,68,24,-92,29,19,-29,-48,-68,-78
-29,-107,-78,68,24,-92,29,19,-29,-48,-68,-78
-29,-107,-78,68,24,-92,29,19,-29,-48,-68,-78
-29,-107,-78,68,24,-92,29,19,-29,-48,-68,-78
-19,-97,-78,58,29,-87,29,9,-29,-48,-68,-68
-19,-97,-78,58,29,-87,29,9,-29,-48,-68,-68
-19,-97,-78,58,29,-87,29,9,-29,-48,-68,-68
-19,-97,-78,58,29,-87,29,9,-29,-48,-68,-68
-19,-97,-78,58,29,-87,29,9,-29,-48,-68,-68
-19,-97,-78,58,29,-87,29,9,-29,-48,-68,-68
-19,-97,-78,58,29,-87,29,9,-29,-48,-68,-68
-19,-97,-78,58,29,-87,29,9,-29,-48,-68,-68
-9,-97,-87,53,39,-92,29,19,-29,-48,-68,-68
-9,-97,-87,53,39,-92,29,19,-29,-48,-68,-68
-9,-97,-87,53,39,-92,29,19,-29,-48,-68,-68
-9,-97,-87,53,39,-92,29,19,-29,-48,-68,-68
0,-97,-97,48,48,-97,29,19,-29,-48,-68,-68
0,-97,-97,48,48,-97,29,19,-29,-48,-68,-68
0,-97,-97,48,48,-97,29,19,-29,-48,-68,-68
0,-97,-97,48,48,-97,29,19,-29,-48,-68,-68
0,-87,-87,43,43,-87,19,19,-29,-48,-58,-68
0,-87,-87,43,43,-87,19,19,-29,-48,-58,-68
0,-87,-87,43,43,-87,19,19,-29,-48,-58,-68
0,-87,-87,43,43,-87,19,19,-29,-48,-58,-68
0,-87,-87,43,43,-87,19,19,-29,-48,-58,-68
0,-87,-87,43,43,-87,19,19,-29,-48,-58,-68
0,-87,-87,43,43,-87,19,19,-29,-48,-58,-68
0,-87,-87,43,43,-87,19,19,-29,-48,-58,-68
0,-97,-97,48,48,-97,19,9,-29,-48,-68,-68
0,-97,-97,48,48,-97,19,9,-29,-48,-68,-68
0,-97,-97,48,48,-97,19,9,-29,-48,-68,-68
0,-97,-97,48,48,-97,19,9,-29,-48,-68,-68
0,-97,-97,48,48,-97,19,9,-29,-48,-68,-68
0,-97,-97,48,48,-97,19,9,-29,-48,-68,-68
0,-97,-97,48,48,-97,19,9,-29,-48,-68,-68
0,-97,-97,48,48,-97,19,9,-29,-48,-68,-68
0,-97,-97,48,48,-97,19,9,-29,-48,-68,-68
0,-97,-97,48,48,-97,19,9,-29,-48,-68,-68
0,-97,-97,48,48,-97,19,9,-29,-48,-68,-68
0,-97,-97,48,48,-97,19,9,-29,-48,-68,-68
0,-87,-87,43,43,-87,19,9,-29,-48,-68,-68
0,-87,-87,43,43,-87,19,9,-29,-48,-68,-68
0,-87,-87,43,43,-87,19,9,-29,-48,-68,-68
0,-87,-87,43,43,-87,19,9,-29,-48,-68,-68
-9,-97,-87,53,39,-92,19,19,-29,-39,-58,-58
-9,-97,-87,53,39,-92,19,19,-29,-39,-58,-58
-9,-97,-87,53,39,-92,19,19,-29,-39,-58,-58
-9,-97,-87,53,39,-92,19,19,-29,-39,-58,-58
0,-97,-97,48,48,-97,19,19,-29,-39,-58,-58
0,-97,-97,48,48,-97,19,19,-29,-39,-58,-58
0,-97,-97,48,48,-97,19,19,-29,-39,-58,-58
0,-97,-97,48,48,-97,19,19,-29,-39,-58,-58
0,-87,-87,43,43,-87,19,19,-29,-39,-58,-58
0,-87,-87,43,43,-87,19,19,-29,-39,-58,-58
0,-87,-87,43,43,-87,19,19,-29,-39,-58,-58
0,-87,-87,43,43,-87,19,19,-29,-39,-58,-58
0,-87,-87,43,43,-87,19,19,-29,-39,-58,-58
0,-87,-87,43,43,-87,19,19,-29,-39,-58,-58
0,-87,-87,43,43,-87,19,19,-29,-39,-58,-58
0,-87,-87,43,43,-87,19,19,-29,-39,-58,-58
0,-87,-87,43,43,-87,19,19,-29,-39,-48,-58
0,-87,-87,43,43,-87,19,19,-29,-39,-48,-58
0,-87,-87,43,43,-87,19,19,-29,-39,-48,-58
0,-87,-87,43,43,-87,19,19,-29,-39,-48,-58
0,-87,-87,43,43,-87,19,19,-19,-29,-48,-58
0,-87,-87,43,43,-87,19,19,-19,-29,-48,-58
0,-87,-87,43,43,-87,19,19,-19,-29,-48,-58
0,-87,-87,43,43,-87,19,19,-19,-29,-48,-58
0,-78,-78,39,39,-78,29,19,-19,-29,-39,-48
0,-78,-78,39,39,-78,29,19,-19,-29,-39,-48
0,-78,-78,39,39,-78,29,19,-19,-29,-39,-48
0,-78,-78,39,39,-78,29,19,-19,-29,-39,-48
9,-73,-82,31,46,-78,29,19,-9,-19,-39,-48
9,-68,-78,29,43,-73,29,19,-9,-19,-39,-48
9,-63,-73,26,41,-68,29,19,-9,-19,-39,-48
9,-58,-68,24,39,-63,29,19,-9,-19,-39,-48
9,-53,-63,21,36,-58,39,19,-4,-14,-34,-39
9,-48,-58,19,34,-53,39,19,0,-9,-29,-39
9,-43,-53,17,31,-48,39,19,4,-4,-24,-39
9,-39,-48,14,29,-43,39,19,9,0,-19,-39
14,-29,-43,7,29,-36,39,19,19,9,-19,-29
19,-29,-48,4,34,-39,39,19,19,9,-19,-29
24,-29,-53,2,39,-41,39,19,19,9,-19,-29
29,-29,-58,0,43,-43,39,19,19,9,-19,-29
29,-24,-53,-2,41,-39,29,29,29,19,-14,-19
29,-19,-48,-4,39,-34,29,29,29,19,-9,-19
29,-14,-43,-7,36,-29,29,29,29,19,-4,-19
29,-9,-39,-9,34,-24,29,29,29,19,0,-19
39,0,-39,-19,39,-19,24,29,39,29,0,-19
39,0,-39,-19,39,-19,19,29,39,29,0,-19
39,0,-39,-19,39,-19,14,29,39,29,0,-19
39,0,-39,-19,39,-19,9,29,39,29,0,-19
39,9,-29,-24,34,-9,-4,19,39,29,9,-14
39,9,-29,-24,34,-9,-9,19,39,29,9,-9
39,9,-29,-24,34,-9,-14,19,39,29,9,-4
39,9,-29,-24,34,-9,-19,19,39,29,9,0
39,9,-29,-24,34,-9,-24,9,39,19,9,0
39,9,-29,-24,34,-9,-29,9,39,19,9,0
39,9,-29,-24,34,-9,-34,9,39,19,9,0
39,9,-29,-24,34,-9,-39,9,39,19,9,0
29,0,-29,-14,29,-14,-48,0,29,19,0,0
29,0,-29,-14,29,-14,-48,0,29,19,0,0
29,0,-29,-14,29,-14,-48,0,29,19,0,0
29,0,-29,-14,29,-14,-48,0,29,19,0,0
29,-9,-39,-9,34,-24,-48,-4,24,4,-4,-9
29,-14,-43,-7,36,-29,-48,-9,19,0,-9,-14
29,-19,-48,-4,39,-34,-48,-14,9,0,-14,-14
24,-19,-43,-2,34,-31,-48,-19,4,0,-24,-14
34,-19,-53,-7,43,-36,-48,-9,4,0,-14,-14
34,-19,-53,-7,43,-36,-48,-14,-4,-4,-19,-14
34,-29,-63,-2,48,-46,-43,-14,-4,-9,-19,-14
34,-29,-63,-2,48,-46,-43,-14,-9,-9,-19,-19
34,-34,-68,0,51,-51,-34,-4,-4,-14,-34,-29
34,-34,-68,0,51,-51,-29,0,-4,-19,-34,-29
34,-34,-68,0,51,-51,-29,0,-9,-19,-34,-29
34,-34,-68,0,51,-51,-29,0,-9,-24,-34,-34
34,-34,-68,0,51,-51,-39,0,-14,-24,-24,-24
34,-34,-68,0,51,-51,-34,0,-14,-24,-29,-24
34,-34,-68,0,51,-51,-34,0,-19,-24,-29,-24
34,-39,-73,2,53,-56,-34,0,-19,-29,-29,-24
34,-39,-73,2,53,-56,-34,0,-14,-29,-39,-24
34,-39,-73,2,53,-56,-34,0,-19,-29,-39,-24
34,-39,-73,2,53,-56,-34,0,-19,-29,-39,-24
34,-43,-78,4,56,-61,-34,0,-19,-34,-39,-24
19,-48,-68,14,43,-58,-29,-4,-29,-34,-34,-29
19,-53,-73,17,46,-63,-29,-4,-29,-34,-34,-29
19,-58,-78,19,48,-68,-29,-4,-29,-34,-34,-29
14,-58,-73,21,43,-65,-29,-4,-34,-43,-34,-29
14,-63,-78,24,46,-70,-19,-4,-29,-34,-43,-43
14,-63,-78,24,46,-70,-19,0,-29,-39,-43,-43
9,-68,-78,29,43,-73,-19,0,-29,-39,-48,-53
4,-78,-82,36,43,-80,-9,0,-34,-43,-53,-58
4,-82,-87,39,46,-85,0,9,-34,-43,-53,-53
0,-92,-92,46,46,-92,4,14,-34,-43,-53,-58
0,-102,-102,51,51,-102,9,14,-34,-48,-58,-58
-4,-107,-102,56,48,-104,14,14,-34,-48,-58,-58
0,-112,-112,56,56,-112,9,19,-39,-53,-68,-78
0,-117,-117,58,58,-117,9,19,-39,-53,-73,-78
0,-122,-122,61,61,-122,14,19,-39,-58,-73,-78
0,-126,-126,63,63,-126,14,19,-39,-58,-73,-78
-9,-122,-112,65,51,-117,24,14,-39,-68,-82,-82
-14,-126,-112,70,48,-119,24,14,-39,-68,-82,-82
-14,-126,-112,70,48,-119,24,14,-43,-68,-82,-82
-14,-126,-112,70,48,-119,24,14,-43,-68,-82,-82
-9,-126,-117,68,53,-122,19,14,-43,-68,-87,-87
-9,-126,-117,68,53,-122,19,14,-43,-73,-87,-87
-9,-126,-117,68,53,-122,19,14,-43,-73,-87,-87
-9,-126,-117,68,53,-122,19,14,-43,-73,-87,-87
-9,-126,-117,68,53,-122,19,14,-43,-73,-78,-87
-9,-126,-117,68,53,-122,19,14,-43,-73,-78,-87
-9,-126,-117,68,53,-122,19,14,-43,-73,-78,-87
-9,-126,-117,68,53,-122,19,14,-43,-73,-78,-92
-19,-126,-107,73,43,-117,19,14,-43,-73,-78,-82
-19,-126,-107,73,43,-117,19,14,-43,-73,-78,-82
-19,-126,-107,73,43,-117,19,14,-43,-73,-78,-82
-19,-126,-107,73,43,-117,19,14,-43,-73,-78,-78
-19,-126,-107,73,43,-117,24,14,-43,-63,-78,-78
-19,-126,-107,73,43,-117,24,19,-43,-63,-78,-78
-19,-126,-107,73,43,-117,24,19,-43,-63,-78,-78
-19,-126,-107,73,43,-117,24,19,-43,-63,-78,-78
-9,-117,-107,63,48,-112,24,19,-43,-63,-68,-78
-9,-117,-107,63,48,-112,24,19,-43,-63,-68,-78
-9,-117,-107,63,48,-112,24,19,-43,-63,-68,-78
-9,-117,-107,63,48,-112,24,19,-43,-63,-68,-78
-9,-117,-107,63,48,-112,24,19,-43,-63,-68,-78
-9,-117,-107,63,48,-112,24,19,-43,-63,-68,-78
-9,-117,-107,63,48,-112,24,19,-43,-63,-68,-78
-9,-117,-107,63,48,-112,24,19,-43,-63,-68,-78
-9,-112,-102,61,46,-107,24,19,-43,-63,-68,-68
-4,-112,-107,58,51,-109,24,19,-43,-63,-68,-68
-4,-112,-107,58,51,-109,24,19,-43,-63,-68,-68
-4,-112,-107,58,51,-109,24,19,-39,-63,-68,-68
-4,-122,-117,63,56,-119,14,9,-39,-63,-78,-68
-4,-117,-112,61,53,-114,14,9,-39,-58,-73,-68
-4,-117,-112,61,53,-114,14,9,-39,-58,-73,-68
-4,-117,-112,61,53,-114,14,9,-39,-58,-73,-68
4,-107,-112,51,58,-109,14,19,-39,-58,-73,-68
4,-107,-112,51,58,-109,14,19,-39,-58,-73,-63
4,-107,-112,51,58,-109,14,19,-39,-58,-73,-63
4,-107,-112,51,58,-109,9,19,-39,-58,-73,-63
-4,-107,-102,56,48,-104,19,14,-39,-58,-73,-63
0,-92,-92,46,46,-92,14,14,-29,-58,-63,-73
0,-78,-78,39,39,-78,14,19,-4,-34,-43,-58
4,-48,-53,21,29,-51,19,39,24,4,-19,-34
19,-9,-29,-4,24,-19,19,43,53,39,19,-19
29,29,0,-29,14,14,19,53,92,78,48,9
53,68,14,-61,19,41,9,68,122,112,82,29
68,102,34,-85,17,68,-4,78,141,151,122,48
87,141,53,-114,17,97,-29,68,161,180,161,73
97,185,87,-141,4,136,-63,53,170,219,195,97
122,234,112,-178,4,173,-107,43,175,253,239,117
151,292,141,-222,4,217,-156,24,185,297,297,161
170,375,204,-273,-17,290,-229,-9,204,346,361,214
219,492,273,-356,-26,383,-302,-58,204,409,458,292
258,595,336,-427,-39,466,-385,-102,204,463,546,370
292,702,409,-497,-58,556,-478,-161,185,512,624,439
336,824,488,-580,-75,656,-580,-219,156,546,702,522
395,961,566,-678,-85,763,-707,-292,107,580,795,629
458,1117,658,-788,-100,888,-849,-380,43,614,893,732
512,1273,761,-893,-124,1017,-976,-468,-9,649,1005,854
570,1439,868,-1005,-148,1154,-1102,-541,-39,702,1112,971
624,1595,971,-1110,-173,1283,-1210,-610,-58,741,1210,1083
678,1737,1058,-1207,-190,1398,-1317,-692,-92,771,1302,1190
722,1873,1151,-1298,-214,1512,-1424,-766,-146,800,1390,1298
785,2025,1239,-1405,-226,1632,-1546,-849,-195,819,1478,1410
849,2161,1312,-1505,-231,1737,-1649,-907,-268,819,1542,1507
927,2220,1293,-1573,-183,1756,-1732,-917,-366,766,1561,1561
1044,2225,1180,-1634,-68,1703,-1805,-897,-517,673,1542,1581
1161,2176,1015,-1668,73,1595,-1878,-844,-697,541,1498,1556
1293,2044,751,-1668,270,1398,-1917,-761,-893,361,1381,1493
1400,1859,458,-1629,470,1159,-1932,-668,-1102,141,1215,1381
1512,1615,102,-1564,705,858,-1912,-585,-1312,-92,1010,1239
1586,1361,-224,-1473,905,568,-1888,-502,-1517,-346,771,1068
1586,1098,-488,-1342,1037,305,-1825,-453,-1683,-585,517,893
1507,771,-736,-1139,1122,17,-1683,-405,-1790,-810,253,683
1351,429,-922,-890,1137,-246,-1488,-380,-1869,-1019,-19,483
1137,175,-961,-656,1049,-392,-1278,-400,-1830,-1141,-214,351
858,53,-805,-456,832,-375,-1083,-468,-1678,-1107,-287,297
610,92,-517,-351,563,-212,-902,-531,-1434,-971,-258,331
463,185,-278,-324,370,-46,-761,-522,-1171,-785,-161,385
395,248,-146,-322,270,51,-653,-468,-966,-634,-92,400
356,278,-78,-317,217,100,-575,-409,-824,-541,-53,390
307,268,-39,-287,173,114,-502,-356,-712,-463,-29,390
253,244,-9,-248,131,117,-424,-297,-580,-385,-19,346
180,190,9,-185,85,100,-326,-229,-478,-331,-34,302
126,131,4,-129,61,68,-244,-165,-370,-268,-58,234
87,73,-14,-80,51,29,-156,-122,-283,-229,-68,151
48,24,-24,-36,36,0,-102,-92,-219,-180,-78,92
4,-19,-24,7,14,-21,-43,-63,-165,-146,-87,39
-24,-58,-34,41,4,-46,4,-43,-126,-126,-78,-19
-58,-82,-24,70,-17,-53,48,-19,-92,-102,-73,-24
-68,-107,-39,87,-14,-73,68,4,-68,-82,-63,-39
-78,-117,-39,97,-19,-78,73,19,-53,-82,-63,-39
-82,-131,-48,107,-17,-90,82,29,-39,-82,-82,-43
-82,-141,-58,112,-12,-100,92,34,-29,-82,-92,-63
-78,-146,-68,112,-4,-107,97,34,-29,-82,-107,-78
-78,-146,-68,112,-4,-107,97,19,-24,-78,-107,-97
-78,-146,-68,112,-4,-107,97,19,-24,-78,-92,-97
-78,-136,-58,107,-9,-97,97,19,-24,-68,-78,-87
-87,-136,-48,112,-19,-92,97,24,-24,-68,-63,-73
-87,-136,-48,112,-19,-92,97,39,-24,-68,-63,-63
-87,-136,-48,112,-19,-92,97,43,-14,-68,-68,-53
-87,-146,-58,117,-14,-102,102,43,-4,-68,-87,-73
-78,-151,-73,114,-2,-112,102,43,-4,-68,-97,-87
-73,-151,-78,112,2,-114,102,43,0,-68,-107,-97
-73,-151,-78,112,2,-114,102,43,0,-58,-97,-107
-73,-141,-68,107,-2,-104,102,39,0,-53,-78,-97
-82,-141,-58,112,-12,-100,102,39,0,-53,-58,-78
-87,-136,-48,112,-19,-92,102,43,-4,-53,-58,-68
-87,-136,-48,112,-19,-92,102,43,-4,-53,-63,-58
-82,-146,-63,114,-9,-104,102,48,4,-53,-82,-58
-78,-151,-73,114,-2,-112,102,48,4,-58,-92,-92
-73,-141,-68,107,-2,-104,102,48,4,-58,-97,-97
-68,-141,-73,104,2,-107,102,48,4,-58,-97,-107
-68,-131,-63,100,-2,-97,97,48,4,-58,-73,-107
-73,-126,-53,100,-9,-90,97,48,4,-48,-63,-78
-73,-126,-53,100,-9,-90,107,48,4,-48,-53,-73
-78,-126,-48,102,-14,-87,107,48,4,-48,-53,-63
-78,-126,-48,102,-14,-87,112,48,14,-48,-68,-53
-78,-131,-53,104,-12,-92,112,48,14,-48,-82,-73
-68,-131,-63,100,-2,-97,112,48,14,-48,-92,-87
-63,-141,-78,102,7,-109,112,48,14,-48,-92,-97
-63,-131,-68,97,2,-100,107,43,14,-48,-78,-107
-63,-122,-58,92,-2,-90,107,43,9,-43,-73,-87
-78,-117,-39,97,-19,-78,97,34,19,-34,-53,-73
-82,-112,-29,97,-26,-70,97,43,19,-43,-53,-58
-82,-112,-29,97,-26,-70,97,48,24,-43,-58,-58
-82,-122,-39,102,-21,-80,102,48,24,-43,-68,-63
-82,-126,-43,104,-19,-85,112,43,24,-39,-82,-82
-73,-126,-53,100,-9,-90,107,43,29,-39,-92,-92
-68,-122,-53,95,-7,-87,107,43,29,-29,-82,-102
-68,-112,-43,90,-12,-78,107,39,29,-24,-63,-87
-73,-107,-34,90,-19,-70,97,48,29,-19,-43,-68
-82,-102,-19,92,-31,-61,97,48,29,-19,-43,-58
-82,-102,-19,92,-31,-61,97,53,29,-19,-43,-48
-82,-107,-24,95,-29,-65,97,53,34,-19,-63,-48
-68,-107,-39,87,-14,-73,97,43,29,-29,-73,-78
-68,-112,-43,90,-12,-78,97,43,29,-29,-73,-82
-63,-112,-48,87,-7,-80,92,39,29,-24,-73,-82
-63,-102,-39,82,-12,-70,92,39,24,-24,-48,-82
-82,-92,-9,87,-36,-51,92,39,24,-14,-48,-58
-82,-92,-9,87,-36,-51,92,39,24,-14,-39,-48
-78,-82,-4,80,-36,-43,92,43,24,-14,-39,-39
-78,-82,-4,80,-36,-43,92,43,34,-14,-48,-39
-68,-82,-14,75,-26,-48,92,53,34,-14,-58,-53
-68,-92,-24,80,-21,-58,92,53,34,-19,-73,-63
-68,-92,-24,80,-21,-58,92,53,34,-19,-73,-73
-68,-87,-19,78,-24,-53,92,48,34,-9,-58,-73
-68,-78,-9,73,-29,-43,87,48,29,0,-43,-63
-73,-73,0,73,-36,-36,87,48,29,0,-19,-48
-73,-73,0,73,-36,-36,87,48,29,0,-19,-34
-73,-73,0,73,-36,-36,87,48,34,0,-29,-24
-82,-78,4,80,-43,-36,87,53,43,0,-39,-39
-73,-78,-4,75,-34,-41,87,53,43,-9,-53,-53
-73,-73,0,73,-36,-36,87,53,43,0,-53,-63
-73,-73,0,73,-36,-36,87,53,43,9,-48,-73
-73,-63,9,68,-41,-26,82,48,43,0,-29,-58
-73,-58,14,65,-43,-21,82,48,43,9,-9,-39
-78,-53,24,65,-51,-14,82,48,43,9,-4,-29
-78,-53,24,65,-51,-14,82,48,43,9,-4,-19
-68,-63,4,65,-36,-29,82,53,53,9,-29,-19
-63,-63,0,63,-31,-31,82,53,58,9,-29,-43
-63,-63,0,63,-31,-31,82,53,63,9,-43,-43
-63,-63,0,63,-31,-31,82,53,63,19,-34,-58
-63,-53,9,58,-36,-21,82,53,58,19,-14,-58
-63,-48,14,56,-39,-17,82,48,58,24,-4,-34
-68,-43,24,56,-46,-9,82,48,58,24,9,-24
-68,-43,24,56,-46,-9,82,53,58,19,9,-14
-68,-34,34,51,-51,0,82,53,58,19,-4,-4
-63,-34,29,48,-46,-2,82,58,68,19,-14,-24
-58,-34,24,46,-41,-4,82,58,73,19,-24,-29
-58,-34,24,46,-41,-4,82,58,73,19,-24,-43
-58,-34,24,46,-41,-4,82,58,73,39,-9,-43
-58,-29,29,43,-43,0,82,53,73,43,4,-29
-63,-24,39,43,-51,7,78,53,73,48,24,-14
-68,-19,48,43,-58,14,78,53,73,48,24,0
-68,-19,48,43,-58,14,87,43,78,43,9,9
-63,-24,39,43,-51,7,92,48,82,43,0,0
-63,-24,39,43,-51,7,92,48,87,43,-4,-19
-63,-24,39,43,-51,7,92,43,92,43,-4,-19
-63,-14,48,39,-56,17,92,53,92,53,4,-29
-58,0,58,29,-58,29,87,48,92,58,19,-29
-58,4,63,26,-61,34,87,48,92,63,29,-4
-68,4,73,31,-70,39,87,48,92,63,39,4
-68,0,68,34,-68,34,92,48,92,63,29,19
-68,0,68,34,-68,34,92,53,102,63,19,19
-68,4,73,31,-70,39,92,53,107,63,14,-4
-63,4,68,29,-65,36,92,53,112,63,9,-14
-63,4,68,29,-65,36,92,53,112,68,9,-14
-63,19,82,21,-73,51,92,48,112,68,29,-14
-73,24,97,24,-85,61,92,48,112,78,39,9
-78,29,107,24,-92,68,97,48,117,78,48,19
-82,34,117,24,-100,75,97,48,112,78,48,24
-82,34,117,24,-100,75,97,53,122,78,43,34
-78,34,112,21,-95,73,97,53,126,82,34,14
-78,29,107,24,-92,68,97,53,126,82,19,9
-73,29,102,21,-87,65,97,48,136,82,43,4
-73,39,112,17,-92,75,97,48,136,92,53,4
-73,48,122,12,-97,85,97,48,136,97,63,19
-82,53,136,14,-109,95,102,48,141,102,78,34
-87,48,136,19,-112,92,102,48,136,102,68,34
-87,48,136,19,-112,92,102,48,141,102,63,34
-87,48,136,19,-112,92,102,48,146,102,53,29
-87,48,136,19,-112,92,107,48,151,102,43,19
-87,48,136,19,-112,92,107,48,165,97,43,24
-87,48,136,19,-112,92,107,48,170,107,53,24
-92,68,161,12,-126,114,107,43,170,112,68,24
-97,68,165,14,-131,117,112,43,170,117,78,48
-102,82,185,9,-143,134,112,43,170,122,87,48
-102,82,185,9,-143,134,112,43,175,122,78,58
-102,78,180,12,-141,129,112,43,180,122,68,48
-102,78,180,12,-141,129,112,43,185,122,63,39
-102,68,170,17,-136,119,112,29,190,122,53,43
-102,68,170,17,-136,119,122,29,195,126,53,29
-102,78,180,12,-141,129,122,24,195,126,68,29
-107,82,190,12,-148,136,126,24,195,136,78,53
-112,87,200,12,-156,143,126,34,200,141,92,53
-117,87,204,14,-161,146,136,34,209,141,92,63
-122,87,209,17,-165,148,141,34,214,141,78,63
-122,82,204,19,-163,143,141,34,219,141,73,48
-122,82,204,19,-163,143,131,34,224,131,68,43
-122,82,204,19,-163,143,131,34,224,141,68,39
-131,82,214,24,-173,148,131,24,224,141,73,39
-136,92,229,21,-183,161,141,24,229,141,82,48
-141,97,239,21,-190,168,146,24,229,151,87,58
-146,97,244,24,-195,170,151,29,239,151,97,68
-151,97,248,26,-200,173,156,29,244,151,87,68
-156,87,244,34,-200,165,161,29,248,151,78,63
-161,87,248,36,-204,168,161,19,244,146,73,53
-161,87,248,36,-204,168,161,14,244,146,68,39
-161,87,248,36,-204,168,161,14,244,151,68,39
-170,92,263,39,-217,178,161,9,244,151,82,39
-175,92,268,41,-222,180,170,19,244,151,78,48
-180,92,273,43,-226,183,180,19,253,156,92,58
-185,92,278,46,-231,185,185,19,258,156,82,68
-190,92,283,48,-236,187,190,19,263,156,73,58
-190,78,268,56,-229,173,180,9,268,146,68,43
-190,73,263,58,-226,168,180,9,268,146,53,34
-195,73,268,61,-231,170,190,0,268,146,53,29
-200,73,273,63,-236,173,190,0,268,146,68,29
-214,73,287,70,-251,180,200,4,268,146,73,43
-219,73,292,73,-256,183,200,4,268,151,73,43
-234,73,307,80,-270,190,200,4,278,151,73,48
-239,63,302,87,-270,183,209,9,278,151,63,48
-239,58,297,90,-268,178,209,9,278,141,43,39
-234,58,292,87,-263,175,209,9,278,141,34,24
-234,48,283,92,-258,165,219,4,278,141,24,14
-234,48,283,92,-258,165,219,0,278,141,34,4
-234,39,273,97,-253,156,229,9,263,141,34,4
-239,34,273,102,-256,153,229,9,263,141,43,14
-239,34,273,102,-256,153,229,9,263,136,43,19
-239,29,268,104,-253,148,229,9,258,131,34,19
-244,14,258,114,-251,136,229,9,258,122,19,9
-244,9,253,117,-248,131,229,9,248,112,0,-14
-244,0,244,122,-244,122,234,9,244,107,-9,-19
-239,-9,229,124,-234,109,234,9,244,102,-9,-34
-239,-19,219,129,-229,100,234,4,229,97,-4,-43
-239,-29,209,134,-224,90,234,4,224,92,-4,-39
-244,-29,214,136,-229,92,234,4,219,92,-4,-39
-244,-34,209,139,-226,87,234,4,214,87,-14,-39
-248,-48,200,148,-224,75,229,4,219,82,-39,-43
-248,-53,195,151,-222,70,229,4,214,73,-48,-58
-248,-63,185,156,-217,61,229,4,209,73,-58,-68
-248,-73,175,161,-212,51,229,4,204,68,-63,-78
-248,-78,170,163,-209,46,229,0,195,63,-53,-87
-248,-78,170,163,-209,46,224,0,185,58,-53,-78
-244,-82,161,163,-202,39,224,0,175,53,-53,-78
-244,-87,156,165,-200,34,224,0,165,48,-53,-73
-244,-97,146,170,-195,24,214,0,165,43,-73,-73
-234,-107,126,170,-180,9,214,0,161,39,-82,-82
-229,-112,117,170,-173,2,204,0,156,24,-92,-97
-219,-122,97,170,-158,-12,200,0,146,24,-102,-117
-219,-122,97,170,-158,-12,204,-14,136,19,-92,-107
-219,-126,92,173,-156,-17,195,-14,126,14,-87,-102
-219,-131,87,175,-153,-21,190,-14,122,9,-82,-97
-219,-131,87,175,-153,-21,185,-14,112,4,-82,-97
-209,-122,87,165,-148,-17,180,-4,112,0,-87,-102
-200,-131,68,165,-134,-31,180,-4,107,-4,-102,-112
-195,-136,58,165,-126,-39,175,-4,102,-9,-112,-117
-190,-141,48,165,-119,-46,170,-4,97,-9,-112,-122
-185,-141,43,163,-114,-48,156,-14,102,-4,-112,-122
-170,-141,29,156,-100,-56,146,-14,87,-9,-97,-122
-161,-141,19,151,-90,-61,136,-14,78,-14,-92,-112
-161,-136,24,148,-92,-56,136,-14,73,-14,-92,-107
-156,-126,29,141,-92,-48,141,-4,73,-24,-102,-102
-146,-136,9,141,-78,-63,136,0,68,-24,-107,-102
-141,-136,4,139,-73,-65,131,0,63,-29,-112,-112
-136,-136,0,136,-68,-68,126,0,58,-29,-122,-117
-131,-136,-4,134,-63,-70,122,-4,53,-19,-112,-112
-122,-131,-9,126,-56,-70,117,-4,48,-19,-102,-112
-117,-122,-4,119,-56,-63,107,0,43,-19,-92,-92
-107,-117,-9,112,-48,-63,102,0,43,-19,-78,-92
-102,-122,-19,112,-41,-70,97,0,48,-19,-78,-78
-92,-122,-29,107,-31,-75,92,0,48,-24,-92,-78
-87,-126,-39,107,-24,-82,82,0,39,-29,-97,-92
-82,-126,-43,104,-19,-85,78,0,39,-29,-97,-92
-78,-122,-43,100,-17,-82,73,0,39,-29,-97,-92
-73,-112,-39,92,-17,-75,68,-4,34,-29,-87,-102
-68,-107,-39,87,-14,-73,63,-4,29,-29,-82,-87
-68,-102,-34,85,-17,-68,58,0,19,-29,-78,-78
-68,-92,-24,80,-21,-58,53,9,19,-29,-68,-63
-68,-92,-24,80,-21,-58,53,9,24,-29,-68,-53
-58,-92,-34,75,-12,-63,48,9,24,-29,-78,-63
-48,-92,-43,70,-2,-68,43,9,14,-29,-82,-73
-43,-92,-48,68,2,-70,48,0,14,-19,-73,-78
-39,-92,-53,65,7,-73,43,0,9,-19,-73,-78
-34,-78,-43,56,4,-61,39,-4,4,-19,-63,-78
-34,-78,-43,56,4,-61,39,-4,4,-19,-58,-63
-34,-73,-39,53,2,-56,24,0,4,-19,-53,-58
-29,-73,-43,51,7,-58,19,0,4,-19,-53,-43
-24,-73,-48,48,12,-61,19,0,4,-19,-68,-43
-19,-73,-53,46,17,-63,14,4,4,-24,-68,-53
-14,-78,-63,46,24,-70,24,4,4,-34,-68,-53
-4,-78,-73,41,34,-75,19,0,4,-34,-68,-53
-4,-68,-63,36,29,-65,14,0,-4,-29,-53,-53
-4,-63,-58,34,26,-61,14,0,-4,-29,-53,-53
-4,-63,-58,34,26,-61,4,0,-4,-19,-58,-53
-4,-58,-53,31,24,-56,4,0,-4,-19,-58,-53
-4,-58,-53,31,24,-56,4,0,-4,-19,-53,-43
-4,-58,-53,31,24,-56,4,0,-9,-19,-53,-43
-14,-58,-43,36,14,-51,14,0,0,-29,-48,-43
-14,-58,-43,36,14,-51,9,0,0,-24,-48,-43
-14,-58,-43,36,14,-51,9,0,0,-24,-48,-43
-9,-58,-48,34,19,-53,9,0,0,-24,-48,-43
-9,-58,-48,34,19,-53,9,0,0,-14,-48,-43
-9,-58,-48,34,19,-53,9,0,0,-14,-48,-43
-9,-58,-48,34,19,-53,9,0,0,-14,-48,-43
-9,-58,-48,34,19,-53,9,0,0,-14,-48,-39
-9,-58,-48,34,19,-53,9,0,9,-14,-39,-39
-9,-58,-48,34,19,-53,9,0,9,-14,-39,-39
-9,-58,-48,34,19,-53,9,0,9,-14,-39,-34
-9,-53,-43,31,17,-48,9,0,9,-14,-39,-34
0,-53,-53,26,26,-53,9,0,0,-14,-39,-34
0,-53,-53,26,26,-53,9,0,0,-14,-39,-39
0,-53,-53,26,26,-53,9,0,0,-14,-39,-39
-4,-53,-48,29,21,-51,9,0,0,-14,-34,-39
-9,-53,-43,31,17,-48,9,0,0,-14,-34,-39
-9,-53,-43,31,17,-48,9,0,0,-14,-34,-39
-14,-58,-43,36,14,-51,9,0,0,-14,-34,-39
-19,-58,-39,39,9,-48,9,0,0,-14,-34,-39
-24,-58,-34,41,4,-46,19,0,9,-14,-39,-39
-24,-58,-34,41,4,-46,19,0,9,-14,-39,-39
-24,-58,-34,41,4,-46,19,0,9,-19,-39,-39
-29,-63,-34,46,2,-48,19,0,9,-19,-39,-39
-19,-63,-43,41,12,-53,14,0,9,-19,-39,-39
-19,-63,-43,41,12,-53,14,0,9,-19,-39,-39
-19,-63,-43,41,12,-53,14,0,9,-19,-39,-39
-19,-68,-48,43,14,-58,14,0,9,-19,-39,-39
-19,-68,-48,43,14,-58,19,0,9,-29,-39,-48
-19,-68,-48,43,14,-58,19,0,9,-29,-43,-53
-24,-68,-43,46,9,-56,19,0,9,-29,-43,-53
-24,-68,-43,46,9,-56,19,0,9,-29,-43,-53
-24,-68,-43,46,9,-56,24,0,9,-29,-43,-53
-29,-68,-39,48,4,-53,24,4,9,-29,-43,-53
-29,-73,-43,51,7,-58,24,4,9,-29,-43,-53
-29,-73,-43,51,7,-58,24,4,9,-29,-43,-53
-39,-78,-39,58,0,-58,29,14,9,-29,-43,-53
-39,-78,-39,58,0,-58,29,14,9,-34,-43,-63
-39,-78,-39,58,0,-58,29,14,9,-34,-48,-63
-39,-78,-39,58,0,-58,29,14,9,-34,-48,-58
-39,-78,-39,58,0,-58,29,14,9,-24,-48,-58
-43,-78,-34,61,-4,-56,29,14,9,-24,-48,-58
-43,-82,-39,63,-2,-61,29,14,9,-24,-48,-58
-48,-82,-34,65,-7,-58,34,14,9,-24,-48,-58
-48,-92,-43,70,-2,-68,34,14,9,-24,-58,-53
-48,-92,-43,70,-2,-68,39,14,9,-24,-58,-58
-48,-92,-43,70,-2,-68,39,14,9,-29,-53,-58
-48,-92,-43,70,-2,-68,39,14,9,-29,-53,-58
-39,-102,-63,70,12,-82,34,14,9,-29,-53,-58
-39,-102,-63,70,12,-82,34,14,9,-34,-53,-58
-39,-107,-68,73,14,-87,34,14,9,-34,-53,-58
-39,-112,-73,75,17,-92,39,14,9,-34,-58,-58
-39,-112,-73,75,17,-92,48,14,0,-34,-58,-68
-43,-112,-68,78,12,-90,48,14,0,-34,-63,-73
-43,-112,-68,78,12,-90,48,14,0,-34,-63,-73
-43,-112,-68,78,12,-90,48,14,0,-34,-63,-73
-43,-117,-73,80,14,-95,39,4,0,-34,-63,-73
-43,-117,-73,80,14,-95,39,4,0,-39,-63,-73
-43,-117,-73,80,14,-95,43,9,0,-39,-63,-73
-43,-117,-73,80,14,-95,43,9,0,-39,-63,-73
-53,-117,-63,85,4,-90,43,9,4,-39,-63,-73
-53,-117,-63,85,4,-90,43,9,4,-39,-63,-78
-53,-122,-68,87,7,-95,43,9,4,-39,-68,-78
-53,-122,-68,87,7,-95,39,9,4,-43,-68,-82
-53,-122,-68,87,7,-95,48,9,-4,-43,-68,-73
-53,-122,-68,87,7,-95,48,9,-4,-43,-68,-73
-53,-126,-73,90,9,-100,48,9,-4,-43,-68,-73
-53,-126,-73,90,9,-100,48,9,-4,-43,-73,-73
-53,-126,-73,90,9,-100,48,9,-14,-43,-73,-73
-53,-126,-73,90,9,-100,48,9,-14,-43,-73,-73
-53,-126,-73,90,9,-100,48,9,-14,-48,-73,-73
-53,-131,-78,92,12,-104,48,9,-14,-48,-73,-78
-43,-131,-87,87,21,-109,39,9,-19,-48,-73,-78
-43,-131,-87,87,21,-109,39,9,-19,-48,-73,-78
-43,-131,-87,87,21,-109,39,9,-19,-48,-73,-78
-43,-131,-87,87,21,-109,39,9,-19,-48,-73,-78
-43,-131,-87,87,21,-109,39,9,-19,-58,-78,-78
-43,-131,-87,87,21,-109,39,9,-19,-58,-78,-78
-43,-131,-87,87,21,-109,39,9,-24,-58,-78,-78
-43,-131,-87,87,21,-109,39,9,-24,-58,-78,-78
-43,-122,-78,82,17,-100,39,9,-14,-58,-78,-78
-43,-122,-78,82,17,-100,39,9,-14,-58,-78,-78
-43,-122,-78,82,17,-100,39,9,-14,-58,-78,-78
-43,-122,-78,82,17,-100,39,9,-14,-63,-78,-78
-39,-122,-82,80,21,-102,39,9,-14,-53,-78,-78
-39,-122,-82,80,21,-102,39,9,-14,-53,-78,-78
-39,-122,-82,80,21,-102,39,9,-14,-53,-78,-78
-39,-122,-82,80,21,-102,39,9,-14,-53,-78,-78
-39,-122,-82,80,21,-102,39,9,-24,-53,-78,-78
-39,-122,-82,80,21,-102,39,9,-24,-53,-78,-78
-39,-122,-82,80,21,-102,34,9,-29,-53,-78,-78
-39,-122,-82,80,21,-102,34,9,-29,-53,-78,-78
-39,-122,-82,80,21,-102,34,9,-19,-53,-68,-78
-39,-122,-82,80,21,-102,34,9,-19,-53,-68,-78
-34,-122,-87,78,26,-104,34,9,-19,-53,-68,-78
-34,-122,-87,78,26,-104,34,9,-19,-53,-68,-78
-34,-112,-78,73,21,-95,34,9,-19,-53,-68,-78
-34,-112,-78,73,21,-95,34,9,-19,-53,-68,-78
-34,-112,-78,73,21,-95,34,9,-19,-53,-68,-78
-29,-112,-82,70,26,-97,34,9,-19,-53,-68,-78
-29,-112,-82,70,26,-97,34,9,-19,-53,-68,-68
-29,-112,-82,70,26,-97,34,9,-19,-53,-68,-68
-29,-112,-82,70,26,-97,34,9,-19,-53,-68,-68
-29,-112,-82,70,26,-97,34,9,-19,-53,-68,-68
-19,-112,-92,65,36,-102,34,9,-19,-53,-78,-68
-19,-107,-87,63,34,-97,29,9,-19,-48,-78,-68
-29,-107,-78,68,24,-92,29,9,-19,-48,-78,-68
-29,-107,-78,68,24,-92,29,9,-19,-48,-78,-68
-29,-107,-78,68,24,-92,29,9,-19,-48,-78,-68
-29,-107,-78,68,24,-92,29,9,-19,-48,-78,-68
-29,-117,-87,73,29,-102,29,9,-19,-48,-78,-68
-29,-117,-87,73,29,-102,29,9,-19,-48,-78,-68
-29,-117,-87,73,29,-102,29,9,-19,-48,-78,-68
-29,-117,-87,73,29,-102,29,9,-19,-48,-78,-68
-29,-107,-78,68,24,-92,19,9,-19,-48,-68,-68
-29,-107,-78,68,24,-92,19,9,-19,-48,-68,-68
-29,-107,-78,68,24,-92,19,9,-19,-48,-68,-68
-29,-107,-78,68,24,-92,19,9,-19,-48,-68,-68
-29,-97,-68,63,19,-82,19,9,-19,-48,-68,-68
-29,-97,-68,63,19,-82,19,9,-19,-48,-68,-68
-29,-97,-68,63,19,-82,19,9,-19,-48,-68,-68
-29,-97,-68,63,19,-82,19,9,-19,-48,-68,-68
-19,-97,-78,58,29,-87,19,9,-19,-48,-68,-68
-19,-97,-78,58,29,-87,19,9,-19,-48,-68,-68
-19,-97,-78,58,29,-87,19,9,-19,-48,-68,-68
-19,-97,-78,58,29,-87,19,9,-19,-48,-68,-68
-19,-97,-78,58,29,-87,19,9,-19,-48,-68,-68
-19,-97,-78,58,29,-87,19,9,-19,-48,-68,-68
-19,-97,-78,58,29,-87,19,9,-19,-48,-68,-68
-19,-97,-78,58,29,-87,19,9,-19,-48,-68,-68
-19,-97,-78,58,29,-87,9,9,-19,-48,-68,-68
-19,-97,-78,58,29,-87,9,9,-19,-48,-68,-68
-19,-97,-78,58,29,-87,9,9,-19,-48,-68,-68
-19,-97,-78,58,29,-87,9,9,-19,-48,-68,-68
-19,-97,-78,58,29,-87,19,9,-19,-48,-68,-68
-19,-97,-78,58,29,-87,19,9,-19,-48,-68,-68
-19,-97,-78,58,29,-87,19,9,-19,-48,-68,-68
-19,-97,-78,58,29,-87,19,9,-19,-48,-68,-68
-9,-97,-87,53,39,-92,9,9,-19,-39,-58,-68
-9,-97,-87,53,39,-92,9,9,-19,-39,-58,-68
-9,-97,-87,53,39,-92,9,9,-19,-39,-58,-68
-9,-97,-87,53,39,-92,9,9,-19,-39,-58,-68
-9,-97,-87,53,39,-92,19,9,-19,-39,-58,-68
-9,-97,-87,53,39,-92,19,9,-19,-39,-58,-68
-9,-97,-87,53,39,-92,19,9,-19,-39,-58,-68
-9,-97,-87,53,39,-92,19,9,-19,-39,-58,-68
-9,-87,-78,48,34,-82,19,9,-19,-39,-58,-68
-9,-87,-78,48,34,-82,19,9,-19,-39,-58,-68
-9,-87,-78,48,34,-82,19,9,-19,-39,-58,-68
-9,-87,-78,48,34,-82,19,9,-19,-39,-58,-68
-9,-97,-87,53,39,-92,9,9,-19,-39,-58,-58
-9,-97,-87,53,39,-92,9,9,-19,-39,-58,-58
-9,-97,-87,53,39,-92,9,9,-19,-39,-58,-58
-9,-97,-87,53,39,-92,9,9,-19,-39,-58,-58
-9,-97,-87,53,39,-92,9,9,-19,-39,-58,-68
-9,-97,-87,53,39,-92,9,9,-19,-39,-58,-68
-9,-97,-87,53,39,-92,9,9,-19,-39,-58,-68
-9,-97,-87,53,39,-92,9,9,-19,-39,-58,-68
-9,-97,-87,53,39,-92,9,9,-19,-39,-48,-58
-9,-97,-87,53,39,-92,9,9,-19,-39,-48,-58
-9,-97,-87,53,39,-92,9,9,-19,-39,-48,-58
-9,-97,-87,53,39,-92,9,9,-19,-39,-48,-58
0,-87,-87,43,43,-87,9,9,-29,-48,-58,-68
0,-87,-87,43,43,-87,9,9,-29,-48,-58,-68
0,-87,-87,43,43,-87,9,9,-29,-48,-58,-68
0,-87,-87,43,43,-87,9,9,-29,-48,-58,-68
0,-87,-87,43,43,-87,9,9,-29,-48,-58,-58
0,-87,-87,43,43,-87,9,9,-29,-48,-58,-58
0,-87,-87,43,43,-87,9,9,-29,-48,-58,-58
0,-87,-87,43,43,-87,9,9,-29,-48,-58,-58
0,-87,-87,43,43,-87,0,9,-19,-48,-58,-68
0,-87,-87,43,43,-87,0,9,-19,-48,-58,-68
0,-87,-87,43,43,-87,0,9,-19,-48,-58,-68
0,-87,-87,43,43,-87,0,9,-19,-48,-58,-68
0,-97,-97,48,48,-97,9,9,-19,-39,-58,-58
0,-97,-97,48,48,-97,9,9,-19,-39,-58,-58
0,-97,-97,48,48,-97,9,9,-19,-39,-58,-58
0,-97,-97,48,48,-97,9,9,-19,-39,-58,-58
0,-87,-87,43,43,-87,9,9,-19,-39,-58,-58
0,-87,-87,43,43,-87,9,9,-19,-39,-58,-58
0,-87,-87,43,43,-87,9,9,-19,-39,-58,-58
0,-87,-87,43,43,-87,9,9,-19,-39,-58,-58
0,-97,-97,48,48,-97,9,9,-19,-39,-48,-58
0,-97,-97,48,48,-97,9,9,-19,-39,-48,-58
0,-97,-97,48,48,-97,9,9,-19,-39,-48,-58
0,-97,-97,48,48,-97,9,9,-19,-39,-48,-58
0,-97,-97,48,48,-97,9,19,-19,-39,-58,-58
0,-97,-97,48,48,-97,9,19,-19,-39,-58,-58
0,-97,-97,48,48,-97,9,19,-19,-39,-58,-58
0,-97,-97,48,48,-97,9,19,-19,-39,-58,-58
0,-97,-97,48,48,-97,9,19,-19,-39,-48,-58
0,-97,-97,48,48,-97,9,19,-19,-39,-48,-58
0,-97,-97,48,48,-97,9,19,-19,-39,-48,-58
0,-97,-97,48,48,-97,9,19,-19,-39,-48,-58
0,-87,-87,43,43,-87,9,9,-19,-39,-58,-58
0,-87,-87,43,43,-87,9,9,-19,-39,-58,-58
0,-87,-87,43,43,-87,9,9,-19,-39,-58,-58
0,-87,-87,43,43,-87,9,9,-19,-39,-58,-58
9,-87,-97,39,53,-92,9,9,-19,-39,-58,-58
9,-87,-97,39,53,-92,9,9,-19,-39,-58,-58
9,-87,-97,39,53,-92,9,9,-19,-39,-58,-58
9,-87,-97,39,53,-92,9,9,-19,-39,-58,-58
0,-87,-87,43,43,-87,9,19,-19,-39,-58,-58
0,-87,-87,43,43,-87,9,19,-19,-39,-58,-58
0,-87,-87,43,43,-87,9,19,-19,-39,-58,-58
0,-87,-87,43,43,-87,9,19,-19,-39,-58,-58
0,-87,-87,43,43,-87,9,19,-19,-39,-48,-58
0,-87,-87,43,43,-87,9,19,-19,-39,-48,-58
0,-87,-87,43,43,-87,9,19,-19,-39,-48,-58
0,-87,-87,43,43,-87,9,19,-19,-39,-48,-58
0,-78,-78,39,39,-78,19,19,-9,-29,-48,-48
0,-78,-78,39,39,-78,19,19,-9,-29,-48,-48
0,-78,-78,39,39,-78,19,19,-9,-29,-48,-48
0,-78,-78,39,39,-78,19,19,-9,-29,-48,-48
9,-68,-78,29,43,-73,19,19,0,-19,-39,-48
9,-68,-78,29,43,-73,19,19,0,-19,-39,-48
9,-68,-78,29,43,-73,19,19,0,-19,-39,-48
9,-68,-78,29,43,-73,19,19,0,-19,-39,-48
19,-53,-73,17,46,-63,19,19,4,-14,-29,-39
19,-48,-68,14,43,-58,19,19,9,-9,-29,-39
19,-43,-63,12,41,-53,19,19,14,-4,-29,-39
19,-39,-58,9,39,-48,19,19,19,0,-29,-39
29,-34,-63,2,46,-48,29,19,29,9,-24,-34
29,-29,-58,0,43,-43,29,19,29,9,-19,-29
29,-24,-53,-2,41,-39,29,19,29,9,-14,-24
29,-19,-48,-4,39,-34,29,19,29,9,-9,-19
29,-14,-43,-7,36,-29,29,19,39,19,0,-19
29,-9,-39,-9,34,-24,29,19,39,19,0,-19
29,-4,-34,-12,31,-19,29,19,39,19,0,-19
29,0,-29,-14,29,-14,29,19,39,19,0,-19
29,9,-19,-19,24,-4,19,29,48,29,9,-9
29,9,-19,-19,24,-4,19,29,48,29,9,-9
29,9,-19,-19,24,-4,19,29,48,29,9,-9
29,9,-19,-19,24,-4,19,29,48,29,9,-9
39,19,-19,-29,29,0,14,29,58,39,9,0
39,19,-19,-29,29,0,9,29,58,39,9,0
39,19,-19,-29,29,0,4,29,58,39,9,0
39,19,-19,-29,29,0,0,29,58,39,9,0
39,19,-19,-29,29,0,-14,19,48,39,9,0
39,19,-19,-29,29,0,-19,19,48,39,9,0
39,19,-19,-29,29,0,-24,19,48,39,9,0
39,19,-19,-29,29,0,-29,19,48,39,9,0
29,19,-9,-24,19,4,-43,14,39,29,0,0
29,19,-9,-24,19,4,-48,9,39,29,0,0
29,19,-9,-24,19,4,-53,4,39,29,0,0
29,19,-9,-24,19,4,-58,0,39,29,0,0
29,9,-19,-19,24,-4,-58,-4,34,19,-9,-9
29,9,-19,-19,24,-4,-58,-9,29,19,-9,-9
29,9,-19,-19,24,-4,-58,-14,24,14,-9,-9
29,4,-24,-17,26,-9,-58,-19,19,9,-9,-14
29,-4,-34,-12,31,-19,-58,-19,14,0,-19,-24
24,-9,-34,-7,29,-21,-58,-19,14,0,-24,-24
24,-14,-39,-4,31,-26,-58,-19,14,0,-24,-24
24,-19,-43,-2,34,-31,-58,-24,4,-4,-29,-24
24,-29,-53,2,39,-41,-53,-14,4,-9,-29,-24
24,-29,-53,2,39,-41,-53,-14,0,-9,-29,-29
24,-34,-58,4,41,-46,-53,-14,-4,-14,-34,-29
24,-34,-58,4,41,-46,-48,-9,-4,-19,-34,-29
24,-34,-58,4,41,-46,-48,-9,-19,-19,-24,-29
24,-34,-58,4,41,-46,-48,-9,-19,-24,-24,-34
24,-34,-58,4,41,-46,-48,-9,-24,-24,-24,-34
24,-34,-58,4,41,-46,-43,-9,-24,-24,-29,-34
24,-34,-58,4,41,-46,-43,-9,-19,-14,-29,-24
24,-39,-63,7,43,-51,-43,-9,-19,-19,-29,-24
24,-39,-63,7,43,-51,-43,-9,-24,-19,-29,-24
24,-39,-63,7,43,-51,-43,-9,-29,-19,-29,-24
34,-39,-73,2,53,-56,-34,-9,-29,-19,-29,-24
34,-43,-78,4,56,-61,-34,-9,-29,-24,-29,-24
29,-48,-78,9,53,-63,-29,-14,-29,-24,-34,-29
29,-53,-82,12,56,-68,-29,-14,-29,-24,-34,-29
29,-58,-87,14,58,-73,-29,-14,-29,-24,-34,-39
24,-58,-82,17,53,-70,-29,-14,-34,-34,-34,-39
24,-63,-87,19,56,-75,-19,-14,-39,-34,-43,-43
24,-63,-87,19,56,-75,-19,-9,-39,-39,-43,-43
19,-68,-87,24,53,-78,-19,0,-29,-39,-48,-43
14,-78,-92,31,53,-85,-9,0,-34,-43,-53,-48
14,-82,-97,34,56,-90,-9,0,-34,-43,-53,-53
9,-92,-102,41,56,-97,-4,4,-34,-43,-53,-58
9,-92,-102,41,56,-97,0,4,-43,-48,-58,-58
4,-97,-102,46,53,-100,4,4,-43,-48,-58,-58
0,-102,-102,51,51,-102,9,9,-48,-53,-68,-68
0,-107,-107,53,53,-107,9,9,-48,-53,-73,-68
-9,-112,-102,61,46,-107,4,9,-48,-58,-73,-68
-9,-117,-107,63,48,-112,4,9,-48,-58,-73,-68
-9,-122,-112,65,51,-117,4,14,-48,-58,-73,-73
-14,-126,-112,70,48,-119,4,14,-48,-58,-73,-73
-14,-126,-112,70,48,-119,4,14,-53,-58,-73,-73
-14,-126,-112,70,48,-119,4,14,-53,-58,-73,-73
-19,-126,-107,73,43,-117,9,14,-53,-58,-78,-78
-19,-126,-107,73,43,-117,9,14,-53,-63,-78,-78
-9,-126,-117,68,53,-122,19,14,-53,-63,-78,-78
-9,-126,-117,68,53,-122,19,14,-53,-63,-78,-78
-9,-126,-117,68,53,-122,19,14,-53,-63,-78,-78
-9,-126,-117,68,53,-122,19,14,-53,-63,-78,-78
0,-126,-126,63,63,-126,19,14,-43,-63,-78,-78
0,-126,-126,63,63,-126,19,14,-43,-63,-78,-82
0,-126,-126,63,63,-126,19,14,-43,-63,-78,-82
0,-126,-126,63,63,-126,19,14,-43,-63,-78,-82
0,-126,-126,63,63,-126,19,14,-43,-63,-78,-82
0,-126,-126,63,63,-126,19,14,-43,-63,-78,-78
0,-126,-126,63,63,-126,24,14,-43,-63,-78,-78
0,-126,-126,63,63,-126,24,19,-43,-63,-78,-78
0,-126,-126,63,63,-126,24,19,-43,-63,-78,-78
0,-126,-126,63,63,-126,24,19,-43,-63,-78,-78
0,-126,-126,63,63,-126,24,19,-43,-63,-78,-78
0,-126,-126,63,63,-126,24,19,-43,-63,-78,-78
0,-126,-126,63,63,-126,24,19,-43,-63,-68,-78
0,-126,-126,63,63,-126,24,19,-43,-63,-68,-78
0,-126,-126,63,63,-126,24,19,-43,-63,-68,-78
0,-126,-126,63,63,-126,24,19,-43,-63,-68,-78
-9,-126,-117,68,53,-122,24,19,-43,-63,-78,-78
-9,-126,-117,68,53,-122,24,19,-43,-63,-78,-78
-9,-122,-112,65,51,-117,24,19,-43,-63,-78,-78
-4,-122,-117,63,56,-119,24,19,-43,-63,-78,-78
-4,-122,-117,63,56,-119,24,9,-43,-63,-78,-78
-4,-122,-117,63,56,-119,24,9,-39,-63,-78,-78
-4,-122,-117,63,56,-119,24,9,-39,-63,-78,-78
-4,-117,-112,61,53,-114,24,9,-39,-58,-73,-78
-4,-117,-112,61,53,-114,24,19,-39,-58,-73,-78
-4,-117,-112,61,53,-114,24,19,-39,-58,-73,-78
-4,-117,-112,61,53,-114,24,19,-39,-58,-73,-78
-4,-117,-112,61,53,-114,24,19,-39,-58,-73,-73
4,-117,-122,56,63,-119,24,19,-48,-58,-73,-73
4,-117,-122,56,63,-119,19,19,-48,-58,-73,-73
-4,-126,-122,65,58,-124,19,14,-48,-58,-73,-73
0,-112,-112,56,56,-112,14,14,-39,-48,-63,-63
0,-97,-97,48,48,-97,14,19,-14,-34,-43,-58
4,-68,-73,31,39,-70,19,29,14,4,-19,-43
19,-29,-48,4,34,-39,19,43,53,39,19,-19
39,9,-29,-24,34,-9,19,53,82,68,48,0
53,48,-4,-51,29,21,19,78,112,112,73,19
78,92,14,-85,31,53,4,78,131,141,112,29
97,131,34,-114,31,82,-29,68,151,170,141,63
107,175,68,-141,19,122,-63,53,161,209,175,87
131,214,82,-173,24,148,-97,43,165,244,219,117
141,273,131,-207,4,202,-146,34,165,268,268,151
170,356,185,-263,-7,270,-209,0,175,326,341,204
219,463,244,-341,-12,353,-292,-48,175,380,419,273
258,566,307,-412,-24,436,-385,-92,165,434,497,341
292,673,380,-483,-43,527,-478,-151,146,463,575,409
326,775,448,-551,-61,612,-570,-200,107,497,653,492
385,922,536,-653,-75,729,-697,-283,58,531,746,590
448,1068,619,-758,-85,844,-839,-370,-14,556,844,702
492,1215,722,-854,-114,968,-976,-458,-78,590,946,805
551,1371,819,-961,-134,1095,-1093,-541,-97,634,1054,922
605,1527,922,-1066,-158,1224,-1200,-600,-126,673,1151,1034
658,1659,1000,-1159,-170,1329,-1307,-683,-161,702,1244,1132
702,1795,1093,-1249,-195,1444,-1415,-766,-204,732,1312,1239
756,1947,1190,-1351,-217,1568,-1527,-849,-263,751,1400,1342
819,2083,1263,-1451,-222,1673,-1629,-897,-326,761,1483,1449
897,2142,1244,-1520,-173,1693,-1712,-917,-424,717,1503,1503
1005,2147,1141,-1576,-68,1644,-1786,-897,-556,624,1493,1522
1132,2088,956,-1610,87,1522,-1839,-834,-727,502,1439,1498
1273,1966,692,-1620,290,1329,-1888,-751,-912,331,1332,1434
1381,1781,400,-1581,490,1090,-1912,-668,-1122,122,1176,1322
1503,1546,43,-1525,729,795,-1903,-566,-1332,-112,971,1180
1576,1293,-283,-1434,929,505,-1888,-492,-1537,-356,741,1019
1595,1039,-556,-1317,1076,241,-1825,-434,-1693,-595,497,844
1527,722,-805,-1124,1166,-41,-1693,-375,-1810,-819,234,644
1381,380,-1000,-880,1190,-309,-1498,-351,-1888,-1029,-39,444
1166,117,-1049,-641,1107,-466,-1298,-370,-1859,-1151,-224,312
897,4,-893,-451,895,-444,-1102,-439,-1708,-1117,-307,258
649,34,-614,-341,631,-290,-932,-502,-1464,-990,-278,292
502,136,-366,-319,434,-114,-780,-502,-1200,-805,-180,356
444,209,-234,-326,339,-12,-673,-448,-985,-644,-102,370
395,248,-146,-322,270,51,-595,-400,-854,-551,-53,370
346,248,-97,-297,222,75,-522,-346,-722,-473,-29,380
283,224,-58,-253,170,82,-434,-297,-600,-395,-19,336
209,170,-39,-190,124,65,-336,-229,-488,-341,-24,292
146,112,-34,-129,90,39,-244,-175,-380,-278,-48,224
107,73,-34,-90,70,19,-175,-131,-292,-229,-58,141
68,24,-43,-46,56,-9,-102,-112,-219,-190,-78,92
24,-29,-53,2,39,-41,-53,-82,-165,-156,-87,29
-14,-68,-53,41,19,-61,-4,-63,-126,-126,-78,-19
-48,-92,-43,70,-2,-68,39,-39,-102,-112,-73,-24
-68,-117,-48,92,-9,-82,68,-14,-68,-92,-63,-39
-78,-126,-48,102,-14,-87,82,0,-53,-92,-63,-39
-82,-141,-58,112,-12,-100,92,19,-39,-92,-82,-43
-82,-151,-68,117,-7,-109,102,24,-29,-82,-102,-63
-87,-156,-68,122,-9,-112,107,24,-19,-92,-117,-87
-87,-156,-68,122,-9,-112,107,19,-24,-78,-117,-107
-87,-156,-68,122,-9,-112,107,19,-24,-78,-102,-107
-87,-146,-58,117,-14,-102,107,19,-24,-68,-87,-97
-97,-146,-48,122,-24,-97,107,24,-24,-68,-73,-82
-87,-136,-48,112,-19,-92,107,29,-14,-68,-73,-73
-87,-136,-48,112,-19,-92,107,34,-4,-68,-78,-63
-87,-146,-58,117,-14,-102,112,34,4,-68,-97,-82
-78,-151,-73,114,-2,-112,112,34,4,-68,-107,-97
-73,-151,-78,112,2,-114,102,34,0,-68,-117,-107
-73,-151,-78,112,2,-114,102,34,0,-58,-107,-117
-73,-141,-68,107,-2,-104,102,29,0,-53,-87,-107
-82,-141,-58,112,-12,-100,102,29,0,-53,-68,-87
-87,-126,-39,107,-24,-82,112,34,4,-53,-68,-68
-87,-126,-39,107,-24,-82,112,34,4,-53,-73,-58
-82,-136,-53,109,-14,-95,112,39,14,-53,-92,-58
-78,-141,-63,109,-7,-102,112,39,14,-58,-102,-92
-73,-141,-68,107,-2,-104,112,29,4,-58,-107,-107
-68,-141,-73,104,2,-107,112,29,4,-58,-107,-117
-68,-131,-63,100,-2,-97,107,29,4,-58,-82,-117
-73,-126,-53,100,-9,-90,107,29,4,-48,-73,-87
-92,-126,-34,109,-29,-80,107,39,4,-48,-53,-73
-97,-126,-29,112,-34,-78,107,39,4,-48,-53,-63
-97,-126,-29,112,-34,-78,112,39,14,-48,-68,-53
-97,-131,-34,114,-31,-82,112,39,14,-48,-82,-73
-78,-131,-53,104,-12,-92,112,29,24,-48,-92,-87
-73,-141,-68,107,-2,-104,112,29,24,-48,-92,-97
-73,-131,-58,102,-7,-95,107,24,24,-48,-78,-107
-73,-122,-48,97,-12,-85,107,24,19,-43,-73,-87
-78,-117,-39,97,-19,-78,107,34,19,-34,-53,-73
-82,-112,-29,97,-26,-70,107,43,19,-43,-53,-58
-82,-112,-29,97,-26,-70,107,48,24,-43,-58,-58
-82,-122,-39,102,-21,-80,112,48,24,-43,-68,-63
-82,-126,-43,104,-19,-85,102,34,24,-39,-82,-82
-73,-126,-53,100,-9,-90,97,34,29,-39,-92,-92
-68,-122,-53,95,-7,-87,97,34,29,-29,-82,-102
-68,-112,-43,90,-12,-78,97,29,29,-24,-63,-87
-73,-107,-34,90,-19,-70,97,29,29,-19,-43,-68
-82,-102,-19,92,-31,-61,97,29,29,-19,-43,-58
-82,-102,-19,92,-31,-61,97,34,29,-19,-43,-48
-82,-107,-24,95,-29,-65,97,34,34,-19,-63,-48
-78,-107,-29,92,-24,-68,97,34,39,-19,-73,-78
-78,-112,-34,95,-21,-73,97,34,39,-19,-73,-82
-73,-112,-39,92,-17,-75,92,29,39,-14,-73,-82
-73,-102,-29,87,-21,-65,92,29,34,-14,-48,-82
-82,-92,-9,87,-36,-51,102,29,34,-4,-39,-58
-82,-92,-9,87,-36,-51,102,29,34,-4,-29,-48
-78,-82,-4,80,-36,-43,102,34,34,-4,-29,-39
-78,-82,-4,80,-36,-43,102,34,43,-4,-39,-39
-68,-82,-14,75,-26,-48,92,34,53,-4,-48,-63
-68,-92,-24,80,-21,-58,92,34,53,-9,-63,-73
-68,-92,-24,80,-21,-58,92,34,53,-9,-63,-82
-68,-87,-19,78,-24,-53,92,29,53,0,-48,-82
-68,-68,0,68,-34,-34,97,39,48,9,-43,-63
-73,-63,9,68,-41,-26,97,39,48,9,-19,-48
-73,-63,9,68,-41,-26,97,39,48,9,-19,-34
-73,-63,9,68,-41,-26,97,39,53,9,-29,-24
-73,-78,-4,75,-34,-41,87,43,63,0,-39,-39
-63,-78,-14,70,-24,-46,87,43,63,-9,-53,-53
-63,-73,-9,68,-26,-41,87,43,63,0,-53,-63
-63,-73,-9,68,-26,-41,87,43,63,9,-48,-73
-63,-53,9,58,-36,-21,92,39,53,9,-29,-58
-63,-48,14,56,-39,-17,92,39,53,19,-9,-39
-68,-43,24,56,-46,-9,92,39,53,19,-4,-29
-68,-43,24,56,-46,-9,92,39,53,19,-4,-19
-68,-53,14,61,-41,-19,82,43,63,9,-29,-19
-63,-53,9,58,-36,-21,82,43,68,9,-29,-43
-63,-53,9,58,-36,-21,82,43,73,9,-43,-43
-63,-53,9,58,-36,-21,82,43,73,19,-34,-58
-63,-43,19,53,-41,-12,82,43,68,29,-14,-58
-63,-39,24,51,-43,-7,82,39,68,34,-4,-34
-68,-34,34,51,-51,0,82,39,68,34,9,-24
-68,-34,34,51,-51,0,82,43,68,29,9,-14
-68,-24,43,46,-56,9,92,43,78,29,-4,-4
-63,-24,39,43,-51,7,92,48,87,29,-14,-24
-58,-24,34,41,-46,4,92,48,92,29,-24,-29
-58,-24,34,41,-46,4,92,48,92,29,-24,-43
-58,-14,43,36,-51,14,92,48,82,39,0,-43
-58,-9,48,34,-53,19,92,43,82,43,14,-29
-63,-4,58,34,-61,26,87,43,82,48,34,-14
-68,0,68,34,-68,34,87,43,82,48,34,0
-68,0,68,34,-68,34,87,43,87,43,19,9
-63,-4,58,34,-61,26,92,48,92,43,9,0
-63,-4,58,34,-61,26,92,48,97,43,4,-19
-63,-4,58,34,-61,26,92,43,102,43,4,-19
-73,4,78,34,-75,41,92,43,102,53,14,-29
-68,19,87,24,-78,53,87,39,102,58,29,-29
-68,24,92,21,-80,58,87,39,102,63,39,-4
-78,24,102,26,-90,63,87,39,102,63,48,4
-78,19,97,29,-87,58,82,39,102,63,29,9
-78,19,97,29,-87,58,82,43,112,63,19,9
-78,24,102,26,-90,63,82,43,117,63,14,-14
-73,24,97,24,-85,61,82,43,122,63,9,-24
-63,24,87,19,-75,56,82,43,122,78,19,-14
-63,39,102,12,-82,70,82,39,122,78,39,-14
-73,43,117,14,-95,80,82,39,122,87,48,9
-78,48,126,14,-102,87,87,39,126,87,58,19
-73,53,126,9,-100,90,87,39,122,87,58,24
-73,53,126,9,-100,90,87,43,131,87,53,34
-68,53,122,7,-95,87,87,43,136,92,43,14
-68,48,117,9,-92,82,87,43,136,92,29,9
-73,48,122,12,-97,85,87,29,146,92,43,-4
-73,58,131,7,-102,95,87,29,146,102,53,-4
-73,68,141,2,-107,104,87,29,146,107,63,9
-82,73,156,4,-119,114,92,29,151,112,78,24
-87,73,161,7,-124,117,92,39,146,112,78,34
-87,68,156,9,-122,112,92,39,151,112,73,34
-87,63,151,12,-119,107,92,39,156,112,63,29
-87,58,146,14,-117,102,97,39,161,112,53,19
-87,68,156,9,-122,112,97,39,165,117,53,14
-87,68,156,9,-122,112,97,39,170,126,63,14
-92,87,180,2,-136,134,97,34,170,131,78,14
-97,87,185,4,-141,136,102,34,170,136,87,39
-102,92,195,4,-148,143,112,34,180,131,97,48
-102,92,195,4,-148,143,112,34,185,131,87,58
-102,87,190,7,-146,139,112,34,190,131,78,48
-102,87,190,7,-146,139,112,34,195,131,73,39
-112,87,200,12,-156,143,112,29,200,131,63,34
-112,87,200,12,-156,143,122,29,204,136,63,19
-112,97,209,7,-161,153,122,24,204,136,78,19
-117,102,219,7,-168,161,126,24,204,146,87,43
-122,107,229,7,-175,168,126,24,209,151,102,53
-126,107,234,9,-180,170,136,24,219,151,102,63
-131,107,239,12,-185,173,141,24,224,151,87,63
-131,102,234,14,-183,168,141,24,229,151,82,48
-122,102,224,9,-173,163,141,24,234,151,78,43
-122,102,224,9,-173,163,141,24,234,161,78,39
-131,102,234,14,-183,168,141,14,234,161,82,39
-136,112,248,12,-192,180,151,14,239,161,92,48
-141,117,258,12,-200,187,156,24,239,180,107,68
-146,117,263,14,-204,190,161,29,248,180,117,78
-151,117,268,17,-209,192,165,29,253,180,107,78
-156,107,263,24,-209,185,170,29,258,180,97,73
-170,107,278,31,-224,192,170,19,263,175,82,63
-170,107,278,31,-224,192,170,14,263,175,78,48
-170,107,278,31,-224,192,170,14,263,180,78,48
-180,112,292,34,-236,202,170,9,263,180,92,48
-175,112,287,31,-231,200,170,9,263,180,97,58
-180,112,292,34,-236,202,180,9,273,185,112,68
-185,112,297,36,-241,204,185,9,278,185,102,78
-190,112,302,39,-246,207,190,9,283,185,92,68
-190,107,297,41,-244,202,190,19,287,175,87,53
-190,102,292,43,-241,197,190,19,287,175,73,43
-195,102,297,46,-246,200,200,9,287,175,73,39
-200,102,302,48,-251,202,200,9,287,175,87,39
-204,102,307,51,-256,204,209,14,287,175,92,53
-209,102,312,53,-261,207,209,14,287,180,92,53
-224,102,326,61,-275,214,209,14,297,180,92,58
-229,92,322,68,-275,207,219,19,297,180,82,58
-239,78,317,80,-278,197,219,19,297,170,73,48
-234,78,312,78,-273,195,219,19,297,170,63,34
-234,68,302,82,-268,185,229,14,297,170,53,24
-234,68,302,82,-268,185,229,9,297,170,63,14
-244,68,312,87,-278,190,229,9,292,170,63,24
-248,63,312,92,-280,187,229,9,292,170,73,34
-248,63,312,92,-280,187,229,9,292,165,73,39
-248,58,307,95,-278,183,229,9,287,161,63,39
-244,43,287,100,-265,165,229,9,287,161,48,29
-244,39,283,102,-263,161,229,9,278,151,29,4
-244,29,273,107,-258,151,234,9,273,146,19,0
-239,19,258,109,-248,139,234,9,273,141,19,-14
-239,9,248,114,-244,129,234,4,268,136,34,-4
-239,0,239,119,-239,119,234,4,263,131,34,0
-244,0,244,122,-244,122,234,4,258,131,34,0
-244,-4,239,124,-241,117,234,4,253,126,24,0
-248,-29,219,139,-234,95,229,4,248,112,0,-4
-248,-34,214,141,-231,90,229,4,244,102,-9,-19
-248,-43,204,146,-226,80,229,4,239,102,-19,-29
-248,-53,195,151,-222,70,229,4,234,97,-24,-39
-248,-58,190,153,-219,65,219,0,224,92,-14,-48
-248,-58,190,153,-219,65,214,0,214,87,-14,-39
-244,-63,180,153,-212,58,214,0,204,82,-14,-39
-244,-68,175,156,-209,53,214,0,195,78,-14,-34
-244,-68,175,156,-209,53,214,0,195,73,-34,-34
-234,-78,156,156,-195,39,214,0,190,68,-43,-43
-229,-82,146,156,-187,31,204,0,185,53,-53,-58
-219,-92,126,156,-173,17,200,0,175,53,-63,-78
-209,-92,117,151,-163,12,195,-4,165,58,-53,-78
-209,-97,112,153,-161,7,185,-4,156,53,-48,-73
-209,-102,107,156,-158,2,180,-4,151,48,-43,-68
-209,-102,107,156,-158,2,175,-4,141,43,-43,-68
-200,-92,107,146,-153,7,170,-14,136,39,-48,-68
-190,-102,87,146,-139,-7,170,-14,136,34,-63,-73
-185,-107,78,146,-131,-14,165,-14,136,29,-73,-73
-180,-112,68,146,-124,-21,161,-14,136,29,-73,-73
-185,-112,73,148,-129,-19,156,-14,131,24,-82,-82
-170,-112,58,141,-114,-26,146,-14,117,19,-68,-82
-161,-112,48,136,-104,-31,136,-14,107,14,-63,-73
-161,-107,53,134,-107,-26,136,-14,102,14,-63,-68
-146,-107,39,126,-92,-34,131,-14,92,-4,-73,-73
-136,-117,19,126,-78,-48,126,-9,87,-4,-78,-73
-131,-117,14,124,-73,-51,122,-9,82,-9,-82,-82
-126,-117,9,122,-68,-53,117,-9,78,-9,-92,-87
-122,-117,4,119,-63,-56,112,-14,82,-9,-92,-92
-112,-112,0,112,-56,-56,107,-14,78,-9,-82,-92
-107,-102,4,104,-56,-48,97,-9,73,-9,-73,-73
-97,-97,0,97,-48,-48,92,-9,73,-9,-58,-73
-92,-102,-9,97,-41,-56,87,0,68,-9,-58,-58
-82,-102,-19,92,-31,-61,82,0,68,-14,-73,-58
-78,-107,-29,92,-24,-68,73,0,58,-19,-78,-73
-73,-107,-34,90,-19,-70,68,0,58,-19,-78,-73
-68,-102,-34,85,-17,-68,63,-9,58,-19,-68,-73
-63,-92,-29,78,-17,-61,58,-14,53,-19,-58,-82
-58,-87,-29,73,-14,-58,53,-14,48,-19,-53,-68
-58,-82,-24,70,-17,-53,48,-9,39,-19,-48,-58
-58,-82,-24,70,-17,-53,43,0,39,-19,-39,-53
-58,-82,-24,70,-17,-53,43,0,43,-19,-39,-43
-48,-82,-34,65,-7,-58,39,0,43,-19,-48,-53
-39,-82,-43,61,2,-63,34,0,34,-19,-53,-63
-34,-73,-39,53,2,-56,39,-9,34,-19,-63,-68
-29,-73,-43,51,7,-58,34,-9,29,-19,-63,-68
-24,-58,-34,41,4,-46,29,-14,24,-19,-53,-68
-24,-58,-34,41,4,-46,29,-14,24,-19,-48,-53
-24,-63,-39,43,7,-51,24,0,24,-19,-34,-48
-19,-63,-43,41,12,-53,19,0,24,-19,-34,-34
-14,-63,-48,39,17,-56,19,0,24,-19,-48,-34
-9,-63,-53,36,21,-58,14,4,24,-24,-48,-43
-4,-68,-63,36,29,-65,14,4,24,-24,-58,-43
4,-68,-73,31,39,-70,9,0,24,-24,-58,-43
4,-58,-63,26,34,-61,4,0,14,-19,-43,-43
4,-53,-58,24,31,-56,4,0,14,-19,-43,-43
4,-53,-58,24,31,-56,4,0,4,-19,-39,-43
4,-48,-53,21,29,-51,4,0,4,-19,-39,-43
4,-48,-53,21,29,-51,4,0,4,-19,-34,-34
4,-48,-53,21,29,-51,4,0,0,-19,-34,-34
4,-48,-53,21,29,-51,4,0,9,-19,-29,-34
4,-48,-53,21,29,-51,0,0,9,-14,-29,-34
4,-48,-53,21,29,-51,0,0,9,-14,-29,-34
9,-48,-58,19,34,-53,0,0,9,-14,-29,-34
0,-39,-39,19,19,-39,0,0,9,-14,-29,-34
0,-39,-39,19,19,-39,0,0,9,-14,-29,-34
0,-39,-39,19,19,-39,0,0,9,-14,-29,-34
0,-39,-39,19,19,-39,0,0,9,-14,-29,-29
0,-48,-48,24,24,-48,9,0,9,-14,-29,-39
0,-48,-48,24,24,-48,9,0,9,-14,-29,-39
0,-48,-48,24,24,-48,9,0,9,-14,-29,-34
0,-43,-43,21,21,-43,9,0,9,-14,-29,-34
-9,-53,-43,31,17,-48,9,0,9,-14,-39,-34
-9,-53,-43,31,17,-48,9,0,9,-14,-39,-39
-9,-53,-43,31,17,-48,9,0,9,-14,-39,-39
-14,-53,-39,34,12,-46,9,0,9,-14,-34,-39
-24,-53,-29,39,2,-41,9,0,9,-14,-34,-39
-19,-53,-34,36,7,-43,9,0,9,-14,-34,-39
-19,-58,-39,39,9,-48,9,0,9,-14,-34,-39
-19,-58,-39,39,9,-48,9,0,9,-14,-34,-39
-24,-68,-43,46,9,-56,9,9,9,-14,-39,-39
-24,-68,-43,46,9,-56,9,9,9,-14,-39,-39
-24,-68,-43,46,9,-56,9,9,9,-19,-39,-39
-29,-73,-43,51,7,-58,9,9,9,-19,-39,-39
-29,-73,-43,51,7,-58,14,9,9,-19,-39,-39
-29,-73,-43,51,7,-58,14,9,9,-19,-39,-39
-29,-73,-43,51,7,-58,14,9,9,-19,-39,-39
-29,-78,-48,53,9,-63,14,9,9,-19,-39,-39
-29,-78,-48,53,9,-63,29,9,9,-19,-39,-39
-29,-78,-48,53,9,-63,29,9,9,-19,-43,-43
-34,-78,-43,56,4,-61,29,9,9,-19,-43,-43
-34,-78,-43,56,4,-61,29,9,9,-19,-43,-43
-24,-78,-53,51,14,-65,34,0,9,-19,-43,-43
-29,-78,-48,53,9,-63,34,4,9,-19,-43,-43
-29,-82,-53,56,12,-68,34,4,9,-19,-43,-43
-29,-82,-53,56,12,-68,34,4,9,-19,-43,-43
-29,-87,-58,58,14,-73,29,4,9,-19,-53,-43
-29,-87,-58,58,14,-73,29,4,9,-24,-53,-53
-29,-87,-58,58,14,-73,29,4,9,-24,-58,-53
-29,-87,-58,58,14,-73,29,4,9,-24,-58,-48
-29,-87,-58,58,14,-73,39,4,9,-24,-58,-58
-34,-87,-53,61,9,-70,39,4,9,-24,-58,-58
-34,-92,-58,63,12,-75,39,4,9,-24,-58,-58
-39,-92,-53,65,7,-73,43,4,9,-24,-58,-58
-39,-92,-53,65,7,-73,34,14,9,-24,-68,-53
-39,-92,-53,65,7,-73,39,14,9,-24,-68,-58
-39,-92,-53,65,7,-73,39,14,9,-29,-63,-58
-39,-92,-53,65,7,-73,39,14,9,-29,-63,-58
-48,-102,-53,75,2,-78,43,14,0,-29,-63,-68
-48,-102,-53,75,2,-78,43,14,0,-34,-63,-68
-48,-107,-58,78,4,-82,43,14,0,-34,-63,-68
-48,-112,-63,80,7,-87,48,14,0,-34,-68,-68
-48,-102,-53,75,2,-78,48,14,0,-34,-58,-68
-53,-102,-48,78,-2,-75,48,14,0,-34,-63,-73
-53,-102,-48,78,-2,-75,48,14,0,-34,-63,-73
-53,-102,-48,78,-2,-75,48,14,0,-34,-63,-73
-53,-107,-53,80,0,-80,39,4,0,-34,-63,-63
-53,-107,-53,80,0,-80,39,4,0,-39,-63,-63
-53,-107,-53,80,0,-80,43,9,0,-39,-63,-63
-53,-107,-53,80,0,-80,43,9,0,-39,-63,-63
-53,-107,-53,80,0,-80,43,9,-4,-39,-63,-63
-53,-107,-53,80,0,-80,43,9,-4,-39,-63,-68
-53,-112,-58,82,2,-85,43,9,-4,-39,-68,-68
-53,-112,-58,82,2,-85,39,9,-4,-43,-68,-73
-43,-122,-78,82,17,-100,48,19,-14,-53,-78,-73
-43,-122,-78,82,17,-100,48,19,-14,-53,-78,-73
-43,-126,-82,85,19,-104,48,19,-14,-53,-78,-73
-43,-126,-82,85,19,-104,48,19,-14,-53,-82,-73
-43,-126,-82,85,19,-104,48,19,-14,-53,-82,-73
-43,-126,-82,85,19,-104,48,19,-14,-53,-82,-73
-43,-126,-82,85,19,-104,48,19,-14,-58,-82,-73
-43,-131,-87,87,21,-109,48,19,-14,-58,-82,-78
-43,-131,-87,87,21,-109,48,19,-19,-58,-82,-78
-43,-131,-87,87,21,-109,48,19,-19,-58,-82,-78
-43,-131,-87,87,21,-109,48,19,-19,-58,-82,-78
-43,-131,-87,87,21,-109,48,19,-19,-58,-82,-78
-43,-122,-78,82,17,-100,48,19,-19,-58,-87,-78
-43,-122,-78,82,17,-100,48,19,-19,-58,-87,-78
-43,-122,-78,82,17,-100,48,19,-24,-58,-87,-78
-43,-122,-78,82,17,-100,48,19,-24,-58,-87,-78
-34,-122,-87,78,26,-104,48,19,-24,-58,-87,-87
-34,-122,-87,78,26,-104,48,19,-24,-58,-87,-87
-34,-122,-87,78,26,-104,48,19,-24,-58,-87,-87
-34,-122,-87,78,26,-104,48,19,-24,-63,-87,-87
-29,-122,-92,75,31,-107,39,19,-24,-53,-78,-87
-29,-122,-92,75,31,-107,39,19,-24,-53,-78,-87
-29,-122,-92,75,31,-107,39,19,-24,-53,-78,-87
-29,-122,-92,75,31,-107,39,19,-24,-53,-78,-87
-29,-122,-92,75,31,-107,39,19,-24,-63,-87,-87
-29,-122,-92,75,31,-107,39,19,-24,-63,-87,-87
-29,-122,-92,75,31,-107,34,19,-29,-63,-87,-87
-29,-122,-92,75,31,-107,34,19,-29,-63,-87,-87
-39,-122,-82,80,21,-102,34,19,-19,-63,-78,-87
-39,-122,-82,80,21,-102,34,19,-19,-63,-78,-87
-34,-122,-87,78,26,-104,34,19,-19,-63,-78,-87
-34,-122,-87,78,26,-104,34,19,-19,-63,-78,-87
-43,-122,-78,82,17,-100,34,19,-19,-63,-87,-87
-43,-122,-78,82,17,-100,34,19,-19,-63,-87,-87
-43,-122,-78,82,17,-100,34,19,-19,-63,-87,-87
-39,-122,-82,80,21,-102,34,19,-19,-63,-87,-87
-39,-122,-82,80,21,-102,34,19,-29,-63,-78,-87
-39,-122,-82,80,21,-102,34,19,-29,-63,-78,-87
-39,-122,-82,80,21,-102,34,19,-29,-63,-78,-87
-39,-122,-82,80,21,-102,34,19,-29,-63,-78,-87
-29,-122,-92,75,31,-107,34,19,-29,-63,-78,-87
-29,-117,-87,73,29,-102,39,19,-29,-58,-87,-87
-29,-117,-87,73,29,-102,39,19,-29,-68,-87,-87
-29,-117,-87,73,29,-102,39,19,-29,-68,-87,-87
-29,-117,-87,73,29,-102,39,19,-29,-68,-87,-87
-29,-117,-87,73,29,-102,39,19,-29,-68,-87,-87
-29,-117,-87,73,29,-102,29,19,-29,-68,-87,-87
-29,-117,-87,73,29,-102,29,19,-29,-68,-87,-87
-29,-117,-87,73,29,-102,29,19,-29,-68,-87,-87
-29,-117,-87,73,29,-102,29,19,-29,-68,-87,-87
-19,-117,-97,68,39,-107,29,19,-29,-58,-78,-87
-19,-117,-97,68,39,-107,29,19,-29,-58,-78,-87
-19,-117,-97,68,39,-107,29,19,-29,-58,-78,-87
-19,-117,-97,68,39,-107,29,19,-29,-58,-78,-87
-19,-117,-97,68,39,-107,29,19,-29,-58,-78,-78
-19,-117,-97,68,39,-107,29,19,-29,-58,-78,-78
-19,-117,-97,68,39,-107,29,19,-29,-58,-78,-78
-19,-117,-97,68,39,-107,29,19,-29,-58,-78,-78
-19,-117,-97,68,39,-107,29,19,-29,-58,-78,-78
-19,-117,-97,68,39,-107,29,19,-29,-58,-78,-78
-19,-117,-97,68,39,-107,29,19,-29,-58,-78,-78
-19,-117,-97,68,39,-107,29,19,-29,-58,-78,-78
-19,-117,-97,68,39,-107,29,19,-29,-68,-87,-78
-19,-117,-97,68,39,-107,29,19,-29,-68,-87,-78
-19,-117,-97,68,39,-107,29,19,-29,-68,-87,-78
-19,-117,-97,68,39,-107,29,19,-29,-68,-87,-78
-19,-126,-107,73,43,-117,29,19,-29,-68,-87,-87
-19,-126,-107,73,43,-117,29,19,-29,-68,-87,-87
-19,-126,-107,73,43,-117,29,19,-29,-68,-87,-87
-19,-126,-107,73,43,-117,29,19,-29,-68,-87,-87
-19,-117,-97,68,39,-107,29,19,-29,-58,-82,-78
-19,-117,-97,68,39,-107,29,19,-29,-58,-78,-78
-19,-117,-97,68,39,-107,29,19,-29,-58,-73,-78
-19,-117,-97,68,39,-107,29,19,-29,-58,-68,-78
-19,-107,-87,63,34,-97,19,19,-29,-58,-68,-78
-19,-107,-87,63,34,-97,19,19,-29,-58,-68,-78
-19,-107,-87,63,34,-97,19,19,-29,-58,-68,-78
-19,-107,-87,63,34,-97,19,19,-29,-58,-68,-78
-9,-107,-97,58,43,-102,19,19,-29,-58,-68,-78
-9,-107,-97,58,43,-102,19,19,-29,-58,-68,-78
-9,-107,-97,58,43,-102,19,19,-29,-58,-68,-78
-9,-107,-97,58,43,-102,19,19,-29,-58,-68,-78
-9,-107,-97,58,43,-102,19,19,-29,-68,-78,-78
-9,-107,-97,58,43,-102,19,19,-29,-68,-78,-78
-9,-107,-97,58,43,-102,19,19,-29,-68,-78,-78
-9,-107,-97,58,43,-102,19,19,-29,-68,-78,-78
-9,-107,-97,58,43,-102,29,19,-29,-58,-78,-78
-9,-107,-97,58,43,-102,29,19,-29,-58,-78,-78
-9,-107,-97,58,43,-102,29,19,-29,-58,-78,-78
-9,-107,-97,58,43,-102,29,19,-29,-58,-78,-78
-9,-107,-97,58,43,-102,29,19,-29,-58,-68,-78
-9,-107,-97,58,43,-102,29,19,-29,-58,-68,-78
-9,-107,-97,58,43,-102,29,19,-29,-58,-68,-78
-9,-107,-97,58,43,-102,29,19,-29,-58,-68,-78
-9,-107,-97,58,43,-102,29,19,-29,-58,-68,-78
-9,-107,-97,58,43,-102,29,19,-29,-58,-68,-78
-9,-107,-97,58,43,-102,29,19,-29,-58,-68,-78
-9,-107,-97,58,43,-102,29,19,-29,-58,-68,-78
0,-97,-97,48,48,-97,19,19,-29,-58,-68,-78
0,-97,-97,48,48,-97,19,19,-29,-58,-68,-78
0,-97,-97,48,48,-97,19,19,-29,-58,-68,-78
0,-97,-97,48,48,-97,19,19,-29,-58,-68,-78
-9,-97,-87,53,39,-92,19,19,-29,-58,-68,-78
-9,-97,-87,53,39,-92,19,19,-29,-58,-68,-78
-9,-97,-87,53,39,-92,19,19,-29,-58,-68,-78
-9,-97,-87,53,39,-92,19,19,-29,-58,-68,-78
0,-97,-97,48,48,-97,19,19,-29,-58,-68,-78
0,-97,-97,48,48,-97,19,19,-29,-58,-68,-78
0,-97,-97,48,48,-97,19,19,-29,-58,-68,-78
0,-97,-97,48,48,-97,19,19,-29,-58,-68,-78
0,-107,-107,53,53,-107,19,19,-29,-58,-68,-78
0,-107,-107,53,53,-107,19,19,-29,-58,-68,-78
0,-107,-107,53,53,-107,19,19,-29,-58,-68,-78
0,-107,-107,53,53,-107,19,19,-29,-58,-68,-78
0,-107,-107,53,53,-107,19,29,-29,-58,-68,-78
0,-107,-107,53,53,-107,19,29,-29,-58,-68,-78
0,-107,-107,53,53,-107,19,29,-29,-58,-68,-78
0,-107,-107,53,53,-107,19,29,-29,-58,-68,-78
0,-107,-107,53,53,-107,19,29,-29,-58,-68,-68
0,-107,-107,53,53,-107,19,29,-29,-58,-68,-68
0,-107,-107,53,53,-107,19,29,-29,-58,-68,-68
0,-107,-107,53,53,-107,19,29,-29,-58,-68,-68
0,-97,-97,48,48,-97,19,29,-29,-48,-58,-68
0,-97,-97,48,48,-97,19,29,-29,-48,-58,-68
0,-97,-97,48,48,-97,19,29,-29,-48,-58,-68
0,-97,-97,48,48,-97,19,29,-29,-48,-58,-68
0,-97,-97,48,48,-97,19,19,-29,-48,-58,-68
0,-97,-97,48,48,-97,19,19,-29,-48,-58,-68
0,-97,-97,48,48,-97,19,19,-29,-48,-58,-68
0,-97,-97,48,48,-97,19,19,-29,-48,-58,-68
0,-87,-87,43,43,-87,19,19,-29,-48,-58,-68
0,-87,-87,43,43,-87,19,19,-29,-48,-58,-68
0,-87,-87,43,43,-87,19,19,-29,-48,-58,-68
0,-87,-87,43,43,-87,19,19,-29,-48,-58,-68
0,-97,-97,48,48,-97,29,19,-29,-48,-58,-68
0,-97,-97,48,48,-97,29,19,-29,-48,-58,-68
0,-97,-97,48,48,-97,29,19,-29,-48,-58,-68
0,-97,-97,48,48,-97,29,19,-29,-48,-58,-68
0,-87,-87,43,43,-87,29,29,-19,-39,-58,-68
0,-87,-87,43,43,-87,29,29,-19,-39,-58,-68
0,-87,-87,43,43,-87,29,29,-19,-39,-58,-68
0,-87,-87,43,43,-87,29,29,-19,-39,-58,-68
9,-78,-87,34,48,-82,39,29,-9,-29,-48,-58
9,-78,-87,34,48,-82,39,29,-9,-29,-48,-58
9,-78,-87,34,48,-82,39,29,-9,-29,-48,-58
9,-78,-87,34,48,-82,39,29,-9,-29,-48,-58
19,-73,-92,26,56,-82,48,39,-4,-19,-39,-48
19,-68,-87,24,53,-78,48,39,0,-19,-39,-48
19,-63,-82,21,51,-73,48,39,4,-19,-39,-48
19,-58,-78,19,48,-68,48,39,9,-19,-39,-48
29,-53,-82,12,56,-68,48,39,19,-9,-29,-43
29,-48,-78,9,53,-63,48,39,19,-9,-29,-39
29,-43,-73,7,51,-58,48,39,19,-9,-29,-34
29,-39,-68,4,48,-53,48,39,19,-9,-29,-29
39,-34,-73,-2,56,-53,43,48,29,-4,-19,-29
39,-29,-68,-4,53,-48,39,48,29,0,-19,-29
39,-24,-63,-7,51,-43,34,48,29,4,-19,-29
39,-19,-58,-9,48,-39,29,48,29,9,-19,-29
39,-14,-53,-12,46,-34,14,39,39,9,-14,-19
39,-9,-48,-14,43,-29,9,39,39,9,-9,-19
39,-4,-43,-17,41,-24,4,39,39,9,-4,-19
39,0,-39,-19,39,-19,0,39,39,9,0,-19
48,9,-39,-29,43,-14,-14,29,39,9,0,-19
48,9,-39,-29,43,-14,-19,29,39,9,0,-19
48,9,-39,-29,43,-14,-24,29,39,9,0,-19
48,9,-39,-29,43,-14,-29,29,39,9,0,-19
39,9,-29,-24,34,-9,-34,19,29,9,-9,-19
39,9,-29,-24,34,-9,-39,19,29,9,-9,-19
39,9,-29,-24,34,-9,-43,19,29,9,-9,-19
39,9,-29,-24,34,-9,-48,19,29,9,-9,-19
39,4,-34,-21,36,-14,-48,9,19,0,-19,-29
39,0,-39,-19,39,-19,-48,9,19,0,-19,-29
39,-4,-43,-17,41,-24,-48,9,19,0,-19,-29
39,-9,-48,-14,43,-29,-48,9,19,-4,-19,-29
39,-14,-53,-12,46,-34,-48,9,9,-9,-19,-24
39,-19,-58,-9,48,-39,-48,9,4,-9,-19,-24
34,-19,-53,-7,43,-36,-48,9,4,-9,-24,-24
34,-19,-53,-7,43,-36,-48,9,4,-9,-24,-24
34,-19,-53,-7,43,-36,-39,14,-4,-14,-29,-24
34,-29,-63,-2,48,-46,-34,14,-4,-19,-29,-24
34,-29,-63,-2,48,-46,-34,14,-9,-19,-29,-29
34,-34,-68,0,51,-51,-34,14,-14,-24,-34,-29
34,-34,-68,0,51,-51,-39,9,-14,-19,-34,-29
34,-34,-68,0,51,-51,-39,9,-19,-19,-34,-29
34,-34,-68,0,51,-51,-39,9,-19,-24,-34,-34
34,-34,-68,0,51,-51,-39,9,-24,-24,-34,-34
34,-34,-68,0,51,-51,-34,9,-14,-24,-39,-34
34,-34,-68,0,51,-51,-34,9,-19,-24,-39,-34
34,-39,-73,2,53,-56,-34,9,-19,-29,-39,-34
34,-39,-73,2,53,-56,-34,9,-24,-29,-39,-34
24,-39,-63,7,43,-51,-34,9,-29,-29,-39,-34
24,-39,-63,7,43,-51,-34,9,-29,-29,-39,-34
24,-43,-68,9,46,-56,-34,9,-29,-34,-39,-34
19,-48,-68,14,43,-58,-29,4,-29,-34,-43,-39
19,-53,-73,17,46,-63,-19,14,-29,-34,-43,-39
19,-58,-78,19,48,-68,-19,14,-29,-34,-43,-39
14,-58,-73,21,43,-65,-19,14,-34,-43,-43,-39
14,-63,-78,24,46,-70,-9,14,-39,-43,-53,-43
14,-73,-87,29,51,-80,-9,19,-39,-48,-53,-43
9,-78,-87,34,48,-82,-9,19,-39,-48,-58,-53
4,-87,-92,41,48,-90,0,19,-43,-53,-63,-58
4,-92,-97,43,51,-95,0,19,-43,-53,-63,-63
0,-102,-102,51,51,-102,4,24,-53,-63,-63,-68
0,-112,-112,56,56,-112,9,24,-53,-68,-68,-68
-4,-117,-112,61,53,-114,14,24,-53,-68,-68,-68
-9,-122,-112,65,51,-117,19,29,-58,-73,-78,-78
-19,-126,-107,73,43,-117,19,19,-58,-63,-82,-87
-19,-131,-112,75,46,-122,24,19,-58,-68,-82,-87
-19,-136,-117,78,48,-126,24,19,-58,-68,-82,-87
-19,-141,-122,80,51,-131,24,24,-58,-68,-82,-92
-14,-136,-122,75,53,-129,24,24,-48,-68,-82,-82
-14,-136,-122,75,53,-129,24,24,-53,-68,-82,-82
-14,-136,-122,75,53,-129,24,24,-53,-68,-82,-82
-19,-136,-117,78,48,-126,29,24,-53,-68,-87,-87
-19,-136,-117,78,48,-126,19,24,-53,-73,-87,-87
-19,-136,-117,78,48,-126,19,24,-53,-73,-87,-87
-19,-136,-117,78,48,-126,19,24,-53,-73,-87,-87
-19,-136,-117,78,48,-126,19,24,-53,-73,-87,-87
-9,-136,-126,73,58,-131,29,24,-53,-73,-87,-87
-9,-136,-126,73,58,-131,29,24,-53,-73,-87,-87
-9,-136,-126,73,58,-131,29,24,-53,-73,-87,-92
-9,-136,-126,73,58,-131,29,24,-53,-73,-87,-92
-9,-136,-126,73,58,-131,19,24,-53,-73,-87,-82
-9,-136,-126,73,58,-131,19,24,-53,-73,-87,-82
-9,-136,-126,73,58,-131,19,24,-53,-73,-87,-78
-9,-136,-126,73,58,-131,24,24,-53,-73,-87,-78
-19,-126,-107,73,43,-117,24,29,-53,-73,-87,-78
-19,-126,-107,73,43,-117,24,29,-53,-73,-87,-78
-19,-126,-107,73,43,-117,24,29,-53,-73,-87,-78
-19,-126,-107,73,43,-117,24,29,-53,-73,-87,-78
-9,-126,-117,68,53,-122,24,29,-43,-63,-78,-78
-9,-126,-117,68,53,-122,24,29,-43,-63,-78,-78
-9,-126,-117,68,53,-122,24,29,-43,-63,-78,-78
-9,-126,-117,68,53,-122,24,29,-43,-63,-78,-78
-9,-126,-117,68,53,-122,24,29,-43,-73,-78,-78
-9,-126,-117,68,53,-122,24,29,-43,-73,-78,-78
-9,-126,-117,68,53,-122,24,29,-43,-73,-78,-78
-9,-122,-112,65,51,-117,24,29,-43,-73,-78,-78
-14,-131,-117,73,51,-124,24,29,-53,-73,-87,-78
-14,-131,-117,73,51,-124,24,29,-53,-73,-87,-78
-14,-131,-117,73,51,-124,24,29,-48,-73,-87,-78
-14,-131,-117,73,51,-124,24,29,-48,-73,-87,-78
-14,-136,-122,75,53,-129,24,29,-48,-68,-82,-87
-14,-136,-122,75,53,-129,24,29,-48,-68,-82,-87
-14,-136,-122,75,53,-129,24,29,-48,-68,-82,-87
-14,-136,-122,75,53,-129,24,29,-48,-68,-82,-87
-14,-126,-112,70,48,-119,34,39,-48,-58,-73,-73
-14,-126,-112,70,48,-119,34,39,-39,-58,-73,-73
-14,-126,-112,70,48,-119,29,39,-39,-58,-73,-73
-4,-117,-112,61,53,-114,29,34,-39,-58,-73,-73
0,-102,-102,51,51,-102,24,34,-39,-48,-63,-63
0,-87,-87,43,43,-87,24,48,-14,-24,-43,-58
14,-48,-63,17,39,-56,29,58,24,14,-9,-43
29,-9,-39,-9,34,-24,29,63,53,48,29,-19
48,39,-9,-43,29,14,19,82,82,87,58,9
73,78,4,-75,34,41,9,87,122,131,92,29
97,122,24,-109,36,73,-14,97,151,170,131,58
107,170,63,-139,21,117,-48,78,170,209,170,82
126,224,97,-175,14,161,-92,63,180,239,224,117
151,273,122,-212,14,197,-136,34,185,283,258,146
180,341,161,-261,9,251,-195,14,195,326,317,190
219,444,224,-331,-2,334,-278,-19,214,375,400,253
258,561,302,-409,-21,431,-361,-68,224,448,497,331
307,692,385,-500,-39,539,-463,-131,224,512,585,419
351,800,448,-575,-48,624,-566,-180,204,551,673,497
395,922,527,-658,-65,724,-668,-248,185,595,761,590
463,1078,614,-771,-75,846,-795,-322,136,639,863,697
527,1244,717,-885,-95,980,-956,-429,82,673,961,819
590,1410,819,-1000,-114,1115,-1102,-517,29,707,1083,941
658,1576,917,-1117,-129,1246,-1220,-590,0,751,1190,1068
722,1742,1019,-1232,-148,1381,-1346,-658,-39,790,1288,1180
785,1873,1088,-1329,-151,1481,-1464,-732,-82,810,1381,1288
849,2010,1161,-1429,-156,1586,-1571,-795,-136,819,1449,1385
902,2152,1249,-1527,-173,1700,-1693,-878,-214,819,1527,1498
976,2269,1293,-1622,-158,1781,-1786,-927,-297,800,1571,1576
1054,2318,1263,-1686,-104,1790,-1869,-936,-414,727,1571,1620
1151,2303,1151,-1727,0,1727,-1932,-927,-575,624,1542,1620
1268,2215,946,-1742,161,1581,-1976,-873,-756,473,1468,1595
1371,2064,692,-1717,339,1378,-1995,-780,-961,292,1342,1512
1439,1859,419,-1649,509,1139,-1981,-707,-1151,73,1166,1390
1512,1615,102,-1564,705,858,-1952,-624,-1342,-161,961,1249
1556,1361,-195,-1459,875,583,-1898,-551,-1517,-375,741,1098
1537,1117,-419,-1327,978,348,-1815,-502,-1644,-585,507,922
1439,810,-629,-1124,1034,90,-1673,-463,-1732,-790,273,722
1263,488,-775,-875,1019,-143,-1459,-429,-1771,-961,19,531
1029,234,-795,-631,912,-280,-1239,-458,-1722,-1063,-175,400
732,122,-610,-427,671,-244,-1034,-527,-1542,-1000,-229,356
463,161,-302,-312,383,-70,-844,-580,-1268,-844,-180,400
307,273,-34,-290,170,119,-692,-580,-985,-639,-73,453
248,346,97,-297,75,222,-585,-527,-771,-468,14,478
229,395,165,-312,31,280,-517,-468,-629,-356,63,478
190,385,195,-287,-2,290,-444,-405,-517,-287,97,468
156,351,195,-253,-19,273,-366,-317,-424,-239,97,414
112,278,165,-195,-26,222,-278,-248,-331,-195,63,341
58,180,122,-119,-31,151,-185,-175,-263,-170,19,263
29,102,73,-65,-21,87,-117,-122,-195,-141,-19,170
0,34,34,-17,-17,34,-53,-82,-141,-112,-48,92
-34,-29,4,31,-19,-12,4,-53,-97,-87,-68,29
-63,-78,-14,70,-24,-46,43,-24,-78,-87,-68,-29
-87,-102,-14,95,-36,-58,78,0,-63,-73,-73,-43
-97,-136,-39,117,-29,-87,107,14,-48,-63,-63,-68
-107,-146,-39,126,-34,-92,122,29,-43,-73,-63,-58
-112,-161,-48,136,-31,-104,131,48,-29,-73,-82,-63
-102,-170,-68,136,-17,-119,131,53,-29,-73,-102,-82
-97,-175,-78,136,-9,-126,126,53,-29,-82,-117,-87
-87,-175,-87,131,0,-131,126,39,-34,-78,-126,-117
-87,-175,-87,131,0,-131,126,39,-34,-78,-112,-117
-87,-165,-78,126,-4,-122,126,39,-34,-68,-97,-107
-97,-165,-68,131,-14,-117,126,43,-34,-68,-82,-92
-97,-165,-68,131,-14,-117,126,48,-43,-68,-82,-82
-97,-165,-68,131,-14,-117,126,53,-34,-68,-87,-73
-97,-175,-78,136,-9,-126,131,53,-24,-68,-107,-92
-87,-180,-92,134,2,-136,131,53,-24,-68,-117,-107
-73,-180,-107,126,17,-143,122,53,-29,-68,-126,-117
-73,-180,-107,126,17,-143,122,53,-29,-58,-117,-126
-73,-170,-97,122,12,-134,122,48,-29,-53,-97,-117
-82,-170,-87,126,2,-129,122,48,-29,-53,-78,-97
-97,-156,-58,126,-19,-107,122,53,-14,-53,-68,-78
-97,-156,-58,126,-19,-107,122,53,-14,-53,-73,-68
-92,-165,-73,129,-9,-119,122,58,-4,-53,-92,-68
-87,-170,-82,129,-2,-126,122,58,-4,-58,-102,-102
-73,-170,-97,122,12,-134,131,48,-14,-58,-117,-117
-68,-170,-102,119,17,-136,131,48,-14,-58,-117,-126
-68,-161,-92,114,12,-126,126,48,-14,-58,-92,-126
-73,-156,-82,114,4,-119,126,48,-14,-48,-82,-97
-82,-146,-63,114,-9,-104,126,58,-14,-48,-63,-92
-87,-146,-58,117,-14,-102,126,58,-14,-48,-63,-82
-87,-146,-58,117,-14,-102,131,58,-4,-48,-78,-73
-87,-151,-63,119,-12,-107,131,58,-4,-48,-92,-92
-78,-151,-73,114,-2,-112,131,48,-4,-58,-112,-107
-73,-161,-87,117,7,-124,131,48,-4,-58,-112,-117
-73,-151,-78,112,2,-114,126,43,-4,-58,-97,-126
-73,-141,-68,107,-2,-104,126,43,-9,-53,-92,-107
-78,-146,-68,112,-4,-107,126,53,-9,-43,-63,-92
-82,-141,-58,112,-12,-100,126,63,-9,-53,-63,-78
-82,-141,-58,112,-12,-100,126,68,-4,-53,-68,-78
-82,-151,-68,117,-7,-109,131,68,-4,-53,-78,-82
-92,-156,-63,124,-14,-109,122,63,-4,-58,-102,-102
-82,-156,-73,119,-4,-114,117,63,0,-58,-112,-112
-78,-151,-73,114,-2,-112,117,63,0,-48,-102,-122
-78,-141,-63,109,-7,-102,117,58,0,-43,-82,-107
-82,-136,-53,109,-14,-95,117,58,0,-39,-53,-78
-92,-131,-39,112,-26,-85,117,58,0,-39,-53,-68
-92,-131,-39,112,-26,-85,117,63,0,-39,-53,-58
-92,-136,-43,114,-24,-90,117,63,4,-39,-73,-58
-87,-136,-48,112,-19,-92,117,63,19,-29,-82,-87
-87,-141,-53,114,-17,-97,117,63,19,-29,-82,-92
-82,-141,-58,112,-12,-100,112,58,19,-24,-82,-92
-82,-131,-48,107,-17,-90,112,58,14,-24,-58,-92
-82,-122,-39,102,-21,-80,112,58,14,-14,-48,-68
-82,-122,-39,102,-21,-80,112,58,14,-14,-39,-58
-78,-112,-34,95,-21,-73,112,63,14,-14,-39,-48
-78,-112,-34,95,-21,-73,112,63,24,-14,-48,-48
-68,-122,-53,95,-7,-87,112,63,24,-24,-68,-73
-68,-131,-63,100,-2,-97,112,63,24,-29,-82,-82
-68,-131,-63,100,-2,-97,112,63,24,-29,-82,-92
-68,-126,-58,97,-4,-92,112,58,24,-19,-68,-92
-78,-107,-29,92,-24,-68,117,58,19,-19,-53,-82
-82,-102,-19,92,-31,-61,117,58,19,-19,-29,-68
-82,-102,-19,92,-31,-61,117,58,19,-19,-29,-53
-82,-102,-19,92,-31,-61,117,58,24,-19,-39,-43
-82,-107,-24,95,-29,-65,117,63,24,-9,-48,-48
-73,-107,-34,90,-19,-70,117,63,24,-19,-63,-63
-73,-102,-29,87,-21,-65,117,63,24,-9,-63,-73
-73,-102,-29,87,-21,-65,117,63,24,0,-58,-82
-63,-92,-29,78,-17,-61,112,58,24,-9,-48,-78
-63,-87,-24,75,-19,-56,112,58,24,0,-29,-58
-68,-82,-14,75,-26,-48,112,58,24,0,-24,-48
-68,-82,-14,75,-26,-48,112,58,24,0,-24,-39
-68,-92,-24,80,-21,-58,102,63,34,-9,-48,-39
-63,-92,-29,78,-17,-61,102,63,39,-9,-48,-63
-63,-92,-29,78,-17,-61,102,63,43,-9,-63,-63
-63,-92,-29,78,-17,-61,102,63,43,0,-53,-78
-63,-82,-19,73,-21,-51,102,63,48,0,-34,-78
-63,-78,-14,70,-24,-46,102,58,48,4,-24,-53
-68,-73,-4,70,-31,-39,102,58,48,4,-9,-43
-68,-73,-4,70,-31,-39,102,63,48,0,-9,-34
-78,-63,14,70,-46,-24,102,53,48,9,-14,-24
-73,-63,9,68,-41,-26,102,58,58,9,-24,-43
-68,-63,4,65,-36,-29,102,58,63,9,-34,-48
-68,-63,4,65,-36,-29,102,58,63,9,-34,-63
-58,-63,-4,61,-26,-34,112,58,63,19,-19,-63
-58,-58,0,58,-29,-29,112,53,63,24,-4,-48
-63,-53,9,58,-36,-21,107,53,63,29,14,-34
-68,-48,19,58,-43,-14,107,53,63,29,14,-19
-78,-39,39,58,-58,0,107,53,68,34,9,-9
-73,-43,29,58,-51,-7,112,58,73,34,0,-19
-73,-43,29,58,-51,-7,112,58,78,34,-4,-39
-73,-43,29,58,-51,-7,112,53,82,34,-4,-39
-63,-34,29,48,-46,-2,112,53,82,43,-4,-39
-58,-19,39,39,-48,9,107,48,82,48,9,-39
-58,-14,43,36,-51,14,107,48,82,53,19,-14
-68,-14,53,41,-61,19,107,48,82,53,29,-4
-78,-19,58,48,-68,19,112,48,82,53,29,9
-78,-19,58,48,-68,19,112,53,92,53,19,9
-78,-14,63,46,-70,24,112,53,97,53,14,-14
-73,-14,58,43,-65,21,112,53,102,53,9,-24
-73,-24,48,48,-61,12,112,53,102,58,9,-24
-73,-9,63,41,-68,26,112,48,102,58,29,-24
-82,-4,78,43,-80,36,112,48,102,68,39,0
-87,0,87,43,-87,43,117,48,107,68,48,9
-92,4,97,43,-95,51,126,58,112,68,48,24
-92,4,97,43,-95,51,126,63,122,68,43,34
-87,4,92,41,-90,48,126,63,126,73,34,14
-87,0,87,43,-87,43,126,63,126,73,19,9
-82,0,82,41,-82,41,126,48,126,73,34,-14
-82,9,92,36,-87,51,126,48,126,82,43,-14
-82,19,102,31,-92,61,126,48,126,87,53,0
-92,24,117,34,-104,70,131,48,131,92,68,14
-97,19,117,39,-107,68,122,58,136,92,68,24
-97,19,117,39,-107,68,122,58,141,92,63,24
-97,19,117,39,-107,68,122,58,146,92,53,19
-97,19,117,39,-107,68,126,58,151,92,43,9
-87,29,117,29,-102,73,126,48,156,97,34,4
-87,29,117,29,-102,73,126,48,161,107,43,4
-92,48,141,21,-117,95,126,43,161,112,58,4
-97,48,146,24,-122,97,131,43,161,117,68,29
-112,53,165,29,-139,109,131,53,170,131,78,39
-112,53,165,29,-139,109,131,53,175,131,68,48
-112,48,161,31,-136,104,131,53,180,131,58,39
-112,48,161,31,-136,104,131,53,185,131,53,29
-102,48,151,26,-126,100,131,48,190,131,43,24
-102,48,151,26,-126,100,141,48,195,136,43,9
-102,58,161,21,-131,109,141,43,195,136,58,9
-107,63,170,21,-139,117,146,43,195,146,68,34
-122,68,190,26,-156,129,136,43,200,151,82,43
-126,68,195,29,-161,131,146,43,209,151,82,53
-131,68,200,31,-165,134,151,43,214,151,68,53
-131,63,195,34,-163,129,151,43,219,151,63,39
-122,63,185,29,-153,124,151,43,224,151,58,34
-122,63,185,29,-153,124,151,43,224,161,58,29
-131,63,195,34,-163,129,151,34,224,161,63,29
-136,73,209,31,-173,141,161,34,229,161,73,39
-141,87,229,26,-185,158,156,24,239,170,87,48
-146,87,234,29,-190,161,161,29,248,170,97,58
-151,87,239,31,-195,163,165,29,253,170,87,58
-156,78,234,39,-195,156,170,29,258,170,78,53
-161,68,229,46,-195,148,180,29,263,156,63,43
-161,68,229,46,-195,148,180,24,263,156,58,29
-161,68,229,46,-195,148,180,24,263,161,58,29
-170,73,244,48,-207,158,180,19,263,161,73,29
-175,82,258,46,-217,170,180,19,253,161,78,48
-180,82,263,48,-222,173,190,19,263,165,92,58
-185,82,268,51,-226,175,195,19,268,165,82,68
-190,82,273,53,-231,178,200,19,273,165,73,58
-190,68,258,61,-224,163,200,19,278,165,68,43
-190,63,253,63,-222,158,200,19,278,165,53,34
-195,63,258,65,-226,161,209,9,278,165,53,29
-200,63,263,68,-231,163,209,9,278,165,68,29
-204,73,278,65,-241,175,209,14,278,165,73,34
-209,73,283,68,-246,178,209,14,278,170,73,34
-224,73,297,75,-261,185,209,14,287,170,73,39
-229,63,292,82,-261,178,219,19,287,170,63,39
-239,48,287,95,-263,168,219,19,287,161,53,29
-234,48,283,92,-258,165,219,19,287,161,43,14
-234,39,273,97,-253,156,229,14,287,161,34,4
-234,39,273,97,-253,156,229,9,287,161,43,-4
-244,39,283,102,-263,161,229,9,283,161,43,4
-248,34,283,107,-265,158,229,9,283,161,53,14
-248,34,283,107,-265,158,229,9,283,156,53,19
-248,29,278,109,-263,153,229,9,278,151,43,19
-253,4,258,124,-256,131,239,9,278,141,29,9
-253,0,253,126,-253,126,239,9,268,131,9,-14
-253,-9,244,131,-248,117,244,9,263,126,0,-19
-248,-19,229,134,-239,104,244,9,263,122,0,-34
-239,-19,219,129,-229,100,234,4,258,117,-4,-34
-239,-29,209,134,-224,90,234,4,253,112,-4,-29
-244,-29,214,136,-229,92,234,4,248,112,-4,-29
-244,-34,209,139,-226,87,234,4,244,107,-14,-29
-248,-58,190,153,-219,65,239,14,239,92,-29,-43
-248,-63,185,156,-217,61,239,14,234,82,-39,-58
-248,-73,175,161,-212,51,239,14,229,82,-48,-68
-248,-82,165,165,-207,41,239,14,224,78,-53,-78
-248,-87,161,168,-204,36,229,0,204,73,-53,-87
-248,-87,161,168,-204,36,224,0,195,68,-53,-78
-244,-92,151,168,-197,29,224,0,185,63,-53,-78
-244,-97,146,170,-195,24,224,0,175,58,-53,-73
-244,-97,146,170,-195,24,224,0,185,53,-63,-63
-234,-107,126,170,-180,9,224,0,180,48,-73,-73
-229,-112,117,170,-173,2,214,0,175,34,-82,-87
-219,-122,97,170,-158,-12,209,0,165,34,-92,-107
-209,-122,87,165,-148,-17,204,4,156,39,-92,-107
-209,-126,82,168,-146,-21,195,4,146,34,-87,-102
-209,-131,78,170,-143,-26,190,4,141,29,-82,-97
-209,-131,78,170,-143,-26,185,4,131,24,-82,-97
-209,-131,78,170,-143,-26,180,4,131,19,-87,-92
-200,-141,58,170,-129,-41,180,4,126,14,-102,-102
-195,-146,48,170,-122,-48,175,4,122,9,-112,-107
-190,-151,39,170,-114,-56,170,4,117,9,-112,-112
-195,-151,43,173,-119,-53,165,4,112,4,-112,-122
-180,-151,29,165,-104,-61,156,4,97,0,-97,-122
-170,-151,19,161,-95,-65,146,4,87,-4,-92,-112
-170,-146,24,158,-97,-61,146,4,82,-4,-92,-107
-165,-136,29,151,-97,-53,131,14,82,-14,-102,-102
-156,-146,9,151,-82,-68,126,19,78,-14,-107,-102
-151,-146,4,148,-78,-70,122,19,73,-19,-112,-112
-146,-146,0,146,-73,-73,117,19,68,-19,-122,-117
-141,-146,-4,143,-68,-75,122,4,73,-9,-112,-122
-131,-141,-9,136,-61,-75,117,4,68,-9,-102,-122
-126,-131,-4,129,-61,-68,107,9,63,-9,-92,-102
-117,-126,-9,122,-53,-68,102,9,63,-9,-78,-102
-112,-122,-9,117,-51,-65,97,9,58,-9,-78,-78
-102,-122,-19,112,-41,-70,92,9,58,-14,-92,-78
-97,-126,-29,112,-34,-78,82,9,48,-19,-97,-92
-92,-126,-34,109,-29,-80,78,9,48,-19,-97,-92
-97,-131,-34,114,-31,-82,73,9,48,-19,-97,-92
-92,-122,-29,107,-31,-75,68,4,43,-19,-87,-102
-87,-117,-29,102,-29,-73,63,4,39,-19,-82,-87
-87,-112,-24,100,-31,-68,58,9,29,-19,-78,-78
-87,-112,-24,100,-31,-68,53,19,29,-19,-68,-73
-87,-112,-24,100,-31,-68,53,19,34,-19,-68,-63
-78,-112,-34,95,-21,-73,48,19,34,-19,-78,-73
-68,-112,-43,90,-12,-78,43,19,24,-19,-82,-82
-53,-112,-58,82,2,-85,39,19,24,-29,-82,-87
-48,-112,-63,80,7,-87,34,19,19,-29,-82,-87
-43,-97,-53,70,4,-75,29,14,14,-29,-73,-87
-43,-97,-53,70,4,-75,29,14,14,-29,-68,-73
-43,-92,-48,68,2,-70,24,19,14,-19,-53,-68
-39,-92,-53,65,7,-73,19,19,14,-19,-53,-53
-34,-92,-58,63,12,-75,19,19,14,-19,-68,-53
-29,-92,-63,61,17,-78,14,24,14,-24,-68,-63
-34,-78,-43,56,4,-61,14,14,14,-24,-68,-63
-24,-78,-53,51,14,-65,9,9,14,-24,-68,-63
-24,-68,-43,46,9,-56,4,9,4,-19,-53,-63
-24,-63,-39,43,7,-51,4,9,4,-19,-53,-63
-14,-63,-48,39,17,-56,4,9,4,-19,-48,-63
-14,-58,-43,36,14,-51,4,9,4,-19,-48,-63
-14,-58,-43,36,14,-51,4,9,4,-19,-43,-53
-14,-58,-43,36,14,-51,4,9,0,-19,-43,-53
-14,-58,-43,36,14,-51,4,9,9,-19,-48,-43
-14,-58,-43,36,14,-51,0,9,9,-14,-48,-43
-14,-58,-43,36,14,-51,0,9,9,-14,-48,-43
-9,-58,-48,34,19,-53,0,9,9,-14,-48,-43
0,-58,-58,29,29,-58,0,9,0,-14,-48,-53
0,-58,-58,29,29,-58,0,9,0,-14,-48,-53
0,-58,-58,29,29,-58,0,9,0,-14,-48,-53
0,-58,-58,29,29,-58,0,9,0,-14,-48,-48
-9,-58,-48,34,19,-53,0,9,0,-4,-48,-39
-9,-58,-48,34,19,-53,0,9,0,-4,-48,-39
-9,-58,-48,34,19,-53,0,9,0,-4,-48,-34
-9,-53,-43,31,17,-48,0,9,0,-4,-48,-34
-9,-53,-43,31,17,-48,0,9,0,-4,-48,-43
-9,-53,-43,31,17,-48,0,9,0,-4,-48,-48
-9,-53,-43,31,17,-48,0,9,0,-4,-48,-48
-14,-53,-39,34,12,-46,0,9,0,-4,-43,-48
-24,-63,-39,43,7,-51,0,19,0,-4,-43,-39
-19,-63,-43,41,12,-53,0,19,0,-4,-43,-39
-19,-68,-48,43,14,-58,0,19,0,-4,-43,-39
-19,-68,-48,43,14,-58,0,19,0,-4,-43,-39
-24,-68,-43,46,9,-56,0,19,9,-14,-48,-39
-24,-68,-43,46,9,-56,0,19,9,-14,-48,-39
-24,-68,-43,46,9,-56,0,19,9,-19,-48,-39
-29,-73,-43,51,7,-58,0,19,9,-19,-48,-39
-39,-73,-34,56,-2,-53,4,19,9,-9,-48,-39
-39,-73,-34,56,-2,-53,4,19,9,-9,-48,-39
-39,-73,-34,56,-2,-53,4,19,9,-9,-48,-39
-39,-78,-39,58,0,-58,4,19,9,-9,-48,-39
-29,-78,-48,53,9,-63,9,19,9,-9,-48,-39
-29,-78,-48,53,9,-63,9,19,9,-9,-53,-43
-34,-78,-43,56,4,-61,9,19,9,-9,-53,-43
-34,-78,-43,56,4,-61,9,19,9,-9,-53,-43
-34,-78,-43,56,4,-61,14,19,9,-19,-53,-53
-39,-78,-39,58,0,-58,14,24,9,-19,-53,-53
-39,-82,-43,61,2,-63,14,24,9,-19,-53,-53
-39,-82,-43,61,2,-63,14,24,9,-19,-53,-53
-29,-78,-48,53,9,-63,19,24,9,-19,-53,-53
-29,-78,-48,53,9,-63,19,24,9,-24,-53,-63
-29,-78,-48,53,9,-63,19,24,9,-24,-58,-63
-29,-78,-48,53,9,-63,19,24,9,-24,-58,-58
-29,-87,-58,58,14,-73,19,24,9,-34,-58,-58
-34,-87,-53,61,9,-70,19,24,9,-34,-58,-58
-34,-92,-58,63,12,-75,19,24,9,-34,-58,-58
-39,-92,-53,65,7,-73,24,24,9,-34,-58,-58
-39,-92,-53,65,7,-73,24,24,0,-34,-68,-63
-39,-92,-53,65,7,-73,29,24,0,-34,-68,-68
-39,-92,-53,65,7,-73,29,24,0,-39,-63,-68
-39,-92,-53,65,7,-73,29,24,0,-39,-63,-68
-39,-102,-63,70,12,-82,34,24,0,-29,-63,-68
-39,-102,-63,70,12,-82,34,24,0,-34,-63,-68
-39,-107,-68,73,14,-87,34,24,0,-34,-63,-68
-39,-112,-73,75,17,-92,39,24,0,-34,-68,-68
-39,-112,-73,75,17,-92,39,24,0,-34,-68,-68
-43,-112,-68,78,12,-90,39,24,0,-34,-73,-73
-43,-112,-68,78,12,-90,39,24,0,-34,-73,-73
-43,-112,-68,78,12,-90,39,24,0,-34,-73,-73
-43,-117,-73,80,14,-95,39,24,0,-34,-73,-73
-43,-117,-73,80,14,-95,39,24,0,-39,-73,-73
-43,-117,-73,80,14,-95,43,29,0,-39,-73,-73
-43,-117,-73,80,14,-95,43,29,0,-39,-73,-73
-43,-117,-73,80,14,-95,43,19,-4,-48,-82,-73
-43,-117,-73,80,14,-95,43,19,-4,-48,-82,-78
-43,-122,-78,82,17,-100,43,19,-4,-48,-87,-78
-43,-122,-78,82,17,-100,39,19,-4,-53,-87,-82
-43,-122,-78,82,17,-100,39,19,-14,-43,-78,-82
-43,-122,-78,82,17,-100,39,19,-14,-43,-78,-82
-43,-126,-82,85,19,-104,39,19,-14,-43,-78,-82
-43,-126,-82,85,19,-104,39,19,-14,-43,-82,-82
-43,-117,-73,80,14,-95,39,19,-14,-43,-82,-82
-43,-117,-73,80,14,-95,39,19,-14,-43,-82,-82
-43,-117,-73,80,14,-95,39,19,-14,-48,-82,-82
-43,-122,-78,82,17,-100,39,19,-14,-48,-82,-87
-34,-122,-87,78,26,-104,39,19,-19,-48,-73,-78
-34,-122,-87,78,26,-104,39,19,-19,-48,-73,-78
-34,-122,-87,78,26,-104,39,19,-19,-48,-73,-78
-34,-122,-87,78,26,-104,39,19,-19,-48,-73,-78
-34,-122,-87,78,26,-104,48,29,-19,-48,-78,-78
-34,-122,-87,78,26,-104,48,29,-19,-48,-78,-78
-34,-122,-87,78,26,-104,48,29,-24,-48,-78,-78
-34,-122,-87,78,26,-104,48,29,-24,-48,-78,-78
-34,-122,-87,78,26,-104,39,19,-24,-48,-78,-78
-34,-122,-87,78,26,-104,39,19,-24,-48,-78,-78
-34,-122,-87,78,26,-104,39,19,-24,-48,-78,-78
-34,-122,-87,78,26,-104,39,19,-24,-53,-78,-78
-39,-122,-82,80,21,-102,39,19,-24,-53,-78,-78
-39,-122,-82,80,21,-102,39,19,-24,-53,-78,-78
-39,-122,-82,80,21,-102,39,19,-24,-53,-78,-78
-39,-122,-82,80,21,-102,39,19,-24,-53,-78,-78
-29,-122,-92,75,31,-107,39,19,-24,-53,-78,-78
-29,-122,-92,75,31,-107,39,19,-24,-53,-78,-78
-29,-122,-92,75,31,-107,34,19,-29,-53,-78,-78
-29,-122,-92,75,31,-107,34,19,-29,-53,-78,-78
-29,-112,-82,70,26,-97,34,29,-19,-53,-78,-78
-29,-112,-82,70,26,-97,34,29,-19,-53,-78,-78
-24,-112,-87,68,31,-100,34,29,-19,-53,-78,-78
-24,-112,-87,68,31,-100,34,29,-19,-53,-78,-78
-24,-112,-87,68,31,-100,34,19,-19,-53,-78,-78
-24,-112,-87,68,31,-100,34,19,-19,-53,-78,-78
-24,-112,-87,68,31,-100,34,19,-19,-53,-78,-78
-19,-112,-92,65,36,-102,34,19,-19,-53,-78,-78
-19,-112,-92,65,36,-102,34,19,-19,-53,-78,-78
-19,-112,-92,65,36,-102,34,19,-19,-53,-78,-78
-19,-112,-92,65,36,-102,34,19,-19,-53,-78,-78
-19,-112,-92,65,36,-102,34,19,-19,-53,-78,-78
-19,-112,-92,65,36,-102,34,19,-19,-53,-78,-78
-19,-117,-97,68,39,-107,29,19,-19,-48,-78,-78
-29,-117,-87,73,29,-102,29,19,-19,-48,-78,-78
-29,-117,-87,73,29,-102,29,19,-19,-48,-78,-78
-29,-117,-87,73,29,-102,29,19,-19,-48,-78,-78
-29,-117,-87,73,29,-102,29,19,-19,-48,-78,-78
-19,-107,-87,63,34,-97,29,19,-19,-48,-68,-78
-19,-107,-87,63,34,-97,29,19,-19,-48,-68,-78
-19,-107,-87,63,34,-97,29,19,-19,-48,-68,-78
-19,-107,-87,63,34,-97,29,19,-19,-48,-68,-78
-19,-107,-87,63,34,-97,39,19,-19,-48,-68,-68
-19,-107,-87,63,34,-97,39,19,-19,-48,-68,-68
-19,-107,-87,63,34,-97,39,19,-19,-48,-68,-68
-19,-107,-87,63,34,-97,39,19,-19,-48,-68,-68
-19,-97,-78,58,29,-87,29,19,-29,-48,-68,-68
-19,-97,-78,58,29,-87,29,19,-29,-48,-68,-68
-19,-97,-78,58,29,-87,29,19,-29,-48,-68,-68
-19,-97,-78,58,29,-87,29,19,-29,-48,-68,-68
-19,-97,-78,58,29,-87,29,19,-29,-48,-68,-68
-19,-97,-78,58,29,-87,29,19,-29,-48,-68,-68
-19,-97,-78,58,29,-87,29,19,-29,-48,-68,-68
-19,-97,-78,58,29,-87,29,19,-29,-48,-68,-68
-19,-97,-78,58,29,-87,29,19,-19,-48,-68,-68
-19,-97,-78,58,29,-87,29,19,-19,-48,-68,-68
-19,-97,-78,58,29,-87,29,19,-19,-48,-68,-68
-19,-97,-78,58,29,-87,29,19,-19,-48,-68,-68
-9,-97,-87,53,39,-92,19,19,-19,-48,-68,-68
-9,-97,-87,53,39,-92,19,19,-19,-48,-68,-68
-9,-97,-87,53,39,-92,19,19,-19,-48,-68,-68
-9,-97,-87,53,39,-92,19,19,-19,-48,-68,-68
0,-97,-97,48,48,-97,19,19,-19,-48,-68,-68
0,-97,-97,48,48,-97,19,19,-19,-48,-68,-68
0,-97,-97,48,48,-97,19,19,-19,-48,-68,-68
0,-97,-97,48,48,-97,19,19,-19,-48,-68,-68
-9,-107,-97,58,43,-102,19,19,-29,-48,-68,-68
-9,-107,-97,58,43,-102,19,19,-29,-48,-68,-68
-9,-107,-97,58,43,-102,19,19,-29,-48,-68,-68
-9,-107,-97,58,43,-102,19,19,-29,-48,-68,-68
-9,-97,-87,53,39,-92,19,19,-19,-48,-68,-68
-9,-97,-87,53,39,-92,19,19,-19,-48,-68,-68
-9,-97,-87,53,39,-92,19,19,-19,-48,-68,-68
-9,-97,-87,53,39,-92,19,19,-19,-48,-68,-68
-9,-97,-87,53,39,-92,19,19,-29,-48,-68,-68
-9,-97,-87,53,39,-92,19,19,-29,-48,-68,-68
-9,-97,-87,53,39,-92,19,19,-29,-48,-68,-68
-9,-97,-87,53,39,-92,19,19,-29,-48,-68,-68
-9,-97,-87,53,39,-92,19,19,-29,-48,-68,-58
-9,-97,-87,53,39,-92,19,19,-29,-48,-68,-58
-9,-97,-87,53,39,-92,19,19,-29,-48,-68,-58
-9,-97,-87,53,39,-92,19,19,-29,-48,-68,-58
0,-97,-97,48,48,-97,19,19,-29,-48,-68,-68
0,-97,-97,48,48,-97,19,19,-29,-48,-68,-68
0,-97,-97,48,48,-97,19,19,-29,-48,-68,-68
0,-97,-97,48,48,-97,19,19,-29,-48,-68,-68
-9,-97,-87,53,39,-92,19,19,-29,-48,-58,-58
-9,-97,-87,53,39,-92,19,19,-29,-48,-58,-58
-9,-97,-87,53,39,-92,19,19,-29,-48,-58,-58
-9,-97,-87,53,39,-92,19,19,-29,-48,-58,-58
0,-97,-97,48,48,-97,19,19,-19,-48,-58,-58
0,-97,-97,48,48,-97,19,19,-19,-48,-58,-58
0,-97,-97,48,48,-97,19,19,-19,-48,-58,-58
0,-97,-97,48,48,-97,19,19,-19,-48,-58,-58
0,-87,-87,43,43,-87,19,19,-19,-39,-58,-58
0,-87,-87,43,43,-87,19,19,-19,-39,-58,-58
0,-87,-87,43,43,-87,19,19,-19,-39,-58,-58
0,-87,-87,43,43,-87,19,19,-19,-39,-58,-58
0,-87,-87,43,43,-87,19,19,-19,-39,-58,-58
0,-87,-87,43,43,-87,19,19,-19,-39,-58,-58
0,-87,-87,43,43,-87,19,19,-19,-39,-58,-58
0,-87,-87,43,43,-87,19,19,-19,-39,-58,-58
-9,-87,-78,48,34,-82,19,19,-19,-39,-48,-58
-9,-87,-78,48,34,-82,19,19,-19,-39,-48,-58
-9,-87,-78,48,34,-82,19,19,-19,-39,-48,-58
-9,-87,-78,48,34,-82,19,19,-19,-39,-48,-58
0,-78,-78,39,39,-78,19,29,-19,-29,-48,-48
0,-78,-78,39,39,-78,19,29,-19,-29,-48,-48
0,-78,-78,39,39,-78,19,29,-19,-29,-48,-48
0,-78,-78,39,39,-78,19,29,-19,-29,-48,-48
9,-68,-78,29,43,-73,29,29,-14,-19,-39,-39
9,-68,-78,29,43,-73,29,29,-9,-19,-39,-39
9,-68,-78,29,43,-73,29,29,-4,-19,-39,-39
9,-68,-78,29,43,-73,29,29,0,-19,-39,-39
19,-63,-82,21,51,-73,29,29,9,-9,-29,-29
19,-58,-78,19,48,-68,29,29,9,-9,-29,-29
19,-53,-73,17,46,-63,29,29,9,-9,-29,-29
19,-48,-68,14,43,-58,29,29,9,-9,-29,-29
19,-43,-63,12,41,-53,39,29,14,-4,-19,-19
19,-39,-58,9,39,-48,39,29,19,0,-19,-19
19,-34,-53,7,36,-43,39,29,24,4,-19,-19
19,-29,-48,4,34,-39,39,29,29,9,-19,-19
29,-19,-48,-4,39,-34,29,39,29,19,-9,-19
29,-19,-48,-4,39,-34,29,39,29,19,-9,-19
29,-19,-48,-4,39,-34,29,39,29,19,-9,-19
29,-19,-48,-4,39,-34,29,39,29,19,-9,-19
29,-14,-43,-7,36,-29,19,39,39,19,0,-9
29,-9,-39,-9,34,-24,19,39,39,19,0,-9
29,-4,-34,-12,31,-19,19,39,39,19,0,-9
29,0,-29,-14,29,-14,19,39,39,19,0,-9
39,9,-29,-24,34,-9,4,29,48,29,9,0
39,9,-29,-24,34,-9,0,29,48,29,9,0
39,9,-29,-24,34,-9,-4,29,48,29,9,0
39,9,-29,-24,34,-9,-9,29,48,29,9,0
39,9,-29,-24,34,-9,-24,19,39,29,9,0
39,9,-29,-24,34,-9,-29,19,39,29,9,0
39,9,-29,-24,34,-9,-34,19,39,29,9,0
39,9,-29,-24,34,-9,-39,19,39,29,9,0
39,9,-29,-24,34,-9,-48,9,39,19,0,-9
39,9,-29,-24,34,-9,-48,9,39,19,0,-9
39,9,-29,-24,34,-9,-48,9,39,19,0,-9
39,9,-29,-24,34,-9,-48,9,39,19,0,-9
29,0,-29,-14,29,-14,-58,0,34,19,-9,-9
29,0,-29,-14,29,-14,-58,0,29,19,-9,-9
29,0,-29,-14,29,-14,-58,0,24,14,-9,-9
29,-4,-34,-12,31,-19,-58,0,19,9,-9,-14
29,-9,-39,-9,34,-24,-48,0,14,0,-9,-14
24,-9,-34,-7,29,-21,-48,0,14,0,-14,-14
24,-9,-34,-7,29,-21,-48,0,14,0,-14,-14
24,-9,-34,-7,29,-21,-48,-4,4,-4,-19,-14
24,-19,-43,-2,34,-31,-43,-4,-4,-9,-19,-24
24,-19,-43,-2,34,-31,-43,-4,-9,-9,-19,-29
24,-24,-48,0,36,-36,-43,-4,-14,-14,-24,-29
24,-24,-48,0,36,-36,-39,0,-14,-19,-24,-29
24,-34,-58,4,41,-46,-39,0,-19,-19,-34,-19
24,-34,-58,4,41,-46,-39,0,-19,-24,-34,-24
24,-34,-58,4,41,-46,-39,0,-24,-24,-34,-24
24,-34,-58,4,41,-46,-34,0,-24,-24,-39,-24
24,-34,-58,4,41,-46,-34,0,-19,-24,-29,-24
24,-39,-63,7,43,-51,-34,0,-19,-29,-29,-24
24,-39,-63,7,43,-51,-34,0,-24,-29,-29,-24
24,-39,-63,7,43,-51,-34,0,-29,-29,-29,-24
24,-39,-63,7,43,-51,-34,9,-29,-29,-39,-34
24,-43,-68,9,46,-56,-34,9,-29,-34,-39,-34
19,-48,-68,14,43,-58,-29,4,-29,-34,-43,-39
19,-53,-73,17,46,-63,-29,4,-29,-34,-43,-39
19,-58,-78,19,48,-68,-19,4,-29,-34,-34,-39
14,-58,-73,21,43,-65,-19,4,-34,-43,-34,-39
14,-63,-78,24,46,-70,-9,4,-39,-43,-43,-43
14,-63,-78,24,46,-70,-9,9,-39,-48,-43,-43
9,-68,-78,29,43,-73,-9,9,-29,-48,-48,-53
4,-78,-82,36,43,-80,0,9,-34,-53,-53,-58
4,-82,-87,39,46,-85,0,9,-34,-53,-53,-63
0,-92,-92,46,46,-92,4,14,-34,-53,-53,-68
-9,-102,-92,56,41,-97,9,14,-34,-58,-58,-68
-14,-107,-92,61,39,-100,14,14,-34,-58,-58,-68
-19,-112,-92,65,36,-102,19,19,-39,-63,-68,-78
-19,-117,-97,68,39,-107,19,19,-39,-63,-73,-78
-19,-112,-92,65,36,-102,14,9,-48,-68,-73,-78
-19,-117,-97,68,39,-107,14,9,-48,-68,-73,-78
-19,-122,-102,70,41,-112,14,14,-48,-68,-73,-82
-24,-126,-102,75,39,-114,14,14,-48,-68,-73,-82
-14,-126,-112,70,48,-119,14,14,-43,-68,-73,-82
-14,-126,-112,70,48,-119,14,14,-43,-68,-73,-82
-19,-126,-107,73,43,-117,19,14,-43,-68,-78,-87
-19,-126,-107,73,43,-117,19,14,-43,-73,-78,-87
-19,-126,-107,73,43,-117,19,24,-43,-73,-78,-78
-19,-126,-107,73,43,-117,19,24,-43,-73,-78,-78
-19,-126,-107,73,43,-117,19,24,-43,-73,-78,-78
-19,-126,-107,73,43,-117,19,24,-43,-73,-78,-78
-19,-126,-107,73,43,-117,19,24,-43,-63,-78,-78
-19,-126,-107,73,43,-117,19,24,-43,-63,-78,-82
-19,-126,-107,73,43,-117,19,24,-43,-63,-78,-82
-19,-126,-107,73,43,-117,19,24,-43,-63,-78,-82
-19,-126,-107,73,43,-117,19,14,-43,-63,-78,-82
-19,-126,-107,73,43,-117,19,14,-43,-63,-78,-78
-19,-126,-107,73,43,-117,24,14,-43,-63,-78,-78
-19,-126,-107,73,43,-117,24,19,-43,-63,-78,-78
-19,-126,-107,73,43,-117,24,19,-43,-63,-78,-78
-19,-126,-107,73,43,-117,24,19,-43,-63,-78,-78
-19,-126,-107,73,43,-117,24,19,-43,-63,-78,-78
-19,-126,-107,73,43,-117,24,19,-43,-63,-78,-78
-19,-117,-97,68,39,-107,24,19,-43,-63,-68,-78
-19,-117,-97,68,39,-107,24,19,-43,-63,-68,-78
-19,-117,-97,68,39,-107,24,19,-43,-63,-68,-78
-19,-117,-97,68,39,-107,24,19,-43,-63,-68,-78
-19,-117,-97,68,39,-107,24,19,-34,-63,-68,-78
-19,-117,-97,68,39,-107,24,19,-34,-63,-68,-78
-19,-112,-92,65,36,-102,24,19,-34,-63,-68,-78
-14,-112,-97,63,41,-104,24,19,-34,-63,-68,-78
-24,-112,-87,68,31,-100,24,19,-43,-63,-58,-68
-24,-112,-87,68,31,-100,24,19,-39,-63,-58,-68
-24,-112,-87,68,31,-100,24,19,-39,-63,-58,-68
-24,-107,-82,65,29,-95,24,19,-39,-58,-53,-68
-24,-107,-82,65,29,-95,24,19,-29,-58,-63,-68
-24,-107,-82,65,29,-95,24,19,-29,-58,-63,-68
-24,-107,-82,65,29,-95,24,19,-29,-58,-63,-68
-24,-107,-82,65,29,-95,24,19,-29,-58,-63,-63
-14,-107,-92,61,39,-100,14,19,-29,-48,-53,-63
-14,-97,-82,56,34,-90,19,19,-19,-48,-53,-63
-14,-97,-82,56,34,-90,19,24,-19,-48,-53,-63
0,-82,-82,41,41,-82,14,14,-19,-39,-43,-53
0,-68,-68,34,34,-68,4,19,4,-14,-24,-48
4,-39,-43,17,24,-41,9,39,34,24,9,-24
29,9,-19,-19,24,-4,9,53,63,58,39,0
48,48,0,-48,24,24,0,63,102,97,78,19
73,97,24,-85,24,61,0,68,131,141,112,39
87,141,53,-114,17,97,-24,78,161,180,151,68
107,180,73,-143,17,126,-58,68,170,209,190,92
126,234,107,-180,9,170,-102,53,180,248,234,117
151,283,131,-217,9,207,-146,24,175,273,278,156
170,351,180,-261,-4,265,-204,4,185,317,326,190
209,444,234,-326,-12,339,-278,-29,185,366,409,253
248,561,312,-405,-31,436,-361,-78,185,439,497,331
297,673,375,-485,-39,524,-463,-131,185,492,585,409
331,780,448,-556,-58,614,-556,-180,165,531,663,488
375,902,527,-639,-75,714,-658,-239,136,566,751,570
434,1049,614,-741,-90,832,-775,-322,87,590,844,678
497,1195,697,-846,-100,946,-927,-409,14,624,941,790
561,1351,790,-956,-114,1071,-1063,-497,-48,649,1044,902
629,1507,878,-1068,-124,1193,-1180,-570,-87,692,1151,1019
683,1664,980,-1173,-148,1322,-1288,-639,-117,732,1249,1122
746,1786,1039,-1266,-146,1412,-1395,-702,-161,751,1322,1220
800,1912,1112,-1356,-156,1512,-1512,-766,-214,751,1390,1317
863,2044,1180,-1454,-158,1612,-1605,-839,-283,761,1468,1410
927,2142,1215,-1534,-143,1678,-1698,-888,-366,741,1512,1498
1005,2191,1185,-1598,-90,1688,-1771,-897,-483,678,1512,1542
1112,2166,1054,-1639,29,1610,-1834,-868,-634,556,1473,1542
1229,2078,849,-1654,190,1464,-1888,-805,-805,414,1400,1498
1342,1927,585,-1634,378,1256,-1917,-722,-1000,234,1273,1415
1429,1712,283,-1571,573,997,-1903,-639,-1190,24,1098,1302
1503,1478,-24,-1490,763,727,-1883,-546,-1381,-219,893,1141
1556,1234,-322,-1395,939,456,-1839,-483,-1566,-444,673,980
1556,980,-575,-1268,1066,202,-1766,-424,-1703,-653,439,824
1468,683,-785,-1076,1127,-51,-1615,-385,-1790,-868,185,624
1312,341,-971,-827,1141,-314,-1420,-351,-1839,-1058,-78,424
1078,97,-980,-588,1029,-441,-1200,-370,-1790,-1161,-273,292
780,-24,-805,-378,793,-414,-995,-448,-1620,-1107,-336,248
522,24,-497,-273,509,-236,-814,-512,-1356,-961,-287,283
356,126,-229,-241,292,-51,-673,-512,-1083,-756,-180,346
307,219,-87,-263,197,65,-566,-458,-849,-575,-82,380
278,278,0,-278,139,139,-497,-409,-707,-463,-24,390
248,287,39,-268,104,163,-434,-346,-585,-385,19,390
204,263,58,-234,73,161,-356,-278,-483,-317,29,346
151,200,48,-175,51,124,-278,-209,-390,-263,4,292
97,122,24,-109,36,73,-185,-146,-302,-229,-29,224
58,53,-4,-56,31,24,-117,-102,-224,-180,-48,131
19,4,-14,-12,17,-4,-63,-73,-161,-151,-78,63
-14,-48,-34,31,9,-41,4,-53,-117,-117,-87,9
-43,-87,-43,65,0,-65,34,-34,-87,-107,-78,-39
-68,-102,-34,85,-17,-68,68,-9,-63,-92,-73,-53
-78,-126,-48,102,-14,-87,87,4,-39,-73,-63,-58
-78,-126,-48,102,-14,-87,102,19,-34,-73,-63,-58
-82,-141,-58,112,-12,-100,102,39,-29,-73,-82,-53
-82,-151,-68,117,-7,-109,112,34,-19,-73,-92,-73
-78,-156,-78,117,0,-117,107,34,-19,-82,-107,-87
-78,-156,-78,117,0,-117,107,29,-14,-68,-107,-107
-78,-156,-78,117,0,-117,107,29,-14,-68,-92,-107
-78,-146,-68,112,-4,-107,107,29,-14,-58,-78,-97
-87,-146,-58,117,-14,-102,107,34,-14,-58,-63,-82
-87,-136,-48,112,-19,-92,107,39,-14,-68,-53,-63
-87,-136,-48,112,-19,-92,107,43,-4,-68,-58,-53
-87,-146,-58,117,-14,-102,112,43,4,-68,-78,-73
-78,-151,-73,114,-2,-112,112,43,4,-68,-87,-87
-73,-151,-78,112,2,-114,102,43,0,-78,-107,-97
-73,-151,-78,112,2,-114,102,43,0,-68,-97,-107
-73,-141,-68,107,-2,-104,102,39,0,-63,-78,-97
-82,-141,-58,112,-12,-100,102,39,0,-63,-58,-78
-87,-136,-48,112,-19,-92,112,43,4,-63,-58,-68
-87,-136,-48,112,-19,-92,112,43,4,-63,-63,-58
-82,-146,-63,114,-9,-104,112,48,14,-63,-82,-58
-78,-151,-73,114,-2,-112,112,48,14,-68,-92,-92
-82,-151,-68,117,-7,-109,112,39,14,-58,-107,-97
-78,-151,-73,114,-2,-112,112,39,14,-58,-107,-107
-78,-141,-63,109,-7,-102,107,39,14,-58,-82,-107
-82,-136,-53,109,-14,-95,107,39,14,-48,-73,-78
-92,-126,-34,109,-29,-80,107,48,14,-48,-53,-73
-97,-126,-29,112,-34,-78,107,48,14,-48,-53,-63
-97,-126,-29,112,-34,-78,112,48,24,-48,-68,-53
-97,-131,-34,114,-31,-82,112,48,24,-48,-82,-73
-78,-131,-53,104,-12,-92,102,39,24,-48,-92,-97
-73,-141,-68,107,-2,-104,102,39,24,-48,-92,-107
-73,-131,-58,102,-7,-95,97,34,24,-48,-78,-117
-73,-122,-48,97,-12,-85,97,34,19,-43,-73,-97
-87,-126,-39,107,-24,-82,97,34,19,-34,-53,-73
-92,-122,-29,107,-31,-75,97,43,19,-43,-53,-58
-92,-122,-29,107,-31,-75,97,48,24,-43,-58,-58
-92,-131,-39,112,-26,-85,102,48,24,-43,-68,-63
-92,-136,-43,114,-24,-90,102,43,24,-39,-82,-82
-82,-136,-53,109,-14,-95,97,43,29,-39,-92,-92
-78,-131,-53,104,-12,-92,97,43,29,-29,-82,-102
-78,-122,-43,100,-17,-82,97,39,29,-24,-63,-87
-82,-107,-24,95,-29,-65,97,48,19,-29,-34,-58
-92,-102,-9,97,-41,-56,97,48,19,-29,-34,-48
-92,-102,-9,97,-41,-56,97,53,19,-29,-34,-39
-92,-107,-14,100,-39,-61,97,53,24,-29,-53,-39
-78,-107,-29,92,-24,-68,97,53,29,-29,-73,-78
-78,-112,-34,95,-21,-73,97,53,29,-29,-73,-82
-73,-112,-39,92,-17,-75,92,48,29,-24,-73,-82
-73,-102,-29,87,-21,-65,92,48,24,-24,-48,-82
-82,-102,-19,92,-31,-61,102,48,24,-14,-39,-58
-82,-102,-19,92,-31,-61,102,48,24,-14,-29,-48
-78,-92,-14,85,-31,-53,102,53,24,-14,-29,-39
-78,-92,-14,85,-31,-53,102,53,34,-14,-39,-39
-68,-102,-34,85,-17,-68,102,53,43,-14,-48,-63
-68,-112,-43,90,-12,-78,102,53,43,-19,-63,-73
-68,-112,-43,90,-12,-78,102,53,43,-19,-63,-82
-68,-107,-39,87,-14,-73,102,48,43,-9,-48,-82
-78,-87,-9,82,-34,-48,97,48,39,0,-34,-63
-82,-82,0,82,-41,-41,97,48,39,0,-9,-48
-82,-82,0,82,-41,-41,97,48,39,0,-9,-34
-82,-82,0,82,-41,-41,97,48,43,0,-19,-24
-82,-87,-4,85,-39,-46,97,53,53,0,-39,-39
-73,-87,-14,80,-29,-51,97,53,53,-9,-53,-53
-73,-82,-9,78,-31,-46,97,53,53,0,-53,-63
-73,-82,-9,78,-31,-46,97,53,53,9,-48,-73
-73,-73,0,73,-36,-36,92,48,53,0,-19,-58
-73,-68,4,70,-39,-31,92,48,53,9,0,-39
-78,-63,14,70,-46,-24,92,48,53,9,4,-29
-78,-63,14,70,-46,-24,92,48,53,9,4,-19
-78,-73,4,75,-41,-34,92,53,53,9,-29,-19
-73,-73,0,73,-36,-36,92,53,58,9,-29,-43
-73,-73,0,73,-36,-36,92,53,63,9,-43,-43
-73,-73,0,73,-36,-36,92,53,63,19,-34,-58
-73,-53,19,63,-46,-17,92,53,58,19,-14,-58
-73,-48,24,61,-48,-12,92,48,58,24,-4,-34
-78,-43,34,61,-56,-4,92,48,58,24,9,-24
-78,-43,34,61,-56,-4,92,53,58,19,9,-14
-68,-53,14,61,-41,-19,92,53,68,29,-4,-4
-63,-53,9,58,-36,-21,92,58,78,29,-14,-24
-58,-53,4,56,-31,-24,92,58,82,29,-24,-29
-58,-53,4,56,-31,-24,92,58,82,29,-24,-43
-58,-43,14,51,-36,-14,82,48,82,39,0,-43
-58,-39,19,48,-39,-9,82,43,82,43,14,-29
-63,-34,29,48,-46,-2,78,43,82,48,34,-14
-68,-29,39,48,-53,4,78,43,82,48,34,0
-78,-19,58,48,-68,19,87,53,87,53,19,9
-73,-24,48,48,-61,12,92,58,92,53,9,0
-73,-24,48,48,-61,12,92,58,97,53,4,-19
-73,-24,48,48,-61,12,92,53,102,53,4,-19
-73,-14,58,43,-65,21,92,53,92,63,4,-29
-68,0,68,34,-68,34,87,48,92,68,19,-29
-68,4,73,31,-70,39,87,48,92,73,29,-4
-78,4,82,36,-80,43,87,48,92,73,39,4
-78,0,78,39,-78,39,92,48,92,63,39,9
-78,0,78,39,-78,39,92,53,102,63,29,9
-78,4,82,36,-80,43,92,53,107,63,24,-14
-73,4,78,34,-75,41,92,53,112,63,19,-24
-63,-4,58,34,-61,26,82,53,112,68,9,-24
-63,9,73,26,-68,41,82,48,112,68,29,-24
-73,14,87,29,-80,51,82,48,112,78,39,0
-78,19,97,29,-87,58,87,48,117,78,48,9
-82,24,107,29,-95,65,87,48,122,87,48,24
-82,24,107,29,-95,65,87,53,131,87,43,34
-78,24,102,26,-90,63,87,53,136,92,34,14
-78,19,97,29,-87,58,87,53,136,92,19,9
-82,29,112,26,-97,70,87,39,136,92,34,-4
-82,39,122,21,-102,80,87,39,136,102,43,-4
-82,48,131,17,-107,90,87,39,136,107,53,9
-92,53,146,19,-119,100,92,39,141,112,68,24
-97,48,146,24,-122,97,92,39,146,102,78,43
-97,48,146,24,-122,97,92,39,151,102,73,43
-97,48,146,24,-122,97,92,39,156,102,63,39
-97,48,146,24,-122,97,97,39,161,102,53,29
-97,48,146,24,-122,97,97,39,165,107,43,14
-97,48,146,24,-122,97,97,39,170,117,53,14
-102,68,170,17,-136,119,97,34,170,122,68,14
-107,68,175,19,-141,122,102,34,170,126,78,39
-112,73,185,19,-148,129,112,34,180,122,87,48
-112,73,185,19,-148,129,112,34,185,122,78,58
-112,68,180,21,-146,124,112,34,190,122,68,48
-112,68,180,21,-146,124,112,34,195,122,63,39
-112,68,180,21,-146,124,112,29,200,122,53,34
-112,68,180,21,-146,124,122,29,204,126,53,19
-112,78,190,17,-151,134,122,24,204,126,68,19
-117,82,200,17,-158,141,126,24,204,136,78,43
-122,87,209,17,-165,148,117,24,200,141,92,53
-126,87,214,19,-170,151,126,24,209,141,92,63
-131,87,219,21,-175,153,131,24,214,141,78,63
-131,82,214,24,-173,148,131,24,219,141,73,48
-131,82,214,24,-173,148,131,24,224,141,58,34
-131,82,214,24,-173,148,131,24,224,151,58,29
-141,82,224,29,-183,153,131,14,224,151,63,29
-146,92,239,26,-192,165,141,14,229,151,73,39
-161,97,258,31,-209,178,146,14,229,161,97,58
-165,97,263,34,-214,180,151,19,239,161,107,68
-170,97,268,36,-219,183,156,19,244,161,97,68
-175,87,263,43,-219,175,161,19,248,161,87,63
-180,87,268,46,-224,178,170,19,253,156,73,53
-180,87,268,46,-224,178,170,14,253,156,68,39
-180,87,268,46,-224,178,170,14,253,161,68,39
-190,92,283,48,-236,187,170,9,253,161,82,39
-195,92,287,51,-241,190,170,9,253,161,78,48
-200,92,292,53,-246,192,180,9,263,165,92,58
-204,92,297,56,-251,195,185,9,268,165,82,68
-209,92,302,58,-256,197,190,9,273,165,73,58
-200,82,283,58,-241,183,190,9,268,156,68,34
-200,73,273,63,-236,173,190,9,268,156,53,24
-204,68,273,68,-239,170,200,0,268,156,53,19
-209,63,273,73,-241,168,200,0,268,156,68,19
-204,73,278,65,-241,175,209,4,258,146,63,34
-209,73,283,68,-246,178,209,4,258,151,63,34
-224,73,297,75,-261,185,209,4,268,151,63,39
-229,63,292,82,-261,178,219,9,268,151,53,39
-229,39,268,95,-248,153,219,9,268,141,43,19
-224,39,263,92,-244,151,219,9,268,141,34,4
-224,29,253,97,-239,141,229,4,268,141,24,-4
-224,29,253,97,-239,141,229,0,268,141,34,-14
-234,29,263,102,-248,146,229,0,263,131,24,-4
-239,24,263,107,-251,143,229,0,263,131,34,4
-239,24,263,107,-251,143,229,0,263,126,34,9
-239,19,258,109,-248,139,229,0,258,122,24,9
-253,-4,248,129,-251,122,229,-9,258,122,9,0
-253,-9,244,131,-248,117,229,-9,248,112,-9,-24
-253,-19,234,136,-244,107,234,-9,244,107,-19,-29
-248,-29,219,139,-234,95,234,-9,244,102,-19,-43
-239,-19,219,129,-229,100,234,-4,229,87,-14,-43
-239,-29,209,134,-224,90,234,-4,224,82,-14,-39
-244,-29,214,136,-229,92,234,-4,219,82,-14,-39
-244,-34,209,139,-226,87,234,-4,214,78,-24,-39
-248,-58,190,153,-219,65,239,4,219,82,-39,-43
-248,-63,185,156,-217,61,239,4,214,73,-48,-58
-248,-73,175,161,-212,51,239,4,209,73,-58,-68
-248,-82,165,165,-207,41,239,4,204,68,-63,-78
-248,-97,151,173,-200,26,229,-9,195,53,-63,-87
-248,-97,151,173,-200,26,224,-9,185,48,-63,-78
-244,-102,141,173,-192,19,224,-9,175,43,-63,-78
-244,-107,136,175,-190,14,224,-9,165,39,-63,-73
-244,-117,126,180,-185,4,214,0,165,43,-73,-73
-234,-126,107,180,-170,-9,214,0,161,39,-82,-82
-229,-131,97,180,-163,-17,204,0,156,24,-92,-97
-219,-141,78,180,-148,-31,200,0,146,24,-102,-117
-219,-131,87,175,-153,-21,204,-14,146,19,-102,-117
-219,-136,82,178,-151,-26,195,-14,136,14,-97,-112
-219,-141,78,180,-148,-31,190,-14,131,9,-92,-107
-219,-141,78,180,-148,-31,185,-14,122,4,-92,-107
-214,-131,82,173,-148,-24,180,-4,122,9,-87,-107
-200,-141,58,170,-129,-41,180,-4,117,4,-102,-112
-190,-146,43,168,-117,-51,175,-4,112,0,-112,-112
-180,-151,29,165,-104,-61,170,-4,107,0,-112,-112
-175,-141,34,158,-104,-53,165,-4,112,-4,-112,-112
-161,-141,19,151,-90,-61,156,-4,97,-9,-97,-112
-151,-141,9,146,-80,-65,146,-4,87,-14,-92,-102
-151,-136,14,143,-82,-61,146,-4,82,-14,-92,-97
-146,-136,9,141,-78,-63,131,-4,82,-24,-102,-92
