I,II,III,aVR,aVL,aVF,V1,V2,V3,V4,V5,V6,
429,-536,-966,53,697,-751,-146,-234,-488,-439,-419,-390
234,-429,-663,97,448,-546,-48,-112,-302,-278,-287,-278
39,-322,-361,141,200,-341,48,9,-117,-117,-156,-165
9,-258,-268,124,139,-263,63,14,-102,-112,-156,-165
-19,-195,-175,107,78,-185,78,19,-87,-107,-156,-165
-39,-190,-151,114,56,-170,87,29,-63,-92,-141,-156
-58,-185,-126,122,34,-156,97,39,-39,-78,-126,-146
-82,-185,-102,134,9,-143,112,48,-19,-58,-117,-136
-107,-185,-78,146,-14,-131,126,58,0,-39,-107,-126
-131,-185,-53,158,-39,-119,131,63,9,-29,-97,-117
-156,-185,-29,170,-63,-107,136,68,19,-19,-87,-107
-146,-146,0,146,-73,-73,136,68,19,-34,-87,-122
-136,-107,29,122,-82,-39,136,68,19,-48,-87,-136
-136,-136,0,136,-68,-68,146,73,39,-39,-87,-117
-136,-165,-29,151,-53,-97,156,78,58,-29,-87,-97
-136,-146,-9,141,-63,-78,146,78,48,-29,-92,-112
-136,-126,9,131,-73,-58,136,78,39,-29,-97,-126
-136,-126,9,131,-73,-58,136,78,39,-29,-97,-126
-136,-126,9,131,-73,-58,136,78,39,-29,-97,-126
-146,-126,19,136,-82,-53,136,82,43,-24,-97,-126
-156,-126,29,141,-92,-48,136,87,48,-19,-97,-126
-156,-126,29,141,-92,-48,141,87,48,-19,-97,-126
-156,-126,29,141,-92,-48,146,87,48,-19,-97,-126
-156,-102,53,129,-104,-24,146,92,48,-19,-97,-126
-156,-78,78,117,-117,0,146,97,48,-19,-97,-126
-156,-92,63,124,-109,-14,146,102,53,-19,-97,-126
-156,-107,48,131,-102,-29,146,107,58,-19,-97,-126
-170,-107,63,139,-117,-21,146,107,58,-24,-102,-136
-185,-107,78,146,-131,-14,146,107,58,-29,-107,-146
-185,-87,97,136,-141,4,146,97,58,-39,-112,-156
-185,-68,117,126,-151,24,146,87,58,-48,-117,-165
-185,-82,102,134,-143,9,151,97,63,-39,-117,-165
-185,-97,87,141,-136,-4,156,107,68,-29,-117,-165
-185,-82,102,134,-143,9,156,117,73,-29,-122,-165
-185,-68,117,126,-151,24,156,126,78,-29,-126,-165
-195,-87,107,141,-151,9,161,126,78,-29,-126,-165
-204,-107,97,156,-151,-4,165,126,78,-29,-126,-165
-204,-92,112,148,-158,9,165,126,78,-29,-131,-180
-204,-78,126,141,-165,24,165,126,78,-29,-136,-195
-204,-68,136,136,-170,34,170,136,82,-29,-141,-195
-204,-58,146,131,-175,43,175,146,87,-29,-146,-195
-219,-58,161,139,-190,51,180,146,87,-34,-156,-204
-234,-58,175,146,-204,58,185,146,87,-39,-165,-214
-253,-68,185,161,-219,58,195,156,92,-39,-165,-219
-273,-78,195,175,-234,58,204,165,97,-39,-165,-224
-273,-78,195,175,-234,58,209,175,102,-39,-165,-224
-273,-78,195,175,-234,58,214,185,107,-39,-165,-224
-278,-43,234,161,-256,95,214,185,107,-53,-190,-253
-283,-9,273,146,-278,131,214,185,107,-68,-214,-283
-297,-34,263,165,-280,114,229,200,112,-68,-219,-292
-312,-58,253,185,-283,97,244,214,117,-68,-224,-302
-331,-78,253,204,-292,87,258,224,122,-68,-234,-317
-351,-97,253,224,-302,78,273,234,126,-68,-244,-331
-356,-68,287,212,-322,109,278,234,126,-82,-268,-356
-361,-39,322,200,-341,141,283,234,126,-97,-292,-380
-380,-68,312,224,-346,122,302,248,131,-97,-307,-395
-400,-97,302,248,-351,102,322,263,136,-97,-322,-409
-429,-82,346,256,-387,131,322,263,136,-117,-346,-439
-458,-68,390,263,-424,161,322,263,136,-136,-370,-468
-473,-58,414,265,-444,178,331,263,136,-151,-395,-492
-488,-48,439,268,-463,195,341,263,136,-165,-419,-517
-497,-63,434,280,-466,185,346,263,136,-165,-419,-522
-507,-78,429,292,-468,175,351,263,136,-165,-419,-527
-512,-78,434,295,-473,178,351,253,126,-180,-439,-546
-517,-78,439,297,-478,180,351,244,117,-195,-458,-566
-517,-97,419,307,-468,161,346,234,112,-200,-458,-566
-517,-117,400,317,-458,141,341,224,107,-204,-458,-566
-512,-97,414,305,-463,158,317,200,92,-204,-458,-566
-507,-78,429,292,-468,175,292,175,78,-204,-458,-566
-507,-53,453,280,-480,200,283,165,78,-195,-434,-536
-507,-29,478,268,-492,224,273,156,78,-185,-409,-507
-473,-53,419,263,-446,183,253,146,78,-165,-375,-473
-439,-78,361,258,-400,141,234,136,78,-146,-341,-439
-390,-78,312,234,-351,117,209,122,78,-122,-292,-385
-341,-78,263,209,-302,92,185,107,78,-97,-244,-331
-292,-43,248,168,-270,102,161,97,78,-82,-219,-292
-244,-9,234,126,-239,112,136,87,78,-68,-195,-253
-180,-34,146,107,-163,56,117,78,78,-39,-146,-195
-117,-58,58,87,-87,0,97,68,78,-9,-97,-136
-117,-43,73,80,-95,14,92,68,87,9,-58,-97
-117,-29,87,73,-102,29,87,68,97,29,-19,-58
-102,-29,73,65,-87,21,63,53,78,29,-9,-43
-87,-29,58,58,-73,14,39,39,58,29,0,-29
-68,-34,34,51,-51,0,24,24,58,29,9,-14
-48,-39,9,43,-29,-14,9,9,58,29,19,0
-48,-39,9,43,-29,-14,9,9,58,39,39,24
-48,-39,9,43,-29,-14,9,9,58,48,58,48
-29,-14,14,21,-21,0,0,0,48,48,58,48
-9,9,19,0,-14,14,-9,-9,39,48,58,48
-4,0,4,2,-4,2,-9,-9,39,48,63,58
0,-9,-9,4,4,-9,-9,-9,39,48,68,68
0,-39,-39,19,19,-39,-9,-9,39,48,68,68
0,-68,-68,34,34,-68,-9,-9,39,48,68,68
9,9,0,-9,4,4,-34,-34,19,34,48,48
19,87,68,-53,-24,78,-58,-58,0,19,29,29
19,29,9,-24,4,19,-34,-29,19,43,48,48
19,-29,-48,4,34,-39,-9,0,39,68,68,68
9,-29,-39,9,24,-34,-9,-9,39,58,68,68
0,-29,-29,14,14,-29,-9,-19,39,48,68,68
0,-29,-29,14,14,-29,-9,-19,39,48,68,68
0,-29,-29,14,14,-29,-9,-19,39,48,68,68
4,-14,-19,4,12,-17,-14,-19,34,43,63,63
9,0,-9,-4,9,-4,-19,-19,29,39,58,58
9,0,-9,-4,9,-4,-19,-19,29,39,58,58
9,0,-9,-4,9,-4,-19,-19,29,39,58,58
9,0,-9,-4,9,-4,-24,-24,24,39,53,53
9,0,-9,-4,9,-4,-29,-29,19,39,48,48
4,0,-4,-2,4,-2,-29,-29,19,39,48,48
0,0,0,0,0,0,-29,-29,19,39,48,48
-4,0,4,2,-4,2,-24,-24,24,39,53,53
-9,0,9,4,-9,4,-19,-19,29,39,58,58
-9,0,9,4,-9,4,-14,-19,29,39,58,58
-9,0,9,4,-9,4,-9,-19,29,39,58,58
-4,-9,-4,7,0,-7,-9,-19,29,39,58,58
0,-19,-19,9,9,-19,-9,-19,29,39,58,58
0,0,0,0,0,0,-9,-24,29,39,53,53
0,19,19,-9,-9,19,-9,-29,29,39,48,48
-4,4,9,0,-7,7,-9,-29,29,39,48,48
-9,-9,0,9,-4,-4,-9,-29,29,39,48,48
-14,0,14,7,-14,7,-14,-29,24,29,43,43
-19,9,29,4,-24,19,-19,-29,19,19,39,39
-19,9,29,4,-24,19,-19,-29,19,19,39,34
-19,9,29,4,-24,19,-19,-29,19,19,39,29
-9,19,29,-4,-19,24,-19,-29,9,19,34,29
0,29,29,-14,-14,29,-19,-29,0,19,29,29
-14,29,43,-7,-29,36,-19,-29,9,19,29,29
-29,29,58,0,-43,43,-19,-29,19,19,29,29
-34,29,63,2,-48,46,-19,-29,19,19,29,29
-39,29,68,4,-53,48,-19,-29,19,19,29,29
-39,4,43,17,-41,24,-14,-29,19,19,29,29
-39,-19,19,29,-29,0,-9,-29,19,19,29,29
-39,0,39,19,-39,19,-9,-29,19,19,29,29
-39,19,58,9,-48,39,-9,-29,19,19,29,29
-39,4,43,17,-41,24,-9,-29,19,19,29,29
-39,-9,29,24,-34,9,-9,-29,19,19,29,29
-39,0,39,19,-39,19,-9,-29,19,19,29,29
-39,9,48,14,-43,29,-9,-29,19,19,29,29
-39,9,48,14,-43,29,-9,-29,19,19,29,29
-39,9,48,14,-43,29,-9,-29,19,19,29,29
-48,14,63,17,-56,39,-9,-29,19,19,29,29
-58,19,78,19,-68,48,-9,-29,19,19,29,29
-58,19,78,19,-68,48,-9,-29,19,19,24,29
-58,19,78,19,-68,48,-9,-29,19,19,19,29
-53,9,63,21,-58,36,-9,-29,19,19,19,29
-48,0,48,24,-48,24,-9,-29,19,19,19,29
-43,9,53,17,-48,31,-14,-34,14,14,19,24
-39,19,58,9,-48,39,-19,-39,9,9,19,19
-39,19,58,9,-48,39,-19,-39,9,9,19,19
-39,19,58,9,-48,39,-19,-39,9,9,19,19
-39,19,58,9,-48,39,-14,-39,9,9,19,19
-39,19,58,9,-48,39,-9,-39,9,9,19,19
-39,19,58,9,-48,39,-9,-39,9,9,19,19
-39,19,58,9,-48,39,-9,-39,9,9,19,19
-43,9,53,17,-48,31,-9,-39,9,9,19,19
-48,0,48,24,-48,24,-9,-39,9,9,19,19
-48,19,68,14,-58,43,-14,-43,4,4,19,19
-48,39,87,4,-68,63,-19,-48,0,0,19,19
-48,53,102,-2,-75,78,-19,-48,-9,0,9,19
-48,68,117,-9,-82,92,-19,-48,-19,0,0,19
-48,24,73,12,-61,48,-9,-34,0,14,19,29
-48,-19,29,34,-39,4,0,-19,19,29,39,39
-43,29,73,7,-58,51,-14,-34,4,14,14,24
-39,78,117,-19,-78,97,-29,-48,-9,0,-9,9
-39,43,82,-2,-61,63,-29,-48,-9,0,0,9
-39,9,48,14,-43,29,-29,-48,-9,0,9,9
-39,24,63,7,-51,43,-29,-53,-9,0,9,9
-39,39,78,0,-58,58,-29,-58,-9,0,9,9
-39,53,92,-7,-65,73,-29,-58,-9,0,14,9
-39,68,107,-14,-73,87,-29,-58,-9,0,19,9
-39,68,107,-14,-73,87,-24,-58,0,9,24,19
-24,92,117,-34,-70,104,-19,-68,9,19,24,24
-9,117,126,-53,-68,122,-14,-82,24,29,29,34
14,156,141,-85,-63,148,-4,-97,53,43,48,48
4,151,146,-78,-70,148,4,-92,68,68,63,63
4,126,122,-65,-58,124,9,-92,87,82,82,78
43,126,82,-85,-19,104,0,-107,78,82,82,82
29,126,97,-78,-34,112,-9,-112,78,87,82,87
43,122,78,-82,-17,100,-19,-92,78,87,87,87
58,122,63,-90,-2,92,-24,-73,78,97,92,102
68,92,24,-80,21,58,-39,-58,92,107,107,102
78,73,-4,-75,41,34,-63,-63,82,107,107,107
87,78,-9,-82,48,34,-97,-97,63,92,107,107
68,78,9,-73,29,43,-107,-112,43,73,92,102
68,112,43,-90,12,78,-117,-141,9,43,63,78
68,146,78,-107,-4,112,-117,-151,0,24,58,78
68,117,48,-92,9,82,-117,-141,-9,9,43,63
58,82,24,-70,17,53,-107,-112,-9,24,43,73
78,78,0,-78,39,39,-107,-112,-9,14,43,73
87,39,-48,-63,68,-4,-97,-112,-14,9,43,68
87,63,-24,-75,56,19,-107,-117,-39,-4,29,53
78,87,9,-82,34,48,-117,-126,-58,-19,9,43
78,53,-24,-65,51,14,-131,-146,-73,-34,-4,24
78,14,-63,-46,70,-24,-117,-131,-63,-34,-4,24
58,39,-19,-48,39,9,-102,-102,-53,-29,-4,24
39,29,-9,-34,24,9,-87,-87,-34,-19,9,34
19,29,9,-24,4,19,-68,-78,-34,-19,0,14
-29,14,43,7,-36,29,-39,-58,-19,-19,0,14
-58,4,63,26,-61,34,-24,-43,-9,-19,-4,14
-48,9,58,19,-53,34,-29,-48,-19,-24,-14,0
-48,9,58,19,-53,34,-29,-53,-19,-19,-14,-4
-58,9,68,24,-63,39,-29,-39,-19,-14,-14,-4
-58,-24,34,41,-46,4,-14,-24,-9,-4,-4,14
-53,-29,24,41,-39,-2,-9,-14,-4,0,4,24
-58,-29,29,43,-43,0,0,-14,-4,0,4,19
-68,-24,43,46,-56,9,9,-14,-4,0,4,19
-68,9,78,29,-73,43,4,-9,0,-9,0,19
-73,43,117,14,-95,80,-4,-9,0,-24,-14,9
-73,-14,58,43,-65,21,0,0,0,-9,0,0
-87,-92,-4,90,-41,-48,14,9,14,9,14,9
-92,-24,68,58,-80,21,0,-9,-4,-4,-4,0
-97,39,136,29,-117,87,0,-29,-14,-19,-24,-9
-126,-9,117,68,-122,53,19,9,14,9,0,14
-151,34,185,58,-168,109,24,19,63,43,43,34
-161,175,336,-7,-248,256,24,9,161,146,122,112
-195,385,580,-95,-387,483,0,9,336,336,302,283
-136,639,775,-251,-456,707,-53,102,527,561,541,502
-9,858,868,-424,-439,863,0,502,927,1019,990,888
209,961,751,-585,-270,856,-19,849,1127,1356,1361,1263
448,1176,727,-812,-139,951,-326,483,966,1449,1693,1678
761,1620,858,-1190,-48,1239,-907,-395,492,1361,1991,2152
1195,2186,990,-1690,102,1588,-1625,-1332,-112,1176,2254,2601
1649,2098,448,-1873,600,1273,-2044,-1795,-649,912,2327,2810
2083,1625,-458,-1854,1271,583,-2225,-1864,-922,829,2327,2874
2459,800,-1659,-1629,2059,-429,-2171,-1561,-1098,610,2010,2532
2693,-53,-2747,-1320,2720,-1400,-1898,-1200,-1434,-73,1010,1527
2752,-810,-3562,-971,3157,-2186,-1576,-961,-1761,-897,-82,366
2552,-1405,-3957,-573,3254,-2681,-1190,-717,-1839,-1288,-800,-492
2015,-1517,-3533,-248,2774,-2525,-873,-707,-1732,-1512,-1273,-1015
1512,-1449,-2962,-31,2237,-2205,-668,-751,-1625,-1537,-1405,-1215
1146,-1210,-2357,31,1751,-1783,-551,-663,-1390,-1342,-1234,-1088
702,-732,-1434,14,1068,-1083,-356,-414,-834,-785,-727,-653
244,-405,-649,80,446,-527,-82,-136,-400,-390,-380,-380
63,-229,-292,82,178,-261,19,-19,-209,-209,-234,-234
14,-180,-195,82,104,-187,48,34,-131,-146,-175,-190
-34,-165,-131,100,48,-148,53,43,-102,-126,-165,-180
-63,-131,-68,97,2,-100,63,48,-82,-122,-165,-180
-73,-122,-48,97,-12,-85,78,53,-53,-107,-151,-156
-92,-97,-4,95,-43,-51,87,73,-39,-82,-136,-151
-97,-63,34,80,-65,-14,92,78,-29,-73,-131,-151
-112,-82,29,97,-70,-26,117,97,-4,-58,-117,-141
-136,-107,29,122,-82,-39,136,117,19,-39,-92,-122
-141,-58,82,100,-112,12,126,92,14,-48,-107,-122
-146,-14,131,80,-139,58,107,73,0,-68,-126,-126
-146,-24,122,85,-134,48,117,92,9,-58,-117,-122
-151,-82,68,117,-109,-7,131,107,34,-39,-92,-102
-141,-53,87,97,-114,17,122,102,34,-48,-102,-112
-131,-53,78,92,-104,12,122,102,29,-48,-102,-112
-151,4,156,73,-153,80,117,97,29,-53,-102,-131
-165,9,175,78,-170,92,117,97,29,-53,-102,-131
-161,-14,146,87,-153,65,117,112,29,-53,-107,-131
-161,-34,126,97,-143,46,117,112,39,-48,-107,-131
-156,-34,122,95,-139,43,122,126,43,-48,-107,-126
-165,-24,141,95,-153,58,122,117,43,-43,-107,-122
-165,-24,141,95,-153,58,131,117,43,-43,-102,-126
-165,-34,131,100,-148,48,131,117,43,-43,-102,-131
-165,-24,141,95,-153,58,126,112,43,-48,-107,-141
-170,-14,156,92,-163,70,122,117,39,-48,-117,-146
-170,-14,156,92,-163,70,122,117,39,-58,-117,-151
-170,-14,156,92,-163,70,131,117,39,-58,-117,-151
-180,-9,170,95,-175,80,136,131,43,-48,-112,-151
-195,-9,185,102,-190,87,151,146,48,-43,-107,-151
-180,-9,170,95,-175,80,131,126,48,-48,-122,-156
-180,-14,165,97,-173,75,131,126,48,-48,-126,-156
-195,9,204,92,-200,107,131,122,48,-53,-136,-170
-190,9,200,90,-195,104,131,131,53,-53,-141,-170
-190,24,214,82,-202,119,136,136,58,-43,-136,-170
-195,-14,180,104,-187,82,146,146,73,-43,-136,-170
-204,24,229,90,-217,126,146,136,58,-48,-136,-170
-224,24,248,100,-236,136,156,136,68,-43,-136,-170
-224,43,268,90,-246,156,161,161,68,-58,-151,-190
-224,14,239,104,-231,126,161,161,78,-58,-161,-190
-224,14,239,104,-231,126,161,151,78,-58,-161,-190
-224,-9,214,117,-219,102,165,161,82,-48,-151,-190
-239,-4,234,122,-236,114,180,170,82,-48,-151,-195
-248,-4,244,126,-246,119,175,170,82,-48,-156,-200
-268,19,287,124,-278,153,180,200,87,-63,-175,-214
-278,29,307,124,-292,168,185,195,87,-63,-180,-234
-287,-9,278,148,-283,134,190,195,97,-58,-175,-234
-297,-48,248,173,-273,100,209,219,112,-43,-175,-224
-302,9,312,146,-307,161,209,214,112,-58,-195,-244
-302,24,326,139,-314,175,214,224,122,-58,-209,-268
-312,4,317,153,-314,161,234,234,122,-68,-219,-287
-317,29,346,143,-331,187,234,229,117,-87,-248,-312
-356,19,375,168,-366,197,258,248,126,-87,-258,-326
-370,24,395,173,-383,209,258,258,126,-92,-283,-356
-385,63,448,161,-417,256,263,263,131,-107,-297,-380
-409,39,448,185,-429,244,278,263,131,-107,-307,-400
-419,14,434,202,-427,224,292,273,146,-112,-322,-409
-444,-19,424,231,-434,202,312,297,161,-112,-326,-419
-453,-4,448,229,-451,222,312,283,141,-136,-370,-468
-497,4,502,246,-500,253,326,292,146,-151,-385,-488
-512,-9,502,261,-507,246,331,283,146,-161,-400,-497
-522,-14,507,268,-514,246,336,283,141,-175,-414,-527
-531,4,536,263,-534,270,336,287,131,-190,-439,-551
-536,14,551,261,-544,283,336,263,126,-200,-473,-566
-541,9,551,265,-546,280,336,258,122,-200,-448,-556
-541,9,551,265,-546,280,326,229,112,-214,-463,-566
-551,-14,536,283,-544,261,326,229,107,-219,-473,-575
-566,0,566,283,-566,283,317,214,97,-224,-473,-566
-561,-34,527,297,-544,246,297,195,87,-214,-448,-541
-527,-9,517,268,-522,253,268,165,82,-214,-439,-541
-502,-24,478,263,-490,226,268,165,82,-195,-405,-507
-458,-29,429,244,-444,200,248,151,68,-190,-385,-478
-419,-24,395,222,-407,185,214,141,58,-161,-346,-429
-366,-4,361,185,-363,178,165,112,53,-136,-307,-385
-317,-34,283,175,-300,124,170,107,53,-126,-263,-331
-297,0,297,148,-297,148,146,92,43,-102,-234,-302
-263,-19,244,141,-253,112,126,97,48,-87,-180,-244
-224,4,229,109,-226,117,97,82,43,-68,-156,-200
-185,4,190,90,-187,97,82,68,43,-48,-126,-170
-131,4,136,63,-134,70,68,58,43,-29,-92,-136
-112,19,131,46,-122,75,53,53,43,-19,-73,-97
-92,29,122,31,-107,75,34,39,43,-19,-58,-68
-73,29,102,21,-87,65,29,39,43,4,-24,-34
-48,24,73,12,-61,48,19,39,43,14,0,-9
-43,19,63,12,-53,41,14,29,39,19,4,-4
-39,29,68,4,-53,48,0,14,29,19,9,0
-14,29,43,-7,-29,36,0,9,19,19,14,9
-9,14,24,-2,-17,19,0,9,24,19,19,19
-4,24,29,-9,-17,26,0,4,24,19,24,24
0,34,34,-17,-17,34,-9,4,24,24,24,29
9,29,19,-19,-4,24,-9,0,24,14,14,29
19,43,24,-31,-2,34,-9,0,24,4,19,29
14,24,9,-19,2,17,-4,9,29,29,34,43
14,9,-4,-12,9,2,0,9,29,29,34,48
9,24,14,-17,-2,19,-4,9,29,19,34,39
9,24,14,-17,-2,19,-14,0,24,19,34,29
9,24,14,-17,-2,19,-19,-9,19,24,24,29
0,19,19,-9,-9,19,-19,-9,19,14,29,24
0,9,9,-4,-4,9,-19,9,9,14,34,34
0,19,19,-9,-9,19,-19,9,9,14,34,39
0,19,19,-9,-9,19,-19,4,14,14,29,39
-9,29,39,-9,-24,34,-19,4,14,14,29,39
-4,9,14,-2,-9,12,-4,4,14,34,39,43
0,0,0,0,0,0,-4,9,14,34,39,53
-9,0,9,4,-9,4,-4,9,24,34,43,39
0,19,19,-9,-9,19,-9,9,9,14,24,34
4,19,14,-12,-4,17,-4,4,4,14,24,39
4,19,14,-12,-4,17,-14,0,4,14,24,39
4,14,9,-9,-2,12,-24,0,4,9,19,34
0,19,19,-9,-9,19,-14,4,4,9,19,34
0,19,19,-9,-9,19,-14,4,19,14,24,34
14,29,14,-21,0,21,-14,-4,24,0,9,24
0,39,39,-19,-19,39,-24,-24,0,-9,9,24
-9,29,39,-9,-24,34,4,-4,19,9,19,34
-9,29,39,-9,-24,34,-9,-9,19,9,19,29
-9,24,34,-7,-21,29,-14,-4,14,29,29,34
0,43,43,-21,-21,43,-14,-4,4,9,14,24
-4,43,48,-19,-26,46,-14,-9,0,4,14,19
-19,53,73,-17,-46,63,-14,-9,0,0,14,14
-24,58,82,-17,-53,70,0,-9,0,0,14,14
-19,39,58,-9,-39,48,-9,-9,-4,-9,4,4
-24,19,43,2,-34,31,-9,-4,9,0,14,19
-24,19,43,2,-34,31,-9,-4,19,9,19,34
-24,29,53,-2,-39,41,-9,-4,19,9,19,34
-34,43,78,-4,-56,61,4,0,9,0,19,19
-34,48,82,-7,-58,65,-4,0,4,-4,9,14
-29,34,63,-2,-46,48,4,-4,9,0,9,14
-29,14,43,7,-36,29,14,-4,19,9,29,24
-29,14,43,7,-36,29,0,-4,24,14,24,24
-19,14,34,2,-26,24,-4,0,24,19,29,19
-14,34,48,-9,-31,41,4,0,14,4,14,19
-29,34,63,-2,-46,48,4,0,4,-4,9,19
-29,19,48,4,-39,34,4,0,4,-4,9,19
-24,24,48,0,-36,36,4,0,9,0,14,19
-14,24,39,-4,-26,31,9,0,9,0,14,24
-4,34,39,-14,-21,36,9,0,4,0,14,29
-19,43,63,-12,-41,53,4,-4,0,-4,14,19
-29,34,63,-2,-46,48,4,-4,0,-4,4,9
-24,9,34,7,-29,21,4,-4,14,4,19,24
-29,-14,14,21,-21,0,4,-4,14,4,19,24
-29,14,43,7,-36,29,0,-9,9,4,4,14
-34,29,63,2,-48,46,-4,-19,-9,0,-9,4
-34,29,63,2,-48,46,-4,-24,-9,0,-9,0
-43,9,53,17,-48,31,0,-19,9,0,0,-4
-29,19,48,4,-39,34,0,-14,-9,0,0,-4
-43,14,58,14,-51,36,0,-4,4,4,4,9
-29,24,53,2,-41,39,9,-9,4,0,9,19
-29,24,53,2,-41,39,9,-14,4,0,14,29
-34,-4,29,19,-31,12,19,-9,4,0,14,29
-24,4,29,9,-26,17,9,-14,4,0,14,29
-24,9,34,7,-29,21,9,-24,-4,-14,-9,0
-34,53,87,-9,-61,70,4,-34,-9,-39,-34,-29
-39,24,63,7,-51,43,14,-4,14,0,9,14
-29,9,39,9,-34,24,19,0,9,19,14,19
-43,4,48,19,-46,26,9,-4,4,9,4,19
-58,0,58,29,-58,29,0,-9,0,0,0,19
-48,39,87,4,-68,63,0,-19,0,0,0,19
-39,78,117,-19,-78,97,0,-29,0,0,0,19
-39,48,87,-4,-63,68,14,-14,9,9,14,24
-29,39,68,-4,-48,53,24,0,19,19,19,29
-19,34,53,-7,-36,43,34,9,34,29,29,34
-4,39,43,-17,-24,41,43,29,63,43,48,48
4,97,92,-51,-43,95,39,34,63,53,53,53
24,136,112,-80,-43,124,29,34,68,53,63,58
48,97,48,-73,0,73,29,34,68,53,63,63
19,58,39,-39,-9,48,29,43,78,58,63,68
34,53,19,-43,7,36,19,43,68,58,63,68
48,53,4,-51,21,29,14,43,58,68,63,82
58,82,24,-70,17,53,-14,29,53,58,58,63
68,122,53,-95,7,87,-53,-4,24,39,39,48
82,126,43,-104,19,85,-87,-43,14,34,53,58
68,126,58,-97,4,92,-97,-63,4,24,53,63
68,97,29,-82,19,63,-92,-73,-19,19,34,48
68,68,0,-68,34,34,-78,-63,-19,24,39,58
63,63,0,-63,31,31,-78,-73,-29,0,24,43
48,53,4,-51,21,29,-68,-63,-29,4,24,53
68,48,-19,-58,43,14,-68,-63,-29,-4,24,53
78,9,-68,-43,73,-29,-58,-63,-34,-9,24,48
82,19,-63,-51,73,-21,-68,-68,-53,-24,9,34
78,29,-48,-53,63,-9,-78,-78,-68,-39,-9,24
78,14,-63,-46,70,-24,-82,-97,-73,-43,-14,9
78,-4,-82,-36,80,-43,-58,-82,-53,-34,-4,14
48,19,-29,-34,39,-4,-43,-63,-48,-29,-14,14
19,9,-9,-14,14,0,-29,-58,-34,-19,-9,24
4,-4,-9,0,7,-7,-9,-53,-43,-29,-19,-9
-39,-34,4,36,-21,-14,19,-39,-39,-39,-19,-24
-68,-48,19,58,-43,-14,29,-24,-19,-29,-19,-9
-58,-48,9,53,-34,-19,19,-29,-19,-24,-24,-9
-48,-39,9,43,-29,-14,19,-39,-19,-24,-24,-14
-48,-29,19,39,-34,-4,19,-29,-19,-24,-24,-14
-63,-53,9,58,-36,-21,29,-29,-14,-24,-24,-9
-73,-48,24,61,-48,-12,29,-34,-14,-29,-24,-14
-73,-63,9,68,-41,-26,24,-39,-19,-34,-29,-19
-78,-73,4,75,-41,-34,19,-43,-24,-39,-34,-19
-73,-63,9,68,-41,-26,24,-39,-24,-34,-24,-9
-73,-53,19,63,-46,-17,24,-39,-29,-34,-24,-9
-73,-53,19,63,-46,-17,29,-39,-29,-29,-19,-19
-87,-73,14,80,-51,-29,43,-39,-14,-19,-14,-9
-82,-43,39,63,-61,-2,29,-39,-14,-19,-14,-9
-78,-19,58,48,-68,19,29,-39,-4,-19,-14,-9
-97,-29,68,63,-82,19,48,-4,24,19,4,14
-112,53,165,29,-139,109,53,0,73,63,43,34
-122,185,307,-31,-214,246,53,-4,175,170,131,112
-156,385,541,-114,-348,463,29,0,356,366,322,283
-102,561,663,-229,-383,612,-4,107,566,619,585,527
19,702,683,-361,-331,692,68,522,985,1107,1058,936
239,907,668,-573,-214,788,14,819,1141,1424,1459,1351
478,1224,746,-851,-134,985,-326,405,936,1498,1820,1805
790,1615,824,-1202,-17,1220,-854,-366,497,1454,2171,2327
1224,2127,902,-1676,161,1515,-1517,-1195,-73,1312,2488,2825
1673,1942,268,-1808,702,1105,-1908,-1610,-634,1039,2557,3025
2103,1371,-732,-1737,1417,319,-2059,-1629,-932,946,2552,3079
2420,546,-1873,-1483,2147,-663,-1995,-1361,-1122,668,2142,2649
2596,-307,-2903,-1144,2749,-1605,-1712,-1034,-1473,-73,1049,1556
2581,-961,-3542,-810,3062,-2252,-1395,-810,-1717,-824,19,463
2308,-1454,-3762,-427,3035,-2608,-1015,-580,-1712,-1141,-634,-326
1771,-1503,-3274,-134,2522,-2388,-722,-595,-1590,-1356,-1107,-849
1268,-1371,-2640,51,1954,-2005,-541,-663,-1468,-1371,-1239,-1049
936,-1127,-2064,95,1500,-1595,-434,-585,-1234,-1176,-1078,-946
527,-644,-1171,58,849,-907,-248,-346,-678,-619,-580,-536
151,-380,-531,114,341,-456,-14,-102,-307,-292,-287,-302
53,-268,-322,107,187,-295,48,-19,-180,-180,-195,-195
14,-204,-219,95,117,-212,78,24,-117,-122,-151,-165
-24,-175,-151,100,63,-163,82,24,-102,-107,-156,-170
-53,-151,-97,102,21,-124,92,24,-82,-107,-156,-170
-63,-151,-87,107,12,-119,107,24,-53,-97,-141,-146
-87,-136,-48,112,-19,-92,107,39,-39,-73,-126,-141
-97,-112,-14,104,-41,-63,102,39,-29,-63,-122,-141
-107,-107,0,107,-53,-53,117,43,-14,-58,-117,-136
-126,-107,19,117,-73,-43,126,48,0,-48,-102,-122
-126,-82,43,104,-85,-19,126,43,4,-48,-107,-126
-126,-63,63,95,-95,0,117,43,0,-58,-117,-136
-126,-53,73,90,-100,9,126,48,0,-58,-117,-136
-131,-92,39,112,-85,-26,141,48,14,-48,-102,-122
-136,-63,73,100,-104,4,131,43,14,-58,-112,-131
-141,-63,78,102,-109,7,131,43,9,-58,-112,-131
-146,-43,102,95,-124,29,126,43,9,-63,-112,-141
-146,-78,68,112,-107,-4,126,48,9,-63,-112,-131
-141,-82,58,112,-100,-12,126,63,4,-68,-122,-141
-141,-82,58,112,-100,-12,126,63,9,-68,-126,-151
-136,-78,58,107,-97,-9,126,73,9,-68,-126,-151
-146,-63,82,104,-114,9,122,58,4,-63,-126,-151
-146,-43,102,95,-124,29,131,58,4,-63,-122,-156
-146,-34,112,90,-129,39,131,58,4,-63,-122,-161
-146,-48,97,97,-122,24,131,58,9,-63,-126,-161
-151,-63,87,107,-119,12,131,68,9,-58,-136,-156
-151,-63,87,107,-119,12,131,68,9,-68,-136,-161
-151,-63,87,107,-119,12,141,68,9,-68,-136,-161
-161,-43,117,102,-139,36,141,68,9,-63,-136,-165
-175,-29,146,102,-161,58,151,68,9,-63,-136,-170
-161,-48,112,104,-136,31,131,63,9,-68,-141,-175
-161,-73,87,117,-124,7,131,78,9,-68,-136,-175
-175,-34,141,104,-158,53,136,68,9,-73,-151,-190
-170,-19,151,95,-161,65,141,73,14,-73,-161,-190
-170,-24,146,97,-158,61,146,78,19,-63,-156,-190
-175,-82,92,129,-134,4,156,87,34,-63,-156,-190
-185,-39,146,112,-165,53,151,78,19,-73,-161,-200
-204,-34,170,119,-187,68,156,78,29,-73,-165,-209
-209,-14,195,112,-202,90,156,102,24,-87,-180,-229
-214,-43,170,129,-192,63,151,102,29,-87,-190,-229
-214,-4,209,109,-212,102,151,82,29,-97,-195,-239
-214,9,224,102,-219,117,156,82,34,-97,-190,-248
-219,-24,195,122,-207,85,180,107,43,-87,-190,-244
-219,-63,156,141,-187,46,185,122,53,-78,-195,-239
-239,-48,190,143,-214,70,190,151,58,-92,-214,-253
-248,-48,200,148,-224,75,195,146,58,-92,-219,-273
-263,-48,214,156,-239,82,190,136,58,-102,-229,-297
-278,-48,229,163,-253,90,200,151,63,-102,-244,-312
-287,-9,278,148,-283,134,200,141,53,-122,-268,-331
-292,-14,278,153,-285,131,204,146,53,-126,-287,-356
-302,-53,248,178,-275,97,224,165,63,-126,-292,-370
-307,-48,258,178,-283,104,224,170,68,-136,-317,-390
-336,-63,273,200,-305,104,253,180,78,-146,-331,-409
-341,-63,278,202,-309,107,258,180,78,-161,-361,-444
-356,-39,317,197,-336,139,263,195,82,-175,-375,-468
-380,-78,302,229,-341,112,278,204,82,-175,-385,-488
-395,-43,351,219,-373,153,287,195,78,-200,-424,-517
-424,-19,405,222,-414,192,302,200,73,-219,-453,-546
-434,-53,380,244,-407,163,307,200,63,-234,-488,-585
-478,-92,385,285,-431,146,326,219,78,-239,-497,-595
-488,-78,409,283,-448,165,322,204,63,-258,-522,-629
-497,-63,434,280,-466,185,322,195,48,-278,-551,-663
-507,-63,444,285,-475,190,322,180,43,-287,-566,-678
-517,-68,448,292,-483,190,322,165,39,-302,-585,-692
-517,-78,439,297,-478,180,312,151,24,-312,-590,-692
-517,-87,429,302,-473,170,302,136,9,-322,-595,-692
-512,-87,424,300,-468,168,287,122,0,-322,-595,-692
-507,-87,419,297,-463,165,273,107,-9,-322,-595,-692
-483,-102,380,292,-431,139,258,97,-14,-307,-566,-663
-458,-117,341,287,-400,112,244,87,-19,-292,-536,-634
-424,-92,331,258,-378,119,219,73,-19,-273,-497,-595
-390,-68,322,229,-356,126,195,58,-19,-253,-458,-556
-346,-82,263,214,-305,90,180,58,-14,-219,-400,-488
-302,-97,204,200,-253,53,165,58,-9,-185,-341,-419
-258,-82,175,170,-217,46,141,48,-9,-161,-297,-370
-214,-68,146,141,-180,39,117,39,-9,-136,-253,-322
-185,-58,126,122,-156,34,102,34,-4,-107,-204,-263
-156,-48,107,102,-131,29,87,29,0,-78,-156,-204
-131,-48,82,90,-107,17,73,29,0,-58,-122,-161
-107,-48,58,78,-82,4,58,29,0,-39,-87,-117
-87,-48,39,68,-63,-4,39,14,0,-29,-73,-92
-68,-48,19,58,-43,-14,19,0,0,-19,-58,-68
-48,-48,0,48,-24,-24,9,-4,0,-9,-34,-39
-29,-48,-19,39,-4,-34,0,-9,0,0,-9,-9
-19,-39,-19,29,0,-29,0,-9,0,4,0,0
-9,-29,-19,19,4,-24,0,-9,0,9,9,9
-9,-29,-19,19,4,-24,0,-9,0,14,19,19
-9,-29,-19,19,4,-24,0,-9,0,19,29,29
0,-39,-39,19,19,-39,0,-14,0,19,29,34
9,-48,-58,19,34,-53,0,-19,0,19,29,39
9,-19,-29,4,19,-24,-4,-29,-4,19,29,39
9,9,0,-9,4,4,-9,-39,-9,19,29,39
9,-19,-29,4,19,-24,-9,-29,-9,19,34,43
9,-48,-58,19,34,-53,-9,-19,-9,19,39,48
9,-34,-43,12,26,-39,-9,-19,-9,19,39,48
9,-19,-29,4,19,-24,-9,-19,-9,19,39,48
9,-39,-48,14,29,-43,-9,-19,-4,19,39,48
9,-58,-68,24,39,-63,-9,-19,0,19,39,48
4,-34,-39,14,21,-36,-19,-29,0,19,39,48
0,-9,-9,4,4,-9,-29,-39,0,19,39,48
0,-24,-24,12,12,-24,-19,-29,0,24,43,53
0,-39,-39,19,19,-39,-9,-19,0,29,48,58
9,-39,-48,14,29,-43,-9,-19,0,29,48,58
19,-39,-58,9,39,-48,-9,-19,0,29,48,58
48,-73,-122,12,85,-97,-4,14,-4,29,53,58
78,-107,-185,14,131,-146,0,48,-9,29,58,58
112,-190,-302,39,207,-246,9,87,-9,53,92,82
146,-273,-419,63,283,-346,19,126,-9,78,126,107
224,-219,-444,-2,334,-331,0,209,92,263,331,278
302,-165,-468,-68,385,-317,-19,292,195,448,536,448
331,19,-312,-175,322,-146,-29,380,390,712,805,673
361,204,-156,-283,258,24,-39,468,585,976,1073,897
409,678,268,-544,70,473,-102,531,883,1366,1522,1351
458,1151,692,-805,-117,922,-165,595,1180,1756,1971,1805
439,1766,1327,-1102,-444,1546,-263,551,1420,2010,2274,2205
419,2381,1961,-1400,-771,2171,-361,507,1659,2264,2576,2605
68,2757,2688,-1412,-1310,2723,-317,336,1747,2122,2327,2474
-283,3132,3416,-1424,-1849,3274,-273,165,1834,1981,2078,2342
-761,3079,3840,-1159,-2300,3459,-112,-141,1615,1239,1000,1288
-1239,3025,4265,-893,-2752,3645,48,-448,1395,497,-78,234
-1342,2684,4026,-671,-2684,3355,200,-351,1268,239,-429,-253
-1444,2342,3786,-448,-2615,3064,351,-253,1141,-19,-780,-741
-1327,1742,3069,-207,-2198,2405,512,24,1098,0,-766,-839
-1210,1141,2352,34,-1781,1747,673,302,1054,19,-751,-936
-1034,922,1956,56,-1495,1439,707,497,1093,161,-561,-790
-858,702,1561,78,-1210,1132,741,692,1132,302,-370,-644
-683,439,1122,122,-902,780,814,917,1210,478,-161,-434
-507,175,683,165,-595,429,888,1141,1288,653,48,-224
-434,107,541,163,-488,324,810,897,1083,497,9,-219
-361,39,400,161,-380,219,732,653,878,341,-29,-214
-302,4,307,148,-305,156,502,331,556,136,-107,-214
-244,-29,214,136,-229,92,273,9,234,-68,-185,-214
-151,-87,63,119,-107,-12,185,9,102,-102,-170,-190
-58,-146,-87,102,14,-117,97,9,-29,-136,-156,-165
-29,-146,-117,87,43,-131,58,9,-63,-136,-136,-141
0,-146,-146,73,73,-146,19,9,-97,-136,-117,-117
14,-161,-175,73,95,-168,14,4,-107,-136,-117,-117
29,-175,-204,73,117,-190,9,0,-117,-136,-117,-117
29,-190,-219,80,124,-204,0,-14,-131,-141,-117,-117
29,-204,-234,87,131,-219,-9,-29,-146,-146,-117,-117
39,-204,-244,82,141,-224,-14,-39,-161,-156,-122,-117
48,-204,-253,78,151,-229,-19,-48,-175,-165,-126,-117
48,-219,-268,85,158,-244,-19,-48,-180,-165,-126,-117
48,-234,-283,92,165,-258,-19,-48,-185,-165,-126,-117
48,-234,-283,92,165,-258,-29,-58,-200,-175,-136,-122
48,-234,-283,92,165,-258,-39,-68,-214,-185,-146,-126
58,-239,-297,90,178,-268,-39,-68,-214,-185,-146,-126
68,-244,-312,87,190,-278,-39,-68,-214,-185,-146,-126
58,-248,-307,95,183,-278,-39,-73,-219,-190,-151,-131
48,-253,-302,102,175,-278,-39,-78,-224,-195,-156,-136
48,-253,-302,102,175,-278,-43,-82,-234,-209,-170,-146
48,-253,-302,102,175,-278,-48,-87,-244,-224,-185,-156
58,-253,-312,97,185,-283,-48,-92,-253,-229,-195,-165
68,-253,-322,92,195,-287,-48,-97,-263,-234,-204,-175
68,-273,-341,102,204,-307,-48,-97,-268,-234,-204,-180
68,-292,-361,112,214,-326,-48,-97,-273,-234,-204,-185
68,-307,-375,119,222,-341,-53,-102,-283,-244,-214,-195
68,-322,-390,126,229,-356,-58,-107,-292,-253,-224,-204
68,-346,-414,139,241,-380,-58,-107,-297,-263,-229,-209
68,-370,-439,151,253,-405,-58,-107,-302,-273,-234,-214
68,-336,-405,134,236,-370,-63,-117,-326,-292,-253,-234
68,-302,-370,117,219,-336,-68,-126,-351,-312,-273,-253
73,-351,-424,139,248,-387,-68,-126,-351,-312,-273,-253
78,-400,-478,161,278,-439,-68,-126,-351,-312,-273,-253
92,-385,-478,146,285,-431,-78,-126,-366,-331,-292,-273
107,-370,-478,131,292,-424,-87,-126,-380,-351,-312,-292
126,-395,-522,134,324,-458,-78,-126,-385,-351,-317,-297
146,-419,-566,136,356,-492,-68,-126,-390,-351,-322,-302
151,-444,-595,146,373,-519,-68,-117,-395,-356,-326,-307
156,-468,-624,156,390,-546,-68,-107,-400,-361,-331,-312
180,-483,-663,151,422,-573,-78,-107,-419,-380,-346,-331
204,-497,-702,146,453,-600,-87,-107,-439,-400,-361,-351
224,-531,-756,153,490,-644,-97,-117,-468,-429,-385,-375
244,-566,-810,161,527,-688,-107,-126,-497,-458,-409,-400
258,-614,-873,178,566,-744,-146,-161,-551,-492,-439,-424
273,-663,-936,195,605,-800,-185,-195,-605,-527,-468,-448
292,-692,-985,200,639,-839,-214,-224,-649,-561,-492,-468
312,-722,-1034,204,673,-878,-244,-253,-692,-595,-517,-488
331,-736,-1068,202,700,-902,-248,-263,-722,-614,-527,-502
351,-751,-1102,200,727,-927,-253,-273,-751,-634,-536,-517
380,-766,-1146,192,763,-956,-263,-273,-790,-653,-546,-517
409,-780,-1190,185,800,-985,-273,-273,-829,-673,-556,-517
448,-810,-1259,180,854,-1034,-278,-263,-834,-663,-531,-497
488,-839,-1327,175,907,-1083,-283,-253,-839,-653,-507,-478
512,-839,-1351,163,932,-1095,-292,-244,-839,-629,-468,-439
536,-839,-1376,151,956,-1107,-302,-234,-839,-605,-429,-400
556,-814,-1371,129,963,-1093,-302,-214,-819,-566,-380,-356
575,-790,-1366,107,971,-1078,-302,-195,-800,-527,-331,-312
561,-756,-1317,97,939,-1037,-297,-170,-761,-468,-263,-239
546,-722,-1268,87,907,-995,-292,-146,-722,-409,-195,-165
517,-688,-1205,85,861,-946,-273,-122,-678,-366,-146,-122
488,-653,-1141,82,814,-897,-253,-97,-634,-322,-97,-78
478,-590,-1068,56,773,-829,-253,-97,-605,-283,-58,-34
468,-527,-995,29,732,-761,-253,-97,-575,-244,-19,9
444,-468,-912,12,678,-690,-239,-82,-527,-204,19,53
419,-409,-829,-4,624,-619,-224,-68,-478,-165,58,97
385,-361,-746,-12,566,-553,-214,-63,-448,-146,68,112
351,-312,-663,-19,507,-488,-204,-58,-419,-126,78,126
302,-273,-575,-14,439,-424,-180,-58,-370,-107,87,126
253,-234,-488,-9,370,-361,-156,-58,-322,-87,97,126
229,-180,-409,-24,319,-295,-146,-58,-292,-78,87,126
204,-126,-331,-39,268,-229,-136,-58,-263,-68,78,126
165,-122,-287,-21,226,-204,-102,-39,-219,-48,78,126
126,-117,-244,-4,185,-180,-68,-19,-175,-29,78,126
102,-107,-209,2,156,-158,-53,-19,-141,-14,78,122
78,-97,-175,9,126,-136,-39,-19,-107,0,78,117
48,-78,-126,14,87,-102,-29,-19,-87,4,73,107
19,-58,-78,19,48,-68,-19,-19,-68,9,68,97
4,-53,-58,24,31,-56,-9,-14,-48,19,63,87
-9,-48,-39,29,14,-43,0,-9,-29,29,58,78
-14,-29,-14,21,0,-21,0,-9,-19,29,53,73
-19,-9,9,14,-14,0,0,-9,-9,29,48,68
-24,-9,14,17,-19,2,14,-4,4,39,48,63
-29,-9,19,19,-24,4,29,0,19,48,48,58
-34,-9,24,21,-29,7,29,0,29,48,48,58
-39,-9,29,24,-34,9,29,0,39,48,48,58
-48,-9,39,29,-43,14,34,4,39,48,48,58
-58,-9,48,34,-53,19,39,9,39,48,48,58
-58,-9,48,34,-53,19,39,9,43,48,48,53
-58,-9,48,34,-53,19,39,9,48,48,48,48
-58,-19,39,39,-48,9,43,14,53,53,48,48
-58,-29,29,43,-43,0,48,19,58,58,48,48
-58,-29,29,43,-43,0,48,19,58,58,48,48
-58,-29,29,43,-43,0,48,19,58,58,48,48
-58,-4,53,31,-56,24,39,19,48,53,43,43
-58,19,78,19,-68,48,29,19,39,48,39,39
-58,-4,53,31,-56,24,43,29,48,48,39,39
-58,-29,29,43,-43,0,58,39,58,48,39,39
-58,-29,29,43,-43,0,58,39,58,48,39,39
-58,-29,29,43,-43,0,58,39,58,48,39,39
-63,-34,29,48,-46,-2,68,39,58,53,39,39
-68,-39,29,53,-48,-4,78,39,58,58,39,39
-68,-39,29,53,-48,-4,68,39,58,58,39,34
-68,-39,29,53,-48,-4,58,39,58,58,39,29
-63,-29,34,46,-48,2,58,34,53,48,34,24
-58,-19,39,39,-48,9,58,29,48,39,29,19
-58,-9,48,34,-53,19,58,29,48,39,29,19
-58,0,58,29,-58,29,58,29,48,39,29,19
-58,-9,48,34,-53,19,58,29,48,39,29,24
-58,-19,39,39,-48,9,58,29,48,39,29,29
-58,-19,39,39,-48,9,58,34,48,39,34,29
-58,-19,39,39,-48,9,58,39,48,39,39,29
-58,-19,39,39,-48,9,58,39,48,39,39,29
-58,-19,39,39,-48,9,58,39,48,39,39,29
-58,4,63,26,-61,34,48,34,39,39,29,29
-58,29,87,14,-73,58,39,29,29,39,19,29
-58,-4,53,31,-56,24,48,29,39,39,29,29
-58,-39,19,48,-39,-9,58,29,48,39,39,29
-58,-29,29,43,-43,0,58,29,48,39,39,29
-58,-19,39,39,-48,9,58,29,48,39,39,29
-58,-9,48,34,-53,19,53,24,43,34,34,29
-58,0,58,29,-58,29,48,19,39,29,29,29
-58,0,58,29,-58,29,48,19,39,29,29,29
-58,0,58,29,-58,29,48,19,39,29,29,29
-58,0,58,29,-58,29,48,14,39,29,29,29
-58,0,58,29,-58,29,48,9,39,29,29,29
-58,29,87,14,-73,58,34,4,34,29,29,29
-58,58,117,0,-87,87,19,0,29,29,29,29
-58,39,97,9,-78,68,29,0,29,34,29,29
-58,19,78,19,-68,48,39,0,29,39,29,29
-58,19,78,19,-68,48,39,0,29,39,29,29
-58,19,78,19,-68,48,39,0,29,39,29,29
-58,19,78,19,-68,48,39,0,29,34,29,29
-58,19,78,19,-68,48,39,0,29,29,29,29
-58,19,78,19,-68,48,34,-4,29,29,29,29
-58,19,78,19,-68,48,29,-9,29,29,29,29
-58,19,78,19,-68,48,29,-9,29,29,29,29
-58,19,78,19,-68,48,29,-9,29,29,29,29
-58,39,97,9,-78,68,19,-14,24,24,19,19
-58,58,117,0,-87,87,9,-19,19,19,9,9
-58,48,107,4,-82,78,9,-19,19,19,9,9
-58,39,97,9,-78,68,9,-19,19,19,9,9
-58,29,87,14,-73,58,9,-19,19,19,9,9
-58,19,78,19,-68,48,9,-19,19,19,9,9
-58,34,92,12,-75,63,9,-19,19,19,9,9
-58,48,107,4,-82,78,9,-19,19,19,9,9
-58,24,82,17,-70,53,19,-9,29,29,19,19
-58,0,58,29,-58,29,29,0,39,39,29,29
-58,39,97,9,-78,68,14,-14,29,19,9,9
-58,78,136,-9,-97,107,0,-29,19,0,-9,-9
-58,48,107,4,-82,78,0,-29,19,9,0,0
-58,19,78,19,-68,48,0,-29,19,19,9,9
-58,29,87,14,-73,58,0,-29,19,19,9,9
-58,39,97,9,-78,68,0,-29,19,19,9,9
-53,39,92,7,-73,65,0,-19,24,19,9,14
-48,39,87,4,-68,63,0,-9,29,19,9,19
-48,39,87,4,-68,63,0,-9,29,19,9,19
-48,39,87,4,-68,63,0,-9,29,19,9,19
-48,24,73,12,-61,48,0,-14,24,19,9,19
-48,9,58,19,-53,34,0,-19,19,19,9,19
-48,34,82,7,-65,58,-4,-24,14,19,9,14
-48,58,107,-4,-78,82,-9,-29,9,19,9,9
-48,58,107,-4,-78,82,-9,-39,9,9,0,0
-48,58,107,-4,-78,82,-9,-48,9,0,-9,-9
-58,43,102,7,-80,73,-4,-39,14,9,0,4
-68,29,97,19,-82,63,0,-29,19,19,9,19
-58,29,87,14,-73,58,0,-29,19,19,9,19
-48,29,78,9,-63,53,0,-29,19,19,9,19
-48,29,78,9,-63,53,0,-29,19,19,9,19
-48,29,78,9,-63,53,0,-29,19,19,9,19
-48,29,78,9,-63,53,0,-29,19,19,9,19
-48,29,78,9,-63,53,0,-29,19,19,9,19
-48,29,78,9,-63,53,-4,-29,14,9,4,14
-48,29,78,9,-63,53,-9,-29,9,0,0,9
-48,29,78,9,-63,53,-9,-29,9,0,0,9
-48,29,78,9,-63,53,-9,-29,9,0,0,9
-48,29,78,9,-63,53,-9,-29,9,0,0,9
-48,29,78,9,-63,53,-9,-29,9,0,0,9
-48,39,87,4,-68,63,-9,-29,9,0,0,9
-48,48,97,0,-73,73,-9,-29,9,0,0,9
-48,34,82,7,-65,58,-9,-24,9,4,4,9
-48,19,68,14,-58,43,-9,-19,9,9,9,9
-48,19,68,14,-58,43,-9,-19,9,9,9,9
-48,19,68,14,-58,43,-9,-19,9,9,9,9
-48,34,82,7,-65,58,-14,-24,9,9,4,4
-48,48,97,0,-73,73,-19,-29,9,9,0,0
-48,48,97,0,-73,73,-19,-29,9,9,0,0
-48,48,97,0,-73,73,-19,-29,9,9,0,0
-48,34,82,7,-65,58,-19,-29,9,9,0,0
-48,19,68,14,-58,43,-19,-29,9,9,0,0
-48,34,82,7,-65,58,-19,-29,9,9,0,0
-48,48,97,0,-73,73,-19,-29,9,9,0,0
-48,29,78,9,-63,53,-14,-24,14,9,0,4
-48,9,58,19,-53,34,-9,-19,19,9,0,9
-48,9,58,19,-53,34,-9,-19,19,9,0,9
-48,9,58,19,-53,34,-9,-19,19,9,0,9
-43,39,82,2,-63,61,-9,-24,14,9,0,4
-39,68,107,-14,-73,87,-9,-29,9,9,0,0
-39,48,87,-4,-63,68,-9,-29,9,9,0,0
-39,29,68,4,-53,48,-9,-29,9,9,0,0
-43,24,68,9,-56,46,-9,-29,14,9,0,0
-48,19,68,14,-58,43,-9,-29,19,9,0,0
-48,19,68,14,-58,43,-9,-29,19,9,0,0
-48,19,68,14,-58,43,-9,-29,19,9,0,0
-48,0,48,24,-48,24,-9,-19,19,9,0,0
-48,-19,29,34,-39,4,-9,-9,19,9,0,0
-48,14,63,17,-56,39,-9,-19,14,4,0,-4
-48,48,97,0,-73,73,-9,-29,9,0,0,-9
-48,39,87,4,-68,63,-9,-29,9,0,0,-9
-48,29,78,9,-63,53,-9,-29,9,0,0,-9
-48,19,68,14,-58,43,-9,-24,9,4,0,-4
-48,9,58,19,-53,34,-9,-19,9,9,0,0
-43,9,53,17,-48,31,-9,-19,9,9,0,0
-39,9,48,14,-43,29,-9,-19,9,9,0,0
-39,29,68,4,-53,48,-9,-19,9,4,0,0
-39,48,87,-4,-63,68,-9,-19,9,0,0,0
-43,24,68,9,-56,46,-9,-19,9,0,0,0
-48,0,48,24,-48,24,-9,-19,9,0,0,0
-58,0,58,29,-58,29,-9,-19,9,4,0,0
-68,0,68,34,-68,34,-9,-19,9,9,0,0
-58,14,73,21,-65,43,-9,-19,14,9,0,0
-48,29,78,9,-63,53,-9,-19,19,9,0,0
-48,19,68,14,-58,43,-9,-19,19,4,0,0
-48,9,58,19,-53,34,-9,-19,19,0,0,0
-48,9,58,19,-53,34,-9,-19,14,0,0,0
-48,9,58,19,-53,34,-9,-19,9,0,0,0
-48,4,53,21,-51,29,-9,-19,9,0,0,0
-48,0,48,24,-48,24,-9,-19,9,0,0,0
-48,0,48,24,-48,24,-9,-19,14,0,0,0
-48,0,48,24,-48,24,-9,-19,19,0,0,0
-48,-9,39,29,-43,14,-9,-19,19,0,0,0
-48,-19,29,34,-39,4,-9,-19,19,0,0,0
-48,14,63,17,-56,39,-9,-24,14,-4,-9,-4
-48,48,97,0,-73,73,-9,-29,9,-9,-19,-9
-48,48,97,0,-73,73,-9,-29,9,-9,-19,-9
-48,48,97,0,-73,73,-9,-29,9,-9,-19,-9
-48,19,68,14,-58,43,-9,-24,14,-4,-14,-9
-48,-9,39,29,-43,14,-9,-19,19,0,-9,-9
-48,-9,39,29,-43,14,-4,-19,19,0,-4,-4
-48,-9,39,29,-43,14,0,-19,19,0,0,0
-48,0,48,24,-48,24,0,-19,19,0,0,0
-48,9,58,19,-53,34,0,-19,19,0,0,0
-48,9,58,19,-53,34,0,-19,19,0,-4,-4
-48,9,58,19,-53,34,0,-19,19,0,-9,-9
-53,4,58,24,-56,31,0,-19,19,0,-9,-9
-58,0,58,29,-58,29,0,-19,19,0,-9,-9
-58,0,58,29,-58,29,0,-19,14,0,-9,-9
-58,0,58,29,-58,29,0,-19,9,0,-9,-9
-58,9,68,24,-63,39,-4,-24,9,-4,-9,-14
-58,19,78,19,-68,48,-9,-29,9,-9,-9,-19
-58,19,78,19,-68,48,-9,-29,9,-9,-9,-19
-58,19,78,19,-68,48,-9,-29,9,-9,-9,-19
-58,19,78,19,-68,48,-9,-29,9,-9,-9,-19
-58,19,78,19,-68,48,-9,-29,9,-9,-9,-19
-58,4,63,26,-61,34,-4,-24,14,-4,-4,-9
-58,-9,48,34,-53,19,0,-19,19,0,0,0
-58,-9,48,34,-53,19,0,-19,19,0,0,0
-58,-9,48,34,-53,19,0,-19,19,0,0,0
-53,0,53,26,-53,26,0,-19,19,0,-4,-4
-48,9,58,19,-53,34,0,-19,19,0,-9,-9
-48,9,58,19,-53,34,-4,-24,19,-4,-9,-9
-48,9,58,19,-53,34,-9,-29,19,-9,-9,-9
-53,14,68,19,-61,41,-9,-24,19,-4,-9,-9
-48,19,68,14,-58,43,0,-9,34,4,0,0
-43,29,73,7,-58,51,9,0,53,14,9,9
-29,43,73,-7,-51,58,14,4,53,29,14,14
-4,73,78,-34,-41,75,14,14,63,39,29,24
19,97,78,-58,-29,87,19,24,68,43,34,34
-4,97,102,-46,-53,100,19,34,82,53,39,39
14,92,78,-53,-31,85,9,39,87,58,48,39
29,68,39,-48,-4,53,24,48,97,68,53,53
39,43,4,-41,17,24,24,53,117,78,68,53
48,78,29,-63,9,53,-19,34,87,78,58,48
58,107,48,-82,4,78,-68,-4,53,63,48,39
39,107,68,-73,-14,87,-87,-24,43,48,43,48
39,97,58,-68,-9,78,-107,-53,19,29,29,39
39,78,39,-58,0,58,-107,-63,9,14,29,39
39,63,24,-51,7,43,-107,-73,0,0,14,24
29,73,43,-51,-7,58,-97,-73,-9,14,14,34
48,87,39,-68,4,63,-97,-82,-19,4,14,34
63,48,-14,-56,39,17,-78,-73,-9,4,24,34
68,48,-19,-58,43,14,-78,-68,-14,-4,19,24
68,29,-39,-48,53,-4,-78,-63,-29,-19,0,24
78,-4,-82,-36,80,-43,-78,-73,-43,-34,-14,14
78,-14,-92,-31,85,-53,-82,-87,-48,-43,-24,0
58,19,-39,-39,48,-9,-92,-92,-58,-48,-34,-14
48,9,-39,-29,43,-14,-87,-87,-43,-39,-19,-4
34,9,-24,-21,29,-7,-78,-82,-43,-39,-29,-24
-19,-4,14,12,-17,4,-34,-58,-24,-34,-24,-19
-48,-29,19,39,-34,-4,-9,-39,-9,-29,-24,-14
-53,-39,14,46,-34,-12,-9,-48,-19,-34,-34,-29
-68,-39,29,53,-48,-4,0,-58,-19,-34,-34,-34
-78,-43,34,61,-56,-4,0,-48,-19,-39,-39,-39
-78,-63,14,70,-46,-24,9,-43,-14,-39,-43,-34
-78,-48,29,63,-53,-9,4,-43,-14,-39,-43,-34
-82,-48,34,65,-58,-7,0,-43,-14,-39,-43,-39
-87,-43,43,65,-65,0,0,-43,-14,-43,-48,-43
-87,-43,43,65,-65,0,4,-39,-9,-43,-43,-39
-82,-43,39,63,-61,-2,4,-39,-9,-43,-43,-39
-73,-43,29,58,-51,-7,9,-39,-9,-43,-43,-48
-87,-53,34,70,-61,-9,24,-39,4,-39,-43,-39
-87,-29,58,58,-73,14,9,-39,-4,-39,-43,-39
-87,-43,43,65,-65,0,19,-39,-4,-39,-43,-39
-112,-87,24,100,-68,-31,48,-9,14,-19,-34,-24
-151,-19,131,85,-141,56,53,0,39,-9,-29,-39
-180,107,287,36,-234,197,53,0,122,78,34,14
-234,297,531,-31,-383,414,43,-24,297,253,185,156
-209,522,732,-156,-470,627,4,34,488,463,385,346
-117,722,839,-302,-478,780,87,458,927,956,863,732
82,839,756,-461,-336,797,117,858,1180,1337,1263,1107
292,1083,790,-688,-248,936,-156,551,1068,1468,1639,1576
575,1527,951,-1051,-187,1239,-722,-287,663,1429,2000,2103
946,2191,1244,-1568,-148,1717,-1459,-1278,92,1288,2352,2635
1322,2249,927,-1786,197,1588,-1912,-1825,-463,1049,2479,2918
1859,1869,9,-1864,924,939,-2161,-1937,-736,1083,2659,3191
2352,1112,-1239,-1732,1795,-63,-2176,-1649,-878,980,2562,3089
2669,214,-2454,-1442,2562,-1119,-1922,-1239,-1200,317,1600,2152
2830,-585,-3416,-1122,3123,-2000,-1620,-951,-1546,-488,507,1039
2693,-1200,-3894,-746,3294,-2547,-1249,-707,-1688,-971,-341,39
2200,-1376,-3577,-412,2888,-2476,-912,-683,-1629,-1293,-922,-614
1629,-1371,-3001,-129,2315,-2186,-683,-736,-1542,-1371,-1161,-927
1220,-1137,-2357,-41,1788,-1747,-561,-663,-1332,-1234,-1107,-941
780,-688,-1468,-46,1124,-1078,-366,-419,-805,-732,-644,-590
287,-453,-741,82,514,-597,-92,-156,-390,-385,-356,-366
92,-326,-419,117,256,-373,9,-39,-204,-209,-224,-214
39,-268,-307,114,173,-287,39,9,-136,-146,-175,-190
-14,-200,-185,107,85,-192,43,4,-126,-146,-195,-214
-43,-131,-87,87,21,-109,53,-4,-122,-165,-214,-239
-58,-165,-107,112,24,-136,78,4,-78,-136,-190,-204
-87,-195,-107,141,9,-151,97,34,-48,-92,-165,-190
-97,-161,-63,129,-17,-112,102,39,-39,-92,-161,-190
-112,-146,-34,129,-39,-90,117,43,-24,-97,-156,-185
-141,-146,-4,143,-68,-75,126,53,-9,-87,-141,-170
-146,-141,4,143,-75,-68,126,58,0,-78,-141,-170
-146,-156,-9,151,-68,-82,117,63,0,-78,-146,-175
-146,-151,-4,148,-70,-78,126,68,0,-78,-146,-175
-151,-136,14,143,-82,-61,131,68,9,-78,-141,-180
-156,-63,92,109,-124,14,112,63,4,-97,-161,-209
-161,-82,78,122,-119,-2,122,63,0,-87,-161,-200
-165,-73,92,119,-129,9,126,63,0,-82,-161,-200
-170,-97,73,134,-122,-12,126,63,0,-82,-161,-190
-170,-97,73,134,-122,-12,126,73,0,-82,-165,-190
-170,-97,73,134,-122,-12,126,73,9,-82,-165,-190
-170,-97,73,134,-122,-12,131,82,14,-87,-165,-190
-185,-82,102,134,-143,9,126,68,14,-82,-165,-190
-185,-82,102,134,-143,9,131,68,14,-82,-161,-195
-185,-82,102,134,-143,9,131,68,19,-82,-161,-200
-185,-73,112,129,-148,19,131,68,24,-87,-165,-204
-185,-73,112,129,-148,19,131,82,19,-78,-170,-200
-180,-73,107,126,-143,17,131,87,19,-78,-165,-200
-180,-73,107,126,-143,17,141,87,19,-78,-165,-200
-185,-68,117,126,-151,24,141,97,24,-73,-165,-204
-204,-82,122,143,-163,19,156,112,34,-73,-161,-209
-200,-92,107,146,-153,7,141,97,39,-78,-170,-214
-200,-97,102,148,-151,2,141,97,39,-78,-175,-209
-219,-78,141,148,-180,31,146,97,39,-82,-180,-219
-219,-78,141,148,-180,31,151,112,43,-82,-180,-219
-219,-63,156,141,-187,46,156,117,48,-73,-175,-219
-214,-78,136,146,-175,29,165,117,58,-78,-190,-224
-214,-29,185,122,-200,78,165,107,39,-82,-204,-229
-234,-43,190,139,-212,73,175,117,48,-73,-190,-229
-234,-24,209,129,-222,92,175,126,48,-87,-190,-248
-234,-58,175,146,-204,58,170,126,58,-87,-200,-253
-234,-39,195,136,-214,78,170,131,58,-87,-200,-258
-234,-43,190,139,-212,73,175,131,68,-78,-190,-258
-248,-53,195,151,-222,70,200,146,78,-78,-190,-263
-258,-68,190,163,-224,61,204,161,82,-73,-195,-258
-278,-58,219,168,-248,80,209,180,87,-82,-214,-263
-278,-58,219,168,-248,80,214,175,87,-78,-214,-278
-278,-58,219,168,-248,80,214,185,87,-73,-214,-283
-297,-87,209,192,-253,61,229,209,102,-63,-224,-283
-312,-87,224,200,-268,68,229,209,112,-78,-234,-292
-312,-63,248,187,-280,92,234,219,122,-78,-239,-307
-322,-43,278,183,-300,117,253,234,131,-78,-244,-322
-322,-19,302,170,-312,141,253,239,136,-78,-258,-336
-356,-34,322,195,-339,143,283,258,146,-68,-253,-341
-370,-43,326,207,-348,141,292,287,156,-58,-263,-356
-385,-29,356,207,-370,163,302,307,170,-58,-268,-361
-405,-68,336,236,-370,134,317,307,180,-48,-263,-361
-405,-58,346,231,-375,143,326,312,190,-53,-273,-375
-414,-58,356,236,-385,148,346,336,204,-48,-273,-385
-414,-58,356,236,-385,148,351,346,209,-48,-292,-405
-458,-63,395,261,-427,165,366,385,234,-43,-292,-409
-463,-63,400,263,-431,168,370,390,244,-39,-297,-414
-468,-24,444,246,-456,209,375,390,239,-48,-307,-439
-483,14,497,234,-490,256,375,390,234,-53,-317,-448
-488,-9,478,248,-483,234,385,385,248,-34,-326,-444
-492,-39,453,265,-473,207,390,405,258,-14,-287,-429
-473,-24,448,248,-461,212,375,385,258,-24,-292,-429
-463,-24,439,244,-451,207,375,395,268,-19,-287,-419
-478,9,488,234,-483,248,366,380,263,-19,-278,-400
-463,-14,448,239,-456,217,346,366,258,4,-244,-366
-434,9,444,212,-439,226,317,341,258,19,-219,-346
-424,0,424,212,-424,212,317,341,258,39,-180,-302
-380,-19,361,200,-370,170,307,326,244,43,-161,-273
-346,-34,312,190,-329,139,283,317,234,63,-126,-229
-297,34,331,131,-314,183,219,258,209,58,-107,-209
-248,43,292,102,-270,168,204,224,190,48,-82,-180
-229,34,263,97,-246,148,175,200,170,73,-58,-156
-195,-19,175,107,-185,78,156,190,161,82,-19,-107
-156,4,161,75,-158,82,122,165,141,78,-19,-73
-126,4,131,61,-129,68,102,146,131,68,-4,-48
-87,4,92,41,-90,48,82,122,117,68,14,-29
-73,9,82,31,-78,46,63,97,102,68,24,-9
-53,-4,48,29,-51,21,39,78,97,58,29,4
-39,-19,19,29,-29,0,34,78,92,68,43,24
-19,-14,4,17,-12,-4,24,68,87,68,53,39
-14,-4,9,9,-12,2,14,53,78,63,48,43
-19,14,34,2,-26,24,0,39,68,53,48,43
-4,19,24,-7,-14,21,0,29,53,48,53,48
0,4,4,-2,-2,4,0,24,48,48,53,53
0,14,14,-7,-7,14,0,14,43,48,53,53
0,19,19,-9,-9,19,-9,14,39,53,53,58
0,-4,-4,2,2,-4,-9,9,39,53,53,58
4,-4,-9,0,7,-7,-9,9,39,34,48,48
4,-4,-9,0,7,-7,-9,19,39,39,48,48
9,-14,-24,2,17,-19,-4,19,39,48,53,63
9,-14,-24,2,17,-19,-4,19,43,48,53,68
9,0,-9,-4,9,-4,-14,4,39,48,53,58
9,14,4,-12,2,9,-14,0,29,43,39,53
0,19,19,-9,-9,19,-14,-9,29,19,39,43
0,19,19,-9,-9,19,-19,-9,19,24,43,53
0,14,14,-7,-7,14,-19,0,19,34,43,58
9,0,-9,-4,9,-4,-19,0,24,34,39,58
9,9,0,-9,4,4,-19,-4,24,24,39,43
4,-9,-14,2,9,-12,-4,-4,24,34,48,43
0,-24,-24,12,12,-24,-4,0,24,43,48,73
-9,-29,-19,19,4,-24,-4,0,34,48,48,58
0,-9,-9,4,4,-9,-9,4,19,24,29,43
4,-9,-14,2,9,-12,-9,4,14,24,34,43
0,-9,-9,4,4,-9,-19,0,14,29,34,43
-4,-19,-14,12,4,-17,-24,0,14,29,29,43
-9,-14,-4,12,-2,-9,-14,4,14,29,24,43
-9,-9,0,9,-4,-4,-14,4,14,29,19,39
14,0,-14,-7,14,-7,-24,-4,4,4,0,14
9,9,0,-9,4,4,-43,-24,-9,-9,0,4
-9,0,9,4,-9,4,-4,-4,19,4,4,14
-19,-9,9,14,-14,0,-4,-4,19,0,0,14
-19,-24,-4,21,-7,-14,-4,4,14,19,9,24
-4,-4,0,4,-2,-2,-4,4,9,0,-4,14
4,-9,-14,2,9,-12,-4,0,9,0,-4,14
0,-14,-14,7,7,-14,-4,0,9,0,-4,14
-14,-29,-14,21,0,-21,9,0,9,0,-4,14
-24,-39,-14,31,-4,-26,0,-4,0,-9,-14,4
-34,-29,4,31,-19,-12,0,-4,4,-9,-14,4
-34,-19,14,26,-24,-2,0,-4,9,-9,-19,4
-39,-9,29,24,-34,9,0,-9,9,-9,-19,4
-53,-9,43,31,-48,17,14,-9,0,-19,-19,-9
-53,-29,24,41,-39,-2,4,-9,-4,-24,-24,-14
-48,-39,9,43,-29,-14,4,-19,-4,-24,-19,-14
-48,-29,19,39,-34,-4,0,-24,0,-19,0,-4
-48,-14,34,31,-41,9,-4,-24,0,-19,-14,-4
-39,-29,9,34,-24,-9,-4,-24,4,-14,-9,-9
-39,-24,14,31,-26,-4,0,-29,4,-24,-19,-9
-58,-24,34,41,-46,4,4,-29,0,-29,-24,-9
-63,-43,19,53,-41,-12,4,-29,4,-24,-19,-9
-53,-53,0,53,-26,-26,4,-29,9,-19,-14,-9
-43,-63,-19,53,-12,-41,9,-29,9,-19,-14,-9
-53,-14,39,34,-46,12,0,-29,-4,-24,-19,-9
-63,34,97,14,-80,65,-14,-34,-19,-34,-24,-19
-63,4,68,29,-65,36,-4,-29,-19,-34,-34,-29
-58,-24,34,41,-46,4,4,-24,-4,-24,-19,-14
-58,-39,19,48,-39,-9,4,-24,0,-24,-14,-14
-58,-29,29,43,-43,0,4,-24,4,-24,-14,-14
-63,-29,34,46,-48,2,4,-29,-9,-29,-19,-14
-63,-29,34,46,-48,2,4,-29,-9,-29,-19,-14
-73,-53,19,63,-46,-17,9,-29,9,-29,-9,-14
-58,-34,24,46,-41,-4,9,-34,-9,-29,-9,-14
-73,-24,48,48,-61,12,4,-24,4,-24,-4,0
-58,-14,43,36,-51,14,9,-24,4,-24,-4,0
-63,-14,48,39,-56,17,9,-29,4,-19,-4,0
-68,-34,34,51,-51,0,19,-24,4,-19,-4,0
-53,-34,19,43,-36,-7,9,-34,-4,-24,-9,-4
-58,-19,39,39,-48,9,4,-39,4,-19,-14,-9
-58,-14,43,36,-51,14,0,-39,0,-19,-19,-4
-58,-14,43,36,-51,14,0,-43,-9,-19,-29,-4
-58,-14,43,36,-51,14,4,-39,-4,-19,-19,-4
-58,-19,39,39,-48,9,9,-39,0,-19,-9,-9
-58,0,58,29,-58,29,9,-39,4,-14,-9,-4
-58,19,78,19,-68,48,9,-39,9,-9,-9,0
-48,19,68,14,-58,43,9,-34,14,-4,-4,0
-39,29,68,4,-53,48,14,-19,34,4,4,9
-34,39,73,-2,-53,56,24,-4,53,14,19,19
-29,63,92,-17,-61,78,24,4,53,29,24,24
4,68,63,-36,-29,65,19,9,63,43,43,39
39,68,29,-53,4,48,19,14,68,53,53,53
9,68,58,-39,-24,63,19,24,78,58,53,58
24,63,39,-43,-7,51,9,29,78,58,58,58
43,53,9,-48,17,31,4,34,78,68,58,73
58,43,-14,-51,36,14,-14,34,87,78,68,73
68,78,9,-73,29,43,-48,9,68,73,58,73
78,107,29,-92,24,68,-87,-34,43,53,48,68
58,87,29,-73,14,58,-97,-53,24,34,43,63
58,58,0,-58,29,29,-107,-82,-9,9,29,39
53,58,4,-56,24,31,-102,-87,-19,-4,29,39
48,63,14,-56,17,39,-97,-92,-29,-19,14,24
39,53,14,-46,12,34,-87,-82,-29,-4,14,34
58,48,-9,-53,34,19,-87,-82,-29,-14,14,34
73,0,-73,-36,73,-36,-73,-78,-24,-14,19,34
78,-9,-87,-34,82,-48,-78,-78,-34,-24,9,24
68,-9,-78,-29,73,-43,-87,-87,-48,-39,-9,19
68,-24,-92,-21,80,-58,-97,-112,-63,-53,-24,4
78,-43,-122,-17,100,-82,-82,-102,-53,-53,-24,4
68,-19,-87,-24,78,-53,-73,-82,-48,-48,-24,4
48,-29,-78,-9,63,-53,-58,-78,-34,-29,0,14
24,-29,-53,2,39,-41,-39,-73,-34,-19,0,-4
-39,-29,9,34,-24,-9,-9,-58,-29,-29,-14,-9
-78,-39,39,58,-58,0,0,-48,-29,-39,-34,-14
-68,-48,19,58,-43,-14,-9,-58,-39,-43,-43,-29
-68,-48,19,58,-43,-14,-9,-68,-39,-43,-43,-34
-78,-63,14,70,-46,-24,-4,-53,-29,-43,-39,-29
-78,-92,-14,85,-31,-53,9,-43,-14,-39,-34,-14
-73,-78,-4,75,-34,-41,9,-43,-14,-39,-34,-14
-73,-78,-4,75,-34,-41,9,-43,-14,-39,-34,-19
-78,-58,19,68,-48,-19,9,-43,-19,-39,-34,-19
-78,-43,34,61,-56,-4,14,-39,-19,-34,-24,-9
-82,-58,24,70,-53,-17,14,-39,-19,-34,-24,-9
-82,-73,9,78,-46,-31,19,-39,-19,-34,-24,-19
-97,-92,4,95,-51,-43,34,-39,-4,-29,-24,-14
-97,-78,19,87,-58,-29,19,-39,-14,-29,-24,-19
-97,-73,24,85,-61,-24,19,-43,-14,-29,-34,-19
-122,-97,24,109,-73,-36,39,-19,4,-9,-34,-4
-156,-24,131,90,-143,53,43,-19,24,-14,-34,-24
-180,107,287,36,-234,197,43,-29,102,58,24,24
-234,302,536,-34,-385,419,19,-73,258,234,180,165
-209,531,741,-161,-475,636,-34,-34,429,444,385,356
-102,732,834,-314,-468,783,48,419,893,941,873,756
112,849,736,-480,-312,793,78,849,1171,1327,1283,1146
317,1068,751,-692,-217,910,-185,551,1044,1444,1634,1590
595,1488,893,-1041,-148,1190,-741,-278,624,1390,1971,2093
1010,2113,1102,-1561,-46,1607,-1459,-1259,53,1244,2308,2615
1429,2132,702,-1781,363,1417,-1893,-1795,-502,1000,2420,2888
1912,1727,-185,-1820,1049,771,-2127,-1908,-771,1000,2518,3059
2352,946,-1405,-1649,1878,-229,-2127,-1620,-907,863,2337,2854
2654,73,-2581,-1363,2618,-1254,-1883,-1224,-1244,190,1376,1898
2801,-702,-3503,-1049,3152,-2103,-1590,-951,-1605,-624,283,766
2679,-1327,-4006,-675,3342,-2666,-1229,-707,-1747,-1083,-527,-180
2200,-1512,-3713,-344,2957,-2613,-902,-683,-1688,-1381,-1068,-780
1654,-1537,-3191,-58,2422,-2364,-678,-751,-1615,-1478,-1302,-1078
1268,-1332,-2601,31,1934,-1966,-561,-692,-1420,-1361,-1244,-1078
814,-790,-1605,-12,1210,-1198,-375,-463,-873,-814,-736,-678
307,-463,-771,78,539,-617,-112,-214,-439,-424,-405,-405
97,-341,-439,122,268,-390,14,-68,-234,-229,-248,-229
29,-287,-317,129,173,-302,68,9,-146,-146,-175,-180
-24,-234,-209,129,92,-222,63,14,-122,-126,-175,-190
-53,-180,-126,117,36,-153,63,14,-102,-126,-175,-200
-68,-170,-102,119,17,-136,78,14,-68,-122,-161,-175
-97,-156,-58,126,-19,-107,87,34,-48,-102,-146,-170
-107,-141,-34,124,-36,-87,92,39,-39,-92,-141,-170
-122,-146,-24,134,-48,-85,107,43,-24,-87,-136,-165
-141,-136,4,139,-73,-65,122,48,-9,-78,-122,-151
-136,-122,14,129,-75,-53,126,48,0,-68,-122,-151
-136,-122,14,129,-75,-53,117,53,0,-68,-126,-156
-136,-102,34,119,-85,-34,126,58,0,-68,-126,-156
-146,-122,24,134,-85,-48,136,58,14,-58,-117,-141
-156,-82,73,119,-114,-4,122,53,14,-68,-131,-151
-161,-92,68,126,-114,-12,122,53,9,-68,-131,-151
-165,-73,92,119,-129,9,117,53,9,-73,-131,-161
-165,-97,68,131,-117,-14,122,58,9,-68,-126,-151
-161,-97,63,129,-112,-17,126,73,9,-63,-126,-151
-161,-97,63,129,-112,-17,126,73,19,-58,-126,-151
-161,-97,63,129,-112,-17,131,82,24,-58,-126,-151
-175,-82,92,129,-134,4,131,73,24,-53,-126,-146
-175,-82,92,129,-134,4,141,78,24,-53,-122,-146
-175,-87,87,131,-131,0,141,78,29,-48,-117,-151
-175,-82,92,129,-134,4,141,78,34,-48,-117,-156
-175,-82,92,129,-134,4,136,87,34,-48,-126,-156
-170,-82,87,126,-129,2,131,87,39,-58,-126,-161
-170,-82,87,126,-129,2,141,87,39,-58,-126,-161
-175,-78,97,126,-136,9,141,97,43,-53,-126,-165
-190,-107,82,148,-136,-12,170,126,58,-39,-112,-156
-180,-131,48,156,-114,-41,170,126,68,-29,-112,-146
-180,-78,102,129,-141,12,151,107,48,-48,-131,-156
-200,0,200,100,-200,100,136,87,29,-73,-151,-180
-200,-19,180,109,-190,80,141,102,34,-73,-151,-180
-200,-24,175,112,-187,75,146,107,39,-63,-146,-180
-204,-68,136,136,-170,34,156,117,58,-58,-146,-185
-214,-48,165,131,-190,58,156,117,48,-53,-146,-190
-244,-63,180,153,-212,58,165,126,58,-43,-146,-190
-253,-43,209,148,-231,82,165,136,58,-58,-161,-209
-244,-73,170,158,-207,48,161,136,68,-58,-170,-209
-234,-48,185,141,-209,68,161,141,68,-58,-170,-209
-234,-48,185,141,-209,68,165,141,73,-48,-161,-209
-248,-53,195,151,-222,70,190,156,78,-48,-161,-214
-253,-63,190,158,-222,63,195,170,82,-48,-165,-219
-268,-48,219,158,-244,85,200,190,87,-63,-185,-234
-278,-63,214,170,-246,75,204,175,87,-63,-190,-253
-287,-78,209,183,-248,65,204,175,87,-63,-195,-263
-297,-39,258,168,-278,109,209,195,87,-68,-219,-278
-302,29,331,136,-317,180,200,190,82,-97,-244,-302
-312,-19,292,165,-302,136,214,204,92,-87,-239,-302
-331,-73,258,202,-295,92,244,224,102,-78,-234,-302
-326,-39,287,183,-307,124,244,229,107,-87,-258,-322
-356,-43,312,200,-334,134,273,248,117,-87,-263,-331
-370,-43,326,207,-348,141,278,258,117,-92,-283,-361
-385,-19,366,202,-375,173,283,258,122,-107,-297,-380
-419,-68,351,244,-385,141,297,258,122,-107,-307,-390
-434,-68,366,251,-400,148,307,263,122,-122,-331,-414
-453,-68,385,261,-419,158,326,278,122,-131,-346,-439
-463,-68,395,265,-429,163,331,278,112,-146,-380,-473
-512,-73,439,292,-475,183,346,302,126,-151,-390,-483
-522,-73,448,297,-485,187,351,292,126,-156,-405,-492
-522,-63,458,292,-490,197,356,292,122,-170,-414,-522
-531,-53,478,292,-505,212,356,292,117,-180,-424,-536
-536,-53,483,295,-509,214,356,268,117,-185,-458,-541
-541,-58,483,300,-512,212,351,268,112,-190,-444,-536
-536,-58,478,297,-507,209,336,239,102,-204,-453,-546
-541,-73,468,307,-505,197,336,239,102,-204,-453,-546
-556,-39,517,297,-536,239,322,214,87,-219,-463,-546
-541,-63,478,302,-509,207,297,190,73,-209,-448,-531
-507,-53,453,280,-480,200,268,165,73,-195,-429,-522
-492,-78,414,285,-453,168,268,165,73,-175,-395,-488
-458,-48,409,253,-434,180,253,151,58,-170,-375,-458
-434,-14,419,224,-427,202,224,141,48,-151,-341,-414
-385,-24,361,204,-373,168,175,126,53,-122,-287,-361
-336,-92,244,214,-290,75,175,136,63,-97,-229,-297
-302,-58,244,180,-273,92,146,112,53,-73,-200,-268
-253,-68,185,161,-219,58,126,102,53,-63,-156,-214
-214,-43,170,129,-192,63,97,82,48,-39,-136,-175
-185,-43,141,114,-163,48,82,68,53,-19,-102,-146
-141,-43,97,92,-119,26,68,58,53,-9,-73,-112
-122,-39,82,80,-102,21,53,48,53,0,-53,-78
-92,-39,53,65,-73,7,34,34,53,0,-39,-58
-68,-39,29,53,-48,-4,34,39,53,19,-14,-34
-48,-63,-14,56,-17,-39,29,39,53,39,14,4
-43,-82,-39,63,-2,-61,24,34,48,53,29,34
-39,-19,19,29,-29,0,-9,14,34,34,19,19
-14,29,43,-7,-29,36,-29,0,14,19,14,9
-9,14,24,-2,-17,19,-29,0,14,19,19,19
-9,24,34,-7,-21,29,-29,-4,14,19,24,24
-4,9,14,-2,-9,12,-29,0,14,24,24,34
0,-34,-34,17,17,-34,-19,0,19,24,24,39
0,-14,-14,7,7,-14,-19,0,24,24,34,39
-4,4,9,0,-7,7,-19,9,29,48,48,48
0,-14,-14,7,7,-14,-9,9,29,48,53,63
0,-24,-24,12,12,-24,-4,9,34,39,53,68
0,-14,-14,7,7,-14,-14,0,34,43,63,68
0,-4,-4,2,2,-4,-14,0,29,43,58,73
-9,-9,0,9,-4,-4,-14,-4,29,24,48,53
-9,-19,-9,14,0,-14,-19,0,19,34,43,53
-9,-14,-4,12,-2,-9,-19,9,24,43,43,58
0,-19,-19,9,9,-19,-19,9,34,43,39,58
0,-9,-9,4,4,-9,-19,4,34,39,39,48
-4,-29,-24,17,9,-26,-4,4,34,53,48,53
-9,-58,-48,34,19,-53,-4,9,34,53,53,87
-19,-78,-58,48,19,-68,-4,9,43,48,58,78
-9,-14,-4,12,-2,-9,-19,4,19,24,34,53
-4,29,34,-12,-19,31,-29,-4,4,24,34,43
-4,29,34,-12,-19,31,-34,-9,4,29,34,39
-4,19,24,-7,-14,21,-34,-9,4,29,29,34
-9,4,14,2,-12,9,-19,4,14,39,39,48
-9,-9,0,9,-4,-4,-14,14,24,48,48,58
4,-9,-14,2,9,-12,-14,4,14,29,29,43
-9,-9,0,9,-4,-4,-24,-14,0,19,29,43
-24,-19,4,21,-14,-7,4,4,29,39,39,53
-29,-29,0,29,-14,-14,-4,4,29,39,39,53
-29,-43,-14,36,-7,-29,-4,14,29,58,48,63
-14,-24,-9,19,-2,-17,-4,14,29,39,34,53
-9,-24,-14,17,2,-19,-4,9,34,39,34,53
-19,-24,-4,21,-7,-14,-4,9,39,39,34,53
-24,-29,-4,26,-9,-17,9,14,39,39,34,53
-24,-29,-4,26,-9,-17,0,14,29,29,24,43
-34,-29,4,31,-19,-12,0,14,24,34,29,39
-34,-29,4,31,-19,-12,0,14,19,39,29,34
-34,-24,9,29,-21,-7,0,14,29,39,29,43
-43,-29,14,36,-29,-7,14,19,29,29,29,39
-43,-39,4,41,-24,-17,4,24,24,24,19,34
-39,-39,0,39,-19,-19,4,19,24,24,19,34
-39,-58,-19,48,-9,-39,4,24,39,39,48,43
-39,-73,-34,56,-2,-53,4,34,48,48,43,43
-29,-58,-29,43,0,-43,4,29,43,48,39,39
-29,-24,4,26,-17,-9,9,19,34,34,19,39
-53,-14,39,34,-46,12,14,14,24,24,9,34
-63,-24,39,43,-51,7,14,9,24,24,9,29
-63,-24,39,43,-51,7,4,9,29,24,14,29
-63,-24,39,43,-51,7,0,9,29,19,14,29
-63,-19,43,41,-53,12,9,14,34,19,14,34
-63,-14,48,39,-56,17,14,14,39,14,14,29
-58,-24,34,41,-46,4,14,14,29,14,4,19
-48,-34,14,41,-31,-9,14,14,34,24,19,34
-43,-48,-4,46,-19,-26,14,9,34,24,19,34
-39,-39,0,39,-19,-19,14,4,34,24,14,34
-43,-39,4,41,-24,-17,14,0,19,19,9,34
-48,-48,0,48,-24,-24,14,4,29,19,14,34
-48,-48,0,48,-24,-24,9,9,34,19,14,34
-48,-48,0,48,-24,-24,9,19,39,19,19,39
-48,-24,24,36,-36,0,9,14,29,14,9,34
-48,0,48,24,-48,24,9,9,19,9,0,29
-48,-14,34,31,-41,9,14,9,29,9,9,29
-39,-9,29,24,-34,9,19,14,43,19,14,34
-34,-4,29,19,-31,12,29,19,58,29,24,43
-24,9,34,7,-29,21,43,39,92,53,48,68
-19,34,53,-7,-36,43,48,58,92,68,53,73
-4,39,43,-17,-24,41,48,73,97,73,63,78
29,29,0,-29,14,14,48,63,92,63,48,82
9,19,9,-14,0,14,48,63,97,58,34,87
24,4,-19,-14,21,-7,39,68,87,43,24,87
39,-4,-43,-17,41,-24,34,73,78,39,14,102
58,14,-43,-36,51,-14,14,73,102,73,63,102
78,43,-34,-61,56,4,-14,53,102,97,97,107
87,63,-24,-75,56,19,-58,9,82,82,97,107
68,78,9,-73,29,43,-78,-14,63,63,82,102
53,58,4,-56,24,31,-87,-43,24,43,58,73
39,39,0,-39,19,19,-87,-53,9,34,58,68
39,34,-4,-36,21,14,-82,-58,0,19,43,53
29,24,-4,-26,17,9,-68,-43,0,34,43,63
48,4,-43,-26,46,-19,-68,-43,0,24,43,63
58,-48,-107,-4,82,-78,-58,-43,-4,19,43,58
58,9,-48,-34,53,-19,-78,-58,-29,-14,9,34
48,68,19,-58,14,43,-97,-78,-48,-48,-29,14
58,4,-53,-31,56,-24,-107,-102,-63,-53,-29,4
68,-63,-131,-2,100,-97,-87,-92,-53,-43,-14,14
48,-29,-78,-9,63,-53,-73,-73,-48,-34,-14,19
29,-29,-58,0,43,-43,-58,-68,-34,-19,0,34
9,-29,-39,9,24,-34,-39,-63,-34,-19,-9,14
-39,-43,-4,41,-17,-24,-9,-48,-19,-19,-9,14
-68,-58,9,63,-39,-24,4,-34,-4,-19,-14,14
-58,-58,0,58,-29,-29,0,-39,-9,-24,-24,0
-68,-78,-9,73,-29,-43,0,-48,-9,-24,-24,-4
-87,-97,-9,92,-39,-53,0,-39,-9,-24,-24,-4
-87,-102,-14,95,-36,-58,4,-39,-9,-24,-24,-4
-82,-78,4,80,-43,-36,0,-43,-14,-29,-24,-14
-78,-63,14,70,-46,-24,0,-43,-14,-29,-24,-19
-78,-43,34,61,-56,-4,0,-43,-14,-29,-24,-19
-78,-43,34,61,-56,-4,9,-34,-9,-24,-14,-4
-82,-43,39,63,-61,-2,14,-29,-9,-24,-14,0
-82,-43,39,63,-61,-2,19,-29,-4,-19,-14,-9
-97,-63,34,80,-65,-14,34,-29,14,-9,-14,0
-97,-58,39,78,-68,-9,19,-34,4,-9,-14,0
-97,-58,39,78,-68,-9,19,-39,4,-9,-14,0
-122,-107,14,114,-68,-46,39,-9,14,0,-14,9
-141,-63,78,102,-109,7,43,-9,43,14,4,14
-151,97,248,26,-200,173,43,-29,117,82,53,58
-185,326,512,-70,-348,419,19,-39,268,239,204,195
-161,551,712,-195,-436,631,-24,24,458,463,424,395
-68,741,810,-336,-439,775,39,395,858,922,854,761
126,795,668,-461,-270,732,122,927,1176,1327,1259,1137
341,961,619,-651,-139,790,-82,746,1132,1488,1625,1551
614,1473,858,-1044,-122,1166,-673,-165,736,1464,1986,2083
1010,2108,1098,-1559,-43,1603,-1400,-1137,209,1342,2313,2591
1483,2132,649,-1808,417,1390,-1898,-1747,-424,1058,2435,2879
1937,1771,-165,-1854,1051,802,-2156,-1961,-795,956,2483,3020
2361,956,-1405,-1659,1883,-224,-2196,-1727,-990,771,2259,2776
2644,112,-2532,-1378,2588,-1210,-2015,-1434,-1346,122,1351,1869
2776,-707,-3484,-1034,3130,-2095,-1683,-1132,-1708,-751,180,658
2649,-1366,-4016,-641,3333,-2691,-1288,-824,-1820,-1190,-614,-248
2088,-1551,-3640,-268,2864,-2596,-936,-800,-1727,-1459,-1161,-863
1561,-1556,-3118,-2,2339,-2337,-697,-829,-1634,-1527,-1366,-1156
1205,-1263,-2469,29,1837,-1866,-595,-766,-1444,-1381,-1249,-1088
771,-732,-1503,-19,1137,-1117,-414,-541,-932,-873,-795,-712
278,-444,-722,82,500,-583,-122,-234,-458,-453,-424,-414
63,-307,-370,122,217,-339,0,-87,-229,-248,-253,-244
24,-239,-263,107,143,-251,48,-19,-141,-165,-185,-195
-14,-204,-190,109,87,-197,73,4,-102,-126,-165,-180
-53,-175,-122,114,34,-148,82,9,-82,-126,-165,-180
-73,-170,-97,122,12,-134,97,14,-53,-117,-151,-156
-97,-156,-58,126,-19,-107,107,34,-39,-92,-136,-151
-107,-131,-24,119,-41,-78,112,39,-29,-82,-131,-151
-117,-126,-9,122,-53,-68,126,43,-14,-78,-126,-146
-136,-126,9,131,-73,-58,136,48,0,-68,-112,-131
-136,-122,14,129,-75,-53,136,53,14,-58,-107,-126
-136,-122,14,129,-75,-53,126,63,19,-58,-107,-126
-136,-87,48,112,-92,-19,136,68,19,-58,-107,-126
-141,-102,39,122,-90,-31,151,68,34,-48,-92,-112
-151,-87,63,119,-107,-12,141,63,34,-53,-97,-122
-161,-102,58,131,-109,-21,141,63,29,-48,-92,-122
-165,-73,92,119,-129,9,136,63,34,-43,-87,-131
-165,-97,68,131,-117,-14,136,68,39,-34,-82,-122
-161,-97,63,129,-112,-17,136,78,39,-34,-87,-122
-161,-92,68,126,-114,-12,136,73,48,-29,-87,-122
-161,-78,82,119,-122,2,136,82,48,-39,-97,-122
-175,-53,122,114,-148,34,131,68,43,-43,-107,-122
-175,-63,112,119,-143,24,141,68,43,-43,-102,-126
-175,-82,92,129,-134,4,141,68,43,-43,-102,-131
-175,-92,82,134,-129,-4,141,68,48,-43,-102,-136
-180,-102,78,141,-129,-12,141,78,48,-39,-107,-136
-180,-78,102,129,-141,12,141,78,48,-48,-107,-141
-180,-53,126,117,-153,36,151,78,48,-48,-107,-141
-185,-58,126,122,-156,34,151,92,53,-34,-102,-136
-195,-68,126,131,-161,29,161,107,58,-24,-97,-131
-180,-78,102,129,-141,12,151,97,58,-29,-112,-136
-180,-92,87,136,-134,-2,161,107,58,-29,-117,-136
-200,-53,146,126,-173,46,156,92,53,-43,-126,-156
-200,-39,161,119,-180,61,151,92,53,-53,-131,-161
-200,-24,175,112,-187,75,156,97,58,-43,-126,-161
-204,-63,141,134,-173,39,165,107,73,-43,-126,-161
-214,-39,175,126,-195,68,165,107,63,-43,-122,-156
-234,-53,180,143,-207,63,175,117,78,-34,-117,-151
-234,-34,200,134,-217,82,180,136,78,-48,-131,-170
-234,-63,170,148,-202,53,180,131,87,-48,-141,-170
-234,-39,195,136,-214,78,180,122,87,-48,-141,-170
-234,-39,195,136,-214,78,185,131,92,-39,-131,-170
-248,-73,175,161,-212,51,209,151,97,-39,-131,-175
-258,-112,146,185,-202,17,214,161,102,-39,-136,-180
-278,-53,224,165,-251,85,204,175,92,-58,-161,-200
-287,-9,278,148,-283,134,195,156,78,-63,-170,-224
-297,-24,273,161,-285,124,204,156,87,-63,-175,-234
-307,-39,268,173,-287,114,229,180,102,-53,-185,-234
-312,-9,302,161,-307,146,229,180,102,-68,-200,-244
-312,-24,287,168,-300,131,234,195,112,-68,-209,-258
-322,-29,292,175,-307,131,253,214,122,-68,-214,-278
-326,9,336,158,-331,173,253,219,126,-78,-239,-302
-366,-29,336,197,-351,153,283,239,136,-78,-244,-312
-380,-53,326,217,-353,136,287,248,136,-82,-263,-336
-400,-9,390,204,-395,190,292,248,136,-102,-278,-356
-429,-29,400,229,-414,185,307,244,131,-107,-287,-370
-444,-29,414,236,-429,192,317,244,131,-122,-312,-395
-473,-39,434,256,-453,197,331,258,131,-131,-326,-419
-468,-53,414,261,-441,180,331,258,122,-141,-361,-453
-497,-73,424,285,-461,175,346,283,136,-141,-366,-458
-512,-73,439,292,-475,183,351,273,146,-146,-375,-463
-522,-63,458,292,-490,197,356,273,151,-156,-385,-488
-531,-29,502,280,-517,236,356,278,136,-170,-405,-507
-536,-4,531,270,-534,263,356,253,126,-180,-434,-517
-541,-29,512,285,-527,241,351,248,122,-180,-409,-507
-541,-48,492,295,-517,222,336,219,112,-195,-424,-517
-551,-68,483,309,-517,207,336,219,107,-195,-429,-527
-566,-48,517,307,-541,234,326,204,97,-195,-424,-517
-561,-82,478,322,-519,197,307,190,92,-185,-395,-483
-527,-58,468,292,-497,204,278,165,92,-185,-380,-473
-502,-92,409,297,-456,158,287,165,97,-156,-346,-439
-458,-117,341,287,-400,112,278,151,87,-141,-326,-409
-419,-78,341,248,-380,131,234,136,78,-122,-292,-366
-366,-24,341,195,-353,158,175,102,73,-107,-258,-326
-317,-63,253,190,-285,95,175,97,73,-97,-219,-278
-297,-39,258,168,-278,109,146,82,63,-73,-195,-253
-258,-58,200,158,-229,70,126,82,63,-58,-141,-195
-214,-34,180,124,-197,73,97,63,53,-39,-117,-151
-185,-34,151,109,-168,58,87,53,58,-19,-87,-117
-141,-34,107,87,-124,36,78,48,63,0,-53,-78
-122,-29,92,75,-107,31,63,39,63,9,-34,-48
-102,-29,73,65,-87,21,43,19,63,9,-19,-29
-82,-19,63,51,-73,21,34,9,63,29,4,-4
-58,-14,43,36,-51,14,19,0,63,34,19,9
-53,-4,48,29,-51,21,14,-4,63,34,24,19
-48,19,68,14,-58,43,0,-14,58,29,29,29
-24,0,24,12,-24,12,0,-19,53,39,39,39
-19,-34,-14,26,-2,-24,0,-19,63,48,48,48
-19,-24,-4,21,-7,-14,0,-24,53,39,53,53
-19,-14,4,17,-12,-4,-9,-24,43,34,53,58
-14,-34,-19,24,2,-26,-4,-34,48,34,39,58
-9,-34,-24,21,7,-29,0,-39,53,34,39,58
-9,-29,-19,19,4,-24,0,-34,53,58,58,68
-4,-19,-14,12,4,-17,0,-39,48,58,63,68
0,-4,-4,2,2,-4,-4,-39,53,48,63,63
9,-4,-14,-2,12,-9,-14,-48,53,48,63,58
-24,-14,9,19,-17,-2,-9,-58,48,43,48,53
-68,-29,39,48,-53,4,0,-58,48,24,48,43
-53,-39,14,46,-34,-12,0,-39,39,29,53,48
-39,-29,9,34,-24,-9,0,-39,39,34,53,48
-39,-29,9,34,-24,-9,0,-48,48,34,48,48
-48,-19,29,34,-39,4,0,-53,53,34,48,48
-58,-29,29,43,-43,0,14,-43,63,63,63,68
-68,-29,39,48,-53,4,14,-29,73,73,68,92
-78,-19,58,48,-68,19,9,-43,73,68,68,68
-68,9,78,29,-73,43,0,-58,48,43,43,53
-58,9,68,24,-63,39,0,-68,39,39,39,53
-53,9,63,21,-58,36,-14,-78,34,34,34,48
-34,-4,29,19,-31,12,-24,-78,34,29,29,43
-19,-9,9,14,-14,0,-14,-73,34,29,29,43
14,-14,-29,0,21,-21,-19,-73,29,29,29,34
63,-9,-73,-26,68,-41,-24,-82,14,9,9,14
48,0,-48,-24,48,-24,-48,-112,-9,-14,4,14
39,-9,-48,-14,43,-29,-34,-102,9,-9,9,24
19,-39,-58,9,39,-48,-29,-92,19,0,9,24
0,-73,-73,36,36,-73,-14,-73,24,29,19,34
14,-24,-39,4,26,-31,-29,-73,19,9,4,24
14,4,-9,-9,12,-2,-43,-78,19,4,4,19
0,4,4,-2,-2,4,-43,-78,19,0,9,19
-4,0,4,2,-4,2,-29,-78,19,0,14,24
-9,-9,0,9,-4,-4,-29,-73,9,-4,4,14
-24,-19,4,21,-14,-7,-19,-63,19,9,14,29
-29,-19,9,24,-19,-4,-19,-58,34,24,24,48
-34,-9,24,21,-29,7,-19,-53,39,29,29,53
-43,43,87,0,-65,65,-4,-48,29,19,29,39
-43,87,131,-21,-87,109,-14,-48,24,14,19,34
-39,19,58,9,-48,39,-14,-48,24,14,19,34
-39,-53,-14,46,-12,-34,-14,-43,29,19,39,43
-39,-39,0,39,-19,-19,-34,-58,29,9,19,29
-29,-24,4,26,-17,-9,-43,-68,24,0,9,9
0,-4,-4,2,2,-4,-39,-73,9,-14,-9,0
9,-4,-14,-2,12,-9,-43,-78,-4,-24,-19,-9
4,-14,-19,4,12,-17,-43,-78,-4,-24,-19,-9
4,-4,-9,0,7,-7,-43,-78,0,-19,-14,-9
4,-19,-24,7,14,-21,-34,-73,4,-14,-14,0
4,-24,-29,9,17,-26,-29,-68,4,-9,-14,9
4,-4,-9,0,7,-7,-34,-68,0,-14,-9,4
9,-4,-14,-2,12,-9,-34,-63,0,-14,-14,0
4,-14,-19,4,12,-17,-29,-63,14,0,0,14
-9,-24,-14,17,2,-19,-24,-63,14,4,0,14
0,0,0,0,0,0,-24,-63,19,4,-4,14
4,9,4,-7,0,7,-24,-68,9,0,-9,14
4,9,4,-7,0,7,-19,-68,9,0,-9,14
4,4,0,-4,2,2,-9,-53,19,0,0,14
-19,14,34,2,-26,24,-4,-48,24,4,4,19
-48,29,78,9,-63,53,0,-48,29,9,9,29
-48,0,48,24,-48,24,-9,-63,14,0,0,9
-48,-29,19,39,-34,-4,-19,-78,0,-9,-9,-9
-34,-29,4,31,-19,-12,-19,-78,0,-9,-9,0
-14,0,14,7,-14,7,-14,-73,9,-4,-9,9
0,24,24,-12,-12,24,-14,-68,24,0,-9,19
14,68,53,-41,-19,61,-4,-48,63,14,9,39
29,92,63,-61,-17,78,-4,-34,68,34,14,43
53,97,43,-75,4,70,-9,-24,78,43,24,48
92,92,0,-92,46,46,-4,-24,78,43,29,53
78,87,9,-82,34,48,0,-14,87,48,34,58
112,82,-29,-97,70,26,-9,-9,78,48,39,58
146,82,-63,-114,104,9,-14,-4,68,58,43,73
122,92,-29,-107,75,31,-29,-4,92,73,68,82
97,112,14,-104,41,63,-53,-24,92,78,78,97
136,131,-4,-134,70,63,-87,-68,73,63,78,97
146,146,0,-146,73,73,-97,-92,53,43,63,92
156,136,-19,-146,87,58,-117,-126,9,14,29,63
165,126,-39,-146,102,43,-126,-141,-9,-4,19,58
117,78,-39,-97,78,19,-136,-175,-34,-34,-4,29
58,24,-34,-41,46,-4,-136,-190,-48,-34,-14,24
102,48,-53,-75,78,-2,-146,-190,-48,-53,-24,24
136,39,-97,-87,117,-29,-146,-190,-53,-68,-34,19
112,53,-58,-82,85,-2,-141,-195,-63,-73,-34,4
