I,II,III,aVR,aVL,aVF,V1,V2,V3,V4,V5,V6,
-29,9,39,9,-34,24,146,214,126,107,68,9
-29,9,39,9,-34,24,146,214,126,107,68,9
-29,9,39,9,-34,24,146,214,126,107,68,9
-29,9,39,9,-34,24,146,214,126,107,68,9
-19,14,34,2,-26,24,156,229,141,122,73,14
-9,19,29,-4,-19,24,156,234,146,126,78,19
0,24,24,-12,-12,24,156,239,151,131,82,24
9,29,19,-19,-4,24,156,244,156,136,87,29
14,34,19,-24,-2,26,165,258,161,141,92,29
19,39,19,-29,0,29,165,263,165,146,97,29
24,43,19,-34,2,31,165,268,170,151,102,29
29,48,19,-39,4,34,165,273,175,156,107,29
34,53,19,-43,7,36,175,287,190,170,112,43
39,58,19,-48,9,39,175,292,195,175,117,48
43,63,19,-53,12,41,175,297,200,180,122,53
48,68,19,-58,14,43,175,302,204,185,126,58
63,78,14,-70,24,46,185,317,214,200,141,63
68,78,9,-73,29,43,185,322,224,204,146,68
73,78,4,-75,34,41,185,326,234,209,151,73
78,78,0,-78,39,39,185,331,244,214,156,78
82,87,4,-85,39,46,195,341,258,224,170,82
87,87,0,-87,43,43,195,351,263,234,175,87
92,87,-4,-90,48,41,195,361,268,244,180,92
97,87,-9,-92,53,39,195,370,273,253,185,97
112,102,-9,-107,61,46,204,385,283,268,195,112
117,107,-9,-112,63,48,204,390,292,273,204,117
122,112,-9,-117,65,51,204,395,302,278,214,122
126,117,-9,-122,68,53,204,400,312,283,224,126
141,122,-19,-131,80,51,204,414,317,297,239,131
146,126,-19,-136,82,53,204,419,322,302,244,136
151,131,-19,-141,85,56,204,424,326,307,248,141
156,136,-19,-146,87,58,204,429,331,312,253,146
165,141,-24,-153,95,58,195,434,336,317,258,151
175,146,-29,-161,102,58,195,439,341,322,263,156
185,151,-34,-168,109,58,195,444,346,326,268,161
195,156,-39,-175,117,58,195,448,351,331,273,165
209,165,-43,-187,126,61,190,448,361,336,278,170
214,165,-48,-190,131,58,185,448,361,341,283,175
219,165,-53,-192,136,56,180,448,361,346,287,180
224,165,-58,-195,141,53,175,448,361,351,292,185
229,175,-53,-202,141,61,161,444,351,361,302,190
234,175,-58,-204,146,58,156,439,351,361,302,195
239,175,-63,-207,151,56,151,434,351,361,302,200
244,175,-68,-209,156,53,146,429,351,361,302,204
244,175,-68,-209,156,53,131,419,346,351,302,204
244,175,-68,-209,156,53,126,409,341,351,302,204
244,175,-68,-209,156,53,122,400,336,351,302,204
244,175,-68,-209,156,53,117,390,331,351,302,204
234,165,-68,-200,151,48,102,370,317,346,292,204
234,165,-68,-200,151,48,97,361,312,341,292,204
234,165,-68,-200,151,48,92,351,307,336,292,204
234,165,-68,-200,151,48,87,341,302,331,292,204
229,161,-68,-195,148,46,73,317,283,312,283,190
224,156,-68,-190,146,43,68,302,273,302,273,185
219,151,-68,-185,143,41,63,287,263,292,263,180
214,146,-68,-180,141,39,58,273,253,283,253,175
200,131,-68,-165,134,31,53,258,239,268,234,165
195,126,-68,-161,131,29,48,244,224,253,224,156
190,122,-68,-156,129,26,43,229,209,239,214,146
185,117,-68,-151,126,24,39,214,195,224,204,136
165,107,-58,-136,112,24,34,190,180,209,190,122
156,97,-58,-126,107,19,29,175,165,195,175,117
146,87,-58,-117,102,14,24,161,151,180,161,112
136,78,-58,-107,97,9,19,146,136,165,146,107
117,68,-48,-92,82,9,14,126,117,151,126,97
107,58,-48,-82,78,4,9,117,107,136,117,87
97,48,-48,-73,73,0,4,107,97,122,107,78
87,39,-48,-63,68,-4,0,97,87,107,97,68
68,29,-39,-48,53,-4,-9,87,68,97,87,53
58,19,-39,-39,48,-9,-9,78,58,87,78,48
48,9,-39,-29,43,-14,-9,68,48,78,68,43
39,0,-39,-19,39,-19,-9,58,39,68,58,39
24,-4,-29,-9,26,-17,-19,48,24,58,48,24
19,-9,-29,-4,24,-19,-19,39,19,48,39,19
14,-14,-29,0,21,-21,-19,29,14,39,29,14
9,-19,-29,4,19,-24,-19,19,9,29,19,9
-4,-24,-19,14,7,-21,-19,4,-4,19,4,-4
-9,-29,-19,19,4,-24,-19,0,-9,9,0,-9
-14,-34,-19,24,2,-26,-19,-4,-14,0,-4,-14
-19,-39,-19,29,0,-29,-19,-9,-19,-9,-9,-19
-29,-48,-19,39,-4,-34,-29,-14,-34,-24,-14,-29
-29,-48,-19,39,-4,-34,-29,-19,-39,-29,-19,-29
-29,-48,-19,39,-4,-34,-29,-24,-43,-34,-24,-29
-29,-48,-19,39,-4,-34,-29,-29,-48,-39,-29,-29
-39,-58,-19,48,-9,-39,-39,-39,-58,-48,-34,-39
-39,-58,-19,48,-9,-39,-39,-39,-58,-48,-39,-39
-39,-58,-19,48,-9,-39,-39,-39,-58,-48,-43,-39
-39,-58,-19,48,-9,-39,-39,-39,-58,-48,-48,-39
-48,-68,-19,58,-14,-43,-39,-48,-68,-58,-48,-39
-48,-68,-19,58,-14,-43,-39,-48,-68,-58,-48,-39
-48,-68,-19,58,-14,-43,-39,-48,-68,-58,-48,-39
-48,-68,-19,58,-14,-43,-39,-48,-68,-58,-48,-39
-58,-78,-19,68,-19,-48,-39,-48,-78,-58,-58,-48
-58,-78,-19,68,-19,-48,-39,-48,-78,-58,-58,-48
-58,-78,-19,68,-19,-48,-39,-48,-78,-58,-58,-48
-58,-78,-19,68,-19,-48,-39,-48,-78,-58,-58,-48
-58,-78,-19,68,-19,-48,-39,-58,-78,-68,-58,-48
-58,-78,-19,68,-19,-48,-39,-58,-78,-68,-58,-48
-58,-78,-19,68,-19,-48,-39,-58,-78,-68,-58,-48
-58,-78,-19,68,-19,-48,-39,-58,-78,-68,-58,-48
-68,-87,-19,78,-24,-53,-39,-58,-78,-68,-58,-48
-68,-87,-19,78,-24,-53,-39,-58,-78,-68,-58,-48
-68,-87,-19,78,-24,-53,-39,-58,-78,-68,-58,-48
-68,-87,-19,78,-24,-53,-39,-58,-78,-68,-58,-48
-68,-87,-19,78,-24,-53,-39,-58,-78,-78,-68,-58
-68,-87,-19,78,-24,-53,-39,-58,-78,-78,-68,-58
-68,-87,-19,78,-24,-53,-39,-58,-78,-78,-68,-58
-68,-87,-19,78,-24,-53,-39,-58,-78,-78,-68,-58
-58,-78,-19,68,-19,-48,-39,-58,-78,-68,-68,-48
-58,-78,-19,68,-19,-48,-39,-58,-78,-68,-68,-48
-58,-78,-19,68,-19,-48,-39,-58,-78,-68,-68,-48
-58,-78,-19,68,-19,-48,-39,-58,-78,-68,-68,-48
-68,-78,-9,73,-29,-43,-39,-58,-87,-78,-68,-58
-68,-78,-9,73,-29,-43,-39,-58,-87,-78,-68,-58
-68,-78,-9,73,-29,-43,-39,-58,-87,-78,-68,-58
-68,-78,-9,73,-29,-43,-39,-58,-87,-78,-68,-58
-68,-78,-9,73,-29,-43,-29,-58,-78,-68,-58,-48
-68,-78,-9,73,-29,-43,-29,-58,-78,-68,-58,-48
-68,-78,-9,73,-29,-43,-29,-58,-78,-68,-58,-48
-68,-78,-9,73,-29,-43,-29,-58,-78,-68,-58,-48
-68,-78,-9,73,-29,-43,-29,-58,-78,-68,-58,-48
-68,-78,-9,73,-29,-43,-29,-58,-78,-68,-58,-48
-68,-78,-9,73,-29,-43,-29,-58,-78,-68,-58,-48
-68,-78,-9,73,-29,-43,-29,-58,-78,-68,-58,-48
-68,-87,-19,78,-24,-53,-29,-58,-78,-68,-58,-48
-68,-87,-19,78,-24,-53,-29,-58,-78,-68,-58,-48
-68,-87,-19,78,-24,-53,-29,-58,-78,-68,-58,-48
-68,-87,-19,78,-24,-53,-29,-58,-78,-68,-58,-48
-68,-87,-19,78,-24,-53,-29,-58,-78,-68,-58,-48
-68,-87,-19,78,-24,-53,-29,-58,-78,-68,-58,-48
-68,-87,-19,78,-24,-53,-29,-58,-78,-68,-58,-48
-68,-87,-19,78,-24,-53,-29,-58,-78,-68,-58,-48
-68,-78,-9,73,-29,-43,-29,-48,-78,-68,-58,-48
-68,-78,-9,73,-29,-43,-29,-48,-78,-68,-58,-48
-68,-78,-9,73,-29,-43,-29,-48,-78,-68,-58,-48
-68,-78,-9,73,-29,-43,-29,-48,-78,-68,-58,-48
-68,-78,-9,73,-29,-43,-39,-58,-78,-68,-58,-48
-68,-78,-9,73,-29,-43,-39,-58,-78,-68,-58,-48
-68,-78,-9,73,-29,-43,-39,-58,-78,-68,-58,-48
-68,-78,-9,73,-29,-43,-39,-58,-78,-68,-58,-48
-68,-78,-9,73,-29,-43,-29,-58,-68,-58,-48,-48
-68,-78,-9,73,-29,-43,-29,-58,-68,-58,-48,-48
-68,-78,-9,73,-29,-43,-29,-58,-68,-58,-48,-48
-68,-78,-9,73,-29,-43,-29,-58,-68,-58,-48,-48
-58,-78,-19,68,-19,-48,-29,-58,-68,-58,-58,-48
-58,-78,-19,68,-19,-48,-29,-58,-68,-58,-58,-48
-58,-78,-19,68,-19,-48,-29,-58,-68,-58,-58,-48
-58,-78,-19,68,-19,-48,-29,-58,-68,-58,-58,-48
-68,-78,-9,73,-29,-43,-29,-48,-68,-58,-58,-48
-68,-78,-9,73,-29,-43,-29,-48,-68,-58,-58,-48
-68,-78,-9,73,-29,-43,-29,-48,-68,-58,-58,-48
-68,-78,-9,73,-29,-43,-29,-48,-68,-58,-58,-48
-68,-78,-9,73,-29,-43,-29,-58,-68,-58,-58,-48
-68,-78,-9,73,-29,-43,-29,-58,-68,-58,-58,-48
-68,-78,-9,73,-29,-43,-29,-58,-68,-58,-58,-48
-68,-78,-9,73,-29,-43,-29,-58,-68,-58,-58,-48
-58,-78,-19,68,-19,-48,-39,-48,-68,-58,-58,-48
-58,-78,-19,68,-19,-48,-39,-48,-68,-58,-58,-48
-58,-78,-19,68,-19,-48,-39,-48,-68,-58,-58,-48
-58,-78,-19,68,-19,-48,-39,-48,-68,-58,-58,-48
-58,-78,-19,68,-19,-48,-39,-58,-68,-58,-58,-48
-58,-78,-19,68,-19,-48,-39,-58,-68,-58,-58,-48
-58,-78,-19,68,-19,-48,-39,-58,-68,-58,-58,-48
-58,-78,-19,68,-19,-48,-39,-58,-68,-58,-58,-48
-58,-78,-19,68,-19,-48,-39,-58,-68,-58,-48,-48
-58,-78,-19,68,-19,-48,-39,-58,-68,-58,-48,-48
-58,-78,-19,68,-19,-48,-39,-58,-68,-58,-48,-48
-58,-78,-19,68,-19,-48,-39,-58,-68,-58,-48,-48
-58,-78,-19,68,-19,-48,-39,-58,-68,-58,-48,-48
-58,-78,-19,68,-19,-48,-39,-58,-68,-58,-48,-48
-58,-78,-19,68,-19,-48,-39,-58,-68,-58,-48,-48
-58,-78,-19,68,-19,-48,-39,-58,-68,-58,-48,-48
-68,-87,-19,78,-24,-53,-29,-58,-68,-58,-48,-39
-68,-87,-19,78,-24,-53,-29,-58,-68,-58,-48,-39
-68,-87,-19,78,-24,-53,-29,-58,-68,-58,-48,-39
-68,-87,-19,78,-24,-53,-29,-58,-68,-58,-48,-39
-68,-78,-9,73,-29,-43,-29,-48,-68,-58,-48,-48
-68,-78,-9,73,-29,-43,-29,-48,-68,-58,-48,-48
-68,-78,-9,73,-29,-43,-29,-48,-68,-58,-48,-48
-68,-78,-9,73,-29,-43,-29,-48,-68,-58,-48,-48
-58,-78,-19,68,-19,-48,-39,-58,-68,-58,-48,-48
-58,-78,-19,68,-19,-48,-39,-58,-68,-58,-48,-48
-58,-78,-19,68,-19,-48,-39,-58,-68,-58,-48,-48
-58,-78,-19,68,-19,-48,-39,-58,-68,-58,-48,-48
-58,-78,-19,68,-19,-48,-39,-58,-68,-58,-58,-48
-58,-78,-19,68,-19,-48,-39,-58,-68,-58,-58,-48
-58,-78,-19,68,-19,-48,-39,-58,-68,-58,-58,-48
-58,-78,-19,68,-19,-48,-39,-58,-68,-58,-58,-48
-58,-78,-19,68,-19,-48,-39,-58,-78,-68,-58,-48
-58,-78,-19,68,-19,-48,-39,-58,-78,-68,-58,-48
-58,-78,-19,68,-19,-48,-39,-58,-78,-68,-58,-48
-58,-78,-19,68,-19,-48,-39,-58,-78,-68,-58,-48
-68,-87,-19,78,-24,-53,-39,-58,-78,-58,-58,-48
-68,-87,-19,78,-24,-53,-39,-58,-78,-58,-58,-48
-68,-87,-19,78,-24,-53,-39,-58,-78,-58,-58,-48
-68,-87,-19,78,-24,-53,-39,-58,-78,-58,-58,-48
-78,-97,-19,87,-29,-58,-39,-58,-78,-68,-58,-48
-78,-97,-19,87,-29,-58,-39,-58,-78,-68,-58,-48
-78,-97,-19,87,-29,-58,-39,-58,-78,-68,-58,-48
-78,-97,-19,87,-29,-58,-39,-58,-78,-68,-58,-48
-78,-97,-19,87,-29,-58,-39,-58,-78,-68,-68,-48
-78,-97,-19,87,-29,-58,-39,-58,-78,-68,-68,-48
-78,-97,-19,87,-29,-58,-39,-58,-78,-68,-68,-48
-78,-97,-19,87,-29,-58,-39,-58,-78,-68,-68,-48
-68,-97,-29,82,-19,-63,-48,-68,-78,-68,-68,-48
-68,-97,-29,82,-19,-63,-48,-68,-78,-68,-68,-48
-68,-97,-29,82,-19,-63,-48,-68,-78,-68,-68,-48
-68,-97,-29,82,-19,-63,-48,-68,-78,-68,-68,-48
-68,-97,-29,82,-19,-63,-39,-68,-78,-68,-68,-58
-68,-97,-29,82,-19,-63,-39,-68,-78,-68,-68,-58
-68,-97,-29,82,-19,-63,-39,-68,-78,-68,-68,-58
-68,-97,-29,82,-19,-63,-39,-68,-78,-68,-68,-58
-68,-97,-29,82,-19,-63,-39,-58,-78,-78,-68,-48
-68,-97,-29,82,-19,-63,-39,-58,-78,-78,-68,-48
-68,-97,-29,82,-19,-63,-39,-58,-78,-78,-68,-48
-68,-97,-29,82,-19,-63,-39,-58,-78,-78,-68,-48
-78,-97,-19,87,-29,-58,-48,-68,-78,-78,-68,-58
-78,-97,-19,87,-29,-58,-48,-68,-78,-78,-68,-58
-78,-97,-19,87,-29,-58,-48,-68,-78,-78,-68,-58
-78,-97,-19,87,-29,-58,-48,-68,-78,-78,-68,-58
-78,-107,-29,92,-24,-68,-39,-58,-78,-78,-68,-48
-78,-107,-29,92,-24,-68,-39,-58,-78,-78,-68,-48
-78,-107,-29,92,-24,-68,-39,-58,-78,-78,-68,-48
-78,-107,-29,92,-24,-68,-39,-58,-78,-78,-68,-48
-68,-107,-39,87,-14,-73,-48,-68,-87,-78,-68,-58
-68,-107,-39,87,-14,-73,-48,-68,-87,-78,-68,-58
-68,-107,-39,87,-14,-73,-48,-68,-87,-78,-68,-58
-68,-107,-39,87,-14,-73,-48,-68,-87,-78,-68,-58
-68,-107,-39,87,-14,-73,-48,-68,-87,-78,-68,-58
-68,-107,-39,87,-14,-73,-48,-68,-87,-78,-68,-58
-68,-107,-39,87,-14,-73,-48,-68,-87,-78,-68,-58
-68,-107,-39,87,-14,-73,-48,-68,-87,-78,-68,-58
-68,-107,-39,87,-14,-73,-48,-68,-87,-78,-78,-58
-68,-107,-39,87,-14,-73,-48,-68,-87,-78,-78,-58
-68,-107,-39,87,-14,-73,-48,-68,-87,-78,-78,-58
-68,-107,-39,87,-14,-73,-48,-68,-87,-78,-78,-58
-68,-107,-39,87,-14,-73,-48,-78,-87,-87,-78,-58
-68,-107,-39,87,-14,-73,-48,-78,-87,-87,-78,-58
-68,-107,-39,87,-14,-73,-48,-78,-87,-87,-78,-58
-68,-107,-39,87,-14,-73,-48,-78,-87,-87,-78,-58
-78,-107,-29,92,-24,-68,-48,-78,-87,-87,-78,-58
-78,-107,-29,92,-24,-68,-48,-78,-87,-87,-78,-58
-78,-107,-29,92,-24,-68,-48,-78,-87,-87,-78,-58
-78,-107,-29,92,-24,-68,-48,-78,-87,-87,-78,-58
-78,-107,-29,92,-24,-68,-48,-68,-87,-78,-78,-58
-78,-107,-29,92,-24,-68,-48,-68,-87,-78,-78,-58
-78,-107,-29,92,-24,-68,-48,-68,-87,-78,-78,-58
-78,-107,-29,92,-24,-68,-48,-68,-87,-78,-78,-58
-78,-107,-29,92,-24,-68,-39,-68,-87,-78,-78,-68
-78,-107,-29,92,-24,-68,-39,-68,-87,-78,-78,-68
-78,-107,-29,92,-24,-68,-39,-68,-87,-78,-78,-68
-78,-107,-29,92,-24,-68,-39,-68,-87,-78,-78,-68
-78,-107,-29,92,-24,-68,-48,-68,-87,-78,-87,-68
-78,-107,-29,92,-24,-68,-48,-68,-87,-78,-87,-68
-78,-107,-29,92,-24,-68,-48,-68,-87,-78,-87,-68
-78,-107,-29,92,-24,-68,-48,-68,-87,-78,-87,-68
-68,-97,-29,82,-19,-63,-48,-78,-87,-78,-87,-68
-68,-97,-29,82,-19,-63,-48,-78,-87,-78,-87,-68
-68,-97,-29,82,-19,-63,-48,-78,-87,-78,-87,-68
-68,-97,-29,82,-19,-63,-48,-78,-87,-78,-87,-68
-68,-107,-39,87,-14,-73,-48,-78,-87,-87,-87,-68
-68,-107,-39,87,-14,-73,-48,-78,-87,-87,-87,-68
-68,-107,-39,87,-14,-73,-48,-78,-87,-87,-87,-68
-68,-107,-39,87,-14,-73,-48,-78,-87,-87,-87,-68
-78,-107,-29,92,-24,-68,-58,-68,-87,-78,-87,-68
-78,-107,-29,92,-24,-68,-58,-68,-87,-78,-87,-68
-78,-107,-29,92,-24,-68,-58,-68,-87,-78,-87,-68
-78,-107,-29,92,-24,-68,-58,-68,-87,-78,-87,-68
-78,-107,-29,92,-24,-68,-58,-58,-87,-87,-87,-68
-78,-107,-29,92,-24,-68,-58,-58,-87,-87,-87,-68
-78,-107,-29,92,-24,-68,-58,-58,-87,-87,-87,-68
-78,-107,-29,92,-24,-68,-58,-58,-87,-87,-87,-68
-78,-107,-29,92,-24,-68,-58,-68,-87,-87,-78,-68
-78,-107,-29,92,-24,-68,-58,-68,-87,-87,-78,-68
-78,-107,-29,92,-24,-68,-58,-68,-87,-87,-78,-68
-78,-107,-29,92,-24,-68,-58,-68,-87,-87,-78,-68
-78,-107,-29,92,-24,-68,-48,-58,-87,-87,-78,-58
-78,-107,-29,92,-24,-68,-48,-58,-87,-87,-78,-58
-78,-107,-29,92,-24,-68,-48,-58,-87,-87,-78,-58
-78,-107,-29,92,-24,-68,-48,-58,-87,-87,-78,-58
-78,-107,-29,92,-24,-68,-48,-68,-87,-87,-78,-58
-78,-107,-29,92,-24,-68,-48,-68,-87,-87,-78,-58
-78,-107,-29,92,-24,-68,-48,-68,-87,-87,-78,-58
-78,-107,-29,92,-24,-68,-48,-68,-87,-87,-78,-58
-78,-107,-29,92,-24,-68,-48,-68,-87,-87,-78,-58
-78,-107,-29,92,-24,-68,-48,-68,-87,-87,-78,-58
-78,-107,-29,92,-24,-68,-48,-68,-87,-87,-78,-58
-78,-107,-29,92,-24,-68,-48,-68,-87,-87,-78,-58
-78,-97,-19,87,-29,-58,-48,-68,-87,-78,-78,-58
-78,-97,-19,87,-29,-58,-48,-68,-87,-78,-78,-58
-78,-97,-19,87,-29,-58,-48,-68,-87,-78,-78,-58
-78,-97,-19,87,-29,-58,-48,-68,-87,-78,-78,-58
-78,-107,-29,92,-24,-68,-58,-68,-78,-78,-78,-68
-78,-107,-29,92,-24,-68,-58,-68,-78,-78,-78,-68
-78,-107,-29,92,-24,-68,-58,-68,-78,-78,-78,-68
-78,-107,-29,92,-24,-68,-58,-68,-78,-78,-78,-68
-78,-107,-29,92,-24,-68,-48,-68,-78,-78,-78,-68
-78,-107,-29,92,-24,-68,-48,-68,-78,-78,-78,-68
-78,-107,-29,92,-24,-68,-48,-68,-78,-78,-78,-68
-78,-107,-29,92,-24,-68,-48,-68,-78,-78,-78,-68
-78,-107,-29,92,-24,-68,-48,-68,-78,-78,-68,-58
-78,-107,-29,92,-24,-68,-48,-68,-78,-78,-68,-58
-78,-107,-29,92,-24,-68,-48,-68,-78,-78,-68,-58
-78,-107,-29,92,-24,-68,-48,-68,-78,-78,-68,-58
-78,-107,-29,92,-24,-68,-48,-58,-87,-78,-78,-58
-78,-107,-29,92,-24,-68,-48,-58,-87,-78,-78,-58
-78,-107,-29,92,-24,-68,-48,-58,-87,-78,-78,-58
-78,-107,-29,92,-24,-68,-48,-58,-87,-78,-78,-58
-78,-107,-29,92,-24,-68,-48,-58,-78,-78,-78,-58
-78,-107,-29,92,-24,-68,-48,-58,-78,-78,-78,-58
-78,-107,-29,92,-24,-68,-48,-58,-78,-78,-78,-58
-78,-107,-29,92,-24,-68,-48,-58,-78,-78,-78,-58
-78,-107,-29,92,-24,-68,-48,-68,-87,-78,-78,-58
-78,-107,-29,92,-24,-68,-48,-68,-87,-78,-78,-58
-78,-107,-29,92,-24,-68,-48,-68,-87,-78,-78,-58
-78,-107,-29,92,-24,-68,-48,-68,-87,-78,-78,-58
-78,-107,-29,92,-24,-68,-48,-68,-78,-78,-68,-58
-78,-107,-29,92,-24,-68,-48,-68,-78,-78,-68,-58
-78,-107,-29,92,-24,-68,-48,-68,-78,-78,-68,-58
-78,-107,-29,92,-24,-68,-48,-68,-78,-78,-68,-58
-87,-107,-19,97,-34,-63,-48,-68,-78,-78,-68,-58
-87,-107,-19,97,-34,-63,-48,-68,-78,-78,-68,-58
-87,-107,-19,97,-34,-63,-48,-68,-78,-78,-68,-58
-87,-107,-19,97,-34,-63,-48,-68,-78,-78,-68,-58
-87,-107,-19,97,-34,-63,-48,-58,-78,-68,-68,-58
-87,-107,-19,97,-34,-63,-48,-58,-78,-68,-68,-58
-87,-107,-19,97,-34,-63,-48,-58,-78,-68,-68,-58
-87,-107,-19,97,-34,-63,-48,-58,-78,-68,-68,-58
-78,-97,-19,87,-29,-58,-48,-48,-68,-68,-68,-58
-78,-97,-19,87,-29,-58,-48,-48,-68,-68,-68,-58
-78,-97,-19,87,-29,-58,-48,-48,-68,-68,-68,-58
-78,-97,-19,87,-29,-58,-48,-48,-68,-68,-68,-58
-68,-92,-24,80,-21,-58,-39,-48,-58,-58,-58,-48
-68,-87,-19,78,-24,-53,-39,-48,-58,-58,-58,-48
-68,-82,-14,75,-26,-48,-39,-48,-58,-58,-58,-48
-68,-78,-9,73,-29,-43,-39,-48,-58,-58,-58,-48
-63,-73,-9,68,-26,-41,-34,-48,-48,-48,-48,-48
-58,-68,-9,63,-24,-39,-29,-48,-48,-48,-48,-48
-53,-63,-9,58,-21,-36,-24,-48,-48,-48,-48,-48
-48,-58,-9,53,-19,-34,-19,-48,-48,-48,-48,-48
-48,-48,0,48,-24,-24,-9,-39,-39,-39,-39,-39
-48,-48,0,48,-24,-24,-9,-39,-39,-39,-39,-39
-48,-48,0,48,-24,-24,-9,-39,-39,-39,-39,-39
-48,-48,0,48,-24,-24,-9,-39,-39,-39,-39,-39
-48,-39,9,43,-29,-14,-4,-34,-29,-29,-29,-29
-48,-39,9,43,-29,-14,0,-29,-29,-29,-29,-29
-48,-39,9,43,-29,-14,4,-24,-29,-29,-29,-29
-48,-39,9,43,-29,-14,9,-19,-29,-29,-29,-29
-39,-39,0,39,-19,-19,9,-14,-24,-24,-29,-29
-39,-39,0,39,-19,-19,9,-9,-19,-19,-29,-29
-39,-39,0,39,-19,-19,9,-4,-14,-14,-29,-29
-39,-39,0,39,-19,-19,9,0,-9,-9,-29,-29
-34,-34,0,34,-17,-17,9,9,0,0,-19,-19
-24,-24,0,24,-12,-12,4,9,0,4,-14,-14
-14,-4,9,9,-12,2,0,9,0,4,-9,-9
0,9,9,-4,-4,9,-9,4,0,4,-4,-4
4,9,4,-7,0,7,-19,4,0,4,4,0
4,9,4,-7,0,7,-29,-4,0,4,0,0
4,9,4,-7,0,7,-39,-9,0,4,0,0
9,9,0,-9,4,4,-48,-14,-9,-4,-4,-4
9,0,-9,-4,9,-4,-48,-19,-14,-4,-14,-4
9,-4,-14,-2,12,-9,-53,-24,-14,-9,-14,-4
9,-9,-19,0,14,-14,-63,-24,-19,-14,-19,-4
9,-14,-24,2,17,-19,-68,-24,-24,-14,-24,-4
14,-34,-48,9,31,-41,-73,-34,-29,-14,-24,-4
19,-39,-58,9,39,-48,-78,-34,-29,-14,-24,-4
19,-43,-63,12,41,-53,-78,-34,-29,-14,-24,-4
19,-48,-68,14,43,-58,-82,-34,-34,-19,-24,-4
19,-48,-68,14,43,-58,-82,-29,-48,-19,-24,-4
19,-48,-68,14,43,-58,-82,-34,-48,-24,-29,-4
19,-48,-68,14,43,-58,-82,-39,-48,-24,-29,-9
19,-48,-68,14,43,-58,-87,-43,-48,-29,-29,-9
14,-48,-63,17,39,-56,-78,-53,-58,-34,-24,-9
4,-58,-63,26,34,-61,-78,-53,-58,-34,-24,-14
0,-63,-63,31,31,-63,-78,-58,-58,-34,-29,-19
-9,-68,-58,39,24,-63,-73,-58,-63,-43,-34,-19
-19,-73,-53,46,17,-63,-68,-58,-53,-43,-39,-24
-29,-78,-48,53,9,-63,-68,-58,-53,-48,-43,-29
-39,-82,-43,61,2,-63,-58,-58,-63,-48,-43,-34
-43,-87,-43,65,0,-65,-53,-58,-63,-53,-43,-39
-53,-92,-39,73,-7,-65,-63,-48,-63,-53,-48,-43
-58,-92,-34,75,-12,-63,-63,-48,-63,-58,-53,-43
-63,-97,-34,80,-14,-65,-63,-53,-73,-63,-58,-48
-68,-102,-34,85,-17,-68,-63,-53,-78,-68,-63,-53
-73,-107,-34,90,-19,-70,-53,-58,-78,-63,-68,-48
-73,-112,-39,92,-17,-75,-53,-58,-82,-68,-73,-53
-73,-117,-43,95,-14,-80,-53,-58,-87,-68,-78,-58
-73,-122,-48,97,-12,-85,-58,-68,-87,-73,-78,-58
-82,-126,-43,104,-19,-85,-58,-78,-102,-87,-87,-73
-82,-131,-48,107,-17,-90,-58,-78,-102,-87,-92,-73
-82,-131,-48,107,-17,-90,-63,-78,-102,-87,-92,-78
-82,-131,-48,107,-17,-90,-63,-78,-102,-87,-92,-78
-82,-141,-58,112,-12,-100,-63,-78,-102,-87,-92,-78
-82,-141,-58,112,-12,-100,-63,-78,-102,-87,-92,-78
-82,-141,-58,112,-12,-100,-63,-78,-102,-87,-92,-78
-82,-141,-58,112,-12,-100,-58,-82,-102,-87,-92,-78
-82,-141,-58,112,-12,-100,-58,-82,-102,-97,-92,-78
-82,-141,-58,112,-12,-100,-58,-82,-102,-97,-92,-78
-87,-141,-53,114,-17,-97,-58,-78,-102,-97,-92,-78
-87,-141,-53,114,-17,-97,-53,-78,-102,-97,-92,-78
-97,-146,-48,122,-24,-97,-43,-78,-92,-87,-82,-78
-97,-146,-48,122,-24,-97,-43,-73,-92,-87,-82,-78
-97,-146,-48,122,-24,-97,-43,-73,-92,-87,-82,-78
-102,-146,-43,124,-29,-95,-43,-73,-92,-87,-82,-78
-92,-146,-53,119,-19,-100,-43,-73,-92,-87,-82,-78
-92,-146,-53,119,-19,-100,-43,-73,-92,-87,-82,-78
-92,-146,-53,119,-19,-100,-43,-73,-92,-87,-82,-78
-92,-146,-53,119,-19,-100,-39,-73,-92,-87,-82,-78
-92,-146,-53,119,-19,-100,-39,-73,-92,-87,-92,-78
-92,-146,-53,119,-19,-100,-39,-73,-92,-87,-92,-78
-92,-146,-53,119,-19,-100,-39,-73,-92,-87,-92,-78
-92,-146,-53,119,-19,-100,-39,-73,-92,-87,-92,-78
-102,-146,-43,124,-29,-95,-48,-73,-92,-87,-97,-78
-102,-146,-43,124,-29,-95,-48,-73,-92,-87,-97,-78
-107,-146,-39,126,-34,-92,-43,-73,-92,-87,-97,-78
-107,-146,-39,126,-34,-92,-43,-73,-92,-87,-97,-78
-97,-146,-48,122,-24,-97,-43,-73,-92,-87,-97,-78
-97,-146,-48,122,-24,-97,-43,-73,-92,-87,-97,-78
-97,-146,-48,122,-24,-97,-43,-73,-92,-87,-92,-78
-92,-146,-53,119,-19,-100,-43,-73,-92,-87,-92,-78
-92,-146,-53,119,-19,-100,-43,-63,-92,-87,-92,-78
-92,-146,-53,119,-19,-100,-43,-63,-92,-87,-87,-78
-97,-151,-53,124,-21,-102,-43,-63,-92,-87,-97,-78
-97,-156,-58,126,-19,-107,-34,-63,-92,-87,-97,-82
-102,-151,-48,126,-26,-100,-29,-58,-102,-97,-107,-87
-107,-156,-48,131,-29,-102,-19,-43,-102,-102,-112,-97
-112,-161,-48,136,-31,-104,9,-34,-102,-102,-117,-97
-117,-170,-53,143,-31,-112,24,0,-92,-102,-122,-107
-122,-175,-53,148,-34,-114,53,24,-78,-102,-126,-117
-131,-175,-43,153,-43,-109,87,53,-68,-102,-126,-131
-136,-175,-39,156,-48,-107,122,92,-43,-78,-117,-131
-141,-165,-24,153,-58,-95,161,136,0,-48,-97,-126
-141,-151,-9,146,-65,-80,214,185,48,-9,-78,-117
-136,-131,4,134,-70,-63,239,219,97,34,-34,-102
-117,-92,24,104,-70,-34,258,239,156,87,9,-68
-92,-58,34,75,-63,-12,268,258,229,156,73,-29
-43,-19,24,31,-34,2,248,258,292,234,136,19
19,39,19,-29,0,29,190,239,346,307,214,68
97,82,-14,-90,56,34,112,209,385,370,278,122
185,122,-63,-153,124,29,24,170,419,424,346,180
292,161,-131,-226,212,14,-87,131,434,488,414,258
409,200,-209,-305,309,-4,-214,97,444,527,483,312
517,224,-292,-370,405,-34,-341,53,434,561,536,380
614,248,-366,-431,490,-58,-473,4,414,585,580,444
692,248,-444,-470,568,-97,-590,-68,366,590,610,492
727,229,-497,-478,612,-134,-707,-151,278,531,590,512
722,200,-522,-461,622,-161,-795,-268,141,429,531,512
673,151,-522,-412,597,-185,-888,-439,-34,273,424,478
595,97,-497,-346,546,-200,-966,-610,-219,92,297,424
507,48,-458,-278,483,-204,-1010,-775,-390,-78,156,370
380,-9,-390,-185,385,-200,-1034,-922,-561,-253,19,302
268,-53,-322,-107,295,-187,-1034,-1034,-697,-405,-117,224
170,-82,-253,-43,212,-168,-990,-1093,-771,-502,-214,165
92,-92,-185,0,139,-139,-951,-1102,-810,-561,-268,122
39,-92,-131,26,85,-112,-883,-1073,-795,-566,-287,92
9,-82,-92,36,51,-87,-795,-971,-727,-522,-268,78
-19,-73,-53,46,17,-63,-707,-873,-658,-478,-253,63
-24,-68,-43,46,9,-56,-624,-766,-585,-429,-224,58
-39,-63,-24,51,-7,-43,-541,-668,-507,-375,-200,43
-43,-63,-19,53,-12,-41,-468,-570,-448,-322,-185,29
-43,-68,-24,56,-9,-46,-390,-483,-380,-283,-161,14
-43,-82,-39,63,-2,-61,-336,-409,-336,-253,-151,9
-48,-87,-39,68,-4,-63,-278,-341,-287,-219,-136,0
-48,-102,-53,75,2,-78,-229,-273,-248,-185,-122,-14
-48,-117,-68,82,9,-92,-175,-224,-204,-161,-112,-24
-53,-126,-73,90,9,-100,-141,-170,-170,-131,-97,-34
-53,-131,-78,92,12,-104,-102,-131,-141,-117,-82,-34
-53,-141,-87,97,17,-114,-82,-92,-122,-92,-78,-34
-58,-141,-82,100,12,-112,-58,-73,-102,-82,-68,-39
-58,-141,-82,100,12,-112,-34,-48,-87,-68,-68,-48
-68,-136,-68,102,0,-102,-19,-29,-68,-58,-58,-43
-68,-131,-63,100,-2,-97,-14,-24,-63,-58,-53,-43
-68,-117,-48,92,-9,-82,0,-19,-48,-48,-48,-43
-68,-112,-43,90,-12,-78,4,-14,-48,-43,-43,-43
-73,-102,-29,87,-21,-65,14,-4,-39,-39,-43,-48
-73,-97,-24,85,-24,-61,14,4,-34,-34,-43,-48
-73,-97,-24,85,-24,-61,19,4,-29,-29,-43,-48
-73,-97,-24,85,-24,-61,24,9,-24,-29,-43,-48
-73,-87,-14,80,-29,-51,29,14,-19,-29,-43,-39
-73,-87,-14,80,-29,-51,34,19,-19,-24,-39,-43
-73,-87,-14,80,-29,-51,34,19,-19,-24,-39,-43
-73,-87,-14,80,-29,-51,34,19,-19,-24,-39,-43
-73,-97,-24,85,-24,-61,48,24,-14,-24,-39,-43
-73,-97,-24,85,-24,-61,53,24,-9,-19,-39,-43
-73,-92,-19,82,-26,-56,53,29,-9,-19,-39,-43
-73,-92,-19,82,-26,-56,53,29,-9,-19,-34,-43
-73,-92,-19,82,-26,-56,53,34,-9,-19,-34,-43
-73,-92,-19,82,-26,-56,53,34,0,-14,-34,-43
-73,-92,-19,82,-26,-56,58,39,0,-14,-34,-43
-78,-92,-14,85,-31,-53,63,39,9,-9,-34,-48
-78,-87,-9,82,-34,-48,63,39,9,-19,-43,-48
-78,-87,-9,82,-34,-48,63,43,4,-19,-43,-48
-78,-87,-9,82,-34,-48,63,43,4,-19,-39,-48
-78,-87,-9,82,-34,-48,63,43,9,-19,-39,-48
-78,-87,-9,82,-34,-48,63,43,9,-9,-29,-48
-73,-87,-14,80,-29,-51,63,48,9,-4,-29,-48
-73,-87,-14,80,-29,-51,68,48,9,-4,-29,-48
-73,-87,-14,80,-29,-51,68,53,9,0,-29,-48
-73,-78,-4,75,-34,-41,73,53,14,0,-29,-48
-73,-78,-4,75,-34,-41,73,53,14,0,-29,-48
-73,-78,-4,75,-34,-41,73,58,19,0,-29,-48
-73,-78,-4,75,-34,-41,73,58,19,0,-29,-43
-73,-82,-9,78,-31,-46,82,68,29,9,-19,-43
-73,-82,-9,78,-31,-46,82,68,29,9,-14,-43
-73,-82,-9,78,-31,-46,82,73,29,14,-14,-43
-73,-82,-9,78,-31,-46,82,73,29,14,-14,-43
-73,-82,-9,78,-31,-46,73,73,29,14,-14,-39
-73,-82,-9,78,-31,-46,73,73,29,14,-14,-39
-68,-82,-14,75,-26,-48,78,78,29,14,-9,-39
-68,-78,-9,73,-29,-43,78,78,29,19,-4,-39
-68,-78,-9,73,-29,-43,78,78,34,19,-14,-39
-68,-78,-9,73,-29,-43,78,78,34,24,-14,-39
-63,-73,-9,68,-26,-41,82,78,34,24,-14,-39
-63,-73,-9,68,-26,-41,82,82,34,24,-14,-39
-58,-73,-14,65,-21,-43,82,82,29,14,-19,-34
-58,-73,-14,65,-21,-43,82,82,29,14,-19,-34
-58,-73,-14,65,-21,-43,82,87,29,19,-19,-34
-58,-73,-14,65,-21,-43,82,87,34,19,-19,-34
-63,-73,-9,68,-26,-41,87,82,43,29,-4,-34
-63,-73,-9,68,-26,-41,87,87,43,29,0,-34
-63,-73,-9,68,-26,-41,87,87,43,29,0,-34
-58,-68,-9,63,-24,-39,87,87,48,34,0,-34
-58,-68,-9,63,-24,-39,102,92,63,34,9,-19
-58,-68,-9,63,-24,-39,102,107,63,34,9,-19
-58,-68,-9,63,-24,-39,107,112,68,39,14,-19
-58,-68,-9,63,-24,-39,107,117,68,39,14,-19
-58,-73,-14,65,-21,-43,107,122,68,48,14,-19
-58,-73,-14,65,-21,-43,107,122,68,48,14,-19
-53,-73,-19,63,-17,-46,107,122,73,53,14,-14
-53,-73,-19,63,-17,-46,107,131,73,53,19,-14
-48,-58,-9,53,-19,-34,117,126,82,48,19,-14
-48,-53,-4,51,-21,-29,117,126,82,48,24,-9
-48,-48,0,48,-24,-24,117,136,82,58,24,-9
-43,-48,-4,46,-19,-26,122,141,87,58,24,-4
-34,-43,-9,39,-12,-26,122,136,87,58,29,-4
-34,-43,-9,39,-12,-26,122,141,92,63,34,-4
-29,-43,-14,36,-7,-29,122,146,92,63,34,0
-29,-43,-14,36,-7,-29,126,146,102,68,34,0
-34,-43,-9,39,-12,-26,122,151,92,68,29,0
-34,-39,-4,36,-14,-21,126,156,97,78,34,0
-29,-39,-9,34,-9,-24,126,161,102,78,39,0
-29,-39,-9,34,-9,-24,126,165,102,78,39,0
-29,-39,-9,34,-9,-24,136,180,117,87,53,0
-24,-39,-14,31,-4,-26,141,185,122,92,58,4
-19,-29,-9,24,-4,-19,141,190,126,97,58,4
-19,-29,-9,24,-4,-19,146,200,131,102,63,9
-14,-29,-14,21,0,-21,146,200,136,102,68,9
-14,-29,-14,21,0,-21,151,204,136,107,68,9
-9,-19,-9,14,0,-14,151,214,141,112,68,14
-4,-14,-9,9,2,-12,151,224,146,117,78,19
0,-14,-14,7,7,-14,151,239,161,131,82,24
4,-14,-19,4,12,-17,156,244,170,136,87,24
9,-4,-14,-2,12,-9,161,248,175,141,87,24
14,0,-14,-7,14,-7,161,263,175,146,92,34
19,4,-14,-12,17,-4,161,263,185,151,97,39
24,9,-14,-17,19,-2,161,278,195,161,102,39
29,9,-19,-19,24,-4,165,287,200,165,112,43
34,14,-19,-24,26,-2,170,297,204,170,117,48
48,29,-19,-39,34,4,170,297,209,185,122,53
53,34,-19,-43,36,7,175,307,219,195,126,58
63,39,-24,-51,43,7,175,307,224,200,131,58
68,39,-29,-53,48,4,180,317,229,204,141,63
73,43,-29,-58,51,7,180,326,244,204,146,68
78,48,-29,-63,53,9,180,331,244,219,151,73
92,53,-39,-73,65,7,185,341,258,224,156,78
92,58,-34,-75,63,12,185,351,263,234,165,78
97,63,-34,-80,65,14,185,351,273,244,161,82
107,68,-39,-87,73,14,190,361,278,244,170,87
117,73,-43,-95,80,14,195,366,283,248,180,92
122,78,-43,-100,82,17,195,380,297,263,190,102
131,82,-48,-107,90,17,195,395,292,268,200,102
141,87,-53,-114,97,17,200,400,307,273,209,112
151,92,-58,-122,104,17,200,414,307,287,219,117
161,97,-63,-129,112,17,200,419,312,287,224,122
156,102,-53,-129,104,24,200,424,331,297,234,126
165,107,-58,-136,112,24,200,429,331,307,244,131
175,117,-58,-146,117,29,200,434,336,312,253,136
185,122,-63,-153,124,29,200,439,341,317,253,141
204,126,-78,-165,141,24,200,444,351,322,263,146
214,131,-82,-173,148,24,200,448,356,331,268,151
219,131,-87,-175,153,21,195,448,361,336,273,156
229,136,-92,-183,161,21,190,448,361,341,278,161
234,141,-92,-187,163,24,190,448,361,346,283,165
239,146,-92,-192,165,26,185,448,370,351,287,175
244,146,-97,-195,170,24,180,448,370,356,292,180
253,141,-112,-197,183,14,175,448,370,356,297,185
258,141,-117,-200,187,12,161,444,361,356,302,180
263,146,-117,-204,190,14,156,444,361,356,307,185
268,151,-117,-209,192,17,151,434,361,361,307,185
268,151,-117,-209,192,17,146,429,361,361,307,190
268,151,-117,-209,192,17,136,419,346,351,297,200
273,151,-122,-212,197,14,126,414,341,351,297,200
273,151,-122,-212,197,14,126,405,341,351,297,200
273,151,-122,-212,197,14,112,395,336,346,297,200
273,151,-122,-212,197,14,107,385,341,341,292,200
273,151,-122,-212,197,14,97,366,326,336,287,200
263,146,-117,-204,190,14,92,351,317,326,283,190
258,136,-122,-197,190,7,87,336,307,317,278,185
248,126,-122,-187,185,2,73,322,287,307,273,180
239,122,-117,-180,178,2,68,302,278,297,258,175
229,117,-112,-173,170,2,58,287,268,287,248,170
219,107,-112,-163,165,-2,53,273,258,278,239,165
219,112,-107,-165,163,2,48,258,248,263,229,161
209,107,-102,-158,156,2,43,244,234,253,219,146
190,97,-92,-143,141,2,39,219,219,239,209,136
175,87,-87,-131,131,0,39,209,204,224,190,131
175,78,-97,-126,136,-9,34,195,190,209,185,122
161,68,-92,-114,126,-12,29,175,175,195,175,112
146,63,-82,-104,114,-9,24,161,165,180,161,107
131,53,-78,-92,104,-12,19,146,151,165,146,97
122,34,-87,-78,104,-26,14,141,131,151,122,87
112,24,-87,-68,100,-31,9,126,112,136,117,78
102,14,-87,-58,95,-36,9,112,107,122,102,68
92,9,-82,-51,87,-36,9,97,97,117,92,58
82,9,-73,-46,78,-31,-4,92,78,92,73,48
78,0,-78,-39,78,-39,-9,78,68,87,63,43
68,-9,-78,-29,73,-43,-9,63,58,73,48,34
58,-19,-78,-19,68,-48,-14,58,48,63,39,24
39,-39,-78,0,58,-58,-19,48,39,53,29,14
29,-43,-73,7,51,-58,-19,39,29,43,19,4
19,-43,-63,12,41,-53,-19,29,29,34,19,4
9,-48,-58,19,34,-53,-19,24,14,24,4,0
4,-63,-68,29,36,-65,-19,19,14,19,4,-4
0,-68,-68,34,34,-68,-19,14,9,19,4,-9
-14,-73,-58,43,21,-65,-19,4,0,4,-4,-19
-14,-73,-58,43,21,-65,-24,4,-4,4,-4,-24
-9,-73,-63,41,26,-68,-24,0,-9,0,-14,-19
-14,-82,-68,48,26,-75,-24,-4,-14,-4,-19,-24
-19,-87,-68,53,24,-78,-24,-14,-24,-14,-24,-24
-24,-92,-68,58,21,-80,-24,-24,-29,-19,-29,-29
-29,-97,-68,63,19,-82,-24,-24,-24,-24,-34,-29
-29,-97,-68,63,19,-82,-24,-29,-29,-29,-39,-29
-34,-97,-63,65,14,-80,-24,-29,-29,-29,-39,-39
-34,-97,-63,65,14,-80,-24,-34,-34,-34,-43,-39
-34,-87,-53,61,9,-70,-24,-39,-43,-34,-43,-39
-39,-92,-53,65,7,-73,-29,-39,-43,-34,-43,-39
-39,-92,-53,65,7,-73,-29,-39,-53,-39,-48,-43
-39,-92,-53,65,7,-73,-29,-43,-53,-39,-48,-43
-43,-97,-53,70,4,-75,-29,-43,-53,-43,-58,-43
-43,-97,-53,70,4,-75,-29,-43,-53,-48,-63,-43
-43,-97,-53,70,4,-75,-34,-43,-53,-48,-63,-43
-43,-97,-53,70,4,-75,-34,-48,-58,-48,-63,-48
-48,-102,-53,75,2,-78,-24,-48,-58,-58,-68,-58
-48,-102,-53,75,2,-78,-24,-48,-58,-58,-68,-58
-48,-107,-58,78,4,-82,-24,-48,-63,-63,-68,-58
-48,-107,-58,78,4,-82,-29,-48,-63,-63,-68,-58
-48,-107,-58,78,4,-82,-29,-48,-63,-53,-68,-48
-48,-107,-58,78,4,-82,-29,-48,-63,-53,-68,-48
-48,-107,-58,78,4,-82,-29,-48,-63,-53,-68,-53
-48,-107,-58,78,4,-82,-29,-48,-63,-53,-68,-53
-48,-107,-58,78,4,-82,-29,-39,-63,-53,-58,-53
-48,-107,-58,78,4,-82,-29,-39,-63,-53,-58,-53
-48,-102,-53,75,2,-78,-29,-39,-63,-53,-58,-53
-48,-102,-53,75,2,-78,-29,-39,-63,-53,-63,-53
-48,-112,-63,80,7,-87,-39,-43,-58,-53,-63,-48
-48,-112,-63,80,7,-87,-39,-43,-58,-53,-63,-48
-48,-112,-63,80,7,-87,-39,-43,-58,-53,-63,-48
-48,-107,-58,78,4,-82,-39,-43,-58,-53,-63,-48
-48,-97,-48,73,0,-73,-39,-53,-63,-53,-63,-48
-48,-97,-48,73,0,-73,-39,-48,-63,-53,-63,-48
-48,-97,-48,73,0,-73,-39,-48,-63,-53,-63,-48
-48,-97,-48,73,0,-73,-39,-48,-63,-53,-63,-48
-48,-102,-53,75,2,-78,-29,-48,-63,-53,-63,-48
-48,-102,-53,75,2,-78,-29,-48,-63,-53,-63,-48
-53,-107,-53,80,0,-80,-29,-48,-63,-53,-63,-48
-53,-107,-53,80,0,-80,-29,-48,-63,-53,-63,-48
-53,-107,-53,80,0,-80,-29,-48,-63,-53,-73,-48
-53,-102,-48,78,-2,-75,-29,-48,-63,-53,-68,-48
-53,-102,-48,78,-2,-75,-29,-48,-63,-53,-68,-48
-53,-102,-48,78,-2,-75,-29,-48,-63,-53,-68,-48
-53,-102,-48,78,-2,-75,-29,-48,-63,-63,-68,-48
-53,-102,-48,78,-2,-75,-29,-48,-63,-63,-68,-48
-48,-102,-53,75,2,-78,-29,-48,-63,-63,-68,-48
-48,-102,-53,75,2,-78,-29,-43,-63,-63,-68,-48
-58,-102,-43,80,-7,-73,-29,-43,-53,-53,-58,-48
-58,-102,-43,80,-7,-73,-29,-43,-53,-53,-58,-48
-58,-102,-43,80,-7,-73,-24,-43,-53,-53,-63,-48
-58,-102,-43,80,-7,-73,-24,-43,-53,-48,-63,-48
-58,-102,-43,80,-7,-73,-24,-39,-48,-48,-63,-48
-58,-102,-43,80,-7,-73,-24,-39,-48,-48,-63,-48
-58,-102,-43,80,-7,-73,-24,-39,-48,-48,-63,-48
-58,-97,-39,78,-9,-68,-24,-39,-48,-48,-58,-48
-48,-97,-48,73,0,-73,-24,-39,-48,-48,-48,-43
-48,-97,-48,73,0,-73,-24,-39,-43,-48,-48,-43
-48,-97,-48,73,0,-73,-19,-39,-43,-48,-48,-43
-48,-97,-48,73,0,-73,-19,-39,-43,-48,-43,-39
-48,-97,-48,73,0,-73,-19,-48,-43,-48,-53,-39
-48,-97,-48,73,0,-73,-19,-48,-43,-43,-53,-39
-53,-97,-43,75,-4,-70,-19,-48,-43,-43,-53,-39
-53,-97,-43,75,-4,-70,-19,-48,-43,-43,-53,-39
-63,-97,-34,80,-14,-65,-19,-48,-48,-43,-53,-39
-63,-97,-34,80,-14,-65,-19,-48,-48,-43,-53,-39
-63,-97,-34,80,-14,-65,-19,-48,-48,-43,-53,-39
-63,-97,-34,80,-14,-65,-19,-48,-48,-43,-53,-43
-63,-97,-34,80,-14,-65,-19,-39,-39,-43,-53,-43
-63,-92,-29,78,-17,-61,-19,-39,-39,-43,-53,-43
-63,-92,-29,78,-17,-61,-19,-39,-39,-39,-53,-43
-63,-92,-29,78,-17,-61,-19,-43,-34,-39,-48,-43
-58,-92,-34,75,-12,-63,-29,-34,-34,-39,-48,-39
-58,-92,-34,75,-12,-63,-24,-34,-34,-39,-48,-39
-58,-92,-34,75,-12,-63,-19,-34,-34,-39,-48,-39
-58,-92,-34,75,-12,-63,-19,-29,-34,-39,-48,-39
-58,-92,-34,75,-12,-63,-9,-29,-34,-29,-48,-39
-58,-92,-34,75,-12,-63,-14,-29,-34,-29,-48,-39
-58,-92,-34,75,-12,-63,-19,-29,-34,-29,-48,-39
-58,-92,-34,75,-12,-63,-19,-29,-34,-29,-48,-39
-48,-92,-43,70,-2,-68,-19,-29,-43,-39,-48,-39
-48,-92,-43,70,-2,-68,-19,-29,-43,-34,-48,-39
-48,-92,-43,70,-2,-68,-19,-29,-43,-34,-48,-39
-48,-92,-43,70,-2,-68,-19,-29,-43,-34,-48,-39
-58,-92,-34,75,-12,-63,-29,-39,-43,-34,-48,-39
-58,-92,-34,75,-12,-63,-29,-39,-43,-34,-48,-39
-58,-92,-34,75,-12,-63,-29,-39,-43,-39,-48,-39
-58,-92,-34,75,-12,-63,-29,-39,-43,-39,-48,-39
-58,-102,-43,80,-7,-73,-29,-39,-43,-39,-48,-39
-58,-102,-43,80,-7,-73,-29,-39,-43,-39,-48,-39
-58,-102,-43,80,-7,-73,-29,-39,-43,-39,-48,-39
-58,-102,-43,80,-7,-73,-29,-39,-43,-39,-48,-39
-68,-102,-34,85,-17,-68,-19,-39,-43,-39,-48,-39
-68,-102,-34,85,-17,-68,-19,-39,-43,-39,-48,-39
-68,-102,-34,85,-17,-68,-19,-39,-43,-39,-48,-39
-68,-102,-34,85,-17,-68,-19,-39,-43,-39,-53,-39
-68,-102,-34,85,-17,-68,-29,-39,-48,-39,-53,-39
-68,-102,-34,85,-17,-68,-29,-39,-48,-39,-53,-39
-68,-102,-34,85,-17,-68,-29,-39,-48,-39,-53,-39
-68,-102,-34,85,-17,-68,-29,-39,-48,-39,-53,-39
-68,-92,-24,80,-21,-58,-19,-39,-48,-39,-53,-39
-68,-97,-29,82,-19,-63,-19,-39,-48,-39,-53,-39
-68,-97,-29,82,-19,-63,-19,-43,-48,-39,-53,-39
-68,-97,-29,82,-19,-63,-19,-43,-48,-39,-53,-39
-58,-87,-29,73,-14,-58,-19,-43,-48,-43,-53,-39
-58,-87,-29,73,-14,-58,-19,-43,-48,-43,-53,-39
-58,-87,-29,73,-14,-58,-24,-43,-53,-43,-53,-39
-58,-87,-29,73,-14,-58,-24,-43,-53,-43,-53,-43
-58,-97,-39,78,-9,-68,-34,-43,-53,-43,-53,-43
-58,-97,-39,78,-9,-68,-34,-43,-53,-43,-53,-43
-58,-97,-39,78,-9,-68,-34,-43,-53,-43,-53,-43
-58,-97,-39,78,-9,-68,-34,-43,-53,-43,-58,-43
-58,-97,-39,78,-9,-68,-34,-43,-53,-43,-58,-43
-58,-97,-39,78,-9,-68,-34,-43,-53,-48,-58,-43
-58,-97,-39,78,-9,-68,-34,-43,-53,-48,-58,-43
-58,-97,-39,78,-9,-68,-34,-43,-53,-48,-58,-48
-58,-97,-39,78,-9,-68,-34,-43,-53,-48,-48,-48
-58,-102,-43,80,-7,-73,-34,-43,-53,-48,-53,-48
-58,-102,-43,80,-7,-73,-34,-48,-58,-48,-53,-48
-63,-102,-39,82,-12,-70,-34,-48,-58,-53,-53,-48
-73,-102,-29,87,-21,-65,-24,-48,-58,-53,-53,-48
-73,-102,-29,87,-21,-65,-24,-48,-58,-53,-53,-48
-73,-102,-29,87,-21,-65,-24,-48,-58,-53,-53,-48
-78,-102,-24,90,-26,-63,-19,-48,-58,-53,-53,-48
-68,-102,-34,85,-17,-68,-29,-48,-58,-53,-53,-48
-68,-102,-34,85,-17,-68,-29,-43,-58,-53,-53,-48
-68,-107,-39,87,-14,-73,-29,-43,-63,-53,-53,-48
-68,-107,-39,87,-14,-73,-29,-48,-68,-53,-53,-48
-68,-107,-39,87,-14,-73,-19,-48,-68,-53,-53,-48
-68,-107,-39,87,-14,-73,-24,-53,-68,-53,-58,-48
-63,-107,-43,85,-9,-75,-24,-53,-68,-53,-58,-48
-63,-107,-43,85,-9,-75,-24,-53,-68,-53,-58,-53
-68,-107,-39,87,-14,-73,-24,-53,-68,-53,-48,-43
-68,-107,-39,87,-14,-73,-29,-53,-68,-53,-53,-43
-68,-107,-39,87,-14,-73,-29,-53,-68,-53,-53,-43
-68,-107,-39,87,-14,-73,-29,-53,-68,-53,-53,-43
-78,-107,-29,92,-24,-68,-29,-53,-68,-53,-53,-43
-78,-107,-29,92,-24,-68,-29,-53,-68,-53,-53,-43
-78,-107,-29,92,-24,-68,-29,-53,-68,-53,-53,-43
-78,-107,-29,92,-24,-68,-29,-53,-73,-58,-53,-43
-78,-107,-29,92,-24,-68,-29,-48,-73,-58,-53,-53
-78,-107,-29,92,-24,-68,-29,-48,-73,-58,-53,-53
-78,-112,-34,95,-21,-73,-29,-48,-73,-63,-58,-53
-78,-112,-34,95,-21,-73,-29,-48,-73,-63,-58,-53
-82,-112,-29,97,-26,-70,-29,-48,-63,-63,-58,-53
-82,-112,-29,97,-26,-70,-29,-48,-63,-63,-58,-53
-82,-112,-29,97,-26,-70,-29,-48,-63,-63,-58,-53
-82,-112,-29,97,-26,-70,-29,-48,-63,-63,-58,-53
-82,-102,-19,92,-31,-61,-29,-53,-73,-63,-58,-53
-82,-102,-19,92,-31,-61,-29,-53,-73,-63,-58,-58
-82,-102,-19,92,-31,-61,-29,-53,-73,-63,-58,-58
-82,-102,-19,92,-31,-61,-29,-53,-73,-63,-58,-58
-82,-102,-19,92,-31,-61,-29,-53,-73,-58,-58,-48
-82,-102,-19,92,-31,-61,-29,-53,-73,-58,-63,-48
-82,-102,-19,92,-31,-61,-29,-53,-73,-58,-63,-48
-82,-102,-19,92,-31,-61,-29,-53,-78,-58,-63,-48
-78,-102,-24,90,-26,-63,-39,-48,-68,-68,-53,-48
-78,-102,-24,90,-26,-63,-39,-48,-68,-63,-53,-48
-78,-102,-24,90,-26,-63,-39,-48,-68,-63,-53,-48
-78,-102,-24,90,-26,-63,-39,-48,-63,-63,-53,-48
-78,-112,-34,95,-21,-73,-39,-58,-73,-63,-53,-48
-78,-112,-34,95,-21,-73,-39,-58,-73,-63,-53,-48
-78,-112,-34,95,-21,-73,-39,-58,-73,-63,-53,-48
-78,-112,-34,95,-21,-73,-39,-58,-73,-63,-53,-48
-78,-112,-34,95,-21,-73,-29,-58,-73,-68,-63,-58
-78,-112,-34,95,-21,-73,-29,-58,-73,-68,-63,-58
-78,-117,-39,97,-19,-78,-34,-58,-73,-68,-63,-58
-78,-117,-39,97,-19,-78,-34,-58,-73,-68,-63,-58
-87,-117,-29,102,-29,-73,-43,-53,-78,-68,-63,-58
-87,-117,-29,102,-29,-73,-43,-53,-78,-68,-63,-58
-87,-117,-29,102,-29,-73,-43,-53,-78,-68,-63,-58
-87,-117,-29,102,-29,-73,-43,-53,-78,-68,-63,-58
-87,-107,-19,97,-34,-63,-43,-53,-73,-68,-63,-58
-87,-107,-19,97,-34,-63,-43,-53,-73,-68,-63,-58
-87,-107,-19,97,-34,-63,-43,-53,-73,-68,-63,-58
-87,-107,-19,97,-34,-63,-43,-48,-73,-68,-63,-58
-87,-107,-19,97,-34,-63,-43,-48,-68,-58,-63,-48
-87,-107,-19,97,-34,-63,-43,-48,-68,-58,-63,-53
-87,-107,-19,97,-34,-63,-43,-48,-68,-58,-63,-53
-87,-107,-19,97,-34,-63,-43,-48,-68,-58,-63,-53
-78,-107,-29,92,-24,-68,-34,-58,-68,-68,-58,-53
-78,-107,-29,92,-24,-68,-34,-58,-68,-68,-58,-53
-78,-107,-29,92,-24,-68,-34,-58,-68,-68,-58,-53
-78,-107,-29,92,-24,-68,-34,-58,-73,-68,-58,-53
-78,-107,-29,92,-24,-68,-34,-58,-73,-68,-63,-53
-78,-107,-29,92,-24,-68,-34,-53,-73,-68,-63,-53
-78,-107,-29,92,-24,-68,-34,-63,-73,-58,-63,-53
-73,-107,-34,90,-19,-70,-34,-63,-82,-68,-63,-53
-78,-107,-29,92,-24,-68,-39,-58,-87,-68,-68,-58
-78,-117,-39,97,-19,-78,-39,-58,-87,-68,-68,-58
-78,-117,-39,97,-19,-78,-39,-58,-87,-68,-68,-58
-78,-117,-39,97,-19,-78,-39,-58,-87,-68,-68,-58
-78,-117,-39,97,-19,-78,-39,-58,-87,-68,-68,-58
-78,-117,-39,97,-19,-78,-39,-58,-87,-68,-68,-58
-78,-117,-39,97,-19,-78,-39,-58,-87,-68,-68,-58
-78,-117,-39,97,-19,-78,-39,-58,-87,-68,-68,-58
-78,-117,-39,97,-19,-78,-39,-58,-87,-68,-68,-58
-78,-117,-39,97,-19,-78,-48,-58,-78,-68,-68,-58
-78,-117,-39,97,-19,-78,-48,-58,-78,-68,-68,-58
-78,-117,-39,97,-19,-78,-48,-58,-78,-68,-68,-58
-78,-117,-39,97,-19,-78,-48,-58,-78,-68,-68,-58
-78,-117,-39,97,-19,-78,-48,-58,-78,-58,-68,-58
-78,-117,-39,97,-19,-78,-48,-58,-78,-58,-68,-58
-78,-117,-39,97,-19,-78,-48,-58,-78,-58,-68,-58
-78,-117,-39,97,-19,-78,-48,-58,-78,-58,-68,-58
-78,-107,-29,92,-24,-68,-39,-58,-78,-58,-68,-48
-78,-107,-29,92,-24,-68,-39,-58,-78,-58,-68,-48
-78,-107,-29,92,-24,-68,-39,-58,-78,-58,-68,-48
-78,-107,-29,92,-24,-68,-39,-58,-78,-58,-68,-48
-78,-107,-29,92,-24,-68,-39,-68,-87,-68,-68,-58
-78,-107,-29,92,-24,-68,-39,-68,-87,-68,-68,-58
-78,-107,-29,92,-24,-68,-39,-68,-87,-68,-68,-58
-78,-107,-29,92,-24,-68,-39,-68,-87,-68,-68,-58
-78,-107,-29,92,-24,-68,-48,-68,-87,-68,-68,-58
-78,-107,-29,92,-24,-68,-48,-68,-87,-68,-68,-58
-78,-107,-29,92,-24,-68,-48,-68,-87,-68,-68,-58
-78,-107,-29,92,-24,-68,-48,-68,-87,-68,-68,-58
-78,-107,-29,92,-24,-68,-48,-58,-87,-68,-68,-58
-78,-107,-29,92,-24,-68,-48,-58,-87,-68,-68,-58
-78,-107,-29,92,-24,-68,-48,-58,-87,-68,-68,-58
-78,-107,-29,92,-24,-68,-48,-58,-87,-68,-68,-58
-78,-107,-29,92,-24,-68,-48,-58,-87,-68,-68,-58
-78,-107,-29,92,-24,-68,-48,-58,-87,-68,-68,-58
-78,-107,-29,92,-24,-68,-48,-58,-87,-68,-68,-58
-78,-107,-29,92,-24,-68,-48,-58,-87,-68,-68,-58
-78,-107,-29,92,-24,-68,-39,-58,-78,-68,-68,-58
-78,-107,-29,92,-24,-68,-39,-58,-78,-68,-68,-58
-78,-107,-29,92,-24,-68,-39,-58,-78,-68,-68,-58
-78,-107,-29,92,-24,-68,-39,-58,-78,-68,-68,-58
-78,-107,-29,92,-24,-68,-39,-68,-78,-68,-68,-58
-78,-107,-29,92,-24,-68,-39,-68,-78,-68,-68,-58
-78,-107,-29,92,-24,-68,-39,-68,-78,-68,-68,-58
-78,-107,-29,92,-24,-68,-39,-68,-78,-68,-68,-58
-78,-107,-29,92,-24,-68,-48,-68,-87,-68,-68,-58
-78,-107,-29,92,-24,-68,-48,-68,-87,-68,-68,-58
-78,-107,-29,92,-24,-68,-48,-68,-87,-68,-68,-58
-78,-107,-29,92,-24,-68,-48,-68,-87,-68,-68,-58
-78,-107,-29,92,-24,-68,-48,-58,-87,-58,-68,-58
-78,-107,-29,92,-24,-68,-48,-58,-87,-58,-68,-58
-78,-107,-29,92,-24,-68,-48,-58,-87,-58,-68,-58
-78,-107,-29,92,-24,-68,-48,-58,-87,-58,-68,-58
-78,-107,-29,92,-24,-68,-39,-48,-78,-68,-68,-48
-78,-107,-29,92,-24,-68,-39,-48,-78,-68,-68,-48
-78,-107,-29,92,-24,-68,-39,-48,-78,-68,-68,-48
-78,-107,-29,92,-24,-68,-39,-48,-78,-68,-68,-48
-78,-107,-29,92,-24,-68,-39,-58,-78,-68,-68,-58
-78,-107,-29,92,-24,-68,-39,-58,-78,-68,-68,-58
-78,-107,-29,92,-24,-68,-39,-58,-78,-68,-68,-58
-78,-107,-29,92,-24,-68,-39,-58,-78,-68,-68,-58
-78,-107,-29,92,-24,-68,-48,-58,-87,-68,-68,-58
-78,-107,-29,92,-24,-68,-48,-58,-87,-68,-68,-58
-78,-107,-29,92,-24,-68,-48,-58,-87,-68,-68,-58
-78,-107,-29,92,-24,-68,-48,-58,-87,-68,-68,-58
-68,-107,-39,87,-14,-73,-48,-58,-87,-58,-58,-48
-68,-107,-39,87,-14,-73,-48,-58,-87,-58,-58,-48
-68,-107,-39,87,-14,-73,-48,-58,-87,-58,-58,-48
-68,-107,-39,87,-14,-73,-48,-58,-87,-58,-58,-48
-68,-107,-39,87,-14,-73,-48,-68,-87,-68,-58,-48
-68,-107,-39,87,-14,-73,-48,-68,-87,-68,-58,-48
-68,-107,-39,87,-14,-73,-48,-68,-87,-68,-58,-48
-68,-107,-39,87,-14,-73,-48,-68,-87,-68,-58,-48
-68,-97,-29,82,-19,-63,-48,-68,-87,-68,-58,-48
-68,-97,-29,82,-19,-63,-48,-68,-87,-68,-58,-48
-68,-97,-29,82,-19,-63,-48,-68,-87,-68,-58,-48
-68,-97,-29,82,-19,-63,-48,-68,-87,-68,-58,-48
-68,-87,-19,78,-24,-53,-39,-58,-87,-58,-58,-48
-68,-87,-19,78,-24,-53,-39,-58,-87,-58,-58,-48
-68,-87,-19,78,-24,-53,-39,-58,-87,-58,-58,-48
-68,-87,-19,78,-24,-53,-39,-58,-87,-58,-58,-48
-58,-78,-19,68,-19,-48,-29,-48,-82,-48,-48,-39
-58,-78,-19,68,-19,-48,-29,-48,-78,-48,-48,-39
-58,-78,-19,68,-19,-48,-29,-48,-73,-48,-48,-39
-58,-78,-19,68,-19,-48,-29,-48,-68,-48,-48,-39
-48,-63,-14,56,-17,-39,-24,-43,-63,-43,-39,-29
-48,-58,-9,53,-19,-34,-19,-39,-58,-39,-39,-29
-48,-53,-4,51,-21,-29,-14,-34,-53,-34,-39,-29
-48,-48,0,48,-24,-24,-9,-29,-48,-29,-39,-29
-39,-39,0,39,-19,-19,0,-19,-39,-19,-29,-19
-39,-39,0,39,-19,-19,0,-19,-39,-19,-29,-19
-39,-39,0,39,-19,-19,0,-19,-39,-19,-29,-19
-39,-39,0,39,-19,-19,0,-19,-39,-19,-29,-19
-29,-39,-9,34,-9,-24,4,-9,-29,-9,-29,-19
-29,-39,-9,34,-9,-24,9,-9,-29,-9,-29,-19
-29,-39,-9,34,-9,-24,14,-9,-29,-9,-29,-19
-29,-39,-9,34,-9,-24,19,-9,-29,-9,-29,-19
-19,-29,-9,24,-4,-19,19,-9,-19,0,-19,-9
-19,-29,-9,24,-4,-19,19,-9,-19,0,-19,-9
-19,-29,-9,24,-4,-19,19,-9,-19,0,-19,-9
-14,-24,-9,19,-2,-17,14,-9,-19,4,-14,-4
0,-9,-9,4,4,-9,9,-9,-9,4,-9,0
9,0,-9,-4,9,-4,0,-14,-9,4,-4,4
14,0,-14,-7,14,-7,-9,-14,-9,4,-4,9
14,0,-14,-7,14,-7,-19,-24,-9,4,-9,9
4,0,-4,-2,4,-2,-29,-19,-19,4,-9,9
9,0,-9,-4,9,-4,-39,-24,-29,-4,-14,4
9,-9,-19,0,14,-14,-39,-29,-34,-4,-14,4
9,-14,-24,2,17,-19,-43,-34,-34,-9,-14,4
9,-19,-29,4,19,-24,-53,-34,-29,-4,-19,-4
9,-24,-34,7,21,-29,-58,-34,-34,-4,-24,-4
14,-34,-48,9,31,-41,-63,-34,-39,-4,-24,-4
19,-39,-58,9,39,-48,-68,-34,-39,-4,-24,-4
19,-43,-63,12,41,-53,-68,-34,-39,-4,-14,4
19,-48,-68,14,43,-58,-73,-34,-43,-9,-14,4
19,-48,-68,14,43,-58,-73,-39,-48,-9,-14,4
19,-48,-68,14,43,-58,-73,-43,-48,-14,-19,4
29,-48,-78,9,53,-63,-63,-48,-48,-14,-19,0
29,-48,-78,9,53,-63,-68,-53,-48,-19,-19,0
24,-48,-73,12,48,-61,-68,-53,-58,-24,-24,0
14,-58,-73,21,43,-65,-68,-53,-58,-24,-24,-4
9,-53,-63,21,36,-58,-68,-58,-68,-24,-29,-9
0,-58,-58,29,29,-58,-63,-58,-73,-34,-34,-9
-9,-63,-53,36,21,-58,-58,-58,-73,-34,-39,-14
-19,-68,-48,43,14,-58,-58,-58,-73,-39,-43,-19
-29,-82,-53,56,12,-68,-58,-58,-73,-48,-43,-24
-34,-87,-53,61,9,-70,-53,-58,-73,-53,-43,-29
-43,-102,-58,73,7,-80,-53,-58,-73,-53,-48,-34
-48,-102,-53,75,2,-78,-53,-58,-73,-58,-53,-34
-63,-107,-43,85,-9,-75,-53,-63,-82,-63,-58,-39
-68,-112,-43,90,-12,-78,-53,-63,-87,-68,-63,-43
-73,-117,-43,95,-14,-80,-53,-68,-87,-73,-68,-48
-73,-122,-48,97,-12,-85,-53,-68,-92,-78,-73,-53
-73,-117,-43,95,-14,-80,-53,-68,-97,-68,-78,-58
-73,-122,-48,97,-12,-85,-58,-78,-97,-73,-78,-58
-82,-126,-43,104,-19,-85,-58,-78,-102,-78,-78,-63
-82,-131,-48,107,-17,-90,-58,-78,-102,-78,-82,-63
-82,-141,-58,112,-12,-100,-63,-78,-102,-87,-82,-68
-82,-141,-58,112,-12,-100,-63,-78,-102,-87,-82,-68
-82,-141,-58,112,-12,-100,-63,-78,-102,-87,-82,-68
-82,-141,-58,112,-12,-100,-63,-78,-102,-87,-82,-68
-82,-141,-58,112,-12,-100,-53,-68,-102,-78,-82,-68
-82,-141,-58,112,-12,-100,-48,-73,-102,-78,-82,-68
-82,-141,-58,112,-12,-100,-48,-73,-102,-78,-82,-68
-82,-141,-58,112,-12,-100,-48,-73,-102,-78,-82,-68
-87,-141,-53,114,-17,-97,-48,-78,-102,-87,-82,-68
-87,-141,-53,114,-17,-97,-43,-78,-102,-87,-82,-68
-87,-146,-58,117,-14,-102,-43,-78,-102,-87,-82,-68
-87,-146,-58,117,-14,-102,-43,-73,-102,-87,-82,-68
-87,-146,-58,117,-14,-102,-53,-73,-102,-87,-92,-78
-92,-146,-53,119,-19,-100,-53,-73,-102,-87,-92,-78
-92,-146,-53,119,-19,-100,-53,-73,-102,-87,-92,-78
-92,-146,-53,119,-19,-100,-53,-73,-102,-87,-92,-78
-92,-146,-53,119,-19,-100,-53,-73,-112,-87,-92,-78
-92,-146,-53,119,-19,-100,-48,-73,-112,-87,-92,-78
-92,-146,-53,119,-19,-100,-48,-73,-112,-87,-92,-78
-92,-146,-53,119,-19,-100,-48,-73,-112,-87,-92,-78
-92,-146,-53,119,-19,-100,-48,-73,-102,-87,-92,-78
-92,-146,-53,119,-19,-100,-48,-73,-102,-87,-92,-78
-92,-146,-53,119,-19,-100,-48,-73,-102,-87,-97,-78
-92,-146,-53,119,-19,-100,-48,-73,-102,-87,-97,-78
-97,-146,-48,122,-24,-97,-43,-73,-102,-87,-97,-78
-97,-146,-48,122,-24,-97,-43,-73,-102,-87,-97,-78
-97,-146,-48,122,-24,-97,-43,-73,-102,-87,-97,-78
-97,-146,-48,122,-24,-97,-43,-73,-102,-87,-97,-78
-97,-146,-48,122,-24,-97,-43,-73,-102,-87,-92,-78
-92,-146,-53,119,-19,-100,-43,-73,-102,-87,-92,-78
-92,-146,-53,119,-19,-100,-43,-73,-102,-87,-92,-78
-92,-146,-53,119,-19,-100,-43,-73,-102,-87,-97,-78
-97,-141,-43,119,-26,-92,-43,-73,-102,-78,-87,-68
-97,-146,-48,122,-24,-97,-34,-63,-102,-87,-97,-73
-102,-151,-48,126,-26,-100,-29,-58,-102,-97,-107,-87
-107,-156,-48,131,-29,-102,-9,-43,-102,-92,-102,-87
-122,-170,-48,146,-36,-109,9,-24,-102,-92,-117,-97
-126,-170,-43,148,-41,-107,24,0,-102,-102,-122,-107
-131,-185,-53,158,-39,-119,43,24,-97,-102,-126,-117
-141,-185,-43,163,-48,-114,78,63,-78,-92,-126,-122
-146,-185,-39,165,-53,-112,112,92,-53,-78,-117,-122
-151,-175,-24,163,-63,-100,151,136,-9,-48,-97,-117
-151,-161,-9,156,-70,-85,195,185,39,0,-68,-107
-136,-131,4,134,-70,-63,229,219,87,43,-34,-92
-117,-102,14,109,-65,-43,258,258,156,107,29,-58
-82,-58,24,70,-53,-17,258,278,219,175,82,-19
-34,-9,24,21,-29,7,239,278,283,244,146,29
39,39,0,-39,19,19,180,258,336,317,224,87
117,82,-34,-100,75,24,122,229,375,380,287,141
214,131,-82,-173,148,24,24,180,409,444,356,209
322,170,-151,-246,236,9,-87,141,434,497,424,278
439,219,-219,-329,329,0,-214,97,434,536,483,341
546,244,-302,-395,424,-29,-341,43,424,561,536,409
644,268,-375,-456,509,-53,-473,-34,385,575,570,453
712,278,-434,-495,573,-78,-590,-107,326,551,580,492
727,258,-468,-492,597,-104,-697,-219,219,473,541,502
712,229,-483,-470,597,-126,-785,-366,63,341,453,483
644,180,-463,-412,553,-141,-878,-536,-112,185,336,448
556,126,-429,-341,492,-151,-946,-717,-287,14,219,385
439,78,-361,-258,400,-141,-990,-883,-458,-156,78,322
322,29,-292,-175,307,-131,-995,-1010,-600,-312,-48,263
209,-14,-224,-97,217,-119,-985,-1102,-707,-434,-156,195
102,-43,-146,-29,124,-95,-961,-1151,-780,-522,-244,136
34,-53,-87,9,61,-70,-912,-1151,-800,-561,-297,102
-9,-53,-43,31,17,-48,-844,-1083,-756,-536,-287,82
-29,-53,-24,41,-2,-39,-756,-990,-688,-492,-268,68
-48,-43,4,46,-26,-19,-678,-883,-610,-448,-244,63
-53,-48,4,51,-29,-21,-585,-775,-546,-390,-224,48
-68,-53,14,61,-41,-19,-512,-668,-478,-346,-200,34
-73,-63,9,68,-41,-26,-439,-570,-419,-302,-175,19
-73,-78,-4,75,-34,-41,-370,-483,-361,-263,-161,4
-73,-92,-19,82,-26,-56,-317,-400,-317,-224,-151,0
-78,-107,-29,92,-24,-68,-258,-331,-268,-190,-136,0
-78,-122,-43,100,-17,-82,-209,-263,-229,-165,-122,-14
-78,-126,-48,102,-14,-87,-165,-195,-185,-131,-102,-24
-73,-136,-63,104,-4,-100,-131,-151,-161,-112,-97,-24
-73,-141,-68,107,-2,-104,-102,-112,-141,-97,-92,-34
-73,-141,-68,107,-2,-104,-82,-82,-112,-82,-78,-34
-68,-131,-63,100,-2,-97,-58,-63,-102,-73,-68,-39
-68,-122,-53,95,-7,-87,-34,-39,-78,-48,-58,-29
-68,-117,-48,92,-9,-82,-29,-29,-68,-48,-58,-34
-68,-112,-43,90,-12,-78,-14,-24,-63,-39,-53,-34
-68,-107,-39,87,-14,-73,0,-19,-58,-39,-48,-34
-68,-102,-34,85,-17,-68,4,-14,-48,-34,-53,-34
-82,-92,-9,87,-36,-51,14,-14,-48,-39,-53,-39
-82,-87,-4,85,-39,-46,14,-4,-43,-34,-53,-39
-82,-87,-4,85,-39,-46,19,-4,-39,-29,-53,-39
-82,-87,-4,85,-39,-46,24,0,-34,-29,-53,-39
-82,-87,-4,85,-39,-46,29,14,-29,-29,-53,-39
-82,-87,-4,85,-39,-46,34,19,-29,-24,-48,-43
-82,-87,-4,85,-39,-46,34,19,-29,-24,-48,-43
-82,-87,-4,85,-39,-46,34,19,-29,-24,-48,-43
-82,-97,-14,90,-34,-56,39,24,-24,-14,-39,-34
-82,-97,-14,90,-34,-56,43,24,-19,-9,-39,-34
-82,-92,-9,87,-36,-51,43,29,-19,-9,-39,-34
-82,-92,-9,87,-36,-51,43,29,-19,-9,-34,-34
-82,-92,-9,87,-36,-51,43,34,-19,0,-34,-34
-82,-92,-9,87,-36,-51,43,34,-9,4,-34,-34
-82,-92,-9,87,-36,-51,48,39,-9,4,-34,-34
-87,-92,-4,90,-41,-48,53,39,0,9,-34,-39
-78,-87,-9,82,-34,-48,43,39,0,0,-43,-39
-78,-87,-9,82,-34,-48,43,43,-4,0,-43,-39
-78,-87,-9,82,-34,-48,43,43,-4,0,-39,-39
-78,-87,-9,82,-34,-48,43,43,0,0,-39,-39
-78,-87,-9,82,-34,-48,43,34,0,0,-39,-39
-73,-87,-14,80,-29,-51,43,39,0,4,-39,-39
-73,-87,-14,80,-29,-51,48,39,0,4,-39,-39
-73,-87,-14,80,-29,-51,48,43,0,9,-39,-39
-73,-78,-4,75,-34,-41,53,43,4,9,-39,-39
-73,-78,-4,75,-34,-41,53,43,4,9,-39,-39
-73,-78,-4,75,-34,-41,53,48,9,9,-39,-39
-73,-78,-4,75,-34,-41,53,48,9,9,-39,-34
-73,-73,0,73,-36,-36,63,48,0,0,-39,-34
-73,-73,0,73,-36,-36,63,48,0,0,-34,-34
-73,-73,0,73,-36,-36,63,53,0,4,-34,-34
-73,-73,0,73,-36,-36,63,53,0,4,-34,-34
-73,-73,0,73,-36,-36,53,43,9,14,-34,-39
-73,-73,0,73,-36,-36,53,43,9,14,-34,-39
-68,-73,-4,70,-31,-39,58,48,9,14,-29,-39
-68,-68,0,68,-34,-34,58,48,9,19,-24,-39
-68,-68,0,68,-34,-34,58,58,14,19,-24,-29
-68,-68,0,68,-34,-34,58,58,14,24,-24,-29
-63,-63,0,63,-31,-31,63,58,14,24,-24,-29
-63,-63,0,63,-31,-31,63,63,14,24,-24,-29
-58,-63,-4,61,-26,-34,73,63,19,24,-19,-24
-58,-63,-4,61,-26,-34,73,63,19,24,-19,-24
-58,-63,-4,61,-26,-34,73,68,19,29,-19,-24
-58,-63,-4,61,-26,-34,73,68,24,29,-19,-24
-53,-63,-9,58,-21,-36,68,73,24,29,-24,-24
-53,-63,-9,58,-21,-36,68,78,24,29,-19,-24
-53,-63,-9,58,-21,-36,68,78,24,29,-19,-24
-48,-58,-9,53,-19,-34,68,78,29,34,-19,-24
-48,-58,-9,53,-19,-34,73,78,34,34,-19,-19
-48,-58,-9,53,-19,-34,73,87,34,34,-19,-19
-48,-58,-9,53,-19,-34,78,87,39,39,-14,-19
-48,-58,-9,53,-19,-34,78,87,39,39,-14,-19
-39,-43,-4,41,-17,-24,78,82,39,39,-14,-19
-39,-43,-4,41,-17,-24,78,82,39,39,-14,-19
-34,-43,-9,39,-12,-26,78,82,43,43,-14,-14
-34,-43,-9,39,-12,-26,78,92,43,43,-9,-14
-39,-48,-9,43,-14,-29,78,87,43,39,-9,-14
-39,-43,-4,41,-17,-24,78,87,43,39,-4,-9
-39,-39,0,39,-19,-19,78,97,43,48,-4,-9
-34,-39,-4,36,-14,-21,82,102,48,48,-4,-4
-34,-34,0,34,-17,-17,73,107,58,48,0,-14
-34,-34,0,34,-17,-17,73,112,63,53,4,-14
-29,-34,-4,31,-12,-19,73,117,63,53,4,-9
-29,-34,-4,31,-12,-19,78,117,73,58,4,-9
-24,-34,-9,29,-7,-21,92,126,73,58,19,9
-24,-29,-4,26,-9,-17,97,136,78,68,24,9
-19,-29,-9,24,-4,-19,97,146,82,68,29,9
-19,-29,-9,24,-4,-19,97,156,82,68,29,9
-9,-29,-19,19,4,-24,97,161,78,78,34,9
-4,-29,-24,17,9,-26,102,165,82,82,39,14
0,-19,-19,9,9,-19,102,170,87,87,39,14
0,-19,-19,9,9,-19,107,180,92,92,43,19
14,-19,-34,2,24,-26,107,180,97,92,48,19
14,-19,-34,2,24,-26,112,185,97,97,48,19
19,-9,-29,-4,24,-19,112,195,102,102,48,24
24,-4,-29,-9,26,-17,112,204,107,107,58,29
29,-4,-34,-12,31,-19,112,200,112,102,53,24
34,-4,-39,-14,36,-21,117,204,122,107,58,24
39,4,-34,-21,36,-14,122,209,126,112,58,24
43,9,-34,-26,39,-12,122,224,126,117,63,34
48,14,-34,-31,41,-9,126,224,136,122,68,39
53,19,-34,-36,43,-7,122,239,146,131,73,39
58,19,-39,-39,48,-9,122,248,151,136,82,43
63,24,-39,-43,51,-7,122,258,156,141,87,48
68,29,-39,-48,53,-4,131,268,161,156,92,63
73,34,-39,-53,56,-2,136,278,170,165,97,68
82,39,-43,-61,63,-2,136,278,175,170,102,68
87,39,-48,-63,68,-4,141,287,180,175,112,73
92,43,-48,-68,70,-2,141,297,195,175,117,78
97,48,-48,-73,73,0,141,302,195,190,122,82
112,53,-58,-82,85,-2,146,312,209,195,126,87
112,58,-53,-85,82,2,146,322,214,204,136,87
126,63,-63,-95,95,0,136,331,224,214,141,92
136,68,-68,-102,102,0,141,341,229,214,151,97
146,73,-73,-109,109,0,146,346,234,219,161,102
151,78,-73,-114,112,2,146,361,248,234,170,112
151,82,-68,-117,109,7,136,366,244,239,161,102
161,87,-73,-124,117,7,141,370,258,244,170,112
170,92,-78,-131,124,7,141,385,258,258,180,117
180,97,-82,-139,131,7,141,390,263,258,185,122
185,92,-92,-139,139,0,151,395,273,268,185,117
195,97,-97,-146,146,0,151,400,273,278,195,122
204,107,-97,-156,151,4,151,405,278,283,204,126
214,112,-102,-163,158,4,151,409,283,287,204,131
224,117,-107,-170,165,4,151,424,292,283,224,146
234,122,-112,-178,173,4,151,429,297,292,229,151
239,122,-117,-180,178,2,146,429,302,297,234,156
248,126,-122,-187,185,2,141,429,302,302,239,161
253,131,-122,-192,187,4,141,429,302,307,244,165
258,136,-122,-197,190,7,136,429,312,312,248,175
263,136,-126,-200,195,4,131,429,312,317,253,180
273,131,-141,-202,207,-4,126,429,312,317,258,185
278,131,-146,-204,212,-7,131,434,312,317,263,190
283,136,-146,-209,214,-4,126,434,312,317,268,195
287,141,-146,-214,217,-2,122,424,312,322,268,195
287,141,-146,-214,217,-2,117,419,312,322,268,200
287,141,-146,-214,217,-2,107,419,307,322,268,200
292,141,-151,-217,222,-4,97,414,302,322,268,200
292,141,-151,-217,222,-4,97,405,302,322,268,200
292,141,-151,-217,222,-4,82,395,297,317,268,200
292,151,-141,-222,217,4,87,385,292,312,263,200
292,151,-141,-222,217,4,78,366,278,307,258,200
283,146,-136,-214,209,4,73,351,268,297,253,190
278,136,-141,-207,209,-2,68,336,258,287,248,185
268,136,-131,-202,200,2,63,331,258,287,244,180
258,131,-126,-195,192,2,58,312,248,278,229,175
248,126,-122,-187,185,2,48,297,239,268,219,170
239,117,-122,-178,180,-2,43,283,229,258,209,165
229,102,-126,-165,178,-12,48,268,219,244,200,170
219,97,-122,-158,170,-12,43,253,204,234,190,156
200,87,-112,-143,156,-12,39,229,190,219,180,146
185,78,-107,-131,146,-14,39,219,175,204,161,141
185,68,-117,-126,151,-24,34,195,170,190,146,122
170,58,-112,-114,141,-26,29,175,156,175,136,112
156,53,-102,-104,129,-24,24,161,146,161,122,107
141,43,-97,-92,119,-26,19,146,131,146,107,97
122,43,-78,-82,100,-17,14,141,122,141,92,97
112,34,-78,-73,95,-21,9,126,102,126,87,87
102,24,-78,-63,90,-26,9,112,97,112,73,78
92,19,-73,-56,82,-26,9,97,87,107,63,68
73,19,-53,-46,63,-17,4,92,78,82,53,58
68,9,-58,-39,63,-24,0,78,68,78,43,53
58,0,-58,-29,58,-29,0,63,58,63,29,43
48,-9,-58,-19,53,-34,-4,58,48,53,19,34
39,-19,-58,-9,48,-39,-9,48,39,53,19,34
29,-24,-53,-2,41,-39,-9,39,29,43,9,24
19,-24,-43,2,31,-34,-9,29,29,34,9,24
9,-29,-39,9,24,-34,-9,24,14,24,-4,19
4,-43,-48,19,26,-46,-9,19,14,19,-14,14
0,-48,-48,24,24,-48,-9,14,9,19,-14,9
-14,-53,-39,34,12,-46,-9,4,0,4,-24,0
-14,-53,-39,34,12,-46,-14,4,-4,4,-24,-4
-19,-53,-34,36,7,-43,-14,0,-9,0,-34,-19
-24,-63,-39,43,7,-51,-14,-4,-14,-4,-39,-24
-29,-68,-39,48,4,-53,-14,-14,-24,-14,-43,-24
-34,-73,-39,53,2,-56,-14,-24,-29,-19,-48,-29
-39,-78,-39,58,0,-58,-14,-24,-34,-24,-53,-29
-39,-78,-39,58,0,-58,-14,-29,-39,-29,-58,-29
-43,-78,-34,61,-4,-56,-14,-29,-39,-29,-58,-39
-43,-78,-34,61,-4,-56,-14,-34,-43,-34,-63,-39
-43,-87,-43,65,0,-65,-14,-39,-43,-43,-63,-39
-48,-92,-43,70,-2,-68,-19,-39,-43,-43,-63,-39
-48,-92,-43,70,-2,-68,-19,-39,-53,-48,-68,-43
-48,-92,-43,70,-2,-68,-19,-43,-53,-48,-68,-43
-53,-97,-43,75,-4,-70,-19,-34,-53,-43,-68,-34
-53,-97,-43,75,-4,-70,-19,-34,-53,-48,-73,-34
-53,-97,-43,75,-4,-70,-24,-34,-53,-48,-73,-34
-53,-97,-43,75,-4,-70,-24,-39,-58,-48,-73,-39
-58,-92,-34,75,-12,-63,-14,-39,-58,-48,-68,-39
-58,-92,-34,75,-12,-63,-14,-39,-58,-48,-68,-39
-58,-97,-39,78,-9,-68,-14,-39,-63,-53,-68,-39
-58,-97,-39,78,-9,-68,-19,-39,-63,-53,-68,-39
-58,-97,-39,78,-9,-68,-19,-48,-63,-53,-78,-39
-58,-97,-39,78,-9,-68,-19,-48,-63,-53,-78,-39
-58,-97,-39,78,-9,-68,-19,-48,-63,-53,-78,-43
-58,-97,-39,78,-9,-68,-19,-48,-63,-53,-78,-43
-58,-97,-39,78,-9,-68,-19,-48,-63,-53,-68,-43
-58,-97,-39,78,-9,-68,-19,-48,-63,-53,-68,-43
-58,-92,-34,75,-12,-63,-19,-48,-63,-53,-68,-43
-58,-92,-34,75,-12,-63,-19,-48,-63,-53,-73,-43
-58,-92,-34,75,-12,-63,-29,-43,-68,-53,-73,-39
-58,-92,-34,75,-12,-63,-29,-43,-68,-53,-73,-39
-58,-92,-34,75,-12,-63,-29,-43,-68,-53,-73,-39
-58,-87,-29,73,-14,-58,-29,-43,-68,-53,-73,-39
-68,-97,-29,82,-19,-63,-19,-43,-63,-53,-73,-48
-68,-97,-29,82,-19,-63,-19,-39,-63,-53,-73,-48
-68,-97,-29,82,-19,-63,-19,-39,-63,-53,-73,-48
-68,-97,-29,82,-19,-63,-19,-39,-63,-53,-73,-48
-68,-92,-24,80,-21,-58,-19,-39,-63,-53,-73,-39
-68,-92,-24,80,-21,-58,-19,-39,-63,-53,-73,-39
-73,-97,-24,85,-24,-61,-19,-39,-63,-53,-73,-39
-73,-97,-24,85,-24,-61,-19,-39,-63,-53,-73,-39
-63,-97,-34,80,-14,-65,-19,-39,-53,-53,-73,-39
-63,-92,-29,78,-17,-61,-19,-39,-53,-53,-68,-39
-63,-92,-29,78,-17,-61,-19,-39,-53,-53,-68,-39
-63,-92,-29,78,-17,-61,-19,-39,-53,-53,-68,-39
-63,-92,-29,78,-17,-61,-9,-39,-53,-43,-68,-48
-63,-92,-29,78,-17,-61,-9,-39,-53,-43,-68,-48
-58,-92,-34,75,-12,-63,-9,-39,-53,-43,-68,-48
-58,-92,-34,75,-12,-63,-9,-34,-53,-43,-68,-48
-68,-82,-14,75,-26,-48,-19,-43,-43,-43,-68,-48
-68,-82,-14,75,-26,-48,-19,-43,-43,-43,-68,-48
-68,-82,-14,75,-26,-48,-14,-43,-43,-43,-73,-48
-68,-82,-14,75,-26,-48,-14,-43,-43,-39,-73,-48
-68,-92,-24,80,-21,-58,-14,-39,-48,-39,-63,-39
-68,-92,-24,80,-21,-58,-14,-39,-48,-39,-63,-39
-68,-92,-24,80,-21,-58,-14,-39,-48,-39,-63,-39
-68,-87,-19,78,-24,-53,-14,-39,-48,-39,-58,-39
-68,-97,-29,82,-19,-63,-4,-39,-48,-39,-58,-34
-68,-97,-29,82,-19,-63,-4,-39,-43,-39,-58,-34
-68,-97,-29,82,-19,-63,0,-39,-43,-39,-58,-34
-68,-97,-29,82,-19,-63,0,-39,-43,-39,-53,-29
-58,-87,-29,73,-14,-58,0,-39,-43,-39,-53,-39
-58,-87,-29,73,-14,-58,0,-39,-43,-34,-53,-39
-63,-87,-24,75,-19,-56,0,-39,-43,-34,-53,-39
-63,-87,-24,75,-19,-56,0,-39,-43,-34,-53,-39
-63,-87,-24,75,-19,-56,-9,-48,-39,-34,-63,-39
-63,-87,-24,75,-19,-56,-9,-48,-39,-34,-63,-39
-63,-87,-24,75,-19,-56,-9,-48,-39,-34,-63,-39
-63,-87,-24,75,-19,-56,-9,-48,-39,-34,-63,-43
-63,-87,-24,75,-19,-56,-9,-48,-48,-43,-63,-34
-63,-82,-19,73,-21,-51,-9,-48,-48,-43,-63,-34
-63,-82,-19,73,-21,-51,-9,-48,-48,-39,-63,-34
-63,-82,-19,73,-21,-51,-9,-53,-43,-39,-58,-34
-58,-82,-24,70,-17,-53,-19,-43,-43,-39,-58,-29
-58,-82,-24,70,-17,-53,-14,-43,-43,-39,-58,-29
-58,-82,-24,70,-17,-53,-9,-43,-43,-39,-58,-29
-58,-82,-24,70,-17,-53,-9,-39,-43,-39,-58,-29
-58,-82,-24,70,-17,-53,-9,-48,-43,-39,-58,-39
-58,-82,-24,70,-17,-53,-14,-48,-43,-39,-58,-39
-58,-82,-24,70,-17,-53,-19,-48,-43,-39,-58,-39
-58,-82,-24,70,-17,-53,-19,-48,-43,-39,-58,-39
-58,-92,-34,75,-12,-63,-19,-39,-43,-48,-58,-29
-58,-92,-34,75,-12,-63,-19,-39,-43,-43,-58,-29
-58,-92,-34,75,-12,-63,-19,-39,-43,-43,-58,-29
-58,-92,-34,75,-12,-63,-19,-39,-43,-43,-58,-29
-68,-92,-24,80,-21,-58,-19,-39,-43,-43,-58,-29
-68,-92,-24,80,-21,-58,-19,-39,-43,-43,-58,-29
-68,-92,-24,80,-21,-58,-19,-39,-43,-48,-58,-29
-68,-92,-24,80,-21,-58,-19,-39,-43,-48,-58,-29
-68,-92,-24,80,-21,-58,-19,-39,-43,-39,-58,-39
-68,-92,-24,80,-21,-58,-19,-39,-43,-39,-58,-39
-68,-92,-24,80,-21,-58,-19,-39,-43,-39,-58,-39
-68,-92,-24,80,-21,-58,-19,-39,-43,-39,-58,-39
-68,-92,-24,80,-21,-58,-9,-39,-43,-39,-58,-39
-68,-92,-24,80,-21,-58,-9,-39,-43,-39,-58,-39
-68,-92,-24,80,-21,-58,-9,-39,-43,-39,-58,-39
-68,-92,-24,80,-21,-58,-9,-39,-43,-39,-63,-39
-58,-92,-34,75,-12,-63,-9,-39,-48,-39,-53,-39
-58,-92,-34,75,-12,-63,-9,-39,-48,-39,-53,-39
-58,-92,-34,75,-12,-63,-9,-39,-48,-39,-53,-39
-58,-92,-34,75,-12,-63,-9,-39,-48,-39,-53,-39
-68,-92,-24,80,-21,-58,-19,-39,-48,-48,-63,-39
-68,-97,-29,82,-19,-63,-19,-39,-48,-48,-63,-39
-68,-97,-29,82,-19,-63,-19,-43,-48,-48,-63,-39
-68,-97,-29,82,-19,-63,-19,-43,-48,-48,-63,-39
-68,-97,-29,82,-19,-63,-19,-43,-48,-43,-63,-39
-68,-97,-29,82,-19,-63,-19,-43,-48,-43,-63,-39
-68,-97,-29,82,-19,-63,-24,-43,-53,-43,-63,-39
-68,-97,-29,82,-19,-63,-24,-43,-53,-43,-63,-43
-68,-97,-29,82,-19,-63,-24,-43,-53,-53,-63,-43
-68,-97,-29,82,-19,-63,-24,-43,-53,-53,-63,-43
-68,-97,-29,82,-19,-63,-24,-43,-53,-53,-63,-43
-68,-97,-29,82,-19,-63,-24,-43,-53,-53,-68,-43
-68,-97,-29,82,-19,-63,-24,-53,-53,-53,-68,-53
-68,-97,-29,82,-19,-63,-24,-53,-53,-58,-68,-53
-68,-97,-29,82,-19,-63,-24,-53,-53,-58,-68,-53
-68,-97,-29,82,-19,-63,-24,-53,-53,-58,-68,-58
-68,-97,-29,82,-19,-63,-24,-43,-53,-48,-68,-48
-68,-102,-34,85,-17,-68,-24,-43,-53,-48,-73,-48
-68,-102,-34,85,-17,-68,-24,-48,-58,-48,-73,-48
-73,-102,-29,87,-21,-65,-24,-48,-58,-53,-73,-48
-73,-102,-29,87,-21,-65,-24,-39,-58,-53,-63,-48
-73,-102,-29,87,-21,-65,-24,-39,-58,-53,-63,-48
-73,-102,-29,87,-21,-65,-24,-39,-58,-53,-63,-48
-78,-102,-24,90,-26,-63,-19,-39,-58,-53,-63,-48
-68,-102,-34,85,-17,-68,-19,-48,-58,-53,-63,-39
-68,-102,-34,85,-17,-68,-19,-43,-58,-53,-63,-39
-68,-107,-39,87,-14,-73,-19,-43,-63,-53,-63,-39
-68,-107,-39,87,-14,-73,-19,-48,-68,-53,-63,-39
-68,-107,-39,87,-14,-73,-19,-48,-58,-63,-63,-39
-68,-107,-39,87,-14,-73,-24,-53,-58,-63,-68,-39
-63,-107,-43,85,-9,-75,-24,-53,-58,-63,-68,-39
-63,-107,-43,85,-9,-75,-24,-53,-58,-63,-68,-43
-68,-117,-48,92,-9,-82,-24,-53,-68,-63,-68,-53
-68,-117,-48,92,-9,-82,-29,-53,-68,-63,-73,-53
-68,-117,-48,92,-9,-82,-29,-53,-68,-63,-73,-53
-68,-117,-48,92,-9,-82,-29,-53,-68,-63,-73,-53
-78,-117,-39,97,-19,-78,-19,-53,-68,-63,-73,-53
-78,-117,-39,97,-19,-78,-19,-53,-68,-63,-73,-53
-78,-117,-39,97,-19,-78,-19,-53,-68,-63,-73,-53
-78,-117,-39,97,-19,-78,-19,-53,-73,-68,-73,-53
-78,-107,-29,92,-24,-68,-29,-48,-73,-68,-73,-53
-78,-107,-29,92,-24,-68,-29,-48,-73,-68,-73,-53
-78,-112,-34,95,-21,-73,-29,-48,-73,-73,-78,-53
-78,-112,-34,95,-21,-73,-29,-48,-73,-73,-78,-53
-82,-102,-19,92,-31,-61,-29,-58,-73,-73,-78,-53
-82,-102,-19,92,-31,-61,-29,-58,-73,-73,-78,-53
-82,-102,-19,92,-31,-61,-29,-58,-73,-73,-78,-53
-82,-102,-19,92,-31,-61,-29,-58,-73,-73,-78,-53
-73,-112,-39,92,-17,-75,-29,-53,-73,-73,-78,-53
-73,-112,-39,92,-17,-75,-29,-53,-73,-73,-78,-58
-73,-112,-39,92,-17,-75,-29,-53,-73,-73,-78,-58
-73,-112,-39,92,-17,-75,-29,-53,-73,-73,-78,-58
-73,-112,-39,92,-17,-75,-29,-53,-73,-68,-68,-48
-73,-112,-39,92,-17,-75,-29,-53,-73,-68,-73,-48
-73,-112,-39,92,-17,-75,-29,-53,-73,-68,-73,-48
-73,-112,-39,92,-17,-75,-29,-53,-78,-68,-73,-48
-78,-112,-34,95,-21,-73,-29,-58,-78,-78,-82,-58
-78,-112,-34,95,-21,-73,-29,-58,-78,-73,-82,-58
-78,-112,-34,95,-21,-73,-29,-58,-78,-73,-82,-58
-78,-112,-34,95,-21,-73,-29,-58,-73,-73,-82,-58
-78,-112,-34,95,-21,-73,-19,-58,-73,-63,-82,-58
-78,-112,-34,95,-21,-73,-19,-58,-73,-63,-82,-58
-78,-112,-34,95,-21,-73,-19,-58,-73,-63,-82,-58
-78,-112,-34,95,-21,-73,-19,-58,-73,-63,-82,-58
-78,-112,-34,95,-21,-73,-19,-58,-73,-68,-82,-58
-78,-112,-34,95,-21,-73,-19,-58,-73,-68,-82,-58
-78,-117,-39,97,-19,-78,-24,-58,-73,-68,-82,-58
-78,-117,-39,97,-19,-78,-24,-58,-73,-68,-82,-58
-78,-107,-29,92,-24,-68,-34,-73,-78,-78,-82,-58
-78,-107,-29,92,-24,-68,-34,-73,-78,-78,-82,-58
-78,-107,-29,92,-24,-68,-34,-73,-78,-78,-82,-58
-78,-107,-29,92,-24,-68,-34,-73,-78,-78,-82,-58
-78,-107,-29,92,-24,-68,-34,-63,-73,-68,-73,-58
-78,-107,-29,92,-24,-68,-34,-63,-73,-68,-73,-58
-78,-107,-29,92,-24,-68,-34,-63,-73,-68,-73,-58
-78,-107,-29,92,-24,-68,-34,-58,-73,-68,-73,-58
-78,-117,-39,97,-19,-78,-34,-48,-78,-78,-82,-58
-78,-117,-39,97,-19,-78,-34,-48,-78,-78,-82,-63
-78,-117,-39,97,-19,-78,-34,-48,-78,-78,-82,-63
-78,-117,-39,97,-19,-78,-34,-48,-78,-78,-82,-63
-78,-126,-48,102,-14,-87,-34,-58,-87,-78,-87,-63
-78,-126,-48,102,-14,-87,-34,-58,-87,-78,-87,-63
-78,-126,-48,102,-14,-87,-34,-58,-87,-78,-87,-63
-78,-126,-48,102,-14,-87,-34,-58,-92,-78,-87,-63
-78,-126,-48,102,-14,-87,-24,-48,-82,-78,-82,-53
-87,-126,-39,107,-24,-82,-24,-53,-82,-78,-82,-53
-78,-126,-48,102,-14,-87,-24,-53,-82,-78,-82,-53
-82,-126,-43,104,-19,-85,-24,-43,-73,-78,-82,-53
-78,-126,-48,102,-14,-87,-29,-48,-78,-78,-78,-58
-87,-126,-39,107,-24,-82,-29,-58,-78,-78,-78,-58
-87,-126,-39,107,-24,-82,-29,-58,-78,-78,-78,-58
-87,-126,-39,107,-24,-82,-29,-58,-78,-78,-78,-58
-87,-126,-39,107,-24,-82,-29,-58,-78,-78,-78,-58
-78,-117,-39,97,-19,-78,-29,-58,-78,-78,-78,-58
-78,-117,-39,97,-19,-78,-29,-58,-78,-78,-78,-58
-78,-117,-39,97,-19,-78,-29,-58,-78,-78,-78,-58
-78,-117,-39,97,-19,-78,-29,-58,-78,-78,-78,-58
-78,-117,-39,97,-19,-78,-29,-48,-78,-78,-78,-58
-78,-117,-39,97,-19,-78,-29,-48,-78,-78,-78,-58
-78,-117,-39,97,-19,-78,-29,-48,-78,-78,-78,-58
-78,-117,-39,97,-19,-78,-29,-48,-78,-78,-78,-58
-78,-117,-39,97,-19,-78,-29,-58,-87,-78,-78,-68
-78,-117,-39,97,-19,-78,-29,-58,-87,-78,-78,-68
-78,-117,-39,97,-19,-78,-29,-58,-87,-78,-78,-68
-78,-117,-39,97,-19,-78,-29,-58,-87,-78,-78,-68
-78,-117,-39,97,-19,-78,-29,-58,-87,-78,-78,-68
-78,-117,-39,97,-19,-78,-29,-58,-87,-78,-78,-68
-78,-117,-39,97,-19,-78,-29,-58,-87,-78,-78,-68
-78,-117,-39,97,-19,-78,-29,-58,-87,-78,-78,-68
-78,-117,-39,97,-19,-78,-29,-58,-87,-78,-78,-68
-78,-117,-39,97,-19,-78,-29,-58,-87,-78,-78,-68
-78,-117,-39,97,-19,-78,-29,-58,-87,-78,-78,-68
-78,-117,-39,97,-19,-78,-29,-58,-87,-78,-78,-68
-87,-107,-19,97,-34,-63,-29,-58,-78,-78,-78,-68
-87,-107,-19,97,-34,-63,-29,-58,-78,-78,-78,-68
-87,-107,-19,97,-34,-63,-29,-58,-78,-78,-78,-68
-87,-107,-19,97,-34,-63,-29,-58,-78,-78,-78,-68
-78,-117,-39,97,-19,-78,-29,-48,-78,-78,-78,-68
-78,-117,-39,97,-19,-78,-29,-48,-78,-78,-78,-68
-78,-117,-39,97,-19,-78,-29,-48,-78,-78,-78,-68
-78,-117,-39,97,-19,-78,-29,-48,-78,-78,-78,-68
-78,-126,-48,102,-14,-87,-29,-48,-78,-78,-78,-68
-78,-126,-48,102,-14,-87,-29,-48,-78,-78,-78,-68
-78,-126,-48,102,-14,-87,-29,-48,-78,-78,-78,-68
-78,-126,-48,102,-14,-87,-29,-48,-78,-78,-78,-68
-87,-117,-29,102,-29,-73,-39,-53,-87,-78,-78,-68
-87,-117,-29,102,-29,-73,-39,-58,-87,-78,-78,-68
-87,-117,-29,102,-29,-73,-39,-63,-87,-78,-78,-68
-87,-117,-29,102,-29,-73,-39,-68,-87,-78,-78,-68
-87,-117,-29,102,-29,-73,-29,-58,-87,-78,-78,-68
-87,-117,-29,102,-29,-73,-29,-58,-87,-78,-78,-68
-87,-117,-29,102,-29,-73,-29,-58,-87,-78,-78,-68
-87,-117,-29,102,-29,-73,-29,-58,-87,-78,-78,-68
-78,-117,-39,97,-19,-78,-29,-58,-87,-78,-78,-68
-78,-117,-39,97,-19,-78,-29,-58,-87,-78,-78,-68
-78,-117,-39,97,-19,-78,-29,-58,-87,-78,-78,-68
-78,-117,-39,97,-19,-78,-29,-58,-87,-78,-78,-68
-78,-117,-39,97,-19,-78,-29,-48,-78,-68,-78,-58
-78,-117,-39,97,-19,-78,-29,-48,-78,-68,-78,-58
-78,-117,-39,97,-19,-78,-29,-48,-78,-68,-78,-58
-78,-117,-39,97,-19,-78,-29,-48,-78,-68,-78,-58
-78,-117,-39,97,-19,-78,-29,-58,-78,-68,-68,-58
-78,-117,-39,97,-19,-78,-29,-58,-78,-68,-68,-58
-78,-117,-39,97,-19,-78,-29,-58,-78,-68,-68,-58
-78,-117,-39,97,-19,-78,-29,-58,-78,-68,-68,-58
-87,-117,-29,102,-29,-73,-29,-58,-87,-78,-68,-58
-87,-117,-29,102,-29,-73,-29,-58,-87,-78,-68,-58
-87,-117,-29,102,-29,-73,-29,-58,-87,-78,-68,-58
-87,-117,-29,102,-29,-73,-29,-58,-87,-78,-68,-58
-87,-126,-39,107,-24,-82,-29,-58,-87,-78,-68,-58
-87,-126,-39,107,-24,-82,-29,-58,-87,-78,-68,-58
-87,-126,-39,107,-24,-82,-29,-58,-87,-78,-68,-58
-87,-126,-39,107,-24,-82,-29,-58,-87,-78,-68,-58
-87,-117,-29,102,-29,-73,-19,-48,-78,-68,-68,-48
-87,-117,-29,102,-29,-73,-19,-48,-78,-68,-68,-48
-87,-117,-29,102,-29,-73,-19,-48,-78,-68,-68,-48
-87,-117,-29,102,-29,-73,-19,-48,-78,-68,-68,-48
-78,-112,-34,95,-21,-73,-9,-48,-68,-58,-68,-58
-78,-107,-29,92,-24,-68,-9,-48,-68,-58,-68,-58
-78,-102,-24,90,-26,-63,-9,-48,-68,-58,-68,-58
-78,-97,-19,87,-29,-58,-9,-48,-68,-58,-68,-58
-68,-92,-24,80,-21,-58,0,-39,-58,-48,-63,-48
-68,-87,-19,78,-24,-53,0,-39,-58,-48,-58,-48
-68,-82,-14,75,-26,-48,0,-39,-58,-48,-53,-48
-68,-78,-9,73,-29,-43,0,-39,-58,-48,-48,-48
-58,-73,-14,65,-21,-43,9,-34,-48,-43,-39,-39
-58,-68,-9,63,-24,-39,9,-29,-48,-39,-39,-39
-58,-63,-4,61,-26,-34,9,-24,-48,-34,-39,-39
-58,-58,0,58,-29,-29,9,-19,-48,-29,-39,-39
-48,-48,0,48,-24,-24,19,-14,-39,-29,-39,-39
-48,-48,0,48,-24,-24,19,-9,-39,-29,-39,-39
-48,-48,0,48,-24,-24,19,-4,-39,-29,-39,-39
-48,-48,0,48,-24,-24,19,0,-39,-29,-39,-39
-48,-58,-9,53,-19,-34,24,4,-29,-19,-29,-39
-48,-58,-9,53,-19,-34,29,9,-29,-19,-29,-39
-48,-58,-9,53,-19,-34,34,14,-29,-19,-29,-39
-48,-58,-9,53,-19,-34,39,19,-29,-19,-29,-39
-43,-53,-9,48,-17,-31,29,19,-24,-14,-19,-29
-39,-48,-9,43,-14,-29,29,19,-19,-9,-19,-29
-29,-39,-9,34,-9,-24,24,19,-14,0,-14,-24
-19,-19,0,19,-9,-9,19,19,-9,4,-9,-19
-9,0,9,4,-9,4,19,14,0,14,4,-4
-4,0,4,2,-4,2,9,14,0,14,4,0
-4,0,4,2,-4,2,0,4,0,14,0,0
-4,0,4,2,-4,2,-9,0,0,14,0,0
0,0,0,0,0,0,-19,-4,-19,4,-4,-4
0,-9,-9,4,4,-9,-19,-9,-24,4,-4,-4
0,-14,-14,7,7,-14,-24,-14,-24,0,-4,-4
0,-19,-19,9,9,-19,-34,-14,-29,-4,-9,-4
0,-24,-24,12,12,-24,-39,-24,-34,-14,-14,-4
4,-34,-39,14,21,-36,-43,-24,-39,-14,-14,-4
9,-39,-48,14,29,-43,-48,-24,-39,-14,-14,-4
9,-43,-53,17,31,-48,-48,-24,-39,-14,-14,-4
9,-39,-48,14,29,-43,-53,-24,-43,-19,-24,-14
9,-39,-48,14,29,-43,-53,-29,-48,-19,-24,-14
9,-39,-48,14,29,-43,-53,-34,-48,-24,-29,-14
9,-39,-48,14,29,-43,-53,-39,-48,-24,-29,-19
9,-43,-53,17,31,-48,-58,-43,-58,-39,-29,-19
4,-48,-53,21,29,-51,-58,-43,-68,-43,-34,-19
-4,-63,-58,34,26,-61,-58,-43,-68,-43,-34,-24
-9,-73,-63,41,26,-68,-58,-48,-68,-43,-39,-29
-19,-78,-58,48,19,-68,-53,-48,-73,-43,-34,-29
-29,-82,-53,56,12,-68,-48,-48,-73,-43,-39,-34
-39,-87,-48,63,4,-68,-48,-48,-73,-48,-43,-39
-48,-92,-43,70,-2,-68,-39,-48,-82,-48,-43,-43
-53,-97,-43,75,-4,-70,-34,-39,-73,-53,-43,-48
-63,-112,-48,87,-7,-80,-34,-39,-73,-53,-48,-53
-68,-112,-43,90,-12,-78,-34,-39,-73,-58,-53,-53
-73,-117,-43,95,-14,-80,-34,-43,-82,-63,-58,-58
-87,-122,-34,104,-26,-78,-34,-43,-87,-68,-63,-63
-92,-126,-34,109,-29,-80,-34,-48,-87,-73,-68,-68
-92,-131,-39,112,-26,-85,-34,-48,-92,-78,-73,-73
-92,-136,-43,114,-24,-90,-34,-48,-97,-78,-78,-78
-82,-131,-48,107,-17,-90,-39,-68,-97,-82,-87,-78
-92,-136,-43,114,-24,-90,-39,-68,-102,-87,-87,-82
-92,-141,-48,117,-21,-95,-39,-68,-102,-87,-92,-82
-92,-141,-48,117,-21,-95,-43,-68,-102,-87,-92,-87
-92,-131,-39,112,-26,-85,-43,-78,-112,-87,-92,-87
-92,-131,-39,112,-26,-85,-43,-78,-112,-87,-92,-87
-92,-131,-39,112,-26,-85,-43,-78,-112,-87,-92,-87
-92,-131,-39,112,-26,-85,-43,-78,-112,-87,-92,-87
-92,-131,-39,112,-26,-85,-39,-73,-112,-87,-92,-87
-92,-131,-39,112,-26,-85,-39,-73,-112,-87,-92,-87
-92,-131,-39,112,-26,-85,-39,-73,-112,-87,-92,-87
-97,-131,-34,114,-31,-82,-39,-68,-112,-87,-92,-87
-107,-141,-34,124,-36,-87,-34,-58,-102,-87,-92,-97
-107,-146,-39,126,-34,-92,-34,-58,-102,-87,-92,-97
-107,-146,-39,126,-34,-92,-34,-53,-102,-87,-92,-97
-107,-146,-39,126,-34,-92,-34,-53,-102,-87,-92,-97
-112,-156,-43,134,-34,-100,-34,-53,-102,-87,-92,-97
-112,-156,-43,134,-34,-100,-34,-53,-102,-87,-92,-97
-112,-156,-43,134,-34,-100,-34,-53,-102,-87,-92,-97
-112,-156,-43,134,-34,-100,-34,-53,-102,-87,-92,-97
-112,-156,-43,134,-34,-100,-29,-53,-112,-87,-92,-87
-112,-156,-43,134,-34,-100,-29,-53,-112,-87,-92,-87
-112,-156,-43,134,-34,-100,-29,-53,-112,-87,-92,-87
-112,-156,-43,134,-34,-100,-29,-53,-112,-87,-92,-87
-112,-156,-43,134,-34,-100,-29,-63,-112,-87,-92,-87
-112,-156,-43,134,-34,-100,-29,-63,-112,-87,-97,-87
-112,-156,-43,134,-34,-100,-29,-63,-112,-87,-97,-87
-117,-156,-39,136,-39,-97,-24,-63,-112,-87,-97,-87
-107,-156,-48,131,-29,-102,-24,-63,-102,-87,-97,-87
-107,-156,-48,131,-29,-102,-24,-63,-102,-87,-97,-87
-107,-156,-48,131,-29,-102,-24,-63,-102,-87,-97,-87
-107,-156,-48,131,-29,-102,-24,-63,-102,-87,-92,-87
-112,-156,-43,134,-34,-100,-24,-53,-102,-87,-92,-87
-102,-146,-43,124,-29,-95,-24,-63,-102,-87,-92,-87
-112,-146,-34,129,-39,-90,-24,-53,-102,-97,-97,-87
-107,-151,-43,129,-31,-97,-14,-53,-102,-87,-87,-87
-107,-156,-48,131,-29,-102,-14,-53,-102,-97,-97,-102
-122,-161,-39,141,-41,-100,9,-29,-102,-97,-97,-107
-126,-165,-39,146,-43,-102,19,-14,-102,-102,-102,-107
-131,-180,-48,156,-41,-114,39,4,-102,-102,-117,-117
-146,-190,-43,168,-51,-117,63,39,-92,-102,-122,-126
-151,-195,-43,173,-53,-119,82,53,-87,-102,-126,-146
-161,-204,-43,183,-58,-124,107,92,-68,-102,-126,-151
-165,-214,-48,190,-58,-131,141,131,-53,-87,-117,-151
-170,-204,-34,187,-68,-119,170,165,-19,-58,-107,-156
-170,-190,-19,180,-75,-104,214,224,29,-19,-78,-146
-165,-170,-4,168,-80,-87,258,278,78,24,-43,-122
-146,-141,4,143,-75,-68,278,326,136,87,9,-97
-112,-117,-4,114,-53,-61,287,366,209,146,63,-58
-63,-78,-14,70,-24,-46,287,385,273,224,126,-19
0,-29,-29,14,14,-29,258,385,326,297,204,39
78,14,-63,-46,70,-24,200,366,375,361,278,102
185,63,-122,-124,153,-29,112,317,409,424,346,170
292,122,-170,-207,231,-24,0,258,434,478,424,248
409,170,-239,-290,324,-34,-117,185,453,527,492,322
517,224,-292,-370,405,-34,-263,92,444,561,556,400
605,258,-346,-431,475,-43,-395,-14,395,566,600,463
644,268,-375,-456,509,-53,-512,-146,307,522,590,502
639,278,-361,-458,500,-41,-619,-307,180,424,531,512
595,258,-336,-427,466,-39,-707,-473,24,283,444,492
497,229,-268,-363,383,-19,-790,-673,-170,97,297,439
380,185,-195,-283,287,-4,-849,-854,-356,-82,161,375
263,146,-117,-204,190,14,-873,-1010,-517,-263,19,302
126,117,-9,-122,68,53,-878,-1127,-658,-419,-107,234
14,82,68,-48,-26,75,-868,-1210,-766,-531,-224,156
-73,53,126,9,-100,90,-834,-1239,-819,-610,-302,97
-122,43,165,39,-143,104,-795,-1200,-810,-610,-317,73
-146,34,180,56,-163,107,-736,-1122,-766,-585,-317,43
-156,24,180,65,-168,102,-668,-1010,-707,-541,-297,29
-165,14,180,75,-173,97,-600,-902,-639,-488,-273,14
-161,-19,141,90,-151,61,-527,-785,-566,-439,-253,-9
-165,-43,122,104,-143,39,-463,-678,-507,-395,-239,-24
-151,-63,87,107,-119,12,-390,-580,-448,-351,-214,-29
-141,-87,53,114,-97,-17,-331,-492,-390,-312,-190,-43
-131,-102,29,117,-80,-36,-278,-400,-336,-273,-161,-48
-126,-126,0,126,-63,-63,-229,-322,-297,-229,-146,-48
-117,-141,-24,129,-46,-82,-180,-263,-258,-195,-131,-53
-107,-146,-39,126,-34,-92,-146,-195,-214,-170,-112,-53
-102,-146,-43,124,-29,-95,-112,-151,-180,-141,-97,-53
-92,-151,-58,122,-17,-104,-82,-112,-151,-117,-82,-53
-82,-141,-58,112,-12,-100,-53,-82,-122,-102,-68,-53
-87,-141,-53,114,-17,-97,-29,-53,-102,-82,-48,-48
-87,-131,-43,109,-21,-87,-14,-39,-87,-68,-48,-39
-78,-126,-48,102,-14,-87,0,-29,-78,-58,-39,-43
-78,-112,-34,95,-21,-73,4,-14,-73,-58,-34,-43
-78,-107,-29,92,-24,-68,9,0,-58,-48,-29,-43
-78,-112,-34,95,-21,-73,14,4,-58,-43,-24,-43
-82,-102,-19,92,-31,-61,24,4,-58,-39,-24,-48
-82,-97,-14,90,-34,-56,24,14,-53,-34,-24,-48
-82,-97,-14,90,-34,-56,29,14,-48,-29,-24,-48
-82,-97,-14,90,-34,-56,34,19,-43,-29,-24,-48
-82,-97,-14,90,-34,-56,29,24,-39,-39,-24,-48
-82,-97,-14,90,-34,-56,34,29,-39,-34,-19,-53
-82,-97,-14,90,-34,-56,34,29,-39,-34,-19,-53
-82,-97,-14,90,-34,-56,34,29,-39,-34,-19,-53
-82,-107,-24,95,-29,-65,39,34,-34,-34,-19,-53
-82,-107,-24,95,-29,-65,43,34,-29,-29,-19,-53
-82,-102,-19,92,-31,-61,43,39,-29,-29,-19,-53
-82,-102,-19,92,-31,-61,43,39,-29,-29,-14,-53
-82,-92,-9,87,-36,-51,43,43,-29,-29,-14,-43
-82,-92,-9,87,-36,-51,43,43,-19,-24,-14,-43
-82,-92,-9,87,-36,-51,48,48,-19,-24,-14,-43
-87,-92,-4,90,-41,-48,53,48,-9,-19,-14,-48
-78,-87,-9,82,-34,-48,53,48,-9,-9,-14,-48
-78,-87,-9,82,-34,-48,53,53,-14,-9,-14,-48
-78,-87,-9,82,-34,-48,53,53,-14,-9,-9,-48
-78,-87,-9,82,-34,-48,53,53,-9,-9,-9,-48
-78,-87,-9,82,-34,-48,53,63,0,-9,-9,-48
-73,-87,-14,80,-29,-51,53,68,0,-4,-9,-48
-73,-87,-14,80,-29,-51,58,68,0,-4,-9,-48
-73,-87,-14,80,-29,-51,58,73,0,0,-9,-48
-73,-97,-24,85,-24,-61,53,73,4,0,-9,-58
-73,-97,-24,85,-24,-61,53,73,4,0,-9,-58
-73,-97,-24,85,-24,-61,53,78,9,0,-9,-58
-73,-97,-24,85,-24,-61,53,78,9,0,-9,-53
-63,-92,-29,78,-17,-61,63,78,9,0,-9,-43
-63,-92,-29,78,-17,-61,63,78,9,0,-4,-43
-63,-92,-29,78,-17,-61,63,82,9,4,-4,-43
-63,-92,-29,78,-17,-61,63,82,9,4,-4,-43
-73,-102,-29,87,-21,-65,53,82,9,4,-4,-39
-73,-102,-29,87,-21,-65,53,82,9,4,-4,-39
-68,-102,-34,85,-17,-68,58,87,9,4,0,-39
-68,-97,-29,82,-19,-63,58,87,9,9,4,-39
-58,-87,-29,73,-14,-58,48,87,4,9,4,-39
-58,-87,-29,73,-14,-58,48,87,4,14,4,-39
-53,-82,-29,68,-12,-56,53,87,4,14,4,-39
-53,-82,-29,68,-12,-56,53,92,4,14,4,-39
-58,-82,-24,70,-17,-53,53,82,9,14,9,-34
-58,-82,-24,70,-17,-53,53,82,9,14,9,-34
-58,-82,-24,70,-17,-53,53,87,9,19,9,-34
-58,-82,-24,70,-17,-53,53,87,14,19,9,-34
-53,-82,-29,68,-12,-56,58,92,14,19,4,-34
-53,-82,-29,68,-12,-56,58,97,14,19,9,-34
-53,-82,-29,68,-12,-56,58,97,14,19,9,-34
-48,-78,-29,63,-9,-53,58,97,19,24,9,-34
-39,-68,-29,53,-4,-48,63,97,24,24,19,-29
-39,-68,-29,53,-4,-48,63,107,24,24,19,-29
-39,-68,-29,53,-4,-48,68,107,29,29,24,-29
-39,-68,-29,53,-4,-48,68,107,29,29,24,-29
-39,-63,-24,51,-7,-43,68,112,29,29,14,-29
-39,-63,-24,51,-7,-43,68,112,29,29,14,-29
-34,-63,-29,48,-2,-46,68,112,34,34,14,-24
-34,-63,-29,48,-2,-46,68,122,34,34,19,-24
-39,-63,-24,51,-7,-43,58,126,43,39,29,-24
-39,-63,-24,51,-7,-43,58,126,43,39,34,-19
-39,-63,-24,51,-7,-43,58,136,43,48,34,-19
-34,-68,-34,51,0,-51,63,141,48,48,34,-14
-24,-63,-39,43,7,-51,63,141,39,48,39,-14
-24,-63,-39,43,7,-51,63,141,43,53,43,-14
-19,-63,-43,41,12,-53,63,141,43,53,43,-9
-19,-63,-43,41,12,-53,68,136,53,58,43,-9
-14,-53,-39,34,12,-46,63,141,53,58,39,-9
-14,-48,-34,31,9,-41,68,146,58,68,43,-9
-9,-48,-39,29,14,-43,68,151,63,68,48,-9
-9,-48,-39,29,14,-43,68,156,63,68,48,-9
0,-48,-48,24,24,-48,68,161,68,78,53,0
4,-48,-53,21,29,-51,73,165,73,82,58,4
9,-39,-48,14,29,-43,73,170,78,87,58,4
9,-39,-48,14,29,-43,78,180,82,92,63,9
24,-39,-63,7,43,-51,78,190,87,92,68,9
24,-39,-63,7,43,-51,82,195,87,97,68,9
29,-29,-58,0,43,-43,82,204,92,102,68,14
34,-24,-58,-4,46,-41,82,214,97,107,78,19
39,-34,-73,-2,56,-53,82,219,102,102,82,14
43,-34,-78,-4,61,-56,87,224,112,107,87,14
48,-24,-73,-12,61,-48,92,229,117,112,87,14
53,-19,-73,-17,63,-46,92,244,117,117,92,24
58,-14,-73,-21,65,-43,97,234,117,122,97,29
63,-9,-73,-26,68,-41,92,248,126,131,102,29
68,-9,-78,-29,73,-43,92,258,131,136,112,34
73,-4,-78,-34,75,-41,92,268,136,141,117,39
78,0,-78,-39,78,-39,92,268,141,156,131,43
82,4,-78,-43,80,-36,97,278,151,165,136,48
92,9,-82,-51,87,-36,97,278,156,170,141,48
97,9,-87,-53,92,-39,102,287,161,175,151,53
102,24,-78,-63,90,-26,92,297,175,175,156,58
107,29,-78,-68,92,-24,92,302,175,190,161,63
122,34,-87,-78,104,-26,97,312,190,195,165,68
122,39,-82,-80,102,-21,97,322,195,204,175,68
136,43,-92,-90,114,-24,97,331,204,224,180,82
146,48,-97,-97,122,-24,102,341,209,224,190,87
156,53,-102,-104,129,-24,107,346,214,229,200,92
161,58,-102,-109,131,-21,107,361,229,244,209,102
170,63,-107,-117,139,-21,107,366,234,248,219,102
180,68,-112,-124,146,-21,112,370,248,253,229,112
190,73,-117,-131,153,-21,112,385,248,268,239,117
200,78,-122,-139,161,-21,112,390,253,268,244,122
204,78,-126,-141,165,-24,112,405,263,278,244,136
214,78,-136,-146,175,-29,112,409,263,287,253,141
224,82,-141,-153,183,-29,112,414,268,292,263,146
234,82,-151,-158,192,-34,112,419,273,297,263,151
244,87,-156,-165,200,-34,112,424,283,292,273,156
253,92,-161,-173,207,-34,112,429,287,302,278,161
258,92,-165,-175,212,-36,107,429,292,307,283,165
268,97,-170,-183,219,-36,102,429,292,312,287,170
273,112,-161,-192,217,-24,102,419,292,317,292,175
278,117,-161,-197,219,-21,97,419,302,322,297,185
283,117,-165,-200,224,-24,92,419,302,326,302,190
292,112,-180,-202,236,-34,87,419,302,326,307,195
287,112,-175,-200,231,-31,92,424,302,336,312,190
292,117,-175,-204,234,-29,87,424,302,336,317,195
297,122,-175,-209,236,-26,82,414,302,341,317,195
297,122,-175,-209,236,-26,78,409,302,341,317,200
297,122,-175,-209,236,-26,68,409,297,341,326,209
302,122,-180,-212,241,-29,58,405,292,341,326,209
302,122,-180,-212,241,-29,58,395,292,341,326,209
302,122,-180,-212,241,-29,43,385,287,336,326,209
292,131,-161,-212,226,-14,48,375,292,331,312,209
292,131,-161,-212,226,-14,39,356,278,326,307,209
283,126,-156,-204,219,-14,34,341,268,317,302,200
278,117,-161,-197,219,-21,29,326,258,307,297,195
268,117,-151,-192,209,-17,34,312,248,297,292,180
258,112,-146,-185,202,-17,29,292,239,287,278,175
248,107,-141,-178,195,-17,19,278,229,278,268,170
239,97,-141,-168,190,-21,14,263,219,268,258,165
219,92,-126,-156,173,-17,19,258,209,253,248,161
209,87,-122,-148,165,-17,14,244,195,244,239,146
190,78,-112,-134,151,-17,9,219,180,229,229,136
175,68,-107,-122,141,-19,9,209,165,214,209,131
156,58,-97,-107,126,-19,14,204,151,200,185,112
141,48,-92,-95,117,-21,9,185,136,185,175,102
126,43,-82,-85,104,-19,4,170,126,170,161,97
112,34,-78,-73,95,-21,0,156,112,156,146,87
92,24,-68,-58,80,-21,4,141,112,141,131,68
82,14,-68,-48,75,-26,0,126,92,126,126,58
73,4,-68,-39,70,-31,0,112,87,112,112,48
63,0,-63,-31,63,-31,0,97,78,107,102,39
53,-9,-63,-21,58,-36,4,102,68,82,92,39
48,-19,-68,-14,58,-43,0,87,58,78,82,34
39,-29,-68,-4,53,-48,0,73,48,63,68,24
29,-39,-68,4,48,-53,-4,68,39,53,58,14
19,-39,-58,9,39,-48,0,58,29,53,48,14
9,-43,-53,17,31,-48,0,48,19,43,39,4
0,-43,-43,21,21,-43,0,39,19,34,39,4
-9,-48,-39,29,14,-43,0,34,4,24,24,0
-14,-63,-48,39,17,-56,0,29,-4,19,14,-14
-19,-68,-48,43,14,-58,0,24,-9,19,14,-19
-34,-73,-39,53,2,-56,0,14,-19,4,4,-29
-34,-73,-39,53,2,-56,-4,14,-24,4,4,-34
-29,-63,-34,46,2,-48,-4,9,-29,-9,-4,-29
-34,-73,-39,53,2,-56,-4,4,-34,-14,-9,-34
-39,-78,-39,58,0,-58,-4,-4,-43,-24,-14,-34
-43,-82,-39,63,-2,-61,-4,-14,-48,-29,-19,-39
-58,-87,-29,73,-14,-58,-14,-14,-53,-34,-24,-39
-58,-87,-29,73,-14,-58,-14,-19,-58,-39,-29,-39
-63,-87,-24,75,-19,-56,-14,-19,-58,-39,-29,-48
-63,-87,-24,75,-19,-56,-14,-24,-63,-43,-34,-48
-63,-97,-34,80,-14,-65,-14,-19,-53,-43,-34,-58
-68,-102,-34,85,-17,-68,-19,-19,-53,-43,-34,-58
-68,-102,-34,85,-17,-68,-19,-19,-63,-48,-39,-63
-68,-102,-34,85,-17,-68,-19,-24,-63,-48,-39,-63
-73,-107,-34,90,-19,-70,-9,-24,-63,-43,-48,-63
-73,-107,-34,90,-19,-70,-9,-24,-63,-48,-53,-63
-73,-107,-34,90,-19,-70,-14,-24,-63,-48,-53,-63
-73,-107,-34,90,-19,-70,-14,-29,-68,-48,-53,-68
-78,-102,-24,90,-26,-63,-14,-39,-68,-48,-58,-68
-78,-102,-24,90,-26,-63,-14,-39,-68,-48,-58,-68
-78,-107,-29,92,-24,-68,-14,-39,-73,-53,-58,-68
-78,-107,-29,92,-24,-68,-19,-39,-73,-53,-58,-68
-78,-107,-29,92,-24,-68,-19,-39,-73,-53,-58,-68
-78,-107,-29,92,-24,-68,-19,-39,-73,-53,-58,-68
-78,-107,-29,92,-24,-68,-19,-39,-73,-53,-58,-73
-78,-107,-29,92,-24,-68,-19,-39,-73,-53,-58,-73
-78,-107,-29,92,-24,-68,-19,-39,-73,-53,-58,-73
-78,-107,-29,92,-24,-68,-19,-39,-73,-53,-58,-73
-78,-102,-24,90,-26,-63,-19,-39,-73,-53,-58,-73
-78,-102,-24,90,-26,-63,-19,-39,-73,-53,-63,-73
-78,-102,-24,90,-26,-63,-19,-34,-68,-53,-53,-68
-78,-102,-24,90,-26,-63,-19,-34,-68,-53,-53,-68
-78,-102,-24,90,-26,-63,-19,-34,-68,-53,-53,-68
-78,-97,-19,87,-29,-58,-19,-34,-68,-53,-53,-68
-78,-107,-29,92,-24,-68,-19,-34,-73,-53,-53,-68
-78,-107,-29,92,-24,-68,-19,-29,-73,-53,-53,-68
-78,-107,-29,92,-24,-68,-19,-29,-73,-53,-53,-68
-78,-107,-29,92,-24,-68,-19,-29,-73,-53,-53,-68
-68,-107,-39,87,-14,-73,-19,-29,-63,-53,-53,-68
-68,-102,-34,85,-17,-68,-19,-29,-63,-53,-53,-68
-73,-102,-29,87,-21,-65,-19,-29,-63,-53,-53,-68
-73,-97,-24,85,-24,-61,-19,-29,-63,-53,-53,-68
-73,-97,-24,85,-24,-61,-9,-29,-63,-53,-53,-58
-73,-92,-19,82,-26,-56,-9,-29,-63,-53,-48,-58
-73,-92,-19,82,-26,-56,-9,-29,-63,-53,-48,-58
-73,-92,-19,82,-26,-56,-9,-29,-63,-53,-48,-58
-73,-92,-19,82,-26,-56,-9,-39,-63,-53,-48,-58
-73,-92,-19,82,-26,-56,-9,-39,-63,-53,-48,-58
-68,-92,-24,80,-21,-58,-9,-39,-63,-53,-48,-58
-68,-92,-24,80,-21,-58,-9,-34,-63,-53,-48,-58
-78,-102,-24,90,-26,-63,-9,-34,-63,-53,-39,-58
-78,-102,-24,90,-26,-63,-9,-34,-63,-53,-39,-58
-78,-102,-24,90,-26,-63,-4,-34,-63,-53,-43,-58
-78,-102,-24,90,-26,-63,-4,-34,-63,-48,-43,-58
-78,-112,-34,95,-21,-73,-4,-19,-68,-48,-43,-58
-78,-112,-34,95,-21,-73,-4,-19,-68,-48,-43,-58
-78,-112,-34,95,-21,-73,-4,-19,-68,-48,-43,-58
-78,-107,-29,92,-24,-68,-4,-19,-68,-48,-39,-58
-68,-107,-39,87,-14,-73,-14,-19,-68,-48,-48,-53
-68,-107,-39,87,-14,-73,-14,-19,-63,-48,-48,-53
-68,-107,-39,87,-14,-73,-9,-19,-63,-48,-48,-53
-68,-107,-39,87,-14,-73,-9,-19,-63,-48,-43,-48
-58,-97,-39,78,-9,-68,-19,-19,-63,-48,-43,-48
-58,-97,-39,78,-9,-68,-19,-19,-63,-43,-43,-48
-63,-97,-34,80,-14,-65,-19,-19,-63,-43,-43,-48
-63,-97,-34,80,-14,-65,-19,-19,-63,-43,-43,-48
-63,-87,-24,75,-19,-56,-19,-19,-58,-43,-43,-48
-63,-87,-24,75,-19,-56,-19,-19,-58,-43,-43,-48
-63,-87,-24,75,-19,-56,-19,-19,-58,-43,-43,-48
-63,-87,-24,75,-19,-56,-19,-19,-58,-43,-43,-53
-63,-87,-24,75,-19,-56,-19,-19,-58,-43,-43,-53
-63,-82,-19,73,-21,-51,-19,-19,-58,-43,-43,-53
-63,-82,-19,73,-21,-51,-19,-19,-58,-39,-43,-53
-63,-82,-19,73,-21,-51,-19,-24,-53,-39,-39,-53
-58,-92,-34,75,-12,-63,-19,-24,-53,-39,-39,-48
-58,-92,-34,75,-12,-63,-14,-24,-53,-39,-39,-48
-58,-92,-34,75,-12,-63,-9,-24,-53,-39,-39,-48
-58,-92,-34,75,-12,-63,-9,-19,-53,-39,-39,-48
-58,-92,-34,75,-12,-63,0,-19,-53,-39,-39,-48
-58,-92,-34,75,-12,-63,-4,-19,-53,-39,-39,-48
-58,-92,-34,75,-12,-63,-9,-19,-53,-39,-39,-48
-58,-92,-34,75,-12,-63,-9,-19,-53,-39,-39,-48
-58,-92,-34,75,-12,-63,-19,-29,-53,-48,-48,-48
-58,-92,-34,75,-12,-63,-19,-29,-53,-43,-48,-48
-58,-92,-34,75,-12,-63,-19,-29,-53,-43,-48,-48
-58,-92,-34,75,-12,-63,-19,-29,-53,-43,-48,-48
-58,-92,-34,75,-12,-63,-19,-29,-53,-43,-48,-48
-58,-92,-34,75,-12,-63,-19,-29,-53,-43,-48,-48
-58,-92,-34,75,-12,-63,-19,-29,-53,-48,-48,-48
-58,-92,-34,75,-12,-63,-19,-29,-53,-48,-48,-48
-58,-92,-34,75,-12,-63,-19,-29,-53,-39,-48,-48
-58,-92,-34,75,-12,-63,-19,-29,-53,-39,-48,-48
-58,-92,-34,75,-12,-63,-19,-29,-53,-39,-48,-48
-58,-92,-34,75,-12,-63,-19,-29,-53,-39,-48,-48
-58,-92,-34,75,-12,-63,-19,-29,-53,-48,-48,-48
-58,-92,-34,75,-12,-63,-19,-29,-53,-48,-48,-48
-58,-92,-34,75,-12,-63,-19,-29,-53,-48,-48,-48
-58,-92,-34,75,-12,-63,-19,-29,-53,-48,-53,-48
-58,-92,-34,75,-12,-63,-19,-29,-58,-48,-53,-58
-58,-92,-34,75,-12,-63,-19,-29,-58,-48,-53,-58
-58,-92,-34,75,-12,-63,-19,-29,-58,-48,-53,-58
-58,-92,-34,75,-12,-63,-19,-29,-58,-48,-53,-58
-58,-92,-34,75,-12,-63,-19,-29,-68,-58,-53,-58
-58,-97,-39,78,-9,-68,-19,-29,-68,-58,-53,-58
-58,-97,-39,78,-9,-68,-19,-34,-68,-58,-53,-58
-58,-97,-39,78,-9,-68,-19,-34,-68,-58,-53,-58
-58,-97,-39,78,-9,-68,-19,-24,-58,-53,-53,-48
-58,-97,-39,78,-9,-68,-19,-24,-58,-53,-53,-48
-58,-97,-39,78,-9,-68,-24,-24,-63,-53,-53,-48
-58,-97,-39,78,-9,-68,-24,-24,-63,-53,-53,-53
-68,-107,-39,87,-14,-73,-24,-24,-63,-53,-63,-63
-68,-107,-39,87,-14,-73,-24,-24,-63,-53,-63,-63
-68,-107,-39,87,-14,-73,-24,-24,-63,-53,-63,-63
-68,-107,-39,87,-14,-73,-24,-24,-63,-53,-68,-63
-68,-107,-39,87,-14,-73,-24,-24,-63,-53,-58,-63
-68,-107,-39,87,-14,-73,-24,-24,-63,-58,-58,-63
-68,-107,-39,87,-14,-73,-24,-24,-63,-58,-58,-63
-68,-107,-39,87,-14,-73,-24,-24,-63,-58,-58,-68
-68,-107,-39,87,-14,-73,-24,-24,-63,-58,-58,-68
-68,-112,-43,90,-12,-78,-24,-24,-63,-58,-63,-68
-68,-112,-43,90,-12,-78,-24,-29,-68,-58,-63,-68
-73,-112,-39,92,-17,-75,-24,-29,-68,-63,-63,-68
-73,-102,-29,87,-21,-65,-24,-29,-78,-63,-63,-68
-73,-102,-29,87,-21,-65,-24,-29,-78,-63,-63,-68
-73,-102,-29,87,-21,-65,-24,-29,-78,-63,-63,-68
-78,-102,-24,90,-26,-63,-19,-29,-78,-63,-63,-68
-68,-102,-34,85,-17,-68,-19,-39,-68,-63,-63,-68
-68,-102,-34,85,-17,-68,-19,-34,-68,-63,-63,-68
-68,-107,-39,87,-14,-73,-19,-34,-73,-63,-63,-68
-68,-107,-39,87,-14,-73,-19,-39,-78,-63,-63,-68
-68,-107,-39,87,-14,-73,-19,-39,-78,-63,-63,-68
-68,-107,-39,87,-14,-73,-24,-43,-78,-63,-68,-68
-63,-107,-43,85,-9,-75,-24,-43,-78,-63,-68,-68
-63,-107,-43,85,-9,-75,-24,-43,-78,-63,-68,-73
-78,-107,-29,92,-24,-68,-24,-43,-78,-73,-68,-73
-78,-107,-29,92,-24,-68,-29,-43,-78,-73,-73,-73
-78,-107,-29,92,-24,-68,-29,-43,-78,-73,-73,-73
-78,-107,-29,92,-24,-68,-29,-43,-78,-73,-73,-73
-78,-107,-29,92,-24,-68,-29,-43,-78,-73,-73,-63
-78,-107,-29,92,-24,-68,-29,-43,-78,-73,-73,-63
-78,-107,-29,92,-24,-68,-29,-43,-78,-73,-73,-63
-78,-107,-29,92,-24,-68,-29,-43,-82,-78,-73,-63
-78,-107,-29,92,-24,-68,-29,-48,-82,-68,-73,-73
-78,-107,-29,92,-24,-68,-29,-48,-82,-68,-73,-73
-78,-112,-34,95,-21,-73,-29,-48,-82,-73,-78,-73
-78,-112,-34,95,-21,-73,-29,-48,-82,-73,-78,-73
-82,-112,-29,97,-26,-70,-29,-48,-82,-73,-78,-73
-82,-112,-29,97,-26,-70,-29,-48,-82,-73,-78,-73
-82,-112,-29,97,-26,-70,-29,-48,-82,-73,-78,-73
-82,-112,-29,97,-26,-70,-29,-48,-82,-73,-78,-73
-82,-112,-29,97,-26,-70,-29,-43,-82,-73,-78,-73
-82,-112,-29,97,-26,-70,-29,-43,-82,-73,-78,-78
-82,-112,-29,97,-26,-70,-29,-43,-82,-73,-78,-78
-82,-112,-29,97,-26,-70,-29,-43,-82,-73,-78,-78
-82,-112,-29,97,-26,-70,-29,-43,-82,-78,-78,-68
-82,-112,-29,97,-26,-70,-29,-43,-82,-78,-82,-68
-82,-112,-29,97,-26,-70,-29,-43,-82,-78,-82,-68
-82,-112,-29,97,-26,-70,-29,-43,-87,-78,-82,-68
-87,-122,-34,104,-26,-78,-29,-39,-87,-78,-82,-68
-87,-122,-34,104,-26,-78,-29,-39,-87,-73,-82,-68
-87,-122,-34,104,-26,-78,-29,-39,-87,-73,-82,-68
-87,-122,-34,104,-26,-78,-29,-39,-82,-73,-82,-68
-87,-122,-34,104,-26,-78,-29,-39,-82,-73,-82,-68
-87,-122,-34,104,-26,-78,-29,-39,-82,-73,-82,-68
-87,-122,-34,104,-26,-78,-29,-39,-82,-73,-82,-68
-87,-122,-34,104,-26,-78,-29,-39,-82,-73,-82,-68
-97,-112,-14,104,-41,-63,-29,-39,-82,-68,-82,-68
-97,-112,-14,104,-41,-63,-29,-39,-82,-68,-82,-68
-97,-117,-19,107,-39,-68,-34,-39,-82,-68,-82,-68
-97,-117,-19,107,-39,-68,-34,-39,-82,-68,-82,-68
-97,-117,-19,107,-39,-68,-24,-43,-78,-78,-82,-68
-97,-117,-19,107,-39,-68,-24,-43,-78,-78,-82,-68
-97,-117,-19,107,-39,-68,-24,-43,-78,-78,-82,-68
-97,-117,-19,107,-39,-68,-24,-43,-78,-78,-82,-68
-87,-117,-29,102,-29,-73,-24,-43,-73,-78,-73,-68
-87,-117,-29,102,-29,-73,-24,-43,-73,-78,-73,-68
-87,-117,-29,102,-29,-73,-24,-43,-73,-78,-73,-68
-87,-117,-29,102,-29,-73,-24,-39,-73,-78,-73,-68
-97,-117,-19,107,-39,-68,-24,-39,-78,-78,-73,-58
-97,-117,-19,107,-39,-68,-24,-39,-78,-78,-73,-63
-97,-117,-19,107,-39,-68,-24,-39,-78,-78,-73,-63
-97,-117,-19,107,-39,-68,-24,-39,-78,-78,-73,-63
-107,-126,-19,117,-43,-73,-24,-39,-78,-78,-78,-63
-107,-126,-19,117,-43,-73,-24,-39,-78,-78,-78,-63
-107,-126,-19,117,-43,-73,-24,-39,-78,-78,-78,-63
-107,-126,-19,117,-43,-73,-24,-39,-82,-78,-78,-63
-107,-126,-19,117,-43,-73,-24,-39,-82,-78,-73,-63
-107,-126,-19,117,-43,-73,-24,-43,-82,-78,-73,-63
-107,-117,-9,112,-48,-63,-24,-43,-73,-68,-73,-63
-102,-117,-14,109,-43,-65,-24,-43,-73,-68,-73,-63
-107,-117,-9,112,-48,-63,-29,-48,-78,-78,-78,-68
-107,-117,-9,112,-48,-63,-29,-48,-78,-68,-78,-68
-107,-117,-9,112,-48,-63,-29,-48,-78,-68,-78,-68
-107,-117,-9,112,-48,-63,-29,-48,-78,-68,-78,-68
-107,-117,-9,112,-48,-63,-29,-48,-78,-68,-78,-68
-97,-126,-29,112,-34,-78,-19,-39,-78,-68,-78,-58
-97,-126,-29,112,-34,-78,-19,-39,-78,-68,-78,-58
-97,-126,-29,112,-34,-78,-19,-39,-78,-68,-78,-58
-97,-126,-29,112,-34,-78,-19,-39,-78,-68,-78,-58
-97,-126,-29,112,-34,-78,-19,-39,-78,-68,-78,-58
-97,-126,-29,112,-34,-78,-19,-39,-78,-68,-78,-58
-97,-126,-29,112,-34,-78,-19,-39,-78,-68,-78,-58
-97,-126,-29,112,-34,-78,-19,-39,-78,-68,-78,-58
-97,-126,-29,112,-34,-78,-29,-39,-78,-78,-78,-58
-97,-126,-29,112,-34,-78,-29,-39,-78,-78,-78,-58
-97,-126,-29,112,-34,-78,-29,-39,-78,-78,-78,-58
-97,-126,-29,112,-34,-78,-29,-39,-78,-78,-78,-58
-97,-117,-19,107,-39,-68,-29,-39,-78,-78,-78,-58
-97,-117,-19,107,-39,-68,-29,-39,-78,-78,-78,-58
-97,-117,-19,107,-39,-68,-29,-39,-78,-78,-78,-58
-97,-117,-19,107,-39,-68,-29,-39,-78,-78,-78,-58
-97,-126,-29,112,-34,-78,-29,-39,-78,-78,-78,-58
-97,-126,-29,112,-34,-78,-29,-39,-78,-78,-78,-58
-97,-126,-29,112,-34,-78,-29,-39,-78,-78,-78,-58
-97,-126,-29,112,-34,-78,-29,-39,-78,-78,-78,-58
-97,-126,-29,112,-34,-78,-29,-39,-78,-78,-78,-58
-97,-126,-29,112,-34,-78,-29,-39,-78,-78,-78,-58
-97,-126,-29,112,-34,-78,-29,-39,-78,-78,-78,-58
-97,-126,-29,112,-34,-78,-29,-39,-78,-78,-78,-58
-107,-126,-19,117,-43,-73,-29,-39,-78,-78,-78,-58
-107,-126,-19,117,-43,-73,-29,-39,-78,-78,-78,-58
-107,-126,-19,117,-43,-73,-29,-39,-78,-78,-78,-58
-107,-126,-19,117,-43,-73,-29,-39,-78,-78,-78,-58
-97,-126,-29,112,-34,-78,-19,-39,-78,-78,-78,-58
-97,-126,-29,112,-34,-78,-19,-39,-78,-78,-78,-58
-97,-126,-29,112,-34,-78,-19,-39,-78,-78,-78,-58
-97,-126,-29,112,-34,-78,-19,-39,-78,-78,-78,-58
-107,-126,-19,117,-43,-73,-29,-39,-78,-78,-78,-68
-107,-126,-19,117,-43,-73,-29,-39,-78,-78,-78,-68
-107,-126,-19,117,-43,-73,-29,-39,-78,-78,-78,-68
-107,-126,-19,117,-43,-73,-29,-39,-78,-78,-78,-68
-107,-126,-19,117,-43,-73,-29,-29,-68,-68,-78,-58
-107,-126,-19,117,-43,-73,-29,-29,-68,-68,-78,-58
-107,-126,-19,117,-43,-73,-29,-29,-68,-68,-78,-58
-107,-126,-19,117,-43,-73,-29,-29,-68,-68,-78,-58
-107,-126,-19,117,-43,-73,-29,-39,-68,-68,-68,-58
-107,-126,-19,117,-43,-73,-29,-39,-68,-68,-68,-58
-107,-126,-19,117,-43,-73,-29,-39,-68,-68,-68,-58
-107,-126,-19,117,-43,-73,-29,-39,-68,-68,-68,-58
-107,-126,-19,117,-43,-73,-29,-39,-78,-78,-78,-58
-107,-126,-19,117,-43,-73,-29,-39,-78,-78,-78,-58
-107,-126,-19,117,-43,-73,-29,-39,-78,-78,-78,-58
-107,-126,-19,117,-43,-73,-29,-39,-78,-78,-78,-58
-107,-117,-9,112,-48,-63,-29,-39,-68,-68,-68,-58
-107,-117,-9,112,-48,-63,-29,-39,-68,-68,-68,-58
-107,-117,-9,112,-48,-63,-29,-39,-68,-68,-68,-58
-107,-117,-9,112,-48,-63,-29,-39,-68,-68,-68,-58
-97,-117,-19,107,-39,-68,-19,-29,-68,-68,-68,-58
-97,-117,-19,107,-39,-68,-19,-29,-68,-68,-68,-58
-97,-117,-19,107,-39,-68,-19,-29,-68,-68,-68,-58
-97,-117,-19,107,-39,-68,-19,-29,-68,-68,-68,-58
-107,-126,-19,117,-43,-73,-19,-39,-78,-78,-78,-58
-107,-126,-19,117,-43,-73,-19,-39,-78,-78,-78,-58
-107,-126,-19,117,-43,-73,-19,-39,-78,-78,-78,-58
-107,-126,-19,117,-43,-73,-19,-39,-78,-78,-78,-58
-97,-126,-29,112,-34,-78,-19,-39,-78,-68,-68,-58
-97,-126,-29,112,-34,-78,-19,-39,-78,-68,-68,-58
-97,-126,-29,112,-34,-78,-19,-39,-78,-68,-68,-58
-97,-126,-29,112,-34,-78,-19,-39,-78,-68,-68,-58
-97,-117,-19,107,-39,-68,-29,-29,-68,-68,-68,-58
-97,-117,-19,107,-39,-68,-29,-29,-68,-68,-68,-58
-97,-117,-19,107,-39,-68,-29,-29,-68,-68,-68,-58
-97,-117,-19,107,-39,-68,-29,-29,-68,-68,-68,-58
-97,-112,-14,104,-41,-63,-19,-19,-58,-58,-58,-58
-97,-107,-9,102,-43,-58,-19,-19,-58,-58,-58,-58
-97,-102,-4,100,-46,-53,-19,-19,-58,-58,-58,-58
-97,-97,0,97,-48,-48,-19,-19,-58,-58,-58,-58
-92,-92,0,92,-46,-46,-14,-9,-48,-48,-48,-48
-87,-87,0,87,-43,-43,-9,-9,-48,-48,-48,-48
-82,-82,0,82,-41,-41,-4,-9,-48,-48,-48,-48
-78,-78,0,78,-39,-39,0,-9,-48,-48,-48,-48
-68,-68,0,68,-34,-34,9,0,-39,-39,-39,-39
-68,-68,0,68,-34,-34,9,0,-39,-39,-39,-39
-68,-68,0,68,-34,-34,9,0,-39,-39,-39,-39
-68,-68,0,68,-34,-34,9,0,-39,-39,-39,-39
-58,-58,0,58,-29,-29,19,9,-29,-29,-39,-39
-58,-58,0,58,-29,-29,19,9,-29,-29,-39,-39
-58,-58,0,58,-29,-29,19,9,-29,-29,-39,-39
-58,-58,0,58,-29,-29,19,9,-29,-29,-39,-39
-48,-58,-9,53,-19,-34,29,14,-19,-19,-29,-39
-48,-58,-9,53,-19,-34,29,19,-19,-19,-29,-39
-48,-58,-9,53,-19,-34,29,24,-19,-19,-29,-39
-48,-58,-9,53,-19,-34,29,29,-19,-19,-29,-39
-39,-53,-14,46,-12,-34,29,29,-14,-9,-19,-34
-39,-48,-9,43,-14,-29,29,29,-9,-9,-19,-29
-34,-39,-4,36,-14,-21,24,29,-4,-4,-14,-19
-29,-19,9,24,-19,-4,19,29,0,-4,-9,-9
-19,0,19,9,-19,9,9,19,0,4,4,-4
-14,0,14,7,-14,7,0,14,0,4,4,0
-14,0,14,7,-14,7,-9,0,0,4,0,0
-14,0,14,7,-14,7,-19,-9,0,4,0,0
0,0,0,0,0,0,-29,-4,-9,4,-4,4
0,-9,-9,4,4,-9,-29,-9,-14,4,-4,4
0,-14,-14,7,7,-14,-34,-14,-14,0,-4,4
0,-19,-19,9,9,-19,-43,-14,-19,-4,-9,4
0,-34,-34,17,17,-34,-48,-14,-24,-14,-14,-4
4,-43,-48,19,26,-46,-53,-14,-29,-14,-14,-4
9,-48,-58,19,34,-53,-58,-14,-29,-14,-14,-4
9,-53,-63,21,36,-58,-58,-14,-29,-14,-14,-4
9,-48,-58,19,34,-53,-63,-14,-34,-29,-24,-4
9,-48,-58,19,34,-53,-63,-19,-39,-29,-24,-4
9,-48,-58,19,34,-53,-63,-24,-39,-34,-29,-4
9,-48,-58,19,34,-53,-63,-29,-39,-34,-29,-9
9,-48,-58,19,34,-53,-68,-34,-48,-39,-29,-9
4,-48,-53,21,29,-51,-68,-34,-58,-43,-34,-9
-4,-58,-53,31,24,-56,-68,-34,-58,-43,-34,-14
-9,-63,-53,36,21,-58,-68,-39,-58,-43,-39,-19
-19,-78,-58,48,19,-68,-63,-48,-63,-53,-34,-19
-29,-82,-53,56,12,-68,-58,-48,-63,-53,-39,-24
-39,-87,-48,63,4,-68,-58,-48,-63,-58,-43,-29
-48,-92,-43,70,-2,-68,-48,-48,-73,-58,-43,-34
-53,-97,-43,75,-4,-70,-43,-39,-73,-63,-43,-39
-63,-112,-48,87,-7,-80,-43,-39,-73,-63,-48,-43
-68,-112,-43,90,-12,-78,-43,-39,-73,-68,-53,-43
-73,-117,-43,95,-14,-80,-43,-43,-82,-73,-58,-48
-78,-122,-43,100,-17,-82,-53,-43,-78,-78,-63,-53
-82,-126,-43,104,-19,-85,-53,-48,-78,-82,-68,-58
-82,-131,-48,107,-17,-90,-53,-48,-82,-87,-73,-63
-82,-136,-53,109,-14,-95,-53,-48,-87,-87,-78,-68
-82,-141,-58,112,-12,-100,-48,-58,-97,-92,-78,-68
-92,-146,-53,119,-19,-100,-48,-58,-102,-97,-78,-73
-92,-151,-58,122,-17,-104,-48,-58,-102,-97,-82,-73
-92,-151,-58,122,-17,-104,-53,-58,-102,-97,-82,-78
-92,-151,-58,122,-17,-104,-53,-58,-102,-97,-82,-78
-92,-151,-58,122,-17,-104,-53,-58,-102,-97,-82,-78
-92,-151,-58,122,-17,-104,-53,-58,-102,-97,-82,-78
-92,-151,-58,122,-17,-104,-53,-58,-102,-97,-82,-78
-92,-151,-58,122,-17,-104,-48,-63,-102,-97,-82,-78
-92,-151,-58,122,-17,-104,-48,-63,-102,-97,-82,-78
-92,-151,-58,122,-17,-104,-48,-63,-102,-97,-82,-78
-97,-151,-53,124,-21,-102,-48,-58,-102,-97,-82,-78
-97,-151,-53,124,-21,-102,-53,-58,-102,-97,-82,-78
-97,-156,-58,126,-19,-107,-53,-58,-102,-97,-82,-78
-97,-156,-58,126,-19,-107,-53,-53,-102,-97,-82,-78
-97,-156,-58,126,-19,-107,-53,-53,-102,-97,-82,-78
-92,-156,-63,124,-14,-109,-53,-53,-102,-97,-82,-78
-92,-156,-63,124,-14,-109,-53,-53,-102,-97,-82,-78
-92,-156,-63,124,-14,-109,-53,-53,-102,-97,-82,-78
-92,-156,-63,124,-14,-109,-53,-53,-102,-97,-82,-78
-102,-146,-43,124,-29,-95,-48,-63,-102,-97,-82,-78
-102,-146,-43,124,-29,-95,-48,-63,-102,-97,-82,-78
-102,-146,-43,124,-29,-95,-48,-63,-102,-97,-82,-78
-102,-146,-43,124,-29,-95,-48,-63,-102,-97,-82,-78
-102,-156,-53,129,-24,-104,-39,-53,-102,-97,-73,-78
-102,-156,-53,129,-24,-104,-39,-53,-102,-97,-78,-78
-102,-156,-53,129,-24,-104,-39,-53,-102,-97,-78,-78
-107,-156,-48,131,-29,-102,-34,-53,-102,-97,-78,-78
-97,-146,-48,122,-24,-97,-34,-53,-102,-87,-78,-78
-97,-146,-48,122,-24,-97,-34,-53,-102,-87,-78,-78
-97,-146,-48,122,-24,-97,-34,-53,-102,-87,-78,-78
-97,-146,-48,122,-24,-97,-34,-53,-102,-87,-73,-78
-102,-146,-43,124,-29,-95,-34,-53,-102,-97,-82,-78
-102,-146,-43,124,-29,-95,-34,-53,-102,-97,-82,-87
-102,-156,-53,129,-24,-104,-34,-53,-102,-97,-87,-87
-107,-161,-53,134,-26,-107,-34,-43,-102,-97,-87,-87
-117,-165,-48,141,-34,-107,-24,-34,-102,-97,-87,-92
-122,-170,-48,146,-36,-109,-19,-19,-102,-107,-87,-97
-126,-175,-48,151,-39,-112,0,4,-102,-112,-102,-107
-131,-190,-58,161,-36,-124,19,24,-102,-112,-107,-117
-136,-190,-53,163,-41,-122,34,48,-92,-112,-102,-117
-141,-195,-53,168,-43,-124,63,73,-78,-112,-107,-126
-151,-204,-53,178,-48,-129,97,112,-58,-102,-107,-131
-156,-195,-39,175,-58,-117,141,151,-34,-78,-97,-141
-161,-185,-24,173,-68,-104,180,204,9,-39,-78,-136
-161,-170,-9,165,-75,-90,224,253,68,0,-48,-117
-146,-141,4,143,-75,-68,258,297,126,63,4,-102
-126,-112,14,119,-70,-48,287,326,185,117,58,-68
-82,-68,14,75,-48,-26,297,346,258,195,112,-39
-34,-19,14,26,-24,-2,278,356,331,283,195,29
39,39,0,-39,19,19,229,346,395,346,263,78
126,92,-34,-109,80,29,141,307,444,419,346,141
234,141,-92,-187,163,24,43,268,468,483,424,209
341,190,-151,-265,246,19,-68,219,492,536,492,278
468,229,-239,-348,353,-4,-195,156,502,595,561,351
575,263,-312,-419,444,-24,-331,92,492,619,614,419
663,278,-385,-470,524,-53,-463,14,444,624,639,473
712,278,-434,-495,573,-78,-590,-87,366,580,639,512
736,268,-468,-502,602,-100,-697,-219,248,492,600,522
692,229,-463,-461,578,-117,-785,-375,73,341,502,502
624,190,-434,-407,529,-122,-868,-556,-112,165,375,468
517,146,-370,-331,444,-112,-927,-746,-297,-4,248,414
400,117,-283,-258,341,-82,-961,-902,-468,-175,117,351
283,78,-204,-180,244,-63,-976,-1039,-610,-331,-9,283
161,53,-107,-107,134,-26,-966,-1132,-717,-453,-126,214
73,24,-48,-48,61,-12,-932,-1161,-771,-531,-195,165
14,14,0,-14,7,7,-893,-1141,-771,-551,-229,131
-29,4,34,12,-31,19,-824,-1073,-727,-527,-239,102
-58,4,63,26,-61,34,-746,-971,-668,-483,-219,78
-78,-4,73,41,-75,34,-668,-863,-600,-439,-195,63
-82,-19,63,51,-73,21,-585,-756,-546,-400,-185,48
-87,-34,53,61,-70,9,-512,-658,-488,-356,-170,24
-92,-53,39,73,-65,-7,-439,-561,-429,-322,-156,9
-92,-68,24,80,-58,-21,-370,-473,-370,-283,-141,4
-92,-82,9,87,-51,-36,-307,-390,-326,-244,-122,-19
-97,-97,0,97,-48,-48,-258,-322,-287,-219,-117,-29
-87,-112,-24,100,-31,-68,-209,-263,-248,-185,-102,-34
-87,-126,-39,107,-24,-82,-156,-204,-214,-161,-92,-43
-82,-136,-53,109,-14,-95,-122,-151,-170,-131,-78,-43
-82,-141,-58,112,-12,-100,-92,-112,-141,-117,-63,-43
-82,-141,-58,112,-12,-100,-63,-82,-122,-92,-48,-43
-78,-141,-63,109,-7,-102,-48,-63,-102,-82,-48,-48
-78,-131,-53,104,-12,-92,-34,-39,-87,-78,-39,-48
-78,-126,-48,102,-14,-87,-19,-19,-78,-68,-39,-53
-78,-112,-34,95,-21,-73,-4,4,-63,-58,-24,-43
-78,-117,-39,97,-19,-78,0,9,-58,-58,-29,-43
-78,-102,-24,90,-26,-63,4,14,-48,-43,-24,-43
-73,-92,-19,82,-26,-56,4,14,-48,-48,-14,-48
-73,-87,-14,80,-29,-51,4,24,-43,-43,-14,-48
-73,-87,-14,80,-29,-51,9,24,-39,-39,-14,-48
-73,-87,-14,80,-29,-51,14,29,-34,-39,-14,-48
-82,-87,-4,85,-39,-46,19,34,-29,-39,-14,-48
-82,-87,-4,85,-39,-46,24,39,-29,-34,-9,-53
-82,-87,-4,85,-39,-46,24,39,-29,-34,-9,-53
-82,-87,-4,85,-39,-46,24,39,-29,-34,-9,-53
-82,-87,-4,85,-39,-46,29,43,-24,-34,-9,-53
-82,-87,-4,85,-39,-46,34,43,-19,-29,-9,-53
-82,-82,0,82,-41,-41,34,48,-19,-29,-9,-53
-82,-82,0,82,-41,-41,34,48,-19,-29,-4,-53
-82,-82,0,82,-41,-41,34,53,-19,-29,-4,-53
-82,-82,0,82,-41,-41,34,53,-9,-24,-4,-53
-82,-82,0,82,-41,-41,39,58,-9,-24,-4,-53
-87,-82,4,85,-46,-39,43,58,0,-19,-4,-58
-78,-87,-9,82,-34,-48,43,58,0,-19,4,-48
-78,-87,-9,82,-34,-48,43,63,-4,-19,4,-48
-78,-87,-9,82,-34,-48,43,63,-4,-19,9,-48
-78,-87,-9,82,-34,-48,43,63,0,-19,9,-48
-87,-87,0,87,-43,-43,43,63,0,-19,9,-48
-82,-87,-4,85,-39,-46,43,68,0,-14,9,-48
-82,-87,-4,85,-39,-46,48,68,0,-14,9,-48
-82,-87,-4,85,-39,-46,48,73,0,-9,9,-48
-82,-87,-4,85,-39,-46,43,73,-4,-19,9,-48
-82,-87,-4,85,-39,-46,43,73,-4,-19,9,-48
-82,-87,-4,85,-39,-46,43,78,0,-19,9,-48
-82,-87,-4,85,-39,-46,43,78,0,-19,9,-43
-73,-82,-9,78,-31,-46,43,68,0,-19,0,-53
-73,-82,-9,78,-31,-46,43,68,0,-19,4,-53
-73,-82,-9,78,-31,-46,43,73,0,-14,4,-53
-73,-82,-9,78,-31,-46,43,73,0,-14,4,-53
-73,-73,0,73,-36,-36,43,73,0,-4,4,-48
-73,-73,0,73,-36,-36,43,73,0,-4,4,-48
-68,-73,-4,70,-31,-39,48,78,0,-4,9,-48
-68,-68,0,68,-34,-34,48,78,0,0,14,-48
-68,-68,0,68,-34,-34,48,78,14,0,24,-39
-68,-68,0,68,-34,-34,48,78,14,4,24,-39
-63,-63,0,63,-31,-31,53,78,14,4,24,-39
-63,-63,0,63,-31,-31,53,82,14,4,24,-39
-58,-63,-4,61,-26,-34,53,82,9,4,29,-43
-58,-63,-4,61,-26,-34,53,82,9,4,29,-43
-58,-63,-4,61,-26,-34,53,87,9,9,29,-43
-58,-63,-4,61,-26,-34,53,87,14,9,29,-43
-53,-63,-9,58,-21,-36,58,92,14,9,24,-34
-53,-63,-9,58,-21,-36,58,97,14,9,29,-34
-53,-63,-9,58,-21,-36,58,97,14,9,29,-34
-48,-58,-9,53,-19,-34,58,97,19,14,29,-34
-48,-58,-9,53,-19,-34,53,107,24,14,39,-39
-48,-58,-9,53,-19,-34,53,117,24,14,39,-39
-48,-58,-9,53,-19,-34,58,117,29,19,43,-39
-48,-58,-9,53,-19,-34,58,117,29,19,43,-39
-48,-63,-14,56,-17,-39,68,112,29,19,34,-39
-48,-63,-14,56,-17,-39,68,112,29,19,34,-39
-43,-63,-19,53,-12,-41,68,112,34,24,34,-34
-43,-63,-19,53,-12,-41,68,122,34,24,39,-34
-39,-58,-19,48,-9,-39,68,126,43,29,48,-34
-39,-53,-14,46,-12,-34,68,126,43,29,53,-29
-39,-48,-9,43,-14,-29,68,136,43,39,53,-29
-34,-48,-14,41,-9,-31,73,141,48,39,53,-24
-34,-43,-9,39,-12,-26,73,146,48,39,58,-24
-34,-43,-9,39,-12,-26,73,151,53,43,63,-24
-29,-43,-14,36,-7,-29,73,156,53,43,63,-19
-29,-43,-14,36,-7,-29,78,156,63,48,63,-19
-24,-43,-19,34,-2,-31,82,170,63,48,68,-9
-24,-39,-14,31,-4,-26,87,175,68,58,73,-9
-19,-39,-19,29,0,-29,87,180,73,58,78,-9
-19,-39,-19,29,0,-29,87,185,73,58,78,-9
0,-39,-39,19,19,-39,87,190,78,68,82,-9
4,-39,-43,17,24,-41,92,195,82,73,87,-4
9,-29,-39,9,24,-34,92,200,87,78,87,-4
9,-29,-39,9,24,-34,97,209,92,82,92,0
4,-29,-34,12,19,-31,97,209,97,82,97,0
4,-29,-34,12,19,-31,102,214,97,87,97,0
9,-19,-29,4,19,-24,102,224,102,92,97,4
14,-14,-29,0,21,-21,102,234,107,97,107,9
19,-4,-24,-7,21,-14,102,239,112,102,112,14
24,-4,-29,-9,26,-17,107,244,122,107,117,14
29,4,-24,-17,26,-9,112,248,126,112,117,14
34,9,-24,-21,29,-7,112,263,126,117,122,24
39,14,-24,-26,31,-4,112,263,136,122,126,29
43,19,-24,-31,34,-2,112,278,146,131,131,29
48,19,-29,-34,39,-4,117,287,151,136,141,34
53,24,-29,-39,41,-2,122,297,156,141,146,39
58,19,-39,-39,48,-9,131,307,170,156,151,43
63,24,-39,-43,51,-7,136,317,180,165,156,48
73,29,-43,-51,58,-7,136,317,185,170,161,48
78,29,-48,-53,63,-9,141,326,190,175,170,53
82,34,-48,-58,65,-7,141,336,204,175,185,58
87,39,-48,-63,68,-4,141,341,204,190,190,63
102,43,-58,-73,80,-7,146,351,219,195,195,68
102,48,-53,-75,78,-2,146,361,224,204,204,68
117,43,-73,-80,95,-14,146,380,234,224,209,82
126,48,-78,-87,102,-14,151,390,239,224,219,87
136,53,-82,-95,109,-14,156,395,244,229,229,92
141,58,-82,-100,112,-12,156,409,258,244,239,102
151,63,-87,-107,119,-12,156,424,263,258,239,102
161,68,-92,-114,126,-12,161,429,278,263,248,112
170,73,-97,-122,134,-12,161,444,278,278,258,117
180,78,-102,-129,141,-12,161,448,283,278,263,122
185,82,-102,-134,143,-9,161,453,292,278,273,126
195,87,-107,-141,151,-9,161,458,292,287,283,131
204,97,-107,-151,156,-4,161,463,297,292,292,136
214,102,-112,-158,163,-4,161,468,302,297,292,141
224,107,-117,-165,170,-4,151,473,312,302,302,146
234,112,-122,-173,178,-4,151,478,317,312,307,151
239,112,-126,-175,183,-7,146,478,322,317,312,156
248,117,-131,-183,190,-7,141,478,322,322,317,161
244,131,-112,-187,178,9,141,478,322,317,322,165
248,136,-112,-192,180,12,136,478,331,322,326,175
253,136,-117,-195,185,9,131,478,331,326,331,180
263,131,-131,-197,197,0,126,478,331,326,336,185
278,131,-146,-204,212,-7,122,473,331,336,341,190
283,136,-146,-209,214,-4,117,473,331,336,346,195
287,141,-146,-214,217,-2,112,463,331,341,346,195
287,141,-146,-214,217,-2,107,458,331,341,346,200
287,151,-136,-219,212,7,97,448,326,341,346,209
292,151,-141,-222,217,4,87,444,322,341,346,209
292,151,-141,-222,217,4,87,434,322,341,346,209
292,151,-141,-222,217,4,73,424,317,336,346,209
283,141,-141,-212,212,0,68,414,312,322,341,200
283,141,-141,-212,212,0,58,395,297,317,336,200
273,136,-136,-204,204,0,53,380,287,307,331,190
268,126,-141,-197,204,-7,48,366,278,297,326,185
258,126,-131,-192,195,-2,43,341,268,287,322,180
248,122,-126,-185,187,-2,39,322,258,278,307,175
239,117,-122,-178,180,-2,29,307,248,268,297,170
229,107,-122,-168,175,-7,24,292,239,258,287,165
219,92,-126,-156,173,-17,29,278,219,244,268,161
209,87,-122,-148,165,-17,24,263,204,234,258,146
190,78,-112,-134,151,-17,19,239,190,219,248,136
175,68,-107,-122,141,-19,19,229,175,204,229,131
165,68,-97,-117,131,-14,14,204,161,180,224,122
151,58,-92,-104,122,-17,9,185,146,165,214,112
136,53,-82,-95,109,-14,4,170,136,151,200,107
122,43,-78,-82,100,-17,0,156,122,136,185,97
112,34,-78,-73,95,-21,-4,151,112,131,170,78
102,24,-78,-63,90,-26,-9,136,92,117,165,68
92,14,-78,-53,85,-31,-9,122,87,102,151,58
82,9,-73,-46,78,-31,-9,107,78,97,141,48
63,0,-63,-31,63,-31,-14,112,68,82,131,48
58,-9,-68,-24,63,-39,-19,97,58,78,122,43
48,-19,-68,-14,58,-43,-19,82,48,63,107,34
39,-29,-68,-4,53,-48,-24,78,39,53,97,24
29,-39,-68,4,48,-53,-19,68,29,43,87,24
19,-43,-63,12,41,-53,-19,58,19,34,78,14
9,-43,-53,17,31,-48,-19,48,19,24,78,14
0,-48,-48,24,24,-48,-19,43,4,14,63,9
4,-53,-58,24,31,-56,-29,39,4,9,53,4
0,-58,-58,29,29,-58,-29,34,0,9,53,0
-14,-63,-48,39,17,-56,-29,24,-9,-4,43,-9
-14,-63,-48,39,17,-56,-34,24,-14,-4,43,-14
-29,-53,-24,41,-2,-39,-34,9,-19,-19,43,-19
-34,-63,-29,48,-2,-46,-34,4,-24,-24,39,-24
-39,-68,-29,53,-4,-48,-34,-4,-34,-34,34,-24
-43,-73,-29,58,-7,-51,-34,-14,-39,-39,29,-29
-48,-78,-29,63,-9,-53,-34,-14,-43,-43,24,-39
-48,-78,-29,63,-9,-53,-34,-19,-48,-48,19,-39
-53,-78,-24,65,-14,-51,-34,-19,-48,-48,19,-48
-53,-78,-24,65,-14,-51,-34,-24,-53,-53,14,-48
-53,-78,-24,65,-14,-51,-34,-29,-53,-53,14,-48
-58,-82,-24,70,-17,-53,-39,-29,-53,-53,14,-48
-58,-82,-24,70,-17,-53,-39,-29,-63,-58,9,-53
-58,-82,-24,70,-17,-53,-39,-34,-63,-58,9,-53
-63,-87,-24,75,-19,-56,-39,-43,-63,-53,9,-53
-63,-87,-24,75,-19,-56,-39,-43,-63,-58,4,-53
-63,-87,-24,75,-19,-56,-43,-43,-63,-58,4,-53
-63,-87,-24,75,-19,-56,-43,-48,-68,-58,4,-58
-68,-92,-24,80,-21,-58,-34,-39,-58,-58,0,-48
-68,-92,-24,80,-21,-58,-34,-39,-58,-58,0,-48
-68,-97,-29,82,-19,-63,-34,-39,-63,-63,0,-48
-68,-97,-29,82,-19,-63,-39,-39,-63,-63,0,-48
-68,-97,-29,82,-19,-63,-39,-39,-73,-63,0,-48
-68,-97,-29,82,-19,-63,-39,-39,-73,-63,0,-48
-68,-97,-29,82,-19,-63,-39,-39,-73,-63,0,-53
-68,-97,-29,82,-19,-63,-39,-39,-73,-63,0,-53
-68,-107,-39,87,-14,-73,-39,-39,-73,-63,0,-53
-68,-107,-39,87,-14,-73,-39,-39,-73,-63,0,-53
-68,-102,-34,85,-17,-68,-39,-39,-73,-63,0,-53
-68,-102,-34,85,-17,-68,-39,-39,-73,-63,-4,-53
-68,-102,-34,85,-17,-68,-39,-43,-68,-63,4,-48
-68,-102,-34,85,-17,-68,-39,-43,-68,-63,4,-48
-68,-102,-34,85,-17,-68,-39,-43,-68,-63,4,-48
-68,-97,-29,82,-19,-63,-39,-43,-68,-63,4,-48
-68,-97,-29,82,-19,-63,-39,-43,-73,-63,-4,-58
-68,-97,-29,82,-19,-63,-39,-39,-73,-63,-4,-58
-68,-97,-29,82,-19,-63,-39,-39,-73,-63,-4,-58
-68,-97,-29,82,-19,-63,-39,-39,-73,-63,-4,-58
-68,-92,-24,80,-21,-58,-39,-39,-73,-63,-4,-58
-68,-92,-24,80,-21,-58,-39,-39,-73,-63,-4,-58
-73,-97,-24,85,-24,-61,-39,-39,-73,-63,-4,-58
-73,-97,-24,85,-24,-61,-39,-39,-73,-63,-4,-58
-63,-97,-34,80,-14,-65,-39,-29,-63,-63,4,-48
-63,-92,-29,78,-17,-61,-39,-29,-63,-63,9,-48
-63,-92,-29,78,-17,-61,-39,-29,-63,-63,9,-48
-63,-92,-29,78,-17,-61,-39,-29,-63,-63,9,-48
-73,-92,-19,82,-26,-56,-39,-39,-63,-63,9,-48
-73,-92,-19,82,-26,-56,-39,-39,-63,-63,9,-48
-68,-92,-24,80,-21,-58,-39,-39,-63,-63,9,-48
-68,-92,-24,80,-21,-58,-39,-34,-63,-63,9,-48
-68,-92,-24,80,-21,-58,-39,-34,-63,-73,9,-58
-68,-92,-24,80,-21,-58,-39,-34,-63,-73,9,-58
-68,-92,-24,80,-21,-58,-34,-34,-63,-73,4,-58
-68,-92,-24,80,-21,-58,-34,-34,-63,-68,4,-58
-68,-92,-24,80,-21,-58,-34,-29,-68,-68,4,-58
-68,-92,-24,80,-21,-58,-34,-29,-68,-68,4,-58
-68,-92,-24,80,-21,-58,-34,-29,-68,-68,4,-58
-68,-87,-19,78,-24,-53,-34,-29,-68,-68,9,-58
-58,-87,-29,73,-14,-58,-34,-39,-58,-58,9,-53
-58,-87,-29,73,-14,-58,-34,-39,-53,-58,9,-53
-58,-87,-29,73,-14,-58,-29,-39,-53,-58,9,-53
-58,-87,-29,73,-14,-58,-29,-39,-53,-58,14,-48
-58,-87,-29,73,-14,-58,-29,-29,-53,-58,24,-48
-58,-87,-29,73,-14,-58,-29,-29,-53,-53,24,-48
-63,-87,-24,75,-19,-56,-29,-29,-53,-53,24,-48
-63,-87,-24,75,-19,-56,-29,-29,-53,-53,24,-48
-63,-87,-24,75,-19,-56,-29,-19,-48,-53,24,-48
-63,-87,-24,75,-19,-56,-29,-19,-48,-53,24,-48
-63,-87,-24,75,-19,-56,-29,-19,-48,-53,24,-48
-63,-87,-24,75,-19,-56,-29,-19,-48,-53,24,-53
-53,-97,-43,75,-4,-70,-29,-19,-48,-53,24,-43
-53,-92,-39,73,-7,-65,-29,-19,-48,-53,24,-43
-53,-92,-39,73,-7,-65,-29,-19,-48,-48,24,-43
-53,-92,-39,73,-7,-65,-29,-24,-43,-48,29,-43
-58,-82,-24,70,-17,-53,-39,-34,-53,-48,29,-48
-58,-82,-24,70,-17,-53,-34,-34,-53,-48,29,-48
-58,-82,-24,70,-17,-53,-29,-34,-53,-48,29,-48
-58,-82,-24,70,-17,-53,-29,-29,-53,-48,29,-48
-48,-82,-34,65,-7,-58,-29,-29,-43,-48,39,-48
-48,-82,-34,65,-7,-58,-34,-29,-43,-48,39,-48
-48,-82,-34,65,-7,-58,-39,-29,-43,-48,39,-48
-48,-82,-34,65,-7,-58,-39,-29,-43,-48,39,-48
-48,-82,-34,65,-7,-58,-39,-29,-43,-58,39,-48
-48,-82,-34,65,-7,-58,-39,-29,-43,-53,39,-48
-48,-82,-34,65,-7,-58,-39,-29,-43,-53,39,-48
-48,-82,-34,65,-7,-58,-39,-29,-43,-53,39,-48
-48,-82,-34,65,-7,-58,-29,-29,-43,-43,39,-39
-48,-82,-34,65,-7,-58,-29,-29,-43,-43,39,-39
-48,-82,-34,65,-7,-58,-29,-29,-43,-48,39,-39
-48,-82,-34,65,-7,-58,-29,-29,-43,-48,39,-39
-48,-82,-34,65,-7,-58,-39,-39,-53,-48,39,-48
-48,-82,-34,65,-7,-58,-39,-39,-53,-48,39,-48
-48,-82,-34,65,-7,-58,-39,-39,-53,-48,39,-48
-48,-82,-34,65,-7,-58,-39,-39,-53,-48,39,-48
-48,-82,-34,65,-7,-58,-29,-39,-53,-58,39,-39
-48,-82,-34,65,-7,-58,-29,-39,-53,-58,39,-39
-48,-82,-34,65,-7,-58,-29,-39,-53,-58,39,-39
-48,-82,-34,65,-7,-58,-29,-39,-53,-58,34,-39
-48,-92,-43,70,-2,-68,-39,-29,-48,-48,34,-39
-48,-92,-43,70,-2,-68,-39,-29,-48,-48,34,-39
-48,-92,-43,70,-2,-68,-39,-29,-48,-48,34,-39
-48,-92,-43,70,-2,-68,-39,-29,-48,-48,34,-39
-48,-92,-43,70,-2,-68,-39,-39,-48,-48,24,-48
-48,-97,-48,73,0,-73,-39,-39,-48,-48,24,-48
-48,-97,-48,73,0,-73,-39,-43,-48,-48,24,-48
-48,-97,-48,73,0,-73,-39,-43,-48,-48,24,-48
-48,-87,-39,68,-4,-63,-39,-34,-48,-53,19,-48
-48,-87,-39,68,-4,-63,-39,-34,-48,-53,14,-48
-48,-87,-39,68,-4,-63,-43,-34,-53,-53,9,-48
-48,-87,-39,68,-4,-63,-43,-34,-53,-53,4,-53
-48,-87,-39,68,-4,-63,-43,-34,-63,-53,0,-43
-48,-87,-39,68,-4,-63,-43,-34,-63,-53,-4,-43
-48,-87,-39,68,-4,-63,-43,-34,-63,-53,-9,-43
-48,-87,-39,68,-4,-63,-43,-34,-63,-53,-19,-43
-48,-87,-39,68,-4,-63,-34,-34,-73,-53,-24,-53
-48,-87,-39,68,-4,-63,-34,-34,-73,-58,-29,-53
-48,-87,-39,68,-4,-63,-34,-34,-73,-58,-34,-53
-48,-87,-39,68,-4,-63,-34,-34,-73,-58,-39,-58
-48,-87,-39,68,-4,-63,-43,-34,-73,-68,-48,-58
-48,-92,-43,70,-2,-68,-43,-34,-73,-68,-53,-58
-48,-92,-43,70,-2,-68,-43,-39,-78,-68,-53,-58
-53,-92,-39,73,-7,-65,-43,-39,-78,-73,-53,-58
-53,-92,-39,73,-7,-65,-43,-39,-68,-63,-63,-58
-53,-92,-39,73,-7,-65,-43,-39,-68,-63,-63,-58
-53,-92,-39,73,-7,-65,-43,-39,-68,-63,-63,-58
-58,-92,-34,75,-12,-63,-39,-39,-68,-63,-63,-58
-58,-92,-34,75,-12,-63,-48,-39,-68,-63,-73,-58
-58,-92,-34,75,-12,-63,-48,-34,-68,-63,-73,-58
-58,-97,-39,78,-9,-68,-48,-34,-73,-63,-73,-58
-58,-97,-39,78,-9,-68,-48,-39,-78,-63,-73,-58
-58,-97,-39,78,-9,-68,-48,-39,-78,-73,-82,-58
-58,-97,-39,78,-9,-68,-53,-43,-78,-73,-87,-58
-53,-97,-43,75,-4,-70,-53,-43,-78,-73,-87,-58
-53,-97,-43,75,-4,-70,-53,-43,-78,-73,-87,-63
-58,-97,-39,78,-9,-68,-43,-53,-78,-73,-87,-63
-58,-97,-39,78,-9,-68,-48,-53,-78,-73,-92,-63
-58,-97,-39,78,-9,-68,-48,-53,-78,-73,-92,-63
-58,-97,-39,78,-9,-68,-48,-53,-78,-73,-92,-63
-58,-97,-39,78,-9,-68,-48,-53,-78,-73,-92,-63
-58,-97,-39,78,-9,-68,-48,-53,-78,-73,-92,-63
-58,-97,-39,78,-9,-68,-48,-53,-78,-73,-92,-63
-58,-97,-39,78,-9,-68,-48,-53,-82,-78,-92,-63
-68,-97,-29,82,-19,-63,-48,-58,-82,-68,-92,-63
-68,-97,-29,82,-19,-63,-48,-58,-82,-68,-92,-63
-68,-102,-34,85,-17,-68,-48,-58,-82,-73,-97,-63
-68,-102,-34,85,-17,-68,-48,-58,-82,-73,-97,-63
-63,-102,-39,82,-12,-70,-48,-58,-82,-82,-97,-63
-63,-102,-39,82,-12,-70,-48,-58,-82,-82,-97,-63
-63,-102,-39,82,-12,-70,-48,-58,-82,-82,-97,-63
-63,-102,-39,82,-12,-70,-48,-58,-82,-82,-97,-63
-63,-102,-39,82,-12,-70,-48,-53,-82,-82,-97,-63
-63,-102,-39,82,-12,-70,-48,-53,-82,-82,-97,-68
-63,-102,-39,82,-12,-70,-48,-53,-82,-82,-97,-68
-63,-102,-39,82,-12,-70,-48,-53,-82,-82,-97,-68
-63,-102,-39,82,-12,-70,-48,-53,-82,-78,-97,-68
-63,-102,-39,82,-12,-70,-48,-53,-82,-78,-102,-68
-63,-102,-39,82,-12,-70,-48,-53,-82,-78,-102,-68
-63,-102,-39,82,-12,-70,-48,-53,-87,-78,-102,-68
-68,-102,-34,85,-17,-68,-48,-48,-87,-87,-102,-68
-68,-102,-34,85,-17,-68,-48,-48,-87,-82,-102,-68
-68,-102,-34,85,-17,-68,-48,-48,-87,-82,-102,-68
-68,-102,-34,85,-17,-68,-48,-48,-82,-82,-102,-68
-68,-102,-34,85,-17,-68,-39,-58,-82,-82,-112,-78
-68,-102,-34,85,-17,-68,-39,-58,-82,-82,-112,-78
-68,-102,-34,85,-17,-68,-39,-58,-82,-82,-112,-78
-68,-102,-34,85,-17,-68,-39,-58,-82,-82,-112,-78
-68,-102,-34,85,-17,-68,-48,-58,-82,-87,-112,-78
-68,-102,-34,85,-17,-68,-48,-58,-82,-87,-112,-78
-68,-107,-39,87,-14,-73,-53,-58,-82,-87,-112,-78
-68,-107,-39,87,-14,-73,-53,-58,-82,-87,-112,-78
-68,-107,-39,87,-14,-73,-43,-53,-87,-87,-102,-78
-68,-107,-39,87,-14,-73,-43,-53,-87,-87,-102,-78
-68,-107,-39,87,-14,-73,-43,-53,-87,-87,-102,-78
-68,-107,-39,87,-14,-73,-43,-53,-87,-87,-102,-78
-68,-97,-29,82,-19,-63,-53,-63,-82,-78,-102,-68
-68,-97,-29,82,-19,-63,-53,-63,-82,-78,-102,-68
-68,-97,-29,82,-19,-63,-53,-63,-82,-78,-102,-68
-68,-97,-29,82,-19,-63,-53,-58,-82,-78,-102,-68
-68,-97,-29,82,-19,-63,-53,-58,-78,-78,-102,-68
-68,-97,-29,82,-19,-63,-53,-58,-78,-78,-102,-73
-68,-97,-29,82,-19,-63,-53,-58,-78,-78,-102,-73
-68,-97,-29,82,-19,-63,-53,-58,-78,-78,-102,-73
-68,-97,-29,82,-19,-63,-43,-58,-78,-87,-97,-73
-68,-97,-29,82,-19,-63,-43,-58,-78,-87,-97,-73
-68,-97,-29,82,-19,-63,-43,-58,-78,-87,-97,-73
-68,-97,-29,82,-19,-63,-43,-58,-82,-87,-97,-73
-68,-97,-29,82,-19,-63,-43,-58,-82,-87,-92,-73
-68,-107,-39,87,-14,-73,-34,-53,-82,-78,-92,-63
-68,-107,-39,87,-14,-73,-34,-53,-82,-78,-92,-63
-73,-107,-34,90,-19,-70,-43,-63,-82,-87,-92,-63
-78,-107,-29,92,-24,-68,-39,-58,-78,-87,-97,-68
-78,-107,-29,92,-24,-68,-39,-58,-87,-87,-97,-68
-78,-107,-29,92,-24,-68,-39,-58,-87,-87,-97,-68
-78,-107,-29,92,-24,-68,-39,-58,-87,-87,-97,-68
-78,-107,-29,92,-24,-68,-39,-58,-87,-87,-97,-68
-68,-107,-39,87,-14,-73,-39,-58,-78,-78,-97,-68
-68,-107,-39,87,-14,-73,-39,-58,-78,-78,-97,-68
-68,-107,-39,87,-14,-73,-39,-58,-78,-78,-97,-68
-68,-107,-39,87,-14,-73,-39,-58,-78,-78,-97,-68
-78,-107,-29,92,-24,-68,-48,-58,-78,-78,-87,-68
-78,-107,-29,92,-24,-68,-48,-58,-78,-78,-87,-68
-78,-107,-29,92,-24,-68,-48,-58,-78,-78,-87,-68
-78,-107,-29,92,-24,-68,-48,-58,-78,-78,-87,-68
-78,-107,-29,92,-24,-68,-48,-58,-78,-78,-87,-68
-78,-107,-29,92,-24,-68,-48,-58,-78,-78,-87,-68
-78,-107,-29,92,-24,-68,-48,-58,-78,-78,-87,-68
-78,-107,-29,92,-24,-68,-48,-58,-78,-78,-87,-68
-78,-97,-19,87,-29,-58,-39,-58,-78,-78,-87,-68
-78,-97,-19,87,-29,-58,-39,-58,-78,-78,-87,-68
-78,-97,-19,87,-29,-58,-39,-58,-78,-78,-87,-68
-78,-97,-19,87,-29,-58,-39,-58,-78,-78,-87,-68
-78,-107,-29,92,-24,-68,-48,-58,-78,-78,-87,-68
-78,-107,-29,92,-24,-68,-48,-58,-78,-78,-87,-68
-78,-107,-29,92,-24,-68,-48,-58,-78,-78,-87,-68
-78,-107,-29,92,-24,-68,-48,-58,-78,-78,-87,-68
-78,-107,-29,92,-24,-68,-48,-58,-78,-78,-78,-68
-78,-107,-29,92,-24,-68,-48,-58,-78,-78,-78,-68
-78,-107,-29,92,-24,-68,-48,-58,-78,-78,-78,-68
-78,-107,-29,92,-24,-68,-48,-58,-78,-78,-78,-68
-78,-107,-29,92,-24,-68,-48,-58,-78,-78,-78,-68
-78,-107,-29,92,-24,-68,-48,-58,-78,-78,-78,-68
-78,-107,-29,92,-24,-68,-48,-58,-78,-78,-78,-68
-78,-107,-29,92,-24,-68,-48,-58,-78,-78,-78,-68
-78,-117,-39,97,-19,-78,-39,-58,-78,-78,-78,-68
-78,-117,-39,97,-19,-78,-39,-58,-78,-78,-78,-68
-78,-117,-39,97,-19,-78,-39,-58,-78,-78,-78,-68
-78,-117,-39,97,-19,-78,-39,-58,-78,-78,-78,-68
-78,-117,-39,97,-19,-78,-39,-58,-78,-78,-78,-58
-78,-117,-39,97,-19,-78,-39,-58,-78,-78,-78,-58
-78,-117,-39,97,-19,-78,-39,-58,-78,-78,-78,-58
-78,-117,-39,97,-19,-78,-39,-58,-78,-78,-78,-58
-78,-107,-29,92,-24,-68,-48,-58,-78,-78,-68,-58
-78,-107,-29,92,-24,-68,-48,-58,-78,-78,-68,-58
-78,-107,-29,92,-24,-68,-48,-58,-78,-78,-68,-58
-78,-107,-29,92,-24,-68,-48,-58,-78,-78,-68,-58
-78,-107,-29,92,-24,-68,-48,-58,-78,-78,-68,-58
-78,-107,-29,92,-24,-68,-48,-58,-78,-78,-68,-58
-78,-107,-29,92,-24,-68,-48,-58,-78,-78,-68,-58
-78,-107,-29,92,-24,-68,-48,-58,-78,-78,-68,-58
-78,-107,-29,92,-24,-68,-39,-48,-78,-78,-68,-58
-78,-107,-29,92,-24,-68,-39,-48,-78,-78,-68,-58
-78,-107,-29,92,-24,-68,-39,-48,-78,-78,-68,-58
-78,-107,-29,92,-24,-68,-39,-48,-78,-78,-68,-58
-78,-107,-29,92,-24,-68,-39,-58,-87,-78,-78,-68
-78,-107,-29,92,-24,-68,-39,-58,-87,-78,-78,-68
-78,-107,-29,92,-24,-68,-39,-58,-87,-78,-78,-68
-78,-107,-29,92,-24,-68,-39,-58,-87,-78,-78,-68
-78,-107,-29,92,-24,-68,-48,-58,-87,-78,-78,-68
-78,-107,-29,92,-24,-68,-48,-58,-87,-78,-78,-68
-78,-107,-29,92,-24,-68,-48,-58,-87,-78,-78,-68
-78,-107,-29,92,-24,-68,-48,-58,-87,-78,-78,-68
-78,-107,-29,92,-24,-68,-48,-58,-87,-78,-68,-68
-78,-107,-29,92,-24,-68,-48,-58,-87,-78,-68,-68
-78,-107,-29,92,-24,-68,-48,-58,-87,-78,-68,-68
-78,-107,-29,92,-24,-68,-48,-58,-87,-78,-68,-68
-78,-107,-29,92,-24,-68,-48,-58,-78,-78,-68,-68
-78,-107,-29,92,-24,-68,-48,-58,-78,-78,-68,-68
-78,-107,-29,92,-24,-68,-48,-58,-78,-78,-68,-68
-78,-107,-29,92,-24,-68,-48,-58,-78,-78,-68,-68
-78,-107,-29,92,-24,-68,-48,-58,-87,-78,-68,-58
-78,-107,-29,92,-24,-68,-48,-58,-87,-78,-68,-58
-78,-107,-29,92,-24,-68,-48,-58,-87,-78,-68,-58
-78,-107,-29,92,-24,-68,-48,-58,-87,-78,-68,-58
-68,-97,-29,82,-19,-63,-48,-48,-78,-78,-68,-58
-68,-97,-29,82,-19,-63,-48,-48,-78,-78,-68,-58
-68,-97,-29,82,-19,-63,-48,-48,-78,-78,-68,-58
-68,-97,-29,82,-19,-63,-48,-48,-78,-78,-68,-58
-68,-87,-19,78,-24,-53,-39,-48,-78,-68,-58,-58
-68,-87,-19,78,-24,-53,-39,-48,-78,-68,-58,-58
-68,-87,-19,78,-24,-53,-39,-48,-78,-68,-58,-58
-68,-87,-19,78,-24,-53,-39,-48,-78,-68,-58,-58
-58,-82,-24,70,-17,-53,-29,-43,-73,-58,-53,-48
-58,-78,-19,68,-19,-48,-29,-39,-68,-58,-48,-48
-58,-73,-14,65,-21,-43,-29,-34,-63,-58,-43,-48
-58,-68,-9,63,-24,-39,-29,-29,-58,-58,-39,-48
-48,-63,-14,56,-17,-39,-24,-29,-48,-48,-29,-39
-48,-58,-9,53,-19,-34,-19,-29,-48,-48,-29,-39
-48,-53,-4,51,-21,-29,-14,-29,-48,-48,-29,-39
-48,-48,0,48,-24,-24,-9,-29,-48,-48,-29,-39
-48,-39,9,43,-29,-14,0,-29,-39,-39,-29,-39
-48,-39,9,43,-29,-14,0,-29,-39,-39,-29,-39
-48,-39,9,43,-29,-14,0,-29,-39,-39,-29,-39
-48,-39,9,43,-29,-14,0,-29,-39,-39,-29,-39
-39,-39,0,39,-19,-19,9,-19,-39,-39,-19,-39
-39,-39,0,39,-19,-19,9,-19,-39,-39,-19,-39
-39,-39,0,39,-19,-19,9,-19,-39,-39,-19,-39
-39,-39,0,39,-19,-19,9,-19,-39,-39,-19,-39
-29,-29,0,29,-14,-14,9,-14,-29,-34,-9,-29
-29,-29,0,29,-14,-14,9,-9,-29,-29,-9,-29
-29,-29,0,29,-14,-14,9,-4,-29,-24,-9,-29
-29,-29,0,29,-14,-14,9,0,-29,-19,-9,-29
-24,-14,9,19,-17,-2,14,0,-24,-4,4,-14
-19,0,19,9,-19,9,9,0,-19,-4,9,-9
-9,9,19,0,-14,14,0,-4,-14,-4,14,-4
-4,9,14,-2,-9,12,-9,-4,-9,-4,14,0
4,0,-4,-2,4,-2,-19,-4,-9,-4,19,0
4,0,-4,-2,4,-2,-29,-9,-9,-4,19,0
9,0,-9,-4,9,-4,-39,-14,-19,-14,14,-4
9,-9,-19,0,14,-14,-39,-19,-24,-14,14,-4
9,-14,-24,2,17,-19,-43,-24,-24,-19,14,-14
9,-19,-29,4,19,-24,-53,-24,-29,-24,9,-14
9,-24,-34,7,21,-29,-58,-24,-34,-24,4,-14
14,-34,-48,9,31,-41,-63,-24,-39,-24,4,-14
9,-29,-39,9,24,-34,-68,-34,-39,-34,4,-14
9,-34,-43,12,26,-39,-68,-34,-39,-34,4,-14
9,-39,-48,14,29,-43,-73,-34,-43,-39,4,-14
