I,II,III,aVR,aVL,aVF,V1,V2,V3,V4,V5,V6
-38,50,120,-7,-82,88,17,14,19,24,-35,-39
-38,50,122,-7,-83,89,14,13,17,23,-35,-39
-38,50,122,-7,-83,89,12,11,15,21,-35,-39
-40,50,123,-6,-84,89,9,10,14,20,-36,-40
-42,50,126,-5,-87,91,5,9,12,18,-37,-41
-45,50,130,-4,-90,92,1,8,10,17,-38,-42
-48,50,134,-2,-94,95,-3,7,8,15,-39,-43
-49,49,135,-1,-96,94,-6,6,7,14,-40,-44
-50,47,132,1,-95,92,-9,6,7,14,-40,-44
-51,44,130,3,-94,89,-11,5,7,14,-41,-45
-51,42,126,5,-93,85,-13,5,7,14,-41,-45
-49,39,120,5,-89,80,-15,5,7,14,-41,-45
-47,36,113,6,-84,75,-15,5,7,14,-41,-45
-45,33,105,6,-79,70,-16,5,7,14,-41,-45
-41,30,97,6,-73,64,-16,5,7,14,-41,-45
-40,27,91,6,-68,59,-16,6,7,14,-41,-45
-39,24,86,8,-66,55,-16,7,9,15,-41,-45
-38,21,81,9,-63,51,-16,8,10,17,-41,-45
-38,18,77,11,-61,47,-16,9,12,18,-41,-45
-37,16,73,11,-58,44,-15,10,13,19,-41,-45
-35,16,69,10,-55,42,-13,10,13,20,-41,-45
-32,15,64,9,-51,39,-11,10,14,20,-41,-45
-29,15,60,8,-47,38,-9,10,14,20,-41,-45
-27,14,56,7,-44,35,-8,11,14,20,-40,-44
-27,12,52,8,-42,32,-7,12,14,20,-39,-43
-26,9,48,9,-39,28,-7,13,14,20,-38,-42
-26,6,44,11,-38,24,-7,14,14,20,-37,-41
-26,4,40,12,-35,20,-7,15,14,20,-36,-40
-26,1,37,14,-34,17,-7,15,14,20,-36,-40
-26,-2,33,16,-31,14,-7,15,14,20,-35,-39
-26,-5,29,17,-30,10,-7,15,14,20,-35,-39
-26,-8,24,19,-28,6,-6,15,14,20,-36,-39
-26,-11,20,20,-26,2,-4,15,14,20,-37,-39
-26,-13,16,22,-24,-2,-3,15,14,20,-38,-39
-26,-16,12,23,-22,-5,-0,15,14,20,-39,-39
-26,-19,8,25,-20,-8,1,15,13,19,-40,-40
-26,-22,4,27,-18,-12,1,14,12,18,-40,-41
-26,-25,0,29,-16,-16,1,13,10,17,-41,-42
-26,-28,-4,30,-14,-20,1,11,8,15,-41,-43
-26,-30,-7,31,-13,-22,2,11,7,14,-41,-44
-26,-30,-7,31,-13,-23,4,10,7,14,-41,-44
-26,-31,-8,32,-12,-23,6,10,7,14,-41,-45
-26,-31,-8,32,-12,-23,8,10,7,14,-41,-45
-27,-31,-7,32,-13,-23,9,11,7,14,-41,-45
-30,-31,-3,34,-17,-21,10,12,9,14,-41,-45
-32,-31,0,35,-20,-20,10,13,10,14,-41,-45
-35,-31,4,36,-24,-18,10,14,12,14,-41,-45
-37,-30,8,37,-27,-15,11,15,13,14,-41,-45
-38,-28,12,36,-29,-12,13,15,13,15,-41,-45
-38,-25,16,35,-31,-8,14,15,14,17,-41,-45
-38,-22,20,33,-34,-5,16,15,14,18,-41,-45
-39,-20,24,32,-36,-2,19,15,14,20,-41,-45
-39,-20,24,32,-36,-2,19,15,14,20,-41,-45
-39,-20,24,32,-36,-2,19,15,21,20,-41,-45
-51,-20,41,39,-52,6,27,25,28,26,-41,-45
-51,-20,41,39,-52,6,45,34,42,32,-41,-50
-63,-20,57,45,-68,14,53,39,56,32,-46,-66
-76,-20,73,52,-83,21,79,53,77,45,-46,-71
-76,-8,90,45,-91,36,88,63,84,45,-46,-76
-63,-8,73,39,-75,29,88,63,84,51,-46,-76
-63,-32,41,52,-60,-2,88,63,91,57,-41,-71
-39,4,57,19,-52,29,88,67,98,69,-36,-66
-27,27,73,0,-52,52,79,72,112,88,-15,-50
10,39,41,-26,-13,44,62,72,126,107,11,-34
46,62,24,-58,19,52,45,67,126,119,32,-19
83,85,8,-91,50,59,1,58,126,144,63,18
144,109,-41,-136,113,52,-59,39,112,144,89,54
193,144,-57,-182,153,67,-111,10,70,144,115,91
229,203,-24,-234,160,120,-172,-33,14,125,131,133
278,249,-24,-286,192,150,-241,-75,-43,113,152,169
315,285,-24,-325,215,173,-284,-95,-71,113,183,216
327,296,-24,-338,223,180,-310,-118,-99,100,193,248
327,308,-8,-344,215,195,-319,-128,-106,100,204,268
315,308,8,-338,200,203,-319,-128,-113,94,204,279
278,320,73,-325,145,241,-302,-137,-120,82,204,289
278,331,90,-331,137,256,-284,-128,-120,82,220,305
254,331,122,-318,105,271,-276,-123,-120,76,220,315
241,296,90,-292,113,233,-258,-118,-134,38,188,300
217,261,73,-260,105,203,-224,-118,-169,-30,131,268
180,226,73,-221,82,180,-189,-109,-198,-85,68,221
132,179,73,-169,50,150,-146,-104,-226,-141,1,169
107,156,73,-143,35,135,-111,-90,-233,-172,-51,127
83,132,73,-117,19,120,-94,-85,-233,-185,-83,86
71,97,41,-91,27,82,-77,-85,-233,-185,-103,54
22,74,73,-52,-20,82,-68,-85,-219,-178,-114,28
-15,50,90,-19,-52,74,-42,-71,-198,-166,-119,-3
-15,50,90,-19,-52,74,-42,-71,-198,-166,-119,-3
-15,50,90,-19,-52,74,-42,-71,-198,-166,-119,-3
-15,50,90,-19,-52,74,-42,-71,-198,-166,-119,-3
-15,50,90,-19,-52,74,-42,-71,-198,-166,-119,-3
-15,50,90,-19,-52,74,-42,-71,-198,-166,-119,-3
-15,50,90,-19,-52,74,-42,-71,-198,-166,-119,-3
-27,-32,-8,32,-13,-24,27,20,7,14,-46,-45
-27,-32,-8,32,-13,-24,27,20,7,14,-46,-45
-27,-32,-8,32,-13,-24,27,20,7,14,-46,-45
-27,-32,-8,32,-13,-24,27,20,7,14,-46,-45
-27,-32,-8,32,-13,-24,36,20,14,14,-36,-45
-27,-32,-8,32,-13,-24,36,25,21,20,-36,-45
-39,-32,8,39,-28,-17,53,25,28,20,-36,-45
-38,-20,23,32,-35,-2,53,25,28,24,-35,-45
-38,-11,36,27,-41,9,53,25,28,25,-35,-45
-38,-2,49,22,-47,21,53,25,28,26,-35,-45
-38,6,60,18,-53,32,53,25,28,26,-35,-45
-38,14,71,13,-58,42,52,24,28,26,-35,-45
-38,20,80,10,-63,50,48,23,28,26,-35,-45
-38,27,89,6,-67,58,45,22,28,26,-35,-45
-38,33,97,3,-71,66,40,21,28,26,-35,-45
-38,37,103,1,-74,71,36,19,27,26,-35,-45
-38,38,104,0,-75,73,32,17,26,26,-35,-45
-38,39,105,-1,-75,73,27,15,24,26,-35,-45
-38,39,105,-1,-75,73,23,13,23,26,-35,-45
-40,39,107,0,-76,74,19,11,21,25,-35,-45
-42,39,110,1,-79,76,17,9,19,24,-35,-46
-45,39,113,3,-83,77,14,8,17,23,-35,-47
-48,39,117,5,-86,80,12,7,15,21,-35,-49
-49,37,118,6,-88,79,10,6,14,20,-35,-49
-50,35,116,8,-87,77,8,6,14,18,-35,-50
-51,33,113,9,-86,73,6,5,14,17,-35,-50
-51,30,109,11,-85,70,3,5,14,15,-35,-50
-51,27,105,12,-83,66,1,6,14,14,-35,-50
-51,24,101,14,-81,62,-0,7,14,14,-35,-50
-51,21,97,16,-79,58,-3,8,14,14,-35,-50
-51,18,93,18,-77,55,-5,9,14,14,-35,-50
-49,15,87,18,-73,50,-6,10,14,14,-35,-50
-47,12,80,19,-68,45,-6,10,16,15,-35,-50
-45,9,73,19,-63,39,-7,10,17,17,-35,-50
-41,6,64,19,-57,34,-7,10,19,18,-35,-50
-40,4,58,19,-53,29,-6,11,20,19,-35,-50
-39,1,54,21,-50,26,-4,12,20,20,-34,-50
-38,-2,49,22,-47,21,-3,13,21,20,-33,-50
-38,-5,45,23,-46,17,-0,14,21,20,-32,-50
-37,-8,39,25,-42,13,1,15,21,20,-31,-49
-35,-11,32,25,-37,8,1,15,23,22,-30,-48
-32,-13,24,25,-31,2,1,15,24,23,-30,-47
-29,-16,16,25,-26,-3,1,15,26,24,-30,-46
-27,-18,11,25,-22,-6,1,15,27,25,-30,-45
-27,-19,10,25,-21,-8,1,16,27,26,-29,-45
-26,-19,8,25,-20,-8,1,17,28,26,-28,-45
-26,-19,8,25,-20,-8,1,19,28,26,-26,-45
-27,-20,8,27,-20,-9,2,19,28,26,-26,-45
-30,-23,8,29,-22,-11,4,20,28,26,-25,-45
-32,-25,8,32,-24,-12,6,20,28,26,-25,-45
-35,-28,8,35,-26,-14,8,20,28,26,-25,-45
-37,-30,8,37,-27,-15,9,20,28,26,-25,-45
-38,-30,8,38,-28,-16,10,20,28,26,-25,-45
-38,-31,8,38,-28,-16,10,20,28,26,-25,-45
-38,-31,8,38,-28,-16,10,20,28,26,-25,-45
-38,-31,8,38,-28,-16,10,20,28,26,-25,-45
-38,-31,8,38,-28,-16,10,20,28,26,-25,-45
-38,-31,8,38,-28,-16,10,20,28,26,-25,-45
-38,-31,8,38,-28,-16,10,20,28,26,-25,-45
-38,-31,8,38,-28,-16,10,20,28,26,-25,-45
-38,-31,8,38,-28,-16,10,20,28,26,-25,-45
-38,-31,8,38,-28,-16,10,20,28,26,-25,-45
-38,-31,8,38,-28,-16,10,20,28,26,-25,-45
-38,-32,7,39,-27,-17,10,20,28,26,-24,-45
-38,-35,3,40,-25,-20,10,20,28,26,-23,-45
-38,-37,0,42,-24,-23,10,20,28,26,-22,-45
-38,-40,-4,43,-22,-27,10,20,28,26,-21,-45
-38,-42,-7,44,-20,-30,10,20,29,27,-20,-44
-38,-42,-7,44,-20,-30,10,20,30,28,-20,-43
-38,-43,-8,45,-20,-31,10,20,31,29,-20,-42
-38,-43,-8,45,-20,-31,10,20,33,31,-20,-41
-38,-43,-8,45,-20,-31,10,20,35,32,-19,-39
-38,-43,-8,45,-20,-31,10,21,37,32,-18,-38
-38,-43,-8,45,-20,-31,10,22,38,32,-17,-37
-38,-43,-8,45,-20,-31,10,23,40,32,-16,-36
-38,-43,-8,45,-20,-31,10,24,41,33,-15,-35
-38,-43,-8,45,-20,-31,10,24,42,34,-13,-34
-38,-43,-8,45,-20,-31,10,25,42,35,-12,-34
-38,-43,-8,45,-20,-31,10,25,42,37,-11,-34
-38,-43,-8,45,-20,-31,10,25,42,38,-9,-34
-38,-43,-8,45,-20,-31,10,25,42,38,-8,-33
-38,-43,-8,45,-20,-31,10,25,42,38,-7,-32
-38,-43,-8,45,-20,-31,10,25,42,38,-5,-30
-37,-43,-10,44,-18,-32,10,25,43,39,-4,-29
-35,-43,-13,43,-15,-33,10,26,44,40,-1,-28
-32,-43,-16,42,-12,-35,10,27,45,41,1,-26
-29,-43,-20,40,-8,-37,10,28,47,43,3,-25
-27,-44,-24,40,-5,-39,11,29,48,45,5,-24
-27,-46,-29,41,-2,-43,13,29,49,46,7,-22
-26,-49,-33,42,0,-46,14,29,49,48,9,-21
-26,-52,-37,44,2,-50,16,29,49,49,10,-20
-26,-53,-39,44,3,-52,18,30,50,50,11,-19
-26,-54,-40,45,3,-53,18,31,51,50,13,-19
-26,-54,-41,45,4,-54,19,32,52,51,14,-19
-26,-54,-41,45,4,-54,19,33,54,51,15,-19
-25,-54,-42,44,6,-55,19,34,55,51,16,-18
-23,-54,-46,43,9,-56,19,34,56,53,18,-17
-20,-54,-49,42,12,-58,19,34,56,54,19,-16
-17,-54,-53,40,16,-60,19,34,56,55,20,-15
-15,-53,-54,38,17,-59,19,34,57,57,22,-13
-15,-51,-51,37,17,-57,19,34,58,59,23,-10
-14,-49,-49,35,16,-54,19,34,60,60,24,-8
-14,-46,-45,34,13,-50,19,34,61,62,26,-5
-12,-41,-41,30,13,-45,19,35,64,64,27,-3
-7,-33,-37,23,14,-39,21,35,67,67,30,-0
-2,-25,-33,16,16,-31,23,36,70,69,32,2
4,-16,-29,8,17,-23,25,38,74,72,35,5
9,-8,-23,0,18,-15,26,39,76,75,36,7
13,1,-15,-6,17,-6,27,40,79,75,37,7
16,9,-8,-13,15,2,27,41,81,76,37,7
19,18,0,-19,13,11,27,42,82,76,37,7
21,25,7,-25,10,20,28,44,83,76,37,7
21,29,12,-27,9,24,30,45,84,76,37,7
22,33,16,-29,7,29,32,46,84,76,37,7
22,36,20,-31,5,33,34,47,84,76,37,7
22,39,24,-32,3,36,35,48,84,76,37,7
22,42,29,-34,1,40,35,48,84,76,36,7
22,44,33,-36,-1,44,36,48,84,76,35,7
22,47,37,-38,-3,48,36,48,84,76,33,7
21,52,44,-39,-7,54,36,48,83,75,32,7
18,57,55,-41,-14,62,36,46,82,74,31,4
16,62,65,-42,-20,70,36,44,81,72,29,2
13,68,77,-44,-28,80,36,41,79,71,28,-0
9,72,88,-44,-36,87,34,38,76,68,26,-3
4,73,97,-42,-44,92,29,34,71,64,24,-5
-2,74,105,-40,-51,96,23,29,67,60,22,-8
-8,74,113,-36,-59,100,16,25,61,55,19,-11
-13,74,120,-34,-65,103,10,20,57,51,16,-13
-16,74,125,-32,-70,105,3,18,53,48,14,-16
-20,74,130,-30,-75,108,-3,15,49,45,11,-19
-23,74,134,-28,-79,110,-9,13,45,41,9,-21
-26,73,136,-26,-82,110,-13,11,42,38,5,-23
-29,70,137,-23,-84,109,-15,9,38,35,2,-25
-32,68,138,-20,-86,108,-15,8,35,32,-2,-26
-35,65,138,-17,-89,106,-16,7,31,29,-5,-28
-37,61,135,-14,-88,102,-16,6,29,27,-9,-29
-38,58,131,-12,-87,98,-17,6,27,25,-10,-30
-38,57,131,-10,-87,97,-18,5,26,25,-10,-30
-38,56,130,-10,-86,96,-18,5,26,24,-11,-30
-38,56,130,-10,-86,96,-18,5,26,24,-11,-30
-38,56,130,-10,-86,96,-18,5,26,24,-11,-30
-38,56,130,-10,-86,96,-18,5,26,24,-11,-30
-35,43,108,-5,-74,78,-20,5,24,23,-12,-32
-31,26,78,3,-57,53,-23,5,22,21,-14,-33
-30,21,69,5,-52,45,-24,5,21,20,-14,-34
-29,19,66,5,-50,43,-24,5,21,20,-15,-34
-28,18,62,6,-47,40,-24,5,21,20,-15,-34
-26,16,56,5,-43,36,-24,6,21,20,-15,-34
-23,15,52,5,-39,34,-24,7,21,20,-15,-34
-20,15,48,3,-35,32,-24,8,21,20,-15,-34
-17,15,44,1,-31,30,-24,9,21,20,-15,-34
-15,14,40,1,-28,27,-24,10,21,20,-14,-34
-15,12,36,2,-26,24,-24,10,21,20,-13,-34
-14,9,32,3,-24,20,-24,10,21,20,-12,-34
-14,6,28,5,-22,17,-24,10,21,20,-11,-34
-14,3,23,6,-19,12,-24,10,21,20,-10,-34
-14,-2,15,9,-16,5,-24,10,21,20,-10,-34
-14,-8,8,12,-12,-2,-24,10,21,20,-9,-34
-14,-13,0,16,-8,-8,-24,10,21,20,-9,-34
-15,-18,-4,18,-7,-13,-23,10,21,20,-10,-34
-18,-19,-2,20,-9,-13,-22,10,21,20,-11,-34
-20,-19,0,22,-12,-12,-20,10,21,20,-12,-34
-23,-19,4,23,-16,-11,-18,10,21,20,-13,-34
-25,-20,5,25,-17,-11,-16,10,20,19,-14,-34
-26,-23,2,27,-17,-14,-16,10,19,18,-14,-34
-26,-25,0,29,-16,-16,-16,10,17,17,-15,-34
-26,-28,-4,30,-14,-20,-16,10,15,15,-15,-34
-26,-30,-7,31,-13,-22,-15,10,14,14,-15,-35
-26,-30,-7,31,-13,-23,-13,10,14,14,-15,-36
-26,-31,-8,32,-12,-23,-11,10,14,14,-15,-37
-26,-31,-8,32,-12,-23,-9,10,14,14,-15,-38
-26,-31,-8,32,-12,-23,-8,10,14,14,-15,-39
-26,-31,-8,32,-12,-23,-7,10,14,14,-15,-39
-26,-31,-8,32,-12,-23,-7,10,14,14,-15,-39
-26,-31,-8,32,-12,-23,-7,10,14,14,-15,-39
-26,-31,-8,32,-12,-23,-7,10,14,14,-15,-39
-26,-31,-8,32,-12,-23,-7,10,14,14,-15,-39
-26,-31,-8,32,-12,-23,-7,10,14,14,-15,-39
-26,-31,-8,32,-12,-23,-7,10,14,14,-15,-39
-26,-31,-8,32,-12,-23,-7,10,14,14,-15,-39
-26,-31,-8,32,-12,-23,-7,10,14,14,-15,-39
-26,-31,-8,32,-12,-23,-7,10,14,14,-15,-39
-26,-31,-8,32,-12,-23,-7,10,14,14,-15,-39
-26,-31,-8,32,-12,-23,-4,12,16,14,-15,-39
-26,-31,-8,32,-12,-23,0,14,19,14,-15,-39
-27,-32,-8,32,-13,-24,1,15,21,14,-15,-40
-27,-32,-8,32,-13,-24,10,15,21,14,-10,-34
-27,-32,-8,32,-13,-24,10,15,21,14,-10,-34
-27,-32,-8,32,-13,-24,10,15,21,14,-10,-34
-27,-32,-8,32,-13,-24,10,15,28,20,-4,-34
-39,-32,8,39,-28,-17,10,20,35,26,1,-34
-39,-20,24,32,-36,-2,19,20,49,32,1,-34
-51,-20,41,39,-52,6,36,29,63,38,-4,-40
-51,4,73,26,-68,36,53,39,77,45,-10,-45
-63,4,90,32,-83,44,62,48,91,51,-10,-50
-63,15,106,26,-91,59,62,48,91,57,6,-50
-39,39,106,0,-75,74,53,53,98,69,16,-40
-27,39,90,-6,-60,67,45,53,112,88,32,-24
22,74,73,-52,-20,82,36,53,133,119,63,2
46,97,73,-78,-5,97,19,53,133,137,84,28
83,97,24,-97,42,74,-25,48,148,156,115,54
132,121,-8,-136,90,74,-59,39,148,175,152,91
168,144,-24,-169,121,82,-103,20,119,175,183,133
241,179,-73,-227,192,82,-155,-18,70,162,199,169
278,203,-90,-260,223,89,-206,-47,35,156,225,211
327,238,-106,-305,263,105,-258,-71,-14,150,251,253
363,261,-122,-338,294,112,-293,-90,-36,150,277,295
376,285,-106,-357,294,135,-310,-104,-57,144,292,326
376,296,-90,-364,286,150,-319,-118,-85,125,292,342
363,320,-41,-370,255,188,-319,-118,-85,113,292,357
327,320,8,-351,208,211,-293,-118,-85,107,292,368
315,273,-41,-318,223,158,-276,-114,-99,69,261,347
290,226,-73,-279,223,112,-250,-114,-148,-5,199,305
254,156,-122,-221,223,44,-215,-109,-190,-92,115,248
205,97,-139,-162,200,-2,-172,-99,-219,-160,32,180
168,62,-139,-123,176,-24,-120,-80,-226,-197,-41,122
144,50,-122,-104,153,-24,-94,-75,-226,-197,-72,80
107,39,-90,-78,113,-17,-77,-71,-212,-191,-83,49
83,39,-57,-65,82,-2,-59,-56,-176,-166,-83,23
46,39,-8,-45,35,21,-25,-42,-141,-135,-72,13
34,39,8,-39,19,29,-16,-37,-120,-116,-72,-8
10,27,24,-19,-5,29,-16,-33,-92,-98,-67,-24
-2,27,41,-13,-20,36,1,-18,-57,-67,-51,-29
-2,27,41,-13,-20,36,1,-14,-36,-42,-41,-29
-15,15,41,0,-28,29,-16,-9,-14,-24,-30,-29
-15,-8,8,13,-13,-2,10,5,7,-5,-25,-29
-15,-8,8,13,-13,-2,10,5,7,-5,-25,-29
-15,-8,8,13,-13,-2,10,5,7,-5,-25,-29
-15,-8,8,13,-13,-2,10,5,7,-5,-25,-29
-15,-8,8,13,-13,-2,10,5,7,-5,-25,-29
-15,-8,8,13,-13,-2,10,5,7,-5,-25,-29
-15,-8,8,13,-13,-2,10,5,7,-5,-25,-29
-33,33,90,0,-64,63,32,20,45,38,9,-32
-32,33,89,-1,-63,62,32,20,45,38,9,-32
-32,33,89,-1,-63,62,32,20,45,38,9,-32
-34,34,92,-1,-65,64,29,19,45,38,8,-32
-36,36,99,-1,-70,69,24,17,43,38,7,-33
-38,38,104,0,-75,73,20,15,42,38,6,-34
-41,39,109,1,-79,76,17,13,40,37,6,-34
-45,39,113,3,-83,77,14,10,38,35,6,-34
-48,39,117,5,-86,80,12,8,37,34,6,-34
-49,37,118,6,-88,79,9,6,35,32,5,-35
-50,35,116,8,-87,77,5,6,33,31,3,-36
-51,33,113,9,-86,73,1,5,31,29,1,-37
-51,30,109,11,-85,70,-3,5,30,28,-2,-38
-51,27,105,12,-83,66,-6,5,29,27,-3,-39
-51,24,101,14,-81,62,-9,5,28,26,-4,-39
-51,21,97,16,-79,58,-11,5,28,26,-4,-39
-51,18,93,18,-77,55,-13,5,28,26,-4,-39
-49,16,89,18,-74,52,-15,5,28,27,-4,-39
-47,16,85,17,-71,49,-15,5,28,28,-3,-39
-45,15,81,16,-67,47,-16,5,28,29,-2,-39
-41,15,77,14,-63,45,-16,5,28,31,-0,-39
-38,13,70,14,-58,41,-16,6,28,32,1,-39
-35,9,60,14,-51,33,-16,7,28,32,2,-39
-32,4,48,16,-43,24,-16,8,28,32,3,-39
-29,-2,37,17,-35,16,-16,9,28,32,5,-39
-27,-6,28,19,-30,8,-16,10,29,33,6,-39
-27,-10,22,20,-27,4,-16,10,30,34,7,-38
-26,-13,16,22,-24,-2,-16,10,31,35,9,-37
-26,-16,12,23,-22,-5,-16,10,33,37,10,-36
-26,-18,10,25,-20,-7,-16,10,34,38,11,-35
-26,-19,9,25,-20,-8,-16,10,35,38,11,-34
-26,-19,8,25,-20,-8,-16,10,35,38,11,-34
-26,-19,8,25,-20,-8,-16,10,35,38,11,-34
-26,-19,8,25,-20,-8,-16,11,35,38,11,-34
-26,-19,8,25,-20,-8,-16,12,35,38,11,-34
-26,-19,8,25,-20,-8,-16,13,35,38,11,-34
-26,-19,8,25,-20,-8,-16,14,35,38,11,-34
-27,-20,8,27,-20,-9,-16,15,35,38,11,-34
-30,-23,8,29,-22,-11,-16,15,35,38,11,-33
-32,-25,8,32,-24,-12,-16,15,35,38,11,-32
-35,-28,8,35,-26,-14,-16,15,35,38,11,-30
-37,-30,8,37,-27,-15,-15,15,35,38,12,-30
-38,-30,8,38,-28,-16,-13,15,35,38,13,-29
-38,-31,8,38,-28,-16,-11,15,35,38,14,-29
-38,-31,8,38,-28,-16,-9,15,35,38,15,-29
-38,-31,8,38,-28,-16,-8,15,35,38,16,-29
-38,-31,8,38,-28,-16,-7,15,35,38,16,-29
-38,-31,8,38,-28,-16,-7,15,35,38,16,-29
-38,-31,8,38,-28,-16,-7,15,35,38,16,-29
-37,-31,7,38,-26,-17,-7,15,36,39,17,-29
-35,-31,3,36,-23,-18,-7,15,37,40,18,-29
-32,-31,0,35,-20,-20,-7,15,38,41,19,-29
-29,-31,-4,33,-16,-22,-7,15,40,43,20,-29
-27,-31,-7,32,-13,-23,-6,15,42,45,22,-28
-27,-31,-7,32,-13,-23,-4,15,44,46,23,-27
-26,-31,-8,32,-12,-23,-3,15,45,48,24,-26
-26,-31,-8,32,-12,-23,-0,15,47,49,26,-25
-26,-31,-8,32,-12,-23,1,15,49,51,27,-24
-26,-31,-8,32,-12,-23,1,16,51,52,28,-22
-26,-31,-8,32,-12,-23,1,17,52,54,29,-21
-26,-31,-8,32,-12,-23,1,19,54,55,31,-20
-26,-31,-8,32,-12,-23,1,19,55,56,32,-19
-26,-31,-8,32,-12,-23,1,20,56,57,33,-17
-26,-31,-8,32,-12,-23,1,20,56,57,35,-16
-26,-31,-8,32,-12,-23,1,20,56,57,36,-15
-25,-30,-8,31,-11,-23,1,20,57,58,37,-13
-23,-28,-8,28,-9,-21,1,20,58,59,39,-12
-20,-25,-8,25,-8,-20,1,20,60,60,40,-11
-17,-22,-8,22,-6,-18,1,20,61,62,41,-9
-15,-20,-8,20,-5,-17,1,20,63,63,43,-7
-15,-20,-8,19,-5,-17,1,21,65,65,45,-4
-14,-19,-8,19,-4,-16,1,22,67,66,48,-0
-14,-19,-8,19,-4,-16,1,23,68,68,50,3
-13,-19,-10,18,-2,-17,1,24,70,69,52,7
-10,-19,-13,17,1,-18,1,24,72,71,54,10
-8,-19,-16,16,4,-20,1,25,74,72,55,13
-5,-19,-20,14,8,-22,1,25,75,74,57,15
-2,-19,-24,12,12,-23,1,25,76,76,59,17
1,-19,-29,11,16,-26,1,26,77,77,61,19
4,-19,-33,9,20,-27,1,27,77,79,63,20
7,-19,-37,8,24,-30,1,28,77,80,66,22
10,-19,-40,6,27,-31,1,29,78,82,68,23
13,-19,-44,5,31,-33,-1,29,79,83,70,26
16,-19,-48,3,35,-35,-3,29,81,85,71,28
19,-19,-52,1,39,-36,-5,29,82,86,72,31
22,-16,-52,-2,40,-35,-6,29,84,89,74,33
25,-9,-46,-7,39,-27,-6,29,86,91,77,36
28,-1,-39,-14,38,-19,-7,29,88,94,79,39
31,7,-32,-19,36,-10,-7,29,89,97,82,41
34,15,-24,-26,35,-2,-7,30,92,100,85,44
37,24,-16,-32,32,8,-7,31,95,102,88,46
40,33,-8,-39,31,17,-7,32,98,103,92,49
43,42,0,-45,28,27,-7,33,102,105,96,52
46,49,7,-51,28,35,-6,34,105,107,98,54
49,56,11,-56,27,41,-4,35,107,108,99,54
52,62,16,-62,27,48,-3,36,109,110,99,54
55,68,20,-67,27,53,-0,38,111,111,100,54
57,73,24,-70,26,58,2,39,112,112,100,54
58,76,29,-73,24,62,6,40,112,112,100,54
59,80,33,-75,23,67,10,41,112,113,100,54
59,83,37,-77,20,70,14,42,112,113,100,54
57,84,41,-77,18,73,18,43,112,112,99,54
55,85,45,-76,14,76,20,43,112,111,97,51
52,85,49,-75,11,78,23,44,112,110,95,49
49,85,53,-73,7,80,25,44,112,108,92,46
46,85,57,-71,3,82,26,44,112,106,89,43
43,85,61,-70,-1,83,27,44,110,103,85,40
40,85,65,-68,-5,86,27,44,109,100,82,36
37,85,69,-67,-9,87,27,44,107,97,78,32
34,85,73,-65,-13,89,27,42,104,93,73,28
31,85,77,-64,-17,91,27,40,100,89,68,24
28,85,82,-62,-20,93,27,36,95,85,63,20
25,85,86,-60,-24,95,27,33,89,80,58,16
21,85,91,-58,-30,98,26,29,84,76,53,12
15,85,99,-55,-37,101,23,26,79,71,49,7
10,85,106,-52,-44,105,19,22,74,66,45,2
4,85,113,-49,-51,108,14,19,68,62,41,-3
-2,84,119,-45,-58,109,11,16,64,57,37,-8
-8,79,121,-39,-63,107,8,14,60,52,32,-12
-14,74,122,-33,-67,104,6,13,56,48,27,-16
-20,68,122,-27,-71,100,3,11,52,43,22,-20
-24,62,119,-21,-72,95,1,11,49,39,17,-23
-26,56,113,-17,-70,89,-0,10,45,36,14,-26
-26,50,105,-14,-67,81,-3,10,42,32,11,-29
-26,44,97,-10,-63,73,-5,10,38,29,9,-32
-26,40,91,-8,-60,67,-7,10,36,27,7,-33
-26,36,86,-6,-57,63,-9,10,35,25,6,-34
-26,33,81,-4,-55,58,-11,10,35,23,6,-34
-26,30,77,-2,-53,55,-13,10,35,21,6,-34
-26,27,73,-1,-51,51,-15,10,34,20,6,-34
-26,25,70,1,-50,48,-15,10,33,20,6,-34
-26,25,69,1,-50,48,-16,10,33,20,6,-34
-26,24,69,1,-50,47,-16,10,33,20,6,-34
-26,24,69,1,-50,47,-16,10,33,20,6,-34
-26,24,69,1,-50,47,-16,10,33,20,6,-34
-26,24,69,1,-50,47,-16,10,33,20,6,-34
-23,11,46,7,-36,28,-16,10,31,21,6,-36
-19,-8,15,15,-18,2,-16,10,29,24,6,-37
-18,-13,5,18,-13,-6,-16,10,28,24,6,-38
-17,-15,2,18,-11,-9,-16,10,28,24,6,-38
-16,-17,-2,18,-8,-12,-16,10,28,25,6,-39
-15,-19,-7,19,-6,-15,-16,11,28,26,6,-39
-14,-19,-8,19,-4,-16,-16,12,28,26,6,-39
-14,-19,-8,19,-4,-16,-16,13,28,26,6,-39
-14,-19,-8,19,-4,-16,-16,14,28,26,6,-39
-14,-20,-10,19,-3,-17,-16,15,28,25,6,-39
-14,-23,-13,21,-2,-20,-16,15,28,24,6,-39
-14,-25,-16,22,0,-23,-16,15,28,23,6,-39
-14,-28,-20,24,2,-27,-16,15,28,21,6,-39
-15,-30,-21,25,2,-29,-15,15,27,20,6,-39
-18,-30,-19,27,-2,-28,-13,15,26,20,6,-39
-20,-31,-16,29,-4,-27,-11,15,24,20,6,-39
-23,-31,-12,31,-8,-26,-9,15,23,20,6,-39
-25,-32,-11,32,-9,-26,-7,15,21,20,5,-39
-26,-35,-14,34,-9,-29,-5,15,21,20,4,-39
-26,-37,-16,35,-8,-31,-3,15,21,20,3,-39
-26,-40,-20,37,-6,-35,-0,15,21,20,2,-39
-26,-42,-23,38,-5,-37,1,15,21,20,1,-39
-26,-42,-24,38,-5,-38,3,15,21,20,1,-39
-26,-43,-24,38,-4,-39,6,15,21,20,1,-39
-26,-43,-24,38,-4,-39,8,15,21,20,1,-39
-27,-44,-24,40,-5,-39,9,15,21,19,1,-40
-30,-46,-24,42,-6,-41,10,15,21,18,-1,-41
-32,-49,-24,45,-8,-42,10,15,21,17,-2,-42
-35,-52,-24,48,-10,-45,10,15,21,15,-3,-43
-37,-54,-26,51,-10,-47,11,15,21,14,-4,-44
-38,-57,-29,53,-9,-51,13,15,21,14,-5,-44
-38,-60,-33,55,-8,-54,14,15,21,14,-7,-45
-38,-63,-37,56,-6,-58,16,15,21,14,-8,-45
-38,-65,-39,57,-5,-60,18,15,21,14,-9,-45
-38,-66,-40,58,-5,-61,18,15,21,14,-9,-45
-38,-66,-41,58,-4,-61,19,15,21,14,-9,-45
-38,-66,-41,58,-4,-61,19,15,21,14,-9,-45
-38,-66,-41,58,-4,-61,19,15,21,14,-9,-45
-38,-66,-41,58,-4,-61,21,15,21,14,-9,-46
-38,-66,-41,58,-4,-61,23,15,21,14,-9,-47
-38,-66,-41,58,-4,-61,25,15,21,14,-9,-49
-38,-66,-41,58,-4,-61,27,15,21,14,-9,-49
-38,-66,-41,58,-4,-61,29,16,21,14,-9,-50
-38,-66,-41,58,-4,-61,32,17,21,14,-9,-50
-38,-66,-41,58,-4,-61,34,19,21,14,-9,-50
-38,-66,-41,58,-4,-61,35,19,21,14,-9,-49
-38,-66,-41,58,-4,-61,35,20,21,14,-9,-48
-38,-66,-41,58,-4,-61,36,20,21,14,-9,-47
-38,-66,-41,58,-4,-61,36,20,21,14,-9,-46
-39,-67,-41,58,-5,-62,36,20,21,14,-10,-45
-63,-67,-8,71,-36,-47,27,20,21,14,-10,-45
-27,-55,-41,45,3,-55,27,20,28,14,-10,-45
-27,-55,-41,45,3,-55,36,20,35,20,-4,-45
-27,-55,-41,45,3,-55,45,25,42,26,-4,-45
-51,-55,-8,58,-28,-39,53,39,63,32,-4,-55
-63,-55,8,65,-44,-32,88,53,91,45,-4,-61
-63,-43,24,58,-52,-17,97,67,105,63,6,-61
-63,-43,24,58,-52,-17,105,72,119,76,11,-61
-63,-32,41,52,-60,-2,105,77,133,88,22,-55
-51,-20,41,39,-52,6,105,77,140,94,32,-45
-39,4,57,19,-52,29,97,82,155,119,48,-34
-15,27,57,-6,-36,44,88,82,162,131,68,-19
59,50,-8,-58,42,29,62,77,169,150,89,2
95,74,-24,-91,74,36,27,67,169,168,121,39
132,97,-41,-123,105,44,-25,48,148,168,152,75
180,121,-73,-162,153,44,-77,20,105,162,167,112
217,156,-73,-201,176,67,-129,-23,56,144,188,154
266,203,-73,-253,208,97,-189,-61,14,144,220,201
315,238,-90,-299,247,112,-241,-80,-21,144,246,248
351,249,-122,-325,286,105,-276,-99,-43,144,272,289
351,249,-122,-325,286,105,-293,-114,-57,144,287,310
376,261,-139,-344,310,105,-293,-114,-64,144,303,336
376,261,-139,-344,310,105,-293,-118,-78,137,308,357
388,249,-171,-344,333,82,-284,-118,-78,137,318,373
388,214,-220,-325,357,36,-267,-118,-92,100,298,373
376,191,-237,-305,357,14,-241,-118,-134,32,235,336
315,144,-220,-247,310,-9,-206,-123,-198,-73,147,279
254,97,-204,-188,263,-32,-172,-123,-254,-166,42,206
193,39,-204,-123,223,-70,-129,-123,-296,-240,-57,127
156,15,-188,-91,192,-77,-77,-109,-310,-277,-119,65
120,-55,-237,-32,192,-145,-51,-104,-324,-302,-161,13
95,-102,-269,6,192,-191,-42,-104,-324,-315,-182,-29
95,-102,-269,6,192,-191,-33,-104,-310,-296,-182,-45
83,-90,-237,6,168,-168,-33,-95,-282,-271,-171,-50
83,-78,-220,0,160,-153,-25,-90,-261,-246,-161,-55
83,-55,-188,-13,145,-123,-16,-85,-233,-228,-150,-55
59,-55,-155,0,113,-108,-16,-75,-205,-203,-140,-55
59,-43,-139,-6,105,-92,-16,-71,-183,-178,-129,-55
83,-20,-139,-32,121,-77,-16,-61,-155,-147,-109,-50
59,15,-57,-39,66,-17,-16,-52,-120,-110,-83,-34
34,27,-8,-32,27,14,-16,-37,-85,-79,-62,-34
22,39,24,-32,3,36,1,-28,-50,-48,-51,-34
-15,39,73,-13,-44,59,1,-18,-36,-36,-41,-40
-15,39,73,-13,-44,59,10,-14,-14,-24,-36,-45
-15,39,73,-13,-44,59,10,-9,-0,-17,-30,-45
-27,39,90,-6,-60,67,10,-4,14,-5,-25,-45
-39,39,106,0,-75,74,10,1,28,14,-20,-45
-47,21,92,14,-74,56,16,4,28,14,-20,-45
-49,11,82,21,-71,45,18,6,28,14,-20,-46
-50,4,73,25,-67,36,18,8,28,14,-20,-47
-51,-2,65,29,-63,29,19,9,28,14,-20,-49
-51,-6,59,31,-60,23,18,10,28,14,-20,-49
-51,-10,54,33,-57,18,16,10,28,14,-20,-50
-51,-13,49,35,-55,14,14,10,28,14,-20,-50
-51,-16,45,36,-53,10,12,10,28,14,-20,-50
-49,-19,39,38,-50,5,11,11,28,14,-20,-50
-47,-22,32,38,-45,0,10,12,28,14,-20,-50
-45,-25,24,38,-39,-5,10,13,28,14,-20,-50
-41,-28,16,38,-34,-11,10,14,28,14,-20,-50
-40,-30,11,38,-30,-14,10,15,28,14,-19,-50
-39,-30,10,38,-29,-15,10,15,28,15,-18,-50
-38,-31,8,38,-28,-16,10,15,28,17,-17,-50
-38,-31,8,38,-28,-16,10,15,28,18,-16,-50
-38,-31,8,38,-28,-16,10,15,29,19,-15,-50
-38,-31,8,38,-28,-16,10,15,30,20,-15,-50
-38,-31,8,38,-28,-16,10,15,31,20,-15,-50
-38,-31,8,38,-28,-16,10,15,33,20,-15,-50
-38,-32,7,39,-27,-17,10,15,34,20,-14,-50
-38,-35,3,40,-25,-20,10,15,35,20,-13,-50
-38,-37,0,42,-24,-23,10,15,35,20,-12,-50
-38,-40,-4,43,-22,-27,10,15,35,20,-11,-50
-38,-42,-7,44,-20,-30,11,15,35,20,-10,-50
-38,-42,-7,44,-20,-30,13,16,35,20,-10,-50
-38,-43,-8,45,-20,-31,14,17,35,20,-9,-50
-38,-43,-8,45,-20,-31,16,19,35,20,-9,-50
-38,-43,-8,45,-20,-31,18,19,35,20,-9,-50
-38,-43,-8,45,-20,-31,18,20,35,20,-9,-50
-38,-43,-8,45,-20,-31,19,20,35,20,-9,-50
-38,-43,-8,45,-20,-31,19,20,35,20,-9,-50
-40,-43,-7,45,-21,-30,19,20,35,20,-9,-50
-42,-43,-3,47,-24,-29,21,20,35,20,-9,-50
-45,-43,0,48,-28,-27,23,20,35,20,-9,-50
-48,-43,4,49,-31,-26,25,20,35,20,-9,-50
-49,-44,5,51,-33,-26,26,20,35,20,-9,-50
-50,-46,2,53,-32,-29,27,20,35,20,-9,-50
-51,-49,0,55,-31,-31,27,20,35,20,-9,-50
-51,-52,-4,56,-30,-35,27,20,35,20,-9,-50
-51,-53,-7,57,-28,-37,27,20,35,20,-9,-50
-51,-54,-7,57,-28,-38,27,21,35,20,-9,-50
-51,-54,-8,58,-28,-39,27,22,35,20,-9,-50
-51,-54,-8,58,-28,-39,27,23,35,20,-9,-50
-51,-54,-8,58,-28,-39,27,24,36,20,-9,-50
-51,-54,-8,58,-28,-39,27,24,37,22,-7,-50
-51,-54,-8,58,-28,-39,27,25,38,23,-4,-50
-51,-54,-8,58,-28,-39,27,25,40,24,-2,-50
-51,-54,-8,58,-28,-39,28,25,42,27,1,-49
-51,-54,-8,58,-28,-39,30,26,44,29,2,-48
-51,-54,-8,58,-28,-39,32,27,45,32,3,-47
-51,-54,-8,58,-28,-39,34,28,47,35,5,-46
-51,-54,-8,58,-28,-39,35,29,49,37,6,-45
-51,-54,-8,58,-28,-39,35,30,51,38,7,-45
-51,-54,-8,58,-28,-39,36,32,52,38,9,-45
-51,-54,-8,58,-28,-39,36,33,54,38,10,-45
-51,-54,-8,58,-28,-39,36,34,55,39,11,-45
-51,-54,-8,58,-28,-39,36,34,56,40,13,-45
-51,-54,-8,58,-28,-39,36,34,56,41,14,-45
-51,-54,-8,58,-28,-39,36,34,56,43,15,-45
-51,-54,-8,58,-28,-39,37,35,57,45,16,-44
-51,-54,-8,58,-28,-39,39,35,60,48,18,-43
-51,-54,-8,58,-28,-39,40,36,63,51,19,-42
-51,-54,-8,58,-28,-39,42,38,67,54,20,-41
-51,-54,-8,58,-28,-39,44,39,69,57,22,-39
-51,-54,-8,58,-28,-39,44,40,71,60,24,-38
-51,-54,-8,58,-28,-39,45,41,74,63,27,-37
-51,-54,-8,58,-28,-39,45,42,75,66,29,-36
-49,-54,-10,57,-26,-39,45,44,78,69,32,-34
-47,-54,-13,56,-23,-41,45,45,81,71,35,-31
-45,-54,-16,55,-20,-42,45,46,84,72,37,-29
-41,-54,-20,53,-16,-45,45,47,88,74,40,-26
-40,-53,-21,51,-14,-44,45,48,91,76,42,-24
-39,-51,-19,50,-15,-42,47,50,95,80,45,-23
-38,-49,-17,49,-16,-39,48,50,97,83,47,-22
-38,-49,-16,48,-16,-39,49,50,98,84,47,-21
-38,-49,-16,48,-16,-39,49,51,98,85,48,-21
-38,-49,-16,48,-16,-39,49,51,98,85,48,-21
-38,-49,-16,48,-16,-39,49,51,98,85,48,-21
-38,-49,-16,48,-16,-39,49,51,98,85,48,-21
-26,-23,2,27,-17,-14,53,58,115,102,61,-8
-10,10,27,0,-19,19,59,67,137,126,80,9
-4,21,35,-9,-19,30,61,70,144,133,86,15
-2,25,38,-12,-20,34,61,72,146,136,88,17
0,29,41,-16,-19,38,62,73,148,139,90,19
5,36,44,-22,-17,44,64,75,151,142,93,22
10,44,48,-30,-16,51,66,77,155,147,97,26
16,53,53,-38,-15,59,68,79,158,151,101,30
20,62,60,-45,-15,67,71,81,162,155,104,33
21,71,70,-50,-20,78,73,83,165,159,107,36
22,80,82,-55,-24,89,75,84,169,162,110,39
22,88,94,-60,-31,101,77,85,172,165,113,41
23,96,103,-65,-34,110,78,86,175,167,115,43
26,102,108,-70,-35,117,79,86,175,168,115,44
28,109,114,-75,-36,123,79,86,176,168,115,44
31,115,118,-80,-36,129,79,86,176,168,115,44
33,119,122,-83,-37,134,78,85,175,168,115,44
34,123,126,-86,-39,138,77,82,172,167,114,44
34,126,131,-88,-40,142,75,79,169,165,113,44
34,129,135,-90,-42,146,73,76,165,164,111,44
32,131,139,-90,-46,149,69,72,160,160,108,43
27,132,147,-87,-53,153,64,67,152,154,103,39
22,132,155,-84,-60,158,58,63,144,146,97,36
16,132,163,-81,-68,161,51,58,135,139,91,32
10,131,169,-77,-75,163,45,53,126,131,84,28
4,126,170,-71,-79,160,41,48,118,122,78,23
-2,121,170,-66,-83,157,36,44,109,113,71,18
-8,115,170,-59,-86,153,32,39,100,103,65,13
-13,109,169,-53,-89,148,28,35,91,94,58,7
-16,103,166,-48,-90,143,26,32,82,85,50,-1
-20,97,162,-43,-90,138,23,29,74,76,42,-8
-23,91,158,-38,-90,133,21,27,65,66,35,-16
-25,84,151,-33,-88,124,18,25,57,59,28,-22
-26,76,140,-28,-83,114,14,22,51,53,23,-26
-26,68,130,-23,-79,104,10,20,45,48,19,-29
-26,59,117,-18,-73,92,6,17,40,43,15,-32
-26,52,108,-14,-68,83,2,15,36,39,11,-34
-26,48,102,-12,-65,78,-0,14,32,36,7,-37
-26,44,97,-10,-63,73,-3,13,28,32,3,-39
-26,42,93,-8,-61,70,-5,11,24,29,-0,-42
-26,37,87,-6,-58,64,-6,11,21,26,-4,-44
-26,32,80,-3,-55,58,-6,10,17,23,-7,-44
-26,27,73,-1,-51,51,-7,10,14,20,-9,-45
-26,21,64,3,-47,43,-7,10,10,17,-12,-45
-25,15,55,5,-42,35,-7,10,8,15,-14,-45
-23,9,43,7,-35,26,-7,10,7,14,-14,-45
-20,4,32,9,-28,17,-7,10,7,14,-15,-45
-17,-2,20,10,-20,8,-7,10,7,14,-15,-45
-15,-8,10,13,-13,-1,-7,10,6,14,-15,-45
-15,-12,3,15,-10,-6,-7,10,4,14,-16,-45
-14,-13,1,15,-9,-8,-7,10,4,14,-16,-45
-14,-13,0,16,-8,-8,-7,10,3,14,-16,-45
-14,-13,0,16,-8,-8,-7,10,3,14,-16,-45
-14,-13,0,16,-8,-8,-7,10,3,14,-16,-45
-14,-13,0,16,-8,-8,-7,10,3,14,-16,-45
-18,-23,-8,23,-7,-19,-5,9,-4,8,-18,-46
-24,-36,-19,34,-6,-32,-2,7,-14,2,-22,-49
-26,-40,-22,37,-5,-36,-1,7,-18,-1,-23,-50
-26,-42,-24,38,-5,-38,-0,7,-19,-1,-23,-50
-26,-43,-24,38,-4,-39,0,6,-20,-2,-24,-50
-26,-43,-24,38,-4,-39,2,6,-21,-4,-25,-50
-26,-43,-24,38,-4,-39,3,5,-21,-6,-26,-51
-26,-43,-24,38,-4,-39,6,5,-21,-8,-28,-52
-26,-43,-24,38,-4,-39,8,5,-21,-9,-29,-54
-27,-44,-24,40,-5,-39,9,5,-21,-10,-30,-55
-30,-46,-24,42,-6,-41,10,5,-21,-11,-30,-55
-32,-49,-24,45,-8,-42,10,5,-21,-11,-30,-55
-35,-52,-24,48,-10,-45,10,5,-21,-11,-30,-55
-37,-54,-26,51,-10,-47,10,5,-22,-11,-30,-55
-38,-57,-29,53,-9,-51,10,5,-23,-13,-30,-55
-38,-60,-33,55,-8,-54,10,5,-25,-14,-30,-55
-38,-63,-37,56,-6,-58,10,5,-26,-15,-30,-55
-38,-65,-39,57,-5,-60,11,5,-27,-16,-30,-55
-38,-66,-40,58,-5,-61,13,5,-28,-17,-30,-55
-38,-66,-41,58,-4,-61,14,5,-28,-17,-30,-55
-38,-66,-41,58,-4,-61,16,5,-28,-17,-30,-55
-38,-66,-41,58,-4,-61,18,5,-28,-16,-30,-55
-38,-66,-41,58,-4,-61,18,5,-28,-15,-30,-55
-38,-66,-41,58,-4,-61,19,5,-28,-14,-30,-55
-38,-66,-41,58,-4,-61,19,5,-28,-12,-30,-55
-38,-67,-42,58,-3,-63,19,6,-28,-11,-30,-55
-38,-70,-46,60,-2,-66,19,7,-28,-11,-30,-55
-38,-72,-49,61,0,-69,19,8,-28,-11,-30,-55
-38,-75,-53,63,2,-73,19,9,-28,-11,-30,-55
-38,-77,-55,64,3,-75,19,10,-28,-11,-31,-55
-38,-77,-56,64,3,-76,21,10,-28,-13,-32,-55
-38,-78,-57,64,4,-77,23,10,-28,-14,-33,-55
-38,-78,-57,64,4,-77,25,10,-28,-15,-34,-55
-38,-79,-59,65,5,-78,26,10,-28,-16,-35,-56
-38,-81,-62,66,6,-81,27,10,-28,-17,-35,-57
-38,-84,-65,68,8,-84,27,10,-28,-17,-35,-58
-38,-87,-69,69,9,-88,27,10,-28,-17,-35,-59
-38,-90,-73,71,12,-92,27,10,-28,-17,-36,-60
-38,-93,-77,73,13,-95,27,10,-28,-17,-37,-60
-38,-95,-82,74,16,-99,27,10,-28,-17,-38,-60
-38,-98,-86,76,17,-103,27,10,-28,-17,-39,-60
-38,-101,-90,77,20,-107,28,10,-29,-17,-40,-60
-38,-104,-94,79,21,-111,30,10,-30,-17,-40,-60
-38,-107,-98,81,24,-114,32,10,-32,-17,-41,-60
-38,-110,-102,82,25,-118,34,10,-33,-17,-41,-60
-38,-112,-104,83,27,-120,35,10,-35,-17,-41,-60
-38,-112,-105,84,27,-121,35,10,-35,-17,-41,-60
-38,-113,-106,84,28,-122,36,10,-35,-17,-41,-60
-38,-113,-106,84,28,-122,36,10,-35,-17,-41,-60
-38,-113,-106,84,28,-122,36,10,-35,-16,-41,-60
-38,-113,-106,84,28,-122,36,10,-35,-15,-41,-60
-38,-113,-106,84,28,-122,36,10,-35,-14,-41,-60
-38,-113,-106,84,28,-122,36,10,-35,-12,-41,-60
-38,-112,-104,83,27,-120,37,11,-35,-10,-40,-60
-38,-109,-101,82,25,-117,39,12,-33,-7,-39,-59
-38,-107,-98,81,24,-114,40,13,-32,-5,-38,-58
-38,-104,-94,79,21,-111,42,14,-30,-2,-37,-56
-38,-101,-90,77,20,-107,45,15,-28,1,-35,-55
-38,-98,-86,76,17,-103,47,16,-26,3,-34,-54
-38,-95,-82,74,16,-99,49,17,-25,4,-33,-52
-38,-93,-77,73,13,-95,51,19,-23,6,-32,-51
-37,-88,-73,69,13,-91,53,20,-21,7,-31,-50
-35,-83,-69,66,12,-86,55,21,-19,7,-30,-50
-32,-78,-65,61,12,-80,58,22,-18,7,-30,-50
-29,-72,-61,56,12,-75,60,23,-16,7,-30,-50
-27,-66,-55,52,10,-68,62,24,-15,7,-30,-50
-27,-60,-48,49,7,-61,64,24,-14,7,-30,-50
-26,-54,-41,45,4,-54,66,25,-14,7,-30,-50
-26,-49,-33,42,0,-46,68,25,-14,7,-30,-50
-26,-44,-26,39,-3,-40,70,25,-13,8,-30,-49
-26,-40,-21,37,-6,-36,70,25,-10,9,-29,-48
-26,-37,-16,35,-8,-31,71,25,-7,11,-28,-47
-26,-34,-12,34,-10,-27,71,25,-4,12,-26,-46
-26,-28,-4,30,-14,-20,70,24,-1,13,-25,-45
-26,-18,10,25,-20,-7,68,23,-0,13,-24,-43
-26,-7,25,18,-28,7,66,22,-0,14,-22,-42
-26,4,41,12,-36,21,64,21,-0,14,-21,-41
-26,12,52,8,-42,32,61,19,-1,14,-20,-40
-26,17,59,5,-45,38,57,17,-4,14,-20,-40
-26,20,64,3,-47,42,53,15,-7,14,-20,-39
-26,24,69,1,-50,47,49,13,-11,14,-20,-39
-27,26,73,1,-52,50,45,10,-13,13,-20,-39
-30,26,77,2,-56,52,40,6,-15,12,-21,-39
-32,27,81,3,-59,55,36,3,-18,11,-22,-39
-35,27,85,5,-63,57,32,-0,-19,9,-24,-39
-37,26,86,6,-64,56,28,-3,-21,7,-25,-39
-38,23,83,8,-64,54,26,-5,-23,6,-26,-39
-38,21,81,9,-63,51,23,-6,-25,4,-28,-39
-38,18,77,11,-61,47,21,-7,-26,3,-29,-39
-38,16,74,12,-60,45,19,-8,-28,1,-30,-40
-38,16,73,12,-60,44,16,-8,-30,0,-30,-41
-38,15,73,12,-59,43,14,-9,-32,-2,-30,-42
-38,15,73,12,-59,43,12,-9,-33,-3,-30,-43
-38,13,70,14,-58,41,11,-9,-35,-4,-30,-44
-38,9,64,16,-55,35,10,-9,-35,-4,-30,-44
-38,4,56,19,-51,28,10,-9,-35,-5,-30,-45
-38,-2,49,22,-47,21,10,-9,-35,-5,-30,-45
-37,-6,41,24,-42,14,10,-8,-35,-4,-30,-45
-35,-10,33,25,-37,8,10,-7,-35,-3,-30,-45
-32,-13,24,25,-31,2,10,-6,-35,-2,-30,-45
-29,-16,16,25,-26,-3,10,-5,-35,0,-30,-45
-27,-18,11,25,-22,-6,10,-4,-35,1,-30,-44
-27,-19,10,25,-21,-8,10,-3,-35,3,-30,-43
-26,-19,8,25,-20,-8,10,-1,-35,4,-30,-42
-26,-19,8,25,-20,-8,10,-0,-35,6,-30,-41
-25,-19,7,25,-18,-9,10,0,-35,7,-30,-39
-23,-19,3,23,-15,-11,10,1,-35,7,-30,-38
-20,-19,0,22,-12,-12,10,1,-35,7,-30,-37
-17,-19,-4,20,-8,-14,10,1,-35,7,-30,-36
-15,-20,-8,20,-5,-17,10,0,-35,7,-30,-35
-15,-23,-12,21,-2,-20,10,-0,-35,7,-30,-34
-14,-25,-16,22,0,-23,10,-1,-35,7,-30,-34
-14,-28,-20,24,2,-27,10,-3,-35,7,-30,-34
-15,-31,-23,26,2,-30,10,-3,-35,7,-30,-34
-18,-34,-24,29,1,-33,10,-4,-35,7,-30,-34
-20,-37,-24,32,0,-35,10,-4,-35,7,-30,-34
-23,-40,-24,35,-2,-37,10,-4,-35,7,-30,-34
-25,-43,-26,38,-2,-39,11,-3,-35,7,-30,-34
-26,-46,-29,40,-2,-43,13,-2,-35,7,-30,-34
-26,-49,-33,42,0,-46,14,-1,-35,7,-30,-34
-26,-52,-37,44,2,-50,16,-0,-35,7,-30,-34
-26,-53,-39,44,3,-52,18,0,-35,7,-30,-34
-26,-54,-40,45,3,-53,18,1,-35,7,-30,-34
-26,-54,-41,45,4,-54,19,1,-35,7,-30,-34
-26,-54,-41,45,4,-54,19,1,-35,7,-30,-34
-26,-54,-41,45,4,-54,19,1,-35,7,-30,-34
-26,-54,-41,45,4,-54,19,1,-35,7,-30,-34
-26,-54,-41,45,4,-54,19,1,-35,7,-30,-34
-26,-54,-41,45,4,-54,19,1,-35,7,-30,-34
-26,-50,-35,43,1,-48,19,1,-35,10,-28,-34
-26,-45,-28,40,-2,-42,19,1,-33,12,-26,-34
-27,-43,-24,39,-5,-39,19,1,-29,14,-25,-34
-27,-43,-24,39,-5,-39,19,5,-29,14,-30,-34
-27,-32,-8,32,-13,-24,27,5,-21,14,-30,-40
-39,-32,8,39,-28,-17,45,15,-0,20,-30,-40
-51,-32,24,45,-44,-9,71,29,21,32,-30,-50
-76,-32,57,58,-75,6,88,44,42,45,-36,-61
-76,-20,73,52,-83,21,105,58,56,51,-36,-66
-76,-20,73,52,-83,21,105,63,63,51,-30,-66
-76,-20,73,52,-83,21,105,67,70,57,-30,-66
-51,-20,41,39,-52,6,105,72,77,69,-20,-66
-27,-8,24,19,-28,6,105,72,91,88,-10,-55
-2,-8,-8,6,3,-9,88,72,91,107,16,-40
22,15,-8,-19,19,6,71,67,91,107,27,-29
71,27,-57,-52,74,-9,45,58,84,113,42,-3
95,27,-90,-65,105,-24,-7,39,70,119,68,28
156,74,-106,-123,153,-2,-59,20,49,119,100,65
217,121,-122,-182,200,21,-129,-23,-14,113,121,112
278,191,-106,-253,231,74,-189,-66,-57,107,152,164
315,226,-106,-292,255,97,-250,-95,-92,107,183,211
351,273,-90,-338,270,135,-293,-118,-113,107,214,263
351,296,-57,-351,255,165,-302,-137,-127,107,230,295
315,308,8,-338,200,203,-302,-137,-127,113,246,315
290,308,41,-325,168,218,-284,-133,-113,125,261,336
290,285,8,-312,184,188,-267,-133,-113,125,282,368
290,285,8,-312,184,188,-258,-133,-113,125,292,389
254,261,24,-279,153,180,-241,-123,-113,113,292,399
241,238,8,-260,153,158,-206,-114,-127,69,240,373
193,191,8,-208,121,127,-172,-104,-155,7,178,326
168,144,-24,-169,121,82,-137,-99,-190,-61,105,274
120,132,24,-136,66,97,-103,-90,-219,-116,32,211
95,121,41,-117,42,97,-59,-80,-226,-160,-41,143
59,85,41,-78,19,74,-25,-71,-226,-166,-77,91
22,50,41,-39,-5,52,10,-71,-226,-178,-103,49
-27,27,73,0,-52,52,19,-71,-226,-178,-119,13
-63,-20,57,45,-68,14,27,-71,-226,-178,-135,-24
-88,-43,57,71,-83,-2,45,-61,-205,-172,-135,-50
-88,-78,8,91,-60,-47,62,-47,-183,-154,-135,-61
-112,-114,-8,123,-68,-77,79,-37,-169,-135,-135,-71
-112,-125,-24,130,-60,-92,79,-33,-148,-123,-124,-76
-112,-125,-24,130,-60,-92,79,-28,-134,-104,-119,-81
-88,-125,-57,117,-28,-108,71,-28,-120,-92,-109,-81
-88,-114,-41,110,-36,-92,71,-18,-99,-67,-93,-76
-63,-114,-73,97,-5,-108,53,-18,-92,-54,-83,-71
-51,-90,-57,78,-5,-85,53,-14,-78,-36,-67,-55
-51,-90,-57,78,-5,-85,53,-14,-78,-36,-67,-55
-51,-90,-57,78,-5,-85,53,-14,-78,-36,-67,-55
-51,-90,-57,78,-5,-85,53,-14,-78,-36,-67,-55
-51,-90,-57,78,-5,-85,53,-14,-78,-36,-67,-55
-51,-90,-57,77,-4,-84,53,-13,-77,-36,-67,-55
-46,-72,-38,66,-10,-64,56,-5,-63,-21,-58,-49
-41,-49,-13,49,-19,-37,60,5,-45,-1,-45,-42
-39,-41,-5,44,-22,-29,61,9,-38,6,-41,-39
-38,-38,-2,42,-23,-25,62,10,-36,8,-40,-39
-38,-35,2,40,-25,-21,62,10,-36,9,-39,-38
-38,-30,9,38,-28,-15,62,10,-35,11,-38,-37
-38,-25,16,35,-31,-8,62,10,-35,12,-37,-36
-38,-19,24,32,-35,-2,61,10,-35,13,-36,-35
-38,-13,33,29,-39,6,57,8,-35,13,-36,-34
-38,-8,41,25,-43,14,53,5,-35,14,-35,-34
-38,-2,49,22,-47,21,49,3,-35,14,-35,-34
-40,2,56,20,-52,27,45,0,-36,13,-35,-35
-42,4,61,21,-56,30,40,-3,-37,12,-35,-36
-45,4,64,22,-59,32,36,-6,-39,11,-35,-37
-48,4,69,24,-63,34,32,-10,-40,9,-35,-38
-49,4,71,25,-65,35,27,-13,-42,7,-36,-39
-50,4,72,25,-66,36,23,-14,-44,6,-37,-39
-51,4,73,25,-67,36,19,-16,-46,4,-38,-39
-51,4,73,25,-67,36,14,-17,-48,3,-39,-39
-51,2,70,27,-65,33,11,-18,-49,1,-40,-39
-51,-2,64,29,-63,28,10,-18,-49,0,-40,-39
-51,-8,57,32,-59,21,10,-18,-49,-2,-41,-39
-51,-13,49,35,-55,14,10,-18,-49,-3,-41,-39
-49,-18,42,36,-51,8,9,-18,-49,-4,-41,-39
-47,-19,37,36,-47,5,7,-18,-49,-4,-41,-39
-45,-19,33,35,-43,2,6,-18,-49,-5,-41,-39
-41,-19,29,33,-39,1,3,-18,-49,-5,-41,-39
-40,-20,24,33,-36,-2,2,-18,-49,-4,-40,-39
-39,-23,20,34,-34,-5,2,-17,-49,-3,-39,-38
-38,-25,16,35,-31,-8,1,-16,-49,-2,-38,-37
-38,-28,12,36,-30,-12,1,-15,-49,0,-37,-36
-38,-31,8,38,-28,-16,1,-14,-49,1,-36,-35
-38,-34,4,40,-26,-20,1,-14,-47,3,-36,-34
-38,-37,0,42,-24,-23,1,-13,-46,4,-35,-34
-38,-40,-4,43,-22,-27,1,-13,-44,6,-35,-34
-37,-42,-8,44,-19,-30,1,-13,-43,7,-35,-34
-35,-42,-12,43,-16,-33,-1,-12,-43,9,-34,-33
-32,-43,-16,42,-12,-35,-3,-11,-42,11,-33,-32
-29,-43,-20,40,-8,-37,-5,-10,-42,12,-32,-30
-27,-43,-23,39,-6,-38,-6,-9,-42,13,-30,-29
-27,-43,-24,39,-5,-39,-6,-9,-42,13,-29,-28
-26,-43,-24,38,-4,-39,-7,-9,-42,14,-28,-26
-26,-43,-24,38,-4,-39,-7,-9,-42,14,-26,-25
-26,-44,-26,39,-3,-40,-6,-9,-42,14,-26,-24
-26,-46,-29,40,-2,-43,-4,-9,-42,14,-25,-24
-26,-49,-33,42,0,-46,-3,-9,-42,14,-25,-24
-26,-52,-37,44,2,-50,-0,-9,-42,14,-25,-24
-26,-53,-39,44,3,-52,1,-9,-42,14,-25,-24
-26,-54,-40,45,3,-53,1,-9,-42,14,-25,-24
-26,-54,-41,45,4,-54,1,-9,-42,14,-25,-24
-26,-54,-41,45,4,-54,1,-9,-42,14,-25,-24
-26,-56,-42,45,5,-55,2,-8,-42,14,-25,-24
-26,-58,-46,47,6,-58,4,-7,-42,14,-25,-24
-26,-60,-49,48,8,-61,6,-6,-42,14,-25,-24
-26,-63,-53,50,9,-65,8,-5,-42,14,-25,-24
-26,-65,-55,51,11,-67,9,-4,-42,14,-24,-23
-26,-66,-56,51,11,-68,10,-4,-40,15,-23,-22
-26,-66,-57,51,12,-69,10,-4,-39,17,-22,-21
-26,-66,-57,51,12,-69,10,-4,-37,18,-21,-20
-26,-66,-57,51,12,-69,10,-3,-36,20,-20,-19
-26,-66,-57,51,12,-69,10,-2,-36,21,-18,-17
-26,-66,-57,51,12,-69,10,-1,-35,23,-17,-16
-26,-66,-57,51,12,-69,10,-0,-35,24,-16,-15
-25,-66,-59,51,13,-70,10,1,-35,26,-15,-13
-23,-66,-62,49,17,-71,10,2,-33,28,-13,-10
-20,-66,-65,48,20,-73,10,3,-32,29,-12,-8
-17,-66,-69,47,24,-75,10,4,-30,31,-11,-5
-15,-66,-72,45,26,-76,10,5,-28,32,-9,-3
-15,-66,-73,45,27,-77,10,5,-26,32,-5,-0
-14,-66,-73,45,28,-77,10,5,-25,32,-2,2
-14,-66,-73,45,28,-77,10,5,-23,32,2,5
-13,-66,-75,44,29,-77,10,5,-22,33,5,7
-10,-66,-78,43,32,-79,10,5,-21,34,7,8
-8,-66,-82,42,35,-80,10,5,-21,35,9,10
-5,-66,-86,40,39,-83,10,5,-21,37,10,11
-2,-65,-88,38,42,-83,10,5,-21,38,11,13
1,-63,-89,35,45,-82,10,5,-21,40,13,14
4,-60,-90,32,47,-80,10,5,-21,41,14,15
7,-57,-90,29,49,-79,10,5,-21,43,15,16
10,-56,-91,27,51,-78,10,6,-20,45,16,18
13,-55,-94,25,54,-79,10,7,-19,46,18,21
16,-54,-97,23,58,-80,10,8,-18,48,19,23
19,-54,-101,21,62,-82,10,9,-16,49,20,26
22,-56,-107,20,67,-86,10,10,-13,51,22,28
25,-58,-114,19,72,-90,10,10,-10,52,24,31
28,-60,-122,19,78,-95,10,10,-7,54,27,33
31,-63,-130,19,83,-101,10,10,-4,55,29,36
33,-65,-135,19,87,-105,10,10,-1,57,32,38
34,-66,-136,19,88,-105,10,10,-0,59,33,40
34,-66,-138,19,90,-107,10,10,-0,60,35,41
34,-66,-138,19,90,-107,10,10,-0,62,36,43
34,-66,-138,19,90,-107,10,11,0,63,37,43
34,-66,-138,19,90,-107,10,12,2,63,37,44
34,-66,-138,19,90,-107,10,13,3,63,37,44
34,-66,-138,19,90,-107,10,14,5,63,37,44
34,-65,-136,19,89,-105,11,15,7,63,37,43
34,-63,-133,18,87,-102,13,15,8,63,37,42
34,-60,-130,16,86,-99,14,15,10,63,37,41
34,-57,-126,14,83,-95,16,15,12,63,37,40
34,-54,-122,13,82,-92,19,15,13,63,37,39
34,-52,-117,11,79,-88,21,16,13,63,36,37
34,-49,-113,10,78,-84,23,17,14,63,35,36
34,-46,-109,8,75,-80,25,19,14,63,33,35
34,-42,-104,6,73,-75,28,20,14,63,32,33
34,-36,-96,3,69,-68,32,21,14,61,29,31
34,-31,-89,0,66,-61,36,22,14,60,27,28
34,-25,-81,-3,62,-54,40,23,14,59,24,26
33,-20,-73,-5,57,-47,44,24,14,57,21,22
30,-17,-64,-6,52,-41,46,24,14,55,17,19
28,-13,-56,-6,46,-35,49,25,14,54,14,15
25,-11,-48,-6,40,-29,51,25,14,52,10,11
22,-8,-40,-6,35,-23,53,25,13,51,7,8
19,-5,-32,-6,28,-17,55,25,12,49,4,6
16,-2,-24,-6,23,-12,58,25,10,48,1,5
13,1,-15,-6,17,-6,60,25,8,46,-2,3
10,5,-7,-7,10,0,61,24,7,45,-4,2
7,10,4,-9,3,8,61,23,7,43,-5,1
4,15,15,-10,-4,17,62,22,7,41,-7,-0
1,21,28,-12,-12,27,62,21,7,40,-8,-2
-2,26,38,-13,-19,34,61,19,5,38,-9,-3
-5,29,47,-13,-25,41,57,16,1,37,-11,-6
-8,33,56,-14,-31,47,53,13,-4,35,-12,-8
-11,36,64,-14,-38,53,49,9,-9,34,-13,-11
-14,37,71,-13,-42,57,45,5,-14,32,-15,-13
-17,38,76,-12,-47,60,40,1,-19,29,-17,-14
-20,39,81,-10,-51,62,36,-4,-25,26,-20,-16
-23,39,85,-8,-55,64,32,-9,-30,23,-22,-17
-26,37,86,-6,-58,64,27,-12,-34,20,-24,-19
-28,34,85,-3,-58,61,24,-14,-36,18,-26,-19
-29,33,85,-3,-59,61,23,-14,-37,17,-26,-20
-29,33,85,-2,-59,61,23,-15,-37,17,-26,-20
-29,33,85,-2,-59,61,23,-15,-37,17,-26,-20
-29,33,85,-2,-59,61,23,-15,-37,17,-26,-20
-29,33,85,-2,-59,61,23,-15,-37,17,-26,-20
-29,20,67,5,-50,44,13,-16,-41,11,-29,-21
-29,4,44,14,-39,23,1,-17,-46,5,-33,-23
-29,-2,37,17,-35,16,-3,-18,-48,2,-35,-23
-29,-4,34,18,-35,14,-4,-18,-49,2,-35,-24
-28,-5,30,18,-31,11,-5,-18,-49,1,-35,-24
-27,-8,25,19,-28,7,-7,-18,-49,1,-35,-24
-26,-11,20,20,-26,2,-9,-18,-49,1,-35,-24
-26,-13,16,22,-24,-2,-11,-18,-49,1,-35,-24
-26,-16,12,23,-22,-5,-13,-18,-49,1,-35,-24
-26,-19,8,25,-20,-8,-15,-18,-49,1,-35,-24
-26,-22,4,27,-18,-12,-15,-17,-49,1,-34,-24
-26,-25,0,29,-16,-16,-16,-16,-49,1,-33,-24
-26,-28,-4,30,-14,-20,-16,-15,-49,1,-32,-24
-26,-30,-7,31,-13,-22,-16,-14,-49,2,-31,-24
-26,-30,-7,31,-13,-23,-16,-14,-49,3,-30,-24
-26,-31,-8,32,-12,-23,-16,-13,-49,4,-30,-24
-26,-31,-8,32,-12,-23,-16,-13,-49,6,-30,-24
-26,-31,-8,32,-12,-23,-15,-13,-49,7,-30,-24
-26,-31,-8,32,-12,-23,-13,-13,-49,7,-30,-24
-26,-31,-8,32,-12,-23,-11,-13,-49,7,-30,-24
-26,-31,-8,32,-12,-23,-9,-13,-49,7,-30,-24
-26,-32,-10,32,-11,-25,-7,-13,-49,7,-30,-24
-26,-35,-13,34,-9,-28,-5,-13,-49,4,-30,-24
-26,-37,-16,35,-8,-31,-3,-13,-49,1,-30,-24
-26,-40,-20,37,-6,-35,-0,-13,-49,-2,-30,-24
-26,-43,-24,38,-4,-39,1,-13,-49,-4,-31,-24
-26,-46,-29,40,-2,-42,3,-13,-49,-4,-32,-24
-26,-49,-33,42,0,-46,6,-13,-49,-5,-33,-24
-26,-52,-37,44,2,-50,8,-13,-49,-5,-34,-24
-26,-53,-39,44,3,-52,9,-13,-50,-5,-35,-24
-26,-54,-40,45,3,-53,10,-13,-51,-7,-35,-24
-26,-54,-41,45,4,-54,10,-13,-53,-8,-35,-24
-26,-54,-41,45,4,-54,10,-13,-55,-9,-35,-24
-26,-54,-41,45,4,-54,11,-13,-56,-10,-35,-24
-26,-54,-41,45,4,-54,13,-13,-56,-11,-35,-25
-26,-54,-41,45,4,-54,14,-13,-56,-11,-35,-26
-26,-54,-41,45,4,-54,16,-13,-56,-11,-35,-28
-26,-56,-42,45,5,-55,18,-13,-56,-11,-36,-28
-26,-58,-46,47,6,-58,18,-13,-56,-11,-37,-29
-26,-60,-49,48,8,-61,19,-13,-56,-11,-38,-29
-26,-63,-53,50,9,-65,19,-13,-56,-11,-39,-29
-27,-65,-54,51,9,-67,19,-13,-56,-11,-40,-29
-30,-66,-51,53,6,-66,19,-12,-56,-11,-40,-29
-32,-66,-49,55,4,-65,19,-11,-56,-11,-41,-29
-35,-66,-45,56,0,-64,19,-10,-56,-11,-41,-29
-37,-67,-44,58,-2,-64,19,-9,-56,-10,-40,-28
-38,-70,-46,60,-1,-67,19,-9,-54,-9,-39,-27
-38,-72,-49,61,0,-69,19,-9,-53,-8,-38,-26
-38,-75,-53,63,2,-73,19,-9,-51,-6,-37,-25
-37,-77,-57,63,5,-76,19,-9,-50,-5,-36,-24
-35,-77,-61,62,8,-78,21,-9,-50,-5,-36,-24
-32,-78,-65,61,12,-80,23,-9,-49,-5,-35,-24
-30,-78,-69,60,15,-83,25,-9,-50,-5,-36,-24
-27,-78,-73,58,19,-85,27,-9,-50,-5,-36,-24
-27,-78,-73,58,19,-85,27,-9,-50,-5,-36,-24
-39,-67,-41,58,-5,-62,27,1,-43,1,-36,-24
-39,-55,-24,52,-13,-47,36,1,-43,1,-36,-29
-39,-43,-8,45,-20,-32,45,10,-21,14,-36,-34
-51,-32,24,45,-44,-9,62,25,14,32,-36,-34
-63,-32,41,52,-60,-2,79,34,28,38,-36,-45
-63,-32,41,52,-60,-2,88,44,42,45,-36,-50
-63,-32,41,52,-60,-2,88,48,49,57,-25,-50
-51,-20,41,39,-52,6,88,48,63,69,-15,-40
-39,-20,24,32,-36,-2,88,53,70,88,6,-29
-15,15,41,0,-28,29,79,53,84,107,27,-8
10,27,24,-19,-5,29,62,53,98,125,53,18
46,39,-8,-45,35,21,45,48,98,144,74,44
95,74,-24,-91,74,36,1,39,91,162,110,80
144,109,-41,-136,113,52,-51,15,70,162,141,122
193,156,-41,-188,145,82,-103,-18,28,150,162,159
229,191,-41,-227,168,105,-155,-52,-36,131,178,195
266,226,-41,-266,192,127,-206,-85,-85,107,199,242
278,261,-8,-292,184,165,-241,-104,-106,107,230,289
302,285,-8,-318,200,180,-258,-114,-120,107,240,326
302,285,-8,-318,200,180,-258,-128,-134,94,246,347
266,285,41,-299,153,203,-250,-128,-134,82,246,357
254,285,57,-292,137,211,-232,-109,-120,94,256,373
254,273,41,-286,145,195,-206,-99,-120,76,240,373
217,226,24,-240,129,158,-181,-95,-148,20,193,342
180,167,-8,-188,121,105,-137,-95,-198,-67,110,284
144,109,-41,-136,113,52,-94,-85,-226,-141,27,216
107,62,-57,-91,97,14,-51,-75,-247,-191,-57,148
83,39,-57,-65,82,-2,-16,-66,-254,-215,-103,96
59,27,-41,-45,58,-2,10,-66,-254,-215,-124,65
46,15,-41,-32,50,-9,19,-56,-233,-203,-135,39
-2,-8,-8,6,3,-9,45,-42,-198,-172,-124,18
-27,-8,24,19,-28,6,53,-37,-183,-154,-114,7
-27,-8,24,19,-28,6,53,-33,-162,-129,-109,-14
-27,-8,24,19,-28,6,53,-28,-134,-104,-93,-19
-27,-20,8,26,-20,-9,53,-23,-113,-79,-83,-24
-2,-20,-24,13,11,-24,36,-23,-106,-67,-72,-24
-27,-20,8,26,-20,-9,36,-18,-85,-42,-62,-24
-27,-32,-8,32,-13,-24,36,-14,-64,-24,-46,-24
-27,-32,-8,32,-13,-24,53,1,-43,1,-36,-19
-27,-32,-8,32,-13,-24,53,5,-43,7,-36,-19
-27,-32,-8,32,-13,-24,62,10,-36,7,-36,-19
-27,-43,-24,39,-5,-39,71,15,-29,7,-36,-19
-27,-43,-24,39,-5,-39,79,20,-21,14,-30,-14
-27,-43,-24,39,-5,-39,79,20,-21,20,-25,-14
-27,-20,8,26,-20,-9,71,10,-21,20,-25,-14
-35,4,52,18,-47,27,52,-3,-26,15,-26,-14
-40,11,69,16,-59,39,43,-9,-29,13,-28,-16
-44,14,78,16,-65,45,37,-13,-31,11,-30,-19
-48,15,84,18,-71,48,32,-15,-33,9,-33,-21
-49,13,84,19,-72,47,28,-17,-35,7,-35,-23
-50,9,79,22,-70,42,26,-18,-37,6,-35,-25
-51,4,73,25,-67,36,23,-18,-39,4,-35,-26
-51,-2,65,29,-63,29,21,-18,-40,3,-35,-28
-51,-6,59,31,-60,23,19,-18,-42,1,-35,-28
-51,-10,54,33,-57,18,16,-18,-42,0,-35,-29
-51,-13,49,35,-55,14,14,-18,-42,-2,-35,-29
-51,-16,45,36,-53,10,12,-18,-42,-3,-35,-29
-49,-18,41,37,-50,7,11,-18,-42,-4,-35,-28
-47,-19,37,36,-47,5,10,-18,-42,-4,-35,-27
-45,-19,33,35,-43,2,10,-18,-42,-5,-35,-26
-41,-19,29,33,-39,1,10,-18,-42,-5,-35,-25
-40,-20,24,33,-36,-2,10,-18,-42,-5,-35,-24
-39,-23,20,34,-34,-5,10,-18,-42,-5,-35,-24
-38,-25,16,35,-31,-8,10,-18,-42,-5,-35,-24
-38,-28,12,36,-30,-12,10,-18,-42,-5,-35,-24
-38,-31,8,38,-28,-16,10,-18,-42,-4,-35,-24
-38,-34,4,40,-26,-20,10,-17,-42,-3,-35,-24
-38,-37,0,42,-24,-23,10,-16,-42,-2,-35,-24
-38,-40,-4,43,-22,-27,10,-15,-42,0,-35,-24
-38,-42,-7,44,-20,-30,10,-14,-42,1,-35,-23
-38,-42,-7,44,-20,-30,10,-14,-40,3,-34,-22
-38,-43,-8,45,-20,-31,10,-13,-39,4,-33,-21
-38,-43,-8,45,-20,-31,10,-13,-37,6,-32,-20
-38,-43,-8,45,-20,-31,10,-13,-36,7,-30,-19
-38,-43,-8,45,-20,-31,10,-13,-36,7,-29,-19
-38,-43,-8,45,-20,-31,10,-13,-35,7,-28,-19
-38,-43,-8,45,-20,-31,10,-13,-35,7,-26,-19
-38,-43,-8,45,-20,-31,10,-13,-35,7,-26,-19
-38,-43,-8,45,-20,-31,10,-13,-35,7,-25,-19
-38,-43,-8,45,-20,-31,10,-13,-35,7,-25,-19
-38,-43,-8,45,-20,-31,10,-13,-35,7,-25,-19
-38,-43,-8,45,-20,-31,11,-13,-35,7,-26,-19
-38,-43,-8,45,-20,-31,13,-12,-35,7,-27,-19
-38,-43,-8,45,-20,-31,14,-11,-35,7,-28,-19
-38,-43,-8,45,-20,-31,16,-10,-35,7,-29,-19
-38,-43,-8,45,-20,-31,18,-9,-35,7,-30,-19
-38,-43,-8,45,-20,-31,18,-9,-35,7,-30,-19
-38,-43,-8,45,-20,-31,19,-9,-35,7,-30,-19
-38,-43,-8,45,-20,-31,19,-9,-35,7,-30,-19
-38,-43,-8,45,-20,-31,19,-9,-35,8,-30,-19
-38,-43,-8,45,-20,-31,19,-9,-33,9,-29,-19
-38,-43,-8,45,-20,-31,19,-9,-32,11,-28,-19
-38,-43,-8,45,-20,-31,19,-9,-30,12,-26,-19
-38,-44,-10,45,-19,-33,19,-8,-28,14,-25,-18
-38,-46,-13,47,-17,-36,21,-7,-26,15,-24,-17
-38,-49,-16,48,-16,-39,23,-6,-25,17,-22,-16
-38,-52,-20,50,-14,-42,25,-5,-23,18,-21,-15
-37,-53,-24,50,-11,-45,26,-4,-21,20,-19,-13
-35,-54,-29,49,-8,-48,27,-3,-19,21,-17,-10
-32,-54,-33,48,-4,-50,27,-1,-18,23,-15,-8
-29,-54,-37,47,0,-52,27,-0,-16,24,-12,-5
-27,-54,-39,45,2,-53,27,1,-15,26,-10,-3
-27,-54,-40,45,3,-54,27,2,-14,28,-8,-2
-26,-54,-41,45,4,-54,27,3,-14,29,-7,-0
-26,-54,-41,45,4,-54,27,4,-14,31,-5,1
-26,-53,-39,44,3,-52,27,5,-13,32,-4,2
-26,-51,-36,43,2,-49,27,7,-10,34,-1,3
-26,-49,-33,42,0,-46,27,8,-7,35,1,5
-26,-46,-29,40,-2,-42,27,9,-4,37,3,6
-26,-43,-24,38,-4,-39,27,10,-1,38,5,7
-26,-40,-20,37,-6,-35,27,10,1,40,7,9
-26,-37,-16,35,-8,-31,27,10,3,41,9,10
-26,-34,-12,34,-10,-27,27,10,5,43,10,11
-25,-32,-11,32,-9,-26,27,10,7,45,12,13
-23,-32,-14,31,-7,-27,27,10,11,48,14,15
-20,-31,-16,29,-4,-27,27,10,14,51,16,18
-17,-31,-20,27,0,-30,27,10,17,54,19,20
-13,-32,-28,25,6,-33,27,11,20,57,22,23
-7,-35,-38,24,15,-40,27,12,22,60,26,27
-2,-37,-49,22,24,-46,27,13,24,63,29,31
4,-40,-61,21,33,-54,27,14,26,66,33,35
9,-42,-70,19,41,-59,27,15,28,69,37,38
13,-42,-76,18,46,-62,27,15,30,72,41,41
16,-43,-81,16,50,-65,27,15,31,76,45,44
19,-43,-85,14,54,-67,27,15,33,79,49,46
22,-41,-86,12,57,-67,26,15,35,81,52,49
25,-36,-84,8,57,-62,25,15,37,83,55,52
28,-31,-81,3,58,-58,23,15,38,85,58,54
31,-25,-77,-2,58,-52,21,15,40,86,61,57
33,-18,-69,-6,56,-44,19,15,43,89,63,60
34,-10,-59,-12,51,-33,19,16,46,91,66,64
34,-2,-48,-16,46,-23,19,17,49,94,68,67
34,6,-37,-21,40,-13,19,19,52,97,71,71
35,13,-29,-25,37,-5,19,20,55,100,74,74
38,18,-26,-29,38,-1,19,21,57,102,76,76
40,21,-24,-32,39,2,19,22,60,103,79,78
43,24,-24,-36,40,4,19,23,61,105,82,79
45,28,-21,-39,40,8,19,25,63,106,83,80
46,33,-15,-42,37,14,21,26,65,106,84,80
46,39,-8,-45,35,21,23,27,67,107,84,80
46,44,0,-49,31,29,25,28,68,107,84,80
46,49,7,-51,28,35,27,29,69,106,83,80
46,53,11,-53,25,39,29,29,70,105,80,78
46,56,16,-55,23,44,32,29,70,103,76,75
46,59,20,-57,20,48,34,29,70,102,72,73
46,61,23,-58,20,50,36,29,69,100,68,69
46,61,24,-58,19,51,38,29,66,97,65,66
46,62,24,-58,19,52,40,29,63,94,61,62
46,62,24,-58,19,52,42,29,60,91,57,58
45,63,28,-58,17,54,44,29,56,87,52,54
43,66,34,-58,12,58,44,28,52,83,47,50
40,68,41,-58,7,63,45,27,49,79,42,46
37,71,49,-58,1,68,45,26,45,74,37,43
33,73,57,-57,-6,73,44,24,41,69,33,39
27,73,65,-55,-13,77,42,21,36,65,28,35
22,74,73,-52,-20,82,40,17,31,60,24,31
16,74,82,-49,-28,86,38,14,26,55,20,27
10,73,88,-45,-35,88,35,10,20,51,16,23
4,70,92,-41,-41,88,31,5,13,46,10,19
-2,68,97,-36,-47,89,27,1,7,41,3,15
-8,65,101,-31,-53,89,23,-4,-0,37,-3,11
-13,62,104,-27,-57,88,19,-8,-7,32,-9,7
-16,59,104,-23,-61,86,17,-11,-12,26,-13,2
-20,56,105,-20,-63,85,14,-13,-18,20,-17,-3
-23,53,105,-17,-65,83,12,-16,-23,14,-21,-8
-25,50,104,-14,-65,80,11,-17,-27,8,-24,-12
-26,47,100,-12,-64,77,10,-18,-31,3,-27,-14
-26,44,97,-10,-63,73,10,-18,-35,-2,-30,-16
-26,42,93,-8,-61,70,10,-18,-39,-6,-33,-17
-26,37,87,-6,-58,64,10,-18,-41,-9,-35,-18
-26,32,80,-3,-55,58,10,-18,-42,-10,-35,-18
-26,27,73,-1,-51,51,10,-18,-42,-11,-35,-19
-26,21,64,3,-47,43,10,-18,-42,-11,-35,-19
-26,15,56,6,-43,36,10,-18,-42,-11,-35,-19
-26,11,51,8,-41,30,10,-18,-42,-11,-35,-20
-26,10,49,9,-40,29,10,-18,-42,-11,-35,-20
-26,9,48,9,-39,28,10,-18,-42,-11,-35,-20
-26,9,48,9,-39,28,10,-18,-42,-11,-35,-20
-26,9,48,9,-39,28,10,-18,-42,-11,-35,-20
-26,9,48,9,-39,28,10,-18,-42,-11,-35,-20
-26,4,40,12,-35,20,10,-16,-40,-11,-35,-21
-26,-4,29,17,-30,11,10,-14,-38,-11,-35,-23
-26,-6,26,18,-28,8,10,-14,-37,-11,-35,-23
-26,-7,25,18,-28,7,10,-13,-37,-11,-35,-24
-26,-8,24,19,-28,6,10,-13,-36,-11,-35,-24
-26,-9,22,19,-27,4,10,-13,-36,-11,-35,-24
-26,-14,15,22,-24,-2,10,-13,-35,-11,-35,-24
-26,-19,8,25,-20,-8,10,-13,-35,-11,-35,-24
-26,-25,0,29,-16,-16,10,-13,-35,-11,-35,-24
-26,-31,-8,32,-12,-23,10,-13,-35,-11,-35,-24
-26,-37,-16,35,-8,-31,10,-13,-35,-11,-35,-24
-26,-43,-24,38,-4,-39,10,-13,-35,-11,-35,-24
-26,-49,-33,42,0,-46,10,-13,-35,-11,-35,-24
-26,-53,-38,44,2,-52,11,-13,-36,-11,-36,-24
-26,-54,-40,45,3,-53,13,-13,-37,-11,-37,-24
-26,-54,-41,45,4,-54,14,-13,-39,-11,-38,-24
-26,-54,-41,45,4,-54,16,-13,-40,-11,-39,-24
-26,-54,-41,45,4,-54,18,-13,-42,-11,-40,-24
-26,-54,-41,45,4,-54,18,-13,-42,-13,-40,-24
-26,-54,-41,45,4,-54,19,-13,-42,-14,-41,-24
-26,-54,-41,45,4,-54,19,-13,-42,-15,-41,-24
-26,-54,-41,45,4,-54,19,-13,-42,-17,-41,-24
-26,-54,-41,45,4,-54,19,-13,-42,-19,-42,-25
-26,-54,-41,45,4,-54,19,-13,-42,-20,-43,-26
-26,-54,-41,45,4,-54,19,-13,-42,-22,-45,-28
-26,-54,-41,45,4,-54,19,-13,-42,-23,-46,-29
-26,-54,-41,45,4,-54,21,-13,-42,-23,-47,-30
-26,-54,-41,45,4,-54,23,-13,-42,-23,-48,-32
-26,-54,-41,45,4,-54,25,-13,-42,-23,-50,-33
-26,-56,-42,45,5,-55,26,-13,-42,-23,-51,-34
-26,-58,-46,47,6,-58,27,-13,-42,-23,-51,-34
-26,-60,-49,48,8,-61,27,-13,-42,-23,-51,-34
-26,-63,-53,50,9,-65,27,-13,-42,-23,-51,-34
-26,-66,-57,51,12,-69,28,-13,-42,-23,-51,-34
-26,-69,-61,53,13,-73,30,-12,-42,-23,-51,-34
-26,-72,-65,55,16,-77,32,-11,-42,-23,-51,-34
-26,-75,-69,56,17,-80,34,-10,-42,-23,-51,-34
-27,-77,-70,58,17,-82,35,-9,-42,-23,-51,-35
-30,-77,-68,60,14,-81,35,-9,-42,-23,-51,-36
-32,-78,-65,61,12,-80,36,-9,-42,-23,-51,-37
-35,-78,-61,63,8,-79,36,-9,-42,-23,-51,-38
-37,-78,-59,64,6,-77,36,-9,-43,-24,-52,-39
-38,-78,-58,64,5,-77,36,-9,-44,-25,-53,-41
-38,-78,-57,64,4,-77,36,-9,-46,-26,-54,-42
-38,-78,-57,64,4,-77,36,-9,-48,-28,-55,-43
-38,-79,-59,65,5,-78,36,-9,-49,-29,-56,-44
-38,-81,-62,66,6,-81,36,-9,-49,-29,-56,-44
-38,-84,-65,68,8,-84,36,-9,-49,-29,-56,-45
-38,-87,-69,69,9,-88,36,-9,-49,-29,-56,-45
-38,-90,-73,71,12,-92,37,-9,-49,-29,-56,-45
-38,-93,-77,73,13,-95,39,-9,-49,-29,-56,-45
-38,-95,-82,74,16,-99,40,-9,-49,-29,-56,-45
-38,-98,-86,76,17,-103,42,-9,-49,-29,-56,-45
-40,-100,-86,77,17,-105,44,-9,-49,-29,-56,-45
-42,-101,-84,79,14,-104,44,-9,-49,-29,-56,-46
-45,-101,-82,81,12,-103,45,-9,-49,-29,-56,-47
-48,-101,-77,82,8,-102,45,-9,-49,-29,-56,-49
-49,-101,-75,83,6,-100,45,-9,-49,-29,-56,-49
-50,-101,-74,84,5,-100,45,-9,-49,-29,-56,-50
-51,-101,-73,84,4,-99,45,-9,-49,-29,-56,-50
-51,-101,-73,84,4,-99,45,-9,-49,-29,-56,-50
-51,-101,-73,84,4,-99,45,-8,-49,-29,-56,-50
-51,-101,-73,84,4,-99,47,-7,-47,-29,-56,-50
-51,-101,-73,84,4,-99,49,-6,-46,-29,-56,-50
-51,-101,-73,84,4,-99,51,-5,-44,-29,-56,-50
-49,-100,-73,82,4,-98,53,-3,-42,-28,-56,-49
-47,-95,-69,79,4,-93,55,-1,-38,-26,-55,-48
-45,-90,-65,74,4,-88,58,1,-35,-23,-54,-47
-41,-84,-61,69,4,-83,60,3,-32,-20,-52,-46
-38,-79,-59,65,5,-78,62,5,-29,-18,-52,-45
-35,-76,-58,62,6,-76,64,6,-27,-17,-51,-45
-32,-72,-57,58,8,-73,66,8,-25,-17,-51,-45
-29,-69,-57,55,9,-71,68,9,-23,-17,-51,-45
-27,-67,-57,53,11,-70,70,10,-22,-17,-51,-45
-27,-67,-57,52,11,-70,70,10,-21,-17,-51,-45
-26,-66,-57,51,12,-69,71,10,-21,-17,-51,-45
-26,-66,-57,51,12,-69,71,10,-21,-17,-51,-45
-26,-66,-57,51,12,-69,71,10,-21,-17,-51,-45
-26,-66,-57,51,12,-69,71,10,-21,-17,-51,-45
-24,-44,-29,38,-1,-42,79,15,-7,-6,-43,-39
-21,-14,9,19,-17,-5,91,21,12,9,-33,-31
-21,-4,22,14,-23,8,95,24,18,14,-29,-28
-20,-1,26,12,-24,11,96,24,20,16,-28,-27
-20,6,35,8,-29,20,96,25,21,17,-27,-26
-20,20,55,0,-39,38,94,25,23,20,-25,-25
-19,32,70,-7,-46,53,91,24,24,21,-24,-23
-18,39,78,-12,-49,61,87,21,25,21,-22,-22
-16,44,84,-16,-50,67,84,18,26,22,-21,-21
-14,52,91,-21,-52,75,79,15,26,23,-19,-19
-14,57,99,-24,-56,83,76,13,26,24,-18,-18
-18,63,112,-25,-65,92,73,12,26,23,-17,-19
-24,66,124,-23,-75,100,70,10,25,23,-17,-19
-29,69,135,-22,-83,108,67,9,24,23,-17,-19
-32,73,145,-23,-90,114,63,7,23,22,-17,-19
-32,77,150,-25,-93,119,58,5,21,21,-18,-20
-34,78,154,-25,-95,122,53,3,19,20,-20,-21
-35,80,158,-25,-98,125,47,2,17,18,-21,-22
-35,82,162,-26,-100,128,43,0,15,16,-22,-23
-34,83,162,-27,-99,129,41,-2,14,15,-22,-23
-31,87,162,-31,-97,131,39,-4,13,15,-23,-24
-27,92,164,-36,-96,136,38,-5,12,14,-24,-24
-24,95,166,-40,-95,139,36,-7,11,13,-25,-25
-24,97,167,-40,-96,140,34,-9,10,12,-26,-26
-26,97,170,-40,-97,142,32,-10,8,10,-27,-27
-27,97,171,-39,-99,142,29,-11,5,8,-29,-28
-29,94,170,-36,-100,139,27,-13,3,7,-30,-30
-29,87,161,-32,-96,131,25,-14,1,6,-33,-31
-30,79,151,-27,-92,121,23,-14,-1,6,-34,-32
-32,70,139,-21,-87,110,21,-14,-4,5,-36,-34
-31,61,127,-17,-81,98,18,-14,-5,4,-37,-35
-30,56,118,-15,-75,91,15,-15,-8,2,-37,-36
-29,50,109,-12,-71,83,13,-17,-10,-0,-38,-37
-28,46,101,-10,-66,77,12,-19,-12,-2,-39,-37
-27,41,93,-8,-61,70,10,-20,-13,-3,-39,-37
-24,36,83,-6,-55,62,10,-20,-15,-5,-40,-38
-24,32,77,-5,-53,57,10,-20,-17,-7,-41,-39
-27,28,75,0,-53,52,9,-20,-18,-8,-42,-39
-29,25,73,2,-53,50,8,-20,-19,-9,-43,-40
-28,25,72,2,-52,49,8,-20,-21,-10,-44,-42
-27,23,69,2,-50,47,7,-20,-22,-12,-45,-45
-26,21,64,3,-46,43,6,-20,-23,-12,-46,-47
-24,18,57,3,-42,38,6,-20,-23,-13,-47,-48
-23,16,54,4,-40,36,6,-21,-24,-15,-48,-48
-24,13,51,6,-40,33,6,-21,-25,-16,-50,-49
-26,11,49,8,-39,30,6,-22,-25,-17,-51,-49
-25,9,46,9,-38,27,6,-22,-25,-18,-52,-49
-23,5,38,10,-32,20,6,-23,-25,-19,-52,-49
-21,1,29,11,-26,14,6,-24,-25,-19,-52,-49
-20,-5,20,14,-22,6,6,-25,-26,-20,-53,-49
-20,-9,15,16,-19,1,6,-26,-27,-22,-54,-50
-20,-12,11,18,-17,-2,6,-26,-28,-23,-55,-52
-21,-16,7,21,-16,-7,6,-26,-29,-25,-56,-54
-23,-19,3,23,-15,-11,7,-25,-30,-26,-57,-54
-24,-22,1,25,-15,-14,8,-25,-32,-27,-57,-55
-26,-24,2,28,-17,-14,8,-25,-33,-28,-58,-55
-29,-24,6,29,-20,-13,9,-25,-33,-27,-58,-54
-32,-23,11,31,-25,-9,10,-25,-33,-27,-58,-54
-34,-25,11,32,-26,-11,10,-25,-33,-27,-58,-54
-35,-31,3,36,-23,-18,12,-25,-33,-28,-58,-55
-35,-38,-6,40,-19,-27,15,-25,-33,-28,-58,-55
-35,-45,-15,45,-14,-36,18,-23,-33,-28,-58,-54
-35,-52,-24,48,-10,-45,20,-23,-33,-28,-58,-54
-35,-56,-31,51,-7,-51,20,-23,-33,-28,-57,-53
-35,-60,-36,53,-5,-55,21,-23,-33,-30,-57,-53
-35,-64,-42,55,-2,-61,21,-23,-34,-32,-57,-53
-37,-69,-46,58,-1,-65,21,-22,-35,-33,-58,-54
-40,-71,-45,62,-3,-67,22,-22,-35,-34,-59,-55
-41,-71,-45,62,-4,-67,23,-22,-35,-34,-60,-55
-41,-73,-46,63,-4,-68,23,-22,-35,-34,-61,-57
-40,-75,-51,64,-1,-72,23,-22,-36,-35,-63,-59
-39,-77,-55,64,2,-75,23,-21,-37,-36,-64,-60
-40,-77,-55,65,2,-75,23,-21,-39,-37,-65,-62
-42,-78,-52,66,-1,-74,23,-20,-40,-39,-66,-62
-44,-80,-52,68,-2,-76,23,-20,-41,-40,-66,-63
-42,-84,-61,70,3,-83,23,-20,-41,-40,-67,-63
-40,-89,-71,71,9,-90,23,-20,-40,-40,-67,-63
-39,-91,-75,72,12,-94,23,-20,-40,-40,-67,-63
-40,-91,-74,73,11,-93,24,-20,-40,-40,-67,-63
-42,-94,-75,75,10,-95,26,-20,-41,-40,-67,-62
-45,-100,-80,80,11,-102,28,-20,-42,-40,-67,-62
-48,-105,-82,84,10,-106,32,-20,-42,-40,-67,-62
