I,II,III,aVR,aVL,aVF,V1,V2,V3,V4,V5,V6
236,89,-182,-207,212,-101,-215,-275,-293,-291,56,188
236,45,-209,-188,226,-143,-212,-269,-288,-289,58,189
233,14,-224,-173,233,-170,-208,-263,-281,-282,67,195
249,5,-245,-180,251,-190,-205,-254,-273,-269,79,202
254,19,-243,-190,252,-182,-202,-246,-263,-257,86,207
254,14,-245,-188,254,-186,-197,-240,-256,-248,95,211
257,-12,-264,-179,265,-213,-190,-234,-249,-243,99,211
257,-35,-277,-169,271,-233,-183,-226,-244,-245,95,211
260,-65,-298,-158,283,-264,-178,-220,-242,-252,88,207
265,-101,-324,-146,299,-301,-175,-214,-238,-256,79,204
265,-123,-337,-137,306,-322,-171,-207,-232,-256,63,195
257,-132,-335,-127,300,-324,-167,-197,-225,-256,54,189
257,-150,-345,-120,306,-340,-158,-185,-213,-240,63,189
265,-136,-345,-131,310,-334,-152,-173,-203,-230,67,189
260,-101,-319,-142,294,-297,-144,-161,-190,-215,67,189
262,-96,-319,-146,295,-295,-136,-150,-179,-204,70,197
270,-127,-345,-139,313,-330,-129,-138,-169,-193,74,195
270,-83,-319,-158,299,-289,-122,-130,-160,-183,74,195
273,-70,-314,-165,298,-278,-116,-120,-151,-170,88,195
294,-70,-335,-180,319,-295,-109,-110,-143,-157,83,189
294,-65,-332,-183,318,-291,-102,-100,-135,-152,74,182
283,-65,-321,-175,307,-283,-97,-91,-127,-145,65,168
269,-64,-306,-165,292,-269,-92,-85,-121,-135,51,158
252,-69,-293,-151,277,-262,-85,-78,-114,-130,35,145
236,-82,-284,-133,264,-261,-79,-71,-107,-128,16,131
218,-104,-279,-111,253,-268,-72,-64,-102,-127,-5,114
200,-119,-270,-92,239,-268,-65,-57,-96,-126,-25,98
179,-124,-252,-74,219,-255,-58,-50,-90,-123,-43,81
149,-126,-223,-52,189,-234,-51,-43,-84,-115,-58,65
116,-122,-189,-30,155,-205,-44,-35,-76,-106,-69,50
91,-113,-158,-16,126,-176,-37,-28,-69,-96,-77,37
69,-107,-132,-3,102,-154,-31,-21,-63,-86,-85,24
45,-107,-109,14,78,-135,-25,-14,-56,-78,-96,10
19,-112,-86,35,54,-119,-20,-8,-50,-72,-108,-5
-9,-123,-64,61,28,-107,-14,-2,-45,-68,-123,-21
-38,-137,-43,87,3,-98,-8,3,-40,-63,-137,-36
-56,-142,-28,102,-14,-88,-4,7,-37,-59,-145,-46
-63,-137,-18,105,-22,-78,-1,9,-34,-55,-150,-51
-67,-130,-11,105,-28,-69,1,13,-31,-47,-150,-54
-71,-119,1,102,-36,-55,4,16,-26,-37,-147,-56
-76,-108,12,102,-44,-41,8,20,-22,-28,-144,-60
-80,-101,20,102,-50,-31,11,24,-18,-20,-142,-64
-83,-97,25,102,-54,-26,13,27,-16,-16,-142,-67
-87,-96,29,105,-59,-22,15,28,-14,-14,-143,-68
-89,-97,31,106,-60,-21,16,29,-13,-12,-144,-69
-90,-99,30,108,-60,-22,17,30,-12,-11,-144,-70
-90,-98,32,108,-61,-21,18,31,-11,-10,-144,-71
-92,-96,34,108,-64,-18,18,32,-10,-9,-144,-73
-95,-96,38,110,-67,-15,19,33,-10,-8,-145,-76
-97,-96,40,111,-69,-13,19,33,-9,-8,-146,-78
-97,-96,40,111,-69,-13,19,34,-8,-6,-145,-79
-97,-94,41,111,-69,-12,20,36,-7,-4,-144,-79
-95,-90,41,108,-68,-10,21,37,-6,-2,-143,-78
-93,-88,41,105,-68,-9,21,39,-5,-1,-142,-78
-93,-87,41,105,-67,-8,23,40,-4,1,-141,-78
-93,-89,39,105,-67,-11,24,40,-2,1,-142,-79
-93,-90,39,106,-66,-12,25,41,-1,2,-143,-81
-94,-91,40,108,-68,-12,26,41,0,3,-144,-81
-97,-94,41,111,-69,-12,27,42,1,3,-144,-82
-96,-95,39,110,-68,-13,28,43,2,3,-144,-82
-95,-96,38,110,-67,-15,28,44,3,3,-144,-82
-97,-96,40,111,-69,-13,29,45,4,3,-143,-82
-97,-96,40,111,-69,-13,30,47,5,3,-142,-82
-97,-94,41,111,-69,-12,30,49,6,5,-141,-84
-96,-92,41,109,-69,-11,32,50,8,6,-141,-85
-95,-91,41,108,-69,-11,33,52,8,8,-141,-88
-95,-89,42,108,-69,-9,34,53,9,9,-142,-90
-97,-88,45,108,-72,-6,35,54,10,10,-144,-92
-100,-86,48,109,-75,-2,35,55,11,10,-147,-92
-100,-82,51,108,-76,2,36,56,12,11,-150,-92
-101,-80,54,108,-78,5,37,57,13,12,-151,-92
-103,-80,56,109,-80,7,38,59,15,14,-151,-92
-106,-81,57,111,-82,7,39,60,16,15,-151,-92
-110,-82,60,114,-86,8,40,62,18,17,-151,-93
-112,-85,61,117,-88,8,41,64,19,18,-152,-94
-113,-90,59,120,-87,4,42,66,21,20,-152,-96
-114,-94,58,123,-86,2,44,67,22,21,-152,-98
-115,-96,57,124,-87,0,45,68,23,23,-151,-101
-117,-99,58,127,-88,-1,46,69,24,24,-152,-103
-119,-100,59,129,-90,-1,47,71,25,25,-152,-104
-120,-100,60,130,-91,0,48,72,27,26,-153,-104
-121,-100,61,130,-92,2,50,74,28,28,-153,-105
-120,-98,61,129,-91,2,51,76,30,30,-154,-106
-119,-96,61,127,-91,3,52,78,32,32,-156,-109
-121,-96,64,128,-93,5,53,80,34,34,-158,-111
-122,-96,65,130,-94,7,54,82,35,37,-162,-114
-124,-96,67,131,-97,7,55,83,37,39,-163,-117
-128,-96,71,133,-100,11,56,85,39,41,-164,-118
-131,-96,74,136,-103,12,56,86,40,43,-164,-119
-131,-94,75,135,-104,14,57,88,42,45,-164,-120
-130,-90,76,133,-104,17,58,90,44,48,-163,-121
-131,-88,78,132,-106,20,58,91,46,51,-162,-121
-132,-86,80,132,-107,22,58,93,49,54,-162,-121
-133,-83,83,132,-109,26,58,95,51,56,-162,-121
-135,-82,86,133,-112,28,59,96,54,59,-162,-122
-136,-82,87,134,-113,30,59,98,56,63,-162,-122
-137,-81,89,133,-114,31,60,99,58,66,-162,-123
-138,-79,90,133,-115,34,61,100,60,69,-161,-124
-136,-77,90,132,-115,35,61,102,62,72,-159,-125
-135,-73,91,130,-115,37,62,103,64,76,-157,-126
-135,-71,92,128,-115,39,62,105,67,80,-155,-128
-135,-71,92,128,-115,39,62,106,69,83,-154,-130
-136,-73,92,130,-115,38,62,108,72,87,-152,-131
-138,-72,95,130,-118,40,62,109,74,91,-151,-131
-140,-70,98,131,-120,44,62,111,76,95,-147,-130
-140,-69,99,131,-121,44,61,112,79,99,-144,-128
-138,-65,99,127,-120,47,61,113,81,103,-141,-128
-131,-54,99,118,-116,52,61,113,83,108,-138,-127
-126,-45,99,111,-114,56,60,113,84,114,-133,-125
-122,-36,100,104,-113,61,59,113,86,118,-130,-123
-116,-26,101,95,-110,67,58,113,87,122,-125,-121
-111,-19,99,89,-106,68,56,113,88,126,-118,-119
-107,-17,97,85,-103,68,55,113,88,128,-112,-116
-101,-11,95,78,-99,68,53,113,89,130,-107,-114
-94,-3,92,69,-94,70,51,112,90,134,-101,-111
-88,2,89,63,-89,70,49,111,90,137,-97,-108
-82,8,87,56,-85,71,47,110,89,140,-93,-105
-74,16,84,47,-80,72,45,108,89,142,-89,-101
-65,20,77,39,-72,69,43,106,87,144,-85,-99
-57,27,73,30,-66,69,41,104,86,144,-79,-97
-48,37,70,20,-60,72,38,102,84,143,-71,-96
-41,45,68,11,-55,73,36,99,81,143,-64,-94
-35,50,65,5,-51,73,33,96,79,143,-59,-92
-30,56,63,-2,-46,74,30,93,76,142,-55,-88
-24,62,61,-8,-43,76,27,89,74,142,-51,-83
-20,67,60,-14,-41,77,24,85,71,141,-48,-78
-16,73,59,-20,-38,80,22,81,68,138,-45,-75
-10,82,59,-27,-35,84,19,77,64,136,-40,-72
-1,95,57,-39,-29,88,16,73,60,132,-35,-68
9,107,55,-52,-23,92,14,69,56,128,-30,-65
15,116,54,-60,-19,96,11,65,52,124,-26,-62
19,119,51,-64,-16,95,9,60,48,119,-24,-59
23,119,48,-67,-13,93,6,56,44,115,-24,-56
24,120,47,-68,-12,92,4,52,39,109,-23,-54
25,118,45,-67,-10,90,1,47,35,104,-24,-54
25,112,41,-66,-8,84,-1,43,31,98,-25,-54
25,106,38,-63,-6,78,-3,39,27,92,-26,-55
24,96,33,-58,-4,70,-6,35,22,86,-28,-55
24,88,28,-55,-2,63,-8,31,18,81,-29,-56
26,86,25,-55,1,59,-10,28,14,74,-30,-57
28,84,22,-55,3,56,-12,25,11,69,-30,-57
30,79,17,-55,6,49,-14,22,8,63,-31,-57
30,73,14,-52,8,44,-16,19,5,57,-33,-57
27,66,13,-47,7,40,-17,17,2,51,-37,-57
23,58,12,-41,6,35,-19,14,-1,46,-41,-58
20,51,11,-36,5,31,-20,12,-3,42,-44,-59
16,44,10,-30,3,28,-20,10,-5,37,-48,-60
12,36,9,-23,2,24,-21,8,-7,32,-52,-62
8,29,9,-17,-1,21,-21,6,-9,28,-56,-63
6,24,8,-14,-1,17,-22,5,-12,23,-60,-65
5,20,7,-12,-1,14,-22,4,-13,20,-63,-67
5,19,7,-11,-1,14,-22,3,-13,19,-64,-67
5,19,6,-11,-1,13,-22,3,-14,19,-64,-67
5,19,6,-11,-1,13,-22,3,-14,18,-64,-67
5,19,6,-11,-1,13,-22,3,-14,18,-64,-67
5,19,6,-11,-1,13,-22,3,-14,18,-64,-67
-7,2,8,5,-7,7,-22,-0,-17,8,-69,-71
-22,-22,9,26,-15,-3,-22,-4,-22,-6,-75,-76
-27,-30,9,33,-18,-7,-22,-6,-24,-10,-77,-77
-28,-33,9,35,-19,-8,-22,-6,-24,-12,-77,-78
-29,-34,9,36,-19,-9,-22,-7,-24,-12,-77,-78
-30,-34,9,36,-19,-8,-22,-7,-24,-12,-75,-78
-30,-34,9,36,-19,-8,-21,-7,-24,-13,-74,-79
-30,-34,9,36,-19,-8,-21,-7,-24,-14,-73,-80
-30,-34,9,36,-19,-8,-21,-7,-24,-15,-73,-82
-30,-34,9,36,-19,-8,-21,-7,-24,-16,-73,-83
-30,-34,9,36,-19,-8,-21,-7,-24,-17,-73,-84
-30,-34,9,36,-19,-8,-21,-7,-24,-17,-73,-85
-30,-34,9,36,-19,-8,-21,-7,-24,-18,-73,-85
-30,-34,9,36,-19,-8,-21,-7,-24,-18,-73,-85
-30,-34,9,36,-19,-8,-21,-7,-24,-18,-73,-85
-30,-34,9,36,-19,-8,-21,-7,-24,-18,-73,-85
-30,-34,9,36,-19,-8,-21,-7,-24,-18,-73,-85
-30,-34,9,36,-19,-8,-21,-7,-24,-18,-73,-85
-30,-34,9,36,-19,-8,-21,-7,-24,-18,-73,-85
-30,-34,9,36,-19,-8,-21,-7,-24,-18,-73,-85
-30,-34,9,36,-19,-8,-21,-7,-24,-18,-73,-85
-30,-34,9,36,-19,-8,-21,-7,-24,-18,-73,-85
-30,-34,9,36,-19,-8,-21,-7,-24,-18,-72,-85
-30,-34,9,36,-19,-8,-21,-7,-24,-18,-71,-85
-30,-34,9,36,-19,-8,-21,-7,-24,-18,-69,-85
-30,-34,9,36,-19,-8,-21,-7,-24,-18,-66,-85
-30,-35,8,37,-19,-10,-21,-7,-24,-18,-65,-85
-30,-39,6,39,-18,-13,-21,-7,-24,-18,-65,-85
-30,-42,4,40,-17,-16,-21,-7,-24,-18,-64,-85
-30,-47,2,42,-15,-21,-21,-7,-24,-18,-64,-85
-31,-50,1,44,-15,-22,-21,-7,-24,-18,-64,-86
-33,-50,3,45,-18,-21,-21,-7,-24,-18,-64,-87
-35,-51,4,48,-19,-21,-20,-7,-24,-18,-64,-89
-37,-51,7,49,-22,-19,-20,-7,-24,-18,-64,-90
-39,-50,9,50,-24,-16,-20,-7,-24,-18,-64,-92
-40,-46,12,48,-26,-12,-19,-7,-24,-18,-64,-92
-40,-42,15,48,-27,-8,-19,-7,-24,-18,-64,-92
-40,-38,17,45,-29,-4,-19,-7,-24,-18,-64,-92
-40,-35,19,45,-29,-2,-20,-7,-24,-18,-64,-92
-40,-35,19,44,-30,-1,-20,-7,-24,-18,-64,-92
-40,-34,20,44,-30,0,-20,-7,-24,-18,-64,-92
-40,-34,20,44,-30,0,-21,-7,-24,-18,-64,-92
-40,-34,20,44,-30,0,-21,-7,-24,-18,-64,-92
-40,-34,20,44,-30,0,-21,-7,-24,-18,-64,-92
-40,-34,20,44,-30,0,-21,-7,-24,-18,-64,-92
-40,-34,20,44,-30,0,-21,-7,-24,-18,-64,-92
-40,-34,20,44,-30,0,-21,-7,-24,-18,-64,-92
-40,-34,20,44,-30,0,-21,-7,-24,-18,-64,-92
-37,-22,24,37,-31,8,-21,-6,-23,-16,-61,-93
-34,-6,30,27,-32,20,-19,-6,-21,-15,-56,-94
-33,-1,32,24,-33,24,-19,-6,-20,-14,-54,-94
-32,1,33,23,-33,26,-19,-6,-20,-14,-53,-94
-32,3,34,23,-33,27,-19,-6,-20,-14,-52,-94
-32,6,36,21,-34,30,-18,-6,-20,-13,-49,-93
-32,9,37,20,-35,33,-18,-5,-19,-12,-45,-93
-31,10,36,18,-34,32,-18,-5,-19,-11,-44,-92
-28,13,36,15,-32,34,-17,-5,-19,-11,-44,-92
-27,19,38,12,-33,38,-17,-5,-18,-10,-43,-91
-27,23,40,10,-34,42,-17,-5,-18,-9,-42,-90
-27,26,42,9,-35,44,-16,-5,-18,-9,-41,-90
-26,30,44,6,-35,48,-16,-4,-17,-8,-40,-90
-24,35,44,3,-34,50,-15,-4,-17,-6,-39,-88
-21,42,45,-2,-33,54,-15,-3,-16,-4,-37,-87
-17,50,46,-8,-32,58,-15,-3,-16,-4,-35,-87
-15,52,46,-11,-30,59,-16,-3,-16,-3,-33,-86
-13,53,45,-13,-29,59,-16,-3,-16,-2,-33,-85
-8,59,44,-19,-26,61,-16,-3,-15,-2,-32,-84
-3,69,44,-27,-24,66,-17,-3,-15,-1,-29,-83
-2,73,46,-30,-24,69,-18,-4,-14,0,-27,-80
-3,75,47,-30,-25,72,-19,-4,-14,0,-26,-79
-2,76,47,-30,-25,72,-21,-5,-14,-1,-25,-78
0,74,44,-31,-22,68,-23,-6,-15,-1,-25,-78
2,73,41,-32,-20,65,-24,-7,-15,-3,-25,-78
4,71,38,-33,-18,63,-25,-8,-16,-4,-25,-78
4,68,36,-32,-16,59,-26,-8,-17,-5,-26,-78
5,67,35,-32,-15,58,-27,-9,-17,-6,-27,-78
7,67,33,-33,-13,56,-27,-9,-17,-6,-27,-77
11,69,30,-37,-10,55,-26,-8,-16,-6,-25,-76
14,71,28,-39,-7,54,-27,-8,-16,-6,-22,-75
14,73,29,-41,-7,56,-27,-8,-16,-6,-19,-75
15,75,30,-42,-7,58,-27,-9,-17,-7,-16,-74
15,74,29,-42,-7,57,-27,-9,-17,-7,-14,-73
15,71,27,-40,-6,54,-28,-10,-17,-8,-13,-73
14,65,25,-37,-6,49,-27,-10,-18,-10,-15,-75
13,57,21,-33,-4,42,-26,-11,-19,-11,-16,-76
11,44,15,-27,-2,32,-26,-11,-19,-13,-20,-77
8,33,12,-19,-2,24,-25,-12,-20,-14,-22,-79
6,22,7,-13,-1,16,-25,-12,-19,-14,-24,-80
6,13,2,-9,2,7,-24,-11,-19,-12,-25,-79
6,7,-2,-6,4,2,-22,-11,-18,-11,-25,-78
4,4,-2,-4,4,0,-21,-10,-17,-10,-25,-77
1,3,1,-2,1,2,-20,-9,-17,-9,-23,-77
-3,4,5,1,-3,5,-19,-8,-17,-9,-21,-78
-6,5,9,3,-7,9,-19,-8,-17,-9,-19,-79
-11,2,12,8,-11,9,-18,-7,-17,-9,-18,-80
-14,-5,11,13,-12,6,-19,-8,-17,-11,-20,-82
-17,-11,11,17,-14,3,-19,-8,-18,-13,-23,-84
-21,-16,12,23,-16,2,-19,-9,-18,-15,-25,-86
-24,-20,12,27,-18,0,-18,-9,-19,-16,-28,-88
-28,-23,14,30,-21,0,-18,-9,-19,-18,-30,-89
-33,-26,17,35,-25,2,-17,-9,-19,-20,-31,-90
-37,-29,20,40,-29,2,-17,-9,-20,-22,-32,-91
-41,-32,22,44,-31,2,-17,-9,-20,-24,-33,-92
-44,-36,22,48,-33,0,-17,-9,-20,-25,-34,-92
-46,-41,22,52,-34,-2,-17,-9,-20,-25,-35,-93
-46,-42,22,52,-34,-2,-17,-10,-20,-25,-35,-94
-46,-39,23,50,-34,-1,-17,-10,-20,-25,-35,-93
-47,-38,25,51,-36,2,-17,-10,-20,-25,-35,-92
-48,-40,24,52,-36,0,-17,-10,-20,-25,-35,-90
-46,-39,23,51,-35,0,-17,-10,-19,-25,-35,-89
-46,-40,23,51,-35,-1,-17,-10,-19,-25,-34,-88
-47,-42,23,52,-35,-2,-17,-10,-19,-24,-32,-87
-48,-42,23,53,-35,-2,-17,-10,-19,-23,-30,-88
-48,-44,22,54,-35,-4,-17,-10,-19,-23,-28,-88
-48,-46,20,55,-34,-6,-17,-10,-19,-22,-26,-89
-48,-47,20,55,-34,-7,-17,-10,-19,-22,-26,-89
-50,-47,22,56,-36,-5,-17,-10,-19,-23,-27,-90
-52,-49,23,59,-38,-5,-17,-10,-19,-23,-28,-90
-53,-52,22,61,-37,-7,-18,-10,-19,-23,-29,-90
-53,-55,20,62,-37,-10,-18,-10,-19,-24,-30,-90
-53,-57,19,63,-36,-12,-17,-10,-19,-24,-29,-90
-53,-60,17,64,-35,-15,-17,-10,-18,-23,-28,-90
-53,-63,16,66,-35,-17,-17,-10,-18,-24,-28,-90
-53,-65,14,67,-34,-20,-17,-9,-18,-24,-28,-90
-53,-68,13,68,-33,-22,-16,-9,-18,-23,-28,-90
-52,-69,11,67,-31,-24,-16,-8,-18,-23,-28,-90
-51,-63,14,64,-33,-19,-15,-8,-18,-24,-28,-90
-47,-50,18,56,-33,-9,-15,-8,-18,-23,-27,-88
-38,-35,17,42,-28,-2,-15,-8,-17,-22,-26,-84
-38,-30,20,41,-29,2,-15,-8,-16,-22,-26,-84
-38,-48,9,48,-23,-15,-15,-8,-16,-21,-26,-86
-46,-52,15,56,-30,-13,-15,-8,-16,-18,-24,-86
-46,-43,20,52,-33,-5,-13,-5,-12,-14,-24,-87
-41,-43,15,48,-28,-9,-10,-2,-9,-11,-24,-94
-54,-52,23,61,-38,-7,-8,1,-5,-13,-19,-91
-33,-52,2,46,-17,-23,-8,-2,-6,-13,-19,-91
-35,-48,7,46,-21,-17,-13,-15,-12,-17,-19,-91
-38,-48,9,48,-23,-15,-20,-26,-20,-19,-19,-89
-48,-48,20,56,-34,-7,-22,-34,-24,-19,-19,-89
-48,-48,20,56,-34,-7,-20,-40,-27,-17,-19,-84
-56,-57,23,65,-39,-9,-22,-47,-35,-24,-24,-86
-70,-57,36,75,-53,2,-26,-60,-46,-40,-28,-93
-70,-57,36,75,-53,2,-34,-76,-60,-52,-30,-93
-56,-57,23,65,-39,-9,-45,-91,-71,-65,-35,-91
-46,-52,15,56,-30,-13,-57,-105,-87,-78,-35,-89
-33,-30,15,37,-23,-2,-72,-121,-102,-89,-35,-86
-22,-26,7,27,-14,-7,-88,-143,-122,-109,-37,-80
-14,-8,9,14,-12,3,-104,-168,-148,-137,-40,-75
-19,10,25,11,-22,24,-120,-191,-171,-161,-40,-70
-6,41,30,-12,-19,42,-143,-221,-195,-184,-37,-54
9,45,17,-26,-4,34,-165,-250,-222,-213,-37,-46
17,81,30,-46,-6,61,-185,-280,-249,-246,-33,-34
23,85,28,-52,-3,61,-200,-299,-266,-267,-33,-29
38,81,9,-61,15,44,-214,-314,-279,-282,-35,-27
70,89,-17,-88,44,28,-226,-320,-287,-291,-26,-16
91,107,-27,-111,60,28,-234,-328,-292,-291,-12,-4
128,134,-48,-148,90,24,-240,-332,-294,-289,13,17
154,147,-67,-173,112,16,-245,-334,-295,-288,29,30
175,178,-69,-202,124,28,-248,-333,-297,-283,51,40
197,187,-85,-220,143,20,-247,-331,-292,-274,65,58
223,196,-106,-243,167,7,-247,-328,-289,-269,79,67
241,209,-117,-262,181,6,-249,-326,-286,-262,95,78
252,218,-122,-273,189,6,-249,-323,-284,-256,108,88
265,227,-130,-286,200,3,-248,-319,-280,-249,122,97
265,244,-119,-294,195,20,-247,-316,-278,-249,126,104
257,231,-119,-283,191,13,-243,-315,-274,-250,126,106
254,200,-135,-267,197,-13,-239,-310,-272,-246,126,106
244,169,-143,-247,196,-34,-232,-305,-268,-253,124,106
244,142,-159,-236,204,-58,-223,-299,-265,-252,133,115
247,125,-172,-230,212,-77,-219,-293,-262,-253,138,117
252,125,-177,-233,218,-81,-216,-289,-260,-253,142,122
265,134,-185,-247,228,-83,-214,-286,-258,-250,149,127
273,116,-203,-245,242,-105,-213,-282,-254,-240,158,140
278,72,-235,-230,260,-151,-213,-279,-248,-234,165,145
278,98,-219,-241,252,-126,-210,-273,-244,-232,167,147
286,85,-235,-241,264,-145,-206,-263,-235,-224,177,152
302,76,-256,-248,283,-166,-203,-254,-224,-206,197,159
307,72,-264,-251,290,-174,-198,-246,-217,-200,204,165
307,67,-266,-248,291,-178,-192,-238,-210,-191,213,168
310,41,-285,-239,301,-204,-186,-230,-203,-180,217,168
310,19,-298,-230,308,-225,-181,-223,-198,-183,213,168
302,-12,-308,-211,310,-248,-178,-216,-195,-189,206,165
307,-48,-335,-199,326,-285,-175,-210,-192,-193,197,161
307,-70,-348,-190,332,-306,-169,-203,-186,-193,181,159
299,-79,-345,-180,327,-307,-163,-194,-178,-198,172,154
320,-43,-345,-211,338,-291,-154,-179,-166,-188,181,154
328,-30,-345,-222,342,-285,-146,-168,-154,-167,186,161
323,-30,-340,-218,337,-281,-138,-156,-144,-169,186,161
315,-26,-329,-214,327,-270,-130,-146,-136,-162,179,161
323,-39,-345,-214,339,-289,-121,-135,-126,-152,183,159
323,-30,-340,-218,337,-281,-114,-125,-119,-141,183,159
305,-17,-314,-211,314,-254,-107,-114,-110,-128,188,159
305,-17,-314,-211,314,-254,-101,-104,-102,-121,183,154
305,-12,-311,-213,313,-250,-94,-95,-95,-115,174,147
294,-12,-300,-205,302,-241,-87,-86,-88,-114,165,140
279,-25,-293,-189,291,-241,-80,-78,-81,-110,152,129
263,-41,-286,-170,279,-244,-72,-69,-75,-108,136,117
246,-64,-283,-148,269,-252,-65,-61,-68,-107,116,103
229,-96,-285,-123,261,-268,-57,-53,-62,-106,95,86
211,-113,-277,-102,248,-270,-50,-46,-57,-105,75,69
189,-113,-256,-86,226,-254,-43,-39,-51,-102,57,53
160,-107,-223,-68,194,-225,-35,-32,-44,-95,42,36
127,-95,-183,-50,157,-188,-28,-24,-37,-85,31,21
101,-81,-149,-37,127,-154,-21,-17,-30,-75,22,9
80,-73,-122,-25,103,-130,-15,-10,-23,-65,12,-2
56,-72,-98,-8,78,-110,-9,-3,-17,-57,0,-15
30,-76,-75,12,54,-95,-3,3,-11,-51,-15,-28
0,-88,-52,39,27,-82,2,8,-5,-47,-30,-43
-31,-102,-29,67,-1,-71,7,13,-1,-43,-43,-57
-51,-106,-12,83,-19,-59,11,17,3,-38,-50,-68
-61,-102,0,88,-30,-48,13,20,5,-34,-52,-73
-66,-96,9,89,-38,-38,15,23,9,-26,-51,-75
-71,-88,18,89,-44,-27,18,27,13,-18,-48,-76
-76,-81,27,90,-52,-16,21,31,17,-10,-44,-77
-80,-79,33,92,-57,-11,23,35,21,-3,-42,-79
-83,-78,37,94,-60,-7,26,37,24,0,-42,-82
-87,-78,40,96,-64,-5,27,39,26,2,-43,-83
-89,-80,41,98,-66,-5,29,40,27,3,-44,-83
-90,-81,41,100,-66,-6,30,41,29,5,-44,-84
-90,-81,42,100,-67,-5,32,42,30,6,-44,-85
-92,-79,45,100,-69,-2,32,43,31,7,-44,-86
-95,-78,48,102,-72,2,33,43,31,8,-45,-87
-97,-78,50,104,-74,3,33,44,32,8,-45,-87
-97,-78,51,104,-75,3,33,45,33,9,-45,-87
-97,-76,51,103,-75,5,34,47,34,11,-44,-86
-95,-73,51,100,-74,7,35,49,35,13,-43,-86
-93,-70,51,98,-73,7,36,51,36,15,-42,-85
-93,-69,51,97,-73,7,37,52,37,16,-41,-86
-93,-72,50,98,-72,6,38,53,38,17,-42,-88
-93,-73,49,98,-72,5,39,54,39,17,-43,-92
-94,-73,50,100,-73,5,40,55,40,18,-44,-94
-97,-76,51,103,-75,5,41,56,40,19,-44,-95
-96,-77,50,102,-74,3,42,57,41,19,-44,-95
-95,-78,49,102,-73,2,42,58,42,21,-44,-96
-97,-78,50,104,-74,3,43,60,43,22,-43,-96
-97,-78,51,104,-75,3,44,61,44,24,-42,-96
-97,-76,51,103,-75,5,45,63,46,25,-41,-96
-96,-74,51,102,-74,6,46,65,47,27,-41,-96
-95,-73,51,101,-74,6,47,66,48,29,-41,-97
-95,-73,51,101,-74,6,48,68,49,30,-41,-98
-97,-75,52,102,-75,6,49,69,50,30,-41,-99
-100,-77,54,105,-77,6,49,70,51,31,-42,-99
-100,-78,54,106,-77,6,50,71,52,31,-43,-99
-101,-78,55,107,-78,7,51,73,53,33,-44,-100
-103,-80,56,109,-80,7,52,75,55,36,-45,-101
-106,-81,57,111,-82,7,53,77,56,39,-46,-103
-110,-82,60,114,-86,8,54,79,58,41,-48,-105
-112,-84,62,117,-88,9,55,81,60,44,-51,-107
-113,-86,62,119,-89,8,56,82,62,45,-52,-108
-114,-85,63,119,-89,9,58,84,63,47,-52,-109
-115,-83,65,119,-91,12,59,86,64,49,-51,-110
-117,-82,68,120,-93,14,60,87,66,50,-51,-110
-119,-82,69,121,-95,16,61,88,67,51,-52,-111
-120,-82,70,122,-96,16,62,90,69,52,-53,-112
-121,-82,72,123,-98,17,64,92,71,54,-53,-112
-120,-81,71,121,-97,18,65,94,73,56,-53,-113
-119,-79,72,120,-97,19,67,97,75,58,-53,-114
-121,-78,74,120,-98,21,68,99,77,60,-54,-115
-122,-78,76,122,-100,22,70,101,78,63,-55,-116
-124,-78,78,123,-102,24,71,103,80,65,-55,-117
-128,-78,81,126,-106,27,72,105,82,67,-55,-118
-131,-78,84,128,-108,29,74,106,84,69,-55,-119
-131,-76,85,127,-109,30,75,108,86,71,-55,-120
-130,-73,87,125,-109,34,76,109,88,74,-54,-121
-131,-70,89,124,-111,36,77,111,91,77,-53,-121
-132,-68,91,124,-113,39,78,113,93,79,-53,-121
-133,-65,93,124,-114,42,80,115,96,82,-53,-121
-135,-65,96,125,-117,44,81,116,98,85,-53,-122
-136,-65,98,127,-118,46,82,118,101,89,-53,-122
-137,-63,99,126,-120,48,83,119,102,92,-53,-123
-138,-61,101,126,-121,50,84,120,104,95,-52,-124
-136,-58,102,123,-121,53,85,121,106,99,-50,-124
-135,-50,105,120,-122,58,86,123,108,104,-48,-124
-135,-43,109,116,-123,64,86,124,110,108,-46,-124
-135,-40,111,114,-124,68,86,125,112,113,-45,-124
-135,-39,111,114,-124,68,86,126,115,118,-43,-124
-135,-37,112,114,-125,70,86,127,117,122,-41,-124
-134,-35,113,111,-125,72,86,128,119,126,-38,-123
-132,-34,111,110,-123,71,86,128,122,130,-35,-121
-128,-31,109,105,-120,70,85,129,124,134,-32,-120
-121,-24,107,98,-115,72,85,129,125,138,-29,-117
-116,-19,105,92,-112,73,84,129,126,142,-24,-114
-112,-14,103,87,-109,74,83,129,127,145,-20,-111
-106,-6,102,80,-106,77,82,129,128,149,-16,-108
-101,-1,100,73,-101,77,81,129,128,152,-12,-105
-96,1,97,70,-98,76,80,128,129,154,-8,-102
-91,7,95,63,-93,77,78,128,129,156,-5,-100
-83,15,92,54,-89,78,77,126,129,159,-0,-97
-77,19,88,48,-84,77,75,125,129,162,3,-94
-72,25,86,42,-80,78,73,123,128,163,7,-90
-64,33,83,33,-74,80,71,121,127,164,11,-87
-54,38,77,23,-66,77,69,119,125,165,15,-84
-44,44,70,13,-58,75,67,116,123,165,19,-81
-33,55,65,1,-50,76,64,114,121,164,24,-78
-23,63,60,-10,-42,76,62,111,119,164,29,-75
-15,67,55,-17,-35,73,60,107,116,163,32,-71
-9,73,53,-24,-31,75,57,104,114,162,36,-67
-3,80,50,-31,-27,76,55,100,110,160,40,-62
1,85,49,-36,-25,77,52,96,107,158,42,-57
4,91,50,-42,-23,81,49,92,104,155,45,-54
8,100,51,-48,-22,86,46,88,100,151,48,-51
14,112,53,-58,-19,93,43,84,96,148,51,-47
22,125,53,-68,-15,99,41,80,92,144,54,-44
27,134,53,-76,-13,103,38,76,88,139,56,-40
30,136,51,-80,-11,103,35,71,84,135,57,-36
33,137,48,-82,-7,101,32,67,79,130,58,-32
35,138,47,-83,-6,100,30,62,75,125,58,-28
35,136,46,-83,-5,99,27,58,71,120,57,-25
36,135,44,-83,-4,96,25,54,67,114,56,-24
36,133,43,-82,-4,95,23,50,63,108,56,-23
35,127,41,-79,-3,91,20,46,59,102,54,-22
34,123,39,-77,-3,87,18,42,56,96,51,-21
33,121,39,-75,-3,86,17,38,52,90,46,-20
33,119,38,-74,-2,85,16,35,49,84,42,-18
32,114,36,-71,-2,81,15,31,45,79,37,-16
30,108,34,-67,-2,77,14,28,42,73,31,-15
27,102,34,-62,-3,73,13,26,40,67,26,-15
23,94,33,-56,-5,68,11,23,37,62,23,-16
20,87,32,-51,-6,64,10,21,35,57,19,-16
16,80,31,-45,-7,61,10,19,32,52,15,-18
12,72,30,-39,-9,57,9,17,30,48,11,-20
8,65,30,-33,-11,54,9,15,28,43,8,-21
6,59,29,-29,-12,50,8,14,26,39,4,-22
5,56,28,-27,-11,47,8,13,25,36,1,-24
5,55,28,-27,-12,47,8,12,24,35,0,-24
5,54,27,-26,-11,46,8,12,24,34,-0,-25
5,54,27,-26,-11,46,8,12,24,34,-0,-25
5,54,27,-26,-11,46,8,12,24,34,-0,-25
5,54,27,-26,-11,46,8,12,24,34,-0,-25
-7,45,34,-14,-20,47,8,10,21,27,-10,-28
-22,34,42,2,-33,48,9,7,17,18,-22,-33
-27,29,44,8,-36,48,10,6,15,15,-26,-35
-28,28,45,9,-37,48,10,6,15,14,-27,-35
-29,27,45,10,-37,47,10,6,15,14,-28,-35
-30,23,43,12,-37,44,10,6,15,13,-28,-35
-31,19,41,14,-36,40,11,6,15,13,-29,-35
-33,15,41,17,-37,39,11,6,14,12,-30,-35
-35,11,41,21,-38,36,11,6,14,11,-32,-35
-37,6,41,25,-39,35,11,6,14,9,-35,-35
-39,4,41,27,-40,33,11,6,13,9,-36,-35
-40,3,41,28,-41,33,10,6,13,8,-36,-33
-40,2,41,29,-41,32,10,6,13,8,-37,-32
-40,2,41,29,-41,32,9,6,13,8,-37,-30
-40,2,41,29,-41,32,9,6,13,8,-37,-29
-40,2,41,29,-41,32,9,5,13,8,-37,-29
-40,2,41,29,-41,32,9,5,13,8,-37,-28
-40,2,41,29,-41,32,9,4,13,8,-37,-28
-40,2,41,29,-41,32,9,4,13,8,-37,-28
-40,2,41,29,-41,32,9,4,13,8,-37,-28
-40,2,41,29,-41,32,9,4,13,8,-37,-28
-40,2,41,29,-41,32,9,4,13,8,-37,-28
-40,2,41,29,-41,32,9,4,13,8,-37,-28
-40,2,41,29,-41,32,9,4,13,8,-37,-28
-40,2,41,29,-41,32,9,4,13,8,-37,-28
-40,2,41,29,-41,32,9,4,13,8,-37,-28
-40,2,41,29,-41,32,9,4,13,8,-37,-28
-40,2,41,29,-41,32,9,4,14,8,-37,-28
-40,2,41,29,-41,32,10,4,14,8,-37,-28
-40,2,41,29,-41,32,10,4,14,8,-37,-28
-40,0,40,30,-40,30,11,4,15,8,-37,-28
-40,-4,38,31,-39,27,11,4,15,8,-37,-28
-40,-7,36,33,-38,24,12,4,15,8,-37,-28
-40,-12,33,34,-37,20,12,4,15,8,-37,-28
-40,-14,32,36,-36,17,13,4,15,8,-37,-28
-40,-15,31,36,-36,16,13,4,15,8,-37,-28
-40,-16,30,36,-35,16,13,4,15,8,-37,-28
-40,-16,30,36,-35,16,13,4,15,8,-37,-28
-40,-16,30,36,-35,16,13,4,15,8,-37,-28
-40,-16,30,36,-35,16,13,4,15,8,-37,-28
-40,-16,30,36,-35,16,13,4,15,8,-37,-28
-40,-16,30,36,-35,16,13,4,15,8,-37,-28
-40,-16,30,36,-35,16,13,4,15,8,-37,-28
-40,-16,30,36,-35,16,13,4,15,8,-37,-28
-40,-16,30,36,-35,16,13,4,15,8,-37,-28
-40,-16,30,36,-35,16,13,4,15,8,-37,-28
-40,-16,30,36,-35,16,13,4,15,8,-37,-28
-40,-16,30,36,-35,16,13,4,15,8,-37,-28
-40,-16,30,36,-35,16,13,4,15,8,-37,-28
-40,-16,30,36,-35,16,13,4,15,8,-37,-28
-40,-16,30,36,-35,16,13,4,15,8,-37,-28
-37,-9,32,31,-35,21,13,4,16,8,-37,-26
-34,1,34,24,-34,26,14,5,17,8,-37,-23
-33,4,35,22,-34,29,14,5,18,8,-37,-22
-32,5,35,21,-34,30,14,5,18,8,-37,-21
-32,9,37,20,-35,33,14,6,18,9,-36,-21
-32,16,41,17,-37,40,15,6,19,10,-33,-19
-32,22,45,14,-39,45,16,7,20,12,-29,-16
-31,26,46,11,-38,47,16,7,20,14,-26,-15
-28,30,46,8,-37,49,16,8,21,15,-26,-14
-27,35,48,5,-38,54,17,8,21,16,-25,-13
-27,41,51,2,-39,58,17,8,21,17,-24,-12
-27,43,53,2,-40,61,18,8,21,17,-23,-12
-26,48,54,-2,-41,64,19,8,22,18,-22,-12
-24,52,55,-5,-39,67,20,9,23,20,-20,-10
-21,59,56,-10,-38,71,21,9,23,22,-19,-9
-17,66,56,-16,-37,74,21,9,23,22,-16,-9
-15,65,54,-17,-35,72,20,10,23,23,-15,-7
-13,62,50,-17,-32,68,20,10,24,23,-15,-7
-8,64,46,-20,-28,65,20,11,24,24,-14,-6
-3,71,45,-27,-25,68,19,11,24,25,-11,-5
-2,74,46,-30,-25,70,18,11,24,26,-9,-2
-3,75,47,-30,-25,72,17,10,24,26,-8,-1
-2,76,47,-30,-25,72,15,9,23,25,-7,-0
0,74,44,-31,-22,68,13,9,23,25,-7,0
2,73,41,-32,-20,65,12,8,22,23,-7,0
4,71,38,-33,-18,63,11,7,21,22,-7,0
4,68,36,-32,-16,59,10,6,21,21,-8,0
5,67,35,-32,-15,58,9,5,20,20,-9,0
7,67,33,-33,-13,56,8,5,20,20,-9,1
11,69,30,-37,-10,55,8,5,20,20,-7,2
14,71,28,-39,-7,54,8,4,20,20,-5,3
14,74,30,-42,-8,58,7,4,20,19,-4,4
15,80,33,-44,-9,62,7,4,19,19,-3,4
15,83,35,-45,-10,65,7,3,19,18,-3,5
15,84,35,-46,-10,66,6,3,18,18,-4,5
14,81,35,-44,-11,64,6,3,18,16,-5,3
13,73,31,-40,-9,58,7,3,17,15,-7,2
11,62,26,-34,-7,49,7,2,16,13,-10,1
7,50,23,-26,-8,41,7,2,16,11,-13,-2
3,40,21,-18,-9,35,7,2,16,11,-14,-4
1,30,17,-13,-9,27,8,3,16,11,-13,-5
-2,24,16,-8,-9,23,10,3,17,11,-11,-5
-5,20,17,-5,-11,22,11,4,17,11,-10,-5
-9,19,20,-1,-14,24,12,5,17,12,-8,-6
-13,16,23,3,-18,25,13,5,17,12,-8,-7
-17,14,25,7,-21,26,13,5,17,12,-7,-9
-21,6,25,13,-23,21,14,5,17,11,-8,-9
-24,-4,22,20,-23,14,14,5,17,10,-10,-11
-28,-11,22,25,-25,12,14,4,16,7,-14,-13
-32,-16,22,30,-27,9,14,4,16,6,-16,-15
-34,-20,22,33,-28,7,15,3,15,5,-19,-17
-35,-23,22,36,-28,6,16,3,15,3,-21,-18
-37,-26,22,39,-30,5,17,3,15,3,-22,-19
-40,-29,23,42,-31,4,18,3,15,3,-23,-20
-42,-32,23,44,-32,2,19,3,15,2,-24,-21
-44,-36,23,48,-34,1,19,3,15,1,-25,-21
-47,-41,23,52,-35,-2,19,3,15,1,-25,-22
-47,-42,22,52,-35,-2,19,3,15,1,-25,-23
-46,-39,23,50,-34,-1,19,3,15,1,-25,-23
-47,-38,25,51,-36,2,19,3,15,1,-25,-23
-48,-40,24,52,-36,0,19,3,15,1,-25,-23
-46,-39,23,51,-35,0,19,3,15,1,-25,-23
-46,-40,23,51,-35,-1,19,3,15,1,-25,-23
-47,-42,23,52,-35,-2,19,3,15,1,-25,-23
-48,-42,23,53,-35,-2,19,3,15,0,-25,-24
-48,-44,22,54,-35,-4,19,3,15,-1,-25,-24
-48,-46,20,55,-34,-6,19,3,15,-1,-25,-25
-48,-45,21,55,-35,-5,19,3,15,-1,-26,-26
-50,-42,25,54,-37,0,19,3,15,-2,-27,-26
-52,-39,29,55,-41,4,19,3,15,-2,-28,-27
-53,-37,30,55,-42,7,18,2,15,-3,-29,-27
-53,-34,33,53,-43,10,19,2,14,-3,-30,-26
-53,-31,35,52,-44,12,19,3,14,-1,-29,-24
-53,-30,35,52,-44,13,19,3,14,0,-28,-23
-53,-29,36,52,-45,14,19,4,14,1,-28,-21
-53,-31,35,52,-44,12,19,4,14,2,-28,-20
-53,-33,34,53,-44,11,19,4,14,3,-28,-20
-52,-34,32,52,-42,8,19,4,14,3,-28,-20
-51,-34,31,52,-41,8,19,4,14,2,-28,-20
-54,-34,34,54,-44,11,19,4,15,3,-27,-22
-59,-35,38,58,-49,13,19,3,15,4,-26,-27
-59,-30,41,56,-50,17,21,3,16,4,-26,-27
-59,-30,41,56,-50,17,23,3,16,5,-26,-29
-56,-35,36,56,-46,12,25,4,18,3,-24,-29
-56,-43,30,60,-44,3,29,9,22,7,-24,-31
-51,-43,25,56,-38,-1,32,12,25,9,-24,-31
-43,-35,23,46,-33,2,34,13,27,13,-19,-27
-43,-35,23,46,-33,2,32,7,24,3,-19,-27
-56,-48,28,61,-42,-1,27,-8,16,9,-19,-27
-59,-48,30,64,-45,2,20,-19,10,7,-19,-18
-59,-48,30,64,-45,2,16,-27,6,7,-19,-18
-59,-48,30,64,-45,2,14,-34,4,-1,-19,-27
-46,-57,12,58,-29,-17,10,-43,-4,-9,-24,-29
-70,-92,15,90,-42,-31,2,-60,-20,-24,-28,-29
-59,-57,25,67,-42,-7,-6,-76,-33,-36,-30,-29
-56,-39,33,58,-45,7,-14,-91,-46,-49,-35,-27
-56,-52,25,64,-41,-5,-28,-107,-62,-62,-35,-25
-43,-48,15,52,-29,-11,-46,-127,-79,-79,-35,-22
-33,-43,7,42,-20,-15,-64,-150,-101,-98,-37,-16
-25,-26,9,30,-17,-5,-80,-176,-127,-127,-40,-11
-9,45,36,-12,-22,49,-98,-204,-149,-150,-40,-6
15,94,41,-50,-13,75,-121,-233,-173,-174,-37,3
31,116,38,-71,-4,83,-143,-263,-197,-197,-28,17
49,151,41,-99,4,102,-161,-289,-218,-221,-24,30
54,138,28,-98,13,86,-175,-306,-234,-241,-33,28
70,134,9,-107,31,69,-188,-317,-245,-256,-26,37
91,142,-6,-126,50,61,-198,-322,-251,-259,-17,55
123,178,-17,-164,71,69,-206,-330,-256,-254,6,67
149,204,-27,-194,90,73,-214,-334,-256,-248,22,81
175,200,-56,-211,117,49,-219,-336,-258,-246,38,94
197,213,-69,-232,135,44,-222,-336,-259,-246,51,104
218,240,-75,-258,148,53,-223,-332,-258,-243,65,115
233,266,-75,-281,156,65,-221,-330,-253,-232,79,124
252,280,-85,-300,171,63,-221,-328,-250,-226,95,134
262,288,-90,-311,179,63,-221,-325,-248,-219,108,145
276,297,-98,-324,189,61,-216,-321,-244,-213,122,154
254,262,-98,-294,179,44,-213,-318,-242,-218,126,161
268,249,-119,-298,196,21,-209,-313,-240,-219,126,163
254,253,-103,-290,181,36,-205,-309,-237,-215,126,163
244,222,-111,-270,180,16,-200,-303,-234,-222,133,163
244,196,-127,-258,188,-9,-197,-297,-231,-226,133,165
247,196,-130,-260,191,-11,-192,-293,-228,-222,138,166
252,196,-135,-264,196,-15,-190,-289,-226,-222,142,172
254,187,-143,-262,202,-26,-188,-286,-224,-219,149,177
262,169,-161,-260,215,-48,-187,-282,-220,-214,158,182
268,160,-172,-260,223,-60,-185,-277,-214,-208,165,188
278,134,-198,-256,242,-93,-180,-269,-208,-206,167,189
286,120,-214,-256,253,-112,-176,-259,-201,-193,177,195
291,112,-224,-256,261,-124,-172,-249,-192,-180,197,202
297,107,-232,-258,268,-133,-167,-241,-185,-174,204,207
297,103,-235,-256,269,-137,-162,-233,-177,-165,213,211
299,94,-243,-255,275,-147,-156,-225,-170,-159,217,211
310,107,-245,-267,282,-143,-151,-217,-165,-162,213,211
312,41,-287,-241,304,-207,-146,-213,-165,-174,197,207
318,23,-303,-237,315,-227,-143,-207,-161,-178,188,204
318,1,-316,-228,322,-248,-135,-194,-153,-172,190,202
310,-8,-314,-218,316,-250,-129,-183,-146,-172,181,197
310,-8,-314,-218,316,-250,-120,-170,-136,-162,181,197
318,5,-314,-230,321,-244,-111,-159,-126,-152,186,197
312,5,-308,-226,315,-240,-104,-145,-115,-143,186,197
315,10,-308,-230,316,-237,-96,-134,-105,-136,188,197
344,67,-303,-275,328,-207,-89,-122,-96,-126,183,195
323,23,-308,-241,320,-231,-82,-114,-87,-115,183,195
315,1,-314,-226,319,-245,-75,-103,-80,-108,188,195
315,1,-314,-226,319,-245,-69,-94,-74,-105,174,182
315,23,-300,-236,312,-225,-62,-84,-67,-100,165,175
305,41,-279,-236,296,-200,-53,-75,-59,-88,156,168
274,27,-257,-208,270,-189,-43,-67,-53,-84,143,158
251,12,-244,-185,251,-186,-35,-58,-46,-82,129,145
231,-12,-237,-160,237,-191,-27,-49,-39,-81,112,131
211,-42,-235,-133,227,-204,-19,-41,-34,-80,93,114
192,-63,-228,-110,213,-208,-11,-34,-28,-79,75,98
171,-70,-212,-92,195,-199,-4,-27,-22,-76,59,83
144,-73,-187,-72,169,-180,3,-20,-16,-69,46,68
114,-69,-155,-52,137,-154,11,-12,-8,-59,38,55
90,-60,-126,-38,110,-127,17,-4,-2,-49,31,44
69,-54,-101,-26,86,-105,23,3,5,-39,23,33
45,-54,-77,-8,62,-86,29,9,11,-31,13,20
19,-58,-54,12,38,-70,35,15,17,-25,1,7
-9,-70,-32,38,12,-58,40,21,21,-22,-14,-7
-38,-84,-12,64,-13,-49,46,26,25,-21,-28,-22
-56,-88,4,79,-30,-39,49,30,29,-21,-36,-32
-63,-84,13,82,-38,-29,52,33,31,-19,-40,-37
-67,-79,20,83,-44,-21,54,36,34,-14,-41,-40
-71,-71,29,82,-50,-11,56,40,37,-4,-38,-42
-76,-64,38,83,-57,0,59,44,41,6,-35,-45
-80,-61,44,84,-62,6,62,49,45,15,-33,-49
-83,-60,47,86,-66,8,64,52,47,20,-33,-53
-87,-60,51,89,-69,12,66,54,49,22,-34,-54
-89,-62,52,91,-71,12,67,55,51,24,-35,-55
-90,-64,51,92,-71,10,69,57,52,25,-35,-55
-90,-63,53,92,-72,12,70,58,53,27,-35,-56
-92,-61,55,92,-74,14,71,59,54,29,-35,-57
-95,-60,59,95,-77,17,71,59,55,31,-35,-58
-97,-60,61,96,-80,19,71,60,55,33,-36,-59
-97,-60,61,96,-80,20,72,61,56,35,-36,-58
-97,-58,62,95,-80,21,72,63,57,37,-35,-56
-95,-55,62,92,-79,22,73,65,58,39,-34,-54
-93,-52,62,90,-78,24,74,67,59,41,-33,-51
-93,-51,62,89,-78,24,75,68,61,42,-32,-50
-93,-54,60,90,-77,21,76,69,62,43,-33,-51
-93,-55,60,91,-77,21,78,70,62,43,-34,-53
-94,-56,61,92,-78,21,79,71,63,44,-35,-53
-97,-58,62,95,-80,21,79,72,64,45,-35,-53
-96,-59,60,95,-79,19,80,73,64,45,-35,-53
-95,-60,59,95,-78,18,81,74,65,46,-35,-53
-97,-60,61,96,-80,19,81,76,66,48,-34,-53
-97,-60,61,96,-80,20,82,78,68,50,-33,-53
-97,-58,62,95,-80,21,83,80,69,51,-32,-53
-96,-57,62,94,-80,21,84,82,70,53,-32,-53
-95,-56,62,93,-80,22,85,84,71,55,-32,-54
-95,-56,62,93,-80,22,86,85,72,56,-32,-55
-97,-58,63,95,-81,21,87,87,73,58,-32,-56
-100,-59,64,98,-83,22,89,88,74,60,-33,-57
-100,-60,64,98,-83,21,90,89,75,61,-34,-57
-101,-60,65,98,-83,22,91,91,76,63,-34,-57
-101,-62,64,99,-83,21,93,93,77,66,-33,-57
-101,-64,63,100,-82,19,94,95,79,67,-32,-57
-102,-65,63,102,-83,19,95,97,80,69,-32,-57
-103,-66,63,103,-84,18,97,98,82,70,-33,-59
-103,-68,63,104,-84,16,99,100,83,72,-34,-60
-103,-67,63,104,-84,17,100,102,85,73,-34,-63
-104,-65,65,104,-85,20,101,104,86,75,-33,-65
-106,-65,68,105,-88,22,102,105,87,76,-33,-67
-108,-65,69,106,-90,24,102,107,88,77,-34,-68
-109,-65,70,107,-91,25,103,109,89,78,-35,-69
-111,-65,72,108,-92,26,103,111,91,80,-35,-70
-109,-63,71,106,-91,26,104,114,93,82,-35,-71
-109,-61,72,105,-91,27,104,116,95,84,-35,-71
-110,-60,74,105,-93,30,105,118,97,86,-35,-72
-112,-60,76,107,-94,30,106,119,99,89,-36,-73
-113,-60,77,108,-96,32,107,121,101,91,-37,-75
-114,-60,78,108,-97,33,108,123,103,93,-37,-76
-115,-60,79,109,-98,33,109,124,105,95,-37,-77
-112,-58,77,106,-96,33,109,126,106,97,-37,-78
-110,-55,77,103,-94,34,110,127,108,99,-36,-77
-110,-52,78,102,-95,36,111,129,110,103,-35,-76
-111,-50,80,102,-97,39,111,131,112,105,-35,-75
-112,-48,83,102,-98,42,112,132,114,108,-35,-73
-114,-47,86,102,-101,44,113,134,116,111,-35,-73
-115,-47,87,104,-102,46,114,135,118,115,-35,-73
-116,-45,89,103,-104,48,114,136,119,118,-35,-73
-116,-43,90,103,-105,50,115,137,121,121,-34,-74
-115,-40,91,101,-105,53,115,138,122,124,-33,-75
-114,-33,95,97,-106,58,116,139,124,128,-32,-75
-114,-26,98,93,-107,64,116,140,126,132,-32,-75
-114,-22,100,92,-108,68,116,141,127,135,-33,-75
-114,-21,101,92,-108,68,116,142,129,138,-33,-75
-114,-19,102,91,-109,70,116,142,131,141,-32,-75
-113,-17,102,89,-109,72,116,143,133,144,-29,-73
-111,-16,101,87,-107,71,116,143,135,147,-26,-72
-106,-13,98,83,-104,70,115,143,136,149,-23,-71
-100,-6,96,75,-99,72,115,144,137,152,-20,-70
-95,-1,95,70,-96,73,114,144,137,155,-15,-68
-91,4,93,64,-93,74,113,144,137,157,-11,-66
-85,12,92,57,-90,77,112,144,137,159,-7,-65
-80,17,89,51,-85,77,111,143,138,162,-3,-62
-75,19,86,47,-82,76,110,142,138,165,1,-60
-70,25,84,40,-78,77,108,141,138,167,5,-57
-62,33,81,31,-73,78,107,139,138,169,8,-55
-56,36,78,26,-68,77,105,137,137,171,10,-53
-51,42,76,19,-64,78,103,135,136,171,11,-51
-43,50,72,10,-58,80,101,132,134,171,13,-50
-34,56,67,1,-51,77,99,130,132,170,15,-48
-26,62,63,-8,-45,77,98,127,131,170,19,-45
-17,73,60,-18,-39,80,96,124,128,169,24,-42
-9,81,57,-27,-34,82,94,121,126,169,29,-39
-4,85,55,-33,-30,82,92,118,123,168,32,-35
-1,91,55,-38,-28,85,89,115,121,167,36,-31
2,97,56,-42,-27,88,87,111,118,165,40,-26
4,103,57,-46,-27,92,84,107,114,163,42,-22
5,107,58,-49,-27,95,82,103,111,160,44,-18
8,113,59,-54,-26,98,79,98,107,156,45,-16
14,121,58,-61,-22,101,76,94,103,153,46,-12
22,129,55,-70,-17,103,73,89,99,149,47,-8
27,135,54,-77,-13,105,70,85,95,145,48,-5
30,137,51,-80,-11,104,67,80,91,140,49,-2
33,138,49,-83,-8,102,65,76,87,135,49,0
35,138,47,-83,-6,100,62,71,82,130,49,2
35,136,46,-83,-5,99,60,67,79,125,48,4
36,135,44,-83,-4,96,57,63,75,119,47,5
36,133,43,-82,-4,95,55,59,71,113,46,6
35,127,41,-79,-3,91,53,55,68,107,45,7
34,123,39,-77,-3,87,50,51,64,101,41,7
33,121,39,-75,-3,86,49,48,61,95,37,7
33,119,38,-74,-2,85,47,45,58,89,33,7
32,114,36,-71,-2,81,46,42,54,84,28,7
30,108,34,-67,-2,77,45,39,51,78,22,7
27,102,34,-62,-3,73,43,37,48,74,17,6
23,94,33,-56,-5,68,43,35,46,70,14,6
20,87,32,-51,-6,64,42,33,44,66,10,5
16,80,31,-45,-7,61,42,31,41,62,6,4
12,72,30,-39,-9,57,41,30,39,58,2,2
8,65,30,-33,-11,54,41,28,37,54,-1,1
6,59,29,-29,-12,50,41,26,35,49,-5,-1
5,56,28,-27,-11,47,40,25,33,46,-8,-3
5,55,28,-27,-12,47,40,25,33,45,-9,-3
5,54,27,-26,-11,46,40,25,33,45,-10,-4
5,54,27,-26,-11,46,40,25,33,44,-10,-4
5,54,27,-26,-11,46,40,25,33,44,-10,-4
5,54,27,-26,-11,46,40,25,33,44,-10,-4
-7,48,35,-15,-21,49,40,22,29,37,-19,-7
-22,40,46,-1,-34,54,41,18,24,28,-31,-12
-27,37,49,4,-38,55,41,17,23,25,-35,-13
-28,36,50,5,-39,55,41,17,22,24,-36,-14
-29,36,50,6,-40,56,41,17,22,24,-37,-14
-30,36,51,6,-41,56,41,17,22,24,-37,-14
-30,35,50,7,-40,54,41,17,22,23,-38,-14
-30,31,48,8,-39,51,42,17,21,22,-40,-14
-30,27,46,10,-38,48,42,17,21,21,-41,-14
-30,23,43,12,-37,44,42,17,21,20,-44,-14
-30,19,40,14,-35,40,43,17,20,19,-45,-14
-30,15,38,15,-34,36,43,17,20,19,-45,-14
-30,11,36,17,-33,32,44,17,20,18,-46,-14
-30,6,33,19,-31,28,44,17,20,18,-46,-14
-30,4,32,20,-30,26,45,17,20,18,-46,-14
-30,3,31,20,-30,25,45,17,20,18,-46,-14
-30,2,30,21,-30,24,45,17,20,18,-46,-14
-30,2,30,21,-30,24,45,17,20,18,-46,-14
-30,2,30,21,-30,24,45,17,20,18,-46,-14
-30,2,30,21,-30,24,45,17,20,18,-46,-14
-30,2,30,21,-30,24,45,17,20,18,-46,-14
-30,2,30,21,-30,24,45,17,20,18,-46,-14
-31,2,32,22,-31,25,45,17,20,18,-47,-15
-33,2,34,23,-33,26,44,17,20,18,-49,-16
-35,2,36,25,-35,28,44,17,19,18,-51,-18
-37,2,38,27,-38,30,43,17,19,18,-53,-20
-39,2,40,28,-39,31,43,17,19,18,-54,-21
-40,2,40,28,-40,32,43,17,19,18,-55,-21
-40,2,41,29,-41,32,43,17,18,18,-55,-21
-40,2,41,29,-41,32,43,17,18,18,-55,-21
-40,4,42,28,-41,34,43,17,18,18,-55,-21
-40,7,44,27,-42,37,43,17,18,18,-55,-21
-40,11,46,25,-43,40,43,17,18,18,-55,-21
-40,15,49,23,-45,44,43,17,18,18,-55,-21
-40,18,50,22,-45,47,43,17,18,18,-56,-21
-40,19,51,21,-46,48,43,17,18,17,-58,-21
-40,19,51,21,-46,48,43,17,18,16,-60,-21
-40,19,51,21,-46,48,43,17,18,15,-62,-21
-40,19,51,21,-46,48,43,17,18,14,-63,-21
-40,19,51,21,-46,48,44,17,18,14,-64,-21
-40,19,51,21,-46,48,44,17,18,13,-64,-21
-40,19,51,21,-46,48,44,17,18,13,-64,-21
-40,16,49,23,-45,45,45,16,18,13,-65,-22
-40,10,46,25,-43,40,45,16,17,13,-67,-23
-40,4,43,27,-42,35,45,16,17,13,-68,-24
-40,3,41,28,-41,33,45,16,17,13,-69,-25
-40,2,41,29,-41,32,45,16,17,13,-69,-25
-40,2,41,29,-41,32,45,16,17,13,-69,-25
-40,2,41,29,-41,32,45,16,17,13,-69,-25
-40,2,41,29,-41,32,45,16,17,13,-69,-25
-37,8,42,24,-40,36,46,16,18,16,-68,-24
-34,16,43,18,-38,40,47,17,19,20,-67,-23
-33,19,44,16,-38,42,47,17,19,22,-66,-23
-32,19,43,16,-38,42,47,17,19,22,-66,-23
-32,20,44,15,-38,44,48,17,19,22,-66,-22
-32,24,46,14,-39,47,48,18,20,23,-65,-21
-32,27,48,12,-41,49,48,18,20,24,-63,-18
-31,27,47,11,-39,49,48,18,20,25,-62,-16
-28,30,46,8,-37,49,48,18,21,25,-62,-14
-27,35,48,5,-38,54,48,18,21,26,-61,-13
-27,41,51,2,-39,58,48,18,21,27,-60,-13
-27,43,53,2,-40,61,48,18,21,27,-60,-12
-26,48,54,-2,-41,64,48,19,22,28,-59,-12
-24,52,55,-5,-39,67,49,20,22,29,-57,-12
-21,59,56,-10,-38,71,49,20,22,29,-55,-13
-17,67,57,-16,-37,75,49,20,22,29,-53,-14
-15,70,56,-19,-36,76,49,20,22,28,-52,-14
-13,71,55,-20,-35,76,49,20,22,29,-53,-14
-8,77,54,-27,-31,77,49,20,22,29,-55,-13
-3,87,55,-34,-29,82,49,20,22,30,-54,-12
-2,91,56,-37,-29,86,49,20,22,31,-53,-9
-3,93,58,-37,-30,88,48,20,22,32,-53,-6
-2,94,58,-38,-30,88,47,19,22,33,-53,-4
0,92,55,-39,-28,85,47,19,21,34,-53,-2
2,90,51,-39,-25,82,46,18,20,33,-53,-1
4,88,49,-40,-23,79,45,17,20,32,-53,-0
4,86,47,-39,-21,76,44,17,19,31,-54,0
5,85,45,-39,-20,74,43,16,18,30,-55,0
7,85,43,-41,-18,72,43,15,18,30,-54,1
11,87,40,-45,-15,72,42,15,18,30,-52,2
14,88,39,-47,-13,71,41,15,18,30,-51,3
14,90,39,-48,-13,72,40,15,18,30,-49,4
15,93,40,-50,-13,74,40,14,17,29,-49,4
15,92,40,-49,-13,73,39,14,17,29,-48,5
15,88,38,-48,-12,70,39,14,16,28,-49,5
14,83,36,-45,-11,66,39,14,16,26,-51,3
13,74,32,-40,-10,58,39,13,15,25,-53,2
11,62,26,-34,-7,49,39,13,15,23,-56,1
7,50,23,-26,-8,41,39,13,14,22,-58,-2
3,40,21,-18,-9,35,40,13,14,21,-60,-4
1,30,17,-13,-9,27,41,14,14,21,-61,-5
-2,24,16,-8,-9,23,42,14,15,21,-62,-5
-5,20,17,-5,-11,22,43,15,15,22,-62,-5
-9,19,20,-2,-15,25,44,15,15,22,-62,-6
-13,20,25,2,-19,29,45,16,15,22,-62,-7
-17,22,30,3,-23,33,46,16,15,22,-62,-9
-21,19,32,8,-27,33,46,16,14,22,-63,-9
-24,12,31,13,-28,29,46,16,13,20,-65,-11
-28,8,33,17,-30,29,46,15,13,17,-68,-13
-32,7,36,20,-34,30,46,14,12,15,-71,-15
-34,6,37,22,-36,31,46,13,12,12,-73,-17
-35,8,40,23,-38,35,46,13,11,10,-76,-18
-37,8,42,24,-40,36,47,12,11,9,-77,-19
-40,5,43,27,-42,35,47,12,11,8,-77,-20
-42,3,43,30,-43,35,47,12,11,7,-78,-21
-44,-1,44,33,-44,33,47,12,10,6,-80,-21
-47,-6,44,37,-46,30,47,12,10,6,-80,-22
-50,-12,43,41,-46,27,48,12,10,5,-80,-23
-51,-13,43,43,-47,27,48,12,10,5,-80,-23
-55,-17,45,48,-51,27,49,12,10,5,-80,-23
-57,-20,45,51,-52,26,50,12,10,6,-80,-22
-56,-20,44,50,-51,25,50,12,10,7,-80,-21
-57,-22,44,51,-51,23,51,12,10,8,-80,-20
-58,-24,44,52,-51,22,51,12,10,9,-80,-18
-58,-25,44,53,-51,22,51,12,10,10,-80,-17
-58,-27,43,54,-51,21,51,12,10,10,-80,-17
-58,-28,41,55,-50,19,52,12,9,9,-80,-18
-58,-29,41,55,-50,18,51,12,9,9,-81,-18
-60,-31,41,57,-51,17,51,12,9,8,-82,-19
-63,-35,41,61,-52,16,50,11,9,8,-82,-20
-63,-42,38,64,-51,10,50,11,9,8,-83,-20
-64,-45,37,66,-51,7,49,11,9,7,-84,-20
-64,-46,36,66,-50,7,49,11,9,7,-83,-20
-64,-47,36,67,-50,6,49,11,10,8,-80,-20
-64,-47,36,67,-50,6,49,11,10,7,-78,-20
-64,-49,35,67,-50,4,49,12,10,7,-76,-20
-64,-49,35,67,-50,4,49,12,11,8,-74,-20
-62,-46,35,65,-49,6,49,12,11,8,-74,-20
-62,-42,36,63,-49,8,49,12,11,7,-73,-20
-61,-38,38,61,-50,12,49,12,11,8,-72,-20
-59,-35,38,58,-49,13,50,12,11,9,-71,-20
-48,-12,41,41,-45,26,52,12,12,20,-71,-20
-48,-12,41,41,-45,26,52,12,13,11,-71,-22
-46,19,57,26,-52,53,53,13,15,13,-69,-22
-46,10,51,30,-49,44,55,18,18,17,-69,-23
-51,-43,25,56,-38,-1,58,21,21,20,-69,-23
-54,-35,33,54,-44,9,62,22,23,24,-65,-20
-54,-35,33,54,-44,9,63,19,21,24,-65,-20
-56,-30,38,54,-47,16,57,7,14,20,-65,-20
-59,-30,41,56,-50,17,51,-9,8,12,-74,-18
-48,5,51,33,-50,42,44,-18,3,12,-74,-18
-48,-30,30,48,-39,9,42,-24,0,15,-74,-20
-56,-39,33,58,-45,7,40,-31,-6,7,-78,-29
-59,-39,36,60,-47,9,36,-44,-18,-14,-83,-29
-80,-57,46,83,-64,9,30,-62,-31,-26,-76,-29
-77,-57,44,80,-61,7,22,-77,-45,-28,-81,-27
-67,-52,36,71,-52,3,10,-93,-60,-57,-81,-25
-54,-48,25,60,-39,-2,-6,-112,-77,-74,-81,-22
-43,-43,17,50,-30,-7,-23,-134,-97,-88,-83,-16
-35,-26,20,37,-28,3,-40,-159,-123,-117,-85,-11
-30,-8,25,26,-28,16,-60,-188,-146,-140,-85,-6
-17,23,30,3,-24,34,-83,-219,-168,-153,-83,3
-22,10,28,12,-25,26,-106,-252,-194,-192,-92,10
28,98,30,-61,-1,69,-127,-280,-216,-215,-87,23
44,120,28,-83,8,77,-141,-299,-234,-231,-78,28
60,134,20,-99,20,77,-154,-314,-245,-245,-71,37
81,142,4,-118,39,69,-163,-320,-253,-265,-62,48
112,178,-6,-156,60,77,-170,-328,-258,-249,-49,60
139,204,-17,-186,79,82,-177,-332,-260,-248,-33,74
165,218,-35,-211,101,73,-182,-334,-261,-246,-17,87
186,284,-17,-255,103,119,-185,-336,-263,-246,-3,97
207,258,-54,-258,132,77,-187,-334,-261,-243,10,108
223,249,-75,-266,151,57,-189,-332,-258,-237,24,117
241,262,-85,-285,165,54,-189,-329,-256,-231,40,127
241,271,-80,-289,163,63,-190,-327,-253,-224,54,138
254,262,-98,-294,179,44,-191,-323,-250,-218,67,140
254,262,-98,-294,179,44,-189,-320,-247,-218,72,147
236,266,-77,-283,159,63,-185,-315,-244,-219,72,156
233,253,-82,-275,160,53,-181,-310,-242,-215,81,156
223,222,-90,-255,159,32,-175,-305,-240,-222,79,156
244,249,-96,-281,172,40,-170,-299,-237,-221,79,165
247,231,-109,-275,180,21,-164,-293,-233,-217,83,166
252,231,-114,-279,186,17,-162,-289,-232,-217,88,165
233,187,-122,-247,180,-9,-160,-286,-231,-219,95,170
241,204,-119,-260,183,2,-159,-282,-227,-214,104,175
247,142,-161,-237,207,-60,-157,-275,-220,-208,111,181
257,151,-166,-248,215,-60,-154,-269,-215,-211,113,182
265,156,-172,-256,221,-63,-150,-259,-208,-204,122,188
281,147,-193,-264,240,-83,-146,-249,-199,-185,133,195
297,142,-211,-273,258,-100,-141,-241,-192,-179,140,200
297,173,-193,-286,248,-71,-134,-233,-185,-170,149,204
289,129,-211,-262,253,-105,-128,-223,-177,-165,163,204
289,107,-224,-252,260,-126,-123,-216,-173,-167,158,204
302,76,-256,-248,283,-166,-118,-209,-172,-174,142,200
307,41,-282,-237,299,-203,-117,-207,-169,-178,133,197
318,19,-306,-236,316,-231,-111,-194,-162,-178,126,195
310,-26,-324,-211,322,-266,-102,-185,-155,-183,117,189
299,10,-293,-218,300,-225,-94,-170,-145,-172,117,189
307,5,-303,-222,310,-236,-87,-159,-135,-162,122,189
302,-12,-308,-211,310,-248,-80,-147,-126,-153,122,189
305,27,-287,-230,300,-213,-72,-135,-116,-141,124,189
312,-4,-314,-222,318,-248,-65,-124,-107,-131,129,188
312,5,-308,-226,315,-240,-58,-114,-100,-126,120,181
305,19,-293,-226,303,-221,-51,-103,-90,-118,124,181
305,36,-282,-233,298,-204,-45,-94,-83,-110,120,175
305,41,-279,-236,296,-200,-36,-82,-76,-105,111,168
294,41,-269,-228,285,-192,-28,-73,-68,-98,101,161
278,26,-262,-210,274,-194,-19,-64,-60,-88,89,150
260,7,-255,-189,261,-197,-10,-54,-53,-83,75,138
240,-20,-252,-163,250,-207,-2,-45,-46,-81,58,124
221,-56,-253,-134,241,-225,5,-36,-39,-80,38,107
201,-76,-246,-111,227,-228,13,-28,-34,-79,20,91
179,-77,-224,-95,204,-212,20,-21,-28,-74,5,76
149,-72,-191,-76,173,-184,27,-13,-21,-66,-8,61
116,-59,-151,-58,136,-147,35,-5,-14,-55,-16,48
91,-45,-117,-45,106,-113,41,3,-7,-44,-23,37
69,-37,-91,-33,82,-89,47,10,-0,-34,-31,26
45,-36,-67,-16,57,-69,54,16,6,-26,-41,13
19,-41,-44,5,33,-54,60,22,11,-20,-53,0
-11,-54,-22,32,6,-42,67,28,16,-17,-68,-15
-42,-72,-1,61,-20,-35,72,33,21,-16,-82,-31
-62,-81,14,80,-38,-27,77,37,24,-15,-91,-43
-71,-81,23,86,-47,-20,79,40,27,-14,-95,-50
-77,-77,31,89,-54,-12,82,43,30,-9,-96,-53
-81,-70,39,89,-61,-2,84,47,34,1,-93,-54
-86,-64,48,90,-68,7,87,52,39,11,-90,-56
-91,-61,54,92,-73,13,90,56,42,20,-88,-58
-94,-60,58,94,-76,16,92,59,45,25,-88,-60
-97,-60,61,96,-80,20,94,60,47,27,-89,-61
-100,-62,63,98,-82,20,95,62,48,29,-89,-62
-100,-64,62,100,-82,18,97,63,49,31,-89,-62
-101,-63,63,100,-83,20,98,63,50,32,-89,-64
-102,-61,66,100,-85,22,99,64,51,33,-89,-64
-105,-60,69,102,-88,26,99,65,51,34,-90,-65
-107,-60,71,104,-90,27,99,66,52,34,-91,-66
-108,-60,72,104,-91,28,100,66,52,35,-91,-66
-107,-58,72,103,-91,29,100,68,53,37,-90,-65
-105,-55,72,100,-90,30,101,69,55,39,-89,-64
-104,-52,72,98,-89,32,102,71,56,41,-87,-64
-103,-51,72,97,-89,32,103,72,57,42,-88,-64
-103,-54,71,98,-88,30,104,73,58,43,-90,-65
-103,-55,70,98,-88,29,105,74,59,43,-93,-67
-105,-56,71,100,-89,30,105,75,59,44,-96,-67
-107,-58,72,103,-91,29,106,76,60,45,-97,-67
-106,-59,71,102,-90,27,106,77,61,45,-98,-67
-106,-60,70,102,-89,26,107,78,63,46,-98,-67
-107,-60,71,104,-90,27,107,79,64,48,-97,-67
-107,-60,71,104,-90,27,108,81,66,50,-96,-67
-105,-58,70,101,-88,27,109,83,67,53,-96,-67
-101,-57,67,98,-85,26,110,85,68,56,-96,-67
-98,-56,65,95,-82,24,111,87,69,59,-96,-68
-96,-56,63,94,-81,23,112,89,70,61,-96,-69
-97,-58,63,95,-81,22,114,90,71,62,-96,-68
-100,-59,64,98,-83,22,115,91,72,62,-97,-67
-100,-60,64,98,-83,21,116,93,73,63,-98,-66
-101,-60,65,98,-83,22,117,95,74,64,-97,-65
-101,-62,64,99,-83,21,119,97,76,66,-96,-64
-101,-64,63,100,-82,19,120,99,78,67,-96,-64
-102,-65,63,102,-83,19,122,101,80,69,-96,-65
-103,-66,63,103,-84,18,123,104,82,70,-97,-66
-103,-68,63,104,-84,16,125,106,83,72,-98,-67
-103,-67,63,104,-84,17,126,108,85,73,-97,-70
-104,-65,65,104,-85,20,127,109,86,75,-96,-72
-106,-65,68,105,-88,22,128,110,87,76,-97,-75
-108,-65,69,106,-90,24,129,112,88,77,-98,-76
-109,-65,70,107,-91,25,130,113,89,78,-98,-76
-111,-65,72,108,-92,26,131,115,91,80,-98,-77
-109,-63,71,106,-91,26,132,117,93,82,-98,-77
-109,-61,72,105,-91,27,133,119,94,85,-98,-77
-110,-60,74,105,-93,30,134,121,96,89,-99,-76
-112,-60,76,107,-94,30,135,123,98,92,-100,-75
-114,-60,78,108,-97,32,136,125,100,96,-101,-75
-117,-60,81,111,-100,35,136,126,101,98,-101,-76
-120,-60,84,113,-103,37,137,128,103,100,-101,-77
-120,-58,85,112,-104,39,138,129,104,102,-101,-78
-120,-55,87,110,-104,42,138,131,106,105,-100,-78
-120,-52,89,109,-106,44,139,133,108,108,-99,-78
-121,-50,91,109,-107,47,140,134,110,111,-98,-78
-122,-48,93,109,-109,50,140,136,112,113,-98,-79
-124,-47,96,110,-112,53,141,137,114,117,-99,-80
-126,-47,98,111,-113,54,141,139,116,120,-101,-82
-126,-45,99,111,-114,56,141,140,118,123,-103,-84
-127,-43,101,111,-115,58,142,140,119,126,-104,-87
-126,-40,102,108,-115,61,142,141,121,129,-104,-88
-125,-33,105,105,-116,67,142,142,123,132,-102,-88
-124,-26,109,101,-118,72,142,143,125,134,-101,-89
-124,-22,111,99,-119,76,143,143,127,137,-99,-89
-124,-21,111,99,-119,77,142,144,129,139,-99,-89
-124,-19,112,98,-120,78,142,145,130,143,-98,-89
-123,-17,113,96,-120,80,142,146,132,147,-97,-88
-121,-16,111,95,-117,79,142,146,133,151,-96,-86
-117,-13,109,90,-114,78,141,147,135,154,-96,-86
-111,-6,107,83,-110,80,141,147,136,157,-92,-86
-106,-1,105,77,-107,82,140,146,137,160,-88,-86
-102,4,103,72,-104,82,139,146,138,162,-84,-86
-96,12,102,64,-100,85,139,146,138,165,-80,-86
-90,17,100,58,-96,86,138,145,139,168,-76,-83
-86,19,97,55,-92,84,136,145,139,170,-72,-81
-80,25,95,48,-89,85,135,144,138,172,-68,-78
-73,31,91,39,-83,85,133,142,138,174,-64,-75
-67,32,86,35,-77,82,131,141,138,176,-61,-72
-61,34,81,30,-72,78,129,138,137,176,-57,-69
-53,37,75,23,-65,76,127,136,136,176,-53,-66
-44,40,68,15,-57,71,125,133,134,175,-49,-63
-36,45,63,8,-50,70,123,131,132,174,-45,-62
-27,56,60,-4,-44,72,121,128,130,172,-40,-60
-20,64,58,-12,-39,74,118,125,128,170,-35,-59
-14,67,54,-18,-35,73,116,122,125,169,-31,-56
-8,73,52,-25,-30,74,113,118,123,167,-30,-53
-3,80,50,-31,-27,76,111,115,120,165,-28,-48
1,85,49,-36,-25,77,108,110,118,163,-28,-43
4,89,49,-41,-22,79,106,106,114,160,-27,-40
8,96,49,-46,-21,82,103,102,111,158,-25,-37
14,104,47,-54,-17,85,101,97,107,156,-21,-33
22,112,45,-63,-12,86,99,93,103,153,-19,-29
27,118,43,-69,-8,88,96,88,99,150,-16,-26
30,119,41,-72,-5,87,94,84,95,147,-15,-23
33,120,38,-75,-3,86,92,79,91,143,-15,-21
35,120,37,-76,-1,84,90,75,87,139,-14,-19
35,119,36,-75,-1,82,88,71,84,135,-15,-17
33,117,37,-73,-2,82,85,66,80,130,-16,-16
31,115,38,-70,-4,82,83,62,76,123,-17,-16
27,110,38,-66,-6,81,81,58,72,117,-19,-15
24,106,39,-62,-7,79,78,55,68,112,-21,-14
23,108,41,-62,-9,82,77,51,65,105,-23,-14
23,111,43,-63,-10,85,75,48,62,100,-25,-14
22,110,44,-62,-11,85,74,45,59,95,-29,-14
19,106,44,-59,-12,83,73,43,56,88,-33,-14
16,101,44,-55,-14,81,71,40,54,82,-37,-15
13,93,43,-48,-15,76,70,37,51,77,-40,-16
10,86,41,-43,-15,72,69,35,49,73,-44,-16
6,80,41,-38,-18,68,68,33,47,68,-48,-18
2,72,41,-31,-20,65,68,31,44,63,-52,-20
-3,65,41,-25,-22,62,67,30,42,59,-56,-21
-5,59,40,-21,-22,58,67,28,40,55,-60,-22
-5,56,38,-20,-22,55,66,27,39,51,-63,-24
-6,55,38,-19,-22,55,66,27,38,50,-64,-24
-6,54,38,-18,-22,54,66,27,38,50,-64,-25
-6,54,38,-18,-22,54,66,26,38,50,-64,-25
-6,54,38,-18,-22,54,66,26,38,50,-64,-25
-6,54,38,-18,-22,54,66,26,38,50,-64,-25
-17,42,43,-5,-30,53,66,23,35,41,-73,-28
-33,27,48,13,-41,49,67,19,31,29,-86,-33
-37,21,50,18,-44,49,67,17,30,25,-90,-35
-39,19,50,20,-45,48,67,17,29,24,-91,-35
-40,19,50,21,-45,48,67,17,29,24,-91,-35
-40,19,51,21,-46,48,67,17,29,24,-91,-35
-40,18,50,22,-45,47,67,17,29,24,-91,-35
-40,14,48,23,-44,44,67,17,29,24,-91,-35
-40,11,46,25,-43,40,67,17,28,24,-91,-35
-40,6,44,27,-42,36,67,17,28,24,-91,-35
-41,2,42,30,-42,33,67,16,28,24,-91,-35
-43,-3,41,33,-43,30,67,16,27,24,-91,-35
-45,-7,41,36,-43,28,67,16,27,24,-91,-35
-48,-12,41,40,-45,26,67,15,27,24,-91,-35
-50,-14,41,42,-45,25,67,15,27,24,-91,-36
-50,-15,41,43,-46,25,68,15,27,24,-91,-38
-51,-16,41,44,-46,24,68,15,27,24,-91,-39
-51,-16,41,44,-46,24,69,15,27,24,-91,-41
-51,-16,41,44,-46,24,69,15,27,24,-91,-42
-51,-16,41,44,-46,24,70,15,27,24,-91,-42
-51,-16,41,44,-46,24,70,15,27,24,-91,-43
-51,-16,41,44,-46,24,71,15,27,24,-91,-43
-51,-16,41,44,-46,24,71,15,27,24,-91,-43
-51,-16,41,44,-46,24,71,15,27,24,-91,-43
-51,-16,41,44,-46,24,71,15,27,24,-91,-43
-51,-16,41,44,-46,24,71,15,27,24,-91,-43
-51,-16,41,44,-46,24,71,15,28,24,-91,-43
-51,-16,41,44,-46,24,71,15,28,24,-91,-43
-51,-16,41,44,-46,24,71,15,28,24,-91,-43
-51,-16,41,44,-46,24,71,15,29,24,-91,-43
-51,-16,41,44,-46,24,71,15,29,24,-91,-43
-51,-16,41,44,-46,24,71,15,29,24,-91,-43
-51,-16,41,44,-46,24,70,15,29,24,-91,-43
-51,-16,41,44,-46,24,70,15,29,24,-91,-43
-51,-16,41,44,-46,24,69,15,29,23,-92,-43
-51,-16,41,44,-46,24,69,15,29,22,-94,-43
-51,-16,41,44,-46,24,69,15,28,21,-96,-43
-51,-16,41,44,-46,24,69,15,28,20,-98,-43
-51,-16,41,44,-46,24,69,15,28,19,-100,-43
-51,-16,41,44,-46,24,69,15,27,19,-100,-43
-51,-16,41,44,-46,24,69,15,27,18,-101,-43
-51,-16,41,44,-46,24,69,15,27,18,-101,-43
-51,-16,41,44,-46,24,69,15,27,18,-101,-43
-51,-16,41,44,-46,24,69,15,27,18,-101,-43
-51,-16,41,44,-46,24,69,15,27,18,-101,-43
-51,-16,41,44,-46,24,69,15,27,18,-101,-43
-52,-16,42,45,-47,25,69,15,27,18,-101,-43
-54,-16,44,46,-49,26,69,14,27,17,-101,-45
-55,-16,46,47,-51,28,69,13,27,16,-101,-46
-56,-16,46,48,-51,28,69,13,26,16,-101,-46
-56,-16,46,48,-51,28,69,13,26,16,-101,-46
-56,-16,46,48,-51,28,69,13,26,16,-101,-46
