I,II,III,aVR,aVL,aVF,V1,V2,V3,V4,V5,V6
-68,-31,0,60,-24,-15,-10,-13,-22,-18,-19,-14
-68,-31,0,60,-24,-15,-10,-13,-21,-18,-19,-14
-68,-31,0,60,-24,-15,-10,-13,-21,-18,-19,-14
-68,-31,0,60,-24,-15,-10,-13,-20,-18,-18,-14
-68,-31,0,60,-24,-15,-10,-13,-20,-18,-17,-14
-68,-31,0,60,-24,-15,-10,-13,-20,-18,-17,-14
-68,-31,0,60,-24,-15,-10,-13,-20,-18,-16,-14
-68,-31,0,60,-24,-15,-10,-13,-20,-18,-15,-14
-68,-31,0,60,-24,-15,-10,-13,-20,-18,-15,-14
-68,-31,0,60,-24,-15,-10,-13,-20,-18,-15,-14
-68,-31,0,60,-24,-15,-10,-13,-20,-18,-15,-14
-68,-31,0,61,-24,-16,-10,-13,-20,-18,-15,-14
-70,-32,0,63,-25,-16,-10,-13,-20,-18,-15,-14
-72,-33,0,64,-26,-17,-10,-13,-20,-18,-15,-14
-74,-34,0,66,-27,-17,-10,-13,-20,-18,-15,-14
-76,-34,0,68,-27,-17,-10,-13,-20,-18,-14,-14
-76,-35,0,68,-27,-18,-10,-13,-20,-18,-14,-14
-77,-35,0,68,-27,-18,-10,-13,-20,-18,-13,-14
-77,-35,0,68,-27,-18,-10,-13,-20,-18,-12,-14
-77,-35,0,68,-27,-18,-10,-13,-20,-18,-11,-14
-77,-35,0,68,-27,-18,-10,-13,-20,-18,-11,-14
-77,-35,0,68,-27,-18,-10,-13,-20,-18,-11,-14
-77,-35,0,68,-27,-18,-10,-13,-20,-18,-11,-14
-77,-35,0,68,-27,-18,-10,-13,-20,-18,-11,-14
-77,-35,0,68,-27,-18,-10,-13,-20,-18,-11,-14
-77,-35,0,68,-27,-18,-10,-13,-20,-18,-11,-14
-77,-35,0,68,-27,-18,-10,-13,-20,-18,-11,-14
-77,-35,0,68,-27,-18,-10,-13,-20,-18,-11,-14
-77,-35,0,68,-27,-18,-10,-13,-20,-18,-11,-14
-77,-35,0,68,-27,-18,-10,-13,-20,-18,-11,-14
-77,-35,0,68,-27,-18,-10,-13,-20,-18,-11,-14
-77,-35,0,68,-27,-18,-10,-13,-20,-18,-11,-14
-77,-35,0,68,-27,-18,-10,-13,-20,-18,-11,-14
-77,-35,0,68,-27,-18,-10,-13,-20,-18,-11,-14
-77,-35,0,68,-27,-18,-10,-13,-20,-18,-11,-14
-77,-35,0,68,-27,-18,-10,-13,-20,-18,-11,-14
-77,-35,0,68,-27,-18,-10,-13,-20,-18,-11,-14
-77,-35,0,68,-27,-18,-10,-13,-20,-18,-11,-14
-77,-35,0,68,-27,-18,-10,-13,-20,-18,-11,-14
-77,-35,0,68,-27,-18,-10,-13,-20,-18,-11,-14
-77,-35,0,68,-27,-18,-10,-13,-20,-18,-11,-14
-77,-35,0,68,-27,-18,-10,-13,-20,-18,-11,-14
-77,-35,0,68,-27,-18,-10,-13,-20,-18,-11,-14
-77,-35,0,68,-27,-18,-10,-13,-20,-18,-11,-14
-77,-35,0,68,-27,-18,-10,-13,-20,-18,-11,-14
-77,-35,0,68,-27,-18,-10,-13,-20,-18,-11,-14
-77,-35,0,68,-27,-18,-10,-13,-20,-18,-11,-14
-77,-35,-0,69,-27,-18,-10,-13,-20,-18,-11,-15
-77,-36,-1,70,-26,-19,-10,-13,-21,-19,-12,-16
-77,-37,-2,71,-26,-19,-10,-13,-21,-20,-13,-16
-77,-37,-2,71,-26,-20,-10,-13,-21,-20,-13,-16
-77,-37,-2,71,-26,-20,-10,-13,-21,-20,-13,-16
-77,-37,-2,71,-26,-20,-10,-13,-21,-20,-13,-16
-77,-37,-2,71,-26,-20,-10,-13,-21,-20,-13,-16
-77,-37,-2,71,-26,-20,-10,-13,-21,-20,-13,-16
-74,-35,-1,67,-25,-18,-9,-14,-20,-19,-13,-16
-69,-32,-1,63,-24,-17,-9,-14,-19,-19,-12,-16
-68,-31,-0,61,-24,-16,-9,-14,-18,-19,-12,-15
-68,-31,-0,61,-24,-16,-9,-14,-18,-19,-12,-15
-66,-30,0,59,-24,-15,-9,-14,-18,-18,-12,-15
-63,-29,0,57,-23,-15,-9,-13,-17,-18,-11,-15
-60,-28,-0,54,-21,-14,-9,-13,-17,-18,-11,-15
-57,-27,-1,51,-19,-14,-9,-12,-17,-17,-10,-14
-55,-25,-1,50,-19,-13,-9,-11,-16,-16,-10,-14
-54,-24,0,48,-19,-12,-9,-11,-16,-15,-10,-13
-54,-23,1,47,-20,-11,-9,-11,-16,-14,-9,-13
-54,-22,3,46,-21,-10,-9,-11,-16,-12,-9,-13
-55,-21,4,45,-23,-8,-9,-11,-16,-11,-8,-12
-57,-19,6,44,-25,-6,-9,-11,-15,-10,-8,-12
-58,-18,9,43,-27,-5,-9,-12,-15,-10,-8,-11
-59,-16,10,43,-29,-3,-9,-12,-15,-9,-7,-11
-59,-15,12,41,-31,-2,-10,-12,-15,-9,-7,-10
-59,-14,13,40,-31,-1,-10,-12,-15,-8,-6,-10
-58,-13,14,38,-32,0,-10,-12,-14,-8,-6,-9
-57,-12,14,37,-31,1,-11,-13,-14,-7,-5,-9
-56,-11,15,35,-32,2,-11,-13,-14,-7,-5,-9
-54,-9,16,33,-32,4,-12,-13,-14,-7,-5,-9
-53,-7,17,31,-33,5,-13,-14,-13,-6,-4,-8
-52,-6,17,29,-32,5,-13,-14,-12,-6,-4,-8
-49,-6,17,28,-31,5,-14,-15,-12,-6,-4,-8
-46,-6,15,27,-28,4,-15,-15,-12,-6,-4,-7
-43,-7,13,26,-25,3,-17,-15,-12,-7,-4,-6
-40,-8,10,26,-22,1,-18,-15,-13,-7,-4,-5
-39,-10,8,27,-20,-1,-18,-15,-13,-7,-5,-5
-38,-11,6,28,-18,-3,-18,-15,-14,-8,-5,-5
-38,-13,4,30,-17,-5,-18,-15,-14,-8,-6,-5
-39,-15,3,32,-16,-6,-18,-15,-15,-9,-6,-6
-41,-18,1,36,-15,-9,-18,-15,-15,-9,-7,-6
-42,-21,-1,39,-14,-11,-17,-15,-16,-9,-7,-7
-45,-23,-3,43,-14,-13,-17,-15,-16,-9,-8,-7
-47,-25,-4,46,-14,-15,-16,-15,-16,-9,-9,-8
-49,-27,-5,49,-14,-16,-16,-15,-17,-9,-9,-9
-52,-29,-5,51,-14,-17,-15,-15,-17,-10,-10,-11
-55,-30,-6,55,-15,-18,-15,-15,-17,-10,-11,-13
-58,-32,-5,57,-16,-19,-14,-15,-18,-11,-12,-14
-61,-33,-5,60,-18,-19,-13,-15,-18,-11,-13,-15
-65,-34,-4,62,-20,-19,-12,-15,-18,-12,-13,-16
-68,-35,-4,65,-21,-20,-12,-15,-19,-13,-14,-17
-72,-36,-3,68,-23,-20,-11,-15,-19,-13,-15,-18
-75,-37,-3,70,-25,-20,-10,-15,-19,-14,-15,-18
-77,-38,-3,72,-25,-21,-10,-15,-19,-15,-16,-18
-79,-39,-3,73,-26,-21,-10,-15,-20,-17,-17,-19
-79,-39,-3,74,-26,-22,-10,-15,-21,-18,-17,-19
-79,-40,-4,75,-25,-22,-10,-15,-21,-19,-17,-20
-79,-40,-4,75,-25,-23,-10,-15,-21,-20,-18,-20
-79,-41,-5,75,-24,-23,-10,-15,-21,-20,-18,-20
-79,-41,-5,76,-24,-23,-10,-15,-21,-20,-18,-20
-79,-41,-5,76,-24,-23,-10,-15,-21,-20,-18,-20
-79,-41,-6,76,-24,-24,-10,-15,-21,-20,-18,-20
-79,-42,-6,77,-23,-24,-9,-15,-21,-20,-18,-20
-80,-42,-6,77,-24,-24,-9,-15,-21,-20,-18,-20
-81,-42,-5,77,-25,-24,-9,-15,-21,-20,-19,-20
-81,-42,-5,78,-25,-24,-9,-15,-21,-21,-19,-20
-81,-42,-5,78,-25,-24,-9,-15,-21,-21,-19,-21
-81,-42,-6,78,-25,-24,-9,-15,-21,-21,-19,-21
-81,-43,-6,79,-24,-25,-9,-15,-21,-21,-20,-21
-81,-43,-6,79,-24,-25,-9,-15,-21,-22,-20,-21
-81,-43,-6,79,-24,-25,-9,-15,-21,-23,-21,-21
-81,-43,-6,79,-24,-25,-8,-15,-21,-24,-22,-21
-81,-43,-6,79,-24,-25,-8,-15,-21,-25,-23,-21
-81,-43,-6,79,-24,-25,-8,-15,-21,-25,-23,-21
-82,-43,-6,79,-25,-25,-8,-15,-21,-25,-23,-21
-83,-43,-5,79,-26,-24,-8,-15,-21,-25,-23,-21
-84,-42,-4,79,-26,-24,-8,-14,-21,-25,-22,-21
-84,-42,-4,79,-27,-23,-8,-14,-21,-25,-22,-21
-84,-42,-4,79,-27,-23,-8,-14,-21,-25,-22,-21
-84,-42,-4,79,-27,-23,-8,-14,-21,-25,-22,-21
-84,-42,-4,79,-27,-23,-7,-14,-21,-25,-22,-21
-84,-42,-4,79,-27,-23,-7,-13,-21,-25,-22,-21
-84,-43,-5,79,-26,-24,-8,-14,-21,-25,-22,-22
-84,-43,-5,80,-27,-24,-8,-14,-20,-25,-21,-22
-85,-42,-4,80,-28,-23,-7,-14,-20,-25,-21,-22
-86,-42,-3,80,-28,-23,-6,-16,-20,-25,-22,-22
-86,-42,-3,80,-28,-23,-9,-16,-19,-25,-23,-23
-93,-45,-3,86,-31,-24,-8,-15,-19,-25,-23,-24
-89,-47,-7,86,-26,-28,-6,-11,-17,-28,-25,-25
-89,-52,-11,90,-23,-32,-4,-8,-16,-31,-24,-28
-89,-59,-19,97,-17,-39,2,0,-13,-35,-29,-33
-82,-64,-27,99,-8,-46,4,4,-11,-39,-33,-37
-82,-64,-27,99,-8,-46,5,5,-10,-39,-36,-39
-91,-63,-22,103,-15,-43,6,7,-6,-43,-36,-39
-93,-61,-19,101,-18,-40,6,8,3,-34,-35,-36
-75,-44,-10,77,-18,-28,6,14,19,-20,-25,-28
-47,-29,-7,50,-11,-18,5,26,39,1,-10,-22
-16,-16,-9,24,2,-13,2,36,55,23,8,-12
16,-3,-10,-4,15,-7,-0,39,63,49,29,5
53,18,-6,-41,24,6,-13,25,54,71,54,25
85,46,7,-82,25,27,-31,5,48,99,84,50
117,69,16,-119,30,42,-48,-18,31,122,111,73
156,92,22,-159,39,57,-68,-43,11,143,139,98
188,125,40,-205,37,83,-90,-74,-9,169,173,127
222,149,49,-244,42,100,-113,-102,-29,194,205,158
222,177,77,-271,19,128,-129,-123,-46,210,227,180
197,197,109,-280,-15,154,-143,-141,-59,220,240,196
117,213,161,-259,-85,188,-139,-151,-67,215,244,205
62,206,180,-229,-119,194,-135,-156,-75,195,227,194
30,167,155,-176,-111,161,-124,-149,-78,162,195,170
12,115,111,-118,-83,113,-105,-128,-79,124,153,136
-20,66,75,-55,-67,70,-83,-108,-86,69,102,98
-66,24,54,6,-67,39,-65,-94,-99,6,46,59
-95,-17,26,60,-55,4,-52,-76,-103,-44,-2,25
-111,-45,5,94,-44,-20,-40,-59,-100,-72,-30,5
-102,-54,-7,98,-31,-31,-33,-47,-90,-71,-34,-9
-93,-54,-11,94,-24,-33,-27,-37,-72,-58,-30,-12
-86,-50,-10,87,-23,-30,-22,-27,-57,-46,-28,-12
-82,-49,-11,84,-20,-30,-17,-20,-43,-35,-22,-16
-77,-46,-11,80,-18,-29,-13,-11,-30,-26,-18,-15
-84,-45,-7,82,-24,-27,-10,-3,-24,-24,-16,-15
-84,-45,-7,82,-24,-27,-9,-3,-21,-22,-16,-16
-77,-45,-10,79,-19,-28,-7,-3,-19,-22,-16,-17
-79,-46,-11,81,-20,-29,-4,0,-15,-20,-17,-15
-82,-47,-10,83,-21,-29,-2,1,-13,-20,-18,-15
-86,-47,-9,85,-24,-28,-2,-0,-12,-21,-19,-16
-91,-48,-7,88,-27,-28,-2,-2,-11,-22,-20,-17
-95,-48,-5,90,-30,-27,-3,-3,-10,-23,-21,-17
-97,-48,-4,90,-32,-26,-4,-5,-10,-23,-22,-17
-96,-47,-3,89,-32,-25,-5,-6,-9,-23,-22,-18
-95,-46,-3,88,-32,-24,-5,-6,-8,-22,-22,-18
-95,-45,-2,87,-32,-24,-5,-6,-7,-22,-22,-18
-95,-45,-2,87,-32,-24,-5,-6,-7,-22,-21,-19
-95,-46,-3,87,-32,-24,-4,-5,-6,-22,-21,-19
-96,-47,-3,89,-32,-25,-4,-5,-6,-22,-22,-20
-97,-48,-4,90,-32,-26,-3,-4,-6,-22,-23,-20
-97,-48,-4,91,-32,-26,-3,-4,-6,-23,-23,-21
-98,-49,-4,92,-32,-27,-3,-4,-6,-23,-24,-21
-99,-49,-4,92,-32,-27,-3,-5,-6,-24,-24,-22
-100,-49,-4,93,-32,-27,-3,-5,-6,-24,-24,-22
-99,-49,-5,92,-32,-27,-3,-5,-5,-24,-24,-23
-98,-49,-5,92,-31,-27,-3,-5,-5,-24,-24,-23
-97,-49,-5,92,-31,-28,-3,-4,-5,-23,-24,-23
-97,-49,-5,92,-31,-28,-3,-4,-5,-23,-24,-23
-97,-49,-5,92,-31,-28,-3,-4,-4,-23,-24,-24
-97,-49,-5,92,-31,-28,-3,-4,-4,-23,-24,-25
-97,-49,-5,92,-31,-28,-3,-4,-4,-23,-24,-26
-97,-49,-5,92,-31,-28,-3,-4,-4,-23,-24,-27
-97,-49,-5,92,-31,-28,-3,-4,-4,-23,-24,-27
-97,-49,-5,92,-31,-28,-3,-3,-4,-23,-24,-26
-97,-49,-5,92,-31,-28,-3,-3,-4,-23,-24,-26
-97,-49,-5,92,-31,-28,-3,-3,-4,-23,-25,-26
-97,-49,-5,92,-31,-28,-3,-3,-4,-23,-25,-26
-97,-49,-5,92,-31,-28,-3,-3,-4,-23,-26,-26
-97,-49,-5,92,-31,-28,-3,-3,-4,-23,-27,-26
-98,-50,-5,93,-31,-28,-3,-3,-4,-23,-28,-26
-100,-51,-5,94,-32,-28,-3,-3,-3,-23,-28,-26
-102,-51,-5,96,-32,-29,-3,-3,-3,-23,-28,-26
-103,-52,-5,97,-33,-29,-3,-3,-3,-23,-28,-26
-104,-52,-5,98,-33,-29,-3,-3,-3,-23,-28,-26
-104,-52,-5,98,-33,-29,-3,-2,-3,-23,-28,-26
-104,-52,-5,98,-33,-29,-3,-2,-2,-23,-27,-26
-104,-52,-5,98,-33,-29,-3,-2,-2,-23,-27,-26
-104,-52,-5,98,-33,-29,-3,-2,-2,-23,-27,-26
-104,-52,-5,98,-33,-29,-3,-2,-2,-23,-27,-26
-104,-52,-5,98,-33,-29,-4,-2,-2,-23,-27,-26
-104,-52,-5,98,-33,-29,-4,-2,-2,-23,-27,-26
-104,-52,-5,98,-33,-29,-5,-2,-2,-23,-26,-26
-104,-52,-5,98,-33,-29,-5,-2,-2,-23,-26,-26
-104,-52,-5,98,-33,-29,-5,-2,-2,-23,-26,-26
-104,-52,-5,98,-33,-29,-5,-2,-1,-23,-26,-26
-104,-52,-5,98,-33,-29,-5,-2,-1,-23,-26,-26
-103,-52,-6,98,-33,-29,-4,-2,-1,-23,-26,-26
-102,-52,-6,97,-32,-29,-4,-2,-1,-23,-26,-26
-102,-52,-6,97,-32,-30,-3,-1,-1,-23,-26,-26
-101,-52,-7,96,-31,-30,-3,-1,-1,-23,-25,-26
-99,-52,-8,96,-30,-30,-3,-1,-0,-23,-25,-26
-97,-52,-8,95,-28,-31,-3,-1,0,-23,-25,-26
-95,-52,-9,94,-27,-31,-3,-1,0,-23,-25,-27
-93,-52,-10,92,-25,-31,-3,-1,0,-23,-25,-27
-90,-51,-10,91,-24,-31,-3,-1,1,-23,-25,-26
-88,-50,-10,89,-23,-31,-3,-0,1,-23,-25,-25
-85,-49,-10,86,-22,-30,-3,-0,1,-22,-25,-25
-82,-47,-10,83,-21,-29,-3,0,1,-21,-25,-24
-79,-45,-9,80,-21,-28,-3,0,2,-20,-24,-24
-77,-43,-8,77,-21,-26,-3,0,2,-19,-23,-24
-74,-41,-7,74,-21,-24,-3,1,3,-18,-21,-24
-71,-39,-7,70,-20,-23,-3,1,3,-17,-21,-24
-66,-37,-8,66,-17,-23,-2,2,4,-16,-21,-23
-61,-36,-9,63,-15,-23,-2,3,6,-16,-20,-23
-55,-35,-10,59,-12,-22,-1,4,7,-15,-20,-23
-51,-33,-10,55,-10,-22,-1,5,8,-15,-20,-22
-47,-30,-9,51,-9,-20,-0,6,8,-13,-19,-21
-43,-28,-8,47,-9,-18,1,6,9,-12,-18,-19
-40,-25,-7,43,-9,-17,1,6,10,-11,-17,-18
-37,-23,-7,40,-8,-15,2,7,10,-9,-16,-17
-34,-22,-6,37,-7,-14,2,8,11,-9,-16,-17
-31,-20,-6,34,-6,-13,3,9,13,-8,-15,-17
-27,-18,-6,30,-5,-13,4,10,14,-7,-15,-16
-24,-18,-7,28,-3,-12,4,11,15,-7,-14,-16
-21,-17,-8,26,-1,-12,4,12,16,-5,-14,-15
-18,-16,-8,24,0,-13,4,12,17,-4,-14,-15
-15,-16,-9,23,2,-13,4,13,18,-2,-13,-15
-11,-15,-10,20,5,-13,4,13,19,-1,-12,-14
-7,-14,-11,17,6,-12,4,14,20,1,-11,-13
-4,-12,-10,14,7,-11,4,14,20,1,-10,-12
-1,-11,-10,11,8,-11,4,15,21,2,-8,-10
3,-9,-10,8,10,-10,4,15,22,3,-7,-9
6,-8,-10,5,11,-9,4,16,23,4,-6,-8
10,-6,-10,2,12,-8,4,17,25,7,-5,-8
14,-4,-10,-2,14,-7,4,18,25,9,-5,-7
16,-3,-10,-4,15,-7,4,18,27,10,-4,-7
18,-2,-10,-6,15,-6,4,19,28,12,-3,-6
19,-1,-10,-7,15,-5,3,20,29,14,-2,-6
21,-0,-10,-8,15,-5,3,21,30,15,-2,-5
22,0,-10,-10,16,-5,3,21,31,17,-0,-4
26,1,-10,-13,18,-5,3,21,33,18,1,-4
30,2,-11,-15,20,-5,2,22,34,19,2,-3
33,3,-12,-17,21,-4,2,23,35,21,3,-2
37,4,-12,-20,23,-4,2,23,37,23,5,-1
39,5,-13,-22,24,-4,1,24,38,25,6,0
42,6,-13,-24,25,-3,1,24,39,27,7,1
44,8,-12,-27,25,-2,0,25,40,28,9,2
46,9,-12,-29,26,-1,-1,25,42,30,10,3
48,11,-11,-31,27,-0,-1,26,43,32,11,4
51,12,-11,-34,27,0,-2,26,44,34,13,5
53,13,-11,-36,28,1,-2,26,46,36,15,6
55,15,-10,-38,28,2,-2,27,47,38,17,7
58,17,-10,-41,28,3,-3,27,48,40,19,8
60,18,-9,-44,29,4,-3,27,49,42,20,9
62,20,-9,-46,29,5,-4,27,50,44,22,10
64,21,-8,-49,30,6,-4,27,51,46,23,11
67,23,-8,-51,30,8,-5,27,52,48,25,12
69,24,-7,-54,31,9,-6,27,53,50,27,13
71,26,-6,-56,31,10,-6,27,54,52,29,14
74,27,-6,-59,31,11,-7,27,54,54,31,15
75,29,-5,-61,31,12,-8,27,55,55,32,16
76,30,-4,-63,31,13,-8,27,56,57,34,17
78,32,-4,-65,31,14,-9,26,56,58,35,18
79,34,-2,-67,30,16,-10,26,56,60,36,19
80,36,-1,-70,30,18,-10,26,56,61,37,20
83,38,1,-74,29,20,-10,25,55,63,37,21
84,41,3,-77,28,22,-11,24,54,64,38,22
85,42,4,-79,28,23,-11,23,54,64,38,23
87,44,4,-81,28,24,-12,23,53,65,39,23
89,45,4,-83,29,24,-13,22,53,64,39,24
92,46,4,-85,30,25,-13,21,52,64,40,25
94,46,4,-87,31,25,-13,20,51,63,40,25
96,47,3,-88,33,25,-14,19,50,63,40,26
99,47,2,-89,34,24,-14,18,48,62,40,26
100,47,1,-90,35,24,-14,16,46,61,40,26
100,46,1,-90,36,24,-15,15,45,60,39,25
101,46,0,-90,37,23,-15,14,44,60,38,25
102,46,-1,-89,37,23,-15,13,42,59,37,24
102,45,-1,-88,38,22,-14,11,41,57,35,24
102,44,-2,-88,39,21,-14,10,39,56,34,23
101,44,-3,-87,39,20,-14,9,37,53,32,21
101,43,-3,-86,39,20,-13,8,34,51,30,20
100,42,-3,-85,39,20,-13,7,32,48,28,19
99,42,-3,-84,39,19,-12,6,30,45,26,17
99,41,-4,-83,39,18,-11,6,27,42,24,16
98,40,-5,-81,39,17,-10,6,25,40,21,14
97,39,-5,-80,39,17,-9,5,23,37,19,13
96,38,-6,-79,40,16,-8,5,21,34,17,12
96,37,-7,-78,40,15,-7,5,19,31,15,10
96,36,-8,-78,41,14,-6,4,18,28,14,9
95,35,-8,-77,41,14,-6,4,17,26,13,7
95,34,-9,-75,41,13,-6,3,15,24,12,6
94,33,-9,-74,42,12,-5,3,14,21,10,4
95,33,-10,-74,43,11,-4,2,12,19,8,3
96,32,-11,-73,44,10,-4,2,10,17,6,2
95,32,-12,-73,44,10,-3,2,9,15,5,1
94,31,-11,-71,43,10,-2,1,8,13,3,0
92,30,-11,-70,42,10,-1,1,7,11,2,-1
90,30,-11,-69,41,10,-0,1,6,10,0,-1
90,30,-11,-68,41,9,0,1,4,9,-1,-2
90,29,-12,-68,42,8,1,1,4,8,-1,-3
91,28,-13,-68,44,7,1,1,3,8,-2,-4
92,27,-15,-67,45,6,1,2,2,8,-3,-4
94,27,-16,-67,46,5,2,2,2,8,-3,-5
94,26,-17,-67,47,5,2,2,2,8,-3,-5
94,26,-17,-67,47,5,2,2,2,8,-4,-5
94,26,-17,-67,47,5,2,2,2,8,-4,-5
94,26,-17,-67,47,5,2,2,2,8,-4,-5
94,26,-17,-67,47,5,2,2,2,8,-4,-5
95,25,-18,-66,49,3,2,3,1,7,-6,-7
96,24,-20,-65,50,2,3,4,-1,5,-9,-9
96,23,-21,-65,51,1,3,4,-1,4,-11,-10
96,23,-21,-65,51,1,3,4,-1,4,-11,-10
96,23,-21,-65,51,1,3,4,-1,4,-11,-11
96,23,-21,-65,51,1,3,4,-1,4,-11,-11
96,23,-21,-65,51,1,3,4,-1,4,-11,-11
96,23,-21,-65,51,1,3,4,-1,4,-11,-11
96,23,-21,-65,51,1,3,4,-1,4,-11,-11
96,23,-21,-65,51,1,3,4,-1,4,-11,-11
96,23,-21,-65,51,1,3,4,-1,4,-11,-11
96,23,-21,-65,51,1,3,4,-1,4,-11,-11
96,23,-21,-65,51,1,3,4,-1,4,-11,-11
96,23,-21,-65,51,1,3,4,-1,4,-11,-11
96,23,-21,-65,51,1,3,4,-1,4,-11,-11
96,23,-21,-65,51,1,3,4,-1,4,-11,-11
96,23,-21,-65,51,1,3,4,-1,4,-11,-11
96,23,-21,-65,51,1,3,4,-1,4,-11,-11
96,23,-21,-65,51,1,3,4,-1,4,-11,-11
96,23,-21,-65,51,1,3,4,-0,4,-11,-11
96,23,-21,-65,51,1,3,4,0,4,-11,-11
96,23,-21,-65,51,1,3,4,1,4,-11,-11
95,23,-20,-64,51,1,3,4,1,4,-11,-11
94,23,-20,-64,49,2,3,4,1,3,-11,-11
92,23,-19,-63,48,2,3,4,2,2,-11,-11
89,23,-18,-62,46,3,3,4,2,1,-11,-11
88,23,-17,-61,45,3,3,4,2,1,-11,-10
88,23,-17,-61,45,3,4,4,2,1,-11,-9
87,23,-17,-61,45,3,4,4,2,1,-11,-9
87,23,-17,-61,45,3,5,4,2,1,-11,-8
86,23,-16,-60,44,3,5,4,2,1,-11,-7
84,23,-15,-60,43,4,5,5,2,1,-10,-7
83,23,-15,-59,42,4,6,5,3,1,-9,-7
80,23,-14,-58,40,5,6,6,4,1,-8,-7
78,23,-13,-57,38,5,6,7,4,0,-8,-7
76,23,-11,-56,37,6,6,7,4,-0,-8,-7
74,23,-10,-55,35,6,7,7,4,-1,-7,-7
71,23,-9,-53,33,7,8,7,4,-2,-7,-7
69,23,-9,-52,32,7,8,7,5,-3,-7,-6
67,22,-9,-50,31,6,8,7,5,-3,-7,-6
64,21,-8,-49,30,6,8,7,6,-3,-7,-5
62,20,-8,-47,29,6,8,7,6,-3,-7,-4
60,19,-8,-45,28,6,8,7,7,-3,-7,-3
58,19,-7,-44,26,6,8,8,7,-3,-7,-3
55,19,-6,-43,25,6,8,8,7,-3,-7,-3
53,19,-5,-41,23,7,8,9,7,-3,-7,-3
52,19,-5,-41,22,7,8,9,7,-3,-7,-3
51,19,-4,-41,22,7,8,10,7,-4,-7,-3
51,19,-4,-41,22,7,8,10,7,-5,-7,-3
51,19,-4,-41,22,7,8,10,7,-6,-7,-3
51,19,-4,-41,22,7,8,10,7,-6,-7,-3
51,19,-4,-41,22,7,8,10,7,-7,-7,-3
51,19,-4,-41,22,7,8,10,7,-7,-7,-3
51,19,-4,-41,22,7,8,10,7,-7,-7,-3
51,19,-4,-41,22,7,8,10,7,-7,-7,-3
51,19,-4,-41,22,7,8,10,7,-7,-6,-3
51,19,-4,-41,22,7,8,10,7,-7,-5,-3
51,19,-4,-41,22,7,8,10,7,-7,-5,-3
51,19,-4,-41,22,7,8,10,7,-7,-4,-3
51,19,-4,-41,22,7,8,10,7,-7,-4,-3
51,19,-4,-41,22,7,8,10,7,-7,-4,-3
51,19,-4,-41,22,7,8,10,7,-7,-4,-3
51,19,-4,-41,22,7,8,10,7,-7,-4,-3
51,19,-4,-41,22,7,8,10,7,-7,-4,-3
51,19,-4,-41,22,7,8,10,7,-7,-4,-3
51,19,-4,-41,22,7,8,10,7,-7,-4,-3
50,19,-4,-40,21,8,8,10,7,-7,-4,-3
48,19,-3,-39,20,8,8,10,6,-8,-4,-3
46,19,-2,-38,18,8,8,10,6,-9,-4,-3
44,19,-1,-37,17,9,8,10,5,-9,-4,-3
42,19,-0,-37,16,9,8,10,5,-10,-4,-3
42,19,-0,-36,15,9,8,10,4,-10,-5,-3
42,19,0,-36,15,9,8,10,4,-10,-5,-3
42,19,0,-36,15,9,8,10,4,-10,-6,-3
42,18,-0,-36,15,9,8,10,4,-10,-7,-3
42,18,-1,-35,16,8,8,10,4,-10,-7,-3
42,17,-2,-34,17,7,8,10,4,-10,-7,-3
42,16,-3,-33,17,6,8,10,4,-10,-7,-3
42,15,-4,-33,18,6,8,10,4,-10,-7,-3
42,15,-4,-32,18,5,8,10,4,-10,-7,-3
42,15,-4,-32,18,5,8,10,4,-10,-7,-3
42,15,-4,-32,18,5,8,10,4,-10,-7,-3
42,15,-4,-32,18,5,8,9,4,-11,-7,-3
42,15,-4,-32,18,5,8,9,4,-12,-7,-3
42,15,-4,-32,18,5,8,8,4,-12,-7,-3
42,15,-4,-32,18,5,8,8,4,-13,-7,-3
41,15,-4,-32,18,5,8,7,4,-14,-7,-3
39,15,-3,-31,16,6,8,7,4,-14,-7,-4
37,15,-2,-30,15,6,8,7,4,-14,-7,-5
35,15,-1,-29,14,7,8,7,4,-14,-7,-6
33,15,-0,-29,13,7,8,7,4,-14,-8,-6
33,15,-0,-28,12,7,8,7,4,-14,-8,-7
32,15,0,-28,12,7,8,7,3,-14,-9,-7
32,15,0,-28,12,7,8,7,2,-14,-10,-7
32,15,0,-28,12,7,8,7,2,-14,-11,-7
32,15,0,-28,12,7,8,7,2,-14,-11,-7
32,15,0,-28,12,7,8,7,2,-14,-11,-7
32,15,0,-28,12,7,8,7,2,-14,-11,-7
32,15,0,-28,12,7,8,7,2,-14,-11,-7
32,15,0,-28,12,7,8,7,2,-14,-11,-7
32,15,0,-28,12,7,8,7,2,-14,-11,-7
32,15,0,-28,12,7,8,7,2,-14,-11,-7
32,15,0,-28,12,7,8,7,1,-14,-11,-7
32,15,0,-28,12,7,8,7,1,-14,-11,-7
32,15,0,-28,12,7,8,7,0,-14,-11,-7
32,15,0,-28,12,7,8,7,-0,-14,-11,-7
32,14,-0,-28,12,7,8,7,-1,-14,-11,-7
32,13,-1,-27,13,6,8,7,-1,-14,-11,-7
32,13,-2,-26,14,5,8,7,-1,-14,-11,-7
32,12,-3,-25,14,4,8,7,-1,-14,-11,-7
32,11,-3,-24,14,4,8,7,-1,-15,-11,-7
30,11,-3,-23,13,4,8,7,-2,-15,-11,-7
28,11,-2,-22,12,4,8,7,-2,-16,-11,-7
26,11,-1,-21,10,5,8,7,-3,-17,-11,-7
24,11,-0,-21,9,5,8,7,-4,-17,-11,-7
24,11,-0,-20,9,5,8,7,-4,-18,-11,-7
23,11,0,-20,9,5,8,7,-5,-18,-11,-7
23,11,0,-20,9,5,8,7,-6,-18,-11,-7
23,11,0,-20,9,5,8,7,-6,-18,-11,-7
23,11,0,-20,9,5,8,6,-6,-18,-11,-8
23,11,0,-20,9,5,8,5,-6,-18,-11,-9
23,11,0,-20,9,5,8,5,-6,-18,-11,-10
23,11,0,-20,9,5,8,4,-6,-18,-11,-10
23,11,0,-20,9,5,8,4,-6,-18,-11,-10
23,11,0,-20,9,5,8,4,-6,-18,-11,-11
23,11,0,-20,9,5,8,4,-6,-18,-11,-11
23,11,0,-20,9,5,8,4,-6,-18,-11,-11
23,11,0,-20,9,5,8,4,-6,-18,-12,-11
23,11,0,-20,9,5,8,4,-6,-18,-13,-11
23,11,0,-20,9,5,8,4,-6,-18,-14,-11
23,11,0,-20,9,5,8,4,-7,-18,-14,-11
23,11,0,-20,9,5,8,4,-7,-18,-15,-11
23,11,0,-20,9,5,8,4,-8,-18,-15,-11
23,11,0,-20,9,5,8,4,-8,-18,-15,-11
23,11,0,-20,9,5,8,4,-9,-18,-15,-11
23,11,0,-20,9,5,8,4,-9,-18,-15,-11
23,11,0,-20,9,5,8,4,-9,-18,-15,-11
23,11,0,-20,9,5,8,4,-9,-18,-15,-11
23,10,-0,-20,9,5,8,4,-9,-18,-15,-11
23,9,-1,-19,10,4,8,4,-9,-19,-15,-11
23,8,-2,-18,10,3,8,4,-9,-20,-15,-11
23,7,-3,-17,11,2,8,4,-9,-21,-15,-11
22,7,-3,-16,11,2,8,4,-9,-21,-15,-11
21,7,-3,-15,10,2,8,4,-9,-21,-15,-11
19,6,-2,-14,9,2,8,4,-9,-22,-15,-11
16,6,-1,-13,7,3,8,4,-9,-22,-15,-11
15,6,-0,-13,6,3,8,4,-9,-22,-15,-11
15,6,-0,-12,6,3,7,4,-9,-22,-15,-11
14,6,0,-12,5,3,7,4,-9,-22,-15,-11
14,6,0,-12,5,3,6,4,-9,-22,-15,-11
14,6,0,-12,5,3,6,4,-9,-22,-15,-11
14,6,0,-12,5,3,6,4,-9,-22,-15,-11
14,6,0,-12,5,3,6,4,-9,-22,-15,-11
14,6,0,-12,5,3,6,4,-9,-22,-15,-11
14,6,0,-12,5,3,6,4,-9,-22,-15,-11
14,6,0,-12,5,3,6,4,-9,-22,-15,-11
14,6,0,-12,5,3,6,4,-9,-22,-15,-11
14,6,0,-12,5,3,6,4,-9,-22,-15,-11
14,6,0,-12,5,3,6,4,-9,-21,-15,-11
14,6,0,-12,5,3,6,4,-9,-20,-15,-11
14,6,0,-12,5,3,7,4,-9,-20,-15,-11
14,6,0,-12,5,3,8,4,-9,-19,-15,-11
14,6,0,-12,5,3,8,4,-9,-18,-15,-11
14,6,0,-12,5,3,8,4,-9,-18,-15,-11
14,6,0,-12,5,3,8,4,-9,-18,-15,-11
14,6,0,-12,5,3,8,4,-9,-18,-15,-11
14,6,0,-12,5,3,8,4,-9,-18,-15,-11
14,6,0,-12,5,3,8,4,-9,-18,-15,-11
14,6,0,-12,5,3,8,4,-9,-18,-15,-11
14,6,0,-12,5,3,8,4,-9,-18,-15,-11
14,6,0,-12,5,3,8,4,-9,-18,-15,-11
14,6,0,-12,5,3,8,4,-9,-18,-15,-11
14,6,0,-12,5,3,8,4,-9,-18,-15,-11
14,6,0,-12,5,3,8,4,-9,-18,-15,-11
14,6,0,-12,5,3,8,4,-9,-18,-15,-11
14,6,0,-12,5,3,8,4,-9,-18,-15,-11
14,6,0,-12,5,3,8,4,-9,-18,-15,-11
14,6,0,-12,5,3,8,4,-9,-18,-15,-11
14,6,0,-12,5,3,8,4,-9,-18,-15,-11
14,6,0,-12,5,3,8,4,-9,-18,-15,-11
14,6,0,-12,5,3,8,4,-9,-18,-15,-11
14,6,0,-12,5,3,8,4,-9,-18,-15,-11
14,6,0,-12,5,3,8,4,-9,-18,-15,-11
14,6,0,-12,5,3,8,4,-9,-18,-15,-11
14,6,0,-12,5,3,8,4,-9,-18,-15,-11
14,6,0,-12,5,3,8,4,-9,-18,-15,-11
14,6,-1,-11,6,3,8,4,-9,-18,-15,-11
14,4,-2,-10,7,1,8,4,-10,-18,-16,-11
14,3,-4,-9,8,-0,8,4,-10,-18,-17,-11
14,2,-4,-8,8,-1,8,4,-10,-18,-17,-11
14,2,-4,-8,9,-1,8,4,-10,-18,-17,-11
14,2,-4,-8,9,-1,8,4,-10,-18,-17,-11
14,2,-4,-8,9,-1,8,4,-10,-18,-17,-11
14,2,-4,-8,9,-1,8,4,-10,-18,-17,-11
14,4,-3,-9,7,0,8,4,-10,-17,-15,-10
14,6,-1,-11,6,2,7,3,-10,-16,-13,-8
14,6,-0,-12,5,3,6,3,-10,-15,-12,-8
14,6,0,-12,5,3,6,3,-10,-15,-12,-8
15,7,0,-13,6,3,6,3,-9,-15,-12,-8
16,7,0,-14,6,4,6,3,-9,-14,-11,-7
17,7,-0,-14,6,4,6,3,-9,-14,-11,-7
18,7,-1,-15,7,3,6,3,-9,-13,-10,-7
19,8,-1,-15,7,4,6,3,-8,-13,-11,-6
19,9,0,-17,7,4,6,3,-8,-12,-11,-6
19,10,1,-17,6,5,6,3,-8,-12,-11,-5
19,11,3,-19,5,7,6,3,-8,-12,-12,-5
18,12,4,-20,3,8,6,3,-7,-11,-12,-5
16,14,6,-20,1,10,6,3,-7,-9,-12,-4
15,15,9,-21,-1,12,6,3,-7,-8,-11,-4
14,17,10,-22,-3,13,6,2,-7,-7,-11,-3
13,18,12,-23,-5,15,5,2,-7,-5,-10,-3
14,20,14,-25,-6,17,5,2,-7,-5,-9,-2
15,22,16,-28,-7,19,5,2,-6,-4,-8,-2
16,24,17,-31,-8,21,4,2,-6,-4,-6,-1
17,26,18,-32,-8,22,4,1,-6,-3,-5,-1
18,27,19,-34,-8,23,3,0,-6,-3,-5,-1
19,28,19,-35,-8,23,2,-1,-6,-3,-4,-1
21,28,18,-36,-7,23,2,-2,-6,-2,-4,-0
22,27,17,-36,-6,22,1,-3,-6,-2,-4,0
24,27,16,-36,-4,22,1,-3,-7,-2,-4,0
25,26,15,-36,-3,20,-0,-4,-7,-3,-4,0
26,25,13,-35,-1,19,-1,-4,-7,-3,-4,-0
26,23,11,-33,0,17,-1,-4,-8,-4,-5,-1
26,21,9,-31,2,15,-1,-4,-8,-4,-5,-1
26,18,6,-28,5,12,-1,-4,-9,-5,-6,-1
25,15,4,-25,6,9,-1,-4,-9,-5,-6,-2
23,12,2,-21,7,7,0,-4,-10,-6,-7,-2
21,10,0,-19,8,5,1,-4,-10,-7,-7,-3
19,8,-1,-15,7,4,1,-4,-11,-7,-8,-3
16,7,-1,-13,7,3,2,-4,-11,-8,-9,-4
14,5,-1,-11,6,2,2,-4,-11,-9,-9,-5
12,4,-1,-9,6,1,2,-4,-12,-9,-10,-6
9,2,-1,-6,4,0,3,-4,-12,-10,-11,-7
5,1,-1,-3,3,0,4,-4,-12,-11,-12,-7
3,0,-1,-1,2,-0,4,-4,-13,-11,-13,-8
2,-1,-1,0,2,-1,4,-3,-13,-12,-13,-9
0,-2,-2,2,2,-2,5,-3,-13,-13,-14,-9
-1,-3,-2,4,1,-3,5,-3,-13,-13,-15,-10
-3,-4,-3,5,1,-3,5,-3,-14,-14,-15,-10
-4,-5,-3,7,1,-4,5,-3,-14,-14,-16,-11
-5,-5,-3,8,1,-4,6,-3,-14,-15,-17,-11
-6,-6,-3,9,1,-5,6,-3,-15,-15,-17,-12
-6,-7,-4,10,1,-5,6,-3,-16,-16,-17,-12
-6,-7,-4,10,2,-6,6,-3,-16,-16,-18,-13
-6,-8,-5,11,2,-6,6,-3,-16,-16,-18,-13
-6,-8,-5,11,2,-7,6,-4,-16,-16,-18,-13
-6,-8,-5,11,2,-7,6,-4,-16,-16,-18,-13
-6,-8,-6,11,3,-7,6,-4,-16,-16,-18,-13
-6,-9,-6,12,3,-8,6,-5,-16,-16,-18,-13
-7,-9,-6,12,2,-8,6,-5,-16,-16,-18,-13
-8,-9,-5,13,2,-7,6,-6,-16,-17,-19,-13
-8,-9,-5,13,1,-7,6,-6,-16,-17,-19,-13
-8,-9,-5,13,1,-7,6,-6,-16,-17,-19,-13
-8,-9,-6,13,2,-8,6,-6,-16,-17,-19,-13
-8,-10,-6,14,2,-8,6,-6,-16,-17,-19,-13
-8,-10,-6,14,2,-8,6,-6,-16,-17,-20,-13
-8,-10,-6,14,2,-8,6,-6,-16,-17,-20,-13
-8,-10,-6,14,2,-8,7,-6,-16,-18,-20,-13
-8,-10,-6,14,2,-8,7,-6,-16,-18,-20,-13
-8,-10,-6,14,2,-8,7,-6,-16,-17,-20,-13
-9,-10,-6,14,2,-8,7,-6,-16,-17,-19,-13
-10,-10,-5,14,1,-7,7,-6,-15,-17,-19,-13
-11,-9,-4,14,0,-7,7,-6,-15,-18,-19,-13
-11,-9,-4,14,-0,-7,7,-6,-15,-18,-19,-13
-11,-9,-4,14,-0,-7,8,-5,-15,-18,-19,-13
-11,-9,-4,14,-0,-7,8,-5,-15,-18,-19,-13
-11,-9,-4,14,-0,-7,8,-5,-15,-18,-19,-13
-11,-9,-4,14,-0,-7,7,-5,-15,-18,-18,-13
-11,-10,-5,15,0,-7,6,-5,-15,-18,-18,-14
-11,-10,-5,15,-0,-7,6,-6,-15,-17,-18,-14
-12,-11,-5,16,-0,-8,6,-5,-15,-18,-18,-14
-13,-13,-7,19,1,-10,6,-4,-15,-21,-18,-15
-13,-13,-7,19,1,-10,6,-4,-14,-22,-19,-16
-20,-16,-7,26,-1,-12,9,-3,-13,-18,-20,-17
-16,-18,-11,26,4,-15,11,0,-12,-21,-18,-18
-16,-18,-11,26,4,-15,14,4,-11,-24,-21,-20
-16,-26,-19,32,10,-22,17,9,-8,-27,-25,-25
-9,-31,-27,34,18,-29,16,13,-8,-31,-29,-29
-9,-31,-27,34,18,-29,18,13,-7,-32,-32,-31
-18,-30,-22,38,11,-26,19,15,-3,-36,-32,-31
-11,-19,-15,24,8,-17,21,17,3,-26,-27,-28
-2,-7,-6,8,5,-7,18,23,19,-9,-14,-20
26,4,-7,-15,15,-1,18,34,42,12,1,-11
58,17,-9,-41,28,4,14,42,55,38,19,-0
89,30,-10,-69,41,10,10,42,61,60,40,16
126,51,-6,-105,50,22,-3,34,54,86,66,36
158,83,11,-151,48,47,-20,14,48,114,96,61
190,106,20,-188,53,63,-38,-9,31,136,122,84
211,130,34,-220,49,83,-55,-32,11,158,150,109
242,162,52,-265,46,108,-78,-63,-9,184,181,138
286,191,62,-313,55,127,-101,-90,-29,205,209,165
286,215,86,-336,36,151,-116,-112,-46,221,231,187
261,234,117,-344,2,177,-125,-126,-59,228,240,200
181,246,165,-320,-65,206,-124,-139,-67,222,240,205
126,240,184,-290,-100,213,-117,-142,-72,202,223,194
94,204,163,-241,-95,184,-106,-129,-73,174,195,174
76,153,119,-182,-67,136,-87,-110,-74,132,153,140
44,99,79,-115,-47,89,-66,-94,-80,77,102,102
7,49,46,-51,-34,47,-50,-82,-94,10,42,63
-32,12,26,3,-32,19,-36,-64,-97,-40,-2,29
-29,-12,1,25,-11,-6,-22,-50,-95,-65,-26,8
-29,-16,-3,30,-8,-10,-15,-39,-82,-60,-30,-1
-20,-21,-11,30,2,-16,-9,-28,-67,-47,-26,-8
-13,-16,-10,22,4,-14,-4,-19,-52,-35,-21,-8
-9,-11,-7,15,3,-9,1,-8,-38,-24,-14,-8
-4,-9,-7,11,5,-8,5,1,-25,-15,-10,-3
-2,-8,-7,9,5,-8,8,5,-19,-12,-8,-3
-2,-8,-7,9,5,-8,9,5,-16,-11,-8,-4
-4,-8,-6,10,4,-7,8,6,-13,-11,-8,-5
-5,-9,-7,11,4,-8,10,7,-12,-11,-9,-6
-6,-10,-7,13,3,-8,11,7,-11,-12,-10,-7
-8,-10,-6,14,2,-8,11,6,-11,-13,-11,-8
-11,-11,-6,16,1,-8,10,4,-10,-14,-13,-9
-14,-11,-5,17,-1,-8,10,2,-10,-15,-14,-9
-15,-11,-4,17,-2,-7,9,1,-10,-16,-14,-9
-14,-10,-3,16,-2,-6,8,0,-9,-16,-13,-10
-13,-8,-3,15,-3,-6,7,-0,-8,-15,-12,-10
-13,-8,-2,14,-3,-5,7,0,-7,-14,-11,-11
-13,-8,-2,14,-3,-5,8,0,-6,-13,-10,-11
-13,-8,-3,14,-2,-5,8,1,-5,-12,-10,-12
-14,-9,-3,16,-2,-6,9,1,-4,-11,-11,-12
-15,-10,-4,17,-2,-7,9,2,-3,-11,-11,-13
-15,-11,-4,18,-2,-8,9,1,-3,-12,-12,-13
-16,-11,-4,19,-2,-8,9,1,-3,-12,-13,-14
-17,-12,-4,19,-3,-8,9,1,-3,-12,-13,-14
-17,-12,-4,20,-3,-8,9,1,-3,-13,-13,-15
-16,-12,-5,19,-2,-8,9,1,-3,-13,-13,-15
-16,-12,-5,19,-1,-9,9,1,-2,-12,-13,-15
-15,-12,-5,19,-1,-9,9,1,-2,-12,-13,-15
-15,-12,-5,19,-1,-9,9,2,-2,-12,-13,-15
-15,-12,-5,19,-1,-9,10,2,-2,-12,-13,-15
-15,-12,-5,19,-1,-9,10,2,-2,-12,-13,-15
-15,-12,-5,19,-1,-9,10,2,-2,-12,-13,-15
-15,-12,-5,19,-1,-9,10,2,-2,-12,-13,-15
-15,-12,-5,19,-1,-9,10,2,-2,-12,-13,-15
-15,-12,-5,19,-1,-9,10,2,-2,-12,-13,-15
-15,-12,-5,19,-1,-9,10,2,-1,-12,-13,-14
-15,-12,-5,19,-1,-9,10,2,-1,-12,-13,-14
-15,-12,-5,19,-1,-9,10,2,-1,-12,-14,-14
-15,-12,-5,19,-1,-9,10,2,-1,-12,-15,-14
-15,-12,-5,19,-1,-9,10,2,-1,-12,-16,-14
-15,-12,-5,19,-1,-9,10,2,-1,-12,-16,-14
-15,-12,-5,19,-1,-9,10,2,-1,-12,-17,-14
-15,-12,-5,19,-1,-9,10,2,-1,-12,-17,-14
-14,-12,-5,18,-1,-9,10,3,-0,-12,-17,-14
-13,-11,-5,17,-0,-8,10,3,-0,-12,-17,-14
-13,-11,-5,17,-0,-8,10,3,-0,-12,-16,-14
-13,-11,-5,17,-0,-8,10,3,0,-12,-16,-14
-13,-11,-5,17,-0,-8,10,3,0,-12,-16,-14
-13,-11,-5,17,-0,-8,10,3,0,-12,-16,-14
-13,-11,-5,17,-0,-8,9,3,0,-12,-16,-14
-13,-11,-5,17,-0,-8,9,3,0,-12,-16,-14
-13,-11,-5,17,-0,-8,8,3,1,-12,-15,-14
-13,-11,-5,17,-0,-8,8,3,1,-12,-15,-14
-13,-11,-5,17,-0,-8,8,3,1,-12,-15,-13
-13,-11,-5,17,-0,-8,8,4,1,-12,-15,-13
-13,-11,-5,17,-0,-8,8,4,1,-12,-15,-12
-13,-11,-5,17,-0,-8,8,4,1,-12,-15,-11
-12,-11,-6,17,0,-8,8,4,2,-12,-15,-11
-11,-11,-6,16,1,-9,9,4,2,-12,-15,-11
-11,-11,-6,16,1,-9,9,4,2,-12,-14,-11
-11,-11,-6,16,1,-9,10,4,2,-12,-14,-11
-11,-11,-6,16,1,-9,10,5,2,-12,-14,-11
-11,-11,-6,16,1,-9,10,5,3,-12,-14,-11
-11,-11,-6,16,1,-9,10,5,3,-11,-14,-11
-11,-11,-6,16,1,-9,9,4,3,-11,-14,-12
-11,-11,-6,16,1,-9,9,4,3,-11,-14,-12
-11,-11,-6,16,1,-9,8,4,4,-11,-14,-12
-10,-11,-6,15,2,-9,8,3,4,-11,-14,-12
-9,-11,-7,15,2,-9,7,3,4,-11,-14,-13
-8,-11,-8,15,3,-9,7,3,4,-11,-14,-13
-8,-12,-8,16,4,-10,7,3,5,-12,-13,-14
-8,-13,-9,17,5,-11,7,3,5,-12,-13,-15
-8,-13,-10,17,5,-12,7,4,6,-13,-13,-16
-9,-13,-9,17,4,-11,7,4,6,-12,-13,-16
-11,-13,-8,18,3,-11,7,4,7,-12,-13,-15
-12,-13,-7,18,1,-10,7,5,7,-12,-13,-15
-13,-12,-6,18,1,-9,7,5,8,-11,-13,-15
-12,-12,-6,17,1,-9,7,6,8,-11,-13,-14
-11,-11,-6,16,1,-9,7,6,9,-10,-12,-14
-11,-11,-6,16,1,-9,7,6,10,-10,-12,-13
-10,-11,-6,15,2,-9,7,7,10,-9,-12,-13
-9,-10,-6,14,2,-8,7,7,11,-9,-12,-13
-8,-10,-6,13,2,-8,7,8,11,-8,-11,-13
-6,-9,-6,12,3,-8,7,8,12,-7,-11,-12
-6,-9,-6,12,3,-8,7,8,12,-7,-11,-12
-5,-8,-6,11,3,-8,7,9,13,-5,-10,-12
-4,-8,-6,10,4,-7,7,9,14,-4,-10,-11
-3,-8,-6,9,4,-7,7,10,15,-2,-9,-11
-1,-7,-6,8,5,-7,7,10,16,-1,-9,-10
0,-7,-7,7,6,-7,7,10,17,1,-8,-10
0,-6,-6,6,5,-6,7,10,18,1,-8,-10
1,-6,-6,5,6,-6,7,10,19,2,-7,-9
3,-5,-6,4,6,-6,7,10,20,2,-7,-8
4,-5,-6,3,7,-5,6,11,21,3,-6,-7
5,-4,-6,2,7,-5,5,11,22,5,-5,-6
7,-3,-6,0,8,-5,4,12,23,6,-5,-4
8,-2,-6,-0,8,-4,4,13,24,7,-4,-3
9,-2,-6,-2,8,-4,4,13,25,8,-3,-2
10,-1,-6,-3,8,-3,4,14,26,10,-2,-2
11,-0,-6,-4,9,-3,3,15,27,12,-2,-1
12,0,-5,-5,9,-2,3,15,29,13,-0,-0
12,1,-4,-6,8,-1,3,16,30,14,1,0
11,2,-3,-6,6,-0,2,16,31,16,2,1
10,3,-1,-7,5,1,2,17,33,17,3,2
11,4,-1,-8,5,1,2,18,34,19,5,3
12,4,-1,-9,6,1,1,18,35,20,6,4
14,4,-2,-10,7,1,1,19,37,21,7,5
16,5,-3,-11,8,1,0,19,38,22,9,6
19,6,-3,-13,9,1,-1,20,39,23,10,7
21,6,-3,-15,10,1,-1,20,40,25,11,8
23,8,-3,-17,11,3,-2,20,42,27,13,8
26,9,-2,-20,11,3,-2,21,43,28,15,9
28,11,-2,-22,12,4,-2,21,44,31,17,10
30,12,-1,-25,12,5,-3,21,45,33,19,11
32,14,-1,-28,13,6,-3,21,46,35,20,13
35,16,-0,-30,13,8,-4,21,47,37,22,14
37,17,0,-33,13,9,-4,21,48,39,23,15
39,19,1,-35,14,10,-5,21,49,41,25,16
42,20,1,-38,14,11,-6,21,50,42,27,17
44,22,2,-41,15,12,-6,21,51,44,29,18
46,23,2,-43,15,13,-7,21,52,46,31,19
47,25,3,-45,15,14,-8,21,52,48,32,19
49,26,4,-47,15,15,-8,21,53,49,34,19
50,28,5,-49,15,16,-9,21,53,51,35,19
51,29,6,-51,14,18,-10,20,53,52,36,19
51,30,8,-52,13,19,-10,20,53,54,38,20
51,32,9,-53,11,21,-10,19,52,55,39,21
50,33,11,-54,10,22,-11,18,52,56,40,22
49,34,12,-55,8,23,-11,18,51,57,41,23
48,35,14,-56,7,24,-12,17,51,57,42,23
48,36,15,-57,6,26,-13,16,50,57,43,24
48,38,16,-58,5,27,-13,15,49,56,44,25
48,38,16,-58,5,27,-13,14,48,56,44,25
48,38,17,-59,5,27,-14,13,47,55,44,26
48,39,17,-59,4,28,-14,12,45,55,44,26
47,39,17,-58,4,28,-14,10,44,54,43,26
46,38,18,-57,3,28,-15,9,42,53,43,26
44,38,18,-56,2,28,-15,8,40,52,42,26
42,37,18,-55,1,28,-15,7,38,51,41,26
40,36,18,-53,0,27,-14,6,36,50,39,27
38,35,18,-51,-1,27,-14,4,34,48,38,26
35,34,18,-49,-2,26,-14,3,32,46,36,25
32,33,18,-46,-2,25,-13,2,30,43,34,24
29,31,18,-43,-4,24,-13,1,29,41,32,23
26,29,18,-40,-4,23,-13,1,27,38,30,21
23,27,17,-36,-5,22,-12,0,24,35,27,20
20,25,16,-33,-5,20,-11,-0,22,32,25,18
17,23,15,-30,-6,19,-11,-0,20,29,23,17
14,21,15,-26,-6,18,-10,-1,18,27,20,15
12,19,14,-24,-7,17,-10,-1,16,24,18,14
10,18,13,-21,-7,15,-9,-1,14,21,16,13
6,16,13,-18,-8,14,-9,-2,12,19,14,11
4,14,12,-15,-8,13,-8,-2,10,16,12,10
1,12,11,-11,-9,11,-8,-3,8,13,10,8
-0,10,10,-9,-8,10,-7,-3,7,10,8,7
-2,8,9,-7,-8,9,-6,-4,5,6,6,6
-4,7,8,-4,-8,7,-6,-4,4,4,5,5
-6,5,8,-2,-8,6,-6,-4,2,2,3,4
-8,4,7,0,-9,5,-5,-5,1,0,2,3
-10,2,7,2,-9,4,-5,-5,0,-1,0,3
-11,1,6,4,-9,4,-5,-5,-1,-3,-1,2
-12,0,6,5,-9,3,-4,-6,-2,-4,-1,1
-13,-1,5,7,-9,2,-4,-6,-2,-5,-2,0
-15,-2,5,9,-9,1,-4,-6,-3,-6,-3,-1
-15,-2,5,9,-9,1,-3,-6,-3,-6,-3,-1
-15,-2,4,9,-9,1,-3,-6,-4,-7,-3,-1
-15,-3,4,10,-9,1,-3,-6,-4,-7,-4,-1
-15,-3,4,10,-9,1,-3,-6,-4,-7,-4,-1
-15,-3,4,10,-9,1,-3,-6,-4,-7,-4,-1
-15,-3,4,10,-9,1,-3,-6,-4,-7,-4,-1
-17,-4,4,12,-9,0,-4,-7,-5,-8,-6,-3
-21,-5,4,15,-11,-1,-4,-7,-6,-10,-9,-5
-21,-6,4,15,-11,-1,-4,-7,-6,-10,-11,-6
-22,-6,4,16,-11,-1,-4,-8,-6,-10,-11,-7
-22,-6,4,16,-11,-1,-4,-8,-6,-10,-11,-7
-22,-6,4,16,-11,-1,-4,-8,-6,-10,-11,-7
-22,-6,4,16,-11,-1,-4,-8,-6,-10,-11,-7
-22,-7,3,17,-10,-2,-4,-8,-6,-10,-11,-8
-22,-8,2,18,-9,-3,-4,-8,-6,-10,-11,-9
-22,-9,1,19,-9,-4,-4,-8,-6,-10,-11,-10
-22,-10,0,19,-8,-5,-4,-8,-6,-10,-11,-10
-22,-10,0,19,-8,-5,-4,-8,-6,-10,-11,-10
-22,-10,0,20,-8,-5,-4,-8,-6,-10,-11,-11
-22,-10,0,20,-8,-5,-4,-8,-6,-10,-11,-11
-22,-10,0,20,-8,-5,-4,-8,-6,-10,-11,-11
-22,-10,0,20,-8,-5,-4,-8,-6,-10,-11,-11
-22,-10,0,20,-8,-5,-4,-8,-6,-10,-11,-11
-22,-10,0,20,-8,-5,-4,-8,-6,-10,-11,-11
-22,-10,0,20,-8,-5,-4,-7,-6,-10,-11,-11
-22,-10,0,20,-8,-5,-4,-7,-6,-10,-11,-11
-22,-10,0,20,-8,-5,-4,-6,-6,-10,-11,-11
-22,-10,0,20,-8,-5,-4,-5,-6,-10,-11,-11
-22,-10,0,20,-8,-5,-4,-5,-6,-10,-11,-11
-22,-10,0,20,-8,-5,-4,-5,-6,-10,-11,-11
-22,-10,0,20,-8,-5,-3,-5,-5,-10,-11,-11
-22,-10,0,20,-8,-5,-3,-5,-4,-10,-11,-11
-22,-10,0,20,-8,-5,-2,-5,-4,-10,-11,-11
-22,-10,0,20,-8,-5,-2,-5,-4,-10,-11,-11
-22,-10,0,20,-8,-5,-2,-5,-4,-10,-11,-11
-22,-10,0,20,-8,-5,-2,-5,-4,-10,-11,-11
-22,-10,0,19,-8,-5,-2,-5,-3,-10,-11,-11
-22,-9,1,19,-9,-4,-2,-5,-3,-10,-11,-11
-22,-8,2,18,-9,-3,-2,-5,-2,-10,-11,-11
-22,-7,3,17,-10,-2,-2,-5,-2,-10,-11,-11
-22,-6,4,16,-11,-1,-2,-5,-1,-10,-11,-11
-22,-6,4,16,-11,-1,-2,-5,-0,-10,-11,-11
-22,-6,4,16,-11,-1,-2,-5,0,-10,-11,-11
-22,-6,4,16,-11,-1,-2,-5,1,-10,-11,-11
-22,-6,4,16,-11,-1,-2,-4,1,-10,-11,-11
-22,-6,4,16,-11,-1,-2,-4,1,-10,-11,-11
-22,-6,4,16,-11,-1,-2,-3,2,-10,-11,-11
-22,-6,4,16,-11,-1,-2,-2,2,-10,-11,-11
-22,-6,4,16,-11,-1,-2,-2,2,-10,-11,-11
-22,-6,4,16,-11,-1,-2,-1,2,-10,-11,-11
-22,-6,4,16,-11,-1,-2,-0,2,-10,-11,-11
-22,-6,4,16,-11,-1,-2,0,2,-10,-11,-11
-22,-6,4,16,-11,-1,-2,1,2,-10,-11,-11
-22,-6,4,16,-11,-1,-2,1,2,-9,-11,-11
-22,-6,4,16,-11,-1,-2,1,2,-9,-11,-11
-22,-6,4,16,-11,-1,-2,1,2,-8,-11,-11
-22,-6,4,16,-11,-1,-2,1,2,-7,-11,-11
-22,-6,4,16,-11,-1,-2,2,2,-7,-11,-11
-22,-6,4,16,-11,-1,-2,2,2,-7,-11,-11
-22,-6,4,16,-11,-1,-2,3,2,-7,-11,-11
-22,-6,4,16,-11,-1,-2,4,2,-7,-11,-11
-22,-6,4,16,-11,-1,-2,4,2,-8,-11,-11
-22,-6,4,16,-11,-1,-2,4,2,-9,-11,-11
-22,-6,4,16,-11,-1,-2,4,2,-9,-11,-11
-22,-6,4,16,-11,-1,-2,4,2,-10,-11,-11
-22,-6,4,16,-11,-1,-2,4,2,-10,-11,-11
-22,-6,4,16,-11,-1,-2,4,3,-10,-11,-11
-22,-6,4,16,-11,-1,-2,4,4,-10,-11,-11
-22,-6,4,16,-11,-1,-2,4,4,-10,-11,-11
-22,-6,4,16,-11,-1,-2,4,4,-10,-11,-11
-22,-6,4,16,-11,-1,-2,4,4,-10,-11,-11
-22,-6,4,16,-11,-1,-2,4,4,-10,-11,-11
-22,-6,4,16,-11,-1,-2,4,4,-10,-11,-10
-22,-6,4,16,-11,-1,-2,4,4,-10,-11,-9
-22,-6,4,16,-11,-1,-2,4,4,-10,-11,-9
-22,-6,4,16,-11,-1,-2,4,4,-10,-11,-8
-22,-6,4,16,-11,-1,-2,4,4,-10,-11,-7
-22,-6,4,16,-11,-1,-2,4,4,-10,-11,-7
-22,-6,4,16,-11,-1,-2,4,3,-10,-11,-7
-22,-6,4,16,-11,-1,-2,4,2,-10,-11,-7
-22,-6,4,16,-11,-1,-2,4,2,-10,-11,-7
-22,-6,4,16,-11,-1,-2,4,2,-10,-11,-7
-22,-6,4,16,-11,-1,-2,4,2,-10,-11,-7
-22,-6,4,16,-11,-1,-2,4,2,-10,-11,-7
-22,-6,4,16,-11,-1,-2,4,2,-10,-11,-7
-22,-6,4,16,-11,-1,-2,4,2,-10,-11,-7
-22,-6,4,16,-11,-1,-2,4,2,-10,-11,-7
-22,-6,4,16,-11,-1,-2,4,2,-10,-11,-7
-22,-6,4,16,-11,-1,-2,4,2,-10,-11,-7
-22,-6,4,16,-11,-1,-3,4,2,-10,-11,-7
-22,-6,4,16,-11,-1,-3,4,2,-10,-11,-7
-22,-6,4,16,-11,-1,-4,4,2,-10,-11,-7
-22,-6,4,16,-11,-1,-4,4,2,-11,-11,-7
-22,-6,4,16,-11,-1,-4,4,2,-12,-11,-7
-22,-6,4,16,-11,-1,-4,4,2,-12,-11,-7
-22,-6,4,16,-11,-1,-4,4,2,-13,-11,-7
-22,-6,4,16,-11,-1,-4,4,1,-14,-11,-7
-22,-6,4,16,-11,-1,-4,4,1,-14,-11,-7
-22,-6,4,16,-11,-1,-4,4,0,-14,-11,-7
-22,-6,4,16,-11,-1,-4,4,-0,-14,-11,-7
-22,-6,4,16,-11,-1,-4,4,-1,-14,-11,-7
-22,-7,3,17,-10,-2,-4,4,-1,-14,-11,-7
-22,-8,2,18,-9,-3,-4,4,-1,-14,-11,-7
-22,-9,1,19,-9,-4,-4,4,-1,-14,-11,-7
-22,-10,0,19,-8,-5,-4,4,-1,-14,-11,-7
-22,-10,0,19,-8,-5,-4,4,-1,-14,-11,-7
-22,-10,0,20,-8,-5,-4,4,-1,-14,-11,-7
-22,-10,0,20,-8,-5,-4,4,-1,-14,-11,-7
-22,-10,0,20,-8,-5,-4,4,-1,-14,-11,-7
-22,-10,0,20,-8,-5,-4,4,-2,-14,-12,-7
-22,-10,0,20,-8,-5,-4,4,-2,-14,-13,-7
-22,-10,0,20,-8,-5,-4,4,-3,-14,-14,-7
-22,-10,0,20,-8,-5,-4,4,-3,-14,-14,-7
-22,-10,0,20,-8,-5,-4,4,-4,-14,-15,-8
-22,-10,0,20,-8,-5,-4,4,-4,-14,-15,-9
-22,-10,0,20,-8,-5,-4,4,-4,-14,-15,-10
-22,-10,0,20,-8,-5,-4,4,-4,-14,-15,-10
-22,-10,0,20,-8,-5,-4,4,-4,-14,-15,-10
-22,-10,0,20,-8,-5,-4,4,-4,-14,-15,-11
-22,-10,0,20,-8,-5,-4,4,-4,-14,-15,-11
-22,-10,0,20,-8,-5,-4,4,-4,-15,-15,-11
-22,-10,0,20,-8,-5,-4,4,-4,-15,-15,-11
-22,-10,0,20,-8,-5,-3,4,-5,-16,-15,-11
-22,-10,0,20,-8,-5,-3,4,-6,-17,-15,-11
-22,-10,0,20,-8,-5,-2,4,-6,-17,-15,-11
-22,-10,0,20,-8,-5,-2,4,-6,-18,-15,-11
-22,-10,0,20,-8,-5,-2,4,-6,-18,-15,-11
-22,-10,0,20,-8,-5,-2,4,-6,-18,-15,-11
-22,-10,0,20,-8,-5,-2,4,-7,-18,-15,-11
-22,-10,0,20,-8,-5,-2,4,-8,-18,-15,-11
-22,-10,0,20,-8,-5,-2,4,-9,-18,-15,-11
-22,-10,0,20,-8,-5,-2,4,-10,-18,-15,-11
-22,-10,0,20,-8,-5,-2,4,-12,-18,-15,-11
-22,-10,0,20,-8,-5,-2,4,-12,-18,-15,-11
-22,-10,0,20,-8,-5,-2,4,-13,-18,-15,-11
-22,-10,0,20,-8,-5,-2,4,-14,-18,-15,-11
-22,-10,0,20,-8,-5,-2,4,-14,-18,-15,-11
-22,-10,0,20,-8,-5,-2,4,-15,-18,-15,-11
-22,-10,0,20,-8,-5,-2,4,-16,-18,-15,-11
-22,-10,0,20,-8,-5,-2,4,-17,-18,-15,-11
-22,-10,0,20,-8,-5,-2,4,-17,-18,-15,-11
-22,-10,0,20,-8,-5,-2,4,-17,-18,-15,-11
-22,-10,0,20,-8,-5,-2,4,-17,-18,-15,-11
-22,-10,0,20,-8,-5,-2,4,-17,-18,-15,-11
-22,-10,0,20,-8,-5,-2,4,-17,-18,-15,-11
-22,-10,0,20,-8,-5,-2,4,-17,-18,-15,-11
-22,-10,0,20,-8,-5,-2,4,-17,-18,-15,-11
-22,-10,0,20,-8,-5,-2,4,-17,-18,-15,-11
-22,-10,0,20,-8,-5,-2,4,-17,-18,-15,-11
-22,-10,0,20,-8,-5,-2,4,-17,-18,-15,-11
-22,-10,0,20,-8,-5,-2,4,-17,-18,-15,-11
-22,-10,0,20,-8,-5,-2,4,-17,-18,-15,-11
-22,-10,0,20,-8,-5,-2,4,-17,-18,-15,-11
-22,-10,0,20,-8,-5,-2,4,-17,-18,-16,-11
-22,-10,0,20,-8,-5,-2,4,-17,-18,-17,-11
-22,-10,0,20,-8,-5,-2,4,-17,-18,-18,-11
-22,-10,0,20,-8,-5,-2,4,-17,-18,-18,-11
-22,-10,0,20,-8,-5,-2,4,-17,-18,-18,-11
-22,-10,0,20,-8,-5,-2,4,-17,-18,-19,-11
-22,-10,0,20,-8,-5,-2,4,-17,-18,-19,-11
-22,-10,-0,20,-7,-5,-2,4,-17,-18,-19,-11
-22,-11,-1,21,-7,-6,-2,4,-17,-18,-19,-11
-22,-12,-2,22,-6,-7,-2,4,-17,-18,-19,-11
-22,-13,-3,23,-5,-8,-2,4,-17,-18,-19,-11
-22,-14,-4,24,-5,-9,-2,4,-17,-18,-19,-11
-22,-14,-4,24,-5,-9,-2,4,-17,-18,-19,-11
-22,-14,-4,24,-4,-9,-2,4,-17,-18,-19,-11
-22,-14,-4,24,-4,-9,-2,4,-17,-18,-19,-11
-22,-14,-4,24,-4,-9,-2,4,-17,-18,-19,-11
-22,-14,-4,24,-4,-9,-2,4,-17,-18,-19,-11
-22,-14,-4,24,-4,-9,-2,4,-17,-18,-19,-11
-22,-14,-4,24,-4,-9,-2,4,-17,-18,-19,-11
-22,-14,-4,24,-4,-9,-2,4,-17,-18,-19,-11
-22,-14,-4,24,-4,-9,-1,4,-16,-18,-19,-11
-22,-14,-4,24,-4,-9,-1,4,-16,-18,-19,-11
-22,-14,-4,24,-4,-9,-0,4,-15,-18,-19,-11
-22,-14,-4,24,-4,-9,0,4,-15,-18,-19,-11
-22,-14,-4,24,-4,-9,0,4,-15,-18,-19,-11
-22,-14,-4,24,-4,-9,1,4,-14,-18,-19,-11
-22,-14,-4,24,-4,-9,1,4,-14,-18,-19,-11
-23,-14,-4,24,-5,-9,1,4,-14,-18,-19,-11
-25,-14,-3,25,-6,-9,1,5,-14,-18,-19,-11
-26,-14,-2,26,-8,-8,1,5,-14,-18,-19,-11
-29,-14,-1,27,-9,-8,1,6,-14,-18,-19,-11
-30,-14,-0,28,-10,-7,1,7,-14,-18,-19,-11
-31,-14,-0,28,-11,-7,1,7,-14,-18,-19,-11
-31,-14,0,28,-11,-7,1,7,-14,-18,-19,-11
-31,-14,0,28,-11,-7,1,7,-14,-18,-19,-11
-31,-14,0,28,-11,-7,1,7,-14,-18,-19,-11
-31,-14,0,28,-11,-7,1,7,-14,-18,-19,-11
-31,-14,0,28,-11,-7,1,7,-13,-18,-19,-11
-31,-14,0,28,-11,-7,1,7,-12,-18,-19,-11
-31,-14,0,28,-11,-7,1,7,-12,-18,-19,-11
-31,-14,0,28,-11,-7,1,6,-12,-18,-19,-11
-31,-14,0,28,-11,-7,1,5,-12,-18,-19,-11
-31,-14,0,28,-11,-7,1,5,-12,-18,-19,-11
-30,-14,-0,28,-10,-7,1,4,-12,-18,-19,-11
-28,-14,-1,27,-9,-8,1,4,-12,-18,-19,-11
-26,-14,-2,26,-8,-8,1,4,-12,-18,-19,-11
-24,-14,-3,25,-6,-9,1,4,-12,-18,-19,-11
-23,-14,-4,24,-5,-9,1,4,-12,-18,-19,-11
-22,-14,-4,24,-5,-9,1,4,-12,-18,-19,-11
-22,-14,-4,24,-4,-9,1,4,-12,-18,-19,-11
-22,-14,-4,24,-4,-9,1,4,-12,-18,-19,-11
-22,-14,-4,24,-4,-9,1,4,-12,-18,-19,-11
-22,-14,-4,24,-4,-9,1,4,-12,-18,-19,-11
-22,-14,-4,24,-4,-9,1,4,-12,-18,-19,-11
-22,-14,-4,24,-4,-9,1,4,-12,-18,-19,-11
-22,-14,-4,24,-4,-9,1,4,-12,-18,-19,-11
-22,-14,-4,24,-4,-9,1,4,-12,-18,-19,-11
-22,-14,-4,24,-4,-9,1,4,-12,-18,-19,-11
-22,-14,-4,24,-4,-9,1,4,-12,-18,-19,-11
-22,-14,-4,24,-4,-9,1,4,-12,-18,-19,-11
-22,-14,-4,24,-4,-9,1,4,-12,-18,-19,-11
-22,-14,-4,24,-4,-9,1,4,-12,-18,-19,-11
-22,-14,-4,24,-4,-9,1,4,-12,-18,-19,-11
-22,-14,-4,24,-4,-9,1,4,-12,-18,-19,-11
-22,-14,-4,24,-4,-9,1,4,-12,-18,-19,-11
-22,-14,-4,24,-4,-9,1,4,-12,-18,-19,-11
-22,-14,-4,24,-4,-9,1,4,-12,-18,-19,-11
-22,-14,-4,24,-4,-9,1,4,-12,-18,-19,-11
-22,-14,-4,24,-4,-9,1,4,-12,-18,-19,-11
-22,-14,-4,24,-4,-9,1,4,-12,-18,-19,-11
-22,-14,-4,24,-4,-9,1,4,-12,-18,-19,-11
-22,-14,-4,24,-4,-9,1,4,-12,-18,-19,-11
-22,-14,-4,24,-4,-9,1,4,-12,-18,-19,-11
-22,-14,-4,24,-4,-9,1,4,-12,-18,-19,-11
-22,-14,-4,24,-4,-9,1,4,-12,-18,-19,-11
-22,-14,-4,24,-4,-9,1,4,-12,-18,-19,-11
-22,-14,-4,24,-4,-9,1,4,-13,-19,-19,-11
-22,-14,-4,24,-4,-9,2,4,-13,-20,-19,-11
-22,-14,-4,24,-4,-9,2,4,-14,-20,-19,-11
-22,-14,-4,24,-4,-9,2,4,-14,-20,-19,-11
-22,-14,-4,24,-4,-9,2,4,-14,-21,-19,-11
-22,-14,-4,24,-4,-9,2,4,-14,-21,-19,-11
-22,-14,-4,24,-4,-9,2,4,-14,-21,-19,-11
-22,-14,-4,24,-4,-9,2,4,-14,-21,-19,-11
-19,-12,-4,21,-3,-8,2,5,-14,-20,-18,-10
-15,-10,-4,17,-2,-7,1,6,-15,-19,-16,-8
-13,-9,-3,15,-2,-6,1,6,-15,-19,-16,-8
-13,-9,-3,15,-2,-6,1,6,-15,-19,-16,-8
-12,-8,-3,13,-2,-5,1,6,-15,-18,-15,-8
-11,-6,-1,11,-3,-3,1,6,-15,-18,-15,-7
-10,-4,1,9,-4,-1,1,6,-14,-18,-15,-7
-9,-2,2,6,-4,-0,1,6,-14,-17,-14,-7
-8,-1,3,5,-5,1,1,6,-14,-17,-14,-6
-8,0,4,4,-6,2,1,6,-13,-16,-14,-6
-8,1,5,2,-7,3,1,6,-13,-16,-13,-5
-8,2,6,2,-8,4,1,6,-13,-15,-13,-5
-8,3,7,1,-8,5,1,6,-14,-15,-12,-5
-8,3,7,1,-8,5,1,6,-14,-14,-12,-4
-7,4,7,0,-8,5,1,6,-14,-14,-11,-4
-6,4,7,-1,-8,6,1,5,-15,-13,-11,-3
-5,5,8,-2,-8,6,0,5,-15,-12,-10,-3
-4,6,8,-4,-8,7,0,5,-15,-12,-10,-2
-3,8,9,-6,-9,9,-0,5,-14,-12,-9,-2
-2,9,10,-8,-8,9,-1,4,-14,-11,-9,-1
-1,10,10,-9,-8,10,-1,4,-14,-11,-8,-1
0,11,10,-10,-8,10,-2,4,-14,-10,-8,-1
1,11,11,-11,-8,11,-3,3,-14,-10,-8,-1
3,11,10,-12,-7,10,-3,3,-14,-10,-8,-0
5,11,9,-12,-5,10,-4,3,-14,-9,-7,0
5,10,8,-12,-4,9,-4,2,-15,-10,-7,0
7,10,6,-12,-3,8,-5,2,-15,-10,-8,0
7,8,5,-11,-1,6,-5,2,-15,-11,-8,-0
7,7,3,-9,0,5,-6,2,-16,-11,-8,-1
7,5,2,-8,1,3,-6,2,-17,-12,-9,-1
7,3,0,-6,3,1,-6,2,-17,-12,-9,-1
6,1,-1,-4,4,0,-5,1,-17,-12,-10,-2
5,-1,-3,-1,4,-2,-5,1,-18,-13,-10,-2
3,-3,-4,2,5,-4,-4,0,-18,-14,-11,-3
1,-4,-5,4,4,-5,-4,-0,-19,-15,-12,-3
-1,-6,-5,6,4,-5,-3,-1,-19,-15,-12,-4
-4,-7,-5,9,3,-6,-3,-1,-19,-16,-12,-5
-6,-8,-6,11,3,-7,-3,-1,-20,-17,-12,-6
-9,-10,-6,14,1,-8,-2,-1,-20,-17,-12,-7
-12,-11,-5,17,0,-8,-1,-1,-20,-18,-12,-7
-15,-12,-5,19,-1,-9,-1,-1,-21,-19,-13,-8
-16,-13,-6,21,-1,-9,-1,-0,-21,-20,-13,-9
-18,-14,-6,22,-1,-10,-0,-0,-21,-20,-14,-9
-20,-15,-6,24,-2,-11,0,-0,-22,-21,-15,-10
-21,-16,-7,26,-2,-11,1,-0,-22,-21,-15,-10
-22,-17,-7,27,-2,-12,2,-0,-22,-22,-16,-11
-24,-18,-7,28,-3,-13,2,-0,-23,-22,-17,-11
-24,-18,-8,29,-3,-13,3,-0,-23,-23,-17,-12
-24,-19,-8,30,-2,-14,3,-0,-24,-23,-17,-12
-24,-19,-9,30,-2,-14,3,-0,-24,-23,-18,-13
-24,-20,-9,31,-1,-15,3,-1,-24,-23,-18,-13
-24,-20,-9,31,-1,-15,3,-1,-24,-23,-18,-13
-24,-20,-9,31,-1,-15,3,-1,-24,-23,-18,-13
-24,-21,-10,32,-1,-15,3,-0,-24,-23,-18,-13
-24,-21,-10,32,-0,-16,3,-0,-24,-23,-18,-13
-25,-21,-10,32,-1,-16,4,-0,-24,-24,-18,-13
-26,-21,-10,33,-2,-16,4,-0,-24,-24,-19,-13
-26,-21,-9,33,-2,-15,4,-0,-24,-24,-19,-13
-26,-21,-9,33,-2,-15,4,-0,-24,-24,-19,-13
-26,-22,-10,34,-2,-16,4,-0,-24,-24,-19,-13
-26,-22,-10,34,-1,-16,4,-0,-24,-24,-19,-13
-26,-22,-10,34,-1,-17,4,-0,-24,-24,-20,-13
-26,-22,-10,34,-1,-17,4,-0,-24,-25,-20,-13
-26,-22,-10,34,-1,-17,4,-1,-24,-25,-20,-13
-26,-22,-10,34,-1,-17,4,-1,-24,-24,-20,-13
-26,-22,-10,34,-1,-17,4,-2,-24,-23,-20,-13
-27,-22,-10,34,-2,-16,4,-2,-24,-22,-19,-13
-28,-22,-9,34,-3,-16,4,-3,-23,-21,-19,-13
-29,-22,-9,34,-3,-15,5,-3,-23,-22,-19,-13
-29,-21,-8,34,-4,-15,5,-3,-23,-22,-19,-13
-29,-21,-8,34,-4,-15,5,-2,-23,-22,-19,-13
-29,-21,-8,34,-4,-15,5,-2,-23,-22,-19,-13
-29,-21,-8,34,-4,-15,5,-2,-23,-22,-19,-13
-29,-21,-8,34,-4,-15,5,-2,-23,-22,-18,-13
-29,-22,-9,35,-3,-16,5,-2,-23,-22,-18,-14
-30,-22,-9,35,-4,-16,5,-3,-23,-21,-18,-14
-31,-22,-8,35,-5,-15,5,-2,-23,-21,-18,-14
-32,-22,-7,36,-5,-15,4,-1,-23,-21,-18,-15
-32,-22,-7,36,-5,-15,4,2,-22,-22,-19,-16
-38,-25,-7,42,-8,-16,7,2,-21,-22,-20,-17
-34,-27,-11,42,-3,-19,9,6,-20,-25,-22,-18
-34,-31,-16,46,0,-23,11,10,-19,-27,-24,-20
-34,-38,-23,53,6,-31,14,15,-16,-31,-29,-25
-27,-43,-31,55,15,-38,16,18,-16,-35,-33,-29
-27,-39,-27,51,12,-33,18,19,-15,-36,-36,-31
-36,-38,-22,54,5,-30,19,21,-11,-32,-36,-31
-29,-28,-15,41,1,-21,19,23,0,-23,-27,-28
-11,-11,-6,16,1,-9,16,29,17,-5,-14,-20
26,0,-11,-11,18,-6,13,37,36,15,1,-11
58,13,-14,-37,32,-0,9,44,47,38,23,4
89,26,-15,-65,44,6,-0,39,44,60,44,24
126,51,-6,-105,50,22,-16,19,35,86,69,44
158,79,7,-147,51,43,-33,-0,24,114,99,69
190,98,11,-179,60,55,-50,-24,6,136,126,92
229,121,18,-220,69,70,-73,-49,-13,158,154,117
261,154,36,-265,66,95,-95,-80,-34,180,185,146
295,178,45,-305,71,112,-116,-108,-51,202,209,173
295,198,65,-324,55,132,-129,-126,-65,217,231,191
261,218,100,-328,15,160,-133,-135,-67,228,244,208
172,225,148,-296,-55,188,-127,-145,-75,218,240,208
117,206,155,-253,-80,181,-117,-142,-78,195,223,198
85,163,125,-197,-68,145,-104,-126,-78,162,188,170
58,111,86,-134,-47,99,-82,-105,-82,121,142,136
26,61,50,-71,-30,56,-61,-82,-88,66,91,98
-2,24,25,-22,-20,24,-47,-68,-99,2,35,59
-13,-9,-3,15,-2,-6,-34,-53,-103,-44,-9,25
-29,-25,-11,38,-1,-18,-25,-39,-100,-61,-26,8
-29,-29,-16,42,2,-22,-18,-27,-85,-56,-26,-1
-20,-25,-16,34,5,-20,-12,-16,-67,-39,-23,-4
-13,-21,-15,26,7,-18,-6,-7,-52,-27,-17,-0
-18,-15,-7,24,-0,-11,-1,3,-38,-16,-10,-0
-13,-13,-7,19,1,-10,2,13,-27,-12,-7,1
-11,-12,-7,17,2,-10,6,14,-24,-9,-5,1
-11,-12,-7,17,2,-10,6,14,-21,-7,-8,-0
-13,-12,-6,18,0,-9,6,12,-19,-7,-8,-1
-14,-13,-7,20,1,-10,7,13,-19,-8,-9,-3
-16,-15,-8,22,1,-11,8,13,-18,-10,-10,-4
-17,-16,-9,24,1,-13,8,11,-17,-11,-11,-6
-21,-18,-9,27,-0,-14,8,10,-17,-13,-13,-8
-24,-19,-8,30,-2,-14,7,8,-16,-15,-14,-9
-26,-19,-7,31,-4,-13,6,7,-15,-16,-14,-9
-28,-18,-5,30,-6,-12,5,6,-14,-16,-15,-10
-29,-17,-4,30,-8,-10,5,6,-14,-15,-14,-10
-31,-16,-3,30,-9,-10,5,6,-12,-14,-14,-11
-31,-16,-2,30,-9,-9,6,6,-11,-14,-14,-11
-31,-17,-3,30,-9,-10,7,6,-10,-14,-14,-12
-32,-18,-3,32,-9,-10,8,7,-9,-14,-14,-12
-33,-19,-4,33,-9,-11,9,7,-9,-15,-15,-13
-33,-19,-4,34,-9,-12,9,6,-9,-15,-16,-13
-34,-19,-4,35,-9,-12,9,6,-8,-16,-16,-14
-35,-20,-4,36,-9,-12,9,5,-8,-16,-17,-14
-36,-20,-4,36,-10,-12,9,4,-8,-16,-17,-15
-35,-19,-3,34,-10,-11,9,4,-8,-15,-17,-15
-34,-18,-3,33,-10,-11,9,4,-8,-14,-17,-15
-33,-17,-2,32,-10,-10,9,4,-8,-13,-17,-15
-32,-17,-2,31,-10,-9,9,4,-7,-13,-16,-15
-31,-16,-3,30,-9,-10,10,5,-7,-12,-16,-14
-29,-16,-3,29,-8,-10,10,5,-7,-12,-15,-13
-26,-16,-4,28,-6,-10,10,5,-7,-12,-14,-13
-25,-16,-5,28,-5,-11,10,5,-7,-12,-13,-12
-25,-16,-5,27,-5,-11,10,5,-7,-12,-13,-11
-24,-16,-5,27,-4,-11,10,5,-7,-12,-13,-11
-24,-16,-5,27,-4,-11,10,5,-7,-12,-13,-11
-25,-17,-5,28,-5,-11,10,5,-7,-12,-13,-11
-27,-17,-5,30,-5,-11,10,5,-6,-12,-13,-11
-29,-18,-5,31,-6,-12,10,5,-6,-12,-13,-11
-31,-19,-5,33,-7,-12,10,5,-6,-12,-13,-11
-32,-20,-5,34,-7,-13,10,5,-6,-12,-13,-11
-33,-20,-5,35,-8,-13,10,5,-6,-12,-13,-11
-33,-20,-5,35,-8,-13,10,5,-6,-12,-13,-11
-32,-20,-5,34,-7,-13,10,6,-6,-12,-13,-11
-32,-19,-5,34,-7,-13,10,6,-5,-12,-13,-11
-31,-19,-5,33,-7,-12,10,6,-5,-12,-13,-11
-31,-19,-5,33,-7,-12,10,6,-4,-12,-12,-11
-31,-19,-5,33,-7,-12,10,6,-3,-12,-12,-11
-31,-19,-5,33,-7,-12,10,6,-3,-12,-12,-11
-31,-18,-4,32,-8,-11,9,6,-2,-12,-12,-11
-31,-17,-3,31,-9,-10,9,6,-2,-12,-12,-11
-31,-16,-2,30,-9,-9,8,6,-2,-12,-12,-11
-31,-16,-1,30,-10,-9,8,6,-2,-13,-11,-11
-31,-15,-1,29,-10,-8,8,6,-2,-13,-11,-11
-31,-15,-1,29,-10,-8,8,7,-2,-14,-11,-11
-31,-15,-1,29,-10,-8,8,7,-1,-15,-11,-11
-31,-15,-1,29,-10,-8,8,7,-1,-16,-11,-11
-30,-15,-1,29,-10,-8,8,7,-1,-16,-11,-11
-29,-15,-2,28,-9,-9,9,7,-1,-16,-11,-11
-29,-15,-2,28,-9,-9,9,7,-1,-16,-11,-11
-29,-15,-2,28,-9,-9,10,7,-1,-16,-10,-11
-29,-15,-2,28,-9,-9,10,8,-0,-16,-10,-11
-29,-15,-2,28,-9,-9,10,8,0,-15,-10,-11
-29,-15,-2,28,-9,-9,10,8,0,-15,-10,-11
-29,-16,-3,28,-8,-9,9,8,0,-15,-10,-12
-29,-16,-3,29,-8,-10,9,8,1,-14,-10,-12
-29,-17,-4,30,-7,-11,8,8,1,-13,-10,-12
-28,-18,-5,30,-6,-12,8,8,1,-12,-10,-12
-27,-18,-6,30,-5,-12,7,9,1,-11,-10,-13
-26,-18,-6,30,-4,-12,7,9,2,-10,-10,-13
-26,-18,-6,30,-4,-12,7,9,2,-10,-9,-13
-26,-18,-6,30,-4,-12,7,9,3,-9,-9,-13
-26,-18,-6,29,-4,-12,7,10,3,-9,-9,-13
-25,-17,-6,28,-4,-12,7,10,4,-9,-9,-13
-24,-17,-6,28,-4,-12,7,10,4,-8,-9,-14
-23,-17,-6,27,-3,-12,7,11,4,-8,-9,-14
-22,-16,-6,26,-3,-11,7,11,5,-7,-9,-14
-21,-16,-6,26,-3,-11,7,11,6,-7,-9,-14
-20,-15,-6,24,-2,-11,7,12,6,-7,-8,-14
-20,-15,-6,24,-2,-11,7,12,7,-6,-8,-13
-19,-15,-6,23,-2,-11,7,13,7,-6,-9,-13
-18,-14,-6,22,-1,-10,7,13,8,-5,-9,-13
-17,-14,-6,21,-1,-10,7,13,8,-4,-9,-13
-16,-13,-6,20,-0,-10,7,14,9,-4,-10,-12
-15,-13,-6,20,-0,-10,7,14,10,-3,-11,-12
-14,-13,-6,19,0,-10,7,15,11,-3,-10,-12
-13,-12,-6,18,0,-9,7,15,12,-2,-10,-11
-12,-12,-6,17,1,-9,7,16,12,-1,-9,-11
-11,-11,-6,16,2,-9,7,16,13,-0,-9,-10
-9,-11,-7,15,2,-9,7,17,14,1,-8,-10
-9,-10,-6,14,2,-8,7,17,15,1,-6,-10
-8,-10,-6,13,2,-8,7,18,16,2,-5,-9
-6,-9,-6,12,3,-8,7,18,17,2,-3,-9
-5,-9,-6,11,3,-8,7,19,19,2,-2,-8
-4,-8,-6,10,4,-7,7,20,20,3,-2,-8
-2,-7,-6,9,4,-7,6,21,22,3,-1,-7
-1,-7,-6,7,5,-6,6,21,24,4,0,-6
0,-6,-6,6,5,-6,6,22,25,5,1,-5
1,-5,-6,5,5,-6,6,23,26,6,2,-4
3,-5,-6,4,6,-5,6,23,27,8,2,-2
4,-4,-5,2,6,-5,5,24,29,9,3,-1
5,-3,-5,1,6,-4,5,24,30,11,5,0
7,-2,-5,-1,7,-3,5,25,31,12,6,1
8,-1,-4,-2,6,-3,4,26,33,14,7,2
10,0,-4,-4,7,-2,4,26,34,15,8,3
12,1,-4,-6,8,-1,4,27,35,17,9,4
14,2,-4,-8,9,-1,3,27,37,19,9,5
16,4,-4,-11,9,0,3,28,38,21,10,6
19,5,-3,-13,10,1,2,28,39,23,10,7
21,6,-3,-15,10,1,1,29,40,25,12,8
23,8,-3,-17,11,3,-0,29,42,27,13,8
26,9,-2,-20,11,3,-1,29,43,28,15,9
28,11,-2,-22,12,4,-2,30,44,31,17,10
30,12,-1,-25,12,5,-3,30,45,33,19,11
32,14,-1,-28,13,6,-3,30,46,35,20,13
35,16,-0,-30,13,8,-4,30,47,37,22,14
37,17,0,-33,13,9,-4,30,48,39,23,15
39,19,1,-35,14,10,-5,29,49,41,25,16
42,20,1,-38,14,11,-6,29,50,42,27,17
44,22,2,-41,15,12,-6,28,51,44,29,18
46,23,2,-43,15,13,-7,27,52,46,31,19
47,25,3,-45,15,14,-8,27,52,48,32,20
49,26,4,-47,15,15,-8,27,53,49,34,21
50,28,5,-49,15,16,-9,26,53,51,35,22
51,29,6,-51,14,17,-10,26,54,52,36,23
53,30,6,-53,14,18,-10,26,54,54,38,24
55,32,7,-56,15,20,-10,25,54,55,39,25
57,33,8,-58,15,20,-11,24,54,56,40,26
57,34,9,-58,14,22,-11,23,54,57,41,27
55,35,11,-59,12,23,-12,23,53,58,42,27
53,36,13,-59,9,24,-13,22,53,59,43,28
51,38,15,-59,7,26,-13,21,52,59,44,28
49,38,16,-59,5,27,-13,20,51,59,44,29
49,38,16,-59,5,27,-14,19,50,59,44,29
48,39,17,-59,4,28,-14,18,48,58,44,30
47,39,17,-58,4,28,-14,16,46,57,43,30
47,38,17,-58,3,28,-15,15,45,56,43,29
47,38,17,-58,4,27,-15,14,43,55,42,28
47,37,16,-57,4,27,-15,13,41,53,41,28
47,36,15,-56,5,26,-14,11,39,51,39,28
47,35,14,-55,6,25,-14,10,36,49,38,26
44,34,14,-52,5,24,-14,9,34,46,36,25
42,33,14,-50,4,23,-13,8,32,43,34,24
38,31,14,-47,3,22,-13,7,29,41,32,23
35,29,13,-44,2,21,-13,6,27,38,30,21
32,27,13,-41,2,20,-12,5,25,35,27,20
29,25,12,-37,1,18,-11,4,22,32,25,18
26,23,11,-34,1,17,-11,3,20,29,23,17
23,21,10,-30,0,16,-10,2,18,27,20,15
21,19,10,-28,0,14,-10,2,16,24,18,14
19,18,9,-25,-0,13,-9,2,14,21,16,13
16,16,9,-22,-1,12,-9,1,12,19,14,11
12,14,8,-19,-2,11,-8,0,10,16,12,10
10,12,7,-15,-2,9,-8,0,8,14,10,8
8,10,6,-13,-2,8,-7,-0,7,12,8,7
7,8,5,-11,-2,7,-6,-1,5,9,6,6
5,7,4,-9,-2,5,-6,-1,4,7,5,5
3,5,4,-6,-2,4,-6,-2,2,5,3,4
1,4,3,-4,-2,3,-5,-3,1,4,2,3
-0,2,3,-2,-2,2,-5,-4,0,2,0,3
-2,1,2,-0,-2,2,-5,-5,-1,1,-1,2
-3,0,2,1,-2,1,-4,-6,-2,-0,-1,1
-4,-1,1,3,-2,0,-4,-6,-2,-1,-2,0
-5,-2,1,4,-2,-0,-4,-6,-3,-2,-3,-1
-6,-2,0,5,-2,-1,-3,-6,-3,-3,-3,-1
-6,-2,0,5,-2,-1,-3,-6,-4,-3,-3,-1
-6,-3,0,6,-2,-1,-3,-6,-4,-3,-4,-1
-6,-3,0,6,-2,-1,-3,-6,-4,-3,-4,-1
-6,-3,0,6,-2,-1,-3,-6,-4,-3,-4,-1
-6,-3,0,6,-2,-1,-3,-6,-4,-3,-4,-1
-8,-5,-1,9,-2,-3,-3,-7,-5,-5,-5,-3
-11,-8,-3,14,-1,-6,-2,-7,-6,-9,-7,-5
-12,-9,-4,15,-1,-7,-2,-7,-6,-10,-7,-6
-13,-10,-4,16,-1,-7,-2,-8,-6,-10,-7,-7
-13,-10,-4,16,-1,-7,-2,-8,-6,-10,-7,-7
-13,-10,-4,16,-1,-7,-2,-8,-6,-10,-7,-7
-13,-10,-4,16,-1,-7,-2,-8,-6,-10,-7,-7
-13,-10,-4,16,-1,-7,-2,-8,-6,-10,-7,-7
-13,-10,-4,16,-1,-7,-2,-8,-6,-10,-7,-7
-13,-10,-4,16,-1,-7,-2,-8,-6,-10,-7,-7
-13,-10,-4,16,-1,-7,-2,-8,-6,-10,-7,-7
-13,-10,-4,16,-1,-7,-2,-8,-6,-10,-7,-7
-13,-10,-4,16,-1,-7,-2,-8,-6,-10,-7,-7
-13,-10,-4,16,-1,-7,-2,-8,-6,-10,-7,-7
-13,-10,-4,16,-1,-7,-2,-8,-6,-10,-7,-7
-13,-10,-4,16,-1,-7,-2,-8,-6,-10,-7,-7
-13,-10,-4,16,-1,-7,-2,-8,-6,-10,-7,-7
-13,-10,-4,16,-1,-7,-2,-8,-6,-10,-7,-7
-13,-10,-4,16,-1,-7,-2,-8,-6,-10,-7,-7
-13,-10,-4,16,-1,-7,-2,-8,-6,-10,-7,-7
-13,-10,-4,16,-1,-7,-2,-8,-6,-10,-7,-7
-13,-10,-4,16,-1,-7,-2,-8,-6,-10,-7,-7
-13,-10,-4,16,-1,-7,-2,-8,-6,-10,-7,-7
-13,-10,-4,16,-1,-7,-2,-8,-6,-10,-7,-7
-13,-10,-4,16,-1,-7,-2,-8,-6,-10,-7,-7
-13,-10,-4,16,-1,-7,-2,-8,-6,-10,-7,-7
-14,-10,-4,16,-2,-7,-2,-8,-6,-10,-7,-7
-16,-10,-3,17,-3,-6,-2,-8,-6,-10,-7,-8
-17,-10,-2,18,-4,-6,-2,-8,-6,-10,-7,-9
-20,-10,-1,19,-6,-6,-2,-8,-6,-10,-7,-10
-21,-10,-0,19,-7,-5,-2,-8,-6,-10,-7,-10
-21,-10,-0,20,-7,-5,-2,-8,-6,-10,-7,-10
-22,-10,0,20,-8,-5,-2,-8,-6,-10,-7,-11
-22,-10,0,20,-8,-5,-2,-8,-6,-10,-7,-11
-22,-10,0,20,-8,-5,-2,-8,-6,-10,-7,-11
-22,-10,0,20,-8,-5,-2,-8,-6,-9,-7,-11
-22,-10,0,20,-8,-5,-2,-8,-5,-9,-7,-11
-22,-10,0,20,-8,-5,-2,-8,-4,-8,-7,-11
-22,-10,0,20,-8,-5,-2,-8,-4,-7,-7,-11
-22,-10,0,20,-8,-5,-2,-8,-4,-7,-7,-11
-22,-10,0,20,-8,-5,-2,-8,-4,-7,-7,-11
-22,-10,0,20,-8,-5,-2,-8,-4,-7,-7,-11
-22,-10,0,20,-8,-5,-2,-8,-4,-7,-7,-11
-22,-10,0,20,-8,-5,-2,-8,-4,-7,-7,-11
-22,-10,0,20,-8,-5,-2,-8,-4,-7,-7,-11
-22,-10,0,20,-8,-5,-2,-8,-4,-7,-7,-11
-22,-10,0,20,-8,-5,-2,-8,-4,-7,-7,-11
-22,-10,0,20,-8,-5,-2,-8,-4,-7,-7,-11
-22,-10,0,20,-8,-5,-2,-8,-5,-7,-7,-11
-22,-10,0,20,-8,-5,-2,-8,-6,-7,-7,-11
-22,-10,0,20,-8,-5,-2,-7,-6,-7,-7,-11
-22,-10,0,20,-8,-5,-2,-7,-7,-7,-7,-11
-22,-10,0,20,-8,-5,-2,-6,-8,-7,-7,-11
-22,-10,0,20,-8,-5,-2,-5,-8,-7,-7,-11
-22,-10,0,20,-8,-5,-2,-5,-9,-7,-7,-11
-22,-10,0,20,-8,-5,-2,-5,-9,-7,-7,-11
-22,-10,0,20,-8,-5,-2,-5,-9,-7,-7,-11
-22,-10,0,20,-8,-5,-2,-5,-9,-7,-7,-11
-22,-10,0,20,-8,-5,-2,-5,-9,-7,-7,-11
-22,-10,0,20,-8,-5,-2,-5,-10,-7,-7,-11
-22,-10,0,20,-8,-5,-2,-5,-10,-7,-7,-11
-22,-10,0,20,-8,-5,-2,-5,-11,-7,-7,-11
-22,-10,0,20,-8,-5,-2,-5,-12,-7,-7,-11
-22,-10,0,20,-8,-5,-2,-5,-12,-7,-7,-11
-22,-10,0,20,-8,-5,-2,-5,-12,-7,-7,-11
-22,-10,0,20,-8,-5,-2,-5,-12,-7,-7,-11
-22,-10,0,20,-8,-5,-2,-5,-12,-7,-7,-11
-22,-10,0,20,-8,-5,-2,-6,-12,-7,-7,-11
-22,-10,0,20,-8,-5,-2,-6,-12,-7,-7,-11
-22,-10,0,20,-8,-5,-2,-7,-12,-7,-7,-11
-22,-10,0,20,-8,-5,-2,-7,-12,-7,-7,-11
-22,-10,0,20,-8,-5,-2,-7,-12,-7,-7,-11
-22,-10,0,20,-8,-5,-2,-8,-12,-7,-7,-11
-22,-10,0,20,-8,-5,-2,-8,-12,-7,-7,-11
-22,-10,0,20,-8,-5,-2,-8,-12,-7,-8,-11
-22,-10,0,20,-8,-5,-3,-8,-12,-7,-8,-11
-22,-10,0,20,-8,-5,-3,-8,-12,-7,-9,-11
-22,-10,0,20,-8,-5,-4,-8,-12,-7,-10,-11
-22,-10,0,20,-8,-5,-4,-8,-12,-7,-11,-11
-22,-10,0,20,-8,-5,-4,-8,-13,-7,-11,-11
-22,-10,0,20,-8,-5,-4,-8,-13,-7,-11,-11
-22,-10,0,20,-8,-5,-4,-8,-14,-7,-11,-11
-22,-10,0,20,-8,-5,-4,-8,-14,-7,-11,-11
-22,-10,0,20,-8,-5,-4,-8,-14,-8,-11,-11
-22,-10,0,20,-8,-5,-4,-8,-14,-9,-11,-11
-22,-10,0,20,-8,-5,-4,-8,-14,-9,-11,-11
-21,-10,-0,19,-7,-5,-4,-8,-14,-10,-11,-11
-19,-10,-1,19,-6,-6,-4,-8,-14,-10,-11,-11
-17,-10,-2,18,-4,-6,-4,-8,-14,-10,-11,-11
-15,-10,-3,17,-3,-7,-4,-8,-14,-10,-11,-11
-14,-10,-4,16,-2,-7,-4,-8,-14,-10,-11,-11
-13,-10,-4,16,-1,-7,-4,-8,-14,-10,-11,-11
-13,-10,-4,16,-1,-7,-4,-8,-14,-10,-11,-11
-13,-10,-4,16,-1,-7,-4,-8,-14,-10,-11,-11
-13,-10,-4,16,-1,-7,-4,-8,-14,-10,-11,-11
-13,-10,-4,16,-1,-7,-4,-8,-14,-10,-11,-11
-13,-10,-4,16,-1,-7,-4,-8,-14,-10,-11,-11
-13,-10,-4,16,-1,-7,-4,-8,-14,-10,-11,-11
-14,-10,-4,16,-2,-7,-4,-8,-14,-10,-11,-11
-16,-10,-3,17,-3,-6,-4,-8,-14,-10,-11,-11
-17,-10,-2,18,-4,-6,-4,-8,-14,-10,-11,-11
-20,-10,-1,19,-6,-6,-4,-8,-14,-10,-11,-11
-21,-10,-0,19,-7,-5,-4,-8,-14,-10,-11,-11
-21,-10,-0,20,-7,-5,-4,-8,-14,-10,-11,-11
-22,-10,0,20,-8,-5,-4,-8,-14,-10,-11,-11
-22,-10,0,20,-8,-5,-4,-8,-14,-10,-11,-11
-22,-10,0,20,-8,-5,-4,-8,-14,-10,-11,-11
-22,-10,0,20,-8,-5,-4,-8,-14,-10,-11,-11
-22,-10,0,20,-8,-5,-4,-9,-14,-10,-11,-11
-22,-10,0,20,-8,-5,-4,-10,-14,-10,-11,-11
-22,-10,0,20,-8,-5,-4,-10,-14,-11,-11,-11
-22,-10,0,20,-8,-5,-4,-10,-14,-12,-11,-11
-22,-10,0,20,-8,-5,-4,-10,-14,-12,-11,-11
-22,-10,0,20,-8,-5,-4,-10,-14,-13,-11,-11
-22,-10,0,20,-8,-5,-4,-10,-14,-14,-11,-11
-22,-10,0,20,-8,-5,-4,-10,-14,-14,-11,-11
-22,-10,0,20,-8,-5,-4,-10,-14,-14,-11,-11
-22,-10,0,20,-8,-5,-4,-10,-14,-14,-11,-11
-22,-10,0,20,-8,-5,-4,-10,-15,-14,-11,-11
-22,-10,0,20,-8,-5,-4,-10,-15,-14,-11,-11
-22,-10,0,20,-8,-5,-4,-10,-16,-14,-11,-11
-22,-10,0,20,-8,-5,-4,-10,-17,-14,-11,-11
-22,-10,0,20,-8,-5,-5,-10,-17,-14,-11,-11
-22,-10,0,20,-8,-5,-5,-10,-17,-14,-11,-11
-22,-10,0,20,-8,-5,-6,-10,-17,-14,-11,-11
-22,-10,0,20,-8,-5,-6,-10,-17,-14,-11,-11
-22,-10,0,20,-8,-5,-7,-10,-17,-14,-11,-11
-22,-10,0,20,-8,-5,-7,-10,-17,-14,-12,-11
-22,-10,0,20,-8,-5,-7,-10,-17,-14,-13,-11
-22,-10,0,20,-8,-5,-7,-10,-17,-14,-14,-11
-22,-10,0,20,-8,-5,-7,-10,-17,-14,-14,-11
-22,-10,0,20,-8,-5,-7,-10,-17,-14,-15,-11
-22,-10,0,20,-8,-5,-7,-10,-17,-14,-15,-11
-22,-10,0,20,-8,-5,-7,-10,-17,-14,-15,-11
-22,-10,-0,20,-7,-5,-7,-10,-17,-15,-15,-11
-22,-11,-1,21,-7,-6,-7,-10,-17,-15,-15,-12
-22,-12,-2,22,-6,-7,-7,-10,-17,-16,-15,-13
-22,-13,-3,23,-5,-8,-7,-10,-17,-17,-15,-13
-22,-14,-4,24,-5,-9,-7,-10,-17,-17,-15,-14
-22,-14,-4,24,-5,-9,-7,-10,-17,-18,-15,-14
-22,-14,-4,24,-4,-9,-7,-10,-17,-18,-15,-14
-22,-14,-4,24,-4,-9,-7,-10,-17,-18,-15,-14
-22,-14,-4,24,-4,-9,-7,-10,-17,-18,-15,-14
-22,-14,-4,24,-4,-9,-7,-10,-17,-18,-15,-14
-22,-14,-4,24,-4,-9,-7,-10,-17,-18,-15,-14
-22,-14,-4,24,-4,-9,-7,-10,-17,-18,-15,-14
-22,-14,-4,24,-4,-9,-7,-10,-17,-18,-15,-14
-22,-14,-4,24,-4,-9,-7,-10,-17,-18,-15,-14
-22,-14,-4,24,-4,-9,-7,-10,-17,-18,-15,-14
-22,-14,-4,24,-4,-9,-7,-10,-17,-18,-15,-14
-22,-14,-4,24,-4,-9,-7,-10,-17,-18,-15,-14
-22,-14,-4,24,-4,-9,-7,-10,-17,-18,-15,-14
-22,-14,-4,24,-4,-9,-7,-10,-17,-18,-15,-14
