I,II,III,aVR,aVL,aVF,V1,V2,V3,V4,V5,V6
-38,-13,21,34,-37,5,8,7,5,-3,-4,-12
-38,-13,22,34,-38,6,8,7,5,-3,-4,-12
-38,-12,22,34,-38,6,8,7,5,-3,-4,-12
-38,-12,22,34,-38,6,8,7,5,-3,-4,-12
-38,-12,22,34,-38,6,8,7,5,-3,-4,-12
-38,-12,22,34,-38,6,8,7,5,-3,-4,-12
-38,-12,22,34,-38,6,8,7,5,-3,-4,-12
-38,-12,22,34,-38,6,8,7,5,-3,-4,-12
-37,-12,21,33,-37,6,8,7,5,-3,-4,-12
-34,-12,19,31,-34,5,8,7,5,-3,-4,-12
-32,-12,17,30,-30,3,8,7,5,-3,-4,-12
-29,-12,14,27,-27,1,8,7,5,-3,-4,-12
-27,-12,12,26,-24,1,8,7,5,-3,-4,-12
-26,-12,12,26,-24,0,8,7,5,-3,-4,-12
-26,-12,11,26,-23,0,8,7,5,-3,-4,-12
-26,-12,11,26,-23,0,8,7,5,-3,-4,-12
-26,-12,11,26,-23,0,8,7,5,-3,-4,-12
-26,-12,11,26,-23,0,8,7,5,-3,-4,-12
-26,-12,11,26,-23,0,8,7,5,-3,-4,-12
-26,-12,11,26,-23,0,8,7,5,-3,-4,-12
-24,-12,10,25,-21,-1,8,7,4,-3,-4,-12
-22,-12,8,23,-18,-2,8,7,3,-3,-4,-12
-19,-12,6,22,-15,-3,8,7,1,-3,-4,-12
-16,-12,3,19,-11,-5,8,7,-0,-3,-4,-12
-14,-12,2,18,-9,-6,8,6,-1,-3,-4,-12
-14,-12,1,18,-8,-7,8,4,-2,-5,-4,-12
-13,-12,1,18,-8,-7,8,3,-2,-6,-4,-12
-13,-12,1,18,-8,-7,8,0,-2,-8,-4,-12
-13,-12,1,18,-8,-7,8,-1,-2,-9,-4,-12
-13,-12,1,18,-8,-7,8,-1,-2,-9,-4,-12
-13,-12,1,18,-8,-7,8,-2,-2,-10,-4,-12
-13,-12,1,18,-8,-7,8,-2,-2,-10,-4,-12
-13,-12,1,18,-8,-7,8,-2,-3,-10,-4,-12
-13,-12,1,18,-8,-7,8,-2,-4,-10,-4,-12
-13,-12,1,18,-8,-7,8,-2,-6,-10,-4,-12
-13,-12,1,18,-8,-7,8,-2,-8,-10,-4,-12
-13,-13,-1,18,-7,-8,8,-2,-9,-10,-4,-12
-13,-15,-3,20,-5,-10,8,-2,-9,-10,-4,-12
-13,-18,-5,22,-4,-13,8,-2,-9,-10,-4,-12
-13,-21,-8,24,-2,-16,8,-2,-9,-10,-4,-12
-13,-22,-9,25,-1,-18,8,-2,-9,-10,-4,-12
-13,-23,-10,26,-1,-19,8,-2,-9,-10,-4,-12
-13,-24,-10,26,0,-20,8,-2,-9,-10,-4,-12
-13,-24,-10,26,0,-20,8,-2,-9,-10,-4,-12
-13,-22,-9,25,-1,-18,8,-2,-9,-10,-4,-12
-13,-20,-7,23,-2,-16,8,-2,-9,-10,-4,-12
-13,-18,-5,22,-4,-13,8,-2,-9,-10,-4,-12
-13,-15,-2,20,-6,-10,8,-2,-9,-10,-4,-12
-13,-13,-1,18,-7,-8,8,-2,-9,-10,-4,-12
-13,-13,0,18,-8,-7,8,-2,-9,-10,-4,-12
-13,-12,1,18,-8,-7,8,-2,-9,-10,-4,-12
-13,-12,1,18,-8,-7,8,-2,-9,-10,-4,-12
-13,-12,1,18,-8,-7,8,-2,-9,-10,-4,-12
-13,-12,1,18,-8,-7,8,-2,-9,-10,-4,-12
-13,-12,1,18,-8,-7,8,-2,-9,-10,-4,-12
-13,-12,1,18,-8,-7,8,-2,-9,-10,-4,-12
-13,-12,1,18,-8,-7,8,-2,-9,-10,-4,-12
-13,-12,1,18,-8,-7,8,-2,-9,-10,-4,-12
-6,-9,-3,11,-1,-7,6,-0,-6,-6,-3,-11
4,-5,-8,2,8,-8,2,2,-3,-1,-0,-9
7,-4,-9,-1,11,-8,1,2,-1,0,0,-9
8,-3,-10,-2,12,-8,1,3,-1,1,1,-9
9,-2,-9,-3,12,-7,1,4,-0,1,1,-9
9,-1,-8,-4,11,-6,1,5,0,1,1,-10
10,0,-8,-6,12,-5,1,7,1,2,1,-11
11,2,-7,-8,12,-3,1,7,2,3,1,-10
11,5,-4,-10,11,0,0,7,3,3,2,-10
11,8,-2,-12,8,3,-1,7,4,4,3,-9
13,10,-1,-14,8,5,-1,6,5,5,3,-8
14,13,1,-18,8,8,-1,4,6,6,4,-7
14,15,2,-19,8,9,-1,3,8,6,5,-6
16,17,3,-21,8,10,-2,0,9,8,5,-6
17,19,4,-23,8,12,-3,-1,10,10,6,-5
18,22,6,-26,7,16,-3,-1,10,11,8,-4
18,24,8,-27,5,18,-4,-2,11,12,10,-4
18,25,9,-28,5,20,-5,-2,12,13,12,-3
18,27,11,-30,3,22,-6,-4,12,14,13,-3
19,28,11,-31,4,22,-8,-5,12,15,13,-3
20,30,11,-33,5,24,-10,-6,12,15,13,-2
21,30,11,-34,5,24,-11,-8,11,16,13,-1
22,30,10,-34,6,23,-13,-8,10,17,13,-1
23,30,9,-35,8,22,-16,-10,10,17,13,-1
24,30,9,-36,8,22,-17,-11,9,17,13,-1
25,30,8,-37,10,22,-19,-12,8,17,13,0
28,30,5,-38,13,20,-20,-13,6,17,13,0
29,30,4,-39,15,19,-22,-14,5,16,13,0
31,30,3,-40,17,18,-23,-15,3,15,13,1
33,30,1,-42,19,18,-25,-17,1,15,13,1
34,30,0,-42,21,17,-25,-17,-1,13,13,1
36,30,-2,-43,24,16,-26,-19,-2,12,12,1
38,30,-4,-45,26,14,-27,-19,-4,11,12,1
39,30,-4,-45,27,14,-28,-19,-6,10,12,1
40,30,-5,-46,28,14,-28,-19,-7,9,12,1
42,30,-7,-47,30,12,-28,-20,-8,8,11,1
43,30,-8,-47,31,12,-28,-21,-9,8,10,2
44,30,-9,-48,33,12,-28,-21,-11,7,10,3
45,30,-10,-49,34,11,-28,-21,-12,6,10,3
46,30,-10,-50,35,10,-28,-21,-13,6,10,3
46,30,-10,-50,35,10,-27,-21,-13,6,10,3
46,30,-10,-50,35,10,-26,-21,-14,6,10,3
46,30,-10,-50,35,10,-25,-21,-15,6,11,4
46,30,-10,-50,35,10,-25,-21,-15,6,11,4
46,30,-10,-50,35,10,-24,-21,-15,6,12,4
44,30,-9,-49,34,11,-23,-21,-15,6,12,4
42,29,-8,-46,31,11,-22,-21,-15,6,12,4
39,27,-8,-43,30,10,-21,-21,-15,6,11,4
36,25,-8,-39,27,9,-20,-21,-15,5,10,3
33,22,-8,-35,26,7,-18,-21,-15,4,10,2
29,19,-6,-30,22,7,-16,-20,-15,3,8,1
24,16,-5,-26,19,6,-13,-19,-15,3,8,0
21,12,-6,-21,17,3,-11,-17,-14,2,7,-1
18,9,-6,-16,16,1,-8,-17,-13,1,5,-3
14,5,-8,-11,14,-2,-6,-15,-13,-1,4,-4
13,0,-10,-7,15,-7,-3,-14,-13,-3,2,-6
12,-3,-13,-4,17,-10,-2,-13,-13,-4,0,-7
11,-6,-15,-2,18,-12,-1,-12,-13,-6,-2,-9
8,-9,-15,2,16,-14,0,-11,-13,-7,-3,-10
6,-12,-16,6,15,-16,1,-10,-14,-8,-5,-12
4,-15,-17,9,14,-19,3,-8,-14,-10,-6,-13
3,-18,-19,11,16,-22,5,-8,-15,-11,-8,-15
3,-20,-20,13,16,-24,5,-6,-15,-12,-8,-15
3,-21,-22,14,18,-26,6,-6,-15,-13,-9,-16
3,-23,-23,15,18,-27,7,-6,-15,-13,-10,-17
1,-24,-23,17,18,-28,8,-6,-15,-14,-11,-18
0,-26,-24,19,18,-29,8,-6,-15,-15,-12,-18
-1,-26,-24,20,17,-29,8,-6,-17,-15,-12,-19
-1,-26,-24,20,17,-29,9,-6,-18,-15,-12,-19
-2,-28,-24,22,16,-30,10,-6,-21,-16,-13,-19
-3,-29,-24,23,15,-31,10,-6,-23,-17,-14,-19
-4,-29,-24,24,15,-31,9,-6,-23,-19,-14,-20
-4,-30,-25,25,16,-33,9,-6,-22,-20,-15,-20
-4,-32,-26,26,17,-34,10,-6,-22,-20,-16,-21
-4,-32,-26,26,17,-35,11,-6,-22,-20,-16,-21
-5,-33,-26,27,16,-35,12,-6,-22,-20,-16,-21
-8,-34,-25,30,14,-35,13,-6,-22,-20,-16,-21
-9,-35,-24,31,12,-35,13,-6,-22,-20,-16,-21
-10,-36,-25,33,12,-36,13,-4,-22,-20,-16,-21
-10,-37,-26,34,13,-37,13,1,-22,-20,-16,-21
-10,-36,-24,32,11,-35,13,7,-22,-19,-16,-21
-9,-33,-23,30,11,-33,13,12,-21,-18,-16,-22
-8,-33,-24,29,13,-33,13,13,-20,-16,-16,-22
-9,-35,-24,31,12,-35,15,8,-20,-18,-16,-22
-12,-36,-23,34,10,-35,18,2,-18,-20,-16,-22
-14,-33,-18,33,5,-30,20,-4,-17,-23,-16,-22
-20,-33,-13,37,-2,-27,20,-8,-13,-24,-19,-25
-23,-41,-18,45,-1,-35,28,-2,-8,-23,-21,-27
-29,-41,-13,49,-8,-31,33,21,6,-14,-16,-24
-33,-30,1,42,-20,-17,40,30,15,-14,-18,-27
-42,-33,6,50,-29,-15,52,41,28,-8,-18,-30
-54,-44,6,67,-37,-22,57,47,37,-6,-18,-33
-58,-41,11,67,-43,-17,64,47,44,-1,-16,-33
-45,-30,11,50,-35,-10,64,50,49,8,-8,-28
-45,-21,19,44,-40,-1,67,63,58,24,4,-24
-42,-10,28,34,-44,10,69,70,69,44,15,-21
-33,-4,25,24,-37,12,69,74,80,60,20,-15
-23,7,28,10,-33,20,62,74,80,72,31,-7
-1,22,22,-14,-16,26,50,74,85,94,54,15
30,45,17,-50,7,35,28,63,82,113,82,37
89,73,-8,-107,60,37,-1,50,73,142,113,58
152,111,-26,-174,111,46,-33,32,60,169,141,85
193,137,-37,-218,144,55,-70,7,35,183,160,110
227,151,-53,-250,176,53,-99,-20,12,203,183,125
261,180,-56,-292,199,68,-131,-47,-20,217,206,147
299,194,-75,-326,236,65,-167,-80,-63,217,221,165
318,194,-91,-338,258,55,-192,-114,-99,217,223,179
358,194,-126,-364,308,33,-214,-134,-137,206,223,188
399,194,-161,-390,357,12,-233,-165,-180,188,219,195
405,174,-186,-380,378,-14,-250,-183,-216,151,195,186
405,142,-215,-358,399,-50,-245,-187,-243,99,160,168
374,108,-221,-314,384,-73,-228,-190,-261,29,105,138
330,82,-207,-268,348,-79,-204,-190,-270,-39,53,104
261,68,-161,-214,274,-60,-182,-194,-288,-80,15,80
221,53,-140,-178,233,-54,-165,-199,-295,-119,-13,60
205,39,-140,-158,224,-63,-150,-199,-302,-148,-34,46
146,36,-91,-118,153,-35,-136,-196,-298,-169,-44,37
111,30,-67,-91,115,-24,-109,-187,-288,-171,-50,30
102,19,-70,-78,111,-31,-92,-178,-272,-171,-54,21
52,10,-35,-39,56,-15,-72,-165,-250,-162,-54,13
33,5,-24,-23,37,-12,-58,-147,-230,-151,-47,13
21,-4,-21,-10,28,-15,-45,-134,-212,-144,-47,4
-17,-30,-13,33,-1,-25,-43,-127,-193,-137,-50,-10
-26,-41,-16,46,-5,-33,-31,-111,-175,-130,-52,-19
-20,-36,-16,38,-1,-30,-6,-82,-146,-110,-52,-22
-23,-36,-13,41,-5,-28,13,-62,-126,-99,-50,-25
-23,-30,-8,37,-8,-22,20,-51,-108,-94,-47,-27
-36,-36,-2,49,-20,-22,18,-44,-92,-80,-39,-27
-36,-36,-2,49,-20,-22,23,-26,-76,-69,-34,-27
-23,-27,-5,34,-10,-18,23,-17,-58,-58,-29,-25
-4,-21,-16,18,9,-22,23,-13,-46,-49,-23,-24
-20,-21,-2,29,-10,-14,23,-8,-35,-37,-19,-15
-14,-27,-13,29,2,-24,20,-6,-29,-35,-18,-13
-10,-21,-10,22,2,-18,20,-4,-26,-38,-17,-14
-8,-20,-11,20,3,-18,20,-2,-24,-38,-18,-15
-8,-20,-11,20,4,-18,20,-2,-24,-38,-20,-16
-13,-21,-9,24,-1,-18,20,-3,-24,-36,-20,-18
-18,-25,-7,30,-5,-18,20,-4,-23,-35,-21,-18
-21,-26,-5,33,-8,-18,20,-4,-22,-34,-21,-19
-23,-26,-4,34,-11,-18,20,-4,-20,-33,-20,-19
-25,-28,-4,37,-11,-19,20,-5,-18,-33,-18,-20
-24,-28,-5,36,-11,-19,20,-5,-15,-33,-18,-20
-23,-26,-4,34,-11,-17,21,-1,-13,-32,-17,-19
-22,-24,-3,32,-11,-16,23,4,-10,-31,-16,-19
-19,-26,-7,31,-6,-19,25,8,-8,-31,-17,-20
-18,-28,-11,32,-2,-23,25,11,-8,-31,-19,-21
-18,-29,-11,32,-2,-24,25,11,-8,-30,-21,-22
-19,-29,-11,34,-3,-24,25,11,-8,-30,-22,-22
-19,-29,-10,34,-4,-23,25,10,-8,-29,-24,-22
-19,-29,-10,34,-4,-23,25,9,-8,-29,-25,-22
-19,-29,-10,34,-4,-23,25,9,-8,-29,-24,-22
-19,-30,-11,34,-3,-24,25,9,-8,-29,-24,-22
-19,-32,-12,35,-2,-26,25,9,-8,-29,-24,-22
-19,-32,-13,36,-2,-26,25,10,-7,-28,-24,-22
-19,-32,-13,36,-2,-26,25,11,-6,-28,-23,-22
-19,-32,-13,36,-2,-26,25,12,-6,-28,-23,-22
-19,-31,-12,35,-3,-25,25,12,-5,-27,-22,-22
-19,-30,-11,34,-4,-24,25,13,-4,-25,-22,-21
-19,-29,-10,34,-4,-23,25,13,-4,-24,-22,-21
-19,-29,-10,34,-4,-23,25,14,-4,-24,-22,-21
-19,-29,-10,34,-4,-23,25,14,-4,-23,-21,-21
-21,-30,-10,35,-5,-24,25,14,-4,-22,-21,-21
-22,-32,-10,37,-5,-24,25,14,-4,-22,-21,-21
-23,-32,-10,38,-6,-25,25,14,-4,-22,-21,-21
-23,-32,-10,38,-6,-25,25,14,-3,-22,-21,-21
-23,-32,-10,38,-6,-25,25,14,-3,-22,-21,-21
-23,-32,-10,38,-6,-25,25,14,-2,-22,-21,-21
-23,-32,-10,38,-6,-25,26,14,-2,-21,-21,-21
-23,-31,-9,37,-7,-24,27,15,-2,-21,-21,-20
-23,-30,-8,36,-8,-22,28,15,-1,-20,-21,-19
-23,-29,-8,36,-8,-22,28,13,-1,-20,-21,-19
-23,-29,-8,36,-8,-22,28,12,-0,-20,-21,-19
-23,-29,-8,36,-8,-22,28,9,-0,-20,-21,-19
-23,-29,-8,36,-8,-22,28,8,-0,-20,-21,-19
-23,-29,-8,36,-8,-22,28,8,-0,-20,-21,-19
-23,-29,-8,36,-8,-22,28,7,-0,-20,-21,-19
-23,-29,-8,36,-8,-22,28,7,0,-20,-21,-19
-23,-30,-9,37,-7,-23,28,8,1,-20,-20,-19
-21,-32,-11,37,-5,-25,28,9,1,-20,-19,-19
-20,-33,-13,37,-2,-27,27,9,1,-20,-19,-19
-19,-35,-16,38,0,-29,26,9,1,-19,-19,-19
-19,-37,-17,39,1,-31,25,9,1,-19,-19,-19
-19,-37,-18,39,2,-32,25,9,1,-19,-19,-19
-19,-38,-18,40,2,-33,25,9,1,-19,-19,-19
-19,-38,-18,40,2,-33,25,9,2,-19,-19,-19
-19,-37,-17,39,1,-31,25,9,3,-18,-18,-18
-19,-34,-15,38,-1,-29,25,9,3,-17,-18,-18
-19,-32,-13,36,-2,-26,25,9,3,-17,-17,-18
-18,-29,-11,33,-2,-24,25,9,3,-17,-17,-18
-17,-28,-11,31,-2,-22,25,9,4,-17,-17,-18
-16,-27,-11,30,-2,-22,25,9,5,-17,-17,-18
-16,-26,-10,30,-2,-22,25,9,5,-16,-17,-18
-16,-26,-10,30,-2,-22,25,9,5,-15,-17,-18
-16,-26,-10,30,-2,-22,25,9,5,-15,-17,-18
-16,-26,-10,30,-2,-22,25,9,5,-15,-18,-18
-16,-26,-10,30,-2,-22,25,9,5,-15,-19,-18
-16,-26,-10,30,-2,-22,25,9,6,-14,-21,-17
-16,-26,-10,30,-2,-22,25,9,6,-14,-22,-16
-16,-26,-10,30,-2,-22,25,9,6,-13,-22,-16
-16,-26,-10,30,-2,-22,25,10,7,-13,-22,-16
-16,-26,-10,30,-2,-22,25,11,8,-13,-21,-16
-14,-25,-11,28,-1,-21,25,12,8,-13,-21,-16
-11,-24,-12,25,2,-22,25,12,8,-13,-21,-16
-11,-24,-12,24,3,-21,25,12,8,-12,-21,-16
-10,-24,-13,24,4,-22,25,12,9,-11,-21,-16
-10,-24,-13,24,4,-22,24,12,10,-11,-20,-16
-10,-24,-13,24,4,-22,23,12,10,-11,-19,-15
-10,-24,-13,24,4,-22,23,12,10,-10,-19,-15
-10,-24,-13,24,4,-22,23,12,11,-10,-19,-15
-10,-24,-13,24,4,-22,23,13,11,-10,-19,-15
-9,-22,-13,22,5,-21,23,14,12,-10,-19,-15
-8,-21,-13,21,5,-20,23,16,13,-9,-18,-15
-7,-21,-13,20,5,-20,23,18,13,-8,-18,-14
-7,-21,-13,20,5,-20,23,20,14,-8,-17,-13
-7,-21,-13,20,5,-20,22,21,14,-7,-17,-13
-6,-20,-13,18,6,-19,21,22,14,-6,-16,-13
-4,-18,-13,17,7,-18,20,23,15,-6,-16,-13
-4,-18,-13,16,8,-18,20,22,15,-6,-16,-13
-4,-18,-13,16,8,-18,20,20,16,-6,-15,-12
-3,-17,-13,14,8,-18,20,18,17,-5,-14,-12
-1,-15,-13,13,9,-17,20,16,17,-5,-14,-12
-1,-15,-13,12,9,-16,20,15,18,-4,-14,-11
1,-15,-14,11,11,-17,20,14,19,-4,-13,-10
2,-15,-15,10,12,-18,19,14,19,-4,-13,-10
3,-14,-15,9,12,-17,18,15,20,-4,-12,-10
4,-13,-15,7,13,-16,16,17,20,-4,-12,-10
5,-12,-15,6,14,-16,16,18,21,-4,-12,-10
6,-12,-16,6,16,-17,15,21,22,-4,-12,-9
8,-12,-18,4,18,-18,14,23,22,-4,-12,-9
9,-11,-18,2,19,-17,13,24,23,-4,-12,-9
12,-10,-19,0,21,-17,13,25,23,-5,-13,-9
16,-9,-22,-2,25,-18,12,25,23,-6,-14,-9
20,-9,-25,-6,30,-21,11,25,24,-8,-16,-8
24,-9,-29,-8,35,-23,11,25,24,-9,-17,-7
26,-9,-30,-9,37,-24,11,25,25,-9,-17,-7
26,-9,-31,-10,38,-24,10,25,26,-10,-17,-7
28,-8,-31,-11,39,-24,9,25,26,-9,-17,-7
29,-6,-30,-14,40,-22,8,25,26,-8,-15,-6
31,-3,-29,-16,40,-20,8,25,27,-6,-14,-6
33,-1,-28,-19,40,-18,8,25,28,-4,-12,-6
33,2,-26,-22,39,-14,7,25,28,-3,-11,-6
33,4,-24,-23,38,-12,6,25,28,-1,-10,-5
32,5,-23,-22,36,-11,6,25,28,-1,-9,-4
29,5,-20,-22,33,-9,6,25,28,-1,-9,-4
28,5,-18,-20,30,-9,5,25,29,-1,-9,-4
27,5,-18,-20,30,-8,4,25,29,-1,-9,-4
27,5,-18,-20,30,-8,3,25,30,-2,-9,-4
28,5,-19,-21,31,-9,3,25,30,-3,-9,-3
29,5,-20,-22,33,-9,2,25,30,-3,-9,-3
31,5,-21,-22,34,-10,1,24,30,-3,-9,-3
33,5,-23,-24,37,-11,1,22,30,-3,-9,-3
36,5,-26,-26,41,-13,1,21,30,-3,-8,-3
41,5,-30,-29,46,-15,1,18,30,-4,-8,-3
44,5,-32,-30,50,-17,1,17,30,-4,-8,-2
46,6,-33,-33,53,-17,1,17,29,-4,-9,-1
48,7,-34,-35,54,-16,1,16,28,-4,-11,-1
49,8,-34,-36,54,-16,0,16,28,-4,-12,-1
50,8,-35,-37,56,-17,-1,15,28,-4,-13,-1
51,8,-36,-38,57,-18,-3,14,28,-4,-14,0
52,8,-37,-38,58,-18,-6,14,28,-4,-14,0
52,8,-37,-38,58,-18,-9,14,27,-4,-14,0
53,9,-37,-39,59,-17,-12,14,27,-4,-14,0
54,10,-37,-41,59,-16,-13,14,26,-4,-13,1
55,10,-37,-42,60,-17,-13,14,26,-4,-13,1
55,10,-37,-42,60,-17,-13,14,26,-4,-12,1
55,10,-37,-42,60,-17,-14,13,25,-4,-12,1
54,10,-36,-41,59,-16,-15,12,25,-4,-12,1
51,10,-34,-39,56,-15,-16,12,24,-4,-12,1
49,10,-32,-38,53,-14,-16,12,24,-4,-12,1
47,10,-30,-36,50,-12,-16,12,25,-4,-12,2
46,10,-30,-36,50,-12,-17,12,27,-4,-12,3
47,11,-29,-37,50,-11,-18,12,28,-3,-11,3
48,13,-29,-38,50,-10,-18,12,28,-2,-11,3
49,13,-29,-39,50,-10,-17,11,29,-1,-11,3
49,13,-29,-39,50,-10,-15,10,30,-0,-10,4
49,13,-29,-39,50,-10,-13,9,29,1,-9,4
49,13,-29,-39,50,-10,-11,9,28,1,-9,4
48,13,-28,-38,49,-10,-9,9,28,3,-8,4
46,13,-27,-38,47,-9,-9,9,28,3,-8,4
46,14,-25,-38,46,-7,-8,8,27,4,-7,4
46,15,-24,-39,45,-6,-8,8,27,5,-6,4
44,16,-23,-38,43,-5,-8,7,26,6,-6,4
43,16,-22,-38,42,-4,-8,7,26,6,-5,4
42,15,-22,-36,41,-5,-8,6,25,8,-5,4
39,14,-20,-34,39,-5,-7,5,25,8,-4,3
38,13,-19,-32,37,-5,-6,5,24,9,-4,3
37,13,-19,-32,36,-4,-6,5,24,10,-4,3
36,13,-18,-31,34,-3,-6,5,23,11,-4,3
33,13,-16,-30,31,-2,-6,5,22,11,-4,3
31,12,-15,-27,30,-3,-5,4,21,11,-4,2
31,10,-16,-26,30,-4,-4,3,21,11,-4,2
29,7,-18,-22,31,-7,-3,3,20,11,-4,1
27,3,-20,-18,31,-10,-3,3,19,11,-4,1
25,1,-20,-15,30,-12,-2,3,19,11,-5,0
24,0,-20,-14,30,-12,-1,3,18,11,-6,0
24,-1,-21,-14,30,-14,-1,2,17,11,-6,0
23,-3,-22,-11,30,-15,-1,1,16,11,-6,-0
21,-3,-21,-10,28,-15,-1,1,15,11,-6,-1
21,-3,-20,-10,27,-14,-1,3,14,11,-6,-1
19,-5,-20,-8,27,-15,-1,5,13,11,-7,-1
18,-6,-20,-6,26,-16,-0,7,12,11,-7,-2
18,-6,-20,-6,26,-16,0,8,12,10,-8,-2
18,-6,-20,-6,26,-16,1,8,12,10,-8,-3
16,-6,-19,-5,24,-16,1,8,11,10,-8,-3
15,-6,-18,-4,23,-15,1,7,10,9,-9,-3
14,-7,-19,-3,23,-16,1,7,10,8,-9,-3
14,-9,-20,-2,24,-17,1,7,9,8,-9,-3
14,-9,-20,-2,24,-18,1,7,9,8,-9,-3
14,-9,-20,-2,24,-18,1,7,8,7,-10,-3
14,-9,-20,-2,24,-18,1,7,8,6,-10,-3
14,-9,-20,-2,24,-18,1,7,8,6,-11,-3
14,-9,-20,-2,24,-18,1,7,8,6,-11,-3
14,-9,-20,-2,24,-18,1,7,8,6,-11,-3
14,-9,-20,-2,24,-18,1,7,8,6,-11,-3
14,-9,-20,-2,24,-18,1,7,8,6,-11,-3
18,-6,-20,-6,26,-16,0,4,9,8,-11,0
22,-2,-20,-11,28,-14,-1,0,11,10,-11,4
23,-1,-20,-13,29,-13,-1,-1,11,11,-11,5
24,-1,-20,-14,30,-13,-1,-2,12,11,-11,6
24,-1,-20,-14,30,-13,-1,-2,12,11,-11,6
24,-1,-20,-14,30,-13,-1,-2,12,11,-11,6
24,-1,-20,-14,30,-13,-1,-2,12,11,-11,6
24,-1,-20,-14,30,-13,-1,-2,12,11,-11,6
24,-1,-20,-14,30,-13,-1,-2,12,11,-11,6
24,-1,-20,-14,30,-13,-1,-2,12,11,-11,6
24,1,-19,-14,29,-12,-1,-2,12,11,-11,6
24,3,-17,-16,27,-9,-1,-2,12,11,-11,6
24,5,-15,-18,26,-7,-1,-2,12,11,-11,6
24,8,-12,-20,24,-3,-1,-2,12,11,-11,6
24,10,-11,-21,23,-1,-1,-2,12,11,-10,6
24,10,-10,-22,22,-1,-1,-2,12,11,-9,6
24,10,-10,-22,22,-1,-1,-2,12,11,-8,6
24,10,-10,-22,22,-1,-1,-2,12,11,-6,6
24,10,-10,-22,22,-1,-1,-2,12,11,-5,6
24,10,-10,-22,22,-1,-1,-2,12,11,-5,6
24,10,-10,-22,22,-1,-1,-2,12,11,-4,6
24,10,-10,-22,22,-1,-1,-2,12,11,-4,6
24,11,-9,-22,21,1,-1,-2,13,12,-4,6
24,14,-7,-24,20,3,-1,-2,14,14,-4,6
24,16,-5,-26,18,6,-1,-2,15,15,-4,6
24,19,-2,-27,16,9,-1,-2,17,17,-4,6
24,21,-1,-29,15,11,-1,-1,18,18,-4,6
24,21,0,-29,14,12,-1,1,19,18,-4,6
24,22,1,-30,14,12,-1,3,19,19,-4,6
24,22,1,-30,14,12,-1,5,19,19,-4,6
24,22,1,-30,14,12,-2,6,19,19,-4,6
24,22,1,-30,14,12,-4,7,19,19,-4,6
24,22,1,-30,14,12,-6,7,19,19,-4,6
24,22,1,-30,14,12,-8,7,19,19,-4,6
24,22,1,-30,14,12,-10,6,19,19,-4,6
24,22,1,-30,14,12,-10,4,19,19,-4,6
24,22,1,-30,14,12,-11,3,19,19,-4,6
24,22,1,-30,14,12,-11,0,19,19,-4,6
24,22,1,-30,14,12,-11,-1,19,19,-4,6
24,22,1,-30,14,12,-11,-1,19,19,-4,6
24,22,1,-30,14,12,-11,-2,19,19,-4,6
24,22,1,-30,14,12,-11,-2,19,19,-4,6
24,22,1,-30,14,12,-11,-2,18,18,-5,6
24,22,1,-30,14,12,-11,-2,17,16,-6,6
24,22,1,-30,14,12,-11,-2,15,15,-8,6
24,22,1,-30,14,12,-11,-2,14,13,-9,6
24,22,1,-30,14,12,-11,-2,13,12,-10,6
24,22,1,-30,14,12,-11,-2,12,12,-10,6
24,22,1,-30,14,12,-11,-2,12,11,-11,6
24,22,1,-30,14,12,-11,-2,12,11,-11,6
24,22,1,-30,14,12,-11,-2,12,11,-11,6
24,22,1,-30,14,12,-11,-2,12,11,-11,6
24,22,1,-30,14,12,-11,-2,12,11,-11,6
24,22,1,-30,14,12,-11,-2,12,11,-11,6
24,22,1,-30,14,12,-11,-2,12,11,-11,6
24,22,1,-30,14,12,-11,-2,12,11,-11,6
24,22,1,-30,14,12,-11,-2,12,11,-11,6
24,22,1,-30,14,12,-11,-2,12,11,-11,6
24,22,1,-30,14,12,-11,-2,12,11,-11,6
24,22,1,-30,14,12,-11,-2,12,11,-11,6
24,22,1,-30,14,12,-11,-2,12,11,-11,6
24,22,1,-30,14,12,-11,-2,12,11,-11,6
24,21,-1,-29,15,11,-10,-2,12,11,-11,6
24,18,-3,-27,17,9,-8,-2,12,9,-11,6
24,16,-5,-26,18,6,-6,-2,12,8,-11,6
24,13,-8,-23,20,3,-3,-2,12,6,-11,6
23,11,-8,-22,20,1,-2,-2,12,5,-11,6
20,11,-6,-19,17,2,-1,-2,12,5,-11,6
18,10,-5,-18,14,3,-1,-2,12,4,-11,6
14,10,-2,-15,11,5,-1,-2,12,4,-11,6
13,10,-1,-14,8,5,-1,-2,12,4,-11,5
12,10,0,-14,8,6,-1,-2,12,4,-11,4
11,10,1,-14,7,6,-1,-2,12,4,-11,3
11,10,1,-14,7,6,-1,-2,12,4,-11,1
11,10,1,-14,6,6,-1,-2,12,4,-11,1
8,10,3,-12,3,7,-1,-2,12,4,-11,0
6,10,5,-10,0,9,-1,-2,12,4,-11,0
3,10,8,-8,-4,10,-1,-2,12,4,-11,0
1,10,10,-7,-6,11,-0,-2,12,4,-11,0
0,10,10,-6,-7,12,1,-2,12,4,-11,0
-1,10,11,-6,-8,12,3,-2,12,4,-11,0
-1,10,11,-6,-8,12,6,-2,12,4,-11,0
-1,10,11,-6,-8,12,7,-2,12,4,-11,0
-1,10,11,-6,-8,12,8,-2,12,4,-11,0
-1,10,11,-6,-8,12,8,-2,12,4,-11,0
-1,10,11,-6,-8,12,8,-2,12,4,-11,0
-1,10,11,-6,-8,12,8,-2,12,4,-11,0
-1,10,11,-6,-8,12,8,-2,12,4,-13,0
-1,10,11,-6,-8,12,8,-2,12,4,-14,0
-1,10,11,-6,-8,12,8,-2,12,4,-16,0
-1,10,11,-6,-8,12,7,-2,12,4,-17,0
-1,10,11,-6,-8,12,5,-2,12,3,-17,0
-1,10,11,-6,-8,12,3,-2,12,1,-17,0
-1,10,11,-6,-8,12,1,-2,12,-1,-17,0
-1,10,11,-6,-8,12,-0,-2,12,-2,-17,0
-1,10,11,-6,-8,12,-1,-2,12,-2,-17,0
-1,10,11,-6,-8,12,-1,-2,12,-3,-17,0
-1,10,11,-6,-8,12,-1,-2,12,-3,-17,0
-1,10,11,-6,-8,12,-1,-2,11,-3,-17,0
-1,10,11,-6,-8,12,-1,-4,10,-5,-17,0
-1,10,11,-6,-8,12,-1,-6,8,-6,-17,0
-1,10,11,-6,-8,12,-1,-8,6,-8,-17,0
-1,10,10,-6,-7,11,-1,-9,5,-9,-17,0
-1,7,8,-4,-5,9,-1,-10,5,-9,-17,0
-1,5,6,-2,-4,6,-1,-10,5,-10,-17,0
-1,2,3,-1,-2,3,-1,-10,5,-10,-17,0
-1,1,2,1,-1,1,-1,-10,5,-10,-17,0
-1,0,1,1,-1,1,-1,-10,5,-10,-15,0
-1,-1,1,2,0,0,-1,-10,5,-10,-14,0
-1,-1,1,2,0,0,-1,-10,5,-10,-12,0
-2,-2,1,3,-1,-1,-1,-10,5,-10,-11,0
-4,-4,1,6,-2,-2,-1,-10,5,-10,-11,0
-7,-6,1,10,-4,-3,-1,-10,5,-10,-11,0
-10,-9,1,14,-6,-5,-1,-10,5,-10,-11,0
-12,-11,1,16,-7,-6,-1,-10,5,-10,-11,0
-13,-11,1,17,-8,-7,-1,-10,5,-10,-11,0
-13,-12,1,18,-8,-7,-1,-10,5,-10,-11,0
-13,-12,1,18,-8,-7,-1,-10,5,-10,-11,0
-13,-11,2,17,-8,-5,-1,-10,4,-10,-11,-0
-13,-9,4,15,-10,-3,-1,-10,3,-10,-11,-1
-13,-6,6,14,-11,0,-1,-10,1,-10,-11,-3
-13,-3,9,11,-14,3,-1,-10,-0,-10,-11,-4
-13,-2,10,10,-14,5,-1,-10,-1,-10,-11,-5
-13,-1,11,10,-15,6,-1,-10,-2,-10,-11,-5
-13,-1,11,10,-15,6,-1,-10,-2,-10,-11,-6
-13,-1,11,10,-15,6,-1,-10,-2,-10,-11,-6
-13,-1,11,10,-15,6,-1,-10,-1,-10,-11,-6
-13,-1,11,10,-15,6,-1,-10,0,-10,-11,-6
-13,-1,11,10,-15,6,-1,-10,1,-10,-11,-6
-13,-1,11,10,-15,6,-1,-10,3,-10,-11,-6
-13,-1,11,10,-15,6,-1,-10,4,-10,-11,-5
-13,-1,11,10,-15,6,-1,-10,5,-10,-11,-4
-13,-1,11,10,-15,6,-1,-10,5,-10,-11,-3
-13,-1,11,10,-15,6,-1,-10,5,-10,-11,-1
-14,-2,11,11,-16,6,-0,-9,5,-10,-11,-0
-17,-4,11,14,-18,5,1,-8,5,-10,-11,0
-19,-6,11,18,-19,3,3,-6,5,-10,-11,0
-23,-9,11,22,-21,1,6,-4,5,-10,-11,0
-24,-11,11,24,-22,1,7,-2,5,-10,-11,0
-25,-11,11,25,-23,0,8,-2,5,-10,-11,0
-26,-12,11,26,-23,0,8,-2,5,-10,-11,0
-26,-12,11,26,-23,0,8,-2,5,-10,-11,0
-26,-12,11,26,-23,0,8,-2,5,-10,-11,0
-26,-12,11,26,-23,0,8,-2,5,-10,-13,0
-26,-12,11,26,-23,0,8,-2,5,-10,-14,0
-26,-12,11,26,-23,0,8,-2,5,-10,-16,0
-26,-12,11,26,-23,0,8,-2,5,-10,-17,0
-26,-12,11,26,-23,0,8,-2,5,-10,-17,0
-26,-12,11,26,-23,0,8,-2,5,-10,-17,0
-26,-12,11,26,-23,0,8,-2,5,-10,-17,0
-26,-12,11,26,-23,0,8,-2,5,-10,-17,0
-26,-12,11,26,-23,0,8,-2,5,-10,-17,0
-26,-12,11,26,-23,0,8,-2,5,-10,-17,0
-26,-12,11,26,-23,0,8,-2,5,-10,-17,0
-26,-12,11,26,-23,0,8,-2,5,-10,-17,-0
-26,-12,11,26,-23,0,8,-4,5,-10,-17,-1
-26,-12,11,26,-23,0,8,-6,5,-10,-17,-3
-26,-12,11,26,-23,0,8,-8,5,-10,-17,-4
-26,-12,11,26,-23,0,7,-9,5,-10,-17,-6
-26,-12,11,26,-23,0,5,-10,5,-10,-17,-7
-26,-12,11,26,-23,0,3,-10,5,-10,-17,-9
-26,-12,11,26,-23,0,1,-10,5,-10,-17,-10
-26,-12,11,26,-23,0,-0,-10,5,-10,-17,-11
-26,-12,11,26,-23,0,-1,-10,5,-10,-17,-11
-26,-12,11,26,-23,0,-1,-10,5,-10,-17,-12
-26,-12,11,26,-23,0,-1,-10,5,-10,-17,-12
-24,-11,11,24,-22,1,-1,-10,5,-10,-17,-12
-22,-9,11,21,-21,2,-1,-10,5,-10,-17,-13
-19,-6,11,18,-19,3,-1,-10,5,-10,-17,-15
-16,-3,11,14,-18,5,-1,-10,5,-10,-17,-16
-14,-2,11,11,-16,6,-1,-10,5,-10,-17,-17
-14,-1,11,10,-16,6,-1,-10,5,-10,-17,-17
-13,-1,11,10,-15,6,-1,-10,5,-10,-17,-18
-13,-1,11,10,-15,6,-1,-10,5,-10,-17,-18
-14,-1,12,10,-17,7,-1,-10,5,-10,-17,-18
-17,-1,15,12,-20,8,-1,-10,5,-10,-17,-18
-19,-1,17,14,-23,9,-1,-10,5,-10,-17,-18
-23,-1,19,15,-27,11,-1,-10,5,-10,-17,-18
-24,-1,21,17,-29,12,-1,-10,5,-10,-17,-18
-25,-1,22,17,-30,12,-1,-10,5,-10,-17,-19
-26,-1,22,18,-30,12,-1,-10,5,-10,-17,-21
-26,-1,22,18,-30,12,-1,-10,5,-10,-17,-22
-26,-1,22,18,-30,12,-1,-10,5,-10,-17,-23
-26,-1,22,18,-30,12,-1,-10,5,-10,-17,-23
-26,-1,22,18,-30,12,-1,-10,5,-10,-17,-24
-26,-1,22,18,-30,12,-1,-10,5,-10,-17,-24
-26,-2,21,18,-30,11,-0,-10,5,-10,-17,-24
-26,-4,19,20,-28,9,1,-10,5,-10,-17,-24
-26,-6,17,22,-27,6,3,-10,5,-10,-17,-24
-26,-9,14,23,-25,3,6,-10,5,-10,-17,-24
-26,-11,12,25,-24,1,7,-10,5,-10,-17,-24
-26,-11,12,25,-24,1,8,-10,5,-10,-17,-24
-26,-12,11,26,-23,0,8,-10,5,-10,-17,-24
-26,-12,11,26,-23,0,8,-10,5,-10,-17,-24
-26,-12,11,26,-23,0,8,-10,5,-10,-17,-24
-26,-12,11,26,-23,0,8,-10,5,-10,-17,-24
-26,-12,11,26,-23,0,8,-10,5,-10,-17,-24
-26,-12,11,26,-23,0,8,-10,5,-10,-17,-24
-26,-12,11,26,-23,0,7,-10,5,-10,-17,-24
-26,-12,11,26,-23,0,5,-10,5,-10,-17,-24
-26,-12,11,26,-23,0,3,-10,5,-10,-17,-24
-26,-12,11,26,-23,0,1,-10,5,-10,-17,-24
-26,-12,11,26,-23,0,-0,-10,5,-10,-17,-24
-26,-12,11,26,-23,0,-1,-10,5,-10,-17,-24
-26,-12,11,26,-23,0,-1,-10,5,-10,-17,-24
-26,-12,11,26,-23,0,-1,-10,5,-10,-17,-24
-26,-12,11,26,-23,0,-0,-10,4,-10,-17,-24
-26,-12,11,26,-23,0,1,-10,3,-12,-17,-24
-26,-12,11,26,-23,0,3,-10,1,-13,-17,-24
-26,-12,11,26,-23,0,5,-10,0,-14,-17,-24
-26,-12,11,26,-23,0,5,-10,0,-15,-17,-24
-26,-12,11,26,-23,0,6,-10,-0,-15,-17,-24
-26,-12,11,26,-23,0,6,-10,-0,-15,-17,-24
-26,-12,11,26,-23,0,6,-10,-0,-15,-17,-24
-26,-12,11,26,-23,0,6,-10,-0,-15,-17,-24
-23,-5,15,18,-24,6,4,-10,-0,-12,-16,-21
-18,3,19,10,-24,13,2,-10,-0,-8,-13,-19
-17,6,21,7,-24,16,1,-10,-0,-7,-13,-18
-16,7,22,6,-24,17,1,-10,-0,-6,-12,-18
-16,9,23,5,-25,18,1,-10,-0,-6,-12,-18
-16,10,24,4,-27,20,1,-10,0,-6,-12,-18
-15,11,24,2,-26,21,1,-10,1,-5,-12,-17
-14,14,25,0,-26,23,1,-10,2,-5,-12,-16
-13,16,27,-2,-27,25,0,-10,3,-4,-11,-16
-13,19,30,-4,-29,28,-1,-10,4,-3,-10,-15
-12,22,31,-7,-29,31,-1,-10,5,-2,-9,-14
-11,25,33,-10,-30,33,-1,-9,7,-1,-8,-13
-10,26,34,-11,-30,35,-1,-8,10,-0,-6,-12
-9,28,35,-14,-30,37,-2,-6,12,1,-4,-12
-8,30,36,-16,-30,39,-3,-4,15,3,-2,-11
-7,33,38,-18,-30,41,-3,-2,17,4,-0,-10
-7,35,39,-19,-32,43,-4,-2,18,5,0,-10
-7,37,41,-21,-33,45,-5,-2,19,6,1,-9
-7,38,43,-22,-34,47,-6,-4,19,6,1,-9
-6,40,43,-23,-34,48,-8,-6,19,8,1,-9
-4,41,43,-26,-33,49,-10,-9,19,8,1,-8
-4,42,43,-26,-33,50,-11,-12,18,9,1,-7
-3,42,42,-27,-31,49,-13,-15,18,10,1,-7
-1,42,41,-28,-30,48,-16,-18,16,10,1,-7
-1,42,40,-28,-29,48,-17,-20,14,12,1,-7
1,42,39,-29,-27,47,-19,-21,11,13,1,-6
3,42,37,-30,-24,46,-20,-22,8,15,1,-6
5,42,36,-32,-22,45,-22,-23,5,16,1,-6
6,42,35,-33,-21,45,-23,-24,3,15,1,-5
8,42,33,-34,-18,43,-25,-25,1,15,1,-4
9,42,32,-34,-17,43,-25,-26,-1,13,0,-4
12,42,30,-36,-14,41,-26,-28,-2,12,-1,-4
14,42,28,-38,-11,41,-27,-28,-4,11,-1,-4
14,42,28,-38,-11,40,-28,-28,-6,10,-1,-4
16,42,26,-38,-9,39,-28,-28,-7,9,-1,-4
17,42,25,-39,-8,39,-28,-29,-8,8,-2,-4
18,42,25,-40,-7,39,-28,-30,-9,8,-2,-4
19,42,24,-41,-5,38,-28,-30,-11,7,-3,-3
20,42,23,-42,-4,37,-28,-30,-12,6,-3,-3
19,42,23,-41,-5,37,-28,-30,-13,6,-3,-3
17,42,25,-39,-8,39,-27,-30,-13,4,-3,-3
14,42,28,-38,-11,40,-26,-30,-14,3,-3,-3
11,42,30,-36,-14,42,-25,-30,-15,1,-2,-2
9,42,32,-34,-17,43,-25,-30,-15,0,-1,-1
9,42,32,-34,-18,43,-24,-30,-15,-0,-1,-1
8,42,33,-34,-19,44,-23,-30,-15,-1,-1,-1
5,41,35,-31,-21,44,-22,-30,-15,-1,-1,-1
3,38,35,-28,-23,43,-21,-30,-15,-1,-2,-2
-1,36,35,-24,-25,41,-20,-30,-15,-1,-2,-4
-4,33,35,-20,-27,40,-18,-30,-15,-3,-3,-7
-8,30,36,-15,-30,39,-16,-29,-15,-4,-4,-9
-13,28,37,-10,-34,38,-13,-28,-15,-4,-5,-11
-16,24,37,-6,-36,35,-11,-26,-14,-5,-6,-13
-19,20,36,-1,-37,32,-8,-25,-13,-6,-8,-15
-23,15,35,4,-38,29,-6,-24,-13,-8,-9,-16
-24,11,32,9,-37,25,-3,-23,-13,-10,-11,-18
-25,8,30,11,-36,22,-2,-22,-13,-11,-13,-19
-26,5,28,14,-35,20,-1,-21,-13,-13,-15,-21
-29,2,28,18,-37,18,0,-20,-13,-14,-16,-22
-32,-2,26,22,-37,14,1,-18,-14,-15,-18,-24
-34,-7,23,27,-37,10,3,-15,-14,-17,-19,-25
-34,-12,19,31,-34,5,5,-12,-15,-18,-21,-26
-35,-17,15,34,-31,-1,5,-8,-15,-19,-22,-27
-35,-20,12,37,-29,-5,6,-7,-15,-20,-23,-28
-35,-22,10,38,-27,-7,7,-6,-15,-20,-24,-29
-36,-24,9,41,-28,-9,8,-6,-15,-21,-24,-29
-38,-26,9,42,-28,-10,8,-6,-15,-22,-25,-30
-38,-25,10,42,-30,-9,8,-6,-15,-22,-25,-31
-38,-23,12,41,-31,-6,9,-6,-15,-22,-25,-31
-39,-21,15,41,-34,-3,10,-6,-15,-23,-26,-31
-41,-20,17,41,-36,-1,10,-6,-16,-24,-27,-31
-41,-18,19,40,-38,1,9,-6,-16,-26,-27,-32
-41,-19,18,40,-37,0,9,-6,-15,-27,-28,-32
-41,-20,17,41,-37,-1,10,-6,-15,-27,-29,-32
-41,-21,17,42,-37,-2,11,-6,-15,-28,-29,-32
-43,-22,17,43,-37,-3,12,-6,-15,-28,-29,-32
-45,-23,18,46,-40,-3,13,-6,-15,-28,-29,-32
-47,-24,19,47,-41,-2,13,-6,-15,-28,-29,-32
-48,-25,18,48,-41,-3,13,-5,-15,-28,-29,-32
-48,-26,17,49,-40,-5,13,-3,-15,-27,-29,-32
-48,-24,19,48,-42,-3,13,-2,-15,-26,-29,-33
-46,-22,20,46,-42,-1,13,-2,-14,-25,-29,-34
-45,-21,19,44,-40,-1,13,-2,-13,-23,-29,-34
-47,-24,19,47,-41,-2,15,-2,-13,-23,-29,-34
-49,-25,20,50,-43,-2,18,-2,-11,-24,-29,-34
-51,-21,25,48,-48,3,20,-2,-10,-24,-29,-34
-58,-21,30,52,-56,6,20,0,-6,-24,-32,-37
-61,-30,25,60,-54,-2,28,7,-1,-23,-34,-39
-67,-30,30,64,-62,1,33,12,6,-21,-36,-42
-95,-41,44,91,-88,3,30,21,15,-21,-37,-45
-79,-44,28,83,-67,-9,42,32,35,-15,-37,-48
-67,-44,17,75,-52,-15,57,38,44,-6,-37,-45
-70,-41,22,75,-58,-10,64,47,51,-1,-36,-45
-70,-30,33,67,-66,3,64,59,49,8,-27,-40
-58,2,52,36,-71,32,67,63,58,24,-16,-36
-54,13,60,26,-75,43,69,70,76,44,2,-27
-45,19,57,16,-68,45,69,74,87,60,13,-21
-36,30,60,2,-64,53,62,74,87,72,25,-13
-14,45,54,-22,-46,58,50,74,100,94,48,3
18,68,49,-58,-24,68,28,63,96,120,69,25
64,96,36,-108,14,76,-1,50,87,149,100,52
102,111,17,-142,50,73,-33,32,75,169,128,79
143,137,6,-186,83,81,-60,7,57,190,154,110
177,162,1,-226,107,92,-89,-20,33,210,177,131
224,191,-13,-276,146,101,-121,-38,8,231,200,153
261,206,-32,-310,182,98,-158,-71,-35,231,214,171
293,206,-59,-330,220,81,-182,-96,-71,231,223,179
333,206,-94,-356,270,60,-204,-116,-108,220,223,188
361,206,-118,-374,304,45,-233,-138,-151,195,219,195
368,185,-142,-364,325,19,-240,-156,-187,158,195,186
355,154,-161,-334,331,-10,-236,-161,-214,99,154,168
311,119,-156,-282,300,-27,-219,-163,-246,29,98,144
268,105,-132,-244,256,-20,-194,-163,-255,-39,46,110
224,91,-107,-206,213,-14,-172,-167,-259,-80,8,86
183,99,-64,-186,157,17,-155,-172,-266,-112,-13,65
143,85,-43,-150,117,22,-140,-181,-266,-140,-34,52
96,94,6,-126,54,56,-126,-178,-263,-140,-37,43
61,88,30,-100,16,68,-109,-169,-245,-135,-44,36
27,88,60,-78,-26,86,-92,-152,-228,-135,-47,27
2,79,73,-56,-50,89,-72,-138,-207,-126,-47,19
-17,62,73,-32,-62,79,-58,-129,-187,-123,-47,13
-29,53,76,-18,-72,76,-45,-116,-176,-130,-54,4
-42,39,73,0,-77,66,-33,-100,-157,-130,-57,-4
-51,5,49,30,-66,32,-21,-85,-146,-123,-58,-19
-58,-13,38,46,-62,16,-6,-64,-132,-110,-58,-22
-61,-13,41,48,-66,17,3,-44,-112,-99,-57,-25
-61,5,57,36,-77,37,11,-33,-101,-87,-60,-27
-61,10,63,32,-81,43,18,-26,-85,-73,-52,-27
-48,10,52,24,-66,37,23,-26,-69,-62,-47,-27
-48,19,60,18,-72,46,23,-17,-51,-51,-42,-25
-54,2,49,34,-67,30,23,-13,-38,-42,-36,-24
-45,2,41,28,-56,26,23,-8,-28,-44,-32,-21
-39,-4,30,28,-44,16,20,-6,-22,-42,-31,-19
-35,2,33,22,-44,21,20,-4,-19,-40,-30,-20
-33,3,32,19,-43,21,20,-2,-17,-39,-31,-22
-33,3,32,20,-42,20,20,-2,-17,-38,-33,-25
-38,2,35,23,-46,22,20,-3,-16,-36,-33,-28
-43,-3,35,30,-50,19,20,-4,-16,-35,-34,-30
-46,-6,35,34,-52,17,18,-4,-14,-34,-34,-31
-48,-9,33,38,-53,14,16,-4,-13,-33,-33,-31
-50,-14,31,42,-52,10,13,-5,-10,-33,-31,-32
-49,-15,29,43,-50,8,12,-6,-8,-32,-31,-32
-48,-14,29,42,-49,9,12,-4,-5,-30,-30,-31
-47,-13,29,39,-49,10,14,0,-3,-28,-29,-31
-44,-14,25,39,-44,7,15,2,-1,-26,-30,-32
-43,-15,23,38,-41,5,16,2,-1,-25,-31,-33
-43,-14,24,38,-42,6,16,3,-0,-24,-32,-34
-44,-12,27,37,-45,9,16,2,-0,-23,-32,-34
-44,-9,30,35,-48,12,16,1,-0,-22,-32,-34
-44,-7,32,34,-49,14,16,0,-0,-23,-31,-34
-44,-7,32,34,-50,15,16,-2,-0,-24,-31,-34
-44,-7,32,34,-49,14,16,-4,-0,-26,-30,-34
-44,-9,31,35,-48,13,16,-6,-0,-27,-30,-34
-44,-10,30,36,-47,12,16,-7,0,-27,-30,-33
-44,-12,28,38,-46,9,16,-6,1,-28,-30,-32
-44,-15,25,39,-44,6,16,-6,1,-28,-29,-31
-44,-17,23,41,-43,5,16,-6,2,-27,-29,-29
-44,-17,23,41,-43,4,16,-5,3,-25,-28,-28
-44,-18,22,42,-42,3,16,-4,3,-24,-27,-27
-44,-18,22,42,-42,3,16,-4,3,-24,-25,-27
-44,-18,22,42,-42,3,16,-4,3,-23,-23,-26
-46,-19,22,43,-43,3,16,-4,3,-22,-21,-26
-47,-20,22,45,-43,2,16,-4,3,-22,-21,-26
-48,-21,22,46,-44,1,16,-4,3,-22,-21,-26
-48,-21,22,46,-44,1,16,-4,4,-22,-21,-26
-48,-21,22,46,-44,1,16,-4,5,-22,-21,-27
-48,-21,22,46,-44,1,16,-4,5,-22,-21,-28
-48,-21,22,46,-44,1,17,-4,5,-21,-21,-29
-48,-20,23,45,-45,3,18,-3,5,-21,-21,-30
-48,-18,24,44,-46,4,18,-3,5,-20,-21,-31
-48,-18,25,43,-46,5,18,-4,6,-20,-21,-31
-48,-18,25,43,-46,5,18,-6,6,-20,-21,-31
-48,-18,25,43,-46,5,18,-8,6,-20,-21,-31
-48,-18,25,43,-46,5,18,-9,6,-20,-21,-31
-48,-18,25,43,-46,5,18,-10,6,-20,-21,-31
-48,-18,25,43,-46,5,18,-10,6,-20,-21,-31
-48,-18,25,43,-46,5,18,-10,7,-20,-21,-31
-46,-18,24,42,-44,4,18,-9,8,-20,-20,-30
-43,-17,22,40,-41,4,18,-8,8,-20,-19,-29
-39,-15,19,36,-37,3,17,-8,8,-20,-19,-28
-35,-15,17,34,-33,1,16,-8,8,-19,-19,-26
-33,-15,15,32,-30,1,16,-8,8,-19,-19,-26
-33,-15,15,32,-30,0,16,-8,8,-19,-19,-25
-32,-15,14,31,-29,0,16,-8,8,-19,-19,-25
-32,-15,14,31,-29,0,16,-8,9,-19,-19,-25
-32,-16,13,32,-28,-1,16,-8,10,-18,-18,-24
-32,-18,11,34,-27,-4,16,-8,10,-17,-18,-24
-32,-21,9,35,-25,-7,16,-8,10,-17,-17,-24
-31,-24,5,37,-21,-10,16,-8,10,-17,-17,-24
-29,-25,2,37,-19,-13,16,-8,11,-17,-17,-24
-29,-26,1,37,-18,-14,16,-8,11,-17,-17,-24
-29,-26,1,38,-18,-15,16,-8,12,-16,-17,-24
-29,-26,1,38,-18,-15,16,-8,12,-15,-17,-24
-30,-26,2,38,-19,-14,17,-8,13,-15,-16,-23
-33,-26,4,40,-22,-13,19,-8,14,-15,-16,-22
-35,-26,6,42,-25,-12,20,-8,16,-15,-16,-21
-38,-26,9,43,-29,-10,23,-8,19,-14,-16,-18
-40,-26,10,45,-31,-9,24,-7,20,-14,-16,-17
-41,-26,11,45,-32,-9,25,-5,20,-13,-16,-16
-41,-26,11,46,-33,-9,25,-3,21,-13,-15,-16
-41,-26,11,46,-33,-9,25,0,22,-13,-14,-16
-39,-26,10,44,-30,-9,25,2,23,-13,-14,-16
-36,-28,6,43,-26,-12,25,2,23,-13,-14,-16
-36,-30,3,44,-24,-15,25,3,23,-12,-14,-16
-35,-32,1,46,-21,-18,25,3,23,-11,-14,-16
-35,-34,-1,47,-20,-20,24,3,24,-11,-13,-16
-35,-34,-2,47,-20,-21,23,3,24,-11,-13,-15
-35,-35,-2,48,-19,-22,23,3,24,-10,-12,-15
-35,-35,-2,48,-19,-22,23,3,25,-10,-12,-15
-35,-35,-2,48,-19,-22,23,3,26,-9,-12,-15
-34,-34,-2,46,-18,-21,23,3,26,-8,-10,-15
-33,-33,-2,45,-18,-20,23,3,27,-5,-8,-15
-32,-32,-2,44,-18,-20,23,3,28,-3,-6,-14
-32,-32,-2,44,-18,-20,23,3,28,-1,-5,-13
-32,-32,-2,44,-18,-20,22,4,28,-0,-4,-13
-31,-31,-2,42,-17,-19,21,4,29,1,-3,-13
-29,-30,-2,41,-16,-18,20,5,29,1,-3,-13
-29,-29,-2,40,-15,-18,20,5,30,1,-3,-13
-29,-29,-2,40,-15,-18,20,5,30,1,-2,-12
-28,-28,-2,38,-14,-18,20,5,31,2,-1,-12
-26,-27,-2,37,-14,-17,20,5,32,3,-1,-12
-25,-26,-3,35,-13,-17,20,5,32,3,-1,-11
-21,-26,-6,33,-8,-19,20,5,33,3,-0,-10
-17,-26,-10,30,-3,-21,19,5,33,3,0,-10
-13,-25,-12,27,1,-22,18,6,34,3,1,-10
-10,-24,-13,24,4,-22,16,7,35,3,1,-10
-8,-24,-15,22,6,-22,16,7,35,3,1,-10
-6,-24,-16,22,8,-24,15,7,36,3,1,-9
-4,-24,-18,20,11,-24,14,7,37,4,1,-9
-4,-22,-17,19,11,-24,13,7,37,4,2,-9
-4,-21,-16,18,10,-22,13,7,37,4,2,-9
-3,-21,-17,17,11,-22,12,7,38,4,2,-9
-1,-21,-18,16,12,-23,11,7,38,4,2,-8
0,-21,-19,15,14,-24,11,7,39,4,2,-7
2,-21,-20,14,16,-24,11,7,39,4,2,-7
3,-21,-21,14,17,-25,10,7,40,4,2,-7
4,-20,-21,12,18,-24,9,7,41,5,3,-7
5,-18,-21,10,18,-24,8,7,40,6,3,-6
6,-18,-22,10,20,-24,8,7,39,6,4,-6
8,-18,-23,8,22,-24,8,7,38,6,4,-6
9,-18,-24,8,23,-25,7,7,37,6,4,-6
10,-18,-25,7,24,-26,6,7,36,5,4,-5
11,-18,-26,6,26,-26,6,7,36,4,4,-4
11,-18,-26,6,26,-26,6,7,35,3,4,-4
13,-18,-27,6,27,-27,5,7,36,1,4,-4
14,-18,-28,5,29,-27,4,7,37,-1,4,-4
14,-18,-29,4,30,-27,3,7,37,-2,4,-2
16,-18,-30,3,31,-28,3,7,37,-2,4,0
17,-18,-31,2,33,-29,2,7,37,-3,4,1
18,-18,-31,2,34,-29,1,7,37,-3,4,2
18,-18,-31,2,34,-29,1,7,37,-3,4,3
18,-18,-31,2,34,-29,1,7,37,-3,4,3
19,-18,-32,2,35,-30,1,7,37,-4,5,3
20,-19,-35,2,37,-32,1,7,37,-4,5,4
21,-20,-37,2,40,-34,1,7,36,-4,5,4
23,-21,-39,1,43,-36,1,7,36,-4,5,4
24,-24,-42,2,45,-39,0,7,35,-4,5,4
25,-25,-45,2,47,-42,-1,6,35,-4,5,5
26,-26,-46,2,50,-43,-1,5,35,-4,5,6
27,-26,-47,2,50,-44,-1,5,35,-4,5,6
27,-26,-47,2,50,-44,-2,5,34,-4,5,6
28,-25,-47,0,51,-43,-3,5,34,-4,5,6
29,-21,-45,-3,50,-39,-3,5,33,-4,6,7
30,-18,-42,-6,49,-36,-3,5,33,-4,7,7
30,-15,-39,-8,46,-33,-3,5,33,-4,7,7
31,-13,-39,-10,47,-31,-4,4,33,-4,7,7
33,-13,-39,-11,48,-31,-5,3,32,-4,7,7
33,-12,-39,-12,49,-31,-6,3,32,-4,7,7
33,-12,-39,-12,49,-31,-6,3,32,-4,7,7
33,-12,-39,-12,49,-31,-6,3,32,-4,7,8
33,-12,-39,-12,49,-31,-7,3,32,-4,8,9
34,-11,-39,-14,50,-30,-8,3,31,-3,8,9
36,-10,-39,-15,50,-29,-8,3,30,-2,8,9
36,-9,-39,-16,50,-29,-8,2,30,-1,8,9
36,-9,-39,-16,50,-29,-8,1,30,2,9,10
36,-9,-39,-16,50,-29,-8,0,29,4,10,10
36,-9,-39,-16,50,-29,-8,0,28,7,10,10
35,-9,-38,-15,49,-29,-8,0,28,9,11,10
34,-9,-37,-14,47,-28,-8,0,28,10,12,10
33,-8,-36,-14,46,-26,-8,-0,27,11,12,10
33,-7,-35,-15,45,-25,-8,-1,27,12,13,10
32,-6,-33,-15,43,-24,-8,-2,26,13,13,10
31,-6,-32,-14,42,-23,-8,-2,26,14,14,10
29,-7,-32,-13,41,-24,-8,-2,25,15,15,10
27,-9,-31,-10,39,-24,-7,-3,25,15,15,9
25,-9,-30,-9,37,-24,-6,-4,24,16,15,9
24,-9,-29,-8,36,-23,-6,-4,24,17,15,9
23,-9,-28,-7,34,-22,-6,-4,23,18,15,9
21,-9,-26,-6,31,-21,-6,-4,22,19,15,9
19,-9,-24,-5,29,-20,-5,-4,21,19,15,8
18,-9,-24,-4,28,-20,-4,-5,21,19,15,8
17,-10,-24,-2,27,-20,-3,-6,20,19,15,7
14,-11,-23,0,25,-20,-3,-6,19,19,15,7
13,-12,-22,2,24,-20,-2,-6,19,19,14,6
12,-12,-21,2,23,-20,-1,-6,18,19,14,6
11,-13,-22,3,23,-21,-1,-7,17,19,13,6
11,-14,-22,4,23,-22,-1,-8,16,19,13,5
9,-15,-22,6,21,-22,-1,-8,15,19,13,4
9,-15,-21,6,21,-22,-1,-8,14,19,13,3
8,-16,-21,7,20,-22,-1,-8,13,19,13,1
6,-17,-21,9,19,-23,-0,-8,12,18,12,-0
6,-18,-21,10,19,-23,0,-8,12,17,11,-2
6,-18,-21,10,19,-23,1,-9,12,17,10,-2
4,-18,-20,10,18,-22,1,-10,11,17,8,-3
3,-18,-19,11,16,-22,1,-10,10,16,6,-3
3,-19,-19,13,16,-23,1,-11,10,15,4,-3
3,-20,-20,14,17,-24,1,-13,9,15,4,-3
3,-21,-21,14,17,-25,1,-15,9,15,4,-3
3,-21,-21,14,17,-25,1,-17,8,14,3,-3
3,-21,-21,14,17,-25,1,-18,8,14,2,-3
3,-21,-21,14,17,-25,1,-19,8,13,2,-3
3,-21,-21,14,17,-25,1,-19,8,13,2,-3
3,-21,-21,14,17,-25,1,-19,8,13,2,-3
3,-21,-21,14,17,-25,1,-19,8,13,2,-3
3,-21,-21,14,17,-25,1,-19,8,13,2,-3
-3,-22,-18,18,11,-24,0,-19,9,13,2,-2
-9,-23,-13,23,4,-21,-1,-19,11,12,2,-0
-12,-24,-11,25,2,-20,-1,-19,11,11,2,0
-13,-24,-11,26,1,-20,-1,-19,12,11,2,0
-13,-24,-10,26,0,-20,-1,-19,12,11,2,0
-13,-24,-10,26,0,-20,-1,-19,12,11,2,0
-13,-24,-10,26,0,-20,-1,-19,12,11,2,0
-13,-24,-10,26,0,-20,-1,-19,12,11,2,0
-13,-24,-10,26,0,-20,-1,-19,12,11,2,0
-13,-24,-10,26,0,-20,-1,-19,12,11,2,0
-13,-22,-9,25,-1,-18,-2,-19,12,12,2,0
-13,-20,-7,23,-2,-16,-4,-19,12,14,2,0
-13,-18,-5,22,-4,-13,-6,-19,12,15,2,0
-13,-15,-2,20,-6,-10,-8,-19,12,17,2,0
-13,-13,-1,18,-7,-8,-10,-19,12,18,3,0
-13,-13,0,18,-8,-7,-10,-19,12,18,4,0
-13,-12,1,18,-8,-7,-11,-19,12,19,5,0
-13,-12,1,18,-8,-7,-11,-19,12,19,7,0
-13,-12,1,18,-8,-7,-11,-19,12,19,8,0
-13,-12,1,18,-8,-7,-11,-19,12,19,8,0
-13,-12,1,18,-8,-7,-11,-19,12,19,8,0
-13,-12,1,18,-8,-7,-11,-19,12,19,8,0
-13,-12,1,18,-8,-7,-10,-19,12,19,8,1
-13,-12,1,18,-8,-7,-8,-19,12,19,8,2
-13,-12,1,18,-8,-7,-6,-19,12,19,8,3
-13,-12,1,18,-8,-7,-3,-19,12,19,8,4
-13,-12,1,18,-8,-7,-2,-19,12,19,8,5
-13,-12,1,18,-8,-7,-1,-19,12,19,8,6
-13,-12,1,18,-8,-7,-1,-19,12,19,8,6
-13,-12,1,18,-8,-7,-1,-19,12,19,8,6
-12,-12,-1,17,-6,-7,-1,-19,12,19,8,6
-9,-12,-3,15,-3,-9,-1,-19,12,19,8,6
-7,-12,-5,14,0,-10,-1,-19,12,19,8,6
-4,-12,-8,12,4,-12,-1,-19,12,19,8,6
-1,-11,-9,9,7,-12,-1,-19,12,19,8,6
3,-9,-10,6,9,-11,-1,-19,12,19,8,6
6,-6,-10,2,11,-10,-1,-19,12,19,8,6
9,-3,-10,-2,13,-9,-1,-19,12,19,8,6
11,-2,-10,-5,14,-7,-1,-19,12,19,8,6
11,-1,-10,-6,14,-7,-1,-19,12,19,8,6
11,-1,-10,-6,14,-7,-1,-19,12,19,8,6
11,-1,-10,-6,14,-7,-1,-19,12,19,8,6
11,-1,-9,-6,14,-6,-1,-19,12,19,8,6
8,-1,-7,-4,11,-5,-1,-19,12,19,7,6
6,-1,-5,-2,8,-3,-1,-19,12,19,5,6
3,-1,-2,0,4,-2,-1,-19,12,19,4,6
1,-1,-1,1,2,-1,-1,-19,12,19,3,6
0,-1,0,2,1,-1,-1,-19,12,19,2,6
-1,-1,1,2,0,0,-1,-19,12,19,2,6
-1,-1,1,2,0,0,-1,-19,12,19,2,6
-1,-1,1,2,0,0,-1,-18,12,19,2,6
-1,-1,1,2,0,0,-1,-17,12,19,2,6
-1,-1,1,2,0,0,-1,-15,12,19,2,6
-1,-1,1,2,0,0,-1,-13,12,19,2,6
-1,-2,-1,2,1,-1,-1,-11,12,19,2,6
-1,-4,-3,4,2,-4,-1,-11,12,19,0,6
-1,-6,-5,6,4,-7,-1,-10,12,19,-1,6
-1,-9,-8,8,5,-10,-1,-10,12,19,-3,6
-1,-11,-9,9,7,-12,-1,-9,12,19,-4,5
-1,-11,-10,10,7,-12,-1,-8,12,19,-4,4
-1,-12,-10,10,8,-13,-1,-6,12,19,-4,3
-1,-12,-10,10,8,-13,-1,-4,12,19,-4,1
-1,-12,-10,10,8,-13,-1,-2,12,19,-4,1
-1,-12,-10,10,8,-13,-1,-2,12,19,-4,0
-1,-12,-10,10,8,-13,-1,-2,12,19,-4,0
-1,-12,-10,10,8,-13,-1,-2,12,19,-4,0
-1,-12,-10,10,8,-13,-1,-2,12,18,-4,-0
-1,-12,-10,10,8,-13,-1,-2,12,16,-4,-1
-1,-12,-10,10,8,-13,-1,-2,12,15,-4,-3
-1,-12,-10,10,8,-13,-1,-2,12,13,-4,-4
-2,-12,-9,10,6,-12,-1,-2,12,12,-5,-5
-4,-12,-7,12,3,-11,-1,-2,12,12,-6,-5
-7,-12,-5,14,0,-10,-1,-2,12,11,-8,-6
-10,-12,-2,16,-4,-9,-1,-2,12,11,-9,-6
-12,-12,-1,17,-6,-7,-1,-2,12,11,-10,-6
-13,-12,0,18,-7,-7,-1,-2,12,11,-10,-6
-13,-12,1,18,-8,-7,-1,-2,12,11,-11,-6
-13,-12,1,18,-8,-7,-1,-2,12,11,-11,-6
-13,-12,1,18,-8,-7,-1,-2,11,11,-11,-6
-13,-12,1,18,-8,-7,-1,-2,10,11,-11,-7
-13,-12,1,18,-8,-7,-1,-2,8,11,-11,-9
-13,-12,1,18,-8,-7,-1,-2,6,11,-11,-10
-13,-12,1,18,-8,-7,-1,-2,5,11,-11,-11
-13,-12,1,18,-8,-7,-1,-2,3,9,-11,-11
-13,-12,1,18,-8,-7,-1,-2,1,8,-11,-12
-13,-12,1,18,-8,-7,-1,-2,-0,6,-11,-12
-13,-12,1,18,-8,-7,-1,-2,-1,5,-11,-12
-13,-12,1,18,-8,-7,-1,-2,-2,5,-11,-12
-13,-12,1,18,-8,-7,-1,-2,-2,4,-11,-12
-13,-12,1,18,-8,-7,-1,-2,-2,4,-11,-12
-13,-12,1,18,-8,-7,-1,-2,-2,4,-11,-12
-13,-12,1,18,-8,-7,-1,-2,-2,4,-11,-12
-13,-12,1,18,-8,-7,-1,-2,-2,4,-11,-12
-13,-12,1,18,-8,-7,-1,-2,-2,4,-11,-12
-13,-12,1,18,-8,-7,-1,-2,-2,4,-11,-12
-13,-12,1,18,-8,-7,-1,-2,-2,4,-11,-12
-13,-12,1,18,-8,-7,-1,-2,-2,4,-11,-12
-13,-12,1,18,-8,-7,-1,-2,-2,4,-11,-12
-13,-12,1,18,-8,-7,-1,-2,-2,4,-11,-12
-13,-12,1,18,-8,-7,-1,-2,-2,4,-11,-12
-13,-12,1,18,-8,-7,-1,-2,-2,4,-11,-12
-13,-12,1,18,-8,-7,-1,-2,-2,4,-11,-12
-13,-12,1,18,-8,-7,-1,-2,-2,4,-11,-12
-13,-12,1,18,-8,-7,-1,-2,-2,4,-11,-12
-13,-12,1,18,-8,-7,-1,-2,-2,4,-11,-12
-13,-12,1,18,-8,-7,-1,-2,-2,4,-11,-12
-13,-12,1,18,-8,-7,-1,-2,-2,4,-11,-12
-13,-12,1,18,-8,-7,-1,-2,-2,4,-11,-12
-13,-12,1,18,-8,-7,-1,-2,-2,4,-11,-12
-13,-12,1,18,-8,-7,-1,-2,-2,4,-11,-12
-13,-12,1,18,-8,-7,-1,-2,-3,4,-11,-12
-13,-12,1,18,-8,-7,-1,-2,-4,4,-11,-12
-13,-12,1,18,-8,-7,-1,-2,-6,4,-11,-12
-13,-12,1,18,-8,-7,-1,-2,-8,4,-11,-12
-13,-12,1,18,-8,-7,-1,-2,-9,4,-11,-12
-13,-12,1,18,-8,-7,-1,-2,-9,4,-13,-12
-13,-12,1,18,-8,-7,-1,-2,-9,4,-14,-12
-13,-12,1,18,-8,-7,-1,-2,-9,4,-16,-12
-13,-12,1,18,-8,-7,-2,-2,-9,4,-17,-12
-13,-12,1,18,-8,-7,-4,-2,-9,3,-17,-12
-13,-12,1,18,-8,-7,-6,-2,-9,1,-17,-12
-13,-12,1,18,-8,-7,-8,-2,-9,-1,-17,-12
-13,-13,-1,18,-7,-8,-10,-2,-9,-2,-17,-12
-13,-15,-3,20,-5,-10,-10,-2,-9,-2,-17,-12
-13,-18,-5,22,-4,-13,-11,-2,-9,-3,-17,-12
-13,-21,-8,24,-2,-16,-11,-2,-9,-3,-17,-12
-13,-22,-9,25,-1,-18,-11,-2,-9,-3,-17,-12
-13,-23,-10,26,-1,-19,-11,-2,-9,-3,-17,-12
-13,-24,-10,26,0,-20,-11,-2,-9,-3,-17,-12
-13,-24,-10,26,0,-20,-11,-2,-9,-3,-17,-12
-13,-24,-10,26,0,-20,-11,-2,-9,-3,-17,-12
-13,-24,-10,26,0,-20,-11,-2,-9,-3,-17,-12
-13,-24,-10,26,0,-20,-11,-2,-9,-3,-17,-12
-13,-24,-10,26,0,-20,-11,-2,-9,-3,-17,-12
-13,-24,-10,26,0,-20,-10,-2,-9,-3,-17,-12
-13,-24,-10,26,0,-20,-8,-2,-9,-3,-17,-12
-13,-24,-10,26,0,-20,-6,-2,-9,-3,-17,-12
-13,-24,-10,26,0,-20,-3,-2,-9,-3,-17,-12
-14,-24,-9,26,-2,-19,-2,-2,-9,-3,-17,-12
-17,-24,-7,28,-5,-18,-1,-2,-9,-5,-17,-12
-19,-24,-5,30,-8,-16,-1,-2,-9,-6,-17,-12
-23,-24,-2,32,-11,-15,-1,-2,-9,-8,-17,-12
-24,-24,-1,33,-14,-14,-2,-2,-9,-9,-17,-12
-25,-24,0,34,-14,-14,-4,-2,-9,-9,-17,-12
-26,-24,1,34,-15,-13,-6,-2,-9,-10,-17,-12
-26,-24,1,34,-15,-13,-8,-2,-9,-10,-17,-12
-26,-24,1,34,-15,-13,-10,-2,-9,-10,-17,-12
-26,-24,1,34,-15,-13,-10,-2,-9,-10,-17,-12
-26,-24,1,34,-15,-13,-11,-2,-9,-10,-17,-12
-26,-24,1,34,-15,-13,-11,-2,-9,-10,-17,-12
-26,-24,1,34,-15,-13,-11,-2,-9,-10,-17,-12
-26,-24,1,34,-15,-13,-11,-2,-9,-10,-17,-12
-26,-24,1,34,-15,-13,-11,-2,-9,-10,-17,-12
-26,-24,1,34,-15,-13,-11,-2,-9,-10,-17,-12
-26,-24,1,34,-15,-13,-11,-2,-9,-10,-17,-12
-26,-24,1,34,-15,-13,-11,-2,-9,-10,-17,-12
-26,-24,1,34,-15,-13,-11,-2,-9,-10,-17,-12
-26,-24,1,34,-15,-13,-11,-2,-9,-10,-17,-12
-26,-24,1,34,-15,-13,-11,-2,-9,-10,-17,-12
-26,-24,1,34,-15,-13,-11,-2,-9,-10,-17,-12
-26,-24,1,34,-15,-13,-11,-2,-9,-10,-17,-12
-26,-24,1,34,-15,-13,-11,-2,-9,-10,-17,-12
-26,-24,1,34,-15,-13,-11,-2,-9,-10,-17,-12
-26,-24,1,34,-15,-13,-11,-2,-9,-10,-17,-12
-26,-24,1,34,-15,-13,-11,-2,-9,-10,-17,-12
-26,-24,1,34,-15,-13,-11,-2,-9,-10,-17,-12
-26,-24,1,34,-15,-13,-11,-2,-9,-10,-17,-12
-26,-24,1,34,-15,-13,-11,-2,-9,-10,-17,-12
-26,-24,1,34,-15,-13,-11,-2,-9,-10,-17,-12
-26,-24,1,34,-15,-13,-11,-2,-9,-10,-17,-12
-26,-24,1,34,-15,-13,-11,-2,-9,-10,-17,-12
-26,-24,1,34,-15,-13,-11,-2,-9,-10,-17,-12
-26,-24,1,34,-15,-13,-11,-2,-9,-10,-17,-12
-26,-24,1,34,-15,-13,-11,-2,-9,-10,-17,-12
-26,-22,2,33,-16,-12,-11,-2,-9,-10,-17,-12
-26,-20,4,31,-18,-9,-11,-2,-9,-10,-17,-12
-26,-18,6,30,-19,-7,-11,-2,-9,-10,-17,-12
-26,-15,9,27,-21,-3,-11,-2,-9,-10,-17,-12
-24,-13,9,26,-21,-2,-11,-2,-9,-10,-17,-12
-22,-13,8,23,-18,-3,-11,-2,-9,-10,-17,-13
-19,-12,6,22,-15,-3,-11,-2,-9,-10,-17,-15
-16,-12,3,19,-11,-5,-11,-2,-9,-10,-17,-16
-14,-12,2,18,-9,-6,-11,-2,-9,-10,-17,-17
-14,-12,1,18,-8,-7,-11,-2,-9,-10,-17,-17
-13,-12,1,18,-8,-7,-11,-2,-9,-10,-17,-18
-13,-12,1,18,-8,-7,-11,-2,-9,-10,-17,-18
-13,-12,1,18,-8,-7,-11,-2,-9,-10,-17,-18
-13,-12,1,18,-8,-7,-11,-2,-9,-10,-15,-18
-13,-12,1,18,-8,-7,-11,-2,-9,-10,-14,-18
-13,-12,1,18,-8,-7,-11,-2,-9,-10,-12,-18
-13,-12,1,18,-8,-7,-10,-2,-9,-10,-10,-18
-13,-12,1,18,-8,-7,-8,-2,-9,-10,-7,-18
-13,-12,1,18,-8,-7,-6,-2,-9,-10,-4,-18
-13,-12,1,18,-8,-7,-3,-2,-9,-10,-1,-18
-13,-12,1,18,-8,-7,-2,-1,-9,-10,1,-18
-13,-12,1,18,-8,-7,-1,1,-9,-10,2,-18
-13,-12,1,18,-8,-7,-1,3,-9,-10,2,-18
-13,-12,1,18,-8,-7,-1,5,-9,-10,2,-18
-13,-12,1,18,-8,-7,-1,6,-9,-10,2,-18
-13,-12,1,18,-8,-7,-1,7,-9,-10,2,-18
-13,-12,1,18,-8,-7,-1,7,-9,-10,2,-18
-13,-12,1,18,-8,-7,-1,7,-9,-10,2,-18
-13,-12,1,18,-8,-7,-1,7,-9,-10,2,-18
-13,-12,1,18,-8,-7,-1,7,-9,-10,2,-18
-12,-9,2,14,-8,-4,-3,4,-9,-9,6,-18
-11,-5,5,11,-9,0,-7,0,-8,-7,11,-18
-10,-4,5,10,-9,1,-8,-1,-8,-6,12,-18
-10,-3,6,10,-10,1,-8,-2,-8,-6,13,-18
-11,-2,8,10,-12,3,-8,-2,-8,-6,13,-18
-14,-1,11,10,-16,6,-8,-2,-7,-6,13,-18
-14,0,13,10,-18,7,-8,-2,-6,-5,13,-17
-14,2,15,8,-18,10,-8,-2,-5,-5,14,-16
-13,5,17,6,-19,12,-9,-2,-4,-4,15,-16
-13,8,19,3,-21,16,-10,-2,-3,-3,15,-15
-12,10,20,1,-21,18,-11,-2,-2,-2,16,-14
-11,13,22,-2,-22,20,-11,-2,-0,-1,17,-13
-10,15,23,-3,-22,22,-11,-2,1,-0,18,-12
-9,17,24,-6,-22,24,-12,-2,2,1,18,-12
-8,19,25,-8,-22,26,-13,-2,3,3,19,-11
-7,22,27,-10,-23,28,-13,-2,4,4,20,-10
-7,24,29,-11,-24,30,-14,-2,5,5,20,-10
-7,25,30,-13,-25,32,-15,-2,5,6,20,-9
-7,27,32,-14,-27,34,-16,-4,5,7,20,-9
-6,28,32,-15,-26,35,-16,-5,5,9,20,-9
-4,30,32,-18,-25,36,-15,-6,5,12,20,-8
-4,30,32,-18,-25,37,-14,-8,4,15,20,-7
-3,30,31,-19,-24,36,-14,-8,4,16,20,-7
-1,30,30,-20,-22,35,-16,-7,3,16,20,-7
-1,30,30,-20,-21,35,-18,-6,2,17,20,-7
1,30,29,-21,-20,34,-19,-5,1,17,20,-6
3,30,26,-22,-17,33,-20,-5,-0,17,20,-6
5,30,25,-24,-14,32,-22,-5,-2,16,20,-6
6,30,24,-25,-13,31,-23,-6,-5,15,20,-5
8,30,22,-26,-11,30,-25,-8,-6,15,20,-4
9,30,21,-26,-9,29,-25,-8,-8,13,19,-4
12,30,19,-28,-6,28,-26,-10,-9,12,19,-4
14,30,17,-30,-4,27,-27,-10,-11,11,18,-4
14,30,17,-30,-3,27,-28,-10,-13,10,18,-4
16,30,16,-30,-2,26,-28,-10,-14,9,18,-4
17,30,15,-31,0,26,-28,-11,-13,8,18,-4
18,30,14,-32,1,26,-28,-12,-13,8,17,-4
19,30,13,-33,2,25,-28,-13,-13,7,17,-3
20,30,12,-34,4,24,-28,-13,-13,6,17,-3
21,30,11,-34,5,24,-28,-13,-13,6,17,-3
21,30,11,-34,5,24,-27,-13,-14,6,17,-3
21,30,11,-34,5,24,-26,-13,-14,6,17,-3
21,30,11,-34,5,24,-25,-13,-15,6,17,-2
21,30,11,-34,5,24,-25,-13,-15,6,18,-1
21,30,11,-34,5,24,-24,-13,-15,6,18,-1
19,30,12,-33,3,24,-23,-13,-15,6,18,-1
17,29,13,-30,1,24,-22,-13,-15,5,18,-1
14,27,13,-27,-1,23,-21,-13,-15,4,18,-2
11,25,14,-24,-3,22,-20,-13,-15,2,17,-3
9,22,13,-20,-4,20,-18,-12,-15,-1,16,-4
4,19,15,-15,-8,19,-16,-11,-15,-3,15,-4
0,16,16,-10,-11,18,-13,-10,-15,-4,14,-6
-4,12,15,-6,-13,16,-11,-8,-14,-5,13,-7
-7,9,15,-1,-14,13,-8,-8,-13,-6,12,-9
-10,5,13,4,-15,10,-6,-6,-13,-8,10,-10
-12,0,11,8,-14,6,-3,-5,-13,-10,8,-12
-13,-3,8,11,-13,3,-2,-4,-13,-11,6,-13
-14,-6,6,14,-12,0,-1,-3,-13,-13,5,-15
-16,-9,6,18,-14,-2,0,-2,-13,-14,3,-16
-19,-12,6,22,-15,-3,1,-1,-14,-15,1,-18
-21,-15,5,25,-16,-6,3,0,-14,-17,0,-19
-22,-18,3,27,-14,-9,5,1,-15,-18,-1,-21
-23,-20,2,29,-14,-10,5,2,-15,-19,-2,-21
-23,-21,0,30,-13,-12,6,3,-15,-20,-3,-22
-23,-23,-2,31,-12,-14,7,3,-15,-20,-4,-23
-24,-24,-2,33,-13,-15,8,3,-15,-21,-5,-24
-25,-26,-2,35,-13,-16,8,3,-15,-21,-6,-24
-26,-26,-2,36,-14,-16,8,3,-15,-20,-6,-25
-26,-26,-2,36,-14,-16,9,3,-15,-19,-6,-25
-27,-28,-2,38,-14,-17,10,3,-15,-18,-7,-25
-28,-29,-2,39,-15,-18,10,3,-16,-18,-7,-25
-29,-29,-2,40,-15,-18,9,3,-16,-19,-8,-26
-29,-30,-3,41,-14,-20,9,3,-15,-20,-9,-26
-29,-32,-4,42,-14,-21,10,3,-15,-20,-9,-26
-29,-32,-5,42,-14,-22,11,3,-15,-20,-9,-26
-30,-33,-5,43,-14,-22,12,3,-15,-20,-9,-26
-33,-34,-4,46,-17,-22,13,3,-15,-20,-9,-26
-34,-35,-3,47,-18,-22,13,3,-15,-20,-9,-26
-34,-35,-3,47,-18,-22,13,4,-15,-20,-9,-26
-31,-34,-4,45,-15,-22,13,5,-15,-20,-9,-26
-29,-30,-3,40,-15,-19,13,7,-15,-19,-9,-27
-24,-25,-2,34,-13,-15,13,7,-14,-18,-9,-28
-21,-22,-2,30,-11,-14,13,7,-13,-16,-9,-28
-22,-24,-3,32,-11,-16,15,7,-13,-16,-9,-28
-24,-25,-2,34,-13,-15,18,7,-11,-16,-9,-28
-26,-21,3,32,-18,-10,20,7,-10,-17,-9,-28
-33,-21,9,36,-25,-7,20,9,-6,-17,-13,-31
-36,-30,3,44,-24,-15,28,16,-1,-15,-14,-33
-54,-41,9,64,-39,-18,23,21,-1,-14,-16,-36
-58,-41,11,67,-43,-17,30,30,8,-14,-18,-39
-67,-44,17,75,-52,-15,42,41,28,-8,-11,-36
-67,-44,17,75,-52,-15,47,47,37,-6,-11,-39
-58,-41,11,67,-43,-17,55,56,44,-1,-16,-39
-58,-30,22,58,-50,-4,55,59,49,8,-8,-34
-58,-21,30,52,-56,6,57,63,58,24,4,-30
-54,2,49,34,-67,30,60,70,69,44,15,-21
-45,7,46,24,-59,32,60,65,80,60,26,-21
-36,19,49,10,-56,40,62,65,80,72,38,-13
-26,22,44,2,-46,39,50,74,85,101,61,3
5,45,38,-34,-24,48,28,63,82,128,95,25
52,73,25,-84,14,56,-1,50,73,156,133,58
89,99,17,-126,43,66,-33,32,60,183,167,85
130,125,6,-170,75,75,-60,7,35,211,193,110
164,151,1,-210,100,86,-89,-20,12,238,216,131
199,191,9,-260,115,114,-121,-38,-13,260,245,159
224,206,1,-286,136,117,-148,-71,-49,260,260,183
255,206,-26,-306,175,101,-172,-87,-71,267,275,196
296,206,-61,-332,224,79,-194,-107,-108,256,275,217
324,206,-86,-350,258,65,-214,-129,-151,238,278,231
330,185,-110,-340,279,39,-221,-138,-180,201,254,222
330,154,-140,-318,300,3,-226,-143,-207,142,213,204
286,119,-134,-266,270,-14,-209,-145,-232,65,157,174
243,82,-132,-212,241,-33,-184,-154,-241,-10,98,140
211,68,-118,-182,213,-33,-162,-158,-245,-73,48,110
171,65,-86,-154,165,-15,-145,-154,-252,-112,20,83
130,51,-64,-118,125,-10,-131,-154,-252,-140,-1,70
108,59,-37,-110,92,10,-116,-152,-248,-155,-11,67
74,53,-13,-83,54,22,-99,-143,-230,-149,-18,60
39,42,6,-54,20,27,-82,-125,-214,-149,-21,45
2,33,30,-24,-20,37,-62,-111,-193,-148,-21,31
-17,28,41,-8,-39,40,-48,-102,-173,-137,-27,25
-29,19,44,6,-49,37,-45,-98,-169,-137,-34,10
-42,-7,30,32,-46,14,-33,-82,-150,-130,-37,1
-51,-18,28,46,-50,6,-21,-76,-139,-123,-39,-7
-58,-24,28,54,-54,3,-6,-55,-124,-110,-45,-10
-36,-24,9,40,-27,-9,3,-44,-112,-106,-44,-13
-61,-18,36,52,-62,10,11,-33,-101,-94,-41,-21
-61,-13,41,48,-66,17,18,-26,-85,-80,-32,-21
-61,-13,41,48,-66,17,23,-17,-76,-69,-27,-21
-61,-15,38,50,-63,14,23,-8,-58,-58,-29,-25
-67,-21,38,58,-67,10,23,-4,-46,-49,-23,-24
-45,-21,19,44,-40,-1,23,0,-28,-44,-13,-21
-39,-27,9,44,-29,-10,20,3,-22,-35,-11,-19
-27,-13,11,27,-24,-1,20,5,-19,-33,-11,-20
-22,-10,10,22,-20,1,20,6,-17,-32,-14,-21
-21,-9,10,21,-20,1,20,6,-17,-31,-17,-22
-25,-10,12,24,-24,1,20,5,-16,-29,-19,-24
-31,-14,13,30,-27,0,20,5,-16,-28,-20,-24
-34,-18,13,34,-29,-3,20,5,-14,-27,-20,-25
-36,-21,12,38,-30,-5,20,4,-13,-26,-19,-25
-38,-25,9,42,-29,-9,20,3,-10,-26,-18,-26
-37,-27,7,43,-27,-11,20,3,-8,-26,-18,-25
-36,-26,7,42,-26,-10,21,5,-5,-25,-17,-24
-34,-24,8,39,-26,-9,23,8,-3,-24,-16,-22
-32,-26,4,39,-21,-12,25,11,-1,-24,-17,-21
-30,-28,0,40,-18,-16,25,11,-1,-24,-18,-21
-30,-29,-1,40,-18,-17,25,12,-0,-23,-19,-22
-31,-29,0,42,-18,-17,25,11,-0,-23,-19,-22
-32,-29,1,42,-19,-16,25,10,-0,-22,-19,-22
-32,-29,1,42,-19,-16,25,9,-0,-22,-18,-23
-32,-29,1,42,-19,-16,25,9,-0,-22,-18,-24
-32,-30,-1,42,-18,-18,25,9,-0,-22,-17,-25
-32,-32,-2,43,-18,-19,25,9,-0,-21,-17,-26
-32,-32,-2,44,-18,-20,25,10,0,-21,-17,-27
-32,-32,-2,44,-18,-20,25,11,1,-20,-17,-28
-32,-32,-2,44,-18,-20,25,12,1,-20,-16,-28
-32,-31,-1,43,-18,-18,25,12,2,-20,-16,-28
-32,-30,0,42,-19,-17,25,13,3,-18,-16,-27
-32,-29,1,42,-19,-16,25,13,3,-17,-16,-27
-32,-29,1,42,-19,-16,25,14,3,-16,-15,-26
-32,-29,1,42,-19,-16,25,14,3,-15,-14,-26
-33,-30,1,43,-20,-17,25,14,3,-15,-14,-26
-34,-32,1,45,-21,-18,25,14,3,-15,-14,-26
-35,-32,1,46,-21,-18,25,14,3,-15,-14,-26
-35,-32,1,46,-21,-18,25,14,4,-15,-14,-26
-35,-32,1,46,-21,-18,24,15,5,-15,-14,-26
-35,-32,1,46,-21,-18,22,17,5,-15,-14,-26
-35,-32,1,46,-21,-18,21,18,5,-14,-14,-26
-35,-31,2,45,-22,-17,20,21,5,-14,-14,-26
-35,-30,3,44,-23,-16,19,24,5,-13,-14,-25
-35,-29,3,43,-23,-15,18,25,6,-13,-14,-25
-35,-29,3,43,-23,-15,18,25,6,-13,-14,-25
-35,-29,3,43,-23,-15,18,25,6,-13,-14,-25
-35,-29,3,43,-23,-15,19,25,6,-14,-14,-25
-35,-29,3,43,-23,-15,21,25,6,-15,-14,-25
-35,-29,3,43,-23,-15,23,25,6,-17,-14,-25
-35,-29,3,43,-23,-15,25,25,7,-19,-14,-25
-35,-29,3,43,-23,-15,27,26,8,-20,-13,-25
-34,-28,3,42,-22,-14,27,27,8,-20,-13,-25
-33,-27,3,40,-21,-14,27,27,8,-20,-12,-25
-32,-26,3,39,-21,-13,26,27,8,-19,-12,-25
-32,-25,4,38,-22,-12,25,27,8,-18,-12,-25
-32,-23,6,37,-24,-9,25,27,8,-17,-12,-25
-32,-21,9,35,-25,-7,25,27,8,-15,-12,-25
-32,-18,11,34,-27,-3,25,27,9,-13,-12,-25
-32,-16,13,32,-28,-1,25,27,10,-11,-12,-24
-32,-15,13,32,-28,-1,25,27,10,-10,-11,-24
-32,-15,14,31,-29,0,25,27,10,-10,-11,-24
-31,-15,13,30,-27,-1,25,27,10,-10,-11,-24
-29,-15,12,30,-26,-1,25,27,11,-10,-10,-24
-29,-15,11,30,-25,-2,25,27,11,-10,-9,-24
-29,-15,11,30,-25,-2,25,27,12,-9,-8,-24
-29,-15,11,30,-25,-2,25,27,12,-8,-5,-24
-29,-16,10,30,-24,-3,25,27,12,-8,-4,-23
-29,-18,8,32,-23,-6,25,27,12,-8,-3,-22
-29,-21,6,34,-21,-9,25,27,13,-8,-3,-21
-29,-24,3,35,-19,-12,25,27,13,-7,-3,-18
-29,-25,2,37,-18,-14,25,27,14,-7,-3,-17
-29,-26,1,37,-18,-14,25,27,14,-8,-3,-16
-29,-26,1,38,-18,-15,25,28,14,-10,-2,-16
-29,-26,1,38,-18,-15,25,29,15,-11,-1,-16
-27,-25,1,35,-16,-14,25,30,15,-13,-1,-16
-24,-21,1,30,-14,-12,25,30,15,-13,-1,-16
-23,-18,4,28,-16,-8,25,30,15,-12,-1,-16
-23,-15,6,26,-18,-5,25,30,16,-11,-1,-16
-23,-13,8,24,-18,-3,24,30,17,-11,-0,-16
-23,-13,8,24,-19,-3,23,30,17,-11,0,-15
-23,-12,9,23,-19,-2,23,30,17,-10,1,-15
-23,-12,9,23,-19,-2,23,30,18,-10,1,-15
-23,-12,9,23,-19,-2,23,30,19,-10,1,-15
-21,-11,9,22,-18,-1,23,30,19,-10,1,-15
-20,-10,9,20,-18,-1,23,30,20,-9,1,-15
-19,-9,9,19,-18,0,23,30,20,-8,2,-14
-19,-9,9,19,-18,0,23,30,21,-8,2,-13
-19,-9,9,19,-18,0,22,30,21,-5,3,-13
-18,-8,9,18,-17,1,21,31,22,-3,3,-13
-17,-7,9,16,-16,1,20,32,22,-1,4,-13
-16,-6,9,15,-15,1,20,31,23,0,4,-13
-16,-6,9,15,-15,1,20,29,23,1,4,-12
-15,-5,9,14,-14,2,20,27,24,1,5,-12
-14,-4,9,12,-14,3,20,25,24,3,5,-12
-13,-3,9,11,-14,3,20,24,25,3,5,-11
-12,-3,8,10,-12,3,20,23,26,3,6,-10
-11,-3,6,10,-11,2,19,23,26,3,7,-10
-10,-2,7,9,-11,3,18,24,27,3,7,-10
-9,-1,7,7,-10,3,16,25,28,3,7,-10
-8,-1,6,6,-8,3,16,25,28,3,7,-10
-6,-1,5,5,-7,3,15,25,29,3,7,-9
-4,-1,4,4,-5,2,14,25,29,4,8,-9
-4,1,4,2,-5,3,13,25,30,4,8,-9
-4,2,5,2,-5,4,13,25,30,4,8,-9
-3,2,5,1,-5,4,12,25,30,4,8,-9
-1,2,4,0,-3,3,11,25,31,4,8,-8
0,2,3,-1,-2,3,11,25,32,4,8,-7
2,2,1,-2,1,2,11,25,32,4,8,-7
3,2,1,-2,2,1,10,25,33,4,8,-7
4,3,1,-4,2,2,9,25,33,5,9,-7
5,5,1,-6,3,3,8,25,33,6,10,-6
6,5,0,-6,5,3,8,25,34,6,10,-6
8,5,-2,-8,7,2,8,25,35,6,10,-6
9,5,-2,-8,8,1,7,25,35,6,10,-6
10,5,-3,-9,9,1,6,25,35,6,10,-5
11,5,-4,-10,11,0,6,25,35,6,10,-4
11,5,-4,-10,11,0,6,25,35,6,10,-4
13,5,-5,-10,12,-1,5,25,36,6,10,-4
14,5,-6,-11,14,-1,4,25,37,5,9,-4
14,5,-7,-12,14,-1,3,25,37,5,8,-4
16,5,-8,-13,16,-2,3,25,37,4,7,-3
17,5,-9,-14,18,-3,2,25,37,4,5,-3
18,5,-10,-14,18,-3,1,25,37,4,4,-3
18,5,-10,-14,18,-3,1,25,37,3,4,-3
18,5,-10,-14,18,-3,1,25,37,0,4,-3
19,5,-11,-14,20,-4,1,25,37,-2,5,-3
20,5,-12,-15,21,-5,1,25,37,-4,5,-2
21,6,-12,-17,22,-4,1,25,36,-4,5,-1
23,7,-12,-19,24,-3,1,25,36,-4,5,-1
24,8,-12,-20,24,-3,0,25,35,-4,5,-1
25,8,-13,-21,25,-4,-1,24,35,-4,5,-1
26,8,-15,-22,27,-5,-1,23,35,-4,5,0
27,8,-15,-22,27,-5,-1,23,35,-4,5,0
27,8,-15,-22,27,-5,-2,23,34,-4,5,0
28,9,-15,-23,28,-4,-3,23,34,-4,5,0
29,10,-15,-25,29,-3,-3,23,33,-4,6,1
30,10,-16,-26,30,-4,-3,23,33,-4,7,1
30,10,-16,-26,30,-4,-3,23,33,-4,7,1
31,10,-17,-26,31,-5,-4,22,33,-4,7,1
33,10,-18,-27,33,-5,-5,21,32,-4,7,1
33,10,-18,-27,34,-5,-6,21,32,-4,7,1
33,10,-18,-27,34,-5,-6,21,32,-4,7,1
33,10,-18,-27,34,-5,-6,21,32,-4,7,2
33,10,-18,-27,34,-5,-7,21,32,-4,8,3
34,11,-18,-29,34,-5,-8,21,31,-3,8,3
36,13,-18,-30,35,-4,-8,21,30,-2,8,3
36,13,-18,-31,35,-4,-8,20,30,-1,8,3
36,13,-18,-31,35,-4,-8,19,30,-0,9,4
36,13,-18,-31,35,-4,-8,18,29,1,10,4
36,13,-18,-31,35,-4,-8,18,28,1,10,4
35,13,-17,-30,34,-3,-8,18,28,3,11,4
34,13,-16,-30,32,-3,-8,18,28,3,12,4
33,14,-15,-30,30,-1,-8,17,27,4,12,4
33,15,-13,-31,30,1,-8,17,27,5,13,4
32,16,-12,-30,28,2,-8,16,26,6,13,4
31,16,-11,-30,27,3,-8,14,26,6,12,4
29,15,-11,-28,26,2,-8,11,25,8,11,4
27,14,-10,-26,24,2,-7,8,25,8,10,3
25,13,-9,-24,21,2,-6,6,24,10,9,3
24,13,-8,-24,21,3,-6,5,24,12,9,3
23,13,-7,-23,19,3,-6,5,23,15,8,3
21,13,-5,-22,16,5,-6,5,22,17,8,3
19,13,-3,-20,14,5,-5,4,21,18,8,2
18,13,-3,-20,13,6,-4,3,21,18,8,2
17,12,-3,-18,12,5,-3,3,20,19,8,1
14,11,-2,-16,10,5,-3,3,19,19,8,1
13,10,-1,-14,8,5,-2,3,19,18,8,0
12,10,0,-14,8,6,-1,3,18,16,7,0
11,10,0,-13,8,5,-1,2,17,15,7,0
11,9,-1,-12,8,5,-1,1,16,13,7,-0
8,8,1,-10,5,5,-1,0,15,12,7,-1
6,8,3,-9,2,6,-1,0,14,12,7,-1
1,7,6,-5,-3,7,-1,0,13,11,6,-1
-3,6,9,-2,-8,8,-0,0,12,11,6,-2
-6,5,10,1,-10,8,0,0,12,10,5,-2
-6,2,8,3,-9,6,1,-0,12,10,5,-3
-8,-1,6,6,-8,3,1,-1,11,10,5,-3
-9,-3,5,9,-9,1,1,-2,10,9,4,-3
-9,-6,2,10,-6,-3,1,-2,10,8,4,-3
-6,-8,-2,10,-2,-6,1,-2,9,8,4,-3
-4,-9,-4,10,2,-8,1,-2,9,8,4,-3
-1,-9,-8,8,5,-10,1,-2,8,7,3,-3
1,-9,-9,6,8,-11,1,-2,8,6,2,-3
2,-9,-10,6,8,-11,1,-2,8,6,2,-3
3,-9,-10,6,9,-12,1,-2,8,6,2,-3
3,-9,-10,6,9,-12,1,-2,8,6,2,-3
3,-9,-10,6,9,-12,1,-2,8,6,2,-3
3,-9,-10,6,9,-12,1,-2,8,6,2,-3
1,-6,-6,5,6,-8,3,-2,9,10,4,-4
0,-2,-2,2,2,-3,7,-2,11,16,7,-5
-1,-1,0,2,0,-1,8,-2,11,18,8,-5
-1,-1,1,2,0,0,8,-2,12,18,8,-6
-1,-1,1,2,0,0,8,-2,12,19,8,-6
-1,-1,1,2,0,0,8,-2,12,19,8,-6
-1,1,2,1,-1,1,8,-2,12,19,8,-5
-1,3,4,-1,-2,4,8,-2,12,19,8,-4
-1,5,6,-2,-4,6,8,-2,12,19,8,-3
-1,8,9,-5,-6,9,8,-2,12,19,8,-1
-1,10,10,-6,-7,11,8,-2,12,19,8,-0
-1,10,11,-6,-8,12,8,-2,12,19,8,0
-1,10,11,-6,-8,12,8,-2,12,19,8,0
-1,10,11,-6,-8,12,8,-2,12,19,8,0
-1,10,11,-6,-8,12,7,-2,12,19,8,0
-1,10,11,-6,-8,12,5,-2,12,19,8,0
-1,10,11,-6,-8,12,3,-2,12,19,8,0
-1,10,11,-6,-8,12,1,-2,12,19,8,0
-1,10,11,-6,-8,12,-0,-2,12,19,8,0
-1,10,11,-6,-8,12,-1,-2,12,19,8,0
-1,10,11,-6,-8,12,-1,-2,12,19,8,0
-1,10,11,-6,-8,12,-1,-2,12,19,8,0
-1,11,12,-7,-8,13,-1,-2,12,19,8,0
-1,14,14,-9,-10,16,-1,-2,12,19,8,0
-1,16,16,-10,-11,18,-1,-2,12,19,8,0
-1,19,19,-12,-14,22,-1,-2,12,19,8,0
-1,21,20,-14,-14,24,-1,-2,12,19,8,0
-1,21,21,-14,-15,24,-1,-2,12,19,8,0
-1,22,22,-14,-15,25,-1,-2,12,19,8,0
-1,22,22,-14,-15,25,-1,-2,12,19,8,0
-1,22,22,-14,-15,25,-1,-2,12,19,8,0
-1,22,22,-14,-15,25,-1,-2,12,19,8,0
-1,22,22,-14,-15,25,-1,-2,12,19,8,0
-1,22,22,-14,-15,25,-1,-2,12,19,8,0
-1,22,22,-14,-15,25,-1,-2,13,19,8,1
-1,22,22,-14,-15,25,-1,-2,14,19,8,2
-1,22,22,-14,-15,25,-1,-2,15,19,8,3
-1,22,22,-14,-15,25,-1,-2,17,19,8,4
-1,22,22,-14,-15,25,-1,-2,18,19,8,5
-1,22,22,-14,-15,25,-1,-2,19,19,8,6
-1,22,22,-14,-15,25,-1,-2,19,19,8,6
-1,22,22,-14,-15,25,-1,-2,19,19,8,6
-1,22,22,-14,-15,25,-1,-1,19,19,8,6
-1,22,22,-14,-15,25,-1,1,19,19,8,6
-1,22,22,-14,-15,25,-1,3,19,19,8,6
-1,22,22,-14,-15,25,-1,5,19,19,8,6
-2,22,23,-14,-17,26,-0,6,19,19,8,6
-4,22,25,-12,-20,27,1,7,19,19,8,6
-7,22,27,-10,-23,28,3,7,19,19,8,6
-10,22,30,-8,-27,30,6,7,19,19,8,6
-12,22,31,-7,-29,31,7,6,19,19,8,5
-13,22,32,-6,-30,31,8,4,19,19,8,4
-13,22,32,-6,-30,31,8,3,19,19,8,3
-13,22,32,-6,-30,31,8,0,19,19,8,1
-13,22,32,-6,-30,31,8,-1,19,19,8,0
-13,22,32,-6,-30,31,8,-1,19,19,8,-1
-13,22,32,-6,-30,31,8,-2,19,19,8,-3
-13,22,32,-6,-30,31,8,-2,19,19,8,-4
-13,22,32,-6,-30,31,8,-2,18,18,8,-5
-13,22,32,-6,-30,31,8,-2,17,16,7,-5
-13,22,32,-6,-30,31,8,-2,15,15,5,-6
-13,22,32,-6,-30,31,8,-2,14,13,4,-6
-13,22,32,-6,-30,31,8,-2,13,12,3,-6
-13,22,32,-6,-30,31,8,-2,12,12,2,-6
-13,22,32,-6,-30,31,8,-2,12,11,2,-6
-13,22,32,-6,-30,31,8,-2,12,11,2,-6
-13,22,32,-6,-30,31,8,-2,12,11,2,-6
-13,22,32,-6,-30,31,8,-2,12,11,2,-7
-13,22,32,-6,-30,31,8,-2,12,11,2,-9
-13,22,32,-6,-30,31,8,-2,12,11,2,-10
-13,22,32,-6,-30,31,8,-2,12,11,2,-11
-13,22,32,-6,-30,31,8,-2,12,11,2,-11
-13,22,32,-6,-30,31,8,-2,12,11,2,-12
-13,22,32,-6,-30,31,8,-2,12,11,2,-12
-13,21,31,-6,-30,30,8,-2,12,11,2,-12
-13,18,29,-4,-28,27,8,-2,12,11,0,-12
-13,16,27,-2,-27,25,8,-2,12,11,-1,-12
-13,13,24,0,-25,22,8,-2,12,11,-3,-12
-13,11,23,1,-24,20,8,-2,12,11,-4,-12
-13,11,22,2,-24,19,8,-4,12,9,-4,-12
-13,10,22,2,-23,18,8,-6,12,8,-4,-12
-13,10,22,2,-23,18,8,-8,12,6,-4,-12
-13,10,22,2,-23,18,8,-9,11,5,-4,-12
-13,10,22,2,-23,18,8,-10,10,5,-4,-12
-13,10,22,2,-23,18,8,-10,8,4,-4,-12
-13,10,22,2,-23,18,8,-10,6,4,-4,-12
-13,10,22,2,-23,18,8,-10,5,4,-4,-12
-13,10,22,2,-23,18,8,-10,5,4,-4,-12
-13,10,22,2,-23,18,8,-10,5,4,-4,-12
-13,10,22,2,-23,18,8,-10,5,4,-4,-12
-13,10,22,2,-23,18,8,-10,5,4,-4,-12
-13,10,22,2,-23,18,8,-10,5,3,-4,-12
-13,10,22,2,-23,18,8,-10,5,1,-4,-12
-13,10,22,2,-23,18,8,-10,5,-1,-4,-12
-13,10,22,2,-23,18,8,-10,5,-2,-4,-12
-13,10,22,2,-23,18,8,-10,5,-2,-4,-12
-13,10,22,2,-23,18,8,-10,5,-3,-4,-12
-13,10,22,2,-23,18,8,-10,5,-3,-4,-12
-13,10,22,2,-23,18,8,-11,5,-3,-4,-12
-13,10,22,2,-23,18,8,-13,5,-3,-4,-12
-13,10,22,2,-23,18,8,-15,5,-3,-4,-12
-13,10,22,2,-23,18,8,-17,5,-3,-4,-12
-13,10,21,2,-22,18,8,-18,5,-3,-5,-12
-13,7,19,4,-21,15,8,-19,5,-3,-6,-12
-13,5,17,6,-19,12,8,-19,5,-3,-8,-12
-13,2,14,7,-18,9,8,-19,5,-3,-9,-12
-13,1,12,9,-16,7,8,-19,5,-3,-10,-12
-13,0,12,9,-16,7,8,-19,5,-3,-10,-12
-13,-1,11,10,-15,6,8,-19,5,-3,-11,-12
-13,-1,11,10,-15,6,8,-19,5,-3,-11,-12
-13,-1,11,10,-15,6,8,-19,4,-3,-11,-12
-13,-1,11,10,-15,6,8,-19,3,-5,-11,-12
-13,-1,11,10,-15,6,8,-19,1,-6,-11,-12
-13,-1,11,10,-15,6,8,-19,-0,-8,-11,-12
-13,-1,11,10,-15,6,8,-19,-1,-9,-11,-12
-13,-1,11,10,-15,6,8,-19,-2,-9,-11,-12
-13,-1,11,10,-15,6,8,-19,-2,-10,-11,-12
-13,-1,11,10,-15,6,8,-19,-2,-10,-11,-12
-13,-1,11,10,-15,6,8,-19,-2,-10,-11,-12
-13,-1,11,10,-15,6,8,-19,-2,-10,-11,-12
-13,-1,11,10,-15,6,8,-19,-2,-10,-11,-12
-13,-1,11,10,-15,6,8,-19,-2,-10,-11,-12
-13,-1,11,10,-15,6,8,-19,-2,-10,-11,-12
-13,-1,11,10,-15,6,8,-19,-2,-10,-11,-12
-13,-1,11,10,-15,6,8,-19,-2,-10,-11,-12
-13,-1,11,10,-15,6,8,-19,-2,-10,-11,-12
-13,-1,11,10,-15,6,8,-19,-2,-10,-11,-12
-13,-1,11,10,-15,6,8,-19,-2,-10,-11,-12
-13,-1,11,10,-15,6,8,-19,-2,-10,-11,-12
-13,-1,11,10,-15,6,8,-19,-2,-10,-11,-12
-13,-1,11,10,-15,6,7,-19,-3,-10,-11,-12
-13,-1,11,10,-15,6,5,-19,-4,-10,-11,-12
-13,-1,11,10,-15,6,3,-19,-6,-10,-11,-12
-13,-1,11,10,-15,6,1,-19,-8,-10,-11,-12
-13,-1,11,10,-15,6,-0,-19,-9,-10,-11,-12
-13,-1,11,10,-15,6,-1,-19,-9,-10,-11,-12
-13,-1,11,10,-15,6,-1,-19,-9,-10,-11,-12
-13,-1,11,10,-15,6,-1,-19,-9,-10,-11,-12
-13,-1,11,10,-15,6,-1,-19,-9,-10,-11,-12
-13,-1,11,10,-15,6,-1,-19,-9,-10,-13,-12
-13,-1,11,10,-15,6,-1,-19,-9,-10,-14,-12
-13,-1,11,10,-15,6,-1,-19,-9,-10,-16,-12
-13,-1,11,10,-15,6,-1,-19,-9,-10,-17,-12
-13,-1,11,10,-15,6,-1,-19,-9,-10,-17,-12
-13,-1,11,10,-15,6,-1,-19,-9,-10,-17,-12
-13,-1,11,10,-15,6,-1,-19,-9,-10,-17,-12
-13,-1,11,10,-15,6,-1,-19,-9,-10,-17,-12
-13,-1,11,10,-15,6,-1,-19,-9,-10,-17,-12
-13,-1,11,10,-15,6,-1,-19,-9,-10,-17,-12
-13,-1,11,10,-15,6,-1,-19,-9,-10,-17,-12
