I,II,III,aVR,aVL,aVF,V1,V2,V3,V4,V5,V6
-11,-3,4,11,-7,1,-2,37,1,-3,-8,-10
-11,-3,4,11,-7,1,-2,37,1,-3,-8,-10
-11,-3,4,11,-7,1,-2,37,1,-3,-8,-10
-11,-3,4,11,-7,1,-2,37,2,-3,-8,-10
-11,-3,4,11,-7,1,-2,37,2,-3,-8,-10
-11,-3,4,11,-7,1,-2,36,2,-3,-8,-10
-11,-3,4,11,-7,1,-2,36,2,-3,-8,-10
-11,-3,4,11,-7,1,-2,35,2,-3,-8,-10
-11,-3,4,11,-7,1,-2,35,2,-3,-8,-10
-11,-3,4,11,-7,1,-2,35,2,-3,-8,-10
-11,-3,4,11,-7,1,-2,34,1,-3,-8,-10
-11,-3,4,11,-7,1,-2,34,1,-3,-8,-10
-11,-3,4,11,-7,1,-2,33,1,-3,-8,-10
-11,-3,4,11,-7,1,-2,33,1,-3,-8,-10
-11,-3,4,11,-7,1,-2,33,1,-3,-8,-10
-11,-3,4,11,-7,1,-2,33,1,-3,-8,-10
-11,-3,4,11,-7,1,-2,33,1,-3,-8,-10
-11,-3,4,11,-7,1,-2,33,1,-3,-8,-10
-11,-3,4,11,-7,1,-2,32,1,-3,-8,-10
-11,-3,4,11,-7,1,-2,32,2,-3,-8,-10
-11,-3,4,10,-6,2,-2,31,2,-3,-8,-10
-10,-2,4,8,-6,2,-2,31,2,-3,-8,-10
-8,-1,4,7,-5,2,-2,31,2,-3,-8,-10
-7,1,4,5,-5,3,-2,30,2,-3,-8,-10
-6,2,4,3,-5,3,-2,30,2,-3,-8,-10
-6,2,4,3,-5,3,-3,30,2,-3,-8,-10
-5,2,4,3,-4,3,-4,30,2,-3,-8,-10
-5,2,4,3,-4,3,-5,30,2,-3,-8,-10
-5,2,4,3,-4,3,-5,30,2,-3,-8,-10
-5,2,4,3,-4,3,-5,29,2,-3,-8,-10
-5,2,4,3,-4,3,-5,29,2,-3,-8,-10
-5,2,4,3,-4,3,-5,28,2,-3,-8,-10
-5,2,4,2,-5,4,-5,28,2,-3,-8,-10
-5,3,5,1,-5,4,-5,28,2,-3,-8,-10
-5,4,6,0,-5,5,-5,28,2,-3,-8,-10
-5,6,6,-0,-6,6,-5,28,2,-3,-8,-10
-5,6,7,-1,-6,7,-5,28,2,-3,-8,-10
-5,7,7,-1,-7,7,-4,28,2,-3,-8,-10
-5,7,7,-2,-7,7,-4,28,2,-3,-8,-10
-5,7,7,-2,-7,7,-3,28,2,-3,-8,-10
-5,7,7,-2,-7,7,-2,28,2,-3,-8,-10
-5,7,7,-2,-7,7,-2,27,2,-3,-8,-10
-5,7,7,-2,-7,7,-2,27,2,-3,-8,-10
-5,7,7,-2,-7,7,-2,27,2,-3,-8,-10
-6,6,7,-0,-7,7,-2,26,2,-3,-8,-10
-7,4,6,2,-7,6,-2,26,2,-3,-8,-10
-8,2,6,5,-7,4,-2,25,2,-3,-8,-10
-10,-1,5,8,-7,3,-2,25,2,-3,-8,-10
-11,-2,4,10,-7,2,-2,25,2,-3,-8,-10
-11,-3,4,11,-7,2,-2,24,2,-3,-8,-10
-11,-3,4,11,-7,1,-2,24,2,-3,-8,-10
-11,-3,4,11,-7,1,-2,24,2,-3,-8,-10
-11,-3,4,11,-7,1,-2,24,2,-3,-8,-10
-11,-3,4,11,-7,1,-1,24,2,-3,-8,-11
-11,-3,4,11,-7,1,-1,24,2,-3,-8,-11
-11,-3,4,11,-7,1,-0,24,2,-3,-8,-12
-11,-3,4,11,-7,1,-0,24,2,-3,-8,-12
-11,-3,4,11,-7,1,-0,24,2,-3,-8,-12
-11,-3,4,11,-7,1,-0,24,2,-3,-8,-12
-11,-3,4,11,-7,1,-0,24,2,-3,-8,-12
-9,-1,4,8,-6,2,-1,23,2,-2,-7,-11
-7,2,5,3,-5,4,-2,22,3,-2,-7,-10
-6,3,5,2,-5,4,-2,21,3,-2,-6,-10
-5,3,5,2,-5,4,-2,21,3,-2,-6,-10
-5,3,5,1,-5,4,-2,21,3,-2,-6,-10
-5,5,6,-0,-5,5,-3,21,3,-2,-6,-10
-4,7,6,-3,-5,6,-4,22,4,-2,-6,-9
-3,8,6,-5,-5,7,-5,22,4,-1,-6,-9
-2,10,7,-6,-5,9,-6,22,4,-1,-5,-9
-1,12,8,-8,-6,10,-7,21,4,-1,-5,-8
-1,13,9,-10,-6,11,-8,21,5,-1,-5,-8
-1,15,9,-11,-7,12,-10,21,5,-1,-5,-8
-1,16,10,-12,-7,13,-11,20,5,-1,-5,-7
-1,17,11,-13,-7,13,-13,20,5,-1,-5,-7
-1,17,11,-14,-8,14,-14,19,5,-1,-5,-7
-1,18,12,-14,-8,15,-15,19,5,-1,-5,-7
-1,18,12,-14,-9,15,-16,18,5,-1,-5,-7
-2,18,12,-14,-9,15,-17,17,5,-1,-5,-7
-2,18,13,-13,-9,15,-18,16,4,-1,-5,-7
-3,18,13,-13,-10,15,-19,15,4,-1,-5,-7
-4,18,13,-12,-10,16,-19,14,3,-2,-5,-8
-4,18,13,-11,-10,15,-19,13,3,-2,-5,-8
-5,17,13,-11,-11,15,-19,12,2,-2,-6,-8
-6,17,13,-10,-11,15,-19,11,2,-2,-6,-9
-7,16,13,-8,-11,15,-19,10,2,-3,-6,-9
-7,16,13,-8,-11,15,-18,9,1,-3,-6,-9
-8,15,13,-6,-12,14,-18,8,1,-3,-6,-9
-8,15,13,-6,-11,14,-17,8,1,-3,-6,-9
-7,15,13,-7,-11,14,-16,8,1,-3,-6,-9
-7,15,13,-7,-11,14,-15,9,1,-3,-6,-9
-7,15,13,-7,-11,14,-15,9,1,-3,-6,-9
-6,15,12,-7,-10,14,-14,9,1,-3,-6,-9
-6,15,12,-8,-10,13,-14,9,1,-3,-6,-9
-5,15,12,-8,-10,13,-14,9,1,-3,-6,-8
-5,14,11,-8,-10,13,-13,10,1,-3,-6,-8
-5,14,11,-8,-9,12,-13,10,1,-3,-6,-8
-4,13,10,-8,-8,12,-12,10,1,-3,-6,-8
-4,13,10,-8,-8,12,-12,10,1,-2,-5,-8
-4,13,10,-8,-8,12,-11,11,2,-2,-5,-8
-3,13,10,-8,-8,12,-10,11,2,-2,-5,-7
-3,13,9,-8,-7,11,-10,11,2,-2,-5,-7
-2,12,9,-8,-7,10,-9,11,2,-2,-5,-7
-2,12,9,-8,-7,10,-9,12,2,-2,-5,-7
-2,12,8,-8,-6,10,-8,12,2,-2,-4,-7
-2,11,8,-7,-6,9,-8,12,2,-2,-4,-7
-2,11,8,-7,-6,9,-8,12,2,-2,-4,-6
-1,10,7,-7,-5,8,-7,12,2,-2,-4,-6
-1,9,6,-7,-4,8,-7,12,2,-2,-4,-6
-1,8,6,-6,-4,7,-7,12,2,-2,-4,-6
-0,8,5,-6,-4,7,-7,12,2,-2,-4,-6
1,8,4,-7,-3,6,-6,12,2,-2,-4,-6
2,7,4,-7,-2,5,-6,12,1,-2,-4,-6
1,7,3,-6,-2,5,-6,12,1,-2,-4,-6
0,6,4,-5,-2,5,-6,11,1,-2,-4,-6
-1,5,4,-4,-3,4,-6,11,1,-2,-4,-6
-1,5,4,-3,-3,4,-6,12,1,-2,-4,-6
-2,4,4,-2,-3,4,-5,12,1,-2,-5,-6
-2,3,3,-1,-3,3,-5,11,1,-3,-5,-7
-2,3,3,-0,-3,3,-4,11,1,-3,-5,-7
-2,3,3,-0,-3,3,-3,11,1,-3,-5,-7
-2,3,3,-1,-3,3,-3,11,1,-2,-5,-7
-1,3,2,-1,-2,2,-2,11,2,-2,-5,-7
-1,2,2,-0,-1,2,-2,11,2,-2,-5,-7
-1,1,1,0,-1,1,-1,11,2,-2,-5,-7
-1,1,1,1,-1,1,-0,11,2,-2,-5,-8
-3,-0,1,3,-2,1,1,11,2,-2,-5,-8
-4,-1,2,4,-3,1,1,11,2,-2,-5,-8
-7,-2,2,6,-4,1,2,11,2,-2,-5,-9
-8,-3,3,8,-4,1,3,11,2,-2,-6,-9
-9,-3,3,9,-5,0,4,11,3,-2,-6,-9
-10,-4,3,11,-5,0,4,11,3,-3,-6,-10
-11,-5,3,13,-6,-0,5,11,3,-3,-6,-10
-12,-6,3,14,-6,-0,5,11,3,-3,-6,-11
-13,-7,3,15,-6,-1,4,10,3,-3,-7,-11
-14,-7,3,16,-7,-1,4,10,3,-3,-7,-12
-14,-7,3,16,-7,-1,4,10,3,-3,-7,-13
-14,-8,3,17,-7,-1,3,9,3,-3,-7,-14
-14,-8,3,17,-7,-1,3,9,3,-3,-7,-14
-14,-8,3,16,-6,-1,3,8,3,-3,-7,-14
-13,-7,2,15,-6,-1,3,8,3,-3,-7,-14
-11,-7,2,14,-5,-1,4,8,3,-3,-7,-14
-10,-6,2,13,-5,-1,5,8,3,-3,-7,-14
-12,-7,2,15,-5,-2,4,8,2,-3,-8,-15
-16,-11,2,21,-7,-3,3,7,2,-3,-8,-15
-18,-13,2,24,-8,-3,3,7,2,-3,-8,-16
-17,-13,2,23,-7,-4,3,7,2,-3,-8,-15
-16,-13,1,23,-6,-5,4,7,2,-3,-8,-15
-16,-13,0,23,-6,-5,5,7,3,-3,-7,-15
-19,-15,1,26,-7,-5,4,7,3,-3,-8,-15
-25,-19,2,33,-10,-6,1,7,3,-3,-10,-15
-52,-19,16,52,-29,3,1,7,4,-2,-11,-17
-25,-6,10,23,-15,4,10,7,4,-1,-10,-16
2,30,17,-26,-11,23,18,11,9,4,-7,-15
2,36,21,-31,-14,28,22,15,15,11,-7,-17
-16,30,27,-13,-24,29,24,20,24,17,-11,-22
-41,-2,20,31,-28,12,23,21,25,18,-14,-28
-35,7,23,20,-28,17,19,21,25,21,-12,-28
-32,13,25,12,-29,21,15,15,18,25,-6,-24
-31,21,29,5,-31,27,8,10,11,29,1,-17
12,49,23,-49,-12,34,9,5,5,31,12,-5
9,54,28,-51,-16,39,-1,-2,-0,36,21,4
8,40,20,-38,-11,29,-15,-10,-12,34,30,9
21,39,13,-47,-1,23,-33,-23,-32,28,41,20
38,39,4,-58,11,18,-48,-36,-61,14,56,36
52,67,13,-92,10,35,-64,-51,-88,-2,68,51
54,57,6,-85,15,26,-75,-64,-112,-21,77,63
82,86,10,-129,23,40,-90,-77,-133,-36,98,81
100,95,6,-149,32,41,-109,-94,-159,-52,119,104
115,102,2,-165,40,41,-128,-108,-181,-63,142,128
124,113,4,-181,41,47,-143,-120,-201,-79,168,155
166,131,-7,-225,63,47,-163,-133,-217,-94,193,182
188,124,-23,-234,82,33,-178,-141,-229,-103,216,211
201,121,-31,-242,93,27,-188,-147,-239,-108,242,231
215,107,-47,-240,108,11,-197,-149,-241,-108,266,254
234,89,-68,-238,129,-9,-191,-147,-241,-109,284,275
270,83,-90,-259,157,-26,-185,-141,-232,-106,307,297
271,62,-103,-243,167,-43,-182,-136,-224,-103,311,306
300,49,-126,-252,192,-62,-181,-135,-218,-99,314,311
307,35,-138,-246,203,-76,-179,-121,-206,-91,324,315
304,8,-153,-222,212,-96,-173,-111,-191,-80,330,322
309,-5,-163,-214,221,-107,-152,-96,-179,-72,331,324
331,-11,-178,-225,239,-120,-129,-80,-165,-63,325,318
309,-87,-212,-147,255,-171,-110,-63,-149,-56,312,304
303,-146,-244,-94,275,-215,-84,-52,-131,-46,289,279
289,-203,-272,-37,289,-256,-59,-36,-115,-42,251,248
259,-247,-283,20,286,-280,-24,-8,-96,-39,205,210
244,-284,-298,61,291,-304,9,11,-81,-38,139,168
195,-316,-291,122,269,-312,33,14,-74,-41,58,109
198,-294,-280,102,262,-296,53,21,-63,-41,-2,69
169,-293,-264,122,240,-285,68,30,-54,-41,-33,38
130,-297,-246,153,215,-275,85,35,-49,-39,-54,8
88,-296,-224,181,184,-260,89,31,-43,-37,-71,-13
81,-255,-195,153,162,-226,89,31,-36,-31,-77,-25
85,-238,-187,136,159,-214,84,32,-29,-27,-76,-30
76,-217,-170,125,144,-195,66,34,-26,-25,-71,-29
85,-182,-153,89,135,-170,72,34,-20,-20,-64,-24
66,-156,-128,82,111,-144,64,35,-13,-15,-59,-22
48,-143,-111,84,93,-128,54,34,-5,-10,-53,-19
32,-110,-82,68,68,-96,46,30,1,-5,-48,-19
14,-93,-63,68,48,-77,37,23,6,-1,-45,-19
6,-91,-58,70,42,-73,42,16,9,2,-43,-21
-1,-65,-38,55,26,-50,44,13,12,4,-41,-19
-3,-55,-31,47,21,-42,44,10,14,5,-38,-17
-12,-51,-24,51,13,-36,37,2,13,6,-37,-17
-6,-34,-17,32,10,-25,27,-6,14,6,-37,-20
-13,-38,-16,41,7,-25,20,-12,15,7,-34,-18
-25,-48,-16,58,2,-29,13,-17,13,5,-37,-19
-3,-16,-8,16,5,-12,21,-16,16,7,-33,-20
-22,-26,-4,38,-5,-13,21,-17,16,7,-34,-22
-25,-31,-5,43,-5,-15,21,-17,16,7,-34,-23
-26,-29,-4,43,-6,-14,21,-17,17,7,-33,-23
-28,-30,-3,45,-7,-14,21,-17,17,7,-33,-24
-30,-29,-2,45,-9,-12,21,-18,17,7,-32,-24
-30,-26,0,43,-11,-10,20,-18,17,7,-32,-24
-32,-26,1,44,-12,-9,19,-19,17,6,-31,-24
-33,-26,2,45,-13,-9,18,-20,17,5,-32,-25
-30,-23,2,41,-12,-7,17,-20,17,5,-31,-25
-28,-20,3,36,-11,-6,17,-20,17,5,-31,-25
-27,-20,2,36,-11,-6,16,-20,17,4,-31,-26
-27,-19,3,35,-11,-6,16,-20,17,4,-31,-26
-28,-18,4,35,-12,-5,16,-20,17,4,-30,-26
-28,-17,4,34,-12,-4,16,-20,17,4,-30,-26
-28,-16,5,33,-13,-3,16,-19,17,4,-29,-26
-28,-16,5,34,-13,-3,16,-19,17,4,-29,-26
-29,-16,6,34,-14,-3,16,-19,17,4,-29,-26
-29,-16,6,34,-14,-2,15,-19,17,4,-28,-26
-30,-16,6,35,-14,-3,14,-20,17,3,-28,-27
-31,-17,6,36,-15,-3,13,-20,17,3,-28,-27
-32,-17,6,37,-15,-3,12,-21,16,3,-27,-27
-32,-17,6,37,-16,-2,12,-21,16,3,-27,-27
-32,-17,6,37,-16,-2,11,-21,16,3,-27,-27
-32,-17,6,37,-16,-2,11,-22,16,3,-26,-27
-32,-17,7,37,-16,-2,11,-22,16,2,-26,-28
-32,-16,7,36,-16,-2,12,-23,16,2,-26,-28
-32,-16,7,36,-16,-1,12,-23,16,2,-25,-28
-32,-16,7,36,-16,-1,12,-24,16,2,-25,-28
-32,-15,7,35,-16,-1,13,-24,16,2,-25,-28
-31,-14,8,34,-16,-1,13,-25,16,2,-25,-28
-31,-13,8,33,-16,0,14,-25,16,2,-25,-28
-30,-12,9,31,-16,1,14,-25,16,3,-24,-28
-29,-10,10,29,-17,2,14,-25,16,3,-24,-28
-29,-9,10,28,-17,3,14,-26,16,3,-24,-28
-29,-8,10,28,-17,3,14,-26,16,3,-24,-28
-30,-9,10,29,-17,3,14,-26,16,3,-24,-28
-31,-9,11,30,-18,3,14,-26,16,3,-24,-28
-32,-9,11,31,-19,3,14,-26,16,3,-24,-28
-32,-9,11,31,-19,3,14,-26,16,3,-23,-28
-32,-9,11,31,-19,3,14,-27,16,3,-23,-29
-32,-9,11,31,-19,3,14,-27,16,3,-23,-29
-32,-9,11,31,-19,3,13,-27,16,3,-23,-29
-32,-9,11,31,-19,3,12,-27,16,3,-23,-29
-32,-9,11,31,-19,3,10,-27,16,3,-23,-29
-32,-9,11,31,-19,3,8,-27,16,3,-23,-30
-32,-9,11,31,-19,3,7,-26,16,3,-23,-30
-32,-9,11,30,-18,3,6,-27,16,3,-23,-30
-30,-9,10,30,-17,3,5,-27,16,3,-23,-30
-28,-9,9,27,-16,2,4,-27,16,3,-23,-31
-26,-8,9,25,-15,3,3,-27,17,3,-23,-31
-25,-7,9,24,-15,3,3,-27,17,3,-23,-31
-25,-7,9,24,-15,3,3,-27,17,3,-23,-31
-26,-7,9,24,-15,3,3,-27,17,3,-23,-31
-26,-7,10,24,-16,3,3,-27,17,3,-23,-31
-26,-7,10,24,-16,3,3,-27,17,3,-23,-31
-26,-7,10,24,-16,3,3,-27,17,3,-23,-31
-26,-7,10,24,-16,3,3,-27,17,3,-23,-32
-26,-7,10,24,-16,3,3,-27,17,3,-23,-32
-26,-7,10,24,-16,3,3,-27,18,3,-23,-32
-26,-7,10,24,-16,3,3,-27,18,3,-23,-32
-27,-7,10,25,-16,4,3,-27,18,3,-23,-32
-27,-7,10,26,-16,3,3,-27,18,3,-23,-32
-28,-8,9,27,-16,3,3,-27,18,3,-23,-32
-28,-9,9,28,-16,2,3,-27,18,3,-23,-32
-28,-11,8,29,-15,1,3,-27,18,3,-23,-32
-28,-12,8,30,-15,1,3,-27,18,3,-23,-33
-29,-12,8,31,-16,1,3,-27,19,3,-23,-33
-31,-12,9,32,-17,1,3,-27,19,3,-23,-33
-32,-11,10,32,-18,2,3,-27,19,4,-23,-33
-33,-11,11,32,-19,3,3,-27,19,4,-23,-33
-33,-11,11,33,-19,3,3,-27,19,4,-23,-33
-33,-10,11,32,-19,3,3,-27,20,4,-23,-33
-32,-10,11,31,-19,3,3,-27,20,4,-23,-33
-32,-9,11,31,-19,3,3,-27,20,4,-23,-33
-32,-9,11,31,-19,3,3,-26,20,4,-23,-33
-33,-9,11,31,-19,4,2,-26,21,4,-23,-33
-33,-9,12,32,-20,4,2,-26,21,5,-23,-33
-34,-9,12,32,-20,4,2,-26,21,5,-23,-33
-34,-9,12,32,-20,4,2,-26,21,5,-23,-33
-34,-9,12,32,-20,4,1,-26,21,5,-23,-32
-34,-9,12,32,-20,4,1,-26,22,5,-23,-32
-34,-9,12,32,-20,4,1,-26,22,5,-23,-31
-34,-9,12,32,-20,4,1,-26,22,6,-23,-31
-34,-9,12,32,-20,4,1,-25,23,6,-23,-32
-34,-8,13,31,-20,5,1,-25,23,6,-22,-32
-33,-7,13,30,-20,6,1,-25,24,6,-22,-32
-32,-5,13,27,-20,7,1,-25,24,6,-22,-33
-29,-3,13,24,-19,7,1,-24,25,7,-22,-33
-28,-2,14,21,-19,8,2,-24,25,7,-22,-34
-27,0,14,19,-19,9,2,-23,26,7,-22,-34
-27,1,14,19,-19,9,2,-23,26,8,-22,-34
-26,1,14,18,-19,10,2,-23,27,8,-22,-34
-26,2,15,17,-19,10,2,-23,27,8,-22,-34
-27,2,15,18,-19,10,3,-22,28,9,-21,-34
-28,1,15,20,-20,10,3,-22,29,9,-21,-35
-29,-1,15,22,-20,9,3,-22,29,9,-21,-35
-31,-2,15,24,-21,9,3,-22,30,10,-21,-35
-33,-3,16,26,-22,9,3,-22,31,10,-21,-35
-33,-3,16,26,-22,9,3,-21,31,11,-22,-36
-34,-3,16,26,-23,9,3,-21,32,11,-22,-36
-34,-2,16,26,-23,10,3,-20,33,11,-22,-36
-34,-2,17,25,-23,10,3,-20,33,12,-22,-36
-34,-1,17,25,-23,11,4,-19,34,12,-23,-37
-33,-1,17,24,-23,11,5,-19,35,13,-22,-37
-32,0,17,23,-23,11,5,-19,36,13,-22,-37
-32,1,17,23,-23,11,6,-19,37,14,-22,-37
-32,1,17,22,-23,11,7,-18,37,14,-22,-37
-30,2,17,20,-22,12,7,-17,38,15,-22,-37
-29,3,17,19,-22,12,7,-17,39,15,-21,-37
-29,4,18,17,-22,13,7,-16,40,16,-21,-37
-28,6,18,16,-22,14,7,-16,40,16,-21,-36
-27,7,19,14,-22,15,7,-16,41,17,-20,-36
-27,8,19,13,-22,15,7,-16,42,17,-20,-36
-26,8,19,12,-22,15,7,-16,42,17,-19,-36
-26,9,19,11,-22,16,7,-16,43,18,-19,-35
-25,11,20,9,-22,17,7,-16,43,18,-18,-35
-24,12,20,8,-22,17,7,-16,43,18,-18,-34
-23,12,20,7,-22,17,7,-16,43,19,-17,-34
-22,13,20,5,-21,18,7,-16,44,19,-17,-34
-22,14,20,4,-21,18,7,-17,44,19,-17,-33
-21,14,20,4,-21,18,8,-17,44,19,-17,-32
-21,15,20,3,-21,19,8,-17,44,20,-16,-32
-19,16,19,0,-20,19,8,-17,44,20,-15,-31
-16,17,19,-2,-19,19,7,-17,43,20,-15,-30
-15,18,19,-5,-18,19,6,-17,43,20,-14,-29
-13,19,18,-6,-17,19,5,-17,43,20,-13,-28
-11,20,18,-8,-16,19,4,-17,42,20,-12,-28
-10,21,18,-10,-16,20,4,-18,42,19,-11,-28
-8,22,18,-12,-15,20,3,-18,41,19,-9,-27
-7,23,17,-14,-14,20,2,-19,40,19,-8,-26
-5,24,17,-16,-13,20,1,-19,39,19,-7,-25
-3,25,17,-18,-12,20,1,-20,38,18,-6,-23
-1,26,16,-20,-11,20,-0,-20,37,18,-5,-21
2,26,15,-23,-10,20,-1,-20,36,18,-4,-20
4,27,15,-24,-9,20,-3,-21,35,17,-3,-18
5,27,14,-26,-8,20,-4,-21,34,17,-2,-16
6,27,13,-26,-7,19,-6,-21,32,17,-1,-14
7,26,13,-26,-6,18,-8,-21,31,16,0,-13
8,26,12,-27,-5,18,-9,-22,29,15,1,-12
9,26,11,-28,-4,17,-9,-22,27,15,2,-10
10,26,11,-28,-4,17,-10,-22,26,14,3,-9
12,26,10,-30,-3,17,-10,-23,24,13,3,-8
13,26,9,-30,-1,16,-11,-23,22,12,4,-7
13,26,9,-30,-1,16,-11,-23,21,11,5,-6
14,25,8,-30,-0,15,-11,-23,20,10,6,-5
14,24,7,-29,0,14,-12,-23,19,9,6,-4
14,23,7,-29,0,14,-11,-23,17,8,7,-3
14,23,7,-28,0,13,-10,-23,16,8,7,-3
14,22,6,-27,1,13,-10,-23,15,7,7,-2
14,21,6,-27,1,12,-9,-23,14,6,7,-2
14,21,6,-27,1,12,-8,-23,13,5,7,-1
14,20,5,-26,1,11,-7,-22,13,5,7,-1
13,20,5,-25,1,11,-6,-22,12,4,6,-1
13,19,5,-24,1,11,-5,-21,11,3,6,-0
12,18,5,-23,1,10,-5,-21,10,3,6,-0
11,17,5,-22,1,10,-5,-21,10,2,7,-0
10,16,4,-20,1,9,-5,-21,9,1,7,-0
9,15,4,-19,0,9,-5,-21,8,1,6,-0
8,15,5,-18,-0,9,-5,-21,8,0,6,-0
8,16,6,-19,-1,10,-4,-20,7,0,6,-0
8,17,6,-19,-1,11,-4,-20,7,-0,5,-1
8,18,7,-21,-2,12,-4,-19,7,-1,5,-1
10,19,7,-22,-1,12,-5,-18,6,-1,5,0
10,19,6,-23,-1,12,-6,-18,6,-1,5,1
11,20,6,-24,-0,12,-6,-18,6,-1,5,1
11,20,6,-24,-0,12,-6,-18,6,-1,5,2
11,20,6,-24,-0,12,-6,-18,6,-1,5,2
11,20,6,-24,-0,12,-6,-18,6,-1,5,2
11,20,6,-24,-0,12,-6,-18,6,-1,5,2
9,17,6,-20,-0,10,-6,-17,5,-1,3,-0
7,14,5,-16,-1,8,-6,-17,5,-2,1,-3
7,13,4,-15,-0,8,-5,-17,5,-2,-0,-4
6,12,4,-14,-1,8,-5,-17,4,-2,-0,-4
6,12,4,-14,-0,7,-5,-16,4,-2,-1,-5
6,12,4,-14,-0,7,-5,-16,4,-2,-1,-5
6,12,4,-14,-0,7,-5,-16,4,-2,-1,-5
6,12,4,-14,-0,7,-5,-15,4,-2,-2,-5
6,12,4,-14,-1,7,-5,-15,4,-2,-2,-5
5,12,5,-13,-1,8,-4,-15,4,-1,-2,-5
4,12,6,-12,-2,8,-4,-15,4,-1,-2,-5
2,12,6,-11,-3,9,-3,-15,4,-1,-2,-5
1,12,7,-10,-4,9,-2,-15,4,-1,-3,-5
-1,12,8,-9,-5,10,-2,-14,4,-1,-3,-5
-2,12,9,-8,-7,10,-2,-14,4,-1,-3,-5
-4,12,9,-7,-8,11,-2,-13,4,-1,-4,-5
-5,12,10,-6,-8,11,-2,-13,5,-1,-4,-5
-5,12,10,-6,-8,11,-0,-13,5,-0,-4,-5
-5,12,10,-6,-9,11,1,-13,5,-0,-4,-5
-5,12,10,-6,-9,11,3,-13,5,0,-4,-5
-5,12,10,-6,-9,11,4,-13,6,0,-4,-5
-5,12,10,-6,-9,11,5,-13,6,0,-5,-5
-5,12,10,-6,-9,11,6,-13,6,1,-5,-6
-5,12,10,-6,-9,11,7,-13,6,1,-5,-7
-5,12,10,-6,-9,11,8,-13,6,1,-6,-7
-5,12,10,-6,-9,11,9,-12,6,1,-6,-7
-5,12,10,-6,-9,11,10,-12,6,1,-6,-7
-5,12,10,-6,-9,11,10,-12,6,1,-6,-7
-5,12,10,-6,-9,11,11,-11,6,1,-6,-7
-5,12,10,-6,-9,11,11,-11,6,1,-6,-7
-5,12,10,-6,-9,11,11,-11,6,1,-6,-7
-5,12,10,-6,-9,11,11,-11,6,1,-6,-7
-5,12,10,-6,-9,11,11,-11,6,1,-6,-7
-5,12,10,-6,-9,11,11,-11,6,1,-6,-7
-5,12,10,-6,-9,11,11,-11,6,1,-6,-7
-5,12,10,-6,-9,11,11,-11,6,1,-6,-7
-5,12,10,-6,-9,11,11,-11,6,1,-6,-7
-5,12,10,-6,-9,11,11,-11,6,1,-6,-7
-5,12,10,-6,-9,11,11,-10,6,2,-6,-7
-5,12,10,-6,-9,11,11,-10,6,2,-6,-7
-5,12,10,-6,-9,11,11,-10,6,2,-6,-7
-5,12,10,-6,-9,11,11,-10,6,2,-5,-7
-5,12,10,-6,-9,11,11,-9,6,2,-5,-7
-5,12,10,-6,-9,11,11,-9,6,2,-5,-7
-5,12,10,-6,-9,11,12,-9,6,2,-4,-7
-5,12,10,-6,-9,11,12,-9,6,2,-4,-7
-5,12,10,-6,-9,11,13,-9,6,2,-4,-7
-5,12,10,-6,-9,11,14,-8,6,2,-4,-7
-5,12,10,-6,-9,11,14,-8,6,2,-4,-7
-5,12,10,-6,-9,11,14,-7,6,2,-4,-7
-5,12,10,-6,-9,11,15,-7,6,2,-4,-7
-5,12,10,-6,-9,11,15,-6,6,2,-4,-7
-5,12,10,-6,-9,11,14,-6,6,2,-4,-7
-5,12,10,-6,-9,11,14,-6,5,2,-4,-7
-5,12,10,-6,-9,11,13,-6,5,2,-4,-7
-5,12,10,-6,-9,11,12,-6,5,2,-4,-7
-5,12,10,-5,-8,11,12,-6,5,2,-4,-7
-5,11,9,-5,-8,10,11,-5,4,2,-4,-7
-5,9,9,-4,-8,9,11,-5,4,2,-4,-7
-5,8,8,-3,-7,8,11,-5,4,1,-4,-7
-5,7,7,-2,-7,8,11,-4,4,1,-4,-7
-5,7,7,-2,-7,7,11,-4,4,1,-4,-7
-5,7,7,-2,-7,7,11,-4,4,1,-4,-7
-5,7,7,-2,-7,7,11,-4,3,1,-4,-7
-6,7,7,-1,-7,7,11,-4,3,1,-4,-7
-7,7,8,-0,-8,8,11,-4,3,1,-4,-7
-8,7,9,0,-9,8,11,-4,3,1,-4,-7
-10,7,9,2,-10,9,11,-4,3,1,-4,-7
-11,7,10,2,-10,9,12,-4,3,1,-4,-7
-11,7,10,3,-11,9,12,-4,3,1,-4,-7
-11,7,10,3,-11,9,13,-4,3,1,-4,-7
-11,7,10,3,-11,9,14,-4,3,1,-4,-7
-11,7,10,2,-10,9,14,-4,3,1,-4,-7
-10,7,9,1,-10,9,14,-4,3,1,-4,-7
-8,7,9,0,-9,8,15,-4,3,1,-4,-7
-7,7,8,-0,-8,8,15,-4,3,1,-4,-7
-6,7,8,-2,-7,8,15,-4,3,1,-4,-7
-6,8,8,-3,-7,9,15,-4,3,1,-4,-7
-5,9,9,-4,-8,9,15,-4,3,1,-4,-6
-5,11,9,-5,-8,10,15,-4,3,1,-4,-5
-5,12,10,-5,-8,11,15,-4,3,1,-4,-5
-5,12,10,-5,-9,11,15,-4,3,1,-4,-5
-5,12,10,-6,-9,11,15,-4,3,1,-4,-5
-5,12,10,-6,-9,11,15,-4,3,1,-4,-5
-5,12,10,-6,-9,11,15,-4,3,1,-4,-5
-5,12,10,-6,-9,11,15,-4,3,1,-5,-5
-5,12,10,-6,-9,11,15,-3,3,1,-5,-5
-5,12,10,-6,-9,11,15,-3,3,0,-5,-5
-5,12,10,-5,-8,11,15,-2,3,0,-6,-5
-5,11,9,-5,-8,10,15,-2,3,0,-6,-5
-5,9,9,-4,-8,9,15,-2,3,0,-6,-6
-5,8,8,-3,-7,8,15,-2,2,0,-6,-7
-5,7,7,-2,-7,8,15,-2,2,0,-6,-7
-5,7,7,-2,-7,7,15,-2,2,0,-6,-7
-5,7,7,-2,-7,7,15,-2,2,0,-6,-7
-5,7,7,-2,-7,7,15,-2,2,0,-6,-7
-5,7,7,-2,-7,7,15,-2,2,0,-6,-7
-5,7,7,-2,-7,7,15,-2,2,0,-6,-7
-5,7,7,-2,-7,7,15,-2,2,-0,-6,-7
-5,7,7,-2,-7,7,15,-2,2,-0,-6,-7
-6,7,7,-1,-7,7,15,-2,2,-1,-6,-7
-7,7,8,-0,-8,8,15,-2,2,-1,-6,-7
-8,7,9,0,-9,8,15,-2,2,-1,-6,-7
-10,7,9,2,-10,9,15,-2,2,-1,-6,-7
-11,7,10,2,-10,9,15,-2,2,-1,-6,-7
-11,7,10,3,-11,9,15,-2,2,-1,-6,-7
-11,7,10,3,-11,9,15,-2,2,-1,-6,-7
-11,7,10,3,-11,9,15,-2,2,-1,-6,-7
-11,7,10,2,-10,9,15,-2,2,-2,-6,-7
-10,7,9,1,-10,9,15,-2,2,-2,-6,-7
-8,7,9,0,-9,8,15,-2,2,-2,-7,-7
-7,7,8,-0,-8,8,15,-2,2,-2,-7,-7
-6,7,7,-1,-7,7,15,-2,2,-2,-8,-7
-6,7,7,-1,-7,7,15,-2,2,-2,-8,-7
-5,7,7,-2,-7,7,15,-2,2,-2,-8,-7
-5,7,7,-2,-7,7,15,-2,2,-2,-8,-7
-5,7,7,-2,-7,7,15,-2,2,-2,-8,-7
-5,7,7,-2,-7,7,15,-2,2,-2,-8,-7
-5,7,7,-2,-7,7,15,-2,2,-2,-8,-7
-5,7,7,-2,-7,7,15,-2,2,-2,-8,-7
-6,7,7,-1,-7,7,15,-2,2,-2,-8,-7
-7,7,8,-0,-8,8,15,-2,2,-2,-8,-7
-8,7,9,0,-9,8,15,-2,2,-2,-8,-7
-10,7,9,2,-10,9,15,-2,2,-2,-8,-7
-11,7,10,2,-10,9,15,-2,2,-2,-8,-7
-11,7,10,3,-11,9,15,-2,2,-1,-8,-7
-11,7,10,3,-11,9,15,-2,2,-1,-8,-7
-11,7,10,3,-11,9,15,-2,2,-1,-8,-7
-11,7,10,3,-11,9,14,-2,2,-1,-8,-7
-11,7,10,3,-11,9,14,-2,2,-1,-8,-7
-11,7,10,3,-11,9,13,-2,2,-1,-8,-7
-11,7,10,3,-11,9,12,-2,2,-1,-8,-7
-11,7,10,3,-11,9,12,-2,2,-1,-8,-7
-11,7,10,3,-11,9,11,-2,2,-1,-8,-7
-11,7,10,3,-11,9,11,-2,2,-1,-8,-7
-11,7,10,3,-11,9,11,-2,2,-1,-8,-7
-11,7,10,3,-11,9,12,-2,2,-1,-8,-7
-11,7,10,3,-11,9,12,-2,2,-1,-8,-7
-11,7,10,3,-11,9,13,-1,2,-1,-8,-7
-11,7,10,3,-11,9,14,-1,2,-1,-8,-7
-11,7,10,2,-10,9,14,-1,2,-1,-8,-7
-10,7,9,1,-10,9,14,-1,2,-0,-8,-7
-8,7,9,0,-9,8,15,-1,2,-0,-8,-7
-7,7,8,-0,-8,8,15,-1,2,0,-8,-7
-6,7,8,-2,-7,8,15,-1,2,0,-8,-7
-6,8,8,-3,-7,9,15,-1,2,0,-8,-7
-5,9,9,-4,-8,9,15,-1,2,0,-8,-7
-5,11,9,-5,-8,10,15,-1,2,0,-8,-7
-5,12,10,-5,-8,11,14,-1,2,0,-8,-7
-5,12,10,-5,-9,11,14,-1,2,0,-8,-7
-5,12,10,-6,-9,11,13,-1,2,0,-8,-7
-5,12,10,-6,-9,11,12,-1,2,0,-8,-7
-6,12,10,-5,-9,11,12,-1,2,0,-8,-7
-7,11,10,-3,-9,11,11,-1,2,0,-8,-7
-8,9,10,-2,-10,10,11,-1,2,0,-8,-7
-10,8,10,0,-10,10,11,-2,2,0,-8,-7
-11,7,10,2,-11,9,11,-2,2,0,-8,-7
-11,7,10,2,-11,9,11,-2,2,0,-8,-7
-11,7,10,3,-11,9,11,-2,2,0,-8,-7
-11,7,10,3,-11,9,11,-2,2,0,-8,-7
-11,7,10,3,-11,9,11,-2,2,0,-8,-7
-11,7,10,3,-11,9,11,-2,2,0,-8,-7
-11,7,10,3,-11,9,11,-1,2,0,-8,-7
-11,7,10,3,-11,9,11,-1,2,0,-8,-7
-11,7,10,3,-11,9,11,-1,2,0,-8,-7
-11,7,10,3,-11,9,11,-1,2,1,-8,-7
-11,7,10,3,-11,9,11,-1,2,1,-8,-7
-11,7,10,3,-11,9,11,-1,2,1,-8,-7
-11,7,10,2,-10,9,11,-1,2,1,-8,-7
-10,7,9,1,-10,9,11,-1,2,1,-8,-7
-8,7,9,0,-9,8,11,-1,2,1,-8,-7
-7,7,8,-0,-8,8,11,-1,2,1,-8,-7
-6,7,7,-1,-7,7,11,-1,2,1,-8,-7
-6,7,7,-1,-7,7,11,-1,2,1,-8,-7
-5,7,7,-2,-7,7,11,-1,3,1,-8,-7
-5,7,7,-2,-7,7,11,-1,3,1,-8,-7
-6,7,7,-1,-7,7,11,-1,3,1,-8,-7
-7,7,8,-0,-8,8,11,-1,3,1,-8,-7
-8,7,9,0,-9,8,11,-1,3,1,-8,-6
-10,7,9,2,-10,9,11,-1,3,1,-8,-5
-11,7,10,2,-10,9,11,-1,3,1,-8,-5
-11,7,10,3,-11,9,11,-1,3,1,-8,-5
-11,7,10,3,-11,9,11,-1,3,1,-8,-5
-11,7,10,3,-11,9,11,-2,2,1,-8,-5
-11,7,10,3,-11,9,11,-2,2,1,-8,-5
-11,7,10,3,-11,9,11,-2,2,1,-8,-5
-11,7,10,3,-11,9,11,-2,2,1,-8,-6
-11,7,10,3,-11,9,11,-2,2,1,-8,-7
-11,7,10,3,-11,9,11,-2,2,1,-8,-7
-11,7,10,3,-11,9,11,-2,2,1,-8,-7
-11,7,10,3,-11,9,11,-2,2,1,-8,-7
-11,7,10,3,-11,9,11,-2,2,1,-8,-7
-11,7,10,3,-11,9,11,-2,2,1,-8,-7
-11,7,10,3,-11,9,11,-2,2,1,-8,-7
-11,7,10,3,-11,9,11,-2,2,1,-8,-7
-11,7,10,3,-11,9,11,-2,2,1,-8,-7
-11,7,10,2,-10,9,11,-2,2,1,-8,-7
-10,7,9,1,-10,9,11,-2,2,1,-8,-7
-8,7,9,0,-9,8,11,-2,3,1,-8,-7
-7,7,8,-0,-8,8,11,-2,3,1,-8,-7
-6,7,7,-1,-7,7,11,-2,3,1,-8,-7
-6,7,7,-1,-7,7,11,-3,3,1,-8,-7
-5,7,7,-2,-7,7,11,-3,3,1,-8,-7
-5,7,7,-2,-7,7,11,-4,3,1,-8,-7
-5,7,7,-2,-7,7,11,-4,3,1,-8,-7
-5,7,7,-2,-7,7,11,-4,3,1,-8,-7
-5,7,7,-2,-7,7,11,-4,3,1,-8,-7
-5,7,7,-2,-7,7,11,-4,3,1,-8,-7
-5,7,7,-2,-7,7,11,-4,3,1,-8,-7
-5,7,7,-2,-7,7,11,-4,3,1,-8,-7
-5,7,7,-2,-7,7,11,-4,3,1,-8,-6
-5,7,7,-2,-7,7,11,-4,3,1,-8,-5
-5,7,7,-2,-7,7,11,-4,3,1,-8,-5
-5,7,7,-2,-7,7,11,-4,3,1,-8,-5
-5,7,7,-2,-7,7,11,-4,3,1,-8,-5
-5,7,7,-2,-7,7,11,-4,3,1,-8,-5
-6,7,7,-1,-7,7,11,-4,3,1,-8,-5
-7,7,8,-0,-8,8,11,-4,3,1,-8,-5
-8,7,9,0,-9,8,11,-4,3,1,-9,-6
-10,7,9,2,-10,9,11,-4,3,1,-9,-7
-11,7,10,2,-10,9,11,-4,3,1,-9,-7
-11,7,10,3,-11,9,11,-4,3,1,-9,-7
-11,7,10,3,-11,9,11,-4,3,1,-10,-7
-11,7,10,3,-11,9,11,-4,3,1,-10,-7
-11,7,10,3,-11,9,11,-4,3,1,-10,-7
-11,7,10,3,-11,9,11,-4,3,1,-10,-7
-11,7,10,3,-11,9,11,-4,3,2,-10,-7
-11,7,10,3,-11,9,11,-4,3,2,-10,-7
-11,7,10,3,-11,9,11,-4,3,2,-10,-7
-11,7,10,3,-11,9,11,-4,3,2,-10,-7
-11,7,10,3,-11,9,11,-4,3,2,-10,-6
-11,7,10,3,-11,9,11,-4,3,2,-10,-5
-11,7,10,3,-11,9,11,-4,3,2,-10,-5
-11,7,10,3,-11,9,11,-4,3,2,-10,-5
-11,7,10,3,-11,9,11,-4,3,2,-10,-5
-11,7,10,3,-11,9,11,-4,3,2,-10,-5
-11,7,10,3,-11,9,11,-4,3,2,-10,-5
-11,7,10,3,-11,9,11,-4,3,2,-10,-5
-11,7,10,3,-11,9,11,-4,3,2,-10,-6
-11,7,10,3,-11,9,11,-4,3,2,-10,-7
-11,7,10,3,-11,9,11,-4,3,2,-10,-7
-11,7,10,3,-11,9,11,-4,3,2,-10,-7
-11,7,10,3,-11,9,11,-4,3,2,-10,-7
-11,7,10,3,-11,9,11,-4,3,2,-10,-7
-11,7,10,3,-11,9,11,-4,3,2,-10,-7
-11,7,10,3,-11,9,11,-4,3,2,-10,-7
-11,7,10,3,-11,9,11,-4,3,2,-10,-6
-11,7,10,3,-11,9,11,-4,3,2,-10,-5
-11,7,10,3,-11,9,11,-4,3,2,-10,-5
-11,7,10,3,-11,9,11,-4,3,2,-10,-5
-11,7,10,3,-11,9,11,-4,3,2,-10,-5
-11,7,10,3,-11,9,11,-4,3,2,-10,-5
-11,6,10,3,-11,9,11,-4,3,2,-10,-5
-11,5,9,4,-10,8,11,-4,3,2,-10,-5
-11,4,9,5,-10,7,11,-4,3,2,-10,-5
-11,3,8,6,-9,6,11,-4,3,2,-10,-5
-11,2,7,6,-9,6,11,-4,3,2,-10,-5
-11,2,7,7,-9,5,11,-4,3,2,-10,-5
-11,2,7,7,-9,5,11,-4,3,2,-10,-5
-11,2,7,7,-9,5,11,-4,3,2,-10,-5
-11,2,7,6,-9,6,11,-4,3,2,-9,-5
-11,3,8,5,-9,6,11,-4,3,2,-9,-5
-11,4,9,5,-10,7,11,-4,3,2,-9,-5
-11,6,9,4,-10,8,11,-4,3,2,-8,-5
-11,6,10,3,-11,9,12,-4,3,2,-8,-5
-11,7,10,3,-11,9,12,-4,4,2,-8,-5
-11,7,10,3,-11,9,13,-4,4,3,-8,-5
-11,7,10,3,-11,9,14,-4,4,3,-8,-5
-11,7,10,3,-11,9,14,-4,4,3,-8,-5
-11,7,10,3,-11,9,14,-4,4,3,-8,-5
-11,7,10,3,-11,9,15,-4,4,3,-8,-5
-11,7,10,3,-11,9,15,-4,4,3,-8,-5
-11,7,10,3,-11,9,15,-4,4,3,-8,-5
-11,7,10,3,-11,9,15,-4,4,3,-8,-5
-11,7,10,3,-11,9,15,-4,4,3,-8,-5
-11,7,10,3,-11,9,15,-4,4,3,-8,-5
-11,7,10,3,-11,9,14,-4,4,3,-8,-5
-11,7,10,3,-11,9,14,-4,4,3,-8,-5
-11,7,10,3,-11,9,14,-4,4,3,-8,-5
-11,7,10,3,-11,9,14,-4,4,3,-8,-5
-11,7,10,3,-11,9,14,-4,4,3,-8,-5
-11,7,10,3,-11,9,14,-4,4,3,-8,-5
-11,7,10,3,-11,9,14,-4,4,3,-8,-5
-8,11,11,-3,-10,11,10,-4,5,3,-7,-3
-3,17,12,-11,-9,14,5,-4,6,4,-6,-1
-2,19,12,-14,-9,15,4,-4,6,4,-6,-0
-1,19,13,-15,-9,16,3,-4,7,4,-6,0
-1,21,13,-16,-9,16,3,-4,7,4,-6,0
0,22,13,-18,-9,17,1,-4,7,4,-6,1
1,24,14,-19,-9,18,-0,-4,7,4,-6,2
1,25,15,-21,-10,19,-2,-4,7,4,-6,2
1,26,16,-22,-10,20,-4,-4,7,4,-6,3
1,27,16,-22,-11,21,-5,-4,7,4,-6,3
1,27,16,-22,-11,21,-6,-5,7,4,-6,3
1,27,16,-23,-11,21,-7,-5,6,4,-6,4
1,27,16,-23,-11,21,-8,-5,6,4,-6,4
0,27,17,-22,-11,21,-9,-6,6,4,-6,3
-1,27,17,-22,-12,22,-10,-6,5,4,-6,3
-2,27,18,-21,-13,22,-10,-7,5,4,-6,2
-4,27,19,-19,-14,23,-11,-7,5,4,-6,2
-5,27,19,-18,-15,23,-12,-8,4,4,-6,1
-7,26,19,-16,-15,23,-12,-8,4,4,-6,0
-8,25,19,-14,-16,22,-12,-9,4,4,-6,-0
-10,24,19,-12,-17,22,-12,-9,3,3,-6,-1
-11,23,19,-11,-17,21,-12,-9,3,3,-6,-2
-11,23,19,-11,-17,21,-12,-10,3,3,-6,-2
-11,22,19,-10,-17,21,-12,-10,3,3,-6,-2
-11,22,19,-10,-17,21,-12,-11,3,3,-6,-2
-11,22,19,-10,-17,21,-12,-11,3,3,-6,-2
-11,22,19,-10,-17,21,-11,-11,3,3,-6,-1
-11,22,19,-10,-17,21,-10,-11,3,3,-6,-0
-11,22,19,-10,-17,21,-10,-11,3,3,-6,0
-11,22,19,-11,-17,21,-9,-11,3,3,-6,1
-10,22,19,-11,-16,21,-8,-11,3,3,-6,2
-8,22,18,-12,-15,20,-7,-10,3,3,-6,2
-7,22,17,-13,-14,20,-6,-10,3,3,-6,3
-6,22,17,-14,-13,19,-6,-10,3,3,-6,3
-6,22,17,-14,-13,19,-6,-10,4,3,-5,3
-5,22,16,-14,-13,19,-5,-9,4,4,-5,4
-5,22,16,-14,-13,19,-5,-9,4,4,-5,4
-5,22,16,-14,-13,19,-5,-9,4,4,-4,4
-5,22,16,-14,-13,19,-4,-9,4,4,-4,4
-5,22,16,-14,-13,19,-4,-9,4,4,-4,4
-5,22,16,-14,-13,19,-3,-9,4,4,-4,4
-5,22,16,-14,-12,19,-2,-9,4,4,-4,4
-4,21,15,-14,-11,17,-2,-9,4,4,-4,4
-2,20,13,-14,-10,16,-2,-9,4,4,-4,4
-1,18,12,-14,-8,15,-2,-9,3,4,-4,4
1,18,10,-15,-7,14,-2,-9,3,4,-4,4
2,17,10,-16,-6,13,-2,-9,3,4,-4,4
4,17,9,-16,-4,12,-2,-9,3,4,-4,4
5,17,8,-17,-3,12,-2,-9,3,3,-4,4
6,17,7,-18,-3,11,-2,-9,3,3,-4,4
6,17,7,-18,-3,11,-1,-9,3,3,-4,4
6,17,7,-18,-3,11,-0,-9,3,3,-4,4
6,17,7,-18,-3,11,1,-8,3,3,-4,4
6,17,7,-18,-3,11,2,-8,3,3,-4,4
5,16,7,-16,-3,11,3,-7,4,3,-4,4
4,15,7,-14,-3,10,5,-7,4,3,-4,4
2,13,7,-12,-4,10,6,-6,4,3,-4,4
1,13,7,-11,-5,10,7,-6,4,3,-4,3
-1,12,8,-9,-6,10,8,-5,4,3,-5,3
-2,12,9,-8,-7,10,8,-4,4,3,-5,2
-4,12,9,-7,-8,11,8,-3,4,3,-5,2
-5,12,10,-5,-8,11,8,-2,4,3,-6,1
-7,11,10,-3,-9,11,10,-1,4,3,-6,0
-8,9,10,-2,-10,10,11,-1,4,3,-6,-0
-10,8,10,0,-10,10,13,0,4,3,-6,-1
-11,7,10,3,-11,9,14,1,4,3,-6,-2
-13,6,10,5,-11,9,14,2,4,3,-6,-3
-14,4,10,7,-12,8,15,3,4,3,-6,-3
-16,3,10,9,-12,8,15,4,4,3,-6,-4
-17,2,10,11,-12,7,15,5,4,3,-6,-4
-17,1,9,12,-12,6,15,5,4,3,-6,-4
-17,-1,9,13,-12,5,15,6,4,3,-7,-5
-17,-2,8,14,-11,4,15,6,4,2,-7,-5
-18,-3,8,16,-11,4,15,6,4,2,-8,-5
-19,-4,7,17,-12,3,15,6,4,2,-8,-5
-20,-6,7,19,-12,2,15,7,4,2,-8,-5
-22,-7,7,22,-12,2,15,7,4,2,-8,-5
-23,-8,7,23,-13,2,15,7,4,2,-8,-5
-23,-8,7,23,-13,2,16,7,4,2,-8,-5
-23,-8,7,24,-13,1,16,7,4,2,-8,-5
-23,-8,7,24,-13,1,17,8,4,2,-8,-5
-23,-8,7,23,-12,1,18,8,5,2,-8,-5
-21,-8,6,22,-12,1,19,9,5,2,-7,-5
-20,-8,6,22,-11,0,20,9,5,3,-7,-5
-19,-8,5,20,-10,0,21,10,5,3,-6,-5
-18,-7,5,19,-10,1,21,10,6,3,-6,-5
-18,-4,7,16,-11,3,21,10,6,3,-6,-5
-17,-0,9,13,-12,6,21,10,6,3,-6,-5
-17,3,11,10,-14,8,21,10,6,3,-6,-5
-18,7,13,7,-15,11,21,10,6,3,-6,-5
-29,-14,7,32,-15,-1,21,10,6,3,-8,-8
-29,7,20,16,-24,15,21,10,7,4,-8,-8
-29,7,20,16,-24,15,21,10,7,6,-10,-10
-29,7,20,16,-24,15,25,12,11,9,-10,-10
-29,17,26,7,-28,23,31,15,18,16,-10,-13
-29,17,26,7,-28,23,38,23,27,21,-11,-19
-29,17,26,7,-28,23,38,24,28,25,-11,-21
-29,27,32,-1,-32,31,38,24,28,29,-8,-21
-24,43,38,-18,-34,41,35,21,23,34,1,-13
-24,43,38,-18,-34,41,25,14,17,36,8,-8
-6,53,35,-39,-26,43,15,8,8,37,17,6
6,53,29,-48,-17,39,8,3,3,40,26,15
12,53,26,-52,-13,37,-9,-8,-9,40,37,23
24,53,20,-60,-5,33,-22,-20,-33,31,52,37
48,63,13,-86,8,33,-39,-36,-64,17,66,54
48,63,13,-86,8,33,-56,-51,-89,-3,75,65
60,79,17,-107,10,41,-70,-63,-110,-20,89,79
84,89,10,-132,23,41,-86,-77,-129,-33,111,101
108,120,17,-174,27,57,-103,-92,-150,-48,132,126
137,140,13,-212,40,63,-117,-102,-171,-61,159,151
155,151,10,-233,48,65,-137,-115,-192,-80,183,179
155,151,10,-233,48,65,-157,-127,-210,-95,206,206
161,125,-8,-216,63,43,-177,-142,-226,-108,224,229
179,125,-17,-229,76,37,-187,-143,-231,-109,255,256
215,120,-39,-250,103,21,-187,-143,-233,-109,280,281
244,120,-54,-271,124,11,-181,-140,-233,-109,296,304
268,115,-70,-284,143,-1,-181,-136,-228,-108,312,320
280,89,-92,-271,162,-25,-181,-127,-220,-102,318,326
292,63,-113,-259,181,-49,-181,-122,-213,-98,320,329
304,48,-129,-254,196,-65,-174,-113,-203,-88,330,334
358,68,-144,-309,226,-67,-157,-97,-186,-75,332,343
328,22,-156,-250,223,-93,-144,-86,-176,-69,332,343
328,-24,-184,-212,243,-129,-123,-68,-162,-62,318,331
340,-65,-215,-187,268,-165,-93,-47,-143,-52,307,318
304,-147,-246,-94,276,-217,-70,-31,-125,-44,276,284
268,-198,-258,-27,272,-245,-43,-15,-110,-40,233,251
256,-249,-283,24,285,-281,-9,12,-93,-36,185,212
227,-280,-286,70,276,-295,28,35,-76,-36,106,162
191,-301,-280,113,259,-299,48,44,-69,-38,32,104
161,-316,-274,146,245,-301,62,46,-62,-38,-20,65
131,-306,-252,159,219,-283,79,53,-55,-37,-44,34
108,-291,-230,163,196,-263,92,60,-48,-34,-64,12
78,-291,-215,184,175,-253,92,60,-45,-33,-78,-16
72,-265,-197,168,160,-231,92,64,-37,-29,-78,-24
72,-229,-175,138,145,-203,92,65,-28,-24,-73,-24
84,-198,-163,104,141,-183,82,67,-22,-19,-65,-19
96,-167,-150,70,137,-163,79,67,-16,-14,-60,-16
78,-137,-122,58,112,-133,79,71,-8,-8,-55,-13
42,-116,-92,66,78,-105,72,71,-2,-4,-49,-13
36,-96,-76,54,65,-87,65,69,6,3,-44,-10
12,-91,-61,66,46,-75,55,60,8,5,-42,-10
12,-70,-48,49,38,-59,55,53,12,8,-40,-13
-12,-70,-36,66,21,-51,55,48,13,9,-38,-13
-41,-70,-21,87,-0,-41,52,39,13,9,-38,-13
-12,-39,-17,41,8,-27,48,31,16,11,-35,-13
-18,-39,-14,45,4,-25,42,24,16,11,-33,-13
-35,-39,-5,58,-9,-19,35,19,16,11,-33,-16
-35,-39,-5,58,-9,-19,28,15,16,11,-33,-19
-35,-24,4,45,-15,-7,28,14,17,11,-33,-19
-39,-23,6,47,-18,-5,26,13,18,11,-32,-20
-41,-22,8,47,-19,-4,25,13,18,11,-31,-21
-41,-21,9,46,-20,-3,25,13,18,10,-30,-21
-41,-20,10,46,-21,-1,25,12,18,10,-30,-21
-41,-18,10,44,-21,-0,25,12,18,10,-29,-21
-39,-16,11,41,-21,1,25,12,18,10,-29,-21
-38,-13,12,38,-21,2,25,12,18,10,-28,-21
-37,-11,13,35,-21,4,25,12,18,10,-28,-21
-36,-9,13,33,-22,5,25,12,18,10,-28,-21
-35,-8,13,32,-22,5,25,12,18,10,-27,-21
-35,-8,13,32,-21,5,25,12,18,10,-27,-21
-35,-8,13,32,-21,5,25,12,18,10,-26,-21
-35,-8,13,32,-21,5,25,12,18,10,-26,-21
-35,-8,13,32,-21,5,25,12,18,10,-25,-21
-35,-8,13,32,-21,5,25,12,18,9,-25,-21
-35,-8,13,32,-21,5,25,12,18,9,-24,-21
-35,-8,13,32,-21,5,24,12,18,9,-24,-21
-35,-8,13,32,-21,5,24,12,18,9,-24,-21
-35,-8,13,32,-21,5,23,12,18,9,-24,-21
-35,-8,13,32,-21,5,22,12,18,9,-24,-21
-35,-8,13,32,-21,5,22,12,18,9,-24,-21
-35,-8,13,32,-21,5,22,12,18,9,-23,-21
-35,-8,13,32,-21,5,21,12,18,8,-23,-21
-35,-8,13,32,-21,5,21,12,18,8,-23,-21
-35,-8,13,31,-21,6,21,12,18,8,-22,-21
-33,-7,13,30,-21,6,21,12,18,8,-22,-21
-32,-6,13,28,-20,6,21,12,18,8,-21,-21
-31,-4,13,26,-20,7,21,12,18,8,-21,-21
-30,-4,13,24,-19,7,21,12,18,8,-21,-21
-29,-3,13,24,-19,7,21,12,18,8,-20,-21
-29,-3,13,24,-19,7,21,12,18,8,-20,-21
-29,-3,13,24,-19,7,21,12,18,8,-20,-21
-29,-4,13,24,-19,7,21,12,18,8,-20,-22
-29,-5,13,25,-19,6,21,11,18,8,-20,-22
-29,-6,12,26,-18,5,21,11,18,8,-20,-23
-29,-7,11,27,-18,4,21,11,18,8,-20,-23
-30,-8,11,28,-18,4,21,10,18,8,-20,-24
-31,-8,11,29,-19,4,21,10,18,8,-20,-24
-32,-8,12,30,-19,4,21,10,18,8,-20,-24
-34,-8,13,31,-20,5,21,10,18,8,-20,-24
-35,-8,13,32,-21,5,21,10,18,8,-20,-24
-37,-8,14,33,-22,6,21,10,18,8,-20,-25
-38,-8,15,34,-23,6,21,10,18,8,-20,-25
-40,-8,16,35,-25,7,21,10,18,8,-20,-26
-41,-8,16,36,-25,7,21,10,18,8,-20,-27
-41,-8,16,36,-25,7,21,10,18,8,-20,-27
-41,-8,17,36,-26,7,21,10,18,8,-20,-27
-41,-8,17,36,-26,7,21,10,18,8,-20,-27
-41,-8,16,36,-25,7,21,10,18,8,-20,-27
-39,-8,16,35,-24,7,21,10,19,8,-20,-27
-38,-8,15,34,-23,6,21,10,19,8,-20,-27
-37,-8,14,33,-22,6,21,10,19,8,-20,-27
-36,-8,14,32,-22,6,21,10,19,8,-20,-27
-35,-7,15,31,-22,7,21,10,19,8,-20,-27
-35,-6,15,30,-22,7,21,10,20,8,-19,-27
-35,-4,16,29,-23,8,21,10,20,8,-19,-27
-35,-4,16,28,-23,9,21,10,20,8,-19,-27
-35,-3,16,28,-23,9,21,10,20,8,-19,-27
-35,-3,17,28,-23,9,21,10,20,8,-19,-27
-35,-3,17,28,-23,9,21,10,20,9,-19,-27
-35,-3,17,27,-24,10,21,10,21,9,-19,-27
-35,-2,17,27,-24,11,21,10,21,9,-19,-27
-35,-1,18,26,-25,11,21,10,21,9,-19,-27
-35,1,19,24,-25,12,21,10,22,9,-19,-27
-35,2,19,24,-25,13,21,10,22,9,-19,-27
-35,2,19,24,-26,13,21,10,22,9,-19,-28
-35,2,19,24,-26,13,21,9,22,9,-19,-28
-35,2,19,24,-26,13,21,9,22,10,-19,-29
-35,2,19,24,-26,13,21,8,22,10,-19,-29
-35,2,19,24,-26,13,20,8,22,10,-19,-29
-35,2,19,24,-26,13,20,8,23,10,-19,-30
-35,2,19,24,-26,13,19,8,23,10,-19,-30
-35,2,19,24,-26,13,18,8,23,10,-19,-30
-35,2,19,24,-26,13,18,8,24,10,-19,-30
-35,2,19,24,-26,13,18,8,24,10,-19,-30
-35,2,19,24,-26,13,18,8,24,11,-19,-30
-35,2,20,23,-26,14,18,8,25,11,-19,-30
-35,3,20,22,-26,14,18,8,25,11,-19,-30
-35,4,21,22,-27,15,18,8,25,11,-19,-30
-35,6,22,21,-27,16,18,8,25,12,-19,-30
-35,6,22,20,-27,17,18,8,26,12,-19,-30
-35,7,22,20,-28,17,18,8,26,12,-19,-30
-35,7,23,19,-28,17,18,8,26,12,-19,-30
-35,7,23,19,-28,17,18,8,27,13,-19,-30
-35,7,23,19,-28,17,18,8,27,13,-19,-30
-35,7,23,19,-28,17,18,9,28,13,-19,-30
-35,7,23,19,-28,17,18,9,28,13,-19,-31
-35,7,23,19,-28,17,18,10,29,13,-19,-32
-36,7,23,20,-28,17,18,10,30,14,-19,-32
-37,7,23,21,-29,18,18,10,30,14,-19,-32
-38,7,24,22,-30,18,18,10,31,14,-19,-32
-40,7,25,23,-31,19,18,10,31,14,-19,-32
-41,7,25,23,-31,19,18,10,32,15,-19,-32
-41,7,25,24,-32,19,18,11,33,15,-19,-32
-41,7,26,24,-32,19,18,11,33,16,-19,-32
-41,7,26,24,-32,19,18,11,34,16,-19,-32
-41,7,26,23,-32,19,18,12,35,17,-19,-32
-39,8,26,21,-31,20,18,12,36,17,-19,-32
-38,9,26,19,-31,20,18,13,37,18,-19,-32
-37,11,26,17,-30,21,18,13,37,19,-19,-32
-35,12,26,15,-30,21,18,14,38,19,-18,-32
-34,13,26,13,-29,22,19,14,39,20,-18,-32
-32,15,26,11,-29,22,20,15,40,20,-18,-32
-31,16,26,9,-28,23,21,15,40,21,-17,-32
-30,17,26,7,-28,23,21,15,41,21,-17,-32
-29,18,27,6,-29,24,21,15,42,22,-16,-32
-29,20,27,5,-29,25,21,15,42,22,-16,-32
-29,21,28,4,-29,26,21,15,43,23,-15,-32
-29,22,28,3,-29,27,21,15,43,23,-15,-32
-27,22,28,2,-29,26,20,15,44,24,-14,-32
-26,22,27,0,-28,26,20,15,44,24,-14,-31
-25,22,26,-0,-27,26,19,15,44,24,-14,-30
-24,23,26,-2,-26,26,18,15,45,24,-13,-30
-24,24,27,-3,-26,27,17,15,45,24,-13,-30
-23,25,27,-4,-27,27,16,15,45,24,-12,-30
-23,26,28,-5,-27,28,15,14,45,24,-12,-30
-23,27,28,-6,-27,29,15,14,45,24,-11,-29
-21,29,29,-8,-27,30,15,13,44,24,-11,-28
-20,30,29,-10,-27,30,15,13,44,24,-10,-27
-19,31,29,-12,-26,31,15,12,44,24,-10,-25
-17,33,29,-14,-26,31,14,12,43,24,-9,-24
-16,34,29,-16,-25,32,14,12,43,24,-9,-23
-14,35,29,-19,-25,32,13,12,42,24,-8,-23
-13,36,29,-21,-24,33,12,12,42,24,-7,-22
-11,37,28,-22,-23,33,11,12,41,24,-6,-21
-10,37,28,-24,-22,33,10,11,40,24,-4,-20
-8,38,27,-25,-21,32,10,10,39,23,-3,-18
-7,38,26,-26,-20,32,9,9,38,23,-2,-17
-5,38,26,-27,-19,31,8,8,37,22,-1,-15
-4,38,25,-28,-18,31,6,8,36,22,1,-13
-2,38,24,-29,-17,30,5,7,35,21,2,-12
-1,38,23,-30,-16,30,3,7,33,20,3,-9
1,38,23,-31,-15,29,2,7,32,19,4,-8
2,38,22,-32,-14,29,1,6,31,18,5,-6
4,38,21,-33,-13,28,-0,6,30,18,6,-5
5,38,20,-34,-12,28,-1,5,28,17,6,-3
6,37,19,-35,-11,27,-2,5,27,16,7,-2
6,36,19,-34,-10,26,-3,5,26,15,7,-0
6,35,18,-33,-10,25,-4,5,25,14,7,1
6,34,17,-32,-10,24,-5,5,23,13,8,2
6,33,17,-31,-9,23,-5,5,22,12,8,3
6,31,16,-30,-8,22,-5,4,21,11,8,4
6,30,15,-29,-8,21,-5,4,20,10,8,5
6,29,14,-28,-7,20,-5,3,18,10,8,6
6,28,14,-27,-7,20,-5,3,17,9,8,6
6,28,14,-27,-7,20,-5,3,16,8,8,7
6,27,13,-27,-7,19,-5,3,16,7,7,8
6,27,13,-27,-7,19,-5,3,15,7,7,8
6,27,13,-27,-7,19,-5,3,14,6,7,9
6,27,13,-27,-7,19,-5,3,14,6,7,9
6,27,13,-27,-7,19,-5,3,13,5,7,9
6,27,13,-27,-7,19,-5,3,13,5,7,9
6,27,13,-27,-7,19,-5,3,12,4,6,9
6,27,13,-27,-7,19,-5,3,11,4,6,9
6,27,13,-27,-7,19,-5,3,11,3,6,9
6,27,13,-27,-7,19,-5,3,10,3,5,9
6,27,13,-27,-7,19,-5,3,10,2,5,9
6,27,13,-27,-7,19,-4,3,10,2,4,8
6,27,13,-27,-7,19,-4,4,9,2,4,8
6,27,13,-27,-7,19,-3,4,9,1,3,7
6,27,13,-27,-7,19,-2,5,9,1,3,7
6,27,13,-27,-7,19,-2,5,9,1,2,7
6,27,13,-27,-7,19,-2,5,9,1,1,6
6,27,13,-27,-7,19,-2,5,9,1,1,6
6,27,13,-27,-7,19,-2,5,9,1,1,6
6,27,13,-27,-7,19,-2,5,9,1,1,6
6,27,13,-27,-7,19,-2,5,9,1,1,6
6,27,13,-27,-7,19,-2,5,9,1,1,6
2,26,14,-22,-9,19,0,5,9,0,-1,5
-3,23,16,-17,-11,19,3,5,8,-0,-3,4
-4,23,16,-15,-12,19,4,5,8,-1,-4,4
-5,22,16,-14,-13,19,5,5,8,-1,-4,4
-5,22,16,-14,-13,19,5,5,8,-1,-4,4
-5,22,16,-14,-13,19,6,4,8,-0,-5,4
-5,22,16,-14,-13,19,6,4,8,-0,-5,4
-5,22,16,-14,-13,19,7,3,8,0,-5,4
-5,22,16,-14,-13,19,8,3,8,0,-6,4
-5,22,16,-14,-13,19,8,3,8,0,-6,4
-5,22,16,-14,-13,19,8,3,8,0,-7,4
-5,22,16,-14,-13,19,8,3,8,0,-7,4
-5,22,16,-14,-13,19,8,3,8,0,-8,3
-5,22,16,-14,-13,19,8,3,8,1,-8,2
-5,22,16,-14,-13,19,8,3,8,1,-8,1
-5,22,16,-14,-13,19,8,3,8,1,-8,-0
-6,22,16,-14,-13,19,8,3,8,1,-8,-2
-7,21,16,-12,-14,19,8,3,8,1,-8,-2
-8,20,16,-10,-14,18,8,3,8,1,-9,-3
-10,18,16,-8,-15,18,8,3,8,1,-9,-4
-11,18,16,-7,-15,17,8,3,8,1,-10,-5
-11,17,16,-6,-15,17,8,3,8,1,-10,-5
-11,17,16,-6,-15,17,8,3,8,1,-10,-6
-11,17,16,-6,-15,17,8,3,8,1,-11,-7
-11,17,16,-6,-15,17,8,3,8,1,-11,-7
-11,17,16,-6,-15,17,8,2,8,1,-11,-7
-11,17,16,-6,-15,17,8,2,8,1,-11,-7
-11,17,16,-6,-15,17,8,2,8,1,-11,-7
-11,17,16,-6,-15,17,8,2,8,1,-11,-7
-11,17,16,-6,-15,17,8,2,8,1,-11,-7
-11,17,16,-6,-15,17,8,2,8,1,-11,-7
-11,17,16,-6,-15,17,8,2,8,1,-11,-7
-11,17,16,-6,-15,17,8,2,8,1,-11,-7
-11,17,16,-6,-15,17,8,1,8,1,-11,-7
-11,17,16,-6,-15,17,8,1,8,1,-11,-7
-11,17,16,-6,-15,17,8,1,8,1,-11,-7
-11,18,17,-6,-15,18,8,1,8,1,-11,-7
-11,19,17,-7,-16,18,8,1,8,1,-11,-7
-11,20,18,-8,-16,19,8,0,8,1,-11,-7
-11,21,19,-9,-17,20,8,-0,8,1,-11,-7
-11,22,19,-10,-17,21,8,-1,8,1,-11,-7
-11,22,19,-10,-17,21,8,-1,8,1,-11,-7
-11,22,19,-10,-17,21,8,-1,8,1,-11,-7
-11,22,19,-10,-17,21,8,-2,8,1,-11,-7
-11,22,19,-10,-17,21,8,-2,8,1,-11,-7
-11,22,19,-10,-17,21,8,-2,8,1,-11,-7
-11,22,19,-10,-17,21,8,-2,8,1,-11,-7
-11,22,19,-10,-17,21,8,-2,7,1,-11,-7
-11,22,19,-10,-17,21,8,-2,7,1,-11,-7
-11,22,19,-10,-17,21,8,-3,7,1,-11,-7
-11,22,19,-10,-17,21,8,-3,7,1,-11,-7
-11,22,19,-10,-17,21,8,-4,7,0,-11,-7
-11,22,19,-10,-17,21,8,-4,7,0,-11,-7
-11,21,19,-9,-16,20,8,-4,7,0,-11,-7
-11,20,18,-8,-16,19,8,-4,6,0,-11,-7
-11,18,17,-7,-16,18,8,-4,6,0,-11,-7
-11,18,17,-6,-15,18,8,-4,6,0,-11,-7
-11,17,17,-6,-15,17,8,-4,6,0,-11,-7
-11,17,16,-6,-15,17,8,-4,6,-0,-11,-7
-11,17,16,-6,-15,17,8,-4,6,-0,-11,-7
-11,17,16,-6,-15,17,8,-4,6,-1,-11,-8
-11,17,16,-6,-15,17,8,-5,5,-1,-11,-8
-11,17,16,-6,-15,17,8,-5,5,-1,-11,-9
-11,17,16,-6,-15,17,8,-5,5,-1,-11,-9
-11,17,16,-6,-15,17,8,-6,5,-2,-11,-10
-11,17,16,-6,-15,17,8,-6,4,-2,-11,-10
-11,17,16,-6,-15,17,8,-6,4,-2,-11,-10
-11,17,16,-6,-15,17,8,-6,4,-2,-11,-10
-12,17,16,-5,-15,17,8,-6,4,-2,-11,-10
-13,16,16,-3,-16,17,8,-6,4,-2,-11,-10
-14,15,16,-2,-16,16,8,-7,4,-2,-11,-10
-16,13,16,0,-17,16,8,-7,4,-2,-11,-10
-17,13,16,2,-17,15,8,-7,4,-2,-11,-10
-17,12,16,2,-17,15,8,-8,4,-2,-11,-10
-17,12,16,3,-17,15,8,-8,4,-2,-11,-10
-17,12,16,3,-17,15,8,-8,3,-2,-11,-10
-17,12,16,3,-17,15,8,-8,3,-3,-11,-10
-17,12,16,3,-17,15,8,-8,3,-3,-11,-10
-17,12,16,3,-17,15,8,-9,3,-3,-11,-10
-17,12,16,3,-17,15,8,-9,3,-3,-11,-10
-17,13,16,2,-17,15,8,-9,3,-3,-11,-10
-15,14,16,0,-16,16,8,-9,3,-3,-11,-10
-14,15,16,-2,-16,16,8,-9,3,-3,-11,-10
-13,16,16,-4,-16,17,8,-9,3,-3,-11,-10
-12,17,16,-5,-15,17,8,-10,3,-3,-11,-10
-12,17,16,-5,-15,17,8,-10,3,-3,-11,-10
-11,17,16,-6,-15,17,8,-10,3,-3,-11,-10
-11,17,16,-6,-15,17,8,-11,3,-3,-11,-10
-11,17,16,-6,-15,17,8,-11,3,-3,-11,-10
-11,17,16,-6,-15,17,8,-11,3,-3,-11,-10
-11,17,16,-6,-15,17,8,-11,3,-3,-11,-10
-11,17,16,-6,-15,17,8,-11,2,-3,-11,-10
-12,17,17,-5,-15,17,8,-11,2,-3,-11,-10
-13,17,17,-5,-16,18,7,-12,2,-3,-11,-10
-14,17,18,-4,-17,18,6,-12,1,-3,-11,-10
-16,17,19,-3,-18,19,5,-13,1,-3,-11,-10
-17,17,19,-2,-19,19,5,-13,1,-3,-11,-10
-17,17,19,-2,-19,19,5,-13,1,-4,-11,-10
-17,17,19,-2,-19,19,5,-14,1,-4,-11,-10
-17,17,19,-2,-19,19,5,-14,1,-4,-11,-10
-17,17,19,-2,-19,19,4,-15,1,-3,-11,-10
-15,17,19,-3,-18,19,3,-15,1,-3,-11,-10
-14,17,18,-4,-17,18,1,-15,1,-3,-10,-10
-13,17,17,-5,-16,18,-0,-15,2,-2,-10,-10
-12,18,17,-6,-16,18,-2,-15,2,-1,-9,-10
-12,20,18,-8,-16,20,-3,-16,2,-1,-9,-9
-11,22,19,-10,-17,21,-4,-17,3,0,-8,-9
-11,25,21,-12,-18,23,-5,-17,3,1,-7,-8
-10,29,23,-17,-19,26,-6,-19,3,2,-6,-7
-6,36,25,-24,-19,30,-8,-20,4,3,-4,-6
-2,43,27,-34,-19,34,-10,-21,4,4,-2,-5
2,51,29,-43,-19,39,-13,-22,5,5,-1,-3
5,58,32,-51,-20,43,-15,-24,5,6,1,-2
6,64,36,-57,-22,48,-18,-25,6,6,3,0
6,71,40,-62,-25,53,-21,-26,6,6,4,2
6,77,44,-68,-27,58,-23,-28,6,7,5,4
5,83,47,-71,-30,63,-26,-29,6,7,6,6
3,86,50,-73,-33,66,-28,-30,5,7,7,7
1,89,53,-73,-36,69,-31,-32,5,7,7,8
-2,92,56,-73,-39,72,-33,-33,5,7,8,8
-0,100,61,-82,-41,78,-36,-36,2,6,8,10
6,115,66,-98,-43,88,-39,-40,-2,4,8,12
6,115,66,-98,-43,88,-49,-42,-7,2,10,12
24,115,57,-111,-30,81,-49,-42,-7,2,14,15
36,104,44,-111,-17,69,-46,-40,-2,6,17,20
42,89,32,-103,-7,55,-43,-31,6,11,21,26
48,84,26,-103,-0,49,-43,-27,8,13,25,26
48,53,7,-77,12,25,-43,-26,8,14,26,26
42,43,4,-65,12,19,-39,-22,8,17,30,29
42,33,-2,-56,16,11,-36,-18,6,20,32,29
42,17,-11,-43,23,-1,-29,-13,2,21,35,31
54,7,-24,-43,35,-13,-29,-11,-6,23,43,37
66,2,-33,-48,46,-21,-29,-11,-16,23,48,43
78,-14,-48,-43,61,-37,-32,-11,-26,25,57,48
78,-49,-70,-14,76,-65,-39,-13,-38,25,64,54
78,-85,-92,16,90,-93,-49,-18,-56,23,70,56
96,-96,-107,11,107,-107,-49,-18,-70,21,79,65
131,-111,-135,-1,139,-131,-49,-22,-89,19,89,70
137,-111,-138,-5,143,-133,-53,-24,-109,3,97,81
137,-132,-150,11,152,-149,-56,-31,-129,-15,102,84
155,-132,-159,-1,164,-155,-63,-36,-147,-35,102,90
155,-157,-175,20,175,-175,-70,-47,-167,-59,102,90
143,-183,-184,49,177,-191,-80,-56,-178,-81,102,93
167,-183,-197,32,194,-199,-86,-61,-184,-94,102,101
173,-198,-209,41,204,-213,-96,-81,-196,-106,100,104
197,-208,-227,32,226,-229,-100,-93,-203,-118,100,109
197,-229,-240,49,234,-245,-100,-100,-210,-130,100,118
197,-260,-258,75,247,-269,-117,-115,-221,-144,98,120
221,-270,-277,66,268,-285,-130,-124,-227,-156,98,126
239,-275,-289,58,283,-295,-140,-131,-232,-163,100,137
262,-275,-301,41,300,-303,-160,-138,-235,-169,100,148
262,-296,-314,58,308,-319,-167,-143,-239,-175,97,156
268,-301,-320,58,314,-325,-167,-140,-239,-180,93,165
268,-301,-320,58,314,-325,-177,-145,-239,-186,84,170
304,-285,-329,20,333,-325,-181,-138,-233,-189,73,179
292,-285,-323,28,325,-321,-181,-136,-228,-191,55,179
280,-285,-317,37,316,-317,-177,-136,-227,-195,35,176
274,-285,-314,41,312,-315,-171,-136,-225,-200,21,176
262,-285,-308,49,304,-311,-164,-140,-222,-201,7,176
256,-285,-305,54,300,-309,-160,-150,-221,-201,-4,176
244,-296,-305,70,295,-313,-160,-156,-216,-197,-11,176
233,-296,-298,79,287,-309,-157,-156,-207,-192,-28,176
233,-270,-283,58,276,-289,-144,-150,-196,-188,-40,176
250,-255,-283,32,283,-283,-137,-149,-189,-184,-47,176
233,-270,-283,58,276,-289,-134,-147,-186,-181,-56,176
227,-270,-280,62,272,-287,-130,-147,-182,-177,-67,176
227,-275,-283,66,274,-291,-130,-149,-179,-175,-76,173
227,-275,-283,66,274,-291,-130,-149,-177,-170,-82,173
227,-280,-286,70,276,-295,-123,-147,-169,-163,-82,173
209,-280,-277,83,264,-289,-123,-147,-167,-158,-85,173
191,-280,-268,96,251,-283,-123,-147,-163,-154,-89,168
191,-275,-264,92,249,-279,-123,-147,-157,-148,-89,168
215,-239,-255,45,251,-259,-113,-143,-150,-139,-80,176
227,-219,-249,20,251,-247,-110,-142,-144,-132,-74,176
203,-219,-237,37,234,-239,-110,-140,-138,-125,-67,173
197,-219,-234,41,230,-237,-103,-136,-130,-116,-56,170
197,-219,-234,41,230,-237,-103,-133,-124,-109,-51,162
179,-244,-240,75,228,-251,-93,-129,-118,-103,-49,151
161,-265,-243,104,223,-261,-100,-127,-114,-96,-46,134
161,-270,-246,108,226,-265,-90,-122,-106,-87,-37,126
149,-280,-246,125,221,-269,-76,-109,-91,-71,-26,95
144,-263,-233,115,211,-254,-62,-98,-75,-55,-21,67
141,-251,-224,107,203,-243,-54,-92,-66,-47,-21,52
137,-239,-215,100,196,-233,-50,-86,-60,-41,-22,42
134,-229,-207,94,190,-224,-46,-82,-55,-37,-23,34
131,-218,-199,86,183,-214,-43,-77,-50,-33,-24,26
128,-205,-190,78,176,-203,-40,-71,-45,-29,-26,18
125,-193,-181,70,169,-193,-37,-65,-41,-25,-28,9
122,-180,-172,62,161,-182,-35,-58,-36,-22,-31,1
119,-167,-162,54,153,-170,-32,-52,-32,-18,-33,-7
115,-154,-152,46,145,-159,-30,-47,-28,-15,-35,-13
110,-142,-142,39,137,-148,-27,-41,-24,-13,-37,-20
106,-129,-132,31,128,-136,-25,-35,-21,-10,-38,-26
100,-117,-122,26,119,-125,-22,-30,-17,-8,-40,-32
92,-106,-111,22,109,-114,-18,-25,-14,-5,-41,-36
83,-95,-100,20,99,-102,-14,-20,-11,-3,-42,-41
75,-85,-90,18,88,-92,-10,-16,-7,-1,-43,-45
67,-75,-79,15,78,-81,-5,-12,-5,1,-43,-48
60,-65,-70,11,69,-70,-0,-8,-2,2,-44,-50
54,-54,-61,7,61,-60,5,-5,0,3,-44,-52
48,-44,-51,3,52,-50,10,-2,2,4,-44,-53
41,-34,-41,-0,43,-40,13,1,4,5,-43,-54
31,-24,-30,-2,32,-29,16,3,6,6,-42,-54
21,-13,-19,-3,20,-17,18,6,8,7,-40,-55
11,-3,-7,-5,9,-6,20,8,10,9,-38,-55
1,6,3,-6,-1,4,21,10,12,10,-37,-54
-7,14,12,-7,-11,13,21,11,13,11,-35,-54
-14,22,21,-8,-19,22,21,13,14,12,-34,-53
-22,30,29,-9,-28,31,21,14,16,13,-32,-53
-28,36,36,-10,-34,37,21,15,17,14,-31,-52
-32,40,40,-10,-39,42,20,16,18,14,-30,-52
-35,43,44,-10,-42,45,20,17,19,15,-29,-52
-38,45,47,-10,-46,48,19,18,20,15,-28,-52
-42,47,50,-9,-49,51,18,19,21,16,-28,-52
-46,48,53,-6,-52,53,18,19,21,16,-28,-53
-50,48,55,-4,-55,54,18,20,21,16,-28,-53
-54,48,57,-0,-58,56,18,20,22,16,-28,-54
-58,48,59,2,-61,57,18,21,22,16,-28,-55
-60,48,60,3,-62,58,19,21,22,15,-28,-55
-62,48,61,5,-64,58,20,21,22,15,-28,-56
-63,48,62,6,-65,59,21,21,22,15,-28,-57
-64,48,62,6,-65,59,21,21,22,15,-28,-57
-65,48,63,7,-65,59,21,21,22,15,-28,-57
-65,48,63,7,-66,59,21,22,23,15,-28,-57
-65,48,63,7,-66,59,21,22,23,15,-28,-57
-65,48,63,7,-66,59,21,23,23,15,-28,-57
-65,48,63,7,-66,59,21,23,24,15,-28,-57
-65,48,63,7,-66,59,21,23,24,15,-28,-57
-65,48,63,7,-66,59,21,24,24,15,-28,-57
-65,48,63,7,-66,59,21,24,25,16,-27,-57
-65,48,63,7,-66,59,21,24,25,16,-27,-57
-65,48,63,7,-66,59,21,24,25,16,-27,-57
-65,48,63,7,-66,59,21,24,25,16,-26,-57
-65,48,63,6,-66,60,22,24,26,16,-26,-57
-65,49,64,5,-66,60,22,24,26,16,-26,-57
-65,51,64,5,-67,61,23,24,26,16,-26,-57
-65,52,65,4,-67,62,24,24,27,16,-26,-57
-65,53,65,3,-68,63,24,24,27,17,-26,-57
-65,53,66,3,-68,63,25,24,27,17,-26,-57
-65,53,66,3,-68,63,25,24,27,17,-26,-57
-65,53,66,3,-68,63,25,24,27,17,-26,-57
-66,54,66,3,-68,64,25,24,27,17,-26,-58
-67,55,68,3,-70,65,25,24,27,17,-26,-58
-68,56,69,3,-71,66,25,24,28,17,-27,-59
-69,57,70,3,-73,68,25,24,28,17,-27,-59
-70,58,72,2,-74,69,25,24,28,18,-27,-60
-71,59,73,1,-75,70,25,24,29,18,-27,-61
-71,61,73,0,-75,71,25,24,30,18,-28,-62
-71,62,74,-0,-76,72,25,24,30,18,-28,-62
-71,63,75,-1,-76,73,25,25,31,19,-27,-63
-73,63,76,0,-78,74,25,25,31,19,-27,-63
-74,63,77,0,-78,74,25,25,31,19,-27,-63
-75,63,77,2,-79,75,25,26,32,19,-26,-63
-77,64,78,2,-81,76,25,26,32,20,-26,-63
-78,65,80,3,-82,77,26,26,33,20,-26,-64
-80,66,81,3,-84,78,26,26,33,20,-26,-64
-81,67,83,3,-85,80,27,26,34,20,-26,-65
-83,68,85,3,-87,81,28,26,35,20,-26,-65
-86,70,87,4,-90,84,28,26,35,21,-26,-66
-89,71,89,5,-92,85,28,26,36,21,-27,-66
-92,72,91,6,-95,87,28,26,37,21,-27,-66
-94,74,93,6,-97,89,29,26,37,22,-27,-66
-94,75,94,5,-98,90,30,27,38,22,-27,-67
-95,76,95,5,-98,91,31,27,38,22,-28,-67
-95,77,96,4,-99,92,33,27,39,23,-28,-68
-95,79,97,3,-100,94,35,28,40,23,-28,-68
-96,83,100,0,-102,97,36,29,41,24,-28,-69
-98,86,103,-2,-105,100,37,30,42,24,-28,-70
-99,90,106,-4,-108,104,37,31,42,25,-28,-71
-101,94,109,-5,-110,107,38,31,44,25,-28,-71
-102,96,111,-7,-112,110,39,32,45,26,-28,-72
-104,99,114,-8,-114,112,40,32,46,26,-28,-73
-105,102,116,-9,-116,115,41,33,47,27,-28,-73
-107,104,118,-10,-118,117,42,33,48,27,-27,-74
-108,105,120,-10,-120,119,42,34,50,28,-27,-76
-110,107,121,-10,-122,120,43,35,51,29,-27,-77
-111,108,123,-10,-123,122,44,36,52,29,-26,-78
-113,110,125,-10,-125,124,45,37,54,30,-26,-79
-116,112,128,-10,-128,127,46,38,55,31,-26,-80
-119,115,131,-10,-131,129,47,40,57,33,-26,-81
-122,117,134,-10,-134,132,47,41,58,34,-26,-82
-124,120,136,-11,-137,135,49,42,60,35,-25,-82
-126,122,139,-11,-139,138,50,43,61,36,-25,-83
-127,125,141,-12,-142,140,52,44,63,37,-24,-84
-129,127,144,-13,-144,143,53,45,65,39,-23,-84
-130,131,146,-15,-146,146,55,46,66,40,-22,-85
-130,134,148,-18,-147,149,56,48,68,41,-21,-86
-130,138,151,-21,-149,151,57,49,70,43,-19,-87
-130,142,153,-24,-151,154,58,51,72,45,-18,-87
-131,145,155,-26,-153,157,59,53,74,46,-17,-88
-132,146,157,-27,-154,159,60,54,75,48,-15,-88
-133,148,158,-27,-155,160,62,55,77,50,-13,-88
-135,149,160,-27,-157,162,63,56,78,52,-11,-88
-136,151,161,-27,-159,163,65,57,80,53,-9,-88
-138,152,163,-27,-160,165,66,58,81,55,-6,-88
-139,153,165,-27,-162,166,67,59,82,57,-3,-88
-141,154,166,-27,-163,168,68,60,84,59,-0,-88
-142,156,167,-27,-165,169,68,62,85,61,3,-88
-142,157,168,-28,-165,170,68,63,86,63,6,-87
-142,158,169,-29,-166,171,69,64,87,65,8,-87
-142,159,170,-30,-167,172,69,64,89,67,11,-86
-142,161,170,-32,-167,173,69,65,90,69,14,-85
-141,162,171,-33,-166,174,69,66,90,71,17,-84
-139,163,171,-35,-166,174,69,66,91,73,20,-82
-138,165,171,-38,-166,175,69,67,91,75,23,-81
-136,165,170,-39,-165,175,68,67,91,76,26,-80
-135,166,170,-41,-164,175,68,67,91,78,30,-78
-133,166,169,-42,-163,174,67,67,91,79,33,-77
-132,166,168,-43,-162,174,66,67,91,80,36,-75
-130,165,167,-44,-160,173,65,67,91,81,39,-74
-127,164,165,-45,-158,171,63,67,91,81,42,-72
-124,163,163,-46,-155,169,62,66,90,82,45,-70
-122,162,161,-47,-153,167,60,66,89,82,48,-68
-119,161,158,-48,-150,165,58,65,89,82,51,-65
-116,159,156,-49,-148,163,57,64,87,82,53,-63
-113,158,154,-50,-145,161,55,63,86,82,55,-60
-110,157,151,-51,-142,159,53,61,85,82,57,-57
-107,156,149,-52,-140,157,51,60,84,82,59,-54
-104,154,147,-53,-137,155,49,59,82,81,60,-51
-101,153,144,-54,-134,153,47,57,80,80,61,-48
-98,152,142,-55,-132,151,44,56,78,79,63,-44
-94,151,140,-57,-129,149,42,55,76,78,64,-41
-90,149,137,-59,-125,147,40,53,74,76,64,-38
-86,148,134,-61,-122,144,38,52,72,75,64,-35
-81,147,131,-63,-118,142,37,51,70,73,64,-32
-77,145,127,-65,-114,139,35,49,68,71,64,-30
-72,143,123,-66,-110,136,32,48,66,70,64,-27
-68,140,120,-67,-106,132,30,47,64,68,64,-24
-63,138,116,-68,-102,129,27,45,62,66,64,-21
-60,135,112,-68,-98,125,25,44,60,64,64,-18
-56,131,108,-68,-94,121,23,42,57,62,63,-16
-53,127,104,-67,-90,117,21,40,55,59,61,-13
-50,124,100,-66,-86,113,20,39,52,57,60,-10
-47,120,97,-65,-83,109,18,37,50,55,59,-7
-44,116,93,-64,-79,105,15,35,48,52,57,-4
-41,112,89,-63,-75,101,13,33,45,50,55,-0
-38,108,85,-62,-72,97,10,31,43,47,53,3
-35,104,81,-61,-68,93,8,30,41,45,51,6
-32,101,77,-59,-64,89,5,28,39,42,49,8
-29,97,73,-59,-60,85,3,27,37,40,47,9
-26,93,70,-57,-57,81,1,26,34,38,45,11
-23,89,66,-57,-53,77,-2,24,32,36,43,12
-20,85,62,-55,-49,73,-3,23,30,34,40,13
-18,83,59,-55,-47,71,-3,22,29,32,39,14
-18,82,59,-54,-46,70,-4,22,29,32,38,15
-17,82,58,-54,-46,69,-4,22,28,32,38,15
-17,81,58,-54,-46,69,-4,22,28,32,38,15
-17,81,58,-54,-46,69,-4,22,28,32,38,15
-17,81,58,-54,-46,69,-4,22,28,32,38,15
-17,81,58,-54,-46,69,-4,22,28,32,38,15
-17,81,58,-54,-46,69,-4,22,28,32,38,15
-7,70,46,-52,-34,57,-6,18,22,25,30,15
6,55,30,-49,-19,41,-9,13,14,17,20,16
10,51,25,-49,-14,36,-10,12,11,14,16,16
12,49,23,-48,-12,34,-10,11,11,13,15,16
12,47,23,-47,-11,33,-11,11,10,12,14,16
12,45,21,-46,-10,31,-11,11,9,11,13,15
12,43,20,-43,-9,29,-12,10,8,10,12,15
12,40,18,-41,-8,27,-12,10,7,9,11,14
12,38,17,-39,-7,25,-12,9,6,8,9,13
12,35,15,-37,-6,23,-12,9,5,7,8,13
12,33,13,-35,-5,21,-12,8,5,6,7,12
12,30,12,-33,-4,19,-12,8,4,5,5,11
12,27,10,-31,-3,17,-12,7,3,5,4,11
12,25,9,-29,-1,15,-12,7,3,4,3,10
12,23,8,-27,-1,14,-12,7,2,3,1,9
10,21,8,-24,-1,13,-11,7,1,3,-0,8
9,20,7,-22,-1,12,-10,7,1,2,-1,6
8,18,7,-20,-2,12,-10,7,0,2,-3,5
6,17,7,-18,-3,11,-9,6,-0,1,-4,4
5,16,7,-16,-3,11,-9,6,-1,1,-5,3
4,15,7,-14,-3,10,-9,6,-1,0,-6,2
2,13,7,-12,-4,10,-9,5,-2,-0,-7,2
1,13,7,-11,-5,10,-9,5,-2,-1,-7,1
-1,12,8,-9,-6,10,-9,5,-2,-1,-8,-1
-2,12,9,-8,-7,10,-9,5,-2,-2,-8,-2
-4,12,9,-7,-8,11,-9,5,-3,-2,-8,-3
-5,12,10,-6,-8,11,-8,5,-3,-2,-8,-4
-5,11,9,-5,-8,10,-8,5,-3,-3,-8,-5
-5,9,9,-4,-8,9,-7,5,-3,-3,-9,-6
-5,8,8,-3,-7,8,-6,5,-3,-3,-9,-7
-5,7,7,-2,-7,8,-6,5,-3,-3,-10,-7
-5,7,7,-2,-7,7,-6,5,-3,-3,-10,-7
-5,7,7,-2,-7,7,-5,5,-3,-3,-10,-7
-5,7,7,-2,-7,7,-5,5,-3,-3,-11,-7
-5,7,7,-2,-7,7,-5,5,-3,-3,-11,-8
-5,7,7,-2,-7,7,-5,5,-3,-4,-11,-8
-5,7,7,-2,-7,7,-5,5,-3,-4,-11,-9
-5,7,7,-2,-7,7,-5,5,-3,-4,-11,-9
-6,7,7,-1,-7,7,-5,5,-3,-4,-12,-10
-7,7,8,-0,-8,8,-5,5,-3,-4,-12,-10
-8,7,9,0,-9,8,-5,5,-3,-4,-12,-10
-10,7,9,2,-10,9,-5,5,-3,-4,-13,-10
-11,7,10,2,-10,9,-5,5,-3,-4,-13,-10
-11,7,10,3,-11,9,-4,5,-3,-4,-13,-10
-11,7,10,3,-11,9,-4,5,-3,-5,-13,-10
-11,7,10,3,-11,9,-3,5,-3,-5,-13,-10
-11,7,10,3,-11,9,-2,5,-3,-5,-13,-10
-11,7,10,3,-11,9,-2,5,-3,-5,-13,-10
-11,7,10,3,-11,9,-2,5,-3,-5,-13,-10
-11,7,10,3,-11,9,-2,5,-3,-5,-13,-10
-11,7,10,3,-11,9,-2,5,-3,-5,-13,-10
-11,7,10,3,-11,9,-2,5,-3,-5,-13,-10
-11,7,10,3,-11,9,-2,5,-4,-5,-13,-10
-11,7,10,3,-11,9,-2,5,-4,-5,-13,-10
-11,7,10,2,-11,10,-2,5,-4,-5,-13,-10
-11,8,11,1,-11,10,-2,5,-4,-5,-13,-10
-11,9,12,0,-12,11,-2,5,-4,-5,-12,-10
-11,11,13,-0,-12,12,-2,5,-4,-5,-12,-10
-11,12,13,-2,-12,13,-2,5,-4,-5,-12,-10
-10,13,13,-4,-12,14,-2,5,-4,-5,-11,-10
-8,15,13,-6,-12,14,-2,5,-4,-5,-11,-10
-7,16,13,-8,-11,15,-2,5,-4,-5,-11,-10
-5,17,13,-11,-10,15,-2,5,-4,-5,-11,-10
-2,18,12,-14,-9,15,-2,5,-4,-5,-11,-10
1,20,12,-16,-8,15,-2,5,-4,-5,-11,-10
4,21,11,-19,-6,15,-2,5,-3,-5,-11,-10
6,22,11,-22,-5,16,-2,5,-3,-5,-11,-10
6,24,11,-24,-5,16,-2,5,-3,-5,-11,-10
6,25,12,-24,-6,17,-2,5,-3,-5,-10,-10
6,26,13,-26,-6,18,-2,5,-3,-5,-10,-10
6,27,13,-26,-7,19,-2,5,-3,-4,-10,-10
6,27,13,-27,-7,19,-3,5,-3,-4,-9,-9
6,27,13,-27,-7,19,-4,5,-3,-4,-9,-9
6,27,13,-27,-7,19,-5,5,-3,-4,-8,-8
6,28,14,-27,-7,20,-5,5,-3,-3,-8,-7
6,29,14,-28,-7,21,-5,5,-2,-3,-7,-7
6,30,15,-29,-8,21,-5,5,-2,-3,-6,-6
6,31,16,-30,-8,22,-5,5,-1,-2,-5,-5
8,34,17,-33,-8,24,-5,5,-0,-1,-4,-4
11,38,17,-39,-8,26,-5,5,1,-0,-2,-2
15,43,18,-46,-7,28,-5,6,2,1,0,-0
20,48,19,-53,-6,31,-5,6,3,2,3,2
24,52,19,-59,-5,33,-5,7,4,3,4,3
27,55,20,-64,-4,34,-5,7,5,4,5,4
30,58,20,-69,-3,35,-5,7,5,5,6,5
33,61,20,-73,-1,36,-5,8,5,5,7,6
34,62,20,-74,-1,37,-5,8,6,6,8,6
31,60,21,-71,-3,37,-5,8,7,6,8,6
27,58,21,-66,-5,36,-5,8,8,6,8,6
23,56,22,-62,-7,36,-6,8,8,6,8,6
18,53,23,-56,-9,35,-6,8,9,6,8,6
18,53,23,-56,-9,35,8,12,11,8,8,6
48,74,20,-94,4,41,11,15,16,12,16,12
72,84,13,-119,16,41,15,19,18,14,16,12
54,58,7,-86,14,27,15,19,20,15,16,9
36,48,10,-65,6,25,15,21,22,17,19,9
54,48,1,-77,19,19,18,26,26,20,25,15
60,53,1,-86,21,21,21,30,30,23,30,20
66,53,-2,-90,25,19,21,31,33,26,34,23
66,53,-2,-90,25,19,21,33,37,30,41,31
90,58,-11,-111,40,15,21,35,40,33,46,37
108,63,-17,-128,50,13,25,40,45,38,53,45
137,79,-24,-162,65,15,31,46,51,45,66,62
137,79,-24,-162,65,15,25,46,53,48,75,68
137,74,-27,-157,67,11,25,49,57,52,82,70
143,74,-30,-162,71,9,25,53,60,58,93,81
143,74,-30,-162,71,9,25,56,67,63,102,90
173,89,-36,-195,86,11,28,64,75,72,118,106
191,104,-36,-221,93,17,28,67,81,78,131,120
203,130,-27,-250,90,33,28,71,85,84,145,137
203,135,-24,-254,88,37,25,72,93,92,159,151
203,135,-24,-254,88,37,25,76,99,99,172,162
221,151,-24,-280,95,43,31,81,109,109,186,170
203,135,-24,-254,88,37,35,87,116,117,197,176
203,135,-24,-254,88,37,38,90,126,126,210,179
215,140,-27,-267,95,37,48,101,137,138,228,187
215,140,-27,-267,95,37,55,108,147,149,246,195
209,140,-24,-263,90,39,62,117,157,158,260,198
197,140,-17,-254,82,43,69,122,164,168,276,201
179,135,-11,-238,71,45,75,128,173,179,298,206
155,125,-5,-212,59,45,79,131,179,189,314,209
167,125,-11,-221,67,41,85,138,189,200,327,209
161,120,-11,-212,65,39,92,142,197,209,343,209
137,120,1,-195,48,47,102,149,207,221,356,204
113,109,7,-170,35,47,112,158,221,237,374,198
96,94,7,-145,29,41,112,163,228,249,388,193
90,104,17,-149,21,51,116,165,236,259,397,187
90,115,23,-157,16,59,122,169,241,269,408,184
54,115,41,-132,-9,71,122,169,246,276,408,179
24,104,50,-103,-26,73,126,171,251,283,402,165
18,115,60,-107,-34,84,132,171,256,289,392,148
-18,104,72,-73,-55,88,132,169,254,291,383,129
-29,99,75,-60,-62,88,132,169,254,295,372,109
-35,84,69,-43,-60,77,139,169,256,298,336,76
-35,84,69,-43,-60,77,149,174,259,299,291,45
-59,68,72,-14,-70,73,153,174,259,299,248,15
-65,38,57,16,-62,51,153,169,254,295,208,-16
-89,-8,41,70,-60,23,156,172,254,292,165,-41
-77,-14,32,66,-49,15,166,176,254,286,116,-60
-77,-34,20,83,-41,-1,170,178,250,275,77,-71
-89,-49,17,104,-43,-9,176,178,246,264,46,-80
-95,-65,10,121,-41,-19,170,174,236,248,23,-80
-95,-65,10,121,-41,-19,166,169,228,230,-2,-83
-89,-55,13,108,-41,-13,166,165,223,210,-19,-83
-59,-44,4,79,-24,-15,166,165,220,196,-22,-80
-59,-44,4,79,-24,-15,166,165,217,186,-22,-71
-59,-55,-2,87,-19,-23,166,163,215,177,-22,-69
-59,-65,-8,96,-15,-31,166,163,213,166,-22,-66
-53,-106,-36,125,6,-65,176,174,213,122,-22,-60
-49,-127,-51,140,18,-83,191,195,190,62,-30,-58
-48,-137,-58,147,23,-91,199,205,174,33,-35,-58
-47,-143,-61,152,26,-96,204,213,160,14,-38,-58
-47,-148,-64,155,28,-99,209,218,147,-2,-41,-57
-48,-151,-66,158,28,-101,212,223,134,-14,-44,-58
-49,-151,-66,159,28,-102,215,226,121,-22,-46,-58
-50,-152,-65,161,27,-101,216,228,108,-29,-48,-59
-52,-152,-65,162,26,-101,218,231,94,-35,-50,-59
-52,-151,-64,162,25,-100,218,231,82,-40,-52,-60
-53,-150,-63,162,25,-100,215,227,70,-42,-53,-60
-53,-149,-62,161,24,-99,211,222,58,-44,-54,-60
-53,-148,-61,160,23,-98,207,217,46,-46,-55,-60
-53,-145,-60,157,22,-95,200,208,35,-47,-56,-60
-53,-140,-56,153,20,-91,190,193,25,-48,-55,-59
-53,-134,-53,148,18,-86,178,177,15,-48,-54,-59
-53,-127,-49,143,15,-81,165,161,5,-48,-54,-58
-52,-121,-46,137,13,-77,151,143,-3,-48,-53,-57
-51,-115,-42,131,11,-72,135,125,-10,-48,-52,-56
-50,-108,-39,125,9,-67,117,106,-16,-47,-51,-55
-49,-102,-36,119,8,-63,100,88,-22,-47,-50,-53
-47,-95,-33,112,6,-58,83,71,-27,-47,-49,-52
-46,-89,-30,106,4,-54,68,58,-30,-46,-48,-50
-44,-83,-27,100,3,-49,54,45,-33,-45,-47,-49
-43,-76,-24,93,1,-45,39,33,-35,-45,-46,-48
-41,-72,-22,89,0,-42,27,23,-37,-44,-46,-47
-40,-69,-21,85,0,-40,17,16,-38,-44,-46,-46
-38,-67,-21,83,1,-40,8,10,-39,-44,-46,-45
-37,-66,-21,81,1,-39,-0,5,-40,-43,-46,-44
-35,-65,-21,79,2,-39,-7,1,-41,-43,-46,-44
-34,-65,-21,78,3,-39,-10,-2,-42,-43,-46,-44
-32,-65,-22,76,4,-39,-12,-5,-43,-43,-46,-43
-31,-65,-23,76,5,-40,-14,-7,-44,-43,-46,-43
-30,-65,-24,75,6,-41,-15,-9,-44,-43,-46,-43
-29,-66,-24,76,7,-42,-16,-11,-45,-43,-46,-43
-29,-67,-25,76,7,-42,-17,-12,-46,-44,-46,-43
-29,-68,-26,78,8,-43,-18,-13,-47,-44,-47,-43
-29,-70,-27,78,8,-44,-19,-15,-47,-44,-47,-43
-29,-71,-27,80,9,-45,-19,-16,-47,-44,-47,-43
-29,-72,-28,81,9,-46,-19,-17,-48,-44,-47,-43
-29,-74,-29,82,10,-47,-19,-17,-48,-44,-47,-43
-29,-74,-29,82,10,-48,-19,-18,-48,-44,-47,-43
-29,-75,-30,83,10,-48,-19,-19,-49,-44,-48,-43
-29,-75,-30,83,10,-48,-19,-20,-49,-45,-48,-43
-29,-75,-30,83,10,-48,-19,-21,-49,-45,-49,-43
-29,-74,-30,82,10,-48,-19,-22,-50,-45,-49,-43
-27,-72,-29,79,10,-47,-18,-23,-50,-45,-49,-43
-26,-70,-28,76,10,-45,-17,-24,-51,-45,-49,-43
-25,-67,-27,73,10,-44,-16,-25,-52,-46,-49,-43
-24,-65,-27,71,10,-43,-16,-26,-52,-46,-49,-43
-24,-64,-26,70,10,-42,-16,-26,-53,-46,-50,-43
-23,-62,-25,68,9,-40,-15,-27,-53,-47,-50,-43
-23,-61,-24,67,9,-39,-15,-28,-54,-47,-50,-43
-23,-59,-24,65,9,-39,-16,-29,-55,-48,-51,-43
-21,-58,-24,64,9,-38,-17,-30,-55,-48,-51,-43
-20,-57,-24,62,9,-37,-19,-31,-56,-49,-52,-43
-19,-56,-24,59,10,-37,-21,-32,-57,-49,-52,-43
-18,-55,-24,58,10,-37,-22,-33,-57,-50,-53,-43
-18,-55,-24,58,10,-37,-24,-34,-58,-50,-53,-43
-17,-54,-24,57,10,-36,-26,-35,-59,-51,-54,-43
-17,-54,-24,57,10,-36,-27,-37,-60,-51,-54,-43
-17,-55,-24,58,11,-37,-29,-38,-61,-52,-55,-43
-17,-56,-25,59,11,-38,-31,-39,-62,-53,-55,-43
-17,-57,-25,59,11,-38,-32,-40,-63,-54,-56,-43
-17,-58,-26,61,12,-39,-34,-41,-64,-55,-57,-43
-17,-59,-27,62,12,-40,-35,-42,-65,-56,-58,-44
-17,-61,-27,63,13,-41,-36,-42,-66,-57,-59,-44
-17,-62,-28,64,14,-42,-37,-43,-67,-58,-60,-45
-17,-63,-29,65,14,-43,-38,-44,-69,-58,-61,-46
-17,-65,-30,66,15,-45,-39,-45,-70,-60,-62,-46
-17,-67,-31,68,16,-47,-40,-46,-71,-61,-63,-46
-17,-70,-33,70,17,-48,-41,-47,-72,-62,-64,-46
-17,-72,-34,72,18,-50,-42,-48,-74,-63,-64,-46
-17,-75,-36,74,19,-52,-42,-49,-75,-64,-65,-47
-17,-77,-38,76,20,-54,-43,-50,-76,-66,-67,-47
-17,-80,-39,78,21,-56,-44,-50,-78,-67,-68,-48
-17,-83,-41,81,22,-58,-45,-51,-80,-69,-69,-48
-17,-85,-42,82,23,-60,-46,-52,-81,-70,-71,-49
-17,-86,-43,84,23,-61,-48,-54,-83,-71,-72,-50
-17,-88,-44,85,24,-62,-49,-55,-84,-73,-73,-50
-17,-89,-44,86,25,-63,-51,-56,-86,-74,-75,-51
-17,-90,-46,86,26,-65,-53,-58,-88,-76,-76,-52
-15,-92,-47,87,27,-66,-54,-59,-89,-78,-77,-52
-14,-93,-48,87,28,-67,-56,-61,-91,-79,-79,-52
-13,-94,-50,87,30,-69,-58,-63,-93,-81,-80,-52
-11,-95,-51,86,31,-70,-59,-65,-95,-83,-81,-52
-10,-95,-52,86,32,-71,-61,-66,-97,-84,-82,-51
-8,-95,-53,85,34,-71,-63,-67,-99,-86,-83,-50
-7,-95,-54,84,35,-72,-64,-69,-102,-88,-84,-50
-5,-95,-55,82,36,-73,-66,-70,-104,-89,-85,-49
-2,-95,-56,81,38,-74,-68,-72,-106,-91,-86,-48
1,-95,-58,78,40,-74,-69,-74,-108,-93,-87,-48
4,-95,-59,76,42,-75,-71,-75,-109,-95,-88,-47
6,-95,-60,75,44,-76,-73,-77,-111,-97,-89,-46
8,-95,-61,73,45,-77,-74,-79,-114,-99,-90,-46
9,-95,-62,73,46,-77,-76,-81,-116,-101,-90,-45
11,-95,-63,71,47,-78,-78,-83,-118,-103,-91,-44
12,-95,-63,70,48,-78,-79,-84,-120,-105,-92,-43
14,-94,-63,68,49,-78,-81,-86,-122,-106,-92,-42
15,-93,-64,66,49,-77,-83,-88,-125,-108,-92,-41
17,-92,-64,64,50,-77,-85,-90,-127,-110,-92,-39
18,-90,-64,62,50,-76,-87,-91,-129,-112,-92,-38
20,-89,-64,60,51,-76,-89,-93,-131,-113,-92,-36
21,-88,-64,58,51,-75,-91,-95,-133,-115,-91,-34
23,-86,-64,56,52,-75,-94,-97,-136,-117,-91,-32
25,-85,-64,53,53,-75,-96,-99,-138,-119,-90,-30
27,-84,-65,50,54,-74,-99,-100,-140,-121,-89,-28
30,-83,-65,47,56,-74,-101,-102,-142,-122,-89,-25
33,-81,-66,44,57,-74,-104,-104,-144,-124,-88,-23
35,-79,-66,41,58,-74,-106,-106,-146,-125,-87,-21
37,-77,-66,38,58,-73,-109,-107,-148,-126,-85,-19
39,-75,-65,35,59,-71,-111,-108,-150,-128,-84,-17
41,-72,-64,31,59,-70,-114,-110,-152,-129,-83,-15
42,-70,-64,28,59,-68,-116,-111,-154,-131,-81,-13
43,-67,-63,25,59,-67,-117,-112,-156,-132,-79,-9
45,-65,-62,22,59,-65,-118,-114,-157,-133,-77,-6
46,-62,-61,19,59,-64,-119,-115,-159,-134,-75,-3
49,-59,-61,15,59,-62,-120,-116,-160,-134,-72,1
51,-55,-60,10,59,-60,-122,-117,-161,-134,-70,4
54,-52,-59,5,60,-58,-123,-118,-162,-135,-67,8
57,-48,-58,-0,60,-56,-125,-119,-163,-135,-64,11
59,-44,-57,-5,60,-54,-126,-120,-164,-135,-62,14
61,-40,-56,-10,60,-52,-127,-121,-165,-135,-58,17
63,-36,-54,-14,60,-49,-128,-122,-165,-135,-55,20
64,-33,-53,-18,59,-47,-129,-123,-166,-135,-52,23
65,-29,-51,-22,59,-45,-130,-123,-167,-134,-49,26
66,-26,-50,-24,57,-42,-130,-124,-167,-134,-47,28
66,-24,-48,-27,57,-40,-130,-124,-167,-133,-44,30
66,-21,-47,-29,56,-38,-130,-124,-167,-132,-41,32
66,-18,-45,-31,54,-36,-130,-124,-167,-131,-38,34
66,-16,-44,-33,53,-34,-130,-124,-166,-130,-36,35
66,-13,-42,-35,52,-32,-130,-124,-165,-129,-34,37
66,-11,-40,-37,51,-30,-130,-124,-165,-127,-32,38
66,-8,-39,-40,50,-28,-130,-123,-164,-126,-29,39
66,-4,-36,-43,49,-25,-130,-123,-163,-124,-27,40
66,-1,-34,-46,47,-22,-130,-123,-162,-122,-25,40
66,3,-32,-49,45,-20,-130,-122,-160,-119,-23,40
66,7,-30,-52,44,-17,-129,-122,-159,-117,-21,40
66,11,-27,-55,42,-14,-128,-121,-157,-115,-19,40
66,15,-25,-58,41,-11,-127,-120,-155,-112,-18,40
66,18,-23,-61,39,-8,-125,-119,-153,-110,-16,40
65,22,-21,-63,37,-5,-123,-118,-151,-108,-15,39
64,23,-19,-64,36,-3,-122,-117,-149,-105,-14,39
63,25,-17,-65,34,-2,-120,-116,-147,-102,-13,38
61,26,-16,-65,33,-0,-118,-114,-144,-100,-12,38
59,27,-14,-64,31,2,-116,-113,-141,-97,-12,37
57,29,-12,-63,28,3,-115,-111,-139,-94,-11,35
54,30,-10,-62,26,5,-113,-109,-136,-91,-11,33
51,31,-7,-61,23,7,-111,-108,-133,-88,-11,31
49,32,-6,-60,21,9,-109,-106,-130,-85,-11,29
47,32,-5,-59,20,10,-107,-104,-127,-82,-11,27
45,33,-4,-58,19,10,-105,-102,-124,-79,-11,26
43,33,-3,-57,18,11,-102,-100,-121,-76,-11,24
41,33,-2,-56,16,12,-100,-98,-117,-73,-11,23
39,33,-0,-54,14,12,-97,-96,-114,-70,-11,22
36,33,1,-52,12,13,-95,-93,-111,-67,-11,20
33,33,3,-50,10,14,-92,-91,-107,-64,-11,19
31,33,4,-48,8,15,-89,-88,-104,-60,-12,17
29,33,5,-47,7,16,-86,-85,-100,-57,-12,15
27,33,6,-46,6,16,-83,-83,-96,-54,-12,13
26,33,6,-45,5,17,-79,-80,-92,-51,-13,11
24,32,7,-43,4,17,-76,-77,-87,-48,-13,9
23,31,7,-41,3,17,-73,-75,-83,-45,-14,7
22,30,7,-40,3,16,-71,-73,-81,-43,-14,6
21,30,7,-40,3,16,-70,-72,-80,-42,-14,5
21,30,7,-39,3,16,-70,-72,-79,-42,-14,5
21,30,7,-39,3,16,-69,-72,-79,-42,-14,5
21,30,7,-39,3,16,-69,-72,-79,-42,-14,5
21,30,7,-39,3,16,-69,-72,-79,-42,-14,5
18,27,7,-35,2,15,-59,-61,-66,-33,-14,0
14,24,7,-30,0,14,-46,-47,-47,-21,-15,-7
13,23,7,-27,-0,14,-41,-42,-41,-17,-15,-9
13,23,7,-27,-0,13,-40,-41,-39,-16,-15,-10
12,22,7,-27,-0,13,-38,-39,-38,-15,-15,-10
12,22,7,-27,-0,13,-35,-36,-35,-13,-15,-11
12,22,7,-27,-0,13,-32,-33,-31,-11,-15,-12
12,22,7,-27,-0,13,-29,-30,-28,-9,-15,-12
12,22,7,-27,-0,13,-26,-27,-25,-8,-15,-13
12,22,7,-27,-0,13,-23,-25,-22,-6,-15,-13
12,22,7,-27,-0,13,-21,-22,-19,-4,-15,-13
12,22,7,-27,-0,13,-18,-19,-16,-2,-15,-13
12,22,7,-27,-0,13,-16,-17,-13,-1,-15,-13
12,22,7,-27,-0,13,-14,-15,-11,0,-14,-14
12,22,7,-27,-0,13,-12,-13,-9,2,-14,-14
12,22,7,-27,-0,13,-10,-11,-7,3,-14,-15
12,22,7,-26,-1,13,-9,-9,-4,4,-13,-16
10,21,7,-24,-1,13,-7,-8,-3,5,-13,-16
9,20,7,-22,-1,12,-5,-6,-1,6,-13,-17
8,18,7,-20,-2,12,-4,-4,1,6,-13,-18
6,18,8,-19,-3,12,-2,-2,3,7,-13,-18
5,17,8,-18,-4,12,-1,-1,4,7,-13,-18
4,17,9,-16,-4,12,-0,0,6,8,-13,-18
2,17,9,-15,-5,13,1,2,7,8,-13,-18
1,17,10,-14,-6,13,2,3,8,9,-13,-18
1,16,9,-13,-6,12,3,4,9,9,-13,-18
1,15,9,-12,-5,11,5,5,9,9,-12,-18
1,13,8,-11,-5,10,6,6,10,10,-12,-18
1,13,7,-11,-5,10,7,6,11,10,-12,-18
1,12,7,-10,-5,9,8,7,11,10,-11,-18
1,12,7,-10,-4,9,8,7,12,10,-11,-18
1,12,7,-10,-4,9,8,8,13,11,-11,-18
0,12,7,-10,-5,9,8,8,13,11,-11,-18
-1,12,8,-9,-6,10,9,9,13,11,-11,-18
-2,12,9,-8,-7,10,10,9,13,11,-10,-18
-4,12,9,-7,-8,11,10,10,13,11,-10,-18
-5,12,10,-6,-8,11,11,10,13,11,-10,-19
-5,12,10,-6,-8,11,11,10,14,11,-10,-19
-5,12,10,-6,-9,11,11,10,14,11,-10,-20
-5,12,10,-6,-9,11,11,10,14,11,-10,-21
-5,12,10,-6,-9,11,11,10,14,11,-10,-21
-5,12,10,-6,-9,11,11,10,14,11,-10,-21
-5,12,10,-6,-9,11,11,10,14,11,-10,-21
-5,12,10,-6,-9,11,11,10,14,11,-10,-21
-5,12,10,-6,-9,11,11,10,14,11,-9,-21
-5,12,10,-6,-9,11,11,11,14,11,-9,-21
-5,12,10,-6,-9,11,11,11,14,11,-9,-21
-5,12,10,-6,-9,11,11,11,14,11,-8,-21
-5,12,10,-6,-8,11,12,12,14,11,-8,-21
-4,12,9,-7,-7,11,12,12,14,11,-8,-21
-2,12,9,-8,-7,10,13,12,14,11,-8,-21
-1,12,8,-9,-5,10,14,12,14,12,-8,-21
0,12,7,-10,-5,9,14,12,14,12,-8,-21
0,12,7,-10,-5,9,14,12,14,12,-7,-21
1,12,7,-10,-4,9,15,12,14,12,-7,-21
1,12,7,-10,-4,9,15,12,14,12,-6,-21
0,12,7,-10,-5,9,15,12,14,12,-6,-21
-1,12,8,-9,-6,10,15,12,14,12,-6,-21
-2,12,9,-8,-7,10,15,12,14,12,-6,-21
-4,12,9,-7,-8,11,15,12,14,12,-6,-21
-5,12,10,-6,-8,11,15,12,14,12,-6,-21
-5,11,9,-5,-8,10,15,12,14,12,-6,-21
-5,9,9,-4,-8,9,15,12,14,11,-7,-21
-5,8,8,-3,-7,8,15,12,14,11,-7,-21
-5,7,7,-2,-7,8,15,12,14,11,-8,-21
-5,7,7,-2,-7,7,15,12,14,11,-8,-21
-5,7,7,-2,-7,7,15,12,14,11,-8,-21
-5,7,7,-2,-7,7,15,12,14,11,-8,-21
-5,7,7,-2,-7,8,15,12,14,11,-8,-21
-5,8,8,-3,-7,8,16,12,14,11,-8,-21
-5,9,9,-4,-8,9,16,12,14,11,-8,-21
-5,11,9,-5,-8,10,17,12,14,11,-8,-21
-5,12,10,-6,-8,11,18,12,15,11,-8,-21
-4,12,9,-7,-7,10,19,12,15,11,-7,-21
-2,12,9,-8,-7,10,20,12,15,11,-7,-21
-1,12,8,-9,-5,10,21,12,15,11,-6,-21
0,12,7,-10,-5,9,21,12,16,11,-6,-21
0,12,7,-10,-5,9,21,12,16,11,-6,-21
1,12,7,-10,-4,9,21,12,16,11,-6,-21
1,12,7,-10,-4,9,21,12,16,11,-6,-21
0,12,7,-9,-5,9,21,12,16,11,-6,-21
-1,11,7,-8,-5,9,20,12,16,11,-6,-21
-2,9,7,-6,-5,8,20,12,16,11,-6,-21
-4,8,7,-4,-6,8,19,12,16,11,-6,-21
-5,7,7,-3,-6,7,18,12,16,11,-6,-21
-5,7,7,-2,-7,7,18,12,16,11,-6,-21
-5,7,7,-2,-7,7,18,12,16,10,-6,-21
-5,7,7,-2,-7,7,18,12,16,10,-6,-21
-5,7,7,-2,-7,7,18,12,16,10,-6,-21
-5,7,7,-2,-7,7,18,12,16,10,-6,-21
-5,7,7,-2,-7,7,18,12,16,10,-7,-21
-5,7,7,-2,-7,7,18,12,16,10,-7,-21
-5,7,7,-2,-7,7,18,12,16,10,-8,-22
-5,7,7,-2,-7,7,18,12,16,10,-8,-22
-5,7,7,-2,-7,7,18,12,16,10,-8,-23
-5,7,7,-2,-7,7,18,12,16,10,-8,-23
-5,7,7,-2,-7,7,18,12,16,10,-8,-24
-5,7,7,-2,-7,7,19,12,16,10,-7,-24
-5,7,7,-2,-7,7,20,12,16,10,-7,-24
-5,7,7,-2,-7,7,21,12,16,10,-6,-24
-5,7,7,-2,-7,7,21,12,16,10,-6,-24
-5,7,7,-2,-7,7,21,12,16,10,-6,-23
-5,7,7,-2,-7,7,21,12,16,10,-6,-23
-5,7,7,-2,-7,7,21,12,16,10,-6,-22
-5,7,7,-2,-7,7,21,12,16,10,-6,-22
-5,7,7,-2,-7,7,21,12,16,10,-6,-21
-5,7,7,-2,-7,7,21,12,16,10,-6,-21
-5,7,7,-2,-7,7,21,12,16,10,-6,-21
-5,7,7,-2,-7,7,21,12,16,10,-6,-21
-5,7,7,-2,-7,7,20,12,16,10,-6,-21
-5,7,7,-2,-7,7,20,12,16,10,-6,-21
-5,7,7,-2,-7,7,19,12,16,10,-6,-21
-6,6,7,-1,-7,7,18,12,16,10,-6,-21
-7,5,7,1,-7,7,18,12,16,10,-6,-21
-8,4,7,3,-8,6,18,12,16,9,-6,-21
-10,3,7,5,-8,6,18,12,16,9,-6,-21
-11,2,7,6,-8,5,18,12,16,9,-6,-21
-11,2,7,6,-9,5,19,12,16,9,-6,-20
-11,2,7,7,-9,5,20,12,16,9,-6,-20
-11,2,7,7,-9,5,21,12,16,9,-6,-19
-11,2,7,7,-9,5,21,12,16,9,-6,-19
-11,2,7,7,-9,5,21,12,16,9,-6,-19
-11,2,7,7,-9,5,21,12,16,9,-6,-18
-11,2,7,7,-9,5,21,12,16,9,-6,-18
-11,2,7,6,-9,6,21,12,16,9,-6,-18
-11,3,8,5,-9,6,20,12,16,9,-6,-18
-11,4,9,5,-10,7,20,12,16,9,-6,-18
-11,6,9,4,-10,8,19,12,16,9,-6,-18
-11,6,10,3,-10,9,18,12,16,9,-6,-18
-10,7,9,2,-10,8,18,12,16,9,-6,-18
-8,7,9,0,-9,8,18,12,16,9,-6,-18
-7,7,8,-0,-8,8,18,12,16,9,-6,-18
-6,7,7,-1,-7,7,18,12,16,9,-6,-18
-6,7,7,-1,-7,7,19,12,16,9,-6,-18
-5,7,7,-2,-7,7,20,12,16,9,-6,-18
-5,7,7,-2,-7,7,21,12,16,9,-6,-18
-5,7,7,-2,-7,7,21,12,16,9,-6,-18
-5,7,7,-2,-7,7,21,12,16,9,-6,-18
-5,7,7,-2,-7,7,21,12,16,9,-6,-18
-5,7,7,-2,-7,7,21,12,16,9,-6,-18
-5,7,7,-2,-7,7,21,12,16,9,-6,-18
-5,7,7,-2,-7,7,21,12,16,9,-6,-18
-5,7,7,-2,-7,7,21,12,16,9,-6,-17
-5,7,7,-2,-7,7,21,12,16,9,-6,-16
-5,7,7,-2,-7,7,21,12,16,9,-6,-16
-5,7,7,-2,-7,7,20,11,16,9,-6,-16
-5,7,7,-2,-7,7,20,11,16,9,-6,-16
-5,7,7,-2,-7,7,19,11,16,9,-6,-16
-5,7,7,-2,-7,7,18,10,16,9,-6,-16
-5,7,7,-2,-7,7,18,10,16,9,-6,-16
-5,7,7,-2,-7,7,18,10,16,9,-6,-16
-5,7,7,-2,-7,7,18,10,16,9,-6,-16
-6,6,7,-1,-7,7,18,10,16,9,-6,-15
-7,5,7,1,-7,7,18,10,16,9,-6,-15
-8,4,7,3,-8,6,18,10,16,8,-6,-14
-10,3,7,5,-8,6,18,10,16,8,-6,-14
-11,2,7,6,-8,5,18,10,16,8,-6,-13
-11,1,6,8,-8,4,18,10,16,8,-6,-13
-11,-1,6,9,-8,3,18,10,16,8,-6,-13
-11,-2,5,10,-7,2,18,10,16,8,-6,-13
-11,-3,4,11,-7,2,18,10,16,8,-6,-13
-11,-3,4,11,-7,2,18,10,16,8,-6,-13
-11,-3,4,11,-7,1,18,10,16,8,-6,-13
-11,-3,4,11,-7,1,18,10,16,8,-6,-13
-11,-3,4,11,-7,2,18,10,16,8,-6,-13
-11,-2,5,10,-7,3,18,10,16,8,-6,-13
-11,-1,6,9,-8,3,18,10,16,8,-6,-13
-11,1,6,8,-8,4,18,10,16,8,-6,-13
-11,2,7,6,-8,5,18,10,16,8,-6,-13
-10,3,7,5,-8,6,18,10,16,8,-6,-12
-8,4,7,3,-8,6,18,10,16,8,-6,-12
-7,6,7,0,-7,7,18,10,16,8,-6,-11
-6,6,7,-1,-7,7,18,10,16,8,-6,-10
-6,7,7,-1,-7,7,18,10,16,8,-6,-10
-5,7,7,-2,-7,7,18,10,16,8,-6,-10
-5,7,7,-2,-7,7,18,10,16,8,-6,-10
-5,7,7,-2,-7,7,18,10,16,8,-6,-10
-5,7,7,-2,-7,7,18,10,15,8,-6,-9
-5,7,7,-2,-7,7,18,10,15,8,-6,-9
-5,7,7,-2,-7,7,18,10,15,8,-6,-8
-6,6,7,-1,-7,7,18,10,15,8,-6,-8
-7,5,7,1,-7,7,18,10,15,8,-6,-8
-8,4,7,3,-8,6,18,10,14,8,-6,-7
-10,3,7,5,-8,6,18,10,14,8,-6,-7
-11,2,7,6,-8,5,18,10,14,8,-6,-7
