I,II,III,aVR,aVL,aVF,V1,V2,V3,V4,V5,V6
-7,4,7,-1,-10,6,18,3,11,-7,-12,-6
-7,4,7,-1,-10,6,18,3,11,-8,-13,-7
-7,4,7,-1,-10,6,18,3,11,-8,-13,-8
-7,4,7,-1,-10,6,18,3,11,-9,-13,-9
-7,4,7,-1,-10,6,17,3,11,-10,-13,-9
-7,4,7,-1,-10,6,16,3,11,-10,-13,-10
-7,4,7,-1,-10,6,15,3,11,-10,-13,-10
-7,4,7,-1,-10,6,13,3,11,-10,-13,-10
-7,4,7,-1,-10,6,12,3,11,-10,-13,-10
-7,4,7,-1,-10,6,12,3,11,-10,-13,-10
-7,4,7,-1,-10,6,11,3,11,-10,-13,-10
-7,4,7,-1,-10,6,11,3,11,-10,-13,-10
-7,4,7,-1,-10,6,11,3,11,-10,-13,-9
-7,4,7,-1,-10,6,11,3,11,-10,-13,-8
-7,4,7,-1,-10,6,11,3,11,-10,-13,-8
-7,4,7,-1,-10,6,11,3,11,-10,-13,-6
-7,4,7,-1,-10,6,11,3,11,-10,-13,-6
-7,4,7,-1,-10,6,11,3,11,-10,-13,-5
-7,4,7,-1,-10,6,11,3,11,-10,-13,-5
-7,4,7,-1,-10,6,11,3,11,-10,-13,-5
-7,4,7,-1,-10,6,11,2,11,-10,-13,-6
-7,4,7,-1,-10,6,11,1,11,-10,-13,-7
-7,4,7,-1,-10,6,11,-0,11,-10,-13,-8
-7,4,7,-1,-10,6,11,-2,11,-10,-13,-9
-7,4,7,-1,-10,6,11,-3,11,-10,-13,-9
-7,4,7,-1,-10,6,11,-3,11,-10,-13,-10
-7,4,7,-1,-10,6,11,-4,11,-10,-13,-10
-7,4,7,-1,-10,6,11,-4,11,-10,-13,-10
-7,4,7,-1,-10,6,11,-4,10,-10,-13,-10
-7,4,7,-1,-10,6,11,-4,9,-10,-13,-10
-7,4,7,-1,-10,6,11,-4,8,-10,-13,-10
-7,4,7,-1,-10,6,11,-4,7,-10,-13,-10
-7,4,7,-1,-10,6,11,-3,6,-10,-13,-10
-7,4,7,-1,-10,6,11,-2,6,-10,-13,-10
-7,4,7,-1,-10,6,11,-0,6,-10,-13,-10
-7,4,7,-1,-10,6,11,1,6,-10,-13,-10
-7,4,7,-1,-10,6,11,2,6,-10,-13,-10
-7,4,7,-1,-10,6,11,3,6,-10,-13,-10
-7,4,7,-1,-10,6,11,3,6,-10,-13,-10
-7,4,7,-1,-10,6,11,3,6,-10,-13,-10
-7,4,7,-1,-10,6,11,3,6,-10,-13,-10
-7,4,7,-1,-10,6,11,3,6,-10,-13,-10
-7,4,7,-1,-10,6,11,3,6,-10,-13,-10
-7,4,7,-1,-10,6,11,3,6,-10,-13,-10
-7,4,7,-1,-10,6,11,3,6,-10,-13,-10
-7,3,7,-1,-9,5,9,3,6,-11,-13,-10
-7,3,6,-0,-9,4,8,3,6,-11,-13,-10
-7,2,5,0,-8,4,7,3,6,-12,-13,-10
-7,2,5,0,-8,3,6,3,6,-13,-13,-10
-7,2,5,1,-8,3,5,3,6,-13,-13,-10
-7,2,5,1,-7,3,5,3,6,-13,-13,-10
-7,2,5,1,-7,3,5,3,6,-13,-13,-10
-7,2,5,1,-7,3,5,4,6,-13,-13,-10
-7,2,5,1,-7,3,3,5,6,-13,-13,-10
-7,2,5,1,-7,3,2,6,6,-13,-13,-10
-7,2,5,1,-7,3,1,8,6,-13,-13,-10
-7,2,5,1,-7,3,-0,9,6,-13,-12,-10
-7,2,5,1,-7,3,-1,9,7,-13,-12,-10
-7,2,5,1,-7,3,-1,9,8,-13,-11,-10
-7,2,5,1,-7,3,-1,9,9,-13,-10,-10
-7,2,5,1,-7,3,-1,9,10,-13,-10,-10
-7,2,5,1,-7,3,-1,9,10,-13,-10,-10
-7,2,5,1,-7,3,-1,9,11,-13,-10,-10
-7,2,5,1,-7,3,-1,9,11,-13,-10,-10
-8,1,5,1,-8,3,-1,9,11,-13,-10,-10
-10,1,5,2,-8,3,-1,9,11,-13,-10,-10
-11,1,5,2,-9,3,-1,9,11,-13,-10,-10
-11,0,5,2,-9,3,-1,9,11,-13,-10,-10
-11,0,5,2,-9,3,-1,9,11,-13,-10,-10
-11,0,5,2,-9,3,-1,9,11,-13,-10,-10
-11,0,5,2,-9,3,-1,9,11,-13,-10,-10
-11,0,5,2,-9,3,-1,9,11,-13,-10,-10
-7,1,4,1,-7,3,-4,9,11,-11,-9,-7
-2,2,4,-1,-4,3,-8,9,12,-10,-7,-3
0,3,3,-2,-3,3,-10,9,12,-9,-7,-1
0,3,3,-2,-3,3,-10,9,12,-9,-7,-1
1,3,3,-2,-2,3,-11,10,12,-8,-7,-1
2,2,2,-2,-1,2,-12,11,13,-8,-6,-0
3,2,2,-2,-1,2,-12,12,13,-8,-6,0
4,2,1,-3,0,2,-13,15,14,-7,-5,1
5,2,1,-3,1,2,-14,16,14,-7,-5,1
6,3,1,-3,1,2,-16,17,15,-6,-4,2
7,3,1,-4,1,2,-18,17,16,-5,-4,3
7,3,2,-4,1,3,-20,17,17,-5,-3,3
8,4,2,-4,1,3,-21,17,18,-5,-2,3
8,4,2,-5,1,3,-22,15,18,-4,-1,4
8,4,2,-5,1,3,-23,14,19,-3,-0,4
9,4,2,-5,1,3,-23,13,19,-3,1,5
10,5,2,-6,2,3,-23,13,20,-2,2,5
11,5,2,-6,2,3,-23,12,20,-2,2,6
12,5,1,-6,3,3,-23,12,21,-2,3,6
13,5,1,-7,3,3,-24,12,21,-1,3,7
13,5,1,-7,3,4,-24,12,21,-1,3,7
12,5,2,-7,2,4,-23,12,21,-1,3,8
10,5,3,-7,1,4,-22,12,21,-1,3,8
9,5,3,-6,0,4,-21,11,20,-1,3,8
9,5,3,-6,0,4,-20,10,19,-1,3,8
9,5,2,-6,1,4,-20,9,19,-1,3,8
10,4,1,-5,3,3,-19,8,18,-2,3,8
10,3,-0,-5,4,2,-19,7,17,-2,3,8
12,2,-1,-4,5,1,-18,6,15,-3,3,8
14,2,-3,-4,8,-1,-19,5,13,-3,2,7
16,1,-4,-5,10,-2,-20,4,12,-4,2,7
18,0,-6,-5,13,-3,-20,3,11,-5,2,7
20,-0,-7,-4,14,-3,-21,2,9,-5,2,7
20,-0,-8,-4,15,-4,-22,1,8,-6,1,6
20,-1,-8,-4,15,-4,-23,0,8,-6,1,6
19,-1,-8,-3,15,-5,-23,-0,7,-7,0,5
18,-2,-9,-2,15,-5,-24,-1,6,-8,0,5
17,-3,-9,-2,15,-6,-24,-2,5,-9,-0,5
16,-3,-9,-1,15,-6,-23,-4,5,-10,-1,4
14,-4,-9,-0,15,-7,-23,-5,4,-11,-1,4
13,-4,-9,0,14,-7,-22,-6,4,-12,-1,4
12,-5,-9,1,14,-7,-21,-6,4,-13,-2,3
11,-5,-9,2,14,-7,-20,-7,4,-13,-2,3
10,-5,-9,2,13,-7,-20,-7,4,-13,-2,3
8,-5,-9,2,12,-7,-19,-7,3,-13,-3,3
4,-5,-8,3,9,-7,-18,-6,2,-13,-3,3
1,-6,-7,4,7,-6,-17,-6,1,-13,-3,2
-2,-6,-6,5,5,-6,-16,-5,0,-13,-3,2
-5,-6,-5,6,3,-6,-15,-5,-0,-13,-3,1
-6,-6,-5,7,3,-6,-15,-4,-1,-14,-4,1
-7,-6,-5,7,2,-6,-14,-3,-1,-14,-4,0
-8,-7,-5,7,2,-6,-13,-2,-1,-14,-4,-1
-9,-7,-4,8,1,-6,-12,-2,-0,-15,-5,-2
-11,-7,-4,8,0,-6,-12,-2,0,-15,-6,-3
-12,-7,-4,9,-0,-6,-11,-3,0,-16,-6,-4
-14,-8,-4,9,-1,-6,-11,-3,1,-16,-7,-4
-15,-8,-4,10,-1,-7,-10,-4,1,-17,-7,-5
-16,-9,-4,11,-1,-7,-10,-4,1,-18,-8,-6
-17,-9,-4,11,-1,-7,-9,-5,0,-18,-9,-7
-18,-9,-5,12,-2,-8,-9,-6,-1,-19,-9,-8
-19,-10,-5,12,-2,-8,-9,-6,-2,-20,-10,-8
-19,-10,-5,13,-2,-8,-9,-7,-3,-20,-10,-9
-19,-10,-5,13,-2,-8,-9,-7,-4,-20,-11,-9
-19,-10,-5,13,-2,-8,-8,-7,-6,-21,-11,-9
-19,-10,-5,13,-2,-8,-8,-7,-6,-20,-11,-9
-19,-10,-5,13,-2,-8,-9,-7,-7,-20,-11,-10
-20,-10,-4,13,-3,-8,-10,-7,-7,-19,-11,-10
-21,-10,-4,13,-3,-8,-11,-7,-7,-19,-11,-11
-21,-10,-4,13,-4,-8,-12,-7,-7,-18,-11,-11
-20,-10,-4,13,-3,-8,-12,-7,-7,-18,-11,-11
-20,-10,-4,12,-3,-8,-11,-7,-5,-18,-11,-12
-19,-9,-4,12,-3,-7,-11,-7,-4,-18,-11,-12
-19,-9,-3,12,-3,-7,-10,-7,-2,-18,-11,-12
-20,-9,-3,12,-5,-6,-10,-7,-1,-18,-11,-11
-21,-8,-2,12,-5,-6,-10,-7,-1,-17,-10,-11
-21,-9,-2,12,-5,-6,-9,-6,-1,-17,-10,-10
-22,-9,-2,12,-6,-6,-8,-5,-1,-16,-10,-10
-24,-8,-1,12,-8,-5,-6,-2,-2,-16,-10,-10
-24,-8,-1,12,-8,-5,-4,-2,-1,-15,-10,-10
-20,-8,-2,11,-5,-6,-4,1,2,-18,-13,-13
-35,-11,0,17,-13,-6,2,7,9,-18,-17,-19
-55,-11,7,22,-27,-3,13,16,22,-18,-22,-30
-63,-12,9,25,-32,-2,22,27,32,-19,-31,-40
-61,-12,8,24,-31,-3,30,37,41,-19,-34,-48
-57,-9,10,21,-31,-1,35,46,50,-15,-34,-48
-47,-9,6,19,-23,-2,41,56,58,-10,-29,-46
-37,-9,3,16,-16,-4,41,66,72,3,-16,-37
-22,-12,-6,15,-2,-10,41,74,83,19,0,-21
4,-9,-12,6,14,-11,29,79,92,37,22,5
36,-1,-14,-7,28,-8,16,79,86,51,45,35
70,-1,-27,-16,53,-14,8,82,93,71,74,67
108,-4,-43,-23,83,-23,0,92,105,95,110,109
150,-3,-57,-33,112,-30,-8,101,119,121,144,148
194,-1,-71,-45,142,-35,-12,111,135,146,177,182
234,3,-79,-59,165,-37,-25,114,150,173,212,222
278,11,-85,-75,188,-35,-45,108,155,200,252,279
311,18,-90,-89,204,-34,-69,90,141,217,282,314
349,28,-92,-106,220,-29,-99,67,130,236,315,360
371,38,-88,-118,224,-22,-116,42,115,239,323,381
357,43,-77,-119,208,-13,-129,16,98,234,305,366
339,36,-79,-109,204,-18,-137,-6,71,213,273,330
319,22,-88,-94,205,-30,-137,-23,34,180,226,273
278,12,-85,-76,187,-35,-129,-53,-21,118,160,201
222,-0,-79,-53,161,-39,-131,-90,-99,25,84,133
170,-20,-83,-25,147,-52,-123,-116,-176,-71,9,72
144,-39,-96,-4,150,-69,-115,-130,-232,-150,-60,13
126,-55,-108,13,156,-84,-102,-130,-257,-197,-113,-36
104,-68,-115,28,155,-95,-88,-127,-268,-221,-148,-77
74,-73,-110,39,139,-95,-86,-127,-259,-214,-149,-87
60,-66,-98,37,121,-85,-61,-106,-224,-183,-128,-75
62,-62,-94,34,118,-81,-49,-72,-182,-150,-104,-59
52,-59,-87,34,108,-76,-31,-41,-144,-123,-86,-53
46,-53,-78,30,96,-68,-14,-15,-112,-99,-73,-46
24,-49,-65,32,75,-59,-1,7,-82,-80,-63,-46
4,-43,-51,32,53,-49,5,17,-56,-62,-52,-40
-4,-38,-42,30,42,-42,10,24,-35,-49,-43,-33
-12,-31,-32,27,28,-33,15,32,-17,-37,-34,-32
-20,-26,-23,25,16,-26,18,40,2,-26,-27,-30
-26,-23,-17,24,8,-21,22,40,7,-19,-26,-30
-26,-19,-12,21,3,-17,18,35,8,-18,-23,-28
-26,-17,-10,20,1,-14,13,27,8,-17,-21,-25
-26,-13,-5,16,-4,-10,2,22,8,-15,-18,-24
-24,-11,-4,14,-5,-8,-1,17,7,-15,-14,-21
-25,-12,-5,16,-4,-9,-2,16,7,-15,-13,-20
-30,-12,-3,17,-8,-8,-1,16,7,-15,-13,-20
-33,-12,-2,18,-10,-8,1,16,8,-15,-14,-19
-36,-12,-1,18,-12,-7,2,16,8,-15,-14,-19
-38,-12,0,18,-14,-7,3,16,8,-15,-15,-19
-38,-12,0,18,-14,-7,3,15,8,-15,-15,-20
-37,-12,-0,18,-13,-7,2,13,8,-15,-15,-21
-37,-12,-0,18,-13,-7,1,12,8,-15,-15,-21
-34,-12,-1,17,-11,-7,-2,11,7,-15,-15,-21
-32,-11,-1,17,-10,-7,-3,10,7,-15,-14,-20
-32,-11,-1,17,-10,-7,-3,10,7,-15,-14,-19
-34,-11,-1,17,-12,-7,-2,10,7,-15,-13,-19
-36,-11,0,18,-13,-6,-1,11,7,-15,-13,-19
-37,-11,1,18,-14,-6,-1,11,8,-15,-13,-19
-39,-11,1,18,-15,-6,0,11,8,-15,-13,-19
-38,-11,1,18,-15,-6,1,11,8,-15,-13,-20
-37,-11,1,17,-15,-5,1,11,8,-15,-13,-20
-37,-11,1,17,-14,-5,3,11,8,-15,-13,-20
-37,-11,1,17,-14,-5,4,11,8,-15,-13,-20
-36,-11,1,17,-14,-6,5,11,8,-15,-13,-20
-35,-11,1,17,-13,-6,5,11,9,-14,-13,-20
-35,-11,0,17,-13,-6,6,11,9,-14,-12,-20
-35,-10,1,17,-13,-5,6,11,9,-14,-12,-19
-35,-10,1,16,-14,-5,7,11,9,-13,-11,-19
-35,-10,1,16,-14,-5,8,12,9,-13,-10,-18
-35,-10,1,16,-14,-5,8,12,8,-12,-9,-18
-35,-10,1,16,-14,-5,9,12,7,-12,-9,-18
-35,-10,1,16,-14,-5,9,12,7,-12,-9,-18
-35,-10,1,17,-13,-6,10,13,6,-12,-8,-18
-35,-11,0,17,-13,-6,10,14,6,-11,-8,-18
-35,-10,1,17,-13,-5,10,14,6,-11,-8,-18
-35,-10,1,16,-14,-5,10,14,7,-11,-8,-17
-34,-10,1,16,-13,-5,10,14,7,-11,-8,-17
-33,-10,1,16,-13,-5,10,14,7,-10,-7,-17
-33,-10,0,16,-12,-5,11,15,8,-10,-7,-17
-33,-10,0,16,-12,-5,11,15,8,-10,-7,-17
-33,-10,0,16,-12,-5,11,16,8,-9,-7,-17
-33,-10,0,16,-12,-6,11,16,9,-9,-7,-17
-33,-10,-0,16,-12,-6,11,16,9,-9,-7,-16
-33,-11,-0,16,-12,-6,11,16,9,-9,-7,-16
-33,-10,0,16,-12,-6,11,17,10,-8,-7,-15
-33,-10,1,16,-12,-5,11,17,10,-8,-6,-15
-33,-9,1,15,-13,-5,11,17,11,-8,-6,-15
-33,-9,2,15,-14,-4,11,17,11,-7,-6,-15
-33,-8,2,15,-14,-4,11,18,11,-7,-6,-15
-33,-8,2,15,-14,-3,11,18,10,-7,-6,-15
-33,-8,3,14,-14,-3,11,19,10,-6,-6,-15
-33,-8,3,14,-14,-3,11,19,9,-6,-6,-15
-33,-8,2,15,-14,-4,11,19,9,-6,-6,-15
-33,-9,2,15,-14,-4,11,19,8,-6,-6,-15
-33,-9,1,15,-13,-5,10,20,9,-5,-6,-15
-33,-10,0,16,-12,-5,10,20,9,-5,-6,-15
-33,-10,0,16,-12,-6,10,20,9,-5,-5,-15
-33,-10,0,16,-12,-6,10,20,10,-5,-5,-14
-33,-10,0,16,-12,-5,10,20,10,-4,-5,-14
-33,-10,0,16,-12,-5,10,21,11,-4,-5,-14
-33,-10,0,16,-12,-5,9,22,11,-3,-4,-14
-33,-10,0,16,-12,-5,8,22,11,-3,-4,-14
-33,-10,0,16,-12,-5,7,22,12,-2,-4,-14
-33,-10,0,16,-12,-5,6,22,12,-1,-4,-14
-33,-10,1,16,-13,-5,5,22,12,-0,-4,-14
-33,-9,1,15,-13,-4,5,22,13,0,-3,-14
-33,-8,2,15,-14,-3,5,23,13,1,-3,-14
-33,-7,3,14,-15,-3,5,23,14,1,-3,-14
-33,-7,4,14,-16,-2,5,24,14,2,-2,-14
-33,-7,4,14,-16,-2,5,24,15,2,-2,-14
-33,-7,4,13,-16,-2,5,24,15,2,-2,-14
-33,-7,4,13,-16,-2,5,24,16,3,-1,-14
-33,-7,4,13,-16,-2,5,24,16,3,-1,-13
-33,-7,4,13,-16,-2,5,23,17,3,-1,-13
-33,-6,5,13,-16,-1,5,22,18,4,-0,-13
-33,-6,5,13,-17,-1,5,20,18,4,-0,-13
-33,-6,5,13,-17,-1,6,20,19,4,0,-13
-33,-6,6,12,-18,-0,7,20,19,5,0,-13
-33,-5,6,12,-18,0,9,20,20,5,1,-13
-33,-5,6,12,-18,0,11,21,20,6,1,-13
-33,-5,6,12,-19,0,12,22,21,6,2,-12
-33,-5,7,12,-19,1,13,22,22,7,2,-12
-33,-4,7,11,-19,1,13,22,23,7,2,-12
-33,-4,7,11,-19,1,13,23,24,8,2,-12
-33,-4,7,11,-19,1,13,23,25,8,3,-12
-33,-4,7,11,-19,1,14,24,26,8,3,-12
-33,-4,8,11,-20,2,14,25,26,8,3,-11
-33,-4,8,11,-20,2,15,26,27,8,4,-11
-32,-4,8,11,-19,2,15,27,28,8,4,-10
-31,-3,7,10,-19,2,15,27,30,8,5,-10
-29,-3,7,10,-17,2,15,28,31,9,5,-10
-27,-3,6,9,-16,1,16,28,32,10,5,-10
-26,-3,6,9,-15,1,15,29,33,10,6,-10
-26,-3,6,8,-15,1,14,30,34,11,6,-10
-25,-3,6,8,-15,2,13,30,35,12,6,-10
-25,-2,6,8,-16,2,12,31,37,13,6,-10
-25,-2,7,8,-16,2,12,32,37,13,7,-10
-25,-2,7,8,-16,2,11,33,38,14,7,-10
-25,-2,7,7,-16,3,11,34,39,15,7,-10
-25,-1,7,7,-16,3,11,35,39,16,8,-11
-25,-1,8,7,-17,3,11,35,39,16,8,-11
-25,-1,8,7,-17,3,11,36,40,17,8,-11
-25,-1,8,7,-17,3,11,37,42,18,8,-11
-25,-1,8,7,-17,4,11,38,44,19,8,-12
-25,-0,9,7,-18,4,11,39,45,19,9,-12
-25,0,9,6,-19,5,11,40,46,20,9,-12
-25,1,10,5,-19,6,11,40,47,20,9,-12
-25,2,11,5,-20,6,11,42,49,21,9,-12
-24,2,11,4,-20,7,11,42,51,22,9,-12
-24,2,11,4,-20,7,11,43,52,22,9,-12
-23,2,11,4,-20,7,11,44,52,23,9,-13
-23,2,11,4,-20,7,11,45,53,24,9,-13
-23,3,12,4,-20,7,11,46,54,24,9,-13
-22,3,11,3,-20,7,11,47,56,25,9,-13
-22,3,11,3,-19,7,11,48,57,25,9,-13
-21,3,11,3,-19,7,12,49,58,26,9,-13
-20,3,11,3,-18,7,13,50,59,27,10,-14
-20,3,10,3,-18,7,12,51,59,27,10,-15
-19,3,10,2,-17,7,12,51,60,28,10,-15
-18,3,10,2,-16,6,11,52,61,28,10,-16
-17,3,9,2,-16,6,11,53,61,29,10,-16
-15,3,9,2,-14,6,11,53,62,29,11,-17
-14,3,8,1,-14,6,11,53,62,30,11,-16
-13,3,8,1,-13,5,11,53,63,30,11,-15
-11,3,7,1,-12,5,10,53,62,31,12,-14
-10,3,7,0,-11,5,10,53,62,31,12,-14
-9,3,7,-0,-10,5,9,53,61,31,13,-13
-7,3,7,-1,-9,5,8,52,61,31,13,-12
-6,3,6,-1,-9,5,8,52,60,31,13,-11
-5,3,6,-1,-8,5,8,51,58,30,14,-9
-4,3,5,-2,-7,5,8,50,57,30,14,-7
-3,3,5,-2,-6,4,9,49,55,30,15,-5
-1,3,5,-2,-5,4,9,48,53,29,15,-3
1,3,4,-3,-4,4,8,46,51,28,15,-2
3,3,3,-3,-2,3,7,45,48,27,15,-1
4,3,3,-3,-1,3,5,42,46,26,15,0
4,3,3,-4,-1,3,4,40,43,25,16,2
4,3,3,-3,-1,3,2,38,40,25,16,3
3,3,3,-3,-2,3,1,36,38,24,16,4
3,3,3,-3,-2,3,0,34,34,23,16,5
3,3,2,-3,-1,3,-1,32,31,22,16,6
3,3,2,-2,-1,3,-3,30,28,21,16,7
3,2,2,-2,-1,2,-3,27,25,19,15,8
3,2,2,-2,-1,2,-4,25,22,17,15,8
3,2,1,-2,-1,2,-6,22,19,16,15,9
4,2,1,-2,0,1,-9,20,16,14,15,9
4,2,0,-2,1,1,-10,19,13,12,14,10
4,1,0,-2,1,1,-13,17,10,10,13,10
3,1,0,-2,1,1,-14,15,7,9,12,10
3,1,0,-1,1,1,-15,13,4,7,12,10
3,1,0,-1,1,1,-15,12,0,4,11,10
3,1,-0,-1,1,0,-15,11,-2,2,11,9
4,0,-1,-1,2,0,-15,9,-5,1,10,9
5,0,-1,-1,3,-1,-15,8,-7,-1,9,9
7,0,-2,-1,5,-1,-15,7,-9,-2,9,9
8,-0,-3,-2,6,-2,-15,6,-9,-3,8,9
10,-1,-4,-2,8,-2,-15,5,-10,-4,8,8
10,-1,-4,-2,8,-2,-13,5,-10,-4,8,8
9,-1,-4,-1,7,-2,-12,5,-10,-4,8,8
8,-1,-4,-1,7,-2,-12,5,-10,-4,8,8
8,-1,-4,-1,7,-2,-12,5,-10,-4,8,8
8,-1,-4,-1,7,-2,-12,5,-10,-4,8,8
8,-1,-4,-1,7,-2,-12,5,-10,-4,8,8
8,-1,-4,-1,7,-2,-12,5,-10,-4,8,8
8,0,-3,-2,6,-1,-13,4,-13,-6,6,7
8,1,-1,-3,5,0,-13,3,-16,-9,4,5
8,2,-1,-3,4,0,-14,3,-17,-10,3,4
8,2,-1,-3,4,0,-14,3,-17,-10,3,4
8,2,-1,-3,4,0,-14,4,-18,-10,2,4
6,2,-0,-3,3,1,-14,5,-18,-10,2,4
5,2,0,-2,1,1,-14,6,-18,-10,2,4
3,2,1,-2,0,1,-14,8,-18,-10,2,4
2,2,1,-2,-1,2,-14,9,-18,-10,2,3
1,2,2,-1,-1,2,-14,9,-18,-10,2,3
1,2,2,-1,-1,2,-14,9,-18,-10,1,2
1,2,2,-1,-1,2,-14,9,-18,-10,0,0
1,2,2,-1,-1,2,-14,9,-18,-10,-0,-0
1,2,2,-1,-1,2,-15,9,-18,-10,-0,-0
1,2,2,-1,-1,2,-17,9,-18,-10,-0,-1
1,2,2,-1,-1,2,-18,9,-18,-10,-0,-1
1,2,2,-2,-2,2,-19,10,-18,-10,-0,-1
1,2,3,-2,-2,3,-20,11,-18,-9,-0,-1
1,3,3,-2,-3,3,-20,12,-18,-8,-0,-1
1,3,4,-3,-4,4,-20,14,-18,-8,-0,-1
1,4,4,-3,-4,4,-21,15,-17,-7,-0,-1
1,4,4,-3,-4,4,-22,15,-16,-7,0,-1
1,4,5,-3,-4,4,-23,16,-15,-7,1,-1
1,4,5,-3,-4,4,-25,16,-14,-7,2,-1
1,4,5,-3,-4,4,-26,16,-13,-7,2,-0
1,4,5,-3,-4,4,-26,16,-13,-6,2,1
1,4,5,-3,-4,4,-26,16,-13,-5,2,2
1,4,5,-3,-4,4,-26,16,-13,-5,2,3
1,4,5,-3,-4,4,-26,16,-13,-4,3,3
1,4,5,-3,-4,4,-26,16,-13,-4,3,4
1,4,5,-3,-4,4,-26,16,-13,-4,4,4
1,4,5,-3,-4,4,-26,16,-13,-4,5,4
1,4,5,-3,-4,4,-26,16,-13,-4,5,3
1,4,5,-3,-4,4,-26,16,-13,-3,5,3
1,4,5,-3,-4,4,-26,16,-13,-2,6,2
1,4,5,-3,-4,4,-26,16,-13,-2,6,0
0,4,5,-3,-5,5,-26,16,-13,-1,6,-0
-2,4,5,-3,-6,5,-26,16,-14,-1,6,-0
-3,4,6,-2,-7,5,-26,16,-15,-1,6,-1
-5,4,7,-2,-9,6,-26,16,-16,-1,6,-1
-6,4,7,-2,-10,6,-27,16,-17,-1,6,-1
-7,4,7,-1,-10,6,-28,16,-17,-1,6,-1
-7,4,7,-1,-10,6,-29,16,-18,-1,6,-1
-7,4,7,-1,-10,6,-31,16,-18,-1,6,-1
-7,4,7,-1,-10,6,-32,16,-18,-1,6,-1
-7,4,7,-1,-10,6,-32,16,-18,-2,6,-1
-7,4,7,-1,-10,6,-32,16,-18,-2,6,-1
-7,4,7,-1,-10,6,-32,16,-18,-3,6,-1
-7,4,7,-1,-10,6,-32,16,-18,-4,6,-1
-7,4,7,-1,-10,6,-32,16,-18,-4,6,-2
-7,4,7,-1,-10,6,-32,16,-18,-4,6,-3
-7,4,7,-1,-10,6,-32,16,-18,-4,6,-4
-7,4,7,-1,-10,6,-32,16,-18,-4,6,-5
-7,4,7,-1,-10,6,-32,16,-19,-4,6,-5
-7,4,7,-1,-10,6,-32,16,-20,-4,6,-5
-7,4,7,-1,-10,6,-32,16,-21,-4,6,-5
-7,4,7,-1,-10,6,-32,15,-22,-4,6,-5
-7,4,7,-1,-10,6,-32,14,-22,-4,6,-4
-7,4,7,-1,-10,6,-32,12,-22,-4,6,-3
-7,4,7,-1,-10,6,-32,11,-22,-4,6,-2
-7,4,7,-1,-10,6,-32,10,-22,-4,6,-1
-7,4,7,-1,-10,6,-32,9,-22,-5,6,-1
-7,4,7,-1,-10,6,-32,9,-22,-5,6,-1
-7,4,7,-1,-10,6,-32,9,-22,-6,6,-1
-7,4,7,-1,-10,6,-33,9,-22,-7,6,-1
-7,4,7,-1,-10,6,-34,9,-22,-7,6,-1
-7,4,7,-1,-10,6,-36,9,-22,-7,6,-1
-7,4,7,-1,-10,6,-37,9,-22,-7,6,-1
-7,4,7,-1,-10,6,-38,9,-22,-7,6,-1
-7,4,7,-1,-10,6,-38,7,-22,-7,6,-2
-7,4,7,-1,-10,6,-39,6,-22,-7,6,-3
-7,4,7,-1,-10,6,-39,5,-22,-7,6,-4
-7,4,7,-1,-10,6,-39,3,-23,-7,5,-5
-7,4,7,-1,-10,6,-39,1,-24,-8,5,-5
-7,4,7,-1,-10,6,-39,-0,-25,-8,4,-5
-7,4,7,-1,-10,6,-39,-2,-26,-9,3,-5
-7,4,7,-1,-10,6,-39,-3,-26,-10,3,-5
-7,4,7,-1,-10,6,-39,-3,-27,-10,3,-5
-7,4,7,-1,-10,6,-39,-4,-27,-10,2,-5
-7,4,7,-1,-10,6,-39,-4,-27,-10,2,-5
-7,4,7,-1,-10,6,-39,-4,-27,-10,2,-5
-7,4,7,-1,-10,6,-39,-4,-27,-10,2,-5
-7,4,7,-1,-10,6,-39,-4,-27,-10,2,-5
-7,4,7,-1,-10,6,-39,-4,-27,-10,2,-5
-7,4,7,-1,-10,6,-39,-4,-27,-10,2,-5
-7,3,7,-1,-9,5,-39,-4,-27,-10,2,-5
-7,3,6,-0,-9,4,-39,-4,-27,-10,2,-5
-7,2,5,0,-8,4,-39,-4,-27,-10,2,-5
-7,2,5,0,-8,3,-39,-4,-27,-10,2,-5
-7,2,5,1,-8,3,-39,-4,-27,-10,2,-5
-7,2,5,1,-7,3,-39,-4,-27,-10,2,-5
-7,2,5,1,-7,3,-39,-4,-27,-10,2,-5
-7,2,5,1,-7,3,-39,-4,-27,-10,2,-5
-7,2,5,1,-7,3,-39,-4,-27,-10,2,-5
-7,2,5,1,-7,3,-39,-4,-27,-10,1,-5
-7,2,5,1,-7,3,-39,-4,-27,-10,0,-5
-7,2,5,1,-7,3,-39,-4,-27,-10,-0,-5
-7,2,5,1,-7,3,-39,-4,-28,-10,-1,-5
-7,2,5,1,-7,3,-39,-4,-29,-10,-2,-5
-7,2,5,1,-7,3,-39,-4,-31,-10,-3,-5
-7,2,5,0,-8,3,-39,-4,-31,-10,-3,-6
-7,2,5,0,-8,4,-39,-6,-31,-10,-3,-7
-7,3,6,-0,-9,4,-39,-7,-32,-10,-4,-8
-7,3,7,-1,-10,5,-39,-8,-32,-10,-4,-9
-7,4,7,-1,-10,6,-39,-9,-32,-10,-4,-9
-7,4,7,-1,-10,6,-41,-10,-32,-10,-4,-10
-7,4,7,-1,-10,6,-42,-10,-32,-10,-4,-10
-7,4,7,-1,-10,6,-44,-10,-32,-10,-4,-10
-7,4,7,-1,-10,6,-44,-10,-32,-10,-4,-10
-7,4,7,-1,-10,6,-45,-10,-33,-11,-4,-10
-7,4,7,-1,-10,6,-45,-10,-34,-11,-4,-10
-7,4,7,-1,-10,6,-45,-10,-35,-12,-4,-10
-7,4,7,-1,-10,6,-45,-10,-36,-13,-4,-10
-7,4,7,-1,-10,6,-45,-10,-36,-13,-4,-10
-7,4,7,-1,-10,6,-45,-10,-36,-13,-4,-10
-7,4,7,-1,-10,6,-45,-10,-36,-13,-4,-10
-7,4,7,-1,-10,6,-45,-10,-36,-13,-4,-10
-7,4,7,-1,-10,6,-45,-10,-36,-13,-4,-10
-7,4,7,-1,-10,6,-45,-10,-36,-13,-4,-10
-7,4,7,-1,-10,6,-45,-10,-36,-13,-4,-10
-7,4,7,-1,-10,6,-45,-10,-36,-13,-4,-10
-7,4,7,-1,-10,6,-45,-10,-36,-13,-4,-10
-7,4,7,-1,-10,6,-45,-10,-36,-13,-4,-10
-7,4,7,-1,-10,6,-45,-10,-36,-13,-4,-10
-7,4,7,-1,-10,6,-45,-10,-36,-13,-4,-10
-7,4,7,-1,-10,6,-45,-10,-36,-13,-4,-10
-7,4,7,-1,-10,6,-45,-10,-36,-13,-4,-10
-7,4,7,-1,-10,6,-45,-10,-36,-13,-4,-10
-7,4,7,-1,-10,6,-45,-10,-36,-13,-4,-10
-7,4,7,-1,-10,6,-45,-10,-36,-13,-4,-10
-7,4,7,-1,-10,6,-45,-10,-36,-13,-4,-10
-7,4,7,-1,-10,6,-45,-10,-36,-13,-4,-10
-7,4,7,-1,-10,6,-46,-11,-36,-13,-4,-10
-7,4,7,-1,-10,6,-47,-12,-36,-13,-4,-10
-7,4,7,-1,-10,6,-48,-13,-36,-13,-5,-10
-7,4,7,-1,-10,6,-50,-15,-36,-13,-6,-10
-7,4,7,-1,-10,6,-51,-16,-36,-13,-6,-10
-7,4,7,-1,-10,6,-51,-16,-36,-13,-6,-10
-7,4,7,-1,-10,6,-51,-17,-36,-13,-7,-10
-7,4,7,-1,-10,6,-51,-17,-36,-13,-7,-10
-7,4,7,-1,-10,6,-51,-17,-36,-13,-7,-10
-7,4,7,-1,-10,6,-50,-17,-36,-13,-7,-10
-7,4,7,-1,-10,6,-48,-17,-36,-13,-7,-10
-7,4,7,-1,-10,6,-47,-17,-36,-13,-7,-10
-8,4,7,-1,-10,6,-45,-17,-37,-13,-7,-10
-9,4,7,-1,-11,6,-44,-17,-37,-14,-7,-10
-9,3,7,-0,-11,6,-44,-17,-38,-14,-7,-10
-9,3,7,-0,-11,6,-44,-17,-38,-14,-7,-10
-9,3,7,-0,-11,6,-44,-17,-38,-14,-7,-10
-9,3,7,-0,-11,6,-44,-17,-38,-14,-7,-10
-9,3,7,-0,-11,6,-44,-17,-38,-14,-7,-10
-6,5,8,-2,-10,7,-45,-14,-37,-13,-6,-8
-2,7,9,-5,-9,8,-47,-11,-36,-12,-4,-6
0,7,9,-6,-9,8,-48,-10,-35,-12,-4,-5
0,8,9,-6,-9,9,-48,-10,-35,-11,-4,-5
1,8,9,-6,-8,9,-49,-10,-35,-11,-4,-5
2,8,8,-7,-8,8,-50,-10,-34,-11,-3,-5
3,8,8,-7,-7,8,-50,-10,-34,-11,-3,-3
4,8,8,-7,-6,8,-51,-9,-33,-10,-2,-2
5,8,7,-7,-5,8,-51,-9,-33,-10,-2,0
6,8,7,-7,-5,8,-51,-8,-32,-9,-1,2
7,8,7,-8,-5,8,-51,-8,-31,-8,-1,2
7,8,7,-8,-5,8,-50,-8,-30,-8,-0,3
8,8,7,-8,-5,8,-49,-8,-30,-8,0,3
8,9,7,-9,-5,9,-48,-8,-29,-7,1,4
8,9,8,-9,-5,9,-48,-8,-28,-7,1,4
9,9,8,-9,-4,9,-48,-8,-28,-6,2,5
10,9,8,-10,-4,9,-48,-7,-27,-5,2,5
11,10,8,-10,-4,9,-48,-7,-27,-5,2,6
12,10,8,-11,-3,9,-48,-7,-26,-5,3,6
13,11,8,-11,-4,10,-49,-7,-26,-4,3,7
14,12,9,-12,-4,11,-50,-7,-26,-4,3,7
14,12,9,-13,-4,12,-50,-7,-26,-4,3,8
14,13,10,-13,-5,12,-50,-7,-26,-4,3,8
15,13,9,-13,-4,12,-51,-8,-27,-4,3,8
16,13,9,-14,-3,12,-52,-9,-28,-4,3,8
17,13,9,-14,-3,12,-53,-10,-28,-4,3,8
18,13,9,-14,-3,12,-54,-10,-29,-5,3,8
18,13,9,-15,-3,12,-55,-9,-31,-5,3,8
19,14,9,-15,-3,12,-56,-9,-32,-6,3,8
20,14,9,-15,-2,12,-56,-8,-34,-6,2,7
20,13,8,-15,-1,11,-57,-9,-35,-6,2,7
20,13,8,-15,-0,11,-58,-10,-36,-6,2,7
20,12,7,-14,0,10,-58,-11,-38,-6,2,7
20,12,6,-14,1,10,-58,-12,-39,-6,1,6
20,11,6,-13,1,9,-57,-13,-39,-7,1,6
19,11,6,-13,1,9,-56,-13,-40,-7,0,5
18,10,6,-12,1,8,-56,-13,-41,-8,0,5
17,9,5,-11,1,8,-56,-13,-42,-8,-0,5
16,8,4,-10,2,7,-55,-13,-43,-10,-1,4
14,7,3,-9,2,6,-54,-13,-43,-11,-1,4
13,6,3,-8,2,5,-53,-13,-44,-12,-1,4
12,5,2,-7,2,4,-53,-14,-44,-13,-2,3
11,5,2,-6,2,4,-52,-15,-44,-13,-2,3
10,5,2,-6,1,4,-51,-17,-44,-13,-2,3
8,5,3,-6,0,4,-50,-18,-44,-13,-3,3
7,4,3,-5,-1,4,-49,-19,-44,-13,-3,3
6,4,3,-4,-1,4,-47,-18,-44,-13,-3,2
4,4,3,-4,-2,4,-45,-18,-44,-13,-3,2
3,4,4,-3,-3,4,-42,-18,-44,-13,-3,1
2,4,4,-3,-3,4,-40,-17,-43,-14,-4,1
1,3,4,-3,-3,4,-38,-16,-42,-14,-4,0
0,3,4,-2,-4,4,-35,-15,-41,-14,-4,-1
-1,3,4,-2,-5,4,-33,-15,-40,-15,-5,-2
-3,3,5,-1,-6,4,-31,-15,-39,-15,-6,-3
-4,3,5,-1,-7,4,-29,-16,-40,-16,-6,-4
-6,3,6,-1,-8,5,-26,-16,-40,-16,-7,-4
-7,3,7,-1,-9,5,-25,-17,-41,-17,-7,-5
-8,3,7,-1,-10,5,-22,-17,-41,-18,-8,-6
-9,3,7,0,-10,5,-20,-18,-42,-18,-9,-7
-10,3,7,0,-10,5,-18,-18,-43,-19,-9,-8
-11,2,7,1,-11,5,-17,-19,-44,-20,-10,-8
-11,2,7,1,-11,4,-16,-20,-44,-20,-10,-9
-11,2,6,2,-10,4,-15,-20,-45,-20,-11,-9
-11,1,5,2,-10,3,-15,-20,-45,-21,-11,-9
-11,0,5,2,-9,3,-14,-20,-45,-21,-11,-9
-12,-0,4,3,-9,2,-13,-20,-45,-21,-11,-9
-14,-1,4,4,-9,2,-11,-20,-45,-21,-11,-9
-17,-1,5,5,-11,1,-9,-20,-45,-21,-11,-8
-19,-2,5,6,-12,1,-7,-20,-46,-21,-11,-8
-19,-2,4,7,-11,1,-6,-20,-46,-21,-11,-7
-19,-2,4,7,-11,1,-5,-20,-45,-21,-11,-7
-19,-2,5,6,-12,1,-4,-20,-45,-21,-11,-8
-19,-1,5,6,-12,2,-4,-20,-44,-21,-11,-7
-20,-1,6,6,-13,2,-4,-20,-44,-21,-11,-7
-21,-2,6,6,-13,2,-3,-20,-45,-20,-10,-6
-21,-2,5,7,-12,1,-3,-19,-46,-20,-10,-5
-22,-3,4,8,-12,0,-2,-18,-46,-19,-10,-5
-24,-3,5,8,-13,0,0,-15,-45,-19,-10,-5
-24,-3,5,8,-13,0,2,-15,-44,-18,-10,-5
-12,-1,3,4,-8,1,2,-12,-40,-18,-13,-9
-28,-1,9,7,-19,4,8,-6,-28,-18,-14,-15
-39,-1,12,11,-27,5,13,3,-20,-21,-22,-26
-47,-2,15,13,-32,6,22,14,-11,-22,-31,-40
-53,-2,17,15,-36,7,30,30,-1,-22,-34,-48
-57,-2,18,16,-39,8,35,40,7,-18,-34,-48
-47,-2,15,13,-32,6,41,50,15,-13,-29,-46
-30,-2,8,9,-19,3,41,59,25,-0,-19,-37
-14,-2,3,5,-8,0,41,67,35,13,-6,-21
4,1,-0,-2,2,0,35,72,45,31,16,0
36,3,-9,-11,22,-2,29,72,53,48,42,31
70,6,-18,-21,44,-5,21,69,60,68,71,63
108,6,-32,-30,71,-12,7,79,72,92,104,100
134,7,-40,-37,89,-16,-1,89,86,118,138,139
170,6,-54,-45,116,-23,-6,98,102,143,170,173
210,11,-62,-59,139,-24,-19,108,112,170,206,213
254,21,-66,-77,159,-20,-33,101,122,197,246,265
287,30,-67,-93,172,-16,-56,84,112,217,279,309
333,40,-72,-111,194,-12,-86,61,102,239,312,356
347,50,-66,-122,193,-4,-110,35,91,249,329,390
333,60,-49,-127,170,10,-123,9,75,243,318,384
323,56,-51,-121,169,7,-131,-18,52,228,295,357
303,42,-59,-106,170,-5,-131,-36,15,195,251,305
262,29,-59,-85,155,-12,-129,-59,-35,143,190,233
214,17,-56,-64,135,-18,-124,-96,-114,49,117,170
170,-3,-63,-39,126,-33,-116,-122,-190,-47,43,108
144,-22,-76,-17,130,-50,-115,-137,-255,-132,-29,49
134,-38,-91,-2,141,-66,-102,-137,-285,-182,-86,-4
112,-51,-98,13,141,-77,-88,-134,-297,-212,-126,-45
82,-55,-93,24,125,-77,-74,-134,-287,-208,-137,-65
68,-51,-83,24,110,-70,-61,-113,-252,-177,-119,-52
62,-50,-80,24,104,-67,-49,-85,-215,-144,-95,-45
52,-49,-76,26,96,-65,-31,-54,-177,-120,-83,-44
38,-43,-63,25,79,-55,-14,-28,-141,-96,-70,-42
16,-39,-51,27,58,-47,-1,-6,-110,-77,-60,-42
12,-33,-42,23,47,-39,5,4,-89,-65,-55,-44
12,-25,-34,17,39,-31,29,11,-69,-52,-46,-37
4,-19,-23,14,25,-22,40,25,-50,-37,-37,-27
-20,-14,-9,16,2,-12,49,33,-31,-26,-31,-26
-10,-11,-9,11,5,-10,60,33,-21,-22,-26,-26
-18,-6,-1,9,-5,-4,56,29,-20,-18,-23,-24
-18,-5,1,8,-8,-2,51,20,-20,-17,-21,-20
-18,-3,3,7,-10,0,46,9,-20,-15,-18,-24
-16,-3,2,7,-8,-1,43,4,-21,-15,-17,-21
-17,-3,3,7,-9,-0,42,3,-21,-15,-16,-20
-22,-2,5,7,-13,1,44,3,-21,-15,-16,-20
-26,-2,7,8,-16,2,48,3,-21,-15,-15,-19
-28,-2,8,8,-18,3,51,3,-20,-15,-15,-19
-30,-2,9,9,-19,3,53,3,-20,-15,-15,-19
-30,-2,9,9,-19,3,53,2,-20,-15,-15,-20
-30,-2,8,9,-19,3,52,0,-20,-15,-15,-21
-29,-2,8,9,-19,3,51,-1,-20,-15,-15,-21
-26,-2,8,8,-17,3,49,-2,-21,-15,-15,-21
-24,-1,7,7,-16,3,47,-3,-21,-15,-14,-20
-24,-1,7,7,-16,3,47,-3,-21,-15,-14,-19
-26,-1,8,7,-18,3,48,-2,-21,-15,-13,-19
-28,-1,9,8,-19,3,49,-2,-21,-15,-13,-19
-30,-1,9,8,-20,4,50,-2,-19,-15,-13,-19
-31,-1,10,9,-21,4,50,-2,-18,-15,-13,-19
-30,-1,10,8,-21,4,51,-2,-16,-15,-13,-20
-30,-1,10,8,-21,4,51,-2,-16,-15,-13,-20
-29,-1,10,8,-20,4,51,-2,-15,-15,-13,-20
-29,-1,10,8,-20,4,51,-2,-15,-15,-13,-20
-28,-1,9,7,-20,4,50,-2,-15,-15,-13,-20
-28,-1,9,7,-19,4,50,-2,-15,-14,-13,-20
-27,-1,9,7,-19,4,50,-2,-14,-14,-12,-20
-27,-0,9,7,-19,4,50,-2,-14,-14,-12,-19
-27,-0,10,7,-19,4,51,-1,-14,-13,-11,-19
-27,0,10,7,-20,5,51,-1,-14,-13,-10,-18
-27,0,10,6,-20,5,50,-0,-14,-13,-9,-18
-27,1,11,6,-21,6,50,-0,-13,-14,-9,-18
-27,1,12,6,-21,6,49,-0,-13,-14,-9,-18
-27,2,12,5,-22,7,48,0,-13,-15,-8,-18
-27,2,12,5,-22,7,48,1,-13,-15,-8,-18
-27,2,12,5,-22,7,48,1,-12,-14,-8,-18
-27,2,12,5,-22,7,48,1,-12,-14,-8,-17
-26,2,12,5,-22,7,48,1,-12,-14,-8,-17
-26,2,12,5,-21,7,48,1,-12,-13,-7,-17
-25,2,12,4,-21,7,49,2,-11,-13,-7,-17
-25,2,12,4,-21,7,49,3,-11,-13,-7,-17
-25,2,12,4,-21,7,49,3,-10,-12,-7,-17
-25,2,11,5,-21,7,49,3,-10,-11,-7,-17
-25,2,11,5,-21,6,49,3,-9,-10,-7,-16
-25,2,11,5,-20,6,49,4,-9,-9,-7,-16
-25,2,11,5,-20,6,49,4,-9,-8,-7,-15
-25,2,11,5,-20,6,49,5,-7,-8,-6,-15
-25,2,11,5,-20,6,49,5,-6,-8,-6,-15
-25,2,11,5,-20,6,49,5,-4,-7,-6,-15
-25,2,11,5,-20,6,50,5,-3,-7,-6,-15
-25,2,11,5,-20,6,51,6,-2,-7,-6,-15
-25,2,11,5,-20,6,52,6,-2,-6,-6,-15
-25,2,11,5,-20,6,54,6,-1,-6,-6,-15
-25,2,11,5,-20,6,55,6,-1,-6,-6,-15
-25,2,11,5,-20,6,55,7,-1,-6,-6,-15
-25,2,11,5,-20,6,54,7,-0,-5,-6,-15
-25,2,11,5,-20,6,54,8,0,-5,-6,-15
-25,2,11,5,-21,7,53,8,0,-5,-5,-15
-25,2,12,5,-21,7,52,8,1,-5,-5,-14
-25,2,12,4,-21,7,51,8,1,-4,-5,-14
-25,2,12,4,-21,7,49,8,1,-4,-5,-14
-25,2,12,4,-21,7,48,9,1,-4,-4,-14
-25,2,12,4,-21,7,48,9,2,-3,-4,-14
-25,2,12,4,-21,7,48,9,2,-3,-4,-14
-25,2,12,4,-21,7,49,9,3,-3,-4,-14
-25,2,12,4,-21,7,49,9,3,-3,-4,-14
-25,2,12,4,-21,7,49,9,4,-3,-4,-14
-25,3,12,4,-22,8,49,10,4,-2,-4,-14
-25,3,12,4,-22,8,49,10,5,-2,-5,-14
-25,3,12,4,-22,8,49,11,5,-2,-5,-14
-25,3,12,4,-22,8,49,11,5,-2,-5,-14
-25,3,12,4,-22,8,49,11,6,-2,-5,-14
-25,3,12,4,-22,8,49,11,6,-3,-4,-14
-25,3,12,4,-22,8,49,12,7,-3,-4,-13
-25,3,13,4,-22,8,49,12,7,-3,-4,-13
-25,3,13,4,-22,8,49,12,8,-2,-4,-13
-25,4,13,3,-23,8,49,12,9,-2,-3,-13
-25,4,14,3,-23,9,49,13,9,-2,-3,-13
-25,4,14,3,-23,9,50,14,10,-1,-3,-13
-25,5,14,3,-24,10,50,14,10,-1,-2,-13
-25,5,14,2,-24,10,51,15,11,-0,-2,-13
-25,5,15,2,-24,10,51,15,12,0,-1,-12
-25,5,15,2,-25,10,51,16,13,1,-1,-12
-25,5,15,2,-25,10,51,16,13,1,-1,-12
-25,5,15,2,-25,10,51,16,14,2,-0,-12
-25,6,15,2,-25,11,51,17,15,2,-0,-12
-25,6,16,2,-25,11,51,18,16,3,0,-12
-25,6,16,2,-25,11,52,18,17,3,0,-11
-25,6,16,2,-25,11,52,19,18,4,1,-11
-25,6,16,1,-26,11,52,20,19,4,1,-10
-25,6,16,1,-26,12,52,20,20,5,2,-10
-25,7,17,1,-26,12,53,21,21,6,2,-10
-25,7,17,1,-26,12,54,22,22,7,2,-10
-25,7,17,1,-26,12,54,22,24,7,2,-10
-25,7,17,1,-27,12,54,23,25,8,3,-10
-25,7,17,1,-27,13,54,24,26,9,3,-10
-25,7,18,0,-27,13,55,25,27,10,3,-10
-25,8,18,0,-27,13,55,26,28,10,4,-10
-25,8,18,0,-27,13,56,27,30,11,4,-10
-25,8,18,0,-28,13,56,27,32,12,4,-10
-25,8,19,-0,-28,14,56,28,33,13,5,-11
-25,8,19,-0,-28,14,56,29,34,13,4,-11
-25,9,19,-1,-29,14,56,30,35,14,4,-11
-25,9,19,-1,-29,14,56,30,37,15,3,-11
-25,9,19,-1,-29,15,56,31,39,16,3,-12
-25,9,19,-1,-29,15,56,32,40,16,3,-12
-25,9,20,-1,-29,15,56,33,41,17,3,-12
-25,9,20,-1,-29,15,56,34,43,17,3,-12
-25,10,20,-1,-30,15,56,35,44,18,3,-12
-24,10,20,-2,-29,15,56,36,45,19,3,-12
-24,10,20,-2,-29,15,56,37,45,19,2,-12
-23,10,19,-2,-28,15,56,38,45,20,2,-13
-23,10,20,-2,-29,15,56,39,45,21,1,-13
-23,10,20,-2,-29,15,56,40,45,21,1,-13
-22,10,20,-2,-28,15,56,40,46,22,0,-13
-22,10,20,-3,-28,15,56,42,47,22,0,-13
-21,10,19,-3,-27,15,56,42,48,23,0,-13
-21,10,19,-3,-27,15,57,43,49,24,1,-13
-22,10,20,-2,-28,15,56,44,50,24,1,-13
-23,10,20,-2,-29,16,56,45,51,25,1,-13
-24,10,20,-2,-29,16,56,45,52,25,1,-13
-24,10,20,-2,-29,16,56,46,52,26,1,-12
-23,10,20,-2,-29,16,56,46,54,26,2,-12
-22,10,20,-3,-28,15,56,46,55,27,2,-12
-21,10,19,-3,-27,15,55,46,57,27,2,-11
-18,10,18,-3,-25,15,54,46,57,28,3,-10
-16,10,17,-4,-23,14,54,46,57,28,3,-9
-13,10,17,-5,-22,14,53,46,57,29,3,-8
-9,11,16,-6,-19,14,52,46,56,30,4,-8
-6,11,15,-7,-18,13,51,45,55,30,4,-7
-5,11,14,-7,-16,13,50,44,53,30,5,-6
-4,11,14,-7,-16,13,49,43,52,30,5,-5
-3,11,14,-8,-15,13,48,43,50,30,5,-4
-1,11,13,-8,-14,13,47,42,49,29,6,-3
1,11,12,-8,-12,12,46,40,47,29,6,-2
3,11,12,-9,-11,12,44,38,46,29,6,-1
4,11,11,-9,-10,12,43,36,45,28,6,0
5,11,11,-10,-9,11,41,34,43,28,7,2
6,11,10,-10,-8,11,40,32,40,27,7,3
7,11,10,-10,-8,11,39,30,38,25,7,4
9,10,9,-10,-6,10,38,27,34,24,7,5
10,10,8,-10,-5,10,37,25,31,22,7,6
10,10,8,-10,-4,9,35,21,28,21,7,7
10,10,8,-10,-4,9,34,18,25,19,8,8
10,10,8,-10,-4,9,33,14,22,17,8,8
10,9,7,-10,-4,9,32,10,19,16,9,9
11,9,7,-10,-3,8,31,8,16,14,8,9
12,9,6,-10,-2,8,31,6,13,12,8,10
12,9,6,-9,-2,8,30,5,10,10,7,10
11,9,6,-9,-3,8,29,2,7,9,6,10
10,9,7,-9,-3,8,27,1,4,7,5,10
10,9,7,-10,-4,9,26,-1,0,6,3,10
10,10,8,-10,-4,9,24,-2,-2,5,2,9
10,10,8,-10,-5,10,23,-4,-5,3,1,9
10,10,8,-10,-4,9,23,-5,-7,2,0,9
10,10,8,-10,-4,9,22,-6,-9,1,-0,9
10,9,7,-10,-4,9,22,-7,-9,-0,-1,9
10,9,7,-9,-3,8,22,-8,-10,-1,-2,8
10,9,7,-9,-4,8,22,-8,-10,-2,-1,8
9,9,7,-9,-4,9,22,-8,-10,-2,-1,8
8,9,8,-9,-5,9,22,-8,-10,-2,-1,8
8,9,8,-9,-5,9,22,-8,-10,-2,-1,8
8,9,8,-9,-5,9,22,-8,-10,-2,-1,8
8,9,8,-9,-5,9,22,-8,-10,-2,-1,8
8,9,8,-9,-5,9,22,-8,-10,-2,-1,8
8,9,8,-9,-5,9,23,-11,-11,-5,-3,8
8,9,8,-9,-5,9,24,-15,-12,-8,-5,8
8,9,8,-9,-5,9,24,-16,-13,-9,-6,8
8,9,8,-9,-5,9,24,-16,-13,-10,-6,8
8,9,8,-9,-5,9,23,-17,-13,-10,-7,8
8,9,8,-9,-5,9,22,-17,-13,-10,-7,7
8,9,8,-9,-5,9,21,-17,-13,-10,-7,6
8,9,8,-9,-5,9,19,-17,-13,-10,-7,5
8,9,8,-9,-5,9,18,-17,-13,-10,-7,4
8,9,8,-9,-5,9,18,-17,-13,-10,-8,4
8,9,8,-9,-5,9,18,-17,-13,-10,-8,4
8,9,8,-9,-5,9,18,-17,-13,-10,-9,4
8,9,8,-9,-5,9,18,-17,-13,-10,-9,4
6,9,8,-8,-6,9,18,-17,-13,-10,-10,4
5,9,9,-8,-7,9,18,-17,-13,-10,-10,4
3,9,10,-7,-9,10,18,-17,-13,-10,-10,4
2,9,10,-7,-10,10,18,-17,-12,-10,-10,4
1,9,10,-7,-10,10,18,-17,-11,-9,-10,4
1,9,10,-7,-10,10,18,-17,-10,-8,-10,4
1,9,10,-7,-10,10,18,-17,-9,-8,-10,4
0,9,11,-7,-11,10,18,-17,-9,-7,-10,4
-2,9,11,-7,-12,10,18,-17,-8,-7,-10,4
-3,9,12,-6,-13,11,18,-17,-8,-7,-10,4
-5,9,12,-6,-14,11,18,-17,-8,-7,-10,4
-6,9,13,-5,-15,11,18,-17,-8,-7,-9,4
-7,9,13,-5,-16,11,18,-17,-8,-6,-9,4
-7,9,13,-5,-16,11,18,-17,-8,-5,-8,4
-7,9,13,-5,-16,11,18,-17,-8,-5,-7,4
-7,9,13,-5,-16,12,18,-17,-8,-4,-7,4
-7,10,14,-6,-17,12,18,-17,-8,-4,-7,5
-7,10,14,-6,-17,13,18,-17,-8,-4,-7,6
-7,11,15,-7,-18,13,18,-17,-8,-4,-7,7
-7,11,16,-7,-19,14,17,-17,-8,-4,-7,8
-7,11,16,-7,-19,14,16,-17,-8,-4,-7,8
-7,11,16,-7,-19,14,15,-17,-8,-4,-7,8
-7,11,16,-7,-19,14,13,-17,-8,-4,-7,8
-7,11,16,-7,-19,14,12,-17,-8,-4,-7,8
-7,11,16,-7,-19,14,12,-17,-8,-4,-7,8
-7,11,16,-7,-19,14,11,-17,-8,-4,-7,8
-7,11,16,-7,-19,14,11,-17,-8,-4,-7,8
-7,11,16,-7,-19,14,11,-17,-8,-4,-7,8
-7,11,16,-7,-19,14,11,-17,-8,-4,-7,8
-7,11,16,-7,-19,14,11,-17,-8,-4,-7,8
-7,11,16,-7,-19,14,11,-17,-8,-4,-7,8
-7,11,16,-7,-19,14,11,-17,-8,-4,-7,8
-7,11,16,-7,-19,14,11,-18,-8,-4,-7,8
-7,11,16,-7,-19,14,11,-20,-8,-4,-7,8
-7,11,16,-7,-19,14,11,-21,-8,-4,-7,8
-7,11,16,-7,-19,14,11,-22,-8,-4,-7,8
-7,11,16,-7,-19,14,9,-23,-8,-4,-7,7
-7,11,16,-7,-19,14,8,-23,-8,-4,-7,6
-7,11,16,-7,-19,14,7,-23,-8,-4,-7,5
-7,11,16,-7,-19,14,6,-23,-8,-4,-7,4
-7,11,16,-7,-19,14,5,-23,-8,-5,-7,4
-7,11,16,-7,-19,14,5,-23,-8,-5,-7,4
-7,11,16,-7,-19,14,5,-23,-8,-6,-7,4
-7,11,16,-7,-19,14,5,-23,-9,-7,-7,3
-7,11,16,-7,-19,14,5,-23,-9,-7,-7,3
-7,11,16,-7,-19,14,5,-23,-10,-7,-7,2
-7,11,16,-7,-19,14,5,-23,-12,-7,-7,0
-7,11,16,-7,-19,14,5,-23,-12,-7,-7,-0
-7,11,16,-7,-19,14,5,-23,-13,-8,-8,-0
-7,11,16,-7,-19,14,5,-23,-13,-8,-8,-1
-7,11,16,-7,-19,14,5,-23,-13,-9,-9,-1
-7,11,16,-7,-19,14,5,-24,-13,-10,-9,-1
-7,11,16,-7,-19,14,5,-25,-13,-10,-10,-2
-7,11,16,-7,-19,14,5,-26,-13,-10,-10,-3
-7,11,16,-7,-19,14,5,-28,-13,-10,-10,-4
-7,11,16,-7,-19,14,5,-29,-13,-10,-10,-5
-7,11,16,-7,-19,14,5,-29,-13,-10,-10,-5
-7,11,16,-7,-19,14,5,-30,-13,-10,-10,-5
-7,11,16,-7,-19,14,5,-30,-13,-10,-10,-5
-7,11,16,-7,-19,14,5,-30,-13,-10,-10,-5
-7,11,16,-7,-19,14,3,-30,-13,-10,-11,-5
-7,11,16,-7,-19,14,2,-30,-13,-10,-11,-5
-7,11,16,-7,-19,14,1,-30,-13,-10,-12,-5
-7,11,16,-7,-19,14,-0,-30,-13,-10,-12,-5
-7,11,16,-7,-19,14,-1,-30,-14,-11,-13,-5
-7,11,16,-7,-19,14,-1,-30,-15,-11,-13,-5
-7,11,16,-7,-19,14,-1,-30,-16,-12,-13,-5
-7,11,16,-7,-19,14,-2,-30,-17,-13,-13,-5
-7,11,16,-7,-19,14,-3,-30,-17,-13,-13,-5
-7,11,16,-7,-19,14,-4,-30,-18,-13,-13,-5
-7,11,16,-7,-19,14,-6,-30,-18,-13,-13,-5
-7,11,16,-7,-19,14,-7,-30,-18,-13,-13,-5
-7,11,16,-7,-19,14,-7,-30,-18,-13,-13,-5
-7,11,16,-7,-19,14,-7,-30,-18,-13,-13,-5
-7,11,16,-7,-19,14,-7,-30,-18,-13,-13,-5
-7,11,16,-7,-19,14,-7,-30,-18,-13,-13,-5
-7,11,16,-7,-19,14,-7,-30,-18,-13,-13,-5
-7,11,16,-7,-19,14,-7,-30,-18,-13,-13,-5
-7,11,16,-7,-19,14,-7,-30,-18,-13,-13,-5
-7,11,16,-7,-19,14,-7,-30,-18,-13,-13,-5
-7,11,16,-7,-19,14,-7,-30,-18,-14,-13,-5
-7,11,16,-7,-19,14,-7,-30,-18,-15,-13,-5
-7,11,16,-7,-19,14,-7,-30,-18,-15,-13,-5
-8,11,16,-7,-19,14,-7,-30,-18,-16,-13,-6
-10,11,17,-7,-21,15,-7,-30,-18,-16,-14,-7
-11,11,17,-6,-22,15,-7,-30,-18,-16,-14,-8
-13,11,18,-6,-23,15,-7,-30,-18,-16,-15,-9
-14,11,18,-5,-24,15,-7,-30,-18,-16,-15,-9
-15,11,19,-5,-24,16,-7,-30,-19,-16,-16,-10
-15,11,19,-5,-25,16,-7,-30,-20,-16,-16,-10
-15,11,19,-5,-25,16,-7,-30,-21,-16,-16,-10
-15,11,19,-5,-25,16,-7,-30,-22,-16,-16,-10
-15,11,19,-5,-25,16,-7,-30,-22,-16,-16,-10
-15,11,19,-5,-25,16,-7,-30,-22,-16,-16,-10
-15,11,19,-5,-25,16,-7,-30,-22,-16,-16,-10
-15,11,19,-5,-25,16,-7,-30,-22,-16,-16,-10
-15,11,19,-5,-25,16,-7,-30,-22,-16,-16,-10
-15,11,19,-5,-25,16,-7,-30,-22,-16,-16,-10
-15,11,19,-5,-25,16,-7,-30,-22,-16,-16,-10
-14,11,18,-5,-24,15,-7,-30,-22,-16,-16,-10
-13,11,18,-6,-23,15,-7,-30,-22,-16,-17,-10
-11,11,17,-6,-22,15,-7,-30,-22,-16,-17,-10
-9,11,17,-7,-20,15,-7,-30,-22,-16,-18,-10
-8,11,16,-7,-19,14,-7,-30,-22,-16,-19,-10
-8,11,16,-7,-19,14,-7,-30,-22,-16,-19,-10
-7,11,16,-7,-19,14,-7,-30,-22,-16,-19,-10
-7,11,16,-7,-19,14,-7,-30,-22,-16,-19,-10
-7,11,16,-7,-19,14,-7,-30,-22,-16,-19,-10
-7,11,16,-7,-19,14,-7,-30,-22,-16,-19,-10
-7,11,16,-7,-19,14,-7,-30,-22,-16,-19,-10
-7,11,16,-7,-19,14,-7,-30,-22,-16,-19,-10
-7,12,16,-7,-19,14,-7,-30,-22,-16,-19,-10
-7,12,17,-8,-20,15,-7,-30,-22,-16,-19,-10
-7,13,17,-8,-20,16,-7,-30,-22,-16,-19,-10
-7,13,18,-8,-21,16,-7,-30,-22,-16,-19,-10
-7,14,18,-9,-21,17,-7,-30,-22,-16,-19,-10
-7,14,19,-9,-22,17,-7,-31,-22,-16,-19,-10
-7,14,19,-9,-22,17,-7,-33,-22,-16,-19,-10
-7,14,19,-9,-22,17,-7,-34,-22,-16,-19,-10
-7,14,19,-9,-22,17,-7,-35,-22,-16,-19,-10
-7,14,19,-9,-22,17,-7,-36,-22,-16,-20,-10
-7,14,19,-9,-22,17,-7,-36,-22,-16,-20,-10
-7,14,19,-9,-22,17,-7,-36,-22,-16,-21,-10
-7,14,19,-9,-22,17,-8,-36,-22,-16,-22,-10
-7,14,19,-9,-22,17,-9,-36,-22,-16,-22,-10
-7,14,19,-9,-22,17,-10,-36,-22,-16,-22,-10
-7,14,19,-9,-22,17,-12,-36,-22,-16,-22,-10
-7,14,19,-9,-22,17,-13,-36,-22,-16,-22,-10
-7,14,19,-9,-22,17,-13,-36,-22,-16,-22,-10
-7,14,19,-9,-22,17,-14,-36,-22,-16,-22,-10
-7,14,19,-9,-22,17,-14,-36,-22,-16,-22,-10
-8,14,19,-9,-22,17,-13,-36,-23,-16,-22,-10
-10,14,20,-8,-23,17,-12,-36,-24,-17,-22,-11
-11,14,20,-8,-24,18,-11,-36,-24,-17,-22,-12
-11,14,20,-8,-25,18,-10,-36,-25,-18,-22,-12
-11,14,20,-8,-25,18,-10,-36,-25,-18,-22,-12
-11,14,20,-8,-25,18,-10,-36,-25,-18,-22,-12
-11,14,20,-8,-25,18,-10,-36,-25,-18,-22,-12
-11,14,20,-8,-25,18,-10,-36,-25,-18,-22,-12
-7,15,20,-10,-23,18,-10,-34,-23,-16,-21,-11
-2,17,20,-12,-21,19,-10,-31,-22,-13,-19,-10
0,17,20,-13,-21,20,-10,-30,-21,-12,-19,-10
0,17,20,-14,-21,20,-10,-30,-21,-12,-19,-10
1,18,20,-14,-20,20,-11,-30,-21,-11,-19,-9
2,18,20,-14,-19,20,-12,-30,-20,-11,-18,-8
3,18,20,-15,-19,20,-12,-30,-20,-11,-16,-7
4,19,20,-16,-19,21,-13,-29,-19,-10,-15,-5
5,19,21,-16,-19,21,-14,-28,-18,-10,-14,-4
6,20,21,-17,-19,21,-14,-28,-18,-9,-13,-3
7,20,21,-17,-19,22,-15,-28,-17,-8,-13,-2
7,20,21,-17,-19,22,-15,-28,-16,-8,-13,-2
8,21,21,-18,-19,22,-16,-28,-15,-8,-12,-1
8,21,22,-18,-19,23,-16,-28,-15,-7,-12,-1
8,21,22,-18,-19,23,-17,-28,-14,-7,-11,-0
9,21,22,-19,-19,23,-17,-27,-14,-6,-11,0
10,22,22,-19,-19,23,-17,-27,-13,-5,-10,1
11,22,22,-20,-18,23,-17,-26,-13,-5,-10,1
12,22,21,-20,-17,23,-17,-26,-12,-5,-10,2
13,22,21,-20,-17,23,-17,-26,-12,-4,-9,3
14,22,21,-21,-16,23,-17,-26,-12,-4,-9,3
14,22,20,-20,-15,22,-16,-26,-12,-4,-9,3
14,21,20,-20,-15,22,-15,-27,-12,-4,-9,4
15,21,19,-20,-14,21,-15,-28,-13,-4,-9,4
16,20,17,-19,-12,20,-14,-28,-13,-4,-9,4
17,19,16,-18,-10,18,-14,-28,-13,-4,-9,4
18,17,14,-18,-8,17,-13,-28,-13,-5,-9,4
18,16,12,-17,-5,15,-12,-27,-13,-5,-9,4
19,14,10,-16,-3,13,-12,-27,-13,-5,-9,4
20,12,7,-14,0,10,-13,-26,-15,-5,-9,4
20,10,4,-12,3,7,-13,-25,-16,-5,-8,5
20,7,1,-10,6,5,-14,-25,-18,-5,-8,6
20,5,-1,-9,9,2,-14,-25,-18,-5,-8,6
20,4,-3,-8,10,1,-14,-25,-18,-5,-7,6
20,3,-4,-7,11,-0,-13,-26,-18,-5,-7,6
19,2,-5,-6,12,-1,-12,-26,-18,-5,-6,5
18,0,-6,-4,12,-3,-12,-26,-18,-5,-6,5
17,-1,-7,-3,13,-4,-10,-26,-18,-5,-6,6
16,-2,-8,-2,14,-5,-8,-26,-19,-6,-7,7
14,-3,-9,-1,14,-6,-5,-26,-20,-6,-7,7
13,-4,-9,0,14,-7,-3,-26,-20,-6,-8,8
12,-5,-9,1,14,-7,-2,-26,-20,-7,-8,8
11,-5,-9,2,14,-7,-1,-26,-20,-7,-8,7
10,-5,-9,2,13,-7,-1,-26,-20,-7,-8,7
8,-5,-9,2,12,-7,0,-26,-20,-7,-9,7
4,-5,-8,3,9,-7,1,-26,-20,-7,-9,7
1,-6,-7,4,7,-6,2,-25,-20,-7,-9,7
-2,-6,-6,5,5,-6,3,-25,-20,-7,-9,6
-5,-6,-5,6,3,-6,3,-24,-20,-7,-9,6
-6,-6,-5,7,3,-6,4,-23,-20,-8,-10,5
-7,-6,-5,7,2,-6,5,-23,-20,-8,-10,5
-8,-7,-5,7,2,-6,6,-22,-20,-8,-11,4
-9,-7,-4,8,1,-6,6,-21,-20,-9,-11,2
-11,-7,-4,8,0,-6,7,-21,-20,-9,-12,0
-12,-7,-4,9,-0,-6,7,-22,-21,-10,-12,-2
-14,-8,-4,9,-1,-6,8,-23,-21,-10,-13,-3
-15,-8,-4,10,-1,-7,8,-23,-22,-11,-13,-5
-16,-9,-4,11,-1,-7,9,-24,-22,-11,-14,-6
-17,-9,-4,11,-1,-7,9,-24,-23,-12,-15,-7
-18,-9,-5,12,-2,-8,10,-25,-24,-13,-15,-8
-19,-10,-5,12,-2,-8,9,-26,-24,-14,-16,-8
-19,-10,-5,13,-2,-8,8,-26,-24,-14,-17,-9
-19,-10,-5,13,-2,-8,7,-26,-23,-14,-17,-9
-19,-10,-5,13,-2,-8,6,-26,-22,-15,-17,-9
-19,-10,-5,13,-2,-8,5,-26,-22,-15,-17,-9
-19,-11,-5,13,-1,-9,5,-26,-21,-15,-17,-10
-20,-11,-6,14,-1,-9,6,-26,-21,-15,-17,-10
-21,-12,-6,14,-1,-10,6,-26,-22,-15,-17,-11
-20,-12,-7,15,-1,-10,6,-26,-22,-15,-17,-11
-18,-12,-8,14,2,-11,5,-26,-22,-16,-17,-11
-15,-12,-9,13,3,-11,4,-26,-22,-17,-17,-12
-13,-12,-9,12,4,-11,3,-26,-21,-18,-17,-12
-12,-11,-9,12,5,-11,3,-26,-21,-18,-17,-12
-13,-11,-8,12,4,-10,2,-26,-20,-18,-17,-11
-13,-11,-8,12,3,-10,3,-26,-20,-17,-16,-11
-13,-11,-8,12,3,-10,3,-26,-20,-17,-16,-10
-14,-10,-7,12,2,-9,5,-24,-20,-16,-16,-10
-16,-8,-4,10,-2,-7,7,-22,-21,-16,-16,-10
-16,-8,-4,10,-2,-7,8,-22,-20,-15,-16,-10
-12,-8,-5,9,1,-7,8,-18,-17,-15,-19,-13
-28,-8,0,13,-10,-4,15,-18,-9,-15,-23,-19
-39,-6,7,15,-21,-0,19,-10,-1,-18,-31,-30
-47,-7,9,17,-26,0,29,7,8,-19,-40,-44
-53,-7,11,18,-31,1,37,17,18,-19,-46,-52
-57,-7,12,19,-34,2,41,27,26,-18,-46,-57
-55,-9,9,21,-29,-1,48,37,34,-13,-41,-55
-45,-14,-0,22,-16,-8,54,46,44,-3,-31,-46
-30,-17,-9,21,-2,-14,60,54,54,10,-18,-30
-4,-16,-17,14,16,-18,54,66,69,28,4,-4
44,-14,-32,0,48,-23,48,66,72,45,30,26
62,-14,-38,-4,61,-26,40,69,79,65,58,58
100,-14,-51,-13,89,-33,32,79,91,89,91,91
142,-13,-66,-24,118,-39,24,89,105,118,126,130
170,-11,-73,-32,136,-42,19,98,121,143,158,168
210,-6,-82,-45,160,-44,7,108,136,170,193,208
254,4,-85,-64,179,-39,-14,101,145,200,236,256
295,11,-93,-79,201,-39,-38,84,136,226,273,300
341,21,-98,-98,223,-36,-68,61,125,246,308,347
371,30,-97,-113,233,-30,-97,35,110,258,332,395
365,38,-85,-117,219,-20,-110,9,93,255,330,393
347,38,-79,-113,206,-17,-118,-18,66,240,304,371
335,25,-90,-100,214,-30,-124,-30,34,216,269,328
293,10,-93,-78,201,-40,-116,-53,-7,164,203,256
238,-5,-90,-53,178,-47,-105,-90,-85,70,127,183
194,-25,-98,-27,170,-62,-97,-116,-167,-26,49,122
168,-44,-110,-6,173,-79,-90,-130,-227,-111,-23,63
158,-60,-125,9,185,-95,-77,-130,-261,-167,-77,9
136,-73,-132,24,184,-106,-63,-127,-278,-206,-126,-36
114,-82,-136,37,180,-113,-49,-127,-278,-211,-146,-65
92,-78,-123,39,159,-105,-36,-106,-242,-180,-128,-57
86,-72,-114,36,147,-96,-23,-78,-196,-147,-104,-41
92,-69,-112,32,148,-94,-6,-54,-158,-120,-89,-35
54,-63,-92,36,113,-80,11,-28,-122,-93,-76,-33
32,-56,-76,36,89,-69,24,-6,-86,-74,-67,-37
20,-50,-65,34,73,-60,30,11,-65,-59,-58,-40
12,-40,-51,29,56,-48,35,17,-45,-46,-49,-33
4,-33,-40,25,43,-39,33,25,-31,-34,-40,-27
-4,-28,-32,23,31,-32,30,27,-12,-23,-34,-26
-10,-28,-29,24,26,-30,35,27,-2,-16,-29,-26
-26,-26,-21,27,12,-25,37,22,-1,-12,-26,-24
-10,-24,-24,21,21,-26,38,14,-1,-14,-27,-25
-10,-20,-19,18,16,-21,33,9,-1,-12,-24,-24
-16,-18,-15,18,10,-18,30,4,-2,-9,-23,-21
-17,-18,-14,18,8,-17,25,3,-2,-9,-23,-20
-22,-17,-12,19,4,-16,24,3,-1,-9,-22,-20
-26,-17,-10,20,1,-14,26,3,1,-9,-21,-19
-28,-17,-9,20,-1,-14,27,3,2,-9,-21,-19
-30,-17,-9,21,-2,-14,28,3,3,-9,-21,-19
-30,-17,-9,21,-2,-14,28,2,4,-9,-21,-20
-30,-17,-9,20,-2,-14,27,0,4,-9,-21,-21
-29,-17,-9,20,-1,-14,26,-1,3,-9,-21,-21
-26,-16,-10,19,0,-14,23,-2,3,-9,-21,-21
-24,-16,-10,19,1,-14,22,-1,3,-9,-20,-20
-24,-16,-10,19,1,-14,22,0,3,-9,-20,-19
-26,-16,-9,19,-0,-13,23,3,3,-8,-20,-19
-28,-16,-8,20,-2,-13,24,4,3,-8,-20,-19
-30,-16,-8,20,-3,-13,24,4,3,-8,-20,-19
-31,-16,-8,20,-3,-13,25,5,4,-8,-20,-19
-30,-16,-7,20,-3,-13,26,5,4,-8,-20,-20
-30,-16,-7,20,-3,-12,26,5,4,-8,-20,-20
-29,-15,-7,19,-3,-12,26,5,4,-8,-20,-20
-29,-15,-7,19,-3,-12,26,5,4,-8,-19,-20
-28,-15,-8,19,-2,-13,25,5,4,-8,-19,-20
-28,-15,-8,19,-2,-13,24,5,4,-8,-19,-20
-27,-15,-8,19,-1,-13,25,5,5,-8,-18,-20
-27,-15,-8,19,-2,-12,25,5,5,-8,-18,-19
-27,-15,-8,18,-2,-12,26,5,5,-7,-17,-19
-28,-15,-7,19,-3,-12,26,6,5,-7,-16,-18
-30,-15,-7,19,-4,-12,25,6,5,-6,-15,-18
-31,-15,-6,19,-5,-11,24,6,5,-6,-15,-18
-33,-15,-6,20,-6,-11,24,6,6,-6,-15,-18
-34,-15,-5,21,-7,-11,23,7,6,-6,-14,-18
-35,-15,-5,21,-7,-11,22,7,6,-6,-14,-18
-35,-15,-5,21,-8,-11,22,8,6,-7,-14,-18
-35,-15,-5,20,-8,-11,22,8,7,-7,-14,-17
-34,-15,-5,20,-8,-11,22,8,7,-8,-14,-17
-33,-14,-4,19,-8,-10,23,8,7,-7,-13,-18
-33,-14,-4,19,-8,-10,24,8,8,-7,-13,-19
-33,-13,-3,18,-9,-9,24,9,8,-7,-13,-20
-33,-13,-3,18,-9,-8,24,9,8,-6,-13,-21
-33,-13,-3,18,-9,-8,24,9,9,-6,-13,-21
-33,-13,-3,18,-9,-9,24,9,9,-6,-13,-21
-33,-13,-3,18,-9,-9,24,10,9,-6,-13,-20
-33,-13,-3,18,-9,-9,25,10,10,-5,-13,-20
-33,-13,-3,18,-9,-9,26,11,10,-4,-12,-19
-33,-13,-3,18,-9,-9,27,11,11,-3,-12,-18
-33,-13,-3,18,-9,-9,29,11,11,-2,-12,-17
-33,-13,-3,18,-9,-9,30,11,12,-1,-12,-16
-33,-13,-3,18,-9,-9,30,12,12,-1,-12,-16
-33,-13,-3,18,-9,-9,30,12,12,-0,-12,-15
-33,-13,-3,18,-9,-9,30,12,13,-0,-12,-15
-33,-13,-3,18,-9,-9,30,12,13,0,-12,-16
-33,-13,-3,18,-9,-9,30,13,13,0,-12,-17
-33,-13,-3,18,-9,-9,29,14,13,1,-12,-18
-33,-13,-3,18,-9,-9,29,14,14,1,-12,-18
-33,-13,-3,18,-9,-9,29,14,14,1,-11,-19
-33,-13,-3,18,-9,-8,29,14,15,1,-11,-19
-33,-12,-2,18,-10,-8,29,14,15,2,-11,-19
-33,-12,-2,18,-10,-8,29,15,15,2,-11,-19
-33,-12,-2,18,-10,-8,29,15,15,2,-11,-19
-33,-12,-2,18,-10,-8,29,16,16,3,-10,-19
-33,-12,-2,18,-10,-8,29,16,16,3,-10,-19
-33,-12,-2,18,-10,-8,30,16,17,3,-10,-19
-33,-12,-2,18,-10,-8,30,16,17,3,-10,-19
-33,-12,-2,18,-10,-8,30,16,18,2,-9,-19
-33,-12,-2,17,-10,-8,30,16,18,2,-9,-19
-33,-12,-2,17,-10,-8,30,17,19,2,-9,-19
-33,-12,-2,17,-10,-8,30,17,19,2,-8,-19
-33,-12,-2,17,-10,-8,30,17,19,2,-8,-19
-33,-12,-2,17,-10,-8,30,17,20,2,-8,-19
-33,-12,-2,17,-10,-8,30,18,20,3,-8,-18
-32,-12,-2,17,-10,-8,30,18,21,3,-7,-18
-31,-12,-2,17,-9,-8,30,19,23,3,-7,-18
-29,-11,-3,16,-8,-8,30,19,25,4,-7,-18
-27,-11,-3,15,-7,-8,30,19,26,4,-6,-18
-26,-11,-3,15,-6,-7,30,19,28,4,-6,-18
-26,-10,-2,14,-7,-6,31,20,29,5,-6,-19
-25,-9,-1,13,-8,-6,32,20,29,5,-5,-20
-25,-8,-0,12,-9,-5,32,21,30,6,-5,-21
-25,-7,0,12,-10,-4,32,22,31,6,-4,-21
-25,-7,1,12,-10,-4,32,22,31,7,-4,-21
-25,-7,1,12,-10,-3,32,22,32,7,-4,-21
-25,-7,1,11,-10,-3,32,23,33,8,-4,-21
-25,-7,1,11,-10,-3,32,23,34,8,-3,-21
-25,-6,2,11,-11,-3,32,24,35,9,-3,-21
-25,-6,2,11,-11,-3,33,25,36,10,-3,-20
-25,-6,2,11,-11,-3,33,26,37,10,-2,-20
-25,-6,2,11,-11,-2,33,27,38,11,-2,-19
-25,-6,2,11,-12,-2,33,27,39,12,-1,-19
-25,-6,3,11,-12,-2,34,28,40,13,0,-19
-25,-6,3,11,-12,-2,35,28,41,15,2,-19
-25,-5,3,10,-12,-2,35,29,43,16,2,-18
-25,-5,3,10,-12,-1,37,30,44,17,3,-18
-25,-5,3,10,-12,-1,38,30,45,18,3,-17
-25,-5,4,10,-13,-1,40,31,46,19,3,-15
-25,-5,4,10,-13,-1,42,32,48,19,4,-15
-25,-4,4,10,-13,-1,43,33,50,20,4,-15
-25,-4,4,9,-13,-0,43,34,53,21,4,-15
-25,-4,5,9,-14,0,43,35,56,22,5,-15
-25,-4,5,9,-14,0,43,35,57,22,5,-16
-25,-3,6,8,-15,1,43,36,59,23,5,-17
-25,-2,7,8,-16,2,43,37,61,24,5,-18
-25,-1,8,7,-17,3,43,38,62,25,5,-20
-25,-1,8,7,-17,3,43,39,64,25,6,-21
-25,-1,8,7,-18,4,43,40,65,26,6,-21
-25,-0,9,6,-18,4,43,40,66,26,6,-21
-25,-0,9,6,-18,4,43,42,68,27,6,-21
-24,-0,9,6,-18,4,43,42,70,28,6,-21
-24,-0,8,6,-17,4,43,43,70,28,6,-21
-23,-0,8,6,-17,4,43,44,71,29,6,-22
-23,0,9,6,-17,4,43,45,72,30,6,-22
-24,0,9,6,-18,5,43,46,73,30,6,-22
-25,0,10,6,-19,5,43,47,75,31,6,-22
-26,0,10,6,-19,5,43,48,76,31,6,-22
-27,0,10,6,-20,5,44,49,77,32,6,-22
-28,0,11,7,-21,5,44,50,78,33,7,-22
-28,0,11,6,-21,5,44,51,80,33,7,-22
-27,0,10,6,-20,5,43,51,82,34,7,-22
-26,0,10,6,-19,5,43,52,84,34,7,-22
-25,0,9,6,-18,5,43,53,85,35,7,-21
-23,-0,8,6,-16,4,43,53,85,35,8,-21
-22,-1,7,6,-15,3,43,53,86,36,8,-21
-21,-1,6,6,-14,2,42,53,86,36,8,-20
-18,-2,5,6,-11,1,42,53,86,37,9,-19
-16,-2,4,5,-9,1,41,53,85,37,9,-18
-13,-2,3,5,-7,0,41,53,85,37,10,-18
-9,-1,2,3,-5,0,39,52,84,37,10,-17
-6,-1,1,3,-3,-0,38,52,83,37,10,-16
-5,-1,0,2,-2,-1,38,51,82,36,11,-15
-4,-1,-0,2,-1,-1,37,50,80,36,11,-14
-3,-1,-0,2,-1,-1,36,49,79,36,12,-13
-1,-1,-1,2,1,-1,35,48,77,35,12,-12
1,-1,-2,1,2,-2,33,46,76,34,12,-11
3,-1,-2,1,3,-2,32,45,75,33,12,-10
4,-1,-3,0,4,-2,30,42,73,32,12,-9
5,-1,-3,0,5,-2,29,40,71,31,13,-8
6,-1,-4,-0,6,-3,27,38,69,30,13,-6
7,-2,-4,-0,7,-3,26,36,66,28,13,-5
9,-2,-5,-0,8,-3,25,34,63,27,13,-4
10,-2,-5,-1,9,-4,24,32,59,25,13,-3
10,-1,-5,-1,9,-3,22,30,56,24,13,-0
10,-1,-5,-1,9,-3,21,27,53,22,12,1
10,-1,-4,-2,8,-3,21,25,50,20,12,3
10,-0,-4,-2,8,-2,19,22,47,19,12,4
11,-1,-5,-2,9,-3,18,20,44,17,12,5
12,-1,-5,-2,10,-3,18,19,41,15,11,5
12,-1,-5,-2,10,-3,17,17,38,13,10,6
11,-1,-5,-1,9,-3,16,15,35,12,9,6
10,-1,-5,-1,9,-3,16,13,32,10,9,5
10,-2,-5,-1,9,-3,16,12,29,9,8,5
10,-2,-6,-1,10,-4,16,11,26,8,8,5
10,-2,-6,-1,10,-4,16,9,23,6,7,5
10,-2,-6,-1,10,-4,16,8,21,5,6,5
10,-2,-6,-0,10,-4,16,7,20,4,6,5
10,-3,-7,-0,11,-5,16,6,19,3,5,4
11,-3,-7,0,12,-5,16,5,18,2,4,4
12,-3,-8,-0,12,-6,16,5,18,1,5,5
12,-3,-8,-0,13,-6,16,5,18,1,5,6
12,-3,-8,-0,13,-6,16,5,18,1,5,6
12,-3,-8,-0,13,-6,16,5,18,1,5,6
12,-3,-8,-0,13,-6,16,5,18,1,5,6
12,-3,-8,-0,13,-6,16,5,18,1,5,6
12,-3,-8,-0,13,-6,16,5,18,1,5,6
14,-4,-9,0,14,-7,15,4,17,-2,2,4
16,-5,-11,1,17,-8,12,3,16,-5,-2,1
16,-6,-12,1,18,-9,12,3,16,-6,-3,-0
16,-6,-12,1,19,-9,11,3,15,-7,-3,-0
16,-5,-12,1,18,-9,11,3,16,-7,-4,-1
16,-5,-11,0,18,-8,11,3,17,-7,-4,-2
16,-4,-11,-0,17,-8,11,3,18,-7,-4,-3
16,-4,-10,-1,16,-7,11,3,19,-7,-4,-4
16,-3,-9,-1,15,-7,11,3,20,-7,-4,-5
14,-3,-9,-1,14,-6,11,3,20,-7,-4,-5
12,-3,-8,-0,13,-6,11,3,20,-7,-4,-5
10,-3,-7,0,11,-5,11,3,20,-7,-4,-5
9,-3,-7,1,10,-5,11,3,20,-7,-4,-5
9,-3,-7,1,10,-5,11,3,20,-7,-4,-5
8,-3,-7,1,10,-5,11,3,20,-7,-4,-5
8,-3,-7,1,10,-5,11,3,20,-7,-4,-5
8,-3,-7,1,10,-5,11,3,21,-7,-4,-5
8,-3,-7,1,10,-5,11,3,22,-6,-4,-5
8,-3,-7,1,10,-5,11,3,22,-5,-4,-5
8,-3,-7,1,10,-5,11,3,24,-5,-4,-5
8,-3,-6,1,10,-5,11,3,24,-4,-4,-5
6,-3,-6,1,8,-5,11,3,25,-4,-4,-5
5,-3,-5,2,7,-4,11,3,25,-4,-4,-5
3,-3,-5,2,6,-4,11,3,25,-4,-4,-5
2,-3,-4,2,5,-4,11,3,25,-4,-4,-5
1,-3,-4,2,5,-4,11,3,25,-4,-4,-5
1,-3,-4,2,4,-4,11,3,25,-4,-4,-5
1,-3,-4,2,4,-4,11,3,25,-4,-4,-5
1,-3,-4,2,4,-4,11,3,25,-4,-4,-5
1,-3,-4,2,4,-4,9,3,25,-3,-4,-5
1,-3,-4,2,4,-4,8,3,25,-2,-4,-5
1,-3,-4,2,4,-4,7,3,25,-2,-4,-5
1,-3,-4,2,4,-4,6,3,25,-1,-4,-5
1,-3,-4,2,4,-4,5,3,25,-1,-4,-4
1,-3,-4,2,4,-4,5,3,25,-1,-4,-3
1,-3,-4,2,4,-4,5,3,25,-1,-4,-2
1,-3,-4,2,4,-4,6,3,25,-1,-4,-1
1,-3,-4,2,4,-4,7,3,26,0,-4,-1
1,-3,-4,2,4,-4,8,3,27,1,-4,-1
1,-3,-4,2,4,-4,10,3,28,1,-4,-1
0,-3,-4,3,4,-3,11,3,29,2,-4,-1
-2,-3,-3,3,3,-3,11,3,29,2,-4,-1
-3,-3,-2,3,1,-3,11,3,30,2,-4,-1
-5,-3,-2,4,0,-3,11,3,30,2,-4,-1
-6,-3,-1,4,-1,-2,11,3,30,2,-4,-1
-7,-3,-1,4,-1,-2,11,3,30,1,-4,-1
-7,-3,-1,4,-1,-2,11,3,30,1,-4,-1
-7,-3,-1,4,-1,-2,11,3,30,-0,-4,-1
-7,-3,-1,4,-2,-2,11,3,30,-1,-4,-1
-7,-2,-0,4,-2,-1,11,3,30,-1,-4,-2
-7,-2,0,3,-3,-1,11,3,30,-1,-4,-3
-7,-1,1,3,-4,-0,11,3,30,-1,-4,-4
-7,-1,2,3,-4,0,11,3,30,-1,-4,-5
-7,-1,2,2,-4,0,11,3,30,-1,-4,-5
-7,-1,2,2,-4,0,11,3,30,-1,-4,-5
-7,-1,2,2,-4,0,11,3,30,-1,-4,-5
-6,-1,2,2,-4,0,11,3,30,-1,-4,-5
-5,-1,1,2,-3,0,11,3,30,-2,-4,-5
-3,-1,0,2,-1,-0,11,3,30,-2,-4,-5
-1,-1,-0,1,0,-1,11,3,30,-3,-4,-5
0,-1,-1,1,1,-1,11,3,29,-4,-4,-5
0,-1,-1,1,1,-1,11,3,28,-4,-4,-5
1,-1,-1,1,1,-1,11,3,27,-4,-5,-5
1,-1,-1,1,1,-1,11,3,26,-4,-6,-5
0,-1,-1,1,1,-1,11,2,25,-4,-6,-5
-2,-1,-0,1,-0,-0,11,1,25,-4,-6,-5
-3,-1,0,2,-1,-0,11,-0,25,-4,-7,-5
-5,-1,1,2,-3,0,11,-2,25,-4,-7,-5
-6,-1,2,2,-4,0,11,-3,25,-4,-7,-5
-7,-1,2,2,-4,0,9,-3,25,-4,-7,-5
-7,-1,2,2,-4,0,8,-4,25,-4,-7,-5
-7,-1,2,2,-4,0,7,-4,25,-4,-7,-5
-7,-1,2,2,-4,0,6,-4,25,-4,-7,-5
-7,-1,2,2,-4,0,5,-4,25,-5,-7,-5
-7,-1,2,2,-4,0,5,-4,25,-5,-7,-5
-7,-1,2,2,-4,0,5,-4,25,-6,-7,-5
-7,-1,2,2,-4,0,5,-4,25,-7,-7,-5
-7,-1,2,2,-4,0,3,-4,25,-7,-7,-5
-7,-1,2,2,-4,0,2,-4,25,-7,-7,-5
-7,-1,2,2,-4,0,1,-4,25,-7,-7,-5
-7,-1,2,2,-4,0,-0,-4,25,-7,-7,-5
-7,-1,2,2,-4,0,-1,-4,25,-7,-8,-5
-7,-1,2,2,-4,0,-1,-4,25,-7,-8,-5
-7,-1,2,2,-4,0,-1,-4,25,-7,-9,-5
-6,-1,2,2,-4,0,-1,-4,25,-7,-9,-5
-5,-1,1,2,-3,0,-1,-4,25,-7,-10,-5
-3,-1,0,2,-1,-0,-1,-4,25,-7,-10,-5
-1,-1,-0,1,0,-1,-1,-4,25,-7,-10,-5
0,-1,-1,1,1,-1,-2,-4,25,-7,-10,-5
0,-1,-1,1,1,-1,-3,-4,25,-7,-10,-5
1,-1,-1,1,1,-1,-4,-4,25,-7,-10,-5
1,-1,-1,1,1,-1,-6,-4,25,-7,-10,-5
0,-1,-1,1,1,-1,-7,-4,25,-7,-10,-6
-2,-1,-0,1,-0,-0,-7,-4,25,-7,-10,-7
-3,-1,0,2,-1,-0,-7,-4,25,-7,-10,-8
-5,-1,1,2,-3,0,-7,-4,25,-7,-10,-9
-6,-1,2,2,-4,0,-7,-4,25,-7,-10,-9
-7,-1,2,2,-4,0,-7,-4,25,-7,-10,-10
-7,-1,2,2,-4,0,-7,-4,25,-7,-10,-10
-7,-1,2,2,-4,0,-7,-4,25,-7,-10,-10
-7,-1,2,2,-4,0,-7,-4,24,-7,-10,-10
-7,-1,2,2,-4,0,-7,-4,23,-7,-10,-10
-7,-1,2,2,-4,0,-7,-4,22,-7,-10,-10
-7,-1,2,2,-4,0,-7,-4,21,-7,-10,-10
-7,-1,2,2,-4,0,-7,-4,21,-7,-10,-10
-7,-1,2,2,-4,0,-7,-4,20,-7,-10,-10
-7,-1,2,2,-4,0,-7,-4,20,-7,-10,-10
-7,-1,2,2,-4,0,-7,-4,20,-7,-10,-10
-7,-1,2,2,-4,0,-7,-4,20,-7,-10,-10
-7,-1,2,2,-4,0,-7,-4,20,-8,-10,-10
-7,-1,2,2,-4,0,-7,-4,20,-8,-10,-10
-7,-1,2,2,-4,0,-7,-4,20,-9,-10,-10
-7,-1,2,3,-4,0,-7,-4,20,-10,-10,-10
-7,-1,1,3,-3,-0,-7,-4,20,-10,-10,-10
-7,-2,0,3,-3,-1,-7,-4,20,-10,-10,-10
-7,-3,-0,4,-2,-2,-7,-4,20,-10,-10,-10
-7,-3,-1,4,-2,-2,-7,-4,20,-10,-10,-10
-7,-3,-1,4,-2,-2,-7,-4,20,-10,-10,-10
-7,-3,-1,4,-1,-2,-7,-4,20,-10,-10,-10
-7,-3,-1,4,-1,-2,-7,-4,20,-10,-10,-10
-7,-3,-1,4,-1,-2,-7,-4,20,-10,-10,-10
-7,-3,-1,4,-1,-2,-7,-4,20,-10,-10,-10
-7,-3,-1,4,-1,-2,-7,-4,20,-10,-10,-10
-7,-3,-1,4,-1,-2,-7,-4,20,-10,-10,-10
-7,-3,-1,4,-1,-2,-8,-4,20,-10,-10,-10
-7,-3,-1,4,-1,-2,-9,-4,20,-10,-10,-10
-7,-3,-1,4,-1,-2,-10,-4,20,-10,-10,-10
-7,-3,-1,4,-1,-2,-12,-4,20,-10,-10,-10
-7,-3,-1,4,-2,-2,-13,-4,20,-10,-10,-10
-7,-2,-0,4,-2,-1,-13,-4,20,-10,-10,-10
-7,-2,0,3,-3,-1,-14,-4,20,-10,-10,-10
-7,-1,1,3,-4,-0,-14,-4,20,-10,-10,-10
-7,-1,2,3,-4,0,-14,-4,20,-10,-10,-10
-7,-1,2,2,-4,0,-14,-4,20,-10,-10,-10
-7,-1,2,2,-4,0,-14,-4,20,-10,-10,-10
-7,-1,2,2,-4,0,-14,-4,20,-10,-10,-10
-7,-0,2,2,-5,1,-14,-4,20,-10,-10,-10
-7,0,3,2,-5,1,-14,-4,20,-10,-10,-10
-7,0,3,2,-6,2,-14,-4,20,-10,-10,-10
-7,1,4,1,-7,3,-14,-4,20,-10,-10,-10
-7,1,4,1,-7,3,-14,-4,20,-10,-10,-10
-7,2,5,1,-7,3,-14,-4,20,-10,-10,-10
-7,2,5,1,-7,3,-14,-4,20,-10,-10,-10
-7,2,5,1,-7,3,-14,-4,20,-10,-10,-10
-7,2,5,1,-7,3,-14,-4,20,-10,-10,-10
-7,2,5,1,-7,3,-14,-4,20,-10,-10,-10
-7,2,5,1,-7,3,-14,-4,20,-10,-10,-10
-7,2,5,1,-7,3,-14,-4,20,-10,-10,-10
-7,2,5,1,-7,3,-14,-4,20,-10,-10,-10
-7,2,5,1,-7,3,-14,-4,20,-10,-10,-10
-4,1,3,0,-5,2,-15,-1,22,-8,-9,-8
-1,1,1,-0,-1,1,-16,2,25,-7,-7,-6
0,1,1,-0,-1,1,-16,3,26,-6,-7,-5
1,0,0,-0,0,0,-17,3,26,-6,-7,-5
2,0,0,-1,1,0,-17,3,26,-5,-7,-5
2,1,0,-1,1,0,-18,3,27,-5,-6,-5
3,1,1,-2,1,1,-19,3,27,-5,-6,-4
4,2,1,-3,0,2,-20,4,27,-4,-5,-4
5,3,2,-4,-1,3,-20,4,26,-4,-5,-3
6,4,3,-5,-1,4,-21,5,26,-3,-4,-3
7,5,4,-6,-1,5,-21,5,26,-2,-4,-2
7,6,4,-6,-2,5,-21,5,26,-2,-3,-2
8,6,4,-6,-2,6,-22,5,27,-2,-3,-1
8,6,5,-7,-2,6,-23,5,27,-1,-2,-1
8,7,5,-7,-2,6,-23,5,28,-0,-2,-0
9,7,5,-7,-1,6,-23,5,29,0,-1,0
10,7,5,-8,-1,6,-23,6,29,1,-1,1
11,7,5,-8,-1,6,-23,6,30,1,-1,1
12,7,4,-8,0,6,-23,6,30,2,-0,2
13,7,4,-9,0,6,-24,6,31,2,0,3
14,8,4,-9,1,6,-24,6,31,2,0,3
14,8,4,-9,1,6,-25,6,31,2,0,3
14,8,4,-9,1,6,-25,6,30,2,0,4
15,8,4,-10,2,6,-26,5,29,2,0,4
16,8,3,-10,2,6,-26,4,29,2,0,4
17,8,3,-10,3,6,-28,3,28,2,0,4
18,7,2,-10,4,5,-29,1,27,1,0,4
18,7,2,-10,5,5,-32,0,26,1,0,4
19,7,1,-10,5,5,-34,-1,24,0,-0,3
20,7,1,-10,7,4,-36,-2,23,-0,-0,3
20,6,-0,-9,8,3,-38,-2,21,-1,-1,3
20,5,-1,-9,8,3,-38,-4,20,-2,-1,3
20,5,-2,-8,9,2,-39,-5,19,-2,-1,2
20,4,-2,-8,10,1,-39,-6,18,-3,-2,2
20,4,-2,-7,9,1,-39,-6,17,-3,-2,2
19,3,-3,-7,9,1,-39,-7,15,-4,-3,1
18,3,-3,-6,10,0,-41,-7,13,-5,-3,1
17,2,-3,-6,9,-0,-42,-7,11,-5,-3,0
16,2,-4,-5,10,-1,-42,-7,9,-6,-4,0
14,1,-4,-4,9,-1,-41,-7,9,-7,-4,-0
13,1,-4,-3,9,-1,-41,-7,9,-8,-4,-1
12,0,-4,-3,8,-2,-40,-7,8,-9,-5,-1
11,0,-4,-2,8,-2,-39,-7,8,-10,-5,-2
