I,II,III,aVR,aVL,aVF,V1,V2,V3,V4,V5,V6
8,-5,-7,2,9,-6,-6,0,-25,-9,-8,7
8,-4,-6,1,8,-5,-7,0,-25,-10,-9,7
8,-3,-6,1,7,-4,-7,0,-25,-11,-9,6
8,-2,-5,-1,7,-3,-8,0,-25,-11,-10,6
9,-1,-4,-2,7,-3,-8,0,-24,-11,-11,6
10,-1,-4,-2,7,-2,-9,0,-24,-11,-11,5
10,-0,-4,-2,6,-2,-9,0,-24,-11,-11,5
10,-0,-4,-2,6,-2,-9,0,-24,-11,-11,4
10,-0,-4,-2,6,-2,-9,0,-24,-11,-11,4
9,-0,-4,-2,6,-2,-9,0,-23,-11,-11,3
8,-0,-3,-2,5,-2,-9,0,-22,-11,-11,3
8,-0,-3,-1,5,-2,-9,0,-21,-11,-11,3
8,-1,-3,-1,5,-2,-9,1,-21,-11,-11,4
8,-1,-4,-1,6,-3,-9,1,-20,-10,-11,4
8,-2,-5,0,6,-3,-9,1,-20,-10,-11,5
8,-3,-6,0,8,-4,-9,1,-20,-9,-11,6
9,-3,-7,1,8,-5,-8,1,-20,-9,-11,6
10,-4,-7,1,9,-5,-8,2,-20,-9,-10,7
10,-4,-7,1,9,-6,-7,2,-20,-8,-9,7
10,-4,-7,1,9,-6,-7,3,-20,-8,-9,7
10,-4,-7,1,9,-6,-6,3,-20,-8,-8,7
10,-4,-7,1,9,-6,-6,3,-20,-8,-8,7
10,-4,-7,1,9,-6,-6,4,-20,-8,-8,7
10,-4,-7,1,9,-6,-6,4,-20,-8,-8,7
9,-4,-7,1,8,-5,-6,3,-19,-8,-8,7
8,-4,-6,1,8,-5,-7,3,-19,-8,-8,7
8,-4,-6,1,8,-5,-7,3,-19,-8,-8,7
8,-4,-6,1,8,-5,-7,3,-19,-8,-7,7
8,-4,-6,1,8,-5,-7,3,-19,-8,-7,7
8,-4,-6,1,8,-5,-7,3,-19,-8,-7,7
8,-4,-6,1,8,-5,-7,3,-19,-8,-8,7
8,-4,-6,1,8,-5,-7,3,-19,-8,-8,7
8,-4,-6,1,8,-5,-7,3,-19,-8,-8,7
8,-4,-6,1,8,-5,-7,4,-18,-8,-9,7
8,-4,-6,1,8,-5,-7,4,-18,-8,-9,7
8,-4,-6,1,8,-5,-7,5,-18,-8,-10,6
8,-4,-6,1,8,-5,-7,6,-18,-8,-11,6
8,-4,-6,1,8,-5,-7,6,-18,-8,-11,7
8,-4,-6,1,8,-5,-7,6,-18,-8,-11,7
8,-4,-6,1,8,-5,-7,6,-18,-8,-11,7
8,-4,-6,1,8,-5,-7,6,-18,-8,-11,7
8,-4,-6,1,8,-5,-7,6,-18,-8,-10,7
8,-4,-6,1,8,-5,-7,6,-18,-8,-10,7
8,-4,-6,1,8,-5,-7,6,-17,-8,-11,7
8,-4,-6,1,8,-5,-7,6,-18,-8,-11,7
8,-4,-6,1,8,-5,-7,6,-18,-8,-11,6
8,-4,-6,1,8,-5,-7,6,-18,-8,-11,6
8,-4,-7,1,8,-5,-7,7,-18,-8,-11,7
8,-4,-7,1,8,-5,-7,7,-18,-8,-11,7
7,-4,-6,1,7,-5,-7,7,-18,-8,-11,6
5,-4,-6,2,6,-5,-7,7,-18,-8,-11,6
4,-4,-5,3,5,-4,-7,7,-18,-8,-10,5
2,-4,-4,3,4,-4,-7,8,-18,-8,-10,4
2,-4,-4,3,4,-4,-8,8,-18,-8,-10,4
1,-4,-4,3,4,-4,-8,8,-18,-7,-10,3
0,-4,-4,4,3,-4,-8,8,-18,-7,-10,3
0,-3,-3,3,3,-3,-8,9,-18,-7,-10,3
2,-2,-2,2,3,-2,-8,9,-18,-7,-10,2
4,-0,-2,-0,2,-1,-8,10,-17,-7,-10,2
5,1,-1,-2,2,0,-8,11,-17,-7,-10,1
7,2,-0,-3,2,1,-7,11,-18,-7,-11,1
8,3,0,-5,2,1,-7,11,-18,-7,-11,0
9,3,0,-5,3,1,-7,11,-19,-7,-11,0
10,3,0,-6,3,2,-7,11,-20,-7,-11,0
10,3,0,-6,3,2,-7,11,-21,-7,-11,0
10,3,0,-6,3,2,-7,11,-21,-7,-11,0
10,3,0,-6,3,2,-7,11,-21,-7,-11,-0
10,3,0,-6,3,2,-7,11,-21,-7,-11,-0
10,3,0,-6,3,2,-7,11,-22,-7,-11,-1
10,3,0,-6,3,2,-7,12,-22,-7,-12,-1
10,3,0,-6,3,2,-6,12,-22,-7,-12,-2
10,3,0,-6,3,2,-5,12,-22,-7,-12,-3
11,3,-0,-6,4,1,-5,12,-22,-7,-12,-3
12,3,-1,-6,4,1,-5,13,-22,-7,-12,-3
12,3,-1,-6,5,1,-5,13,-23,-7,-12,-3
12,3,-1,-6,5,1,-5,14,-23,-7,-12,-3
12,2,-2,-5,5,0,-5,14,-23,-7,-12,-3
12,2,-2,-5,6,-0,-4,15,-23,-7,-12,-3
12,1,-3,-4,6,-1,-4,15,-24,-7,-11,-3
12,0,-4,-4,7,-2,-4,15,-24,-7,-11,-3
12,-0,-5,-3,8,-3,-4,15,-25,-6,-11,-3
12,-1,-6,-2,8,-3,-4,15,-25,-6,-11,-2
12,-2,-6,-1,9,-4,-4,16,-25,-6,-11,-2
12,-3,-7,-1,10,-5,-4,16,-25,-6,-11,-1
11,-3,-7,0,10,-5,-4,16,-25,-6,-11,-1
10,-4,-7,0,9,-5,-4,16,-26,-6,-11,-0
10,-4,-7,1,9,-6,-5,16,-26,-6,-11,-0
10,-4,-7,1,9,-6,-5,16,-26,-6,-11,-0
10,-4,-7,1,9,-6,-6,16,-26,-6,-11,-1
11,-4,-7,0,10,-6,-6,15,-27,-6,-11,-1
12,-4,-8,0,10,-6,-7,15,-28,-6,-11,-2
12,-4,-8,0,10,-6,-7,15,-29,-7,-11,-3
12,-4,-8,0,11,-6,-7,14,-30,-7,-11,-3
12,-4,-9,1,11,-7,-7,14,-30,-7,-11,-3
13,-5,-9,0,12,-7,-6,14,-31,-8,-11,-3
15,-5,-10,-0,13,-7,-6,14,-31,-8,-11,-3
16,-5,-11,-0,14,-8,-5,14,-31,-8,-11,-3
16,-6,-11,0,15,-9,-5,14,-31,-8,-11,-3
17,-6,-12,0,16,-9,-4,15,-31,-8,-11,-3
18,-7,-13,1,17,-10,-3,16,-31,-8,-11,-3
19,-7,-14,1,18,-11,-2,16,-31,-7,-11,-3
19,-8,-14,1,18,-11,-2,17,-31,-7,-11,-3
19,-8,-14,1,18,-11,-0,17,-30,-6,-11,-3
19,-8,-14,1,18,-11,1,18,-29,-5,-11,-3
19,-8,-14,1,18,-11,2,18,-28,-4,-11,-3
19,-8,-14,1,18,-11,3,19,-28,-4,-11,-3
19,-8,-14,1,18,-11,5,20,-28,-3,-11,-3
19,-8,-15,2,18,-12,6,22,-27,-3,-11,-3
19,-8,-15,2,19,-12,7,23,-27,-3,-11,-3
18,-9,-15,2,18,-12,8,23,-26,-2,-10,-3
17,-9,-15,3,17,-12,8,23,-26,-1,-10,-3
16,-9,-14,3,17,-12,8,24,-26,0,-10,-3
16,-8,-14,3,17,-11,8,24,-26,1,-10,-3
16,-8,-13,2,16,-11,8,24,-26,1,-10,-3
16,-7,-12,1,16,-10,7,24,-26,1,-10,-3
16,-6,-11,0,15,-9,6,24,-26,1,-10,-3
17,-5,-11,-1,14,-8,6,24,-26,1,-10,-3
18,-4,-11,-2,14,-7,6,23,-26,1,-10,-3
18,-4,-10,-2,14,-7,5,23,-26,1,-10,-3
17,-4,-10,-2,13,-7,5,22,-26,1,-10,-3
16,-4,-10,-1,13,-7,5,21,-26,1,-10,-3
16,-4,-10,-1,13,-7,4,21,-26,1,-10,-3
17,-3,-10,-2,13,-7,4,21,-26,1,-10,-3
18,-3,-10,-3,14,-6,3,20,-26,1,-10,-3
18,-3,-9,-3,13,-6,3,20,-27,1,-10,-3
16,-3,-9,-2,12,-6,2,20,-27,2,-9,-3
14,-3,-8,-1,11,-6,2,20,-27,3,-9,-3
12,-3,-7,-1,10,-5,2,19,-27,3,-8,-3
9,-2,-5,-0,7,-4,2,19,-27,4,-7,-3
6,-2,-4,1,5,-3,2,19,-27,4,-7,-3
4,-2,-3,1,4,-3,3,19,-27,5,-7,-3
1,-2,-2,2,2,-2,4,19,-27,5,-7,-3
-1,-2,-2,3,1,-2,4,20,-27,5,-6,-3
-3,-2,-1,3,-0,-1,4,20,-27,5,-6,-3
-5,-2,-0,4,-1,-1,5,20,-27,5,-6,-3
-8,-3,0,5,-2,-1,5,20,-27,5,-6,-3
-9,-3,0,6,-3,-1,5,20,-27,5,-6,-4
-10,-3,1,6,-4,-1,6,20,-27,5,-6,-4
-12,-3,1,7,-5,-1,7,20,-28,5,-6,-5
-11,-3,1,7,-4,-1,8,20,-28,5,-6,-6
-10,-3,1,6,-4,-1,8,20,-29,5,-7,-6
-10,-3,1,6,-4,-1,9,20,-29,5,-7,-6
-10,-3,1,6,-4,-1,9,20,-30,5,-8,-6
-10,-3,1,6,-4,-1,9,20,-30,5,-9,-6
-10,-3,1,6,-4,-1,9,20,-30,5,-9,-6
-10,-3,1,6,-4,-1,9,20,-30,4,-9,-7
-10,-3,1,6,-4,-1,9,19,-30,4,-9,-7
-10,-3,0,6,-3,-1,9,19,-30,4,-10,-7
-10,-4,0,7,-3,-2,9,19,-30,4,-10,-7
-10,-4,0,7,-3,-2,9,19,-30,4,-10,-7
-10,-4,0,7,-3,-2,9,19,-30,4,-10,-7
-10,-4,-0,7,-3,-2,9,19,-30,5,-9,-7
-10,-4,-1,7,-2,-3,9,19,-30,5,-9,-7
-10,-5,-1,8,-2,-3,10,19,-30,5,-9,-7
-10,-5,-1,8,-2,-3,10,19,-30,5,-9,-7
-10,-6,-2,9,-1,-4,11,19,-30,4,-10,-7
-9,-6,-3,9,-0,-5,11,19,-30,4,-10,-8
-7,-7,-4,9,2,-6,11,19,-30,4,-10,-9
-2,-8,-7,8,5,-7,11,19,-30,4,-10,-9
4,-9,-10,7,10,-9,11,19,-30,4,-10,-10
8,-9,-12,6,12,-11,11,19,-30,4,-10,-11
9,-8,-11,5,13,-10,12,20,-30,4,-10,-10
10,-7,-11,4,12,-9,12,20,-29,5,-9,-10
11,-7,-11,3,13,-9,12,20,-28,5,-9,-10
11,-6,-10,2,12,-8,12,20,-28,4,-9,-9
6,-6,-8,4,8,-7,13,20,-27,4,-9,-9
-2,-6,-5,6,4,-6,14,21,-26,4,-8,-9
-13,-7,-3,11,-2,-5,15,22,-25,4,-8,-9
-28,-10,1,18,-9,-4,16,23,-24,4,-8,-9
-6,-10,-7,11,4,-9,12,23,-24,3,-9,-10
1,-11,-11,10,10,-12,12,25,-24,2,-10,-11
8,-10,-12,7,13,-11,13,29,-20,2,-10,-12
10,-12,-15,8,16,-14,15,38,-12,5,-9,-12
23,-12,-20,4,24,-17,15,44,-4,9,-9,-12
36,-13,-26,0,33,-20,19,50,3,11,-9,-13
45,-16,-32,0,41,-25,24,59,11,14,-9,-13
21,-17,-24,9,27,-21,30,68,17,12,-10,-14
56,-17,-37,-3,49,-28,30,69,21,14,-10,-14
48,-18,-35,1,44,-27,30,72,29,19,-5,-13
54,-11,-31,-7,42,-22,30,75,34,27,1,-10
79,-14,-42,-13,60,-28,29,79,37,32,5,-7
112,-10,-51,-26,77,-31,18,71,37,36,11,0
128,2,-45,-42,77,-22,10,67,42,44,18,6
150,11,-44,-57,83,-17,3,69,52,57,28,14
168,15,-46,-67,90,-16,-4,71,64,73,40,22
183,25,-42,-80,92,-9,-12,69,78,94,53,31
194,37,-34,-95,88,1,-25,60,87,114,70,43
219,50,-30,-114,92,10,-44,45,94,139,91,56
243,58,-31,-129,100,14,-62,34,108,176,117,73
261,63,-32,-139,107,15,-75,17,115,208,140,89
283,68,-35,-151,116,17,-79,8,129,249,171,108
299,72,-37,-159,123,17,-88,-6,136,281,195,124
301,83,-27,-170,115,28,-102,-31,129,306,216,137
303,93,-18,-179,108,38,-113,-50,121,331,236,151
301,94,-15,-180,105,40,-115,-57,119,356,258,165
292,101,-6,-183,94,48,-116,-62,115,374,273,177
288,112,6,-191,83,60,-116,-67,108,391,292,192
286,119,15,-197,75,68,-112,-65,103,411,309,209
286,125,21,-202,70,74,-109,-63,103,430,324,222
263,124,28,-194,57,77,-111,-69,87,434,335,232
259,128,33,-196,51,82,-112,-74,74,434,340,237
252,132,40,-198,44,87,-112,-81,60,431,345,239
234,132,46,-192,33,91,-109,-89,31,409,344,241
248,129,39,-194,43,86,-112,-104,-10,364,333,239
237,122,36,-184,42,80,-117,-117,-46,307,305,229
179,110,45,-155,17,79,-112,-122,-81,219,269,213
183,99,32,-146,29,66,-106,-122,-106,172,237,194
161,85,26,-126,28,56,-98,-113,-112,138,214,177
163,78,19,-121,34,49,-89,-103,-109,122,199,166
159,70,12,-113,38,42,-81,-93,-107,107,177,150
137,61,11,-98,32,37,-74,-86,-107,81,150,133
114,54,12,-84,25,33,-63,-76,-106,52,119,114
103,47,10,-75,23,29,-51,-69,-109,23,86,89
85,35,4,-58,23,20,-44,-62,-109,3,59,69
77,29,1,-50,23,15,-38,-57,-106,-12,41,55
70,23,-2,-42,23,10,-34,-51,-105,-23,26,44
68,20,-5,-39,25,7,-30,-50,-101,-31,15,35
50,16,-2,-29,17,7,-27,-46,-100,-39,4,26
28,14,4,-21,5,9,-27,-43,-99,-43,-2,20
50,13,-5,-27,19,4,-24,-41,-97,-45,-7,17
43,12,-4,-24,17,4,-22,-37,-93,-45,-12,11
10,7,4,-9,-1,6,-15,-30,-84,-45,-16,5
19,4,-2,-9,8,1,-8,-22,-77,-42,-20,-0
32,3,-8,-13,17,-2,-4,-16,-67,-38,-21,-8
25,-1,-10,-7,16,-5,1,-9,-58,-34,-24,-13
1,-4,-4,4,4,-4,7,-2,-45,-32,-21,-17
-6,-3,-1,5,-1,-2,12,2,-44,-29,-28,-20
-6,-5,-2,7,0,-4,13,5,-40,-28,-29,-23
-15,-10,-4,14,-1,-7,16,8,-35,-27,-30,-26
-15,-10,-5,14,-0,-8,19,11,-32,-25,-30,-27
-32,-7,5,17,-14,-1,24,13,-29,-23,-30,-28
-19,-9,-2,14,-4,-5,26,16,-26,-22,-30,-29
-10,-6,-2,9,-2,-4,22,15,-25,-23,-31,-29
-12,-6,-2,10,-2,-4,23,16,-23,-24,-31,-28
-11,-8,-4,11,0,-6,22,15,-22,-25,-32,-29
-10,-11,-7,13,3,-9,21,15,-22,-26,-32,-30
-12,-13,-8,15,3,-11,19,14,-21,-26,-33,-30
-15,-14,-8,17,2,-11,18,14,-20,-26,-33,-31
-19,-14,-7,19,0,-11,18,14,-20,-25,-34,-31
-26,-14,-5,22,-4,-10,18,14,-20,-25,-34,-32
-32,-14,-2,23,-8,-8,19,15,-19,-25,-34,-32
-33,-14,-1,23,-9,-8,20,16,-18,-25,-34,-32
-32,-14,-2,23,-8,-8,20,16,-18,-25,-34,-33
-32,-14,-3,24,-8,-9,20,16,-17,-25,-35,-33
-32,-15,-3,24,-7,-9,21,16,-17,-26,-35,-34
-32,-15,-3,24,-7,-10,20,16,-16,-26,-35,-34
-32,-16,-4,25,-7,-10,20,16,-16,-26,-36,-35
-32,-16,-4,25,-6,-10,19,16,-15,-26,-37,-35
-32,-17,-5,26,-6,-11,19,16,-15,-26,-37,-35
-32,-17,-5,26,-6,-11,18,17,-15,-27,-38,-35
-33,-17,-5,26,-6,-11,18,17,-15,-27,-38,-35
-34,-17,-5,27,-6,-11,18,17,-15,-27,-38,-35
-34,-18,-5,27,-6,-11,18,17,-14,-27,-38,-35
-34,-18,-5,27,-6,-11,18,17,-14,-27,-39,-35
-34,-17,-5,27,-7,-11,19,18,-14,-27,-39,-35
-34,-17,-4,26,-7,-10,19,18,-14,-28,-39,-35
-34,-16,-3,26,-8,-10,19,18,-13,-28,-39,-35
-34,-15,-3,25,-8,-9,18,18,-13,-28,-39,-35
-34,-15,-3,25,-8,-9,18,18,-13,-29,-40,-35
-34,-16,-3,26,-8,-10,17,18,-12,-29,-40,-35
-34,-16,-3,26,-8,-10,17,18,-12,-29,-40,-35
-34,-16,-3,26,-8,-10,16,19,-12,-30,-40,-36
-34,-16,-4,26,-7,-10,15,19,-12,-30,-40,-37
-33,-17,-4,26,-7,-11,15,20,-12,-30,-39,-38
-32,-17,-5,26,-6,-11,14,21,-12,-30,-38,-38
-32,-17,-5,26,-6,-11,13,22,-11,-30,-38,-39
-32,-17,-5,26,-5,-11,13,22,-11,-30,-38,-39
-32,-17,-6,26,-5,-12,12,22,-11,-31,-38,-39
-32,-18,-6,26,-5,-12,12,22,-11,-31,-38,-39
-32,-18,-6,26,-5,-12,11,22,-10,-31,-38,-39
-32,-18,-6,26,-5,-12,11,22,-9,-32,-38,-38
-32,-18,-6,26,-5,-12,11,23,-8,-32,-39,-38
-32,-18,-6,26,-5,-12,11,23,-7,-32,-39,-37
-32,-18,-6,26,-5,-12,11,23,-6,-33,-39,-37
-32,-18,-6,26,-5,-12,11,24,-5,-33,-40,-37
-33,-18,-6,27,-5,-12,11,24,-5,-33,-40,-37
-34,-18,-6,28,-5,-12,11,25,-5,-34,-40,-37
-34,-18,-6,28,-6,-12,11,26,-5,-34,-41,-38
-34,-18,-6,28,-6,-12,11,26,-4,-35,-41,-38
-34,-18,-6,28,-6,-12,11,26,-4,-35,-41,-38
-34,-18,-6,28,-6,-12,11,27,-4,-35,-41,-39
-34,-18,-5,28,-6,-12,11,27,-4,-36,-41,-39
-34,-17,-5,27,-7,-11,11,27,-4,-36,-42,-39
-34,-17,-4,26,-7,-11,11,27,-4,-36,-42,-39
-34,-16,-3,26,-8,-10,11,27,-4,-36,-42,-39
-34,-15,-3,25,-8,-9,11,28,-4,-37,-43,-40
-34,-15,-3,25,-8,-9,11,28,-4,-38,-43,-40
-34,-15,-2,25,-8,-9,11,29,-4,-38,-43,-40
-33,-15,-3,25,-8,-9,11,29,-4,-38,-43,-40
-32,-15,-3,24,-8,-9,10,30,-4,-39,-43,-40
-32,-14,-2,23,-8,-8,10,30,-4,-39,-43,-40
-32,-13,-1,22,-9,-7,9,31,-4,-39,-44,-40
-32,-12,-0,22,-10,-6,8,31,-4,-40,-44,-40
-32,-11,0,21,-10,-6,8,31,-4,-40,-44,-41
-32,-11,1,21,-10,-5,8,31,-3,-41,-44,-41
-32,-11,1,20,-10,-5,8,31,-3,-41,-45,-41
-32,-11,1,20,-10,-5,8,31,-2,-41,-45,-41
-32,-11,1,20,-10,-5,8,31,-2,-42,-45,-42
-33,-11,1,21,-11,-5,8,31,-2,-42,-46,-42
-34,-11,1,21,-11,-5,8,31,-2,-42,-46,-42
-34,-11,2,21,-12,-5,8,32,-2,-43,-46,-42
-34,-11,2,21,-12,-5,8,32,-2,-43,-46,-42
-33,-11,1,21,-11,-5,8,32,-2,-43,-46,-42
-32,-11,1,21,-11,-5,8,32,-2,-43,-46,-42
-32,-11,1,20,-11,-5,8,32,-2,-44,-47,-43
-32,-10,1,20,-11,-5,7,32,-2,-44,-47,-43
-32,-10,2,20,-11,-4,7,32,-2,-44,-47,-43
-32,-10,2,20,-11,-4,7,33,-2,-44,-47,-43
-32,-10,2,20,-11,-4,7,33,-2,-45,-47,-44
-32,-10,2,20,-11,-4,7,33,-2,-45,-47,-44
-32,-9,3,19,-12,-3,7,33,-2,-45,-47,-44
-32,-9,3,18,-13,-3,7,33,-2,-46,-46,-44
-33,-8,4,18,-14,-2,7,33,-2,-46,-46,-44
-34,-7,5,18,-15,-1,6,33,-2,-46,-45,-44
-34,-7,6,18,-15,-1,6,33,-2,-46,-45,-44
-34,-7,6,18,-15,-1,5,32,-2,-47,-46,-44
-34,-7,6,18,-15,-1,5,31,-2,-47,-46,-44
-34,-7,6,18,-15,-1,4,31,-2,-47,-46,-44
-34,-7,6,17,-16,-0,4,31,-1,-47,-46,-44
-34,-6,6,17,-16,0,4,31,-0,-47,-46,-44
-34,-6,6,17,-16,0,5,32,1,-48,-46,-44
-34,-6,6,17,-16,0,5,32,2,-48,-46,-44
-34,-6,6,17,-16,0,5,32,3,-48,-46,-44
-34,-6,6,17,-16,0,5,32,3,-48,-46,-44
-34,-6,6,17,-16,0,5,33,4,-48,-47,-44
-35,-6,7,17,-16,0,5,33,4,-49,-47,-45
-36,-6,7,18,-17,0,5,32,5,-49,-47,-45
-36,-6,7,18,-17,0,5,32,5,-49,-47,-45
-36,-6,7,18,-17,0,5,32,5,-49,-48,-45
-36,-7,7,18,-17,0,5,31,5,-49,-48,-46
-36,-7,6,18,-16,-0,5,32,5,-49,-48,-46
-37,-8,6,19,-16,-1,5,32,5,-48,-48,-46
-38,-9,6,20,-16,-2,4,32,5,-47,-48,-46
-39,-9,5,21,-16,-2,4,33,6,-47,-49,-46
-39,-9,5,21,-16,-2,4,32,6,-47,-49,-46
-39,-9,5,21,-16,-2,4,32,7,-47,-49,-46
-39,-9,5,21,-16,-2,4,32,8,-47,-49,-46
-39,-9,5,21,-16,-2,5,31,8,-47,-49,-46
-39,-9,5,21,-16,-2,5,31,8,-48,-48,-47
-39,-9,5,21,-16,-2,5,31,8,-48,-48,-47
-40,-9,5,22,-16,-2,5,31,8,-48,-47,-47
-41,-9,6,22,-17,-2,6,30,8,-48,-47,-47
-43,-9,6,23,-19,-1,6,31,9,-48,-47,-47
-45,-9,7,23,-20,-1,6,31,9,-48,-47,-47
-48,-9,8,24,-22,-0,6,31,9,-49,-48,-47
-51,-9,9,25,-23,-0,6,31,9,-49,-48,-47
-52,-9,10,25,-24,0,6,31,9,-49,-48,-47
-52,-9,10,26,-24,0,6,31,9,-49,-48,-47
-54,-9,10,26,-25,0,6,30,9,-49,-48,-47
-54,-9,11,26,-25,0,6,30,9,-49,-49,-47
-55,-9,11,26,-26,1,6,30,10,-49,-49,-47
-56,-9,11,27,-26,1,6,31,11,-49,-50,-47
-56,-9,11,27,-27,1,6,31,11,-49,-51,-47
-56,-9,11,27,-26,1,6,30,12,-49,-51,-47
-54,-9,10,26,-25,0,7,30,12,-49,-51,-47
-52,-9,10,26,-24,0,7,29,11,-48,-52,-47
-52,-9,10,25,-24,0,7,29,11,-48,-51,-47
-50,-9,9,25,-23,-0,7,28,11,-48,-51,-47
-50,-9,9,24,-23,0,7,28,11,-48,-50,-47
-50,-9,10,24,-23,0,7,28,11,-48,-49,-47
-50,-8,10,24,-23,1,8,28,11,-48,-49,-47
-51,-8,11,24,-25,1,8,27,11,-47,-48,-47
-52,-8,11,24,-25,2,8,27,11,-47,-47,-47
-52,-7,12,24,-26,2,8,26,11,-46,-47,-47
-52,-7,12,24,-26,2,7,25,11,-46,-47,-46
-53,-7,12,24,-27,3,7,24,11,-45,-47,-46
-55,-7,13,24,-28,3,7,23,11,-45,-47,-46
-56,-6,14,24,-29,4,7,22,10,-44,-46,-46
-59,-6,16,25,-31,5,6,21,10,-44,-46,-45
-60,-6,17,25,-32,5,6,20,10,-43,-45,-45
-60,-5,17,24,-33,6,6,19,10,-42,-44,-44
-61,-5,18,24,-33,6,6,17,9,-41,-43,-44
-61,-4,18,24,-34,7,5,16,9,-40,-43,-43
-61,-4,18,24,-34,7,5,15,9,-39,-42,-42
-61,-4,19,23,-34,8,4,14,8,-38,-41,-40
-60,-3,19,22,-34,8,4,13,8,-36,-40,-39
-59,-3,19,22,-34,8,3,12,8,-35,-39,-38
-59,-2,19,21,-34,9,3,11,8,-34,-38,-36
-59,-2,20,21,-34,9,2,10,7,-33,-37,-35
-58,-1,20,20,-34,9,1,8,7,-32,-36,-35
-57,-1,20,20,-34,10,1,7,6,-30,-35,-34
-56,-0,20,19,-34,10,0,5,6,-29,-34,-33
-56,0,21,18,-34,11,-1,4,6,-28,-32,-32
-55,1,21,17,-34,11,-1,3,6,-26,-31,-31
-54,1,21,17,-34,11,-2,2,5,-25,-30,-31
-52,2,21,16,-34,12,-3,1,5,-23,-29,-30
-52,2,22,15,-34,12,-4,0,5,-22,-27,-30
-52,3,22,15,-34,12,-4,-1,5,-20,-26,-29
-51,3,22,14,-34,13,-5,-2,4,-18,-24,-29
-49,4,22,13,-34,13,-6,-3,4,-16,-22,-28
-48,5,23,11,-34,14,-7,-5,5,-15,-21,-27
-48,6,23,11,-34,14,-8,-6,5,-13,-19,-26
-47,6,23,10,-34,15,-9,-8,6,-11,-17,-25
-46,7,23,9,-34,15,-9,-10,6,-10,-16,-23
-45,7,24,8,-34,16,-10,-11,6,-8,-15,-22
-43,8,24,7,-33,16,-11,-12,6,-7,-13,-20
-42,8,24,6,-33,16,-12,-13,5,-5,-12,-18
-41,9,24,6,-33,17,-12,-14,5,-4,-10,-17
-40,9,24,5,-33,17,-13,-15,6,-3,-9,-16
-39,10,24,4,-32,17,-14,-15,6,-2,-7,-15
-37,10,24,3,-32,17,-15,-16,6,-0,-6,-14
-36,11,24,3,-31,17,-16,-17,6,0,-4,-13
-34,11,23,2,-30,17,-16,-17,6,1,-3,-12
-32,11,23,1,-29,18,-17,-18,6,2,-1,-12
-31,12,23,0,-29,17,-17,-18,6,2,-0,-11
-30,12,23,0,-28,17,-17,-18,5,3,0,-11
-30,12,23,-0,-28,17,-18,-18,5,3,0,-11
-30,12,23,-0,-28,17,-18,-18,5,3,0,-11
-30,12,23,-0,-28,17,-18,-18,5,3,0,-11
-30,12,23,-0,-28,17,-18,-18,5,3,0,-11
-27,11,21,-1,-26,16,-18,-18,7,4,2,-10
-23,11,19,-2,-23,15,-19,-18,8,5,5,-9
-21,11,19,-2,-22,15,-19,-18,8,6,6,-9
-21,11,18,-2,-22,15,-19,-18,8,6,7,-9
-21,10,18,-2,-22,14,-19,-18,9,6,7,-9
-21,10,17,-1,-21,14,-19,-18,9,6,7,-9
-21,9,17,-1,-21,13,-19,-18,10,6,7,-9
-20,9,16,-1,-20,12,-19,-18,11,6,7,-9
-18,8,15,-1,-19,12,-19,-17,11,6,7,-9
-16,8,14,-2,-17,11,-19,-17,12,6,7,-9
-14,8,14,-2,-16,11,-19,-16,13,6,7,-9
-13,8,13,-3,-15,10,-19,-15,14,6,7,-9
-12,7,12,-2,-14,10,-19,-15,15,6,7,-9
-12,7,11,-2,-13,9,-19,-14,17,6,7,-9
-12,6,10,-1,-13,8,-19,-13,18,6,7,-9
-12,5,10,-1,-12,8,-19,-13,19,6,7,-9
-12,5,10,-0,-12,7,-19,-12,20,6,7,-9
-12,5,10,-0,-12,7,-18,-12,21,6,7,-9
-12,5,10,-0,-12,7,-18,-11,22,6,7,-9
-11,5,9,-0,-11,7,-17,-11,23,6,7,-9
-9,4,8,-0,-9,6,-17,-10,23,7,7,-9
-8,3,6,-0,-8,5,-17,-10,24,8,7,-9
-5,3,5,-0,-6,4,-17,-10,25,8,7,-9
-4,2,3,0,-4,2,-17,-10,26,9,7,-9
-4,1,3,1,-3,2,-17,-9,26,9,7,-9
-3,0,2,1,-2,1,-17,-9,27,9,7,-9
-3,-0,1,2,-2,0,-17,-8,28,9,7,-9
-2,-1,-0,2,-0,-1,-17,-8,28,9,7,-9
-0,-2,-2,3,1,-2,-16,-8,29,9,7,-9
1,-3,-3,3,3,-3,-16,-8,30,9,7,-9
4,-4,-5,3,5,-4,-15,-8,31,9,7,-9
5,-4,-6,3,7,-5,-15,-8,31,9,7,-9
5,-4,-6,3,7,-5,-15,-8,31,10,7,-9
5,-5,-6,3,7,-6,-14,-8,31,11,7,-9
5,-5,-6,3,7,-6,-14,-8,31,11,7,-9
5,-5,-6,3,7,-6,-14,-8,31,12,7,-9
5,-5,-6,3,7,-6,-14,-8,31,12,7,-9
5,-5,-6,3,7,-6,-14,-8,31,12,7,-9
5,-5,-6,3,7,-6,-14,-8,31,12,7,-9
5,-5,-6,3,7,-6,-14,-8,31,12,7,-9
5,-5,-6,3,7,-6,-14,-8,31,12,7,-9
5,-5,-6,3,7,-6,-14,-8,31,12,7,-9
5,-5,-6,3,7,-6,-14,-8,31,12,7,-9
5,-5,-6,3,7,-6,-14,-8,31,12,7,-9
5,-5,-6,3,7,-6,-14,-8,31,12,7,-9
5,-5,-6,3,7,-6,-14,-8,31,12,7,-9
5,-5,-6,3,7,-6,-14,-8,31,12,7,-9
5,-5,-6,3,7,-6,-14,-8,31,12,7,-9
5,-5,-6,3,7,-6,-14,-8,31,12,7,-9
5,-5,-6,3,7,-6,-14,-8,31,12,7,-9
5,-5,-6,3,7,-6,-14,-8,31,12,7,-9
5,-5,-6,3,7,-6,-14,-8,31,12,7,-9
5,-5,-6,3,7,-6,-14,-8,31,12,7,-9
5,-5,-6,3,7,-6,-14,-9,31,12,7,-9
5,-5,-6,3,7,-6,-14,-10,31,12,7,-9
5,-5,-6,3,7,-6,-14,-10,31,12,7,-9
5,-5,-6,3,7,-6,-14,-10,31,11,7,-9
5,-5,-6,3,7,-6,-14,-10,30,11,7,-9
5,-5,-6,3,7,-6,-14,-10,29,10,7,-9
5,-5,-6,3,7,-6,-14,-10,29,9,7,-9
5,-5,-6,3,7,-6,-14,-10,29,9,7,-9
5,-5,-6,3,7,-6,-14,-10,28,9,7,-9
5,-5,-6,3,7,-6,-14,-10,28,9,7,-9
6,-5,-7,3,8,-6,-14,-11,28,9,7,-9
8,-5,-7,2,9,-6,-14,-11,28,9,7,-9
10,-5,-8,1,10,-6,-14,-12,28,9,7,-9
12,-5,-9,1,11,-7,-14,-12,28,9,7,-9
13,-5,-9,0,12,-7,-14,-13,28,9,7,-9
14,-5,-9,0,12,-7,-14,-13,28,9,7,-9
14,-5,-10,0,13,-7,-14,-13,27,9,7,-9
14,-5,-10,0,13,-7,-14,-13,26,9,7,-9
14,-5,-10,0,13,-7,-14,-13,26,9,7,-9
14,-5,-10,0,13,-7,-14,-13,26,9,7,-9
14,-5,-10,0,13,-7,-14,-13,26,9,7,-9
14,-5,-10,0,13,-7,-14,-13,26,9,7,-9
14,-5,-10,0,13,-7,-14,-13,26,9,7,-9
14,-5,-10,0,13,-7,-14,-13,26,9,7,-9
14,-5,-10,0,13,-7,-14,-13,26,9,7,-9
14,-5,-10,0,13,-7,-14,-13,26,9,7,-9
14,-5,-10,0,13,-7,-14,-13,25,9,7,-9
14,-5,-10,0,13,-7,-14,-13,25,9,7,-9
14,-5,-10,0,13,-7,-14,-13,24,9,7,-9
14,-5,-10,0,13,-7,-14,-13,23,9,7,-9
14,-5,-10,0,13,-7,-14,-13,23,9,7,-9
14,-5,-10,0,13,-7,-14,-13,23,9,7,-9
14,-5,-10,0,13,-7,-14,-13,23,9,7,-9
14,-5,-10,0,13,-7,-14,-13,23,9,7,-9
14,-5,-10,0,13,-7,-14,-13,23,9,7,-9
14,-5,-10,0,13,-7,-14,-13,23,9,7,-9
14,-5,-10,0,13,-7,-14,-13,23,9,7,-9
14,-5,-10,0,13,-7,-14,-13,23,9,7,-9
14,-5,-10,0,13,-7,-14,-13,23,9,7,-9
14,-5,-10,0,13,-7,-14,-13,23,9,7,-9
14,-5,-10,0,13,-7,-14,-13,23,9,7,-9
14,-5,-10,0,13,-7,-14,-13,23,9,7,-9
13,-5,-9,0,12,-7,-14,-13,23,9,7,-9
12,-5,-9,1,11,-7,-14,-13,23,9,7,-9
10,-5,-8,1,10,-6,-14,-13,23,9,7,-9
8,-5,-7,2,8,-6,-14,-13,23,9,7,-9
6,-5,-7,3,8,-6,-14,-13,23,9,7,-9
6,-5,-6,3,7,-6,-14,-13,23,8,7,-9
5,-5,-6,3,7,-6,-14,-13,23,8,7,-9
5,-5,-6,3,7,-6,-14,-13,23,7,7,-9
5,-5,-6,3,7,-6,-14,-13,23,6,7,-9
5,-5,-6,3,7,-6,-14,-13,23,6,7,-9
5,-5,-6,3,7,-6,-14,-13,23,6,7,-9
5,-5,-6,3,7,-6,-14,-13,23,6,7,-9
5,-5,-6,3,7,-6,-14,-13,23,6,7,-9
5,-5,-6,3,7,-6,-14,-13,23,6,7,-9
5,-5,-6,3,7,-6,-14,-13,23,6,7,-9
5,-5,-6,3,7,-6,-14,-13,23,6,7,-9
5,-5,-6,3,7,-6,-14,-13,22,6,7,-9
5,-5,-6,3,7,-6,-14,-12,22,6,7,-9
5,-5,-6,3,7,-6,-14,-12,21,6,7,-9
5,-5,-6,3,7,-6,-14,-11,20,6,7,-9
5,-5,-6,3,7,-5,-14,-11,20,6,7,-9
3,-5,-6,3,6,-5,-14,-10,20,6,7,-9
1,-5,-5,4,5,-5,-14,-10,20,6,7,-9
-1,-5,-4,5,3,-4,-14,-10,20,6,7,-9
-2,-5,-4,5,2,-4,-14,-10,20,6,7,-9
-3,-5,-3,5,2,-4,-14,-10,20,6,7,-9
-3,-5,-3,5,2,-4,-14,-10,20,6,7,-9
-3,-5,-3,5,2,-4,-14,-10,20,6,7,-9
-3,-5,-3,5,2,-4,-14,-10,20,6,7,-9
-3,-5,-3,5,2,-4,-14,-10,20,6,7,-9
-3,-5,-3,5,2,-4,-13,-10,20,6,7,-9
-3,-5,-3,5,2,-4,-12,-10,20,6,7,-9
-3,-5,-3,5,2,-4,-12,-10,20,6,7,-9
-3,-5,-3,5,2,-4,-12,-10,20,6,7,-9
-3,-5,-3,5,2,-4,-12,-10,20,6,7,-9
-3,-5,-3,5,2,-4,-12,-10,20,6,7,-9
-2,-5,-4,5,2,-4,-12,-10,20,6,7,-9
-0,-5,-4,5,4,-4,-12,-10,20,6,7,-9
1,-5,-5,4,5,-5,-12,-10,20,6,7,-9
4,-5,-6,3,6,-5,-12,-10,20,6,7,-9
5,-5,-6,3,7,-5,-12,-10,20,6,7,-9
5,-5,-6,3,7,-6,-12,-10,20,6,7,-9
5,-5,-6,3,7,-6,-12,-10,20,6,7,-9
5,-5,-6,3,7,-6,-12,-10,20,6,7,-9
6,-5,-7,3,8,-6,-12,-10,20,6,7,-9
8,-5,-7,2,9,-6,-12,-10,20,6,8,-9
10,-5,-8,1,10,-6,-12,-10,20,6,8,-9
12,-5,-9,1,11,-7,-12,-10,20,6,9,-9
13,-5,-9,0,12,-7,-12,-10,20,6,9,-9
14,-5,-9,0,12,-7,-12,-10,20,6,10,-9
14,-5,-10,0,13,-7,-12,-10,20,6,10,-9
14,-5,-10,0,13,-7,-12,-10,20,6,10,-9
13,-5,-9,0,12,-7,-12,-10,20,6,10,-9
12,-5,-9,1,11,-7,-12,-10,20,6,10,-9
10,-5,-8,1,10,-6,-12,-10,20,6,10,-9
8,-5,-7,2,8,-6,-12,-10,20,6,10,-9
6,-5,-7,3,8,-6,-12,-10,19,6,9,-9
6,-5,-6,3,7,-6,-12,-10,19,6,9,-9
5,-5,-6,3,7,-6,-12,-10,18,6,8,-9
5,-5,-6,3,7,-6,-12,-10,17,6,8,-9
5,-5,-6,3,7,-6,-12,-10,17,6,7,-9
5,-5,-6,3,7,-6,-12,-10,17,6,7,-9
5,-5,-6,3,7,-6,-12,-10,17,6,7,-9
5,-5,-6,3,7,-6,-12,-10,17,6,7,-9
5,-5,-6,3,7,-6,-12,-10,17,6,7,-9
5,-5,-6,3,7,-6,-11,-10,17,6,7,-9
5,-5,-6,3,7,-6,-11,-10,17,6,7,-9
5,-5,-6,3,7,-6,-10,-10,17,6,7,-9
5,-5,-6,3,7,-6,-10,-10,17,6,7,-9
5,-5,-6,3,7,-6,-9,-10,17,6,7,-10
5,-5,-6,3,7,-6,-9,-10,17,6,7,-10
5,-5,-6,3,7,-6,-9,-10,17,6,7,-11
5,-4,-6,3,7,-5,-9,-10,17,6,7,-11
5,-4,-5,2,6,-5,-9,-10,17,6,7,-12
5,-3,-5,1,6,-4,-9,-10,17,6,7,-12
5,-2,-4,1,5,-3,-9,-10,17,6,7,-12
5,-1,-3,0,4,-2,-9,-11,17,6,7,-12
5,-0,-2,-1,4,-1,-9,-11,17,5,6,-13
5,0,-1,-1,3,-1,-8,-12,17,5,5,-13
5,1,-1,-2,2,0,-7,-12,17,4,5,-14
5,2,0,-3,2,1,-7,-13,16,4,4,-14
3,2,1,-2,0,1,-7,-13,16,3,4,-15
1,2,1,-2,-1,1,-7,-13,15,3,4,-15
-1,2,2,-1,-2,2,-7,-13,14,3,4,-15
-2,2,3,-0,-3,2,-7,-13,14,3,4,-15
-3,1,2,0,-2,1,-7,-13,14,3,4,-15
-3,0,2,1,-2,1,-7,-13,14,3,4,-15
-3,-0,1,2,-2,0,-7,-13,14,3,4,-15
-3,-1,0,3,-1,-1,-6,-13,14,3,4,-14
-3,-2,-1,3,-0,-1,-6,-12,14,3,5,-14
-3,-3,-2,4,1,-2,-5,-12,14,3,5,-13
-3,-4,-2,5,1,-3,-5,-11,14,3,6,-12
-2,-5,-4,5,2,-4,-4,-11,14,3,7,-12
-0,-5,-5,5,4,-5,-4,-10,14,3,7,-11
1,-6,-6,5,6,-6,-3,-10,14,3,7,-10
4,-7,-8,5,8,-8,-2,-10,14,3,7,-9
5,-7,-9,5,9,-8,-2,-10,14,4,7,-9
5,-8,-9,5,10,-9,-2,-10,15,4,8,-9
5,-8,-10,6,10,-9,-2,-10,15,5,8,-9
5,-8,-10,6,10,-9,-2,-10,16,5,9,-9
5,-8,-9,6,10,-9,-2,-10,16,6,9,-8
3,-8,-9,6,8,-8,-1,-10,16,6,10,-8
1,-8,-8,7,7,-8,-1,-10,17,6,10,-7
-1,-8,-7,8,6,-8,0,-10,17,6,10,-6
-3,-8,-6,8,5,-7,1,-10,17,6,10,-6
-5,-8,-6,9,3,-7,1,-10,17,6,10,-6
-8,-8,-5,10,2,-6,1,-10,17,6,10,-6
-10,-8,-4,11,1,-6,1,-10,17,6,10,-6
-11,-8,-4,11,-0,-6,1,-10,17,6,10,-6
-12,-8,-3,11,-1,-6,1,-10,17,6,10,-6
-12,-8,-3,11,-1,-6,1,-10,17,6,10,-6
-12,-8,-3,11,-1,-6,1,-10,17,6,10,-6
-12,-8,-3,11,-1,-6,1,-10,17,6,10,-6
-12,-8,-3,11,-1,-6,1,-10,17,6,10,-6
-12,-8,-3,11,-1,-6,1,-10,17,6,10,-6
-12,-8,-3,11,-1,-6,1,-10,17,6,10,-6
-11,-8,-4,11,-0,-6,1,-10,16,6,10,-6
-9,-8,-4,10,1,-6,1,-10,16,6,10,-6
-8,-8,-5,10,2,-6,1,-10,15,6,10,-6
-5,-8,-6,9,3,-7,1,-10,14,6,10,-6
-4,-8,-6,9,4,-7,1,-10,14,6,10,-6
-4,-8,-6,9,4,-7,1,-10,14,6,10,-6
-3,-8,-6,8,5,-7,1,-10,14,6,10,-6
-3,-8,-6,8,5,-7,1,-10,14,6,10,-6
-3,-8,-6,8,5,-7,1,-10,14,6,10,-6
-3,-8,-6,8,5,-7,1,-10,14,6,10,-6
-3,-8,-6,8,5,-7,1,-10,14,6,10,-6
-3,-8,-6,8,5,-7,1,-10,14,6,10,-6
-3,-8,-7,9,5,-8,1,-10,14,6,10,-5
-3,-9,-7,9,5,-8,2,-10,14,6,10,-5
-3,-9,-8,10,6,-9,2,-10,14,6,10,-4
-3,-10,-9,11,7,-10,3,-10,14,6,10,-3
-3,-11,-9,11,7,-10,3,-10,14,6,10,-3
-3,-11,-10,11,7,-10,3,-10,14,5,10,-3
-3,-11,-10,11,7,-11,3,-10,14,5,10,-3
-3,-11,-10,11,7,-11,3,-10,14,4,10,-3
-3,-11,-10,11,7,-11,3,-10,13,4,10,-3
-3,-11,-10,11,7,-11,3,-10,13,3,10,-3
-3,-11,-10,11,7,-11,3,-10,12,3,10,-3
-3,-11,-10,11,7,-11,3,-10,11,3,10,-3
-3,-11,-9,11,7,-10,3,-10,11,3,10,-3
-3,-10,-9,10,7,-10,3,-10,11,3,10,-3
-3,-9,-8,10,6,-9,3,-10,11,3,10,-4
-3,-9,-7,9,5,-8,3,-10,11,3,10,-5
-3,-8,-7,9,5,-8,4,-10,11,3,9,-5
-3,-8,-7,9,5,-7,4,-10,11,3,9,-5
-3,-8,-6,8,5,-7,5,-10,11,3,8,-6
-3,-8,-6,8,5,-7,5,-10,11,3,8,-6
-4,-8,-6,9,4,-7,6,-10,11,3,7,-6
-6,-8,-6,9,3,-7,6,-10,11,2,7,-6
-8,-8,-5,10,2,-6,6,-10,11,2,7,-6
-10,-8,-4,11,1,-6,6,-10,11,1,7,-6
-11,-8,-4,11,-0,-6,6,-11,10,0,7,-5
-12,-8,-3,11,-1,-6,6,-11,10,-0,7,-5
-12,-8,-3,11,-1,-6,6,-12,9,-1,7,-4
-12,-8,-3,11,-1,-6,6,-12,8,-2,7,-3
-12,-8,-3,11,-1,-6,6,-13,8,-3,7,-3
-12,-8,-3,11,-1,-6,6,-13,8,-3,7,-3
-12,-8,-3,11,-1,-6,6,-13,8,-4,7,-3
-12,-8,-3,11,-1,-6,6,-13,8,-5,7,-3
-12,-8,-3,11,-1,-6,6,-13,8,-5,7,-3
-12,-8,-3,11,-1,-6,6,-13,8,-5,7,-3
-12,-8,-3,11,-1,-6,6,-13,8,-5,7,-3
-12,-8,-3,11,-1,-6,6,-13,8,-5,7,-3
-12,-8,-3,11,-1,-6,6,-13,7,-5,7,-3
-12,-8,-3,11,-1,-6,6,-13,7,-5,7,-3
-12,-8,-3,11,-1,-6,6,-13,6,-5,7,-3
-12,-8,-3,11,-1,-6,6,-13,5,-5,7,-3
-12,-8,-3,11,-1,-6,6,-13,5,-5,7,-3
-12,-8,-3,11,-1,-6,6,-13,5,-5,7,-3
-12,-8,-3,11,-1,-6,6,-13,5,-5,7,-3
-12,-8,-3,11,-1,-6,6,-13,5,-5,7,-3
-12,-8,-3,11,-1,-6,6,-13,5,-5,7,-2
-12,-8,-3,11,-1,-6,5,-13,5,-5,7,-2
-12,-8,-3,11,-1,-6,5,-13,5,-5,7,-1
-12,-8,-3,11,-1,-6,4,-13,5,-5,7,-0
-12,-8,-3,11,-1,-6,4,-13,4,-5,7,0
-12,-8,-3,11,-1,-6,3,-13,4,-5,6,0
-12,-8,-3,11,-1,-6,3,-13,3,-5,5,0
-12,-8,-3,11,-1,-6,3,-13,3,-5,5,0
-12,-8,-3,11,-1,-6,4,-13,2,-6,4,0
-12,-8,-3,11,-1,-6,4,-13,2,-6,4,0
-12,-8,-3,11,-1,-6,5,-13,2,-7,4,0
-12,-8,-3,11,-1,-6,5,-13,2,-8,4,0
-12,-8,-3,11,-1,-6,6,-13,2,-8,4,0
-12,-8,-3,11,-1,-6,6,-13,2,-8,4,0
-12,-8,-3,11,-1,-6,6,-13,2,-8,4,0
-12,-8,-3,11,-1,-6,6,-13,2,-8,4,0
-12,-8,-3,11,-1,-6,6,-13,1,-8,4,1
-12,-8,-3,11,-1,-6,6,-13,1,-8,4,1
-12,-8,-3,11,-1,-6,6,-13,0,-8,4,2
-12,-8,-3,11,-1,-6,6,-13,-0,-8,4,3
-12,-7,-3,11,-1,-5,6,-13,-1,-8,4,3
-12,-7,-2,10,-2,-5,5,-14,-1,-8,4,3
-12,-6,-2,10,-2,-4,5,-14,-1,-8,4,3
-12,-5,-1,9,-3,-3,4,-15,-1,-8,4,3
-12,-5,-0,9,-3,-3,4,-15,-1,-8,4,3
-12,-5,-0,9,-4,-2,3,-15,-1,-8,3,3
-12,-5,0,8,-4,-2,3,-15,-1,-8,2,3
-12,-5,0,8,-4,-2,3,-15,-1,-8,2,3
-12,-5,0,8,-4,-2,3,-15,-1,-8,1,3
-12,-5,0,8,-4,-2,3,-15,-1,-8,1,3
-12,-5,0,8,-4,-2,3,-14,-1,-8,1,3
-12,-5,0,8,-4,-2,3,-13,-1,-8,1,3
-12,-5,0,8,-4,-2,3,-13,-1,-8,1,4
-12,-5,0,8,-4,-2,3,-13,-1,-8,2,4
-12,-5,0,8,-4,-2,3,-13,-1,-8,2,5
-12,-5,0,8,-4,-2,3,-13,-1,-8,3,6
-13,-5,0,9,-4,-2,4,-13,-1,-8,4,6
-15,-6,0,10,-4,-3,4,-13,-1,-8,4,6
-16,-6,0,11,-5,-3,5,-13,-1,-8,4,6
-19,-7,0,13,-6,-4,5,-13,-1,-8,4,6
-20,-7,0,13,-6,-4,6,-13,-1,-8,4,6
-20,-8,0,14,-6,-4,6,-13,-1,-8,4,6
-21,-8,0,14,-6,-4,6,-13,-1,-8,4,6
-21,-8,0,14,-6,-4,6,-13,-1,-8,4,6
-20,-8,-0,14,-6,-4,6,-13,-1,-8,4,6
-18,-8,-1,13,-5,-4,6,-13,-1,-8,3,6
-16,-8,-2,13,-4,-5,6,-13,-1,-8,2,6
-14,-8,-2,12,-2,-5,6,-13,-1,-8,2,6
-13,-7,-3,11,-2,-5,6,-13,-1,-8,1,6
-12,-7,-2,11,-2,-5,6,-13,-1,-8,1,6
-12,-6,-2,10,-2,-4,6,-13,-1,-8,1,6
-12,-5,-1,9,-3,-3,6,-13,-1,-8,1,6
-13,-5,0,9,-4,-2,6,-13,-1,-8,1,6
-15,-5,1,9,-5,-2,7,-13,-2,-8,1,6
-16,-5,2,10,-6,-1,7,-13,-3,-8,1,6
-19,-5,2,10,-8,-1,8,-13,-3,-8,1,6
-20,-5,3,11,-8,-1,8,-13,-4,-8,1,7
-20,-5,3,11,-9,-1,8,-13,-4,-8,2,7
-21,-5,3,11,-9,-1,8,-13,-4,-7,2,8
-21,-5,3,11,-9,-1,8,-13,-4,-6,3,8
-21,-5,3,11,-9,-1,8,-13,-4,-6,3,9
-21,-5,3,11,-9,-1,8,-13,-4,-6,3,9
-21,-5,3,11,-9,-1,8,-13,-4,-6,3,9
-21,-5,3,11,-9,-1,8,-13,-4,-6,3,9
-21,-5,3,11,-9,-1,8,-13,-4,-6,3,9
-22,-5,3,12,-10,-1,8,-15,-5,-7,3,10
-24,-6,3,13,-10,-1,7,-19,-7,-9,3,12
-25,-6,3,14,-10,-1,7,-20,-7,-9,3,13
-25,-6,3,14,-10,-1,6,-20,-8,-9,3,13
-24,-6,3,14,-10,-2,6,-20,-8,-9,3,13
-23,-6,2,13,-9,-2,6,-20,-8,-9,2,13
-21,-6,2,13,-8,-2,6,-20,-8,-9,2,13
-20,-6,1,12,-7,-3,6,-20,-8,-9,2,13
-19,-6,1,12,-7,-3,6,-20,-8,-9,2,13
-19,-6,1,12,-6,-3,6,-20,-7,-9,1,13
-19,-6,1,11,-7,-2,6,-20,-7,-9,1,13
-19,-6,1,11,-7,-2,6,-20,-7,-9,1,13
-19,-5,2,11,-7,-2,6,-20,-7,-9,1,13
-19,-5,2,11,-8,-1,6,-20,-7,-9,1,13
-19,-5,2,10,-8,-1,6,-20,-7,-9,1,12
-18,-4,3,10,-8,-1,6,-20,-7,-9,1,13
-17,-3,3,9,-8,0,6,-20,-6,-8,2,13
-16,-2,4,7,-8,1,6,-20,-5,-7,2,14
-16,-1,5,7,-9,2,6,-20,-4,-6,3,15
-16,-0,6,6,-10,2,6,-20,-4,-6,4,15
-16,0,6,5,-10,3,6,-20,-4,-6,4,15
-17,1,8,5,-12,4,6,-20,-3,-5,4,16
-18,2,9,5,-13,5,6,-20,-3,-5,4,16
-19,2,9,4,-14,6,6,-20,-3,-5,4,16
-19,2,9,4,-14,6,6,-19,-3,-5,4,16
-19,3,10,4,-14,6,6,-19,-3,-5,4,16
-19,3,10,4,-14,6,6,-19,-3,-5,4,16
-18,3,9,4,-13,6,6,-19,-3,-5,4,16
-17,3,9,3,-13,6,6,-19,-3,-5,3,16
-16,3,9,3,-13,6,6,-19,-3,-5,2,16
-16,3,9,3,-13,6,6,-19,-2,-5,2,16
-16,3,9,3,-13,6,6,-19,-2,-5,1,16
-16,3,9,3,-13,6,6,-20,-2,-5,1,16
-16,3,9,3,-13,6,6,-20,-2,-5,1,16
-16,3,9,3,-13,6,6,-21,-2,-5,1,16
-16,3,9,3,-13,6,6,-21,-2,-5,1,16
-17,3,9,4,-13,6,6,-22,-2,-5,1,16
-18,3,9,4,-14,6,6,-22,-1,-5,1,16
-19,3,10,4,-14,6,6,-22,-1,-5,1,16
-19,3,10,4,-14,6,6,-22,-1,-5,2,16
-19,4,11,3,-15,7,6,-22,-1,-4,2,16
-19,4,11,3,-15,8,6,-21,-1,-3,3,16
-19,5,12,2,-16,9,6,-20,-1,-3,3,16
-19,6,12,1,-16,9,5,-20,-1,-2,4,16
-19,6,13,1,-16,9,5,-20,-1,-2,4,16
-19,6,13,1,-17,9,5,-20,-1,-2,4,16
-19,6,13,1,-17,9,5,-20,-0,-2,4,16
-19,6,13,1,-17,9,5,-19,-0,-2,4,16
-19,6,13,1,-17,9,5,-19,-0,-2,4,16
-19,6,13,1,-17,9,5,-19,-0,-2,4,16
-19,6,13,1,-17,9,5,-19,-0,-2,4,16
-19,6,13,1,-17,9,5,-19,-0,-2,4,16
-19,6,13,1,-17,9,5,-19,-0,-2,4,16
-19,6,13,1,-17,9,5,-19,-0,-2,4,16
-19,6,13,1,-17,9,5,-19,0,-2,4,16
-19,6,13,1,-17,9,5,-19,0,-2,4,16
-19,6,13,1,-17,9,5,-19,-1,-2,4,16
-19,6,13,1,-17,9,5,-19,-2,-2,4,16
-19,6,13,1,-17,9,5,-19,-3,-2,4,16
-18,6,12,1,-16,9,5,-19,-3,-2,4,16
-17,6,12,1,-16,9,5,-18,-3,-2,4,16
-16,6,12,1,-15,9,5,-18,-3,-2,4,16
-16,6,12,1,-15,9,5,-18,-3,-2,4,16
-16,6,12,1,-15,9,5,-18,-3,-2,4,16
-16,6,12,1,-15,9,5,-18,-3,-2,5,16
-16,6,12,1,-15,9,5,-17,-3,-2,5,16
-16,6,12,1,-15,9,5,-17,-3,-1,5,16
-17,6,12,1,-16,9,5,-17,-3,-1,5,16
-18,6,13,1,-16,9,5,-17,-3,-1,5,16
-19,6,13,1,-17,9,5,-17,-3,-1,5,16
-19,6,13,1,-17,9,5,-17,-3,-1,5,16
-19,6,13,1,-17,9,5,-17,-3,-1,4,16
-19,6,13,1,-17,9,5,-17,-4,-2,3,16
-18,6,13,1,-16,10,5,-17,-4,-3,2,16
-17,7,13,0,-16,10,5,-17,-5,-3,2,16
-16,7,13,-0,-16,10,5,-17,-6,-4,1,16
-16,7,13,-0,-16,10,5,-17,-7,-4,1,16
-16,7,13,-0,-16,10,5,-17,-8,-4,1,15
-16,7,13,-0,-16,10,5,-17,-8,-4,1,15
-16,7,13,-0,-16,10,5,-17,-9,-4,1,15
-16,7,13,-0,-16,10,5,-16,-10,-4,0,15
-16,7,13,-0,-16,10,5,-16,-10,-4,0,15
-16,7,13,-0,-16,10,5,-16,-10,-4,0,15
-16,7,13,-0,-16,10,5,-16,-10,-4,1,15
-16,7,12,-1,-15,10,5,-15,-10,-3,1,15
-15,7,12,-1,-15,9,5,-15,-11,-3,2,15
-14,6,12,-1,-14,9,5,-14,-11,-2,2,15
-14,6,11,-0,-14,9,5,-14,-11,-1,3,15
-14,6,11,-0,-14,9,5,-13,-11,-1,3,15
-14,6,11,-0,-14,9,6,-13,-11,-1,3,15
-14,6,11,-0,-14,9,6,-13,-10,-1,3,15
-14,6,11,-0,-14,9,6,-13,-10,-1,4,15
-14,6,11,-0,-14,9,6,-13,-10,-0,4,15
-14,6,11,-0,-14,9,6,-12,-10,-0,4,15
-14,6,11,-0,-14,9,6,-12,-10,-0,4,15
-14,6,11,-0,-14,9,6,-12,-10,-1,4,15
-15,6,12,0,-14,9,6,-12,-11,-1,4,15
-16,6,12,0,-15,9,6,-12,-12,-2,4,15
-16,6,12,1,-15,9,6,-12,-13,-3,4,15
-16,6,12,0,-15,9,6,-12,-13,-3,4,15
-14,6,11,-0,-14,8,6,-12,-14,-3,4,16
-11,6,10,-1,-12,8,6,-12,-14,-3,4,16
-8,6,9,-2,-10,7,6,-13,-15,-4,4,17
-5,6,8,-3,-8,7,6,-13,-15,-4,4,17
-3,6,7,-3,-7,6,5,-13,-15,-4,4,18
-1,5,6,-4,-5,5,5,-13,-16,-4,4,18
2,5,4,-5,-3,5,5,-14,-16,-5,4,18
5,5,4,-6,-1,4,5,-14,-16,-4,4,19
7,6,4,-7,-1,5,5,-13,-16,-4,4,19
7,7,4,-8,-1,5,5,-13,-17,-3,4,19
8,7,5,-9,-2,6,5,-12,-17,-3,4,19
9,8,5,-10,-1,6,5,-12,-17,-2,4,18
10,8,5,-10,-1,6,6,-11,-17,-2,4,18
10,8,5,-10,-1,7,7,-11,-17,-2,4,17
10,8,5,-10,-1,7,8,-10,-17,-1,4,16
9,8,5,-10,-2,7,9,-10,-16,-1,4,15
7,8,6,-9,-3,7,10,-9,-16,-1,4,15
5,8,6,-9,-4,7,10,-8,-16,-1,4,15
4,8,7,-8,-5,8,11,-7,-16,-0,4,15
2,8,7,-7,-5,7,12,-5,-15,-0,4,15
2,7,6,-6,-5,7,12,-5,-15,0,4,15
1,6,6,-5,-5,6,13,-5,-15,0,4,15
-0,5,5,-4,-5,5,13,-4,-14,1,5,15
-1,5,5,-3,-5,5,13,-4,-14,1,5,15
-1,4,5,-3,-4,5,13,-4,-14,1,5,15
-1,4,5,-3,-4,4,13,-4,-14,1,5,15
-1,5,5,-3,-5,5,13,-3,-14,1,5,15
0,5,5,-4,-5,5,13,-4,-14,1,5,15
2,6,6,-6,-4,6,13,-4,-14,1,5,15
5,7,6,-8,-3,6,12,-4,-14,1,5,15
7,8,6,-9,-3,7,11,-4,-14,1,5,15
7,9,6,-10,-3,8,10,-4,-14,1,5,15
8,9,6,-10,-3,8,9,-5,-14,2,5,15
8,9,6,-10,-3,8,8,-6,-14,3,5,15
8,9,6,-11,-3,8,7,-6,-14,3,5,15
8,10,7,-11,-4,9,6,-7,-14,4,5,15
7,11,8,-11,-5,10,5,-7,-15,4,5,15
5,12,10,-11,-7,11,5,-8,-15,4,5,15
4,12,11,-12,-8,12,5,-8,-15,4,5,15
2,13,12,-12,-10,13,5,-8,-15,4,5,15
1,14,13,-12,-11,14,4,-8,-15,4,5,15
-0,14,14,-12,-12,14,4,-8,-15,4,5,15
-1,14,14,-12,-13,14,4,-8,-15,5,5,15
-1,14,14,-12,-13,14,4,-8,-15,5,5,15
-2,14,15,-11,-13,15,5,-8,-16,5,5,16
-4,14,15,-11,-14,15,5,-8,-17,5,5,16
-5,14,16,-10,-15,15,5,-8,-17,5,5,17
-7,13,16,-9,-16,15,5,-8,-18,4,5,17
-7,13,16,-9,-15,15,5,-8,-18,4,5,18
-6,13,15,-9,-15,14,5,-8,-18,3,5,18
-5,13,15,-10,-14,14,5,-8,-17,3,5,18
-3,13,14,-10,-13,14,6,-8,-17,2,5,17
-2,13,14,-11,-12,14,6,-8,-17,2,5,17
-1,13,14,-11,-12,14,6,-8,-18,2,5,16
-1,13,14,-11,-12,14,6,-8,-18,2,5,16
-1,13,13,-11,-11,13,6,-8,-18,2,5,15
-1,12,13,-10,-11,13,6,-8,-18,3,5,15
-1,12,12,-9,-10,12,6,-8,-18,3,5,15
-1,11,11,-9,-10,11,6,-8,-18,3,5,14
-1,10,10,-8,-9,10,6,-8,-18,4,5,14
-1,9,10,-8,-9,10,6,-8,-18,4,5,14
-1,9,10,-7,-8,10,6,-8,-18,4,5,14
-1,9,10,-7,-8,9,6,-8,-18,4,5,14
-1,9,9,-7,-8,9,6,-8,-18,4,5,14
-1,8,9,-7,-8,9,6,-8,-18,4,5,14
-1,8,9,-7,-8,8,6,-8,-18,3,5,14
-1,8,8,-6,-7,8,6,-8,-18,3,5,14
0,7,7,-6,-6,7,6,-9,-18,1,5,14
3,8,7,-7,-5,7,6,-9,-18,0,4,14
6,8,6,-9,-4,7,6,-9,-18,-0,3,13
11,9,5,-11,-1,7,6,-9,-18,-1,2,13
15,10,4,-13,1,7,6,-9,-18,-2,1,13
17,10,4,-14,2,7,5,-9,-19,-3,0,13
18,11,5,-15,2,8,5,-9,-19,-3,-1,14
19,12,5,-16,1,9,5,-9,-19,-3,-1,14
20,13,5,-17,2,9,5,-10,-19,-4,-2,14
23,13,5,-19,3,9,4,-11,-19,-5,-3,13
24,14,5,-20,3,9,4,-11,-19,-5,-4,11
25,13,4,-20,4,9,4,-10,-19,-5,-4,9
22,11,3,-16,4,7,3,-10,-19,-6,-5,8
16,7,1,-11,4,4,3,-10,-18,-8,-8,6
21,7,-1,-12,7,3,4,-10,-18,-9,-9,6
36,12,-2,-22,13,5,5,-5,-18,-10,-10,4
52,3,-15,-19,29,-6,6,-1,-15,-10,-10,0
54,1,-19,-18,32,-9,8,5,-9,-6,-9,0
59,1,-20,-19,35,-10,8,11,-1,-3,-7,3
72,0,-26,-23,44,-13,9,17,5,-0,-7,3
81,-3,-32,-23,52,-18,13,26,14,5,-4,5
83,-4,-34,-23,54,-19,20,35,20,6,-4,4
101,-1,-37,-32,62,-19,20,36,24,8,-4,4
101,-1,-38,-31,63,-20,20,37,29,10,-5,2
117,-1,-44,-36,72,-23,20,40,31,12,-2,2
141,3,-49,-47,84,-24,16,41,37,17,2,5
139,6,-45,-49,80,-20,5,31,37,22,8,9
163,12,-48,-62,90,-19,-8,27,39,29,15,16
194,20,-50,-80,102,-15,-9,31,49,42,25,23
212,25,-53,-90,109,-14,-20,33,61,58,37,31
237,38,-49,-109,113,-6,-27,31,72,79,50,43
274,56,-44,-138,121,6,-43,23,75,99,67,55
272,63,-36,-143,114,13,-62,7,89,122,88,68
315,71,-44,-164,133,14,-79,-4,102,155,114,86
315,76,-39,-168,129,19,-95,-26,109,184,137,101
346,81,-45,-183,143,19,-105,-35,126,222,162,117
343,85,-41,-185,139,22,-114,-49,133,255,186,133
355,90,-40,-193,142,25,-127,-74,126,280,207,143
357,99,-31,-202,135,35,-138,-91,127,313,230,163
372,104,-32,-212,141,37,-146,-100,134,342,252,178
372,111,-25,-217,135,43,-146,-105,129,359,267,189
359,121,-10,-223,118,57,-146,-110,123,379,292,207
357,129,-2,-228,111,65,-143,-105,124,403,312,224
357,138,8,-237,102,74,-139,-103,123,421,327,235
343,140,15,-234,93,79,-141,-112,102,419,329,238
339,144,20,-236,87,84,-145,-117,89,419,331,240
323,142,23,-229,79,84,-145,-122,75,416,333,245
306,142,30,-223,68,87,-140,-127,43,394,332,248
292,139,32,-217,62,87,-143,-142,2,347,321,245
281,132,29,-207,62,82,-145,-155,-35,292,299,235
259,120,25,-189,58,74,-140,-160,-75,202,251,210
237,108,22,-172,54,66,-134,-160,-106,143,219,191
214,94,16,-152,52,56,-126,-151,-118,105,193,174
199,85,12,-139,51,49,-114,-139,-115,90,178,163
194,77,6,-130,55,42,-106,-128,-113,75,159,150
181,64,-2,-115,57,32,-99,-121,-113,52,136,133
141,54,2,-93,41,28,-88,-111,-112,22,101,111
139,47,-3,-86,45,22,-79,-101,-112,-6,68,89
121,42,-2,-75,39,20,-72,-95,-112,-23,48,72
112,35,-6,-67,39,15,-66,-92,-112,-39,29,58
123,36,-9,-71,45,14,-62,-87,-111,-50,17,50
121,33,-11,-67,47,11,-58,-83,-110,-52,6,44
103,25,-12,-55,42,7,-55,-79,-109,-59,-5,35
99,24,-12,-52,40,6,-53,-76,-108,-64,-11,26
103,23,-15,-53,44,4,-50,-74,-109,-65,-12,23
105,21,-17,-52,47,2,-47,-67,-105,-62,-18,17
99,17,-19,-47,46,-1,-41,-58,-96,-62,-19,11
72,14,-12,-35,32,1,-31,-50,-89,-57,-23,9
23,13,5,-19,3,9,-22,-39,-76,-50,-21,4
16,9,3,-13,2,6,-14,-29,-64,-43,-24,5
-17,6,12,1,-16,9,-6,-19,-54,-38,-24,-2
-32,7,19,5,-26,13,-1,-13,-47,-32,-22,-2
-50,5,23,12,-35,14,3,-8,-43,-31,-18,4
-68,0,25,22,-42,13,6,-5,-41,-30,-18,2
-77,-4,24,29,-44,10,9,-2,-38,-31,-21,-3
-77,-4,24,29,-44,10,11,0,-35,-29,-21,-3
-90,-6,28,34,-51,11,15,4,-32,-25,-18,-4
-90,-6,28,34,-51,11,17,5,-31,-26,-19,-4
-103,-6,32,39,-59,13,18,7,-29,-25,-17,-2
-107,-7,33,40,-60,13,18,8,-28,-25,-17,-2
-107,-7,32,41,-60,12,18,8,-28,-26,-18,-2
-109,-8,32,42,-60,12,18,9,-27,-26,-18,-3
-112,-8,33,43,-62,13,18,9,-26,-26,-18,-3
-114,-8,34,44,-63,13,19,9,-26,-25,-19,-4
-120,-8,36,46,-67,14,20,9,-26,-25,-19,-5
-124,-7,38,47,-69,15,21,10,-24,-25,-19,-5
-123,-7,38,46,-69,16,22,11,-24,-25,-19,-5
-121,-7,37,46,-68,15,23,12,-23,-25,-19,-6
-121,-8,36,47,-68,14,23,12,-23,-25,-20,-6
-121,-8,36,47,-67,14,23,13,-23,-26,-20,-7
-121,-9,35,47,-67,14,23,13,-23,-26,-20,-7
-121,-9,35,48,-66,13,23,14,-23,-26,-20,-7
-121,-10,35,48,-66,13,23,14,-24,-26,-20,-7
-121,-10,34,48,-66,12,23,14,-26,-26,-20,-7
-121,-10,34,49,-66,12,23,14,-26,-27,-20,-7
-122,-11,34,49,-66,12,23,14,-26,-27,-20,-8
-123,-11,34,50,-66,12,23,15,-25,-27,-20,-9
-123,-11,34,50,-66,12,23,15,-24,-27,-20,-9
-122,-11,33,50,-65,11,24,15,-23,-27,-21,-10
-121,-12,32,50,-64,10,24,14,-23,-27,-21,-10
-119,-12,32,49,-63,10,24,14,-23,-28,-21,-10
-117,-12,31,49,-62,10,24,14,-22,-28,-21,-10
-115,-12,30,48,-61,9,24,13,-22,-28,-22,-10
-115,-12,30,48,-60,9,24,13,-22,-29,-23,-11
-114,-13,29,48,-60,8,24,13,-23,-29,-23,-11
-114,-13,29,49,-59,8,24,13,-23,-29,-24,-11
-114,-13,29,49,-59,8,24,14,-24,-30,-25,-11
-114,-13,29,49,-59,8,24,14,-24,-30,-25,-12
-113,-13,28,49,-58,7,24,14,-24,-30,-26,-12
-113,-13,28,49,-58,7,24,14,-23,-30,-26,-12
-112,-13,28,48,-57,7,23,14,-24,-30,-26,-12
-110,-13,27,47,-57,7,23,14,-24,-30,-26,-12
-108,-13,27,46,-56,7,22,14,-24,-31,-26,-12
-105,-12,27,45,-55,7,22,14,-25,-31,-26,-12
-104,-11,27,44,-54,8,21,15,-25,-31,-26,-12
-104,-11,27,44,-54,8,21,15,-25,-32,-26,-12
-103,-11,27,43,-54,8,21,15,-26,-32,-27,-12
-103,-11,27,43,-54,8,21,15,-26,-32,-27,-12
-102,-11,26,43,-53,8,21,15,-26,-33,-28,-13
-101,-11,26,43,-52,7,21,16,-26,-33,-28,-13
-99,-11,25,43,-51,7,21,16,-26,-33,-29,-14
-98,-12,24,43,-50,6,21,16,-26,-34,-31,-15
-97,-12,24,42,-50,6,21,16,-26,-34,-32,-16
-97,-12,23,42,-49,6,20,16,-25,-35,-32,-17
-97,-12,23,42,-49,6,20,16,-25,-35,-32,-17
-97,-12,23,42,-49,6,19,16,-25,-35,-32,-17
-97,-12,23,42,-49,6,19,17,-25,-36,-33,-18
-97,-12,23,42,-49,6,19,17,-26,-36,-33,-18
-97,-12,23,42,-49,6,19,17,-26,-36,-33,-18
-97,-12,23,42,-49,6,19,17,-27,-36,-33,-18
-96,-12,23,42,-49,6,19,17,-27,-37,-34,-18
-94,-12,23,41,-48,5,19,17,-28,-38,-34,-19
-92,-12,22,40,-47,5,19,17,-28,-39,-34,-19
-89,-12,21,40,-45,4,18,17,-28,-41,-34,-19
-87,-12,20,39,-43,4,18,17,-28,-41,-34,-19
-86,-13,19,39,-42,3,18,17,-28,-42,-35,-19
-85,-13,18,40,-41,2,18,17,-28,-42,-36,-19
-85,-14,18,40,-41,2,18,16,-28,-43,-37,-19
-85,-14,17,40,-40,1,18,16,-28,-43,-38,-19
-85,-15,16,41,-40,0,18,16,-28,-44,-38,-20
-85,-16,15,42,-39,-0,18,16,-28,-44,-39,-20
-85,-17,15,43,-38,-1,18,16,-28,-44,-39,-20
-85,-17,14,43,-37,-2,18,16,-28,-44,-40,-20
-84,-17,13,43,-37,-2,18,16,-28,-44,-40,-21
-83,-18,13,43,-36,-2,18,16,-28,-44,-40,-21
-81,-18,12,42,-35,-3,18,16,-28,-44,-40,-21
-80,-18,12,42,-34,-3,18,17,-28,-43,-40,-21
-78,-18,11,41,-33,-3,18,17,-28,-43,-40,-22
-77,-18,11,41,-32,-3,18,17,-28,-43,-40,-23
-77,-17,11,40,-32,-3,18,17,-28,-44,-41,-24
-76,-17,11,40,-32,-3,17,17,-28,-44,-41,-24
-74,-17,10,39,-31,-3,17,17,-28,-45,-41,-24
-72,-17,10,38,-30,-4,17,17,-28,-46,-41,-25
-70,-17,9,38,-29,-4,17,17,-28,-47,-41,-25
-69,-17,8,37,-28,-4,17,18,-28,-48,-42,-25
-68,-17,8,37,-28,-4,17,18,-28,-48,-42,-25
-68,-17,8,37,-28,-4,17,19,-28,-49,-42,-25
-69,-17,8,37,-28,-4,17,20,-28,-49,-42,-25
-69,-17,8,38,-28,-4,17,20,-28,-49,-42,-25
-70,-18,8,38,-28,-5,17,20,-28,-49,-43,-25
-70,-18,7,39,-28,-6,17,21,-28,-50,-43,-25
-70,-19,6,40,-27,-6,17,21,-28,-50,-43,-25
-69,-20,6,40,-26,-7,17,21,-28,-50,-43,-25
-67,-20,5,39,-25,-7,17,21,-28,-50,-43,-25
-65,-19,5,38,-24,-7,17,21,-28,-50,-43,-25
-63,-19,4,38,-23,-8,17,22,-28,-51,-43,-25
-61,-19,3,37,-21,-8,17,22,-28,-51,-44,-25
-59,-19,2,36,-20,-9,18,22,-27,-51,-44,-26
-56,-19,2,36,-19,-9,18,22,-26,-51,-45,-26
-54,-19,1,35,-17,-9,18,22,-26,-51,-46,-26
-53,-19,1,34,-17,-9,18,23,-25,-52,-47,-27
-54,-18,2,34,-18,-8,18,23,-25,-52,-47,-28
-54,-18,2,33,-19,-8,18,23,-25,-52,-47,-28
-54,-17,3,33,-19,-7,18,23,-25,-52,-48,-30
-54,-16,4,32,-20,-6,18,24,-25,-53,-48,-30
-54,-16,4,32,-20,-6,19,24,-25,-53,-48,-31
-55,-16,4,32,-20,-6,19,24,-24,-53,-48,-31
-56,-16,5,32,-21,-6,19,25,-24,-53,-48,-31
-56,-16,5,32,-21,-6,19,25,-24,-53,-49,-31
-54,-16,4,32,-20,-6,18,25,-24,-53,-49,-31
-52,-16,3,31,-19,-6,18,26,-24,-53,-49,-31
-50,-16,2,30,-17,-7,18,26,-24,-53,-49,-31
-48,-16,2,30,-16,-7,17,26,-24,-53,-49,-31
-48,-17,1,31,-15,-8,17,27,-24,-54,-49,-31
-48,-18,0,31,-14,-9,17,27,-24,-54,-49,-31
-48,-18,-0,32,-14,-10,16,27,-24,-54,-49,-31
-48,-19,-1,33,-14,-10,16,28,-24,-54,-50,-31
-47,-19,-2,32,-13,-11,15,28,-24,-54,-50,-31
-45,-19,-2,32,-12,-11,15,28,-23,-54,-50,-31
-44,-19,-3,32,-11,-11,15,29,-23,-55,-51,-32
-44,-19,-3,32,-11,-11,15,29,-23,-55,-51,-32
-43,-19,-3,31,-10,-11,15,29,-22,-55,-51,-32
-44,-19,-3,32,-11,-11,15,29,-22,-55,-51,-32
-45,-19,-3,32,-11,-11,15,30,-21,-55,-51,-32
-45,-19,-2,32,-12,-11,16,30,-21,-55,-52,-33
-46,-19,-2,32,-12,-11,16,31,-20,-55,-52,-33
-47,-19,-2,33,-13,-11,16,32,-20,-55,-52,-34
-48,-19,-2,33,-13,-11,17,33,-20,-55,-52,-35
-48,-19,-2,33,-13,-11,16,33,-21,-55,-52,-35
-48,-19,-2,33,-13,-11,16,33,-21,-54,-52,-35
-48,-19,-1,33,-14,-10,16,33,-21,-54,-52,-35
-49,-19,-1,33,-14,-10,15,33,-21,-54,-51,-35
-49,-19,-1,33,-14,-10,15,33,-21,-54,-51,-35
-47,-19,-1,32,-13,-10,15,33,-21,-54,-52,-35
-45,-19,-2,32,-12,-10,15,33,-21,-54,-52,-35
-43,-18,-2,30,-11,-10,15,33,-21,-53,-53,-35
-42,-18,-2,30,-11,-10,15,33,-21,-53,-53,-35
-43,-18,-2,30,-11,-10,15,33,-21,-53,-53,-35
-43,-17,-1,30,-12,-9,15,32,-22,-52,-53,-35
-43,-17,-1,29,-12,-9,15,32,-22,-52,-53,-34
-43,-17,-1,29,-13,-9,15,32,-22,-51,-53,-34
-43,-16,-0,29,-13,-9,15,31,-21,-51,-52,-35
-43,-16,-0,29,-13,-8,14,31,-20,-50,-52,-35
-43,-16,0,28,-13,-8,14,30,-20,-50,-52,-35
-43,-15,1,28,-14,-7,14,30,-20,-49,-51,-35
-43,-15,1,28,-14,-7,14,29,-20,-48,-50,-35
-43,-14,1,27,-14,-7,13,29,-20,-47,-49,-34
-43,-14,2,27,-15,-6,13,28,-20,-46,-49,-34
-43,-14,2,26,-15,-6,12,27,-21,-45,-48,-33
-43,-13,3,26,-15,-5,12,26,-21,-44,-47,-32
-42,-13,3,25,-15,-5,11,26,-21,-42,-46,-31
-41,-13,3,25,-15,-5,11,25,-22,-41,-45,-31
-41,-12,3,24,-15,-5,10,24,-22,-40,-44,-30
-41,-12,3,24,-15,-4,10,23,-22,-39,-42,-29
-40,-11,4,23,-15,-4,9,22,-21,-38,-40,-29
-39,-11,4,22,-15,-3,8,21,-21,-36,-38,-28
-39,-10,4,22,-15,-3,8,20,-20,-35,-37,-27
-38,-9,5,21,-15,-2,7,19,-21,-33,-35,-26
-37,-9,5,20,-15,-2,6,19,-21,-32,-34,-25
-36,-8,5,20,-15,-2,5,17,-21,-30,-33,-25
-35,-8,5,18,-15,-1,5,17,-21,-29,-32,-24
-34,-7,5,18,-15,-1,4,16,-22,-28,-30,-23
-34,-7,6,18,-15,-0,3,16,-22,-26,-29,-22
-33,-6,6,17,-15,0,2,15,-22,-24,-27,-21
-32,-5,6,15,-15,0,2,15,-23,-23,-26,-19
-30,-5,7,14,-15,1,1,14,-23,-21,-24,-19
-30,-4,7,13,-15,1,-0,12,-23,-20,-24,-18
-29,-4,7,13,-15,2,-1,11,-23,-19,-23,-18
-28,-3,7,12,-15,2,-2,10,-23,-18,-22,-17
-27,-2,8,11,-15,3,-3,9,-24,-17,-20,-16
-25,-2,8,10,-14,3,-3,8,-24,-16,-19,-15
-24,-1,8,9,-14,3,-4,7,-24,-14,-17,-14
-24,-1,8,9,-14,4,-5,6,-24,-13,-16,-13
-23,-0,8,8,-14,4,-5,5,-24,-12,-15,-12
-21,0,8,7,-13,4,-6,5,-23,-10,-13,-12
-20,0,8,6,-13,4,-7,4,-23,-9,-12,-11
-18,1,8,5,-12,4,-8,4,-23,-8,-10,-10
-16,1,7,5,-11,4,-8,3,-23,-7,-9,-9
-14,2,7,3,-10,4,-9,3,-24,-7,-9,-9
-13,2,7,3,-10,4,-10,2,-24,-6,-8,-8
-12,2,6,3,-9,4,-10,2,-24,-6,-8,-8
-12,2,6,3,-9,4,-10,2,-24,-6,-8,-8
-12,2,6,3,-9,4,-10,2,-24,-6,-8,-8
-12,2,6,3,-9,4,-10,2,-24,-6,-8,-8
-12,2,6,3,-9,4,-10,2,-24,-6,-8,-8
-3,3,4,-1,-5,3,-11,2,-23,-6,-6,-6
8,4,1,-6,1,3,-13,1,-22,-6,-4,-4
12,5,0,-8,3,3,-14,1,-22,-5,-3,-4
14,5,0,-9,4,2,-14,0,-22,-5,-3,-3
14,5,0,-9,4,2,-14,1,-22,-5,-3,-4
14,5,0,-9,4,2,-14,1,-22,-5,-4,-4
14,5,0,-9,4,2,-14,2,-22,-5,-4,-5
14,5,0,-9,4,2,-14,2,-22,-5,-5,-5
14,5,0,-9,4,2,-14,2,-21,-5,-5,-5
14,5,0,-9,4,2,-14,2,-20,-5,-5,-6
14,5,0,-9,4,2,-14,2,-20,-5,-5,-6
14,5,-0,-8,5,2,-14,3,-19,-5,-5,-6
14,3,-2,-7,6,1,-14,3,-18,-5,-5,-6
14,2,-3,-6,7,-1,-14,4,-17,-4,-5,-6
14,0,-5,-4,8,-2,-14,4,-17,-3,-5,-6
15,-1,-6,-4,10,-4,-14,5,-16,-3,-5,-6
17,-1,-7,-4,11,-4,-14,5,-15,-3,-5,-6
19,-1,-8,-4,13,-5,-14,6,-14,-3,-5,-6
21,-1,-9,-5,14,-5,-14,7,-14,-3,-5,-6
22,-1,-9,-5,15,-5,-14,7,-13,-2,-5,-6
23,-1,-9,-6,15,-5,-14,8,-13,-2,-5,-6
23,-1,-10,-6,15,-6,-14,9,-13,-1,-5,-6
23,-1,-10,-6,15,-6,-14,9,-13,-0,-5,-6
24,-1,-10,-6,16,-5,-14,10,-13,0,-5,-6
26,-0,-10,-7,16,-5,-14,10,-12,0,-5,-7
28,0,-10,-9,17,-5,-14,10,-11,0,-5,-7
30,1,-10,-10,17,-4,-14,10,-11,0,-5,-8
31,2,-10,-11,18,-4,-14,10,-10,0,-5,-8
32,2,-10,-11,18,-4,-14,11,-10,0,-6,-9
32,2,-10,-11,18,-4,-14,11,-10,0,-6,-9
32,2,-10,-11,18,-4,-14,12,-10,0,-7,-9
32,2,-10,-11,18,-4,-14,12,-10,0,-8,-9
32,2,-10,-11,18,-4,-14,12,-10,0,-8,-9
32,2,-10,-11,18,-4,-14,12,-10,0,-8,-9
32,2,-10,-11,18,-4,-14,12,-10,0,-8,-9
32,2,-10,-11,18,-4,-14,12,-10,0,-8,-9
32,1,-11,-11,19,-5,-14,12,-10,0,-8,-9
32,0,-11,-10,19,-6,-14,12,-10,0,-8,-9
32,-0,-12,-9,20,-6,-14,12,-10,0,-8,-9
32,-1,-12,-9,20,-7,-14,12,-10,0,-8,-9
32,-1,-13,-9,20,-7,-14,12,-10,0,-8,-9
32,-1,-13,-9,21,-7,-14,12,-10,0,-8,-9
32,-1,-13,-9,21,-7,-14,12,-10,0,-8,-9
32,-1,-13,-9,21,-7,-14,12,-10,0,-8,-9
32,-1,-13,-9,21,-7,-14,12,-10,-0,-8,-9
32,-1,-13,-9,21,-7,-14,12,-10,-1,-8,-9
32,-1,-13,-9,21,-7,-14,12,-10,-2,-8,-9
32,-1,-13,-9,21,-7,-14,12,-10,-2,-8,-9
32,-1,-13,-9,21,-7,-14,12,-10,-2,-8,-9
32,-1,-13,-9,21,-7,-14,12,-10,-3,-8,-9
32,-1,-13,-9,21,-7,-14,12,-10,-3,-8,-9
32,-1,-13,-9,21,-7,-14,12,-10,-3,-8,-9
32,-1,-13,-9,21,-7,-14,12,-10,-3,-8,-9
32,-1,-13,-9,21,-7,-14,12,-10,-3,-8,-9
32,-1,-13,-9,21,-7,-14,12,-10,-3,-8,-9
32,-1,-12,-9,20,-7,-14,12,-10,-3,-8,-9
32,-0,-12,-9,20,-6,-14,12,-10,-3,-8,-10
32,0,-11,-10,19,-6,-14,12,-10,-3,-8,-10
32,1,-10,-11,19,-5,-14,12,-10,-3,-8,-11
32,2,-10,-11,18,-4,-14,12,-10,-3,-8,-11
32,2,-10,-11,18,-4,-14,12,-10,-3,-8,-12
32,2,-10,-11,18,-4,-14,12,-10,-3,-8,-12
32,2,-10,-11,18,-4,-14,12,-10,-3,-8,-12
32,2,-10,-11,18,-4,-14,12,-10,-3,-8,-12
32,2,-10,-11,18,-4,-14,12,-10,-3,-8,-12
32,2,-10,-11,18,-4,-14,12,-10,-3,-8,-12
32,2,-10,-11,18,-4,-14,12,-10,-3,-8,-12
32,2,-10,-11,18,-4,-14,12,-10,-3,-8,-11
32,1,-11,-11,19,-5,-14,12,-11,-3,-8,-11
32,0,-11,-10,19,-6,-14,12,-11,-4,-8,-10
32,-0,-12,-9,20,-6,-14,12,-12,-5,-8,-9
32,-1,-13,-9,21,-7,-14,12,-13,-5,-8,-9
32,-2,-14,-8,21,-8,-14,12,-13,-5,-8,-9
32,-3,-14,-7,22,-9,-14,12,-13,-5,-8,-9
32,-4,-15,-7,23,-10,-14,12,-13,-5,-8,-9
32,-4,-16,-6,23,-10,-14,12,-13,-5,-8,-9
32,-4,-16,-6,23,-10,-14,12,-13,-5,-7,-9
32,-5,-16,-6,23,-11,-14,12,-13,-4,-6,-9
32,-5,-16,-6,23,-11,-14,12,-13,-3,-6,-9
32,-5,-16,-6,23,-11,-14,12,-13,-3,-5,-9
32,-5,-16,-6,23,-11,-14,12,-12,-3,-5,-9
32,-5,-16,-6,23,-11,-14,12,-11,-3,-5,-9
32,-5,-16,-6,23,-11,-14,12,-11,-3,-5,-9
32,-5,-16,-6,23,-11,-14,12,-10,-3,-5,-9
32,-5,-16,-6,23,-11,-14,12,-10,-3,-5,-9
32,-5,-16,-6,23,-11,-14,12,-10,-4,-5,-9
32,-5,-16,-6,23,-11,-14,12,-10,-5,-5,-9
32,-5,-16,-6,23,-11,-14,12,-10,-5,-5,-9
32,-5,-16,-6,23,-11,-14,12,-10,-5,-6,-10
32,-5,-16,-6,23,-11,-14,12,-10,-5,-6,-10
32,-5,-16,-6,23,-11,-14,12,-10,-5,-7,-11
32,-5,-16,-6,23,-11,-14,12,-10,-5,-8,-11
32,-5,-16,-6,23,-11,-14,12,-11,-5,-8,-12
32,-5,-16,-6,23,-11,-13,11,-11,-5,-8,-12
32,-5,-16,-6,23,-11,-12,11,-12,-5,-8,-12
32,-5,-16,-6,23,-11,-12,10,-13,-5,-8,-12
32,-5,-16,-6,23,-11,-12,10,-13,-5,-8,-12
32,-5,-16,-6,23,-11,-12,10,-13,-5,-8,-12
32,-5,-16,-6,23,-11,-12,10,-13,-5,-8,-12
32,-5,-16,-6,23,-11,-12,10,-13,-5,-8,-11
32,-5,-16,-6,23,-11,-12,10,-13,-5,-8,-11
32,-5,-16,-6,23,-11,-12,10,-13,-5,-8,-10
32,-5,-16,-6,23,-11,-12,10,-13,-5,-8,-9
32,-5,-16,-6,23,-11,-12,10,-13,-5,-8,-9
32,-5,-16,-6,23,-11,-12,11,-12,-5,-7,-9
32,-5,-16,-6,23,-11,-12,11,-11,-4,-6,-9
32,-5,-16,-6,23,-11,-12,12,-11,-3,-6,-9
31,-5,-16,-5,23,-11,-12,12,-10,-3,-5,-9
29,-6,-16,-4,23,-11,-12,12,-10,-3,-5,-9
28,-6,-16,-3,22,-11,-12,12,-10,-3,-5,-9
25,-7,-16,-1,21,-12,-12,12,-10,-3,-5,-9
24,-7,-16,-1,21,-12,-12,12,-10,-3,-5,-9
24,-8,-16,-0,21,-12,-12,12,-10,-3,-5,-9
23,-8,-16,0,21,-12,-12,11,-10,-3,-5,-9
23,-8,-16,0,21,-12,-12,11,-10,-3,-5,-9
23,-7,-16,-0,20,-12,-12,10,-10,-3,-5,-9
23,-7,-15,-1,20,-11,-12,10,-10,-3,-6,-9
23,-6,-14,-1,19,-11,-12,10,-10,-4,-6,-9
23,-5,-14,-2,19,-10,-12,10,-10,-5,-7,-9
24,-5,-13,-3,19,-9,-12,10,-10,-5,-8,-9
26,-5,-14,-4,20,-10,-12,10,-10,-5,-8,-10
28,-5,-14,-4,21,-10,-12,10,-10,-5,-8,-10
30,-5,-15,-5,22,-10,-12,10,-10,-5,-8,-11
31,-5,-16,-5,23,-10,-12,10,-10,-5,-8,-11
32,-5,-16,-6,23,-10,-12,10,-10,-5,-8,-12
32,-5,-16,-6,23,-11,-12,10,-10,-5,-8,-12
32,-5,-16,-6,23,-11,-12,10,-10,-5,-8,-12
32,-5,-16,-6,23,-11,-12,10,-10,-5,-8,-11
32,-5,-16,-6,23,-11,-12,10,-10,-5,-8,-11
32,-5,-16,-6,23,-11,-12,10,-10,-5,-8,-10
32,-5,-16,-6,23,-11,-12,10,-10,-5,-8,-9
32,-5,-16,-6,23,-11,-12,10,-10,-5,-8,-9
32,-5,-16,-6,23,-11,-12,10,-10,-5,-8,-9
32,-5,-16,-6,23,-11,-12,10,-10,-4,-8,-9
32,-5,-16,-6,23,-11,-12,10,-10,-3,-8,-9
31,-5,-16,-5,23,-10,-12,10,-10,-3,-8,-9
29,-5,-15,-5,22,-10,-12,10,-10,-3,-8,-9
28,-5,-14,-4,21,-10,-12,10,-10,-3,-8,-9
25,-5,-14,-4,19,-9,-12,10,-10,-3,-8,-9
24,-5,-13,-3,19,-9,-12,10,-10,-3,-8,-9
24,-5,-13,-3,18,-9,-12,10,-10,-3,-8,-9
23,-5,-13,-3,18,-9,-12,10,-10,-3,-8,-9
23,-5,-13,-3,18,-9,-12,10,-10,-3,-8,-9
23,-5,-13,-3,18,-9,-12,10,-10,-3,-8,-9
23,-5,-13,-3,18,-9,-12,11,-9,-3,-8,-9
23,-5,-13,-3,18,-9,-12,11,-8,-4,-8,-9
23,-5,-13,-3,18,-9,-12,12,-8,-5,-8,-9
23,-5,-13,-3,18,-9,-12,12,-7,-5,-8,-9
23,-5,-13,-3,18,-9,-12,12,-7,-5,-8,-9
23,-5,-13,-3,18,-9,-12,12,-7,-5,-8,-9
23,-5,-13,-3,18,-9,-12,12,-7,-5,-8,-9
23,-5,-13,-3,18,-9,-12,12,-7,-5,-8,-9
23,-5,-13,-3,18,-9,-12,12,-7,-5,-8,-9
23,-5,-13,-3,18,-9,-12,12,-7,-5,-8,-9
23,-5,-13,-3,18,-9,-12,12,-7,-5,-8,-9
23,-5,-13,-3,18,-9,-12,12,-7,-5,-8,-9
23,-5,-13,-3,18,-9,-12,12,-7,-5,-8,-9
23,-5,-13,-3,18,-9,-12,12,-7,-5,-8,-9
23,-5,-13,-3,18,-9,-12,12,-7,-5,-8,-9
23,-5,-13,-3,18,-9,-12,12,-7,-5,-8,-9
23,-5,-13,-3,18,-9,-12,12,-6,-5,-8,-9
23,-5,-13,-3,18,-9,-12,12,-5,-5,-8,-9
23,-5,-13,-3,18,-9,-12,12,-5,-5,-8,-9
23,-5,-13,-3,18,-9,-12,12,-4,-5,-8,-9
23,-5,-13,-3,18,-9,-11,12,-4,-5,-8,-9
23,-5,-13,-3,18,-9,-11,12,-4,-5,-8,-9
23,-5,-13,-3,18,-9,-10,12,-4,-5,-8,-9
23,-5,-13,-3,18,-9,-10,12,-4,-5,-8,-9
23,-5,-13,-3,18,-9,-9,12,-4,-5,-8,-10
23,-5,-13,-3,18,-9,-9,12,-4,-5,-8,-10
23,-5,-13,-3,18,-9,-9,12,-4,-5,-8,-11
23,-5,-13,-3,18,-9,-9,12,-4,-5,-8,-11
23,-5,-13,-3,18,-9,-9,12,-4,-5,-8,-12
23,-5,-13,-3,18,-9,-9,12,-4,-5,-8,-12
23,-5,-13,-3,18,-9,-9,12,-4,-5,-8,-12
23,-5,-13,-3,18,-9,-9,12,-4,-5,-8,-11
23,-5,-13,-3,18,-9,-9,12,-4,-5,-8,-11
23,-5,-13,-3,18,-9,-9,12,-4,-5,-8,-10
23,-5,-13,-3,18,-9,-9,12,-4,-5,-8,-9
23,-5,-13,-3,18,-9,-9,12,-4,-5,-8,-9
23,-5,-13,-3,18,-9,-9,12,-4,-5,-8,-9
23,-5,-13,-3,18,-9,-8,12,-4,-4,-8,-9
23,-5,-13,-3,18,-9,-7,12,-4,-3,-8,-9
23,-5,-13,-3,18,-9,-7,13,-4,-3,-8,-9
23,-5,-13,-3,18,-9,-7,13,-4,-2,-7,-9
23,-5,-13,-3,18,-9,-7,14,-4,-1,-6,-9
23,-5,-13,-3,18,-9,-7,14,-4,-0,-6,-9
23,-5,-13,-3,18,-9,-7,15,-4,0,-5,-9
23,-5,-13,-3,18,-9,-7,15,-4,0,-5,-9
23,-5,-13,-3,18,-9,-7,15,-4,0,-5,-9
23,-5,-13,-3,18,-9,-7,15,-4,0,-5,-9
23,-5,-13,-3,18,-9,-7,15,-4,0,-5,-9
23,-5,-13,-3,18,-9,-7,15,-4,0,-5,-9
23,-5,-13,-3,18,-9,-7,15,-4,0,-5,-9
23,-5,-13,-3,18,-9,-7,15,-4,0,-5,-9
23,-5,-13,-3,18,-9,-7,15,-4,0,-5,-9
23,-5,-13,-3,18,-9,-7,15,-4,0,-5,-9
23,-5,-13,-3,18,-9,-7,15,-4,0,-5,-9
23,-5,-13,-3,18,-9,-7,15,-4,0,-5,-9
22,-5,-12,-3,17,-9,-7,15,-4,0,-5,-9
20,-5,-12,-2,16,-8,-7,15,-4,0,-6,-9
19,-5,-11,-1,15,-8,-7,15,-4,0,-6,-9
16,-5,-10,-1,14,-8,-7,15,-4,0,-7,-9
15,-5,-10,-0,13,-7,-7,15,-4,0,-8,-9
15,-5,-10,-0,13,-7,-7,15,-4,0,-8,-9
14,-5,-10,0,13,-7,-7,15,-4,0,-8,-9
14,-5,-10,0,13,-7,-7,15,-4,0,-8,-9
14,-5,-10,0,13,-7,-7,15,-4,0,-8,-9
14,-5,-10,0,13,-7,-7,15,-4,0,-8,-9
14,-5,-10,0,13,-7,-7,15,-4,0,-8,-9
14,-5,-10,0,13,-7,-7,15,-4,0,-8,-9
14,-5,-10,0,13,-7,-7,15,-4,0,-8,-9
14,-5,-10,0,13,-7,-7,15,-4,0,-8,-9
14,-5,-10,0,13,-7,-7,15,-4,0,-8,-9
14,-5,-10,0,13,-7,-7,15,-4,0,-8,-9
15,-5,-10,-0,13,-7,-7,15,-4,1,-8,-9
17,-5,-11,-1,14,-8,-7,16,-4,1,-7,-9
19,-5,-11,-1,15,-8,-7,16,-4,2,-6,-9
21,-5,-12,-2,17,-8,-7,17,-4,3,-6,-9
22,-5,-12,-3,17,-9,-7,17,-4,3,-5,-9
23,-5,-13,-3,18,-9,-7,17,-4,3,-5,-9
23,-5,-13,-3,18,-9,-7,17,-4,3,-5,-9
23,-5,-13,-3,18,-9,-7,17,-4,3,-5,-9
22,-5,-12,-3,17,-9,-6,17,-4,3,-5,-9
20,-5,-12,-2,16,-8,-6,17,-3,3,-5,-9
19,-5,-11,-1,15,-8,-5,17,-3,3,-5,-9
16,-5,-10,-1,14,-8,-5,17,-2,3,-5,-9
15,-5,-10,-0,13,-7,-4,17,-1,3,-5,-9
15,-5,-10,-0,13,-7,-4,17,-1,2,-5,-9
14,-5,-10,0,13,-7,-4,17,-1,2,-5,-9
14,-5,-10,0,13,-7,-4,17,-1,1,-5,-9
14,-5,-10,0,13,-7,-4,17,-1,1,-5,-9
14,-5,-10,0,13,-7,-4,17,-1,0,-5,-9
14,-5,-10,0,13,-7,-4,16,-1,0,-5,-9
14,-5,-10,0,13,-7,-4,16,-1,0,-5,-9
14,-5,-10,0,13,-7,-4,15,-1,0,-5,-9
14,-5,-10,0,13,-7,-4,15,-1,0,-5,-9
14,-5,-10,0,13,-7,-4,15,-1,0,-5,-9
14,-5,-10,0,13,-7,-4,15,-1,0,-5,-9
14,-5,-10,0,13,-7,-4,15,-1,0,-5,-9
14,-5,-10,0,13,-7,-3,15,-1,0,-5,-9
14,-5,-10,0,13,-7,-3,15,-1,0,-5,-9
14,-5,-10,0,13,-7,-2,15,-1,0,-5,-9
14,-5,-10,0,13,-7,-2,15,-1,0,-5,-9
14,-5,-10,0,13,-7,-1,15,-1,0,-5,-9
14,-5,-10,0,13,-7,-1,15,-1,0,-5,-9
14,-5,-10,0,13,-7,0,15,-1,0,-5,-9
14,-5,-10,0,13,-7,1,15,-1,1,-5,-9
14,-5,-10,0,13,-7,1,14,-1,1,-5,-9
14,-5,-10,0,13,-7,1,14,-1,2,-5,-9
14,-5,-10,0,13,-7,1,13,-1,3,-5,-9
14,-5,-10,0,13,-7,1,13,-1,3,-5,-9
14,-5,-10,0,13,-7,2,13,-1,3,-5,-9
14,-5,-10,0,13,-7,2,12,-1,3,-5,-9
14,-5,-10,0,13,-7,3,12,-1,3,-5,-9
14,-5,-10,0,13,-7,3,12,-1,3,-5,-9
14,-5,-10,0,13,-7,3,12,-1,3,-5,-9
14,-5,-10,0,13,-7,3,12,-1,3,-5,-9
14,-5,-10,0,13,-7,3,12,-1,3,-5,-9
14,-5,-10,0,13,-7,4,12,-1,3,-5,-9
14,-5,-10,0,13,-7,4,12,-1,3,-5,-9
14,-5,-10,0,13,-7,5,12,-1,3,-5,-9
14,-5,-10,0,13,-7,5,12,-1,3,-5,-9
14,-5,-10,0,13,-7,6,12,-1,3,-5,-9
14,-5,-10,0,13,-7,6,12,-1,3,-5,-9
14,-5,-10,0,13,-7,6,12,-1,3,-5,-9
14,-5,-10,0,13,-7,6,12,-1,3,-5,-9
14,-5,-10,0,13,-7,6,12,-1,3,-5,-9
14,-5,-10,0,13,-7,6,12,-1,3,-5,-10
14,-5,-10,0,13,-7,6,11,-1,3,-5,-10
14,-5,-10,0,13,-7,6,11,-1,3,-5,-11
14,-5,-10,0,13,-7,6,10,-1,3,-5,-11
14,-5,-10,0,13,-7,7,10,-1,3,-5,-12
14,-5,-10,0,13,-7,7,10,-1,3,-5,-12
14,-5,-10,0,13,-7,8,10,-1,3,-5,-12
14,-5,-10,0,13,-7,8,10,-1,3,-5,-12
14,-5,-10,0,13,-7,8,10,-1,3,-5,-12
14,-5,-10,0,13,-7,8,10,-1,3,-5,-12
14,-5,-10,0,13,-7,8,10,-1,3,-5,-12
14,-5,-10,0,13,-7,8,10,-1,3,-5,-11
14,-5,-10,0,13,-7,8,10,-1,3,-5,-11
14,-5,-10,0,13,-7,8,10,-1,3,-5,-10
14,-5,-10,0,13,-7,8,10,-1,3,-5,-9
14,-5,-10,0,13,-7,8,10,-1,3,-5,-9
14,-5,-10,0,13,-7,8,10,-1,3,-5,-9
14,-5,-10,0,13,-7,8,10,-1,3,-5,-9
14,-5,-10,0,13,-7,8,10,-1,3,-5,-9
14,-5,-10,0,13,-7,9,10,-1,3,-5,-9
14,-5,-10,0,13,-7,9,10,-1,3,-5,-9
14,-5,-10,0,13,-7,10,10,-1,3,-5,-9
14,-5,-10,0,13,-7,10,10,-1,3,-5,-9
14,-5,-10,0,13,-7,11,10,-1,3,-5,-9
14,-5,-10,0,13,-7,11,10,-1,3,-4,-9
14,-5,-10,0,13,-7,11,10,-1,3,-3,-9
14,-5,-10,0,13,-7,11,10,-1,3,-3,-9
15,-5,-10,-0,13,-7,11,10,-1,3,-2,-9
17,-5,-11,-1,14,-8,11,10,-1,3,-2,-9
19,-5,-11,-1,15,-8,11,10,-1,3,-2,-9
21,-5,-12,-2,17,-8,11,10,-1,3,-2,-9
22,-4,-12,-3,17,-8,11,10,-1,3,-2,-9
23,-4,-12,-4,17,-8,12,10,-2,3,-2,-9
23,-3,-11,-4,17,-7,12,10,-3,3,-2,-9
23,-2,-10,-5,16,-6,13,10,-3,3,-2,-9
23,-2,-10,-5,16,-6,13,10,-4,3,-2,-9
23,-1,-10,-6,15,-6,13,10,-4,3,-2,-9
23,-1,-10,-6,15,-6,13,10,-4,3,-2,-9
23,-1,-10,-6,15,-6,13,10,-4,3,-2,-9
23,-1,-9,-6,15,-5,13,10,-4,3,-2,-9
23,-0,-9,-7,14,-5,13,10,-4,3,-2,-9
23,0,-8,-7,14,-4,13,10,-4,3,-2,-9
23,1,-7,-8,13,-3,13,10,-4,3,-2,-9
23,2,-7,-8,13,-3,13,10,-4,3,-2,-9
23,2,-6,-9,13,-2,13,10,-4,3,-2,-9
23,2,-6,-9,13,-2,13,10,-4,3,-2,-9
23,2,-6,-9,13,-2,13,10,-4,3,-2,-9
23,2,-6,-9,13,-2,13,10,-4,3,-2,-9
23,2,-6,-9,13,-2,13,10,-4,3,-2,-9
23,2,-6,-9,13,-2,13,10,-4,3,-2,-9
23,2,-6,-9,13,-2,13,10,-4,3,-2,-9
23,2,-6,-9,13,-2,13,10,-4,3,-2,-9
23,2,-6,-9,13,-2,13,10,-4,3,-2,-9
23,2,-6,-9,13,-2,13,10,-4,3,-2,-9
23,2,-6,-9,13,-2,13,10,-4,3,-2,-9
23,2,-6,-9,13,-2,13,10,-4,3,-2,-9
23,2,-6,-9,13,-2,13,10,-4,3,-2,-9
21,1,-6,-7,12,-2,13,8,-5,2,-1,-7
18,1,-6,-6,10,-3,13,6,-7,0,-1,-6
17,0,-6,-5,10,-3,13,5,-7,0,-1,-5
16,0,-6,-5,10,-3,13,5,-8,-0,-0,-5
16,0,-6,-5,10,-3,13,5,-8,-0,-0,-5
16,0,-6,-5,10,-3,14,5,-8,-0,0,-5
16,0,-6,-5,10,-3,14,5,-8,-0,1,-5
16,0,-6,-5,10,-3,14,5,-8,-0,1,-5
16,0,-6,-5,10,-3,14,5,-8,-0,2,-5
16,0,-6,-5,10,-3,14,5,-7,-0,1,-5
16,1,-5,-5,10,-2,14,5,-7,-0,1,-5
16,1,-5,-6,9,-2,14,5,-7,-0,1,-6
16,1,-5,-6,9,-2,14,5,-7,-0,1,-7
16,2,-4,-6,8,-1,14,5,-7,-0,1,-8
16,2,-4,-7,8,-1,14,5,-7,-0,1,-8
17,3,-3,-8,8,-0,14,5,-8,0,1,-9
18,4,-2,-9,8,1,14,4,-8,0,1,-9
19,5,-2,-10,7,2,14,4,-9,0,1,-9
19,6,-1,-10,7,2,14,3,-9,0,1,-9
19,6,-1,-11,7,2,14,3,-9,0,1,-9
19,6,-1,-11,6,2,14,3,-9,0,1,-9
18,6,-0,-10,6,3,14,3,-9,0,1,-9
17,6,-0,-10,5,3,14,3,-9,0,1,-9
16,6,0,-10,5,3,14,2,-9,0,1,-9
16,6,0,-10,5,3,14,2,-8,0,1,-9
16,6,0,-10,5,3,14,2,-8,0,1,-9
16,6,0,-10,5,3,14,1,-8,0,1,-9
17,6,-0,-10,5,3,15,1,-8,0,1,-9
18,6,-1,-11,6,2,15,1,-8,0,1,-8
19,6,-1,-11,6,2,16,1,-8,0,1,-8
19,6,-1,-11,6,2,16,1,-8,0,1,-8
19,6,-1,-11,6,2,17,0,-8,0,1,-8
19,6,-1,-11,6,2,17,-0,-8,0,1,-8
19,6,-1,-11,6,2,17,-1,-8,0,1,-8
19,6,-1,-11,6,2,17,-1,-8,0,1,-8
19,6,-1,-11,6,2,17,-1,-8,0,1,-8
18,6,-0,-10,6,3,16,-2,-7,0,1,-8
17,6,-0,-10,5,3,16,-2,-7,0,1,-8
16,6,0,-10,5,3,16,-2,-7,1,1,-8
16,6,0,-10,5,3,16,-3,-7,2,1,-8
16,6,0,-10,5,3,16,-3,-7,3,2,-8
16,6,0,-10,5,3,16,-4,-7,3,1,-8
16,6,0,-10,5,3,16,-4,-7,4,1,-8
16,6,0,-10,5,3,16,-4,-7,4,1,-8
16,6,0,-10,5,3,15,-5,-7,4,1,-8
16,6,0,-10,5,3,15,-5,-6,4,1,-8
16,6,0,-10,5,3,16,-5,-6,4,1,-9
16,6,0,-10,5,3,16,-5,-5,4,1,-9
16,6,0,-10,5,3,17,-5,-5,4,1,-9
16,6,0,-10,5,3,17,-6,-4,4,1,-8
16,6,0,-10,5,3,18,-6,-4,4,1,-8
16,6,0,-10,5,3,18,-6,-4,4,1,-8
16,6,0,-10,5,3,18,-6,-3,4,1,-8
16,6,0,-10,5,3,18,-6,-3,4,1,-8
16,6,0,-10,5,3,18,-7,-3,4,1,-8
16,6,0,-10,5,3,18,-7,-3,4,1,-8
16,6,0,-10,5,3,18,-8,-3,4,1,-9
16,6,0,-10,5,3,18,-8,-3,4,1,-9
16,6,0,-10,5,3,18,-9,-3,4,1,-9
17,6,-0,-10,5,3,18,-9,-3,4,1,-8
18,6,-1,-11,6,2,18,-9,-3,4,1,-8
19,6,-1,-11,6,2,18,-10,-3,4,1,-8
19,6,-1,-11,6,2,18,-10,-3,4,1,-8
19,6,-1,-11,6,2,18,-10,-3,4,1,-8
19,6,-1,-11,6,2,18,-10,-3,4,2,-8
19,6,-1,-11,6,2,18,-10,-3,4,2,-9
19,6,-1,-11,6,2,18,-9,-3,4,2,-9
18,6,-0,-10,6,3,18,-9,-3,5,2,-9
17,6,-0,-10,5,3,19,-9,-3,5,2,-9
16,6,0,-10,5,3,19,-9,-3,5,2,-9
16,6,0,-10,5,3,20,-9,-3,5,2,-9
16,6,0,-10,5,3,20,-10,-3,5,1,-9
16,6,0,-10,5,3,20,-10,-3,5,1,-9
17,6,0,-11,5,3,21,-11,-3,5,1,-9
18,6,-0,-11,6,3,21,-11,-3,5,1,-9
19,6,-1,-11,7,2,21,-11,-3,5,1,-9
19,5,-2,-10,7,2,21,-12,-3,5,1,-9
19,4,-2,-9,8,1,21,-12,-3,5,1,-9
19,4,-3,-9,8,0,21,-12,-3,5,1,-9
19,4,-3,-9,8,0,21,-12,-4,5,1,-9
19,3,-3,-9,8,0,21,-11,-4,5,0,-9
19,3,-3,-9,8,0,21,-11,-4,5,0,-9
19,3,-3,-9,8,0,21,-11,-4,5,0,-9
19,3,-3,-9,8,0,21,-11,-4,5,0,-9
20,3,-4,-9,9,-0,21,-11,-4,5,0,-9
20,3,-4,-9,10,-0,21,-11,-5,5,0,-9
21,3,-5,-9,10,-1,21,-11,-4,5,0,-9
21,2,-6,-8,11,-2,21,-11,-4,5,0,-9
21,1,-6,-7,12,-3,21,-11,-3,5,0,-9
21,0,-7,-7,13,-3,21,-10,-3,5,0,-9
21,-0,-8,-6,13,-4,21,-10,-2,5,1,-9
21,-0,-8,-6,13,-4,21,-10,-1,5,1,-9
21,-0,-8,-6,13,-4,21,-10,-1,5,1,-9
21,-0,-8,-6,13,-4,22,-10,-1,5,1,-9
21,-0,-8,-6,13,-4,22,-10,-1,5,1,-9
21,-0,-8,-6,13,-4,21,-10,-2,5,1,-9
20,-0,-8,-5,13,-4,21,-11,-3,5,1,-9
19,-0,-7,-5,12,-4,20,-12,-4,5,1,-9
19,-0,-7,-5,12,-4,19,-12,-5,5,1,-9
19,-0,-7,-5,12,-4,19,-12,-5,5,1,-9
19,-0,-7,-5,12,-4,18,-12,-5,5,1,-9
20,-0,-7,-5,12,-4,17,-12,-5,5,1,-9
20,-0,-8,-6,13,-4,16,-13,-6,5,1,-9
21,-0,-8,-6,13,-4,16,-13,-7,5,1,-9
21,-1,-8,-5,13,-5,16,-13,-8,5,1,-9
21,-1,-9,-5,14,-5,15,-13,-9,4,1,-9
22,-1,-9,-5,14,-5,15,-14,-10,4,1,-9
24,-1,-10,-6,16,-6,15,-14,-10,4,1,-8
25,-1,-10,-6,16,-6,15,-14,-11,4,1,-7
25,-1,-10,-7,17,-6,15,-14,-11,4,1,-6
26,-1,-11,-7,17,-6,15,-14,-10,4,1,-6
27,-1,-11,-7,18,-6,15,-14,-10,4,1,-6
28,-1,-11,-7,18,-6,15,-14,-9,4,1,-6
28,-1,-11,-7,18,-6,16,-13,-8,4,1,-6
28,-1,-11,-7,18,-6,16,-13,-8,4,1,-6
28,-0,-10,-8,17,-5,17,-13,-7,5,1,-6
28,0,-10,-9,17,-5,17,-12,-6,5,1,-6
28,1,-9,-9,16,-4,18,-12,-5,5,1,-6
28,2,-8,-10,16,-3,19,-11,-4,6,1,-6
28,2,-8,-10,16,-3,19,-10,-4,6,1,-6
28,1,-9,-9,16,-4,20,-10,-3,7,1,-6
27,1,-8,-9,15,-4,20,-10,-3,8,1,-6
26,1,-8,-9,15,-4,21,-9,-3,9,2,-6
25,1,-8,-9,14,-3,21,-9,-3,10,2,-6
25,1,-8,-9,14,-3,21,-9,-3,10,2,-6
25,1,-8,-9,14,-3,21,-9,-3,10,2,-6
25,2,-7,-9,14,-3,21,-8,-2,10,2,-6
25,3,-6,-10,13,-2,20,-9,-2,10,2,-6
26,4,-6,-11,13,-1,20,-9,-2,10,2,-6
27,5,-5,-13,12,0,19,-9,-2,10,2,-6
27,6,-4,-13,11,1,18,-9,-2,10,2,-6
26,6,-4,-13,11,1,17,-9,-3,10,2,-6
25,6,-3,-13,10,1,16,-9,-3,10,2,-6
25,6,-3,-13,10,1,15,-9,-3,10,2,-6
26,6,-3,-13,11,1,14,-10,-3,10,2,-6
27,7,-3,-14,11,1,13,-11,-3,10,2,-6
28,7,-3,-14,11,2,12,-11,-3,10,2,-6
28,7,-3,-14,11,2,11,-12,-3,10,2,-6
27,6,-3,-14,11,1,10,-13,-3,10,2,-6
25,6,-3,-13,10,1,10,-13,-3,10,3,-6
22,6,-2,-12,9,2,10,-13,-3,10,3,-6
19,5,-2,-10,7,1,9,-13,-3,10,4,-6
17,5,-2,-9,7,1,9,-13,-3,10,5,-6
17,4,-2,-9,7,1,10,-13,-3,11,5,-6
16,4,-1,-8,6,1,10,-13,-3,11,5,-6
14,4,-1,-8,5,2,10,-13,-3,11,5,-6
12,4,-0,-7,4,2,10,-13,-3,11,5,-6
10,4,0,-6,3,2,9,-13,-3,11,4,-6
8,3,0,-5,2,2,9,-13,-3,11,4,-6
7,3,1,-5,1,2,8,-13,-3,11,3,-6
6,3,1,-5,1,2,8,-13,-3,10,3,-6
6,3,1,-5,1,2,8,-13,-3,10,3,-6
7,3,1,-5,1,2,9,-13,-3,9,2,-6
8,3,1,-5,2,2,9,-13,-3,8,2,-6
8,3,0,-5,2,2,9,-13,-3,8,2,-6
8,2,-0,-4,2,1,9,-14,-3,8,2,-6
8,2,-1,-3,3,0,9,-14,-3,8,2,-6
8,1,-1,-3,4,-0,9,-15,-3,7,2,-7
8,1,-2,-3,4,-1,9,-16,-3,7,2,-7
8,0,-2,-2,4,-1,8,-16,-3,7,2,-7
8,-0,-3,-2,5,-2,8,-16,-3,7,2,-7
8,-0,-3,-1,5,-2,7,-16,-3,7,2,-7
8,-0,-3,-1,5,-2,7,-16,-3,7,2,-7
8,-1,-3,-1,5,-2,7,-16,-3,8,2,-7
8,-1,-4,-1,5,-2,6,-16,-3,8,2,-7
8,-1,-4,-1,6,-3,6,-16,-3,8,2,-7
8,-2,-5,-0,6,-3,6,-16,-3,8,2,-7
8,-2,-5,0,7,-4,6,-16,-3,7,2,-7
7,-3,-5,1,6,-4,5,-16,-3,7,2,-7
6,-3,-5,1,6,-4,4,-17,-3,7,2,-8
6,-3,-5,1,6,-4,4,-17,-3,7,2,-8
8,-3,-6,1,7,-4,3,-17,-3,7,2,-8
9,-3,-6,-0,8,-4,4,-16,-2,7,2,-8
10,-2,-5,-1,7,-4,4,-16,-1,7,2,-7
10,-1,-4,-2,7,-2,4,-15,1,8,3,-7
11,0,-3,-3,6,-1,5,-15,1,8,3,-7
14,2,-3,-6,7,-0,4,-16,2,7,3,-7
16,3,-2,-7,7,0,4,-16,2,6,2,-7
16,3,-2,-8,7,0,3,-15,2,7,1,-7
13,2,-3,-6,6,-0,3,-15,2,7,-1,-8
8,0,-2,-2,4,-1,3,-15,3,7,-2,-9
12,0,-4,-3,7,-2,4,-15,3,5,-1,-10
1,-1,-2,1,2,-2,5,-15,3,5,-1,-11
8,-3,-6,1,7,-4,6,-11,6,5,-1,-12
10,-6,-9,2,11,-7,5,-5,12,8,-1,-12
5,-9,-11,7,11,-10,5,1,20,15,2,-12
10,-10,-13,6,14,-12,6,7,26,17,2,-13
28,-13,-23,3,28,-18,6,14,34,16,2,-13
30,-14,-24,3,30,-19,12,23,41,18,2,-14
30,-14,-24,3,30,-19,15,26,45,19,2,-14
30,-18,-28,7,33,-24,15,27,50,22,4,-10
36,-18,-31,4,37,-25,15,29,54,27,7,-7
61,-14,-36,-7,49,-25,16,33,63,35,11,-4
85,-10,-41,-18,61,-26,5,26,67,39,17,0
92,-5,-38,-25,60,-22,-8,22,69,47,24,3
114,4,-37,-40,66,-17,-15,24,73,57,31,11
141,8,-43,-52,79,-18,-22,28,91,73,43,19
165,21,-39,-72,83,-9,-30,26,99,88,53,28
168,30,-31,-80,77,-0,-38,23,108,108,70,40
192,43,-27,-100,81,8,-54,10,115,122,82,50
217,48,-31,-112,92,9,-72,4,129,155,108,67
234,53,-32,-122,99,10,-85,-13,135,187,134,86
257,59,-35,-134,108,12,-92,-22,147,225,159,102
272,62,-37,-142,115,12,-99,-31,154,261,183,117
274,70,-30,-150,109,20,-109,-51,146,294,205,134
268,80,-18,-157,97,31,-120,-78,130,310,225,148
274,88,-12,-166,94,38,-125,-87,122,333,246,162
292,94,-12,-177,100,42,-129,-93,117,350,261,174
288,105,0,-185,88,53,-129,-97,111,367,277,186
268,106,8,-179,75,58,-127,-98,97,376,291,197
268,112,15,-185,70,65,-124,-96,97,395,307,207
263,117,21,-188,63,70,-123,-101,84,401,320,219
259,125,30,-193,54,79,-125,-107,71,401,325,228
252,132,40,-198,44,87,-127,-112,66,404,333,233
234,135,49,-195,30,94,-125,-117,49,400,335,238
230,133,49,-191,29,92,-127,-132,20,364,327,236
219,135,55,-190,21,97,-137,-150,-17,322,316,235
223,123,41,-180,33,84,-140,-157,-46,272,293,228
201,112,38,-163,29,76,-134,-157,-73,205,261,210
170,98,36,-141,22,68,-129,-154,-86,167,235,192
163,85,25,-127,29,56,-120,-146,-83,149,219,181
150,77,22,-116,28,50,-111,-136,-81,133,204,168
137,68,18,-103,27,43,-104,-129,-78,114,180,152
132,60,12,-96,30,37,-96,-119,-77,87,154,138
112,57,16,-86,21,37,-85,-109,-77,58,128,117
94,48,14,-73,17,31,-77,-102,-80,30,95,93
85,42,11,-64,17,26,-71,-95,-80,11,70,76
70,33,7,-51,15,20,-67,-89,-81,-6,53,62
68,29,5,-47,17,17,-64,-86,-81,-17,39,53
59,16,-6,-32,23,5,-60,-81,-79,-24,28,41
54,14,-6,-29,21,4,-58,-79,-78,-31,19,35
50,13,-5,-27,19,4,-55,-76,-76,-36,14,32
43,12,-4,-24,17,4,-52,-75,-72,-36,8,26
45,14,-2,-26,16,6,-48,-70,-69,-39,2,20
36,11,-2,-21,13,4,-41,-63,-62,-36,-5,15
32,13,2,-22,8,7,-34,-54,-55,-35,-7,10
25,9,0,-16,8,4,-29,-47,-46,-34,-12,2
10,3,-1,-5,4,1,-23,-39,-39,-32,-15,-5
3,0,-1,-1,2,-0,-18,-31,-32,-29,-19,-11
-6,-1,1,3,-2,-0,-15,-28,-28,-28,-21,-14
-15,-3,2,8,-7,-0,-12,-25,-23,-24,-21,-10
-15,-4,2,9,-6,-1,-9,-22,-20,-23,-21,-18
-15,-4,2,9,-6,-1,-7,-20,-17,-23,-24,-22
-19,-6,2,11,-7,-2,-2,-17,-14,-22,-24,-23
-19,-6,2,11,-7,-2,-1,-15,-13,-23,-25,-23
-20,-6,2,12,-7,-2,-0,-15,-14,-24,-25,-22
-17,-7,0,12,-5,-3,-0,-14,-14,-25,-26,-23
-15,-7,-2,12,-3,-5,-1,-14,-14,-26,-26,-24
-14,-8,-2,12,-2,-5,-2,-14,-14,-26,-27,-24
-15,-8,-2,12,-2,-5,-2,-14,-14,-26,-27,-25
-16,-8,-2,13,-4,-5,-2,-14,-14,-25,-28,-25
-22,-8,0,14,-7,-4,-2,-14,-14,-25,-28,-26
-26,-7,2,15,-10,-3,-1,-13,-13,-25,-28,-26
-25,-7,2,15,-9,-3,-1,-12,-12,-25,-28,-26
-24,-7,1,14,-8,-3,-0,-12,-12,-25,-28,-27
-23,-8,1,15,-8,-4,0,-12,-11,-25,-29,-27
-23,-8,0,15,-7,-4,0,-12,-11,-26,-29,-28
-23,-9,0,16,-7,-4,0,-11,-11,-26,-29,-28
-23,-8,0,15,-7,-4,0,-11,-11,-26,-29,-28
-23,-8,1,15,-8,-4,0,-10,-11,-26,-29,-28
-23,-8,1,15,-8,-3,0,-9,-12,-26,-29,-28
-23,-7,1,14,-8,-3,0,-9,-12,-27,-29,-28
-24,-7,2,15,-9,-3,0,-8,-11,-27,-29,-28
-25,-8,2,15,-9,-3,0,-8,-10,-27,-29,-28
-25,-8,2,16,-9,-3,0,-8,-9,-27,-29,-28
-25,-8,1,16,-9,-3,1,-8,-8,-27,-30,-28
-25,-8,1,16,-8,-4,1,-7,-8,-27,-30,-28
-25,-9,1,16,-8,-4,1,-7,-8,-28,-30,-28
-25,-9,1,16,-8,-4,1,-7,-8,-28,-30,-28
-26,-9,1,17,-9,-4,1,-7,-7,-28,-30,-29
-28,-10,1,18,-9,-5,1,-7,-8,-29,-31,-29
-30,-11,0,20,-9,-5,1,-7,-8,-29,-31,-29
-32,-12,0,21,-10,-6,1,-7,-8,-29,-31,-29
-33,-12,0,22,-10,-6,1,-7,-9,-30,-31,-30
-34,-13,-0,23,-10,-7,1,-6,-9,-30,-32,-30
-33,-13,-1,23,-9,-7,1,-6,-9,-30,-32,-30
-32,-13,-1,23,-9,-8,1,-6,-9,-30,-32,-30
-32,-13,-2,23,-8,-8,1,-6,-9,-30,-32,-30
-32,-14,-2,23,-8,-8,1,-6,-9,-30,-32,-30
-32,-14,-2,23,-8,-8,1,-6,-9,-31,-32,-30
-32,-14,-2,24,-8,-9,1,-6,-10,-31,-32,-30
-32,-14,-2,24,-8,-9,1,-6,-10,-31,-32,-30
-32,-14,-2,24,-8,-9,2,-5,-10,-32,-32,-30
-32,-14,-2,24,-8,-9,2,-5,-9,-32,-33,-30
-32,-14,-2,24,-8,-9,3,-5,-9,-32,-33,-30
-32,-14,-2,24,-8,-9,3,-5,-9,-33,-33,-31
-32,-14,-2,24,-8,-9,3,-5,-8,-33,-34,-31
-33,-15,-2,24,-8,-9,3,-5,-8,-33,-34,-31
-34,-15,-2,25,-8,-9,3,-4,-8,-34,-34,-31
-34,-15,-2,25,-8,-9,3,-4,-8,-34,-35,-32
-34,-15,-2,25,-8,-9,3,-4,-7,-35,-35,-32
-34,-15,-2,25,-8,-9,3,-4,-7,-35,-35,-32
-34,-15,-2,25,-8,-9,3,-4,-7,-35,-35,-33
-34,-15,-2,25,-8,-9,3,-3,-7,-36,-36,-33
-34,-15,-2,25,-8,-9,3,-3,-7,-36,-36,-33
-34,-15,-2,25,-8,-9,3,-3,-7,-36,-36,-33
-34,-15,-2,25,-8,-9,3,-3,-7,-36,-36,-33
-34,-15,-2,25,-8,-9,3,-3,-7,-37,-37,-34
-34,-15,-2,25,-8,-9,3,-3,-7,-38,-37,-34
-34,-15,-2,25,-8,-9,3,-3,-7,-38,-37,-34
-33,-15,-3,25,-8,-9,3,-3,-7,-38,-37,-34
-32,-15,-3,24,-7,-9,3,-2,-7,-39,-37,-33
-32,-15,-3,24,-7,-9,3,-2,-7,-39,-37,-33
-32,-15,-3,24,-7,-9,3,-2,-7,-39,-38,-32
-32,-14,-3,24,-8,-9,3,-2,-7,-40,-38,-32
-32,-14,-2,24,-8,-9,3,-2,-7,-40,-38,-32
-32,-14,-2,24,-8,-9,3,-2,-7,-41,-39,-32
-32,-14,-2,24,-8,-9,4,-2,-7,-41,-39,-32
-32,-14,-2,24,-8,-9,5,-2,-7,-41,-39,-32
-32,-14,-2,24,-8,-9,5,-1,-7,-42,-40,-33
-33,-14,-2,24,-8,-8,5,-1,-8,-42,-40,-33
-34,-14,-2,24,-9,-8,5,-0,-8,-42,-40,-33
-34,-14,-2,24,-9,-8,5,1,-8,-43,-40,-33
-35,-14,-1,24,-10,-8,5,1,-8,-43,-40,-33
-36,-14,-1,25,-10,-8,5,2,-8,-43,-40,-33
-37,-14,-1,25,-11,-8,5,2,-8,-43,-40,-33
-39,-14,0,25,-12,-7,5,2,-8,-44,-41,-34
-40,-14,1,25,-13,-6,5,2,-8,-44,-41,-34
-40,-13,1,25,-14,-6,5,2,-8,-44,-41,-34
-41,-13,2,26,-14,-6,5,2,-8,-44,-41,-34
-41,-13,2,26,-14,-6,5,2,-8,-45,-41,-34
-41,-13,2,26,-14,-6,5,2,-8,-45,-42,-35
-41,-13,2,26,-14,-6,5,2,-8,-45,-42,-35
-41,-13,2,26,-14,-6,4,2,-8,-46,-42,-36
-42,-13,2,26,-14,-6,4,3,-8,-46,-42,-37
-43,-13,2,26,-15,-6,4,3,-8,-46,-42,-37
-43,-13,2,26,-15,-6,4,3,-9,-46,-43,-37
-43,-13,2,26,-15,-6,4,3,-9,-47,-43,-38
-43,-13,2,26,-15,-6,4,3,-10,-47,-43,-38
-43,-13,2,26,-15,-6,4,3,-10,-47,-43,-38
-43,-13,3,26,-16,-5,5,3,-11,-47,-43,-38
-43,-13,3,26,-16,-5,6,4,-10,-47,-43,-38
-43,-13,3,26,-16,-5,6,4,-10,-48,-43,-38
-43,-12,4,25,-16,-4,7,4,-10,-48,-43,-38
-43,-12,4,25,-17,-4,7,4,-9,-48,-43,-38
-43,-11,5,24,-17,-3,8,4,-8,-48,-43,-38
-43,-10,6,23,-18,-2,8,5,-8,-48,-44,-38
-44,-10,6,23,-19,-2,8,5,-7,-49,-44,-39
-45,-10,7,23,-20,-1,8,5,-7,-50,-44,-39
-45,-9,7,23,-20,-1,8,5,-7,-51,-44,-39
-45,-9,7,23,-20,-1,8,6,-7,-52,-45,-39
-46,-9,8,24,-20,-1,8,6,-7,-52,-45,-40
-48,-9,8,24,-22,-1,8,6,-7,-52,-45,-40
-51,-9,9,25,-23,-0,8,7,-7,-53,-45,-40
-54,-9,10,26,-25,0,8,7,-6,-53,-45,-40
-56,-9,11,27,-26,1,9,7,-6,-53,-46,-40
-56,-9,11,27,-26,1,9,8,-6,-53,-46,-40
-56,-9,11,27,-27,1,9,8,-6,-53,-46,-40
-56,-9,11,27,-27,1,10,8,-6,-53,-46,-40
-56,-10,11,27,-26,1,10,9,-6,-53,-46,-40
-56,-10,10,28,-26,0,10,10,-6,-54,-46,-40
-56,-11,10,28,-25,-1,10,11,-6,-54,-46,-41
-57,-12,9,29,-25,-1,10,12,-6,-54,-46,-41
-58,-13,9,30,-25,-2,11,12,-6,-54,-46,-41
-59,-13,8,31,-25,-3,11,13,-6,-54,-46,-41
-59,-14,7,32,-24,-4,11,13,-6,-54,-46,-41
-60,-15,7,33,-24,-4,11,14,-5,-55,-45,-41
-60,-16,7,34,-24,-5,12,14,-5,-55,-45,-41
-61,-16,7,34,-24,-5,12,15,-5,-55,-45,-40
-62,-16,7,34,-25,-5,12,16,-4,-55,-45,-40
-63,-16,7,35,-25,-4,13,16,-3,-55,-45,-39
-63,-16,7,35,-25,-5,13,17,-3,-55,-46,-39
-64,-17,7,36,-25,-5,14,18,-3,-55,-46,-38
-65,-18,6,37,-25,-6,15,18,-3,-55,-46,-38
-65,-18,6,38,-25,-6,16,18,-3,-55,-46,-38
-66,-19,6,38,-25,-7,16,18,-3,-55,-46,-38
-68,-19,6,39,-26,-7,17,19,-3,-55,-46,-38
-71,-19,7,40,-27,-6,17,19,-3,-56,-46,-38
-74,-19,8,41,-29,-6,17,20,-3,-56,-45,-38
-76,-19,9,42,-30,-5,17,20,-3,-57,-45,-38
-76,-19,9,42,-31,-5,17,20,-3,-57,-45,-38
-77,-19,10,41,-31,-5,18,21,-3,-57,-45,-38
-77,-18,10,41,-32,-4,18,20,-3,-56,-45,-38
-77,-18,11,41,-33,-4,18,20,-3,-56,-45,-38
-78,-18,11,41,-33,-3,17,20,-3,-56,-44,-38
-79,-17,12,41,-34,-3,16,19,-3,-55,-44,-38
-79,-17,12,41,-34,-2,16,19,-2,-55,-44,-37
-79,-17,12,40,-34,-2,15,19,-1,-54,-44,-37
-79,-16,12,40,-35,-2,15,19,-1,-54,-44,-38
-79,-16,13,40,-35,-2,14,19,-1,-53,-43,-38
-79,-16,13,40,-35,-1,14,20,-2,-53,-43,-38
-79,-15,14,39,-35,-1,14,20,-2,-51,-42,-38
-79,-15,14,39,-36,-0,14,19,-2,-50,-41,-38
-79,-14,14,38,-36,0,13,19,-3,-50,-40,-37
-79,-14,15,38,-36,0,13,18,-3,-49,-40,-37
-80,-14,16,38,-37,1,12,17,-3,-48,-39,-36
-81,-13,17,38,-39,1,12,17,-3,-47,-38,-34
-83,-13,17,38,-40,2,13,17,-4,-47,-37,-33
-84,-13,18,38,-41,3,13,17,-4,-46,-36,-31
-85,-12,19,38,-42,3,13,16,-4,-46,-35,-30
-85,-12,20,38,-42,4,12,16,-5,-45,-34,-28
-85,-11,20,37,-42,4,12,15,-5,-44,-33,-27
-84,-11,20,37,-42,5,11,14,-5,-42,-32,-26
-83,-10,20,36,-42,5,10,13,-5,-41,-31,-25
-80,-9,20,34,-41,5,10,12,-5,-39,-29,-23
-77,-9,19,33,-40,5,9,11,-5,-38,-28,-23
-74,-8,19,32,-38,5,8,10,-4,-36,-27,-22
-70,-8,18,30,-36,5,7,9,-4,-35,-26,-21
-68,-7,17,29,-35,5,6,8,-4,-33,-24,-20
-65,-7,17,28,-34,5,6,8,-4,-30,-23,-19
-62,-6,17,26,-33,5,5,8,-5,-28,-21,-18
