I,II,III,aVR,aVL,aVF,V1,V2,V3,V4,V5,V6
-15,-16,1,19,-8,-7,6,-7,-13,-28,-37,-4
-15,-16,1,19,-8,-7,6,-7,-13,-28,-37,-5
-15,-16,1,19,-8,-7,6,-7,-13,-28,-36,-5
-15,-16,1,19,-8,-7,6,-7,-13,-27,-35,-5
-15,-16,1,19,-8,-7,6,-7,-13,-26,-34,-5
-15,-16,1,19,-8,-7,6,-7,-14,-25,-32,-5
-14,-16,0,19,-8,-8,5,-7,-14,-24,-31,-5
-12,-16,-1,17,-6,-9,5,-7,-14,-24,-31,-5
-11,-16,-2,16,-4,-10,5,-8,-14,-25,-31,-5
-9,-16,-4,15,-2,-10,5,-8,-14,-25,-31,-5
-8,-16,-5,14,-1,-11,5,-7,-14,-25,-31,-5
-7,-16,-5,14,-0,-11,5,-7,-14,-25,-31,-5
-7,-16,-6,14,0,-12,5,-6,-14,-25,-31,-5
-7,-16,-6,14,0,-12,5,-5,-14,-25,-31,-5
-7,-16,-6,14,0,-12,5,-4,-14,-25,-31,-5
-8,-17,-6,15,-0,-12,5,-4,-13,-25,-31,-5
-8,-18,-6,16,-1,-13,5,-4,-12,-25,-31,-5
-9,-18,-6,16,-1,-13,5,-4,-11,-25,-31,-5
-9,-18,-6,16,-1,-13,5,-3,-11,-25,-31,-5
-9,-18,-6,16,-1,-13,4,-3,-10,-25,-31,-5
-9,-18,-6,16,-1,-13,4,-2,-10,-25,-31,-5
-9,-18,-6,16,-1,-13,4,-1,-10,-25,-31,-5
-9,-18,-6,16,-1,-13,4,-1,-10,-25,-31,-5
-9,-18,-6,16,-1,-13,4,-0,-10,-25,-31,-5
-10,-18,-5,17,-2,-12,4,-1,-10,-25,-31,-5
-10,-18,-4,17,-3,-12,3,-1,-10,-25,-31,-5
-11,-18,-4,18,-3,-12,3,-1,-10,-25,-31,-5
-11,-18,-4,18,-3,-12,3,-1,-10,-25,-31,-5
-11,-18,-4,18,-3,-12,3,-1,-10,-25,-31,-5
-11,-18,-4,18,-3,-12,3,-1,-10,-25,-31,-5
-11,-18,-4,18,-3,-12,3,-1,-11,-25,-31,-5
-11,-18,-4,18,-3,-12,3,-2,-11,-25,-31,-5
-11,-18,-4,18,-3,-12,3,-2,-12,-25,-31,-5
-11,-18,-4,18,-3,-12,3,-2,-13,-25,-31,-5
-11,-18,-4,18,-3,-12,3,-2,-14,-25,-31,-5
-11,-18,-4,18,-3,-12,3,-3,-14,-25,-31,-5
-11,-19,-5,19,-3,-13,3,-3,-15,-25,-31,-5
-11,-20,-5,19,-2,-14,3,-3,-15,-25,-31,-5
-11,-21,-6,19,-2,-14,3,-3,-15,-25,-32,-5
-11,-21,-6,19,-2,-14,2,-3,-16,-26,-32,-5
-11,-21,-6,19,-2,-14,0,-3,-16,-26,-33,-5
-10,-21,-6,19,-1,-15,-1,-3,-16,-26,-34,-5
-9,-21,-7,18,-0,-15,-2,-3,-17,-26,-34,-5
-9,-21,-7,18,0,-15,-2,-3,-17,-26,-34,-5
-9,-21,-7,18,0,-15,-2,-3,-17,-26,-34,-5
-10,-21,-7,19,-1,-15,-2,-3,-16,-26,-34,-5
-11,-21,-5,20,-3,-14,-2,-2,-16,-26,-33,-5
-12,-21,-4,20,-4,-13,-2,-1,-16,-26,-33,-5
-11,-21,-5,20,-3,-14,-3,-1,-16,-26,-33,-5
-10,-19,-6,17,-1,-13,-4,0,-16,-26,-34,-5
-8,-17,-5,15,-1,-12,-5,1,-15,-25,-33,-5
-7,-18,-7,15,0,-13,-5,1,-14,-24,-32,-5
-7,-20,-8,16,2,-16,-5,2,-14,-24,-31,-5
-7,-20,-9,16,2,-16,-4,3,-15,-23,-31,-5
-8,-25,-11,20,3,-19,-3,3,-14,-23,-31,-5
-11,-33,-14,26,3,-26,-0,4,-14,-24,-31,-5
-13,-33,-13,28,1,-25,2,5,-14,-24,-33,-5
-15,-24,-4,24,-5,-14,3,8,-11,-24,-33,-5
-15,-28,-7,26,-3,-19,6,11,-8,-22,-34,-6
-7,-19,-7,16,1,-14,9,15,-4,-21,-36,-6
-5,-19,-9,14,3,-16,8,13,-2,-20,-37,-7
-11,-24,-7,21,-1,-16,6,13,-2,-25,-39,-7
-11,-26,-9,22,0,-19,6,8,-6,-27,-44,-8
-11,-31,-13,25,2,-23,3,2,-7,-25,-41,-8
-3,-21,-13,14,6,-19,-6,-12,-9,-19,-29,-6
-1,-19,-13,12,7,-18,-20,-30,-14,-2,-10,-3
15,5,-9,-12,13,-4,-22,-44,-17,12,16,-0
35,19,-16,-33,28,-2,-36,-63,-31,17,37,2
63,38,-26,-63,49,0,-55,-79,-44,23,50,5
93,73,-26,-102,64,17,-68,-90,-47,40,80,8
129,109,-31,-146,86,31,-82,-104,-53,58,114,13
149,144,-23,-179,91,54,-88,-109,-50,87,160,18
208,194,-36,-245,130,69,-114,-120,-52,112,205,25
258,229,-53,-298,167,74,-145,-150,-72,126,244,30
294,251,-69,-334,195,74,-178,-182,-100,126,275,36
344,272,-96,-379,237,67,-217,-214,-131,117,300,41
364,272,-113,-392,258,55,-241,-237,-161,96,296,43
372,263,-126,-392,271,42,-252,-247,-190,63,280,45
364,246,-131,-378,270,30,-259,-249,-213,20,252,45
364,241,-135,-375,272,26,-263,-255,-237,-24,215,43
356,229,-137,-363,269,19,-265,-259,-258,-65,171,41
342,170,-167,-320,280,-30,-264,-257,-276,-120,104,35
298,121,-165,-264,256,-53,-236,-240,-281,-168,42,29
242,109,-126,-220,203,-32,-210,-215,-260,-172,8,25
190,118,-75,-191,145,6,-183,-201,-229,-153,2,24
139,114,-36,-155,95,30,-157,-180,-194,-130,-8,20
109,104,-18,-130,68,38,-134,-155,-157,-103,-2,19
79,109,11,-113,34,60,-106,-122,-124,-75,5,17
49,85,20,-80,13,54,-88,-96,-99,-64,-2,13
39,78,23,-69,6,53,-71,-75,-80,-53,-5,8
15,52,25,-39,-8,42,-49,-57,-60,-40,-2,7
11,35,16,-27,-5,28,-36,-38,-47,-32,-3,5
15,19,1,-20,7,10,-22,-20,-35,-27,-5,4
7,14,4,-12,1,10,-13,-10,-23,-22,-7,3
1,14,10,-8,-5,13,-7,-7,-16,-20,-16,0
-1,9,8,-4,-5,10,3,-2,-11,-17,-16,-1
-21,-7,13,18,-19,5,7,6,-7,-10,-10,-1
-15,-12,4,17,-10,-3,15,9,-6,-10,-13,-2
-17,-5,11,14,-16,5,16,11,-4,-15,-20,-3
-14,2,14,8,-16,10,14,13,-3,-15,-21,-4
-13,4,14,6,-15,11,14,15,-2,-14,-21,-4
-14,5,16,7,-17,12,14,16,-1,-14,-21,-4
-17,5,18,9,-20,14,15,17,-1,-13,-21,-4
-20,3,19,12,-22,14,16,17,-1,-14,-22,-4
-20,-2,15,14,-20,9,16,17,-1,-15,-24,-5
-19,-8,11,17,-16,3,15,16,-2,-16,-28,-5
-20,-16,6,22,-14,-4,16,17,-2,-17,-30,-6
-22,-21,4,26,-14,-8,17,17,-2,-17,-30,-6
-22,-20,5,26,-15,-6,18,18,-1,-17,-31,-6
-23,-15,9,24,-18,-1,18,19,-1,-17,-30,-6
-24,-13,12,23,-20,1,18,20,0,-16,-29,-6
-25,-13,12,24,-20,1,19,20,0,-16,-29,-6
-24,-12,12,23,-20,2,19,20,0,-16,-29,-6
-23,-14,10,23,-18,0,19,20,0,-16,-30,-6
-23,-18,7,25,-16,-4,19,20,-0,-16,-30,-6
-24,-20,6,27,-16,-6,20,20,-1,-17,-31,-6
-25,-20,7,28,-17,-5,20,20,-1,-17,-31,-6
-27,-21,7,29,-18,-5,20,20,-0,-18,-32,-6
-27,-21,8,30,-19,-5,20,20,0,-18,-32,-6
-27,-21,8,30,-19,-5,20,20,0,-18,-32,-7
-27,-21,8,30,-19,-5,21,21,0,-18,-32,-7
-27,-21,8,30,-19,-5,21,21,0,-17,-32,-7
-27,-21,8,30,-19,-5,21,21,0,-17,-32,-6
-27,-21,8,30,-19,-5,21,22,-0,-17,-32,-6
-27,-21,8,30,-19,-5,22,22,-1,-17,-32,-6
-27,-22,7,30,-18,-6,22,23,-1,-17,-32,-6
-27,-23,6,31,-18,-7,22,24,-2,-17,-32,-6
-27,-24,6,31,-18,-8,22,25,-2,-18,-33,-6
-28,-26,5,33,-18,-9,22,26,-2,-18,-34,-6
-29,-28,4,34,-17,-11,22,26,-3,-18,-34,-6
-29,-31,2,37,-16,-14,22,26,-3,-18,-34,-6
-29,-34,0,38,-15,-16,22,26,-2,-18,-34,-6
-29,-35,-0,39,-15,-17,22,26,-2,-18,-34,-6
-29,-35,-1,39,-15,-17,23,26,-1,-18,-34,-6
-29,-35,-1,39,-15,-17,23,26,0,-18,-34,-6
-30,-35,0,39,-15,-17,24,27,1,-18,-34,-6
-31,-35,1,40,-17,-16,24,27,1,-18,-34,-6
-33,-35,3,41,-19,-15,24,27,1,-19,-35,-6
-35,-35,4,43,-21,-14,25,27,1,-19,-35,-7
-37,-36,5,44,-23,-14,25,28,1,-19,-36,-7
-38,-37,6,46,-23,-14,25,28,1,-18,-36,-7
-39,-36,6,46,-24,-13,25,28,1,-17,-36,-7
-39,-35,7,46,-25,-12,25,28,1,-16,-36,-7
-39,-35,8,46,-25,-12,26,28,1,-16,-36,-7
-39,-35,8,46,-25,-12,26,29,1,-16,-36,-7
-39,-35,8,46,-25,-12,26,29,1,-16,-36,-7
-39,-36,7,46,-25,-13,26,29,1,-16,-36,-7
-39,-36,7,46,-25,-13,26,29,1,-17,-36,-7
-39,-35,8,45,-25,-11,26,29,2,-17,-36,-7
-39,-33,10,44,-26,-10,25,29,2,-17,-36,-7
-39,-30,11,43,-27,-7,25,30,2,-17,-36,-7
-39,-29,12,42,-28,-6,25,30,2,-17,-36,-7
-39,-28,13,42,-28,-5,25,30,2,-17,-36,-7
-39,-28,13,41,-28,-5,26,30,2,-17,-36,-7
-39,-28,13,41,-28,-5,26,30,2,-17,-36,-7
-39,-28,13,41,-28,-5,26,31,2,-17,-36,-7
-39,-28,13,41,-28,-5,26,31,3,-17,-36,-7
-39,-28,13,41,-28,-5,26,31,3,-16,-36,-7
-39,-28,13,41,-28,-5,26,32,3,-16,-36,-7
-39,-28,13,41,-28,-5,26,32,4,-16,-36,-7
-39,-28,13,41,-28,-5,27,32,5,-16,-36,-7
-39,-28,13,41,-28,-5,27,32,6,-15,-36,-7
-40,-28,14,42,-29,-5,27,33,7,-15,-36,-7
-41,-28,14,42,-30,-4,27,33,8,-15,-36,-7
-41,-28,15,43,-30,-4,28,33,9,-15,-36,-7
-41,-28,15,43,-30,-4,28,34,9,-14,-36,-7
-41,-28,15,43,-30,-4,28,34,10,-14,-36,-7
-41,-29,14,43,-30,-5,28,34,10,-13,-36,-7
-41,-31,13,44,-29,-6,29,35,11,-13,-36,-7
-41,-33,11,46,-28,-8,29,35,11,-13,-36,-7
-41,-35,10,47,-27,-10,29,35,11,-12,-36,-7
-41,-36,8,48,-26,-12,29,36,12,-12,-35,-7
-41,-37,8,48,-26,-12,29,36,12,-12,-34,-7
-41,-37,8,48,-26,-13,29,36,13,-11,-34,-7
-41,-37,8,48,-26,-13,29,37,13,-11,-34,-7
-41,-36,9,47,-27,-11,28,37,14,-10,-33,-7
-41,-33,11,46,-28,-9,28,37,15,-10,-33,-7
-41,-30,13,44,-29,-6,27,38,15,-10,-32,-7
-41,-28,15,43,-30,-4,26,38,16,-9,-32,-7
-41,-26,16,42,-31,-2,25,39,17,-9,-32,-7
-41,-26,16,42,-31,-2,25,39,17,-8,-31,-6
-41,-26,16,41,-31,-1,25,40,18,-7,-30,-6
-41,-26,16,41,-31,-1,25,40,18,-7,-29,-6
-41,-25,17,41,-32,-0,26,40,19,-6,-29,-6
-41,-24,18,40,-32,0,26,40,20,-6,-28,-6
-40,-23,17,40,-31,0,26,40,21,-5,-27,-6
-39,-23,17,39,-30,0,26,39,22,-4,-26,-6
-39,-22,17,38,-30,0,26,39,23,-3,-25,-6
-39,-21,18,38,-31,1,26,40,23,-1,-24,-6
-39,-20,18,37,-31,2,26,41,24,1,-23,-6
-39,-19,19,37,-32,4,27,41,25,3,-22,-6
-38,-18,19,35,-32,4,27,42,26,4,-21,-6
-37,-16,20,34,-32,5,27,42,28,5,-21,-6
-37,-14,21,32,-32,7,28,43,29,7,-19,-6
-36,-11,22,30,-33,9,28,44,30,8,-18,-6
-35,-10,23,29,-32,10,28,45,32,9,-17,-5
-35,-9,23,28,-33,11,29,47,33,9,-16,-5
-34,-7,24,26,-33,13,29,48,35,9,-14,-5
-33,-5,24,24,-31,13,30,49,36,9,-13,-5
-31,-5,23,23,-30,13,30,51,38,10,-11,-5
-31,-4,23,23,-30,13,31,52,39,11,-9,-5
-29,-5,21,22,-28,11,31,53,41,13,-8,-5
-29,-6,20,23,-27,10,32,55,43,15,-6,-5
-28,-6,20,22,-27,10,32,56,45,16,-5,-5
-27,-5,20,21,-26,10,33,57,47,18,-4,-5
-27,-4,20,20,-26,11,33,59,48,20,-2,-5
-25,-2,20,18,-25,12,34,60,50,22,0,-5
-25,0,21,16,-26,14,34,61,52,24,2,-4
-25,2,22,15,-27,16,34,63,54,26,4,-4
-26,3,24,15,-28,17,34,64,55,28,6,-4
-26,5,25,14,-29,19,34,65,57,30,8,-4
-24,8,26,11,-28,21,34,67,59,32,10,-3
-22,10,26,8,-27,22,34,68,61,34,13,-3
-20,13,26,6,-26,23,34,69,62,36,15,-3
-18,16,26,3,-25,25,34,70,64,38,18,-3
-16,19,27,0,-25,27,34,71,65,40,20,-2
-12,21,26,-4,-23,27,34,73,67,42,22,-2
-8,24,24,-8,-19,27,34,75,68,44,25,-2
-4,26,22,-12,-16,27,34,76,69,46,27,-2
-1,28,21,-15,-14,28,33,77,71,48,30,-2
1,31,21,-18,-13,29,33,78,72,49,32,-1
3,33,21,-21,-11,30,33,79,73,52,34,-1
5,35,21,-23,-10,31,33,80,74,53,36,-0
7,39,22,-26,-10,33,32,80,76,54,39,-0
9,42,23,-29,-10,35,32,80,77,56,41,0
11,45,23,-32,-9,37,31,80,79,58,43,1
12,46,23,-34,-8,37,31,80,81,59,45,1
13,48,23,-35,-8,38,30,81,82,61,47,1
15,50,23,-38,-7,39,30,81,83,62,49,1
17,52,23,-40,-5,40,29,81,83,63,50,2
19,54,23,-43,-5,42,29,81,84,64,52,2
21,57,23,-46,-3,42,28,81,84,65,54,2
23,58,22,-48,-2,43,28,80,85,66,55,3
25,60,22,-50,-0,43,27,80,85,67,57,3
28,61,21,-52,2,43,26,80,85,68,59,3
30,65,21,-56,2,45,25,80,85,69,60,3
32,69,23,-59,3,48,25,79,84,70,62,4
35,73,23,-64,4,50,24,78,84,72,64,4
36,76,24,-66,4,52,23,77,83,74,64,4
37,79,25,-69,4,55,22,76,83,75,65,4
39,81,25,-71,5,56,21,75,83,75,66,4
40,82,25,-73,5,56,20,74,83,75,67,5
41,83,24,-74,6,56,19,73,82,75,67,5
43,83,23,-74,8,55,18,71,82,74,69,5
43,83,23,-75,8,55,16,68,80,74,70,5
45,83,22,-76,10,54,15,66,79,73,70,5
45,83,21,-76,10,54,14,63,77,72,72,5
45,82,21,-75,10,53,12,60,75,71,72,5
45,81,20,-75,11,52,10,58,72,69,71,5
45,80,19,-74,11,51,8,56,69,67,70,5
45,78,18,-73,12,49,6,54,66,65,69,6
45,77,17,-73,13,48,5,52,63,63,67,6
44,75,17,-71,13,47,3,49,60,62,65,6
43,73,16,-69,13,46,2,45,57,59,64,5
43,71,15,-68,13,44,2,42,54,57,62,5
41,69,14,-66,13,42,0,40,52,55,60,5
41,66,13,-64,13,41,-1,38,48,53,57,5
39,64,13,-61,12,39,-3,36,45,51,55,4
37,61,13,-59,11,38,-5,34,42,48,52,4
36,59,12,-57,11,36,-6,31,39,45,50,4
35,56,11,-54,11,34,-7,29,36,42,47,4
33,53,10,-51,11,31,-8,26,33,39,44,3
31,50,10,-48,10,30,-8,23,31,37,41,3
29,47,10,-46,9,29,-9,21,28,34,39,3
27,44,9,-42,8,27,-9,19,26,32,36,2
25,41,8,-39,8,25,-10,18,24,29,33,2
23,38,8,-36,7,23,-10,16,22,27,31,2
21,35,8,-33,6,22,-10,15,20,24,28,1
19,32,7,-30,5,20,-11,14,18,22,25,1
17,29,6,-27,5,18,-12,12,16,20,22,0
16,26,5,-25,5,16,-13,11,14,18,20,-0
14,24,5,-23,5,14,-14,10,13,16,18,-1
13,21,4,-20,4,13,-15,10,11,14,16,-1
11,19,4,-17,3,12,-15,9,10,12,13,-1
10,17,4,-15,3,10,-15,9,8,10,11,-1
8,15,4,-14,2,10,-15,8,7,9,10,-2
7,14,4,-12,1,9,-15,8,6,8,8,-2
6,12,4,-11,0,8,-15,7,5,7,7,-2
5,12,4,-10,0,8,-15,7,5,7,7,-2
5,12,4,-10,0,8,-15,7,5,7,7,-2
5,12,4,-10,0,8,-15,7,5,7,7,-2
5,12,4,-10,0,8,-15,7,5,7,7,-2
5,12,4,-10,0,8,-15,7,5,7,7,-2
0,6,4,-4,-3,5,-14,5,2,3,2,-2
-6,-1,4,4,-5,2,-13,3,-2,-2,-3,-3
-8,-3,4,7,-6,1,-13,3,-3,-4,-5,-3
-8,-4,4,8,-7,1,-13,3,-3,-4,-6,-3
-9,-5,4,8,-7,0,-13,3,-4,-5,-7,-3
-9,-7,3,10,-6,-1,-13,3,-4,-5,-8,-3
-9,-9,1,11,-5,-4,-13,3,-4,-5,-9,-3
-9,-11,-1,12,-4,-6,-13,3,-4,-5,-11,-3
-9,-13,-2,13,-3,-7,-13,3,-4,-5,-12,-3
-9,-13,-2,13,-3,-8,-12,3,-4,-5,-12,-3
-9,-14,-2,14,-3,-8,-11,3,-4,-5,-13,-3
-9,-14,-2,14,-3,-8,-10,3,-4,-5,-13,-3
-9,-14,-2,14,-3,-8,-9,3,-3,-5,-13,-3
-9,-14,-2,14,-3,-8,-9,4,-2,-5,-13,-3
-9,-14,-2,14,-3,-8,-9,5,-2,-5,-13,-3
-9,-14,-2,14,-3,-8,-9,6,-1,-5,-13,-4
-9,-14,-2,14,-3,-8,-9,6,-0,-5,-13,-4
-9,-14,-2,14,-3,-8,-9,6,0,-5,-13,-4
-9,-14,-2,14,-3,-8,-9,7,0,-5,-13,-4
-9,-14,-2,14,-3,-8,-9,7,0,-5,-13,-4
-9,-13,-2,13,-3,-7,-8,7,0,-5,-13,-4
-9,-11,-0,12,-4,-5,-6,8,1,-5,-13,-4
-9,-9,1,11,-5,-4,-4,9,2,-5,-13,-4
-9,-7,3,10,-6,-1,-2,10,3,-5,-13,-4
-9,-5,4,9,-7,0,-0,10,3,-5,-13,-4
-9,-5,4,8,-7,0,1,10,4,-5,-13,-4
-9,-4,4,8,-7,0,2,10,4,-5,-13,-5
-9,-4,4,8,-7,0,3,10,4,-5,-13,-5
-9,-4,4,8,-7,0,4,10,4,-5,-13,-5
-9,-4,4,8,-7,0,4,10,4,-5,-13,-5
-9,-4,4,8,-7,0,4,10,4,-5,-13,-5
-9,-4,4,8,-7,0,4,10,4,-5,-13,-5
-9,-4,4,8,-7,0,4,10,4,-4,-13,-5
-9,-4,4,8,-7,0,4,10,5,-3,-13,-5
-9,-4,4,8,-7,0,4,10,6,-2,-13,-5
-9,-4,4,8,-7,0,4,10,7,-1,-13,-4
-10,-4,5,9,-8,1,4,10,7,0,-13,-4
-11,-4,6,10,-10,2,4,10,7,0,-13,-4
-13,-4,8,11,-11,3,4,10,8,0,-13,-4
-15,-4,10,12,-13,4,4,10,8,0,-13,-4
-16,-4,11,13,-15,5,4,10,8,1,-12,-4
-16,-4,11,13,-15,5,3,10,8,2,-11,-4
-17,-4,11,14,-15,5,2,10,8,3,-9,-5
-17,-4,11,14,-15,5,1,10,8,4,-8,-5
-17,-4,11,14,-15,5,-0,10,8,5,-7,-5
-17,-4,11,14,-15,5,-1,9,8,5,-7,-5
-17,-4,11,14,-15,5,-2,9,8,5,-6,-5
-17,-4,11,14,-15,5,-3,8,8,5,-6,-5
-17,-4,11,14,-15,5,-4,7,8,5,-6,-5
-17,-4,11,14,-15,5,-4,7,8,5,-6,-5
-17,-4,11,14,-15,5,-4,7,8,5,-6,-5
-17,-4,11,14,-15,5,-4,7,8,5,-6,-4
-17,-4,11,14,-15,5,-4,7,7,5,-6,-4
-17,-4,11,14,-15,5,-3,7,6,5,-6,-4
-17,-4,11,14,-15,5,-2,7,6,5,-6,-4
-17,-4,11,14,-15,5,-1,7,5,5,-6,-4
-17,-4,11,14,-15,5,-0,7,4,5,-7,-4
-17,-4,11,14,-15,5,-0,7,4,4,-8,-4
-17,-4,11,14,-15,5,-0,7,4,3,-9,-5
-17,-4,11,14,-15,5,-0,7,4,2,-11,-5
-17,-4,11,14,-15,5,-0,7,4,1,-12,-5
-17,-4,11,14,-15,5,-0,7,4,1,-12,-5
-17,-4,11,14,-15,5,-0,7,4,0,-13,-5
-17,-4,11,14,-15,5,-0,7,4,0,-13,-5
-17,-5,11,14,-15,4,0,7,4,0,-13,-5
-17,-7,9,15,-14,2,1,7,4,0,-13,-5
-17,-9,8,16,-13,0,2,7,4,0,-13,-5
-17,-11,6,17,-13,-1,3,7,4,0,-13,-5
-17,-13,5,19,-12,-3,4,7,3,0,-13,-5
-17,-13,5,19,-12,-3,4,7,3,0,-13,-5
-17,-14,4,19,-11,-4,4,7,2,0,-13,-5
-17,-14,4,19,-11,-4,4,7,1,0,-13,-5
-17,-14,4,19,-11,-4,4,6,0,0,-13,-5
-17,-14,4,19,-11,-4,3,5,0,-1,-13,-5
-17,-14,4,19,-11,-4,2,5,0,-2,-13,-5
-17,-14,4,19,-11,-4,1,4,0,-3,-13,-5
-17,-14,4,19,-11,-4,0,3,-0,-4,-13,-5
-17,-14,4,19,-11,-4,0,3,-1,-4,-13,-5
-17,-14,4,19,-11,-4,-0,3,-2,-5,-13,-5
-17,-14,4,19,-11,-4,-0,3,-3,-5,-13,-5
-17,-14,4,19,-11,-4,-0,3,-4,-5,-13,-5
-17,-14,4,19,-11,-4,-0,3,-5,-6,-13,-5
-17,-14,4,19,-11,-4,-0,3,-5,-7,-13,-5
-17,-14,4,19,-11,-4,-0,3,-6,-8,-13,-5
-17,-14,4,19,-11,-4,-0,3,-7,-9,-13,-5
-17,-14,4,19,-11,-4,-0,3,-7,-9,-13,-5
-17,-14,4,19,-11,-4,-0,3,-7,-10,-13,-5
-17,-14,4,19,-11,-4,-0,3,-7,-10,-13,-5
-17,-14,4,19,-11,-4,-0,3,-7,-10,-13,-5
-17,-14,4,19,-11,-4,-0,3,-7,-10,-15,-5
-17,-14,4,19,-11,-4,-0,3,-7,-10,-16,-5
-17,-14,4,19,-11,-4,-0,3,-7,-10,-18,-5
-17,-14,4,19,-11,-4,-0,3,-8,-10,-19,-5
-17,-14,4,19,-11,-4,-0,3,-8,-10,-19,-5
-17,-14,4,19,-11,-4,-0,3,-9,-10,-19,-5
-17,-14,4,19,-11,-4,-0,3,-10,-10,-19,-5
-17,-14,4,19,-11,-4,-0,3,-11,-10,-19,-5
-17,-14,4,19,-11,-4,-0,3,-11,-10,-19,-5
-17,-14,4,19,-11,-4,-0,3,-11,-10,-19,-5
-17,-14,4,19,-11,-4,-0,3,-11,-10,-19,-5
-17,-15,4,20,-11,-5,-0,3,-11,-10,-19,-5
-17,-17,2,21,-10,-6,-0,3,-11,-10,-19,-5
-17,-18,1,22,-9,-8,-0,3,-11,-10,-19,-5
-17,-21,-1,23,-8,-10,-0,3,-11,-10,-19,-5
-17,-22,-2,24,-8,-12,-0,3,-11,-10,-19,-5
-17,-23,-2,24,-8,-12,-0,3,-11,-10,-19,-5
-17,-23,-2,24,-7,-13,-0,3,-11,-10,-19,-5
-17,-23,-2,24,-7,-13,-0,3,-11,-10,-19,-5
-17,-23,-2,24,-7,-13,-0,3,-11,-10,-19,-5
-17,-23,-2,24,-7,-13,-0,3,-11,-10,-19,-5
-17,-23,-2,24,-7,-13,-0,3,-11,-10,-19,-5
-17,-23,-2,24,-7,-13,-0,3,-11,-10,-19,-5
-17,-23,-2,24,-7,-13,0,3,-11,-10,-19,-5
-17,-23,-2,24,-7,-13,1,3,-11,-10,-19,-5
-17,-23,-2,24,-7,-13,2,3,-11,-10,-19,-5
-17,-23,-2,24,-7,-13,3,3,-11,-10,-19,-5
-17,-23,-2,24,-7,-13,4,3,-11,-10,-19,-5
-17,-23,-2,24,-7,-13,4,3,-11,-10,-19,-5
-17,-23,-2,24,-7,-13,4,3,-11,-10,-19,-5
-17,-23,-2,24,-7,-13,4,3,-11,-10,-19,-5
-17,-23,-2,24,-7,-13,4,3,-11,-10,-19,-5
-17,-23,-2,24,-7,-13,4,3,-11,-10,-19,-5
-17,-23,-2,24,-7,-13,4,3,-11,-10,-19,-5
-17,-23,-2,24,-7,-13,4,3,-11,-10,-19,-5
-17,-22,-2,24,-8,-12,4,2,-11,-10,-19,-5
-17,-20,-0,23,-8,-10,3,2,-11,-10,-19,-5
-17,-18,1,22,-9,-8,2,1,-11,-10,-19,-5
-17,-16,3,20,-10,-6,1,-0,-11,-10,-19,-5
-17,-15,4,20,-11,-5,0,-1,-11,-10,-19,-5
-17,-14,4,19,-11,-4,0,-3,-11,-10,-19,-5
-17,-14,4,19,-11,-4,-0,-5,-11,-10,-19,-5
-17,-14,4,19,-11,-4,-0,-7,-11,-10,-19,-5
-17,-14,4,19,-11,-4,-0,-8,-11,-10,-19,-5
-17,-14,4,19,-11,-4,-0,-9,-11,-10,-19,-5
-17,-14,4,19,-11,-4,-0,-9,-11,-10,-19,-5
-17,-14,4,19,-11,-4,-0,-9,-11,-10,-19,-5
-17,-14,4,19,-11,-4,-0,-9,-11,-10,-19,-5
-17,-14,4,19,-11,-4,-0,-9,-11,-10,-19,-5
-17,-14,4,19,-11,-4,-0,-9,-11,-10,-19,-5
-17,-14,4,19,-11,-4,-0,-9,-11,-10,-19,-5
-17,-14,4,19,-11,-4,-0,-9,-11,-10,-19,-5
-17,-14,4,19,-11,-4,-0,-10,-11,-10,-19,-5
-17,-14,4,19,-11,-4,-0,-11,-11,-10,-19,-5
-17,-14,4,19,-11,-4,-0,-12,-11,-10,-19,-5
-17,-14,4,19,-11,-4,0,-12,-11,-10,-19,-5
-17,-14,4,19,-11,-4,1,-12,-11,-10,-19,-5
-17,-14,4,19,-11,-4,2,-13,-11,-10,-19,-5
-17,-14,4,19,-11,-4,3,-13,-11,-10,-19,-5
-17,-14,4,19,-11,-4,4,-13,-11,-10,-19,-5
-17,-14,4,19,-11,-4,4,-13,-12,-10,-19,-5
-17,-14,4,19,-11,-4,4,-13,-13,-10,-19,-5
-17,-14,4,19,-11,-4,4,-13,-14,-10,-19,-5
-17,-14,4,19,-11,-4,4,-13,-14,-10,-19,-5
-17,-14,4,19,-11,-4,4,-13,-15,-10,-19,-5
-17,-14,4,19,-11,-4,4,-13,-15,-10,-19,-5
-17,-14,4,19,-11,-4,4,-13,-15,-10,-19,-5
-17,-14,4,19,-11,-4,4,-13,-14,-10,-19,-5
-17,-14,4,19,-11,-4,4,-13,-14,-10,-19,-5
-17,-14,4,19,-11,-4,4,-13,-13,-10,-19,-5
-17,-14,4,19,-11,-4,4,-13,-12,-10,-19,-5
-17,-14,4,19,-11,-4,4,-13,-11,-10,-19,-5
-17,-14,4,19,-11,-4,4,-13,-11,-10,-19,-5
-17,-14,4,19,-11,-4,4,-13,-11,-10,-19,-5
-17,-14,4,19,-11,-4,4,-13,-11,-10,-19,-5
-17,-14,4,19,-11,-4,4,-13,-11,-10,-19,-5
-17,-14,4,19,-11,-4,4,-13,-11,-10,-19,-5
-17,-14,4,19,-11,-4,4,-13,-11,-10,-19,-5
-17,-14,4,19,-11,-4,4,-13,-11,-10,-19,-5
-17,-14,4,19,-11,-4,4,-13,-11,-10,-19,-5
-17,-14,4,19,-11,-4,4,-13,-11,-10,-19,-5
-17,-14,4,19,-11,-4,4,-13,-11,-10,-19,-5
-17,-14,4,19,-11,-4,4,-13,-11,-10,-19,-5
-17,-14,4,19,-11,-4,4,-13,-11,-10,-19,-5
-17,-14,4,19,-11,-4,4,-13,-11,-10,-19,-5
-14,-8,6,14,-10,0,4,-11,-8,-6,-12,-4
-9,-1,7,7,-9,4,3,-8,-4,-1,-3,-2
-8,1,7,4,-8,5,3,-7,-2,1,0,-2
-7,2,8,4,-8,6,3,-7,-2,1,1,-2
-7,3,8,3,-8,6,3,-7,-2,2,2,-2
-8,3,8,4,-9,7,3,-7,-2,3,1,-2
-8,2,8,5,-10,6,3,-7,-3,3,0,-2
-9,1,8,5,-10,5,3,-8,-3,3,0,-2
-9,0,8,6,-9,5,3,-8,-4,2,-0,-2
-9,0,8,6,-9,5,3,-8,-4,2,-1,-2
-9,0,8,6,-9,5,3,-8,-5,1,-2,-2
-9,0,8,6,-9,5,3,-9,-5,1,-4,-2
-10,-0,8,7,-10,5,3,-9,-5,0,-7,-2
-10,-1,8,8,-10,4,3,-9,-6,0,-9,-2
-11,-2,8,8,-10,4,3,-9,-7,0,-10,-2
-11,-2,8,8,-10,4,2,-9,-7,0,-11,-2
-11,-2,8,8,-10,4,1,-9,-8,0,-11,-2
-12,-3,8,10,-11,4,-0,-10,-10,-1,-12,-2
-12,-4,7,10,-10,3,-1,-10,-11,-1,-12,-3
-10,-4,6,10,-9,1,-2,-11,-11,-2,-13,-3
-9,-4,4,8,-7,0,-3,-12,-11,-3,-13,-3
-7,-4,3,7,-5,-0,-4,-13,-11,-5,-13,-3
-6,-4,2,6,-4,-1,-5,-13,-11,-5,-13,-3
-5,-4,1,6,-3,-1,-6,-13,-11,-6,-13,-3
-5,-4,1,6,-3,-1,-8,-14,-11,-6,-13,-3
-5,-4,1,6,-3,-1,-9,-14,-12,-6,-14,-3
-5,-4,1,6,-3,-1,-9,-14,-12,-7,-14,-3
-4,-3,1,5,-3,-1,-9,-14,-12,-7,-14,-3
-3,-2,1,4,-2,-0,-10,-14,-12,-7,-14,-3
-4,-2,2,4,-3,0,-9,-14,-12,-7,-14,-3
-5,-2,3,5,-5,1,-9,-14,-12,-7,-14,-3
-6,-2,4,5,-6,1,-9,-14,-12,-7,-14,-3
-7,-2,5,6,-7,2,-9,-14,-12,-7,-14,-3
-9,-2,6,7,-8,3,-9,-14,-12,-7,-14,-3
-11,-3,7,9,-10,3,-9,-14,-12,-7,-14,-3
-12,-4,7,10,-11,3,-9,-14,-13,-7,-14,-3
-12,-4,7,11,-11,3,-9,-14,-14,-7,-15,-3
-13,-4,8,11,-11,3,-9,-14,-15,-7,-16,-2
-13,-5,7,12,-11,2,-9,-14,-15,-7,-16,-2
-13,-7,6,13,-10,0,-8,-14,-16,-7,-16,-2
-13,-9,4,14,-9,-1,-8,-14,-16,-7,-16,-2
-13,-11,3,15,-8,-4,-8,-14,-16,-7,-16,-2
-13,-13,2,16,-8,-5,-7,-14,-16,-7,-16,-2
-13,-13,1,16,-8,-5,-6,-14,-16,-7,-16,-3
-14,-14,2,17,-8,-5,-5,-14,-16,-7,-16,-3
-14,-14,2,17,-9,-5,-4,-14,-15,-7,-16,-3
-15,-14,3,17,-9,-5,-3,-14,-15,-7,-15,-3
-15,-14,3,17,-9,-5,-2,-14,-15,-7,-15,-3
-15,-14,3,17,-9,-5,-1,-14,-15,-7,-14,-3
-15,-14,3,17,-9,-5,-0,-13,-15,-6,-14,-3
-15,-14,3,17,-9,-5,0,-13,-15,-6,-14,-3
-15,-14,3,17,-9,-5,1,-13,-15,-6,-14,-3
-15,-14,3,17,-9,-5,1,-13,-15,-6,-14,-3
-15,-14,3,17,-9,-5,1,-13,-15,-6,-14,-3
-15,-14,3,17,-9,-5,1,-13,-15,-6,-14,-3
-14,-13,3,16,-9,-5,2,-13,-15,-6,-14,-3
-13,-12,3,15,-8,-4,3,-13,-15,-6,-14,-3
-13,-11,3,15,-8,-4,4,-13,-15,-6,-14,-3
-14,-12,3,16,-9,-4,5,-14,-14,-6,-15,-3
-14,-13,3,17,-9,-5,5,-14,-14,-6,-16,-3
-15,-14,3,17,-9,-5,5,-14,-13,-6,-18,-3
-15,-14,3,17,-9,-5,5,-14,-12,-6,-19,-3
-15,-14,3,17,-9,-5,5,-14,-11,-6,-20,-3
-15,-14,3,17,-9,-5,5,-14,-10,-6,-21,-3
-15,-14,3,17,-9,-5,5,-14,-10,-6,-21,-3
-14,-14,2,17,-8,-5,5,-14,-10,-6,-21,-3
-12,-14,1,16,-7,-6,5,-14,-10,-6,-21,-3
-11,-14,-1,15,-5,-7,5,-14,-10,-6,-21,-3
-9,-14,-2,14,-3,-8,5,-14,-10,-6,-21,-3
-7,-14,-4,13,-1,-10,5,-14,-10,-6,-22,-3
-6,-13,-4,11,0,-9,5,-14,-11,-6,-22,-3
-5,-11,-3,10,-0,-8,5,-14,-11,-6,-22,-3
-5,-9,-2,8,-1,-6,5,-14,-11,-6,-22,-3
-5,-7,-1,7,-2,-4,5,-14,-11,-7,-22,-3
-5,-5,0,6,-3,-2,5,-14,-11,-7,-22,-3
-5,-5,1,6,-3,-2,5,-14,-11,-6,-21,-3
-5,-4,1,6,-3,-1,5,-14,-11,-5,-19,-3
-5,-4,1,6,-3,-1,5,-14,-11,-3,-18,-2
-5,-4,1,6,-3,-1,5,-13,-11,-2,-17,-2
-5,-4,1,6,-3,-1,5,-12,-11,-1,-16,-2
-5,-4,1,6,-3,-1,5,-12,-11,0,-16,-2
-5,-4,1,6,-3,-1,5,-11,-11,2,-16,-2
-5,-4,1,6,-3,-1,5,-10,-11,2,-16,-2
-5,-4,1,6,-3,-1,5,-10,-11,3,-16,-2
-5,-4,1,6,-3,-1,5,-10,-11,3,-16,-2
-5,-4,1,6,-3,-1,5,-10,-11,3,-16,-2
-5,-4,1,6,-3,-1,5,-10,-11,3,-16,-2
-5,-4,1,6,-3,-1,5,-10,-10,4,-16,-2
-5,-4,1,6,-3,-1,5,-10,-9,5,-16,-2
-5,-4,1,6,-3,-1,5,-10,-9,7,-16,-2
-5,-4,1,6,-3,-1,5,-10,-8,7,-16,-2
-5,-5,0,6,-3,-2,5,-10,-8,8,-16,-2
-5,-6,-0,7,-2,-3,5,-10,-8,8,-16,-2
-5,-7,-1,7,-2,-4,5,-10,-8,8,-16,-2
-5,-7,-1,7,-2,-4,5,-10,-8,8,-16,-2
-5,-6,0,6,-3,-3,5,-10,-8,8,-16,-2
-5,-5,1,6,-3,-2,5,-10,-8,8,-16,-2
-5,-4,1,6,-3,-1,5,-10,-8,8,-16,-2
-5,-3,2,5,-3,-0,5,-10,-8,8,-16,-2
-5,-1,3,4,-4,1,5,-10,-8,8,-16,-2
-6,0,5,4,-6,3,5,-10,-8,8,-16,-2
-6,1,6,4,-7,4,5,-10,-8,8,-16,-2
-7,2,7,3,-8,6,5,-10,-9,7,-16,-3
-7,3,8,3,-8,6,5,-10,-9,6,-16,-3
-7,3,8,3,-8,6,5,-10,-10,4,-16,-3
-7,3,8,3,-8,6,5,-10,-11,3,-16,-4
-7,2,7,4,-8,5,5,-10,-12,2,-16,-4
-7,0,6,5,-7,4,5,-11,-13,2,-16,-4
-7,-2,4,6,-6,2,5,-12,-13,2,-16,-4
-7,-4,3,7,-5,-0,5,-13,-13,2,-16,-4
-7,-6,2,8,-5,-2,5,-14,-13,2,-17,-4
-7,-6,1,8,-4,-2,4,-14,-13,2,-19,-4
-7,-7,1,8,-4,-3,3,-14,-13,2,-21,-4
-7,-7,1,8,-4,-3,2,-15,-13,2,-22,-4
-7,-7,1,8,-4,-3,1,-15,-13,1,-23,-4
-7,-7,1,8,-4,-3,1,-15,-13,0,-24,-4
-7,-7,1,8,-4,-3,1,-15,-14,-1,-24,-4
-7,-7,1,8,-4,-3,1,-15,-14,-2,-24,-4
-7,-7,1,8,-4,-3,1,-15,-14,-3,-24,-4
-7,-7,1,8,-4,-3,1,-15,-15,-4,-24,-4
-7,-7,1,8,-4,-3,1,-15,-16,-4,-24,-4
-7,-7,1,8,-4,-3,1,-15,-17,-5,-24,-4
-7,-7,1,8,-4,-3,1,-15,-17,-5,-24,-4
-7,-7,1,8,-4,-3,1,-15,-17,-4,-24,-4
-7,-7,1,8,-4,-3,1,-15,-18,-4,-24,-4
-7,-7,1,8,-4,-3,1,-15,-18,-3,-24,-4
-7,-8,0,9,-4,-4,1,-15,-18,-3,-24,-4
-7,-9,-1,10,-3,-5,1,-15,-17,-2,-24,-4
-7,-11,-2,11,-2,-7,1,-15,-17,-1,-24,-4
-7,-14,-4,13,-1,-10,1,-15,-17,0,-24,-4
-7,-15,-5,13,-0,-11,2,-15,-17,1,-24,-4
-7,-16,-5,14,0,-11,2,-15,-17,1,-24,-4
-7,-16,-6,14,0,-12,2,-15,-17,2,-24,-4
-7,-16,-6,14,0,-12,2,-15,-17,2,-24,-5
-7,-16,-6,14,0,-12,2,-15,-17,2,-24,-5
-7,-16,-6,14,0,-12,1,-15,-17,2,-24,-5
-7,-16,-6,14,0,-12,-0,-15,-17,2,-24,-5
-7,-16,-6,14,0,-12,-2,-15,-17,2,-24,-5
-7,-16,-6,14,0,-12,-3,-15,-17,1,-24,-5
-7,-16,-6,14,0,-12,-3,-15,-17,1,-24,-5
-7,-16,-6,14,0,-12,-3,-15,-16,0,-24,-5
-7,-16,-6,14,0,-12,-3,-16,-15,0,-24,-5
-6,-15,-6,13,0,-11,-3,-16,-14,0,-24,-5
-4,-13,-6,11,1,-10,-2,-16,-14,0,-24,-5
-3,-11,-6,8,2,-10,-1,-16,-14,0,-24,-5
-1,-9,-6,6,3,-8,-0,-16,-14,0,-24,-5
0,-8,-6,4,4,-8,0,-16,-14,0,-24,-5
0,-8,-6,4,4,-8,1,-16,-14,0,-24,-5
-0,-9,-6,5,3,-8,1,-16,-14,0,-24,-5
-1,-9,-6,6,3,-8,1,-16,-14,0,-24,-5
0,-9,-6,5,4,-9,0,-16,-14,1,-24,-5
2,-9,-8,4,6,-10,0,-16,-14,2,-24,-5
3,-9,-9,3,8,-10,-0,-16,-14,3,-24,-5
5,-9,-11,2,10,-12,-0,-16,-14,4,-24,-5
6,-9,-12,1,11,-12,-0,-15,-14,5,-23,-5
7,-9,-12,1,11,-13,-0,-14,-13,5,-22,-5
6,-9,-12,1,11,-12,-0,-14,-12,5,-21,-5
6,-9,-11,2,10,-12,-1,-13,-11,5,-19,-5
6,-9,-12,2,10,-12,-1,-13,-11,5,-18,-5
7,-9,-13,1,12,-13,-1,-13,-10,5,-18,-5
9,-9,-14,-1,13,-14,-1,-13,-10,5,-18,-5
11,-9,-16,-2,15,-15,-1,-13,-10,5,-18,-5
12,-9,-17,-3,17,-16,-1,-13,-10,5,-18,-5
12,-9,-17,-3,17,-16,-1,-13,-10,5,-18,-5
13,-9,-17,-3,18,-16,-1,-14,-10,5,-18,-5
13,-9,-17,-3,18,-16,-1,-14,-10,5,-18,-5
13,-9,-17,-3,18,-16,-1,-14,-11,5,-18,-5
13,-9,-17,-3,18,-16,-1,-14,-11,5,-20,-5
13,-10,-18,-3,18,-17,-1,-15,-11,5,-21,-5
13,-11,-19,-2,18,-18,-1,-15,-11,5,-23,-5
13,-11,-19,-2,18,-18,-1,-15,-11,5,-25,-5
13,-11,-19,-2,18,-18,-1,-15,-12,4,-25,-5
13,-11,-19,-2,18,-18,-2,-15,-12,4,-26,-5
14,-11,-20,-2,19,-19,-2,-15,-12,4,-27,-5
14,-10,-20,-3,20,-18,-2,-15,-13,4,-27,-5
15,-9,-19,-5,19,-17,-2,-15,-13,4,-25,-5
15,-7,-17,-6,18,-15,-2,-15,-13,4,-24,-5
14,-4,-15,-6,17,-12,-2,-15,-13,4,-22,-5
12,-3,-13,-6,14,-10,-2,-14,-12,5,-21,-5
11,-2,-11,-6,13,-9,-2,-14,-12,6,-20,-5
12,-2,-12,-7,14,-9,-3,-14,-12,7,-20,-5
14,-0,-12,-8,15,-9,-4,-14,-12,8,-21,-5
15,1,-12,-10,15,-8,-5,-15,-12,10,-20,-5
16,-2,-15,-10,18,-11,-5,-14,-11,11,-19,-5
17,-6,-18,-7,20,-15,-5,-13,-10,11,-18,-5
17,-9,-20,-6,21,-18,-4,-13,-11,12,-18,-5
13,-14,-21,0,20,-21,-3,-12,-11,12,-18,-4
5,-24,-21,11,15,-26,-0,-12,-10,12,-18,-4
3,-24,-19,12,13,-25,2,-11,-10,7,-26,-4
1,-14,-11,8,7,-14,3,-8,-11,7,-26,-5
1,-19,-14,11,9,-19,6,-4,-8,8,-28,-6
-7,-19,-7,16,1,-14,9,-0,0,9,-23,-5
-13,-28,-9,25,-1,-20,13,2,2,10,-24,-5
-19,-33,-7,32,-5,-21,11,2,2,10,-26,-6
-27,-35,-2,38,-13,-19,11,-0,2,8,-31,-6
-27,-40,-6,41,-10,-23,7,-6,1,10,-34,-6
-3,-21,-13,14,6,-19,-6,-20,-2,17,-23,-6
-1,0,1,1,-1,0,-20,-38,-7,28,-3,-3
23,14,-9,-23,18,0,-30,-52,-9,42,16,-0
43,28,-16,-44,32,3,-44,-67,-16,47,37,2
63,38,-26,-63,49,0,-60,-83,-29,53,57,5
93,64,-33,-97,68,8,-72,-94,-32,66,86,8
137,99,-45,-146,99,17,-86,-112,-41,78,114,12
173,135,-50,-190,121,31,-105,-124,-42,97,147,16
216,184,-50,-245,143,55,-123,-136,-44,122,192,22
290,220,-87,-314,204,47,-149,-157,-57,136,231,28
326,241,-103,-350,232,47,-178,-185,-85,136,262,33
344,263,-103,-373,242,57,-213,-218,-116,127,280,39
388,263,-140,-403,288,32,-241,-245,-146,106,277,41
396,253,-154,-403,300,19,-257,-262,-178,78,261,42
388,227,-165,-383,303,-2,-259,-272,-206,40,233,40
388,213,-176,-375,310,-16,-263,-279,-229,-4,195,39
364,201,-164,-352,290,-13,-270,-286,-251,-45,151,36
342,142,-188,-305,293,-57,-269,-288,-269,-100,98,32
298,83,-193,-243,273,-89,-241,-271,-277,-143,23,25
242,71,-154,-199,220,-69,-210,-246,-260,-162,-11,20
190,71,-109,-164,166,-39,-183,-220,-233,-143,-18,18
139,66,-70,-129,116,-16,-161,-199,-202,-125,-28,14
109,66,-45,-109,84,1,-138,-175,-164,-98,-21,13
79,71,-16,-92,51,23,-119,-150,-128,-65,-8,12
65,66,-7,-79,38,26,-96,-123,-99,-44,-8,9
55,69,3,-75,27,35,-80,-102,-80,-32,-11,7
39,52,4,-55,18,28,-66,-85,-64,-20,-15,4
19,35,10,-32,4,23,-53,-61,-47,-12,-10,2
15,19,1,-20,7,10,-39,-47,-35,-7,-11,1
7,14,4,-12,1,10,-26,-37,-26,-2,-13,-1
1,5,3,-3,-1,4,-20,-30,-20,5,-16,-2
-1,0,1,1,-1,0,-14,-25,-15,8,-23,-3
-13,-7,6,13,-10,0,-14,-25,-14,5,-23,-5
-7,-12,-2,12,-2,-7,-11,-23,-13,5,-26,-5
-9,-24,-9,20,1,-18,-6,-16,-8,5,-26,-6
-12,-23,-7,21,-2,-16,-2,-14,-7,2,-27,-6
-12,-23,-6,22,-3,-16,0,-11,-6,1,-27,-6
-14,-23,-5,23,-4,-15,1,-9,-5,2,-27,-5
-17,-23,-2,24,-8,-13,2,-7,-5,2,-28,-6
-20,-25,-1,27,-10,-13,3,-6,-5,1,-29,-6
-20,-27,-3,29,-8,-16,3,-6,-5,-0,-31,-6
-19,-32,-6,31,-6,-20,2,-7,-6,-2,-35,-7
-20,-37,-9,34,-5,-24,3,-6,-6,-2,-36,-7
-22,-40,-10,37,-5,-26,4,-6,-5,-2,-36,-7
-22,-36,-7,35,-7,-22,5,-5,-4,-2,-35,-7
-23,-29,-1,32,-11,-15,5,-4,-2,-2,-33,-7
-24,-25,3,30,-15,-10,5,-3,-1,-1,-31,-7
-25,-23,5,29,-16,-8,6,-3,-0,-1,-30,-7
-24,-21,5,28,-15,-7,7,-2,0,-1,-29,-7
-23,-23,3,29,-14,-9,8,-1,0,-1,-30,-7
-23,-27,0,30,-12,-13,9,-0,-0,-1,-30,-7
-24,-29,-1,32,-12,-15,11,0,-0,-2,-31,-7
-25,-30,0,33,-13,-15,11,1,0,-4,-31,-7
-27,-30,1,34,-14,-14,11,1,1,-6,-32,-8
-27,-30,1,35,-15,-14,12,1,3,-7,-32,-8
-26,-30,0,34,-14,-15,12,1,3,-8,-32,-8
-24,-30,-1,33,-12,-16,12,1,4,-8,-32,-8
-23,-30,-2,32,-10,-16,13,2,4,-7,-32,-8
-21,-30,-4,31,-8,-17,13,2,4,-7,-32,-8
-20,-30,-5,30,-7,-18,13,2,4,-7,-32,-8
-19,-30,-5,30,-7,-18,13,2,4,-7,-32,-8
-19,-31,-6,30,-6,-20,14,2,5,-7,-32,-8
-19,-32,-7,31,-5,-21,14,2,5,-7,-32,-8
-20,-33,-7,32,-6,-21,13,2,4,-8,-33,-8
-22,-33,-5,33,-8,-19,13,3,4,-9,-34,-8
-24,-33,-3,35,-11,-18,12,3,3,-11,-34,-8
-27,-34,-1,37,-13,-17,11,3,2,-12,-34,-8
-28,-35,-1,38,-14,-17,9,3,1,-13,-34,-9
-29,-35,-1,39,-14,-18,8,3,1,-15,-34,-9
-29,-35,-1,39,-15,-17,8,3,1,-16,-34,-9
-29,-35,-1,39,-15,-17,7,3,1,-17,-34,-9
-29,-36,-1,39,-14,-18,6,3,1,-18,-35,-9
-29,-38,-3,41,-13,-20,7,3,1,-18,-36,-9
-29,-40,-4,42,-13,-22,7,2,1,-19,-38,-9
-29,-42,-6,43,-11,-24,7,1,1,-19,-40,-9
-30,-44,-7,45,-11,-26,7,1,1,-20,-41,-9
-31,-46,-7,46,-11,-27,7,1,0,-21,-42,-9
-31,-46,-7,47,-12,-27,8,1,-1,-22,-42,-9
-31,-45,-6,46,-12,-26,8,1,-2,-24,-42,-9
-31,-44,-6,46,-13,-26,8,1,-2,-25,-42,-9
-31,-44,-6,46,-13,-26,8,2,-2,-26,-42,-9
-31,-44,-6,46,-13,-26,8,2,-3,-26,-42,-9
-31,-45,-6,46,-12,-26,8,2,-3,-26,-42,-9
-31,-45,-6,46,-12,-26,8,2,-2,-27,-42,-9
-31,-44,-5,46,-13,-25,8,2,-2,-27,-42,-9
-31,-42,-4,44,-13,-23,8,2,-2,-27,-42,-9
-31,-40,-2,43,-15,-21,8,3,-2,-27,-42,-9
-31,-38,-1,42,-15,-20,8,3,-2,-27,-42,-9
-31,-38,-1,42,-15,-19,8,3,-2,-27,-42,-9
-31,-37,-1,41,-15,-19,8,3,-2,-27,-42,-9
-31,-37,-1,41,-15,-19,8,3,-2,-27,-42,-9
-31,-38,-1,42,-15,-20,8,3,-1,-28,-42,-9
-31,-40,-3,43,-14,-21,8,4,-1,-28,-42,-9
-31,-42,-4,44,-13,-23,8,4,-1,-29,-42,-9
-31,-44,-6,46,-13,-26,8,4,-0,-30,-42,-9
-31,-46,-7,47,-12,-27,9,5,0,-30,-42,-9
-31,-46,-7,47,-12,-27,9,5,0,-31,-42,-9
-31,-47,-7,47,-11,-28,9,5,0,-30,-42,-9
-32,-47,-7,48,-12,-27,9,5,1,-30,-42,-9
-33,-47,-5,49,-14,-26,10,6,1,-30,-42,-9
-35,-47,-4,50,-15,-26,10,6,1,-30,-42,-9
-37,-47,-2,51,-18,-24,11,6,2,-29,-42,-9
-39,-47,-1,52,-20,-23,11,7,2,-29,-42,-9
-40,-47,0,53,-21,-22,11,7,3,-28,-42,-9
-41,-47,1,53,-21,-22,11,7,3,-28,-42,-9
-41,-47,1,53,-22,-22,12,8,4,-28,-42,-9
-41,-47,1,53,-22,-22,12,8,4,-27,-42,-9
-41,-47,1,53,-22,-22,12,8,5,-27,-41,-9
-41,-47,1,53,-22,-22,13,9,5,-27,-41,-9
-41,-47,1,53,-22,-22,14,9,5,-26,-40,-9
-41,-47,1,53,-22,-22,15,10,6,-26,-40,-9
-41,-46,2,53,-22,-21,16,10,7,-25,-40,-9
-41,-45,2,52,-23,-20,17,10,7,-25,-39,-9
-41,-44,3,52,-23,-20,18,11,8,-25,-39,-9
-41,-44,3,52,-23,-20,19,11,8,-24,-39,-9
-41,-44,3,52,-23,-20,20,12,9,-24,-38,-9
-41,-44,3,52,-23,-20,21,13,11,-23,-37,-9
-41,-44,3,52,-23,-20,23,14,12,-22,-37,-9
-41,-44,3,52,-23,-20,24,16,14,-22,-36,-9
-41,-43,4,51,-23,-18,25,17,15,-21,-35,-9
-41,-40,6,50,-25,-16,25,18,16,-19,-34,-9
-40,-37,7,48,-25,-13,26,18,17,-17,-34,-9
-39,-35,8,46,-25,-11,26,19,18,-15,-32,-8
-39,-33,10,44,-26,-10,26,19,19,-13,-31,-8
-39,-31,11,43,-27,-8,26,20,20,-13,-30,-8
-39,-30,12,42,-27,-7,26,21,21,-12,-29,-8
-39,-28,13,42,-28,-5,27,22,22,-11,-29,-8
-38,-27,13,41,-28,-5,27,22,23,-11,-28,-8
-37,-26,13,39,-28,-4,27,23,24,-10,-27,-8
-37,-23,15,38,-28,-1,28,24,25,-8,-26,-8
-36,-21,16,35,-28,0,28,25,26,-7,-25,-8
-35,-19,15,34,-27,0,28,26,28,-6,-24,-8
-33,-18,15,32,-26,1,27,28,29,-5,-22,-8
-30,-16,14,29,-24,1,27,31,31,-3,-21,-7
-27,-15,12,26,-21,0,27,33,32,-2,-19,-7
-24,-13,11,23,-19,0,26,35,34,-0,-17,-7
-22,-11,11,21,-18,1,25,36,36,1,-14,-7
-21,-10,11,20,-18,2,25,37,38,3,-11,-7
-21,-9,12,19,-18,3,24,39,39,5,-8,-7
-20,-6,13,16,-18,5,24,40,41,6,-6,-6
-19,-2,15,14,-19,8,23,41,43,8,-4,-6
-18,1,16,12,-20,11,22,41,44,10,-2,-6
-17,5,18,8,-20,15,22,42,46,12,0,-6
-16,9,20,6,-21,18,22,42,48,14,1,-6
-15,11,20,4,-20,19,21,43,50,16,2,-5
-14,12,20,2,-20,19,21,44,52,18,3,-5
-12,14,20,0,-18,20,21,46,54,20,3,-5
-8,17,19,-4,-16,21,21,47,55,22,4,-5
-6,18,18,-6,-14,20,21,48,57,24,6,-4
-4,18,16,-7,-12,19,21,49,58,26,8,-4
-2,18,15,-9,-10,19,21,50,60,28,11,-4
-1,19,15,-10,-10,19,21,51,62,30,13,-4
-1,21,16,-11,-10,21,21,52,63,31,16,-3
0,24,17,-13,-10,22,21,53,65,31,18,-3
0,26,19,-14,-12,25,21,54,66,32,21,-3
0,28,20,-16,-13,27,21,54,67,33,23,-3
2,31,21,-18,-12,28,22,55,68,35,26,-3
3,33,21,-21,-11,30,22,56,69,36,28,-3
5,35,21,-23,-10,31,23,56,70,38,30,-2
7,39,22,-26,-10,33,23,57,71,39,32,-2
9,42,23,-29,-10,35,23,57,72,41,34,-2
11,45,23,-32,-9,37,23,57,73,43,36,-2
12,46,23,-34,-8,37,22,57,74,44,39,-2
13,48,23,-35,-8,38,22,57,75,45,41,-1
15,50,23,-38,-7,39,22,58,75,47,42,-1
17,52,23,-40,-5,40,23,58,76,48,44,-1
19,54,23,-43,-5,42,23,58,76,49,46,-0
20,56,23,-44,-4,42,24,57,77,49,47,-0
20,56,23,-44,-3,42,24,57,77,51,49,0
21,55,22,-44,-3,41,25,57,77,52,50,0
22,54,21,-44,-2,40,25,57,77,53,52,1
22,55,21,-46,-1,40,25,57,77,53,54,1
24,57,21,-48,-0,41,24,57,77,54,55,1
27,59,20,-50,2,41,24,57,76,54,57,1
28,60,19,-52,3,41,23,57,76,55,58,2
30,61,19,-54,4,42,22,57,75,56,59,2
33,65,18,-58,6,43,21,56,74,57,60,2
37,68,18,-62,8,45,20,55,73,58,60,3
39,71,18,-66,10,46,19,53,72,58,61,3
42,72,17,-68,11,46,18,52,71,59,62,3
43,73,16,-69,13,45,16,50,70,59,63,3
45,73,15,-70,14,45,15,48,69,58,64,4
45,73,15,-70,14,45,14,46,69,57,65,4
46,73,14,-71,15,44,13,45,67,56,66,4
47,74,13,-73,16,44,12,44,65,54,65,4
49,75,13,-74,18,44,11,42,63,52,64,4
51,76,11,-76,20,44,9,42,61,50,63,3
52,76,10,-77,21,43,8,40,59,49,62,3
53,76,10,-77,21,43,8,38,58,48,61,3
53,76,10,-77,22,42,8,38,57,48,60,4
53,76,10,-77,22,42,7,38,57,48,60,4
53,76,10,-77,22,42,7,38,57,48,60,4
53,76,10,-77,22,42,7,38,57,48,60,4
53,76,10,-77,22,42,7,38,57,48,60,4
52,72,8,-75,22,40,5,33,53,44,59,4
50,68,7,-71,22,37,1,27,47,38,56,5
49,67,6,-70,22,36,-0,25,45,36,56,5
49,66,6,-69,22,36,-1,24,45,36,55,5
48,65,6,-68,21,35,-1,24,43,35,55,5
46,63,6,-66,20,35,-2,23,41,32,52,5
43,60,6,-62,19,32,-2,21,38,29,49,5
41,55,5,-58,18,30,-2,19,36,27,46,4
39,53,5,-55,17,28,-2,17,33,24,43,4
37,50,4,-52,16,26,-2,16,30,21,39,3
35,46,4,-49,16,25,-2,14,28,18,36,3
33,43,3,-46,15,22,-2,13,26,15,33,2
31,40,2,-42,15,21,-3,12,23,13,29,1
29,36,1,-39,14,18,-3,10,22,11,27,1
27,33,1,-36,13,16,-3,9,20,9,24,1
25,31,1,-33,12,15,-3,7,18,7,21,0
24,28,0,-31,12,14,-3,6,17,5,20,0
22,26,0,-29,11,12,-4,4,15,3,17,-0
19,24,1,-26,10,11,-6,3,14,2,15,-0
18,22,1,-24,8,11,-7,2,13,1,14,-1
17,22,1,-23,8,11,-7,2,12,1,13,-1
17,21,1,-23,8,10,-8,2,12,0,13,-1
17,21,1,-23,8,10,-8,2,12,0,13,-1
17,21,1,-23,8,10,-8,2,12,0,13,-1
17,21,1,-23,8,10,-8,2,12,0,13,-1
16,17,-1,-20,9,7,-8,0,9,-4,6,-1
14,10,-4,-14,10,2,-9,-1,5,-9,-3,-3
13,8,-5,-13,10,0,-9,-2,4,-11,-6,-3
13,8,-5,-12,10,0,-10,-2,3,-12,-7,-3
12,7,-5,-11,9,-0,-9,-2,3,-12,-7,-3
9,5,-4,-8,8,-1,-9,-2,3,-13,-8,-3
8,3,-4,-6,7,-2,-9,-2,3,-15,-8,-3
7,0,-5,-4,7,-4,-9,-2,3,-16,-8,-3
5,-1,-5,-3,6,-4,-9,-2,3,-17,-8,-3
2,-2,-4,0,4,-4,-9,-2,4,-17,-8,-3
-0,-4,-2,3,1,-4,-9,-2,5,-17,-8,-3
-3,-4,-1,4,-1,-3,-9,-2,6,-17,-8,-3
-4,-4,0,5,-2,-2,-9,-2,6,-17,-10,-3
-4,-4,1,5,-3,-2,-9,-2,6,-17,-11,-4
-5,-4,1,6,-3,-1,-8,-2,7,-17,-13,-4
-5,-4,1,6,-3,-1,-8,-2,7,-17,-14,-4
-5,-4,1,6,-3,-1,-8,-2,7,-17,-15,-4
-5,-4,1,6,-3,-1,-8,-1,7,-17,-16,-4
-5,-4,1,6,-3,-1,-8,-0,7,-17,-16,-5
-6,-4,2,6,-4,-1,-8,1,7,-17,-16,-4
-6,-4,2,7,-5,-0,-7,2,7,-17,-16,-4
-7,-4,3,7,-5,-0,-6,3,7,-16,-15,-4
-7,-4,3,7,-5,-0,-5,4,8,-15,-15,-4
-7,-4,3,7,-5,-0,-4,5,8,-13,-14,-4
-8,-4,3,7,-6,0,-3,6,8,-12,-14,-4
-9,-4,5,8,-8,1,-1,6,9,-11,-14,-4
-11,-4,6,10,-9,2,1,6,9,-11,-14,-4
-13,-4,8,11,-11,3,3,7,10,-11,-14,-4
-14,-4,9,12,-13,4,5,7,11,-11,-14,-4
-14,-4,9,12,-13,4,5,8,11,-11,-12,-4
-14,-3,10,11,-13,5,5,9,11,-11,-11,-4
-13,-2,10,10,-13,5,5,9,11,-11,-9,-4
-13,-2,10,10,-13,5,6,9,12,-11,-8,-4
-14,-3,10,11,-13,5,6,10,12,-11,-8,-5
-14,-4,10,12,-13,4,7,10,13,-11,-8,-5
-15,-4,10,12,-13,4,8,10,14,-11,-8,-5
-14,-4,9,12,-13,4,9,10,15,-11,-8,-5
-12,-4,7,11,-11,3,9,10,16,-11,-8,-5
-11,-4,6,10,-9,2,9,10,16,-11,-8,-5
-9,-4,4,8,-7,0,9,10,16,-11,-8,-5
-7,-4,3,7,-5,-0,9,10,16,-10,-8,-5
-6,-4,2,6,-4,-1,9,11,16,-9,-8,-5
-5,-4,1,6,-3,-1,9,11,16,-8,-8,-5
-5,-4,1,6,-3,-1,9,12,16,-7,-8,-5
-5,-4,1,6,-3,-1,10,13,16,-6,-9,-5
-5,-4,1,6,-3,-1,11,13,16,-6,-9,-5
-5,-4,1,6,-3,-1,12,13,15,-6,-9,-5
-5,-4,1,6,-3,-1,13,13,15,-6,-9,-5
-5,-4,1,6,-3,-1,13,13,15,-7,-9,-5
-5,-4,1,6,-3,-1,14,13,15,-7,-9,-5
-5,-4,1,6,-3,-1,14,13,15,-7,-9,-5
-5,-4,1,6,-3,-1,14,13,15,-7,-9,-5
-5,-4,1,6,-3,-1,14,13,15,-7,-9,-5
-5,-4,1,6,-3,-1,14,13,15,-7,-9,-5
-5,-4,1,6,-3,-1,14,13,15,-7,-9,-5
-5,-4,1,6,-3,-1,14,13,15,-7,-9,-5
-5,-4,1,6,-3,-1,13,13,15,-7,-9,-5
-5,-4,1,6,-3,-1,13,12,15,-7,-9,-5
-5,-4,1,6,-3,-1,12,11,15,-7,-9,-5
-5,-4,1,6,-3,-1,11,10,15,-7,-9,-5
-5,-4,1,6,-3,-1,10,10,15,-8,-9,-5
-5,-4,1,6,-3,-1,10,10,14,-9,-9,-5
-5,-4,1,6,-3,-1,9,10,13,-10,-9,-5
-5,-4,1,6,-3,-1,9,10,12,-11,-9,-5
-5,-4,1,6,-3,-1,9,10,11,-12,-9,-5
-5,-4,1,6,-3,-1,9,10,11,-12,-9,-5
-5,-5,0,6,-3,-2,9,10,11,-12,-9,-5
-5,-6,-0,7,-2,-3,9,10,10,-12,-9,-5
-5,-7,-1,7,-2,-4,9,9,10,-12,-9,-5
-5,-7,-1,7,-2,-4,9,8,10,-12,-9,-5
-5,-6,0,6,-3,-3,9,8,10,-12,-9,-5
-5,-5,1,6,-3,-2,9,7,10,-12,-9,-5
-5,-4,1,6,-3,-1,9,6,10,-12,-9,-5
-5,-4,1,6,-3,-1,8,6,9,-12,-9,-5
-5,-4,1,6,-3,-1,7,6,8,-12,-9,-5
-6,-5,1,7,-3,-2,6,6,8,-12,-9,-5
-6,-6,1,8,-4,-2,6,6,7,-12,-10,-5
-7,-7,1,8,-4,-3,5,6,7,-13,-11,-5
-7,-7,1,8,-4,-3,5,6,7,-13,-13,-5
-7,-7,1,8,-4,-3,5,6,7,-13,-14,-5
-7,-7,1,8,-4,-3,5,6,7,-13,-15,-5
-7,-7,1,8,-4,-3,5,6,6,-13,-16,-5
-7,-7,1,8,-4,-3,5,6,6,-13,-16,-5
-7,-7,1,8,-4,-3,5,6,6,-13,-16,-5
-7,-7,1,8,-4,-3,5,5,5,-14,-16,-5
-7,-7,1,8,-4,-3,5,4,5,-15,-17,-5
-7,-7,1,8,-4,-3,5,3,4,-16,-17,-6
-7,-7,1,8,-4,-3,5,2,3,-17,-18,-6
-8,-7,2,9,-5,-2,5,1,2,-18,-18,-6
-9,-7,3,10,-7,-1,5,-0,1,-18,-18,-6
-11,-7,4,11,-8,-0,5,-1,-0,-18,-18,-6
-13,-7,6,12,-10,0,5,-2,-2,-18,-18,-7
-14,-7,7,13,-12,1,5,-3,-2,-18,-18,-7
-14,-7,7,13,-12,1,5,-3,-2,-19,-20,-7
-15,-7,8,14,-13,2,5,-3,-3,-19,-21,-7
-15,-7,8,14,-13,2,5,-3,-3,-20,-22,-7
-15,-8,7,14,-12,1,5,-3,-3,-20,-23,-7
-15,-9,6,15,-11,-1,5,-3,-4,-20,-24,-7
-15,-11,4,16,-10,-3,5,-3,-5,-19,-24,-7
-15,-14,3,17,-9,-5,5,-3,-5,-19,-24,-7
-15,-15,2,19,-9,-6,5,-3,-6,-18,-24,-7
-15,-16,1,19,-8,-7,5,-3,-6,-18,-24,-7
-15,-16,1,19,-8,-7,5,-3,-6,-18,-24,-7
-15,-16,1,19,-8,-7,5,-3,-6,-18,-24,-7
-15,-16,1,19,-8,-7,6,-3,-5,-19,-24,-7
-15,-16,1,19,-8,-7,6,-4,-5,-20,-24,-7
-15,-16,1,19,-8,-7,6,-5,-5,-21,-24,-7
-15,-16,1,19,-8,-7,6,-6,-5,-22,-24,-7
-15,-16,1,19,-8,-7,6,-6,-5,-23,-24,-7
-15,-16,1,19,-8,-7,6,-7,-5,-23,-24,-7
-15,-16,1,19,-8,-7,6,-7,-5,-23,-24,-7
-15,-16,1,19,-8,-7,6,-7,-6,-23,-24,-7
-15,-16,1,19,-8,-7,6,-7,-6,-23,-24,-7
-15,-16,1,19,-8,-7,5,-7,-6,-24,-24,-7
-15,-16,1,19,-8,-7,5,-7,-6,-24,-24,-7
-15,-16,1,19,-8,-7,5,-8,-6,-25,-24,-7
-15,-16,1,19,-8,-7,5,-8,-6,-25,-24,-7
-15,-16,1,19,-8,-7,5,-8,-6,-25,-24,-7
-15,-16,1,19,-8,-7,5,-8,-6,-25,-24,-7
-15,-16,1,19,-8,-7,5,-8,-6,-25,-24,-7
-15,-16,1,19,-8,-7,5,-8,-6,-25,-24,-7
-15,-16,1,19,-8,-7,5,-8,-6,-25,-24,-7
-16,-17,1,20,-9,-8,5,-8,-6,-25,-24,-7
-16,-18,1,21,-9,-8,5,-8,-6,-25,-24,-7
-17,-18,1,22,-9,-8,5,-8,-6,-25,-24,-7
-17,-18,1,22,-9,-8,5,-8,-6,-25,-24,-7
-17,-18,1,22,-9,-8,4,-8,-6,-25,-24,-7
-17,-18,1,22,-9,-8,4,-8,-6,-25,-24,-7
-18,-18,2,22,-10,-8,4,-8,-6,-25,-24,-7
-19,-18,3,23,-12,-7,4,-9,-6,-25,-24,-7
-21,-18,4,24,-13,-6,4,-10,-6,-25,-24,-7
-24,-18,7,26,-16,-5,4,-11,-6,-25,-24,-7
-26,-18,8,28,-18,-3,3,-12,-7,-25,-24,-7
-27,-18,9,28,-19,-3,3,-12,-8,-25,-24,-7
-27,-18,10,28,-20,-3,3,-13,-8,-25,-24,-7
-27,-18,10,28,-20,-3,3,-13,-9,-25,-24,-7
-27,-18,10,28,-20,-3,3,-13,-10,-25,-24,-7
-27,-18,10,28,-20,-3,3,-13,-10,-25,-24,-7
-27,-18,10,28,-20,-3,3,-13,-10,-25,-24,-7
-27,-18,10,28,-20,-3,3,-14,-10,-25,-24,-7
-27,-18,10,28,-20,-3,3,-14,-10,-25,-24,-7
-27,-18,10,28,-20,-3,3,-14,-11,-25,-24,-7
-27,-18,10,28,-20,-3,3,-14,-11,-25,-24,-7
-27,-19,9,29,-19,-4,3,-15,-11,-25,-24,-7
-26,-20,7,29,-18,-5,3,-15,-11,-25,-25,-7
-24,-21,6,28,-16,-6,2,-15,-11,-25,-27,-7
-23,-21,4,27,-15,-7,1,-15,-12,-26,-29,-7
-21,-21,3,25,-13,-8,-0,-15,-12,-26,-31,-7
-19,-21,1,24,-10,-10,-2,-15,-12,-26,-33,-7
-18,-21,0,23,-9,-10,-2,-15,-13,-26,-34,-7
-17,-21,-0,23,-9,-10,-2,-15,-13,-26,-34,-8
-17,-21,-1,23,-8,-10,-2,-15,-13,-26,-34,-8
-18,-21,0,23,-9,-10,-2,-15,-13,-26,-33,-8
-19,-21,1,24,-11,-9,-1,-14,-12,-26,-32,-8
-20,-21,2,25,-12,-9,-1,-14,-12,-26,-29,-8
-19,-21,1,24,-11,-9,-1,-14,-12,-26,-28,-8
-18,-19,1,23,-10,-9,-1,-14,-12,-26,-28,-8
-16,-17,2,21,-10,-7,0,-15,-12,-25,-27,-8
-15,-18,0,20,-8,-9,1,-14,-11,-24,-26,-7
-15,-20,-2,21,-7,-11,3,-13,-10,-24,-25,-7
-15,-20,-2,21,-6,-11,4,-13,-11,-23,-24,-7
-19,-21,1,24,-10,-10,4,-12,-11,-23,-24,-7
-27,-24,6,31,-18,-7,4,-12,-10,-24,-24,-7
-29,-24,8,33,-20,-6,6,-11,-10,-24,-26,-8
-23,-24,3,29,-14,-10,3,-8,-8,-24,-26,-8
-23,-28,-1,31,-12,-14,6,-4,-4,-17,-28,-8
-23,-28,-1,31,-12,-14,14,4,0,-16,-29,-9
-29,-19,11,30,-22,-2,17,6,2,-20,-31,-9
-35,-24,13,37,-26,-3,19,6,2,-20,-33,-9
-35,-35,4,43,-21,-14,19,4,6,-22,-37,-9
-27,-40,-6,41,-10,-23,16,2,5,-20,-34,-9
-19,-31,-6,30,-6,-19,7,-8,2,-14,-29,-9
-1,-9,-6,6,3,-9,-7,-26,-3,-2,-10,-6
15,33,11,-28,1,23,-22,-52,-6,12,16,-2
27,19,-9,-28,20,3,-36,-59,-16,27,44,-0
55,38,-19,-57,40,5,-51,-75,-33,33,64,4
85,83,-13,-102,52,31,-64,-87,-39,45,93,7
121,118,-18,-146,74,45,-78,-100,-45,63,127,12
165,144,-36,-190,108,45,-92,-113,-46,87,166,17
224,194,-50,-256,147,60,-106,-117,-44,112,212,23
266,229,-60,-303,175,70,-132,-138,-57,126,251,29
294,241,-75,-328,199,65,-161,-166,-85,126,282,35
336,263,-96,-368,233,62,-195,-198,-112,127,306,40
364,263,-120,-387,263,46,-219,-221,-142,101,303,42
372,281,-113,-403,263,60,-244,-250,-182,58,280,42
356,265,-111,-383,253,53,-250,-260,-213,15,246,40
356,241,-128,-370,264,30,-250,-259,-237,-29,208,40
332,220,-123,-342,248,23,-252,-275,-258,-70,164,37
302,180,-126,-299,235,1,-260,-281,-280,-125,98,32
250,102,-138,-221,215,-44,-232,-259,-281,-173,23,25
194,80,-106,-172,166,-32,-197,-234,-260,-182,-11,20
133,80,-55,-132,103,1,-171,-209,-229,-163,-18,18
91,85,-16,-108,57,30,-148,-187,-198,-145,-28,13
69,85,3,-93,34,42,-130,-163,-161,-118,-21,11
47,90,25,-81,9,60,-110,-138,-124,-85,-15,10
25,66,26,-53,-3,49,-88,-116,-99,-64,-2,8
15,59,30,-43,-11,48,-71,-94,-80,-53,-5,5
7,52,32,-33,-16,46,-62,-77,-64,-45,-15,3
3,35,23,-22,-13,32,-49,-61,-51,-37,-16,-1
-1,19,15,-10,-10,19,-30,-43,-35,-32,-18,-2
-9,14,18,-2,-16,19,-22,-33,-26,-27,-20,-3
-15,-5,10,13,-14,4,-20,-26,-20,-25,-23,-6
-9,-9,1,12,-5,-4,-14,-22,-15,-22,-23,-7
-21,-17,6,23,-15,-4,-10,-18,-10,-20,-23,-7
-15,-31,-9,28,-2,-21,-7,-15,-9,-20,-26,-8
-17,-33,-9,30,-3,-22,-1,-12,-8,-20,-26,-8
-20,-33,-7,32,-6,-21,5,-10,-6,-20,-27,-8
-20,-33,-6,32,-7,-20,8,-9,-5,-19,-27,-8
-22,-33,-5,33,-8,-19,10,-7,-3,-19,-27,-8
-25,-33,-2,35,-12,-17,11,-6,-2,-18,-28,-8
-28,-34,-1,38,-14,-17,11,-6,-1,-19,-29,-8
-28,-37,-3,39,-13,-20,11,-6,-2,-20,-31,-8
-27,-41,-6,41,-10,-24,11,-7,-2,-21,-35,-9
-29,-46,-9,45,-9,-29,11,-6,-2,-22,-36,-9
-30,-49,-10,48,-10,-31,13,-6,-2,-22,-36,-10
-31,-46,-7,46,-11,-27,13,-5,-1,-22,-35,-10
-31,-39,-1,42,-15,-20,14,-4,-1,-22,-33,-10
-33,-34,3,41,-19,-15,14,-3,0,-21,-31,-10
-33,-32,5,40,-20,-12,15,-3,0,-21,-30,-9
-32,-31,5,39,-20,-11,15,-3,0,-21,-29,-9
-31,-33,3,39,-18,-14,15,-3,0,-21,-30,-10
-31,-36,0,41,-16,-18,15,-3,-0,-21,-30,-10
-32,-39,-1,43,-16,-20,15,-3,-1,-22,-31,-10
-33,-39,0,44,-17,-19,16,-3,-1,-22,-31,-10
-35,-40,1,45,-18,-19,16,-3,-0,-23,-32,-10
-35,-40,1,46,-19,-19,16,-3,0,-23,-32,-10
-35,-40,1,46,-19,-19,16,-3,0,-23,-32,-10
-35,-40,1,46,-19,-19,16,-3,0,-23,-32,-10
-35,-40,1,46,-19,-19,17,-2,0,-22,-32,-10
-35,-40,1,46,-19,-19,17,-2,0,-22,-32,-10
-35,-40,1,46,-19,-19,17,-2,0,-22,-32,-10
-35,-40,1,46,-19,-19,17,-1,0,-21,-32,-10
-35,-41,0,46,-18,-20,18,-0,1,-20,-32,-10
-35,-42,-0,47,-18,-21,18,1,1,-18,-32,-10
-35,-42,-1,47,-18,-21,18,2,1,-18,-33,-10
-36,-42,0,47,-18,-21,18,2,1,-18,-34,-10
-37,-42,1,48,-19,-20,18,3,1,-18,-34,-10
-37,-43,0,49,-19,-21,18,3,1,-18,-34,-10
-37,-44,-0,49,-19,-21,18,3,1,-18,-33,-10
-37,-44,-1,49,-19,-22,18,3,1,-18,-32,-10
-37,-44,-1,49,-19,-22,19,3,1,-18,-31,-10
-37,-44,-1,49,-19,-22,19,3,1,-18,-29,-10
-37,-44,-1,49,-19,-22,19,3,1,-18,-28,-10
-37,-44,-1,49,-19,-22,20,4,1,-18,-28,-10
-37,-44,-1,49,-19,-22,20,4,1,-19,-28,-10
-37,-44,-1,49,-19,-22,20,4,1,-19,-29,-10
-37,-44,-1,49,-19,-22,20,4,1,-19,-29,-10
-36,-44,-1,48,-18,-21,19,5,1,-18,-29,-10
-35,-41,-0,46,-18,-20,18,5,1,-17,-29,-10
-33,-38,1,43,-18,-18,18,5,1,-16,-29,-10
-32,-36,1,41,-17,-17,17,5,1,-16,-29,-10
-31,-35,1,41,-17,-16,17,4,1,-16,-29,-10
-31,-35,1,40,-17,-16,17,3,1,-16,-29,-10
-31,-36,0,41,-16,-17,17,3,1,-16,-29,-10
-32,-37,0,42,-17,-18,17,2,1,-17,-29,-10
-33,-37,1,43,-18,-17,17,2,2,-18,-29,-10
-35,-37,3,44,-20,-16,17,2,2,-20,-29,-10
-37,-37,4,46,-22,-15,16,3,2,-21,-29,-10
-38,-38,5,47,-23,-16,16,3,2,-22,-30,-10
-39,-40,4,48,-22,-17,16,3,1,-22,-31,-10
-39,-42,3,49,-22,-19,15,3,0,-22,-32,-10
-39,-44,1,51,-21,-21,14,3,-1,-22,-34,-10
-39,-46,0,51,-20,-22,13,3,-1,-22,-35,-10
-39,-46,-0,52,-20,-23,13,4,-1,-22,-35,-11
-39,-47,-1,52,-20,-23,13,4,-1,-21,-36,-11
-39,-47,-1,52,-20,-23,13,4,-0,-21,-36,-11
-39,-47,-1,52,-20,-23,13,4,0,-21,-36,-11
-39,-47,-1,52,-20,-23,14,3,0,-21,-36,-11
-39,-47,-1,52,-20,-23,14,3,0,-20,-36,-11
-40,-47,0,52,-20,-23,14,3,1,-20,-36,-11
-41,-47,1,53,-21,-22,14,2,1,-20,-36,-11
-41,-47,1,53,-22,-22,15,2,1,-20,-36,-11
-41,-47,1,53,-22,-22,15,3,2,-19,-36,-11
-41,-47,1,53,-22,-22,15,3,2,-19,-36,-11
-41,-47,1,53,-22,-22,15,3,3,-18,-36,-11
-41,-47,1,53,-22,-22,16,3,3,-18,-36,-11
-41,-47,1,53,-22,-22,16,4,4,-18,-36,-11
-41,-47,1,53,-22,-22,16,4,4,-17,-36,-11
-41,-47,1,53,-22,-22,16,5,5,-17,-35,-11
-41,-47,1,53,-22,-22,17,6,5,-17,-33,-11
-41,-47,1,53,-22,-22,18,7,5,-16,-31,-11
-41,-47,1,53,-22,-22,19,9,6,-16,-29,-11
-41,-46,2,53,-22,-21,20,10,7,-15,-27,-11
-41,-45,2,52,-23,-20,20,10,7,-15,-26,-11
-41,-44,3,52,-23,-20,20,11,8,-15,-26,-11
-41,-44,3,52,-23,-20,20,11,8,-14,-26,-11
-41,-44,3,52,-23,-20,20,12,9,-14,-25,-11
-41,-44,3,52,-23,-20,20,12,10,-13,-24,-11
-41,-44,3,52,-23,-20,21,12,10,-12,-24,-11
-41,-44,3,52,-23,-20,21,13,11,-12,-23,-11
-41,-44,3,51,-23,-19,22,14,11,-11,-22,-11
-41,-43,4,51,-24,-18,22,14,12,-9,-21,-11
-40,-42,4,50,-23,-18,24,15,13,-7,-21,-11
-39,-42,3,50,-22,-18,25,15,14,-5,-19,-11
-39,-41,3,49,-22,-18,25,16,15,-3,-18,-11
-39,-40,4,48,-23,-17,25,16,16,-3,-17,-11
-39,-39,5,48,-23,-16,26,17,17,-2,-16,-11
-39,-38,6,47,-24,-15,27,18,18,-1,-16,-11
-38,-37,5,46,-23,-14,27,19,19,-1,-15,-11
-35,-35,5,43,-21,-14,27,20,20,1,-14,-11
-33,-33,4,40,-20,-13,28,22,21,2,-13,-11
-30,-30,4,37,-18,-12,28,24,23,3,-12,-10
-28,-29,3,35,-16,-12,28,26,24,4,-11,-10
-27,-27,3,33,-16,-11,29,27,26,5,-9,-10
-27,-26,4,32,-16,-10,29,29,27,7,-8,-10
-25,-24,4,30,-15,-9,30,30,28,8,-6,-10
-24,-23,4,29,-15,-9,30,31,30,10,-5,-9
-22,-21,4,26,-14,-7,31,33,33,11,-3,-9
-21,-19,4,25,-13,-7,31,34,36,13,-1,-9
-21,-18,5,24,-14,-5,32,35,38,15,0,-8
-20,-16,5,22,-14,-4,32,36,41,16,2,-8
-19,-15,6,21,-13,-3,33,37,43,18,4,-7
-18,-13,6,20,-13,-2,33,37,44,20,8,-7
-17,-11,6,18,-13,-1,34,38,46,22,11,-7
-16,-9,7,16,-13,0,34,38,48,24,14,-7
-15,-8,7,14,-12,1,34,39,50,26,17,-6
-14,-6,7,13,-11,1,34,41,52,28,19,-6
-12,-4,7,10,-10,2,34,42,54,30,21,-5
-8,-1,6,6,-8,4,34,43,55,32,23,-5
-6,1,6,3,-7,5,34,44,57,34,26,-4
-4,4,6,1,-6,5,34,45,58,36,28,-4
-2,7,6,-2,-5,7,34,46,60,38,31,-4
-0,9,7,-5,-5,9,34,47,62,40,33,-4
1,12,7,-7,-4,10,33,48,63,42,36,-3
4,14,7,-11,-2,11,32,49,65,44,38,-3
6,17,7,-13,-1,12,31,50,66,46,40,-3
7,19,7,-15,-1,14,30,50,67,48,43,-3
9,21,8,-17,-0,15,29,51,68,49,45,-2
11,24,8,-20,1,16,29,52,69,52,47,-2
13,26,8,-23,2,17,28,52,70,53,50,-2
15,29,8,-26,3,20,28,53,71,54,52,-1
17,33,9,-29,3,21,26,53,71,56,54,-1
19,35,10,-32,4,23,25,53,71,58,56,-1
20,37,10,-34,5,24,23,53,71,59,58,-0
21,38,10,-35,5,25,22,54,71,61,60,-0
23,40,10,-38,6,26,21,54,72,62,62,0
25,43,10,-40,7,26,20,54,72,63,64,1
27,45,10,-43,8,28,20,54,73,64,65,1
29,47,10,-46,9,29,19,53,73,65,67,1
31,49,9,-48,10,29,19,53,73,66,68,1
33,50,8,-50,12,29,18,53,73,67,70,2
36,52,7,-52,14,30,17,53,73,68,72,2
37,54,7,-55,15,31,17,52,73,68,73,2
38,57,9,-57,14,33,17,52,73,68,75,2
39,58,9,-58,14,34,17,51,73,67,77,3
38,60,11,-58,13,36,18,50,72,66,78,3
38,60,11,-59,13,36,18,49,71,66,78,3
39,60,10,-59,15,35,18,48,69,66,78,3
41,59,8,-59,16,33,18,47,68,65,76,3
41,57,6,-59,18,31,18,46,65,65,75,3
42,55,4,-58,19,29,17,44,63,64,75,4
41,55,4,-58,19,29,16,42,62,64,74,4
41,54,5,-57,18,29,15,41,60,63,74,4
39,54,6,-56,16,30,14,39,58,62,73,4
38,53,6,-55,15,30,13,37,56,60,72,3
37,53,6,-54,15,29,13,35,54,58,70,3
37,52,6,-53,15,28,13,33,52,55,67,3
37,50,4,-52,16,26,13,31,50,52,64,3
37,48,3,-51,17,25,12,29,47,49,62,2
36,47,3,-50,17,24,11,26,45,46,59,2
35,45,2,-48,17,23,11,24,42,44,57,2
35,43,1,-47,17,21,10,22,39,42,55,1
33,40,1,-44,17,20,9,21,37,40,53,1
33,38,-0,-42,17,18,8,19,35,38,51,1
31,35,-1,-40,16,16,7,18,32,35,49,1
29,33,-1,-38,15,15,7,17,29,33,46,1
28,31,-1,-35,15,14,6,16,27,30,43,0
27,27,-3,-32,15,11,7,14,24,27,40,-0
25,24,-4,-30,15,9,7,12,22,24,37,-0
23,21,-4,-26,14,7,8,11,20,22,35,-1
21,19,-4,-24,13,6,8,9,17,19,32,-1
19,16,-5,-21,13,4,8,8,15,17,29,-1
17,12,-5,-17,12,2,7,6,13,14,27,-2
15,9,-6,-15,11,0,7,5,11,12,24,-2
13,7,-6,-12,10,-0,7,3,8,9,21,-2
11,4,-6,-9,10,-2,7,2,7,7,19,-2
9,1,-7,-6,9,-4,7,1,5,5,16,-3
8,-2,-8,-4,9,-6,7,-0,3,3,13,-3
7,-3,-8,-2,9,-7,6,-1,1,1,11,-3
5,-4,-7,-1,7,-7,5,-2,0,-1,9,-3
3,-4,-6,1,5,-6,4,-2,-2,-3,7,-4
2,-4,-5,2,4,-5,3,-3,-3,-5,5,-4
1,-4,-4,2,3,-5,2,-3,-4,-5,4,-4
-1,-5,-3,4,2,-5,2,-4,-5,-6,4,-4
-2,-6,-3,5,1,-5,2,-4,-6,-6,3,-4
-2,-7,-3,6,0,-5,2,-5,-6,-6,3,-4
-3,-7,-2,6,0,-5,2,-5,-6,-6,3,-4
-3,-7,-2,6,0,-5,2,-5,-6,-6,3,-4
-3,-7,-2,6,0,-5,2,-5,-6,-6,3,-4
-3,-7,-2,6,0,-5,2,-5,-6,-6,3,-4
-8,-12,-2,12,-3,-8,3,-6,-8,-9,0,-4
-14,-19,-2,20,-5,-11,4,-8,-10,-13,-4,-5
-16,-22,-2,23,-7,-12,4,-9,-11,-14,-6,-5
-16,-23,-2,24,-7,-13,4,-9,-11,-14,-6,-5
-17,-23,-2,24,-7,-13,4,-9,-11,-15,-6,-5
-17,-23,-2,24,-7,-13,4,-9,-11,-15,-6,-5
-17,-23,-2,24,-7,-13,4,-9,-11,-15,-6,-6
-17,-23,-2,24,-7,-13,4,-9,-11,-15,-6,-6
-17,-23,-2,24,-7,-13,4,-9,-11,-15,-7,-6
-17,-23,-2,24,-7,-13,3,-9,-11,-15,-8,-6
-17,-23,-2,24,-7,-13,2,-9,-11,-15,-9,-6
-17,-23,-2,24,-7,-13,1,-9,-11,-15,-11,-6
-17,-23,-2,24,-7,-13,0,-9,-11,-15,-12,-6
-17,-23,-2,24,-7,-13,0,-9,-11,-15,-12,-6
-17,-23,-2,24,-7,-13,-0,-9,-11,-15,-13,-6
-17,-23,-2,24,-7,-13,-0,-9,-11,-15,-13,-5
-17,-23,-2,24,-7,-13,0,-8,-11,-15,-13,-5
-17,-23,-2,24,-7,-13,1,-8,-11,-15,-13,-5
-17,-23,-2,24,-7,-13,2,-7,-11,-15,-13,-5
-17,-23,-2,24,-7,-13,3,-6,-11,-15,-13,-5
-17,-23,-2,24,-7,-13,4,-5,-11,-15,-12,-5
-17,-23,-2,24,-7,-13,4,-4,-10,-15,-11,-5
-17,-23,-2,24,-7,-13,4,-3,-9,-15,-9,-5
-17,-23,-2,24,-7,-13,4,-2,-8,-15,-8,-4
-16,-23,-3,24,-6,-13,4,-1,-8,-15,-7,-4
-14,-23,-4,23,-5,-14,4,-0,-8,-15,-7,-3
-13,-23,-6,22,-3,-15,4,1,-7,-15,-6,-3
-11,-23,-7,21,-1,-16,4,2,-7,-15,-6,-2
-10,-23,-8,20,0,-17,4,3,-7,-15,-6,-2
-9,-23,-9,20,1,-17,4,4,-6,-15,-6,-1
-9,-23,-9,19,1,-17,4,5,-5,-15,-6,-1
-9,-23,-9,19,1,-17,4,6,-5,-15,-6,-1
-9,-23,-9,19,1,-17,5,6,-4,-15,-6,-0
-9,-23,-9,19,1,-17,5,6,-3,-15,-4,-0
-9,-23,-9,19,1,-17,6,7,-2,-15,-3,0
-9,-23,-9,19,1,-17,7,7,-1,-15,-1,1
-9,-23,-9,19,1,-17,8,7,-0,-15,-0,1
-9,-23,-9,19,1,-17,8,8,0,-15,0,1
-9,-23,-9,19,1,-17,8,9,0,-15,0,1
-9,-23,-9,19,1,-17,8,10,0,-15,0,1
-9,-23,-9,19,1,-17,8,10,0,-15,0,1
-9,-23,-9,19,1,-17,8,10,0,-15,0,1
-9,-23,-9,19,1,-17,8,10,0,-15,0,1
-9,-23,-9,19,1,-17,8,10,0,-15,0,1
-9,-22,-8,19,1,-16,8,10,0,-15,-0,1
-9,-20,-7,17,0,-15,8,10,0,-15,-2,1
-9,-18,-6,16,-1,-13,8,10,0,-15,-3,1
-9,-16,-4,15,-2,-10,8,10,0,-15,-5,1
-9,-15,-3,14,-3,-9,8,10,-0,-15,-6,1
-9,-14,-3,14,-3,-9,8,10,-1,-15,-6,1
-9,-14,-2,14,-3,-8,8,10,-2,-15,-6,1
-9,-14,-2,14,-3,-8,8,10,-3,-15,-6,1
-9,-15,-3,14,-3,-9,8,10,-3,-15,-6,1
-9,-17,-4,15,-2,-11,8,10,-3,-15,-6,1
-9,-18,-6,16,-1,-13,8,10,-4,-15,-6,1
-9,-21,-7,18,0,-15,8,10,-4,-15,-6,1
-9,-22,-8,19,1,-16,8,11,-4,-15,-6,1
-9,-23,-9,19,1,-17,8,12,-5,-16,-6,1
-9,-23,-9,19,1,-17,8,12,-5,-17,-6,1
-9,-23,-9,19,1,-17,8,13,-6,-18,-6,1
-9,-23,-9,19,1,-17,8,14,-7,-19,-7,1
-9,-23,-9,19,1,-17,8,14,-7,-19,-8,0
-9,-23,-9,19,1,-17,8,14,-7,-20,-9,0
-9,-23,-9,19,1,-17,8,14,-7,-20,-11,-0
-9,-23,-9,19,1,-17,8,14,-7,-20,-12,-0
-9,-23,-9,19,1,-17,8,13,-7,-20,-12,-0
-9,-23,-9,19,1,-17,8,12,-7,-20,-13,-0
-9,-23,-9,19,1,-17,8,11,-7,-20,-13,-0
-9,-23,-9,19,1,-17,8,11,-8,-20,-13,-0
-9,-23,-9,19,1,-17,8,11,-8,-20,-13,-0
-9,-23,-9,19,1,-17,8,10,-9,-20,-13,-0
-9,-23,-9,19,1,-17,8,10,-10,-20,-13,-0
-9,-23,-9,19,1,-17,8,10,-11,-20,-13,-0
-9,-23,-9,19,1,-17,7,10,-11,-20,-13,-0
-9,-23,-9,19,1,-17,6,10,-11,-20,-13,-0
-9,-23,-9,19,1,-17,5,10,-11,-20,-13,-0
-9,-23,-9,19,1,-17,5,10,-11,-20,-13,-0
-9,-23,-9,19,1,-17,4,9,-11,-21,-13,-0
-9,-23,-9,19,1,-17,4,9,-11,-22,-13,-0
-9,-23,-9,19,1,-17,4,8,-11,-23,-13,-0
-9,-23,-9,19,1,-17,4,7,-11,-24,-13,-0
-9,-23,-9,19,1,-17,3,7,-12,-24,-13,-0
-9,-23,-9,19,1,-17,2,7,-13,-25,-13,-0
-9,-23,-9,19,1,-17,1,7,-14,-25,-13,-0
-10,-24,-9,20,1,-18,0,6,-14,-25,-13,-0
-11,-26,-9,22,0,-19,0,5,-15,-25,-13,-0
-13,-28,-9,24,-1,-20,-0,5,-15,-25,-13,-0
-15,-30,-9,27,-2,-21,-0,4,-15,-25,-13,-0
-16,-32,-9,29,-3,-21,0,3,-15,-25,-13,-0
-16,-32,-9,29,-3,-22,1,3,-15,-26,-14,-0
-17,-33,-9,30,-3,-22,1,3,-15,-26,-14,-0
-17,-33,-9,30,-3,-22,1,3,-15,-26,-14,-0
-17,-33,-9,30,-3,-22,1,3,-15,-26,-14,-0
-17,-33,-9,30,-3,-22,1,3,-15,-26,-14,-0
-17,-33,-9,30,-3,-22,1,3,-15,-26,-14,-0
-14,-27,-8,24,-2,-18,2,5,-13,-24,-11,1
-9,-20,-6,17,-1,-14,3,7,-11,-22,-7,2
-8,-18,-6,15,0,-13,3,8,-10,-21,-5,3
-7,-17,-6,14,0,-12,3,8,-9,-21,-5,3
-7,-16,-6,14,0,-12,3,9,-10,-21,-5,3
-8,-16,-5,14,-1,-11,3,9,-10,-21,-5,3
-8,-17,-5,15,-1,-12,3,8,-10,-22,-6,3
-9,-18,-5,16,-1,-12,3,8,-11,-22,-6,3
-9,-18,-6,16,-1,-13,3,8,-11,-23,-7,3
-9,-18,-6,16,-1,-13,3,8,-12,-23,-7,3
-9,-18,-6,16,-1,-13,3,7,-12,-22,-8,3
-9,-18,-6,16,-1,-13,3,7,-13,-22,-9,3
-10,-19,-6,17,-1,-13,3,7,-13,-21,-10,3
-10,-20,-6,19,-2,-14,3,7,-13,-20,-11,3
-11,-21,-6,19,-2,-14,3,8,-14,-20,-11,2
-11,-21,-6,19,-2,-14,3,9,-14,-20,-11,2
-11,-21,-6,19,-2,-14,3,9,-14,-20,-11,2
-12,-21,-5,20,-3,-14,3,9,-14,-20,-12,2
-12,-20,-4,20,-4,-12,4,10,-15,-19,-12,2
-13,-18,-2,19,-5,-10,5,10,-15,-18,-13,2
-13,-16,-1,17,-6,-8,6,10,-15,-17,-13,2
-13,-15,0,17,-7,-7,7,10,-14,-16,-13,2
-13,-14,1,16,-7,-6,7,10,-14,-16,-13,2
-13,-14,1,16,-7,-6,7,10,-13,-16,-13,2
-13,-14,1,16,-7,-6,7,10,-12,-16,-13,2
-13,-14,1,16,-7,-6,7,10,-12,-16,-14,2
-13,-14,1,16,-7,-6,7,10,-12,-17,-14,2
-12,-13,1,15,-7,-5,7,10,-12,-17,-14,2
-11,-12,1,14,-6,-5,7,10,-12,-17,-14,2
-12,-11,2,14,-7,-5,8,10,-12,-17,-14,2
-12,-11,2,15,-8,-4,8,11,-12,-17,-14,2
-12,-11,2,14,-8,-4,8,11,-12,-17,-14,2
-11,-11,1,14,-7,-5,8,12,-12,-17,-14,2
-11,-11,1,14,-6,-5,8,13,-12,-17,-14,2
-12,-12,1,15,-7,-5,8,13,-12,-17,-14,2
-12,-13,1,16,-7,-6,8,13,-12,-17,-14,2
-13,-14,1,16,-7,-6,8,13,-12,-17,-15,2
-13,-14,1,16,-7,-6,8,13,-12,-17,-16,2
-13,-14,1,16,-7,-6,8,13,-12,-17,-16,2
-13,-14,1,16,-7,-6,9,13,-12,-17,-16,2
-13,-14,1,16,-7,-6,9,13,-12,-17,-16,2
-13,-14,1,16,-7,-6,9,13,-12,-17,-16,3
-13,-14,1,16,-7,-6,9,13,-12,-17,-16,3
-13,-14,1,16,-7,-6,9,13,-12,-17,-16,3
-14,-14,2,17,-8,-5,9,13,-12,-17,-16,3
-14,-14,2,17,-8,-5,9,13,-12,-17,-16,3
-12,-14,1,16,-7,-6,8,13,-11,-17,-15,3
-11,-14,-1,15,-5,-7,7,13,-11,-17,-15,3
-9,-14,-2,14,-3,-8,6,13,-11,-17,-14,3
-8,-14,-3,13,-2,-9,6,14,-11,-16,-14,3
-7,-14,-4,13,-1,-9,5,14,-11,-16,-14,3
-7,-14,-4,13,-1,-10,5,14,-11,-16,-14,3
-7,-14,-4,13,-1,-10,5,14,-11,-16,-14,3
-7,-14,-4,13,-1,-10,5,14,-11,-16,-14,3
-7,-14,-4,13,-1,-10,4,14,-11,-16,-14,3
-6,-13,-4,12,-0,-9,3,14,-11,-16,-14,3
-5,-12,-4,11,0,-9,2,14,-11,-16,-14,3
-6,-11,-3,11,-1,-8,1,14,-11,-16,-14,3
-8,-12,-2,12,-3,-8,1,13,-11,-16,-14,3
-10,-13,-1,14,-5,-7,1,13,-11,-16,-14,3
-13,-14,1,16,-7,-6,1,13,-11,-16,-14,3
-14,-14,2,17,-8,-5,1,13,-11,-16,-14,3
-14,-14,2,17,-9,-5,1,12,-11,-16,-14,3
-15,-14,3,17,-9,-5,1,11,-12,-16,-14,3
-15,-14,3,17,-9,-5,1,10,-13,-16,-14,3
-14,-14,2,17,-8,-5,1,10,-14,-16,-14,3
-13,-14,1,16,-8,-6,1,10,-14,-16,-14,3
-13,-14,1,16,-7,-6,1,10,-14,-16,-14,3
-13,-14,1,16,-7,-6,1,10,-14,-16,-15,3
-13,-14,1,16,-7,-6,0,10,-14,-16,-16,3
-13,-14,1,16,-7,-6,-0,10,-14,-16,-16,3
-13,-14,1,16,-7,-6,-1,10,-15,-16,-16,3
-13,-14,1,16,-7,-6,-2,10,-15,-16,-16,3
-13,-14,1,16,-7,-6,-3,10,-15,-17,-16,3
-13,-14,1,16,-7,-6,-3,10,-15,-17,-16,3
-13,-14,1,16,-7,-6,-3,10,-15,-17,-16,3
-13,-14,1,16,-7,-6,-3,10,-15,-17,-16,3
-13,-14,1,16,-7,-6,-3,10,-15,-17,-16,3
-13,-14,1,16,-7,-6,-3,10,-15,-17,-16,2
-13,-14,1,16,-7,-6,-3,10,-15,-17,-16,2
-13,-14,1,16,-7,-6,-3,10,-15,-17,-16,2
-13,-15,0,17,-7,-7,-4,10,-15,-17,-17,2
-13,-17,-1,18,-6,-9,-5,10,-15,-17,-18,2
-13,-18,-2,19,-5,-10,-5,10,-15,-17,-19,1
-13,-21,-4,21,-4,-13,-6,10,-15,-17,-21,1
-13,-22,-5,21,-3,-14,-7,10,-15,-18,-22,1
-13,-23,-5,22,-3,-15,-7,10,-15,-19,-22,1
-13,-23,-6,22,-3,-15,-8,10,-15,-20,-22,1
-13,-23,-6,22,-3,-15,-8,10,-15,-21,-22,1
-13,-23,-6,22,-3,-15,-8,10,-15,-22,-22,1
-13,-23,-6,22,-3,-15,-8,10,-16,-22,-22,1
-13,-24,-6,22,-3,-16,-8,10,-16,-22,-22,1
-13,-25,-7,23,-2,-17,-8,10,-16,-22,-22,0
-13,-26,-7,23,-2,-17,-7,10,-16,-22,-22,0
-13,-26,-7,23,-2,-17,-6,10,-16,-21,-22,0
-13,-25,-7,23,-3,-16,-5,10,-16,-20,-22,-0
-13,-24,-6,22,-3,-16,-4,10,-16,-18,-22,-0
-13,-23,-6,22,-3,-15,-3,10,-16,-18,-22,-0
-13,-23,-6,22,-3,-15,-2,10,-16,-17,-21,-0
-13,-23,-6,22,-3,-15,-1,10,-16,-17,-19,-0
-14,-24,-6,23,-3,-16,-0,10,-16,-17,-18,-0
-14,-25,-6,24,-4,-16,1,10,-16,-17,-17,-0
-15,-26,-6,24,-4,-16,2,11,-16,-18,-16,-0
-15,-26,-6,24,-4,-16,3,11,-16,-18,-16,-0
-15,-26,-6,24,-4,-16,4,12,-16,-18,-16,-0
-15,-26,-6,24,-4,-16,5,13,-16,-18,-16,-0
-15,-26,-6,24,-4,-16,5,13,-16,-18,-16,-0
-15,-26,-6,24,-4,-16,5,13,-17,-18,-16,-0
-15,-26,-6,24,-4,-16,5,13,-17,-18,-16,-0
-15,-25,-5,24,-5,-16,5,13,-16,-18,-16,-0
-15,-23,-4,23,-5,-14,5,13,-16,-17,-17,-0
-15,-21,-2,22,-6,-12,5,13,-15,-16,-17,-0
-15,-18,-1,20,-7,-10,5,12,-14,-15,-18,-0
-15,-17,0,20,-8,-8,5,12,-13,-14,-18,-0
-15,-17,1,19,-8,-8,5,12,-13,-14,-18,-0
-15,-16,1,19,-8,-7,5,12,-13,-13,-18,-0
-15,-16,1,19,-8,-7,5,12,-14,-13,-18,-1
-15,-16,1,19,-8,-7,5,13,-14,-13,-18,-1
-15,-16,1,19,-8,-7,5,14,-14,-14,-18,-1
-15,-16,1,19,-8,-7,5,14,-14,-14,-18,-1
-15,-16,1,19,-8,-7,5,15,-14,-15,-18,-1
-15,-16,1,19,-8,-7,5,16,-14,-15,-18,-1
-15,-16,1,19,-8,-7,5,16,-14,-15,-18,-1
-15,-16,1,19,-8,-7,5,16,-14,-14,-18,-1
-15,-16,1,19,-8,-7,5,16,-14,-14,-18,-1
-14,-16,0,19,-8,-8,5,16,-14,-13,-18,-1
-12,-16,-1,17,-6,-9,5,15,-14,-13,-18,-1
-11,-16,-2,16,-4,-10,5,14,-14,-13,-18,-1
-9,-16,-4,15,-2,-10,5,13,-13,-13,-18,-1
-8,-16,-5,14,-1,-11,6,13,-13,-13,-18,-1
-7,-16,-5,14,-0,-11,6,13,-13,-13,-18,-1
-7,-16,-6,14,0,-12,6,12,-13,-13,-18,-1
-7,-16,-6,14,0,-12,6,12,-13,-13,-18,-2
-8,-16,-5,14,-1,-11,6,12,-13,-13,-18,-2
-9,-16,-4,15,-3,-10,6,12,-13,-13,-18,-2
-11,-16,-2,16,-4,-10,6,12,-13,-13,-18,-2
-13,-16,-1,17,-6,-8,6,12,-13,-13,-18,-2
-14,-16,0,19,-8,-8,6,12,-14,-13,-18,-2
-14,-16,1,19,-8,-7,5,12,-14,-14,-18,-2
-15,-16,1,19,-8,-7,5,12,-14,-14,-18,-2
-15,-16,1,19,-8,-7,5,12,-14,-15,-18,-2
-15,-16,1,19,-8,-7,5,11,-14,-15,-18,-2
-15,-16,1,19,-8,-7,5,11,-14,-15,-18,-2
-15,-16,1,19,-8,-7,5,11,-14,-15,-18,-2
-15,-16,1,19,-8,-7,5,11,-14,-15,-18,-2
-15,-16,1,19,-8,-7,5,11,-14,-15,-18,-2
-15,-16,1,19,-8,-7,5,10,-14,-15,-18,-2
-16,-17,1,20,-9,-8,5,10,-14,-15,-18,-2
-16,-18,1,21,-9,-8,5,9,-14,-15,-18,-2
-17,-18,1,22,-9,-8,5,8,-14,-15,-18,-2
-17,-18,1,22,-9,-8,5,8,-14,-15,-18,-2
-17,-18,1,22,-9,-8,4,8,-14,-15,-18,-2
-17,-18,1,22,-9,-8,4,8,-14,-15,-18,-2
-17,-18,1,22,-9,-8,4,8,-14,-15,-18,-2
-17,-18,1,22,-9,-8,4,8,-14,-15,-18,-2
-17,-18,1,22,-9,-8,4,8,-14,-15,-18,-2
-18,-18,2,22,-10,-8,4,7,-14,-15,-18,-2
-18,-18,2,23,-11,-7,3,7,-14,-15,-18,-2
-19,-18,3,23,-11,-7,3,7,-15,-15,-20,-3
-19,-18,3,23,-11,-7,3,7,-16,-15,-21,-3
-19,-18,3,23,-11,-7,3,7,-17,-15,-22,-3
-19,-18,3,23,-11,-7,3,6,-17,-15,-23,-3
-19,-18,3,23,-11,-7,3,5,-17,-15,-24,-3
-19,-18,3,23,-11,-7,3,4,-18,-15,-24,-3
-19,-18,3,23,-11,-7,3,3,-18,-15,-24,-3
-19,-18,3,23,-11,-7,3,2,-18,-15,-24,-3
-19,-18,3,23,-11,-7,3,2,-18,-15,-24,-4
-19,-18,3,23,-11,-7,3,1,-18,-15,-24,-4
-19,-19,2,23,-11,-8,3,1,-19,-15,-24,-4
-19,-20,1,24,-10,-9,3,1,-19,-15,-25,-4
-19,-21,1,24,-10,-10,3,1,-19,-15,-25,-4
-19,-21,1,24,-10,-10,3,1,-19,-16,-26,-4
-19,-21,1,24,-10,-10,3,1,-20,-16,-26,-5
-18,-21,0,24,-10,-10,2,1,-20,-16,-27,-5
-17,-21,-0,23,-9,-10,2,1,-20,-16,-27,-5
-17,-21,-1,23,-8,-10,2,1,-20,-16,-27,-5
-17,-21,-1,23,-8,-10,2,1,-20,-16,-27,-5
-18,-21,0,23,-9,-10,2,1,-20,-16,-27,-5
-19,-21,1,24,-11,-9,3,1,-20,-16,-27,-5
-20,-21,2,25,-12,-9,3,2,-20,-16,-26,-5
-19,-21,1,24,-11,-9,3,1,-20,-16,-26,-5
-18,-19,1,23,-10,-9,3,1,-20,-15,-27,-5
-16,-17,2,21,-10,-7,4,1,-19,-14,-27,-5
-15,-18,0,20,-8,-9,6,1,-18,-11,-25,-5
-15,-20,-2,21,-7,-11,7,2,-18,-10,-24,-5
-15,-20,-2,21,-6,-11,8,3,-18,-9,-24,-5
-14,-21,-4,21,-5,-13,7,3,-18,-9,-24,-5
-11,-24,-7,21,-1,-16,4,4,-18,-9,-24,-5
-13,-24,-6,22,-3,-16,6,5,-18,-14,-26,-5
-15,-24,-4,24,-5,-14,7,8,-15,-14,-26,-5
-15,-28,-7,26,-3,-19,11,11,-11,-12,-21,-6
-7,-28,-14,21,5,-23,14,15,-8,-11,-23,-6
-13,-19,-2,20,-5,-11,17,17,-6,-10,-31,-8
-27,-24,6,31,-18,-7,19,17,-6,-10,-33,-8
-27,-35,-2,38,-13,-19,19,15,-6,-12,-37,-8
-27,-50,-13,46,-6,-32,16,10,-7,-10,-34,-8
-19,-40,-13,35,-2,-28,7,-4,-9,-4,-23,-6
-17,-19,1,22,-10,-9,-7,-23,-14,8,-3,-3
-1,5,4,-2,-3,5,-22,-36,-17,27,23,-0
27,19,-9,-28,20,3,-36,-52,-27,37,50,2
55,38,-19,-57,40,5,-51,-67,-40,43,70,5
85,73,-19,-97,56,22,-68,-79,-43,61,93,8
121,109,-24,-140,78,36,-82,-92,-49,73,121,12
149,135,-30,-174,96,45,-96,-105,-50,97,160,17
208,184,-43,-240,134,60,-114,-117,-52,127,212,25
250,229,-47,-293,158,79,-132,-130,-65,156,257,32
286,251,-62,-328,187,79,-161,-158,-92,156,295,37
328,272,-82,-368,221,76,-200,-198,-123,147,313,41
348,272,-99,-381,242,64,-223,-221,-153,121,309,43
372,263,-126,-392,271,42,-248,-239,-186,83,287,43
348,246,-118,-367,253,39,-246,-249,-206,40,252,43
356,232,-135,-364,268,21,-250,-255,-237,-4,215,41
332,211,-130,-336,252,14,-252,-263,-258,-55,171,39
302,161,-140,-289,243,-16,-251,-265,-280,-115,104,33
274,121,-145,-248,231,-39,-228,-244,-277,-153,42,26
218,109,-106,-204,178,-19,-197,-218,-256,-157,15,23
157,99,-62,-159,120,6,-171,-185,-225,-138,8,22
115,85,-36,-123,82,16,-148,-176,-194,-120,-2,18
77,85,-4,-98,43,38,-125,-152,-157,-93,5,16
55,90,18,-86,18,55,-106,-130,-124,-65,11,13
41,85,26,-75,5,58,-92,-108,-99,-54,5,9
39,78,23,-69,6,53,-76,-87,-80,-42,2,5
31,52,11,-49,9,32,-57,-69,-60,-35,-2,3
27,35,3,-38,12,19,-44,-54,-47,-27,-3,2
23,28,1,-31,11,14,-30,-39,-39,-22,-11,1
31,24,-9,-33,22,5,-22,-29,-30,-17,-13,-1
-7,5,10,2,-10,8,-15,-23,-23,-10,-16,-1
-9,0,8,6,-10,5,-10,-18,-19,-7,-16,-2
-21,-7,13,18,-19,5,-6,-14,-14,-5,-16,-2
-15,-12,4,17,-10,-3,-2,-11,-13,-5,-20,-3
-9,-14,-2,14,-3,-9,-1,-12,-11,-10,-20,-6
-12,-14,0,15,-6,-7,3,-10,-11,-10,-21,-6
-12,-14,1,16,-7,-6,5,-9,-10,-9,-21,-6
-14,-14,2,17,-8,-5,8,-7,-9,-9,-21,-5
-17,-14,5,19,-12,-4,10,-6,-8,-8,-21,-6
-20,-15,6,22,-14,-4,11,-6,-8,-9,-22,-6
-20,-18,4,23,-13,-6,11,-6,-9,-10,-24,-6
-19,-22,0,25,-10,-10,11,-7,-10,-11,-28,-7
-20,-27,-2,29,-9,-15,11,-6,-10,-12,-30,-7
-22,-31,-3,32,-9,-17,13,-6,-9,-12,-30,-7
-22,-30,-2,32,-10,-16,13,-5,-8,-12,-31,-7
-23,-25,2,29,-13,-10,14,-4,-8,-12,-30,-7
-24,-22,5,29,-15,-8,14,-3,-8,-11,-29,-7
-25,-22,5,29,-16,-7,15,-3,-7,-11,-29,-7
-24,-21,5,28,-15,-7,15,-3,-7,-11,-29,-7
-23,-23,3,29,-14,-9,15,-3,-7,-11,-30,-7
-23,-27,0,30,-12,-13,15,-3,-8,-11,-30,-7
-24,-29,-1,32,-12,-15,15,-3,-8,-12,-31,-7
-27,-30,2,35,-15,-13,16,-3,-8,-12,-31,-7
-31,-30,4,37,-18,-12,16,-3,-8,-13,-32,-8
-33,-30,6,39,-21,-10,16,-3,-8,-13,-32,-8
-34,-30,7,40,-22,-10,16,-3,-7,-13,-32,-8
-35,-30,7,40,-23,-10,16,-4,-7,-13,-32,-8
-35,-30,8,40,-23,-10,17,-4,-7,-12,-32,-8
-35,-30,8,40,-23,-10,17,-5,-7,-12,-32,-8
-35,-30,8,40,-23,-10,17,-5,-7,-12,-32,-9
-35,-30,8,40,-23,-10,17,-6,-7,-12,-32,-9
-35,-31,7,41,-23,-10,18,-6,-7,-12,-32,-9
-35,-32,6,41,-22,-11,18,-6,-6,-12,-32,-9
-35,-33,6,41,-22,-12,18,-5,-6,-13,-33,-9
-36,-33,7,42,-23,-11,18,-5,-6,-13,-34,-9
-37,-33,7,42,-23,-11,18,-5,-6,-13,-34,-9
-37,-34,7,43,-23,-11,18,-5,-6,-13,-34,-9
-37,-35,6,44,-23,-12,18,-5,-6,-13,-34,-9
-37,-35,6,44,-23,-13,18,-5,-6,-13,-34,-9
-37,-35,6,44,-23,-13,19,-5,-6,-13,-34,-9
-37,-35,6,44,-23,-13,19,-4,-6,-13,-34,-9
-37,-35,6,44,-23,-13,19,-4,-6,-13,-35,-9
-37,-35,6,44,-23,-13,20,-5,-6,-13,-36,-9
-37,-35,6,44,-23,-13,20,-6,-6,-14,-38,-9
-37,-35,6,44,-23,-13,20,-6,-6,-14,-40,-9
-38,-36,6,45,-23,-13,20,-7,-7,-15,-41,-9
-39,-37,6,46,-24,-14,20,-7,-8,-15,-42,-9
-39,-36,7,46,-24,-13,21,-7,-8,-15,-42,-10
-39,-35,7,46,-25,-12,21,-7,-9,-15,-42,-10
-39,-36,7,46,-25,-13,21,-6,-10,-16,-42,-10
-39,-38,6,47,-24,-15,21,-6,-10,-16,-42,-10
-39,-40,4,48,-23,-16,21,-6,-10,-16,-42,-10
-39,-43,2,50,-21,-20,21,-6,-10,-16,-42,-10
-39,-45,0,51,-20,-22,21,-6,-10,-17,-42,-10
-39,-46,-0,52,-20,-23,21,-6,-9,-17,-42,-10
-39,-47,-1,52,-20,-23,21,-5,-9,-17,-42,-10
-39,-47,-1,52,-20,-23,20,-5,-9,-17,-42,-10
-39,-47,-1,52,-20,-23,21,-5,-9,-17,-42,-10
-39,-47,-1,52,-20,-23,21,-5,-8,-17,-42,-10
-39,-47,-1,52,-20,-23,21,-5,-7,-17,-42,-10
-39,-47,-1,52,-20,-23,21,-4,-6,-17,-42,-10
-39,-47,-1,52,-20,-23,21,-4,-5,-17,-42,-10
-39,-47,-1,52,-20,-23,21,-4,-5,-17,-42,-10
-39,-47,-1,52,-20,-23,21,-3,-5,-16,-42,-10
-39,-47,-1,52,-20,-23,21,-3,-4,-16,-42,-10
-38,-46,-1,51,-19,-23,22,-3,-4,-16,-42,-10
-37,-44,-1,49,-18,-22,22,-2,-4,-16,-42,-10
-35,-42,-1,47,-18,-21,22,-1,-3,-15,-42,-10
-34,-40,0,44,-18,-19,22,1,-3,-15,-42,-10
-33,-38,1,43,-18,-18,23,1,-3,-15,-42,-10
-33,-38,1,43,-18,-18,23,2,-2,-15,-42,-10
-33,-37,1,43,-18,-17,24,3,-2,-14,-42,-10
-33,-37,1,43,-18,-17,24,3,-2,-14,-42,-10
-33,-37,1,43,-18,-17,24,3,-1,-13,-42,-10
-33,-37,1,43,-18,-17,24,3,-1,-13,-42,-10
-33,-37,1,43,-18,-17,25,4,0,-13,-42,-10
-33,-37,1,43,-18,-17,25,4,0,-12,-42,-10
-33,-37,1,43,-18,-17,25,4,1,-12,-41,-10
-33,-37,1,43,-18,-17,25,5,1,-10,-41,-10
-33,-37,1,43,-18,-17,25,5,2,-9,-40,-10
-33,-37,1,43,-18,-17,25,6,2,-7,-40,-10
-33,-36,2,42,-18,-16,25,6,3,-6,-40,-10
-33,-35,2,42,-18,-16,25,6,3,-5,-39,-10
-33,-35,3,41,-19,-15,25,7,4,-5,-39,-10
-33,-35,3,41,-19,-15,25,7,5,-4,-39,-10
-33,-35,3,41,-19,-15,25,8,5,-4,-38,-10
-33,-35,3,41,-19,-15,25,8,6,-3,-37,-10
-33,-35,3,41,-19,-15,25,9,7,-2,-37,-10
-33,-35,3,41,-19,-15,25,9,7,-2,-36,-10
-33,-34,3,41,-19,-14,26,10,8,-1,-35,-10
-33,-33,4,40,-20,-13,26,10,8,-1,-34,-10
-32,-33,4,40,-19,-13,26,11,9,1,-34,-10
-31,-33,3,39,-18,-14,26,11,10,1,-32,-10
-31,-32,3,38,-18,-13,26,12,11,2,-31,-10
-31,-31,4,38,-18,-12,26,14,12,3,-30,-10
-31,-30,5,37,-19,-11,26,15,13,3,-29,-10
-31,-28,6,37,-20,-10,27,17,14,4,-29,-10
-30,-27,6,35,-19,-10,27,18,15,4,-28,-10
-29,-26,6,34,-19,-8,27,19,16,5,-27,-9
-29,-23,8,32,-20,-6,28,20,18,7,-26,-9
-28,-21,9,30,-20,-4,28,21,19,8,-25,-9
-27,-19,9,29,-20,-3,28,22,20,9,-24,-9
-27,-18,10,28,-20,-2,29,23,22,10,-22,-9
-26,-16,11,26,-20,-1,29,25,23,12,-21,-9
-24,-15,10,24,-19,-0,30,26,25,13,-19,-8
-23,-13,10,23,-18,0,30,27,26,14,-18,-8
-22,-11,11,21,-18,1,31,29,28,15,-16,-8
-21,-10,11,20,-18,2,31,30,30,15,-14,-8
-21,-9,12,19,-18,3,32,31,32,16,-13,-8
-20,-7,12,17,-18,5,32,32,33,17,-12,-8
-19,-5,13,16,-18,5,33,33,34,18,-10,-7
-18,-4,13,14,-18,6,33,34,35,20,-8,-7
-17,-2,13,13,-17,8,34,34,36,22,-6,-7
-16,0,14,11,-17,10,34,34,37,24,-5,-7
-15,2,14,9,-16,10,33,36,39,26,-2,-7
-14,3,14,7,-15,10,32,37,40,28,0,-6
-12,5,14,5,-15,11,31,38,42,30,2,-6
-8,8,13,1,-13,12,30,39,44,32,4,-6
-6,10,13,-2,-11,13,30,41,46,34,6,-6
-4,13,13,-4,-10,14,30,42,47,36,8,-5
-2,16,13,-7,-9,16,30,42,49,38,11,-5
-0,19,14,-10,-9,18,30,43,50,40,13,-5
1,21,14,-13,-8,20,29,43,52,42,16,-5
4,24,14,-16,-6,20,28,43,53,44,18,-4
6,26,14,-19,-5,21,26,43,54,46,21,-4
7,28,14,-21,-5,23,25,43,56,48,23,-4
9,31,15,-23,-5,24,25,44,57,49,26,-4
11,33,15,-25,-3,26,25,44,58,52,28,-4
13,35,15,-28,-3,26,24,45,59,53,30,-4
15,39,15,-31,-2,29,24,45,60,54,32,-3
17,42,16,-34,-1,31,23,45,61,56,34,-3
19,45,16,-38,-0,32,23,45,62,58,36,-3
20,46,16,-39,0,33,22,45,63,59,39,-3
21,48,16,-41,1,34,22,46,63,61,41,-2
23,50,16,-43,2,35,21,46,64,62,42,-2
25,52,16,-46,3,36,20,46,65,63,44,-2
27,54,16,-48,4,37,20,46,65,64,46,-2
29,57,16,-51,5,38,19,46,66,65,47,-1
31,58,16,-53,6,38,19,45,66,66,49,-1
33,60,15,-55,8,38,18,45,66,67,50,-1
36,61,14,-58,10,39,17,45,66,68,52,-1
38,64,14,-60,11,40,17,45,66,68,54,-0
40,66,14,-63,12,41,16,45,65,69,55,-0
43,68,13,-66,14,41,15,45,65,69,57,0
44,69,12,-68,15,41,15,45,65,70,58,0
46,70,12,-70,17,42,14,45,64,70,59,1
49,71,10,-73,20,41,14,44,64,71,60,1
53,73,8,-75,23,40,14,43,64,70,60,2
55,73,6,-77,25,39,14,42,63,70,61,2
58,73,4,-79,28,37,13,40,63,69,62,2
59,73,2,-80,29,36,12,39,62,69,61,2
61,73,1,-81,30,36,11,37,60,68,61,2
61,73,1,-81,31,36,9,35,58,67,60,2
61,72,0,-81,31,35,8,33,57,66,60,2
61,71,-0,-80,32,34,7,31,55,65,60,2
61,70,-1,-79,32,33,6,29,54,65,60,2
61,69,-2,-78,33,31,5,27,52,64,61,2
61,68,-3,-78,33,30,4,25,51,63,61,2
60,68,-2,-78,33,31,3,23,48,61,59,2
59,69,-1,-77,31,32,2,22,46,59,57,2
59,69,-0,-77,30,32,2,21,43,57,55,1
57,68,0,-76,30,32,1,20,41,55,53,1
57,66,-1,-74,30,31,-0,18,38,53,51,1
55,64,-1,-72,29,30,-1,16,36,51,49,1
53,61,-1,-69,28,29,-2,14,33,48,46,1
52,59,-2,-67,28,27,-2,12,31,45,43,1
53,56,-4,-66,30,24,-2,10,29,42,40,1
53,53,-7,-64,32,20,-1,9,28,39,37,1
53,50,-9,-63,33,17,-1,7,26,37,35,1
52,47,-10,-60,33,16,-1,5,24,34,32,0
51,44,-11,-58,33,13,-1,4,23,32,29,-0
49,41,-12,-55,33,11,-1,2,20,29,27,-0
47,38,-13,-52,32,10,-1,1,18,27,24,-1
45,35,-13,-49,31,8,-1,-0,16,24,21,-1
43,32,-13,-46,30,6,-1,-2,14,22,19,-2
41,29,-14,-43,30,4,-1,-3,12,20,16,-2
40,26,-15,-40,30,2,-2,-4,10,18,13,-3
39,24,-16,-38,30,0,-2,-5,8,16,11,-3
37,21,-16,-36,29,-0,-2,-5,6,14,9,-3
35,19,-16,-33,28,-2,-2,-6,4,12,7,-4
34,17,-17,-31,28,-3,-2,-7,2,10,5,-4
33,15,-17,-30,27,-4,-2,-7,0,9,3,-4
31,14,-16,-28,26,-5,-2,-8,-2,8,2,-4
30,12,-16,-26,25,-5,-2,-8,-2,7,1,-4
29,12,-16,-25,25,-5,-2,-9,-2,7,0,-4
29,12,-16,-25,25,-5,-2,-9,-3,7,0,-4
29,12,-16,-25,25,-5,-2,-9,-3,7,0,-4
29,12,-16,-25,25,-5,-2,-9,-3,7,0,-4
29,12,-16,-25,25,-5,-2,-9,-3,7,0,-4
24,9,-14,-21,21,-5,-3,-10,-5,1,-4,-5
18,6,-11,-15,16,-5,-4,-12,-9,-6,-10,-6
16,5,-10,-13,14,-4,-4,-12,-11,-8,-12,-6
15,5,-10,-12,14,-4,-4,-13,-11,-9,-12,-6
15,5,-9,-12,13,-4,-4,-13,-11,-9,-13,-6
15,5,-9,-12,13,-4,-4,-13,-11,-10,-13,-6
15,5,-9,-12,13,-4,-4,-13,-11,-10,-13,-6
15,5,-9,-12,13,-4,-4,-13,-11,-10,-13,-6
15,4,-10,-12,14,-5,-4,-13,-11,-10,-13,-6
15,2,-11,-11,15,-6,-4,-13,-11,-10,-13,-6
15,0,-12,-10,15,-8,-4,-13,-11,-10,-13,-6
15,-2,-14,-8,16,-10,-4,-13,-11,-10,-13,-6
15,-4,-16,-7,18,-13,-4,-13,-11,-10,-13,-6
15,-7,-17,-6,18,-15,-3,-13,-10,-10,-13,-6
15,-9,-19,-4,20,-17,-2,-13,-9,-10,-13,-6
15,-11,-21,-3,20,-20,-1,-13,-8,-10,-13,-6
15,-13,-22,-2,21,-21,-0,-12,-8,-9,-13,-6
15,-13,-22,-2,21,-21,1,-11,-8,-8,-15,-6
15,-14,-22,-2,22,-22,2,-11,-7,-7,-16,-6
15,-14,-22,-2,22,-22,3,-10,-7,-6,-18,-6
15,-14,-22,-2,22,-22,4,-9,-7,-5,-19,-6
15,-14,-22,-2,22,-22,4,-8,-5,-5,-19,-6
15,-14,-22,-2,22,-22,4,-7,-4,-5,-19,-6
15,-14,-22,-2,22,-22,4,-6,-2,-5,-19,-6
15,-14,-22,-2,22,-22,4,-4,-0,-5,-19,-6
15,-14,-22,-2,22,-22,4,-3,1,-5,-19,-7
15,-14,-22,-2,22,-22,4,-1,2,-5,-19,-7
15,-14,-22,-2,22,-22,4,1,3,-5,-19,-7
15,-13,-22,-2,21,-21,5,2,4,-4,-19,-7
15,-11,-20,-3,20,-19,5,3,5,-3,-19,-7
15,-9,-19,-4,20,-17,6,3,6,-2,-19,-8
15,-7,-17,-6,18,-15,7,3,7,-1,-19,-8
15,-5,-16,-6,18,-14,8,3,7,0,-19,-8
15,-5,-16,-7,18,-13,8,4,7,2,-17,-8
15,-4,-16,-7,18,-13,8,5,8,3,-16,-8
15,-4,-16,-7,18,-13,8,6,8,4,-14,-8
15,-4,-16,-7,18,-13,8,6,8,5,-13,-8
15,-4,-16,-7,18,-13,8,6,9,5,-13,-8
15,-4,-16,-7,18,-13,8,7,9,5,-13,-8
15,-4,-16,-7,18,-13,8,7,10,5,-13,-8
14,-4,-15,-6,17,-12,9,7,11,5,-13,-8
12,-4,-14,-5,15,-11,10,7,11,5,-13,-8
11,-4,-12,-4,13,-10,11,7,11,5,-13,-8
9,-4,-11,-3,11,-9,12,7,11,5,-13,-8
8,-3,-9,-3,10,-8,12,7,12,5,-12,-8
7,-1,-7,-4,8,-5,13,7,12,5,-11,-8
7,0,-5,-4,7,-4,13,7,13,5,-9,-8
7,3,-4,-6,6,-1,13,7,14,5,-8,-8
7,5,-2,-7,5,0,12,7,15,5,-7,-8
7,7,-1,-8,4,3,11,7,15,5,-7,-8
7,9,1,-10,3,5,11,7,15,5,-6,-8
7,12,3,-11,2,7,9,7,15,5,-6,-8
7,13,4,-12,1,9,9,7,15,5,-6,-8
7,14,4,-12,1,9,9,7,14,5,-6,-8
7,14,4,-12,1,10,8,7,13,5,-6,-8
7,14,4,-12,1,10,8,7,12,5,-6,-8
7,14,4,-12,1,10,8,6,12,5,-6,-8
7,14,4,-12,1,10,8,5,11,5,-6,-8
7,14,4,-12,1,10,8,5,11,5,-6,-8
7,14,4,-12,1,10,8,4,11,5,-6,-8
6,13,4,-12,1,9,8,3,11,5,-6,-8
5,11,4,-10,0,8,8,3,11,5,-6,-8
3,9,4,-7,-1,7,8,3,11,5,-6,-8
1,7,4,-5,-2,6,8,3,11,5,-6,-8
0,6,4,-3,-3,5,8,3,11,5,-7,-8
-0,5,4,-3,-3,5,8,3,11,5,-8,-8
-1,5,4,-2,-3,5,8,3,11,5,-9,-8
-1,5,4,-2,-3,5,8,3,11,5,-11,-8
-1,5,4,-2,-3,5,8,2,11,5,-12,-8
-1,5,4,-2,-3,5,7,2,10,4,-12,-8
-1,5,4,-2,-3,5,6,1,9,3,-13,-8
-1,5,4,-2,-3,5,5,-0,8,2,-13,-8
-1,5,4,-2,-3,5,5,-1,8,0,-13,-8
-1,5,4,-2,-3,5,4,-2,7,-1,-13,-8
-1,5,4,-2,-3,5,4,-3,6,-2,-13,-8
-1,5,4,-2,-3,5,4,-4,5,-3,-13,-8
-2,4,4,-1,-3,5,4,-5,4,-5,-13,-8
-3,2,4,1,-4,4,4,-6,4,-6,-15,-8
-5,0,4,3,-5,3,4,-7,4,-7,-16,-8
-7,-2,4,6,-6,2,4,-8,4,-8,-18,-8
-8,-3,4,7,-7,1,4,-8,4,-9,-19,-9
-8,-4,4,8,-7,1,4,-9,4,-9,-19,-9
-9,-4,4,8,-7,0,4,-9,4,-10,-19,-9
-9,-4,4,8,-7,0,4,-9,4,-10,-19,-9
-9,-5,4,9,-7,0,4,-9,4,-10,-19,-9
-9,-7,2,10,-6,-2,4,-9,4,-10,-19,-9
-9,-9,1,11,-5,-4,4,-9,4,-10,-19,-9
-9,-11,-1,12,-4,-6,4,-9,4,-10,-19,-9
-9,-13,-2,13,-3,-7,4,-9,4,-10,-19,-9
-9,-13,-2,13,-3,-8,4,-9,4,-10,-19,-9
-9,-14,-2,14,-3,-8,4,-9,4,-10,-19,-9
-9,-14,-2,14,-3,-8,4,-9,4,-10,-19,-9
-9,-14,-2,14,-3,-8,4,-9,4,-10,-19,-9
-9,-14,-2,14,-3,-8,4,-9,4,-10,-19,-9
-9,-14,-2,14,-3,-8,4,-9,4,-10,-19,-9
-9,-14,-2,14,-3,-8,4,-9,4,-10,-19,-9
-9,-14,-2,14,-3,-8,4,-9,4,-10,-19,-9
-6,-11,-3,11,-1,-8,2,-7,4,-8,-15,-8
-1,-8,-5,6,3,-7,-2,-4,5,-7,-9,-6
0,-7,-5,4,4,-7,-3,-3,5,-6,-7,-5
1,-7,-5,4,4,-7,-3,-3,5,-6,-7,-5
1,-7,-6,3,4,-7,-4,-3,4,-6,-7,-5
0,-7,-5,4,3,-7,-6,-3,3,-6,-8,-5
-0,-8,-5,5,3,-7,-8,-3,2,-7,-11,-5
-1,-9,-5,6,3,-8,-9,-4,1,-7,-12,-5
-1,-9,-6,6,3,-8,-9,-5,0,-8,-13,-6
-1,-9,-6,6,3,-8,-10,-6,-1,-8,-14,-6
-1,-9,-6,6,3,-8,-10,-7,-1,-9,-15,-6
-1,-9,-6,6,3,-8,-10,-8,-2,-9,-16,-7
-2,-10,-6,7,3,-9,-10,-9,-2,-10,-16,-7
-2,-11,-6,8,3,-9,-10,-9,-2,-10,-17,-7
-3,-11,-6,8,2,-10,-10,-9,-2,-10,-18,-7
-3,-11,-6,8,2,-10,-10,-9,-3,-10,-18,-7
-3,-11,-6,8,2,-10,-10,-9,-3,-10,-18,-7
-4,-12,-6,10,2,-10,-10,-10,-3,-11,-18,-7
-4,-13,-6,11,1,-10,-10,-10,-3,-11,-19,-7
-5,-14,-6,11,1,-10,-10,-10,-4,-11,-19,-7
-5,-14,-6,11,1,-10,-10,-10,-4,-11,-19,-8
-5,-14,-6,11,1,-10,-10,-10,-4,-11,-19,-8
-5,-14,-6,11,1,-10,-10,-10,-4,-11,-19,-8
-5,-14,-6,11,1,-10,-10,-10,-4,-11,-19,-8
-5,-14,-6,11,1,-10,-10,-10,-4,-11,-20,-8
-5,-14,-6,11,1,-10,-10,-10,-4,-11,-21,-8
-5,-14,-6,11,1,-10,-10,-10,-5,-12,-21,-8
-4,-13,-6,10,2,-10,-10,-10,-5,-12,-21,-8
-3,-12,-6,9,2,-10,-11,-10,-5,-13,-21,-8
-4,-11,-5,9,1,-9,-12,-10,-5,-15,-21,-8
-4,-11,-4,10,0,-9,-12,-10,-5,-16,-21,-8
-4,-11,-5,10,1,-9,-13,-10,-5,-17,-21,-8
-3,-11,-5,9,2,-9,-13,-11,-5,-17,-21,-8
-3,-11,-6,8,2,-10,-13,-12,-5,-17,-21,-8
-4,-12,-6,10,2,-10,-13,-13,-5,-17,-21,-8
-4,-13,-6,11,1,-10,-13,-13,-5,-17,-21,-8
-5,-14,-6,11,1,-10,-13,-13,-5,-17,-21,-8
-5,-14,-6,11,1,-10,-13,-14,-5,-17,-22,-8
-5,-14,-6,11,1,-10,-13,-14,-5,-17,-22,-8
-6,-14,-5,12,0,-10,-12,-14,-5,-17,-22,-8
-7,-14,-4,13,-1,-9,-11,-14,-5,-17,-22,-8
-9,-14,-2,14,-3,-8,-10,-14,-5,-17,-22,-9
-11,-14,-1,15,-5,-7,-9,-14,-5,-17,-22,-9
-12,-14,0,16,-6,-6,-8,-14,-5,-17,-22,-9
-13,-14,1,16,-8,-6,-8,-14,-5,-17,-22,-9
-14,-14,2,17,-9,-5,-8,-14,-4,-17,-22,-9
-15,-14,3,17,-9,-5,-8,-14,-4,-17,-22,-9
-15,-14,3,17,-9,-5,-8,-14,-4,-17,-21,-9
-15,-14,3,17,-9,-5,-8,-14,-4,-17,-21,-9
-15,-14,3,17,-9,-5,-8,-13,-4,-16,-21,-9
-15,-14,3,17,-9,-5,-8,-13,-4,-16,-21,-9
-15,-14,3,17,-9,-5,-8,-13,-4,-16,-21,-9
-15,-14,3,17,-9,-5,-8,-13,-4,-16,-21,-9
-15,-14,3,17,-9,-5,-8,-13,-4,-16,-21,-9
-15,-14,3,17,-9,-5,-8,-13,-4,-16,-21,-9
-15,-13,3,17,-10,-4,-8,-13,-4,-16,-21,-9
-16,-12,5,17,-11,-3,-8,-13,-4,-16,-21,-9
-17,-11,6,18,-13,-1,-8,-13,-4,-16,-21,-9
-20,-12,8,20,-15,-1,-8,-14,-4,-16,-21,-9
-22,-13,9,22,-17,-0,-8,-14,-4,-16,-21,-9
-22,-14,9,23,-17,-0,-8,-14,-5,-16,-21,-9
-23,-14,10,23,-18,-0,-8,-14,-5,-16,-21,-9
-23,-14,10,23,-18,-0,-8,-14,-6,-16,-21,-9
-23,-14,10,23,-18,-0,-8,-14,-6,-16,-21,-9
-23,-14,10,23,-18,-0,-8,-15,-6,-16,-21,-9
-22,-14,9,22,-17,-1,-8,-16,-6,-16,-21,-9
-21,-14,8,22,-16,-1,-8,-16,-6,-16,-21,-9
-21,-14,8,22,-15,-1,-8,-17,-6,-16,-21,-9
-21,-14,8,22,-15,-1,-8,-17,-6,-16,-21,-10
-21,-14,8,22,-15,-1,-8,-17,-6,-16,-22,-10
-21,-14,8,22,-15,-1,-8,-17,-7,-16,-22,-10
-21,-14,8,22,-15,-1,-8,-17,-7,-16,-22,-10
-21,-14,8,22,-15,-1,-8,-17,-7,-16,-22,-10
-21,-14,8,22,-15,-1,-8,-17,-7,-17,-22,-11
-21,-14,8,22,-15,-1,-8,-17,-7,-17,-22,-11
-21,-14,8,22,-15,-1,-8,-17,-7,-17,-22,-11
-21,-14,8,22,-15,-1,-8,-17,-7,-17,-22,-11
-21,-14,8,22,-15,-1,-8,-17,-7,-17,-22,-11
-21,-14,8,22,-15,-1,-8,-17,-7,-17,-22,-11
-21,-14,8,22,-15,-1,-8,-17,-7,-17,-22,-11
-21,-14,8,22,-15,-1,-8,-17,-7,-17,-22,-11
-21,-14,8,22,-15,-1,-8,-17,-7,-17,-22,-11
-21,-14,8,22,-15,-1,-8,-17,-7,-17,-22,-11
-21,-14,8,22,-15,-1,-7,-17,-7,-17,-22,-11
-21,-14,8,22,-15,-1,-6,-16,-6,-17,-22,-11
-21,-14,8,22,-15,-1,-5,-16,-5,-17,-22,-11
-21,-14,8,22,-15,-1,-4,-15,-5,-17,-22,-11
-21,-14,8,22,-15,-1,-3,-14,-4,-17,-22,-11
-21,-14,8,22,-15,-1,-2,-14,-4,-17,-22,-11
-21,-14,8,22,-15,-1,-1,-14,-4,-17,-22,-11
-21,-14,8,22,-15,-1,-0,-14,-4,-17,-22,-11
-21,-15,7,22,-15,-2,0,-14,-5,-17,-22,-11
-21,-16,6,23,-15,-3,1,-14,-5,-17,-22,-11
-21,-16,6,23,-15,-4,1,-14,-5,-17,-22,-11
-21,-16,6,23,-15,-4,1,-14,-5,-17,-22,-11
-21,-15,7,22,-15,-3,0,-13,-5,-17,-22,-11
-21,-14,7,22,-15,-2,-0,-12,-5,-17,-22,-11
-21,-14,8,22,-15,-1,-1,-12,-5,-17,-22,-11
-21,-14,8,22,-15,-1,-2,-11,-5,-17,-22,-11
-21,-15,7,22,-15,-2,-3,-10,-5,-17,-22,-11
-22,-17,6,24,-15,-4,-3,-10,-5,-17,-22,-11
-22,-20,4,26,-14,-7,-3,-10,-5,-17,-22,-11
-23,-23,3,28,-13,-10,-3,-10,-5,-18,-22,-11
-22,-25,1,29,-12,-11,-4,-10,-5,-18,-22,-11
-20,-25,-1,28,-10,-13,-5,-10,-5,-18,-22,-11
-19,-26,-2,27,-8,-14,-5,-10,-5,-18,-22,-11
-17,-26,-4,26,-6,-15,-6,-10,-5,-18,-22,-11
-16,-26,-5,25,-5,-16,-7,-10,-5,-18,-22,-11
-15,-26,-5,25,-5,-16,-7,-10,-5,-18,-22,-11
-15,-26,-6,24,-4,-16,-8,-10,-5,-18,-22,-11
-15,-26,-6,24,-4,-16,-8,-10,-5,-18,-23,-11
-15,-26,-6,24,-4,-16,-8,-10,-5,-18,-24,-11
-15,-26,-6,24,-4,-16,-8,-11,-5,-18,-24,-11
-15,-26,-6,24,-4,-16,-8,-11,-5,-18,-24,-11
-15,-26,-6,24,-4,-16,-8,-11,-5,-18,-24,-10
-15,-26,-6,24,-4,-16,-8,-11,-6,-18,-24,-10
-15,-26,-6,24,-4,-16,-8,-11,-6,-18,-24,-10
-15,-26,-6,24,-4,-16,-8,-11,-6,-18,-24,-10
-15,-26,-6,24,-4,-16,-8,-11,-6,-19,-24,-10
-15,-26,-6,24,-4,-16,-8,-11,-6,-19,-24,-10
-15,-26,-6,24,-4,-16,-9,-11,-6,-20,-24,-10
-15,-26,-6,24,-4,-16,-10,-11,-6,-20,-24,-10
-15,-26,-6,24,-4,-16,-11,-11,-6,-20,-24,-10
-15,-26,-6,24,-4,-16,-11,-11,-6,-19,-24,-10
-15,-26,-6,24,-4,-16,-12,-11,-6,-19,-24,-10
-15,-26,-6,24,-4,-16,-12,-11,-6,-18,-24,-10
-15,-26,-6,24,-4,-16,-12,-11,-6,-18,-24,-10
-15,-26,-6,24,-4,-16,-11,-11,-6,-18,-24,-10
-15,-26,-6,24,-4,-16,-11,-11,-6,-18,-24,-10
-15,-26,-6,24,-4,-16,-9,-11,-5,-18,-24,-10
-15,-26,-6,24,-4,-16,-8,-11,-5,-18,-24,-10
-15,-26,-6,24,-4,-16,-7,-11,-5,-18,-24,-10
-15,-26,-6,24,-4,-16,-7,-11,-5,-18,-24,-10
-15,-26,-6,24,-4,-16,-6,-11,-5,-18,-24,-11
-15,-26,-6,24,-4,-16,-6,-11,-5,-18,-24,-11
-15,-26,-6,24,-4,-16,-6,-11,-6,-18,-24,-11
-15,-26,-6,24,-4,-16,-6,-11,-7,-18,-24,-11
-15,-26,-6,24,-4,-16,-7,-11,-8,-18,-24,-11
-15,-26,-6,24,-4,-16,-7,-11,-9,-19,-24,-11
-15,-25,-5,24,-5,-16,-8,-11,-10,-19,-24,-11
-15,-23,-4,23,-5,-14,-8,-12,-10,-20,-24,-11
-15,-21,-2,22,-6,-12,-8,-14,-10,-20,-24,-11
-15,-18,-1,20,-7,-10,-8,-15,-10,-20,-24,-11
-15,-17,0,20,-8,-8,-8,-15,-10,-20,-24,-11
-15,-17,1,19,-8,-8,-8,-15,-10,-20,-24,-11
-15,-16,1,19,-8,-7,-8,-16,-10,-20,-24,-11
-15,-16,1,19,-8,-7,-8,-16,-10,-20,-24,-11
-16,-17,1,20,-9,-8,-8,-16,-10,-20,-24,-11
-16,-18,1,21,-9,-8,-8,-16,-10,-20,-24,-11
-17,-18,1,22,-9,-8,-8,-16,-10,-20,-24,-11
-17,-18,1,22,-9,-8,-8,-16,-10,-20,-24,-11
-18,-18,2,22,-10,-8,-8,-16,-10,-20,-24,-12
-19,-18,3,23,-12,-7,-9,-16,-10,-20,-24,-12
-21,-18,4,24,-13,-6,-9,-16,-10,-20,-24,-12
-23,-18,6,25,-15,-5,-9,-16,-10,-20,-24,-12
-24,-19,6,27,-16,-5,-9,-16,-10,-20,-24,-12
-25,-21,6,29,-17,-6,-9,-16,-10,-20,-24,-12
-27,-23,6,31,-17,-7,-9,-16,-10,-20,-24,-12
-27,-26,4,32,-17,-10,-10,-16,-10,-20,-24,-12
-27,-27,3,33,-16,-11,-10,-16,-10,-20,-24,-12
-27,-27,3,33,-16,-11,-10,-16,-10,-21,-24,-12
-27,-28,3,33,-15,-12,-10,-16,-10,-22,-24,-12
-27,-28,3,33,-15,-12,-10,-17,-10,-23,-24,-12
-27,-28,3,33,-15,-12,-10,-17,-11,-24,-24,-12
-27,-28,3,33,-15,-12,-10,-17,-11,-24,-24,-12
-27,-28,3,33,-15,-12,-10,-17,-12,-25,-24,-12
-27,-28,3,33,-15,-12,-10,-18,-13,-25,-24,-12
-27,-28,3,33,-15,-12,-10,-18,-14,-25,-24,-12
-27,-29,2,34,-15,-13,-10,-18,-15,-25,-24,-12
-27,-30,1,34,-15,-14,-10,-18,-15,-25,-25,-12
-27,-30,1,35,-15,-14,-10,-18,-15,-25,-25,-12
-27,-30,1,35,-15,-14,-10,-18,-15,-25,-26,-12
-27,-30,1,35,-15,-14,-10,-18,-15,-24,-26,-12
-26,-30,0,34,-14,-15,-11,-18,-14,-23,-27,-12
-25,-30,-0,34,-13,-15,-11,-18,-14,-22,-27,-12
-25,-30,-1,33,-13,-15,-11,-18,-13,-21,-27,-12
-25,-30,-1,33,-13,-15,-11,-18,-13,-21,-27,-13
-26,-30,0,34,-13,-15,-10,-18,-13,-21,-27,-13
-27,-30,1,35,-15,-14,-10,-18,-12,-21,-27,-13
-29,-29,3,35,-17,-12,-10,-18,-12,-21,-26,-13
-27,-27,3,33,-16,-11,-10,-18,-12,-21,-26,-13
-26,-24,5,30,-16,-8,-10,-18,-12,-21,-27,-13
-24,-19,7,27,-17,-5,-10,-18,-12,-20,-27,-13
-23,-19,6,26,-15,-5,-9,-18,-11,-19,-25,-13
-21,-20,3,25,-13,-8,-9,-17,-10,-19,-24,-13
-19,-21,1,24,-10,-10,-9,-17,-11,-18,-24,-13
-18,-22,-0,24,-9,-11,-9,-16,-11,-18,-24,-13
-19,-24,-1,26,-10,-12,-9,-16,-10,-19,-24,-13
-13,-24,-6,22,-3,-16,-7,-15,-10,-19,-26,-14
-15,-24,-4,24,-5,-14,-1,-12,-8,-19,-26,-14
-31,-28,6,37,-20,-10,6,-0,0,-17,-28,-15
-31,-28,6,37,-20,-10,9,4,4,-16,-29,-15
-37,-28,11,41,-26,-6,8,-2,2,-15,-31,-15
-35,-43,-1,47,-18,-21,11,-2,2,-15,-33,-15
-35,-45,-2,49,-17,-23,6,-4,2,-17,-37,-15
-35,-40,1,46,-19,-19,3,-14,1,-10,-28,-15
-27,-31,1,35,-15,-14,-10,-27,-2,-4,-16,-12
-1,-9,-6,6,3,-9,-24,-46,-7,8,3,-9
15,24,4,-23,5,14,-39,-63,-13,22,29,-7
35,38,-2,-44,20,16,-53,-79,-23,27,50,-5
63,57,-13,-73,40,19,-68,-94,-33,33,70,-2
93,73,-26,-102,64,17,-81,-106,-36,56,99,1
129,109,-31,-146,86,31,-95,-120,-41,73,140,7
173,144,-43,-195,116,40,-109,-132,-42,97,179,12
232,194,-57,-261,155,55,-132,-148,-48,122,225,19
274,229,-67,-309,183,65,-166,-177,-76,121,251,23
310,251,-82,-344,212,65,-195,-205,-103,121,282,29
360,263,-116,-384,258,48,-230,-237,-134,102,293,32
380,263,-133,-397,279,37,-249,-256,-164,71,277,33
388,253,-147,-397,292,23,-261,-270,-193,33,254,33
380,237,-152,-383,291,12,-268,-276,-221,-10,220,31
372,222,-155,-370,289,3,-272,-282,-240,-49,182,29
348,192,-157,-336,277,-13,-270,-286,-258,-90,138,26
310,114,-181,-267,272,-67,-251,-273,-276,-145,59,21
250,83,-152,-211,223,-62,-219,-248,-258,-168,16,14
194,80,-106,-172,166,-32,-189,-222,-234,-162,-5,10
149,80,-69,-143,120,-7,-166,-201,-203,-143,-11,8
131,76,-57,-129,103,-2,-144,-180,-172,-125,-21,5
69,76,-4,-87,38,33,-117,-152,-134,-98,-2,4
47,71,11,-70,18,42,-97,-122,-101,-70,5,2
41,57,6,-59,18,31,-79,-100,-80,-59,-2,-0
31,50,10,-48,10,30,-63,-83,-65,-47,-11,-2
23,33,4,-33,9,19,-49,-65,-49,-40,-15,-3
19,17,-4,-21,12,5,-36,-50,-36,-32,-16,-4
-1,0,1,1,-1,0,-22,-35,-23,-22,-11,-4
-9,-5,4,9,-8,0,-13,-25,-15,-17,-13,-5
-7,-14,-4,13,-1,-10,-15,-19,-12,-20,-16,-7
-9,-9,1,12,-5,-4,-10,-18,-11,-22,-16,-8
-21,-17,6,23,-15,-4,-6,-14,-7,-20,-16,-8
-15,-21,-2,22,-6,-12,6,-11,-6,-20,-20,-9
-17,-24,-2,25,-8,-13,-1,-12,-4,-20,-20,-9
-20,-22,1,25,-11,-10,-1,-10,-3,-20,-21,-9
-20,-18,4,24,-13,-6,-1,-9,-2,-19,-21,-9
-22,-14,9,22,-17,-1,-1,-7,-1,-19,-21,-9
-25,-9,15,22,-22,5,-1,-6,-1,-18,-21,-9
-28,-9,17,23,-25,7,-1,-6,-1,-19,-22,-9
-28,-15,13,26,-22,1,-2,-6,-1,-20,-24,-10
-27,-23,7,31,-18,-6,-2,-7,-2,-21,-28,-10
-29,-33,1,37,-15,-16,-1,-6,-2,-22,-30,-11
-30,-39,-2,42,-14,-21,-0,-6,-2,-22,-30,-11
-31,-39,-2,42,-15,-20,0,-5,-1,-21,-31,-11
-31,-34,2,40,-18,-15,1,-4,-1,-19,-30,-11
-33,-32,5,39,-20,-12,1,-3,0,-17,-29,-11
-33,-32,5,40,-20,-12,2,-3,0,-16,-29,-10
-32,-31,5,39,-20,-11,3,-3,0,-16,-29,-10
-31,-33,3,39,-18,-14,4,-3,0,-16,-30,-10
-31,-36,0,41,-16,-18,5,-3,-0,-16,-30,-10
-32,-39,-1,43,-16,-20,6,-3,-1,-17,-31,-10
-33,-39,0,44,-17,-19,7,-3,-1,-17,-31,-10
-35,-40,1,45,-18,-19,7,-3,-0,-18,-32,-10
-35,-40,1,46,-19,-19,7,-3,0,-18,-32,-10
-35,-39,2,45,-19,-18,8,-3,0,-18,-32,-10
-35,-37,3,44,-20,-16,9,-2,0,-18,-32,-10
-35,-35,4,43,-21,-14,10,-0,0,-17,-32,-9
-35,-33,6,41,-22,-12,12,1,0,-17,-32,-8
-35,-31,7,41,-23,-10,13,1,0,-17,-32,-8
-35,-31,7,40,-23,-10,14,2,0,-17,-32,-7
-35,-31,7,41,-23,-10,16,2,1,-17,-32,-7
-35,-32,6,41,-22,-11,17,2,1,-17,-32,-7
-35,-33,6,41,-22,-12,18,2,1,-18,-33,-6
-36,-33,7,42,-23,-11,18,3,1,-18,-34,-6
-37,-33,7,42,-23,-11,18,3,1,-18,-34,-6
-37,-34,7,43,-23,-11,18,3,1,-18,-34,-6
-37,-35,6,44,-23,-12,18,3,1,-18,-34,-6
-37,-35,6,44,-23,-13,18,3,1,-17,-34,-6
-37,-35,6,44,-23,-13,19,3,1,-16,-34,-6
-37,-35,6,44,-23,-13,19,3,1,-15,-34,-5
-36,-35,5,43,-22,-13,19,3,1,-14,-33,-5
-35,-35,4,42,-20,-14,20,4,2,-14,-32,-5
-33,-35,3,41,-19,-15,20,4,3,-14,-31,-5
-31,-35,1,40,-17,-16,20,4,4,-14,-30,-4
-30,-35,0,40,-16,-17,20,4,4,-15,-29,-4
-31,-34,1,39,-17,-16,20,5,5,-15,-29,-4
-31,-32,3,38,-18,-13,21,5,5,-15,-29,-4
-31,-28,6,37,-20,-10,21,5,5,-15,-29,-4
-32,-26,8,36,-21,-8,22,5,5,-15,-29,-4
-33,-26,10,37,-23,-6,22,6,5,-14,-29,-4
-35,-26,11,38,-25,-5,24,8,5,-13,-29,-4
-37,-26,12,39,-27,-5,25,9,5,-13,-29,-3
-38,-27,13,41,-28,-5,25,9,5,-12,-29,-3
-39,-28,13,41,-28,-5,25,9,5,-12,-29,-2
-39,-28,13,41,-28,-5,25,10,6,-12,-29,-2
-39,-28,13,41,-28,-5,25,10,6,-12,-29,-1
-39,-28,13,41,-28,-5,25,10,6,-12,-29,-1
-39,-28,13,41,-28,-5,24,10,6,-12,-29,-0
-39,-28,13,41,-28,-5,23,10,6,-12,-29,-0
-39,-28,13,41,-28,-5,22,11,6,-12,-29,0
-39,-28,13,41,-28,-5,22,11,6,-12,-29,0
-39,-28,13,41,-28,-5,22,11,6,-12,-29,0
-39,-28,13,41,-28,-5,21,12,7,-11,-29,1
-39,-28,13,41,-28,-5,21,12,7,-11,-29,1
-39,-29,12,42,-28,-6,22,12,7,-11,-29,1
-39,-31,11,43,-27,-8,22,12,8,-11,-29,1
-39,-33,10,44,-26,-10,22,13,8,-10,-29,1
-40,-35,8,46,-26,-11,22,13,8,-10,-29,1
-41,-36,8,47,-26,-12,23,13,8,-10,-30,1
-41,-37,8,48,-26,-12,23,14,9,-11,-31,1
-41,-37,8,48,-26,-13,24,14,9,-12,-32,1
-41,-37,8,48,-26,-13,24,14,10,-12,-34,1
-41,-37,8,48,-26,-13,24,15,10,-13,-35,1
-41,-37,8,48,-26,-13,24,15,10,-13,-35,1
-41,-37,8,48,-26,-13,25,15,9,-13,-36,1
-41,-37,8,48,-26,-13,25,16,9,-12,-36,1
-41,-37,8,48,-26,-13,25,16,8,-12,-35,1
-41,-37,8,48,-26,-13,25,16,9,-12,-34,1
-41,-37,8,48,-26,-13,25,15,9,-11,-34,1
-41,-37,8,48,-26,-13,25,14,10,-11,-34,1
-41,-37,8,48,-26,-13,25,14,10,-10,-33,1
-41,-38,7,49,-25,-14,25,14,11,-10,-33,1
-41,-40,6,50,-25,-16,25,15,11,-10,-32,1
-41,-42,4,51,-24,-17,25,15,12,-9,-32,1
-41,-44,3,51,-23,-19,25,16,13,-9,-32,1
-41,-44,3,52,-23,-19,25,16,12,-9,-31,1
-41,-44,3,52,-23,-20,25,16,12,-10,-30,1
-41,-44,3,52,-23,-20,25,17,12,-11,-29,1
-41,-44,3,51,-23,-19,26,17,12,-11,-29,1
-41,-43,4,51,-24,-18,26,18,12,-10,-30,0
-40,-42,4,50,-23,-18,26,18,13,-9,-30,0
-39,-42,3,50,-22,-18,26,19,14,-9,-31,0
-40,-41,4,49,-23,-17,26,19,15,-8,-31,0
-41,-40,6,50,-25,-16,26,20,15,-7,-30,-0
-43,-39,8,50,-27,-14,26,21,15,-7,-29,-0
-45,-38,11,51,-30,-11,27,22,15,-6,-29,-0
-46,-37,12,51,-31,-10,27,22,15,-6,-28,0
-45,-35,13,50,-32,-8,27,23,16,-5,-27,0
-45,-33,15,48,-32,-6,28,24,18,-3,-26,0
-44,-30,16,46,-33,-4,28,25,19,-2,-25,0
-43,-29,15,44,-31,-4,28,26,20,-1,-24,0
-41,-27,15,42,-30,-3,29,27,22,0,-22,0
-38,-26,14,40,-28,-3,29,29,23,2,-21,0
-35,-24,12,37,-25,-4,30,30,25,3,-19,0
-32,-23,11,34,-23,-4,30,31,26,5,-18,0
-31,-21,11,32,-23,-3,31,33,28,6,-16,0
-29,-19,11,30,-22,-2,31,34,30,8,-14,0
-29,-18,12,29,-22,-1,32,35,32,10,-13,1
-28,-15,13,27,-23,1,33,36,34,11,-11,1
-27,-12,15,25,-23,4,34,38,36,13,-8,1
-27,-9,16,22,-24,6,35,39,39,15,-5,1
-25,-4,18,19,-24,10,37,41,41,17,-1,1
-25,-0,21,17,-25,13,38,42,44,20,1,2
-25,2,22,15,-27,16,38,44,46,23,4,2
-26,3,24,15,-28,17,39,46,48,26,6,2
-26,5,25,14,-29,19,39,49,50,29,8,2
-24,8,26,11,-28,21,39,51,52,32,10,3
-22,10,26,8,-27,22,39,52,53,34,13,3
-20,13,26,6,-26,23,39,53,55,36,15,4
-18,16,26,3,-25,25,39,54,56,38,18,4
-16,19,27,0,-25,27,39,55,58,40,20,5
-12,21,26,-4,-23,27,40,57,60,42,22,5
-8,24,24,-8,-19,27,41,59,63,44,25,5
-4,26,22,-12,-16,27,41,61,65,46,27,5
-1,28,21,-15,-14,28,42,62,67,48,30,6
1,31,21,-18,-13,29,42,64,68,49,32,6
3,33,21,-21,-11,30,42,65,69,52,34,7
5,35,21,-23,-10,31,41,67,70,53,36,8
7,39,22,-26,-10,33,41,68,71,54,39,8
9,42,23,-29,-10,35,41,68,72,56,41,9
11,45,23,-32,-9,37,40,69,73,58,43,9
12,46,23,-34,-8,37,39,69,74,59,45,9
13,48,23,-35,-8,38,39,69,75,61,47,10
15,50,23,-38,-7,39,38,68,75,62,49,10
17,52,23,-40,-5,40,38,68,76,63,50,10
19,54,23,-43,-5,42,37,66,76,64,52,10
21,57,23,-46,-3,42,36,65,77,65,54,11
23,58,22,-48,-2,43,35,65,77,66,55,11
25,60,22,-50,-0,43,33,65,77,67,57,11
28,61,21,-52,2,43,31,64,77,68,59,11
30,64,21,-55,3,44,30,64,77,68,60,12
32,66,21,-58,4,46,28,64,76,69,62,12
35,68,19,-60,6,45,26,63,74,69,64,12
36,69,19,-63,7,46,24,62,73,70,64,12
37,70,19,-64,8,47,23,61,72,70,65,13
39,71,18,-66,9,47,21,59,70,71,66,12
40,73,18,-67,10,47,20,57,69,70,67,12
41,73,18,-68,10,47,19,54,68,70,67,12
43,73,16,-69,12,46,18,52,67,69,68,12
46,73,14,-71,15,44,16,50,66,69,68,12
49,73,12,-73,18,43,15,48,64,68,67,12
51,73,10,-75,20,42,14,46,62,67,67,12
52,72,8,-75,22,40,13,44,60,66,66,12
53,71,7,-75,23,39,12,41,58,64,63,12
53,70,6,-74,24,37,11,39,56,62,60,12
53,69,4,-73,25,36,9,36,53,60,58,12
53,67,3,-73,25,34,8,33,51,58,55,12
52,66,3,-71,25,33,6,30,48,57,52,12
51,64,2,-69,25,32,4,28,44,54,50,11
51,61,1,-68,25,30,3,26,40,52,49,11
49,59,1,-66,25,29,1,24,37,50,47,11
49,57,-0,-64,25,27,-1,21,35,48,44,11
47,54,-1,-61,25,26,-3,18,32,45,42,10
45,52,-1,-59,24,24,-5,15,29,43,39,10
44,50,-1,-57,23,23,-7,13,27,40,36,10
43,46,-3,-53,24,20,-8,11,24,37,34,10
41,43,-4,-51,23,18,-10,9,22,34,31,9
39,40,-4,-48,23,16,-12,7,20,32,28,9
37,38,-4,-45,22,15,-13,5,17,29,26,9
35,35,-5,-42,21,13,-14,4,15,27,24,8
33,31,-5,-39,20,11,-14,2,13,24,23,7
31,28,-6,-36,20,10,-14,1,11,22,22,7
29,26,-6,-33,18,8,-14,-0,8,19,21,6
27,23,-6,-30,18,6,-14,-2,7,17,18,6
26,20,-7,-28,18,5,-14,-3,5,16,17,6
25,19,-7,-27,18,4,-14,-3,5,16,17,6
25,19,-7,-26,18,4,-14,-3,5,15,16,6
