I,II,III,aVR,aVL,aVF,V1,V2,V3,V4,V5,V6
56,-10,-52,-18,77,-32,6,-9,2,1,-2,-48
60,-9,-54,-21,82,-32,4,-9,1,1,-3,-49
57,-11,-53,-18,78,-33,6,-10,2,0,-3,-48
64,-11,-59,-21,87,-36,4,-10,1,0,-3,-50
68,-8,-59,-24,90,-34,4,-10,2,0,-3,-48
52,-11,-50,-16,73,-31,5,-8,3,1,-2,-45
53,-11,-51,-16,74,-31,5,-8,4,2,-1,-44
66,-7,-57,-24,87,-32,4,-10,2,1,-1,-48
62,-9,-56,-21,84,-33,5,-10,4,0,-1,-49
57,-11,-53,-18,78,-33,4,-9,4,1,-1,-46
58,-10,-54,-19,80,-33,3,-9,4,2,-1,-46
58,-10,-54,-19,80,-33,4,-9,3,1,-3,-45
57,-9,-52,-19,78,-31,2,-9,5,0,-3,-45
57,-9,-52,-19,78,-31,4,-9,5,1,-1,-43
57,-10,-53,-18,79,-32,-0,-9,4,-0,-1,-44
61,-8,-53,-21,81,-31,1,-8,5,1,-1,-44
54,-11,-52,-16,76,-33,4,-9,4,1,-1,-44
59,-9,-53,-19,80,-32,4,-9,4,0,-1,-44
62,-9,-55,-21,83,-32,4,-9,5,1,-1,-44
60,-8,-52,-21,79,-31,3,-10,5,1,-0,-44
61,-8,-53,-21,81,-31,2,-9,6,2,0,-43
62,-10,-57,-20,84,-34,4,-10,3,0,-1,-46
63,-9,-57,-21,85,-34,2,-9,4,1,-1,-47
66,-8,-57,-24,87,-33,2,-10,4,0,-1,-46
63,-7,-54,-23,83,-31,2,-9,5,1,-0,-44
60,-10,-56,-19,83,-34,3,-10,4,0,-1,-45
63,-10,-57,-21,85,-34,5,-10,3,1,-1,-45
65,-10,-59,-21,88,-35,4,-10,4,1,-1,-47
62,-11,-57,-20,85,-35,2,-10,4,0,0,-47
78,-8,-66,-29,102,-38,2,-10,2,0,-0,-48
65,-7,-56,-23,85,-32,5,-8,5,2,1,-44
63,-9,-56,-21,84,-33,4,-9,5,2,-1,-45
65,-9,-58,-22,88,-34,4,-9,3,1,-1,-47
62,-11,-58,-19,86,-36,4,-9,4,1,-1,-45
67,-9,-59,-23,89,-34,1,-8,4,2,-0,-45
68,-7,-58,-25,89,-33,-0,-9,4,1,0,-45
63,-11,-59,-19,87,-36,-1,-8,5,2,0,-44
65,-6,-54,-24,84,-31,3,-9,7,2,1,-43
68,-7,-58,-25,89,-33,3,-9,6,2,0,-44
65,-10,-59,-21,88,-35,6,-9,6,2,1,-44
63,-9,-57,-21,85,-34,10,-10,5,2,2,-45
70,-9,-61,-25,94,-36,8,-10,4,1,1,-48
72,-9,-63,-25,96,-37,5,-10,2,1,1,-48
67,-11,-62,-21,92,-38,5,-10,4,1,1,-49
72,-9,-63,-26,96,-37,4,-10,5,1,0,-50
74,-6,-61,-28,96,-34,5,-9,6,1,0,-47
67,-10,-60,-23,91,-36,5,-9,6,2,0,-49
65,-11,-60,-21,89,-37,2,-9,6,1,-1,-49
72,-7,-61,-27,95,-35,2,-10,7,1,0,-47
69,-9,-60,-24,92,-35,2,-9,7,2,1,-46
73,-9,-64,-26,97,-37,0,-10,7,1,1,-47
78,-8,-66,-29,102,-38,-1,-10,6,1,1,-48
70,-11,-64,-24,95,-38,-2,-10,6,2,1,-47
67,-11,-62,-21,92,-38,1,-10,6,2,2,-47
65,-13,-62,-19,91,-39,5,-10,7,2,1,-47
69,-10,-62,-23,93,-37,5,-9,7,2,1,-47
69,-13,-66,-21,97,-41,6,-11,6,1,1,-49
69,-13,-65,-21,96,-40,2,-11,7,1,1,-49
73,-9,-64,-26,98,-38,3,-10,7,2,2,-47
76,-7,-64,-29,99,-36,4,-9,8,2,2,-48
70,-11,-64,-23,96,-39,2,-10,8,2,2,-48
75,-8,-64,-28,98,-36,4,-9,9,3,2,-47
79,-5,-64,-31,101,-35,5,-8,11,3,3,-46
82,-3,-64,-34,103,-34,5,-7,11,4,4,-45
88,3,-61,-40,104,-29,7,-7,13,4,4,-46
91,8,-58,-45,104,-25,7,-6,14,5,5,-43
86,5,-58,-41,101,-27,9,-6,14,6,6,-42
83,6,-55,-40,96,-24,9,-7,14,6,6,-42
88,11,-52,-46,97,-20,11,-6,17,7,6,-40
90,13,-52,-48,98,-19,12,-6,16,7,7,-41
90,11,-53,-47,99,-21,13,-4,18,7,8,-41
96,14,-56,-51,105,-20,11,-5,16,6,7,-41
96,14,-55,-52,104,-20,12,-5,17,8,8,-38
91,12,-53,-48,99,-20,13,-5,17,8,9,-41
104,16,-59,-56,112,-21,13,-5,18,8,9,-42
104,16,-59,-56,113,-21,12,-4,19,8,10,-40
103,19,-55,-57,108,-17,15,-2,22,10,11,-39
107,22,-54,-62,110,-15,17,-1,26,10,11,-38
126,26,-64,-73,131,-18,13,-1,26,10,10,-38
123,31,-57,-74,122,-11,15,2,30,13,14,-33
119,30,-54,-72,118,-11,14,2,31,14,15,-30
115,28,-53,-69,114,-11,7,1,29,13,15,-30
114,26,-55,-68,115,-13,4,-1,27,12,15,-32
110,25,-53,-65,112,-13,2,-2,26,13,15,-30
125,27,-62,-73,128,-16,-1,-4,24,13,14,-33
118,19,-65,-65,126,-22,2,-4,23,11,13,-36
107,16,-61,-57,116,-22,1,-5,20,10,12,-36
113,17,-64,-61,123,-23,-1,-5,20,11,12,-34
113,15,-66,-60,124,-25,-3,-6,20,11,13,-34
119,14,-72,-61,132,-28,-6,-6,18,10,13,-37
122,13,-75,-62,136,-30,-4,-7,18,10,12,-38
124,11,-79,-62,141,-33,1,-6,18,10,13,-37
120,11,-76,-60,136,-32,1,-6,19,10,13,-35
124,11,-80,-61,142,-34,-1,-6,17,10,13,-34
120,11,-76,-60,136,-32,-2,-6,19,10,12,-32
119,9,-78,-58,137,-34,-3,-7,16,10,11,-33
112,5,-77,-52,132,-36,-3,-7,16,9,11,-31
115,1,-84,-51,139,-42,-6,-9,13,7,10,-33
112,1,-82,-50,136,-41,-4,-9,12,7,11,-34
105,-2,-80,-45,129,-41,-4,-8,12,7,11,-35
103,-1,-76,-45,126,-39,-3,-8,13,7,10,-37
99,-1,-75,-42,122,-39,-4,-9,13,7,9,-37
95,-1,-71,-41,117,-36,-4,-8,14,7,9,-37
97,0,-72,-42,118,-36,-4,-8,14,7,9,-38
91,-4,-72,-37,114,-39,-4,-8,13,6,9,-38
86,-7,-71,-33,111,-39,-4,-9,12,6,8,-41
88,-5,-70,-35,111,-38,-2,-8,13,6,8,-41
85,-6,-70,-33,110,-39,-4,-9,12,5,7,-41
85,-6,-69,-33,109,-39,-3,-10,11,5,8,-41
85,-9,-72,-31,112,-42,-5,-11,10,4,7,-40
86,-9,-73,-32,113,-42,-5,-11,8,4,6,-43
91,-6,-73,-36,116,-40,-4,-12,10,4,6,-41
86,-7,-72,-33,112,-40,-2,-12,9,3,7,-41
83,-10,-72,-29,110,-42,-1,-12,8,3,6,-42
85,-10,-74,-31,113,-43,-2,-12,7,2,6,-42
81,-11,-72,-28,108,-42,-5,-13,8,2,6,-42
80,-11,-71,-28,107,-41,-6,-12,9,3,7,-42
82,-12,-74,-28,111,-44,-9,-14,7,2,5,-44
82,-11,-73,-28,111,-43,-8,-13,7,2,5,-43
78,-11,-69,-27,105,-41,-6,-12,8,3,6,-42
74,-13,-69,-24,102,-42,-6,-12,8,3,6,-42
76,-12,-70,-25,104,-42,-6,-12,8,3,6,-43
80,-11,-72,-27,108,-42,-7,-12,8,2,6,-43
78,-13,-72,-25,107,-44,-6,-12,8,3,7,-42
75,-11,-67,-26,102,-40,-8,-12,9,3,7,-42
82,-10,-71,-29,108,-41,-6,-12,10,4,7,-42
79,-12,-72,-26,107,-43,-7,-12,10,3,7,-43
79,-12,-72,-26,107,-43,-9,-13,9,3,6,-44
82,-11,-72,-29,110,-42,-10,-12,10,3,6,-42
83,-10,-72,-30,111,-42,-9,-11,11,4,8,-42
82,-9,-71,-30,109,-41,-10,-11,11,4,8,-43
81,-10,-71,-29,108,-41,-5,-12,11,4,7,-43
87,-8,-72,-33,113,-41,-5,-12,11,4,9,-42
80,-9,-69,-29,106,-40,-3,-12,11,5,9,-42
82,-8,-69,-31,107,-40,-2,-12,12,5,9,-44
87,-5,-69,-35,110,-38,-3,-12,13,5,9,-42
85,-8,-71,-32,110,-40,-3,-13,12,5,9,-40
81,-10,-71,-29,107,-41,-3,-12,12,4,8,-41
85,-11,-74,-30,113,-43,-4,-13,10,3,7,-41
85,-12,-76,-29,115,-45,-3,-12,14,4,8,-42
81,-9,-69,-30,107,-40,-2,-8,19,3,7,-43
91,1,-66,-40,110,-33,4,-2,21,-1,3,-47
68,9,-41,-36,75,-16,17,11,34,-4,0,-50
82,18,-41,-48,84,-10,34,33,59,-7,-4,-57
101,29,-42,-64,97,-5,53,60,89,-5,-4,-56
131,36,-56,-82,126,-7,70,86,120,2,3,-49
139,46,-51,-92,127,1,89,87,129,8,8,-44
135,70,-21,-106,101,29,108,84,154,20,16,-36
126,100,19,-122,62,66,139,82,179,32,25,-26
153,111,11,-142,85,68,149,69,190,54,48,-1
189,119,-6,-163,121,64,163,60,210,83,76,30
211,154,16,-196,116,95,155,24,206,118,114,72
228,197,53,-233,96,138,117,-32,167,153,153,118
260,257,96,-287,80,193,64,-92,123,190,198,173
261,319,165,-329,24,263,-34,-180,36,228,248,238
282,378,215,-377,-5,321,-142,-261,-72,252,288,293
304,419,245,-415,-16,359,-243,-328,-161,277,322,343
311,390,207,-398,19,324,-298,-369,-217,307,353,377
300,329,147,-353,62,260,-298,-371,-209,340,378,394
287,294,117,-323,79,224,-284,-354,-192,354,389,399
285,272,95,-308,96,201,-299,-343,-193,353,390,398
264,244,78,-280,98,176,-301,-324,-192,339,375,376
223,201,60,-233,87,143,-297,-297,-167,322,346,334
199,148,19,-187,106,93,-287,-258,-115,307,315,289
176,105,-12,-147,118,53,-272,-222,-84,278,277,239
132,83,-4,-113,84,44,-259,-195,-85,204,213,173
75,56,7,-71,41,35,-231,-175,-119,77,110,80
6,28,27,-21,-18,29,-204,-155,-148,-69,-12,-18
-19,16,32,-2,-37,25,-197,-138,-158,-113,-53,-50
-2,13,16,-7,-14,15,-207,-126,-143,-86,-42,-48
6,4,0,-5,4,3,-188,-105,-114,-62,-29,-43
22,7,-8,-14,20,0,-170,-88,-88,-46,-20,-40
37,11,-15,-23,35,-2,-145,-70,-62,-36,-15,-38
43,16,-14,-29,38,2,-115,-47,-31,-23,-5,-28
67,15,-33,-39,68,-8,-89,-31,-10,-15,-0,-25
92,16,-50,-51,98,-16,-66,-18,8,-10,3,-24
101,11,-61,-52,112,-24,-44,-7,23,-7,6,-23
110,13,-67,-57,123,-26,-24,2,33,-4,8,-22
113,10,-72,-57,129,-31,-13,6,37,-3,8,-25
109,5,-75,-51,128,-35,-5,9,39,-3,7,-27
108,3,-77,-49,129,-37,1,11,41,-2,8,-28
108,1,-78,-48,131,-39,2,13,44,-1,8,-29
105,-4,-82,-43,132,-44,1,13,44,-0,7,-30
101,-9,-84,-39,132,-47,2,15,46,0,8,-31
106,-10,-89,-40,138,-50,4,15,46,0,7,-34
108,-11,-91,-40,141,-52,5,16,48,-0,7,-34
108,-11,-92,-40,142,-52,8,16,49,0,8,-34
116,-9,-95,-45,150,-53,9,18,51,1,9,-33
123,-7,-99,-49,156,-54,9,18,52,1,8,-36
115,-9,-95,-45,148,-52,11,20,53,2,10,-34
112,-7,-91,-44,143,-50,13,20,54,4,11,-35
116,-9,-95,-45,150,-53,12,20,53,4,11,-36
112,-9,-92,-44,145,-51,12,21,54,5,12,-36
110,-12,-95,-40,146,-55,14,21,56,6,12,-36
108,-13,-94,-39,143,-55,15,20,56,6,12,-35
116,-11,-97,-44,151,-55,14,21,56,6,12,-34
120,-8,-98,-47,154,-54,18,22,58,7,13,-34
119,-9,-97,-46,153,-54,17,22,57,6,13,-34
119,-8,-97,-47,153,-53,19,22,60,7,15,-33
121,-7,-97,-48,154,-53,17,22,60,8,16,-32
115,-11,-97,-43,151,-55,19,22,61,9,15,-31
120,-6,-95,-49,152,-52,19,24,62,11,18,-30
122,-9,-100,-48,157,-55,19,23,60,10,17,-33
119,-8,-96,-47,152,-53,21,23,63,12,18,-35
122,-5,-95,-50,153,-51,22,25,65,13,19,-33
129,-3,-98,-55,159,-51,20,25,65,13,19,-33
126,-4,-98,-53,158,-52,20,25,66,13,18,-29
124,-6,-98,-50,156,-52,20,25,67,14,18,-29
129,-4,-100,-54,162,-53,23,25,67,13,18,-29
129,-3,-99,-55,161,-51,25,26,69,14,21,-25
131,-1,-97,-57,160,-49,27,27,70,15,23,-23
130,-2,-99,-56,161,-51,26,27,70,15,23,-24
125,-4,-96,-52,155,-50,27,27,70,17,23,-23
127,-4,-98,-53,158,-51,25,28,70,17,23,-24
130,-4,-100,-55,162,-53,26,28,71,18,24,-23
127,-4,-99,-53,159,-52,27,29,73,18,25,-23
126,-6,-99,-52,159,-53,25,29,73,19,25,-23
131,-3,-100,-55,162,-52,26,30,75,20,26,-21
132,-1,-99,-57,163,-51,26,30,76,20,27,-22
129,-4,-100,-54,162,-53,27,30,76,20,27,-22
130,-3,-100,-55,162,-52,27,30,77,20,27,-23
140,-1,-104,-61,172,-53,28,31,78,21,28,-22
143,-1,-107,-62,175,-54,29,32,78,22,29,-21
138,-1,-103,-60,169,-53,30,33,81,23,30,-19
148,-1,-110,-64,181,-57,32,32,78,22,30,-22
140,2,-101,-63,169,-50,33,34,83,24,32,-19
138,0,-102,-61,168,-51,35,35,84,25,33,-18
142,1,-104,-63,173,-52,37,35,85,24,34,-20
137,1,-99,-61,166,-49,39,36,87,26,35,-20
137,-1,-102,-60,167,-52,37,36,87,26,35,-19
135,-1,-101,-59,166,-51,34,37,88,26,36,-18
142,4,-100,-65,170,-48,33,39,90,27,37,-16
147,6,-102,-68,174,-48,32,39,91,27,36,-15
140,3,-100,-63,168,-49,34,41,92,27,36,-14
149,6,-103,-69,176,-49,36,41,93,28,37,-13
150,4,-106,-69,179,-51,38,40,93,28,39,-13
147,4,-103,-67,175,-50,40,41,96,29,40,-11
155,5,-109,-71,185,-52,38,41,97,30,40,-12
149,9,-100,-71,174,-46,41,43,102,32,43,-10
144,7,-98,-68,169,-45,42,44,103,33,43,-9
154,9,-103,-74,180,-47,40,44,103,33,42,-8
169,14,-109,-83,193,-47,37,44,103,33,43,-9
157,12,-102,-78,181,-45,37,46,107,35,44,-6
160,11,-105,-78,184,-47,39,47,107,36,45,-6
157,13,-101,-78,180,-43,40,48,111,37,46,-6
157,15,-99,-79,178,-41,38,50,115,38,47,-4
159,13,-102,-79,182,-44,36,50,114,38,48,-3
163,16,-103,-82,185,-43,35,50,117,39,49,-2
163,17,-101,-83,183,-41,39,51,119,40,49,-1
170,20,-103,-88,188,-40,42,54,124,42,51,1
164,18,-101,-84,184,-41,42,54,124,42,52,1
168,20,-102,-87,187,-40,43,56,126,43,53,3
169,21,-101,-89,187,-39,43,57,129,44,55,4
175,24,-102,-93,191,-38,45,58,131,46,56,6
181,28,-102,-98,195,-36,43,59,133,47,56,7
182,30,-101,-100,194,-34,42,60,135,48,59,9
183,30,-102,-101,196,-34,44,61,138,49,59,9
187,31,-103,-103,199,-34,45,62,140,51,60,10
182,31,-100,-101,194,-33,44,63,142,52,61,11
190,34,-102,-107,200,-32,45,65,146,53,62,14
191,36,-101,-108,201,-31,46,66,149,55,63,15
195,38,-101,-111,203,-30,44,67,151,56,65,17
194,40,-99,-112,200,-27,41,69,154,58,67,18
201,44,-99,-118,204,-25,39,71,157,59,70,19
207,48,-99,-124,208,-22,39,73,160,62,72,21
204,47,-98,-121,206,-23,44,73,162,63,73,22
202,49,-94,-122,201,-20,50,75,167,65,75,28
211,54,-95,-129,207,-17,53,76,169,68,76,31
214,58,-92,-133,207,-13,53,77,171,69,77,34
213,58,-92,-133,206,-14,52,79,174,71,79,36
216,62,-90,-136,206,-11,54,81,178,73,84,39
222,65,-91,-141,211,-9,53,82,180,75,86,39
218,64,-89,-139,207,-9,52,83,183,77,88,42
217,66,-86,-140,204,-6,51,84,186,79,92,47
225,70,-88,-146,210,-5,49,85,189,82,93,50
231,76,-85,-153,212,0,53,87,193,85,95,56
228,78,-81,-152,206,3,51,88,195,87,97,58
231,79,-82,-155,209,3,50,89,199,89,100,61
233,81,-81,-157,210,5,51,90,201,91,103,65
240,87,-80,-164,213,9,50,90,203,94,107,68
256,91,-87,-173,228,7,50,90,202,95,107,71
241,91,-76,-167,209,13,54,92,206,98,110,76
244,93,-76,-170,212,14,51,93,207,100,113,77
246,96,-74,-173,212,17,56,93,209,103,116,82
241,99,-67,-172,203,22,56,93,211,105,118,86
252,104,-69,-181,211,24,52,93,211,107,120,88
251,105,-67,-181,208,26,52,93,214,109,122,91
256,108,-68,-185,212,27,50,93,213,111,124,93
257,109,-68,-186,213,27,49,93,214,112,125,96
251,110,-62,-184,205,31,49,93,214,113,127,99
255,110,-65,-186,209,29,45,91,211,112,127,98
253,113,-60,-188,204,34,47,92,211,114,130,101
259,112,-66,-189,213,30,46,90,208,114,129,101
256,115,-60,-190,206,35,49,89,209,116,132,104
252,114,-58,-187,202,35,47,88,207,115,132,105
252,116,-56,-189,199,38,45,87,206,116,133,107
248,112,-57,-184,199,34,44,86,204,117,133,108
250,113,-59,-186,202,34,43,84,202,116,132,105
244,110,-57,-181,196,34,41,82,198,115,132,106
239,113,-51,-181,188,38,41,81,195,115,133,107
242,113,-52,-183,191,38,41,79,193,115,132,107
240,112,-52,-181,189,37,37,77,189,114,131,104
246,110,-59,-182,199,32,37,74,184,112,128,103
238,105,-58,-175,193,30,37,72,180,110,127,102
235,103,-59,-172,192,28,35,69,177,108,126,102
235,102,-60,-172,193,27,34,66,171,105,124,100
231,105,-53,-173,185,33,36,65,170,105,124,101
226,99,-56,-166,184,28,33,62,165,102,121,100
217,91,-58,-157,181,22,30,58,158,98,118,96
209,85,-59,-149,176,18,27,56,152,95,115,93
202,80,-60,-142,173,15,29,53,147,92,112,88
216,87,-62,-153,183,18,29,52,143,90,111,87
210,81,-64,-146,182,13,29,49,136,85,106,83
200,74,-65,-137,176,9,28,46,130,81,102,78
196,70,-67,-133,175,6,24,42,125,77,99,73
190,67,-65,-128,170,5,23,39,119,73,95,66
190,63,-70,-126,174,0,21,36,114,69,91,60
185,58,-72,-120,172,-4,19,33,109,65,86,56
180,52,-75,-114,172,-8,21,31,103,61,82,53
164,44,-72,-102,161,-12,22,28,97,57,77,50
162,39,-76,-98,162,-16,21,25,91,53,72,45
165,40,-77,-100,164,-16,19,23,86,49,71,43
159,34,-80,-92,163,-21,17,21,81,45,67,40
151,29,-80,-86,158,-24,15,19,77,42,65,36
154,29,-81,-87,162,-24,17,16,72,39,62,31
155,25,-87,-85,167,-30,13,13,68,35,58,27
148,23,-84,-80,159,-29,16,13,65,33,56,23
153,21,-89,-82,167,-33,15,10,60,29,53,19
142,16,-87,-73,159,-35,16,8,56,26,50,17
126,11,-80,-63,144,-34,16,8,53,25,48,17
125,9,-81,-61,144,-36,13,6,51,23,45,11
132,8,-89,-63,155,-40,10,4,46,20,42,7
126,6,-86,-59,148,-40,10,3,45,18,40,6
120,1,-87,-53,146,-44,9,2,43,16,39,6
124,2,-89,-56,149,-44,9,1,40,14,35,4
116,-1,-87,-50,143,-44,9,1,38,12,33,2
121,-1,-91,-52,149,-47,11,-1,35,10,33,2
122,-4,-94,-51,152,-49,12,-2,33,8,32,0
117,-6,-93,-47,148,-50,10,-4,31,7,31,-1
110,-9,-91,-42,142,-51,10,-4,31,7,29,-1
113,-10,-95,-43,147,-53,10,-5,28,6,29,-2
112,-11,-95,-42,147,-54,8,-6,27,4,27,-3
112,-12,-96,-41,148,-56,6,-6,27,4,26,-5
101,-15,-92,-34,137,-55,7,-6,26,4,27,-5
101,-16,-92,-34,138,-55,7,-7,26,3,26,-8
106,-15,-95,-37,143,-56,8,-7,27,3,26,-9
103,-17,-95,-34,141,-58,7,-7,25,3,25,-9
101,-17,-94,-33,139,-57,9,-7,25,2,24,-9
106,-17,-97,-35,145,-58,10,-8,25,1,23,-11
99,-20,-95,-30,139,-59,9,-7,24,1,23,-10
99,-21,-97,-29,141,-61,7,-7,24,1,23,-11
99,-20,-95,-30,139,-59,6,-8,23,1,23,-10
101,-19,-95,-32,139,-58,7,-7,24,1,22,-11
99,-21,-97,-29,141,-61,5,-7,24,1,23,-11
95,-22,-95,-27,136,-60,6,-7,24,0,22,-14
101,-20,-96,-31,141,-60,8,-8,25,1,22,-13
93,-23,-95,-25,135,-61,7,-8,25,0,22,-13
105,-18,-97,-34,144,-59,7,-7,26,1,22,-14
106,-19,-100,-34,147,-61,7,-8,25,1,22,-13
101,-21,-98,-30,142,-61,8,-7,27,1,23,-12
95,-23,-95,-26,137,-61,9,-7,26,1,23,-14
101,-18,-94,-32,139,-57,10,-6,28,2,23,-14
105,-18,-97,-34,144,-59,11,-6,29,1,24,-12
103,-17,-95,-34,141,-58,10,-5,30,2,24,-10
94,-22,-94,-26,135,-60,9,-6,30,1,23,-12
95,-21,-94,-27,135,-59,9,-5,29,1,23,-11
97,-21,-95,-29,138,-59,10,-5,31,2,24,-9
103,-19,-97,-32,143,-60,8,-6,31,1,24,-10
101,-19,-95,-31,140,-59,6,-5,31,1,25,-9
111,-19,-103,-36,153,-62,5,-6,31,1,25,-9
100,-21,-96,-30,141,-60,8,-5,32,2,25,-8
105,-19,-98,-34,145,-60,5,-4,31,2,25,-9
98,-21,-95,-29,139,-60,5,-4,32,2,26,-7
96,-21,-95,-28,137,-60,6,-4,33,3,27,-6
99,-20,-95,-30,139,-59,4,-4,32,3,26,-9
102,-18,-95,-33,141,-58,0,-3,33,4,27,-10
94,-20,-92,-28,133,-58,2,-2,34,4,27,-10
97,-19,-92,-30,135,-57,2,-3,35,3,27,-9
102,-16,-93,-34,139,-56,1,-2,34,3,27,-8
100,-18,-93,-32,138,-57,-0,-2,34,3,26,-7
102,-18,-95,-33,141,-58,2,-2,34,3,27,-6
104,-16,-94,-35,141,-56,4,-2,34,3,27,-4
103,-18,-95,-33,142,-58,7,-2,33,3,28,-4
104,-19,-97,-33,143,-59,7,-3,33,3,28,-4
109,-18,-100,-36,149,-60,7,-3,32,3,28,-4
113,-18,-103,-38,155,-62,3,-3,32,2,27,-5
101,-17,-93,-32,138,-57,7,-2,35,4,29,-2
98,-16,-91,-32,135,-55,5,-2,35,4,29,-4
101,-16,-92,-34,138,-55,3,-3,34,4,30,-7
99,-17,-92,-32,137,-56,4,-2,34,4,29,-8
98,-17,-92,-32,136,-56,2,-2,34,4,29,-5
106,-14,-94,-37,142,-55,0,-2,33,3,28,-3
105,-15,-94,-36,142,-56,0,-2,33,4,27,-0
109,-16,-99,-37,148,-59,-1,-2,34,3,27,0
108,-13,-94,-39,143,-55,0,-2,34,3,28,3
107,-15,-95,-37,144,-57,-1,-3,32,2,29,4
101,-18,-94,-32,139,-57,0,-2,33,2,29,6
102,-18,-95,-33,141,-58,-0,-2,32,3,28,6
104,-16,-94,-35,141,-56,1,-3,32,2,29,6
100,-18,-93,-32,138,-57,1,-3,32,2,29,7
103,-16,-94,-34,140,-57,0,-3,32,2,29,8
110,-13,-96,-39,147,-56,0,-3,31,2,29,7
106,-14,-94,-37,142,-55,2,-2,31,2,29,9
110,-13,-95,-40,146,-55,0,-3,31,2,29,9
107,-13,-93,-38,142,-54,-0,-3,30,1,29,8
104,-13,-92,-37,139,-54,-1,-4,31,1,29,7
105,-15,-94,-36,142,-56,-2,-4,30,1,29,8
107,-14,-95,-37,144,-56,-3,-5,29,0,27,9
111,-16,-100,-38,150,-59,-4,-5,28,-0,27,7
106,-16,-95,-36,143,-57,-3,-5,28,-1,27,7
107,-15,-95,-37,144,-57,-2,-5,28,-0,26,9
110,-14,-97,-39,147,-57,-3,-5,27,-1,26,8
109,-15,-97,-38,147,-57,-3,-5,27,-0,27,9
111,-14,-98,-39,149,-58,-3,-5,27,-1,27,9
116,-16,-103,-40,156,-61,-4,-7,25,-1,26,9
111,-15,-99,-39,149,-58,-4,-5,26,-1,26,10
113,-16,-101,-39,153,-60,-5,-6,24,-1,26,10
109,-13,-95,-39,145,-56,-5,-5,26,-1,26,11
109,-15,-97,-38,147,-57,-6,-6,24,-2,25,9
108,-17,-99,-36,147,-59,-7,-7,24,-2,25,10
109,-19,-101,-36,150,-61,-8,-7,23,-3,25,6
109,-18,-100,-36,149,-60,-7,-8,21,-4,24,5
111,-16,-100,-38,151,-60,-3,-8,22,-4,25,6
113,-18,-103,-37,154,-62,-5,-8,20,-4,23,5
108,-19,-100,-35,148,-61,-7,-8,21,-5,23,6
110,-18,-101,-37,151,-61,-8,-8,20,-5,23,7
102,-21,-98,-31,143,-61,-6,-9,21,-6,23,7
101,-21,-97,-30,142,-60,-6,-8,21,-5,23,10
113,-16,-102,-39,153,-60,-7,-8,20,-5,23,10
114,-17,-103,-39,155,-62,-7,-8,19,-5,24,9
108,-19,-101,-35,149,-62,-5,-9,19,-5,23,7
108,-16,-98,-37,147,-58,-5,-8,19,-5,24,8
108,-19,-100,-35,148,-61,-7,-9,17,-6,23,9
107,-19,-100,-34,148,-61,-7,-9,17,-6,23,8
108,-19,-100,-35,148,-61,-4,-9,17,-6,22,8
107,-19,-100,-34,148,-61,-4,-10,16,-6,22,7
108,-16,-98,-37,147,-58,-1,-9,18,-6,23,10
109,-19,-101,-36,150,-61,-0,-10,16,-6,23,9
110,-19,-102,-36,151,-62,-1,-11,16,-7,22,9
103,-21,-99,-31,144,-61,-1,-11,15,-6,22,9
102,-21,-98,-31,143,-61,-3,-10,15,-7,22,8
104,-20,-99,-32,145,-61,-2,-11,14,-8,22,8
103,-19,-97,-32,143,-60,-3,-11,15,-8,23,9
98,-21,-96,-29,139,-61,-5,-11,13,-8,23,7
103,-21,-99,-31,144,-61,-4,-11,13,-8,22,6
102,-21,-98,-31,143,-61,-4,-11,13,-8,22,6
101,-20,-97,-31,142,-60,-2,-11,13,-8,22,6
102,-21,-98,-31,143,-61,-6,-11,14,-8,22,6
101,-19,-95,-31,140,-59,-5,-11,15,-8,22,7
98,-19,-94,-30,137,-58,-4,-10,14,-8,23,8
101,-19,-95,-31,140,-59,-5,-11,14,-8,22,8
104,-20,-99,-32,145,-61,-7,-12,12,-9,22,6
96,-21,-95,-28,137,-60,-5,-11,14,-7,22,5
100,-19,-95,-31,139,-58,-5,-11,14,-7,23,4
105,-19,-99,-33,145,-60,-7,-12,12,-9,22,5
103,-21,-99,-31,144,-61,-8,-12,12,-8,21,6
110,-20,-103,-35,153,-63,-8,-12,12,-9,19,5
96,-21,-95,-28,137,-60,-6,-12,12,-9,20,6
96,-20,-93,-29,136,-58,-6,-11,13,-8,22,9
98,-21,-96,-29,139,-61,-6,-12,13,-9,23,9
100,-22,-98,-29,142,-62,-8,-12,12,-9,23,10
98,-22,-97,-28,140,-61,-9,-12,13,-9,22,10
103,-19,-97,-32,143,-60,-8,-12,13,-9,23,11
105,-18,-97,-34,144,-59,-5,-12,13,-8,23,10
104,-18,-96,-34,143,-58,-7,-12,14,-8,23,8
106,-17,-97,-35,145,-58,-8,-12,14,-9,24,6
94,-23,-95,-26,136,-61,-8,-12,12,-9,22,7
97,-22,-96,-28,139,-61,-9,-13,13,-9,21,6
101,-20,-97,-31,142,-60,-7,-13,12,-9,21,7
104,-19,-97,-33,143,-59,-5,-11,13,-8,22,8
106,-19,-99,-34,146,-60,-8,-12,12,-10,22,7
103,-20,-98,-32,144,-61,-6,-13,12,-10,23,8
106,-19,-100,-34,147,-61,-8,-13,11,-10,22,8
100,-19,-95,-31,139,-58,-4,-13,13,-10,23,10
102,-19,-96,-32,142,-59,-6,-13,12,-9,23,11
101,-19,-95,-31,140,-59,-5,-13,13,-10,23,10
97,-23,-98,-27,141,-63,-4,-13,11,-9,23,9
105,-19,-99,-33,145,-60,-4,-14,12,-9,23,9
102,-21,-98,-31,143,-61,-4,-14,11,-10,23,8
101,-21,-99,-30,143,-62,-4,-13,11,-9,23,8
98,-21,-95,-29,139,-60,-4,-14,11,-10,23,7
103,-19,-96,-32,142,-59,-5,-14,11,-10,22,6
101,-20,-96,-31,141,-60,-7,-14,10,-10,22,5
103,-20,-98,-32,144,-61,-7,-13,11,-10,23,7
108,-17,-99,-36,147,-59,-8,-13,12,-9,23,8
98,-21,-96,-29,139,-61,-10,-14,11,-10,23,8
102,-23,-101,-29,146,-64,-10,-13,11,-11,22,7
103,-21,-99,-31,144,-61,-12,-14,11,-11,21,7
104,-20,-99,-32,145,-61,-13,-14,9,-11,22,7
101,-21,-98,-30,142,-61,-16,-14,11,-11,23,9
99,-21,-97,-29,141,-61,-16,-14,10,-11,22,8
106,-21,-102,-32,148,-63,-15,-14,10,-11,22,9
107,-21,-102,-33,149,-63,-12,-13,10,-11,23,10
104,-21,-100,-31,146,-63,-10,-14,10,-11,22,9
104,-22,-101,-31,147,-63,-14,-15,9,-11,22,4
104,-21,-100,-32,146,-62,-16,-14,10,-11,23,4
101,-21,-99,-30,143,-62,-15,-15,9,-10,23,5
109,-19,-101,-36,150,-61,-18,-16,9,-11,22,5
108,-19,-100,-35,148,-61,-19,-15,10,-11,21,5
104,-19,-97,-33,143,-59,-15,-15,11,-11,21,6
108,-17,-99,-36,147,-59,-15,-15,10,-11,21,8
107,-18,-99,-35,147,-60,-15,-16,10,-12,21,9
103,-21,-99,-31,144,-61,-17,-15,9,-11,22,9
104,-21,-100,-32,146,-62,-20,-15,9,-11,23,9
106,-20,-100,-33,147,-62,-21,-16,9,-12,22,6
107,-19,-100,-34,147,-61,-23,-16,7,-12,22,3
99,-20,-95,-30,139,-59,-20,-15,10,-11,23,6
107,-19,-100,-34,148,-61,-21,-15,9,-11,23,6
116,-19,-107,-38,158,-65,-21,-17,8,-12,21,4
108,-21,-103,-34,151,-63,-19,-17,9,-12,21,7
109,-18,-100,-36,149,-60,-17,-16,9,-12,22,7
108,-21,-103,-34,151,-63,-21,-16,9,-12,22,8
107,-19,-100,-34,148,-61,-20,-16,9,-12,23,8
107,-19,-100,-34,147,-61,-20,-15,10,-12,22,8
109,-19,-102,-35,151,-62,-22,-16,8,-13,21,6
103,-21,-100,-31,145,-62,-21,-16,9,-12,21,6
116,-18,-105,-39,157,-63,-22,-15,8,-13,21,5
113,-19,-104,-37,155,-63,-24,-16,8,-13,21,5
112,-19,-103,-37,154,-63,-23,-16,8,-13,21,7
115,-18,-104,-39,156,-63,-24,-15,8,-13,22,7
120,-17,-108,-41,162,-64,-22,-17,8,-14,21,6
116,-19,-106,-38,158,-64,-24,-17,6,-13,22,5
120,-19,-110,-40,164,-66,-24,-18,5,-15,20,5
106,-20,-100,-33,147,-62,-22,-16,8,-14,22,7
106,-18,-98,-35,146,-59,-21,-16,9,-13,22,6
108,-17,-99,-36,147,-59,-22,-15,8,-13,23,6
107,-19,-100,-34,147,-61,-22,-16,8,-13,22,6
106,-19,-99,-34,146,-60,-24,-17,7,-13,21,4
110,-17,-100,-37,150,-60,-26,-17,8,-13,22,3
102,-19,-96,-32,142,-59,-27,-16,8,-13,22,4
107,-20,-101,-34,149,-62,-28,-16,8,-14,21,3
110,-16,-100,-37,149,-59,-31,-17,6,-14,21,4
105,-19,-98,-34,145,-60,-29,-15,8,-13,21,6
107,-18,-99,-35,147,-60,-27,-16,8,-13,22,6
109,-16,-99,-37,148,-59,-26,-16,7,-13,22,7
104,-19,-98,-33,144,-60,-24,-16,8,-13,22,6
105,-21,-101,-32,147,-63,-27,-16,7,-14,22,6
106,-20,-100,-33,147,-62,-27,-16,8,-13,22,5
109,-20,-103,-34,152,-63,-27,-16,8,-14,23,4
106,-19,-100,-34,147,-61,-27,-15,8,-13,24,5
105,-19,-99,-33,145,-60,-25,-16,8,-13,22,5
106,-20,-100,-33,147,-62,-24,-17,7,-14,22,4
106,-19,-100,-34,147,-61,-24,-16,8,-14,22,4
102,-22,-100,-30,144,-63,-24,-16,8,-14,23,5
111,-19,-103,-36,153,-62,-24,-17,7,-14,22,2
107,-21,-102,-33,149,-63,-27,-17,7,-15,22,3
99,-21,-97,-29,141,-61,-25,-17,6,-14,22,3
101,-21,-99,-30,143,-62,-27,-17,7,-14,22,3
104,-19,-98,-33,144,-60,-26,-16,8,-13,23,5
103,-20,-98,-32,144,-61,-29,-16,7,-14,23,5
104,-20,-99,-32,145,-61,-31,-16,7,-14,23,3
109,-18,-100,-36,149,-60,-32,-16,7,-14,23,1
101,-21,-97,-30,142,-60,-30,-16,7,-14,23,0
104,-18,-96,-34,143,-58,-29,-16,8,-14,23,3
104,-19,-97,-33,143,-59,-27,-16,8,-14,22,4
106,-17,-97,-35,145,-58,-27,-16,7,-14,22,4
103,-18,-95,-33,142,-58,-28,-16,7,-14,22,5
104,-18,-96,-34,143,-58,-30,-16,6,-15,22,5
101,-20,-97,-31,142,-60,-29,-17,6,-15,22,4
98,-21,-96,-29,139,-61,-28,-16,8,-15,23,5
97,-21,-95,-28,138,-60,-29,-17,5,-15,23,5
110,-15,-98,-39,148,-58,-27,-17,6,-15,23,7
105,-17,-96,-34,144,-58,-25,-16,8,-15,23,8
104,-19,-97,-33,143,-59,-28,-16,7,-15,24,6
98,-21,-96,-29,139,-61,-29,-17,6,-15,23,3
110,-15,-98,-39,148,-58,-28,-17,7,-14,23,3
111,-13,-96,-40,147,-56,-24,-17,8,-13,25,5
110,-13,-95,-40,146,-55,-24,-16,7,-14,24,2
126,-12,-107,-47,165,-60,-29,-18,5,-15,21,-0
106,-20,-100,-33,147,-62,-25,-16,5,-15,22,1
95,-21,-93,-28,135,-58,-25,-16,6,-15,22,3
105,-18,-97,-34,144,-59,-29,-17,4,-16,21,3
106,-15,-95,-37,143,-56,-28,-16,7,-15,23,6
106,-17,-97,-35,145,-58,-29,-16,7,-15,22,7
113,-19,-104,-37,155,-63,-32,-17,4,-17,22,4
116,-15,-102,-41,155,-60,-29,-17,6,-16,23,5
105,-19,-99,-33,145,-60,-30,-18,6,-15,23,5
90,-23,-92,-24,131,-60,-28,-16,5,-16,23,4
92,-24,-95,-24,134,-61,-30,-18,3,-17,22,3
91,-27,-97,-21,135,-64,-30,-18,4,-16,22,2
97,-23,-97,-27,139,-62,-30,-17,5,-16,23,3
92,-22,-92,-26,132,-59,-32,-17,5,-16,22,1
95,-19,-92,-29,134,-57,-34,-17,5,-16,22,2
89,-23,-92,-23,130,-59,-31,-16,6,-16,23,1
90,-23,-92,-24,131,-60,-31,-17,6,-16,22,1
94,-22,-94,-26,135,-60,-31,-17,5,-16,22,1
91,-24,-94,-23,133,-61,-29,-17,5,-16,22,2
94,-23,-95,-26,136,-61,-29,-17,4,-16,22,2
91,-24,-94,-23,133,-61,-30,-18,5,-17,22,2
91,-25,-95,-23,134,-62,-29,-17,3,-16,22,3
86,-27,-94,-19,130,-63,-28,-18,3,-17,21,0
90,-25,-94,-23,132,-61,-32,-18,2,-17,21,0
87,-25,-92,-21,128,-60,-32,-17,4,-17,22,2
81,-30,-93,-15,126,-64,-32,-17,4,-17,22,0
85,-29,-95,-18,131,-64,-32,-18,4,-18,22,0
83,-28,-92,-18,127,-62,-33,-18,4,-17,22,-0
81,-29,-92,-16,125,-62,-33,-18,4,-17,22,0
84,-29,-94,-18,129,-63,-30,-18,4,-17,21,-0
83,-28,-92,-18,127,-62,-30,-17,2,-17,21,-0
80,-29,-92,-16,125,-63,-30,-17,4,-17,21,-0
85,-28,-94,-19,129,-63,-32,-17,2,-18,21,0
84,-29,-94,-18,129,-63,-32,-18,3,-17,22,-1
80,-29,-92,-16,125,-63,-31,-19,2,-18,21,-0
75,-31,-89,-12,119,-62,-33,-19,2,-18,21,-2
78,-29,-90,-15,122,-62,-34,-18,2,-18,22,-2
75,-29,-87,-13,118,-60,-34,-19,4,-18,22,-3
70,-32,-87,-9,115,-62,-35,-19,2,-18,21,-2
75,-31,-89,-12,119,-62,-35,-19,2,-18,21,-1
72,-32,-89,-10,118,-63,-37,-20,0,-19,20,-2
72,-32,-89,-10,118,-63,-32,-19,2,-18,20,-0
72,-33,-91,-9,119,-65,-34,-19,1,-18,20,0
74,-35,-93,-9,122,-67,-36,-20,1,-19,20,-0
76,-28,-87,-15,118,-59,-31,-19,2,-18,22,2
79,-28,-89,-16,122,-60,-32,-18,1,-18,22,3
68,-33,-87,-7,114,-63,-30,-19,0,-19,22,1
60,-37,-85,-1,107,-64,-32,-19,0,-20,21,0
67,-33,-87,-7,113,-63,-32,-18,2,-18,24,1
72,-29,-86,-12,115,-60,-31,-18,2,-18,24,-0
75,-31,-89,-12,119,-62,-35,-19,0,-19,23,-4
66,-35,-87,-5,113,-64,-34,-20,1,-19,22,-6
66,-36,-88,-5,113,-65,-35,-20,0,-19,21,-5
73,-31,-89,-11,118,-63,-35,-20,0,-20,20,-3
66,-35,-87,-5,113,-64,-34,-19,1,-20,20,-1
65,-34,-86,-5,111,-63,-34,-19,1,-20,20,-1
62,-37,-87,-2,109,-65,-38,-20,0,-21,20,0
67,-32,-85,-8,112,-61,-37,-18,2,-19,22,0
68,-29,-82,-11,109,-58,-35,-18,2,-19,23,2
62,-33,-83,-5,106,-60,-35,-19,1,-19,22,0
85,-31,-96,-16,131,-66,-39,-21,-1,-22,20,-2
67,-33,-87,-7,113,-63,-33,-19,0,-20,21,-2
74,-32,-90,-11,119,-63,-32,-20,-0,-21,21,-3
75,-29,-87,-13,117,-60,-32,-20,1,-20,21,-2
60,-29,-76,-6,99,-55,-30,-17,3,-18,22,0
68,-30,-84,-10,111,-59,-34,-19,1,-20,21,-3
72,-31,-88,-11,117,-62,-34,-20,0,-21,20,-4
80,-30,-92,-15,125,-63,-33,-20,-0,-20,20,-4
65,-34,-86,-5,111,-63,-30,-18,2,-20,21,-2
67,-33,-86,-7,112,-62,-30,-19,1,-20,22,-2
66,-34,-87,-6,112,-63,-32,-20,1,-20,22,-1
66,-35,-87,-5,113,-64,-35,-20,-1,-21,21,-2
63,-33,-84,-5,107,-61,-32,-18,1,-20,23,-1
69,-31,-86,-9,113,-61,-35,-18,2,-20,23,-1
63,-36,-86,-3,109,-63,-36,-18,2,-20,23,-1
64,-33,-84,-5,108,-61,-37,-18,2,-19,23,-1
64,-36,-87,-4,111,-64,-38,-19,0,-20,22,-4
69,-32,-87,-9,114,-62,-35,-19,2,-19,22,-3
67,-31,-84,-8,111,-60,-32,-18,3,-19,22,-2
72,-31,-88,-11,117,-62,-35,-19,1,-20,22,-2
60,-34,-82,-3,104,-61,-34,-19,1,-20,22,-2
55,-36,-81,0,101,-61,-35,-19,0,-20,22,-1
65,-32,-84,-7,109,-60,-34,-18,2,-20,22,-1
63,-33,-84,-5,107,-61,-34,-18,1,-19,22,-1
53,-39,-83,3,101,-64,-34,-19,0,-21,21,-2
54,-38,-82,2,101,-63,-35,-19,1,-20,22,-3
54,-38,-83,2,101,-63,-37,-19,0,-21,21,-3
63,-33,-84,-5,107,-61,-35,-19,2,-20,22,-1
53,-38,-81,2,99,-62,-34,-18,1,-20,22,-1
57,-36,-82,-1,103,-61,-35,-18,1,-20,22,-1
55,-36,-80,0,100,-61,-34,-19,1,-21,22,-1
54,-36,-80,1,99,-61,-32,-18,1,-20,22,-1
59,-32,-79,-4,101,-58,-32,-18,3,-20,22,0
64,-30,-80,-8,105,-58,-30,-19,0,-20,22,-3
58,-33,-80,-3,101,-58,-34,-18,2,-20,22,-6
55,-35,-80,-1,99,-60,-35,-19,1,-21,22,-4
60,-34,-82,-3,104,-61,-37,-19,1,-21,22,-3
53,-35,-78,0,97,-59,-34,-18,2,-20,22,-1
47,-38,-76,5,92,-60,-34,-17,2,-20,21,0
49,-40,-80,5,96,-63,-39,-19,0,-21,20,-2
53,-37,-80,2,99,-61,-36,-18,2,-21,22,0
57,-36,-82,-0,102,-62,-34,-18,1,-21,23,1
53,-36,-80,1,98,-60,-35,-18,1,-21,23,0
52,-35,-77,1,96,-58,-34,-17,2,-20,23,0
51,-37,-79,3,96,-61,-34,-19,0,-21,21,-1
51,-36,-78,2,95,-60,-33,-18,1,-21,22,-0
53,-36,-79,1,97,-60,-34,-18,0,-21,22,-1
47,-37,-76,4,92,-59,-34,-19,0,-21,23,-2
51,-38,-80,3,97,-62,-37,-19,0,-21,22,-3
55,-38,-83,1,102,-63,-39,-19,-0,-22,22,-4
49,-40,-80,5,96,-63,-39,-19,0,-22,22,-5
44,-35,-71,4,85,-55,-36,-17,2,-19,24,-3
50,-31,-72,-0,89,-54,-32,-17,4,-20,24,-3
53,-32,-75,-2,94,-56,-35,-19,1,-20,23,-3
54,-33,-77,-1,97,-58,-36,-18,1,-20,23,-0
48,-33,-72,2,89,-55,-33,-17,3,-20,23,-0
47,-34,-73,2,89,-56,-34,-18,2,-21,22,-2
40,-36,-69,6,82,-55,-33,-18,2,-20,24,-0
43,-34,-70,4,84,-55,-34,-18,4,-20,25,-1
53,-33,-76,-1,95,-57,-37,-19,1,-22,23,-3
42,-36,-71,5,84,-56,-34,-18,1,-21,24,-2
44,-36,-73,5,87,-57,-35,-17,2,-21,23,-2
47,-36,-75,3,91,-58,-37,-18,1,-21,23,-2
44,-33,-70,3,85,-54,-36,-17,3,-21,23,-1
47,-34,-72,3,88,-56,-36,-18,2,-21,23,-2
57,-29,-75,-5,97,-54,-35,-17,2,-21,23,-3
50,-32,-72,-0,91,-55,-38,-17,2,-21,23,-2
49,-36,-76,3,93,-59,-37,-19,0,-22,22,-4
40,-38,-72,8,84,-57,-35,-18,1,-21,23,-4
39,-36,-69,7,81,-55,-36,-19,2,-22,22,-3
40,-40,-74,9,86,-60,-39,-19,1,-22,21,-5
46,-35,-72,3,88,-56,-38,-18,1,-21,22,-4
39,-37,-70,8,82,-56,-35,-18,2,-21,22,-4
39,-38,-72,9,83,-58,-37,-19,0,-22,22,-5
40,-36,-70,7,82,-56,-36,-18,3,-21,23,-3
41,-36,-70,6,83,-55,-36,-17,4,-21,23,-3
51,-33,-74,0,92,-56,-36,-18,2,-21,22,-4
45,-33,-70,2,85,-54,-35,-18,2,-21,22,-4
41,-34,-68,5,82,-54,-35,-18,2,-21,23,-3
42,-35,-70,5,84,-55,-35,-18,1,-22,22,-2
39,-36,-69,7,81,-55,-37,-18,1,-22,22,-1
35,-40,-70,12,79,-58,-37,-18,2,-22,21,-3
42,-35,-70,5,84,-55,-37,-18,2,-21,23,-1
39,-33,-66,5,78,-52,-36,-18,3,-21,22,-0
38,-37,-69,8,81,-56,-35,-18,2,-22,22,-2
37,-37,-68,9,79,-55,-35,-18,1,-22,21,-2
37,-36,-67,8,77,-54,-37,-18,1,-22,23,-2
36,-36,-67,9,77,-54,-36,-18,2,-22,23,-3
38,-36,-68,7,79,-54,-37,-18,3,-21,23,-2
40,-34,-68,5,81,-53,-36,-18,2,-22,22,-3
41,-33,-68,4,81,-53,-35,-18,2,-22,23,-3
35,-38,-68,10,77,-55,-34,-17,4,-21,23,-3
44,-36,-72,5,86,-57,-39,-19,1,-22,22,-7
38,-36,-68,7,79,-54,-37,-18,2,-21,23,-5
37,-37,-68,9,79,-55,-37,-18,3,-21,23,-3
42,-32,-67,3,81,-52,-37,-18,2,-21,23,-2
39,-32,-64,4,77,-50,-38,-18,2,-22,22,-3
34,-36,-65,10,74,-53,-39,-19,0,-23,21,-5
35,-36,-65,9,75,-53,-38,-17,3,-21,23,-3
37,-35,-66,7,77,-53,-39,-17,2,-23,23,-3
40,-31,-64,3,78,-50,-38,-17,4,-22,22,-4
41,-31,-65,3,79,-50,-35,-16,4,-21,23,-3
44,-32,-68,2,84,-52,-38,-17,1,-23,21,-4
46,-29,-66,-0,83,-50,-36,-17,2,-22,22,-2
50,-32,-72,-0,91,-55,-35,-18,0,-23,21,-4
37,-31,-61,4,73,-48,-32,-17,4,-21,22,-1
38,-31,-63,5,75,-49,-34,-17,2,-22,22,-2
37,-33,-64,6,76,-51,-35,-17,1,-22,22,-2
34,-33,-61,7,71,-49,-35,-16,3,-22,23,-2
43,-31,-67,2,82,-51,-34,-17,0,-22,22,-3
34,-33,-61,7,71,-49,-33,-17,2,-22,22,-4
33,-33,-61,8,71,-50,-34,-17,2,-22,22,-4
36,-30,-60,5,71,-47,-32,-16,4,-21,23,-2
39,-28,-60,2,73,-46,-32,-16,5,-21,24,-1
31,-31,-57,7,66,-46,-33,-16,5,-22,24,-3
31,-30,-57,6,66,-45,-30,-15,6,-20,24,-4
40,-26,-58,0,73,-44,-29,-15,5,-21,24,-5
41,-27,-60,0,75,-46,-30,-15,6,-21,24,-3
38,-26,-56,1,69,-43,-32,-14,7,-20,24,-1
44,-22,-57,-5,74,-41,-32,-14,8,-20,23,-2
37,-16,-45,-5,60,-32,-27,-11,11,-18,25,2
42,-12,-44,-10,63,-29,-25,-11,13,-18,27,0
47,-9,-44,-15,66,-27,-23,-10,14,-18,27,1
45,-8,-42,-14,63,-26,-24,-11,14,-17,28,2
49,-4,-40,-19,63,-22,-22,-10,15,-16,28,3
45,-7,-41,-15,61,-24,-21,-10,15,-17,28,4
45,-7,-41,-15,61,-24,-22,-9,14,-17,28,3
50,-1,-37,-21,61,-19,-20,-8,17,-16,29,5
56,1,-40,-25,67,-19,-17,-8,17,-16,30,6
51,-3,-41,-20,65,-23,-17,-9,15,-17,29,4
51,-4,-42,-19,66,-24,-19,-9,15,-17,29,4
51,-3,-41,-20,65,-22,-19,-8,17,-15,29,5
60,5,-38,-29,68,-17,-21,-8,19,-14,31,7
67,9,-39,-35,73,-14,-23,-8,20,-13,32,7
73,12,-40,-40,78,-13,-27,-8,20,-13,32,10
65,13,-34,-37,68,-10,-29,-8,21,-12,33,11
75,19,-35,-45,75,-7,-29,-8,22,-11,34,12
73,18,-34,-44,73,-7,-34,-9,23,-10,35,14
72,16,-36,-42,74,-9,-37,-8,23,-11,35,13
70,13,-37,-40,74,-11,-37,-9,21,-12,35,14
66,11,-37,-36,71,-13,-36,-8,21,-11,34,15
64,6,-41,-32,73,-17,-35,-9,20,-11,34,13
68,9,-41,-36,75,-16,-35,-8,20,-12,34,12
78,8,-49,-39,88,-20,-36,-9,19,-12,33,10
68,1,-49,-31,82,-24,-32,-9,20,-12,33,10
65,0,-48,-28,79,-24,-30,-7,19,-13,34,12
72,1,-52,-32,87,-26,-34,-8,17,-13,32,13
68,0,-50,-30,83,-25,-35,-9,16,-13,32,13
66,-2,-51,-27,82,-27,-35,-9,16,-13,32,14
74,-4,-59,-30,94,-32,-39,-11,13,-14,32,13
73,-6,-60,-28,95,-34,-40,-11,13,-15,31,13
71,-9,-62,-25,95,-36,-39,-12,11,-16,31,12
67,-11,-61,-22,92,-37,-40,-13,12,-16,31,11
66,-12,-62,-21,92,-38,-39,-12,11,-16,30,9
63,-12,-60,-19,88,-37,-38,-12,11,-16,30,9
56,-16,-59,-14,83,-39,-38,-12,10,-17,29,9
60,-15,-60,-16,86,-39,-36,-12,11,-18,28,6
57,-14,-58,-15,83,-37,-35,-11,10,-18,27,5
44,-19,-54,-6,72,-38,-32,-10,12,-18,27,4
47,-18,-54,-8,73,-37,-36,-9,11,-18,26,3
38,-20,-50,-3,65,-37,-36,-11,9,-20,25,3
35,-20,-48,-2,61,-35,-34,-12,10,-20,25,3
38,-23,-53,-1,67,-40,-35,-14,7,-21,24,0
40,-23,-55,-2,70,-40,-36,-14,7,-21,24,1
41,-27,-60,0,75,-46,-37,-16,2,-23,21,-2
32,-29,-56,5,66,-44,-34,-15,5,-22,23,-1
27,-29,-52,8,60,-43,-34,-15,5,-22,23,-2
19,-36,-54,16,56,-47,-37,-16,2,-24,22,-4
27,-29,-52,7,59,-42,-33,-15,5,-22,23,-3
29,-27,-52,5,61,-41,-34,-15,6,-23,23,-3
26,-29,-51,8,58,-42,-34,-14,6,-22,23,-1
24,-30,-51,10,56,-42,-35,-13,6,-22,23,-1
32,-25,-51,3,62,-40,-36,-13,6,-22,22,1
30,-27,-52,5,62,-42,-41,-15,5,-22,21,0
30,-29,-54,6,63,-43,-42,-14,7,-21,22,1
32,-29,-56,5,66,-45,-43,-15,5,-22,23,0
28,-28,-51,6,59,-41,-40,-14,6,-22,24,3
22,-30,-49,11,54,-42,-38,-14,6,-21,24,4
28,-30,-53,8,61,-44,-37,-15,5,-22,23,-0
17,-33,-49,15,51,-43,-34,-15,4,-23,23,-2
30,-31,-57,8,65,-46,-35,-15,5,-23,22,-2
21,-31,-49,11,53,-42,-35,-14,5,-23,23,0
24,-32,-53,11,59,-45,-33,-15,5,-23,21,-0
25,-29,-50,8,56,-41,-32,-15,5,-23,21,1
18,-32,-49,14,51,-42,-32,-15,6,-23,21,2
27,-32,-56,10,63,-46,-33,-15,6,-23,22,1
24,-31,-51,10,57,-43,-35,-15,5,-23,22,0
25,-31,-53,10,59,-45,-37,-15,5,-22,22,0
22,-31,-51,11,56,-43,-37,-14,8,-21,23,1
23,-32,-52,11,57,-44,-38,-14,8,-22,23,1
19,-29,-46,11,49,-40,-37,-13,8,-21,24,2
25,-26,-47,6,54,-38,-36,-13,9,-20,24,3
24,-26,-47,7,54,-39,-35,-13,8,-21,24,1
25,-28,-49,8,56,-40,-36,-13,8,-21,24,1
20,-31,-49,13,53,-43,-36,-14,8,-21,24,0
22,-31,-51,12,55,-43,-37,-14,7,-21,22,0
25,-31,-53,10,59,-44,-38,-14,8,-22,22,-1
23,-30,-50,10,56,-42,-37,-13,10,-22,21,-1
16,-31,-46,14,48,-40,-36,-11,13,-23,20,-2
16,-24,-39,9,42,-33,-32,-5,17,-26,18,-5
20,-15,-32,2,38,-24,-21,5,27,-29,14,-10
22,-6,-22,-5,32,-14,-2,25,49,-32,11,-16
35,1,-25,-16,42,-12,19,53,80,-31,10,-18
63,8,-37,-32,69,-14,35,79,112,-26,14,-11
74,9,-44,-39,82,-17,59,101,139,-19,18,-8
81,34,-22,-58,68,8,77,99,155,-9,25,1
76,63,14,-75,35,42,102,102,189,4,32,8
87,76,21,-89,36,53,119,96,206,22,53,32
120,83,4,-108,70,49,126,81,220,52,82,65
146,110,15,-138,77,69,124,53,223,86,118,103
170,160,54,-181,59,117,108,7,199,120,157,148
182,214,105,-224,25,174,63,-56,150,154,199,199
192,275,166,-269,-19,238,-9,-127,87,191,247,259
217,341,222,-324,-51,304,-116,-215,-23,218,287,315
233,385,259,-361,-71,347,-223,-283,-117,240,322,365
238,383,253,-361,-63,343,-299,-343,-196,269,353,405
237,323,186,-321,-8,275,-317,-358,-215,301,379,426
222,284,154,-288,9,237,-302,-345,-193,325,397,436
209,259,136,-266,16,215,-296,-336,-199,326,400,435
196,233,116,-243,25,190,-308,-325,-203,313,387,419
159,200,106,-204,9,166,-301,-299,-187,295,361,383
118,157,89,-157,-1,133,-295,-267,-148,279,332,340
90,108,55,-112,9,89,-273,-230,-107,256,298,290
57,84,52,-81,-7,74,-269,-202,-96,198,243,230
-6,55,66,-34,-57,64,-247,-182,-128,74,143,140
-73,26,84,15,-114,57,-219,-160,-150,-72,18,34
-97,11,85,36,-128,49,-207,-144,-167,-143,-45,-12
-87,9,74,33,-114,42,-223,-132,-154,-117,-36,-11
-75,2,58,32,-94,30,-224,-118,-133,-94,-24,-7
-59,-6,38,30,-67,15,-207,-100,-108,-77,-14,-3
-57,-8,34,31,-63,13,-184,-82,-80,-65,-8,1
-45,-4,29,23,-52,12,-154,-60,-51,-56,-1,6
-22,-1,15,10,-26,7,-125,-41,-27,-46,5,12
-6,-2,3,5,-6,-0,-102,-25,-7,-40,11,16
11,-4,-12,-2,16,-8,-79,-11,12,-34,14,19
16,-7,-19,-2,25,-14,-58,-1,27,-31,18,22
29,-11,-34,-5,46,-24,-50,4,32,-30,17,18
41,-13,-45,-9,62,-30,-44,7,34,-29,17,16
27,-14,-36,-2,46,-26,-37,10,39,-27,18,17
35,-16,-43,-5,57,-31,-35,11,39,-27,17,16
28,-19,-41,0,51,-31,-29,13,40,-26,18,15
25,-21,-42,3,50,-33,-25,16,44,-24,20,15
24,-23,-43,5,50,-34,-25,16,45,-24,19,13
24,-24,-44,6,51,-36,-22,17,46,-23,20,13
24,-26,-47,7,53,-38,-21,18,48,-23,19,10
22,-28,-47,10,52,-40,-20,20,49,-23,19,7
26,-27,-49,7,56,-40,-22,20,50,-23,19,6
26,-26,-49,6,56,-39,-20,20,50,-23,18,8
22,-31,-50,11,54,-42,-19,21,50,-22,18,9
31,-25,-51,3,61,-40,-19,21,51,-21,19,11
39,-21,-52,-3,67,-38,-18,23,53,-20,21,12
28,-25,-49,4,57,-39,-14,23,55,-19,22,13
30,-26,-51,4,61,-40,-12,23,54,-19,23,12
33,-24,-51,2,62,-39,-7,23,55,-18,23,11
26,-26,-48,6,56,-39,-5,23,56,-17,24,13
43,-24,-58,-3,74,-42,-9,23,57,-18,23,10
32,-24,-50,2,61,-39,-7,24,59,-17,24,10
40,-24,-56,-1,70,-41,-8,24,58,-16,24,10
35,-24,-52,1,64,-40,-6,25,61,-15,25,14
38,-22,-53,-2,67,-39,-6,25,59,-15,25,12
35,-24,-53,1,65,-40,-9,25,58,-15,24,12
32,-24,-50,2,61,-39,-7,25,60,-13,26,13
34,-23,-51,1,63,-39,-4,27,63,-12,27,15
39,-24,-55,-1,69,-41,-5,27,64,-12,27,15
28,-27,-51,6,59,-41,-3,27,65,-12,27,16
34,-23,-50,1,62,-38,-4,28,67,-11,29,17
51,-16,-56,-11,77,-37,-3,28,67,-10,29,17
44,-19,-54,-6,72,-38,-2,29,68,-9,29,18
39,-21,-51,-3,66,-38,-1,29,68,-9,30,19
45,-19,-54,-7,72,-38,-0,28,69,-9,30,19
38,-19,-50,-3,65,-36,-1,29,69,-7,32,20
43,-17,-50,-7,67,-34,-3,30,71,-7,32,20
38,-19,-48,-4,63,-35,-5,30,71,-6,33,21
35,-19,-46,-2,59,-34,-3,30,72,-6,33,21
37,-17,-46,-4,61,-33,-1,31,72,-6,34,20
42,-15,-48,-8,65,-32,1,31,73,-6,33,19
49,-14,-52,-11,73,-34,-0,31,75,-5,34,21
47,-13,-49,-12,69,-32,2,32,75,-4,33,22
55,-11,-53,-16,78,-33,2,32,76,-4,35,23
42,-13,-45,-10,63,-30,3,33,78,-3,36,23
37,-17,-46,-4,61,-33,4,33,77,-3,35,24
38,-14,-43,-7,59,-30,9,35,77,-2,37,26
38,-15,-44,-6,59,-31,9,35,79,-2,38,27
41,-12,-43,-9,61,-29,9,36,82,-1,39,28
45,-11,-46,-12,66,-30,8,37,83,1,40,29
47,-13,-49,-12,69,-32,5,37,83,0,40,28
35,-19,-48,-2,61,-35,2,36,82,-0,38,26
35,-16,-43,-4,56,-31,4,38,85,2,41,27
44,-11,-44,-12,64,-29,7,39,88,3,42,28
50,-7,-44,-18,67,-26,6,40,89,3,43,28
45,-8,-42,-14,62,-26,5,41,89,4,43,30
43,-7,-40,-14,59,-24,5,42,91,5,43,32
49,-5,-42,-18,65,-24,5,42,91,5,43,31
54,-3,-43,-21,68,-23,4,42,93,5,43,32
47,-2,-37,-19,60,-20,7,43,95,7,45,34
47,-4,-39,-17,61,-22,8,44,97,7,45,34
53,-2,-41,-21,66,-22,10,45,98,7,46,35
58,2,-41,-27,69,-19,9,46,99,9,48,36
55,-1,-41,-23,67,-21,8,46,102,10,48,37
58,1,-42,-26,71,-21,6,47,103,10,48,38
56,1,-40,-25,67,-19,6,48,104,11,49,38
57,2,-40,-26,68,-19,9,49,107,13,51,40
56,3,-37,-27,65,-17,8,49,109,14,52,42
72,7,-45,-36,82,-19,7,50,110,14,52,42
66,8,-40,-34,73,-15,7,51,114,16,53,41
58,6,-35,-29,65,-14,6,52,115,17,54,44
77,9,-46,-40,85,-18,3,52,117,17,54,42
78,13,-42,-43,83,-14,6,54,120,18,54,45
72,13,-39,-40,77,-13,10,55,121,20,55,46
73,16,-36,-42,75,-10,12,56,125,21,56,49
79,17,-39,-46,81,-10,12,57,125,21,56,49
76,19,-35,-46,76,-7,12,58,125,22,58,50
78,18,-37,-46,78,-9,11,58,129,22,58,51
79,21,-34,-49,76,-5,9,59,132,24,60,54
77,21,-34,-48,75,-5,10,60,134,26,61,56
80,22,-34,-50,77,-5,12,62,138,28,63,61
85,24,-36,-53,82,-4,12,63,140,29,65,63
90,28,-35,-58,84,-2,9,64,142,30,66,64
86,26,-34,-55,81,-3,10,65,143,31,67,66
95,31,-35,-63,87,0,9,66,147,34,69,66
101,36,-34,-68,90,3,11,69,149,35,71,68
90,31,-31,-60,81,2,13,70,151,37,72,68
95,34,-32,-65,84,3,12,70,155,39,74,68
96,40,-26,-69,81,9,10,72,158,40,75,71
95,42,-23,-70,77,12,13,74,162,43,78,75
94,44,-20,-70,75,14,12,75,165,44,79,77
104,50,-21,-79,81,18,13,76,168,47,80,81
103,50,-20,-78,79,18,16,77,168,49,83,85
111,56,-19,-87,84,22,17,79,172,51,86,88
119,58,-23,-91,92,21,14,79,174,53,89,91
116,59,-19,-91,87,24,18,81,177,55,92,93
108,60,-13,-87,77,27,19,82,180,57,93,95
110,64,-10,-91,76,31,17,83,182,59,95,97
117,68,-10,-97,79,34,16,84,185,62,98,102
116,68,-9,-97,78,34,17,85,187,65,100,105
118,72,-6,-100,77,38,15,85,189,67,102,108
126,78,-5,-107,82,41,14,86,192,69,104,111
120,81,3,-107,72,47,14,88,195,72,107,116
126,84,1,-112,77,48,14,88,197,75,110,119
129,88,4,-116,75,52,13,88,199,77,113,123
131,91,6,-118,75,54,12,89,201,80,117,126
134,93,5,-121,78,55,14,90,202,82,120,128
134,95,7,-123,76,57,15,88,202,83,120,128
137,97,7,-125,78,58,14,89,202,85,122,130
146,98,3,-130,87,57,12,89,203,86,123,132
136,102,14,-128,72,64,13,89,204,89,126,135
142,105,12,-133,77,65,11,88,205,90,126,138
133,107,22,-130,64,71,13,89,206,92,128,142
134,110,25,-133,62,75,14,88,206,93,129,143
135,109,23,-132,64,73,7,86,204,93,131,145
137,113,26,-136,63,77,6,86,204,95,133,147
134,113,27,-134,60,77,4,85,204,95,134,148
132,111,27,-132,58,76,2,84,202,95,133,148
134,113,27,-134,59,77,4,83,199,96,134,149
134,113,28,-135,59,78,7,81,197,96,133,150
132,111,27,-133,58,76,7,80,194,96,133,149
135,113,27,-135,60,77,7,78,191,95,133,150
124,111,33,-129,49,79,8,77,189,95,132,150
126,111,31,-129,52,78,7,75,186,93,132,148
127,111,30,-130,53,77,5,73,183,93,131,148
124,108,29,-127,52,75,3,71,180,91,130,147
120,107,31,-124,48,76,4,70,176,89,128,146
118,107,33,-123,45,77,0,68,173,87,126,144
122,104,27,-123,53,72,-2,65,168,85,124,141
109,100,32,-115,41,73,-0,64,164,82,121,137
112,98,27,-115,46,69,-1,60,158,79,119,132
103,95,31,-109,37,69,-1,59,154,77,116,128
97,90,29,-103,36,65,-2,56,148,73,112,127
93,89,31,-100,32,66,-2,53,144,71,109,127
91,86,30,-98,32,64,-2,51,138,67,104,123
93,83,24,-96,37,59,-5,49,132,63,101,122
87,79,25,-91,33,57,-4,47,127,58,98,119
78,73,24,-83,28,53,-6,44,122,54,95,116
75,68,21,-79,29,49,-6,42,116,50,91,111
71,64,19,-74,28,46,-4,40,111,46,87,105
64,60,20,-68,23,44,-5,37,104,42,82,99
60,55,17,-63,23,39,-9,34,97,36,77,94
55,51,17,-58,20,37,-9,32,92,33,73,89
50,48,18,-54,16,36,-6,30,88,30,70,86
40,41,16,-45,12,31,-2,27,82,25,65,81
47,40,11,-47,19,28,1,24,78,22,62,78
41,39,14,-44,14,29,0,23,75,19,59,76
38,34,10,-39,16,24,-2,22,70,15,55,72
31,28,8,-32,13,20,-6,19,66,11,51,67
25,26,11,-28,6,20,-7,19,63,9,49,66
22,20,7,-23,8,14,-8,17,59,6,45,61
16,16,6,-17,6,12,-11,16,55,4,42,58
22,18,4,-21,10,12,-11,15,53,1,41,57
19,15,4,-18,9,10,-9,13,50,-0,39,55
16,12,3,-15,8,8,-12,11,45,-4,36,52
11,7,0,-9,7,4,-9,10,43,-6,34,50
13,7,-2,-10,10,3,-7,9,42,-7,32,48
10,5,-1,-7,7,2,-9,8,39,-10,29,46
9,2,-4,-5,9,-1,-11,6,36,-13,27,42
5,-1,-4,-1,7,-3,-12,6,33,-14,25,40
3,-1,-4,0,5,-3,-14,5,32,-16,24,40
3,-3,-5,1,7,-4,-14,4,29,-16,22,39
-0,-5,-5,4,4,-5,-14,3,28,-17,21,37
-2,-8,-7,6,5,-8,-15,3,28,-18,20,36
4,-6,-10,3,11,-8,-17,1,23,-20,18,33
1,-9,-11,6,9,-11,-17,1,23,-21,16,32
-2,-10,-9,8,6,-11,-15,1,23,-21,17,32
0,-11,-12,8,11,-13,-16,0,21,-23,14,30
-12,-11,-4,13,-4,-9,-14,1,23,-22,15,31
-8,-13,-9,13,2,-12,-15,-0,22,-24,14,30
-13,-14,-6,16,-3,-11,-13,0,22,-24,14,29
-10,-15,-9,15,1,-13,-14,0,20,-24,14,27
-15,-16,-7,18,-3,-13,-15,0,20,-23,13,26
-8,-13,-9,13,2,-12,-13,1,21,-23,14,26
-9,-17,-12,16,4,-16,-17,-0,20,-24,12,26
-17,-15,-4,18,-7,-11,-14,0,21,-22,13,27
-14,-16,-8,17,-2,-13,-15,-1,21,-24,12,26
-10,-18,-12,17,4,-16,-14,-1,20,-25,11,24
-13,-16,-9,17,-1,-14,-13,-1,20,-25,12,26
-10,-18,-12,17,4,-16,-12,-1,21,-25,12,26
-13,-17,-9,18,0,-14,-12,0,23,-24,12,27
-9,-16,-11,15,4,-14,-10,-0,22,-25,11,27
-13,-16,-9,17,-1,-14,-12,-0,23,-25,11,27
-14,-18,-9,18,-1,-15,-12,0,23,-24,11,27
-17,-16,-5,19,-6,-12,-10,0,26,-23,12,28
-20,-16,-2,20,-11,-10,-12,0,25,-23,12,26
-30,-17,3,25,-21,-8,-12,1,26,-22,13,24
-18,-17,-5,20,-6,-13,-15,1,26,-23,12,24
-14,-16,-7,17,-3,-13,-16,1,26,-23,12,26
-18,-16,-4,19,-7,-12,-15,2,28,-23,12,25
-19,-16,-4,19,-8,-11,-14,2,28,-22,11,26
-19,-18,-5,21,-7,-13,-16,1,28,-23,11,29
-21,-16,-2,21,-11,-11,-15,0,28,-23,11,31
-15,-13,-3,16,-7,-9,-14,3,30,-22,13,34
-16,-12,-1,15,-8,-8,-13,3,31,-22,13,35
-15,-13,-3,16,-7,-9,-11,3,30,-22,14,34
-24,-19,-3,23,-12,-12,-10,3,31,-21,15,35
-22,-18,-3,22,-11,-12,-9,3,30,-20,16,35
-17,-15,-4,18,-7,-11,-9,3,31,-21,15,34
-12,-11,-3,13,-5,-8,-10,4,32,-20,15,35
-15,-13,-4,16,-6,-10,-12,4,31,-20,15,33
-11,-10,-3,12,-4,-7,-12,4,31,-21,14,32
-9,-9,-2,10,-4,-6,-14,4,32,-20,15,34
-12,-9,-1,11,-6,-6,-13,5,31,-19,15,34
-15,-10,0,14,-9,-6,-17,5,32,-20,14,32
-17,-13,-1,16,-9,-8,-17,4,31,-20,13,31
-13,-9,-1,12,-7,-6,-16,6,33,-19,15,35
-17,-11,0,16,-11,-6,-15,6,32,-19,15,34
-15,-9,1,13,-9,-5,-17,5,32,-19,15,36
-12,-7,1,10,-8,-4,-16,6,32,-18,16,37
-10,-9,-2,11,-4,-6,-17,6,33,-19,16,38
-10,-8,-1,10,-6,-5,-19,6,32,-19,16,37
-18,-12,0,16,-11,-7,-19,6,32,-19,16,37
-14,-10,-1,13,-8,-6,-20,6,32,-18,16,39
-5,-4,-1,5,-3,-3,-19,7,33,-18,17,41
-10,-5,3,8,-8,-2,-17,7,34,-17,17,40
-7,-6,-1,7,-4,-4,-16,7,31,-18,16,41
-6,-4,0,6,-4,-3,-17,7,31,-18,16,40
-5,-3,0,5,-3,-2,-14,7,32,-17,16,40
-14,-9,0,13,-8,-5,-15,6,32,-18,16,41
-6,-11,-7,10,2,-10,-18,5,30,-19,15,39
-9,-9,-3,10,-3,-6,-16,5,30,-18,15,40
-9,-9,-3,10,-3,-6,-19,6,31,-18,16,40
-15,-9,2,13,-10,-4,-17,7,32,-18,16,41
-6,-6,-2,7,-2,-5,-19,6,31,-18,15,40
-9,-8,-1,10,-5,-5,-19,6,31,-19,14,40
-12,-11,-3,13,-5,-8,-17,5,30,-20,13,38
2,-7,-9,4,9,-9,-19,4,28,-20,13,37
-6,-7,-3,8,-2,-6,-17,6,31,-20,13,37
-17,-9,3,13,-13,-4,-18,6,30,-20,13,38
-18,-9,3,14,-13,-4,-20,5,29,-21,12,39
-12,-9,-1,11,-6,-5,-20,4,28,-21,11,40
-9,-9,-3,11,-3,-7,-21,4,28,-22,10,39
-3,-8,-6,7,3,-8,-24,3,26,-22,8,39
-11,-7,0,10,-7,-4,-20,4,27,-22,10,40
-14,-11,-1,13,-7,-7,-20,3,26,-22,10,42
-8,-9,-4,10,-2,-7,-22,4,26,-22,11,43
-5,-9,-5,8,2,-8,-24,3,25,-22,12,44
-12,-10,-2,12,-5,-7,-24,3,24,-22,10,41
-7,-9,-4,10,-1,-8,-24,2,24,-24,10,39
-4,-6,-4,6,1,-6,-21,3,24,-23,10,38
-6,-10,-6,10,1,-9,-24,2,22,-24,9,38
-8,-13,-9,13,2,-12,-23,0,21,-25,7,35
-10,-11,-4,12,-3,-8,-20,3,22,-24,7,40
-7,-10,-5,10,0,-9,-22,1,22,-26,5,38
-13,-8,2,11,-9,-4,-19,2,22,-26,6,40
-14,-10,-1,13,-8,-6,-22,2,22,-26,6,40
-7,-9,-4,9,-1,-7,-24,2,20,-26,6,41
-12,-11,-3,13,-5,-8,-25,1,21,-26,6,42
-10,-11,-4,12,-3,-8,-23,1,20,-26,6,40
-9,-11,-4,11,-2,-8,-20,1,19,-27,6,41
-4,-9,-7,8,4,-9,-20,2,20,-26,6,41
-12,-13,-6,15,-2,-11,-20,1,19,-27,6,40
-15,-13,-4,16,-6,-10,-20,1,19,-27,6,39
-16,-13,-3,16,-7,-9,-21,1,18,-27,5,39
-11,-14,-8,15,0,-12,-23,0,18,-27,5,41
-14,-15,-6,16,-3,-12,-23,1,19,-27,5,40
-17,-14,-3,18,-8,-10,-24,1,18,-28,6,38
-13,-13,-5,15,-3,-11,-24,1,16,-29,5,38
-16,-15,-4,17,-6,-11,-23,-0,16,-29,4,39
-19,-16,-3,19,-9,-11,-24,0,15,-29,4,39
-19,-15,-2,19,-9,-10,-25,-1,15,-29,3,38
-16,-19,-9,20,-3,-15,-27,-1,15,-29,2,38
-17,-18,-7,19,-4,-14,-29,-1,14,-30,2,38
-20,-16,-2,20,-11,-10,-29,-0,15,-30,4,40
-15,-15,-5,17,-4,-11,-26,-1,15,-30,2,39
-26,-16,2,23,-17,-9,-22,-1,14,-31,2,41
-23,-14,2,20,-15,-7,-20,-1,13,-30,2,39
-19,-11,3,16,-14,-5,-23,-2,14,-31,3,41
-20,-13,0,18,-13,-8,-21,-1,16,-30,4,41
-17,-13,-2,17,-8,-9,-22,-1,14,-30,3,40
-18,-13,-1,17,-10,-8,-20,-2,15,-30,3,39
-20,-17,-4,21,-9,-12,-21,-2,14,-30,3,40
-20,-16,-3,20,-10,-11,-21,-1,14,-29,2,42
-23,-15,1,21,-15,-8,-20,-2,13,-30,3,42
-25,-18,-1,23,-14,-11,-20,-3,13,-31,2,42
-26,-19,-1,24,-15,-11,-20,-2,13,-30,4,43
-30,-19,1,26,-19,-11,-20,-2,14,-30,4,43
-29,-20,-1,26,-17,-12,-24,-2,14,-31,3,42
-33,-21,1,29,-21,-12,-25,-2,14,-30,3,43
-26,-17,0,23,-16,-10,-25,-2,13,-30,3,42
-15,-12,-2,15,-7,-8,-25,-1,15,-30,3,42
-19,-16,-3,19,-9,-11,-24,-2,14,-30,3,40
-23,-16,-1,21,-14,-10,-24,-3,14,-31,2,39
-34,-19,5,28,-25,-8,-25,-3,13,-31,2,40
-26,-17,0,23,-16,-10,-25,-4,11,-32,-1,39
-28,-16,3,23,-19,-7,-25,-2,14,-31,0,42
-32,-18,4,26,-23,-8,-26,-2,12,-31,0,41
-23,-15,1,21,-15,-8,-25,-2,13,-31,1,42
-30,-16,4,24,-22,-7,-24,-2,14,-31,3,41
-30,-18,3,25,-20,-9,-23,-3,14,-30,4,43
-28,-20,-1,26,-16,-12,-24,-4,13,-31,3,44
-32,-18,4,26,-23,-8,-22,-3,14,-29,4,46
-42,-24,4,35,-29,-12,-23,-3,14,-31,2,45
-32,-26,-4,32,-16,-17,-25,-5,11,-32,1,42
-25,-22,-6,26,-10,-16,-24,-4,11,-32,1,44
-30,-22,-2,28,-16,-14,-24,-3,12,-32,1,44
-29,-21,-1,27,-16,-13,-26,-5,10,-33,1,43
-30,-20,0,27,-18,-11,-26,-5,10,-33,-1,42
-31,-18,3,26,-21,-9,-25,-3,11,-32,1,44
-34,-19,5,28,-25,-8,-25,-3,12,-33,-0,43
-34,-20,3,29,-23,-10,-26,-4,12,-32,-0,44
-33,-23,-1,30,-19,-13,-29,-5,11,-33,-0,43
-30,-20,0,27,-18,-11,-27,-4,12,-32,1,44
-23,-21,-5,24,-9,-14,-30,-4,12,-32,1,42
-30,-22,-2,28,-16,-14,-27,-4,13,-32,1,45
-25,-25,-9,28,-7,-19,-22,-4,13,-31,1,43
-34,-22,1,30,-22,-12,-19,-4,13,-31,1,43
-35,-23,0,31,-21,-13,-19,-4,12,-31,0,44
-32,-24,-3,31,-17,-15,-21,-4,13,-32,0,44
-32,-21,0,29,-20,-12,-20,-4,13,-32,1,45
-31,-23,-2,29,-17,-14,-20,-4,13,-32,1,44
-33,-22,0,30,-21,-13,-21,-4,11,-33,0,44
-32,-23,-2,30,-17,-14,-19,-4,10,-33,-1,43
-31,-21,-1,28,-18,-13,-17,-6,10,-34,0,41
-33,-23,-1,30,-19,-13,-22,-6,9,-34,-1,39
-34,-23,-1,31,-20,-14,-24,-6,10,-34,-1,38
-33,-22,0,30,-21,-13,-24,-6,9,-34,-1,40
-33,-16,6,26,-25,-6,-22,-5,11,-32,0,42
-34,-22,1,30,-22,-12,-23,-5,10,-34,-1,40
-41,-25,3,35,-27,-13,-25,-5,10,-33,-1,39
-38,-25,1,34,-24,-14,-26,-5,9,-35,-1,39
-33,-17,6,26,-25,-7,-24,-5,10,-33,1,40
-38,-19,8,30,-30,-7,-25,-5,9,-33,-0,39
-40,-21,6,32,-29,-9,-24,-5,9,-34,-1,39
-29,-17,3,24,-19,-9,-22,-6,11,-33,-0,39
-34,-21,3,29,-23,-11,-23,-6,9,-34,-1,37
-35,-24,-1,32,-21,-14,-25,-7,8,-35,-1,36
-38,-23,3,33,-25,-12,-24,-6,8,-34,-1,36
-29,-19,0,26,-18,-11,-23,-5,11,-33,-0,38
-34,-20,3,29,-23,-10,-22,-5,9,-34,-1,37
-25,-16,1,23,-16,-9,-24,-6,9,-34,-2,37
-35,-18,6,28,-26,-7,-22,-6,9,-34,-1,38
-35,-19,6,28,-26,-8,-22,-5,9,-33,-1,39
-34,-20,3,29,-23,-10,-22,-7,8,-35,-2,37
-33,-17,6,26,-25,-7,-22,-7,9,-34,-1,39
-36,-19,6,29,-27,-7,-22,-7,9,-34,-1,39
-20,-21,-8,23,-6,-16,-25,-8,6,-35,-2,34
-42,-23,6,34,-30,-10,-24,-7,9,-34,-1,35
-40,-21,6,32,-29,-9,-21,-6,10,-34,-0,36
-34,-19,5,28,-25,-8,-24,-6,8,-35,-2,36
-38,-17,9,28,-30,-5,-22,-6,9,-34,-2,37
-40,-17,11,29,-33,-4,-24,-5,10,-34,-3,38
-39,-19,8,31,-31,-7,-24,-5,12,-34,-1,38
-38,-21,5,32,-27,-10,-25,-6,9,-35,-2,37
-32,-19,3,27,-22,-9,-25,-5,11,-34,-1,38
-34,-18,6,27,-25,-7,-25,-4,12,-33,-1,38
-35,-19,5,29,-25,-9,-27,-5,10,-34,-2,37
-34,-19,4,28,-24,-9,-24,-6,10,-34,-2,38
-42,-23,6,34,-30,-10,-23,-6,9,-35,-2,36
-38,-22,4,32,-27,-11,-21,-6,8,-35,-3,34
-41,-19,10,31,-33,-6,-17,-5,11,-34,-1,35
-43,-19,11,32,-35,-6,-19,-6,10,-34,-1,36
-46,-20,12,34,-38,-5,-19,-5,10,-34,-2,34
-33,-19,3,28,-23,-9,-20,-7,8,-35,-4,33
-41,-19,10,31,-33,-6,-18,-5,10,-34,-3,34
-43,-21,9,33,-33,-7,-19,-6,9,-35,-3,34
-41,-21,7,32,-31,-8,-20,-7,8,-35,-4,34
-43,-21,9,33,-33,-7,-20,-6,8,-35,-3,35
-46,-22,10,35,-36,-8,-19,-6,9,-35,-3,35
-38,-19,8,30,-30,-7,-20,-6,9,-35,-3,36
-40,-20,7,31,-30,-8,-23,-6,7,-35,-4,34
-40,-20,7,31,-30,-8,-24,-6,8,-35,-3,35
-43,-20,10,32,-34,-7,-25,-6,7,-34,-3,34
-41,-16,13,29,-35,-3,-23,-5,9,-34,-2,36
-36,-16,9,27,-29,-5,-22,-6,9,-34,-2,35
-41,-16,12,29,-35,-3,-22,-5,8,-34,-3,36
-41,-16,12,29,-35,-3,-20,-5,9,-34,-3,35
-44,-19,11,32,-36,-5,-22,-6,8,-35,-3,34
-44,-21,9,34,-34,-8,-22,-6,7,-35,-4,35
-43,-20,10,32,-34,-7,-26,-6,8,-34,-3,35
-44,-19,12,32,-37,-4,-25,-5,9,-34,-2,34
-39,-16,11,29,-33,-4,-23,-4,10,-33,-1,33
-38,-16,11,28,-32,-4,-22,-5,8,-34,-3,30
-43,-19,11,32,-35,-5,-22,-5,7,-34,-3,32
-35,-16,8,27,-28,-5,-20,-5,7,-34,-4,31
-44,-19,12,32,-37,-4,-17,-6,6,-34,-4,31
-48,-21,12,36,-39,-6,-20,-6,7,-35,-6,31
-44,-20,11,33,-35,-6,-21,-6,7,-35,-4,31
-44,-19,11,32,-36,-5,-19,-6,7,-34,-3,32
-30,-11,10,21,-26,-2,-16,-6,8,-34,-3,33
-41,-16,12,29,-35,-3,-17,-5,8,-34,-3,34
-44,-18,13,31,-37,-4,-19,-6,8,-34,-3,35
-39,-18,10,29,-32,-5,-20,-5,8,-34,-3,35
-34,-16,7,26,-27,-6,-24,-6,7,-34,-3,35
-37,-16,10,28,-31,-4,-25,-6,8,-34,-3,34
-41,-16,13,29,-35,-3,-25,-4,8,-33,-2,32
-40,-16,12,28,-34,-3,-26,-5,9,-34,-3,30
-33,-13,11,24,-29,-2,-23,-5,9,-33,-3,29
-36,-18,7,28,-28,-6,-22,-7,6,-34,-5,29
-38,-17,10,29,-31,-5,-19,-6,7,-34,-5,30
-33,-19,4,28,-24,-9,-22,-8,4,-36,-7,28
-36,-19,6,29,-27,-7,-24,-6,5,-36,-7,30
-48,-16,18,32,-44,-1,-20,-5,8,-35,-4,34
-39,-13,14,27,-36,-1,-23,-5,7,-35,-4,34
-33,-14,9,24,-27,-4,-24,-5,6,-35,-4,33
-38,-15,12,27,-33,-3,-20,-4,8,-34,-3,34
-34,-13,11,24,-30,-2,-20,-4,7,-34,-4,33
-38,-13,14,26,-35,-1,-19,-5,7,-34,-4,32
-46,-16,17,31,-42,-1,-19,-5,7,-34,-5,32
-43,-17,13,31,-36,-4,-20,-6,5,-35,-6,29
-38,-13,14,26,-35,-1,-19,-5,6,-35,-5,30
-35,-13,12,24,-32,-1,-19,-6,6,-35,-5,29
-35,-12,13,24,-32,-1,-19,-5,7,-34,-5,29
-41,-16,13,29,-35,-3,-19,-6,6,-34,-5,28
-41,-14,14,28,-36,-1,-18,-5,6,-34,-4,30
-46,-16,16,31,-41,-1,-19,-5,7,-34,-4,29
-40,-14,14,28,-35,-1,-19,-5,7,-34,-4,29
-45,-13,19,29,-43,2,-18,-4,8,-33,-4,28
-38,-13,14,26,-35,-1,-20,-5,6,-34,-5,25
-39,-13,14,27,-36,-1,-20,-5,7,-34,-4,26
-44,-11,21,27,-44,4,-19,-4,7,-34,-4,27
-44,-10,22,26,-45,5,-19,-4,6,-34,-6,27
-46,-15,18,31,-42,0,-21,-6,4,-36,-8,25
-43,-12,19,27,-41,2,-20,-6,5,-35,-7,26
-41,-13,16,27,-38,1,-22,-5,6,-35,-5,28
-38,-11,16,25,-36,1,-22,-5,7,-34,-5,30
-37,-11,16,24,-36,2,-23,-5,7,-33,-4,30
-34,-11,14,23,-32,1,-22,-5,7,-33,-4,31
-46,-16,17,31,-42,-1,-22,-5,7,-33,-4,30
-46,-16,16,31,-41,-1,-20,-5,7,-33,-5,30
-41,-14,14,28,-36,-1,-17,-5,7,-33,-4,29
-38,-13,14,26,-35,-0,-19,-5,8,-32,-4,28
-46,-16,17,31,-42,-1,-17,-5,7,-33,-5,25
-41,-12,17,26,-38,2,-17,-5,6,-34,-5,25
-41,-13,16,28,-38,0,-19,-6,6,-34,-6,24
-38,-10,18,24,-38,3,-17,-5,7,-34,-5,25
-36,-10,16,23,-35,2,-17,-6,6,-35,-7,23
-41,-9,20,24,-41,5,-15,-6,7,-34,-6,25
-43,-10,21,26,-43,4,-17,-5,7,-34,-5,25
-41,-9,21,25,-42,5,-17,-5,7,-33,-5,26
-38,-7,21,22,-41,6,-19,-4,8,-33,-4,25
-44,-11,20,28,-43,4,-21,-5,7,-33,-5,23
-44,-10,22,26,-45,5,-20,-4,8,-32,-4,23
-35,-6,20,20,-38,7,-20,-5,6,-33,-6,24
-37,-8,19,22,-38,5,-20,-5,6,-33,-6,24
-43,-9,22,25,-44,5,-15,-5,6,-33,-7,24
-40,-9,20,24,-41,5,-17,-4,7,-33,-7,22
-44,-9,23,26,-46,7,-17,-4,7,-33,-6,23
-43,-9,22,25,-44,6,-15,-4,7,-33,-5,24
-41,-9,21,24,-42,5,-17,-6,5,-34,-6,23
-41,-9,20,24,-41,5,-20,-6,5,-34,-7,24
-44,-10,22,26,-45,5,-20,-6,6,-32,-5,25
-44,-11,20,28,-43,4,-20,-6,7,-32,-5,22
-35,-9,17,22,-35,4,-22,-6,6,-33,-6,21
-25,-7,11,16,-25,1,-22,-6,4,-34,-6,21
-41,-8,22,24,-44,7,-14,-5,7,-32,-6,23
-44,-6,27,24,-48,10,-15,-5,7,-32,-7,23
-41,-6,24,22,-44,9,-16,-6,5,-33,-7,23
-42,-7,23,24,-45,7,-18,-5,6,-33,-7,22
-44,-9,23,26,-46,7,-17,-5,7,-32,-6,23
-43,-8,23,24,-45,7,-19,-5,6,-33,-6,23
-38,-9,19,23,-39,4,-19,-6,5,-33,-7,22
-46,-11,22,28,-46,5,-19,-6,5,-33,-8,22
-41,-8,22,24,-44,7,-20,-6,7,-33,-7,22
-39,-8,21,23,-41,6,-19,-6,6,-33,-7,22
-44,-9,22,26,-45,6,-20,-6,5,-33,-7,21
-40,-7,22,23,-42,7,-20,-6,5,-33,-7,19
-41,-8,22,24,-44,7,-18,-6,6,-32,-7,19
-40,-7,22,23,-42,7,-19,-6,6,-31,-7,21
-36,-9,17,23,-36,3,-19,-6,6,-33,-8,17
-42,-6,25,23,-46,9,-18,-5,7,-32,-6,20
-45,-8,25,25,-48,8,-19,-4,7,-31,-6,21
-38,-9,19,23,-38,4,-22,-5,6,-32,-7,19
-40,-6,23,22,-43,8,-22,-5,7,-33,-6,20
-44,-7,25,24,-47,8,-21,-5,6,-32,-6,20
-45,-8,25,25,-48,8,-22,-5,6,-32,-6,19
-39,-6,22,22,-42,7,-19,-5,6,-33,-6,16
-45,-8,25,25,-48,8,-19,-5,6,-32,-7,16
-49,-8,28,27,-53,10,-15,-6,6,-32,-8,16
-41,-6,24,23,-45,8,-15,-5,5,-32,-8,16
-34,-3,22,18,-38,9,-19,-6,5,-33,-9,17
-50,-7,30,28,-55,11,-17,-5,7,-32,-8,21
-47,-8,27,26,-51,9,-19,-6,5,-34,-8,20
-45,-6,27,24,-49,10,-19,-6,5,-33,-7,21
-40,-3,27,20,-46,12,-20,-5,6,-32,-6,23
-40,-1,28,19,-47,13,-22,-5,7,-31,-6,22
-39,-3,26,20,-45,11,-21,-5,5,-33,-7,20
-41,-4,26,21,-46,10,-19,-5,6,-32,-6,21
-41,-4,26,21,-46,10,-17,-5,6,-31,-6,19
-41,-6,24,22,-44,9,-20,-6,6,-31,-7,18
-45,-6,27,24,-49,10,-17,-5,5,-31,-6,17
-47,-8,27,26,-51,9,-16,-5,6,-31,-6,18
-41,-3,27,20,-47,12,-15,-4,7,-31,-6,19
-36,-3,24,18,-42,10,-14,-4,7,-31,-6,20
-43,-7,24,24,-46,8,-18,-6,5,-33,-7,18
-42,-7,23,24,-45,7,-19,-4,8,-32,-7,19
-39,-6,22,22,-42,7,-22,-4,6,-32,-7,20
-41,-6,24,22,-44,9,-22,-4,8,-31,-6,19
-46,-9,24,27,-47,7,-22,-4,7,-31,-5,17
-38,-4,24,20,-43,9,-22,-3,7,-31,-6,13
-39,-3,26,20,-45,11,-21,-5,7,-31,-6,13
-40,-1,28,19,-47,13,-19,-4,7,-31,-6,14
-38,-4,24,20,-43,9,-16,-5,5,-32,-8,14
-38,-3,25,19,-44,10,-16,-5,6,-32,-9,15
-38,-3,25,19,-44,10,-14,-5,7,-32,-9,18
-49,-5,31,25,-56,13,-13,-4,7,-32,-7,20
-44,-6,27,24,-48,10,-17,-4,6,-33,-8,20
-41,-5,26,22,-46,10,-16,-5,7,-31,-7,21
-41,-3,27,21,-46,11,-19,-4,8,-30,-6,22
-44,-5,27,23,-49,11,-21,-4,6,-31,-6,21
-41,-4,26,21,-46,10,-22,-5,6,-31,-7,20
-43,-6,25,23,-46,9,-20,-4,7,-31,-6,19
-38,-4,23,20,-42,9,-19,-4,7,-31,-6,18
-35,-3,22,18,-39,9,-18,-4,6,-31,-6,18
-30,-3,19,15,-34,8,-19,-5,5,-32,-8,16
-50,-6,30,27,-55,12,-17,-4,6,-31,-7,18
-51,-6,32,27,-57,13,-17,-4,6,-31,-7,17
-43,-3,28,21,-49,12,-17,-5,6,-32,-8,16
-49,-5,31,25,-56,13,-19,-4,6,-31,-7,18
-40,-3,27,20,-46,12,-20,-4,6,-31,-7,17
-36,-1,26,17,-43,12,-20,-4,6,-31,-7,18
-43,-3,28,21,-49,12,-22,-4,6,-31,-7,18
-41,-3,27,21,-47,12,-22,-4,6,-31,-7,16
-38,-1,27,18,-45,12,-20,-5,7,-30,-6,17
-45,-4,29,23,-51,12,-18,-4,7,-30,-6,17
-47,-3,31,23,-54,13,-19,-4,8,-30,-8,17
-41,-1,30,19,-50,15,-19,-4,7,-31,-7,18
-38,-1,27,18,-46,13,-19,-4,7,-31,-9,17
-40,-1,28,19,-47,13,-19,-4,6,-31,-8,18
-36,0,27,16,-44,13,-20,-5,6,-31,-9,17
-36,1,28,16,-45,14,-19,-4,7,-31,-7,17
-44,-3,29,22,-51,13,-20,-4,5,-31,-7,18
-41,-1,29,19,-48,13,-24,-5,5,-30,-6,17
-38,1,30,17,-47,15,-21,-4,7,-29,-7,18
-38,1,30,16,-48,16,-21,-4,7,-30,-6,16
-38,3,31,15,-48,17,-17,-2,10,-29,-6,16
-30,6,29,9,-42,18,-21,-2,10,-29,-5,15
-32,7,32,10,-45,20,-19,-2,10,-28,-5,15
-28,5,26,9,-38,16,-17,-2,9,-29,-6,14
-30,4,27,11,-40,16,-14,-2,10,-29,-6,15
-29,3,26,11,-38,14,-12,-2,8,-29,-7,16
-29,6,28,9,-41,17,-15,-2,10,-29,-7,17
-28,4,25,10,-37,14,-16,-2,9,-29,-6,18
-20,7,23,5,-31,15,-18,-1,9,-29,-5,19
-19,10,26,2,-32,18,-19,0,13,-27,-4,22
-20,8,24,4,-32,16,-21,1,13,-27,-3,24
-6,17,24,-8,-23,22,-17,1,17,-26,-1,26
-6,21,28,-11,-26,25,-12,3,19,-24,-1,27
-2,25,29,-15,-25,29,-8,4,22,-23,2,30
6,28,27,-21,-18,29,-6,6,23,-22,2,28
7,34,33,-26,-22,36,-2,7,27,-20,4,30
4,34,35,-24,-26,37,2,8,28,-19,4,29
-2,40,46,-25,-39,45,10,9,29,-19,5,30
9,36,34,-28,-22,38,7,7,26,-21,3,24
-8,31,41,-16,-38,37,14,9,29,-20,4,24
-17,26,42,-9,-44,35,14,11,29,-19,3,23
-5,30,38,-17,-34,36,7,9,28,-20,2,22
-6,30,38,-17,-35,36,6,10,29,-18,3,25
-2,29,34,-18,-29,33,2,8,28,-19,2,26
-3,27,33,-16,-29,31,-4,7,25,-21,1,27
0,29,32,-19,-26,32,-8,6,24,-21,1,28
-8,25,34,-13,-32,31,-8,6,24,-21,2,28
-9,26,37,-13,-36,33,-12,4,22,-21,3,28
-6,25,33,-13,-31,30,-19,1,20,-21,3,28
-6,23,31,-12,-29,29,-24,-1,17,-22,2,28
-3,25,30,-15,-26,29,-20,1,18,-21,2,29
0,24,27,-16,-22,27,-20,0,18,-22,1,28
-3,22,27,-13,-24,26,-18,-1,15,-23,1,27
-9,20,29,-9,-29,25,-17,-1,14,-23,1,27
-11,16,27,-6,-28,22,-17,-1,13,-24,-1,24
-13,14,26,-3,-28,21,-21,-1,11,-25,-2,21
-14,12,24,-1,-28,19,-22,-1,11,-25,-2,21
-16,11,24,1,-29,18,-22,-1,11,-26,-3,18
-19,11,27,1,-34,20,-22,-1,11,-27,-5,16
-15,12,25,-1,-29,19,-22,-2,10,-28,-5,15
-14,12,24,-1,-28,19,-21,-2,10,-28,-5,15
-26,13,34,3,-44,25,-15,-1,11,-27,-4,18
-29,14,38,4,-48,27,-15,0,13,-26,-4,18
-30,12,36,6,-48,25,-17,-1,12,-26,-4,17
-24,16,36,0,-44,27,-15,0,12,-26,-4,17
-30,15,39,4,-51,28,-17,-1,12,-25,-3,17
-26,18,39,0,-48,30,-16,-3,13,-25,-3,17
-29,15,38,3,-49,27,-15,-2,11,-26,-4,16
-28,14,37,3,-47,26,-17,-3,10,-26,-4,14
-31,12,37,6,-49,25,-17,-4,9,-26,-5,13
-38,8,37,12,-53,23,-16,-3,9,-27,-6,13
-35,9,35,10,-50,22,-18,-4,8,-29,-7,12
-39,5,34,14,-52,20,-18,-5,6,-29,-7,11
-37,7,35,12,-51,22,-18,-3,8,-28,-5,12
-33,8,34,10,-48,21,-19,-3,8,-28,-5,12
-29,11,34,5,-46,23,-22,-4,9,-28,-5,12
-28,12,34,4,-45,24,-23,-3,10,-27,-4,12
-30,13,37,5,-48,26,-22,-1,11,-26,-4,12
-29,12,35,5,-46,24,-20,-2,9,-27,-4,12
-34,11,38,8,-52,25,-12,-3,9,-28,-6,11
-36,10,38,10,-53,25,-15,-3,9,-27,-6,13
-31,13,37,5,-49,25,-15,-3,9,-28,-7,13
-28,14,36,3,-46,26,-15,-4,7,-29,-7,12
-40,9,40,12,-57,25,-14,-3,8,-28,-6,15
-41,9,41,12,-58,26,-15,-4,7,-28,-6,13
-35,11,39,8,-54,26,-15,-4,7,-27,-6,12
-32,13,38,6,-51,26,-17,-4,9,-27,-6,13
-43,8,41,14,-59,25,-17,-4,8,-26,-5,12
-43,7,40,15,-58,24,-15,-4,8,-27,-6,10
-25,19,40,-2,-47,31,-15,-2,11,-25,-3,10
-28,19,42,1,-52,31,-12,-2,13,-24,-2,11
-31,15,40,4,-52,28,-16,-3,11,-26,-3,10
-30,16,40,3,-51,29,-14,-3,12,-25,-3,12
-31,15,40,4,-52,28,-15,-3,11,-26,-4,12
-34,12,39,7,-52,26,-16,-3,9,-26,-5,11
-30,14,38,4,-49,26,-14,-2,12,-26,-4,11
-27,14,36,3,-46,26,-17,-1,13,-26,-5,10
-38,19,49,4,-63,35,-10,5,21,-27,-7,9
-28,28,52,-6,-59,41,-4,16,30,-30,-11,3
-25,31,54,-10,-59,44,11,34,52,-32,-14,-1
-10,38,51,-21,-48,47,31,59,83,-31,-13,1
9,47,46,-35,-33,49,49,85,121,-23,-7,6
21,48,38,-40,-18,46,81,117,161,-16,-3,9
13,58,55,-44,-37,60,107,129,183,-8,1,7
11,91,94,-65,-71,99,128,127,202,2,9,13
27,105,97,-82,-63,108,150,129,223,20,27,34
60,117,86,-104,-34,109,149,109,226,51,58,72
86,155,110,-142,-38,143,136,74,220,85,94,113
93,194,149,-171,-66,185,123,30,190,116,127,151
103,256,211,-217,-111,251,83,-34,137,146,166,199
111,316,271,-260,-155,314,28,-102,79,179,209,250
129,368,317,-304,-182,367,-66,-174,-16,201,244,298
151,414,352,-344,-198,410,-172,-245,-104,222,276,345
157,414,348,-346,-191,408,-248,-301,-176,245,303,381
159,363,289,-313,-141,350,-270,-316,-201,276,330,404
150,335,264,-290,-126,322,-270,-313,-193,301,352,422
128,315,259,-267,-135,308,-254,-303,-197,303,355,421
109,296,252,-246,-141,293,-261,-297,-208,293,344,405
80,266,239,-213,-147,270,-262,-278,-202,271,316,366
51,229,219,-175,-149,239,-254,-250,-169,252,287,324
27,195,199,-142,-147,210,-257,-223,-143,225,252,278
-4,162,185,-106,-155,184,-248,-196,-124,170,199,220
-60,132,193,-61,-195,171,-242,-178,-153,47,99,129
-125,98,203,-10,-243,157,-210,-156,-169,-90,-20,29
-151,82,203,12,-259,148,-193,-140,-178,-146,-70,-9
-141,70,184,16,-237,132,-202,-127,-163,-120,-61,-5
-133,62,168,18,-219,119,-215,-117,-147,-99,-51,-1
-125,47,145,24,-195,99,-202,-101,-124,-84,-42,3
-104,41,124,19,-165,85,-179,-83,-97,-71,-35,7
-91,42,114,12,-149,81,-153,-65,-70,-62,-29,10
-73,43,103,4,-129,76,-129,-46,-45,-54,-22,14
-53,40,84,-3,-101,64,-103,-29,-22,-46,-17,17
-43,35,72,-4,-85,56,-80,-15,-2,-41,-13,18
-28,38,64,-13,-69,53,-53,-2,15,-35,-9,20
-22,39,61,-16,-63,52,-35,6,26,-33,-7,19
-20,31,50,-12,-53,43,-28,9,28,-32,-8,16
-23,32,54,-11,-58,45,-19,13,31,-31,-7,15
-19,33,52,-13,-54,45,-14,16,35,-29,-6,18
-21,28,47,-9,-51,40,-14,17,37,-28,-6,16
-18,29,45,-11,-48,39,-11,20,41,-26,-5,18
-18,28,45,-10,-47,38,-7,22,45,-25,-4,15
-14,26,40,-11,-42,35,-8,22,46,-26,-4,12
-14,24,38,-10,-39,32,-6,22,46,-26,-5,9
-24,22,42,-4,-49,33,-1,22,47,-26,-4,10
-12,27,39,-12,-39,35,0,23,47,-25,-5,11
-15,26,41,-10,-43,35,3,23,47,-24,-5,12
-20,24,42,-7,-47,35,4,24,49,-24,-5,13
-20,22,40,-5,-45,32,2,24,48,-24,-4,14
-20,22,40,-5,-45,32,4,25,48,-22,-3,14
-12,29,42,-14,-41,37,5,26,52,-20,-1,16
-6,27,35,-15,-32,33,6,26,54,-19,-1,16
-16,25,40,-9,-42,34,5,27,55,-18,0,15
-14,23,36,-9,-38,31,4,27,56,-19,1,15
-12,23,34,-9,-35,30,5,28,57,-17,1,15
-14,20,33,-6,-35,27,7,28,58,-18,1,16
-14,23,36,-8,-38,31,7,29,57,-17,2,14
-15,23,38,-8,-40,32,10,29,58,-16,3,14
-7,24,32,-13,-31,30,11,28,57,-16,3,13
-12,25,37,-11,-37,32,12,30,60,-14,4,12
-4,25,31,-14,-28,30,9,29,59,-13,4,9
-6,24,32,-13,-30,30,9,30,59,-13,4,7
-11,25,36,-11,-36,32,7,29,61,-12,5,8
-6,28,36,-15,-33,33,8,30,63,-11,5,10
-1,30,34,-19,-29,34,9,31,65,-11,6,9
-2,29,34,-18,-29,33,9,31,64,-11,5,9
-4,28,34,-16,-31,33,11,30,64,-11,6,8
-5,27,34,-15,-31,32,10,31,64,-10,7,7
0,31,35,-21,-28,35,13,31,65,-9,8,8
2,31,33,-21,-25,34,15,32,65,-8,7,8
-3,28,34,-17,-30,33,15,32,66,-8,9,8
-3,28,34,-17,-29,33,15,32,66,-7,9,10
-1,30,34,-19,-29,34,14,32,67,-6,10,10
0,30,34,-19,-27,34,14,32,68,-6,10,9
1,29,32,-19,-26,32,16,32,69,-6,11,9
6,31,30,-23,-21,33,17,33,70,-6,11,10
5,30,30,-22,-21,31,16,33,70,-5,12,10
6,32,32,-23,-23,34,16,34,71,-4,12,10
9,33,30,-26,-19,34,14,34,71,-4,12,10
-2,33,39,-21,-33,38,16,36,74,-2,15,11
4,35,37,-25,-28,39,17,36,75,-1,15,13
1,33,37,-22,-29,37,15,36,75,-1,15,12
3,34,36,-24,-27,37,21,37,76,-1,16,13
6,36,36,-27,-25,39,21,38,78,0,17,12
5,35,36,-26,-26,38,23,38,79,1,18,14
7,36,35,-27,-24,38,20,39,80,1,18,14
10,38,35,-30,-23,39,20,40,82,3,19,15
6,35,34,-26,-24,37,19,40,82,4,20,16
9,33,31,-26,-19,34,19,40,82,4,20,15
7,38,38,-28,-26,40,22,41,85,5,21,17
17,38,31,-33,-14,37,21,41,83,5,21,17
9,38,35,-29,-23,39,21,41,86,6,22,17
14,40,35,-33,-20,40,24,42,87,6,23,18
15,40,34,-33,-19,40,22,41,89,6,23,18
9,40,38,-30,-26,41,23,44,92,8,25,20
19,46,38,-39,-19,45,24,45,93,9,26,20
20,45,36,-39,-17,44,21,46,95,10,26,21
14,44,39,-35,-24,44,22,45,96,10,27,21
23,47,36,-41,-15,45,20,46,97,12,27,23
24,49,38,-43,-16,47,20,46,98,12,28,24
23,48,38,-42,-17,46,22,46,99,14,30,25
19,45,37,-38,-18,44,24,47,101,14,31,23
25,47,34,-42,-13,44,25,48,102,15,32,23
26,51,39,-45,-16,48,24,49,105,16,33,23
19,48,39,-40,-20,47,23,50,107,17,33,22
31,51,34,-48,-9,46,22,51,109,18,33,24
31,53,37,-49,-11,49,22,52,111,19,33,26
29,55,40,-49,-15,51,24,54,114,21,35,30
32,57,40,-52,-13,52,26,55,117,22,35,31
35,55,36,-52,-8,49,25,54,116,21,35,30
38,58,38,-55,-7,52,26,54,118,23,37,32
35,57,38,-53,-10,51,27,55,120,25,40,35
38,61,40,-57,-9,55,27,55,122,26,41,37
40,62,40,-59,-8,55,28,57,124,27,43,38
45,68,42,-65,-7,59,29,58,128,30,44,41
44,66,42,-63,-8,58,27,58,129,30,45,42
47,69,42,-67,-6,60,24,59,132,32,47,44
47,68,42,-66,-5,59,29,60,135,34,49,47
48,70,44,-68,-6,62,30,62,137,36,50,47
50,73,46,-71,-7,64,31,62,139,38,51,49
54,76,46,-74,-4,66,27,64,142,41,54,50
54,77,46,-75,-5,67,25,66,146,43,56,50
60,79,44,-79,1,67,24,68,148,44,57,51
62,82,46,-82,0,69,26,68,150,46,60,54
64,83,46,-83,2,69,26,69,153,48,61,57
62,87,52,-85,-5,75,30,69,155,49,63,60
66,90,52,-89,-3,76,29,69,158,50,64,62
65,92,55,-90,-6,79,32,71,159,53,66,66
72,97,55,-96,-1,82,34,72,163,55,70,68
78,102,57,-102,2,86,31,73,166,58,73,71
80,103,57,-104,3,86,31,74,167,61,74,73
85,106,56,-108,6,88,30,75,171,64,77,76
83,109,61,-110,1,93,31,76,173,67,81,80
87,113,62,-113,2,95,31,77,176,69,83,82
87,114,64,-114,1,96,32,78,179,71,86,83
88,117,67,-117,-2,100,30,78,180,73,88,85
92,120,67,-121,1,102,31,78,182,76,90,87
93,124,70,-123,-1,105,31,79,185,79,93,89
105,130,69,-133,8,108,26,79,186,81,94,94
100,131,73,-131,1,111,26,80,187,83,96,97
98,132,75,-131,-2,112,24,79,187,85,98,99
105,135,73,-136,4,113,28,80,188,87,101,101
104,136,76,-137,2,115,26,80,190,89,103,106
91,139,89,-133,-17,123,29,79,192,92,107,108
93,141,89,-135,-17,124,27,79,191,92,109,111
111,145,80,-146,2,122,23,78,190,93,109,110
109,146,83,-146,-2,124,21,78,190,94,110,111
101,146,89,-142,-12,127,21,78,191,95,111,112
104,149,90,-146,-11,129,21,77,189,97,112,115
103,149,91,-145,-12,129,22,77,188,98,113,117
113,150,85,-150,-1,127,19,76,187,98,113,118
111,148,84,-148,-1,126,19,74,185,98,113,118
93,148,97,-140,-23,132,20,73,183,98,114,118
100,148,93,-143,-15,130,19,71,180,98,114,118
101,150,93,-144,-15,131,20,70,179,98,114,118
101,149,93,-144,-15,130,19,68,173,96,113,117
101,149,93,-144,-14,131,19,66,172,95,112,115
94,147,95,-139,-21,130,17,65,169,94,111,115
93,147,96,-139,-22,131,16,64,167,94,111,113
100,148,93,-143,-15,130,13,62,162,92,108,108
95,145,93,-139,-18,129,11,60,158,90,107,108
88,142,94,-133,-24,127,12,59,154,88,104,107
88,142,94,-133,-24,127,9,57,149,84,101,105
82,138,94,-128,-27,125,11,53,143,82,98,104
80,135,92,-125,-26,122,7,51,138,78,95,101
78,133,91,-123,-27,121,9,49,135,76,94,98
73,130,92,-119,-31,119,7,48,131,73,91,95
65,123,89,-110,-34,114,10,45,125,68,86,90
63,120,88,-108,-34,112,14,44,121,66,84,87
62,115,83,-104,-31,106,10,42,114,61,79,82
53,109,83,-96,-36,103,11,39,109,57,74,78
47,105,82,-91,-38,100,10,36,102,52,70,72
44,101,81,-87,-39,97,10,34,97,48,67,67
40,97,80,-83,-41,95,10,31,90,44,63,62
33,91,78,-75,-44,91,9,29,85,40,59,57
31,88,76,-73,-43,88,9,27,80,35,55,53
29,86,74,-70,-43,85,9,25,76,32,50,49
23,80,73,-63,-46,82,9,24,72,28,47,44
23,76,68,-60,-42,77,9,23,69,25,44,40
22,72,65,-58,-41,74,7,21,64,22,40,36
15,68,65,-52,-44,71,5,20,59,18,36,34
11,62,61,-46,-43,66,4,18,55,15,34,31
7,57,59,-41,-44,62,3,16,50,13,31,28
6,56,59,-40,-45,61,6,15,46,10,28,26
-1,51,58,-33,-48,58,6,13,43,7,26,21
-6,48,58,-29,-51,56,6,12,40,5,23,15
-2,48,55,-31,-46,54,4,11,38,2,21,12
-7,42,53,-24,-47,50,5,11,35,-0,17,9
-7,40,50,-23,-45,48,5,8,31,-4,12,6
-10,40,52,-22,-48,48,7,8,29,-6,9,3
-6,39,49,-23,-43,46,5,7,26,-8,7,1
-16,33,49,-15,-50,43,7,7,23,-9,7,0
-11,33,46,-17,-44,41,4,5,22,-11,5,-2
-14,31,46,-14,-46,40,4,4,20,-13,5,-4
-18,28,45,-10,-47,38,3,4,18,-14,3,-5
-19,27,45,-9,-48,37,3,3,18,-15,2,-8
-19,26,44,-9,-47,37,3,3,17,-15,2,-8
-25,21,43,-3,-51,33,3,2,16,-16,1,-10
-19,21,37,-5,-42,30,4,2,15,-17,-1,-12
-20,22,40,-5,-45,32,1,1,13,-18,-2,-16
-26,18,39,0,-48,30,2,0,11,-19,-3,-16
-27,17,39,1,-48,29,3,1,10,-20,-4,-17
-22,20,39,-3,-46,31,1,1,11,-20,-5,-18
-19,17,34,-3,-39,26,0,0,9,-21,-6,-20
-30,15,39,4,-51,28,0,-1,8,-21,-6,-21
-35,17,46,5,-59,32,4,-1,11,-20,-5,-20
-31,15,40,4,-52,28,4,-1,9,-21,-5,-21
-28,16,39,2,-49,29,5,-1,9,-20,-6,-22
-30,17,42,2,-52,30,6,-1,9,-22,-6,-24
-35,13,41,6,-54,28,2,-2,9,-23,-8,-26
-31,16,41,3,-52,29,4,-1,11,-21,-7,-24
-34,14,42,6,-55,29,4,-0,11,-21,-7,-23
-32,13,39,6,-52,27,3,-1,10,-21,-7,-24
-33,13,40,6,-53,27,6,-1,11,-20,-7,-23
-30,13,38,5,-49,26,4,-1,11,-20,-7,-25
-33,14,41,5,-54,28,4,-1,12,-20,-6,-25
-35,13,42,7,-55,28,2,-1,12,-20,-6,-23
-34,14,42,6,-55,29,0,0,14,-19,-5,-21
-35,15,42,6,-56,30,-0,-1,14,-19,-6,-23
-32,13,39,6,-52,27,-1,0,15,-20,-6,-22
-35,11,38,9,-53,25,-0,0,15,-20,-7,-23
-38,15,45,7,-59,31,3,1,19,-18,-5,-20
-25,17,38,0,-46,28,0,0,15,-19,-6,-21
-34,16,43,5,-56,30,3,1,15,-19,-5,-21
-32,15,41,5,-53,29,5,1,17,-18,-5,-21
-27,15,37,2,-46,27,5,-0,14,-20,-6,-23
-35,13,42,7,-55,28,5,1,17,-19,-5,-24
-36,14,43,7,-57,30,7,1,18,-18,-5,-23
-38,12,42,9,-57,27,6,1,17,-19,-6,-24
-32,14,40,5,-52,28,5,1,17,-19,-6,-25
-30,16,40,3,-51,29,4,1,18,-18,-6,-23
-33,13,40,6,-53,27,0,2,19,-18,-5,-25
-32,15,41,5,-53,29,-2,2,19,-17,-5,-25
-29,16,40,2,-50,29,-4,1,20,-17,-4,-24
-33,18,45,3,-57,32,1,4,23,-15,-3,-22
-30,19,44,1,-54,33,2,4,22,-15,-4,-21
-30,18,42,2,-53,31,3,3,22,-15,-4,-22
-33,15,42,5,-54,29,7,3,22,-15,-3,-21
-31,17,42,3,-54,31,6,3,23,-15,-2,-20
-28,18,41,1,-51,30,4,3,22,-16,-3,-21
-32,18,44,3,-56,32,7,4,23,-15,-1,-19
-33,16,43,4,-55,31,6,5,23,-14,-1,-20
-31,19,44,2,-55,32,5,5,23,-14,-2,-18
-25,20,41,-2,-48,31,2,5,23,-15,-2,-20
-27,19,42,-0,-50,31,0,5,23,-14,-1,-19
-29,19,42,1,-52,31,0,6,23,-14,-0,-16
-28,19,42,0,-52,32,-0,5,23,-13,-0,-19
-30,19,43,1,-53,32,2,5,25,-13,0,-21
-30,19,44,1,-54,33,2,6,25,-13,0,-21
-28,19,42,0,-51,31,0,5,24,-13,-1,-20
-31,17,42,3,-54,31,4,6,23,-13,-1,-19
-25,17,38,0,-47,29,3,5,23,-13,-3,-19
-29,18,42,1,-52,31,4,6,23,-13,-3,-19
-19,18,34,-3,-40,27,0,5,21,-14,-2,-19
-29,16,40,2,-50,29,-0,7,23,-13,0,-16
-23,19,38,-2,-45,30,0,6,23,-13,-1,-17
-25,18,38,-0,-46,29,-2,6,22,-14,-1,-19
-22,21,39,-4,-45,31,-2,7,23,-13,-0,-17
-20,21,38,-4,-44,31,-3,7,22,-14,-1,-19
-24,19,39,-2,-46,30,-4,6,20,-15,-3,-21
-25,19,40,-1,-48,30,-3,5,21,-15,-3,-22
-25,17,38,0,-46,28,-2,6,20,-15,-3,-22
-17,22,38,-6,-41,31,3,6,20,-14,-3,-22
-19,21,38,-5,-43,30,0,6,20,-15,-3,-24
-23,19,38,-2,-45,30,-2,6,19,-15,-3,-23
-22,16,34,-1,-41,26,-2,5,19,-15,-3,-22
-27,13,34,3,-44,24,-5,5,17,-17,-5,-22
-25,13,34,3,-43,24,-6,4,17,-17,-6,-22
-14,21,34,-7,-36,28,-3,6,19,-16,-5,-20
-13,19,30,-6,-32,25,-3,5,17,-17,-5,-20
-22,18,37,-2,-44,28,-4,5,17,-17,-5,-19
-22,15,33,0,-40,25,-4,6,16,-17,-5,-20
-22,14,33,1,-41,24,-5,5,16,-18,-6,-20
-12,18,29,-6,-31,24,-5,4,15,-18,-7,-22
-13,16,27,-5,-29,22,-4,3,14,-19,-7,-23
-19,15,31,-1,-37,24,0,5,15,-18,-6,-23
-15,15,28,-3,-32,22,-1,3,13,-20,-9,-26
-20,13,30,1,-36,22,-2,3,13,-20,-8,-25
-25,12,32,3,-41,22,0,2,13,-19,-9,-26
-20,11,28,2,-35,20,-2,2,12,-19,-10,-28
-25,9,29,5,-38,19,-5,2,12,-20,-10,-29
-24,11,30,4,-38,21,-2,3,12,-20,-10,-28
-20,12,29,1,-36,21,-3,2,12,-20,-11,-28
-14,13,26,-2,-29,20,-4,1,12,-21,-11,-29
-21,11,29,2,-36,21,-2,3,11,-21,-11,-28
-21,11,29,2,-36,21,-2,2,10,-21,-11,-28
-16,12,26,-0,-31,19,-5,1,9,-22,-12,-28
-24,9,28,5,-37,19,-2,2,10,-22,-11,-28
-28,7,29,8,-40,18,-2,1,8,-23,-12,-31
-21,9,26,4,-34,17,-3,1,8,-23,-12,-31
-26,8,28,6,-38,18,-3,0,7,-24,-12,-32
-27,7,28,7,-39,18,-1,1,8,-23,-11,-32
-31,6,30,10,-43,18,-1,1,7,-23,-11,-31
-25,3,22,10,-34,13,-4,-1,4,-24,-13,-35
-29,6,28,9,-41,17,-2,0,6,-23,-12,-34
-29,6,29,9,-41,18,-0,0,5,-23,-12,-35
-30,5,28,10,-41,17,-3,0,5,-24,-14,-35
-32,4,29,11,-43,17,-4,0,6,-24,-14,-35
-35,2,28,14,-44,15,-4,-1,5,-25,-15,-34
-33,4,30,12,-44,17,-4,0,5,-25,-15,-34
-30,7,30,9,-43,19,-2,-1,6,-24,-14,-32
-30,5,28,10,-41,17,-2,0,4,-25,-14,-33
-35,3,30,14,-46,17,-2,-1,4,-25,-14,-34
-40,2,32,16,-50,17,-3,0,4,-25,-14,-33
-37,2,30,15,-46,16,-5,-0,4,-25,-14,-34
-35,3,30,13,-45,17,-6,-0,3,-25,-14,-33
-32,3,28,12,-43,16,-8,-1,2,-26,-14,-35
-37,2,30,15,-46,16,-5,0,2,-25,-14,-35
-31,4,28,11,-42,16,-4,-1,1,-26,-14,-34
-32,5,30,11,-44,17,-1,-1,2,-25,-13,-35
-22,5,22,7,-32,14,-4,-2,2,-25,-14,-38
-30,3,26,11,-39,14,-4,-2,2,-25,-14,-38
-38,3,32,15,-49,18,-3,-1,5,-24,-14,-34
-38,1,30,16,-47,15,-5,-1,4,-24,-14,-33
-38,3,31,15,-48,17,-5,-1,4,-24,-15,-32
-40,3,33,16,-51,18,-7,-1,3,-25,-15,-33
-42,1,32,18,-52,16,-6,-1,4,-24,-14,-33
-43,0,32,19,-52,16,-3,-1,3,-25,-13,-33
-39,3,33,15,-51,18,-2,-1,4,-24,-12,-35
-38,1,29,16,-46,14,-6,-1,4,-24,-14,-39
-29,6,28,9,-41,17,-4,-1,3,-24,-14,-39
-31,4,28,11,-42,16,-2,-2,2,-25,-14,-38
-32,1,26,13,-40,13,-4,-2,1,-26,-16,-38
-37,1,28,16,-45,14,-2,-3,2,-26,-17,-36
-38,0,29,17,-47,14,-1,-2,2,-26,-18,-35
-29,4,27,10,-39,15,0,-3,2,-26,-17,-36
-38,1,29,16,-46,14,-0,-2,2,-25,-15,-34
-38,1,29,16,-46,14,0,-2,3,-26,-15,-34
-37,2,30,15,-46,16,-0,-2,2,-26,-15,-33
-32,3,27,13,-42,15,-3,-2,1,-26,-16,-35
-38,-1,28,18,-46,13,-2,-2,1,-26,-16,-35
-36,0,27,16,-44,13,-2,-3,2,-26,-16,-35
-36,-1,27,17,-44,13,-1,-3,0,-26,-16,-36
-35,-1,25,17,-42,12,-2,-3,1,-26,-16,-36
-42,-3,28,21,-48,12,-1,-2,0,-26,-16,-37
-35,3,30,14,-46,16,-2,-2,1,-26,-16,-36
-38,0,29,17,-47,14,-4,-3,1,-26,-16,-37
-38,-1,28,18,-46,13,-4,-3,1,-26,-16,-36
-39,-2,27,19,-46,12,-4,-3,0,-26,-17,-37
-35,-2,24,17,-41,11,-5,-4,-0,-27,-18,-38
-50,-6,30,27,-55,12,-5,-5,-1,-27,-17,-38
-47,-6,28,25,-52,10,-5,-4,-0,-27,-17,-39
-41,-6,23,23,-44,8,-7,-6,-2,-28,-19,-41
-45,-3,30,22,-52,13,-4,-4,0,-26,-17,-39
-44,-1,31,21,-53,15,-5,-3,0,-26,-16,-38
-34,0,26,15,-42,13,-6,-3,-0,-27,-18,-39
-37,-2,26,18,-44,12,-7,-4,-0,-27,-18,-40
-40,-3,27,20,-46,12,-7,-4,-0,-26,-17,-39
-37,-2,26,18,-44,12,-5,-4,-1,-27,-18,-40
-38,-1,27,18,-45,12,-5,-5,-1,-27,-18,-39
-45,-4,29,23,-51,12,-6,-5,-1,-27,-17,-40
-43,-4,27,22,-48,11,-5,-5,-1,-28,-18,-43
-44,-6,26,24,-47,9,-7,-5,-2,-27,-18,-43
