I,II,III,aVR,aVL,aVF,V1,V2,V3,V4,V5,V6
-44,-5,41,33,-48,24,4,12,-12,-16,-23,-29
-42,-14,31,36,-41,13,0,10,-13,-16,-22,-29
-46,-22,28,42,-42,7,-1,8,-13,-16,-24,-32
-44,-13,34,37,-44,16,3,12,-13,-16,-23,-32
-34,-1,34,23,-39,22,5,14,-10,-14,-19,-28
-34,2,37,22,-40,26,9,18,-7,-10,-16,-24
-19,2,22,12,-23,16,7,15,-10,-14,-23,-31
-33,-10,26,28,-33,11,8,13,-12,-15,-24,-31
-33,-7,28,26,-35,15,8,12,-14,-17,-24,-33
-28,-10,21,25,-28,8,9,11,-14,-17,-26,-33
-37,-4,34,27,-40,21,8,13,-12,-15,-24,-31
-24,-2,23,17,-27,14,4,12,-11,-17,-26,-33
-43,-11,34,35,-44,17,9,16,-7,-14,-19,-30
-44,-4,42,32,-49,26,7,15,-9,-14,-20,-29
-37,1,38,25,-43,26,8,15,-10,-14,-19,-30
-23,6,28,13,-29,22,6,18,-11,-13,-21,-31
-34,-4,32,25,-37,19,3,12,-15,-16,-24,-38
-38,-11,29,31,-38,13,5,15,-12,-14,-24,-33
-37,-13,27,32,-36,11,7,17,-10,-11,-21,-35
-24,-5,21,19,-26,11,5,14,-9,-13,-23,-35
-34,-7,29,27,-36,16,7,20,-10,-13,-21,-32
-31,1,32,21,-35,22,5,16,-10,-13,-23,-35
-25,-2,24,18,-28,15,4,14,-11,-14,-26,-40
-42,-2,41,29,-47,26,6,15,-10,-14,-23,-39
-33,-1,33,23,-37,22,3,9,-12,-17,-26,-42
-46,-13,36,38,-46,17,6,13,-12,-15,-24,-39
-46,-5,42,33,-49,25,8,17,-12,-14,-24,-40
-41,-16,28,36,-39,10,2,9,-14,-17,-28,-44
-29,-14,18,27,-27,4,1,8,-16,-18,-32,-49
-33,-7,28,26,-35,15,4,9,-14,-16,-28,-49
-21,2,23,13,-24,17,7,13,-14,-16,-27,-47
-35,1,36,23,-40,24,9,16,-9,-12,-23,-41
-47,-4,44,33,-52,28,9,15,-9,-14,-20,-39
-42,-7,37,32,-44,21,9,14,-11,-14,-22,-42
-42,-8,36,33,-44,20,7,14,-10,-15,-23,-40
-42,-13,32,35,-41,14,7,15,-10,-14,-22,-40
-34,-8,28,27,-35,14,7,15,-14,-17,-22,-40
-34,-2,33,24,-38,21,7,15,-9,-14,-22,-38
-30,-2,29,21,-33,18,8,17,-11,-14,-21,-38
-42,-13,32,35,-41,14,9,15,-11,-14,-23,-42
-34,-10,27,29,-35,12,4,12,-12,-17,-26,-44
-32,1,33,21,-37,22,8,15,-10,-13,-22,-41
-23,-1,23,16,-26,15,8,16,-9,-16,-26,-46
-27,1,28,18,-31,19,6,16,-10,-17,-26,-47
-31,-4,28,23,-33,17,8,14,-10,-15,-27,-50
-31,-1,31,21,-35,20,5,13,-14,-18,-28,-51
-39,-10,32,32,-40,16,4,12,-14,-17,-28,-52
-41,4,44,25,-48,32,12,19,-9,-13,-24,-48
-40,-8,34,31,-42,18,9,14,-14,-16,-24,-47
-28,-4,26,21,-31,15,6,16,-14,-16,-26,-48
-38,-14,27,33,-36,10,5,14,-15,-17,-27,-53
-47,-13,37,39,-47,18,3,15,-12,-14,-24,-48
-28,-7,23,23,-29,11,0,12,-13,-14,-26,-49
-42,1,43,28,-48,29,5,17,-9,-10,-18,-44
-46,-8,39,35,-48,22,5,19,-9,-10,-19,-44
-33,6,38,19,-40,28,7,23,-8,-8,-17,-44
-29,2,32,19,-34,22,7,14,-11,-14,-23,-49
-25,7,31,13,-31,24,6,16,-10,-11,-21,-44
-38,-7,33,29,-40,18,11,20,-7,-10,-21,-46
-27,-4,24,20,-29,14,8,17,-12,-16,-26,-48
-28,-8,22,23,-28,10,9,16,-12,-18,-31,-55
-34,-14,23,31,-32,7,9,18,-14,-17,-29,-56
-44,-8,38,34,-47,21,18,27,-7,-14,-26,-49
-22,-2,21,17,-24,12,10,20,-13,-16,-29,-55
-33,2,36,21,-39,25,11,23,-10,-13,-26,-52
-35,2,37,22,-40,26,16,27,-8,-11,-24,-48
-33,1,35,22,-38,24,13,25,-9,-12,-25,-49
-32,7,38,17,-39,30,15,28,-4,-11,-20,-46
-32,-7,27,25,-33,14,14,31,-2,-8,-19,-47
-23,-5,20,19,-24,10,13,27,-4,-11,-24,-52
-22,9,30,11,-29,24,20,34,1,-6,-17,-47
-22,9,29,10,-28,24,20,40,5,-2,-13,-41
-6,6,11,1,-9,10,13,37,3,-3,-13,-39
-6,12,16,-2,-12,17,11,37,4,-5,-13,-41
-12,21,30,-3,-23,31,23,48,11,1,-8,-32
-13,12,23,3,-20,22,23,47,8,1,-10,-37
-6,6,11,1,-9,10,15,46,6,-3,-13,-40
5,9,3,-7,1,7,15,47,8,-1,-13,-41
1,4,3,-2,-1,5,13,46,7,-1,-14,-44
3,13,8,-8,-3,13,12,44,7,-1,-13,-44
-7,10,16,-1,-12,16,13,45,12,3,-8,-38
-6,18,21,-5,-15,24,12,48,12,5,-3,-33
-11,18,26,-2,-20,27,13,44,11,4,-4,-33
15,24,6,-22,5,17,6,35,3,-2,-7,-38
-4,13,15,-4,-10,17,7,31,2,-2,-9,-38
-17,-2,16,13,-19,9,8,27,-3,-6,-10,-41
-12,6,17,5,-16,14,6,21,-5,-8,-14,-44
-17,4,21,9,-21,16,3,21,-7,-7,-13,-44
-23,-4,21,18,-25,11,-1,17,-9,-10,-18,-46
-13,-8,7,13,-11,0,1,20,-8,-12,-20,-47
-18,-14,7,20,-14,-3,3,25,-8,-11,-20,-44
-8,-32,-19,23,6,-30,-1,19,-14,-18,-27,-56
-7,-23,-12,17,3,-21,-2,19,-16,-20,-27,-57
-23,-19,8,26,-18,-5,4,27,-12,-14,-20,-48
-15,-17,2,20,-10,-9,-3,19,-12,-14,-22,-54
-24,-11,16,23,-23,4,0,20,-11,-13,-22,-51
-22,-14,11,23,-18,-1,-1,14,-14,-16,-25,-53
-18,-11,9,18,-15,0,-1,14,-17,-19,-27,-60
-30,-14,19,28,-28,5,0,13,-18,-20,-31,-65
-40,-10,32,32,-41,16,2,13,-18,-19,-29,-59
-26,-10,18,23,-25,7,1,12,-22,-21,-30,-62
-41,-32,15,45,-31,-8,0,9,-23,-25,-36,-68
-40,-23,22,40,-35,1,5,16,-20,-23,-31,-66
-44,-23,26,42,-40,4,9,18,-20,-22,-31,-66
-61,-45,24,64,-48,-9,4,11,-21,-23,-36,-70
-57,-31,32,54,-50,4,9,15,-17,-23,-33,-67
-55,-23,36,49,-51,11,13,21,-14,-18,-26,-64
-49,-8,42,37,-51,24,13,25,-12,-16,-23,-58
-53,-14,42,43,-53,20,14,21,-12,-17,-29,-64
-50,-14,38,41,-49,18,10,15,-14,-20,-32,-66
-37,-10,30,31,-38,14,8,13,-17,-22,-32,-68
-21,-13,11,21,-18,0,5,10,-20,-25,-39,-73
-65,-11,56,49,-68,31,12,14,-17,-21,-31,-67
-58,-20,42,50,-56,17,9,9,-20,-22,-33,-73
-48,-18,33,42,-46,12,8,13,-21,-24,-33,-69
-48,-25,27,45,-42,4,7,14,-22,-25,-33,-70
-48,-24,28,45,-43,5,8,11,-22,-25,-35,-72
-42,-20,26,39,-38,6,8,15,-20,-23,-32,-71
-41,-15,29,36,-40,11,8,16,-15,-19,-30,-67
-46,-11,37,37,-47,18,13,23,-12,-19,-28,-65
-55,-24,35,50,-51,9,8,14,-14,-19,-31,-67
-52,-28,30,50,-46,5,9,14,-18,-23,-36,-71
-61,-19,46,51,-60,20,14,17,-14,-18,-28,-66
-41,-19,26,38,-37,7,8,8,-19,-22,-34,-73
-39,-12,30,33,-39,13,9,13,-17,-21,-29,-66
-43,-21,26,41,-39,5,10,12,-18,-22,-31,-70
-38,-11,30,32,-39,13,9,11,-18,-23,-31,-70
-46,-14,34,38,-45,15,9,12,-20,-24,-32,-73
-44,-26,23,44,-38,1,9,11,-21,-26,-37,-78
-45,-10,37,35,-47,20,14,17,-17,-22,-34,-74
-49,-11,40,39,-50,20,12,18,-13,-18,-31,-73
-52,-15,39,42,-51,18,11,12,-16,-21,-33,-79
-41,-10,33,33,-42,17,12,14,-15,-22,-34,-80
-55,-4,52,39,-61,33,12,14,-12,-18,-32,-78
-46,-8,39,35,-48,22,9,14,-14,-21,-33,-78
-59,-13,48,46,-60,25,10,16,-11,-19,-29,-71
-38,-5,34,28,-41,20,10,11,-14,-20,-31,-73
-43,-17,30,39,-41,10,13,14,-18,-22,-32,-73
-37,-13,27,32,-36,11,16,18,-14,-20,-26,-69
-56,-20,39,48,-53,15,14,13,-12,-19,-28,-72
-43,-14,32,37,-42,13,14,19,-10,-20,-27,-72
-46,-7,41,35,-49,24,16,21,-9,-15,-24,-68
-42,-2,41,30,-47,26,14,21,-12,-17,-28,-73
-41,-2,39,29,-45,25,12,17,-10,-16,-28,-77
-60,-13,49,46,-61,26,22,25,-8,-17,-31,-79
-75,-4,72,52,-83,46,29,32,-5,-21,-36,-85
-83,-2,82,56,-93,54,41,38,-8,-31,-50,-100
-85,2,87,55,-96,59,59,52,-4,-36,-56,-111
-112,-12,102,80,-120,62,74,72,8,-32,-53,-113
-101,7,107,63,-117,76,83,81,18,-27,-50,-111
-97,19,112,54,-117,86,81,76,19,-22,-41,-105
-97,16,109,55,-116,82,74,69,17,-13,-33,-94
-69,18,83,36,-86,65,63,68,17,0,-15,-76
-26,12,36,11,-35,30,38,49,19,21,5,-55
-9,-9,2,11,-6,-3,9,30,14,45,33,-24
41,-2,-42,-25,47,-29,-27,5,5,70,64,8
90,12,-80,-65,96,-47,-67,-20,8,115,112,54
137,15,-123,-97,147,-75,-108,-46,11,156,160,103
199,36,-167,-149,207,-92,-154,-89,11,188,196,139
247,64,-192,-196,248,-94,-189,-118,15,220,231,177
271,99,-187,-231,259,-72,-225,-161,13,244,259,208
287,121,-185,-253,266,-58,-255,-199,-7,241,263,221
290,166,-151,-280,249,-9,-280,-232,-12,246,270,230
287,201,-119,-297,228,31,-294,-250,-28,232,256,224
247,116,-150,-224,224,-37,-281,-239,-58,183,205,183
229,51,-185,-177,233,-96,-260,-228,-102,107,136,128
199,-18,-211,-120,232,-152,-239,-207,-157,21,66,80
138,-114,-229,-28,207,-217,-204,-186,-207,-68,-15,13
86,-189,-240,46,184,-266,-171,-175,-258,-150,-94,-55
40,-224,-222,96,148,-273,-145,-173,-315,-218,-153,-110
9,-229,-196,119,116,-258,-130,-165,-311,-225,-166,-131
-32,-230,-156,146,70,-232,-110,-150,-282,-208,-161,-138
-41,-209,-130,141,51,-202,-87,-128,-247,-188,-152,-140
-48,-195,-111,137,36,-182,-76,-108,-219,-172,-148,-149
-62,-188,-92,143,17,-166,-65,-85,-187,-152,-136,-147
-61,-149,-61,121,1,-123,-50,-63,-156,-126,-119,-138
-62,-140,-52,117,-6,-112,-45,-48,-133,-112,-109,-134
-53,-111,-38,95,-8,-87,-32,-28,-107,-94,-97,-126
-52,-88,-20,82,-18,-61,-15,-5,-80,-72,-79,-113
-44,-63,-7,64,-21,-40,-1,13,-59,-58,-68,-109
-30,-42,-4,43,-15,-26,14,28,-39,-43,-51,-97
-39,-34,12,44,-29,-11,24,42,-22,-30,-38,-90
-39,-23,21,39,-34,1,27,48,-11,-22,-30,-85
-37,-19,22,35,-33,4,26,41,-7,-19,-27,-84
-44,-16,32,39,-43,12,29,38,-3,-16,-26,-79
-40,-11,32,33,-41,15,29,37,-1,-14,-24,-78
-32,1,33,21,-36,23,29,37,3,-13,-26,-77
-52,-4,49,37,-57,31,30,37,4,-9,-22,-75
-51,1,52,33,-57,35,26,33,3,-14,-25,-77
-36,15,48,16,-47,40,25,33,6,-11,-24,-77
-26,17,40,9,-37,36,25,35,8,-9,-23,-78
-31,17,45,12,-43,39,30,35,7,-12,-24,-81
-50,9,57,29,-60,43,32,38,11,-9,-22,-79
-39,4,43,25,-46,30,27,31,9,-9,-21,-82
-49,-2,47,34,-54,30,31,40,12,-6,-16,-81
-41,4,44,25,-48,32,29,40,13,-5,-18,-76
-43,16,57,21,-56,47,31,42,15,-1,-13,-69
-49,10,57,27,-59,43,30,38,15,-3,-13,-69
-31,10,39,15,-39,32,23,35,12,-4,-20,-73
-32,13,43,15,-42,36,26,38,12,-8,-22,-77
-37,28,61,10,-55,56,30,40,16,-3,-13,-68
-29,25,50,6,-45,47,26,33,11,-8,-23,-77
-36,16,49,15,-48,42,25,33,9,-9,-24,-81
-39,12,49,20,-50,39,27,35,9,-7,-22,-78
-33,13,44,15,-43,37,29,37,13,-6,-19,-79
-32,18,47,12,-44,41,30,38,14,-4,-17,-78
-21,13,33,7,-30,29,26,38,15,-1,-15,-76
-37,28,61,10,-55,56,29,43,20,3,-10,-70
-40,16,53,18,-52,45,28,40,18,2,-10,-69
-32,6,37,19,-39,28,21,32,14,-3,-14,-76
-52,6,57,32,-61,41,28,40,18,1,-13,-70
-25,13,37,10,-35,32,22,34,14,-1,-16,-78
-22,19,38,5,-33,36,27,42,17,-1,-14,-73
-25,18,40,7,-37,36,26,39,17,-1,-16,-74
-30,7,36,17,-37,28,27,39,14,-2,-17,-77
-34,12,44,17,-44,36,32,45,19,-1,-14,-74
-41,12,51,21,-52,40,30,40,17,0,-13,-77
-36,13,47,17,-47,38,28,43,19,2,-14,-73
-42,12,52,22,-53,41,26,38,21,3,-10,-72
-41,19,57,17,-55,49,28,44,20,4,-9,-72
-27,18,42,9,-39,38,25,37,17,1,-13,-74
-27,9,34,13,-34,28,25,38,19,0,-16,-77
-22,22,41,3,-35,39,28,42,24,3,-13,-73
-19,21,37,2,-31,36,30,42,24,3,-11,-70
-34,18,49,13,-47,43,27,40,22,2,-12,-73
-27,18,42,9,-39,38,27,40,21,2,-11,-73
-34,10,43,17,-44,34,25,41,21,4,-11,-75
-31,9,38,16,-39,30,22,38,23,5,-9,-76
-43,-2,42,30,-48,27,24,35,22,3,-11,-79
-27,1,28,17,-31,20,21,40,21,2,-13,-84
-14,30,39,-6,-30,43,25,38,26,5,-13,-80
-22,30,47,-1,-39,48,29,42,30,8,-11,-77
-31,16,44,12,-42,38,26,39,30,10,-9,-75
-23,17,37,7,-33,34,23,38,27,8,-12,-77
-29,9,37,15,-37,29,28,43,30,9,-7,-71
-13,17,27,0,-22,27,27,46,29,10,-8,-71
-17,16,30,3,-26,29,26,48,30,9,-6,-70
-19,10,28,8,-26,24,25,45,31,10,-5,-71
-18,20,34,1,-29,34,26,46,33,11,-3,-69
-15,20,32,0,-26,32,22,43,34,12,-1,-69
-33,18,48,13,-45,42,24,48,36,14,-1,-68
-22,25,43,1,-37,43,21,47,36,15,-1,-69
-14,21,32,-1,-26,32,20,46,32,11,-5,-72
-8,23,27,-6,-20,30,17,42,36,11,-7,-78
-21,29,45,-1,-37,46,22,49,41,18,-1,-68
-8,24,28,-7,-20,32,19,42,35,12,-5,-73
-18,16,32,4,-28,30,20,41,37,14,-4,-72
-17,12,27,5,-24,24,15,44,37,13,-4,-70
-25,10,34,11,-33,28,17,49,40,16,0,-66
-5,21,22,-7,-15,26,14,49,41,18,0,-66
-9,26,31,-7,-22,34,16,48,43,19,3,-63
-4,39,37,-18,-23,46,24,55,49,26,10,-54
-1,36,31,-19,-18,40,20,54,47,25,10,-57
5,36,26,-22,-12,37,19,46,47,24,8,-59
-6,34,34,-14,-22,42,19,54,51,28,12,-58
-5,33,32,-14,-20,40,21,57,55,31,16,-55
4,48,37,-28,-19,51,17,56,56,32,16,-52
4,41,31,-24,-15,43,15,55,54,32,18,-54
11,34,18,-25,-4,31,13,56,56,32,16,-50
22,39,11,-35,7,29,11,55,59,34,15,-50
20,38,12,-33,5,29,12,58,62,37,20,-48
2,34,27,-19,-14,37,16,64,68,41,26,-41
14,38,18,-29,-2,33,12,62,70,43,26,-41
22,44,15,-38,5,34,10,60,68,42,28,-37
14,47,26,-34,-7,43,11,70,74,49,35,-30
7,45,31,-29,-13,46,12,73,79,54,38,-26
43,58,5,-59,22,35,4,71,80,53,35,-31
33,58,15,-52,11,42,2,71,83,56,41,-28
43,64,10,-62,19,42,4,75,88,62,43,-21
53,68,4,-70,27,40,4,75,90,63,44,-24
41,74,21,-66,11,55,9,81,96,68,48,-13
55,73,6,-75,28,44,2,78,96,68,51,-12
57,73,4,-76,30,43,1,78,100,71,53,-12
63,76,1,-82,35,43,-2,75,101,72,55,-12
59,84,11,-84,27,53,2,85,108,78,62,-4
58,76,6,-78,30,46,-1,84,108,80,64,-7
73,80,-6,-90,44,40,-4,87,112,85,68,2
70,82,-2,-90,41,44,-6,87,114,89,72,4
65,90,10,-91,31,56,-8,90,118,93,76,10
81,89,-7,-101,50,45,-11,90,118,92,75,9
89,92,-12,-108,57,43,-14,89,120,94,77,9
83,92,-6,-104,50,47,-10,95,124,97,83,12
97,97,-16,-116,63,43,-11,92,123,97,83,12
90,92,-14,-109,58,42,-14,90,124,97,81,11
95,93,-17,-112,63,40,-13,94,126,101,86,14
79,86,-7,-98,48,43,-14,95,131,106,91,21
78,87,-6,-98,47,45,-16,94,131,106,93,23
98,114,-3,-125,57,61,-14,100,133,112,99,32
100,105,-12,-122,63,50,-17,98,129,108,95,27
103,113,-10,-128,64,56,-20,96,129,108,96,28
106,103,-20,-125,70,44,-21,99,128,108,97,28
99,97,-18,-117,66,42,-21,98,130,108,98,25
103,106,-15,-125,66,49,-15,97,127,107,98,26
103,106,-15,-125,66,49,-15,96,125,105,95,27
96,100,-12,-116,61,47,-14,98,128,110,97,26
89,97,-8,-110,54,49,-14,92,123,105,95,24
95,103,-9,-118,58,51,-11,95,124,105,94,22
94,96,-14,-113,60,44,-15,88,118,102,90,19
86,105,2,-113,48,59,-8,92,121,106,95,23
90,100,-7,-113,55,51,-6,89,118,104,92,19
85,99,-3,-108,49,53,-7,92,114,97,85,10
64,93,13,-92,29,60,-6,87,111,97,87,11
79,89,-5,-100,47,47,-6,85,106,94,81,8
78,93,-1,-101,44,51,-10,78,100,86,74,-4
80,92,-4,-102,47,49,-9,75,96,84,70,-5
65,86,7,-89,33,52,-5,76,92,78,67,-6
51,88,22,-80,16,63,3,77,91,78,69,-4
49,76,15,-72,19,52,4,70,85,71,60,-12
32,68,25,-57,4,54,11,72,83,69,58,-16
34,59,16,-54,10,43,7,63,72,58,45,-26
43,68,13,-64,17,47,11,60,69,56,44,-29
23,56,23,-44,0,47,14,58,63,52,38,-34
21,50,21,-40,0,41,12,48,54,43,33,-43
10,48,31,-32,-12,47,16,54,54,40,30,-46
18,45,20,-36,-1,38,15,51,49,35,23,-54
12,45,26,-32,-7,43,20,51,49,36,21,-53
1,30,24,-16,-13,33,14,43,40,27,10,-63
-6,28,29,-11,-19,35,19,43,39,23,8,-65
-11,23,30,-5,-23,32,19,40,34,20,3,-68
-4,26,26,-11,-16,31,20,40,31,17,2,-68
-8,24,28,-7,-20,32,19,34,27,12,-3,-76
1,19,16,-10,-9,21,17,32,24,7,-5,-78
10,16,4,-14,3,11,14,23,15,3,-13,-86
-28,10,37,13,-37,30,25,33,18,5,-11,-83
-36,2,38,23,-41,27,27,33,19,5,-9,-81
-29,-7,24,23,-30,12,24,32,16,1,-15,-85
-23,-9,17,21,-23,6,25,33,12,-3,-17,-88
-21,4,25,12,-26,19,25,26,11,-5,-19,-90
-21,13,32,7,-30,29,28,29,12,-4,-19,-86
-29,2,32,19,-34,22,27,27,10,-7,-20,-89
-28,-1,28,19,-32,18,25,23,8,-7,-23,-89
-28,-10,21,25,-28,8,25,25,6,-10,-24,-93
-25,-7,20,21,-25,9,25,22,6,-12,-23,-96
-39,-11,31,33,-40,14,23,23,7,-8,-22,-93
-22,-2,21,17,-24,12,21,23,7,-11,-26,-97
-25,4,28,15,-30,21,26,28,6,-10,-21,-91
-34,-13,24,30,-33,9,24,21,3,-14,-24,-95
-42,-8,36,33,-44,20,31,26,5,-12,-23,-91
-18,-11,9,18,-15,0,26,21,1,-16,-26,-97
-40,-20,24,38,-36,5,29,21,3,-14,-24,-93
-23,-17,9,25,-18,-3,26,21,1,-17,-28,-97
-32,-13,22,29,-30,7,28,23,3,-14,-26,-93
-32,-11,23,27,-31,9,29,25,1,-17,-26,-97
-27,-8,21,23,-27,9,28,21,-4,-20,-28,-100
-33,-11,24,28,-32,10,26,21,-4,-18,-27,-99
-27,-11,18,24,-26,6,27,20,-4,-18,-28,-101
-33,-14,22,30,-31,7,30,25,0,-16,-28,-99
-34,-8,28,27,-35,14,29,21,0,-15,-27,-98
-19,-10,12,19,-18,2,23,17,-3,-16,-30,-98
-25,-14,14,25,-22,1,27,23,0,-17,-29,-98
-29,-14,18,27,-27,4,29,21,1,-15,-29,-97
-46,-31,21,48,-37,-3,26,21,-2,-17,-31,-101
-34,-22,17,35,-29,-1,27,21,-2,-20,-32,-99
-32,-19,17,32,-27,1,26,21,-3,-20,-30,-99
-34,-23,16,36,-28,-3,27,21,0,-18,-27,-98
-29,-17,16,29,-26,1,27,21,0,-17,-27,-97
-18,-11,9,18,-15,0,24,18,-2,-17,-30,-99
-34,-13,24,30,-33,9,28,25,0,-15,-27,-93
-24,-16,12,25,-20,-1,26,20,-1,-17,-28,-97
-16,-13,6,18,-12,-3,25,19,-4,-18,-31,-98
-20,-14,9,21,-16,-2,23,18,-3,-17,-29,-98
-42,-19,27,39,-39,7,26,25,2,-15,-26,-93
-37,-8,31,29,-38,16,30,23,2,-15,-26,-91
-32,-17,18,31,-28,3,27,18,-2,-18,-29,-93
-23,-16,11,25,-19,-2,26,15,-4,-20,-29,-96
-42,-16,29,37,-40,11,28,21,-1,-17,-26,-89
-30,-14,19,28,-28,5,30,20,-1,-17,-26,-93
-39,-19,24,37,-36,5,27,18,1,-16,-26,-93
-33,-17,19,31,-30,3,22,17,-2,-18,-28,-95
-31,-16,18,29,-28,3,25,19,-2,-18,-26,-93
-16,-22,-2,23,-8,-13,21,13,-3,-20,-30,-96
-37,-16,24,33,-35,7,26,21,2,-14,-24,-90
-33,-4,31,25,-36,18,25,20,3,-14,-26,-87
-18,7,24,9,-24,20,24,17,3,-14,-27,-90
-27,-7,22,22,-27,11,26,17,3,-14,-27,-89
-25,-2,24,18,-28,15,27,20,2,-16,-28,-90
-33,-16,21,31,-31,5,26,18,-1,-18,-31,-93
-23,-5,19,18,-24,10,27,18,1,-17,-29,-91
-24,-13,14,23,-22,2,26,16,-1,-19,-30,-90
-34,-10,27,29,-35,12,23,15,2,-14,-26,-89
-38,-14,27,33,-36,10,24,19,2,-15,-28,-88
-29,-2,28,21,-32,18,25,18,1,-14,-26,-89
-36,-10,28,29,-36,13,26,20,2,-14,-27,-89
-25,1,26,17,-28,18,29,21,3,-12,-24,-86
-29,-1,29,20,-33,19,27,16,3,-11,-22,-81
-26,-7,21,21,-26,10,28,19,3,-11,-24,-81
-19,6,24,10,-24,19,23,17,1,-14,-26,-86
-46,-7,41,35,-49,24,27,25,5,-10,-22,-78
-28,-5,24,21,-30,13,24,21,4,-11,-23,-80
-29,-7,24,23,-30,12,24,20,0,-13,-26,-82
-23,-5,19,18,-24,10,23,17,-1,-14,-26,-85
-22,-7,17,19,-22,7,22,18,0,-12,-26,-85
-18,-5,14,15,-18,7,22,15,-1,-15,-27,-88
-27,4,31,17,-32,22,25,15,3,-14,-24,-85
-35,-8,29,28,-36,15,24,16,3,-13,-24,-86
-33,-2,32,23,-36,20,26,17,4,-14,-24,-85
-29,-8,23,24,-30,11,23,13,-1,-18,-30,-90
-30,4,33,18,-35,24,29,16,1,-14,-26,-86
-26,16,39,9,-36,35,30,21,4,-9,-19,-79
-33,-2,32,23,-36,20,25,18,-1,-13,-26,-85
-27,-2,26,19,-30,16,24,14,0,-14,-26,-84
-27,-5,23,21,-28,13,21,13,-1,-16,-30,-88
-21,-1,21,15,-23,13,21,10,-1,-17,-31,-90
-26,1,27,17,-30,18,22,12,1,-16,-28,-90
-44,2,47,29,-51,32,28,19,5,-10,-21,-82
-32,-1,32,22,-36,21,22,14,3,-12,-24,-85
-17,-2,16,13,-18,9,19,8,-1,-17,-31,-89
-25,4,28,15,-30,21,23,16,1,-15,-26,-86
-31,1,32,21,-35,22,21,13,2,-16,-24,-82
-12,10,21,3,-18,19,17,11,-4,-17,-28,-86
-16,10,24,5,-22,22,21,14,-1,-14,-24,-82
-37,-1,37,25,-41,24,25,16,1,-11,-24,-79
-25,4,28,15,-30,21,21,8,-2,-15,-27,-86
-29,6,34,17,-36,26,23,8,-3,-15,-27,-86
-35,-11,27,30,-35,11,24,12,0,-15,-27,-81
-51,-2,49,35,-56,32,28,16,4,-12,-24,-77
-18,2,21,11,-22,15,19,8,1,-16,-28,-81
-21,-7,16,18,-20,7,19,10,-1,-19,-31,-84
-31,-7,26,25,-32,13,17,6,-4,-19,-33,-87
-27,-11,18,24,-26,6,15,6,-7,-21,-35,-87
-23,-2,22,17,-25,13,20,8,-4,-18,-32,-84
-24,2,27,15,-28,19,24,10,-1,-16,-28,-81
-28,-2,27,20,-31,17,24,6,-4,-19,-31,-82
-29,-4,27,22,-32,16,24,10,-4,-18,-30,-80
-25,-5,22,20,-27,11,25,8,-4,-18,-29,-79
-28,-7,23,23,-29,11,24,11,-6,-21,-31,-81
-25,-5,22,20,-27,11,26,8,-6,-20,-29,-79
-36,-4,33,26,-39,20,26,10,-6,-18,-29,-79
-30,-8,24,25,-31,11,24,8,-9,-21,-33,-85
-33,-8,27,27,-33,13,23,6,-7,-20,-33,-84
-24,2,27,15,-28,19,26,8,-5,-18,-29,-82
-24,-2,23,17,-27,14,24,6,-9,-20,-33,-81
-30,-14,19,28,-28,5,21,4,-9,-22,-33,-82
-15,1,16,10,-17,11,19,1,-12,-24,-36,-88
-39,-4,37,29,-43,22,26,9,-6,-19,-28,-77
-28,-11,19,25,-27,7,22,5,-8,-22,-33,-82
-37,-10,29,30,-37,14,24,8,-7,-21,-32,-79
-27,-5,23,21,-28,13,21,3,-7,-22,-35,-81
-33,-7,28,26,-35,15,22,6,-6,-20,-31,-79
-18,-4,16,15,-19,8,21,3,-9,-22,-36,-85
-22,-11,13,21,-20,3,19,3,-11,-25,-37,-85
-33,-11,24,28,-32,10,20,4,-10,-23,-36,-84
-37,-11,28,31,-37,13,22,3,-12,-25,-37,-84
-20,-2,19,15,-22,11,19,2,-12,-25,-37,-80
-33,-11,24,28,-32,10,21,6,-9,-25,-36,-82
-39,-5,36,29,-43,21,24,6,-8,-24,-37,-79
-42,-13,32,35,-41,14,23,1,-9,-23,-37,-79
-31,-10,23,26,-31,10,22,0,-12,-25,-40,-81
-33,-13,23,29,-32,8,19,-3,-13,-25,-40,-81
-25,-5,22,20,-27,11,21,-1,-9,-24,-38,-79
-27,-8,21,23,-27,9,18,-1,-12,-26,-39,-81
-33,-10,26,28,-33,11,21,-1,-12,-23,-37,-77
-31,-4,28,23,-33,17,21,3,-11,-23,-34,-75
-29,-10,22,25,-29,9,17,1,-14,-26,-37,-78
-29,-10,22,25,-29,9,19,0,-12,-22,-33,-73
-32,-11,23,27,-31,9,20,2,-12,-23,-34,-75
-46,-17,32,40,-44,11,19,2,-12,-22,-33,-75
-22,-14,11,23,-18,-1,14,-4,-18,-28,-40,-82
-29,-13,19,27,-27,5,17,-2,-14,-25,-38,-77
-38,-10,31,31,-39,15,23,3,-12,-23,-35,-75
-23,-11,14,21,-21,3,15,-5,-17,-25,-38,-79
-33,-20,17,33,-28,0,18,-6,-14,-25,-38,-80
-25,-17,12,27,-21,-2,14,-6,-16,-28,-42,-84
-32,-13,22,29,-30,7,18,-5,-12,-25,-39,-80
-29,-5,26,23,-31,14,22,-1,-12,-23,-35,-73
-34,-22,17,35,-29,-1,18,-2,-15,-26,-39,-77
-23,-11,14,21,-21,3,16,-4,-15,-27,-38,-79
-28,-7,23,23,-29,11,19,-3,-14,-25,-37,-77
-32,-10,24,27,-32,11,19,-3,-16,-26,-38,-79
-26,-4,23,19,-28,13,20,-6,-15,-25,-37,-77
-22,-7,17,19,-22,7,19,-6,-15,-25,-37,-77
-28,-14,17,27,-25,3,19,-5,-16,-26,-37,-77
-18,-8,12,17,-16,3,16,-8,-16,-28,-41,-82
-29,-10,22,25,-29,9,19,-8,-16,-25,-38,-76
-49,-13,38,39,-49,18,21,-1,-14,-25,-36,-75
-33,-8,27,27,-33,13,20,-6,-17,-27,-37,-73
-39,-20,23,37,-35,4,14,-11,-18,-30,-39,-76
-28,-19,13,29,-23,-2,19,-8,-18,-30,-40,-77
-28,-14,17,27,-25,3,17,-6,-17,-30,-41,-78
-29,-8,23,24,-30,11,18,-8,-17,-26,-38,-77
-34,-20,18,34,-30,1,16,-10,-17,-28,-40,-78
-26,-7,21,21,-26,10,16,-5,-15,-25,-37,-73
-25,-11,17,23,-24,5,16,-6,-16,-28,-40,-75
-28,-11,19,25,-27,7,15,-6,-17,-27,-38,-73
-23,-1,23,16,-26,15,20,-3,-12,-25,-37,-70
-31,-13,21,28,-29,7,20,-6,-15,-27,-41,-75
-43,-28,21,44,-36,-2,15,-10,-19,-31,-46,-80
-34,-16,22,32,-32,5,17,-9,-18,-30,-43,-77
-35,-17,22,33,-32,5,17,-8,-18,-27,-39,-75
-28,-17,14,28,-24,0,19,-10,-21,-32,-43,-77
-27,-17,13,27,-23,-1,18,-11,-21,-31,-46,-78
-31,-19,16,31,-26,0,16,-10,-20,-29,-41,-76
-42,-20,26,39,-38,6,18,-9,-20,-29,-41,-75
-26,-4,23,19,-28,13,19,-8,-17,-26,-37,-73
-32,-7,27,25,-33,14,19,-6,-15,-26,-37,-70
-24,-1,24,17,-27,16,22,-6,-17,-25,-37,-69
-14,2,17,9,-17,12,18,-8,-19,-26,-38,-73
-37,-8,31,29,-38,16,21,-5,-16,-23,-37,-68
-17,-14,6,19,-12,-4,16,-10,-21,-31,-44,-75
-42,-16,29,37,-40,11,21,-8,-18,-27,-39,-69
-26,-10,18,23,-25,7,21,-9,-20,-27,-40,-71
-22,-8,16,19,-21,6,19,-8,-19,-27,-41,-70
-27,-2,26,19,-30,16,20,-9,-15,-27,-40,-71
-26,-1,26,18,-29,17,20,-8,-15,-27,-41,-69
-28,-7,23,23,-29,11,26,-6,-14,-24,-37,-66
-28,-10,21,25,-28,8,25,-6,-14,-26,-38,-68
-33,-13,23,29,-32,8,22,-8,-18,-26,-40,-70
-34,-22,17,35,-29,-1,21,-6,-20,-28,-41,-70
-36,-28,13,39,-28,-7,17,-8,-23,-31,-48,-75
-22,-20,6,26,-15,-7,16,-12,-22,-33,-47,-75
-39,-19,24,37,-36,5,18,-9,-20,-29,-45,-71
-27,-14,16,26,-24,3,19,-8,-20,-29,-43,-70
-18,-7,13,16,-18,5,19,-9,-17,-28,-40,-66
-13,-7,8,13,-12,1,21,-5,-19,-30,-43,-72
-8,4,12,3,-11,10,24,-1,-16,-26,-37,-67
-27,-4,25,21,-30,14,27,5,-11,-20,-31,-58
-11,-7,6,11,-9,0,23,0,-12,-23,-37,-63
-8,9,16,1,-13,15,26,6,-7,-16,-30,-54
-20,-5,17,17,-21,8,25,7,-8,-18,-31,-55
-9,-4,7,9,-9,2,23,5,-7,-17,-31,-55
-4,6,9,1,-7,9,22,5,-5,-15,-31,-54
-8,2,11,5,-10,8,25,9,-2,-15,-28,-52
-9,-2,8,7,-10,4,25,10,-2,-13,-28,-52
-7,-4,4,7,-6,1,22,8,-7,-16,-31,-56
-6,-9,-1,9,-3,-5,20,6,-6,-16,-29,-56
-1,-1,1,1,-1,0,20,9,-3,-11,-24,-49
10,6,-5,-9,8,0,21,11,-2,-12,-26,-51
16,7,-10,-14,15,-2,16,5,-6,-13,-27,-52
10,18,6,-15,2,13,15,6,-2,-10,-23,-47
19,24,2,-25,10,14,14,4,-1,-11,-24,-46
7,10,2,-9,3,7,12,-6,-7,-14,-30,-51
-4,-6,-1,6,-2,-3,10,-10,-12,-20,-33,-52
-10,-9,3,11,-7,-3,11,-14,-15,-23,-36,-55
-10,-7,5,11,-8,-1,6,-17,-19,-25,-37,-55
-7,-5,3,7,-6,-1,6,-23,-21,-24,-36,-56
-6,-5,2,7,-5,-1,6,-23,-22,-25,-35,-54
-4,-10,-4,9,-1,-8,6,-21,-22,-26,-35,-52
-9,-21,-8,18,-1,-18,9,-20,-25,-26,-39,-58
-24,-37,-6,36,-10,-24,7,-21,-26,-29,-40,-57
-4,-26,-17,17,7,-26,9,-20,-27,-29,-42,-59
-11,-25,-10,21,-1,-20,6,-22,-26,-28,-40,-57
-22,-29,-2,31,-11,-18,8,-17,-24,-27,-40,-56
-13,-32,-13,27,0,-27,1,-25,-28,-30,-43,-60
-10,-31,-16,24,3,-28,4,-24,-28,-31,-45,-62
-13,-28,-10,25,-2,-22,5,-25,-27,-31,-42,-59
-18,-26,-4,27,-8,-17,6,-25,-29,-31,-44,-60
-11,-23,-8,20,-2,-18,7,-28,-30,-31,-44,-59
-27,-31,2,35,-16,-16,9,-25,-29,-30,-45,-60
-29,-23,11,33,-23,-6,14,-24,-27,-29,-43,-58
-37,-35,8,44,-26,-14,12,-28,-30,-33,-47,-64
-38,-37,8,46,-26,-16,10,-26,-31,-32,-47,-65
-29,-31,4,36,-19,-14,11,-25,-32,-34,-47,-62
-42,-42,8,50,-28,-18,17,-22,-30,-32,-45,-61
-29,-40,-3,41,-15,-24,14,-25,-33,-37,-51,-68
-42,-42,8,50,-28,-18,19,-26,-30,-33,-50,-66
-43,-40,11,50,-30,-15,15,-26,-34,-37,-52,-70
-48,-40,15,54,-35,-13,15,-26,-35,-35,-50,-65
-37,-29,13,41,-28,-7,14,-29,-35,-35,-49,-65
-46,-37,16,51,-35,-10,14,-30,-35,-34,-50,-65
-31,-26,10,35,-23,-8,16,-28,-34,-35,-48,-63
-34,-31,9,39,-24,-11,11,-33,-37,-35,-51,-67
-38,-23,20,39,-33,0,15,-32,-34,-33,-50,-63
-40,-28,17,42,-32,-4,13,-31,-33,-33,-48,-62
-43,-29,19,44,-35,-3,14,-29,-33,-33,-48,-61
-48,-31,22,48,-39,-3,12,-31,-35,-36,-51,-67
-40,-34,13,45,-30,-10,14,-31,-34,-34,-50,-62
-34,-22,17,35,-29,-1,15,-33,-36,-35,-51,-63
-40,-34,13,45,-30,-10,13,-36,-39,-38,-53,-65
-40,-37,11,47,-29,-13,14,-35,-37,-35,-52,-64
-32,-28,9,37,-23,-9,12,-37,-38,-37,-53,-67
-37,-29,13,41,-28,-7,13,-36,-36,-35,-51,-64
-49,-39,17,53,-37,-10,14,-34,-33,-34,-50,-62
-46,-28,23,45,-39,0,19,-30,-28,-30,-45,-56
-21,-23,2,27,-13,-11,13,-37,-35,-37,-53,-63
-29,-31,4,36,-19,-14,14,-37,-32,-35,-51,-64
-47,-24,27,44,-42,5,19,-30,-29,-30,-46,-53
-40,-34,12,45,-30,-11,13,-35,-34,-33,-48,-59
-38,-31,13,42,-29,-9,15,-35,-31,-31,-47,-56
-47,-34,19,49,-37,-6,13,-35,-32,-32,-47,-57
-38,-23,19,38,-32,0,13,-35,-32,-32,-47,-54
-38,-26,17,40,-31,-3,12,-35,-32,-32,-48,-54
-36,-28,14,39,-28,-6,14,-36,-31,-31,-46,-55
-33,-25,13,36,-26,-5,13,-36,-32,-32,-48,-53
-44,-23,25,42,-39,4,15,-31,-30,-28,-44,-52
-36,-29,12,40,-27,-8,13,-37,-32,-34,-50,-56
-34,-26,13,37,-27,-6,15,-36,-31,-33,-50,-57
-37,-22,19,37,-32,1,14,-35,-32,-32,-47,-56
-39,-23,21,39,-34,1,14,-34,-29,-31,-48,-54
-32,-22,15,34,-27,-3,14,-34,-28,-31,-47,-55
-40,-24,21,40,-34,1,12,-38,-30,-31,-47,-56
-56,-24,37,50,-52,11,19,-31,-25,-28,-43,-51
-55,-17,41,46,-54,18,26,-27,-25,-32,-48,-54
-57,-12,48,44,-59,26,37,-25,-26,-38,-55,-63
-70,-14,58,54,-72,31,49,-16,-30,-49,-69,-78
-94,-20,77,73,-96,40,67,0,-26,-51,-73,-85
-100,-16,87,75,-106,49,78,15,-18,-48,-74,-90
-105,-19,89,80,-110,49,81,20,-13,-46,-73,-91
-98,1,98,64,-110,66,77,11,-13,-38,-64,-81
-90,12,99,53,-107,73,67,9,-7,-25,-49,-65
-61,23,79,28,-79,65,56,5,-7,-10,-33,-49
-30,17,44,11,-42,38,28,-22,-8,11,-6,-22
16,2,-13,-11,16,-7,-11,-54,-21,29,17,3
58,-2,-59,-37,66,-40,-51,-86,-30,56,45,34
116,13,-104,-83,124,-62,-92,-114,-28,90,87,77
168,35,-137,-128,172,-73,-138,-147,-19,132,134,128
222,59,-171,-177,222,-83,-184,-186,-18,164,172,166
277,75,-212,-221,276,-102,-229,-215,-16,190,197,195
294,96,-212,-244,285,-90,-262,-253,-18,209,221,223
315,124,-211,-274,297,-74,-293,-287,-24,216,234,243
325,166,-185,-303,287,-32,-316,-306,-22,219,240,254
314,180,-164,-303,270,-11,-327,-323,-38,202,226,251
285,100,-200,-241,274,-79,-309,-309,-66,156,180,213
266,15,-251,-182,292,-161,-288,-295,-113,78,107,152
247,-50,-285,-135,300,-219,-264,-277,-174,-10,36,99
207,-133,-314,-63,294,-285,-230,-255,-222,-87,-38,37
133,-213,-306,29,248,-323,-193,-240,-277,-164,-109,-24
69,-252,-273,92,194,-323,-168,-243,-334,-225,-166,-77
44,-253,-250,109,166,-308,-154,-241,-332,-232,-180,-97
14,-256,-222,130,133,-291,-130,-221,-298,-217,-175,-102
-24,-242,-174,147,85,-250,-106,-202,-263,-196,-162,-102
-30,-222,-151,141,69,-225,-89,-176,-233,-178,-156,-105
-53,-199,-110,143,32,-184,-75,-153,-206,-161,-148,-108
-56,-162,-77,125,12,-142,-60,-132,-175,-136,-130,-98
-44,-129,-61,100,9,-112,-43,-111,-145,-113,-112,-88
-43,-109,-46,88,1,-91,-31,-90,-118,-95,-99,-79
-43,-91,-31,78,-7,-71,-16,-63,-93,-79,-89,-76
-32,-65,-21,57,-7,-50,-3,-45,-73,-65,-78,-65
-29,-57,-17,50,-7,-43,7,-28,-56,-54,-69,-61
-23,-42,-11,39,-7,-30,13,-22,-43,-45,-61,-54
-18,-18,3,22,-12,-8,18,-16,-34,-38,-50,-47
-31,-19,16,31,-26,0,23,-17,-28,-32,-43,-40
-33,-8,27,27,-33,13,26,-18,-23,-27,-38,-36
-25,-4,23,19,-27,13,26,-22,-21,-23,-32,-30
-19,9,27,9,-26,22,24,-23,-19,-23,-34,-28
-32,4,35,19,-37,26,23,-22,-15,-20,-30,-25
-30,-5,27,23,-32,15,21,-26,-17,-23,-35,-32
-17,7,23,8,-23,19,23,-25,-17,-20,-37,-35
-28,2,30,17,-32,22,23,-23,-14,-20,-36,-34
-35,-4,33,26,-39,20,25,-23,-14,-20,-38,-36
-24,-2,23,17,-27,14,24,-25,-17,-24,-41,-39
-26,1,27,17,-30,18,25,-24,-16,-24,-40,-37
-36,1,37,24,-41,25,27,-23,-14,-21,-37,-32
-32,6,37,19,-39,28,26,-21,-10,-19,-34,-30
-36,-1,36,25,-40,24,21,-23,-12,-21,-37,-31
-39,-6,35,29,-42,20,22,-25,-11,-18,-34,-29
-27,10,36,13,-35,29,24,-20,-9,-15,-33,-25
-23,12,33,9,-31,28,23,-24,-12,-18,-35,-29
-32,7,38,17,-39,30,28,-22,-8,-16,-29,-26
-21,10,29,9,-28,25,28,-23,-10,-18,-34,-29
-33,4,37,21,-39,26,25,-24,-9,-19,-36,-30
-30,-2,28,21,-33,18,26,-23,-10,-19,-36,-32
-28,6,33,16,-35,25,29,-18,-9,-17,-29,-27
-26,7,32,14,-32,25,29,-21,-9,-15,-31,-29
-28,13,39,11,-37,34,30,-18,-6,-12,-26,-23
-41,7,47,24,-49,35,31,-17,-5,-11,-26,-21
-33,6,38,19,-40,28,26,-21,-9,-15,-28,-25
-28,13,39,12,-38,33,27,-21,-7,-13,-28,-24
-17,7,23,8,-22,19,25,-23,-10,-17,-30,-26
-26,1,28,17,-30,19,23,-23,-9,-17,-33,-27
-5,-2,3,5,-5,1,19,-28,-14,-20,-37,-32
-4,4,8,1,-7,7,21,-28,-12,-20,-37,-35
-51,9,58,29,-61,44,31,-16,-2,-9,-23,-19
-33,9,40,17,-41,32,31,-20,-4,-11,-27,-26
-42,6,47,25,-50,34,29,-21,-4,-11,-26,-20
-33,6,38,19,-40,28,30,-21,-4,-12,-27,-24
-32,9,39,17,-40,31,26,-23,-7,-14,-28,-24
-19,16,33,5,-29,30,26,-22,-7,-13,-28,-26
-19,7,26,9,-25,21,25,-24,-8,-15,-29,-27
-23,9,31,11,-30,25,25,-23,-6,-13,-27,-23
-21,13,32,7,-30,28,29,-19,-5,-10,-26,-20
-35,1,37,23,-40,25,25,-20,-3,-10,-27,-21
-25,1,27,17,-29,18,26,-18,-4,-12,-27,-26
-21,7,27,11,-27,22,25,-18,-2,-8,-26,-21
-18,15,31,5,-27,28,24,-20,-2,-11,-26,-21
-23,10,32,11,-31,26,25,-17,-1,-11,-26,-18
-24,12,34,10,-33,29,25,-16,0,-8,-25,-19
-12,15,24,1,-20,24,22,-21,-2,-9,-25,-20
-11,9,18,3,-16,17,25,-21,-1,-11,-26,-21
-20,15,33,6,-30,30,25,-16,0,-7,-23,-17
-17,6,22,9,-22,18,24,-20,-1,-9,-26,-20
-16,9,23,6,-22,20,20,-20,-2,-9,-26,-20
-18,1,19,11,-20,13,20,-19,-1,-9,-24,-18
-14,7,21,6,-19,18,22,-13,3,-4,-21,-13
-17,13,28,5,-25,26,23,-13,5,-4,-20,-12
-17,7,23,8,-22,19,21,-15,5,-4,-20,-11
-10,17,24,-1,-19,25,24,-11,5,-3,-18,-11
-12,15,24,1,-20,24,27,-11,9,-1,-16,-8
-8,15,20,-2,-15,22,25,-12,9,-1,-20,-10
-6,19,22,-6,-15,25,24,-10,9,-1,-17,-10
-3,16,17,-6,-11,20,24,-12,9,-2,-19,-10
1,9,7,-4,-3,9,19,-13,7,-4,-20,-13
-12,15,24,1,-20,24,20,-11,11,-2,-19,-12
-8,9,16,1,-13,15,19,-11,10,-1,-20,-11
-12,19,28,-2,-22,29,22,-6,17,4,-13,-5
-12,16,26,0,-21,26,21,-8,14,1,-18,-7
-7,24,27,-8,-19,31,21,-8,16,2,-16,-4
1,30,25,-16,-14,33,22,-7,17,4,-12,2
5,29,20,-18,-9,29,21,-6,19,5,-12,2
-1,13,12,-6,-7,15,18,-6,20,4,-13,1
5,21,13,-13,-5,20,17,-3,20,5,-10,2
11,27,12,-21,0,23,15,-5,24,7,-9,8
9,21,9,-16,0,18,14,-2,24,9,-7,7
12,32,15,-25,-1,28,16,2,28,13,-3,10
10,33,18,-23,-5,30,21,12,32,16,2,15
16,39,17,-31,-1,33,17,5,33,16,-0,11
16,39,17,-31,-1,33,17,10,37,20,2,15
18,36,12,-31,3,28,14,6,36,19,-0,13
32,41,2,-42,17,24,13,8,36,20,-0,14
17,37,15,-31,1,30,14,10,41,22,1,16
31,44,6,-44,15,28,13,9,43,24,7,21
39,44,-2,-48,23,23,10,10,40,23,4,21
37,44,-1,-48,22,24,10,12,44,24,9,22
40,41,-6,-48,26,19,10,19,49,30,15,29
34,41,1,-44,19,23,11,26,55,36,21,36
32,37,-1,-41,18,20,8,26,57,35,21,36
46,58,2,-60,25,33,10,34,62,42,26,44
48,54,-2,-60,28,29,6,32,62,43,26,47
55,58,-7,-66,35,27,2,31,65,45,27,48
58,62,-6,-71,36,31,-0,32,68,46,30,48
65,70,-7,-80,41,34,0,34,71,49,33,53
73,76,-10,-88,47,36,0,34,74,51,37,58
61,69,-4,-76,36,36,4,38,78,54,42,61
71,67,-16,-82,49,26,0,37,78,55,42,60
80,68,-24,-89,58,22,-3,40,81,58,44,62
86,85,-16,-102,57,36,-0,43,85,62,48,68
85,90,-11,-104,54,43,3,51,88,70,55,75
93,88,-20,-108,64,36,-2,51,87,67,56,77
96,86,-24,-109,67,32,-6,46,87,69,56,76
86,83,-17,-101,58,34,-7,52,91,72,58,80
100,99,-18,-118,66,43,-6,54,94,73,63,85
98,89,-24,-112,69,34,-9,57,95,76,65,86
101,96,-21,-118,68,39,-11,56,96,77,67,89
106,99,-24,-122,73,38,-12,60,99,81,70,91
110,102,-25,-127,75,40,-13,58,100,82,72,92
108,92,-31,-120,78,30,-14,59,100,83,72,93
111,94,-32,-123,81,30,-15,64,101,85,74,97
110,85,-39,-118,83,21,-20,58,97,81,68,93
115,91,-39,-124,86,24,-14,62,101,85,72,95
122,99,-40,-133,91,28,-11,63,102,85,74,98
122,99,-40,-133,91,28,-13,57,98,84,72,93
118,99,-36,-130,87,30,-12,56,97,83,72,98
117,102,-32,-131,84,35,-15,55,98,86,75,97
117,97,-36,-129,86,30,-15,55,95,83,74,94
116,100,-32,-129,83,34,-15,56,96,85,75,97
103,91,-27,-116,73,32,-15,54,95,85,75,99
110,90,-35,-120,81,26,-15,50,92,79,72,93
115,102,-30,-130,81,36,-12,51,90,79,71,91
99,88,-26,-112,70,32,-11,47,85,78,67,86
101,90,-26,-114,72,32,-10,45,81,75,65,83
97,83,-27,-108,70,28,-8,44,78,74,63,81
88,81,-21,-101,61,31,-8,40,77,70,59,79
84,79,-19,-98,58,31,-8,33,68,64,50,71
79,73,-19,-91,55,28,-6,28,65,60,48,68
69,72,-10,-84,44,33,-1,29,62,58,45,65
73,65,-18,-82,51,24,-1,23,56,49,38,54
43,61,7,-60,20,38,6,26,58,51,39,58
54,58,-6,-66,34,28,7,22,53,46,34,52
49,59,1,-63,27,33,7,19,47,42,30,50
27,50,15,-44,7,37,12,16,45,40,29,48
36,51,7,-50,16,33,11,10,38,35,24,44
25,42,11,-39,8,30,11,6,31,30,18,36
23,33,5,-33,11,22,14,1,26,23,13,31
17,30,8,-27,5,22,18,-2,24,21,7,27
17,36,13,-30,2,29,17,-1,24,20,7,28
7,27,16,-19,-5,26,18,-3,19,14,2,19
13,27,10,-23,2,22,17,-6,12,8,-5,11
15,26,7,-23,5,19,15,-9,9,7,-7,8
-1,16,15,-7,-9,18,18,-9,9,7,-7,10
-13,9,21,5,-19,18,20,-12,6,3,-11,5
-19,9,27,9,-26,22,23,-13,4,3,-12,7
-10,12,20,1,-16,20,22,-19,2,-1,-16,2
-7,7,13,1,-11,12,21,-19,0,-3,-19,2
-14,-2,13,11,-15,7,22,-25,-5,-8,-24,-4
-12,-4,9,10,-12,4,21,-26,-6,-12,-27,-6
-12,1,13,7,-14,9,26,-24,-6,-11,-24,-4
-17,-1,17,12,-19,11,27,-23,-8,-11,-27,-6
-11,1,12,7,-12,8,27,-25,-7,-12,-25,-4
-12,-2,11,10,-13,5,27,-25,-9,-13,-26,-6
-22,-13,12,22,-19,1,26,-27,-12,-17,-30,-10
-30,-18,16,30,-26,1,25,-24,-12,-17,-30,-10
-31,-10,23,26,-31,10,27,-28,-12,-16,-28,-10
-27,-22,10,31,-21,-6,26,-30,-17,-18,-33,-16
-24,-22,7,29,-18,-8,25,-32,-19,-23,-37,-19
-24,-14,13,24,-21,1,29,-30,-13,-19,-34,-12
-19,-13,9,20,-16,-1,27,-28,-12,-19,-33,-13
-21,-10,13,19,-19,3,28,-27,-14,-21,-33,-10
-25,-8,19,21,-25,8,27,-25,-14,-20,-31,-9
-31,-19,16,31,-26,0,26,-25,-17,-22,-33,-11
-33,-25,13,36,-26,-5,24,-27,-18,-20,-33,-11
-28,-23,9,31,-21,-7,25,-27,-20,-23,-31,-9
-22,-19,7,25,-16,-6,26,-26,-17,-20,-30,-9
-28,-25,8,33,-20,-9,31,-23,-14,-16,-27,-7
-24,-20,8,27,-18,-6,31,-21,-14,-17,-26,-4
-19,-16,7,22,-15,-5,32,-25,-17,-23,-33,-11
-27,-14,16,26,-24,3,32,-25,-17,-20,-31,-9
-25,-20,9,28,-19,-5,30,-25,-19,-23,-33,-9
-23,-19,8,26,-18,-5,31,-25,-17,-22,-32,-8
-28,-22,11,31,-22,-5,31,-23,-18,-22,-33,-8
-24,-25,4,30,-16,-11,28,-25,-18,-23,-34,-9
-21,-19,6,25,-15,-7,28,-28,-21,-23,-34,-10
-22,-17,8,24,-17,-4,31,-25,-21,-21,-33,-7
-23,-29,-1,32,-13,-17,28,-27,-20,-23,-33,-8
-26,-25,6,31,-18,-10,29,-27,-20,-25,-35,-10
-12,-23,-7,21,-3,-18,26,-30,-21,-25,-38,-10
-32,-45,-5,46,-15,-28,25,-32,-24,-27,-37,-11
-23,-29,-1,32,-13,-17,28,-25,-22,-23,-34,-7
-26,-16,13,26,-22,0,28,-21,-18,-19,-30,-4
-33,-20,17,33,-28,0,29,-23,-18,-21,-30,-2
-22,-17,8,24,-17,-4,30,-21,-17,-20,-30,-1
-20,-17,7,23,-15,-5,28,-21,-17,-20,-33,-6
-27,-17,13,27,-23,-1,26,-26,-20,-23,-35,-8
-27,-26,6,33,-18,-11,29,-21,-17,-20,-31,-1
-18,-19,3,23,-12,-9,32,-18,-16,-20,-30,-1
-22,-20,6,26,-15,-7,28,-21,-17,-22,-32,-4
-22,-22,4,27,-15,-9,28,-21,-16,-23,-32,-6
-23,-17,9,25,-18,-3,28,-18,-15,-22,-31,-6
-25,-17,12,27,-21,-2,30,-19,-14,-19,-31,-2
-18,-22,1,25,-11,-12,27,-25,-16,-23,-35,-9
-11,-13,1,15,-6,-7,29,-21,-16,-21,-35,-8
-13,-11,4,15,-10,-3,30,-21,-14,-18,-31,-2
-22,-14,11,23,-18,-1,31,-21,-12,-17,-27,1
-28,-23,9,31,-21,-7,29,-23,-17,-21,-32,-1
-21,-13,11,21,-18,0,31,-21,-15,-20,-28,0
-15,-14,4,18,-11,-5,32,-23,-18,-20,-30,0
-32,-22,14,33,-26,-3,29,-21,-14,-21,-30,2
-18,-17,4,21,-12,-7,29,-23,-16,-21,-31,-1
-8,-7,3,9,-6,-2,31,-19,-14,-18,-26,4
-19,-11,11,19,-17,1,30,-19,-14,-18,-29,3
-28,-16,16,28,-25,1,31,-17,-12,-17,-26,4
-17,-7,12,15,-16,4,31,-19,-15,-18,-28,2
-16,-7,11,15,-15,3,32,-18,-14,-17,-28,3
-24,-13,14,23,-22,2,34,-21,-16,-19,-28,3
-31,-19,16,31,-26,0,34,-18,-12,-16,-26,5
-31,-16,18,29,-28,3,33,-17,-12,-16,-26,2
-28,-17,14,28,-24,0,31,-17,-12,-16,-24,4
-23,-13,13,23,-20,1,33,-18,-13,-17,-24,3
-18,-8,12,17,-16,3,31,-17,-14,-17,-24,4
-13,2,16,8,-16,11,34,-12,-10,-14,-22,8
-27,-11,18,24,-26,6,31,-18,-13,-16,-24,6
-25,-8,19,21,-25,8,34,-16,-12,-15,-26,3
-23,-11,14,21,-21,3,30,-20,-15,-16,-27,2
-19,-8,13,17,-18,4,33,-16,-12,-14,-24,5
-18,-2,17,13,-19,10,33,-17,-12,-16,-26,4
-19,-7,14,17,-19,5,31,-17,-13,-16,-26,4
-25,-11,17,23,-24,5,35,-14,-11,-16,-24,4
-14,-4,12,12,-15,5,33,-17,-13,-17,-27,2
-12,1,13,8,-14,9,33,-19,-13,-17,-26,5
-20,1,21,13,-23,14,35,-15,-11,-14,-22,5
-22,-4,19,17,-23,11,32,-17,-12,-15,-24,3
-17,-7,12,15,-16,4,30,-17,-15,-17,-27,0
-21,-1,21,15,-23,13,31,-15,-12,-16,-24,5
-12,1,13,8,-14,9,33,-17,-15,-16,-26,3
-19,-2,18,14,-21,11,34,-14,-14,-14,-26,4
-19,-10,12,19,-18,2,31,-16,-19,-20,-29,1
-23,-7,18,19,-23,8,35,-12,-12,-14,-24,8
-19,-10,12,19,-18,2,31,-15,-14,-17,-27,4
-12,4,16,7,-15,12,35,-13,-14,-15,-26,6
-24,-13,14,23,-22,2,33,-13,-15,-17,-26,4
-23,-11,14,21,-21,3,32,-15,-14,-16,-24,6
-12,-1,12,9,-13,7,36,-10,-14,-16,-24,5
-10,-2,9,8,-11,5,35,-13,-13,-16,-26,5
-24,-13,14,23,-22,2,33,-13,-14,-18,-26,3
-34,-16,22,32,-32,5,35,-15,-13,-17,-24,5
-6,-7,1,8,-3,-3,31,-19,-16,-20,-29,1
-11,-7,6,11,-9,0,32,-19,-16,-19,-29,3
-19,-4,17,15,-20,9,37,-12,-10,-14,-22,11
-28,-20,12,30,-22,-3,32,-16,-14,-17,-26,2
-28,-22,11,31,-22,-5,33,-17,-16,-20,-30,3
-21,-16,8,23,-16,-3,36,-13,-15,-19,-26,4
-16,-10,8,16,-14,0,35,-12,-16,-19,-27,3
-13,-10,6,15,-11,-2,35,-14,-17,-19,-29,3
-28,-25,8,33,-20,-9,32,-15,-17,-22,-30,3
-19,-19,4,23,-13,-8,31,-15,-18,-21,-31,-1
-11,-10,3,13,-8,-3,35,-13,-16,-20,-31,1
-23,-8,17,20,-22,7,34,-13,-14,-20,-26,4
-20,-11,12,20,-18,1,36,-13,-14,-20,-28,5
-13,-2,12,10,-14,7,36,-16,-17,-21,-29,8
-23,-10,16,21,-22,5,36,-17,-17,-20,-28,8
-27,-19,12,29,-22,-3,31,-16,-20,-22,-28,4
-28,-17,14,28,-24,0,34,-15,-20,-22,-26,11
-14,-17,1,19,-9,-9,31,-18,-22,-23,-30,6
-34,-19,19,33,-30,2,34,-12,-18,-21,-26,10
-16,-16,3,19,-11,-7,31,-17,-21,-23,-27,5
-19,-7,14,17,-19,5,37,-12,-18,-20,-24,13
-19,-10,12,19,-18,2,36,-12,-18,-19,-24,11
-10,-16,-3,15,-4,-11,32,-17,-20,-24,-28,6
-11,-16,-2,16,-5,-10,35,-12,-20,-20,-27,10
-20,-20,4,25,-14,-9,34,-15,-17,-19,-27,11
-32,-19,17,32,-27,1,37,-12,-15,-18,-28,14
-18,-13,8,19,-15,-2,35,-16,-18,-21,-30,8
-19,-11,11,19,-17,1,33,-16,-21,-23,-31,8
-29,-16,17,29,-26,2,38,-10,-18,-19,-26,15
-19,-17,6,23,-14,-6,41,-12,-18,-20,-24,17
-17,-13,7,19,-13,-3,36,-17,-24,-25,-31,10
-23,-20,7,27,-16,-7,37,-14,-22,-22,-27,12
-22,-16,9,23,-18,-3,38,-13,-19,-23,-28,11
-17,-11,8,17,-14,-1,36,-15,-20,-23,-28,13
-23,-16,11,25,-19,-2,37,-13,-20,-22,-27,12
-27,-20,11,29,-21,-4,36,-14,-21,-23,-30,10
-18,-11,9,18,-15,0,37,-14,-22,-22,-29,12
-22,-13,12,22,-19,1,37,-16,-21,-23,-29,11
-17,-13,7,19,-13,-3,37,-14,-20,-22,-29,13
-16,-10,8,16,-14,0,37,-14,-19,-23,-29,14
-28,-19,13,29,-23,-2,38,-13,-20,-24,-30,13
-25,-14,14,25,-22,1,39,-12,-20,-22,-32,10
-29,-22,12,32,-23,-5,36,-15,-22,-24,-31,10
-28,-22,11,31,-22,-5,38,-15,-22,-23,-33,8
-26,-19,11,28,-20,-3,34,-16,-22,-23,-32,8
-34,-23,16,36,-28,-3,36,-13,-19,-23,-29,12
-18,-13,8,19,-15,-2,33,-14,-21,-24,-31,12
-14,-16,2,19,-9,-8,36,-11,-17,-20,-26,15
-32,-28,9,37,-23,-9,34,-14,-22,-25,-31,8
-26,-22,8,29,-19,-7,36,-15,-22,-24,-32,8
-19,-17,6,23,-14,-6,35,-18,-22,-25,-33,8
-27,-22,9,30,-20,-6,35,-13,-20,-24,-29,11
-27,-20,11,29,-21,-4,39,-12,-18,-24,-29,13
-21,-25,1,28,-12,-13,35,-17,-23,-27,-33,6
-28,-25,8,33,-20,-9,36,-16,-22,-27,-33,8
-34,-25,14,37,-27,-5,37,-14,-20,-24,-31,10
-28,-20,12,30,-22,-3,38,-13,-21,-24,-31,11
-19,-19,4,23,-13,-8,36,-11,-22,-25,-30,10
-29,-29,6,36,-20,-13,36,-12,-22,-25,-31,8
-19,-20,3,24,-12,-9,35,-14,-22,-26,-30,10
-27,-22,9,30,-20,-6,36,-13,-22,-25,-31,8
-28,-19,13,29,-23,-2,39,-9,-20,-23,-28,13
-21,-25,1,28,-12,-13,38,-12,-22,-26,-31,8
-16,-20,-1,22,-9,-11,38,-13,-24,-26,-33,6
-8,-20,-8,17,0,-17,36,-14,-24,-27,-34,4
-22,-26,1,29,-12,-14,37,-14,-24,-27,-35,4
-35,-23,17,37,-30,-2,42,-8,-20,-23,-30,12
-36,-19,21,35,-32,3,41,-8,-19,-22,-29,13
-47,-25,27,45,-41,4,41,-8,-19,-21,-27,14
-19,-11,11,19,-17,1,36,-9,-22,-25,-31,11
-18,-2,17,13,-19,10,38,-8,-19,-24,-26,12
-16,-10,8,16,-14,0,36,-8,-24,-25,-27,11
-19,-13,9,20,-16,-1,36,-10,-22,-24,-29,8
-18,-13,8,19,-15,-2,36,-9,-23,-27,-30,8
-32,-28,9,37,-23,-9,37,-10,-21,-24,-29,11
-29,-23,11,33,-23,-6,39,-9,-22,-25,-30,8
-28,-22,11,31,-22,-5,40,-8,-21,-20,-27,13
-19,-22,2,25,-12,-11,39,-8,-24,-26,-31,8
-32,-22,14,33,-26,-3,39,-8,-24,-23,-28,12
-34,-28,12,39,-26,-8,41,-5,-22,-24,-29,12
-17,-20,1,23,-10,-11,37,-8,-22,-27,-30,10
-27,-32,1,36,-15,-18,39,-6,-21,-24,-31,11
-6,-23,-13,17,4,-22,38,-8,-22,-26,-32,8
-13,-26,-8,23,-3,-20,41,-6,-20,-24,-30,12
-29,-23,11,33,-23,-6,38,-6,-20,-23,-30,12
-23,-25,3,29,-15,-12,36,-6,-22,-23,-31,8
-26,-28,3,33,-16,-13,36,-8,-23,-25,-28,10
-21,-25,1,28,-12,-13,38,-6,-22,-24,-30,8
-20,-28,-3,29,-10,-18,38,-6,-24,-25,-29,8
-16,-32,-11,29,-3,-25,38,-8,-24,-28,-33,4
-36,-28,13,39,-28,-7,41,-3,-19,-23,-28,12
-38,-28,16,41,-31,-5,41,-6,-20,-23,-27,8
-31,-28,8,36,-22,-10,41,-2,-21,-25,-30,8
-29,-22,12,32,-23,-5,38,-4,-21,-23,-27,10
-31,-37,1,41,-18,-20,34,-8,-24,-26,-33,5
-32,-26,11,36,-24,-7,38,-5,-24,-25,-30,8
-29,-19,14,30,-24,-1,40,-4,-22,-25,-29,10
-32,-32,6,39,-21,-14,35,-8,-23,-25,-27,10
-29,-28,7,35,-20,-11,41,-3,-22,-21,-26,12
-24,-28,2,32,-15,-15,39,-6,-23,-23,-27,11
-13,-16,1,18,-8,-9,41,-3,-22,-23,-26,12
-31,-25,11,35,-23,-7,44,-3,-21,-21,-26,14
-19,-26,-2,27,-10,-16,43,-3,-23,-23,-27,11
-22,-22,4,27,-15,-9,43,1,-22,-22,-24,13
-26,-25,6,31,-18,-10,44,0,-21,-21,-26,14
-18,-20,2,23,-11,-10,45,0,-21,-21,-26,14
-28,-25,8,33,-20,-9,41,-3,-23,-22,-27,12
-17,-19,2,22,-10,-9,41,-5,-23,-23,-28,12
-17,-26,-5,26,-7,-18,41,-6,-26,-25,-32,8
-47,-28,24,46,-40,1,49,1,-20,-20,-24,15
-39,-28,17,42,-32,-5,48,-1,-21,-22,-26,15
-39,-32,13,44,-30,-9,46,1,-23,-24,-29,12
-24,-28,2,32,-15,-15,47,2,-21,-23,-30,15
-13,-22,-5,21,-5,-16,44,1,-22,-24,-29,15
-17,-22,-1,23,-9,-13,44,3,-21,-22,-31,14
-17,-22,-1,24,-10,-13,46,6,-19,-21,-27,20
-19,-26,-2,27,-10,-16,46,6,-17,-20,-27,20
-16,-23,-3,23,-7,-15,50,11,-14,-18,-24,20
-11,-10,3,13,-8,-3,50,15,-11,-14,-20,25
5,-5,-8,1,7,-8,46,13,-12,-14,-21,22
-11,-14,-1,15,-6,-8,51,17,-10,-14,-23,22
3,-10,-11,4,7,-12,50,19,-9,-13,-21,22
-11,-6,7,11,-10,1,52,23,-7,-12,-17,26
-2,-4,-1,3,-1,-3,52,21,-9,-11,-16,27
3,-10,-11,4,7,-12,50,21,-7,-11,-17,25
-2,-22,-16,14,7,-23,53,27,-5,-10,-17,27
-8,-16,-5,15,-2,-12,50,26,-5,-9,-17,29
17,-10,-24,-5,23,-22,46,25,-7,-11,-15,30
7,-5,-11,-1,10,-9,50,32,-2,-6,-11,37
-2,-7,-3,5,1,-6,52,35,-0,-3,-6,40
12,-4,-15,-5,15,-11,45,28,-4,-7,-11,36
7,-1,-7,-3,8,-5,51,36,-1,-4,-9,41
11,2,-9,-8,11,-4,47,29,1,-3,-7,44
14,-13,-24,-1,22,-23,41,20,-9,-13,-17,31
3,-12,-12,5,9,-14,38,17,-9,-10,-16,35
-2,-12,-7,8,3,-11,37,12,-9,-11,-17,35
-3,-17,-11,12,4,-17,32,7,-15,-14,-18,34
-9,-32,-17,24,5,-30,28,-2,-21,-19,-22,31
-11,-32,-16,25,3,-28,30,0,-21,-18,-21,32
-12,-34,-16,27,2,-30,28,-4,-23,-21,-24,29
-10,-40,-22,29,7,-37,30,-4,-25,-23,-26,28
3,-31,-27,15,16,-35,36,5,-22,-20,-26,28
-2,-43,-33,25,18,-46,35,4,-24,-23,-27,26
6,-31,-31,13,21,-38,35,3,-27,-27,-30,23
-1,-43,-35,25,19,-47,33,2,-24,-25,-28,23
-18,-47,-20,38,1,-39,36,6,-18,-21,-26,28
-1,-34,-27,20,14,-37,34,3,-22,-23,-29,25
3,-34,-31,17,19,-39,33,2,-26,-26,-31,22
-16,-37,-14,31,-2,-30,35,3,-24,-22,-26,30
-9,-37,-22,27,7,-35,36,4,-25,-24,-26,28
-15,-43,-21,34,3,-38,37,2,-29,-26,-31,25
-19,-49,-21,40,1,-41,37,0,-32,-28,-33,21
-17,-54,-27,41,6,-48,35,0,-32,-32,-36,16
-27,-43,-8,42,-11,-30,42,6,-28,-27,-27,24
-30,-45,-6,44,-14,-29,41,6,-25,-27,-31,19
-28,-43,-7,42,-12,-28,43,6,-26,-29,-33,19
-38,-51,-3,53,-20,-30,45,6,-26,-30,-34,16
-42,-54,-2,57,-23,-31,45,6,-27,-29,-35,15
-41,-46,4,52,-26,-23,46,6,-26,-29,-33,20
-36,-53,-7,53,-17,-34,40,-2,-29,-30,-36,19
-32,-42,-2,44,-17,-24,42,1,-30,-30,-34,18
-33,-42,-1,45,-19,-24,44,4,-29,-29,-33,20
-32,-47,-6,47,-15,-30,40,-2,-32,-32,-36,16
-30,-46,-7,45,-13,-30,39,-2,-32,-32,-37,17
-41,-48,2,53,-24,-25,39,0,-30,-30,-33,19
-38,-43,3,49,-23,-22,42,2,-29,-31,-33,21
-39,-57,-7,57,-18,-36,39,-3,-30,-32,-37,16
-32,-40,-1,44,-18,-23,41,2,-26,-30,-34,18
-37,-54,-7,54,-17,-34,37,-2,-29,-31,-38,12
-37,-51,-5,52,-18,-31,40,0,-27,-30,-34,16
-44,-51,3,57,-27,-26,46,3,-28,-28,-31,22
-32,-54,-12,51,-12,-38,44,0,-29,-31,-36,16
-38,-37,8,46,-26,-16,43,0,-27,-31,-33,20
-40,-48,2,53,-24,-26,42,1,-30,-30,-32,21
-44,-54,1,59,-26,-30,40,0,-30,-32,-33,19
-32,-42,-2,44,-17,-24,43,1,-28,-30,-31,20
-32,-54,-12,51,-12,-38,41,1,-30,-30,-32,20
-27,-51,-15,46,-7,-38,37,-2,-31,-33,-37,13
-56,-45,20,62,-43,-11,45,8,-24,-26,-29,21
-28,-45,-8,43,-11,-30,40,0,-28,-30,-34,16
-30,-45,-7,44,-13,-29,40,2,-27,-32,-34,19
-34,-52,-8,51,-15,-34,36,-1,-32,-32,-36,13
-31,-43,-5,44,-15,-27,37,2,-30,-33,-32,16
-39,-45,3,50,-24,-23,40,4,-27,-28,-28,25
-39,-43,4,49,-24,-21,40,3,-27,-28,-31,23
-38,-42,5,48,-24,-20,41,6,-25,-27,-28,25
-33,-39,2,43,-19,-20,41,6,-27,-26,-28,24
-27,-31,2,35,-16,-16,41,5,-24,-26,-27,26
-37,-37,7,45,-24,-16,43,7,-24,-24,-26,26
-33,-39,2,43,-19,-20,42,5,-25,-27,-28,22
-25,-37,-5,37,-12,-24,37,1,-28,-27,-29,19
-27,-29,3,34,-17,-14,41,6,-25,-26,-27,24
-35,-37,5,44,-22,-18,41,6,-24,-26,-27,24
-28,-31,3,36,-18,-16,46,8,-23,-24,-24,26
-57,-48,18,64,-43,-14,47,9,-22,-28,-31,16
-60,-33,33,58,-53,4,57,12,-22,-30,-34,14
-65,-23,46,56,-62,18,70,22,-20,-36,-40,4
-85,-16,72,65,-89,39,84,36,-20,-38,-45,-1
-105,-33,78,88,-103,34,99,54,-12,-38,-48,-7
-104,-26,82,83,-104,40,108,63,-3,-34,-45,-6
-98,-13,87,72,-104,51,106,55,-4,-33,-43,-4
-90,-4,87,62,-100,56,104,52,-4,-23,-32,9
-63,4,67,40,-73,47,97,50,-3,-13,-20,20
-24,7,31,13,-31,24,70,30,-3,5,-1,42
19,-6,-23,-9,24,-18,26,-7,-15,18,18,62
63,-19,-77,-30,79,-62,-15,-40,-24,39,42,90
115,-16,-126,-66,136,-94,-61,-68,-26,68,74,124
168,-2,-167,-108,189,-113,-108,-95,-18,103,114,169
238,25,-215,-169,255,-131,-162,-141,-11,135,152,206
277,39,-242,-203,293,-141,-202,-164,-5,164,185,246
314,62,-259,-239,323,-140,-238,-204,-5,186,206,271
337,88,-261,-268,337,-127,-277,-244,-9,194,222,291
365,136,-249,-312,346,-93,-300,-263,-7,205,236,309
366,160,-231,-327,337,-67,-317,-284,-14,197,231,314
342,97,-258,-276,338,-120,-310,-282,-45,157,191,278
303,9,-292,-203,336,-192,-290,-268,-86,89,125,224
275,-71,-330,-141,341,-261,-263,-248,-145,7,55,168
242,-136,-351,-84,335,-312,-232,-230,-203,-68,-11,115
172,-228,-357,11,299,-366,-193,-213,-254,-142,-85,49
100,-270,-319,81,237,-364,-165,-215,-315,-202,-137,1
54,-282,-283,118,191,-346,-147,-217,-334,-225,-163,-30
40,-268,-258,120,169,-322,-129,-204,-307,-215,-165,-40
4,-262,-217,140,125,-291,-102,-179,-273,-198,-154,-37
-8,-241,-188,136,102,-260,-83,-154,-241,-180,-143,-39
-28,-219,-151,138,69,-223,-60,-120,-209,-160,-135,-41
-37,-190,-118,127,46,-184,-41,-94,-174,-136,-117,-32
-33,-159,-97,109,36,-153,-24,-70,-144,-115,-102,-24
-41,-136,-71,102,17,-123,-9,-49,-119,-97,-89,-15
-27,-115,-67,81,22,-109,9,-19,-93,-79,-74,-6
-17,-88,-54,59,21,-85,24,2,-71,-65,-64,-0
-46,-71,-12,69,-19,-47,45,29,-47,-45,-45,20
-14,-49,-26,37,6,-45,49,37,-37,-40,-40,18
-3,-42,-31,25,15,-44,50,37,-30,-35,-36,20
-16,-39,-16,32,0,-32,52,33,-25,-32,-34,21
-26,-39,-6,39,-11,-25,53,34,-20,-27,-27,25
-12,-23,-7,21,-3,-18,51,27,-19,-24,-26,28
-27,-19,12,29,-22,-3,50,28,-13,-20,-22,33
-28,-19,13,29,-23,-2,50,29,-11,-18,-20,35
-33,-19,18,33,-29,1,51,30,-7,-14,-17,38
-26,-13,16,25,-23,3,53,33,-5,-14,-18,37
-17,-11,8,17,-14,-1,50,32,-6,-18,-25,32
-32,-19,17,32,-27,1,52,33,-7,-18,-23,32
-16,-26,-6,25,-6,-18,49,27,-12,-23,-28,25
-28,-18,14,29,-24,-1,58,35,-6,-18,-20,36
-33,-28,11,38,-25,-9,56,32,-6,-18,-22,29
-33,-13,23,29,-31,8,60,38,-1,-13,-16,37
-25,-18,11,27,-20,-3,53,30,-5,-17,-19,35
-22,-15,11,23,-19,-1,53,30,-2,-15,-18,36
-27,-4,24,20,-29,14,56,37,2,-9,-13,40
-27,-15,15,26,-24,2,51,31,-3,-16,-19,34
-28,-14,17,27,-25,3,52,34,-3,-13,-16,36
-22,-15,11,23,-19,-1,52,33,-4,-14,-19,35
-17,-13,7,19,-13,-3,52,34,-5,-18,-18,31
-31,-18,17,31,-27,1,57,37,-3,-14,-16,36
-25,-19,10,27,-19,-4,56,36,-2,-14,-17,34
-27,-15,16,27,-24,2,57,38,1,-13,-14,40
-9,1,11,6,-11,7,58,39,3,-8,-11,42
-10,-1,10,7,-11,6,59,41,3,-9,-14,42
-17,-6,13,15,-17,5,57,41,4,-8,-10,43
-15,-6,11,13,-14,4,56,38,1,-11,-13,40
-23,-9,17,21,-23,6,53,40,2,-9,-11,40
-6,-1,6,5,-6,3,54,38,1,-12,-14,39
-11,-10,3,13,-8,-3,52,37,-1,-14,-17,36
-33,-13,23,29,-31,8,54,39,3,-11,-13,38
-16,-9,10,16,-15,1,51,37,-1,-12,-14,35
-17,-9,11,17,-16,2,52,41,4,-7,-11,40
-27,-18,13,28,-23,-1,51,39,1,-9,-11,38
-23,-19,8,26,-18,-5,49,37,2,-9,-13,35
-10,-12,1,13,-6,-6,52,41,2,-7,-11,40
-1,-6,-4,4,2,-5,52,40,5,-6,-10,40
-19,-1,19,13,-22,12,56,48,9,-4,-6,45
-15,-9,8,15,-13,1,53,43,8,-6,-7,43
-9,-6,5,9,-7,0,54,41,4,-8,-10,39
-3,4,7,1,-6,7,52,43,4,-9,-11,39
-6,-7,1,8,-3,-3,54,45,7,-6,-9,40
-17,-9,11,17,-16,2,52,41,7,-6,-11,37
-23,-11,14,21,-21,3,53,43,6,-6,-13,37
-11,-9,5,13,-9,-2,51,43,5,-6,-12,36
-11,-17,-3,17,-5,-11,50,42,6,-7,-13,36
-16,-11,7,17,-13,-1,55,47,10,-5,-9,40
-21,-10,13,19,-19,3,50,46,10,-4,-7,42
-16,-12,7,17,-12,-2,52,50,11,-4,-6,42
-2,-6,-2,5,0,-5,47,48,8,-6,-8,42
-18,-19,3,23,-12,-9,45,46,6,-8,-9,39
-6,-8,-1,9,-3,-5,45,48,9,-5,-6,40
-1,-13,-10,8,5,-13,46,47,11,-5,-7,41
3,-2,-5,0,4,-4,46,47,12,-4,-8,40
9,6,-4,-8,7,1,50,52,14,-4,-3,45
-22,-2,21,16,-24,13,55,58,18,3,3,52
-6,-10,-2,9,-2,-7,43,49,11,-4,-7,42
-14,-17,1,19,-9,-9,43,48,12,-5,-7,43
-21,-15,9,22,-17,-2,49,57,19,0,-3,44
-11,-13,1,15,-6,-7,45,56,18,-3,-4,43
-6,-8,-1,9,-3,-5,45,55,16,-1,-3,45
-14,-13,4,17,-10,-5,46,55,18,0,-3,44
-10,-14,-1,15,-5,-9,47,55,19,-2,-4,44
-3,4,7,1,-5,6,48,57,23,3,0,47
3,6,2,-4,1,5,46,58,24,4,2,51
6,6,-1,-6,3,3,46,61,25,5,2,52
17,9,-9,-15,15,-1,47,57,24,4,1,52
14,6,-9,-11,13,-3,42,57,24,4,1,51
12,1,-11,-7,12,-7,42,58,26,4,1,51
1,1,1,-1,1,1,46,64,27,8,6,55
17,7,-11,-15,16,-3,44,65,30,9,6,58
13,-4,-16,-6,16,-12,41,66,32,8,6,57
8,-4,-11,-3,10,-9,43,71,36,13,11,64
10,6,-5,-9,8,0,44,73,41,16,17,69
-4,10,13,-2,-10,14,48,83,45,21,23,78
28,2,-26,-19,31,-16,39,75,40,17,14,67
20,1,-19,-13,22,-12,35,73,37,15,14,65
19,-1,-19,-11,22,-13,36,75,40,18,16,69
23,6,-18,-17,23,-9,36,80,45,23,18,72
24,17,-10,-24,19,3,37,84,49,25,23,78
36,17,-22,-32,32,-5,35,84,49,25,22,79
31,15,-18,-27,28,-4,37,87,53,28,24,78
35,20,-18,-33,30,-1,35,92,57,33,29,88
49,32,-22,-48,40,3,32,94,60,32,32,91
47,30,-22,-46,39,2,31,96,61,35,33,91
55,33,-27,-53,46,1,27,95,62,37,36,94
68,36,-37,-63,59,-5,29,102,65,40,39,97
69,39,-36,-66,59,-2,28,104,67,39,42,97
68,38,-36,-64,58,-3,23,104,68,42,42,99
69,38,-37,-65,60,-4,23,106,73,46,44,102
73,48,-32,-73,59,5,24,110,77,49,50,110
88,50,-46,-84,75,-3,22,111,77,49,50,109
70,53,-26,-74,54,12,26,118,85,56,58,121
93,51,-50,-88,81,-5,22,115,81,53,52,114
92,53,-47,-88,78,-2,21,118,85,56,58,120
76,54,-31,-79,60,9,24,123,91,62,65,129
109,67,-53,-107,91,1,17,121,87,61,63,124
111,70,-52,-110,92,3,15,123,93,65,67,128
102,67,-46,-102,83,6,11,124,93,67,68,129
93,62,-41,-94,75,7,15,128,95,70,72,133
111,76,-47,-113,89,10,12,130,98,73,75,140
107,62,-54,-103,91,-2,11,130,99,73,76,139
114,70,-56,-112,96,1,12,133,102,75,82,143
123,78,-58,-122,102,4,11,132,100,75,84,143
120,70,-62,-116,103,-3,7,132,100,75,83,141
114,64,-61,-109,99,-5,5,128,100,76,87,141
116,67,-60,-112,99,-3,6,130,101,78,90,143
100,59,-50,-97,84,-1,7,133,105,82,97,149
122,79,-56,-122,100,6,7,133,105,81,98,150
128,75,-66,-124,110,-3,4,135,102,78,98,147
120,74,-58,-118,100,2,5,135,100,79,102,151
123,79,-57,-123,102,5,5,135,103,83,106,154
115,76,-52,-116,94,7,6,134,102,82,104,155
135,83,-66,-133,114,2,2,129,97,78,102,149
122,73,-61,-119,103,-1,4,126,96,77,106,152
121,73,-60,-118,102,0,8,128,96,78,105,151
115,70,-57,-113,97,1,7,125,95,76,105,149
116,65,-62,-111,100,-5,6,120,91,72,100,143
106,64,-52,-103,89,0,10,118,93,77,104,145
99,64,-46,-99,82,5,14,118,91,75,101,142
103,69,-46,-104,84,7,10,113,85,70,94,133
102,58,-53,-97,87,-4,13,109,83,67,93,129
82,56,-36,-84,66,7,17,106,79,65,90,124
75,54,-29,-78,58,11,19,102,72,61,88,122
69,51,-26,-72,53,11,21,101,70,58,87,121
70,45,-32,-70,57,4,21,92,62,52,83,114
70,50,-28,-72,56,9,23,90,60,50,82,113
61,39,-28,-60,51,3,24,86,59,48,78,113
46,27,-23,-44,39,-1,25,82,52,42,72,102
34,18,-19,-31,30,-3,23,79,47,36,65,95
51,33,-23,-50,42,3,26,75,46,35,64,93
43,35,-14,-46,32,10,32,73,42,31,60,91
26,20,-9,-27,20,5,35,72,39,29,60,88
21,9,-13,-17,19,-4,36,68,33,23,53,82
30,-1,-30,-19,33,-20,31,59,25,15,47,73
7,4,-3,-6,6,1,41,64,29,20,53,81
13,2,-11,-9,14,-5,40,56,24,15,47,75
16,12,-6,-16,12,3,43,62,22,14,47,75
1,-1,-1,1,1,-1,41,54,18,8,42,69
8,-10,-16,1,13,-16,39,50,15,5,36,63
5,-14,-16,5,11,-18,40,47,11,0,33,57
-1,-21,-16,13,8,-22,41,49,9,-1,31,56
-13,-23,-6,22,-5,-17,41,48,7,-1,31,55
-12,-10,4,13,-9,-3,47,50,7,-1,31,57
-7,-14,-4,13,-2,-11,46,47,3,-6,27,54
-17,-28,-6,27,-7,-20,45,43,2,-8,23,52
-12,-22,-6,21,-4,-16,42,42,-1,-12,24,48
-6,-21,-11,16,2,-19,40,40,-3,-13,24,46
-17,-28,-6,27,-7,-20,45,41,-1,-12,23,46
-6,-36,-23,24,10,-36,41,37,-7,-16,20,40
1,-26,-22,15,12,-29,40,32,-8,-19,17,40
-16,-27,-6,26,-6,-19,42,34,-6,-15,21,44
-34,-34,7,42,-23,-15,48,44,0,-11,26,50
-12,-28,-11,24,-1,-23,43,38,-9,-15,20,41
-22,-34,-6,34,-10,-23,40,38,-9,-14,19,43
-21,-31,-5,31,-9,-20,42,40,-9,-14,21,44
-31,-37,1,41,-18,-20,44,40,-5,-12,24,46
-21,-35,-8,33,-7,-25,38,38,-7,-13,23,46
-21,-47,-17,39,-2,-37,38,33,-12,-19,16,40
-21,-45,-16,39,-3,-35,40,31,-13,-20,16,41
-16,-39,-16,32,0,-32,41,34,-11,-20,17,39
-34,-40,2,45,-20,-22,43,36,-9,-16,19,45
-26,-39,-6,39,-11,-25,46,38,-7,-17,21,44
-18,-37,-12,33,-3,-29,40,33,-15,-20,17,43
-26,-47,-12,42,-8,-34,41,35,-14,-20,19,41
-24,-45,-12,41,-7,-33,41,36,-14,-20,17,40
-23,-42,-11,39,-7,-30,42,36,-12,-18,18,40
-12,-32,-15,26,2,-28,41,37,-12,-16,21,45
-16,-34,-12,29,-2,-27,46,40,-9,-17,20,48
-7,-26,-15,19,5,-24,43,35,-10,-18,20,45
-4,-23,-15,16,6,-23,45,34,-11,-20,18,42
-16,-35,-13,30,-2,-28,42,33,-12,-20,20,41
-29,-42,-5,42,-14,-26,46,37,-8,-17,21,45
-12,-34,-16,27,2,-30,42,33,-12,-19,18,41
-9,-32,-17,24,5,-30,43,34,-14,-20,19,43
-17,-43,-18,35,1,-36,40,31,-15,-22,17,42
-16,-37,-15,31,-1,-30,39,31,-14,-20,20,44
5,-35,-33,17,21,-42,35,27,-19,-25,14,39
-47,-48,8,57,-31,-21,43,34,-10,-17,27,50
-21,-40,-12,36,-5,-30,41,32,-12,-20,23,45
-23,-42,-11,39,-7,-30,41,33,-12,-18,25,48
-8,-43,-27,29,11,-43,37,28,-16,-23,19,41
-8,-31,-17,23,5,-29,41,28,-11,-19,21,43
-21,-31,-5,31,-9,-20,48,37,-9,-17,25,51
-13,-31,-12,26,-1,-26,44,34,-9,-17,24,48
-18,-31,-7,29,-6,-22,43,37,-9,-15,23,48
-15,-31,-11,27,-2,-24,45,33,-10,-17,24,51
-16,-23,-3,23,-7,-15,46,38,-6,-13,29,56
-23,-47,-15,41,-5,-36,40,32,-11,-18,21,45
-13,-37,-17,29,2,-32,36,30,-12,-20,23,46
-8,-39,-23,27,9,-37,35,29,-12,-19,21,45
-26,-32,-1,35,-14,-18,42,36,-7,-13,30,55
-16,-26,-6,25,-6,-18,43,38,-5,-14,30,53
-7,-26,-15,19,5,-24,41,33,-8,-16,24,48
-16,-26,-6,25,-6,-18,42,35,-7,-14,27,52
-16,-28,-7,26,-5,-20,41,37,-5,-13,26,48
-19,-32,-7,31,-7,-23,44,35,-5,-14,26,50
-17,-32,-10,29,-4,-24,42,37,-7,-15,24,46
-18,-31,-7,29,-6,-22,41,31,-9,-15,29,50
-19,-39,-12,34,-4,-30,41,32,-9,-14,28,48
-12,-40,-21,31,5,-36,36,29,-9,-16,25,46
-12,-29,-12,24,0,-24,37,28,-9,-17,25,45
-22,-34,-6,34,-10,-23,38,32,-6,-14,28,48
-21,-32,-6,32,-9,-22,40,35,-4,-13,32,51
-22,-26,1,29,-12,-14,41,35,-4,-12,31,51
-18,-29,-6,29,-7,-20,41,38,-4,-11,33,52
-18,-32,-8,30,-6,-24,41,35,-5,-13,31,52
-13,-23,-6,22,-5,-17,42,40,-3,-11,32,54
-13,-17,-1,19,-7,-10,43,40,-1,-9,34,57
-12,-22,-6,21,-4,-16,40,35,-6,-11,31,51
-27,-29,3,34,-17,-14,41,33,-5,-12,33,55
-13,-22,-5,21,-5,-16,46,36,-4,-12,34,57
-19,-26,-2,27,-10,-16,45,35,-6,-12,32,53
-7,-19,-8,15,1,-16,40,33,-9,-15,30,50
-17,-26,-5,26,-7,-18,45,38,-5,-14,32,53
-20,-28,-3,29,-10,-18,43,36,-7,-12,31,53
-11,-19,-5,18,-3,-13,43,37,-7,-14,30,54
-15,-22,-3,22,-7,-14,46,38,-6,-12,34,54
-18,-28,-5,28,-8,-19,44,38,-4,-10,34,55
-18,-28,-5,28,-8,-19,42,34,-5,-11,32,53
1,-20,-17,11,10,-22,40,32,-7,-13,27,48
-27,-39,-5,39,-12,-24,41,37,-5,-11,29,54
-22,-32,-5,33,-10,-21,41,38,-4,-13,31,53
-13,-22,-5,21,-5,-16,41,37,-4,-12,29,54
-10,-28,-13,22,2,-24,37,33,-8,-17,27,51
-38,-34,11,44,-28,-12,46,41,-4,-12,32,56
-26,-35,-3,37,-13,-22,47,38,-6,-14,31,55
-21,-31,-5,31,-9,-20,45,37,-9,-17,32,53
-18,-31,-7,29,-6,-22,44,36,-9,-16,30,53
-18,-26,-3,27,-9,-17,42,36,-8,-15,32,54
-8,-28,-15,21,3,-26,41,32,-9,-14,28,50
-17,-28,-6,27,-7,-20,41,34,-9,-15,30,52
-35,-47,-3,48,-18,-28,40,30,-8,-14,28,53
-15,-34,-13,29,-1,-28,37,33,-9,-14,25,51
-6,-26,-16,19,6,-25,38,31,-10,-17,24,51
-29,-28,7,35,-20,-11,42,35,-8,-14,30,53
-8,-22,-10,18,1,-19,41,34,-9,-14,29,55
-22,-23,3,27,-14,-11,42,34,-9,-16,29,53
-23,-22,6,28,-16,-9,43,35,-7,-12,34,55
-30,-35,2,40,-18,-19,38,32,-12,-17,29,50
-16,-26,-6,25,-6,-18,37,30,-12,-17,29,48
-10,-31,-16,24,3,-28,36,29,-12,-18,27,48
-7,-31,-18,22,6,-30,33,27,-12,-18,24,46
-19,-35,-10,33,-6,-26,36,30,-10,-17,27,52
-18,-34,-10,31,-5,-26,41,33,-9,-16,29,54
-30,-26,9,35,-22,-9,40,32,-9,-15,30,56
-17,-34,-11,31,-4,-26,39,27,-10,-18,26,53
-16,-32,-11,29,-3,-25,41,30,-12,-17,27,52
-23,-42,-11,39,-7,-30,40,29,-12,-17,25,51
-33,-34,6,41,-22,-16,43,32,-6,-11,36,59
-13,-35,-16,29,1,-30,42,29,-9,-17,29,54
-17,-37,-13,32,-2,-30,40,29,-11,-17,28,50
-12,-37,-18,29,3,-33,41,29,-13,-20,27,48
-8,-34,-20,25,6,-32,39,28,-12,-16,26,50
-19,-42,-15,36,-3,-33,39,31,-14,-17,27,52
-27,-34,-1,37,-15,-20,41,32,-11,-14,27,55
-29,-48,-10,46,-11,-33,36,27,-14,-19,23,48
-28,-40,-5,41,-14,-26,38,28,-12,-18,24,51
-27,-42,-7,41,-11,-28,37,28,-12,-17,25,50
-28,-42,-6,42,-13,-27,39,28,-10,-17,27,50
-16,-25,-5,25,-6,-17,38,26,-13,-17,30,51
-16,-29,-8,27,-5,-22,37,28,-14,-18,30,53
-11,-26,-11,22,0,-22,37,28,-13,-17,31,54
-11,-34,-17,26,3,-30,35,26,-15,-20,26,50
-28,-43,-7,42,-12,-29,34,28,-15,-20,25,50
-14,-35,-15,29,0,-30,37,26,-15,-20,25,50
-16,-39,-16,32,0,-32,40,26,-15,-20,26,50
-17,-34,-11,31,-4,-26,41,28,-12,-19,27,51
-24,-39,-7,37,-10,-26,41,27,-14,-17,29,53
-26,-48,-13,43,-7,-35,39,25,-14,-18,26,50
-1,-35,-28,20,15,-38,34,21,-19,-24,21,42
-30,-35,2,40,-18,-19,40,27,-14,-18,30,52
-23,-43,-12,39,-6,-32,39,25,-14,-23,27,48
-20,-37,-11,34,-5,-28,40,30,-13,-18,29,48
-32,-37,2,42,-19,-20,41,27,-10,-16,30,53
-26,-47,-12,42,-8,-34,36,23,-14,-19,28,50
-22,-43,-13,39,-5,-33,41,28,-16,-18,28,51
-26,-37,-5,38,-12,-24,38,27,-15,-19,27,50
-32,-47,-6,47,-15,-30,37,26,-14,-18,28,50
-26,-42,-8,40,-10,-28,37,27,-15,-20,26,48
-21,-37,-10,35,-6,-27,36,25,-15,-22,25,48
-23,-45,-13,40,-6,-34,36,25,-15,-21,26,48
-21,-48,-18,40,-2,-38,35,23,-17,-22,25,44
-16,-35,-13,30,-2,-28,36,23,-17,-24,24,44
-17,-43,-18,35,1,-36,34,21,-20,-23,21,42
-21,-43,-15,38,-3,-34,37,26,-16,-22,25,45
-23,-37,-7,36,-9,-26,41,29,-12,-20,28,48
-16,-39,-16,32,0,-32,37,26,-16,-22,25,43
-23,-32,-3,33,-11,-20,39,29,-12,-18,31,50
-21,-47,-17,39,-2,-37,38,28,-14,-20,27,46
-28,-40,-5,41,-14,-26,41,29,-15,-22,26,50
-21,-34,-7,33,-8,-24,39,28,-13,-20,26,50
-39,-47,2,52,-23,-25,38,26,-13,-20,28,51
-28,-51,-13,46,-9,-37,36,25,-16,-23,27,48
-20,-34,-8,32,-7,-24,36,26,-14,-21,28,50
-17,-51,-25,39,5,-45,32,21,-20,-25,23,45
-28,-45,-8,43,-11,-30,35,23,-15,-20,28,48
-20,-43,-16,37,-2,-34,36,23,-16,-22,26,50
-26,-48,-13,43,-7,-35,35,21,-17,-23,27,46
-20,-40,-13,35,-4,-31,36,25,-15,-20,30,51
-14,-29,-10,26,-3,-23,41,25,-12,-18,29,50
-17,-31,-8,29,-5,-23,39,27,-14,-21,27,46
-24,-35,-5,36,-11,-23,41,27,-14,-20,32,50
-11,-32,-16,25,3,-28,36,21,-17,-23,25,43
-9,-29,-15,23,3,-26,36,21,-17,-22,25,43
-28,-35,-1,39,-16,-20,37,23,-14,-21,27,46
-34,-45,-2,47,-18,-26,38,25,-13,-19,31,48
-14,-35,-15,29,0,-30,36,21,-17,-22,25,44
