I,II,III,aVR,aVL,aVF,V1,V2,V3,V4,V5,V6
-22,-7,18,14,-36,1,-5,-28,-19,-16,-25,4
-17,-4,16,10,-29,2,-2,-26,-14,-16,-22,4
-25,-9,18,17,-39,-1,-5,-28,-17,-17,-26,4
-20,-10,9,15,-29,-4,-7,-28,-19,-16,-23,4
-19,-13,1,17,-21,-9,-3,-28,-19,-17,-26,2
-18,-8,9,13,-25,-3,2,-22,-14,-16,-24,5
-14,-7,5,11,-18,-4,0,-24,-17,-15,-23,2
-15,-9,3,13,-19,-5,-0,-24,-19,-15,-23,6
-19,-6,16,13,-32,1,1,-24,-16,-14,-21,10
-18,-8,9,13,-25,-3,0,-24,-16,-14,-22,8
-14,-7,5,11,-18,-4,-0,-24,-19,-15,-22,9
-19,-12,3,16,-23,-7,1,-22,-16,-14,-20,11
-24,-13,8,19,-31,-7,-0,-26,-18,-15,-24,5
-17,-9,5,13,-21,-5,-4,-26,-19,-15,-22,4
-14,-11,-3,13,-13,-8,-3,-24,-18,-16,-23,5
-18,-10,5,14,-23,-5,-2,-21,-15,-15,-19,8
-19,-14,-1,17,-20,-10,-2,-22,-18,-15,-23,4
-22,-18,-5,20,-20,-13,-4,-26,-20,-15,-26,5
-26,-18,1,22,-29,-12,0,-21,-15,-15,-22,8
-25,-16,3,20,-29,-10,-0,-22,-15,-15,-20,8
-25,-15,5,20,-30,-9,-7,-26,-21,-17,-26,6
-32,-21,3,26,-37,-13,-7,-24,-19,-15,-23,6
-26,-16,5,21,-31,-9,-2,-22,-16,-14,-20,8
-18,-12,1,15,-19,-8,-5,-24,-17,-14,-23,6
-19,-12,3,16,-23,-7,-4,-26,-18,-14,-23,8
-25,-16,3,20,-29,-10,-0,-22,-18,-14,-22,8
-21,-15,-1,19,-21,-10,-2,-22,-19,-16,-25,4
-15,-12,-3,14,-14,-9,-0,-26,-19,-17,-24,4
-26,-12,13,19,-37,-4,3,-19,-15,-13,-21,6
-31,-16,13,23,-43,-7,-0,-22,-19,-15,-25,5
-15,-9,3,13,-19,-5,-0,-22,-20,-14,-23,7
-15,-7,8,12,-21,-3,3,-18,-18,-13,-22,9
-26,-16,5,21,-31,-9,2,-22,-21,-14,-23,6
-18,-13,-1,16,-19,-9,0,-22,-22,-15,-23,6
-15,-9,3,13,-19,-5,-2,-24,-22,-16,-23,4
-14,-12,-5,13,-11,-10,0,-19,-17,-13,-17,10
-2,0,3,1,-4,1,0,-18,-19,-14,-20,9
-18,-8,9,13,-25,-3,-5,-24,-22,-16,-20,5
-20,-14,1,18,-23,-9,-3,-22,-20,-15,-23,5
-15,-10,1,13,-17,-7,-0,-20,-19,-13,-20,8
-17,-12,-1,15,-17,-8,-5,-24,-23,-15,-26,4
-20,-17,-7,19,-17,-13,-2,-22,-22,-14,-22,7
-26,-21,-5,24,-25,-15,-2,-21,-22,-14,-20,7
-19,-18,-9,19,-14,-15,-0,-22,-20,-13,-18,9
-24,-21,-9,23,-19,-17,-0,-21,-22,-14,-23,2
-25,-18,-1,22,-26,-12,-2,-21,-19,-13,-19,5
-24,-21,-9,23,-19,-17,-0,-18,-20,-14,-20,8
-17,-12,-1,15,-17,-8,-2,-19,-20,-13,-18,11
-14,-11,-3,13,-13,-8,-0,-19,-20,-13,-21,10
-20,-14,1,18,-23,-9,2,-14,-19,-11,-20,11
-11,-12,-9,13,-5,-11,0,-18,-21,-14,-22,10
-25,-10,16,17,-38,-2,0,-18,-20,-13,-21,9
-28,-16,8,22,-35,-8,-2,-20,-20,-13,-21,8
-28,-25,-13,27,-20,-21,-2,-22,-24,-15,-21,5
-17,-19,-18,19,-5,-19,-4,-22,-24,-16,-23,4
-25,-22,-9,25,-20,-18,-3,-18,-21,-15,-20,7
-17,-20,-18,20,-6,-19,-6,-20,-23,-16,-22,6
-17,-19,-15,19,-7,-18,-3,-17,-21,-13,-21,9
-21,-19,-8,21,-17,-15,-3,-18,-22,-13,-21,9
-21,-19,-9,21,-15,-15,-2,-14,-19,-12,-17,13
-13,-19,-23,18,4,-21,-2,-14,-22,-13,-20,9
-10,-17,-22,15,5,-18,-2,-13,-19,-12,-17,10
-15,-11,-1,14,-15,-8,2,-11,-15,-10,-15,11
-9,-9,-4,10,-7,-7,1,-12,-19,-11,-17,10
-4,-4,-3,5,-1,-4,6,-8,-15,-10,-15,10
-6,-4,1,5,-6,-2,9,-4,-13,-9,-11,15
-6,-6,-3,6,-5,-5,7,-8,-15,-11,-14,11
-2,-7,-13,6,8,-9,7,-7,-16,-11,-14,13
-6,-10,-13,9,4,-11,11,-5,-13,-9,-14,13
-6,-4,-1,6,-5,-3,9,-6,-15,-10,-14,14
0,-4,-8,3,6,-5,5,-10,-16,-11,-14,14
-10,-2,12,6,-19,3,7,-9,-13,-9,-14,16
-13,-7,5,10,-17,-3,10,-6,-10,-9,-12,18
-7,2,16,2,-18,6,7,-11,-14,-10,-14,17
-2,8,23,-4,-18,13,3,-12,-13,-9,-12,18
1,10,22,-6,-13,14,-6,-15,-13,-8,-11,20
6,9,13,-7,-2,11,-11,-11,-12,-7,-11,23
18,13,3,-15,18,10,-12,-11,-10,-5,-9,24
9,6,1,-7,11,5,-7,-3,-5,-4,-5,27
9,2,-9,-5,18,-1,-8,-4,-8,-6,-8,27
12,-4,-26,-2,32,-10,-8,-10,-13,-8,-12,21
14,-3,-28,-4,36,-10,-5,-8,-14,-8,-11,18
8,-7,-28,2,29,-13,-6,-5,-11,-7,-11,18
6,-9,-28,4,26,-15,-6,-7,-12,-9,-12,15
14,-10,-43,1,45,-20,-11,-7,-16,-9,-11,17
8,-6,-26,1,27,-12,-8,-5,-15,-9,-8,18
8,-11,-36,4,35,-19,-6,-8,-18,-9,-11,15
12,-11,-42,2,43,-20,-9,-11,-19,-11,-10,13
10,-6,-28,-0,31,-12,-3,-6,-15,-8,-7,17
5,-8,-25,3,24,-13,-6,-11,-18,-10,-9,14
-1,-12,-26,8,18,-17,-5,-10,-22,-11,-14,11
-15,-15,-9,16,-10,-13,-2,-7,-21,-13,-17,6
-25,-14,8,20,-32,-7,0,-8,-20,-13,-17,5
-23,-28,-28,27,-5,-28,1,-7,-21,-11,-17,4
-21,-27,-28,26,-4,-27,3,-7,-22,-13,-20,1
-28,-31,-25,31,-12,-29,4,-2,-20,-12,-17,2
-25,-30,-28,30,-7,-29,5,-6,-24,-15,-23,-2
-25,-29,-25,29,-10,-27,3,-9,-28,-17,-23,-4
-34,-33,-21,35,-21,-29,6,-6,-28,-16,-20,-2
-29,-29,-21,31,-15,-26,5,-9,-27,-15,-20,0
-26,-30,-26,30,-10,-28,2,-9,-29,-17,-22,-1
-26,-30,-26,30,-10,-28,1,-9,-29,-16,-20,1
-29,-33,-28,33,-12,-31,4,-5,-27,-16,-17,1
-20,-29,-34,26,2,-30,2,-6,-29,-16,-20,2
-25,-33,-36,32,-1,-34,3,-5,-27,-16,-20,-2
-35,-33,-19,35,-24,-28,2,-6,-26,-15,-20,-1
-29,-33,-28,33,-12,-31,2,-3,-29,-16,-21,-2
-26,-33,-32,32,-6,-32,2,-4,-29,-17,-20,-4
-37,-37,-25,38,-21,-33,0,-3,-29,-16,-20,-5
-30,-33,-28,34,-13,-32,7,-3,-28,-17,-20,-4
-23,-29,-29,28,-4,-29,4,-5,-29,-18,-19,-4
-27,-34,-34,32,-5,-34,7,-5,-29,-17,-19,-3
-39,-39,-28,41,-21,-35,10,1,-26,-16,-19,-5
-24,-33,-36,31,0,-34,9,1,-28,-17,-20,-2
-28,-29,-21,30,-15,-26,7,0,-28,-16,-20,-4
-39,-33,-15,37,-31,-27,8,3,-28,-16,-19,-4
-30,-35,-32,35,-10,-34,7,1,-30,-17,-19,-4
-28,-34,-34,33,-5,-34,5,1,-31,-17,-19,-2
-33,-31,-19,34,-21,-27,5,4,-29,-17,-18,-2
-35,-32,-18,35,-25,-27,5,4,-29,-17,-17,-2
-26,-34,-36,33,-2,-35,6,3,-32,-18,-20,-2
-30,-35,-32,35,-10,-34,11,7,-27,-16,-17,0
-33,-35,-28,36,-15,-33,12,9,-25,-15,-19,-2
-32,-36,-32,36,-12,-35,11,5,-29,-17,-21,-2
-32,-35,-29,36,-13,-33,8,6,-29,-17,-21,-4
-32,-36,-30,36,-13,-34,11,10,-26,-14,-17,1
-35,-36,-28,38,-18,-34,12,11,-27,-15,-16,1
-24,-34,-38,32,1,-35,10,11,-26,-16,-16,1
-36,-32,-16,35,-27,-27,11,15,-25,-14,-14,-1
-39,-25,3,32,-44,-16,12,13,-28,-17,-20,-2
-39,-29,-5,34,-38,-21,19,17,-30,-20,-25,-10
-50,-34,1,42,-54,-23,35,32,-23,-21,-25,-11
-66,-41,9,53,-77,-25,52,46,-22,-23,-28,-15
-72,-48,2,60,-79,-33,66,65,-22,-27,-37,-26
-70,-54,-13,63,-65,-41,78,80,-25,-33,-46,-33
-76,-50,3,63,-83,-34,85,90,-23,-33,-47,-34
-81,-46,22,63,-102,-25,80,84,-27,-34,-49,-37
-77,-32,47,52,-117,-7,86,84,-22,-31,-43,-33
-72,-26,51,47,-113,-2,86,94,-6,-20,-30,-22
-39,-15,26,26,-60,-2,79,114,22,-2,-7,1
12,14,14,-13,4,14,64,131,59,26,26,33
50,47,32,-50,32,43,37,126,83,57,69,72
101,89,47,-97,76,76,-12,99,95,89,117,121
171,140,55,-158,146,114,-66,74,129,133,173,178
247,194,61,-224,224,153,-134,61,172,186,237,240
287,249,122,-274,224,210,-204,21,203,227,288,289
335,306,178,-331,236,267,-285,-43,221,261,331,331
358,349,240,-367,218,316,-337,-94,224,287,363,361
361,362,265,-376,202,333,-372,-144,221,303,384,382
353,338,223,-358,224,303,-378,-164,236,319,392,389
352,299,136,-333,285,249,-365,-156,258,328,383,377
298,263,139,-288,224,225,-336,-142,277,329,362,350
256,233,133,-252,183,202,-305,-121,280,316,335,323
229,180,58,-208,207,143,-282,-107,243,277,286,282
169,107,-18,-137,196,69,-234,-94,169,208,211,215
96,48,-39,-70,132,22,-191,-96,80,129,131,143
36,1,-53,-15,77,-15,-151,-103,-10,51,56,76
-10,-42,-78,31,44,-53,-114,-106,-91,-17,-4,24
-37,-72,-103,61,33,-81,-77,-83,-121,-49,-32,-3
-41,-86,-128,71,46,-99,-54,-53,-116,-52,-39,-12
-33,-80,-130,64,57,-96,-42,-33,-101,-46,-36,-12
-33,-74,-116,60,46,-87,-30,-15,-90,-41,-31,-7
-34,-67,-99,56,35,-77,-19,0,-77,-35,-27,-5
-24,-59,-95,47,42,-70,-10,14,-65,-29,-25,-4
-21,-59,-101,46,49,-72,-5,24,-56,-26,-23,-1
-29,-57,-82,48,27,-65,9,36,-44,-23,-19,1
-29,-59,-86,49,30,-67,14,45,-35,-23,-20,-2
-35,-54,-67,48,11,-58,23,47,-30,-21,-19,-1
-41,-54,-59,51,-2,-55,27,53,-26,-22,-21,-4
-46,-49,-39,50,-21,-45,28,54,-26,-22,-20,-4
-36,-46,-46,44,-6,-45,26,55,-32,-24,-23,-8
-40,-43,-34,44,-19,-40,29,59,-29,-22,-17,-2
-39,-39,-28,41,-23,-36,26,59,-28,-22,-14,1
-28,-34,-34,33,-6,-34,21,59,-28,-22,-17,2
-24,-33,-38,31,1,-35,20,61,-27,-20,-15,5
-33,-34,-25,35,-17,-31,23,65,-21,-17,-11,5
-30,-34,-30,34,-11,-33,23,66,-19,-18,-14,5
-35,-36,-28,38,-18,-34,22,66,-18,-18,-15,3
-46,-38,-15,43,-38,-31,29,69,-16,-18,-14,4
-52,-41,-13,48,-46,-32,31,69,-19,-19,-15,3
-34,-36,-28,37,-17,-34,29,67,-19,-18,-15,4
-36,-36,-23,38,-23,-32,31,70,-21,-19,-13,3
-47,-41,-19,46,-37,-34,29,70,-23,-20,-16,3
-39,-39,-28,41,-23,-36,28,68,-22,-20,-13,4
-35,-34,-23,36,-20,-31,26,70,-22,-18,-14,6
-39,-37,-22,39,-26,-32,26,73,-17,-16,-11,7
-36,-35,-23,37,-21,-32,27,72,-18,-17,-11,7
-36,-34,-22,37,-23,-30,23,70,-17,-15,-10,8
-33,-36,-28,36,-15,-33,28,72,-14,-15,-8,11
-40,-36,-20,39,-29,-31,29,72,-15,-16,-11,8
-31,-34,-28,34,-13,-32,29,70,-16,-17,-10,8
-40,-37,-22,40,-27,-33,29,69,-18,-18,-12,9
-37,-34,-19,38,-26,-29,31,69,-18,-17,-13,4
-29,-31,-23,32,-14,-28,31,70,-16,-18,-10,8
-30,-35,-32,34,-10,-34,28,70,-17,-17,-11,8
-37,-36,-23,38,-24,-32,30,74,-12,-14,-8,11
-31,-34,-28,35,-13,-33,29,70,-15,-16,-11,7
-34,-34,-23,35,-19,-30,28,68,-15,-17,-11,8
-37,-36,-22,38,-25,-31,32,72,-13,-16,-9,10
-33,-32,-20,34,-21,-28,38,73,-9,-14,-8,12
-25,-29,-26,29,-8,-28,33,69,-17,-18,-12,7
-28,-28,-19,30,-17,-25,34,68,-15,-17,-10,8
-36,-32,-16,35,-27,-27,32,69,-15,-17,-8,10
-32,-30,-18,32,-21,-26,31,67,-17,-17,-10,9
-30,-31,-22,32,-17,-28,31,65,-16,-17,-10,8
-40,-33,-12,37,-35,-26,34,67,-12,-14,-5,12
-36,-33,-18,36,-26,-28,34,68,-12,-15,-8,10
-28,-29,-22,30,-14,-26,29,64,-11,-14,-5,14
-34,-32,-19,34,-23,-28,34,69,-10,-14,-5,13
-35,-31,-15,34,-26,-26,33,68,-12,-14,-5,14
-25,-30,-28,29,-6,-29,31,67,-15,-16,-10,11
-29,-30,-22,31,-15,-27,32,69,-14,-16,-8,11
-35,-31,-16,34,-26,-26,36,70,-13,-16,-8,13
-26,-27,-19,28,-14,-24,33,66,-16,-15,-10,11
-28,-34,-32,33,-7,-33,33,66,-14,-14,-7,11
-35,-34,-22,36,-21,-30,41,73,-8,-12,-2,17
-28,-33,-30,32,-8,-32,37,70,-10,-12,-1,16
-27,-35,-36,33,-4,-35,34,70,-10,-13,-5,16
-32,-34,-26,35,-15,-31,39,72,-7,-12,-1,20
-29,-30,-22,31,-15,-27,42,72,-7,-11,-2,18
-18,-31,-41,27,10,-34,37,70,-9,-13,-4,18
-21,-36,-47,31,11,-39,41,70,-6,-11,-1,17
-30,-33,-26,33,-14,-30,45,71,-5,-11,-1,17
-23,-27,-26,27,-6,-27,43,68,-8,-12,-2,17
-26,-30,-26,30,-10,-28,42,68,-9,-13,-4,16
-29,-27,-16,30,-20,-24,46,73,-3,-9,2,21
-24,-29,-28,29,-6,-28,45,70,-5,-10,0,20
-19,-24,-24,24,-4,-24,43,69,-4,-10,0,20
-31,-28,-15,31,-23,-24,44,73,-1,-8,2,23
-28,-32,-28,32,-11,-30,45,71,-1,-9,1,20
-20,-26,-28,25,-1,-26,45,70,-2,-10,-2,18
-23,-27,-26,27,-6,-27,46,72,0,-9,2,22
-25,-27,-22,28,-12,-25,46,72,3,-7,3,23
-24,-26,-22,26,-10,-25,45,69,-1,-8,2,20
-28,-30,-24,31,-12,-28,46,68,2,-8,2,21
-30,-29,-19,31,-18,-26,49,73,5,-5,6,23
-22,-26,-24,26,-6,-25,45,74,6,-5,8,24
-17,-24,-28,23,1,-25,43,70,3,-6,4,23
-26,-28,-22,29,-13,-26,48,74,7,-4,8,26
-25,-28,-23,28,-11,-26,47,75,11,-2,11,29
-15,-26,-34,23,8,-28,45,75,10,-3,6,26
-13,-21,-26,19,5,-22,49,80,15,0,12,33
-17,-26,-33,24,6,-28,51,82,14,1,14,31
-9,-21,-32,17,13,-24,46,79,15,2,14,31
-10,-21,-30,17,11,-23,45,79,13,-1,12,27
-18,-17,-9,19,-13,-14,51,85,20,3,16,32
-19,-22,-19,22,-6,-21,53,85,19,3,16,31
-2,-11,-22,8,14,-14,52,87,20,3,15,30
-10,-10,-7,11,-6,-9,55,89,22,5,17,35
-17,-15,-7,17,-13,-12,50,90,25,5,14,32
-2,-6,-11,5,6,-8,49,91,26,6,16,35
2,-9,-23,5,19,-13,48,92,29,8,18,35
4,-4,-13,1,14,-6,50,97,35,11,21,40
6,-4,-18,1,19,-8,48,94,34,10,17,35
7,-2,-13,-1,17,-5,46,97,38,13,22,38
-2,-2,-1,2,-1,-2,48,101,43,16,27,37
0,-4,-9,3,7,-6,47,101,43,16,24,27
7,-2,-13,-1,17,-5,48,104,47,18,29,29
-3,-6,-8,5,2,-6,48,109,53,20,35,29
1,2,3,-1,0,3,48,110,57,23,38,32
16,1,-22,-6,33,-6,46,110,60,23,38,34
15,3,-16,-8,29,-3,51,119,68,28,41,37
10,6,-1,-8,13,5,50,123,73,31,44,40
19,8,-9,-13,27,3,48,122,74,32,44,41
21,14,-1,-17,25,10,51,125,81,35,47,43
16,13,6,-14,14,11,49,127,85,39,51,50
24,18,5,-20,23,14,46,132,89,42,53,53
33,26,10,-29,29,22,43,132,91,43,56,53
35,26,6,-31,35,20,48,139,101,49,62,60
35,29,12,-32,31,24,48,141,106,51,67,66
44,31,3,-37,46,23,43,143,112,54,70,67
36,31,14,-34,30,26,45,148,116,57,74,69
45,37,14,-41,39,30,44,149,122,61,79,72
50,37,9,-44,48,29,42,152,126,65,82,77
46,38,16,-43,39,32,38,150,129,67,83,77
50,48,33,-50,31,43,39,155,137,73,89,85
53,49,31,-52,36,44,36,153,139,74,92,85
58,50,24,-55,46,42,32,154,145,77,95,89
58,56,39,-58,36,51,35,159,155,82,101,93
64,62,43,-65,40,57,34,164,160,84,104,98
87,74,34,-82,70,62,34,164,165,88,107,101
84,73,37,-80,65,62,36,166,169,90,111,105
80,70,37,-77,61,60,35,169,172,93,114,107
82,71,36,-78,63,60,34,166,173,95,116,108
79,71,39,-77,58,61,32,166,174,97,116,109
76,72,48,-76,49,65,35,170,180,101,122,116
80,74,44,-79,57,65,32,171,182,102,125,119
94,82,43,-90,71,70,34,173,186,104,127,121
95,86,49,-93,68,75,32,173,190,106,132,128
90,85,54,-90,61,75,34,174,192,108,132,128
87,82,54,-87,56,74,28,167,189,106,131,125
94,87,53,-93,65,77,27,169,192,108,134,127
98,84,41,-93,77,71,29,168,190,107,134,124
98,86,45,-94,74,74,25,163,188,108,134,126
92,84,49,-90,65,74,26,160,184,106,133,122
85,81,54,-86,55,73,26,159,182,105,133,123
84,77,47,-83,58,68,24,157,176,104,131,122
85,86,64,-89,48,80,25,154,172,102,128,122
82,85,68,-87,40,80,28,152,166,98,125,122
79,75,48,-79,52,67,32,153,165,97,125,121
81,75,45,-80,56,66,30,148,157,92,120,118
73,73,54,-75,42,67,31,143,150,88,116,111
70,68,48,-71,43,63,31,141,145,86,115,111
70,65,41,-70,48,58,29,134,135,80,107,102
69,65,43,-69,45,59,30,126,128,74,100,97
60,62,48,-63,32,58,33,127,121,71,99,96
62,60,41,-63,38,54,34,123,115,68,94,92
56,57,44,-58,30,53,32,118,104,59,87,84
45,47,37,-47,24,44,37,117,100,56,84,83
31,39,41,-37,6,40,38,113,93,53,81,79
35,36,28,-37,19,34,40,105,83,45,70,69
31,36,33,-35,12,35,43,102,77,42,68,71
28,34,34,-32,6,34,43,103,72,39,65,62
22,25,24,-25,7,25,39,93,61,33,56,55
15,21,24,-19,0,22,43,88,56,31,51,51
7,13,20,-10,-6,15,43,87,51,27,49,50
2,6,12,-4,-5,8,43,79,43,23,42,44
5,3,-1,-3,7,2,43,77,38,19,39,41
1,4,8,-2,-4,5,50,77,37,17,40,43
-2,-1,2,2,-4,0,47,73,30,13,31,35
3,1,-1,-1,5,1,45,70,24,10,30,31
-8,-9,-8,10,-4,-9,43,69,20,7,27,28
-13,-14,-11,15,-6,-13,43,67,18,6,26,26
-7,-15,-22,13,8,-17,40,65,16,3,25,26
-6,-16,-26,13,13,-19,40,62,13,3,20,21
-14,-14,-9,15,-8,-12,40,62,15,3,20,23
-12,-19,-24,18,5,-21,39,60,9,0,17,23
-4,-16,-28,12,17,-20,38,58,7,-0,14,19
-22,-26,-24,26,-6,-25,43,56,7,-2,16,20
-21,-27,-28,26,-2,-27,45,58,4,-3,16,18
-17,-29,-39,26,10,-32,40,51,0,-5,12,14
-23,-32,-36,30,1,-33,43,55,0,-5,14,16
-23,-30,-32,28,-1,-30,44,55,1,-5,12,14
-15,-30,-43,26,14,-34,40,51,-2,-7,11,11
-11,-29,-47,23,21,-34,43,52,1,-6,13,13
-23,-32,-36,30,1,-33,46,54,2,-5,15,14
-21,-34,-43,30,8,-36,40,49,-1,-7,11,14
-18,-33,-44,28,12,-36,39,47,-2,-7,12,11
-25,-38,-47,34,7,-41,42,51,0,-7,13,14
-30,-40,-43,38,-2,-41,42,53,-1,-8,12,14
-17,-37,-57,31,23,-43,39,50,-6,-9,9,10
-24,-40,-53,35,12,-44,40,51,-1,-8,12,12
-24,-40,-53,35,12,-44,43,52,-3,-9,12,11
-14,-36,-59,29,27,-43,39,51,-4,-9,11,11
-15,-39,-64,31,29,-46,38,47,-5,-10,8,9
-29,-42,-49,38,4,-44,38,51,-5,-12,8,8
-26,-41,-51,37,8,-44,40,49,-4,-10,9,8
-28,-41,-49,38,5,-43,40,49,-4,-10,9,10
-29,-39,-43,37,-1,-40,42,51,-1,-9,9,9
-29,-40,-44,38,0,-41,41,50,-4,-10,10,11
-24,-40,-53,35,12,-44,38,46,-6,-12,6,6
-25,-40,-51,36,10,-43,41,51,-4,-11,8,8
-26,-40,-49,36,6,-42,42,51,-1,-10,12,12
-21,-40,-57,34,18,-45,39,49,-4,-11,11,11
-15,-38,-61,31,27,-45,40,50,-4,-12,8,9
-29,-39,-43,37,-1,-40,43,53,-3,-10,9,10
-28,-38,-43,36,1,-39,41,48,-6,-11,8,9
-29,-40,-44,38,0,-41,41,51,-4,-11,10,10
-34,-43,-44,41,-5,-43,41,53,-1,-9,11,10
-29,-41,-47,38,2,-43,43,51,-2,-9,9,11
-28,-37,-40,35,-1,-38,41,51,-5,-10,8,6
-25,-36,-40,33,1,-37,41,50,-6,-9,9,6
-29,-41,-47,38,2,-43,42,53,-3,-8,9,9
-23,-36,-44,32,7,-38,39,53,-1,-8,8,7
-21,-32,-39,29,5,-34,41,51,-2,-8,8,9
-29,-37,-39,36,-4,-38,41,52,-1,-6,11,10
-21,-33,-40,29,6,-35,45,52,0,-6,13,10
-24,-34,-39,31,2,-35,42,50,-1,-6,11,9
-32,-36,-30,36,-13,-34,43,54,-1,-6,12,9
-30,-38,-39,37,-5,-38,48,57,2,-5,12,9
-20,-34,-44,30,11,-37,45,54,-4,-9,8,6
-19,-33,-43,29,10,-36,43,56,-2,-8,11,9
-26,-37,-43,35,2,-39,48,57,-2,-7,11,9
-24,-36,-43,32,5,-38,45,55,-3,-8,12,10
-25,-36,-40,33,1,-37,43,54,-6,-9,8,9
-34,-34,-23,35,-19,-30,44,56,-2,-7,11,11
-26,-34,-36,33,-2,-35,42,56,-3,-8,11,11
-24,-34,-39,31,2,-35,41,56,-3,-8,10,11
-28,-33,-30,32,-8,-32,45,58,0,-8,14,12
-29,-32,-26,32,-13,-30,42,56,-2,-7,13,10
-26,-36,-39,33,-1,-36,38,53,-6,-9,10,7
-25,-32,-32,31,-5,-32,42,57,-4,-9,11,6
-30,-29,-18,31,-20,-25,38,53,-6,-11,11,7
-23,-32,-36,30,1,-33,37,50,-7,-12,8,5
-25,-33,-34,31,-2,-33,37,53,-6,-10,10,9
-33,-33,-22,34,-20,-29,42,57,-6,-9,12,10
-32,-34,-26,35,-15,-31,39,54,-8,-12,8,10
-21,-29,-32,27,0,-29,38,55,-8,-9,12,13
-28,-34,-34,33,-5,-34,41,57,-6,-9,12,12
-36,-33,-18,36,-26,-28,43,57,-7,-9,11,11
-24,-28,-26,28,-7,-27,38,53,-10,-10,9,6
-28,-33,-30,32,-8,-32,41,57,-8,-11,14,10
-31,-28,-15,31,-23,-24,39,55,-10,-11,11,9
-24,-34,-40,32,4,-36,37,53,-10,-10,13,10
-25,-34,-36,32,-1,-34,35,50,-14,-12,10,7
-29,-32,-26,32,-13,-30,39,54,-11,-10,14,12
-26,-36,-40,34,0,-37,39,55,-9,-9,12,13
-29,-34,-32,34,-8,-34,34,53,-12,-12,11,11
-25,-34,-39,32,1,-36,36,52,-12,-11,12,11
-31,-32,-23,33,-17,-29,38,56,-9,-10,12,11
-30,-33,-26,33,-14,-30,35,50,-15,-12,9,8
-28,-31,-26,31,-11,-29,36,52,-13,-12,9,9
-28,-29,-22,30,-14,-26,39,49,-13,-13,11,5
-22,-33,-39,30,4,-34,31,46,-18,-14,8,6
-25,-37,-44,34,5,-39,29,45,-17,-14,8,6
-31,-37,-36,37,-7,-37,32,45,-13,-13,8,9
-29,-36,-36,35,-6,-36,31,46,-16,-15,8,7
-28,-34,-34,33,-5,-34,31,44,-17,-14,7,6
-36,-41,-36,41,-13,-39,37,49,-16,-12,11,10
-37,-38,-28,40,-20,-35,38,48,-16,-13,11,11
-29,-39,-43,37,-1,-40,36,45,-19,-14,8,8
-30,-36,-34,36,-8,-36,38,48,-18,-13,11,9
-39,-43,-36,44,-17,-41,40,48,-17,-14,10,9
-26,-40,-49,36,6,-42,34,44,-18,-15,9,8
-23,-37,-49,33,11,-41,31,44,-20,-16,8,7
-31,-37,-36,37,-7,-37,32,45,-17,-16,8,8
-32,-42,-44,40,-2,-42,31,43,-20,-16,8,7
-28,-41,-49,38,5,-43,31,43,-20,-17,7,6
-32,-40,-40,38,-6,-40,29,44,-19,-15,8,8
-29,-37,-39,36,-4,-38,33,47,-18,-13,10,10
-25,-40,-51,36,10,-43,29,43,-20,-15,8,8
-29,-40,-44,38,0,-41,34,46,-21,-15,9,7
-29,-36,-36,35,-6,-36,29,43,-20,-15,9,7
-28,-38,-43,36,1,-39,31,43,-22,-15,8,8
-24,-37,-47,33,8,-40,27,38,-24,-17,4,4
-29,-42,-49,38,4,-44,29,43,-21,-16,8,8
-24,-39,-51,35,11,-43,31,42,-22,-17,8,7
-31,-39,-40,38,-5,-39,28,39,-23,-18,5,5
-39,-42,-34,43,-17,-39,29,39,-23,-19,5,4
-28,-36,-36,34,-5,-36,31,43,-21,-16,8,9
-28,-44,-55,39,10,-47,28,42,-23,-17,5,6
-32,-46,-53,42,4,-48,28,38,-24,-18,4,2
-32,-44,-49,41,0,-45,27,36,-22,-17,6,6
-22,-42,-59,36,19,-47,27,36,-22,-18,3,2
-24,-45,-64,38,20,-51,25,34,-23,-19,3,2
-35,-45,-47,43,-4,-45,29,39,-21,-17,8,4
-32,-42,-44,40,-2,-42,24,34,-23,-19,5,4
-34,-43,-44,41,-5,-43,24,36,-23,-19,5,2
-32,-37,-34,37,-10,-36,26,36,-22,-19,5,5
-33,-38,-34,38,-11,-37,29,38,-21,-18,6,6
-28,-40,-47,37,4,-42,24,30,-27,-22,2,-2
-24,-37,-47,33,8,-40,27,32,-24,-18,5,2
-26,-39,-47,36,5,-41,26,34,-24,-18,5,2
-24,-39,-51,35,11,-43,24,28,-27,-19,4,2
-26,-44,-57,38,12,-48,22,26,-27,-20,3,-2
-33,-42,-43,40,-5,-42,24,30,-23,-19,5,-2
-30,-40,-43,38,-2,-41,22,26,-27,-20,4,-2
-30,-46,-55,41,7,-49,25,26,-25,-21,4,-2
-37,-46,-44,45,-8,-45,25,26,-24,-20,4,0
-39,-50,-53,48,-5,-51,26,28,-23,-20,6,1
-21,-46,-70,38,27,-53,27,24,-25,-20,4,-2
-22,-38,-51,33,13,-42,29,24,-23,-21,4,0
-29,-45,-55,40,8,-48,29,26,-24,-20,5,0
-29,-47,-61,42,12,-52,27,21,-26,-21,2,-4
-26,-44,-57,38,12,-48,24,21,-28,-22,0,-4
-36,-46,-47,44,-5,-46,29,24,-22,-20,5,4
-30,-47,-59,43,10,-51,27,20,-25,-21,2,2
-26,-44,-57,38,12,-48,21,19,-26,-22,2,-1
-25,-45,-61,39,17,-50,23,19,-26,-21,2,0
-32,-43,-47,40,-1,-44,22,21,-24,-21,3,0
-29,-47,-59,42,11,-51,18,19,-27,-22,2,-2
-33,-47,-55,44,4,-50,21,20,-25,-20,2,-1
-32,-50,-64,45,11,-54,24,21,-25,-21,3,1
-28,-46,-59,40,13,-50,26,21,-25,-21,2,-1
-24,-43,-59,37,17,-48,22,18,-27,-21,3,1
-36,-49,-53,46,-1,-50,24,21,-23,-20,5,2
-30,-49,-64,44,13,-54,25,19,-27,-22,2,0
-33,-47,-55,44,4,-50,28,21,-25,-21,4,2
-33,-49,-59,45,7,-52,26,22,-24,-20,5,2
-37,-49,-53,47,-2,-50,26,21,-24,-21,5,1
-25,-44,-59,38,15,-49,20,20,-27,-22,5,0
-34,-41,-40,40,-7,-41,21,22,-24,-22,5,2
-35,-49,-55,45,2,-51,18,18,-27,-24,3,-1
-35,-47,-53,45,0,-49,18,19,-27,-24,2,-2
-35,-44,-44,42,-6,-44,19,20,-24,-23,2,-1
-37,-49,-53,47,-2,-50,22,24,-22,-21,5,2
-41,-51,-51,50,-8,-51,26,24,-22,-21,7,4
-21,-45,-68,37,26,-52,20,19,-28,-25,1,-2
-24,-43,-59,37,17,-48,25,21,-25,-23,5,2
-33,-47,-55,44,4,-50,28,24,-22,-23,5,1
-26,-47,-65,41,18,-53,20,21,-25,-25,2,-2
-32,-46,-53,42,4,-48,24,22,-22,-23,6,0
-37,-50,-55,47,-1,-52,21,22,-24,-24,4,-1
-35,-52,-64,47,8,-56,19,22,-24,-24,5,-1
-32,-47,-55,43,5,-49,21,22,-24,-25,3,-4
-36,-47,-49,45,-5,-47,21,22,-24,-24,4,-2
-33,-46,-51,43,1,-47,22,24,-24,-22,7,-1
-29,-42,-49,38,4,-44,18,20,-26,-24,2,-5
-34,-47,-53,44,1,-49,22,22,-24,-24,4,-2
-39,-47,-47,46,-8,-47,24,20,-24,-25,3,-4
-33,-49,-59,45,7,-52,20,17,-27,-25,3,-4
-34,-47,-53,44,1,-49,21,20,-26,-26,3,-5
-34,-50,-61,46,7,-54,25,22,-21,-24,7,-2
-25,-50,-74,42,25,-57,25,21,-22,-23,6,-1
-36,-55,-68,50,10,-59,24,17,-27,-25,3,-7
-42,-52,-53,51,-7,-52,24,21,-22,-23,4,-4
-26,-49,-68,42,20,-54,21,19,-24,-25,3,-5
-25,-46,-64,39,19,-51,19,15,-23,-25,3,-5
-29,-49,-65,43,15,-54,24,20,-21,-23,5,-4
-30,-46,-55,41,7,-49,25,19,-19,-23,5,-4
-22,-44,-64,37,21,-50,20,18,-22,-24,3,-4
-29,-45,-55,40,8,-48,25,18,-20,-24,6,-4
-42,-49,-44,48,-13,-47,26,16,-20,-23,4,-4
-26,-45,-59,39,14,-49,23,16,-21,-23,3,-4
-24,-42,-57,36,15,-46,22,13,-22,-24,2,-6
-32,-47,-55,43,5,-49,26,15,-20,-23,5,-4
-29,-49,-65,43,15,-54,24,12,-22,-25,3,-7
-25,-54,-82,45,31,-63,25,12,-19,-24,4,-4
-32,-52,-68,46,14,-57,27,15,-19,-23,5,-4
-31,-47,-57,42,7,-50,25,16,-20,-23,5,-2
-28,-49,-65,42,17,-54,23,13,-23,-24,4,-2
-29,-47,-61,42,12,-52,26,17,-20,-24,4,-2
-33,-47,-55,44,4,-50,28,20,-19,-23,8,-1
-25,-47,-68,40,21,-54,22,13,-22,-26,5,-4
-21,-47,-74,38,30,-55,22,13,-22,-26,3,-5
-29,-49,-64,43,14,-53,25,15,-20,-24,7,-1
-28,-47,-64,41,15,-52,22,11,-22,-26,5,-4
-26,-49,-68,42,20,-54,23,11,-22,-26,3,-4
-29,-49,-64,43,14,-53,25,10,-21,-25,4,-4
-30,-46,-55,41,7,-49,26,14,-21,-25,5,-4
-26,-47,-64,40,17,-52,24,11,-22,-24,5,-2
-31,-52,-70,46,17,-57,27,18,-18,-24,5,0
-29,-46,-57,41,10,-49,27,18,-17,-24,6,1
-26,-45,-59,39,14,-49,24,16,-19,-25,5,0
-28,-47,-64,41,15,-52,23,10,-21,-26,3,-2
-32,-47,-57,43,6,-50,27,14,-19,-25,5,-1
-28,-46,-59,40,13,-50,22,9,-21,-27,1,-4
-24,-47,-68,39,23,-53,19,4,-22,-26,2,-4
-35,-53,-65,48,10,-57,24,9,-19,-25,3,-2
-30,-46,-55,41,7,-49,28,10,-19,-24,5,-4
-29,-47,-61,42,12,-52,22,4,-21,-26,3,-6
-26,-50,-72,43,23,-57,27,10,-18,-24,5,-2
-35,-52,-64,47,8,-56,31,14,-16,-23,7,0
-37,-52,-59,49,2,-54,29,11,-19,-26,5,-2
-31,-49,-61,44,11,-52,28,7,-21,-26,5,-4
-39,-52,-57,49,-1,-54,29,13,-19,-25,7,0
-33,-47,-55,44,4,-50,29,8,-19,-25,6,-1
-26,-53,-78,45,27,-60,27,3,-23,-27,2,-6
-29,-51,-70,45,18,-57,27,9,-20,-26,6,-6
-30,-55,-76,47,21,-61,27,8,-19,-25,6,-2
-25,-50,-74,42,25,-57,25,6,-19,-26,5,-5
-36,-49,-55,46,1,-51,27,10,-16,-23,7,-4
-29,-45,-55,40,8,-48,27,12,-16,-23,6,-5
-23,-49,-74,40,29,-56,29,13,-15,-24,9,-2
-29,-49,-65,43,15,-54,31,10,-17,-24,9,-5
-28,-49,-65,42,17,-54,29,12,-15,-24,11,-1
-28,-49,-68,43,19,-55,25,10,-19,-25,8,-4
-26,-50,-72,43,23,-57,22,8,-20,-26,5,-6
-28,-51,-72,44,21,-57,25,10,-18,-25,10,-1
-28,-54,-78,46,25,-61,27,13,-16,-25,8,0
-26,-55,-82,45,30,-63,25,7,-20,-27,4,-5
-28,-51,-72,44,21,-57,29,11,-19,-26,8,-4
-25,-52,-76,43,27,-59,29,15,-17,-24,11,2
-21,-50,-80,40,35,-59,26,13,-20,-26,8,-2
-21,-49,-75,39,31,-57,24,10,-20,-26,7,-3
-30,-52,-71,45,19,-58,28,17,-16,-24,9,0
-26,-49,-68,42,20,-54,25,14,-18,-26,8,-2
-13,-44,-78,33,42,-54,28,18,-16,-23,9,-1
-12,-39,-70,30,37,-49,31,22,-12,-23,13,2
-12,-39,-70,30,37,-49,27,21,-13,-24,11,1
-6,-34,-65,24,40,-43,27,18,-12,-24,11,1
-11,-32,-54,25,26,-38,29,19,-11,-24,12,4
-17,-37,-58,31,24,-43,32,22,-8,-21,14,3
-7,-36,-68,26,40,-45,32,24,-7,-22,13,5
-10,-37,-68,28,38,-46,31,20,-10,-24,12,2
-19,-37,-54,32,18,-42,34,22,-9,-23,13,3
-12,-29,-45,23,19,-34,33,19,-7,-22,14,3
-11,-26,-41,21,18,-30,32,17,-11,-23,13,2
-6,-26,-49,19,29,-33,30,17,-10,-22,13,3
-9,-24,-39,19,18,-28,28,13,-10,-21,16,5
-1,-23,-49,15,35,-31,21,7,-11,-22,13,4
-1,-19,-40,12,29,-25,17,11,-7,-21,14,5
-3,-21,-40,14,25,-26,19,15,-1,-18,20,12
8,-26,-70,13,58,-39,16,20,1,-18,19,12
7,-27,-70,14,57,-40,17,19,0,-17,21,12
-1,-37,-80,23,57,-50,18,21,-1,-19,17,12
1,-41,-92,26,67,-57,15,17,-7,-21,14,10
8,-36,-90,19,73,-52,17,12,-7,-23,13,7
2,-34,-78,20,58,-47,16,13,-9,-22,14,10
-1,-46,-101,29,71,-63,23,17,-6,-21,17,10
7,-39,-97,22,76,-57,21,13,-9,-22,15,8
8,-36,-90,19,73,-52,22,13,-8,-22,17,12
1,-41,-92,26,67,-57,23,13,-9,-21,18,12
-2,-43,-93,28,64,-58,20,12,-9,-23,17,12
8,-36,-90,19,73,-52,20,9,-9,-22,19,13
-10,-43,-80,32,45,-54,22,13,-6,-21,16,11
-18,-46,-74,36,33,-54,24,11,-7,-23,14,6
-26,-52,-76,44,26,-59,25,4,-14,-27,8,-1
-39,-52,-55,49,-2,-53,26,5,-15,-28,8,-5
-42,-57,-64,53,0,-59,29,3,-15,-27,8,-3
-38,-62,-80,55,15,-67,31,3,-19,-27,5,-7
-41,-60,-71,55,7,-63,31,2,-20,-28,4,-6
-45,-61,-67,57,0,-63,31,0,-21,-29,4,-6
-38,-59,-74,53,12,-64,26,0,-20,-28,5,-5
-33,-56,-75,49,19,-62,24,1,-20,-28,7,-3
-36,-57,-71,51,12,-61,27,2,-18,-27,7,-4
-33,-58,-80,50,21,-65,22,-2,-21,-29,7,-4
-31,-58,-82,49,25,-65,25,0,-21,-30,7,-4
-36,-60,-78,53,17,-65,29,-2,-18,-30,7,-5
-40,-61,-76,55,12,-66,31,3,-19,-28,7,-4
-32,-61,-86,51,27,-68,27,-5,-25,-32,1,-11
-37,-61,-78,54,15,-66,32,-2,-22,-29,5,-6
-37,-60,-76,53,14,-65,31,-2,-24,-31,2,-8
-39,-61,-75,54,12,-65,29,-4,-25,-31,2,-9
-40,-62,-78,56,12,-67,24,-6,-26,-32,0,-9
-41,-60,-71,55,7,-63,30,-2,-21,-29,5,-3
-39,-65,-86,57,20,-71,25,0,-22,-29,5,-5
-39,-64,-82,56,17,-69,24,-8,-26,-33,0,-10
-41,-64,-80,57,13,-68,24,-5,-24,-31,3,-7
-40,-63,-80,56,14,-68,27,-7,-24,-31,-1,-11
-36,-62,-85,54,21,-69,23,-10,-28,-33,-3,-14
-40,-61,-74,55,10,-65,28,-6,-24,-31,1,-11
-44,-62,-72,58,4,-65,28,-6,-27,-31,2,-10
-35,-66,-95,56,30,-75,28,-5,-23,-29,2,-9
-35,-59,-78,51,18,-65,25,-4,-24,-29,1,-12
-42,-59,-67,54,2,-61,26,-5,-21,-27,5,-9
-37,-64,-86,56,21,-71,25,-5,-22,-26,7,-10
-36,-67,-95,57,29,-75,24,-5,-22,-26,5,-9
-41,-65,-82,58,14,-70,23,-5,-21,-24,6,-9
-40,-59,-71,54,8,-63,25,-6,-20,-23,9,-6
-30,-63,-95,52,35,-73,25,-6,-21,-24,6,-7
-40,-64,-82,57,15,-70,21,-7,-21,-24,6,-5
-46,-62,-70,58,0,-65,24,-3,-18,-23,8,-8
-38,-60,-75,53,13,-65,21,-7,-20,-24,5,-8
-36,-60,-78,53,17,-65,17,-7,-21,-24,4,-9
-43,-64,-76,58,8,-67,22,-3,-18,-22,8,-6
-32,-54,-72,47,17,-59,28,-1,-18,-23,6,-10
-44,-59,-66,56,0,-61,32,-4,-25,-29,-2,-18
-53,-62,-58,62,-17,-61,45,10,-21,-30,-4,-21
-62,-67,-55,68,-27,-63,62,21,-19,-34,-12,-29
-72,-75,-59,77,-35,-70,75,34,-21,-38,-22,-40
-79,-79,-57,83,-44,-72,90,52,-22,-42,-26,-45
-88,-79,-43,87,-64,-68,97,59,-21,-42,-27,-44
-87,-74,-33,83,-70,-61,94,54,-21,-41,-28,-46
-83,-67,-23,77,-73,-54,95,52,-19,-40,-26,-43
-77,-53,-1,66,-82,-37,94,64,1,-28,-11,-29
-43,-44,-33,46,-23,-40,82,82,25,-11,11,-9
7,-19,-53,10,45,-29,67,104,62,16,47,23
48,18,-33,-31,76,3,46,99,90,45,89,65
100,57,-23,-77,126,33,-5,61,103,79,138,115
174,107,-24,-139,206,67,-56,32,131,121,192,169
227,151,-5,-189,250,103,-126,12,172,170,254,231
286,217,52,-254,273,166,-193,-34,204,211,307,285
335,282,125,-315,274,234,-268,-96,225,246,350,326
368,330,181,-359,270,284,-326,-153,230,272,387,360
373,349,215,-373,251,308,-362,-201,231,290,409,383
377,326,158,-360,295,274,-372,-223,247,306,417,386
369,287,83,-333,340,224,-366,-212,273,317,412,379
313,240,64,-280,294,186,-338,-192,296,318,389,351
267,209,62,-241,245,164,-309,-167,303,306,362,322
232,152,-9,-192,257,103,-283,-155,271,268,312,277
171,81,-76,-122,239,33,-234,-145,197,202,235,208
100,22,-101,-56,181,-15,-193,-153,105,122,153,137
35,-26,-111,2,118,-52,-151,-159,15,49,80,71
-8,-64,-130,43,85,-84,-119,-162,-70,-18,23,18
-40,-100,-162,79,71,-119,-81,-136,-107,-51,-10,-10
-37,-108,-184,83,90,-131,-63,-112,-106,-58,-19,-22
-34,-108,-191,82,100,-134,-51,-87,-93,-53,-15,-22
-32,-100,-174,76,89,-122,-41,-69,-79,-46,-9,-17
-31,-92,-157,70,79,-112,-32,-55,-68,-41,-7,-18
-28,-89,-155,67,80,-109,-22,-41,-57,-36,-3,-15
-33,-89,-149,70,70,-107,-12,-29,-50,-35,-4,-15
-39,-86,-132,70,52,-100,-1,-17,-37,-31,-1,-14
-38,-90,-142,72,61,-106,10,-9,-27,-28,2,-11
-36,-83,-130,67,54,-97,11,-7,-22,-29,-2,-17
-43,-77,-107,66,30,-86,17,-1,-16,-28,0,-15
-39,-77,-113,65,38,-88,17,4,-18,-27,0,-17
-37,-70,-99,59,30,-79,19,6,-19,-29,0,-17
-40,-68,-90,59,21,-75,21,8,-21,-29,1,-16
-45,-70,-88,63,14,-75,18,8,-21,-29,1,-17
-34,-64,-92,54,30,-73,17,3,-22,-29,2,-14
-32,-59,-84,51,25,-67,20,4,-22,-28,4,-14
-42,-65,-82,58,13,-70,26,9,-15,-26,4,-12
-36,-63,-86,55,23,-70,22,6,-12,-26,3,-13
-42,-65,-82,58,13,-70,24,10,-10,-26,2,-15
-51,-66,-70,63,-6,-67,26,13,-9,-26,2,-14
-40,-61,-74,55,10,-65,24,16,-8,-26,4,-13
-41,-62,-75,56,8,-66,22,12,-12,-28,3,-16
-40,-60,-72,54,8,-64,22,12,-15,-27,3,-13
-40,-67,-89,59,20,-74,26,14,-14,-27,3,-11
-39,-60,-74,54,11,-64,19,7,-20,-30,-2,-16
-39,-60,-74,54,11,-64,19,8,-17,-28,1,-13
-39,-64,-82,56,17,-69,26,11,-10,-25,4,-11
-40,-64,-82,57,15,-70,25,11,-10,-25,3,-11
-33,-62,-89,53,27,-70,29,14,-7,-25,6,-11
-37,-57,-70,51,11,-61,29,16,-6,-24,7,-11
-37,-56,-68,51,8,-59,27,15,-7,-25,6,-11
-33,-55,-74,48,18,-61,25,15,-7,-25,5,-13
-41,-58,-66,54,2,-60,25,14,-10,-26,5,-12
-40,-61,-74,55,10,-65,25,17,-11,-26,8,-12
-35,-58,-76,51,17,-64,20,12,-14,-27,6,-14
-35,-54,-68,49,11,-58,19,11,-14,-27,5,-12
-41,-64,-80,58,13,-69,23,14,-10,-25,6,-11
-34,-59,-79,51,19,-65,21,12,-10,-25,5,-12
-33,-55,-72,48,15,-60,21,11,-8,-25,5,-11
-35,-50,-57,46,2,-52,24,15,-3,-23,10,-9
-33,-50,-62,45,8,-54,20,14,-6,-24,8,-9
-34,-59,-79,51,19,-65,21,16,-5,-22,12,-8
-34,-58,-78,51,19,-64,21,15,-6,-23,10,-8
-39,-59,-72,53,10,-63,21,18,-6,-23,10,-9
-34,-57,-76,50,18,-63,15,10,-10,-25,9,-11
-36,-60,-79,52,18,-66,17,13,-8,-25,7,-11
-33,-55,-72,48,15,-60,18,14,-6,-22,8,-7
-30,-58,-83,49,26,-66,18,12,-7,-24,7,-11
-30,-59,-85,50,27,-67,19,13,-6,-23,7,-7
-37,-58,-72,52,11,-62,25,17,-2,-22,9,-7
-33,-55,-72,48,15,-60,22,18,-1,-22,9,-6
-28,-51,-72,44,21,-57,18,17,-5,-23,7,-9
-34,-57,-76,50,18,-63,17,20,-2,-22,8,-4
-35,-58,-76,51,17,-64,21,24,-1,-20,11,-5
-22,-51,-80,41,33,-60,19,20,-2,-21,8,-7
-28,-53,-75,45,24,-60,19,22,-1,-20,10,-6
-32,-55,-74,48,18,-60,21,19,-3,-22,9,-8
-23,-54,-86,44,37,-64,19,20,-2,-21,11,-4
-21,-53,-86,43,38,-64,19,17,-2,-22,7,-7
-34,-52,-65,47,11,-56,23,22,1,-20,11,-2
-31,-55,-75,48,19,-61,20,21,2,-20,11,-2
-26,-53,-79,45,27,-61,16,22,0,-20,9,-8
-32,-54,-72,47,17,-59,20,25,4,-19,12,-5
-26,-49,-70,42,21,-55,19,24,4,-19,14,-2
-18,-47,-76,37,35,-56,16,22,2,-20,11,-5
-25,-47,-65,40,19,-52,16,24,4,-19,13,-4
-26,-49,-68,42,20,-54,17,26,5,-18,14,-1
-21,-49,-76,39,32,-57,16,25,7,-18,12,0
-22,-52,-83,42,36,-61,13,21,3,-18,10,-4
-28,-52,-74,45,23,-59,17,24,7,-17,11,-2
-23,-49,-74,40,29,-56,18,24,7,-18,11,-4
-23,-48,-72,39,27,-55,17,22,5,-17,11,-4
-30,-49,-62,43,12,-53,20,26,9,-16,13,0
-25,-49,-70,41,23,-55,16,27,9,-16,13,-2
-17,-47,-79,36,38,-56,14,24,7,-17,13,-4
-28,-46,-59,40,13,-50,16,28,9,-15,15,-1
-24,-45,-64,38,20,-51,18,32,12,-15,15,1
-25,-45,-62,38,18,-50,16,28,10,-15,16,-1
-21,-43,-64,36,23,-49,12,29,13,-15,17,-1
-22,-44,-64,37,21,-50,15,36,18,-12,19,2
-23,-43,-61,37,19,-49,13,36,17,-12,18,4
-19,-41,-62,34,24,-48,13,35,18,-12,17,0
-20,-43,-65,35,25,-50,12,37,20,-10,21,2
-22,-40,-55,34,15,-44,18,39,20,-10,21,2
-11,-36,-64,27,33,-44,12,36,23,-11,20,3
-19,-37,-54,32,18,-42,13,41,24,-9,22,5
-17,-36,-53,30,19,-41,17,45,29,-8,26,9
-17,-37,-55,30,21,-42,14,43,28,-8,22,5
-10,-33,-58,25,31,-40,12,41,28,-7,23,7
-15,-32,-47,26,17,-36,14,47,34,-4,25,10
-14,-36,-57,28,25,-42,9,44,34,-5,25,8
-13,-27,-40,22,15,-31,15,45,37,-2,27,9
-12,-30,-49,24,23,-36,14,50,44,1,31,15
-12,-30,-49,24,23,-36,14,53,43,2,33,16
-3,-26,-53,18,35,-34,9,51,44,2,33,13
-1,-22,-49,14,35,-30,11,57,47,4,34,17
-7,-23,-41,18,23,-28,11,59,51,7,35,19
1,-19,-44,12,33,-27,14,58,51,8,35,18
0,-17,-37,11,26,-23,9,60,55,9,38,20
-4,-19,-34,14,20,-23,12,67,61,12,41,25
0,-18,-39,11,27,-24,11,66,65,14,41,25
8,-14,-43,6,39,-23,8,67,65,14,42,24
7,-8,-28,2,29,-14,12,76,75,19,48,31
9,-9,-34,2,35,-17,12,80,80,23,54,35
19,-6,-40,-4,49,-16,9,79,80,23,53,33
21,4,-22,-11,39,-3,9,84,86,26,58,37
19,-2,-32,-6,43,-11,11,87,90,28,62,44
31,2,-43,-14,65,-11,11,89,95,32,64,46
31,6,-32,-16,57,-5,9,94,101,34,65,48
34,8,-32,-19,60,-4,11,97,108,38,70,52
33,10,-26,-19,55,-1,5,98,113,42,73,55
38,13,-28,-24,62,1,5,101,116,43,73,55
34,14,-19,-22,51,4,5,105,124,48,80,60
41,20,-18,-29,58,9,4,109,128,51,82,63
53,27,-20,-38,73,13,3,110,133,55,88,68
55,29,-18,-40,73,15,-0,116,139,59,93,73
52,35,-1,-43,58,24,-3,120,145,61,98,78
64,37,-13,-50,80,22,-2,123,151,65,103,84
62,37,-11,-48,75,22,-6,122,152,67,104,86
62,38,-8,-50,74,25,-3,127,157,70,109,91
68,42,-9,-54,81,26,-6,127,162,73,114,92
72,47,-3,-58,81,32,-8,128,166,75,115,94
77,50,-5,-63,88,33,-5,134,170,78,118,97
73,52,5,-62,76,38,-5,135,173,82,125,103
80,55,3,-67,85,40,-10,135,177,85,128,105
87,64,12,-75,86,48,-9,136,181,87,130,106
85,67,20,-77,79,53,-8,140,184,89,133,111
90,64,8,-77,93,47,-13,137,186,90,133,111
95,67,5,-81,100,48,-14,138,187,91,136,112
96,71,14,-84,94,54,-8,141,192,94,139,117
99,71,9,-85,101,52,-13,141,193,94,141,117
95,68,9,-82,96,50,-17,138,193,95,140,115
94,71,18,-83,89,55,-15,141,193,97,142,119
94,72,18,-83,89,56,-13,143,195,98,145,123
98,71,12,-84,98,53,-16,140,192,98,144,121
95,73,20,-84,89,57,-14,138,194,97,146,119
91,68,16,-80,88,53,-13,135,188,96,143,119
96,75,22,-86,89,59,-13,134,186,95,143,118
103,75,12,-89,104,56,-18,126,179,91,138,115
90,71,23,-82,82,56,-12,129,177,91,139,117
96,75,23,-86,88,59,-13,122,172,89,133,112
89,71,24,-81,80,57,-15,116,162,83,128,106
83,68,28,-77,70,56,-10,118,159,81,127,109
77,56,10,-66,76,42,-10,114,151,77,122,106
78,56,8,-67,80,41,-5,109,145,73,117,98
72,52,9,-62,71,39,-4,105,137,67,113,94
60,45,10,-52,58,35,-1,103,132,63,109,90
57,44,12,-51,55,34,-3,94,120,57,104,85
63,39,-7,-50,74,25,-2,88,111,52,97,81
47,32,1,-39,51,23,2,85,104,48,92,75
44,29,-1,-36,49,20,0,78,97,43,85,68
42,23,-12,-32,55,13,2,72,89,38,77,62
39,22,-9,-29,49,12,6,72,84,37,78,62
28,11,-16,-18,42,3,8,68,77,31,70,56
24,9,-15,-15,38,2,5,60,69,27,64,50
22,7,-16,-13,36,1,8,58,64,23,62,49
14,-2,-24,-4,32,-8,7,56,59,20,58,45
10,-2,-19,-3,25,-7,7,51,52,16,53,38
15,1,-20,-6,31,-5,4,41,44,12,47,33
4,-8,-24,4,23,-13,10,42,42,9,45,32
3,-10,-28,6,24,-15,11,37,36,6,40,26
5,-15,-40,7,35,-22,9,33,32,4,36,22
-6,-22,-41,17,24,-28,11,30,30,2,32,21
-6,-21,-36,16,19,-25,12,30,28,0,32,20
-3,-24,-47,16,30,-30,11,25,22,-3,29,13
0,-23,-51,15,37,-32,12,25,20,-4,28,12
-15,-34,-51,28,20,-39,13,24,20,-5,29,12
-11,-36,-62,27,32,-43,10,20,15,-8,25,8
-3,-31,-64,20,43,-41,10,16,12,-10,23,9
-18,-39,-59,32,23,-45,11,19,12,-10,25,11
-21,-45,-68,37,26,-52,9,15,8,-9,20,5
-4,-37,-76,26,50,-49,10,16,10,-10,22,7
-13,-34,-57,27,27,-41,11,15,8,-11,19,5
-18,-39,-59,32,23,-45,11,13,6,-11,20,5
-11,-42,-76,31,43,-52,9,9,5,-14,18,4
-14,-41,-70,32,35,-50,12,11,6,-13,20,4
-18,-40,-61,33,24,-46,12,9,4,-14,19,2
-15,-49,-85,37,44,-59,14,9,4,-14,20,4
-10,-42,-78,31,45,-53,14,7,2,-16,18,2
-14,-47,-85,36,45,-59,17,11,3,-15,19,4
-19,-46,-72,37,31,-54,15,7,1,-16,15,1
-17,-47,-80,37,39,-57,16,3,-1,-16,12,-1
-18,-46,-74,36,33,-54,15,5,0,-17,13,-1
-21,-49,-76,39,32,-57,17,6,3,-15,16,2
-17,-47,-80,37,39,-57,14,4,1,-17,12,-2
-17,-42,-68,33,31,-50,15,5,1,-16,14,0
-24,-47,-68,39,23,-53,14,3,1,-16,14,2
-15,-46,-78,35,39,-55,14,4,-1,-18,13,-2
-17,-46,-76,36,37,-55,14,-1,-3,-20,10,-4
-17,-47,-80,37,39,-57,17,3,0,-19,12,-1
-24,-49,-72,40,26,-56,16,4,-1,-19,12,1
-14,-45,-78,34,40,-55,17,2,-2,-19,11,-1
-19,-49,-80,39,37,-59,17,7,0,-18,12,2
-22,-49,-76,40,31,-57,18,7,2,-17,13,1
-15,-46,-78,35,39,-55,16,5,2,-18,13,1
-17,-49,-85,38,43,-60,14,4,0,-18,14,2
-21,-49,-78,40,33,-58,20,6,3,-18,16,4
-17,-47,-78,37,37,-56,15,4,0,-19,14,2
-17,-46,-76,36,37,-55,18,4,-1,-18,17,2
-21,-47,-72,38,29,-54,19,4,-1,-20,12,0
-17,-45,-74,35,35,-54,18,3,-2,-21,11,-2
-15,-41,-68,32,32,-49,17,4,-2,-21,11,-2
-18,-43,-68,35,29,-51,18,5,0,-20,12,-2
-22,-42,-59,36,19,-47,18,4,2,-19,11,-1
-17,-36,-55,30,21,-42,14,2,-1,-20,11,-2
-18,-37,-55,31,20,-43,16,3,0,-19,13,2
-25,-41,-53,37,11,-44,16,1,-1,-19,14,2
-15,-41,-68,32,32,-49,16,-1,-1,-19,12,0
-10,-39,-72,29,40,-49,18,0,-1,-19,13,2
-21,-42,-61,35,21,-48,23,-1,-1,-21,11,-1
-14,-38,-64,30,31,-46,21,-1,-1,-21,11,-1
-15,-37,-59,30,26,-44,20,1,-3,-21,12,-2
-18,-42,-65,34,27,-49,24,4,0,-19,13,2
-21,-41,-59,35,20,-46,26,2,-1,-19,12,1
-15,-37,-59,30,26,-44,21,1,-1,-19,13,2
-18,-37,-55,31,20,-43,19,-1,-3,-21,12,0
-19,-34,-47,30,13,-38,21,-2,-3,-19,13,2
-14,-42,-72,32,37,-51,22,-4,-3,-20,12,2
-13,-37,-64,29,32,-45,16,-7,-6,-23,11,0
-21,-36,-47,31,11,-39,18,-4,-5,-22,11,-1
-18,-36,-53,31,18,-41,17,-7,-6,-21,11,2
-20,-39,-57,33,19,-44,17,-7,-6,-22,11,0
-21,-39,-55,33,17,-44,19,-6,-6,-19,12,2
-25,-41,-53,37,11,-44,23,-5,-5,-19,14,4
-20,-37,-53,32,17,-42,20,-11,-8,-19,13,2
-17,-39,-61,32,25,-46,18,-9,-6,-20,12,2
-21,-38,-53,33,15,-42,20,-10,-6,-21,13,4
-13,-36,-61,28,30,-44,15,-15,-8,-22,12,1
-13,-41,-72,31,38,-51,16,-11,-8,-23,12,2
-23,-39,-53,34,13,-43,16,-12,-8,-23,13,1
-21,-40,-57,34,18,-45,15,-13,-9,-24,12,1
-13,-37,-64,29,32,-45,14,-13,-12,-23,11,1
-18,-41,-64,33,26,-48,16,-16,-13,-23,10,2
-19,-38,-55,32,19,-43,17,-14,-13,-21,12,2
-17,-37,-57,31,23,-43,16,-16,-14,-22,11,2
-15,-37,-59,30,26,-44,12,-19,-15,-23,11,4
-24,-39,-51,35,11,-43,17,-16,-13,-22,11,4
-17,-39,-61,32,25,-46,12,-22,-19,-24,9,0
-14,-36,-59,29,27,-43,14,-20,-19,-23,11,4
-14,-37,-61,30,29,-44,15,-20,-16,-23,11,1
-18,-36,-53,31,18,-41,12,-22,-19,-23,8,1
-15,-36,-57,29,24,-42,12,-22,-19,-26,8,-2
-21,-36,-47,31,11,-39,10,-22,-19,-25,11,2
-22,-40,-55,34,15,-44,11,-21,-19,-26,9,2
-18,-39,-59,32,23,-45,7,-24,-19,-25,8,-4
-17,-38,-59,31,25,-44,6,-26,-22,-26,8,0
-18,-44,-70,35,30,-52,11,-22,-22,-25,12,1
-21,-41,-59,35,20,-46,11,-24,-22,-26,10,-1
-15,-42,-70,33,33,-50,11,-26,-22,-26,10,0
-21,-41,-59,35,20,-46,11,-28,-22,-26,11,2
-20,-43,-65,35,25,-50,11,-26,-21,-25,10,2
-11,-36,-64,27,33,-44,9,-28,-22,-26,11,2
-17,-40,-64,32,27,-47,9,-28,-24,-26,9,0
-22,-42,-59,36,19,-47,9,-32,-24,-27,10,0
-17,-40,-64,32,27,-47,9,-34,-27,-29,6,-4
-21,-44,-65,36,24,-50,7,-32,-27,-28,7,-2
-25,-44,-59,38,15,-49,12,-32,-23,-27,9,0
-15,-47,-80,36,40,-57,8,-34,-27,-27,8,-2
-15,-46,-78,35,39,-55,9,-32,-28,-27,8,-4
-18,-47,-78,38,36,-57,5,-32,-28,-27,8,-2
-18,-42,-65,34,27,-49,7,-34,-29,-27,9,-2
-10,-44,-82,32,48,-55,4,-36,-30,-28,8,-4
-14,-39,-65,31,31,-47,6,-38,-32,-28,8,-2
-21,-47,-72,38,29,-54,9,-32,-29,-27,9,1
-21,-44,-65,36,24,-50,6,-34,-31,-27,8,-4
-22,-44,-64,37,21,-50,5,-36,-31,-28,7,-4
-22,-46,-68,38,25,-52,7,-36,-29,-27,9,-4
-22,-44,-64,37,21,-50,7,-36,-30,-28,8,-2
-25,-47,-68,40,21,-54,4,-36,-31,-29,6,-5
-17,-40,-64,32,27,-47,3,-38,-32,-29,6,-1
-23,-50,-78,41,31,-59,4,-38,-32,-29,7,-4
-15,-45,-76,35,38,-54,3,-42,-32,-30,5,-4
-15,-40,-65,32,30,-48,4,-41,-33,-30,5,-4
-24,-40,-53,35,12,-44,5,-41,-34,-30,5,-4
-17,-47,-78,37,37,-56,8,-40,-32,-29,5,-2
-21,-47,-72,38,29,-54,7,-41,-31,-29,5,-2
-25,-47,-68,40,21,-54,11,-39,-30,-28,6,-2
-21,-43,-64,36,23,-49,3,-45,-34,-31,1,-9
-26,-47,-64,40,17,-52,1,-47,-36,-31,-1,-11
-21,-46,-70,38,27,-53,3,-48,-34,-30,2,-6
-21,-46,-70,38,27,-53,1,-49,-35,-32,1,-9
-18,-46,-74,36,33,-54,0,-48,-33,-30,2,-6
-23,-43,-61,37,19,-49,3,-46,-32,-30,5,-4
-25,-44,-59,38,15,-49,-0,-46,-31,-29,4,-4
-19,-42,-64,34,25,-49,1,-48,-33,-29,5,-4
-18,-43,-68,35,29,-51,2,-46,-31,-29,5,-2
-25,-46,-64,39,19,-51,5,-48,-32,-28,5,-2
-20,-45,-70,37,29,-52,6,-49,-35,-31,-1,-9
-19,-44,-68,36,27,-51,5,-55,-38,-33,0,-10
-20,-43,-65,35,25,-50,8,-52,-35,-31,0,-9
-26,-46,-61,40,15,-50,8,-51,-35,-30,1,-9
-21,-42,-61,35,21,-48,10,-53,-37,-32,2,-9
-24,-43,-59,37,17,-48,7,-54,-36,-31,2,-4
-25,-45,-61,39,17,-50,7,-50,-35,-31,5,-2
-21,-43,-64,36,23,-49,6,-51,-35,-30,2,-6
-22,-44,-64,37,21,-50,6,-54,-35,-31,2,-6
-22,-47,-72,39,27,-55,5,-47,-32,-29,5,-2
-21,-42,-61,35,21,-48,5,-54,-36,-33,2,-7
-15,-43,-72,33,35,-52,1,-57,-40,-33,0,-7
-21,-47,-72,38,29,-54,2,-55,-38,-32,3,-5
-17,-47,-78,37,37,-56,3,-58,-37,-32,2,-6
-18,-49,-80,38,38,-58,2,-59,-39,-33,3,-6
-18,-46,-74,36,33,-54,6,-55,-36,-32,2,-4
-25,-50,-74,42,25,-57,4,-60,-38,-31,3,-5
-20,-45,-70,37,29,-52,5,-57,-37,-32,2,-6
-15,-41,-68,32,32,-49,1,-58,-39,-32,2,-5
-18,-41,-64,33,26,-48,0,-56,-37,-32,5,-2
-14,-43,-74,33,37,-52,1,-59,-38,-32,2,-4
-14,-44,-76,33,39,-54,2,-60,-38,-33,3,-8
-18,-44,-70,35,30,-52,2,-57,-38,-33,5,-4
-18,-43,-68,35,29,-51,6,-59,-35,-32,5,-4
-17,-47,-78,37,37,-56,2,-63,-40,-33,3,-7
-18,-44,-70,35,30,-52,6,-62,-39,-34,2,-5
-23,-45,-65,38,23,-51,5,-58,-37,-33,5,-6
-19,-44,-68,36,27,-51,5,-62,-38,-33,1,-7
-18,-47,-78,38,36,-57,6,-60,-37,-32,4,-4
-21,-47,-74,38,30,-55,10,-59,-35,-32,4,-4
-21,-47,-72,38,29,-54,6,-62,-40,-33,2,-6
-21,-43,-64,36,23,-49,5,-59,-38,-32,2,-6
-21,-47,-72,38,29,-54,1,-61,-39,-33,2,-6
-21,-49,-76,39,32,-57,6,-58,-35,-33,2,-5
-17,-47,-78,37,37,-56,5,-60,-36,-33,3,-6
-24,-46,-65,38,21,-52,5,-61,-36,-32,2,-5
-26,-44,-57,38,12,-48,8,-56,-34,-32,3,-4
-25,-45,-61,39,17,-50,2,-59,-38,-32,2,-8
-24,-46,-65,38,21,-52,4,-60,-39,-33,2,-7
-22,-42,-59,36,19,-47,5,-57,-35,-31,5,-4
-21,-40,-57,34,18,-45,1,-59,-38,-32,4,-5
-19,-40,-59,33,21,-46,2,-61,-40,-34,1,-8
-32,-47,-57,43,6,-50,2,-62,-40,-33,3,-6
-29,-47,-59,42,11,-51,2,-62,-41,-35,0,-8
-29,-45,-55,40,8,-48,1,-63,-40,-35,-1,-9
-28,-42,-51,38,7,-44,0,-62,-39,-35,1,-8
-30,-46,-55,41,7,-49,4,-59,-38,-33,2,-5
-26,-41,-51,37,8,-44,5,-57,-37,-32,2,-6
-25,-39,-49,35,7,-42,1,-60,-38,-33,4,-8
-26,-42,-53,38,10,-45,3,-57,-35,-31,6,-4
-29,-44,-53,40,6,-46,-0,-60,-41,-34,1,-9
-25,-41,-53,37,11,-44,-2,-59,-39,-33,2,-6
-29,-40,-44,38,0,-41,-0,-55,-39,-31,4,-6
-28,-41,-49,38,5,-43,-2,-60,-40,-33,5,-4
-25,-46,-64,39,19,-51,-3,-62,-40,-34,2,-6
-26,-43,-55,38,11,-46,-2,-57,-36,-33,2,-4
-35,-44,-44,42,-6,-44,-2,-62,-39,-34,2,-5
-23,-43,-61,37,19,-49,3,-58,-35,-32,5,-5
-24,-44,-61,38,18,-49,1,-57,-36,-33,5,-4
-26,-45,-59,39,14,-49,0,-54,-35,-32,5,-4
-19,-42,-64,34,25,-49,1,-58,-37,-34,0,-6
-20,-43,-65,35,25,-50,-3,-57,-39,-34,2,-7
-26,-47,-64,40,17,-52,-2,-56,-35,-33,2,-7
-26,-42,-53,38,10,-45,-3,-56,-38,-34,1,-9
-29,-47,-59,42,11,-51,-7,-61,-40,-34,2,-8
-29,-47,-61,42,12,-52,-2,-56,-39,-34,4,-6
-34,-49,-57,45,5,-51,1,-53,-39,-34,5,-6
-25,-46,-64,39,19,-51,-3,-57,-40,-34,4,-6
-26,-46,-61,40,15,-50,-4,-56,-40,-33,5,-6
-28,-47,-64,41,15,-52,-2,-53,-35,-32,5,-6
-23,-45,-65,38,23,-51,-3,-57,-38,-33,4,-9
-24,-45,-64,38,20,-51,-6,-56,-39,-35,3,-10
-26,-47,-64,40,17,-52,-7,-56,-36,-33,4,-8
-25,-46,-64,39,19,-51,-6,-56,-36,-33,3,-10
-28,-42,-51,38,7,-44,-9,-58,-39,-36,1,-11
-26,-44,-57,38,12,-48,-8,-56,-40,-35,-1,-10
-29,-43,-51,39,5,-45,-4,-56,-40,-35,0,-10
-24,-41,-55,36,14,-45,-6,-57,-40,-36,1,-10
-28,-47,-61,41,13,-51,-5,-56,-40,-35,2,-11
-31,-43,-49,40,1,-44,-3,-56,-38,-34,3,-6
-25,-44,-59,38,15,-49,-4,-59,-40,-35,2,-11
-20,-41,-61,34,23,-47,-2,-56,-36,-32,5,-10
-24,-46,-65,38,21,-52,-5,-57,-36,-32,5,-7
-25,-50,-74,42,25,-57,-3,-56,-35,-33,4,-9
-24,-39,-51,35,11,-43,-5,-60,-38,-35,2,-13
-28,-45,-57,40,11,-49,-9,-57,-35,-32,4,-8
-26,-41,-51,37,8,-44,-7,-59,-37,-33,2,-9
-25,-42,-55,37,13,-46,-10,-59,-38,-33,3,-8
-24,-41,-55,36,14,-45,-8,-59,-37,-33,4,-8
-28,-45,-57,40,11,-49,-7,-58,-40,-33,2,-7
-24,-45,-64,38,20,-51,-8,-58,-40,-33,2,-8
-21,-41,-59,35,20,-46,-7,-60,-40,-34,3,-9
-22,-46,-68,38,25,-52,-8,-59,-40,-33,4,-8
-21,-46,-70,38,27,-53,-11,-59,-40,-33,4,-9
-26,-43,-55,38,11,-46,-9,-59,-43,-34,2,-11
-31,-43,-49,40,1,-44,-7,-59,-39,-32,5,-4
-31,-50,-65,45,13,-55,-5,-58,-38,-32,5,-7
-28,-47,-61,41,13,-51,-6,-57,-39,-33,4,-7
-22,-46,-68,38,25,-52,-8,-59,-38,-33,5,-5
-30,-47,-59,43,10,-51,-7,-58,-37,-32,5,-5
-24,-45,-64,38,20,-51,-10,-61,-40,-32,3,-7
-25,-46,-64,39,19,-51,-9,-61,-40,-33,1,-9
-31,-47,-57,42,7,-50,-9,-58,-39,-33,5,-6
-28,-44,-55,39,10,-47,-5,-60,-40,-32,2,-7
-21,-44,-65,36,24,-50,-11,-63,-45,-36,-2,-12
-24,-42,-57,36,15,-46,-11,-61,-42,-34,1,-8
-28,-47,-61,41,13,-51,-9,-59,-40,-34,0,-6
-26,-45,-59,39,14,-49,-10,-60,-42,-36,-2,-11
-20,-41,-61,34,23,-47,-10,-59,-42,-35,1,-8
-25,-45,-61,39,17,-50,-7,-57,-38,-34,2,-5
-21,-43,-63,36,21,-49,-5,-56,-38,-33,3,-4
-18,-41,-64,33,26,-48,-6,-55,-36,-32,7,-4
-14,-36,-59,29,27,-43,-2,-52,-34,-32,7,1
-10,-32,-55,24,29,-39,-4,-50,-33,-30,10,0
-3,-34,-70,23,46,-44,-5,-54,-35,-32,7,-2
-2,-31,-65,20,44,-41,-2,-50,-33,-29,12,4
-7,-32,-59,23,35,-40,0,-47,-33,-29,8,0
-1,-27,-58,18,40,-36,1,-46,-31,-28,10,-1
-3,-28,-57,19,37,-37,5,-47,-33,-30,7,-2
-12,-32,-53,25,25,-38,6,-47,-29,-27,10,1
-10,-24,-39,19,17,-28,5,-49,-31,-30,7,-2
-1,-14,-28,9,19,-18,6,-51,-28,-28,9,0
-3,-15,-28,11,18,-19,0,-52,-30,-29,8,0
-9,-18,-26,15,10,-20,3,-51,-26,-27,10,1
-1,-12,-26,8,18,-17,-7,-61,-34,-31,8,-2
4,-10,-28,5,25,-15,-6,-57,-29,-27,13,4
5,-13,-36,6,31,-20,-10,-54,-27,-26,14,5
13,-11,-44,2,46,-21,-12,-53,-27,-25,13,5
12,-17,-55,6,52,-28,-15,-52,-26,-25,14,6
15,-18,-62,5,61,-31,-11,-47,-23,-26,14,6
20,-14,-61,1,65,-28,-13,-51,-25,-27,11,4
16,-22,-74,7,70,-38,-14,-53,-27,-27,11,5
21,-24,-86,6,85,-43,-10,-49,-24,-26,12,5
20,-24,-84,7,81,-42,-14,-52,-28,-27,12,4
20,-26,-88,8,85,-45,-15,-54,-30,-29,8,2
15,-30,-89,13,80,-48,-15,-55,-31,-27,11,5
13,-32,-90,14,79,-50,-11,-54,-31,-27,13,5
14,-30,-88,13,79,-48,-12,-55,-31,-28,14,4
19,-28,-90,10,85,-47,-15,-59,-34,-29,13,5
-2,-39,-84,26,57,-53,-12,-57,-34,-29,12,2
-6,-37,-74,26,46,-49,-9,-59,-33,-31,9,-2
-14,-36,-57,28,25,-42,-12,-62,-34,-33,6,-5
-19,-33,-44,29,12,-36,-8,-59,-34,-31,5,-6
-19,-40,-61,33,24,-46,-7,-58,-34,-32,4,-9
-20,-43,-65,35,25,-50,-7,-63,-37,-34,-2,-14
-20,-41,-61,34,23,-47,-5,-60,-37,-34,-2,-12
-26,-40,-50,36,8,-43,-7,-66,-41,-36,-3,-14
-28,-42,-50,38,6,-44,-5,-68,-44,-36,-5,-19
-34,-47,-53,44,1,-49,-4,-66,-42,-36,-3,-15
-34,-49,-59,45,6,-52,-4,-68,-42,-36,-2,-12
-24,-47,-70,40,24,-54,-6,-68,-42,-36,-2,-13
-30,-49,-63,43,13,-53,-5,-69,-41,-36,-2,-13
-26,-51,-74,43,24,-58,-9,-70,-41,-35,0,-11
-28,-52,-74,45,23,-59,-6,-66,-39,-34,2,-8
-25,-48,-70,41,23,-55,-8,-68,-40,-34,2,-9
-27,-47,-63,41,15,-52,-5,-67,-40,-35,2,-11
-25,-48,-70,41,23,-55,-5,-66,-41,-35,1,-11
-21,-46,-70,38,27,-53,-5,-68,-40,-33,1,-11
-34,-53,-67,47,12,-57,-3,-68,-39,-34,2,-10
-36,-47,-50,45,-4,-48,-5,-70,-41,-35,-1,-11
-33,-47,-54,43,4,-49,-5,-70,-42,-35,-2,-13
-32,-46,-54,43,5,-49,-6,-72,-45,-35,-3,-12
-28,-46,-59,40,12,-50,-6,-71,-41,-36,-4,-12
-25,-46,-63,39,18,-51,-7,-68,-40,-33,-1,-11
-22,-46,-68,38,25,-52,-8,-72,-41,-35,-4,-14
-31,-46,-55,42,6,-49,-5,-69,-41,-34,-5,-17
-35,-51,-61,47,6,-54,-3,-69,-41,-34,-5,-16
-37,-48,-51,46,-4,-49,-4,-70,-40,-34,-4,-17
-30,-46,-57,42,8,-50,-3,-70,-43,-34,-3,-13
-30,-52,-70,45,17,-57,-4,-72,-41,-34,-3,-14
-33,-52,-65,46,11,-56,0,-72,-41,-35,-2,-13
-29,-53,-74,45,21,-59,-1,-72,-40,-35,-5,-15
-36,-52,-61,48,5,-55,0,-71,-41,-34,-4,-14
-24,-46,-65,38,21,-52,2,-72,-38,-32,-2,-12
-23,-43,-61,37,19,-49,1,-72,-39,-32,-2,-12
-25,-46,-65,39,20,-52,-1,-72,-39,-31,-2,-12
-28,-46,-61,41,14,-51,-2,-71,-38,-32,2,-11
-29,-47,-59,42,11,-51,-2,-73,-40,-33,-2,-14
-29,-47,-61,42,12,-52,-3,-73,-39,-32,-1,-12
-35,-50,-59,46,4,-53,-2,-72,-37,-32,-3,-12
-29,-49,-64,43,14,-53,-5,-79,-41,-34,-4,-12
-31,-51,-66,45,13,-56,0,-72,-35,-31,-2,-10
-37,-51,-58,48,1,-53,6,-72,-36,-33,-5,-15
-46,-52,-47,52,-15,-51,14,-65,-37,-37,-10,-21
-51,-55,-45,56,-23,-52,29,-56,-35,-38,-14,-26
-62,-61,-43,64,-36,-55,45,-41,-33,-42,-21,-35
-63,-65,-49,67,-33,-60,55,-26,-34,-44,-28,-42
-73,-74,-53,77,-42,-67,69,-12,-33,-48,-31,-47
-71,-64,-34,70,-51,-54,70,-12,-35,-49,-31,-47
-80,-62,-18,73,-74,-49,72,-19,-34,-49,-29,-48
-79,-56,-5,68,-81,-40,74,-19,-27,-44,-23,-43
-54,-41,-9,49,-51,-31,67,-5,-10,-32,-10,-30
-15,-23,-28,21,4,-24,54,12,20,-10,16,0
28,2,-37,-12,57,-10,38,30,61,20,56,35
87,46,-28,-64,114,24,8,16,85,53,103,84
144,85,-28,-113,177,50,-39,-19,103,89,155,138
209,133,-20,-170,242,86,-89,-36,142,135,215,196
289,199,8,-245,308,140,-161,-62,179,182,275,256
340,255,55,-301,329,194,-237,-119,201,218,323,302
380,317,133,-356,317,260,-302,-182,211,250,367,348
391,359,211,-386,273,314,-351,-242,211,270,396,378
391,348,186,-379,290,298,-380,-285,214,284,407,386
381,313,123,-354,325,255,-378,-291,240,302,412,388
353,273,76,-317,327,212,-353,-275,273,313,401,372
299,244,94,-276,257,198,-328,-261,291,309,373,338
268,207,58,-241,250,162,-304,-238,281,289,342,311
216,136,-22,-175,250,88,-265,-222,230,234,274,248
150,78,-51,-111,199,39,-229,-228,142,159,189,169
76,19,-71,-44,133,-8,-190,-234,49,78,109,97
10,-30,-82,14,70,-45,-150,-242,-44,6,43,40
-25,-65,-107,51,49,-78,-117,-240,-113,-46,-8,-3
-37,-87,-137,70,57,-102,-93,-215,-130,-65,-26,-26
-45,-99,-153,81,61,-116,-70,-186,-118,-62,-29,-28
-39,-95,-153,76,68,-113,-61,-167,-103,-56,-24,-27
-26,-86,-152,65,80,-106,-51,-148,-91,-49,-20,-24
-30,-88,-151,67,75,-107,-42,-133,-81,-45,-17,-22
-21,-81,-149,59,83,-102,-29,-118,-70,-41,-15,-21
-23,-75,-134,57,71,-93,-25,-110,-66,-40,-14,-24
-21,-71,-126,53,67,-88,-13,-97,-53,-36,-10,-19
-26,-70,-116,55,54,-84,-6,-90,-47,-37,-11,-22
-31,-67,-103,55,40,-78,-3,-86,-43,-36,-10,-23
-32,-64,-95,54,33,-73,-0,-82,-39,-34,-8,-22
-32,-62,-90,52,30,-71,1,-81,-40,-36,-11,-24
-36,-62,-85,54,21,-69,2,-79,-40,-37,-12,-23
-25,-58,-90,47,37,-68,2,-79,-42,-36,-14,-26
-25,-55,-84,45,32,-64,2,-73,-39,-34,-10,-20
-24,-49,-74,41,27,-57,2,-74,-39,-33,-9,-18
-24,-46,-65,38,21,-52,2,-71,-35,-31,-4,-17
-23,-50,-76,41,30,-58,2,-74,-36,-32,-8,-21
-21,-46,-70,38,27,-53,7,-67,-31,-30,-4,-17
-28,-51,-71,44,20,-57,5,-68,-31,-31,-6,-20
-32,-49,-61,45,10,-53,2,-73,-33,-32,-10,-24
-33,-49,-58,45,6,-51,4,-70,-31,-32,-7,-21
-35,-49,-55,45,2,-51,6,-66,-28,-29,-5,-17
-25,-44,-59,38,15,-49,5,-67,-32,-31,-7,-20
-23,-43,-61,37,19,-49,3,-71,-33,-29,-4,-17
-30,-51,-68,45,15,-56,9,-66,-32,-28,-3,-14
-24,-50,-74,41,26,-57,11,-65,-32,-26,-2,-13
-20,-48,-76,39,32,-57,7,-67,-32,-27,-1,-14
-32,-52,-68,46,14,-57,12,-63,-28,-25,-2,-13
-25,-50,-75,42,26,-58,8,-66,-29,-26,-3,-16
-29,-47,-59,42,11,-51,10,-66,-28,-26,-1,-17
-31,-50,-64,44,12,-54,12,-64,-25,-25,-1,-16
-23,-40,-55,35,15,-45,8,-66,-27,-26,-4,-18
-14,-40,-68,31,33,-49,4,-69,-29,-26,-4,-18
-20,-47,-74,38,31,-55,7,-67,-29,-26,-4,-17
-20,-44,-68,36,27,-51,7,-64,-30,-26,-2,-16
-14,-41,-70,32,35,-50,2,-65,-32,-26,-1,-17
-18,-40,-62,32,25,-46,4,-66,-30,-25,-4,-18
-25,-42,-55,37,13,-46,4,-66,-28,-24,-1,-16
-20,-40,-59,34,21,-46,2,-62,-26,-24,-1,-16
-25,-41,-54,36,12,-45,4,-65,-27,-25,-4,-19
-26,-44,-58,38,13,-48,4,-65,-24,-25,-2,-18
-25,-43,-57,38,13,-47,5,-64,-26,-25,-4,-20
-15,-36,-58,29,25,-43,3,-65,-24,-24,-5,-18
-19,-38,-57,32,20,-44,6,-62,-25,-24,-3,-14
-21,-43,-64,36,23,-49,0,-65,-27,-25,-5,-17
-17,-37,-58,31,24,-43,3,-64,-28,-24,-3,-15
-21,-39,-55,33,17,-44,4,-65,-28,-24,-4,-16
-22,-41,-58,35,18,-46,3,-64,-28,-23,-1,-16
-16,-40,-65,32,30,-48,2,-63,-25,-23,-2,-14
-11,-36,-64,27,33,-44,5,-61,-22,-22,1,-13
-19,-43,-66,35,26,-50,4,-65,-24,-23,-2,-15
-20,-38,-55,32,18,-43,2,-64,-22,-22,-2,-18
-10,-35,-62,26,33,-43,0,-62,-22,-20,-3,-18
-14,-36,-57,28,25,-42,5,-62,-22,-21,-2,-18
-14,-39,-65,31,31,-47,7,-61,-22,-20,-1,-14
-7,-36,-70,26,42,-46,7,-59,-21,-20,2,-12
-13,-37,-64,29,32,-45,9,-57,-21,-19,0,-12
-13,-42,-74,32,38,-52,9,-55,-20,-19,1,-11
-9,-37,-70,27,40,-47,5,-58,-20,-20,1,-12
-6,-36,-70,25,44,-46,3,-60,-20,-21,1,-14
-15,-38,-62,31,27,-45,4,-58,-20,-21,2,-13
-12,-37,-65,28,35,-46,5,-57,-19,-20,1,-15
-10,-37,-68,28,38,-46,2,-61,-18,-19,0,-15
-10,-37,-65,27,36,-45,5,-57,-17,-19,2,-13
-7,-34,-65,25,39,-44,4,-55,-19,-19,-1,-12
-8,-30,-54,22,30,-37,4,-54,-19,-19,-2,-16
-9,-31,-55,23,30,-38,-1,-57,-19,-19,-2,-13
-11,-37,-66,28,36,-46,5,-51,-14,-16,3,-9
-10,-36,-65,27,36,-45,3,-54,-15,-16,2,-10
-6,-29,-55,20,33,-37,4,-51,-10,-14,6,-6
-7,-30,-55,22,32,-38,4,-51,-12,-15,5,-7
-10,-29,-49,23,25,-35,2,-52,-12,-17,6,-8
-1,-32,-70,20,49,-43,-2,-53,-12,-16,6,-6
-9,-31,-55,23,30,-38,4,-47,-9,-14,9,-5
-4,-32,-64,22,40,-41,3,-51,-9,-13,9,-4
-9,-29,-51,22,27,-36,3,-49,-9,-13,7,-5
-1,-27,-58,18,40,-36,3,-45,-7,-12,7,-4
-7,-30,-55,22,32,-38,5,-42,-5,-11,8,-5
-6,-30,-57,21,35,-38,1,-42,-2,-9,9,-6
-6,-28,-53,20,31,-36,4,-45,-2,-11,8,-6
-3,-27,-55,18,37,-36,0,-42,1,-9,11,-4
-8,-35,-65,25,38,-44,2,-43,2,-8,13,-1
-11,-31,-51,24,25,-37,-0,-43,3,-7,10,-5
-6,-23,-43,17,25,-29,-1,-41,4,-6,12,-1
-1,-24,-51,15,36,-32,-2,-39,5,-4,13,-2
8,-18,-51,8,45,-27,-6,-38,3,-4,11,-5
9,-16,-49,6,44,-26,-3,-36,7,-2,14,1
8,-20,-55,9,48,-30,0,-32,12,0,18,5
8,-20,-55,9,48,-30,-2,-32,13,1,19,5
9,-20,-57,9,50,-31,1,-28,17,3,20,5
3,-21,-51,13,39,-30,-2,-26,19,3,20,9
6,-18,-49,9,42,-27,-2,-29,21,3,20,6
9,-17,-51,7,46,-27,-0,-26,20,4,22,5
10,-15,-49,5,46,-25,-3,-22,25,7,28,12
17,-18,-65,4,65,-32,-3,-22,28,8,27,12
15,-13,-51,2,52,-24,-3,-20,30,12,30,12
20,-8,-49,-3,57,-20,-3,-19,33,12,29,13
18,-3,-33,-5,43,-12,0,-9,37,14,31,16
25,-3,-43,-8,57,-14,-3,-13,38,16,32,15
29,-2,-47,-10,64,-15,-3,-8,43,20,37,21
23,-4,-43,-7,56,-15,-3,-4,49,22,41,22
26,1,-37,-11,56,-10,-6,-5,50,22,40,21
31,4,-37,-15,61,-8,-7,-4,53,23,42,23
34,6,-36,-18,63,-6,-10,-2,57,26,45,25
34,7,-34,-19,62,-5,-9,3,66,30,47,28
47,16,-36,-29,77,0,-11,7,71,32,52,32
51,20,-33,-33,80,4,-13,11,74,37,55,34
48,17,-34,-30,77,2,-11,15,81,41,60,39
49,21,-26,-33,73,7,-11,19,86,44,62,42
56,26,-26,-39,80,10,-12,22,90,46,67,45
53,26,-22,-38,74,12,-11,26,98,50,74,53
61,29,-28,-43,87,12,-11,30,105,55,79,60
67,32,-30,-47,95,13,-18,30,107,57,79,57
66,33,-26,-47,90,15,-17,34,112,60,83,61
73,41,-18,-56,92,23,-22,39,118,63,87,66
78,42,-23,-58,102,22,-23,36,120,67,89,64
79,47,-15,-62,98,28,-24,41,126,71,94,69
79,47,-15,-62,98,28,-20,45,134,76,98,75
93,52,-24,-71,118,28,-28,43,136,79,101,76
88,55,-9,-71,102,36,-27,49,140,83,106,78
90,59,-3,-74,100,40,-29,49,147,85,110,84
95,63,-3,-78,105,43,-32,49,151,87,113,84
104,67,-8,-84,118,44,-33,51,155,90,114,89
99,69,5,-84,105,50,-31,54,156,93,120,94
99,64,-5,-81,111,43,-32,54,160,93,118,94
111,70,-11,-90,129,45,-31,57,167,99,125,99
105,70,-3,-87,117,48,-34,55,168,100,127,96
109,72,-3,-90,121,49,-35,57,170,102,129,99
114,80,6,-97,120,57,-33,58,172,104,131,102
119,84,9,-102,123,61,-31,59,175,106,136,105
118,81,3,-99,126,57,-33,63,177,109,139,108
121,84,5,-103,129,60,-34,63,180,108,139,109
123,86,6,-105,130,61,-38,61,177,107,137,108
109,77,8,-93,113,56,-35,61,180,110,138,110
118,82,6,-100,124,59,-39,58,181,110,139,112
120,85,9,-103,124,62,-39,58,180,110,140,112
115,81,8,-98,120,59,-38,53,173,107,136,106
113,81,12,-97,114,60,-35,52,172,106,136,106
119,83,8,-101,124,60,-36,52,166,105,136,106
111,77,3,-94,119,54,-36,47,163,102,131,103
105,74,6,-90,111,53,-31,46,159,100,131,102
102,70,3,-86,108,50,-29,43,152,96,126,98
106,73,3,-89,113,52,-32,36,143,91,122,93
94,65,5,-79,99,47,-29,30,136,86,116,90
89,64,8,-77,92,46,-29,28,129,82,112,84
85,62,12,-74,85,47,-29,19,119,77,106,77
78,59,14,-69,75,45,-25,17,114,74,101,73
77,57,12,-67,75,43,-23,13,108,69,95,69
70,49,5,-59,73,36,-16,12,100,63,88,63
66,51,16,-59,61,41,-15,6,94,59,82,57
56,46,18,-51,49,37,-15,-1,84,53,74,50
54,38,5,-46,56,28,-14,-4,78,49,72,48
47,32,1,-39,51,23,-14,-8,72,45,65,40
39,35,20,-37,29,30,-15,-14,65,42,62,37
38,21,-9,-29,49,12,-17,-18,58,37,57,34
36,24,1,-30,39,18,-16,-21,52,33,53,27
33,22,2,-27,35,17,-15,-28,44,29,47,21
29,11,-18,-19,44,3,-11,-27,42,27,47,23
25,9,-18,-15,40,1,-6,-31,37,23,43,18
23,13,-5,-17,30,8,-3,-34,33,21,38,16
21,6,-19,-12,38,-2,-3,-38,28,19,35,13
6,-1,-9,-1,13,-3,1,-39,28,18,32,8
18,0,-26,-7,38,-8,-2,-41,25,17,32,5
8,-7,-28,1,30,-13,-5,-43,20,12,27,1
-3,-15,-28,11,18,-19,-6,-49,14,9,24,-2
-2,-15,-30,10,20,-20,-5,-47,11,7,21,-6
3,-10,-26,6,21,-14,-5,-49,8,5,21,-6
7,-11,-34,5,32,-18,-2,-46,7,5,22,-4
4,-13,-34,7,29,-19,-3,-51,3,3,17,-7
8,-14,-43,6,39,-22,-2,-49,4,3,17,-7
2,-20,-47,12,36,-28,2,-50,0,3,14,-7
-4,-23,-44,17,27,-29,-1,-53,-3,1,11,-11
4,-21,-53,12,42,-30,-4,-55,-5,-1,8,-12
-4,-29,-57,20,36,-37,-4,-53,-1,0,10,-11
-13,-30,-47,24,20,-35,-8,-52,-2,2,8,-13
-15,-31,-44,26,15,-35,-8,-55,-5,-1,5,-18
-3,-24,-49,17,31,-32,-8,-55,-6,-2,8,-15
-4,-26,-51,19,32,-34,-10,-53,-4,0,10,-12
-3,-24,-49,17,31,-32,-6,-48,-5,0,11,-12
0,-19,-43,13,31,-26,-8,-53,-7,-2,8,-15
-4,-26,-51,19,32,-34,-6,-57,-6,-2,10,-11
-7,-29,-53,21,30,-36,-3,-54,-6,-2,10,-14
-6,-30,-57,21,35,-38,-6,-58,-9,-3,8,-15
-6,-34,-65,24,40,-43,-6,-55,-8,-2,10,-14
-12,-36,-61,27,31,-43,-8,-54,-9,-4,8,-15
-13,-33,-53,26,24,-39,-9,-54,-9,-3,8,-17
-10,-32,-55,24,29,-39,-8,-53,-9,-3,8,-17
-9,-34,-61,25,35,-42,-7,-53,-8,-3,7,-18
-4,-29,-57,20,36,-37,-5,-50,-7,-2,8,-18
-6,-28,-53,20,31,-36,-7,-54,-9,-3,6,-17
-9,-30,-53,23,29,-37,-5,-52,-8,-3,5,-18
-6,-26,-49,19,29,-33,-5,-49,-8,-3,4,-20
-7,-27,-49,20,27,-34,-6,-50,-9,-4,3,-20
-6,-27,-51,19,31,-34,-4,-50,-8,-3,5,-16
-7,-26,-47,19,26,-33,-3,-49,-8,-3,7,-16
-4,-30,-59,21,38,-39,-0,-47,-4,-1,9,-14
-3,-28,-57,19,37,-37,-5,-50,-8,-2,8,-15
-12,-30,-49,24,23,-36,-3,-47,-3,-1,9,-11
-10,-28,-47,22,23,-34,-2,-49,-5,-2,8,-17
0,-21,-47,13,33,-29,-4,-46,-5,-1,11,-13
-4,-22,-43,16,26,-28,-5,-49,-8,-4,5,-20
-10,-21,-32,18,12,-24,-0,-48,-8,-3,5,-18
1,-21,-47,13,35,-28,-0,-46,-6,-3,8,-16
-3,-25,-51,17,33,-33,-5,-47,-7,-3,9,-13
-15,-31,-44,26,15,-35,-3,-48,-8,-3,7,-16
-7,-22,-39,17,20,-27,-4,-48,-10,-3,6,-16
-3,-22,-44,16,29,-29,-6,-49,-11,-3,5,-17
-10,-27,-44,21,21,-32,-6,-48,-9,-2,7,-15
-10,-24,-39,19,17,-28,-5,-49,-9,-3,5,-17
-3,-22,-44,16,29,-29,-8,-49,-10,-2,7,-18
-6,-24,-44,18,25,-30,-4,-43,-6,-1,8,-12
-8,-25,-43,19,21,-30,-4,-48,-8,-3,6,-17
-4,-23,-44,17,27,-29,-6,-48,-9,-2,8,-13
-7,-23,-40,18,21,-28,-2,-46,-11,-2,9,-13
-2,-21,-44,14,30,-28,-2,-46,-8,-2,8,-11
-12,-22,-32,19,11,-25,-2,-45,-9,-2,8,-14
-3,-17,-32,12,19,-21,-6,-49,-11,-2,7,-17
-3,-21,-43,15,27,-28,-3,-47,-10,-1,7,-16
-6,-21,-36,16,19,-25,-3,-50,-14,-2,5,-18
1,-21,-47,13,35,-28,-5,-49,-10,-2,5,-16
-3,-22,-44,16,29,-29,-4,-50,-13,-2,5,-17
-7,-21,-34,16,17,-25,-2,-46,-11,-2,8,-12
-2,-17,-34,12,23,-22,-6,-50,-13,-4,5,-16
-3,-19,-39,13,25,-25,-7,-52,-14,-3,8,-12
-4,-21,-40,15,24,-27,-6,-47,-10,-2,11,-10
-4,-21,-39,15,23,-26,-7,-48,-15,-3,10,-11
-2,-22,-47,15,32,-30,-6,-49,-15,-2,12,-11
-7,-21,-34,16,17,-25,-9,-48,-15,-2,10,-13
-2,-23,-49,15,33,-31,-8,-51,-16,-3,10,-13
-3,-23,-47,16,31,-30,-8,-51,-17,-4,7,-16
-9,-26,-44,20,23,-32,-9,-53,-19,-4,3,-16
-9,-22,-36,18,17,-26,-6,-52,-17,-5,3,-18
3,-14,-34,8,27,-20,-9,-52,-18,-4,4,-18
-10,-21,-32,18,12,-24,-7,-54,-19,-5,3,-18
-10,-21,-30,17,11,-23,-9,-53,-19,-6,3,-18
-13,-21,-28,19,6,-23,-8,-55,-20,-5,2,-20
-4,-19,-34,14,20,-23,-10,-58,-22,-7,2,-20
-10,-19,-28,17,10,-22,-10,-55,-19,-6,3,-16
-7,-19,-30,15,14,-22,-11,-56,-21,-6,5,-18
-9,-22,-36,18,17,-26,-13,-58,-23,-7,3,-17
-12,-22,-32,19,11,-25,-13,-59,-26,-8,2,-17
-7,-21,-34,16,17,-25,-9,-57,-22,-5,6,-15
-8,-18,-26,15,10,-20,-15,-60,-24,-6,5,-18
-7,-21,-34,16,17,-25,-15,-62,-24,-7,3,-20
-9,-22,-36,18,17,-26,-14,-58,-23,-5,5,-15
-6,-16,-26,13,13,-19,-15,-61,-25,-6,3,-18
-7,-21,-34,16,17,-25,-13,-62,-28,-6,3,-18
-11,-23,-34,19,13,-26,-9,-58,-23,-4,6,-15
-9,-19,-28,16,11,-21,-8,-63,-27,-6,2,-18
-11,-25,-39,20,15,-29,-10,-62,-28,-7,1,-20
-10,-26,-43,21,20,-31,-12,-66,-27,-8,-1,-20
-4,-24,-47,17,29,-31,-12,-63,-27,-7,3,-18
-9,-26,-44,20,23,-32,-17,-62,-30,-8,0,-22
-6,-21,-39,16,21,-26,-19,-65,-29,-9,-1,-20
-10,-23,-36,19,15,-27,-17,-67,-32,-8,0,-21
-3,-21,-43,15,27,-28,-19,-67,-32,-9,-2,-21
-8,-21,-34,17,15,-25,-15,-66,-31,-8,1,-20
-4,-21,-39,15,23,-26,-11,-61,-32,-9,-2,-21
-7,-22,-39,17,20,-27,-14,-67,-34,-9,-3,-25
-7,-23,-40,18,21,-28,-10,-65,-33,-8,-2,-24
-19,-29,-34,26,4,-30,-9,-66,-33,-8,0,-23
-12,-26,-40,21,17,-30,-10,-64,-32,-8,0,-21
-6,-27,-51,19,31,-34,-12,-65,-34,-8,2,-23
-3,-26,-53,18,35,-34,-15,-65,-33,-7,3,-22
-6,-24,-44,18,25,-30,-15,-67,-35,-7,1,-23
-4,-21,-39,15,23,-26,-20,-67,-35,-7,2,-18
-10,-27,-44,21,21,-32,-19,-68,-33,-8,-1,-24
-8,-21,-34,17,15,-25,-19,-67,-34,-7,-1,-20
-9,-26,-44,20,23,-32,-17,-67,-35,-8,-2,-25
-7,-21,-34,16,17,-25,-17,-68,-35,-9,-5,-25
-13,-24,-34,21,11,-27,-15,-67,-35,-8,-2,-20
-14,-27,-39,23,13,-30,-10,-64,-35,-8,-3,-21
-11,-25,-39,20,15,-29,-15,-69,-39,-10,-5,-27
-12,-26,-40,21,17,-30,-14,-68,-38,-11,-4,-23
-15,-30,-43,26,14,-34,-13,-66,-36,-9,-5,-26
-13,-21,-26,19,5,-22,-15,-68,-37,-9,-7,-27
-2,-19,-40,13,27,-26,-20,-69,-38,-9,-5,-23
-14,-28,-40,24,13,-32,-17,-65,-36,-8,-4,-23
-10,-24,-39,19,17,-28,-19,-70,-40,-10,-6,-25
-10,-21,-32,18,12,-24,-17,-67,-38,-11,-7,-28
-17,-26,-32,24,5,-28,-19,-70,-39,-10,-5,-27
-11,-21,-30,18,10,-24,-19,-68,-40,-10,-5,-29
-4,-18,-32,13,18,-22,-20,-68,-40,-9,-4,-26
-9,-22,-36,18,17,-26,-19,-67,-40,-9,-2,-25
-14,-24,-32,21,7,-26,-17,-65,-38,-8,-2,-23
-17,-31,-43,26,13,-34,-17,-68,-39,-9,-5,-27
-17,-28,-36,25,7,-30,-21,-68,-40,-10,-4,-26
-21,-34,-44,31,10,-37,-19,-67,-40,-9,-5,-24
-15,-33,-49,27,18,-37,-19,-66,-41,-9,-5,-21
-8,-31,-55,23,31,-38,-20,-66,-39,-9,-6,-27
-17,-32,-44,27,13,-36,-19,-64,-41,-10,-5,-25
-13,-29,-44,24,18,-34,-17,-62,-40,-9,-4,-24
-11,-29,-47,23,21,-34,-14,-66,-44,-10,-5,-27
-12,-26,-40,21,17,-30,-17,-64,-43,-10,-3,-25
-17,-26,-32,24,5,-28,-17,-66,-42,-10,-5,-23
-7,-21,-36,17,18,-26,-19,-65,-44,-9,-4,-23
-17,-28,-36,25,7,-30,-21,-67,-45,-10,-6,-25
-19,-29,-34,26,4,-30,-19,-68,-45,-10,-5,-23
-17,-28,-36,25,7,-30,-15,-68,-45,-11,-7,-27
-12,-24,-36,20,13,-28,-15,-68,-44,-12,-7,-26
-19,-27,-30,25,1,-28,-15,-66,-45,-11,-5,-26
-20,-32,-40,28,7,-34,-15,-65,-44,-11,-6,-25
-18,-31,-40,27,10,-34,-15,-67,-45,-12,-8,-27
-14,-25,-34,22,10,-28,-17,-68,-45,-11,-7,-24
-17,-28,-36,25,7,-30,-15,-66,-43,-9,-3,-21
-14,-27,-39,23,13,-30,-19,-65,-46,-11,-5,-24
-12,-22,-32,19,11,-25,-19,-67,-47,-11,-5,-24
-11,-25,-39,20,15,-29,-15,-63,-44,-9,-2,-18
-10,-23,-36,19,15,-27,-19,-65,-45,-10,-3,-22
-7,-27,-49,20,27,-34,-19,-65,-46,-11,-5,-24
-12,-30,-49,24,23,-36,-19,-64,-45,-10,-5,-22
-8,-29,-51,22,27,-36,-21,-65,-48,-12,-8,-25
-18,-27,-32,25,4,-28,-22,-67,-48,-12,-8,-27
-18,-27,-32,25,4,-28,-20,-64,-47,-12,-10,-30
-25,-30,-28,30,-7,-29,-15,-65,-47,-12,-8,-27
-15,-23,-28,21,4,-24,-19,-62,-45,-10,-6,-27
-9,-22,-36,18,17,-26,-21,-67,-49,-13,-9,-27
-13,-24,-34,21,11,-27,-17,-64,-49,-13,-10,-29
-15,-22,-26,21,2,-23,-21,-66,-48,-12,-8,-27
-17,-29,-39,25,10,-32,-20,-65,-48,-13,-11,-30
-17,-30,-40,26,11,-33,-19,-63,-49,-12,-8,-29
-21,-25,-23,25,-6,-24,-19,-61,-46,-10,-7,-27
-11,-29,-47,23,21,-34,-19,-64,-48,-12,-9,-31
-14,-28,-40,24,13,-32,-22,-63,-46,-11,-8,-30
-19,-29,-34,26,4,-30,-21,-62,-47,-11,-5,-26
-13,-27,-40,22,15,-31,-17,-62,-45,-9,-2,-24
