I,II,III,aVR,aVL,aVF,V1,V2,V3,V4,V5,V6
-20,-22,-19,23,-10,-21,6,-6,-33,-44,-43,-52
-21,-22,-16,24,-14,-20,7,-6,-33,-44,-42,-51
-21,-23,-19,24,-12,-22,7,-6,-33,-44,-42,-51
-21,-23,-19,24,-12,-22,7,-6,-33,-44,-42,-51
-21,-24,-20,25,-10,-23,7,-6,-33,-44,-42,-51
-21,-24,-20,25,-10,-23,8,-5,-33,-43,-42,-51
-20,-24,-23,24,-7,-24,8,-6,-33,-43,-42,-51
-20,-24,-23,24,-7,-24,8,-6,-33,-43,-42,-50
-20,-24,-23,24,-7,-24,8,-6,-33,-43,-42,-50
-20,-24,-23,24,-7,-24,8,-6,-33,-42,-42,-49
-20,-25,-24,24,-5,-25,8,-6,-34,-42,-42,-49
-20,-25,-24,24,-5,-25,8,-6,-34,-42,-42,-49
-20,-25,-24,24,-5,-25,8,-6,-34,-42,-42,-49
-20,-25,-24,24,-5,-25,9,-6,-34,-42,-41,-48
-20,-25,-24,24,-5,-25,8,-7,-35,-43,-41,-49
-20,-25,-24,24,-5,-25,8,-7,-35,-43,-41,-49
-20,-25,-24,24,-5,-25,8,-7,-35,-44,-41,-49
-19,-24,-24,24,-4,-24,8,-7,-35,-44,-41,-49
-20,-25,-24,24,-5,-25,8,-7,-35,-44,-41,-49
-20,-25,-24,24,-5,-25,9,-7,-35,-44,-41,-48
-20,-25,-24,24,-5,-25,9,-7,-35,-44,-41,-48
-21,-25,-23,25,-8,-24,9,-7,-35,-43,-40,-48
-20,-25,-24,24,-5,-25,9,-7,-35,-44,-40,-48
-20,-25,-24,24,-5,-25,9,-7,-35,-44,-40,-48
-20,-25,-24,24,-5,-25,9,-7,-35,-44,-40,-48
-20,-25,-24,24,-5,-25,9,-7,-35,-44,-40,-48
-20,-25,-24,24,-5,-25,9,-7,-35,-44,-40,-48
-21,-25,-23,25,-8,-24,9,-7,-35,-43,-39,-47
-21,-25,-23,25,-8,-24,9,-7,-35,-43,-39,-47
-22,-25,-20,26,-12,-23,11,-7,-34,-42,-39,-46
-22,-25,-20,26,-12,-23,11,-7,-34,-43,-39,-46
-22,-25,-20,26,-12,-23,11,-7,-34,-43,-39,-46
-22,-25,-20,26,-12,-23,11,-7,-34,-43,-39,-46
-23,-25,-19,26,-14,-23,11,-7,-33,-43,-39,-46
-23,-25,-19,26,-14,-23,11,-7,-33,-44,-39,-47
-23,-25,-19,26,-14,-23,11,-7,-33,-44,-39,-47
-23,-25,-19,26,-14,-23,11,-7,-33,-44,-39,-48
-23,-25,-19,26,-14,-23,11,-7,-33,-44,-39,-48
-22,-25,-20,26,-12,-23,11,-7,-34,-44,-39,-48
-22,-25,-20,26,-12,-23,11,-7,-34,-44,-39,-48
-21,-25,-23,25,-8,-24,11,-7,-34,-44,-39,-48
-20,-24,-23,24,-7,-24,11,-7,-34,-44,-39,-47
-21,-25,-23,25,-8,-24,11,-7,-34,-44,-39,-47
-21,-25,-23,25,-8,-24,11,-7,-34,-44,-39,-47
-21,-25,-23,25,-8,-24,11,-7,-34,-44,-39,-47
-22,-25,-20,26,-12,-23,11,-7,-33,-44,-38,-46
-22,-25,-20,26,-12,-23,11,-7,-33,-44,-38,-45
-22,-25,-20,26,-12,-23,11,-7,-33,-43,-37,-44
-22,-25,-20,26,-12,-23,11,-7,-33,-42,-37,-43
-23,-25,-19,26,-14,-23,12,-6,-33,-42,-36,-43
-23,-25,-19,26,-14,-23,12,-6,-33,-42,-36,-43
-25,-25,-16,27,-18,-22,12,-6,-33,-42,-36,-41
-25,-25,-16,27,-18,-22,12,-6,-33,-42,-36,-41
-26,-25,-15,27,-21,-22,12,-6,-32,-42,-36,-41
-25,-25,-16,27,-18,-22,12,-6,-32,-42,-36,-41
-24,-24,-16,26,-17,-22,12,-6,-32,-42,-36,-41
-24,-24,-16,26,-17,-22,12,-6,-32,-42,-36,-41
-22,-23,-17,25,-14,-21,13,-5,-32,-42,-36,-41
-21,-22,-17,24,-13,-21,13,-5,-32,-42,-36,-41
-20,-22,-16,23,-13,-20,14,-5,-32,-41,-35,-40
-18,-20,-17,21,-9,-19,14,-5,-31,-40,-35,-39
-17,-19,-15,20,-10,-18,15,-4,-30,-40,-34,-38
-16,-17,-13,18,-10,-16,15,-4,-30,-39,-34,-38
-16,-15,-9,17,-14,-13,15,-3,-29,-38,-33,-37
-15,-14,-7,15,-13,-12,15,-2,-28,-37,-32,-37
-15,-12,-3,14,-17,-9,16,-1,-28,-36,-31,-36
-13,-10,-2,13,-16,-7,16,-1,-28,-36,-31,-35
-12,-8,1,11,-17,-5,16,-1,-27,-35,-30,-33
-11,-7,2,9,-16,-4,16,-1,-26,-34,-29,-32
-10,-5,5,8,-17,-2,17,-0,-25,-33,-29,-31
-10,-4,7,7,-20,-0,17,-0,-25,-32,-28,-29
-9,-2,9,6,-18,1,17,0,-24,-31,-27,-29
-8,-1,10,5,-20,2,17,0,-24,-31,-26,-28
-7,0,13,3,-20,4,17,0,-24,-30,-26,-27
-6,0,10,3,-16,3,15,-0,-24,-30,-26,-27
-3,1,9,1,-12,4,14,0,-24,-29,-25,-26
-2,1,6,0,-8,3,13,0,-24,-29,-24,-26
-1,2,6,-0,-7,3,12,0,-23,-28,-24,-25
1,3,6,-1,-5,4,11,-1,-24,-28,-24,-24
3,5,7,-3,-1,6,8,-2,-24,-27,-23,-24
4,6,7,-4,0,6,7,-3,-25,-27,-22,-23
6,7,9,-6,0,8,5,-4,-25,-26,-21,-21
6,8,10,-7,0,9,3,-5,-26,-27,-21,-20
7,10,13,-9,-1,11,1,-6,-26,-26,-20,-19
7,11,15,-9,-4,13,-0,-7,-27,-26,-19,-19
8,13,16,-10,-3,14,-1,-8,-27,-25,-18,-17
7,13,18,-10,-5,15,-2,-9,-28,-25,-18,-16
7,13,20,-10,-8,16,-3,-9,-29,-25,-18,-15
7,14,23,-11,-10,18,-4,-10,-29,-25,-17,-14
7,15,24,-11,-12,18,-4,-10,-29,-24,-16,-13
7,14,20,-11,-8,16,-5,-12,-30,-25,-17,-12
7,13,19,-10,-7,15,-5,-12,-30,-26,-17,-13
7,12,16,-10,-4,14,-6,-12,-31,-27,-17,-12
7,11,15,-9,-4,13,-6,-12,-31,-27,-17,-13
8,8,7,-7,4,8,-6,-13,-31,-28,-17,-13
9,6,-1,-7,13,4,-6,-13,-32,-29,-18,-14
11,3,-9,-6,22,-0,-6,-13,-33,-29,-19,-15
12,1,-15,-5,27,-3,-6,-13,-34,-30,-20,-15
11,-1,-19,-3,29,-6,-6,-14,-35,-31,-20,-16
9,-4,-23,-1,30,-10,-5,-14,-35,-32,-21,-17
8,-7,-27,1,33,-13,-4,-15,-36,-33,-22,-18
7,-8,-28,3,31,-14,-3,-15,-36,-34,-22,-17
3,-11,-28,6,27,-16,-2,-15,-37,-35,-23,-19
0,-13,-28,9,23,-18,-0,-15,-37,-36,-24,-19
-4,-15,-28,12,18,-19,1,-15,-37,-37,-25,-20
-6,-17,-28,14,16,-20,3,-14,-37,-37,-26,-21
-9,-19,-28,16,12,-22,4,-15,-38,-39,-27,-23
-12,-20,-27,19,7,-22,5,-15,-38,-40,-28,-24
-15,-22,-27,21,3,-24,6,-15,-39,-40,-29,-25
-18,-23,-24,23,-3,-24,8,-15,-39,-41,-30,-26
-20,-25,-24,25,-7,-25,8,-16,-40,-42,-31,-27
-21,-26,-24,26,-8,-25,9,-16,-39,-42,-31,-28
-23,-27,-24,27,-9,-26,9,-16,-39,-43,-32,-29
-25,-27,-23,28,-13,-26,11,-16,-40,-43,-33,-29
-25,-30,-29,30,-8,-30,9,-18,-41,-44,-34,-31
-25,-32,-32,31,-5,-32,9,-19,-43,-46,-36,-32
-24,-34,-38,32,0,-35,10,-20,-44,-47,-37,-33
-24,-35,-41,33,4,-37,9,-21,-45,-48,-39,-34
-25,-35,-40,33,1,-37,9,-21,-44,-48,-39,-35
-28,-35,-36,34,-5,-36,11,-21,-43,-48,-38,-35
-29,-35,-34,35,-9,-36,12,-21,-42,-48,-37,-35
-30,-34,-30,35,-14,-33,12,-19,-41,-48,-36,-35
-27,-31,-28,31,-10,-30,11,-19,-41,-48,-36,-31
-26,-33,-33,32,-7,-33,10,-22,-43,-49,-36,-33
-40,-34,-15,39,-39,-29,13,-16,-41,-47,-34,-31
-41,-29,-2,37,-52,-21,22,-12,-35,-41,-29,-22
-29,-28,-19,31,-21,-25,13,-22,-46,-48,-36,-29
-35,-34,-23,37,-26,-31,17,-19,-42,-44,-32,-25
-26,-35,-38,34,-1,-36,16,-23,-44,-46,-34,-30
-20,-32,-40,29,8,-35,11,-25,-45,-45,-34,-29
-7,-30,-56,22,36,-38,12,-22,-43,-48,-36,-37
-13,-29,-45,24,20,-34,17,-18,-38,-43,-31,-32
-12,-27,-41,23,18,-31,12,-22,-41,-48,-36,-37
-24,-29,-28,29,-8,-29,14,-19,-39,-46,-36,-34
-35,-33,-20,37,-29,-30,25,-10,-31,-45,-36,-38
-39,-35,-19,39,-34,-30,37,1,-24,-42,-37,-35
-29,-32,-27,33,-14,-30,40,3,-21,-47,-45,-45
-43,-26,9,35,-63,-15,51,14,-13,-46,-47,-45
-60,-23,41,41,-112,-3,64,21,-7,-47,-54,-50
-67,-20,59,42,-135,5,71,30,1,-44,-54,-53
-44,-15,36,29,-87,1,72,42,21,-32,-51,-58
-36,-1,53,17,-91,16,80,56,40,-13,-35,-41
-18,6,42,4,-57,18,73,66,60,20,-9,-22
24,20,9,-22,25,17,64,96,104,78,38,19
76,36,-34,-54,126,15,46,121,142,131,84,55
126,59,-59,-91,211,23,28,139,165,180,136,110
180,97,-58,-137,279,50,-26,107,140,203,176,154
214,143,-5,-181,277,99,-89,65,110,237,225,209
249,205,81,-235,251,169,-165,-7,45,249,263,258
274,259,164,-279,214,233,-238,-78,-13,274,302,303
291,294,216,-308,193,273,-283,-138,-64,288,326,330
307,308,222,-324,208,285,-308,-177,-99,308,353,359
319,326,245,-340,204,304,-333,-213,-129,320,371,378
312,332,270,-341,174,317,-360,-267,-179,307,377,391
273,314,288,-313,109,309,-362,-306,-218,287,363,381
242,262,220,-267,126,252,-336,-297,-215,283,356,374
214,225,181,-232,122,214,-305,-284,-220,247,320,340
179,187,147,-193,107,177,-273,-271,-222,195,275,305
143,158,137,-159,69,153,-243,-262,-237,114,202,246
98,142,169,-130,-14,152,-217,-260,-252,40,140,201
74,111,138,-101,-20,121,-186,-246,-257,-35,74,144
57,83,100,-76,-10,89,-150,-222,-252,-99,19,96
43,60,71,-55,-4,65,-114,-197,-238,-139,-26,53
29,50,69,-43,-20,57,-84,-171,-215,-148,-47,28
32,40,41,-37,7,41,-43,-123,-172,-121,-40,19
30,30,22,-31,21,28,-17,-83,-125,-84,-29,19
14,21,27,-19,-4,23,4,-55,-96,-62,-24,4
6,9,13,-7,-3,11,20,-29,-68,-44,-18,2
-11,-6,5,9,-18,-2,37,-8,-46,-31,-15,-5
-6,-14,-21,11,10,-16,51,11,-26,-20,-12,-7
3,-19,-45,11,40,-27,57,21,-13,-16,-13,-12
-2,-24,-50,17,39,-32,68,32,-2,-10,-11,-10
-1,-21,-45,14,36,-29,62,32,4,-10,-10,-10
-4,-19,-36,14,25,-24,57,26,4,-9,-10,-8
-22,-15,1,20,-30,-10,60,28,6,-8,-7,-7
-23,-19,-7,23,-25,-16,59,23,4,-8,-5,-1
-24,-16,1,21,-31,-11,55,18,-0,-13,-10,-5
-16,-20,-19,20,-5,-19,47,16,0,-14,-12,-5
-23,-17,-2,21,-29,-12,47,14,2,-16,-16,-12
-21,-19,-11,22,-18,-17,41,13,-1,-17,-19,-12
-17,-26,-31,24,3,-27,42,9,-0,-21,-24,-21
-30,-27,-15,31,-26,-24,46,17,4,-16,-21,-17
-27,-25,-13,27,-23,-21,40,11,2,-22,-26,-24
-20,-24,-23,24,-7,-24,39,10,0,-24,-26,-24
-20,-27,-29,26,-1,-28,42,14,1,-22,-27,-27
-31,-29,-17,32,-26,-26,43,16,4,-19,-22,-17
-32,-29,-16,32,-27,-25,42,15,4,-19,-23,-19
-30,-28,-16,31,-25,-25,41,15,5,-18,-23,-20
-29,-27,-16,30,-23,-24,40,14,5,-18,-23,-20
-29,-27,-15,30,-25,-23,40,14,6,-18,-24,-21
-28,-27,-19,30,-20,-25,39,14,6,-18,-24,-23
-25,-27,-23,28,-13,-26,39,14,7,-19,-24,-24
-23,-28,-27,28,-8,-28,38,14,8,-20,-24,-24
-21,-28,-31,27,-1,-29,38,15,8,-20,-24,-25
-22,-28,-29,27,-4,-29,38,15,9,-19,-24,-25
-23,-27,-25,28,-9,-27,38,16,11,-18,-23,-25
-25,-27,-23,28,-13,-26,38,17,12,-16,-22,-25
-27,-27,-19,29,-18,-24,39,18,13,-15,-21,-24
-26,-26,-19,28,-18,-24,39,18,14,-14,-21,-24
-26,-26,-17,28,-20,-23,39,18,15,-13,-21,-23
-28,-26,-15,28,-23,-22,39,19,15,-13,-20,-23
-28,-25,-13,28,-25,-21,40,21,17,-12,-19,-22
-27,-25,-15,27,-22,-22,39,21,18,-11,-19,-22
-27,-25,-15,27,-22,-22,39,21,19,-10,-18,-22
-25,-25,-16,27,-20,-22,39,21,19,-10,-18,-22
-23,-24,-17,26,-16,-22,39,22,21,-9,-17,-21
-24,-25,-19,27,-16,-23,39,22,22,-9,-17,-21
-24,-25,-19,27,-16,-23,39,23,24,-8,-16,-20
-23,-25,-20,26,-13,-24,39,24,24,-7,-15,-20
-22,-25,-21,26,-12,-24,39,25,26,-7,-14,-19
-22,-25,-21,26,-12,-24,38,25,27,-6,-14,-19
-22,-25,-21,25,-10,-24,38,26,28,-5,-13,-18
-23,-25,-20,26,-13,-24,38,27,29,-4,-12,-17
-22,-24,-19,25,-13,-22,38,28,30,-3,-11,-16
-22,-24,-19,25,-13,-22,38,28,31,-2,-11,-15
-22,-24,-19,25,-13,-22,39,29,33,-0,-10,-14
-22,-24,-19,25,-13,-22,39,30,34,0,-9,-13
-21,-23,-19,24,-12,-22,40,31,36,2,-9,-12
-20,-22,-19,23,-10,-21,39,31,37,3,-8,-12
-20,-22,-16,23,-13,-20,39,32,38,5,-7,-12
-19,-20,-16,21,-10,-19,39,33,39,6,-6,-11
-18,-19,-15,20,-12,-18,39,34,40,7,-5,-10
-19,-19,-13,20,-14,-17,39,35,42,9,-4,-10
-18,-18,-11,20,-14,-16,39,36,44,11,-4,-9
-19,-17,-9,19,-17,-15,39,37,45,12,-3,-8
-18,-16,-7,18,-18,-13,40,39,48,15,-1,-7
-17,-15,-7,17,-17,-13,40,40,49,16,-1,-7
-18,-15,-5,17,-20,-12,40,42,51,18,1,-5
-17,-14,-3,17,-20,-10,40,43,52,19,2,-5
-16,-12,-1,15,-21,-8,40,44,54,21,4,-4
-13,-11,-3,13,-14,-8,39,46,56,23,4,-4
-12,-10,-3,12,-13,-8,39,46,57,25,6,-3
-11,-9,-3,11,-12,-7,38,47,59,26,8,-2
-9,-8,-3,9,-9,-6,38,49,61,29,9,-1
-9,-7,-1,8,-10,-5,38,50,63,31,10,-1
-7,-5,1,7,-10,-3,38,52,66,33,12,0
-6,-3,2,5,-9,-1,38,54,68,36,14,1
-5,-1,5,3,-10,0,39,57,70,39,15,2
-4,-1,5,3,-9,1,39,59,73,41,16,3
-3,1,7,1,-9,3,39,60,76,44,19,4
-2,2,9,0,-10,4,39,62,79,47,21,6
-1,4,10,-2,-9,6,39,65,82,50,23,8
-1,5,13,-2,-12,7,39,68,85,54,25,10
-1,7,16,-3,-14,10,40,71,89,57,28,12
1,8,18,-5,-13,12,41,74,93,61,30,15
0,10,23,-5,-18,14,42,76,97,65,33,17
5,12,20,-9,-10,15,41,78,100,68,36,19
7,13,20,-10,-8,16,41,81,104,72,38,22
10,15,20,-13,-4,18,41,84,107,75,41,24
13,18,20,-16,0,19,41,87,111,79,44,27
16,20,22,-19,3,21,41,88,115,83,46,29
18,23,24,-21,4,24,41,91,120,88,50,33
21,25,26,-24,5,26,41,94,124,92,53,36
22,28,30,-27,4,29,41,97,128,97,57,39
24,31,32,-29,5,32,40,100,132,102,61,41
28,34,34,-33,8,35,40,103,137,107,64,45
31,37,36,-36,10,37,40,106,142,112,68,48
34,40,40,-39,10,41,40,110,146,117,72,52
36,43,42,-41,10,43,39,113,151,122,75,55
38,46,46,-44,10,47,38,116,156,128,80,59
43,50,48,-49,16,50,38,118,161,134,84,63
45,53,52,-52,16,54,37,121,166,140,88,67
49,57,54,-56,18,57,36,124,170,144,92,71
51,60,58,-59,18,61,35,127,175,150,97,75
56,64,59,-63,22,64,34,129,178,155,101,78
59,68,63,-67,23,68,33,132,183,161,105,83
62,72,67,-71,23,71,31,134,187,166,109,86
65,76,71,-75,25,75,30,136,190,170,114,91
69,80,75,-79,26,80,29,138,194,176,117,95
73,84,79,-83,27,84,29,141,198,181,122,99
76,88,83,-87,29,88,27,142,200,184,125,103
80,92,87,-91,30,92,25,143,203,189,129,106
82,96,91,-95,30,96,23,143,205,192,133,109
86,100,95,-99,31,100,21,146,209,196,136,112
89,103,96,-102,34,102,20,145,209,199,138,115
91,106,101,-105,33,106,18,146,211,202,141,119
94,110,104,-108,34,109,16,147,212,205,144,121
96,113,108,-112,34,113,14,148,214,208,147,125
99,116,110,-114,35,116,12,147,214,209,149,127
100,118,114,-116,33,119,9,147,214,211,151,130
101,121,118,-119,31,122,7,146,214,212,153,132
102,124,122,-121,30,125,5,146,214,214,155,135
103,124,122,-122,31,125,3,144,211,214,156,136
105,126,124,-123,31,127,1,143,210,215,157,139
107,128,126,-125,31,129,-0,141,208,214,158,140
108,130,128,-126,31,131,-2,139,207,214,160,142
109,131,128,-128,34,131,-5,135,202,211,158,142
109,131,130,-128,31,133,-7,131,197,208,158,142
110,132,130,-129,33,133,-9,128,193,204,156,142
110,133,132,-129,30,135,-11,124,189,202,155,142
108,131,131,-128,29,133,-13,118,182,195,152,140
107,131,131,-127,27,133,-15,113,175,189,149,139
103,129,132,-124,22,132,-17,107,168,183,146,136
102,128,132,-123,21,131,-18,102,162,178,143,135
98,125,131,-119,16,128,-20,96,154,169,138,131
94,122,131,-116,10,126,-20,90,146,161,133,127
90,119,132,-112,5,125,-21,85,139,153,127,124
86,117,131,-109,1,123,-21,79,131,145,123,120
81,112,130,-104,-5,119,-22,72,122,136,117,115
76,108,128,-99,-9,116,-22,67,114,127,111,111
71,104,126,-95,-14,112,-22,60,106,119,104,106
66,100,126,-90,-21,110,-22,55,98,110,98,102
61,95,122,-85,-23,105,-22,49,90,101,92,96
55,90,118,-79,-27,100,-21,44,82,93,85,91
50,84,114,-74,-31,95,-20,39,74,84,78,84
46,80,110,-69,-33,91,-20,34,67,76,72,79
41,75,106,-64,-35,86,-18,29,61,68,66,74
36,70,103,-58,-39,81,-18,25,55,61,60,69
31,65,99,-53,-42,76,-17,20,48,54,55,64
27,60,95,-48,-44,72,-16,16,42,46,49,59
23,55,89,-44,-44,67,-15,13,37,41,44,55
18,50,85,-38,-48,62,-14,10,32,35,40,50
15,45,79,-34,-47,56,-13,7,27,29,35,46
11,40,75,-29,-48,52,-11,4,23,23,30,41
8,37,71,-26,-48,48,-10,3,19,19,27,38
6,33,67,-23,-48,45,-9,1,15,15,23,35
3,30,63,-19,-48,41,-8,-1,12,10,19,31
-1,26,62,-15,-52,38,-7,-3,9,6,16,28
-3,23,57,-12,-51,34,-6,-5,7,3,13,25
-6,19,53,-9,-51,30,-5,-6,5,1,11,23
-9,16,50,-6,-52,27,-4,-7,2,-2,8,20
-11,13,48,-3,-53,24,-2,-7,1,-4,6,17
-12,11,45,-1,-53,22,-2,-9,-1,-5,4,16
-15,10,46,0,-57,21,-1,-9,-3,-7,4,15
-16,8,44,2,-56,19,-1,-10,-4,-8,2,13
-19,6,44,5,-60,18,-0,-10,-5,-9,1,12
-18,6,41,5,-57,17,-0,-11,-6,-10,0,11
-20,5,41,6,-60,16,0,-11,-6,-11,-1,11
-21,4,41,7,-61,16,0,-12,-6,-12,-1,10
-22,3,41,8,-63,15,1,-12,-6,-13,-2,10
-22,2,40,9,-63,14,0,-13,-7,-13,-3,9
-22,2,40,9,-63,14,0,-13,-7,-13,-3,8
-22,1,38,9,-60,13,0,-14,-8,-13,-4,7
-22,1,38,9,-60,13,0,-14,-8,-13,-4,7
-22,0,36,10,-59,12,0,-15,-8,-14,-4,7
-22,0,36,10,-59,12,0,-15,-8,-14,-4,7
-22,0,36,10,-59,12,0,-15,-8,-14,-4,7
-22,0,36,10,-59,12,0,-15,-8,-14,-4,7
-22,-0,34,10,-56,10,0,-15,-8,-14,-4,7
-22,-0,34,10,-56,10,0,-15,-8,-14,-4,7
-22,-1,32,11,-56,9,0,-15,-8,-14,-4,7
-22,-1,32,11,-56,9,0,-15,-8,-14,-4,7
-23,-2,32,12,-57,9,0,-15,-8,-14,-4,7
-23,-2,32,12,-57,9,0,-15,-7,-13,-4,8
-23,-2,32,12,-57,9,0,-15,-7,-13,-4,9
-23,-2,32,12,-57,9,1,-14,-6,-12,-4,10
-23,-3,30,13,-55,7,1,-14,-6,-12,-4,10
-24,-4,30,14,-56,7,1,-13,-6,-11,-3,11
-26,-5,30,15,-59,6,1,-13,-6,-11,-3,11
-26,-5,30,15,-59,6,2,-12,-6,-10,-2,12
-26,-6,28,15,-57,5,2,-12,-6,-10,-3,11
-24,-6,26,14,-53,4,2,-12,-6,-10,-3,11
-23,-6,24,14,-51,4,2,-12,-6,-10,-3,11
-23,-6,24,14,-51,4,2,-12,-6,-10,-3,11
-22,-6,22,14,-47,3,1,-12,-6,-10,-3,11
-21,-6,20,13,-44,2,1,-12,-6,-10,-3,11
-19,-6,18,12,-40,2,1,-12,-6,-10,-3,11
-19,-6,18,12,-40,2,1,-12,-6,-10,-2,11
-19,-6,18,12,-40,2,0,-12,-6,-10,-3,10
-19,-6,18,12,-40,2,0,-12,-6,-10,-3,10
-19,-6,18,12,-40,2,0,-12,-6,-10,-3,10
-20,-5,20,12,-43,3,0,-12,-6,-10,-3,10
-21,-5,22,13,-46,3,0,-12,-6,-10,-3,10
-22,-5,24,13,-49,4,0,-11,-5,-10,-3,10
-23,-5,26,14,-52,5,0,-11,-4,-10,-3,10
-25,-5,28,14,-56,5,1,-10,-3,-10,-2,11
-24,-6,26,14,-53,4,1,-10,-3,-10,-2,10
-24,-6,26,14,-53,4,1,-10,-3,-10,-2,10
-26,-7,26,16,-55,3,1,-10,-3,-10,-2,10
-26,-7,26,16,-55,3,1,-10,-3,-10,-2,10
-26,-7,24,16,-53,2,1,-11,-4,-11,-3,9
-24,-7,22,16,-49,2,1,-11,-4,-12,-4,8
-23,-7,20,15,-47,1,1,-11,-5,-13,-4,7
-22,-7,18,14,-43,0,1,-11,-5,-13,-4,7
-21,-7,16,14,-40,0,0,-12,-6,-13,-5,6
-19,-7,14,14,-36,-0,0,-12,-6,-14,-6,5
-18,-7,13,13,-34,-1,-0,-13,-6,-15,-6,4
-18,-7,13,13,-34,-1,-0,-13,-6,-15,-6,4
-18,-7,13,13,-34,-1,-0,-14,-6,-16,-7,4
-18,-7,13,13,-34,-1,-0,-14,-6,-16,-7,4
-18,-7,13,13,-34,-1,-0,-14,-6,-16,-7,4
-18,-7,14,13,-35,0,-0,-14,-6,-16,-7,4
-19,-7,14,14,-36,-0,-0,-14,-6,-17,-7,4
-21,-7,16,14,-40,0,-0,-14,-6,-17,-7,4
-21,-7,16,14,-40,0,-0,-14,-6,-17,-7,4
-22,-7,18,14,-43,0,-0,-14,-6,-17,-6,4
-23,-8,18,16,-46,0,-0,-14,-7,-18,-7,4
-26,-9,20,17,-51,0,0,-14,-7,-18,-7,4
-28,-10,20,19,-52,-0,0,-14,-8,-18,-8,3
-29,-10,22,19,-55,0,1,-14,-8,-18,-8,3
-29,-11,20,20,-53,-1,1,-15,-9,-19,-9,2
-29,-11,20,20,-53,-1,1,-15,-9,-20,-9,2
-29,-12,18,20,-52,-2,1,-15,-10,-20,-10,1
-29,-12,18,20,-52,-2,1,-15,-10,-21,-10,1
-29,-13,16,20,-51,-3,1,-16,-11,-22,-11,0
-29,-13,16,20,-51,-3,1,-16,-11,-22,-11,0
-30,-14,16,22,-52,-4,1,-16,-12,-23,-12,-1
-30,-14,16,22,-52,-4,2,-16,-12,-23,-12,-1
-30,-14,14,22,-49,-5,1,-16,-13,-23,-13,-1
-29,-14,13,22,-47,-6,1,-16,-13,-23,-13,-1
-27,-14,10,21,-43,-7,1,-16,-13,-24,-13,-1
-26,-14,9,20,-40,-7,1,-16,-13,-24,-13,-1
-26,-15,6,21,-39,-9,0,-17,-14,-25,-14,-2
-26,-16,5,22,-38,-10,0,-17,-14,-25,-14,-2
-27,-17,3,23,-36,-11,0,-17,-15,-26,-14,-3
-26,-18,1,23,-34,-12,0,-17,-15,-26,-14,-3
-27,-19,-1,24,-34,-13,0,-18,-16,-26,-15,-4
-27,-19,-1,24,-34,-13,0,-18,-17,-27,-15,-4
-26,-19,-3,24,-31,-15,0,-19,-17,-28,-16,-5
-26,-19,-3,24,-31,-15,0,-19,-17,-29,-16,-5
-26,-19,-3,24,-31,-15,0,-20,-18,-29,-17,-5
-26,-19,-3,24,-31,-15,0,-20,-19,-30,-17,-7
-26,-19,-3,24,-31,-15,0,-20,-20,-31,-17,-7
-28,-19,-1,24,-35,-14,0,-20,-20,-31,-17,-8
-28,-19,-1,24,-35,-14,0,-20,-20,-31,-18,-9
-29,-19,1,25,-38,-13,0,-20,-20,-32,-18,-9
-30,-19,3,26,-42,-13,0,-20,-21,-33,-19,-10
-30,-19,5,25,-43,-12,0,-20,-21,-33,-19,-10
-31,-19,5,26,-44,-12,0,-21,-22,-33,-20,-11
-31,-19,5,26,-44,-12,0,-21,-22,-33,-20,-11
-33,-20,5,27,-46,-13,0,-21,-22,-33,-21,-12
-33,-20,5,27,-46,-13,1,-21,-22,-33,-21,-12
-33,-21,3,28,-44,-14,0,-21,-22,-34,-21,-12
-34,-22,3,29,-47,-15,0,-21,-22,-34,-21,-12
-35,-23,3,30,-48,-15,0,-21,-22,-34,-21,-12
-35,-23,3,30,-48,-15,0,-20,-22,-34,-21,-11
-35,-24,1,31,-46,-17,0,-21,-23,-35,-22,-12
-34,-24,-1,30,-43,-17,0,-21,-23,-35,-22,-12
-34,-25,-3,31,-40,-18,0,-21,-24,-36,-23,-12
-33,-25,-5,30,-38,-18,0,-21,-24,-36,-23,-12
-33,-26,-7,31,-36,-20,-0,-22,-24,-36,-23,-13
-32,-26,-9,30,-34,-20,-0,-22,-24,-37,-24,-14
-30,-26,-11,30,-30,-21,-0,-22,-25,-38,-25,-15
-30,-26,-11,30,-30,-21,-0,-22,-25,-38,-25,-15
-30,-26,-13,30,-29,-22,-0,-22,-26,-39,-26,-16
-30,-26,-13,30,-29,-22,-0,-22,-26,-39,-26,-16
-30,-26,-13,30,-29,-22,-0,-22,-26,-39,-26,-16
-30,-26,-13,30,-29,-22,-0,-22,-26,-39,-26,-16
-30,-27,-15,31,-26,-24,-0,-24,-26,-40,-27,-16
-30,-27,-15,31,-26,-24,-0,-24,-26,-40,-27,-16
-30,-28,-16,31,-25,-25,-0,-24,-26,-40,-27,-16
-30,-28,-16,31,-25,-25,0,-24,-26,-40,-27,-16
-32,-29,-16,32,-27,-25,0,-24,-26,-40,-27,-16
-33,-29,-15,33,-30,-25,0,-22,-26,-40,-27,-16
-33,-29,-15,33,-30,-25,0,-22,-26,-40,-27,-16
-34,-29,-13,34,-34,-24,1,-22,-25,-39,-27,-15
-35,-30,-13,34,-35,-25,1,-22,-26,-40,-28,-16
-35,-30,-13,34,-35,-25,1,-22,-26,-40,-28,-16
-35,-30,-13,34,-35,-25,1,-24,-27,-41,-29,-17
-35,-30,-13,34,-35,-25,1,-24,-27,-41,-29,-17
-35,-30,-13,34,-35,-25,0,-24,-27,-41,-29,-17
-35,-30,-13,34,-35,-25,0,-24,-27,-41,-29,-17
-35,-30,-13,34,-35,-25,-0,-24,-27,-41,-29,-17
-34,-29,-13,34,-34,-24,-0,-24,-27,-41,-29,-17
-34,-29,-13,34,-34,-24,-0,-24,-28,-42,-29,-19
-34,-29,-13,34,-34,-24,-0,-24,-28,-42,-29,-19
-34,-29,-13,34,-34,-24,-0,-24,-28,-42,-29,-19
-34,-29,-13,34,-34,-24,-0,-22,-28,-42,-29,-19
-34,-30,-15,34,-31,-25,-0,-24,-28,-42,-29,-19
-33,-30,-16,33,-29,-26,-0,-24,-28,-42,-29,-19
-31,-30,-19,33,-25,-27,-0,-24,-28,-42,-29,-19
-31,-30,-19,33,-25,-27,0,-24,-27,-42,-29,-19
-32,-31,-20,34,-23,-28,-0,-24,-28,-42,-30,-20
-32,-31,-20,34,-23,-28,-0,-24,-28,-42,-30,-20
-30,-31,-23,33,-20,-29,-0,-24,-28,-42,-31,-20
-30,-31,-23,33,-20,-29,-0,-24,-28,-42,-31,-20
-29,-31,-24,32,-17,-29,-0,-24,-28,-43,-31,-21
-29,-31,-24,32,-17,-29,-0,-24,-28,-43,-31,-22
-28,-31,-27,32,-13,-30,-0,-24,-28,-43,-32,-23
-28,-31,-27,32,-13,-30,-0,-24,-28,-43,-32,-23
-28,-31,-27,32,-13,-30,-0,-25,-28,-43,-32,-23
-28,-31,-27,32,-13,-30,-0,-25,-28,-43,-32,-23
-28,-31,-27,32,-13,-30,-0,-25,-28,-43,-32,-23
-29,-31,-24,32,-17,-29,-0,-25,-28,-43,-32,-22
-28,-31,-27,32,-13,-30,-0,-25,-29,-43,-32,-22
-28,-31,-27,32,-13,-30,-0,-25,-29,-43,-32,-22
-28,-31,-27,32,-13,-30,-0,-25,-29,-43,-32,-22
-28,-31,-27,32,-13,-30,-0,-25,-29,-43,-32,-22
-29,-32,-27,33,-14,-30,-0,-25,-29,-43,-32,-22
-29,-32,-27,33,-14,-30,-0,-25,-29,-43,-32,-22
-29,-32,-27,33,-14,-30,-0,-25,-29,-43,-32,-22
-29,-32,-27,33,-14,-30,-0,-24,-29,-42,-31,-21
-28,-33,-31,33,-10,-32,-0,-25,-30,-43,-32,-22
-27,-33,-32,32,-8,-33,-0,-25,-30,-43,-32,-22
-26,-33,-34,33,-5,-34,-0,-25,-30,-43,-32,-22
-25,-33,-36,32,-3,-35,-0,-25,-30,-43,-32,-22
-27,-34,-36,34,-4,-35,-0,-25,-30,-43,-32,-22
-27,-34,-36,34,-4,-35,-0,-25,-30,-43,-32,-22
-28,-35,-36,34,-5,-36,-0,-25,-30,-43,-32,-22
-28,-35,-36,34,-5,-36,-0,-25,-30,-42,-31,-22
-29,-36,-36,36,-8,-36,-0,-25,-30,-42,-31,-22
-29,-36,-36,36,-8,-36,-0,-25,-30,-42,-31,-22
-29,-36,-36,36,-8,-36,-0,-25,-30,-42,-31,-22
-29,-36,-36,36,-8,-36,-0,-24,-29,-42,-31,-21
-29,-36,-36,36,-8,-36,-0,-24,-29,-42,-31,-21
-29,-36,-36,36,-8,-36,-0,-24,-29,-42,-31,-21
-29,-36,-36,36,-8,-36,-0,-24,-29,-42,-31,-21
-29,-36,-36,36,-8,-36,0,-24,-29,-42,-31,-21
-29,-36,-36,36,-8,-36,0,-24,-29,-42,-31,-21
-29,-36,-36,36,-8,-36,0,-24,-29,-42,-31,-21
-29,-36,-36,36,-8,-36,0,-24,-29,-42,-31,-21
-30,-36,-34,36,-10,-36,0,-24,-29,-42,-31,-21
-29,-36,-36,36,-8,-36,0,-25,-30,-42,-31,-21
-29,-36,-36,36,-8,-36,0,-25,-30,-42,-31,-21
-29,-36,-36,36,-8,-36,0,-25,-30,-42,-31,-21
-29,-36,-36,36,-8,-36,0,-25,-30,-41,-31,-21
-29,-37,-38,36,-5,-37,0,-25,-31,-41,-32,-22
-29,-37,-38,36,-5,-37,0,-25,-31,-41,-32,-22
-30,-38,-38,37,-7,-38,0,-25,-31,-41,-32,-22
-30,-38,-38,37,-7,-38,0,-25,-31,-41,-32,-22
-29,-38,-40,37,-4,-39,-0,-26,-31,-42,-33,-23
-29,-38,-40,37,-4,-39,-0,-26,-31,-42,-33,-23
-28,-38,-42,36,0,-39,-0,-27,-31,-42,-34,-24
-26,-37,-42,35,1,-39,-0,-27,-31,-42,-34,-24
-25,-37,-44,34,4,-39,-0,-28,-32,-43,-34,-24
-25,-37,-44,34,4,-39,-0,-28,-32,-43,-34,-24
-25,-37,-44,34,4,-39,-0,-28,-33,-44,-34,-25
-24,-36,-44,34,5,-39,-0,-28,-33,-44,-34,-25
-23,-37,-46,34,8,-40,-0,-28,-33,-44,-34,-25
-23,-37,-46,34,8,-40,-0,-28,-33,-44,-34,-25
-23,-37,-46,34,8,-40,-0,-28,-33,-44,-34,-25
-23,-37,-46,34,8,-40,-0,-28,-33,-44,-34,-25
-22,-37,-48,33,10,-40,-0,-28,-33,-44,-34,-25
-22,-37,-48,33,10,-40,-0,-28,-32,-43,-34,-24
-22,-37,-48,33,10,-40,-0,-28,-32,-43,-34,-24
-22,-37,-48,33,10,-40,0,-27,-31,-42,-33,-24
-22,-38,-50,34,13,-42,0,-27,-31,-42,-33,-24
-22,-38,-50,34,13,-42,0,-27,-31,-42,-33,-24
-22,-38,-50,34,13,-42,0,-27,-31,-42,-33,-24
-22,-38,-50,34,13,-42,1,-26,-31,-42,-33,-24
-22,-38,-50,34,13,-42,1,-26,-31,-42,-34,-24
-24,-38,-48,34,9,-41,1,-26,-31,-42,-34,-24
-25,-38,-46,35,7,-41,1,-26,-31,-42,-34,-25
-25,-37,-44,34,4,-39,1,-26,-31,-42,-34,-25
-27,-38,-44,36,3,-40,1,-26,-31,-42,-34,-26
-27,-38,-44,36,3,-40,1,-26,-31,-42,-34,-26
-27,-38,-44,36,3,-40,1,-26,-31,-42,-34,-26
-28,-38,-42,36,0,-39,1,-25,-31,-42,-34,-26
-28,-38,-42,36,0,-39,0,-26,-31,-43,-34,-27
-28,-38,-42,36,0,-39,0,-26,-31,-43,-34,-27
-28,-38,-42,36,0,-39,0,-26,-31,-44,-34,-27
-28,-38,-42,36,0,-39,0,-26,-31,-44,-34,-27
-28,-38,-42,36,0,-39,0,-26,-31,-44,-34,-27
-28,-38,-42,36,0,-39,0,-26,-31,-44,-34,-27
-28,-38,-42,36,0,-39,0,-26,-31,-44,-34,-27
-28,-38,-42,36,0,-39,0,-26,-31,-44,-34,-27
-27,-38,-44,36,3,-40,-0,-27,-31,-44,-35,-28
-27,-38,-44,36,3,-40,-0,-27,-31,-44,-35,-28
-25,-38,-46,35,7,-41,-0,-27,-31,-45,-36,-28
-23,-37,-46,34,8,-40,-0,-27,-31,-45,-36,-28
-25,-37,-44,34,4,-39,-0,-27,-31,-45,-36,-28
-26,-37,-42,35,1,-39,-0,-27,-31,-45,-36,-28
-28,-37,-40,35,-3,-38,-0,-27,-31,-45,-36,-28
-28,-36,-38,35,-4,-37,0,-26,-31,-44,-35,-28
-28,-37,-40,35,-3,-38,0,-26,-31,-44,-35,-28
-28,-37,-40,35,-3,-38,0,-26,-31,-44,-35,-28
-28,-37,-40,35,-3,-38,0,-26,-31,-44,-35,-28
-28,-37,-40,35,-3,-38,1,-26,-31,-44,-35,-28
-26,-37,-42,35,1,-39,1,-26,-31,-44,-35,-28
-26,-37,-42,35,1,-39,1,-26,-31,-44,-35,-28
-26,-37,-42,35,1,-39,1,-26,-31,-44,-35,-28
-26,-37,-42,35,1,-39,2,-25,-31,-44,-35,-28
-25,-37,-45,34,5,-40,2,-25,-32,-44,-35,-28
-23,-36,-45,33,7,-39,3,-25,-31,-43,-35,-28
-23,-35,-44,33,7,-38,3,-25,-32,-43,-35,-28
-21,-34,-45,31,10,-38,4,-25,-31,-42,-35,-27
-20,-33,-42,30,9,-36,3,-25,-31,-42,-35,-27
-19,-31,-40,28,9,-34,3,-25,-31,-42,-34,-26
-17,-29,-38,26,9,-32,3,-25,-31,-41,-34,-26
-17,-27,-34,25,7,-30,3,-24,-30,-40,-33,-25
-17,-26,-31,24,3,-27,3,-25,-30,-40,-33,-25
-16,-23,-27,22,1,-24,3,-25,-29,-40,-32,-25
-16,-21,-23,20,-1,-22,3,-25,-29,-39,-31,-25
-16,-19,-17,19,-7,-18,3,-24,-29,-38,-31,-24
-13,-17,-17,17,-3,-17,3,-24,-28,-38,-31,-24
-12,-15,-15,15,-4,-15,3,-24,-28,-37,-30,-23
-10,-14,-15,13,0,-14,3,-24,-28,-37,-30,-23
-8,-12,-13,11,0,-12,3,-22,-27,-36,-29,-22
-7,-12,-15,11,3,-13,3,-22,-27,-36,-29,-22
-6,-11,-15,10,4,-12,1,-23,-27,-35,-29,-21
-5,-10,-15,9,7,-12,0,-22,-27,-34,-28,-21
-3,-9,-15,7,8,-11,-0,-22,-27,-33,-27,-20
-2,-8,-15,7,9,-10,-2,-22,-27,-34,-27,-19
-1,-8,-15,6,10,-10,-3,-22,-27,-33,-26,-19
1,-7,-15,4,13,-9,-4,-22,-27,-32,-26,-18
0,-6,-13,4,10,-8,-5,-23,-26,-31,-25,-17
1,-5,-11,3,9,-7,-7,-24,-27,-31,-25,-16
-1,-4,-7,3,5,-5,-8,-25,-27,-31,-24,-15
-1,-3,-5,3,4,-4,-10,-25,-28,-30,-24,-14
-1,-1,-1,2,-1,-1,-11,-25,-28,-29,-23,-13
1,-1,-2,1,1,-1,-13,-27,-28,-30,-23,-13
1,0,1,0,0,0,-14,-28,-29,-30,-23,-13
2,1,1,-1,1,1,-16,-29,-30,-30,-23,-13
2,2,3,-1,-1,2,-16,-30,-31,-30,-23,-12
3,1,-1,-1,4,0,-17,-31,-31,-31,-24,-13
3,0,-3,-1,7,-0,-17,-31,-32,-31,-24,-12
5,-0,-7,-1,12,-2,-18,-31,-33,-31,-24,-13
6,-0,-9,-2,16,-3,-18,-31,-33,-31,-24,-12
7,-3,-16,-0,22,-7,-19,-32,-34,-33,-25,-13
9,-5,-24,-0,31,-11,-19,-33,-35,-34,-26,-13
12,-7,-32,-0,42,-14,-20,-34,-35,-35,-26,-14
13,-8,-38,0,48,-18,-20,-34,-36,-36,-26,-14
12,-11,-42,2,51,-20,-19,-34,-37,-37,-27,-15
11,-14,-46,4,52,-23,-18,-34,-37,-37,-28,-16
9,-16,-50,7,53,-27,-18,-34,-38,-38,-29,-17
10,-18,-54,7,57,-29,-17,-33,-38,-39,-29,-18
7,-20,-56,10,55,-31,-16,-33,-39,-40,-31,-19
3,-23,-56,14,49,-33,-14,-33,-40,-41,-31,-20
-1,-26,-56,17,44,-35,-12,-33,-40,-42,-32,-21
-4,-27,-56,19,42,-36,-10,-32,-40,-43,-33,-22
-8,-30,-56,23,36,-38,-9,-32,-41,-44,-34,-24
-11,-32,-54,25,30,-39,-8,-32,-41,-44,-35,-25
-16,-34,-52,29,22,-40,-6,-32,-41,-45,-37,-27
-20,-36,-50,32,16,-41,-4,-31,-41,-46,-37,-28
-21,-38,-52,34,16,-42,-4,-32,-42,-47,-39,-30
-21,-39,-54,34,17,-44,-3,-32,-42,-48,-40,-31
-23,-41,-56,36,17,-46,-2,-32,-42,-49,-41,-32
-24,-41,-56,37,16,-46,-1,-32,-42,-50,-42,-32
-23,-42,-58,37,18,-47,-2,-33,-43,-50,-43,-33
-23,-43,-60,37,20,-49,-2,-34,-44,-51,-44,-34
-24,-44,-61,38,20,-50,-3,-35,-45,-52,-45,-35
-24,-45,-63,39,22,-51,-3,-35,-45,-52,-46,-36
-22,-46,-69,39,29,-54,-4,-35,-45,-54,-46,-36
-21,-47,-74,39,34,-56,-4,-35,-46,-54,-47,-37
-18,-48,-79,38,42,-58,-4,-37,-47,-55,-47,-38
-18,-49,-83,39,46,-60,-4,-36,-48,-56,-48,-39
-21,-49,-77,41,36,-58,-2,-35,-47,-56,-47,-39
-27,-49,-69,43,22,-56,-0,-35,-46,-55,-47,-38
-30,-49,-64,44,16,-54,1,-34,-45,-54,-46,-37
-34,-48,-56,45,4,-51,3,-33,-45,-54,-45,-36
-35,-45,-49,44,-4,-47,1,-38,-46,-55,-47,-40
-34,-43,-45,42,-7,-44,4,-32,-42,-51,-46,-36
-40,-48,-46,48,-13,-48,3,-33,-43,-52,-47,-37
-36,-46,-48,45,-7,-47,-2,-36,-45,-55,-48,-39
-44,-50,-44,51,-20,-48,1,-33,-46,-53,-45,-38
-43,-54,-56,53,-9,-55,8,-25,-41,-48,-42,-35
-32,-48,-58,44,8,-51,1,-33,-47,-52,-46,-39
-35,-47,-50,45,-4,-48,4,-33,-45,-54,-47,-40
-32,-48,-59,44,9,-52,5,-31,-43,-52,-47,-41
-30,-44,-52,41,4,-47,12,-25,-40,-52,-49,-43
-36,-51,-58,48,1,-54,16,-25,-38,-57,-57,-52
-41,-52,-54,51,-8,-54,32,-6,-21,-54,-57,-53
-44,-49,-42,50,-21,-47,35,-3,-20,-61,-66,-61
-47,-40,-17,46,-47,-34,43,3,-17,-69,-74,-67
-57,-35,9,47,-81,-22,54,10,-12,-70,-80,-72
-50,-38,-7,46,-59,-29,64,31,12,-53,-70,-67
-43,-17,28,30,-78,-3,67,37,23,-38,-58,-56
-27,-6,28,16,-57,5,58,46,39,-8,-32,-34
15,4,-13,-8,30,-1,52,75,84,49,10,-0
58,21,-41,-37,108,2,37,101,124,106,58,42
102,42,-62,-69,182,11,11,110,141,149,105,84
151,77,-58,-112,241,36,-34,97,133,181,151,135
188,121,-15,-155,253,80,-96,52,100,208,194,184
239,173,24,-210,285,129,-177,-22,35,219,228,230
283,230,85,-265,292,188,-254,-95,-25,235,264,271
286,269,169,-291,225,242,-287,-140,-67,265,301,312
298,290,196,-308,217,264,-321,-190,-110,280,327,342
304,300,210,-317,214,275,-337,-221,-133,302,349,365
308,306,218,-323,212,282,-368,-269,-181,294,360,382
273,298,254,-303,138,288,-373,-315,-224,282,351,379
242,258,212,-265,133,247,-363,-323,-234,270,339,362
208,217,171,-224,124,206,-324,-302,-226,246,313,338
180,181,132,-190,120,168,-294,-289,-228,203,275,305
141,157,137,-158,66,153,-262,-277,-236,127,210,255
117,145,148,-140,27,148,-244,-279,-259,49,142,200
95,118,122,-114,20,121,-211,-261,-260,-18,87,160
86,91,73,-93,49,87,-179,-247,-266,-90,24,106
65,66,50,-69,42,62,-145,-229,-260,-141,-24,64
39,58,71,-52,-9,63,-110,-195,-234,-151,-45,40
25,48,71,-40,-27,56,-72,-153,-196,-129,-43,31
14,34,57,-27,-30,42,-40,-116,-152,-97,-37,19
-4,21,54,-11,-49,32,-12,-76,-109,-68,-29,13
-4,13,36,-6,-34,20,-1,-50,-82,-52,-25,5
2,-3,-9,2,9,-5,12,-30,-61,-42,-26,-4
-10,-19,-27,17,9,-21,35,-4,-36,-31,-24,-12
3,-29,-69,18,60,-42,52,18,-15,-21,-19,-12
3,-29,-70,17,61,-42,54,18,-11,-22,-20,-17
-3,-29,-61,20,47,-39,55,19,-7,-21,-19,-17
-6,-26,-48,19,31,-33,47,15,-8,-20,-20,-17
-20,-26,-27,25,-4,-26,47,13,-7,-18,-18,-13
-16,-23,-27,22,1,-24,39,1,-13,-24,-25,-19
-12,-26,-38,22,16,-30,39,2,-10,-26,-29,-21
-24,-20,-9,24,-23,-17,38,2,-8,-26,-27,-20
-30,-22,-3,27,-36,-17,35,6,-6,-25,-26,-18
-20,-31,-38,28,7,-34,29,1,-9,-31,-34,-29
-18,-33,-45,29,13,-36,34,8,-3,-27,-30,-27
-18,-32,-42,28,12,-35,29,-1,-10,-33,-36,-35
-17,-35,-52,30,22,-41,31,3,-10,-33,-36,-36
-29,-36,-37,35,-7,-36,35,7,-8,-30,-37,-35
-30,-35,-33,36,-12,-35,35,7,-7,-29,-34,-34
-27,-37,-42,35,1,-39,33,2,-11,-33,-39,-37
-32,-34,-28,36,-17,-33,38,8,-2,-30,-34,-32
-22,-37,-48,33,10,-40,32,6,-3,-29,-36,-34
-22,-34,-42,32,7,-37,28,4,-2,-30,-36,-35
-23,-36,-45,33,7,-39,28,5,-2,-30,-37,-36
-23,-37,-46,34,8,-40,29,6,-1,-29,-37,-37
-24,-38,-48,34,9,-41,28,7,-1,-29,-36,-38
-25,-39,-48,35,8,-42,29,9,-0,-28,-36,-39
-26,-39,-46,36,5,-41,29,9,0,-28,-36,-39
-26,-38,-45,35,4,-40,30,9,-0,-27,-35,-38
-28,-38,-42,36,0,-39,31,9,0,-26,-35,-38
-28,-37,-40,35,-3,-38,32,10,1,-26,-34,-37
-28,-37,-40,36,-3,-38,32,11,2,-24,-34,-37
-26,-36,-41,34,0,-38,32,12,3,-23,-33,-37
-26,-36,-41,34,0,-38,32,13,4,-21,-32,-36
-27,-35,-38,34,-3,-36,33,15,6,-20,-31,-35
-25,-35,-40,33,1,-37,33,15,7,-19,-31,-35
-24,-34,-40,32,3,-36,33,16,8,-18,-31,-35
-23,-34,-41,32,4,-36,33,16,8,-18,-31,-35
-23,-34,-40,31,4,-36,33,18,10,-17,-30,-34
-22,-33,-41,31,5,-36,33,18,11,-16,-30,-34
-22,-34,-41,31,5,-36,33,19,12,-16,-29,-34
-23,-34,-40,31,4,-36,33,18,13,-15,-29,-34
-22,-33,-38,31,3,-35,33,19,13,-14,-28,-33
-22,-33,-38,31,3,-35,33,20,14,-14,-28,-33
-22,-33,-38,31,3,-35,33,21,16,-13,-27,-32
-22,-33,-38,31,3,-35,33,22,17,-12,-26,-32
-23,-32,-36,31,0,-34,34,23,19,-11,-26,-31
-23,-32,-36,31,0,-34,34,23,19,-10,-25,-32
-22,-31,-34,30,0,-32,34,24,21,-8,-24,-31
-21,-30,-34,29,1,-32,34,25,22,-7,-23,-31
-21,-29,-32,28,-1,-30,34,26,23,-6,-23,-30
-20,-28,-32,27,1,-30,34,27,24,-5,-23,-29
-19,-27,-32,26,3,-29,34,28,26,-4,-22,-29
-18,-27,-32,25,4,-29,34,29,27,-3,-21,-29
-15,-25,-32,23,7,-27,35,29,29,-1,-21,-28
-15,-24,-31,22,7,-26,35,31,29,-1,-20,-28
-15,-23,-28,22,4,-25,35,31,31,1,-18,-27
-15,-22,-27,21,3,-24,35,32,33,2,-17,-27
-14,-20,-24,19,3,-22,35,34,34,4,-16,-26
-14,-20,-24,19,3,-22,35,35,36,5,-15,-26
-12,-19,-24,18,4,-21,36,37,38,7,-13,-25
-11,-19,-24,17,5,-20,36,39,39,10,-12,-24
-9,-18,-25,16,9,-20,37,41,41,12,-10,-24
-10,-17,-23,15,7,-19,37,42,43,13,-9,-23
-9,-16,-21,14,5,-18,37,44,45,16,-7,-22
-10,-15,-19,14,3,-17,37,46,48,18,-6,-21
-8,-14,-17,13,4,-15,38,47,50,20,-4,-20
-6,-13,-19,11,8,-15,38,49,51,22,-4,-19
-4,-11,-19,9,10,-14,38,51,54,24,-2,-18
-2,-10,-19,8,13,-13,38,53,56,26,-1,-17
1,-8,-19,6,16,-12,39,55,58,29,0,-16
2,-8,-19,5,17,-11,39,57,60,31,1,-15
3,-6,-17,3,18,-9,39,59,63,34,3,-13
4,-4,-15,1,17,-7,39,61,65,36,5,-13
6,-2,-13,-0,18,-5,40,64,68,39,7,-11
7,-1,-13,-2,20,-5,40,66,71,42,9,-9
8,0,-11,-3,20,-3,41,69,74,45,11,-7
9,2,-9,-4,18,-1,41,71,77,48,13,-5
11,4,-7,-6,20,1,42,74,81,52,16,-4
12,6,-5,-8,20,3,42,76,85,55,18,-2
12,7,-1,-9,16,5,42,79,89,59,21,0
13,9,1,-10,17,7,42,82,93,62,23,2
15,12,5,-13,16,10,43,85,97,67,26,5
18,14,5,-16,20,12,43,88,101,70,29,7
21,17,6,-19,22,14,43,90,106,74,32,10
24,19,7,-22,26,16,43,93,109,79,35,12
27,22,9,-24,27,18,44,97,114,83,39,15
30,25,10,-27,30,21,44,100,119,88,41,19
32,27,13,-30,31,23,44,103,125,93,45,22
35,30,15,-33,33,26,44,107,129,98,49,25
38,33,16,-36,35,28,44,111,135,104,52,29
43,36,16,-40,42,31,44,113,140,109,56,32
46,39,19,-44,43,34,44,118,144,114,60,35
50,43,20,-48,47,36,44,120,149,119,64,39
54,47,23,-51,51,40,44,124,154,125,69,43
58,50,24,-55,55,43,43,126,159,130,72,46
62,54,28,-60,56,47,42,130,164,136,77,50
64,58,32,-63,56,51,41,133,168,141,81,53
68,62,36,-68,57,55,41,137,174,146,86,58
71,66,40,-71,57,59,39,139,178,151,89,61
74,70,44,-75,59,63,38,142,182,156,94,64
78,74,48,-79,60,67,38,143,186,161,97,68
82,78,52,-84,63,71,37,146,190,166,102,72
85,82,56,-87,63,75,35,148,193,170,105,75
87,86,62,-91,60,80,34,150,197,175,109,79
90,91,67,-95,59,85,33,152,200,179,113,82
92,95,74,-98,56,89,32,154,204,184,117,86
96,99,75,-102,61,93,30,156,205,187,120,90
98,102,79,-105,60,96,28,156,208,191,124,93
102,105,81,-109,63,99,26,157,209,194,127,96
105,109,85,-112,64,103,25,159,211,198,130,100
108,111,87,-115,65,106,23,158,211,199,133,103
111,114,88,-118,68,108,21,158,212,202,135,105
113,117,91,-121,69,110,19,159,213,204,138,107
116,120,93,-124,72,113,17,158,214,206,141,111
119,122,92,-127,76,114,15,157,212,206,141,112
123,124,92,-130,81,116,13,155,211,206,143,114
125,126,93,-132,83,118,10,153,209,206,144,116
128,129,95,-135,85,120,9,151,208,206,145,118
128,130,96,-135,83,121,6,147,203,204,144,118
128,131,99,-136,82,123,4,144,199,201,144,119
128,131,100,-136,81,124,1,140,195,199,143,119
129,133,103,-138,81,125,-0,137,191,197,142,119
128,132,103,-137,78,125,-2,131,184,192,139,118
127,132,104,-136,76,125,-4,127,178,187,137,117
127,132,104,-136,76,125,-6,121,172,182,134,115
125,132,106,-136,72,126,-8,116,165,177,132,114
121,130,106,-133,66,124,-9,110,157,170,127,111
117,127,108,-129,60,123,-11,103,150,162,123,108
113,124,108,-126,55,121,-11,97,142,155,119,105
109,123,110,-123,48,121,-12,91,134,149,114,102
104,118,108,-118,43,117,-13,85,125,140,108,98
100,115,106,-114,39,114,-13,78,116,132,102,94
95,110,104,-109,35,110,-14,72,107,124,97,90
90,107,104,-105,29,108,-14,66,98,116,91,86
85,102,101,-99,25,103,-14,59,90,108,85,81
78,97,99,-94,18,99,-14,53,81,99,79,76
72,91,96,-87,12,94,-14,46,73,91,73,71
67,87,95,-82,7,91,-13,41,65,82,67,66
63,82,89,-78,7,86,-13,35,57,74,61,59
59,77,83,-73,7,80,-12,29,49,66,54,54
56,72,77,-68,8,74,-11,24,41,58,48,48
51,67,73,-63,5,70,-10,19,34,51,42,43
47,62,67,-58,5,65,-9,16,28,44,36,38
44,58,63,-54,4,60,-9,12,23,38,31,33
39,52,59,-49,0,55,-8,8,17,31,26,28
35,48,56,-44,-1,52,-6,5,12,25,21,24
31,44,52,-40,-3,47,-5,3,8,20,16,19
27,40,50,-36,-7,44,-4,1,4,16,13,16
24,36,45,-32,-7,40,-3,-1,-0,11,8,11
19,32,44,-28,-12,36,-2,-3,-4,7,5,8
16,29,42,-24,-14,34,-1,-5,-7,4,2,5
12,26,41,-21,-18,32,-0,-6,-10,1,-1,2
8,23,40,-17,-22,29,0,-7,-12,-2,-4,-1
5,20,40,-14,-27,27,1,-9,-14,-5,-6,-3
3,18,38,-12,-27,25,1,-10,-17,-7,-8,-5
1,17,38,-10,-30,23,2,-11,-18,-10,-10,-7
-1,15,36,-9,-30,22,3,-12,-20,-12,-12,-9
-3,14,36,-7,-34,21,4,-13,-21,-14,-14,-11
-4,11,32,-5,-31,18,4,-14,-22,-16,-15,-12
-5,10,30,-3,-30,16,4,-15,-23,-17,-16,-13
-6,8,28,-2,-31,15,4,-16,-24,-18,-17,-15
-6,7,26,-2,-29,13,5,-17,-24,-19,-18,-16
-6,6,24,-1,-27,12,5,-18,-25,-20,-19,-17
-7,6,24,0,-29,12,6,-18,-25,-20,-20,-17
-7,5,22,1,-27,10,6,-18,-26,-21,-20,-17
-8,4,22,2,-29,10,7,-18,-26,-21,-20,-17
-8,3,20,2,-27,9,7,-18,-26,-21,-20,-17
-8,2,18,3,-26,7,7,-18,-26,-21,-20,-17
-8,1,16,3,-25,6,7,-18,-26,-21,-20,-17
-7,1,14,3,-21,5,8,-18,-26,-20,-20,-17
-7,1,14,3,-21,5,7,-18,-27,-20,-20,-17
-7,1,14,3,-21,5,7,-18,-27,-20,-20,-17
-7,1,14,3,-21,5,7,-18,-27,-20,-20,-17
-7,2,16,2,-23,7,7,-18,-27,-20,-20,-17
-7,2,16,2,-23,7,7,-18,-27,-20,-20,-17
-7,2,16,2,-23,7,7,-18,-26,-20,-20,-17
-7,2,16,2,-23,7,7,-18,-26,-20,-20,-17
-7,2,16,2,-23,7,8,-17,-25,-19,-20,-17
-7,2,16,2,-23,7,7,-18,-25,-19,-20,-17
-7,2,16,2,-23,7,7,-18,-25,-19,-20,-17
-7,2,16,2,-23,7,7,-18,-25,-19,-20,-17
-8,2,18,3,-26,7,7,-18,-25,-19,-20,-17
-8,1,16,3,-25,6,7,-18,-25,-19,-20,-17
-8,1,16,3,-25,6,8,-17,-24,-19,-20,-17
-7,1,14,3,-21,5,8,-17,-24,-19,-20,-17
-7,1,14,3,-21,5,9,-16,-24,-18,-20,-17
-6,1,13,2,-18,5,9,-17,-24,-18,-20,-17
-6,1,13,2,-18,5,9,-17,-24,-18,-20,-17
-4,1,10,1,-14,4,9,-17,-24,-18,-20,-17
-3,2,10,0,-13,5,9,-17,-24,-18,-20,-17
-3,2,10,0,-13,5,9,-17,-24,-18,-20,-17
-3,2,10,0,-13,5,9,-16,-24,-18,-20,-17
-3,2,10,0,-13,5,9,-16,-24,-18,-20,-17
-5,2,13,1,-17,5,9,-15,-23,-18,-20,-17
-5,2,13,1,-17,5,9,-15,-23,-18,-20,-17
-5,2,13,1,-17,5,9,-15,-23,-18,-20,-17
-5,2,13,1,-17,5,9,-15,-23,-18,-20,-17
-3,3,13,0,-14,6,9,-14,-22,-18,-19,-17
-3,3,13,0,-14,6,9,-14,-22,-18,-19,-17
-4,3,14,0,-17,7,9,-14,-22,-18,-19,-17
-6,3,16,1,-21,7,9,-14,-22,-18,-19,-17
-7,3,18,1,-23,8,11,-13,-21,-18,-19,-16
-7,3,18,1,-23,8,11,-13,-21,-18,-19,-16
-8,3,20,2,-27,9,11,-12,-20,-18,-19,-16
-8,3,20,2,-27,9,11,-11,-20,-18,-19,-16
-8,4,22,2,-29,10,11,-10,-19,-17,-18,-16
-8,3,20,2,-27,9,11,-10,-19,-18,-19,-17
-8,3,20,2,-27,9,11,-10,-19,-18,-19,-17
-8,3,20,2,-27,9,11,-10,-19,-18,-19,-17
-8,3,20,2,-27,9,12,-10,-19,-18,-19,-17
-8,2,18,3,-26,7,12,-10,-20,-18,-20,-17
-7,2,16,2,-23,7,12,-10,-20,-19,-20,-19
-6,2,14,2,-20,6,12,-10,-20,-20,-20,-19
-6,2,14,2,-20,6,12,-10,-20,-20,-20,-19
-6,1,13,2,-18,5,12,-11,-20,-20,-21,-20
-6,1,13,2,-18,5,12,-11,-20,-21,-21,-20
-7,0,13,3,-20,4,12,-11,-20,-22,-22,-20
-7,0,13,3,-20,4,12,-11,-20,-22,-22,-20
-7,0,13,3,-20,4,12,-12,-21,-23,-23,-21
-7,0,13,3,-20,4,12,-12,-22,-23,-23,-21
-7,0,13,3,-20,4,12,-13,-23,-24,-24,-22
-7,0,13,3,-20,4,12,-13,-23,-24,-24,-22
-7,0,13,3,-20,4,12,-13,-23,-25,-24,-22
-8,0,14,4,-22,5,13,-12,-23,-25,-24,-22
-8,0,14,4,-22,5,13,-12,-23,-25,-24,-22
-10,0,16,4,-26,5,14,-11,-22,-25,-24,-21
-9,-0,14,5,-23,4,14,-12,-23,-26,-25,-22
-8,-0,13,4,-21,4,14,-12,-24,-26,-25,-22
-8,-1,10,5,-20,2,14,-13,-24,-27,-26,-22
-8,-1,10,5,-20,2,14,-13,-24,-27,-26,-22
-7,-2,6,5,-14,0,14,-13,-25,-28,-26,-23
-7,-3,5,6,-13,-0,14,-13,-25,-29,-26,-23
-7,-4,3,6,-12,-1,14,-13,-25,-29,-27,-24
-7,-5,1,7,-10,-3,14,-12,-25,-29,-27,-24
-8,-6,1,7,-12,-3,14,-13,-26,-30,-27,-24
-8,-6,1,7,-12,-3,14,-13,-26,-30,-27,-24
-10,-7,1,9,-13,-4,14,-14,-27,-30,-27,-24
-10,-7,1,9,-13,-4,14,-14,-27,-30,-27,-24
-11,-7,1,10,-14,-5,14,-15,-28,-31,-28,-24
-11,-7,1,10,-14,-5,14,-15,-28,-31,-28,-24
-12,-8,1,11,-17,-5,14,-15,-28,-32,-29,-24
-14,-8,3,12,-21,-5,15,-15,-28,-32,-29,-24
-15,-9,3,13,-22,-5,15,-15,-28,-32,-29,-24
-16,-9,5,13,-25,-5,16,-15,-28,-32,-29,-24
-17,-9,6,14,-27,-4,16,-15,-28,-32,-29,-24
-18,-9,9,14,-31,-3,17,-14,-28,-32,-29,-24
-18,-10,6,15,-29,-5,16,-15,-29,-33,-29,-25
-18,-11,5,15,-27,-6,16,-15,-30,-33,-30,-25
-19,-12,3,16,-27,-7,16,-16,-31,-34,-31,-26
-19,-12,3,16,-27,-7,16,-16,-31,-35,-31,-26
-18,-13,1,16,-25,-8,16,-16,-32,-36,-31,-27
-17,-13,-1,16,-22,-9,16,-16,-32,-36,-31,-27
-16,-13,-3,15,-18,-10,16,-16,-33,-36,-32,-28
-16,-13,-3,15,-18,-10,16,-16,-33,-36,-32,-28
-16,-14,-5,16,-17,-11,16,-17,-34,-36,-33,-29
-16,-14,-7,16,-14,-12,16,-17,-35,-37,-33,-29
-16,-15,-9,17,-14,-13,16,-18,-35,-38,-33,-29
-16,-15,-9,17,-14,-13,16,-18,-35,-38,-33,-29
-17,-16,-9,18,-16,-14,16,-19,-36,-39,-34,-29
-17,-16,-9,18,-16,-14,16,-19,-36,-39,-34,-29
-19,-17,-9,19,-17,-15,16,-20,-36,-40,-34,-31
-19,-17,-9,19,-17,-15,17,-20,-36,-40,-34,-31
-18,-18,-11,20,-14,-16,17,-20,-36,-40,-35,-31
-18,-18,-11,20,-14,-16,17,-20,-36,-40,-35,-31
-20,-19,-11,21,-17,-17,17,-20,-36,-40,-35,-31
-20,-19,-11,21,-17,-17,18,-19,-36,-40,-35,-31
-21,-19,-11,22,-18,-17,18,-20,-37,-41,-36,-32
-21,-19,-11,22,-18,-17,18,-20,-37,-42,-36,-32
-21,-19,-11,22,-18,-17,18,-21,-37,-42,-36,-32
-21,-19,-11,22,-18,-17,18,-21,-37,-42,-36,-32
-21,-20,-13,23,-17,-18,18,-21,-37,-42,-36,-33
-21,-20,-13,23,-17,-18,18,-21,-37,-42,-36,-33
-20,-20,-15,22,-13,-19,18,-21,-37,-42,-36,-33
-20,-20,-15,22,-13,-19,18,-21,-36,-42,-36,-33
-20,-21,-16,22,-12,-20,18,-21,-36,-43,-37,-34
-20,-21,-16,22,-12,-20,18,-21,-36,-43,-37,-34
-20,-21,-16,22,-12,-20,18,-21,-36,-44,-37,-34
-20,-21,-16,22,-12,-20,18,-21,-36,-44,-37,-34
-18,-21,-19,22,-8,-20,18,-22,-37,-44,-38,-35
-18,-21,-19,22,-8,-20,18,-22,-37,-45,-38,-35
-17,-21,-20,21,-5,-21,18,-22,-38,-46,-39,-35
-17,-21,-20,21,-5,-21,18,-22,-38,-46,-39,-35
-19,-22,-20,23,-8,-22,18,-22,-38,-46,-39,-35
-19,-22,-20,23,-8,-22,18,-21,-38,-46,-39,-35
-20,-23,-20,24,-9,-22,18,-21,-38,-46,-39,-35
-20,-23,-20,24,-9,-22,18,-20,-37,-45,-39,-35
-18,-23,-23,23,-5,-23,18,-21,-38,-46,-39,-36
-18,-23,-23,23,-5,-23,18,-21,-38,-46,-39,-36
-18,-23,-23,23,-5,-23,18,-21,-39,-47,-40,-36
-18,-23,-23,23,-5,-23,18,-21,-39,-47,-40,-36
-20,-24,-23,24,-7,-24,18,-21,-39,-47,-40,-36
-20,-24,-23,24,-7,-24,18,-20,-39,-47,-40,-36
-20,-24,-23,24,-7,-24,18,-20,-39,-47,-40,-36
-21,-24,-20,25,-10,-23,20,-19,-38,-47,-40,-36
-21,-24,-20,25,-10,-23,20,-19,-39,-47,-41,-37
-21,-24,-20,25,-10,-23,20,-19,-39,-47,-41,-37
-21,-24,-20,25,-10,-23,20,-19,-39,-47,-41,-37
-20,-23,-20,24,-9,-22,20,-19,-39,-47,-41,-37
-21,-24,-20,25,-10,-23,20,-20,-39,-47,-41,-37
-22,-24,-19,25,-13,-22,20,-20,-39,-47,-41,-37
-22,-24,-19,25,-13,-22,20,-20,-39,-47,-41,-37
-24,-24,-16,26,-17,-22,20,-20,-39,-47,-41,-37
-25,-25,-16,27,-18,-22,20,-20,-39,-47,-41,-37
-25,-25,-16,27,-18,-22,20,-19,-39,-47,-41,-36
-25,-25,-16,27,-18,-22,20,-19,-39,-47,-41,-36
-25,-25,-16,27,-18,-22,21,-18,-38,-46,-40,-36
-25,-26,-19,27,-17,-24,20,-19,-39,-47,-41,-36
-24,-26,-20,27,-14,-24,20,-19,-39,-47,-41,-36
-23,-26,-23,27,-12,-25,20,-19,-39,-47,-41,-37
-23,-26,-23,27,-12,-25,20,-19,-39,-47,-41,-37
-25,-27,-23,28,-13,-26,20,-19,-39,-47,-41,-37
-25,-27,-23,28,-13,-26,20,-19,-39,-47,-41,-37
-25,-27,-23,28,-13,-26,20,-19,-39,-47,-41,-37
-25,-27,-23,28,-13,-26,21,-18,-38,-47,-41,-36
-24,-27,-24,28,-10,-27,20,-19,-39,-47,-41,-36
-24,-27,-24,28,-10,-27,20,-19,-39,-47,-41,-36
-24,-27,-24,28,-10,-27,20,-20,-39,-47,-41,-36
-24,-27,-24,28,-10,-27,20,-20,-39,-47,-40,-36
-24,-27,-24,28,-10,-27,18,-21,-39,-48,-41,-36
-24,-27,-24,28,-10,-27,18,-21,-39,-48,-41,-36
-24,-27,-24,28,-10,-27,18,-21,-39,-48,-41,-36
-23,-26,-23,27,-12,-25,18,-21,-39,-48,-41,-36
-22,-26,-24,27,-9,-26,18,-21,-39,-48,-41,-36
-22,-26,-24,27,-9,-26,18,-21,-39,-48,-41,-36
-22,-26,-24,27,-9,-26,18,-21,-39,-48,-41,-36
-22,-26,-24,27,-9,-26,18,-21,-39,-47,-40,-36
-22,-26,-24,27,-9,-26,17,-21,-39,-47,-41,-36
-22,-26,-24,27,-9,-26,17,-21,-39,-47,-41,-36
-22,-26,-24,27,-9,-26,17,-21,-39,-47,-41,-36
-23,-26,-23,27,-12,-25,17,-21,-39,-47,-41,-36
-22,-26,-24,27,-9,-26,16,-21,-39,-47,-41,-36
-22,-26,-24,27,-9,-26,16,-21,-39,-47,-41,-36
-22,-26,-24,27,-9,-26,16,-21,-39,-47,-41,-36
-22,-26,-24,27,-9,-26,16,-21,-39,-47,-40,-35
-21,-26,-27,26,-5,-27,15,-22,-39,-48,-41,-36
-20,-26,-28,26,-3,-27,15,-22,-40,-48,-41,-36
-18,-26,-31,25,1,-28,14,-22,-41,-48,-42,-36
-16,-26,-32,24,5,-28,14,-22,-41,-48,-42,-36
-17,-26,-31,24,3,-27,13,-24,-41,-48,-42,-36
-19,-26,-28,25,-1,-27,13,-24,-41,-48,-42,-36
-20,-26,-27,25,-4,-26,13,-24,-41,-48,-42,-36
-20,-25,-24,24,-5,-25,13,-24,-41,-48,-42,-36
-21,-26,-24,26,-8,-25,13,-24,-41,-48,-42,-36
-22,-26,-23,26,-10,-25,13,-24,-41,-47,-42,-36
-24,-26,-20,27,-14,-24,13,-24,-41,-47,-42,-36
-25,-26,-19,27,-17,-24,14,-24,-40,-46,-41,-36
-25,-26,-19,27,-17,-24,14,-24,-40,-46,-41,-36
-27,-26,-16,28,-21,-23,14,-24,-40,-46,-41,-36
-28,-26,-15,28,-23,-22,14,-24,-40,-46,-41,-36
-28,-25,-13,28,-25,-21,15,-22,-39,-46,-41,-35
-28,-26,-15,28,-23,-22,14,-22,-40,-46,-41,-35
-27,-26,-16,28,-21,-23,14,-22,-40,-46,-41,-35
-26,-26,-19,28,-18,-24,14,-22,-40,-46,-41,-35
-25,-26,-20,28,-16,-25,14,-22,-40,-46,-40,-35
-25,-27,-23,28,-13,-26,13,-24,-41,-46,-41,-36
-25,-27,-23,28,-13,-26,12,-24,-41,-46,-41,-36
-24,-27,-24,28,-10,-27,11,-24,-42,-46,-42,-36
-24,-27,-24,28,-10,-27,11,-24,-42,-46,-42,-36
-22,-27,-27,27,-7,-27,11,-25,-42,-47,-42,-36
-22,-27,-27,27,-7,-27,11,-25,-42,-48,-42,-36
-21,-27,-28,27,-4,-28,9,-25,-42,-49,-43,-37
-21,-27,-28,27,-4,-28,9,-25,-42,-49,-43,-37
-21,-27,-28,27,-4,-28,9,-25,-42,-49,-43,-37
-22,-27,-27,27,-7,-27,9,-25,-42,-48,-42,-36
-22,-27,-27,27,-7,-27,9,-25,-42,-48,-42,-36
-22,-26,-24,27,-9,-26,9,-24,-41,-47,-42,-36
-22,-26,-24,27,-9,-26,9,-24,-41,-47,-42,-36
-22,-26,-24,27,-9,-26,9,-24,-40,-47,-42,-36
-22,-26,-24,27,-9,-26,9,-24,-40,-47,-42,-36
-22,-26,-24,27,-9,-26,9,-22,-39,-46,-41,-35
-24,-27,-24,28,-10,-27,9,-22,-39,-46,-41,-35
-24,-27,-24,28,-10,-27,9,-22,-39,-46,-40,-35
-25,-28,-24,29,-12,-27,9,-22,-39,-46,-40,-35
-26,-28,-23,29,-14,-27,11,-22,-38,-45,-39,-34
-27,-29,-24,30,-14,-28,9,-24,-39,-46,-40,-35
-25,-29,-27,30,-10,-29,9,-24,-39,-46,-40,-36
-25,-30,-28,30,-9,-30,9,-24,-39,-47,-41,-36
-23,-30,-31,29,-5,-30,9,-24,-39,-47,-41,-36
-22,-30,-32,29,-3,-31,8,-25,-39,-48,-42,-37
-21,-29,-32,28,-1,-30,7,-25,-39,-49,-42,-38
-20,-29,-34,27,3,-31,6,-26,-40,-49,-43,-39
-18,-28,-34,26,5,-30,6,-26,-40,-49,-44,-40
-18,-28,-34,26,5,-30,6,-26,-40,-49,-44,-40
-19,-27,-32,26,3,-29,6,-25,-39,-49,-43,-39
-18,-26,-31,25,1,-28,6,-25,-39,-49,-42,-39
-18,-26,-29,24,0,-27,7,-25,-38,-48,-42,-38
-18,-25,-27,24,-1,-25,7,-24,-37,-48,-42,-38
-20,-24,-23,24,-7,-24,7,-22,-36,-47,-41,-37
-21,-23,-19,24,-12,-22,7,-22,-35,-46,-40,-37
-22,-22,-15,24,-17,-20,8,-21,-35,-46,-40,-36
-22,-21,-13,24,-18,-18,8,-21,-34,-45,-39,-36
-22,-19,-9,22,-22,-16,8,-20,-33,-44,-38,-35
-21,-18,-7,21,-22,-15,8,-20,-32,-43,-37,-34
-21,-16,-3,20,-25,-12,8,-19,-32,-42,-36,-33
-20,-15,-3,19,-23,-12,8,-19,-31,-42,-36,-33
-19,-14,-1,17,-23,-10,8,-19,-31,-41,-35,-33
-17,-12,1,15,-23,-8,8,-19,-30,-41,-35,-33
-16,-10,2,14,-22,-6,8,-18,-29,-40,-34,-32
-14,-8,3,12,-21,-5,7,-18,-29,-40,-34,-32
-12,-7,5,10,-20,-3,7,-17,-29,-40,-34,-32
-10,-5,5,8,-17,-2,6,-17,-29,-39,-34,-32
-8,-3,6,6,-16,0,6,-16,-28,-38,-34,-31
-7,-2,6,5,-14,0,5,-16,-28,-37,-33,-32
-6,-1,6,4,-13,1,4,-16,-28,-37,-32,-31
-4,-0,6,3,-10,2,3,-16,-28,-36,-31,-29
-5,0,9,2,-13,3,2,-16,-27,-35,-31,-29
-5,1,10,2,-14,4,1,-17,-27,-35,-31,-28
-5,2,13,1,-17,5,-1,-18,-27,-34,-30,-27
-5,3,15,1,-20,7,-3,-19,-27,-34,-29,-26
-5,4,16,0,-20,8,-5,-19,-27,-33,-29,-25
-3,5,16,-1,-17,9,-8,-21,-28,-34,-29,-25
-2,6,16,-2,-16,9,-9,-22,-29,-33,-28,-24
-1,7,16,-3,-14,10,-11,-24,-29,-34,-28,-24
-1,7,18,-3,-16,11,-13,-25,-30,-33,-27,-23
1,7,16,-4,-13,10,-15,-25,-31,-34,-27,-23
2,8,16,-5,-12,11,-16,-26,-31,-33,-27,-22
3,9,16,-6,-9,12,-17,-27,-32,-33,-27,-22
4,10,16,-7,-8,12,-18,-27,-31,-34,-27,-21
6,8,10,-7,0,9,-19,-28,-32,-34,-28,-22
7,7,7,-7,3,8,-20,-28,-33,-35,-28,-22
9,7,2,-7,9,6,-21,-29,-34,-36,-29,-23
9,6,-1,-7,13,4,-22,-29,-35,-37,-29,-23
9,3,-7,-5,17,0,-22,-29,-35,-37,-29,-23
10,1,-13,-4,23,-3,-22,-29,-35,-38,-29,-23
12,-0,-19,-4,31,-6,-22,-29,-36,-39,-29,-23
12,-2,-23,-3,34,-8,-21,-29,-36,-39,-29,-22
11,-5,-27,-1,35,-11,-21,-29,-37,-40,-31,-23
8,-8,-28,2,33,-14,-20,-29,-37,-42,-31,-24
6,-10,-31,4,33,-16,-20,-29,-38,-43,-32,-25
4,-12,-32,6,31,-18,-19,-29,-38,-44,-33,-25
2,-14,-34,9,31,-20,-18,-29,-39,-44,-34,-27
-2,-17,-34,12,26,-22,-17,-29,-39,-45,-34,-28
-6,-19,-34,15,21,-24,-15,-29,-40,-46,-35,-29
-10,-22,-34,19,14,-26,-13,-29,-40,-47,-36,-30
-12,-24,-34,21,13,-27,-12,-29,-41,-48,-37,-31
-15,-26,-34,23,9,-29,-11,-29,-41,-49,-39,-33
-17,-27,-34,25,7,-30,-10,-29,-42,-49,-40,-35
-21,-29,-32,28,-1,-30,-8,-29,-42,-50,-41,-36
-22,-31,-34,30,0,-32,-8,-30,-43,-51,-42,-37
-24,-32,-34,31,-3,-33,-7,-30,-42,-51,-43,-37
-24,-33,-36,31,-1,-34,-8,-30,-43,-52,-43,-38
-25,-33,-36,32,-3,-35,-7,-30,-43,-52,-43,-39
-25,-34,-38,33,0,-36,-8,-31,-44,-53,-45,-41
-27,-35,-38,34,-3,-36,-8,-31,-45,-54,-46,-42
-28,-36,-38,35,-5,-37,-9,-32,-45,-55,-48,-43
-29,-37,-38,36,-7,-37,-9,-32,-45,-56,-48,-43
-30,-39,-40,37,-5,-39,-8,-33,-46,-55,-48,-43
-31,-39,-40,38,-7,-40,-8,-33,-46,-54,-47,-41
-34,-41,-40,41,-10,-41,-7,-34,-46,-54,-46,-41
-35,-42,-40,42,-12,-42,-5,-34,-46,-53,-44,-40
-37,-41,-36,42,-17,-40,-3,-31,-46,-54,-44,-41
-35,-37,-29,38,-21,-35,-7,-37,-48,-55,-45,-40
-35,-45,-46,44,-7,-46,-5,-37,-46,-57,-47,-41
-35,-41,-38,41,-13,-41,-4,-31,-43,-53,-44,-37
-36,-35,-23,38,-27,-32,-3,-33,-43,-59,-49,-44
-38,-40,-31,41,-23,-37,-3,-29,-43,-57,-49,-43
-36,-43,-40,43,-13,-42,-4,-30,-43,-57,-48,-44
-19,-41,-62,34,26,-48,-8,-35,-47,-59,-51,-48
-14,-39,-65,31,36,-47,-4,-34,-49,-61,-51,-51
-26,-38,-45,35,4,-40,-3,-32,-44,-52,-45,-41
-39,-47,-45,46,-13,-46,-5,-35,-48,-55,-46,-44
-35,-40,-36,41,-16,-39,-3,-33,-45,-56,-49,-46
-39,-42,-34,44,-21,-40,4,-26,-39,-56,-51,-48
-57,-49,-23,55,-53,-41,17,-14,-30,-55,-53,-49
-40,-44,-36,45,-22,-42,16,-14,-31,-69,-66,-67
-52,-40,-9,48,-60,-31,30,1,-21,-68,-67,-66
-63,-33,24,48,-102,-15,41,5,-17,-74,-76,-72
-66,-30,34,48,-113,-10,43,4,-18,-79,-84,-80
-64,-27,38,44,-113,-7,57,26,7,-63,-79,-79
-57,-14,56,34,-118,7,61,37,25,-41,-58,-56
-17,-3,20,10,-39,4,49,45,42,-10,-34,-34
22,10,-11,-15,38,4,36,70,81,41,7,-7
49,33,1,-41,63,24,26,101,127,100,58,40
105,52,-42,-77,169,24,1,118,149,147,111,91
162,91,-44,-126,243,50,-58,88,124,166,146,125
208,141,-1,-177,267,99,-121,45,93,197,192,179
242,190,57,-221,262,151,-196,-26,32,215,236,231
273,239,120,-266,250,205,-271,-102,-31,235,270,272
288,271,169,-293,228,243,-309,-155,-73,265,304,307
305,290,187,-312,234,262,-331,-190,-104,292,339,347
319,301,189,-324,251,269,-359,-229,-132,310,361,367
328,313,202,-336,251,282,-392,-282,-180,302,372,387
274,295,246,-302,146,284,-393,-320,-218,293,366,384
249,256,194,-266,158,240,-374,-319,-223,283,360,374
227,218,144,-234,171,198,-342,-305,-223,251,328,341
194,179,106,-195,160,159,-312,-291,-226,209,286,306
145,151,118,-156,87,143,-275,-272,-231,136,226,260
114,134,128,-132,39,134,-252,-277,-253,56,155,205
97,109,97,-109,43,107,-224,-261,-260,-18,91,155
49,81,108,-71,-26,91,-179,-233,-253,-80,36,114
22,67,118,-51,-69,84,-146,-218,-251,-136,-15,72
36,54,67,-49,-9,59,-116,-191,-229,-153,-43,40
31,40,44,-38,4,42,-76,-144,-187,-133,-42,29
21,31,38,-28,-4,34,-51,-107,-142,-99,-31,26
13,23,32,-19,-9,26,-32,-80,-110,-79,-31,5
1,11,26,-7,-21,16,-11,-43,-74,-54,-21,4
3,3,3,-2,0,3,8,-16,-49,-42,-18,-5
12,-13,-46,3,53,-23,17,-7,-37,-39,-26,-21
-2,-23,-49,16,39,-32,39,18,-14,-29,-23,-21
-10,-20,-28,17,10,-22,40,21,-6,-22,-20,-16
-16,-31,-44,27,16,-35,39,19,-4,-22,-20,-16
-11,-31,-52,25,29,-37,32,9,-7,-30,-26,-25
-22,-23,-17,24,-14,-21,37,13,-1,-26,-21,-19
-20,-15,-3,19,-23,-12,32,5,-3,-28,-21,-17
-28,-19,1,24,-36,-13,28,2,-4,-32,-24,-24
-20,-20,-15,22,-13,-19,27,8,-2,-29,-26,-23
-14,-16,-15,17,-5,-16,22,7,-3,-31,-28,-29
-16,-16,-11,17,-12,-15,16,4,-4,-36,-34,-32
-22,-26,-23,26,-10,-25,18,6,-4,-37,-38,-40
-21,-33,-41,30,7,-36,17,4,-3,-36,-37,-35
-26,-35,-38,34,-1,-36,21,1,-6,-38,-39,-39
-24,-28,-25,29,-10,-27,17,1,-6,-42,-41,-41
-33,-33,-23,35,-23,-30,24,5,-1,-39,-36,-38
-31,-31,-21,33,-22,-28,21,6,1,-36,-36,-36
-30,-31,-23,33,-20,-29,19,6,1,-37,-37,-38
-30,-31,-23,33,-20,-29,18,6,1,-36,-38,-40
-30,-31,-23,33,-20,-29,16,5,1,-37,-39,-42
-30,-31,-23,33,-20,-29,15,5,2,-36,-40,-43
-32,-32,-21,34,-23,-29,15,6,2,-36,-39,-43
-34,-32,-19,35,-27,-28,15,7,3,-35,-38,-43
-35,-32,-16,35,-31,-27,15,8,4,-34,-37,-43
-36,-32,-15,36,-34,-27,16,9,5,-33,-36,-41
-35,-32,-17,35,-30,-27,15,9,5,-32,-37,-41
-35,-32,-17,35,-30,-27,15,10,7,-31,-36,-41
-35,-32,-16,35,-31,-27,15,11,8,-31,-35,-41
-34,-31,-16,34,-30,-27,15,12,9,-30,-34,-40
-34,-31,-17,34,-29,-27,15,12,10,-30,-34,-40
-34,-31,-17,34,-29,-27,15,13,11,-29,-34,-40
-34,-31,-16,34,-30,-27,15,13,12,-29,-33,-40
-33,-30,-16,33,-29,-26,15,14,13,-28,-32,-39
-34,-31,-16,34,-30,-27,15,15,14,-27,-32,-39
-34,-31,-17,34,-29,-27,15,16,16,-26,-31,-38
-34,-31,-16,34,-30,-27,15,17,16,-26,-31,-38
-35,-31,-15,35,-33,-26,15,18,18,-24,-31,-37
-35,-31,-15,35,-33,-26,14,18,19,-24,-31,-37
-34,-30,-15,34,-31,-26,14,18,19,-24,-30,-37
-33,-29,-15,33,-30,-25,14,19,20,-23,-29,-37
-33,-28,-13,32,-31,-24,14,19,22,-22,-29,-36
-33,-28,-13,32,-31,-24,14,19,23,-21,-29,-36
-32,-28,-13,32,-30,-24,14,21,24,-20,-28,-35
-33,-28,-13,33,-33,-24,14,21,25,-20,-27,-35
-33,-27,-11,32,-33,-22,14,22,27,-18,-26,-34
-31,-27,-13,31,-29,-23,13,22,27,-18,-26,-34
-31,-27,-13,31,-29,-22,13,23,28,-16,-26,-33
-29,-26,-13,29,-27,-22,13,24,29,-16,-25,-32
-28,-25,-13,28,-25,-21,13,25,30,-14,-24,-31
-28,-25,-13,28,-26,-21,13,26,32,-13,-24,-31
-27,-24,-13,27,-23,-20,13,27,34,-11,-22,-29
-25,-23,-13,26,-22,-20,13,28,35,-10,-21,-29
-25,-22,-11,25,-23,-19,14,30,37,-8,-19,-28
-24,-22,-11,24,-22,-18,14,31,38,-7,-18,-28
-22,-20,-11,23,-20,-18,14,31,39,-5,-17,-27
-21,-20,-11,22,-18,-17,14,32,40,-4,-17,-27
-20,-18,-9,20,-18,-15,14,34,42,-3,-15,-26
-21,-18,-7,20,-21,-15,14,34,44,-1,-14,-25
-21,-17,-5,20,-23,-13,15,36,46,0,-13,-24
-22,-17,-3,21,-26,-13,15,38,48,2,-12,-24
-22,-16,-1,20,-29,-11,16,40,50,4,-10,-23
-21,-15,-2,19,-26,-11,16,41,51,6,-9,-23
-18,-14,-2,17,-22,-10,16,43,54,8,-8,-22
-17,-13,-2,16,-21,-9,16,45,56,10,-6,-21
-16,-11,1,14,-22,-7,16,47,58,13,-5,-20
-15,-10,1,13,-20,-7,16,48,60,15,-4,-20
-12,-8,1,11,-17,-5,16,50,63,17,-3,-19
-10,-7,1,9,-13,-4,16,52,65,19,-1,-17
-8,-5,2,7,-13,-2,17,55,68,22,0,-16
-6,-3,2,5,-9,-1,17,57,71,25,2,-15
-4,-1,5,3,-9,1,17,59,74,28,4,-13
-2,1,6,1,-8,3,17,62,77,31,6,-12
1,4,9,-2,-7,5,18,64,80,33,8,-10
2,5,9,-3,-5,6,18,66,83,36,10,-8
3,7,11,-5,-5,8,18,69,87,40,12,-5
6,8,10,-7,0,9,18,72,91,43,14,-4
7,10,13,-8,-1,11,18,74,95,46,16,-1
8,12,15,-10,-1,13,18,77,99,51,19,1
9,13,16,-11,-1,15,20,80,103,55,22,4
11,15,18,-14,0,17,20,83,107,59,25,7
11,17,23,-14,-5,19,21,87,112,64,29,9
13,19,24,-17,-3,21,20,90,117,68,32,11
16,22,27,-20,-1,24,21,94,121,73,35,14
18,25,28,-23,0,26,21,98,126,78,39,17
21,27,30,-26,3,29,22,101,131,83,43,20
23,30,32,-28,4,31,22,105,136,88,46,24
27,33,34,-32,7,35,22,109,142,93,50,27
30,36,36,-35,9,37,22,113,146,98,54,31
33,40,40,-38,9,40,22,116,152,104,58,35
36,43,42,-41,10,43,21,119,157,109,63,38
38,46,46,-44,10,47,21,123,161,115,67,41
43,50,48,-49,16,50,21,126,166,121,72,45
46,54,52,-53,17,54,21,129,172,127,77,49
50,58,54,-57,20,57,20,132,176,131,80,52
54,61,56,-61,23,60,19,135,180,137,85,57
58,65,58,-65,26,64,18,138,185,142,89,61
63,69,59,-70,31,67,17,141,189,148,94,66
67,73,61,-74,35,70,16,144,194,153,97,69
69,76,66,-76,34,74,15,146,198,157,102,73
73,79,67,-80,38,77,14,148,201,162,105,77
77,84,71,-85,39,81,13,151,205,167,110,81
81,87,74,-88,42,84,12,152,208,170,113,84
85,91,75,-92,46,87,9,154,211,175,117,88
88,94,77,-96,48,90,8,156,213,179,121,91
93,99,81,-101,52,94,7,157,216,183,124,95
95,101,83,-103,52,97,5,157,218,186,127,97
97,105,87,-106,52,101,3,159,220,189,130,101
100,107,88,-109,55,103,1,159,221,192,133,104
103,111,92,-113,55,107,-0,160,223,196,137,108
105,113,95,-115,56,109,-2,159,223,197,139,110
108,117,99,-119,56,113,-4,159,223,198,142,112
110,119,101,-121,57,115,-6,157,223,200,144,115
113,123,104,-125,59,119,-8,157,223,201,146,118
115,124,104,-126,61,120,-11,155,221,200,146,119
117,126,106,-129,61,122,-13,152,219,199,147,120
118,128,108,-130,61,124,-16,149,216,198,147,121
119,130,110,-131,60,125,-17,147,215,198,148,123
119,130,110,-131,60,125,-19,143,209,194,147,122
119,131,112,-132,60,126,-21,139,205,191,145,122
121,132,112,-133,61,127,-23,134,200,188,144,121
120,132,114,-134,59,128,-25,131,195,185,142,121
118,131,114,-132,56,127,-26,125,188,179,139,119
116,130,114,-130,53,126,-28,119,181,173,136,117
114,128,114,-128,51,125,-30,113,174,168,132,115
111,127,117,-126,46,125,-32,109,167,162,129,114
107,124,116,-122,40,123,-33,102,158,154,124,110
102,121,116,-119,35,121,-33,97,150,146,119,107
97,118,117,-115,27,119,-34,91,141,139,114,103
92,115,118,-111,20,118,-34,85,133,132,110,100
87,110,116,-106,16,114,-34,79,124,124,104,95
82,106,114,-101,10,110,-34,73,115,115,98,90
77,102,112,-96,7,107,-34,66,106,106,92,84
72,99,113,-92,-1,105,-34,60,98,98,86,80
67,93,109,-86,-5,100,-34,54,89,90,80,74
60,88,106,-80,-12,95,-33,48,81,81,73,69
55,83,103,-75,-14,90,-32,43,73,72,66,63
50,78,101,-70,-20,87,-31,37,65,65,61,58
46,73,95,-65,-20,81,-30,32,58,57,54,52
41,68,91,-60,-22,76,-29,28,51,49,48,47
38,63,85,-55,-22,71,-28,23,44,42,42,41
33,58,81,-49,-25,66,-27,18,37,34,36,36
29,52,75,-44,-26,60,-26,15,32,28,31,31
24,48,71,-40,-27,56,-26,11,26,22,26,26
21,43,66,-35,-27,51,-25,7,21,16,21,21
17,39,61,-31,-29,46,-23,4,16,10,17,16
13,34,58,-27,-31,42,-22,2,12,6,13,13
11,31,53,-24,-30,38,-21,-0,8,3,9,10
8,27,49,-20,-30,35,-20,-2,4,-2,5,7
6,24,46,-17,-31,32,-18,-4,2,-5,2,3
3,21,44,-14,-33,29,-17,-6,-2,-8,-1,0
1,19,41,-11,-33,26,-17,-7,-4,-11,-4,-2
-2,16,40,-8,-35,24,-16,-9,-7,-14,-6,-5
-5,14,40,-6,-39,22,-14,-9,-9,-17,-8,-7
-6,13,38,-5,-38,20,-15,-10,-10,-19,-10,-8
-7,12,38,-3,-40,20,-14,-11,-12,-21,-11,-10
-9,10,38,-2,-43,19,-14,-12,-13,-23,-14,-12
-11,9,38,-0,-44,18,-13,-12,-14,-24,-15,-12
-12,7,36,1,-46,17,-13,-13,-15,-26,-17,-14
-14,6,36,3,-47,16,-12,-14,-16,-26,-17,-15
-16,5,36,5,-51,15,-11,-15,-17,-28,-19,-17
-17,4,36,6,-52,14,-10,-15,-17,-29,-20,-17
-17,3,34,6,-49,13,-10,-16,-18,-29,-20,-19
-16,3,32,5,-47,12,-10,-16,-18,-30,-20,-19
-16,2,30,6,-46,11,-10,-16,-18,-31,-21,-19
-15,2,28,6,-43,10,-9,-16,-18,-31,-21,-19
-14,1,26,6,-40,9,-9,-16,-18,-31,-21,-19
-15,0,24,7,-39,8,-8,-16,-18,-31,-21,-19
-14,-0,22,7,-36,7,-8,-16,-18,-31,-21,-19
-16,-1,22,8,-39,6,-8,-15,-18,-30,-20,-19
-17,-2,22,9,-40,5,-8,-15,-18,-30,-20,-19
-17,-2,22,9,-40,5,-7,-14,-17,-29,-20,-19
-17,-2,22,9,-40,5,-6,-14,-17,-29,-20,-19
-18,-2,24,10,-44,6,-5,-13,-17,-29,-19,-17
-20,-3,24,11,-46,5,-5,-13,-17,-29,-19,-17
-20,-3,24,11,-46,5,-5,-12,-16,-28,-19,-17
-20,-3,24,11,-46,5,-5,-12,-16,-28,-19,-17
-20,-3,24,11,-46,5,-4,-11,-15,-27,-18,-17
-20,-3,24,11,-46,5,-4,-11,-15,-27,-18,-17
-20,-3,24,11,-46,5,-4,-11,-15,-27,-18,-17
-20,-3,24,11,-46,5,-4,-11,-15,-27,-18,-17
-18,-2,24,10,-44,6,-3,-10,-15,-26,-18,-17
-18,-3,22,10,-42,5,-3,-10,-15,-26,-18,-17
-17,-3,20,10,-39,4,-3,-10,-15,-26,-18,-17
-16,-3,18,9,-35,3,-3,-10,-15,-26,-18,-17
-16,-3,18,9,-35,3,-3,-10,-14,-26,-18,-17
-16,-3,18,9,-35,3,-3,-10,-14,-26,-18,-17
-16,-3,18,9,-35,3,-2,-10,-14,-25,-18,-17
-16,-3,18,9,-35,3,-2,-10,-14,-25,-18,-17
-16,-3,18,9,-35,3,-1,-9,-13,-24,-17,-16
-17,-4,18,10,-36,3,-1,-9,-13,-24,-17,-16
-17,-4,18,10,-36,3,-1,-9,-13,-24,-17,-16
-17,-4,18,10,-36,3,-1,-9,-13,-24,-17,-16
-17,-4,18,10,-36,3,-0,-7,-13,-24,-16,-16
-17,-4,18,10,-36,3,-0,-7,-13,-24,-16,-16
-17,-4,18,10,-36,3,-0,-7,-12,-24,-16,-16
-17,-4,18,10,-36,3,-0,-7,-12,-24,-16,-16
-17,-3,20,10,-39,4,-0,-7,-11,-23,-16,-16
-17,-3,20,10,-39,4,-0,-7,-11,-23,-16,-17
-17,-3,20,10,-39,4,-0,-7,-11,-23,-16,-17
-17,-3,20,10,-39,4,-0,-7,-11,-23,-16,-17
-17,-2,22,9,-40,5,-0,-6,-10,-23,-16,-17
-17,-3,20,10,-39,4,-0,-6,-10,-24,-17,-17
-17,-3,20,10,-39,4,-0,-6,-10,-24,-17,-17
-16,-3,18,9,-35,3,-0,-6,-10,-24,-17,-17
-16,-3,18,9,-35,3,0,-5,-9,-24,-17,-17
-16,-4,16,10,-34,2,0,-5,-9,-24,-17,-19
-16,-4,16,10,-34,2,0,-5,-9,-24,-17,-19
-17,-5,16,11,-36,2,0,-5,-9,-24,-17,-19
-17,-5,16,11,-36,2,1,-4,-9,-24,-17,-19
-17,-6,14,11,-34,0,1,-4,-10,-25,-18,-19
-16,-6,13,11,-31,0,1,-4,-10,-25,-18,-19
-14,-6,10,10,-27,-0,1,-4,-10,-25,-18,-19
-14,-6,10,10,-27,-0,1,-4,-10,-25,-18,-19
-15,-7,9,11,-26,-2,1,-4,-10,-26,-19,-20
-15,-7,9,11,-26,-2,1,-4,-10,-26,-19,-20
-15,-7,9,11,-26,-2,1,-4,-10,-26,-19,-20
-15,-7,9,11,-26,-2,2,-4,-10,-26,-19,-20
-16,-7,9,12,-27,-2,2,-4,-11,-26,-19,-21
-16,-7,9,12,-27,-2,3,-4,-11,-26,-19,-21
-16,-7,9,12,-27,-2,3,-4,-11,-27,-19,-21
-16,-7,9,12,-27,-2,4,-4,-11,-27,-19,-21
-17,-8,9,13,-30,-3,4,-4,-11,-28,-20,-21
-17,-8,9,13,-30,-3,4,-4,-11,-28,-20,-21
-18,-9,9,14,-31,-3,4,-4,-11,-28,-20,-21
-19,-9,10,14,-34,-3,5,-3,-11,-28,-20,-21
-20,-10,9,15,-33,-4,5,-4,-12,-29,-20,-22
-20,-10,9,15,-33,-4,5,-4,-13,-29,-20,-22
-19,-11,6,16,-30,-5,5,-4,-13,-29,-21,-23
-19,-11,6,16,-30,-5,6,-4,-13,-29,-21,-23
-20,-12,5,17,-30,-7,6,-5,-14,-30,-22,-24
-20,-12,5,17,-30,-7,6,-5,-14,-31,-22,-24
-21,-13,5,17,-31,-7,6,-5,-15,-31,-23,-24
-21,-13,5,17,-31,-7,6,-5,-15,-31,-23,-24
-21,-13,5,17,-31,-7,6,-6,-16,-32,-23,-25
-21,-13,5,17,-31,-7,6,-6,-16,-32,-23,-25
-21,-13,5,17,-31,-7,6,-6,-17,-33,-24,-26
-21,-12,6,17,-33,-6,6,-6,-17,-33,-24,-26
-22,-13,6,18,-34,-7,6,-7,-17,-33,-25,-27
-22,-13,6,18,-34,-7,6,-7,-18,-34,-25,-27
-22,-13,6,18,-34,-7,6,-7,-19,-35,-26,-28
-23,-13,9,18,-38,-6,6,-7,-19,-35,-26,-28
-23,-14,6,19,-35,-7,5,-7,-20,-36,-26,-29
-23,-14,6,19,-35,-7,5,-7,-20,-36,-26,-29
-23,-14,5,20,-34,-8,5,-7,-21,-36,-26,-29
-23,-14,5,20,-34,-8,5,-7,-21,-36,-26,-29
-24,-15,3,20,-34,-10,5,-9,-22,-37,-27,-29
-23,-16,1,20,-31,-11,5,-9,-23,-37,-28,-29
-24,-17,-1,21,-30,-12,5,-9,-24,-38,-29,-31
-24,-17,-1,21,-30,-12,5,-9,-24,-38,-29,-31
-23,-18,-3,22,-27,-13,5,-10,-24,-39,-29,-31
-25,-19,-3,23,-30,-14,5,-10,-24,-39,-29,-31
-26,-19,-3,24,-31,-15,5,-10,-24,-39,-30,-32
-26,-19,-3,24,-31,-15,5,-10,-24,-39,-30,-32
-28,-20,-3,25,-33,-15,5,-11,-25,-40,-31,-33
-28,-20,-3,25,-33,-15,5,-11,-25,-40,-31,-33
-29,-21,-3,26,-34,-16,5,-11,-26,-41,-32,-34
-30,-21,-1,27,-38,-15,6,-11,-26,-41,-32,-34
-30,-22,-3,27,-36,-17,6,-11,-26,-41,-32,-34
-30,-22,-3,27,-36,-17,6,-11,-26,-41,-32,-34
-31,-23,-3,28,-38,-17,6,-11,-26,-41,-32,-34
-31,-23,-3,28,-38,-17,7,-10,-26,-41,-31,-33
-32,-24,-5,29,-36,-18,7,-10,-27,-42,-32,-34
-32,-24,-5,29,-36,-18,7,-10,-27,-42,-32,-34
-32,-24,-5,29,-36,-18,7,-10,-27,-43,-32,-34
-32,-24,-5,29,-36,-18,8,-10,-27,-43,-32,-34
-31,-25,-7,29,-34,-19,8,-11,-28,-44,-33,-35
-30,-25,-9,29,-31,-20,8,-11,-28,-44,-33,-35
-30,-26,-11,30,-30,-21,8,-12,-28,-44,-33,-35
-29,-26,-13,29,-27,-22,8,-12,-28,-44,-33,-35
-29,-26,-15,29,-25,-23,8,-13,-28,-44,-34,-36
-29,-26,-15,29,-25,-23,8,-13,-28,-44,-34,-36
-30,-27,-15,31,-26,-24,8,-13,-28,-45,-35,-36
-30,-27,-15,31,-26,-24,8,-13,-28,-45,-35,-36
-30,-27,-15,31,-26,-24,8,-13,-28,-45,-35,-36
-32,-27,-13,31,-30,-23,8,-13,-28,-45,-35,-36
-32,-27,-13,31,-30,-23,8,-13,-28,-45,-35,-36
-33,-27,-11,32,-33,-22,9,-12,-28,-45,-35,-36
-33,-27,-11,32,-33,-22,9,-12,-28,-45,-35,-36
-33,-27,-11,32,-33,-22,9,-12,-28,-45,-35,-36
-33,-27,-11,32,-33,-22,9,-12,-28,-45,-35,-36
-33,-27,-11,32,-33,-22,9,-12,-28,-45,-35,-35
-33,-27,-11,32,-33,-22,9,-12,-28,-46,-35,-36
-33,-27,-11,32,-33,-22,9,-11,-28,-46,-35,-36
-33,-27,-11,32,-33,-22,9,-11,-28,-46,-35,-36
-34,-27,-9,32,-36,-22,11,-10,-28,-46,-35,-36
-33,-27,-11,32,-33,-22,9,-11,-29,-46,-36,-36
-32,-27,-13,31,-30,-23,9,-11,-29,-46,-36,-36
-30,-27,-15,31,-26,-24,9,-11,-29,-46,-36,-36
-29,-27,-16,30,-23,-24,9,-11,-29,-46,-36,-36
-30,-28,-16,31,-25,-25,9,-11,-30,-46,-36,-37
-30,-28,-16,31,-25,-25,9,-11,-30,-46,-36,-37
-32,-29,-16,32,-27,-25,9,-11,-30,-46,-36,-37
-32,-29,-16,32,-27,-25,11,-10,-30,-46,-36,-37
-32,-29,-16,32,-27,-25,11,-10,-30,-47,-37,-38
-32,-29,-16,32,-27,-25,11,-10,-30,-47,-37,-38
-32,-29,-16,32,-27,-25,11,-10,-30,-47,-38,-38
-30,-28,-16,31,-25,-25,11,-10,-30,-47,-38,-38
-30,-28,-16,31,-25,-25,11,-10,-31,-48,-38,-38
-30,-28,-16,31,-25,-25,11,-10,-31,-48,-38,-38
-30,-28,-16,31,-25,-25,11,-10,-31,-48,-38,-38
-30,-28,-16,31,-25,-25,11,-10,-31,-48,-38,-38
-30,-28,-16,31,-25,-25,11,-11,-31,-48,-39,-39
-30,-28,-16,31,-25,-25,11,-11,-31,-48,-39,-39
-30,-28,-16,31,-25,-25,11,-11,-31,-48,-39,-39
-30,-28,-16,31,-25,-25,11,-11,-31,-48,-39,-39
-30,-29,-19,32,-23,-26,9,-11,-31,-48,-39,-39
-30,-29,-19,32,-23,-26,9,-11,-31,-48,-39,-39
-30,-30,-20,32,-22,-27,9,-11,-31,-48,-39,-39
-30,-30,-20,32,-22,-27,9,-11,-31,-47,-38,-38
-30,-30,-20,32,-22,-27,9,-11,-31,-47,-38,-38
-30,-30,-20,32,-22,-27,9,-11,-31,-47,-38,-38
-30,-30,-20,32,-22,-27,9,-11,-31,-47,-38,-38
-31,-30,-19,33,-25,-27,9,-11,-31,-47,-38,-37
-32,-31,-20,34,-23,-28,9,-11,-31,-47,-38,-37
-32,-31,-20,34,-23,-28,9,-11,-31,-47,-38,-37
-33,-32,-20,34,-25,-28,9,-11,-31,-47,-38,-37
-33,-32,-20,34,-25,-28,9,-11,-31,-47,-38,-37
-33,-33,-23,35,-23,-30,9,-11,-31,-47,-38,-37
-33,-33,-23,35,-23,-30,9,-11,-31,-46,-38,-36
-34,-33,-23,36,-25,-30,9,-11,-31,-46,-38,-36
-34,-33,-23,36,-25,-30,9,-11,-31,-46,-37,-36
-34,-34,-24,37,-23,-32,9,-12,-31,-46,-37,-36
-34,-34,-24,37,-23,-32,9,-12,-31,-46,-37,-36
-34,-34,-24,37,-23,-32,9,-12,-31,-46,-37,-36
-34,-34,-24,37,-23,-32,9,-12,-31,-46,-36,-35
-34,-34,-24,37,-23,-32,9,-12,-31,-46,-36,-35
