I,II,III,aVR,aVL,aVF,V1,V2,V3,V4,V5,V6
8,48,10,-32,-2,19,-4,-2,-3,10,-54,-13
9,48,9,-33,-2,19,-5,-3,-4,7,-65,-23
9,47,9,-33,-1,18,-6,-3,-4,5,-79,-35
9,47,9,-32,-1,18,-7,-3,-4,3,-88,-42
9,46,8,-32,-1,18,-8,-3,-4,2,-94,-49
10,46,8,-33,0,17,-8,-3,-4,3,-92,-54
11,46,7,-34,1,17,-8,-3,-4,4,-78,-48
11,46,7,-34,0,17,-7,-3,-4,5,-64,-38
10,46,8,-33,-0,17,-7,-3,-4,6,-56,-33
10,46,8,-33,-0,17,-6,-3,-4,6,-51,-25
10,46,8,-33,-0,17,-6,-3,-4,6,-50,-19
10,47,8,-34,-0,17,-6,-3,-4,6,-56,-19
10,48,8,-34,-0,18,-6,-3,-4,7,-63,-22
11,47,8,-34,0,17,-6,-3,-4,7,-67,-25
11,47,7,-34,0,17,-7,-3,-4,8,-71,-33
9,46,8,-33,-1,17,-7,-3,-4,9,-72,-37
9,45,8,-32,-1,17,-7,-3,-4,10,-65,-33
9,45,8,-31,-1,17,-7,-4,-4,9,-58,-29
9,46,8,-32,-1,17,-7,-4,-4,9,-55,-27
9,46,8,-33,-1,18,-7,-4,-4,10,-52,-20
9,46,9,-32,-1,18,-7,-4,-4,10,-51,-13
8,46,9,-31,-2,18,-7,-4,-4,10,-63,-18
8,46,9,-32,-2,18,-7,-4,-4,10,-77,-26
7,44,9,-29,-2,17,-6,-4,-4,10,-86,-30
7,42,9,-28,-2,17,-6,-4,-4,9,-89,-35
6,44,10,-28,-3,18,-6,-4,-4,10,-86,-38
5,44,10,-27,-4,19,-5,-4,-4,10,-76,-33
6,44,10,-28,-3,18,-5,-4,-4,10,-63,-27
6,44,10,-28,-3,18,-5,-4,-4,10,-56,-27
7,44,9,-29,-2,18,-6,-4,-4,10,-53,-22
9,44,8,-31,-1,17,-7,-4,-4,10,-53,-19
10,45,7,-33,0,16,-8,-4,-5,10,-60,-26
11,46,7,-34,1,16,-8,-4,-5,10,-69,-37
12,45,6,-35,1,16,-8,-4,-5,10,-72,-41
11,45,6,-34,1,16,-8,-4,-5,9,-74,-47
11,44,6,-33,1,16,-8,-4,-5,10,-74,-52
10,43,6,-32,1,15,-7,-4,-5,10,-67,-48
10,43,7,-32,0,16,-7,-4,-5,11,-58,-41
9,44,7,-32,-0,16,-8,-4,-5,11,-56,-37
9,44,7,-31,-0,16,-8,-3,-5,12,-52,-32
9,42,7,-31,0,16,-9,-3,-5,11,-51,-29
9,41,7,-30,0,15,-9,-4,-5,10,-59,-34
8,41,7,-29,-1,16,-9,-4,-5,10,-66,-39
7,43,9,-28,-2,17,-8,-3,-5,10,-68,-37
7,43,9,-28,-2,17,-8,-3,-5,10,-68,-37
7,43,9,-28,-2,17,-8,-3,-5,10,-68,-37
7,43,9,-28,-2,17,-8,-3,-5,10,-68,-37
7,43,9,-28,-2,17,-8,-3,-5,10,-68,-37
7,43,9,-28,-2,17,-8,-3,-5,10,-68,-37
7,43,9,-28,-2,17,-8,-3,-5,10,-68,-37
5,35,8,-23,-2,14,-7,-3,-5,6,-68,-31
-209,167,211,150,-219,200,115,79,82,179,106,152
-0,50,17,-24,-10,25,-3,-6,-6,28,-60,-37
-0,50,17,-24,-10,25,-8,-10,-9,17,-60,-31
13,48,6,-38,3,16,-10,-16,-14,6,-73,-50
18,48,2,-43,7,13,-11,-20,-17,-4,-98,-60
18,48,2,-43,7,13,-13,-25,-19,-4,-98,-60
17,46,2,-41,6,13,-15,-32,-20,1,-60,-17
15,46,4,-39,4,14,-19,-41,-24,6,-55,-1
12,46,6,-35,1,16,-27,-54,-31,12,-49,6
16,46,3,-40,5,14,-36,-70,-38,14,-17,36
13,50,7,-38,1,18,-47,-87,-41,26,4,56
4,54,14,-31,-6,24,-57,-97,-48,30,-1,36
27,55,-2,-56,13,12,-68,-115,-59,32,-1,49
39,63,-9,-73,23,9,-83,-134,-69,34,10,49
44,65,-12,-79,26,7,-93,-147,-77,37,15,56
40,66,-8,-76,23,10,-97,-160,-87,45,31,82
42,70,-9,-80,24,11,-103,-174,-98,45,63,145
46,77,-9,-88,26,12,-116,-193,-113,44,74,155
51,88,-9,-99,28,15,-131,-213,-129,48,87,162
58,96,-12,-110,33,14,-142,-231,-143,42,101,182
46,88,-6,-94,24,18,-154,-243,-154,40,122,228
51,87,-10,-98,29,14,-169,-248,-168,36,109,172
61,79,-19,-105,39,5,-179,-259,-184,25,120,185
63,70,-24,-103,43,-1,-195,-274,-202,13,125,202
66,59,-30,-101,48,-8,-215,-287,-221,-2,125,202
77,48,-42,-108,59,-20,-231,-302,-238,-23,128,202
82,33,-50,-106,66,-30,-240,-313,-247,-40,138,245
83,33,-51,-108,68,-30,-254,-310,-252,-47,149,248
89,41,-53,-117,71,-30,-262,-309,-253,-51,157,262
87,54,-48,-122,67,-23,-260,-302,-250,-51,192,295
86,66,-42,-126,63,-15,-256,-293,-243,-52,203,311
84,74,-39,-128,61,-11,-251,-282,-235,-52,170,288
88,88,-37,-140,61,-6,-242,-271,-225,-40,213,301
91,103,-34,-150,61,-1,-237,-258,-216,-30,219,308
95,112,-34,-159,63,2,-235,-248,-207,-22,205,311
98,112,-36,-162,65,0,-231,-239,-202,-15,219,328
99,98,-42,-156,69,-8,-225,-233,-197,-7,245,358
102,96,-45,-158,72,-10,-221,-226,-190,6,251,361
98,88,-45,-151,71,-12,-211,-219,-184,8,251,368
97,96,-41,-153,68,-7,-204,-211,-180,8,251,368
92,72,-45,-136,68,-16,-195,-201,-175,5,248,355
91,58,-49,-128,70,-23,-186,-190,-168,2,221,333
91,40,-55,-120,73,-31,-177,-181,-164,-7,204,314
91,23,-61,-111,77,-40,-170,-171,-161,-19,186,292
91,7,-66,-104,80,-48,-163,-162,-157,-29,171,271
90,-7,-70,-96,82,-54,-155,-152,-151,-39,163,257
88,-21,-72,-87,82,-60,-145,-142,-145,-51,155,242
85,-33,-75,-78,83,-64,-136,-131,-138,-61,142,223
84,-44,-77,-72,84,-69,-126,-120,-131,-69,131,208
84,-52,-80,-67,85,-73,-117,-110,-122,-74,120,196
82,-57,-80,-63,85,-75,-110,-100,-114,-76,101,180
82,-58,-80,-62,84,-75,-103,-91,-105,-76,81,165
80,-58,-79,-61,83,-74,-96,-81,-96,-72,66,154
79,-59,-78,-59,82,-73,-88,-72,-86,-68,52,136
77,-59,-77,-56,81,-73,-80,-62,-78,-66,38,112
75,-60,-76,-54,79,-72,-71,-54,-70,-65,29,94
71,-62,-73,-49,76,-71,-63,-47,-64,-67,18,73
67,-60,-70,-45,72,-68,-56,-40,-58,-69,3,50
65,-55,-66,-44,68,-64,-48,-34,-53,-69,-8,37
62,-47,-62,-45,64,-58,-42,-29,-49,-69,-16,27
59,-37,-56,-47,60,-51,-37,-24,-45,-69,-29,13
56,-25,-50,-49,55,-44,-32,-20,-40,-68,-41,1
51,-15,-43,-49,49,-37,-28,-15,-36,-67,-48,-6
45,-5,-35,-47,41,-28,-22,-10,-30,-64,-54,-13
40,7,-27,-47,34,-19,-18,-5,-24,-60,-58,-22
35,15,-22,-46,29,-13,-13,-1,-19,-54,-54,-25
31,21,-16,-44,23,-7,-9,3,-15,-47,-47,-24
26,26,-11,-41,18,-2,-5,6,-10,-40,-43,-26
22,30,-6,-38,13,3,-1,9,-6,-34,-38,-24
17,32,-3,-34,9,6,3,12,-4,-29,-37,-25
13,33,1,-31,6,9,6,14,-1,-25,-49,-37
10,34,3,-28,3,11,8,16,2,-22,-66,-51
7,35,6,-24,-1,13,11,18,4,-19,-77,-60
4,35,9,-21,-4,15,13,20,6,-16,-86,-71
2,36,11,-19,-6,17,14,22,8,-14,-92,-79
0,37,12,-18,-7,18,16,23,10,-12,-88,-76
-1,38,13,-18,-8,19,17,24,12,-11,-83,-73
-1,38,13,-17,-9,20,17,24,12,-11,-84,-75
-1,37,13,-17,-8,19,18,24,12,-12,-84,-74
-1,37,13,-17,-8,19,18,25,12,-12,-84,-71
-1,37,13,-17,-8,19,19,25,12,-12,-90,-76
-1,38,13,-17,-8,19,19,25,12,-11,-96,-80
-3,38,15,-16,-10,20,20,26,13,-10,-97,-80
-4,37,15,-14,-11,21,20,26,13,-10,-101,-84
-4,37,15,-14,-10,20,21,27,14,-10,-103,-90
-3,38,15,-15,-10,21,21,27,14,-10,-98,-86
-3,40,15,-16,-10,21,21,28,15,-10,-92,-82
-3,40,15,-16,-11,22,22,28,15,-11,-89,-82
-2,41,15,-17,-10,21,22,28,15,-12,-86,-80
-2,42,15,-18,-10,22,23,29,15,-13,-85,-76
-2,44,16,-19,-11,23,24,29,16,-12,-89,-77
-2,46,16,-20,-11,24,24,29,16,-11,-94,-81
-1,48,17,-22,-10,24,24,30,16,-11,-94,-80
-0,49,16,-23,-10,24,25,30,17,-12,-96,-84
0,49,16,-24,-9,24,26,31,17,-12,-99,-90
-0,48,16,-23,-10,24,27,31,17,-13,-94,-86
-1,45,16,-20,-10,23,28,31,18,-13,-89,-83
-1,47,16,-21,-10,24,29,31,18,-13,-89,-83
0,49,16,-24,-10,24,29,32,18,-11,-87,-78
-1,52,18,-24,-11,26,30,33,19,-10,-85,-69
-2,54,19,-24,-12,28,31,33,20,-8,-89,-67
-1,55,19,-26,-12,28,31,34,20,-7,-96,-71
0,56,18,-27,-11,28,32,35,21,-5,-100,-74
0,57,18,-28,-11,28,33,36,21,-2,-101,-79
-1,57,20,-26,-12,29,35,37,22,1,-102,-82
-4,58,22,-24,-14,31,37,38,23,3,-96,-74
-4,61,23,-24,-16,33,38,39,24,4,-89,-66
-4,64,24,-27,-16,34,38,40,25,4,-89,-63
-2,66,24,-29,-15,34,39,41,26,4,-88,-58
-3,67,24,-29,-16,35,39,41,26,4,-87,-55
-5,68,26,-27,-17,36,39,42,27,5,-92,-58
-6,68,27,-26,-19,37,40,43,29,7,-97,-60
-7,68,27,-26,-19,37,41,44,30,9,-98,-59
-7,68,27,-25,-19,37,41,45,31,10,-99,-62
-5,69,27,-27,-18,37,41,45,32,11,-99,-65
-3,70,25,-31,-16,36,42,46,32,11,-91,-62
-1,70,24,-33,-14,35,42,46,33,12,-84,-59
0,71,23,-35,-14,35,41,47,33,12,-82,-62
1,71,22,-36,-13,34,39,47,34,12,-80,-59
2,70,22,-36,-12,34,37,47,34,12,-79,-55
1,70,22,-35,-13,34,35,48,35,13,-82,-56
1,69,22,-34,-13,34,33,48,35,14,-87,-58
1,68,21,-34,-12,33,32,47,35,13,-89,-62
2,66,20,-34,-11,32,30,47,34,12,-93,-67
2,65,20,-34,-11,31,29,46,34,13,-95,-71
1,65,21,-32,-12,31,29,46,34,14,-89,-67
-1,65,22,-30,-14,33,29,46,35,15,-80,-60
-2,65,23,-29,-14,33,28,47,35,14,-78,-58
-1,65,22,-30,-13,32,28,47,35,13,-78,-54
1,65,21,-32,-12,31,27,47,34,12,-78,-54
2,65,19,-34,-11,31,27,47,34,11,-84,-60
3,65,19,-34,-10,30,26,47,34,11,-91,-66
2,65,20,-33,-11,31,27,47,34,11,-93,-68
0,65,21,-32,-12,32,27,47,34,11,-96,-72
0,65,21,-32,-13,32,27,48,35,12,-99,-75
1,66,21,-33,-12,32,28,48,35,12,-94,-72
0,66,22,-32,-13,33,28,49,35,12,-87,-68
-1,67,23,-31,-14,34,29,50,36,13,-85,-67
-0,68,22,-32,-13,34,30,51,37,13,-83,-64
1,67,21,-33,-12,32,31,52,38,13,-81,-61
2,67,21,-34,-11,32,32,53,38,14,-86,-64
3,68,20,-36,-10,32,34,54,39,15,-92,-68
3,67,20,-36,-11,32,35,55,40,16,-93,-68
2,67,21,-34,-11,32,36,57,41,16,-96,-71
2,66,20,-34,-11,31,38,58,42,17,-99,-74
2,65,19,-34,-11,31,39,59,42,16,-93,-72
2,63,19,-33,-11,30,39,60,43,14,-88,-70
1,63,20,-32,-11,31,40,62,44,14,-88,-71
-0,64,21,-31,-13,32,42,64,45,13,-86,-68
-2,64,22,-29,-14,32,44,65,46,12,-85,-66
-3,63,23,-27,-15,33,45,66,47,11,-93,-72
-4,63,24,-26,-16,33,46,67,48,10,-102,-78
-5,62,24,-24,-17,33,48,69,49,9,-106,-82
-8,60,25,-21,-18,34,50,70,50,9,-110,-88
-8,60,26,-20,-19,34,51,71,51,9,-112,-94
-8,60,25,-21,-19,34,51,72,52,9,-107,-91
-8,59,25,-20,-18,33,53,74,53,7,-100,-88
-8,58,25,-19,-18,33,53,75,53,7,-101,-89
-9,57,25,-17,-19,33,54,76,54,7,-103,-87
-11,56,27,-15,-21,34,55,77,55,8,-103,-82
-13,56,28,-13,-22,35,56,79,57,9,-110,-83
-13,57,29,-12,-23,36,57,80,58,10,-119,-88
-14,57,29,-12,-24,36,58,81,58,10,-122,-92
-15,58,30,-12,-24,37,58,81,59,11,-124,-98
-15,59,30,-12,-24,37,58,82,60,11,-126,-105
-13,59,30,-14,-24,37,58,83,61,11,-122,-105
-12,62,29,-16,-23,37,59,84,61,10,-116,-104
-12,64,30,-18,-23,38,59,85,62,11,-114,-106
-12,66,30,-18,-23,39,60,85,63,13,-111,-102
-13,66,31,-18,-24,40,61,86,64,14,-111,-96
-12,66,31,-19,-24,39,62,87,64,14,-121,-100
-12,67,31,-20,-23,40,63,88,65,15,-133,-103
-13,69,32,-19,-24,41,64,88,66,17,-138,-102
-14,70,33,-18,-26,42,65,89,67,18,-139,-102
-14,70,34,-18,-27,43,66,89,68,20,-136,-103
-14,71,34,-19,-26,43,66,90,68,21,-123,-98
-14,72,34,-20,-26,43,66,90,68,22,-109,-92
-13,73,34,-21,-26,44,66,90,69,22,-105,-93
-12,74,33,-22,-25,43,66,90,69,22,-102,-91
-12,74,33,-22,-25,43,65,89,69,22,-101,-88
-12,75,34,-22,-26,44,65,89,69,23,-105,-91
-12,77,34,-24,-26,45,64,89,69,24,-110,-94
-11,77,34,-24,-25,44,63,88,69,25,-112,-94
-10,77,33,-27,-24,44,62,87,68,24,-115,-96
-8,78,31,-29,-22,43,60,86,68,24,-117,-98
-7,79,31,-30,-22,43,59,85,67,26,-109,-94
-8,79,32,-30,-22,43,59,84,67,27,-99,-86
-8,80,32,-30,-22,44,58,83,66,28,-94,-83
-7,81,32,-31,-22,44,56,81,66,29,-89,-76
-7,82,32,-32,-22,45,55,80,65,30,-87,-70
-6,84,32,-34,-22,45,53,78,63,29,-99,-74
-2,87,30,-40,-18,44,50,75,61,27,-114,-80
1,88,28,-44,-16,43,49,73,60,27,-120,-80
1,89,29,-44,-17,44,47,71,59,27,-120,-80
1,90,29,-44,-17,44,47,69,57,27,-114,-80
0,89,29,-44,-17,44,45,67,56,28,-96,-73
-0,89,29,-43,-17,44,44,65,54,28,-76,-64
0,88,29,-43,-17,43,42,62,53,28,-66,-60
2,88,27,-44,-16,42,40,60,51,28,-61,-53
1,87,28,-43,-16,42,39,58,49,28,-58,-45
1,88,28,-44,-16,43,37,55,47,28,-63,-44
2,88,28,-45,-16,43,35,53,45,28,-68,-42
2,87,27,-45,-15,42,33,50,43,27,-66,-39
3,86,26,-45,-14,41,31,48,41,26,-66,-39
4,85,25,-45,-13,39,29,45,39,25,-69,-42
6,84,23,-46,-11,38,26,43,37,24,-62,-39
7,83,22,-48,-10,37,24,40,34,23,-49,-35
8,82,21,-48,-9,36,23,38,33,22,-39,-33
8,80,20,-48,-8,35,21,36,31,21,-31,-27
8,77,19,-46,-8,33,20,34,29,19,-27,-20
9,75,18,-45,-7,32,18,31,27,17,-36,-25
9,73,17,-45,-6,31,15,29,25,16,-48,-31
10,71,16,-45,-5,30,14,27,23,14,-54,-31
10,69,15,-44,-5,29,12,25,21,14,-61,-35
10,67,15,-44,-4,28,10,23,19,13,-64,-38
10,66,14,-43,-4,27,10,22,18,12,-57,-33
10,65,14,-42,-4,26,9,20,16,11,-50,-27
10,63,14,-41,-4,26,8,19,15,10,-47,-27
10,61,12,-41,-3,24,7,17,14,8,-44,-25
11,59,11,-40,-2,23,6,16,13,6,-44,-21
11,58,11,-40,-1,22,5,15,11,6,-51,-26
11,56,10,-39,-1,22,5,14,10,5,-58,-31
11,54,9,-38,-1,20,5,13,9,5,-61,-33
11,52,9,-37,-0,19,5,12,8,4,-65,-37
11,51,8,-37,-0,19,5,11,8,4,-69,-41
11,50,8,-36,0,19,5,11,8,4,-70,-42
11,50,8,-36,0,18,5,10,8,4,-70,-43
11,50,8,-36,0,18,5,10,8,4,-70,-43
11,50,8,-36,0,18,5,10,8,4,-70,-43
11,50,8,-36,0,18,5,10,8,4,-70,-43
11,47,7,-34,0,17,5,9,6,3,-65,-41
10,43,6,-32,1,15,4,7,4,2,-58,-38
10,41,6,-31,1,15,4,6,3,2,-55,-37
10,41,6,-31,1,14,4,6,3,1,-55,-37
10,41,6,-31,1,14,4,6,3,2,-54,-37
9,41,6,-30,0,15,4,6,3,4,-54,-37
9,41,7,-29,-0,15,4,7,3,6,-54,-37
8,40,7,-28,-1,15,4,7,3,8,-54,-37
8,38,7,-27,-0,14,4,7,4,9,-54,-37
8,37,6,-26,-0,14,4,7,4,9,-54,-37
8,35,6,-26,0,13,4,7,4,9,-54,-37
8,34,5,-25,0,12,5,7,5,9,-54,-37
8,34,5,-25,0,12,5,7,5,7,-54,-37
8,33,5,-24,0,12,6,7,5,6,-54,-37
8,33,5,-24,0,12,6,7,5,5,-54,-37
8,33,5,-25,1,12,7,7,5,4,-54,-37
9,33,4,-26,1,12,7,7,5,3,-54,-37
9,33,4,-26,2,11,7,7,5,1,-54,-37
10,33,3,-27,3,11,7,7,5,0,-54,-37
11,33,3,-28,3,10,7,7,5,-1,-54,-35
11,33,3,-28,3,10,8,7,5,-1,-54,-33
11,33,3,-28,3,10,8,7,5,-1,-54,-30
11,33,3,-28,3,10,9,7,5,-1,-54,-27
10,33,3,-28,3,10,9,7,5,-1,-54,-25
9,33,4,-26,2,11,9,7,5,0,-54,-24
8,33,5,-24,0,12,10,8,6,1,-54,-23
6,33,6,-23,-1,13,10,8,6,3,-54,-23
5,33,7,-22,-2,14,10,8,6,3,-54,-23
5,33,7,-21,-2,14,10,8,7,4,-54,-23
4,33,8,-21,-2,14,10,8,7,4,-54,-23
4,33,8,-21,-2,14,10,8,7,4,-54,-23
4,33,8,-21,-2,14,10,8,7,4,-54,-23
4,33,8,-21,-2,14,10,8,7,4,-54,-23
4,33,8,-21,-2,14,10,8,8,4,-54,-23
4,33,8,-21,-2,14,10,8,8,4,-54,-23
4,33,8,-21,-2,14,10,8,8,4,-54,-25
4,33,8,-21,-2,14,10,8,8,4,-54,-27
4,33,8,-21,-2,14,11,8,8,4,-54,-30
4,33,8,-21,-2,14,12,8,8,4,-54,-33
4,33,8,-21,-2,14,12,8,8,4,-54,-35
4,33,8,-21,-2,14,12,8,8,5,-54,-36
4,33,8,-21,-2,14,12,8,8,6,-54,-37
4,33,8,-21,-2,14,12,8,8,8,-54,-37
4,33,8,-21,-3,14,12,9,8,9,-54,-35
4,33,8,-20,-3,14,12,9,8,9,-54,-33
3,33,9,-19,-4,15,12,9,8,9,-54,-30
2,33,9,-18,-5,15,12,10,8,9,-54,-27
2,33,10,-18,-5,16,12,10,8,9,-54,-25
1,33,10,-18,-5,16,12,10,8,7,-54,-24
1,33,10,-17,-5,16,12,10,8,6,-54,-23
1,33,10,-17,-5,16,12,10,8,5,-54,-23
1,33,10,-17,-5,16,12,10,8,4,-53,-23
1,33,10,-17,-5,16,12,10,8,4,-51,-23
1,33,10,-17,-5,16,12,10,8,4,-49,-23
1,33,10,-17,-5,16,12,10,8,4,-46,-23
1,33,10,-17,-5,16,12,10,9,4,-44,-22
1,33,10,-17,-5,16,13,10,9,4,-44,-19
1,33,10,-17,-5,16,14,10,9,4,-43,-17
1,33,10,-17,-5,16,14,10,10,4,-43,-13
1,33,10,-17,-5,15,15,10,10,3,-43,-11
1,31,9,-16,-5,15,15,10,10,2,-43,-11
1,30,9,-16,-5,14,15,10,10,1,-43,-10
1,28,8,-15,-4,13,15,10,10,0,-43,-10
1,27,8,-14,-4,12,15,10,10,-1,-43,-10
1,26,8,-14,-4,12,15,10,10,-1,-43,-10
1,26,8,-14,-4,12,15,10,10,-1,-43,-10
1,26,8,-14,-4,12,15,10,10,-1,-43,-10
1,27,8,-14,-4,12,15,10,10,-1,-42,-10
1,28,8,-15,-4,13,15,10,10,-1,-40,-10
1,30,9,-16,-5,14,15,10,10,-1,-38,-10
1,32,9,-17,-5,15,15,10,10,-1,-35,-10
1,33,10,-17,-5,15,15,10,10,-1,-34,-10
1,33,10,-17,-5,16,15,10,10,-1,-33,-10
1,33,10,-17,-5,16,15,10,10,-1,-33,-10
1,33,10,-17,-5,16,15,10,10,-1,-33,-10
1,33,10,-17,-5,16,15,10,10,-2,-33,-10
1,33,10,-17,-5,16,14,10,10,-3,-33,-10
1,33,10,-17,-5,16,14,10,10,-4,-33,-10
1,33,10,-17,-5,16,13,10,10,-5,-33,-10
1,33,10,-17,-5,16,12,10,10,-6,-33,-10
1,33,10,-17,-5,16,12,10,10,-6,-33,-10
1,33,10,-17,-5,16,12,9,9,-7,-33,-10
1,33,10,-17,-5,16,12,9,9,-7,-33,-10
1,33,10,-17,-5,16,12,9,9,-7,-33,-10
1,33,10,-17,-5,16,12,9,9,-8,-33,-10
1,33,10,-17,-5,16,12,8,8,-9,-33,-10
1,33,10,-17,-5,16,12,8,8,-11,-33,-10
1,33,10,-17,-5,16,12,8,8,-11,-33,-10
1,33,10,-17,-5,16,11,8,8,-12,-33,-10
1,33,10,-17,-5,16,11,8,8,-12,-33,-10
1,33,10,-17,-5,16,10,7,8,-12,-33,-10
1,33,10,-17,-5,16,10,7,8,-12,-33,-9
1,33,10,-17,-5,16,10,7,8,-12,-33,-6
1,33,10,-17,-5,16,10,7,8,-12,-33,-3
1,33,10,-17,-5,16,10,7,8,-12,-33,0
2,34,10,-18,-5,16,10,7,8,-12,-32,3
2,36,10,-20,-5,16,10,7,8,-12,-29,7
3,37,10,-21,-5,17,10,7,8,-12,-27,10
4,39,10,-23,-4,17,10,7,8,-12,-25,13
4,40,10,-24,-4,17,10,7,8,-12,-23,15
4,40,10,-24,-4,17,10,6,8,-12,-23,16
4,41,10,-24,-4,18,10,6,8,-12,-22,16
4,41,10,-24,-4,18,10,6,7,-12,-22,16
4,40,10,-24,-4,17,9,5,7,-13,-23,15
4,38,9,-23,-3,16,9,5,6,-14,-25,13
4,37,9,-23,-3,16,8,5,6,-15,-27,10
4,35,8,-22,-3,15,8,4,5,-16,-30,7
4,34,8,-21,-3,14,7,4,5,-17,-32,5
4,34,8,-21,-3,14,7,4,5,-17,-32,4
4,33,8,-21,-2,14,7,4,5,-17,-33,3
4,33,8,-21,-2,14,7,4,5,-17,-33,3
4,33,8,-21,-2,14,7,4,5,-17,-33,3
4,33,8,-21,-2,14,7,4,5,-17,-33,3
4,33,8,-21,-2,14,7,4,5,-17,-33,3
4,33,8,-21,-2,14,7,4,5,-17,-33,3
4,33,8,-21,-2,14,7,4,5,-17,-32,5
4,33,8,-21,-2,14,7,4,5,-16,-29,7
4,33,8,-21,-2,14,7,4,5,-15,-27,10
4,33,8,-21,-2,14,7,4,5,-13,-25,13
4,33,8,-21,-2,14,7,4,5,-13,-23,15
4,33,8,-21,-2,14,7,4,5,-12,-23,16
4,33,8,-21,-2,14,7,4,5,-12,-22,16
4,33,8,-21,-2,14,7,4,5,-12,-22,16
4,33,7,-21,-2,14,7,4,5,-12,-22,16
4,31,7,-20,-2,13,7,3,5,-12,-22,16
4,30,6,-19,-2,12,7,3,5,-12,-22,16
4,28,6,-18,-1,11,7,3,5,-12,-22,16
4,27,5,-18,-1,11,7,3,5,-12,-22,16
4,26,5,-18,-1,10,6,2,4,-12,-22,16
4,26,5,-17,-1,10,6,2,4,-12,-22,16
4,26,5,-17,-1,10,5,2,4,-12,-22,16
4,26,5,-17,-1,10,5,2,3,-12,-22,16
4,26,5,-17,-1,10,4,2,3,-12,-22,16
4,26,5,-17,-1,10,4,2,3,-12,-22,16
4,26,5,-17,-1,10,4,2,3,-12,-22,16
4,26,5,-17,-1,10,4,2,3,-12,-22,17
4,26,5,-17,-1,10,4,2,3,-12,-22,20
4,26,5,-17,-1,10,4,2,3,-12,-22,23
4,26,5,-17,-1,10,4,2,3,-12,-22,26
4,26,5,-17,-1,10,5,2,3,-11,-21,28
4,26,6,-16,-2,11,5,2,3,-10,-19,29
3,26,6,-16,-2,11,6,2,3,-9,-17,29
2,26,7,-15,-3,12,6,2,3,-8,-14,29
2,26,7,-14,-4,12,7,2,3,-7,-12,29
1,26,7,-14,-4,12,7,2,4,-7,-12,29
1,26,8,-14,-4,12,7,2,4,-7,-11,29
1,26,8,-14,-4,12,7,2,4,-7,-11,29
2,26,7,-14,-4,12,7,2,5,-7,-12,29
2,26,7,-15,-3,12,6,2,5,-7,-14,29
3,26,6,-16,-2,11,6,2,5,-7,-17,29
4,26,6,-17,-2,11,5,1,5,-7,-19,29
4,26,5,-17,-1,10,5,1,5,-7,-21,29
4,26,5,-17,-1,10,4,1,4,-8,-21,29
4,26,5,-17,-1,10,4,1,4,-9,-22,29
4,26,5,-17,-1,10,4,1,4,-11,-22,29
4,25,5,-17,-1,10,4,1,3,-11,-22,29
4,24,4,-16,-1,9,4,0,3,-12,-22,29
4,22,4,-16,-0,9,4,0,3,-12,-22,29
4,21,3,-15,0,8,4,-0,3,-12,-22,29
4,19,3,-14,0,7,4,-1,3,-12,-22,28
4,19,3,-14,0,7,4,-1,3,-12,-22,25
4,19,3,-14,0,7,4,-1,3,-12,-22,23
4,19,3,-14,0,7,4,-2,3,-12,-22,19
4,19,3,-14,0,7,4,-2,3,-12,-22,17
4,19,3,-14,0,7,4,-2,3,-12,-22,17
4,19,3,-14,0,7,4,-2,3,-12,-22,16
4,19,3,-14,0,7,4,-2,3,-12,-22,16
4,19,3,-14,0,7,4,-2,3,-12,-22,16
4,19,3,-14,0,7,4,-2,3,-12,-22,16
4,19,3,-14,0,7,4,-2,3,-12,-22,16
4,19,3,-14,0,7,4,-2,3,-12,-22,16
4,19,3,-13,0,7,4,-2,3,-12,-22,16
4,19,3,-13,-0,7,4,-2,3,-12,-22,16
3,19,4,-12,-1,8,4,-2,3,-12,-22,16
2,19,5,-11,-2,8,4,-2,3,-12,-22,16
2,19,5,-11,-2,8,4,-2,3,-12,-22,16
1,19,5,-11,-2,8,4,-2,3,-12,-22,16
1,19,5,-10,-2,9,4,-2,3,-12,-22,16
1,19,5,-10,-2,9,4,-2,3,-12,-22,16
1,18,5,-10,-2,8,4,-2,3,-12,-22,16
1,16,4,-9,-2,7,4,-2,3,-12,-22,16
1,15,4,-9,-2,7,4,-2,3,-12,-22,16
1,13,3,-8,-1,6,4,-2,3,-12,-22,16
1,12,3,-7,-1,5,4,-2,3,-12,-22,16
1,12,3,-7,-1,5,3,-2,3,-12,-22,16
1,11,3,-7,-1,5,3,-2,2,-12,-22,16
1,11,3,-7,-1,5,3,-2,2,-12,-22,16
1,11,3,-7,-1,5,2,-2,2,-12,-22,16
1,11,3,-7,-1,5,2,-2,2,-12,-22,16
1,11,3,-7,-1,5,2,-2,2,-12,-22,16
1,11,3,-7,-1,5,2,-2,2,-12,-22,16
1,11,3,-7,-1,5,2,-2,2,-12,-22,16
0,12,4,-6,-2,6,2,-2,1,-13,-18,17
-1,13,5,-5,-4,7,1,-3,1,-14,-12,19
-2,13,6,-4,-4,7,1,-3,1,-14,-10,19
-2,13,6,-4,-4,8,1,-3,1,-15,-9,19
-3,14,6,-4,-5,8,1,-3,1,-15,-9,19
-2,15,6,-6,-4,9,-1,-3,1,-15,-10,19
1,17,5,-9,-2,8,-3,-3,1,-16,-11,21
2,19,5,-11,-2,8,-3,-3,1,-16,-14,22
1,20,6,-11,-3,9,-3,-3,1,-16,-26,15
0,20,7,-10,-4,10,-1,-3,1,-15,-38,9
-1,21,7,-9,-5,11,1,-3,1,-15,-44,9
-2,21,8,-8,-5,11,2,-3,1,-16,-47,7
-2,21,8,-8,-6,11,2,-3,1,-16,-44,6
-3,21,9,-7,-6,12,3,-3,1,-15,-32,14
-4,20,9,-5,-7,12,4,-3,1,-15,-20,23
-5,18,9,-4,-8,11,4,-3,1,-15,-15,26
-5,15,8,-2,-7,10,4,-3,1,-15,-12,31
-5,11,8,1,-7,9,4,-3,1,-16,-12,37
-6,8,7,2,-6,7,4,-3,1,-16,-19,32
-5,4,5,4,-5,5,3,-3,1,-17,-26,21
-4,2,4,4,-4,3,3,-3,1,-19,-29,14
-3,2,3,3,-3,3,2,-3,0,-19,-29,6
-4,3,4,3,-4,3,2,-3,0,-19,-29,-3
-3,4,3,1,-3,3,2,-3,0,-20,-20,1
-2,6,3,-1,-3,4,1,-3,0,-21,-9,11
-0,10,3,-4,-2,5,1,-3,0,-21,-2,18
0,14,4,-7,-2,7,1,-2,0,-21,6,29
1,17,5,-9,-2,8,2,-2,0,-21,9,36
2,18,5,-11,-2,8,1,-3,0,-23,-2,25
3,18,4,-11,-1,7,1,-3,-0,-24,-16,11
2,17,4,-11,-1,7,1,-3,-0,-25,-24,1
2,17,4,-10,-2,7,0,-3,-0,-25,-32,-6
1,17,5,-9,-2,8,-0,-3,-0,-24,-33,-7
-0,17,6,-7,-4,9,0,-3,0,-23,-25,5
-3,17,8,-5,-6,10,1,-3,1,-22,-16,21
-5,17,9,-2,-8,11,1,-3,1,-20,-11,30
-6,17,10,-1,-9,12,1,-3,2,-20,-8,36
-6,17,10,-2,-8,12,2,-3,2,-20,-8,41
-6,18,10,-2,-9,12,2,-3,2,-20,-13,37
-5,18,10,-2,-8,12,2,-3,2,-20,-20,29
-4,16,8,-3,-7,10,1,-3,1,-20,-24,21
-4,14,7,-2,-6,9,1,-4,1,-21,-28,7
-4,11,7,-1,-6,8,1,-4,0,-21,-29,-5
-4,9,6,0,-5,7,0,-5,-0,-22,-23,-3
-3,8,5,-0,-4,6,0,-5,-0,-22,-15,6
-2,9,4,-2,-3,6,-0,-5,-0,-23,-12,13
-1,10,4,-3,-3,5,-1,-5,-0,-22,-9,26
-1,10,4,-3,-3,5,-1,-4,-0,-22,-9,37
-2,10,4,-2,-3,6,-1,-4,-0,-21,-20,34
-1,10,4,-3,-3,5,-1,-4,-0,-21,-34,27
-2,7,4,-1,-3,5,-1,-4,-0,-22,-43,23
-4,5,4,1,-4,5,-1,-4,-0,-22,-46,18
-5,7,6,2,-6,6,-1,-4,0,-22,-41,15
-7,7,8,5,-8,8,-0,-4,0,-22,-27,20
-8,8,9,6,-9,9,0,-4,0,-21,-12,25
-9,8,9,6,-9,9,0,-4,0,-21,-4,26
-8,10,9,4,-9,9,0,-4,0,-21,0,31
-6,11,8,1,-7,9,-0,-4,0,-21,1,34
-3,14,7,-3,-6,9,-0,-4,0,-21,-6,27
-2,16,6,-6,-4,9,0,-4,0,-21,-16,17
-0,16,6,-7,-3,8,0,-4,0,-20,-22,16
0,15,5,-7,-3,7,-0,-4,0,-20,-26,13
0,15,5,-7,-3,7,0,-4,0,-18,-29,11
0,14,4,-7,-2,6,1,-4,-0,-17,-24,17
1,14,4,-7,-2,6,1,-4,-0,-16,-16,25
1,15,4,-9,-2,6,0,-4,-1,-15,-13,29
2,14,3,-9,-1,6,-0,-3,-1,-15,-9,34
3,13,2,-9,-0,5,-1,-3,-1,-15,-8,37
3,12,2,-8,0,4,-1,-4,-2,-17,-17,32
2,12,3,-7,-1,5,-1,-4,-2,-17,-24,27
0,13,4,-7,-2,6,-0,-3,-2,-16,-25,29
0,13,4,-7,-2,6,-0,-3,-2,-16,-25,29
0,13,4,-7,-2,6,-0,-3,-2,-16,-25,29
0,13,4,-7,-2,6,-0,-3,-2,-16,-25,29
0,13,4,-7,-2,6,-0,-3,-2,-16,-25,29
0,13,4,-7,-2,6,-0,-3,-2,-16,-25,29
0,13,4,-7,-2,6,-0,-3,-2,-16,-25,29
-1,6,3,-1,-2,3,-2,-3,-1,-20,-25,9
-382,240,364,306,-388,334,200,146,174,291,320,338
-29,6,24,29,-27,19,8,-1,1,6,-28,16
-13,6,12,12,-13,10,3,-7,-4,-10,-28,23
0,4,1,-2,-0,2,1,-11,-7,-20,-41,16
5,19,2,-15,1,6,-0,-14,-10,-26,-44,6
5,19,2,-15,1,6,-2,-19,-14,-26,-44,6
4,17,2,-13,1,6,-4,-25,-17,-20,4,36
2,17,4,-10,-1,7,-8,-32,-22,-20,10,39
2,2,-1,-3,2,0,-14,-43,-33,-26,4,33
6,17,1,-15,2,5,-22,-60,-43,-23,15,23
3,21,5,-13,-1,9,-32,-78,-50,-11,47,69
8,24,2,-20,2,8,-42,-91,-61,-7,20,76
14,26,-2,-28,8,5,-47,-104,-72,-6,31,89
13,26,-1,-27,7,5,-54,-118,-83,-3,42,102
18,28,-4,-33,11,3,-63,-135,-95,-0,47,122
33,37,-13,-55,23,-1,-71,-148,-107,-3,63,135
36,41,-13,-59,24,0,-74,-162,-120,-3,95,159
30,48,-7,-56,18,7,-79,-174,-133,-4,106,169
19,59,5,-49,5,18,-86,-191,-148,-6,130,189
26,74,5,-65,9,22,-97,-210,-164,-11,154,208
30,81,4,-72,11,23,-106,-225,-177,-19,154,215
35,79,-0,-77,16,19,-121,-239,-193,-34,109,199
38,65,-7,-73,21,10,-129,-247,-211,-49,120,185
34,55,-7,-64,20,8,-140,-257,-225,-61,136,215
37,52,-11,-66,23,4,-151,-271,-242,-81,136,215
48,41,-22,-72,35,-7,-167,-284,-264,-113,138,215
43,19,-26,-56,35,-15,-177,-294,-280,-141,149,205
41,11,-27,-51,35,-18,-190,-302,-288,-164,138,195
47,11,-31,-57,40,-21,-201,-303,-291,-173,146,195
49,17,-31,-62,40,-19,-207,-302,-287,-178,170,215
44,30,-23,-62,33,-10,-208,-294,-277,-180,181,232
42,37,-19,-64,30,-5,-203,-284,-266,-174,160,235
53,52,-22,-83,37,-4,-200,-273,-254,-163,170,248
62,59,-27,-97,44,-6,-197,-260,-241,-152,176,268
66,68,-27,-106,46,-4,-195,-250,-230,-139,184,285
69,76,-27,-112,47,-1,-196,-239,-222,-127,197,301
70,68,-30,-110,49,-6,-191,-230,-215,-108,235,305
73,66,-33,-112,52,-8,-189,-220,-206,-95,240,335
73,59,-35,-109,53,-12,-185,-211,-199,-88,251,341
74,52,-39,-107,56,-16,-183,-203,-194,-88,251,341
73,43,-40,-101,57,-20,-179,-194,-186,-91,248,341
72,33,-43,-95,57,-24,-174,-184,-177,-93,229,328
72,18,-48,-87,60,-32,-168,-176,-172,-100,216,313
72,1,-53,-79,64,-40,-163,-167,-167,-109,202,292
72,-15,-59,-72,67,-48,-158,-159,-162,-117,190,271
72,-28,-63,-65,69,-54,-152,-150,-155,-123,185,259
70,-41,-66,-57,71,-60,-143,-141,-147,-129,179,250
69,-52,-69,-51,72,-64,-134,-130,-139,-133,169,236
70,-60,-72,-48,74,-69,-125,-120,-130,-134,161,228
72,-67,-75,-46,77,-73,-117,-110,-121,-134,153,220
74,-72,-79,-46,80,-77,-109,-100,-111,-131,139,206
77,-73,-81,-49,83,-79,-103,-91,-101,-126,124,191
80,-73,-83,-53,85,-81,-96,-81,-90,-118,115,181
81,-73,-84,-54,86,-81,-88,-71,-79,-110,105,166
80,-72,-83,-53,85,-81,-81,-62,-70,-103,94,150
78,-71,-82,-51,84,-79,-73,-52,-61,-97,88,140
74,-71,-79,-48,80,-77,-65,-44,-54,-94,79,129
70,-70,-75,-44,76,-74,-58,-38,-48,-91,67,115
67,-67,-72,-41,73,-71,-51,-32,-42,-88,59,106
63,-62,-68,-40,69,-66,-45,-27,-36,-85,54,100
60,-55,-63,-39,64,-61,-39,-23,-31,-82,43,90
56,-46,-57,-39,59,-54,-35,-20,-26,-79,31,78
51,-37,-50,-38,52,-47,-30,-15,-22,-77,20,69
43,-26,-41,-35,44,-37,-24,-10,-17,-72,10,59
37,-15,-33,-34,36,-28,-18,-5,-11,-66,1,47
32,-8,-27,-32,30,-22,-14,-1,-7,-60,0,42
27,-3,-21,-28,24,-17,-9,3,-2,-54,2,42
21,1,-15,-23,19,-11,-5,6,2,-48,0,41
16,3,-11,-18,14,-8,-1,9,5,-43,-1,42
10,2,-7,-12,9,-5,3,12,7,-39,-2,41
5,0,-4,-6,5,-3,6,14,10,-36,-11,29
1,-2,-1,0,1,-1,8,16,12,-32,-23,15
-4,-5,2,7,-3,0,11,18,15,-29,-28,6
-9,-8,4,13,-6,1,13,20,17,-27,-34,-5
-11,-10,5,17,-8,1,14,22,19,-25,-39,-13
-12,-10,6,18,-9,2,16,23,20,-23,-35,-10
-13,-11,6,20,-10,2,17,24,21,-22,-30,-7
-13,-12,6,21,-9,2,17,24,21,-22,-31,-9
-12,-13,4,20,-8,0,18,24,21,-22,-33,-7
-10,-14,3,18,-6,-1,18,24,21,-23,-35,-5
-9,-14,2,17,-5,-2,19,24,21,-23,-44,-9
-8,-13,2,15,-4,-2,19,24,21,-22,-53,-14
-9,-12,3,16,-6,-1,20,24,22,-21,-54,-13
-10,-14,3,18,-7,-1,20,25,22,-20,-57,-18
-10,-14,3,18,-6,-1,21,25,23,-20,-61,-24
-10,-13,3,17,-6,-1,21,26,23,-20,-55,-20
-10,-11,4,17,-7,0,21,26,24,-20,-49,-15
-11,-11,5,17,-8,1,22,27,24,-19,-46,-16
-11,-10,5,17,-8,1,22,27,24,-19,-43,-14
-11,-10,5,17,-8,2,23,27,24,-18,-42,-10
-11,-9,5,16,-8,2,24,28,25,-17,-47,-15
-10,-8,4,15,-7,1,24,29,25,-16,-51,-21
-8,-8,3,13,-6,1,24,29,25,-16,-51,-24
-7,-8,3,12,-5,0,24,30,26,-17,-53,-30
-8,-8,3,13,-5,0,24,30,26,-17,-56,-37
-10,-10,4,16,-7,1,24,31,26,-18,-51,-33
-13,-13,5,20,-9,1,24,31,27,-18,-46,-30
-13,-12,6,21,-9,1,24,31,27,-19,-46,-31
-13,-11,6,19,-9,2,23,31,27,-18,-44,-28
-13,-11,6,20,-10,2,23,32,27,-18,-42,-23
-15,-10,8,21,-11,3,23,32,27,-17,-47,-24
-14,-10,7,21,-10,3,23,32,27,-17,-54,-30
-13,-11,6,20,-10,2,23,32,27,-17,-57,-33
-14,-12,6,22,-10,2,23,32,28,-16,-58,-39
-17,-14,8,25,-12,3,23,33,28,-14,-59,-42
-19,-15,10,28,-14,4,24,34,29,-13,-53,-35
-20,-14,11,29,-15,5,25,34,29,-12,-47,-29
-20,-12,11,28,-15,5,25,35,29,-12,-46,-30
-18,-12,10,26,-14,4,25,35,30,-12,-45,-29
-19,-11,10,26,-14,5,26,35,30,-13,-46,-27
-20,-10,12,27,-16,6,26,36,30,-14,-55,-31
-20,-8,12,27,-16,7,27,36,31,-14,-65,-34
-20,-7,13,26,-17,8,27,37,31,-15,-71,-33
-20,-5,13,24,-16,8,28,37,32,-15,-75,-35
-17,-4,12,21,-14,8,28,38,32,-15,-73,-39
-14,-3,9,17,-12,6,28,38,32,-15,-64,-35
-11,-3,8,14,-9,5,29,39,33,-15,-54,-33
-10,-1,7,12,-9,5,29,39,33,-15,-50,-35
-11,-2,8,13,-9,5,29,40,34,-15,-48,-33
-13,-3,9,16,-11,6,29,40,34,-15,-47,-29
-16,-3,11,19,-13,7,30,41,35,-14,-50,-29
-18,-3,12,21,-15,9,30,42,36,-12,-55,-32
-17,-3,12,21,-15,8,31,42,36,-12,-57,-35
-17,-3,12,21,-15,8,31,43,37,-11,-61,-41
-17,-2,12,20,-15,9,32,43,38,-10,-63,-44
-18,-1,13,21,-16,10,34,44,39,-7,-57,-39
-20,1,15,22,-18,12,35,46,40,-5,-48,-30
-21,3,17,22,-19,13,35,47,41,-4,-46,-25
-20,4,16,20,-18,13,35,47,41,-4,-46,-18
-18,5,15,17,-17,13,35,48,42,-4,-46,-15
-16,5,14,15,-15,12,34,49,42,-3,-51,-21
-15,6,13,13,-14,11,34,49,43,-2,-58,-27
-15,6,13,14,-14,11,35,49,44,-1,-61,-29
-16,6,14,15,-15,12,35,50,45,1,-63,-32
-16,7,14,14,-15,12,35,51,45,3,-63,-35
-15,7,14,13,-15,12,36,51,46,4,-56,-33
-16,8,14,14,-15,13,36,52,46,6,-47,-29
-17,9,16,15,-17,14,37,53,47,7,-43,-27
-17,9,16,15,-17,14,37,54,48,7,-41,-25
-17,8,15,15,-16,13,38,55,49,8,-39,-21
-16,8,15,14,-16,13,38,56,49,8,-43,-25
-15,10,15,12,-16,14,39,57,50,9,-49,-28
-14,13,15,10,-15,14,39,57,51,10,-50,-28
-14,15,15,8,-15,15,39,58,52,11,-54,-31
-12,18,15,5,-14,16,39,59,53,11,-56,-35
-11,19,14,2,-13,15,39,59,53,12,-50,-33
-10,19,14,2,-13,15,39,60,54,12,-46,-31
-10,19,14,2,-13,15,39,61,54,14,-45,-31
-10,20,14,2,-13,16,40,62,56,15,-43,-28
-11,21,15,2,-14,16,41,64,57,16,-41,-25
-12,21,16,3,-15,17,42,65,57,17,-47,-28
-12,23,17,2,-15,18,42,66,59,18,-54,-31
-13,24,17,2,-16,19,44,67,60,19,-55,-31
-14,24,18,4,-17,20,45,69,61,20,-57,-36
-15,25,19,4,-18,21,45,70,62,21,-58,-41
-14,27,19,2,-18,21,46,71,62,22,-53,-38
-14,27,20,2,-18,22,47,72,63,22,-47,-35
-14,28,20,2,-18,22,48,73,64,23,-46,-36
-15,27,20,4,-19,22,49,74,66,24,-46,-34
-17,26,22,7,-21,23,50,76,67,27,-44,-29
-19,27,23,9,-22,24,51,77,69,29,-48,-30
-20,27,24,9,-23,25,51,78,70,31,-56,-35
-19,28,24,8,-23,25,52,79,71,31,-58,-36
-19,29,24,8,-23,25,51,80,72,32,-60,-39
-19,29,24,6,-22,25,51,81,73,33,-62,-42
-17,30,23,4,-21,24,50,82,73,32,-57,-39
-16,32,22,2,-20,25,51,82,73,32,-51,-37
-15,35,23,-0,-20,26,51,83,74,32,-50,-39
-15,36,23,-1,-21,26,52,84,74,34,-47,-35
-16,37,24,-0,-21,27,53,85,75,35,-46,-31
-15,39,24,-2,-21,28,53,85,75,35,-54,-37
-15,41,25,-4,-21,29,54,86,76,36,-63,-43
-16,45,26,-4,-23,31,54,87,77,38,-65,-45
-17,47,28,-4,-25,33,55,88,78,40,-67,-48
-18,48,29,-4,-25,34,55,88,78,41,-68,-49
-17,49,29,-5,-25,34,55,88,79,42,-59,-44
-17,50,29,-5,-25,34,55,88,79,43,-50,-39
-17,51,29,-6,-25,35,56,88,79,43,-49,-40
-15,52,28,-8,-24,34,56,88,79,44,-48,-38
-15,52,28,-8,-23,34,56,88,80,44,-47,-35
-16,53,29,-8,-24,35,56,88,80,44,-51,-38
-15,55,29,-9,-24,36,56,88,80,45,-57,-44
-15,55,30,-10,-24,36,56,87,80,46,-58,-48
-15,55,29,-11,-24,35,55,86,79,45,-62,-56
-13,56,28,-12,-23,35,54,86,78,45,-64,-65
-14,57,29,-12,-23,36,54,85,78,47,-56,-62
-17,57,31,-9,-26,37,54,84,78,48,-46,-48
-19,58,33,-7,-28,39,54,83,78,49,-41,-36
-21,59,35,-6,-30,41,53,82,78,51,-35,-20
-22,59,36,-4,-31,42,52,81,77,51,-33,-10
-20,60,35,-7,-30,41,50,80,76,50,-42,-20
-14,61,31,-13,-25,38,48,78,74,48,-55,-35
-10,61,27,-18,-21,36,46,76,72,48,-58,-44
-9,61,27,-20,-20,35,45,74,71,48,-59,-50
-8,61,26,-20,-19,35,45,72,69,49,-58,-52
-8,60,25,-21,-19,34,44,70,68,49,-48,-46
-7,59,25,-21,-18,33,44,68,65,49,-36,-37
-6,59,24,-22,-17,32,42,65,63,49,-32,-35
-5,58,23,-23,-16,31,40,63,61,49,-31,-31
-5,58,23,-22,-16,31,39,61,59,49,-31,-26
-5,59,23,-22,-16,32,37,58,58,49,-39,-27
-5,59,23,-23,-16,32,36,56,56,49,-46,-28
-5,58,23,-22,-16,31,34,54,54,48,-44,-25
-5,57,22,-22,-15,31,33,52,52,47,-44,-26
-5,55,22,-22,-15,30,31,50,50,47,-47,-29
-4,54,20,-22,-14,29,29,47,47,45,-42,-26
-2,54,19,-23,-13,28,27,45,45,44,-33,-22
-2,52,18,-23,-12,27,25,42,43,43,-28,-19
-1,50,17,-23,-11,26,24,40,42,42,-25,-13
-1,48,17,-22,-10,24,23,38,40,40,-23,-7
-1,45,16,-21,-10,23,21,35,38,39,-29,-11
-1,44,15,-20,-9,22,19,33,35,37,-37,-17
0,42,14,-21,-8,21,18,30,33,36,-38,-18
1,40,13,-20,-7,19,16,28,31,34,-41,-21
1,38,12,-20,-6,18,15,26,30,33,-41,-25
2,37,10,-20,-5,17,14,25,28,31,-31,-19
2,35,10,-20,-5,16,12,23,26,28,-20,-13
3,34,9,-20,-4,15,11,22,24,26,-16,-13
4,32,7,-20,-3,13,10,20,23,24,-13,-11
4,29,6,-19,-2,12,9,19,21,22,-12,-8
4,28,6,-18,-1,11,8,18,20,22,-19,-13
4,27,5,-18,-1,11,7,17,19,21,-26,-19
4,25,5,-17,-1,10,7,16,18,21,-29,-23
4,22,4,-16,-0,9,6,15,17,20,-33,-31
4,21,4,-15,-0,8,6,14,17,20,-36,-37
4,21,3,-15,0,8,6,14,17,20,-38,-39
4,21,3,-15,0,8,6,13,17,20,-38,-39
4,21,3,-15,0,8,6,13,17,20,-38,-40
4,21,3,-15,0,8,6,13,17,20,-38,-40
4,21,3,-15,0,8,6,13,17,20,-38,-40
3,18,3,-12,-0,7,4,12,14,16,-36,-35
2,14,3,-9,-1,6,3,9,10,11,-34,-27
1,12,3,-7,-1,5,2,8,9,10,-33,-25
1,12,3,-7,-1,5,2,8,9,9,-33,-24
1,11,3,-7,-1,5,2,8,9,9,-33,-23
1,11,3,-7,-1,5,2,8,8,9,-33,-23
1,11,3,-7,-1,5,2,7,8,9,-33,-23
2,11,3,-7,-1,5,1,7,8,9,-33,-23
2,11,2,-8,-0,4,1,7,8,9,-33,-23
3,11,2,-9,0,4,0,7,8,9,-33,-23
4,11,1,-9,1,3,-0,7,7,9,-33,-23
4,11,1,-10,2,3,-1,7,7,9,-33,-23
4,11,0,-10,2,3,-1,7,7,9,-33,-23
4,11,0,-10,2,3,-1,7,7,9,-33,-23
4,11,0,-10,2,3,-1,7,7,9,-33,-23
4,11,1,-10,2,3,-1,7,7,9,-33,-23
4,11,1,-9,1,4,1,7,7,9,-33,-23
3,11,2,-9,0,4,2,7,8,9,-33,-23
2,11,2,-7,-0,4,3,7,8,9,-33,-23
1,11,3,-6,-1,5,4,7,8,10,-33,-23
-1,11,5,-4,-3,6,4,7,8,11,-33,-23
-4,11,6,-1,-5,8,4,7,8,12,-33,-23
-6,11,8,1,-7,9,4,7,8,13,-33,-23
-7,11,9,2,-8,9,4,7,8,14,-33,-23
-6,11,8,1,-8,9,4,7,8,14,-33,-23
-5,11,7,0,-6,8,4,7,8,14,-33,-23
-3,11,6,-2,-5,7,4,7,8,14,-33,-23
-2,11,5,-3,-4,7,4,7,8,14,-33,-23
-1,11,5,-4,-3,6,4,7,8,14,-33,-23
-0,11,4,-5,-2,6,4,8,8,14,-33,-23
0,11,3,-6,-2,5,4,8,8,14,-33,-23
1,11,3,-6,-1,5,4,8,8,14,-33,-23
1,11,3,-7,-1,5,4,8,8,14,-33,-23
1,11,3,-7,-1,5,4,8,8,14,-33,-23
1,11,3,-7,-1,5,4,8,8,14,-33,-23
1,11,3,-7,-1,5,4,8,8,14,-33,-23
1,11,3,-7,-1,5,4,8,8,14,-33,-23
1,11,3,-7,-1,5,4,8,8,14,-33,-23
1,11,3,-7,-1,5,4,7,8,14,-33,-23
1,11,3,-7,-1,5,4,7,8,14,-33,-23
1,11,3,-7,-1,5,4,7,8,14,-33,-23
1,11,3,-7,-1,5,4,7,8,14,-33,-23
1,11,3,-7,-1,5,4,7,8,14,-33,-23
1,11,3,-7,-1,5,4,7,9,14,-33,-23
1,11,3,-7,-1,5,4,7,9,14,-33,-23
1,11,3,-7,-1,5,4,8,9,14,-33,-23
1,11,3,-7,-1,5,4,8,10,14,-33,-23
1,11,3,-7,-1,5,4,8,10,14,-33,-23
1,11,3,-7,-1,5,4,8,10,14,-33,-23
1,11,3,-7,-1,5,4,8,10,14,-33,-23
1,11,3,-7,-1,5,4,8,10,14,-33,-23
1,12,3,-7,-1,5,4,8,10,14,-33,-23
0,14,4,-7,-2,7,4,8,10,14,-33,-23
-0,15,5,-7,-3,8,4,8,10,14,-33,-23
-1,17,6,-7,-4,9,4,8,10,14,-33,-23
-2,18,7,-6,-5,10,4,8,10,14,-33,-23
-3,18,8,-6,-6,10,4,8,10,14,-33,-23
-3,19,9,-5,-7,11,4,8,10,14,-33,-23
-4,19,9,-4,-7,12,4,8,10,14,-33,-23
-5,18,9,-4,-8,11,4,8,10,14,-33,-23
-5,16,9,-2,-7,11,4,8,10,14,-33,-23
-5,15,9,-2,-7,10,4,8,9,14,-33,-23
-5,13,8,-1,-7,9,4,7,9,14,-33,-23
-5,12,7,-1,-6,9,4,7,9,14,-33,-23
-4,12,7,-1,-6,8,4,7,9,14,-33,-23
-3,11,6,-2,-5,7,4,7,8,14,-33,-23
-3,11,6,-2,-4,7,4,7,8,14,-33,-23
-2,12,5,-4,-4,7,4,7,8,14,-33,-23
-1,14,5,-5,-4,7,4,7,8,14,-33,-23
-0,15,5,-7,-3,8,4,7,8,14,-33,-23
0,17,5,-9,-3,8,4,7,8,14,-33,-23
1,18,5,-10,-3,8,4,7,8,14,-33,-23
1,18,5,-10,-3,8,4,7,8,14,-33,-23
1,19,5,-10,-2,9,4,7,8,14,-33,-23
1,19,5,-10,-2,9,4,7,8,14,-33,-23
1,19,5,-10,-2,9,4,7,8,14,-33,-23
1,19,5,-10,-2,9,4,7,8,14,-33,-23
1,19,5,-10,-2,9,4,7,8,14,-33,-23
1,19,5,-10,-2,9,4,7,8,14,-33,-23
1,19,5,-10,-2,9,4,7,8,14,-33,-23
1,19,5,-10,-2,9,4,7,8,14,-33,-23
1,19,5,-10,-2,9,4,7,8,14,-33,-23
1,19,5,-10,-2,9,4,7,8,14,-33,-23
1,18,5,-10,-2,8,4,7,8,14,-33,-23
1,16,4,-9,-2,7,3,6,8,14,-33,-23
1,15,4,-9,-2,7,3,6,8,14,-33,-23
1,13,3,-8,-1,6,2,6,7,14,-33,-23
1,12,3,-7,-2,5,2,6,7,14,-33,-23
-0,12,4,-5,-3,6,2,5,7,14,-33,-23
-2,11,5,-3,-4,7,2,5,7,14,-33,-23
-3,11,6,-2,-5,7,2,5,7,14,-33,-23
-4,11,7,-1,-6,8,1,5,7,14,-33,-23
-3,11,6,-2,-5,7,1,5,7,13,-33,-23
-2,11,5,-4,-4,7,0,5,7,12,-33,-23
-0,11,4,-5,-2,6,-0,5,7,10,-33,-23
1,11,3,-6,-1,5,-1,5,6,10,-33,-23
1,11,3,-7,-1,5,-2,5,6,9,-33,-23
1,11,3,-7,-1,5,-2,5,6,9,-33,-23
1,11,3,-7,-1,5,-3,4,5,9,-33,-23
1,11,3,-7,-1,5,-3,4,5,9,-33,-23
1,11,3,-7,-1,5,-3,4,5,9,-33,-23
1,11,3,-7,-1,5,-4,4,5,9,-33,-23
1,11,3,-7,-1,5,-4,4,5,9,-33,-23
1,11,3,-7,-1,5,-4,4,5,9,-33,-23
1,11,3,-7,-1,5,-4,4,5,9,-33,-23
1,11,3,-7,-1,5,-4,4,5,9,-33,-23
1,11,3,-7,-1,5,-4,4,5,9,-33,-23
2,11,3,-7,-1,5,-4,4,5,9,-33,-23
2,11,2,-8,-0,4,-4,4,5,9,-33,-23
3,11,2,-9,0,4,-4,4,5,9,-33,-23
4,11,1,-9,1,3,-4,4,5,9,-33,-23
4,11,1,-10,2,3,-4,4,5,9,-33,-23
4,11,0,-10,2,3,-4,3,5,9,-33,-23
4,11,0,-10,2,3,-4,3,5,9,-33,-23
4,11,0,-10,2,3,-4,3,5,9,-33,-23
4,11,0,-10,2,3,-4,3,5,9,-33,-23
4,11,0,-10,2,3,-4,2,5,9,-33,-23
4,11,0,-10,2,3,-4,2,5,9,-33,-23
4,11,0,-10,2,3,-4,2,5,9,-33,-23
4,11,0,-10,2,3,-4,2,5,9,-33,-23
4,11,0,-10,2,3,-4,2,5,9,-33,-23
4,11,0,-10,2,3,-4,2,5,9,-33,-23
4,11,0,-10,2,3,-4,2,5,9,-33,-23
4,11,0,-10,2,3,-4,2,5,9,-33,-23
4,11,0,-10,2,3,-4,2,4,7,-33,-23
4,11,0,-10,2,3,-4,2,4,6,-33,-23
4,11,0,-10,2,3,-4,1,4,5,-33,-23
4,11,0,-10,2,3,-4,1,3,4,-33,-23
4,11,0,-10,2,3,-4,1,3,4,-33,-23
4,11,0,-10,2,3,-4,1,3,4,-33,-23
4,11,0,-10,2,3,-4,1,3,4,-33,-23
4,11,0,-10,2,3,-4,1,3,4,-33,-23
4,11,0,-10,2,3,-4,1,3,5,-33,-23
4,11,0,-10,2,3,-4,2,3,6,-33,-23
4,11,0,-10,2,3,-4,2,3,8,-33,-23
4,11,1,-10,2,3,-4,2,3,9,-33,-23
4,11,1,-9,1,4,-4,2,3,9,-33,-23
3,11,2,-9,0,4,-4,2,3,9,-33,-23
2,11,2,-7,-0,4,-4,2,3,9,-33,-23
2,11,3,-7,-1,5,-4,2,3,9,-33,-23
1,11,3,-7,-1,5,-4,2,3,9,-33,-23
1,11,3,-7,-1,5,-4,2,3,9,-33,-23
1,11,3,-7,-1,5,-4,2,3,9,-33,-23
1,11,3,-7,-1,5,-4,2,3,9,-33,-23
1,11,3,-7,-1,5,-4,2,3,9,-33,-23
1,11,3,-7,-1,5,-4,2,3,9,-33,-23
1,11,3,-7,-1,5,-4,1,3,9,-33,-23
2,11,3,-7,-1,5,-4,1,3,9,-33,-23
2,11,2,-8,-0,4,-4,1,3,9,-33,-23
3,11,2,-9,0,4,-4,1,3,9,-33,-23
4,11,1,-9,1,3,-4,1,3,9,-33,-23
4,11,1,-10,2,3,-4,1,3,9,-33,-23
4,11,0,-10,2,3,-4,0,3,7,-33,-23
4,11,0,-10,2,3,-4,0,2,6,-33,-23
4,11,0,-10,2,3,-4,-0,2,5,-33,-23
4,11,0,-10,2,3,-4,-0,1,4,-33,-23
4,11,0,-10,2,3,-4,-1,1,4,-33,-23
4,11,0,-10,2,3,-4,-1,1,4,-33,-23
4,11,0,-10,2,3,-4,-1,1,4,-33,-23
4,11,1,-10,2,3,-4,-1,1,4,-33,-23
4,11,1,-9,1,4,-4,-1,1,5,-33,-23
3,11,2,-9,0,4,-4,-1,1,6,-33,-23
2,11,2,-7,-0,4,-4,-1,1,8,-33,-23
1,11,3,-7,-1,5,-4,-0,1,9,-33,-23
0,11,3,-6,-2,5,-4,-0,2,9,-33,-23
-0,11,4,-5,-2,6,-4,0,2,9,-33,-23
-1,11,5,-4,-3,6,-4,1,3,9,-33,-23
-2,11,5,-4,-4,7,-4,1,3,9,-33,-23
-2,11,5,-4,-4,7,-4,1,3,9,-33,-23
-2,11,5,-3,-4,7,-4,1,3,9,-33,-23
-2,11,5,-3,-4,7,-4,1,3,9,-33,-23
-1,11,5,-4,-3,6,-4,1,3,9,-33,-23
-0,11,4,-5,-2,6,-4,0,3,7,-33,-23
1,11,3,-7,-1,5,-4,0,2,6,-33,-23
3,11,2,-9,0,4,-4,-0,2,5,-33,-23
4,11,1,-10,1,3,-4,-0,1,4,-33,-23
4,11,0,-10,2,3,-4,-1,1,4,-33,-23
4,11,0,-10,2,3,-4,-1,1,4,-33,-23
4,11,0,-10,2,3,-4,-1,1,4,-33,-23
4,11,0,-10,2,3,-4,-1,1,4,-33,-23
4,11,0,-10,2,3,-4,-1,1,5,-33,-23
4,11,0,-10,2,3,-4,-1,1,6,-33,-23
4,11,0,-10,2,3,-4,-1,1,8,-33,-23
4,12,1,-11,2,3,-3,-0,1,9,-32,-22
4,14,1,-11,1,4,-3,0,2,9,-29,-19
4,15,2,-12,1,5,-2,1,2,9,-27,-17
4,17,2,-13,1,6,-2,2,3,9,-25,-13
4,18,3,-13,1,6,-1,2,3,9,-23,-11
4,18,3,-13,0,7,-1,2,3,9,-23,-11
4,19,3,-14,0,7,-1,2,3,9,-22,-10
4,19,3,-14,0,7,-1,2,3,9,-22,-10
4,19,3,-14,0,7,-1,2,3,9,-22,-10
4,19,3,-14,0,7,-1,2,3,9,-22,-10
3,22,5,-15,-1,9,3,3,4,13,-16,-5
2,27,7,-15,-4,12,8,5,5,17,-8,3
1,29,8,-16,-4,13,9,5,5,19,-5,5
1,29,9,-16,-5,14,10,5,5,19,-4,6
0,30,9,-15,-5,14,10,5,5,20,-3,9
2,32,9,-17,-5,15,10,6,6,21,-1,14
4,33,7,-21,-2,14,9,6,6,21,-1,19
5,34,7,-22,-2,14,9,6,6,21,-2,21
5,35,7,-23,-2,14,9,6,6,21,-9,15
5,35,8,-22,-3,15,9,6,6,22,-16,8
5,35,8,-23,-2,14,10,6,7,22,-17,7
7,35,7,-24,-1,14,9,6,6,21,-19,-1
8,35,5,-26,1,13,8,6,6,21,-18,-11
10,35,4,-28,2,12,8,6,6,22,-11,-13
11,34,3,-28,3,11,7,6,6,22,-4,-7
11,34,3,-28,3,10,4,6,6,21,-3,0
11,33,3,-28,3,10,2,5,6,19,-1,13
10,33,3,-28,3,10,-1,5,6,17,-2,27
10,33,3,-27,3,11,-4,4,6,16,-8,27
10,32,3,-26,3,10,-6,3,6,15,-16,15
11,30,2,-27,4,9,-8,2,5,15,-18,7
11,31,2,-27,4,9,-9,1,4,16,-19,-1
10,31,3,-26,3,10,-11,0,4,16,-17,-5
9,29,3,-24,2,9,-11,-1,4,16,-5,5
9,28,3,-23,2,9,-12,-1,4,16,7,17
8,26,2,-22,2,8,-12,-2,4,16,13,24
8,25,2,-21,2,8,-12,-2,4,16,18,32
8,26,3,-21,2,8,-12,-2,3,16,16,36
9,26,2,-22,3,8,-12,-3,3,14,4,26
9,25,2,-22,3,7,-13,-4,2,13,-10,14
9,25,1,-22,3,7,-13,-5,1,12,-17,9
10,24,1,-22,4,6,-13,-5,1,12,-22,3
11,24,-0,-23,5,6,-13,-5,1,13,-23,-1
12,24,-1,-24,6,5,-13,-5,1,14,-14,5
11,24,-0,-24,5,6,-13,-5,1,15,-5,15
10,24,0,-22,4,6,-12,-4,2,16,-1,19
10,24,1,-22,4,6,-12,-4,2,17,3,24
10,24,0,-22,4,6,-12,-4,2,17,3,27
10,24,0,-23,4,6,-11,-4,2,17,-3,22
10,23,-0,-23,5,6,-11,-4,2,17,-12,15
12,22,-2,-23,6,4,-10,-4,2,16,-19,9
12,19,-3,-22,7,3,-10,-4,1,16,-25,-3
12,18,-3,-21,7,2,-10,-3,1,16,-28,-10
11,16,-3,-20,7,2,-9,-3,1,15,-23,-7
10,15,-3,-19,6,2,-8,-3,1,15,-15,-2
10,16,-2,-19,6,3,-8,-3,1,14,-12,-1
9,15,-2,-18,5,2,-7,-3,1,14,-10,5
9,13,-2,-15,5,2,-7,-3,1,14,-10,9
8,10,-3,-13,5,0,-7,-3,1,13,-20,2
8,6,-4,-12,6,-2,-7,-3,0,12,-31,-9
7,1,-5,-8,6,-4,-6,-3,-0,10,-36,-15
6,-3,-5,-5,6,-5,-6,-3,-1,10,-39,-21
4,-4,-4,-3,5,-4,-6,-3,-1,10,-39,-25
3,-5,-4,-1,4,-4,-5,-3,-1,10,-33,-19
3,-6,-4,0,4,-5,-5,-3,-2,10,-26,-14
3,-7,-4,0,4,-5,-5,-3,-2,10,-23,-13
3,-7,-5,0,4,-5,-5,-3,-2,10,-20,-9
4,-7,-5,-1,5,-5,-5,-3,-2,10,-20,-5
4,-6,-5,-2,5,-5,-6,-3,-2,10,-28,-14
5,-5,-5,-3,6,-5,-6,-3,-2,10,-39,-26
5,-5,-6,-3,6,-6,-6,-3,-3,10,-46,-31
5,-6,-6,-2,6,-6,-7,-4,-3,9,-50,-37
5,-7,-6,-1,6,-6,-8,-4,-3,8,-52,-41
4,-8,-6,-1,6,-7,-7,-5,-4,6,-46,-36
5,-8,-6,-1,6,-7,-6,-5,-3,3,-37,-27
5,-7,-6,-2,6,-7,-6,-5,-3,-1,-34,-23
6,-7,-7,-3,7,-7,-6,-5,-3,-3,-31,-20
6,-9,-7,-2,7,-8,-7,-5,-4,-5,-29,-19
6,-10,-8,-1,7,-8,-8,-5,-4,-6,-38,-27
5,-10,-7,-1,6,-7,-9,-5,-5,-6,-45,-36
4,-9,-6,0,5,-6,-8,-5,-5,-6,-47,-37
4,-9,-6,0,5,-6,-8,-5,-5,-6,-47,-37
4,-9,-6,0,5,-6,-8,-5,-5,-6,-47,-37
4,-9,-6,0,5,-6,-8,-5,-5,-6,-47,-37
4,-9,-6,0,5,-6,-8,-5,-5,-6,-47,-37
4,-9,-6,0,5,-6,-8,-5,-5,-6,-47,-37
4,-9,-6,0,5,-6,-8,-5,-5,-6,-47,-37
-383,255,370,300,-391,342,218,167,195,299,253,341
-58,13,48,58,-54,39,27,15,12,52,10,6
-7,-1,5,8,-6,3,-0,-6,-4,12,-39,-37
-0,-1,-0,1,0,-1,0,-8,-7,1,-39,-31
4,-3,-4,-2,4,-4,-2,-13,-10,1,-31,-24
5,-3,-5,-4,5,-5,-3,-17,-14,-4,-33,-34
-4,-11,-0,10,-2,-3,-5,-22,-16,-4,-33,-47
-5,-12,-0,12,-2,-3,-7,-29,-20,-10,-28,-17
2,-12,-6,4,4,-7,-11,-40,-26,-10,-33,-27
2,-12,-6,4,4,-7,-16,-52,-33,-10,-28,-21
-7,-12,1,14,-3,-2,-22,-67,-40,4,-6,9
-10,-9,5,15,-7,1,-34,-85,-43,10,4,42
4,2,-3,-6,4,-1,-44,-99,-55,9,-1,36
21,4,-14,-24,18,-10,-52,-115,-70,5,10,36
26,4,-18,-31,23,-13,-62,-131,-80,2,20,49
31,6,-21,-37,26,-14,-74,-148,-92,5,36,56
37,8,-25,-44,31,-17,-87,-161,-104,8,53,56
39,4,-28,-45,34,-20,-93,-175,-114,2,74,92
40,11,-26,-49,33,-17,-97,-191,-127,1,85,102
45,15,-28,-56,37,-18,-110,-211,-143,-6,87,109
33,15,-19,-43,26,-11,-121,-228,-155,-11,101,129
33,15,-20,-44,27,-11,-133,-243,-166,-19,101,149
38,21,-22,-52,30,-11,-150,-254,-179,-28,98,132
41,13,-27,-52,34,-17,-161,-259,-189,-39,109,145
50,4,-36,-57,44,-26,-177,-269,-202,-51,114,149
57,0,-42,-62,51,-32,-199,-283,-215,-60,114,149
61,-11,-49,-62,56,-39,-215,-293,-230,-76,138,149
62,-25,-55,-56,61,-48,-232,-303,-242,-99,117,165
64,-33,-58,-55,63,-52,-246,-310,-251,-116,117,155
70,-40,-65,-57,70,-59,-259,-311,-253,-125,125,169
74,-34,-67,-65,73,-59,-268,-308,-251,-131,138,189
73,-22,-61,-70,69,-52,-266,-302,-245,-132,149,205
58,-22,-51,-54,56,-43,-259,-292,-239,-132,149,195
62,-14,-51,-62,58,-42,-250,-280,-229,-125,160,208
65,-7,-51,-69,60,-40,-242,-268,-218,-120,165,215
79,2,-58,-88,70,-43,-235,-256,-207,-107,173,218
82,10,-58,-94,71,-41,-231,-246,-199,-89,186,235
86,24,-57,-107,72,-37,-223,-235,-191,-76,203,265
89,22,-59,-109,75,-39,-218,-225,-181,-63,208,268
89,15,-61,-105,76,-43,-209,-216,-175,-56,208,275
84,8,-60,-96,73,-43,-201,-207,-171,-56,208,275
82,-1,-62,-90,74,-47,-193,-200,-166,-53,216,275
81,-10,-64,-84,75,-51,-183,-190,-163,-53,196,253
81,-26,-69,-77,78,-59,-175,-181,-161,-61,181,234
81,-43,-75,-69,81,-67,-167,-172,-160,-72,164,212
82,-58,-80,-62,84,-75,-160,-163,-157,-82,150,191
81,-72,-84,-55,87,-81,-152,-154,-153,-91,142,179
80,-85,-87,-47,88,-87,-143,-144,-147,-101,133,167
79,-96,-90,-40,89,-92,-134,-133,-140,-109,121,150
80,-104,-94,-37,91,-96,-125,-123,-132,-114,110,138
80,-111,-96,-35,93,-100,-117,-113,-124,-117,100,129
81,-116,-98,-33,95,-103,-109,-103,-116,-118,85,117
82,-117,-99,-33,96,-104,-103,-94,-107,-115,71,105
82,-117,-99,-34,96,-104,-96,-84,-98,-110,61,98
81,-117,-99,-33,95,-103,-88,-74,-88,-104,52,85
80,-116,-98,-32,94,-102,-79,-65,-80,-99,43,70
78,-115,-96,-31,92,-101,-69,-55,-72,-94,40,60
74,-115,-93,-27,89,-99,-59,-47,-66,-92,34,50
70,-112,-89,-23,85,-95,-51,-40,-60,-91,23,35
67,-107,-85,-22,80,-90,-43,-34,-54,-88,16,27
63,-99,-80,-22,76,-84,-37,-29,-49,-85,11,21
60,-88,-73,-23,71,-77,-31,-24,-44,-82,1,10
56,-77,-67,-24,65,-69,-27,-20,-39,-79,-10,0
51,-67,-60,-23,58,-61,-22,-15,-34,-75,-16,-7
43,-56,-51,-21,50,-52,-16,-10,-28,-69,-22,-13
37,-44,-42,-20,42,-43,-10,-4,-23,-62,-26,-22
33,-36,-36,-18,36,-36,-6,0,-17,-55,-23,-22
27,-29,-30,-16,30,-30,-1,4,-12,-46,-18,-13
23,-21,-24,-15,24,-23,3,8,-7,-38,-16,-5
18,-16,-19,-12,19,-18,7,11,-3,-30,-14,6
14,-13,-14,-9,15,-14,11,13,0,-24,-13,11
9,-11,-11,-5,11,-10,14,16,3,-19,-21,-2
6,-9,-7,-1,7,-8,16,18,6,-14,-33,-19
1,-9,-4,3,3,-5,19,21,9,-10,-39,-31
-2,-8,-1,7,-0,-3,21,23,12,-6,-44,-43
-5,-8,1,9,-3,-1,22,26,13,-4,-49,-52
-6,-6,2,10,-4,0,24,27,14,-2,-46,-49
-7,-5,3,10,-5,1,25,28,16,-1,-41,-46
-7,-5,4,10,-5,2,25,29,16,-1,-41,-48
-6,-4,3,9,-5,2,26,29,15,-1,-41,-47
-5,-3,3,7,-4,2,26,29,15,-1,-41,-44
-5,-1,3,6,-4,2,27,29,16,-1,-47,-49
-4,1,4,4,-4,3,27,30,16,-1,-54,-54
-6,2,5,5,-5,4,28,30,16,1,-54,-53
-7,1,6,7,-6,5,28,31,17,1,-58,-58
-7,1,5,7,-6,4,29,31,17,1,-61,-64
-7,3,6,6,-6,5,29,32,18,1,-55,-59
-7,5,7,5,-7,7,30,33,18,2,-49,-52
-8,8,8,5,-8,8,31,33,19,2,-46,-49
-8,10,9,4,-9,9,32,34,19,3,-43,-44
-9,11,10,4,-10,10,33,35,19,3,-42,-37
-9,12,11,5,-11,11,34,35,20,4,-47,-38
-10,13,11,5,-11,12,35,36,20,5,-51,-41
-10,13,12,5,-11,12,35,36,20,5,-51,-41
-9,13,11,4,-11,12,35,36,20,4,-53,-44
-9,13,11,4,-11,12,35,37,21,4,-56,-50
-10,11,11,5,-11,11,35,37,21,3,-51,-46
-11,9,11,8,-11,10,34,37,21,3,-46,-43
-10,9,11,7,-11,10,34,37,21,3,-46,-44
-9,9,10,6,-10,10,34,37,21,3,-44,-41
-10,7,10,8,-11,9,34,38,22,4,-42,-36
-12,6,11,10,-11,9,34,38,22,4,-47,-37
-10,5,9,9,-10,8,34,38,22,3,-54,-44
-8,4,8,7,-8,7,33,38,22,3,-57,-50
-8,3,7,7,-7,6,33,39,22,3,-58,-59
-9,1,7,9,-8,5,34,39,23,3,-59,-65
-10,0,8,11,-9,6,35,40,23,4,-53,-60
-11,1,9,12,-10,7,36,40,23,4,-47,-56
-10,2,8,10,-9,7,36,40,23,4,-46,-56
-9,3,7,9,-8,6,36,40,23,4,-45,-55
-10,3,8,10,-9,7,36,40,23,4,-44,-54
-13,3,11,13,-12,9,37,40,23,4,-49,-58
-16,3,13,16,-14,10,37,41,23,4,-54,-60
-18,3,14,19,-16,11,38,41,24,5,-55,-59
-19,3,16,20,-18,12,38,42,25,5,-57,-62
-19,5,16,18,-18,13,39,42,25,6,-59,-65
-17,7,15,16,-17,13,39,43,25,6,-54,-62
-16,10,15,13,-16,14,39,43,26,6,-49,-59
-15,12,15,11,-16,15,39,44,26,6,-49,-62
-15,12,15,10,-15,14,40,45,27,5,-48,-59
-14,12,15,10,-15,14,40,45,27,4,-47,-55
-15,11,15,11,-16,14,40,46,28,3,-50,-56
-15,11,15,11,-16,14,41,47,28,4,-55,-58
-15,11,15,11,-15,14,41,47,29,3,-57,-62
-14,11,14,10,-15,14,41,47,29,2,-61,-67
-14,12,14,10,-15,14,41,48,29,2,-63,-71
-15,14,16,10,-16,15,42,49,30,5,-57,-67
-17,15,18,12,-18,17,43,50,31,7,-48,-60
-18,17,19,12,-19,18,43,51,32,9,-46,-58
-17,19,19,10,-18,19,43,52,32,10,-46,-54
-14,20,17,6,-17,18,43,53,33,11,-48,-54
-12,20,15,4,-14,17,42,53,33,11,-57,-60
-10,21,14,1,-13,16,42,54,33,10,-70,-66
-9,21,14,0,-12,15,43,54,33,11,-77,-68
-10,21,14,1,-13,16,43,55,34,11,-81,-72
-9,21,14,0,-13,16,43,55,35,10,-81,-75
-9,22,14,-1,-12,16,44,56,35,9,-72,-72
-9,22,14,-0,-13,16,44,57,35,8,-60,-68
-11,23,16,1,-15,18,45,58,36,8,-54,-67
-12,24,16,1,-15,18,45,59,37,8,-51,-64
-12,23,16,2,-15,18,46,59,38,8,-50,-61
-12,23,17,2,-15,18,46,60,38,8,-54,-64
-12,25,17,1,-16,19,47,61,39,9,-59,-68
-13,27,18,1,-17,21,48,62,40,10,-61,-68
-14,30,20,1,-18,23,48,64,41,11,-64,-71
-14,33,21,-1,-19,24,49,65,42,11,-66,-74
-13,34,21,-1,-18,24,49,65,42,11,-61,-72
-13,33,21,-1,-18,24,49,66,43,11,-56,-70
-13,34,21,-2,-18,24,50,66,44,11,-56,-71
-14,35,22,-2,-19,25,51,67,45,11,-54,-68
-14,34,22,-1,-19,25,52,68,46,12,-54,-64
-14,34,22,-0,-19,25,52,69,46,12,-64,-68
-14,33,21,-1,-19,24,52,71,47,13,-75,-71
-13,33,21,-1,-18,24,52,72,47,13,-81,-71
-14,32,21,1,-19,24,53,73,48,14,-86,-76
-15,33,22,0,-20,25,53,74,49,14,-84,-80
-14,34,22,-1,-19,25,54,75,50,14,-74,-78
-14,35,22,-1,-19,25,55,77,51,13,-63,-74
-14,35,22,-1,-20,26,56,78,52,12,-59,-76
-15,34,23,0,-20,26,57,79,53,12,-57,-74
-17,34,24,3,-22,26,59,80,54,13,-55,-69
-19,34,26,5,-24,28,61,82,55,14,-59,-70
-20,35,26,5,-24,28,62,83,56,15,-66,-74
-19,35,26,5,-24,28,63,83,57,15,-69,-76
-19,36,26,4,-24,29,63,84,57,16,-71,-78
-19,37,26,3,-24,29,63,84,58,17,-72,-82
-17,37,25,1,-22,28,63,85,59,16,-68,-79
-16,40,25,-2,-22,28,63,85,59,14,-62,-77
-15,42,25,-4,-21,29,63,85,59,14,-61,-79
-15,44,26,-4,-22,30,64,86,60,14,-58,-75
-16,44,26,-4,-22,30,64,86,60,14,-57,-69
-14,44,25,-5,-21,30,64,87,61,14,-68,-73
-13,45,25,-7,-20,30,64,88,62,15,-79,-76
-13,47,25,-8,-21,30,65,88,62,17,-84,-75
-14,48,26,-7,-22,32,65,89,63,18,-86,-76
-15,48,27,-7,-22,32,66,89,64,20,-83,-76
-14,49,27,-9,-22,32,66,90,64,21,-70,-71
-14,50,27,-9,-22,33,66,90,65,22,-56,-66
-13,51,27,-10,-22,33,66,90,65,22,-51,-66
-12,52,26,-12,-21,32,66,90,65,22,-49,-64
-12,52,26,-12,-21,32,67,89,65,22,-47,-61
-12,53,27,-12,-21,33,67,89,65,23,-51,-64
-12,55,27,-13,-21,34,66,89,66,24,-57,-68
-12,55,27,-13,-22,34,66,88,65,25,-58,-67
-11,55,27,-14,-21,34,64,87,65,24,-62,-69
-10,56,26,-16,-20,33,63,86,64,24,-64,-72
-10,57,26,-16,-20,34,62,85,64,26,-54,-67
-12,57,27,-15,-21,35,61,84,63,28,-40,-60
-13,58,28,-14,-22,36,60,83,63,31,-29,-56
-13,59,29,-15,-23,36,59,82,62,33,-19,-50
-13,59,29,-14,-23,37,58,81,61,35,-14,-43
-12,60,29,-16,-23,37,56,79,60,34,-25,-48
-8,61,26,-21,-19,35,53,77,58,32,-39,-54
-5,61,24,-24,-16,33,51,75,56,32,-44,-53
-5,61,24,-23,-17,33,50,73,55,32,-47,-53
-6,61,24,-23,-17,33,48,70,54,33,-47,-53
-6,60,24,-22,-17,33,47,68,52,33,-38,-46
-6,59,24,-22,-17,33,45,65,51,33,-25,-38
-6,59,24,-22,-17,32,43,63,49,33,-20,-34
-5,58,23,-23,-15,31,40,60,47,33,-17,-27
-5,58,23,-22,-16,31,39,58,46,33,-15,-19
-5,59,23,-22,-16,32,37,55,45,33,-20,-17
-4,59,23,-23,-15,32,36,53,43,33,-25,-16
-4,58,22,-23,-15,31,34,50,42,32,-23,-12
-3,57,21,-24,-14,30,33,48,40,31,-23,-13
-2,55,20,-24,-13,29,31,45,39,31,-26,-15
-1,54,18,-26,-11,27,29,43,36,30,-20,-13
1,54,17,-27,-10,26,27,40,34,28,-12,-9
1,52,16,-27,-9,25,25,38,33,27,-7,-6
2,50,15,-26,-8,24,24,36,31,26,-4,0
2,48,14,-26,-7,22,23,34,29,25,-2,7
3,45,13,-25,-6,21,21,31,27,24,-8,2
4,44,11,-26,-5,19,19,29,25,24,-16,-4
6,42,9,-27,-3,18,18,27,23,24,-16,-5
7,40,8,-27,-2,16,17,25,21,24,-19,-7
7,38,7,-26,-1,15,15,23,20,25,-19,-8
7,37,7,-25,-1,14,15,22,19,26,-10,1
6,35,7,-24,-1,14,14,20,18,26,1,10
6,34,6,-23,-1,13,13,19,17,25,5,12
6,32,6,-22,-0,12,12,17,16,24,9,15
6,29,5,-21,-0,11,11,16,15,22,10,18
5,28,5,-20,-1,11,11,15,14,22,2,14
5,27,5,-18,-1,10,10,14,14,21,-5,8
5,25,5,-17,-1,9,9,13,13,21,-8,4
4,22,4,-16,-0,9,9,12,12,20,-12,-4
4,21,4,-15,-0,8,8,11,11,20,-15,-10
4,21,3,-15,0,8,8,11,11,20,-16,-12
4,21,3,-15,0,8,8,10,11,20,-17,-13
4,21,3,-15,0,8,8,10,11,20,-17,-13
4,21,3,-15,0,8,8,10,11,20,-17,-13
4,21,3,-15,0,8,8,10,11,20,-17,-13
5,17,2,-14,1,5,7,9,10,18,-11,-8
6,12,-1,-13,3,2,6,6,8,15,-4,-1
7,10,-2,-12,4,1,5,6,7,15,-2,2
7,10,-2,-12,4,1,5,6,7,14,-1,3
7,9,-2,-11,4,1,5,5,7,14,-1,3
6,8,-2,-10,4,1,6,5,7,14,-1,3
5,6,-2,-9,4,0,6,5,7,14,-1,3
5,4,-2,-7,4,-1,7,5,7,14,-1,3
5,3,-3,-6,4,-1,7,5,7,14,-1,3
4,1,-3,-5,4,-2,7,5,7,14,-1,3
4,-1,-4,-4,4,-3,7,5,7,14,-1,3
4,-2,-4,-4,5,-4,7,5,7,14,-2,3
4,-3,-4,-4,5,-4,6,5,7,14,-4,3
4,-3,-4,-3,5,-4,6,5,7,14,-6,3
4,-3,-4,-3,5,-4,5,5,7,14,-9,3
4,-2,-4,-4,5,-4,5,5,7,14,-10,3
4,-1,-4,-4,4,-3,4,5,7,14,-11,3
4,1,-3,-5,4,-2,4,5,7,14,-11,3
4,3,-3,-6,4,-1,4,5,7,14,-11,3
4,4,-2,-6,3,-1,5,6,7,14,-10,3
4,4,-2,-7,3,-1,5,6,7,14,-8,3
4,4,-2,-7,3,-1,6,6,7,14,-6,3
4,4,-2,-7,3,-1,6,7,7,14,-3,3
4,4,-2,-6,3,-1,7,7,7,14,-2,2
4,2,-3,-6,4,-1,7,7,7,14,-1,-1
4,1,-3,-5,4,-2,7,7,7,14,-1,-3
4,-1,-4,-4,4,-3,7,7,7,14,-1,-7
4,-2,-4,-4,5,-4,7,7,7,14,-2,-9
4,-3,-4,-4,5,-4,7,7,7,14,-4,-9
4,-3,-4,-3,5,-4,7,7,7,14,-6,-10
4,-3,-4,-3,5,-4,7,7,7,14,-9,-10
4,-2,-4,-4,5,-4,7,7,7,14,-10,-10
4,-1,-4,-4,4,-3,7,7,7,13,-11,-10
4,1,-3,-5,4,-2,7,7,7,12,-11,-10
4,3,-3,-6,4,-1,7,7,7,10,-11,-10
4,4,-2,-6,3,-1,7,7,7,10,-11,-10
4,4,-1,-6,2,0,8,7,7,9,-11,-10
3,4,-1,-5,2,0,8,8,8,9,-11,-10
2,4,-0,-4,1,1,9,8,8,9,-11,-10
2,4,0,-3,1,1,9,8,8,9,-11,-10
1,2,-0,-2,1,0,9,8,8,9,-11,-10
1,1,-1,-1,1,-0,10,8,8,9,-11,-10
1,-1,-1,-1,1,-1,10,8,8,9,-11,-10
1,-2,-2,0,2,-2,10,9,9,9,-11,-10
1,-3,-2,0,2,-2,10,9,9,9,-11,-10
1,-3,-2,0,2,-2,10,9,9,9,-11,-10
1,-3,-2,0,2,-2,10,10,10,9,-11,-10
1,-3,-2,0,2,-2,10,10,10,9,-11,-10
1,-3,-2,0,2,-2,10,10,10,9,-11,-10
1,-3,-2,0,2,-2,10,10,10,9,-11,-10
1,-3,-2,0,2,-2,10,10,10,9,-11,-10
1,-3,-2,0,2,-2,10,10,10,9,-11,-10
1,-3,-2,0,2,-2,10,10,10,9,-11,-10
1,-3,-2,0,2,-2,10,10,10,9,-11,-10
1,-3,-2,0,2,-2,10,10,10,9,-11,-10
1,-3,-2,0,2,-2,10,10,10,9,-11,-10
1,-3,-2,0,2,-2,10,10,10,9,-11,-10
1,-3,-2,0,2,-2,11,11,10,9,-11,-10
1,-3,-2,0,2,-2,12,11,10,9,-11,-10
1,-3,-2,0,2,-2,12,11,10,9,-11,-10
1,-3,-2,0,2,-2,12,11,11,9,-11,-10
1,-3,-2,0,2,-2,12,12,11,9,-11,-10
1,-3,-2,0,2,-2,12,12,12,9,-11,-10
1,-3,-2,0,2,-2,12,12,12,9,-11,-11
1,-3,-2,0,2,-2,12,12,12,9,-11,-14
1,-3,-2,0,2,-2,12,12,12,9,-11,-17
1,-3,-2,0,2,-2,12,12,12,9,-11,-20
1,-3,-2,1,2,-2,12,12,12,9,-11,-22
0,-3,-1,1,1,-2,12,12,12,9,-11,-23
-0,-3,-1,2,0,-1,12,12,12,9,-11,-23
-1,-3,-0,3,-0,-1,12,12,12,9,-11,-23
-2,-3,0,4,-1,-1,12,12,12,9,-11,-23
-2,-3,0,4,-1,-0,12,12,12,9,-11,-23
-2,-3,0,4,-1,-0,12,12,12,9,-11,-23
-2,-3,0,4,-1,-0,12,12,12,9,-11,-23
-2,-3,0,4,-1,-0,12,12,12,9,-11,-23
-2,-3,0,4,-1,-0,12,12,12,9,-11,-23
-2,-3,0,4,-1,-0,12,12,12,9,-11,-23
-2,-3,0,4,-1,-0,12,12,12,9,-11,-23
-3,-3,1,5,-2,0,12,12,12,9,-11,-23
-4,-3,2,7,-3,1,12,12,12,9,-11,-23
-7,-3,4,9,-5,2,12,12,12,9,-11,-23
-9,-3,6,11,-7,4,12,12,12,9,-11,-23
-10,-3,7,13,-8,4,12,11,12,9,-11,-23
-9,-3,6,12,-8,4,12,11,12,9,-11,-23
-8,-3,5,10,-6,3,12,11,11,9,-11,-23
-7,-3,4,9,-5,2,12,10,11,9,-11,-23
-5,-3,3,7,-4,1,12,10,10,9,-11,-23
-3,-3,2,5,-2,1,12,10,10,9,-11,-23
-2,-3,0,4,-1,-0,12,10,10,9,-11,-23
-0,-3,-1,2,0,-1,12,10,10,9,-11,-23
1,-2,-1,0,1,-1,12,10,10,9,-11,-22
1,-1,-1,-1,1,-1,12,10,10,9,-11,-19
1,1,-1,-1,1,-0,12,10,10,9,-11,-17
1,3,-0,-2,1,1,12,10,10,9,-11,-13
1,4,1,-2,0,2,12,10,10,10,-11,-11
-0,6,2,-2,-2,3,13,10,11,11,-11,-11
-2,8,4,-1,-3,5,14,10,11,12,-11,-10
-3,10,6,-1,-5,7,14,10,12,13,-11,-10
-4,12,7,-1,-6,8,15,10,12,14,-10,-9
-3,15,7,-4,-6,9,16,10,12,14,-8,-6
-2,19,7,-7,-5,10,16,10,12,14,-6,-3
-0,22,8,-10,-5,11,17,10,12,14,-3,0
1,25,8,-13,-4,12,18,10,12,15,-2,2
1,26,8,-13,-4,12,18,10,13,16,-1,3
1,26,8,-14,-4,12,19,11,13,17,-1,3
1,26,8,-14,-4,12,19,11,13,18,-1,3
1,26,8,-14,-4,12,20,11,14,20,1,5
1,26,8,-14,-4,12,21,11,14,21,3,7
1,26,8,-14,-4,12,21,12,14,22,5,10
1,26,8,-14,-4,12,22,12,14,24,8,13
1,26,8,-14,-4,12,23,12,14,24,10,16
1,26,8,-14,-4,12,23,12,14,25,12,19
1,26,8,-14,-4,12,23,12,14,25,15,23
1,26,8,-14,-4,12,23,12,14,25,18,26
2,26,7,-15,-3,12,23,12,14,25,19,28
3,26,6,-16,-2,11,22,12,14,25,20,29
4,26,5,-17,-1,10,21,12,14,25,20,29
6,26,4,-19,0,9,21,12,14,25,20,29
7,26,3,-21,2,9,19,11,14,25,20,29
8,26,2,-22,2,8,17,11,14,25,20,29
9,26,2,-23,3,8,15,10,14,25,20,29
10,26,1,-23,4,7,12,9,14,25,20,29
11,25,0,-24,5,7,9,8,14,24,20,29
11,24,-0,-23,5,6,6,8,13,23,20,29
11,22,-1,-23,5,5,3,7,12,22,20,29
11,21,-1,-22,6,4,-0,6,11,21,20,29
11,19,-2,-21,6,4,-3,5,10,20,21,29
10,19,-1,-20,5,4,-4,5,10,20,24,29
9,19,-1,-19,5,4,-5,4,9,20,26,29
9,19,-0,-18,4,4,-6,3,9,20,28,29
8,19,0,-17,3,5,-6,3,9,20,30,31
7,19,1,-16,3,5,-6,2,9,20,31,33
6,19,2,-16,2,6,-6,2,8,20,31,36
5,19,2,-15,1,6,-6,1,8,20,31,39
5,18,2,-14,1,6,-6,1,8,20,31,41
5,16,2,-13,1,5,-5,1,8,20,31,42
4,15,2,-12,1,5,-5,0,8,20,31,42
4,13,1,-11,1,4,-4,-0,7,20,31,42
5,12,0,-11,2,3,-4,-0,7,20,31,42
5,12,-0,-11,3,3,-4,-1,7,20,31,42
6,11,-1,-12,3,2,-4,-1,7,20,31,42
7,11,-1,-13,4,2,-4,-1,7,20,31,42
7,11,-2,-13,4,1,-4,-1,7,19,30,41
8,11,-2,-13,5,1,-4,-1,7,18,28,39
8,11,-2,-14,5,1,-4,-1,7,17,26,36
8,11,-2,-14,5,1,-4,-1,7,16,23,33
8,10,-2,-13,5,1,-3,-0,7,15,20,28
8,7,-3,-12,5,-1,-2,-0,7,15,18,22
8,4,-4,-10,6,-2,-1,0,7,14,15,16
8,1,-6,-9,7,-4,0,1,7,14,12,10
7,-2,-6,-7,7,-5,1,1,7,14,10,5
7,-4,-6,-5,7,-6,2,1,7,14,8,4
6,-7,-7,-3,7,-7,3,2,7,14,5,3
5,-8,-7,-1,6,-7,4,2,7,14,2,3
4,-10,-7,0,6,-8,4,2,6,14,1,3
4,-12,-7,2,6,-8,5,2,6,13,0,3
3,-14,-7,4,5,-9,6,2,6,12,-1,3
2,-16,-7,6,5,-9,6,2,5,10,-1,3
1,-17,-6,7,5,-9,7,2,5,9,-1,3
0,-17,-6,8,4,-9,7,2,5,8,-1,3
-0,-18,-6,9,3,-9,7,2,5,6,-1,3
-1,-18,-5,10,3,-8,7,1,5,5,-1,3
-2,-18,-4,11,2,-7,7,1,5,4,-1,2
-4,-18,-3,13,0,-7,7,1,5,4,-1,-1
-5,-18,-2,14,-1,-6,7,1,5,4,-1,-3
-7,-18,-1,16,-2,-5,7,1,5,4,-1,-7
-7,-18,-0,17,-3,-5,7,1,5,4,-2,-9
-6,-18,-1,16,-2,-5,6,0,5,4,-4,-9
-5,-18,-2,14,-1,-6,6,0,5,4,-6,-10
-3,-18,-3,12,1,-7,5,-0,5,4,-9,-10
-2,-18,-4,12,2,-8,5,-0,5,4,-10,-11
-2,-20,-5,12,2,-9,4,-1,4,4,-11,-14
-2,-21,-6,13,3,-9,4,-1,4,4,-11,-17
-2,-23,-6,13,3,-10,4,-1,4,4,-11,-20
-2,-24,-6,14,3,-11,4,-1,3,3,-11,-22
-2,-25,-7,14,3,-11,4,-1,3,2,-11,-23
-2,-25,-7,15,3,-11,4,-1,3,1,-11,-23
-2,-25,-7,15,3,-11,4,-1,3,0,-11,-23
-2,-25,-7,15,3,-11,4,-1,3,-1,-11,-22
-2,-25,-7,15,3,-11,4,-1,3,-1,-11,-19
-2,-25,-7,15,3,-11,4,-1,3,-1,-11,-17
-2,-25,-7,15,3,-11,4,-1,3,-1,-11,-13
-2,-25,-7,15,3,-11,5,-1,3,-1,-11,-11
-2,-25,-7,15,3,-11,5,-1,3,-1,-11,-11
-2,-25,-7,15,3,-11,6,-1,3,-1,-11,-10
-2,-25,-7,15,3,-11,6,-1,3,-1,-11,-10
-2,-25,-7,15,3,-11,6,-1,3,-1,-11,-10
-2,-25,-7,15,3,-11,6,-1,3,-1,-11,-10
-2,-25,-7,15,3,-11,6,-1,3,-1,-11,-10
-2,-25,-7,15,3,-11,6,-1,3,-1,-11,-10
-2,-25,-7,15,3,-11,6,-1,3,-1,-11,-10
-4,-25,-5,17,1,-10,6,-0,3,1,-5,-9
-8,-25,-2,21,-2,-8,7,-0,4,5,3,-7
-9,-25,-1,22,-3,-7,7,-0,4,6,6,-7
-10,-25,-1,23,-4,-7,7,-0,4,6,7,-7
-10,-25,-1,23,-4,-7,7,-0,4,6,9,-7
-8,-25,-2,21,-2,-8,5,-1,3,6,12,-7
-4,-25,-6,16,2,-10,4,-1,3,5,16,-5
-1,-24,-7,13,4,-11,4,-2,3,5,16,-4
-1,-23,-7,13,4,-11,4,-2,3,4,3,-11
-2,-23,-6,13,3,-10,4,-1,3,3,-11,-18
-2,-23,-6,13,3,-10,5,-1,3,2,-20,-17
-2,-23,-6,13,3,-10,5,-1,3,1,-26,-20
-2,-23,-6,14,3,-10,5,-1,3,0,-25,-25
-3,-23,-6,15,2,-10,6,-1,3,1,-16,-19
-4,-24,-5,16,1,-9,7,-1,3,1,-6,-13
-5,-25,-5,17,1,-9,7,-1,3,1,-3,-12
-5,-25,-5,18,1,-10,8,-1,3,1,-2,-7
-5,-25,-4,18,0,-9,8,-1,3,0,-2,-3
-6,-25,-4,18,0,-9,8,-1,3,0,-8,-7
-6,-27,-4,20,0,-10,8,-1,3,-1,-16,-16
-5,-28,-5,19,1,-11,8,-1,3,0,-18,-19
-5,-27,-5,19,1,-10,8,-1,3,3,-19,-21
-6,-27,-4,20,-0,-10,7,-1,4,5,-18,-23
-6,-27,-4,20,-0,-10,7,-0,4,5,-9,-17
-6,-27,-5,20,0,-10,7,0,4,5,2,-10
-5,-27,-5,19,1,-10,6,0,4,5,9,-9
-5,-26,-5,18,1,-10,6,1,4,5,17,-4
-5,-25,-5,18,1,-10,7,1,4,5,18,-1
-4,-25,-5,17,1,-10,6,1,4,4,6,-14
-4,-26,-6,17,2,-10,6,0,3,2,-10,-29
-4,-26,-6,17,2,-11,6,-0,3,2,-21,-39
-4,-27,-6,17,2,-11,5,-0,3,2,-30,-46
-4,-27,-6,17,2,-11,5,-0,3,3,-30,-46
-3,-27,-6,17,2,-11,5,-0,3,4,-19,-35
-4,-27,-5,18,1,-11,6,-0,3,5,-8,-18
-6,-26,-4,20,-0,-9,6,0,3,6,-1,-9
-6,-25,-3,19,-1,-9,7,1,3,8,3,-3
-6,-23,-3,18,-1,-8,8,1,4,9,3,1
-6,-21,-2,17,-1,-7,9,1,4,10,-2,-3
-5,-19,-2,15,-1,-6,9,1,4,11,-9,-7
-4,-19,-3,14,-0,-7,9,1,3,11,-13,-11
-4,-19,-3,13,1,-7,9,1,3,11,-17,-19
-4,-19,-3,14,0,-7,8,1,3,10,-19,-24
-4,-21,-4,15,1,-8,8,1,3,10,-9,-18
-3,-21,-5,14,1,-9,8,1,3,9,5,-8
-2,-20,-5,12,2,-9,7,1,3,9,14,-1
-1,-19,-6,11,3,-9,7,0,3,10,26,13
-1,-19,-6,11,3,-9,6,0,3,10,30,22
-1,-19,-6,11,3,-9,6,-0,3,9,18,14
0,-19,-7,9,4,-10,6,-1,3,8,3,0
0,-22,-7,11,5,-11,7,-1,3,6,-8,-10
-0,-23,-8,12,5,-11,7,-1,3,5,-14,-19
-0,-22,-7,11,4,-10,7,-1,4,5,-14,-24
-1,-22,-6,12,3,-10,8,-1,4,5,-6,-19
-0,-21,-7,11,4,-10,8,-1,4,5,4,-14
-0,-21,-7,11,4,-10,8,-1,4,5,9,-13
0,-21,-7,11,4,-10,8,-1,4,5,11,-9
1,-21,-7,10,5,-11,8,-0,4,5,11,-5
1,-21,-8,9,5,-11,8,-0,4,5,4,-13
1,-20,-7,9,5,-10,8,0,4,5,-4,-22
0,-20,-7,10,4,-10,8,0,4,5,-8,-24
-1,-21,-6,12,3,-9,8,0,4,4,-10,-27
-4,-22,-4,15,1,-9,8,0,4,4,-10,-29
-6,-23,-3,18,-1,-8,9,0,4,6,0,-22
-9,-22,-1,21,-3,-6,10,1,4,8,14,-11
-11,-22,1,23,-6,-4,11,2,5,11,25,-3
-14,-22,3,26,-8,-3,12,2,5,14,36,5
-15,-23,4,28,-9,-3,12,2,5,15,42,11
-16,-25,4,30,-10,-3,12,2,5,15,36,6
-17,-24,5,31,-11,-2,12,3,5,15,29,1
-19,-23,6,32,-12,-1,13,3,5,16,28,3
-19,-23,6,32,-12,-1,13,3,5,16,28,3
-19,-23,6,32,-12,-1,13,3,5,16,28,3
-19,-23,6,32,-12,-1,13,3,5,16,28,3
-19,-23,6,32,-12,-1,13,3,5,16,28,3
-19,-23,6,32,-12,-1,13,3,5,16,28,3
-19,-23,6,32,-12,-1,13,3,5,16,28,3
-14,-23,3,27,-8,-4,12,1,4,12,18,-4
-206,94,184,182,-202,162,120,82,80,169,170,152
-4,-9,-0,9,-1,-2,13,2,3,22,-6,-24
3,-9,-5,1,4,-6,11,-1,2,12,-6,-17
-3,-11,-1,9,-0,-4,9,-5,-1,6,2,-24
5,-11,-7,-0,7,-8,8,-9,-5,1,-1,-34
2,-18,-7,7,5,-10,6,-14,-7,1,-1,-34
-5,-20,-3,16,-1,-7,4,-19,-10,1,26,36
-11,-20,2,22,-6,-4,2,-26,-13,6,42,39
-14,-12,6,22,-10,2,-0,-35,-17,12,47,59
-10,-12,3,17,-6,-1,-9,-49,-25,14,58,76
16,-9,-15,-13,16,-13,-21,-67,-32,16,47,42
27,-5,-22,-27,25,-18,-34,-85,-41,20,42,36
27,-3,-21,-28,25,-17,-42,-97,-52,16,42,49
23,-11,-21,-20,23,-18,-51,-112,-62,18,53,62
25,-9,-21,-23,24,-18,-61,-129,-72,21,79,69
27,-7,-22,-26,25,-19,-68,-143,-82,24,74,82
29,-3,-23,-31,27,-18,-77,-157,-93,24,106,145
30,4,-21,-35,26,-15,-84,-171,-104,28,128,155
35,15,-21,-46,28,-12,-94,-190,-118,32,141,175
39,22,-22,-54,30,-11,-105,-208,-132,26,154,195
46,30,-25,-65,35,-11,-117,-225,-145,18,154,202
51,35,-27,-73,39,-11,-132,-238,-157,9,152,172
54,28,-31,-73,43,-17,-142,-245,-170,-2,162,185
57,19,-36,-71,47,-23,-156,-252,-182,-14,168,189
60,15,-40,-73,51,-26,-172,-265,-197,-28,168,189
48,4,-34,-55,42,-25,-188,-276,-212,-39,181,215
49,-11,-40,-49,46,-33,-201,-287,-226,-61,192,245
48,-18,-42,-44,46,-36,-214,-296,-240,-84,192,235
53,-25,-48,-46,53,-43,-225,-302,-247,-99,178,235
61,-34,-57,-51,62,-52,-236,-300,-250,-115,181,215
70,-22,-59,-66,66,-50,-240,-297,-245,-127,192,232
68,-14,-55,-68,63,-45,-235,-290,-239,-127,181,208
72,-7,-56,-76,66,-44,-229,-279,-230,-131,181,208
69,0,-51,-76,61,-39,-224,-268,-223,-120,186,215
70,10,-49,-81,60,-34,-217,-256,-209,-107,195,232
62,17,-41,-77,52,-27,-207,-239,-197,-89,219,262
70,24,-45,-89,58,-28,-201,-230,-189,-76,245,305
76,30,-47,-98,62,-28,-199,-220,-181,-63,251,308
76,22,-49,-94,63,-32,-193,-211,-174,-45,251,315
74,15,-51,-89,63,-34,-185,-200,-169,-45,251,315
82,6,-60,-94,72,-43,-177,-194,-166,-38,270,315
77,2,-57,-86,68,-43,-169,-184,-163,-44,257,310
75,-12,-60,-77,70,-49,-162,-176,-160,-55,244,297
75,-29,-66,-69,73,-56,-155,-168,-158,-66,228,278
75,-44,-71,-61,76,-64,-149,-160,-154,-77,214,257
75,-59,-75,-54,78,-71,-142,-152,-149,-86,206,244
73,-74,-79,-45,80,-78,-133,-142,-143,-95,198,232
72,-88,-83,-37,82,-84,-124,-131,-136,-104,185,216
73,-100,-88,-32,85,-91,-115,-120,-129,-109,174,205
74,-111,-92,-28,88,-96,-106,-110,-121,-111,165,195
75,-118,-95,-26,90,-100,-100,-100,-112,-109,150,180
77,-121,-97,-26,92,-103,-94,-91,-104,-105,135,165
78,-122,-98,-27,93,-104,-87,-81,-94,-97,125,154
78,-124,-99,-27,94,-105,-80,-72,-85,-90,115,139
79,-125,-100,-26,95,-106,-73,-62,-76,-84,105,124
78,-126,-100,-25,94,-106,-65,-54,-69,-81,99,114
76,-128,-99,-22,93,-106,-57,-47,-62,-80,90,103
73,-126,-96,-19,90,-103,-50,-40,-56,-80,77,88
69,-121,-91,-17,85,-99,-43,-34,-51,-80,67,80
65,-113,-86,-17,80,-93,-37,-29,-45,-80,59,74
61,-103,-79,-17,74,-85,-31,-24,-40,-80,46,63
56,-91,-72,-17,68,-77,-27,-20,-35,-78,33,52
50,-81,-64,-15,60,-68,-22,-15,-30,-75,26,46
42,-71,-54,-12,51,-58,-16,-10,-25,-69,20,39
35,-59,-45,-10,43,-49,-10,-5,-19,-62,17,31
30,-50,-38,-8,36,-41,-6,-1,-14,-54,21,27
24,-43,-32,-6,30,-35,-1,3,-9,-45,28,29
19,-36,-26,-4,24,-29,3,6,-4,-35,32,27
15,-30,-21,-2,19,-24,7,9,0,-26,36,29
11,-27,-17,2,15,-20,11,12,4,-19,36,28
7,-25,-14,5,11,-16,14,14,7,-15,22,16
4,-24,-11,7,8,-14,16,17,11,-11,3,2
0,-23,-8,11,5,-12,19,19,14,-8,-10,-7
-3,-23,-5,15,2,-10,21,22,17,-5,-20,-18
-7,-22,-2,18,-1,-7,22,24,18,-2,-24,-26
-9,-21,0,21,-4,-5,24,25,20,1,-18,-23
-12,-20,2,23,-6,-3,25,26,21,3,-11,-20
-13,-20,3,24,-8,-3,25,26,21,4,-9,-22
-13,-21,3,24,-7,-3,26,26,21,4,-9,-21
-12,-21,2,23,-6,-4,26,26,21,4,-9,-18
-11,-21,1,23,-6,-4,27,26,21,4,-15,-23
-11,-21,2,22,-6,-4,27,27,21,4,-21,-30
-13,-22,3,25,-7,-3,28,27,22,6,-22,-35
-15,-25,3,29,-9,-3,28,28,22,6,-26,-44
-16,-27,3,30,-9,-4,29,28,23,6,-28,-57
-16,-27,3,31,-9,-4,29,29,23,6,-21,-56
-17,-26,4,31,-10,-3,29,29,24,7,-11,-47
-17,-25,5,32,-11,-3,30,30,24,7,-3,-42
-18,-25,5,32,-11,-2,30,30,24,8,5,-34
-18,-24,6,32,-11,-2,31,30,24,8,9,-25
-18,-23,6,32,-11,-1,32,31,25,9,1,-25
-18,-23,6,31,-11,-1,32,31,25,10,-9,-28
-17,-23,5,30,-11,-2,32,31,25,10,-14,-27
-16,-23,5,29,-10,-2,32,32,26,9,-19,-31
-16,-23,4,29,-9,-3,33,32,26,9,-23,-37
-16,-25,4,30,-10,-3,33,32,26,9,-19,-33
-17,-27,4,33,-10,-4,34,33,27,8,-14,-30
-17,-27,4,32,-10,-4,34,33,27,8,-14,-31
-16,-26,3,30,-9,-4,34,33,27,8,-12,-28
-17,-25,4,31,-10,-3,34,33,27,9,-10,-23
-18,-25,5,32,-11,-2,34,33,27,9,-14,-24
-17,-24,5,31,-10,-2,34,34,27,9,-21,-30
-16,-23,4,29,-9,-3,33,34,27,8,-25,-33
-16,-23,4,29,-9,-3,33,34,28,8,-26,-39
-17,-23,5,31,-11,-2,34,35,28,8,-27,-42
-20,-22,7,32,-13,0,35,35,29,8,-19,-35
-21,-19,9,32,-14,2,36,36,29,7,-9,-29
-20,-16,9,30,-14,3,36,36,29,6,-3,-30
-18,-14,9,27,-14,3,36,36,28,5,3,-29
-20,-13,10,28,-15,5,36,37,28,4,6,-27
-23,-12,13,31,-18,7,37,37,28,4,-2,-31
-25,-12,15,34,-20,8,37,38,29,4,-12,-34
-28,-12,17,37,-22,10,38,38,29,5,-18,-33
-29,-12,17,38,-23,10,38,39,30,5,-23,-35
-27,-11,16,35,-22,9,38,39,30,6,-26,-39
-23,-11,14,31,-19,8,38,40,30,6,-21,-35
-21,-10,12,28,-16,7,37,40,31,6,-17,-33
-19,-9,12,26,-15,7,37,41,32,6,-17,-35
-19,-9,11,25,-15,6,37,42,32,6,-16,-33
-19,-10,11,26,-15,6,37,42,31,6,-14,-29
-21,-10,12,28,-16,7,38,43,32,7,-18,-29
-22,-10,13,29,-17,7,38,43,32,9,-23,-32
-21,-10,12,28,-16,7,39,44,32,8,-25,-35
-20,-10,12,28,-16,6,39,44,33,7,-28,-41
-20,-10,12,27,-16,7,40,45,33,7,-31,-44
-21,-9,13,28,-17,8,42,46,34,9,-23,-41
-24,-8,15,30,-19,9,43,47,35,11,-10,-33
-24,-8,15,31,-20,9,43,47,37,11,-3,-31
-23,-8,15,30,-19,9,43,48,37,12,2,-28
-22,-8,13,28,-17,8,43,48,38,11,4,-28
-20,-8,12,26,-16,7,42,49,38,11,-4,-37
-20,-8,12,26,-16,7,42,49,38,10,-16,-46
-21,-8,13,27,-17,7,43,49,39,11,-24,-52
-22,-8,14,28,-18,8,43,50,39,11,-29,-57
-22,-8,14,28,-18,9,43,51,40,12,-33,-61
-21,-7,14,27,-18,9,44,51,40,12,-29,-59
-22,-7,14,28,-18,9,44,52,41,12,-23,-55
-24,-5,16,29,-20,11,45,53,42,13,-20,-54
-24,-5,16,29,-20,11,45,54,42,13,-19,-51
-23,-6,15,28,-19,10,46,55,43,13,-17,-48
-23,-6,15,28,-19,10,46,56,44,14,-21,-51
-22,-4,15,27,-19,10,47,57,45,15,-27,-54
-22,-3,16,27,-19,11,47,58,45,16,-29,-54
-24,-3,17,27,-20,12,47,59,46,16,-32,-58
-23,-1,17,27,-20,12,47,60,47,17,-34,-61
-23,-2,17,26,-20,12,47,61,48,16,-27,-58
-23,-3,16,27,-20,12,47,62,48,16,-18,-54
-23,-2,16,27,-20,12,47,63,48,16,-13,-51
-23,-1,17,27,-20,12,48,64,49,17,-5,-44
-24,-1,17,27,-21,13,49,65,49,17,-3,-39
-24,-0,18,27,-21,13,50,66,50,18,-14,-42
-23,1,18,26,-21,14,50,67,51,18,-27,-45
-23,2,18,24,-21,14,51,68,52,19,-36,-45
-24,3,18,25,-21,14,53,69,53,19,-43,-49
-23,4,18,23,-21,14,53,70,54,20,-44,-54
-21,5,17,20,-19,14,54,71,55,19,-36,-51
-19,5,16,18,-18,13,55,72,56,18,-28,-48
-19,6,16,18,-18,13,56,73,57,17,-26,-47
-21,5,17,20,-19,14,57,74,58,18,-25,-40
-24,4,19,24,-22,16,58,76,59,19,-23,-29
-27,5,22,28,-25,18,59,77,60,20,-27,-23
-28,5,23,29,-26,19,59,78,61,20,-36,-25
-27,6,22,27,-25,18,60,79,62,21,-43,-31
-26,7,21,25,-24,18,59,80,62,21,-49,-39
-23,7,20,22,-22,17,59,81,62,22,-56,-48
-21,8,18,19,-20,16,58,81,63,21,-54,-50
-19,10,18,16,-19,16,59,82,63,21,-45,-50
-18,13,18,14,-19,17,59,82,64,22,-39,-52
-18,14,18,13,-19,17,60,83,65,23,-31,-48
-20,15,19,15,-20,18,61,83,66,24,-28,-42
-20,15,20,15,-21,19,61,84,66,25,-39,-46
-21,16,21,16,-22,20,62,84,67,26,-53,-50
-24,17,23,18,-24,22,62,85,68,27,-60,-48
-26,18,26,21,-27,24,63,86,69,29,-62,-49
-27,19,27,21,-28,25,64,86,69,30,-58,-50
-26,20,26,20,-27,25,65,87,70,32,-43,-44
-27,21,27,20,-28,25,65,87,70,32,-26,-39
-26,22,27,18,-28,26,66,87,70,33,-20,-40
-25,22,26,17,-26,25,66,87,70,33,-17,-38
-25,22,26,17,-26,25,65,87,71,33,-15,-35
-25,23,27,17,-27,26,65,87,71,34,-19,-38
-25,25,27,16,-27,27,64,87,71,35,-26,-41
-25,26,27,15,-27,27,63,87,71,35,-32,-41
-24,26,27,14,-27,26,62,86,70,35,-41,-42
-23,27,26,13,-26,26,60,84,69,35,-48,-45
-23,27,26,12,-26,26,59,84,69,37,-40,-39
-23,28,27,12,-26,27,59,83,69,39,-25,-26
-24,29,27,12,-27,28,58,82,69,42,-13,-17
-23,29,27,11,-26,27,56,81,69,44,-1,-3
-23,30,27,11,-27,28,55,80,68,45,6,5
-22,31,27,9,-26,28,53,78,68,45,-4,-3
-18,32,24,4,-22,26,50,75,66,43,-18,-14
-15,32,21,1,-19,24,49,73,65,43,-23,-20
-15,32,21,1,-19,24,48,71,64,42,-24,-25
-15,32,22,2,-20,24,47,69,63,42,-20,-26
-16,31,22,2,-20,24,47,67,61,41,-5,-20
-16,30,22,3,-20,24,46,65,60,40,12,-11
-15,30,21,3,-19,23,45,62,58,39,20,-8
-14,29,20,2,-18,22,43,60,56,39,25,-4
-15,28,20,3,-19,22,42,58,54,38,27,1
-15,29,21,2,-19,23,40,55,52,38,23,-1
-14,30,20,1,-18,23,38,53,51,38,16,-3
-14,29,20,1,-18,22,37,50,49,38,13,-5
-13,27,19,1,-17,21,35,48,47,37,9,-13
-12,26,17,1,-16,20,33,45,44,36,1,-22
-10,25,16,-1,-14,18,31,43,42,35,5,-21
-9,25,15,-2,-13,17,30,40,41,34,19,-10
-8,23,14,-2,-12,16,28,38,40,33,31,1
-8,21,13,-1,-11,15,27,36,39,32,42,17
-8,19,12,-1,-10,13,25,34,37,30,48,29
-7,16,11,0,-10,12,23,31,35,30,41,27
-7,14,10,1,-9,11,21,29,32,29,32,22
-6,13,9,1,-8,10,19,27,29,29,28,21
-6,11,8,1,-7,8,17,25,26,29,23,18
-5,9,7,1,-6,7,16,23,25,29,20,15
-4,7,6,1,-5,6,15,22,23,28,27,20
-4,6,5,1,-5,5,14,20,22,27,35,26
-3,5,4,1,-4,4,13,19,21,26,38,26
-2,3,3,1,-2,3,12,17,19,24,41,28
-2,0,1,2,-2,1,11,16,18,22,41,31
-2,-1,1,3,-1,1,11,15,17,22,34,27
-2,-2,1,4,-1,0,10,14,16,21,27,22
-2,-4,0,5,-1,-1,9,13,15,21,24,20
-2,-7,-1,6,-0,-2,9,12,14,20,20,15
-2,-8,-1,6,-0,-3,8,11,13,20,17,12
-2,-8,-1,6,0,-3,8,11,13,20,16,11
-2,-8,-1,6,0,-3,8,10,13,20,15,10
-2,-8,-1,6,0,-3,8,10,13,20,15,10
-2,-8,-1,6,0,-3,8,10,13,20,15,10
-2,-8,-1,6,0,-3,8,10,13,20,15,10
-2,-11,-2,8,0,-4,8,9,11,18,20,15
-2,-15,-3,10,1,-6,7,6,9,15,27,23
-3,-17,-4,11,1,-7,7,6,8,14,30,25
-3,-17,-4,11,1,-7,7,6,8,13,31,25
-3,-18,-4,12,1,-7,7,5,8,13,31,25
-4,-18,-3,13,0,-7,7,5,8,12,31,22
-4,-18,-3,13,-0,-6,7,5,7,10,31,19
-5,-17,-2,13,-1,-6,7,5,7,10,31,17
-5,-15,-1,13,-1,-5,7,5,7,9,31,17
-5,-14,-1,12,-2,-4,7,5,7,9,31,16
-5,-12,-0,12,-2,-3,7,5,7,9,31,16
-4,-11,-0,11,-2,-3,7,5,7,10,31,16
-3,-11,-1,9,-1,-3,8,5,7,11,31,16
-2,-10,-2,7,1,-4,8,5,8,12,31,16
-0,-10,-3,6,2,-5,9,5,8,13,31,16
1,-10,-4,4,3,-5,10,6,8,14,31,16
1,-8,-3,3,3,-5,11,6,9,14,31,16
1,-7,-3,2,3,-4,12,6,9,14,31,16
1,-5,-3,1,2,-3,14,7,10,14,31,16
1,-3,-2,0,2,-2,15,7,10,15,32,17
1,-1,-1,-1,1,-1,16,8,11,16,34,20
1,1,-1,-1,1,-0,18,8,11,17,36,23
1,3,-0,-2,1,1,19,9,12,18,39,26
1,4,0,-3,0,1,20,10,12,20,41,28
1,6,1,-4,0,2,21,10,13,21,41,29
1,8,2,-5,-0,3,21,11,13,22,42,29
1,10,2,-6,-1,4,22,11,13,24,42,29
1,11,3,-6,-1,5,23,12,14,24,42,29
1,11,3,-6,-1,5,23,12,14,25,42,29
1,11,3,-7,-1,5,23,12,15,25,42,29
1,11,3,-7,-1,5,23,13,15,25,42,29
1,11,3,-7,-1,5,22,13,15,25,42,29
1,11,3,-7,-1,5,21,13,16,25,42,29
1,11,3,-7,-1,5,19,13,16,25,42,29
1,11,3,-7,-1,5,17,13,16,25,42,29
1,11,3,-6,-1,5,15,13,15,25,42,29
1,9,2,-6,-1,4,12,12,15,25,42,29
1,8,2,-5,-0,3,10,12,15,25,42,29
1,6,1,-4,0,2,7,11,14,25,42,29
1,5,1,-4,0,2,5,10,14,25,42,29
1,4,0,-3,0,1,2,10,14,25,42,29
1,4,0,-3,0,1,0,9,14,25,42,29
1,4,0,-3,0,1,-2,9,14,25,42,29
2,4,0,-4,1,1,-3,8,14,25,42,29
2,4,-0,-4,1,1,-3,8,13,25,42,29
3,4,-1,-5,2,0,-3,7,13,25,42,29
4,4,-1,-6,3,0,-4,6,13,25,42,29
4,4,-2,-6,3,-0,-4,6,12,25,42,29
4,4,-2,-6,3,-0,-4,5,12,25,42,29
4,4,-2,-7,3,-1,-4,5,12,25,42,29
4,4,-2,-7,3,-1,-4,5,12,25,42,29
4,4,-2,-6,3,-1,-3,6,12,25,42,29
4,2,-3,-6,4,-1,-3,6,12,25,42,29
4,1,-3,-5,4,-2,-2,6,12,25,42,29
4,-1,-4,-4,4,-3,-2,7,12,25,42,29
4,-3,-4,-3,4,-4,-1,7,12,25,42,29
4,-5,-4,-1,4,-4,1,7,12,25,42,29
3,-7,-4,0,4,-5,2,8,12,25,42,29
2,-8,-4,2,4,-5,3,8,12,25,42,29
1,-10,-4,4,3,-5,4,8,12,25,41,29
-0,-10,-3,6,2,-5,5,9,13,25,39,29
-2,-10,-2,7,0,-4,6,9,13,25,36,29
-3,-10,-1,9,-1,-3,6,10,13,25,34,29
-5,-11,0,11,-2,-3,7,10,14,25,31,27
-7,-12,1,13,-3,-2,8,10,14,25,28,22
-8,-14,2,16,-4,-2,8,10,14,25,26,16
-10,-16,2,19,-6,-2,9,10,14,25,23,10
-11,-18,2,21,-6,-3,10,10,14,25,21,5
-11,-19,2,22,-6,-3,10,10,14,25,21,1
-11,-21,2,23,-6,-4,11,10,14,25,20,-3
-11,-23,1,24,-6,-5,12,10,14,25,20,-7
-11,-24,0,24,-5,-6,12,10,14,24,20,-9
-10,-25,-0,24,-4,-6,12,10,13,23,20,-9
-10,-25,-1,23,-4,-7,12,10,13,22,20,-10
-9,-25,-1,22,-3,-7,12,10,13,21,20,-10
-9,-25,-2,22,-3,-7,12,10,12,20,19,-10
-8,-25,-2,22,-2,-8,12,10,12,20,17,-10
-8,-25,-2,21,-2,-8,12,10,12,20,15,-10
-8,-25,-2,21,-2,-8,12,10,12,20,12,-10
-9,-26,-2,22,-2,-8,12,10,12,20,11,-10
-9,-27,-2,23,-3,-8,12,10,12,20,10,-10
-10,-29,-2,25,-3,-9,12,10,12,20,10,-10
-11,-30,-2,27,-3,-9,12,10,12,20,10,-10
-11,-32,-2,28,-4,-9,12,10,12,20,10,-10
-11,-32,-2,28,-4,-9,12,10,12,20,10,-10
-11,-32,-2,28,-4,-9,12,9,11,20,10,-10
-11,-32,-2,28,-4,-9,12,9,11,20,10,-10
-11,-32,-2,28,-4,-9,12,9,10,20,10,-10
-11,-32,-2,28,-4,-9,12,9,10,20,10,-10
-11,-32,-2,28,-4,-9,12,8,10,20,10,-10
-11,-32,-2,28,-4,-9,12,8,10,20,10,-10
-11,-32,-2,28,-4,-9,12,8,10,20,10,-10
-11,-32,-2,28,-4,-9,12,8,10,20,10,-10
-11,-32,-2,28,-4,-9,12,8,10,20,10,-10
-11,-32,-2,28,-4,-9,12,8,10,20,10,-10
-11,-32,-2,28,-4,-9,12,8,10,19,10,-10
-11,-32,-2,28,-4,-9,11,8,10,18,10,-10
-11,-32,-2,28,-4,-9,11,8,9,17,10,-10
-11,-32,-2,28,-4,-9,10,7,9,16,10,-10
-11,-32,-2,28,-4,-9,10,7,9,15,10,-10
-11,-32,-2,28,-4,-9,10,7,9,15,10,-10
-11,-32,-2,28,-4,-9,10,6,8,14,10,-10
-11,-32,-2,28,-4,-9,10,6,8,14,10,-10
-11,-32,-2,28,-3,-10,10,6,8,14,10,-10
-10,-32,-3,27,-3,-10,10,5,8,14,10,-10
-10,-32,-3,27,-2,-10,10,5,8,14,10,-10
-9,-32,-4,26,-2,-11,10,5,8,14,10,-10
-9,-32,-4,25,-1,-11,10,5,8,14,10,-10
-8,-32,-4,25,-1,-11,10,5,8,14,10,-10
-8,-32,-4,25,-1,-11,10,5,8,14,10,-10
-8,-32,-4,25,-1,-11,10,5,7,14,10,-10
-8,-32,-4,25,-1,-11,10,5,7,15,10,-10
-8,-32,-4,25,-1,-11,10,5,7,16,10,-10
-8,-32,-4,25,-1,-11,10,5,7,17,10,-10
-8,-32,-4,25,-1,-11,10,5,7,18,10,-10
-9,-32,-4,25,-1,-11,10,5,7,19,10,-10
-9,-32,-4,26,-2,-11,10,5,7,19,10,-10
-10,-32,-3,27,-2,-10,10,5,7,20,10,-10
-11,-32,-3,28,-3,-10,10,4,7,20,10,-10
-11,-32,-2,28,-3,-10,10,4,6,19,10,-10
-11,-32,-2,28,-4,-10,10,4,6,18,10,-10
-11,-32,-2,28,-4,-9,10,4,6,17,10,-10
-11,-32,-2,28,-4,-9,10,4,5,16,10,-10
-11,-32,-2,28,-3,-10,9,4,5,15,10,-10
-10,-32,-3,27,-3,-10,9,4,5,15,10,-10
-10,-32,-3,27,-2,-10,8,4,5,14,10,-10
-9,-32,-4,26,-2,-11,8,4,5,14,10,-10
-9,-32,-4,25,-1,-11,7,4,5,15,10,-10
-8,-32,-4,25,-1,-11,7,4,5,16,10,-10
-8,-32,-4,25,-1,-11,7,4,5,17,10,-10
-8,-32,-4,25,-1,-11,7,4,5,18,10,-10
-8,-32,-4,24,-1,-11,7,4,5,19,11,-10
-8,-30,-4,24,-1,-10,7,4,5,19,13,-10
-8,-29,-3,23,-2,-9,7,4,5,20,15,-10
-8,-27,-3,22,-2,-9,7,4,5,20,18,-10
-8,-26,-2,22,-2,-8,7,4,5,20,19,-10
-8,-25,-2,22,-2,-8,7,4,5,20,20,-10
-8,-25,-2,21,-2,-8,7,4,5,20,20,-10
-8,-25,-2,21,-2,-8,7,4,5,20,20,-10
-8,-26,-2,22,-2,-8,7,4,5,20,20,-10
-8,-27,-3,22,-2,-9,7,4,5,20,20,-10
-8,-29,-3,23,-2,-9,7,4,5,20,20,-10
-8,-30,-4,24,-1,-10,7,4,5,20,20,-10
-8,-32,-4,24,-1,-11,7,4,5,20,20,-10
-8,-32,-4,25,-1,-11,7,4,5,20,20,-10
-8,-32,-4,25,-1,-11,7,4,5,20,20,-10
-8,-32,-4,25,-1,-11,7,4,5,20,20,-10
-8,-32,-4,25,-1,-11,7,4,5,19,20,-10
-8,-32,-4,25,-1,-11,7,3,5,18,20,-10
-8,-32,-4,25,-1,-11,7,3,5,17,20,-10
-8,-32,-4,25,-1,-11,7,3,5,16,20,-10
-8,-32,-4,25,-1,-11,7,3,5,15,20,-10
-8,-32,-4,25,-1,-11,7,2,5,15,20,-10
-8,-32,-4,25,-1,-11,7,2,5,14,20,-10
-8,-32,-4,25,-1,-11,7,2,5,14,20,-10
-8,-32,-4,24,-1,-11,7,3,5,14,20,-10
-8,-30,-4,24,-1,-10,7,3,5,14,20,-10
-8,-29,-3,23,-2,-9,7,3,5,14,20,-10
-8,-27,-3,22,-2,-9,7,4,5,14,20,-10
-8,-26,-2,22,-2,-8,7,4,5,15,20,-10
-8,-25,-2,22,-2,-8,7,4,5,16,20,-10
-8,-25,-2,21,-2,-8,7,4,5,17,20,-10
-8,-25,-2,21,-2,-8,7,4,5,18,20,-10
-8,-25,-2,21,-2,-8,7,4,5,19,20,-10
-8,-25,-2,21,-2,-8,8,4,5,19,20,-10
-8,-25,-2,21,-2,-8,8,4,5,20,20,-10
-8,-25,-2,21,-2,-8,9,4,5,20,20,-10
-8,-25,-2,21,-2,-8,9,4,5,20,20,-10
-8,-25,-2,21,-2,-8,9,4,5,20,20,-10
-8,-25,-2,21,-2,-8,10,4,5,20,20,-10
-8,-25,-2,21,-2,-8,10,4,5,20,20,-10
-8,-25,-2,21,-2,-8,10,4,5,20,20,-10
-8,-25,-2,21,-2,-8,10,3,5,20,20,-10
-8,-25,-2,21,-2,-8,10,3,5,20,20,-10
-8,-25,-2,21,-2,-8,10,3,5,20,20,-10
-8,-25,-2,21,-2,-8,10,3,5,20,20,-10
-8,-25,-2,21,-2,-8,10,2,5,20,20,-10
-8,-25,-2,21,-2,-8,10,2,5,20,20,-10
-8,-25,-2,21,-2,-8,10,2,5,20,20,-10
-8,-25,-2,21,-2,-8,10,2,5,20,20,-9
-8,-25,-2,21,-2,-8,10,2,5,20,20,-6
-8,-25,-2,21,-2,-8,10,2,5,20,20,-3
-8,-25,-2,21,-2,-8,10,2,5,20,20,0
-8,-25,-2,21,-2,-8,10,2,5,20,20,2
-8,-25,-2,21,-2,-8,10,2,5,20,20,3
-8,-25,-2,21,-2,-8,10,2,5,20,20,3
-8,-25,-2,21,-2,-8,10,2,5,20,20,3
-8,-25,-2,21,-2,-8,10,2,5,20,20,3
-8,-25,-2,21,-2,-8,10,2,5,20,20,3
-8,-25,-2,21,-2,-8,10,2,5,20,20,3
-8,-25,-2,21,-2,-8,10,2,5,20,20,3
-8,-25,-2,21,-2,-8,10,2,5,20,20,3
-9,-26,-2,22,-2,-8,9,3,5,19,25,5
-9,-26,-2,23,-3,-8,8,3,4,18,31,6
-9,-27,-2,23,-3,-8,8,3,4,17,33,7
-9,-27,-2,23,-3,-8,8,3,4,17,33,7
-10,-27,-1,25,-4,-8,8,3,4,17,34,7
-10,-29,-2,25,-3,-9,7,3,4,16,33,7
-8,-30,-4,23,-1,-11,6,3,4,16,32,8
-7,-31,-5,23,0,-11,6,3,4,16,28,8
-7,-31,-5,23,-0,-11,6,3,4,16,17,-2
-8,-30,-4,24,-1,-10,6,3,5,16,5,-12
-8,-30,-4,24,-1,-10,7,3,5,17,-1,-14
-8,-30,-4,23,-1,-10,7,3,5,16,-4,-19
-8,-28,-4,22,-1,-10,8,3,4,16,-1,-24
-7,-27,-3,21,-1,-9,8,3,4,16,11,-19
-8,-26,-3,21,-2,-8,9,3,4,17,23,-13
-8,-25,-2,21,-2,-8,10,3,4,17,27,-12
-8,-25,-2,21,-2,-8,10,3,4,16,30,-7
-9,-25,-2,22,-3,-7,10,3,4,16,30,-3
-9,-25,-2,22,-3,-7,9,3,4,16,24,-7
-9,-27,-2,23,-3,-8,8,3,4,15,16,-16
-8,-28,-3,23,-2,-9,8,3,4,16,13,-19
-8,-27,-3,22,-2,-9,8,3,4,18,13,-21
-9,-27,-2,23,-3,-8,7,3,4,20,13,-23
-9,-27,-2,23,-3,-8,7,3,4,21,21,-14
-9,-27,-2,23,-3,-8,7,3,4,21,28,-3
-8,-27,-3,22,-2,-9,6,3,4,21,29,5
-8,-26,-2,22,-2,-8,6,4,4,21,32,16
-8,-25,-2,21,-2,-8,7,4,4,21,31,21
-6,-25,-3,20,-1,-9,6,4,4,20,17,8
-5,-26,-5,18,1,-10,6,3,3,18,1,-9
-5,-26,-5,18,1,-10,6,3,3,17,-11,-22
-4,-27,-6,18,2,-11,5,3,3,17,-17,-33
-4,-27,-6,17,2,-11,5,2,3,17,-13,-37
-4,-27,-6,17,2,-11,5,2,3,16,2,-28
-4,-27,-5,18,1,-11,6,2,3,16,19,-15
-6,-27,-4,20,0,-10,6,2,3,17,29,-8
-6,-27,-4,20,-0,-10,7,2,3,17,34,-3
-6,-27,-4,20,0,-10,7,2,4,17,35,1
-6,-26,-4,19,0,-10,7,2,4,17,29,-3
-5,-25,-4,18,0,-9,7,2,4,17,21,-10
-4,-26,-5,17,1,-10,6,1,3,16,12,-19
-4,-26,-6,17,2,-11,5,1,3,16,4,-33
-4,-27,-6,18,2,-11,4,1,3,16,-3,-44
-4,-28,-6,18,2,-11,3,1,3,15,2,-42
-4,-28,-6,18,2,-12,4,1,3,15,12,-34
-4,-27,-6,17,2,-11,4,1,3,14,19,-27
-3,-27,-6,17,2,-11,4,1,3,15,28,-13
-4,-27,-6,18,2,-11,4,2,3,15,32,-2
-5,-27,-5,18,1,-10,4,2,3,16,21,-5
-4,-27,-6,18,1,-11,4,2,3,16,9,-13
-5,-29,-6,20,1,-11,4,2,3,15,0,-17
-6,-31,-5,22,0,-12,4,2,3,15,-3,-20
-8,-29,-4,23,-1,-10,5,2,4,15,2,-21
-9,-29,-3,24,-2,-9,5,2,4,15,15,-13
-9,-29,-3,24,-2,-9,5,2,4,16,30,-4
-10,-29,-2,25,-3,-9,6,2,4,16,38,-1
-9,-29,-2,24,-3,-9,5,2,4,16,40,4
-9,-29,-3,24,-2,-9,5,2,4,16,38,8
-8,-28,-3,23,-2,-9,5,2,4,16,28,1
-8,-27,-3,22,-1,-9,5,2,4,16,17,-10
-8,-27,-3,22,-1,-9,5,1,4,17,10,-15
-8,-28,-3,22,-1,-10,4,1,4,17,6,-21
-8,-29,-3,23,-2,-10,3,1,4,19,3,-26
-9,-30,-3,24,-2,-10,3,0,4,20,9,-22
-9,-30,-3,24,-2,-10,4,1,4,21,17,-14
-8,-29,-3,23,-1,-10,4,1,4,22,19,-10
-7,-29,-4,23,-1,-10,4,1,4,22,23,-5
-7,-31,-5,23,0,-11,4,1,4,22,24,-2
-7,-32,-5,23,0,-12,4,1,4,20,15,-7
-8,-32,-5,24,-1,-11,4,1,4,20,8,-13
-9,-31,-3,25,-2,-10,5,1,4,21,7,-11
-9,-31,-3,25,-2,-10,5,1,4,21,7,-11
-9,-31,-3,25,-2,-10,5,1,4,21,7,-11
-9,-31,-3,25,-2,-10,5,1,4,21,7,-11
-9,-31,-3,25,-2,-10,5,1,4,21,7,-11
-9,-31,-3,25,-2,-10,5,1,4,21,7,-11
-9,-31,-3,25,-2,-10,5,1,4,21,7,-11
-8,-31,-4,23,-1,-11,4,-0,1,12,-4,-4
-296,145,268,257,-292,238,168,122,131,238,245,205
-10,-23,-0,23,-4,-6,10,2,3,33,-6,-37
-4,-23,-5,16,2,-10,6,-2,-0,22,-6,-31
-12,-25,1,26,-6,-5,6,-5,-3,17,2,-24
-11,-25,-0,24,-5,-6,5,-9,-6,17,-1,-34
-4,-18,-3,14,-0,-6,3,-14,-9,17,-1,-34
-5,-20,-3,16,-1,-7,1,-19,-10,17,36,-4
-27,-20,14,39,-20,5,-0,-24,-13,28,53,39
-20,-27,6,36,-13,-2,-6,-37,-20,17,58,19
6,-27,-13,7,11,-17,-17,-55,-31,4,26,9
13,-23,-17,-2,16,-19,-29,-73,-38,-0,36,29
11,-20,-15,-2,14,-16,-39,-87,-46,20,31,23
14,-18,-16,-7,16,-17,-44,-100,-55,21,53,49
13,-18,-16,-6,15,-16,-54,-115,-65,29,85,62
18,-16,-19,-12,19,-18,-63,-132,-76,32,90,69
21,-14,-20,-16,21,-19,-73,-146,-86,34,106,82
20,-11,-18,-16,20,-16,-79,-160,-95,40,138,119
21,-3,-16,-21,19,-13,-87,-174,-108,38,149,129
32,8,-21,-39,27,-14,-99,-195,-123,32,152,149
42,22,-24,-57,33,-13,-110,-213,-137,26,165,169
43,22,-25,-58,34,-13,-122,-228,-148,24,165,175
38,21,-22,-52,30,-11,-137,-242,-163,20,152,159
41,13,-27,-52,34,-17,-148,-250,-177,9,162,172
41,4,-29,-46,35,-21,-161,-257,-189,-3,178,175
44,-7,-35,-45,41,-28,-177,-271,-206,-12,178,175
48,-18,-42,-44,46,-36,-193,-284,-223,-34,181,175
49,-33,-48,-39,51,-44,-206,-296,-238,-61,192,218
51,-47,-54,-33,55,-52,-219,-305,-251,-84,192,182
57,-47,-58,-39,60,-55,-230,-306,-255,-93,189,195
58,-49,-60,-40,62,-57,-239,-305,-253,-104,203,215
57,-36,-54,-45,58,-50,-240,-300,-250,-105,213,232
58,-29,-53,-50,58,-47,-235,-292,-242,-111,181,208
62,-22,-54,-58,60,-46,-229,-280,-236,-104,192,222
62,-14,-51,-62,58,-42,-224,-268,-225,-93,197,228
66,2,-49,-74,59,-36,-217,-256,-209,-75,216,232
69,17,-46,-84,58,-30,-212,-244,-201,-63,229,248
70,17,-47,-86,59,-31,-207,-233,-193,-49,267,292
73,15,-49,-87,62,-33,-202,-223,-185,-36,272,295
79,8,-57,-91,69,-41,-195,-213,-179,-30,272,301
78,0,-58,-86,69,-43,-188,-204,-175,-30,251,301
73,-9,-57,-76,67,-45,-179,-197,-168,-27,280,301
72,-23,-61,-68,68,-52,-172,-187,-164,-30,260,280
72,-40,-67,-60,72,-60,-165,-178,-162,-39,245,261
72,-58,-72,-51,75,-69,-158,-169,-159,-51,228,239
72,-73,-78,-44,78,-77,-152,-160,-155,-61,214,218
72,-87,-82,-37,81,-83,-144,-151,-150,-70,206,205
70,-99,-85,-29,82,-89,-135,-141,-143,-80,198,193
69,-110,-88,-23,83,-93,-126,-130,-136,-88,185,177
70,-119,-91,-20,86,-98,-117,-120,-129,-93,174,165
71,-126,-94,-17,88,-102,-109,-110,-121,-96,165,155
71,-130,-96,-15,89,-104,-101,-100,-112,-96,150,140
72,-132,-97,-16,90,-106,-95,-91,-104,-94,135,125
72,-131,-97,-16,90,-106,-88,-81,-94,-89,125,114
72,-132,-97,-15,90,-106,-81,-72,-85,-83,115,100
70,-133,-96,-13,89,-105,-73,-62,-76,-79,105,84
69,-133,-95,-11,87,-104,-65,-53,-69,-76,99,74
65,-135,-93,-6,84,-103,-57,-46,-62,-75,90,63
61,-134,-89,-2,80,-100,-50,-39,-56,-74,78,48
56,-128,-84,0,75,-95,-43,-32,-51,-72,70,40
52,-121,-78,1,70,-89,-37,-27,-45,-69,64,34
48,-110,-72,1,64,-81,-31,-23,-40,-66,54,23
43,-99,-65,0,58,-73,-27,-18,-35,-63,43,13
38,-89,-57,1,51,-65,-22,-14,-30,-59,37,7
30,-78,-48,4,43,-56,-16,-9,-25,-53,31,0
24,-66,-40,5,35,-47,-10,-4,-19,-46,27,-9
20,-58,-34,6,29,-40,-6,0,-14,-39,30,-12
16,-51,-28,7,24,-34,-2,4,-9,-32,33,-11
11,-43,-23,9,19,-28,2,8,-5,-24,32,-13
8,-38,-18,10,14,-23,5,11,-1,-18,31,-11
4,-35,-14,13,10,-19,8,13,2,-13,28,-11
1,-33,-11,15,7,-16,11,16,5,-9,15,-24
-2,-31,-9,18,4,-14,14,18,8,-6,-2,-38
-6,-31,-6,22,1,-12,16,21,11,-3,-12,-47
-9,-30,-3,25,-2,-10,18,23,13,-1,-21,-58
-12,-30,-1,28,-5,-8,20,25,15,2,-27,-66
-14,-28,1,29,-7,-6,21,26,16,4,-24,-63
-16,-27,3,31,-9,-5,22,27,17,5,-19,-60
-17,-27,3,32,-9,-4,23,27,17,5,-19,-62
-16,-28,3,31,-8,-5,23,27,17,4,-19,-60
-15,-29,2,31,-8,-6,23,28,17,4,-19,-58
-14,-29,1,30,-7,-6,24,28,17,4,-26,-62
-14,-27,1,29,-7,-6,24,28,18,4,-32,-67
-15,-27,3,31,-8,-5,25,29,18,6,-33,-66
-17,-28,3,32,-9,-5,26,29,19,6,-36,-71
-16,-29,3,32,-9,-5,26,30,19,6,-39,-77
-16,-27,3,31,-9,-4,26,30,20,6,-32,-72
-17,-26,4,31,-10,-3,27,31,20,7,-22,-65
-17,-25,5,32,-11,-3,27,31,20,7,-14,-62
-18,-25,5,32,-11,-2,28,31,21,8,-6,-57
-19,-24,6,32,-12,-1,29,32,21,8,-2,-50
-20,-23,7,33,-13,-0,30,33,22,9,-10,-51
-21,-23,8,34,-14,0,31,33,23,10,-20,-54
-22,-23,9,35,-15,1,31,34,23,10,-25,-54
-22,-24,9,36,-15,1,32,35,24,9,-28,-58
-22,-25,8,37,-15,0,32,35,24,9,-28,-64
-23,-29,8,39,-14,-1,32,35,24,9,-19,-60
-24,-33,7,42,-15,-3,32,36,25,8,-9,-56
-23,-34,6,42,-14,-4,32,36,25,8,-7,-58
-21,-33,5,39,-13,-4,31,36,25,8,-8,-58
-21,-32,5,39,-13,-4,31,36,24,9,-10,-56
-22,-32,6,40,-13,-3,31,36,24,9,-20,-60
-20,-32,5,38,-12,-4,31,37,24,9,-30,-69
-18,-31,3,35,-10,-5,31,37,24,8,-34,-73
-17,-30,3,34,-9,-5,31,37,24,8,-37,-78
-18,-30,4,35,-10,-5,31,38,24,8,-38,-82
-20,-30,5,36,-12,-3,32,38,25,8,-30,-75
-21,-28,6,37,-13,-2,33,39,26,7,-19,-69
-20,-27,6,35,-12,-2,33,39,26,6,-14,-70
-18,-27,5,33,-11,-3,33,39,26,5,-8,-68
-19,-27,6,34,-12,-2,34,40,26,4,-5,-67
-21,-27,7,36,-13,-1,34,40,26,4,-13,-71
-22,-27,8,37,-14,-1,34,41,26,4,-23,-74
-23,-27,8,38,-15,-0,35,41,26,5,-28,-72
-23,-27,9,39,-15,-0,36,42,27,5,-34,-75
-22,-26,8,37,-15,-0,36,42,27,6,-36,-78
-20,-25,7,35,-13,-1,36,43,27,6,-32,-75
-19,-25,6,33,-12,-1,37,43,27,6,-27,-72
-19,-23,7,33,-12,-1,37,44,28,6,-27,-75
-20,-24,7,33,-13,-1,37,45,29,6,-26,-72
-21,-25,8,35,-14,-0,37,45,29,6,-25,-68
-23,-25,9,38,-16,1,38,46,29,7,-28,-69
-24,-25,10,39,-17,1,38,47,30,9,-33,-72
-24,-25,10,39,-16,1,39,47,31,8,-35,-75
-24,-25,9,38,-16,1,39,47,32,7,-39,-80
-23,-24,10,38,-16,1,40,48,33,7,-42,-84
-24,-23,10,38,-17,2,42,49,34,9,-34,-80
-26,-23,12,40,-18,3,43,50,35,11,-20,-73
-26,-23,12,40,-18,3,43,51,36,11,-13,-71
-24,-23,10,38,-17,2,43,52,36,12,-9,-68
-22,-23,9,35,-15,1,43,53,36,11,-7,-67
-20,-23,8,34,-13,0,42,53,37,11,-15,-73
-20,-23,7,33,-13,-0,42,54,38,10,-27,-80
-21,-23,8,34,-14,0,43,54,38,11,-34,-82
-22,-23,9,36,-15,1,43,55,39,11,-40,-84
-23,-22,10,36,-16,2,43,55,40,12,-41,-84
-23,-22,10,36,-16,2,44,56,40,12,-35,-79
-25,-21,11,38,-18,3,44,57,41,12,-25,-72
-27,-20,13,39,-20,5,45,58,42,13,-21,-68
-27,-20,13,39,-20,5,45,59,42,13,-19,-65
-26,-21,13,39,-19,4,46,59,43,13,-18,-62
-26,-21,13,39,-19,5,46,60,44,14,-21,-65
-25,-19,12,37,-18,5,47,61,45,15,-27,-68
-25,-18,13,36,-18,5,48,62,45,16,-29,-68
-25,-17,13,36,-19,6,48,64,46,16,-32,-72
-24,-16,13,35,-18,6,49,65,47,17,-34,-75
-23,-16,12,34,-17,5,49,65,48,16,-29,-72
-23,-17,11,34,-17,4,49,66,48,16,-24,-70
-23,-17,12,34,-17,5,50,67,49,16,-24,-71
-23,-16,12,34,-17,5,51,69,50,17,-21,-68
-24,-15,13,34,-18,6,52,70,51,17,-20,-64
-24,-13,14,33,-19,7,52,71,53,19,-26,-68
-23,-10,14,31,-19,8,53,72,54,21,-32,-71
-23,-7,15,29,-19,9,54,73,56,23,-33,-71
-24,-4,16,28,-20,11,55,75,57,25,-35,-76
-24,0,18,26,-21,13,56,76,58,26,-34,-80
-22,5,18,22,-21,15,57,78,59,27,-26,-78
-21,9,19,19,-21,16,58,79,60,27,-17,-74
-21,12,20,17,-21,18,59,81,61,28,-15,-76
-22,14,21,17,-22,19,61,82,62,28,-14,-74
-24,15,23,19,-24,21,63,83,63,29,-12,-69
-26,18,25,20,-26,23,65,85,64,30,-16,-70
-26,19,26,20,-27,24,67,86,65,31,-24,-74
-27,20,27,20,-28,25,69,87,66,31,-26,-76
-27,21,27,20,-28,26,70,88,67,32,-28,-78
-27,22,28,20,-29,26,71,90,69,33,-29,-82
-26,23,27,18,-28,26,71,91,70,32,-25,-78
-25,27,28,15,-28,28,72,92,71,33,-19,-74
-25,31,29,12,-28,29,73,93,72,35,-18,-72
-25,34,30,11,-29,31,73,94,73,38,-15,-65
-25,36,31,10,-29,32,74,95,74,40,-12,-57
-24,37,30,9,-29,32,74,96,75,41,-19,-60
-23,37,29,7,-28,31,75,97,76,42,-25,-63
-23,39,30,7,-28,32,76,97,77,43,-25,-62
-24,40,31,7,-29,33,76,98,78,45,-24,-62
-22,41,30,5,-28,33,75,99,78,46,-21,-63
-20,42,29,2,-26,32,74,99,79,48,-11,-58
-19,43,28,0,-25,32,73,99,79,48,1,-52
-17,43,27,-1,-24,31,71,99,79,49,3,-50
-17,42,27,-1,-23,30,69,99,79,49,5,-43
-18,41,27,1,-24,30,67,98,80,49,7,-35
-20,40,28,3,-26,31,64,97,80,49,3,-31
-21,40,29,4,-26,31,61,96,80,51,-3,-33
-20,38,27,4,-25,30,58,95,79,51,-5,-35
-18,37,25,2,-23,28,55,93,78,51,-8,-42
-15,36,23,-1,-20,26,52,91,77,51,-10,-52
-14,36,22,-1,-20,26,49,89,76,52,-2,-49
-16,35,23,1,-21,26,48,88,75,52,8,-39
-17,36,25,2,-23,28,47,86,75,52,13,-29
-18,37,26,2,-23,28,46,84,73,52,18,-17
-19,37,27,3,-24,29,45,81,72,52,21,-8
-18,38,26,1,-23,29,42,79,70,50,13,-16
-13,39,22,-5,-19,26,40,76,68,48,4,-27
-9,39,20,-9,-16,24,38,74,66,48,4,-33
-9,39,19,-9,-15,24,37,71,64,48,4,-37
-9,39,19,-9,-16,24,36,69,63,49,5,-35
-9,38,19,-8,-16,24,35,67,61,49,16,-26
-10,37,19,-7,-16,24,34,65,60,49,28,-14
-9,37,19,-8,-15,23,32,62,58,49,33,-9
-8,34,17,-8,-14,21,31,60,56,51,36,-4
-8,32,17,-6,-14,20,30,58,54,52,38,1
-9,31,17,-6,-14,20,29,55,52,53,33,-1
-8,30,16,-6,-13,19,27,53,51,54,27,-3
-8,29,15,-5,-13,19,26,50,49,54,27,-5
-8,27,15,-4,-13,18,25,48,47,53,25,-13
-8,26,14,-4,-12,17,23,45,44,52,19,-22
-7,24,13,-4,-11,16,21,43,42,51,23,-24
-6,22,12,-4,-10,15,20,40,40,49,31,-21
-7,19,11,-2,-10,13,20,38,38,49,35,-19
-7,15,10,0,-9,11,20,36,36,48,39,-13
-7,12,9,2,-9,10,20,34,34,45,39,-8
-7,9,9,4,-8,9,19,31,32,43,28,-15
-7,7,7,4,-7,7,17,29,30,40,16,-24
-6,5,6,4,-6,6,16,27,28,37,10,-28
-6,3,6,5,-6,5,14,25,26,35,3,-34
-7,-0,5,8,-6,4,14,23,25,35,0,-38
-7,-3,4,10,-6,3,14,22,23,34,7,-33
-9,-7,4,13,-6,2,14,20,22,32,14,-27
-9,-9,4,15,-6,1,13,19,21,31,17,-27
-9,-12,3,15,-5,-1,12,17,19,29,19,-25
-8,-14,2,16,-5,-2,11,16,18,28,20,-21
-8,-15,1,17,-4,-3,11,15,17,27,12,-26
-8,-17,1,17,-4,-4,10,14,16,27,4,-31
-8,-19,-0,18,-3,-5,9,13,15,26,-3,-33
-8,-21,-1,20,-3,-6,9,12,14,25,-12,-37
-8,-22,-1,20,-3,-6,8,11,13,25,-19,-41
-8,-23,-1,20,-3,-7,8,11,13,25,-21,-42
-8,-23,-1,21,-3,-7,8,10,13,25,-21,-43
-8,-23,-1,21,-3,-7,8,10,13,25,-22,-43
-8,-23,-1,21,-3,-7,8,10,13,25,-22,-43
-8,-23,-1,21,-3,-7,8,10,13,25,-22,-43
-8,-26,-2,22,-2,-8,7,9,10,23,-15,-41
-8,-30,-4,24,-1,-10,5,6,7,21,-5,-38
-8,-32,-4,24,-1,-11,5,6,5,20,-2,-37
-8,-32,-4,25,-1,-11,4,6,5,20,-1,-37
-8,-32,-4,25,-1,-11,4,5,5,20,-1,-37
-8,-32,-4,25,-1,-11,4,5,5,20,-1,-37
-8,-32,-4,25,-1,-11,4,5,5,20,-1,-37
