I,II,III,aVR,aVL,aVF,V1,V2,V3,V4,V5,V6
252,265,-14,-275,174,238,-85,56,183,316,342,320
271,300,5,-304,177,286,-194,3,152,323,378,375
307,336,0,-342,203,315,-287,-45,111,303,378,391
322,352,-1,-359,214,329,-350,-85,75,278,368,401
314,285,-75,-320,243,213,-365,-99,46,232,332,371
279,206,-128,-260,245,100,-353,-110,22,177,274,326
236,193,-83,-230,195,120,-343,-143,-19,124,226,285
143,188,42,-175,75,207,-322,-195,-75,61,164,240
61,174,138,-123,-24,264,-305,-242,-143,-12,97,186
-13,152,215,-70,-109,299,-265,-270,-201,-79,35,128
-47,120,222,-35,-134,273,-257,-289,-250,-135,-22,73
-79,66,197,11,-144,204,-240,-280,-256,-154,-47,41
-88,15,143,42,-125,118,-241,-268,-258,-171,-77,-4
-96,-18,113,63,-116,65,-225,-253,-250,-177,-96,-37
-122,-52,104,95,-129,26,-191,-234,-236,-173,-106,-62
-134,-80,86,116,-129,-13,-165,-213,-215,-163,-102,-64
-115,-103,29,117,-90,-76,-135,-193,-199,-163,-110,-86
-100,-122,-16,118,-58,-127,-117,-173,-179,-154,-109,-86
-100,-126,-22,120,-56,-135,-106,-159,-167,-151,-112,-96
-112,-117,8,123,-78,-104,-102,-155,-159,-142,-106,-93
-87,-103,-10,101,-53,-104,-111,-147,-153,-138,-106,-97
-89,-108,-13,106,-53,-112,-116,-135,-139,-126,-92,-84
-101,-92,25,104,-79,-69,-106,-120,-126,-112,-82,-76
-107,-76,53,99,-96,-33,-87,-108,-112,-100,-74,-72
-106,-75,52,98,-94,-33,-66,-99,-102,-92,-68,-72
-110,-68,68,96,-104,-15,-44,-84,-88,-80,-60,-61
-85,-52,52,75,-81,-12,-47,-74,-80,-76,-59,-62
-71,-47,39,64,-65,-17,-36,-57,-63,-67,-51,-52
-71,-38,50,59,-70,0,-20,-41,-50,-56,-42,-40
-47,-29,29,41,-45,-7,-14,-33,-40,-50,-39,-40
-38,-21,26,32,-37,-2,-9,-26,-34,-46,-37,-39
-39,-27,20,36,-35,-12,9,-17,-26,-36,-27,-33
-24,-22,5,25,-18,-18,12,-15,-27,-34,-27,-32
-31,-20,18,28,-29,-7,20,-10,-19,-28,-22,-31
-36,-24,20,32,-32,-9,21,-8,-19,-28,-22,-30
-38,-16,33,30,-40,8,25,-4,-14,-21,-16,-19
-26,-12,22,21,-27,4,25,-2,-14,-27,-24,-31
-27,-11,24,21,-29,7,35,4,-6,-21,-15,-20
-32,-21,18,29,-29,-8,39,7,-5,-21,-20,-26
-18,-17,3,19,-13,-14,36,8,-3,-21,-18,-25
-22,-19,7,22,-17,-13,44,10,-2,-22,-20,-28
-31,-21,16,28,-28,-9,49,10,-0,-15,-13,-20
-20,-20,3,22,-15,-17,43,7,-5,-18,-15,-22
-21,-16,8,20,-18,-9,46,11,-1,-15,-13,-23
-41,-32,16,40,-35,-19,44,9,-2,-15,-14,-26
-28,-19,15,25,-25,-8,43,11,0,-12,-8,-15
-12,-10,5,12,-10,-7,36,10,-1,-19,-15,-24
-16,-14,5,16,-13,-9,39,11,1,-18,-14,-23
-18,-16,5,19,-15,-12,43,13,2,-16,-13,-22
-21,-19,5,22,-16,-14,46,14,4,-15,-13,-21
-24,-21,7,25,-19,-16,50,16,6,-14,-12,-20
-23,-21,5,24,-17,-17,48,16,6,-14,-12,-21
-22,-20,5,23,-16,-16,47,16,6,-13,-12,-21
-19,-19,3,21,-14,-16,46,16,6,-13,-12,-21
-18,-18,3,20,-13,-15,46,17,6,-13,-12,-21
-19,-16,7,20,-16,-11,46,17,7,-12,-11,-21
-19,-14,10,18,-17,-7,47,18,8,-11,-10,-19
-19,-11,13,17,-19,-2,47,19,10,-10,-9,-18
-19,-9,16,15,-20,3,48,20,11,-9,-8,-16
-19,-9,16,15,-20,3,48,20,12,-9,-8,-16
-19,-9,16,15,-20,3,48,21,13,-8,-8,-16
-19,-9,16,15,-20,3,48,22,14,-8,-8,-16
-18,-7,16,14,-20,5,48,23,15,-7,-7,-15
-18,-9,15,15,-19,2,49,23,15,-7,-7,-15
-17,-9,13,14,-17,1,48,24,16,-6,-7,-14
-16,-9,12,14,-16,0,48,25,17,-5,-6,-14
-16,-9,12,14,-16,0,50,26,18,-4,-5,-13
-16,-9,11,13,-15,-1,50,26,19,-3,-5,-13
-16,-7,13,13,-16,2,51,27,20,-3,-5,-12
-15,-6,13,12,-16,3,52,28,21,-2,-4,-11
-15,-5,15,11,-16,6,53,29,22,-2,-3,-10
-15,-5,14,11,-16,5,53,30,23,-1,-2,-10
-15,-4,16,10,-17,8,54,31,24,-0,-2,-9
-14,-3,16,9,-16,9,55,32,26,1,-1,-8
-14,-1,18,9,-18,11,57,33,27,2,0,-7
-13,0,18,8,-17,12,56,34,29,3,1,-6
-12,2,20,7,-17,15,58,36,30,4,2,-5
-12,3,20,6,-16,16,60,37,31,5,2,-3
-12,4,22,5,-17,19,61,39,33,6,4,-1
-10,6,21,3,-16,20,61,40,35,7,4,-2
-9,7,21,2,-15,21,62,41,37,8,6,-0
-7,8,21,1,-14,22,64,43,39,9,6,1
-8,9,23,0,-15,25,65,44,40,10,8,2
-6,11,23,-1,-15,26,66,46,42,12,9,3
-6,13,25,-3,-15,29,69,48,44,13,10,4
-5,14,25,-4,-14,30,71,50,46,15,12,5
-3,17,26,-6,-14,34,73,52,48,16,13,7
-2,18,26,-8,-13,35,73,54,50,18,14,8
0,20,26,-10,-12,37,75,57,53,19,15,9
1,22,26,-11,-11,39,76,59,55,20,17,10
2,24,28,-13,-11,43,77,62,57,22,18,12
4,25,27,-14,-10,44,78,64,60,24,20,13
5,28,29,-16,-10,47,80,67,62,26,22,15
6,29,29,-18,-9,48,82,69,65,28,23,18
7,32,31,-20,-9,52,84,72,68,30,25,20
9,34,31,-22,-8,55,84,74,70,32,27,21
11,37,33,-24,-8,58,86,76,72,34,29,23
13,39,33,-27,-6,61,87,79,75,36,31,25
16,43,34,-30,-5,65,88,81,77,38,33,27
18,45,34,-32,-4,67,90,84,80,40,35,29
19,48,35,-35,-3,71,92,86,82,42,37,31
20,50,37,-36,-4,74,93,89,85,45,40,33
23,54,38,-40,-2,79,94,91,88,47,42,36
25,57,38,-42,-1,82,94,93,90,49,44,38
26,60,40,-44,-1,85,95,95,92,51,46,41
28,62,40,-47,0,87,95,97,95,53,48,43
30,66,42,-49,1,92,96,99,97,56,50,46
31,67,42,-51,1,94,96,100,98,58,53,48
34,70,42,-54,3,96,97,102,100,59,55,50
35,71,42,-55,4,97,97,103,102,61,57,52
37,74,42,-58,5,100,97,104,104,63,59,55
40,76,42,-60,7,102,95,105,105,64,60,57
41,79,44,-62,7,105,95,105,106,66,62,59
42,81,46,-64,7,109,94,106,107,68,63,61
43,84,47,-66,7,113,94,107,108,69,66,64
44,85,47,-67,8,114,93,106,108,70,66,64
45,86,48,-68,7,116,91,106,108,71,68,67
46,87,48,-70,8,117,90,105,107,71,69,68
47,90,50,-71,8,120,89,105,107,72,70,69
47,90,50,-71,8,120,86,103,106,72,70,70
48,91,50,-72,9,121,83,102,105,72,71,71
49,92,50,-74,9,123,81,100,104,72,72,72
50,94,50,-75,10,124,79,99,103,72,72,73
49,92,50,-74,9,123,75,96,101,71,73,73
49,92,50,-74,9,123,72,93,99,71,72,73
49,92,50,-74,9,123,70,90,96,70,73,73
49,92,50,-74,9,123,66,88,94,70,72,73
49,91,49,-73,10,121,63,84,91,68,71,72
48,90,48,-72,10,120,59,80,88,66,70,71
47,88,48,-71,9,118,54,77,85,64,69,70
46,87,48,-70,8,117,52,73,82,63,68,69
43,84,47,-66,7,113,48,70,78,60,66,68
42,81,46,-64,7,109,43,66,75,58,65,66
41,79,44,-62,7,105,39,62,71,56,63,64
39,76,42,-60,7,102,36,59,68,54,61,62
38,74,41,-58,7,99,32,55,64,52,59,59
37,71,39,-57,7,95,30,51,61,49,57,57
36,68,37,-54,7,91,26,47,57,46,54,55
34,66,37,-51,5,88,22,44,53,44,52,53
33,64,36,-50,5,85,20,41,50,41,49,50
30,61,36,-47,4,83,19,38,46,39,47,48
29,58,35,-45,3,80,16,35,43,37,44,44
28,57,34,-44,3,78,15,32,40,34,42,43
26,53,33,-41,2,74,12,30,37,32,39,39
24,49,31,-38,2,68,10,27,34,30,37,36
21,46,29,-35,1,65,8,25,31,27,34,33
20,43,28,-32,1,61,7,22,28,25,31,30
19,39,24,-30,2,54,5,20,26,23,29,27
16,35,23,-26,1,49,3,18,24,20,26,23
15,32,20,-24,1,44,2,16,22,18,23,21
13,28,18,-21,1,39,1,14,20,16,21,18
12,24,14,-19,2,33,-1,13,18,14,19,14
10,21,13,-15,1,28,-1,11,16,13,17,12
8,17,10,-12,1,23,-2,10,14,11,15,10
7,14,8,-11,2,19,-2,9,12,9,13,8
5,12,8,-8,0,16,-3,8,11,7,11,6
4,10,8,-7,-1,15,-3,7,9,6,9,5
1,8,8,-4,-2,13,-3,6,8,5,8,3
0,7,8,-3,-3,11,-3,5,7,4,6,2
-0,6,8,-2,-4,10,-5,4,6,3,5,-0
-2,4,8,-1,-4,9,-4,4,5,2,4,-1
-3,3,8,1,-5,8,-6,3,4,1,2,-4
-4,2,8,2,-6,7,-6,3,3,0,2,-5
-5,0,7,3,-6,4,-7,2,2,-1,1,-6
-6,-1,7,4,-7,3,-8,2,1,-1,0,-7
-7,-3,7,6,-7,2,-8,1,1,-2,-1,-8
-6,-2,7,5,-7,2,-7,0,0,-2,-1,-8
-8,-4,7,7,-8,1,-9,0,-0,-3,-1,-9
-9,-5,7,8,-9,0,-9,0,-1,-4,-2,-10
-10,-6,7,9,-10,-2,-9,-0,-1,-5,-2,-11
-10,-6,7,9,-10,-2,-9,-0,-2,-6,-3,-11
-11,-7,7,10,-10,-3,-10,-1,-2,-6,-4,-12
-11,-7,7,10,-10,-3,-10,-1,-3,-7,-4,-12
-12,-9,7,12,-11,-4,-10,-1,-3,-7,-5,-12
-12,-9,7,12,-11,-4,-10,-1,-4,-7,-5,-12
-12,-10,5,12,-10,-7,-10,-2,-4,-8,-6,-13
-13,-11,5,13,-11,-8,-10,-2,-4,-8,-6,-13
-13,-12,3,14,-10,-9,-10,-2,-5,-9,-7,-13
-13,-12,3,14,-10,-9,-10,-2,-5,-9,-7,-13
-15,-14,3,15,-11,-11,-10,-3,-6,-10,-7,-14
-15,-14,3,15,-11,-11,-10,-3,-6,-10,-7,-14
-15,-14,3,15,-11,-11,-10,-3,-6,-10,-8,-14
-15,-14,3,15,-11,-11,-9,-3,-6,-10,-8,-14
-15,-14,3,15,-11,-11,-9,-3,-6,-11,-9,-15
-15,-14,3,15,-11,-11,-9,-3,-6,-11,-9,-15
-15,-14,3,15,-11,-11,-9,-3,-7,-11,-9,-15
-15,-14,3,15,-11,-11,-9,-3,-7,-11,-9,-15
-15,-14,3,15,-11,-11,-9,-4,-7,-12,-9,-16
-15,-14,3,15,-11,-11,-9,-4,-7,-12,-9,-16
-15,-14,3,15,-11,-11,-9,-4,-7,-12,-9,-16
-14,-12,5,14,-12,-9,-9,-4,-7,-12,-9,-16
-15,-14,3,15,-11,-11,-9,-4,-7,-13,-9,-16
-15,-14,3,15,-11,-11,-9,-4,-7,-13,-9,-16
-15,-14,3,15,-11,-11,-9,-4,-7,-13,-9,-16
-15,-14,3,15,-11,-11,-9,-4,-7,-13,-9,-16
-15,-14,3,15,-11,-11,-10,-4,-7,-13,-9,-16
-14,-12,5,14,-12,-9,-10,-4,-7,-13,-9,-16
-14,-12,5,14,-12,-9,-10,-4,-7,-13,-9,-16
-15,-11,7,14,-13,-7,-10,-4,-7,-12,-9,-15
-16,-11,8,15,-14,-6,-12,-4,-7,-12,-9,-15
-16,-10,10,14,-15,-3,-12,-4,-7,-12,-8,-14
-16,-9,11,13,-15,-1,-12,-4,-7,-12,-8,-14
-16,-7,13,13,-16,2,-12,-4,-6,-11,-7,-13
-14,-7,11,12,-15,1,-13,-4,-7,-11,-7,-13
-13,-6,11,11,-14,2,-13,-4,-7,-11,-7,-12
-13,-6,11,11,-14,2,-14,-4,-7,-11,-7,-12
-12,-5,11,9,-13,3,-14,-4,-7,-11,-7,-11
-12,-5,11,9,-13,3,-14,-4,-7,-11,-7,-11
-12,-5,11,9,-13,3,-14,-4,-7,-11,-7,-11
-12,-5,11,9,-13,3,-14,-4,-7,-11,-7,-11
-13,-5,13,10,-15,5,-13,-4,-6,-10,-6,-10
-12,-5,11,9,-13,3,-14,-4,-6,-10,-6,-10
-12,-5,11,9,-13,3,-14,-4,-6,-10,-6,-10
-12,-5,11,9,-13,3,-14,-4,-6,-10,-6,-10
-12,-5,11,9,-13,3,-14,-4,-6,-10,-5,-9
-12,-5,11,9,-13,3,-15,-4,-6,-10,-5,-9
-12,-5,11,9,-13,3,-15,-4,-6,-9,-4,-8
-12,-5,11,9,-13,3,-15,-4,-6,-9,-4,-8
-12,-4,13,9,-14,6,-15,-4,-6,-9,-4,-7
-11,-4,11,8,-12,4,-17,-5,-6,-9,-4,-7
-11,-4,11,8,-12,4,-17,-5,-6,-9,-4,-7
-11,-4,11,8,-12,4,-18,-5,-6,-9,-4,-7
-11,-4,11,8,-12,4,-18,-5,-6,-9,-3,-7
-11,-5,10,9,-12,2,-20,-5,-6,-9,-3,-7
-10,-5,8,8,-10,1,-20,-5,-6,-8,-2,-7
-9,-5,7,8,-9,0,-20,-5,-6,-8,-2,-7
-9,-5,7,8,-9,0,-20,-5,-6,-8,-2,-5
-7,-5,5,7,-7,-2,-21,-5,-6,-8,-2,-5
-7,-5,5,7,-7,-2,-21,-5,-6,-8,-2,-5
-7,-5,5,7,-7,-2,-21,-5,-6,-8,-2,-5
-7,-5,5,7,-7,-2,-21,-5,-6,-7,-1,-5
-8,-6,3,8,-7,-4,-22,-5,-6,-7,-1,-5
-8,-6,3,8,-7,-4,-22,-5,-6,-7,-1,-5
-8,-6,3,8,-7,-4,-22,-5,-6,-7,-1,-5
-8,-6,3,8,-7,-4,-22,-5,-6,-7,-1,-5
-8,-6,3,8,-7,-4,-24,-6,-6,-7,-1,-5
-8,-6,3,8,-7,-4,-24,-6,-6,-7,-1,-5
-8,-6,3,8,-7,-4,-24,-6,-7,-7,-1,-5
-8,-6,3,8,-7,-4,-24,-6,-7,-7,-1,-5
-7,-7,1,8,-5,-7,-25,-6,-7,-7,-2,-5
-7,-7,1,8,-5,-7,-25,-6,-7,-7,-2,-5
-6,-7,0,8,-4,-8,-25,-6,-7,-8,-2,-7
-6,-7,0,8,-4,-8,-25,-6,-7,-8,-2,-7
-7,-9,-1,9,-4,-9,-26,-6,-7,-8,-3,-7
-7,-9,-1,9,-4,-9,-26,-6,-7,-8,-3,-7
-6,-10,-3,9,-2,-12,-26,-6,-7,-8,-3,-7
-6,-10,-3,9,-2,-12,-26,-6,-7,-8,-3,-7
-6,-10,-3,9,-2,-12,-26,-6,-7,-8,-3,-7
-6,-10,-3,9,-2,-12,-26,-6,-7,-8,-3,-7
-6,-10,-3,9,-2,-12,-26,-6,-7,-8,-3,-7
-7,-9,-1,9,-4,-9,-26,-6,-7,-8,-3,-7
-7,-9,-1,9,-4,-9,-26,-7,-7,-8,-4,-8
-7,-9,-1,9,-4,-9,-26,-7,-7,-8,-4,-8
-7,-9,-1,9,-4,-9,-26,-7,-7,-8,-4,-8
-6,-7,-1,7,-3,-9,-26,-7,-7,-8,-4,-8
-6,-9,-3,8,-2,-11,-28,-7,-7,-8,-4,-9
-6,-9,-3,8,-2,-11,-28,-7,-7,-8,-4,-9
-5,-9,-5,7,-1,-12,-28,-7,-8,-8,-4,-9
-5,-9,-5,7,-1,-12,-28,-7,-8,-8,-4,-9
-4,-10,-7,8,1,-14,-28,-7,-8,-9,-4,-10
-4,-10,-7,8,1,-14,-28,-7,-8,-9,-4,-10
-6,-11,-7,9,-1,-16,-28,-7,-8,-9,-5,-11
-6,-11,-7,9,-1,-16,-28,-7,-7,-9,-5,-11
-6,-12,-7,10,-1,-17,-28,-7,-7,-9,-5,-11
-6,-12,-7,10,-1,-17,-28,-7,-7,-8,-5,-11
-8,-14,-7,12,-2,-18,-28,-7,-7,-8,-5,-11
-9,-14,-5,12,-4,-17,-28,-6,-7,-8,-5,-11
-9,-14,-5,12,-4,-17,-28,-7,-8,-8,-6,-12
-9,-14,-5,12,-4,-17,-28,-7,-8,-8,-6,-12
-9,-14,-5,12,-4,-17,-28,-7,-8,-9,-7,-13
-9,-12,-3,11,-4,-14,-28,-7,-8,-9,-7,-13
-9,-12,-3,11,-4,-14,-28,-7,-8,-9,-7,-14
-10,-12,-1,12,-6,-13,-28,-7,-8,-9,-7,-14
-10,-12,-1,12,-6,-13,-28,-7,-8,-9,-7,-14
-10,-11,0,12,-7,-11,-28,-7,-8,-9,-7,-14
-9,-11,-1,11,-5,-12,-28,-8,-9,-9,-7,-14
-9,-11,-1,11,-5,-12,-28,-8,-9,-9,-7,-14
-9,-11,-1,11,-5,-12,-28,-8,-9,-9,-7,-14
-9,-11,-1,11,-5,-12,-28,-8,-9,-9,-7,-14
-9,-12,-3,11,-4,-14,-28,-8,-9,-9,-7,-15
-9,-12,-3,11,-4,-14,-28,-8,-8,-9,-7,-15
-9,-12,-3,11,-4,-14,-28,-8,-8,-9,-7,-15
-9,-12,-3,11,-4,-14,-26,-8,-8,-9,-7,-15
-8,-12,-5,11,-3,-15,-26,-8,-8,-9,-7,-16
-8,-12,-5,11,-3,-15,-26,-8,-8,-9,-7,-16
-8,-12,-5,11,-3,-15,-26,-8,-8,-9,-7,-16
-8,-12,-5,11,-3,-15,-26,-8,-8,-9,-6,-16
-8,-14,-7,12,-2,-18,-26,-8,-8,-10,-7,-16
-8,-14,-7,12,-2,-18,-26,-8,-8,-10,-7,-16
-8,-14,-7,12,-2,-18,-26,-8,-8,-10,-7,-16
-8,-14,-7,12,-2,-18,-26,-8,-8,-10,-7,-16
-9,-15,-7,13,-2,-19,-26,-8,-8,-10,-7,-17
-9,-15,-7,13,-2,-19,-26,-8,-8,-10,-7,-17
-9,-15,-7,13,-2,-19,-26,-8,-8,-10,-7,-17
-9,-15,-7,13,-2,-19,-25,-8,-8,-10,-7,-17
-9,-16,-8,14,-2,-22,-25,-8,-8,-10,-8,-17
-9,-16,-8,14,-2,-22,-25,-8,-8,-10,-8,-17
-9,-17,-10,14,-1,-24,-25,-8,-8,-10,-8,-17
-9,-17,-10,14,-1,-24,-25,-8,-8,-9,-8,-17
-8,-17,-11,13,0,-25,-25,-8,-8,-9,-9,-17
-8,-17,-11,13,0,-25,-25,-8,-8,-9,-9,-17
-8,-17,-11,13,0,-25,-25,-8,-8,-9,-9,-17
-8,-17,-11,13,0,-25,-24,-8,-8,-9,-9,-16
-9,-19,-11,15,-1,-27,-24,-8,-8,-9,-9,-16
-9,-19,-11,15,-1,-27,-24,-8,-8,-9,-9,-16
-9,-19,-11,15,-1,-27,-24,-8,-9,-9,-9,-16
-10,-19,-10,15,-2,-26,-24,-8,-9,-9,-9,-16
-10,-19,-10,15,-2,-26,-24,-8,-9,-9,-10,-16
-9,-17,-10,14,-1,-24,-24,-8,-9,-9,-10,-16
-9,-17,-10,14,-1,-24,-24,-8,-9,-9,-10,-16
-9,-16,-8,14,-2,-22,-22,-8,-9,-9,-10,-16
-10,-17,-8,15,-3,-23,-22,-8,-9,-9,-10,-17
-10,-17,-8,15,-3,-23,-22,-8,-9,-9,-10,-17
-10,-17,-8,15,-3,-23,-22,-8,-9,-9,-10,-17
-11,-17,-7,15,-4,-22,-22,-8,-9,-9,-10,-17
-11,-17,-7,15,-4,-22,-22,-8,-10,-9,-10,-17
-12,-16,-5,15,-5,-19,-22,-8,-10,-9,-10,-17
-12,-16,-5,15,-5,-19,-22,-8,-10,-9,-10,-17
-11,-15,-3,14,-5,-17,-21,-8,-10,-9,-10,-16
-11,-15,-3,14,-5,-17,-21,-8,-10,-9,-10,-16
-12,-15,-1,15,-7,-15,-21,-8,-10,-9,-10,-16
-12,-15,-1,15,-7,-15,-21,-8,-10,-9,-10,-16
-13,-15,0,15,-9,-14,-20,-8,-10,-9,-10,-16
-12,-15,-1,15,-7,-15,-20,-8,-10,-9,-10,-16
-11,-15,-3,14,-5,-17,-18,-8,-10,-9,-10,-16
-10,-15,-5,13,-4,-18,-18,-8,-10,-9,-10,-16
-10,-15,-5,13,-4,-18,-17,-8,-10,-9,-9,-16
-12,-16,-5,15,-5,-19,-17,-8,-10,-9,-9,-16
-12,-16,-5,15,-5,-19,-15,-8,-10,-9,-9,-16
-12,-16,-5,15,-5,-19,-15,-8,-10,-9,-9,-16
-12,-16,-5,15,-5,-19,-14,-8,-10,-9,-9,-15
-10,-16,-7,14,-4,-21,-14,-8,-10,-10,-9,-16
-10,-16,-7,14,-4,-21,-14,-8,-10,-10,-9,-16
-10,-16,-7,14,-4,-21,-14,-8,-10,-10,-9,-16
-9,-15,-7,13,-2,-19,-13,-8,-9,-10,-9,-16
-10,-16,-7,14,-4,-21,-13,-8,-9,-10,-9,-16
-12,-16,-5,15,-5,-19,-12,-8,-9,-10,-9,-16
-12,-16,-5,15,-5,-19,-12,-8,-9,-10,-9,-16
-12,-16,-3,15,-7,-18,-10,-8,-9,-9,-9,-15
-12,-16,-5,15,-5,-19,-10,-8,-9,-9,-10,-16
-10,-16,-7,14,-4,-21,-10,-8,-9,-9,-10,-16
-9,-16,-8,14,-2,-22,-10,-8,-9,-9,-10,-16
-9,-16,-8,14,-2,-22,-9,-8,-8,-9,-10,-16
-9,-16,-8,14,-2,-22,-9,-8,-8,-9,-10,-16
-9,-16,-8,14,-2,-22,-9,-8,-8,-9,-10,-16
-9,-16,-8,14,-2,-22,-9,-8,-8,-9,-10,-16
-9,-15,-7,13,-2,-19,-7,-8,-8,-9,-9,-15
-9,-16,-8,14,-2,-22,-7,-8,-9,-9,-10,-16
-9,-16,-8,14,-2,-22,-7,-8,-9,-9,-11,-16
-8,-16,-10,13,-1,-23,-7,-8,-9,-10,-11,-17
-8,-16,-10,13,-1,-23,-7,-8,-9,-10,-11,-17
-9,-17,-10,14,-1,-24,-7,-9,-9,-10,-11,-18
-10,-17,-8,15,-3,-23,-7,-9,-9,-10,-11,-18
-10,-17,-8,15,-3,-23,-7,-9,-9,-10,-11,-18
-11,-17,-7,15,-4,-22,-7,-9,-9,-10,-11,-18
-12,-19,-8,16,-4,-24,-7,-9,-9,-10,-12,-18
-10,-19,-10,15,-2,-26,-7,-9,-9,-10,-12,-18
-9,-19,-11,15,-1,-27,-7,-9,-9,-10,-12,-18
-9,-19,-11,15,-1,-27,-7,-9,-9,-10,-12,-18
-9,-19,-11,15,-1,-27,-7,-9,-9,-10,-13,-18
-10,-19,-10,15,-2,-26,-7,-9,-9,-10,-13,-18
-10,-19,-10,15,-2,-26,-7,-9,-9,-10,-13,-18
-10,-17,-8,15,-3,-23,-6,-9,-9,-10,-13,-17
-10,-19,-10,15,-2,-26,-6,-9,-9,-10,-13,-17
-9,-19,-11,15,-1,-27,-6,-9,-9,-10,-13,-16
-8,-19,-13,14,1,-28,-6,-9,-9,-10,-13,-16
-8,-19,-13,14,1,-28,-4,-9,-9,-9,-12,-15
-8,-20,-14,15,2,-29,-4,-9,-9,-10,-12,-15
-8,-20,-14,15,2,-29,-3,-9,-9,-10,-12,-15
-8,-20,-14,15,2,-29,-3,-9,-9,-10,-12,-15
-8,-20,-14,15,2,-29,-2,-8,-9,-10,-12,-15
-8,-21,-16,15,2,-32,-2,-8,-9,-10,-12,-16
-8,-21,-16,15,2,-32,-2,-8,-9,-10,-12,-16
-8,-22,-18,16,3,-34,-2,-8,-9,-10,-12,-16
-8,-22,-18,16,3,-34,-1,-8,-9,-9,-12,-16
-8,-22,-18,16,3,-34,-1,-8,-9,-9,-12,-16
-8,-21,-16,15,2,-32,-1,-8,-9,-9,-12,-16
-9,-21,-14,16,1,-31,-1,-8,-9,-9,-12,-16
-9,-20,-13,15,1,-28,1,-7,-9,-9,-12,-16
-9,-20,-13,15,1,-28,1,-7,-9,-9,-13,-16
-9,-20,-13,15,1,-28,1,-7,-9,-9,-13,-16
-9,-20,-13,15,1,-28,1,-7,-9,-9,-13,-16
-8,-19,-13,14,1,-28,2,-7,-9,-9,-13,-16
-8,-19,-13,14,1,-28,2,-7,-10,-9,-13,-16
-9,-19,-11,15,-1,-27,3,-7,-10,-9,-13,-15
-9,-19,-11,15,-1,-27,3,-7,-10,-9,-13,-15
-10,-19,-10,15,-2,-26,5,-7,-10,-9,-12,-14
-9,-19,-11,15,-1,-27,5,-8,-11,-9,-13,-15
-9,-19,-11,15,-1,-27,5,-8,-11,-9,-13,-15
-8,-19,-13,14,1,-28,5,-8,-11,-9,-13,-15
-6,-17,-13,13,2,-27,5,-8,-11,-9,-13,-15
-6,-17,-13,13,2,-27,5,-8,-11,-9,-13,-15
-8,-17,-11,13,0,-25,5,-8,-11,-9,-13,-15
-9,-17,-10,14,-1,-24,5,-8,-11,-9,-13,-15
-10,-17,-8,15,-3,-23,6,-8,-11,-9,-13,-15
-9,-17,-10,14,-1,-24,6,-8,-11,-9,-13,-16
-9,-17,-10,14,-1,-24,6,-8,-11,-9,-13,-16
-9,-17,-10,14,-1,-24,6,-8,-11,-9,-13,-16
-9,-17,-10,14,-1,-24,6,-8,-11,-9,-13,-16
-10,-19,-10,15,-2,-26,6,-8,-11,-9,-13,-16
-10,-19,-10,15,-2,-26,6,-7,-11,-9,-13,-16
-10,-19,-10,15,-2,-26,6,-7,-11,-9,-13,-16
-10,-19,-10,15,-2,-26,8,-7,-10,-9,-13,-16
-9,-19,-11,15,-1,-27,6,-7,-11,-9,-13,-16
-9,-19,-11,15,-1,-27,6,-7,-11,-9,-13,-16
-8,-19,-13,14,1,-28,6,-7,-11,-9,-13,-16
-6,-17,-13,13,2,-27,6,-7,-11,-9,-13,-16
-6,-17,-13,13,2,-27,6,-7,-11,-9,-13,-16
-6,-17,-13,13,2,-27,6,-7,-10,-9,-13,-15
-6,-17,-13,13,2,-27,6,-7,-10,-9,-13,-15
-7,-16,-11,12,1,-24,8,-6,-10,-8,-12,-14
-6,-15,-11,11,2,-23,7,-6,-9,-8,-12,-14
-4,-12,-10,9,2,-19,8,-6,-9,-7,-11,-13
-3,-11,-10,8,2,-18,8,-5,-8,-7,-10,-12
-2,-9,-8,6,2,-14,8,-5,-8,-6,-9,-11
-2,-8,-7,6,2,-12,8,-5,-7,-6,-8,-10
-1,-5,-5,4,1,-9,9,-4,-7,-5,-7,-9
0,-2,-3,1,2,-5,10,-4,-5,-4,-7,-8
0,0,0,1,0,-1,12,-2,-5,-3,-5,-7
1,2,0,-1,1,1,12,-2,-4,-2,-5,-7
2,3,0,-2,2,2,13,-2,-3,-2,-4,-5
4,4,0,-4,3,4,14,-1,-3,-1,-3,-5
6,7,0,-6,4,6,15,0,-2,-0,-2,-3
7,8,0,-7,5,7,15,0,-1,0,-2,-3
9,10,0,-10,7,9,16,1,-1,2,-1,-2
11,12,0,-11,7,10,16,1,-0,2,-0,-0
12,14,2,-13,7,14,17,1,1,3,0,2
13,14,0,-14,9,13,16,2,1,4,0,3
15,15,-1,-15,11,13,15,2,1,4,1,4
18,17,-3,-18,13,13,13,2,2,5,2,5
18,18,-3,-19,14,14,12,2,3,5,2,6
19,18,-3,-19,15,14,9,2,3,5,2,7
20,19,-3,-20,15,15,6,2,3,6,3,8
21,20,-3,-21,16,16,3,2,3,6,4,9
21,22,-2,-22,15,19,2,2,3,7,4,10
21,21,-3,-22,16,17,-1,1,2,6,3,9
21,19,-5,-21,16,14,-2,0,1,5,2,9
21,18,-7,-20,17,11,-3,-0,1,5,2,8
20,17,-7,-19,16,10,-5,-1,-0,4,1,8
19,14,-8,-17,17,7,-6,-2,-2,3,-0,6
17,13,-8,-15,15,6,-6,-3,-3,2,-1,5
15,10,-8,-13,15,3,-6,-4,-4,1,-2,3
14,9,-8,-12,14,2,-6,-5,-4,-0,-2,2
13,6,-12,-10,15,-4,-6,-5,-6,-1,-4,-0
12,3,-13,-8,15,-7,-6,-6,-7,-2,-5,-1
12,0,-16,-6,15,-12,-6,-7,-8,-3,-7,-3
11,-2,-18,-5,16,-15,-5,-8,-9,-5,-7,-3
10,-5,-20,-3,16,-19,-4,-8,-10,-6,-8,-5
8,-8,-21,0,15,-23,-3,-8,-10,-6,-9,-6
7,-10,-23,2,15,-27,-2,-8,-11,-7,-9,-7
6,-11,-23,3,15,-28,-1,-8,-11,-7,-10,-8
3,-14,-22,6,13,-29,-1,-8,-11,-8,-11,-9
1,-16,-23,8,12,-32,1,-8,-11,-8,-12,-10
-1,-19,-23,10,10,-35,1,-8,-12,-9,-12,-11
-3,-20,-21,12,8,-34,2,-8,-12,-9,-12,-12
-6,-21,-20,14,5,-35,2,-8,-12,-10,-13,-13
-7,-22,-18,16,4,-35,4,-8,-13,-10,-13,-14
-10,-24,-16,18,1,-35,4,-9,-13,-11,-14,-15
-11,-24,-15,19,0,-34,5,-9,-13,-11,-15,-15
-12,-25,-15,20,-1,-35,4,-9,-14,-12,-16,-16
-15,-26,-13,22,-4,-35,5,-10,-14,-12,-16,-17
-16,-28,-13,24,-4,-36,5,-10,-15,-13,-17,-18
-17,-27,-11,24,-6,-34,5,-10,-15,-13,-18,-19
-17,-29,-13,25,-5,-37,4,-11,-15,-14,-18,-20
-18,-30,-13,26,-6,-39,4,-11,-16,-14,-19,-21
-20,-31,-12,27,-7,-39,3,-11,-16,-15,-20,-21
-19,-31,-13,27,-7,-40,4,-11,-17,-15,-20,-21
-20,-33,-14,28,-6,-42,2,-12,-17,-16,-20,-22
-20,-33,-14,28,-6,-42,2,-12,-17,-16,-20,-23
-20,-34,-16,29,-5,-44,1,-12,-17,-16,-21,-23
-20,-34,-16,29,-5,-44,1,-12,-16,-16,-21,-23
-20,-35,-16,29,-5,-46,1,-12,-16,-15,-21,-23
-23,-36,-14,32,-9,-46,2,-11,-16,-15,-22,-23
-25,-37,-13,33,-10,-46,3,-10,-16,-14,-23,-23
-27,-38,-12,35,-12,-46,5,-9,-16,-13,-23,-23
-19,-35,-18,29,-4,-46,1,-12,-18,-14,-20,-18
-10,-31,-26,22,5,-49,-8,-15,-21,-19,-28,-26
-21,-35,-15,30,-7,-45,-2,-12,-15,-15,-24,-23
-27,-37,-10,35,-13,-43,2,-9,-15,-14,-22,-19
-22,-34,-13,30,-8,-42,2,-11,-15,-15,-23,-21
-18,-32,-16,27,-4,-43,-1,-11,-16,-16,-24,-26
-22,-43,-25,35,-2,-59,-2,-11,-16,-14,-22,-22
-20,-32,-13,28,-7,-41,1,-10,-17,-13,-20,-23
-31,-34,0,35,-20,-32,-2,-10,-17,-13,-21,-21
-19,-40,-24,31,-1,-56,2,-11,-18,-14,-23,-24
-24,-39,-16,33,-8,-49,-2,-11,-17,-14,-24,-20
-26,-38,-12,35,-12,-45,6,-8,-15,-16,-27,-28
-30,-39,-8,37,-15,-44,22,3,-5,-11,-26,-27
-31,-41,-10,39,-16,-46,44,14,2,-10,-31,-40
-49,-30,31,43,-46,-7,62,25,13,-3,-26,-36
-36,-26,16,33,-31,-13,69,33,23,9,-20,-33
-35,-16,28,28,-36,5,68,40,37,28,-1,-15
-1,-4,-3,3,1,-7,65,47,48,49,20,2
27,11,-24,-20,29,-8,63,66,74,78,45,18
58,17,-60,-40,67,-28,79,97,109,112,74,43
83,44,-60,-68,84,-2,95,127,142,149,112,79
115,75,-66,-102,108,22,89,135,163,178,139,102
132,85,-78,-116,125,23,87,137,177,206,175,136
162,105,-93,-143,151,30,61,130,190,237,211,173
200,138,-104,-181,181,53,32,127,208,272,256,221
231,191,-80,-226,191,120,-30,94,200,295,298,274
253,251,-33,-269,183,213,-133,41,175,309,341,334
304,292,-53,-318,227,235,-241,-14,139,303,354,364
317,325,-27,-342,223,286,-314,-58,105,286,357,384
332,318,-59,-347,248,256,-374,-95,67,253,339,387
340,242,-168,-313,304,105,-390,-108,38,199,290,341
317,179,-216,-268,311,10,-380,-126,8,143,230,288
238,162,-127,-215,217,60,-376,-166,-34,95,188,261
145,164,7,-164,93,158,-355,-221,-96,33,131,219
50,165,143,-112,-33,259,-329,-266,-159,-28,74,174
-15,134,194,-60,-100,267,-302,-298,-223,-92,13,113
-63,92,209,-11,-139,238,-292,-311,-257,-130,-29,71
-69,50,163,13,-121,165,-285,-301,-267,-157,-68,26
-82,2,117,45,-109,86,-273,-283,-261,-166,-88,-10
-110,-43,100,83,-119,31,-243,-268,-254,-172,-106,-41
-112,-63,77,95,-110,-4,-218,-249,-238,-168,-114,-61
-107,-97,26,110,-83,-73,-198,-228,-222,-166,-122,-77
-113,-128,-5,129,-73,-125,-157,-200,-197,-155,-121,-88
-101,-128,-23,122,-56,-138,-143,-185,-186,-151,-121,-96
-112,-120,3,124,-75,-111,-137,-174,-175,-145,-121,-95
-124,-110,33,126,-97,-81,-141,-166,-166,-136,-115,-95
-115,-116,13,124,-82,-100,-143,-152,-153,-126,-105,-84
-91,-101,-2,103,-59,-98,-151,-140,-142,-117,-101,-86
-91,-94,7,99,-63,-84,-133,-126,-126,-106,-92,-80
-93,-80,27,93,-74,-56,-109,-114,-114,-95,-85,-72
-92,-72,37,88,-78,-41,-79,-99,-100,-82,-79,-66
-85,-64,37,80,-73,-34,-73,-89,-92,-76,-72,-63
-82,-60,38,77,-71,-29,-64,-73,-76,-66,-64,-54
-75,-49,42,67,-69,-16,-54,-57,-64,-58,-55,-45
-60,-40,34,55,-56,-13,-39,-42,-51,-49,-50,-38
-55,-31,37,47,-54,-3,-32,-32,-43,-44,-46,-41
-54,-30,38,46,-53,-1,-22,-25,-34,-36,-40,-33
-53,-34,31,47,-49,-9,-13,-21,-33,-34,-37,-31
-40,-31,16,39,-34,-18,1,-14,-24,-26,-31,-28
-24,-34,-10,31,-11,-40,2,-11,-22,-24,-29,-28
-18,-25,-7,23,-9,-28,2,-10,-19,-22,-28,-26
-21,-17,8,21,-18,-11,5,-8,-20,-22,-29,-28
-44,-24,31,37,-43,0,16,0,-12,-17,-22,-20
-25,-24,5,27,-19,-19,9,-2,-13,-20,-26,-23
-22,-23,1,24,-15,-21,10,1,-11,-18,-24,-20
-24,-35,-12,31,-10,-42,18,3,-11,-21,-29,-28
-29,-40,-12,37,-13,-47,18,3,-9,-18,-24,-20
-29,-42,-14,38,-12,-51,16,3,-11,-20,-27,-23
-26,-32,-5,31,-15,-35,22,6,-4,-13,-23,-23
-22,-26,-3,26,-13,-28,24,6,-5,-11,-20,-20
-26,-29,0,30,-17,-28,24,8,-4,-10,-17,-16
-25,-26,2,28,-18,-24,20,8,-6,-13,-23,-23
-24,-28,-2,28,-15,-28,20,9,-4,-13,-23,-22
-23,-27,-3,27,-13,-28,20,10,-4,-13,-22,-21
-22,-28,-5,27,-12,-30,20,10,-3,-12,-21,-20
-21,-28,-7,26,-10,-31,21,11,-2,-12,-20,-19
-20,-27,-7,26,-10,-31,22,12,-1,-11,-21,-19
-20,-26,-5,25,-11,-29,25,12,-0,-10,-21,-18
-20,-26,-5,25,-11,-29,27,13,0,-10,-22,-18
-21,-25,-3,25,-12,-27,30,14,1,-8,-22,-17
-19,-24,-3,23,-11,-26,31,15,2,-8,-21,-17
-19,-23,-2,23,-12,-24,32,16,3,-7,-20,-16
-19,-21,0,22,-13,-21,34,17,5,-6,-20,-15
-19,-20,1,21,-13,-18,36,19,6,-5,-19,-14
-18,-19,2,20,-13,-17,36,19,7,-5,-19,-14
-18,-17,3,19,-13,-14,38,20,7,-5,-19,-14
-18,-16,5,19,-14,-12,39,21,9,-4,-19,-14
-18,-15,7,19,-15,-10,40,22,10,-3,-18,-13
-18,-15,7,18,-15,-9,41,22,10,-3,-18,-13
-18,-15,7,19,-15,-10,42,23,11,-2,-17,-12
-18,-15,7,19,-15,-10,43,24,12,-2,-16,-12
-17,-14,7,17,-14,-9,44,25,13,-1,-16,-11
-16,-14,5,16,-13,-9,44,25,14,-1,-15,-11
-16,-14,5,16,-12,-10,46,26,16,-0,-14,-10
-16,-14,5,16,-13,-9,47,27,16,0,-13,-9
-15,-12,5,15,-12,-9,49,28,18,1,-12,-8
-15,-12,5,15,-12,-9,50,29,19,1,-12,-8
-13,-11,5,13,-11,-8,52,30,20,2,-11,-7
-13,-11,5,13,-11,-8,53,31,21,2,-10,-7
-12,-10,5,12,-10,-7,54,32,22,4,-9,-5
-12,-9,7,12,-11,-4,54,33,24,4,-9,-6
-12,-6,8,10,-12,0,55,35,25,5,-8,-5
-12,-5,10,9,-12,2,57,36,26,6,-7,-3
-11,-3,12,8,-12,6,58,37,28,7,-7,-3
-9,-1,12,6,-12,7,58,39,29,8,-7,-3
-7,1,11,4,-10,8,59,40,31,9,-6,-2
-6,2,11,3,-9,9,61,42,32,10,-5,-1
-5,3,11,2,-8,10,63,44,34,11,-5,-0
-4,4,11,1,-7,11,64,46,36,12,-4,1
-3,7,13,-1,-8,15,65,48,38,13,-3,2
-2,8,13,-3,-7,16,66,50,39,15,-2,3
-1,11,15,-4,-7,20,68,53,42,16,-1,4
0,12,15,-5,-7,21,70,55,44,17,-0,5
1,14,16,-7,-6,25,73,58,46,19,0,6
2,15,16,-8,-5,26,76,60,48,20,1,7
4,18,18,-10,-5,29,79,63,51,22,2,9
4,19,20,-11,-6,32,80,66,53,24,3,10
5,22,21,-13,-6,35,83,69,56,26,4,12
6,24,23,-15,-6,39,86,72,58,27,6,14
7,27,24,-17,-6,43,88,74,61,29,8,16
10,29,24,-20,-4,45,89,77,63,31,9,18
11,32,26,-22,-5,48,93,80,66,33,11,21
13,34,26,-24,-3,51,95,83,69,35,13,23
14,37,27,-26,-3,54,98,86,72,37,15,25
17,39,27,-29,-1,57,99,88,74,39,18,27
18,42,29,-30,-2,61,101,91,76,41,20,30
19,44,31,-32,-1,64,102,93,79,43,21,32
20,47,33,-35,-2,67,104,96,82,45,24,35
24,49,31,-38,2,68,103,98,84,47,26,37
26,52,31,-40,3,71,105,100,86,49,29,39
28,54,31,-43,4,74,105,102,88,51,31,41
30,57,31,-45,6,76,106,104,90,53,33,44
33,60,31,-48,8,78,106,105,92,55,35,46
34,62,33,-50,7,82,106,107,94,57,37,49
35,65,35,-51,7,85,106,109,96,59,40,51
36,67,36,-54,7,89,107,111,98,61,42,54
37,69,36,-55,9,90,107,111,99,62,43,56
39,71,37,-57,9,94,107,112,100,64,46,58
41,74,37,-60,10,96,107,113,101,65,48,60
42,76,39,-61,10,100,107,114,103,67,50,62
44,77,38,-63,12,100,106,114,103,68,51,64
45,78,38,-64,12,101,105,114,103,68,53,65
47,80,37,-66,14,102,103,113,103,69,54,67
49,82,37,-68,15,104,102,113,103,70,55,69
50,82,36,-69,16,103,99,111,102,70,55,69
52,83,35,-71,18,103,96,110,101,70,56,71
54,85,33,-73,21,103,94,108,100,70,56,72
56,86,33,-75,22,104,93,107,99,70,57,73
57,86,31,-75,23,103,88,104,97,69,56,73
56,86,31,-75,23,103,86,101,95,69,56,73
58,86,29,-76,25,102,83,98,92,68,55,73
58,86,29,-75,25,102,81,95,91,68,55,73
57,85,29,-74,24,101,76,91,87,66,54,72
57,85,29,-74,24,101,73,88,84,65,53,72
57,85,29,-74,24,101,71,84,82,64,52,72
56,85,31,-74,23,102,68,81,79,63,51,72
55,84,31,-73,23,101,64,76,75,60,49,69
52,82,33,-71,20,101,61,73,72,59,48,69
51,81,33,-70,19,100,58,69,68,57,46,67
50,81,35,-68,17,102,55,65,65,56,45,66
48,77,33,-65,16,96,52,61,61,53,43,64
46,75,31,-63,16,93,49,57,58,51,41,61
44,71,29,-60,16,88,46,53,54,49,39,59
43,68,27,-58,16,83,43,50,51,46,37,57
41,65,26,-55,15,80,41,46,47,44,34,54
38,61,25,-52,14,75,38,42,44,42,31,51
36,57,23,-48,13,70,35,39,40,39,28,48
34,54,23,-46,12,67,34,36,37,37,26,46
31,49,20,-42,12,61,31,32,34,34,24,41
30,46,16,-40,13,55,30,29,31,31,21,38
29,42,13,-37,13,48,27,26,27,29,18,35
28,38,10,-35,15,43,26,23,25,26,15,32
24,34,10,-30,12,39,24,20,22,24,13,29
21,30,10,-26,10,35,22,18,20,21,11,27
18,27,10,-23,7,32,21,16,17,19,9,23
15,24,10,-20,6,29,21,14,15,18,8,22
13,22,10,-18,4,28,20,12,13,16,6,20
11,19,10,-15,3,25,20,11,11,14,4,17
8,17,10,-12,1,23,19,9,10,13,3,15
6,14,10,-10,0,20,19,8,8,11,2,13
4,12,10,-7,-2,18,19,8,7,10,0,11
2,11,11,-6,-4,18,19,7,5,8,-1,9
-1,8,11,-3,-5,14,19,6,4,6,-2,7
-3,7,13,-1,-8,15,19,4,3,5,-3,5
-3,4,10,0,-6,10,18,4,2,4,-5,3
-3,3,8,1,-5,8,17,3,1,3,-6,2
-3,2,7,2,-5,6,18,2,0,2,-7,1
-3,1,5,2,-4,3,18,1,-1,2,-8,-0
-4,-2,3,4,-4,0,16,1,-2,0,-9,-2
-5,-4,2,5,-4,-3,16,0,-3,-1,-11,-3
-6,-6,0,7,-4,-7,14,-0,-4,-2,-12,-4
-7,-8,0,8,-4,-8,14,-1,-5,-3,-13,-5
-7,-10,-2,9,-4,-11,13,-2,-5,-4,-14,-5
-9,-11,-1,11,-5,-12,13,-2,-6,-5,-15,-7
-9,-12,-3,11,-4,-14,13,-2,-6,-5,-15,-8
-10,-14,-3,13,-5,-16,13,-3,-7,-6,-16,-9
-11,-15,-3,14,-5,-17,12,-3,-8,-6,-17,-10
-11,-15,-3,14,-5,-17,12,-4,-8,-7,-18,-11
-11,-15,-3,14,-5,-17,10,-4,-9,-7,-18,-12
-11,-15,-3,14,-5,-17,10,-4,-9,-7,-18,-12
-12,-16,-5,15,-5,-19,10,-5,-10,-8,-19,-13
-12,-16,-5,15,-5,-19,10,-5,-10,-8,-19,-13
-12,-16,-5,15,-5,-19,10,-5,-11,-8,-19,-13
-12,-16,-5,15,-5,-19,10,-5,-11,-8,-19,-13
-10,-16,-7,14,-4,-21,9,-6,-11,-9,-19,-14
-9,-15,-7,13,-2,-19,9,-6,-12,-9,-19,-14
-9,-15,-7,13,-2,-19,9,-6,-12,-10,-19,-14
-8,-14,-7,12,-2,-18,9,-6,-12,-10,-18,-14
-9,-15,-7,13,-2,-19,9,-6,-13,-10,-18,-14
-9,-15,-7,13,-2,-19,9,-6,-13,-10,-18,-14
-9,-15,-7,13,-2,-19,9,-6,-13,-11,-18,-14
-9,-15,-7,13,-2,-19,9,-5,-13,-11,-18,-14
-9,-15,-7,13,-2,-19,9,-6,-13,-11,-18,-15
-9,-14,-5,12,-4,-17,9,-6,-13,-11,-18,-15
-10,-14,-3,13,-5,-16,9,-6,-13,-12,-18,-15
-10,-12,-1,12,-6,-13,10,-6,-13,-12,-18,-15
-12,-14,-1,14,-7,-14,10,-6,-13,-12,-18,-15
-12,-14,0,14,-8,-13,12,-5,-13,-12,-18,-15
-13,-14,1,15,-9,-12,12,-5,-13,-12,-18,-15
-15,-14,3,15,-11,-11,13,-5,-13,-11,-18,-14
-15,-14,3,15,-11,-11,13,-5,-13,-11,-18,-14
-16,-14,5,16,-12,-10,13,-5,-13,-11,-18,-13
-16,-14,5,16,-12,-10,13,-5,-14,-11,-18,-13
-16,-12,7,15,-13,-8,14,-5,-14,-11,-18,-12
-16,-12,7,15,-13,-8,14,-5,-14,-11,-18,-12
-16,-12,7,15,-13,-8,14,-5,-14,-11,-18,-12
-16,-12,7,15,-13,-8,14,-5,-14,-11,-18,-12
-16,-12,7,15,-13,-8,16,-5,-14,-11,-18,-11
-16,-12,7,15,-13,-8,14,-5,-14,-12,-19,-11
-16,-12,7,15,-13,-8,14,-5,-14,-12,-19,-11
-16,-12,7,15,-13,-8,14,-5,-14,-12,-19,-11
-15,-11,7,14,-13,-7,14,-5,-14,-12,-19,-10
-13,-10,7,13,-12,-5,14,-5,-14,-12,-19,-10
-12,-9,7,12,-11,-4,14,-5,-14,-11,-18,-10
-11,-7,7,10,-10,-3,14,-5,-14,-11,-18,-10
-11,-6,8,10,-11,-1,14,-5,-14,-11,-18,-10
-11,-6,8,10,-11,-1,14,-6,-14,-11,-18,-10
-11,-5,10,9,-12,2,14,-6,-14,-11,-17,-9
-11,-5,10,9,-12,2,14,-6,-14,-11,-17,-8
-11,-4,11,8,-12,4,14,-6,-14,-11,-16,-7
-10,-2,11,7,-12,6,14,-6,-15,-11,-16,-7
-9,-1,11,6,-11,7,16,-6,-15,-11,-15,-7
-7,1,11,4,-10,8,16,-7,-15,-11,-15,-7
-8,2,13,4,-11,10,17,-7,-15,-11,-15,-5
-8,2,13,4,-11,10,19,-7,-15,-11,-15,-5
-8,2,13,4,-11,10,20,-7,-15,-11,-14,-5
-8,2,13,4,-11,10,21,-7,-15,-11,-13,-5
-9,2,14,5,-12,11,22,-7,-15,-11,-13,-5
-8,2,13,4,-11,10,22,-7,-15,-11,-13,-5
-8,2,13,4,-11,10,22,-7,-15,-11,-13,-5
-6,2,11,3,-9,9,22,-7,-16,-11,-13,-5
-6,2,11,3,-9,9,22,-7,-16,-11,-12,-5
-6,1,10,4,-9,7,22,-7,-16,-11,-12,-5
-6,1,10,4,-9,7,22,-7,-16,-10,-11,-5
-6,1,10,4,-9,7,22,-7,-16,-10,-11,-5
-6,1,10,4,-9,7,24,-7,-15,-10,-11,-5
-6,-1,8,5,-8,4,22,-7,-16,-10,-11,-7
-6,-1,8,5,-8,4,22,-7,-16,-10,-11,-7
-6,-1,7,4,-7,3,22,-7,-16,-10,-11,-7
-6,-1,7,4,-7,3,22,-7,-16,-10,-11,-7
-6,-2,7,5,-7,2,22,-7,-16,-10,-11,-7
-6,-2,7,5,-7,2,24,-7,-16,-10,-10,-7
-6,-2,7,5,-7,2,24,-7,-16,-10,-10,-7
-6,-2,7,5,-7,2,25,-7,-15,-9,-9,-5
-6,-2,7,5,-7,2,25,-7,-15,-9,-9,-7
-6,-1,7,4,-7,3,25,-7,-15,-9,-9,-7
-6,-1,7,4,-7,3,25,-7,-15,-9,-9,-7
-4,1,7,3,-5,5,25,-7,-15,-9,-9,-7
-4,-1,5,3,-5,2,25,-7,-15,-9,-9,-8
-3,-1,3,3,-4,1,25,-7,-15,-9,-9,-8
-3,-2,1,3,-2,-2,25,-7,-15,-9,-9,-8
-3,-2,1,3,-2,-2,27,-7,-14,-9,-9,-8
-3,-4,0,4,-2,-4,27,-7,-14,-9,-9,-9
-3,-4,0,4,-2,-4,27,-7,-14,-9,-9,-9
-4,-5,0,5,-2,-5,27,-7,-14,-9,-9,-10
-4,-5,0,5,-2,-5,27,-7,-13,-9,-9,-10
-5,-6,-1,6,-2,-8,27,-7,-13,-9,-9,-11
-6,-7,-1,7,-3,-9,27,-7,-13,-9,-9,-11
-6,-9,-3,8,-2,-11,27,-7,-13,-9,-9,-11
-6,-10,-3,9,-2,-12,28,-7,-13,-9,-9,-11
-7,-11,-5,10,-2,-14,28,-8,-13,-10,-9,-11
-7,-11,-5,10,-2,-14,28,-8,-13,-10,-9,-11
-8,-12,-5,11,-3,-15,28,-8,-13,-10,-9,-11
-8,-12,-5,11,-3,-15,28,-8,-13,-10,-9,-11
-8,-12,-5,11,-3,-15,28,-8,-13,-10,-9,-12
-7,-11,-5,10,-2,-14,28,-8,-12,-10,-9,-12
-7,-11,-5,10,-2,-14,28,-8,-12,-10,-9,-12
-6,-10,-3,9,-2,-12,30,-8,-12,-10,-9,-12
-8,-11,-3,10,-4,-13,30,-8,-12,-10,-9,-12
-8,-11,-3,10,-4,-13,30,-8,-12,-10,-9,-12
-8,-11,-3,10,-4,-13,30,-8,-12,-10,-9,-12
-8,-11,-3,10,-4,-13,30,-8,-12,-10,-9,-11
-8,-11,-3,10,-4,-13,30,-8,-12,-10,-9,-12
-8,-11,-3,10,-4,-13,30,-8,-11,-10,-9,-12
-8,-11,-3,10,-4,-13,30,-8,-11,-10,-9,-13
-8,-11,-3,10,-4,-13,30,-8,-11,-10,-9,-13
-8,-12,-5,11,-3,-15,28,-8,-11,-11,-9,-14
-9,-14,-5,12,-4,-17,28,-8,-11,-11,-9,-14
-9,-15,-7,13,-2,-19,28,-8,-11,-11,-9,-14
-9,-15,-7,13,-2,-19,28,-8,-10,-11,-9,-14
-9,-15,-7,13,-2,-19,27,-8,-10,-11,-9,-15
-9,-15,-7,13,-2,-19,27,-8,-10,-11,-9,-15
-9,-15,-7,13,-2,-19,27,-8,-10,-11,-9,-15
-9,-14,-5,12,-4,-17,27,-8,-10,-11,-8,-15
-10,-15,-5,13,-4,-18,27,-9,-10,-11,-8,-15
-10,-15,-5,13,-4,-18,27,-9,-10,-11,-7,-15
-10,-15,-5,13,-4,-18,27,-9,-10,-11,-7,-15
-10,-15,-5,13,-4,-18,27,-9,-9,-11,-7,-15
-9,-15,-7,13,-2,-19,25,-9,-9,-11,-7,-15
-9,-15,-7,13,-2,-19,25,-9,-9,-11,-6,-15
-9,-15,-7,13,-2,-19,25,-9,-9,-11,-5,-15
-9,-15,-7,13,-2,-19,25,-9,-9,-11,-4,-14
-10,-16,-7,14,-4,-21,24,-9,-9,-12,-4,-15
-10,-16,-7,14,-4,-21,24,-9,-9,-12,-4,-15
-11,-17,-7,15,-4,-22,24,-9,-9,-13,-4,-15
-11,-17,-7,15,-4,-22,24,-9,-9,-13,-4,-15
-11,-17,-7,15,-4,-22,24,-9,-9,-13,-4,-15
-11,-17,-7,15,-4,-22,24,-9,-9,-13,-4,-15
-11,-17,-7,15,-4,-22,24,-9,-9,-13,-4,-15
-12,-16,-5,15,-5,-19,24,-9,-8,-12,-4,-15
-12,-16,-5,15,-5,-19,24,-9,-9,-12,-4,-16
-12,-16,-5,15,-5,-19,24,-9,-9,-12,-4,-16
-12,-16,-5,15,-5,-19,24,-9,-9,-12,-4,-16
-10,-15,-5,13,-4,-18,24,-9,-9,-12,-4,-16
-9,-15,-7,13,-2,-19,22,-9,-9,-12,-4,-16
-9,-15,-7,13,-2,-19,22,-9,-9,-12,-4,-16
-9,-15,-7,13,-2,-19,22,-9,-9,-12,-5,-16
-8,-14,-7,12,-2,-18,22,-9,-9,-12,-5,-16
-8,-14,-7,12,-2,-18,22,-10,-9,-12,-5,-17
-8,-14,-7,12,-2,-18,22,-10,-9,-12,-5,-17
-8,-14,-7,12,-2,-18,22,-10,-9,-12,-5,-17
-8,-14,-7,12,-2,-18,24,-10,-9,-11,-5,-17
-9,-15,-7,13,-2,-19,24,-10,-10,-12,-5,-18
-9,-15,-7,13,-2,-19,24,-10,-10,-12,-5,-18
-9,-15,-7,13,-2,-19,24,-10,-10,-12,-5,-18
-9,-15,-7,13,-2,-19,25,-10,-10,-12,-5,-18
-10,-16,-7,14,-4,-21,25,-10,-10,-12,-5,-18
-10,-16,-7,14,-4,-21,25,-10,-10,-12,-5,-18
-10,-16,-7,14,-4,-21,25,-10,-10,-12,-5,-18
-10,-16,-7,14,-4,-21,25,-10,-9,-11,-5,-18
-10,-17,-8,15,-3,-23,24,-11,-10,-12,-5,-18
-10,-17,-8,15,-3,-23,24,-11,-10,-12,-5,-18
-10,-17,-8,15,-3,-23,24,-11,-10,-12,-5,-18
-10,-17,-8,15,-3,-23,24,-11,-10,-12,-4,-17
-10,-17,-8,15,-3,-23,22,-11,-10,-12,-4,-17
-11,-17,-7,15,-4,-22,22,-11,-10,-12,-4,-17
-12,-17,-5,16,-6,-20,22,-11,-10,-12,-4,-17
-12,-16,-3,15,-7,-18,22,-11,-10,-12,-4,-16
-12,-16,-3,15,-7,-18,21,-11,-10,-12,-4,-16
-12,-15,-1,15,-7,-15,21,-11,-10,-12,-3,-16
-12,-14,-1,14,-7,-14,21,-11,-10,-12,-3,-16
-11,-12,0,13,-7,-12,21,-11,-10,-12,-2,-15
-12,-14,-1,14,-7,-14,20,-11,-10,-13,-3,-16
-12,-14,-1,14,-7,-14,20,-11,-10,-13,-3,-16
-12,-14,-1,14,-7,-14,20,-11,-10,-13,-3,-16
-12,-14,-1,14,-7,-14,20,-11,-10,-13,-3,-16
-11,-15,-3,14,-5,-17,19,-11,-10,-13,-3,-17
-11,-15,-3,14,-5,-17,19,-11,-10,-13,-3,-17
-10,-15,-5,13,-4,-18,17,-11,-10,-13,-3,-17
-10,-15,-5,13,-4,-18,17,-11,-10,-13,-3,-17
-10,-16,-7,14,-4,-21,16,-11,-11,-13,-3,-17
-10,-16,-7,14,-4,-21,16,-11,-11,-13,-3,-17
-10,-16,-7,14,-4,-21,14,-11,-11,-13,-3,-17
-10,-16,-7,14,-4,-21,14,-11,-11,-13,-2,-17
-10,-16,-7,14,-4,-21,13,-11,-11,-13,-2,-17
-9,-15,-7,13,-2,-19,13,-11,-11,-13,-2,-17
-9,-15,-7,13,-2,-19,12,-11,-11,-13,-2,-17
-9,-14,-5,12,-4,-17,12,-11,-10,-13,-2,-16
-8,-14,-7,12,-2,-18,10,-11,-11,-13,-2,-17
-8,-14,-7,12,-2,-18,10,-11,-11,-13,-2,-17
-8,-14,-7,12,-2,-18,9,-11,-11,-13,-2,-17
-6,-12,-7,10,-1,-17,9,-11,-11,-13,-2,-17
-8,-14,-7,12,-2,-18,8,-12,-11,-13,-2,-18
-8,-14,-7,12,-2,-18,8,-12,-11,-13,-2,-18
-9,-15,-7,13,-2,-19,8,-12,-11,-13,-2,-18
-9,-15,-7,13,-2,-19,8,-12,-11,-13,-2,-18
-9,-16,-8,14,-2,-22,6,-12,-11,-13,-2,-19
-9,-16,-8,14,-2,-22,6,-12,-11,-13,-2,-19
-9,-16,-8,14,-2,-22,6,-12,-11,-13,-2,-19
-9,-16,-8,14,-2,-22,6,-12,-11,-13,-2,-19
-10,-17,-8,15,-3,-23,5,-12,-12,-13,-2,-19
-10,-17,-8,15,-3,-23,5,-12,-12,-13,-2,-19
-10,-17,-8,15,-3,-23,3,-12,-12,-13,-2,-19
-10,-17,-8,15,-3,-23,3,-12,-12,-13,-2,-19
-10,-17,-8,15,-3,-23,2,-12,-12,-13,-2,-19
-10,-17,-8,15,-3,-23,2,-12,-12,-13,-1,-19
-10,-17,-8,15,-3,-23,2,-12,-12,-13,-1,-19
-10,-17,-8,15,-3,-23,2,-12,-12,-13,-0,-18
-10,-17,-8,15,-3,-23,2,-12,-12,-13,-0,-18
-10,-17,-8,15,-3,-23,2,-12,-12,-13,0,-18
-10,-17,-8,15,-3,-23,2,-12,-12,-13,0,-18
-10,-16,-7,14,-4,-21,2,-11,-11,-13,1,-18
-10,-16,-7,14,-4,-21,2,-11,-11,-13,1,-18
-10,-16,-7,14,-4,-21,2,-11,-11,-13,2,-18
-10,-16,-7,14,-4,-21,2,-11,-11,-13,2,-18
-10,-16,-7,14,-4,-21,2,-11,-11,-12,2,-17
-10,-17,-8,15,-3,-23,1,-11,-11,-12,2,-17
-10,-17,-8,15,-3,-23,1,-11,-11,-12,3,-17
-10,-17,-8,15,-3,-23,1,-11,-11,-12,3,-17
-10,-17,-8,15,-3,-23,1,-10,-11,-11,4,-17
-10,-17,-8,15,-3,-23,-1,-10,-11,-12,4,-17
-10,-17,-8,15,-3,-23,-1,-10,-11,-12,4,-17
-10,-17,-8,15,-3,-23,-1,-10,-11,-12,4,-17
-10,-17,-8,15,-3,-23,-1,-10,-11,-12,5,-17
-10,-17,-8,15,-3,-23,-2,-10,-11,-12,4,-18
-10,-17,-8,15,-3,-23,-2,-10,-11,-12,4,-18
-10,-17,-8,15,-3,-23,-2,-10,-11,-12,4,-19
-9,-16,-8,14,-2,-22,-2,-10,-11,-12,4,-19
-9,-16,-8,14,-2,-22,-3,-10,-12,-13,4,-19
-8,-15,-8,12,-1,-20,-3,-10,-12,-13,4,-19
-8,-15,-8,12,-1,-20,-4,-10,-12,-13,4,-19
-8,-14,-7,12,-2,-18,-4,-10,-12,-13,4,-18
-8,-15,-8,12,-1,-20,-6,-11,-12,-13,4,-19
-8,-15,-8,12,-1,-20,-6,-11,-12,-13,3,-19
-8,-16,-10,13,-1,-23,-6,-11,-12,-14,2,-20
-8,-16,-10,13,-1,-23,-6,-11,-12,-14,2,-20
-9,-17,-10,14,-1,-24,-6,-11,-12,-14,2,-20
-10,-17,-8,15,-3,-23,-6,-10,-12,-13,3,-19
-10,-17,-8,15,-3,-23,-6,-10,-11,-13,4,-18
-11,-17,-7,15,-4,-22,-4,-9,-11,-12,4,-17
-12,-19,-8,16,-4,-24,-6,-9,-11,-12,4,-17
-12,-19,-8,16,-4,-24,-6,-9,-11,-12,4,-17
-10,-19,-10,15,-2,-26,-7,-9,-11,-12,4,-17
-10,-19,-10,15,-2,-26,-7,-9,-11,-12,5,-16
-12,-19,-8,16,-4,-24,-7,-9,-11,-12,5,-16
-12,-19,-7,17,-5,-23,-7,-9,-11,-11,6,-16
-14,-19,-5,18,-7,-22,-7,-9,-11,-11,6,-16
-13,-17,-3,16,-7,-19,-7,-9,-10,-11,6,-15
-12,-17,-5,16,-6,-20,-9,-9,-10,-11,6,-16
-12,-17,-5,16,-6,-20,-9,-10,-10,-11,6,-16
-12,-17,-5,16,-6,-20,-10,-10,-10,-11,6,-16
-12,-16,-5,15,-5,-19,-10,-10,-10,-11,6,-16
-12,-16,-5,15,-5,-19,-10,-10,-10,-11,6,-16
-10,-15,-5,13,-4,-18,-10,-10,-10,-11,6,-16
-9,-14,-5,12,-4,-17,-10,-10,-10,-11,6,-16
-9,-12,-3,11,-4,-14,-10,-10,-10,-11,6,-16
-9,-12,-3,11,-4,-14,-10,-10,-10,-11,6,-16
-8,-11,-3,10,-4,-13,-10,-10,-10,-11,7,-15
-6,-10,-3,9,-2,-12,-10,-9,-9,-10,8,-15
-7,-9,-1,9,-4,-9,-10,-9,-9,-10,8,-14
-5,-7,-2,7,-2,-9,-10,-8,-8,-9,9,-14
-4,-6,-2,6,-2,-8,-10,-8,-8,-9,10,-13
-3,-5,-1,5,-1,-6,-10,-8,-7,-8,10,-13
-1,-3,-2,2,1,-5,-8,-7,-7,-8,11,-12
0,-1,-1,1,1,-3,-9,-6,-6,-7,12,-11
2,2,-1,-2,2,0,-7,-5,-5,-7,13,-10
4,3,-2,-3,4,1,-7,-4,-5,-6,13,-9
5,5,0,-5,4,5,-6,-4,-4,-5,15,-7
6,7,0,-6,4,6,-6,-3,-3,-5,15,-5
8,9,0,-9,6,9,-5,-3,-2,-3,16,-5
10,11,0,-10,7,9,-3,-2,-1,-3,17,-3
12,13,0,-12,8,11,-2,-1,-0,-2,18,-3
13,14,0,-14,9,13,-3,-1,0,-1,19,-3
15,17,0,-16,10,15,-3,-0,1,-1,20,-2
16,18,0,-18,11,16,-5,0,1,-0,20,-0
19,21,0,-21,13,19,-4,1,2,1,21,0
20,22,0,-22,13,20,-7,0,2,1,22,1
21,23,0,-23,15,22,-10,0,3,2,23,2
22,24,0,-24,15,23,-13,0,3,2,23,3
24,27,0,-27,16,25,-14,1,4,3,24,4
24,27,0,-27,16,25,-19,0,3,4,24,4
25,28,0,-28,17,26,-21,0,3,3,24,4
25,28,0,-28,17,26,-24,-0,3,3,24,4
27,29,0,-29,18,28,-26,-1,3,4,25,5
25,27,-1,-27,18,24,-28,-2,1,2,24,4
24,24,-3,-25,18,20,-29,-3,1,1,23,3
24,22,-5,-24,18,16,-31,-4,-0,0,22,2
23,21,-5,-23,18,15,-32,-5,-1,-0,22,2
21,18,-7,-20,17,11,-33,-5,-3,-1,20,1
20,15,-8,-18,18,8,-33,-7,-4,-2,20,-0
19,13,-10,-16,18,5,-33,-8,-5,-3,18,-1
17,11,-10,-14,16,3,-33,-8,-6,-4,17,-3
14,7,-11,-10,15,-2,-33,-9,-7,-5,16,-5
13,4,-13,-9,15,-6,-32,-9,-8,-6,15,-6
11,1,-15,-6,15,-10,-32,-10,-9,-7,15,-7
8,-2,-14,-3,12,-12,-30,-10,-9,-8,14,-8
6,-5,-14,0,10,-15,-31,-10,-10,-9,13,-9
5,-6,-14,1,10,-16,-29,-10,-10,-9,12,-10
2,-9,-14,4,9,-19,-27,-10,-11,-10,11,-11
-0,-10,-12,6,5,-19,-26,-10,-11,-10,10,-11
-2,-13,-13,8,5,-22,-26,-10,-11,-12,9,-13
-4,-15,-13,10,4,-24,-25,-10,-12,-12,7,-14
-7,-17,-12,13,1,-26,-24,-10,-12,-13,4,-15
-10,-20,-11,16,-1,-28,-22,-10,-13,-13,3,-16
-11,-21,-12,18,-2,-29,-22,-11,-13,-14,1,-18
-13,-22,-10,19,-4,-28,-22,-11,-13,-15,-1,-19
-15,-24,-10,21,-5,-30,-22,-11,-14,-15,-3,-21
-16,-24,-8,21,-6,-29,-21,-11,-14,-16,-5,-22
-16,-25,-10,22,-5,-31,-22,-11,-15,-16,-7,-23
-15,-25,-12,22,-4,-33,-22,-12,-15,-17,-8,-24
-15,-26,-13,22,-4,-35,-24,-12,-16,-18,-10,-26
-14,-26,-14,22,-2,-36,-24,-13,-16,-18,-12,-26
-14,-28,-16,22,-1,-39,-25,-13,-17,-18,-12,-28
-14,-28,-16,23,-2,-38,-25,-13,-17,-18,-13,-28
-14,-29,-18,23,-1,-41,-26,-14,-18,-19,-13,-28
-14,-29,-18,23,-1,-41,-26,-14,-18,-18,-13,-28
-13,-30,-21,23,1,-45,-28,-14,-18,-19,-14,-29
-13,-31,-22,24,2,-46,-28,-14,-17,-19,-15,-28
-13,-33,-24,24,3,-49,-28,-14,-17,-19,-15,-28
-12,-34,-26,25,4,-51,-28,-14,-17,-19,-15,-28
-14,-34,-24,25,2,-50,-26,-14,-17,-18,-16,-29
-15,-33,-22,26,0,-47,-24,-13,-18,-18,-15,-28
-18,-33,-18,27,-3,-46,-21,-13,-18,-18,-15,-29
-21,-34,-14,29,-7,-43,-19,-12,-18,-16,-14,-28
-21,-29,-8,27,-10,-33,-28,-13,-18,-17,-13,-24
-11,-26,-18,20,1,-39,-31,-16,-19,-18,-20,-34
-24,-22,6,25,-19,-17,-24,-14,-16,-15,-13,-24
-12,-15,-2,14,-7,-16,-32,-16,-19,-18,-17,-27
-30,-30,3,32,-21,-27,-32,-16,-19,-17,-15,-27
-25,-28,0,29,-16,-27,-25,-14,-17,-18,-18,-35
-16,-32,-20,26,-1,-46,-26,-15,-19,-19,-16,-23
-2,-35,-42,19,19,-65,-33,-15,-19,-19,-17,-33
-16,-30,-16,24,-2,-41,-25,-12,-15,-17,-18,-22
-29,-38,-8,36,-15,-43,-22,-10,-15,-14,-15,-24
-18,-38,-23,30,-1,-53,-27,-11,-15,-15,-17,-28
-17,-30,-15,25,-4,-40,-8,-4,-9,-13,-21,-38
-38,-44,-3,44,-23,-45,14,10,1,-8,-17,-33
-23,-34,-11,30,-10,-41,31,20,7,-8,-21,-42
-28,-20,14,26,-25,-9,46,32,23,6,-13,-37
-31,-14,26,25,-32,6,52,38,31,18,-3,-28
1,3,2,-1,0,3,38,45,45,38,18,-8
28,16,-19,-23,27,1,39,61,66,65,42,12
41,20,-32,-32,43,-5,57,94,105,104,76,39
66,39,-42,-56,64,6,68,128,138,135,106,67
108,69,-65,-95,103,17,70,145,164,165,139,96
137,72,-100,-113,138,-6,68,153,181,192,165,117
159,86,-114,-132,159,-3,52,148,197,221,200,154
201,133,-112,-179,186,43,30,144,213,254,242,196
233,175,-104,-219,204,88,-8,123,219,281,283,249
267,222,-91,-262,220,142,-106,72,196,291,316,297
316,276,-89,-317,252,194,-213,14,168,294,344,348
340,310,-80,-348,263,233,-304,-35,135,279,346,364
361,317,-100,-363,286,225,-374,-78,96,247,334,371
345,246,-169,-318,308,108,-391,-98,63,202,294,338
332,182,-234,-277,330,0,-385,-116,33,144,235,285
283,163,-189,-240,276,15,-387,-154,-12,95,187,244
176,173,-25,-186,128,144,-363,-210,-67,49,150,229
91,173,95,-139,16,231,-350,-268,-139,-14,90,176
14,149,173,-83,-71,266,-314,-307,-204,-73,32,123
-38,106,191,-32,-114,238,-300,-327,-251,-119,-12,77
-65,55,163,8,-118,170,-285,-319,-260,-142,-50,36
-79,14,130,38,-113,107,-280,-303,-259,-159,-80,-10
-96,-30,96,70,-109,41,-257,-284,-250,-166,-94,-34
-118,-59,91,96,-121,10,-228,-266,-238,-162,-103,-60
-116,-75,67,104,-108,-23,-204,-240,-216,-151,-103,-72
-130,-104,49,126,-109,-64,-168,-215,-196,-146,-104,-83
-114,-113,15,122,-82,-96,-152,-194,-179,-140,-102,-85
-108,-105,16,114,-79,-88,-141,-183,-171,-137,-102,-93
-105,-96,24,108,-81,-74,-158,-180,-164,-136,-105,-93
-100,-99,13,107,-72,-84,-164,-173,-158,-128,-99,-91
-102,-99,16,108,-75,-82,-169,-156,-142,-115,-92,-87
-89,-83,20,93,-68,-65,-163,-140,-128,-104,-85,-85
-103,-70,55,94,-94,-27,-139,-124,-112,-92,-76,-74
-108,-73,59,98,-99,-27,-107,-110,-101,-82,-67,-70
-93,-57,59,81,-89,-11,-89,-97,-88,-76,-68,-67
-86,-46,62,72,-85,1,-81,-82,-77,-66,-53,-58
-85,-49,57,73,-82,-6,-72,-66,-63,-57,-46,-48
-60,-37,36,53,-56,-9,-71,-57,-58,-53,-43,-44
-42,-30,21,40,-38,-14,-58,-44,-46,-45,-40,-42
-39,-29,18,37,-34,-14,-46,-33,-36,-39,-36,-39
-48,-27,33,41,-47,-3,-39,-26,-30,-34,-31,-37
-40,-24,26,35,-38,-4,-22,-20,-26,-30,-29,-31
-42,-31,20,40,-37,-16,-20,-15,-20,-25,-27,-31
-51,-26,38,42,-52,3,-12,-11,-16,-22,-22,-28
-39,-16,34,30,-42,9,-10,-7,-13,-19,-21,-26
-29,-16,20,25,-28,-2,-15,-7,-13,-19,-22,-29
-34,-23,18,31,-31,-9,-3,-1,-7,-16,-13,-18
-19,-20,1,22,-13,-19,-7,-2,-11,-20,-19,-24
-12,-21,-10,18,-4,-28,-10,-2,-10,-19,-21,-33
-34,-26,14,33,-29,-15,2,0,-6,-19,-21,-32
-41,-22,29,35,-41,0,5,-1,-7,-17,-23,-28
-17,-12,8,16,-15,-7,-5,1,-8,-19,-34,-41
-31,-20,18,28,-29,-7,3,4,-2,-12,-23,-23
-23,-32,-10,29,-10,-38,10,7,-0,-10,-22,-21
-19,-30,-11,26,-7,-37,7,7,-0,-10,-23,-24
-23,-19,8,23,-18,-12,6,8,-2,-11,-23,-26
-22,-20,5,23,-16,-15,5,8,-2,-11,-24,-27
-20,-20,2,22,-14,-18,4,8,-1,-11,-24,-26
-18,-20,-1,21,-11,-21,2,8,-1,-12,-24,-26
-16,-20,-3,19,-9,-22,2,9,-1,-11,-24,-24
-17,-20,-2,20,-10,-21,3,9,0,-11,-25,-25
-19,-20,1,22,-13,-19,6,10,1,-10,-25,-23
-22,-20,5,23,-16,-16,8,10,2,-9,-25,-23
-23,-19,8,23,-19,-12,10,11,3,-8,-25,-22
-23,-19,8,23,-18,-12,10,12,4,-8,-24,-23
-21,-17,8,21,-18,-11,12,14,5,-7,-24,-21
-20,-16,8,20,-17,-10,13,15,6,-7,-23,-21
-21,-15,10,20,-18,-8,14,16,7,-6,-22,-19
-20,-15,10,19,-18,-8,14,17,7,-6,-22,-19
-19,-14,10,18,-17,-7,14,17,8,-5,-21,-18
-18,-13,10,17,-16,-6,14,18,9,-5,-20,-18
-17,-11,10,15,-16,-4,14,18,9,-5,-20,-17
-17,-11,10,15,-16,-4,15,19,9,-5,-20,-17
-18,-10,12,15,-17,-2,16,20,10,-4,-19,-17
-17,-9,13,14,-17,1,16,20,10,-3,-19,-17
-17,-7,15,13,-18,4,18,21,11,-3,-18,-16
-16,-6,14,12,-17,4,17,22,12,-2,-18,-16
-16,-5,16,11,-18,7,19,23,13,-1,-16,-15
-15,-4,16,10,-17,8,19,24,14,-1,-15,-14
-15,-2,18,10,-18,10,20,26,16,0,-14,-13
-14,-3,16,9,-16,9,20,27,16,1,-13,-13
-13,-2,16,9,-16,9,21,28,18,2,-13,-12
-12,-3,14,9,-15,8,22,29,19,3,-12,-11
-12,-1,15,7,-15,9,24,31,20,3,-12,-10
-10,-1,13,7,-13,8,24,32,22,4,-11,-10
-9,0,13,6,-12,9,26,34,23,5,-10,-9
-9,0,13,6,-12,9,27,35,25,6,-9,-8
-8,2,13,4,-11,10,29,37,27,7,-8,-7
-6,3,13,3,-10,11,30,39,28,8,-7,-6
-6,4,14,2,-10,13,31,41,30,9,-7,-5
-5,6,14,1,-10,15,32,43,32,10,-6,-3
-5,8,16,-1,-10,18,33,45,34,11,-4,-1
-3,9,16,-2,-9,20,35,47,36,12,-4,-0
-2,11,16,-4,-9,21,37,50,38,14,-3,1
-1,12,16,-5,-8,22,38,52,40,15,-2,2
0,14,18,-7,-8,26,39,55,42,16,-1,3
0,16,20,-8,-9,28,41,58,45,18,0,4
1,18,22,-9,-9,31,43,61,47,20,2,5
2,20,23,-11,-9,35,45,63,49,21,3,6
3,23,25,-13,-9,39,47,66,52,23,5,8
5,24,24,-14,-7,40,49,69,55,25,6,9
6,25,25,-15,-7,42,52,72,57,26,9,11
7,27,24,-17,-6,43,53,75,59,28,11,12
8,28,24,-18,-5,44,55,78,62,29,13,14
11,29,23,-20,-3,44,57,80,64,31,14,16
13,32,23,-23,-2,46,58,83,67,33,16,18
17,34,21,-26,2,47,60,86,69,34,18,21
19,37,21,-29,3,49,61,89,72,37,20,23
21,39,21,-31,5,52,63,91,74,38,22,25
24,42,21,-34,6,54,64,94,77,40,25,28
26,44,21,-37,8,57,65,97,79,43,27,31
27,47,23,-38,7,61,68,100,82,45,30,34
29,49,23,-41,9,63,69,103,84,46,32,36
31,52,23,-43,10,65,71,105,87,49,34,39
34,54,23,-46,12,67,72,108,89,51,36,41
36,58,24,-49,13,72,73,110,91,53,39,44
37,61,26,-51,13,76,73,112,93,55,41,46
38,63,28,-53,12,80,73,114,95,57,43,49
39,66,29,-55,13,83,73,115,97,58,45,51
41,70,33,-58,12,89,75,117,99,60,47,54
43,71,31,-60,14,89,73,118,100,61,48,55
44,72,31,-61,15,90,72,118,100,63,49,56
46,73,29,-62,17,90,71,119,101,64,50,57
48,75,29,-64,18,91,71,120,102,65,52,59
49,76,28,-65,20,91,70,119,102,65,53,60
52,77,26,-68,23,91,68,119,102,66,53,61
54,78,24,-70,25,91,66,118,102,66,54,62
56,80,24,-71,26,92,67,118,103,67,55,64
57,80,23,-72,27,91,64,116,102,67,56,64
58,81,23,-73,28,92,63,114,101,67,57,65
58,81,23,-73,28,93,61,112,100,67,57,67
59,82,23,-74,29,94,60,111,99,68,58,68
59,82,23,-74,29,94,57,108,97,67,58,67
58,82,25,-74,27,95,55,105,95,66,58,67
58,82,24,-74,27,95,53,102,93,66,58,67
58,83,26,-74,26,97,52,99,91,66,58,69
57,82,26,-73,26,96,48,95,89,64,57,68
57,82,26,-73,26,96,45,91,86,63,56,67
57,82,26,-73,26,96,42,87,83,61,55,68
56,82,27,-73,24,97,39,83,80,60,55,67
54,80,26,-71,24,94,35,79,76,58,53,66
52,77,26,-68,23,91,32,75,73,56,51,64
51,75,25,-66,23,88,28,70,69,54,50,62
49,73,25,-64,21,86,25,66,66,52,48,62
49,71,23,-63,22,83,22,61,62,50,46,59
47,69,23,-60,21,81,20,57,59,47,44,57
44,66,23,-57,19,78,18,53,55,45,42,55
43,65,23,-56,18,77,14,49,52,42,40,54
41,61,22,-53,17,73,12,45,48,40,37,51
38,58,21,-50,16,69,10,41,45,38,35,48
36,55,22,-47,14,67,8,38,41,35,33,44
34,53,21,-46,13,65,7,34,38,33,31,41
31,49,20,-42,12,61,3,31,35,31,28,38
28,46,20,-39,10,57,2,28,32,29,26,35
24,42,20,-35,7,53,1,25,30,26,23,32
22,39,20,-32,6,51,-1,22,27,24,21,29
20,35,18,-28,5,46,-2,19,24,22,18,26
16,32,18,-25,2,43,-2,17,22,20,16,23
14,28,16,-21,2,38,-2,14,19,18,13,20
12,25,16,-19,1,35,-2,12,17,16,11,18
11,22,13,-16,1,29,-3,10,15,14,9,14
9,18,11,-13,1,25,-5,8,12,12,6,12
7,14,8,-11,2,19,-6,6,10,10,4,10
6,12,7,-9,1,15,-6,5,8,8,2,8
5,9,5,-7,2,11,-6,3,7,6,0,6
4,7,3,-5,1,9,-6,2,5,5,-1,4
2,4,2,-3,1,5,-6,1,4,4,-2,2
1,3,1,-2,1,3,-4,0,2,3,-4,1
1,2,0,-1,1,1,-5,-1,1,2,-5,-0
0,1,0,0,1,0,-4,-2,0,1,-6,-1
-1,-1,0,2,-1,-2,-4,-3,-1,-0,-7,-3
-1,-1,0,2,-1,-2,-3,-3,-2,-1,-8,-4
-2,-3,0,3,-1,-3,-3,-4,-3,-2,-9,-6
-3,-4,0,4,-2,-4,-3,-4,-3,-2,-10,-7
-5,-5,0,6,-3,-6,-3,-5,-4,-3,-12,-8
-6,-6,1,7,-5,-6,-2,-5,-4,-3,-12,-9
-6,-7,0,8,-4,-8,-2,-6,-4,-4,-13,-10
-8,-9,0,9,-5,-9,-2,-6,-5,-5,-13,-10
-9,-10,0,10,-5,-9,-2,-7,-5,-5,-13,-11
-10,-11,0,12,-7,-11,-2,-7,-6,-6,-13,-11
-11,-12,0,13,-7,-12,-2,-8,-7,-6,-14,-12
-11,-12,0,13,-7,-12,-2,-8,-7,-7,-15,-12
-12,-14,0,14,-8,-13,-2,-9,-8,-7,-15,-13
-12,-14,0,14,-8,-13,-1,-9,-8,-7,-15,-13
-12,-14,0,14,-8,-13,-1,-9,-9,-8,-16,-14
-12,-14,0,14,-8,-13,-1,-9,-9,-8,-16,-14
-12,-14,0,14,-8,-13,-1,-9,-9,-8,-16,-14
-12,-14,0,14,-8,-13,1,-9,-9,-8,-16,-14
-12,-14,0,14,-8,-13,1,-9,-10,-8,-17,-14
-12,-14,0,14,-8,-13,2,-9,-10,-8,-17,-14
-12,-14,0,14,-8,-13,2,-9,-10,-9,-17,-14
-12,-14,0,14,-8,-13,3,-9,-10,-9,-17,-14
-12,-14,0,14,-8,-13,3,-9,-11,-9,-18,-14
-12,-14,0,14,-8,-13,5,-9,-11,-9,-18,-14
-12,-14,0,14,-8,-13,5,-9,-11,-10,-18,-14
-12,-12,1,13,-9,-11,6,-9,-11,-10,-18,-14
-12,-12,1,13,-9,-11,6,-10,-11,-10,-18,-15
-13,-12,3,14,-10,-9,6,-10,-11,-10,-18,-15
-13,-12,3,14,-10,-9,6,-10,-12,-10,-18,-15
-13,-11,5,13,-11,-8,6,-10,-12,-10,-18,-15
-13,-11,5,13,-11,-8,6,-10,-12,-11,-18,-15
-15,-11,7,14,-13,-7,8,-10,-12,-11,-18,-15
-15,-11,7,14,-13,-7,8,-10,-13,-11,-18,-15
-14,-10,8,13,-13,-4,9,-10,-13,-11,-18,-15
-16,-10,10,14,-15,-3,9,-10,-13,-11,-18,-15
-16,-9,11,13,-15,-1,10,-10,-13,-11,-18,-14
-17,-9,13,14,-17,1,10,-10,-13,-11,-18,-14
-17,-7,14,13,-18,3,12,-10,-12,-10,-17,-13
-17,-7,14,13,-18,3,12,-10,-12,-10,-16,-13
-17,-7,14,13,-18,3,13,-10,-12,-10,-15,-12
-17,-7,14,13,-18,3,13,-10,-12,-10,-15,-12
-18,-7,16,14,-20,5,14,-10,-12,-10,-14,-11
-18,-7,16,14,-20,5,14,-10,-12,-10,-14,-11
-17,-6,16,13,-19,6,14,-10,-12,-10,-14,-11
-16,-5,16,11,-18,7,14,-10,-12,-10,-14,-11
-16,-4,18,11,-18,9,16,-9,-12,-10,-13,-11
-16,-5,16,11,-18,7,14,-10,-12,-10,-13,-12
-16,-5,16,11,-18,7,14,-10,-12,-10,-13,-12
-14,-5,14,11,-16,6,13,-10,-12,-10,-13,-12
-14,-5,14,11,-16,6,13,-10,-12,-10,-13,-12
-13,-5,13,10,-15,5,12,-10,-13,-10,-13,-12
-13,-5,13,10,-15,5,12,-10,-13,-10,-13,-11
-13,-5,13,10,-15,5,12,-10,-13,-10,-13,-10
-12,-4,13,9,-14,6,12,-10,-13,-9,-12,-9
-12,-4,13,9,-14,6,12,-10,-13,-9,-12,-9
-12,-4,13,9,-14,6,12,-10,-13,-9,-11,-9
-12,-4,13,9,-14,6,12,-10,-13,-9,-11,-9
-12,-2,14,8,-15,8,12,-10,-12,-9,-11,-8
-11,-2,13,8,-13,7,12,-10,-13,-9,-11,-8
-10,-2,11,7,-12,6,12,-10,-13,-9,-11,-7
-9,-2,10,6,-10,5,12,-11,-13,-9,-11,-5
-8,-1,10,5,-10,6,12,-11,-13,-9,-10,-5
-7,-2,8,6,-9,3,10,-11,-13,-9,-10,-5
-7,-2,8,6,-9,3,10,-11,-13,-9,-10,-5
-7,-2,8,6,-9,3,10,-11,-13,-9,-10,-5
-7,-2,8,6,-9,3,10,-11,-13,-8,-10,-5
-8,-4,7,7,-8,1,10,-11,-13,-8,-10,-7
-8,-4,7,7,-8,1,10,-11,-13,-8,-10,-7
-7,-5,5,7,-7,-2,10,-11,-13,-8,-10,-7
-7,-5,5,7,-7,-2,10,-11,-12,-8,-10,-7
-8,-6,3,8,-7,-4,9,-11,-12,-8,-10,-8
-8,-6,3,8,-7,-4,9,-11,-12,-8,-10,-8
-9,-7,3,9,-7,-5,9,-11,-12,-8,-10,-8
-9,-7,3,9,-7,-5,9,-11,-12,-8,-10,-8
-9,-9,1,10,-6,-8,8,-11,-12,-9,-11,-9
-9,-9,1,10,-6,-8,8,-11,-12,-9,-11,-9
-9,-10,0,10,-5,-9,8,-11,-12,-9,-11,-9
-9,-10,0,10,-5,-9,8,-10,-12,-9,-11,-9
-8,-10,-1,10,-4,-10,6,-10,-12,-9,-11,-9
-8,-10,-1,10,-4,-10,6,-10,-12,-9,-11,-9
-6,-10,-3,9,-2,-12,6,-10,-12,-9,-11,-9
-6,-9,-3,8,-2,-11,6,-9,-12,-9,-11,-9
-6,-9,-3,8,-2,-11,6,-9,-12,-9,-11,-9
-6,-9,-3,8,-2,-11,6,-8,-12,-9,-11,-9
-6,-9,-3,8,-2,-11,6,-8,-12,-9,-11,-9
-6,-7,-1,7,-3,-9,8,-7,-11,-8,-10,-9
-7,-9,-1,9,-4,-9,8,-7,-11,-8,-10,-9
-7,-9,-1,9,-4,-9,8,-7,-11,-8,-10,-9
-7,-9,-1,9,-4,-9,8,-7,-11,-8,-10,-9
-7,-9,-1,9,-4,-9,8,-7,-11,-8,-10,-9
-7,-9,-1,9,-4,-9,6,-7,-11,-9,-11,-9
-7,-9,-1,9,-4,-9,6,-7,-11,-9,-11,-9
-7,-9,-1,9,-4,-9,6,-7,-12,-9,-11,-9
-8,-9,0,9,-5,-9,6,-7,-12,-9,-11,-9
-9,-10,0,10,-5,-9,5,-7,-12,-9,-11,-10
-9,-10,0,10,-5,-9,3,-7,-12,-9,-11,-10
-9,-10,0,10,-5,-9,2,-7,-12,-9,-11,-10
-9,-10,0,10,-5,-9,2,-7,-12,-9,-11,-10
-9,-10,0,10,-5,-9,1,-7,-13,-9,-11,-11
-8,-9,0,9,-5,-9,1,-7,-13,-9,-11,-11
-8,-9,0,9,-5,-9,-1,-7,-13,-9,-11,-11
-7,-7,1,8,-5,-7,-1,-7,-13,-9,-11,-11
-8,-9,0,9,-5,-9,-2,-7,-13,-10,-11,-12
-8,-9,0,9,-5,-9,-2,-7,-13,-10,-11,-12
-8,-10,-1,10,-4,-10,-2,-7,-13,-10,-11,-13
-8,-10,-1,10,-4,-10,-2,-7,-13,-10,-11,-13
-8,-10,-1,10,-4,-10,-2,-7,-13,-10,-11,-13
-9,-10,0,10,-5,-9,-2,-7,-13,-10,-11,-13
-9,-10,0,10,-5,-9,-2,-7,-13,-10,-11,-13
-10,-10,1,11,-7,-9,-2,-7,-13,-9,-11,-13
-10,-11,0,12,-7,-11,-3,-7,-13,-10,-11,-14
-10,-11,0,12,-7,-11,-3,-7,-13,-10,-11,-14
-10,-11,0,12,-7,-11,-3,-8,-13,-10,-11,-14
-10,-11,0,12,-7,-11,-3,-8,-13,-10,-11,-14
-9,-11,-1,11,-5,-12,-4,-8,-14,-10,-11,-15
-9,-11,-1,11,-5,-12,-4,-8,-14,-10,-11,-15
-9,-11,-1,11,-5,-12,-4,-8,-14,-10,-11,-15
-8,-10,-1,10,-4,-10,-4,-8,-14,-10,-11,-15
-8,-11,-3,10,-4,-13,-6,-8,-14,-10,-12,-15
-8,-11,-3,10,-4,-13,-6,-8,-14,-10,-12,-15
-7,-11,-5,10,-2,-14,-6,-8,-14,-10,-12,-15
-7,-11,-5,10,-2,-14,-6,-8,-14,-10,-12,-15
-9,-12,-3,11,-4,-14,-6,-8,-14,-10,-12,-15
-10,-12,-1,12,-6,-13,-6,-8,-14,-10,-11,-15
-11,-12,0,13,-7,-12,-6,-8,-14,-10,-11,-15
-12,-12,1,13,-9,-11,-6,-7,-14,-10,-11,-15
-13,-14,1,15,-9,-12,-7,-8,-14,-10,-11,-15
-13,-14,1,15,-9,-12,-7,-8,-14,-10,-11,-15
-14,-15,1,16,-10,-13,-9,-8,-14,-10,-11,-15
-14,-15,1,16,-10,-13,-9,-8,-14,-10,-10,-14
-13,-15,0,15,-9,-14,-10,-8,-15,-10,-11,-14
-13,-15,0,15,-9,-14,-10,-8,-15,-10,-11,-14
-13,-15,0,15,-9,-14,-12,-8,-15,-10,-11,-14
-13,-15,0,15,-9,-14,-12,-8,-15,-10,-11,-14
-12,-15,-1,15,-7,-15,-13,-8,-15,-10,-11,-14
-12,-15,-1,15,-7,-15,-13,-8,-15,-10,-11,-14
-11,-15,-3,14,-5,-17,-13,-8,-15,-10,-11,-14
-11,-15,-3,14,-5,-17,-13,-8,-15,-10,-11,-14
-11,-15,-3,14,-5,-17,-13,-8,-15,-10,-11,-15
-12,-15,-1,15,-7,-15,-13,-8,-15,-10,-11,-15
-12,-15,-1,15,-7,-15,-13,-8,-15,-10,-11,-15
-12,-14,0,14,-8,-13,-13,-8,-15,-10,-10,-15
-12,-15,-1,15,-7,-15,-14,-8,-15,-10,-11,-16
-12,-15,-1,15,-7,-15,-14,-8,-15,-10,-11,-16
-12,-15,-1,15,-7,-15,-14,-8,-15,-10,-11,-16
-12,-15,-1,15,-7,-15,-14,-8,-15,-10,-11,-16
-12,-15,-1,15,-7,-15,-14,-8,-15,-10,-11,-16
-12,-15,-1,15,-7,-15,-14,-8,-15,-10,-11,-16
-12,-15,-1,15,-7,-15,-14,-8,-15,-10,-11,-16
-13,-15,0,15,-9,-14,-13,-8,-15,-10,-11,-16
-12,-15,-1,15,-7,-15,-14,-8,-15,-10,-11,-16
-12,-15,-1,15,-7,-15,-14,-8,-15,-10,-11,-16
-12,-15,-1,15,-7,-15,-14,-8,-15,-10,-11,-16
-12,-15,-1,15,-7,-15,-14,-8,-15,-10,-11,-16
-12,-15,-1,15,-7,-15,-15,-8,-15,-10,-11,-16
-12,-15,-1,15,-7,-15,-15,-8,-15,-10,-11,-16
-12,-15,-1,15,-7,-15,-15,-8,-15,-10,-11,-16
-12,-14,0,14,-8,-13,-15,-8,-15,-9,-11,-15
-12,-14,-1,14,-7,-14,-17,-9,-15,-10,-11,-16
-12,-14,-1,14,-7,-14,-17,-9,-15,-10,-11,-16
-12,-14,-1,14,-7,-14,-17,-9,-16,-10,-11,-16
-12,-14,-1,14,-7,-14,-17,-9,-16,-10,-11,-16
-12,-14,-1,14,-7,-14,-18,-9,-16,-10,-12,-17
-12,-14,-1,14,-7,-14,-18,-9,-16,-10,-12,-17
-12,-14,-1,14,-7,-14,-20,-9,-16,-10,-12,-17
-11,-12,0,13,-7,-12,-20,-9,-16,-10,-12,-17
-11,-12,0,13,-7,-12,-20,-9,-16,-10,-12,-17
-12,-12,1,13,-9,-11,-20,-9,-16,-10,-11,-17
-13,-12,3,14,-10,-9,-20,-9,-16,-10,-11,-17
-14,-12,5,14,-12,-9,-20,-9,-15,-10,-11,-16
-16,-14,5,16,-12,-10,-20,-9,-15,-10,-11,-17
-16,-14,5,16,-12,-10,-20,-8,-15,-10,-11,-17
-16,-14,5,16,-12,-10,-20,-8,-15,-10,-11,-17
-16,-14,5,16,-12,-10,-20,-8,-15,-9,-11,-17
-16,-14,5,16,-12,-10,-20,-8,-15,-9,-11,-17
-16,-14,5,16,-12,-10,-20,-8,-15,-9,-11,-17
-16,-14,5,16,-12,-10,-20,-8,-15,-9,-11,-17
-14,-12,5,14,-12,-9,-20,-8,-15,-9,-11,-16
-13,-12,3,14,-10,-9,-21,-8,-15,-9,-11,-16
-13,-12,3,14,-10,-9,-21,-8,-15,-9,-11,-16
-12,-12,1,13,-9,-11,-21,-8,-15,-9,-11,-16
-12,-12,1,13,-9,-11,-21,-8,-15,-9,-11,-16
-12,-12,1,13,-9,-11,-22,-8,-15,-9,-11,-16
-11,-11,1,12,-8,-10,-22,-8,-15,-9,-11,-16
-11,-11,1,12,-8,-10,-22,-8,-15,-9,-11,-16
-11,-10,3,11,-9,-8,-22,-8,-15,-9,-11,-15
-12,-11,3,13,-10,-9,-24,-9,-15,-9,-12,-16
-12,-11,3,13,-10,-9,-24,-9,-15,-9,-12,-16
-12,-11,3,13,-10,-9,-24,-9,-15,-9,-12,-16
-13,-11,5,13,-11,-8,-24,-9,-15,-9,-12,-16
-12,-11,3,13,-10,-9,-25,-9,-15,-9,-13,-16
-12,-11,3,13,-10,-9,-25,-9,-15,-9,-13,-16
-12,-11,3,13,-10,-9,-25,-9,-15,-9,-13,-16
-12,-11,3,13,-10,-9,-25,-8,-15,-9,-13,-16
-12,-12,1,13,-9,-11,-26,-9,-15,-9,-13,-16
-12,-12,1,13,-9,-11,-26,-9,-15,-9,-13,-16
-12,-14,0,14,-8,-13,-28,-9,-15,-9,-13,-16
-12,-14,0,14,-8,-13,-28,-9,-15,-9,-13,-16
-12,-14,0,14,-8,-13,-28,-9,-15,-9,-13,-16
-12,-14,0,14,-8,-13,-28,-8,-15,-9,-13,-16
-12,-14,0,14,-8,-13,-28,-8,-15,-9,-13,-16
-11,-12,0,13,-7,-12,-28,-8,-15,-9,-12,-16
-12,-14,-1,14,-7,-14,-29,-8,-15,-9,-12,-16
-12,-14,-1,14,-7,-14,-29,-8,-15,-9,-12,-16
-12,-14,-1,14,-7,-14,-29,-8,-15,-9,-12,-16
-12,-14,-1,14,-7,-14,-29,-8,-15,-9,-12,-16
-12,-14,-1,14,-7,-14,-29,-8,-15,-9,-12,-16
-12,-14,-1,14,-7,-14,-29,-8,-15,-9,-12,-16
-12,-14,-1,14,-7,-14,-29,-8,-15,-9,-12,-16
-12,-14,0,14,-8,-13,-29,-7,-14,-8,-11,-16
-12,-15,-1,15,-7,-15,-29,-7,-14,-8,-12,-16
-12,-15,-1,15,-7,-15,-29,-7,-14,-8,-12,-16
-11,-15,-3,14,-5,-17,-29,-7,-14,-8,-12,-16
-11,-15,-3,14,-5,-17,-29,-7,-14,-8,-12,-16
-11,-15,-3,14,-5,-17,-29,-7,-14,-9,-13,-17
-12,-15,-1,15,-7,-15,-29,-7,-14,-9,-13,-17
-12,-15,-1,15,-7,-15,-29,-7,-14,-9,-13,-17
-13,-15,0,15,-9,-14,-28,-7,-14,-9,-13,-17
-13,-15,0,15,-9,-14,-28,-7,-15,-9,-13,-17
-13,-15,0,15,-9,-14,-28,-7,-15,-9,-13,-17
-13,-15,0,15,-9,-14,-28,-7,-15,-9,-13,-17
-13,-15,0,15,-9,-14,-28,-7,-15,-9,-13,-17
-13,-15,0,15,-9,-14,-28,-7,-15,-9,-14,-17
-12,-14,0,14,-8,-13,-28,-7,-15,-9,-14,-17
-12,-14,0,14,-8,-13,-28,-7,-15,-9,-14,-17
-11,-12,0,13,-7,-12,-26,-7,-15,-9,-14,-17
-11,-12,0,13,-7,-12,-26,-7,-15,-9,-14,-17
-10,-11,0,12,-7,-11,-26,-7,-15,-9,-14,-17
-10,-11,0,12,-7,-11,-26,-7,-15,-9,-14,-17
-10,-10,1,11,-7,-9,-26,-7,-15,-9,-13,-17
-10,-11,0,12,-7,-11,-26,-7,-15,-9,-13,-17
-10,-11,0,12,-7,-11,-26,-7,-15,-9,-13,-17
-10,-11,0,12,-7,-11,-26,-7,-15,-9,-13,-17
-10,-11,0,12,-7,-11,-25,-7,-15,-9,-13,-17
-11,-12,0,13,-7,-12,-25,-7,-15,-9,-13,-17
-11,-12,0,13,-7,-12,-25,-7,-14,-9,-13,-17
-11,-12,0,13,-7,-12,-25,-7,-14,-9,-13,-17
-12,-12,1,13,-9,-11,-24,-7,-14,-9,-13,-17
-12,-14,0,14,-8,-13,-24,-7,-14,-9,-13,-17
-12,-15,-1,15,-7,-15,-24,-7,-14,-9,-13,-17
-12,-16,-3,15,-7,-18,-24,-7,-14,-9,-13,-17
-13,-17,-3,16,-7,-19,-22,-6,-14,-9,-13,-17
-13,-17,-3,16,-7,-19,-22,-6,-14,-9,-13,-18
-13,-17,-3,16,-7,-19,-21,-6,-14,-9,-13,-18
-13,-17,-3,16,-7,-19,-21,-6,-14,-9,-13,-18
-15,-17,-1,18,-9,-18,-20,-6,-13,-9,-13,-18
-13,-17,-3,16,-7,-19,-20,-6,-13,-9,-13,-18
-12,-16,-3,15,-7,-18,-20,-6,-13,-9,-13,-18
-11,-15,-3,14,-5,-17,-20,-6,-13,-9,-13,-18
-10,-14,-3,13,-5,-16,-20,-6,-13,-9,-12,-18
-9,-12,-3,11,-4,-14,-20,-5,-12,-9,-12,-18
-6,-10,-3,9,-2,-12,-18,-5,-12,-8,-11,-17
-4,-7,-3,6,-1,-9,-17,-4,-11,-8,-12,-17
-3,-5,-1,5,-1,-6,-15,-4,-11,-7,-11,-16
-2,-4,-2,3,0,-6,-14,-4,-10,-7,-10,-15
-1,-1,0,2,-1,-2,-13,-2,-9,-6,-9,-14
1,2,0,-1,1,1,-12,-2,-8,-5,-9,-13
3,4,1,-3,2,5,-9,-1,-7,-3,-7,-12
4,5,1,-4,2,6,-7,-1,-7,-3,-7,-11
5,7,1,-6,3,7,-4,0,-6,-2,-5,-9
6,8,1,-7,4,8,-3,0,-6,-1,-4,-8
6,9,3,-7,3,10,-1,1,-4,-0,-3,-5
8,12,3,-10,4,13,-1,2,-4,0,-2,-5
9,14,5,-12,4,17,1,3,-3,2,-1,-3
12,17,5,-14,5,19,2,3,-2,3,-0,-2
13,19,7,-16,6,23,3,4,-1,4,1,1
14,21,7,-18,7,24,2,4,-0,4,2,2
16,23,7,-20,8,26,1,4,0,5,3,3
19,26,7,-23,10,28,-1,4,1,5,4,4
21,28,7,-25,11,30,-1,4,1,6,5,5
22,28,5,-26,13,30,-3,4,1,6,5,5
23,29,5,-27,13,31,-6,3,1,6,6,6
24,30,5,-28,14,32,-9,3,1,6,6,7
26,32,5,-30,15,33,-10,3,1,7,7,8
24,29,3,-28,15,29,-12,2,1,6,6,7
23,27,2,-26,15,27,-13,1,0,5,5,6
22,24,0,-24,15,23,-14,0,-1,4,4,5
21,23,0,-23,15,22,-15,-1,-1,4,4,4
20,21,-2,-21,15,18,-15,-2,-3,2,2,3
17,18,-1,-18,12,15,-15,-3,-4,2,2,2
16,15,-3,-16,13,11,-15,-4,-4,0,1,0
14,13,-3,-14,12,9,-14,-5,-5,-0,0,-0
12,9,-5,-11,11,5,-14,-6,-6,-1,-1,-3
9,7,-5,-8,9,3,-13,-7,-7,-2,-2,-3
7,4,-5,-5,7,0,-12,-8,-8,-3,-3,-5
5,2,-5,-3,6,-3,-10,-8,-9,-5,-4,-5
2,-1,-5,-1,4,-5,-8,-9,-10,-6,-5,-8
0,-4,-5,2,2,-8,-6,-9,-10,-6,-6,-9
-2,-6,-5,5,1,-9,-4,-9,-11,-7,-7,-10
-5,-8,-3,7,-1,-10,-2,-9,-11,-8,-7,-11
-6,-10,-5,9,-2,-13,-2,-10,-12,-8,-9,-13
-7,-13,-7,11,-1,-17,-1,-10,-12,-9,-9,-14
-8,-15,-8,12,-1,-20,1,-10,-13,-9,-11,-15
-9,-16,-8,14,-2,-22,2,-10,-13,-10,-12,-16
-10,-17,-8,15,-3,-23,2,-10,-13,-11,-12,-17
-12,-19,-7,17,-5,-23,4,-10,-13,-11,-13,-18
-13,-20,-7,18,-5,-24,5,-10,-13,-12,-13,-19
-16,-21,-5,20,-8,-25,6,-10,-13,-12,-14,-21
-16,-22,-7,21,-7,-27,4,-11,-13,-13,-15,-21
-14,-22,-8,20,-5,-28,5,-11,-14,-13,-15,-23
-15,-24,-10,21,-5,-30,5,-12,-14,-14,-16,-23
-15,-24,-10,21,-5,-30,5,-12,-14,-14,-17,-23
-16,-25,-10,22,-5,-31,5,-12,-15,-15,-18,-24
-16,-25,-10,22,-6,-31,5,-12,-15,-15,-18,-25
-18,-26,-9,24,-7,-32,4,-13,-15,-16,-18,-26
-18,-26,-8,24,-9,-31,5,-13,-15,-16,-18,-26
-18,-28,-11,24,-6,-35,5,-13,-16,-16,-19,-26
-16,-29,-14,24,-4,-38,5,-13,-16,-16,-19,-26
-15,-30,-18,24,-2,-42,4,-13,-17,-17,-20,-25
-15,-31,-19,25,-1,-44,5,-13,-17,-17,-20,-25
-17,-34,-20,27,-2,-46,3,-13,-17,-17,-20,-27
-18,-35,-20,28,-2,-47,4,-13,-17,-17,-21,-29
-19,-36,-20,29,-3,-48,3,-14,-17,-18,-22,-31
-21,-37,-18,31,-5,-49,4,-14,-17,-18,-23,-32
-34,-34,5,37,-24,-29,4,-14,-15,-18,-22,-31
-24,-22,5,25,-18,-18,6,-12,-14,-16,-21,-28
-36,-20,25,30,-35,-1,10,-11,-11,-13,-15,-18
-16,-27,-13,23,-4,-36,3,-13,-15,-16,-20,-23
-19,-29,-10,26,-8,-35,2,-12,-14,-16,-20,-25
-26,-39,-13,35,-11,-46,3,-13,-15,-16,-20,-25
-19,-35,-18,29,-4,-47,-1,-13,-15,-17,-21,-25
-17,-32,-18,26,-2,-45,1,-13,-16,-16,-22,-28
-32,-37,-3,37,-20,-38,8,-12,-12,-13,-18,-23
-23,-39,-18,33,-7,-50,1,-13,-13,-16,-21,-28
-23,-33,-10,30,-10,-39,5,-13,-13,-15,-20,-26
-26,-31,-3,31,-16,-32,5,-11,-10,-14,-20,-27
-34,-34,5,37,-24,-29,24,-2,-4,-10,-17,-21
-24,-37,-14,33,-9,-46,41,8,-1,-12,-26,-38
-29,-37,-8,36,-15,-42,58,20,9,-8,-26,-41
-41,-31,18,39,-35,-17,76,33,22,4,-18,-35
-29,-23,12,28,-24,-13,77,41,34,19,-6,-21
-19,-14,10,18,-17,-7,72,47,47,37,8,-15
6,1,-8,-3,8,-6,73,65,73,66,37,11
37,-1,-53,-20,49,-40,79,92,101,95,63,30
80,28,-76,-58,89,-29,91,124,136,127,92,53
108,49,-89,-85,114,-19,96,152,167,159,126,87
116,52,-97,-91,123,-22,107,168,192,189,160,120
171,85,-132,-138,175,-16,91,168,203,214,191,150
209,112,-151,-173,209,-6,63,159,219,244,228,192
245,144,-160,-210,237,19,24,142,225,270,269,239
279,197,-140,-255,250,83,-47,100,213,286,305,293
321,251,-128,-306,273,142,-149,41,188,289,328,332
342,288,-112,-337,280,189,-243,-11,160,280,339,359
357,309,-106,-357,286,213,-314,-56,124,252,330,370
366,256,-186,-334,330,105,-337,-85,88,202,290,343
341,178,-252,-281,344,-16,-333,-104,54,142,228,286
289,162,-199,-243,284,8,-331,-136,16,99,191,263
214,184,-64,-213,172,126,-329,-199,-47,47,140,227
87,178,108,-139,7,246,-302,-253,-115,-5,92,189
-7,138,188,-66,-92,266,-266,-294,-185,-64,33,133
-49,113,215,-29,-133,262,-255,-325,-238,-109,-16,83
-73,80,207,1,-145,225,-247,-321,-250,-132,-52,38
-95,25,168,41,-141,145,-232,-303,-245,-144,-77,2
-108,-20,127,71,-131,73,-223,-284,-238,-151,-93,-31
-119,-51,103,93,-127,27,-201,-268,-229,-155,-106,-57
-115,-75,65,103,-106,-24,-173,-246,-214,-152,-110,-72
-126,-99,50,122,-107,-58,-140,-221,-193,-142,-106,-74
-118,-112,23,123,-89,-89,-120,-201,-181,-140,-109,-82
-111,-100,27,114,-86,-75,-111,-187,-169,-135,-108,-86
-117,-101,34,117,-93,-71,-109,-178,-162,-131,-106,-87
-117,-98,38,115,-95,-65,-114,-173,-155,-126,-105,-86
-110,-94,34,110,-89,-65,-128,-162,-146,-120,-103,-89
-116,-93,44,112,-97,-56,-127,-144,-127,-106,-91,-80
-107,-84,42,102,-90,-48,-120,-130,-114,-95,-83,-74
-102,-73,50,94,-91,-32,-99,-118,-102,-86,-77,-72
-99,-67,53,90,-90,-25,-74,-104,-91,-79,-72,-68
-100,-60,64,87,-96,-10,-55,-87,-78,-68,-60,-52
-70,-45,40,62,-65,-13,-61,-74,-71,-64,-59,-49
-64,-40,39,57,-60,-9,-49,-60,-59,-57,-52,-43
-59,-33,40,50,-57,-2,-32,-43,-48,-46,-46,-38
-48,-22,39,39,-50,7,-20,-31,-36,-39,-41,-33
-42,-24,29,36,-42,-2,-13,-24,-30,-36,-42,-40
-55,-26,44,44,-57,7,3,-16,-19,-28,-33,-30
-51,-24,42,41,-53,8,9,-13,-16,-26,-31,-29
-41,-22,29,35,-41,0,6,-12,-12,-24,-29,-28
-39,-30,16,37,-33,-17,12,-9,-12,-22,-29,-28
-31,-29,7,32,-23,-23,12,-6,-9,-20,-25,-24
-25,-30,-3,30,-15,-31,14,-4,-12,-21,-26,-24
-17,-26,-10,23,-7,-32,18,-2,-9,-22,-28,-30
-25,-30,-3,29,-15,-31,20,1,-8,-19,-26,-24
-21,-23,0,24,-13,-22,23,2,-6,-19,-27,-26
-13,-25,-13,21,-2,-33,27,2,-6,-19,-27,-26
-31,-29,7,32,-23,-23,33,8,2,-13,-20,-20
-47,-33,24,43,-42,-14,33,7,2,-13,-22,-24
-30,-22,13,28,-26,-12,30,7,3,-13,-21,-23
-17,-15,5,18,-13,-10,32,10,4,-11,-20,-20
-15,-25,-12,22,-4,-33,22,9,3,-13,-20,-20
-9,-20,-13,15,1,-28,24,9,1,-14,-22,-23
-32,-25,13,31,-27,-15,31,12,4,-12,-19,-17
-24,-28,-1,28,-15,-28,31,11,3,-12,-20,-19
-23,-27,-3,27,-13,-28,31,11,4,-11,-20,-19
-22,-26,-3,26,-13,-28,32,12,5,-11,-20,-19
-19,-25,-5,24,-10,-28,33,12,6,-11,-20,-19
-18,-24,-5,23,-9,-27,35,13,8,-10,-20,-18
-18,-23,-3,22,-10,-25,35,13,8,-10,-19,-18
-19,-21,0,22,-13,-21,35,14,8,-10,-18,-17
-19,-20,1,21,-13,-18,35,15,9,-10,-18,-16
-20,-19,5,21,-15,-15,36,16,10,-10,-17,-15
-18,-18,3,20,-13,-15,36,17,11,-9,-17,-15
-16,-15,3,16,-12,-12,36,18,12,-8,-16,-15
-15,-14,3,15,-11,-11,36,19,13,-8,-16,-15
-12,-11,3,13,-10,-9,38,20,14,-7,-16,-14
-12,-11,3,13,-10,-9,38,20,14,-7,-16,-14
-12,-11,3,13,-10,-9,38,21,15,-6,-15,-13
-12,-11,3,13,-10,-9,38,22,16,-6,-15,-13
-14,-11,5,14,-12,-8,39,23,16,-5,-14,-12
-15,-11,7,14,-13,-7,39,24,17,-5,-13,-11
-16,-10,10,14,-15,-3,41,25,18,-4,-13,-10
-16,-9,12,14,-16,0,42,26,19,-3,-12,-9
-17,-7,15,13,-18,4,43,27,21,-2,-11,-8
-17,-7,15,13,-18,4,43,28,22,-2,-11,-8
-16,-6,14,12,-17,4,45,29,22,-1,-10,-7
-16,-6,14,12,-17,4,45,30,23,-1,-9,-6
-15,-5,14,11,-16,5,46,31,25,-0,-9,-5
-14,-4,15,10,-16,7,48,33,26,0,-8,-5
-13,-3,15,9,-15,8,49,34,27,1,-7,-4
-11,-1,14,7,-14,9,50,36,29,3,-7,-3
-11,0,15,6,-14,10,53,37,31,3,-6,-3
-9,2,15,5,-13,11,54,39,32,4,-5,-1
-7,3,14,3,-11,12,56,41,33,5,-4,-0
-6,4,14,2,-10,13,59,43,35,6,-3,1
-4,7,14,-1,-9,16,63,45,37,7,-2,2
-2,8,13,-2,-7,16,64,47,39,8,-1,2
-1,9,13,-4,-6,17,66,49,40,10,-0,3
0,11,13,-5,-5,19,68,51,42,11,0,4
1,12,13,-6,-5,20,71,53,44,12,1,5
3,13,13,-8,-4,22,72,56,46,13,2,6
4,14,13,-9,-3,23,75,59,49,15,4,8
5,15,13,-10,-2,24,77,61,51,16,5,9
5,17,14,-11,-3,26,80,64,54,18,6,11
7,18,13,-12,-1,26,81,67,56,20,8,12
8,19,13,-14,0,28,83,70,59,21,9,14
10,20,12,-15,2,28,84,72,61,23,11,15
12,22,11,-17,3,28,87,75,63,25,13,18
13,23,11,-18,4,29,88,77,66,26,14,20
15,26,12,-21,5,32,91,80,68,28,16,21
17,27,11,-22,6,33,92,83,71,29,17,23
19,29,11,-25,8,35,95,86,74,32,20,26
20,31,11,-26,9,37,96,89,76,33,22,28
22,33,11,-28,10,39,98,92,79,36,24,31
25,36,11,-31,12,42,99,95,82,38,26,33
27,38,11,-33,13,44,102,98,85,40,29,36
30,41,11,-37,15,46,102,100,87,42,31,38
31,43,11,-39,16,48,103,102,89,44,33,40
33,45,12,-41,17,51,103,105,91,45,35,43
35,48,13,-44,18,55,105,107,94,47,37,45
37,50,13,-46,19,57,105,109,96,49,39,46
38,53,14,-48,19,60,105,111,98,51,41,50
40,55,15,-50,20,63,105,113,100,53,43,52
42,58,16,-52,20,66,106,115,102,55,45,55
44,60,15,-54,23,66,105,116,103,56,46,57
46,62,15,-57,24,69,105,117,105,58,48,59
49,65,14,-60,26,71,103,118,106,59,50,61
51,67,15,-62,27,74,103,119,107,61,52,63
52,69,15,-63,28,75,102,119,107,62,53,64
53,70,15,-64,29,76,102,119,108,63,54,65
55,71,14,-66,30,77,100,119,108,64,55,67
56,72,14,-67,31,78,100,120,109,65,57,69
57,72,13,-68,32,77,99,118,108,65,57,69
57,72,13,-68,32,77,98,117,107,65,58,70
58,72,12,-68,33,76,96,116,106,65,59,71
59,74,12,-70,34,78,95,115,106,66,59,72
59,74,12,-70,34,78,92,112,104,65,59,71
59,73,12,-70,34,77,90,110,103,65,59,71
59,74,12,-70,34,78,87,107,101,64,59,71
60,75,11,-71,35,78,84,105,99,64,59,71
60,75,12,-71,35,79,82,101,97,63,59,70
60,75,12,-71,35,79,79,97,94,62,58,70
60,75,11,-71,35,78,76,94,91,61,57,69
60,76,13,-72,34,81,73,90,89,60,57,70
59,75,13,-71,34,80,69,86,86,58,56,69
58,74,13,-70,33,79,66,82,83,57,55,68
57,72,13,-68,32,77,62,78,79,55,53,67
55,72,15,-67,30,79,59,74,76,53,53,67
54,70,13,-65,31,75,56,70,72,51,50,64
54,69,13,-64,30,74,54,66,69,49,48,62
51,66,13,-62,28,71,51,61,65,46,46,60
50,65,13,-60,27,70,49,57,61,44,44,59
48,61,11,-57,27,65,46,53,58,41,42,56
44,57,12,-53,24,62,43,49,54,39,40,54
42,53,10,-49,23,57,40,45,51,37,37,51
38,49,10,-46,21,53,39,42,48,35,35,49
36,47,10,-43,20,51,36,39,45,33,32,46
34,44,10,-41,18,48,35,35,41,31,30,44
31,42,10,-38,16,46,33,32,38,29,27,41
28,39,11,-35,14,45,32,29,35,26,25,38
26,36,10,-32,13,41,31,26,32,24,23,35
22,32,10,-28,10,37,29,24,30,22,21,33
18,28,10,-24,8,33,28,21,28,20,19,31
16,25,10,-21,7,30,28,19,25,18,17,29
14,22,8,-19,6,26,27,17,23,16,14,26
12,19,8,-16,5,24,27,15,21,14,12,23
11,17,7,-14,4,20,25,13,18,12,10,21
8,14,7,-11,3,18,25,11,16,11,8,20
6,11,5,-8,2,13,24,10,15,8,6,16
5,8,3,-6,2,9,24,8,13,7,4,14
4,5,1,-4,2,6,22,7,11,5,2,12
3,3,0,-3,2,3,22,6,10,4,0,10
0,0,0,1,0,-1,23,5,9,2,-2,8
-1,-1,0,2,-1,-2,22,4,7,1,-3,6
-2,-2,0,3,-1,-3,22,3,6,-0,-5,4
-3,-4,0,4,-2,-4,22,2,4,-1,-7,3
-4,-6,-2,6,-2,-8,21,1,3,-2,-8,0
-6,-8,-1,8,-3,-9,21,1,2,-3,-9,-0
-6,-10,-3,9,-2,-12,21,-0,1,-5,-10,-2
-8,-11,-3,10,-4,-13,21,-1,1,-6,-11,-3
-9,-12,-3,11,-4,-14,21,-2,0,-7,-12,-3
-10,-14,-3,13,-5,-16,21,-2,-0,-7,-12,-3
-11,-15,-3,14,-5,-17,21,-2,-1,-8,-13,-5
-12,-15,-1,15,-7,-15,21,-2,-1,-8,-13,-5
-12,-16,-3,15,-7,-18,20,-3,-2,-9,-14,-5
-12,-16,-3,15,-7,-18,20,-3,-2,-9,-14,-5
-13,-17,-3,16,-7,-19,20,-4,-3,-10,-15,-5
-13,-17,-3,16,-7,-19,20,-4,-3,-10,-15,-5
-13,-17,-3,16,-7,-19,19,-5,-4,-11,-15,-7
-12,-16,-3,15,-7,-18,19,-5,-4,-11,-15,-7
-12,-16,-3,15,-7,-18,19,-5,-4,-11,-16,-8
-12,-15,-1,15,-7,-15,19,-5,-4,-11,-16,-8
-12,-16,-3,15,-7,-18,19,-6,-4,-12,-17,-9
-12,-16,-3,15,-7,-18,19,-6,-5,-12,-17,-9
-12,-16,-3,15,-7,-18,19,-6,-5,-13,-18,-9
-12,-16,-3,15,-7,-18,19,-6,-5,-13,-18,-9
-12,-16,-3,15,-7,-18,19,-7,-6,-13,-18,-10
-12,-15,-1,15,-7,-15,19,-7,-6,-13,-18,-10
-12,-15,-1,15,-7,-15,19,-7,-6,-13,-18,-10
-12,-14,0,14,-8,-13,19,-7,-6,-13,-18,-10
