I,II,III,aVR,aVL,aVF,V1,V2,V3,V4,V5,V6
-6,-41,-28,32,18,-36,14,4,2,-2,-8,24
-6,-41,-28,32,18,-36,14,4,2,-2,-8,24
-6,-41,-28,32,18,-36,14,3,2,-2,-8,24
-6,-41,-28,32,18,-36,14,3,2,-2,-8,25
-7,-43,-29,34,19,-37,14,3,2,-3,-10,25
-7,-43,-29,34,19,-37,14,3,2,-3,-10,25
-7,-43,-29,34,19,-37,14,3,2,-4,-11,25
-7,-43,-29,34,19,-37,14,3,2,-4,-11,25
-9,-45,-29,36,18,-38,14,3,2,-4,-11,25
-9,-45,-29,36,18,-38,14,3,2,-4,-10,27
-9,-45,-29,36,18,-38,14,3,2,-4,-10,27
-9,-45,-29,36,18,-38,14,4,3,-3,-8,28
-12,-47,-29,39,16,-39,14,4,3,-3,-8,28
-12,-47,-29,39,16,-39,14,4,3,-3,-8,28
-12,-47,-29,39,16,-39,14,4,3,-3,-8,28
-12,-47,-29,39,16,-39,16,4,3,-2,-8,30
-12,-47,-29,39,16,-39,16,4,3,-2,-8,28
-12,-47,-29,39,16,-39,16,4,3,-1,-8,28
-12,-47,-29,39,16,-39,16,4,3,-1,-8,28
-11,-45,-28,37,16,-37,16,4,4,0,-7,28
-9,-45,-29,36,18,-38,16,3,3,-1,-7,28
-7,-43,-29,34,19,-37,16,3,3,-1,-7,28
-7,-43,-29,34,19,-37,14,2,3,-1,-7,28
-4,-41,-29,31,19,-37,14,2,3,-1,-7,28
-1,-41,-31,29,22,-37,14,2,3,-1,-8,27
-1,-41,-31,29,22,-37,14,2,3,-1,-8,27
-1,-41,-31,29,22,-37,14,2,3,-1,-10,27
-1,-41,-31,29,22,-37,16,3,3,-1,-10,27
-1,-41,-31,29,22,-37,14,2,3,-2,-10,27
-4,-41,-29,31,19,-37,14,2,3,-2,-10,27
-6,-41,-28,32,18,-36,14,2,3,-3,-10,27
-7,-40,-26,31,16,-34,14,2,3,-3,-10,27
-7,-40,-26,31,16,-34,14,2,3,-3,-10,27
-7,-40,-26,31,16,-34,16,2,3,-3,-10,27
-7,-40,-26,31,16,-34,16,2,3,-3,-10,27
-6,-38,-25,29,16,-33,16,3,4,-3,-10,28
-9,-40,-25,32,15,-33,16,3,3,-3,-10,27
-12,-40,-24,34,12,-33,16,3,3,-3,-10,27
-15,-41,-24,36,12,-33,16,3,3,-3,-10,27
-17,-41,-22,37,10,-33,18,3,3,-3,-10,27
-15,-41,-24,36,12,-33,16,3,3,-3,-10,27
-11,-41,-25,34,14,-34,16,3,3,-3,-10,27
-9,-41,-26,33,16,-35,16,3,3,-3,-10,27
-7,-40,-26,31,16,-34,16,3,4,-2,-10,28
-9,-41,-26,33,16,-35,16,2,4,-2,-11,27
-9,-41,-26,33,16,-35,16,2,4,-2,-11,27
-9,-41,-26,33,16,-35,16,2,4,-2,-13,27
-9,-41,-26,33,16,-35,16,2,4,-2,-13,27
-9,-41,-26,33,16,-35,16,2,4,-2,-13,27
-7,-40,-26,31,16,-34,16,2,4,-2,-11,28
-4,-38,-26,28,18,-33,16,2,4,-2,-11,30
-2,-36,-26,27,19,-33,16,3,4,-2,-10,31
-2,-36,-26,27,19,-33,16,2,3,-2,-11,31
-2,-36,-26,27,19,-33,16,2,3,-2,-11,31
-2,-36,-26,27,19,-33,16,2,3,-2,-11,31
-4,-36,-25,28,17,-32,16,2,3,-2,-11,33
-4,-36,-25,28,17,-32,16,2,3,-2,-11,33
-4,-34,-24,27,16,-30,16,2,3,-2,-11,33
-4,-34,-24,27,16,-30,16,2,3,-2,-11,33
-4,-33,-22,26,15,-29,16,3,3,-1,-10,34
-4,-29,-20,23,13,-26,16,3,4,-1,-10,34
-4,-26,-17,21,11,-22,16,3,4,0,-8,36
-4,-22,-14,18,9,-19,14,3,5,1,-7,36
-4,-18,-12,16,7,-16,14,3,6,2,-5,37
-1,-13,-9,10,6,-11,14,3,7,3,-5,37
-1,-8,-5,7,4,-7,16,4,8,5,-4,38
1,-3,-3,3,3,-3,16,5,9,7,-2,38
3,4,2,-3,1,3,18,5,10,9,-1,40
6,8,3,-7,1,6,16,5,11,10,1,41
11,13,4,-14,2,9,16,5,11,11,2,42
15,17,5,-18,2,12,14,5,12,12,3,44
17,22,8,-22,1,16,14,6,13,14,5,47
22,26,8,-27,3,17,13,6,14,16,6,48
27,31,10,-33,4,21,12,6,15,18,8,50
32,35,10,-38,5,22,11,6,15,19,9,51
37,40,11,-44,7,26,10,6,16,21,12,54
40,43,12,-47,6,28,7,5,16,22,13,56
46,49,13,-54,8,31,4,5,17,24,16,58
50,54,15,-60,9,35,1,5,18,26,19,61
56,60,16,-67,10,38,-2,5,19,28,22,64
58,63,18,-70,9,41,-6,3,18,28,22,64
58,67,20,-73,8,44,-10,2,18,28,23,65
61,70,21,-77,8,46,-14,0,18,28,25,65
61,74,24,-79,6,49,-16,-1,18,29,26,67
61,74,24,-79,6,49,-18,-2,16,27,25,65
58,74,26,-78,4,51,-20,-4,15,25,23,65
58,74,26,-78,4,51,-22,-5,13,23,22,65
58,75,27,-79,3,52,-22,-7,11,21,22,65
56,70,24,-74,4,48,-22,-9,9,18,19,64
50,65,23,-67,2,45,-22,-10,8,16,18,63
46,60,21,-62,2,41,-20,-11,6,14,16,61
43,56,20,-58,2,39,-20,-12,5,11,15,60
41,49,16,-52,4,33,-18,-12,4,9,13,58
37,42,12,-45,5,28,-14,-11,4,8,12,57
35,35,8,-39,8,22,-13,-11,3,6,11,56
30,28,5,-32,8,16,-10,-10,3,5,9,54
24,18,2,-23,9,10,-8,-10,2,4,6,51
22,11,-3,-17,11,4,-6,-9,2,3,5,50
17,3,-6,-9,12,-2,-4,-8,2,2,3,47
14,-4,-10,-2,13,-8,-1,-7,2,1,2,45
15,-9,-14,1,16,-12,0,-7,2,0,-1,42
11,-15,-17,6,17,-17,1,-6,2,-1,-2,41
11,-20,-21,9,19,-22,2,-6,2,-2,-5,40
8,-26,-24,15,20,-26,3,-5,2,-2,-7,38
3,-33,-26,22,20,-31,5,-5,1,-4,-10,34
1,-38,-29,27,22,-35,8,-5,1,-5,-13,31
-2,-43,-32,31,22,-39,10,-5,0,-8,-16,28
-6,-48,-33,37,22,-43,13,-4,0,-8,-17,25
-7,-50,-34,39,22,-44,12,-5,1,-8,-17,25
-4,-50,-36,37,25,-45,11,-5,2,-8,-16,25
-2,-50,-37,36,26,-46,10,-5,3,-6,-16,25
1,-50,-39,35,29,-47,10,-5,4,-5,-14,27
-12,-50,-32,41,19,-43,25,8,9,3,-11,36
-4,-54,-39,40,26,-49,22,4,3,-6,-22,28
-6,-59,-41,44,28,-52,22,1,0,-12,-23,22
-41,-79,-39,75,13,-60,20,1,0,-11,-25,27
-9,-58,-39,45,25,-50,25,4,4,-5,-16,30
1,-59,-45,41,33,-54,12,-5,-1,-14,-23,19
-28,-72,-40,64,19,-57,13,1,3,-5,-11,28
-20,-66,-40,56,22,-54,14,1,6,-5,-13,25
27,-48,-50,22,47,-52,11,-1,2,-6,-17,24
22,-47,-47,23,42,-50,14,-1,4,-4,-10,27
-30,-63,-32,58,12,-48,26,7,9,5,-2,36
1,-47,-36,32,26,-43,18,2,6,1,-10,31
-7,-50,-34,39,22,-44,11,0,2,-4,-16,24
-20,-65,-39,55,21,-53,14,1,4,-6,-19,25
-9,-58,-39,45,25,-50,16,-1,2,-16,-26,19
15,-66,-57,39,47,-65,1,-13,-6,-34,-42,7
-12,-100,-69,76,46,-89,14,-2,-3,-41,-46,5
-35,-126,-77,105,43,-106,27,10,1,-52,-57,1
4,-134,-103,91,76,-124,34,13,-3,-79,-84,-22
11,-161,-127,106,96,-152,42,5,-23,-110,-99,-26
-17,-180,-127,133,86,-161,38,-29,-78,-158,-106,-20
-17,-162,-113,121,76,-144,-1,-92,-144,-207,-105,-10
53,-109,-109,51,99,-117,-43,-138,-189,-230,-74,25
84,-47,-79,-6,88,-70,-98,-191,-231,-243,-26,80
102,-6,-57,-42,80,-37,-154,-243,-274,-276,-4,111
136,49,-33,-97,75,3,-220,-298,-320,-323,-8,120
173,116,-1,-161,66,54,-254,-319,-339,-329,29,160
202,205,51,-236,39,127,-291,-344,-349,-308,79,197
240,239,56,-277,50,145,-319,-360,-354,-284,117,228
273,196,7,-263,98,95,-325,-341,-335,-234,174,263
239,132,-24,-203,107,47,-300,-324,-322,-200,213,285
275,72,-88,-179,167,-20,-281,-309,-306,-139,260,309
299,28,-133,-159,209,-68,-259,-275,-273,-68,324,343
277,-18,-156,-117,216,-104,-231,-242,-243,-12,343,345
269,-41,-170,-97,223,-123,-203,-214,-212,33,330,329
253,-97,-203,-51,241,-169,-182,-186,-184,54,275,279
183,-136,-196,8,211,-182,-127,-140,-135,82,192,209
100,-162,-173,66,163,-180,-94,-124,-122,44,69,114
51,-148,-138,79,119,-152,-86,-121,-123,-20,-30,37
1,-168,-127,116,92,-155,-73,-104,-109,-50,-80,-6
-28,-168,-112,130,71,-146,-35,-66,-81,-39,-77,-16
-30,-153,-100,121,61,-132,-20,-42,-54,-30,-83,-30
-51,-121,-65,109,29,-96,-10,-38,-48,-59,-102,-45
-77,-107,-41,111,2,-75,-4,-35,-44,-94,-116,-53
-80,-75,-16,90,-19,-44,-5,-38,-43,-103,-100,-40
-46,-47,-12,55,-9,-29,-4,-31,-28,-65,-72,-23
-12,-29,-16,27,7,-23,14,-10,-6,-25,-34,2
-30,-33,-9,37,-5,-20,26,0,8,0,-19,15
-46,-45,-10,53,-9,-27,26,1,10,3,-25,5
-30,-41,-16,43,0,-28,24,3,10,1,-26,2
-12,-29,-16,27,7,-23,40,17,19,14,-17,14
-35,-41,-13,46,-4,-27,36,13,17,10,-29,-2
-25,-47,-22,45,7,-35,36,15,20,10,-32,-3
-33,-54,-24,54,5,-39,43,21,24,14,-29,2
-38,-47,-16,51,-3,-31,51,26,29,24,-22,4
-35,-45,-16,48,-2,-30,38,18,25,21,-27,0
-41,-41,-10,48,-8,-25,48,23,30,30,-16,10
-44,-47,-13,54,-7,-30,46,22,30,33,-16,8
-9,-31,-18,27,10,-25,45,23,31,30,-22,4
14,-22,-24,10,22,-24,43,23,34,35,-19,5
-25,-43,-20,42,5,-32,49,29,34,37,-14,10
-4,-36,-25,28,17,-32,49,28,32,33,-23,0
-17,-41,-22,37,10,-33,49,27,34,33,-22,-3
-44,-50,-16,56,-5,-33,51,32,37,38,-14,4
-35,-40,-12,45,-5,-26,57,34,41,47,-7,15
-30,-47,-20,47,3,-33,44,27,35,35,-20,2
-28,-43,-18,44,3,-31,50,27,38,42,-13,8
-46,-45,-10,53,-9,-27,52,27,38,43,-13,8
-37,-41,-12,47,-5,-26,53,28,39,43,-13,7
-32,-38,-12,42,-3,-24,55,29,39,44,-13,7
-25,-34,-13,36,0,-24,57,30,40,44,-13,5
-18,-29,-13,29,3,-21,59,32,41,45,-11,5
-17,-31,-14,29,5,-23,57,31,41,44,-13,4
-20,-33,-14,32,3,-24,57,31,41,44,-14,4
-22,-34,-14,34,2,-24,56,31,41,43,-16,4
-25,-36,-14,37,2,-26,56,31,41,43,-17,4
-25,-36,-14,37,2,-26,56,31,41,44,-16,4
-25,-36,-14,37,2,-26,57,32,42,45,-14,5
-25,-36,-14,37,2,-26,57,32,43,46,-13,5
-25,-36,-14,37,2,-26,57,33,43,48,-10,7
-25,-36,-14,37,2,-26,57,33,43,49,-10,7
-25,-36,-14,37,2,-26,57,33,44,50,-10,7
-25,-36,-14,37,2,-26,57,33,44,52,-10,7
-25,-34,-13,36,0,-24,59,34,45,52,-8,7
-27,-34,-12,37,-2,-23,59,34,45,52,-8,7
-28,-33,-10,36,-3,-21,59,34,46,54,-8,7
-27,-31,-9,34,-3,-20,59,34,47,54,-8,7
-28,-29,-7,34,-5,-18,59,35,47,54,-7,7
-28,-29,-7,34,-5,-18,59,34,47,54,-7,7
-25,-27,-7,31,-4,-17,59,34,48,56,-7,7
-25,-27,-7,31,-4,-17,59,34,48,57,-7,7
-25,-26,-6,30,-5,-16,59,34,48,58,-5,7
-25,-26,-6,30,-5,-16,59,34,48,58,-5,5
-24,-23,-5,28,-5,-14,61,35,49,59,-5,5
-27,-23,-4,29,-7,-13,61,35,50,59,-5,5
-27,-22,-3,28,-8,-12,61,36,50,60,-4,5
-27,-22,-3,28,-8,-12,61,36,50,60,-4,5
-27,-22,-3,28,-8,-12,61,36,51,60,-4,5
-27,-22,-3,28,-8,-12,61,36,51,60,-4,5
-24,-20,-3,26,-7,-10,61,36,52,61,-2,5
-24,-20,-3,26,-7,-10,61,36,52,61,-2,5
-25,-18,-1,26,-9,-9,61,37,52,62,-2,5
-27,-18,0,27,-10,-9,61,37,53,62,-2,5
-27,-16,2,25,-11,-7,63,37,53,63,-1,5
-27,-15,3,24,-12,-5,63,37,54,63,-1,5
-27,-13,4,23,-13,-3,63,37,55,63,-1,5
-27,-11,5,22,-14,-2,63,37,55,63,-1,5
-27,-9,7,20,-15,0,65,38,56,64,-1,5
-25,-8,7,18,-14,1,65,38,57,64,-1,4
-25,-6,8,17,-15,2,65,39,57,64,-1,4
-25,-4,10,16,-16,4,65,39,58,64,-1,4
-25,-3,11,15,-16,5,65,40,59,64,-1,4
-25,-1,12,13,-18,7,65,40,59,64,-2,2
-28,1,15,14,-21,10,66,41,59,64,-2,2
-27,3,16,12,-21,11,67,42,59,64,-4,1
-30,4,19,12,-24,14,68,42,60,64,-4,1
-33,4,20,14,-26,14,68,42,60,63,-5,0
-32,6,21,12,-27,16,68,43,61,63,-5,0
-35,6,23,13,-29,17,68,43,61,63,-7,-2
-38,8,26,14,-33,20,68,44,61,63,-7,-2
-44,8,28,16,-36,21,69,45,62,63,-7,-2
-46,10,31,16,-39,24,70,46,62,64,-7,-2
-49,11,34,16,-42,26,71,47,63,64,-7,-2
-53,13,37,17,-47,30,72,49,64,65,-7,-2
-54,15,39,16,-48,31,72,49,65,64,-8,-3
-53,17,40,14,-48,33,73,50,66,64,-10,-5
-54,18,42,14,-50,34,73,50,66,63,-11,-6
-54,22,44,11,-52,37,74,50,67,63,-11,-6
-51,26,46,7,-51,40,74,50,67,62,-13,-7
-51,29,48,5,-53,43,75,51,68,62,-14,-7
-51,33,51,3,-55,47,76,52,68,61,-16,-9
-51,36,54,0,-57,50,77,53,69,61,-16,-9
-51,38,55,-1,-58,52,77,53,68,59,-19,-10
-54,40,58,-1,-61,54,78,53,68,57,-20,-11
-56,42,60,-1,-64,56,78,53,68,54,-22,-13
-56,45,63,-4,-66,60,79,53,68,54,-23,-14
-59,47,66,-3,-69,62,79,53,68,50,-25,-16
-59,50,69,-6,-71,66,80,53,67,48,-26,-17
-61,53,71,-6,-74,68,80,53,66,46,-27,-19
-61,56,74,-9,-76,72,81,53,66,44,-29,-19
-61,58,75,-10,-77,73,81,53,65,41,-32,-20
-61,61,78,-12,-78,76,82,53,64,38,-33,-22
-61,63,79,-14,-80,78,82,53,64,35,-36,-23
-61,67,82,-16,-81,81,83,53,63,31,-37,-23
-61,68,83,-17,-82,83,83,52,61,27,-40,-25
-61,72,86,-20,-84,86,83,51,60,23,-42,-26
-61,74,87,-21,-85,88,83,50,59,19,-45,-28
-61,77,90,-24,-88,91,84,50,57,14,-46,-29
-63,77,91,-23,-89,92,83,48,55,10,-49,-30
-64,79,93,-23,-91,93,82,46,53,7,-51,-32
-63,81,94,-25,-91,95,81,45,52,3,-52,-33
-67,82,96,-25,-94,97,80,44,50,0,-54,-33
-67,82,96,-25,-94,97,78,42,47,-5,-57,-34
-70,82,98,-23,-96,98,77,40,45,-10,-58,-34
-72,82,99,-22,-98,99,76,37,42,-15,-60,-36
-75,82,101,-21,-100,100,75,36,39,-19,-61,-36
-72,82,99,-22,-98,99,72,33,36,-24,-63,-36
-72,82,99,-22,-98,99,69,30,33,-29,-64,-36
-70,82,98,-23,-96,98,66,27,30,-33,-65,-36
-67,85,98,-26,-95,99,63,25,27,-37,-65,-36
-67,82,96,-25,-94,97,61,21,23,-42,-65,-36
-67,82,96,-25,-94,97,57,18,19,-46,-65,-34
-64,82,95,-26,-92,96,55,14,15,-51,-65,-34
-64,82,95,-26,-92,96,53,11,12,-55,-65,-33
-61,81,93,-26,-89,94,49,7,8,-59,-65,-33
-59,79,90,-26,-87,92,45,4,4,-63,-65,-32
-56,77,87,-26,-84,89,41,0,1,-68,-65,-30
-51,77,85,-28,-80,88,37,-3,-3,-72,-65,-29
-48,74,80,-28,-75,83,33,-7,-7,-75,-64,-28
-44,72,77,-28,-71,80,30,-10,-10,-77,-63,-25
-37,70,72,-29,-66,77,26,-13,-14,-80,-61,-22
-35,68,70,-29,-63,74,23,-17,-17,-82,-58,-19
-30,65,64,-29,-57,70,20,-19,-19,-84,-57,-17
-25,61,59,-29,-51,64,18,-21,-21,-84,-54,-14
-20,58,54,-29,-46,60,14,-23,-24,-86,-51,-13
-18,54,50,-28,-42,56,13,-25,-26,-86,-48,-10
-15,49,44,-26,-37,50,11,-26,-27,-84,-45,-9
-11,45,40,-25,-33,46,9,-27,-28,-84,-42,-6
-9,42,36,-24,-29,42,7,-28,-28,-82,-39,-5
-6,38,32,-23,-25,37,5,-29,-29,-82,-36,-2
-4,33,27,-20,-20,31,4,-28,-29,-79,-33,-2
1,29,21,-20,-15,27,4,-27,-28,-77,-30,0
6,26,16,-20,-9,22,4,-26,-28,-75,-27,0
8,22,12,-18,-5,18,4,-26,-28,-72,-25,1
9,17,8,-15,-2,13,4,-25,-27,-69,-23,1
9,13,5,-13,0,10,4,-24,-26,-65,-20,1
8,8,2,-8,2,5,4,-23,-24,-63,-19,1
8,4,-1,-6,5,2,5,-21,-23,-58,-16,1
11,1,-5,-5,9,-3,5,-20,-22,-55,-14,1
10,-3,-7,-2,10,-5,6,-18,-20,-51,-11,1
10,-6,-10,1,12,-9,7,-17,-19,-46,-10,1
14,-8,-13,0,15,-11,8,-14,-17,-42,-7,1
17,-9,-16,0,18,-13,9,-13,-15,-39,-5,1
17,-11,-17,1,19,-15,10,-11,-14,-36,-4,1
20,-13,-20,1,22,-18,11,-10,-12,-33,-2,1
19,-15,-21,3,22,-19,12,-7,-10,-29,-1,1
19,-18,-24,5,24,-22,12,-6,-8,-27,-1,0
20,-20,-25,6,26,-24,12,-5,-7,-23,1,0
19,-22,-26,7,26,-26,12,-3,-6,-20,1,0
20,-23,-28,8,28,-28,13,-2,-4,-17,2,0
19,-26,-29,10,28,-29,13,-1,-3,-15,2,0
19,-26,-29,10,28,-29,14,1,-2,-13,3,0
22,-26,-31,8,30,-30,14,2,-1,-11,5,0
22,-26,-31,8,30,-30,16,3,1,-8,6,1
20,-27,-31,10,29,-31,16,4,1,-6,6,0
17,-29,-31,13,29,-31,16,5,2,-4,6,0
15,-31,-31,15,28,-32,16,5,2,-2,6,-2
15,-31,-31,15,28,-32,16,6,3,0,6,-2
17,-31,-32,14,29,-33,16,7,3,0,6,-3
19,-29,-32,12,30,-32,16,8,4,1,6,-3
19,-29,-32,12,30,-32,16,9,4,2,6,-3
22,-27,-32,9,31,-31,16,10,5,3,8,-3
19,-29,-32,12,30,-32,16,10,5,3,6,-5
17,-29,-31,13,29,-31,16,10,5,4,6,-5
11,-31,-29,17,26,-31,16,11,5,5,6,-6
9,-31,-28,18,24,-31,18,12,6,6,6,-6
9,-31,-28,18,24,-31,16,12,6,6,5,-7
9,-31,-28,18,24,-31,16,12,6,6,5,-7
9,-31,-28,18,24,-31,14,12,6,6,5,-7
6,-31,-26,19,22,-30,14,13,6,7,5,-7
6,-31,-26,19,22,-30,14,13,6,7,3,-9
4,-31,-25,20,20,-29,16,13,6,7,3,-9
1,-31,-24,22,18,-28,16,13,6,7,3,-9
1,-29,-22,21,17,-27,16,13,6,7,3,-9
1,-29,-22,21,17,-27,16,12,6,6,2,-10
4,-27,-22,18,18,-26,16,12,6,6,2,-10
6,-26,-22,16,19,-25,16,12,5,6,2,-10
9,-23,-22,13,20,-24,16,12,5,6,2,-10
11,-22,-22,11,21,-24,16,12,5,6,1,-10
11,-20,-21,9,19,-22,16,12,5,6,1,-10
14,-18,-21,7,20,-21,16,12,5,6,1,-10
15,-16,-20,6,20,-19,18,13,5,6,1,-10
15,-16,-20,6,20,-19,18,13,4,5,-1,-11
15,-16,-20,6,20,-19,18,13,4,5,-1,-11
15,-16,-20,6,20,-19,18,13,4,5,-2,-11
15,-16,-20,6,20,-19,20,13,4,5,-2,-11
15,-16,-20,6,20,-19,18,13,4,4,-2,-13
15,-16,-20,6,20,-19,18,13,4,4,-2,-13
15,-16,-20,6,20,-19,16,12,4,4,-2,-13
15,-16,-20,6,20,-19,16,12,4,4,-2,-13
17,-15,-20,4,21,-18,16,11,4,4,-2,-13
20,-13,-20,1,22,-18,16,11,4,4,-2,-13
22,-11,-20,-1,22,-17,16,11,4,4,-2,-13
22,-9,-18,-3,22,-15,16,11,4,5,-1,-11
24,-8,-18,-5,22,-14,16,10,4,5,-1,-11
24,-6,-17,-6,22,-13,14,10,4,6,1,-10
24,-4,-16,-7,21,-11,14,10,4,6,1,-9
24,-3,-14,-8,20,-10,14,10,5,7,2,-7
29,1,-14,-13,22,-8,13,10,6,8,3,-6
31,4,-13,-17,22,-5,12,10,6,9,5,-5
34,8,-12,-21,22,-3,11,10,7,10,6,-3
40,13,-10,-27,22,1,11,11,7,11,9,-2
45,21,-7,-34,22,5,10,11,8,14,12,0
48,28,-4,-40,21,11,9,11,9,16,15,2
53,35,-1,-48,21,16,8,11,9,18,18,4
56,42,3,-54,19,22,7,12,10,20,20,7
58,49,7,-60,17,28,5,11,11,22,23,10
63,58,11,-69,16,33,4,11,11,24,28,13
65,65,15,-75,14,39,2,10,12,26,31,15
69,74,20,-83,12,47,1,10,13,29,35,18
67,77,24,-83,8,51,1,10,13,30,37,19
65,82,28,-86,5,56,1,10,14,33,38,21
67,88,32,-91,2,61,1,9,14,33,40,22
63,93,37,-93,-3,66,2,9,15,35,43,24
58,93,40,-90,-7,68,3,8,14,35,41,22
56,95,43,-91,-9,71,5,7,13,35,41,22
51,95,46,-88,-13,72,7,6,13,35,40,21
45,97,50,-86,-19,75,9,6,13,35,40,21
40,93,50,-82,-21,74,10,5,11,33,37,18
37,92,50,-80,-22,73,11,5,11,30,35,17
34,89,50,-77,-22,72,12,4,9,28,34,14
30,88,51,-74,-25,72,14,3,9,26,32,13
27,85,50,-70,-26,70,14,2,7,24,31,11
27,82,48,-69,-24,68,14,2,7,23,29,11
27,81,47,-68,-23,67,14,2,6,22,28,10
27,79,46,-66,-22,65,14,2,6,21,26,10
25,70,40,-59,-19,58,13,1,4,18,22,7
22,63,36,-53,-18,52,12,1,4,16,19,4
20,56,32,-47,-16,46,11,1,2,14,16,1
17,49,28,-40,-14,41,10,1,2,11,13,0
11,40,24,-31,-12,33,10,1,1,9,11,-3
8,33,20,-26,-11,28,10,1,1,7,8,-6
4,24,16,-18,-9,22,10,1,0,5,5,-9
1,17,12,-11,-8,16,11,2,-1,4,3,-10
-2,11,10,-6,-7,11,11,2,-1,2,1,-13
-6,6,8,0,-8,8,12,2,-2,1,-1,-14
-9,1,5,5,-7,4,12,2,-3,0,-4,-17
-15,-4,4,11,-8,1,13,2,-3,-1,-5,-19
-15,-11,-1,16,-5,-6,14,3,-3,-2,-7,-20
-15,-18,-6,21,-1,-12,16,4,-4,-3,-8,-20
-15,-26,-12,26,3,-19,16,5,-5,-4,-10,-22
-11,-31,-17,28,9,-24,18,5,-5,-4,-10,-22
-7,-33,-21,27,12,-28,16,5,-5,-5,-13,-23
-1,-34,-25,25,18,-31,16,4,-5,-5,-14,-23
3,-36,-29,25,22,-34,14,3,-5,-5,-16,-25
6,-38,-32,24,26,-36,13,3,-5,-5,-17,-25
-7,-50,-34,39,22,-44,16,5,-1,0,-11,-19
-17,-63,-39,52,22,-52,18,8,-1,1,-11,-17
-4,-45,-32,33,22,-40,18,7,-1,-3,-16,-25
11,-43,-39,26,33,-43,22,11,0,0,-10,-20
-17,-59,-36,49,20,-49,27,15,-1,3,-7,-19
-15,-59,-37,48,22,-50,24,11,-3,-2,-16,-26
-9,-58,-39,45,25,-50,25,13,-3,1,-11,-20
6,-58,-47,37,36,-54,27,11,-2,2,-11,-14
19,-40,-40,20,36,-42,32,17,2,6,-4,-7
15,-55,-49,32,41,-55,11,2,-5,1,-13,-19
6,-54,-44,35,34,-51,11,-1,-6,4,-5,-9
25,-45,-47,20,43,-49,9,-2,-9,-2,-10,-17
1,-63,-48,43,35,-58,7,-2,-10,-12,-27,-28
-20,-75,-47,62,26,-63,0,-4,-12,-17,-32,-33
-7,-72,-50,54,34,-64,11,3,-10,-8,-17,-20
-1,-91,-68,64,49,-83,10,8,-8,-15,-26,-29
6,-102,-80,68,60,-95,18,18,0,-20,-36,-33
-7,-121,-88,88,61,-110,23,17,-9,-43,-49,-43
-17,-144,-100,108,67,-128,27,-4,-47,-107,-90,-63
-1,-151,-113,106,82,-139,0,-54,-116,-186,-124,-82
1,-143,-108,99,79,-132,-26,-100,-168,-226,-105,-53
48,-97,-97,45,88,-104,-70,-149,-219,-260,-83,-22
117,-33,-85,-31,105,-67,-132,-206,-267,-287,-55,14
88,26,-26,-58,53,-4,-190,-263,-322,-338,-33,47
121,82,0,-113,46,39,-235,-311,-366,-367,-11,81
150,173,54,-190,18,114,-284,-356,-400,-396,-7,93
222,251,75,-278,29,163,-323,-373,-404,-377,53,142
261,249,54,-295,59,148,-350,-372,-395,-331,121,199
307,185,-18,-272,128,75,-343,-355,-376,-284,166,232
320,85,-101,-208,193,-22,-323,-340,-366,-259,196,239
320,-1,-165,-149,240,-101,-297,-309,-337,-198,239,266
294,-58,-195,-98,251,-146,-281,-279,-308,-131,288,282
297,-91,-222,-77,271,-177,-262,-263,-281,-69,317,292
289,-132,-248,-44,288,-213,-225,-226,-242,-16,308,266
245,-148,-238,-13,264,-213,-180,-191,-201,33,283,246
209,-165,-232,17,247,-219,-151,-162,-161,59,209,180
124,-155,-180,49,177,-182,-139,-154,-158,5,82,88
77,-148,-151,67,138,-160,-111,-125,-138,-43,-13,13
35,-126,-113,72,95,-127,-78,-98,-122,-76,-75,-37
6,-125,-97,84,73,-117,-71,-86,-107,-87,-99,-66
-35,-126,-77,105,43,-106,-50,-70,-81,-70,-87,-65
-56,-109,-53,102,18,-83,-41,-61,-71,-89,-96,-75
-56,-87,-37,87,6,-63,-27,-46,-62,-114,-112,-88
-61,-73,-24,81,-5,-48,-13,-34,-52,-101,-92,-77
-46,-65,-25,67,2,-45,11,-15,-32,-57,-55,-52
-15,-48,-29,41,16,-40,22,-2,-16,-32,-34,-43
-9,-41,-26,33,16,-35,29,9,-5,-14,-17,-36
-35,-52,-21,53,2,-37,32,13,2,-3,-13,-29
-20,-41,-21,38,8,-31,37,17,7,5,-8,-23
-6,-38,-25,29,16,-33,23,12,6,3,-16,-32
-18,-47,-26,41,12,-37,32,19,13,11,-13,-26
-20,-50,-28,45,13,-40,36,22,15,18,-11,-26
-1,-52,-39,37,28,-47,34,20,12,14,-22,-37
-44,-58,-21,61,-1,-39,39,20,15,19,-13,-33
-63,-52,-6,67,-19,-28,54,32,21,31,-1,-20
-35,-61,-28,60,7,-45,45,26,16,21,-14,-37
-30,-58,-28,55,9,-43,42,26,18,21,-8,-37
-44,-61,-24,64,1,-43,45,25,20,25,-5,-29
-20,-38,-18,36,6,-28,52,32,26,33,2,-22
-23,-43,-21,41,7,-33,40,25,22,27,-7,-29
-46,-47,-12,55,-9,-29,44,29,24,31,-4,-25
-41,-52,-18,56,-2,-35,48,33,27,37,-2,-22
-25,-41,-18,41,4,-30,49,34,29,37,-7,-29
-9,-41,-26,33,16,-35,47,34,27,35,-7,-32
-15,-45,-26,38,14,-37,48,34,26,33,-8,-32
-22,-48,-25,44,10,-37,49,34,25,33,-8,-32
-30,-52,-24,51,6,-38,50,34,25,30,-10,-32
-37,-55,-22,57,2,-39,51,34,24,29,-10,-32
-35,-54,-22,55,3,-39,51,34,25,31,-8,-30
-30,-50,-22,50,5,-37,52,34,27,33,-7,-29
-27,-48,-22,47,6,-36,53,34,28,35,-5,-28
-25,-45,-21,43,6,-33,54,35,30,38,-2,-25
-23,-43,-21,41,7,-33,55,35,30,39,-2,-25
-22,-41,-20,39,6,-31,56,36,31,40,-1,-25
-20,-40,-20,37,7,-30,57,36,32,41,1,-25
-18,-36,-18,34,7,-28,57,37,33,43,2,-23
-18,-36,-18,34,7,-28,57,37,33,43,2,-25
-18,-36,-18,34,7,-28,59,37,34,43,2,-25
-18,-36,-18,34,7,-28,59,37,34,43,2,-26
-20,-36,-17,35,5,-27,59,38,34,44,2,-26
-23,-36,-16,36,3,-26,59,38,34,44,2,-26
-25,-36,-14,37,2,-26,59,38,35,44,2,-26
-28,-36,-13,39,-1,-24,57,38,35,44,2,-26
-33,-36,-10,41,-5,-23,57,39,36,45,2,-26
-33,-36,-10,41,-5,-23,53,39,36,45,2,-26
-35,-36,-9,42,-6,-22,48,40,36,46,2,-26
-35,-36,-9,42,-6,-22,43,41,37,47,2,-26
-38,-36,-7,44,-9,-21,38,42,38,48,2,-25
-35,-34,-7,41,-8,-20,32,42,38,49,2,-25
-32,-31,-6,37,-7,-18,27,43,39,50,3,-23
-27,-27,-6,32,-5,-16,22,44,39,52,5,-23
-24,-23,-5,28,-5,-14,16,45,41,54,6,-22
-22,-22,-5,27,-4,-13,11,45,41,54,6,-22
-22,-20,-4,25,-5,-11,6,45,41,54,6,-22
-20,-18,-4,23,-5,-10,0,45,42,56,6,-22
-17,-15,-3,19,-4,-9,-5,45,43,57,6,-20
-20,-15,-1,21,-6,-7,-6,45,43,57,6,-22
-19,-13,0,19,-7,-6,-6,45,43,57,6,-22
-22,-13,2,20,-9,-5,-6,45,44,57,6,-22
-25,-11,4,21,-12,-3,-6,46,45,58,6,-22
-27,-11,5,22,-14,-2,-7,46,45,58,6,-22
-29,-9,8,21,-16,1,-7,46,45,58,6,-22
-32,-9,10,23,-19,2,-7,46,46,58,6,-22
-35,-8,12,23,-22,4,-7,46,47,59,6,-22
-35,-6,13,22,-22,5,-6,47,47,60,6,-22
-33,-3,15,19,-22,8,-5,48,48,61,8,-22
-30,1,16,15,-22,10,-4,49,50,62,8,-22
-30,4,19,12,-24,14,-3,50,51,63,9,-20
-30,6,20,11,-26,16,-3,50,52,63,9,-20
-30,8,21,10,-26,17,-2,50,52,63,9,-20
-30,10,23,8,-27,19,-2,51,53,63,9,-20
-30,13,26,6,-29,22,-1,52,54,64,9,-20
-33,15,28,6,-33,24,-1,52,55,64,8,-22
-35,17,31,6,-35,27,-1,53,55,64,8,-22
-38,18,34,6,-38,30,-1,53,56,64,8,-22
-38,22,36,4,-40,33,0,53,57,65,8,-22
-37,24,37,2,-40,34,1,54,57,65,6,-23
-41,26,40,3,-43,37,2,55,58,65,6,-23
-41,28,42,1,-45,39,3,56,59,65,6,-25
-44,29,44,2,-48,41,4,57,59,65,6,-25
-46,31,47,1,-50,43,4,57,60,65,5,-25
-48,35,51,0,-54,47,5,58,61,65,5,-25
-54,36,55,2,-60,51,6,58,61,65,5,-25
-56,40,59,0,-63,54,7,59,62,66,5,-25
-56,42,60,-1,-64,56,8,59,62,65,3,-26
-56,45,63,-4,-66,60,9,60,62,65,2,-26
-53,49,64,-8,-66,62,10,61,63,64,1,-28
-53,53,67,-10,-67,66,11,61,64,64,1,-28
-59,54,71,-8,-73,69,12,61,64,63,-1,-29
-61,58,75,-10,-77,73,13,62,64,62,-1,-29
-64,61,79,-11,-81,77,14,63,64,61,-2,-30
-67,65,83,-12,-84,81,14,64,65,61,-2,-30
-67,68,86,-15,-86,84,14,64,65,59,-4,-32
-67,74,90,-19,-89,89,14,64,65,58,-4,-32
-67,77,93,-21,-91,93,14,64,65,57,-5,-33
-67,82,96,-25,-94,97,16,65,65,56,-5,-33
-67,86,99,-27,-96,100,16,64,64,54,-7,-34
-70,89,103,-28,-100,105,16,64,64,52,-8,-34
-70,93,106,-30,-102,108,16,64,63,49,-10,-34
-72,97,110,-31,-105,112,18,64,63,47,-10,-34
-72,99,111,-33,-107,114,16,62,62,44,-11,-36
-72,102,114,-35,-109,117,16,61,61,42,-13,-36
-75,104,117,-35,-112,119,14,59,59,40,-14,-36
-75,107,119,-37,-114,123,14,58,59,38,-14,-36
-77,107,120,-36,-116,123,14,56,56,35,-16,-37
-79,109,123,-37,-118,126,13,54,54,31,-17,-37
-80,111,125,-37,-119,128,12,53,52,28,-19,-39
-82,113,127,-38,-122,131,12,51,50,25,-20,-39
-82,113,127,-38,-122,131,10,49,48,21,-22,-39
-82,114,128,-39,-123,132,8,46,45,18,-22,-39
-79,116,128,-42,-122,133,6,44,43,14,-23,-39
-80,118,130,-42,-123,135,5,42,41,11,-23,-39
-80,118,130,-42,-123,135,1,37,38,8,-25,-39
-77,120,130,-45,-122,135,-2,34,34,5,-25,-37
-77,120,130,-45,-122,135,-5,31,31,2,-25,-37
-77,121,131,-46,-123,136,-8,28,28,0,-25,-36
-77,120,130,-45,-122,135,-12,24,24,-3,-25,-34
-74,120,128,-47,-120,135,-14,21,21,-6,-23,-33
-72,120,127,-48,-119,134,-18,18,18,-10,-23,-32
-72,120,127,-48,-119,134,-20,14,15,-12,-22,-29
-70,118,125,-47,-116,131,-24,11,11,-14,-20,-28
-67,116,122,-48,-112,129,-27,8,8,-15,-19,-25
-64,114,119,-47,-110,126,-31,5,5,-17,-17,-23
-61,113,117,-48,-107,124,-34,2,2,-18,-16,-20
-53,109,110,-49,-98,118,-37,-1,0,-19,-14,-19
-48,106,104,-49,-93,113,-39,-2,-2,-20,-11,-16
-43,102,99,-49,-87,108,-41,-5,-4,-21,-10,-13
-35,100,94,-51,-81,104,-43,-6,-6,-21,-7,-10
-33,93,87,-47,-75,96,-44,-7,-7,-21,-5,-9
-27,88,80,-47,-67,90,-45,-7,-8,-21,-4,-7
-23,82,74,-45,-61,83,-46,-8,-9,-21,-2,-6
-17,77,67,-44,-54,77,-47,-8,-10,-20,1,-5
-15,70,60,-40,-49,70,-48,-8,-10,-20,2,-3
-9,65,54,-39,-42,63,-48,-7,-10,-19,3,-2
-4,60,47,-38,-35,56,-48,-7,-10,-18,5,0
-2,54,42,-35,-30,51,-48,-6,-10,-17,8,1
1,49,36,-33,-26,45,-47,-5,-10,-16,9,1
3,43,31,-30,-21,39,-46,-5,-9,-14,11,1
6,38,26,-28,-16,34,-45,-4,-8,-13,12,1
9,35,21,-28,-12,30,-44,-2,-8,-11,15,2
8,29,18,-23,-9,25,-44,-2,-7,-10,15,2
11,26,13,-22,-5,20,-43,-2,-6,-8,16,4
14,22,10,-21,-2,16,-43,-1,-6,-5,18,4
14,18,7,-18,1,13,-42,0,-5,-3,19,5
15,13,3,-15,4,9,-42,0,-4,-2,19,5
15,10,0,-13,6,5,-41,1,-3,-1,19,5
15,6,-3,-10,8,2,-40,2,-3,0,19,5
15,3,-5,-8,10,-1,-39,2,-1,1,20,5
11,-1,-6,-4,9,-4,-38,3,-1,1,20,5
10,-3,-7,-2,10,-5,-37,4,0,2,22,5
8,-6,-9,2,10,-8,-36,5,1,3,22,5
8,-8,-10,3,11,-9,-35,5,1,4,23,5
9,-9,-12,3,12,-11,-35,5,1,4,23,5
8,-11,-13,5,12,-12,-35,6,2,5,25,5
9,-13,-14,6,14,-14,-35,6,2,6,25,5
9,-13,-14,6,14,-14,-34,7,3,7,26,5
8,-15,-16,7,15,-16,-34,8,4,7,26,4
8,-15,-16,7,15,-16,-33,9,4,8,26,4
8,-15,-16,7,15,-16,-32,10,5,9,26,4
8,-15,-16,7,15,-16,-31,10,6,10,28,4
9,-16,-17,8,16,-18,-31,10,6,10,28,2
6,-18,-17,11,15,-18,-31,10,6,11,28,2
4,-20,-17,13,14,-19,-31,10,6,12,28,2
4,-20,-17,13,14,-19,-30,10,6,14,28,2
4,-20,-17,13,14,-19,-30,10,6,14,28,2
4,-20,-17,13,14,-19,-30,10,6,14,28,2
4,-20,-17,13,14,-19,-30,10,6,14,28,2
4,-20,-17,13,14,-19,-29,10,7,16,28,2
4,-20,-17,13,14,-19,-28,10,7,16,26,2
4,-20,-17,13,14,-19,-27,11,7,16,26,2
4,-20,-17,13,14,-19,-26,11,7,16,26,2
3,-18,-16,12,12,-18,-25,12,8,16,26,2
6,-18,-17,11,15,-18,-25,11,8,16,26,1
9,-16,-17,8,16,-18,-25,11,8,16,26,1
11,-16,-18,7,18,-18,-25,11,8,16,26,1
14,-15,-18,5,19,-18,-25,11,8,16,26,1
14,-15,-18,5,19,-18,-25,11,8,16,25,1
14,-15,-18,5,19,-18,-24,11,8,16,25,1
14,-15,-18,5,19,-18,-23,11,8,16,23,1
11,-15,-17,6,17,-17,-22,12,8,16,23,1
9,-16,-17,8,16,-18,-23,11,7,14,22,0
9,-16,-17,8,16,-18,-23,11,7,14,20,0
6,-18,-17,11,15,-18,-24,10,7,14,19,0
6,-18,-17,11,15,-18,-24,10,7,14,19,0
4,-20,-17,13,14,-19,-24,10,6,14,18,-2
1,-20,-16,14,12,-18,-23,10,6,14,18,-2
1,-20,-16,14,12,-18,-22,10,6,14,18,-2
-1,-20,-14,15,10,-18,-22,10,6,14,18,-2
-1,-20,-14,15,10,-18,-22,10,5,12,16,-3
1,-18,-14,13,11,-17,-20,10,5,12,16,-3
4,-16,-14,10,12,-16,-20,10,5,12,15,-3
3,-15,-13,10,11,-14,-20,10,5,12,15,-3
1,-16,-13,12,10,-15,-20,9,4,12,15,-5
1,-16,-13,12,10,-15,-20,8,4,12,15,-5
1,-16,-13,12,10,-15,-20,7,4,12,15,-5
-1,-16,-12,13,9,-14,-20,7,4,12,15,-5
1,-16,-13,12,10,-15,-20,6,4,11,13,-5
1,-16,-13,12,10,-15,-18,6,4,11,13,-5
1,-16,-13,12,10,-15,-18,6,4,10,13,-5
3,-15,-13,10,11,-14,-18,6,4,10,13,-5
1,-16,-13,12,10,-15,-18,5,3,9,12,-5
-2,-18,-13,15,9,-16,-18,5,2,9,12,-5
-4,-20,-13,17,8,-17,-20,4,2,8,12,-5
-4,-20,-13,17,8,-17,-20,4,1,8,12,-5
-4,-20,-13,17,8,-17,-20,4,1,7,11,-5
-2,-18,-13,15,9,-16,-18,4,1,7,11,-5
-2,-18,-13,15,9,-16,-18,4,1,7,11,-5
1,-16,-13,12,10,-15,-18,4,1,7,11,-5
-2,-18,-13,15,9,-16,-18,3,1,6,9,-6
-2,-18,-13,15,9,-16,-18,3,1,6,9,-6
-2,-18,-13,15,9,-16,-18,2,1,5,9,-6
-2,-18,-13,15,9,-16,-18,2,1,5,9,-6
1,-18,-14,13,11,-17,-18,2,1,5,9,-6
1,-18,-14,13,11,-17,-18,2,1,5,9,-6
1,-18,-14,13,11,-17,-20,2,1,5,9,-6
4,-16,-14,10,12,-16,-20,2,1,5,11,-6
6,-16,-16,9,14,-16,-20,2,0,4,9,-6
9,-16,-17,8,16,-18,-18,2,0,4,9,-6
11,-16,-18,7,18,-18,-18,2,-1,4,8,-6
11,-16,-18,7,18,-18,-18,2,-1,4,8,-6
11,-16,-18,7,18,-18,-18,2,-1,4,8,-6
9,-16,-17,8,16,-18,-18,2,-1,5,9,-5
9,-16,-17,8,16,-18,-18,2,-1,5,11,-5
6,-16,-16,9,14,-16,-18,2,0,6,12,-3
6,-16,-16,9,14,-16,-18,2,0,6,12,-3
6,-16,-16,9,14,-16,-18,2,0,6,12,-3
6,-16,-16,9,14,-16,-18,2,0,6,12,-3
6,-16,-16,9,14,-16,-16,2,1,7,12,-3
3,-18,-16,12,12,-18,-16,2,1,6,12,-5
-1,-20,-14,15,10,-18,-16,2,1,6,12,-5
-4,-22,-14,18,9,-19,-16,2,1,5,12,-5
-7,-22,-13,20,7,-18,-16,2,1,5,12,-5
-4,-22,-14,18,9,-19,-18,2,0,4,11,-5
-4,-22,-14,18,9,-19,-18,2,0,4,11,-5
-4,-22,-14,18,9,-19,-18,2,0,4,11,-5
-1,-20,-14,15,10,-18,-18,2,0,4,11,-5
1,-20,-16,14,12,-18,-18,2,-1,3,9,-6
1,-20,-16,14,12,-18,-16,2,-1,3,9,-6
1,-20,-16,14,12,-18,-16,2,-1,3,8,-6
1,-20,-16,14,12,-18,-16,2,-1,3,8,-6
1,-20,-16,14,12,-18,-16,1,-1,3,8,-6
3,-18,-16,12,12,-18,-16,1,-1,4,9,-6
3,-18,-16,12,12,-18,-16,1,-1,5,9,-6
6,-16,-16,9,14,-16,-14,1,-1,6,11,-5
6,-16,-16,9,14,-16,-14,1,-1,6,9,-5
6,-16,-16,9,14,-16,-14,1,-1,6,9,-5
6,-16,-16,9,14,-16,-14,1,-1,6,9,-5
6,-16,-16,9,14,-16,-13,1,0,7,9,-5
3,-18,-16,12,12,-18,-13,0,-1,6,8,-6
1,-20,-16,14,12,-18,-12,0,-1,6,6,-6
-2,-22,-16,17,11,-20,-12,0,-1,5,5,-7
-2,-22,-16,17,11,-20,-11,0,-1,5,5,-7
1,-22,-17,16,13,-20,-12,-1,-1,4,3,-9
1,-22,-17,16,13,-20,-12,-1,-1,3,3,-9
3,-22,-18,15,15,-21,-13,-1,-2,2,2,-9
3,-22,-18,15,15,-21,-13,-1,-2,2,2,-9
3,-22,-18,15,15,-21,-13,-1,-2,2,2,-9
1,-22,-17,16,13,-20,-12,-1,-2,2,2,-9
1,-22,-17,16,13,-20,-11,-1,-2,2,2,-9
1,-20,-16,14,12,-18,-10,0,-1,3,2,-9
4,-20,-17,13,14,-19,-10,-1,-1,3,2,-9
4,-20,-17,13,14,-19,-10,-1,-1,3,2,-9
4,-20,-17,13,14,-19,-10,-2,-1,3,2,-9
4,-20,-17,13,14,-19,-10,-2,-1,4,2,-7
4,-20,-17,13,14,-19,-10,-2,-1,4,2,-7
4,-20,-17,13,14,-19,-9,-2,-1,5,2,-7
4,-20,-17,13,14,-19,-8,-2,-1,5,2,-7
3,-18,-16,12,12,-18,-7,-1,0,6,3,-6
4,-20,-17,13,14,-19,-7,-1,-1,5,2,-7
4,-20,-17,13,14,-19,-7,-1,-1,5,2,-7
1,-22,-17,16,13,-20,-7,-1,-1,5,2,-9
1,-22,-17,16,13,-20,-7,-1,-1,5,2,-9
1,-22,-17,16,13,-20,-8,-2,-1,5,2,-9
1,-22,-17,16,13,-20,-8,-2,-1,5,2,-9
1,-22,-17,16,13,-20,-8,-2,-1,5,2,-9
1,-22,-17,16,13,-20,-8,-2,-1,5,2,-7
-1,-23,-17,18,12,-21,-8,-2,-1,4,2,-7
-1,-23,-17,18,12,-21,-8,-2,-1,4,2,-7
-1,-23,-17,18,12,-21,-8,-2,-1,4,2,-7
-4,-23,-16,19,10,-20,-7,-2,-1,4,2,-7
-4,-23,-16,19,10,-20,-7,-2,-2,3,2,-7
-4,-23,-16,19,10,-20,-7,-2,-2,3,2,-6
-4,-23,-16,19,10,-20,-7,-3,-2,3,2,-6
-2,-22,-16,17,11,-20,-7,-3,-2,3,3,-5
-2,-22,-16,17,11,-20,-7,-3,-2,3,3,-5
1,-20,-16,14,12,-18,-6,-2,-1,4,5,-3
1,-20,-16,14,12,-18,-5,-2,-1,5,5,-3
1,-18,-14,13,11,-17,-4,-2,-1,6,6,-2
3,-18,-16,12,12,-18,-4,-2,-1,6,6,-2
3,-18,-16,12,12,-18,-4,-2,0,6,6,-2
3,-18,-16,12,12,-18,-4,-2,0,6,6,-2
3,-18,-16,12,12,-18,-3,-2,1,6,6,-2
1,-20,-16,14,12,-18,-4,-2,0,5,5,-3
-2,-22,-16,17,11,-20,-4,-2,0,5,5,-3
-4,-23,-16,19,10,-20,-5,-3,-1,5,5,-5
-6,-23,-14,20,9,-20,-5,-3,-1,5,5,-5
-6,-23,-14,20,9,-20,-5,-3,-1,4,3,-5
-4,-22,-14,18,9,-19,-4,-3,-1,4,3,-5
-4,-22,-14,18,9,-19,-4,-3,-1,4,3,-5
-1,-20,-14,15,10,-18,-3,-3,0,4,3,-5
-1,-20,-14,15,10,-18,-3,-4,0,3,2,-5
-1,-20,-14,15,10,-18,-3,-4,0,3,2,-5
-1,-20,-14,15,10,-18,-3,-4,0,3,2,-5
-4,-20,-13,17,8,-17,-3,-4,0,3,2,-5
-1,-20,-14,15,10,-18,-3,-4,0,3,2,-5
1,-18,-14,13,11,-17,-2,-3,0,3,2,-5
1,-18,-14,13,11,-17,-1,-3,0,3,2,-5
4,-16,-14,10,12,-16,0,-2,1,4,3,-3
1,-20,-16,14,12,-18,0,-2,1,3,2,-5
-2,-22,-16,17,11,-20,0,-2,1,3,2,-5
-1,-23,-17,18,12,-21,0,-2,1,2,2,-6
-4,-26,-17,21,11,-22,0,-2,1,2,2,-6
-4,-26,-17,21,11,-22,0,-2,0,2,2,-6
-1,-23,-17,18,12,-21,0,-2,0,2,2,-6
-1,-23,-17,18,12,-21,0,-2,0,2,2,-6
-2,-22,-16,17,11,-20,0,-2,0,3,2,-5
-2,-22,-16,17,11,-20,0,-2,0,3,2,-6
1,-20,-16,14,12,-18,0,-2,0,4,2,-6
1,-20,-16,14,12,-18,0,-2,0,4,2,-6
1,-18,-14,13,11,-17,1,-2,1,5,2,-6
1,-18,-14,13,11,-17,1,-2,1,5,2,-6
4,-16,-14,10,12,-16,1,-2,1,5,2,-6
4,-16,-14,10,12,-16,1,-2,1,5,2,-6
6,-15,-14,8,13,-15,1,-2,1,5,2,-5
4,-16,-14,10,12,-16,1,-2,1,4,2,-5
1,-18,-14,13,11,-17,1,-2,1,4,2,-5
-1,-20,-14,15,10,-18,1,-2,1,4,2,-5
-4,-22,-14,18,9,-19,1,-2,1,4,2,-5
-6,-23,-14,20,9,-20,1,-2,1,3,2,-5
-6,-23,-14,20,9,-20,2,-2,1,3,2,-5
-9,-26,-14,23,7,-20,2,-2,1,3,2,-5
-9,-26,-14,23,7,-20,3,-2,1,3,2,-3
-11,-27,-14,25,6,-21,2,-2,1,3,2,-3
-11,-27,-14,25,6,-21,2,-2,1,3,2,-3
-11,-27,-14,25,6,-21,2,-2,1,3,2,-3
-11,-27,-14,25,6,-21,2,-2,1,3,2,-3
-9,-27,-16,24,8,-22,2,-2,1,3,1,-3
-7,-26,-16,22,9,-21,2,-2,1,3,1,-3
-7,-26,-16,22,9,-21,2,-2,1,3,1,-3
-4,-23,-16,19,10,-20,3,-1,1,3,1,-3
-4,-23,-16,19,10,-20,2,-2,1,2,1,-3
-4,-23,-16,19,10,-20,2,-2,1,2,1,-3
-4,-23,-16,19,10,-20,2,-2,1,2,1,-3
-4,-23,-16,19,10,-20,2,-2,1,2,2,-2
-1,-23,-17,18,12,-21,2,-2,1,2,2,-2
-1,-23,-17,18,12,-21,3,-1,1,2,2,0
-1,-23,-17,18,12,-21,3,-1,1,2,2,0
1,-22,-17,16,13,-20,4,0,2,3,2,1
-1,-23,-17,18,12,-21,4,0,2,3,2,1
-4,-26,-17,21,11,-22,4,0,2,3,2,2
-6,-27,-17,23,10,-23,4,0,2,3,2,2
-6,-27,-17,23,10,-23,5,0,2,3,2,4
-7,-29,-18,25,11,-24,4,-1,1,2,2,4
-4,-29,-20,23,13,-26,4,-1,1,2,2,4
-2,-29,-21,22,15,-26,3,-1,1,2,2,4
1,-29,-22,21,17,-27,3,-1,1,2,2,4
1,-29,-22,21,17,-27,3,-1,1,2,2,4
1,-29,-22,21,17,-27,4,-1,1,2,2,5
1,-29,-22,21,17,-27,4,-1,1,2,2,5
-2,-29,-21,22,15,-26,5,-1,1,2,2,7
-2,-29,-21,22,15,-26,5,-1,1,2,2,7
-2,-29,-21,22,15,-26,5,-1,1,2,2,8
-2,-29,-21,22,15,-26,5,-1,1,2,2,8
-1,-27,-20,20,14,-24,6,-1,1,2,2,10
-1,-27,-20,20,14,-24,6,-1,1,2,2,10
-4,-27,-18,22,12,-24,7,0,1,3,2,11
-4,-27,-18,22,12,-24,7,0,1,3,2,11
-6,-27,-17,23,10,-23,8,1,2,4,3,13
-7,-29,-18,25,11,-24,8,0,2,3,3,13
-7,-29,-18,25,11,-24,8,0,2,3,3,13
-7,-29,-18,25,11,-24,8,0,2,3,3,13
-7,-29,-18,25,11,-24,8,0,2,3,3,14
-4,-29,-20,23,13,-26,7,-1,1,2,3,14
-4,-29,-20,23,13,-26,7,-1,1,2,3,14
-2,-29,-21,22,15,-26,7,-1,1,2,3,14
-2,-29,-21,22,15,-26,7,-1,1,2,3,14
-2,-29,-21,22,15,-26,7,-1,1,2,2,13
-2,-29,-21,22,15,-26,8,-1,1,2,2,13
-2,-29,-21,22,15,-26,8,-1,1,2,2,13
-2,-29,-21,22,15,-26,9,0,2,2,2,13
-2,-29,-21,22,15,-26,8,0,2,2,2,13
1,-27,-21,19,16,-25,8,0,2,2,3,13
1,-27,-21,19,16,-25,8,0,2,2,3,13
3,-26,-21,17,16,-24,8,1,2,3,5,13
3,-26,-21,17,16,-24,8,1,2,3,3,13
3,-26,-21,17,16,-24,8,1,2,3,3,13
3,-26,-21,17,16,-24,8,1,2,3,3,13
3,-26,-21,17,16,-24,9,2,3,3,3,13
1,-27,-21,19,16,-25,9,2,3,3,3,11
1,-27,-21,19,16,-25,9,2,3,3,3,11
1,-27,-21,19,16,-25,9,2,3,3,3,11
1,-27,-21,19,16,-25,10,2,3,3,3,11
1,-29,-22,21,17,-27,9,1,2,2,2,10
-1,-31,-22,23,16,-28,8,1,2,2,2,10
-4,-33,-22,26,15,-29,7,1,2,1,2,10
-4,-33,-22,26,15,-29,7,1,2,1,2,10
-4,-33,-22,26,15,-29,7,1,2,1,2,10
-4,-33,-22,26,15,-29,8,1,2,1,2,10
-4,-33,-22,26,15,-29,8,1,2,1,2,10
-1,-31,-22,23,16,-28,9,2,3,1,2,10
1,-31,-24,22,18,-28,8,2,3,1,2,10
3,-29,-24,20,19,-28,8,2,3,2,2,10
9,-27,-25,15,22,-28,8,2,3,2,2,10
11,-26,-25,13,22,-27,8,2,3,3,3,11
9,-27,-25,15,22,-28,8,2,3,3,3,11
9,-27,-25,15,22,-28,9,2,3,4,3,11
9,-27,-25,15,22,-28,10,2,3,4,3,11
6,-27,-24,17,19,-26,11,2,4,5,3,11
3,-29,-24,20,19,-28,11,2,3,5,2,11
3,-29,-24,20,19,-28,11,2,3,5,2,11
3,-29,-24,20,19,-28,11,2,3,5,2,11
3,-29,-24,20,19,-28,12,2,3,5,2,11
1,-31,-24,22,18,-28,11,1,2,4,2,10
1,-31,-24,22,18,-28,10,1,2,4,2,10
-2,-33,-24,25,16,-30,9,1,2,4,2,10
-2,-33,-24,25,16,-30,9,1,2,4,2,10
-2,-33,-24,25,16,-30,9,1,2,4,1,8
-2,-33,-24,25,16,-30,9,1,2,4,1,8
-2,-33,-24,25,16,-30,9,1,2,4,1,8
-2,-33,-24,25,16,-30,10,2,3,4,1,8
-2,-33,-24,25,16,-30,10,2,3,4,1,8
1,-31,-24,22,18,-28,10,2,3,4,1,8
1,-31,-24,22,18,-28,10,2,3,4,1,8
1,-29,-22,21,17,-27,10,2,4,5,2,10
1,-29,-22,21,17,-27,10,2,4,4,2,10
1,-29,-22,21,17,-27,11,2,4,4,2,10
1,-29,-22,21,17,-27,11,2,4,4,2,10
1,-29,-22,21,17,-27,12,2,4,4,2,10
1,-29,-22,21,17,-27,12,2,4,3,2,10
1,-29,-22,21,17,-27,13,2,4,3,2,10
1,-29,-22,21,17,-27,13,2,4,3,2,10
1,-27,-21,19,16,-25,14,3,4,3,2,10
-2,-29,-21,22,15,-26,13,2,4,3,2,8
-2,-29,-21,22,15,-26,13,2,4,3,2,8
-2,-29,-21,22,15,-26,12,2,4,3,2,7
-2,-29,-21,22,15,-26,12,2,4,3,2,7
-2,-29,-21,22,15,-26,12,2,4,3,2,7
1,-27,-21,19,16,-25,13,2,4,3,2,7
1,-27,-21,19,16,-25,13,2,4,3,2,7
1,-26,-20,18,15,-24,14,3,4,4,3,7
3,-26,-21,17,16,-24,13,2,4,3,3,7
3,-26,-21,17,16,-24,13,2,4,3,3,7
3,-26,-21,17,16,-24,12,2,4,2,3,7
3,-26,-21,17,16,-24,12,2,4,2,3,7
3,-26,-21,17,16,-24,12,2,4,2,3,7
3,-26,-21,17,16,-24,12,2,4,2,3,7
3,-26,-21,17,16,-24,12,2,4,2,3,7
3,-26,-21,17,16,-24,13,2,5,2,3,7
4,-27,-22,18,18,-26,13,2,4,1,3,5
4,-27,-22,18,18,-26,13,2,4,1,3,5
1,-29,-22,21,17,-27,13,2,4,1,3,4
1,-29,-22,21,17,-27,13,2,4,1,3,4
1,-29,-22,21,17,-27,12,1,4,1,3,2
-2,-29,-21,22,15,-26,12,1,4,1,3,2
-2,-29,-21,22,15,-26,12,1,4,1,3,2
-4,-29,-20,23,13,-26,12,1,4,1,3,2
-2,-29,-21,22,15,-26,12,1,4,1,2,2
-2,-29,-21,22,15,-26,12,1,4,1,2,2
-2,-29,-21,22,15,-26,12,1,4,1,2,2
1,-27,-21,19,16,-25,13,2,5,1,2,2
1,-27,-21,19,16,-25,12,2,5,1,2,2
1,-26,-20,18,15,-24,12,2,5,1,2,2
-2,-26,-18,20,12,-23,12,2,5,1,2,2
-1,-23,-17,18,12,-21,12,2,5,2,3,4
-4,-26,-17,21,11,-22,11,2,5,2,2,4
-4,-26,-17,21,11,-22,11,2,5,2,2,4
-4,-26,-17,21,11,-22,11,2,5,2,2,4
-7,-26,-16,22,9,-21,11,2,6,3,2,4
-7,-26,-16,22,9,-21,11,2,5,2,2,4
-9,-26,-14,23,7,-20,11,2,5,2,2,4
-9,-26,-14,23,7,-20,11,2,5,2,2,4
-9,-23,-13,22,6,-18,11,2,5,2,2,4
-6,-23,-14,20,9,-20,10,2,4,1,2,4
-4,-22,-14,18,9,-19,10,2,4,1,2,4
-4,-22,-14,18,9,-19,9,2,4,1,2,4
-1,-20,-14,15,10,-18,9,2,4,1,2,4
1,-18,-14,13,11,-17,9,2,4,1,2,4
3,-15,-13,10,11,-14,10,2,4,1,2,4
9,-11,-13,5,13,-13,11,2,4,1,2,4
11,-8,-12,1,13,-10,11,2,5,2,2,4
11,-6,-11,0,12,-9,11,3,5,3,2,4
14,-3,-9,-3,12,-7,9,2,5,4,3,6
15,-1,-8,-5,12,-5,9,2,6,5,5,6
17,3,-6,-9,12,-2,9,3,7,6,6,8
17,6,-4,-11,9,1,9,4,7,8,8,10
18,12,0,-16,7,6,9,5,9,10,10,11
20,17,3,-20,6,10,9,6,10,12,12,12
20,23,7,-24,3,15,9,6,11,14,15,15
22,26,9,-28,2,18,9,7,12,16,16,17
24,29,10,-30,2,20,10,8,13,18,18,18
27,33,11,-34,3,22,10,9,14,20,19,20
29,36,12,-37,2,25,10,10,15,22,20,23
32,38,12,-40,4,26,9,10,16,23,22,24
35,42,13,-44,4,28,7,11,17,25,25,27
37,45,15,-48,4,31,7,11,18,27,27,28
41,49,16,-52,4,33,5,11,19,29,30,31
46,53,16,-57,6,35,3,11,20,30,32,32
51,58,18,-63,7,38,1,11,20,32,34,34
56,62,18,-68,9,40,-2,11,21,33,35,36
61,67,19,-74,10,43,-4,11,21,35,38,38
61,69,20,-76,9,45,-8,9,20,35,40,38
63,72,21,-79,9,47,-12,7,20,35,41,40
67,76,23,-83,9,50,-16,5,18,35,43,41
69,79,24,-85,9,52,-20,3,18,35,44,42
68,79,25,-85,8,52,-22,2,16,33,43,41
69,81,26,-87,8,54,-23,0,15,30,43,41
65,81,27,-85,5,54,-23,-1,13,28,41,40
65,82,28,-86,5,56,-25,-2,12,27,41,40
61,77,27,-82,4,52,-25,-3,10,24,38,38
58,74,26,-78,4,51,-23,-4,9,22,36,37
54,69,24,-72,3,47,-23,-5,7,20,35,36
50,65,23,-67,2,45,-22,-6,6,18,33,36
47,58,19,-61,4,39,-20,-5,6,16,32,34
46,53,16,-57,6,35,-18,-5,5,16,31,33
43,45,12,-50,8,29,-16,-5,4,14,29,31
40,40,10,-45,9,25,-14,-4,4,14,29,30
35,31,5,-37,10,18,-13,-3,4,12,28,27
32,24,2,-30,12,12,-11,-2,4,11,26,26
30,17,-3,-25,14,7,-9,-2,4,11,25,22
27,10,-6,-19,16,1,-7,-1,4,9,23,21
27,6,-9,-16,17,-2,-7,-2,3,8,22,19
27,3,-12,-14,19,-5,-7,-2,3,7,20,18
27,-1,-14,-11,21,-9,-7,-1,2,6,19,17
27,-4,-17,-9,23,-12,-6,-2,2,6,19,17
18,-13,-19,2,20,-17,-4,-1,2,4,15,12
5,-21,-18,13,16,-20,-1,0,2,2,11,10
-4,-29,-20,23,13,-26,2,1,1,0,6,5
-15,-36,-20,32,9,-29,5,3,1,-2,4,2
-20,-36,-17,35,5,-27,7,4,2,0,5,4
-25,-36,-14,37,2,-26,10,5,4,2,8,6
-29,-36,-12,39,-2,-24,13,7,5,4,11,7
-35,-36,-9,42,-6,-22,15,9,6,7,13,10
-15,-36,-20,32,9,-29,6,-1,2,-2,4,-7
-9,-47,-31,37,19,-40,3,0,-1,-10,-2,-9
-14,-50,-31,41,17,-41,13,5,2,-3,5,0
-11,-45,-28,37,16,-37,9,5,2,-5,2,-10
-14,-43,-25,36,13,-35,9,5,2,-4,1,-6
9,-34,-31,20,26,-34,12,6,3,-1,9,1
-23,-45,-22,43,8,-35,15,9,6,1,12,3
-2,-40,-29,29,20,-36,7,3,1,-3,5,-5
-2,-26,-18,20,12,-23,14,10,7,4,16,10
-2,-41,-30,30,21,-37,10,5,4,1,16,8
-4,-50,-36,37,25,-45,3,2,-1,-3,5,-3
-9,-49,-32,39,20,-42,0,2,1,-3,9,-1
-9,-47,-31,37,19,-40,11,8,3,2,15,5
8,-36,-32,22,26,-35,5,4,1,-8,-4,-10
15,-34,-33,18,29,-35,2,-2,-3,-19,-13,-14
-2,-52,-38,37,27,-47,3,-1,-7,-24,-11,-7
-8,-67,-47,51,31,-60,7,4,-7,-34,-16,-11
6,-91,-72,61,54,-85,5,6,-6,-48,-30,-24
6,-102,-80,68,60,-95,13,10,-8,-63,-38,-26
-12,-125,-88,93,59,-112,25,1,-33,-106,-70,-46
-18,-132,-90,100,59,-116,6,-44,-97,-169,-92,-54
-9,-130,-93,95,64,-117,-25,-97,-157,-215,-86,-37
8,-97,-77,64,59,-91,-59,-143,-206,-245,-59,-3
72,-41,-68,-4,76,-60,-126,-201,-252,-270,-34,30
108,6,-51,-54,78,-28,-190,-260,-301,-310,-14,65
129,83,-4,-117,51,37,-238,-312,-346,-344,6,99
178,177,42,-205,36,108,-281,-350,-377,-374,19,122
245,283,87,-310,29,185,-330,-383,-394,-364,70,169
275,311,93,-344,36,201,-358,-387,-390,-332,133,222
295,253,39,-313,83,141,-372,-371,-372,-279,190,255
328,180,-33,-279,147,64,-351,-355,-360,-255,216,265
343,89,-109,-223,208,-25,-324,-332,-341,-198,262,285
284,15,-135,-143,204,-75,-293,-295,-306,-122,314,305
244,-33,-150,-91,200,-107,-272,-270,-276,-63,345,317
258,-84,-196,-63,238,-158,-244,-236,-242,-9,334,292
228,-148,-229,-4,250,-208,-201,-200,-203,30,304,261
181,-165,-218,29,226,-209,-158,-161,-159,67,241,210
147,-151,-190,36,192,-186,-142,-144,-137,49,136,130
82,-131,-141,53,133,-147,-125,-134,-134,-7,40,58
42,-125,-116,68,99,-128,-101,-103,-116,-41,-27,0
-1,-137,-103,96,74,-126,-75,-83,-102,-69,-76,-46
-20,-126,-85,97,54,-110,-57,-61,-77,-57,-73,-57
-46,-107,-57,96,24,-84,-32,-42,-57,-60,-73,-54
-32,-64,-32,60,11,-49,-25,-35,-46,-87,-89,-65
-44,-45,-12,53,-8,-28,-20,-34,-46,-106,-92,-69
-70,-49,-1,68,-25,-23,-10,-22,-29,-69,-50,-44
-87,-54,4,80,-36,-22,5,-9,-14,-34,-27,-26
-25,-33,-12,35,-1,-22,8,0,-1,-12,-10,-20
-15,-29,-14,28,5,-22,14,6,5,-2,-3,-20
-18,-21,-6,24,-2,-13,18,12,9,1,-5,-23
-7,-18,-10,17,5,-14,18,15,13,6,2,-16
11,-11,-14,4,15,-14,20,19,17,11,2,-16
-49,-42,-6,53,-13,-23,35,29,24,19,2,-14
-41,-41,-10,48,-8,-25,33,26,23,15,-11,-32
-30,-26,-4,32,-9,-14,34,28,25,19,-11,-32
-33,-36,-10,41,-5,-23,39,32,30,27,1,-20
-32,-33,-8,38,-6,-20,44,33,32,30,0,-17
-10,-24,-13,23,5,-19,31,27,29,25,-2,-24
-20,-26,-9,28,-1,-17,35,33,35,36,11,-11
-30,-29,-6,35,-6,-17,35,30,34,35,9,-20
-28,-28,-6,33,-5,-16,32,32,34,35,4,-19
-20,-26,-9,28,-1,-17,34,33,34,34,4,-23
-46,-38,-5,48,-13,-20,48,43,39,43,9,-19
-48,-47,-11,56,-10,-28,44,41,37,36,-3,-29
-33,-35,-9,40,-5,-22,49,40,38,37,-10,-33
-27,-27,-6,32,-5,-16,52,43,41,43,12,-17
-25,-22,-4,28,-6,-12,56,48,43,47,12,-15
-6,-18,-11,17,5,-15,42,37,39,42,9,-23
-11,-20,-9,20,2,-14,42,38,39,43,9,-23
-15,-21,-8,22,1,-14,43,39,40,44,11,-22
-20,-22,-6,26,-2,-14,43,40,40,45,11,-20
-22,-22,-5,27,-4,-13,44,41,41,46,12,-19
-23,-22,-5,27,-5,-13,45,42,41,46,11,-20
-25,-22,-4,28,-6,-12,47,43,42,47,11,-20
-27,-22,-3,28,-8,-12,48,44,42,47,9,-20
-30,-22,-1,30,-10,-10,50,45,43,49,9,-20
-30,-22,-1,30,-10,-10,50,44,43,49,9,-20
-30,-20,1,28,-12,-9,50,44,43,50,9,-20
-32,-20,2,29,-13,-8,50,44,43,51,9,-20
-33,-18,3,29,-15,-7,50,44,44,52,9,-20
-33,-18,3,29,-15,-7,48,43,44,52,9,-21
-32,-16,4,28,-15,-5,49,43,44,54,9,-21
-33,-17,4,28,-16,-5,48,43,44,53,9,-22
-32,-15,5,27,-16,-3,48,43,45,54,9,-22
-33,-15,6,27,-16,-3,48,43,45,54,8,-23
-31,-13,6,25,-16,-3,48,44,46,56,8,-23
-27,-11,5,22,-14,-2,48,44,47,57,8,-23
-27,-9,7,20,-15,0,50,45,47,58,8,-23
-28,-10,7,21,-16,0,48,44,47,58,8,-23
-27,-8,8,19,-16,1,49,44,48,58,9,-23
-30,-8,10,21,-18,3,48,44,48,58,9,-23
-30,-6,11,20,-19,4,48,44,49,59,11,-21
-33,-6,12,21,-21,5,48,44,49,59,11,-21
-32,-4,13,19,-21,7,50,44,50,60,10,-21
-32,-2,15,18,-22,9,51,44,50,60,10,-22
-33,-1,17,17,-24,10,52,45,51,61,11,-21
-32,-1,16,17,-23,10,52,45,51,61,11,-22
-32,1,18,15,-24,12,52,45,52,62,11,-22
-35,1,19,17,-26,12,52,45,52,62,11,-21
-35,3,20,16,-27,14,52,46,53,63,11,-21
-38,3,22,17,-29,15,53,46,53,63,11,-21
-38,4,23,16,-30,16,52,46,53,63,11,-22
-38,6,25,15,-32,18,53,46,54,63,11,-21
-38,8,26,14,-33,20,53,46,55,64,10,-22
-38,8,26,14,-33,20,53,47,55,64,11,-23
-37,10,27,12,-33,21,54,48,56,64,11,-23
-38,11,28,11,-34,23,54,49,57,64,11,-23
-38,13,30,10,-36,25,56,49,57,65,11,-23
-38,15,31,9,-36,26,56,50,57,65,11,-23
-37,17,32,7,-36,28,56,50,58,65,11,-23
-37,19,34,6,-38,30,56,50,59,65,11,-23
-41,21,36,6,-41,32,56,51,59,66,12,-22
-41,21,36,6,-41,32,56,52,59,66,11,-21
-38,22,36,4,-40,33,56,53,60,66,11,-21
-35,24,36,1,-39,33,57,53,60,66,10,-22
-35,26,37,0,-40,35,58,54,61,68,11,-22
-38,26,39,2,-42,36,58,55,61,66,9,-23
-41,28,42,1,-45,39,59,56,61,66,9,-23
-44,28,43,3,-47,39,61,57,61,66,8,-23
-46,30,46,2,-50,42,61,57,62,66,8,-23
-49,29,47,4,-52,43,61,58,62,65,6,-24
-48,31,48,2,-52,44,61,58,62,65,6,-25
-49,33,50,2,-53,46,61,59,62,64,5,-24
-51,35,52,1,-57,49,63,60,63,64,5,-24
-50,37,54,-1,-57,50,63,61,64,63,3,-25
-53,38,56,0,-60,52,65,61,64,63,4,-24
-56,40,59,0,-64,55,65,62,65,62,2,-25
-59,42,62,0,-67,58,67,64,66,62,2,-25
-61,42,63,1,-68,58,67,64,66,60,0,-26
-61,43,64,0,-69,60,67,65,66,59,-1,-26
-61,45,66,-1,-70,62,67,65,66,58,-3,-27
-61,48,67,-3,-71,64,68,65,66,57,-2,-28
-61,49,69,-4,-72,65,69,66,66,54,-4,-29
-61,50,70,-5,-73,66,70,66,66,53,-5,-29
-61,53,71,-6,-74,68,71,67,66,50,-7,-30
-58,56,72,-10,-74,70,72,68,66,49,-7,-30
-58,58,74,-12,-74,72,72,68,66,47,-8,-32
-59,61,77,-13,-77,75,73,69,66,45,-10,-32
-61,63,79,-14,-80,78,74,69,66,43,-11,-33
-61,67,82,-16,-81,81,75,70,66,42,-12,-33
-64,68,85,-16,-84,83,74,69,65,39,-14,-34
-64,72,87,-18,-87,87,74,68,64,35,-15,-34
-67,74,90,-19,-89,89,74,67,64,33,-17,-36
-67,77,93,-21,-91,93,74,67,63,30,-18,-36
-68,79,94,-22,-93,94,74,66,62,26,-22,-37
-70,81,97,-22,-95,97,74,66,61,23,-23,-37
-72,83,100,-23,-98,100,74,65,59,19,-26,-37
-73,86,102,-24,-101,102,74,64,58,16,-27,-38
-74,87,103,-24,-102,104,72,62,56,11,-29,-39
-74,88,104,-25,-102,105,71,61,54,7,-30,-39
-77,88,106,-24,-105,106,69,59,52,3,-32,-41
-80,89,109,-23,-108,108,68,58,50,0,-33,-40
-77,92,109,-26,-107,109,66,55,48,-5,-35,-42
-76,94,110,-28,-107,111,65,53,46,-10,-36,-42
-77,95,111,-28,-109,112,63,52,43,-14,-37,-44
-76,97,112,-30,-109,114,62,51,41,-18,-39,-43
-77,97,112,-29,-109,114,61,47,38,-23,-41,-45
-75,99,113,-31,-109,115,59,45,36,-27,-42,-45
-72,100,112,-34,-108,115,56,42,32,-33,-43,-45
-72,102,114,-35,-109,117,55,40,30,-37,-43,-44
-70,102,113,-36,-107,117,50,36,26,-43,-45,-46
-70,102,113,-36,-107,117,47,33,22,-49,-46,-46
-67,102,111,-38,-105,115,43,29,18,-55,-48,-48
-63,104,111,-41,-104,117,40,26,15,-60,-48,-47
-61,104,110,-42,-102,116,36,22,10,-67,-49,-47
-58,104,109,-43,-100,115,32,18,6,-72,-49,-47
-56,104,108,-44,-98,114,28,14,2,-78,-50,-47
-51,106,106,-48,-95,114,24,11,-2,-84,-51,-46
-47,104,102,-48,-91,111,20,7,-6,-89,-51,-46
-43,102,99,-49,-87,108,14,3,-11,-93,-51,-44
-41,100,96,-49,-84,106,9,-1,-15,-98,-50,-43
-35,101,94,-52,-81,104,5,-5,-19,-102,-49,-41
-32,97,90,-51,-77,100,1,-9,-23,-106,-48,-40
-30,95,87,-50,-74,98,-2,-12,-26,-109,-46,-37
-24,94,83,-52,-68,94,-6,-15,-29,-112,-45,-36
-22,92,80,-52,-66,92,-9,-18,-33,-115,-43,-33
-20,88,77,-50,-62,88,-12,-20,-35,-116,-42,-32
-18,85,73,-49,-59,84,-15,-22,-37,-117,-39,-29
-15,81,69,-48,-54,79,-18,-25,-40,-118,-36,-26
-11,77,64,-47,-50,75,-20,-26,-42,-118,-33,-23
-8,72,59,-45,-45,70,-23,-27,-42,-117,-32,-21
-7,68,55,-42,-42,66,-25,-28,-43,-116,-29,-20
-1,65,50,-43,-36,61,-27,-29,-43,-115,-26,-18
1,62,46,-42,-33,57,-29,-29,-43,-113,-23,-17
4,58,42,-41,-28,53,-29,-28,-43,-110,-21,-17
6,54,37,-39,-24,49,-29,-27,-42,-107,-18,-16
8,50,34,-37,-21,45,-29,-26,-41,-103,-17,-14
14,49,30,-39,-16,41,-29,-25,-40,-99,-14,-13
15,44,26,-36,-12,37,-29,-24,-38,-95,-12,-13
18,40,21,-35,-9,32,-29,-22,-36,-91,-10,-13
20,37,18,-33,-5,28,-29,-21,-35,-87,-8,-13
19,33,15,-30,-3,25,-29,-19,-33,-82,-6,-11
20,30,12,-28,-1,22,-28,-17,-31,-77,-4,-11
22,28,10,-28,2,19,-27,-15,-29,-72,-2,-11
22,24,7,-26,4,16,-26,-13,-26,-68,-1,-11
21,22,6,-24,4,14,-24,-11,-24,-62,2,-10
23,19,3,-23,7,11,-23,-10,-22,-58,4,-11
22,17,2,-21,8,9,-22,-8,-19,-54,5,-11
19,13,1,-17,7,7,-22,-6,-17,-49,6,-11
20,12,-1,-17,9,5,-19,-4,-15,-44,8,-11
19,10,-2,-15,9,4,-20,-3,-13,-41,8,-11
22,10,-4,-16,12,3,-18,-2,-11,-37,9,-11
24,10,-5,-17,13,2,-18,0,-9,-33,9,-11
27,10,-6,-19,16,1,-18,2,-7,-28,11,-11
30,10,-8,-20,18,0,-16,3,-6,-27,11,-13
30,10,-8,-20,18,0,-16,3,-5,-23,11,-13
29,10,-7,-20,17,1,-14,4,-3,-21,11,-14
29,10,-7,-20,17,1,-13,4,-2,-18,12,-14
26,8,-7,-17,16,-1,-13,5,-1,-16,12,-16
26,8,-7,-17,16,-1,-13,6,-1,-14,12,-16
24,6,-7,-15,15,-1,-13,7,0,-12,12,-17
24,6,-7,-15,15,-1,-12,8,1,-10,13,-17
21,4,-7,-12,14,-2,-11,9,1,-8,13,-17
21,4,-7,-12,14,-2,-10,10,2,-8,13,-17
21,4,-7,-12,14,-2,-9,10,3,-6,13,-17
19,4,-6,-11,12,-1,-8,11,4,-5,15,-17
17,3,-6,-9,12,-2,-8,11,4,-5,15,-19
11,1,-5,-5,9,-3,-7,11,5,-4,15,-19
6,-1,-4,-1,5,-2,-7,11,6,-3,15,-20
4,-1,-3,0,4,-1,-6,12,6,-2,15,-20
4,-1,-3,0,4,-1,-6,11,6,-2,13,-22
6,1,-3,-2,5,-1,-6,11,7,-1,13,-22
6,1,-3,-2,5,-1,-6,11,7,-1,13,-22
6,3,-1,-4,4,1,-6,11,7,0,13,-22
3,1,-1,-1,2,0,-6,10,7,-1,12,-23
3,1,-1,-1,2,0,-6,10,7,-1,12,-25
3,1,-1,-1,2,0,-6,10,7,-1,11,-26
1,1,0,0,1,1,-6,10,7,-1,11,-26
1,1,0,0,1,1,-7,10,6,-2,9,-28
1,1,0,0,1,1,-7,10,6,-2,9,-28
1,1,0,0,1,1,-8,9,6,-3,8,-28
1,3,2,-1,0,3,-8,9,6,-3,8,-28
1,3,2,-1,0,3,-8,9,5,-4,8,-29
1,3,2,-1,0,3,-8,9,5,-4,8,-29
1,3,2,-1,0,3,-8,9,5,-5,8,-30
-1,3,3,0,-2,3,-7,9,5,-5,8,-30
-1,3,3,0,-2,3,-7,8,4,-6,6,-32
-1,3,3,0,-2,3,-6,8,4,-8,6,-32
-1,3,3,0,-2,3,-6,8,4,-8,5,-32
1,4,3,-2,-1,4,-5,8,4,-8,5,-32
1,4,3,-2,-1,4,-6,7,3,-11,3,-33
1,4,3,-2,-1,4,-6,7,2,-12,3,-33
1,4,3,-2,-1,4,-7,6,2,-13,2,-34
1,4,3,-2,-1,4,-7,6,2,-14,2,-34
1,3,2,-1,0,3,-7,5,1,-15,1,-36
1,3,2,-1,0,3,-7,5,1,-16,-1,-37
1,1,0,0,1,1,-7,5,1,-17,-2,-39
1,1,0,0,1,1,-7,5,1,-18,-2,-39
-1,-1,0,2,0,0,-8,5,1,-19,-2,-39
-1,-1,0,2,0,0,-8,5,1,-19,-2,-39
-4,-3,0,5,-1,-1,-8,4,1,-19,-2,-39
-4,-3,0,5,-1,-1,-8,4,1,-19,-1,-37
-4,-4,-1,6,0,-3,-8,4,0,-20,-1,-37
-4,-4,-1,6,0,-3,-8,4,0,-20,-1,-37
-1,-4,-3,5,2,-3,-8,4,0,-20,-1,-37
-1,-4,-3,5,2,-3,-7,5,0,-20,-1,-36
-2,-6,-4,6,2,-5,-7,5,-1,-21,-1,-36
-2,-6,-4,6,2,-5,-7,5,-1,-21,-1,-34
-2,-6,-4,6,2,-5,-7,5,-1,-22,-1,-34
-2,-6,-4,6,2,-5,-6,5,-1,-22,-1,-33
-1,-8,-5,7,4,-7,-7,4,-1,-23,-2,-33
1,-8,-6,6,5,-7,-7,4,-2,-23,-2,-32
1,-9,-7,7,6,-9,-8,4,-3,-24,-2,-32
1,-9,-7,7,6,-9,-8,4,-3,-24,-2,-30
1,-11,-9,8,7,-10,-8,4,-3,-24,-2,-30
1,-11,-9,8,7,-10,-8,4,-3,-24,-2,-29
1,-11,-9,8,7,-10,-8,4,-3,-24,-2,-29
1,-11,-9,8,7,-10,-7,5,-3,-24,-1,-28
1,-13,-10,9,8,-12,-7,4,-3,-24,-1,-28
1,-13,-10,9,8,-12,-7,4,-3,-24,-1,-28
4,-13,-12,8,10,-12,-7,4,-3,-24,-1,-28
4,-13,-12,8,10,-12,-7,4,-3,-23,1,-26
3,-15,-13,10,11,-14,-7,4,-3,-23,1,-26
3,-15,-13,10,11,-14,-7,5,-2,-22,1,-26
1,-16,-13,12,10,-15,-7,5,-1,-21,1,-26
1,-16,-13,12,10,-15,-7,5,-1,-20,2,-25
1,-18,-14,13,11,-17,-7,5,-1,-20,1,-25
-1,-20,-14,15,10,-18,-6,5,-1,-20,1,-25
-2,-22,-16,17,11,-20,-6,5,-1,-20,1,-25
-2,-22,-16,17,11,-20,-5,5,-1,-20,1,-25
-1,-23,-17,18,12,-21,-6,5,-1,-20,-1,-25
-2,-26,-18,20,12,-23,-6,5,-1,-20,-1,-25
-1,-27,-20,20,14,-24,-6,5,-1,-20,-1,-25
-1,-27,-20,20,14,-24,-6,5,-1,-19,-1,-25
-1,-27,-20,20,14,-24,-6,5,-1,-19,-1,-25
-1,-27,-20,20,14,-24,-5,5,-1,-19,-1,-25
-1,-27,-20,20,14,-24,-5,5,-1,-19,-1,-25
1,-26,-20,18,15,-24,-4,5,0,-18,1,-25
1,-26,-20,18,15,-24,-4,5,0,-18,1,-25
1,-26,-20,18,15,-24,-4,5,0,-17,1,-25
1,-26,-20,18,15,-24,-4,5,0,-17,1,-25
4,-23,-20,15,16,-22,-3,5,1,-16,2,-25
1,-26,-20,18,15,-24,-3,5,1,-16,2,-26
1,-26,-20,18,15,-24,-3,5,1,-15,2,-26
1,-26,-20,18,15,-24,-3,5,1,-15,2,-26
1,-26,-20,18,15,-24,-2,5,1,-14,2,-26
1,-27,-21,19,16,-25,-2,5,1,-14,1,-28
-2,-29,-21,22,15,-26,-2,5,1,-14,1,-28
-1,-31,-22,23,16,-28,-2,5,1,-14,1,-28
-1,-31,-22,23,16,-28,-2,5,1,-14,1,-28
1,-31,-24,22,18,-28,-3,4,1,-14,1,-28
1,-31,-24,22,18,-28,-3,4,1,-14,1,-28
1,-31,-24,22,18,-28,-3,4,1,-14,1,-28
1,-31,-24,22,18,-28,-3,4,1,-13,1,-28
4,-31,-25,20,20,-29,-3,4,1,-13,1,-28
4,-31,-25,20,20,-29,-3,4,1,-13,1,-28
4,-31,-25,20,20,-29,-3,4,1,-13,1,-28
6,-29,-25,18,21,-28,-2,5,1,-12,1,-26
6,-31,-26,19,22,-30,-3,4,1,-12,1,-26
6,-31,-26,19,22,-30,-3,4,1,-12,1,-26
9,-31,-28,18,24,-31,-3,4,1,-12,1,-26
9,-31,-28,18,24,-31,-3,4,1,-11,1,-25
6,-33,-28,21,22,-31,-3,3,1,-11,1,-25
4,-34,-28,23,22,-32,-3,3,1,-11,1,-25
1,-36,-28,26,21,-33,-3,3,1,-11,1,-25
-2,-36,-26,27,19,-33,-2,3,2,-10,1,-23
-2,-36,-26,27,19,-33,-2,3,2,-10,1,-23
-2,-36,-26,27,19,-33,-2,3,2,-8,1,-23
-2,-36,-26,27,19,-33,-2,3,2,-8,1,-23
-2,-36,-26,27,19,-33,-1,4,2,-6,2,-22
-2,-36,-26,27,19,-33,-2,3,2,-6,2,-22
-2,-36,-26,27,19,-33,-2,3,2,-5,2,-22
-2,-36,-26,27,19,-33,-3,2,2,-5,2,-22
-1,-34,-25,25,18,-31,-3,2,2,-4,3,-22
1,-34,-26,24,19,-31,-3,2,2,-4,3,-22
1,-34,-26,24,19,-31,-3,2,2,-3,3,-22
1,-34,-26,24,19,-31,-3,2,2,-2,3,-22
1,-34,-26,24,19,-31,-2,3,2,-1,5,-20
4,-34,-28,23,22,-32,-3,2,2,-1,5,-20
4,-34,-28,23,22,-32,-3,2,2,-1,5,-20
4,-34,-28,23,22,-32,-4,2,2,-1,5,-20
4,-34,-28,23,22,-32,-4,2,2,0,6,-19
3,-36,-29,25,22,-34,-4,2,2,0,6,-19
3,-36,-29,25,22,-34,-4,2,2,1,6,-17
3,-36,-29,25,22,-34,-4,2,2,1,6,-17
3,-36,-29,25,22,-34,-3,3,3,2,6,-16
3,-36,-29,25,22,-34,-3,3,3,2,5,-16
3,-36,-29,25,22,-34,-2,3,3,2,5,-16
3,-36,-29,25,22,-34,-2,3,3,2,5,-16
1,-36,-28,26,21,-33,-1,3,3,2,5,-16
-1,-38,-28,28,20,-34,-2,3,2,2,5,-16
-1,-38,-28,28,20,-34,-2,3,2,2,5,-16
-1,-38,-28,28,20,-34,-2,3,2,2,5,-16
-1,-38,-28,28,20,-34,-2,3,2,2,5,-16
-2,-40,-29,29,20,-36,-2,3,2,2,3,-16
-2,-40,-29,29,20,-36,-2,4,2,2,3,-16
-2,-40,-29,29,20,-36,-2,4,2,2,2,-16
-2,-40,-29,29,20,-36,-1,5,2,2,2,-14
-2,-40,-29,29,20,-36,-1,5,2,2,2,-14
1,-38,-29,27,22,-35,-1,5,2,3,2,-13
3,-36,-29,25,22,-34,-1,5,2,3,2,-11
4,-34,-28,23,22,-32,0,5,2,4,3,-10
3,-36,-29,25,22,-34,0,5,2,4,2,-10
3,-36,-29,25,22,-34,0,5,2,4,2,-10
6,-36,-31,23,25,-35,0,5,2,4,2,-10
6,-36,-31,23,25,-35,0,5,2,5,2,-9
8,-36,-32,22,26,-35,0,5,2,5,2,-9
8,-36,-32,22,26,-35,0,5,2,5,2,-9
8,-36,-32,22,26,-35,0,5,2,5,2,-9
8,-36,-32,22,26,-35,0,5,2,6,2,-7
9,-38,-33,23,28,-37,-1,4,1,6,2,-7
6,-40,-33,26,26,-38,-1,4,1,6,2,-7
4,-41,-33,28,26,-39,-2,3,1,6,2,-7
4,-41,-33,28,26,-39,-2,3,1,7,2,-6
4,-41,-33,28,26,-39,-2,3,1,7,1,-6
4,-41,-33,28,26,-39,-1,3,1,7,1,-6
4,-41,-33,28,26,-39,-1,3,1,7,1,-6
1,-41,-32,28,23,-38,0,4,2,7,1,-5
1,-41,-32,28,23,-38,-1,3,2,7,1,-5
