I,II,III,aVR,aVL,aVF,V1,V2,V3,V4,V5,V6
-0,-8,-6,5,3,-8,5,-1,0,-2,-1,-5
-2,-8,-4,6,1,-6,6,-1,0,-2,-1,-5
-3,-8,-4,7,0,-6,5,-1,0,-2,-2,-5
-4,-8,-3,8,-0,-6,4,-2,0,-2,-2,-5
-6,-10,-2,10,-2,-6,4,-2,-0,-3,-2,-5
-6,-10,-1,11,-3,-5,4,-2,-0,-3,-2,-5
-6,-11,-2,11,-2,-6,4,-2,-0,-2,-1,-5
-6,-11,-2,11,-2,-6,5,-1,0,-2,-1,-4
-5,-11,-3,10,-1,-7,6,-1,0,-2,-1,-4
-5,-11,-3,10,-1,-7,7,-0,0,-1,0,-3
-5,-11,-4,10,-0,-8,6,-1,0,-2,0,-3
-4,-11,-5,9,1,-8,6,-1,0,-2,0,-3
-3,-11,-5,9,1,-9,5,-1,0,-2,0,-3
-2,-11,-6,8,3,-9,5,-1,0,-2,0,-3
0,-10,-8,6,5,-10,5,-1,0,-2,0,-3
3,-8,-10,3,7,-10,5,-1,0,-2,0,-3
5,-8,-12,1,9,-11,5,-0,0,-2,0,-3
8,-6,-13,-2,12,-11,5,0,1,-1,0,-3
7,-6,-12,-2,11,-11,4,0,1,-1,0,-3
6,-5,-11,-1,9,-9,4,0,1,-1,0,-3
5,-5,-10,-1,9,-9,4,0,1,-1,0,-3
5,-4,-8,-1,7,-7,4,0,1,-1,0,-2
5,-4,-9,-2,8,-7,3,0,1,-1,0,-2
5,-4,-9,-2,8,-7,3,0,1,-1,1,-2
5,-4,-9,-2,8,-7,2,0,1,-1,1,-2
5,-4,-9,-2,8,-7,2,0,1,-0,1,-2
4,-5,-8,1,7,-8,1,0,1,-0,1,-2
3,-5,-7,1,6,-7,1,0,1,-0,1,-2
1,-6,-6,3,4,-7,1,0,1,-0,1,-2
-0,-6,-5,4,3,-6,1,1,1,0,2,-2
0,-6,-5,4,3,-6,1,1,1,0,2,-2
1,-6,-6,3,4,-7,1,1,1,0,2,-2
2,-6,-7,2,5,-7,1,1,1,0,2,-2
3,-6,-8,2,6,-8,1,1,2,0,2,-2
2,-8,-8,3,6,-9,1,1,2,0,2,-2
2,-8,-8,3,6,-9,2,1,2,0,3,-2
2,-8,-8,3,6,-9,2,1,2,0,3,-2
2,-8,-8,3,6,-9,3,2,3,0,3,-2
5,-6,-11,0,9,-9,2,1,3,0,3,-1
8,-5,-12,-3,11,-10,1,1,3,1,3,-0
10,-4,-14,-5,13,-11,1,1,3,1,4,0
13,-2,-16,-9,16,-11,1,1,3,1,4,1
14,-8,-21,-6,19,-17,-0,0,1,-0,3,-2
14,-13,-26,-4,22,-22,-1,-1,0,-2,1,-4
14,-19,-30,0,24,-28,-2,-2,-1,-4,-1,-7
14,-24,-35,3,27,-34,-2,-2,-2,-5,-3,-9
1,10,7,-7,-2,10,7,1,2,1,5,3
-16,-14,6,21,-12,-3,14,6,6,6,9,8
3,-3,-5,0,4,-4,6,1,3,2,6,3
3,-91,-76,49,43,-94,60,-1,-45,-61,-60,-67
-5,43,40,-21,-23,47,-1,4,30,51,61,56
8,18,6,-16,2,13,-6,2,18,29,35,27
14,1,-14,-11,16,-8,-7,-1,9,17,21,13
-8,-16,-4,16,-3,-11,3,3,11,17,20,14
-16,-18,3,23,-10,-7,5,4,10,14,17,11
-7,-24,-12,19,3,-19,-2,2,6,9,13,8
7,-2,-9,-4,9,-7,4,1,3,4,8,4
7,9,0,-10,4,5,3,-1,-1,-2,3,1
10,7,-6,-11,9,0,1,-6,-9,-8,-2,-2
-12,-15,1,18,-7,-7,-0,-8,-11,-8,-2,0
-25,-38,-4,40,-12,-21,5,-7,-11,-10,-4,-2
-25,-30,3,36,-16,-13,1,-11,-16,-18,-11,-5
-16,-27,-5,28,-6,-17,-10,-20,-30,-32,-20,-11
-26,-28,6,37,-18,-10,-2,-22,-33,-37,-21,-5
-21,-24,4,30,-13,-10,-8,-27,-41,-47,-25,-1
0,-3,-3,2,2,-3,-19,-40,-56,-63,-36,-4
-3,11,12,-4,-8,13,-24,-47,-67,-75,-42,-3
-9,28,32,-8,-22,35,-28,-56,-78,-88,-51,2
16,40,15,-35,2,30,-51,-71,-96,-108,-67,-9
8,11,-0,-13,6,6,-63,-82,-108,-120,-75,-5
1,18,13,-11,-6,18,-70,-98,-124,-134,-83,-1
-9,17,23,-3,-17,23,-89,-120,-149,-158,-103,-8
7,39,24,-27,-8,35,-111,-144,-173,-182,-122,-16
-23,17,38,9,-33,33,-123,-159,-193,-201,-136,-22
-24,8,32,14,-30,24,-134,-175,-212,-220,-153,-27
-17,14,29,5,-24,26,-156,-194,-231,-239,-170,-31
-7,19,23,-5,-15,24,-162,-211,-248,-252,-183,-35
-16,37,47,-8,-33,49,-167,-225,-259,-260,-193,-36
-21,40,55,-6,-41,55,-198,-252,-282,-279,-212,-48
-34,57,82,-6,-63,81,-217,-269,-298,-292,-228,-58
-31,68,88,-14,-64,90,-232,-278,-308,-301,-240,-67
-67,45,108,27,-95,92,-229,-284,-309,-297,-242,-70
-74,71,137,17,-115,123,-232,-293,-314,-296,-243,-72
-79,100,165,4,-132,156,-231,-299,-314,-287,-237,-67
-77,101,164,2,-131,156,-242,-310,-320,-293,-242,-73
-76,91,155,8,-125,145,-265,-326,-333,-302,-243,-68
-86,79,156,22,-132,139,-290,-342,-343,-308,-242,-60
-105,59,160,47,-144,132,-310,-346,-344,-312,-243,-60
-90,42,131,45,-120,105,-319,-344,-341,-315,-246,-63
-83,8,96,59,-98,65,-321,-329,-328,-315,-245,-67
-69,-22,57,66,-70,25,-332,-320,-320,-317,-246,-73
-59,-42,31,70,-50,-2,-344,-312,-308,-312,-237,-62
-2,-53,-40,32,20,-52,-350,-301,-295,-309,-234,-65
-24,-109,-61,80,19,-94,-342,-284,-279,-302,-230,-65
9,-108,-96,54,57,-116,-339,-266,-261,-291,-220,-62
23,-116,-117,48,75,-133,-328,-245,-239,-274,-209,-59
32,-129,-138,48,92,-153,-311,-227,-221,-262,-203,-58
36,-140,-150,52,100,-166,-293,-208,-205,-252,-197,-61
75,-149,-200,27,149,-202,-287,-198,-196,-250,-198,-69
77,-179,-226,42,164,-234,-277,-187,-185,-241,-191,-69
66,-198,-230,61,160,-246,-264,-177,-175,-234,-185,-71
71,-205,-239,62,168,-256,-254,-168,-166,-224,-178,-69
87,-188,-244,40,179,-250,-248,-162,-157,-214,-169,-66
80,-191,-238,47,172,-248,-228,-147,-141,-195,-150,-55
99,-155,-231,12,180,-226,-216,-134,-127,-175,-133,-41
120,-112,-219,-29,185,-196,-203,-119,-110,-154,-114,-28
127,-98,-215,-41,187,-187,-192,-107,-98,-138,-100,-19
125,-98,-213,-40,184,-185,-181,-94,-85,-122,-87,-9
135,-93,-220,-51,194,-187,-175,-86,-76,-112,-79,-7
155,-81,-232,-72,212,-189,-163,-74,-65,-100,-68,-5
134,-99,-224,-46,195,-192,-153,-64,-56,-91,-63,-8
119,-79,-191,-46,170,-162,-142,-58,-50,-82,-56,-7
118,-73,-185,-49,166,-155,-130,-51,-42,-71,-46,-4
90,-86,-166,-20,140,-149,-105,-40,-33,-59,-39,-7
119,-56,-173,-59,160,-138,-93,-29,-24,-49,-33,-9
108,-53,-158,-52,146,-127,-80,-23,-17,-39,-27,-11
87,-38,-124,-45,115,-98,-66,-14,-9,-27,-19,-8
70,-32,-101,-36,94,-80,-50,-4,1,-13,-9,-3
50,-14,-65,-30,64,-49,-38,0,5,-5,-4,-2
18,-10,-28,-8,25,-22,-22,8,12,5,6,4
14,-4,-18,-8,18,-13,-4,14,19,14,13,5
16,-3,-19,-10,19,-13,1,17,20,17,15,2
29,-1,-32,-21,34,-20,0,16,20,16,14,-4
5,-12,-15,3,11,-15,9,19,23,18,15,-5
7,1,-6,-6,8,-3,13,23,24,20,16,-5
0,-1,-1,1,1,-1,17,23,27,24,20,-1
11,-5,-16,-5,15,-13,20,25,27,26,18,-3
-14,-23,-3,24,-6,-13,27,29,31,29,21,0
4,-19,-19,9,13,-22,17,25,26,22,14,-10
-13,-14,2,18,-8,-5,23,27,27,24,16,-7
-27,-12,20,28,-26,7,24,23,26,24,16,-8
-18,-23,1,27,-10,-11,21,23,24,21,15,-10
-1,-16,-12,11,6,-16,22,24,25,22,17,-8
-24,-30,2,35,-14,-14,28,24,27,25,21,-5
-4,-6,-0,7,-2,-3,30,29,30,29,23,-0
-4,-1,4,4,-4,2,35,29,32,33,27,2
-4,15,16,-5,-10,18,40,34,35,37,30,7
-7,-3,5,8,-7,2,37,34,34,34,25,-1
-9,-3,7,9,-9,3,37,33,34,34,25,-1
-9,-2,8,8,-9,4,36,32,34,34,25,-1
-10,-1,10,9,-11,6,35,31,33,34,25,-1
-11,0,12,9,-12,8,35,30,33,34,25,-1
-11,-2,11,10,-12,6,36,31,33,34,25,-2
-11,-4,8,11,-10,3,37,31,34,35,26,-2
-11,-7,7,13,-10,1,38,31,34,35,26,-2
-11,-8,6,13,-9,0,40,32,35,36,27,-2
-10,-7,6,12,-9,0,40,33,36,37,28,-1
-8,-4,6,9,-8,2,42,34,37,39,29,0
-7,-2,6,7,-7,3,43,35,38,40,31,1
-5,0,6,4,-6,4,44,36,39,42,32,2
-6,-1,6,6,-6,4,44,37,40,42,32,2
-6,-1,6,6,-6,4,44,37,41,43,33,2
-6,-1,6,6,-6,4,44,38,41,44,34,2
-6,-1,6,6,-6,4,45,39,42,45,35,3
-5,-1,4,4,-4,2,44,40,43,46,36,3
-4,-1,3,4,-3,2,44,40,44,47,36,4
-2,-1,1,2,-1,0,43,41,45,48,37,4
-1,-1,1,2,-1,0,43,42,46,49,39,5
-1,-1,1,2,-1,0,43,43,47,51,40,5
-0,0,1,1,0,1,44,44,49,53,41,6
0,1,1,-1,0,1,44,45,50,54,43,7
1,2,1,-2,1,2,44,47,52,56,45,7
0,3,2,-2,-0,3,45,48,53,59,46,8
0,4,2,-2,-1,4,46,49,55,61,48,10
0,4,4,-2,-1,4,47,50,56,63,50,11
-0,6,5,-3,-2,6,47,52,58,65,52,12
-0,8,7,-4,-3,9,49,53,60,68,54,13
-1,10,10,-5,-5,11,50,55,62,71,56,15
-1,12,11,-6,-6,13,52,57,64,73,59,16
-2,16,14,-7,-8,17,54,59,66,76,61,17
-1,17,15,-8,-8,18,55,60,68,79,64,18
-0,19,16,-10,-8,20,55,62,70,81,66,19
-1,20,17,-11,-9,21,56,63,72,84,68,20
-0,23,18,-12,-9,23,57,65,74,87,70,22
2,24,17,-15,-7,24,59,67,77,90,73,23
4,27,18,-18,-7,25,60,69,79,93,76,24
5,29,18,-20,-6,26,62,71,82,96,78,25
8,32,18,-24,-4,28,63,73,84,99,81,27
8,35,18,-26,-4,30,65,76,87,103,84,28
10,38,19,-29,-4,32,67,78,90,106,86,29
11,40,20,-31,-4,34,69,81,93,110,89,30
12,43,22,-33,-4,36,72,84,96,113,92,32
12,46,23,-35,-4,38,75,86,99,117,95,34
13,48,24,-37,-5,40,78,89,102,121,98,35
12,50,26,-38,-6,43,80,92,105,125,101,36
13,53,28,-40,-7,45,84,95,109,128,104,37
12,55,31,-41,-9,48,87,98,112,132,107,38
12,59,34,-42,-11,52,91,101,115,136,110,39
12,62,37,-44,-12,56,94,104,118,139,112,40
11,66,41,-45,-15,59,98,107,121,143,115,42
10,68,43,-46,-16,62,101,110,124,146,117,42
8,70,47,-46,-19,66,104,112,126,149,119,42
7,72,50,-46,-22,69,107,115,129,152,120,42
5,74,54,-46,-25,72,109,117,131,155,122,42
5,77,56,-47,-27,75,112,119,133,156,123,42
4,80,60,-48,-29,79,115,121,135,158,125,42
3,83,63,-49,-31,83,118,123,137,160,125,42
2,86,67,-50,-34,87,120,125,138,163,127,42
0,88,70,-50,-36,89,122,126,139,163,127,42
-1,90,72,-50,-38,92,123,127,139,164,127,42
-1,92,75,-51,-40,94,125,127,139,164,127,41
-3,94,78,-51,-43,98,127,128,140,165,127,41
-5,95,81,-50,-45,100,128,128,139,164,126,41
-5,98,84,-51,-47,103,130,128,138,164,126,41
-6,100,86,-51,-49,106,131,127,138,163,125,41
-7,102,89,-52,-51,108,132,127,137,163,125,42
-8,102,90,-52,-52,109,132,125,135,160,123,41
-9,102,91,-51,-53,110,131,123,133,158,121,41
-10,102,93,-50,-54,111,130,122,130,155,120,40
-12,102,94,-48,-57,112,130,120,128,153,118,40
-13,100,93,-46,-56,110,128,117,124,148,115,39
-14,97,93,-44,-57,108,126,114,121,145,112,39
-14,96,91,-43,-56,107,124,111,117,141,109,37
-15,94,92,-41,-57,107,122,108,114,137,106,37
-16,91,90,-39,-56,103,118,104,109,131,102,35
-18,88,89,-36,-57,101,114,99,104,126,98,34
-19,84,87,-33,-57,98,110,95,99,121,94,33
-19,82,87,-32,-57,97,107,91,95,116,91,32
-19,78,83,-29,-54,92,101,86,90,110,86,30
-18,74,79,-28,-52,88,97,82,85,105,82,30
-18,71,76,-26,-50,85,93,77,80,99,77,29
-18,68,73,-25,-48,81,89,73,75,94,73,28
-17,65,70,-24,-46,77,85,68,70,88,69,27
-17,61,67,-21,-45,74,80,64,66,83,66,25
-16,58,64,-20,-43,70,76,60,61,78,62,24
-15,55,61,-19,-40,67,72,55,57,73,58,23
-14,49,54,-17,-36,59,68,51,53,68,54,22
-12,43,47,-15,-31,52,64,47,49,63,50,20
-10,37,41,-13,-27,45,59,44,44,58,46,19
-9,31,34,-11,-23,38,55,40,40,53,42,18
-8,27,30,-9,-20,33,51,37,37,49,39,17
-7,23,26,-8,-17,29,47,34,34,45,36,15
-6,20,23,-7,-15,25,44,31,30,41,33,14
-6,17,19,-5,-13,21,40,28,27,38,30,13
-5,13,16,-4,-11,17,37,25,25,34,27,12
-5,10,13,-2,-9,13,34,23,22,32,25,12
-4,7,10,-1,-7,10,31,20,20,28,23,10
-3,4,7,1,-5,7,28,18,17,25,21,10
-2,4,6,-1,-4,6,26,17,16,23,19,9
-2,4,5,-1,-3,6,24,16,15,21,18,9
-0,5,4,-2,-2,5,22,14,13,20,16,9
-1,4,4,-2,-2,5,21,13,12,18,15,9
0,4,2,-2,-1,4,19,12,11,17,14,9
0,2,1,-1,0,2,17,11,10,15,13,8
0,1,1,-1,0,1,16,10,9,14,11,7
0,0,-0,0,1,0,14,9,8,13,10,7
3,0,-3,-2,3,-1,13,8,7,11,9,6
4,0,-5,-3,5,-3,12,7,7,10,8,5
6,0,-6,-4,7,-4,12,7,6,9,8,5
8,0,-8,-6,9,-5,11,7,5,8,7,5
7,-1,-8,-5,9,-5,10,6,5,8,6,4
7,-1,-8,-5,9,-5,10,6,5,7,5,4
7,-1,-8,-5,9,-5,10,6,5,7,5,3
7,-1,-8,-5,9,-5,10,5,5,6,4,3
7,-2,-9,-4,9,-6,10,5,4,6,4,3
7,-2,-9,-4,9,-6,11,5,4,5,3,3
8,-2,-10,-5,10,-7,11,5,4,5,3,2
8,-2,-10,-5,10,-7,12,5,4,4,3,2
7,-3,-10,-3,9,-8,12,5,4,4,3,2
5,-4,-9,-2,8,-7,12,5,4,4,2,2
4,-5,-8,1,7,-8,12,5,4,3,2,2
2,-6,-7,2,5,-7,12,5,4,3,2,2
4,-6,-9,1,7,-9,12,5,3,3,1,1
5,-6,-10,1,8,-9,12,4,3,2,1,0
5,-6,-11,0,9,-9,11,4,3,2,0,-0
6,-6,-12,-1,10,-10,11,4,2,1,0,-0
6,-6,-12,-1,10,-10,11,4,2,1,0,-0
6,-5,-11,-1,9,-9,11,4,2,1,0,-0
6,-4,-10,-2,9,-8,11,4,2,1,0,-0
6,-3,-9,-3,8,-7,11,5,3,1,0,0
5,-4,-9,-2,8,-7,10,5,3,1,0,0
5,-4,-8,-1,7,-7,10,5,3,1,0,0
5,-4,-8,-1,7,-7,10,5,3,1,0,0
4,-4,-7,0,6,-6,10,5,3,2,1,0
3,-5,-7,1,6,-7,10,5,3,1,0,0
2,-6,-7,2,5,-7,10,5,3,1,0,0
1,-8,-7,4,4,-8,9,5,3,1,0,0
0,-8,-6,4,4,-8,9,5,3,1,0,0
-0,-8,-6,5,3,-8,9,5,3,1,0,0
-0,-8,-6,5,3,-8,9,5,3,1,0,0
-1,-10,-6,7,3,-9,9,5,3,1,0,0
-1,-10,-6,7,3,-9,9,6,3,2,1,1
0,-10,-8,6,5,-10,8,5,3,1,0,0
1,-10,-9,5,6,-10,7,5,3,1,0,0
2,-10,-10,4,7,-11,7,5,3,1,0,-0
4,-8,-11,2,8,-11,7,5,3,1,0,-0
4,-10,-12,3,9,-12,7,5,3,0,0,-0
4,-11,-12,4,9,-13,7,5,3,0,0,-0
4,-12,-13,4,9,-14,8,6,3,0,0,-0
3,-13,-13,5,9,-15,9,6,4,0,0,0
3,-14,-14,6,9,-16,9,6,4,0,-1,-0
3,-15,-15,7,10,-17,9,6,4,0,-1,-1
3,-16,-16,8,10,-18,9,6,4,0,-1,-2
4,-16,-17,7,11,-19,10,6,4,0,-1,-2
4,-17,-18,7,12,-20,10,6,4,0,-1,-2
4,-17,-18,7,12,-20,11,7,4,0,-1,-2
4,-19,-19,8,12,-21,12,7,5,0,-1,-2
4,-19,-19,8,12,-21,12,7,5,0,-1,-2
4,-19,-19,8,12,-21,12,7,5,0,-1,-2
4,-17,-18,7,12,-20,12,8,5,1,0,-1
3,-17,-17,8,11,-19,12,8,6,1,0,-1
3,-16,-16,8,10,-18,12,8,6,1,0,-0
3,-16,-16,8,10,-18,12,8,6,1,0,-0
2,-16,-15,8,9,-18,12,8,6,1,0,-0
1,-16,-14,9,8,-17,12,8,6,1,0,-0
0,-16,-13,9,7,-17,12,9,7,2,1,0
0,-15,-12,9,7,-15,13,9,7,2,1,0
-1,-14,-11,9,6,-14,14,9,7,3,2,1
-0,-13,-10,8,5,-13,14,9,8,3,2,1
-0,-11,-8,7,4,-10,15,10,8,4,3,2
0,-11,-9,6,5,-11,14,9,8,4,3,2
1,-10,-9,5,6,-10,14,9,8,4,3,2
2,-8,-9,4,6,-9,13,9,8,4,3,2
3,-8,-9,3,6,-9,13,8,8,4,3,2
3,-8,-9,3,6,-9,13,8,8,4,3,2
3,-6,-8,2,6,-8,13,8,8,4,3,2
3,-5,-7,1,6,-7,13,8,8,4,3,2
3,-4,-6,1,5,-6,13,8,8,4,3,2
3,-5,-7,1,6,-7,12,8,8,4,3,2
4,-5,-8,1,7,-8,12,8,8,4,3,2
4,-6,-9,1,7,-9,12,7,8,4,3,2
4,-6,-9,1,7,-9,12,7,8,4,3,2
4,-6,-9,1,7,-9,12,7,8,4,3,2
3,-6,-8,2,6,-8,12,7,8,4,3,3
2,-6,-7,2,5,-7,12,7,8,4,4,3
2,-5,-6,2,5,-6,12,7,8,5,4,3
2,-8,-8,3,6,-9,12,7,8,4,4,3
2,-8,-9,4,6,-9,11,7,7,4,4,3
1,-11,-10,5,6,-11,10,7,7,4,4,3
1,-12,-11,6,6,-13,10,6,7,4,4,3
0,-12,-10,7,6,-12,9,6,7,4,3,3
-1,-12,-9,8,4,-12,8,6,6,4,3,3
-1,-12,-8,8,4,-11,7,5,6,3,3,3
-3,-12,-6,9,2,-10,7,5,6,3,3,3
-2,-12,-7,9,3,-10,6,5,5,3,3,2
-1,-11,-7,7,3,-10,5,4,5,2,3,2
-0,-11,-8,7,4,-10,4,4,5,2,2,2
0,-10,-8,6,5,-10,4,4,5,1,2,2
2,-8,-8,3,6,-9,4,3,4,1,2,2
4,-5,-8,1,7,-8,4,3,4,1,2,2
5,-3,-8,-2,7,-6,3,3,4,1,2,2
7,-1,-8,-5,9,-5,3,2,3,1,2,2
7,-1,-8,-5,9,-5,3,2,3,1,2,2
7,0,-7,-5,8,-4,3,2,3,1,2,2
7,0,-7,-5,8,-4,3,2,2,1,2,2
7,1,-6,-6,8,-3,3,2,2,1,2,2
6,0,-6,-4,7,-4,3,2,2,1,2,2
4,-1,-5,-3,6,-4,3,2,2,1,2,2
3,-2,-5,-1,4,-4,3,2,2,1,2,2
2,-2,-4,0,3,-3,4,2,2,1,2,2
0,-4,-4,2,2,-4,4,2,2,0,1,2
-1,-6,-4,5,1,-5,4,2,2,0,1,2
-3,-8,-4,7,0,-6,4,2,2,0,1,2
-5,-10,-3,9,-1,-7,4,2,2,0,1,2
-4,-11,-5,9,1,-8,4,2,2,0,1,0
-3,-11,-5,9,1,-9,4,2,2,-0,0,-0
-2,-11,-6,8,3,-9,4,2,1,-1,0,-1
-1,-11,-7,7,3,-10,4,2,1,-1,-1,-2
-0,-11,-8,7,4,-10,4,2,1,-2,-1,-2
0,-10,-8,6,5,-10,4,2,1,-2,-1,-2
1,-10,-9,5,6,-10,4,2,1,-2,-2,-3
2,-8,-9,4,6,-9,4,2,1,-2,-2,-3
2,-10,-10,4,7,-11,3,2,0,-2,-2,-4
3,-10,-11,4,7,-11,3,2,0,-2,-2,-4
3,-11,-12,4,8,-13,3,2,0,-3,-3,-4
4,-11,-12,4,9,-13,3,2,0,-3,-3,-4
4,-13,-14,5,10,-15,3,2,0,-3,-3,-4
3,-15,-15,7,10,-17,4,2,1,-3,-3,-4
2,-17,-16,9,10,-18,4,3,1,-3,-3,-4
2,-19,-17,9,10,-20,4,3,1,-3,-2,-4
2,-19,-18,10,11,-21,4,3,1,-3,-2,-4
2,-19,-18,10,11,-21,4,3,1,-3,-2,-4
3,-19,-19,9,12,-22,4,3,1,-3,-2,-4
3,-19,-19,9,12,-22,4,3,1,-2,-1,-3
3,-21,-19,10,12,-22,4,3,1,-3,-1,-3
3,-22,-20,10,13,-24,4,3,1,-3,-1,-3
3,-23,-21,11,13,-25,4,3,1,-3,-1,-3
4,-23,-22,11,14,-26,4,3,1,-3,-1,-3
4,-22,-21,10,13,-24,4,3,1,-3,-1,-3
4,-21,-20,9,13,-23,5,3,2,-2,-1,-2
4,-19,-19,9,13,-22,6,3,2,-2,-1,-2
4,-19,-19,8,12,-21,7,4,2,-2,0,-2
2,-21,-19,11,11,-22,7,3,2,-2,-1,-2
1,-22,-19,12,11,-22,7,3,2,-2,-1,-2
0,-23,-19,13,10,-23,7,3,1,-3,-1,-3
-0,-24,-19,14,10,-24,7,3,1,-3,-1,-3
-1,-23,-17,14,9,-22,7,2,1,-3,-1,-3
-3,-22,-14,15,6,-20,7,2,1,-3,-1,-3
-4,-21,-12,15,4,-18,7,2,1,-3,-1,-3
-5,-19,-10,14,3,-16,8,2,1,-2,-1,-3
-4,-19,-11,14,4,-16,7,2,1,-2,-1,-3
-2,-17,-12,12,5,-16,7,2,1,-2,-1,-3
-1,-16,-12,10,6,-16,7,2,1,-2,-1,-3
0,-15,-12,9,7,-15,7,2,1,-2,0,-2
1,-14,-12,8,7,-15,6,2,1,-2,0,-2
2,-13,-12,6,8,-14,6,2,1,-2,0,-2
3,-12,-12,5,8,-13,6,2,1,-2,0,-2
3,-11,-12,4,8,-13,6,2,2,-1,1,-1
5,-11,-13,3,10,-13,4,2,2,-1,1,-1
6,-10,-14,1,11,-13,4,2,2,-1,1,-0
8,-8,-16,-2,13,-14,3,2,2,-1,1,-0
10,-8,-17,-3,15,-14,3,3,2,-0,1,0
9,-8,-16,-3,14,-13,2,3,2,-0,1,0
8,-6,-14,-3,13,-12,1,3,2,-0,1,0
8,-5,-12,-3,11,-10,1,3,2,-0,1,0
7,-4,-11,-3,10,-9,1,3,2,-0,2,1
7,-4,-11,-3,10,-9,-0,3,2,-0,2,1
8,-3,-11,-4,10,-8,-0,3,2,-0,2,1
8,-2,-11,-5,11,-7,-1,3,2,-0,2,1
8,-1,-10,-6,10,-6,-1,3,2,-0,3,1
9,-1,-11,-6,11,-7,-2,2,2,-1,2,0
10,0,-11,-7,12,-6,-3,2,2,-2,2,0
11,0,-12,-8,13,-7,-4,1,1,-2,1,-0
12,1,-12,-10,13,-6,-4,1,1,-2,1,-0
5,-1,-6,-3,7,-4,-1,2,2,-1,2,1
-1,-3,-1,3,0,-2,3,3,3,0,3,2
-8,-5,4,9,-6,0,6,5,5,1,5,3
-14,-6,10,15,-13,4,10,6,6,3,7,5
14,6,-11,-14,14,-4,6,3,3,1,4,2
10,-2,-12,-7,13,-9,3,2,2,-0,2,0
6,-16,-19,5,14,-20,4,0,0,-2,1,-4
17,4,-15,-15,18,-8,5,3,2,0,3,2
26,10,-20,-26,27,-8,-2,-1,-0,-4,-2,-5
-4,-8,-2,8,-1,-5,10,4,4,2,7,5
-3,-3,1,4,-2,-1,7,3,3,1,5,4
-10,-22,-6,20,-2,-15,3,2,1,-1,3,-0
-10,-24,-8,22,-1,-17,1,0,0,-2,1,-1
-15,-34,-11,31,-3,-24,3,3,2,0,4,2
3,-8,-10,3,7,-10,4,2,2,0,4,3
1,-13,-12,7,7,-13,9,6,5,4,8,7
0,-10,-8,6,5,-10,16,9,8,5,8,4
6,13,4,-12,1,10,22,15,14,14,12,7
39,33,-15,-48,31,8,21,20,18,13,9,-2
4,10,4,-8,0,8,39,37,34,28,21,9
20,8,-15,-20,20,-5,49,54,51,38,31,15
48,23,-33,-50,45,-9,50,69,66,51,50,33
64,31,-44,-66,60,-12,52,81,80,64,68,51
79,-3,-88,-59,92,-58,52,96,100,83,95,78
142,18,-139,-119,155,-79,39,108,115,94,115,98
170,24,-164,-144,185,-92,26,115,128,107,144,136
218,40,-204,-190,234,-109,6,110,131,117,171,176
241,50,-221,-214,256,-115,-26,88,116,117,194,217
289,113,-222,-285,283,-84,-65,57,91,113,213,258
309,168,-200,-333,283,-41,-92,37,77,123,238,305
343,218,-197,-387,302,-14,-116,18,61,123,239,318
329,232,-171,-384,279,9,-134,-9,32,106,216,302
293,256,-113,-370,228,58,-133,-33,0,77,173,266
222,264,-30,-320,144,115,-120,-52,-28,54,133,232
191,255,-4,-291,112,127,-108,-66,-55,20,83,181
131,206,23,-217,64,119,-71,-67,-70,-17,19,102
29,140,80,-101,-25,122,-20,-65,-87,-56,-58,11
-26,120,123,-48,-80,139,9,-70,-109,-87,-111,-44
-49,134,160,-38,-112,170,19,-79,-121,-97,-126,-63
-88,109,181,6,-146,171,29,-82,-119,-96,-121,-63
-115,81,189,42,-165,161,21,-94,-125,-102,-122,-75
-132,66,196,64,-179,158,23,-94,-121,-95,-112,-75
-135,37,175,83,-170,130,21,-93,-117,-94,-110,-84
-157,21,186,109,-188,129,9,-95,-114,-90,-101,-78
-130,7,146,96,-152,97,3,-90,-107,-92,-98,-82
-118,-16,114,100,-128,65,2,-79,-95,-92,-90,-77
-110,-33,93,104,-112,43,-0,-68,-81,-81,-76,-65
-95,-67,49,112,-80,-3,-10,-58,-69,-74,-68,-60
-66,-75,11,93,-43,-31,-11,-46,-58,-70,-65,-60
-66,-86,2,99,-39,-42,-4,-33,-44,-57,-53,-49
-47,-63,1,72,-27,-31,-6,-24,-34,-46,-44,-41
-28,-45,-5,48,-13,-26,-12,-17,-26,-37,-36,-35
-24,-32,1,37,-14,-16,-6,-11,-19,-30,-29,-28
-36,-39,8,49,-24,-14,-6,-8,-14,-23,-21,-20
-5,-16,-8,13,2,-13,-13,-11,-16,-25,-23,-23
-13,-19,-1,21,-6,-10,-9,-10,-13,-22,-19,-19
-21,-21,6,28,-15,-7,-4,-8,-10,-20,-16,-17
-10,-24,-8,22,-1,-17,-6,-8,-9,-15,-13,-12
7,-23,-26,8,18,-28,-8,-7,-9,-18,-16,-15
-22,-28,1,33,-12,-14,-6,-4,-6,-14,-12,-10
-15,-12,7,19,-12,-2,-9,-4,-7,-15,-14,-14
-9,-10,2,13,-6,-3,-8,-3,-7,-14,-14,-14
-26,-34,1,39,-15,-17,-5,-3,-7,-13,-15,-15
-21,-17,8,26,-16,-3,-1,-1,-3,-9,-10,-10
-7,-4,4,8,-6,1,-9,-5,-9,-16,-15,-17
-30,-27,10,39,-22,-7,-3,-3,-6,-12,-9,-8
-16,-28,-5,29,-6,-18,-2,-4,-6,-12,-10,-9
4,-15,-16,6,11,-18,-9,-7,-8,-14,-11,-13
1,-12,-11,6,6,-13,-6,-6,-7,-14,-11,-13
-2,-8,-5,7,1,-7,-4,-4,-7,-13,-11,-13
-5,-5,1,7,-3,-2,-2,-4,-6,-13,-11,-13
-8,-2,7,7,-7,4,1,-2,-6,-12,-11,-12
-10,-8,5,12,-8,-0,-0,-3,-6,-13,-12,-14
-12,-12,3,16,-8,-4,-1,-3,-7,-14,-13,-14
-13,-16,1,20,-8,-7,-2,-4,-7,-15,-14,-15
-16,-21,1,24,-9,-10,-2,-4,-7,-15,-14,-16
-16,-22,-0,25,-9,-11,-1,-4,-7,-15,-14,-16
-16,-22,-0,25,-9,-11,-0,-4,-7,-15,-14,-15
-16,-22,-0,25,-9,-11,1,-4,-7,-15,-14,-15
-16,-22,-0,25,-9,-11,1,-4,-7,-15,-14,-15
-15,-22,-1,24,-8,-12,1,-4,-7,-15,-14,-15
-15,-22,-1,24,-8,-12,1,-4,-7,-15,-14,-15
-14,-22,-2,24,-7,-12,1,-4,-7,-15,-14,-15
-14,-22,-2,24,-7,-12,1,-4,-7,-15,-14,-15
-15,-24,-3,25,-7,-14,1,-4,-8,-15,-14,-16
-16,-25,-3,27,-7,-14,1,-4,-8,-15,-14,-16
-17,-26,-3,28,-8,-15,1,-4,-8,-15,-14,-17
-18,-27,-3,29,-8,-16,1,-4,-8,-15,-14,-17
-18,-27,-3,29,-8,-16,1,-4,-8,-15,-14,-17
-17,-26,-3,28,-8,-15,1,-4,-8,-15,-14,-16
-16,-25,-3,27,-7,-14,1,-4,-8,-15,-14,-16
-15,-24,-3,25,-7,-14,1,-4,-7,-15,-14,-15
-15,-25,-4,26,-7,-15,2,-4,-7,-15,-14,-15
-15,-25,-4,26,-7,-15,3,-4,-7,-15,-14,-15
-15,-25,-4,26,-7,-15,3,-4,-7,-15,-13,-14
-15,-25,-4,26,-7,-15,4,-4,-7,-14,-13,-14
-14,-25,-5,26,-6,-16,3,-4,-7,-14,-13,-14
-14,-25,-5,26,-6,-16,3,-4,-7,-14,-13,-13
-14,-25,-5,25,-5,-16,3,-4,-7,-14,-13,-13
-14,-25,-5,25,-5,-16,3,-4,-7,-14,-12,-12
-13,-26,-6,25,-4,-17,2,-4,-7,-14,-12,-12
-14,-27,-7,26,-4,-18,2,-4,-7,-14,-12,-12
-13,-28,-8,27,-3,-19,1,-4,-7,-14,-12,-12
-13,-28,-9,26,-2,-20,1,-4,-7,-14,-12,-11
-13,-28,-9,26,-2,-20,-0,-5,-8,-15,-13,-12
-13,-27,-8,26,-3,-19,-2,-6,-9,-15,-13,-12
-14,-27,-7,26,-4,-18,-3,-6,-9,-16,-14,-13
-13,-26,-6,25,-4,-17,-4,-7,-10,-16,-14,-14
-13,-26,-6,25,-4,-17,-6,-8,-10,-17,-14,-14
-13,-25,-6,24,-4,-17,-6,-8,-11,-17,-15,-14
-12,-24,-6,23,-3,-16,-8,-9,-11,-18,-15,-14
-12,-23,-5,23,-4,-15,-9,-9,-12,-18,-15,-14
-12,-23,-5,23,-4,-15,-9,-10,-12,-19,-16,-15
-11,-22,-5,21,-3,-14,-10,-10,-13,-19,-16,-15
-10,-21,-5,20,-3,-14,-11,-11,-13,-19,-16,-15
-9,-19,-5,19,-2,-13,-12,-11,-13,-19,-16,-15
-9,-19,-5,19,-2,-13,-13,-12,-14,-20,-17,-15
-9,-19,-5,18,-2,-13,-13,-13,-15,-20,-17,-15
-8,-17,-5,16,-1,-12,-15,-13,-15,-21,-18,-15
-7,-16,-5,15,-1,-12,-16,-14,-16,-21,-18,-15
-8,-15,-4,15,-2,-10,-16,-14,-17,-22,-18,-15
-9,-14,-2,15,-4,-8,-17,-15,-17,-22,-18,-14
-9,-13,-0,15,-5,-7,-18,-15,-18,-22,-18,-14
-10,-12,1,15,-6,-5,-19,-16,-18,-22,-18,-13
-12,-12,3,16,-8,-4,-20,-17,-20,-24,-20,-14
-14,-12,6,18,-11,-2,-21,-18,-21,-25,-20,-14
-16,-12,8,19,-13,-1,-23,-19,-22,-26,-21,-15
-18,-12,10,21,-16,0,-24,-20,-23,-27,-22,-15
-19,-12,11,22,-17,1,-26,-22,-25,-28,-23,-16
-20,-11,13,22,-18,3,-27,-23,-26,-29,-24,-16
-21,-10,15,22,-19,4,-28,-25,-28,-30,-25,-16
-22,-8,17,22,-21,6,-29,-26,-29,-31,-26,-16
-22,-8,17,21,-21,7,-30,-28,-31,-33,-28,-17
-22,-6,18,20,-22,9,-32,-29,-33,-35,-29,-17
-22,-5,19,20,-22,9,-33,-31,-35,-36,-30,-18
-21,-3,20,18,-22,11,-35,-33,-36,-38,-32,-19
-21,-2,21,17,-22,13,-36,-34,-38,-40,-33,-19
-21,-1,22,17,-23,13,-37,-36,-40,-41,-34,-19
-21,0,23,16,-24,14,-39,-38,-42,-42,-35,-19
-21,2,24,15,-24,17,-40,-39,-43,-44,-36,-19
-22,2,25,16,-25,18,-42,-41,-45,-45,-37,-19
-24,2,27,17,-27,18,-43,-42,-46,-46,-38,-19
-24,2,28,18,-28,19,-44,-44,-48,-47,-38,-19
-26,2,30,19,-30,20,-46,-45,-49,-49,-39,-19
-26,1,30,20,-30,20,-48,-46,-50,-50,-40,-20
-26,1,30,20,-30,20,-49,-48,-51,-51,-41,-20
-26,1,30,20,-30,20,-51,-49,-53,-52,-42,-20
-26,1,30,20,-30,20,-53,-50,-54,-54,-43,-20
-26,1,29,19,-30,19,-54,-50,-54,-54,-43,-20
-24,2,28,18,-28,19,-56,-51,-54,-54,-42,-19
-24,2,27,17,-27,18,-57,-51,-54,-54,-42,-19
-23,4,27,16,-27,19,-58,-51,-54,-54,-42,-17
-19,4,24,13,-24,18,-58,-50,-53,-53,-40,-16
-16,6,22,9,-20,17,-57,-49,-51,-52,-39,-15
-13,7,19,6,-17,16,-56,-48,-50,-51,-38,-14
-9,9,17,2,-13,15,-56,-46,-49,-50,-36,-12
-8,8,15,2,-12,13,-54,-44,-47,-48,-34,-10
-6,8,13,1,-10,13,-53,-42,-44,-46,-32,-8
-6,7,11,1,-9,11,-51,-40,-42,-44,-29,-6
-4,7,10,-1,-7,9,-50,-37,-39,-42,-27,-4
-3,4,7,0,-5,7,-48,-34,-36,-39,-24,-3
-1,4,4,-1,-3,4,-45,-31,-33,-36,-21,-1
0,2,1,-1,0,2,-43,-28,-30,-33,-19,0
2,1,-1,-2,2,0,-40,-25,-27,-30,-15,2
3,0,-3,-2,3,-1,-39,-23,-24,-27,-13,3
3,0,-4,-2,4,-2,-37,-20,-22,-25,-11,4
4,-1,-5,-3,6,-4,-35,-17,-19,-22,-9,5
5,-1,-6,-3,7,-4,-33,-14,-16,-20,-6,6
7,-1,-8,-5,9,-5,-32,-12,-14,-17,-5,7
8,-1,-10,-6,10,-6,-30,-10,-12,-15,-3,7
10,-1,-12,-7,12,-8,-28,-8,-10,-12,-1,8
11,-1,-12,-8,13,-8,-26,-6,-7,-10,1,9
12,-1,-13,-8,14,-9,-25,-4,-6,-8,2,9
12,-1,-14,-9,15,-9,-23,-3,-4,-6,3,9
13,-1,-15,-10,16,-10,-21,-1,-2,-4,5,9
14,-1,-16,-10,17,-10,-19,1,-0,-2,6,9
14,-2,-17,-10,18,-11,-18,2,0,-1,7,9
14,-2,-17,-10,18,-11,-16,3,2,0,8,9
14,-3,-18,-9,18,-13,-14,4,3,1,8,9
14,-3,-18,-9,18,-13,-12,5,4,2,9,9
14,-4,-19,-9,18,-13,-11,6,5,3,9,8
14,-5,-19,-8,19,-15,-9,7,5,4,9,7
14,-6,-20,-7,19,-16,-8,7,6,4,9,7
15,-6,-21,-8,20,-16,-6,8,6,5,10,6
14,-8,-21,-6,19,-17,-5,8,7,5,10,5
13,-8,-20,-5,18,-17,-4,9,7,6,10,5
12,-10,-20,-3,18,-18,-2,9,8,6,10,5
10,-11,-19,-2,16,-18,-1,10,8,7,10,5
10,-12,-20,-1,17,-19,-1,10,8,7,9,3
10,-12,-20,-1,17,-19,-0,10,8,7,9,3
10,-13,-21,0,17,-20,-0,10,8,7,9,2
10,-13,-21,0,17,-20,1,10,8,7,9,2
11,-13,-22,-1,18,-20,1,11,8,7,9,2
12,-12,-22,-2,19,-20,2,11,9,7,9,2
12,-12,-22,-2,19,-20,3,11,9,7,9,2
13,-11,-22,-4,19,-19,3,12,9,8,9,2
12,-11,-21,-3,18,-18,4,12,9,7,9,1
11,-11,-20,-2,18,-18,4,12,9,7,8,0
10,-11,-19,-2,16,-18,5,12,9,7,8,-0
9,-11,-19,-1,16,-17,6,12,9,7,8,-0
8,-13,-19,1,15,-18,6,12,9,6,7,-2
8,-14,-19,3,15,-19,7,12,9,6,6,-2
6,-16,-19,5,14,-20,7,12,8,5,6,-4
5,-17,-19,6,13,-21,8,12,8,5,5,-4
4,-19,-19,9,13,-22,9,11,8,4,4,-5
1,-22,-19,12,11,-22,10,11,8,4,4,-6
-0,-24,-19,14,10,-24,10,11,8,3,3,-7
-2,-25,-18,16,8,-24,11,11,7,3,3,-7
-1,-26,-19,16,10,-26,11,10,7,2,2,-9
-1,-27,-20,17,10,-27,12,10,6,1,1,-9
-1,-28,-21,17,11,-28,12,10,6,1,1,-10
-1,-30,-22,18,11,-29,13,9,6,0,0,-11
-2,-30,-21,19,10,-28,14,9,6,0,0,-11
-3,-28,-19,19,9,-27,15,10,6,1,1,-10
-3,-27,-19,18,9,-26,17,10,6,1,1,-10
-4,-26,-17,18,7,-24,18,10,6,1,1,-10
-6,-27,-16,20,6,-24,18,10,6,1,1,-10
-6,-27,-15,21,5,-23,18,10,6,1,1,-10
-7,-27,-14,21,4,-23,18,10,6,1,1,-10
-8,-27,-13,22,3,-22,19,10,6,1,1,-9
-8,-27,-13,22,3,-22,19,10,6,1,1,-9
-9,-27,-12,23,2,-22,19,10,6,1,1,-8
-9,-27,-12,23,2,-22,19,10,6,1,2,-7
-8,-26,-12,22,1,-21,19,10,6,1,2,-7
-8,-26,-12,21,2,-21,19,10,6,1,2,-7
-8,-26,-12,21,2,-21,18,10,6,1,2,-7
-7,-26,-13,20,3,-22,17,10,6,1,2,-7
-7,-26,-13,20,3,-22,17,10,6,1,3,-6
-6,-24,-12,19,3,-20,17,10,6,2,3,-5
-5,-21,-12,16,4,-18,17,10,7,2,3,-5
-4,-19,-11,14,4,-16,17,10,7,3,4,-4
-3,-15,-9,11,3,-13,17,10,7,4,4,-3
-2,-14,-9,10,4,-13,17,10,7,4,4,-3
-1,-12,-8,8,4,-11,16,10,7,4,5,-2
-1,-10,-7,6,4,-9,15,10,7,4,5,-2
0,-8,-6,4,4,-8,15,10,8,5,5,-2
0,-6,-5,4,3,-6,14,10,8,5,6,-1
-1,-5,-4,4,2,-5,13,10,8,5,6,-0
-0,-4,-3,3,1,-4,12,10,8,5,7,0
-1,-3,-1,3,0,-2,12,10,8,6,7,1
0,-4,-4,2,2,-4,10,10,8,5,7,0
1,-5,-5,3,4,-6,8,10,8,5,7,0
2,-6,-7,2,5,-7,6,9,8,5,6,-0
3,-8,-9,3,6,-9,4,9,8,5,6,-0
4,-8,-11,2,8,-11,4,9,8,5,6,-0
5,-8,-12,2,9,-11,3,9,8,5,7,0
6,-8,-13,1,11,-13,3,9,8,5,7,1
7,-8,-14,0,12,-13,2,10,8,6,7,2
8,-8,-15,-1,13,-13,1,10,8,6,7,2
8,-8,-15,-2,13,-13,1,10,9,6,8,2
10,-6,-16,-4,15,-13,1,10,9,6,8,2
11,-5,-16,-5,15,-13,1,10,9,7,8,2
11,-5,-16,-5,15,-13,2,10,10,7,9,3
11,-4,-15,-6,15,-11,3,10,10,8,10,3
11,-4,-15,-6,15,-11,3,11,10,8,10,4
11,-3,-14,-6,14,-10,4,11,11,9,11,5
12,-3,-15,-7,15,-11,4,11,11,9,11,5
13,-2,-15,-9,16,-10,4,11,11,9,11,5
13,-2,-15,-9,16,-10,4,11,11,9,11,5
13,-1,-15,-10,16,-10,4,12,12,9,11,5
13,-2,-16,-9,16,-11,4,12,12,9,11,5
14,-2,-17,-10,18,-11,5,12,12,9,11,5
15,-2,-18,-10,18,-12,5,12,12,9,11,5
15,-2,-18,-10,18,-12,6,12,12,9,11,5
14,-3,-18,-9,18,-13,5,12,12,9,10,4
13,-4,-18,-8,17,-13,5,11,11,9,10,3
12,-5,-18,-6,17,-13,4,11,11,8,9,3
11,-6,-17,-5,16,-13,4,11,11,8,9,3
10,-8,-17,-3,15,-14,4,11,11,8,9,3
10,-8,-17,-3,15,-14,5,11,11,8,9,3
9,-8,-17,-2,15,-15,6,10,11,8,8,3
8,-8,-16,-2,13,-14,7,10,11,8,8,3
8,-10,-16,0,13,-15,7,10,10,7,8,3
7,-10,-15,1,12,-14,7,10,10,7,8,3
6,-11,-15,2,12,-15,8,10,10,7,8,3
5,-11,-14,2,11,-14,9,10,10,7,8,3
4,-12,-14,4,10,-15,9,10,10,7,8,3
4,-12,-13,4,9,-14,10,10,10,8,8,3
3,-12,-12,5,8,-13,10,10,10,8,8,3
2,-12,-12,6,7,-13,11,10,11,8,8,4
0,-14,-12,8,7,-14,10,9,10,8,8,3
-1,-15,-11,10,5,-14,10,9,10,7,8,3
-3,-16,-10,12,4,-14,10,9,10,7,7,3
-5,-17,-9,14,2,-14,10,8,9,7,7,3
-4,-17,-10,13,3,-15,10,8,9,6,7,3
-3,-16,-10,12,4,-14,10,8,9,6,6,3
-3,-16,-10,12,4,-14,9,7,8,6,6,3
-2,-15,-10,10,4,-14,9,7,8,6,6,3
-1,-14,-10,9,5,-13,8,7,8,5,5,2
-1,-13,-9,9,4,-12,8,6,8,4,4,2
-1,-12,-8,8,4,-11,7,6,7,4,3,1
-1,-11,-7,7,3,-10,7,5,7,4,3,1
-2,-12,-7,9,3,-10,7,5,6,3,3,1
-3,-12,-6,9,2,-10,8,5,6,3,2,1
-4,-12,-5,10,1,-9,8,5,6,3,2,1
-5,-12,-5,11,0,-9,9,5,6,3,2,1
-5,-13,-5,11,0,-10,8,4,6,3,1,0
-5,-13,-5,11,0,-10,8,4,6,3,1,0
-5,-13,-5,11,0,-10,7,4,5,2,0,0
-5,-13,-5,11,0,-10,7,4,5,2,0,0
-5,-13,-5,11,0,-10,7,4,5,2,0,0
-4,-12,-5,10,1,-9,7,4,6,3,1,1
-4,-12,-5,10,1,-9,6,4,6,3,1,1
-4,-11,-5,9,1,-8,6,5,6,3,1,2
-1,-10,-6,7,3,-9,4,5,6,3,1,2
0,-8,-7,5,4,-9,3,5,6,3,1,2
3,-8,-9,3,6,-9,2,5,6,3,0,2
5,-5,-10,-1,9,-9,1,5,6,3,0,2
6,-5,-11,-1,9,-9,1,5,6,3,0,2
7,-4,-11,-3,10,-9,-0,5,6,3,0,2
8,-4,-12,-4,11,-9,-1,5,6,3,0,2
8,-3,-12,-5,11,-9,-1,5,6,3,0,2
8,-4,-12,-4,12,-9,-1,5,6,3,-1,2
8,-5,-13,-3,12,-11,-1,5,6,3,-1,2
8,-6,-14,-3,13,-12,-1,6,7,3,-1,2
8,-8,-15,-2,13,-13,-0,6,7,4,-1,2
9,-8,-16,-3,14,-13,-1,6,7,4,-1,2
10,-6,-16,-4,15,-13,-1,6,7,4,-1,2
10,-6,-16,-4,15,-13,-1,6,7,4,-1,2
11,-5,-16,-5,15,-13,-1,6,7,4,-1,2
10,-5,-15,-5,14,-12,-1,6,7,4,-1,2
8,-5,-13,-3,12,-11,-0,7,8,4,-1,2
8,-5,-12,-3,11,-10,1,7,8,5,-1,2
7,-4,-11,-3,10,-9,1,7,8,5,-1,3
7,-4,-11,-3,10,-9,1,7,8,5,-2,2
8,-3,-11,-4,10,-8,1,6,7,4,-2,2
8,-2,-11,-5,11,-7,1,6,7,4,-3,2
8,-1,-10,-6,10,-6,1,6,7,4,-3,2
8,-1,-10,-6,10,-6,1,6,7,4,-4,2
8,0,-9,-6,10,-5,1,6,7,4,-4,2
8,1,-8,-7,10,-4,2,6,7,4,-5,2
8,2,-7,-7,9,-3,3,6,7,4,-5,2
7,0,-7,-5,8,-4,3,6,7,4,-6,0
6,-1,-7,-4,7,-4,3,6,6,3,-6,-0
4,-3,-7,-1,6,-6,3,6,6,3,-7,-1
4,-4,-7,0,6,-6,3,6,6,2,-8,-2
4,-5,-8,1,7,-8,3,5,5,2,-8,-2
4,-6,-9,1,7,-9,3,5,5,2,-9,-2
4,-8,-10,2,7,-10,3,5,5,1,-9,-3
3,-8,-10,3,7,-10,4,5,5,1,-9,-3
1,-10,-9,5,6,-10,4,5,5,1,-9,-3
-0,-11,-8,7,4,-10,4,5,5,2,-9,-2
-2,-12,-7,9,3,-10,4,5,5,2,-9,-2
-5,-13,-5,11,0,-10,4,5,5,2,-9,-2
-4,-12,-5,10,1,-9,4,5,5,2,-10,-2
-3,-11,-5,9,1,-9,3,4,5,2,-10,-2
-2,-10,-5,8,2,-8,3,4,5,1,-10,-2
-1,-8,-5,6,2,-8,2,4,5,1,-10,-2
-0,-6,-5,4,3,-6,2,3,4,1,-11,-2
-0,-4,-3,3,1,-4,2,3,4,1,-11,-2
0,-2,-2,1,1,-2,2,3,4,1,-11,-2
0,0,-0,0,1,0,2,3,4,1,-11,-2
0,-1,-1,1,1,-1,1,3,3,0,-12,-3
0,-1,-1,1,1,-1,1,2,3,0,-13,-4
1,-1,-2,0,2,-1,1,2,3,-0,-14,-4
1,-1,-2,0,2,-1,1,2,2,-0,-14,-4
0,-2,-2,1,1,-2,1,2,2,-1,-15,-5
0,-2,-2,1,1,-2,1,2,1,-1,-15,-5
0,-2,-2,1,1,-2,1,1,1,-2,-16,-6
-0,-2,-1,2,1,-1,1,1,1,-2,-17,-7
-2,-4,-1,4,-0,-3,1,1,0,-2,-18,-7
-4,-6,-1,7,-1,-4,1,0,0,-2,-18,-7
-5,-8,-1,9,-2,-5,1,0,0,-3,-19,-8
-8,-11,-0,12,-4,-5,1,0,0,-3,-19,-8
-8,-11,1,13,-5,-5,-1,-0,-0,-3,-20,-8
-8,-10,1,12,-5,-4,-2,-1,-0,-3,-20,-8
-9,-10,2,13,-6,-3,-2,-1,-0,-3,-20,-8
-10,-8,4,13,-8,-1,-3,-1,-0,-3,-20,-8
-9,-8,3,12,-7,-2,-4,-1,-0,-3,-20,-8
-8,-8,2,11,-6,-2,-4,-1,-0,-3,-20,-8
-7,-8,1,10,-4,-3,-5,-1,-0,-3,-20,-8
-5,-6,1,8,-3,-3,-5,-1,0,-3,-20,-8
-4,-6,-0,7,-2,-3,-5,-0,0,-3,-20,-8
-4,-6,-0,7,-2,-3,-4,0,0,-2,-20,-7
-4,-6,-0,7,-2,-3,-4,0,1,-2,-20,-7
-4,-5,-0,6,-1,-3,-4,1,1,-2,-20,-6
-3,-6,-2,6,-0,-4,-4,1,1,-2,-20,-6
-2,-6,-3,5,1,-5,-3,1,2,-2,-20,-6
-0,-6,-5,4,3,-6,-3,2,2,-2,-20,-6
0,-6,-5,4,3,-6,-2,2,2,-1,-20,-5
-1,-8,-5,5,3,-7,-2,2,2,-1,-20,-5
-1,-8,-5,6,2,-8,-1,2,2,-0,-20,-5
-2,-10,-5,8,2,-8,-0,3,3,0,-20,-5
-2,-10,-5,8,2,-8,1,3,3,0,-20,-4
-1,-11,-7,7,3,-10,1,3,3,0,-20,-5
0,-11,-9,6,5,-11,1,3,3,0,-20,-5
1,-12,-11,6,6,-13,1,3,2,-0,-20,-6
3,-12,-12,5,8,-13,1,3,2,-0,-20,-6
3,-12,-12,5,8,-13,1,2,2,-1,-21,-7
4,-11,-12,4,9,-13,1,2,2,-1,-21,-7
4,-10,-12,3,9,-13,1,2,2,-2,-21,-7
5,-8,-12,2,9,-11,1,2,2,-2,-21,-7
5,-8,-12,1,10,-12,1,2,2,-2,-21,-7
5,-8,-12,1,10,-12,1,2,2,-2,-20,-7
5,-8,-12,1,10,-12,1,2,2,-2,-20,-7
6,-8,-12,0,10,-11,2,2,2,-2,-20,-6
6,-8,-12,0,10,-11,2,2,2,-2,-20,-7
6,-8,-12,0,10,-11,2,2,2,-2,-20,-7
6,-8,-12,0,10,-11,2,2,2,-3,-20,-7
5,-8,-12,1,9,-11,3,2,2,-3,-20,-7
3,-10,-11,4,7,-11,4,3,2,-2,-20,-5
1,-11,-10,5,6,-11,5,3,3,-2,-20,-4
-1,-13,-9,9,4,-12,7,4,3,-2,-19,-3
-3,-14,-8,11,3,-12,8,4,4,-1,-18,-2
0,-11,-9,6,5,-11,8,5,4,-2,-19,-2
4,-6,-9,1,7,-9,9,5,4,-2,-19,-2
7,-3,-10,-3,9,-8,9,5,4,-2,-19,-3
10,1,-10,-8,12,-5,10,6,5,-2,-19,-3
15,21,1,-23,9,12,11,5,4,-3,-21,-6
9,10,-2,-13,7,4,11,6,5,0,-16,-1
-6,-24,-12,19,3,-20,7,4,4,-1,-17,-2
5,-13,-16,4,12,-16,7,2,1,-2,-18,-4
-1,-14,-11,9,6,-14,4,2,2,-1,-19,-3
-2,-3,-0,4,-1,-2,6,3,4,1,-14,2
10,29,12,-24,0,22,-0,2,3,-1,-17,-1
-2,18,17,-8,-10,20,4,3,4,0,-15,2
-1,-12,-8,8,4,-11,1,2,4,-1,-15,1
19,-6,-26,-11,25,-19,1,2,3,-1,-14,0
16,1,-16,-13,18,-9,-1,1,2,-3,-19,-6
1,0,-1,-1,1,-0,4,3,5,3,-12,2
-6,11,15,-2,-10,15,13,7,8,7,-9,5
-2,20,18,-9,-10,22,14,10,11,12,-5,8
-15,19,31,1,-25,30,33,22,23,22,1,15
-19,20,37,4,-30,34,45,34,34,32,9,20
22,40,8,-39,9,26,42,46,43,32,7,11
25,26,-6,-33,18,9,50,62,59,44,20,24
37,18,-26,-38,35,-7,49,74,72,54,34,36
73,27,-58,-71,73,-23,45,84,84,64,48,47
117,42,-93,-114,117,-37,41,100,104,81,72,68
124,26,-113,-109,131,-58,41,118,125,100,102,104
173,42,-153,-156,180,-76,24,118,133,110,129,140
236,81,-191,-227,237,-80,-4,102,122,109,145,171
267,104,-206,-264,263,-78,-38,73,100,105,164,209
282,122,-208,-285,272,-70,-76,45,81,110,190,258
321,181,-203,-349,292,-37,-109,24,66,112,204,286
323,216,-177,-370,279,-2,-127,2,47,110,200,291
314,234,-153,-374,261,22,-145,-31,14,89,170,269
293,241,-125,-362,235,44,-151,-58,-22,57,122,224
226,258,-38,-320,150,107,-137,-75,-49,32,83,189
142,207,11,-227,76,113,-102,-77,-64,8,43,147
82,177,53,-163,19,124,-55,-73,-77,-24,-21,68
21,179,121,-117,-52,168,-4,-73,-96,-58,-89,-6
-58,142,176,-35,-126,184,23,-80,-115,-81,-126,-42
-93,111,189,9,-153,176,26,-91,-123,-90,-134,-53
-86,102,174,9,-141,163,14,-105,-132,-101,-140,-67
-123,74,192,52,-172,160,13,-109,-131,-100,-136,-73
-138,53,191,76,-180,149,12,-107,-126,-94,-128,-72
-107,68,169,44,-150,142,9,-105,-120,-89,-121,-71
-108,22,134,70,-132,97,-12,-107,-118,-95,-122,-81
-134,-16,132,113,-147,76,-8,-90,-103,-90,-111,-77
-124,-27,112,111,-130,58,-11,-77,-88,-81,-99,-68
-85,-30,69,82,-85,29,-19,-65,-74,-70,-88,-60
-75,-57,35,90,-61,-7,-15,-49,-58,-62,-79,-54
-68,-54,31,83,-55,-8,-4,-34,-43,-48,-66,-42
-30,-31,8,41,-22,-10,-6,-25,-34,-42,-61,-38
-30,-31,8,41,-22,-10,-7,-18,-26,-34,-54,-31
-34,-35,8,46,-24,-12,-4,-11,-18,-26,-45,-24
-23,-25,5,32,-16,-9,-8,-11,-16,-25,-43,-23
-14,-16,2,21,-9,-7,-12,-9,-14,-23,-42,-24
-15,-23,-2,25,-7,-13,-1,-6,-9,-14,-34,-13
-13,-15,2,19,-9,-6,-4,-7,-8,-12,-34,-15
-4,-13,-6,10,1,-10,-9,-8,-8,-14,-35,-19
-9,-16,-3,17,-4,-10,-4,-6,-7,-12,-33,-17
-13,-22,-4,22,-5,-13,-5,-5,-6,-12,-33,-17
4,-17,-18,7,12,-20,-7,-6,-8,-16,-39,-24
-0,-15,-12,9,6,-15,-5,-5,-7,-14,-37,-20
-22,-17,10,27,-17,-3,6,-0,-3,-9,-31,-14
-32,-15,23,33,-30,7,4,-3,-5,-10,-32,-15
-8,-19,-7,17,-0,-14,5,-2,-5,-8,-31,-15
-23,-32,-1,36,-12,-17,13,-0,-3,-7,-29,-13
-9,-13,-0,15,-5,-7,4,-4,-6,-10,-32,-17
-8,-2,7,7,-7,4,9,-2,-4,-5,-29,-12
-14,-11,7,17,-11,-1,6,-3,-5,-7,-30,-14
-20,-19,7,26,-15,-5,4,-4,-5,-8,-32,-15
-26,-27,7,36,-18,-9,2,-4,-6,-9,-33,-16
-33,-35,8,45,-23,-13,-0,-5,-6,-10,-34,-17
-29,-31,7,40,-20,-11,1,-5,-6,-10,-34,-17
-24,-25,6,33,-17,-9,1,-5,-6,-9,-33,-15
-19,-19,5,26,-13,-7,2,-5,-6,-9,-32,-15
-14,-14,4,19,-10,-4,3,-5,-6,-8,-31,-14
-13,-12,5,17,-10,-3,3,-5,-6,-7,-31,-13
-12,-8,6,14,-10,-0,3,-5,-6,-7,-30,-12
-11,-6,7,12,-9,1,3,-5,-6,-7,-29,-11
-9,-3,8,9,-9,4,3,-5,-6,-6,-28,-10
-9,-4,7,10,-9,2,3,-5,-6,-6,-28,-10
-8,-4,6,9,-8,2,3,-5,-6,-6,-28,-10
-8,-4,5,8,-7,1,3,-6,-6,-6,-28,-10
-7,-4,4,8,-6,1,4,-6,-6,-6,-28,-10
-8,-5,4,9,-6,0,4,-6,-7,-6,-29,-11
-9,-6,5,11,-7,0,4,-6,-7,-6,-29,-12
-11,-8,6,13,-9,0,4,-7,-7,-7,-29,-12
-12,-8,7,15,-10,0,5,-7,-7,-7,-29,-13
-13,-10,6,16,-10,-1,5,-7,-7,-7,-29,-14
-13,-10,6,16,-10,-1,5,-7,-8,-7,-29,-14
-12,-11,5,16,-9,-2,5,-7,-8,-7,-29,-15
-12,-11,5,16,-9,-2,6,-7,-8,-7,-29,-15
-13,-12,5,17,-10,-3,6,-7,-8,-7,-29,-15
-14,-13,5,18,-10,-3,6,-7,-8,-7,-29,-15
-15,-14,5,20,-11,-4,6,-7,-8,-8,-30,-16
-15,-14,5,20,-11,-4,6,-7,-8,-8,-30,-16
-15,-15,4,20,-10,-5,6,-7,-8,-8,-30,-16
-15,-16,3,21,-10,-6,7,-7,-8,-7,-29,-15
-15,-17,2,22,-10,-7,7,-7,-8,-7,-29,-15
-15,-19,1,22,-9,-9,7,-7,-8,-7,-29,-15
-15,-19,1,23,-9,-9,7,-7,-8,-7,-29,-15
-15,-19,1,23,-9,-9,7,-6,-8,-7,-29,-14
-14,-19,-0,22,-7,-10,7,-6,-8,-7,-29,-14
-14,-19,-0,22,-7,-10,7,-6,-7,-7,-29,-14
-14,-19,-0,22,-7,-10,7,-6,-7,-7,-28,-14
-13,-19,-0,21,-7,-9,6,-6,-7,-6,-28,-13
-13,-19,-0,21,-7,-9,5,-6,-7,-6,-27,-13
-13,-17,1,20,-8,-8,5,-5,-7,-6,-27,-12
-13,-16,1,19,-7,-8,4,-6,-8,-6,-27,-12
-12,-15,1,18,-7,-7,4,-6,-8,-6,-27,-12
-13,-14,2,18,-8,-5,4,-6,-8,-6,-27,-12
-12,-13,3,17,-9,-4,4,-6,-8,-5,-26,-12
-14,-13,5,18,-10,-3,3,-6,-9,-5,-26,-12
-15,-12,7,19,-12,-2,3,-7,-9,-5,-26,-12
-17,-12,8,20,-14,-0,3,-7,-9,-5,-26,-12
-17,-11,10,20,-15,1,3,-7,-9,-5,-26,-12
-17,-11,10,19,-14,1,2,-8,-10,-6,-27,-13
-17,-11,10,19,-14,1,2,-8,-11,-6,-27,-13
-17,-11,10,19,-14,1,1,-9,-11,-7,-27,-14
-17,-11,10,19,-14,1,1,-9,-12,-7,-27,-14
-16,-11,8,18,-13,0,-0,-10,-13,-7,-27,-14
-16,-11,8,18,-13,0,-1,-11,-14,-8,-28,-14
-15,-11,8,18,-12,-0,-2,-12,-15,-9,-28,-15
-15,-11,8,18,-12,-0,-2,-13,-15,-9,-29,-15
-14,-12,6,18,-11,-2,-4,-14,-16,-10,-29,-16
-14,-13,5,18,-10,-3,-5,-15,-17,-11,-30,-17
-14,-14,4,19,-10,-4,-6,-16,-18,-12,-31,-17
-13,-14,3,19,-9,-5,-8,-17,-19,-13,-32,-18
-14,-13,5,18,-10,-3,-9,-18,-20,-14,-32,-18
-14,-11,7,17,-11,-1,-11,-19,-21,-15,-33,-18
-15,-10,8,17,-13,0,-12,-20,-22,-15,-33,-18
-15,-8,10,16,-14,3,-13,-21,-23,-16,-33,-17
-16,-6,12,16,-15,4,-15,-22,-24,-17,-33,-17
-18,-5,15,17,-18,7,-16,-24,-26,-18,-34,-17
-19,-4,17,17,-20,9,-19,-25,-27,-19,-34,-17
-20,-2,20,17,-22,12,-20,-26,-28,-20,-35,-17
-20,-1,21,16,-22,13,-22,-28,-29,-21,-35,-17
-19,1,22,14,-22,15,-24,-29,-31,-22,-36,-16
-18,4,23,12,-22,16,-26,-31,-32,-23,-36,-16
-18,6,24,11,-22,18,-28,-33,-33,-24,-36,-15
-18,6,24,11,-23,18,-30,-34,-34,-25,-37,-15
-19,7,25,11,-24,20,-31,-36,-36,-26,-37,-15
-18,8,26,10,-24,21,-33,-37,-37,-27,-38,-15
-19,9,28,10,-25,22,-35,-39,-38,-28,-38,-14
-19,10,29,9,-26,24,-36,-39,-39,-29,-38,-14
-20,11,31,10,-27,25,-37,-40,-40,-29,-38,-13
-20,12,31,9,-28,27,-38,-41,-40,-30,-38,-12
-20,15,33,7,-28,29,-39,-42,-41,-30,-38,-11
-21,15,34,8,-30,29,-40,-42,-41,-31,-38,-10
-21,16,35,8,-30,30,-40,-42,-41,-31,-38,-10
-22,16,36,8,-31,31,-41,-42,-41,-31,-38,-9
-22,17,37,7,-31,32,-42,-42,-41,-31,-38,-8
-19,18,35,5,-29,31,-42,-42,-40,-31,-37,-8
-18,19,34,3,-28,31,-42,-41,-40,-30,-37,-7
-16,20,33,1,-26,31,-42,-40,-39,-30,-36,-7
-14,21,32,-1,-25,31,-42,-39,-38,-30,-36,-6
-12,20,29,-2,-22,29,-42,-38,-37,-29,-34,-5
-9,20,25,-4,-18,27,-41,-36,-35,-27,-33,-5
-6,19,22,-6,-15,24,-40,-35,-34,-26,-32,-4
-3,19,18,-8,-11,22,-40,-33,-32,-25,-30,-3
-1,18,15,-9,-8,18,-38,-31,-30,-23,-29,-2
2,18,12,-11,-5,17,-37,-29,-28,-21,-27,-2
5,18,8,-14,-1,15,-35,-26,-26,-20,-25,-1
8,18,6,-16,1,13,-33,-24,-23,-17,-23,0
8,16,3,-15,4,10,-31,-21,-21,-15,-22,1
10,15,1,-16,6,8,-29,-18,-18,-13,-20,2
11,12,-2,-15,7,5,-27,-16,-16,-11,-17,3
11,11,-4,-15,9,4,-25,-13,-13,-8,-15,4
12,11,-5,-16,10,3,-22,-10,-10,-6,-13,5
13,11,-5,-16,11,3,-19,-8,-8,-4,-11,5
14,11,-6,-17,12,2,-16,-5,-6,-2,-9,6
14,11,-6,-17,12,2,-13,-3,-3,0,-7,7
13,8,-8,-15,12,-1,-11,-1,-2,2,-6,7
12,6,-9,-13,12,-2,-8,1,0,4,-5,7
12,4,-11,-11,13,-4,-6,2,1,5,-3,7
12,1,-12,-10,13,-6,-3,4,3,7,-2,7
11,0,-12,-8,13,-7,-2,5,4,9,-1,7
9,-1,-11,-6,11,-7,1,6,5,10,0,7
8,-2,-11,-5,11,-7,2,7,6,11,1,7
7,-3,-10,-3,9,-8,4,8,8,12,2,7
6,-5,-11,-1,9,-9,4,9,8,13,2,6
5,-6,-11,0,9,-9,6,9,8,13,2,5
4,-8,-11,1,8,-10,7,10,9,14,2,5
4,-8,-11,2,8,-11,9,11,10,14,3,4
4,-8,-11,2,8,-11,10,11,10,14,3,3
4,-8,-11,1,8,-10,11,11,10,14,3,3
4,-8,-11,1,8,-10,12,12,11,15,3,2
5,-6,-10,1,8,-9,13,12,11,15,4,2
5,-6,-10,1,8,-9,14,12,11,15,3,2
4,-6,-9,1,7,-9,16,12,11,15,3,1
4,-6,-9,1,7,-9,17,13,11,15,3,0
4,-5,-8,1,7,-8,19,13,12,15,3,0
4,-6,-9,1,7,-9,19,13,11,14,2,-0
4,-6,-9,1,7,-9,20,13,11,14,2,-1
4,-8,-10,2,7,-10,21,13,11,14,2,-2
4,-8,-10,2,7,-10,22,14,11,14,2,-2
3,-6,-8,2,6,-8,23,14,11,14,2,-2
2,-5,-6,2,5,-6,24,14,12,14,2,-2
1,-4,-5,2,3,-4,24,14,12,14,2,-2
-1,-3,-2,3,1,-3,25,14,12,14,2,-1
-1,-4,-2,4,0,-3,25,14,12,14,2,-2
-2,-5,-2,5,0,-4,25,14,12,14,2,-2
-3,-6,-2,6,-0,-4,25,14,12,14,1,-2
-5,-8,-1,8,-2,-4,26,15,12,14,1,-2
-5,-8,-1,8,-2,-4,25,14,12,14,1,-2
-5,-8,-1,8,-2,-4,25,14,12,14,1,-3
-5,-8,-1,8,-2,-4,25,14,12,13,0,-4
-4,-6,-1,7,-1,-4,25,14,12,13,0,-4
-3,-8,-3,7,0,-5,25,14,12,13,0,-4
-2,-8,-4,6,1,-6,25,15,12,13,0,-4
-1,-8,-5,6,2,-8,25,15,12,13,0,-5
-0,-8,-6,5,3,-8,26,15,12,13,0,-5
1,-8,-8,4,5,-9,25,15,11,12,-1,-5
3,-8,-10,3,7,-10,24,15,11,12,-1,-6
5,-8,-12,2,9,-11,24,14,11,11,-1,-7
6,-8,-12,0,10,-11,24,14,11,11,-2,-7
6,-8,-13,1,11,-13,24,14,11,11,-2,-7
5,-10,-13,2,10,-13,24,15,11,11,-2,-7
5,-11,-13,3,10,-13,24,15,11,11,-2,-7
4,-12,-13,4,9,-14,24,15,11,11,-2,-7
3,-13,-13,5,9,-15,24,15,11,10,-3,-8
2,-14,-13,7,9,-15,23,15,11,9,-3,-9
1,-15,-13,8,8,-16,22,14,10,9,-4,-9
0,-15,-12,9,7,-15,22,14,10,9,-4,-10
-1,-16,-12,10,6,-16,22,15,10,9,-4,-10
-1,-16,-12,11,6,-16,23,15,10,9,-4,-10
-2,-17,-12,12,5,-16,24,15,10,9,-4,-10
-3,-17,-11,12,4,-15,24,16,11,9,-3,-9
-2,-17,-12,12,5,-16,24,16,11,9,-3,-9
-1,-16,-12,11,6,-16,24,16,11,9,-3,-9
0,-15,-12,9,7,-15,24,16,11,9,-2,-8
1,-14,-12,8,7,-15,25,16,11,10,-2,-7
2,-14,-13,7,9,-15,24,16,11,10,-2,-8
3,-14,-14,6,9,-16,24,16,11,10,-2,-8
4,-14,-15,6,10,-17,24,15,11,10,-2,-8
5,-13,-15,4,11,-16,24,15,11,10,-2,-8
5,-13,-15,4,11,-16,24,15,11,10,-2,-8
5,-12,-15,3,11,-15,24,15,11,10,-1,-7
5,-12,-15,3,11,-15,24,15,11,10,-1,-7
5,-11,-14,2,11,-14,24,15,11,11,-1,-7
5,-11,-14,2,11,-14,23,14,11,11,-1,-7
5,-11,-13,3,10,-13,22,14,11,11,-1,-7
5,-11,-13,3,10,-13,21,14,11,11,-1,-7
4,-11,-12,4,9,-13,21,14,11,11,-1,-6
4,-11,-12,4,9,-13,21,14,11,11,0,-5
4,-10,-12,3,9,-12,21,15,12,11,0,-4
4,-8,-11,2,8,-11,21,15,12,12,1,-4
4,-8,-10,2,7,-10,22,15,12,12,2,-2
4,-8,-10,2,7,-10,22,15,12,12,2,-2
4,-8,-10,2,7,-10,22,15,13,13,2,-2
4,-8,-10,2,7,-10,22,15,13,13,2,-2
3,-8,-9,3,6,-9,23,15,13,13,3,-2
3,-8,-10,3,7,-10,22,15,13,13,3,-3
2,-10,-10,4,7,-11,22,15,13,13,3,-3
2,-11,-11,5,7,-12,22,14,12,13,3,-4
1,-12,-11,6,6,-13,22,14,12,13,3,-4
0,-13,-11,7,6,-13,22,14,12,13,3,-4
0,-13,-11,7,6,-13,22,14,12,13,3,-4
0,-13,-11,7,6,-13,22,14,12,13,3,-4
0,-13,-11,7,6,-13,23,14,12,13,4,-3
1,-13,-12,7,7,-13,22,13,12,13,4,-3
1,-13,-12,7,7,-13,22,13,12,13,4,-3
1,-13,-12,7,7,-13,21,13,12,13,4,-3
2,-12,-12,6,7,-13,21,13,12,13,5,-2
2,-12,-12,6,7,-13,21,13,12,13,5,-2
2,-11,-11,5,7,-12,21,13,12,13,5,-2
3,-10,-11,4,7,-11,21,13,12,13,5,-2
3,-8,-10,3,7,-10,21,13,13,13,6,-2
5,-6,-10,1,8,-9,20,12,13,13,6,-2
5,-4,-9,-2,8,-7,20,12,13,14,6,-1
6,-2,-8,-4,8,-6,20,12,13,14,6,-1
8,1,-7,-6,9,-4,20,12,13,14,7,-0
8,1,-7,-6,9,-4,19,12,13,14,7,-1
7,1,-6,-6,8,-3,19,12,13,14,7,-1
7,1,-6,-6,8,-3,19,12,13,13,7,-1
7,2,-5,-6,7,-2,19,12,13,13,7,-1
7,1,-6,-6,8,-3,18,12,12,13,7,-2
6,0,-6,-4,7,-4,17,12,12,13,7,-2
6,-1,-7,-4,7,-4,17,12,12,13,7,-2
6,-1,-7,-4,7,-4,16,12,12,13,8,-2
5,-3,-8,-2,7,-6,15,12,12,12,8,-2
5,-4,-9,-2,8,-7,14,12,12,12,8,-2
5,-5,-10,-1,9,-9,14,12,12,12,8,-2
5,-6,-10,1,8,-9,14,12,12,12,8,-2
4,-8,-11,1,8,-10,13,12,12,12,8,-2
4,-8,-11,1,8,-10,13,12,12,12,8,-2
5,-8,-12,2,9,-11,12,11,11,11,8,-2
5,-8,-12,2,9,-11,12,11,11,11,9,-2
5,-8,-12,2,9,-11,12,11,11,11,9,-2
4,-8,-11,2,8,-11,13,12,12,12,9,-2
3,-8,-10,3,7,-10,14,12,12,12,10,-2
3,-8,-9,3,6,-9,14,12,12,13,10,-1
3,-10,-11,4,7,-11,14,12,12,12,9,-2
2,-12,-12,6,7,-13,14,12,12,11,9,-3
1,-14,-12,8,7,-15,14,11,11,11,8,-4
1,-15,-13,8,8,-16,14,11,11,11,8,-4
1,-16,-14,9,8,-17,14,11,11,10,8,-5
2,-16,-15,8,9,-18,14,11,12,10,8,-5
2,-17,-16,9,10,-18,14,11,12,10,8,-5
3,-17,-17,8,11,-19,15,11,12,10,9,-5
3,-17,-17,8,11,-19,15,11,12,10,9,-5
4,-16,-17,7,11,-19,15,11,12,10,9,-5
4,-16,-17,7,11,-19,15,11,12,10,9,-5
5,-15,-17,5,12,-18,16,11,12,10,9,-4
4,-15,-16,6,11,-18,16,11,12,10,9,-4
3,-15,-15,7,10,-17,16,11,12,10,10,-4
2,-15,-14,7,9,-16,16,11,12,10,10,-4
1,-15,-13,8,8,-16,16,11,12,10,11,-4
2,-15,-14,7,9,-16,16,11,12,10,11,-4
3,-14,-14,6,9,-16,16,11,12,10,11,-4
3,-14,-14,6,9,-16,16,11,12,10,12,-4
4,-13,-14,5,10,-15,17,11,12,11,12,-3
4,-14,-15,6,10,-17,16,11,12,10,12,-4
3,-15,-15,7,10,-17,16,11,12,10,11,-4
3,-16,-16,8,10,-18,16,11,12,10,11,-4
2,-17,-16,9,10,-18,16,11,12,10,11,-4
3,-17,-17,8,11,-19,16,11,11,10,11,-5
3,-17,-17,8,11,-19,16,11,11,10,11,-5
4,-17,-18,7,12,-20,16,11,11,10,11,-5
4,-16,-18,6,12,-19,17,11,11,10,12,-5
3,-17,-17,8,11,-19,17,10,11,10,11,-5
1,-17,-15,9,9,-18,17,10,11,10,11,-5
-1,-19,-14,11,7,-18,17,10,11,10,11,-5
-2,-19,-12,13,6,-17,17,10,11,10,11,-5
-1,-17,-12,11,6,-17,17,10,11,10,11,-5
0,-15,-12,9,7,-15,17,10,11,10,11,-5
2,-13,-12,6,8,-14,17,10,11,10,11,-5
3,-11,-12,4,8,-13,17,11,12,10,12,-4
3,-10,-11,4,7,-11,17,11,12,10,12,-4
4,-8,-10,2,7,-10,17,11,12,10,12,-4
4,-6,-9,1,7,-9,17,11,12,10,12,-3
4,-4,-7,0,6,-6,18,11,12,11,13,-2
4,-4,-7,0,6,-6,18,11,12,11,13,-2
3,-4,-6,1,5,-6,19,11,12,11,13,-2
2,-4,-5,1,4,-5,19,11,12,11,13,-2
2,-3,-5,1,4,-4,19,11,12,11,13,-1
2,-4,-5,1,4,-5,19,10,11,11,13,-2
2,-4,-5,1,4,-5,19,10,11,11,13,-2
1,-5,-5,3,4,-6,19,10,11,11,13,-2
1,-5,-5,3,4,-6,19,10,11,11,14,-2
0,-6,-5,4,3,-6,18,10,11,11,13,-2
0,-6,-5,4,3,-6,18,10,11,11,13,-2
-1,-8,-5,5,3,-7,17,9,11,11,13,-2
-1,-8,-5,6,2,-7,17,9,11,11,13,-1
-1,-8,-5,5,3,-7,17,9,11,10,13,-2
0,-8,-6,4,4,-8,16,9,11,10,13,-2
1,-8,-7,4,4,-8,15,9,10,10,12,-3
3,-6,-8,2,6,-8,14,9,10,10,12,-3
3,-6,-8,2,6,-8,13,9,10,10,12,-3
3,-6,-8,2,6,-8,12,9,10,10,12,-3
3,-6,-8,2,6,-8,12,9,10,10,12,-3
3,-6,-8,2,6,-8,11,9,10,10,12,-3
3,-8,-9,3,6,-9,10,9,10,10,12,-3
3,-8,-9,3,6,-9,10,9,10,10,13,-2
4,-8,-10,2,7,-10,10,9,10,10,13,-2
4,-8,-10,2,7,-10,10,10,10,10,13,-2
3,-8,-10,3,7,-10,10,10,10,10,14,-2
3,-8,-10,3,7,-10,10,10,11,11,14,-1
3,-8,-10,3,7,-10,10,10,11,11,15,-0
3,-8,-10,3,7,-10,10,10,11,11,16,0
2,-10,-10,4,7,-11,10,10,11,11,16,0
1,-10,-9,5,6,-10,10,10,11,12,16,0
1,-10,-9,5,6,-10,10,10,11,12,16,0
0,-10,-8,6,5,-10,11,10,12,12,17,1
1,-11,-10,5,6,-11,11,10,11,12,17,0
2,-11,-11,5,7,-12,11,9,11,12,17,0
2,-12,-12,6,7,-13,11,9,11,11,17,-0
3,-12,-12,5,8,-13,11,9,11,11,17,-0
3,-13,-13,5,9,-15,11,9,11,11,17,-0
2,-14,-13,7,9,-15,12,9,11,11,18,-0
2,-15,-14,7,9,-16,12,9,11,11,18,-0
2,-15,-14,7,9,-16,13,9,12,12,18,0
2,-16,-15,8,9,-18,13,9,11,12,18,0
3,-16,-16,8,10,-18,13,9,11,12,18,0
3,-17,-17,8,11,-19,13,9,11,12,18,0
4,-17,-18,7,12,-20,14,10,11,12,19,0
3,-19,-18,9,11,-20,14,10,11,12,19,0
2,-19,-18,10,11,-21,14,10,11,12,19,0
1,-21,-18,11,10,-22,14,10,11,12,19,0
0,-21,-17,12,9,-21,14,10,12,12,20,0
-1,-23,-18,14,9,-23,14,10,11,11,19,-1
-1,-24,-18,15,9,-23,14,10,11,11,19,-2
-1,-25,-19,16,9,-25,14,10,11,11,18,-2
-2,-26,-19,17,9,-25,14,10,11,10,18,-3
-1,-25,-19,16,9,-25,14,10,11,10,18,-4
-1,-23,-18,14,9,-23,15,10,11,10,18,-4
-0,-22,-17,13,9,-22,16,10,11,10,18,-4
0,-19,-16,11,9,-20,17,10,11,10,18,-4
1,-19,-17,10,10,-20,17,10,11,10,18,-3
1,-19,-17,10,10,-20,17,10,11,11,19,-2
1,-19,-17,10,10,-20,18,10,12,11,19,-2
1,-19,-17,10,10,-20,19,11,12,11,20,-1
1,-19,-17,10,10,-20,19,11,12,12,21,-0
1,-19,-16,10,9,-19,19,11,13,12,21,0
1,-17,-15,9,9,-18,20,11,13,13,22,1
1,-16,-14,9,8,-17,21,12,13,13,23,2
1,-17,-15,9,9,-18,21,12,13,13,23,2
1,-19,-16,10,9,-19,21,12,13,14,24,2
1,-19,-17,10,10,-20,21,12,14,14,24,2
0,-21,-17,12,9,-21,21,12,14,14,25,2
1,-21,-18,11,10,-22,21,12,14,14,24,2
2,-19,-18,10,11,-21,21,12,14,14,24,2
2,-19,-18,10,11,-21,21,12,14,14,24,2
3,-19,-18,9,11,-20,21,12,14,14,24,2
3,-17,-17,8,11,-19,21,12,14,14,24,2
4,-15,-16,6,11,-18,21,12,14,14,24,2
4,-14,-15,6,10,-17,21,12,14,14,24,2
4,-12,-13,4,9,-14,21,12,14,14,24,2
4,-12,-13,4,9,-14,20,12,14,14,24,2
4,-11,-12,4,9,-13,20,12,14,14,24,2
4,-10,-12,3,9,-12,20,12,14,14,24,2
4,-8,-11,2,8,-11,20,12,14,14,25,2
3,-8,-10,3,7,-10,19,12,14,14,25,2
3,-8,-9,3,6,-9,19,12,14,14,25,3
3,-6,-8,2,6,-8,19,12,14,14,25,3
2,-5,-6,2,5,-6,19,12,14,14,26,3
2,-8,-9,4,6,-9,17,11,13,13,25,2
2,-11,-11,5,7,-12,15,10,13,12,24,1
2,-14,-13,7,9,-15,13,10,12,11,23,-0
2,-16,-15,8,9,-18,12,9,12,10,22,-1
2,-14,-13,7,9,-15,11,10,12,11,22,-2
2,-12,-12,6,7,-13,11,11,13,11,23,-2
2,-10,-10,4,7,-11,11,11,13,12,23,-2
2,-6,-7,2,5,-7,11,12,13,13,24,-2
9,-6,-15,-4,14,-13,4,9,12,11,22,-3
1,-25,-21,14,12,-26,4,10,13,13,27,3
1,-22,-19,12,11,-22,1,9,12,9,23,0
2,-1,-3,-1,3,-2,-4,8,11,8,22,-0
-10,-17,-3,18,-4,-10,3,9,13,13,27,2
-12,-13,2,17,-8,-5,2,10,14,13,27,5
4,-12,-14,4,10,-15,5,10,13,10,23,-2
12,-3,-16,-8,16,-11,6,11,13,11,23,-2
8,4,-6,-8,9,-2,4,9,13,10,23,-2
-0,-28,-22,17,12,-28,4,8,13,11,25,0
-9,-21,-7,19,-1,-15,14,14,17,16,29,5
-1,-14,-11,9,6,-14,10,11,15,14,29,5
4,-10,-12,3,9,-12,12,12,16,15,29,5
7,-13,-18,2,13,-18,11,12,15,14,28,3
-1,-11,-7,7,3,-10,15,14,17,15,30,5
6,-8,-12,0,10,-11,3,10,13,11,26,-1
27,-8,-35,-16,34,-26,-1,7,11,7,21,-7
17,-19,-33,-2,27,-30,9,10,13,11,26,-2
5,-17,-19,7,13,-20,10,11,14,12,28,2
10,-11,-19,-2,16,-18,14,11,14,11,27,-0
-12,-26,-8,24,-2,-18,21,15,18,17,31,6
-0,-15,-12,9,6,-15,19,13,16,14,30,3
21,-168,-156,79,95,-184,-5,-14,-57,-151,-155,-169
-6,22,24,-8,-15,27,1,12,37,53,73,44
-6,0,6,5,-6,4,2,13,28,36,53,23
10,7,-5,-11,9,0,7,13,24,29,49,20
27,6,-25,-24,29,-13,6,13,23,26,44,12
19,2,-19,-16,21,-10,6,13,21,22,39,7
23,11,-16,-24,22,-4,9,12,19,22,39,7
11,4,-9,-10,11,-4,12,12,16,17,36,5
-11,1,13,8,-13,9,16,11,12,11,29,2
-23,-22,8,30,-17,-6,10,4,5,8,28,3
-0,1,1,0,-0,2,15,7,6,8,28,6
9,12,-0,-14,6,6,12,4,5,6,26,5
-21,-5,18,19,-21,9,13,1,0,2,27,10
-26,1,29,19,-30,19,12,-4,-7,-5,23,13
-24,12,36,12,-33,29,10,-10,-16,-17,16,10
-19,24,40,1,-31,38,1,-17,-25,-25,14,17
-25,29,50,3,-40,47,-9,-28,-36,-36,10,20
-8,58,54,-26,-33,64,-13,-35,-47,-46,5,25
-1,55,46,-30,-24,57,-17,-43,-57,-58,-3,27
-14,77,77,-32,-48,88,-26,-51,-66,-66,-9,28
-2,90,74,-49,-40,93,-30,-57,-73,-72,-15,30
-19,97,98,-40,-63,112,-40,-67,-86,-87,-28,25
-41,81,108,-15,-80,110,-47,-78,-100,-104,-40,24
-11,81,77,-37,-46,90,-60,-89,-114,-121,-52,20
18,92,54,-66,-18,81,-74,-99,-130,-136,-62,22
29,84,36,-69,-2,66,-78,-105,-137,-144,-63,29
36,95,37,-81,2,72,-78,-105,-138,-144,-58,47
65,90,1,-101,37,47,-91,-115,-146,-154,-61,53
67,95,3,-106,37,51,-108,-127,-152,-157,-54,76
76,125,17,-130,35,75,-130,-141,-157,-154,-42,105
106,151,6,-166,58,80,-148,-152,-163,-154,-36,123
116,168,8,-184,63,91,-158,-153,-160,-143,-20,148
105,217,60,-204,29,148,-162,-154,-156,-134,-16,154
94,224,77,-199,14,163,-170,-164,-161,-136,-27,143
98,216,66,-198,22,152,-179,-171,-166,-141,-42,126
81,219,87,-186,1,167,-184,-177,-172,-150,-59,103
30,230,151,-154,-62,213,-180,-187,-182,-154,-77,78
-2,206,167,-115,-89,211,-202,-204,-200,-174,-106,37
-27,122,127,-48,-82,143,-194,-199,-198,-187,-135,-16
-40,58,89,-2,-70,86,-169,-179,-184,-190,-150,-53
-14,32,41,-7,-30,43,-156,-161,-166,-181,-145,-65
-1,10,10,-5,-5,11,-150,-142,-149,-171,-138,-73
-8,-11,-0,12,-4,-5,-139,-121,-125,-147,-111,-59
-26,-25,8,34,-19,-8,-118,-101,-101,-119,-86,-52
-31,-31,10,42,-23,-9,-91,-75,-74,-93,-66,-49
-27,-52,-12,50,-9,-34,-69,-51,-52,-72,-49,-50
-20,-32,-4,34,-9,-18,-58,-35,-33,-51,-29,-38
-6,-10,-1,11,-3,-5,-54,-25,-22,-36,-20,-36
-3,-8,-4,7,0,-6,-41,-14,-10,-23,-10,-30
-22,-13,13,24,-19,2,-28,-5,1,-10,3,-17
-14,-27,-6,27,-4,-18,-22,0,6,-6,7,-17
4,-23,-23,10,15,-26,-24,-0,6,-7,4,-24
-4,-22,-13,15,5,-19,-16,3,10,-1,12,-16
-13,-14,3,19,-9,-5,-9,8,15,7,21,-9
-22,-8,17,21,-21,7,-2,9,17,9,22,-9
-8,-8,1,11,-5,-3,-4,11,18,11,23,-9
-6,-19,-9,15,2,-15,4,15,21,14,26,-7
-9,-33,-16,26,3,-27,4,15,21,14,25,-9
-8,-27,-13,22,3,-22,3,14,20,12,21,-15
-1,-10,-7,6,4,-9,15,17,23,16,27,-5
-1,-5,-4,4,2,-5,9,14,20,11,23,-8
3,0,-3,-2,3,-1,9,15,21,13,26,-5
-22,-10,16,22,-20,5,12,15,23,16,30,2
-22,-21,7,29,-16,-6,7,15,21,17,30,-1
-15,-15,4,20,-10,-5,10,14,21,15,27,-6
-5,-23,-13,17,5,-20,10,16,22,16,28,-6
-13,-27,-8,26,-3,-19,15,18,23,18,30,-4
9,7,-5,-11,8,1,10,15,20,15,27,-9
1,-5,-5,3,4,-6,17,18,23,19,30,-3
-9,-16,-4,16,-3,-10,14,16,21,16,27,-6
-7,-17,-6,15,-0,-13,14,15,21,15,26,-7
-5,-17,-8,14,1,-14,14,15,20,14,26,-7
-4,-17,-10,13,3,-15,14,15,20,14,25,-8
-2,-17,-12,12,5,-16,14,14,19,13,24,-9
-5,-19,-10,14,3,-16,14,15,19,14,25,-9
-6,-19,-8,16,1,-14,15,15,20,14,25,-8
-8,-19,-6,17,-1,-13,16,15,20,15,26,-7
-9,-19,-5,18,-3,-12,17,16,20,16,26,-7
-9,-17,-4,17,-3,-11,17,16,20,16,26,-7
-10,-16,-2,18,-5,-9,17,16,20,16,27,-6
-11,-15,-0,17,-6,-8,17,15,20,16,27,-6
-11,-13,1,16,-7,-5,18,15,20,16,27,-5
-10,-12,1,15,-6,-5,17,15,19,16,27,-5
-9,-10,2,13,-6,-3,17,15,19,17,27,-5
-8,-8,2,12,-6,-3,17,15,19,17,27,-5
-8,-6,3,10,-6,-1,17,15,19,17,27,-5
-7,-6,2,9,-5,-1,17,15,19,17,27,-5
-7,-6,2,9,-5,-1,17,15,19,18,27,-5
-6,-6,1,8,-4,-2,17,15,19,18,27,-5
-5,-5,1,7,-3,-2,17,15,19,18,27,-4
-4,-6,-0,7,-2,-3,17,15,19,18,27,-4
-3,-6,-2,6,-0,-4,17,15,20,19,27,-4
-2,-8,-4,6,1,-6,17,15,20,19,27,-4
-1,-8,-5,6,2,-7,18,15,20,19,28,-4
-2,-10,-5,8,2,-8,17,15,21,19,28,-4
-4,-12,-5,10,1,-9,17,16,21,20,28,-4
-6,-14,-5,13,0,-10,17,16,21,20,29,-4
-6,-15,-5,14,-0,-11,17,16,21,21,29,-4
-6,-15,-5,14,-0,-11,15,17,22,21,30,-4
-6,-14,-5,13,0,-10,14,17,22,22,30,-4
-6,-14,-5,13,0,-10,14,17,23,22,31,-3
-5,-13,-5,12,-0,-9,13,18,23,23,31,-2
-6,-12,-4,11,-1,-8,12,18,24,24,32,-2
-5,-11,-3,10,-1,-7,11,18,24,24,32,-1
-6,-10,-2,10,-2,-6,10,19,25,25,33,-0
-5,-8,-1,8,-2,-4,10,19,25,26,34,1
-2,-5,-2,5,0,-4,9,19,26,27,35,1
1,-2,-3,1,3,-2,9,20,27,28,36,2
3,0,-4,-2,4,-2,9,21,27,29,36,2
6,4,-4,-6,6,0,9,21,28,30,38,3
6,2,-5,-6,6,-1,9,21,29,30,38,3
5,1,-5,-5,6,-2,9,22,29,31,39,3
5,0,-5,-4,6,-3,9,22,30,31,39,3
4,-1,-5,-3,6,-4,9,22,30,32,40,3
5,-1,-6,-3,7,-4,9,22,31,33,40,3
5,-1,-6,-3,7,-4,10,23,32,34,41,3
5,-1,-6,-3,7,-4,10,23,32,36,42,3
5,-1,-6,-3,7,-4,11,24,33,37,43,4
4,-2,-5,-2,5,-4,11,24,34,38,44,4
3,-2,-5,-1,4,-4,12,25,35,40,46,5
2,-2,-4,0,3,-3,12,26,36,41,47,5
0,-2,-2,1,1,-2,12,26,37,43,48,6
0,-1,-1,1,1,-1,12,27,37,44,49,6
-1,0,1,1,-0,0,13,27,38,46,50,7
-1,1,2,1,-1,2,14,28,39,47,51,7
-2,2,4,1,-3,4,14,29,40,49,53,8
-1,4,4,-2,-2,5,14,29,41,50,54,8
2,8,4,-6,-1,7,14,30,42,52,55,9
4,10,4,-8,0,8,14,31,43,53,56,10
6,13,4,-12,1,10,15,32,44,55,57,10
6,15,5,-13,1,11,15,32,44,56,58,10
7,17,6,-15,1,13,15,32,45,56,58,10
7,18,7,-15,1,13,15,32,45,57,59,10
7,20,8,-16,0,16,15,33,46,59,59,10
8,23,10,-20,0,18,15,33,46,59,60,11
9,27,11,-22,-0,21,15,33,47,60,60,12
10,30,13,-25,-1,24,15,33,47,61,61,12
11,33,15,-27,-1,27,15,33,47,62,62,13
9,35,17,-27,-3,29,14,32,47,62,61,13
8,35,20,-26,-6,31,13,32,47,62,61,13
6,37,23,-25,-8,33,12,32,46,62,61,13
4,38,25,-24,-10,36,12,31,46,62,61,13
3,37,26,-23,-12,36,10,30,45,61,60,12
1,37,28,-22,-13,37,9,29,44,61,59,12
-1,35,30,-19,-16,37,7,28,43,60,59,12
-3,35,31,-18,-18,38,7,27,42,59,58,12
-4,35,31,-17,-18,38,5,26,41,58,56,12
-5,35,32,-16,-19,38,4,26,40,56,55,12
-5,35,32,-16,-19,38,4,25,39,55,54,12
-5,35,33,-15,-20,39,3,24,38,54,53,12
-5,35,33,-15,-20,39,3,23,36,52,51,11
-5,35,33,-15,-20,39,2,22,34,50,49,10
-5,35,33,-15,-20,39,1,20,33,48,47,10
-5,35,33,-15,-20,39,1,19,31,46,46,10
-4,35,32,-17,-19,39,1,18,30,44,44,9
-2,38,32,-19,-18,40,1,18,29,42,42,9
-1,39,32,-21,-18,40,1,17,27,40,40,8
0,41,32,-23,-16,42,1,17,26,38,39,8
1,40,31,-23,-15,40,1,16,24,36,37,7
3,40,29,-24,-13,39,1,15,23,34,36,7
4,39,27,-25,-12,37,-0,14,21,31,34,6
5,39,26,-25,-11,37,-0,13,20,29,32,5
4,35,24,-23,-10,34,-0,13,19,27,31,5
3,32,23,-20,-10,31,-0,13,18,26,30,5
2,29,21,-18,-9,28,-0,12,17,24,29,5
2,27,19,-16,-9,26,1,12,16,22,28,6
3,23,16,-15,-6,22,-0,12,16,21,27,6
4,21,13,-15,-4,19,-0,12,15,20,27,6
4,18,10,-13,-3,16,-1,11,14,19,26,6
4,16,8,-12,-1,13,-1,11,14,17,26,7
5,15,6,-12,0,12,-1,11,13,16,25,7
5,13,5,-11,1,10,-0,11,13,16,25,7
6,12,3,-12,2,9,1,11,13,15,25,8
6,11,2,-11,3,8,1,11,13,15,25,8
6,10,1,-10,3,6,1,11,12,14,24,8
6,10,1,-10,3,6,2,11,12,13,24,8
7,10,1,-11,4,6,2,10,11,12,23,7
7,10,1,-11,4,6,3,10,11,11,23,7
7,8,-1,-10,5,4,3,10,11,11,22,7
7,7,-2,-9,5,3,4,10,10,10,21,6
7,6,-3,-8,6,1,4,10,10,10,21,5
7,4,-4,-7,6,0,6,10,10,9,21,5
6,2,-5,-6,6,-1,7,9,10,9,20,4
6,1,-5,-5,7,-2,7,9,9,8,19,3
5,-1,-6,-3,7,-4,8,9,9,8,19,3
5,-2,-7,-3,7,-5,9,9,9,7,18,2
4,-4,-7,0,6,-6,10,10,9,7,18,2
3,-5,-7,1,6,-7,12,10,10,8,18,2
1,-8,-7,4,4,-8,13,10,10,8,18,2
-0,-8,-6,5,3,-8,14,11,10,8,19,2
-0,-8,-6,5,3,-8,15,11,11,8,19,2
-1,-8,-5,6,2,-8,16,11,11,9,19,3
-1,-8,-5,6,2,-8,17,12,11,9,19,3
-2,-8,-5,7,1,-7,18,12,12,9,19,3
-1,-8,-5,6,2,-8,18,12,12,9,19,3
-1,-8,-5,5,3,-7,19,12,12,9,19,3
0,-8,-6,4,4,-8,19,12,12,9,19,3
1,-6,-6,3,4,-7,20,12,12,9,19,3
4,-6,-9,1,7,-9,20,12,12,8,18,2
5,-6,-11,0,9,-9,20,12,12,8,18,2
7,-6,-12,-2,11,-11,20,12,11,7,17,1
9,-5,-14,-4,13,-11,20,12,11,7,16,0
8,-8,-14,-1,12,-13,20,12,11,6,15,-0
6,-8,-13,1,11,-13,20,12,11,6,15,-1
4,-11,-12,4,9,-13,20,11,10,6,14,-2
2,-12,-12,6,7,-13,20,11,10,5,13,-2
0,-13,-11,7,6,-13,20,11,10,5,13,-2
-1,-13,-9,9,4,-12,21,12,10,5,13,-2
-2,-13,-8,9,3,-12,21,12,10,5,12,-2
-4,-13,-6,10,1,-10,21,12,10,5,12,-2
-6,-14,-5,13,0,-10,21,12,10,5,12,-2
-6,-14,-5,13,-1,-10,21,12,10,5,12,-2
-8,-15,-4,15,-2,-10,20,12,10,5,11,-2
-8,-15,-3,15,-3,-9,20,12,10,5,11,-2
-6,-14,-5,13,-1,-10,19,12,10,4,11,-2
-5,-13,-5,11,0,-10,19,12,10,4,10,-2
-3,-12,-6,9,2,-10,18,12,10,4,10,-3
-1,-11,-7,7,3,-10,18,12,10,4,10,-3
-1,-12,-9,8,4,-12,17,12,10,4,9,-4
-0,-13,-10,8,5,-13,16,11,9,3,9,-4
0,-14,-12,8,7,-14,15,11,9,3,8,-5
0,-15,-12,9,7,-15,14,11,9,3,8,-5
1,-15,-13,8,8,-16,14,11,9,3,8,-5
2,-14,-13,7,9,-15,14,11,9,3,8,-5
3,-13,-13,5,9,-15,13,11,9,3,8,-5
4,-12,-13,4,9,-14,13,11,9,3,8,-4
2,-13,-12,6,8,-14,12,11,9,3,8,-4
0,-13,-11,7,6,-13,12,11,9,3,8,-4
-1,-14,-10,9,5,-13,11,11,9,3,8,-4
-3,-14,-8,11,3,-12,11,11,9,3,8,-4
-3,-13,-7,10,2,-11,10,11,9,3,8,-4
-3,-12,-6,9,2,-10,10,11,9,3,8,-4
-3,-11,-5,9,1,-9,10,11,9,3,8,-4
-2,-8,-5,7,1,-7,10,11,9,4,8,-4
-1,-8,-5,6,2,-8,9,10,9,4,8,-4
0,-8,-6,4,4,-8,9,10,9,4,8,-4
1,-8,-7,4,4,-8,8,10,9,4,8,-4
3,-6,-8,2,6,-8,8,10,9,4,8,-4
4,-8,-10,2,7,-10,7,10,9,4,7,-4
4,-8,-11,1,8,-10,7,10,9,4,7,-4
5,-8,-12,1,9,-11,7,10,9,4,7,-5
6,-8,-12,0,10,-11,7,10,9,4,7,-5
5,-8,-12,2,9,-11,7,10,9,4,7,-4
4,-8,-11,2,8,-11,7,10,9,4,8,-4
3,-8,-10,3,7,-10,7,10,9,4,8,-3
2,-8,-9,4,6,-9,8,10,9,5,8,-2
1,-8,-8,4,5,-9,8,10,9,5,8,-2
0,-8,-6,4,4,-8,8,10,9,5,9,-1
-1,-8,-5,6,2,-7,8,10,9,6,9,-1
-2,-6,-3,5,1,-5,9,10,10,6,9,-0
-2,-5,-2,5,0,-4,9,10,10,6,10,0
-2,-3,-0,4,-1,-2,10,10,10,7,10,1
-1,-1,1,2,-1,0,10,10,10,7,11,2
-1,1,2,1,-1,2,11,10,10,8,12,2
-1,0,1,1,-1,1,11,10,10,7,12,2
-1,0,1,1,-0,0,11,9,10,7,12,2
-0,-1,-0,1,0,-0,11,9,10,7,12,2
0,-1,-1,1,1,-1,11,9,10,7,12,3
1,-1,-2,0,2,-1,11,9,10,7,12,3
1,-1,-2,0,2,-1,11,9,10,7,12,3
1,-1,-2,0,2,-1,11,9,10,7,12,3
1,-1,-2,0,2,-1,12,9,10,7,12,3
0,-3,-3,2,2,-3,12,9,10,6,12,2
-1,-5,-4,4,2,-5,12,9,10,6,12,2
-1,-8,-5,6,2,-7,12,9,9,6,12,2
-2,-8,-5,7,1,-7,12,9,9,6,12,2
-2,-10,-5,8,2,-8,12,8,9,5,11,1
-2,-10,-5,8,2,-8,12,8,9,5,11,1
-1,-10,-6,7,3,-9,12,8,9,4,10,1
-1,-10,-6,7,3,-9,13,8,9,4,10,1
-3,-12,-6,9,2,-10,13,8,8,4,10,1
-4,-13,-6,10,1,-10,13,8,8,4,10,1
-5,-14,-6,12,1,-11,13,8,8,4,10,1
-5,-15,-6,13,1,-12,14,8,8,4,10,1
-4,-14,-7,11,2,-12,14,8,8,3,10,1
-2,-13,-8,9,3,-12,14,8,8,3,10,1
-1,-12,-9,8,4,-12,14,7,8,3,10,1
1,-10,-9,5,6,-10,14,7,8,3,10,1
1,-10,-9,5,6,-10,13,7,7,3,10,1
0,-10,-8,6,5,-10,13,7,7,3,10,1
-1,-10,-7,6,4,-9,12,7,7,3,10,1
-1,-10,-6,7,3,-9,12,7,7,3,10,2
0,-10,-8,6,5,-10,12,7,7,2,10,2
2,-8,-9,4,6,-9,11,7,7,2,10,2
4,-8,-10,2,7,-10,10,7,7,2,10,2
5,-6,-11,0,9,-9,10,7,7,2,10,2
4,-8,-11,1,8,-10,10,7,7,2,10,2
4,-8,-11,2,8,-11,10,7,7,2,10,2
3,-10,-11,4,7,-11,10,7,7,2,10,2
2,-10,-10,4,7,-11,10,7,7,3,10,3
1,-11,-10,5,6,-11,10,7,7,2,10,3
0,-11,-9,6,5,-11,10,7,7,2,10,3
-0,-11,-8,7,4,-10,10,7,7,2,10,3
-1,-11,-7,7,3,-10,10,7,7,2,10,3
-2,-11,-6,8,3,-9,10,7,7,2,10,3
-3,-10,-5,8,1,-8,10,7,7,2,10,3
-3,-8,-4,7,0,-6,10,7,7,2,10,3
-4,-8,-2,8,-1,-5,10,7,7,2,10,3
-4,-8,-3,8,-0,-6,10,7,6,2,9,2
-4,-8,-3,8,-0,-6,10,7,6,2,9,2
-4,-8,-3,8,-0,-6,9,6,6,1,9,2
-4,-8,-3,8,-0,-6,9,6,6,1,9,2
-4,-10,-4,9,0,-7,9,6,6,1,8,1
-3,-10,-5,8,1,-8,9,6,6,1,8,1
-3,-11,-5,9,1,-9,9,6,6,1,8,1
-2,-11,-6,8,3,-9,9,6,6,1,8,1
-1,-11,-7,7,3,-10,9,6,6,1,8,1
-1,-10,-7,6,4,-9,9,6,6,1,8,1
-1,-10,-7,6,4,-9,9,6,6,1,8,1
0,-8,-7,5,4,-9,10,6,6,1,8,2
-1,-10,-7,6,4,-9,10,6,6,1,8,2
-1,-10,-7,6,4,-9,10,7,6,1,9,2
-1,-10,-7,6,4,-9,10,7,6,1,9,2
-1,-10,-7,6,4,-9,10,7,6,1,9,2
-1,-10,-7,6,4,-9,9,7,6,1,9,2
-1,-10,-7,6,4,-9,8,7,6,1,9,2
-1,-10,-7,6,4,-9,7,6,6,1,9,2
-1,-10,-6,7,3,-9,7,6,6,2,9,2
-2,-12,-7,9,3,-10,7,6,6,1,9,2
-3,-14,-8,11,3,-12,7,6,6,1,8,1
-4,-16,-9,13,3,-14,6,5,5,1,8,0
-4,-17,-10,13,3,-15,6,5,5,1,8,0
-5,-19,-10,14,3,-16,6,5,5,1,8,0
-6,-19,-9,15,2,-15,6,5,5,1,8,0
-6,-19,-9,15,2,-15,6,5,5,1,8,0
-6,-19,-8,16,1,-14,7,6,5,1,8,0
-6,-19,-8,16,1,-14,7,6,5,1,8,0
-5,-17,-8,14,1,-14,7,6,6,1,8,0
-5,-17,-8,14,1,-14,7,6,6,1,8,0
-5,-16,-8,13,2,-13,8,6,6,1,8,1
-5,-16,-8,13,2,-13,8,6,6,1,8,1
-4,-15,-8,12,3,-13,9,6,6,1,8,1
-3,-14,-8,11,3,-12,10,7,6,1,8,1
-3,-13,-7,10,2,-11,10,7,7,2,9,2
-2,-13,-8,9,3,-12,10,7,6,2,9,2
-1,-12,-8,8,4,-11,10,7,6,2,9,2
-1,-12,-9,8,4,-12,10,7,6,2,9,2
0,-11,-9,6,5,-11,11,7,6,2,9,2
0,-11,-9,6,5,-11,11,7,6,2,9,2
1,-10,-9,5,6,-10,12,7,6,2,9,2
2,-8,-9,4,6,-9,12,7,6,2,9,2
3,-8,-9,3,6,-9,12,7,7,2,10,2
0,-10,-8,6,5,-10,12,7,6,2,9,2
-1,-11,-7,7,3,-10,12,7,6,2,9,2
-4,-13,-6,10,1,-10,12,7,6,2,9,2
-6,-14,-5,13,-1,-10,12,7,6,2,9,2
-5,-13,-5,12,-0,-9,12,7,6,3,9,2
-6,-12,-4,11,-1,-8,12,7,7,3,10,3
-5,-11,-3,10,-1,-7,12,7,7,4,10,3
-5,-8,-2,9,-1,-5,12,7,7,4,11,4
-5,-8,-2,9,-1,-5,12,7,7,4,10,3
-4,-8,-2,8,-1,-5,11,7,7,4,10,3
-3,-6,-2,6,-0,-4,10,7,7,4,10,3
-2,-5,-2,5,0,-4,10,8,7,4,10,3
0,-4,-4,2,2,-4,10,8,7,4,10,3
2,-3,-5,1,4,-4,10,8,7,4,10,4
4,-2,-5,-2,5,-4,9,8,7,4,10,5
5,-1,-6,-3,7,-4,9,8,7,4,11,5
5,-3,-8,-2,7,-6,8,8,7,4,10,5
5,-5,-10,-1,9,-9,7,8,7,3,10,5
5,-8,-12,1,9,-11,7,8,6,3,10,4
5,-8,-12,1,10,-12,7,8,6,3,10,4
5,-10,-13,2,10,-13,6,7,6,2,9,3
5,-11,-14,2,11,-14,6,7,6,2,9,3
5,-12,-15,3,11,-15,6,7,6,2,9,3
5,-13,-16,4,12,-16,6,7,6,2,9,3
5,-13,-16,4,12,-16,7,7,6,2,9,3
5,-13,-16,4,12,-16,7,7,6,2,9,4
5,-13,-16,4,12,-16,8,7,6,2,9,4
5,-13,-15,4,11,-16,10,8,6,3,9,5
5,-13,-16,4,12,-16,9,7,6,2,9,4
5,-13,-16,4,12,-16,9,7,6,2,8,3
5,-13,-16,4,12,-16,9,7,5,2,8,3
6,-12,-16,3,12,-16,9,7,5,2,8,3
4,-14,-15,6,10,-17,9,7,5,2,8,3
1,-16,-14,9,8,-17,9,7,5,2,8,3
-1,-19,-13,12,7,-18,9,7,5,2,8,3
-4,-19,-12,14,4,-17,10,7,5,2,8,3
-5,-21,-12,16,4,-18,9,6,5,2,7,2
-5,-21,-12,16,4,-18,9,6,5,2,7,2
-5,-22,-12,17,3,-18,9,6,5,2,7,2
-5,-22,-12,17,3,-18,9,6,5,2,7,2
-6,-22,-11,17,2,-18,9,6,4,2,6,2
-7,-22,-10,18,1,-17,9,6,4,2,6,2
-8,-22,-9,19,0,-17,9,6,4,2,6,2
-9,-22,-7,20,-1,-15,9,6,4,2,6,2
-8,-22,-8,19,-0,-16,9,6,4,1,5,1
-7,-21,-9,18,1,-16,9,6,4,1,5,1
-5,-19,-10,15,3,-16,9,6,4,1,5,1
-5,-19,-10,14,3,-16,10,6,4,1,5,1
-5,-19,-10,14,3,-16,10,6,4,2,5,1
-5,-17,-9,14,2,-14,10,7,5,2,5,1
-5,-17,-8,14,1,-14,11,7,5,3,5,1
-6,-16,-7,14,1,-13,12,7,5,3,6,1
-5,-17,-9,14,2,-14,12,8,5,3,6,1
-4,-17,-10,13,3,-15,12,8,6,4,6,1
-3,-17,-11,12,4,-15,13,8,6,4,6,1
-2,-17,-12,12,5,-16,14,9,6,4,6,2
-2,-17,-12,12,5,-16,14,9,6,4,6,2
-2,-16,-11,11,4,-15,14,9,6,5,6,2
-2,-16,-11,11,4,-15,14,9,6,5,6,2
-2,-15,-10,10,4,-14,14,9,7,5,6,2
-2,-15,-10,10,4,-14,14,9,6,5,6,2
-2,-14,-9,10,4,-13,14,9,6,5,6,2
-1,-13,-9,9,4,-12,13,9,6,5,5,2
-1,-12,-8,8,4,-11,13,9,6,5,5,2
-2,-12,-7,9,3,-10,13,8,6,5,5,1
-2,-11,-6,8,3,-9,13,8,6,5,5,1
-3,-11,-5,9,1,-9,13,8,6,5,5,0
-3,-10,-5,8,1,-8,13,8,6,5,5,0
0,-8,-7,5,4,-9,12,8,6,5,5,0
3,-8,-9,3,6,-9,12,8,6,5,5,0
5,-6,-11,0,9,-9,11,8,6,5,4,0
8,-5,-12,-3,11,-10,10,8,6,5,4,1
7,-2,-9,-4,9,-6,11,9,7,6,5,2
5,1,-5,-5,6,-2,12,10,8,7,6,3
4,4,-0,-5,3,2,12,11,8,8,7,5
2,8,4,-6,-1,7,14,12,9,9,8,7
9,4,-7,-9,9,-2,12,12,10,9,9,8
-14,-25,-5,26,-6,-16,12,12,10,11,11,9
-15,-31,-8,29,-4,-21,14,12,10,9,8,5
-2,-15,-10,10,4,-14,7,9,7,6,5,0
6,-188,-156,102,87,-195,55,-4,-77,-120,-115,-107
-13,30,38,-7,-28,40,-7,12,32,51,54,50
7,14,3,-13,3,9,2,13,24,34,35,35
4,-7,-10,1,8,-9,-0,13,20,25,27,24
18,4,-16,-15,19,-8,5,16,21,25,25,24
28,10,-22,-27,28,-9,-1,14,17,17,17,12
21,10,-14,-21,20,-4,3,14,16,18,18,14
14,10,-7,-17,13,1,3,12,11,14,13,12
18,10,-12,-20,17,-2,4,8,4,4,5,5
17,1,-17,-13,19,-10,-3,2,-3,-3,-1,-2
-4,-6,-1,7,-1,-4,-2,2,-4,-4,-1,2
-9,-1,9,8,-9,5,3,2,-5,-4,-1,4
-17,-2,17,15,-18,9,12,2,-7,-6,0,12
-23,-12,15,24,-21,4,3,-4,-16,-17,-8,8
-8,0,8,6,-8,6,-4,-13,-26,-30,-16,6
1,4,2,-3,0,3,-13,-21,-37,-43,-25,4
-21,-10,15,22,-19,4,-19,-31,-51,-56,-32,6
-40,-14,32,39,-39,13,-29,-42,-64,-70,-40,6
-27,-11,21,27,-26,8,-32,-52,-77,-87,-51,5
7,4,-5,-7,7,-1,-47,-64,-93,-105,-66,-4
17,22,-1,-26,11,11,-65,-80,-109,-120,-75,-4
2,12,8,-8,-3,12,-82,-98,-128,-139,-90,-6
-9,-5,6,11,-8,1,-101,-121,-153,-165,-110,-13
-9,-12,0,14,-5,-6,-123,-144,-177,-189,-131,-22
-9,-12,1,14,-6,-5,-135,-160,-198,-210,-147,-28
13,16,-2,-19,9,7,-143,-174,-213,-225,-160,-29
-5,16,18,-5,-12,20,-150,-191,-231,-241,-174,-30
-18,12,30,7,-26,25,-169,-214,-252,-257,-191,-40
-32,7,40,21,-39,29,-180,-232,-269,-270,-204,-46
-40,23,62,18,-55,51,-198,-254,-287,-282,-217,-52
-53,31,82,23,-73,68,-217,-268,-300,-293,-228,-55
-54,34,85,23,-76,71,-228,-278,-308,-299,-237,-62
-57,50,101,16,-86,90,-222,-281,-308,-297,-242,-70
-73,62,128,21,-109,113,-238,-294,-315,-298,-248,-75
-81,61,137,28,-119,118,-248,-304,-318,-293,-245,-73
-80,68,141,24,-120,124,-253,-313,-325,-299,-249,-74
-99,68,161,38,-142,137,-275,-331,-336,-307,-249,-70
-98,66,158,38,-139,134,-312,-349,-348,-314,-248,-64
-96,53,146,44,-132,120,-321,-347,-346,-314,-248,-63
-80,26,107,47,-102,81,-324,-342,-340,-316,-249,-68
-76,-14,71,67,-81,38,-316,-324,-324,-311,-244,-66
-59,-22,47,58,-58,18,-329,-314,-314,-309,-241,-65
-46,-53,7,65,-30,-22,-343,-308,-304,-311,-241,-67
-33,-93,-39,78,2,-72,-345,-293,-289,-304,-236,-65
-20,-130,-82,89,33,-118,-336,-274,-271,-297,-230,-65
2,-138,-112,77,61,-141,-331,-257,-254,-286,-224,-65
16,-142,-131,68,79,-155,-318,-237,-235,-273,-217,-65
44,-136,-155,43,108,-167,-304,-220,-218,-260,-207,-62
39,-172,-179,68,117,-201,-283,-201,-201,-250,-202,-68
59,-168,-198,50,139,-211,-264,-187,-189,-243,-196,-69
61,-191,-219,61,152,-236,-261,-179,-181,-237,-193,-72
81,-200,-247,51,178,-259,-248,-168,-169,-227,-184,-67
72,-218,-252,68,175,-271,-238,-161,-162,-223,-181,-72
77,-188,-233,47,168,-243,-233,-150,-150,-205,-167,-59
78,-180,-228,42,166,-236,-214,-138,-136,-188,-151,-47
88,-169,-230,28,172,-232,-209,-128,-124,-171,-137,-40
107,-149,-235,3,186,-225,-195,-114,-108,-152,-120,-29
124,-139,-244,-16,201,-226,-193,-104,-97,-138,-107,-21
118,-132,-233,-15,191,-215,-179,-91,-86,-124,-96,-18
129,-82,-206,-52,183,-172,-161,-75,-70,-106,-81,-9
125,-81,-201,-50,179,-169,-149,-61,-57,-92,-68,-2
128,-81,-203,-52,181,-170,-135,-52,-47,-79,-59,2
123,-78,-195,-50,174,-163,-120,-43,-39,-71,-55,-1
123,-74,-192,-52,172,-159,-118,-39,-36,-66,-53,-6
102,-79,-174,-33,151,-151,-100,-30,-27,-55,-47,-9
81,-81,-153,-16,128,-138,-87,-21,-19,-44,-40,-12
61,-45,-102,-21,89,-87,-58,-6,-5,-25,-23,2
70,-30,-99,-36,92,-78,-51,1,2,-13,-13,7
62,-18,-81,-37,79,-60,-36,9,10,-3,-6,4
58,-23,-81,-31,77,-63,-27,12,13,3,-3,2
36,-2,-40,-26,42,-26,-13,19,20,13,4,3
31,14,-22,-31,30,-7,-5,22,23,17,7,2
8,-13,-19,1,15,-18,12,31,30,26,14,7
14,6,-11,-14,14,-4,17,32,32,30,18,10
17,-4,-22,-11,22,-16,19,33,33,29,16,5
-3,-4,-0,5,-1,-2,20,33,32,29,14,4
-2,-3,-0,4,-1,-2,19,33,32,28,13,1
-8,-8,3,11,-6,-2,19,33,31,31,14,2
-17,-12,9,20,-14,-0,27,36,34,32,16,2
-9,-16,-3,17,-4,-10,23,33,32,30,14,-2
-8,-6,4,10,-7,-0,26,34,33,32,17,3
5,-7,-11,1,9,-10,25,34,33,31,16,1
-2,-1,2,3,-2,1,27,34,33,30,15,-2
-5,-1,4,4,-4,2,21,33,32,30,16,1
-20,-18,8,26,-15,-4,26,33,34,32,18,3
-18,-16,7,24,-14,-4,28,35,34,32,16,1
-24,-8,19,23,-24,9,31,35,35,33,18,2
-30,-8,26,27,-31,13,26,33,32,32,15,-1
-24,-6,21,22,-25,10,28,33,32,32,16,-2
-18,-4,17,17,-19,9,30,34,33,33,16,-2
-13,-3,12,12,-14,6,33,35,33,34,17,-2
-8,-1,8,7,-8,4,35,35,34,34,17,-2
-9,-2,8,8,-9,4,34,35,34,34,17,-2
-9,-3,8,9,-9,4,33,36,35,35,17,-1
-10,-4,8,11,-10,3,33,36,35,35,17,-1
-12,-5,9,13,-11,3,33,36,35,35,18,-1
-12,-5,8,12,-11,3,33,36,36,36,18,-1
-12,-5,8,12,-11,3,34,37,37,37,19,0
-12,-5,8,12,-11,3,35,38,38,38,19,0
-12,-4,10,12,-12,4,36,39,38,39,20,1
-13,-4,11,12,-13,5,37,39,39,40,21,1
-13,-3,11,12,-13,6,38,40,40,42,21,1
-14,-3,12,13,-14,6,40,41,41,43,22,1
-13,-2,13,12,-14,8,41,41,41,44,23,2
-15,-2,15,13,-16,9,42,42,42,45,24,2
-17,-2,17,15,-18,9,43,43,43,47,25,3
-19,-2,18,16,-20,11,44,44,44,48,26,4
-19,-1,20,16,-21,13,45,45,45,50,27,4
-18,1,21,14,-21,14,47,46,47,52,29,5
-18,4,23,12,-22,16,48,47,48,54,31,7
-19,6,25,11,-23,19,49,49,50,56,33,8
-18,8,26,10,-24,21,51,50,51,58,35,9
-17,10,26,8,-23,22,52,52,53,60,36,10
-15,12,26,5,-22,23,54,53,55,62,38,12
-14,15,26,3,-21,24,55,54,56,64,40,13
-12,18,27,-1,-21,27,56,56,58,67,42,14
-9,20,26,-4,-19,27,57,57,60,69,44,15
-7,22,25,-7,-17,27,59,59,62,71,46,16
-5,24,24,-10,-15,28,59,61,64,74,48,17
-2,28,24,-14,-13,30,61,63,66,76,50,18
-2,29,25,-15,-13,31,62,65,68,79,52,19
-1,30,25,-16,-13,31,63,67,70,81,54,20
1,31,24,-18,-12,32,64,68,72,84,56,22
1,33,25,-19,-12,33,66,70,75,87,59,23
1,34,26,-19,-13,34,67,73,78,90,61,24
-0,35,28,-19,-15,36,69,75,80,93,64,25
-0,36,29,-20,-15,37,71,78,83,96,66,26
-1,37,31,-20,-16,38,73,80,86,99,69,27
-1,38,31,-21,-16,39,76,83,89,103,72,29
0,39,31,-22,-16,40,78,86,93,106,75,30
1,40,31,-24,-15,40,80,89,96,110,77,32
1,41,31,-24,-15,41,83,92,99,113,81,33
3,43,31,-27,-15,42,86,95,102,117,83,35
4,46,32,-29,-14,44,89,98,105,121,86,36
6,48,31,-32,-13,45,92,101,109,124,89,37
8,50,32,-34,-12,46,94,104,112,128,92,39
9,52,31,-37,-11,47,97,107,115,131,95,39
10,54,32,-38,-11,49,99,109,118,135,97,40
11,57,33,-40,-11,50,102,112,120,138,100,41
12,59,34,-42,-11,52,105,115,124,141,102,42
10,60,37,-41,-13,54,107,117,126,144,104,42
8,61,40,-40,-16,57,110,119,128,147,107,43
5,62,44,-39,-20,60,113,122,131,150,108,43
4,64,47,-39,-22,63,116,124,133,153,111,43
0,67,53,-38,-27,68,117,126,135,155,112,43
-3,69,58,-36,-32,72,121,128,137,158,114,44
-6,71,63,-36,-36,76,123,129,138,160,115,45
-9,73,69,-34,-41,81,126,131,140,162,117,45
-12,75,73,-33,-45,85,127,132,141,163,117,45
-15,78,78,-32,-50,89,130,133,141,164,118,45
-18,80,83,-31,-54,94,132,134,142,165,118,44
-21,82,88,-30,-58,98,134,135,143,166,119,44
-22,85,91,-31,-60,101,134,135,142,165,118,43
-23,88,94,-32,-63,105,135,134,141,165,117,43
-24,90,97,-33,-64,107,136,134,141,164,116,42
-24,93,100,-34,-67,111,137,134,140,163,116,42
-25,93,101,-34,-67,112,136,132,138,161,113,40
-25,93,101,-34,-67,112,135,130,136,158,111,40
-25,93,102,-33,-68,112,134,128,133,156,110,38
-26,93,103,-32,-69,113,134,127,131,154,108,38
-28,91,102,-30,-70,112,132,123,127,150,105,37
-27,90,101,-30,-69,110,130,120,124,146,102,35
-28,89,101,-29,-69,109,127,117,120,142,99,34
-28,88,100,-28,-69,108,125,114,117,138,96,34
-28,86,100,-27,-68,107,123,110,112,133,92,33
-28,85,99,-27,-68,106,120,106,108,129,89,32
-28,85,98,-26,-67,105,117,102,103,124,85,32
-29,83,98,-25,-68,105,114,98,99,119,82,32
-30,80,96,-22,-67,102,110,93,94,114,78,30
-31,77,94,-20,-67,99,106,89,88,108,74,30
-32,73,93,-17,-67,96,101,84,84,103,70,28
-33,71,92,-15,-67,94,97,79,79,98,66,28
-30,70,88,-17,-63,92,93,75,74,92,62,27
-28,69,85,-17,-61,89,89,70,69,87,59,27
-26,68,82,-18,-58,87,85,66,64,82,55,26
-24,68,79,-20,-55,85,80,62,60,77,51,26
-23,62,74,-17,-52,79,75,57,55,71,47,25
-21,58,69,-16,-48,73,71,53,51,66,43,23
-19,53,63,-15,-44,67,66,49,46,60,39,22
-19,49,59,-13,-42,63,62,45,42,55,35,22
-16,46,54,-13,-37,58,58,41,39,51,32,20
-14,43,49,-13,-34,53,54,38,35,46,29,19
-12,39,44,-13,-30,48,51,35,32,42,26,18
-9,37,40,-13,-26,44,47,32,29,38,22,17
-8,31,34,-11,-22,38,44,29,26,34,19,15
-9,26,30,-8,-21,32,40,27,23,31,17,14
-8,20,24,-6,-17,26,37,24,21,27,13,13
-7,16,20,-4,-14,21,34,22,18,23,11,12
-6,12,17,-2,-12,17,32,20,16,21,8,10
-5,10,13,-2,-9,13,30,19,15,18,7,10
-4,7,10,-1,-7,9,28,17,13,16,5,8
-2,5,6,-1,-4,6,26,16,12,14,3,8
-2,2,4,1,-2,4,25,15,11,12,2,7
0,1,1,-1,0,1,24,14,10,11,1,6
1,-1,-2,0,2,-1,23,13,9,9,-1,5
3,-2,-5,-1,4,-4,22,13,8,8,-1,4
3,-3,-5,0,4,-4,21,12,7,7,-2,3
2,-4,-5,1,4,-5,21,12,7,6,-3,3
1,-5,-5,3,4,-6,21,11,7,6,-4,3
0,-6,-5,4,3,-6,21,11,6,5,-4,3
0,-6,-5,4,3,-6,21,11,6,5,-5,3
1,-5,-5,3,4,-6,21,11,6,4,-5,3
2,-4,-5,1,4,-5,20,10,6,4,-5,3
2,-3,-5,1,4,-4,20,10,6,4,-5,3
1,-3,-4,1,3,-4,19,10,5,4,-5,3
0,-3,-3,2,2,-3,19,10,5,4,-5,3
-1,-3,-2,3,1,-3,19,10,5,4,-5,3
-0,-2,-1,2,1,-1,19,10,5,4,-5,4
0,-1,-1,1,1,-1,18,9,5,4,-5,4
0,0,-0,0,1,0,18,9,5,4,-5,4
1,1,-0,-2,1,1,17,9,5,4,-5,4
1,2,1,-2,1,2,17,9,5,4,-5,4
1,2,1,-2,1,2,17,9,5,4,-6,3
1,2,1,-2,1,2,16,9,5,4,-6,3
1,2,1,-2,1,2,15,8,4,3,-6,3
0,2,1,-1,0,2,15,8,4,3,-6,3
-1,0,1,1,-1,1,14,8,4,3,-7,2
-2,-1,1,2,-1,0,14,8,4,2,-8,1
-3,-2,1,3,-2,0,14,7,3,2,-8,0
-4,-3,1,5,-3,-0,14,7,3,2,-9,-0
-5,-5,1,7,-3,-2,13,7,3,1,-9,-1
-5,-6,1,8,-3,-3,13,7,3,1,-10,-2
-6,-8,1,9,-4,-3,13,7,3,1,-10,-2
-7,-8,1,10,-4,-4,13,7,3,1,-10,-3
-7,-10,-0,11,-3,-5,13,7,3,1,-10,-3
-6,-10,-1,11,-3,-5,13,7,3,1,-10,-3
-6,-11,-2,11,-2,-6,13,7,3,1,-10,-3
-6,-11,-2,11,-2,-6,14,8,3,1,-10,-3
-5,-11,-4,10,-0,-8,14,8,4,1,-10,-3
-4,-11,-5,9,1,-8,14,8,4,1,-10,-3
-2,-11,-6,8,3,-9,14,8,4,1,-10,-3
-1,-10,-7,6,4,-9,14,9,5,1,-10,-3
0,-10,-8,6,5,-10,15,9,5,1,-9,-2
0,-10,-8,6,5,-10,16,10,5,2,-9,-2
1,-10,-9,5,6,-10,17,10,6,2,-8,-1
1,-10,-9,5,6,-10,17,11,6,3,-8,0
1,-11,-10,5,6,-11,17,11,6,3,-8,0
1,-11,-10,5,6,-11,17,11,6,3,-8,0
0,-12,-10,7,6,-12,16,11,6,3,-8,0
0,-12,-10,7,6,-12,16,11,7,3,-7,1
