I,II,III,aVR,aVL,aVF,V1,V2,V3,V4,V5,V6
-4,28,29,-14,-21,31,-53,-35,-22,-12,5,14
-4,28,29,-14,-21,31,-54,-34,-22,-12,6,15
-5,26,29,-12,-22,30,-56,-34,-21,-12,6,14
-7,26,31,-11,-25,31,-58,-33,-20,-12,6,14
-7,26,31,-11,-25,31,-60,-33,-20,-12,6,14
-9,26,32,-10,-26,31,-60,-32,-19,-12,6,14
-7,26,31,-11,-25,31,-58,-33,-20,-12,5,12
-6,28,31,-13,-24,31,-56,-33,-20,-12,5,12
-1,30,29,-16,-20,31,-54,-33,-20,-12,4,12
0,31,29,-18,-20,32,-51,-33,-20,-12,4,12
-1,30,29,-16,-20,31,-50,-33,-20,-12,3,11
-4,28,29,-14,-21,31,-48,-33,-20,-12,3,11
-5,26,29,-12,-22,30,-47,-33,-21,-13,3,11
-5,26,29,-12,-22,30,-43,-33,-21,-13,3,11
-4,26,28,-13,-20,29,-43,-34,-22,-13,2,9
-1,26,26,-14,-18,28,-43,-35,-22,-13,1,8
0,26,24,-15,-16,27,-43,-36,-23,-13,0,6
2,26,23,-16,-14,27,-43,-36,-23,-13,0,6
0,24,23,-14,-15,25,-45,-36,-23,-13,0,6
-2,24,24,-13,-18,27,-45,-35,-22,-13,0,8
-2,24,24,-13,-18,27,-47,-34,-22,-13,0,8
-4,24,26,-12,-20,27,-47,-33,-22,-12,0,9
-5,23,26,-10,-20,27,-50,-33,-22,-12,-1,9
-9,21,28,-6,-24,27,-51,-33,-22,-12,-1,9
-11,19,28,-5,-25,26,-53,-33,-22,-12,-2,9
-12,19,29,-4,-26,27,-54,-32,-21,-11,-2,9
-11,21,29,-6,-26,27,-56,-32,-21,-11,-2,9
-9,23,29,-8,-25,28,-56,-31,-20,-10,-2,11
-7,24,29,-10,-24,29,-56,-31,-20,-10,-2,12
-7,26,31,-11,-25,31,-56,-30,-19,-9,-1,14
-7,24,29,-10,-24,29,-56,-31,-20,-10,-2,14
-7,24,29,-10,-24,29,-56,-32,-20,-10,-2,14
-7,23,28,-9,-23,27,-56,-33,-21,-10,-3,14
-7,23,28,-9,-23,27,-54,-33,-21,-10,-3,14
-4,24,26,-12,-20,27,-53,-33,-21,-10,-4,14
0,28,26,-16,-17,29,-50,-33,-21,-10,-4,14
2,30,26,-18,-16,30,-48,-33,-21,-10,-4,14
6,33,26,-22,-14,32,-45,-33,-21,-9,-4,15
4,31,26,-20,-15,31,-45,-33,-21,-9,-5,15
4,31,26,-20,-15,31,-45,-33,-21,-9,-5,15
4,31,26,-20,-15,31,-45,-33,-21,-9,-5,15
1,31,28,-18,-18,31,-43,-33,-21,-9,-5,17
0,30,28,-17,-19,31,-43,-33,-21,-9,-5,17
-1,30,29,-16,-20,31,-41,-33,-20,-9,-5,17
-1,30,29,-16,-20,31,-41,-32,-20,-8,-5,17
-4,30,31,-15,-23,33,-40,-31,-19,-8,-5,18
-4,28,29,-14,-21,31,-40,-32,-20,-8,-7,17
-5,26,29,-12,-22,30,-40,-33,-20,-8,-7,17
-6,24,28,-10,-22,28,-40,-33,-21,-8,-8,17
-6,24,28,-10,-22,28,-40,-34,-21,-8,-9,17
-6,24,28,-10,-22,28,-38,-34,-21,-8,-10,17
-6,24,28,-10,-22,28,-37,-34,-21,-8,-10,17
-6,24,28,-10,-22,28,-35,-34,-21,-8,-11,17
-7,24,29,-10,-24,29,-33,-33,-21,-8,-11,17
-6,24,28,-10,-22,28,-35,-33,-21,-8,-12,15
-4,24,26,-12,-20,27,-35,-33,-21,-8,-13,15
-2,24,24,-13,-18,27,-37,-32,-21,-8,-14,15
0,26,24,-15,-16,27,-37,-31,-20,-8,-14,15
-2,24,24,-13,-18,27,-40,-31,-20,-8,-14,15
-2,24,24,-13,-18,27,-41,-30,-20,-8,-14,17
-2,24,24,-13,-18,27,-43,-30,-20,-8,-14,17
-2,24,24,-13,-18,27,-45,-29,-19,-8,-13,18
-2,24,24,-13,-18,27,-43,-29,-18,-8,-13,18
0,26,24,-15,-16,27,-41,-28,-18,-7,-12,20
1,28,24,-17,-15,28,-40,-28,-17,-7,-12,20
1,29,26,-17,-17,30,-38,-27,-17,-7,-11,21
0,30,28,-17,-19,31,-35,-27,-17,-6,-10,21
0,31,29,-18,-20,32,-31,-27,-16,-6,-9,23
-1,32,31,-18,-21,34,-28,-27,-16,-5,-8,25
-2,34,34,-18,-24,37,-25,-26,-15,-4,-7,27
2,38,33,-23,-21,38,-24,-25,-15,-3,-7,28
5,42,35,-27,-20,42,-20,-24,-13,-2,-5,29
9,46,35,-32,-18,44,-16,-23,-13,-2,-4,31
13,51,36,-37,-17,47,-13,-21,-11,-1,-2,32
13,51,36,-37,-17,47,-16,-21,-11,-1,-2,32
12,52,38,-37,-19,49,-16,-21,-11,-0,-1,32
10,52,40,-36,-21,50,-18,-21,-10,0,0,33
11,54,41,-37,-21,52,-20,-20,-9,1,1,34
13,56,41,-40,-20,53,-25,-21,-9,1,2,36
17,60,41,-44,-18,54,-30,-21,-9,1,3,37
18,61,41,-45,-17,55,-35,-22,-9,2,3,39
20,65,43,-49,-17,58,-39,-21,-9,2,4,42
22,65,41,-49,-15,57,-43,-23,-10,3,4,42
23,66,41,-51,-14,58,-47,-24,-10,2,4,44
26,67,39,-53,-11,57,-50,-24,-11,2,4,44
28,68,39,-55,-10,58,-51,-25,-11,3,4,45
31,68,36,-57,-6,56,-51,-26,-11,2,3,45
37,70,33,-61,-1,55,-50,-27,-11,2,3,47
40,70,31,-63,3,54,-50,-27,-12,2,3,47
43,71,29,-65,6,54,-48,-27,-12,2,3,49
43,68,26,-64,9,50,-46,-27,-13,2,3,49
43,65,23,-61,10,47,-43,-27,-13,1,3,48
43,61,19,-60,13,43,-41,-27,-13,1,3,49
43,60,18,-59,14,42,-38,-27,-13,1,3,50
42,56,16,-56,14,39,-38,-27,-14,0,1,48
40,53,15,-53,14,36,-38,-28,-15,-0,-0,48
38,50,13,-50,14,34,-38,-29,-15,-1,-1,47
38,48,12,-49,14,32,-38,-29,-16,-1,-2,47
34,44,12,-45,12,30,-39,-30,-18,-2,-3,45
29,41,13,-40,9,29,-40,-31,-19,-2,-4,45
25,38,13,-36,6,27,-41,-33,-20,-3,-5,45
21,36,15,-32,3,27,-41,-33,-22,-4,-6,45
17,34,17,-30,-1,28,-41,-34,-22,-5,-7,42
14,32,18,-26,-4,27,-40,-34,-22,-5,-8,40
10,31,20,-23,-8,28,-39,-34,-23,-6,-9,39
9,31,21,-22,-9,29,-38,-34,-23,-6,-10,37
5,28,21,-18,-11,27,-37,-34,-23,-7,-12,34
1,26,23,-16,-14,27,-35,-34,-23,-7,-14,31
-1,24,23,-14,-16,26,-33,-34,-24,-8,-16,28
-4,23,24,-11,-19,26,-30,-34,-24,-8,-16,26
-4,23,24,-11,-19,26,-30,-34,-24,-9,-17,23
-4,22,24,-10,-19,25,-30,-34,-24,-9,-18,21
-4,22,24,-10,-19,25,-30,-34,-24,-10,-19,20
-4,22,24,-10,-19,25,-28,-33,-23,-9,-19,19
-6,21,24,-9,-20,24,-30,-34,-24,-10,-20,16
-7,19,24,-7,-20,24,-31,-34,-25,-10,-20,15
-9,17,24,-5,-22,23,-33,-35,-25,-10,-20,13
-11,16,24,-3,-23,22,-33,-35,-25,-10,-20,14
-12,15,24,-2,-23,22,-31,-35,-25,-10,-19,15
-11,16,24,-3,-23,22,-30,-34,-25,-10,-19,17
-11,16,24,-3,-23,22,-28,-33,-25,-11,-17,18
-12,17,26,-3,-25,24,-25,-33,-24,-10,-16,21
-11,17,26,-4,-24,24,-25,-32,-24,-10,-16,21
-11,17,26,-4,-24,24,-25,-32,-24,-10,-15,21
-10,18,26,-5,-23,24,-25,-32,-24,-10,-15,21
-13,17,28,-3,-26,24,-24,-31,-24,-10,-14,23
-11,19,28,-5,-25,26,-20,-31,-24,-10,-14,23
-9,21,28,-6,-24,27,-17,-31,-23,-9,-13,25
-7,23,28,-9,-23,27,-14,-31,-22,-9,-12,27
-5,26,29,-12,-22,30,-9,-30,-22,-8,-11,28
-4,24,26,-11,-20,27,-15,-32,-23,-9,-15,23
-1,25,24,-14,-17,27,-20,-33,-23,-9,-17,19
-1,24,23,-14,-16,26,-27,-35,-25,-10,-21,14
1,24,21,-14,-14,24,-31,-35,-25,-10,-24,9
6,11,6,-10,0,10,-30,-38,-27,-12,-25,6
-29,7,32,12,-38,22,-16,-32,-25,-7,-16,17
-22,6,24,9,-29,17,-9,-36,-26,-11,-21,9
7,28,20,-20,-9,27,-15,-32,-23,-9,-16,17
-21,18,35,1,-36,29,1,-30,-19,-8,-7,35
-62,-6,48,37,-69,24,16,-33,-23,-9,-10,33
2,33,29,-20,-18,34,32,-30,-20,-7,-9,31
10,31,20,-23,-8,28,14,-29,-19,-6,-9,29
-34,11,40,12,-47,29,12,-27,-19,-8,-12,28
-25,19,40,2,-42,33,9,-24,-16,-8,-21,11
-29,13,37,9,-42,27,3,-19,-15,-10,-25,1
-38,-1,32,22,-44,17,3,-14,-14,-11,-31,-4
-38,-9,24,27,-39,9,9,-7,-11,-12,-37,-21
-74,-52,15,72,-54,-19,17,-9,-12,-20,-54,-51
-88,-46,33,76,-74,-5,66,12,-1,-18,-51,-46
-78,-42,28,68,-65,-6,108,22,8,-16,-56,-51
-55,-40,11,54,-40,-15,129,38,18,-16,-64,-68
-96,-86,3,104,-58,-43,123,39,24,-14,-69,-78
-94,-91,-4,106,-53,-50,132,49,36,-5,-60,-70
-78,-112,-37,109,-20,-78,120,56,44,2,-71,-95
-57,-105,-49,93,0,-82,131,75,68,21,-58,-82
-30,-99,-66,76,27,-89,129,93,92,47,-36,-59
-20,-105,-80,73,43,-99,142,111,118,71,-13,-39
26,-97,-113,44,92,-113,127,104,123,88,4,-19
24,-103,-116,48,93,-118,117,106,132,113,44,28
65,-86,-136,15,131,-120,109,117,153,146,86,69
125,-49,-154,-39,178,-111,81,126,187,199,150,135
195,28,-143,-123,212,-65,44,115,215,262,231,233
239,54,-156,-163,247,-58,-33,80,212,291,269,282
279,52,-193,-183,295,-80,-96,55,197,294,286,299
257,-26,-246,-126,318,-150,-73,69,187,267,266,290
251,-65,-277,-100,336,-188,-31,60,162,235,240,277
219,-73,-257,-77,303,-181,12,24,116,202,216,263
212,-87,-263,-65,303,-191,-4,-41,30,144,176,230
152,-122,-245,-11,255,-199,-30,-108,-64,80,139,218
134,-137,-243,8,244,-207,-53,-153,-134,21,94,194
110,-174,-257,43,239,-233,-56,-168,-173,-35,49,162
83,-257,-312,107,260,-307,-70,-186,-221,-97,-5,121
49,-321,-342,163,261,-357,-61,-189,-244,-136,-36,94
43,-347,-360,182,270,-381,-45,-181,-235,-141,-64,54
-7,-360,-329,218,219,-371,-16,-162,-213,-136,-84,9
-69,-364,-279,254,149,-344,1,-156,-200,-131,-98,-22
-80,-295,-205,219,92,-267,3,-151,-188,-123,-106,-46
-81,-233,-146,183,52,-203,9,-146,-177,-112,-103,-54
-117,-199,-84,183,-12,-150,5,-140,-161,-100,-93,-54
-144,-187,-49,191,-51,-124,-1,-140,-158,-100,-99,-64
-130,-182,-57,180,-38,-126,-6,-142,-156,-105,-106,-83
-123,-179,-60,174,-31,-126,-4,-135,-146,-98,-100,-76
-123,-169,-51,168,-38,-116,24,-134,-139,-92,-93,-74
-121,-140,-26,150,-54,-87,47,-121,-125,-81,-86,-69
-120,-149,-35,154,-47,-96,42,-109,-114,-75,-81,-70
-94,-137,-46,133,-24,-97,24,-100,-104,-66,-72,-57
-76,-116,-43,111,-16,-84,33,-91,-93,-58,-62,-49
-59,-106,-48,96,-3,-82,20,-78,-83,-52,-54,-43
-72,-87,-19,92,-29,-56,19,-60,-65,-40,-34,-10
-36,-44,-10,45,-14,-28,6,-49,-51,-30,-19,11
-30,-32,-4,36,-15,-19,1,-41,-42,-26,-15,11
-46,-26,16,41,-38,-4,1,-37,-35,-21,-9,21
-54,-12,36,37,-56,14,-5,-30,-28,-18,-6,30
-43,-3,34,26,-48,17,-3,-32,-28,-18,-13,11
-43,3,40,22,-53,24,-14,-25,-22,-13,-7,18
-41,9,44,18,-54,30,-9,-27,-19,-8,-2,28
0,30,28,-17,-19,31,3,-23,-18,-7,0,29
9,38,28,-26,-14,36,14,-24,-20,-8,-4,23
-18,21,35,-2,-34,31,45,-23,-18,-7,5,39
-9,31,36,-13,-30,36,47,-21,-16,-7,7,40
-16,24,36,-5,-34,33,33,-21,-18,-11,4,37
-16,24,36,-5,-34,33,29,-19,-15,-10,5,39
-34,11,40,12,-47,29,22,-18,-12,-9,7,37
-20,23,38,-2,-37,34,7,-22,-15,-10,-1,21
-29,24,48,2,-49,39,-7,-20,-15,-9,1,21
-67,9,66,31,-84,42,-35,-23,-15,-6,5,28
-20,36,51,-10,-46,47,-35,-16,-12,-7,3,23
23,52,29,-43,-6,44,-37,-19,-15,-7,4,21
23,41,18,-37,2,32,-24,-18,-15,-9,3,31
27,59,32,-49,-6,49,16,-14,-8,-5,15,42
18,54,35,-41,-13,48,16,-15,-8,-5,13,40
9,50,38,-34,-20,47,17,-17,-8,-5,13,39
0,44,41,-26,-28,46,17,-18,-8,-6,12,37
-9,39,44,-18,-36,45,18,-19,-8,-6,12,37
-7,40,43,-19,-32,45,14,-19,-8,-5,14,37
-5,40,41,-20,-31,44,9,-18,-7,-5,16,37
-4,39,40,-20,-30,43,5,-17,-7,-4,18,37
-4,39,39,-21,-29,43,1,-16,-6,-3,20,37
-4,38,38,-20,-28,41,-3,-15,-5,-2,23,35
-4,38,38,-20,-28,41,-5,-12,-4,-2,24,35
-5,36,38,-18,-29,41,-9,-10,-2,-1,26,35
-5,36,38,-18,-29,41,-10,-8,-0,-0,28,35
-6,34,37,-17,-28,38,-10,-7,1,-0,28,34
-5,34,36,-17,-27,38,-10,-6,1,-0,29,34
-7,33,36,-15,-28,38,-10,-6,2,-0,29,34
-7,33,37,-15,-29,38,-9,-4,3,-0,29,34
-9,31,37,-13,-31,37,-9,-4,3,-0,29,34
-9,31,37,-13,-31,37,-7,-4,4,-0,29,34
-12,29,37,-10,-31,36,-5,-3,4,-0,28,34
-13,29,38,-10,-33,36,-4,-3,5,-0,28,34
-11,28,35,-10,-30,34,-4,-3,5,-0,27,34
-9,28,33,-11,-27,33,-4,-2,6,-0,26,34
-7,28,32,-12,-26,32,-4,-2,6,-0,25,34
-5,28,30,-13,-23,31,-2,-1,6,-0,24,36
-4,28,29,-14,-21,31,-1,-1,7,-0,23,35
-4,28,29,-14,-21,31,1,-1,8,-0,22,35
-2,28,28,-14,-20,30,3,-1,8,-0,21,35
-2,28,28,-14,-20,30,6,0,9,0,21,35
-1,28,26,-15,-18,29,6,1,10,1,21,36
4,30,24,-19,-14,29,8,3,11,2,21,37
4,29,23,-19,-13,29,9,4,11,2,21,39
7,31,23,-22,-12,29,11,6,13,3,22,40
7,30,21,-21,-10,28,12,6,13,3,22,40
7,28,19,-20,-9,26,14,8,15,4,22,40
7,26,18,-18,-9,24,16,9,16,5,22,40
7,26,18,-18,-9,24,17,11,17,5,23,40
7,24,16,-18,-7,22,16,11,18,6,23,39
7,24,16,-18,-7,22,14,13,19,6,24,39
7,22,15,-16,-6,20,12,15,20,7,24,37
7,22,15,-16,-6,20,12,16,22,8,25,37
7,21,13,-16,-4,19,12,18,23,9,27,37
6,19,13,-14,-5,18,12,20,25,9,29,37
6,18,12,-14,-4,17,12,21,26,10,31,37
5,17,12,-13,-5,16,12,23,28,11,33,37
5,16,11,-12,-4,15,12,26,30,12,34,35
4,15,11,-11,-4,15,12,28,32,13,37,36
7,15,9,-12,-2,13,12,30,34,14,40,36
7,16,9,-13,-2,14,14,33,37,15,42,36
9,14,6,-13,2,11,16,35,39,16,44,34
8,12,4,-11,2,9,17,37,41,17,47,34
11,11,1,-12,6,6,19,39,44,18,50,34
11,9,-1,-11,7,5,21,41,46,19,52,34
17,9,-6,-14,14,2,24,44,49,20,54,33
20,9,-9,-16,18,1,27,47,51,21,57,32
23,9,-11,-18,21,-1,31,49,53,22,60,32
27,9,-14,-20,26,-3,33,52,56,23,62,32
29,8,-18,-20,29,-5,39,55,59,24,64,31
31,6,-21,-20,33,-8,44,59,62,26,66,31
32,4,-24,-19,35,-10,49,62,65,27,68,31
34,3,-27,-20,38,-13,53,66,69,29,69,31
36,1,-30,-20,42,-15,53,70,72,31,70,31
38,-1,-33,-20,44,-18,55,76,76,33,71,31
40,-3,-37,-20,48,-22,55,80,80,34,72,31
41,-4,-39,-20,51,-24,57,85,83,36,74,33
41,-9,-43,-17,53,-28,58,90,87,38,73,31
38,-14,-46,-12,53,-32,60,94,92,40,73,30
36,-19,-49,-8,54,-36,62,99,96,41,73,28
37,-22,-53,-6,57,-41,63,103,100,43,73,28
36,-28,-57,-3,60,-45,65,108,104,44,72,27
36,-31,-60,-2,62,-49,68,112,108,46,70,25
38,-34,-65,-1,66,-54,72,117,112,47,69,23
38,-38,-68,2,69,-57,75,121,116,48,68,22
40,-41,-73,2,72,-61,80,126,120,50,66,18
41,-43,-76,3,76,-64,85,131,124,52,64,17
41,-46,-79,5,77,-68,90,135,128,53,62,16
43,-48,-82,5,81,-70,94,141,133,55,61,14
45,-51,-86,6,85,-74,100,145,136,56,59,11
47,-54,-91,6,89,-79,104,150,141,58,57,8
49,-58,-96,7,94,-83,110,156,145,58,54,4
51,-61,-101,9,98,-87,114,161,149,60,52,1
53,-65,-106,10,103,-92,117,165,152,61,50,-2
54,-68,-110,10,106,-96,121,171,156,62,47,-5
57,-71,-115,11,111,-101,124,175,160,64,44,-8
58,-73,-118,12,114,-103,129,180,164,65,42,-11
56,-78,-121,16,115,-108,134,183,166,65,40,-16
54,-83,-124,20,116,-112,138,186,168,65,37,-21
53,-88,-128,23,117,-117,144,189,171,66,34,-26
51,-93,-131,28,118,-121,148,193,174,66,32,-29
51,-97,-134,30,121,-124,152,196,175,66,30,-33
49,-100,-135,33,120,-127,155,199,178,67,28,-37
47,-103,-137,36,121,-130,158,202,181,67,25,-40
46,-106,-138,38,121,-132,162,206,183,68,24,-43
41,-112,-140,44,119,-135,163,207,185,67,21,-46
38,-117,-141,49,118,-139,167,209,186,67,19,-49
35,-122,-143,53,117,-142,168,211,187,67,16,-52
33,-124,-145,56,117,-145,171,213,189,67,14,-56
33,-127,-146,57,118,-147,173,213,188,66,11,-61
31,-128,-146,59,117,-148,177,214,188,65,8,-63
31,-130,-148,60,118,-149,178,215,188,64,5,-68
30,-130,-148,61,118,-149,182,215,188,62,3,-71
28,-133,-148,64,116,-151,183,212,184,60,-1,-76
23,-137,-148,69,114,-153,186,210,182,57,-5,-81
20,-140,-148,73,111,-155,190,207,179,55,-8,-85
18,-142,-148,74,111,-156,193,205,176,53,-12,-90
16,-142,-146,76,108,-154,193,201,172,50,-16,-95
12,-142,-143,77,104,-153,194,198,169,48,-19,-98
9,-142,-140,80,99,-151,195,194,165,45,-23,-103
6,-142,-137,81,96,-149,196,191,162,43,-25,-106
0,-144,-134,85,91,-149,193,186,157,40,-28,-109
-5,-143,-129,88,84,-146,190,181,152,37,-31,-111
-11,-145,-126,93,79,-145,186,176,147,34,-34,-112
-17,-145,-121,96,72,-142,183,171,142,31,-36,-114
-20,-144,-116,96,67,-140,177,165,137,27,-37,-114
-24,-140,-110,96,60,-134,170,159,131,25,-38,-114
-26,-137,-105,96,56,-130,163,153,125,22,-40,-114
-28,-133,-99,95,51,-124,158,147,120,19,-41,-114
-28,-128,-96,92,48,-120,152,141,114,17,-42,-114
-25,-122,-91,86,47,-114,147,135,108,14,-43,-112
-25,-117,-87,84,44,-109,142,128,102,11,-44,-112
-24,-110,-82,79,42,-103,137,122,97,9,-44,-111
-23,-106,-79,76,40,-99,131,115,91,6,-44,-109
-22,-101,-76,73,38,-95,126,109,85,3,-43,-106
-20,-97,-73,69,37,-91,121,103,80,1,-42,-105
-18,-91,-69,65,37,-86,116,97,74,-1,-41,-101
-17,-88,-68,61,36,-83,109,91,69,-3,-40,-98
-17,-85,-64,60,34,-80,104,85,64,-5,-38,-95
-17,-81,-61,57,31,-76,98,79,59,-6,-37,-92
-14,-77,-59,53,31,-73,93,74,54,-8,-34,-88
-16,-75,-56,53,28,-70,85,68,49,-10,-33,-86
-17,-73,-53,53,26,-67,78,62,44,-12,-31,-82
-20,-71,-49,53,21,-64,72,56,39,-14,-29,-80
-22,-68,-44,53,17,-60,65,50,34,-15,-28,-76
-22,-65,-41,50,15,-57,60,46,30,-17,-26,-73
-22,-61,-38,49,13,-53,55,41,26,-18,-24,-68
-22,-58,-35,46,11,-50,50,37,22,-19,-22,-65
-22,-54,-32,45,9,-46,45,33,19,-20,-19,-60
-19,-50,-30,40,9,-43,42,29,16,-21,-17,-57
-16,-44,-28,35,9,-38,39,27,13,-21,-16,-54
-14,-39,-24,31,9,-34,35,23,11,-22,-14,-51
-12,-34,-21,27,7,-29,34,20,8,-22,-11,-48
-13,-33,-19,27,5,-28,27,18,6,-23,-9,-46
-10,-29,-18,23,6,-25,22,15,4,-23,-7,-43
-9,-26,-16,20,6,-22,16,13,2,-24,-6,-40
-9,-23,-13,19,3,-19,10,12,0,-24,-3,-37
-5,-19,-13,14,6,-17,8,9,-2,-24,-2,-35
-4,-15,-11,11,5,-14,4,7,-3,-24,-0,-32
-2,-13,-10,9,5,-12,1,5,-4,-24,1,-30
1,-9,-9,5,6,-9,-3,2,-5,-24,3,-27
-2,-9,-7,7,3,-8,-6,1,-7,-25,4,-25
-1,-7,-6,6,3,-7,-9,-0,-8,-25,4,-24
-4,-7,-4,6,0,-6,-12,-2,-9,-25,5,-23
-6,-6,-1,7,-3,-3,-15,-4,-11,-25,6,-21
-7,-5,1,7,-4,-2,-14,-5,-12,-25,7,-19
-7,-4,3,6,-6,-1,-12,-6,-12,-25,9,-16
-9,-4,4,8,-9,1,-10,-8,-13,-25,10,-13
-11,-3,7,8,-11,3,-7,-9,-14,-25,12,-9
-9,-1,7,6,-10,3,-7,-9,-15,-25,13,-8
-9,1,9,4,-11,6,-5,-9,-15,-24,13,-6
-9,3,10,3,-12,7,-5,-10,-15,-24,14,-5
-9,4,12,3,-14,9,-4,-10,-15,-24,16,-2
-7,6,12,1,-12,10,-5,-11,-15,-24,16,-2
-7,7,13,0,-13,11,-7,-11,-15,-23,17,0
-5,9,13,-2,-12,13,-9,-11,-15,-23,18,0
-4,13,15,-5,-12,15,-9,-11,-15,-22,19,1
-2,14,15,-6,-11,16,-12,-11,-15,-22,19,1
-1,16,16,-8,-12,17,-14,-11,-15,-22,19,1
0,17,16,-10,-11,18,-15,-11,-15,-22,19,1
1,21,18,-13,-11,21,-17,-11,-15,-22,19,3
0,19,18,-11,-12,20,-20,-12,-16,-22,19,1
-1,19,19,-10,-14,21,-22,-12,-16,-22,19,1
-6,17,21,-6,-18,21,-25,-12,-16,-22,19,1
-7,17,23,-6,-20,22,-27,-12,-16,-21,19,1
-7,17,23,-6,-20,22,-28,-12,-16,-21,19,1
-7,19,24,-7,-20,24,-30,-12,-16,-21,19,1
-9,19,26,-6,-22,24,-31,-12,-16,-20,19,1
-9,21,28,-6,-24,27,-31,-12,-15,-20,19,3
-9,21,28,-6,-24,27,-31,-12,-15,-20,19,3
-7,23,28,-9,-23,27,-31,-12,-15,-19,19,3
-6,24,28,-10,-22,28,-31,-12,-15,-19,19,3
-4,26,28,-13,-20,29,-31,-11,-14,-19,19,4
0,28,26,-16,-17,29,-31,-11,-14,-19,19,4
2,30,26,-18,-16,30,-31,-11,-13,-19,20,6
5,31,24,-21,-14,30,-31,-11,-13,-19,20,6
7,33,24,-23,-12,31,-30,-11,-12,-18,21,8
7,33,24,-23,-12,31,-30,-11,-12,-18,21,8
7,33,24,-23,-12,31,-30,-10,-12,-18,21,9
7,33,24,-23,-12,31,-30,-9,-11,-18,21,9
7,33,24,-23,-12,31,-30,-9,-11,-17,23,11
7,33,24,-23,-12,31,-33,-9,-11,-17,23,12
6,33,26,-22,-14,32,-35,-8,-11,-17,23,14
6,33,26,-22,-14,32,-37,-8,-11,-17,23,15
4,33,28,-21,-16,33,-38,-7,-11,-17,24,17
1,31,28,-18,-18,31,-40,-7,-11,-17,24,17
1,31,28,-18,-18,31,-41,-7,-11,-16,25,18
1,31,28,-18,-18,31,-43,-7,-11,-16,25,18
0,31,29,-18,-20,32,-43,-6,-10,-15,26,20
-1,30,29,-16,-20,31,-45,-7,-11,-16,26,18
-1,30,29,-16,-20,31,-47,-7,-11,-16,26,18
-1,30,29,-16,-20,31,-48,-8,-11,-17,26,17
-1,30,29,-16,-20,31,-50,-8,-11,-17,26,17
-1,30,29,-16,-20,31,-48,-9,-11,-17,26,17
-2,31,31,-17,-22,34,-47,-9,-11,-17,27,17
-1,33,32,-18,-22,35,-45,-9,-11,-17,28,17
-2,34,34,-18,-24,37,-41,-9,-11,-16,29,18
-2,34,34,-18,-24,37,-40,-10,-12,-16,30,18
-1,36,35,-20,-25,38,-38,-11,-12,-16,31,20
-4,36,37,-19,-27,40,-37,-12,-13,-16,32,20
-4,38,38,-20,-28,41,-35,-12,-13,-16,32,21
-4,38,38,-20,-28,41,-33,-12,-14,-17,32,21
-4,40,40,-21,-29,43,-30,-12,-14,-17,33,23
-4,40,40,-21,-29,43,-27,-12,-14,-17,34,23
-4,41,41,-22,-30,45,-24,-12,-14,-17,35,25
-4,40,40,-21,-29,43,-25,-12,-15,-17,34,23
-4,40,40,-21,-29,43,-25,-13,-15,-18,33,23
-4,40,40,-21,-29,43,-25,-14,-16,-18,32,21
-4,40,40,-21,-29,43,-25,-15,-16,-18,32,21
-4,40,40,-21,-29,43,-28,-15,-17,-19,32,20
-4,40,40,-21,-29,43,-31,-15,-18,-19,31,20
-4,40,40,-21,-29,43,-35,-16,-18,-19,30,18
-2,41,40,-22,-28,44,-37,-16,-19,-19,29,18
-1,40,38,-22,-26,42,-40,-17,-20,-20,28,18
-1,40,38,-22,-26,42,-43,-17,-20,-20,28,18
-1,40,38,-22,-26,42,-47,-18,-21,-20,28,18
-1,40,38,-22,-26,42,-50,-18,-21,-20,28,20
-2,38,37,-21,-26,41,-51,-18,-22,-20,27,18
-2,38,37,-21,-26,41,-53,-19,-22,-20,27,18
-2,38,37,-21,-26,41,-54,-20,-23,-20,27,18
-2,38,37,-21,-26,41,-56,-21,-23,-20,27,18
-4,36,37,-19,-27,40,-58,-21,-23,-21,26,18
-4,36,37,-19,-27,40,-60,-21,-23,-21,26,18
-4,36,37,-19,-27,40,-61,-21,-23,-21,26,18
-5,36,38,-18,-29,41,-61,-21,-23,-21,26,18
-5,36,38,-18,-29,41,-61,-22,-24,-21,25,17
-5,36,38,-18,-29,41,-60,-23,-25,-21,24,17
-5,36,38,-18,-29,41,-58,-24,-25,-21,23,17
-7,36,40,-17,-31,41,-56,-24,-26,-21,23,17
-7,36,40,-17,-31,41,-56,-24,-27,-22,23,15
-7,38,41,-18,-32,43,-54,-24,-27,-22,23,15
-7,38,41,-18,-32,43,-53,-24,-27,-22,23,15
-7,40,43,-19,-33,45,-51,-24,-27,-22,23,15
-7,38,41,-18,-32,43,-51,-24,-28,-22,21,14
-7,38,41,-18,-32,43,-51,-24,-28,-22,21,14
-7,38,41,-18,-32,43,-51,-25,-29,-23,20,14
-7,38,41,-18,-32,43,-51,-25,-29,-23,20,14
-6,38,40,-18,-31,42,-54,-25,-29,-23,20,14
-6,38,40,-18,-31,42,-58,-25,-28,-23,20,14
-6,38,40,-18,-31,42,-61,-25,-28,-23,20,14
-4,40,40,-21,-29,43,-64,-24,-28,-23,21,14
-4,40,40,-21,-29,43,-66,-24,-28,-23,21,14
-4,40,40,-21,-29,43,-66,-24,-27,-22,21,14
-4,40,40,-21,-29,43,-66,-23,-27,-22,21,14
-2,41,40,-22,-28,44,-66,-22,-26,-22,23,15
-4,40,40,-21,-29,43,-66,-23,-27,-22,23,15
-4,40,40,-21,-29,43,-66,-23,-27,-22,23,17
-4,40,40,-21,-29,43,-66,-24,-28,-22,23,17
-5,40,41,-20,-31,44,-64,-24,-28,-22,23,18
-5,40,41,-20,-31,44,-63,-24,-28,-22,23,18
-4,41,41,-22,-30,45,-60,-25,-28,-22,23,18
-4,41,41,-22,-30,45,-58,-26,-29,-22,23,18
-4,43,43,-23,-31,47,-54,-26,-29,-21,23,18
-4,41,41,-22,-30,45,-58,-26,-29,-22,23,17
-2,41,40,-22,-28,44,-60,-26,-29,-22,21,17
-1,40,38,-22,-26,42,-63,-26,-30,-22,21,15
-1,40,38,-22,-26,42,-64,-25,-30,-22,21,15
0,40,37,-23,-25,41,-66,-25,-30,-22,20,14
0,40,37,-23,-25,41,-68,-24,-29,-22,20,14
0,40,37,-23,-25,41,-70,-24,-29,-22,19,12
0,40,37,-23,-25,41,-70,-24,-29,-22,19,12
-2,38,37,-21,-26,41,-68,-24,-29,-22,18,11
-4,36,37,-19,-27,40,-66,-24,-29,-23,17,9
-6,34,37,-17,-28,38,-64,-25,-29,-24,16,8
-6,34,37,-17,-28,38,-63,-25,-29,-24,16,8
-7,33,37,-15,-29,38,-61,-26,-30,-24,16,8
-7,33,37,-15,-29,38,-58,-27,-30,-24,16,8
-7,33,37,-15,-29,38,-54,-27,-30,-24,16,8
-7,33,37,-15,-29,38,-51,-28,-30,-24,17,8
-9,31,37,-13,-31,37,-53,-28,-31,-24,17,6
-9,31,37,-13,-31,37,-53,-28,-31,-24,17,6
-9,31,37,-13,-31,37,-53,-28,-31,-24,17,6
-9,31,37,-13,-31,37,-53,-28,-31,-23,17,6
-7,31,35,-14,-28,36,-54,-28,-31,-23,17,6
-7,31,35,-14,-28,36,-56,-27,-31,-22,18,6
-7,31,35,-14,-28,36,-58,-27,-31,-22,18,6
-7,31,35,-14,-28,36,-58,-27,-31,-22,19,8
-9,30,35,-12,-29,35,-60,-27,-31,-22,19,8
-9,30,35,-12,-29,35,-60,-27,-31,-22,19,8
-9,30,35,-12,-29,35,-60,-27,-31,-22,19,8
-11,30,37,-11,-31,36,-60,-27,-30,-21,19,8
-11,30,37,-11,-31,36,-60,-27,-31,-21,19,8
-11,30,37,-11,-31,36,-58,-27,-31,-21,19,8
-11,30,37,-11,-31,36,-58,-27,-31,-21,19,8
-12,30,38,-10,-33,37,-56,-27,-31,-21,19,8
-11,30,37,-11,-31,36,-58,-27,-31,-21,19,8
-11,30,37,-11,-31,36,-60,-27,-30,-21,19,9
-11,30,37,-11,-31,36,-61,-27,-30,-21,19,9
-9,31,37,-13,-31,37,-63,-26,-29,-20,20,11
-7,31,35,-14,-28,36,-64,-26,-29,-20,19,11
-7,31,35,-14,-28,36,-66,-25,-29,-20,19,11
-6,31,34,-14,-26,35,-68,-25,-29,-20,19,11
-4,33,34,-17,-25,36,-70,-24,-28,-20,19,11
-4,33,34,-17,-25,36,-70,-24,-28,-20,19,11
-4,33,34,-17,-25,36,-70,-24,-28,-20,19,11
-4,33,34,-17,-25,36,-70,-24,-28,-20,19,11
-4,34,35,-18,-26,38,-70,-24,-28,-20,19,12
-5,33,35,-16,-26,37,-70,-24,-28,-20,19,11
-5,33,35,-16,-26,37,-68,-24,-28,-20,19,11
-5,33,35,-16,-26,37,-66,-25,-28,-20,19,11
-5,33,35,-16,-26,37,-64,-25,-28,-20,19,11
-7,31,35,-14,-28,36,-63,-26,-29,-20,19,11
-7,31,35,-14,-28,36,-61,-26,-29,-20,20,12
-7,31,35,-14,-28,36,-60,-27,-29,-20,20,12
-9,31,37,-13,-31,37,-58,-27,-29,-19,21,14
-7,31,35,-14,-28,36,-60,-27,-29,-19,21,14
-7,31,35,-14,-28,36,-61,-27,-29,-19,21,14
-7,31,35,-14,-28,36,-63,-27,-29,-19,21,14
-7,31,35,-14,-28,36,-63,-26,-29,-19,21,15
-7,30,34,-13,-27,34,-64,-26,-29,-19,21,14
-9,28,34,-10,-28,34,-64,-26,-29,-19,21,12
-9,26,32,-10,-26,31,-66,-26,-29,-20,20,11
-9,26,32,-10,-26,31,-66,-25,-29,-20,20,9
-9,24,31,-9,-26,30,-66,-24,-29,-20,20,8
-9,24,31,-9,-26,30,-66,-24,-29,-20,20,8
-9,24,31,-9,-26,30,-66,-23,-29,-20,20,8
-9,24,31,-9,-26,30,-66,-22,-28,-20,21,8
-7,24,29,-10,-24,29,-66,-23,-28,-20,21,6
-7,24,29,-10,-24,29,-66,-23,-28,-20,21,6
-6,24,28,-10,-22,28,-66,-23,-28,-20,21,6
-6,24,28,-10,-22,28,-64,-23,-28,-19,21,6
-6,24,28,-10,-22,28,-63,-24,-28,-19,23,6
-5,26,29,-12,-22,30,-60,-24,-28,-19,23,8
-7,26,31,-11,-25,31,-58,-24,-28,-18,24,8
-7,28,32,-12,-26,32,-54,-24,-28,-18,25,9
-7,28,32,-12,-26,32,-53,-24,-28,-18,25,8
-7,28,32,-12,-26,32,-51,-24,-28,-18,25,8
-7,28,32,-12,-26,32,-50,-24,-28,-18,25,8
-5,30,32,-14,-25,34,-48,-24,-28,-17,25,8
-4,30,31,-15,-23,33,-48,-24,-28,-17,24,6
-4,30,31,-15,-23,33,-48,-24,-28,-17,24,6
-4,30,31,-15,-23,33,-48,-24,-28,-17,24,4
-4,30,31,-15,-23,33,-47,-24,-28,-17,24,4
-4,28,29,-14,-21,31,-50,-24,-29,-17,23,3
-2,28,28,-14,-20,30,-51,-24,-29,-17,23,3
0,28,26,-16,-17,29,-54,-24,-29,-17,23,3
1,28,24,-17,-15,28,-56,-24,-29,-17,23,3
0,26,24,-15,-16,27,-58,-24,-29,-17,23,3
-2,24,24,-13,-18,27,-60,-24,-28,-17,23,3
-4,23,24,-11,-19,26,-61,-24,-28,-17,23,3
-4,23,24,-11,-19,26,-61,-24,-28,-17,23,3
-6,21,24,-9,-20,24,-60,-24,-28,-17,23,3
-7,21,26,-8,-21,25,-58,-24,-27,-17,23,3
-7,21,26,-8,-21,25,-56,-24,-27,-17,23,3
-9,21,28,-6,-24,27,-54,-24,-26,-16,24,4
-9,21,28,-6,-24,27,-53,-24,-26,-16,24,4
-11,21,29,-6,-26,27,-50,-24,-26,-16,24,4
-13,21,31,-5,-28,28,-48,-24,-26,-16,24,4
-14,21,32,-4,-30,29,-45,-24,-26,-15,24,6
-13,21,31,-5,-28,28,-45,-24,-27,-15,23,4
-13,21,31,-5,-28,28,-43,-24,-27,-15,23,4
-11,21,29,-6,-26,27,-41,-24,-27,-15,23,3
-9,23,29,-8,-25,28,-40,-24,-27,-15,23,3
-9,21,28,-6,-24,27,-41,-24,-27,-15,21,1
-9,21,28,-6,-24,27,-41,-24,-27,-15,21,1
-7,21,26,-8,-21,25,-43,-24,-27,-15,21,1
-7,21,26,-8,-21,25,-43,-24,-27,-15,21,1
-7,19,24,-7,-20,24,-47,-24,-27,-15,21,1
-7,19,24,-7,-20,24,-48,-23,-27,-15,21,1
-7,17,23,-6,-20,22,-51,-23,-27,-15,20,1
-7,17,23,-6,-20,22,-53,-22,-26,-15,20,1
-6,17,21,-6,-18,21,-54,-22,-26,-15,20,1
-6,17,21,-6,-18,21,-56,-22,-26,-15,20,1
-6,17,21,-6,-18,21,-58,-22,-26,-15,20,1
-6,17,21,-6,-18,21,-60,-21,-25,-15,20,1
-6,17,21,-6,-18,21,-58,-21,-25,-15,20,1
-6,17,21,-6,-18,21,-54,-21,-25,-14,20,3
-6,17,21,-6,-18,21,-53,-21,-25,-14,20,3
-5,19,23,-8,-18,23,-50,-21,-25,-14,21,4
-5,19,23,-8,-18,23,-50,-21,-25,-14,21,4
-7,19,24,-7,-20,24,-48,-21,-25,-14,21,6
-7,19,24,-7,-20,24,-47,-21,-25,-14,21,6
-7,21,26,-8,-21,25,-45,-21,-25,-13,21,8
-9,19,26,-6,-22,24,-43,-21,-25,-13,21,6
-13,17,28,-3,-26,24,-41,-21,-25,-13,21,6
-14,16,28,-2,-27,24,-40,-21,-25,-13,21,6
-16,16,29,-1,-29,24,-38,-21,-25,-13,21,6
-14,16,28,-2,-27,24,-40,-21,-25,-13,21,4
-14,16,28,-2,-27,24,-40,-21,-25,-13,21,4
-12,16,26,-2,-25,23,-41,-21,-25,-13,21,4
-12,16,26,-2,-25,23,-41,-21,-25,-13,21,4
-12,16,26,-2,-25,23,-40,-21,-25,-13,21,4
-11,17,26,-4,-24,24,-38,-21,-25,-12,21,4
-9,19,26,-6,-22,24,-37,-21,-25,-12,21,4
-7,21,26,-8,-21,25,-33,-21,-25,-12,21,4
-6,21,24,-9,-20,24,-33,-21,-25,-12,21,4
-4,23,24,-11,-19,26,-33,-21,-25,-12,21,6
-1,23,23,-12,-16,24,-33,-21,-25,-12,21,6
0,24,23,-14,-15,25,-31,-21,-24,-11,21,8
0,23,21,-13,-14,24,-31,-21,-24,-12,20,6
0,23,21,-13,-14,24,-31,-21,-24,-12,20,6
-2,21,21,-10,-15,23,-31,-21,-24,-12,20,6
-2,21,21,-10,-15,23,-30,-21,-24,-12,20,6
-1,19,19,-10,-14,21,-30,-21,-25,-12,19,4
-4,17,19,-8,-15,20,-30,-21,-25,-12,19,4
-5,16,19,-6,-16,20,-30,-22,-25,-12,19,4
-7,14,19,-4,-17,18,-28,-22,-25,-12,19,4
-9,13,19,-2,-18,17,-31,-22,-25,-12,19,4
-9,13,19,-2,-18,17,-33,-22,-25,-12,19,4
-9,13,19,-2,-18,17,-35,-22,-25,-12,19,4
-9,13,19,-2,-18,17,-37,-21,-25,-12,19,4
-9,13,19,-2,-18,17,-37,-21,-25,-11,19,4
-7,14,19,-4,-17,18,-37,-21,-24,-10,20,6
-5,16,19,-6,-16,20,-37,-20,-24,-10,20,6
-4,17,19,-8,-15,20,-37,-19,-24,-9,21,8
-4,17,19,-8,-15,20,-35,-19,-24,-9,21,8
-4,17,19,-8,-15,20,-33,-19,-23,-9,21,8
-4,17,19,-8,-15,20,-31,-19,-23,-9,21,8
-4,19,21,-9,-16,22,-30,-19,-22,-9,21,8
-6,17,21,-6,-18,21,-27,-19,-23,-9,20,8
-6,17,21,-6,-18,21,-24,-19,-23,-9,20,8
-7,16,21,-5,-19,20,-20,-19,-23,-9,20,8
-9,16,23,-4,-20,21,-17,-18,-23,-9,20,8
-7,16,21,-5,-19,20,-17,-18,-23,-9,20,8
-7,16,21,-5,-19,20,-15,-18,-22,-9,20,7
-8,15,21,-4,-19,20,-16,-19,-22,-9,20,7
-7,16,21,-5,-19,20,-13,-18,-22,-8,20,7
-4,19,21,-8,-17,22,-15,-17,-21,-8,20,8
-3,22,23,-11,-17,24,-17,-16,-20,-7,21,9
1,26,23,-16,-14,27,-18,-16,-20,-7,21,9
4,30,24,-19,-14,29,-19,-14,-19,-6,22,11
6,33,26,-22,-14,32,-20,-13,-18,-6,23,12
8,36,27,-26,-14,34,-22,-13,-17,-5,25,14
9,40,29,-28,-14,37,-23,-12,-16,-3,26,15
11,44,32,-32,-15,41,-24,-10,-15,-2,28,18
11,44,32,-32,-15,41,-25,-11,-15,-2,28,18
9,44,34,-30,-18,43,-26,-11,-15,-2,29,20
8,45,35,-30,-19,43,-28,-11,-15,-2,30,21
6,45,37,-30,-21,45,-28,-11,-15,-1,31,23
6,45,37,-30,-21,45,-30,-12,-15,-1,31,23
7,46,37,-30,-21,45,-31,-13,-15,-1,31,25
9,48,36,-33,-19,45,-33,-13,-15,-1,32,25
9,50,38,-34,-20,47,-33,-13,-15,-0,33,27
10,49,37,-34,-19,47,-33,-14,-16,-0,33,26
13,51,36,-37,-17,47,-33,-15,-16,-0,33,27
17,53,35,-40,-14,47,-33,-15,-16,-0,33,27
19,55,35,-42,-13,49,-32,-16,-16,-0,34,28
24,56,32,-46,-8,47,-33,-16,-16,-0,34,28
28,58,31,-49,-4,48,-33,-16,-15,0,35,30
33,60,28,-53,1,47,-33,-15,-15,0,35,30
36,61,26,-56,4,47,-33,-14,-14,1,36,32
38,58,21,-54,8,43,-33,-15,-15,0,35,30
40,54,16,-53,13,38,-33,-15,-15,-0,35,30
42,52,12,-53,17,34,-33,-15,-16,-1,34,30
43,48,7,-52,21,29,-33,-15,-17,-1,34,30
42,43,4,-48,22,25,-33,-16,-18,-2,33,28
40,40,3,-45,22,22,-33,-17,-19,-2,32,27
36,34,1,-39,20,19,-33,-19,-20,-3,31,25
34,31,-1,-37,20,16,-31,-19,-22,-3,31,25
29,26,-1,-31,18,14,-33,-21,-24,-5,31,22
23,21,-1,-25,14,11,-33,-22,-25,-6,30,20
18,16,-1,-19,11,8,-33,-24,-26,-7,29,18
12,13,1,-14,7,8,-33,-24,-28,-8,28,17
9,11,3,-10,3,8,-33,-24,-27,-8,27,15
7,11,4,-10,1,8,-33,-24,-27,-9,27,16
6,11,6,-10,0,10,-33,-24,-27,-10,27,14
4,11,7,-9,-2,10,-33,-23,-27,-9,27,14
1,9,8,-6,-4,9,-33,-23,-27,-10,26,13
0,9,9,-5,-6,10,-32,-24,-27,-10,26,11
-1,8,9,-3,-7,9,-30,-23,-27,-10,25,9
-3,8,10,-3,-9,10,-28,-23,-28,-10,25,8
-4,7,10,-2,-9,10,-27,-23,-28,-10,24,8
-4,7,10,-2,-9,10,-25,-22,-28,-11,24,7
-4,7,10,-2,-9,10,-24,-21,-27,-10,24,8
-4,9,12,-3,-10,12,-22,-20,-27,-10,24,7
-7,6,12,1,-12,10,-22,-21,-27,-10,23,6
-9,4,12,3,-14,9,-22,-21,-27,-10,23,6
-11,3,12,5,-14,8,-22,-21,-27,-10,21,6
-15,1,14,8,-19,8,-22,-21,-27,-10,21,6
-16,-1,13,10,-19,7,-24,-21,-27,-10,21,6
-16,-1,13,10,-19,7,-25,-21,-27,-11,21,6
-17,-1,14,10,-20,8,-27,-21,-27,-10,21,6
-18,-1,15,10,-21,8,-27,-20,-27,-10,21,8
-17,-2,13,11,-20,6,-25,-20,-28,-11,21,6
-16,-2,12,10,-18,6,-24,-21,-28,-11,20,4
-17,-4,11,12,-17,4,-22,-22,-29,-12,19,3
-14,-4,9,10,-14,3,-20,-22,-29,-12,18,1
-8,-3,4,6,-8,1,-18,-24,-29,-12,16,0
1,1,-1,-1,1,0,-15,-26,-30,-13,15,-2
11,4,-6,-8,10,-1,-14,-28,-31,-13,14,-3
17,7,-8,-14,16,0,-10,-30,-31,-13,13,-3
0,3,3,-2,-2,3,-4,-26,-29,-10,15,0
-11,-1,9,6,-13,5,-7,-28,-32,-10,16,-2
-33,-12,17,26,-31,3,3,-23,-27,-9,17,-2
-17,-2,13,11,-20,6,-7,-29,-34,-12,17,0
-49,-16,28,37,-48,7,-2,-22,-30,-9,19,1
-47,-22,20,39,-42,0,-10,-23,-31,-13,11,-8
-33,-15,14,27,-29,0,-18,-20,-27,-11,14,-1
-26,-3,19,17,-29,9,-13,-18,-25,-9,12,-2
-40,-6,29,26,-43,13,6,-14,-18,-8,15,1
-28,-9,16,21,-28,5,-7,-23,-24,-11,12,-2
-4,9,12,-3,-10,12,1,-17,-22,-7,17,6
25,13,-10,-21,22,1,7,-21,-25,-10,11,-4
8,8,1,-9,4,5,27,-17,-24,-12,9,-9
-22,-10,10,18,-20,1,19,-19,-27,-12,5,-13
-75,-27,40,57,-71,8,43,-10,-20,-14,3,-18
-74,-34,32,61,-65,0,48,-8,-23,-17,-12,-44
-86,-37,40,69,-78,3,58,-1,-18,-19,-16,-49
-86,-51,27,78,-69,-11,68,8,-16,-22,-28,-68
-83,-59,16,81,-60,-22,101,26,-6,-24,-42,-88
-75,-68,1,81,-45,-34,112,38,3,-23,-47,-99
-76,-69,1,83,-46,-35,123,47,15,-17,-41,-93
-57,-77,-23,77,-18,-52,115,48,20,-11,-42,-95
-62,-98,-38,93,-10,-72,132,60,36,-1,-39,-95
-69,-105,-38,100,-14,-75,122,73,54,16,-30,-93
-49,-99,-51,86,6,-80,147,101,88,43,-5,-66
-20,-101,-77,72,40,-96,144,113,109,66,12,-54
-12,-113,-94,74,57,-111,120,108,114,84,29,-35
17,-118,-125,61,94,-130,88,96,114,104,49,-18
51,-103,-140,33,124,-131,77,106,137,138,84,23
113,-52,-146,-30,166,-108,47,118,176,199,147,91
159,3,-135,-89,185,-73,-14,108,209,266,225,188
230,63,-140,-163,230,-45,-86,73,210,302,269,240
306,110,-161,-233,289,-32,-117,52,207,316,304,292
325,55,-229,-211,346,-98,-123,69,206,296,291,288
295,-16,-270,-152,356,-159,-60,77,192,265,264,263
225,-75,-263,-79,310,-185,-31,34,142,226,225,222
176,-99,-245,-37,270,-188,-41,-32,61,174,190,208
166,-114,-249,-23,266,-198,-102,-106,-37,109,147,184
140,-145,-256,10,256,-218,-123,-153,-120,39,96,148
146,-171,-285,21,280,-247,-129,-178,-175,-19,48,116
138,-237,-340,65,311,-312,-129,-194,-223,-83,-0,85
83,-321,-371,145,301,-374,-123,-203,-253,-126,-39,51
69,-350,-385,170,302,-397,-108,-192,-245,-137,-52,40
43,-377,-389,200,289,-412,-74,-182,-229,-134,-66,9
-5,-351,-323,211,216,-362,-29,-167,-208,-124,-80,-16
-53,-328,-260,224,145,-315,-25,-169,-203,-121,-94,-47
-92,-284,-185,219,71,-251,-24,-169,-196,-113,-100,-62
-117,-237,-120,206,12,-190,-25,-165,-184,-100,-99,-68
-141,-210,-74,203,-32,-151,-9,-148,-168,-92,-95,-73
-103,-197,-94,174,3,-155,-16,-149,-168,-95,-103,-92
-104,-181,-79,165,-8,-138,3,-138,-155,-87,-99,-89
-131,-192,-65,186,-33,-135,14,-126,-145,-85,-97,-98
-132,-180,-54,179,-41,-124,37,-105,-123,-74,-88,-93
-86,-173,-88,150,9,-139,16,-99,-116,-69,-82,-92
-110,-169,-62,161,-23,-122,20,-81,-99,-60,-72,-77
-114,-162,-52,159,-32,-113,19,-72,-89,-51,-65,-71
-59,-112,-53,99,1,-87,33,-50,-71,-39,-46,-46
-38,-81,-43,69,7,-66,27,-43,-60,-29,-37,-32
-33,-44,-12,45,-12,-29,42,-25,-43,-18,-24,-11
-41,-42,-4,48,-22,-24,35,-24,-42,-18,-24,-15
-26,-34,-9,34,-9,-22,37,-23,-38,-15,-18,-5
-18,-24,-7,25,-6,-16,42,-23,-37,-18,-27,-11
-37,-17,16,30,-33,1,54,-15,-28,-13,-22,-4
-7,-2,4,6,-8,1,40,-16,-27,-10,-19,-2
-26,-9,14,20,-26,3,30,-12,-23,-8,-17,-2
-5,3,7,2,-8,6,29,-15,-25,-8,-19,-5
-38,-3,31,23,-43,16,39,-9,-20,-6,-16,4
-25,-1,21,14,-30,12,32,-13,-22,-7,-16,3
-30,-4,23,19,-33,10,53,-9,-18,-5,-12,11
-5,9,13,-2,-12,13,58,-10,-19,-6,-16,9
-1,16,16,-8,-12,17,52,-7,-17,-3,-12,18
-1,9,10,-4,-8,10,35,-15,-22,-7,-20,6
-36,-4,27,22,-39,13,30,-11,-18,-6,-17,4
-40,-1,34,22,-47,19,16,-12,-19,-4,-16,12
-38,7,40,17,-49,27,29,-6,-12,-0,-10,18
2,16,13,-10,-8,16,24,-10,-15,-2,-15,11
-14,9,21,2,-23,17,29,-9,-16,-2,-13,14
2,19,16,-12,-9,20,30,-8,-15,0,-12,18
-23,9,29,7,-33,21,50,-6,-12,0,-13,9
3,22,18,-14,-10,21,43,-9,-15,-0,-15,11
-1,19,19,-10,-14,21,33,-8,-14,-0,-14,11
-4,19,21,-9,-16,22,24,-6,-13,0,-13,13
-5,19,23,-8,-18,23,14,-6,-13,1,-12,14
-7,19,24,-7,-20,24,6,-4,-11,1,-11,16
-7,18,23,-6,-19,22,9,-3,-10,1,-11,15
-6,17,21,-6,-18,21,14,-1,-9,2,-10,15
-4,17,19,-8,-15,20,17,0,-8,3,-10,15
-4,17,19,-8,-15,20,22,2,-6,3,-9,17
-7,14,19,-4,-17,18,26,2,-5,3,-9,15
-9,13,19,-2,-18,17,29,2,-5,3,-9,15
-12,9,19,2,-20,16,31,2,-4,3,-9,15
-17,7,21,5,-24,16,35,2,-3,4,-9,15
-16,7,21,5,-23,15,35,2,-4,4,-9,15
-15,8,21,4,-23,16,37,2,-3,4,-9,16
-16,8,21,4,-24,16,39,2,-3,5,-9,15
-16,9,23,3,-25,17,40,3,-2,5,-9,16
-12,11,21,0,-21,18,40,3,-2,6,-9,16
-9,13,19,-2,-18,17,40,4,-1,6,-9,17
-5,14,18,-5,-14,17,40,5,-0,7,-9,17
-2,15,16,-7,-12,17,40,6,1,7,-9,17
1,16,14,-10,-9,17,38,8,2,8,-9,17
0,16,15,-9,-10,17,38,9,3,9,-9,17
1,16,14,-10,-9,17,37,11,4,9,-9,17
1,16,14,-10,-9,17,37,13,5,10,-8,17
1,15,13,-9,-9,15,37,14,6,10,-8,15
0,13,12,-7,-8,13,37,15,8,10,-8,15
1,11,10,-6,-6,12,37,16,9,10,-8,14
0,11,11,-6,-7,12,39,17,10,11,-8,14
-2,9,11,-4,-9,11,40,18,11,11,-8,14
-4,9,12,-3,-10,12,43,20,13,12,-8,14
-4,9,12,-3,-10,12,47,21,14,12,-8,14
-5,9,13,-2,-12,13,50,22,16,13,-8,14
-4,9,12,-3,-10,12,51,23,17,13,-8,14
-2,9,11,-4,-9,11,53,24,19,14,-8,14
0,9,9,-5,-6,10,54,26,20,14,-8,13
0,9,9,-5,-6,10,56,27,21,15,-8,14
2,9,7,-6,-3,9,54,29,23,15,-9,14
1,9,8,-6,-4,9,55,30,24,16,-10,14
4,9,6,-7,-2,8,53,32,25,17,-11,14
4,9,6,-7,-2,8,53,33,27,17,-11,14
6,8,3,-7,2,6,53,34,28,17,-13,13
5,6,1,-6,3,4,53,35,29,18,-13,10
7,5,-2,-6,6,2,53,36,30,18,-15,9
7,3,-4,-5,7,0,54,38,31,18,-16,8
7,1,-5,-3,7,-2,55,39,33,19,-17,6
5,-1,-5,-2,6,-3,56,42,35,20,-17,4
6,-2,-7,-2,8,-4,58,44,37,21,-18,3
5,-3,-7,-1,8,-5,60,46,39,22,-19,3
3,-6,-8,2,7,-8,61,48,41,22,-19,1
2,-7,-9,3,7,-8,63,51,43,23,-19,1
2,-9,-10,4,8,-10,65,54,46,24,-19,1
1,-10,-10,6,7,-10,66,57,49,25,-19,1
1,-12,-12,7,9,-13,68,61,52,26,-18,1
0,-12,-11,7,8,-13,70,65,56,27,-17,1
-1,-13,-11,9,7,-13,71,69,59,29,-17,1
-1,-13,-11,9,7,-13,75,73,63,30,-16,1
1,-15,-15,9,10,-16,76,77,66,31,-17,0
4,-15,-18,7,14,-17,78,81,70,32,-17,0
7,-15,-21,6,18,-19,79,85,73,33,-17,-2
11,-15,-24,3,22,-21,81,89,77,35,-17,-2
11,-19,-27,6,25,-24,85,93,80,36,-17,-3
13,-21,-31,6,28,-27,88,97,84,38,-17,-5
14,-22,-33,6,31,-29,91,102,88,39,-19,-6
17,-24,-37,5,35,-32,96,106,92,41,-18,-8
19,-27,-41,6,39,-36,99,111,95,42,-20,-11
20,-30,-46,7,43,-41,104,115,99,43,-21,-13
22,-34,-51,8,48,-45,109,120,102,44,-22,-16
22,-37,-54,10,49,-49,114,124,106,45,-23,-17
22,-41,-57,13,51,-52,120,130,111,47,-24,-19
24,-42,-60,12,54,-55,127,135,115,48,-25,-20
24,-46,-63,14,57,-59,134,141,120,50,-26,-22
24,-48,-65,15,58,-61,142,147,125,52,-27,-24
24,-52,-69,18,61,-66,148,152,129,53,-28,-27
23,-56,-73,21,63,-69,155,158,134,54,-29,-28
24,-59,-76,22,65,-73,161,164,139,55,-31,-32
24,-63,-79,24,67,-76,170,170,143,57,-32,-33
24,-66,-82,26,70,-80,173,176,148,58,-34,-37
24,-69,-85,28,71,-83,178,182,153,59,-34,-38
24,-73,-88,30,74,-87,183,188,157,60,-37,-39
25,-75,-91,30,77,-89,188,194,162,61,-37,-41
26,-79,-96,33,81,-94,193,198,166,62,-40,-44
28,-83,-101,34,84,-98,198,203,170,62,-42,-47
28,-88,-106,37,88,-104,202,207,173,63,-44,-51
27,-91,-108,40,89,-108,207,212,177,64,-45,-54
25,-96,-111,43,90,-112,211,215,179,64,-48,-58
26,-99,-115,45,94,-115,214,219,181,64,-50,-62
25,-103,-118,48,95,-119,217,222,184,64,-52,-66
26,-106,-121,49,98,-122,222,226,187,65,-53,-69
25,-112,-126,53,100,-128,225,227,187,64,-56,-74
24,-116,-129,56,101,-132,230,230,189,63,-59,-79
22,-121,-132,60,103,-136,234,231,190,63,-62,-84
22,-125,-135,62,105,-140,239,233,191,62,-64,-88
20,-130,-138,66,105,-144,240,233,190,61,-66,-93
19,-133,-140,69,106,-147,243,234,190,60,-69,-98
18,-136,-143,71,107,-150,247,235,190,59,-72,-102
17,-140,-145,74,108,-153,250,236,190,58,-73,-106
13,-143,-145,78,105,-154,250,234,189,56,-76,-110
9,-147,-145,82,104,-156,251,233,188,54,-79,-114
6,-150,-145,86,101,-158,252,232,187,53,-82,-118
4,-152,-145,89,100,-159,253,231,185,51,-84,-121
1,-152,-143,89,98,-159,252,228,182,49,-86,-125
-1,-152,-140,91,94,-157,251,225,180,47,-88,-128
-5,-152,-137,93,90,-155,250,222,177,46,-90,-131
-8,-151,-133,94,86,-152,250,220,174,44,-92,-134
-11,-150,-130,95,82,-150,247,215,170,41,-94,-138
-14,-149,-126,96,77,-147,243,211,166,39,-95,-139
-17,-147,-123,96,73,-145,240,206,162,37,-97,-141
-20,-145,-118,97,69,-141,239,203,158,35,-98,-142
-21,-143,-115,96,65,-138,234,196,152,32,-100,-144
-24,-142,-111,97,61,-135,231,190,147,30,-101,-144
-25,-140,-108,97,59,-133,225,184,142,27,-102,-145
-28,-137,-104,96,54,-129,222,178,137,25,-103,-145
-29,-135,-101,96,51,-126,215,171,131,23,-103,-145
-31,-132,-96,96,47,-122,209,165,126,21,-103,-144
-34,-130,-91,96,42,-118,202,159,120,18,-103,-142
-37,-127,-86,96,37,-114,198,154,115,17,-103,-141
-36,-125,-85,94,37,-112,190,145,109,14,-104,-141
-38,-124,-82,95,33,-110,183,138,102,12,-104,-139
-40,-122,-79,94,30,-107,175,130,96,9,-104,-138
-40,-118,-76,93,28,-103,168,123,90,7,-105,-136
-40,-113,-71,89,25,-98,162,115,84,5,-103,-133
-40,-108,-66,86,21,-93,155,109,79,3,-102,-128
-41,-103,-61,84,18,-88,149,102,74,2,-100,-125
-40,-96,-55,79,14,-80,144,95,69,1,-98,-121
-41,-93,-52,78,11,-78,137,88,63,-1,-97,-119
-42,-90,-48,77,8,-73,133,81,58,-2,-95,-116
-42,-87,-44,75,5,-70,127,74,52,-3,-94,-112
-43,-83,-40,73,2,-66,122,68,47,-5,-93,-109
-41,-78,-37,69,1,-61,117,62,43,-6,-90,-106
-42,-73,-32,67,-3,-56,114,56,39,-6,-87,-101
-40,-68,-29,62,-4,-51,110,51,35,-7,-85,-97
-38,-61,-24,57,-7,-45,107,46,31,-8,-81,-92
-36,-58,-23,54,-6,-43,102,41,27,-9,-78,-88
-34,-54,-21,51,-6,-40,97,37,24,-9,-75,-86
-33,-51,-19,49,-6,-37,93,32,20,-10,-73,-82
-31,-46,-16,45,-8,-33,87,28,17,-10,-70,-78
-29,-44,-16,42,-6,-32,81,24,13,-11,-67,-74
-25,-41,-16,38,-4,-30,76,20,10,-12,-65,-71
-22,-38,-16,34,-2,-29,72,17,7,-12,-62,-68
-20,-34,-15,31,-2,-26,66,13,4,-13,-59,-65
-17,-32,-15,29,0,-25,60,10,2,-13,-57,-63
-18,-31,-13,29,-2,-23,55,7,1,-14,-54,-60
-18,-30,-12,28,-3,-22,49,4,-2,-14,-52,-57
-16,-26,-10,24,-3,-19,44,1,-4,-14,-49,-54
-17,-24,-8,24,-4,-17,38,-1,-5,-14,-47,-51
-14,-21,-7,21,-4,-15,35,-3,-6,-14,-45,-47
-14,-19,-6,19,-4,-13,31,-4,-7,-14,-42,-44
-14,-16,-3,18,-7,-10,28,-6,-9,-14,-39,-41
-12,-12,-1,14,-7,-6,26,-7,-9,-14,-37,-38
-11,-9,1,12,-7,-4,22,-8,-10,-13,-35,-35
-9,-6,3,9,-8,-1,19,-10,-11,-13,-32,-32
-9,-2,6,6,-9,2,18,-10,-11,-12,-29,-27
-9,-1,7,6,-10,3,14,-11,-11,-12,-28,-25
-9,1,9,5,-12,6,12,-12,-12,-11,-27,-22
-9,3,10,3,-12,7,9,-12,-13,-10,-26,-21
-11,4,13,4,-15,10,8,-12,-13,-10,-24,-18
-11,4,13,4,-15,10,6,-13,-13,-10,-24,-18
-11,6,15,2,-16,12,4,-14,-14,-10,-23,-16
-11,6,15,2,-16,12,3,-15,-15,-10,-22,-15
-11,7,16,2,-17,13,3,-15,-15,-9,-21,-13
-9,9,16,-1,-16,14,1,-15,-15,-9,-21,-13
-7,11,16,-2,-15,15,1,-15,-15,-9,-20,-11
-5,13,16,-4,-14,16,1,-15,-15,-9,-19,-9
-6,14,18,-5,-15,17,1,-15,-15,-9,-18,-8
-6,14,18,-5,-15,17,-1,-15,-15,-9,-17,-6
-6,14,18,-5,-15,17,-1,-15,-15,-9,-16,-5
-6,14,18,-5,-15,17,-1,-15,-15,-9,-16,-3
-5,16,19,-6,-16,20,-1,-15,-14,-9,-15,-2
-5,16,19,-6,-16,20,-1,-15,-14,-9,-15,-2
-4,17,19,-8,-15,20,-1,-15,-13,-9,-14,0
-1,19,19,-10,-14,21,-1,-15,-13,-9,-13,1
-2,21,21,-10,-15,23,-1,-15,-12,-8,-12,3
-5,19,23,-8,-18,23,-1,-16,-12,-8,-12,3
-7,19,24,-7,-20,24,1,-16,-12,-8,-11,4
-9,19,26,-6,-22,24,1,-17,-12,-8,-11,6
-12,19,29,-4,-26,27,3,-17,-12,-8,-10,8
-11,19,28,-5,-25,26,3,-18,-12,-8,-10,8
-11,19,28,-5,-25,26,3,-18,-12,-8,-10,8
-11,19,28,-5,-25,26,3,-18,-12,-8,-10,8
-9,21,28,-6,-24,27,4,-18,-12,-8,-9,8
-9,21,28,-6,-24,27,3,-18,-12,-8,-9,8
-9,21,28,-6,-24,27,3,-18,-12,-8,-9,8
-9,21,28,-6,-24,27,1,-18,-12,-8,-9,8
-9,21,28,-6,-24,27,1,-17,-12,-7,-9,8
-9,21,28,-6,-24,27,-1,-17,-12,-7,-9,8
-7,23,28,-9,-23,27,-2,-17,-12,-7,-8,8
-6,24,28,-10,-22,28,-4,-17,-12,-7,-8,8
-4,26,28,-13,-20,29,-5,-16,-12,-7,-7,9
-2,28,28,-14,-20,30,-5,-16,-11,-7,-7,9
-1,30,29,-16,-20,31,-5,-15,-11,-6,-7,11
0,31,29,-18,-20,32,-5,-15,-10,-6,-7,11
1,34,31,-21,-20,35,-4,-14,-9,-6,-5,12
1,34,31,-21,-20,35,-4,-15,-9,-6,-5,12
0,34,32,-20,-21,36,-2,-15,-9,-6,-5,12
0,34,32,-20,-21,36,-2,-15,-9,-6,-5,12
-2,34,34,-18,-24,37,-1,-15,-9,-6,-5,14
-2,34,34,-18,-24,37,-1,-15,-9,-6,-5,14
-4,34,35,-18,-26,38,-1,-15,-9,-6,-5,14
-4,34,35,-18,-26,38,-1,-15,-9,-6,-5,14
-4,36,37,-19,-27,40,-1,-15,-9,-6,-4,14
-4,36,37,-19,-27,40,-4,-16,-9,-6,-4,14
-5,36,38,-18,-29,41,-5,-16,-9,-6,-4,14
-7,36,40,-17,-31,41,-9,-17,-10,-6,-4,14
-9,36,41,-16,-33,42,-10,-17,-10,-6,-3,14
-9,36,41,-16,-33,42,-12,-18,-11,-6,-3,14
-9,36,41,-16,-33,42,-12,-18,-11,-6,-3,14
-9,36,41,-16,-33,42,-12,-18,-11,-7,-3,14
-7,38,41,-18,-32,43,-12,-18,-11,-7,-3,14
-9,36,41,-16,-33,42,-14,-19,-12,-7,-3,14
-9,36,41,-16,-33,42,-14,-20,-12,-7,-2,14
-9,36,41,-16,-33,42,-14,-21,-12,-7,-2,14
-11,36,43,-15,-36,43,-14,-21,-12,-7,-1,14
-11,36,43,-15,-36,43,-12,-21,-13,-8,-1,14
-11,36,43,-15,-36,43,-10,-21,-13,-8,0,14
-11,36,43,-15,-36,43,-9,-21,-13,-8,1,14
-9,38,43,-17,-35,44,-7,-21,-13,-8,2,15
-9,38,43,-17,-35,44,-12,-22,-14,-8,2,14
-9,38,43,-17,-35,44,-15,-22,-15,-8,3,14
-9,38,43,-17,-35,44,-18,-23,-15,-8,3,14
-7,40,43,-19,-33,45,-22,-23,-15,-8,4,14
-7,40,43,-19,-33,45,-24,-24,-16,-8,4,14
-7,40,43,-19,-33,45,-24,-24,-16,-8,5,14
-7,40,43,-19,-33,45,-25,-25,-16,-8,5,14
-6,41,43,-21,-32,45,-25,-26,-16,-8,6,15
-7,40,43,-19,-33,45,-27,-27,-17,-9,6,15
-9,40,44,-18,-35,45,-28,-27,-18,-9,7,15
-13,38,46,-14,-39,45,-30,-28,-18,-9,7,15
-14,38,48,-14,-41,46,-31,-29,-18,-9,8,15
-14,38,48,-14,-41,46,-30,-30,-19,-10,8,15
-14,40,49,-15,-42,48,-27,-30,-19,-10,9,17
-14,40,49,-15,-42,48,-24,-30,-20,-10,9,18
-14,41,51,-16,-43,50,-20,-30,-20,-10,10,20
-14,41,51,-16,-43,50,-20,-31,-20,-10,9,20
-12,43,51,-18,-42,51,-18,-32,-20,-10,9,20
-11,44,51,-20,-41,52,-18,-33,-21,-10,9,20
-9,46,51,-22,-39,52,-17,-33,-21,-10,9,21
-7,46,49,-23,-37,52,-18,-34,-22,-10,8,20
-6,48,49,-25,-37,52,-18,-35,-22,-10,8,20
-4,48,48,-26,-34,52,-18,-36,-23,-10,8,20
-1,50,48,-28,-33,52,-18,-36,-24,-10,8,20
-4,48,48,-26,-34,52,-22,-37,-24,-11,7,18
-4,48,48,-26,-34,52,-24,-37,-24,-11,7,18
-5,46,48,-24,-35,51,-27,-37,-24,-11,7,18
-5,46,48,-24,-35,51,-28,-37,-24,-11,7,18
-7,44,48,-22,-37,50,-30,-38,-25,-12,6,18
-9,44,49,-21,-39,51,-31,-38,-25,-12,6,18
-11,44,51,-20,-41,52,-33,-38,-25,-12,5,18
-13,44,53,-18,-43,52,-35,-38,-25,-12,5,18
-14,43,53,-17,-44,52,-35,-39,-26,-12,5,18
-14,43,53,-17,-44,52,-35,-39,-26,-12,5,18
-14,43,53,-17,-44,52,-35,-39,-26,-12,5,18
-14,43,53,-17,-44,52,-35,-39,-26,-12,5,20
-12,43,51,-18,-42,51,-35,-39,-27,-13,4,18
-12,43,51,-18,-42,51,-35,-40,-27,-13,4,18
-12,43,51,-18,-42,51,-35,-41,-27,-13,4,18
-11,44,51,-20,-41,52,-35,-41,-27,-13,4,18
-11,43,49,-19,-40,50,-37,-42,-28,-13,3,18
-11,43,49,-19,-40,50,-38,-42,-28,-13,3,18
-11,43,49,-19,-40,50,-40,-42,-28,-13,3,18
-11,43,49,-19,-40,50,-40,-42,-28,-13,3,18
-11,43,49,-19,-40,50,-41,-42,-28,-13,3,18
-9,44,49,-21,-39,51,-41,-42,-28,-13,3,18
-9,44,49,-21,-39,51,-41,-42,-28,-13,3,18
-7,46,49,-23,-37,52,-41,-42,-27,-13,3,18
-5,46,48,-24,-35,51,-45,-42,-28,-13,3,17
-5,46,48,-24,-35,51,-47,-42,-28,-13,3,17
-4,46,46,-25,-33,50,-50,-43,-29,-13,3,15
-4,46,46,-25,-33,50,-51,-43,-29,-13,3,15
-4,46,46,-25,-33,50,-53,-44,-29,-13,3,15
-5,46,48,-24,-35,51,-53,-44,-29,-13,3,15
-5,46,48,-24,-35,51,-53,-44,-29,-13,3,15
-6,48,49,-25,-37,52,-53,-44,-29,-13,3,15
-7,46,49,-23,-37,52,-54,-45,-29,-13,3,15
-9,46,51,-22,-39,52,-56,-45,-29,-13,3,15
-9,46,51,-22,-39,52,-58,-45,-29,-13,3,15
-11,46,53,-21,-42,54,-58,-45,-29,-13,3,15
-13,44,53,-18,-43,52,-58,-45,-29,-13,3,15
-13,44,53,-18,-43,52,-56,-45,-29,-13,3,15
-13,44,53,-18,-43,52,-56,-45,-29,-13,3,15
-14,44,54,-18,-45,53,-54,-44,-28,-13,3,15
-13,44,53,-18,-43,52,-54,-44,-28,-13,3,15
-11,46,53,-21,-42,54,-53,-43,-28,-13,3,15
-9,46,51,-22,-39,52,-53,-43,-28,-13,3,15
-7,48,51,-24,-38,53,-51,-42,-27,-12,3,17
-7,46,49,-23,-37,52,-51,-43,-28,-13,3,17
-7,46,49,-23,-37,52,-51,-43,-28,-13,3,17
-9,44,49,-21,-39,51,-51,-43,-28,-13,3,17
-9,44,49,-21,-39,51,-50,-43,-28,-13,3,17
-9,44,49,-21,-39,51,-50,-44,-28,-13,2,15
-9,44,49,-21,-39,51,-50,-44,-29,-13,2,15
-9,44,49,-21,-39,51,-50,-45,-29,-13,2,15
-9,44,49,-21,-39,51,-48,-45,-29,-13,2,15
-9,43,48,-20,-37,49,-50,-45,-30,-13,2,15
-9,43,48,-20,-37,49,-50,-45,-30,-13,2,15
-9,43,48,-20,-37,49,-51,-46,-30,-13,2,15
-9,43,48,-20,-37,49,-51,-46,-30,-12,2,15
-7,43,46,-21,-36,48,-53,-46,-31,-12,2,14
-7,43,46,-21,-36,48,-53,-46,-31,-12,2,14
-5,43,44,-22,-33,47,-54,-46,-31,-12,2,14
-5,43,44,-22,-33,47,-54,-46,-31,-12,2,14
-5,43,44,-22,-33,47,-54,-46,-31,-12,2,14
-7,43,46,-21,-36,48,-54,-45,-30,-12,3,14
-9,43,48,-20,-37,49,-54,-45,-29,-12,3,14
-9,44,49,-21,-39,51,-54,-45,-29,-11,3,14
-7,44,48,-22,-37,50,-54,-45,-29,-11,3,14
-7,44,48,-22,-37,50,-54,-44,-28,-11,3,14
-6,44,46,-22,-35,49,-54,-44,-28,-11,3,14
-6,44,46,-22,-35,49,-54,-43,-28,-10,4,15
-6,44,46,-22,-35,49,-54,-43,-28,-10,4,15
-7,44,48,-22,-37,50,-54,-43,-28,-10,5,15
-7,44,48,-22,-37,50,-54,-43,-28,-10,5,15
-7,46,49,-23,-37,52,-54,-42,-27,-10,6,17
-5,46,48,-24,-35,51,-56,-43,-28,-10,6,15
-5,46,48,-24,-35,51,-58,-43,-28,-10,6,15
-5,46,48,-24,-35,51,-60,-43,-28,-10,6,15
-5,46,48,-24,-35,51,-61,-43,-28,-9,6,15
-7,44,48,-22,-37,50,-63,-44,-28,-9,5,15
-11,43,49,-19,-40,50,-63,-45,-28,-9,5,15
-13,41,49,-17,-41,49,-63,-45,-29,-9,5,15
-14,41,51,-16,-43,50,-63,-45,-29,-9,5,15
-14,41,51,-16,-43,50,-64,-45,-29,-9,5,15
-12,43,51,-18,-42,51,-64,-45,-28,-9,5,15
-12,43,51,-18,-42,51,-64,-45,-28,-9,5,15
-11,44,51,-20,-41,52,-64,-45,-28,-8,6,15
-9,44,49,-21,-39,51,-64,-45,-28,-8,6,15
-9,44,49,-21,-39,51,-64,-45,-28,-8,6,15
-7,44,48,-22,-37,50,-64,-45,-28,-8,6,15
-7,44,48,-22,-37,50,-63,-44,-27,-7,6,17
-6,44,46,-22,-35,49,-63,-44,-27,-7,5,15
-4,46,46,-25,-33,50,-63,-43,-26,-7,5,15
-1,46,44,-26,-31,49,-63,-42,-25,-7,4,15
0,48,44,-28,-30,50,-63,-42,-25,-6,4,15
0,46,43,-27,-29,48,-64,-42,-25,-7,3,14
-2,44,43,-25,-31,47,-66,-43,-26,-7,3,14
-4,43,43,-23,-31,47,-68,-44,-27,-7,3,14
-6,41,43,-21,-32,45,-68,-44,-27,-7,3,14
-7,40,43,-19,-33,45,-70,-44,-28,-7,2,12
-9,38,43,-17,-35,44,-70,-44,-28,-7,2,12
-11,36,43,-15,-36,43,-70,-44,-28,-7,2,12
-12,36,44,-14,-37,44,-70,-44,-28,-7,2,12
-12,36,44,-14,-37,44,-70,-44,-28,-7,2,12
-11,38,44,-16,-37,45,-68,-44,-28,-7,2,12
-11,38,44,-16,-37,45,-68,-44,-28,-7,2,12
-9,40,44,-18,-35,45,-66,-44,-28,-7,2,14
-9,40,44,-18,-35,45,-66,-44,-29,-7,2,14
-7,41,44,-20,-34,46,-64,-44,-29,-6,2,14
-5,43,44,-22,-33,47,-63,-44,-29,-6,2,14
-6,44,46,-22,-35,49,-61,-43,-29,-6,2,15
-4,44,44,-24,-32,48,-63,-43,-29,-6,2,15
-4,44,44,-24,-32,48,-63,-43,-29,-6,2,15
-4,44,44,-24,-32,48,-63,-43,-29,-6,2,15
-4,44,44,-24,-32,48,-63,-43,-28,-5,2,15
-5,43,44,-22,-33,47,-64,-43,-28,-5,2,15
-5,43,44,-22,-33,47,-66,-42,-27,-5,2,15
-5,43,44,-22,-33,47,-68,-42,-26,-5,2,15
-7,43,46,-21,-36,48,-68,-42,-25,-4,3,15
-7,41,44,-20,-34,46,-68,-42,-26,-4,3,15
-7,41,44,-20,-34,46,-66,-42,-26,-4,3,15
-7,41,44,-20,-34,46,-66,-42,-26,-4,3,15
-7,41,44,-20,-34,46,-64,-42,-26,-4,3,15
-7,41,44,-20,-34,46,-63,-42,-26,-4,2,15
-9,41,46,-18,-37,47,-60,-42,-26,-3,2,15
-9,41,46,-18,-37,47,-56,-42,-26,-3,2,15
-11,41,48,-18,-38,48,-53,-42,-26,-3,2,15
-11,40,46,-17,-37,47,-53,-42,-26,-3,2,15
-11,40,46,-17,-37,47,-53,-42,-26,-3,2,15
-11,40,46,-17,-37,47,-53,-42,-26,-3,2,15
-11,40,46,-17,-37,47,-53,-42,-26,-2,2,15
-11,38,44,-16,-37,45,-54,-42,-26,-2,1,14
-9,38,43,-17,-35,44,-54,-42,-26,-2,1,14
-7,38,41,-18,-32,43,-56,-42,-26,-2,1,14
-7,38,41,-18,-32,43,-56,-42,-26,-2,1,14
-6,38,40,-18,-31,42,-56,-42,-26,-2,0,14
-4,38,38,-20,-28,41,-56,-42,-26,-2,0,14
-2,38,37,-21,-26,41,-56,-42,-26,-2,0,14
-2,38,37,-21,-26,41,-56,-42,-26,-2,0,14
-4,36,37,-19,-27,40,-58,-43,-27,-2,-1,14
-4,36,37,-19,-27,40,-58,-43,-27,-2,-1,14
-4,36,37,-19,-27,40,-58,-43,-27,-2,-2,14
-4,36,37,-19,-27,40,-58,-43,-27,-2,-2,14
-5,36,38,-18,-29,41,-58,-43,-27,-2,-2,14
-7,36,40,-17,-31,41,-56,-42,-26,-2,-2,15
-9,36,41,-16,-33,42,-54,-42,-26,-2,-2,15
-12,36,44,-14,-37,44,-53,-42,-25,-1,-1,17
-11,36,43,-15,-36,43,-54,-42,-26,-1,-2,15
-11,36,43,-15,-36,43,-54,-42,-26,-1,-2,15
-11,36,43,-15,-36,43,-54,-42,-26,-1,-3,15
-9,38,43,-17,-35,44,-54,-42,-26,-1,-3,15
-11,36,43,-15,-36,43,-54,-42,-26,-1,-3,15
-11,36,43,-15,-36,43,-53,-41,-26,-1,-3,15
-11,36,43,-15,-36,43,-51,-41,-26,-1,-3,15
-11,36,43,-15,-36,43,-50,-40,-26,-1,-3,15
-11,34,41,-14,-34,41,-51,-41,-27,-1,-4,14
-9,34,40,-14,-32,41,-53,-41,-27,-1,-5,14
-7,34,38,-16,-30,39,-54,-42,-28,-1,-5,14
-7,34,38,-16,-30,39,-54,-42,-28,-1,-5,14
-7,34,38,-16,-30,39,-56,-42,-28,-1,-5,14
-9,34,40,-14,-32,41,-56,-41,-27,-1,-5,15
-11,34,41,-14,-34,41,-58,-41,-27,-1,-5,15
-13,34,43,-13,-37,42,-58,-40,-26,-0,-5,17
-11,34,41,-14,-34,41,-58,-40,-26,-0,-5,17
-11,34,41,-14,-34,41,-58,-39,-25,-0,-5,17
-11,34,41,-14,-34,41,-58,-39,-25,-0,-5,17
-9,36,41,-16,-33,42,-58,-39,-25,-0,-5,17
-7,36,40,-17,-31,41,-56,-39,-25,-0,-5,17
-6,38,40,-18,-31,42,-54,-39,-25,0,-5,17
-1,40,38,-22,-26,42,-53,-39,-25,0,-5,17
0,41,38,-24,-26,43,-51,-39,-25,1,-5,18
0,41,38,-24,-26,43,-51,-39,-25,1,-5,18
0,41,38,-24,-26,43,-50,-39,-25,1,-5,18
0,41,38,-24,-26,43,-50,-39,-25,1,-5,18
-2,41,40,-22,-28,44,-48,-39,-25,1,-5,20
-4,40,40,-21,-29,43,-50,-40,-25,1,-5,18
-4,40,40,-21,-29,43,-50,-40,-25,1,-5,18
-6,38,40,-18,-31,42,-51,-41,-25,1,-5,18
-6,38,40,-18,-31,42,-51,-41,-25,2,-5,18
-6,38,40,-18,-31,42,-51,-41,-26,1,-5,18
-7,38,41,-18,-32,43,-51,-41,-26,1,-5,18
-7,38,41,-18,-32,43,-51,-41,-27,1,-5,18
-9,38,43,-17,-35,44,-50,-41,-27,1,-5,20
-7,38,41,-18,-32,43,-51,-41,-27,1,-7,18
-6,38,40,-18,-31,42,-53,-41,-26,1,-7,17
-4,38,38,-20,-28,41,-54,-41,-26,1,-7,15
-4,38,38,-20,-28,41,-54,-40,-25,1,-7,15
-4,38,38,-20,-28,41,-54,-40,-25,1,-7,15
-6,38,40,-18,-31,42,-53,-40,-25,1,-7,15
-6,38,40,-18,-31,42,-53,-40,-25,1,-7,15
-7,38,41,-18,-32,43,-51,-40,-25,2,-7,17
-7,38,41,-18,-32,43,-53,-40,-25,2,-7,17
-7,38,41,-18,-32,43,-54,-40,-25,2,-7,17
-7,38,41,-18,-32,43,-56,-40,-25,2,-7,17
-7,38,41,-18,-32,43,-56,-39,-25,2,-7,17
-7,36,40,-17,-31,41,-56,-39,-25,2,-7,17
-7,36,40,-17,-31,41,-56,-39,-25,2,-7,17
-7,36,40,-17,-31,41,-56,-39,-25,2,-7,17
-7,36,40,-17,-31,41,-54,-39,-25,3,-7,18
-7,36,40,-17,-31,41,-56,-39,-25,3,-8,18
-9,36,41,-16,-33,42,-56,-39,-25,3,-8,18
-11,36,43,-15,-36,43,-56,-39,-25,3,-8,18
-11,38,44,-16,-37,45,-56,-39,-25,3,-8,18
-11,38,44,-16,-37,45,-56,-39,-25,3,-8,18
-9,40,44,-18,-35,45,-54,-38,-25,4,-8,18
-7,41,44,-20,-34,46,-53,-37,-24,4,-8,18
-5,43,44,-22,-33,47,-51,-36,-24,5,-7,20
-4,43,43,-23,-31,47,-50,-36,-24,5,-8,18
-4,43,43,-23,-31,47,-48,-36,-24,5,-8,18
-4,43,43,-23,-31,47,-47,-36,-24,5,-9,18
-2,44,43,-25,-31,47,-45,-36,-24,5,-9,18
-1,44,42,-26,-29,47,-45,-36,-23,5,-9,18
3,46,40,-28,-26,46,-43,-35,-22,6,-9,18
5,46,39,-30,-23,46,-41,-34,-22,6,-9,18
7,48,38,-32,-21,47,-39,-33,-21,6,-8,20
7,49,40,-32,-23,48,-41,-33,-20,7,-8,20
5,51,43,-33,-26,51,-41,-32,-19,7,-7,21
6,53,44,-34,-26,53,-42,-31,-18,8,-7,23
4,54,48,-33,-30,55,-41,-30,-17,9,-6,25
4,56,49,-35,-31,57,-39,-30,-17,9,-5,26
6,60,51,-38,-31,60,-36,-30,-16,10,-4,28
8,63,52,-41,-31,62,-35,-30,-17,11,-3,29
7,66,56,-42,-34,66,-31,-29,-16,11,-2,31
9,68,56,-45,-32,67,-33,-30,-16,11,-2,33
9,70,57,-46,-33,68,-33,-30,-16,11,-1,34
11,71,57,-48,-32,69,-33,-30,-16,11,0,36
11,73,59,-49,-33,71,-33,-30,-16,12,1,37
16,75,56,-53,-28,71,-38,-31,-17,12,1,37
20,76,54,-55,-25,70,-41,-32,-17,12,1,37
24,78,52,-59,-21,70,-45,-33,-17,12,1,37
27,79,51,-61,-19,70,-48,-33,-17,12,1,37
28,78,49,-61,-17,68,-53,-33,-17,12,0,37
28,78,49,-61,-17,68,-56,-33,-17,12,-0,37
28,77,48,-60,-16,67,-61,-33,-17,12,-0,37
28,77,48,-60,-16,67,-64,-33,-17,13,-0,39
29,75,44,-60,-13,64,-66,-33,-17,13,-0,39
30,75,43,-61,-11,64,-66,-33,-17,13,-0,39
33,75,41,-61,-9,62,-68,-33,-17,13,0,39
34,75,40,-62,-7,61,-68,-33,-17,13,0,40
34,71,37,-61,-5,58,-66,-34,-18,12,-1,39
33,68,35,-57,-4,55,-64,-35,-20,11,-2,39
33,65,32,-56,-3,52,-63,-36,-21,11,-3,37
33,63,31,-55,-2,50,-61,-36,-22,10,-3,37
30,59,29,-51,-2,47,-62,-38,-24,9,-5,35
28,56,28,-48,-2,45,-62,-39,-25,8,-6,35
26,52,26,-45,-3,43,-64,-40,-26,7,-7,33
25,49,24,-42,-2,40,-64,-41,-28,6,-7,33
23,46,23,-39,-2,37,-68,-42,-29,6,-9,31
21,44,23,-37,-3,36,-70,-42,-30,5,-10,30
20,43,23,-36,-4,36,-73,-43,-31,5,-11,28
18,41,23,-33,-4,34,-74,-44,-31,4,-12,26
14,39,24,-30,-9,34,-74,-44,-31,3,-13,23
11,38,26,-28,-11,34,-74,-43,-31,3,-14,21
7,36,28,-25,-14,35,-74,-43,-31,3,-15,20
1,34,31,-21,-20,35,-74,-42,-31,3,-16,19
1,34,31,-21,-20,35,-73,-42,-31,3,-16,17
1,34,31,-21,-20,35,-71,-41,-30,3,-16,16
1,34,31,-21,-20,35,-69,-40,-29,4,-17,16
0,34,32,-20,-21,36,-68,-39,-29,4,-17,15
-2,32,32,-18,-23,35,-66,-40,-29,3,-18,13
-6,31,34,-14,-26,35,-64,-40,-29,3,-19,13
-9,30,35,-12,-29,35,-62,-41,-30,3,-20,10
-13,28,37,-9,-32,35,-61,-41,-30,3,-20,11
-15,26,37,-6,-34,34,-62,-41,-31,2,-21,10
-17,24,37,-5,-35,34,-62,-41,-31,2,-21,11
-19,22,37,-2,-36,32,-64,-41,-31,2,-21,10
-18,23,37,-3,-36,33,-64,-41,-31,2,-21,12
-20,21,37,-1,-37,31,-66,-42,-32,2,-22,11
-22,19,37,1,-37,31,-66,-42,-33,2,-22,10
-24,17,37,3,-39,30,-66,-42,-33,2,-23,10
-25,17,38,4,-41,31,-66,-42,-33,2,-23,10
-20,19,35,-1,-35,30,-63,-42,-33,2,-24,11
-17,21,34,-3,-32,30,-58,-42,-33,3,-24,10
-13,23,33,-6,-30,30,-54,-41,-32,3,-24,11
-9,24,31,-9,-26,30,-50,-40,-31,3,-24,12
-12,19,29,-4,-26,27,-48,-43,-34,2,-27,8
-18,14,29,2,-30,24,-45,-45,-36,1,-29,3
-22,9,28,6,-31,20,-43,-47,-38,-0,-32,-2
-25,6,28,10,-33,19,-40,-50,-40,-1,-34,-6
-22,19,37,2,-38,31,-38,-46,-33,4,-26,11
-17,28,40,-6,-37,37,-30,-44,-32,1,-30,1
-40,16,49,13,-57,36,-18,-39,-25,6,-25,16
-22,22,40,-1,-40,34,-31,-41,-28,5,-28,9
-25,15,36,6,-39,28,-38,-42,-33,3,-33,1
-12,18,28,-3,-26,25,-45,-38,-33,1,-34,0
-27,13,35,7,-39,27,-39,-38,-31,7,-25,12
-17,15,29,0,-29,24,-51,-43,-38,4,-31,0
-31,4,31,15,-39,20,-54,-42,-39,1,-31,1
-22,9,28,6,-31,20,-42,-41,-38,-1,-33,-7
-27,15,37,6,-41,29,-43,-39,-33,3,-28,6
-20,22,37,-2,-37,32,-28,-38,-34,-2,-35,-3
-67,6,63,33,-82,38,-4,-29,-23,3,-32,6
-58,16,65,22,-78,45,7,-26,-22,1,-38,-5
-57,7,56,27,-71,35,9,-30,-26,-0,-47,-21
-59,6,57,30,-73,35,27,-22,-23,-6,-56,-38
-99,-13,74,62,-109,35,52,-5,-16,-0,-54,-33
-30,1,28,16,-37,16,62,9,-14,-7,-69,-63
-82,-31,42,64,-77,8,78,27,-2,-3,-73,-74
-107,-67,31,99,-84,-17,68,30,4,-8,-83,-95
-105,-75,21,102,-77,-27,64,32,14,3,-77,-87
-78,-75,-3,87,-44,-40,65,39,25,7,-80,-95
-121,-99,12,126,-79,-45,83,58,52,29,-65,-78
-61,-76,-18,79,-24,-50,80,79,79,49,-51,-68
16,-40,-51,15,43,-48,80,98,105,78,-24,-33
53,-56,-98,4,97,-83,62,90,104,91,-17,-36
46,-68,-103,15,96,-92,42,85,113,116,15,-2
104,-43,-130,-31,150,-94,22,85,124,144,45,28
154,1,-132,-85,180,-73,5,96,163,202,111,109
186,54,-110,-134,185,-33,-46,83,195,261,183,191
225,98,-103,-181,202,-6,-120,45,198,298,232,257
280,108,-141,-218,261,-22,-196,21,188,299,248,285
280,33,-212,-173,309,-101,-182,35,185,272,228,271
300,-26,-283,-149,368,-171,-146,38,167,229,182,227
232,-85,-279,-77,326,-199,-148,-9,116,190,144,198
243,-58,-263,-99,321,-177,-157,-66,49,148,117,191
177,-97,-243,-39,269,-185,-199,-137,-42,93,82,170
154,-145,-268,2,273,-225,-235,-201,-138,18,16,114
88,-220,-281,83,242,-271,-240,-227,-196,-34,-26,86
66,-286,-323,133,258,-328,-222,-244,-249,-97,-76,44
80,-325,-371,149,298,-375,-213,-253,-284,-136,-110,18
109,-357,-426,152,353,-422,-222,-249,-285,-155,-134,-8
78,-366,-407,175,322,-417,-173,-218,-252,-140,-133,-8
41,-319,-332,167,250,-351,-136,-208,-228,-125,-135,-27
-28,-290,-246,187,151,-288,-121,-207,-218,-113,-135,-33
-103,-274,-166,219,53,-235,-127,-211,-212,-109,-153,-71
-117,-227,-110,199,6,-179,-107,-192,-190,-90,-137,-62
-99,-185,-87,165,1,-145,-95,-186,-186,-88,-142,-81
-132,-180,-54,179,-41,-124,-74,-176,-178,-83,-138,-84
-127,-175,-54,174,-38,-121,-58,-163,-168,-80,-139,-90
-127,-169,-48,170,-43,-114,-38,-145,-152,-72,-131,-90
-107,-140,-38,142,-37,-94,-15,-129,-133,-66,-125,-87
-124,-130,-14,146,-63,-75,9,-106,-108,-49,-105,-57
-103,-122,-24,129,-44,-77,-14,-100,-101,-45,-110,-68
-86,-101,-21,108,-37,-64,-19,-93,-88,-34,-93,-51
-33,-75,-41,62,9,-61,-25,-80,-78,-28,-88,-47
-60,-54,1,65,-37,-27,-35,-58,-60,-10,-65,-16
-34,-22,9,32,-26,-6,-27,-47,-53,-5,-56,-8
-58,-21,31,45,-55,6,-20,-36,-45,-0,-48,6
-52,-7,38,33,-57,17,-20,-33,-42,-1,-46,3
-25,-1,21,14,-30,12,-38,-33,-41,-1,-48,1
-46,5,44,23,-57,27,-45,-33,-36,-3,-51,0
-58,6,56,29,-71,34,-37,-24,-26,5,-42,17
-17,33,46,-10,-41,43,-43,-23,-23,5,-45,15
22,50,28,-41,-6,42,-45,-22,-24,7,-44,13
-4,26,28,-12,-21,29,-45,-21,-24,5,-48,9
-17,29,41,-7,-37,38,-17,-20,-22,12,-39,23
-7,34,38,-16,-30,39,-20,-22,-28,7,-42,15
-16,28,39,-7,-36,36,-20,-22,-28,8,-43,18
0,49,46,-29,-31,51,-15,-16,-24,7,-38,23
-14,33,43,-11,-37,41,-33,-22,-25,7,-46,15
9,38,27,-27,-13,35,-45,-24,-26,2,-51,12
-36,30,59,2,-61,48,-37,-17,-15,10,-40,29
-40,19,53,10,-59,40,-46,-22,-18,7,-48,15
-45,11,49,18,-60,34,-52,-24,-20,8,-48,12
-11,38,44,-16,-37,45,-41,-15,-15,8,-45,21
-9,38,43,-17,-35,44,-43,-15,-16,9,-44,21
-6,39,41,-19,-31,43,-43,-14,-17,10,-42,23
-3,40,39,-22,-28,43,-45,-14,-17,10,-41,25
-1,41,39,-23,-27,43,-45,-13,-18,11,-39,26
-4,41,41,-22,-30,45,-43,-15,-17,10,-39,27
-6,41,43,-21,-32,45,-42,-16,-17,10,-39,27
-7,41,44,-20,-34,46,-39,-16,-16,10,-39,27
-9,43,48,-20,-37,49,-38,-17,-15,11,-39,26
-9,41,46,-18,-37,47,-41,-16,-15,11,-38,25
-9,39,44,-18,-36,45,-45,-14,-13,11,-37,25
-9,38,43,-17,-34,43,-49,-13,-13,11,-36,23
-12,36,43,-14,-36,43,-50,-10,-11,12,-35,23
-11,34,41,-14,-34,41,-51,-10,-11,12,-34,23
-11,34,41,-14,-34,41,-52,-8,-9,12,-33,23
-9,34,40,-14,-32,41,-52,-6,-9,13,-32,23
-9,34,39,-15,-31,40,-52,-5,-8,13,-30,25
-9,34,39,-15,-31,40,-50,-4,-7,13,-30,25
-9,34,40,-14,-32,41,-48,-3,-5,13,-30,25
-9,34,40,-14,-32,41,-47,-2,-5,13,-30,25
-7,36,40,-17,-31,41,-43,-1,-4,14,-29,25
-6,36,38,-18,-29,40,-40,-0,-3,14,-30,23
-6,36,38,-18,-29,40,-37,0,-3,14,-31,23
-6,36,38,-18,-29,40,-33,1,-2,14,-32,23
-4,38,38,-20,-28,41,-29,2,-2,15,-32,23
-6,36,38,-18,-29,40,-27,2,-2,15,-33,21
-5,36,38,-18,-29,41,-25,3,-1,15,-34,21
-7,34,38,-16,-30,39,-24,4,-0,15,-34,21
-7,34,38,-16,-30,39,-22,5,1,15,-35,21
-7,33,37,-15,-29,38,-22,6,1,16,-36,21
-7,33,37,-15,-29,38,-22,7,2,17,-36,21
-9,31,37,-13,-31,37,-22,8,4,17,-37,21
-9,31,37,-13,-31,37,-20,9,5,18,-37,21
-8,29,34,-12,-27,34,-20,10,5,18,-38,20
-7,29,33,-13,-26,34,-20,12,7,18,-39,20
-6,28,31,-13,-24,31,-20,13,8,18,-40,20
-4,28,29,-14,-21,31,-19,15,9,19,-40,20
-4,26,28,-12,-21,29,-18,17,10,19,-41,18
-3,26,26,-13,-20,28,-17,19,12,19,-41,18
-2,24,24,-13,-18,27,-17,21,13,19,-42,18
0,24,23,-14,-15,25,-16,24,15,20,-42,18
-1,22,21,-12,-14,24,-15,25,17,20,-42,17
1,22,19,-14,-12,22,-14,27,18,20,-41,16
1,21,18,-13,-11,21,-14,30,20,20,-41,16
1,21,18,-13,-11,21,-12,32,22,21,-40,16
0,18,17,-10,-11,19,-10,33,23,21,-38,13
0,16,15,-9,-10,17,-9,35,24,21,-36,13
-1,14,14,-7,-9,15,-7,36,26,21,-34,12
-3,12,14,-5,-11,14,-4,39,28,22,-32,12
-2,11,12,-5,-9,13,-1,40,29,22,-29,11
0,11,11,-6,-7,12,3,42,31,23,-25,11
1,11,9,-6,-5,10,6,44,32,24,-22,9
1,11,9,-6,-5,10,9,47,34,24,-18,9
1,7,6,-5,-3,7,11,50,37,25,-15,8
2,6,4,-4,-1,6,12,53,39,26,-10,7
2,5,3,-3,0,4,14,56,42,26,-5,8
2,3,1,-2,1,2,16,60,45,27,-1,7
4,1,-2,-2,3,0,16,64,48,28,2,7
4,0,-4,-2,5,-1,17,68,51,29,4,7
6,-2,-7,-2,8,-4,19,73,54,29,7,8
6,-4,-9,-1,9,-6,21,77,58,30,11,8
7,-6,-11,0,11,-9,24,81,61,31,12,6
9,-7,-14,0,14,-11,29,85,65,32,14,6
11,-9,-18,-1,18,-14,32,90,69,34,16,6
13,-9,-19,-2,20,-15,37,94,72,35,18,6
17,-11,-24,-2,26,-19,42,99,76,36,17,4
20,-11,-27,-4,30,-20,47,103,79,37,17,3
25,-11,-32,-7,37,-23,52,108,83,38,17,1
29,-11,-35,-9,41,-24,58,113,87,40,17,1
28,-15,-38,-6,42,-29,62,118,90,40,15,-2
28,-19,-41,-3,44,-32,66,122,93,41,13,-3
25,-24,-44,1,45,-37,70,127,96,42,10,-6
24,-28,-46,3,45,-40,75,131,100,43,8,-8
22,-33,-49,8,46,-44,79,136,104,43,5,-11
22,-36,-53,9,48,-47,85,142,108,45,3,-13
22,-39,-56,11,51,-51,90,147,112,46,1,-15
21,-43,-58,14,52,-54,94,153,116,47,0,-16
23,-48,-64,16,57,-60,100,157,120,47,-4,-19
25,-51,-69,17,62,-65,106,162,124,48,-7,-22
25,-56,-74,19,65,-70,111,167,127,48,-10,-25
28,-59,-79,20,70,-74,117,172,132,49,-13,-27
30,-63,-84,21,74,-79,123,177,135,50,-16,-30
32,-64,-87,21,77,-81,129,182,140,51,-19,-32
33,-68,-91,22,81,-86,136,188,144,52,-21,-33
35,-69,-94,22,84,-88,142,194,149,53,-24,-35
35,-75,-99,26,88,-94,144,198,152,53,-28,-39
35,-78,-103,27,90,-97,147,203,155,54,-31,-43
34,-83,-107,31,93,-103,148,207,159,54,-34,-47
35,-86,-110,32,95,-105,152,212,162,54,-37,-51
30,-93,-113,39,94,-111,155,216,165,54,-42,-56
28,-98,-115,43,94,-115,158,220,168,54,-45,-59
25,-103,-118,48,95,-119,162,224,170,54,-50,-63
22,-108,-120,53,94,-122,167,227,174,55,-53,-66
22,-112,-123,54,96,-126,170,230,175,54,-57,-71
24,-113,-126,54,99,-128,173,232,177,54,-61,-76
24,-116,-129,56,101,-132,177,234,178,54,-65,-80
25,-118,-132,57,105,-135,181,237,180,54,-68,-85
24,-122,-134,59,105,-138,181,238,181,53,-72,-90
22,-124,-135,61,105,-140,183,239,181,52,-76,-95
20,-128,-137,65,105,-142,185,240,182,50,-79,-100
17,-132,-137,69,103,-145,186,241,183,50,-83,-104
14,-133,-136,71,101,-145,188,240,181,48,-85,-107
14,-134,-137,72,101,-145,190,239,181,47,-87,-110
13,-135,-137,73,100,-146,192,238,180,46,-89,-114
12,-135,-136,73,99,-146,195,238,179,46,-91,-116
7,-138,-135,78,96,-147,194,234,177,43,-93,-118
4,-140,-134,81,94,-147,194,231,174,42,-93,-121
-2,-144,-132,87,88,-148,195,228,172,40,-95,-124
-6,-145,-130,89,85,-148,194,225,169,39,-96,-125
-9,-147,-129,92,82,-148,192,220,165,36,-97,-128
-11,-147,-128,93,80,-147,188,215,161,35,-98,-130
-14,-149,-126,96,77,-147,185,211,157,33,-99,-133
-18,-149,-123,98,72,-145,181,206,154,31,-100,-134
-20,-147,-120,98,70,-142,180,200,149,29,-100,-136
-24,-145,-115,100,64,-139,180,194,145,27,-100,-136
-25,-144,-112,100,61,-137,178,188,140,25,-100,-136
-29,-142,-107,100,55,-133,178,182,135,23,-100,-136
-31,-138,-102,100,51,-128,175,175,129,21,-100,-136
-33,-135,-98,98,47,-124,173,168,124,19,-99,-134
-35,-132,-93,97,43,-120,171,160,119,17,-98,-134
-36,-128,-88,96,38,-116,170,153,113,15,-97,-133
-36,-125,-85,94,37,-112,167,145,107,13,-95,-131
-38,-122,-81,93,32,-108,165,138,101,11,-93,-128
-40,-118,-76,93,28,-103,163,130,95,9,-92,-126
-40,-113,-71,89,25,-98,162,122,89,7,-89,-123
-38,-110,-69,87,25,-96,152,115,84,5,-86,-122
-38,-107,-66,85,22,-92,144,108,78,3,-83,-119
-36,-103,-64,81,22,-89,135,101,72,2,-79,-116
-35,-98,-61,77,21,-85,127,94,66,0,-75,-112
-35,-95,-58,76,19,-82,119,88,61,-1,-72,-109
-33,-90,-56,72,19,-78,111,82,56,-2,-67,-106
-33,-87,-53,69,16,-74,102,75,50,-3,-63,-103
-33,-81,-48,66,13,-68,96,69,45,-5,-58,-100
-31,-78,-46,64,13,-66,89,64,40,-6,-53,-97
-29,-73,-43,60,12,-62,83,59,37,-7,-48,-92
-28,-70,-41,57,12,-59,76,53,33,-8,-44,-87
-25,-65,-38,53,11,-54,72,49,29,-8,-38,-82
-25,-63,-37,52,10,-53,65,44,25,-9,-34,-80
-25,-59,-34,49,9,-50,60,39,22,-10,-30,-76
-25,-58,-32,49,7,-47,53,34,19,-12,-26,-73
-25,-54,-29,46,4,-44,49,30,15,-13,-21,-69
-25,-52,-28,45,4,-43,42,26,13,-13,-17,-66
-23,-49,-26,42,3,-40,35,23,10,-14,-13,-64
-23,-48,-24,41,3,-38,29,20,8,-14,-9,-60
-22,-44,-21,38,1,-34,24,17,5,-15,-5,-56
-23,-42,-19,38,-1,-33,21,14,3,-15,-1,-52
-22,-40,-18,36,-1,-31,17,11,1,-15,3,-48
-20,-36,-16,32,-1,-27,14,8,-1,-15,6,-44
-20,-32,-13,30,-3,-24,10,5,-3,-15,11,-40
-18,-31,-13,29,-2,-23,9,3,-5,-16,13,-37
-16,-28,-12,26,-2,-21,7,0,-6,-16,16,-33
-12,-24,-12,22,1,-19,6,-2,-8,-16,19,-30
-11,-21,-10,18,0,-16,5,-3,-9,-16,23,-27
-9,-19,-10,17,1,-15,3,-5,-10,-17,24,-24
-8,-16,-8,14,1,-13,3,-6,-11,-16,27,-21
-4,-13,-9,10,3,-12,1,-7,-11,-15,29,-18
-4,-11,-7,9,3,-9,1,-7,-12,-15,32,-15
-4,-9,-5,8,1,-8,-1,-8,-13,-15,32,-13
-4,-7,-4,6,0,-6,-1,-9,-13,-15,33,-11
-4,-6,-3,6,-1,-4,-1,-9,-13,-15,34,-10
-4,-4,-1,5,-2,-2,-1,-9,-12,-15,36,-8
-4,-4,-1,5,-2,-2,-2,-10,-12,-15,36,-6
-3,-2,1,3,-3,-1,-4,-10,-12,-15,37,-5
-5,-2,3,4,-5,1,-5,-10,-12,-15,37,-3
-5,-1,4,3,-6,2,-7,-10,-12,-14,38,-2
-1,1,3,0,-3,2,-10,-11,-12,-14,38,-2
0,3,3,-2,-2,3,-14,-11,-12,-14,38,0
1,4,3,-3,-1,3,-17,-12,-12,-14,38,0
5,7,3,-6,2,6,-18,-12,-12,-14,39,1
5,7,3,-6,2,6,-20,-12,-13,-15,39,1
5,7,3,-6,2,6,-22,-12,-13,-15,39,3
5,7,3,-6,2,6,-24,-13,-14,-15,39,3
5,7,3,-6,2,6,-24,-13,-14,-15,39,4
5,7,3,-6,2,6,-24,-14,-14,-15,39,4
7,9,3,-9,3,7,-22,-14,-14,-15,39,6
7,9,3,-9,3,7,-20,-14,-14,-15,39,6
7,11,4,-10,2,8,-18,-14,-14,-14,39,8
4,9,6,-7,-2,8,-17,-14,-14,-14,38,8
0,7,7,-4,-4,8,-14,-14,-14,-14,38,8
-4,6,9,-2,-8,8,-12,-14,-14,-14,37,8
-7,4,10,2,-11,8,-9,-14,-13,-14,37,9
-7,4,10,2,-11,8,-10,-14,-13,-14,37,9
-5,6,10,-1,-9,9,-10,-13,-12,-14,38,9
-5,6,10,-1,-9,9,-12,-12,-12,-14,38,9
-6,7,12,-1,-11,10,-12,-12,-11,-14,39,11
-6,7,12,-1,-11,10,-12,-12,-11,-14,39,9
-5,9,13,-2,-12,13,-12,-12,-11,-14,40,9
-5,9,13,-2,-12,13,-12,-12,-11,-14,41,9
-6,11,15,-3,-14,14,-10,-12,-11,-14,41,9
-4,13,15,-5,-12,15,-10,-12,-12,-15,43,9
0,16,15,-9,-10,17,-9,-12,-12,-15,45,9
1,17,15,-10,-9,17,-9,-13,-12,-15,47,9
5,21,15,-14,-7,20,-7,-13,-12,-15,49,9
5,21,15,-14,-7,20,-5,-14,-12,-15,52,9
5,21,15,-14,-7,20,-4,-14,-12,-15,55,9
5,21,15,-14,-7,20,-2,-14,-12,-16,58,9
6,23,16,-16,-8,22,-1,-14,-12,-16,61,11
4,23,18,-15,-10,22,-2,-14,-12,-16,66,11
2,23,19,-14,-12,23,-4,-13,-11,-16,70,12
0,23,21,-13,-14,24,-5,-12,-11,-16,75,12
0,24,23,-14,-15,25,-7,-12,-9,-16,80,14
-1,23,23,-12,-16,24,-9,-12,-9,-17,83,14
-1,23,23,-12,-16,24,-9,-12,-9,-17,87,14
-4,21,23,-10,-17,24,-10,-13,-9,-17,90,14
-6,21,24,-9,-20,24,-10,-13,-9,-17,94,14
-6,21,24,-9,-20,24,-10,-14,-10,-17,97,14
-5,23,26,-10,-20,27,-9,-14,-10,-17,101,15
-5,23,26,-10,-20,27,-9,-14,-11,-17,103,15
-6,24,28,-10,-22,28,-7,-14,-11,-17,107,17
-6,24,28,-10,-22,28,-5,-15,-11,-17,109,17
-4,26,28,-13,-20,29,-2,-16,-12,-17,110,17
-4,26,28,-13,-20,29,-1,-17,-12,-18,112,17
-2,28,28,-14,-20,30,3,-18,-13,-18,115,17
-2,28,28,-14,-20,30,3,-18,-14,-18,116,17
0,30,28,-17,-19,31,3,-19,-14,-18,118,17
1,31,28,-18,-18,31,3,-20,-15,-18,119,17
2,33,29,-20,-18,34,3,-20,-15,-18,121,17
2,33,29,-20,-18,34,1,-21,-15,-18,121,15
2,33,29,-20,-18,34,1,-21,-15,-18,121,15
2,33,29,-20,-18,34,-1,-22,-16,-18,121,14
0,33,31,-19,-20,34,-1,-23,-16,-18,121,14
-4,31,32,-16,-24,34,-2,-24,-16,-19,121,12
-6,31,34,-14,-26,35,-2,-24,-17,-19,121,12
-7,31,35,-14,-28,36,-4,-25,-18,-19,121,12
-9,31,37,-13,-31,37,-4,-25,-18,-19,121,12
-9,30,35,-12,-29,35,-5,-26,-18,-19,119,12
-9,30,35,-12,-29,35,-5,-26,-19,-19,119,12
-11,28,35,-10,-30,34,-5,-27,-20,-20,119,12
-11,28,35,-10,-30,34,-5,-27,-20,-20,119,14
-11,28,35,-10,-30,34,-5,-27,-20,-20,118,14
-13,28,37,-9,-32,35,-4,-27,-21,-20,118,15
-14,28,38,-8,-34,36,-2,-28,-22,-20,117,15
-14,30,40,-9,-36,38,-1,-28,-22,-19,117,17
-12,30,38,-10,-33,37,-2,-29,-22,-19,115,17
-9,31,37,-13,-31,37,-2,-29,-22,-19,114,17
-5,33,35,-16,-26,37,-4,-29,-22,-19,113,17
-4,34,35,-18,-26,38,-4,-29,-22,-19,112,18
-4,33,34,-17,-25,36,-5,-30,-23,-20,110,17
-1,33,32,-18,-22,35,-5,-30,-23,-20,109,17
0,33,31,-19,-20,34,-7,-31,-24,-20,107,17
0,33,31,-19,-20,34,-7,-31,-24,-20,106,17
-2,31,31,-17,-22,34,-9,-32,-24,-21,104,17
-2,31,31,-17,-22,34,-10,-32,-24,-21,102,17
-4,30,31,-15,-23,33,-12,-32,-24,-21,101,17
-5,30,32,-14,-25,34,-12,-32,-24,-21,99,18
-6,28,31,-13,-24,31,-15,-33,-24,-21,98,17
-7,26,31,-11,-25,31,-18,-33,-25,-22,96,17
-7,24,29,-10,-24,29,-22,-34,-25,-22,94,17
-7,24,29,-10,-24,29,-25,-35,-25,-22,93,17
-9,24,31,-9,-26,30,-24,-36,-25,-22,92,17
-9,26,32,-10,-26,31,-22,-36,-25,-22,92,18
-9,28,34,-10,-28,34,-20,-36,-25,-22,90,18
-9,30,35,-12,-29,35,-18,-36,-24,-22,90,20
-9,30,35,-12,-29,35,-18,-36,-24,-22,88,18
-9,30,35,-12,-29,35,-17,-36,-24,-22,87,18
-9,30,35,-12,-29,35,-15,-36,-24,-22,86,18
-7,31,35,-14,-28,36,-14,-35,-24,-22,85,18
-9,30,35,-12,-29,35,-12,-35,-24,-22,83,18
-11,30,37,-11,-31,36,-9,-35,-24,-22,82,18
-12,30,38,-10,-33,37,-5,-35,-24,-22,81,18
-14,30,40,-9,-36,38,-2,-35,-23,-22,81,18
-12,30,38,-10,-33,37,-2,-36,-24,-22,79,17
-12,30,38,-10,-33,37,-2,-36,-24,-22,78,17
-11,30,37,-11,-31,36,-2,-36,-24,-22,77,17
-9,31,37,-13,-31,37,-2,-36,-24,-22,76,17
-7,31,35,-14,-28,36,-2,-36,-24,-22,75,17
-7,31,35,-14,-28,36,-1,-37,-25,-22,74,17
-6,31,34,-14,-26,35,-1,-38,-25,-22,73,17
-4,33,34,-17,-25,36,1,-39,-25,-22,72,17
-1,33,32,-18,-22,35,-1,-39,-26,-22,72,17
0,33,31,-19,-20,34,-1,-39,-26,-22,70,17
2,33,29,-20,-18,34,-1,-39,-26,-22,70,17
4,34,29,-22,-17,34,-1,-39,-26,-22,69,17
2,33,29,-20,-18,34,-1,-39,-26,-22,68,17
2,33,29,-20,-18,34,-1,-39,-26,-22,67,17
2,33,29,-20,-18,34,-1,-39,-26,-22,66,17
2,33,29,-20,-18,34,-1,-38,-26,-21,65,18
0,31,29,-18,-20,32,-2,-37,-26,-21,64,18
-1,30,29,-16,-20,31,-2,-36,-25,-21,63,18
-4,28,29,-14,-21,31,-4,-36,-25,-21,62,18
-5,26,29,-12,-22,30,-4,-35,-25,-21,62,18
-7,24,29,-10,-24,29,-4,-35,-25,-21,61,18
-7,24,29,-10,-24,29,-2,-35,-24,-20,61,20
-7,24,29,-10,-24,29,-2,-35,-24,-20,61,20
-9,24,31,-9,-26,30,-1,-34,-24,-19,61,21
-9,24,31,-9,-26,30,-2,-34,-24,-19,61,21
-7,26,31,-11,-25,31,-2,-34,-24,-19,61,21
-7,26,31,-11,-25,31,-4,-34,-24,-19,60,21
-6,28,31,-13,-24,31,-4,-33,-24,-18,60,21
-4,28,29,-14,-21,31,-5,-34,-24,-18,59,21
-1,30,29,-16,-20,31,-5,-34,-24,-18,59,21
0,30,28,-17,-19,31,-5,-35,-24,-18,59,21
1,31,28,-18,-18,31,-5,-35,-24,-18,59,21
1,31,28,-18,-18,31,-4,-36,-24,-18,58,21
1,31,28,-18,-18,31,-2,-36,-24,-18,58,21
1,31,28,-18,-18,31,-1,-36,-24,-18,57,21
2,33,29,-20,-18,34,1,-36,-24,-18,57,23
-1,30,29,-16,-20,31,1,-36,-24,-18,56,21
-4,28,29,-14,-21,31,3,-36,-24,-18,56,21
-7,24,29,-10,-24,29,4,-36,-24,-19,56,20
-9,23,29,-8,-25,28,6,-36,-24,-19,56,20
-7,23,28,-9,-23,27,6,-36,-24,-19,55,20
-7,23,28,-9,-23,27,6,-36,-24,-18,55,20
-7,23,28,-9,-23,27,6,-36,-24,-18,54,20
-7,23,28,-9,-23,27,6,-36,-23,-18,54,20
-7,23,28,-9,-23,27,4,-36,-23,-18,53,20
-7,23,28,-9,-23,27,4,-36,-23,-18,53,20
-7,23,28,-9,-23,27,4,-36,-23,-18,52,20
-6,24,28,-10,-22,28,4,-35,-22,-18,52,21
-6,24,28,-10,-22,28,4,-35,-22,-17,52,21
-5,26,29,-12,-22,30,4,-34,-22,-17,52,23
-4,28,29,-14,-21,31,4,-34,-22,-16,52,25
-4,30,31,-15,-23,33,4,-33,-21,-15,52,27
-4,28,29,-14,-21,31,4,-33,-22,-15,52,25
-2,28,28,-14,-20,30,6,-33,-22,-15,50,25
-1,26,26,-14,-18,28,7,-33,-22,-15,50,25
-1,26,26,-14,-18,28,9,-33,-22,-15,50,25
