I,II,III,aVR,aVL,aVF,V1,V2,V3,V4,V5,V6
-12,-6,6,10,-11,1,57,13,-8,-17,-7,-14
-12,-8,4,11,-10,-2,59,13,-8,-17,-7,-14
-12,-9,3,11,-9,-4,60,13,-8,-18,-8,-14
-12,-9,2,11,-9,-4,60,13,-8,-19,-9,-14
-12,-10,2,12,-8,-5,60,13,-8,-20,-10,-14
-12,-10,2,12,-8,-5,60,13,-8,-21,-11,-14
-12,-10,2,12,-8,-5,60,13,-8,-22,-12,-14
-12,-10,2,12,-8,-5,60,13,-8,-22,-12,-14
-12,-10,2,12,-8,-5,60,13,-8,-22,-13,-14
-12,-10,2,12,-8,-5,60,13,-8,-22,-13,-14
-12,-11,1,12,-8,-6,60,13,-8,-22,-13,-14
-12,-12,-1,13,-7,-8,60,13,-8,-22,-13,-14
-12,-14,-3,14,-6,-10,60,13,-8,-22,-13,-14
-12,-16,-5,16,-4,-13,60,13,-8,-22,-13,-14
-13,-17,-5,17,-4,-14,60,13,-8,-22,-13,-14
-15,-18,-4,18,-7,-14,60,13,-8,-22,-14,-14
-17,-18,-3,19,-8,-14,60,13,-8,-22,-15,-14
-17,-18,-3,19,-8,-13,60,13,-8,-22,-15,-14
-17,-18,-3,19,-8,-13,60,13,-8,-22,-15,-14
-17,-18,-3,19,-8,-13,60,13,-8,-22,-15,-14
-17,-18,-3,19,-8,-13,60,13,-8,-22,-15,-14
-17,-18,-3,19,-8,-13,60,13,-8,-22,-15,-14
-18,-21,-4,21,-8,-16,60,13,-8,-22,-16,-14
-21,-25,-6,24,-8,-20,60,13,-8,-22,-17,-14
-21,-26,-7,25,-8,-21,60,13,-8,-22,-17,-14
-22,-27,-7,26,-8,-21,60,13,-8,-22,-18,-14
-22,-27,-7,26,-8,-21,60,13,-8,-22,-18,-15
-22,-27,-7,26,-8,-21,60,13,-8,-22,-18,-16
-22,-27,-7,26,-8,-21,60,13,-8,-22,-18,-17
-22,-27,-7,26,-8,-21,60,13,-8,-22,-18,-18
-22,-28,-8,26,-8,-22,60,14,-8,-22,-17,-19
-22,-29,-9,27,-7,-24,60,15,-8,-22,-16,-19
-22,-31,-11,28,-6,-27,60,16,-8,-22,-15,-20
-22,-33,-13,29,-4,-29,60,18,-8,-22,-14,-20
-22,-34,-14,30,-3,-31,60,18,-8,-22,-13,-20
-22,-35,-15,30,-3,-32,60,19,-8,-22,-13,-20
-22,-35,-15,30,-3,-32,60,19,-8,-22,-13,-20
-22,-35,-15,30,-3,-32,60,19,-8,-22,-13,-20
-22,-34,-14,30,-3,-31,60,19,-8,-22,-13,-20
-22,-33,-13,29,-4,-29,60,19,-8,-21,-13,-20
-22,-31,-11,28,-6,-27,60,19,-8,-20,-13,-20
-22,-29,-9,27,-7,-24,60,19,-8,-19,-13,-20
-22,-28,-8,26,-8,-22,60,19,-8,-18,-13,-20
-22,-27,-7,26,-8,-22,60,19,-7,-18,-13,-20
-22,-27,-7,26,-8,-21,60,19,-6,-17,-13,-20
-22,-27,-7,26,-8,-21,60,19,-4,-17,-13,-20
-22,-27,-7,26,-8,-21,61,19,-3,-17,-13,-19
-22,-27,-7,26,-8,-21,63,19,-1,-16,-13,-18
-22,-27,-7,26,-8,-21,64,19,0,-15,-13,-17
-22,-27,-7,26,-8,-21,66,19,1,-14,-13,-15
-22,-27,-7,26,-8,-21,67,20,3,-13,-12,-15
-22,-27,-7,26,-8,-21,67,21,4,-13,-11,-14
-22,-27,-7,26,-8,-21,68,22,5,-12,-10,-14
-22,-27,-7,26,-8,-21,68,23,7,-12,-9,-14
-22,-27,-7,26,-8,-21,68,25,8,-12,-7,-13
-22,-27,-7,26,-8,-21,70,26,10,-11,-6,-12
-22,-27,-7,26,-8,-21,71,28,11,-10,-5,-11
-22,-27,-7,26,-8,-21,73,29,12,-9,-4,-10
-21,-26,-7,25,-8,-21,74,31,14,-7,-2,-9
-19,-24,-7,23,-7,-20,75,32,15,-5,-1,-9
-17,-22,-7,21,-6,-18,75,34,17,-2,0,-9
-15,-20,-7,19,-4,-17,75,35,18,0,2,-9
-13,-18,-6,17,-4,-15,75,36,19,2,3,-8
-13,-17,-5,16,-4,-14,75,36,20,3,3,-7
-12,-17,-5,16,-4,-14,75,37,21,3,4,-7
-12,-16,-5,16,-4,-13,75,37,21,3,4,-7
-12,-16,-5,16,-4,-13,75,37,21,3,4,-7
-12,-16,-5,16,-4,-13,75,37,21,3,4,-7
-12,-16,-5,16,-4,-13,75,37,21,3,4,-7
-13,-17,-5,16,-4,-14,75,37,21,3,4,-7
-13,-2,10,8,-15,5,82,54,48,22,13,8
-13,-2,10,8,-15,5,82,54,48,22,13,8
-13,-2,10,8,-15,5,82,54,48,22,13,8
-13,-2,10,8,-15,5,82,54,48,22,13,8
15,15,2,-15,8,11,89,72,59,27,18,8
15,-2,-15,-6,19,-11,96,95,81,32,18,8
15,-2,-15,-6,19,-11,111,119,98,42,23,8
24,-2,-24,-11,30,-16,118,142,126,52,28,8
42,-2,-41,-20,53,-27,118,154,143,67,39,13
42,-2,-41,-20,53,-27,118,142,143,82,49,24
61,15,-41,-38,64,-16,104,130,143,97,64,41
79,41,-32,-61,70,5,82,107,132,102,80,57
116,66,-41,-93,98,16,60,89,121,112,95,74
161,83,-66,-125,142,11,39,78,132,142,126,101
207,117,-75,-167,176,27,-12,54,126,167,157,134
235,159,-58,-203,182,65,-48,19,126,187,183,167
253,193,-41,-231,182,98,-76,-16,126,212,213,195
290,227,-41,-267,204,120,-112,-34,138,242,239,222
308,244,-41,-286,215,131,-134,-45,138,257,255,244
308,244,-41,-286,215,131,-163,-81,110,237,255,244
272,244,-7,-267,170,152,-163,-116,70,197,224,228
226,227,19,-235,126,158,-163,-157,19,152,193,206
189,202,27,-203,98,147,-163,-192,-37,102,157,178
134,193,70,-171,36,169,-156,-210,-82,57,121,151
97,193,104,-153,-9,190,-148,-221,-121,17,95,129
61,202,147,-139,-59,223,-134,-233,-150,-23,75,112
33,202,172,-125,-93,239,-134,-239,-172,-48,54,96
15,176,164,-102,-99,218,-120,-239,-183,-73,33,74
-13,159,172,-79,-121,212,-112,-221,-172,-73,18,57
-13,134,147,-66,-104,180,-105,-198,-161,-73,13,46
-13,117,129,-56,-93,158,-91,-180,-144,-73,8,35
-13,92,104,-43,-76,125,-76,-145,-121,-63,8,35
-13,75,87,-33,-65,103,-55,-122,-105,-58,-3,24
-13,49,61,-20,-48,71,-48,-104,-93,-58,-8,19
-13,32,44,-11,-37,49,-26,-87,-82,-48,-13,13
-22,15,36,3,-37,33,-19,-69,-65,-48,-13,2
-22,-10,10,17,-20,0,-12,-51,-54,-38,-13,-9
-31,-19,10,26,-26,-5,10,-40,-43,-33,-13,-9
-31,-27,2,31,-20,-16,17,-28,-31,-33,-13,-9
-31,-44,-15,40,-9,-38,24,-22,-26,-28,-13,-9
-40,-44,-7,44,-20,-33,32,-16,-26,-28,-18,-14
-40,-44,-7,44,-20,-33,32,-16,-31,-28,-18,-14
-40,-53,-15,49,-15,-44,39,-16,-31,-33,-23,-20
-40,-58,-21,52,-10,-51,39,-12,-27,-32,-23,-20
-40,-60,-23,53,-9,-53,39,-11,-25,-31,-22,-20
-40,-60,-23,53,-9,-53,39,-10,-23,-30,-20,-20
-40,-61,-24,53,-8,-54,39,-10,-21,-29,-19,-20
-40,-61,-24,53,-8,-54,40,-9,-20,-28,-18,-20
-40,-61,-24,53,-8,-54,41,-7,-20,-28,-18,-20
-40,-61,-24,53,-8,-54,42,-4,-20,-27,-18,-20
-40,-61,-24,53,-8,-54,44,-1,-20,-27,-18,-20
-40,-61,-24,53,-8,-54,45,1,-19,-27,-18,-20
-40,-61,-24,53,-8,-54,46,3,-18,-26,-18,-20
-40,-61,-24,53,-8,-54,46,4,-17,-25,-18,-20
-40,-61,-24,53,-8,-54,46,6,-15,-24,-18,-20
-40,-61,-24,53,-8,-54,46,7,-15,-23,-18,-20
-40,-61,-24,53,-8,-54,46,7,-14,-23,-18,-20
-40,-61,-24,53,-8,-54,46,7,-14,-22,-18,-20
-40,-61,-24,53,-8,-54,46,7,-14,-22,-18,-20
-40,-61,-24,53,-8,-54,46,8,-14,-22,-18,-20
-40,-61,-24,53,-8,-54,46,9,-14,-22,-18,-20
-40,-61,-24,53,-8,-54,46,10,-14,-22,-18,-20
-40,-61,-24,53,-8,-54,46,12,-14,-22,-18,-20
-40,-61,-24,53,-8,-54,47,13,-14,-22,-18,-20
-40,-61,-24,53,-8,-54,48,13,-14,-22,-18,-20
-40,-61,-24,53,-8,-54,50,13,-14,-22,-18,-20
-40,-61,-24,53,-8,-54,51,13,-14,-22,-18,-20
-40,-61,-24,53,-8,-54,53,13,-14,-22,-18,-20
-40,-61,-24,53,-8,-54,53,13,-14,-22,-18,-20
-40,-61,-24,53,-8,-54,53,13,-14,-22,-18,-20
-40,-61,-24,53,-8,-54,53,13,-14,-22,-18,-20
-40,-61,-24,53,-8,-54,53,13,-14,-22,-18,-20
-40,-61,-24,53,-8,-54,53,13,-14,-22,-18,-20
-40,-61,-24,53,-8,-54,53,13,-14,-22,-18,-20
-40,-61,-24,53,-8,-54,53,13,-14,-22,-18,-20
-40,-61,-25,54,-8,-55,53,13,-14,-22,-18,-19
-40,-63,-26,55,-7,-57,53,13,-14,-22,-18,-18
-40,-65,-28,56,-6,-59,53,13,-14,-22,-18,-17
-40,-67,-30,57,-4,-62,53,13,-14,-22,-18,-15
-40,-68,-32,57,-3,-64,53,14,-14,-22,-18,-15
-40,-69,-32,58,-3,-64,53,15,-12,-22,-18,-14
-40,-69,-32,58,-3,-65,53,16,-11,-22,-18,-14
-40,-69,-32,58,-3,-65,53,18,-10,-22,-18,-14
-40,-69,-32,58,-3,-65,53,18,-9,-22,-18,-14
-40,-69,-32,58,-3,-65,53,19,-9,-21,-18,-14
-40,-69,-32,58,-3,-65,53,19,-8,-20,-18,-14
-40,-69,-32,58,-3,-65,53,19,-8,-19,-18,-14
-40,-69,-32,58,-3,-65,53,19,-8,-18,-17,-14
-40,-69,-32,58,-3,-65,53,19,-8,-18,-16,-14
-40,-69,-32,58,-3,-65,53,19,-8,-17,-15,-14
-40,-69,-32,58,-3,-65,53,19,-8,-17,-14,-14
-40,-69,-32,58,-3,-65,53,20,-8,-17,-13,-14
-40,-69,-32,58,-3,-65,53,21,-7,-17,-13,-14
-40,-69,-32,58,-3,-65,53,22,-6,-17,-13,-14
-40,-69,-32,58,-3,-65,53,23,-4,-17,-13,-14
-39,-68,-32,57,-2,-64,53,24,-3,-17,-13,-14
-37,-67,-32,55,-1,-63,53,25,-1,-16,-13,-14
-35,-65,-32,53,0,-62,53,25,0,-15,-13,-14
-33,-63,-32,51,1,-61,53,25,1,-14,-13,-14
-32,-61,-32,50,2,-60,53,25,3,-13,-13,-14
-31,-61,-32,49,2,-60,53,25,4,-13,-13,-14
-31,-61,-32,49,3,-59,53,25,5,-12,-13,-14
-31,-61,-32,49,3,-59,53,25,7,-12,-13,-14
-31,-61,-32,49,3,-59,53,26,8,-12,-12,-14
-31,-61,-32,49,3,-59,53,27,8,-12,-11,-14
-31,-61,-32,49,3,-59,53,28,8,-12,-10,-14
-31,-61,-32,49,3,-59,53,29,8,-12,-9,-14
-30,-61,-33,48,4,-60,53,30,8,-12,-8,-13
-28,-61,-35,47,6,-61,53,30,8,-11,-8,-12
-26,-61,-37,46,8,-62,53,31,8,-10,-7,-11
-24,-61,-39,45,11,-64,53,31,8,-9,-7,-10
-22,-61,-40,44,13,-64,53,31,8,-8,-7,-9
-22,-61,-40,44,13,-65,53,31,8,-8,-7,-9
-22,-61,-41,44,14,-65,53,31,8,-7,-7,-9
-22,-61,-41,44,14,-65,53,31,8,-7,-7,-9
-22,-61,-41,44,14,-65,53,31,8,-7,-7,-9
-22,-61,-41,44,14,-65,53,31,8,-7,-7,-9
-22,-61,-41,44,14,-65,53,31,8,-7,-7,-9
-22,-61,-41,44,14,-65,53,31,8,-7,-7,-9
-22,-61,-41,44,14,-65,53,31,8,-8,-7,-9
-22,-61,-41,44,14,-65,51,31,8,-9,-7,-9
-22,-61,-41,44,14,-65,50,31,8,-10,-7,-9
-22,-61,-41,44,14,-65,48,31,8,-11,-7,-9
-21,-61,-42,44,15,-65,47,31,8,-12,-7,-9
-19,-61,-43,43,17,-66,46,31,8,-12,-7,-9
-17,-61,-45,42,20,-67,46,31,8,-12,-7,-9
-15,-61,-47,41,22,-69,46,31,8,-12,-7,-9
-13,-61,-49,40,24,-70,46,31,8,-12,-7,-9
-13,-61,-49,40,25,-70,46,31,8,-11,-7,-9
-12,-61,-49,39,25,-70,46,31,8,-10,-7,-9
-12,-61,-49,39,25,-70,46,31,8,-9,-7,-9
-12,-61,-49,39,25,-70,45,30,8,-8,-7,-8
-12,-61,-49,39,25,-70,44,29,8,-8,-7,-7
-12,-61,-49,39,25,-70,42,28,8,-7,-7,-6
-12,-61,-49,39,25,-70,41,26,8,-7,-7,-4
-12,-60,-49,39,25,-69,40,26,8,-7,-7,-3
-12,-58,-47,38,24,-67,39,25,8,-7,-7,-2
-12,-56,-45,37,22,-65,39,25,8,-7,-7,-0
-12,-54,-43,36,21,-62,39,25,8,-7,-7,1
-12,-52,-41,35,20,-59,39,26,8,-7,-7,2
-12,-50,-39,34,18,-57,39,27,8,-7,-6,4
-12,-48,-37,33,17,-54,39,28,8,-7,-5,5
-12,-46,-34,32,15,-51,39,29,8,-7,-4,6
-12,-44,-33,31,15,-50,40,30,9,-7,-2,7
-12,-44,-33,31,14,-49,41,30,10,-5,-1,7
-12,-44,-32,30,14,-48,42,31,11,-2,0,8
-12,-44,-32,30,14,-48,44,31,12,0,2,8
-12,-44,-32,30,14,-48,45,31,14,2,3,8
-12,-44,-32,30,14,-48,46,33,15,3,4,8
-12,-44,-32,30,14,-48,46,34,17,5,5,8
-12,-44,-32,30,14,-48,46,35,18,6,6,8
-12,-44,-32,30,14,-48,47,37,20,7,8,8
-12,-44,-32,30,14,-48,48,38,23,8,9,9
-12,-44,-32,30,14,-48,50,40,25,10,10,10
-12,-44,-32,30,14,-48,51,41,28,11,12,12
-12,-43,-32,30,13,-47,53,43,30,12,12,13
-12,-41,-30,29,12,-45,53,44,32,13,13,13
-12,-39,-28,28,11,-43,53,45,34,15,13,13
-12,-37,-26,27,10,-40,53,47,35,16,13,13
-11,-35,-25,25,10,-38,53,48,36,17,13,14
-10,-33,-24,23,10,-36,51,48,36,18,13,15
-8,-31,-24,21,11,-35,50,48,36,20,13,16
-6,-29,-24,19,12,-34,48,48,36,21,13,17
-4,-28,-24,17,13,-33,45,48,36,22,13,18
-4,-27,-24,17,13,-33,42,45,36,22,13,18
-3,-27,-24,17,14,-32,39,43,36,22,13,19
-3,-27,-24,17,14,-32,35,40,36,22,13,19
-4,-27,-23,17,13,-32,32,37,36,22,13,18
-6,-27,-21,18,11,-30,30,35,35,21,13,17
-8,-27,-20,19,8,-29,28,34,34,20,13,16
-10,-27,-17,20,6,-28,26,32,32,18,13,15
-11,-28,-17,21,4,-28,24,31,31,18,12,14
-12,-29,-18,22,5,-30,23,29,29,17,11,13
-12,-31,-20,23,6,-32,21,28,28,17,10,13
-12,-33,-22,25,7,-35,19,26,26,17,9,13
-12,-35,-24,26,8,-38,17,26,25,17,8,13
-12,-37,-26,27,10,-40,15,25,24,16,8,12
-12,-39,-28,28,11,-43,14,25,22,15,8,10
-12,-42,-30,29,12,-46,12,25,21,13,8,9
-13,-43,-31,30,12,-47,11,24,19,12,7,8
-15,-43,-29,32,10,-46,10,23,18,11,6,8
-17,-44,-28,33,8,-46,10,22,17,10,5,8
-19,-44,-26,34,6,-45,10,21,15,8,4,8
-22,-44,-25,35,3,-44,10,20,14,8,3,7
-24,-46,-24,38,2,-45,10,19,12,7,2,6
-26,-48,-24,39,0,-46,10,19,11,7,0,5
-28,-50,-24,42,-2,-47,10,19,10,7,-1,4
-30,-52,-25,44,-2,-49,10,19,9,7,-2,3
-30,-54,-26,45,-1,-52,10,19,8,6,-4,2
-31,-56,-27,46,-1,-53,10,19,8,5,-4,2
-31,-56,-28,46,-1,-53,10,19,8,5,-5,2
-31,-56,-28,46,0,-54,10,19,8,5,-5,2
-31,-56,-28,46,0,-54,10,19,8,5,-5,2
-31,-56,-28,46,0,-54,10,19,8,5,-5,2
-31,-56,-28,46,0,-54,10,19,8,5,-5,2
-31,-64,-35,50,4,-63,10,19,8,1,-7,1
-31,-73,-45,56,11,-75,10,19,8,-5,-11,-2
-31,-76,-48,57,13,-79,10,19,8,-6,-12,-3
-31,-77,-49,58,13,-81,10,19,8,-7,-12,-3
-31,-78,-49,58,14,-81,10,19,8,-7,-13,-3
-31,-78,-49,58,14,-81,10,19,8,-7,-13,-3
-31,-78,-49,58,14,-81,10,19,8,-7,-13,-3
-31,-78,-49,58,14,-81,10,19,8,-7,-13,-3
-31,-77,-49,57,13,-80,10,19,8,-7,-13,-3
-31,-75,-47,56,12,-78,10,19,8,-7,-13,-3
-31,-73,-45,56,11,-76,10,19,8,-7,-13,-3
-31,-71,-43,55,10,-73,10,19,8,-7,-13,-3
-31,-70,-42,54,9,-71,10,19,8,-7,-13,-3
-31,-69,-41,54,8,-71,10,19,8,-7,-13,-3
-31,-69,-41,53,8,-70,10,19,8,-7,-13,-3
-31,-69,-41,53,8,-70,10,19,8,-7,-13,-3
-31,-69,-41,53,8,-70,10,20,8,-7,-13,-2
-31,-69,-41,53,8,-70,10,21,8,-6,-13,-1
-31,-69,-41,53,8,-70,10,22,8,-5,-13,-0
-31,-69,-41,53,8,-70,10,23,8,-4,-13,1
-31,-69,-41,53,8,-70,10,24,9,-3,-13,2
-31,-69,-41,53,8,-70,10,25,10,-3,-13,2
-31,-69,-41,53,8,-70,10,25,11,-2,-13,2
-31,-69,-41,53,8,-70,10,25,12,-2,-13,2
-31,-69,-41,53,8,-70,10,25,13,-2,-13,2
-31,-69,-41,53,8,-70,10,25,14,-2,-13,2
-31,-69,-41,53,8,-70,10,25,14,-2,-13,2
-31,-69,-41,53,8,-70,10,25,14,-2,-13,2
-31,-69,-41,53,8,-70,9,25,13,-2,-13,2
-31,-69,-41,53,8,-70,8,25,12,-2,-13,1
-31,-69,-41,53,8,-70,6,25,11,-2,-13,-0
-31,-69,-41,53,8,-70,5,25,10,-2,-13,-2
-30,-69,-42,53,10,-71,3,25,9,-2,-13,-2
-28,-69,-43,52,12,-72,1,25,8,-2,-13,-3
-26,-69,-45,51,14,-73,-0,25,8,-2,-13,-3
-24,-69,-47,50,17,-75,-2,25,8,-2,-13,-3
-22,-70,-49,50,19,-76,-3,25,8,-2,-13,-3
-22,-72,-52,50,21,-79,-4,25,8,-2,-13,-3
-22,-73,-54,51,22,-81,-4,25,8,-2,-13,-3
-22,-75,-56,52,24,-84,-4,25,8,-2,-13,-3
-22,-77,-57,53,25,-85,-4,25,8,-2,-13,-3
-22,-77,-57,53,25,-86,-4,25,8,-2,-13,-3
-22,-78,-58,53,25,-87,-4,25,8,-2,-13,-3
-22,-78,-58,53,25,-87,-4,25,8,-2,-13,-3
-22,-78,-57,54,24,-86,-5,25,8,-2,-13,-3
-24,-78,-55,55,22,-85,-6,25,8,-2,-13,-3
-26,-78,-54,56,20,-84,-8,25,8,-2,-13,-3
-28,-78,-52,57,17,-83,-9,25,8,-2,-13,-3
-30,-78,-50,57,15,-82,-10,25,8,-2,-13,-3
-30,-78,-50,58,15,-82,-11,25,6,-2,-13,-3
-31,-78,-49,58,14,-81,-11,25,5,-2,-13,-3
-31,-78,-49,58,14,-81,-11,25,4,-2,-13,-3
-31,-78,-49,58,14,-81,-11,25,3,-3,-13,-3
-31,-78,-49,58,14,-81,-11,25,3,-4,-14,-3
-31,-78,-49,58,14,-81,-11,25,3,-5,-15,-3
-31,-78,-49,58,14,-81,-11,25,3,-6,-16,-3
-31,-78,-49,58,14,-81,-11,25,3,-7,-17,-3
-31,-78,-49,58,14,-81,-11,25,3,-7,-17,-3
-31,-78,-49,58,14,-81,-11,25,3,-7,-18,-3
-31,-78,-49,58,14,-81,-11,25,3,-7,-18,-3
-31,-78,-49,58,14,-81,-11,25,3,-7,-18,-3
-31,-78,-49,58,14,-81,-11,25,3,-7,-18,-3
-31,-78,-49,58,14,-81,-11,25,3,-7,-18,-3
-31,-78,-49,58,14,-81,-11,25,3,-7,-18,-3
-31,-78,-49,58,14,-81,-11,25,3,-7,-18,-3
-31,-78,-49,58,14,-81,-11,25,3,-7,-18,-3
-31,-78,-49,58,14,-81,-11,25,3,-7,-18,-3
-31,-78,-49,58,14,-81,-11,25,3,-7,-18,-3
-31,-78,-49,58,14,-81,-11,25,3,-7,-18,-3
-31,-78,-49,58,14,-81,-11,25,3,-7,-18,-3
-31,-78,-49,58,14,-81,-11,25,3,-7,-18,-3
-31,-78,-49,58,14,-81,-11,25,3,-7,-18,-3
-31,-78,-49,58,14,-81,-11,25,3,-7,-18,-3
-31,-78,-49,58,14,-81,-11,25,3,-7,-18,-3
-31,-78,-49,58,14,-81,-11,25,3,-7,-18,-3
-31,-78,-49,58,14,-81,-11,25,3,-7,-18,-3
-31,-78,-49,58,14,-81,-11,25,3,-7,-18,-3
-31,-78,-49,58,14,-81,-11,25,3,-7,-18,-3
-31,-78,-49,58,14,-81,-11,25,3,-7,-18,-3
-31,-78,-49,58,14,-81,-11,25,3,-7,-18,-3
-31,-78,-49,58,14,-81,-12,25,2,-7,-18,-3
-31,-78,-49,58,14,-81,-13,25,1,-7,-18,-3
-31,-78,-49,58,14,-81,-15,25,0,-7,-18,-3
-31,-78,-49,58,14,-81,-17,25,-1,-7,-18,-3
-31,-78,-49,58,14,-81,-18,25,-2,-7,-18,-3
-31,-78,-49,58,14,-81,-18,25,-3,-7,-19,-3
-31,-78,-49,58,14,-81,-18,25,-3,-7,-20,-3
-31,-78,-49,58,14,-81,-18,25,-3,-7,-22,-3
-31,-78,-49,58,14,-81,-18,25,-3,-7,-22,-3
-31,-78,-49,58,14,-81,-18,25,-3,-7,-23,-3
-31,-78,-49,58,14,-81,-18,25,-3,-7,-23,-3
-31,-78,-49,58,14,-81,-18,25,-3,-7,-23,-3
-31,-78,-49,58,14,-81,-18,25,-3,-7,-23,-3
-31,-78,-49,58,14,-81,-18,25,-3,-7,-23,-3
-31,-78,-49,58,14,-81,-18,25,-3,-7,-23,-3
-31,-78,-49,58,14,-81,-18,25,-3,-7,-23,-3
-31,-78,-49,58,14,-81,-18,25,-3,-7,-23,-3
-31,-78,-49,58,14,-81,-18,25,-3,-7,-23,-3
-31,-78,-49,58,14,-81,-18,25,-3,-7,-23,-3
-31,-78,-49,58,14,-81,-18,25,-3,-7,-23,-3
-31,-78,-49,58,14,-81,-18,25,-3,-7,-23,-3
-31,-78,-49,58,14,-81,-18,25,-3,-7,-23,-3
-31,-78,-49,58,14,-81,-18,25,-3,-7,-23,-3
-31,-78,-49,58,14,-81,-18,25,-3,-7,-23,-3
-31,-78,-49,58,14,-81,-18,26,-2,-7,-23,-3
-31,-78,-49,58,14,-81,-18,27,-1,-6,-23,-3
-31,-78,-49,58,14,-81,-18,28,0,-5,-23,-3
-31,-78,-49,58,14,-81,-18,29,1,-4,-23,-3
-31,-77,-49,57,13,-80,-18,30,2,-2,-22,-3
-31,-75,-47,56,12,-78,-16,30,3,-1,-21,-3
-31,-73,-45,56,11,-76,-15,31,3,0,-20,-3
-31,-71,-43,55,10,-73,-13,31,3,1,-19,-3
-31,-70,-42,54,9,-71,-12,31,3,2,-18,-3
-31,-69,-41,54,8,-71,-12,31,4,3,-18,-3
-31,-69,-41,53,8,-70,-11,31,5,5,-18,-3
-31,-69,-41,53,8,-70,-11,31,7,6,-18,-3
-31,-68,-40,53,8,-69,-11,31,8,7,-18,-2
-31,-67,-38,52,7,-67,-11,33,8,7,-18,-1
-31,-65,-37,51,6,-65,-11,34,8,7,-18,-0
-31,-63,-34,50,4,-62,-11,35,8,7,-18,1
-31,-61,-32,49,3,-59,-11,36,9,8,-18,2
-31,-58,-30,48,1,-57,-11,36,10,9,-18,2
-31,-56,-28,46,0,-54,-11,37,11,10,-18,2
-31,-54,-26,45,-2,-51,-11,37,12,11,-18,2
-31,-52,-24,44,-3,-48,-12,36,13,12,-18,3
-31,-50,-22,43,-4,-46,-13,35,14,12,-18,4
-31,-48,-20,42,-6,-43,-15,34,14,12,-18,5
-31,-46,-17,41,-7,-40,-17,32,14,12,-18,6
-31,-44,-16,40,-8,-39,-19,31,13,12,-18,7
-31,-44,-16,40,-8,-38,-22,29,12,12,-18,7
-31,-44,-15,39,-8,-38,-26,28,11,12,-18,8
-31,-44,-15,39,-8,-38,-29,26,10,12,-18,8
-31,-44,-15,39,-8,-38,-32,25,9,12,-18,7
-31,-44,-15,39,-8,-38,-34,24,8,12,-18,7
-31,-44,-15,39,-8,-38,-34,24,8,12,-18,6
-31,-44,-15,39,-8,-38,-35,23,8,12,-18,6
-31,-44,-15,39,-8,-38,-35,23,8,12,-18,6
-31,-44,-15,39,-8,-38,-35,23,8,12,-18,6
-31,-44,-15,39,-8,-38,-35,23,8,12,-18,6
-31,-44,-15,40,-9,-38,-35,23,8,12,-18,6
-20,-40,-22,32,2,-39,-33,51,41,31,-6,12
-20,-40,-22,32,2,-39,-33,51,41,31,-6,12
-20,-40,-22,32,2,-39,-33,51,41,31,-6,12
-20,-40,-22,32,2,-39,-33,51,41,31,-6,12
-17,-42,-26,32,7,-44,-30,69,57,38,-4,12
-8,-42,-34,28,18,-49,-12,103,86,51,4,17
-6,-44,-39,28,22,-53,8,133,111,63,9,17
6,-44,-49,22,36,-60,23,158,134,77,17,21
19,-36,-54,10,47,-57,28,161,146,90,26,30
33,-40,-71,6,67,-71,23,161,142,95,32,38
56,-25,-77,-14,85,-65,3,150,142,108,48,53
83,-21,-98,-30,116,-76,-17,135,139,121,64,70
118,-6,-115,-55,148,-77,-39,120,136,142,89,90
157,19,-126,-89,179,-68,-71,97,134,164,116,118
194,56,-124,-126,200,-44,-103,69,122,181,144,148
219,92,-111,-158,207,-12,-141,35,111,202,171,177
249,123,-107,-190,222,11,-175,9,117,229,201,206
285,151,-113,-224,249,24,-204,-10,126,258,229,234
301,164,-115,-239,260,31,-231,-38,112,262,240,250
288,164,-103,-232,243,39,-240,-62,95,235,226,247
249,151,-79,-206,204,46,-247,-94,59,200,202,233
212,134,-62,-178,170,46,-251,-128,11,159,171,210
161,117,-32,-144,120,54,-254,-170,-50,106,130,174
95,102,14,-102,48,75,-251,-208,-105,51,90,144
28,92,66,-63,-26,101,-238,-236,-168,-11,39,107
-20,85,104,-36,-81,121,-226,-261,-217,-64,1,70
-59,75,129,-11,-121,131,-211,-268,-251,-104,-28,42
-75,62,132,4,-132,124,-199,-262,-255,-122,-50,21
-82,41,117,19,-127,101,-186,-240,-240,-122,-58,9
-82,30,106,25,-120,87,-174,-214,-217,-116,-59,8
-82,19,95,31,-113,73,-163,-191,-200,-106,-59,2
-89,15,98,36,-118,72,-148,-163,-176,-95,-58,-1
-79,9,83,35,-103,58,-145,-144,-147,-79,-54,-1
-72,0,68,36,-89,44,-138,-122,-127,-69,-46,-2
-63,-12,46,39,-69,22,-125,-92,-107,-54,-45,-5
-63,-25,34,45,-61,5,-116,-75,-92,-48,-40,-9
-61,-31,25,48,-54,-4,-105,-53,-79,-41,-40,-13
-61,-40,17,52,-48,-15,-102,-40,-68,-35,-44,-13
-59,-46,8,55,-41,-24,-94,-34,-58,-30,-42,-14
-59,-53,2,58,-37,-33,-78,-23,-44,-25,-40,-16
-59,-48,6,56,-40,-27,-73,-16,-37,-21,-33,-16
-61,-53,4,59,-40,-31,-69,-12,-34,-20,-33,-17
-52,-57,-9,57,-26,-42,-66,-1,-31,-15,-35,-13
-51,-60,-13,59,-23,-47,-66,1,-30,-12,-35,-14
-51,-65,-17,61,-20,-53,-67,2,-29,-10,-36,-14
-50,-68,-22,63,-16,-58,-69,4,-28,-9,-36,-15
-50,-71,-25,64,-13,-61,-70,5,-27,-9,-36,-15
-49,-72,-27,64,-12,-64,-69,6,-27,-9,-36,-15
-50,-72,-26,65,-13,-63,-68,6,-27,-9,-37,-15
-51,-72,-25,65,-15,-61,-67,6,-26,-8,-38,-15
-51,-71,-24,65,-16,-61,-64,7,-25,-8,-40,-15
-50,-72,-26,65,-14,-63,-63,8,-24,-8,-40,-15
-49,-74,-29,65,-11,-66,-64,9,-24,-9,-41,-15
-47,-75,-32,65,-7,-69,-65,9,-23,-10,-40,-15
-44,-78,-37,65,-2,-74,-67,11,-22,-10,-40,-15
-43,-81,-41,66,1,-78,-68,12,-21,-11,-40,-16
-43,-81,-42,66,2,-79,-68,13,-21,-11,-40,-17
-42,-81,-42,66,2,-79,-68,13,-21,-12,-40,-18
-42,-80,-41,65,2,-78,-67,15,-20,-13,-39,-20
-43,-79,-40,65,0,-76,-64,16,-20,-13,-39,-20
-45,-78,-37,65,-3,-73,-62,16,-21,-13,-38,-20
-47,-78,-34,66,-6,-72,-60,16,-21,-13,-38,-20
-49,-78,-32,67,-8,-70,-60,17,-22,-12,-38,-20
-50,-78,-32,68,-10,-71,-60,18,-22,-12,-38,-20
-51,-80,-33,69,-9,-72,-61,18,-21,-12,-38,-19
-50,-81,-35,70,-8,-75,-62,19,-20,-11,-37,-18
-50,-82,-36,70,-6,-76,-62,19,-19,-11,-37,-18
-49,-82,-37,69,-6,-76,-61,19,-19,-11,-37,-18
-49,-81,-36,69,-6,-75,-59,19,-18,-10,-37,-18
-50,-80,-34,69,-8,-73,-57,19,-18,-10,-37,-18
-51,-80,-33,69,-10,-72,-55,19,-18,-9,-36,-17
-50,-79,-32,68,-10,-71,-53,19,-18,-9,-36,-17
-50,-77,-32,67,-10,-70,-54,19,-18,-9,-36,-17
-49,-76,-31,66,-10,-68,-55,18,-18,-9,-36,-17
-48,-75,-31,65,-9,-67,-57,18,-17,-8,-35,-17
-47,-74,-30,64,-9,-66,-58,18,-17,-8,-35,-17
-47,-73,-30,63,-9,-66,-58,19,-17,-8,-35,-16
-47,-72,-29,63,-10,-64,-57,21,-17,-9,-36,-16
-46,-71,-29,62,-9,-64,-57,21,-17,-10,-37,-15
-45,-69,-28,61,-9,-63,-56,22,-17,-11,-38,-15
-44,-69,-28,60,-9,-61,-57,22,-17,-11,-37,-14
-44,-67,-26,59,-10,-60,-58,21,-17,-11,-37,-14
-44,-67,-26,59,-10,-59,-58,21,-18,-11,-37,-14
-44,-68,-27,60,-10,-60,-60,21,-18,-11,-37,-14
-44,-69,-28,60,-9,-61,-61,21,-17,-10,-35,-14
-44,-69,-29,61,-8,-63,-61,21,-15,-9,-34,-14
-44,-71,-31,61,-6,-65,-61,20,-14,-7,-34,-15
-43,-70,-31,60,-6,-65,-60,19,-13,-7,-33,-15
-42,-69,-31,59,-6,-64,-60,19,-13,-6,-33,-14
-43,-69,-29,59,-7,-63,-60,18,-14,-6,-33,-13
-44,-67,-26,59,-10,-60,-60,18,-14,-6,-33,-10
-44,-65,-24,58,-11,-57,-60,19,-15,-6,-33,-10
-45,-63,-21,57,-14,-53,-60,19,-15,-6,-33,-11
-46,-61,-19,57,-16,-51,-61,19,-15,-4,-31,-11
-46,-61,-19,57,-15,-52,-62,20,-14,-2,-29,-11
-45,-61,-20,56,-15,-52,-62,21,-14,-2,-29,-11
-44,-60,-19,56,-15,-51,-62,21,-14,-2,-30,-11
-45,-62,-20,57,-15,-52,-62,22,-12,-1,-30,-11
-46,-64,-22,59,-14,-55,-62,25,-11,1,-31,-11
-46,-66,-24,59,-12,-58,-61,26,-10,2,-31,-11
-44,-67,-26,59,-10,-59,-60,27,-10,3,-31,-11
-42,-67,-28,58,-7,-61,-60,28,-9,5,-31,-11
-40,-67,-30,57,-4,-62,-60,28,-8,6,-31,-11
-38,-67,-32,56,-2,-64,-60,28,-8,6,-31,-11
-36,-67,-34,55,0,-64,-60,28,-8,6,-31,-11
-36,-68,-35,55,1,-66,-61,28,-8,6,-31,-11
-35,-69,-36,56,2,-67,-61,28,-8,6,-31,-11
-35,-69,-37,56,3,-67,-61,29,-8,6,-31,-11
-35,-69,-37,56,3,-67,-62,29,-8,6,-31,-11
-35,-68,-36,55,2,-66,-63,29,-7,7,-30,-11
-35,-67,-35,55,2,-65,-65,29,-7,8,-29,-11
-35,-67,-34,55,1,-65,-66,29,-6,8,-28,-11
-33,-67,-37,53,4,-66,-67,30,-6,8,-27,-10
-32,-67,-38,53,6,-67,-67,30,-6,9,-27,-9
-31,-66,-37,52,6,-66,-68,31,-6,9,-27,-8
-29,-64,-37,50,7,-65,-69,31,-6,10,-27,-7
-29,-62,-35,49,6,-62,-70,31,-5,10,-26,-6
-28,-60,-34,47,5,-60,-71,31,-5,11,-26,-6
-28,-59,-34,46,6,-59,-71,32,-4,12,-25,-6
-27,-58,-34,45,6,-59,-71,32,-4,12,-25,-6
-26,-57,-33,44,6,-57,-71,30,-5,13,-24,-5
-26,-56,-32,44,6,-57,-71,29,-6,13,-23,-4
-25,-56,-32,43,6,-56,-71,28,-7,13,-23,-3
-25,-55,-32,43,6,-55,-71,27,-7,13,-22,-2
-27,-54,-30,43,3,-54,-71,27,-7,13,-23,-1
-28,-53,-27,43,1,-51,-71,28,-7,13,-23,-1
-29,-50,-24,42,-2,-47,-72,28,-6,12,-24,0
-30,-49,-21,42,-4,-45,-72,28,-6,12,-24,1
-31,-48,-20,42,-6,-44,-70,28,-6,12,-24,1
-31,-48,-20,42,-6,-43,-69,28,-6,12,-24,2
-31,-47,-19,41,-6,-42,-67,28,-6,13,-23,2
-30,-45,-18,40,-6,-40,-66,29,-6,13,-22,2
-29,-44,-17,39,-6,-39,-66,29,-6,13,-22,2
-28,-43,-17,38,-6,-39,-65,29,-6,13,-22,1
-27,-42,-17,37,-4,-38,-65,29,-6,13,-22,-0
-26,-42,-17,36,-4,-38,-65,29,-5,13,-22,-1
-26,-42,-17,36,-4,-38,-64,30,-4,14,-22,-1
-26,-42,-17,36,-4,-38,-63,31,-3,14,-22,-0
-26,-42,-17,36,-4,-38,-62,32,-1,15,-22,-0
-26,-41,-17,36,-5,-36,-62,33,-1,15,-21,-0
-26,-39,-14,34,-6,-34,-62,33,-0,16,-20,-0
-26,-36,-11,33,-8,-30,-62,33,0,17,-18,-0
-26,-33,-9,31,-10,-26,-62,33,0,18,-16,-0
-26,-29,-5,29,-12,-22,-62,32,0,19,-16,-0
-25,-27,-3,28,-13,-19,-62,32,0,19,-15,0
-24,-25,-2,26,-13,-17,-62,32,0,20,-15,1
-24,-22,-0,25,-14,-15,-63,32,1,20,-15,1
-23,-19,2,22,-15,-11,-63,32,2,20,-14,2
-22,-17,4,20,-16,-8,-63,32,3,22,-13,4
-22,-14,6,19,-17,-5,-63,33,5,24,-11,5
-22,-12,9,18,-20,-2,-63,33,6,26,-9,6
-23,-10,12,17,-22,2,-63,34,8,27,-8,7
-23,-8,14,16,-23,4,-64,34,9,27,-8,8
-22,-6,15,14,-23,6,-67,34,10,28,-7,9
-22,-3,17,13,-24,8,-69,35,11,29,-7,9
-22,-2,18,12,-25,10,-71,35,10,29,-7,10
-21,-2,17,11,-24,10,-72,33,10,30,-7,11
-20,-1,17,11,-23,10,-73,33,9,30,-6,12
-19,-1,17,11,-22,10,-75,32,8,31,-6,13
-19,-1,17,11,-22,10,-76,31,8,31,-6,14
-21,-2,17,12,-24,9,-78,29,8,31,-6,14
-23,-3,18,13,-26,10,-80,28,9,31,-6,15
-23,-3,18,14,-26,9,-81,26,9,31,-6,15
-23,-4,17,14,-25,8,-82,25,9,31,-6,15
-21,-6,14,14,-22,5,-83,23,8,30,-7,14
-19,-7,11,14,-18,2,-85,22,7,29,-7,13
-17,-8,8,13,-16,1,-87,21,5,27,-8,12
-16,-8,6,13,-13,-2,-88,20,4,25,-9,12
-15,-9,5,13,-12,-3,-88,19,2,25,-10,10
-16,-10,5,13,-12,-3,-87,19,0,25,-12,8
-17,-11,6,15,-14,-3,-86,19,-2,24,-14,6
-20,-12,6,17,-16,-4,-85,18,-4,23,-15,4
-23,-15,7,20,-18,-5,-85,17,-6,21,-16,3
-26,-19,6,23,-20,-8,-84,15,-8,19,-17,2
-29,-22,5,27,-21,-11,-83,13,-10,17,-17,2
-33,-27,3,31,-22,-15,-82,12,-11,15,-19,1
-34,-30,2,34,-22,-18,-82,12,-11,12,-21,-0
-36,-33,-0,37,-21,-22,-81,11,-12,9,-23,-2
-37,-37,-3,39,-21,-26,-81,11,-12,6,-24,-4
-38,-40,-6,41,-19,-29,-81,10,-14,3,-25,-6
-38,-41,-6,42,-18,-30,-79,10,-15,2,-27,-8
-38,-42,-7,42,-18,-31,-76,10,-17,1,-28,-10
-38,-42,-7,42,-18,-31,-74,10,-19,1,-28,-12
-41,-42,-5,44,-22,-30,-73,10,-21,1,-29,-13
-45,-44,-3,47,-26,-30,-73,10,-23,1,-31,-14
-49,-49,-4,51,-27,-34,-72,9,-23,-0,-33,-15
-51,-53,-6,55,-27,-38,-72,9,-24,-1,-34,-16
-53,-56,-7,57,-27,-40,-72,9,-24,-1,-35,-16
-53,-59,-10,59,-26,-44,-72,9,-24,-1,-35,-17
-54,-61,-12,61,-25,-47,-72,9,-24,-1,-36,-18
-54,-62,-13,61,-24,-48,-72,9,-24,-1,-36,-18
-54,-63,-13,61,-24,-48,-72,9,-24,-1,-36,-18
-54,-63,-13,61,-24,-48,-72,9,-24,-1,-36,-18
-54,-63,-13,61,-24,-48,-72,9,-24,-1,-36,-18
-54,-63,-13,61,-24,-48,-72,9,-24,-1,-36,-18
-55,-65,-14,63,-24,-51,-69,6,-26,-3,-37,-19
-57,-68,-15,66,-25,-53,-64,3,-29,-6,-38,-19
-58,-69,-15,67,-25,-54,-62,2,-30,-7,-38,-20
-58,-69,-15,67,-25,-54,-62,2,-31,-7,-38,-20
-58,-68,-14,67,-26,-53,-62,2,-31,-7,-38,-20
-58,-67,-13,66,-27,-51,-62,3,-31,-7,-37,-20
-58,-65,-11,65,-28,-48,-62,4,-31,-7,-36,-20
-58,-63,-9,64,-30,-46,-62,6,-31,-7,-34,-20
-58,-61,-7,62,-31,-43,-62,7,-30,-7,-34,-19
-58,-58,-5,61,-33,-40,-62,7,-29,-5,-33,-18
-58,-56,-3,60,-34,-38,-62,7,-28,-2,-33,-17
-58,-54,-0,59,-35,-35,-62,7,-27,0,-33,-15
-58,-53,1,58,-36,-33,-62,7,-26,2,-33,-15
-58,-53,1,58,-36,-33,-62,7,-26,3,-33,-14
-58,-52,2,58,-36,-32,-62,7,-25,5,-33,-14
-58,-52,2,58,-36,-32,-62,7,-25,6,-33,-14
-58,-52,2,58,-36,-32,-61,8,-25,7,-33,-14
-58,-52,2,58,-36,-32,-59,9,-25,7,-33,-14
-58,-52,2,58,-36,-32,-58,10,-25,7,-33,-14
-58,-52,2,58,-36,-32,-56,12,-25,7,-33,-14
-58,-52,2,58,-36,-32,-55,13,-25,7,-33,-14
-58,-52,2,58,-36,-32,-55,13,-25,7,-32,-14
-58,-52,2,58,-36,-32,-54,13,-25,7,-31,-14
-58,-52,2,58,-36,-32,-54,13,-25,7,-29,-14
-57,-53,0,58,-35,-34,-54,13,-25,7,-29,-13
-56,-55,-3,58,-31,-37,-54,13,-24,7,-28,-12
-54,-56,-7,58,-28,-40,-54,13,-23,7,-28,-11
-51,-58,-11,58,-24,-45,-54,13,-21,7,-28,-10
-50,-60,-14,58,-21,-47,-54,14,-20,7,-28,-9
-50,-60,-14,58,-21,-48,-54,15,-20,7,-28,-9
-49,-61,-15,58,-20,-48,-54,16,-20,7,-28,-9
-49,-61,-15,58,-20,-48,-54,18,-20,7,-28,-9
-49,-61,-15,58,-20,-48,-54,18,-20,7,-28,-9
-49,-61,-15,58,-20,-48,-54,19,-20,7,-28,-9
-49,-61,-15,58,-20,-48,-54,19,-20,7,-28,-9
-49,-61,-15,58,-20,-48,-54,19,-20,7,-28,-9
-49,-60,-14,57,-20,-47,-54,19,-20,7,-28,-9
-49,-58,-13,56,-21,-45,-54,19,-20,7,-28,-9
-49,-56,-11,56,-22,-43,-54,19,-20,7,-28,-9
-49,-54,-9,55,-24,-40,-54,19,-20,7,-28,-9
-49,-53,-8,54,-25,-39,-54,19,-20,7,-28,-9
-49,-53,-7,54,-25,-38,-54,19,-20,7,-28,-9
-49,-52,-7,53,-25,-38,-54,19,-20,7,-28,-9
-49,-52,-7,53,-25,-38,-54,19,-20,7,-28,-9
-49,-52,-7,53,-25,-38,-54,19,-20,7,-28,-9
-49,-52,-7,53,-25,-38,-54,19,-20,7,-28,-9
-49,-52,-7,53,-25,-38,-54,19,-20,7,-28,-9
-49,-52,-7,53,-25,-38,-54,19,-20,7,-28,-9
-49,-53,-8,54,-25,-39,-54,19,-20,7,-28,-9
-49,-55,-9,55,-24,-41,-52,19,-20,7,-28,-9
-49,-56,-11,56,-22,-43,-51,19,-20,7,-28,-9
-49,-58,-13,57,-21,-46,-49,19,-20,7,-28,-9
-49,-60,-14,57,-20,-47,-48,19,-20,7,-28,-8
-49,-60,-15,58,-20,-48,-48,19,-20,7,-28,-7
-49,-61,-15,58,-20,-48,-47,19,-20,7,-28,-6
-49,-61,-15,58,-20,-48,-47,19,-20,7,-28,-4
-49,-61,-15,58,-20,-48,-47,19,-20,7,-28,-4
-49,-61,-15,58,-20,-48,-47,19,-20,7,-28,-3
-49,-61,-15,58,-20,-48,-47,19,-20,7,-28,-3
-49,-61,-15,58,-20,-48,-47,19,-20,7,-28,-3
-49,-61,-15,58,-20,-48,-47,18,-20,7,-28,-3
-49,-61,-15,58,-20,-48,-47,17,-20,7,-28,-3
-49,-61,-15,58,-20,-48,-47,16,-20,7,-28,-3
-49,-61,-15,58,-20,-48,-47,15,-20,7,-28,-3
-49,-61,-15,58,-20,-48,-47,14,-20,7,-28,-3
-49,-61,-15,58,-20,-48,-47,13,-21,7,-28,-3
-49,-61,-15,58,-20,-48,-47,13,-23,7,-28,-3
-49,-61,-15,58,-20,-48,-47,13,-24,7,-28,-3
-49,-61,-15,58,-20,-48,-47,13,-25,7,-28,-3
-49,-61,-15,58,-20,-48,-47,13,-25,7,-28,-3
-49,-61,-15,58,-20,-48,-47,13,-25,7,-28,-3
-49,-61,-15,58,-20,-48,-47,13,-25,7,-28,-3
-49,-61,-15,58,-20,-48,-47,13,-25,7,-28,-3
-49,-61,-15,58,-20,-48,-47,13,-25,7,-28,-3
-49,-61,-15,58,-20,-48,-47,13,-25,7,-28,-3
-49,-61,-15,58,-20,-48,-47,13,-25,7,-28,-3
-49,-61,-16,58,-19,-50,-46,13,-25,7,-28,-4
-49,-63,-18,59,-18,-52,-45,13,-25,7,-28,-5
-49,-65,-20,60,-17,-54,-44,13,-25,7,-28,-6
-49,-67,-22,61,-16,-57,-42,13,-25,7,-28,-7
-49,-68,-23,62,-15,-58,-41,13,-25,7,-28,-8
-49,-69,-23,62,-15,-59,-40,13,-25,7,-28,-8
-49,-69,-24,62,-14,-59,-40,13,-25,7,-28,-9
-49,-69,-24,62,-14,-59,-40,13,-25,7,-28,-9
-49,-68,-23,62,-15,-58,-40,13,-25,7,-28,-8
-49,-67,-21,61,-16,-56,-40,13,-25,7,-28,-7
-49,-65,-20,60,-17,-54,-40,13,-25,7,-28,-6
-49,-63,-17,59,-18,-51,-40,13,-25,7,-28,-4
-49,-61,-16,58,-19,-50,-40,13,-25,7,-28,-4
-49,-61,-16,58,-20,-49,-40,13,-25,7,-28,-3
-49,-61,-15,58,-20,-48,-40,13,-25,7,-28,-3
-49,-61,-15,58,-20,-48,-40,13,-25,7,-28,-3
-49,-61,-15,58,-20,-48,-40,13,-25,7,-28,-3
-49,-61,-15,58,-20,-48,-40,13,-25,7,-28,-3
-49,-61,-15,58,-20,-48,-40,13,-25,7,-28,-3
-49,-61,-15,58,-20,-48,-40,13,-25,7,-28,-3
-49,-61,-15,58,-20,-48,-39,13,-25,7,-28,-3
-49,-61,-15,58,-20,-48,-38,13,-25,7,-28,-3
-49,-61,-15,58,-20,-48,-36,13,-25,7,-28,-3
-49,-61,-15,58,-20,-48,-35,13,-25,7,-28,-3
-49,-60,-14,57,-20,-47,-33,14,-25,8,-28,-2
-49,-58,-13,56,-21,-45,-33,15,-25,9,-28,-1
-49,-56,-11,56,-22,-43,-33,16,-25,10,-28,-0
-49,-54,-9,55,-24,-40,-33,18,-25,11,-28,1
-49,-53,-8,54,-25,-39,-32,18,-25,12,-28,2
-49,-53,-7,54,-25,-38,-31,19,-24,12,-26,4
-49,-52,-7,53,-25,-38,-29,19,-23,12,-25,5
-49,-52,-7,53,-25,-38,-27,19,-21,12,-24,6
-49,-51,-6,53,-26,-36,-26,19,-20,13,-23,7
-49,-50,-4,52,-27,-34,-24,19,-20,14,-23,7
-49,-48,-3,51,-28,-32,-22,19,-20,15,-23,8
-49,-46,-0,50,-30,-29,-20,19,-20,16,-23,8
-49,-44,2,49,-31,-27,-19,19,-20,17,-22,8
-49,-42,4,47,-33,-24,-19,19,-20,17,-21,8
-49,-39,6,46,-34,-21,-18,19,-20,17,-20,8
-49,-37,8,45,-35,-18,-18,19,-20,17,-19,8
-49,-35,10,44,-36,-16,-19,19,-20,17,-18,8
-49,-33,12,43,-38,-13,-21,19,-20,17,-18,8
-49,-31,14,42,-39,-10,-22,19,-20,17,-18,8
-49,-29,17,40,-41,-8,-24,19,-20,17,-18,8
-49,-28,18,40,-41,-6,-26,18,-20,17,-18,8
-49,-27,18,39,-42,-5,-27,17,-20,17,-18,9
-49,-27,19,39,-42,-5,-29,16,-20,17,-18,10
-49,-27,19,39,-42,-5,-31,15,-20,17,-18,12
-49,-27,19,39,-42,-5,-33,13,-20,17,-18,13
-49,-27,19,39,-42,-5,-35,12,-21,17,-18,13
-49,-27,19,39,-42,-5,-36,10,-23,17,-18,13
-49,-27,19,39,-42,-5,-38,9,-24,17,-18,13
-49,-27,19,39,-42,-5,-40,8,-25,17,-18,13
-49,-27,19,39,-42,-5,-42,8,-25,17,-18,13
-49,-27,19,39,-42,-5,-44,7,-25,17,-18,13
-49,-27,19,39,-42,-5,-45,7,-25,17,-18,13
-49,-28,18,40,-41,-6,-47,7,-26,17,-18,13
-49,-29,16,41,-40,-8,-49,6,-27,17,-18,13
-49,-31,14,42,-39,-10,-51,4,-28,17,-18,13
-49,-33,12,43,-38,-13,-53,3,-30,17,-18,13
-49,-35,10,44,-36,-16,-54,2,-31,17,-18,13
-49,-37,8,45,-35,-18,-54,2,-32,16,-18,12
-49,-39,6,46,-34,-21,-54,1,-34,15,-18,10
-49,-42,4,47,-33,-24,-54,1,-35,13,-18,9
-49,-43,3,48,-31,-26,-54,1,-36,13,-18,8
-49,-43,2,48,-31,-26,-52,1,-36,12,-19,8
-49,-44,2,49,-31,-27,-51,1,-37,12,-20,8
-49,-44,2,49,-31,-27,-49,1,-37,12,-22,8
-49,-44,1,49,-30,-28,-48,1,-37,12,-22,8
-49,-46,-1,50,-29,-30,-48,1,-37,11,-23,8
-49,-48,-3,51,-28,-32,-47,1,-37,10,-23,8
-49,-50,-5,52,-27,-35,-47,1,-37,8,-23,8
-49,-52,-7,53,-25,-38,-47,1,-37,8,-23,8
-49,-53,-8,54,-25,-39,-47,1,-38,7,-23,8
-49,-54,-9,54,-24,-40,-47,0,-38,7,-23,8
-49,-54,-9,55,-24,-40,-47,0,-38,7,-23,8
-49,-54,-9,55,-24,-40,-47,0,-38,7,-23,8
-49,-54,-9,55,-24,-40,-47,0,-38,7,-23,8
-49,-54,-9,55,-24,-40,-47,0,-38,7,-23,8
-50,-55,-9,55,-24,-41,-48,0,-38,7,-23,8
-47,-57,-13,55,-20,-45,-33,28,-16,26,-17,6
-47,-57,-13,55,-20,-45,-33,28,-16,26,-17,6
-47,-57,-13,55,-20,-45,-33,28,-16,26,-17,6
-47,-57,-13,55,-20,-45,-33,28,-16,26,-17,6
-45,-59,-17,55,-16,-49,-22,40,1,33,-14,12
-45,-67,-26,60,-10,-60,-4,62,24,41,-12,12
-43,-78,-39,64,-1,-75,15,92,55,48,-12,12
-31,-86,-58,63,19,-92,37,129,77,62,-4,10
-17,-78,-62,51,30,-90,42,144,90,75,5,19
-13,-82,-71,51,39,-98,37,144,91,85,17,27
10,-67,-77,32,57,-92,32,132,91,103,32,42
38,-46,-81,7,77,-82,12,117,94,116,54,64
72,-14,-81,-28,98,-61,-10,103,91,132,73,85
111,11,-92,-61,128,-52,-49,79,83,154,100,112
148,56,-81,-103,143,-16,-82,51,77,181,134,142
182,92,-77,-140,162,9,-120,18,72,207,166,177
212,115,-81,-167,183,22,-147,-9,77,234,195,206
230,142,-71,-192,187,46,-175,-22,93,273,234,240
246,164,-64,-211,193,64,-195,-38,95,292,261,266
251,164,-69,-213,198,61,-211,-56,79,280,257,269
221,151,-54,-192,170,63,-219,-88,42,245,233,261
194,142,-37,-173,142,68,-222,-122,11,204,202,237
152,125,-15,-144,103,71,-226,-158,-55,151,161,212
95,111,23,-107,43,85,-222,-202,-116,91,111,177
28,92,66,-63,-26,101,-210,-236,-185,18,64,140
-29,85,112,-31,-92,126,-197,-261,-240,-39,22,103
-68,75,138,-6,-132,136,-183,-268,-279,-84,-18,70
-93,70,157,9,-160,145,-184,-274,-289,-102,-40,49
-91,58,142,15,-149,128,-157,-240,-268,-98,-42,37
-91,47,132,20,-142,114,-145,-214,-245,-91,-44,30
-100,36,129,31,-146,106,-134,-191,-217,-81,-44,30
-98,24,115,36,-135,88,-120,-163,-193,-70,-42,27
-89,17,100,35,-120,75,-109,-144,-169,-59,-39,21
-82,9,85,36,-106,60,-102,-122,-144,-44,-31,20
-82,-4,72,43,-97,44,-96,-98,-124,-34,-30,23
-72,-17,51,45,-77,22,-87,-69,-109,-28,-30,19
-61,-23,34,43,-59,7,-76,-65,-96,-21,-30,15
-61,-31,25,48,-54,-4,-66,-51,-90,-15,-28,15
-59,-38,17,50,-47,-14,-58,-34,-81,-10,-27,13
-59,-44,10,54,-43,-22,-42,-23,-66,-0,-24,12
-59,-48,6,56,-40,-27,-37,-16,-59,3,-23,12
-61,-53,4,59,-40,-31,-33,-12,-57,5,-23,10
-61,-57,-0,62,-37,-36,-30,-7,-54,5,-24,9
-61,-60,-4,63,-34,-41,-29,-5,-53,8,-25,12
-61,-65,-9,66,-31,-47,-29,-4,-52,9,-25,13
-60,-68,-13,67,-27,-52,-29,-2,-51,10,-25,13
-59,-71,-17,68,-25,-56,-28,-1,-50,11,-25,12
-58,-72,-19,69,-23,-58,-27,0,-50,10,-25,12
-59,-72,-18,69,-24,-58,-25,0,-49,9,-25,10
-60,-72,-16,69,-26,-56,-23,0,-49,9,-25,9
-61,-71,-15,69,-27,-55,-21,1,-48,8,-25,8
-61,-71,-15,69,-27,-55,-19,2,-47,7,-25,7
-61,-71,-15,69,-27,-55,-19,3,-46,7,-25,7
-61,-71,-15,69,-27,-55,-18,3,-46,8,-25,6
-61,-72,-16,70,-26,-57,-18,5,-44,8,-24,6
-61,-74,-18,71,-25,-59,-18,6,-44,9,-24,6
-61,-75,-20,72,-24,-61,-18,7,-44,9,-24,6
-61,-77,-21,72,-23,-63,-18,8,-43,10,-24,6
-61,-78,-22,73,-22,-64,-16,9,-43,10,-24,6
-61,-78,-23,73,-22,-65,-14,10,-43,11,-23,7
-61,-78,-22,73,-22,-64,-12,10,-43,11,-23,7
-61,-78,-22,73,-22,-64,-10,11,-44,12,-23,8
-61,-78,-22,73,-22,-64,-10,11,-44,12,-23,8
-61,-78,-22,73,-22,-64,-10,12,-45,12,-23,8
-61,-78,-22,73,-22,-64,-11,12,-44,13,-22,8
-60,-77,-22,72,-22,-63,-11,13,-43,13,-22,9
-59,-75,-21,71,-22,-61,-11,13,-42,13,-22,9
-58,-75,-21,70,-22,-61,-10,13,-41,14,-22,9
-58,-75,-21,70,-21,-61,-9,13,-41,14,-22,9
-59,-76,-21,71,-22,-62,-7,13,-41,15,-21,10
-60,-78,-22,72,-22,-64,-4,13,-41,16,-21,10
-60,-78,-23,73,-21,-65,-2,14,-41,16,-20,10
-59,-77,-23,72,-21,-64,-1,15,-41,16,-20,10
-58,-76,-22,71,-21,-63,-1,16,-40,16,-20,10
-57,-75,-22,70,-20,-62,-1,16,-40,16,-20,10
-56,-74,-22,69,-20,-61,-1,18,-39,17,-19,10
-56,-73,-21,68,-20,-60,1,19,-38,18,-19,11
-56,-72,-20,67,-21,-59,4,21,-37,18,-18,12
-55,-71,-20,67,-20,-58,6,21,-35,18,-18,12
-54,-69,-20,65,-20,-57,8,22,-34,18,-17,12
-54,-69,-19,65,-20,-56,9,22,-34,18,-17,13
-54,-67,-18,64,-21,-54,10,21,-34,18,-16,13
-54,-67,-17,64,-21,-54,12,21,-35,18,-16,13
-54,-68,-18,64,-21,-55,10,21,-35,19,-16,13
-54,-69,-19,65,-20,-56,8,21,-34,20,-15,13
-54,-69,-20,65,-20,-57,6,21,-32,21,-14,13
-53,-71,-22,65,-17,-59,5,20,-31,22,-13,13
-51,-70,-23,64,-16,-60,5,19,-30,23,-13,12
-49,-69,-24,63,-14,-60,5,19,-30,23,-13,12
-48,-69,-25,61,-13,-60,5,18,-31,23,-13,12
-46,-67,-24,60,-12,-58,5,18,-31,23,-13,13
-45,-66,-24,59,-11,-58,5,19,-32,23,-13,13
-45,-65,-23,59,-12,-57,4,21,-32,24,-12,13
-46,-66,-23,59,-13,-57,3,22,-32,26,-10,13
-46,-68,-26,60,-11,-60,3,24,-31,27,-9,15
-45,-68,-26,60,-10,-60,3,26,-32,27,-9,15
-44,-66,-25,58,-11,-58,3,25,-32,26,-9,16
-45,-66,-24,59,-12,-57,3,25,-32,26,-10,16
-46,-67,-24,60,-12,-58,3,26,-32,27,-10,16
-46,-67,-25,60,-12,-59,4,26,-32,27,-10,16
-44,-67,-26,59,-10,-60,4,27,-30,27,-10,18
-42,-67,-28,58,-7,-61,5,28,-28,27,-10,19
-40,-67,-30,57,-4,-62,5,28,-27,27,-10,20
-38,-66,-32,55,-2,-63,5,28,-26,27,-10,21
-36,-64,-31,54,-2,-61,4,28,-26,26,-10,21
-36,-63,-30,53,-2,-60,3,28,-25,26,-10,21
-35,-62,-30,52,-2,-59,4,28,-25,26,-10,21
-36,-61,-28,52,-4,-57,5,29,-25,26,-10,21
-38,-61,-26,52,-6,-55,6,29,-25,28,-8,21
-40,-60,-23,53,-9,-53,8,29,-24,30,-7,21
-42,-59,-20,54,-12,-51,10,29,-24,32,-5,21
-44,-58,-18,54,-15,-49,11,29,-23,33,-2,22
-42,-58,-20,53,-12,-50,12,30,-21,33,-0,23
-40,-58,-21,52,-11,-51,12,30,-20,34,1,24
-40,-58,-21,52,-11,-50,11,31,-18,34,3,25
-39,-55,-19,50,-11,-47,10,31,-17,35,3,26
-38,-51,-16,47,-13,-42,11,33,-17,36,4,27
-38,-47,-13,45,-15,-39,12,34,-16,39,5,27
-37,-44,-10,43,-16,-35,14,36,-15,41,5,27
-36,-42,-9,41,-16,-32,15,38,-15,42,6,27
-35,-40,-8,40,-16,-30,15,38,-13,42,8,27
-35,-40,-7,40,-17,-30,15,38,-11,43,10,29
-34,-39,-7,39,-16,-29,15,38,-9,43,12,30
-33,-37,-6,38,-16,-28,15,38,-8,44,13,31
-33,-35,-5,36,-17,-26,13,39,-7,45,14,33
-32,-32,-2,34,-18,-22,11,39,-7,46,15,35
-31,-27,2,31,-20,-16,9,40,-6,46,16,37
-31,-23,5,28,-22,-11,6,39,-6,46,16,38
-31,-21,8,27,-24,-8,3,36,-7,47,17,40
-31,-18,10,26,-25,-5,-0,34,-8,47,17,40
-31,-15,13,24,-27,-1,-4,31,-10,48,18,41
-30,-12,15,22,-28,2,-8,30,-11,48,19,41
-29,-11,16,21,-28,4,-11,28,-13,48,19,42
-28,-9,17,19,-28,5,-15,26,-14,48,19,42
-27,-8,17,18,-27,5,-18,25,-15,48,19,42
-26,-8,16,18,-26,5,-22,23,-16,48,19,43
-26,-10,14,19,-25,3,-25,21,-17,49,19,43
-26,-12,12,20,-24,1,-27,19,-17,49,19,43
-26,-14,10,21,-22,-2,-30,18,-17,50,19,43
-26,-15,9,22,-22,-4,-32,17,-17,49,19,43
-26,-15,9,22,-22,-4,-35,16,-19,48,20,43
-26,-14,10,21,-22,-3,-36,16,-20,47,20,43
-26,-14,11,21,-23,-2,-38,15,-21,46,21,43
-26,-13,11,21,-23,-1,-39,14,-23,45,21,43
-25,-14,9,21,-21,-3,-40,13,-24,43,21,44
-24,-16,6,21,-19,-6,-40,12,-25,42,21,45
-24,-18,4,22,-17,-9,-41,10,-26,41,21,45
-24,-19,3,23,-16,-11,-41,9,-27,40,21,45
-25,-21,2,24,-16,-12,-40,9,-28,41,20,45
-27,-22,2,26,-17,-13,-38,9,-29,41,20,43
-29,-25,3,28,-20,-14,-36,10,-30,42,19,42
-32,-27,3,31,-21,-15,-34,10,-30,42,18,41
-32,-29,0,32,-20,-18,-34,9,-30,41,17,41
-31,-31,-2,33,-17,-21,-34,8,-29,41,15,42
-31,-33,-5,34,-16,-24,-35,7,-28,40,14,42
-31,-34,-6,34,-15,-26,-35,6,-29,40,13,42
-30,-35,-7,34,-13,-27,-35,6,-29,40,13,40
-29,-35,-9,34,-12,-28,-34,6,-30,40,14,39
-28,-35,-9,34,-11,-28,-33,7,-31,41,14,38
-28,-36,-10,34,-11,-29,-33,8,-31,41,14,37
-30,-38,-11,36,-11,-31,-33,9,-31,41,13,37
-32,-41,-11,39,-12,-34,-33,10,-30,41,12,37
-33,-44,-14,40,-11,-36,-32,12,-30,41,10,37
-33,-47,-16,42,-10,-40,-31,13,-30,41,10,37
-33,-50,-20,44,-7,-45,-29,13,-30,40,9,36
-33,-54,-23,46,-4,-50,-27,13,-30,39,8,35
-33,-56,-26,48,-3,-53,-26,13,-30,37,7,34
-34,-58,-27,49,-3,-55,-24,13,-30,35,7,34
-36,-60,-27,51,-4,-55,-23,13,-30,35,6,33
-39,-60,-25,52,-7,-54,-22,13,-31,35,6,33
-43,-61,-22,55,-12,-53,-22,13,-31,34,5,32
-46,-61,-19,57,-16,-51,-21,13,-32,33,5,31
-48,-61,-17,58,-18,-50,-20,13,-32,32,6,31
-49,-61,-16,58,-19,-49,-19,12,-33,32,6,30
-50,-61,-15,58,-20,-48,-18,12,-34,31,7,29
-51,-61,-14,59,-21,-48,-18,12,-34,31,7,29
-50,-62,-16,60,-20,-50,-17,12,-34,30,7,28
-50,-63,-17,60,-18,-52,-17,11,-34,29,8,28
-49,-65,-20,60,-16,-54,-17,11,-35,28,9,27
-47,-66,-22,60,-14,-56,-17,11,-35,28,10,27
-47,-64,-21,59,-15,-55,-16,12,-35,28,10,26
-47,-63,-20,58,-16,-53,-15,13,-34,29,11,26
-47,-61,-17,57,-17,-50,-15,15,-34,30,11,25
-49,-59,-14,57,-21,-47,-15,16,-33,30,12,24
-52,-59,-11,59,-25,-45,-15,16,-34,30,11,24
-53,-61,-12,61,-24,-47,-15,15,-35,29,11,23
-54,-64,-14,62,-24,-50,-15,15,-35,29,10,23
-54,-65,-16,63,-22,-52,-15,15,-35,28,10,22
-54,-68,-18,64,-21,-55,-15,15,-35,28,10,21
-54,-70,-20,65,-19,-58,-15,15,-35,28,10,20
-54,-71,-21,66,-18,-59,-15,15,-35,28,10,20
-54,-71,-22,66,-18,-59,-15,15,-35,28,10,20
-54,-71,-22,66,-18,-59,-15,15,-35,28,10,20
-54,-71,-22,66,-18,-59,-15,15,-35,28,10,20
-54,-71,-22,66,-18,-59,-15,15,-35,28,10,20
-55,-73,-23,68,-18,-61,-14,14,-36,26,11,20
-57,-76,-23,71,-20,-64,-12,13,-36,24,12,19
-58,-77,-24,71,-20,-65,-12,13,-37,23,13,19
-58,-78,-24,72,-20,-65,-11,13,-37,22,13,19
-58,-78,-24,72,-20,-65,-11,13,-37,22,13,19
-58,-78,-24,72,-20,-65,-11,13,-37,22,13,19
-58,-78,-24,72,-20,-65,-11,13,-37,22,13,19
-58,-78,-24,72,-20,-65,-11,13,-37,22,13,19
-58,-77,-23,71,-20,-64,-11,13,-37,22,13,19
-58,-75,-21,70,-21,-61,-11,13,-37,22,13,19
-58,-73,-20,69,-22,-59,-11,13,-37,22,13,19
-58,-71,-17,68,-24,-57,-11,13,-37,22,13,19
-58,-70,-16,67,-25,-55,-11,13,-37,22,13,19
-58,-69,-16,67,-25,-54,-11,13,-37,22,13,19
-58,-69,-15,67,-25,-54,-11,13,-37,22,13,19
-58,-69,-15,67,-25,-54,-11,13,-37,22,13,19
-58,-69,-15,67,-25,-54,-11,13,-37,22,13,19
-58,-69,-15,67,-25,-54,-11,13,-37,22,13,19
-58,-69,-15,67,-25,-54,-11,13,-37,22,13,19
-58,-69,-15,67,-25,-54,-11,13,-37,22,13,19
-58,-70,-16,67,-25,-55,-11,13,-37,23,13,19
-58,-72,-18,68,-24,-57,-11,13,-37,24,14,20
-58,-73,-20,69,-22,-59,-11,13,-37,25,15,21
-58,-75,-22,71,-21,-62,-11,13,-37,26,17,23
-58,-77,-23,71,-20,-64,-11,13,-37,27,18,24
-58,-77,-23,72,-20,-64,-11,13,-37,27,19,24
-58,-78,-24,72,-20,-65,-11,13,-37,27,21,24
-58,-78,-24,72,-20,-65,-11,13,-37,27,22,24
-58,-78,-24,72,-20,-65,-11,13,-37,27,23,24
-58,-78,-24,72,-20,-65,-11,13,-37,27,23,24
-58,-78,-24,72,-20,-65,-11,13,-37,27,23,24
-58,-78,-24,72,-20,-65,-11,13,-37,27,23,24
-57,-78,-25,71,-18,-65,-11,14,-36,27,23,24
-56,-78,-26,70,-16,-66,-11,15,-35,27,23,24
-54,-78,-28,69,-14,-67,-11,16,-34,27,23,24
-51,-78,-30,68,-11,-69,-11,18,-32,27,23,24
-50,-78,-32,67,-10,-70,-11,18,-32,28,24,24
-50,-78,-32,67,-9,-70,-11,19,-31,29,25,24
-49,-78,-32,67,-8,-70,-11,19,-31,30,26,24
-49,-78,-32,67,-8,-70,-11,19,-31,31,27,24
-49,-78,-32,67,-8,-70,-11,20,-30,32,28,25
-49,-78,-32,67,-8,-70,-11,21,-29,32,28,26
-49,-78,-32,67,-8,-70,-11,22,-28,32,28,27
-49,-78,-32,67,-8,-70,-11,23,-27,32,28,28
-48,-78,-33,67,-7,-71,-11,24,-26,33,29,29
-46,-78,-35,66,-5,-72,-11,25,-26,34,30,29
-44,-78,-37,65,-3,-73,-11,25,-25,35,31,30
-42,-78,-39,64,0,-75,-11,25,-25,36,32,30
-41,-78,-40,63,2,-75,-11,25,-25,37,33,30
-40,-78,-40,63,2,-76,-11,25,-24,37,33,30
-40,-78,-41,62,3,-76,-11,25,-23,37,33,30
-40,-78,-41,62,3,-76,-11,25,-21,37,33,30
-40,-78,-41,62,3,-76,-12,25,-20,37,33,30
-40,-78,-41,62,3,-76,-13,25,-20,37,33,30
-40,-78,-41,62,3,-76,-15,25,-20,37,33,30
-40,-78,-41,62,3,-76,-17,25,-20,37,33,30
-40,-78,-41,62,3,-76,-18,25,-20,37,33,30
-40,-78,-41,62,3,-76,-18,25,-20,37,33,30
-40,-78,-41,62,3,-76,-18,25,-20,37,33,30
-40,-78,-41,62,3,-76,-18,25,-20,37,33,30
-40,-78,-41,62,3,-76,-18,25,-20,37,33,30
-40,-78,-41,62,3,-76,-18,25,-20,37,33,30
-40,-78,-41,62,3,-76,-18,25,-20,37,33,30
-40,-78,-41,62,3,-76,-18,25,-20,37,33,30
-39,-78,-43,62,4,-77,-18,26,-19,37,33,30
-38,-79,-44,62,6,-79,-18,26,-19,37,33,30
-38,-80,-45,62,7,-80,-18,26,-18,37,33,30
-38,-80,-45,62,7,-80,-18,26,-18,37,33,30
-38,-80,-45,62,7,-80,-18,26,-18,37,33,30
-38,-80,-45,62,7,-80,-18,26,-18,37,33,30
-38,-80,-45,62,7,-80,-18,26,-18,37,33,30
-38,-80,-45,63,7,-80,-19,26,-19,37,33,30
-29,-99,-73,69,30,-110,10,69,18,51,35,28
-29,-99,-73,69,30,-110,10,69,18,51,35,28
-29,-99,-73,69,30,-110,10,69,18,51,35,28
-29,-99,-73,69,30,-110,10,69,18,51,35,28
-36,-101,-69,73,24,-109,28,87,35,53,37,28
-36,-101,-69,73,24,-109,46,114,57,61,40,28
-24,-103,-81,69,39,-118,51,139,77,73,45,28
-4,-95,-92,54,58,-120,51,141,83,87,53,38
10,-78,-88,38,64,-106,42,126,90,100,67,46
33,-57,-88,15,78,-92,37,120,91,119,89,65
65,-42,-103,-9,108,-92,10,109,91,133,109,86
111,-29,-132,-39,155,-103,-10,94,88,151,131,108
145,11,-124,-78,170,-72,-31,79,91,182,166,140
175,53,-109,-116,179,-35,-64,56,94,209,198,173
184,89,-81,-140,166,5,-96,28,88,230,226,203
219,125,-77,-177,184,31,-120,0,100,262,258,232
249,157,-73,-209,200,54,-147,-9,122,289,288,261
258,176,-62,-224,198,73,-168,-22,121,313,306,284
246,172,-56,-216,187,75,-181,-44,107,306,307,294
223,164,-43,-200,165,77,-190,-79,67,275,288,280
175,142,-20,-164,120,79,-190,-123,8,215,243,250
139,125,-3,-137,86,79,-179,-157,-34,169,212,221
97,117,27,-111,41,92,-175,-170,-83,121,176,196
49,119,74,-89,-19,124,-165,-191,-127,76,141,171
1,125,125,-68,-82,161,-152,-207,-168,28,116,151
-20,119,138,-54,-103,164,-147,-202,-183,-4,89,130
-40,108,147,-38,-121,163,-132,-204,-195,-29,64,103
-56,96,149,-23,-132,156,-120,-180,-182,-38,48,87
-54,83,134,-17,-121,139,-114,-158,-166,-33,40,75
-54,64,115,-7,-109,114,-102,-132,-144,-21,39,68
-45,53,95,-6,-90,95,-91,-109,-121,-11,44,68
-43,41,80,-0,-79,77,-76,-87,-97,-0,45,65
-33,34,66,-1,-64,64,-73,-73,-85,6,44,60
-36,17,51,9,-55,44,-66,-57,-71,11,41,53
-54,5,55,25,-69,38,-60,-45,-57,16,42,50
-54,-17,34,36,-55,11,-58,-34,-47,22,42,46
-52,-23,25,39,-48,2,-48,-29,-40,23,37,42
-52,-31,17,43,-43,-9,-44,-16,-28,30,39,42
-50,-29,17,41,-41,-8,-37,-4,-24,35,40,41
-50,-36,10,44,-37,-16,-35,0,-21,35,42,34
-40,-40,-3,42,-23,-27,-37,7,-31,33,39,34
-43,-44,-5,46,-23,-31,-40,6,-28,35,39,32
-52,-48,-0,53,-31,-31,-44,4,-26,35,37,31
-51,-57,-10,57,-25,-43,-44,2,-29,31,36,30
-51,-64,-16,61,-21,-51,-46,1,-30,29,35,28
-50,-68,-21,62,-17,-57,-47,1,-31,28,33,26
-50,-71,-25,64,-13,-61,-48,1,-31,27,32,24
-50,-73,-27,65,-12,-64,-48,0,-32,26,31,23
-52,-75,-26,67,-15,-65,-46,0,-34,25,30,23
-56,-76,-25,69,-17,-64,-45,0,-35,24,28,23
-58,-78,-24,72,-20,-65,-43,1,-35,23,27,23
-60,-80,-25,73,-20,-67,-41,2,-35,22,26,23
-60,-82,-26,75,-19,-69,-42,3,-37,22,26,23
-61,-84,-28,76,-18,-72,-44,3,-37,23,26,23
-61,-87,-31,78,-16,-76,-45,5,-37,23,27,23
-61,-91,-35,80,-14,-81,-46,6,-38,23,26,23
-61,-94,-39,82,-11,-85,-47,6,-38,23,25,23
-61,-98,-42,84,-9,-90,-46,5,-37,22,24,23
-61,-101,-46,86,-7,-94,-45,4,-37,21,24,23
-61,-104,-47,88,-6,-97,-43,4,-37,21,23,23
-63,-106,-47,89,-7,-98,-40,4,-38,20,23,22
-65,-107,-47,91,-8,-99,-39,5,-38,19,23,21
-67,-109,-47,94,-10,-100,-39,6,-39,18,23,20
-69,-111,-48,95,-10,-102,-39,6,-39,18,23,19
-69,-114,-50,97,-10,-104,-40,6,-38,18,24,19
-69,-115,-52,97,-8,-107,-40,7,-37,18,24,20
-68,-115,-53,97,-7,-108,-40,7,-36,18,24,20
-67,-116,-54,97,-6,-108,-39,7,-35,19,24,20
-67,-115,-53,96,-6,-107,-38,7,-35,19,24,20
-68,-114,-51,96,-8,-106,-36,7,-35,20,25,21
-69,-114,-50,97,-10,-104,-33,7,-35,21,25,21
-69,-112,-49,96,-10,-103,-31,8,-35,21,26,21
-68,-109,-46,94,-11,-100,-30,9,-34,22,26,21
-67,-106,-43,91,-12,-95,-30,10,-32,23,26,21
-67,-103,-41,89,-13,-92,-30,11,-30,25,26,21
-66,-100,-40,88,-14,-89,-30,12,-28,27,27,21
-65,-98,-38,86,-15,-88,-30,13,-27,28,27,22
-65,-97,-37,86,-15,-86,-29,15,-25,28,28,23
-64,-96,-37,85,-15,-85,-28,16,-24,28,28,23
-63,-95,-37,83,-15,-84,-27,16,-23,29,29,24
-63,-94,-36,83,-15,-83,-28,16,-23,30,29,25
-63,-93,-35,82,-15,-82,-29,16,-23,31,30,27
-63,-92,-34,82,-16,-81,-30,15,-24,32,30,28
-62,-93,-36,82,-14,-83,-32,15,-23,33,30,29
-60,-94,-39,82,-11,-85,-34,16,-22,33,30,29
-58,-95,-41,81,-8,-87,-36,18,-21,33,30,30
-55,-96,-46,80,-3,-91,-37,18,-20,33,29,29
-53,-97,-48,79,-1,-92,-38,19,-19,33,29,29
-52,-97,-50,79,1,-94,-38,19,-19,33,30,28
-52,-98,-50,80,1,-95,-38,18,-19,33,31,28
-53,-99,-50,81,1,-95,-38,18,-20,33,32,29
-54,-98,-49,80,-1,-94,-38,19,-20,33,33,29
-55,-96,-46,80,-3,-91,-39,19,-19,34,32,29
-56,-95,-44,80,-5,-89,-40,19,-18,36,33,30
-55,-95,-45,80,-4,-90,-40,20,-16,37,33,31
-54,-95,-45,79,-3,-90,-40,21,-15,37,33,32
-54,-94,-45,78,-3,-89,-40,21,-15,36,33,32
-55,-96,-46,80,-3,-90,-40,22,-15,36,34,32
-56,-98,-47,82,-3,-93,-40,25,-15,37,35,32
-56,-99,-48,82,-3,-94,-39,26,-15,37,35,32
-56,-98,-47,82,-3,-93,-39,27,-14,37,36,32
-56,-97,-45,81,-4,-91,-38,28,-12,37,36,32
-56,-94,-43,80,-6,-88,-38,28,-10,37,36,32
-55,-93,-43,78,-6,-87,-38,28,-9,37,35,32
-54,-93,-43,78,-4,-87,-39,28,-9,36,34,32
-54,-93,-44,78,-4,-88,-40,28,-8,36,33,32
-54,-94,-45,78,-3,-89,-39,28,-8,36,32,32
-54,-94,-45,78,-3,-89,-39,28,-8,36,31,32
-54,-94,-45,78,-3,-89,-38,28,-8,36,31,32
-54,-94,-44,78,-3,-88,-38,26,-7,37,31,32
-54,-93,-43,78,-4,-87,-38,25,-7,38,32,32
-54,-93,-44,78,-4,-88,-39,24,-7,38,33,33
-51,-95,-48,78,0,-91,-40,24,-8,38,34,34
-50,-97,-51,78,3,-94,-42,25,-9,39,34,35
-50,-98,-52,78,4,-96,-44,25,-10,39,35,36
-48,-97,-53,77,6,-96,-47,25,-11,40,35,37
-47,-95,-52,76,6,-94,-48,25,-11,40,35,38
-47,-94,-51,75,5,-93,-49,26,-10,41,36,38
-46,-93,-51,74,6,-92,-49,26,-10,42,36,38
-46,-92,-50,73,5,-91,-49,26,-9,42,37,38
-47,-91,-47,73,2,-88,-49,26,-9,41,38,38
-49,-90,-45,74,0,-87,-49,26,-8,41,38,40
-50,-89,-43,74,-2,-85,-49,26,-8,40,39,41
-51,-89,-43,74,-3,-84,-49,26,-8,39,39,41
-51,-91,-43,75,-3,-86,-49,27,-9,40,39,41
-50,-91,-45,75,-1,-87,-50,28,-10,41,38,40
-50,-91,-45,74,-1,-87,-50,28,-11,41,38,40
-49,-90,-45,74,0,-87,-51,28,-11,41,37,39
-49,-90,-45,74,0,-87,-51,28,-11,42,37,40
-49,-90,-45,74,0,-87,-51,28,-11,42,38,40
-49,-89,-44,73,-1,-85,-51,28,-11,43,39,41
-48,-88,-43,72,-1,-84,-51,29,-11,43,40,41
-47,-86,-43,71,-1,-83,-51,29,-11,43,40,42
-46,-86,-43,70,0,-82,-51,29,-11,43,40,42
-45,-84,-43,69,1,-82,-51,29,-11,43,40,42
-44,-84,-43,68,1,-81,-51,29,-11,43,40,43
-44,-84,-43,68,1,-81,-52,28,-10,44,40,43
-44,-84,-43,68,1,-81,-53,28,-8,44,40,43
-44,-84,-43,68,1,-81,-53,28,-7,45,40,43
-44,-85,-44,69,2,-82,-54,28,-6,45,40,43
-44,-86,-45,69,2,-83,-54,30,-6,45,40,43
-44,-86,-46,70,3,-84,-54,30,-6,45,41,43
-44,-88,-47,70,4,-86,-54,31,-6,45,41,43
-44,-88,-47,71,4,-87,-54,32,-5,45,41,43
-44,-88,-48,70,5,-87,-54,32,-4,45,41,44
-43,-88,-49,70,6,-88,-55,32,-3,45,41,45
-42,-88,-49,69,7,-88,-56,32,-1,45,42,45
-41,-87,-49,68,7,-88,-56,32,1,45,42,46
-40,-86,-49,67,8,-87,-56,32,1,46,42,46
-40,-86,-49,67,8,-87,-56,33,2,46,43,46
-41,-86,-49,67,7,-86,-55,33,3,47,43,46
-42,-86,-48,68,6,-85,-55,34,3,47,44,46
-41,-86,-48,68,7,-86,-55,34,4,48,44,47
-40,-86,-49,67,8,-87,-56,34,4,48,44,47
-40,-86,-49,67,8,-87,-56,35,5,49,44,48
-40,-86,-49,67,8,-87,-56,35,5,49,44,48
-39,-86,-50,67,10,-87,-56,35,6,50,44,48
-38,-86,-51,66,11,-88,-55,36,6,50,45,48
-38,-86,-52,66,11,-88,-55,36,7,51,45,48
-38,-86,-52,66,11,-88,-54,37,8,51,45,48
-39,-87,-51,67,10,-88,-54,37,8,51,45,48
-41,-88,-50,69,8,-88,-54,37,9,51,45,48
-42,-88,-50,69,7,-88,-54,37,9,51,45,48
-42,-89,-50,70,7,-89,-53,37,10,52,45,48
-42,-91,-52,71,8,-91,-53,37,10,52,44,49
-42,-92,-53,72,10,-93,-53,37,10,51,44,49
-42,-92,-54,72,10,-94,-53,37,10,51,43,49
-42,-92,-54,72,10,-94,-53,37,10,50,43,50
-42,-92,-53,71,9,-92,-52,37,11,51,44,50
-43,-90,-50,71,7,-90,-51,37,11,52,45,49
-45,-89,-47,71,4,-87,-50,37,12,53,45,49
-47,-88,-45,72,1,-85,-49,37,13,53,46,48
-48,-89,-45,73,0,-85,-46,38,15,54,45,47
-49,-91,-46,74,1,-88,-44,38,18,54,45,46
-50,-92,-47,75,1,-89,-42,40,20,55,44,46
-51,-94,-46,77,-1,-90,-40,40,21,55,43,46
-53,-94,-45,78,-2,-89,-39,41,22,55,43,46
-54,-93,-43,78,-4,-87,-39,40,22,54,44,47
-56,-92,-41,78,-7,-85,-38,40,21,53,45,48
-56,-91,-40,78,-8,-84,-38,40,21,53,46,48
-56,-88,-36,76,-10,-79,-37,40,21,52,45,48
-56,-84,-32,74,-13,-75,-37,40,22,51,44,48
-56,-80,-28,72,-16,-69,-36,40,23,51,43,47
-58,-76,-23,71,-21,-63,-37,40,23,51,43,46
-61,-74,-17,72,-26,-59,-39,39,24,52,43,46
-62,-74,-17,72,-27,-58,-40,38,24,52,44,45
-63,-74,-16,72,-27,-58,-42,38,25,53,45,45
-63,-74,-16,72,-28,-57,-44,38,26,54,46,44
-63,-74,-16,72,-27,-58,-45,38,26,55,46,45
-63,-75,-17,72,-27,-59,-46,38,26,55,46,45
-63,-75,-17,73,-27,-59,-47,38,26,56,46,45
-63,-75,-17,73,-27,-59,-47,38,26,56,46,45
-63,-75,-17,73,-27,-59,-47,38,26,56,46,45
-63,-75,-17,73,-27,-59,-47,38,26,56,46,45
-63,-75,-17,73,-27,-59,-47,38,26,56,46,45
-61,-73,-17,71,-26,-58,-54,34,24,55,47,45
-59,-70,-16,68,-26,-55,-64,28,21,53,48,46
-59,-69,-15,67,-26,-54,-67,26,20,52,49,46
-58,-69,-15,67,-25,-54,-68,25,20,52,49,46
-58,-70,-16,67,-25,-55,-69,25,19,52,48,46
-58,-72,-18,68,-24,-57,-71,23,18,51,47,46
-58,-73,-20,69,-22,-59,-72,22,17,50,46,46
-58,-75,-22,71,-21,-62,-74,21,15,48,45,46
-59,-78,-23,72,-21,-64,-75,20,14,48,44,46
-61,-80,-23,74,-22,-66,-76,19,14,47,44,46
-63,-82,-24,76,-22,-67,-76,19,14,47,44,46
-65,-84,-24,78,-24,-69,-76,19,14,47,44,46
-67,-86,-25,80,-24,-71,-76,20,13,47,44,46
-67,-88,-26,82,-24,-73,-76,21,12,46,44,45
-67,-90,-28,83,-22,-76,-76,22,11,45,44,43
-67,-92,-30,84,-21,-78,-76,23,10,43,44,42
-67,-94,-32,85,-20,-81,-75,24,9,43,44,41
-67,-97,-34,87,-18,-84,-74,25,8,42,44,41
-67,-99,-37,88,-17,-87,-72,25,8,42,44,41
-67,-101,-39,89,-16,-89,-71,25,8,42,44,41
-67,-102,-40,89,-15,-91,-69,25,8,42,44,40
-67,-103,-40,90,-15,-91,-69,25,8,42,44,39
-67,-103,-41,90,-14,-92,-69,25,8,42,44,38
-67,-103,-41,90,-14,-92,-69,25,8,42,44,37
-67,-104,-42,90,-13,-93,-69,25,8,42,44,36
-67,-106,-43,91,-12,-95,-69,25,8,41,44,35
-67,-107,-45,92,-11,-97,-69,25,8,40,44,35
-67,-109,-47,94,-10,-100,-69,25,8,38,44,35
-68,-111,-49,95,-10,-102,-69,25,8,38,43,35
-70,-114,-49,97,-11,-104,-69,25,8,37,42,35
-72,-116,-49,99,-11,-106,-69,25,8,37,41,35
-74,-118,-49,101,-13,-107,-69,25,8,37,40,35
-76,-119,-49,103,-13,-108,-69,25,8,37,39,35
-76,-119,-49,103,-14,-108,-69,25,8,37,39,35
-77,-120,-49,104,-14,-108,-69,25,8,37,39,35
-77,-120,-49,104,-14,-108,-69,25,8,37,39,35
-77,-119,-49,103,-15,-107,-69,25,8,37,39,35
-77,-117,-47,102,-16,-105,-69,25,8,37,40,35
-77,-116,-45,101,-17,-103,-69,25,8,37,41,35
-77,-114,-43,100,-18,-100,-69,25,8,37,42,35
-77,-112,-42,100,-19,-98,-69,25,8,38,43,35
-77,-112,-41,100,-20,-98,-69,25,8,39,43,35
-77,-111,-41,99,-20,-97,-69,25,8,40,44,35
-77,-111,-41,99,-20,-97,-69,25,8,41,44,35
-77,-111,-41,99,-20,-97,-69,25,8,42,44,35
-77,-111,-41,99,-20,-97,-69,25,8,42,45,35
-77,-111,-41,99,-20,-97,-69,25,8,42,46,35
-77,-111,-41,99,-20,-97,-69,25,8,42,48,35
-77,-111,-41,99,-20,-97,-68,25,8,42,48,35
-77,-111,-41,99,-20,-97,-67,25,8,42,49,35
-77,-111,-41,99,-20,-97,-65,25,8,42,49,35
-77,-111,-41,99,-20,-97,-63,25,8,42,49,35
-77,-111,-41,99,-20,-97,-62,25,8,42,48,35
-77,-111,-41,99,-20,-97,-62,25,8,41,47,35
-77,-111,-41,99,-20,-97,-62,25,8,40,46,35
-77,-111,-41,99,-20,-97,-62,25,8,38,45,35
-77,-111,-41,99,-20,-97,-62,25,8,38,44,35
-77,-111,-41,99,-20,-97,-62,25,8,37,44,35
-77,-111,-41,99,-20,-97,-62,25,8,37,44,35
-77,-111,-41,99,-20,-97,-62,25,8,37,44,35
-77,-111,-41,99,-20,-97,-62,25,8,37,44,35
-77,-111,-41,99,-20,-97,-62,25,8,37,44,35
-77,-111,-41,99,-20,-97,-62,25,8,37,44,35
-77,-111,-41,99,-20,-97,-62,25,8,37,44,35
-77,-112,-42,100,-19,-98,-62,25,8,37,44,35
-77,-114,-43,100,-18,-101,-62,25,8,37,44,35
-77,-116,-45,101,-17,-103,-62,25,8,37,44,35
-77,-118,-47,103,-16,-106,-62,25,8,37,44,35
-78,-119,-48,104,-16,-107,-61,25,8,37,44,35
-79,-119,-46,105,-18,-106,-59,25,6,36,44,35
-81,-120,-45,106,-20,-106,-58,25,5,35,44,35
-83,-120,-43,107,-22,-104,-56,25,4,33,44,35
-85,-120,-42,108,-24,-103,-55,25,3,33,44,35
-85,-120,-41,108,-25,-103,-55,25,3,32,44,35
-86,-120,-41,108,-25,-103,-54,25,3,32,44,35
-86,-120,-41,108,-25,-103,-54,25,3,32,44,35
-86,-120,-41,108,-25,-103,-54,24,3,32,44,35
-86,-120,-41,108,-25,-103,-54,23,3,32,44,34
-86,-120,-41,108,-25,-103,-54,22,3,32,44,32
-86,-120,-41,108,-25,-103,-54,21,3,32,44,32
-86,-120,-41,108,-25,-103,-54,21,3,32,44,31
-86,-120,-41,108,-25,-103,-54,21,3,32,44,31
-86,-120,-41,108,-25,-103,-54,21,3,32,44,31
-86,-120,-41,108,-25,-103,-54,21,3,32,44,31
-86,-120,-41,108,-25,-103,-54,21,3,32,44,31
-86,-120,-41,109,-26,-103,-55,21,3,32,44,31
-75,-108,-39,96,-20,-94,-40,57,41,56,55,39
-75,-108,-39,96,-20,-94,-40,57,41,56,55,39
-75,-108,-39,96,-20,-94,-40,57,41,56,55,39
-75,-108,-39,96,-20,-94,-40,57,41,56,55,39
-72,-110,-43,96,-16,-98,-22,81,57,63,58,39
-72,-118,-52,101,-10,-109,3,109,86,71,60,39
-70,-120,-56,101,-6,-113,23,139,117,88,66,39
-59,-112,-58,90,2,-109,37,164,139,102,78,49
-36,-103,-71,74,25,-112,42,173,152,114,87,57
-22,-99,-79,65,39,-114,30,173,153,124,99,65
1,-84,-86,46,57,-109,17,167,159,143,120,81
28,-72,-98,25,82,-109,-3,152,156,156,136,97
72,-48,-115,-9,120,-104,-24,138,153,172,156,123
111,-14,-118,-47,145,-84,-57,114,150,194,183,151
148,22,-115,-85,166,-60,-89,87,145,215,211,181
173,58,-103,-117,173,-28,-127,53,134,232,233,210
203,89,-98,-149,188,-5,-154,26,139,259,262,239
221,100,-105,-164,204,-3,-183,7,143,288,291,267
237,104,-115,-174,221,-7,-210,-15,141,292,302,277
223,104,-103,-167,204,2,-226,-44,112,270,293,274
194,100,-79,-150,170,14,-233,-82,65,230,264,261
157,83,-62,-123,137,14,-237,-116,17,184,228,232
106,66,-32,-89,86,22,-240,-164,-44,131,192,201
40,60,23,-52,9,53,-237,-202,-99,76,152,171
-17,49,66,-17,-54,73,-224,-230,-157,23,111,140
-56,43,95,6,-98,88,-204,-243,-200,-29,73,108
-95,24,112,35,-132,87,-190,-245,-228,-59,49,86
-121,11,123,55,-155,85,-177,-239,-238,-78,27,65
-128,-2,117,65,-155,73,-165,-223,-228,-83,19,53
-128,-12,106,71,-147,60,-159,-196,-206,-76,18,46
-128,-23,95,77,-141,46,-148,-173,-183,-66,18,41
-125,-36,80,82,-129,28,-134,-145,-154,-50,19,38
-116,-42,66,81,-114,15,-123,-120,-124,-39,28,43
-91,-42,42,68,-83,0,-116,-98,-99,-29,31,42
-91,-55,29,75,-75,-16,-103,-75,-79,-19,32,39
-91,-67,17,82,-66,-33,-94,-57,-64,-13,32,35
-89,-74,8,84,-59,-42,-84,-41,-51,-6,32,31
-89,-91,-9,94,-48,-64,-73,-22,-40,5,33,31
-95,-97,-9,101,-52,-68,-66,-10,-30,10,40,30
-95,-103,-15,104,-48,-76,-57,0,-21,20,42,28
-95,-108,-20,106,-45,-82,-51,7,-14,23,44,28
-89,-112,-30,106,-34,-91,-48,12,-12,25,44,27
-89,-108,-26,103,-37,-85,-44,16,-9,20,37,26
-88,-109,-28,104,-35,-88,-39,18,-7,20,37,25
-88,-111,-29,105,-34,-90,-37,20,-5,20,38,24
-87,-111,-30,104,-33,-90,-37,21,-3,21,39,24
-86,-109,-29,103,-33,-89,-36,22,-0,21,40,23
-86,-108,-29,102,-34,-87,-33,23,1,21,41,23
-87,-107,-27,102,-35,-85,-30,23,1,22,41,24
-88,-106,-25,101,-37,-83,-27,23,2,24,41,26
-88,-105,-24,101,-38,-83,-23,24,3,26,41,27
-88,-104,-23,101,-39,-82,-20,26,4,27,41,28
-88,-103,-21,100,-40,-79,-19,26,4,27,41,28
-88,-101,-20,99,-41,-77,-18,27,5,27,42,28
-88,-100,-18,99,-41,-76,-18,28,6,28,42,28
-88,-99,-18,98,-42,-75,-18,30,7,29,42,28
-88,-99,-17,98,-42,-75,-18,30,8,29,42,28
-88,-98,-17,98,-43,-73,-18,31,10,30,42,28
-88,-97,-16,97,-43,-72,-16,32,12,30,43,28
-88,-95,-14,96,-44,-70,-14,33,13,31,43,29
-88,-93,-11,95,-46,-67,-12,33,14,31,44,29
-88,-90,-9,94,-48,-64,-10,34,15,32,44,30
-88,-88,-7,92,-49,-61,-10,35,16,32,44,30
-88,-87,-6,92,-50,-59,-10,35,16,32,44,30
-88,-86,-5,91,-50,-59,-11,36,17,33,44,30
-87,-86,-5,90,-50,-58,-11,36,19,33,45,31
-86,-84,-4,89,-50,-57,-11,37,20,33,45,31
-86,-83,-3,88,-50,-55,-11,36,20,34,45,31
-86,-81,-2,88,-51,-53,-11,35,19,34,45,31
-87,-80,0,87,-53,-51,-10,34,18,35,46,32
-88,-80,1,88,-54,-50,-10,32,17,36,46,32
-87,-79,2,87,-54,-50,-10,31,16,36,46,32
-86,-77,3,85,-54,-48,-13,31,15,36,46,32
-86,-76,3,84,-54,-46,-16,30,16,36,46,32
-85,-75,3,83,-54,-46,-19,30,16,36,47,32
-84,-74,4,82,-54,-45,-22,29,17,37,47,32
-83,-73,4,82,-54,-44,-24,29,17,37,48,33
-83,-72,6,81,-54,-42,-25,29,17,36,49,34
-83,-71,6,80,-54,-42,-26,29,17,35,49,34
-82,-69,6,79,-54,-41,-27,28,17,34,49,34
-81,-69,6,78,-54,-40,-28,26,17,34,50,35
-81,-67,8,78,-54,-38,-29,24,16,33,50,35
-81,-67,8,77,-55,-38,-30,22,15,33,50,35
-81,-68,7,78,-54,-39,-32,21,15,33,50,35
-81,-71,4,79,-52,-42,-34,21,15,33,50,35
-81,-74,1,81,-50,-46,-36,21,15,33,50,35
-80,-77,-3,83,-47,-51,-37,20,15,33,50,35
-80,-79,-5,83,-46,-53,-37,19,15,33,49,34
-82,-80,-5,85,-47,-54,-36,19,13,32,48,32
-84,-81,-3,87,-49,-54,-35,18,11,31,46,31
-88,-82,-1,89,-53,-53,-33,18,10,30,45,31
-89,-82,1,89,-55,-52,-31,19,8,28,44,29
-91,-82,2,90,-57,-51,-30,19,7,28,43,28
-92,-83,3,91,-58,-51,-29,19,7,28,43,27
-92,-85,0,92,-56,-54,-27,20,8,28,44,27
-91,-86,-2,92,-54,-56,-26,20,8,27,43,27
-90,-85,-2,92,-54,-55,-26,19,7,26,42,27
-91,-87,-3,94,-54,-58,-26,19,7,26,41,27
-92,-90,-5,95,-53,-60,-26,20,7,27,41,27
-93,-92,-6,96,-53,-63,-25,20,7,27,41,27
-93,-92,-6,97,-52,-63,-24,21,7,27,41,27
-93,-92,-7,97,-52,-64,-24,22,8,27,41,27
-93,-92,-7,97,-52,-64,-24,22,8,27,41,27
-92,-92,-8,96,-51,-64,-24,22,8,26,41,27
-91,-92,-9,96,-50,-65,-24,22,6,25,40,27
-90,-93,-10,96,-49,-66,-25,22,5,23,39,27
-90,-94,-11,97,-48,-67,-25,23,4,22,37,27
-91,-94,-10,97,-49,-67,-24,23,3,21,37,27
-93,-94,-9,98,-51,-66,-24,22,2,21,36,27
-95,-94,-6,99,-54,-64,-24,21,1,22,37,27
-97,-93,-3,100,-57,-61,-24,19,0,23,38,27
-99,-92,-1,100,-59,-60,-24,18,-1,23,39,27
-97,-92,-3,99,-57,-61,-24,18,-0,23,39,29
-95,-92,-4,98,-55,-62,-24,19,0,24,40,30
-95,-92,-4,98,-55,-61,-24,19,0,24,40,31
-94,-89,-3,96,-55,-59,-26,19,0,25,40,31
-93,-87,-1,94,-56,-57,-27,19,1,25,40,31
-93,-86,0,93,-57,-55,-27,20,1,26,41,29
-92,-84,0,92,-56,-54,-27,20,1,27,41,28
-91,-83,0,91,-55,-53,-27,21,2,27,42,27
-90,-82,1,90,-56,-52,-25,21,3,28,43,27
-90,-82,2,90,-56,-51,-24,21,3,28,43,29
-89,-81,2,89,-55,-51,-22,21,3,28,44,30
-89,-81,1,89,-54,-51,-21,21,3,28,44,31
-88,-82,-1,89,-53,-53,-21,21,3,28,44,31
-87,-83,-2,89,-52,-54,-21,22,1,28,43,32
-86,-82,-3,88,-51,-54,-22,22,1,27,43,33
-86,-82,-3,88,-50,-54,-21,22,0,27,42,33
-86,-82,-3,88,-50,-54,-20,22,0,27,42,33
-86,-82,-3,88,-50,-54,-18,22,0,27,43,32
-86,-81,-2,87,-51,-53,-17,23,0,28,44,31
-85,-79,-1,86,-51,-51,-14,23,0,28,45,31
-84,-78,-0,85,-51,-50,-11,23,0,28,45,31
-83,-77,-0,84,-50,-50,-8,23,0,28,45,31
-82,-76,-0,83,-49,-49,-4,23,0,28,45,31
-81,-75,-0,82,-49,-48,-2,23,0,28,45,32
-81,-75,-0,82,-49,-48,-2,22,0,29,45,32
-81,-75,-0,82,-49,-48,-2,22,0,29,45,32
-81,-75,-0,82,-49,-48,-3,22,0,30,45,32
-81,-75,-0,82,-49,-48,-4,23,0,30,45,32
-81,-75,0,82,-50,-47,-4,24,0,30,46,32
-81,-74,1,81,-50,-46,-4,25,0,30,46,32
-81,-73,2,80,-51,-45,-4,25,0,30,46,32
-81,-72,3,80,-52,-44,-4,26,0,30,46,32
-80,-71,3,79,-51,-44,-4,26,0,30,46,33
-79,-71,2,78,-50,-44,-5,26,0,30,46,34
-79,-71,2,78,-49,-45,-5,26,1,30,47,34
-78,-70,2,78,-49,-44,-5,26,2,30,48,35
-77,-69,2,77,-48,-44,-4,26,3,31,49,35
-77,-69,2,76,-48,-43,-2,27,5,31,51,35
-78,-69,3,77,-49,-42,0,28,6,32,52,35
-78,-69,3,77,-50,-42,3,28,8,32,53,35
-78,-69,3,77,-49,-42,4,28,9,33,54,36
-77,-69,2,76,-48,-43,5,28,10,33,54,36
-77,-69,2,76,-48,-43,6,29,11,34,54,37
-77,-69,2,76,-48,-43,8,29,11,34,54,37
-76,-69,1,76,-47,-44,8,29,12,35,55,37
-75,-69,0,75,-45,-44,9,30,12,35,55,37
-74,-69,-0,75,-45,-45,10,30,13,36,55,37
-75,-69,0,76,-46,-44,10,31,14,36,55,37
-78,-70,3,78,-49,-43,12,31,14,36,55,37
-83,-71,6,80,-54,-42,14,31,14,36,55,37
-85,-71,8,82,-57,-41,16,31,15,36,55,37
-87,-72,9,83,-59,-41,18,31,15,37,55,37
-88,-74,7,84,-58,-42,19,31,15,37,55,36
-88,-75,6,85,-58,-44,19,31,15,36,54,35
-88,-75,6,85,-58,-45,19,31,15,36,54,34
-87,-75,5,85,-57,-45,19,31,16,35,53,34
-85,-75,4,83,-55,-45,20,31,16,35,53,33
-84,-73,5,82,-54,-44,21,31,17,35,52,33
-83,-72,6,81,-54,-42,21,31,18,34,52,32
-84,-71,7,81,-56,-41,22,31,18,33,51,32
-85,-72,7,82,-57,-42,23,30,18,32,52,32
-86,-74,6,83,-56,-44,24,30,17,32,52,33
-87,-75,5,84,-56,-45,24,29,17,31,53,34
-89,-78,4,87,-57,-47,25,29,17,31,53,34
-90,-79,4,88,-58,-48,26,29,17,30,52,34
-91,-80,4,89,-58,-49,26,29,16,29,52,33
-92,-82,3,91,-58,-50,26,28,15,28,51,33
-93,-83,3,92,-58,-52,26,28,15,28,51,32
-93,-83,2,92,-58,-52,27,28,14,27,50,31
-93,-84,2,92,-58,-53,28,28,14,26,49,31
-93,-84,2,92,-58,-53,28,28,13,26,49,31
-95,-84,4,93,-61,-51,28,28,12,26,48,30
-98,-85,6,95,-64,-51,28,27,11,25,47,29
-99,-87,5,97,-63,-53,28,27,10,24,47,29
-100,-89,3,98,-63,-55,28,26,10,24,46,28
-100,-90,2,99,-62,-56,28,26,10,23,46,27
-100,-91,1,100,-62,-57,28,26,11,23,46,27
-100,-92,0,100,-61,-59,28,26,12,23,46,26
-100,-92,-0,100,-61,-59,28,26,12,23,46,26
-100,-92,-0,100,-61,-59,28,26,12,23,46,26
-100,-92,-0,100,-61,-59,28,26,12,23,46,26
-100,-92,-0,100,-61,-59,28,26,12,23,46,26
-100,-92,-0,100,-61,-59,28,26,12,23,46,26
-98,-90,0,99,-60,-58,29,26,13,23,47,25
-96,-87,1,96,-59,-55,31,25,14,22,48,24
-95,-86,2,95,-59,-54,31,25,14,22,49,24
-95,-86,2,94,-59,-54,32,25,14,22,49,24
-95,-87,1,95,-58,-55,32,26,14,22,49,24
-95,-89,-1,96,-57,-57,34,27,15,22,49,24
-95,-90,-3,97,-56,-59,35,28,17,22,49,24
-95,-92,-5,98,-55,-62,37,29,18,22,49,24
-95,-94,-6,99,-54,-64,38,30,19,22,49,24
