I,II,III,aVR,aVL,aVF,V1,V2,V3,V4,V5,V6
76,51,-22,-111,45,5,-57,5,32,-5,45,52
76,50,-23,-110,45,4,-57,5,31,-6,45,52
76,49,-23,-110,46,4,-57,5,30,-6,44,52
76,49,-24,-110,46,4,-57,5,30,-6,43,51
76,49,-24,-110,46,3,-57,5,30,-7,43,50
76,49,-24,-110,46,3,-57,5,30,-7,42,49
76,48,-24,-109,46,3,-57,5,30,-7,41,48
75,48,-24,-108,45,3,-57,4,30,-7,41,48
74,47,-24,-106,45,3,-57,3,30,-7,41,48
74,46,-24,-105,45,2,-57,2,30,-7,41,48
73,45,-24,-104,44,2,-57,1,30,-7,41,48
73,45,-24,-103,44,2,-57,1,30,-7,41,48
73,45,-24,-103,44,2,-57,1,30,-8,41,48
73,45,-24,-103,44,2,-57,1,30,-9,41,48
73,45,-24,-103,44,2,-57,1,30,-9,41,48
73,45,-24,-103,44,2,-57,1,30,-9,41,48
73,45,-24,-103,44,2,-57,1,30,-9,41,48
73,45,-24,-103,44,2,-57,1,30,-9,41,48
73,45,-24,-103,44,2,-58,1,30,-10,41,48
73,45,-24,-103,44,2,-59,0,29,-10,41,48
73,45,-24,-103,44,2,-60,-1,29,-11,41,48
73,45,-24,-103,44,2,-61,-2,28,-12,41,48
72,44,-24,-102,44,2,-62,-3,27,-12,41,48
72,43,-24,-101,44,1,-62,-4,27,-12,40,48
71,42,-24,-100,44,1,-62,-5,26,-12,39,48
70,41,-24,-98,43,1,-62,-6,25,-12,38,48
69,41,-24,-97,43,0,-62,-7,25,-13,38,47
69,41,-24,-97,43,0,-62,-7,25,-13,38,46
69,40,-24,-96,43,0,-62,-7,25,-14,38,45
69,40,-24,-96,43,0,-62,-7,25,-14,38,44
69,40,-24,-97,43,0,-62,-8,25,-15,38,44
70,40,-24,-97,44,-0,-62,-8,25,-15,38,43
71,40,-25,-98,44,-1,-62,-9,25,-15,38,43
72,40,-26,-99,45,-1,-62,-10,25,-15,38,43
72,40,-26,-99,46,-1,-63,-11,25,-15,38,43
72,40,-26,-99,46,-1,-64,-11,25,-16,38,43
73,40,-26,-100,46,-1,-65,-11,25,-17,38,43
73,40,-26,-100,46,-1,-66,-11,25,-17,38,43
73,40,-26,-100,46,-1,-67,-11,25,-18,38,43
73,40,-26,-100,46,-1,-67,-11,25,-18,38,43
73,40,-26,-100,46,-1,-67,-11,25,-18,38,43
73,40,-26,-100,46,-1,-67,-11,25,-18,38,43
73,40,-26,-100,46,-1,-68,-12,25,-18,38,43
73,40,-26,-100,46,-1,-68,-12,25,-18,38,43
73,40,-26,-100,46,-1,-68,-12,25,-18,38,43
73,40,-26,-100,46,-1,-68,-12,25,-18,38,43
73,40,-26,-100,46,-1,-68,-12,25,-18,38,43
73,40,-26,-100,46,-1,-68,-12,25,-18,38,43
-148,171,205,2,-183,200,85,43,145,113,170,189
-109,133,155,-5,-137,153,55,35,120,84,138,153
-14,78,57,-49,-40,67,-17,10,64,30,83,92
73,57,-16,-113,40,12,-63,-7,30,-10,48,52
73,57,-16,-113,40,12,-63,-7,30,-10,48,52
73,53,-19,-110,41,8,-63,-7,27,-10,48,52
73,53,-19,-110,41,8,-63,-7,27,-10,48,52
80,49,-26,-113,49,2,-63,-3,27,-10,48,56
84,45,-31,-113,53,-3,-68,-3,22,-15,45,56
87,45,-34,-117,56,-5,-73,-3,22,-18,38,52
87,32,-41,-106,61,-15,-73,5,19,-21,34,52
84,28,-41,-100,59,-16,-73,5,13,-27,27,48
84,15,-49,-90,64,-26,-73,5,11,-35,24,43
87,15,-51,-93,67,-28,-73,5,5,-38,24,43
91,2,-61,-86,74,-39,-78,-3,-9,-47,17,43
94,-6,-69,-83,80,-47,-83,-3,-18,-55,13,39
98,-10,-74,-83,85,-52,-88,-12,-26,-64,6,39
102,-19,-82,-79,91,-61,-93,-12,-37,-72,6,43
105,-23,-87,-79,95,-65,-103,-20,-51,-84,-4,43
113,-27,-94,-83,103,-72,-114,-33,-71,-98,-15,43
116,-40,-104,-76,110,-83,-119,-41,-85,-109,-22,39
120,-48,-112,-73,116,-92,-124,-46,-99,-121,-25,39
127,-57,-122,-73,125,-102,-129,-46,-107,-129,-32,34
131,-65,-129,-69,131,-110,-129,-41,-113,-135,-39,30
138,-74,-139,-69,140,-120,-129,-41,-121,-141,-42,30
138,-82,-144,-63,143,-126,-129,-41,-130,-149,-49,26
138,-91,-149,-56,146,-133,-129,-46,-138,-158,-53,21
145,-95,-157,-59,154,-139,-129,-54,-155,-172,-70,8
145,-108,-164,-49,158,-149,-134,-54,-161,-180,-84,-10
145,-129,-177,-32,166,-165,-134,-54,-166,-189,-95,-23
156,-141,-192,-32,179,-180,-149,-58,-178,-198,-105,-32
170,-158,-212,-32,197,-200,-154,-67,-192,-209,-122,-49
185,-171,-230,-35,213,-216,-175,-96,-209,-226,-140,-63
192,-179,-240,-35,222,-226,-190,-143,-225,-235,-150,-76
203,-184,-250,-42,233,-234,-221,-181,-237,-240,-150,-76
221,-184,-262,-59,248,-243,-246,-202,-242,-240,-150,-67
236,-179,-270,-76,258,-246,-261,-211,-242,-235,-143,-54
254,-163,-272,-106,267,-241,-282,-224,-242,-229,-136,-41
257,-158,-272,-113,269,-239,-292,-224,-234,-220,-129,-32
268,-146,-272,-133,273,-234,-313,-224,-225,-212,-119,-23
272,-141,-272,-140,275,-233,-328,-224,-214,-200,-112,-10
272,-137,-270,-144,273,-229,-328,-224,-206,-198,-109,-10
272,-133,-267,-147,272,-226,-328,-232,-200,-192,-109,-10
272,-116,-257,-160,266,-213,-328,-219,-183,-180,-95,8
268,-95,-242,-174,255,-195,-328,-211,-172,-169,-84,21
265,-70,-225,-191,243,-174,-318,-194,-150,-146,-60,39
225,-40,-180,-177,200,-133,-277,-177,-124,-126,-35,61
189,-27,-147,-154,166,-106,-246,-168,-107,-115,-29,61
163,-23,-127,-133,143,-92,-221,-151,-93,-106,-25,52
145,-19,-112,-120,127,-80,-195,-135,-82,-101,-25,43
131,-10,-97,-113,112,-67,-175,-113,-68,-89,-22,43
131,7,-87,-127,106,-54,-159,-92,-54,-81,-15,43
127,11,-82,-127,101,-49,-144,-75,-43,-72,-8,39
116,15,-71,-120,91,-41,-134,-67,-34,-67,-1,39
105,28,-56,-120,77,-26,-114,-54,-20,-58,10,39
98,32,-49,-117,70,-20,-103,-46,-15,-49,13,39
91,36,-41,-113,62,-13,-93,-37,-6,-47,17,39
84,40,-34,-110,55,-6,-83,-29,2,-41,20,39
76,45,-26,-106,47,0,-73,-24,11,-35,27,39
62,45,-16,-93,35,7,-68,-20,13,-32,27,39
62,45,-16,-93,35,7,-63,-20,16,-32,31,39
62,45,-16,-93,35,7,-63,-20,16,-29,31,39
62,49,-14,-96,34,10,-63,-20,19,-29,34,39
62,53,-11,-100,32,13,-57,-16,22,-27,34,39
58,53,-9,-96,29,15,-57,-16,22,-27,34,39
58,53,-9,-96,29,15,-52,-16,22,-27,34,34
51,53,-4,-90,23,18,-52,-12,22,-27,34,34
51,53,-4,-90,23,18,-52,-12,22,-27,34,34
55,53,-6,-93,26,17,-57,-16,22,-27,34,34
58,53,-9,-96,29,15,-57,-16,22,-27,34,34
58,53,-9,-96,29,15,-57,-16,22,-27,34,34
51,53,-4,-90,23,18,-57,-16,25,-21,34,34
51,53,-4,-90,23,18,-52,-16,25,-21,34,34
55,53,-6,-93,26,17,-52,-12,25,-18,38,34
55,53,-6,-93,26,17,-52,-12,25,-18,38,34
55,53,-6,-93,26,17,-52,-16,25,-18,34,34
55,53,-6,-93,26,17,-52,-16,25,-18,34,34
55,53,-6,-93,26,17,-52,-16,25,-18,34,34
51,53,-4,-90,23,18,-52,-16,27,-15,34,34
51,53,-4,-90,23,18,-57,-20,27,-15,34,34
51,56,-2,-92,22,20,-57,-20,27,-15,36,37
51,57,-1,-93,22,21,-57,-20,27,-14,37,38
51,57,-1,-93,22,21,-57,-20,27,-14,37,39
51,57,-1,-93,22,21,-57,-20,27,-13,38,39
51,57,-1,-93,22,21,-58,-20,27,-13,38,39
51,57,-1,-93,22,21,-59,-21,27,-12,38,39
51,57,-1,-93,22,21,-60,-22,27,-12,38,39
51,57,-1,-93,22,21,-61,-23,27,-12,38,39
51,57,-1,-93,22,21,-62,-24,27,-13,38,39
51,57,-1,-93,22,21,-62,-24,27,-13,38,39
51,57,-1,-93,22,21,-62,-24,27,-14,38,39
51,57,-1,-93,22,21,-62,-24,27,-14,38,39
51,57,-1,-93,22,22,-62,-24,27,-15,38,39
50,57,-0,-92,21,22,-62,-24,27,-16,38,39
49,57,0,-91,20,22,-62,-24,27,-17,38,39
48,57,1,-90,20,23,-62,-24,27,-17,38,39
48,57,1,-90,19,23,-62,-24,27,-18,38,39
47,57,1,-90,19,23,-62,-24,27,-18,38,39
47,57,1,-90,19,23,-62,-24,27,-18,38,39
47,57,1,-90,19,23,-62,-24,27,-18,38,39
47,58,2,-90,19,23,-62,-24,27,-18,38,39
47,59,2,-91,18,24,-62,-23,27,-18,39,40
47,59,3,-91,18,25,-62,-22,27,-18,39,41
47,60,3,-92,18,26,-62,-21,27,-18,40,42
47,61,4,-93,18,26,-62,-20,28,-18,41,43
47,61,4,-93,17,26,-62,-20,28,-17,41,43
47,62,4,-93,17,26,-62,-20,29,-17,41,43
47,62,4,-93,17,26,-62,-20,29,-16,41,43
47,62,4,-93,17,26,-62,-20,30,-15,41,43
47,62,4,-93,17,26,-62,-20,30,-15,41,43
47,62,4,-93,17,26,-62,-20,30,-15,41,43
47,62,4,-93,17,26,-62,-20,30,-15,41,43
47,62,4,-93,17,26,-62,-20,30,-15,41,43
47,62,4,-93,17,26,-62,-21,29,-15,41,43
47,62,4,-93,17,26,-62,-22,29,-15,41,43
47,62,4,-93,17,26,-62,-23,28,-15,41,43
47,62,4,-93,17,26,-62,-24,28,-15,41,43
47,62,4,-93,17,26,-62,-24,28,-15,41,43
47,62,4,-93,17,26,-62,-24,27,-15,41,43
47,62,4,-93,17,26,-62,-24,27,-15,41,43
47,62,4,-93,17,27,-63,-24,27,-15,41,43
47,63,5,-94,17,27,-64,-24,27,-14,41,43
47,64,5,-95,17,28,-65,-24,27,-14,41,43
47,65,6,-96,16,29,-66,-24,27,-13,41,43
47,65,6,-96,16,29,-67,-24,27,-13,41,43
47,66,6,-96,16,30,-67,-24,27,-12,42,43
47,66,6,-96,16,30,-67,-24,27,-12,43,43
47,66,6,-96,16,30,-67,-24,27,-12,44,43
47,66,7,-96,16,30,-67,-25,27,-12,44,43
46,66,7,-95,15,30,-67,-25,27,-12,44,43
45,66,8,-95,14,31,-67,-26,27,-12,45,43
45,66,8,-94,14,31,-67,-27,27,-12,45,43
44,66,9,-93,13,31,-67,-28,27,-12,45,43
43,66,10,-92,12,32,-67,-28,27,-12,45,43
42,66,10,-91,11,32,-67,-28,27,-12,45,43
41,66,11,-91,11,32,-67,-28,27,-12,45,43
40,66,11,-90,10,33,-67,-28,27,-12,45,43
40,66,11,-90,10,33,-67,-28,27,-12,46,43
40,66,11,-90,10,33,-67,-28,27,-12,46,43
40,66,11,-90,10,33,-67,-28,27,-12,47,43
40,66,12,-90,10,33,-67,-28,27,-12,48,44
40,67,12,-91,9,34,-67,-28,27,-11,48,44
40,68,13,-91,9,35,-67,-28,27,-11,48,45
40,69,13,-92,9,35,-67,-28,27,-10,48,46
40,70,14,-93,9,36,-67,-29,28,-10,48,47
40,70,14,-93,8,36,-67,-30,28,-10,48,47
40,70,14,-93,8,36,-67,-31,29,-9,48,48
40,70,14,-93,8,36,-67,-32,29,-9,48,48
40,70,14,-93,8,37,-67,-32,30,-9,48,48
40,71,15,-94,8,37,-67,-32,30,-9,49,48
40,72,15,-95,8,38,-67,-33,30,-9,50,48
40,73,16,-96,7,39,-67,-33,30,-9,51,48
40,74,16,-97,7,39,-67,-33,30,-9,51,48
41,75,16,-98,7,40,-67,-34,30,-9,51,49
42,76,16,-100,8,40,-67,-35,30,-8,51,50
43,77,16,-101,8,41,-67,-36,30,-7,51,51
43,78,17,-103,8,41,-67,-36,30,-7,51,52
43,79,17,-104,8,42,-67,-37,30,-7,51,52
44,81,18,-105,8,43,-67,-37,30,-7,51,52
44,82,18,-106,7,44,-67,-37,30,-7,51,52
43,83,19,-106,7,45,-68,-37,30,-6,51,52
43,84,20,-106,6,46,-69,-38,30,-6,51,53
42,85,21,-106,5,47,-70,-39,30,-5,51,54
41,86,23,-106,3,48,-71,-40,30,-4,51,55
40,86,23,-106,3,49,-72,-41,30,-4,51,56
40,87,24,-106,3,49,-72,-41,30,-4,51,56
40,87,24,-106,2,49,-72,-41,30,-4,51,56
40,87,24,-106,2,49,-72,-41,30,-4,51,56
40,87,24,-107,3,50,-72,-41,30,-4,51,56
41,88,24,-108,3,50,-72,-41,30,-4,51,56
42,89,24,-110,3,50,-72,-41,30,-4,51,56
43,90,24,-111,3,51,-72,-41,30,-4,51,56
44,91,24,-113,4,51,-72,-41,30,-4,51,56
45,91,23,-114,5,50,-72,-41,30,-4,51,56
45,91,23,-115,5,50,-72,-41,30,-4,51,56
46,91,22,-116,6,50,-72,-41,30,-4,51,56
47,91,22,-116,7,50,-72,-41,30,-3,51,56
47,91,22,-117,7,49,-72,-40,30,-3,51,56
47,91,21,-117,7,49,-72,-39,30,-2,51,56
47,91,21,-117,7,49,-72,-38,30,-2,51,56
48,91,21,-117,7,49,-73,-37,30,-1,51,56
48,91,21,-118,8,49,-74,-37,30,-1,51,56
49,91,20,-118,8,49,-75,-37,30,-1,51,56
50,91,20,-119,9,48,-76,-37,30,-1,51,56
51,91,18,-120,10,47,-77,-36,30,-1,51,56
53,90,17,-121,12,46,-77,-36,30,-2,50,56
55,89,15,-122,14,44,-78,-35,30,-2,50,56
56,88,13,-123,15,43,-78,-34,30,-3,49,56
58,87,11,-123,17,41,-78,-32,30,-3,48,56
60,86,10,-124,19,40,-78,-30,31,-4,48,56
62,85,8,-125,21,38,-78,-28,32,-4,48,56
64,84,6,-126,23,36,-78,-26,32,-4,48,56
65,82,4,-126,25,34,-78,-24,33,-4,48,56
66,80,2,-126,26,32,-78,-22,33,-4,48,55
67,78,0,-125,28,31,-78,-20,33,-4,48,54
68,76,-2,-124,29,28,-78,-18,33,-4,48,53
69,75,-3,-123,30,27,-78,-16,33,-4,48,52
69,73,-4,-122,31,26,-78,-15,33,-4,47,52
69,72,-5,-122,32,25,-78,-14,33,-4,46,52
69,71,-6,-121,32,24,-78,-13,33,-4,45,52
69,70,-6,-120,32,23,-78,-11,33,-4,45,52
69,68,-8,-118,33,21,-78,-10,33,-4,45,52
69,66,-9,-117,34,20,-78,-9,33,-4,45,52
69,64,-10,-115,35,18,-78,-8,33,-4,45,52
69,62,-11,-114,35,17,-78,-7,33,-3,45,52
70,61,-12,-114,37,15,-78,-6,33,-2,45,51
71,59,-14,-113,38,14,-78,-5,33,-1,45,50
72,58,-15,-113,39,13,-78,-4,33,1,45,49
72,57,-16,-113,40,12,-77,-3,33,2,45,48
72,56,-17,-112,40,11,-76,-1,33,3,45,48
73,55,-17,-111,41,10,-75,1,33,3,45,48
73,54,-18,-110,41,9,-74,3,33,4,45,48
73,53,-18,-110,41,9,-73,5,33,5,45,48
73,53,-19,-110,41,9,-73,5,34,5,46,49
73,53,-19,-110,41,8,-72,5,34,6,46,50
73,53,-19,-110,41,8,-72,5,35,7,47,51
73,53,-19,-110,41,8,-72,5,36,8,48,52
73,53,-19,-110,41,8,-71,5,36,8,48,52
73,53,-19,-110,41,8,-70,5,36,9,48,52
73,53,-19,-110,41,8,-69,5,36,10,48,52
73,53,-19,-109,41,8,-68,5,36,10,48,52
73,52,-19,-109,42,7,-68,5,36,10,48,52
73,51,-20,-108,42,7,-67,5,36,10,48,52
73,50,-21,-107,42,6,-67,5,36,10,48,52
72,49,-21,-106,42,6,-67,5,36,11,48,52
72,49,-20,-105,42,6,-67,5,36,11,49,52
71,49,-20,-105,41,6,-67,5,36,12,50,52
70,49,-19,-104,41,6,-67,5,36,13,51,52
69,49,-19,-103,40,7,-67,5,36,13,51,52
68,49,-18,-102,39,7,-66,5,37,14,51,52
67,49,-17,-101,38,8,-65,5,37,15,51,52
66,49,-17,-100,38,8,-64,5,38,15,51,52
66,49,-16,-100,37,9,-63,5,39,16,52,52
66,50,-16,-101,37,9,-63,5,39,18,53,53
65,51,-15,-101,36,10,-62,5,40,19,53,54
65,51,-15,-101,36,10,-62,5,40,19,53,54
65,51,-15,-101,36,10,-62,5,40,19,53,54
65,51,-15,-101,36,10,-62,5,40,19,53,54
65,51,-15,-101,36,10,-62,5,40,19,53,54
65,51,-15,-101,36,10,-62,5,40,19,53,54
65,52,-15,-102,36,10,-59,7,41,22,55,55
65,53,-14,-103,35,11,-54,9,43,26,57,56
65,53,-14,-103,35,11,-53,9,44,27,58,56
65,53,-14,-103,35,12,-52,10,44,27,58,56
65,53,-13,-103,35,12,-52,10,44,27,58,56
64,53,-13,-102,34,12,-52,10,44,27,58,56
64,53,-12,-101,34,12,-52,10,44,27,58,56
63,53,-12,-100,33,13,-52,10,44,27,58,56
62,53,-11,-100,33,13,-52,10,44,28,58,56
62,53,-11,-100,32,13,-52,10,44,28,57,56
62,53,-11,-100,32,13,-52,10,44,29,57,56
62,53,-11,-100,32,13,-52,10,44,30,56,56
62,53,-11,-100,32,13,-52,10,44,30,55,56
62,53,-11,-100,32,13,-52,10,44,30,55,56
62,53,-11,-100,32,13,-52,10,44,30,55,56
62,53,-11,-100,32,13,-52,10,44,30,55,56
62,53,-11,-100,32,14,-52,10,44,30,55,56
62,54,-10,-101,32,14,-52,10,44,30,55,56
62,55,-10,-101,32,15,-52,10,44,30,55,56
62,56,-9,-102,31,16,-52,10,44,30,55,56
62,57,-9,-103,31,16,-52,10,44,30,55,56
63,57,-10,-104,32,16,-52,10,44,30,55,56
64,57,-10,-105,32,16,-52,10,44,30,55,56
64,57,-11,-105,33,15,-52,10,44,30,55,56
65,57,-11,-106,34,15,-52,10,44,30,55,56
65,57,-11,-106,34,15,-52,10,44,30,55,56
65,57,-11,-106,34,15,-52,10,44,30,55,56
65,57,-11,-106,34,15,-52,10,44,30,55,56
65,57,-11,-106,34,15,-52,10,44,30,55,56
64,56,-11,-104,33,14,-52,10,44,30,55,56
64,55,-11,-103,33,14,-52,10,44,30,55,56
63,54,-11,-101,33,14,-52,10,44,30,55,56
62,53,-11,-100,32,13,-52,10,44,30,55,56
62,53,-11,-100,32,13,-51,10,43,30,54,56
62,53,-11,-100,32,13,-49,10,43,30,53,56
62,53,-11,-100,32,13,-48,10,42,30,52,56
62,53,-11,-100,32,13,-47,10,42,30,52,56
62,53,-11,-100,32,13,-47,10,42,30,52,56
62,53,-11,-100,32,13,-47,10,41,30,51,56
62,53,-11,-100,32,13,-47,10,41,30,51,56
61,53,-11,-99,32,13,-47,10,41,30,51,56
61,52,-11,-98,32,13,-47,10,41,30,51,55
60,51,-11,-96,32,12,-47,10,41,30,51,54
59,50,-11,-95,31,12,-47,10,41,30,51,53
59,49,-11,-94,31,12,-47,9,41,30,51,52
58,49,-11,-93,31,12,-47,8,41,29,50,51
58,49,-11,-93,31,12,-47,7,40,29,50,50
58,49,-11,-93,31,12,-47,6,39,28,49,49
58,48,-11,-93,31,11,-47,6,39,28,48,48
58,48,-12,-92,31,11,-48,6,39,28,48,48
58,47,-12,-91,32,10,-49,5,39,27,48,48
58,46,-13,-90,32,9,-51,5,39,27,48,48
58,45,-13,-89,32,9,-52,5,39,27,48,48
57,44,-14,-88,32,8,-52,5,39,27,47,48
56,42,-14,-86,32,8,-52,5,39,27,46,48
55,41,-14,-84,31,7,-52,5,39,27,45,48
55,41,-14,-83,31,7,-52,5,38,27,45,48
55,41,-14,-83,31,7,-52,4,38,27,45,48
55,40,-14,-83,31,7,-52,3,37,27,45,48
55,40,-14,-83,31,7,-52,2,37,27,45,48
55,40,-14,-83,31,7,-52,1,36,27,45,47
55,40,-14,-83,31,7,-52,0,36,27,45,46
55,40,-14,-83,31,7,-52,-1,36,27,45,45
55,40,-14,-83,31,7,-52,-2,36,27,45,44
55,40,-14,-83,31,7,-52,-3,36,28,45,44
55,40,-14,-83,31,7,-51,-3,36,28,45,43
55,40,-14,-83,31,7,-49,-3,36,29,45,43
55,40,-14,-83,31,7,-48,-3,36,30,45,43
55,41,-13,-83,31,7,-47,-3,36,30,45,43
55,42,-13,-84,30,8,-47,-3,37,31,45,43
55,42,-12,-84,30,8,-47,-3,37,32,45,43
55,44,-12,-85,30,9,-47,-3,38,32,45,43
55,44,-11,-86,29,10,-47,-3,38,33,45,43
55,44,-11,-86,29,10,-47,-3,38,35,45,43
55,45,-11,-86,29,10,-47,-3,39,36,45,43
55,45,-11,-86,29,10,-47,-3,39,37,45,43
55,45,-11,-86,29,10,-47,-3,39,39,45,43
55,45,-11,-86,29,10,-47,-3,39,40,45,43
55,45,-11,-86,29,10,-47,-3,39,42,45,43
55,45,-11,-86,29,10,-47,-3,39,43,45,43
55,45,-11,-86,29,10,-46,-3,39,44,45,43
55,45,-11,-86,29,10,-45,-3,39,45,45,43
55,45,-11,-86,29,10,-44,-3,39,46,45,43
55,45,-11,-86,29,10,-43,-3,39,47,45,43
55,45,-11,-86,29,10,-42,-3,39,47,45,43
55,45,-11,-86,29,10,-42,-3,39,47,45,43
55,45,-11,-86,29,10,-42,-3,39,47,45,43
55,45,-11,-86,29,10,-42,-3,39,47,45,43
55,45,-11,-86,29,10,-42,-3,39,47,44,43
55,45,-11,-86,29,10,-42,-3,39,47,43,43
55,45,-11,-86,29,10,-42,-3,40,47,43,43
55,45,-11,-86,29,10,-42,-3,41,47,42,43
54,45,-11,-86,29,10,-42,-3,41,48,41,43
53,45,-10,-85,28,10,-42,-3,41,48,41,43
53,45,-10,-84,28,11,-42,-3,41,49,41,43
52,45,-9,-83,27,11,-42,-3,41,50,41,43
51,45,-9,-83,27,11,-42,-3,41,50,41,43
51,45,-9,-83,26,11,-42,-3,41,50,42,43
51,45,-9,-83,26,12,-42,-3,41,50,43,43
51,45,-9,-83,26,12,-42,-3,41,50,44,43
51,45,-9,-83,26,12,-42,-3,41,50,44,43
51,45,-9,-83,26,12,-42,-3,41,49,44,43
51,45,-9,-83,26,12,-42,-3,41,49,45,43
51,45,-9,-83,26,12,-42,-3,41,48,45,43
51,44,-9,-83,27,11,-42,-3,41,47,44,43
52,43,-10,-83,28,10,-42,-3,41,47,43,43
53,42,-11,-83,29,9,-42,-3,40,46,43,43
54,41,-12,-83,30,8,-42,-3,39,45,42,43
54,41,-13,-83,30,7,-42,-3,39,45,41,43
54,41,-13,-83,31,7,-42,-4,39,44,41,42
55,40,-14,-83,31,7,-42,-5,39,43,41,41
55,40,-14,-83,31,7,-42,-6,39,42,41,40
54,40,-13,-82,31,7,-42,-7,39,42,41,39
53,40,-13,-82,30,7,-42,-7,39,42,40,39
53,40,-12,-81,29,8,-42,-7,39,42,39,39
52,40,-12,-80,29,8,-42,-7,39,42,38,39
51,40,-11,-79,28,8,-41,-7,39,42,38,39
50,40,-11,-78,27,9,-40,-7,39,42,38,39
49,40,-10,-78,26,9,-39,-7,39,42,38,39
48,40,-9,-77,26,10,-38,-7,39,42,38,39
48,40,-9,-76,25,10,-37,-7,39,42,38,39
47,40,-9,-76,25,10,-37,-7,39,42,38,39
47,40,-9,-76,25,10,-37,-7,39,42,38,39
47,40,-9,-76,25,10,-37,-7,39,42,38,39
47,40,-9,-76,25,10,-37,-7,39,42,38,39
47,40,-9,-76,25,10,-37,-7,39,43,38,39
47,40,-9,-76,25,10,-37,-7,39,43,38,39
47,40,-9,-76,25,10,-37,-7,39,44,38,39
47,40,-9,-75,25,10,-37,-8,38,45,37,38
47,39,-9,-74,25,9,-37,-9,38,46,36,37
46,38,-9,-74,25,9,-37,-9,37,46,36,37
46,38,-9,-73,25,9,-37,-9,37,46,36,37
46,38,-9,-73,25,9,-37,-9,37,46,36,37
46,38,-9,-73,25,9,-37,-9,37,46,36,37
46,38,-9,-73,25,9,-37,-9,37,46,36,37
46,38,-9,-73,25,9,-37,-9,38,46,37,37
46,37,-9,-72,25,8,-38,-9,38,47,39,37
45,37,-9,-72,24,8,-38,-9,38,47,39,38
45,37,-9,-72,24,8,-38,-9,38,47,39,38
46,38,-9,-73,25,9,-39,-9,38,47,39,38
46,38,-9,-73,25,9,-41,-10,37,47,38,37
46,36,-10,-72,25,7,-42,-10,37,47,38,37
46,36,-11,-71,25,7,-41,-10,37,48,38,37
46,36,-10,-71,25,7,-40,-10,37,49,38,37
45,35,-10,-70,25,7,-40,-9,37,50,38,37
45,34,-10,-69,25,7,-40,-10,37,49,38,36
44,35,-10,-69,24,7,-40,-11,37,49,37,36
44,34,-10,-68,24,7,-40,-11,37,49,37,35
44,33,-11,-67,25,6,-40,-11,37,49,37,35
45,33,-11,-68,25,5,-40,-11,37,49,37,35
46,33,-12,-68,26,5,-41,-11,37,49,36,35
46,32,-13,-68,27,4,-42,-11,37,48,36,35
46,33,-13,-69,27,4,-42,-11,36,48,36,35
47,34,-13,-71,27,5,-43,-11,35,48,35,34
48,34,-13,-72,27,5,-44,-11,35,47,35,33
45,34,-11,-69,25,6,-44,-11,35,48,35,33
42,34,-9,-67,23,7,-43,-11,35,50,36,34
42,35,-8,-67,22,8,-41,-11,36,51,37,35
41,34,-8,-66,22,8,-40,-10,36,50,36,36
41,34,-8,-65,22,8,-41,-11,36,50,36,36
42,34,-9,-66,22,8,-42,-11,36,49,35,35
42,33,-9,-65,23,7,-40,-11,36,49,35,35
43,34,-9,-67,23,7,-38,-11,36,49,35,35
45,36,-10,-71,25,8,-36,-11,37,50,36,35
47,38,-10,-73,25,8,-35,-11,37,51,37,35
45,38,-9,-72,24,9,-35,-11,37,52,37,35
45,38,-8,-72,24,9,-36,-11,37,52,37,35
47,38,-10,-73,25,8,-37,-11,37,53,37,35
45,37,-9,-71,24,8,-36,-10,38,53,38,36
44,38,-8,-72,23,10,-34,-9,39,53,39,37
46,41,-8,-76,24,11,-34,-9,39,53,39,37
47,41,-8,-76,24,10,-34,-9,39,53,38,37
46,39,-8,-74,24,10,-35,-9,38,53,38,37
46,38,-9,-73,24,9,-35,-9,38,53,38,37
45,38,-9,-72,24,9,-35,-9,38,53,38,37
45,37,-9,-71,24,9,-34,-9,38,54,38,37
45,38,-8,-72,23,9,-34,-8,39,54,39,38
44,40,-7,-72,22,11,-35,-8,39,54,39,37
43,40,-6,-71,21,12,-35,-8,39,55,39,37
41,40,-5,-71,20,13,-34,-8,40,56,38,37
41,40,-5,-71,20,13,-33,-8,40,57,38,38
42,40,-5,-70,20,12,-33,-9,39,57,38,38
42,40,-5,-71,21,12,-33,-9,39,58,38,38
43,41,-6,-73,21,12,-32,-9,40,59,38,38
44,42,-6,-75,22,13,-32,-8,40,60,39,38
45,44,-5,-77,22,14,-32,-8,40,61,39,39
44,45,-4,-76,20,15,-32,-8,40,62,39,39
41,43,-2,-72,18,15,-32,-9,40,62,39,38
38,41,-2,-68,17,14,-34,-9,40,63,39,38
39,40,-3,-69,18,13,-34,-9,39,65,38,38
43,42,-5,-73,21,13,-34,-8,39,68,38,38
45,44,-5,-77,22,14,-33,-8,39,71,38,39
46,46,-5,-79,22,15,-33,-9,39,74,38,39
46,46,-5,-79,22,15,-34,-9,39,76,38,38
46,45,-5,-79,22,14,-34,-9,39,77,38,38
45,45,-5,-77,22,14,-34,-9,38,79,38,38
44,44,-4,-76,21,14,-34,-9,38,80,38,38
43,43,-4,-73,20,14,-35,-8,39,84,39,38
41,41,-4,-71,19,13,-35,-8,39,87,39,38
41,42,-4,-71,19,14,-34,-6,40,90,40,38
43,43,-4,-74,20,14,-33,-5,41,92,41,39
44,44,-4,-76,21,14,-32,-5,41,93,41,38
45,44,-5,-77,21,14,-31,-5,41,93,41,37
45,45,-5,-77,22,14,-30,-6,40,94,40,36
45,44,-5,-77,22,14,-29,-6,40,94,39,36
45,43,-6,-76,22,13,-28,-6,40,94,39,36
46,44,-6,-78,23,13,-28,-6,40,95,38,37
47,45,-6,-79,24,13,-28,-6,39,95,38,37
47,44,-7,-78,24,12,-28,-7,39,95,37,37
48,43,-7,-79,24,12,-28,-7,39,95,36,37
47,42,-8,-77,24,11,-29,-7,38,95,36,37
46,39,-9,-74,24,9,-29,-6,37,96,36,37
45,37,-9,-71,24,8,-30,-6,37,95,36,37
43,37,-8,-69,22,9,-30,-6,36,95,36,37
40,37,-6,-66,20,11,-29,-7,36,95,36,37
37,34,-5,-61,19,10,-30,-7,36,94,35,36
37,31,-7,-59,19,8,-31,-8,36,94,35,36
37,30,-7,-58,20,7,-31,-9,36,95,34,35
35,30,-6,-56,18,8,-31,-9,36,95,34,35
36,31,-6,-58,19,8,-30,-8,36,96,35,35
39,33,-7,-63,20,8,-29,-8,36,97,35,35
41,34,-8,-65,22,8,-29,-8,36,97,35,35
44,34,-10,-67,24,6,-29,-9,36,96,34,34
48,36,-12,-73,27,6,-28,-10,35,96,34,33
52,39,-13,-79,29,7,-28,-11,35,96,34,34
51,40,-12,-79,28,8,-29,-11,36,96,34,34
48,40,-10,-76,26,9,-30,-12,36,96,34,34
45,39,-8,-72,23,10,-32,-12,36,96,33,34
40,37,-6,-67,20,11,-32,-12,36,96,33,34
37,36,-4,-63,18,11,-33,-11,36,96,33,34
36,34,-4,-60,17,10,-33,-10,36,96,33,34
37,33,-6,-60,19,9,-33,-11,35,96,33,31
38,33,-6,-61,19,9,-32,-10,35,95,33,30
38,32,-7,-60,20,8,-31,-10,34,95,33,31
38,30,-8,-59,20,7,-30,-11,34,96,34,31
37,32,-7,-59,20,8,-30,-12,33,95,33,30
37,32,-7,-60,19,8,-29,-12,33,95,33,30
37,33,-6,-61,19,9,-29,-12,34,96,34,32
37,36,-5,-63,18,11,-29,-11,35,97,34,33
38,37,-4,-65,18,12,-29,-11,36,99,34,34
39,39,-4,-67,19,12,-29,-11,36,99,34,34
38,37,-4,-65,19,12,-28,-11,36,99,34,34
36,35,-4,-61,18,11,-28,-10,36,99,34,34
36,36,-4,-61,17,11,-28,-10,36,99,34,34
37,37,-4,-64,18,12,-28,-10,36,100,34,34
38,36,-4,-64,18,11,-28,-10,36,99,34,33
36,37,-3,-63,16,13,-29,-9,35,98,35,32
36,39,-2,-64,16,14,-29,-10,34,98,35,32
35,38,-1,-63,15,14,-30,-11,34,97,34,31
34,38,-1,-62,15,14,-31,-11,34,97,34,30
35,37,-3,-62,16,13,-31,-11,34,97,35,30
37,36,-4,-63,17,12,-31,-11,34,97,35,31
37,37,-4,-64,18,12,-31,-11,34,96,34,31
37,37,-4,-64,18,12,-31,-11,34,96,34,31
37,37,-4,-64,18,12,-31,-11,34,96,34,31
37,37,-4,-64,18,12,-31,-11,34,96,34,31
37,37,-4,-64,18,12,-31,-11,34,96,34,31
37,37,-4,-64,18,12,-31,-11,34,96,34,31
37,37,-4,-64,18,12,-31,-11,34,96,34,31
37,37,-4,-64,18,12,-31,-11,34,96,34,31
-169,152,208,36,-194,195,107,40,147,210,157,163
-125,129,163,14,-149,157,79,29,123,184,131,135
-37,72,69,-23,-56,73,13,4,69,131,74,76
36,42,1,-67,14,17,-29,-14,37,101,37,38
42,42,-4,-73,20,14,-29,-14,37,100,37,38
42,40,-5,-71,20,12,-34,-13,34,100,37,38
45,37,-9,-71,24,9,-36,-13,34,99,37,38
47,37,-11,-73,26,8,-41,-13,33,95,34,38
45,31,-13,-67,27,3,-36,-13,31,89,37,37
50,29,-17,-69,31,-0,-36,-10,30,83,32,35
50,25,-20,-66,33,-3,-36,-4,29,80,30,34
50,18,-24,-61,35,-8,-37,-4,22,75,25,31
46,4,-29,-46,37,-17,-40,-6,18,67,17,22
50,-6,-38,-41,44,-27,-45,-8,11,61,12,20
56,-11,-46,-43,51,-34,-50,-12,1,51,7,18
62,-14,-51,-46,56,-38,-54,-13,-8,41,1,15
75,-19,-63,-55,69,-49,-57,-17,-17,37,-3,15
76,-25,-68,-51,72,-54,-63,-16,-23,30,-6,18
77,-35,-74,-44,76,-62,-74,-26,-41,16,-14,16
82,-44,-83,-41,83,-71,-84,-41,-60,1,-22,15
93,-54,-97,-44,96,-84,-92,-54,-74,-10,-28,11
97,-62,-104,-41,102,-92,-98,-59,-86,-19,-34,6
100,-72,-112,-35,108,-101,-105,-64,-96,-30,-44,1
108,-76,-120,-40,116,-108,-108,-65,-105,-38,-50,-2
113,-83,-128,-39,123,-116,-114,-69,-114,-44,-53,-4
117,-85,-132,-41,127,-119,-117,-82,-127,-54,-60,-6
122,-93,-140,-40,134,-127,-124,-96,-139,-64,-68,-12
141,-101,-158,-50,152,-142,-134,-113,-156,-81,-86,-26
132,-117,-161,-29,151,-151,-143,-123,-172,-93,-97,-37
137,-137,-176,-18,162,-168,-153,-141,-186,-104,-110,-49
143,-156,-192,-8,174,-186,-165,-161,-200,-116,-124,-64
151,-167,-204,-7,184,-198,-173,-169,-211,-127,-139,-78
155,-185,-217,3,194,-213,-177,-188,-221,-138,-155,-94
160,-200,-229,11,203,-227,-186,-221,-234,-151,-169,-110
168,-211,-242,13,213,-240,-212,-261,-252,-168,-184,-124
178,-223,-256,13,226,-253,-230,-289,-268,-178,-199,-140
179,-232,-262,20,230,-261,-244,-313,-279,-189,-212,-153
182,-237,-267,20,234,-266,-255,-337,-285,-195,-221,-166
173,-238,-261,29,227,-263,-269,-364,-289,-198,-226,-174
173,-238,-261,29,227,-263,-287,-381,-287,-198,-230,-181
178,-233,-262,21,230,-261,-301,-389,-282,-195,-230,-186
180,-238,-266,23,233,-265,-310,-393,-277,-193,-232,-193
177,-238,-264,25,230,-264,-307,-394,-271,-189,-232,-193
173,-229,-256,22,224,-256,-311,-392,-263,-183,-229,-189
173,-233,-259,25,226,-259,-315,-391,-256,-179,-229,-196
180,-233,-264,19,232,-263,-307,-379,-246,-173,-225,-194
177,-224,-256,15,225,-254,-301,-375,-239,-169,-223,-197
175,-220,-252,13,222,-249,-288,-367,-228,-161,-217,-195
177,-222,-254,13,225,-252,-269,-343,-216,-153,-209,-195
177,-213,-249,6,222,-245,-254,-315,-201,-142,-202,-193
177,-204,-244,-2,218,-238,-240,-297,-190,-136,-198,-189
169,-192,-231,-3,207,-225,-228,-282,-182,-127,-191,-185
163,-192,-227,2,203,-223,-219,-272,-176,-120,-188,-184
153,-186,-217,6,193,-213,-212,-265,-166,-111,-180,-179
155,-181,-215,0,192,-210,-207,-256,-159,-104,-174,-175
151,-179,-211,3,188,-207,-199,-252,-154,-101,-173,-178
142,-176,-203,8,180,-201,-182,-244,-146,-92,-164,-175
133,-160,-188,4,167,-185,-175,-236,-137,-83,-158,-166
120,-153,-174,11,153,-173,-163,-225,-125,-71,-147,-158
116,-139,-163,3,145,-161,-153,-207,-113,-61,-137,-151
105,-128,-149,4,132,-147,-144,-195,-107,-53,-128,-145
97,-116,-136,3,121,-134,-133,-183,-96,-43,-118,-137
91,-110,-128,3,114,-126,-125,-173,-87,-34,-108,-130
83,-97,-115,1,103,-112,-115,-159,-77,-20,-95,-118
83,-82,-106,-11,97,-101,-107,-145,-67,-11,-87,-110
82,-70,-98,-20,92,-91,-106,-133,-58,-3,-82,-103
83,-59,-92,-29,89,-83,-98,-120,-48,7,-72,-93
76,-47,-81,-33,80,-71,-88,-104,-38,17,-62,-83
62,-41,-67,-24,66,-60,-73,-87,-29,30,-48,-68
53,-30,-55,-24,54,-47,-68,-78,-22,36,-42,-61
48,-25,-48,-24,49,-41,-60,-69,-15,43,-35,-56
40,-12,-35,-27,38,-28,-57,-60,-8,51,-27,-47
36,-10,-31,-25,34,-24,-51,-53,-2,57,-19,-39
35,4,-21,-35,27,-12,-43,-46,8,65,-10,-30
27,16,-9,-38,17,0,-29,-31,22,79,6,-11
20,35,7,-47,4,18,-20,-20,27,90,17,1
15,42,15,-47,-3,26,-15,-13,34,97,24,10
9,47,21,-46,-9,32,-9,-5,39,104,30,18
11,49,22,-50,-8,33,-9,0,42,110,34,23
12,54,24,-55,-9,37,-8,4,45,116,39,29
13,57,25,-57,-10,39,-8,6,48,122,43,33
12,58,27,-57,-11,40,-8,6,49,126,45,36
12,59,27,-58,-11,40,-8,6,49,128,46,37
15,61,26,-63,-9,41,-7,6,50,130,46,37
18,64,26,-67,-8,41,-6,7,50,132,46,38
18,65,26,-69,-8,42,-4,7,51,133,47,37
19,65,26,-69,-8,42,-3,8,52,134,47,37
18,64,26,-68,-8,42,-3,8,53,135,48,37
16,64,27,-66,-9,42,-2,9,53,136,49,38
16,65,28,-66,-10,43,-2,9,53,136,49,39
15,66,29,-66,-11,44,-2,10,53,137,50,40
13,66,30,-65,-13,46,-2,10,54,139,51,42
12,67,32,-65,-14,47,-1,11,54,144,51,45
13,70,33,-67,-14,49,1,11,55,147,52,47
14,72,33,-71,-14,50,2,11,56,147,53,48
15,74,34,-73,-14,51,3,11,56,149,53,48
15,77,35,-75,-14,53,4,11,56,150,53,49
14,78,36,-75,-16,54,5,11,56,152,53,48
13,76,36,-73,-16,53,4,10,55,154,52,47
14,74,35,-72,-15,52,2,9,54,157,52,46
14,73,34,-71,-14,50,1,9,53,161,52,45
13,71,33,-69,-14,49,0,8,53,164,52,44
13,71,33,-69,-14,49,-2,8,52,166,52,43
12,71,34,-68,-16,50,-3,8,52,168,53,43
10,71,36,-66,-17,51,-3,8,53,170,54,44
10,73,37,-67,-18,52,-3,9,53,173,55,45
10,74,37,-69,-18,53,-4,9,53,175,55,46
11,76,37,-71,-18,54,-5,10,53,176,56,46
9,75,39,-69,-19,54,-5,10,53,177,56,47
6,74,40,-64,-22,55,-4,11,54,179,57,48
4,73,41,-62,-22,55,-4,11,54,181,57,48
5,74,41,-63,-22,55,-4,11,54,182,57,48
6,75,41,-65,-22,55,-5,11,53,182,58,48
8,77,40,-68,-21,56,-5,11,53,184,58,48
9,78,40,-70,-20,56,-4,11,54,186,59,48
9,79,41,-71,-20,57,-3,13,55,189,60,49
9,81,42,-73,-21,59,-0,15,57,191,61,51
9,84,44,-76,-22,61,2,17,59,193,62,52
9,85,45,-76,-23,62,4,19,60,196,63,53
8,86,46,-75,-24,63,4,20,61,197,65,54
5,85,47,-73,-26,64,4,20,61,196,65,54
2,85,49,-69,-28,65,4,19,62,194,65,54
-0,84,50,-67,-30,65,4,19,62,194,66,55
-1,85,51,-67,-31,66,5,20,63,196,67,56
0,86,51,-69,-30,67,6,21,63,199,68,57
1,87,51,-71,-30,67,7,22,64,202,69,58
3,89,51,-73,-29,68,7,23,65,205,69,59
5,92,51,-77,-28,69,8,23,65,207,69,60
6,94,52,-81,-28,70,9,23,65,207,69,61
6,96,53,-82,-29,71,8,23,64,208,68,60
6,95,53,-81,-29,71,8,24,64,208,68,60
5,94,53,-79,-30,71,8,24,65,209,69,61
3,95,55,-78,-31,72,10,25,66,209,70,63
2,97,57,-79,-33,75,12,26,67,210,72,64
1,98,58,-79,-34,76,12,27,68,210,73,65
0,98,58,-79,-34,76,12,27,68,209,73,65
1,99,59,-79,-35,77,11,28,68,209,73,65
-0,98,59,-78,-35,76,10,28,69,209,74,66
-2,97,59,-75,-36,76,11,29,70,209,75,68
-5,99,62,-74,-39,79,11,29,70,208,76,69
-5,100,63,-75,-40,80,10,30,70,207,77,69
-6,100,63,-74,-40,80,11,30,71,204,78,70
-8,100,65,-72,-42,81,11,31,71,200,79,72
-7,102,65,-75,-41,82,11,32,72,198,80,72
-6,102,65,-76,-41,82,12,32,72,197,82,74
-7,104,66,-77,-42,84,14,33,73,195,83,76
-7,106,68,-78,-43,85,13,34,73,192,84,77
-5,106,67,-80,-42,85,11,33,74,190,84,77
-3,106,66,-81,-40,84,9,32,74,189,85,77
-3,106,65,-81,-40,84,8,33,75,190,86,79
-3,107,66,-82,-41,85,8,34,76,191,88,82
-4,110,68,-84,-42,87,8,35,77,192,90,84
-5,111,70,-84,-43,89,9,36,78,193,92,85
-5,113,70,-85,-44,90,9,36,79,194,92,86
-5,114,71,-86,-45,91,9,37,80,196,94,87
-5,116,73,-88,-46,92,9,40,81,198,96,89
-7,118,75,-88,-47,95,9,43,82,201,97,90
-7,119,76,-88,-48,96,10,46,84,203,99,93
-6,121,76,-91,-48,96,10,47,85,205,101,95
-3,125,77,-97,-47,98,9,46,86,205,103,97
-2,127,77,-99,-47,100,7,44,87,206,104,98
-3,127,77,-99,-47,100,7,42,88,207,105,100
-3,130,79,-100,-49,102,7,42,88,208,107,102
-4,133,82,-102,-50,105,9,43,90,210,109,104
-5,134,83,-102,-51,106,11,46,92,213,112,107
-6,137,86,-103,-53,109,13,49,94,216,115,111
-5,142,88,-108,-55,112,14,50,96,219,117,113
-5,144,90,-110,-56,114,14,52,98,220,118,116
-7,144,91,-109,-57,115,14,53,99,222,120,118
-6,145,91,-110,-56,116,13,53,100,222,121,119
-5,148,91,-114,-56,117,13,54,101,223,122,120
-6,149,93,-114,-58,118,14,55,102,225,123,121
-8,149,94,-111,-59,119,15,56,103,226,125,122
-8,149,94,-112,-59,120,16,57,104,227,126,124
-7,151,95,-114,-59,121,16,58,105,229,127,126
-7,153,96,-115,-60,122,17,61,106,230,128,129
-5,156,97,-119,-60,123,18,64,108,232,130,132
-5,159,98,-123,-60,125,18,66,109,233,131,135
-6,161,100,-123,-62,128,17,67,110,233,133,137
-7,164,102,-125,-64,131,18,69,111,234,135,139
-7,165,103,-126,-64,131,19,71,112,235,136,141
-8,163,103,-123,-64,130,20,72,113,236,137,142
-8,163,102,-123,-64,130,19,72,113,236,137,142
-5,164,101,-126,-62,129,19,72,113,235,137,141
-2,163,98,-128,-59,128,20,73,112,235,137,142
1,164,97,-132,-57,127,20,74,112,235,137,142
3,165,96,-134,-56,126,19,76,113,235,137,143
3,165,96,-135,-56,126,19,78,115,236,138,146
3,166,97,-135,-57,128,18,80,116,236,139,146
3,167,97,-136,-57,128,17,81,117,236,141,146
4,167,97,-137,-56,128,18,83,118,236,141,147
3,167,97,-136,-56,128,19,84,118,235,141,147
4,166,96,-136,-56,127,20,85,118,234,141,146
4,164,95,-135,-55,126,22,87,119,235,140,146
4,162,93,-133,-54,124,22,89,118,234,140,146
6,160,91,-133,-52,122,21,92,117,232,139,146
8,158,88,-134,-49,119,21,93,115,230,138,146
10,156,86,-133,-47,117,20,93,114,228,137,144
10,154,85,-133,-46,115,18,93,112,226,135,141
14,152,81,-134,-42,111,18,94,111,225,133,139
18,149,77,-135,-38,108,18,95,111,224,131,137
19,146,73,-134,-36,105,18,96,110,222,128,134
20,142,71,-132,-34,101,17,97,109,221,126,131
21,139,69,-130,-32,99,17,98,107,219,124,129
22,137,67,-130,-31,97,17,99,106,217,122,128
22,135,65,-128,-29,94,16,101,105,215,120,126
23,132,63,-126,-28,92,16,101,103,213,118,123
23,127,60,-123,-26,88,15,101,102,211,117,122
24,124,57,-122,-24,85,15,101,100,210,115,120
27,123,55,-123,-21,83,13,100,99,209,113,117
29,121,52,-123,-19,81,13,99,97,207,111,116
30,119,50,-122,-17,79,11,97,95,204,109,113
30,115,47,-120,-16,76,11,95,93,201,106,110
32,112,45,-119,-14,73,10,93,92,199,105,108
33,111,43,-120,-12,71,10,92,90,196,102,106
35,109,40,-119,-9,68,8,89,88,193,100,103
38,107,37,-120,-7,66,5,88,86,190,98,100
40,104,35,-120,-4,63,3,87,84,188,96,99
40,101,32,-118,-3,60,1,86,83,186,94,96
40,97,30,-115,-1,57,1,84,81,184,93,94
41,95,28,-114,0,55,0,82,80,182,91,92
40,93,27,-111,0,54,-2,79,78,179,89,90
40,90,26,-109,1,51,-3,76,76,177,86,86
40,86,24,-106,2,49,-3,75,73,175,84,83
38,84,23,-102,2,48,-4,72,71,173,82,81
36,81,23,-98,1,46,-4,70,67,170,79,79
37,79,22,-98,3,45,-6,68,64,168,77,75
39,77,19,-97,5,42,-8,65,62,166,74,72
39,75,17,-96,6,40,-10,63,60,164,72,69
39,74,17,-96,6,40,-11,61,59,163,70,68
39,73,17,-94,6,39,-11,61,59,164,70,67
38,72,16,-93,6,38,-10,62,58,165,70,67
38,71,16,-92,6,38,-10,62,57,165,69,66
38,71,16,-92,6,38,-10,63,56,166,69,65
38,71,16,-92,6,38,-10,63,56,166,69,65
38,71,16,-92,6,38,-10,63,56,166,69,65
38,71,16,-92,6,38,-10,63,56,166,69,65
38,71,16,-92,6,38,-10,63,56,166,69,65
38,66,13,-88,8,34,-14,53,51,174,62,59
37,60,10,-82,9,30,-19,41,45,184,53,52
37,58,9,-80,10,29,-21,37,43,188,50,49
36,58,9,-80,10,28,-21,36,42,189,49,48
36,57,9,-79,10,28,-21,35,41,190,48,47
36,56,8,-79,10,27,-21,34,41,191,48,46
36,55,8,-78,11,26,-21,33,40,191,48,45
36,54,7,-77,11,26,-21,32,39,192,48,44
36,53,7,-76,11,25,-21,31,39,192,48,44
35,53,7,-75,10,25,-21,31,39,193,47,43
35,53,8,-74,10,26,-21,31,39,193,46,43
34,53,8,-74,9,26,-21,31,39,193,45,43
33,53,9,-73,9,26,-21,31,38,193,45,43
33,53,9,-73,9,26,-21,31,38,193,45,43
33,53,9,-73,8,26,-21,31,37,193,45,43
33,53,9,-73,8,26,-21,31,37,193,45,43
32,53,9,-72,8,27,-21,31,36,193,44,43
32,53,10,-72,7,27,-21,31,36,193,43,42
31,53,10,-71,7,27,-21,31,36,193,43,41
30,53,11,-70,6,28,-21,31,36,193,42,40
30,53,11,-70,6,28,-21,31,36,193,41,39
29,53,11,-70,6,28,-21,31,36,193,41,39
29,53,11,-69,5,28,-21,31,36,193,41,39
29,53,11,-69,5,28,-21,31,36,193,41,39
29,53,11,-69,5,28,-21,30,36,193,41,39
29,53,11,-69,5,28,-21,29,35,193,41,39
29,53,11,-69,5,28,-21,29,34,193,41,39
29,53,11,-69,5,28,-21,28,34,193,41,39
29,53,11,-69,5,28,-21,27,33,192,41,38
29,53,11,-69,5,28,-21,27,33,191,40,37
29,53,11,-69,5,28,-21,26,33,190,39,37
29,53,11,-69,5,28,-21,26,33,188,38,35
29,53,11,-69,6,28,-21,26,33,187,38,35
29,52,11,-68,6,27,-21,25,32,186,37,35
29,51,10,-68,6,26,-21,24,32,186,36,34
29,50,10,-67,6,26,-21,23,31,185,35,34
29,49,9,-66,7,25,-21,23,30,184,34,34
29,49,9,-66,7,25,-21,22,29,183,33,33
29,49,9,-66,7,25,-21,22,29,181,32,32
29,49,9,-66,7,25,-21,22,28,180,31,31
29,48,9,-66,7,24,-21,22,28,179,31,30
29,48,8,-65,7,24,-21,22,28,178,31,30
29,47,8,-64,8,23,-21,22,27,177,31,30
29,46,7,-64,8,22,-21,22,27,176,31,30
29,45,6,-63,8,21,-21,22,27,176,30,30
29,44,6,-62,9,21,-21,22,27,175,30,29
29,42,5,-61,9,20,-21,22,26,174,29,28
29,41,5,-60,9,19,-21,22,25,174,28,27
29,41,4,-59,10,19,-21,22,25,173,27,26
29,41,4,-59,10,18,-21,21,25,172,27,26
29,40,4,-59,10,18,-21,20,25,171,27,26
29,40,4,-59,10,18,-21,19,25,171,27,26
29,40,4,-59,10,18,-21,18,24,170,27,25
28,40,5,-58,9,19,-21,18,24,170,26,24
27,40,5,-57,8,19,-21,18,23,170,25,23
26,40,6,-57,8,19,-21,18,22,170,25,22
26,40,6,-56,7,20,-21,18,22,170,24,22
26,40,6,-56,7,20,-21,18,22,169,23,21
26,40,6,-56,7,20,-21,18,22,169,22,21
26,40,6,-56,7,20,-21,18,22,168,21,21
26,40,6,-55,7,20,-21,18,21,167,21,21
26,39,6,-55,7,19,-20,17,21,167,20,20
26,38,5,-54,8,18,-19,16,20,167,20,19
26,37,5,-53,8,17,-18,15,20,167,20,18
25,36,4,-52,8,17,-17,14,19,167,20,17
24,35,4,-51,8,16,-17,14,19,167,19,17
24,34,4,-49,8,16,-16,14,19,167,18,17
23,33,4,-47,7,15,-16,14,19,167,18,17
22,32,4,-46,7,15,-16,14,19,167,17,16
22,32,4,-46,7,15,-16,14,19,167,17,15
22,32,4,-46,7,15,-16,14,19,167,17,15
22,32,4,-46,7,15,-16,14,19,167,17,13
22,32,4,-46,7,15,-16,14,19,167,17,13
22,32,4,-46,7,15,-16,14,19,167,17,13
22,32,4,-46,7,15,-16,14,19,167,17,12
22,32,4,-46,7,15,-16,14,19,167,17,12
22,32,4,-46,7,15,-16,14,19,167,17,12
22,32,4,-46,7,15,-16,14,19,167,17,12
22,32,4,-46,7,15,-16,14,19,167,17,12
22,32,4,-46,7,15,-16,14,19,167,17,12
22,32,4,-46,7,15,-16,14,19,167,17,12
22,32,4,-46,7,15,-16,14,19,167,17,12
22,32,4,-46,7,15,-16,14,19,167,17,12
22,32,4,-46,7,15,-16,14,19,167,17,12
22,32,4,-46,7,15,-16,14,19,167,16,12
22,32,4,-46,7,15,-16,14,18,167,16,12
22,32,4,-46,7,15,-16,14,18,167,15,12
22,32,4,-46,7,15,-16,14,17,167,14,12
22,32,4,-46,7,15,-16,14,16,167,14,12
22,32,4,-46,7,15,-16,14,16,167,13,12
22,32,4,-46,7,15,-16,14,16,167,13,12
22,32,4,-46,7,15,-16,14,16,167,13,12
22,32,4,-46,7,15,-17,13,16,167,13,12
22,32,4,-46,7,15,-18,13,16,167,13,12
22,32,4,-46,7,15,-19,12,16,167,13,12
22,32,4,-46,7,15,-20,11,16,167,13,12
22,32,4,-46,7,15,-21,10,16,167,13,12
22,33,5,-47,6,16,-21,10,16,167,13,12
22,34,5,-47,6,17,-21,10,16,167,13,12
22,35,6,-48,6,17,-21,10,16,167,13,12
22,36,6,-49,6,18,-21,9,16,167,13,12
22,36,6,-49,5,18,-21,8,15,167,13,12
22,36,6,-49,5,18,-21,7,15,167,13,12
22,36,6,-49,5,18,-21,6,14,167,13,12
22,36,6,-49,5,18,-21,6,14,167,13,12
22,36,6,-49,5,18,-21,6,13,166,12,12
22,36,6,-49,5,18,-21,5,13,166,11,12
22,36,6,-49,5,18,-21,5,13,165,11,12
22,36,7,-49,5,18,-21,5,13,165,10,12
21,36,7,-48,4,19,-21,5,13,164,10,12
20,36,8,-47,4,19,-21,5,13,164,10,12
19,36,8,-47,3,19,-21,5,13,164,10,12
19,36,9,-46,3,20,-22,5,13,164,10,12
18,36,9,-46,3,20,-23,5,13,164,10,12
18,36,9,-46,2,20,-24,5,13,164,10,12
18,36,9,-46,2,20,-25,5,13,164,10,12
18,36,9,-46,2,20,-26,5,13,164,10,12
18,36,9,-46,2,20,-26,5,13,163,10,12
18,36,9,-46,2,20,-27,5,13,163,10,12
18,36,9,-46,2,20,-27,5,13,162,10,12
18,36,9,-46,2,20,-26,5,13,162,10,12
18,36,9,-46,2,20,-25,5,13,162,10,12
18,36,9,-46,2,20,-24,5,13,161,10,12
18,36,9,-46,2,20,-23,5,13,161,10,12
18,36,9,-45,3,20,-22,5,13,161,10,12
18,35,8,-45,3,19,-22,5,13,161,10,12
18,34,8,-44,3,18,-21,5,12,160,10,12
18,33,7,-43,3,17,-21,5,11,159,10,12
18,32,6,-42,4,17,-21,5,11,159,9,12
18,31,6,-42,4,16,-21,5,10,159,9,11
18,30,5,-41,5,15,-21,5,9,159,8,10
18,29,5,-40,5,14,-21,5,9,159,7,9
18,29,5,-40,5,14,-21,5,9,159,7,9
18,29,5,-40,5,14,-21,5,8,159,7,9
18,29,5,-40,5,14,-21,5,8,159,7,9
18,29,5,-40,5,14,-21,5,8,159,7,9
18,29,5,-40,5,14,-21,5,8,159,7,9
19,28,4,-40,6,13,-22,5,9,157,5,7
20,28,3,-41,6,13,-23,4,9,156,2,4
20,28,3,-41,7,12,-24,3,9,155,2,3
20,28,3,-41,7,12,-24,3,9,155,1,3
20,28,3,-41,7,13,-24,3,9,154,1,3
21,27,2,-41,7,12,-26,3,8,153,0,2
21,26,1,-40,8,10,-26,2,7,152,-0,2
20,25,1,-39,8,10,-25,3,7,152,-0,2
19,26,2,-39,7,12,-24,3,6,152,-0,2
18,26,3,-38,6,12,-24,3,6,151,0,2
16,26,4,-36,4,13,-24,3,6,150,-0,1
15,26,5,-35,3,14,-25,1,6,149,-1,1
15,26,5,-34,3,13,-25,1,6,149,-1,0
15,24,4,-33,4,12,-24,1,6,149,-1,0
16,25,4,-34,4,12,-25,1,6,149,-1,0
17,24,3,-35,6,11,-26,1,5,148,-2,0
18,23,1,-35,7,10,-26,0,5,148,-3,-1
19,24,1,-36,7,10,-27,-1,4,148,-4,-2
21,24,0,-39,9,9,-27,-2,2,147,-5,-4
22,23,-1,-39,10,8,-29,-3,2,147,-6,-6
20,21,-1,-34,9,7,-29,-3,2,148,-6,-6
17,20,0,-31,7,8,-28,-3,2,149,-6,-5
17,19,-0,-30,7,7,-26,-2,2,150,-5,-4
16,18,-0,-29,7,7,-24,-2,2,148,-5,-3
16,17,-1,-28,7,6,-26,-2,2,146,-6,-4
16,17,-1,-28,7,6,-27,-3,1,145,-6,-5
16,16,-2,-28,8,5,-26,-3,0,144,-7,-5
17,17,-2,-29,8,5,-25,-3,0,144,-6,-5
20,19,-2,-34,10,6,-24,-3,0,144,-5,-4
22,21,-3,-36,10,6,-24,-3,0,145,-5,-4
20,21,-1,-35,9,8,-24,-3,0,146,-5,-4
19,21,-1,-35,9,8,-26,-3,1,146,-5,-4
20,21,-2,-35,9,7,-27,-3,1,146,-5,-4
18,20,-1,-32,8,7,-26,-2,2,146,-4,-3
16,22,2,-32,6,9,-24,-0,3,145,-3,-2
18,24,2,-35,6,11,-24,-0,3,144,-3,-2
18,24,2,-35,6,10,-26,-1,2,144,-3,-2
17,22,2,-33,6,10,-28,-1,2,144,-4,-3
17,22,1,-32,6,9,-29,-1,2,144,-4,-3
16,21,1,-32,6,9,-30,-1,2,144,-4,-2
16,21,1,-31,6,9,-29,-0,2,145,-3,-2
16,21,2,-31,5,9,-29,0,2,145,-3,-2
15,23,3,-32,4,11,-30,0,2,144,-3,-2
14,23,5,-31,3,12,-30,0,3,144,-3,-3
13,23,5,-30,2,13,-29,0,3,144,-3,-2
13,23,5,-30,2,13,-28,0,3,144,-3,-2
13,23,5,-30,2,12,-28,-0,3,143,-4,-2
13,24,5,-31,3,12,-28,-1,3,142,-4,-2
14,25,5,-33,3,13,-27,-2,3,141,-4,-2
16,27,5,-36,4,14,-27,-2,3,141,-3,-1
18,30,5,-41,4,15,-27,-3,4,141,-2,-1
18,32,6,-43,4,16,-27,-4,3,140,-2,-1
17,30,6,-40,3,16,-27,-4,3,139,-3,-1
16,27,6,-36,3,14,-29,-5,2,138,-3,-2
16,26,5,-35,4,13,-29,-5,1,138,-3,-2
17,27,4,-37,5,13,-29,-4,0,138,-3,-1
18,29,5,-39,5,14,-28,-4,0,137,-3,-1
18,29,5,-40,4,15,-28,-4,0,137,-3,-1
17,29,6,-40,4,15,-29,-5,-0,136,-4,-1
17,29,5,-39,4,14,-29,-5,-0,134,-4,-2
16,28,5,-37,4,14,-29,-5,0,134,-4,-2
15,27,6,-35,3,14,-29,-5,0,133,-4,-2
14,26,6,-33,2,14,-30,-6,1,134,-4,-2
12,25,6,-30,1,14,-30,-6,1,136,-4,-2
12,26,7,-32,1,15,-29,-5,2,137,-4,-1
14,29,7,-36,2,16,-28,-4,2,137,-4,-1
15,30,8,-38,2,17,-28,-4,2,137,-4,-1
16,32,8,-40,2,17,-28,-5,2,136,-4,-2
16,32,8,-40,2,17,-29,-6,1,136,-5,-3
16,32,7,-40,3,17,-29,-6,1,136,-6,-3
16,30,7,-39,3,16,-28,-6,1,136,-5,-3
18,31,6,-41,4,16,-28,-6,1,136,-5,-3
20,32,6,-44,5,16,-28,-6,0,135,-5,-3
20,31,5,-44,6,15,-28,-7,0,134,-5,-3
22,32,4,-45,7,15,-28,-7,0,133,-6,-3
22,32,4,-45,7,15,-29,-7,0,133,-6,-2
21,29,3,-43,7,13,-29,-6,0,133,-6,-2
20,28,3,-41,6,13,-30,-6,-0,132,-6,-1
18,29,5,-41,5,14,-30,-6,-0,132,-6,0
16,30,7,-39,3,16,-29,-7,-1,132,-6,1
15,29,7,-36,2,16,-30,-7,-1,131,-6,1
15,27,6,-35,3,14,-31,-8,-1,131,-7,1
15,26,5,-34,3,13,-31,-9,-1,131,-7,0
13,26,7,-32,1,14,-31,-9,-1,131,-7,0
14,27,6,-34,2,15,-30,-8,-1,130,-7,-1
16,29,6,-38,3,15,-29,-7,-0,130,-7,-2
16,29,6,-38,4,15,-29,-7,-0,129,-7,-4
16,27,5,-37,4,14,-29,-7,-1,128,-7,-5
18,28,4,-40,5,14,-28,-6,-1,127,-7,-6
21,31,4,-44,7,14,-28,-5,-1,127,-7,-6
21,32,4,-45,6,15,-28,-4,-1,127,-7,-5
19,31,5,-43,5,15,-28,-4,-1,127,-8,-5
18,30,6,-41,4,15,-28,-4,-1,127,-8,-5
14,29,7,-36,2,16,-28,-4,-1,127,-8,-5
11,27,9,-32,-1,16,-28,-3,-1,128,-8,-5
10,26,8,-30,-1,15,-28,-3,-1,128,-9,-6
11,25,7,-30,1,14,-28,-5,-2,126,-10,-8
12,25,6,-31,1,14,-28,-6,-3,125,-11,-9
12,23,6,-30,2,13,-28,-6,-4,124,-12,-9
12,22,5,-28,2,12,-28,-7,-5,123,-13,-8
11,22,5,-27,1,12,-28,-9,-6,121,-15,-9
10,21,6,-26,1,12,-29,-10,-6,120,-15,-9
9,20,6,-25,0,12,-29,-11,-6,119,-15,-9
9,21,6,-24,-0,12,-29,-11,-5,119,-14,-9
9,21,6,-25,1,12,-29,-11,-5,119,-14,-10
11,20,5,-26,2,11,-29,-11,-5,119,-14,-12
9,17,4,-22,2,9,-28,-11,-5,119,-14,-13
8,14,3,-19,1,8,-28,-10,-6,119,-14,-14
8,14,3,-19,1,8,-28,-10,-6,119,-15,-14
10,15,2,-22,3,7,-28,-10,-6,120,-15,-14
12,15,1,-23,5,6,-28,-10,-5,120,-14,-14
12,16,1,-24,4,7,-29,-9,-6,120,-14,-13
13,18,2,-26,4,8,-29,-10,-6,119,-14,-12
13,17,2,-26,4,8,-30,-11,-5,118,-14,-11
12,17,2,-25,4,8,-31,-11,-5,117,-14,-10
14,18,2,-27,5,8,-31,-11,-5,117,-14,-10
16,22,2,-32,6,10,-31,-9,-5,118,-14,-9
19,25,1,-37,7,10,-31,-6,-6,119,-15,-9
19,25,1,-37,7,10,-31,-6,-6,119,-15,-9
19,25,1,-37,7,10,-31,-6,-6,119,-15,-9
19,25,1,-37,7,10,-31,-6,-6,119,-15,-9
19,25,1,-37,7,10,-31,-6,-6,119,-15,-9
19,25,1,-37,7,10,-31,-6,-6,119,-15,-9
19,25,1,-37,7,10,-31,-6,-6,119,-15,-9
19,25,1,-37,7,10,-31,-6,-6,119,-15,-9
-202,136,221,80,-215,196,107,44,113,235,115,132
-157,112,176,57,-170,158,79,33,89,210,89,104
-70,51,79,24,-75,71,13,8,32,154,29,37
7,21,8,-23,-2,14,-29,-5,-3,121,-9,-2
9,26,9,-29,-1,16,-29,-5,-3,120,-9,-2
9,28,10,-30,-2,17,-29,-4,-3,120,-9,-2
16,25,4,-34,4,12,-31,-4,-3,119,-9,-2
22,16,-6,-33,12,3,-36,-8,-6,115,-11,-2
20,18,-3,-33,10,5,-36,-8,-8,112,-12,-3
25,16,-7,-35,15,1,-36,-5,-9,109,-16,-4
25,3,-15,-25,19,-8,-41,0,-11,106,-19,-5
25,-3,-19,-20,22,-13,-42,0,-17,100,-24,-9
25,-12,-24,-13,25,-21,-45,-2,-22,93,-29,-13
28,-15,-28,-14,29,-24,-45,-4,-29,87,-33,-11
31,-20,-33,-13,33,-29,-50,-7,-36,82,-35,-13
36,-26,-41,-13,40,-37,-54,-8,-45,72,-41,-16
43,-32,-48,-14,47,-44,-57,-13,-56,62,-49,-16
47,-38,-55,-14,53,-51,-63,-16,-65,55,-51,-13
48,-52,-64,-3,58,-62,-74,-26,-83,42,-59,-15
49,-61,-70,3,62,-70,-89,-41,-102,24,-67,-16
57,-71,-82,3,72,-81,-97,-50,-116,13,-73,-20
61,-79,-89,7,78,-89,-103,-55,-128,1,-79,-21
64,-84,-94,8,82,-94,-110,-55,-138,-7,-86,-21
72,-93,-105,8,92,-104,-108,-52,-147,-15,-89,-20
74,-100,-110,12,96,-111,-114,-52,-157,-24,-95,-22
77,-107,-117,14,102,-117,-117,-60,-169,-34,-102,-20
83,-114,-125,15,109,-126,-124,-71,-181,-41,-109,-25
83,-122,-130,21,112,-132,-124,-88,-195,-56,-124,-31
100,-130,-146,11,129,-146,-133,-93,-209,-67,-135,-42
104,-146,-159,20,138,-160,-143,-107,-223,-76,-145,-54
107,-165,-172,32,147,-176,-154,-119,-237,-87,-159,-68
115,-179,-186,36,159,-191,-163,-127,-247,-99,-174,-82
119,-197,-200,47,168,-207,-167,-141,-258,-113,-189,-99
120,-212,-209,58,174,-219,-176,-171,-273,-126,-204,-114
124,-232,-224,70,185,-236,-196,-210,-291,-142,-222,-133
131,-248,-238,77,196,-252,-214,-238,-308,-156,-241,-148
135,-258,-247,80,203,-261,-228,-266,-321,-166,-254,-162
139,-262,-252,80,207,-266,-240,-290,-327,-173,-262,-170
133,-263,-249,86,203,-264,-254,-318,-334,-178,-268,-178
130,-263,-246,90,200,-263,-272,-335,-332,-178,-272,-186
134,-255,-244,79,201,-258,-281,-342,-324,-175,-272,-190
151,-255,-256,64,215,-265,-295,-346,-320,-173,-277,-201
151,-255,-256,63,215,-266,-297,-356,-313,-169,-277,-206
151,-246,-251,56,212,-259,-301,-354,-305,-163,-274,-202
148,-250,-251,63,211,-261,-305,-353,-298,-159,-274,-209
144,-250,-249,66,208,-259,-297,-341,-289,-153,-270,-207
141,-258,-251,75,207,-263,-291,-337,-281,-149,-269,-210
139,-253,-247,74,204,-259,-278,-328,-270,-141,-266,-212
137,-251,-244,74,202,-257,-269,-318,-258,-136,-262,-217
130,-247,-237,77,195,-250,-259,-293,-243,-125,-255,-219
130,-238,-231,69,191,-243,-245,-275,-232,-116,-247,-216
122,-222,-216,64,179,-227,-233,-256,-218,-104,-236,-202
116,-218,-210,66,173,-221,-224,-247,-212,-100,-233,-210
121,-203,-204,50,172,-212,-212,-239,-203,-91,-225,-201
122,-197,-202,44,171,-208,-207,-227,-192,-84,-215,-193
114,-192,-193,47,163,-201,-199,-222,-188,-81,-215,-196
106,-189,-186,52,155,-194,-188,-218,-180,-75,-213,-193
104,-173,-175,42,148,-181,-180,-215,-173,-69,-207,-193
91,-170,-164,52,135,-173,-168,-208,-162,-57,-195,-185
80,-160,-151,54,123,-161,-153,-194,-150,-47,-186,-177
69,-149,-136,55,110,-147,-144,-182,-140,-39,-176,-176
61,-137,-124,53,99,-134,-133,-171,-130,-29,-167,-168
55,-127,-113,51,90,-123,-125,-160,-121,-20,-156,-161
50,-114,-102,45,82,-111,-115,-146,-110,-12,-144,-148
50,-99,-93,33,76,-99,-107,-137,-100,-2,-135,-141
45,-86,-83,27,68,-88,-101,-125,-92,5,-128,-134
43,-76,-75,21,62,-78,-93,-111,-82,18,-117,-124
36,-64,-63,18,53,-66,-83,-95,-72,28,-107,-114
29,-58,-55,20,45,-58,-73,-83,-63,35,-96,-108
24,-56,-49,23,40,-54,-73,-78,-56,39,-94,-106
19,-55,-46,26,35,-51,-65,-69,-49,46,-87,-100
7,-42,-30,27,21,-36,-57,-60,-41,54,-79,-87
0,-40,-24,32,14,-31,-46,-53,-36,60,-71,-79
-2,-25,-14,22,8,-19,-38,-46,-28,68,-62,-69
6,3,-2,-7,3,0,-24,-31,-15,82,-46,-50
2,14,7,-13,-3,10,-15,-20,-6,93,-35,-38
-3,21,15,-14,-10,18,-10,-17,-3,97,-29,-30
-13,21,21,-5,-18,22,-9,-10,2,102,-22,-26
-11,27,24,-11,-19,26,-9,-7,5,103,-18,-20
-10,33,27,-16,-20,30,-8,-3,9,107,-13,-14
-11,36,29,-18,-21,33,-8,-2,12,111,-9,-8
-13,37,31,-17,-24,34,-8,-2,13,113,-7,-4
-13,38,32,-18,-24,35,-8,-3,12,114,-6,-2
-11,40,31,-22,-23,36,-9,-3,13,115,-6,-1
-9,42,32,-25,-23,37,-8,-2,14,116,-6,0
-10,44,33,-26,-23,38,-8,-1,15,117,-5,1
-10,44,33,-26,-24,39,-7,-0,16,117,-5,1
-11,43,34,-24,-25,39,-7,0,16,117,-4,1
-13,43,34,-22,-25,39,-7,0,17,117,-3,0
-13,44,35,-22,-26,40,-7,1,17,117,-3,0
-14,45,36,-23,-27,41,-7,1,17,116,-2,1
-16,45,38,-21,-29,42,-7,1,17,116,-1,2
-17,46,39,-21,-30,44,-6,2,18,118,-1,3
-16,49,40,-23,-31,45,-4,3,19,118,0,4
-14,51,40,-27,-30,46,-4,3,19,116,1,4
-14,52,40,-29,-30,47,-4,3,20,113,1,5
-13,53,41,-30,-30,48,-4,3,19,110,1,5
-14,53,42,-29,-31,48,-4,2,19,108,1,4
-15,50,41,-26,-31,46,-6,1,18,107,0,4
-15,47,39,-23,-29,43,-8,1,17,108,-0,3
-15,43,36,-20,-28,40,-9,0,17,110,0,3
-15,39,34,-17,-26,37,-10,0,16,111,0,4
-15,39,34,-17,-26,37,-12,-0,16,111,1,3
-15,41,35,-19,-27,39,-13,-1,16,111,2,4
-15,44,37,-21,-28,41,-13,0,16,112,4,7
-14,49,39,-26,-29,44,-13,0,17,112,5,9
-12,52,40,-30,-28,46,-14,1,17,112,7,10
-12,54,40,-32,-29,47,-15,1,17,111,7,11
-14,54,42,-30,-31,48,-15,1,17,110,7,12
-19,53,44,-24,-34,49,-15,3,17,110,8,13
-21,52,46,-22,-36,50,-15,3,17,110,9,13
-21,53,46,-23,-36,50,-16,2,17,110,9,13
-19,54,45,-25,-35,51,-17,2,17,110,9,13
-17,55,45,-28,-34,51,-19,2,17,110,9,12
-16,57,45,-30,-33,51,-19,3,17,112,10,13
-14,58,44,-32,-32,51,-19,3,18,114,11,14
-12,60,44,-36,-31,52,-18,5,19,115,12,15
-11,63,45,-41,-31,54,-17,6,20,117,13,17
-10,64,45,-42,-31,54,-17,7,21,118,15,18
-13,64,47,-40,-33,56,-16,7,22,118,16,19
-17,64,50,-35,-37,57,-16,7,22,116,16,19
-22,63,53,-30,-40,59,-16,7,22,113,17,19
-25,63,55,-26,-43,60,-16,6,22,112,17,19
-26,63,55,-26,-44,60,-15,7,23,112,18,20
-25,63,55,-27,-43,60,-14,8,24,113,19,22
-24,63,54,-28,-42,60,-13,9,25,115,20,22
-23,64,54,-30,-41,60,-13,10,26,117,20,23
-22,66,54,-32,-41,61,-12,9,27,118,21,25
-21,69,55,-35,-41,63,-11,8,27,119,22,25
-22,70,57,-36,-43,64,-12,7,27,120,22,25
-23,70,58,-35,-44,65,-13,7,27,120,23,25
-24,70,59,-33,-45,65,-12,7,28,121,24,26
-26,72,61,-33,-47,68,-10,8,29,122,25,28
-27,75,64,-34,-49,71,-8,9,30,124,27,29
-27,77,65,-36,-50,72,-9,11,31,124,28,30
-26,77,64,-37,-49,72,-10,12,31,125,28,30
-24,78,63,-39,-48,72,-12,13,32,126,28,30
-24,77,62,-39,-47,70,-14,14,32,128,29,31
-24,77,62,-38,-47,70,-14,16,33,130,30,32
-26,80,65,-40,-50,74,-14,17,34,132,31,34
-25,84,67,-43,-50,76,-15,17,34,134,31,34
-25,85,68,-44,-51,77,-15,17,34,135,32,35
-26,86,70,-44,-52,79,-14,18,35,134,34,36
-25,89,70,-48,-52,80,-13,19,35,133,35,37
-24,90,70,-49,-51,80,-10,20,36,134,37,39
-25,91,71,-50,-53,82,-8,21,36,134,38,41
-25,93,73,-51,-53,84,-7,21,37,131,39,42
-24,94,72,-52,-53,84,-8,19,37,130,39,42
-24,93,72,-52,-53,83,-8,17,38,130,39,42
-24,93,72,-52,-53,83,-9,17,38,130,41,44
-25,95,73,-52,-54,85,-8,17,40,131,43,47
-26,97,75,-53,-55,87,-7,18,41,132,45,49
-26,99,77,-54,-57,89,-6,19,42,132,46,49
-27,100,78,-55,-57,90,-6,19,42,132,47,50
-27,101,79,-56,-58,91,-6,20,44,133,49,52
-27,103,80,-57,-59,92,-6,21,45,135,51,54
-28,105,83,-57,-61,95,-6,22,46,138,52,55
-29,107,84,-58,-62,96,-5,23,47,141,54,57
-28,108,83,-60,-61,96,-5,23,48,142,56,60
-25,111,84,-65,-60,98,-6,23,49,143,57,62
-24,112,83,-67,-59,98,-8,23,50,143,59,63
-24,111,83,-66,-59,97,-8,23,51,144,60,65
-25,113,85,-66,-61,99,-7,24,52,145,62,67
-27,116,88,-68,-63,102,-5,26,53,147,64,69
-29,117,90,-67,-65,104,-2,29,56,149,67,72
-31,120,93,-67,-68,107,2,32,58,151,70,76
-31,125,95,-71,-69,111,3,33,60,153,71,78
-31,127,97,-73,-71,113,4,35,61,154,73,81
-32,127,98,-72,-72,113,4,36,63,155,75,82
-31,129,98,-73,-71,114,3,36,63,155,76,83
-30,131,99,-76,-71,115,3,36,64,155,77,85
-31,132,100,-76,-73,117,4,36,65,156,78,86
-33,132,101,-74,-74,117,5,36,67,157,79,87
-33,133,102,-75,-74,118,5,37,68,159,81,89
-33,134,103,-77,-74,119,6,37,68,160,82,90
-32,136,103,-78,-75,120,7,39,69,162,83,92
-31,139,104,-82,-75,122,7,40,71,164,85,94
-30,142,105,-85,-75,124,8,41,73,165,86,96
-31,144,108,-86,-77,126,7,42,73,165,88,98
-32,148,110,-88,-79,129,7,43,75,167,90,100
-32,148,111,-89,-79,130,9,45,76,169,93,102
-33,146,110,-85,-79,128,9,46,76,170,95,102
-33,146,110,-85,-79,128,8,47,76,170,95,102
-31,147,109,-88,-78,128,6,48,76,169,95,102
-29,146,107,-90,-76,127,4,50,76,169,95,102
-27,147,106,-92,-74,126,2,52,76,169,95,102
-26,148,106,-94,-74,126,-1,54,77,170,95,104
-25,147,105,-94,-73,125,-2,57,79,170,96,106
-26,147,106,-93,-74,126,-5,58,80,171,96,107
-26,147,105,-93,-73,126,-7,60,81,171,96,107
-25,146,104,-93,-72,124,-7,62,82,171,97,108
-24,145,103,-93,-71,123,-7,63,82,170,96,107
-23,143,101,-93,-70,122,-7,64,82,169,95,106
-22,140,99,-91,-68,119,-7,65,82,169,95,106
-22,137,96,-89,-66,116,-8,68,82,169,95,107
-20,136,94,-90,-64,114,-9,70,81,168,95,108
-17,135,92,-92,-62,112,-10,71,80,168,95,108
-16,134,90,-92,-60,111,-11,72,79,167,94,108
-15,133,90,-92,-60,110,-12,72,78,166,93,106
-12,130,86,-93,-56,107,-12,73,78,165,92,104
-9,128,83,-94,-53,104,-13,74,77,164,91,104
-9,125,80,-92,-51,101,-13,75,77,163,89,102
-9,121,78,-88,-50,98,-13,75,75,161,87,100
-8,118,76,-86,-49,95,-14,75,73,159,86,98
-7,116,74,-86,-47,93,-14,76,72,157,84,97
-7,114,72,-84,-46,91,-14,76,71,155,82,95
-6,111,70,-82,-44,89,-15,76,69,153,80,92
-5,106,67,-80,-42,85,-15,76,68,152,77,91
-5,103,65,-78,-40,82,-16,76,67,150,75,89
-2,101,62,-79,-38,80,-17,75,65,149,72,87
0,100,59,-79,-35,77,-18,74,63,147,69,85
1,97,58,-78,-34,75,-19,73,61,145,67,82
1,94,55,-76,-32,72,-20,72,60,143,65,79
3,91,53,-75,-30,70,-20,71,58,141,63,78
4,90,51,-76,-28,68,-20,70,56,139,61,75
6,88,48,-75,-26,65,-21,69,54,137,59,72
9,85,45,-76,-23,62,-23,69,52,135,58,70
11,83,42,-76,-21,60,-24,69,51,133,57,68
11,80,40,-74,-19,57,-25,68,49,131,56,66
11,76,38,-71,-18,54,-25,67,49,129,55,63
12,74,36,-70,-16,52,-26,65,48,127,53,61
11,72,35,-68,-16,51,-27,62,46,125,50,59
11,68,33,-65,-15,48,-28,60,45,123,48,55
12,65,31,-63,-13,45,-29,58,43,121,46,53
11,62,30,-60,-13,43,-29,56,41,118,44,51
10,60,29,-56,-13,42,-30,53,38,116,41,48
11,58,27,-57,-11,40,-32,51,36,114,39,44
14,57,24,-58,-9,38,-34,48,35,113,37,41
14,56,23,-57,-8,37,-35,46,33,111,35,38
14,56,24,-58,-9,38,-36,44,33,111,35,37
13,56,24,-57,-9,37,-36,44,33,111,36,37
13,55,23,-55,-9,36,-34,45,33,111,37,38
13,54,23,-55,-9,36,-33,45,33,111,37,39
13,54,23,-55,-9,36,-33,46,32,110,38,39
13,54,23,-55,-9,36,-33,46,32,110,38,39
13,54,23,-55,-9,36,-33,46,32,110,38,39
13,54,23,-55,-9,36,-33,46,32,110,38,39
13,54,23,-55,-9,36,-33,46,32,110,38,39
12,49,21,-51,-7,33,-32,41,29,105,32,34
11,43,18,-45,-6,29,-32,34,24,99,24,28
11,41,17,-43,-5,27,-32,32,23,97,21,26
11,41,17,-43,-5,27,-32,31,22,96,21,26
11,40,17,-42,-5,26,-32,31,22,96,20,25
10,39,17,-41,-6,26,-32,30,22,96,20,24
9,38,16,-39,-6,26,-32,29,22,96,20,23
8,37,16,-37,-6,25,-32,28,22,96,20,22
8,37,16,-36,-6,25,-31,27,22,96,20,22
8,36,16,-36,-7,25,-30,27,22,95,19,21
7,36,16,-35,-7,25,-29,26,22,94,18,21
7,36,16,-35,-7,25,-28,26,22,94,18,21
7,36,16,-35,-7,25,-27,26,21,93,17,21
6,35,16,-33,-7,24,-27,26,21,92,17,20
6,34,16,-32,-7,24,-27,26,20,92,17,19
5,33,16,-30,-8,23,-27,26,20,91,17,18
4,32,17,-29,-8,23,-26,26,19,90,16,17
3,32,17,-28,-9,24,-25,26,19,90,16,17
2,32,18,-27,-10,24,-24,26,19,90,15,17
1,32,18,-26,-10,24,-23,26,19,90,14,17
1,32,19,-26,-11,25,-21,26,19,90,13,16
0,32,19,-26,-11,25,-20,25,19,89,12,15
0,32,19,-25,-11,25,-19,24,19,89,11,15
0,32,19,-25,-11,25,-18,23,19,88,11,13
0,32,19,-25,-11,25,-17,23,19,87,10,13
-1,32,20,-25,-12,25,-17,22,18,87,10,13
-1,32,20,-24,-12,25,-16,22,18,86,10,12
-2,32,21,-23,-13,26,-16,22,17,85,10,12
-3,32,21,-22,-14,26,-16,22,16,84,9,12
-4,31,21,-20,-14,26,-16,21,16,84,9,11
-5,30,21,-19,-15,25,-16,20,16,83,8,10
-6,29,21,-17,-15,25,-16,19,16,82,7,9
-7,28,21,-16,-15,24,-16,18,16,82,6,8
-7,27,21,-15,-15,24,-16,17,15,81,5,8
-7,26,20,-14,-15,23,-16,16,15,80,5,8
-7,25,19,-13,-14,22,-16,15,14,79,4,8
-7,24,19,-13,-14,22,-17,14,13,79,3,7
-7,24,19,-12,-14,21,-18,13,13,78,2,7
-7,23,19,-12,-14,21,-19,12,12,77,1,6
-7,23,19,-12,-14,21,-20,11,11,77,0,5
-7,23,19,-12,-14,21,-21,10,11,76,-1,4
-7,22,18,-11,-13,20,-21,10,10,75,-1,3
-7,21,18,-10,-13,20,-21,10,9,75,-2,2
-7,20,17,-9,-13,19,-21,10,8,74,-3,0
-7,20,17,-9,-13,19,-22,9,8,73,-4,-1
-8,19,17,-8,-13,19,-23,8,8,72,-5,-2
-9,19,18,-7,-14,19,-24,7,8,72,-6,-3
-10,19,18,-6,-15,19,-25,6,8,71,-7,-4
-11,19,18,-5,-15,19,-27,6,7,70,-7,-5
-11,17,18,-3,-15,18,-28,6,7,70,-7,-6
-12,15,18,-0,-15,17,-29,5,6,69,-7,-7
-13,13,17,2,-15,16,-30,5,6,68,-7,-8
-14,11,16,4,-15,15,-31,5,5,68,-8,-9
-14,11,16,4,-15,15,-31,4,4,68,-9,-11
-14,11,16,5,-15,15,-32,3,4,67,-9,-12
-14,11,16,5,-15,15,-32,2,3,67,-10,-13
-14,11,16,5,-15,15,-32,1,2,67,-11,-13
-14,11,16,5,-15,15,-32,0,2,67,-11,-14
-14,11,16,5,-15,15,-32,-1,1,66,-11,-14
-14,11,16,5,-15,15,-32,-2,0,65,-11,-14
-14,11,16,5,-15,15,-32,-3,-0,65,-11,-14
-14,11,16,5,-15,15,-32,-4,-0,65,-11,-14
-14,11,16,5,-15,15,-32,-5,-1,65,-11,-14
-14,11,16,5,-15,15,-32,-6,-1,65,-11,-14
-14,11,16,4,-15,15,-32,-7,-1,65,-11,-14
-13,11,16,4,-15,14,-32,-7,-1,65,-12,-14
-12,11,15,3,-14,14,-32,-7,-2,65,-13,-14
-11,11,14,2,-13,14,-32,-7,-3,65,-14,-14
-11,11,14,2,-13,13,-32,-7,-3,65,-14,-14
-11,11,14,2,-13,13,-32,-7,-3,65,-14,-15
-11,11,14,1,-12,13,-32,-7,-3,65,-14,-16
-11,11,14,1,-12,13,-32,-7,-3,65,-14,-17
-11,11,14,2,-13,13,-31,-7,-3,65,-14,-18
-12,11,15,2,-13,14,-30,-7,-3,65,-14,-18
-12,11,15,3,-14,14,-29,-7,-3,65,-14,-18
-13,11,16,4,-15,14,-28,-7,-3,65,-14,-18
-14,11,16,4,-15,15,-27,-7,-3,65,-14,-18
-14,11,16,5,-15,15,-27,-7,-3,65,-14,-17
-14,11,16,5,-15,15,-27,-7,-2,65,-14,-16
-14,11,16,5,-15,15,-27,-7,-1,65,-14,-15
-14,11,16,5,-15,15,-26,-7,-1,65,-14,-14
-14,11,16,5,-15,15,-25,-6,-1,65,-14,-14
-14,11,16,5,-15,15,-24,-5,-1,65,-14,-14
-14,11,16,5,-15,15,-23,-4,-1,65,-14,-14
-14,11,16,4,-15,15,-22,-3,-1,65,-14,-14
-13,11,16,4,-15,14,-22,-3,-1,65,-14,-14
-12,11,15,3,-14,14,-21,-3,-1,65,-14,-14
-11,11,14,2,-13,14,-21,-3,-1,65,-14,-14
-11,11,14,2,-13,13,-21,-3,-1,64,-14,-14
-11,11,14,2,-13,13,-21,-3,-1,64,-14,-15
-11,11,14,1,-12,13,-21,-3,-2,63,-14,-16
-11,11,14,1,-12,13,-21,-3,-3,62,-14,-17
-11,10,14,2,-12,13,-21,-3,-3,62,-14,-18
-11,10,13,2,-12,12,-21,-3,-3,62,-14,-18
-11,9,13,3,-12,11,-21,-3,-3,62,-14,-18
-11,8,12,4,-11,11,-21,-3,-3,62,-14,-18
-11,7,12,5,-11,10,-21,-3,-3,62,-14,-18
-12,7,12,6,-12,10,-20,-3,-3,62,-14,-17
-12,7,13,6,-12,11,-19,-3,-2,62,-14,-16
-13,7,13,7,-13,11,-18,-3,-1,62,-14,-15
-14,7,14,8,-14,11,-17,-3,-1,62,-14,-14
-14,7,14,8,-14,11,-17,-3,-1,62,-14,-14
-14,7,14,8,-14,11,-16,-3,-1,62,-14,-14
-14,7,14,8,-14,11,-16,-3,-1,62,-14,-14
-14,7,14,8,-14,11,-16,-3,-1,62,-14,-14
-14,7,14,8,-14,11,-16,-3,-1,62,-14,-14
-14,7,14,8,-14,11,-16,-3,-1,62,-14,-14
-14,7,14,8,-14,11,-16,-3,-1,62,-14,-14
-14,7,14,8,-14,12,-16,-3,-1,62,-14,-14
-14,8,15,7,-14,12,-15,-3,-1,62,-14,-14
-14,9,15,6,-15,13,-14,-3,-1,62,-14,-14
-14,10,16,6,-15,14,-13,-3,-1,62,-14,-14
-14,10,16,5,-15,14,-12,-3,-1,62,-14,-14
-14,11,16,5,-15,15,-11,-3,-1,62,-14,-15
-14,11,16,5,-15,15,-11,-3,-2,62,-14,-16
-14,11,16,5,-15,15,-11,-3,-3,62,-14,-17
-14,10,16,5,-15,14,-11,-3,-3,62,-14,-18
-14,10,16,6,-15,14,-11,-4,-3,62,-14,-18
-14,9,15,6,-15,13,-11,-5,-3,62,-14,-18
-14,8,14,7,-14,12,-11,-6,-3,62,-14,-18
-14,7,14,8,-14,12,-11,-7,-3,62,-14,-18
-14,7,14,8,-14,12,-10,-7,-3,62,-14,-18
-14,7,14,8,-14,11,-9,-7,-3,62,-14,-18
-14,7,14,8,-14,11,-7,-7,-3,62,-14,-18
-14,7,14,8,-14,11,-7,-7,-3,62,-14,-18
-14,7,14,8,-14,11,-6,-7,-3,62,-14,-18
-14,7,14,8,-14,11,-6,-7,-3,62,-14,-18
-14,7,14,8,-14,11,-6,-7,-3,62,-14,-18
-14,6,14,9,-14,11,-6,-7,-3,62,-15,-18
-15,4,13,11,-14,10,-5,-7,-3,62,-15,-18
-16,2,13,13,-14,9,-4,-7,-3,62,-16,-18
-17,0,12,16,-14,8,-2,-7,-3,62,-17,-18
-17,-1,12,17,-14,7,-2,-7,-3,62,-18,-18
-18,-1,11,18,-14,7,-1,-7,-3,62,-18,-18
-18,-2,11,18,-14,7,-1,-7,-3,62,-18,-18
-18,-2,11,18,-14,7,-1,-7,-3,62,-18,-18
-18,-2,11,18,-14,7,-1,-7,-3,62,-18,-18
-18,-2,11,18,-14,7,-1,-7,-3,62,-18,-18
-18,-2,11,19,-14,6,-3,-7,-4,61,-18,-20
-18,-3,10,20,-13,5,-5,-7,-6,59,-18,-22
-18,-4,10,20,-13,5,-6,-7,-6,59,-18,-22
-18,-4,10,20,-13,5,-6,-7,-6,59,-18,-23
-18,-4,10,20,-13,5,-6,-7,-6,59,-18,-23
-18,-5,9,21,-13,4,-6,-7,-6,59,-18,-23
-18,-6,9,21,-13,4,-7,-8,-6,59,-18,-23
-18,-6,9,22,-12,3,-8,-8,-7,59,-19,-23
-18,-6,9,22,-12,3,-9,-9,-8,59,-20,-23
-18,-6,9,22,-12,3,-10,-10,-8,59,-21,-23
-18,-6,9,22,-13,3,-11,-11,-9,59,-21,-23
-19,-7,9,24,-13,3,-11,-11,-9,59,-21,-23
-20,-8,9,25,-13,3,-11,-11,-9,59,-21,-23
-20,-9,9,27,-14,2,-11,-11,-9,59,-21,-23
-21,-10,9,28,-14,2,-11,-11,-9,59,-21,-23
-21,-10,9,28,-14,2,-11,-10,-8,59,-20,-23
-21,-10,9,28,-14,2,-11,-9,-8,59,-20,-23
-21,-10,9,28,-14,2,-11,-8,-7,59,-19,-23
-21,-10,9,28,-14,2,-11,-8,-6,59,-18,-23
-21,-9,10,27,-14,3,-11,-7,-6,59,-18,-23
-21,-8,10,27,-15,3,-11,-7,-6,59,-18,-23
-21,-7,11,26,-15,4,-11,-7,-6,59,-18,-23
-21,-6,11,25,-15,5,-11,-7,-6,59,-18,-22
-20,-6,11,24,-15,4,-11,-7,-6,59,-18,-21
-20,-6,10,23,-14,4,-11,-7,-6,59,-18,-20
-19,-6,10,22,-13,4,-11,-7,-6,59,-18,-19
-18,-6,9,22,-13,4,-11,-7,-6,59,-18,-19
-18,-6,9,22,-13,4,-11,-7,-6,59,-18,-19
-18,-6,9,22,-12,3,-11,-7,-6,59,-18,-18
-18,-6,9,22,-12,3,-11,-7,-6,59,-18,-18
-18,-6,9,22,-12,3,-11,-7,-6,59,-18,-18
-18,-6,9,22,-12,3,-11,-7,-6,59,-18,-18
-18,-6,9,22,-12,3,-11,-7,-6,59,-18,-18
-18,-6,9,22,-12,3,-11,-7,-6,59,-18,-18
-18,-6,9,22,-12,3,-11,-7,-6,59,-18,-18
-18,-6,9,22,-12,3,-11,-7,-6,59,-18,-18
-18,-6,9,22,-12,3,-11,-7,-6,59,-18,-18
-18,-6,9,22,-12,3,-11,-7,-6,59,-18,-18
-18,-6,9,22,-12,3,-11,-7,-6,59,-18,-18
-18,-7,8,23,-12,2,-11,-7,-6,59,-18,-18
-18,-8,8,23,-12,2,-11,-7,-6,59,-18,-18
-18,-9,7,24,-11,1,-11,-7,-6,59,-18,-18
-18,-10,7,25,-11,1,-11,-7,-6,59,-18,-18
-18,-10,7,25,-11,0,-10,-7,-6,60,-18,-18
-18,-10,6,25,-11,0,-9,-7,-6,60,-18,-18
-18,-10,6,25,-11,0,-7,-7,-6,61,-18,-18
-18,-10,7,25,-11,1,-7,-7,-6,61,-18,-18
-18,-9,7,24,-11,1,-6,-7,-6,62,-18,-18
-18,-8,8,23,-12,2,-6,-7,-6,62,-18,-18
-18,-7,8,22,-12,3,-6,-7,-6,62,-18,-18
-18,-6,9,22,-12,3,-6,-7,-6,62,-18,-18
-18,-6,9,22,-12,3,-6,-7,-6,62,-18,-18
-18,-6,9,22,-12,3,-6,-7,-6,62,-18,-18
-18,-6,9,22,-12,3,-6,-7,-6,62,-18,-18
-18,-6,9,22,-12,3,-6,-7,-6,62,-18,-18
-18,-7,8,23,-12,2,-6,-7,-6,62,-18,-18
-18,-8,8,23,-12,2,-6,-7,-6,62,-18,-18
-18,-9,7,24,-11,1,-6,-7,-6,62,-18,-18
-18,-10,7,25,-11,1,-6,-7,-6,62,-18,-18
-18,-10,7,25,-11,0,-6,-7,-6,62,-18,-18
-18,-10,6,25,-11,0,-6,-7,-6,62,-18,-18
-18,-10,6,25,-11,0,-6,-7,-6,62,-18,-18
-18,-10,7,25,-11,1,-6,-7,-6,62,-18,-18
-18,-9,7,24,-11,1,-5,-6,-5,62,-17,-18
-18,-8,8,23,-12,2,-4,-5,-5,62,-16,-18
-18,-7,8,22,-12,3,-2,-4,-4,62,-15,-18
-18,-6,9,22,-12,3,-1,-3,-4,62,-15,-18
-18,-6,9,22,-12,3,0,-3,-4,62,-15,-18
-18,-6,9,22,-12,3,2,-3,-3,62,-14,-18
-18,-6,9,22,-12,3,3,-3,-3,62,-14,-18
-18,-6,9,22,-13,4,4,-3,-4,62,-15,-18
-19,-6,10,23,-13,4,4,-3,-4,62,-15,-18
-20,-6,10,23,-14,4,4,-3,-5,62,-16,-18
-20,-6,11,24,-15,5,4,-3,-5,62,-17,-18
-21,-6,11,25,-15,5,4,-3,-6,62,-18,-18
-22,-7,11,27,-16,5,5,-3,-6,62,-18,-18
-23,-8,11,28,-16,4,6,-3,-6,62,-18,-18
-24,-9,11,30,-17,4,8,-3,-6,62,-18,-18
-25,-10,11,31,-17,4,9,-3,-6,62,-18,-18
-25,-10,11,31,-17,4,10,-2,-5,62,-18,-18
-25,-10,11,32,-17,3,11,-1,-5,62,-18,-18
-25,-10,11,32,-17,3,13,0,-4,62,-18,-18
-24,-10,11,31,-16,3,14,1,-4,62,-18,-19
-23,-10,10,30,-15,3,14,1,-4,62,-18,-20
-21,-10,9,28,-14,2,14,1,-3,62,-18,-20
-20,-10,8,27,-12,1,14,1,-3,62,-18,-22
-18,-10,7,25,-11,0,14,1,-4,61,-18,-22
-18,-10,7,25,-11,0,13,0,-4,61,-18,-22
-18,-10,6,25,-11,0,11,-1,-5,60,-18,-23
-18,-10,6,25,-11,0,10,-2,-5,60,-18,-23
-18,-10,7,25,-11,0,9,-3,-6,59,-18,-23
-19,-10,7,26,-12,1,9,-3,-6,59,-18,-23
-20,-10,8,27,-12,1,9,-3,-6,59,-18,-23
-20,-10,8,27,-13,1,9,-3,-6,59,-18,-23
-21,-10,9,28,-14,2,8,-3,-6,59,-18,-23
-21,-10,9,28,-14,2,7,-4,-6,59,-18,-23
-21,-10,9,28,-14,2,6,-5,-6,59,-18,-23
-21,-10,9,28,-14,2,5,-6,-6,59,-18,-23
-21,-10,9,28,-14,2,4,-7,-6,59,-18,-23
-21,-10,9,28,-14,2,3,-7,-6,59,-18,-23
-21,-10,9,28,-14,2,2,-7,-6,59,-18,-23
-21,-10,9,28,-14,2,0,-7,-6,59,-18,-23
-21,-10,9,28,-14,2,-1,-8,-6,59,-18,-23
-21,-10,9,28,-14,2,-2,-8,-6,58,-18,-23
-21,-10,9,28,-14,2,-4,-9,-6,57,-18,-23
-21,-10,9,28,-14,2,-5,-10,-6,57,-18,-23
-22,-11,9,29,-14,2,-6,-11,-6,56,-18,-23
-22,-11,9,30,-14,1,-6,-11,-7,56,-18,-23
-23,-12,9,32,-15,1,-6,-11,-8,56,-18,-23
-24,-13,9,33,-15,1,-6,-11,-8,56,-18,-23
-25,-14,9,35,-15,0,-6,-11,-9,56,-18,-23
-26,-15,9,37,-16,-0,-6,-11,-9,56,-18,-23
-27,-16,9,39,-16,-0,-6,-11,-9,56,-18,-23
-28,-18,9,40,-17,-1,-6,-11,-9,56,-18,-23
-28,-18,9,41,-17,-1,-6,-11,-9,56,-18,-23
-28,-18,9,42,-17,-1,-6,-11,-9,56,-18,-23
-29,-19,9,42,-17,-1,-6,-11,-9,56,-18,-23
-29,-19,9,42,-17,-1,-6,-12,-9,56,-18,-23
-29,-19,9,42,-17,-1,-6,-12,-9,56,-18,-23
-29,-19,9,42,-17,-1,-6,-12,-9,56,-18,-23
-29,-19,9,42,-17,-1,-6,-12,-9,56,-18,-23
-29,-19,9,42,-17,-1,-6,-12,-9,56,-18,-23
-29,-19,9,42,-17,-1,-6,-12,-9,56,-18,-23
-29,-19,9,42,-17,-1,-6,-12,-9,56,-18,-23
-228,104,220,130,-225,184,142,48,109,170,107,118
-185,83,177,106,-182,148,116,39,86,147,86,87
-90,15,72,73,-80,53,45,14,30,90,20,21
-22,-15,6,32,-13,-1,4,-3,-4,62,-15,-23
-29,-19,9,42,-17,-1,4,5,-4,62,-15,-23
-36,-19,14,49,-23,2,9,10,-1,62,-15,-23
-29,-15,11,39,-19,2,14,14,5,65,-15,-23
-25,-15,9,35,-16,0,19,26,11,65,-15,-23
-22,-15,6,32,-13,-1,29,43,16,70,-11,-23
-14,-15,1,25,-7,-5,29,60,22,73,-11,-23
-11,-15,-1,22,-4,-6,29,69,25,73,-8,-23
0,-19,-11,15,7,-15,24,77,25,76,-4,-14
15,-19,-21,2,19,-21,9,52,16,76,6,-5
33,-10,-29,-22,31,-23,-22,10,5,76,17,21
55,-10,-44,-42,49,-33,-63,-67,-26,70,24,39
80,-10,-61,-66,70,-44,-93,-126,-54,65,38,70
105,7,-69,-103,85,-42,-134,-181,-77,62,55,105
127,15,-79,-130,100,-46,-170,-224,-99,56,62,127
145,23,-87,-154,112,-47,-200,-253,-116,56,76,153
163,32,-94,-177,124,-49,-226,-266,-124,59,90,180
170,40,-94,-191,127,-46,-256,-300,-133,59,107,215
178,49,-94,-204,130,-42,-282,-338,-147,53,100,215
181,49,-97,-208,133,-44,-307,-351,-155,39,86,215
192,49,-104,-218,142,-49,-328,-359,-158,27,76,211
207,32,-124,-218,160,-69,-328,-338,-158,13,51,189
192,32,-114,-204,148,-62,-307,-313,-150,8,31,162
156,49,-79,-184,112,-33,-272,-291,-138,5,17,140
123,40,-61,-147,88,-24,-256,-279,-130,2,6,118
98,23,-54,-110,73,-26,-231,-257,-124,-4,-11,92
84,23,-44,-96,61,-20,-200,-228,-119,-10,-25,65
73,19,-39,-83,53,-18,-159,-190,-105,-10,-39,34
51,7,-31,-52,40,-18,-129,-147,-88,-1,-42,17
44,-15,-39,-29,41,-31,-103,-118,-77,5,-46,-1
36,-27,-41,-12,40,-38,-88,-96,-65,10,-46,-14
26,-27,-34,-2,31,-33,-68,-79,-57,16,-42,-19
7,-27,-21,15,16,-24,-52,-67,-48,22,-39,-23
-7,-27,-11,29,4,-18,-37,-58,-40,27,-39,-27
-11,-15,-1,22,-4,-6,-27,-46,-32,33,-35,-32
-18,-15,4,29,-10,-3,-11,-33,-23,42,-29,-32
-22,-23,1,39,-10,-8,-1,-24,-20,42,-29,-32
-29,-23,6,46,-16,-5,9,-20,-18,42,-29,-32
-29,-23,6,46,-16,-5,9,-20,-18,42,-29,-36
-29,-23,6,46,-16,-5,14,-16,-15,42,-32,-36
-29,-23,6,46,-16,-5,19,-16,-15,42,-32,-36
-29,-23,6,46,-16,-5,19,-16,-15,42,-32,-36
-32,-23,9,49,-19,-3,19,-16,-15,42,-32,-36
-32,-23,9,49,-19,-3,19,-12,-15,42,-32,-36
-32,-23,9,49,-19,-3,19,-12,-15,45,-29,-36
-32,-23,9,49,-19,-3,24,-12,-15,45,-29,-36
-32,-19,11,46,-20,0,24,-12,-15,45,-32,-41
-32,-19,11,46,-20,0,24,-7,-12,45,-32,-41
-32,-23,9,49,-19,-3,24,-7,-12,45,-32,-41
-32,-23,9,49,-19,-3,24,-7,-15,39,-32,-41
-36,-23,11,52,-22,-1,24,-7,-15,39,-32,-41
-40,-27,11,59,-23,-3,24,-7,-15,39,-32,-41
-40,-36,6,66,-20,-10,24,-12,-18,39,-35,-45
-40,-27,11,59,-23,-3,24,-12,-18,39,-35,-45
-36,-27,9,56,-20,-5,24,-12,-18,39,-35,-45
-36,-27,9,56,-20,-5,24,-12,-18,39,-35,-45
-40,-27,11,59,-23,-3,29,-12,-18,39,-35,-45
-40,-32,9,63,-22,-6,29,-7,-15,42,-35,-45
-40,-32,9,63,-22,-6,29,-7,-12,42,-35,-45
-40,-27,11,59,-23,-3,40,5,-9,45,-32,-41
-36,-19,14,49,-23,2,40,-3,-9,45,-32,-41
-36,-19,14,49,-23,2,40,-7,-9,47,-32,-41
-51,-23,21,66,-34,5,40,-7,-9,47,-32,-41
-43,-23,16,59,-28,2,40,-7,-9,47,-32,-41
-43,-23,16,59,-28,2,40,-7,-9,50,-29,-41
-40,-19,16,52,-26,3,40,-7,-9,50,-29,-41
-32,-19,11,46,-20,0,40,-7,-9,50,-32,-41
-32,-19,11,46,-20,0,40,-7,-9,50,-32,-45
-36,-19,14,49,-23,2,40,-7,-9,50,-32,-45
-36,-19,14,49,-23,2,40,-7,-9,50,-35,-45
-36,-19,14,49,-23,2,40,-7,-9,50,-35,-41
-36,-19,14,49,-23,2,45,-7,-9,50,-32,-41
-36,-19,14,49,-23,2,45,-7,-9,50,-32,-41
-32,-19,11,46,-20,0,45,-7,-12,50,-32,-41
-32,-19,11,46,-20,0,45,-7,-12,50,-32,-45
-43,-27,14,63,-26,-1,45,-7,-12,50,-35,-45
-43,-27,14,62,-26,-1,44,-7,-12,46,-35,-45
-43,-27,14,62,-26,-1,42,-7,-13,44,-35,-45
-43,-27,14,62,-26,-1,40,-7,-13,43,-35,-45
-43,-27,14,62,-26,-1,37,-7,-14,42,-35,-45
-43,-27,13,62,-25,-2,35,-8,-15,41,-36,-45
-42,-28,12,62,-25,-3,33,-8,-15,40,-36,-46
-41,-29,11,62,-24,-4,32,-9,-16,39,-37,-47
-40,-30,10,62,-23,-5,31,-10,-17,37,-38,-48
-40,-31,9,62,-22,-6,29,-11,-17,36,-39,-49
-40,-31,9,62,-22,-6,28,-11,-18,35,-40,-49
-39,-31,9,62,-21,-6,27,-11,-19,35,-41,-49
-39,-31,9,62,-21,-6,26,-11,-20,34,-41,-49
-39,-31,9,62,-21,-6,25,-11,-20,33,-42,-50
-39,-31,9,62,-21,-6,24,-11,-21,33,-42,-50
-39,-31,9,62,-21,-6,24,-11,-22,33,-42,-51
-39,-31,9,62,-21,-6,24,-11,-22,33,-42,-52
-39,-32,9,63,-21,-7,24,-11,-23,33,-43,-53
-39,-33,8,63,-21,-7,23,-11,-23,32,-43,-53
-39,-33,8,64,-21,-8,22,-11,-23,32,-44,-54
-39,-34,7,65,-20,-9,20,-11,-23,31,-45,-54
-39,-35,7,65,-20,-9,20,-11,-23,30,-45,-54
-39,-35,7,65,-20,-9,19,-11,-24,30,-46,-54
-39,-36,6,66,-20,-10,19,-11,-24,29,-46,-54
-39,-36,6,66,-20,-10,19,-11,-25,28,-46,-54
-39,-36,6,66,-20,-10,19,-11,-26,27,-46,-54
-39,-36,6,66,-20,-10,19,-11,-26,27,-46,-54
-39,-36,6,66,-20,-10,19,-11,-26,26,-46,-54
-39,-36,6,66,-20,-10,19,-11,-26,25,-46,-54
-39,-36,6,66,-20,-10,19,-11,-26,25,-46,-54
-39,-36,6,66,-20,-10,19,-11,-27,24,-47,-55
-39,-36,6,66,-20,-10,19,-11,-27,23,-47,-56
-39,-36,6,66,-20,-10,19,-11,-28,23,-48,-57
-39,-36,6,66,-20,-10,19,-11,-29,22,-49,-57
-39,-36,6,66,-20,-10,19,-11,-29,21,-49,-58
-39,-36,6,66,-20,-10,19,-11,-30,20,-49,-58
-39,-36,6,66,-20,-10,19,-11,-31,20,-49,-58
-39,-36,6,66,-20,-10,19,-11,-31,19,-50,-58
-39,-36,6,66,-20,-10,19,-11,-31,18,-50,-58
-39,-36,6,66,-20,-10,19,-11,-31,18,-51,-58
-39,-36,6,66,-20,-10,19,-11,-31,17,-52,-58
-39,-36,6,66,-20,-10,19,-11,-32,16,-52,-58
-39,-37,6,67,-19,-10,19,-11,-32,15,-53,-59
-39,-38,5,67,-19,-11,19,-11,-33,15,-53,-60
-39,-39,5,68,-19,-12,19,-11,-34,14,-53,-61
-39,-40,4,69,-18,-13,20,-11,-34,13,-53,-62
-39,-41,3,70,-18,-14,21,-11,-34,13,-54,-63
-39,-42,3,71,-18,-14,22,-11,-34,12,-54,-65
-39,-43,2,71,-17,-15,23,-11,-34,11,-55,-66
-39,-44,2,72,-17,-16,24,-11,-35,10,-56,-66
-39,-44,2,72,-17,-16,24,-11,-35,10,-57,-67
-39,-44,1,72,-17,-16,24,-11,-36,9,-58,-67
-39,-44,1,72,-17,-16,24,-11,-36,8,-59,-67
-39,-44,1,73,-17,-16,24,-11,-37,7,-60,-67
-39,-45,1,73,-16,-17,24,-11,-39,6,-61,-68
-39,-46,0,74,-16,-18,24,-11,-40,5,-61,-69
-39,-47,-1,75,-16,-19,24,-11,-41,3,-62,-70
-39,-48,-1,75,-15,-19,24,-12,-42,2,-63,-71
-38,-48,-2,75,-15,-20,24,-13,-43,-0,-64,-72
-38,-48,-2,74,-14,-20,24,-14,-44,-2,-65,-73
-37,-48,-3,73,-13,-21,24,-15,-45,-4,-66,-74
-36,-49,-4,73,-13,-21,24,-15,-46,-6,-67,-76
-36,-49,-4,74,-12,-22,23,-15,-47,-8,-69,-77
-36,-50,-5,74,-12,-23,22,-16,-48,-9,-70,-78
-36,-51,-6,75,-11,-23,20,-16,-50,-11,-72,-79
-36,-52,-6,75,-11,-24,20,-16,-51,-12,-74,-80
-36,-52,-6,76,-11,-24,19,-17,-53,-14,-75,-81
-36,-52,-6,76,-11,-24,19,-18,-54,-15,-77,-82
-36,-52,-6,76,-11,-24,19,-19,-55,-17,-79,-83
-36,-52,-6,75,-11,-24,19,-19,-56,-18,-80,-84
-35,-52,-7,75,-10,-25,19,-20,-57,-19,-81,-84
-34,-52,-7,74,-9,-25,19,-20,-58,-21,-82,-84
-33,-52,-8,73,-9,-26,19,-20,-59,-22,-83,-84
-32,-52,-9,72,-8,-26,19,-20,-60,-23,-84,-85
-30,-52,-10,71,-6,-27,19,-20,-60,-24,-85,-86
-29,-52,-11,69,-5,-28,19,-20,-61,-25,-86,-87
-27,-52,-12,67,-3,-28,19,-20,-62,-26,-87,-88
-25,-52,-13,66,-2,-29,19,-20,-63,-27,-88,-89
-24,-52,-14,65,-1,-30,19,-20,-64,-28,-89,-90
-23,-52,-15,64,-0,-30,19,-20,-65,-29,-91,-91
-22,-52,-16,63,0,-31,19,-20,-67,-31,-93,-92
-22,-53,-16,63,1,-31,19,-20,-68,-32,-94,-93
-22,-54,-17,64,1,-32,19,-20,-69,-34,-95,-93
-21,-55,-17,64,2,-32,19,-20,-69,-35,-96,-93
-21,-56,-18,65,2,-33,19,-20,-70,-36,-97,-93
-21,-56,-18,65,2,-34,19,-19,-71,-38,-98,-93
-21,-56,-19,66,2,-34,19,-19,-71,-38,-98,-93
-21,-57,-19,66,3,-34,19,-18,-71,-39,-98,-93
-21,-57,-19,66,3,-34,19,-17,-71,-40,-98,-93
-21,-57,-19,65,3,-34,20,-16,-71,-40,-98,-93
-19,-57,-20,64,4,-35,21,-15,-70,-41,-98,-92
-18,-57,-21,62,6,-36,22,-14,-69,-41,-98,-91
-16,-57,-22,60,7,-37,23,-13,-69,-41,-98,-90
-15,-56,-23,59,8,-37,24,-11,-68,-40,-98,-89
-14,-55,-23,58,8,-36,24,-10,-67,-40,-97,-88
-14,-55,-22,57,8,-36,24,-9,-67,-39,-96,-87
-14,-53,-22,56,7,-35,24,-8,-66,-39,-95,-85
-14,-53,-21,56,7,-34,24,-7,-65,-38,-94,-84
-14,-53,-21,56,7,-34,24,-5,-64,-37,-93,-83
-14,-52,-21,55,7,-34,24,-3,-62,-36,-91,-82
-14,-52,-21,55,7,-34,24,-1,-61,-36,-89,-81
-14,-52,-21,56,7,-34,24,1,-60,-35,-88,-80
-15,-52,-20,56,6,-34,24,2,-59,-33,-87,-79
-16,-52,-20,57,6,-33,24,3,-58,-32,-86,-78
-17,-52,-19,58,5,-33,24,4,-57,-31,-85,-77
-17,-52,-19,58,4,-32,24,5,-56,-29,-84,-75
-18,-51,-18,58,4,-32,24,6,-54,-28,-82,-73
-18,-50,-17,57,3,-31,24,7,-53,-26,-81,-71
-18,-49,-17,56,3,-30,24,8,-50,-25,-79,-69
-18,-48,-16,55,2,-29,24,10,-48,-23,-77,-67
-18,-46,-15,54,2,-27,24,12,-46,-21,-74,-66
-18,-44,-14,52,1,-26,24,14,-44,-18,-72,-65
-18,-42,-12,50,0,-24,24,16,-42,-15,-69,-63
-18,-40,-11,50,-1,-23,24,18,-40,-13,-67,-62
-19,-40,-11,50,-1,-22,24,19,-38,-10,-65,-60
-20,-40,-10,50,-2,-22,24,20,-36,-8,-63,-58
-20,-40,-9,51,-3,-21,24,21,-34,-6,-61,-56
-21,-39,-8,52,-4,-21,24,22,-32,-3,-59,-54
-22,-38,-7,52,-5,-20,24,22,-30,-1,-57,-53
-23,-38,-6,52,-6,-19,24,22,-29,2,-54,-51
-24,-37,-5,52,-7,-17,24,22,-27,5,-52,-50
-25,-36,-4,52,-8,-16,24,22,-26,7,-50,-49
-25,-34,-3,51,-8,-15,24,22,-24,10,-48,-48
-25,-33,-2,50,-9,-14,24,22,-23,12,-46,-47
-25,-32,-2,50,-9,-14,24,22,-22,14,-44,-46
-25,-31,-1,49,-9,-13,24,23,-20,16,-43,-45
-25,-30,-1,48,-10,-12,24,24,-19,17,-42,-44
-25,-29,0,47,-10,-11,24,24,-17,19,-41,-43
-25,-28,1,46,-11,-10,24,25,-16,20,-40,-41
-26,-27,2,46,-11,-10,24,26,-15,22,-38,-40
-27,-27,3,47,-13,-9,24,28,-13,23,-37,-39
-29,-27,4,49,-14,-8,24,29,-12,25,-35,-38
-30,-27,5,50,-15,-7,24,30,-10,26,-34,-37
-32,-27,6,51,-16,-7,25,30,-9,27,-32,-36
-32,-27,6,52,-17,-6,26,31,-8,29,-32,-35
-32,-27,6,52,-17,-6,27,31,-8,30,-32,-34
-32,-27,6,52,-17,-6,28,31,-7,32,-32,-33
-32,-27,6,52,-17,-6,29,31,-6,33,-31,-32
-32,-27,6,52,-17,-6,29,32,-5,33,-31,-32
-32,-27,6,52,-17,-6,29,33,-5,33,-30,-31
-32,-27,6,52,-17,-6,29,34,-4,33,-29,-31
-33,-27,7,52,-17,-6,29,35,-4,33,-29,-32
-33,-27,7,53,-18,-6,29,35,-4,34,-29,-33
-34,-27,8,54,-18,-5,29,35,-3,35,-28,-34
-35,-27,8,54,-19,-5,29,35,-3,35,-28,-35
-36,-27,9,55,-20,-5,30,35,-3,36,-28,-35
-37,-27,10,56,-21,-4,31,35,-3,36,-28,-36
-38,-27,10,57,-21,-4,32,35,-2,36,-28,-36
-39,-27,11,58,-22,-3,33,35,-1,36,-28,-36
-39,-27,11,58,-23,-3,34,35,-0,36,-28,-35
-39,-26,12,57,-23,-2,36,36,1,37,-27,-35
-39,-25,13,57,-24,-1,37,37,2,37,-27,-34
-39,-24,13,56,-24,-0,38,38,4,38,-26,-33
-39,-23,14,56,-24,0,39,39,4,39,-25,-32
-39,-23,14,55,-24,0,39,40,5,39,-25,-32
-39,-23,14,55,-24,0,40,41,5,39,-25,-31
-39,-23,14,55,-24,0,40,41,5,39,-25,-31
-39,-23,14,55,-24,0,40,41,5,39,-25,-31
-39,-23,14,55,-24,0,40,41,5,39,-25,-31
-39,-23,14,55,-24,0,40,41,5,39,-25,-31
-39,-23,14,55,-24,0,40,41,5,39,-25,-31
-39,-21,15,54,-25,1,40,42,5,38,-25,-30
-39,-19,16,53,-26,3,40,43,5,37,-25,-28
-39,-19,16,52,-26,3,40,43,5,36,-25,-27
-39,-19,16,52,-26,3,40,43,5,36,-25,-27
-39,-19,16,52,-26,3,40,43,5,36,-25,-27
-39,-19,16,52,-26,3,40,43,5,36,-25,-27
-39,-19,16,52,-26,3,40,43,5,36,-25,-27
-38,-16,17,49,-26,5,40,43,6,36,-24,-26
-37,-13,18,45,-26,7,40,43,7,36,-22,-24
-36,-12,18,43,-25,7,40,43,7,36,-22,-23
-36,-11,18,43,-25,7,40,43,7,36,-21,-23
-36,-11,18,43,-26,8,40,43,7,36,-21,-23
-36,-10,19,42,-26,8,40,43,8,36,-21,-22
-36,-10,19,42,-26,8,40,43,8,35,-20,-21
-36,-10,19,42,-26,8,40,43,8,35,-20,-20
-36,-10,19,42,-26,8,40,43,8,34,-19,-19
-36,-11,19,43,-26,8,40,43,7,33,-18,-19
-37,-11,19,44,-26,8,40,43,7,32,-18,-19
-38,-12,19,45,-27,8,40,43,6,32,-18,-18
-39,-13,19,47,-27,7,40,43,6,31,-18,-18
-39,-14,19,48,-27,7,40,43,5,30,-18,-18
-39,-14,19,48,-27,7,40,43,5,30,-18,-18
-39,-14,19,49,-27,7,40,43,5,29,-18,-18
-39,-14,19,49,-27,7,40,43,5,28,-18,-18
-39,-14,19,49,-27,7,40,43,5,27,-18,-19
-39,-14,19,49,-27,7,40,43,4,27,-19,-20
-39,-14,19,49,-27,7,40,43,4,26,-20,-20
-39,-14,19,49,-27,7,40,43,3,25,-21,-22
-39,-15,19,49,-27,6,39,43,2,25,-21,-22
-39,-16,18,50,-27,6,38,42,1,24,-21,-22
-39,-16,18,50,-27,5,37,41,-1,23,-21,-23
-39,-18,17,51,-26,4,36,40,-2,23,-21,-23
-39,-18,17,52,-26,4,35,40,-3,22,-21,-23
-39,-18,17,52,-26,4,35,39,-3,22,-21,-23
-39,-19,16,52,-26,3,34,39,-3,22,-21,-23
-39,-19,16,52,-26,3,34,39,-3,22,-21,-23
-39,-18,17,52,-26,4,35,39,-3,22,-21,-23
-39,-17,17,51,-26,4,36,39,-3,22,-21,-23
-39,-16,18,50,-27,5,37,39,-2,22,-21,-23
-39,-15,18,49,-27,6,38,39,-1,22,-21,-23
-39,-15,19,49,-27,6,39,39,-1,22,-21,-23
-39,-15,19,49,-27,7,39,39,-1,22,-21,-23
-39,-14,19,49,-27,7,40,39,-1,22,-21,-23
-39,-14,19,49,-27,7,40,39,-1,22,-21,-23
-40,-15,19,49,-28,7,40,39,-1,22,-21,-23
-41,-16,19,51,-28,6,40,38,-1,22,-21,-23
-41,-16,19,52,-28,6,40,37,-2,22,-21,-23
-42,-18,19,54,-29,6,40,36,-3,22,-21,-23
-43,-18,19,55,-29,5,40,35,-3,22,-21,-23
-43,-18,19,55,-29,5,40,35,-3,22,-21,-23
-43,-19,19,55,-29,5,40,35,-3,22,-21,-23
-43,-19,19,55,-29,5,40,35,-3,22,-21,-23
-43,-19,19,55,-29,5,39,35,-3,22,-22,-23
-42,-19,18,54,-28,5,37,35,-3,21,-22,-23
-41,-19,18,54,-27,4,34,35,-3,20,-23,-23
-40,-19,17,53,-27,4,32,35,-3,20,-24,-23
-40,-19,17,52,-26,4,30,35,-3,19,-25,-23
-40,-19,17,52,-26,4,30,34,-3,19,-25,-24
-39,-19,16,52,-26,3,29,33,-3,19,-25,-25
-39,-19,16,52,-26,3,29,32,-3,19,-25,-26
-40,-19,17,52,-26,4,29,31,-3,19,-25,-27
-41,-19,17,53,-27,4,29,31,-3,18,-25,-27
-41,-19,18,54,-27,4,29,31,-3,18,-25,-27
-42,-19,18,54,-28,5,29,31,-3,17,-25,-27
-43,-19,19,56,-29,5,29,31,-4,16,-25,-27
-44,-20,19,57,-29,5,28,31,-4,15,-26,-27
-45,-21,19,59,-30,4,27,31,-5,15,-27,-27
-46,-22,19,60,-30,4,26,31,-5,14,-27,-27
-46,-22,19,61,-30,4,25,30,-6,13,-28,-28
-47,-23,19,62,-30,4,24,29,-7,13,-28,-28
-47,-23,19,62,-30,3,24,29,-8,12,-28,-29
-47,-23,19,62,-30,3,24,28,-8,11,-28,-30
-47,-23,19,62,-30,3,24,27,-9,10,-28,-31
-47,-23,19,62,-30,3,24,27,-9,10,-28,-31
-47,-23,19,62,-30,3,24,26,-9,9,-28,-31
-47,-23,19,62,-30,3,24,26,-9,8,-28,-31
-47,-23,19,62,-30,3,25,26,-9,8,-28,-31
-47,-23,19,62,-30,3,26,26,-9,8,-28,-31
-47,-23,19,62,-30,3,27,26,-9,8,-28,-31
-47,-23,19,62,-30,3,28,26,-9,8,-28,-31
-47,-23,19,63,-31,4,29,26,-9,7,-28,-31
-48,-23,20,63,-31,4,29,26,-10,7,-28,-31
-49,-23,20,64,-32,4,29,26,-10,6,-28,-31
-49,-23,21,65,-33,5,29,26,-11,5,-28,-31
-50,-23,21,65,-33,5,29,26,-12,5,-28,-31
-50,-23,21,65,-33,5,29,26,-12,5,-28,-31
-50,-23,21,66,-33,5,29,26,-12,5,-28,-31
-50,-23,21,66,-33,5,29,26,-12,5,-28,-31
-50,-23,21,66,-33,5,29,26,-12,4,-28,-31
-50,-23,21,66,-33,5,29,26,-12,4,-28,-31
-50,-23,21,66,-33,5,29,26,-12,3,-28,-31
-50,-23,21,66,-33,5,29,26,-12,3,-28,-31
-50,-23,21,66,-33,5,29,26,-12,2,-28,-31
-50,-23,21,66,-33,5,29,25,-12,2,-28,-31
-50,-23,21,66,-33,5,29,24,-12,2,-28,-31
-50,-23,21,66,-33,5,29,23,-12,2,-28,-31
-50,-23,21,66,-33,5,29,23,-12,2,-28,-31
-50,-23,21,66,-33,5,29,22,-12,1,-28,-31
-50,-23,21,66,-33,5,29,22,-12,1,-28,-31
-50,-23,21,66,-33,5,29,22,-12,-0,-28,-31
-50,-23,21,66,-33,5,29,22,-12,-1,-28,-31
-50,-23,21,66,-33,5,29,22,-12,-1,-28,-31
-50,-23,21,66,-33,5,29,22,-12,-1,-28,-31
-50,-23,21,66,-33,5,29,22,-12,-1,-28,-31
-50,-22,21,65,-33,5,29,22,-12,-1,-28,-31
-49,-22,21,64,-33,6,29,22,-12,-1,-28,-31
-49,-21,21,62,-33,6,29,22,-12,-1,-28,-31
-48,-20,21,60,-32,6,29,22,-12,-1,-28,-31
-47,-19,21,59,-32,7,29,23,-12,-1,-28,-31
-47,-19,21,59,-32,7,29,24,-12,-1,-28,-30
-47,-19,21,59,-32,7,29,24,-12,-1,-28,-29
-47,-19,21,59,-32,7,29,25,-12,-1,-28,-28
-47,-19,22,59,-32,7,29,26,-12,-1,-28,-28
-48,-19,22,60,-33,7,29,26,-12,-1,-28,-27
-49,-19,23,60,-33,8,29,26,-12,-1,-28,-27
-49,-19,23,61,-34,8,29,26,-12,-1,-28,-27
-51,-19,24,63,-35,8,29,26,-12,-1,-28,-27
-52,-21,24,66,-36,8,29,25,-12,-2,-28,-27
-54,-23,24,69,-36,7,29,24,-12,-2,-28,-27
-56,-25,24,72,-37,6,29,23,-12,-3,-28,-27
-57,-26,24,75,-38,5,29,23,-12,-3,-28,-27
-57,-27,24,75,-38,5,28,22,-13,-4,-28,-27
-58,-27,24,76,-38,5,27,22,-13,-4,-28,-27
-58,-27,24,76,-38,5,26,22,-14,-4,-28,-27
-58,-27,24,76,-38,5,24,22,-15,-4,-29,-27
-54,-27,21,73,-35,3,24,22,-15,-4,-29,-32
-54,-27,21,73,-35,3,24,22,-15,-7,-32,-32
-54,-27,21,73,-35,3,24,22,-18,-7,-32,-32
-54,-27,21,73,-35,3,24,18,-18,-7,-32,-32
-51,-27,19,69,-32,2,24,18,-18,-10,-32,-32
-51,-23,21,66,-34,5,29,22,-18,-10,-32,-32
-47,-23,19,63,-31,3,29,26,-15,-7,-32,-32
-43,-23,16,59,-28,2,34,31,-9,-4,-29,-32
-43,-19,19,56,-29,5,40,39,-9,-4,-29,-32
-51,-19,24,63,-35,8,40,43,-4,5,-29,-32
-51,-23,21,66,-34,5,45,52,5,8,-29,-32
-58,-23,27,73,-40,8,55,65,11,10,-25,-32
-58,-23,27,73,-40,8,65,86,22,16,-22,-32
-51,-15,27,59,-37,12,65,99,25,22,-18,-32
-43,-15,21,52,-31,8,65,103,30,27,-11,-27
-36,-10,19,42,-26,8,55,103,33,36,3,-14
-29,7,24,22,-26,18,40,86,33,45,20,8
-11,19,19,-5,-16,20,14,43,25,53,38,34
11,32,11,-35,-2,20,-27,-33,-1,53,58,65
40,49,1,-76,16,20,-63,-88,-20,59,83,109
62,62,-6,-106,29,20,-98,-135,-34,65,104,144
80,70,-14,-130,41,18,-124,-168,-48,65,118,175
94,87,-14,-157,47,25,-149,-190,-57,76,145,215
120,108,-19,-198,61,30,-180,-211,-65,84,166,255
123,121,-14,-211,59,38,-216,-257,-88,73,173,277
123,133,-6,-221,55,48,-256,-325,-113,59,166,281
123,159,9,-242,46,67,-277,-359,-127,42,152,281
120,129,-6,-215,53,46,-302,-359,-141,19,125,263
109,100,-16,-181,55,28,-292,-346,-147,-12,90,228
76,91,1,-144,31,36,-261,-317,-141,-29,55,189
55,70,4,-106,20,30,-236,-300,-141,-47,24,144
36,49,4,-73,13,21,-216,-279,-141,-58,-4,114
29,40,4,-59,10,18,-200,-257,-141,-72,-29,83
15,28,6,-35,2,15,-170,-228,-136,-84,-53,43
15,11,-4,-22,8,2,-144,-181,-124,-84,-67,12
11,-2,-9,-8,10,-6,-114,-135,-105,-75,-67,-10
4,-15,-11,8,8,-13,-93,-101,-91,-67,-63,-19
-14,-19,-1,29,-5,-8,-73,-75,-77,-55,-56,-23
-29,-19,9,42,-17,-1,-52,-58,-65,-49,-56,-27
-32,-19,11,46,-20,0,-37,-41,-54,-41,-53,-32
-40,-27,11,59,-23,-3,-22,-24,-46,-38,-49,-36
-51,-27,19,69,-32,2,-6,-20,-43,-35,-49,-36
-51,-27,19,69,-32,2,9,-7,-37,-32,-49,-41
-47,-32,14,69,-28,-3,14,-3,-34,-32,-49,-45
-47,-32,14,69,-28,-3,24,5,-29,-29,-46,-45
-47,-27,16,66,-29,0,24,5,-29,-29,-46,-45
-54,-27,21,73,-35,3,24,5,-29,-29,-46,-45
-61,-32,24,83,-40,3,24,5,-29,-29,-46,-45
-61,-32,24,83,-40,3,24,5,-29,-32,-46,-49
-61,-32,24,83,-40,3,24,10,-29,-32,-49,-49
-65,-40,21,93,-40,-1,29,10,-29,-32,-49,-49
-65,-40,21,93,-40,-1,29,10,-32,-32,-49,-49
-61,-40,19,90,-37,-3,29,10,-32,-35,-53,-54
-58,-36,19,83,-35,-1,29,10,-32,-35,-53,-54
-58,-36,19,83,-35,-1,34,14,-32,-35,-53,-54
-61,-36,21,86,-38,0,34,14,-32,-35,-53,-58
-61,-36,21,86,-38,0,34,14,-29,-35,-53,-58
-61,-36,21,86,-38,0,40,14,-29,-35,-49,-54
-72,-36,29,96,-47,5,40,18,-29,-32,-49,-54
-61,-32,24,83,-40,3,40,18,-29,-32,-49,-54
-61,-32,24,83,-40,3,34,14,-29,-35,-53,-54
-61,-36,21,86,-38,0,34,14,-29,-35,-53,-54
-65,-40,21,93,-40,-1,34,14,-29,-35,-53,-54
-69,-40,24,96,-43,0,34,14,-29,-32,-53,-54
-69,-36,27,93,-44,3,34,14,-29,-32,-53,-58
-65,-36,24,90,-41,2,34,14,-29,-32,-53,-58
-65,-36,24,90,-41,2,40,14,-29,-29,-49,-58
-65,-36,24,90,-41,2,40,14,-29,-29,-49,-54
-65,-27,29,83,-44,8,40,14,-29,-29,-49,-54
-69,-36,27,93,-44,3,40,14,-29,-29,-49,-54
-76,-44,27,106,-47,0,34,14,-29,-32,-49,-58
-76,-53,21,113,-44,-6,34,14,-29,-35,-53,-58
-69,-40,24,96,-43,0,34,14,-29,-35,-53,-58
-69,-53,16,106,-38,-10,34,14,-29,-32,-49,-58
-69,-44,21,100,-41,-3,40,14,-29,-32,-49,-54
-58,-32,21,79,-37,2,40,14,-26,-29,-49,-54
-58,-32,21,79,-37,2,40,18,-26,-29,-49,-54
-58,-32,21,79,-37,2,40,18,-26,-29,-49,-54
-65,-36,24,90,-41,2,40,18,-26,-32,-49,-54
-65,-40,21,93,-40,-1,40,18,-26,-32,-49,-54
-65,-44,19,96,-38,-5,40,14,-29,-35,-49,-54
-69,-44,21,100,-41,-3,34,14,-32,-38,-53,-58
-69,-44,21,100,-41,-3,29,5,-34,-41,-56,-63
-65,-44,19,96,-38,-5,29,5,-34,-41,-56,-63
-65,-44,19,96,-38,-5,40,10,-34,-44,-56,-63
-65,-44,19,96,-38,-5,40,10,-36,-46,-56,-62
-65,-44,19,96,-38,-5,40,10,-38,-47,-56,-62
-65,-44,19,96,-38,-5,40,10,-38,-48,-56,-62
-65,-44,19,96,-38,-5,40,10,-39,-49,-56,-62
-65,-44,19,97,-38,-5,40,10,-40,-49,-57,-63
-66,-45,19,98,-38,-5,40,10,-41,-50,-57,-64
-67,-46,19,99,-39,-5,40,10,-41,-51,-58,-65
-68,-47,19,101,-39,-6,40,10,-42,-51,-59,-66
-68,-48,19,102,-39,-6,39,10,-43,-52,-60,-66
-68,-48,19,102,-39,-6,38,10,-43,-54,-61,-67
-68,-48,19,103,-39,-6,37,10,-44,-55,-61,-67
-68,-48,19,103,-39,-6,36,10,-45,-56,-62,-67
-68,-48,19,103,-39,-6,35,9,-45,-58,-63,-67
-68,-48,19,103,-39,-6,35,8,-45,-58,-63,-68
-68,-48,19,103,-39,-6,34,7,-46,-59,-63,-69
-68,-48,19,103,-39,-6,34,6,-46,-60,-63,-70
-68,-48,19,103,-39,-6,34,6,-46,-60,-63,-71
-68,-48,19,103,-39,-6,34,6,-46,-61,-63,-71
-68,-48,19,103,-39,-6,34,5,-46,-61,-63,-71
-68,-48,19,103,-39,-6,34,5,-46,-61,-63,-71
-68,-48,19,103,-39,-6,34,5,-46,-61,-63,-71
-68,-48,19,103,-39,-6,34,5,-46,-62,-64,-71
-68,-48,19,103,-39,-6,34,5,-47,-62,-65,-71
-68,-48,19,103,-39,-6,34,5,-48,-63,-66,-71
-68,-48,19,103,-39,-6,34,5,-48,-64,-66,-72
-68,-48,19,103,-39,-6,34,3,-49,-64,-66,-72
-68,-48,19,103,-39,-6,34,1,-50,-65,-67,-73
-68,-48,19,103,-39,-6,34,-1,-50,-66,-67,-74
-69,-49,19,103,-40,-6,34,-3,-51,-66,-67,-75
-70,-49,19,105,-40,-7,33,-4,-52,-67,-68,-75
-70,-50,19,106,-40,-7,32,-5,-53,-68,-68,-76
-71,-51,19,108,-41,-8,31,-6,-53,-69,-69,-76
-72,-52,19,109,-41,-8,29,-7,-54,-69,-70,-76
-72,-52,19,109,-41,-8,28,-7,-55,-70,-70,-77
-72,-52,19,109,-41,-8,27,-7,-55,-71,-70,-78
-72,-52,19,109,-41,-8,26,-7,-56,-71,-70,-79
-72,-52,19,109,-40,-8,25,-7,-56,-72,-70,-80
-70,-52,18,107,-39,-9,24,-7,-57,-73,-71,-80
-68,-52,16,106,-38,-10,24,-7,-57,-74,-72,-80
-67,-52,15,104,-36,-10,24,-7,-57,-74,-73,-80
-65,-52,14,103,-35,-11,24,-7,-57,-75,-73,-80
-65,-52,14,103,-35,-11,24,-6,-57,-76,-73,-80
-65,-52,14,103,-35,-11,24,-5,-57,-76,-74,-80
-65,-52,14,103,-35,-11,24,-4,-57,-77,-74,-80
-65,-53,14,103,-35,-11,24,-3,-57,-78,-74,-80
-65,-54,13,104,-34,-12,24,-3,-58,-78,-75,-81
-65,-55,13,104,-34,-13,24,-3,-60,-79,-75,-82
-65,-56,12,105,-34,-14,24,-3,-61,-80,-76,-83
-65,-57,11,106,-33,-14,24,-3,-62,-81,-77,-84
-65,-58,11,107,-33,-15,23,-3,-63,-82,-78,-84
-65,-59,10,108,-33,-16,22,-3,-64,-83,-79,-84
-65,-60,10,108,-32,-17,20,-3,-64,-85,-80,-84
-65,-61,9,109,-32,-18,20,-3,-65,-86,-81,-85
-65,-62,8,110,-32,-19,19,-4,-67,-88,-82,-87
-65,-63,8,111,-31,-19,19,-5,-68,-89,-84,-89
-65,-64,7,112,-31,-20,19,-6,-69,-91,-86,-91
-64,-65,6,113,-30,-21,19,-7,-71,-92,-87,-93
-64,-66,5,113,-29,-22,19,-7,-71,-93,-89,-94
-63,-67,4,113,-28,-23,19,-7,-72,-95,-91,-95
-62,-68,3,113,-27,-25,19,-7,-73,-96,-93,-96
-61,-69,1,113,-26,-26,19,-7,-74,-98,-94,-98
-60,-70,0,113,-25,-27,18,-7,-75,-100,-96,-99
-59,-71,-1,113,-24,-28,17,-7,-76,-102,-98,-100
-59,-73,-2,113,-23,-30,15,-7,-78,-104,-100,-101
-58,-74,-4,113,-21,-31,15,-7,-79,-106,-101,-102
-57,-75,-5,113,-20,-32,14,-7,-81,-108,-103,-103
-56,-76,-6,113,-19,-33,14,-7,-82,-109,-105,-104
-55,-77,-7,113,-18,-35,14,-7,-83,-111,-107,-105
-54,-77,-8,113,-17,-35,14,-7,-85,-112,-108,-106
-54,-78,-8,113,-17,-36,13,-7,-86,-113,-109,-107
-54,-78,-9,113,-17,-36,11,-7,-88,-115,-110,-109
-54,-78,-9,113,-17,-36,10,-7,-89,-116,-111,-110
-54,-78,-9,113,-16,-36,9,-7,-90,-118,-112,-110
-53,-79,-10,113,-16,-37,8,-7,-92,-119,-113,-111
-52,-80,-11,113,-15,-38,6,-7,-93,-121,-114,-111
-51,-81,-12,113,-14,-40,5,-7,-95,-122,-114,-111
-50,-82,-13,113,-13,-40,4,-7,-96,-123,-115,-111
-49,-82,-14,112,-12,-41,3,-7,-97,-125,-116,-111
-49,-82,-15,111,-11,-41,2,-7,-97,-126,-117,-111
-48,-82,-16,110,-10,-42,0,-7,-98,-128,-118,-111
-46,-82,-16,109,-9,-42,-1,-7,-99,-129,-118,-111
-45,-82,-18,108,-8,-43,-2,-6,-99,-129,-119,-111
-43,-82,-19,106,-6,-44,-4,-5,-99,-129,-119,-111
-41,-82,-20,104,-5,-45,-5,-4,-99,-129,-119,-111
-40,-82,-21,103,-4,-45,-6,-3,-99,-129,-118,-110
-39,-82,-22,102,-3,-46,-6,-1,-98,-129,-118,-109
-38,-82,-22,101,-2,-46,-6,1,-97,-129,-117,-109
-37,-82,-23,100,-1,-47,-6,3,-97,-129,-116,-107
-36,-82,-23,99,-1,-47,-6,5,-96,-129,-115,-106
-36,-81,-23,99,-1,-46,-5,6,-95,-127,-113,-104
-36,-80,-22,98,-1,-46,-4,7,-93,-126,-112,-102
-36,-79,-22,97,-2,-45,-2,8,-92,-125,-110,-100
-36,-78,-21,96,-2,-44,-1,10,-90,-123,-108,-98
-37,-77,-20,96,-3,-43,2,12,-88,-121,-106,-95
-38,-76,-19,96,-4,-41,4,14,-86,-119,-103,-93
-39,-75,-17,96,-5,-40,6,16,-84,-117,-101,-91
-39,-73,-16,96,-7,-39,8,17,-82,-115,-98,-89
-40,-71,-14,95,-8,-37,9,18,-80,-113,-95,-87
-41,-69,-12,94,-9,-35,9,18,-78,-111,-93,-84
-42,-67,-11,94,-11,-33,9,18,-76,-108,-90,-82
-43,-66,-9,93,-12,-31,9,18,-74,-106,-87,-80
-44,-64,-8,93,-13,-30,10,18,-71,-103,-85,-78
-45,-63,-6,93,-15,-28,11,18,-69,-101,-82,-76
-46,-62,-5,93,-16,-27,13,18,-67,-98,-80,-73
-46,-61,-4,92,-17,-26,14,18,-65,-95,-77,-72
-47,-60,-3,92,-17,-25,14,17,-64,-93,-75,-70
-47,-59,-2,91,-18,-24,14,16,-62,-91,-74,-69
-47,-58,-2,90,-18,-23,14,15,-61,-88,-72,-68
-47,-56,-1,89,-19,-22,14,14,-60,-86,-70,-67
-48,-54,1,89,-20,-20,14,13,-58,-84,-67,-66
-49,-52,3,88,-21,-19,14,12,-57,-82,-65,-65
-49,-50,5,86,-23,-17,14,11,-55,-80,-62,-63
-50,-49,6,86,-24,-15,14,10,-54,-78,-60,-62
-51,-47,8,86,-25,-13,14,10,-53,-76,-58,-61
-52,-46,9,86,-27,-12,14,10,-51,-75,-56,-60
-53,-45,10,86,-28,-11,14,10,-50,-74,-54,-59
-54,-44,11,86,-29,-10,15,10,-48,-72,-53,-57
-55,-43,13,86,-30,-8,16,10,-47,-70,-51,-56
-56,-42,14,86,-31,-7,17,10,-46,-68,-49,-54
-57,-41,15,86,-32,-6,18,10,-44,-66,-47,-51
