I,II,III,aVR,aVL,aVF,V1,V2,V3,V4,V5,V6,
712,-800,-1512,43,1112,-1156,-585,-956,-1102,-1112,-946,-527
712,-800,-1512,43,1112,-1156,-585,-956,-1102,-1112,-946,-527
712,-800,-1512,43,1112,-1156,-585,-956,-1102,-1112,-946,-527
712,-800,-1512,43,1112,-1156,-585,-956,-1102,-1112,-946,-527
610,-741,-1351,65,980,-1046,-517,-858,-1000,-1010,-873,-488
507,-692,-1200,92,854,-946,-448,-771,-897,-917,-800,-458
405,-644,-1049,119,727,-846,-380,-683,-795,-824,-727,-429
302,-595,-897,146,600,-746,-312,-595,-692,-732,-653,-400
258,-517,-775,129,517,-646,-253,-507,-605,-639,-566,-346
214,-448,-663,117,439,-556,-204,-429,-517,-546,-488,-302
170,-380,-551,104,361,-466,-156,-351,-429,-453,-409,-258
126,-312,-439,92,283,-375,-107,-273,-341,-361,-331,-214
78,-273,-351,97,214,-312,-78,-214,-273,-307,-287,-180
39,-244,-283,102,161,-263,-48,-165,-214,-253,-244,-156
0,-214,-214,107,107,-214,-19,-117,-156,-200,-200,-131
-39,-185,-146,112,53,-165,9,-68,-97,-146,-156,-107
-53,-165,-112,109,29,-139,19,-53,-73,-117,-136,-92
-58,-146,-87,102,14,-117,29,-39,-58,-97,-117,-78
-63,-126,-63,95,0,-95,39,-24,-43,-78,-97,-63
-68,-107,-39,87,-14,-73,48,-9,-29,-58,-78,-48
-68,-102,-34,85,-17,-68,58,0,-14,-53,-68,-43
-68,-97,-29,82,-19,-63,58,0,-9,-48,-68,-39
-68,-92,-24,80,-21,-58,58,0,-4,-43,-68,-34
-68,-87,-19,78,-24,-53,58,0,0,-39,-68,-29
-78,-78,0,78,-39,-39,68,0,0,-29,-63,-19
-78,-78,0,78,-39,-39,68,0,0,-29,-58,-19
-78,-78,0,78,-39,-39,68,0,0,-29,-53,-19
-78,-78,0,78,-39,-39,68,0,0,-29,-48,-19
-92,-78,14,85,-53,-31,78,9,4,-24,-39,-9
-97,-78,19,87,-58,-29,78,19,9,-19,-39,-9
-102,-78,24,90,-63,-26,78,29,14,-14,-39,-9
-107,-78,29,92,-68,-24,78,39,19,-9,-39,-9
-112,-68,43,90,-78,-12,68,29,19,-9,-39,-9
-117,-68,48,92,-82,-9,68,29,19,-9,-39,-9
-122,-68,53,95,-87,-7,68,29,19,-9,-39,-9
-126,-68,58,97,-92,-4,68,29,19,-9,-39,-9
-122,-68,53,95,-87,-7,68,29,9,-9,-39,-29
-117,-68,48,92,-82,-9,68,29,9,-9,-39,-39
-112,-68,43,90,-78,-12,68,29,9,-9,-39,-48
-107,-68,39,87,-73,-14,68,29,9,-9,-39,-58
-117,-58,58,87,-87,0,78,19,9,-9,-39,-68
-117,-58,58,87,-87,0,78,19,9,-9,-39,-78
-117,-58,58,87,-87,0,78,19,9,-9,-39,-87
-117,-58,58,87,-87,0,78,19,9,-9,-39,-97
-122,-68,53,95,-87,-7,78,29,9,-9,-39,-117
-126,-68,58,97,-92,-4,78,29,9,-9,-39,-126
-131,-68,63,100,-97,-2,78,29,9,-9,-39,-136
-136,-68,68,102,-102,0,78,29,9,-9,-39,-146
-126,-68,58,97,-92,-4,87,29,9,-19,-48,-156
-126,-68,58,97,-92,-4,87,29,9,-19,-48,-165
-126,-68,58,97,-92,-4,87,29,9,-19,-48,-175
-126,-68,58,97,-92,-4,87,29,9,-19,-48,-185
-126,-68,58,97,-92,-4,78,29,9,-29,-48,-185
-126,-68,58,97,-92,-4,78,29,9,-29,-48,-185
-126,-68,58,97,-92,-4,78,29,9,-29,-48,-185
-126,-68,58,97,-92,-4,78,29,9,-29,-48,-185
-126,-58,68,92,-97,4,78,29,0,-29,-58,-175
-126,-58,68,92,-97,4,78,29,0,-29,-58,-175
-126,-58,68,92,-97,4,78,29,0,-29,-58,-175
-126,-58,68,92,-97,4,78,29,0,-29,-58,-175
-126,-58,68,92,-97,4,78,39,0,-39,-58,-170
-126,-58,68,92,-97,4,78,39,0,-39,-58,-165
-126,-58,68,92,-97,4,78,39,0,-39,-58,-161
-126,-58,68,92,-97,4,78,39,0,-39,-58,-156
-136,-48,87,92,-112,19,87,48,0,-39,-58,-141
-136,-48,87,92,-112,19,87,48,0,-39,-58,-136
-136,-48,87,92,-112,19,87,48,0,-39,-58,-131
-136,-48,87,92,-112,19,87,48,0,-39,-58,-126
-136,-58,78,97,-107,9,87,48,9,-29,-68,-117
-136,-58,78,97,-107,9,87,48,9,-29,-68,-117
-136,-58,78,97,-107,9,87,48,9,-29,-68,-117
-136,-58,78,97,-107,9,87,48,9,-29,-68,-117
-146,-68,78,107,-112,4,87,58,0,-29,-78,-112
-146,-68,78,107,-112,4,87,58,0,-29,-78,-107
-146,-68,78,107,-112,4,87,58,0,-29,-78,-102
-146,-68,78,107,-112,4,87,58,0,-29,-78,-97
-156,-58,97,107,-126,19,87,68,9,-29,-87,-87
-156,-58,97,107,-126,19,87,68,9,-29,-87,-87
-156,-58,97,107,-126,19,87,68,9,-29,-87,-87
-156,-58,97,107,-126,19,87,68,9,-29,-87,-87
-156,-58,97,107,-126,19,97,68,9,-29,-87,-78
-156,-58,97,107,-126,19,97,68,9,-29,-87,-78
-156,-58,97,107,-126,19,97,68,9,-29,-87,-78
-156,-58,97,107,-126,19,97,68,9,-29,-87,-78
-156,-58,97,107,-126,19,107,82,19,-19,-97,-73
-156,-58,97,107,-126,19,107,87,19,-19,-97,-68
-156,-58,97,107,-126,19,107,92,19,-19,-97,-63
-156,-58,97,107,-126,19,107,97,19,-19,-97,-58
-165,-58,107,112,-136,24,117,107,19,-29,-97,-39
-165,-58,107,112,-136,24,117,107,19,-29,-97,-29
-165,-58,107,112,-136,24,117,107,19,-29,-97,-19
-165,-58,107,112,-136,24,117,107,19,-29,-97,-9
-170,-48,122,109,-146,36,122,112,24,-24,-97,0
-175,-48,126,112,-151,39,126,117,29,-19,-97,9
-180,-48,131,114,-156,41,131,122,34,-14,-97,19
-185,-48,136,117,-161,43,136,126,39,-9,-97,29
-185,-58,126,122,-156,34,146,136,48,-9,-97,43
-185,-58,126,122,-156,34,146,136,48,-9,-97,48
-185,-58,126,122,-156,34,146,136,48,-9,-97,53
-185,-58,126,122,-156,34,146,136,48,-9,-97,58
-195,-48,146,122,-170,48,151,151,63,-4,-97,63
-195,-48,146,122,-170,48,156,156,68,0,-97,68
-195,-48,146,122,-170,48,161,161,73,4,-97,73
-195,-48,146,122,-170,48,165,165,78,9,-97,78
-204,-39,165,122,-185,63,170,180,92,19,-97,82
-204,-39,165,122,-185,63,175,185,97,19,-97,87
-204,-39,165,122,-185,63,180,190,102,19,-97,92
-204,-39,165,122,-185,63,185,195,107,19,-97,97
-209,-29,180,119,-195,75,200,209,112,24,-87,97
-214,-29,185,122,-200,78,204,214,117,29,-87,97
-219,-29,190,124,-204,80,209,219,122,34,-87,97
-224,-29,195,126,-209,82,214,224,126,39,-87,97
-229,-29,200,129,-214,85,219,229,131,43,-78,92
-234,-29,204,131,-219,87,224,234,136,48,-78,87
-239,-29,209,134,-224,90,229,239,141,53,-78,82
-244,-29,214,136,-229,92,234,244,146,58,-78,78
-244,-24,219,134,-231,97,248,258,161,63,-87,63
-244,-19,224,131,-234,102,253,263,165,68,-87,58
-244,-14,229,129,-236,107,258,268,170,73,-87,53
-244,-9,234,126,-239,112,263,273,175,78,-87,48
-258,4,263,126,-261,134,278,283,190,82,-82,34
-263,9,273,126,-268,141,283,292,195,87,-78,29
-268,14,283,126,-275,148,287,302,200,92,-73,24
-273,19,292,126,-283,156,292,312,204,97,-68,19
-297,9,307,143,-302,158,307,322,214,112,-63,4
-312,9,322,151,-317,165,312,322,224,117,-58,0
-326,9,336,158,-331,173,317,322,234,122,-53,-4
-341,9,351,165,-346,180,322,322,244,126,-48,-9
-351,19,370,165,-361,195,326,326,248,131,-34,-14
-351,19,370,165,-361,195,331,331,253,136,-29,-19
-351,19,370,165,-361,195,336,336,258,141,-24,-24
-351,19,370,165,-361,195,341,341,263,146,-19,-29
-356,24,380,165,-368,202,341,351,273,156,-19,-34
-361,29,390,165,-375,209,341,351,273,156,-19,-39
-366,34,400,165,-383,217,341,351,273,156,-19,-43
-370,39,409,165,-390,224,341,351,273,156,-19,-48
-380,43,424,168,-402,234,346,361,278,165,-9,-39
-380,48,429,165,-405,239,351,361,283,175,0,-39
-380,53,434,163,-407,244,356,361,287,185,9,-39
-380,58,439,161,-409,248,361,361,292,195,19,-39
-385,58,444,163,-414,251,356,346,302,204,24,-34
-390,58,448,165,-419,253,351,341,302,204,29,-29
-395,58,453,168,-424,256,346,336,302,204,34,-24
-400,58,458,170,-429,258,341,331,302,204,39,-19
-400,58,458,170,-429,258,331,322,302,214,48,-4
-400,58,458,170,-429,258,331,322,302,214,48,0
-400,58,458,170,-429,258,331,322,302,214,48,4
-400,58,458,170,-429,258,331,322,302,214,48,9
-395,68,463,163,-429,265,317,307,312,229,58,29
-390,78,468,156,-429,273,312,302,312,234,68,39
-385,87,473,148,-429,280,307,297,312,239,78,48
-380,97,478,141,-429,287,302,292,312,244,87,58
-361,107,468,126,-414,287,292,283,302,253,92,73
-351,107,458,122,-405,283,283,273,302,253,97,87
-341,107,448,117,-395,278,273,263,302,253,102,102
-331,107,439,112,-385,273,263,253,302,253,107,117
-312,107,419,102,-366,263,248,239,297,253,122,136
-302,107,409,97,-356,258,234,224,292,253,126,146
-292,107,400,92,-346,253,219,209,287,253,131,156
-283,107,390,87,-336,248,204,195,283,253,136,165
-253,117,370,68,-312,244,185,180,263,239,136,180
-234,117,351,58,-292,234,175,165,253,234,136,195
-214,117,331,48,-273,224,165,151,244,229,136,209
-195,117,312,39,-253,214,156,136,234,224,136,224
-170,102,273,34,-222,187,141,122,219,204,131,234
-156,97,253,29,-204,175,126,107,204,195,126,234
-141,92,234,24,-187,163,112,92,190,185,122,234
-126,87,214,19,-170,151,97,78,175,175,117,234
-107,82,190,12,-148,136,78,63,161,156,107,244
-97,78,175,9,-136,126,68,48,146,146,97,244
-87,73,161,7,-124,117,58,34,131,136,87,244
-78,68,146,4,-112,107,48,19,117,126,78,244
-58,68,126,-4,-92,97,34,0,97,117,63,234
-48,68,117,-9,-82,92,29,-9,87,107,58,234
-39,68,107,-14,-73,87,24,-19,78,97,53,234
-29,68,97,-19,-63,82,19,-29,68,87,48,234
-14,53,68,-19,-41,61,9,-48,58,78,43,224
-9,48,58,-19,-34,53,0,-58,48,68,39,224
-4,43,48,-19,-26,46,-9,-68,39,58,34,224
0,39,39,-19,-19,39,-19,-78,29,48,29,224
9,39,29,-24,-9,34,-19,-78,19,43,19,214
9,39,29,-24,-9,34,-19,-78,19,39,19,214
9,39,29,-24,-9,34,-19,-78,19,34,19,214
9,39,29,-24,-9,34,-19,-78,19,29,19,214
19,29,9,-24,4,19,-29,-82,14,19,9,209
19,29,9,-24,4,19,-29,-87,9,19,9,204
19,29,9,-24,4,19,-29,-92,4,19,9,200
19,29,9,-24,4,19,-29,-97,0,19,9,195
19,19,0,-19,9,9,-39,-102,-9,9,9,185
19,19,0,-19,9,9,-39,-107,-9,9,9,185
19,19,0,-19,9,9,-39,-112,-9,9,9,185
19,19,0,-19,9,9,-39,-117,-9,9,9,185
19,19,0,-19,9,9,-39,-117,-19,0,0,180
19,19,0,-19,9,9,-39,-117,-19,0,0,175
19,19,0,-19,9,9,-39,-117,-19,0,0,170
19,19,0,-19,9,9,-39,-117,-19,0,0,165
19,19,0,-19,9,9,-39,-126,-19,0,0,165
19,19,0,-19,9,9,-39,-126,-19,0,0,165
19,19,0,-19,9,9,-39,-126,-19,0,0,165
19,19,0,-19,9,9,-39,-126,-19,0,0,165
19,19,0,-19,9,9,-39,-126,-29,-9,0,156
19,19,0,-19,9,9,-39,-126,-29,-9,0,156
19,19,0,-19,9,9,-39,-126,-29,-9,0,156
19,19,0,-19,9,9,-39,-126,-29,-9,0,156
19,19,0,-19,9,9,-39,-126,-29,-9,0,146
19,19,0,-19,9,9,-39,-126,-29,-9,0,146
19,19,0,-19,9,9,-39,-126,-29,-9,0,146
19,19,0,-19,9,9,-39,-126,-29,-9,0,146
19,29,9,-24,4,19,-39,-126,-19,-9,0,146
19,29,9,-24,4,19,-39,-126,-19,-9,0,146
19,29,9,-24,4,19,-39,-126,-19,-9,0,146
19,29,9,-24,4,19,-39,-126,-19,-9,0,146
9,29,19,-19,-4,24,-48,-126,-24,-9,-9,136
9,29,19,-19,-4,24,-48,-126,-29,-9,-9,136
9,29,19,-19,-4,24,-48,-126,-34,-9,-9,136
9,29,19,-19,-4,24,-48,-126,-39,-9,-9,136
0,24,24,-12,-12,24,-48,-136,-39,-19,-19,126
0,19,19,-9,-9,19,-48,-136,-39,-19,-19,126
0,14,14,-7,-7,14,-48,-136,-39,-19,-19,126
0,9,9,-4,-4,9,-48,-136,-39,-19,-19,126
-9,19,29,-4,-19,24,-48,-126,-29,-9,-9,126
-9,19,29,-4,-19,24,-48,-126,-29,-9,-9,126
-9,19,29,-4,-19,24,-48,-126,-29,-9,-9,126
-9,19,29,-4,-19,24,-48,-126,-29,-9,-9,126
-9,19,29,-4,-19,24,-48,-126,-29,-9,0,126
-9,19,29,-4,-19,24,-48,-126,-29,-9,0,126
-9,19,29,-4,-19,24,-48,-126,-29,-9,0,126
-9,19,29,-4,-19,24,-48,-126,-29,-9,0,126
0,9,9,-4,-4,9,-39,-122,-29,-19,-9,117
0,9,9,-4,-4,9,-39,-117,-29,-19,-9,117
0,9,9,-4,-4,9,-39,-112,-29,-19,-9,117
0,9,9,-4,-4,9,-39,-107,-29,-19,-9,117
0,19,19,-9,-9,19,-48,-107,-29,-19,0,107
0,19,19,-9,-9,19,-48,-107,-29,-19,0,107
0,19,19,-9,-9,19,-48,-107,-29,-19,0,107
0,19,19,-9,-9,19,-48,-107,-29,-19,0,107
0,19,19,-9,-9,19,-48,-102,-24,-9,0,97
0,19,19,-9,-9,19,-48,-97,-19,-9,0,97
0,19,19,-9,-9,19,-48,-92,-14,-9,0,97
0,19,19,-9,-9,19,-48,-87,-9,-9,0,97
9,19,9,-14,0,14,-39,-87,-19,-9,9,97
9,19,9,-14,0,14,-39,-87,-19,-9,9,97
9,19,9,-14,0,14,-39,-87,-19,-9,9,97
9,19,9,-14,0,14,-39,-87,-19,-9,9,97
9,29,19,-19,-4,24,-39,-78,-9,0,9,87
9,29,19,-19,-4,24,-39,-78,-9,0,9,87
9,29,19,-19,-4,24,-39,-78,-9,0,9,87
9,29,19,-19,-4,24,-39,-78,-9,0,9,87
19,19,0,-19,9,9,-39,-73,-9,0,9,82
19,19,0,-19,9,9,-39,-68,-9,0,9,78
19,19,0,-19,9,9,-39,-63,-9,0,9,73
19,19,0,-19,9,9,-39,-58,-9,0,9,68
14,19,4,-17,4,12,-39,-48,0,0,9,58
9,19,9,-14,0,14,-39,-48,0,0,9,58
4,19,14,-12,-4,17,-39,-48,0,0,9,58
0,19,19,-9,-9,19,-39,-48,0,0,9,58
9,19,9,-14,0,14,-39,-39,9,9,19,68
9,19,9,-14,0,14,-39,-39,9,9,19,68
9,19,9,-14,0,14,-39,-39,9,9,19,68
9,19,9,-14,0,14,-39,-39,9,9,19,68
19,19,0,-19,9,9,-39,-48,9,9,9,68
19,19,0,-19,9,9,-39,-48,9,9,9,68
19,19,0,-19,9,9,-39,-48,9,9,9,68
19,19,0,-19,9,9,-39,-48,9,9,9,68
19,24,4,-21,7,14,-29,-43,19,19,19,78
19,29,9,-24,4,19,-29,-39,19,19,19,78
19,34,14,-26,2,24,-29,-34,19,19,19,78
19,39,19,-29,0,29,-29,-29,19,19,19,78
24,39,14,-31,4,26,-29,-19,19,19,19,82
29,39,9,-34,9,24,-29,-19,19,19,19,87
34,39,4,-36,14,21,-29,-19,19,19,19,92
39,39,0,-39,19,19,-29,-19,19,19,19,97
29,39,9,-34,9,24,-29,-19,29,19,19,107
29,39,9,-34,9,24,-29,-19,29,19,19,107
29,39,9,-34,9,24,-29,-19,29,19,19,107
29,39,9,-34,9,24,-29,-19,29,19,19,107
19,34,14,-26,2,24,-29,-29,24,9,9,117
19,29,9,-24,4,19,-29,-29,19,9,9,117
19,24,4,-21,7,14,-29,-29,14,9,9,117
19,19,0,-19,9,9,-29,-29,9,9,9,117
24,24,0,-24,12,12,-39,-29,19,19,19,122
29,29,0,-29,14,14,-39,-29,19,19,19,126
34,34,0,-34,17,17,-39,-29,19,19,19,131
39,39,0,-39,19,19,-39,-29,19,19,19,136
39,48,9,-43,14,29,-29,-29,19,19,29,136
39,48,9,-43,14,29,-29,-29,19,19,29,136
39,48,9,-43,14,29,-29,-29,19,19,29,136
39,48,9,-43,14,29,-29,-29,19,19,29,136
24,34,9,-29,7,21,-39,-39,9,9,19,131
19,29,9,-24,4,19,-39,-39,9,9,19,126
14,24,9,-19,2,17,-39,-39,9,9,19,122
9,19,9,-14,0,14,-39,-39,9,9,19,117
14,29,14,-21,0,21,-48,-39,9,9,19,107
19,29,9,-24,4,19,-48,-39,9,9,19,107
24,29,4,-26,9,17,-48,-39,9,9,19,107
29,29,0,-29,14,14,-48,-39,9,9,19,107
19,29,9,-24,4,19,-39,-39,9,19,19,97
19,29,9,-24,4,19,-39,-39,9,19,19,97
19,29,9,-24,4,19,-39,-39,9,19,19,97
19,29,9,-24,4,19,-39,-39,9,19,19,97
29,29,0,-29,14,14,-39,-48,0,9,19,92
29,29,0,-29,14,14,-39,-48,0,9,19,87
29,29,0,-29,14,14,-39,-48,0,9,19,82
29,29,0,-29,14,14,-39,-48,0,9,19,78
29,29,0,-29,14,14,-48,-58,0,9,29,73
29,29,0,-29,14,14,-48,-58,0,9,29,68
29,29,0,-29,14,14,-48,-58,0,9,29,63
29,29,0,-29,14,14,-48,-58,0,9,29,58
24,29,4,-26,9,17,-39,-48,0,9,19,58
19,29,9,-24,4,19,-39,-48,0,9,19,58
14,29,14,-21,0,21,-39,-48,0,9,19,58
9,29,19,-19,-4,24,-39,-48,0,9,19,58
19,29,9,-24,4,19,-48,-48,-9,9,19,48
19,29,9,-24,4,19,-48,-48,-9,9,19,48
19,29,9,-24,4,19,-48,-48,-9,9,19,48
19,29,9,-24,4,19,-48,-48,-9,9,19,48
19,14,-4,-17,12,4,-48,-48,0,9,19,39
19,9,-9,-14,14,0,-48,-48,0,9,19,39
19,4,-14,-12,17,-4,-48,-48,0,9,19,39
19,0,-19,-9,19,-9,-48,-48,0,9,19,39
19,9,-9,-14,14,0,-48,-48,-9,0,9,39
19,9,-9,-14,14,0,-48,-48,-9,0,9,39
19,9,-9,-14,14,0,-48,-48,-9,0,9,39
19,9,-9,-14,14,0,-48,-48,-9,0,9,39
19,9,-9,-14,14,0,-48,-48,-9,0,9,39
19,9,-9,-14,14,0,-48,-48,-9,0,9,39
19,9,-9,-14,14,0,-48,-48,-9,0,9,39
19,9,-9,-14,14,0,-48,-48,-9,0,9,39
9,0,-9,-4,9,-4,-48,-58,-9,0,9,48
9,0,-9,-4,9,-4,-48,-58,-9,0,9,48
9,0,-9,-4,9,-4,-48,-58,-9,0,9,48
9,0,-9,-4,9,-4,-48,-58,-9,0,9,48
0,9,9,-4,-4,9,-48,-58,-9,0,9,58
0,9,9,-4,-4,9,-48,-58,-9,0,9,58
0,9,9,-4,-4,9,-48,-58,-9,0,9,58
0,9,9,-4,-4,9,-48,-58,-9,0,9,58
-9,0,9,4,-9,4,-39,-58,-19,-9,0,68
-9,0,9,4,-9,4,-39,-58,-19,-9,0,68
-9,0,9,4,-9,4,-39,-58,-19,-9,0,68
-9,0,9,4,-9,4,-39,-58,-19,-9,0,68
0,0,0,0,0,0,-39,-58,-9,-9,9,68
0,0,0,0,0,0,-39,-58,-9,-9,9,68
0,0,0,0,0,0,-39,-58,-9,-9,9,68
0,0,0,0,0,0,-39,-58,-9,-9,9,68
14,4,-9,-9,12,-2,-39,-58,-9,0,9,68
19,9,-9,-14,14,0,-39,-58,-9,0,9,68
24,14,-9,-19,17,2,-39,-58,-9,0,9,68
29,19,-9,-24,19,4,-39,-58,-9,0,9,68
19,19,0,-19,9,9,-39,-58,-19,-9,9,68
19,19,0,-19,9,9,-39,-58,-19,-9,9,68
19,19,0,-19,9,9,-39,-58,-19,-9,9,68
19,19,0,-19,9,9,-39,-58,-19,-9,9,68
4,14,9,-9,-2,12,-48,-58,-19,-9,0,68
0,9,9,-4,-4,9,-48,-58,-19,-9,0,68
-4,4,9,0,-7,7,-48,-58,-19,-9,0,68
-9,0,9,4,-9,4,-48,-58,-19,-9,0,68
0,0,0,0,0,0,-39,-58,-9,-9,0,68
0,0,0,0,0,0,-39,-58,-9,-9,0,68
0,0,0,0,0,0,-39,-58,-9,-9,0,68
0,0,0,0,0,0,-39,-58,-9,-9,0,68
9,0,-9,-4,9,-4,-39,-58,-9,-9,-9,58
9,0,-9,-4,9,-4,-39,-58,-9,-9,-9,58
9,0,-9,-4,9,-4,-39,-58,-9,-9,-9,58
9,0,-9,-4,9,-4,-39,-58,-9,-9,-9,58
9,9,0,-9,4,4,-39,-58,-19,-9,0,68
9,9,0,-9,4,4,-39,-58,-19,-9,0,68
9,9,0,-9,4,4,-39,-58,-19,-9,0,68
9,9,0,-9,4,4,-39,-58,-19,-9,0,68
0,9,9,-4,-4,9,-39,-68,-19,-9,0,68
0,9,9,-4,-4,9,-39,-68,-19,-9,0,68
0,9,9,-4,-4,9,-39,-68,-19,-9,0,68
0,9,9,-4,-4,9,-39,-68,-19,-9,0,68
0,0,0,0,0,0,-39,-58,-9,-9,0,68
0,0,0,0,0,0,-39,-58,-9,-9,0,68
0,0,0,0,0,0,-39,-58,-9,-9,0,68
0,0,0,0,0,0,-39,-58,-9,-9,0,68
9,9,0,-9,4,4,-39,-58,-9,-9,9,58
9,9,0,-9,4,4,-39,-58,-9,-9,9,58
9,9,0,-9,4,4,-39,-58,-9,-9,9,58
9,9,0,-9,4,4,-39,-58,-9,-9,9,58
9,14,4,-12,2,9,-39,-58,-9,-9,9,48
9,19,9,-14,0,14,-39,-58,-9,-9,9,48
9,24,14,-17,-2,19,-39,-58,-9,-9,9,48
9,29,19,-19,-4,24,-39,-58,-9,-9,9,48
19,29,9,-24,4,19,-39,-48,0,0,9,48
19,29,9,-24,4,19,-39,-48,0,0,9,48
19,29,9,-24,4,19,-39,-48,0,0,9,48
19,29,9,-24,4,19,-39,-48,0,0,9,48
29,43,14,-36,7,29,-34,-39,4,4,14,58
29,48,19,-39,4,34,-29,-29,9,9,19,58
29,53,24,-41,2,39,-24,-19,14,14,24,58
29,58,29,-43,0,43,-19,-9,19,19,29,58
29,73,43,-51,-7,58,-14,-4,34,34,34,63
29,78,48,-53,-9,63,-9,0,39,39,39,68
29,82,53,-56,-12,68,-4,4,43,43,43,73
29,87,58,-58,-14,73,0,9,48,48,48,78
19,97,78,-58,-29,87,4,14,53,53,53,82
19,97,78,-58,-29,87,9,19,58,58,58,87
19,97,78,-58,-29,87,14,24,63,63,63,92
19,97,78,-58,-29,87,19,29,68,68,68,97
24,107,82,-65,-29,95,19,34,73,78,68,107
29,107,78,-68,-24,92,19,39,78,78,68,107
34,107,73,-70,-19,90,19,43,82,78,68,107
39,107,68,-73,-14,87,19,48,87,78,68,107
48,102,53,-75,-2,78,14,39,78,68,68,97
48,97,48,-73,0,73,9,39,78,68,68,97
48,92,43,-70,2,68,4,39,78,68,68,97
48,87,39,-68,4,63,0,39,78,68,68,97
39,78,39,-58,0,58,-14,24,73,63,58,97
39,78,39,-58,0,58,-19,19,68,58,58,97
39,78,39,-58,0,58,-24,14,63,53,58,97
39,78,39,-58,0,58,-29,9,58,48,58,97
39,82,43,-61,-2,63,-48,-4,53,48,58,107
39,87,48,-63,-4,68,-58,-19,48,48,58,107
39,92,53,-65,-7,73,-68,-34,43,48,58,107
39,97,58,-68,-9,78,-78,-48,39,48,58,107
48,97,48,-73,0,73,-92,-53,24,48,48,107
48,97,48,-73,0,73,-97,-58,19,48,48,107
48,97,48,-73,0,73,-102,-63,14,48,48,107
48,97,48,-73,0,73,-107,-68,9,48,48,107
48,82,34,-65,7,58,-107,-78,4,39,43,102
48,78,29,-63,9,53,-107,-78,0,29,39,97
48,73,24,-61,12,48,-107,-78,-4,19,34,92
48,68,19,-58,14,43,-107,-78,-9,9,29,87
48,68,19,-58,14,43,-117,-82,-14,0,24,82
48,68,19,-58,14,43,-117,-87,-19,0,19,78
48,68,19,-58,14,43,-117,-92,-24,0,14,73
48,58,9,-53,19,34,-117,-97,-34,-4,9,68
48,43,-4,-46,26,19,-107,-107,-39,-19,0,78
43,39,-4,-41,24,17,-107,-107,-48,-24,-4,68
39,29,-9,-34,24,9,-102,-112,-58,-34,-9,63
34,29,-4,-31,19,12,-97,-112,-58,-34,-14,58
34,29,-4,-31,19,12,-97,-107,-68,-24,-4,68
29,24,-4,-26,17,9,-87,-107,-63,-24,-4,73
29,14,-14,-21,21,0,-82,-107,-63,-24,-4,73
29,14,-14,-21,21,0,-78,-102,-58,-24,-4,73
34,14,-19,-24,26,-2,-73,-97,-48,-34,-14,63
34,14,-19,-24,26,-2,-73,-97,-48,-29,-14,63
24,9,-14,-17,19,-2,-73,-97,-48,-29,-14,63
19,9,-9,-14,14,0,-68,-92,-43,-34,-9,63
19,0,-19,-9,19,-9,-78,-102,-53,-34,0,73
19,-4,-24,-7,21,-14,-73,-102,-53,-34,0,73
19,-4,-24,-7,21,-14,-73,-102,-53,-34,0,73
19,-4,-24,-7,21,-14,-68,-102,-53,-29,0,73
24,4,-19,-14,21,-7,-58,-82,-43,-29,-4,73
14,0,-14,-7,14,-7,-53,-78,-43,-24,-9,73
4,-9,-14,2,9,-12,-48,-73,-43,-24,-14,63
0,-9,-9,4,4,-9,-39,-68,-43,-24,-19,63
-24,-4,19,14,-21,7,-24,-58,-24,-14,-14,68
-24,-4,19,14,-21,7,-19,-58,-24,-14,-9,68
-29,-4,24,17,-26,9,-9,-58,-24,-19,-9,68
-29,-4,24,17,-26,9,-4,-63,-24,-19,-9,58
-24,0,24,12,-24,12,-9,-53,-24,-9,-4,58
-24,0,24,12,-24,12,-9,-53,-29,-14,-4,53
-24,0,24,12,-24,12,-9,-63,-34,-19,-4,53
-24,0,24,12,-24,12,-9,-63,-34,-19,-4,53
-39,-34,4,36,-21,-14,-14,-68,-39,-29,-14,43
-43,-43,0,43,-21,-21,-19,-68,-43,-34,-19,43
-48,-53,-4,51,-21,-29,-24,-73,-48,-39,-24,34
-68,-73,-4,70,-31,-39,-29,-78,-53,-43,-29,29
-82,-78,4,80,-43,-36,-24,-82,-53,-34,-34,39
-82,-82,0,82,-41,-41,-19,-82,-53,-34,-34,39
-82,-78,4,80,-43,-36,-14,-82,-48,-34,-39,34
-78,-68,9,73,-43,-29,-9,-82,-48,-34,-39,34
-58,-58,0,58,-29,-29,-9,-68,-48,-34,-29,43
-58,-48,9,53,-34,-19,-9,-68,-48,-34,-29,43
-53,-43,9,48,-31,-17,-4,-63,-48,-34,-24,48
-53,-43,9,48,-31,-17,-4,-63,-43,-34,-24,48
-53,-53,0,53,-26,-26,-14,-73,-43,-34,-39,39
-58,-63,-4,61,-26,-34,-14,-73,-43,-34,-39,39
-58,-63,-4,61,-26,-34,-19,-73,-43,-39,-39,39
-58,-68,-9,63,-24,-39,-19,-73,-53,-39,-43,29
-53,-63,-9,58,-21,-36,-9,-63,-53,-48,-34,29
-48,-58,-9,53,-19,-34,-9,-63,-53,-48,-34,29
-39,-48,-9,43,-14,-29,-9,-68,-53,-48,-34,34
-34,-39,-4,36,-14,-21,-9,-68,-48,-48,-29,34
-34,-39,-4,36,-14,-21,4,-63,-39,-34,-29,39
-34,-39,-4,36,-14,-21,4,-58,-34,-34,-29,39
-34,-39,-4,36,-14,-21,4,-58,-34,-34,-29,43
-34,-39,-4,36,-14,-21,4,-58,-34,-34,-29,43
-34,-34,0,34,-17,-17,4,-68,-43,-34,-24,48
-34,-34,0,34,-17,-17,4,-63,-43,-34,-24,48
-34,-34,0,34,-17,-17,4,-63,-43,-34,-24,48
-34,-34,0,34,-17,-17,4,-68,-43,-34,-24,48
-34,-39,-4,36,-14,-21,-4,-68,-34,-34,-24,53
-39,-43,-4,41,-17,-24,-4,-68,-34,-34,-24,53
-43,-48,-4,46,-19,-26,-4,-68,-34,-34,-24,43
-43,-48,-4,46,-19,-26,-4,-68,-34,-34,-24,53
-39,-43,-4,41,-17,-24,4,-53,-34,-34,-14,63
-43,-39,4,41,-24,-17,4,-53,-34,-34,-14,63
-48,-39,9,43,-29,-14,4,-53,-39,-34,-14,63
-53,-39,14,46,-34,-12,4,-53,-39,-34,-14,63
-43,-48,-4,46,-19,-26,0,-63,-29,-34,-19,53
-43,-43,0,43,-21,-21,0,-63,-39,-34,-19,53
-34,-43,-9,39,-12,-26,-4,-48,-34,-29,-19,43
-48,-29,19,39,-34,-4,9,-43,-29,-29,-9,43
-82,-9,73,46,-78,31,43,-29,-14,-9,4,48
-117,29,146,43,-131,87,87,0,24,24,4,48
-165,53,219,56,-192,136,136,43,58,53,4,34
-234,87,322,73,-278,204,185,102,82,68,0,14
-297,112,409,92,-353,261,244,165,122,87,-9,-4
-322,131,453,95,-387,292,302,239,165,117,4,-4
-336,170,507,82,-422,339,336,312,229,170,39,-4
-356,185,541,85,-448,363,395,429,317,239,58,-14
-370,214,585,78,-478,400,478,575,444,322,87,0
-385,268,653,58,-519,461,551,756,610,429,161,34
-424,346,771,39,-597,558,639,917,775,556,258,92
-434,429,863,2,-649,646,683,990,902,683,375,161
-385,502,888,-58,-636,695,644,941,946,780,502,248
-317,600,917,-141,-617,758,541,800,907,849,629,361
-214,697,912,-241,-563,805,385,570,834,907,785,522
-19,834,854,-407,-436,844,151,336,790,1000,995,746
244,1005,761,-624,-258,883,-126,122,756,1107,1239,1019
561,1180,619,-871,-29,900,-424,-117,712,1185,1468,1273
854,1332,478,-1093,187,905,-732,-351,629,1220,1610,1478
1102,1410,307,-1256,397,858,-976,-536,566,1190,1683,1634
1395,1390,-4,-1393,700,692,-1176,-639,536,1132,1717,1751
1683,1273,-409,-1478,1046,431,-1356,-727,488,995,1668,1825
1873,1058,-814,-1466,1344,122,-1478,-902,361,775,1517,1810
1937,722,-1215,-1329,1576,-246,-1522,-1224,58,419,1215,1678
1917,248,-1668,-1083,1793,-710,-1512,-1605,-424,-102,732,1376
1878,-204,-2083,-836,1981,-1144,-1478,-1844,-917,-629,209,1005
1830,-507,-2337,-661,2083,-1422,-1420,-1932,-1254,-1034,-239,663
1708,-673,-2381,-517,2044,-1527,-1376,-2030,-1537,-1337,-614,366
1551,-795,-2347,-378,1949,-1571,-1332,-2098,-1766,-1561,-946,43
1439,-844,-2283,-297,1861,-1564,-1278,-2069,-1854,-1673,-1156,-224
1429,-849,-2278,-290,1854,-1564,-1259,-2034,-1859,-1693,-1234,-341
1459,-839,-2298,-309,1878,-1568,-1254,-1966,-1834,-1688,-1249,-390
1483,-849,-2332,-317,1908,-1590,-1215,-1839,-1771,-1654,-1259,-429
1468,-854,-2322,-307,1895,-1588,-1161,-1698,-1698,-1605,-1239,-453
1429,-868,-2298,-280,1864,-1583,-1107,-1581,-1620,-1556,-1224,-478
1356,-878,-2235,-239,1795,-1556,-1029,-1459,-1542,-1493,-1210,-536
1205,-868,-2074,-168,1639,-1471,-922,-1332,-1420,-1405,-1161,-570
1010,-824,-1834,-92,1422,-1329,-800,-1210,-1293,-1288,-1068,-570
814,-795,-1610,-9,1212,-1202,-688,-1093,-1180,-1171,-990,-551
663,-771,-1434,53,1049,-1102,-600,-995,-1068,-1083,-922,-536
527,-746,-1273,109,900,-1010,-507,-878,-956,-976,-854,-507
380,-683,-1063,151,722,-873,-424,-775,-844,-868,-780,-458
326,-610,-936,141,631,-773,-380,-697,-771,-785,-717,-429
326,-536,-863,104,595,-700,-351,-624,-697,-712,-639,-375
297,-453,-751,78,524,-602,-302,-527,-600,-614,-536,-317
219,-380,-600,80,409,-490,-234,-429,-488,-507,-448,-263
136,-331,-468,97,302,-400,-170,-341,-385,-405,-356,-219
53,-297,-351,122,202,-324,-126,-263,-283,-317,-283,-185
4,-263,-268,129,136,-265,-82,-200,-209,-253,-234,-151
-19,-214,-195,117,87,-204,-43,-136,-165,-204,-209,-117
-24,-170,-146,97,61,-158,-14,-92,-122,-165,-170,-97
-29,-136,-107,82,39,-122,0,-53,-87,-126,-136,-78
-29,-107,-78,68,24,-92,19,-19,-63,-92,-102,-63
-39,-82,-43,61,2,-63,29,0,-34,-78,-73,-53
-39,-73,-34,56,-2,-53,34,0,-24,-68,-58,-43
-48,-63,-14,56,-17,-39,48,0,-4,-48,-53,-39
-63,-63,0,63,-31,-31,48,-4,-4,-39,-53,-29
-68,-63,4,65,-36,-29,48,-4,-4,-39,-53,-19
-73,-63,9,68,-41,-26,48,-4,-4,-43,-53,-19
-82,-68,14,75,-48,-26,48,-4,-9,-43,-53,-19
-87,-73,14,80,-51,-29,43,-4,-14,-48,-53,-19
-82,-63,19,73,-51,-21,43,4,-4,-39,-48,-9
-82,-63,19,73,-51,-21,43,9,4,-24,-39,-4
-87,-58,29,73,-58,-14,53,19,14,-9,-24,0
-92,-48,43,70,-68,-2,53,19,19,-9,-19,4
-97,-48,48,73,-73,0,53,29,19,-9,-29,4
-97,-53,43,75,-70,-4,48,34,19,-14,-29,4
-97,-53,43,75,-70,-4,48,34,19,-14,-29,4
-92,-43,48,68,-70,2,53,34,19,-14,-29,4
-92,-48,43,70,-68,-2,53,29,9,-14,-29,-14
-87,-48,39,68,-63,-4,53,29,14,-14,-29,-19
-87,-53,34,70,-61,-9,53,29,14,-9,-29,-24
-107,-53,53,80,-80,0,53,29,14,-4,-24,-24
-107,-53,53,80,-80,0,58,29,24,0,-14,-24
-112,-53,58,82,-85,2,68,29,24,0,-14,-24
-112,-58,53,85,-82,-2,58,24,19,0,-19,-34
-112,-63,48,87,-80,-7,58,24,19,-9,-19,-39
-107,-73,34,90,-70,-19,48,24,4,-24,-29,-68
-107,-68,39,87,-73,-14,48,19,4,-24,-29,-73
-102,-53,48,78,-75,-2,48,19,4,-19,-29,-82
-97,-53,43,75,-70,-4,53,24,14,-14,-29,-87
-97,-43,53,70,-75,4,68,29,24,-4,-24,-82
-97,-53,43,75,-70,-4,68,34,24,0,-24,-87
-102,-53,48,78,-75,-2,68,34,24,0,-24,-92
-102,-53,48,78,-75,-2,68,34,19,-9,-29,-102
-122,-43,78,82,-100,17,78,34,14,-14,-29,-107
-122,-43,78,82,-100,17,78,34,9,-14,-29,-107
-126,-48,78,87,-102,14,78,34,9,-14,-34,-107
-126,-48,78,87,-102,14,78,34,14,-14,-34,-107
-122,-58,63,90,-92,2,68,34,14,-14,-34,-117
-122,-48,73,85,-97,12,68,34,14,-14,-29,-117
-122,-43,78,82,-100,17,73,39,19,-14,-29,-112
-117,-43,73,80,-95,14,73,39,19,-14,-34,-107
-126,-53,73,90,-100,9,63,34,9,-29,-39,-112
-131,-53,78,92,-104,12,63,34,9,-34,-43,-107
-131,-58,73,95,-102,7,63,34,4,-34,-43,-107
-131,-58,73,95,-102,7,63,34,4,-29,-43,-102
-117,-48,68,82,-92,9,63,34,9,-34,-48,-102
-112,-48,63,80,-87,7,63,39,9,-39,-48,-97
-117,-48,68,82,-92,9,58,39,9,-43,-48,-92
-102,-48,53,75,-78,2,58,39,9,-48,-48,-87
-107,-43,63,75,-85,9,63,53,19,-34,-48,-78
-112,-43,68,78,-90,12,68,53,19,-29,-48,-78
-117,-43,73,80,-95,14,73,53,19,-24,-48,-73
-122,-48,73,85,-97,12,82,58,19,-19,-48,-73
-131,-43,87,87,-109,21,73,58,19,-29,-43,-63
-141,-43,97,92,-119,26,73,53,14,-29,-43,-63
-156,-43,112,100,-134,34,73,53,14,-29,-43,-58
-161,-43,117,102,-139,36,73,58,14,-29,-43,-53
-156,-48,107,102,-131,29,63,58,19,-24,-53,-63
-151,-48,102,100,-126,26,63,63,19,-24,-53,-63
-146,-48,97,97,-122,24,68,63,19,-24,-58,-63
-141,-48,92,95,-117,21,68,68,19,-24,-58,-63
-151,-48,102,100,-126,26,78,68,29,-14,-48,-63
-161,-53,107,107,-134,26,82,68,29,-14,-58,-63
-165,-53,112,109,-139,29,82,68,29,-14,-58,-58
-165,-53,112,109,-139,29,82,73,29,-14,-58,-53
-165,-53,112,109,-139,29,82,78,24,-14,-58,-58
-161,-53,107,107,-134,26,82,78,24,-14,-58,-63
-161,-53,107,107,-134,26,87,82,24,-9,-58,-68
-161,-53,107,107,-134,26,87,82,29,-9,-58,-73
-156,-43,112,100,-134,34,92,78,29,-19,-68,-73
-156,-43,112,100,-134,34,92,78,29,-19,-73,-73
-165,-43,122,104,-143,39,97,87,29,-14,-73,-73
-156,-43,112,100,-134,34,97,92,34,-14,-73,-73
-156,-53,102,104,-129,24,102,82,34,-4,-73,-63
-156,-53,102,104,-129,24,107,92,39,0,-73,-63
-156,-48,107,102,-131,29,112,97,39,4,-73,-58
-156,-43,112,100,-134,34,117,97,48,4,-68,-53
-170,-48,122,109,-146,36,122,102,53,9,-58,-39
-175,-48,126,112,-151,39,122,112,53,9,-58,-39
-180,-48,131,114,-156,41,122,117,53,9,-63,-34
-195,-48,146,122,-170,48,122,126,58,9,-63,-34
-200,-39,161,119,-180,61,117,136,68,14,-68,-39
-195,-39,156,117,-175,58,117,141,73,19,-63,-29
-195,-39,156,117,-175,58,126,146,78,24,-63,-24
-190,-34,156,112,-173,61,131,156,82,29,-63,-24
-175,-24,151,100,-163,63,141,170,87,34,-63,-14
-175,-24,151,100,-163,63,156,175,92,39,-58,-9
-180,-34,146,107,-163,56,161,180,97,43,-58,-9
-195,-34,161,114,-178,63,170,180,102,43,-58,-9
-209,-34,175,122,-192,70,161,180,112,48,-58,0
-224,-39,185,131,-204,73,165,185,117,48,-58,0
-229,-43,185,136,-207,70,170,190,122,58,-53,0
-239,-48,190,143,-214,70,180,195,131,63,-53,0
-244,-39,204,141,-224,82,185,214,131,78,-43,9
-253,-34,219,143,-236,92,190,224,141,82,-39,9
-253,-29,224,141,-239,97,195,234,146,87,-39,4
-253,-24,229,139,-241,102,200,244,151,92,-34,-4
-263,-14,248,139,-256,117,209,258,170,92,-34,-4
-258,-14,244,136,-251,114,219,263,175,97,-24,-9
-258,-14,244,136,-251,114,234,278,190,107,-24,-14
-263,-14,248,139,-256,117,244,283,190,117,-24,-19
-263,-9,253,136,-258,122,248,287,190,112,-34,-29
-268,-9,258,139,-263,124,253,287,195,112,-24,-34
-278,-14,263,146,-270,124,258,297,204,117,-24,-43
-278,-14,263,146,-270,124,268,312,209,122,-24,-43
-283,4,287,139,-285,146,263,312,219,136,-14,-58
-283,19,302,131,-292,161,273,322,224,136,-4,-58
-287,14,302,136,-295,158,278,336,234,141,-4,-73
-317,14,331,151,-324,173,283,346,244,151,-4,-73
-322,4,326,158,-324,165,297,361,258,156,4,-82
-326,4,331,161,-329,168,307,366,263,161,9,-82
-326,4,331,161,-329,168,307,370,273,170,14,-82
-322,19,341,151,-331,180,307,380,278,175,24,-82
-326,24,351,151,-339,187,317,380,273,175,19,-92
-336,24,361,156,-348,192,322,390,287,180,24,-87
-346,34,380,156,-363,207,326,400,297,185,29,-87
-356,39,395,158,-375,217,331,400,297,190,34,-92
-366,43,409,161,-387,226,336,414,317,209,43,-92
-375,48,424,163,-400,236,336,419,322,214,48,-92
-380,48,429,165,-405,239,346,419,326,219,53,-87
-395,48,444,173,-419,246,346,419,331,224,58,-87
-409,48,458,180,-434,253,346,414,322,224,53,-82
-414,48,463,183,-439,256,346,414,322,229,58,-82
-414,53,468,180,-441,261,346,405,322,229,58,-82
-409,58,468,175,-439,263,346,405,322,229,73,-78
-400,68,468,165,-434,268,336,409,322,234,73,-73
-405,68,473,168,-439,270,336,409,326,244,78,-63
-405,68,473,168,-439,270,336,400,326,244,82,-68
-419,68,488,175,-453,278,336,400,326,253,87,-68
-409,68,478,170,-444,273,326,385,322,248,92,-63
-409,73,483,168,-446,278,322,380,322,253,97,-58
-405,78,483,163,-444,280,317,370,322,253,97,-53
-400,82,483,158,-441,283,312,366,322,258,107,-39
-400,92,492,153,-446,292,307,370,322,263,117,-34
-390,97,488,146,-439,292,302,366,322,268,126,-14
-375,102,478,136,-427,290,302,361,326,273,136,-4
-366,117,483,124,-424,300,292,351,326,278,136,4
-361,122,483,119,-422,302,283,341,336,278,161,24
-346,122,468,112,-407,295,278,331,336,283,165,34
-336,122,458,107,-397,290,268,317,336,283,170,53
-326,122,448,102,-387,285,248,312,326,278,170,58
-322,122,444,100,-383,283,234,283,307,268,165,63
-302,122,424,90,-363,273,219,273,302,263,170,73
-283,122,405,80,-344,263,204,258,287,263,170,68
-263,117,380,73,-322,248,195,234,278,253,165,78
-244,117,361,63,-302,239,175,224,263,244,170,82
-219,122,341,48,-280,231,156,209,253,239,170,82
-200,122,322,39,-261,222,136,185,239,229,165,82
-180,122,302,29,-241,212,117,170,224,219,161,92
-151,112,263,19,-207,187,117,161,209,200,156,97
-141,92,234,24,-187,163,102,146,195,190,151,97
-136,87,224,24,-180,156,87,126,180,175,136,97
-126,82,209,21,-168,146,73,102,165,165,126,97
-107,73,180,17,-143,126,58,92,141,141,117,97
-87,73,161,7,-124,117,53,82,131,126,112,97
-73,73,146,0,-109,109,43,68,122,122,102,92
-68,68,136,0,-102,102,34,53,107,112,92,92
-53,68,122,-7,-87,95,24,39,82,97,82,82
-43,68,112,-12,-78,90,14,24,78,92,78,87
-24,63,87,-19,-56,75,14,19,68,82,73,87
-9,63,73,-26,-41,68,9,0,53,73,68,87
-9,53,63,-21,-36,58,-4,-9,58,63,63,78
-4,48,53,-21,-29,51,-4,-14,48,53,58,78
-4,43,48,-19,-26,46,-9,-19,43,48,53,73
-9,39,48,-14,-29,43,-9,-29,34,48,48,68
0,43,43,-21,-21,43,-19,-39,24,34,48,73
4,43,39,-24,-17,41,-34,-48,9,24,39,68
9,39,29,-24,-9,34,-34,-53,9,19,39,68
19,43,24,-31,-2,34,-34,-58,4,19,39,68
24,39,14,-31,4,26,-24,-58,0,4,43,58
19,39,19,-29,0,29,-29,-63,-4,0,39,58
19,34,14,-26,2,24,-29,-58,-4,0,34,58
14,24,9,-19,2,17,-29,-48,-9,0,34,53
24,34,9,-29,7,21,-39,-48,-9,4,29,48
14,34,19,-24,-2,26,-39,-53,-14,0,29,43
24,39,14,-31,4,26,-39,-53,-14,0,29,43
29,39,9,-34,9,24,-39,-53,-14,0,29,48
29,34,4,-31,12,19,-39,-43,-19,-9,19,39
34,34,0,-34,17,17,-39,-43,-19,-9,19,39
34,29,-4,-31,19,12,-43,-43,-24,-14,19,39
29,14,-14,-21,21,0,-43,-48,-24,-14,14,39
29,14,-14,-21,21,0,-43,-48,-24,-14,24,34
29,19,-9,-24,19,4,-48,-48,-29,-14,14,34
29,24,-4,-26,17,9,-48,-48,-29,-14,4,34
29,24,-4,-26,17,9,-48,-48,-29,-19,4,34
34,24,-9,-29,21,7,-34,-63,-29,-19,14,43
34,24,-9,-29,21,7,-34,-68,-29,-19,14,43
29,19,-9,-24,19,4,-34,-68,-29,-19,9,43
24,19,-4,-21,14,7,-39,-63,-39,-19,9,43
29,14,-14,-21,21,0,-29,-53,-29,-24,9,43
29,19,-9,-24,19,4,-29,-53,-29,-24,14,43
39,34,-4,-36,21,14,-24,-53,-24,-19,14,48
39,43,4,-41,17,24,-24,-53,-24,-19,14,58
29,39,9,-34,9,24,-34,-43,-24,-19,9,48
9,24,14,-17,-2,19,-39,-43,-29,-19,9,48
0,14,14,-7,-7,14,-39,-43,-29,-24,14,43
-14,4,19,4,-17,12,-34,-43,-29,-24,14,43
-24,0,24,12,-24,12,-24,-43,-29,-24,19,53
-19,-4,14,12,-17,4,-29,-43,-29,-29,14,58
-19,-4,14,12,-17,4,-29,-43,-29,-29,14,58
-19,-4,14,12,-17,4,-29,-43,-29,-24,14,58
-14,0,14,7,-14,7,-39,-43,-39,-24,14,58
-9,9,19,0,-14,14,-39,-43,-39,-24,14,63
-4,14,19,-4,-12,17,-39,-43,-39,-24,19,63
0,24,24,-12,-12,24,-39,-39,-34,-24,24,63
9,14,4,-12,2,9,-39,-39,-34,-24,19,53
9,14,4,-12,2,9,-39,-39,-34,-24,14,53
9,14,4,-12,2,9,-39,-39,-29,-19,9,53
4,14,9,-9,-2,12,-39,-39,-29,-19,0,53
4,19,14,-12,-4,17,-29,-29,-24,-24,0,63
0,4,4,-2,-2,4,-29,-29,-24,-24,4,63
-4,0,4,2,-4,2,-29,-29,-24,-29,9,58
-4,0,4,2,-4,2,-29,-24,-24,-29,14,58
-4,4,9,0,-7,7,-29,-24,-19,-29,19,68
-4,9,14,-2,-9,12,-29,-24,-19,-29,19,73
-4,14,19,-4,-12,17,-24,-24,-19,-24,19,73
-9,14,24,-2,-17,19,-24,-19,-19,-19,29,73
-19,4,24,7,-21,14,-34,-19,-24,-24,24,68
-4,4,9,0,-7,7,-34,-19,-24,-24,19,68
-4,9,14,-2,-9,12,-34,-19,-24,-24,14,63
-4,9,14,-2,-9,12,-34,-19,-24,-19,9,63
-14,9,24,2,-19,17,-29,-9,-9,-19,14,68
-14,9,24,2,-19,17,-29,-4,-9,-19,19,68
-19,9,29,4,-24,19,-29,-4,-9,-19,24,68
-19,9,29,4,-24,19,-39,-9,-9,-19,29,63
-14,9,24,2,-19,17,-29,0,-4,-14,29,63
-4,14,19,-4,-12,17,-29,0,-4,-9,29,53
0,24,24,-12,-12,24,-29,0,-4,-4,24,53
4,29,24,-17,-9,26,-29,4,-4,0,24,53
-4,19,24,-7,-14,21,-14,19,-4,0,39,43
-9,19,29,-4,-19,24,-14,19,-4,0,39,43
-9,19,29,-4,-19,24,-14,19,-4,0,39,39
0,19,19,-9,-9,19,-14,19,0,0,39,39
0,14,14,-7,-7,14,-14,19,4,0,29,39
0,14,14,-7,-7,14,-14,19,4,0,29,34
0,14,14,-7,-7,14,-14,24,4,0,29,34
9,14,4,-12,2,9,-14,24,4,0,29,39
14,24,9,-19,2,17,-24,14,-4,-4,24,29
14,24,9,-19,2,17,-24,24,0,-4,29,29
9,24,14,-17,-2,19,-24,29,4,-4,29,29
9,24,14,-17,-2,19,-24,29,4,0,29,29
9,29,19,-19,-4,24,-19,19,0,4,34,24
9,29,19,-19,-4,24,-19,19,0,4,34,24
19,24,4,-21,7,14,-19,19,0,4,29,24
19,19,0,-19,9,9,-14,14,0,0,29,19
29,19,-9,-24,19,4,-14,24,4,0,29,19
24,24,0,-24,12,12,-19,24,4,4,29,24
24,24,0,-24,12,12,-19,24,9,4,29,24
29,24,-4,-26,17,9,-19,29,9,4,34,24
39,24,-14,-31,26,4,-14,19,9,-4,24,24
39,29,-9,-34,24,9,-14,19,14,0,24,29
43,39,-4,-41,24,17,-14,19,19,0,34,29
43,39,-4,-41,24,17,-14,19,19,0,34,34
34,29,-4,-31,19,12,-14,34,19,4,39,43
29,34,4,-31,12,19,-9,39,24,4,39,48
29,34,4,-31,12,19,-9,39,24,9,39,48
29,24,-4,-26,17,9,-14,34,14,9,29,43
14,34,19,-24,-2,26,-19,34,24,14,39,48
14,34,19,-24,-2,26,-14,34,24,14,43,58
14,34,19,-24,-2,26,-4,34,29,19,53,73
14,29,14,-21,0,21,0,34,29,19,58,78
24,29,4,-26,9,17,-9,34,29,19,53,78
24,29,4,-26,9,17,-9,34,34,14,48,82
39,34,-4,-36,21,14,-9,34,34,9,43,87
43,39,-4,-41,24,17,-9,34,34,4,43,92
34,43,9,-39,12,26,-19,29,24,4,43,82
19,43,24,-31,-2,34,-19,29,24,4,43,87
19,39,19,-29,0,29,-19,29,24,4,48,87
19,39,19,-29,0,29,-19,29,19,9,48,82
9,24,14,-17,-2,19,-19,14,9,0,39,78
9,19,9,-14,0,14,-24,14,9,-9,39,68
9,4,-4,-7,7,0,-24,14,9,-9,34,63
9,9,0,-9,4,4,-24,9,4,-14,29,58
9,9,0,-9,4,4,-24,9,14,-4,39,58
9,9,0,-9,4,4,-24,9,14,4,43,58
9,9,0,-9,4,4,-24,19,14,4,43,58
24,14,-9,-19,17,2,-24,19,14,4,43,48
24,14,-9,-19,17,2,-24,19,9,0,34,43
19,14,-4,-17,12,4,-19,19,9,0,34,34
14,14,0,-14,7,7,-19,14,4,-4,34,24
4,0,-4,-2,4,-2,-34,4,0,-24,24,9
4,4,0,-4,2,2,-24,14,4,-14,34,9
4,4,0,-4,2,2,-19,14,4,-9,39,4
9,4,-4,-7,7,0,-19,14,4,-4,39,0
14,4,-9,-9,12,-2,-19,9,4,-4,39,-4
14,14,0,-14,7,7,-9,19,14,4,48,0
14,19,4,-17,4,12,-14,24,14,-4,48,4
14,24,9,-19,2,17,-14,24,4,-4,48,0
19,29,9,-24,4,19,-14,24,14,-4,48,4
19,24,4,-21,7,14,-24,14,4,-4,48,4
14,19,4,-17,4,12,-24,14,0,-4,48,4
9,14,4,-12,2,9,-24,14,0,-4,48,4
4,9,4,-7,0,7,-19,14,4,0,48,0
9,19,9,-14,0,14,-19,29,4,0,48,-9
19,24,4,-21,7,14,-19,29,0,0,48,-9
24,24,0,-24,12,12,-19,29,0,-4,48,-9
29,24,-4,-26,17,9,-19,29,0,-4,48,-14
14,9,-4,-12,9,2,-24,29,0,-4,48,-14
9,14,4,-12,2,9,-24,34,0,-4,48,-19
4,9,4,-7,0,7,-29,34,0,-4,43,-19
4,4,0,-4,2,2,-29,29,0,-4,43,-19
0,0,0,0,0,0,-19,34,-9,-4,43,-29
-4,-14,-9,9,2,-12,-24,29,-19,-9,39,-29
-9,-19,-9,14,0,-14,-24,29,-19,-19,39,-29
-19,-14,4,17,-12,-4,-14,29,-19,-24,34,-29
-19,-9,9,14,-14,0,-24,24,-4,-14,43,-34
-19,-9,9,14,-14,0,-24,24,-4,-24,43,-34
-14,-14,0,14,-7,-7,-24,24,-9,-24,34,-34
-19,-9,9,14,-14,0,-29,24,-9,-24,29,-39
-9,0,9,4,-9,4,-29,34,-4,-14,39,-34
-9,-9,0,9,-4,-4,-24,34,-4,-19,39,-34
-4,4,9,0,-7,7,-14,34,-4,-19,39,-29
-4,4,9,0,-7,7,-9,39,-4,-19,39,-29
-14,-4,9,9,-12,2,-19,39,-14,-19,39,-39
-9,-4,4,7,-7,0,-19,34,-14,-19,39,-34
-9,-4,4,7,-7,0,-14,34,-14,-19,39,-34
-9,0,9,4,-9,4,-14,34,-14,-14,39,-34
-9,0,9,4,-9,4,-4,43,-14,-19,34,-43
0,0,0,0,0,0,-4,43,-14,-19,34,-43
0,0,0,0,0,0,-4,43,-14,-19,39,-43
-4,0,4,2,-4,2,-4,43,-14,-24,39,-43
-4,0,4,2,-4,2,-4,53,-4,-24,39,-43
-4,-4,0,4,-2,-2,4,53,-9,-29,39,-43
-4,-4,0,4,-2,-2,4,53,-9,-29,34,-39
-4,0,4,2,-4,2,4,53,-9,-29,34,-34
-9,9,19,0,-14,14,4,53,-9,-29,34,-43
-9,9,19,0,-14,14,4,53,-9,-29,34,-43
-9,9,19,0,-14,14,4,53,-9,-29,34,-43
-9,9,19,0,-14,14,4,53,-9,-34,29,-43
-14,-4,9,9,-12,2,-9,39,-19,-43,24,-58
-19,-9,9,14,-14,0,-14,39,-19,-34,24,-58
-19,-9,9,14,-14,0,-19,39,-19,-29,24,-58
-24,-14,9,19,-17,-2,-19,39,-29,-29,24,-48
-39,-24,14,31,-26,-4,-9,34,-29,-39,19,-48
-39,-24,14,31,-26,-4,-9,39,-29,-39,19,-48
-39,-24,14,31,-26,-4,-14,39,-34,-43,19,-53
-39,-24,14,31,-26,-4,-14,39,-34,-43,24,-58
-19,-9,9,14,-14,0,0,24,-29,-34,24,-58
-14,0,14,7,-14,7,0,34,-29,-24,29,-48
-19,-4,14,12,-17,4,0,39,-19,-19,34,-43
-19,0,19,9,-19,9,0,39,-9,-29,29,-48
-9,-4,4,7,-7,0,-9,39,-19,-29,24,-53
-9,-9,0,9,-4,-4,-9,39,-19,-29,19,-58
-9,-14,-4,12,-2,-9,-9,39,-19,-29,14,-63
-9,-19,-9,14,0,-14,-9,39,-19,-29,9,-68
-4,-4,0,4,-2,-2,0,39,-19,-29,19,-68
0,0,0,0,0,0,0,39,-19,-29,19,-68
4,4,0,-4,2,2,0,39,-19,-29,19,-68
9,9,0,-9,4,4,0,39,-19,-29,19,-68
-4,-4,0,4,-2,-2,-9,29,-29,-29,9,-78
-9,-9,0,9,-4,-4,-9,29,-29,-29,9,-78
-14,-14,0,14,-7,-7,-9,29,-29,-29,9,-78
-19,-19,0,19,-9,-9,-9,29,-29,-29,9,-78
-19,-19,0,19,-9,-9,0,39,-29,-29,19,-87
-19,-19,0,19,-9,-9,0,39,-29,-29,19,-87
-19,-19,0,19,-9,-9,0,39,-29,-29,19,-87
-19,-19,0,19,-9,-9,0,39,-29,-29,19,-87
-9,-14,-4,12,-2,-9,0,39,-19,-19,29,-87
-9,-9,0,9,-4,-4,0,39,-19,-19,29,-87
-9,-4,4,7,-7,0,0,39,-19,-19,29,-87
-9,0,9,4,-9,4,0,39,-19,-19,29,-87
-9,9,19,0,-14,14,0,48,-9,-19,29,-87
-9,9,19,0,-14,14,0,48,-9,-19,29,-87
-9,9,19,0,-14,14,0,48,-9,-19,29,-87
-9,9,19,0,-14,14,0,48,-9,-19,29,-87
-9,14,24,-2,-17,19,9,58,-9,-14,39,-82
-9,19,29,-4,-19,24,9,58,-9,-9,39,-78
-9,24,34,-7,-21,29,9,58,-9,-4,39,-73
-9,29,39,-9,-24,34,9,58,-9,0,39,-68
0,29,29,-14,-14,29,19,63,-4,0,48,-78
0,29,29,-14,-14,29,19,68,0,0,48,-78
0,29,29,-14,-14,29,19,73,4,0,48,-78
0,29,29,-14,-14,29,19,78,9,0,48,-78
9,34,24,-21,-7,29,29,92,24,14,58,-68
9,39,29,-24,-9,34,29,97,29,19,58,-68
9,43,34,-26,-12,39,29,102,34,24,58,-68
9,48,39,-29,-14,43,29,107,39,29,58,-68
14,58,43,-36,-14,51,39,112,43,34,63,-58
19,68,48,-43,-14,58,39,117,48,39,68,-58
24,78,53,-51,-14,65,39,122,53,43,73,-58
29,87,58,-58,-14,73,39,126,58,48,78,-58
29,87,58,-58,-14,73,48,141,68,48,82,-48
29,87,58,-58,-14,73,48,146,68,48,87,-48
29,87,58,-58,-14,73,48,151,68,48,92,-48
29,87,58,-58,-14,73,48,156,68,48,97,-48
24,73,48,-48,-12,61,34,141,53,39,92,-58
19,68,48,-43,-14,58,29,136,48,39,87,-58
14,63,48,-39,-17,56,24,131,43,39,82,-58
9,58,48,-34,-19,53,19,126,39,39,78,-58
9,68,58,-39,-24,63,4,112,39,29,68,-58
9,68,58,-39,-24,63,0,107,39,29,68,-58
9,68,58,-39,-24,63,-4,102,39,29,68,-58
9,68,58,-39,-24,63,-9,97,39,29,68,-58
14,73,58,-43,-21,65,-24,92,34,29,78,-58
19,78,58,-48,-19,68,-29,87,29,29,78,-58
24,82,58,-53,-17,70,-34,82,24,29,78,-58
29,87,58,-58,-14,73,-39,78,19,29,78,-58
29,78,48,-53,-9,63,-53,68,14,14,68,-58
29,78,48,-53,-9,63,-58,58,9,9,68,-58
29,78,48,-53,-9,63,-63,48,4,4,68,-58
29,78,48,-53,-9,63,-68,39,0,0,68,-58
19,68,48,-43,-14,58,-68,34,-14,-4,58,-58
19,68,48,-43,-14,58,-68,29,-19,-9,58,-58
19,68,48,-43,-14,58,-68,24,-24,-14,58,-58
19,68,48,-43,-14,58,-68,19,-29,-19,58,-58
19,58,39,-39,-9,48,-68,29,-29,-19,48,-48
19,58,39,-39,-9,48,-68,29,-29,-19,48,-48
19,48,29,-34,-4,39,-68,29,-34,-24,48,-48
24,43,19,-34,2,31,-68,19,-39,-29,39,-48
24,39,14,-31,4,26,-68,9,-58,-43,24,-63
24,29,4,-26,9,17,-63,4,-68,-53,19,-73
24,29,4,-26,9,17,-58,4,-68,-53,14,-82
24,29,4,-26,9,17,-58,9,-68,-53,14,-87
9,19,9,-14,0,14,-48,9,-63,-53,14,-82
9,4,-4,-7,7,0,-43,9,-63,-53,14,-82
9,0,-9,-4,9,-4,-39,14,-58,-53,14,-82
14,-4,-19,-4,17,-12,-34,19,-58,-53,14,-82
24,-4,-29,-9,26,-17,-43,19,-68,-58,14,-92
14,-9,-24,-2,19,-17,-43,19,-68,-58,14,-92
9,-9,-19,0,14,-14,-39,24,-63,-63,19,-92
9,-9,-19,0,14,-14,-39,24,-63,-63,19,-92
9,-14,-24,2,17,-19,-34,14,-63,-63,9,-92
9,-14,-24,2,17,-19,-34,14,-63,-63,9,-92
9,-14,-24,2,17,-19,-29,14,-63,-58,9,-92
0,-14,-14,7,7,-14,-19,24,-53,-58,9,-92
-9,-14,-4,12,-2,-9,-14,39,-48,-43,19,-87
-19,-19,0,19,-9,-9,-9,43,-43,-43,19,-92
-24,-14,9,19,-17,-2,0,48,-39,-43,19,-87
-34,-14,19,24,-26,2,9,58,-24,-43,19,-87
-39,-24,14,31,-26,-4,14,63,-34,-34,29,-87
-48,-24,24,36,-36,0,24,68,-34,-39,24,-87
-53,-24,29,39,-41,2,29,68,-34,-39,19,-97
-53,-29,24,41,-39,-2,39,73,-43,-39,14,-97
-53,-34,19,43,-36,-7,34,58,-58,-48,9,-112
-53,-39,14,46,-34,-12,29,43,-63,-58,4,-112
-53,-43,9,48,-31,-17,24,39,-63,-63,0,-112
-53,-63,-9,58,-21,-36,19,34,-63,-73,-9,-112
-63,-53,9,58,-36,-21,19,39,-63,-73,-9,-107
-63,-53,9,58,-36,-21,19,39,-63,-73,-9,-112
-78,-63,14,70,-46,-24,19,39,-63,-73,-9,-112
-92,-73,19,82,-56,-26,19,34,-73,-73,-14,-107
-92,-73,19,82,-56,-26,29,39,-63,-63,-4,-97
-92,-73,19,82,-56,-26,29,43,-58,-63,-9,-102
-87,-68,19,78,-53,-24,29,48,-58,-63,-9,-102
-78,-68,9,73,-43,-29,29,58,-58,-63,-9,-102
-73,-58,14,65,-43,-21,29,53,-68,-73,-19,-112
-63,-53,9,58,-36,-21,34,53,-68,-73,-14,-107
-58,-53,4,56,-31,-24,34,48,-63,-73,-14,-107
-53,-53,0,53,-26,-26,34,43,-63,-73,-19,-107
-68,-63,4,65,-36,-29,43,53,-53,-73,-19,-97
-68,-63,4,65,-36,-29,39,53,-53,-78,-19,-97
-68,-68,0,68,-34,-34,39,53,-63,-78,-24,-107
-68,-68,0,68,-34,-34,39,53,-63,-78,-24,-107
-58,-78,-19,68,-19,-48,29,43,-73,-87,-24,-107
-53,-73,-19,63,-17,-46,29,39,-73,-87,-24,-102
-53,-68,-14,61,-19,-41,29,39,-68,-87,-19,-102
-53,-68,-14,61,-19,-41,34,43,-68,-82,-19,-97
-68,-68,0,68,-34,-34,34,53,-63,-73,-19,-97
-73,-68,4,70,-39,-31,34,58,-63,-73,-19,-92
-78,-68,9,73,-43,-29,34,63,-63,-73,-19,-92
-82,-63,19,73,-51,-21,34,68,-63,-73,-14,-87
-82,-53,29,68,-56,-12,43,63,-63,-73,-14,-97
-82,-53,29,68,-56,-12,43,63,-63,-73,-14,-97
-82,-53,29,68,-56,-12,43,58,-63,-73,-14,-97
-82,-58,24,70,-53,-17,43,58,-63,-73,-14,-102
-82,-73,9,78,-46,-31,34,58,-63,-63,-14,-102
-82,-78,4,80,-43,-36,34,58,-63,-63,-14,-112
-78,-78,0,78,-39,-39,34,58,-63,-63,-14,-102
-63,-73,-9,68,-26,-41,34,63,-53,-63,-14,-102
-73,-68,4,70,-39,-31,34,63,-53,-73,-14,-112
-73,-68,4,70,-39,-31,34,63,-58,-73,-14,-112
-73,-68,4,70,-39,-31,34,63,-58,-73,-14,-112
-73,-68,4,70,-39,-31,39,63,-58,-73,-9,-112
-82,-63,19,73,-51,-21,48,82,-48,-63,-9,-112
-82,-43,39,63,-61,-2,63,87,-43,-58,-9,-122
-87,-39,48,63,-68,4,68,92,-39,-48,0,-131
-112,-39,73,75,-92,17,82,97,-24,-39,-4,-126
-146,-9,136,78,-141,63,107,117,-14,-24,4,-146
-195,14,209,90,-202,112,156,161,19,-4,4,-161
-273,48,322,112,-297,185,224,219,53,19,0,-180
-336,82,419,126,-378,251,302,302,102,58,0,-209
-351,122,473,114,-412,297,351,375,165,97,4,-219
-346,141,488,102,-417,314,395,458,219,151,19,-229
-385,165,551,109,-468,358,463,566,307,209,39,-229
-419,185,605,117,-512,395,527,692,424,292,78,-224
-434,219,653,107,-544,436,580,844,570,380,141,-200
-453,287,741,82,-597,514,649,995,727,488,239,-161
-453,380,834,36,-644,607,692,1078,854,624,356,-92
-414,473,888,-29,-651,680,692,1088,946,761,512,4
-346,570,917,-112,-631,744,639,1005,966,858,649,126
-263,688,951,-212,-607,819,502,824,912,936,795,278
-97,805,902,-353,-500,854,297,600,839,1010,985,483
175,946,771,-561,-297,858,29,395,805,1117,1239,756
483,1132,649,-807,-82,890,-278,175,761,1205,1498,1049
775,1293,517,-1034,129,905,-566,-78,688,1229,1668,1283
1044,1400,356,-1222,344,878,-819,-273,634,1220,1771,1459
1337,1400,63,-1368,636,732,-1058,-414,585,1171,1815,1605
1625,1293,-331,-1459,978,480,-1268,-522,536,1024,1766,1698
1825,1107,-717,-1466,1271,195,-1390,-678,409,805,1615,1703
1859,780,-1078,-1320,1468,-148,-1415,-961,107,448,1312,1571
1781,307,-1473,-1044,1627,-583,-1395,-1342,-385,-53,849,1298
1722,-156,-1878,-783,1800,-1017,-1361,-1629,-878,-580,346,956
1683,-439,-2122,-622,1903,-1281,-1332,-1747,-1234,-976,-73,653
1590,-605,-2196,-492,1893,-1400,-1288,-1844,-1527,-1298,-448,346
1454,-746,-2200,-353,1827,-1473,-1224,-1903,-1766,-1561,-819,-14
1351,-844,-2196,-253,1773,-1520,-1171,-1873,-1864,-1693,-1078,-302
1293,-868,-2161,-212,1727,-1515,-1141,-1820,-1869,-1703,-1185,-458
1283,-868,-2152,-207,1717,-1510,-1107,-1742,-1834,-1688,-1220,-517
1317,-868,-2186,-224,1751,-1527,-1058,-1605,-1742,-1654,-1220,-556
1312,-873,-2186,-219,1749,-1529,-1015,-1473,-1649,-1586,-1190,-570
1263,-888,-2152,-187,1708,-1520,-951,-1356,-1571,-1527,-1166,-595
1200,-888,-2088,-156,1644,-1488,-893,-1244,-1493,-1473,-1132,-644
1098,-868,-1966,-114,1532,-1417,-814,-1117,-1390,-1395,-1093,-678
922,-824,-1747,-48,1334,-1285,-702,-995,-1273,-1278,-1019,-697
727,-775,-1503,24,1115,-1139,-580,-878,-1151,-1151,-941,-688
575,-741,-1317,82,946,-1029,-473,-771,-1029,-1044,-873,-663
448,-707,-1156,129,802,-932,-400,-673,-917,-946,-805,-634
312,-673,-985,180,649,-829,-326,-570,-824,-858,-732,-595
258,-629,-888,185,573,-758,-283,-483,-741,-785,-678,-546
268,-546,-814,139,541,-680,-253,-419,-668,-712,-600,-492
239,-453,-692,107,466,-573,-214,-341,-570,-614,-507,-434
190,-390,-580,100,385,-485,-165,-263,-478,-517,-409,-390
136,-331,-468,97,302,-400,-102,-175,-385,-424,-336,-356
82,-287,-370,102,226,-329,-39,-97,-292,-346,-283,-322
14,-244,-258,114,136,-251,4,-34,-219,-273,-234,-297
-29,-214,-185,122,78,-200,24,19,-165,-224,-200,-263
-43,-190,-146,117,51,-168,34,53,-131,-195,-161,-234
-58,-156,-97,107,19,-126,48,82,-107,-165,-117,-214
-68,-126,-58,97,-4,-92,58,97,-73,-122,-82,-190
-58,-102,-43,80,-7,-73,68,107,-73,-107,-63,-190
-39,-82,-43,61,2,-63,92,117,-63,-97,-48,-180
-48,-63,-14,56,-17,-39,107,136,-34,-68,-34,-175
-73,-63,9,68,-41,-26,117,161,-4,-48,-24,-156
-78,-73,4,75,-41,-34,112,151,-14,-53,-29,-165
-82,-73,9,78,-46,-31,107,151,-14,-63,-34,-165
-92,-78,14,85,-53,-31,102,151,-19,-68,-39,-165
-97,-82,14,90,-56,-34,92,151,-24,-78,-43,-165
-102,-97,4,100,-53,-46,92,151,-34,-82,-53,-161
-102,-102,0,102,-51,-51,92,156,-24,-73,-48,-161
-107,-102,4,104,-56,-48,102,165,-14,-63,-39,-161
-112,-97,14,104,-63,-41,102,165,-9,-68,-39,-161
-117,-97,19,107,-68,-39,102,156,-9,-58,-29,-161
-117,-102,14,109,-65,-43,97,161,-9,-63,-29,-161
-117,-102,14,109,-65,-43,97,161,-9,-63,-29,-161
-112,-92,19,102,-65,-36,102,161,-9,-63,-29,-161
-122,-78,43,100,-82,-17,102,175,-9,-63,-19,-161
-117,-78,39,97,-78,-19,102,175,-4,-63,-19,-165
-117,-82,34,100,-75,-24,102,175,-4,-58,-19,-170
-136,-82,53,109,-95,-14,102,175,-4,-53,-14,-170
-136,-73,63,104,-100,-4,117,185,4,-48,-14,-175
-141,-73,68,107,-104,-2,126,185,4,-48,-14,-180
-141,-78,63,109,-102,-7,117,180,0,-48,-19,-195
-141,-82,58,112,-100,-12,117,180,0,-58,-19,-204
-141,-92,48,117,-95,-21,117,175,-14,-63,-29,-219
-136,-87,48,112,-92,-19,117,165,-14,-63,-29,-219
-126,-73,53,100,-90,-9,117,161,-14,-58,-29,-224
-117,-73,43,95,-80,-14,122,161,-4,-53,-29,-224
-126,-63,63,95,-95,0,126,175,-4,-53,-14,-219
-126,-73,53,100,-90,-9,126,180,-4,-48,-14,-224
-131,-73,58,102,-95,-7,126,180,-4,-48,-14,-229
-131,-73,58,102,-95,-7,126,180,-9,-58,-19,-239
-136,-73,63,104,-100,-4,117,180,-14,-63,-19,-244
-131,-73,58,102,-95,-7,117,180,-19,-63,-19,-244
-131,-78,53,104,-92,-12,117,180,-19,-63,-24,-244
-126,-78,48,102,-87,-14,117,180,-14,-63,-24,-244
-131,-87,43,109,-87,-21,126,170,-14,-63,-34,-244
-131,-78,53,104,-92,-12,126,170,-14,-63,-29,-244
-131,-73,58,102,-95,-7,131,175,-9,-63,-29,-239
-126,-73,53,100,-90,-9,131,175,-9,-63,-34,-234
-126,-68,58,97,-92,-4,141,190,0,-58,-29,-219
-131,-63,68,97,-100,2,141,190,0,-63,-34,-214
-131,-63,68,97,-100,2,141,190,-4,-63,-34,-214
-131,-58,73,95,-102,7,141,190,-4,-58,-34,-209
-122,-58,63,90,-92,2,151,200,0,-48,-29,-204
-122,-58,63,90,-92,2,151,204,0,-48,-29,-204
-131,-58,73,95,-102,7,146,204,0,-48,-29,-204
-122,-58,63,90,-92,2,146,204,0,-48,-29,-204
-131,-58,73,95,-102,7,136,200,-4,-53,-48,-209
-131,-63,68,97,-100,2,136,200,-9,-58,-48,-214
-131,-68,63,100,-97,-2,136,200,-14,-63,-48,-214
-131,-78,53,104,-92,-12,141,204,-19,-68,-48,-219
-146,-82,63,114,-104,-9,141,204,-9,-68,-53,-219
-151,-82,68,117,-109,-7,141,200,-14,-68,-53,-219
-161,-82,78,122,-119,-2,141,200,-14,-68,-53,-214
-161,-82,78,122,-119,-2,141,204,-14,-68,-53,-209
-161,-68,92,114,-126,12,141,204,-9,-53,-53,-209
-161,-68,92,114,-126,12,141,209,-9,-53,-53,-209
-161,-68,92,114,-126,12,146,209,-9,-53,-58,-209
-161,-68,92,114,-126,12,146,214,-9,-53,-58,-209
-161,-73,87,117,-124,7,146,219,-9,-53,-48,-219
-170,-82,87,126,-129,2,151,224,-9,-53,-58,-219
-175,-87,87,131,-131,0,151,229,-9,-53,-58,-214
-175,-92,82,134,-129,-4,151,239,-9,-53,-58,-209
-165,-87,78,126,-122,-4,151,234,-4,-63,-68,-219
-161,-82,78,122,-119,-2,151,234,-4,-63,-68,-219
-161,-78,82,119,-122,2,156,239,-4,-58,-68,-219
-161,-73,87,117,-124,7,156,239,0,-58,-68,-219
-165,-73,92,119,-129,9,151,244,0,-48,-68,-219
-165,-73,92,119,-129,9,151,244,0,-48,-73,-219
-175,-73,102,124,-139,14,156,253,0,-43,-73,-219
-165,-73,92,119,-129,9,156,258,4,-43,-73,-219
-165,-73,92,119,-129,9,170,268,4,-53,-73,-209
-165,-73,92,119,-129,9,175,278,9,-48,-73,-209
-165,-68,97,117,-131,14,180,283,9,-43,-73,-204
-165,-63,102,114,-134,19,185,283,19,-43,-68,-200
-165,-58,107,112,-136,24,200,273,24,-39,-78,-195
-165,-58,107,112,-136,24,200,278,24,-39,-78,-195
-165,-58,107,112,-136,24,200,278,24,-39,-82,-190
-175,-58,117,117,-146,29,200,283,29,-39,-82,-190
-175,-68,107,122,-141,19,195,292,39,-43,-78,-195
-175,-68,107,122,-141,19,195,297,43,-39,-73,-185
-180,-68,112,124,-146,21,204,302,48,-34,-73,-180
-180,-63,117,122,-148,26,209,312,53,-29,-73,-180
-185,-53,131,119,-158,39,214,317,68,-14,-73,-170
-185,-53,131,119,-158,39,224,322,73,-9,-68,-165
-190,-63,126,126,-158,31,224,326,78,-4,-68,-165
-204,-63,141,134,-173,39,229,326,82,-4,-68,-165
-190,-48,141,119,-165,46,229,326,82,-9,-68,-170
-195,-48,146,122,-170,48,234,331,87,-9,-68,-175
-190,-48,141,119,-165,46,239,336,92,0,-63,-180
-190,-48,141,119,-165,46,248,341,102,4,-63,-185
-195,-58,136,126,-165,39,244,361,102,9,-63,-195
-204,-53,151,129,-178,48,248,370,112,14,-58,-195
-204,-48,156,126,-180,53,253,380,117,19,-58,-200
-204,-43,161,124,-183,58,258,390,122,24,-53,-209
-224,-43,180,134,-202,68,263,385,131,24,-63,-209
-229,-43,185,136,-207,70,268,390,136,29,-53,-214
-239,-43,195,141,-217,75,278,405,151,39,-53,-219
-253,-43,209,148,-231,82,283,409,151,48,-53,-224
-253,-39,214,146,-234,87,278,424,161,53,-53,-234
-258,-39,219,148,-239,90,283,424,165,53,-43,-239
-268,-43,224,156,-246,90,287,434,175,58,-43,-248
-268,-43,224,156,-246,90,297,448,180,63,-43,-248
-283,-43,239,163,-261,97,292,453,180,58,-53,-258
-283,-39,244,161,-263,102,302,458,185,58,-43,-263
-287,-53,234,170,-261,90,307,468,195,63,-43,-283
-317,-63,253,190,-285,95,312,473,204,73,-43,-287
-317,-53,263,185,-290,104,317,488,209,87,-43,-297
-317,-43,273,180,-295,114,326,492,214,92,-39,-297
-312,-34,278,173,-295,122,326,497,224,102,-34,-297
-302,-9,292,156,-297,141,326,507,229,107,-24,-297
-312,0,312,156,-312,156,326,517,234,107,-29,-297
-317,-4,312,161,-314,153,331,527,248,112,-24,-292
-322,0,322,161,-322,161,336,536,258,117,-19,-292
-326,0,326,163,-326,163,341,536,258,122,-14,-297
-341,-4,336,173,-339,165,356,541,258,131,-4,-297
-356,0,356,178,-356,178,356,546,263,136,0,-297
-366,0,366,183,-366,183,366,546,268,141,4,-292
-385,0,385,192,-385,192,366,546,273,146,9,-292
-385,9,395,187,-390,202,356,561,273,156,14,-287
-385,9,395,187,-390,202,356,561,273,161,19,-287
-380,14,395,183,-387,204,356,551,273,161,19,-287
-370,19,390,175,-380,204,356,551,273,161,34,-283
-370,34,405,168,-387,219,356,546,273,165,34,-273
-375,39,414,168,-395,226,356,546,278,175,39,-258
-375,43,419,165,-397,231,356,536,278,175,43,-258
-390,48,439,170,-414,244,356,536,278,185,48,-253
-385,48,434,168,-409,241,356,522,283,190,43,-248
-380,53,434,163,-407,244,351,517,283,195,48,-244
-370,58,429,156,-400,244,346,507,283,195,48,-239
-361,63,424,148,-392,244,341,502,283,200,58,-224
-370,63,434,153,-402,248,336,507,292,214,78,-219
-361,68,429,146,-395,248,331,502,292,219,87,-200
-346,73,419,136,-383,246,331,497,297,224,97,-190
-336,87,424,124,-380,256,322,488,297,229,97,-180
-336,82,419,126,-378,251,302,473,287,239,112,-161
-326,82,409,122,-368,246,297,458,287,244,117,-151
-322,82,405,119,-363,244,287,439,287,244,122,-131
-317,82,400,117,-358,241,268,429,278,239,122,-126
-302,87,390,107,-346,239,253,409,268,239,136,-107
-283,92,375,95,-329,234,239,400,263,234,141,-92
-263,97,361,82,-312,229,224,385,248,234,141,-92
-244,97,341,73,-292,219,214,361,239,224,136,-78
-234,97,331,68,-283,214,209,351,234,214,141,-63
-209,102,312,53,-261,207,195,336,224,209,141,-63
-190,102,292,43,-241,197,180,312,209,200,136,-63
-170,102,273,34,-222,187,165,297,195,190,131,-53
-146,102,248,21,-197,175,156,287,190,180,136,-58
-141,82,224,29,-183,153,141,273,175,170,131,-58
-141,78,219,31,-180,148,126,253,161,156,117,-58
-136,73,209,31,-173,141,112,229,146,146,107,-58
-117,58,175,29,-146,117,102,219,131,141,107,-63
-87,63,151,12,-119,107,102,209,122,126,102,-58
-63,68,131,-2,-97,100,97,195,112,122,92,-58
-48,68,117,-9,-82,92,92,180,97,112,82,-53
-43,63,107,-9,-75,85,82,165,92,97,82,-43
-43,58,102,-7,-73,80,73,151,87,92,78,-39
-34,48,82,-7,-58,65,73,146,78,82,73,-39
-29,43,73,-7,-51,58,68,126,63,73,68,-39
-34,34,68,0,-51,51,43,117,58,63,63,-48
-24,29,53,-2,-39,41,43,112,48,53,58,-48
-19,24,43,-2,-31,34,39,107,43,48,53,-53
-19,19,39,0,-29,29,39,97,34,48,48,-58
-9,14,24,-2,-17,19,39,87,24,43,39,-73
-4,14,19,-4,-12,17,24,78,9,34,29,-78
0,9,9,-4,-4,9,24,73,9,29,29,-78
9,14,4,-12,2,9,24,68,4,29,29,-78
19,4,-14,-12,17,-4,14,53,0,14,24,-78
19,9,-9,-14,14,0,9,43,-4,9,19,-78
24,9,-14,-17,19,-2,9,43,-4,9,14,-78
24,4,-19,-14,21,-7,9,48,-9,9,14,-82
19,4,-14,-12,17,-4,19,58,0,14,9,-78
4,4,0,-4,2,2,19,53,-4,9,9,-82
9,9,0,-9,4,4,19,53,-4,9,9,-82
9,9,0,-9,4,4,19,53,-4,9,9,-78
4,0,-4,-2,4,-2,19,53,0,9,9,-78
4,4,0,-4,2,2,19,53,0,9,9,-78
0,4,4,-2,-2,4,14,53,-4,4,9,-78
-9,-4,4,7,-7,0,14,48,-4,4,4,-78
0,0,0,0,0,0,14,39,-4,4,14,-82
0,0,0,0,0,0,9,39,-9,4,4,-82
0,0,0,0,0,0,9,39,-9,4,-4,-82
0,-4,-4,2,2,-4,9,39,-9,0,-4,-82
4,4,0,-4,2,2,4,24,-19,0,-4,-82
4,4,0,-4,2,2,4,19,-19,0,-4,-82
0,0,0,0,0,0,4,19,-19,0,-9,-82
-4,0,4,2,-4,2,0,24,-29,0,-9,-82
-19,-9,9,14,-14,0,0,24,-29,-4,-9,-92
-19,-9,9,14,-14,0,0,24,-29,-4,-4,-92
-9,0,9,4,-9,4,4,24,-24,0,-4,-87
-9,4,14,2,-12,9,4,24,-24,0,-4,-78
0,14,14,-7,-7,14,4,34,-14,0,-9,-87
-9,4,14,2,-12,9,0,34,-19,0,-9,-87
-9,0,9,4,-9,4,0,34,-19,-4,-4,-92
-14,-4,9,9,-12,2,4,34,-19,-4,-4,-92
-14,-4,9,9,-12,2,-4,24,-19,-14,-19,-102
-9,-4,4,7,-7,0,-9,24,-19,-19,-24,-97
-9,0,9,4,-9,4,-9,24,-19,-19,-24,-97
-9,4,14,2,-12,9,-9,24,-19,-14,-24,-97
-19,-4,14,12,-17,4,-9,24,-29,-4,-24,-97
-19,0,19,9,-19,9,-9,24,-29,-4,-24,-92
-19,0,19,9,-19,9,-9,24,-29,-4,-19,-92
-19,4,24,7,-21,14,-9,29,-24,-4,-14,-92
-19,4,24,7,-21,14,-9,19,-24,-4,-4,-82
-19,4,24,7,-21,14,-9,19,-24,-4,-4,-82
-19,4,24,7,-21,14,-9,19,-19,0,-4,-82
-24,4,29,9,-26,17,-9,19,-19,0,-9,-82
-29,9,39,9,-34,24,-9,19,-24,-4,-14,-92
-29,-4,24,17,-26,9,-9,19,-24,-4,-14,-92
-29,-9,19,19,-24,4,-9,19,-24,-9,-14,-97
-24,-9,14,17,-19,2,-9,24,-24,-9,-14,-97
-14,-14,0,14,-7,-7,-9,24,-19,-9,-19,-92
-14,-9,4,12,-9,-2,-9,24,-19,-9,-19,-92
-14,-4,9,9,-12,2,-4,24,-19,-4,-19,-97
-19,-4,14,12,-17,4,-4,29,-19,0,-9,-102
-29,-4,24,17,-26,9,-4,29,-14,4,-9,-97
-14,-4,9,9,-12,2,-4,29,-14,4,-9,-97
-14,0,14,7,-14,7,-4,29,-14,4,-9,-102
-14,0,14,7,-14,7,-4,29,-14,9,-9,-102
-14,0,14,7,-14,7,-4,19,-9,9,-9,-107
-14,0,14,7,-14,7,-9,24,-9,9,-9,-107
-19,0,19,9,-19,9,-14,24,-9,9,-9,-107
-19,0,19,9,-19,9,-29,19,-9,9,-9,-112
-29,-14,14,21,-21,0,-19,19,-4,19,-9,-122
-24,-14,9,19,-17,-2,-19,19,-4,19,-9,-131
-24,-9,14,17,-19,2,-19,19,-4,19,-14,-131
-24,-9,14,17,-19,2,-19,24,-4,19,-14,-131
-14,0,14,7,-14,7,-4,29,4,29,0,-131
-19,0,19,9,-19,9,-4,29,4,29,0,-131
-19,0,19,9,-19,9,-4,29,4,29,0,-136
-9,0,9,4,-9,4,-4,29,9,29,0,-136
0,4,4,-2,-2,4,-9,19,4,19,-9,-146
0,4,4,-2,-2,4,-14,19,4,19,-9,-151
0,4,4,-2,-2,4,-19,24,4,19,-9,-151
9,4,-4,-7,7,0,-24,24,4,19,-9,-146
9,4,-4,-7,7,0,-14,34,14,24,4,-136
4,4,0,-4,2,2,-14,43,19,24,9,-136
-4,4,9,0,-7,7,-14,48,24,24,9,-136
-9,4,14,2,-12,9,-14,48,24,29,9,-136
0,0,0,0,0,0,-9,48,29,24,4,-141
0,0,0,0,0,0,-9,48,29,24,4,-141
9,-4,-14,-2,12,-9,-9,48,29,24,0,-141
9,-9,-19,0,14,-14,-4,43,29,19,0,-146
9,0,-9,-4,9,-4,-4,43,24,29,9,-136
4,4,0,-4,2,2,-9,43,24,34,9,-131
4,4,0,-4,2,2,-9,43,29,34,9,-131
9,4,-4,-7,7,0,-9,48,29,34,14,-131
4,-4,-9,0,7,-7,-4,48,29,34,14,-126
0,0,0,0,0,0,-4,48,34,39,14,-117
0,9,9,-4,-4,9,-4,48,39,39,24,-112
-4,9,14,-2,-9,12,-4,48,39,39,24,-102
4,9,4,-7,0,7,-14,53,39,43,19,-92
0,14,14,-7,-7,14,-9,58,43,43,19,-87
0,14,14,-7,-7,14,-9,58,43,48,19,-87
0,4,4,-2,-2,4,-14,53,34,48,9,-92
0,14,14,-7,-7,14,-19,53,34,53,14,-82
4,14,9,-9,-2,12,-14,53,34,53,14,-78
9,14,4,-12,2,9,-4,53,39,58,19,-68
14,9,-4,-12,9,2,0,53,39,58,19,-68
4,0,-4,-2,4,-2,-9,53,29,53,9,-68
4,0,-4,-2,4,-2,-9,53,34,53,9,-63
19,4,-14,-12,17,-4,-9,53,34,53,9,-58
24,9,-14,-17,19,-2,-9,53,34,53,14,-53
24,14,-9,-19,17,2,-9,58,34,53,4,-53
9,14,4,-12,2,9,-9,58,34,53,4,-48
9,9,0,-9,4,4,-9,58,34,53,9,-48
9,9,0,-9,4,4,-9,58,29,58,9,-53
9,9,0,-9,4,4,-9,53,39,68,9,-48
9,9,0,-9,4,4,-14,53,39,58,9,-48
9,0,-9,-4,9,-4,-14,53,39,58,4,-43
9,9,0,-9,4,4,-14,48,34,53,0,-39
0,9,9,-4,-4,9,-14,43,34,43,9,-29
0,9,9,-4,-4,9,-14,39,34,53,14,-29
0,9,9,-4,-4,9,-14,43,34,53,14,-29
14,14,0,-14,7,7,-14,39,34,53,14,-39
19,14,-4,-17,12,4,-24,48,39,58,4,-48
19,14,-4,-17,12,4,-19,48,39,58,4,-53
19,14,-4,-17,12,4,-19,43,34,53,4,-58
14,0,-14,-7,14,-7,-34,34,29,34,-4,-68
9,0,-9,-4,9,-4,-29,43,34,39,0,-63
4,4,0,-4,2,2,-19,43,34,48,9,-63
4,9,4,-7,0,7,-14,43,34,58,14,-63
4,14,9,-9,-2,12,-9,39,34,63,19,-63
-4,9,14,-2,-9,12,-14,34,24,63,9,-63
-4,9,14,-2,-9,12,-24,34,24,53,9,-63
-4,9,14,-2,-9,12,-29,29,14,53,9,-73
0,9,9,-4,-4,9,-34,24,24,53,9,-73
4,4,0,-4,2,2,-24,14,14,43,9,-78
4,0,-4,-2,4,-2,-24,14,9,43,9,-82
4,-4,-9,0,7,-7,-24,14,9,43,9,-87
4,-9,-14,2,9,-12,-19,14,14,48,9,-97
4,0,-4,-2,4,-2,-19,19,14,48,0,-107
9,4,-4,-7,7,0,-19,19,9,48,0,-107
9,4,-4,-7,7,0,-19,19,9,43,0,-107
9,4,-4,-7,7,0,-19,19,9,43,0,-112
0,-4,-4,2,2,-4,-24,9,9,43,9,-102
0,4,4,-2,-2,4,-24,14,9,43,9,-107
0,4,4,-2,-2,4,-29,14,9,43,4,-107
4,4,0,-4,2,2,-29,9,9,43,4,-107
14,14,0,-14,7,7,-19,4,19,48,0,-107
14,4,-9,-9,12,-2,-24,0,9,48,0,-107
14,4,-9,-9,12,-2,-24,0,9,43,4,-107
9,14,4,-12,2,9,-14,0,9,43,4,-107
14,14,0,-14,7,7,-24,4,14,43,4,-112
9,9,0,-9,4,4,-24,4,14,34,4,-112
9,0,-9,-4,9,-4,-24,4,9,34,-4,-112
0,0,0,0,0,0,-29,4,9,34,-9,-117
-9,-9,0,9,-4,-4,-34,-4,-4,34,-9,-112
-9,-19,-9,14,0,-14,-34,-4,-4,29,-9,-112
-4,-4,0,4,-2,-2,-29,-4,-4,29,-9,-107
-4,-4,0,4,-2,-2,-29,0,-4,29,-9,-107
4,-4,-9,0,7,-7,-39,0,-4,29,-9,-97
9,-4,-14,-2,12,-9,-39,-4,-4,29,-9,-92
9,-4,-14,-2,12,-9,-34,-4,-4,29,-9,-92
9,0,-9,-4,9,-4,-34,-4,-4,34,-9,-92
0,0,0,0,0,0,-34,-4,4,29,-4,-82
9,0,-9,-4,9,-4,-34,-4,4,29,-4,-82
9,0,-9,-4,9,-4,-34,-4,4,29,0,-82
4,0,-4,-2,4,-2,-34,-4,4,24,0,-82
14,9,-4,-12,9,2,-43,-9,-4,34,0,-82
14,4,-9,-9,12,-2,-34,-14,-9,29,0,-82
14,4,-9,-9,12,-2,-34,-19,-9,29,-4,-78
14,9,-4,-12,9,2,-34,-24,-9,29,-4,-73
9,19,9,-14,0,14,-34,-14,-9,19,-4,-63
9,19,9,-14,0,14,-34,-14,-9,19,-4,-63
9,19,9,-14,0,14,-34,-14,-9,19,-4,-63
9,19,9,-14,0,14,-34,-14,-9,14,-9,-63
9,0,-9,-4,9,-4,-34,-29,-9,14,-14,-68
9,0,-9,-4,9,-4,-34,-29,-9,24,-14,-68
14,4,-9,-9,12,-2,-34,-29,-9,29,-14,-68
14,4,-9,-9,12,-2,-29,-29,-19,29,-14,-58
19,4,-14,-12,17,-4,-39,-29,-9,19,-19,-58
19,4,-14,-12,17,-4,-39,-29,-9,19,-19,-58
19,4,-14,-12,17,-4,-43,-34,-14,14,-19,-63
19,4,-14,-12,17,-4,-43,-39,-14,14,-14,-68
9,-9,-19,0,14,-14,-29,-14,-9,24,-14,-39
-4,-9,-4,7,0,-7,-29,-14,0,24,-19,-39
0,4,4,-2,-2,4,-29,-29,-9,9,-24,-43
0,0,0,0,0,0,-39,-29,-19,9,-29,-48
9,0,-9,-4,9,-4,-39,-29,-9,9,-29,-48
9,0,-9,-4,9,-4,-39,-29,-9,9,-29,-48
9,0,-9,-4,9,-4,-39,-29,-9,9,-29,-48
9,0,-9,-4,9,-4,-39,-29,-9,9,-29,-48
19,0,-19,-9,19,-9,-39,-29,-19,9,-19,-48
19,0,-19,-9,19,-9,-39,-29,-19,9,-19,-48
19,0,-19,-9,19,-9,-39,-29,-19,9,-19,-48
19,0,-19,-9,19,-9,-39,-29,-19,9,-19,-48
19,0,-19,-9,19,-9,-39,-29,-9,19,-19,-43
19,0,-19,-9,19,-9,-39,-29,-9,19,-19,-39
19,0,-19,-9,19,-9,-39,-29,-9,19,-19,-34
19,0,-19,-9,19,-9,-39,-29,-9,19,-19,-29
9,0,-9,-4,9,-4,-29,-29,-9,29,-19,-19
9,0,-9,-4,9,-4,-29,-29,-9,29,-19,-19
9,0,-9,-4,9,-4,-29,-29,-9,29,-19,-19
9,0,-9,-4,9,-4,-29,-29,-9,29,-19,-19
9,9,0,-9,4,4,-39,-39,-9,29,-19,-9
9,9,0,-9,4,4,-39,-39,-9,29,-19,-9
9,9,0,-9,4,4,-39,-39,-9,29,-19,-9
9,9,0,-9,4,4,-39,-39,-9,29,-19,-9
9,14,4,-12,2,9,-29,-34,-4,39,-9,0
9,19,9,-14,0,14,-29,-29,0,39,-9,0
9,24,14,-17,-2,19,-29,-24,4,39,-9,0
9,29,19,-19,-4,24,-29,-19,9,39,-9,0
19,34,14,-26,2,24,-24,-9,19,48,0,9
19,39,19,-29,0,29,-19,-9,19,48,0,9
19,43,24,-31,-2,34,-14,-9,19,48,0,9
19,48,29,-34,-4,39,-9,-9,19,48,0,9
29,53,24,-41,2,39,-9,-4,24,53,9,9
29,58,29,-43,0,43,-9,0,29,58,9,9
29,63,34,-46,-2,48,-9,4,34,63,9,9
29,68,39,-48,-4,53,-9,9,39,68,9,9
34,73,39,-53,-2,56,-4,14,53,73,14,19
39,78,39,-58,0,58,0,19,58,78,19,19
43,82,39,-63,2,61,4,24,63,82,24,19
48,87,39,-68,4,63,9,29,68,87,29,19
48,97,48,-73,0,73,14,39,73,92,34,24
48,97,48,-73,0,73,19,39,78,97,39,29
48,97,48,-73,0,73,24,39,82,102,43,34
48,97,48,-73,0,73,29,39,87,107,48,39
39,92,53,-65,-7,73,24,29,78,97,39,39
39,87,48,-63,-4,68,19,29,78,97,39,39
39,82,43,-61,-2,63,14,29,78,97,39,39
39,78,39,-58,0,58,9,29,78,97,39,39
39,78,39,-58,0,58,-4,14,73,92,39,39
39,78,39,-58,0,58,-9,9,68,87,39,39
39,78,39,-58,0,58,-14,4,63,82,39,39
39,78,39,-58,0,58,-19,0,58,78,39,39
48,82,34,-65,7,58,-29,-19,53,78,39,39
48,87,39,-68,4,63,-39,-29,48,78,39,39
48,92,43,-70,2,68,-48,-39,43,78,39,39
48,97,48,-73,0,73,-58,-48,39,78,39,39
53,97,43,-75,4,70,-68,-58,24,73,29,39
58,97,39,-78,9,68,-78,-68,19,68,29,39
63,97,34,-80,14,65,-87,-78,14,63,29,39
68,97,29,-82,19,63,-97,-87,9,58,29,39
58,82,24,-70,17,53,-97,-97,4,53,24,29
48,78,29,-63,9,53,-97,-97,0,48,19,29
39,73,34,-56,2,53,-97,-97,-4,43,14,29
29,68,39,-48,-4,53,-97,-97,-9,39,9,29
39,58,19,-48,9,39,-102,-102,-19,39,0,29
39,58,19,-48,9,39,-107,-107,-19,39,0,29
39,58,19,-48,9,39,-112,-112,-19,39,0,29
39,48,9,-43,14,29,-117,-117,-24,34,0,29
43,43,0,-43,21,21,-107,-117,-29,19,-9,29
43,39,-4,-41,24,17,-107,-117,-39,14,-14,19
43,29,-14,-36,29,7,-102,-122,-48,4,-19,14
43,29,-14,-36,29,7,-97,-122,-48,4,-24,9
53,19,-34,-36,43,-7,-97,-126,-58,-4,-34,0
48,14,-34,-31,41,-9,-87,-126,-53,-4,-34,4
48,4,-43,-26,46,-19,-82,-126,-53,-4,-34,4
48,4,-43,-26,46,-19,-78,-122,-48,-4,-34,4
48,-4,-53,-21,51,-29,-63,-107,-48,-4,-24,4
43,-4,-48,-19,46,-26,-63,-107,-48,0,-24,4
29,-9,-39,-9,34,-24,-63,-107,-48,0,-24,4
19,-9,-29,-4,24,-19,-58,-102,-43,-4,-19,4
29,-4,-34,-12,31,-19,-68,-102,-43,-4,-29,14
29,-4,-34,-12,31,-19,-63,-102,-43,-4,-29,14
29,0,-29,-14,29,-14,-63,-102,-43,-4,-29,14
29,4,-24,-17,26,-9,-58,-102,-43,0,-29,14
29,14,-14,-21,21,0,-48,-92,-24,0,-19,14
14,9,-4,-12,9,2,-43,-87,-24,4,-19,14
0,0,0,0,0,0,-39,-82,-24,4,-19,4
-9,0,9,4,-9,4,-29,-78,-24,4,-19,4
-24,-9,14,17,-19,2,-19,-78,-19,4,-29,0
-24,-14,9,19,-17,-2,-19,-78,-24,4,-29,0
-29,-19,9,24,-19,-4,-14,-78,-29,0,-34,0
-29,-24,4,26,-17,-9,-14,-82,-34,0,-39,-9
-34,-29,4,31,-19,-12,-19,-82,-34,0,-43,-4
-34,-29,4,31,-19,-12,-19,-82,-39,-4,-43,-4
-34,-29,4,31,-19,-12,-19,-92,-43,-9,-43,0
-34,-29,4,31,-19,-12,-19,-92,-43,-9,-43,4
-43,-34,9,39,-26,-12,-19,-92,-34,-4,-39,4
-43,-34,9,39,-26,-12,-19,-87,-34,-4,-39,4
-43,-34,9,39,-26,-12,-19,-87,-34,-4,-39,-4
-58,-43,14,51,-36,-14,-19,-87,-34,-4,-39,-9
-63,-43,19,53,-41,-12,-9,-82,-43,-14,-43,0
-53,-53,0,53,-26,-26,-9,-82,-43,-14,-43,0
-43,-53,-9,48,-17,-31,-9,-82,-39,-14,-48,-4
-29,-48,-19,39,-4,-34,-9,-82,-39,-14,-48,-4
-24,-58,-34,41,4,-46,-9,-87,-48,-14,-48,-4
-29,-48,-19,39,-4,-34,-9,-87,-48,-14,-48,-4
-29,-43,-14,36,-7,-29,-4,-82,-48,-14,-43,0
-34,-43,-9,39,-12,-26,-4,-82,-43,-14,-43,0
-24,-43,-19,34,-2,-31,-4,-92,-43,-14,-48,-9
-29,-53,-24,41,-2,-39,-4,-92,-43,-14,-48,-9
-29,-53,-24,41,-2,-39,-9,-92,-43,-19,-48,-9
-29,-58,-29,43,0,-43,-9,-92,-53,-19,-53,-19
-39,-58,-19,48,-9,-39,-19,-92,-53,-19,-63,-19
-39,-58,-19,48,-9,-39,-19,-92,-53,-19,-63,-19
-34,-53,-19,43,-7,-36,-19,-97,-53,-19,-63,-14
-34,-48,-14,41,-9,-31,-19,-97,-48,-19,-58,-14
-34,-48,-14,41,-9,-31,-14,-92,-58,-24,-58,-9
-34,-48,-14,41,-9,-31,-14,-87,-53,-24,-58,-9
-34,-48,-14,41,-9,-31,-14,-87,-53,-24,-58,-4
-34,-48,-14,41,-9,-31,-14,-87,-53,-24,-58,-4
-43,-53,-9,48,-17,-31,-4,-87,-43,-14,-43,0
-43,-53,-9,48,-17,-31,-4,-82,-43,-14,-43,0
-43,-53,-9,48,-17,-31,-4,-82,-43,-14,-43,0
-43,-53,-9,48,-17,-31,-4,-87,-43,-14,-43,0
-39,-48,-9,43,-14,-29,-14,-87,-43,-24,-43,4
-39,-53,-14,46,-12,-34,-14,-87,-43,-24,-43,4
-39,-58,-19,48,-9,-39,-14,-87,-43,-24,-43,-4
-34,-58,-24,46,-4,-41,-14,-87,-43,-24,-43,4
-24,-53,-29,39,2,-41,-14,-92,-34,-14,-43,4
-24,-48,-24,36,0,-36,-14,-92,-34,-14,-43,4
-24,-48,-24,36,0,-36,-14,-92,-39,-14,-43,4
-24,-48,-24,36,0,-36,-14,-92,-39,-14,-43,4
-24,-58,-34,41,4,-46,-9,-82,-48,-24,-68,4
-34,-43,-9,39,-12,-26,0,-82,-48,-14,-58,4
-53,-34,19,43,-36,-7,14,-78,-24,0,-39,14
-78,-19,58,48,-68,19,19,-73,-9,9,-29,14
-82,9,92,36,-87,51,43,-58,-4,19,-24,9
-117,39,156,39,-136,97,78,-29,24,53,-14,0
-185,63,248,61,-217,156,136,24,68,73,-14,-4
-244,97,341,73,-292,219,195,73,92,87,-39,-34
-287,131,419,78,-353,275,263,136,122,117,-48,-63
-312,141,453,85,-383,297,312,219,175,156,-14,-63
-336,161,497,87,-417,329,356,331,248,200,0,-63
-375,204,580,85,-478,392,424,439,356,268,29,-63
-380,234,614,73,-497,424,488,575,502,361,78,-58
-385,287,673,48,-529,480,570,736,649,478,151,-14
-414,366,780,24,-597,573,639,868,805,605,258,34
-414,458,873,-21,-644,666,663,932,912,741,385,122
-375,541,917,-82,-646,729,634,883,956,839,512,229
-307,639,946,-165,-627,793,541,741,917,907,649,351
-185,736,922,-275,-553,829,366,502,844,966,814,502
29,873,844,-451,-407,858,112,287,790,1058,1024,736
322,1054,732,-688,-204,893,-165,92,775,1176,1278,1019
619,1229,610,-924,4,919,-473,-126,751,1263,1517,1283
883,1361,478,-1122,202,919,-761,-351,678,1288,1668,1488
1141,1420,278,-1281,431,849,-995,-507,634,1268,1751,1654
1454,1371,-82,-1412,768,644,-1215,-600,595,1190,1766,1771
1732,1224,-507,-1478,1119,358,-1385,-697,546,1034,1688,1834
1893,990,-902,-1442,1398,43,-1478,-902,400,795,1498,1800
1917,595,-1322,-1256,1620,-363,-1503,-1234,39,380,1137,1610
1869,102,-1766,-985,1817,-832,-1483,-1595,-473,-170,644,1278
1820,-322,-2142,-749,1981,-1232,-1429,-1805,-936,-678,141,946
1761,-566,-2327,-597,2044,-1446,-1390,-1912,-1293,-1063,-278,644
1639,-702,-2342,-468,1991,-1522,-1346,-2020,-1586,-1366,-663,326
1483,-795,-2278,-344,1881,-1537,-1283,-2069,-1786,-1571,-995,-4
1400,-844,-2244,-278,1822,-1544,-1249,-2049,-1854,-1664,-1195,-244
1400,-849,-2249,-275,1825,-1549,-1220,-2015,-1869,-1683,-1254,-351
1429,-839,-2269,-295,1849,-1554,-1195,-1908,-1815,-1659,-1259,-390
1434,-839,-2274,-297,1854,-1556,-1146,-1761,-1732,-1615,-1259,-429
1400,-854,-2254,-273,1827,-1554,-1093,-1629,-1639,-1566,-1239,-453
1351,-868,-2220,-241,1786,-1544,-1019,-1503,-1561,-1507,-1224,-488
1259,-868,-2127,-195,1693,-1498,-941,-1381,-1473,-1444,-1190,-536
1117,-858,-1976,-129,1546,-1417,-844,-1273,-1381,-1346,-1132,-570
922,-814,-1737,-53,1329,-1276,-732,-1180,-1263,-1229,-1058,-570
736,-775,-1512,19,1124,-1144,-629,-1073,-1141,-1102,-990,-561
595,-761,-1356,82,976,-1058,-551,-946,-1029,-1015,-922,-536
439,-727,-1166,143,802,-946,-458,-819,-907,-917,-834,-497
322,-673,-995,175,658,-834,-375,-727,-805,-810,-761,-448
307,-590,-897,141,602,-744,-341,-649,-722,-736,-697,-419
317,-497,-814,90,566,-656,-312,-585,-649,-653,-619,-356
258,-414,-673,78,466,-544,-263,-497,-541,-546,-527,-297
190,-361,-551,85,370,-456,-195,-419,-458,-448,-439,-253
146,-322,-468,87,307,-395,-141,-341,-375,-375,-375,-229
102,-278,-380,87,241,-329,-97,-263,-283,-297,-302,-185
24,-234,-258,104,141,-246,-53,-190,-200,-224,-253,-151
-19,-204,-185,112,82,-195,-14,-146,-146,-175,-209,-126
-43,-161,-117,102,36,-139,4,-92,-92,-126,-170,-97
-39,-126,-87,82,24,-107,19,-53,-48,-87,-126,-58
-29,-107,-78,68,24,-92,29,-48,-43,-73,-112,-53
-29,-92,-63,61,17,-78,39,-39,-43,-58,-92,-43
-48,-82,-34,65,-7,-58,53,-29,-24,-29,-68,-34
-68,-82,-14,75,-26,-48,68,-19,4,-9,-53,-19
-63,-82,-19,73,-21,-51,58,-14,4,-9,-53,-9
-63,-68,-4,65,-29,-36,48,-14,-4,-19,-63,-9
-63,-63,0,63,-31,-31,48,-14,-4,-24,-63,-9
-68,-63,4,65,-36,-29,48,-14,-9,-24,-63,-9
-68,-63,4,65,-36,-29,43,-14,-14,-29,-63,-9
-73,-73,0,73,-36,-36,53,-24,-14,-29,-63,0
-73,-73,0,73,-36,-36,53,-19,-4,-14,-58,4
-78,-68,9,73,-43,-29,63,-9,4,0,-48,9
-82,-58,24,70,-53,-17,63,-9,9,0,-48,14
-87,-68,19,78,-53,-24,53,-9,0,0,-48,14
-87,-73,14,80,-51,-29,48,-4,0,-4,-48,14
-87,-73,14,80,-51,-29,48,-4,0,-4,-48,14
-82,-63,19,73,-51,-21,53,-4,0,-4,-48,14
-87,-68,19,78,-53,-24,53,0,9,-4,-48,4
-87,-68,19,78,-53,-24,53,0,14,-4,-48,0
-92,-73,19,82,-56,-26,53,0,14,0,-48,-4
-117,-73,43,95,-80,-14,53,0,14,4,-43,-4
-112,-63,48,87,-80,-7,58,9,14,0,-53,-9
-112,-63,48,87,-80,-7,68,9,14,0,-53,-14
-107,-68,39,87,-73,-14,58,4,9,0,-58,-29
-102,-73,29,87,-65,-21,58,4,9,-9,-58,-39
-107,-63,43,85,-75,-9,68,-4,4,-9,-53,-48
-107,-58,48,82,-78,-4,68,-9,4,-4,-48,-53
-102,-43,58,73,-80,7,68,-9,4,4,-43,-63
-97,-43,53,70,-75,4,73,-4,14,14,-39,-68
-102,-43,58,73,-80,7,68,-9,4,4,-43,-82
-107,-53,53,80,-80,0,68,-4,4,9,-43,-87
-117,-53,63,85,-90,4,68,-4,4,9,-43,-92
-122,-53,68,87,-95,7,68,-4,0,0,-48,-102
-122,-53,68,87,-95,7,68,4,4,4,-48,-117
-122,-53,68,87,-95,7,68,4,0,4,-48,-117
-126,-58,68,92,-97,4,68,4,0,4,-53,-117
-126,-58,68,92,-97,4,68,4,4,4,-53,-117
-112,-68,43,90,-78,-12,68,-4,4,-4,-53,-117
-112,-58,53,85,-82,-2,68,-4,4,-4,-48,-117
-112,-53,58,82,-85,2,73,0,9,-4,-48,-112
-107,-53,53,80,-80,0,73,0,9,-4,-53,-107
-107,-43,63,75,-85,9,63,-4,0,-9,-68,-112
-112,-43,68,78,-90,12,63,-4,0,-14,-73,-107
-112,-48,63,80,-87,7,63,-4,-4,-14,-73,-107
-112,-48,63,80,-87,7,63,-4,-4,-9,-73,-102
-122,-48,73,85,-97,12,73,4,9,-9,-58,-82
-122,-48,73,85,-97,12,73,9,9,-9,-58,-78
-131,-48,82,90,-107,17,68,9,9,-9,-58,-73
-122,-48,73,85,-97,12,68,9,9,-9,-58,-68
-112,-43,68,78,-90,12,68,14,0,-9,-58,-58
-112,-43,68,78,-90,12,68,14,0,-9,-58,-58
-112,-43,68,78,-90,12,68,14,0,-9,-58,-53
-112,-48,63,80,-87,7,73,19,0,-9,-58,-53
-107,-53,53,80,-80,0,63,19,0,-19,-73,-43
-112,-53,58,82,-85,2,63,14,-4,-19,-73,-43
-122,-53,68,87,-95,7,63,14,-4,-19,-73,-39
-122,-53,68,87,-95,7,63,19,-4,-19,-73,-34
-126,-58,68,92,-97,4,68,19,0,-14,-82,-29
-131,-58,73,95,-102,7,73,24,0,-14,-82,-24
-136,-58,78,97,-107,9,82,24,0,-14,-87,-19
-141,-58,82,100,-112,12,87,29,0,-14,-87,-14
-141,-48,92,95,-117,21,78,29,9,-4,-78,-14
-151,-53,97,102,-124,21,82,29,9,-4,-87,-14
-156,-53,102,104,-129,24,82,29,9,-4,-87,-9
-156,-53,102,104,-129,24,82,34,9,-4,-87,-4
-165,-63,102,114,-134,19,82,39,4,-14,-87,-4
-161,-63,97,112,-129,17,82,39,4,-14,-87,-4
-161,-63,97,112,-129,17,87,43,4,-9,-87,-4
-161,-63,97,112,-129,17,87,43,9,-9,-87,-4
-161,-53,107,107,-134,26,92,58,19,-9,-87,4
-156,-53,102,104,-129,24,92,58,19,-9,-92,4
-161,-53,107,107,-134,26,97,68,19,-4,-92,4
-146,-53,92,100,-119,19,97,73,24,-4,-92,4
-156,-53,102,104,-129,24,102,63,24,4,-92,24
-156,-53,102,104,-129,24,107,73,29,9,-92,24
-156,-48,107,102,-131,29,112,78,29,14,-92,29
-156,-43,112,100,-134,34,117,78,39,14,-87,34
-156,-48,107,102,-131,29,112,78,34,9,-97,48
-156,-48,107,102,-131,29,112,82,34,9,-97,48
-156,-48,107,102,-131,29,112,82,34,9,-102,53
-165,-48,117,107,-141,34,112,87,39,9,-102,53
-175,-48,126,112,-151,39,122,97,48,24,-87,68
-175,-48,126,112,-151,39,126,102,53,29,-82,78
-180,-48,131,114,-156,41,141,107,58,34,-82,82
-180,-43,136,112,-158,46,151,117,63,39,-82,82
-185,-34,151,109,-168,58,146,112,68,34,-92,82
-185,-34,151,109,-168,58,156,117,73,39,-87,87
-190,-43,146,117,-168,51,156,122,78,43,-87,87
-204,-43,161,124,-183,58,161,122,82,43,-87,87
-195,-29,165,112,-180,68,161,141,92,48,-87,87
-204,-29,175,117,-190,73,165,146,97,48,-87,87
-204,-29,175,117,-190,73,170,151,102,58,-82,87
-209,-29,180,119,-195,75,180,156,112,63,-82,87
-214,-29,185,122,-200,78,185,175,122,68,-73,87
-224,-24,200,124,-212,87,190,185,131,73,-68,87
-224,-19,204,122,-214,92,195,195,136,78,-68,82
-224,-14,209,119,-217,97,200,204,141,82,-63,73
-229,-14,214,122,-222,100,204,200,141,73,-73,63
-229,-14,214,122,-222,100,209,204,146,78,-63,58
-234,-14,219,124,-226,102,219,219,161,87,-63,53
-244,-14,229,129,-236,107,224,224,161,97,-63,48
-253,-9,244,131,-248,117,229,248,180,102,-63,29
-258,-9,248,134,-253,119,234,248,185,102,-53,24
-268,-14,253,141,-261,119,239,258,195,107,-53,14
-268,-14,253,141,-261,119,248,273,200,112,-53,14
-273,0,273,136,-273,136,263,273,209,126,-53,4
-273,9,283,131,-278,146,273,283,214,126,-43,0
-278,0,278,139,-278,139,278,297,224,131,-43,-19
-307,-4,302,156,-305,148,283,307,234,141,-43,-24
-331,0,331,165,-331,165,287,312,239,156,-24,-34
-336,4,341,165,-339,173,297,317,244,161,-19,-34
-336,9,346,163,-341,178,297,322,253,170,-14,-34
-331,29,361,151,-346,195,297,331,258,175,-4,-34
-322,39,361,141,-341,200,307,341,263,175,-9,-39
-326,34,361,146,-344,197,312,351,278,180,-4,-39
-331,39,370,146,-351,204,317,361,287,185,0,-43
-336,39,375,148,-356,207,322,361,287,190,4,-53
-346,43,390,151,-368,217,326,366,287,200,4,-63
-356,48,405,153,-380,226,326,370,292,204,9,-63
-361,48,409,156,-385,229,336,370,297,209,14,-58
-375,48,424,163,-400,236,336,370,302,214,19,-58
-380,58,439,161,-409,248,326,366,302,214,24,-43
-385,58,444,163,-414,251,326,366,302,219,29,-43
-385,63,448,161,-417,256,326,356,302,219,29,-43
-380,68,448,156,-414,258,326,356,302,219,43,-39
-390,78,468,156,-429,273,326,361,312,224,53,-39
-395,78,473,158,-434,275,326,361,317,234,58,-24
-395,78,473,158,-434,275,326,351,317,234,63,-24
-409,78,488,165,-448,283,326,351,317,244,68,-19
-409,78,488,165,-448,283,317,346,322,248,73,-4
-409,82,492,163,-451,287,312,341,322,253,78,0
-405,87,492,158,-448,290,307,331,322,253,78,4
-400,92,492,153,-446,292,302,326,322,258,87,19
-390,102,492,143,-441,297,297,322,322,263,97,34
-380,107,488,136,-434,297,292,317,322,268,107,53
-366,112,478,126,-422,295,292,312,326,273,117,63
-356,126,483,114,-419,305,283,302,326,278,117,73
-341,117,458,112,-400,287,263,292,317,278,126,73
-326,112,439,107,-383,275,258,283,317,283,126,82
-317,107,424,104,-370,265,248,268,317,283,126,102
-307,102,409,102,-358,256,229,263,307,278,122,107
-312,112,424,100,-368,268,224,253,307,278,131,122
-292,112,405,90,-348,258,209,244,302,273,141,141
-273,112,385,80,-329,248,195,229,287,273,146,146
-253,107,361,73,-307,234,185,204,278,263,146,165
-234,107,341,63,-287,224,170,204,263,253,141,170
-209,112,322,48,-265,217,156,190,253,248,141,170
-190,112,302,39,-246,207,141,165,239,239,136,170
-170,112,283,29,-226,197,126,151,224,229,131,180
-156,102,258,26,-207,180,107,122,200,209,126,195
-151,82,234,34,-192,158,92,107,185,200,122,195
-151,78,229,36,-190,153,78,87,170,185,107,195
-146,73,219,36,-183,146,63,63,156,175,97,195
-126,58,185,34,-156,122,48,53,141,161,87,175
-97,63,161,17,-129,112,43,43,131,146,82,175
-73,68,141,2,-107,104,34,29,122,141,73,170
-58,68,126,-4,-92,97,24,14,107,131,63,170
-48,58,107,-4,-78,82,24,9,92,117,73,170
-43,58,102,-7,-73,80,14,-4,87,112,68,175
-29,53,82,-12,-56,68,14,-9,78,102,63,175
-19,53,73,-17,-46,63,9,-29,63,92,58,175
-14,63,78,-24,-46,70,-4,-39,48,82,53,165
-4,58,63,-26,-34,61,-4,-43,39,73,48,165
0,53,53,-26,-26,53,-9,-48,34,68,43,161
0,48,48,-24,-24,48,-9,-58,24,68,39,156
0,48,48,-24,-24,48,-9,-58,24,53,29,141
4,43,39,-24,-17,41,-24,-68,9,43,19,136
9,34,24,-21,-7,29,-24,-73,9,39,19,136
19,34,14,-26,2,24,-24,-78,4,39,19,136
19,29,9,-24,4,19,-34,-82,-9,34,14,136
19,29,9,-24,4,19,-39,-92,-14,29,9,136
24,24,0,-24,12,12,-39,-92,-14,29,4,136
24,14,-9,-19,17,2,-39,-87,-19,29,4,131
24,14,-9,-19,17,2,-39,-97,-19,24,0,126
14,14,0,-14,7,7,-39,-102,-24,19,0,122
24,19,-4,-21,14,7,-39,-102,-24,19,0,122
29,19,-9,-24,19,4,-39,-102,-24,19,0,126
29,19,-9,-24,19,4,-39,-102,-29,9,-9,117
34,24,-9,-29,21,7,-39,-102,-29,9,-9,117
34,24,-9,-29,21,7,-43,-102,-34,4,-9,117
29,14,-14,-21,21,0,-43,-107,-34,4,-14,117
29,9,-19,-19,24,-4,-34,-117,-24,4,-9,112
29,9,-19,-19,24,-4,-39,-117,-29,4,-14,112
29,9,-19,-19,24,-4,-39,-117,-29,4,-19,112
29,4,-24,-17,26,-9,-39,-117,-29,0,-14,112
29,14,-14,-21,21,0,-24,-117,-19,9,-4,122
24,14,-9,-19,17,2,-24,-117,-19,9,-4,122
14,9,-4,-12,9,2,-24,-112,-19,9,-9,122
4,9,4,-7,0,7,-29,-102,-29,9,-9,122
9,-9,-19,0,14,-14,-39,-107,-39,0,-9,107
9,-9,-19,0,14,-14,-39,-112,-39,-4,-4,102
19,0,-19,-9,19,-9,-34,-117,-34,-4,-4,102
19,4,-14,-12,17,-4,-34,-122,-34,-9,-4,107
19,14,-4,-17,12,4,-43,-122,-34,-9,-19,107
9,4,-4,-7,7,0,-48,-122,-39,-9,-19,107
9,0,-9,-4,9,-4,-48,-122,-39,-14,-14,102
4,-4,-9,0,7,-7,-43,-122,-39,-14,-14,102
14,4,-9,-9,12,-2,-34,-107,-29,-4,-9,92
19,4,-14,-12,17,-4,-39,-102,-29,-9,-14,97
19,9,-9,-14,14,0,-39,-97,-29,-9,-14,97
19,14,-4,-17,12,4,-39,-92,-29,-4,-14,97
14,9,-4,-12,9,2,-39,-97,-29,-4,-14,97
9,9,0,-9,4,4,-39,-102,-29,-4,-14,102
4,4,0,-4,2,2,-39,-107,-29,-4,-9,102
0,4,4,-2,-2,4,-39,-107,-24,-4,-4,102
0,4,4,-2,-2,4,-48,-107,-34,-4,-4,102
0,4,4,-2,-2,4,-48,-107,-34,-4,-4,102
0,4,4,-2,-2,4,-48,-107,-29,0,-4,102
-4,4,9,0,-7,7,-48,-107,-29,0,-9,102
0,14,14,-7,-7,14,-39,-102,-29,4,-9,112
0,4,4,-2,-2,4,-39,-97,-24,4,-4,112
0,4,4,-2,-2,4,-39,-92,-19,0,0,107
4,9,4,-7,0,7,-39,-82,-14,0,4,107
0,9,9,-4,-4,9,-39,-82,-19,-9,0,112
-4,9,14,-2,-9,12,-39,-82,-19,-9,0,112
-9,9,19,0,-14,14,-34,-82,-19,-4,0,107
-19,4,24,7,-21,14,-34,-78,-19,0,9,102
-29,0,29,14,-29,14,-43,-87,-24,-4,9,97
-14,-4,9,9,-12,2,-43,-87,-24,-4,9,97
-14,-4,9,9,-12,2,-43,-87,-24,-4,9,92
-14,-9,4,12,-9,-2,-43,-87,-24,0,9,92
-4,-4,0,4,-2,-2,-29,-82,-9,0,9,97
-4,0,4,2,-4,2,-29,-73,-9,0,9,97
-9,4,14,2,-12,9,-29,-68,-9,0,9,97
-9,9,19,0,-14,14,-39,-68,-9,0,9,92
0,4,4,-2,-2,4,-39,-58,-4,0,9,82
4,4,0,-4,2,2,-39,-58,-4,0,9,73
4,9,4,-7,0,7,-39,-58,-4,0,4,73
4,9,4,-7,0,7,-39,-53,-4,0,4,73
0,0,0,0,0,0,-34,-39,4,0,9,63
-9,0,9,4,-9,4,-34,-39,4,0,9,63
-14,0,14,7,-14,7,-34,-39,4,0,9,58
-9,0,9,4,-9,4,-34,-39,9,0,9,58
-19,-4,14,12,-17,4,-34,-48,4,0,9,58
-19,-4,14,12,-17,4,-34,-48,4,0,9,53
-19,-4,14,12,-17,4,-34,-43,4,0,9,53
-9,-4,4,7,-7,0,-34,-43,4,0,9,58
9,4,-4,-7,7,0,-24,-34,4,4,14,48
14,4,-9,-9,12,-2,-24,-24,9,4,19,48
14,4,-9,-9,12,-2,-24,-19,14,4,19,48
19,4,-14,-12,17,-4,-24,-19,14,9,19,48
4,19,14,-12,-4,17,-19,-9,29,24,34,63
0,19,19,-9,-9,19,-19,-9,29,24,34,63
4,14,9,-9,-2,12,-19,-9,29,24,29,63
0,9,9,-4,-4,9,-14,-14,29,19,29,58
0,9,9,-4,-4,9,-24,-19,14,19,19,53
-4,14,19,-4,-12,17,-29,-24,14,24,19,53
-4,14,19,-4,-12,17,-29,-29,19,24,19,48
0,14,14,-7,-7,14,-29,-29,19,24,24,43
4,4,0,-4,2,2,-24,-24,29,24,24,48
9,9,0,-9,4,4,-24,-19,34,29,24,58
19,19,0,-19,9,9,-24,-14,39,29,34,63
24,19,-4,-21,14,7,-24,-9,39,29,34,73
24,19,-4,-21,14,7,-24,-14,39,24,39,73
19,24,4,-21,7,14,-19,-9,43,24,39,78
19,24,4,-21,7,14,-19,-9,43,29,39,78
19,14,-4,-17,12,4,-24,-14,34,29,29,73
14,14,0,-14,7,7,-43,-24,24,14,14,63
14,14,0,-14,7,7,-43,-24,24,14,14,68
14,14,0,-14,7,7,-39,-24,29,19,19,78
14,9,-4,-12,9,2,-39,-24,29,19,19,78
14,19,4,-17,4,12,-39,-14,29,24,29,78
14,19,4,-17,4,12,-39,-14,34,24,29,82
29,24,-4,-26,17,9,-39,-14,34,24,29,87
34,29,-4,-31,19,12,-39,-14,34,24,34,92
34,24,-9,-29,21,7,-29,-19,34,34,34,92
19,24,4,-21,7,14,-29,-19,34,34,34,97
19,19,0,-19,9,9,-29,-19,34,34,39,97
19,19,0,-19,9,9,-29,-19,29,39,39,92
29,14,-14,-21,21,0,-39,-34,19,39,29,92
29,19,-9,-24,19,4,-43,-34,19,29,29,87
29,14,-14,-21,21,0,-43,-34,19,29,24,87
29,29,0,-29,14,14,-43,-39,14,24,19,87
24,24,0,-24,12,12,-34,-29,24,24,29,87
19,19,0,-19,9,9,-34,-29,24,34,34,87
14,14,0,-14,7,7,-34,-19,24,34,34,87
24,14,-9,-19,17,2,-34,-19,24,34,34,78
19,4,-14,-12,17,-4,-34,-19,29,29,34,78
9,4,-4,-7,7,0,-29,-19,29,29,34,73
0,4,4,-2,-2,4,-29,-24,24,24,34,68
-14,-9,4,12,-9,-2,-43,-34,19,4,24,58
-4,-9,-4,7,0,-7,-43,-34,24,9,24,63
-4,-4,0,4,-2,-2,-39,-34,24,19,29,63
0,0,0,0,0,0,-39,-34,24,29,29,63
4,4,0,-4,2,2,-39,-39,24,34,29,63
14,9,-4,-12,9,2,-39,-48,24,24,29,53
14,9,-4,-12,9,2,-43,-43,24,14,29,53
14,9,-4,-12,9,2,-43,-43,14,14,29,43
19,9,-9,-14,14,0,-43,-43,24,14,29,43
19,0,-19,-9,19,-9,-43,-43,24,14,29,53
14,0,-14,-7,14,-7,-43,-43,19,14,29,53
9,0,-9,-4,9,-4,-43,-43,19,14,29,53
4,0,-4,-2,4,-2,-39,-43,24,19,29,48
14,0,-14,-7,14,-7,-39,-39,24,19,29,48
19,4,-14,-12,17,-4,-39,-39,19,19,29,48
19,4,-14,-12,17,-4,-39,-39,19,14,29,48
19,4,-14,-12,17,-4,-39,-39,19,14,29,43
9,-4,-14,-2,12,-9,-34,-39,19,14,29,43
9,4,-4,-7,7,0,-34,-34,19,14,29,39
9,4,-4,-7,7,0,-39,-34,19,14,24,39
14,4,-9,-9,12,-2,-39,-39,19,14,24,39
4,-4,-9,0,7,-7,-48,-43,9,9,19,39
4,-14,-19,4,12,-17,-53,-48,0,9,19,39
4,-14,-19,4,12,-17,-53,-48,0,4,24,39
0,-4,-4,2,2,-4,-43,-48,0,4,24,39
4,4,0,-4,2,2,-43,-43,4,14,24,53
0,0,0,0,0,0,-43,-43,4,4,24,53
0,-9,-9,4,4,-9,-43,-43,0,4,14,53
-9,-9,0,9,-4,-4,-48,-43,0,4,9,48
-4,0,4,2,-4,2,-48,-43,0,9,19,48
0,-9,-9,4,4,-9,-43,-43,4,9,19,53
9,4,-4,-7,7,0,-34,-43,9,14,19,63
14,4,-9,-9,12,-2,-29,-39,14,19,19,68
4,4,0,-4,2,2,-29,-39,4,9,19,78
9,4,-4,-7,7,0,-29,-43,4,9,19,82
9,4,-4,-7,7,0,-24,-43,4,9,19,82
9,9,0,-9,4,4,-24,-43,4,14,19,82
-4,4,9,0,-7,7,-34,-43,4,9,4,73
0,0,0,0,0,0,-34,-43,4,9,4,73
-4,-4,0,4,-2,-2,-34,-43,4,9,9,73
-14,-9,4,12,-9,-2,-34,-43,4,4,9,73
-4,-9,-4,7,0,-7,-43,-53,4,4,9,63
-4,-14,-9,9,2,-12,-34,-53,0,0,9,63
-4,-14,-9,9,2,-12,-34,-53,0,0,4,68
-4,-9,-4,7,0,-7,-34,-53,0,0,4,73
-4,-9,-4,7,0,-7,-34,-43,0,0,4,63
0,-9,-9,4,4,-9,-34,-43,0,0,4,63
4,-9,-14,2,9,-12,-34,-43,0,0,4,63
9,-9,-19,0,14,-14,-34,-43,0,-4,0,63
0,-9,-9,4,4,-9,-43,-48,0,-14,4,58
0,-9,-9,4,4,-9,-43,-48,0,-4,4,58
4,-4,-9,0,7,-7,-43,-48,0,0,4,58
4,-4,-9,0,7,-7,-39,-48,-9,0,4,68
0,4,4,-2,-2,4,-29,-53,-9,0,9,78
0,4,4,-2,-2,4,-29,-48,-9,0,9,78
0,4,4,-2,-2,4,-34,-48,-14,-4,9,73
0,4,4,-2,-2,4,-34,-48,-14,-4,14,68
-9,9,19,0,-14,14,-29,-53,-9,-4,14,78
-14,0,14,7,-14,7,-29,-63,0,4,19,87
0,-4,-4,2,2,-4,-39,-58,-9,0,14,73
0,-9,-9,4,4,-9,-48,-58,-9,-9,9,68
9,0,-9,-4,9,-4,-48,-58,-9,-9,0,68
9,0,-9,-4,9,-4,-48,-58,-9,-9,0,68
9,0,-9,-4,9,-4,-48,-58,-9,-9,0,68
9,0,-9,-4,9,-4,-48,-58,-9,-9,0,68
0,9,9,-4,-4,9,-43,-68,-9,-9,9,78
0,9,9,-4,-4,9,-39,-68,-9,-9,9,78
0,9,9,-4,-4,9,-34,-68,-9,-9,9,78
0,9,9,-4,-4,9,-29,-68,-9,-9,9,78
0,9,9,-4,-4,9,-29,-58,-9,-19,0,68
0,9,9,-4,-4,9,-29,-58,-9,-19,0,68
0,9,9,-4,-4,9,-29,-58,-9,-19,0,68
0,9,9,-4,-4,9,-29,-58,-9,-19,0,68
-9,0,9,4,-9,4,-29,-58,-9,-9,9,68
-9,0,9,4,-9,4,-29,-58,-9,-9,9,68
-9,0,9,4,-9,4,-29,-58,-9,-9,9,68
-9,0,9,4,-9,4,-29,-58,-9,-9,9,68
0,0,0,0,0,0,-29,-58,-9,-9,0,68
0,0,0,0,0,0,-29,-58,-9,-9,0,68
0,0,0,0,0,0,-29,-58,-9,-9,0,68
0,0,0,0,0,0,-29,-58,-9,-9,0,68
9,9,0,-9,4,4,-29,-48,-9,-9,0,58
9,9,0,-9,4,4,-29,-48,-9,-9,0,58
9,9,0,-9,4,4,-29,-48,-9,-9,0,58
9,9,0,-9,4,4,-29,-48,-9,-9,0,58
0,0,0,0,0,0,-39,-48,-9,-9,0,58
0,0,0,0,0,0,-39,-48,-9,-9,0,58
0,0,0,0,0,0,-39,-48,-9,-9,0,58
0,0,0,0,0,0,-39,-48,-9,-9,0,58
-4,0,4,2,-4,2,-39,-48,0,0,9,58
-9,0,9,4,-9,4,-39,-48,0,0,9,58
-14,0,14,7,-14,7,-39,-48,0,0,9,58
-19,0,19,9,-19,9,-39,-48,0,0,9,58
-4,4,9,0,-7,7,-29,-39,9,9,19,58
0,9,9,-4,-4,9,-29,-39,9,9,19,58
4,14,9,-9,-2,12,-29,-39,9,9,19,58
9,19,9,-14,0,14,-29,-39,9,9,19,58
19,29,9,-24,4,19,-24,-24,24,24,34,63
19,39,19,-29,0,29,-19,-19,29,29,39,68
19,48,29,-34,-4,39,-14,-14,34,34,43,73
19,58,39,-39,-9,48,-9,-9,39,39,48,78
24,63,39,-43,-7,51,-4,4,43,48,58,87
29,68,39,-48,-4,53,0,9,48,48,58,87
34,73,39,-53,-2,56,4,14,53,48,58,87
39,78,39,-58,0,58,9,19,58,48,58,87
29,73,43,-51,-7,58,19,24,68,48,58,78
29,68,39,-48,-4,53,19,29,68,48,58,78
29,63,34,-46,-2,48,19,34,68,48,58,78
29,58,29,-43,0,43,19,39,68,48,58,78
39,63,24,-51,7,43,19,43,78,53,68,82
39,68,29,-53,4,48,19,48,78,58,68,87
39,73,34,-56,2,53,19,53,78,63,68,92
39,78,39,-58,0,58,19,58,78,68,68,97
53,78,24,-65,14,51,14,68,87,78,78,97
58,78,19,-68,19,48,9,68,87,78,78,97
63,78,14,-70,24,46,4,68,87,78,78,97
68,78,9,-73,29,43,0,68,87,78,78,97
68,73,4,-70,31,39,-14,63,78,68,78,107
68,68,0,-68,34,34,-19,58,78,68,78,107
68,63,-4,-65,36,29,-24,53,78,68,78,107
68,58,-9,-63,39,24,-29,48,78,68,78,107
78,68,-9,-73,43,29,-34,29,63,63,73,97
78,68,-9,-73,43,29,-39,19,58,58,68,97
78,68,-9,-73,43,29,-43,9,53,53,63,97
78,68,-9,-73,43,29,-48,0,48,48,58,97
73,58,-14,-65,43,21,-53,-14,39,39,48,97
68,58,-9,-63,39,24,-58,-19,39,39,48,97
63,58,-4,-61,34,26,-63,-24,39,39,48,97
58,58,0,-58,29,29,-68,-29,39,39,48,97
48,53,4,-51,21,29,-78,-48,19,34,39,87
48,48,0,-48,24,24,-78,-58,9,29,39,87
48,43,-4,-46,26,19,-78,-68,0,24,39,87
48,39,-9,-43,29,14,-78,-78,-9,19,39,87
48,29,-19,-39,34,4,-68,-68,-19,14,24,82
48,29,-19,-39,34,4,-68,-68,-19,9,19,78
48,29,-19,-39,34,4,-68,-68,-19,4,14,73
48,29,-19,-39,34,4,-68,-68,-19,0,9,68
39,19,-19,-29,29,0,-58,-78,-24,-4,0,58
29,19,-9,-24,19,4,-58,-78,-29,-9,0,58
19,9,-9,-14,14,0,-58,-78,-39,-19,0,58
14,4,-9,-9,12,-2,-58,-87,-48,-29,-9,58
14,0,-14,-7,14,-7,-63,-97,-53,-24,-4,58
14,-9,-24,-2,19,-17,-63,-102,-58,-34,-9,53
14,-9,-24,-2,19,-17,-63,-102,-53,-34,-14,48
14,-9,-24,-2,19,-17,-68,-97,-48,-34,-14,48
14,-4,-19,-4,17,-12,-68,-87,-53,-34,-14,53
19,-14,-34,-2,26,-24,-63,-87,-53,-34,-14,53
24,-14,-39,-4,31,-26,-58,-82,-48,-34,-14,53
34,-14,-48,-9,41,-31,-53,-78,-48,-34,-14,53
24,-14,-39,-4,31,-26,-53,-87,-48,-29,-14,43
14,-19,-34,2,24,-26,-53,-87,-48,-29,-14,43
9,-19,-29,4,19,-24,-48,-82,-43,-34,-9,43
9,-19,-29,4,19,-24,-48,-82,-43,-34,-9,43
9,-19,-29,4,19,-24,-34,-73,-43,-24,0,48
9,-14,-24,2,17,-19,-34,-73,-43,-24,0,53
9,-9,-19,0,14,-14,-29,-73,-43,-19,0,58
0,-4,-4,2,2,-4,-19,-63,-34,-19,0,63
0,-4,-4,2,2,-4,-24,-63,-34,-14,-9,63
-9,-9,0,9,-4,-4,-19,-63,-34,-14,-9,53
-14,-4,9,9,-12,2,-9,-63,-34,-14,-9,53
-24,-4,19,14,-21,7,0,-58,-24,-14,-9,48
-29,-9,19,19,-24,4,-9,-48,-24,-24,-9,43
-39,-14,24,26,-31,4,-4,-48,-24,-29,-14,39
-43,-19,24,31,-34,2,-4,-53,-24,-29,-19,24
-43,-29,14,36,-29,-7,0,-53,-34,-29,-24,19
-48,-39,9,43,-29,-14,0,-53,-39,-24,-24,14
-53,-39,14,46,-34,-12,0,-63,-43,-29,-24,14
-58,-39,19,48,-39,-9,0,-63,-43,-29,-24,14
-63,-53,9,58,-36,-21,0,-63,-43,-34,-29,14
-58,-48,9,53,-34,-19,-9,-68,-53,-43,-29,14
-53,-43,9,48,-31,-17,-9,-68,-53,-43,-29,4
-63,-48,14,56,-39,-17,-9,-68,-53,-43,-29,0
-73,-53,19,63,-46,-17,-9,-73,-63,-43,-34,0
-68,-58,9,63,-39,-24,-4,-63,-58,-34,-24,0
-63,-53,9,58,-36,-21,0,-63,-48,-34,-29,-4
-53,-43,9,48,-31,-17,4,-63,-43,-34,-29,-4
-39,-39,0,39,-19,-19,9,-58,-39,-34,-29,-4
-48,-39,9,43,-29,-14,0,-58,-48,-34,-29,-4
-43,-34,9,39,-26,-12,4,-53,-48,-34,-24,0
-43,-34,9,39,-26,-12,4,-53,-43,-34,-24,0
-43,-34,9,39,-26,-12,4,-53,-43,-34,-29,0
-63,-53,9,58,-36,-21,-4,-63,-43,-43,-29,-9
-68,-63,4,65,-36,-29,-9,-63,-43,-48,-29,-9
-73,-78,-4,75,-34,-41,-9,-63,-53,-48,-34,-19
-78,-87,-9,82,-34,-48,-9,-63,-53,-48,-34,-19
-87,-82,4,85,-46,-39,-9,-53,-63,-48,-43,-19
-82,-73,9,78,-46,-31,-9,-58,-63,-48,-43,-14
-82,-63,19,73,-51,-21,-9,-58,-58,-48,-39,-14
-82,-58,24,70,-53,-17,-4,-53,-58,-43,-39,-9
-68,-48,19,58,-43,-14,4,-48,-43,-43,-29,-9
-63,-48,14,56,-39,-17,4,-48,-43,-43,-29,-4
-58,-48,9,53,-34,-19,4,-48,-43,-43,-29,-4
-53,-43,9,48,-31,-17,4,-48,-43,-43,-24,0
-53,-43,9,48,-31,-17,4,-34,-43,-43,-24,9
-53,-43,9,48,-31,-17,4,-34,-43,-43,-24,9
-53,-43,9,48,-31,-17,4,-39,-43,-43,-24,9
-53,-48,4,51,-29,-21,4,-39,-43,-43,-24,4
-58,-53,4,56,-31,-24,4,-39,-43,-34,-24,9
-63,-58,4,61,-34,-26,4,-39,-43,-34,-24,4
-63,-58,4,61,-34,-26,4,-39,-43,-34,-24,19
-53,-53,0,53,-26,-26,4,-34,-34,-34,-24,24
-43,-48,-4,46,-19,-26,14,-43,-34,-34,-34,24
-43,-48,-4,46,-19,-26,14,-43,-39,-34,-34,24
-43,-48,-4,46,-19,-26,14,-43,-39,-34,-34,24
-43,-48,-4,46,-19,-26,19,-43,-39,-34,-29,24
-43,-24,19,34,-31,-2,29,-24,-29,-24,-19,34
-43,-14,29,29,-36,7,34,-29,-24,-19,-19,24
-58,0,58,29,-58,29,39,-24,-19,-19,-19,24
-92,19,112,36,-102,65,73,-9,4,0,-14,19
-136,48,185,43,-161,117,107,19,34,24,-4,9
-214,73,287,70,-251,180,156,63,68,53,-4,-4
-302,97,400,102,-351,248,224,141,102,87,-9,-24
-346,122,468,112,-407,295,292,224,151,126,9,-34
-341,161,502,90,-422,331,341,317,214,165,14,-34
-356,200,556,78,-456,378,405,419,287,209,39,-43
-385,224,610,80,-497,417,483,556,395,287,87,-24
-400,253,653,73,-527,453,556,712,551,390,146,0
-424,317,741,53,-583,529,629,863,697,517,229,43
-444,395,839,24,-641,617,678,966,834,634,336,102
-424,458,883,-17,-653,671,673,980,922,741,453,200
-385,541,927,-78,-656,734,614,902,936,829,580,297
-307,639,946,-165,-627,793,492,722,888,888,717,419
-146,766,912,-309,-529,839,287,492,814,956,893,600
107,912,805,-509,-348,858,43,287,780,1049,1112,854
419,1093,673,-756,-126,883,-244,82,756,1146,1356,1117
717,1249,531,-983,92,890,-551,-175,702,1215,1546,1361
971,1361,390,-1166,290,875,-829,-419,619,1210,1659,1537
1239,1400,161,-1320,539,780,-1054,-575,566,1161,1693,1673
1571,1342,-229,-1456,900,556,-1263,-688,507,1034,1668,1751
1849,1185,-663,-1517,1256,261,-1424,-814,409,839,1551,1776
1981,902,-1078,-1442,1529,-87,-1498,-1049,195,551,1302,1683
1966,478,-1488,-1222,1727,-505,-1503,-1400,-204,97,893,1424
1898,-14,-1912,-941,1905,-963,-1483,-1732,-707,-444,380,1073
1849,-390,-2239,-729,2044,-1315,-1429,-1883,-1122,-902,-102,732
1761,-614,-2376,-573,2069,-1495,-1390,-1981,-1429,-1229,-483,419
1639,-741,-2381,-448,2010,-1561,-1346,-2098,-1693,-1483,-819,112
1522,-795,-2318,-363,1920,-1556,-1302,-2127,-1854,-1649,-1102,-190
1468,-805,-2274,-331,1871,-1539,-1268,-2088,-1893,-1703,-1234,-370
1488,-800,-2288,-344,1888,-1544,-1249,-2025,-1878,-1693,-1263,-448
1498,-819,-2318,-339,1908,-1568,-1224,-1908,-1825,-1668,-1278,-488
1464,-849,-2313,-307,1888,-1581,-1176,-1771,-1742,-1634,-1278,-536
1400,-883,-2283,-258,1842,-1583,-1122,-1639,-1668,-1595,-1249,-570
1342,-907,-2249,-217,1795,-1578,-1058,-1532,-1600,-1537,-1234,-605
1259,-897,-2156,-180,1708,-1527,-980,-1410,-1503,-1464,-1200,-634
1098,-868,-1966,-114,1532,-1417,-863,-1283,-1381,-1356,-1141,-658
873,-834,-1708,-19,1290,-1271,-741,-1171,-1263,-1229,-1058,-649
688,-805,-1493,58,1090,-1149,-629,-1044,-1141,-1122,-980,-619
546,-761,-1307,107,927,-1034,-531,-917,-1029,-1024,-902,-575
409,-697,-1107,143,758,-902,-448,-800,-897,-917,-814,-536
331,-624,-956,146,644,-790,-375,-707,-814,-829,-732,-507
317,-551,-868,117,592,-710,-341,-639,-741,-746,-658,-468
297,-468,-766,85,531,-617,-302,-556,-639,-644,-570,-395
219,-395,-614,87,417,-505,-244,-458,-531,-527,-468,-326
151,-341,-492,95,322,-417,-185,-370,-429,-429,-390,-283
97,-292,-390,97,244,-341,-131,-283,-336,-356,-336,-229
43,-239,-283,97,163,-261,-78,-204,-244,-278,-273,-195
4,-185,-190,90,97,-187,-34,-131,-190,-234,-224,-170
-29,-156,-126,92,48,-141,-4,-78,-136,-195,-180,-156
-34,-141,-107,87,36,-124,14,-43,-102,-146,-141,-136
-39,-136,-97,87,29,-117,19,-24,-87,-126,-107,-126
-39,-126,-87,82,24,-107,19,-19,-73,-102,-92,-112
-48,-112,-63,80,7,-87,29,0,-63,-78,-92,-102
-68,-102,-34,85,-17,-68,43,19,-24,-58,-78,-73
-97,-82,14,90,-56,-34,58,39,4,-39,-53,-48
-92,-63,29,78,-61,-17,58,43,4,-39,-53,-48
-82,-68,14,75,-48,-26,48,34,-4,-48,-53,-48
-82,-63,19,73,-51,-21,48,34,-4,-53,-53,-48
-87,-63,24,75,-56,-19,48,34,-9,-53,-53,-48
-87,-63,24,75,-56,-19,43,34,-14,-58,-53,-48
-82,-53,29,68,-56,-12,48,24,-14,-53,-48,-29
-82,-53,29,68,-56,-12,53,29,-4,-34,-39,-24
-87,-48,39,68,-63,-4,68,39,4,-14,-24,-19
-92,-39,53,65,-73,7,73,39,9,-9,-19,-14
-97,-48,48,73,-73,0,63,48,9,-19,-24,-24
-97,-53,43,75,-70,-4,58,53,9,-24,-29,-24
-97,-53,43,75,-70,-4,58,53,9,-24,-34,-24
-92,-43,48,68,-70,2,63,53,9,-24,-39,-24
-97,-43,53,70,-75,4,63,53,0,-24,-39,-34
-97,-48,48,73,-73,0,63,48,4,-24,-39,-39
-102,-58,43,80,-73,-7,63,43,4,-19,-39,-43
-126,-63,63,95,-95,0,63,39,4,-14,-34,-43
-126,-53,73,90,-100,9,68,48,14,-9,-24,-58
-131,-53,78,92,-104,12,78,48,14,-9,-24,-63
-131,-58,73,95,-102,7,68,43,9,-9,-29,-78
-131,-63,68,97,-100,2,68,43,9,-19,-29,-87
-122,-53,68,87,-95,7,78,43,4,-24,-29,-97
-117,-48,68,82,-92,9,78,39,4,-24,-29,-102
-107,-34,73,70,-90,19,78,39,4,-19,-29,-112
-97,-34,63,65,-80,14,82,43,14,-14,-29,-117
-112,-39,73,75,-92,17,78,48,4,-19,-34,-126
-117,-53,63,85,-90,4,78,53,4,-19,-34,-136
-126,-58,68,92,-97,4,78,53,4,-24,-34,-146
-131,-63,68,97,-100,2,78,53,0,-39,-39,-161
-131,-63,68,97,-100,2,78,53,4,-34,-29,-161
-131,-63,68,97,-100,2,78,53,0,-34,-29,-156
-136,-68,68,102,-102,0,78,53,0,-34,-34,-151
-136,-68,68,102,-102,0,78,53,4,-34,-34,-146
-131,-58,73,95,-102,7,78,63,4,-24,-43,-156
-131,-48,82,90,-107,17,78,63,4,-24,-39,-156
-131,-43,87,87,-109,21,82,68,9,-24,-39,-151
-126,-43,82,85,-104,19,82,68,9,-24,-43,-146
-126,-53,73,90,-100,9,82,63,9,-39,-48,-141
-131,-53,78,92,-104,12,82,63,9,-43,-53,-136
-131,-58,73,95,-102,7,82,63,4,-43,-53,-136
-131,-58,73,95,-102,7,82,63,4,-39,-53,-131
-131,-48,82,90,-107,17,82,73,9,-29,-48,-112
-131,-48,82,90,-107,17,82,78,9,-29,-48,-107
-141,-48,92,95,-117,21,78,78,9,-29,-48,-102
-131,-48,82,90,-107,17,78,78,9,-29,-48,-97
-122,-34,87,78,-104,26,87,73,9,-29,-58,-97
-122,-34,87,78,-104,26,87,73,9,-29,-58,-97
-122,-34,87,78,-104,26,87,73,9,-29,-58,-92
-122,-39,82,80,-102,21,92,78,9,-29,-58,-92
-126,-48,78,87,-102,14,87,78,0,-39,-63,-102
-131,-53,78,92,-104,12,82,73,-4,-39,-63,-102
-141,-58,82,100,-112,12,78,73,-4,-39,-63,-97
-141,-63,78,102,-109,7,73,78,-4,-39,-63,-92
-151,-68,82,109,-117,7,73,68,9,-34,-63,-92
-161,-68,92,114,-126,12,73,73,9,-34,-63,-92
-170,-68,102,119,-136,17,78,73,9,-34,-68,-92
-180,-68,112,124,-146,21,78,78,9,-34,-68,-92
-165,-58,107,112,-136,24,87,82,9,-24,-68,-102
-170,-63,107,117,-139,21,92,87,9,-24,-78,-102
-170,-63,107,117,-139,21,92,92,9,-24,-78,-97
-165,-63,102,114,-134,19,92,102,9,-24,-78,-92
-165,-58,107,112,-136,24,92,97,24,-24,-68,-92
-161,-53,107,107,-134,26,92,97,24,-24,-68,-92
-161,-48,112,104,-136,31,97,102,24,-19,-68,-92
-161,-43,117,102,-139,36,97,102,29,-19,-68,-92
-165,-43,122,104,-143,39,102,107,19,-19,-68,-92
-165,-43,122,104,-143,39,102,107,19,-19,-73,-92
-175,-43,131,109,-153,43,107,117,19,-14,-73,-92
-165,-43,122,104,-143,39,107,122,24,-14,-73,-92
-165,-34,131,100,-148,48,122,131,34,-14,-73,-73
-165,-34,131,100,-148,48,126,141,39,-9,-73,-73
-165,-29,136,97,-151,53,131,146,39,-4,-73,-68
-165,-24,141,95,-153,58,136,146,48,-4,-68,-63
-180,-34,146,107,-163,56,131,146,43,9,-68,-68
-185,-39,146,112,-165,53,131,151,43,9,-68,-68
-190,-43,146,117,-168,51,131,151,43,9,-73,-63
-204,-48,156,126,-180,53,131,156,48,9,-73,-63
-209,-58,151,134,-180,46,136,156,48,4,-73,-68
-204,-58,146,131,-175,43,136,161,53,9,-73,-58
-204,-58,146,131,-175,43,146,165,58,14,-78,-53
-200,-53,146,126,-173,46,151,175,63,19,-82,-53
-185,-34,151,109,-168,58,165,185,82,34,-78,-48
-185,-24,161,104,-173,68,175,195,92,39,-68,-39
-190,-24,165,107,-178,70,175,204,102,43,-63,-34
-204,-14,190,109,-197,87,180,209,112,43,-58,-29
-209,-19,190,114,-200,85,170,209,112,48,-48,-29
-224,-19,204,122,-214,92,175,214,117,48,-48,-29
-229,-19,209,124,-219,95,180,219,122,58,-43,-29
-239,-19,219,129,-229,100,190,224,131,63,-43,-29
-234,-29,204,131,-219,87,204,234,122,58,-53,-29
-244,-24,219,134,-231,97,209,244,131,63,-48,-29
-244,-19,224,131,-234,102,214,253,136,68,-48,-34
-244,-14,229,129,-236,107,219,263,141,73,-43,-43
-268,-19,248,143,-258,114,214,258,151,82,-53,-53
-268,-24,244,146,-256,109,219,263,156,87,-43,-58
-273,-29,244,151,-258,107,229,278,170,97,-43,-63
-283,-34,248,158,-265,107,234,283,170,107,-43,-68
-283,-24,258,153,-270,117,248,307,180,112,-34,-68
-287,-19,268,153,-278,124,253,307,185,112,-24,-73
-297,-19,278,158,-287,129,258,317,195,117,-24,-82
-297,-14,283,156,-290,134,268,331,200,122,-24,-82
-292,0,292,146,-292,146,283,351,214,136,-14,-78
-292,9,302,141,-297,156,292,361,224,136,-4,-78
-297,0,297,148,-297,148,297,375,239,141,-4,-92
-326,-4,322,165,-324,158,302,385,253,151,-4,-92
-331,0,331,165,-331,165,297,380,248,156,4,-97
-336,4,341,165,-339,173,307,385,253,161,9,-102
-336,9,346,163,-341,178,307,390,263,170,14,-107
-331,29,361,151,-346,195,307,400,268,175,24,-112
-336,39,375,148,-356,207,326,400,263,185,19,-112
-346,34,380,156,-363,207,331,409,278,190,24,-107
-356,39,395,158,-375,217,336,419,287,195,29,-107
-366,39,405,163,-385,222,341,419,287,200,34,-112
-375,34,409,170,-392,222,336,414,287,200,43,-102
-385,39,424,173,-405,231,336,419,292,204,48,-102
-390,39,429,175,-409,234,346,419,297,209,53,-97
-405,39,444,183,-424,241,346,419,302,214,58,-97
-405,53,458,175,-431,256,356,434,312,224,53,-92
-405,58,463,173,-434,261,356,434,312,229,58,-92
-400,68,468,165,-434,268,356,424,312,229,58,-92
-390,78,468,156,-429,273,356,424,312,229,73,-87
-400,78,478,161,-439,278,346,419,322,234,82,-78
-405,78,483,163,-444,280,346,419,326,244,87,-63
-405,78,483,163,-444,280,346,409,326,244,92,-63
-419,78,497,170,-458,287,346,409,326,253,97,-58
-409,78,488,165,-448,283,336,405,322,248,92,-63
-409,82,492,163,-451,287,331,400,322,253,97,-58
-405,87,492,158,-448,290,326,390,322,253,97,-53
-400,92,492,153,-446,292,322,385,322,258,107,-39
-405,97,502,153,-453,300,317,390,322,263,117,-24
-400,97,497,151,-448,297,312,385,322,268,126,-4
-390,97,488,146,-439,292,312,380,326,273,136,4
-385,107,492,139,-439,300,302,370,326,278,136,14
-390,102,492,143,-441,297,283,361,326,278,151,24
-375,102,478,136,-427,290,278,351,326,283,156,34
-366,102,468,131,-417,285,268,336,326,283,161,53
-356,102,458,126,-407,280,248,331,317,278,161,58
-341,107,448,117,-395,278,234,312,297,278,165,68
-312,112,424,100,-368,268,219,302,292,273,170,82
-283,117,400,82,-341,258,204,287,278,273,170,82
-253,117,370,68,-312,244,195,263,268,263,165,97
-244,117,361,63,-302,239,190,253,263,244,161,92
-219,122,341,48,-280,231,175,239,253,239,161,92
-200,122,322,39,-261,222,161,214,239,229,156,92
-180,122,302,29,-241,212,146,200,224,219,151,102
-161,117,278,21,-219,197,131,170,200,200,136,107
-151,92,244,29,-197,168,112,156,185,190,131,107
-146,82,229,31,-187,156,92,136,170,175,117,107
-136,73,209,31,-173,141,73,112,156,165,107,107
-112,58,170,26,-141,114,63,92,131,141,97,87
-87,63,151,12,-119,107,63,82,122,126,92,87
-68,68,136,0,-102,102,58,68,112,122,82,82
-58,68,126,-4,-92,97,53,53,97,112,73,82
-53,68,122,-7,-87,95,43,48,82,107,82,92
-43,68,112,-12,-78,90,34,34,78,102,78,97
-24,63,87,-19,-56,75,34,29,68,92,73,97
-9,63,73,-26,-41,68,29,9,53,82,68,97
-9,53,63,-21,-36,58,4,-9,48,63,53,87
-4,48,53,-21,-29,51,4,-14,39,53,48,87
-4,43,48,-19,-26,46,0,-19,34,48,43,82
-9,39,48,-14,-29,43,0,-29,24,48,39,78
-4,39,43,-17,-24,41,0,-34,14,43,39,73
-4,34,39,-14,-21,36,-14,-39,0,34,29,68
-4,24,29,-9,-17,26,-14,-39,0,29,29,68
0,24,24,-12,-12,24,-14,-39,-4,29,29,68
14,34,19,-24,-2,26,-14,-53,0,24,24,58
19,39,19,-29,0,29,-19,-63,-4,19,19,58
29,39,9,-34,9,24,-19,-63,-4,19,14,58
34,34,0,-34,17,17,-19,-58,-9,19,14,53
24,24,0,-24,12,12,-19,-58,-19,4,9,48
14,24,9,-19,2,17,-19,-63,-24,0,9,43
24,29,4,-26,9,17,-19,-63,-24,0,9,43
29,29,0,-29,14,14,-19,-63,-24,0,9,48
39,29,-9,-34,24,9,-29,-73,-19,0,0,39
43,34,-9,-39,26,12,-29,-73,-19,0,0,39
43,34,-9,-39,26,12,-34,-73,-24,-4,0,39
39,24,-14,-31,26,4,-34,-78,-24,-4,-4,39
34,19,-14,-26,24,2,-24,-68,-14,4,9,48
29,19,-9,-24,19,4,-29,-68,-19,4,4,53
24,19,-4,-21,14,7,-29,-68,-19,4,0,58
19,14,-4,-17,12,4,-29,-68,-19,0,4,63
9,9,0,-9,4,4,-29,-73,-24,-9,-4,58
4,4,0,-4,2,2,-34,-78,-29,-9,-4,53
-4,-4,0,4,-2,-2,-39,-78,-34,-9,-9,48
-14,-9,4,12,-9,-2,-48,-73,-48,-9,-9,43
-9,-9,0,9,-4,-4,-39,-73,-43,-14,-9,43
-9,-9,0,9,-4,-4,-39,-73,-39,-14,-4,43
0,0,0,0,0,0,-34,-73,-29,-9,-4,48
0,4,4,-2,-2,4,-34,-73,-24,-9,-4,58
9,9,0,-9,4,4,-34,-73,-34,-9,-9,58
0,4,4,-2,-2,4,-39,-73,-39,-9,-9,58
0,4,4,-2,-2,4,-39,-73,-39,-14,-4,53
-4,4,9,0,-7,7,-34,-73,-39,-14,-4,53
4,-4,-9,0,7,-7,-43,-82,-39,-14,-9,53
9,-4,-14,-2,12,-9,-48,-82,-39,-19,-14,58
9,0,-9,-4,9,-4,-48,-82,-39,-19,-14,58
9,4,-4,-7,7,0,-48,-82,-39,-14,-14,58
0,4,4,-2,-2,4,-39,-73,-29,-14,-4,58
0,9,9,-4,-4,9,-39,-73,-29,-14,-4,63
0,9,9,-4,-4,9,-39,-73,-29,-14,0,63
0,14,14,-7,-7,14,-39,-68,-24,-14,4,63
0,14,14,-7,-7,14,-29,-68,-24,-4,4,73
0,14,14,-7,-7,14,-29,-68,-24,-4,4,73
0,14,14,-7,-7,14,-29,-68,-19,0,4,73
-4,14,19,-4,-12,17,-29,-68,-19,0,0,73
0,14,14,-7,-7,14,-39,-58,-24,-4,-4,63
0,4,4,-2,-2,4,-39,-58,-24,-4,-4,63
0,4,4,-2,-2,4,-39,-58,-24,-9,-4,58
4,9,4,-7,0,7,-39,-53,-24,-9,-4,58
4,14,9,-9,-2,12,-29,-53,-19,0,0,58
4,19,14,-12,-4,17,-29,-53,-19,0,0,63
4,24,19,-14,-7,21,-24,-53,-19,4,0,63
0,24,24,-12,-12,24,-24,-48,-19,9,9,63
-4,14,19,-4,-12,17,-34,-53,-24,9,0,48
4,4,0,-4,2,2,-34,-58,-24,4,0,48
0,0,0,0,0,0,-34,-63,-24,0,0,43
-4,-9,-4,7,0,-7,-34,-68,-24,0,0,43
4,-4,-9,0,7,-7,-29,-63,-9,0,9,43
4,0,-4,-2,4,-2,-29,-53,-9,0,9,48
0,4,4,-2,-2,4,-29,-48,-9,0,9,53
0,9,9,-4,-4,9,-39,-48,-9,0,9,53
0,14,14,-7,-7,14,-29,-58,-14,0,9,43
4,14,9,-9,-2,12,-29,-58,-14,0,9,34
4,19,14,-12,-4,17,-29,-58,-14,0,4,34
4,19,14,-12,-4,17,-29,-53,-14,0,4,34
-4,9,14,-2,-9,12,-29,-48,-24,-9,4,24
-9,9,19,0,-14,14,-34,-48,-24,-9,0,24
-9,9,19,0,-14,14,-39,-48,-24,-9,-4,19
0,9,9,-4,-4,9,-43,-48,-19,-9,-9,19
-9,4,14,2,-12,9,-34,-48,-4,0,0,29
-9,4,14,2,-12,9,-34,-48,-4,0,0,24
-9,4,14,2,-12,9,-34,-43,-4,0,0,24
0,4,4,-2,-2,4,-34,-43,-4,0,0,29
4,4,0,-4,2,2,-34,-34,-4,4,4,39
4,4,0,-4,2,2,-34,-24,0,4,9,39
0,4,4,-2,-2,4,-34,-19,4,4,9,39
0,4,4,-2,-2,4,-34,-19,4,9,9,39
9,19,9,-14,0,14,-29,-29,9,4,14,43
9,19,9,-14,0,14,-29,-29,9,4,14,43
19,14,-4,-17,12,4,-29,-29,9,4,9,43
19,9,-9,-14,14,0,-24,-34,9,0,9,39
29,9,-19,-19,24,-4,-14,-43,14,9,9,39
24,14,-9,-19,17,2,-19,-43,14,14,9,43
24,14,-9,-19,17,2,-19,-43,19,14,9,43
29,14,-14,-21,21,0,-19,-39,19,14,14,43
39,24,-14,-31,26,4,-24,-39,9,4,4,39
39,29,-9,-34,24,9,-24,-39,14,9,4,48
43,39,-4,-41,24,17,-24,-39,19,9,14,53
43,39,-4,-41,24,17,-24,-39,19,9,14,63
34,29,-4,-31,19,12,-24,-43,19,14,29,73
29,34,4,-31,12,19,-19,-39,24,14,29,78
29,34,4,-31,12,19,-19,-39,24,19,29,78
29,24,-4,-26,17,9,-24,-43,14,19,19,73
34,24,-9,-29,21,7,-34,-39,14,14,14,73
34,24,-9,-29,21,7,-34,-34,14,14,14,78
34,24,-9,-29,21,7,-29,-29,19,19,19,87
34,19,-14,-26,24,2,-29,-24,19,19,19,87
29,19,-9,-24,19,4,-19,-14,29,14,29,87
24,19,-4,-21,14,7,-19,-14,34,14,29,92
34,24,-9,-29,21,7,-19,-14,34,14,29,97
34,29,-4,-31,19,12,-19,-14,34,14,34,102
24,34,9,-29,7,21,-19,-29,24,24,34,92
9,34,24,-21,-7,29,-19,-29,24,24,34,97
9,29,19,-19,-4,24,-19,-29,24,24,39,97
9,29,19,-19,-4,24,-19,-29,19,29,39,92
14,29,14,-21,0,21,-29,-34,19,19,29,92
19,29,9,-24,4,19,-34,-34,19,9,29,87
24,19,-4,-21,14,7,-34,-34,19,9,24,87
29,29,0,-29,14,14,-34,-39,14,4,19,87
39,39,0,-39,19,19,-24,-48,14,14,29,78
39,39,0,-39,19,19,-24,-48,14,24,34,78
39,39,0,-39,19,19,-24,-39,14,24,34,78
53,43,-9,-48,31,17,-24,-39,14,24,34,68
53,48,-4,-51,29,21,-34,-48,19,19,24,68
48,53,4,-51,21,29,-29,-48,19,19,24,63
43,58,14,-51,14,36,-29,-53,14,14,24,58
34,48,14,-41,9,31,-43,-63,9,-4,14,48
19,29,9,-24,4,19,-43,-58,4,4,4,39
4,14,9,-9,-2,12,-39,-53,4,9,9,34
-4,0,4,2,-4,2,-39,-48,4,14,9,29
-14,-14,0,14,-7,-7,-39,-48,4,14,9,24
-4,0,4,2,-4,2,-39,-48,4,4,9,24
-4,0,4,2,-4,2,-43,-43,4,-4,9,24
-4,0,4,2,-4,2,-43,-43,-4,-4,9,14
0,0,0,0,0,0,-43,-43,4,-4,9,14
14,9,-4,-12,9,2,-34,-43,4,4,19,24
14,9,-4,-12,9,2,-34,-43,0,4,19,24
14,9,-4,-12,9,2,-34,-43,0,4,19,24
14,9,-4,-12,9,2,-29,-43,4,9,19,19
4,9,4,-7,0,7,-39,-39,-4,9,19,19
9,14,4,-12,2,9,-39,-39,-9,9,19,19
9,14,4,-12,2,9,-39,-39,-9,4,19,19
9,14,4,-12,2,9,-39,-39,-9,4,19,14
4,9,4,-7,0,7,-34,-29,-4,4,19,14
9,24,14,-17,-2,19,-34,-24,0,4,19,9
14,29,14,-21,0,21,-39,-24,4,4,14,9
24,34,9,-29,7,21,-39,-29,9,4,14,9
19,29,9,-24,4,19,-29,-43,0,9,19,19
14,14,0,-14,7,7,-34,-48,-9,9,19,19
9,9,0,-9,4,4,-34,-48,-9,4,24,19
0,14,14,-7,-7,14,-24,-48,-9,4,24,19
-14,14,29,0,-21,21,-34,-34,-4,4,24,24
-19,9,29,4,-24,19,-34,-34,-4,-4,24,24
-19,0,19,9,-19,9,-34,-34,-9,-4,14,24
-29,0,29,14,-29,14,-39,-34,-9,-4,9,19
-19,9,29,4,-24,19,-34,-34,-14,-4,9,4
-9,0,9,4,-9,4,-34,-34,-14,-9,9,4
4,14,9,-9,-2,12,-29,-34,-14,-9,9,9
14,14,0,-14,7,7,-29,-29,-14,-9,9,9
14,24,9,-19,2,17,-29,-39,-4,-9,9,9
19,24,4,-21,7,14,-29,-43,-4,-9,9,14
19,24,4,-21,7,14,-24,-43,-4,-9,9,14
19,29,9,-24,4,19,-24,-43,-4,-4,9,14
9,29,19,-19,-4,24,-34,-43,-4,0,14,14
19,29,9,-24,4,19,-34,-43,-4,0,14,14
19,29,9,-24,4,19,-34,-43,-4,0,19,14
14,29,14,-21,0,21,-34,-43,-4,-4,19,14
9,24,14,-17,-2,19,-43,-34,-14,-4,9,9
4,14,9,-9,-2,12,-34,-34,-19,-9,9,4
0,9,9,-4,-4,9,-34,-34,-19,-9,4,4
-4,9,14,-2,-9,12,-34,-34,-19,-9,4,4
0,9,9,-4,-4,9,-34,-34,-19,-9,4,0
0,9,9,-4,-4,9,-34,-34,-19,-9,4,-4
0,9,9,-4,-4,9,-34,-34,-19,-9,4,-9
0,9,9,-4,-4,9,-34,-34,-19,-14,0,-14
0,9,9,-4,-4,9,-34,-48,-19,-24,-4,-9
0,9,9,-4,-4,9,-34,-48,-19,-14,-4,-9
4,14,9,-9,-2,12,-34,-48,-19,-9,-4,-9
4,14,9,-9,-2,12,-29,-48,-29,-9,-4,0
4,24,19,-14,-7,21,-29,-43,-9,-19,-9,0
9,24,14,-17,-2,19,-29,-39,-9,-19,-9,0
14,24,9,-19,2,17,-34,-39,-14,-24,-9,-4
19,24,4,-21,7,14,-34,-39,-14,-24,-4,-9
39,48,9,-43,14,29,-9,-24,9,-14,24,9
34,39,4,-36,14,21,0,-24,9,-4,29,9
19,24,4,-21,7,14,-19,-39,-9,-9,14,4
-9,0,9,4,-9,4,-29,-39,-19,-9,-9,0
-19,0,19,9,-19,9,-29,-39,-19,-19,0,0
-19,0,19,9,-19,9,-29,-39,-19,-19,0,0
-19,0,19,9,-19,9,-29,-39,-19,-19,0,0
-19,0,19,9,-19,9,-29,-39,-19,-19,0,0
-14,4,19,4,-17,12,-29,-29,-19,-29,0,-9
-9,9,19,0,-14,14,-29,-29,-19,-29,0,-9
-4,14,19,-4,-12,17,-29,-29,-19,-29,0,-9
0,19,19,-9,-9,19,-29,-29,-19,-29,0,-9
9,9,0,-9,4,4,-29,-29,-19,-19,0,-9
9,9,0,-9,4,4,-29,-29,-19,-19,0,-9
9,9,0,-9,4,4,-29,-29,-19,-19,0,-9
9,9,0,-9,4,4,-29,-29,-19,-19,0,-9
24,19,-4,-21,14,7,-19,-19,-9,-19,9,0
29,29,0,-29,14,14,-19,-19,-9,-19,9,0
34,39,4,-36,14,21,-19,-19,-9,-19,9,0
39,48,9,-43,14,29,-19,-19,-9,-19,9,0
24,43,19,-34,2,31,-19,-9,-9,-19,9,9
19,39,19,-29,0,29,-19,-9,-9,-19,9,9
14,34,19,-24,-2,26,-19,-9,-9,-19,9,9
9,29,19,-19,-4,24,-19,-9,-9,-19,9,9
-9,14,24,-2,-17,19,-24,-24,-14,-24,4,-4
-19,0,19,9,-19,9,-29,-29,-19,-29,0,-9
-29,-14,14,21,-21,0,-34,-34,-24,-34,-4,-14
-39,-29,9,34,-24,-9,-39,-39,-29,-39,-9,-19
-29,-19,9,24,-19,-4,-34,-34,-19,-34,-4,-9
-19,-9,9,14,-14,0,-29,-29,-19,-29,0,-9
-9,0,9,4,-9,4,-24,-24,-19,-24,4,-9
0,9,9,-4,-4,9,-19,-19,-19,-19,9,-9
0,9,9,-4,-4,9,-19,-19,-9,-19,19,0
0,9,9,-4,-4,9,-19,-19,-9,-19,19,0
0,9,9,-4,-4,9,-19,-19,-9,-19,19,0
0,9,9,-4,-4,9,-19,-19,-9,-19,19,0
14,29,14,-21,0,21,-19,-14,0,-9,19,0
19,39,19,-29,0,29,-19,-9,0,-9,19,0
24,48,24,-36,0,36,-19,-4,0,-9,19,0
29,58,29,-43,0,43,-19,0,0,-9,19,0
24,48,24,-36,0,36,-9,9,9,0,29,9
19,48,29,-34,-4,39,-9,9,9,0,29,9
14,48,34,-31,-9,41,-9,9,9,0,29,9
9,48,39,-29,-14,43,-9,9,9,0,29,9
9,48,39,-29,-14,43,-9,14,19,9,29,9
9,48,39,-29,-14,43,-9,19,19,9,29,9
9,48,39,-29,-14,43,-9,24,19,9,29,9
9,48,39,-29,-14,43,-9,29,19,9,29,9
14,63,48,-39,-17,56,4,39,34,24,43,24
19,68,48,-43,-14,58,9,48,39,29,48,29
24,73,48,-48,-12,61,14,58,43,34,53,34
29,78,48,-53,-9,63,19,68,48,39,58,39
39,82,43,-61,-2,63,24,73,63,53,63,48
39,87,48,-63,-4,68,29,78,68,58,68,48
39,92,53,-65,-7,73,34,82,73,63,73,48
39,97,58,-68,-9,78,39,87,78,68,78,48
48,97,48,-73,0,73,39,97,87,68,78,58
48,97,48,-73,0,73,39,97,87,68,78,58
48,97,48,-73,0,73,39,97,87,68,78,58
48,97,48,-73,0,73,39,97,87,68,78,58
48,87,39,-68,4,63,24,92,82,63,68,48
48,87,39,-68,4,63,19,87,78,58,68,48
48,87,39,-68,4,63,14,82,73,53,68,48
48,87,39,-68,4,63,9,78,68,48,68,48
58,92,34,-75,12,63,0,68,58,48,78,48
58,97,39,-78,9,68,-9,58,58,48,78,48
58,102,43,-80,7,73,-19,48,58,48,78,48
58,107,48,-82,4,78,-29,39,58,48,78,48
68,112,43,-90,12,78,-34,24,53,39,78,53
78,117,39,-97,19,78,-39,19,48,39,78,58
87,122,34,-104,26,78,-43,14,43,39,78,63
97,126,29,-112,34,78,-48,9,39,39,78,68
92,122,29,-107,31,75,-63,-4,24,24,73,63
87,117,29,-102,29,73,-68,-9,19,19,68,58
82,112,29,-97,26,70,-73,-14,14,14,63,53
78,107,29,-92,24,68,-78,-19,9,9,58,48
63,92,29,-78,17,61,-87,-34,-9,-4,48,34
48,78,29,-63,9,53,-87,-39,-19,-9,39,29
34,63,29,-48,2,46,-87,-43,-29,-14,29,24
19,48,29,-34,-4,39,-87,-48,-39,-19,19,19
19,43,24,-31,-2,34,-97,-48,-39,-19,9,19
19,39,19,-29,0,29,-97,-48,-39,-19,9,19
19,24,4,-21,7,14,-97,-48,-43,-24,9,19
24,14,-9,-19,17,2,-97,-58,-48,-29,0,19
34,24,-9,-29,21,7,-87,-48,-48,-34,4,19
34,19,-14,-26,24,2,-82,-53,-58,-43,0,14
34,24,-9,-29,21,7,-78,-53,-58,-43,-4,9
34,29,-4,-31,19,12,-78,-48,-58,-43,-4,9
39,14,-24,-26,31,-4,-78,-53,-63,-53,-4,4
39,4,-34,-21,36,-14,-73,-58,-63,-53,-4,4
39,4,-34,-21,36,-14,-68,-58,-58,-53,-4,4
43,4,-39,-24,41,-17,-63,-58,-58,-53,-4,4
43,14,-29,-29,36,-7,-53,-48,-48,-39,-4,14
34,9,-24,-21,29,-7,-53,-48,-48,-39,-4,14
29,9,-19,-19,24,-4,-48,-43,-43,-43,0,14
29,9,-19,-19,24,-4,-48,-43,-43,-43,0,14
19,4,-14,-12,17,-4,-34,-39,-43,-43,0,4
19,4,-14,-12,17,-4,-34,-34,-43,-43,0,4
19,4,-14,-12,17,-4,-29,-29,-43,-39,0,4
9,4,-4,-7,7,0,-19,-14,-34,-39,0,4
-14,0,14,7,-14,7,-14,-9,-34,-24,9,4
-29,-9,19,19,-24,4,-9,-4,-34,-24,9,-4
-39,-9,29,24,-34,9,0,0,-34,-24,9,-4
-53,-14,39,34,-46,12,9,9,-24,-24,9,-9
-48,-4,43,26,-46,19,0,0,-34,-34,0,-9
-48,-4,43,26,-46,19,4,0,-34,-39,-4,-9
-43,-4,39,24,-41,17,4,-4,-34,-39,-9,-19
-34,-9,24,21,-29,7,9,-4,-43,-39,-14,-19
-24,0,24,12,-24,12,9,4,-39,-34,-14,-34
-24,0,24,12,-24,12,9,-4,-43,-39,-14,-34
-24,0,24,12,-24,12,9,-4,-43,-39,-14,-34
-24,-14,9,19,-17,-2,9,-4,-43,-43,-19,-34
-24,-19,4,21,-14,-7,0,0,-53,-53,-19,-43
-24,-24,0,24,-12,-12,0,0,-53,-53,-19,-53
-39,-39,0,39,-19,-19,0,0,-53,-53,-19,-58
-53,-53,0,53,-26,-26,0,-4,-63,-53,-24,-58
-58,-73,-14,65,-21,-43,0,-4,-73,-63,-34,-58
-63,-73,-9,68,-26,-41,0,-4,-68,-63,-39,-63
-63,-68,-4,65,-29,-36,0,-4,-68,-63,-39,-63
-58,-68,-9,63,-24,-39,0,0,-68,-63,-39,-63
-48,-53,-4,51,-21,-29,4,0,-58,-53,-34,-53
-34,-43,-9,39,-12,-26,14,4,-58,-53,-24,-48
-24,-39,-14,31,-4,-26,19,4,-53,-53,-19,-48
-14,-34,-19,24,2,-26,24,4,-53,-53,-19,-48
-39,-53,-14,46,-12,-34,19,14,-53,-53,-19,-48
-48,-53,-4,51,-21,-29,9,14,-53,-58,-19,-48
-58,-58,0,58,-29,-29,4,14,-63,-58,-24,-58
-68,-58,9,63,-39,-24,0,14,-63,-58,-24,-58
-68,-68,0,68,-34,-34,9,14,-63,-58,-29,-68
-63,-63,0,63,-31,-31,9,9,-63,-58,-34,-63
-63,-58,4,61,-34,-26,9,9,-58,-58,-34,-63
-63,-58,4,61,-34,-26,14,14,-58,-53,-39,-58
-53,-58,-4,56,-24,-31,14,19,-43,-53,-34,-48
-53,-58,-4,56,-24,-31,14,19,-43,-53,-29,-43
-53,-58,-4,56,-24,-31,14,19,-43,-53,-24,-43
-53,-53,0,53,-26,-26,14,19,-43,-53,-14,-39
-63,-53,9,58,-36,-21,14,14,-48,-63,-24,-48
-63,-53,9,58,-36,-21,14,14,-53,-63,-24,-48
-63,-53,9,58,-36,-21,14,9,-58,-63,-24,-48
-63,-58,4,61,-34,-26,14,9,-63,-63,-24,-53
-53,-58,-4,56,-24,-31,14,19,-53,-53,-14,-43
-53,-58,-4,56,-24,-31,14,19,-53,-53,-14,-53
-48,-53,-4,51,-21,-29,14,19,-53,-53,-14,-43
-34,-43,-9,39,-12,-26,14,24,-43,-53,-14,-43
-34,-39,-4,36,-14,-21,14,34,-34,-43,-14,-53
-34,-39,-4,36,-14,-21,14,34,-39,-43,-14,-53
-34,-39,-4,36,-14,-21,14,34,-39,-43,-14,-53
-34,-39,-4,36,-14,-21,19,34,-39,-43,-9,-53
-34,-14,19,24,-26,2,19,43,-29,-53,-9,-63
-34,-14,19,24,-26,2,34,48,-24,-48,-9,-53
-39,-9,29,24,-34,9,48,63,-19,-29,0,-63
-63,0,63,31,-63,31,63,78,-4,-9,4,-68
-117,29,146,43,-131,87,97,97,24,4,14,-78
-204,43,248,80,-226,146,146,141,58,34,14,-92
-292,58,351,117,-322,204,204,190,92,48,0,-112
-346,92,439,126,-392,265,263,253,122,78,0,-131
-351,122,473,114,-412,297,331,336,165,117,24,-141
-375,141,517,117,-446,329,385,429,229,161,39,-141
-405,165,570,119,-488,368,444,536,317,219,58,-141
-409,204,614,102,-512,409,517,683,444,292,107,-117
-414,268,683,73,-549,475,580,854,600,409,180,-73
-414,356,771,29,-592,563,658,1005,766,546,287,-14
-405,448,854,-21,-629,651,712,1107,902,692,434,63
-366,541,907,-87,-636,724,702,1117,976,800,570,161
-307,629,936,-161,-622,783,639,1015,985,878,688,263
-214,717,932,-251,-573,824,483,795,922,936,814,395
-39,824,863,-392,-451,844,248,531,839,990,995,600
253,976,722,-614,-234,849,-19,317,795,1078,1220,854
570,1151,580,-861,-4,866,-317,97,771,1156,1449,1117
814,1273,458,-1044,178,866,-624,-165,688,1180,1600,1332
1044,1361,317,-1202,363,839,-888,-370,614,1161,1683,1488
1376,1381,4,-1378,685,692,-1117,-512,546,1083,1698,1615
1712,1283,-429,-1498,1071,427,-1317,-649,468,917,1620,1678
1922,1058,-863,-1490,1393,97,-1449,-834,312,668,1429,1644
1986,702,-1283,-1344,1634,-290,-1483,-1127,0,292,1098,1483
1937,219,-1717,-1078,1827,-749,-1483,-1507,-492,-229,614,1180
1878,-214,-2093,-832,1986,-1154,-1459,-1766,-976,-736,112,810
1790,-488,-2278,-651,2034,-1383,-1420,-1883,-1312,-1102,-297,497
1668,-644,-2313,-512,1991,-1478,-1366,-1971,-1566,-1366,-634,209
1512,-766,-2278,-373,1895,-1522,-1302,-2039,-1776,-1581,-936,-112
1410,-834,-2244,-287,1827,-1539,-1249,-2030,-1873,-1703,-1166,-400
1390,-849,-2239,-270,1815,-1544,-1229,-1995,-1898,-1732,-1263,-527
1410,-858,-2269,-275,1839,-1564,-1205,-1927,-1883,-1727,-1288,-585
1424,-868,-2293,-278,1859,-1581,-1166,-1790,-1820,-1703,-1298,-624
1410,-863,-2274,-273,1842,-1568,-1102,-1639,-1717,-1634,-1268,-639
1381,-868,-2249,-256,1815,-1559,-1039,-1503,-1629,-1566,-1215,-644
1317,-858,-2176,-229,1747,-1517,-961,-1361,-1522,-1493,-1171,-663
1185,-849,-2034,-168,1610,-1442,-873,-1224,-1400,-1395,-1122,-697
971,-814,-1786,-78,1378,-1300,-761,-1112,-1293,-1278,-1058,-717
756,-775,-1532,9,1144,-1154,-658,-1015,-1180,-1171,-990,-707
614,-751,-1366,68,990,-1058,-570,-907,-1088,-1083,-922,-692
478,-707,-1185,114,832,-946,-468,-800,-985,-995,-844,-653
361,-634,-995,136,678,-814,-375,-678,-854,-878,-761,-595
326,-561,-888,117,607,-724,-322,-570,-751,-785,-668,-536
336,-507,-844,85,590,-675,-292,-478,-668,-702,-590,-483
258,-444,-702,92,480,-573,-253,-390,-570,-605,-497,-424
170,-400,-570,114,370,-485,-204,-322,-468,-507,-419,-390
107,-351,-458,122,283,-405,-151,-244,-395,-424,-366,-356
63,-297,-361,117,212,-329,-107,-175,-322,-366,-312,-331
14,-244,-258,114,136,-251,-53,-122,-248,-292,-253,-287
-29,-204,-175,117,73,-190,-14,-58,-185,-244,-209,-253
-43,-170,-126,107,41,-148,4,4,-141,-195,-161,-224
-39,-146,-107,92,34,-126,29,63,-97,-146,-117,-185
-39,-126,-87,82,24,-107,39,87,-63,-122,-92,-180
-48,-122,-73,85,12,-97,48,87,-53,-97,-82,-170
-87,-102,-14,95,-36,-58,53,97,-34,-78,-48,-161
-107,-82,24,95,-65,-29,68,97,-24,-68,-34,-146
-82,-82,0,82,-41,-41,78,92,-24,-78,-43,-136
-82,-68,14,75,-48,-26,78,92,-14,-68,-43,-131
-82,-63,19,73,-51,-21,78,92,-14,-73,-43,-126
-87,-63,24,75,-56,-19,78,92,-19,-73,-43,-122
-87,-63,24,75,-56,-19,73,92,-24,-78,-43,-117
-78,-48,29,63,-53,-9,82,107,-19,-73,-39,-107
-73,-43,29,58,-51,-7,82,117,-4,-53,-29,-102
-73,-34,39,53,-56,2,92,131,9,-34,-14,-97
-73,-19,53,46,-63,17,92,136,19,-29,-9,-92
-97,-39,58,68,-78,9,82,131,14,-34,-19,-102
-107,-53,53,80,-80,0,78,131,9,-43,-19,-102
-117,-63,53,90,-85,-4,78,126,4,-48,-19,-102
-122,-63,58,92,-90,-2,82,122,0,-53,-19,-102
-117,-48,68,82,-92,9,82,126,0,-43,-29,-122
-107,-48,58,78,-82,4,82,126,4,-43,-29,-126
-102,-53,48,78,-75,-2,82,126,4,-39,-29,-131
-117,-53,63,85,-90,4,82,126,4,-34,-24,-131
-126,-63,63,95,-95,0,87,117,4,-29,-14,-146
-131,-63,68,97,-100,2,97,117,4,-29,-14,-151
-131,-68,63,100,-97,-2,87,112,0,-29,-19,-165
-131,-73,58,102,-95,-7,87,112,0,-39,-19,-175
-131,-68,63,100,-97,-2,87,117,4,-34,-19,-195
-126,-58,68,92,-97,4,87,117,4,-34,-19,-200
-117,-39,78,78,-97,19,87,122,4,-29,-19,-209
-107,-34,73,70,-90,19,92,131,14,-24,-19,-214
-92,-19,73,56,-82,26,102,146,24,-34,-4,-209
-87,-24,63,56,-75,19,107,151,24,-29,-4,-214
-87,-19,68,53,-78,24,112,151,24,-29,-4,-219
-82,-14,68,48,-75,26,117,151,19,-39,-9,-229
-112,-43,68,78,-90,12,107,141,0,-58,-24,-248
-131,-63,68,97,-100,2,97,131,-9,-63,-29,-253
-156,-87,68,122,-112,-9,87,122,-14,-68,-39,-258
-175,-107,68,141,-122,-19,78,112,-14,-73,-43,-263
-170,-92,78,131,-124,-7,87,117,-4,-68,-39,-248
-170,-78,92,124,-131,7,87,122,-4,-63,-29,-244
-170,-68,102,119,-136,17,92,131,0,-58,-24,-234
-165,-63,102,114,-134,19,92,136,0,-53,-24,-224
-156,-53,102,104,-129,24,102,141,0,-48,-29,-214
-151,-53,97,102,-124,21,102,141,0,-53,-34,-204
-141,-58,82,100,-112,12,102,141,-4,-53,-34,-200
-131,-58,73,95,-102,7,102,141,-4,-48,-34,-190
-141,-58,82,100,-112,12,102,141,0,-48,-39,-185
-141,-58,82,100,-112,12,102,146,0,-48,-39,-185
-151,-58,92,104,-122,17,97,146,0,-48,-39,-185
-141,-58,82,100,-112,12,97,146,0,-48,-39,-185
-151,-53,97,102,-124,21,97,161,0,-39,-48,-180
-151,-53,97,102,-124,21,97,161,0,-39,-48,-175
-151,-53,97,102,-124,21,97,161,0,-39,-48,-165
-151,-58,92,104,-122,17,102,165,0,-39,-48,-161
-151,-53,97,102,-124,21,102,156,0,-48,-43,-170
-151,-53,97,102,-124,21,102,151,-4,-48,-43,-170
-156,-53,102,104,-129,24,102,151,-4,-48,-43,-165
-151,-53,97,102,-124,21,102,156,-4,-48,-43,-161
-136,-39,97,87,-117,29,107,170,4,-39,-34,-151
-131,-29,102,80,-117,36,112,180,9,-34,-34,-151
-126,-19,107,73,-117,43,122,185,14,-29,-39,-151
-122,-9,112,65,-117,51,126,195,19,-24,-39,-151
-141,-34,107,87,-124,36,112,180,4,-39,-53,-170
-161,-53,107,107,-134,26,112,175,0,-43,-68,-180
-175,-68,107,122,-141,19,107,170,-4,-48,-73,-185
-185,-82,102,134,-143,9,102,170,-9,-53,-78,-190
-190,-82,107,136,-148,12,102,175,-4,-53,-87,-190
-190,-82,107,136,-148,12,102,175,-4,-53,-87,-190
-195,-82,112,139,-153,14,107,180,-4,-48,-87,-190
-200,-82,117,141,-158,17,107,180,0,-48,-87,-190
-190,-78,112,134,-151,17,122,185,4,-39,-78,-190
-185,-73,112,129,-148,19,122,185,9,-39,-82,-190
-190,-68,122,129,-156,26,126,195,14,-34,-82,-190
-175,-63,112,119,-143,24,126,200,24,-34,-82,-190
-165,-58,107,112,-136,24,131,209,24,-24,-73,-170
-165,-53,112,109,-139,29,136,219,29,-19,-73,-170
-165,-43,122,104,-143,39,141,224,29,-14,-73,-165
-165,-34,131,100,-148,48,146,224,39,-14,-68,-161
-161,-24,136,92,-148,56,151,224,43,-9,-58,-165
-156,-19,136,87,-146,58,151,229,43,-9,-58,-165
-151,-14,136,82,-143,61,151,229,43,-9,-63,-161
-156,-9,146,82,-151,68,151,234,48,-9,-63,-161
-175,-19,156,97,-165,68,161,253,58,-14,-68,-156
-185,-29,156,107,-170,63,165,258,63,-9,-63,-146
-200,-39,161,119,-180,61,180,263,68,-4,-63,-141
-209,-43,165,126,-187,61,190,273,73,0,-63,-141
-195,-24,170,109,-183,73,190,273,68,4,-53,-151
-195,-24,170,109,-183,73,195,273,73,9,-48,-146
-200,-34,165,117,-183,65,190,273,78,14,-48,-146
-214,-34,180,124,-197,73,190,268,82,14,-48,-146
-204,-39,165,122,-185,63,190,287,92,19,-58,-146
-214,-39,175,126,-195,68,195,292,97,19,-58,-146
-214,-39,175,126,-195,68,200,297,102,29,-53,-146
-219,-39,180,129,-200,70,209,302,112,34,-53,-146
-234,-48,185,141,-209,68,204,302,112,39,-53,-151
-244,-43,200,143,-222,78,209,312,122,43,-48,-156
-244,-39,204,141,-224,82,214,322,126,48,-48,-165
-244,-34,209,139,-226,87,219,331,131,53,-43,-180
-253,-29,224,141,-239,97,229,336,141,53,-43,-180
-248,-24,224,136,-236,100,239,341,146,58,-34,-185
-248,-19,229,134,-239,104,253,356,161,68,-34,-190
-253,-14,239,134,-246,112,263,361,161,78,-34,-195
-253,-9,244,131,-248,117,258,366,170,82,-34,-204
-258,-9,248,134,-253,119,263,366,175,82,-24,-209
-268,-14,253,141,-261,119,268,375,185,87,-24,-219
-268,-14,253,141,-261,119,278,390,190,92,-24,-219
-278,-9,268,143,-273,129,278,400,190,87,-34,-229
-283,-9,273,146,-278,131,283,409,195,87,-24,-234
-292,-29,263,161,-278,117,283,424,204,92,-24,-253
-326,-43,283,185,-305,119,283,434,214,102,-24,-258
-341,-29,312,185,-326,141,292,448,224,117,-14,-263
-346,-24,322,185,-334,148,307,453,234,122,-9,-268
-346,-19,326,183,-336,153,312,458,248,131,-4,-273
-341,0,341,170,-341,170,317,468,258,136,4,-278
-331,19,351,156,-341,185,326,488,253,146,19,-268
-326,24,351,151,-339,187,331,497,268,151,24,-263
-322,39,361,141,-341,200,336,507,278,156,29,-263
-317,48,366,134,-341,207,341,507,278,161,34,-268
-331,43,375,143,-353,209,336,512,278,161,24,-268
-346,48,395,148,-370,222,336,517,283,165,29,-268
-356,48,405,153,-380,226,346,517,287,170,34,-263
-375,48,424,163,-400,236,346,517,292,175,39,-263
-390,48,439,170,-414,244,356,512,302,185,43,-258
-395,48,444,173,-419,246,356,512,302,190,48,-258
-395,53,448,170,-422,251,356,502,302,190,48,-258
-390,58,448,165,-419,253,356,502,302,190,63,-253
-400,63,463,168,-431,263,346,517,292,185,53,-253
-405,58,463,173,-434,261,346,517,297,195,58,-239
-405,53,458,175,-431,256,346,507,297,195,63,-239
-419,48,468,185,-444,258,346,507,297,204,68,-234
-429,48,478,190,-453,263,341,512,312,219,82,-219
-429,53,483,187,-456,268,341,507,312,224,87,-214
-424,58,483,183,-453,270,341,497,312,224,87,-209
-419,63,483,178,-451,273,341,492,312,229,97,-195
-409,73,483,168,-446,278,331,483,302,224,97,-180
-400,78,478,161,-439,278,322,473,302,229,107,-161
-385,82,468,151,-427,275,317,463,307,234,117,-151
-375,97,473,139,-424,285,302,448,307,239,117,-141
-366,117,483,124,-424,300,302,448,317,258,136,-131
-346,122,468,112,-407,295,297,439,317,263,146,-122
-331,126,458,102,-395,292,287,424,317,263,156,-102
-317,131,448,92,-383,290,268,419,307,258,161,-97
-322,122,444,100,-383,283,263,390,297,248,161,-97
-302,122,424,90,-363,273,248,380,292,244,161,-82
-283,122,405,80,-344,263,234,366,278,244,156,-82
-263,117,380,73,-322,248,224,341,268,234,146,-68
-248,112,361,68,-305,236,200,331,244,214,151,-73
-229,112,341,58,-285,226,185,317,234,209,151,-73
-214,107,322,53,-268,214,170,292,219,200,146,-73
-200,102,302,48,-251,202,156,278,204,190,141,-63
-156,112,268,21,-212,190,136,258,190,170,136,-68
-141,92,234,24,-187,163,122,244,175,161,131,-68
-131,87,219,21,-175,153,107,224,161,146,117,-68
-117,82,200,17,-158,141,92,200,146,136,107,-68
-112,73,185,19,-148,129,82,190,126,131,107,-73
-97,73,170,12,-134,122,82,180,122,117,102,-68
-87,73,161,7,-124,117,78,165,117,112,92,-68
-87,68,156,9,-122,112,73,151,107,102,82,-63
-68,78,146,-4,-107,112,63,146,92,87,92,-63
-53,78,131,-12,-92,104,53,131,87,82,87,-58
-29,73,102,-21,-65,87,53,126,78,73,82,-58
-9,73,82,-31,-46,78,48,107,63,63,78,-58
-4,63,68,-29,-36,65,34,107,58,53,63,-78
4,58,53,-31,-24,56,34,102,48,43,58,-78
9,53,43,-31,-17,48,29,97,43,39,53,-82
