I,II,III,aVR,aVL,aVF,V1,V2,V3,V4,V5,V6,
136,87,-48,-112,92,19,146,156,-1054,204,175,-68
151,97,-53,-124,102,21,151,180,-1034,219,185,-63
165,107,-58,-136,112,24,156,204,-1015,234,195,-58
180,122,-58,-151,119,31,161,229,-990,253,209,-48
195,136,-58,-165,126,39,165,253,-966,273,224,-39
204,151,-53,-178,129,48,165,273,-946,292,244,-29
214,165,-48,-190,131,58,165,292,-927,312,263,-19
229,185,-43,-207,136,70,165,307,-907,331,278,-4
244,204,-39,-224,141,82,165,322,-888,351,292,9
248,219,-29,-234,139,95,161,322,-873,366,312,24
253,234,-19,-244,136,107,156,322,-858,380,331,39
253,244,-9,-248,131,117,141,312,-858,385,346,53
253,253,0,-253,126,126,126,302,-858,390,361,68
248,263,14,-256,117,139,102,263,-858,390,370,82
244,273,29,-258,107,151,78,224,-858,390,380,97
224,278,53,-251,85,165,63,180,-878,390,380,102
204,283,78,-244,63,180,48,136,-897,390,380,107
185,283,97,-234,43,190,29,82,-927,375,380,107
165,283,117,-224,24,200,9,29,-956,361,380,107
146,273,126,-209,9,200,-4,-14,-990,331,366,102
126,263,136,-195,-4,200,-19,-58,-1024,302,351,97
107,244,136,-175,-14,190,-29,-102,-1054,278,326,82
87,224,136,-156,-24,180,-39,-146,-1083,253,302,68
73,204,131,-139,-29,168,-43,-170,-1107,229,287,53
58,185,126,-122,-34,156,-48,-195,-1132,204,273,39
48,165,117,-107,-34,141,-53,-224,-1151,185,253,24
39,146,107,-92,-34,126,-58,-253,-1171,165,234,9
24,131,107,-78,-41,119,-58,-268,-1185,146,219,-4
9,117,107,-63,-48,112,-58,-283,-1200,126,204,-19
0,102,102,-51,-51,102,-58,-297,-1215,117,195,-29
-9,87,97,-39,-53,92,-58,-312,-1229,107,185,-39
-14,82,97,-34,-56,90,-58,-317,-1234,97,175,-43
-19,78,97,-29,-58,87,-58,-322,-1239,87,165,-48
-19,73,92,-26,-56,82,-58,-326,-1244,78,156,-53
-19,68,87,-24,-53,78,-58,-331,-1249,68,146,-58
-24,63,87,-19,-56,75,-58,-341,-1249,63,141,-63
-29,58,87,-14,-58,73,-58,-351,-1249,58,136,-68
-29,53,82,-12,-56,68,-58,-351,-1249,58,131,-68
-29,48,78,-9,-53,63,-58,-351,-1249,58,126,-68
-34,43,78,-4,-56,61,-58,-356,-1254,53,126,-73
-39,39,78,0,-58,58,-58,-361,-1259,48,126,-78
-39,34,73,2,-56,53,-58,-361,-1259,43,122,-82
-39,29,68,4,-53,48,-58,-361,-1259,39,117,-87
-39,29,68,4,-53,48,-58,-366,-1259,39,112,-87
-39,29,68,4,-53,48,-58,-370,-1259,39,107,-87
-43,29,73,7,-58,51,-58,-370,-1259,34,107,-92
-48,29,78,9,-63,53,-58,-370,-1259,29,107,-97
-48,24,73,12,-61,48,-58,-375,-1259,24,102,-97
-48,19,68,14,-58,43,-58,-380,-1259,19,97,-97
-48,14,63,17,-56,39,-58,-380,-1259,19,92,-102
-48,9,58,19,-53,34,-58,-380,-1259,19,87,-107
-48,9,58,19,-53,34,-58,-380,-1259,14,87,-107
-48,9,58,19,-53,34,-58,-380,-1259,9,87,-107
-48,4,53,21,-51,29,-53,-380,-1259,9,82,-112
-48,0,48,24,-48,24,-48,-380,-1259,9,78,-117
-48,-4,43,26,-46,19,-48,-380,-1259,9,78,-117
-48,-9,39,29,-43,14,-48,-380,-1259,9,78,-117
-53,-9,43,31,-48,17,-48,-380,-1254,9,78,-117
-58,-9,48,34,-53,19,-48,-380,-1249,9,78,-117
-58,-9,48,34,-53,19,-43,-375,-1244,9,78,-117
-58,-9,48,34,-53,19,-39,-370,-1239,9,78,-117
-53,-9,43,31,-48,17,-39,-370,-1239,9,78,-117
-48,-9,39,29,-43,14,-39,-370,-1239,9,78,-117
-48,-9,39,29,-43,14,-34,-370,-1234,9,78,-117
-48,-9,39,29,-43,14,-29,-370,-1229,9,78,-117
-48,-9,39,29,-43,14,-29,-370,-1224,9,78,-122
-48,-9,39,29,-43,14,-29,-370,-1220,9,78,-126
-48,-9,39,29,-43,14,-29,-370,-1220,4,73,-126
-48,-9,39,29,-43,14,-29,-370,-1220,0,68,-126
-48,-9,39,29,-43,14,-29,-370,-1215,0,68,-126
-48,-9,39,29,-43,14,-29,-370,-1210,0,68,-126
-48,-9,39,29,-43,14,-29,-370,-1210,0,68,-126
-48,-9,39,29,-43,14,-29,-370,-1210,0,68,-126
-48,-9,39,29,-43,14,-29,-375,-1210,0,68,-126
-48,-9,39,29,-43,14,-29,-380,-1210,0,68,-126
-48,-9,39,29,-43,14,-29,-380,-1210,-4,63,-126
-48,-9,39,29,-43,14,-29,-380,-1210,-9,58,-126
-48,-9,39,29,-43,14,-29,-385,-1210,-9,58,-126
-48,-9,39,29,-43,14,-29,-390,-1210,-9,58,-126
-48,-4,43,26,-46,19,-29,-390,-1205,-9,58,-126
-48,0,48,24,-48,24,-29,-390,-1200,-9,58,-126
-43,0,43,21,-43,21,-29,-395,-1200,-9,53,-126
-39,0,39,19,-39,19,-29,-400,-1200,-9,48,-126
-39,0,39,19,-39,19,-29,-400,-1200,-9,48,-126
-39,0,39,19,-39,19,-29,-400,-1200,-9,48,-126
-39,0,39,19,-39,19,-29,-405,-1200,-4,48,-126
-39,0,39,19,-39,19,-29,-409,-1200,0,48,-126
-39,-4,34,21,-36,14,-29,-409,-1195,0,43,-126
-39,-9,29,24,-34,9,-29,-409,-1190,0,39,-126
-39,-9,29,24,-34,9,-24,-409,-1190,0,39,-126
-39,-9,29,24,-34,9,-19,-409,-1190,0,39,-126
-39,-9,29,24,-34,9,-19,-409,-1185,0,34,-126
-39,-9,29,24,-34,9,-19,-409,-1180,0,29,-126
-39,-9,29,24,-34,9,-19,-414,-1180,4,29,-126
-39,-9,29,24,-34,9,-19,-419,-1180,9,29,-126
-34,-9,24,21,-29,7,-19,-419,-1176,9,29,-126
-29,-9,19,19,-24,4,-19,-419,-1171,9,29,-126
-29,-9,19,19,-24,4,-19,-419,-1171,9,24,-126
-29,-9,19,19,-24,4,-19,-419,-1171,9,19,-126
-29,-9,19,19,-24,4,-14,-419,-1166,9,19,-122
-29,-9,19,19,-24,4,-9,-419,-1161,9,19,-117
-29,-9,19,19,-24,4,-9,-419,-1156,9,19,-117
-29,-9,19,19,-24,4,-9,-419,-1151,9,19,-117
-29,-9,19,19,-24,4,-9,-419,-1151,9,14,-117
-29,-9,19,19,-24,4,-9,-419,-1151,9,9,-117
-24,-4,19,14,-21,7,-9,-419,-1146,9,9,-117
-19,0,19,9,-19,9,-9,-419,-1141,9,9,-117
-19,0,19,9,-19,9,-9,-419,-1141,14,9,-112
-19,0,19,9,-19,9,-9,-419,-1141,19,9,-107
-14,0,14,7,-14,7,-9,-419,-1137,19,4,-107
-9,0,9,4,-9,4,-9,-419,-1132,19,0,-107
-9,0,9,4,-9,4,-9,-419,-1132,24,0,-107
-9,0,9,4,-9,4,-9,-419,-1132,29,0,-107
-9,-4,4,7,-7,0,-9,-419,-1127,29,0,-107
-9,-9,0,9,-4,-4,-9,-419,-1122,29,0,-107
-9,-9,0,9,-4,-4,-9,-419,-1117,29,0,-107
-9,-9,0,9,-4,-4,-9,-419,-1112,29,0,-107
-9,-9,0,9,-4,-4,-9,-419,-1112,29,0,-107
-9,-9,0,9,-4,-4,-9,-419,-1112,29,0,-107
-4,-9,-4,7,0,-7,-9,-419,-1107,29,0,-102
0,-9,-9,4,4,-9,-9,-419,-1102,29,0,-97
0,-9,-9,4,4,-9,-9,-419,-1102,29,0,-97
0,-9,-9,4,4,-9,-9,-419,-1102,29,0,-97
0,-4,-4,2,2,-4,-9,-419,-1098,29,0,-97
0,0,0,0,0,0,-9,-419,-1093,29,0,-97
0,0,0,0,0,0,-9,-419,-1093,29,0,-97
0,0,0,0,0,0,-9,-419,-1093,29,0,-97
0,0,0,0,0,0,-9,-414,-1083,34,4,-92
0,0,0,0,0,0,-9,-409,-1073,39,9,-87
0,4,4,-2,-2,4,-4,-405,-1068,39,14,-82
0,9,9,-4,-4,9,0,-400,-1063,39,19,-78
4,19,14,-12,-4,17,0,-395,-1054,43,24,-73
9,29,19,-19,-4,24,0,-390,-1044,48,29,-68
9,34,24,-21,-7,29,0,-385,-1039,53,34,-63
9,39,29,-24,-9,34,0,-380,-1034,58,39,-58
14,43,29,-29,-7,36,0,-380,-1029,58,39,-58
19,48,29,-34,-4,39,-4,-375,-1019,63,43,-53
29,53,24,-41,2,39,-9,-370,-1010,68,48,-48
34,58,24,-46,4,41,-9,-370,-1010,68,53,-43
39,53,14,-46,12,34,-14,-370,-1005,73,53,-48
39,43,4,-41,17,24,-19,-380,-1005,73,53,-48
43,43,0,-43,21,21,-24,-385,-1010,63,53,-48
43,34,-9,-39,26,12,-29,-400,-1015,58,53,-48
48,29,-19,-39,34,4,-34,-405,-1015,53,53,-48
48,29,-19,-39,34,4,-39,-414,-1024,48,53,-48
43,34,-9,-39,26,12,-39,-419,-1024,48,58,-43
39,34,-4,-36,21,14,-39,-424,-1024,43,63,-39
39,29,-9,-34,24,9,-39,-429,-1015,39,58,-39
29,14,-14,-21,21,0,-34,-434,-1019,34,48,-48
29,0,-29,-14,29,-14,-34,-434,-1024,24,48,-43
29,-4,-34,-12,31,-19,-34,-434,-1024,24,43,-43
29,0,-29,-14,29,-14,-34,-434,-1019,24,43,-43
29,0,-29,-14,29,-14,-34,-434,-1015,24,43,-43
29,0,-29,-14,29,-14,-34,-434,-1015,14,48,-39
29,0,-29,-14,29,-14,-29,-434,-1015,34,53,-34
24,0,-24,-12,24,-12,-29,-424,-1000,34,58,-24
19,0,-19,-9,19,-9,-24,-419,-1000,39,58,-19
0,-4,-4,2,2,-4,-19,-414,-985,34,53,-24
-14,-14,0,14,-7,-7,-14,-419,-990,24,39,-34
-19,-34,-14,26,-2,-24,-9,-419,-1000,14,29,-43
-29,-39,-9,34,-9,-24,-4,-419,-1000,9,19,-53
-29,-48,-19,39,-4,-34,-4,-419,-995,0,24,-53
-34,-48,-14,41,-9,-31,-4,-419,-990,-4,29,-58
-34,-48,-14,41,-9,-31,-4,-419,-990,0,29,-58
-34,-48,-14,41,-9,-31,0,-419,-990,0,24,-53
-34,-48,-14,41,-9,-31,0,-419,-985,0,29,-48
-34,-48,-14,41,-9,-31,0,-419,-985,0,34,-48
-39,-48,-9,43,-14,-29,0,-414,-976,4,34,-48
-43,-48,-4,46,-19,-26,0,-414,-971,4,34,-48
-39,-48,-9,43,-14,-29,-4,-414,-961,4,34,-39
-39,-48,-9,43,-14,-29,-4,-409,-956,4,34,-34
-39,-43,-4,41,-17,-24,-4,-409,-951,0,34,-34
-39,-43,-4,41,-17,-24,-4,-405,-951,0,39,-34
-34,-39,-4,36,-14,-21,-4,-400,-946,9,39,-29
-34,-39,-4,36,-14,-21,-9,-400,-946,9,39,-24
-29,-39,-9,34,-9,-24,-9,-400,-936,9,34,-24
-34,-39,-4,36,-14,-21,0,-395,-936,4,29,-24
-68,-39,29,53,-48,-4,4,-395,-936,-14,4,-39
-117,-58,58,87,-87,0,39,-385,-946,-43,-39,-73
-117,-53,63,85,-90,4,53,-366,-951,-34,-39,-73
-73,24,97,24,-85,61,-9,-375,-854,68,73,-4
19,244,224,-131,-102,234,-170,-395,-624,361,336,195
185,556,370,-370,-92,463,-361,-434,-326,717,707,473
356,839,483,-597,-63,661,-536,-507,-117,1010,1015,722
483,1093,610,-788,-63,851,-736,-663,9,1244,1293,951
639,1342,702,-990,-31,1022,-888,-761,141,1478,1532,1185
702,1395,692,-1049,4,1044,-985,-907,92,1503,1615,1298
600,1185,585,-893,7,885,-985,-1058,-287,1112,1385,1224
361,927,566,-644,-102,746,-917,-1141,-707,663,1024,1024
161,673,512,-417,-175,592,-829,-1293,-1185,156,610,775
107,561,453,-334,-173,507,-663,-1220,-1293,-34,409,610
97,478,380,-287,-141,429,-453,-951,-1137,34,385,522
68,346,278,-207,-104,312,-283,-688,-1088,34,287,366
39,258,219,-148,-90,239,-165,-468,-980,92,248,239
24,180,156,-102,-65,168,-82,-390,-893,117,214,146
24,112,87,-68,-31,100,-29,-375,-912,92,170,87
19,34,14,-26,2,24,4,-317,-941,68,117,19
19,-29,-48,4,34,-39,24,-278,-946,63,87,-34
14,-29,-43,7,29,-36,34,-278,-946,58,78,-39
9,-29,-39,9,24,-34,39,-278,-946,53,73,-39
4,-43,-48,19,26,-46,48,-268,-956,48,68,-48
4,-43,-48,19,26,-46,48,-268,-961,48,68,-53
4,-53,-58,24,31,-56,53,-258,-971,48,63,-58
4,-53,-58,24,31,-56,53,-253,-971,43,58,-58
4,-53,-58,24,31,-56,53,-248,-976,43,53,-63
4,-53,-58,24,31,-56,53,-244,-980,43,53,-63
4,-53,-58,24,31,-56,58,-239,-985,43,53,-68
4,-58,-63,26,34,-61,63,-234,-990,43,53,-68
4,-63,-68,29,36,-65,68,-229,-995,43,53,-73
0,-63,-63,31,31,-63,68,-224,-1000,43,58,-78
-4,-63,-58,34,26,-61,68,-214,-1005,43,63,-82
-4,-63,-58,34,26,-61,73,-209,-1010,43,63,-82
-4,-63,-58,34,26,-61,73,-204,-1010,48,63,-82
-4,-63,-58,34,26,-61,73,-200,-1015,48,63,-87
-4,-58,-53,31,24,-56,73,-195,-1019,53,63,-92
-4,-58,-53,31,24,-56,73,-190,-1019,58,63,-87
-4,-58,-53,31,24,-56,73,-190,-1019,63,63,-87
-4,-58,-53,31,24,-56,73,-185,-1019,63,63,-82
-4,-58,-53,31,24,-56,73,-180,-1024,68,63,-78
-4,-58,-53,31,24,-56,73,-175,-1024,68,63,-82
-4,-58,-53,31,24,-56,73,-165,-1019,63,63,-82
-4,-58,-53,31,24,-56,73,-165,-1024,63,68,-87
-4,-58,-53,31,24,-56,73,-156,-1024,68,68,-92
-4,-58,-53,31,24,-56,78,-151,-1029,68,68,-92
-4,-53,-48,29,21,-51,78,-141,-1034,73,68,-92
-4,-58,-53,31,24,-56,78,-136,-1034,73,68,-92
0,-58,-58,29,29,-58,78,-126,-1034,78,68,-87
0,-58,-58,29,29,-58,78,-122,-1029,82,68,-87
4,-53,-58,24,31,-56,78,-107,-1029,82,73,-87
4,-53,-58,24,31,-56,82,-107,-1034,87,73,-87
14,-48,-63,17,39,-56,87,-107,-1039,92,73,-87
19,-48,-68,14,43,-58,87,-92,-1034,92,78,-82
24,-43,-68,9,46,-56,87,-87,-1034,92,82,-82
24,-43,-68,9,46,-56,92,-78,-1034,92,82,-78
29,-43,-73,7,51,-58,92,-73,-1034,92,82,-78
29,-43,-73,7,51,-58,92,-58,-1039,102,78,-78
34,-43,-78,4,56,-61,97,-48,-1044,102,78,-73
34,-34,-68,0,51,-51,92,-39,-1039,107,82,-73
39,-29,-68,-4,53,-48,97,-29,-1039,107,82,-73
34,-29,-63,-2,48,-46,97,-14,-1039,112,87,-73
39,-29,-68,-4,53,-48,97,0,-1039,117,87,-73
43,-24,-68,-9,56,-46,102,9,-1029,117,87,-73
48,-14,-63,-17,56,-39,102,19,-1029,126,97,-68
48,-14,-63,-17,56,-39,107,29,-1024,131,97,-68
53,-9,-63,-21,58,-36,112,39,-1019,136,97,-68
58,-4,-63,-26,61,-34,112,53,-1015,146,107,-68
63,0,-63,-31,63,-31,117,73,-1005,156,112,-63
63,4,-58,-34,61,-26,122,92,-995,161,112,-63
68,14,-53,-41,61,-19,126,112,-985,170,122,-58
82,14,-68,-48,75,-26,131,136,-976,180,126,-63
87,19,-68,-53,78,-24,136,156,-966,190,136,-58
92,29,-63,-61,78,-17,146,180,-961,200,141,-48
102,39,-63,-70,82,-12,156,214,-936,214,141,-39
112,48,-63,-80,87,-7,161,239,-927,224,156,-34
131,58,-73,-95,102,-7,165,268,-907,244,165,-24
136,68,-68,-102,102,0,170,292,-893,258,175,-19
146,82,-63,-114,104,9,180,317,-873,278,185,-14
165,92,-73,-129,119,9,190,346,-868,292,200,-4
180,107,-73,-143,126,17,195,370,-844,312,209,9
195,122,-73,-158,134,24,195,395,-824,336,224,9
209,131,-78,-170,143,26,200,414,-800,346,244,29
219,146,-73,-183,146,36,195,434,-795,370,263,34
229,165,-63,-197,146,51,190,448,-771,390,278,43
239,185,-53,-212,146,65,180,453,-761,405,292,58
248,204,-43,-226,146,80,180,453,-751,419,312,73
253,219,-34,-236,143,92,165,453,-756,429,326,82
253,234,-19,-244,136,107,156,429,-756,439,341,102
248,248,0,-248,124,124,126,395,-766,448,351,117
239,263,24,-251,107,143,107,356,-775,448,366,131
229,273,43,-251,92,158,82,307,-795,448,375,146
214,287,73,-251,70,180,63,263,-819,448,375,161
190,287,97,-239,46,192,34,204,-844,434,375,161
175,287,112,-231,31,200,19,156,-878,414,375,161
161,283,122,-222,19,202,0,102,-917,385,361,161
141,268,126,-204,7,197,-14,53,-951,361,356,161
122,248,126,-185,-2,187,-34,0,-995,331,336,141
107,229,122,-168,-7,175,-48,-43,-1029,302,312,131
87,214,126,-151,-19,170,-53,-73,-1068,278,292,112
73,204,131,-139,-29,168,-58,-102,-1088,258,273,102
53,175,122,-114,-34,148,-63,-131,-1122,229,248,82
43,161,117,-102,-36,139,-63,-151,-1141,209,234,78
34,141,107,-87,-36,124,-68,-175,-1176,185,219,58
24,131,107,-78,-41,119,-73,-195,-1195,175,204,48
9,117,107,-63,-48,112,-73,-214,-1205,165,190,39
4,102,97,-53,-46,100,-73,-224,-1220,151,180,19
-4,87,92,-41,-48,90,-73,-229,-1234,136,165,14
-4,82,87,-39,-46,85,-73,-239,-1239,131,161,9
-14,73,87,-29,-51,80,-73,-248,-1254,122,151,0
-9,63,73,-26,-41,68,-73,-248,-1263,117,151,0
-14,53,68,-19,-41,61,-73,-253,-1273,107,141,-9
-19,48,68,-14,-43,58,-73,-258,-1278,107,141,-9
-24,39,63,-7,-43,51,-73,-263,-1283,102,131,-14
-34,34,68,0,-51,51,-68,-268,-1288,102,131,-19
-34,34,68,0,-51,51,-68,-273,-1293,97,126,-24
-34,29,63,2,-48,46,-68,-273,-1293,92,122,-24
-34,29,63,2,-48,46,-63,-278,-1307,87,117,-29
-39,29,68,4,-53,48,-63,-278,-1312,82,117,-34
-34,24,58,4,-46,41,-63,-287,-1322,73,112,-34
-29,19,48,4,-39,34,-63,-292,-1327,68,112,-39
-34,19,53,7,-43,36,-58,-292,-1322,68,107,-43
-34,24,58,4,-46,41,-58,-292,-1322,68,107,-48
-34,19,53,7,-43,36,-58,-292,-1332,63,102,-48
-34,14,48,9,-41,31,-58,-292,-1337,58,97,-48
-39,9,48,14,-43,29,-53,-292,-1346,58,92,-53
-39,4,43,17,-41,24,-53,-297,-1351,53,92,-53
-39,4,43,17,-41,24,-48,-297,-1356,48,82,-53
-39,0,39,19,-39,19,-48,-297,-1361,43,78,-53
-39,-4,34,21,-36,14,-43,-297,-1361,43,78,-53
-39,-9,29,24,-34,9,-43,-297,-1366,43,73,-58
-39,-9,29,24,-34,9,-43,-297,-1366,43,73,-58
-39,-9,29,24,-34,9,-39,-297,-1366,43,73,-58
-39,-14,24,26,-31,4,-39,-292,-1381,39,68,-68
-39,-14,24,26,-31,4,-39,-292,-1371,39,63,-68
-34,-19,14,26,-24,-2,-34,-292,-1376,34,63,-63
-34,-19,14,26,-24,-2,-29,-292,-1376,29,63,-63
-39,-19,19,29,-29,0,-24,-287,-1381,29,63,-63
-43,-19,24,31,-34,2,-24,-287,-1381,29,58,-63
-43,-19,24,31,-34,2,-24,-287,-1381,29,63,-63
-43,-19,24,31,-34,2,-19,-287,-1385,29,63,-63
-39,-14,24,26,-31,4,-19,-287,-1385,29,63,-68
-39,-9,29,24,-34,9,-19,-287,-1385,29,58,-73
-39,-9,29,24,-34,9,-14,-283,-1385,29,53,-73
-39,-9,29,24,-34,9,-14,-283,-1385,29,53,-73
-39,-9,29,24,-34,9,-14,-287,-1390,29,53,-73
-39,-9,29,24,-34,9,-14,-287,-1390,29,53,-73
-34,-9,24,21,-29,7,-19,-287,-1390,29,53,-73
-34,-9,24,21,-29,7,-19,-287,-1390,29,53,-73
-29,-9,19,19,-24,4,-14,-287,-1395,29,48,-73
-24,-9,14,17,-19,2,-9,-287,-1400,29,48,-73
-24,-9,14,17,-19,2,-9,-292,-1405,24,43,-73
-24,-9,14,17,-19,2,-9,-292,-1405,29,43,-73
-19,-9,9,14,-14,0,-9,-292,-1405,29,43,-73
-19,-9,9,14,-14,0,-9,-297,-1405,29,43,-73
-19,-4,14,12,-17,4,-9,-297,-1405,29,39,-73
-19,-4,14,12,-17,4,-9,-297,-1415,24,39,-73
-19,-4,14,12,-17,4,-9,-297,-1420,24,39,-73
-19,-4,14,12,-17,4,-9,-307,-1420,24,39,-68
-19,-4,14,12,-17,4,-9,-312,-1424,24,34,-68
-19,-4,14,12,-17,4,-4,-317,-1429,19,29,-68
-19,-4,14,12,-17,4,-4,-317,-1429,19,24,-68
-14,-4,9,9,-12,2,-4,-317,-1429,14,24,-68
-14,-4,9,9,-12,2,0,-317,-1434,14,24,-68
-14,-4,9,9,-12,2,0,-322,-1439,4,24,-68
-14,0,14,7,-14,7,-4,-322,-1444,4,19,-63
-14,0,14,7,-14,7,-4,-322,-1449,4,19,-63
-9,0,9,4,-9,4,-4,-322,-1449,4,19,-63
-9,0,9,4,-9,4,-4,-322,-1449,4,19,-63
-9,0,9,4,-9,4,-4,-322,-1449,-4,19,-63
-9,0,9,4,-9,4,-4,-322,-1449,-4,19,-63
-9,0,9,4,-9,4,-4,-322,-1459,-4,9,-63
-9,0,9,4,-9,4,-4,-322,-1459,-4,4,-58
-4,0,4,2,-4,2,-9,-326,-1464,0,4,-58
-4,0,4,2,-4,2,-14,-326,-1464,4,4,-58
-4,0,4,2,-4,2,-14,-331,-1464,0,4,-58
0,0,0,0,0,0,-14,-336,-1464,0,4,-58
0,0,0,0,0,0,-9,-336,-1468,4,0,-58
0,4,4,-2,-2,4,-4,-336,-1468,9,-4,-53
0,4,4,-2,-2,4,-4,-336,-1473,4,-4,-53
0,4,4,-2,-2,4,-4,-336,-1473,4,-4,-53
0,4,4,-2,-2,4,-9,-336,-1478,9,-4,-53
0,4,4,-2,-2,4,-14,-336,-1483,9,-4,-53
-4,4,9,0,-7,7,-9,-336,-1488,9,0,-53
-9,4,14,2,-12,9,-9,-336,-1488,9,0,-53
-9,4,14,2,-12,9,-9,-336,-1488,9,0,-53
-9,4,14,2,-12,9,-9,-336,-1488,9,4,-48
-4,0,4,2,-4,2,-9,-331,-1483,14,4,-48
0,0,0,0,0,0,-9,-331,-1483,19,9,-48
0,0,0,0,0,0,-9,-331,-1488,19,9,-48
0,0,0,0,0,0,-9,-331,-1493,19,9,-48
0,0,0,0,0,0,-9,-331,-1493,19,9,-43
0,0,0,0,0,0,-9,-331,-1493,19,9,-39
0,0,0,0,0,0,-9,-331,-1493,19,9,-39
0,0,0,0,0,0,-9,-331,-1493,19,9,-39
0,0,0,0,0,0,-9,-331,-1498,19,9,-39
0,0,0,0,0,0,-9,-331,-1503,19,9,-39
0,0,0,0,0,0,-9,-331,-1503,19,9,-34
0,0,0,0,0,0,-9,-331,-1503,19,9,-29
0,0,0,0,0,0,-9,-331,-1503,24,14,-29
0,0,0,0,0,0,-9,-331,-1503,29,19,-29
0,0,0,0,0,0,-4,-331,-1507,29,19,-29
0,0,0,0,0,0,0,-331,-1512,29,19,-29
0,0,0,0,0,0,0,-326,-1512,29,24,-29
0,0,0,0,0,0,0,-322,-1512,29,29,-29
4,4,0,-4,2,2,0,-317,-1507,34,34,-24
9,9,0,-9,4,4,0,-312,-1503,39,39,-19
9,14,4,-12,2,9,0,-307,-1498,43,39,-14
9,19,9,-14,0,14,0,-302,-1493,48,39,-9
9,24,14,-17,-2,19,0,-297,-1493,53,43,-9
9,29,19,-19,-4,24,0,-292,-1493,58,48,-9
9,29,19,-19,-4,24,0,-292,-1493,63,53,-4
14,34,19,-24,-2,26,0,-287,-1488,63,58,0
24,39,14,-31,4,26,0,-287,-1488,68,63,0
29,43,14,-36,7,29,-9,-283,-1478,78,68,4
34,48,14,-41,9,31,-9,-283,-1478,78,73,4
39,48,9,-43,14,29,-14,-283,-1478,82,73,0
39,43,4,-41,17,24,-19,-292,-1483,87,73,0
43,43,0,-43,21,21,-24,-292,-1488,82,73,0
43,34,-9,-39,26,12,-29,-307,-1498,78,73,0
48,29,-19,-39,34,4,-34,-317,-1503,73,73,0
48,29,-19,-39,34,4,-39,-326,-1517,63,73,0
48,34,-14,-41,31,9,-39,-331,-1522,58,73,0
48,29,-19,-39,34,4,-39,-331,-1522,53,73,0
48,24,-24,-36,36,0,-39,-331,-1522,48,68,0
39,14,-24,-26,31,-4,-34,-336,-1537,48,58,-9
39,0,-39,-19,39,-19,-34,-336,-1542,43,58,-9
39,-4,-43,-17,41,-24,-29,-336,-1546,43,53,-14
39,-4,-43,-17,41,-24,-24,-336,-1551,43,53,-14
39,-4,-43,-17,41,-24,-24,-331,-1551,43,58,-9
39,0,-39,-19,39,-19,-24,-326,-1551,34,63,-4
39,0,-39,-19,39,-19,-19,-326,-1551,53,63,-4
34,0,-34,-17,34,-17,-19,-317,-1537,53,68,0
29,-9,-39,-9,34,-24,-9,-312,-1537,58,68,0
9,-19,-29,4,19,-24,0,-302,-1527,58,68,-4
-4,-24,-19,14,7,-21,4,-302,-1537,53,58,-14
-9,-43,-34,26,12,-39,9,-302,-1546,43,48,-24
-19,-48,-29,34,4,-39,14,-302,-1551,34,39,-34
-19,-58,-39,39,9,-48,14,-302,-1556,24,39,-34
-24,-58,-34,41,4,-46,14,-302,-1556,24,39,-39
-24,-58,-34,41,4,-46,14,-302,-1556,29,39,-43
-24,-53,-29,39,2,-41,14,-302,-1561,29,34,-43
-24,-48,-24,36,0,-36,9,-302,-1561,29,34,-39
-24,-48,-24,36,0,-36,9,-302,-1561,29,34,-43
-24,-48,-24,36,0,-36,9,-297,-1556,34,34,-48
-24,-43,-19,34,-2,-31,9,-297,-1561,34,39,-48
-19,-39,-19,29,0,-29,4,-297,-1561,34,43,-43
-19,-39,-19,29,0,-29,4,-292,-1561,34,43,-43
-19,-34,-14,26,-2,-24,4,-292,-1556,34,43,-43
-19,-34,-14,26,-2,-24,4,-287,-1561,34,43,-43
-14,-29,-14,21,0,-21,4,-283,-1561,39,39,-43
-14,-29,-14,21,0,-21,0,-283,-1566,39,39,-43
-14,-29,-14,21,0,-21,0,-283,-1561,39,39,-43
-24,-29,-4,26,-9,-17,9,-283,-1566,34,39,-43
-58,-29,29,43,-43,0,14,-283,-1571,14,14,-58
-102,-43,58,73,-80,7,34,-278,-1581,-14,-24,-92
-97,-39,58,68,-78,9,39,-253,-1581,-4,-19,-92
-39,53,92,-7,-65,73,-29,-273,-1478,122,122,-9
87,292,204,-190,-58,248,-200,-287,-1249,434,409,204
248,585,336,-417,-43,461,-390,-341,-990,751,741,468
409,849,439,-629,-14,644,-566,-458,-829,1005,1010,702
531,1073,541,-802,-4,807,-751,-595,-717,1210,1268,917
658,1278,619,-968,19,949,-888,-692,-619,1385,1464,1112
702,1317,614,-1010,43,966,-976,-824,-712,1376,1507,1200
566,1068,502,-817,31,785,-966,-985,-1122,941,1224,1093
336,800,463,-568,-63,631,-868,-1068,-1493,497,849,873
170,614,444,-392,-136,529,-756,-1161,-1859,112,517,673
117,527,409,-322,-146,468,-610,-1058,-1912,-19,370,531
112,444,331,-278,-109,387,-414,-775,-1747,48,361,448
87,326,239,-207,-75,283,-248,-531,-1693,63,278,307
58,244,185,-151,-63,214,-136,-331,-1586,122,239,180
43,170,126,-107,-41,148,-58,-258,-1498,141,195,87
43,102,58,-73,-7,80,-9,-248,-1512,112,141,39
39,34,-4,-36,21,14,24,-190,-1532,87,97,-14
39,-19,-58,-9,48,-39,43,-151,-1532,82,82,-63
34,-19,-53,-7,43,-36,48,-156,-1527,78,78,-68
29,-19,-48,-4,39,-34,48,-161,-1522,73,73,-68
24,-34,-58,4,41,-46,58,-151,-1532,63,68,-82
24,-34,-58,4,41,-46,58,-151,-1532,58,68,-92
24,-43,-68,9,46,-56,63,-141,-1532,58,63,-97
24,-43,-68,9,46,-56,63,-136,-1527,58,63,-97
24,-43,-68,9,46,-56,63,-131,-1532,63,63,-102
24,-43,-68,9,46,-56,63,-126,-1532,63,63,-102
24,-43,-68,9,46,-56,68,-117,-1532,63,63,-107
24,-43,-68,9,46,-56,68,-112,-1532,63,63,-107
24,-43,-68,9,46,-56,68,-112,-1527,63,63,-112
24,-43,-68,9,46,-56,68,-112,-1522,63,63,-112
24,-43,-68,9,46,-56,68,-102,-1517,63,63,-112
24,-43,-68,9,46,-56,73,-97,-1517,63,63,-112
24,-43,-68,9,46,-56,73,-92,-1517,68,63,-112
24,-43,-68,9,46,-56,73,-87,-1517,68,63,-112
24,-39,-63,7,43,-51,78,-82,-1512,73,63,-112
24,-39,-63,7,43,-51,82,-73,-1507,73,63,-107
24,-39,-63,7,43,-51,82,-68,-1503,73,63,-107
24,-39,-63,7,43,-51,82,-63,-1498,73,63,-107
24,-39,-63,7,43,-51,82,-58,-1498,78,63,-107
24,-39,-63,7,43,-51,82,-53,-1498,82,63,-112
24,-39,-63,7,43,-51,82,-48,-1493,82,63,-112
24,-39,-63,7,43,-51,82,-48,-1493,82,68,-112
24,-39,-63,7,43,-51,82,-34,-1488,87,68,-112
24,-39,-63,7,43,-51,87,-29,-1483,87,68,-112
24,-34,-58,4,41,-46,87,-24,-1478,92,68,-112
24,-34,-58,4,41,-46,87,-24,-1473,92,68,-112
29,-29,-58,0,43,-43,87,-14,-1473,97,68,-112
29,-29,-58,0,43,-43,87,-9,-1468,102,68,-117
34,-24,-58,-4,46,-41,87,0,-1464,97,73,-117
34,-24,-58,-4,46,-41,87,0,-1459,97,73,-117
43,-19,-63,-12,53,-41,87,0,-1459,102,73,-117
43,-19,-63,-12,53,-41,87,9,-1454,107,78,-112
43,-14,-58,-14,51,-36,87,9,-1449,112,82,-112
43,-14,-58,-14,51,-36,92,14,-1444,112,82,-107
48,-14,-63,-17,56,-39,92,14,-1439,112,82,-107
48,-14,-63,-17,56,-39,92,24,-1434,122,78,-107
53,-14,-68,-19,61,-41,92,29,-1434,126,78,-102
53,-4,-58,-24,56,-31,87,34,-1429,136,82,-102
53,0,-53,-26,53,-26,97,39,-1420,136,87,-102
48,0,-48,-24,48,-24,97,48,-1410,141,97,-102
58,0,-58,-29,58,-29,102,58,-1405,146,97,-102
63,0,-63,-31,63,-31,112,68,-1390,146,97,-102
68,4,-63,-36,65,-29,112,78,-1385,156,107,-97
68,4,-63,-36,65,-29,117,87,-1376,161,107,-97
73,9,-63,-41,68,-26,117,97,-1366,165,107,-97
78,14,-63,-46,70,-24,117,112,-1356,170,117,-97
82,19,-63,-51,73,-21,126,131,-1342,180,122,-92
87,24,-63,-56,75,-19,131,151,-1327,190,122,-92
97,34,-63,-65,80,-14,136,170,-1312,200,131,-87
112,39,-73,-75,92,-17,141,195,-1298,209,136,-87
117,48,-68,-82,92,-9,151,219,-1288,219,141,-82
122,58,-63,-90,92,-2,161,244,-1278,229,146,-78
131,63,-68,-97,100,-2,165,273,-1244,244,151,-68
141,68,-73,-104,107,-2,170,297,-1229,253,165,-63
161,78,-82,-119,122,-2,180,331,-1205,273,180,-53
165,87,-78,-126,122,4,190,361,-1185,287,195,-48
175,102,-73,-139,124,14,200,385,-1161,307,204,-39
195,112,-82,-153,139,14,204,414,-1146,322,219,-24
204,122,-82,-163,143,19,204,439,-1117,341,229,-9
214,136,-78,-175,146,29,204,463,-1098,366,244,-9
229,151,-78,-190,153,36,209,483,-1068,375,263,9
239,165,-73,-202,156,46,209,502,-1054,400,283,19
248,185,-63,-217,156,61,209,517,-1024,419,297,29
258,200,-58,-229,158,70,200,522,-1015,434,312,39
268,214,-53,-241,161,80,200,517,-1005,448,331,53
268,229,-39,-248,153,95,185,512,-1005,458,346,63
263,244,-19,-253,141,112,175,483,-1000,463,356,82
258,258,0,-258,129,129,146,444,-1000,468,361,97
248,273,24,-261,112,148,122,400,-1005,468,375,112
234,278,43,-256,95,161,97,351,-1024,468,385,122
214,287,73,-251,70,180,82,307,-1044,463,385,131
190,287,97,-239,46,192,53,244,-1063,444,385,131
180,287,107,-234,36,197,39,195,-1093,424,385,131
165,278,112,-222,26,195,24,146,-1127,400,370,131
141,258,117,-200,12,187,14,102,-1156,380,366,131
122,239,117,-180,2,178,-4,48,-1190,351,346,112
102,214,112,-158,-4,163,-19,4,-1210,322,322,102
78,190,112,-134,-17,151,-24,-24,-1244,297,302,82
63,175,112,-119,-24,143,-29,-53,-1263,278,283,73
43,146,102,-95,-29,124,-34,-82,-1293,248,258,53
34,131,97,-82,-31,114,-34,-97,-1302,229,244,48
24,112,87,-68,-31,100,-34,-112,-1327,204,224,29
14,102,87,-58,-36,95,-34,-126,-1342,195,204,19
0,87,87,-43,-43,87,-34,-146,-1351,185,190,9
-4,73,78,-34,-41,75,-34,-161,-1361,170,185,-9
-14,58,73,-21,-43,65,-34,-170,-1371,156,175,-14
-9,53,63,-21,-36,58,-34,-180,-1371,151,170,-14
-19,43,63,-12,-41,53,-34,-190,-1376,141,156,-19
-19,34,53,-7,-36,43,-29,-190,-1376,136,151,-19
-24,29,53,-2,-39,41,-24,-195,-1381,126,141,-29
-29,29,58,0,-43,43,-24,-200,-1381,126,141,-29
-29,19,48,4,-39,34,-24,-204,-1381,122,131,-34
-34,14,48,9,-41,31,-24,-209,-1385,122,131,-39
-34,14,48,9,-41,31,-29,-214,-1390,117,126,-43
-34,9,43,12,-39,26,-29,-214,-1385,112,122,-43
-34,4,39,14,-36,21,-24,-219,-1390,107,117,-48
-39,0,39,19,-39,19,-24,-219,-1385,102,117,-53
-39,-4,34,21,-36,14,-24,-224,-1385,97,112,-53
-39,-4,34,21,-36,14,-24,-224,-1385,97,112,-58
-43,-4,39,24,-41,17,-19,-224,-1381,97,107,-58
-43,-4,39,24,-41,17,-19,-224,-1376,97,107,-58
-43,-9,34,26,-39,12,-19,-224,-1376,92,107,-58
-43,-14,29,29,-36,7,-19,-224,-1371,82,102,-58
-48,-14,34,31,-41,9,-14,-224,-1371,78,92,-63
-48,-14,34,31,-41,9,-14,-229,-1371,73,92,-63
-48,-14,34,31,-41,9,-9,-229,-1371,73,87,-63
-48,-19,29,34,-39,4,-9,-229,-1371,73,87,-63
-48,-19,29,34,-39,4,-4,-229,-1366,73,87,-63
-48,-24,24,36,-36,0,-4,-229,-1366,68,82,-68
-48,-29,19,39,-34,-4,-4,-229,-1366,63,82,-68
-48,-29,19,39,-34,-4,0,-229,-1361,63,78,-68
-48,-34,14,41,-31,-9,0,-224,-1371,58,73,-78
-48,-29,19,39,-34,-4,0,-224,-1361,58,73,-78
-43,-29,14,36,-29,-7,0,-224,-1361,58,73,-73
-43,-29,14,36,-29,-7,0,-229,-1356,58,73,-73
-43,-29,14,36,-29,-7,4,-229,-1356,58,73,-73
-43,-29,14,36,-29,-7,4,-229,-1351,58,68,-73
-43,-29,14,36,-29,-7,4,-229,-1346,58,68,-73
-43,-29,14,36,-29,-7,4,-229,-1342,53,63,-73
-39,-29,9,34,-24,-9,0,-229,-1337,48,63,-73
-39,-29,9,34,-24,-9,0,-229,-1332,48,58,-73
-39,-29,9,34,-24,-9,4,-224,-1327,48,53,-73
-39,-24,14,31,-26,-4,4,-224,-1322,48,53,-73
-39,-19,19,29,-29,0,4,-229,-1322,48,53,-73
-39,-19,19,29,-29,0,4,-229,-1317,48,53,-73
-34,-19,14,26,-24,-2,0,-229,-1312,48,53,-73
-34,-19,14,26,-24,-2,0,-229,-1312,48,53,-73
-34,-19,14,26,-24,-2,0,-229,-1312,48,48,-73
-34,-19,14,26,-24,-2,0,-229,-1307,53,48,-73
-34,-19,14,26,-24,-2,0,-234,-1307,48,43,-73
-34,-19,14,26,-24,-2,0,-234,-1302,48,43,-73
-29,-19,9,24,-19,-4,0,-234,-1298,48,43,-73
-24,-19,4,21,-14,-7,-4,-244,-1293,48,43,-73
-19,-14,4,17,-12,-4,-9,-248,-1288,48,39,-73
-19,-9,9,14,-14,0,-9,-248,-1293,43,39,-73
-19,-4,14,12,-17,4,-9,-248,-1293,43,39,-73
-19,-4,14,12,-17,4,-9,-258,-1293,39,34,-68
-19,-4,14,12,-17,4,-14,-258,-1293,34,29,-68
-19,-4,14,12,-17,4,-14,-258,-1288,29,29,-68
-19,-4,14,12,-17,4,-14,-258,-1283,29,24,-68
-14,-4,9,9,-12,2,-14,-258,-1283,24,24,-68
-14,-4,9,9,-12,2,-9,-258,-1283,24,24,-68
-14,-4,9,9,-12,2,-9,-263,-1278,14,24,-68
-14,-4,9,9,-12,2,-14,-263,-1273,14,19,-63
-14,-4,9,9,-12,2,-14,-268,-1268,14,19,-63
-9,0,9,4,-9,4,-14,-273,-1263,14,19,-63
-9,0,9,4,-9,4,-14,-273,-1263,14,19,-58
-9,0,9,4,-9,4,-14,-273,-1263,4,19,-53
-9,0,9,4,-9,4,-14,-273,-1254,4,19,-53
-9,0,9,4,-9,4,-14,-273,-1254,4,14,-53
-9,0,9,4,-9,4,-14,-268,-1249,4,9,-48
-4,0,4,2,-4,2,-14,-268,-1244,4,4,-48
-4,0,4,2,-4,2,-9,-268,-1239,4,4,-48
-9,0,9,4,-9,4,-4,-268,-1239,0,4,-48
-9,0,9,4,-9,4,-4,-273,-1239,0,4,-48
-9,0,9,4,-9,4,-4,-278,-1239,0,4,-48
-4,4,9,0,-7,7,-4,-278,-1234,4,4,-43
0,4,4,-2,-2,4,-4,-278,-1234,4,4,-43
0,4,4,-2,-2,4,-4,-278,-1224,4,4,-43
0,4,4,-2,-2,4,-4,-278,-1220,4,4,-43
0,4,4,-2,-2,4,-9,-278,-1215,4,0,-43
0,4,4,-2,-2,4,-9,-278,-1210,9,0,-43
0,0,0,0,0,0,-9,-278,-1205,9,0,-43
0,-4,-4,2,2,-4,-9,-278,-1205,9,0,-43
0,0,0,0,0,0,-4,-273,-1200,9,4,-39
0,4,4,-2,-2,4,-4,-273,-1200,14,14,-39
0,0,0,0,0,0,0,-273,-1190,14,14,-34
0,0,0,0,0,0,0,-273,-1180,19,19,-29
0,0,0,0,0,0,0,-273,-1180,19,19,-29
0,0,0,0,0,0,0,-273,-1180,19,19,-29
0,0,0,0,0,0,0,-273,-1176,19,19,-24
0,0,0,0,0,0,0,-273,-1171,19,19,-19
0,-4,-4,2,2,-4,0,-273,-1171,19,24,-19
0,-9,-9,4,4,-9,0,-273,-1171,19,29,-19
0,-14,-14,7,7,-14,0,-268,-1166,24,29,-19
0,-19,-19,9,9,-19,0,-263,-1161,29,29,-19
0,-19,-19,9,9,-19,0,-263,-1151,34,34,-14
0,-19,-19,9,9,-19,0,-263,-1141,39,39,-9
0,-19,-19,9,9,-19,4,-263,-1137,39,39,-9
0,-19,-19,9,9,-19,9,-263,-1132,39,39,-9
4,-19,-24,7,14,-21,9,-258,-1127,39,43,-9
9,-19,-29,4,19,-24,9,-253,-1122,39,48,-9
9,-19,-29,4,19,-24,9,-248,-1117,43,48,-4
9,-19,-29,4,19,-24,9,-244,-1112,48,48,0
9,-14,-24,2,17,-19,14,-239,-1107,53,53,0
9,-9,-19,0,14,-14,19,-234,-1102,58,58,0
9,0,-9,-4,9,-4,19,-229,-1093,63,63,4
9,9,0,-9,4,4,19,-224,-1083,68,68,9
9,14,4,-12,2,9,19,-219,-1073,73,73,9
9,19,9,-14,0,14,19,-214,-1063,78,78,9
14,29,14,-21,0,21,19,-214,-1058,82,78,9
19,34,14,-26,2,24,14,-209,-1049,87,82,14
29,43,14,-36,7,29,9,-204,-1039,97,87,19
34,48,14,-41,9,31,9,-204,-1039,97,92,24
43,53,9,-48,17,31,4,-204,-1034,102,92,19
48,53,4,-51,21,29,0,-214,-1034,102,92,19
53,53,0,-53,26,26,-4,-214,-1034,92,87,14
53,43,-9,-48,31,17,-9,-224,-1034,87,82,9
58,39,-19,-48,39,9,-14,-229,-1034,82,82,9
58,39,-19,-48,39,9,-19,-239,-1044,78,82,9
53,39,-14,-46,34,12,-24,-244,-1039,82,87,9
48,34,-14,-41,31,9,-29,-248,-1034,82,92,9
48,34,-14,-41,31,9,-29,-253,-1029,78,87,9
39,24,-14,-31,26,4,-24,-258,-1039,73,78,0
39,9,-29,-24,34,-9,-24,-258,-1039,63,78,0
39,4,-34,-21,36,-14,-24,-258,-1034,63,73,-4
43,4,-39,-24,41,-17,-24,-258,-1034,63,73,-4
48,0,-48,-24,48,-24,-24,-258,-1034,63,73,-4
48,4,-43,-26,46,-19,-24,-258,-1029,53,73,-4
48,9,-39,-29,43,-14,-19,-258,-1024,73,73,-4
43,14,-29,-29,36,-7,-19,-248,-1010,73,78,0
39,19,-19,-29,29,0,-14,-244,-1010,78,78,0
9,19,9,-14,0,14,-14,-239,-995,73,78,-9
-14,14,29,0,-21,21,-14,-244,-1000,63,68,-24
-19,-4,14,12,-17,4,-9,-244,-1010,48,53,-34
-29,-9,19,19,-24,4,-4,-244,-1010,39,39,-43
-24,-19,4,21,-14,-7,0,-244,-1005,34,39,-43
-24,-19,4,21,-14,-7,4,-244,-1000,34,39,-48
-24,-19,4,21,-14,-7,4,-239,-995,39,39,-58
-24,-19,4,21,-14,-7,9,-234,-990,39,34,-63
-24,-19,4,21,-14,-7,9,-234,-985,34,34,-58
-24,-19,4,21,-14,-7,9,-234,-985,29,34,-58
-24,-19,4,21,-14,-7,9,-234,-976,34,34,-58
-24,-19,4,21,-14,-7,9,-239,-971,34,34,-58
-19,-19,0,19,-9,-9,4,-239,-966,34,34,-53
-19,-19,0,19,-9,-9,4,-234,-966,34,34,-53
-14,-14,0,14,-7,-7,4,-234,-956,34,34,-53
-9,-14,-4,12,-2,-9,4,-229,-951,39,39,-53
-4,-4,0,4,-2,-2,4,-224,-941,48,39,-53
-4,0,4,2,-4,2,0,-224,-936,48,39,-53
-4,0,4,2,-4,2,-4,-224,-927,48,39,-48
-14,0,14,7,-14,7,0,-219,-927,43,39,-43
-53,0,53,26,-53,26,4,-219,-927,24,14,-58
-107,-19,87,63,-97,34,39,-209,-936,-4,-29,-92
-112,-39,73,75,-92,17,73,-175,-956,-19,-48,-117
-73,14,87,29,-80,51,29,-170,-873,58,43,-73
39,229,190,-134,-75,209,-131,-156,-663,326,283,112
224,536,312,-380,-43,424,-322,-161,-385,658,629,375
419,810,390,-614,14,600,-502,-234,-185,927,922,614
570,1054,483,-812,43,768,-707,-390,-68,1137,1185,834
746,1307,561,-1027,92,934,-858,-473,92,1381,1424,1063
829,1366,536,-1098,146,951,-956,-605,73,1415,1507,1171
692,1127,434,-910,129,780,-971,-819,-336,1005,1254,1088
419,839,419,-629,0,629,-917,-966,-785,536,868,878
204,624,419,-414,-107,522,-839,-1137,-1234,73,507,668
136,551,414,-344,-139,483,-683,-1083,-1312,-73,361,541
131,488,356,-309,-112,422,-473,-805,-1151,9,351,468
107,375,268,-241,-80,322,-302,-531,-1098,24,268,326
78,292,214,-185,-68,253,-175,-302,-980,92,229,200
63,219,156,-141,-46,187,-82,-214,-883,126,195,107
63,156,92,-109,-14,124,-24,-200,-897,102,151,53
58,82,24,-70,17,53,14,-141,-922,78,97,-9
58,19,-39,-39,48,-9,34,-102,-922,73,73,-63
53,19,-34,-36,43,-7,43,-102,-917,68,68,-68
48,19,-29,-34,39,-4,48,-102,-917,63,63,-68
43,4,-39,-24,41,-17,58,-92,-927,58,58,-78
43,4,-39,-24,41,-17,58,-92,-927,58,63,-82
43,-4,-48,-19,46,-26,63,-82,-932,58,63,-87
43,-4,-48,-19,46,-26,63,-78,-936,58,63,-87
43,-4,-48,-19,46,-26,63,-73,-946,63,63,-92
43,-4,-48,-19,46,-26,63,-68,-951,63,63,-92
43,-4,-48,-19,46,-26,68,-63,-956,63,63,-97
43,-4,-48,-19,46,-26,68,-58,-956,63,63,-97
43,-4,-48,-19,46,-26,68,-53,-956,63,63,-102
43,-4,-48,-19,46,-26,68,-48,-956,68,63,-102
43,-4,-48,-19,46,-26,68,-39,-956,73,63,-102
43,-4,-48,-19,46,-26,73,-34,-961,73,63,-102
43,-4,-48,-19,46,-26,73,-29,-961,78,63,-102
43,-4,-48,-19,46,-26,78,-24,-966,73,63,-102
43,0,-43,-21,43,-21,82,-19,-971,73,63,-102
48,0,-48,-24,48,-24,82,-9,-971,73,63,-97
53,0,-53,-26,53,-26,82,-4,-971,73,63,-97
53,0,-53,-26,53,-26,82,-4,-971,73,63,-97
53,0,-53,-26,53,-26,82,-4,-976,78,63,-97
53,0,-53,-26,53,-26,82,-4,-980,82,63,-102
53,0,-53,-26,53,-26,82,0,-980,82,63,-102
58,4,-53,-31,56,-24,82,-4,-985,82,68,-107
63,9,-53,-36,58,-21,82,0,-985,87,68,-112
63,9,-53,-36,58,-21,87,0,-985,82,68,-112
63,14,-48,-39,56,-17,87,4,-985,82,68,-112
68,14,-53,-41,61,-19,87,0,-990,82,68,-112
78,19,-58,-48,68,-19,87,0,-995,87,68,-107
78,19,-58,-48,68,-19,87,0,-990,92,68,-107
82,24,-58,-53,70,-17,87,9,-990,92,73,-107
82,19,-63,-51,73,-21,87,9,-990,97,73,-107
92,19,-73,-56,82,-26,87,9,-990,102,73,-107
92,19,-73,-56,82,-26,87,19,-990,102,78,-102
92,24,-68,-58,80,-21,87,19,-995,102,82,-102
92,29,-63,-61,78,-17,92,24,-995,102,82,-97
97,34,-63,-65,80,-14,92,24,-995,102,82,-97
102,34,-68,-68,85,-17,92,34,-1000,112,78,-97
112,34,-78,-73,95,-21,97,39,-1005,112,78,-92
112,43,-68,-78,90,-12,92,43,-1000,117,82,-92
117,48,-68,-82,92,-9,97,48,-1000,117,82,-92
117,53,-63,-85,90,-4,97,58,-1000,122,87,-92
126,58,-68,-92,97,-4,97,68,-1000,126,87,-92
131,58,-73,-95,102,-7,102,78,-990,126,87,-92
136,63,-73,-100,104,-4,102,87,-990,136,97,-87
136,63,-73,-100,104,-4,107,97,-985,141,97,-87
141,68,-73,-104,107,-2,112,107,-980,146,97,-87
146,73,-73,-109,109,0,117,122,-976,151,107,-87
151,78,-73,-114,112,2,126,141,-966,156,112,-82
156,78,-78,-117,117,0,131,156,-956,161,112,-82
165,82,-82,-124,124,0,136,170,-946,170,122,-78
185,87,-97,-136,141,-4,146,195,-941,180,122,-82
195,97,-97,-146,146,0,156,214,-936,190,126,-78
204,102,-102,-153,153,0,161,234,-936,200,131,-73
219,107,-112,-163,165,-2,165,263,-917,214,131,-68
229,117,-112,-173,170,2,175,287,-907,224,146,-63
248,126,-122,-187,185,2,185,317,-888,244,156,-53
258,136,-122,-197,190,7,190,346,-873,258,165,-48
273,151,-122,-212,197,14,200,375,-854,278,175,-43
292,161,-131,-226,212,14,209,405,-849,287,190,-34
307,175,-131,-241,219,21,214,429,-824,302,200,-19
326,195,-131,-261,229,31,214,453,-805,326,214,-19
346,209,-136,-278,241,36,219,473,-780,336,234,0
361,224,-136,-292,248,43,224,492,-771,361,253,9
375,244,-131,-309,253,56,229,507,-741,380,268,24
385,258,-126,-322,256,65,219,517,-732,400,287,39
395,273,-122,-334,258,75,219,522,-722,419,312,53
395,292,-102,-344,248,95,204,527,-722,429,326,63
390,312,-78,-351,234,117,195,507,-717,439,341,82
385,326,-58,-356,222,134,165,473,-717,453,351,97
375,341,-34,-358,204,153,146,434,-717,458,366,112
361,346,-14,-353,187,165,122,395,-732,458,375,122
341,356,14,-348,163,185,102,361,-751,458,375,131
312,356,43,-334,134,200,68,302,-771,448,375,136
292,356,63,-324,114,209,48,253,-800,434,375,141
273,351,78,-312,97,214,34,204,-839,409,361,141
248,336,87,-292,80,212,24,161,-873,390,356,141
219,317,97,-268,61,207,4,107,-907,366,336,126
195,297,102,-246,46,200,-9,63,-932,341,312,122
175,278,102,-226,36,190,-14,34,-971,317,292,102
161,263,102,-212,29,183,-19,4,-990,297,273,92
141,234,92,-187,24,163,-29,-29,-1024,268,248,68
131,219,87,-175,21,153,-34,-53,-1044,248,234,58
122,200,78,-161,21,139,-34,-73,-1073,224,219,39
112,190,78,-151,17,134,-34,-87,-1088,214,204,29
92,180,87,-136,2,134,-34,-107,-1098,209,190,24
82,170,87,-126,-2,129,-34,-117,-1112,200,180,9
73,156,82,-114,-4,119,-34,-122,-1127,185,170,4
73,151,78,-112,-2,114,-34,-131,-1132,180,170,0
58,141,82,-100,-12,112,-34,-141,-1141,170,156,-9
58,131,73,-95,-7,102,-34,-141,-1146,165,151,-9
48,126,78,-87,-14,102,-34,-146,-1156,156,141,-19
39,126,87,-82,-24,107,-34,-151,-1161,156,141,-19
39,117,78,-78,-19,97,-34,-156,-1166,146,126,-24
34,112,78,-73,-21,95,-29,-161,-1171,141,122,-29
29,117,87,-73,-29,102,-29,-165,-1176,136,117,-34
24,117,92,-70,-34,104,-29,-165,-1176,131,112,-34
24,112,87,-68,-31,100,-29,-170,-1185,126,107,-39
19,107,87,-63,-34,97,-34,-170,-1185,122,107,-43
14,102,87,-58,-36,95,-34,-175,-1195,117,102,-43
9,97,87,-53,-39,92,-34,-175,-1200,117,102,-48
4,92,87,-48,-41,90,-29,-180,-1200,117,97,-48
4,92,87,-48,-41,90,-29,-185,-1205,117,97,-48
4,87,82,-46,-39,85,-29,-185,-1210,112,97,-48
4,82,78,-43,-36,80,-29,-185,-1210,107,97,-48
0,82,82,-41,-41,82,-24,-180,-1220,107,92,-53
0,82,82,-41,-41,82,-24,-180,-1224,102,92,-53
0,82,82,-41,-41,82,-19,-180,-1224,102,87,-53
0,78,78,-39,-39,78,-19,-180,-1224,102,87,-53
0,78,78,-39,-39,78,-14,-180,-1220,102,87,-53
0,78,78,-39,-39,78,-14,-180,-1220,102,82,-58
0,73,73,-36,-36,73,-9,-180,-1220,102,78,-58
0,68,68,-34,-34,68,0,-180,-1220,102,73,-58
0,63,63,-31,-31,63,0,-175,-1239,97,73,-68
0,63,63,-31,-31,63,0,-175,-1234,97,73,-68
4,58,53,-31,-24,56,0,-175,-1239,97,73,-58
4,58,53,-31,-24,56,0,-175,-1239,97,73,-53
4,63,58,-34,-26,61,4,-170,-1239,97,78,-53
4,68,63,-36,-29,65,4,-170,-1234,97,78,-53
4,68,63,-36,-29,65,0,-170,-1234,97,78,-53
4,68,63,-36,-29,65,0,-170,-1239,97,73,-53
9,63,53,-36,-21,58,0,-170,-1239,97,73,-53
9,58,48,-34,-19,53,0,-170,-1239,97,68,-53
14,58,43,-36,-14,51,4,-165,-1239,97,63,-58
19,58,39,-39,-9,48,4,-165,-1239,97,63,-63
19,58,39,-39,-9,48,4,-170,-1244,97,63,-63
19,58,39,-39,-9,48,4,-170,-1244,97,63,-63
24,58,34,-41,-4,46,0,-170,-1244,97,63,-63
24,58,34,-41,-4,46,0,-170,-1244,97,63,-63
19,58,39,-39,-9,48,0,-170,-1249,97,58,-58
14,58,43,-36,-14,51,0,-170,-1254,97,58,-53
14,53,39,-34,-12,46,0,-175,-1259,87,53,-53
14,48,34,-31,-9,41,0,-175,-1259,87,53,-53
19,43,24,-31,-2,34,0,-175,-1259,87,53,-53
19,39,19,-29,0,29,0,-180,-1259,87,53,-53
19,39,19,-29,0,29,0,-180,-1254,87,48,-53
19,34,14,-26,2,24,0,-180,-1259,82,48,-53
19,34,14,-26,2,24,0,-180,-1263,87,48,-53
19,34,14,-26,2,24,0,-190,-1263,92,48,-48
19,34,14,-26,2,24,-4,-190,-1268,92,48,-48
19,34,14,-26,2,24,-4,-190,-1273,87,48,-48
14,34,19,-24,-2,26,-4,-190,-1273,87,43,-48
14,34,19,-24,-2,26,-4,-190,-1273,82,43,-48
14,34,19,-24,-2,26,-4,-190,-1278,82,43,-48
14,34,19,-24,-2,26,-9,-195,-1283,73,43,-48
14,34,19,-24,-2,26,-14,-195,-1283,73,39,-43
14,29,14,-21,0,21,-14,-195,-1283,73,39,-43
14,24,9,-19,2,17,-14,-195,-1283,73,39,-43
9,19,9,-14,0,14,-14,-195,-1283,73,39,-43
9,19,9,-14,0,14,-9,-195,-1283,63,34,-43
9,19,9,-14,0,14,-4,-195,-1283,63,29,-43
9,14,4,-12,2,9,-4,-190,-1293,63,19,-43
9,9,0,-9,4,4,-4,-185,-1293,63,14,-39
14,9,-4,-12,9,2,-9,-190,-1293,63,14,-39
14,9,-4,-12,9,2,-14,-190,-1288,63,14,-39
9,9,0,-9,4,4,-14,-190,-1288,58,14,-39
9,9,0,-9,4,4,-14,-190,-1288,58,14,-39
14,4,-9,-9,12,-2,-14,-190,-1293,58,14,-39
19,4,-14,-12,17,-4,-14,-190,-1293,58,14,-34
19,0,-19,-9,19,-9,-14,-190,-1298,53,9,-34
19,-4,-24,-7,21,-14,-14,-190,-1298,53,4,-34
19,-4,-24,-7,21,-14,-14,-190,-1298,53,4,-34
19,-4,-24,-7,21,-14,-14,-190,-1298,48,4,-34
19,0,-19,-9,19,-9,-9,-190,-1302,48,9,-29
19,4,-14,-12,17,-4,-9,-190,-1302,48,9,-24
19,4,-14,-12,17,-4,-9,-190,-1302,48,9,-24
19,4,-14,-12,17,-4,-9,-190,-1302,48,14,-19
19,9,-9,-14,14,0,-9,-185,-1298,48,14,-19
19,19,0,-19,9,9,-9,-185,-1298,48,19,-19
14,19,4,-17,4,12,-9,-185,-1298,43,19,-19
9,19,9,-14,0,14,-9,-185,-1298,39,19,-19
9,14,4,-12,2,9,-9,-185,-1298,34,19,-19
9,9,0,-9,4,4,-9,-185,-1298,29,19,-19
9,9,0,-9,4,4,-9,-185,-1298,29,19,-19
9,9,0,-9,4,4,-9,-185,-1298,29,19,-19
9,9,0,-9,4,4,-9,-185,-1302,29,19,-14
9,9,0,-9,4,4,-9,-185,-1307,29,19,-9
9,14,4,-12,2,9,-9,-180,-1307,29,24,-9
9,19,9,-14,0,14,-9,-175,-1307,29,29,-9
9,29,19,-19,-4,24,-9,-170,-1302,29,34,-4
9,39,29,-24,-9,34,-9,-165,-1298,29,39,0
9,39,29,-24,-9,34,-9,-161,-1293,29,39,0
9,39,29,-24,-9,34,-9,-156,-1288,29,39,0
9,48,39,-29,-14,43,-9,-156,-1288,29,43,4
9,58,48,-34,-19,53,-9,-156,-1288,29,48,9
9,63,53,-36,-21,58,-9,-151,-1288,29,48,9
14,68,53,-41,-19,61,-14,-141,-1278,29,53,9
19,73,53,-46,-17,63,-19,-136,-1273,34,58,14
24,78,53,-51,-14,65,-19,-136,-1273,29,63,14
29,78,48,-53,-9,63,-24,-141,-1273,34,68,9
29,73,43,-51,-7,58,-29,-156,-1278,34,73,9
39,73,34,-56,2,53,-34,-156,-1283,24,73,9
43,63,19,-53,12,41,-39,-165,-1288,19,73,9
48,58,9,-53,19,34,-39,-165,-1288,14,73,9
48,58,9,-53,19,34,-39,-170,-1298,9,73,9
43,63,19,-53,12,41,-39,-175,-1298,9,68,9
39,63,24,-51,7,43,-39,-180,-1298,4,63,9
39,63,24,-51,7,43,-39,-185,-1298,0,58,9
29,53,24,-41,2,39,-34,-190,-1312,-4,48,0
29,39,9,-34,9,24,-34,-190,-1322,-14,48,0
29,34,4,-31,12,19,-34,-190,-1327,-14,43,-4
29,34,4,-31,12,19,-34,-185,-1327,-14,43,-4
29,29,0,-29,14,14,-34,-180,-1327,-14,43,-4
29,29,0,-29,14,14,-34,-180,-1327,-19,48,-4
29,29,0,-29,14,14,-29,-180,-1327,4,53,-4
19,29,9,-24,4,19,-24,-170,-1312,4,58,0
9,29,19,-19,-4,24,-14,-165,-1312,9,58,0
-9,24,34,-7,-21,29,-9,-156,-1307,4,53,-9
-24,14,39,4,-31,26,-4,-156,-1322,-4,39,-24
-24,-4,19,14,-21,7,0,-156,-1332,-14,29,-34
-29,-9,19,19,-24,4,4,-156,-1332,-19,19,-43
-29,-14,14,21,-21,0,4,-156,-1327,-19,24,-39
-34,-9,24,21,-29,7,4,-156,-1322,-14,29,-39
-34,-9,24,21,-29,7,0,-156,-1322,-4,29,-43
-34,-9,24,21,-29,7,0,-156,-1322,0,24,-43
-34,-9,24,21,-29,7,0,-156,-1322,0,24,-39
-34,-9,24,21,-29,7,0,-156,-1327,0,24,-39
-34,-9,24,21,-29,7,4,-146,-1327,4,24,-43
-34,-9,24,21,-29,7,9,-141,-1332,4,24,-48
-29,-9,19,19,-24,4,4,-141,-1327,4,24,-43
-29,-9,19,19,-24,4,4,-136,-1327,4,24,-43
-24,-4,19,14,-21,7,4,-136,-1322,4,24,-39
-19,-4,14,12,-17,4,4,-131,-1322,9,29,-34
-14,0,14,7,-14,7,4,-126,-1317,19,29,-34
-14,0,14,7,-14,7,0,-126,-1317,19,29,-34
-14,0,14,7,-14,7,0,-122,-1307,19,29,-39
-24,0,24,12,-24,12,9,-112,-1307,14,29,-43
-58,0,58,29,-58,29,19,-92,-1302,4,9,-58
-107,-19,87,63,-97,34,58,-63,-1307,-14,-29,-92
-78,24,102,26,-90,63,78,-14,-1263,53,24,-63
-4,141,146,-68,-75,143,19,4,-1117,214,190,34
117,370,253,-244,-68,312,-136,34,-897,502,458,248
312,692,380,-502,-34,536,-322,43,-610,854,834,541
497,985,488,-741,4,736,-497,-43,-424,1127,1137,810
639,1249,610,-944,14,929,-697,-214,-322,1342,1410,1058
727,1390,663,-1058,31,1027,-824,-390,-346,1400,1503,1200
722,1337,614,-1029,53,976,-897,-614,-551,1249,1439,1220
556,1054,497,-805,29,775,-893,-849,-976,790,1127,1088
253,722,468,-488,-107,595,-819,-1015,-1439,273,683,829
87,556,468,-322,-190,512,-736,-1049,-1732,-43,405,624
68,531,463,-300,-197,497,-575,-858,-1654,-43,341,502
82,463,380,-273,-148,422,-380,-605,-1468,39,331,429
78,346,268,-212,-95,307,-224,-356,-1390,53,248,287
58,268,209,-163,-75,239,-122,-175,-1317,107,209,175
53,200,146,-126,-46,173,-53,-136,-1263,126,175,97
53,136,82,-95,-14,109,-9,-122,-1268,97,131,48
48,63,14,-56,17,39,14,-63,-1283,68,78,-9
48,4,-43,-26,46,-19,34,-39,-1288,63,58,-58
43,9,-34,-26,39,-12,43,-53,-1288,58,58,-58
43,14,-29,-29,36,-7,43,-53,-1278,58,58,-58
43,4,-39,-24,41,-17,48,-43,-1278,58,58,-68
43,4,-39,-24,41,-17,48,-43,-1268,63,58,-68
43,-4,-48,-19,46,-26,53,-34,-1263,68,53,-68
43,-4,-48,-19,46,-26,53,-29,-1263,68,53,-68
43,-4,-48,-19,46,-26,53,-24,-1268,73,53,-73
43,-9,-53,-17,48,-31,58,-19,-1263,68,53,-73
43,-14,-58,-14,51,-36,68,-14,-1259,63,53,-78
43,-14,-58,-14,51,-36,68,-14,-1259,63,53,-78
43,-14,-58,-14,51,-36,68,-14,-1259,63,53,-82
43,-14,-58,-14,51,-36,68,-14,-1254,68,53,-82
43,-14,-58,-14,51,-36,68,-9,-1249,73,53,-82
43,-14,-58,-14,51,-36,68,-9,-1249,73,58,-82
43,-14,-58,-14,51,-36,63,-9,-1244,78,63,-82
43,-14,-58,-14,51,-36,63,-14,-1244,78,63,-82
43,-9,-53,-17,48,-31,63,-19,-1244,82,63,-82
43,-9,-53,-17,48,-31,63,-14,-1239,82,63,-78
43,-9,-53,-17,48,-31,63,-14,-1234,82,63,-78
43,-9,-53,-17,48,-31,63,-14,-1229,82,63,-78
43,-9,-53,-17,48,-31,63,-14,-1229,87,63,-78
48,-9,-58,-19,53,-34,63,-14,-1224,97,63,-82
53,-9,-63,-21,58,-36,63,-9,-1215,102,63,-82
53,-9,-63,-21,58,-36,63,-9,-1215,102,68,-82
53,-9,-63,-21,58,-36,63,0,-1210,107,68,-82
53,-9,-63,-21,58,-36,63,0,-1210,107,68,-82
53,-4,-58,-24,56,-31,58,4,-1210,112,68,-82
53,-4,-58,-24,56,-31,58,0,-1205,112,68,-82
58,0,-58,-29,58,-29,58,0,-1200,117,68,-78
58,0,-58,-29,58,-29,58,0,-1190,122,68,-78
63,4,-58,-34,61,-26,58,9,-1185,122,73,-78
63,4,-58,-34,61,-26,58,9,-1185,126,73,-78
73,9,-63,-41,68,-26,58,9,-1185,131,73,-78
73,9,-63,-41,68,-26,58,19,-1176,136,78,-73
73,14,-58,-43,65,-21,58,19,-1171,141,82,-73
73,14,-58,-43,65,-21,63,24,-1166,141,82,-68
78,14,-63,-46,70,-24,63,24,-1161,141,82,-68
78,9,-68,-43,73,-29,63,34,-1156,151,78,-68
82,4,-78,-43,80,-36,68,39,-1151,151,78,-63
82,14,-68,-48,75,-26,68,43,-1141,156,82,-63
87,19,-68,-53,78,-24,78,48,-1137,156,82,-63
87,24,-63,-56,75,-19,78,53,-1132,161,87,-63
97,29,-68,-63,82,-19,78,58,-1127,165,87,-63
102,29,-73,-65,87,-21,82,68,-1112,165,87,-63
107,34,-73,-70,90,-19,82,78,-1107,175,97,-58
107,34,-73,-70,90,-19,82,87,-1098,185,97,-53
112,39,-73,-75,92,-17,82,97,-1088,195,97,-48
117,43,-73,-80,95,-14,82,107,-1078,204,107,-43
122,48,-73,-85,97,-12,87,122,-1063,214,112,-34
126,53,-73,-90,100,-9,92,136,-1049,219,112,-34
136,63,-73,-100,104,-4,97,151,-1034,229,122,-29
151,63,-87,-107,119,-12,102,170,-1019,244,126,-29
156,68,-87,-112,122,-9,107,185,-1005,258,136,-19
161,78,-82,-119,122,-2,112,200,-995,268,151,-9
170,87,-82,-129,126,2,117,224,-966,283,161,0
180,97,-82,-139,131,7,122,244,-946,292,175,4
200,107,-92,-153,146,7,126,268,-917,312,185,14
209,117,-92,-163,151,12,126,287,-897,326,195,19
224,131,-92,-178,158,19,131,307,-873,346,204,24
244,141,-102,-192,173,19,136,331,-863,361,219,34
258,156,-102,-207,180,26,136,351,-834,380,229,48
273,175,-97,-224,185,39,131,366,-810,409,244,48
287,190,-97,-239,192,46,131,375,-780,424,263,68
297,204,-92,-251,195,56,131,395,-771,448,283,82
307,224,-82,-265,195,70,131,409,-741,468,297,102
317,239,-78,-278,197,80,126,414,-727,483,312,117
326,253,-73,-290,200,90,131,414,-712,497,331,131
326,268,-58,-297,192,104,117,419,-712,507,346,136
322,283,-39,-302,180,122,107,400,-707,517,361,151
317,292,-24,-305,170,134,82,375,-707,527,370,165
307,302,-4,-305,156,148,68,346,-707,527,385,180
287,307,19,-297,134,163,48,302,-722,522,395,190
263,317,53,-290,104,185,34,263,-741,517,395,200
239,312,73,-275,82,192,9,209,-761,502,385,200
224,307,82,-265,70,195,0,165,-790,483,375,200
200,292,92,-246,53,192,-9,122,-819,458,356,200
170,268,97,-219,36,183,-14,82,-844,439,346,200
151,248,97,-200,26,173,-24,34,-878,409,326,175
136,229,92,-183,21,161,-29,-4,-902,380,302,161
112,209,97,-161,7,153,-34,-34,-936,356,283,141
92,195,102,-143,-4,148,-39,-63,-951,336,263,131
73,165,92,-119,-9,129,-43,-92,-980,307,239,107
63,151,87,-107,-12,119,-43,-112,-995,287,224,97
48,131,82,-90,-17,107,-43,-131,-1024,258,204,78
34,122,87,-78,-26,104,-43,-146,-1039,244,185,68
19,107,87,-63,-34,97,-43,-165,-1044,234,170,58
14,92,78,-53,-31,85,-43,-175,-1054,219,161,39
4,73,68,-39,-31,70,-43,-180,-1063,200,141,34
4,63,58,-34,-26,61,-43,-190,-1063,190,131,29
-9,53,63,-21,-36,58,-43,-200,-1073,180,117,14
-9,43,53,-17,-31,48,-43,-200,-1078,175,112,9
-14,39,53,-12,-34,46,-43,-204,-1083,165,102,0
-19,39,58,-9,-39,48,-43,-209,-1083,165,102,0
-19,29,48,-4,-34,39,-43,-214,-1083,161,92,0
-24,24,48,0,-36,36,-39,-219,-1083,161,92,0
-24,24,48,0,-36,36,-39,-224,-1083,156,87,-4
-24,19,43,2,-34,31,-39,-224,-1078,151,82,-4
-24,9,34,7,-29,21,-34,-229,-1083,146,78,-9
-29,0,29,14,-29,14,-34,-229,-1078,141,78,-14
-29,-4,24,17,-26,9,-34,-234,-1083,136,73,-9
-29,-9,19,19,-24,4,-34,-234,-1083,136,73,-9
-34,-9,24,21,-29,7,-29,-234,-1073,141,73,-9
-34,-4,29,19,-31,12,-29,-234,-1068,146,78,-9
-29,-9,19,19,-24,4,-29,-234,-1068,146,78,-9
-24,-14,9,19,-17,-2,-29,-234,-1063,146,78,-9
-29,-14,14,21,-21,0,-24,-234,-1063,146,73,-14
-29,-14,14,21,-21,0,-24,-239,-1058,141,73,-14
-29,-14,14,21,-21,0,-19,-239,-1054,141,68,-14
-29,-19,9,24,-19,-4,-19,-239,-1049,141,68,-14
-29,-19,9,24,-19,-4,-9,-239,-1039,141,68,-9
-29,-19,9,24,-19,-4,-4,-239,-1034,141,63,-9
-29,-19,9,24,-19,-4,-4,-239,-1029,141,63,-9
-29,-19,9,24,-19,-4,0,-239,-1024,141,63,-9
-29,-19,9,24,-19,-4,0,-234,-1034,141,63,-19
-29,-14,14,21,-21,0,0,-234,-1019,146,63,-19
-24,-19,4,21,-14,-7,-4,-234,-1019,146,68,-14
-24,-19,4,21,-14,-7,-9,-234,-1015,146,73,-14
-24,-24,0,24,-12,-12,-4,-229,-1010,146,73,-14
-24,-29,-4,26,-9,-17,-4,-229,-1000,146,68,-14
-24,-29,-4,26,-9,-17,-4,-229,-995,146,68,-14
-24,-29,-4,26,-9,-17,0,-229,-995,146,63,-14
-19,-29,-9,24,-4,-19,0,-229,-990,146,68,-14
-19,-29,-9,24,-4,-19,0,-229,-985,146,68,-14
-19,-29,-9,24,-4,-19,4,-224,-980,146,63,-14
-19,-29,-9,24,-4,-19,4,-224,-976,146,63,-14
-19,-29,-9,24,-4,-19,4,-229,-980,146,58,-14
-19,-29,-9,24,-4,-19,4,-229,-980,146,53,-14
-14,-29,-14,21,0,-21,0,-229,-976,141,53,-14
-14,-29,-14,21,0,-21,0,-229,-971,136,53,-14
-14,-29,-14,21,0,-21,0,-229,-966,136,43,-19
-14,-29,-14,21,0,-21,0,-229,-961,136,39,-24
-14,-34,-19,24,2,-26,0,-239,-966,126,34,-24
-14,-39,-24,26,4,-31,0,-244,-966,126,34,-24
-14,-39,-24,26,4,-31,-4,-244,-966,126,34,-24
-19,-39,-19,29,0,-29,-9,-248,-966,126,34,-24
-19,-29,-9,24,-4,-19,-9,-248,-956,126,29,-24
-19,-24,-4,21,-7,-14,-9,-248,-956,122,29,-24
-14,-24,-9,19,-2,-17,-9,-244,-956,122,24,-24
-9,-24,-14,17,2,-19,-9,-248,-951,122,19,-19
-9,-24,-14,17,2,-19,-14,-248,-946,122,19,-19
-9,-24,-14,17,2,-19,-14,-248,-941,117,19,-19
-14,-29,-14,21,0,-21,-14,-248,-941,117,14,-19
-14,-34,-19,24,2,-26,-14,-248,-941,112,14,-19
-14,-34,-19,24,2,-26,-9,-248,-941,112,9,-19
-14,-34,-19,24,2,-26,-9,-253,-941,102,4,-19
-14,-29,-14,21,0,-21,-9,-253,-936,102,0,-14
-14,-29,-14,21,0,-21,-4,-253,-932,102,0,-14
-9,-29,-19,19,4,-24,-4,-253,-927,102,0,-14
-9,-29,-19,19,4,-24,-4,-253,-922,102,0,-14
-9,-29,-19,19,4,-24,-4,-253,-917,92,0,-19
-9,-29,-19,19,4,-24,-4,-253,-912,92,0,-24
-9,-24,-14,17,2,-19,-4,-258,-917,92,-4,-24
-9,-19,-9,14,0,-14,-4,-263,-912,92,-4,-19
-4,-19,-14,12,4,-17,-4,-268,-912,92,-4,-19
-4,-19,-14,12,4,-17,-4,-268,-907,92,-4,-19
-9,-14,-4,12,-2,-9,-4,-268,-902,87,-4,-19
-9,-9,0,9,-4,-4,-4,-268,-897,87,-4,-19
-9,-9,0,9,-4,-4,-4,-268,-897,82,-4,-19
-9,-4,4,7,-7,0,-4,-268,-893,78,-4,-14
-9,-4,4,7,-7,0,-4,-268,-893,73,-4,-14
-9,-4,4,7,-7,0,-4,-268,-888,73,-4,-14
-9,-4,4,7,-7,0,-9,-268,-883,73,-4,-14
-9,-4,4,7,-7,0,-14,-268,-878,68,-4,-14
-9,-4,4,7,-7,0,-9,-268,-878,68,0,-14
-9,-4,4,7,-7,0,-9,-268,-873,68,0,-14
-9,-4,4,7,-7,0,-9,-268,-873,68,0,-14
-9,-4,4,7,-7,0,-9,-268,-873,68,4,-9
-9,-4,4,7,-7,0,-4,-263,-858,63,4,-9
-9,-9,0,9,-4,-4,0,-263,-849,58,9,-9
-9,-9,0,9,-4,-4,0,-263,-849,53,9,-9
-9,-9,0,9,-4,-4,0,-263,-849,48,9,-9
-9,-9,0,9,-4,-4,-4,-268,-844,48,9,-9
-9,-9,0,9,-4,-4,-9,-273,-839,48,9,-9
-9,-9,0,9,-4,-4,-9,-273,-839,48,14,-9
-9,-9,0,9,-4,-4,-9,-273,-839,48,19,-9
-9,-9,0,9,-4,-4,-9,-273,-834,48,19,-9
-9,-9,0,9,-4,-4,-9,-273,-829,48,19,-9
-9,-9,0,9,-4,-4,-4,-268,-824,43,19,-9
-9,-9,0,9,-4,-4,0,-263,-819,39,19,-9
-9,-9,0,9,-4,-4,0,-258,-814,39,19,-9
-9,-9,0,9,-4,-4,0,-253,-810,39,19,-9
-9,0,9,4,-9,4,0,-253,-800,39,24,-4
-9,9,19,0,-14,14,0,-253,-790,39,29,0
-4,14,19,-4,-12,17,0,-244,-780,43,29,4
0,19,19,-9,-9,19,0,-234,-771,48,29,9
0,24,24,-12,-12,24,0,-234,-766,48,34,9
0,29,29,-14,-14,29,0,-234,-761,48,39,9
4,34,29,-19,-12,31,0,-229,-756,48,39,14
9,34,24,-21,-7,29,-4,-219,-741,48,43,19
19,39,19,-29,0,29,-9,-214,-732,53,48,24
24,39,14,-31,4,26,-9,-214,-727,48,53,24
24,39,14,-31,4,26,-14,-219,-727,48,53,19
19,34,14,-26,2,24,-19,-234,-732,43,53,19
24,34,9,-29,7,21,-24,-234,-736,34,53,19
24,24,0,-24,12,12,-29,-244,-741,29,53,19
29,19,-9,-24,19,4,-34,-248,-736,24,53,19
29,19,-9,-24,19,4,-39,-258,-741,19,53,19
29,24,-4,-26,17,9,-39,-263,-736,14,53,14
29,24,-4,-26,17,9,-39,-268,-732,4,53,9
29,24,-4,-26,17,9,-39,-273,-727,0,48,9
19,14,-4,-17,12,4,-34,-278,-736,-4,39,0
19,0,-19,-9,19,-9,-34,-278,-736,-14,39,0
19,-4,-24,-7,21,-14,-34,-278,-732,-14,34,-4
19,-4,-24,-7,21,-14,-34,-278,-732,-14,34,-4
19,-9,-29,-4,24,-19,-34,-278,-732,-14,34,-4
19,-9,-29,-4,24,-19,-29,-278,-727,-24,34,-4
19,-9,-29,-4,24,-19,-19,-278,-722,-4,34,-4
14,-9,-24,-2,19,-17,-19,-268,-707,-4,39,0
9,-9,-19,0,14,-14,-14,-263,-707,0,39,0
-9,-9,0,9,-4,-4,-9,-258,-692,0,39,-4
-24,-14,9,19,-17,-2,-4,-263,-697,-4,29,-14
-29,-34,-4,31,-12,-19,0,-263,-702,-14,19,-24
-39,-39,0,39,-19,-19,4,-263,-697,-19,9,-34
-39,-48,-9,43,-14,-29,4,-263,-692,-24,4,-34
-43,-48,-4,46,-19,-26,4,-263,-688,-24,0,-39
-43,-48,-4,46,-19,-26,0,-263,-688,-19,0,-43
-43,-48,-4,46,-19,-26,0,-263,-688,-19,-4,-43
-43,-48,-4,46,-19,-26,0,-263,-683,-19,0,-39
-43,-48,-4,46,-19,-26,0,-263,-683,-19,4,-39
-43,-48,-4,46,-19,-26,0,-258,-673,-9,4,-39
-43,-48,-4,46,-19,-26,0,-258,-668,-4,4,-39
-39,-48,-9,43,-14,-29,-4,-258,-658,-4,4,-39
-39,-48,-9,43,-14,-29,-4,-253,-653,-4,4,-43
-39,-43,-4,41,-17,-24,-4,-253,-649,-9,4,-43
-39,-43,-4,41,-17,-24,-4,-248,-649,-9,9,-43
-39,-39,0,39,-19,-19,-4,-244,-639,0,9,-43
-43,-39,4,41,-24,-17,-9,-244,-634,0,9,-43
-43,-39,4,41,-24,-17,-9,-244,-624,0,9,-43
-53,-39,14,46,-34,-12,0,-239,-624,-4,9,-43
-87,-34,53,61,-70,9,4,-229,-614,-14,-9,-58
-136,-48,87,92,-112,19,39,-209,-614,-34,-48,-92
-107,9,117,48,-112,63,34,-170,-561,43,14,-48
-34,141,175,-53,-104,158,-48,-161,-405,214,190,63
78,375,297,-226,-109,336,-209,-151,-175,512,458,268
263,702,439,-483,-87,570,-400,-161,122,873,834,551
448,971,522,-710,-36,746,-570,-239,302,1137,1117,800
590,1210,619,-900,-14,915,-766,-400,400,1342,1371,1029
678,1361,683,-1019,-2,1022,-888,-522,419,1449,1507,1180
673,1317,644,-995,14,980,-956,-692,258,1346,1488,1210
531,1058,527,-795,2,793,-946,-912,-170,897,1195,1102
253,751,497,-502,-122,624,-868,-1063,-639,390,771,868
92,566,473,-329,-190,519,-766,-1117,-985,24,453,649
78,522,444,-300,-183,483,-585,-946,-961,-24,351,512
78,424,346,-251,-134,385,-385,-697,-800,43,331,439
58,278,219,-168,-80,248,-224,-453,-746,43,239,297
29,204,175,-117,-73,190,-122,-258,-658,97,200,175
14,141,126,-78,-56,134,-53,-204,-590,117,165,87
14,78,63,-46,-24,70,-9,-200,-605,92,122,48
9,4,-4,-7,7,0,14,-151,-629,68,68,0
4,-43,-48,19,26,-46,34,-112,-639,58,43,-53
-4,-29,-24,17,9,-26,43,-112,-644,48,39,-58
-9,-29,-19,19,4,-24,43,-112,-644,43,34,-58
-14,-43,-29,29,7,-36,48,-102,-653,39,29,-68
-14,-43,-29,29,7,-36,48,-102,-658,39,29,-73
-14,-53,-39,34,12,-46,53,-92,-668,39,24,-78
-14,-53,-39,34,12,-46,53,-87,-668,39,24,-73
-14,-53,-39,34,12,-46,53,-82,-673,43,24,-73
-14,-53,-39,34,12,-46,53,-78,-678,43,29,-73
-14,-53,-39,34,12,-46,58,-73,-683,43,34,-78
-14,-53,-39,34,12,-46,58,-73,-683,43,34,-78
-14,-53,-39,34,12,-46,58,-73,-683,43,34,-82
-14,-53,-39,34,12,-46,58,-68,-683,43,34,-82
-14,-53,-39,34,12,-46,58,-58,-683,43,34,-82
-14,-53,-39,34,12,-46,58,-53,-692,43,34,-82
-14,-53,-39,34,12,-46,53,-48,-697,48,34,-82
-14,-53,-39,34,12,-46,53,-43,-697,53,34,-82
-14,-48,-34,31,9,-41,53,-39,-697,63,34,-82
-14,-48,-34,31,9,-41,53,-29,-697,63,34,-78
-14,-48,-34,31,9,-41,53,-24,-697,63,34,-78
-9,-48,-39,29,14,-43,53,-19,-697,63,34,-78
-4,-48,-43,26,19,-46,53,-14,-702,68,34,-78
-4,-48,-43,26,19,-46,53,-14,-702,73,34,-82
-4,-48,-43,26,19,-46,53,-9,-697,73,34,-82
-4,-48,-43,26,19,-46,53,-9,-702,68,39,-82
-4,-48,-43,26,19,-46,53,0,-702,68,39,-82
-4,-48,-43,26,19,-46,53,0,-702,68,39,-82
-4,-43,-39,24,17,-41,48,4,-702,73,39,-82
-4,-43,-39,24,17,-41,48,4,-702,73,39,-82
0,-39,-39,19,19,-39,48,9,-702,78,39,-78
0,-39,-39,19,19,-39,48,9,-702,82,43,-78
4,-34,-39,14,21,-36,48,19,-707,82,53,-78
4,-34,-39,14,21,-36,53,19,-707,87,53,-78
14,-29,-43,7,29,-36,58,19,-707,92,53,-78
19,-29,-48,4,34,-39,58,29,-707,97,58,-73
24,-24,-48,0,36,-36,58,29,-712,102,63,-73
24,-24,-48,0,36,-36,63,34,-712,102,63,-68
29,-24,-53,-2,41,-39,63,34,-712,102,63,-68
29,-29,-58,0,43,-43,58,43,-712,112,58,-68
34,-34,-68,0,51,-51,58,48,-712,112,58,-63
34,-24,-58,-4,46,-41,58,53,-707,117,63,-58
39,-19,-58,-9,48,-39,68,58,-707,117,63,-53
39,-19,-58,-9,48,-39,68,68,-712,122,68,-53
48,-19,-68,-14,58,-43,68,78,-717,126,68,-53
53,-14,-68,-19,61,-41,73,87,-707,126,68,-53
58,-4,-63,-26,61,-34,73,97,-707,136,78,-48
58,-4,-63,-26,61,-34,78,107,-702,146,78,-48
63,0,-63,-31,63,-31,82,117,-697,156,78,-48
68,4,-63,-36,65,-29,87,131,-692,161,87,-43
73,9,-63,-41,68,-26,97,151,-683,165,92,-34
78,14,-63,-46,70,-24,102,170,-673,170,92,-34
87,24,-63,-56,75,-19,107,190,-663,180,102,-29
102,29,-73,-65,87,-21,112,214,-653,195,107,-34
107,39,-68,-73,87,-14,117,234,-644,209,117,-29
117,48,-68,-82,92,-9,122,253,-634,219,126,-19
131,58,-73,-95,102,-7,126,283,-605,234,131,-9
141,63,-78,-102,109,-7,131,307,-595,244,146,-4
161,68,-92,-114,126,-12,136,336,-575,263,156,4
165,78,-87,-122,126,-4,141,361,-556,283,165,9
175,92,-82,-134,129,4,151,385,-531,307,175,14
195,102,-92,-148,143,4,156,414,-522,322,195,24
209,117,-92,-163,151,12,156,439,-492,341,209,39
224,136,-87,-180,156,24,151,463,-473,366,224,39
239,151,-87,-195,163,31,151,483,-448,375,244,58
248,165,-82,-207,165,41,151,502,-444,400,263,68
258,185,-73,-222,165,56,151,517,-419,419,278,82
268,200,-68,-234,168,65,136,522,-409,434,292,97
278,214,-63,-246,170,75,131,522,-400,448,312,112
278,229,-48,-253,163,90,117,522,-405,458,326,117
273,244,-29,-258,151,107,107,497,-405,468,341,131
268,258,-9,-263,139,124,78,463,-409,478,346,146
258,273,14,-265,122,143,58,424,-414,478,356,161
244,278,34,-261,104,156,39,375,-439,473,366,170
224,287,63,-256,80,175,24,331,-468,468,366,180
200,287,87,-244,56,187,-4,273,-492,448,361,180
185,287,102,-236,41,195,-19,224,-527,424,356,180
161,278,117,-219,21,197,-29,175,-566,400,336,175
131,258,126,-195,2,192,-34,131,-600,380,326,170
112,239,126,-175,-7,183,-53,78,-634,351,307,151
97,219,122,-158,-12,170,-68,34,-658,322,283,141
78,200,122,-139,-21,161,-73,9,-697,297,263,122
63,185,122,-124,-29,153,-78,-14,-717,278,244,112
43,156,112,-100,-34,134,-78,-43,-746,248,219,92
34,141,107,-87,-36,124,-73,-63,-761,229,204,87
24,117,92,-70,-34,104,-73,-82,-795,204,185,68
14,102,87,-58,-36,95,-73,-97,-814,195,165,58
0,87,87,-43,-43,87,-73,-117,-824,185,151,53
-4,73,78,-34,-41,75,-73,-126,-839,170,141,39
-9,63,73,-26,-41,68,-73,-131,-854,156,126,34
-4,63,68,-29,-36,65,-73,-141,-858,151,122,29
-19,53,73,-17,-46,63,-73,-151,-868,146,112,19
-19,43,63,-12,-41,53,-73,-151,-873,146,112,19
-24,39,63,-7,-43,51,-73,-151,-883,136,102,9
-29,39,68,-4,-48,53,-73,-151,-888,136,102,9
-29,29,58,0,-43,43,-73,-156,-893,131,92,4
-34,24,58,4,-46,41,-68,-161,-897,131,92,0
-34,24,58,4,-46,41,-68,-165,-902,126,87,-4
-34,19,53,7,-43,36,-68,-165,-902,122,82,-4
-34,14,48,9,-41,31,-63,-170,-912,117,78,-9
-39,9,48,14,-43,29,-63,-170,-912,112,78,-14
-39,4,43,17,-41,24,-58,-175,-922,107,68,-14
-39,0,39,19,-39,19,-53,-175,-927,107,63,-19
-43,-4,39,24,-41,17,-48,-180,-927,107,58,-19
-43,-4,39,24,-41,17,-48,-185,-932,107,58,-19
-43,-9,34,26,-39,12,-48,-185,-936,102,58,-19
-43,-14,29,29,-36,7,-48,-185,-936,97,58,-19
-48,-14,34,31,-41,9,-48,-185,-941,97,53,-24
-48,-14,34,31,-41,9,-53,-190,-941,92,53,-24
-48,-14,34,31,-41,9,-48,-190,-946,92,48,-24
-48,-19,29,34,-39,4,-48,-190,-951,92,48,-24
-48,-19,29,34,-39,4,-39,-190,-946,92,48,-24
-48,-19,29,34,-39,4,-34,-190,-946,92,43,-29
-48,-19,29,34,-39,4,-34,-190,-946,92,43,-24
-48,-19,29,34,-39,4,-29,-190,-946,92,43,-19
-48,-24,24,36,-36,0,-29,-185,-961,87,43,-29
-48,-24,24,36,-36,0,-29,-185,-951,87,43,-29
-43,-29,14,36,-29,-7,-29,-185,-956,87,43,-24
-43,-29,14,36,-29,-7,-29,-185,-956,87,43,-24
-43,-29,14,36,-29,-7,-24,-180,-961,87,43,-24
-43,-29,14,36,-29,-7,-24,-180,-961,87,39,-24
-43,-29,14,36,-29,-7,-24,-175,-956,87,39,-24
-43,-29,14,36,-29,-7,-19,-170,-956,87,34,-24
-39,-29,9,34,-24,-9,-24,-170,-956,92,34,-24
-39,-29,9,34,-24,-9,-29,-170,-956,97,29,-24
-39,-24,14,31,-26,-4,-24,-165,-956,97,24,-24
-39,-19,19,29,-29,0,-24,-165,-956,97,24,-24
-39,-19,19,29,-29,0,-19,-170,-961,97,24,-29
-39,-19,19,29,-29,0,-14,-170,-961,97,24,-34
-29,-19,9,24,-19,-4,-19,-170,-961,97,24,-34
-24,-19,4,21,-14,-7,-19,-170,-961,97,24,-34
-24,-19,4,21,-14,-7,-19,-170,-961,97,19,-29
-24,-19,4,21,-14,-7,-19,-170,-961,97,19,-24
-29,-19,9,24,-19,-4,-14,-175,-966,87,14,-24
-34,-19,14,26,-24,-2,-9,-175,-966,87,14,-24
-29,-19,9,24,-19,-4,-9,-175,-966,87,14,-24
-29,-19,9,24,-19,-4,-9,-180,-966,87,14,-24
-29,-14,14,21,-21,0,-9,-180,-966,87,9,-24
-29,-14,14,21,-21,0,-9,-180,-976,82,9,-24
-24,-14,9,19,-17,-2,-9,-180,-980,82,4,-24
-19,-14,4,17,-12,-4,-9,-190,-980,82,0,-19
-19,-14,4,17,-12,-4,-14,-190,-980,82,0,-19
-19,-14,4,17,-12,-4,-14,-190,-980,78,0,-19
-19,-14,4,17,-12,-4,-14,-190,-980,82,-4,-19
-14,-14,0,14,-7,-7,-14,-190,-980,82,-4,-19
-19,-14,4,17,-12,-4,-9,-190,-985,82,0,-19
-24,-14,9,19,-17,-2,-9,-195,-990,73,4,-19
-24,-14,9,19,-17,-2,-14,-195,-990,73,0,-14
-24,-19,4,21,-14,-7,-14,-195,-990,73,0,-14
-19,-19,0,19,-9,-9,-14,-200,-990,73,0,-14
-19,-19,0,19,-9,-9,-14,-204,-990,73,0,-14
-19,-14,4,17,-12,-4,-19,-204,-990,58,0,-14
-19,-9,9,14,-14,0,-24,-204,-990,53,0,-14
-19,-9,9,14,-14,0,-24,-204,-1000,53,0,-14
-19,-9,9,14,-14,0,-24,-204,-1000,53,4,-9
-9,-9,0,9,-4,-4,-24,-209,-1005,53,4,-9
-4,-9,-4,7,0,-7,-24,-209,-1005,53,4,-9
-9,-9,0,9,-4,-4,-24,-209,-1005,48,4,-9
-9,-9,0,9,-4,-4,-24,-209,-1005,48,4,-9
-9,-9,0,9,-4,-4,-24,-209,-1010,48,4,-9
-9,-4,4,7,-7,0,-24,-209,-1010,48,4,-4
-9,-4,4,7,-7,0,-24,-209,-1015,43,9,-4
-9,-4,4,7,-7,0,-24,-209,-1015,43,14,-4
-4,-4,0,4,-2,-2,-24,-209,-1015,43,14,-4
0,-4,-4,2,2,-4,-24,-209,-1015,39,14,-4
0,-4,-4,2,2,-4,-19,-209,-1019,34,19,-4
0,-4,-4,2,2,-4,-19,-209,-1019,29,19,-4
-4,-4,0,4,-2,-2,-19,-209,-1019,29,19,-4
-9,-4,4,7,-7,0,-19,-209,-1019,29,24,0
-4,0,4,2,-4,2,-19,-204,-1015,29,24,0
0,0,0,0,0,0,-19,-204,-1015,29,29,0
0,0,0,0,0,0,-19,-204,-1015,24,29,0
0,0,0,0,0,0,-19,-204,-1015,19,29,0
0,0,0,0,0,0,-19,-204,-1015,19,29,-4
0,0,0,0,0,0,-19,-204,-1015,19,29,-9
0,0,0,0,0,0,-19,-204,-1015,19,29,-9
0,0,0,0,0,0,-19,-204,-1015,19,29,-9
0,-4,-4,2,2,-4,-19,-204,-1015,19,34,-4
0,-9,-9,4,4,-9,-19,-204,-1015,19,39,0
0,-9,-9,4,4,-9,-14,-200,-1015,19,39,0
0,-9,-9,4,4,-9,-9,-195,-1015,19,39,0
0,-9,-9,4,4,-9,-9,-195,-1015,14,39,0
0,-9,-9,4,4,-9,-9,-195,-1015,9,39,0
0,-4,-4,2,2,-4,-9,-195,-1015,9,43,0
0,0,0,0,0,0,-9,-195,-1015,9,48,0
4,9,4,-7,0,7,-9,-190,-1010,9,48,4
9,19,9,-14,0,14,-9,-185,-1005,9,48,9
9,24,14,-17,-2,19,-4,-175,-995,14,58,9
9,29,19,-19,-4,24,0,-165,-985,19,68,9
4,34,29,-19,-12,31,0,-165,-985,19,68,14
9,39,29,-24,-9,34,0,-161,-980,14,68,14
14,48,34,-31,-9,41,0,-156,-980,14,73,19
19,53,34,-36,-7,43,-9,-146,-971,19,78,24
24,58,34,-41,-4,46,-4,-146,-971,14,82,24
29,58,29,-43,0,43,-4,-146,-971,14,82,19
29,53,24,-41,2,39,-9,-156,-976,14,82,19
