I,II,III,aVR,aVL,aVF,V1,V2,V3,V4,V5,V6,
19,9,-9,-14,14,0,48,0,-58,-58,-117,0
19,9,-9,-14,14,0,48,0,-58,-58,-117,0
19,9,-9,-14,14,0,48,0,-58,-58,-117,0
19,9,-9,-14,14,0,29,-4,-58,-58,-117,0
19,9,-9,-14,14,0,9,-9,-58,-58,-117,0
29,24,-4,-26,17,9,-4,-19,-58,-58,-107,9
39,39,0,-39,19,19,-19,-29,-58,-58,-97,19
43,39,-4,-41,24,17,-19,-29,-58,-58,-97,19
43,43,0,-43,21,21,-24,-34,-58,-58,-97,14
48,48,0,-48,24,24,-34,-43,-63,-58,-97,14
53,58,4,-56,24,31,-48,-48,-82,-68,-97,4
58,58,0,-58,29,29,-58,-58,-82,-58,-97,24
58,43,-14,-51,36,14,-53,-53,-82,-53,-92,39
53,48,-4,-51,29,21,-48,-53,-78,-43,-82,39
53,53,0,-53,26,26,-39,-48,-73,-39,-78,34
43,53,9,-48,17,31,-29,-48,-73,-48,-87,24
29,53,24,-41,2,39,-24,-53,-73,-53,-97,14
14,29,14,-21,0,21,-19,-63,-87,-73,-112,4
4,9,4,-7,0,7,-14,-68,-102,-97,-122,-9
0,-9,-9,4,4,-9,-9,-63,-107,-87,-117,-9
-9,-43,-34,26,12,-39,-4,-73,-122,-87,-126,-14
-9,-63,-53,36,21,-58,-4,-73,-122,-97,-141,-19
-19,-82,-63,51,21,-73,0,-73,-136,-112,-161,-43
-24,-102,-78,63,26,-90,0,-78,-141,-126,-175,-58
-34,-107,-73,70,19,-90,4,-82,-146,-131,-180,-73
-39,-126,-87,82,24,-107,0,-78,-146,-141,-175,-73
-43,-126,-82,85,19,-104,-4,-82,-136,-146,-180,-73
-48,-131,-82,90,17,-107,-4,-87,-151,-156,-190,-82
-48,-131,-82,90,17,-107,-4,-87,-156,-151,-195,-87
-48,-126,-78,87,14,-102,-4,-87,-156,-151,-195,-87
-48,-131,-82,90,17,-107,0,-82,-156,-151,-195,-87
-48,-131,-82,90,17,-107,0,-82,-156,-151,-195,-78
-48,-131,-82,90,17,-107,0,-82,-156,-156,-200,-78
-53,-131,-78,92,12,-104,0,-87,-156,-156,-200,-87
-53,-126,-73,90,9,-100,4,-92,-156,-156,-200,-92
-53,-126,-73,90,9,-100,4,-92,-156,-156,-200,-92
-53,-126,-73,90,9,-100,4,-92,-161,-161,-200,-97
-53,-136,-82,95,14,-109,9,-87,-161,-161,-200,-97
-53,-151,-97,102,21,-124,14,-82,-156,-161,-200,-97
-58,-156,-97,107,19,-126,19,-82,-156,-161,-200,-92
-58,-156,-97,107,19,-126,19,-82,-156,-156,-200,-92
-58,-146,-87,102,14,-117,19,-87,-156,-156,-200,-92
-53,-131,-78,92,12,-104,14,-92,-156,-161,-200,-97
-53,-131,-78,92,12,-104,14,-92,-156,-161,-195,-92
-58,-131,-73,95,7,-102,14,-92,-156,-161,-190,-87
-58,-131,-73,95,7,-102,19,-82,-141,-151,-185,-87
-58,-131,-73,95,7,-102,19,-78,-126,-146,-175,-82
-63,-126,-63,95,0,-95,19,-73,-112,-126,-175,-82
-73,-112,-39,92,-17,-75,39,-53,-68,-107,-161,-78
-78,-102,-24,90,-26,-63,73,-14,-9,-73,-146,-68
-82,-97,-14,90,-34,-56,92,29,58,-14,-112,-53
-58,-73,-14,65,-21,-43,53,19,102,63,-39,0
14,-43,-58,14,36,-51,-29,0,161,175,73,87
102,-24,-126,-39,114,-75,-170,-82,151,278,180,190
273,48,-224,-161,248,-87,-375,-229,107,409,331,336
434,156,-278,-295,356,-61,-624,-424,14,536,492,488
595,287,-307,-441,451,-9,-941,-702,-131,644,649,663
756,409,-346,-583,551,31,-1220,-868,-234,736,795,805
917,492,-424,-705,671,34,-1454,-990,-366,775,888,917
990,512,-478,-751,734,17,-1566,-1078,-517,678,854,932
980,453,-527,-717,753,-36,-1527,-1044,-619,478,722,858
805,380,-424,-592,614,-21,-1356,-1073,-800,165,463,683
458,317,-141,-387,300,87,-1019,-1058,-902,-151,175,468
209,239,29,-224,90,134,-727,-941,-854,-283,9,297
107,165,58,-136,24,112,-517,-756,-722,-302,-73,175
63,97,34,-80,14,65,-351,-566,-561,-287,-122,87
34,34,0,-34,17,17,-224,-375,-419,-268,-165,19
-4,-34,-29,19,12,-31,-92,-200,-287,-214,-180,-34
-43,-63,-19,53,-12,-41,-9,-112,-190,-170,-165,-43
-48,-73,-24,61,-12,-48,34,-68,-136,-156,-161,-58
-48,-87,-39,68,-4,-63,48,-19,-122,-156,-170,-82
-53,-112,-58,82,2,-85,78,29,-92,-146,-185,-97
-63,-122,-58,92,-2,-90,102,34,-73,-136,-185,-97
-73,-122,-48,97,-12,-85,107,24,-73,-136,-185,-102
-73,-117,-43,95,-14,-80,107,24,-73,-136,-190,-107
-78,-122,-43,100,-17,-82,112,43,-63,-136,-190,-112
-78,-122,-43,100,-17,-82,122,58,-48,-136,-190,-117
-78,-126,-48,102,-14,-87,126,63,-39,-131,-185,-112
-78,-131,-53,104,-12,-92,136,73,-29,-131,-180,-102
-73,-131,-58,102,-7,-95,136,78,-24,-126,-180,-102
-73,-131,-58,102,-7,-95,136,82,-14,-122,-180,-102
-78,-126,-48,102,-14,-87,136,82,-9,-117,-180,-107
-82,-122,-39,102,-21,-80,136,82,-4,-117,-180,-107
-82,-122,-39,102,-21,-80,136,87,-9,-117,-180,-107
-82,-122,-39,102,-21,-80,136,92,-4,-112,-180,-107
-78,-117,-39,97,-19,-78,136,97,-4,-112,-180,-102
-73,-117,-43,95,-14,-80,141,97,0,-107,-180,-102
-78,-112,-34,95,-21,-73,141,107,14,-107,-175,-107
-78,-107,-29,92,-24,-68,146,112,19,-107,-175,-112
-82,-102,-19,92,-31,-61,146,117,24,-102,-175,-112
-87,-97,-9,92,-39,-53,151,122,29,-102,-175,-112
-87,-92,-4,90,-41,-48,151,136,39,-102,-170,-107
-87,-92,-4,90,-41,-48,161,141,58,-102,-165,-102
-87,-97,-9,92,-39,-53,165,156,68,-97,-161,-102
-87,-97,-9,92,-39,-53,170,170,78,-92,-161,-97
-87,-92,-4,90,-41,-48,175,180,87,-87,-156,-102
-87,-92,-4,90,-41,-48,185,190,97,-82,-156,-107
-87,-82,4,85,-46,-39,195,200,107,-78,-151,-102
-87,-78,9,82,-48,-34,204,209,126,-73,-151,-102
-87,-68,19,78,-53,-24,209,219,136,-68,-146,-102
-87,-58,29,73,-58,-14,219,244,146,-58,-141,-102
-87,-53,34,70,-61,-9,224,263,165,-43,-136,-97
-92,-39,53,65,-73,7,229,283,190,-29,-136,-92
-92,-43,48,68,-70,2,248,307,200,-24,-131,-87
-92,-29,63,61,-78,17,258,326,224,-9,-131,-87
-92,-29,63,61,-78,17,273,346,253,0,-131,-82
-92,-14,78,53,-85,31,283,370,278,9,-117,-82
-92,4,97,43,-95,51,297,395,302,19,-112,-73
-92,24,117,34,-104,70,312,414,326,29,-102,-68
-92,29,122,31,-107,75,322,439,341,39,-102,-68
-97,39,136,29,-117,87,341,468,366,48,-92,-63
-97,58,156,19,-126,107,346,492,395,58,-87,-68
-92,63,156,14,-124,109,361,517,414,63,-82,-63
-92,73,165,9,-129,119,370,536,434,73,-68,-53
-87,82,170,2,-129,126,380,546,444,82,-63,-48
-87,92,180,-2,-134,136,385,566,468,92,-58,-43
-87,112,200,-12,-143,156,385,580,483,97,-58,-43
-92,117,209,-12,-151,163,390,595,492,97,-43,-34
-87,126,214,-19,-151,170,390,605,497,107,-43,-34
-87,131,219,-21,-153,175,390,614,507,117,-39,-24
-82,131,214,-24,-148,173,390,614,507,117,-39,-19
-73,131,204,-29,-139,168,380,610,497,117,-34,-14
-63,136,200,-36,-131,168,366,600,488,117,-29,-9
-53,141,195,-43,-124,168,351,585,483,122,-34,-9
-48,141,190,-46,-119,165,331,551,458,122,-34,-4
-43,146,190,-51,-117,168,307,531,439,122,-29,-4
-43,146,190,-51,-117,168,283,492,409,107,-29,0
-43,136,180,-46,-112,158,258,458,375,97,-29,0
-29,126,156,-48,-92,141,229,419,341,97,-29,0
-19,117,136,-48,-78,126,200,375,307,87,-34,4
-9,112,122,-51,-65,117,175,317,263,73,-39,4
-4,102,107,-48,-56,104,146,268,219,53,-39,4
-4,87,92,-41,-48,90,117,214,180,48,-39,0
-4,68,73,-31,-39,70,102,180,146,34,-43,-4
-4,48,53,-21,-29,51,97,146,117,24,-53,-4
-9,34,43,-12,-26,39,73,102,78,14,-53,-19
-14,29,43,-7,-29,36,48,63,53,0,-68,-39
-14,9,24,2,-19,17,48,48,34,-9,-73,-29
-14,0,14,7,-14,7,39,34,14,-19,-78,-29
-19,-14,4,17,-12,-4,29,4,-4,-24,-82,-24
-19,-24,-4,21,-7,-14,19,-19,-19,-24,-82,-19
-19,-34,-14,26,-2,-24,14,-24,-24,-29,-82,-29
-24,-34,-9,29,-7,-21,14,-29,-34,-34,-87,-39
-24,-48,-24,36,0,-36,9,-34,-43,-39,-87,-43
-24,-58,-34,41,4,-46,4,-39,-48,-39,-92,-48
-24,-53,-29,39,2,-41,4,-48,-53,-39,-92,-48
-24,-53,-29,39,2,-41,4,-48,-58,-39,-92,-53
-29,-58,-29,43,0,-43,0,-53,-58,-39,-97,-53
-29,-58,-29,43,0,-43,0,-53,-58,-48,-97,-53
-34,-58,-24,46,-4,-41,0,-53,-58,-48,-92,-53
-34,-58,-24,46,-4,-41,0,-53,-58,-48,-87,-58
-29,-63,-34,46,2,-48,0,-48,-53,-48,-92,-53
-24,-63,-39,43,7,-51,0,-43,-48,-48,-92,-48
-24,-53,-29,39,2,-41,-4,-48,-53,-43,-92,-48
-24,-48,-24,36,0,-36,-4,-48,-53,-39,-92,-48
-24,-48,-24,36,0,-36,-4,-48,-48,-39,-87,-48
-29,-48,-19,39,-4,-34,-4,-43,-53,-39,-87,-53
-29,-48,-19,39,-4,-34,-4,-39,-48,-39,-82,-48
-29,-43,-14,36,-7,-29,0,-39,-48,-39,-82,-48
-24,-43,-19,34,-2,-31,0,-39,-43,-39,-82,-48
-19,-43,-24,31,2,-34,0,-39,-43,-39,-82,-48
-19,-43,-24,31,2,-34,4,-39,-43,-34,-78,-48
-19,-43,-24,31,2,-34,4,-39,-43,-29,-73,-48
-19,-43,-24,31,2,-34,0,-39,-43,-29,-73,-48
-19,-39,-19,29,0,-29,0,-34,-43,-24,-68,-48
-24,-39,-14,31,-4,-26,4,-34,-39,-24,-68,-53
-24,-34,-9,29,-7,-21,4,-29,-34,-24,-68,-53
-24,-34,-9,29,-7,-21,9,-24,-24,-19,-68,-53
-29,-34,-4,31,-12,-19,9,-19,-24,-19,-68,-53
-29,-34,-4,31,-12,-19,14,-19,-19,-14,-63,-53
-34,-34,0,34,-17,-17,14,-19,-9,-14,-63,-53
-29,-34,-4,31,-12,-19,14,-19,-9,-14,-63,-53
-24,-34,-9,29,-7,-21,14,-19,-9,-14,-58,-53
-24,-29,-4,26,-9,-17,19,-9,-9,-9,-58,-48
-24,-24,0,24,-12,-12,19,-9,-9,-4,-58,-48
-24,-34,-9,29,-7,-21,19,-9,-14,-4,-58,-48
-29,-39,-9,34,-9,-24,19,-9,-19,-4,-58,-48
-34,-34,0,34,-17,-17,24,-9,-19,-4,-68,-53
-39,-34,4,36,-21,-14,29,-9,-19,-4,-73,-63
-39,-43,-4,41,-17,-24,29,-14,-19,-9,-73,-63
-39,-43,-4,41,-17,-24,29,-14,-19,-9,-73,-68
-34,-39,-4,36,-14,-21,24,-19,-19,-9,-73,-63
-29,-39,-9,34,-9,-24,19,-24,-24,-9,-68,-58
-29,-39,-9,34,-9,-24,19,-24,-29,-14,-68,-58
-29,-43,-14,36,-7,-29,19,-29,-29,-14,-68,-58
-29,-39,-9,34,-9,-24,19,-29,-29,-24,-78,-63
-29,-29,0,29,-14,-14,14,-29,-34,-29,-82,-68
-29,-39,-9,34,-9,-24,14,-34,-34,-29,-82,-68
-29,-48,-19,39,-4,-34,14,-39,-39,-29,-87,-73
-34,-58,-24,46,-4,-41,14,-39,-39,-34,-82,-68
-34,-68,-34,51,0,-51,14,-39,-39,-34,-82,-68
-34,-68,-34,51,0,-51,14,-43,-43,-39,-82,-68
-34,-58,-24,46,-4,-41,14,-48,-48,-39,-82,-68
-34,-58,-24,46,-4,-41,14,-48,-48,-39,-82,-73
-34,-58,-24,46,-4,-41,9,-53,-48,-43,-82,-78
-34,-58,-24,46,-4,-41,4,-53,-53,-39,-82,-78
-34,-58,-24,46,-4,-41,0,-53,-53,-34,-87,-78
-34,-58,-24,46,-4,-41,0,-53,-53,-39,-87,-82
-39,-58,-19,48,-9,-39,0,-53,-58,-39,-87,-82
-39,-58,-19,48,-9,-39,4,-63,-58,-39,-92,-82
-39,-58,-19,48,-9,-39,4,-63,-63,-43,-92,-82
-39,-58,-19,48,-9,-39,4,-63,-63,-43,-92,-82
-34,-58,-24,46,-4,-41,4,-63,-63,-48,-92,-78
-34,-63,-29,48,-2,-46,9,-63,-63,-48,-92,-78
-34,-63,-29,48,-2,-46,9,-63,-68,-48,-92,-78
-34,-63,-29,48,-2,-46,9,-68,-63,-48,-87,-78
-34,-63,-29,48,-2,-46,4,-68,-63,-48,-82,-78
-34,-63,-29,48,-2,-46,4,-68,-63,-48,-82,-78
-34,-63,-29,48,-2,-46,4,-68,-63,-48,-82,-78
-39,-63,-24,51,-7,-43,9,-63,-63,-48,-82,-78
-43,-63,-19,53,-12,-41,9,-58,-63,-48,-87,-78
-43,-63,-19,53,-12,-41,9,-63,-63,-53,-87,-78
-43,-63,-19,53,-12,-41,4,-63,-63,-53,-87,-78
-43,-58,-14,51,-14,-36,4,-63,-63,-53,-87,-82
-43,-53,-9,48,-17,-31,4,-63,-63,-53,-87,-87
-39,-63,-24,51,-7,-43,4,-63,-68,-48,-87,-82
-39,-63,-24,51,-7,-43,4,-63,-68,-43,-82,-78
-43,-68,-24,56,-9,-46,4,-63,-63,-43,-82,-73
-43,-78,-34,61,-4,-56,4,-63,-63,-43,-87,-73
-48,-78,-29,63,-9,-53,9,-63,-68,-43,-87,-73
-48,-73,-24,61,-12,-48,9,-63,-68,-43,-87,-73
-48,-68,-19,58,-14,-43,4,-68,-73,-48,-87,-78
-48,-68,-19,58,-14,-43,4,-68,-73,-48,-82,-82
-48,-63,-14,56,-17,-39,4,-68,-73,-48,-87,-82
-48,-53,-4,51,-21,-29,0,-68,-73,-48,-92,-82
-48,-53,-4,51,-21,-29,-4,-68,-73,-53,-92,-82
-43,-53,-9,48,-17,-31,-4,-68,-73,-53,-87,-82
-43,-68,-24,56,-9,-46,0,-63,-78,-53,-92,-82
-43,-73,-29,58,-7,-51,0,-63,-82,-53,-87,-82
-48,-68,-19,58,-14,-43,0,-68,-78,-48,-87,-87
-53,-73,-19,63,-17,-46,0,-68,-73,-43,-92,-87
-48,-68,-19,58,-14,-43,0,-73,-73,-48,-92,-87
-43,-63,-19,53,-12,-41,4,-78,-73,-43,-92,-87
-48,-63,-14,56,-17,-39,4,-78,-73,-48,-92,-87
-48,-68,-19,58,-14,-43,4,-73,-78,-48,-87,-78
-48,-78,-29,63,-9,-53,0,-73,-78,-53,-82,-82
-43,-73,-29,58,-7,-51,-4,-73,-73,-48,-78,-82
-43,-68,-24,56,-9,-46,0,-68,-68,-43,-78,-82
-48,-63,-14,56,-17,-39,0,-63,-68,-43,-82,-82
-43,-58,-14,51,-14,-36,0,-63,-78,-43,-82,-82
-39,-58,-19,48,-9,-39,0,-68,-87,-48,-87,-87
-39,-58,-19,48,-9,-39,0,-73,-87,-48,-87,-87
-39,-58,-19,48,-9,-39,0,-78,-87,-48,-87,-87
-43,-58,-14,51,-14,-36,0,-78,-87,-48,-87,-87
-48,-58,-9,53,-19,-34,0,-78,-87,-48,-87,-87
-48,-63,-14,56,-17,-39,0,-73,-82,-48,-82,-87
-48,-68,-19,58,-14,-43,0,-68,-78,-48,-78,-87
-48,-73,-24,61,-12,-48,0,-68,-78,-48,-78,-82
-48,-78,-29,63,-9,-53,0,-68,-78,-48,-78,-78
-48,-78,-29,63,-9,-53,0,-68,-78,-48,-78,-78
-48,-78,-29,63,-9,-53,0,-68,-78,-48,-78,-78
-48,-73,-24,61,-12,-48,0,-68,-78,-48,-78,-82
-48,-68,-19,58,-14,-43,0,-68,-78,-48,-78,-87
-48,-68,-19,58,-14,-43,-4,-68,-78,-48,-78,-87
-48,-68,-19,58,-14,-43,-9,-68,-78,-48,-78,-87
-48,-68,-19,58,-14,-43,-9,-68,-78,-48,-82,-87
-48,-68,-19,58,-14,-43,-9,-68,-78,-48,-87,-87
-48,-68,-19,58,-14,-43,-4,-68,-78,-48,-87,-87
-48,-68,-19,58,-14,-43,0,-68,-78,-48,-87,-87
-48,-68,-19,58,-14,-43,0,-68,-78,-43,-87,-87
-48,-68,-19,58,-14,-43,0,-68,-78,-39,-87,-87
-48,-68,-19,58,-14,-43,0,-68,-78,-39,-87,-87
-48,-68,-19,58,-14,-43,0,-68,-78,-39,-87,-87
-43,-58,-14,51,-14,-36,0,-68,-73,-34,-87,-87
-39,-48,-9,43,-14,-29,0,-68,-68,-29,-87,-87
-34,-29,4,31,-19,-12,9,-58,-58,-24,-78,-78
-29,-9,19,19,-24,4,19,-48,-48,-19,-68,-68
-24,-9,14,17,-19,2,24,-39,-43,-14,-63,-53
-19,-9,9,14,-14,0,29,-29,-39,-9,-58,-39
-14,-4,9,9,-12,2,34,-19,-29,4,-43,-39
-9,0,9,4,-9,4,39,-9,-19,19,-29,-39
-4,9,14,-2,-9,12,39,-4,-9,24,-24,-39
0,19,19,-9,-9,19,39,0,0,29,-19,-39
9,24,14,-17,-2,19,39,4,0,34,-19,-39
19,29,9,-24,4,19,39,9,0,39,-19,-39
19,39,19,-29,0,29,24,4,9,39,-19,-39
19,48,29,-34,-4,39,0,-4,0,34,-14,-34
24,58,34,-41,-4,46,-19,-19,-4,34,-14,-29
29,58,29,-43,0,43,-43,-48,-24,29,-19,-24
29,39,9,-34,9,24,-63,-73,-43,14,-24,-24
29,29,0,-29,14,14,-73,-82,-43,14,-24,-19
39,24,-14,-31,26,4,-73,-78,-43,9,-29,-24
43,24,-19,-34,31,2,-68,-73,-43,9,-29,-24
39,24,-14,-31,26,4,-63,-73,-48,9,-29,-24
24,29,4,-26,9,17,-53,-73,-48,9,-29,-19
14,43,29,-29,-7,36,-43,-68,-43,9,-24,-14
9,48,39,-29,-14,43,-34,-53,-34,19,-9,-4
0,39,39,-19,-19,39,-24,-53,-29,29,-4,0
0,24,24,-12,-12,24,-24,-53,-24,29,-14,0
-9,14,24,-2,-17,19,-19,-53,-39,14,-34,-24
-19,-4,14,12,-17,4,-19,-63,-48,0,-53,-39
-34,-29,4,31,-19,-12,-14,-73,-58,-4,-63,-58
-43,-63,-19,53,-12,-41,-14,-73,-68,-14,-63,-68
-53,-73,-19,63,-17,-46,-9,-82,-68,-19,-73,-73
-58,-82,-24,70,-17,-53,-4,-87,-82,-34,-82,-82
-58,-82,-24,70,-17,-53,-4,-87,-87,-39,-92,-87
-58,-82,-24,70,-17,-53,-4,-87,-87,-43,-97,-87
-58,-92,-34,75,-12,-63,-4,-87,-92,-43,-97,-87
-58,-92,-34,75,-12,-63,-9,-92,-97,-43,-97,-87
-58,-87,-29,73,-14,-58,-9,-92,-97,-53,-102,-102
-63,-87,-24,75,-19,-56,-9,-92,-97,-58,-102,-107
-63,-87,-24,75,-19,-56,-4,-92,-97,-58,-107,-102
-63,-87,-24,75,-19,-56,-4,-92,-97,-58,-112,-102
-63,-97,-34,80,-14,-65,-4,-92,-102,-63,-112,-107
-63,-107,-43,85,-9,-75,-4,-92,-102,-63,-112,-107
-63,-112,-48,87,-7,-80,-4,-87,-97,-63,-112,-107
-68,-117,-48,92,-9,-82,0,-82,-97,-63,-112,-102
-68,-112,-43,90,-12,-78,0,-82,-97,-58,-112,-102
-68,-107,-39,87,-14,-73,0,-82,-97,-58,-112,-102
-63,-102,-39,82,-12,-70,-4,-87,-97,-63,-112,-107
-63,-102,-39,82,-12,-70,-4,-92,-97,-63,-112,-107
-68,-102,-34,85,-17,-68,-4,-92,-97,-68,-112,-107
-68,-102,-34,85,-17,-68,0,-87,-92,-68,-112,-107
-68,-107,-39,87,-14,-73,0,-92,-97,-73,-107,-102
-73,-112,-39,92,-17,-75,0,-92,-92,-63,-107,-102
-82,-102,-19,92,-31,-61,9,-73,-53,-53,-102,-97
-92,-92,0,92,-46,-46,43,-29,0,-29,-102,-92
-112,-78,34,95,-73,-21,92,24,68,14,-82,-97
-107,-48,58,78,-82,4,87,29,117,73,-34,-68
-73,-39,34,56,-53,-2,53,43,204,175,58,0
-14,-39,-24,26,4,-31,-43,0,229,268,146,73
146,14,-131,-80,139,-58,-214,-92,214,390,273,185
307,107,-200,-207,253,-46,-439,-268,141,507,424,322
463,239,-224,-351,344,7,-756,-585,-4,629,610,522
634,370,-263,-502,448,53,-1068,-790,-107,766,800,712
858,502,-356,-680,607,73,-1395,-951,-229,888,961,897
1005,580,-424,-793,714,78,-1615,-1093,-380,888,1015,985
1132,531,-600,-832,866,-34,-1698,-1078,-473,766,976,985
1058,453,-605,-756,832,-75,-1610,-1093,-639,497,785,863
678,395,-283,-536,480,56,-1273,-1132,-829,82,434,605
351,317,-34,-334,192,141,-946,-1078,-878,-161,180,385
170,244,73,-207,48,158,-688,-927,-766,-219,63,253
87,165,78,-126,4,122,-488,-736,-610,-229,-4,151
53,87,34,-70,9,61,-351,-507,-468,-224,-63,68
14,14,0,-14,7,7,-195,-292,-322,-185,-97,-4
-34,-14,19,24,-26,2,-63,-165,-185,-126,-87,-24
-53,-34,19,43,-36,-7,4,-107,-107,-97,-87,-39
-58,-58,0,58,-29,-29,19,-48,-92,-97,-102,-73
-63,-82,-19,73,-21,-51,53,19,-58,-92,-117,-97
-68,-92,-24,80,-21,-58,87,34,-29,-87,-117,-97
-73,-97,-24,85,-24,-61,97,24,-24,-87,-117,-102
-73,-97,-24,85,-24,-61,97,24,-24,-87,-122,-107
-78,-102,-24,90,-26,-63,102,43,-19,-87,-122,-112
-82,-102,-19,92,-31,-61,117,58,-9,-87,-126,-117
-87,-102,-14,95,-36,-58,122,58,-4,-82,-131,-117
-87,-102,-14,95,-36,-58,126,63,0,-82,-131,-112
-82,-102,-19,92,-31,-61,126,68,0,-82,-131,-112
-82,-102,-19,92,-31,-61,122,73,4,-82,-131,-107
-82,-102,-19,92,-31,-61,122,78,9,-78,-131,-107
-82,-102,-19,92,-31,-61,126,82,14,-78,-131,-107
-82,-102,-19,92,-31,-61,126,87,14,-78,-131,-107
-82,-102,-19,92,-31,-61,131,92,24,-73,-131,-107
-82,-97,-14,90,-34,-56,136,97,24,-73,-131,-102
-82,-97,-14,90,-34,-56,141,97,29,-73,-131,-102
-87,-92,-4,90,-41,-48,141,107,39,-78,-126,-102
-87,-87,0,87,-43,-43,141,112,39,-78,-126,-102
-87,-87,0,87,-43,-43,136,117,43,-73,-126,-102
-87,-87,0,87,-43,-43,141,122,48,-68,-126,-102
-87,-82,4,85,-46,-39,141,136,53,-63,-126,-102
-87,-82,4,85,-46,-39,151,136,63,-63,-126,-102
-87,-82,4,85,-46,-39,156,141,68,-58,-122,-102
-87,-78,9,82,-48,-34,156,151,78,-58,-122,-102
-87,-73,14,80,-51,-29,151,161,87,-58,-117,-107
-87,-73,14,80,-51,-29,156,170,97,-53,-117,-107
-87,-63,24,75,-56,-19,165,185,107,-48,-112,-102
-87,-68,19,78,-53,-24,180,200,126,-43,-112,-97
-87,-73,14,80,-51,-29,190,209,136,-39,-107,-92
-87,-68,19,78,-53,-24,200,229,146,-29,-102,-92
-87,-63,24,75,-56,-19,204,239,161,-24,-97,-87
-92,-43,48,68,-70,2,209,253,180,-19,-97,-87
-92,-39,53,65,-73,7,229,278,190,-14,-92,-87
-92,-14,78,53,-85,31,234,297,214,0,-92,-87
-92,-9,82,51,-87,36,244,317,239,9,-92,-82
-92,4,97,43,-95,51,253,336,253,19,-78,-82
-92,19,112,36,-102,65,268,356,273,29,-73,-73
-92,29,122,31,-107,75,283,375,297,39,-63,-68
-92,29,122,31,-107,75,292,405,317,48,-63,-68
-97,39,136,29,-117,87,312,434,346,53,-58,-63
-97,58,156,19,-126,107,317,453,375,63,-58,-63
-92,63,156,14,-124,109,331,478,395,73,-53,-53
-92,78,170,7,-131,124,341,507,419,82,-39,-43
-92,92,185,0,-139,139,356,527,434,87,-34,-43
-97,102,200,-2,-148,151,370,551,458,97,-29,-43
-97,122,219,-12,-158,170,375,570,473,107,-29,-43
-97,126,224,-14,-161,175,380,585,488,107,-14,-34
-82,136,219,-26,-151,178,380,590,492,117,-9,-34
-78,146,224,-34,-151,185,380,600,497,126,0,-24
-73,151,224,-39,-148,187,380,605,497,126,0,-19
-68,151,219,-41,-143,185,375,610,497,126,4,-14
-63,161,224,-48,-143,192,366,614,497,126,9,-9
-53,170,224,-58,-139,197,356,614,497,131,9,-9
-48,170,219,-61,-134,195,341,590,483,136,14,0
-39,175,214,-68,-126,195,322,575,473,141,19,4
-34,175,209,-70,-122,192,302,551,458,126,19,14
-34,165,200,-65,-117,183,283,527,434,117,19,19
-19,161,180,-70,-100,170,258,492,400,122,19,19
-14,156,170,-70,-92,163,229,453,370,117,14,24
-9,151,161,-70,-85,156,204,395,331,107,14,24
-4,141,146,-68,-75,143,175,346,287,92,14,24
0,131,131,-65,-65,131,146,292,248,87,14,19
9,117,107,-63,-48,112,122,248,209,68,14,14
14,97,82,-56,-34,90,107,209,175,53,4,14
14,82,68,-48,-26,75,82,165,136,43,4,9
14,73,58,-43,-21,65,58,126,112,29,-9,0
14,48,34,-31,-9,41,48,102,82,19,-14,0
14,39,24,-26,-4,31,29,73,53,9,-19,-4
9,24,14,-17,-2,19,19,43,29,4,-24,0
9,9,0,-9,4,4,9,19,9,4,-24,4
9,-4,-14,-2,12,-9,4,4,4,-9,-29,0
4,-4,-9,0,7,-7,4,-14,-9,-24,-39,-9
0,-19,-19,9,9,-19,0,-29,-29,-29,-39,-9
-4,-29,-24,17,9,-26,-4,-39,-39,-29,-43,-9
-4,-29,-24,17,9,-26,-4,-48,-43,-29,-43,-9
-4,-34,-29,19,12,-31,-4,-48,-48,-29,-43,-14
-9,-39,-29,24,9,-34,-9,-53,-53,-29,-48,-14
-4,-39,-34,21,14,-36,-9,-58,-58,-39,-48,-19
-4,-39,-34,21,14,-36,-9,-63,-58,-39,-48,-24
-4,-39,-34,21,14,-36,-9,-63,-58,-39,-43,-29
-4,-43,-39,24,17,-41,-9,-63,-58,-39,-43,-29
-4,-43,-39,24,17,-41,-9,-58,-58,-39,-43,-29
-4,-39,-34,21,14,-36,-14,-58,-63,-39,-43,-29
-4,-39,-34,21,14,-36,-14,-58,-63,-39,-43,-34
0,-39,-39,19,19,-39,-14,-58,-53,-39,-39,-34
-4,-39,-34,21,14,-36,-14,-58,-53,-39,-39,-34
-9,-39,-29,24,9,-34,-14,-58,-48,-34,-34,-29
-9,-34,-24,21,7,-29,-9,-58,-48,-34,-34,-29
-9,-34,-24,21,7,-29,-9,-58,-43,-39,-34,-29
-14,-34,-19,24,2,-26,-9,-53,-39,-39,-34,-29
-19,-34,-14,26,-2,-24,-4,-48,-34,-39,-34,-29
-19,-34,-14,26,-2,-24,-4,-48,-34,-39,-34,-29
-19,-34,-14,26,-2,-24,-9,-48,-34,-39,-34,-29
-14,-29,-14,21,0,-21,-9,-43,-34,-34,-29,-29
-9,-29,-19,19,4,-24,-4,-43,-29,-34,-29,-29
-4,-24,-19,14,7,-21,-4,-43,-29,-34,-29,-24
-4,-24,-19,14,7,-21,0,-43,-24,-29,-29,-24
-14,-29,-14,21,0,-21,0,-39,-24,-24,-29,-24
-19,-34,-14,26,-2,-24,4,-39,-24,-14,-24,-24
-24,-34,-9,29,-7,-21,4,-39,-19,-14,-24,-24
-24,-34,-9,29,-7,-21,4,-39,-19,-14,-24,-24
-24,-29,-4,26,-9,-17,4,-39,-19,-14,-19,-29
-24,-29,-4,26,-9,-17,9,-29,-19,-14,-19,-29
-24,-34,-9,29,-7,-21,9,-29,-19,-14,-19,-29
-24,-34,-9,29,-7,-21,9,-29,-19,-14,-19,-29
-29,-29,0,29,-14,-14,9,-29,-19,-14,-19,-29
-29,-24,4,26,-17,-9,9,-29,-19,-14,-24,-29
-29,-24,4,26,-17,-9,9,-29,-19,-14,-24,-34
-29,-34,-4,31,-12,-19,9,-34,-19,-19,-24,-34
-29,-39,-9,34,-9,-24,9,-34,-19,-19,-24,-39
-29,-39,-9,34,-9,-24,9,-34,-19,-19,-29,-39
-29,-39,-9,34,-9,-24,14,-34,-19,-19,-29,-39
-29,-39,-9,34,-9,-24,19,-34,-19,-24,-29,-39
-29,-43,-14,36,-7,-29,19,-39,-19,-24,-29,-39
-29,-48,-19,39,-4,-34,19,-39,-19,-29,-34,-39
-29,-48,-19,39,-4,-34,9,-39,-24,-29,-34,-39
-29,-48,-19,39,-4,-34,4,-43,-24,-29,-34,-39
-29,-48,-19,39,-4,-34,4,-48,-29,-29,-34,-43
-34,-48,-14,41,-9,-31,4,-48,-29,-34,-29,-43
-34,-48,-14,41,-9,-31,4,-48,-29,-34,-34,-48
-34,-58,-24,46,-4,-41,4,-53,-34,-39,-34,-48
-39,-53,-14,46,-12,-34,4,-63,-43,-39,-39,-53
-43,-48,-4,46,-19,-26,4,-68,-48,-39,-43,-58
-43,-48,-4,46,-19,-26,0,-73,-48,-43,-43,-58
-43,-48,-4,46,-19,-26,0,-73,-53,-43,-43,-58
-39,-48,-9,43,-14,-29,0,-68,-48,-43,-48,-58
-34,-48,-14,41,-9,-31,0,-63,-43,-48,-48,-63
-39,-48,-9,43,-14,-29,0,-63,-48,-48,-43,-63
-39,-48,-9,43,-14,-29,0,-73,-48,-48,-43,-63
-34,-48,-14,41,-9,-31,-4,-78,-58,-53,-43,-58
-34,-48,-14,41,-9,-31,-4,-82,-63,-53,-43,-58
-34,-53,-19,43,-7,-36,-4,-82,-63,-58,-43,-58
-34,-63,-29,48,-2,-46,0,-82,-63,-58,-43,-58
-34,-63,-29,48,-2,-46,0,-78,-68,-58,-48,-63
-34,-63,-29,48,-2,-46,0,-78,-68,-58,-53,-68
-34,-63,-29,48,-2,-46,-4,-78,-73,-58,-53,-68
-34,-63,-29,48,-2,-46,-4,-78,-73,-58,-53,-68
-39,-63,-24,51,-7,-43,-4,-78,-73,-58,-53,-68
-43,-63,-19,53,-12,-41,0,-78,-73,-58,-53,-68
-43,-63,-19,53,-12,-41,0,-78,-73,-58,-58,-68
-43,-63,-19,53,-12,-41,0,-82,-73,-63,-58,-68
-43,-58,-14,51,-14,-36,-4,-87,-73,-63,-58,-68
-43,-53,-9,48,-17,-31,-4,-92,-73,-63,-58,-73
-43,-53,-9,48,-17,-31,-4,-92,-73,-63,-58,-78
-39,-63,-24,51,-7,-43,-4,-92,-78,-63,-58,-78
-39,-63,-24,51,-7,-43,-4,-92,-78,-63,-53,-73
-43,-58,-14,51,-14,-36,-4,-92,-73,-63,-53,-63
-43,-58,-14,51,-14,-36,-4,-92,-73,-63,-53,-63
-43,-58,-14,51,-14,-36,0,-92,-78,-63,-48,-63
-39,-58,-19,48,-9,-39,0,-92,-78,-63,-48,-63
-39,-63,-24,51,-7,-43,-4,-92,-78,-63,-48,-63
-39,-68,-29,53,-4,-48,-4,-87,-73,-58,-43,-63
-39,-68,-29,53,-4,-48,0,-87,-73,-58,-43,-63
-39,-63,-24,51,-7,-43,0,-87,-73,-58,-48,-63
-39,-63,-24,51,-7,-43,-4,-87,-73,-58,-53,-63
-39,-63,-24,51,-7,-43,-9,-87,-73,-53,-48,-63
-43,-63,-19,53,-12,-41,-9,-82,-73,-53,-48,-63
-43,-63,-19,53,-12,-41,-9,-87,-78,-53,-43,-63
-43,-63,-19,53,-12,-41,-9,-92,-73,-48,-43,-63
-43,-68,-24,56,-9,-46,-9,-87,-68,-53,-43,-63
-39,-68,-29,53,-4,-48,-9,-87,-73,-63,-43,-68
-39,-68,-29,53,-4,-48,-4,-87,-73,-58,-43,-73
-43,-68,-24,56,-9,-46,-4,-87,-68,-63,-48,-78
-39,-68,-29,53,-4,-48,-4,-87,-68,-63,-53,-68
-39,-68,-29,53,-4,-48,-4,-92,-68,-68,-53,-68
-43,-68,-24,56,-9,-46,-4,-92,-73,-58,-53,-68
-39,-68,-29,53,-4,-48,-4,-92,-68,-58,-48,-63
-34,-63,-29,48,-2,-46,-4,-87,-73,-58,-48,-63
-29,-58,-29,43,0,-43,-9,-87,-78,-58,-48,-68
-29,-58,-29,43,0,-43,-9,-87,-82,-63,-48,-68
-29,-58,-29,43,0,-43,-9,-87,-87,-68,-48,-68
-34,-63,-29,48,-2,-46,-9,-87,-87,-68,-48,-68
-39,-68,-29,53,-4,-48,-9,-87,-87,-68,-48,-68
-43,-73,-29,58,-7,-51,-4,-87,-82,-63,-48,-68
-48,-78,-29,63,-9,-53,0,-87,-78,-58,-48,-68
-48,-78,-29,63,-9,-53,0,-87,-78,-58,-48,-68
-48,-78,-29,63,-9,-53,0,-87,-78,-58,-48,-68
-43,-73,-29,58,-7,-51,0,-87,-78,-58,-43,-68
-39,-68,-29,53,-4,-48,0,-87,-78,-58,-39,-68
-39,-58,-19,48,-9,-39,0,-82,-73,-53,-39,-63
-39,-48,-9,43,-14,-29,0,-78,-68,-48,-39,-58
-29,-39,-9,34,-9,-24,9,-68,-63,-39,-29,-53
-19,-29,-9,24,-4,-19,19,-58,-58,-29,-19,-48
-14,-19,-4,17,-4,-12,24,-48,-39,-19,-9,-43
-9,-9,0,9,-4,-4,29,-39,-19,-9,0,-39
-9,0,9,4,-9,4,34,-34,-19,-9,0,-34
-9,9,19,0,-14,14,39,-29,-19,-9,0,-29
0,9,9,-4,-4,9,39,-19,-14,-4,9,-24
9,9,0,-9,4,4,39,-9,-9,0,19,-19
19,14,-4,-17,12,4,39,-4,0,4,24,-14
29,19,-9,-24,19,4,39,0,9,9,29,-9
29,24,-4,-26,17,9,24,-4,14,19,29,-9
29,34,4,-31,12,19,0,-14,4,19,29,-4
34,43,9,-39,12,26,-19,-29,-4,19,29,-4
39,48,9,-43,14,29,-43,-58,-24,9,19,-4
39,34,-4,-36,21,14,-63,-87,-53,-4,14,-9
39,29,-9,-34,24,9,-73,-102,-63,-4,14,-9
43,19,-24,-31,34,-2,-78,-97,-63,-9,9,-14
43,14,-29,-29,36,-7,-78,-92,-63,-9,9,-14
43,14,-29,-29,36,-7,-73,-92,-68,-9,9,-14
34,19,-14,-26,24,2,-63,-92,-68,-9,9,-9
24,43,19,-34,2,31,-53,-97,-63,-9,14,-9
19,58,39,-39,-9,48,-43,-92,-53,0,29,-4
14,48,34,-31,-9,41,-34,-78,-39,14,39,4
19,34,14,-26,2,24,-34,-63,-24,19,34,9
9,14,4,-12,2,9,-24,-58,-39,4,14,-14
0,-14,-14,7,7,-14,-19,-63,-48,-9,-4,-29
-19,-39,-19,29,0,-29,-14,-73,-53,-19,-14,-43
-34,-73,-39,53,2,-56,-14,-73,-58,-34,-14,-48
-43,-78,-34,61,-4,-56,-14,-82,-58,-39,-24,-53
-48,-82,-34,65,-7,-58,-14,-87,-73,-53,-34,-63
-53,-82,-29,68,-12,-56,-14,-92,-82,-53,-43,-78
-58,-82,-24,70,-17,-53,-14,-97,-87,-53,-48,-87
-58,-92,-34,75,-12,-63,-9,-92,-87,-53,-48,-87
-58,-92,-34,75,-12,-63,-9,-92,-87,-53,-48,-87
-58,-92,-34,75,-12,-63,-9,-97,-92,-63,-53,-97
-63,-97,-34,80,-14,-65,-9,-102,-97,-68,-53,-97
-63,-97,-34,80,-14,-65,-4,-102,-97,-68,-53,-92
-63,-97,-34,80,-14,-65,-4,-102,-97,-68,-53,-92
-63,-97,-34,80,-14,-65,-4,-97,-102,-73,-53,-97
-63,-97,-34,80,-14,-65,-4,-92,-102,-73,-53,-97
-63,-102,-39,82,-12,-70,-4,-92,-97,-73,-53,-97
-68,-107,-39,87,-14,-73,0,-92,-97,-73,-53,-92
-68,-107,-39,87,-14,-73,0,-92,-97,-68,-53,-92
-68,-107,-39,87,-14,-73,0,-92,-97,-68,-53,-92
-63,-102,-39,82,-12,-70,-4,-92,-92,-68,-53,-97
-63,-102,-39,82,-12,-70,-4,-92,-87,-63,-53,-97
-68,-102,-34,85,-17,-68,-9,-97,-87,-63,-53,-102
-68,-102,-34,85,-17,-68,-9,-97,-82,-58,-53,-107
-68,-107,-39,87,-14,-73,-9,-97,-87,-63,-48,-102
-73,-112,-39,92,-17,-75,-9,-92,-82,-53,-48,-102
-82,-102,-19,92,-31,-61,9,-82,-43,-48,-34,-97
-92,-92,0,92,-46,-46,53,-48,9,-29,-24,-92
-117,-87,29,102,-73,-29,107,19,78,9,-19,-102
-117,-68,48,92,-82,-9,107,39,126,63,14,-78
-82,-48,34,65,-58,-7,68,58,214,156,92,-19
-24,-39,-14,31,-4,-26,-34,19,239,239,165,43
146,9,-136,-78,141,-63,-204,-73,229,346,273,141
317,97,-219,-207,268,-61,-429,-248,161,448,405,263
492,209,-283,-351,387,-36,-771,-570,19,546,561,439
683,322,-361,-502,522,-19,-1107,-780,-78,658,722,605
927,463,-463,-695,695,0,-1454,-946,-209,785,893,785
1093,551,-541,-822,817,4,-1693,-1093,-370,790,956,868
1249,527,-722,-888,985,-97,-1820,-1112,-488,692,936,883
1205,473,-732,-839,968,-129,-1776,-1161,-678,448,766,775
810,448,-361,-629,585,43,-1424,-1210,-844,87,473,585
468,405,-63,-436,265,170,-1083,-1166,-868,-102,278,434
253,331,78,-292,87,204,-795,-1015,-766,-156,165,297
136,253,117,-195,9,185,-566,-824,-619,-161,102,190
87,156,68,-122,9,112,-409,-580,-478,-165,34,102
34,63,29,-48,2,46,-234,-351,-331,-136,-9,24
-19,29,48,-4,-34,39,-92,-209,-195,-82,-4,-14
-43,4,48,19,-46,26,-14,-136,-117,-58,-9,-48
-53,-34,19,43,-36,-7,4,-73,-97,-58,-24,-73
-63,-73,-9,68,-26,-41,43,0,-58,-53,-39,-87
-73,-82,-9,78,-31,-46,78,19,-29,-48,-39,-92
-82,-87,-4,85,-39,-46,87,14,-24,-48,-39,-102
-82,-87,-4,85,-39,-46,87,14,-24,-48,-48,-107
-87,-92,-4,90,-41,-48,92,34,-19,-48,-53,-112
-92,-97,-4,95,-43,-51,107,53,-9,-48,-53,-122
-97,-102,-4,100,-46,-53,112,58,-4,-43,-53,-126
-97,-102,-4,100,-46,-53,117,63,0,-43,-53,-122
-92,-102,-9,97,-41,-56,117,68,0,-43,-53,-122
-92,-102,-9,97,-41,-56,117,73,4,-43,-53,-122
-92,-102,-9,97,-41,-56,122,78,9,-39,-53,-126
-92,-97,-4,95,-43,-51,126,82,14,-39,-53,-126
-92,-92,0,92,-46,-46,126,87,14,-39,-53,-126
-92,-92,0,92,-46,-46,126,92,24,-39,-53,-122
-92,-87,4,90,-48,-41,126,97,24,-43,-53,-112
-92,-87,4,90,-48,-41,131,97,29,-39,-53,-112
-97,-82,14,90,-56,-34,131,107,39,-39,-48,-112
-97,-78,19,87,-58,-29,136,112,39,-39,-53,-112
-97,-78,19,87,-58,-29,136,117,43,-34,-58,-112
-97,-78,19,87,-58,-29,141,117,43,-29,-58,-112
-97,-73,24,85,-61,-24,141,126,43,-24,-58,-112
-97,-73,24,85,-61,-24,151,131,58,-24,-53,-112
-97,-73,24,85,-61,-24,156,141,68,-19,-43,-112
-97,-68,29,82,-63,-19,161,151,78,-19,-43,-107
-97,-63,34,80,-65,-14,161,161,87,-19,-39,-107
-97,-58,39,78,-68,-9,165,170,92,-14,-43,-107
-97,-43,53,70,-75,4,175,185,97,-9,-43,-102
-97,-39,58,68,-78,9,185,200,117,-4,-43,-102
-97,-34,63,65,-80,14,190,209,126,0,-39,-102
-97,-29,68,63,-82,19,200,234,136,9,-29,-102
-97,-24,73,61,-85,24,204,248,151,14,-19,-97
-102,-9,92,56,-97,41,209,258,170,19,-19,-97
-102,-9,92,56,-97,41,229,278,180,24,-14,-97
-107,9,117,48,-112,63,239,297,200,39,-14,-97
-112,9,122,51,-117,65,253,317,219,48,-14,-92
-112,24,136,43,-124,80,263,341,239,58,0,-92
-112,39,151,36,-131,95,278,366,263,68,4,-82
-112,53,165,29,-139,109,297,385,287,78,14,-73
-112,58,170,26,-141,114,312,414,307,87,14,-68
-117,68,185,24,-151,126,331,448,336,97,24,-63
-117,87,204,14,-161,146,336,473,366,112,29,-63
-112,92,204,9,-158,148,351,497,380,122,34,-53
-112,107,219,2,-165,163,361,527,400,131,48,-43
-112,117,229,-2,-170,173,370,546,414,141,53,-39
-117,122,239,-2,-178,180,380,570,439,156,58,-34
-117,141,258,-12,-187,200,395,595,453,165,58,-34
-117,146,263,-14,-190,204,409,614,468,165,73,-24
-102,161,263,-29,-183,212,409,624,478,170,73,-29
-97,175,273,-39,-185,224,409,639,488,175,78,-24
-92,180,273,-43,-183,226,414,644,488,175,78,-19
-87,180,268,-46,-178,224,414,649,488,175,82,-14
-87,180,268,-46,-178,224,405,653,488,180,87,-4
-82,180,263,-48,-173,222,395,653,488,190,87,0
-78,180,258,-51,-168,219,380,634,473,190,92,4
-68,185,253,-58,-161,219,361,624,463,190,97,4
-58,195,253,-68,-156,224,336,590,444,175,97,9
-53,195,248,-70,-151,222,312,556,414,165,97,9
-39,185,224,-73,-131,204,287,522,385,165,97,9
-34,175,209,-70,-122,192,258,483,361,156,92,14
-24,170,195,-73,-109,183,234,424,322,146,87,14
-14,161,175,-73,-95,168,204,375,278,131,82,14
-9,146,156,-68,-82,151,165,322,244,126,78,9
0,126,126,-63,-63,126,131,278,209,107,73,4
4,102,97,-53,-46,100,117,234,175,92,63,4
4,82,78,-43,-36,80,92,185,136,82,63,0
4,78,73,-41,-34,75,63,141,112,68,48,-9
4,58,53,-31,-24,56,48,112,82,58,43,-9
4,43,39,-24,-17,41,29,78,53,48,39,-19
0,24,24,-12,-12,24,19,43,29,43,34,-19
0,14,14,-7,-7,14,4,14,9,43,34,-19
0,4,4,-2,-2,4,-4,-4,4,29,29,-29
-4,4,9,0,-7,7,-4,-19,-4,14,19,-39
-9,-9,0,9,-4,-4,-9,-29,-19,9,19,-39
-14,-19,-4,17,-4,-12,-14,-39,-29,9,14,-39
-14,-19,-4,17,-4,-12,-14,-48,-34,9,14,-39
-14,-29,-14,21,0,-21,-14,-48,-39,9,14,-43
-19,-39,-19,29,0,-29,-19,-53,-43,9,9,-43
-14,-39,-24,26,4,-31,-24,-53,-48,0,9,-43
-14,-39,-24,26,4,-31,-29,-53,-48,0,9,-43
-14,-34,-19,24,2,-26,-29,-53,-48,0,9,-48
-14,-34,-19,24,2,-26,-29,-53,-48,0,4,-48
-14,-34,-19,24,2,-26,-24,-53,-48,4,9,-48
-14,-29,-14,21,0,-21,-24,-58,-53,9,14,-48
-19,-34,-14,26,-2,-24,-24,-58,-53,9,14,-48
-19,-39,-19,29,0,-29,-24,-58,-43,9,19,-43
-19,-39,-19,29,0,-29,-24,-53,-43,9,14,-43
-19,-39,-19,29,0,-29,-24,-48,-39,14,14,-39
-19,-34,-14,26,-2,-24,-19,-48,-39,19,14,-39
-19,-34,-14,26,-2,-24,-19,-48,-34,19,14,-39
-19,-34,-14,26,-2,-24,-19,-48,-39,19,14,-39
-19,-34,-14,26,-2,-24,-14,-48,-43,19,14,-39
-19,-34,-14,26,-2,-24,-14,-48,-43,19,14,-39
-19,-34,-14,26,-2,-24,-19,-48,-43,19,14,-39
-19,-29,-9,24,-4,-19,-19,-43,-43,24,19,-39
-19,-29,-9,24,-4,-19,-14,-43,-39,24,19,-39
-14,-24,-9,19,-2,-17,-19,-43,-34,19,19,-34
-14,-24,-9,19,-2,-17,-19,-43,-24,19,19,-34
-19,-24,-4,21,-7,-14,-19,-39,-24,19,19,-34
-19,-24,-4,21,-7,-14,-14,-39,-24,24,24,-34
-24,-24,0,24,-12,-12,-14,-39,-19,24,24,-34
-24,-24,0,24,-12,-12,-14,-39,-19,24,24,-34
-24,-24,0,24,-12,-12,-14,-39,-19,24,29,-34
-24,-29,-4,26,-9,-17,-9,-29,-19,24,29,-29
-24,-34,-9,29,-7,-21,-4,-29,-19,24,29,-29
-24,-34,-9,29,-7,-21,0,-29,-19,24,29,-29
-29,-29,0,29,-14,-14,0,-29,-19,24,29,-29
-29,-24,4,26,-17,-9,0,-29,-19,24,24,-29
-29,-24,4,26,-17,-9,0,-29,-19,24,24,-34
-29,-34,-4,31,-12,-19,0,-34,-19,19,24,-34
-29,-34,-4,31,-12,-19,0,-34,-19,19,24,-39
-29,-29,0,29,-14,-14,0,-34,-19,19,19,-39
-29,-29,0,29,-14,-14,0,-34,-24,24,19,-39
-29,-29,0,29,-14,-14,0,-34,-29,24,19,-39
-29,-34,-4,31,-12,-19,0,-39,-29,24,19,-39
-29,-39,-9,34,-9,-24,0,-39,-29,19,14,-39
-29,-39,-9,34,-9,-24,-4,-39,-34,19,14,-39
-29,-39,-9,34,-9,-24,-4,-43,-34,19,14,-39
-29,-39,-9,34,-9,-24,-4,-48,-39,19,9,-43
-34,-39,-4,36,-14,-21,-4,-48,-39,14,9,-43
-34,-39,-4,36,-14,-21,-4,-48,-39,14,4,-43
-34,-48,-14,41,-9,-31,-4,-53,-43,9,4,-39
-34,-48,-14,41,-9,-31,-4,-58,-48,9,4,-39
-34,-48,-14,41,-9,-31,-4,-58,-48,9,4,-39
-34,-43,-9,39,-12,-26,-9,-63,-43,4,4,-43
-34,-39,-4,36,-14,-21,-9,-63,-43,4,4,-48
-34,-39,-4,36,-14,-21,-9,-63,-43,9,0,-48
-34,-39,-4,36,-14,-21,-9,-63,-43,9,0,-53
-39,-43,-4,41,-17,-24,-9,-63,-48,9,4,-53
-39,-48,-9,43,-14,-29,-9,-73,-48,9,4,-53
-34,-48,-14,41,-9,-31,-14,-73,-53,4,4,-48
-34,-48,-14,41,-9,-31,-14,-73,-53,4,4,-48
-34,-48,-14,41,-9,-31,-14,-73,-53,0,4,-48
-34,-53,-19,43,-7,-36,-9,-73,-53,0,4,-48
-34,-53,-19,43,-7,-36,-9,-73,-58,0,4,-48
-34,-53,-19,43,-7,-36,-9,-78,-58,0,4,-48
-34,-53,-19,43,-7,-36,-19,-78,-63,0,4,-48
-34,-53,-19,43,-7,-36,-24,-78,-63,0,4,-48
-34,-53,-19,43,-7,-36,-24,-78,-63,0,4,-48
-34,-53,-19,43,-7,-36,-19,-78,-63,0,4,-48
-34,-53,-19,43,-7,-36,-14,-78,-63,0,0,-48
-34,-53,-19,43,-7,-36,-9,-82,-63,-4,0,-48
-39,-53,-14,46,-12,-34,-14,-82,-63,-4,0,-48
-43,-53,-9,48,-17,-31,-14,-82,-63,-4,0,-53
-43,-53,-9,48,-17,-31,-14,-82,-63,0,4,-53
-39,-63,-24,51,-7,-43,-14,-82,-68,4,9,-48
-39,-63,-24,51,-7,-43,-14,-82,-68,4,14,-48
-43,-58,-14,51,-14,-36,-14,-82,-63,4,14,-43
-43,-58,-14,51,-14,-36,-19,-82,-63,0,9,-43
-43,-58,-14,51,-14,-36,-19,-82,-68,-4,9,-43
-39,-53,-14,46,-12,-34,-19,-87,-68,-4,4,-43
-39,-53,-14,46,-12,-34,-24,-92,-68,-4,0,-43
-39,-58,-19,48,-9,-39,-24,-87,-63,0,4,-48
-39,-58,-19,48,-9,-39,-19,-87,-63,0,4,-53
-39,-53,-14,46,-12,-34,-19,-87,-68,-4,4,-53
-39,-53,-14,46,-12,-34,-24,-87,-73,-9,4,-53
-34,-63,-29,48,-2,-46,-24,-87,-73,-4,9,-53
-34,-73,-39,53,2,-56,-19,-82,-73,-4,9,-53
-34,-63,-29,48,-2,-46,-19,-82,-73,-4,19,-48
-34,-53,-19,43,-7,-36,-19,-82,-63,0,24,-43
-34,-43,-9,39,-12,-26,-14,-68,-53,4,24,-39
-29,-29,0,29,-14,-14,-9,-58,-53,4,24,-39
-14,-19,-4,17,-4,-12,4,-48,-39,24,29,-34
-4,-9,-4,7,0,-7,14,-39,-19,34,29,-29
0,-9,-9,4,4,-9,19,-34,-19,39,29,-19
0,-4,-4,2,2,-4,24,-34,-19,43,34,-19
0,9,9,-4,-4,9,24,-24,-14,43,39,-9
0,29,29,-14,-14,29,29,-19,-9,48,48,0
9,29,19,-19,-4,24,29,-9,0,58,58,0
19,29,9,-24,4,19,29,0,9,68,68,0
24,29,4,-26,9,17,29,9,14,68,73,4
24,34,9,-29,7,21,14,4,19,68,73,9
29,39,9,-34,9,24,0,0,24,73,78,14
34,48,14,-41,9,31,-29,-9,14,68,78,14
39,68,29,-53,4,48,-68,-58,-14,58,68,14
39,73,34,-56,2,53,-92,-92,-43,43,63,9
39,58,19,-48,9,39,-97,-97,-53,39,58,9
43,43,0,-43,21,21,-97,-97,-63,29,48,4
53,39,-14,-46,34,12,-87,-92,-63,29,48,4
58,34,-24,-46,41,4,-82,-92,-63,34,48,4
43,39,-4,-41,24,17,-82,-92,-58,39,48,9
34,48,14,-41,9,31,-82,-87,-53,39,53,9
29,53,24,-41,2,39,-63,-73,-39,58,78,19
19,43,24,-31,-2,34,-43,-73,-34,68,87,24
14,29,14,-21,0,21,-43,-68,-29,58,73,24
0,14,14,-7,-7,14,-39,-63,-39,43,53,4
-9,-14,-4,12,-2,-9,-39,-73,-48,29,34,-9
-24,-29,-4,26,-9,-17,-34,-82,-58,24,24,-24
-34,-63,-29,48,-2,-46,-34,-82,-68,14,24,-29
-43,-78,-34,61,-4,-56,-34,-92,-68,9,14,-34
-53,-82,-29,68,-12,-56,-34,-102,-87,-9,0,-43
-58,-82,-24,70,-17,-53,-34,-107,-97,-14,-9,-48
-58,-82,-24,70,-17,-53,-34,-107,-97,-19,-9,-53
-58,-92,-34,75,-12,-63,-29,-102,-97,-24,-9,-58
-58,-92,-34,75,-12,-63,-29,-102,-97,-24,-9,-58
-58,-92,-34,75,-12,-63,-29,-102,-97,-29,-14,-68
-63,-97,-34,80,-14,-65,-29,-102,-97,-29,-14,-73
-63,-97,-34,80,-14,-65,-24,-102,-97,-29,-14,-73
-63,-97,-34,80,-14,-65,-24,-102,-97,-24,-14,-73
-63,-97,-34,80,-14,-65,-24,-102,-102,-24,-14,-78
-63,-92,-29,78,-17,-61,-24,-102,-102,-24,-19,-73
-63,-92,-29,78,-17,-61,-24,-102,-97,-24,-24,-68
-68,-97,-29,82,-19,-63,-19,-102,-97,-24,-24,-63
-68,-97,-29,82,-19,-63,-19,-102,-97,-19,-24,-63
-68,-102,-34,85,-17,-68,-14,-102,-97,-19,-24,-63
-63,-102,-39,82,-12,-70,-14,-102,-97,-24,-24,-68
-63,-102,-39,82,-12,-70,-14,-102,-97,-24,-24,-68
-68,-102,-34,85,-17,-68,-14,-102,-97,-24,-24,-68
-68,-102,-34,85,-17,-68,-14,-97,-92,-19,-24,-68
-68,-102,-34,85,-17,-68,-19,-97,-87,-19,-19,-63
-73,-102,-29,87,-21,-65,-34,-102,-92,-14,-19,-63
-82,-92,-9,87,-36,-51,-29,-92,-68,-9,-4,-58
-97,-87,9,92,-53,-39,39,-39,-9,4,-9,-58
-112,-87,24,100,-68,-31,92,19,58,43,4,-53
-117,-73,43,95,-80,-14,102,43,112,97,39,-34
-73,-53,19,63,-46,-17,68,58,180,185,112,19
0,-78,-78,39,39,-78,-29,39,214,253,175,68
156,-48,-204,-53,180,-126,-190,-43,214,351,283,161
341,48,-292,-195,317,-122,-414,-248,136,458,429,297
527,170,-356,-348,441,-92,-707,-536,4,546,570,458
741,331,-409,-536,575,-39,-1073,-771,-97,683,756,644
956,453,-502,-705,729,-24,-1395,-961,-229,766,888,800
1141,531,-610,-836,875,-39,-1668,-1146,-409,766,956,897
1244,531,-712,-888,978,-90,-1790,-1210,-541,663,927,907
1107,497,-610,-802,858,-56,-1698,-1268,-756,370,717,780
800,473,-326,-636,563,73,-1439,-1283,-893,73,478,614
424,395,-29,-409,226,183,-1068,-1215,-893,-107,273,434
195,322,126,-258,34,224,-780,-1078,-810,-175,151,302
126,244,117,-185,4,180,-585,-844,-649,-165,92,200
73,170,97,-122,-12,134,-429,-610,-507,-151,39,117
24,73,48,-48,-12,61,-229,-356,-331,-97,14,39
-24,14,39,4,-31,26,-78,-190,-190,-53,19,4
-39,-9,29,24,-34,9,-24,-141,-122,-39,19,-14
-48,-39,9,43,-29,-14,0,-87,-92,-39,4,-43
-53,-63,-9,58,-21,-36,34,-14,-58,-34,-14,-63
-63,-73,-9,68,-26,-41,63,14,-34,-29,-19,-68
-78,-78,0,78,-39,-39,68,4,-34,-29,-19,-73
-82,-78,4,80,-43,-36,68,4,-34,-29,-24,-78
-87,-87,0,87,-43,-43,78,24,-34,-29,-29,-82
-87,-92,-4,90,-41,-48,92,39,-29,-29,-34,-87
-87,-92,-4,90,-41,-48,92,43,-24,-24,-34,-87
-87,-92,-4,90,-41,-48,97,53,-19,-24,-34,-82
-82,-92,-9,87,-36,-51,97,58,-19,-24,-39,-87
-82,-92,-9,87,-36,-51,97,63,-14,-24,-43,-92
-82,-92,-9,87,-36,-51,102,63,-9,-19,-43,-97
-82,-92,-9,87,-36,-51,107,63,-4,-19,-43,-97
-82,-92,-9,87,-36,-51,107,68,-4,-19,-39,-92
-82,-92,-9,87,-36,-51,107,73,4,-14,-34,-87
-82,-87,-4,85,-39,-46,107,82,9,-14,-34,-82
-82,-87,-4,85,-39,-46,112,87,19,-9,-34,-82
-87,-82,4,85,-46,-39,112,97,29,-9,-29,-82
-87,-78,9,82,-48,-34,117,102,29,-9,-29,-82
-87,-78,9,82,-48,-34,117,102,29,-4,-29,-82
-87,-78,9,82,-48,-34,122,102,29,-4,-29,-82
-87,-73,14,80,-51,-29,122,117,34,-4,-29,-82
-87,-73,14,80,-51,-29,131,122,48,-4,-29,-82
-87,-73,14,80,-51,-29,136,131,58,-4,-24,-87
-87,-68,19,78,-53,-24,141,141,68,-4,-24,-87
-87,-63,24,75,-56,-19,141,151,73,0,-19,-87
-87,-63,24,75,-56,-19,146,161,78,4,-19,-87
-87,-53,34,70,-61,-9,151,175,87,9,-14,-78
-87,-48,39,68,-63,-4,156,190,107,14,-14,-73
-87,-43,43,65,-65,0,161,200,117,19,-14,-73
-87,-39,48,63,-68,4,170,224,126,29,-14,-73
-87,-29,58,58,-73,14,175,239,136,34,-9,-68
-92,-9,82,51,-87,36,180,253,151,39,-9,-63
-92,-9,82,51,-87,36,200,273,161,43,0,-58
-92,9,102,41,-97,56,209,287,185,58,4,-58
-92,4,97,43,-95,51,224,307,209,68,4,-53
-92,14,107,39,-100,61,234,331,229,78,19,-53
-92,29,122,31,-107,75,248,361,253,87,24,-43
-92,43,136,24,-114,90,263,385,278,97,34,-39
-92,48,141,21,-117,95,273,414,297,107,34,-39
-97,58,156,19,-126,107,292,448,326,117,43,-34
-97,78,175,9,-136,126,297,473,346,131,48,-34
-92,82,175,4,-134,129,312,497,356,141,53,-24
-92,97,190,-2,-141,143,322,531,390,151,68,-14
-87,112,200,-12,-143,156,331,556,414,161,73,-9
-87,122,209,-17,-148,165,341,585,439,175,73,-9
-87,141,229,-26,-158,185,346,610,453,185,68,-14
-87,146,234,-29,-161,190,351,629,468,185,82,-4
-78,156,234,-39,-156,195,351,644,478,195,82,-4
-78,165,244,-43,-161,204,361,658,492,204,92,9
-73,170,244,-48,-158,207,370,663,497,204,97,19
-68,170,239,-51,-153,204,366,668,497,204,102,24
-63,175,239,-56,-151,207,356,668,497,204,107,29
-58,180,239,-61,-148,209,346,668,502,209,107,29
-58,180,239,-61,-148,209,331,649,488,209,112,34
-48,185,234,-68,-141,209,317,634,478,209,112,34
-43,185,229,-70,-136,207,302,600,458,195,107,39
-39,180,219,-70,-129,200,283,566,424,180,107,39
-19,175,195,-78,-107,185,258,527,390,175,107,39
-14,165,180,-75,-97,173,224,483,361,165,102,43
-9,161,170,-75,-90,165,195,424,322,151,97,43
-4,146,151,-70,-78,148,165,375,278,131,92,43
-4,126,131,-61,-68,129,136,322,239,126,87,39
0,107,107,-53,-53,107,107,273,200,107,82,34
4,87,82,-46,-39,85,87,224,165,92,73,34
4,73,68,-39,-31,70,63,175,122,78,68,29
4,68,63,-36,-29,65,39,131,92,58,48,19
4,48,43,-26,-19,46,29,97,63,48,43,19
4,39,34,-21,-14,36,9,63,34,39,39,9
0,24,24,-12,-12,24,0,29,4,34,34,4
0,14,14,-7,-7,14,-9,0,-19,34,34,0
0,4,4,-2,-2,4,-14,-14,-24,19,29,-9
-4,4,9,0,-7,7,-14,-29,-34,4,19,-19
-9,-14,-4,12,-2,-9,-24,-43,-53,0,19,-19
-14,-29,-14,21,0,-21,-34,-58,-68,0,14,-19
-14,-29,-14,21,0,-21,-34,-68,-73,-4,9,-19
-14,-34,-19,24,2,-26,-34,-68,-78,-9,4,-24
-19,-39,-19,29,0,-29,-34,-73,-78,-9,0,-24
-19,-39,-19,29,0,-29,-29,-73,-78,-19,0,-24
-24,-39,-14,31,-4,-26,-29,-78,-78,-19,0,-24
-24,-39,-14,31,-4,-26,-29,-82,-78,-19,0,-29
-24,-43,-19,34,-2,-31,-29,-82,-78,-19,-4,-29
-24,-43,-19,34,-2,-31,-29,-82,-78,-19,-4,-29
-29,-39,-9,34,-9,-24,-34,-87,-87,-19,-4,-29
-34,-39,-4,36,-14,-21,-34,-87,-92,-19,-4,-29
-29,-39,-9,34,-9,-24,-34,-87,-82,-24,0,-24
-29,-39,-9,34,-9,-24,-34,-82,-82,-29,0,-24
-29,-39,-9,34,-9,-24,-34,-78,-78,-24,0,-24
-29,-34,-4,31,-12,-19,-29,-78,-78,-19,-4,-29
-29,-34,-4,31,-12,-19,-29,-78,-73,-19,-4,-29
-29,-34,-4,31,-12,-19,-29,-78,-73,-19,-4,-29
-29,-34,-4,31,-12,-19,-24,-78,-73,-19,-4,-24
-29,-34,-4,31,-12,-19,-24,-78,-73,-19,-4,-19
-34,-34,0,34,-17,-17,-29,-78,-73,-19,-4,-19
-39,-29,9,34,-24,-9,-29,-73,-73,-14,0,-19
-39,-29,9,34,-24,-9,-24,-73,-73,-9,0,-24
-34,-24,9,29,-21,-7,-24,-68,-73,-4,0,-24
-34,-24,9,29,-21,-7,-19,-63,-63,0,0,-24
-39,-24,14,31,-26,-4,-19,-58,-63,0,0,-24
-34,-24,9,29,-21,-7,-14,-58,-58,0,4,-19
-34,-24,9,29,-21,-7,-14,-58,-48,-4,4,-14
-34,-24,9,29,-21,-7,-14,-58,-48,-4,4,-14
-34,-24,9,29,-21,-7,-14,-58,-48,-4,9,-14
-34,-29,4,31,-19,-12,-9,-48,-48,-4,9,-9
-34,-34,0,34,-17,-17,-9,-48,-48,-4,9,-9
-34,-34,0,34,-17,-17,-9,-48,-48,-4,9,-9
-39,-29,9,34,-24,-9,-9,-48,-48,-4,9,-9
-39,-24,14,31,-26,-4,-9,-48,-48,-4,4,-9
-39,-24,14,31,-26,-4,-9,-48,-48,-4,4,-14
-39,-43,-4,41,-17,-24,-9,-53,-48,-9,4,-14
-39,-53,-14,46,-12,-34,-9,-53,-48,-9,4,-19
-39,-58,-19,48,-9,-39,-9,-53,-48,-9,0,-19
-39,-68,-29,53,-4,-48,-9,-53,-53,-9,0,-19
-39,-48,-9,43,-14,-29,-9,-53,-63,-19,-4,-19
-39,-34,4,36,-21,-14,-9,-58,-68,-24,-9,-19
-39,-34,4,36,-21,-14,-14,-58,-68,-29,-14,-19
-39,-29,9,34,-24,-9,-24,-58,-73,-29,-14,-19
-39,-29,9,34,-24,-9,-24,-63,-73,-29,-14,-19
-39,-29,9,34,-24,-9,-24,-68,-78,-29,-19,-24
-43,-29,14,36,-29,-7,-24,-68,-73,-29,-19,-24
-43,-29,14,36,-29,-7,-24,-68,-68,-24,-24,-29
-43,-53,-9,48,-17,-31,-19,-68,-73,-29,-19,-24
-43,-68,-24,56,-9,-46,-14,-68,-78,-29,-14,-19
-43,-68,-24,56,-9,-46,-14,-68,-78,-29,-14,-19
-43,-68,-24,56,-9,-46,-19,-73,-78,-34,-14,-19
-43,-58,-14,51,-14,-36,-19,-78,-82,-34,-19,-29
-43,-48,-4,46,-19,-26,-19,-82,-82,-34,-29,-39
-39,-48,-9,43,-14,-29,-24,-82,-82,-39,-29,-43
-39,-48,-9,43,-14,-29,-29,-82,-87,-39,-29,-43
-39,-48,-9,43,-14,-29,-29,-92,-87,-39,-34,-43
-39,-48,-9,43,-14,-29,-34,-92,-92,-43,-34,-43
-48,-48,0,48,-24,-24,-29,-92,-92,-53,-34,-48
-53,-48,4,51,-29,-21,-24,-92,-92,-68,-34,-48
-53,-53,0,53,-26,-26,-19,-87,-87,-58,-34,-39
-53,-53,0,53,-26,-26,-19,-82,-87,-48,-34,-29
-48,-53,-4,51,-21,-29,-19,-87,-87,-48,-34,-29
-43,-53,-9,48,-17,-31,-24,-87,-92,-48,-34,-29
-43,-63,-19,53,-12,-41,-24,-87,-97,-53,-34,-34
-43,-73,-29,58,-7,-51,-24,-87,-102,-58,-34,-39
-43,-73,-29,58,-7,-51,-19,-87,-102,-58,-39,-39
-43,-73,-29,58,-7,-51,-19,-87,-102,-58,-48,-39
-48,-68,-19,58,-14,-43,-19,-92,-102,-63,-48,-39
-53,-63,-9,58,-21,-36,-24,-92,-102,-63,-48,-39
-53,-58,-4,56,-24,-31,-24,-92,-102,-63,-48,-43
-53,-53,0,53,-26,-26,-24,-92,-102,-63,-48,-48
-48,-63,-14,56,-17,-39,-24,-92,-102,-58,-48,-43
-48,-63,-14,56,-17,-39,-24,-92,-97,-53,-43,-39
-48,-58,-9,53,-19,-34,-19,-87,-92,-53,-39,-34
-43,-58,-14,51,-14,-36,-14,-82,-92,-53,-39,-34
-43,-43,0,43,-21,-21,-4,-73,-87,-48,-39,-34
-39,-24,14,31,-26,-4,0,-63,-78,-43,-39,-34
-29,-9,19,19,-24,4,4,-58,-68,-34,-29,-24
-19,0,19,9,-19,9,14,-48,-53,-19,-14,-14
-19,0,19,9,-19,9,19,-48,-43,-19,-4,-14
-19,4,24,7,-21,14,19,-48,-34,-19,4,-14
-4,9,14,-2,-9,12,24,-29,-19,-9,4,0
9,19,9,-14,0,14,29,-9,-9,0,9,9
9,19,9,-14,0,14,24,-9,-9,0,9,9
9,19,9,-14,0,14,19,-9,-9,0,9,9
14,29,14,-21,0,21,9,-9,-9,4,9,9
14,39,24,-26,-4,31,-9,-24,-9,4,9,9
19,53,34,-36,-7,43,-29,-39,-14,9,9,14
24,68,43,-46,-9,56,-58,-58,-34,0,9,14
29,68,39,-48,-4,53,-82,-87,-53,-9,0,14
29,53,24,-41,2,39,-92,-102,-73,-24,-4,9
34,34,0,-34,17,17,-92,-102,-78,-24,0,14
43,14,-29,-29,36,-7,-87,-97,-82,-29,0,14
43,14,-29,-29,36,-7,-78,-92,-82,-29,0,14
39,14,-24,-26,31,-4,-73,-92,-82,-24,0,14
24,29,4,-26,9,17,-68,-97,-78,-19,-9,14
14,48,34,-31,-9,41,-63,-97,-73,-19,-14,9
9,63,53,-36,-21,58,-53,-82,-58,-9,0,14
0,63,63,-31,-31,63,-43,-82,-53,-9,0,14
0,34,34,-17,-17,34,-43,-78,-53,-19,-9,9
-9,4,14,2,-12,9,-39,-73,-68,-34,-24,-14
-19,-24,-4,21,-7,-14,-39,-82,-82,-53,-43,-24
-34,-39,-4,36,-14,-21,-34,-92,-97,-63,-53,-34
-43,-63,-19,53,-12,-41,-34,-97,-107,-73,-53,-39
-53,-68,-14,61,-19,-41,-34,-112,-107,-78,-63,-43
-63,-73,-9,68,-26,-41,-34,-117,-122,-97,-78,-53
-68,-73,-4,70,-31,-39,-34,-117,-126,-102,-87,-58
-68,-73,-4,70,-31,-39,-34,-117,-126,-102,-87,-63
-68,-82,-14,75,-26,-48,-29,-112,-126,-102,-87,-68
-68,-82,-14,75,-26,-48,-29,-112,-126,-102,-87,-68
-68,-82,-14,75,-26,-48,-29,-112,-126,-107,-92,-78
-73,-87,-14,80,-29,-51,-29,-112,-126,-107,-92,-78
-73,-87,-14,80,-29,-51,-24,-112,-126,-107,-92,-73
-78,-87,-9,82,-34,-48,-19,-112,-126,-107,-92,-78
-82,-87,-4,85,-39,-46,-14,-112,-131,-112,-92,-87
-82,-92,-9,87,-36,-51,-14,-112,-131,-112,-92,-87
-82,-102,-19,92,-31,-61,-14,-112,-126,-112,-92,-87
-82,-107,-24,95,-29,-65,-9,-112,-126,-112,-92,-78
-78,-107,-29,92,-24,-68,-9,-112,-126,-107,-92,-73
-78,-107,-29,92,-24,-68,-9,-112,-122,-107,-97,-73
-73,-102,-29,87,-21,-65,-14,-112,-117,-112,-102,-78
-73,-97,-24,85,-24,-61,-19,-112,-117,-112,-102,-78
-78,-92,-14,85,-31,-53,-24,-112,-117,-112,-102,-78
-78,-92,-14,85,-31,-53,-19,-107,-112,-107,-102,-82
-78,-92,-14,85,-31,-53,-19,-107,-107,-107,-97,-82
-82,-97,-14,90,-34,-56,-19,-102,-97,-102,-107,-82
-92,-92,0,92,-46,-46,0,-82,-58,-97,-102,-78
-107,-87,19,97,-63,-34,58,-34,0,-68,-92,-73
-122,-87,34,104,-78,-26,102,19,68,-14,-63,-63
-107,-78,29,92,-68,-24,82,34,122,53,-4,-24
-43,-63,-19,53,-12,-41,19,39,190,156,92,48
43,-48,-92,2,68,-70,-92,-14,204,248,185,131
214,19,-195,-117,204,-87,-268,-131,185,370,322,258
385,126,-258,-256,322,-65,-507,-346,107,497,488,409
556,258,-297,-407,427,-19,-814,-644,-24,605,649,585
736,419,-317,-578,527,51,-1137,-858,-136,717,810,761
917,541,-375,-729,646,82,-1415,-1029,-278,775,917,907
1024,590,-434,-807,729,78,-1610,-1176,-453,717,927,956
1049,561,-488,-805,768,36,-1654,-1200,-580,556,839,917
873,492,-380,-683,627,56,-1498,-1229,-771,244,590,746
527,434,-92,-480,309,170,-1176,-1215,-883,-73,312,536
239,331,92,-285,73,212,-868,-1107,-868,-234,117,356
97,234,136,-165,-19,185,-644,-932,-771,-283,4,224
48,156,107,-102,-29,131,-458,-707,-600,-268,-43,131
14,82,68,-48,-26,75,-312,-483,-448,-248,-87,58
-14,14,29,0,-21,21,-156,-273,-302,-195,-107,-4
-43,-14,29,29,-36,7,-48,-151,-190,-151,-97,-24
-53,-34,19,43,-36,-7,0,-107,-131,-136,-97,-39
-58,-58,0,58,-29,-29,19,-58,-112,-136,-112,-63
-63,-87,-24,75,-19,-56,53,0,-78,-126,-126,-78
-73,-102,-29,87,-21,-65,82,14,-53,-117,-126,-78
-82,-107,-24,95,-29,-65,87,4,-53,-117,-122,-78
-82,-107,-24,95,-29,-65,87,4,-53,-117,-122,-78
-87,-112,-24,100,-31,-68,92,24,-48,-117,-122,-82
-87,-112,-24,100,-31,-68,102,39,-39,-117,-122,-87
-87,-112,-24,100,-31,-68,97,39,-34,-112,-122,-92
-87,-112,-24,100,-31,-68,97,43,-29,-112,-122,-92
-82,-112,-29,97,-26,-70,97,48,-29,-107,-122,-92
-82,-112,-29,97,-26,-70,97,53,-24,-102,-122,-92
-82,-112,-29,97,-26,-70,102,58,-14,-97,-122,-92
-82,-112,-29,97,-26,-70,107,63,-4,-97,-122,-87
-82,-112,-29,97,-26,-70,112,68,-4,-107,-122,-87
-82,-112,-29,97,-26,-70,117,73,4,-112,-122,-87
-82,-107,-24,95,-29,-65,117,78,4,-112,-122,-82
-82,-107,-24,95,-29,-65,122,78,9,-107,-122,-82
-87,-102,-14,95,-36,-58,117,87,19,-102,-122,-82
-87,-97,-9,92,-39,-53,117,92,19,-97,-126,-82
-87,-97,-9,92,-39,-53,117,97,24,-92,-126,-82
-87,-97,-9,92,-39,-53,122,102,29,-92,-126,-82
-87,-92,-4,90,-41,-48,122,117,34,-92,-126,-82
-87,-92,-4,90,-41,-48,131,122,48,-92,-126,-82
-87,-87,0,87,-43,-43,136,131,53,-87,-122,-82
-87,-78,9,82,-48,-34,141,141,58,-82,-122,-78
-82,-73,9,78,-46,-31,141,151,68,-78,-117,-78
-78,-73,4,75,-41,-34,146,161,78,-73,-117,-78
-78,-68,9,73,-43,-29,156,175,92,-68,-112,-68
-78,-68,9,73,-43,-29,165,190,117,-63,-112,-63
-78,-63,14,70,-46,-24,170,200,131,-58,-107,-63
-78,-58,19,68,-48,-19,180,224,146,-48,-102,-63
-78,-53,24,65,-51,-14,185,239,161,-43,-92,-63
-82,-39,43,61,-63,2,190,253,180,-39,-87,-63
-82,-39,43,61,-63,2,209,278,185,-34,-82,-58
-82,-19,63,51,-73,21,219,297,204,-19,-82,-58
-82,-19,63,51,-73,21,234,322,229,-9,-82,-53
-82,-4,78,43,-80,36,244,351,248,0,-68,-53
-82,9,92,36,-87,51,258,375,273,9,-63,-43
-82,24,107,29,-95,65,273,395,297,19,-53,-39
-78,19,97,29,-87,58,283,424,322,34,-53,-29
-78,19,97,29,-87,58,302,458,356,48,-43,-14
-78,48,126,14,-102,87,307,483,385,63,-34,-14
-73,63,136,4,-104,100,322,507,405,73,-24,-4
-73,78,151,-2,-112,114,331,536,429,82,-9,4
-68,92,161,-12,-114,126,341,556,444,92,-4,9
-68,102,170,-17,-119,136,351,580,468,107,-4,14
-68,122,190,-26,-129,156,356,600,483,117,-9,14
-68,126,195,-29,-131,161,356,614,497,117,4,19
-58,136,195,-39,-126,165,351,624,507,126,4,14
-58,151,209,-46,-134,180,351,639,517,136,9,19
-53,161,214,-53,-134,187,351,644,517,136,9,19
-48,161,209,-56,-129,185,351,644,517,136,19,24
-43,165,209,-61,-126,187,346,639,517,136,29,29
-34,170,204,-68,-119,187,336,634,517,141,29,39
-29,170,200,-70,-114,185,322,610,497,141,34,53
-19,175,195,-78,-107,185,302,595,483,141,34,53
-14,175,190,-80,-102,183,283,561,458,126,29,58
-14,161,175,-73,-95,168,263,527,429,117,29,58
0,146,146,-73,-73,146,239,488,400,117,29,58
4,136,131,-70,-63,134,209,448,370,107,24,58
9,131,122,-70,-56,126,185,395,331,92,19,53
14,122,107,-68,-46,114,156,346,287,73,14,53
14,107,92,-61,-39,100,126,292,248,68,9,48
14,87,73,-51,-29,80,102,248,214,48,4,48
14,68,53,-41,-19,61,87,204,185,34,-4,53
14,53,39,-34,-12,46,63,156,146,24,-4,48
14,48,34,-31,-9,41,39,112,122,9,-19,39
14,29,14,-21,0,21,29,82,92,0,-24,39
14,19,4,-17,4,12,9,53,63,-9,-29,29
4,4,0,-4,2,2,4,29,39,-14,-34,29
0,-4,-4,2,2,-4,0,9,19,-14,-34,29
0,-14,-14,7,7,-14,-4,-4,14,-29,-39,19
-4,-14,-9,9,2,-12,-4,-19,4,-43,-48,9
-9,-29,-19,19,4,-24,-9,-24,-4,-48,-48,9
-14,-39,-24,26,4,-31,-14,-29,-9,-48,-53,9
-14,-39,-24,26,4,-31,-14,-39,-14,-48,-53,9
-14,-43,-29,29,7,-36,-14,-39,-19,-48,-53,4
-14,-48,-34,31,9,-41,-19,-48,-29,-48,-58,4
-9,-48,-39,29,14,-43,-19,-53,-39,-58,-58,4
-14,-53,-39,34,12,-46,-14,-53,-39,-58,-58,4
-14,-58,-43,36,14,-51,-9,-53,-39,-58,-58,0
-14,-63,-48,39,17,-56,-9,-48,-34,-58,-68,0
-14,-63,-48,39,17,-56,-9,-43,-29,-58,-73,0
-14,-58,-43,36,14,-51,-14,-48,-34,-58,-73,0
-14,-58,-43,36,14,-51,-14,-48,-34,-58,-73,0
-9,-53,-43,31,17,-48,-14,-53,-24,-58,-68,0
-9,-48,-39,29,14,-43,-14,-53,-24,-58,-68,-4
-14,-48,-34,31,9,-41,-14,-48,-19,-53,-63,0
-19,-43,-24,31,2,-34,-9,-48,-19,-48,-63,0
-19,-43,-24,31,2,-34,-9,-43,-14,-48,-63,0
-19,-43,-24,31,2,-34,-9,-39,-14,-48,-63,0
-14,-43,-29,29,7,-36,-4,-39,-14,-48,-63,0
-9,-43,-34,26,12,-39,-4,-39,-14,-48,-63,0
-9,-39,-29,24,9,-34,-9,-43,-14,-48,-63,0
-9,-29,-19,19,4,-24,-9,-43,-14,-43,-58,0
-9,-29,-19,19,4,-24,-9,-43,-9,-43,-58,0
-4,-24,-19,14,7,-21,-14,-39,-4,-43,-58,4
-4,-24,-19,14,7,-21,-9,-29,4,-39,-58,4
-9,-24,-14,17,2,-19,-9,-19,4,-39,-58,4
-9,-24,-14,17,2,-19,-4,-19,4,-34,-53,4
-14,-24,-9,19,-2,-17,-4,-19,9,-34,-53,4
-14,-24,-9,19,-2,-17,-4,-19,9,-34,-53,4
-14,-24,-9,19,-2,-17,-4,-19,9,-34,-48,4
-14,-29,-14,21,0,-21,0,-14,9,-34,-53,4
-14,-34,-19,24,2,-26,0,-19,9,-34,-58,0
-14,-34,-19,24,2,-26,0,-19,4,-34,-58,0
-19,-29,-9,24,-4,-19,0,-19,0,-34,-58,0
-19,-24,-4,21,-7,-14,0,-19,0,-34,-63,0
-19,-24,-4,21,-7,-14,0,-19,0,-34,-63,-4
-19,-34,-14,26,-2,-24,-4,-29,0,-43,-68,-4
-19,-34,-14,26,-2,-24,-9,-34,0,-48,-73,-9
-19,-29,-9,24,-4,-19,-9,-34,0,-48,-78,-9
-19,-29,-9,24,-4,-19,-9,-34,-4,-48,-78,-9
-24,-29,-4,26,-9,-17,-4,-34,-9,-48,-78,-9
-29,-34,-4,31,-12,-19,0,-39,-9,-43,-78,-9
-29,-39,-9,34,-9,-24,0,-39,-14,-48,-82,-14
-29,-39,-9,34,-9,-24,-4,-39,-24,-48,-82,-19
-29,-34,-4,31,-12,-19,-9,-43,-24,-53,-82,-19
-29,-29,0,29,-14,-14,-14,-48,-29,-58,-87,-24
-29,-29,0,29,-14,-14,-14,-48,-29,-63,-87,-19
-24,-29,-4,26,-9,-17,-14,-48,-29,-63,-92,-19
-24,-43,-19,34,-2,-31,-14,-53,-34,-68,-92,-19
-24,-48,-24,36,0,-36,-14,-58,-39,-68,-92,-19
-29,-48,-19,39,-4,-34,-14,-58,-39,-73,-92,-24
-34,-48,-14,41,-9,-31,-19,-63,-39,-82,-92,-29
-34,-48,-14,41,-9,-31,-19,-68,-43,-82,-92,-29
-34,-48,-14,41,-9,-31,-19,-73,-43,-82,-97,-29
-34,-48,-14,41,-9,-31,-19,-73,-43,-87,-102,-34
-39,-48,-9,43,-14,-29,-19,-73,-48,-87,-107,-34
-34,-48,-14,41,-9,-31,-19,-78,-48,-82,-112,-34
-29,-48,-19,39,-4,-34,-24,-73,-53,-82,-112,-34
-34,-48,-14,41,-9,-31,-24,-73,-53,-82,-107,-39
-34,-48,-14,41,-9,-31,-24,-73,-53,-87,-102,-39
-34,-53,-19,43,-7,-36,-19,-73,-53,-87,-102,-39
-34,-53,-19,43,-7,-36,-19,-73,-58,-87,-102,-39
-34,-48,-14,41,-9,-31,-19,-78,-58,-92,-102,-43
-34,-43,-9,39,-12,-26,-24,-78,-63,-97,-102,-48
-34,-43,-9,39,-12,-26,-24,-78,-63,-97,-102,-48
-34,-43,-9,39,-12,-26,-24,-78,-63,-97,-102,-48
-34,-43,-9,39,-12,-26,-19,-78,-63,-97,-102,-48
-34,-43,-9,39,-12,-26,-19,-78,-63,-97,-107,-48
-39,-43,-4,41,-17,-24,-19,-82,-63,-102,-107,-43
-43,-43,0,43,-21,-21,-24,-82,-63,-102,-107,-39
-43,-39,4,41,-24,-17,-24,-87,-68,-102,-112,-43
-43,-34,9,39,-26,-12,-24,-92,-73,-102,-117,-48
-39,-43,-4,41,-17,-24,-24,-92,-78,-102,-117,-53
-39,-43,-4,41,-17,-24,-24,-92,-78,-102,-112,-58
-43,-39,4,41,-24,-17,-24,-87,-73,-102,-112,-53
-43,-39,4,41,-24,-17,-24,-82,-73,-102,-117,-53
-43,-48,-4,46,-19,-26,-19,-82,-78,-102,-112,-53
-39,-53,-14,46,-12,-34,-19,-82,-78,-102,-107,-53
-39,-53,-14,46,-12,-34,-24,-87,-73,-102,-107,-53
-39,-58,-19,48,-9,-39,-24,-87,-63,-97,-102,-53
-39,-58,-19,48,-9,-39,-19,-87,-63,-97,-102,-53
-39,-53,-14,46,-12,-34,-19,-87,-63,-97,-102,-53
-39,-53,-14,46,-12,-34,-24,-87,-63,-97,-107,-53
-34,-53,-19,43,-7,-36,-24,-87,-63,-92,-107,-53
-34,-53,-19,43,-7,-36,-19,-82,-63,-92,-107,-48
-34,-43,-9,39,-12,-26,-19,-82,-63,-92,-97,-43
-29,-29,0,29,-14,-14,-9,-78,-53,-78,-92,-39
-24,-24,0,24,-12,-12,0,-68,-43,-63,-92,-29
-14,-9,4,12,-9,-2,4,-58,-34,-63,-82,-29
-4,4,9,0,-7,7,14,-48,-24,-53,-73,-29
-4,19,24,-7,-14,21,14,-48,-19,-53,-78,-29
0,29,29,-14,-14,29,14,-43,-19,-48,-73,-19
0,34,34,-17,-17,34,14,-24,-4,-39,-58,-9
0,39,39,-19,-19,39,19,-9,9,-29,-48,0
9,39,29,-24,-9,34,19,-9,9,-29,-48,0
19,39,19,-29,0,29,19,-9,9,-29,-48,0
19,39,19,-29,0,29,19,-9,9,-29,-43,0
19,43,24,-31,-2,34,0,-24,9,-24,-39,0
19,53,34,-36,-7,43,-14,-39,9,-24,-39,4
24,68,43,-46,-9,56,-48,-58,-4,-29,-39,4
29,68,39,-48,-4,53,-78,-92,-24,-39,-48,4
29,53,24,-41,2,39,-92,-112,-43,-53,-53,0
34,48,14,-41,9,31,-97,-112,-48,-53,-53,0
43,43,0,-43,21,21,-97,-107,-53,-58,-58,-4
48,43,-4,-46,26,19,-87,-102,-53,-63,-53,0
48,43,-4,-46,26,19,-82,-102,-53,-63,-48,4
34,48,14,-41,9,31,-73,-102,-48,-58,-48,9
24,58,34,-41,-4,46,-63,-97,-43,-58,-43,9
24,68,43,-46,-9,56,-53,-82,-29,-39,-24,14
19,63,43,-41,-12,53,-43,-82,-24,-29,-19,14
19,43,24,-31,-2,34,-43,-78,-24,-39,-34,9
9,24,14,-17,-2,19,-39,-73,-39,-53,-53,-14
-4,-4,0,4,-2,-2,-39,-82,-53,-73,-73,-29
-24,-19,4,21,-14,-7,-34,-92,-68,-82,-82,-43
-34,-48,-14,41,-9,-31,-34,-92,-78,-92,-87,-53
-43,-58,-14,51,-14,-36,-34,-102,-78,-97,-102,-63
-53,-73,-19,63,-17,-46,-29,-107,-87,-112,-112,-73
-58,-82,-24,70,-17,-53,-24,-107,-87,-112,-117,-78
-58,-82,-24,70,-17,-53,-24,-112,-87,-112,-117,-73
-58,-92,-34,75,-12,-63,-19,-112,-87,-112,-117,-68
-58,-87,-29,73,-14,-58,-24,-112,-92,-112,-117,-68
-58,-82,-24,70,-17,-53,-29,-112,-97,-117,-122,-78
-63,-87,-24,75,-19,-56,-29,-112,-97,-117,-122,-82
-63,-87,-24,75,-19,-56,-24,-112,-97,-117,-122,-82
-63,-87,-24,75,-19,-56,-19,-112,-97,-117,-122,-82
-63,-87,-24,75,-19,-56,-14,-112,-102,-122,-122,-87
-63,-87,-24,75,-19,-56,-14,-112,-102,-122,-122,-87
-63,-92,-29,78,-17,-61,-14,-112,-97,-122,-122,-87
-68,-97,-29,82,-19,-63,-9,-112,-97,-122,-122,-82
-68,-97,-29,82,-19,-63,-9,-112,-97,-117,-122,-82
-68,-97,-29,82,-19,-63,-9,-112,-97,-117,-122,-82
-63,-92,-29,78,-17,-61,-14,-112,-97,-122,-122,-87
-63,-92,-29,78,-17,-61,-19,-112,-97,-122,-117,-87
-68,-92,-24,80,-21,-58,-24,-112,-97,-122,-112,-87
-68,-92,-24,80,-21,-58,-24,-107,-97,-117,-112,-87
-68,-92,-24,80,-21,-58,-29,-107,-97,-117,-107,-82
-73,-102,-29,87,-21,-65,-29,-102,-92,-112,-112,-82
-82,-102,-19,92,-31,-61,-9,-82,-58,-107,-102,-78
-97,-92,4,95,-51,-43,48,-39,0,-87,-102,-82
-112,-87,24,100,-68,-31,92,9,68,-43,-82,-82
-117,-68,48,92,-82,-9,92,29,126,19,-34,-43
-73,-43,29,58,-51,-7,48,39,200,117,53,29
-4,-48,-43,26,19,-46,-53,4,229,200,126,82
146,0,-146,-73,146,-73,-219,-92,224,312,244,180
317,97,-219,-207,268,-61,-453,-297,141,439,405,331
488,219,-268,-353,378,-24,-756,-585,4,546,561,507
692,375,-317,-534,505,29,-1102,-795,-87,692,756,692
897,492,-405,-695,651,43,-1405,-961,-209,785,897,849
1078,556,-522,-817,800,17,-1659,-1117,-370,790,971,951
1176,541,-634,-858,905,-46,-1761,-1151,-483,692,946,966
1054,488,-566,-771,810,-39,-1654,-1215,-717,366,707,814
761,444,-317,-602,539,63,-1381,-1234,-873,34,439,624
390,370,-19,-380,204,175,-1015,-1156,-868,-165,214,429
165,302,136,-234,14,219,-732,-1010,-780,-253,73,283
107,224,117,-165,-4,170,-541,-795,-629,-253,9,175
63,151,87,-107,-12,119,-390,-580,-497,-248,-48,87
14,58,43,-36,-14,51,-209,-336,-322,-195,-73,14
-34,4,39,14,-36,21,-78,-180,-180,-151,-68,-14
-43,-14,29,29,-36,7,-24,-136,-122,-131,-68,-29
-48,-39,9,43,-29,-14,0,-87,-102,-126,-82,-53
-53,-68,-14,61,-19,-41,39,-9,-63,-122,-102,-78
-63,-82,-19,73,-21,-51,73,24,-34,-117,-107,-87
-78,-92,-14,85,-31,-53,78,14,-34,-112,-107,-92
-82,-97,-14,90,-34,-56,78,14,-34,-107,-112,-97
-87,-102,-14,95,-36,-58,82,34,-29,-107,-112,-102
-87,-102,-14,95,-36,-58,92,48,-19,-107,-112,-107
-87,-97,-9,92,-39,-53,92,48,-14,-102,-112,-107
-87,-92,-4,90,-41,-48,97,53,-9,-102,-112,-102
-82,-92,-9,87,-36,-51,97,58,-9,-102,-112,-102
-82,-92,-9,87,-36,-51,97,63,-4,-102,-112,-102
-82,-92,-9,87,-36,-51,107,68,0,-97,-117,-107
-82,-92,-9,87,-36,-51,117,73,4,-97,-122,-107
-82,-97,-14,90,-34,-56,117,78,9,-97,-122,-107
-82,-102,-19,92,-31,-61,117,82,24,-92,-122,-107
-82,-97,-14,90,-34,-56,117,87,24,-92,-117,-102
-82,-97,-14,90,-34,-56,122,87,29,-87,-112,-102
-87,-92,-4,90,-41,-48,122,97,39,-87,-102,-102
-87,-87,0,87,-43,-43,126,102,39,-87,-97,-102
-87,-87,0,87,-43,-43,126,107,43,-82,-97,-102
-87,-87,0,87,-43,-43,131,112,48,-82,-97,-102
-87,-82,4,85,-46,-39,131,126,53,-82,-102,-102
-87,-82,4,85,-46,-39,141,131,68,-82,-107,-102
-87,-82,4,85,-46,-39,146,136,78,-78,-102,-102
-87,-78,9,82,-48,-34,151,141,87,-73,-102,-97
-87,-73,14,80,-51,-29,151,151,92,-68,-97,-97
-87,-73,14,80,-51,-29,156,161,97,-63,-97,-97
-87,-63,24,75,-56,-19,165,180,107,-58,-92,-92
-87,-58,29,73,-58,-14,175,200,126,-53,-92,-92
-87,-53,34,70,-61,-9,180,209,136,-48,-87,-92
-87,-48,39,68,-63,-4,190,234,146,-39,-82,-92
-87,-43,43,65,-65,0,195,248,165,-34,-78,-87
-92,-29,63,61,-78,17,200,263,190,-29,-78,-82
-92,-29,63,61,-78,17,219,287,200,-24,-68,-78
-92,-9,82,51,-87,36,229,307,224,-9,-63,-78
-92,-14,78,53,-85,31,244,331,248,4,-63,-73
-92,-4,87,48,-90,41,253,361,268,19,-48,-73
-92,9,102,41,-97,56,268,385,292,29,-43,-63
-92,24,117,34,-104,70,283,405,317,39,-34,-58
-92,34,126,29,-109,80,292,434,336,48,-34,-58
-97,48,146,24,-122,97,312,468,366,58,-24,-53
-97,68,165,14,-131,117,317,492,395,73,-19,-53
-92,73,165,9,-129,119,331,517,414,82,-14,-43
-92,87,180,2,-136,134,346,551,439,92,0,-34
-87,102,190,-7,-139,146,361,575,453,102,4,-29
-87,112,200,-12,-143,156,370,600,478,117,9,-24
-87,131,219,-21,-153,175,375,619,492,126,9,-24
-87,136,224,-24,-156,180,380,634,507,126,24,-14
-78,146,224,-34,-151,185,380,644,517,136,24,-14
-78,156,234,-39,-156,195,380,658,531,146,29,-4
-73,161,234,-43,-153,197,380,663,536,146,29,0
-73,165,239,-46,-156,202,380,668,536,146,34,4
-73,175,248,-51,-161,212,375,668,536,146,39,9
-63,180,244,-58,-153,212,366,668,541,151,39,9
-58,180,239,-61,-148,209,351,649,527,151,43,14
-48,185,234,-68,-141,209,331,634,517,156,48,19
-43,185,229,-70,-136,207,312,600,497,146,48,29
-43,170,214,-63,-129,192,292,570,463,136,53,29
-29,156,185,-63,-107,170,268,536,429,136,58,29
-19,146,165,-63,-92,156,239,492,400,126,53,29
-9,141,151,-65,-80,146,214,434,361,112,48,24
-4,136,141,-65,-73,139,185,385,317,92,43,24
-4,126,131,-61,-68,129,156,331,278,87,39,19
0,112,112,-56,-56,112,126,283,239,68,34,19
4,97,92,-51,-43,95,107,234,204,53,24,24
9,82,73,-46,-31,78,82,185,165,43,24,19
14,78,63,-46,-24,70,58,141,141,29,9,9
14,58,43,-36,-14,51,48,107,112,19,4,9
14,48,34,-31,-9,41,29,73,82,9,0,0
9,34,24,-21,-7,29,14,39,48,4,-4,0
9,24,14,-17,-2,19,0,9,19,4,-4,0
9,14,4,-12,2,9,-4,-4,14,-9,-9,-9
4,14,9,-9,-2,12,-4,-19,4,-24,-19,-19
0,0,0,0,0,0,-9,-29,-9,-29,-19,-24
-4,-9,-4,7,0,-7,-14,-39,-19,-29,-24,-29
-4,-14,-9,9,2,-12,-14,-48,-24,-29,-24,-29
-4,-24,-19,14,7,-21,-14,-48,-29,-29,-24,-34
-9,-29,-19,19,4,-24,-19,-53,-34,-29,-29,-34
-9,-29,-19,19,4,-24,-19,-53,-39,-39,-29,-34
-9,-29,-19,19,4,-24,-19,-53,-39,-39,-29,-34
-4,-29,-24,17,9,-26,-19,-53,-39,-39,-29,-39
-4,-34,-29,19,12,-31,-19,-53,-39,-34,-34,-39
-4,-34,-29,19,12,-31,-19,-53,-39,-29,-34,-39
-4,-29,-24,17,9,-26,-24,-58,-43,-29,-34,-39
-4,-29,-24,17,9,-26,-24,-58,-43,-29,-34,-39
-4,-29,-24,17,9,-26,-24,-63,-34,-29,-29,-34
-9,-29,-19,19,4,-24,-24,-63,-34,-29,-29,-34
-9,-29,-19,19,4,-24,-24,-58,-29,-24,-24,-29
-9,-24,-14,17,2,-19,-19,-58,-29,-19,-24,-29
-9,-24,-14,17,2,-19,-19,-53,-24,-19,-24,-24
-9,-24,-14,17,2,-19,-19,-48,-24,-19,-24,-19
-4,-24,-19,14,7,-21,-14,-48,-24,-19,-24,-19
0,-24,-24,12,12,-24,-14,-48,-24,-19,-24,-19
0,-24,-24,12,12,-24,-19,-48,-24,-19,-24,-19
0,-19,-19,9,9,-19,-19,-43,-24,-14,-19,-19
-4,-19,-14,12,4,-17,-14,-43,-24,-14,-19,-19
-4,-14,-9,9,2,-12,-14,-39,-24,-14,-19,-14
-4,-14,-9,9,2,-12,-9,-34,-14,-9,-19,-19
-9,-14,-4,12,-2,-9,-9,-29,-14,-9,-19,-24
-4,-9,-4,7,0,-7,-9,-29,-14,-4,-14,-24
-4,-4,0,4,-2,-2,-14,-29,-9,-4,-14,-24
-4,-4,0,4,-2,-2,-14,-29,-9,-4,-14,-24
-4,-4,0,4,-2,-2,-14,-29,-9,-4,-9,-24
-4,-9,-4,7,0,-7,-4,-19,-4,0,-9,-14
-4,-14,-9,9,2,-12,0,-19,0,4,-9,-9
-4,-14,-9,9,2,-12,0,-19,0,4,-9,-9
-9,-9,0,9,-4,-4,0,-19,0,4,-9,-9
-9,-4,4,7,-7,0,0,-19,0,0,-9,-14
-9,-4,4,7,-7,0,0,-19,0,-4,-4,-24
-9,-14,-4,12,-2,-9,0,-24,0,-9,-4,-24
-9,-14,-4,12,-2,-9,0,-24,0,-9,-4,-29
-14,-14,0,14,-7,-7,0,-24,4,-4,-9,-24
-19,-19,0,19,-9,-9,0,-24,4,0,-9,-19
-19,-19,0,19,-9,-9,0,-24,0,-4,-9,-19
-19,-24,-4,21,-7,-14,0,-29,0,-4,-9,-19
-19,-29,-9,24,-4,-19,4,-29,0,-9,-14,-19
-19,-29,-9,24,-4,-19,4,-29,-4,-9,-14,-19
-19,-29,-9,24,-4,-19,4,-34,-4,-9,-14,-19
-19,-29,-9,24,-4,-19,4,-39,-9,-9,-19,-24
-24,-24,0,24,-12,-12,0,-39,-9,-19,-19,-24
-24,-19,4,21,-14,-7,-4,-39,-9,-24,-24,-29
-24,-29,-4,26,-9,-17,-4,-43,-14,-29,-24,-29
-24,-29,-4,26,-9,-17,-4,-48,-19,-29,-24,-29
-24,-29,-4,26,-9,-17,0,-48,-19,-29,-24,-34
-24,-29,-4,26,-9,-17,0,-53,-19,-34,-24,-39
-24,-29,-4,26,-9,-17,0,-53,-34,-34,-24,-39
-24,-29,-4,26,-9,-17,0,-53,-43,-34,-29,-39
-24,-29,-4,26,-9,-17,0,-53,-43,-34,-29,-43
-29,-29,0,29,-14,-14,0,-53,-48,-29,-29,-43
-29,-29,0,29,-14,-14,0,-63,-48,-29,-34,-43
-29,-29,0,29,-14,-14,-4,-63,-53,-34,-34,-43
-34,-29,4,31,-19,-12,-4,-63,-48,-34,-34,-48
-34,-29,4,31,-19,-12,-4,-63,-43,-39,-34,-48
-34,-34,0,34,-17,-17,0,-63,-43,-39,-34,-48
-34,-34,0,34,-17,-17,0,-63,-48,-39,-34,-48
-34,-34,0,34,-17,-17,0,-68,-48,-39,-34,-48
-34,-34,0,34,-17,-17,-4,-68,-53,-39,-34,-48
-34,-34,0,34,-17,-17,-4,-68,-53,-39,-34,-48
-34,-34,0,34,-17,-17,-4,-68,-53,-39,-34,-48
-29,-39,-9,34,-9,-24,0,-68,-53,-39,-34,-43
-24,-43,-19,34,-2,-31,0,-68,-53,-39,-39,-39
-24,-43,-19,34,-2,-31,0,-73,-53,-43,-39,-39
-24,-43,-19,34,-2,-31,-4,-73,-53,-43,-39,-39
-29,-43,-14,36,-7,-29,-4,-73,-53,-43,-39,-43
-34,-43,-9,39,-12,-26,-4,-73,-53,-43,-39,-48
-29,-53,-24,41,-2,-39,-9,-73,-58,-43,-39,-48
-29,-53,-24,41,-2,-39,-14,-73,-58,-43,-34,-48
-34,-48,-14,41,-9,-31,-14,-73,-53,-43,-34,-43
-34,-48,-14,41,-9,-31,-14,-73,-53,-43,-39,-43
-39,-48,-9,43,-14,-29,-9,-73,-58,-48,-39,-43
-39,-43,-4,41,-17,-24,-9,-73,-58,-53,-39,-43
-39,-43,-4,41,-17,-24,-14,-73,-63,-53,-39,-48
-39,-48,-9,43,-14,-29,-14,-68,-63,-48,-34,-53
-39,-48,-9,43,-14,-29,-9,-68,-63,-48,-39,-53
-39,-43,-4,41,-17,-24,-9,-68,-63,-48,-43,-53
-39,-48,-9,43,-14,-29,-14,-68,-63,-48,-43,-53
-34,-53,-19,43,-7,-36,-14,-68,-63,-43,-39,-53
-34,-58,-24,46,-4,-41,-9,-68,-68,-43,-48,-53
-34,-53,-19,43,-7,-36,-9,-73,-73,-43,-48,-53
-34,-48,-14,41,-9,-31,-14,-73,-68,-48,-43,-58
-34,-53,-19,43,-7,-36,-19,-68,-63,-53,-43,-58
-34,-53,-19,43,-7,-36,-19,-68,-63,-58,-43,-58
-34,-53,-19,43,-7,-36,-14,-68,-63,-53,-43,-58
-39,-48,-9,43,-14,-29,-14,-73,-63,-53,-48,-63
-39,-48,-9,43,-14,-29,-14,-73,-68,-48,-48,-58
-43,-53,-9,48,-17,-31,-14,-73,-68,-53,-43,-58
-43,-43,0,43,-21,-21,-14,-73,-63,-48,-39,-53
-39,-43,-4,41,-17,-24,-9,-73,-63,-48,-39,-58
-39,-43,-4,41,-17,-24,-9,-73,-68,-53,-43,-63
-39,-48,-9,43,-14,-29,-9,-73,-68,-53,-39,-58
-39,-58,-19,48,-9,-39,-9,-78,-68,-58,-39,-58
-39,-58,-19,48,-9,-39,-9,-78,-68,-58,-39,-58
-39,-58,-19,48,-9,-39,-9,-78,-68,-58,-39,-58
-39,-58,-19,48,-9,-39,-9,-73,-68,-58,-43,-58
-39,-58,-19,48,-9,-39,-9,-68,-68,-58,-48,-58
-39,-48,-9,43,-14,-29,-9,-68,-68,-58,-48,-58
-39,-39,0,39,-19,-19,-9,-68,-68,-58,-48,-58
-29,-29,0,29,-14,-14,-4,-63,-63,-53,-43,-53
-19,-19,0,19,-9,-9,0,-58,-58,-48,-39,-48
-9,-4,4,7,-7,0,4,-48,-43,-39,-29,-39
0,9,9,-4,-4,9,9,-39,-29,-29,-19,-29
0,9,9,-4,-4,9,19,-29,-19,-19,-9,-24
0,9,9,-4,-4,9,29,-19,-9,-9,0,-19
0,14,14,-7,-7,14,34,-14,-4,-4,0,-19
0,19,19,-9,-9,19,39,-9,0,0,0,-19
9,24,14,-17,-2,19,39,0,4,9,4,-14
19,29,9,-24,4,19,39,9,9,19,9,-9
24,39,14,-31,4,26,29,9,9,19,14,-9
29,48,19,-39,4,34,19,9,9,19,19,-9
29,53,24,-41,2,39,0,-4,9,19,19,-9
29,58,29,-43,0,43,-24,-19,0,14,19,-4
34,68,34,-51,0,51,-48,-39,-14,9,19,-4
39,68,29,-53,4,48,-73,-68,-34,0,9,-4
39,53,14,-46,12,34,-82,-87,-53,-14,4,-9
39,48,9,-43,14,29,-82,-92,-53,-14,4,-9
43,43,0,-43,21,21,-82,-87,-58,-19,-4,-14
43,43,0,-43,21,21,-78,-82,-63,-19,-9,-14
39,43,4,-41,17,24,-73,-82,-63,-14,-9,-14
24,48,24,-36,0,36,-63,-82,-58,-9,-9,-9
19,58,39,-39,-9,48,-53,-78,-48,-4,-4,-4
19,58,39,-39,-9,48,-43,-63,-34,9,9,4
9,43,34,-26,-12,39,-34,-63,-34,9,14,4
9,24,14,-17,-2,19,-34,-63,-34,0,4,0
0,9,9,-4,-4,9,-29,-63,-48,-14,-14,-24
-9,-14,-4,12,-2,-9,-29,-73,-58,-29,-34,-39
-24,-29,-4,26,-9,-17,-19,-82,-68,-34,-43,-53
-34,-53,-19,43,-7,-36,-14,-82,-78,-43,-43,-58
-43,-58,-14,51,-14,-36,-14,-92,-78,-53,-53,-68
-48,-63,-14,56,-17,-39,-14,-97,-92,-73,-63,-82
-53,-68,-14,61,-19,-41,-14,-97,-97,-73,-68,-87
-58,-73,-14,65,-21,-43,-14,-97,-97,-73,-68,-87
-58,-82,-24,70,-17,-53,-9,-92,-97,-73,-68,-87
-58,-82,-24,70,-17,-53,-9,-92,-97,-73,-68,-87
-58,-82,-24,70,-17,-53,-9,-92,-97,-78,-73,-92
-63,-87,-24,75,-19,-56,-9,-92,-97,-78,-73,-87
-63,-87,-24,75,-19,-56,-4,-92,-97,-78,-73,-82
-63,-87,-24,75,-19,-56,-4,-92,-97,-78,-73,-82
-63,-87,-24,75,-19,-56,-4,-92,-102,-82,-73,-87
-63,-87,-24,75,-19,-56,-4,-92,-102,-82,-73,-87
-63,-92,-29,78,-17,-61,-4,-92,-97,-82,-73,-87
-68,-97,-29,82,-19,-63,0,-92,-97,-82,-73,-82
-68,-97,-29,82,-19,-63,0,-92,-97,-78,-73,-82
