I,II,III,aVR,aVL,aVF,V1,V2,V3,V4,V5,V6,
-19,-29,-9,24,-4,-19,-9,-78,-58,-68,-48,-19
-19,-29,-9,24,-4,-19,-9,-87,-73,-73,-48,-24
-19,-29,-9,24,-4,-19,-9,-97,-87,-78,-48,-29
-24,-34,-9,29,-7,-21,-9,-102,-87,-82,-48,-29
-29,-39,-9,34,-9,-24,-9,-107,-87,-87,-48,-29
-29,-43,-14,36,-7,-29,-9,-112,-92,-92,-58,-34
-29,-48,-19,39,-4,-34,-9,-117,-97,-97,-68,-39
-29,-48,-19,39,-4,-34,-9,-117,-102,-102,-68,-39
-29,-48,-19,39,-4,-34,-9,-117,-107,-107,-68,-39
-29,-48,-19,39,-4,-34,-9,-117,-107,-107,-68,-43
-29,-48,-19,39,-4,-34,-9,-117,-107,-107,-68,-48
-29,-48,-19,39,-4,-34,-4,-117,-107,-107,-73,-48
-29,-48,-19,39,-4,-34,0,-117,-107,-107,-78,-48
-34,-48,-14,41,-9,-31,0,-117,-107,-107,-78,-48
-39,-48,-9,43,-14,-29,0,-117,-107,-107,-78,-48
-39,-48,-9,43,-14,-29,0,-122,-107,-107,-78,-53
-39,-48,-9,43,-14,-29,0,-126,-107,-107,-78,-58
-43,-53,-9,48,-17,-31,4,-126,-107,-107,-78,-58
-48,-58,-9,53,-19,-34,9,-126,-107,-107,-78,-58
-53,-58,-4,56,-24,-31,14,-122,-102,-107,-82,-58
-58,-58,0,58,-29,-29,19,-117,-97,-107,-87,-58
-63,-58,4,61,-34,-26,19,-112,-92,-107,-87,-58
-68,-58,9,63,-39,-24,19,-107,-87,-107,-87,-58
-68,-63,4,65,-36,-29,24,-107,-87,-107,-87,-63
-68,-68,0,68,-34,-34,29,-107,-87,-107,-87,-68
-73,-68,4,70,-39,-31,34,-102,-82,-107,-87,-68
-78,-68,9,73,-43,-29,39,-97,-78,-107,-87,-68
-78,-68,9,73,-43,-29,43,-92,-73,-97,-87,-68
-78,-68,9,73,-43,-29,48,-87,-68,-87,-87,-68
-78,-73,4,75,-41,-34,48,-82,-68,-87,-87,-73
-78,-78,0,78,-39,-39,48,-78,-68,-87,-87,-78
-78,-78,0,78,-39,-39,48,-78,-63,-92,-87,-78
-78,-78,0,78,-39,-39,48,-73,-58,-92,-87,-78
-78,-78,0,78,-39,-39,53,-68,-58,-97,-87,-78
-78,-78,0,78,-39,-39,53,-63,-58,-97,-87,-78
-78,-78,0,78,-39,-39,48,-63,-53,-92,-87,-78
-73,-68,4,70,-39,-31,48,-58,-39,-82,-82,-73
-63,-48,14,56,-39,-17,53,-39,-29,-63,-68,-63
-53,-24,29,39,-41,2,53,-24,-14,-48,-58,-53
-43,-9,34,26,-39,12,58,-19,-4,-34,-48,-39
-34,4,39,14,-36,21,58,-19,0,-34,-39,-34
-34,9,43,12,-39,26,58,-19,0,-34,-39,-29
-29,14,43,7,-36,29,63,-14,4,-24,-34,-29
-29,19,48,4,-39,34,68,-9,14,-19,-29,-19
-24,29,53,-2,-39,41,68,0,24,-14,-24,-9
-9,53,63,-21,-36,58,68,9,34,4,4,4
9,87,78,-48,-34,82,48,9,43,24,24,29
24,112,87,-68,-31,100,29,-4,43,24,19,43
24,97,73,-61,-24,85,-9,-48,0,-9,0,19
29,97,68,-63,-19,82,-39,-82,-14,-19,-4,19
39,102,63,-70,-12,82,-39,-82,-14,-19,-4,19
39,102,63,-70,-12,82,-43,-82,-14,-19,4,29
48,102,53,-75,-2,78,-53,-73,-14,-9,14,34
53,92,39,-73,7,65,-53,-73,-24,-9,14,34
53,68,14,-61,19,41,-53,-92,-48,-34,-4,19
53,39,-14,-46,34,12,-48,-112,-73,-68,-29,0
34,14,-19,-24,26,-2,-43,-131,-102,-87,-58,-19
-9,4,14,2,-12,9,-29,-136,-102,-92,-63,-24
-43,-34,9,39,-26,-12,-9,-141,-112,-112,-78,-43
-68,-58,9,63,-39,-24,4,-146,-126,-126,-97,-63
-78,-73,4,75,-41,-34,4,-151,-136,-136,-107,-78
-82,-92,-9,87,-36,-51,4,-156,-146,-146,-122,-87
-82,-112,-29,97,-26,-70,4,-156,-151,-156,-126,-92
-82,-117,-34,100,-24,-75,4,-156,-161,-161,-131,-102
-82,-117,-34,100,-24,-75,4,-161,-161,-161,-136,-102
-82,-122,-39,102,-21,-80,4,-161,-161,-165,-136,-102
-82,-122,-39,102,-21,-80,4,-156,-156,-170,-136,-102
-82,-122,-39,102,-21,-80,9,-156,-161,-165,-131,-102
-82,-122,-39,102,-21,-80,9,-151,-161,-161,-131,-102
-82,-126,-43,104,-19,-85,9,-156,-161,-161,-131,-102
-82,-131,-48,107,-17,-90,9,-161,-161,-165,-131,-102
-82,-146,-63,114,-9,-104,19,-146,-165,-165,-151,-117
-97,-161,-63,129,-17,-112,68,-78,-136,-165,-165,-136
-122,-161,-39,141,-41,-100,131,24,-73,-170,-180,-170
-146,-151,-4,148,-70,-78,195,107,19,-126,-170,-170
-146,-102,43,124,-95,-29,244,200,141,-4,-68,-107
-107,-19,87,63,-97,34,258,317,292,185,112,43
14,102,87,-58,-36,95,239,478,531,468,405,278
165,317,151,-241,7,234,165,473,775,824,780,600
395,595,200,-495,97,397,-43,283,917,1239,1259,1039
751,888,136,-819,307,512,-322,175,1024,1673,1795,1546
1117,1220,102,-1168,507,661,-619,107,1127,2083,2303,2020
1283,1390,107,-1337,588,749,-932,-229,912,2064,2425,2200
1210,1400,190,-1305,509,795,-1220,-839,463,1761,2235,2156
1039,990,-48,-1015,544,470,-1278,-1166,-34,1220,1732,1766
873,497,-375,-685,624,61,-1278,-1395,-644,400,888,1058
595,102,-492,-348,544,-195,-1107,-1537,-1093,-444,-34,287
253,-4,-258,-124,256,-131,-810,-1493,-1200,-844,-497,-117
131,-14,-146,-58,139,-80,-551,-1058,-907,-688,-444,-151
58,-48,-107,-4,82,-78,-317,-649,-624,-517,-385,-190
-58,-107,-48,82,-4,-78,-131,-366,-395,-370,-307,-209
-102,-170,-68,136,-17,-119,-29,-175,-224,-244,-229,-195
-117,-180,-63,148,-26,-122,29,-92,-161,-185,-209,-185
-122,-180,-58,151,-31,-119,39,-92,-161,-195,-204,-180
-122,-180,-58,151,-31,-119,43,-92,-161,-195,-195,-175
-122,-190,-68,156,-26,-129,48,-63,-146,-190,-195,-175
-122,-195,-73,158,-24,-134,58,-53,-141,-180,-190,-175
-122,-195,-73,158,-24,-134,68,-53,-141,-175,-190,-175
-126,-195,-68,161,-29,-131,68,-53,-136,-175,-185,-175
-126,-190,-63,158,-31,-126,68,-43,-126,-165,-185,-170
-122,-190,-68,156,-26,-129,68,-34,-117,-161,-180,-170
-117,-185,-68,151,-24,-126,73,-29,-117,-156,-175,-165
-112,-180,-68,146,-21,-124,73,-34,-112,-151,-170,-165
-112,-180,-68,146,-21,-124,73,-24,-97,-146,-170,-165
-112,-175,-63,143,-24,-119,68,-14,-87,-141,-165,-165
-112,-170,-58,141,-26,-114,73,-4,-82,-136,-161,-161
-112,-165,-53,139,-29,-109,73,0,-78,-136,-156,-156
-112,-165,-53,139,-29,-109,73,4,-73,-126,-156,-156
-112,-161,-48,136,-31,-104,73,14,-63,-126,-151,-156
-112,-165,-53,139,-29,-109,82,34,-58,-117,-146,-156
-107,-165,-58,136,-24,-112,87,43,-48,-112,-146,-156
-107,-161,-53,134,-26,-107,92,53,-39,-102,-141,-151
-107,-161,-53,134,-26,-107,92,63,-34,-97,-136,-146
-107,-161,-53,134,-26,-107,92,73,-24,-92,-136,-146
-107,-156,-48,131,-29,-102,97,87,-14,-82,-126,-146
-107,-156,-48,131,-29,-102,97,102,0,-68,-122,-146
-107,-151,-43,129,-31,-97,102,117,14,-53,-117,-141
-107,-141,-34,124,-36,-87,102,141,29,-48,-112,-136
-107,-131,-24,119,-41,-78,107,170,43,-34,-102,-131
-102,-131,-29,117,-36,-80,107,190,68,-29,-92,-126
-102,-126,-24,114,-39,-75,117,214,82,-19,-82,-126
-102,-122,-19,112,-41,-70,117,234,97,-4,-78,-122
-102,-117,-14,109,-43,-65,131,263,117,4,-68,-122
-102,-112,-9,107,-46,-61,131,302,136,24,-68,-122
-102,-97,4,100,-53,-46,136,341,165,39,-68,-122
-97,-97,0,97,-48,-48,146,380,185,53,-68,-122
-92,-87,4,90,-48,-41,146,414,204,63,-63,-122
-87,-78,9,82,-48,-34,156,453,229,73,-58,-126
-87,-68,19,78,-53,-24,161,488,258,87,-58,-126
-92,-63,29,78,-61,-17,175,527,278,97,-53,-122
-97,-53,43,75,-70,-4,180,561,297,102,-48,-122
-92,-39,53,65,-73,7,185,585,312,107,-53,-131
-92,-24,68,58,-80,21,185,605,322,107,-63,-131
-92,-14,78,53,-85,31,185,624,326,107,-63,-131
-87,-9,78,48,-82,34,180,629,331,112,-68,-131
-78,-4,73,41,-75,34,175,634,331,112,-68,-131
-73,4,78,34,-75,41,170,634,336,107,-68,-126
-68,14,82,26,-75,48,175,634,336,107,-68,-131
-58,24,82,17,-70,53,165,624,331,107,-68,-126
-53,24,78,14,-65,51,161,595,317,97,-63,-122
-43,24,68,9,-56,46,156,561,302,87,-58,-117
-34,29,63,2,-48,46,146,522,287,87,-63,-107
-34,39,73,-2,-53,56,136,478,268,87,-63,-97
-24,39,63,-7,-43,51,112,424,239,73,-48,-82
-19,43,63,-12,-41,53,97,361,209,58,-39,-68
-14,48,63,-17,-39,56,82,307,185,53,-34,-58
-14,53,68,-19,-41,61,58,248,151,43,-29,-48
-4,53,58,-24,-31,56,48,190,117,29,-24,-34
0,39,39,-19,-19,39,39,141,87,14,-19,-24
0,34,34,-17,-17,34,29,87,58,0,-24,-19
-4,29,34,-12,-19,31,19,48,24,-14,-29,-14
-9,19,29,-4,-19,24,9,14,0,-34,-34,-19
-14,4,19,4,-17,12,4,-19,-19,-39,-34,-19
-19,0,19,9,-19,9,0,-43,-34,-48,-39,-19
-19,-9,9,14,-14,0,-4,-58,-39,-58,-48,-24
-24,-14,9,19,-17,-2,-4,-73,-58,-68,-53,-29
-29,-14,14,21,-21,0,-4,-92,-63,-78,-53,-29
-34,-14,19,24,-26,2,-9,-97,-68,-78,-53,-34
-34,-19,14,26,-24,-2,-9,-102,-78,-82,-58,-34
-34,-24,9,29,-21,-7,-4,-107,-82,-87,-63,-34
-34,-29,4,31,-19,-12,0,-102,-82,-92,-68,-39
-34,-34,0,34,-17,-17,0,-107,-87,-92,-68,-39
-34,-48,-14,41,-9,-31,-4,-107,-87,-97,-68,-43
-39,-48,-9,43,-14,-29,-9,-112,-97,-102,-73,-43
-43,-53,-9,48,-17,-31,-14,-117,-107,-102,-78,-48
-43,-53,-9,48,-17,-31,-14,-117,-107,-102,-78,-48
-43,-53,-9,48,-17,-31,-14,-117,-107,-107,-78,-48
-39,-53,-14,46,-12,-34,-9,-117,-107,-107,-78,-53
-34,-53,-19,43,-7,-36,-4,-117,-107,-107,-82,-53
-34,-53,-19,43,-7,-36,-4,-122,-107,-107,-82,-53
-34,-53,-19,43,-7,-36,-4,-126,-107,-107,-82,-53
-48,-53,-4,51,-21,-29,0,-122,-107,-107,-82,-58
-53,-53,0,53,-26,-26,0,-122,-107,-112,-87,-58
-53,-58,-4,56,-24,-31,0,-117,-102,-112,-87,-58
-58,-58,0,58,-29,-29,4,-112,-102,-112,-92,-58
-58,-58,0,58,-29,-29,9,-112,-102,-112,-92,-63
-58,-58,0,58,-29,-29,19,-112,-97,-112,-92,-68
-58,-58,0,58,-29,-29,19,-112,-97,-112,-92,-68
-53,-63,-9,58,-21,-36,24,-107,-92,-107,-92,-68
-58,-63,-4,61,-26,-34,24,-102,-87,-107,-92,-68
-63,-68,-4,65,-29,-36,24,-92,-82,-102,-92,-73
-68,-73,-4,70,-31,-39,29,-87,-73,-97,-92,-78
-78,-78,0,78,-39,-39,39,-87,-68,-97,-97,-87
-78,-78,0,78,-39,-39,39,-78,-63,-97,-97,-82
-78,-78,0,78,-39,-39,39,-68,-58,-97,-97,-78
-78,-78,0,78,-39,-39,43,-68,-58,-92,-92,-78
-78,-78,0,78,-39,-39,48,-63,-58,-87,-87,-78
-78,-82,-4,80,-36,-43,53,-63,-58,-87,-87,-78
-78,-87,-9,82,-34,-48,53,-63,-58,-87,-87,-78
-78,-87,-9,82,-34,-48,48,-63,-58,-87,-92,-82
-73,-78,-4,75,-34,-41,48,-58,-48,-82,-92,-82
-63,-58,4,61,-34,-26,53,-39,-39,-68,-78,-73
-53,-34,19,43,-36,-7,53,-24,-24,-58,-68,-63
-48,-24,24,36,-36,0,58,-19,-14,-43,-63,-53
-43,-14,29,29,-36,7,58,-19,-9,-43,-58,-53
-43,-9,34,26,-39,12,58,-19,-9,-48,-58,-48
-39,-4,34,21,-36,14,63,-14,-4,-43,-53,-48
-39,0,39,19,-39,19,68,-9,4,-34,-48,-39
-34,9,43,12,-39,26,68,0,14,-24,-43,-29
-19,34,53,-7,-36,43,73,14,29,-4,-14,-14
0,68,68,-34,-34,68,58,19,43,14,4,9
19,112,92,-65,-36,102,39,14,53,19,9,29
24,117,92,-70,-34,104,0,-19,19,-9,0,9
29,117,87,-73,-29,102,-34,-63,-4,-19,-4,9
39,122,82,-80,-21,102,-39,-73,-14,-19,-4,9
39,122,82,-80,-21,102,-39,-73,-14,-19,0,24
48,122,73,-85,-12,97,-43,-63,-14,-9,4,34
53,112,58,-82,-2,85,-43,-63,-19,4,9,48
53,87,34,-70,9,61,-43,-82,-39,-4,-4,48
63,58,-4,-61,34,26,-48,-102,-63,-48,-29,9
53,34,-19,-43,36,7,-53,-122,-92,-78,-58,-29
9,19,9,-14,0,14,-39,-126,-92,-82,-68,-34
-24,-24,0,24,-12,-12,-19,-131,-102,-102,-87,-53
-48,-48,0,48,-24,-24,-4,-136,-117,-117,-107,-73
-58,-63,-4,61,-26,-34,-4,-141,-126,-126,-117,-87
-68,-87,-19,78,-24,-53,-4,-146,-136,-136,-131,-102
-73,-112,-39,92,-17,-75,-4,-146,-141,-146,-136,-112
-73,-117,-43,95,-14,-80,-4,-151,-156,-156,-141,-122
-73,-117,-43,95,-14,-80,-4,-161,-161,-161,-146,-122
-73,-122,-48,97,-12,-85,0,-161,-161,-161,-146,-122
-73,-122,-48,97,-12,-85,4,-156,-156,-161,-146,-122
-73,-126,-53,100,-9,-90,14,-156,-156,-156,-136,-117
-73,-131,-58,102,-7,-95,19,-151,-151,-151,-131,-112
-73,-136,-63,104,-4,-100,19,-151,-151,-151,-131,-112
-73,-141,-68,107,-2,-104,19,-151,-151,-156,-131,-112
-68,-151,-82,109,7,-117,4,-151,-170,-165,-151,-126
-78,-161,-82,119,2,-122,29,-97,-156,-175,-165,-146
-97,-170,-73,134,-12,-122,92,9,-102,-185,-190,-185
-117,-170,-53,143,-31,-112,156,97,-19,-146,-190,-190
-156,-141,14,148,-85,-63,229,180,92,-58,-131,-165
-156,-78,78,117,-117,0,268,287,234,97,4,-53
-68,14,82,26,-75,48,292,522,473,346,253,136
48,200,151,-124,-51,175,263,590,717,668,585,414
224,473,248,-348,-12,361,92,341,868,1049,1029,829
527,761,234,-644,146,497,-146,175,985,1449,1532,1312
985,1185,200,-1085,392,692,-439,204,1205,2044,2225,1942
1244,1449,204,-1346,519,827,-746,-34,1107,2210,2532,2278
1220,1610,390,-1415,414,1000,-1112,-727,692,2034,2508,2391
1098,1351,253,-1224,422,802,-1249,-1137,229,1620,2171,2156
980,785,-195,-883,588,295,-1332,-1405,-463,756,1312,1449
751,317,-434,-534,592,-58,-1244,-1586,-995,-131,375,678
346,136,-209,-241,278,-36,-946,-1678,-1249,-746,-317,92
161,53,-107,-107,134,-26,-688,-1381,-1102,-805,-492,-122
92,9,-82,-51,87,-36,-419,-873,-775,-619,-434,-180
-19,-58,-39,39,9,-48,-200,-492,-502,-458,-356,-219
-78,-141,-63,109,-7,-102,-68,-248,-287,-297,-263,-204
-107,-170,-63,139,-21,-117,19,-112,-180,-204,-229,-195
-112,-170,-58,141,-26,-114,34,-107,-175,-209,-219,-190
-112,-170,-58,141,-26,-114,43,-102,-170,-204,-204,-185
-112,-185,-73,148,-19,-129,48,-63,-146,-200,-204,-185
-112,-195,-82,153,-14,-139,58,-43,-131,-190,-200,-185
-112,-195,-82,153,-14,-139,68,-43,-131,-185,-200,-185
-117,-195,-78,156,-19,-136,68,-43,-126,-185,-195,-185
-117,-190,-73,153,-21,-131,68,-39,-122,-175,-195,-180
-112,-190,-78,151,-17,-134,68,-34,-117,-170,-190,-180
-112,-190,-78,151,-17,-134,73,-24,-117,-165,-185,-175
-112,-190,-78,151,-17,-134,73,-24,-112,-161,-180,-175
-112,-190,-78,151,-17,-134,78,-14,-102,-156,-180,-175
-112,-185,-73,148,-19,-129,78,-4,-97,-151,-175,-175
-107,-185,-78,146,-14,-131,82,4,-92,-146,-170,-170
-102,-185,-82,143,-9,-134,82,9,-87,-146,-165,-165
-102,-185,-82,143,-9,-134,78,14,-82,-136,-170,-170
-102,-180,-78,141,-12,-129,73,24,-73,-136,-170,-175
-102,-180,-78,141,-12,-129,78,39,-73,-126,-165,-175
-97,-175,-78,136,-9,-126,78,43,-68,-122,-165,-175
-97,-165,-68,131,-14,-117,82,53,-58,-112,-156,-165
-97,-161,-63,129,-17,-112,82,63,-53,-107,-146,-156
-97,-161,-63,129,-17,-112,82,73,-43,-102,-146,-156
-97,-156,-58,126,-19,-107,87,87,-34,-92,-136,-156
-92,-161,-68,126,-12,-114,87,102,-19,-82,-131,-156
-87,-161,-73,124,-7,-117,92,117,-4,-73,-126,-151
-87,-156,-68,122,-9,-112,92,131,0,-78,-131,-156
-87,-151,-63,119,-12,-107,97,151,4,-73,-131,-161
-82,-151,-68,117,-7,-109,97,170,29,-68,-126,-156
-82,-146,-63,114,-9,-104,107,195,43,-58,-122,-156
-82,-141,-58,112,-12,-100,107,209,58,-43,-117,-151
-82,-136,-53,109,-14,-95,122,234,78,-34,-107,-151
-82,-136,-53,109,-14,-95,122,263,92,-19,-102,-151
-82,-126,-43,104,-19,-85,126,292,117,-9,-97,-151
-82,-131,-48,107,-17,-90,131,331,136,4,-97,-151
-82,-126,-43,104,-19,-85,126,366,156,14,-92,-151
-78,-122,-43,100,-17,-82,136,405,170,24,-87,-156
-78,-117,-39,97,-19,-78,141,439,190,39,-87,-156
-78,-112,-34,95,-21,-73,151,478,214,48,-87,-156
-78,-102,-24,90,-26,-63,151,512,239,53,-87,-161
-68,-92,-24,80,-21,-58,156,536,253,58,-92,-175
-63,-82,-19,73,-21,-51,156,556,263,58,-102,-180
-63,-68,-4,65,-29,-36,161,575,273,58,-102,-180
-58,-58,0,58,-29,-29,161,580,283,63,-107,-180
-53,-48,4,51,-29,-21,156,590,283,68,-107,-180
-53,-34,19,43,-36,-7,151,595,287,68,-107,-175
-48,-24,24,36,-36,0,156,600,292,68,-107,-180
-39,-14,24,26,-31,4,146,595,292,68,-107,-175
-34,-4,29,19,-31,12,141,580,287,63,-102,-165
-24,4,29,9,-26,17,136,561,283,58,-97,-156
-14,9,24,2,-19,17,131,531,278,58,-97,-146
-14,19,34,-2,-24,26,126,497,268,58,-92,-136
-4,19,24,-7,-14,21,107,453,244,58,-78,-117
0,24,24,-12,-12,24,97,400,219,58,-68,-97
4,24,19,-14,-7,21,92,346,195,53,-53,-82
4,24,19,-14,-7,21,78,287,161,43,-39,-68
9,24,14,-17,-2,19,68,229,131,34,-34,-48
9,9,0,-9,4,4,58,180,107,24,-29,-34
4,4,0,-4,2,2,48,131,82,9,-29,-29
-4,0,4,2,-4,2,39,97,53,-4,-29,-24
-4,-4,0,4,-2,-2,29,58,24,-24,-34,-24
-4,-14,-9,9,2,-12,24,19,0,-29,-34,-19
-9,-19,-9,14,0,-14,19,-4,-19,-39,-39,-19
-9,-29,-19,19,4,-24,14,-19,-29,-48,-48,-24
-14,-34,-19,24,2,-26,9,-39,-53,-58,-53,-29
-19,-34,-14,26,-2,-24,4,-63,-63,-68,-53,-29
-24,-34,-9,29,-7,-21,0,-68,-68,-73,-53,-34
-24,-39,-14,31,-4,-26,0,-73,-78,-82,-58,-34
-24,-39,-14,31,-4,-26,0,-82,-82,-87,-63,-34
-24,-39,-14,31,-4,-26,0,-82,-82,-92,-68,-39
-24,-39,-14,31,-4,-26,4,-87,-87,-92,-73,-39
-24,-48,-24,36,0,-36,4,-87,-87,-97,-78,-43
-29,-48,-19,39,-4,-34,4,-92,-92,-102,-82,-43
-34,-53,-19,43,-7,-36,4,-97,-97,-102,-87,-48
-34,-53,-19,43,-7,-36,4,-92,-97,-97,-82,-48
-34,-53,-19,43,-7,-36,4,-87,-97,-97,-78,-48
-34,-53,-19,43,-7,-36,4,-87,-92,-97,-78,-53
-34,-53,-19,43,-7,-36,4,-87,-87,-97,-82,-53
-34,-53,-19,43,-7,-36,4,-87,-87,-97,-82,-53
-34,-53,-19,43,-7,-36,4,-87,-87,-97,-82,-53
-43,-53,-9,48,-17,-31,9,-82,-87,-97,-82,-63
-43,-53,-9,48,-17,-31,9,-82,-87,-102,-87,-68
-43,-58,-14,51,-14,-36,9,-87,-82,-107,-87,-68
-48,-58,-9,53,-19,-34,14,-92,-82,-112,-92,-68
-48,-58,-9,53,-19,-34,19,-92,-82,-112,-97,-73
-48,-58,-9,53,-19,-34,29,-92,-78,-112,-102,-78
-53,-58,-4,56,-24,-31,29,-92,-82,-112,-102,-78
-53,-63,-9,58,-21,-36,34,-87,-82,-107,-102,-78
-58,-63,-4,61,-26,-34,39,-87,-78,-107,-102,-78
-63,-68,-4,65,-29,-36,43,-82,-73,-102,-102,-82
-63,-68,-4,65,-29,-36,43,-73,-73,-97,-102,-87
-68,-73,-4,70,-31,-39,43,-68,-73,-97,-107,-92
-68,-73,-4,70,-31,-39,43,-63,-68,-97,-107,-92
-68,-78,-9,73,-29,-43,48,-58,-68,-97,-107,-97
-68,-82,-14,75,-26,-48,48,-58,-63,-102,-112,-97
-68,-87,-19,78,-24,-53,48,-58,-58,-107,-117,-97
-68,-87,-19,78,-24,-53,48,-58,-58,-107,-117,-97
-68,-87,-19,78,-24,-53,48,-53,-58,-107,-117,-97
-68,-87,-19,78,-24,-53,53,-53,-58,-107,-117,-102
-68,-87,-19,78,-24,-53,48,-53,-58,-107,-117,-107
-63,-82,-19,73,-21,-51,53,-48,-48,-102,-112,-102
-53,-68,-14,61,-19,-41,63,-34,-39,-87,-97,-92
-43,-43,0,43,-21,-21,63,-24,-24,-78,-87,-82
-39,-34,4,36,-21,-14,68,-19,-14,-63,-78,-68
-34,-24,9,29,-21,-7,63,-19,-14,-63,-68,-63
-34,-19,14,26,-24,-2,58,-19,-19,-63,-68,-58
-29,-14,14,21,-21,0,63,-14,-14,-53,-58,-58
-29,-4,24,17,-26,9,68,-9,-4,-43,-48,-48
-24,9,34,7,-29,21,73,0,9,-34,-43,-34
-9,34,43,-12,-26,39,78,9,29,-14,-14,-14
9,73,63,-41,-26,68,58,19,43,9,9,9
24,107,82,-65,-29,95,39,14,43,14,14,29
24,102,78,-63,-26,90,0,-39,0,-19,0,9
29,107,78,-68,-24,92,-29,-82,-14,-29,-4,9
39,112,73,-75,-17,92,-29,-82,-14,-29,-4,9
39,112,73,-75,-17,92,-29,-82,-14,-29,0,19
43,112,68,-78,-12,90,-34,-73,-9,-14,4,24
43,102,58,-73,-7,80,-34,-73,-14,-9,4,24
43,78,34,-61,4,56,-39,-87,-39,-34,-14,9
43,48,4,-46,19,26,-43,-97,-63,-68,-39,-14
34,24,-9,-29,21,7,-43,-112,-97,-92,-73,-39
0,9,9,-4,-4,9,-29,-117,-102,-102,-82,-43
-34,-34,0,34,-17,-17,-9,-126,-112,-122,-97,-63
-53,-58,-4,56,-24,-31,4,-136,-126,-136,-117,-82
-58,-73,-14,65,-21,-43,4,-141,-136,-146,-126,-97
-63,-92,-29,78,-17,-61,4,-146,-146,-156,-141,-107
-63,-117,-53,90,-4,-85,4,-146,-151,-165,-146,-112
-63,-126,-63,95,0,-95,4,-146,-161,-170,-151,-122
-68,-126,-58,97,-4,-92,4,-151,-161,-170,-156,-122
-73,-131,-58,102,-7,-95,4,-151,-161,-170,-156,-122
-73,-131,-58,102,-7,-95,4,-146,-156,-175,-156,-122
-73,-131,-58,102,-7,-95,9,-146,-156,-175,-151,-122
-68,-126,-58,97,-4,-92,9,-141,-151,-170,-146,-122
-63,-126,-63,95,0,-95,9,-141,-151,-170,-141,-122
-63,-131,-68,97,2,-100,4,-146,-156,-175,-141,-122
-63,-141,-78,102,7,-109,9,-131,-161,-175,-156,-136
-78,-161,-82,119,2,-122,58,-58,-126,-175,-170,-161
-97,-170,-73,134,-12,-122,122,48,-53,-161,-175,-185
-117,-165,-48,141,-34,-107,190,141,43,-107,-161,-175
-117,-117,0,117,-58,-58,244,239,175,19,-53,-107
-97,-39,58,68,-78,9,263,356,341,224,141,43
4,82,78,-43,-36,80,239,492,570,522,453,292
122,307,185,-214,-31,246,170,458,810,897,858,653
307,590,283,-448,12,436,-24,239,936,1293,1332,1107
653,912,258,-783,197,585,-302,107,1054,1756,1922,1678
990,1268,278,-1129,356,773,-595,14,1156,2210,2498,2215
1141,1503,361,-1322,390,932,-907,-341,941,2235,2679,2459
1093,1551,458,-1322,317,1005,-1185,-917,512,1952,2508,2444
946,1117,170,-1032,387,644,-1254,-1215,4,1420,2015,2064
800,639,-161,-719,480,239,-1278,-1415,-575,644,1220,1400
546,214,-331,-380,439,-58,-1112,-1561,-1068,-341,146,502
229,63,-165,-146,197,-51,-819,-1551,-1239,-858,-458,-29
112,48,-63,-80,87,-7,-561,-1117,-946,-688,-419,-97
48,0,-48,-24,48,-24,-331,-707,-673,-536,-395,-185
-53,-82,-29,68,-12,-56,-141,-400,-424,-400,-326,-224
-87,-161,-73,124,-7,-117,-29,-185,-239,-273,-248,-214
-97,-170,-73,134,-12,-122,29,-102,-175,-214,-229,-209
-102,-170,-68,136,-17,-119,39,-102,-170,-224,-224,-209
-102,-170,-68,136,-17,-119,43,-97,-170,-224,-214,-204
-102,-180,-78,141,-12,-129,43,-63,-151,-219,-214,-204
-102,-185,-82,143,-9,-134,48,-53,-141,-209,-209,-204
-102,-185,-82,143,-9,-134,58,-53,-141,-204,-209,-204
-107,-190,-82,148,-12,-136,63,-53,-136,-204,-204,-204
-107,-190,-82,148,-12,-136,68,-43,-126,-195,-204,-200
-102,-190,-87,146,-7,-139,68,-34,-117,-190,-200,-200
-102,-190,-87,146,-7,-139,73,-24,-117,-185,-195,-195
-102,-190,-87,146,-7,-139,73,-24,-112,-180,-190,-190
-102,-190,-87,146,-7,-139,78,-14,-102,-175,-190,-185
-102,-185,-82,143,-9,-134,78,-4,-97,-165,-185,-185
-97,-185,-87,141,-4,-136,82,4,-92,-156,-180,-180
-92,-185,-92,139,0,-139,82,9,-87,-156,-175,-180
-92,-185,-92,139,0,-139,82,14,-82,-146,-175,-185
-92,-180,-87,136,-2,-134,78,24,-73,-151,-175,-185
-92,-180,-87,136,-2,-134,78,39,-68,-146,-175,-185
-87,-175,-87,131,0,-131,78,43,-58,-141,-175,-185
-87,-170,-82,129,-2,-126,82,53,-48,-131,-170,-180
-87,-170,-82,129,-2,-126,82,63,-43,-126,-165,-175
-87,-170,-82,129,-2,-126,82,73,-34,-122,-165,-175
-87,-165,-78,126,-4,-122,87,87,-24,-112,-156,-175
-87,-165,-78,126,-4,-122,87,102,-9,-102,-151,-175
-87,-165,-78,126,-4,-122,92,112,4,-92,-146,-170
-87,-165,-78,126,-4,-122,92,126,14,-87,-146,-170
-87,-161,-73,124,-7,-117,97,151,24,-68,-141,-170
-82,-161,-78,122,-2,-119,97,170,48,-58,-131,-165
-82,-151,-68,117,-7,-109,107,195,63,-48,-122,-170
-82,-141,-58,112,-12,-100,107,214,78,-34,-117,-170
-82,-136,-53,109,-14,-95,122,239,92,-34,-107,-170
-82,-136,-53,109,-14,-95,122,268,107,-29,-107,-170
-82,-126,-43,104,-19,-85,126,302,136,-19,-107,-170
-82,-126,-43,104,-19,-85,136,341,156,-4,-107,-170
-82,-117,-34,100,-24,-75,136,375,175,4,-102,-175
-78,-107,-29,92,-24,-68,146,414,200,14,-97,-185
-78,-97,-19,87,-29,-58,146,448,229,29,-102,-185
-78,-92,-14,85,-31,-53,151,483,244,39,-107,-185
-78,-87,-9,82,-34,-48,151,512,258,43,-107,-190
-73,-82,-9,78,-31,-46,156,536,273,48,-112,-204
-73,-73,0,73,-36,-36,161,556,287,48,-122,-209
-73,-63,9,68,-41,-26,170,575,302,48,-122,-209
-68,-58,9,63,-39,-24,170,580,312,53,-126,-209
-58,-48,9,53,-34,-19,165,585,312,53,-126,-209
-53,-34,19,43,-36,-7,161,590,317,48,-122,-200
-48,-24,24,36,-36,0,161,595,317,48,-117,-195
-39,-9,29,24,-34,9,146,585,312,58,-117,-185
-34,4,39,14,-36,21,141,566,302,63,-112,-175
-24,14,39,4,-31,26,136,546,297,58,-102,-161
-14,19,34,-2,-24,26,126,512,287,58,-92,-146
-14,29,43,-7,-29,36,122,468,268,58,-82,-136
-4,29,34,-12,-19,31,107,419,239,48,-68,-122
0,34,34,-17,-17,34,97,361,209,39,-58,-107
4,34,29,-19,-12,31,87,307,185,34,-53,-92
0,34,34,-17,-17,34,63,248,151,24,-48,-73
0,34,34,-17,-17,34,48,190,117,14,-43,-53
0,24,24,-12,-12,24,39,141,87,9,-39,-43
0,24,24,-12,-12,24,29,92,63,0,-39,-39
-4,19,24,-7,-14,21,19,58,34,-14,-34,-34
-4,14,19,-4,-12,17,9,24,9,-34,-34,-34
-4,4,9,0,-7,7,4,-9,-9,-39,-34,-29
-9,0,9,4,-9,4,0,-34,-29,-48,-39,-29
-9,-9,0,9,-4,-4,-4,-48,-39,-58,-48,-29
-14,-14,0,14,-7,-7,-4,-63,-58,-68,-53,-29
-19,-14,4,17,-12,-4,-4,-82,-68,-78,-53,-29
-24,-14,9,19,-17,-2,-9,-87,-78,-78,-53,-34
-24,-24,0,24,-12,-12,-9,-92,-87,-87,-58,-39
-24,-34,-9,29,-7,-21,-9,-102,-92,-97,-63,-43
-24,-39,-14,31,-4,-26,-9,-102,-92,-102,-68,-48
-24,-39,-14,31,-4,-26,-9,-107,-97,-102,-68,-48
-24,-43,-19,34,-2,-31,-14,-107,-97,-107,-68,-53
-29,-39,-9,34,-9,-24,-14,-112,-102,-112,-73,-53
-34,-43,-9,39,-12,-26,-14,-117,-107,-112,-78,-58
-34,-43,-9,39,-12,-26,-14,-117,-107,-112,-78,-58
-34,-43,-9,39,-12,-26,-14,-117,-107,-117,-78,-53
-34,-43,-9,39,-12,-26,-9,-117,-107,-117,-78,-53
-34,-48,-14,41,-9,-31,0,-117,-107,-117,-82,-53
-34,-53,-19,43,-7,-36,4,-117,-107,-117,-82,-53
-34,-53,-19,43,-7,-36,4,-117,-107,-117,-82,-53
-43,-53,-9,48,-17,-31,9,-112,-107,-117,-82,-58
-43,-53,-9,48,-17,-31,9,-112,-107,-117,-87,-58
-43,-58,-14,51,-14,-36,9,-112,-102,-112,-87,-58
-48,-58,-9,53,-19,-34,14,-112,-102,-112,-92,-58
-48,-58,-9,53,-19,-34,14,-112,-102,-112,-92,-63
-48,-58,-9,53,-19,-34,19,-112,-97,-112,-92,-68
-53,-58,-4,56,-24,-31,19,-112,-97,-112,-92,-68
-53,-63,-9,58,-21,-36,19,-107,-92,-107,-92,-68
-58,-63,-4,61,-26,-34,19,-102,-87,-107,-92,-68
-58,-68,-9,63,-24,-39,24,-97,-92,-112,-92,-73
-68,-73,-4,70,-31,-39,29,-92,-87,-112,-92,-78
-73,-73,0,73,-36,-36,34,-82,-82,-107,-92,-82
-78,-78,0,78,-39,-39,39,-78,-78,-107,-97,-87
-78,-78,0,78,-39,-39,39,-78,-78,-107,-102,-87
-78,-78,0,78,-39,-39,39,-78,-78,-107,-107,-87
-73,-78,-4,75,-34,-41,39,-78,-78,-107,-107,-92
-68,-78,-9,73,-29,-43,39,-73,-78,-107,-107,-92
-68,-78,-9,73,-29,-43,43,-73,-78,-107,-107,-97
-68,-78,-9,73,-29,-43,43,-73,-78,-107,-107,-97
-68,-78,-9,73,-29,-43,39,-73,-73,-107,-107,-97
-63,-68,-4,65,-29,-36,39,-68,-58,-102,-102,-92
-53,-48,4,51,-29,-21,48,-48,-48,-87,-87,-82
-43,-24,19,34,-31,-2,53,-34,-34,-78,-78,-73
-39,-14,24,26,-31,4,58,-29,-24,-63,-68,-58
-34,-4,29,19,-31,12,58,-29,-19,-63,-58,-53
-34,0,34,17,-34,17,58,-29,-19,-63,-58,-48
-29,4,34,12,-31,19,63,-24,-14,-53,-53,-48
-29,14,43,7,-36,29,68,-19,-4,-43,-48,-39
-24,29,53,-2,-39,41,68,-9,4,-34,-43,-29
-14,48,63,-17,-39,56,73,4,24,-9,-14,-14
0,78,78,-39,-39,78,58,9,43,14,4,9
14,107,92,-61,-39,100,39,-4,43,14,4,29
14,97,82,-56,-34,90,0,-48,0,-19,-9,9
19,97,78,-58,-29,87,-34,-87,-19,-29,-14,9
29,102,73,-65,-21,87,-39,-92,-24,-29,-14,9
34,107,73,-70,-19,90,-39,-92,-24,-29,-4,19
48,112,63,-80,-7,87,-43,-82,-24,-19,4,24
53,102,48,-78,2,75,-48,-82,-34,-14,9,29
53,78,24,-65,14,51,-53,-102,-58,-34,-4,19
58,48,-9,-53,34,19,-53,-117,-82,-68,-29,-4
43,24,-19,-34,31,2,-53,-131,-112,-87,-58,-29
0,9,9,-4,-4,9,-34,-136,-112,-92,-68,-34
-34,-34,0,34,-17,-17,-9,-141,-122,-112,-87,-53
-53,-58,-4,56,-24,-31,4,-146,-136,-131,-107,-73
-58,-73,-14,65,-21,-43,4,-151,-146,-146,-117,-87
-68,-92,-24,80,-21,-58,4,-156,-156,-156,-131,-97
-73,-112,-39,92,-17,-75,4,-156,-161,-165,-136,-102
-73,-117,-43,95,-14,-80,4,-156,-170,-175,-141,-117
-73,-117,-43,95,-14,-80,4,-161,-170,-180,-146,-122
-73,-122,-48,97,-12,-85,4,-161,-170,-180,-146,-122
-73,-122,-48,97,-12,-85,4,-156,-165,-180,-146,-122
-73,-122,-48,97,-12,-85,9,-156,-165,-175,-141,-117
-73,-122,-48,97,-12,-85,9,-151,-161,-170,-141,-112
-73,-126,-53,100,-9,-90,9,-151,-161,-170,-141,-112
-73,-131,-58,102,-7,-95,9,-151,-161,-175,-141,-112
-73,-141,-68,107,-2,-104,14,-151,-180,-180,-161,-136
-87,-151,-63,119,-12,-107,58,-97,-165,-185,-175,-165
-107,-165,-58,136,-24,-112,122,9,-102,-195,-195,-195
-126,-170,-43,148,-41,-107,185,97,-9,-156,-190,-190
-136,-122,14,129,-75,-53,239,180,112,-48,-107,-146
-107,-39,68,73,-87,14,258,287,263,126,53,-14
-14,68,82,-26,-48,75,253,458,507,424,356,229
107,268,161,-187,-26,214,195,463,756,795,741,561
312,551,239,-431,36,395,0,263,907,1224,1239,1015
644,849,204,-746,219,527,-263,146,1024,1673,1795,1537
1029,1220,190,-1124,419,705,-566,126,1176,2176,2396,2088
1215,1429,214,-1322,500,822,-883,-161,1010,2249,2610,2347
1166,1473,307,-1320,429,890,-1190,-785,575,1986,2474,2352
1019,1098,78,-1058,470,588,-1268,-1127,92,1483,2025,2010
883,580,-302,-732,592,139,-1293,-1356,-551,619,1146,1288
634,161,-473,-397,553,-156,-1146,-1498,-1034,-268,190,502
278,48,-229,-163,253,-90,-849,-1507,-1195,-766,-375,14
141,34,-107,-87,124,-36,-590,-1127,-956,-707,-424,-102
68,-9,-78,-29,73,-43,-351,-702,-673,-546,-380,-170
-48,-78,-29,63,-9,-53,-161,-405,-444,-409,-317,-219
-92,-146,-53,119,-19,-100,-48,-200,-258,-268,-239,-204
-107,-161,-53,134,-26,-107,19,-102,-180,-195,-219,-195
-112,-161,-48,136,-31,-104,29,-102,-180,-204,-214,-195
-112,-161,-48,136,-31,-104,34,-102,-180,-204,-204,-195
-117,-175,-58,146,-29,-117,39,-73,-161,-204,-204,-195
-122,-185,-63,153,-29,-124,48,-63,-151,-200,-200,-195
-122,-185,-63,153,-29,-124,58,-63,-151,-195,-200,-195
-126,-185,-58,156,-34,-122,58,-63,-146,-195,-195,-195
-122,-175,-53,148,-34,-114,58,-53,-136,-185,-195,-190
-112,-170,-58,141,-26,-114,58,-43,-126,-180,-190,-190
-112,-170,-58,141,-26,-114,68,-34,-126,-175,-185,-180
-112,-170,-58,141,-26,-114,73,-34,-122,-170,-180,-175
-112,-170,-58,141,-26,-114,78,-19,-112,-165,-180,-175
-112,-165,-53,139,-29,-109,78,-4,-107,-161,-175,-175
-107,-165,-58,136,-24,-112,78,4,-102,-151,-170,-170
-102,-165,-63,134,-19,-114,73,9,-97,-146,-165,-165
-102,-165,-63,134,-19,-114,73,9,-92,-136,-165,-165
-102,-161,-58,131,-21,-109,73,14,-82,-136,-161,-165
-102,-161,-58,131,-21,-109,78,29,-78,-131,-156,-165
-97,-156,-58,126,-19,-107,78,34,-68,-131,-156,-165
-97,-151,-53,124,-21,-102,82,48,-53,-122,-151,-161
-97,-151,-53,124,-21,-102,82,63,-43,-117,-146,-156
-97,-151,-53,124,-21,-102,82,73,-34,-107,-146,-156
-97,-146,-48,122,-24,-97,87,87,-24,-92,-136,-156
-97,-141,-43,119,-26,-92,87,102,-9,-82,-131,-156
-97,-131,-34,114,-31,-82,92,117,4,-73,-126,-151
-97,-126,-29,112,-34,-78,97,136,19,-68,-126,-151
-97,-122,-24,109,-36,-73,107,161,34,-53,-122,-151
-92,-126,-34,109,-29,-80,107,185,58,-48,-117,-146
-92,-126,-34,109,-29,-80,117,214,73,-39,-112,-146
-92,-122,-29,107,-31,-75,117,234,87,-24,-107,-141
-92,-117,-24,104,-34,-70,131,263,107,-14,-97,-141
-92,-117,-24,104,-34,-70,131,297,126,0,-92,-141
-92,-107,-14,100,-39,-61,136,331,156,9,-87,-141
-97,-107,-9,102,-43,-58,151,370,175,29,-87,-141
-102,-97,4,100,-53,-46,156,405,195,43,-82,-141
-97,-87,9,92,-53,-39,165,444,219,53,-73,-146
-97,-78,19,87,-58,-29,170,478,248,68,-68,-146
-97,-73,24,85,-61,-24,180,517,268,78,-68,-141
-97,-63,34,80,-65,-14,180,551,287,82,-68,-141
-92,-53,39,73,-65,-7,185,575,302,87,-73,-156
-92,-43,48,68,-70,2,185,595,312,87,-82,-161
-92,-29,63,61,-78,17,195,614,322,87,-82,-161
-87,-19,68,53,-78,24,200,619,331,92,-87,-161
-78,-9,68,43,-73,29,195,624,331,92,-87,-165
-73,4,78,34,-75,41,190,624,336,87,-87,-165
-73,14,87,29,-80,51,190,624,336,87,-87,-165
-68,24,92,21,-80,58,175,614,331,87,-87,-156
-63,34,97,14,-80,65,165,595,322,82,-87,-146
-53,43,97,4,-75,70,156,570,312,78,-87,-136
-34,48,82,-7,-58,65,146,531,297,73,-82,-126
-24,58,82,-17,-53,70,136,488,278,68,-73,-117
-14,58,73,-21,-43,65,112,434,244,58,-63,-107
-9,63,73,-26,-41,68,97,370,209,48,-58,-97
-9,58,68,-24,-39,63,87,312,185,39,-53,-82
-14,53,68,-19,-41,61,68,248,151,24,-48,-68
-9,53,63,-21,-36,58,58,190,112,14,-39,-53
-9,39,48,-14,-29,43,48,141,78,4,-29,-43
-9,29,39,-9,-24,34,39,92,53,-4,-29,-39
-14,19,34,-2,-24,26,29,58,24,-14,-29,-34
-9,14,24,-2,-17,19,14,24,0,-34,-34,-34
-4,4,9,0,-7,7,4,-9,-19,-39,-34,-29
-9,0,9,4,-9,4,0,-34,-39,-48,-39,-29
-9,-9,0,9,-4,-4,-4,-48,-48,-58,-48,-34
-14,-14,0,14,-7,-7,-4,-63,-68,-68,-58,-39
-19,-14,4,17,-12,-4,-4,-82,-73,-78,-63,-39
-24,-14,9,19,-17,-2,-9,-92,-78,-78,-63,-43
-24,-19,4,21,-14,-7,-9,-102,-87,-82,-68,-43
-24,-24,0,24,-12,-12,-9,-112,-97,-87,-73,-43
-24,-29,-4,26,-9,-17,-9,-112,-102,-92,-78,-48
-24,-24,0,24,-12,-12,-4,-117,-107,-92,-78,-48
-24,-29,-4,26,-9,-17,-4,-117,-107,-97,-78,-53
-29,-29,0,29,-14,-14,-4,-122,-112,-107,-82,-53
-34,-34,0,34,-17,-17,-4,-126,-117,-112,-87,-58
-34,-34,0,34,-17,-17,-9,-126,-117,-112,-87,-58
-34,-34,0,34,-17,-17,-14,-126,-117,-117,-87,-58
-34,-34,0,34,-17,-17,-9,-126,-117,-117,-87,-63
-34,-34,0,34,-17,-17,-4,-126,-117,-117,-92,-63
-34,-34,0,34,-17,-17,-4,-126,-117,-117,-92,-63
-34,-34,0,34,-17,-17,-4,-126,-117,-117,-92,-63
-43,-34,9,39,-26,-12,0,-122,-117,-117,-92,-68
-43,-34,9,39,-26,-12,0,-122,-117,-122,-97,-68
-43,-39,4,41,-24,-17,0,-122,-112,-122,-97,-68
-48,-39,9,43,-29,-14,4,-122,-112,-122,-102,-68
-48,-39,9,43,-29,-14,4,-122,-112,-122,-102,-73
-48,-39,9,43,-29,-14,9,-122,-107,-122,-102,-78
-53,-39,14,46,-34,-12,9,-122,-107,-122,-102,-78
-53,-43,9,48,-31,-17,14,-117,-102,-117,-102,-78
-58,-43,14,51,-36,-14,19,-112,-97,-117,-102,-78
-63,-48,14,56,-39,-17,24,-102,-92,-112,-102,-82
-63,-53,9,58,-36,-21,29,-92,-87,-107,-102,-87
-68,-63,4,65,-36,-29,34,-87,-82,-107,-107,-92
-68,-58,9,63,-39,-24,34,-87,-78,-107,-107,-87
-68,-58,9,63,-39,-24,39,-87,-78,-107,-107,-87
-73,-58,14,65,-43,-21,39,-87,-78,-102,-107,-87
-78,-58,19,68,-48,-19,39,-87,-78,-97,-107,-87
-78,-58,19,68,-48,-19,39,-82,-73,-97,-102,-87
-73,-58,14,65,-43,-21,39,-78,-68,-97,-97,-87
-73,-58,14,65,-43,-21,43,-73,-68,-97,-97,-92
-68,-58,9,63,-39,-24,39,-73,-68,-97,-97,-97
-63,-48,14,56,-39,-17,39,-63,-58,-92,-97,-92
-53,-29,24,41,-39,-2,43,-43,-48,-78,-87,-82
-43,-4,39,24,-41,17,43,-34,-34,-63,-78,-73
-39,4,43,17,-41,24,48,-29,-24,-43,-68,-58
-34,19,53,7,-43,36,53,-29,-19,-43,-58,-53
-34,29,63,2,-48,46,58,-29,-19,-43,-58,-48
-29,34,63,-2,-46,48,63,-24,-14,-39,-53,-48
-29,43,73,-7,-51,58,68,-19,-4,-34,-48,-39
-24,53,78,-14,-51,65,63,-9,9,-24,-43,-29
-9,73,82,-31,-46,78,58,0,29,-4,-14,-14
9,102,92,-56,-41,97,39,0,43,14,4,9
24,126,102,-75,-39,114,19,-14,43,14,4,29
24,117,92,-70,-34,104,-19,-53,-4,-19,-9,9
29,117,87,-73,-29,102,-48,-82,-24,-29,-14,9
39,122,82,-80,-21,102,-48,-82,-24,-29,-14,9
39,122,82,-80,-21,102,-48,-82,-24,-29,-9,19
48,122,73,-85,-12,97,-53,-78,-24,-19,-4,24
53,112,58,-82,-2,85,-53,-82,-34,-19,-4,24
53,87,34,-70,9,61,-53,-102,-58,-43,-19,9
53,58,4,-56,24,31,-53,-117,-82,-78,-39,-14
34,39,4,-36,14,21,-53,-131,-112,-97,-68,-39
-9,29,39,-9,-24,34,-39,-136,-112,-102,-73,-43
-43,-14,29,29,-36,7,-19,-146,-122,-122,-87,-63
-63,-39,24,51,-43,-7,-4,-156,-136,-136,-107,-82
-68,-53,14,61,-41,-19,-4,-161,-146,-146,-117,-97
-73,-73,0,73,-36,-36,-4,-165,-156,-156,-131,-107
-73,-92,-19,82,-26,-56,-4,-165,-161,-165,-136,-112
-73,-97,-24,85,-24,-61,-4,-165,-170,-170,-141,-122
-73,-97,-24,85,-24,-61,-4,-170,-170,-170,-146,-122
-73,-102,-29,87,-21,-65,-4,-170,-170,-170,-146,-122
-73,-102,-29,87,-21,-65,-4,-165,-165,-170,-146,-122
-73,-102,-29,87,-21,-65,0,-165,-165,-165,-141,-122
-78,-102,-24,90,-26,-63,0,-161,-161,-161,-146,-122
-82,-107,-24,95,-29,-65,0,-161,-161,-161,-151,-122
-82,-112,-29,97,-26,-70,0,-161,-165,-165,-151,-126
-82,-122,-39,102,-21,-80,9,-141,-170,-165,-165,-146
-97,-131,-34,114,-31,-82,58,-73,-141,-175,-185,-165
-117,-131,-14,124,-51,-73,122,29,-73,-170,-195,-185
-136,-122,14,129,-75,-53,185,117,24,-112,-170,-170
-136,-68,68,102,-102,0,234,209,156,19,-53,-97
-97,14,112,41,-104,63,248,326,322,219,131,53
24,141,117,-82,-46,129,219,463,551,512,434,302
180,366,185,-273,-2,275,136,448,785,883,829,634
405,649,244,-527,80,446,-73,248,907,1273,1293,1058
780,941,161,-861,309,551,-351,141,1010,1683,1805,1561
1146,1268,122,-1207,512,695,-644,73,1098,2083,2303,2030
1273,1429,156,-1351,558,793,-956,-297,854,2044,2415,2191
1200,1405,204,-1302,497,805,-1234,-888,395,1698,2176,2093
1024,971,-53,-997,539,458,-1278,-1205,-112,1141,1654,1693
849,492,-356,-671,602,68,-1278,-1424,-692,341,829,1010
575,117,-458,-346,517,-170,-1102,-1537,-1112,-497,-82,248
239,14,-224,-126,231,-104,-800,-1493,-1210,-868,-527,-146
117,14,-102,-65,109,-43,-541,-1049,-907,-678,-448,-161
48,-19,-68,-14,58,-43,-312,-629,-624,-507,-385,-195
-58,-82,-24,70,-17,-53,-131,-361,-395,-370,-317,-224
-97,-141,-43,119,-26,-92,-29,-185,-229,-244,-239,-204
-107,-151,-43,129,-31,-97,29,-102,-170,-185,-219,-195
-112,-151,-39,131,-36,-95,39,-102,-170,-195,-214,-190
-112,-151,-39,131,-36,-95,43,-102,-170,-195,-204,-185
-112,-161,-48,136,-31,-104,43,-73,-151,-190,-204,-185
-117,-165,-48,141,-34,-107,48,-58,-141,-180,-200,-185
-122,-165,-43,143,-39,-104,58,-53,-141,-175,-200,-185
-126,-165,-39,146,-43,-102,58,-53,-136,-180,-195,-185
-126,-161,-34,143,-46,-97,58,-43,-126,-175,-195,-180
-122,-156,-34,139,-43,-95,58,-39,-117,-170,-190,-180
-122,-151,-29,136,-46,-90,63,-34,-117,-165,-185,-175
-117,-151,-34,134,-41,-92,58,-34,-112,-161,-180,-175
-112,-151,-39,131,-36,-95,58,-24,-102,-156,-180,-175
-112,-141,-29,126,-41,-85,58,-14,-97,-151,-175,-175
-107,-136,-29,122,-39,-82,63,-4,-92,-146,-170,-170
-102,-136,-34,119,-34,-85,68,0,-87,-146,-165,-165
-102,-136,-34,119,-34,-85,73,4,-82,-136,-165,-165
-107,-131,-24,119,-41,-78,73,14,-73,-136,-161,-165
-112,-131,-19,122,-46,-75,78,29,-68,-126,-156,-165
-107,-131,-24,119,-41,-78,78,34,-58,-117,-156,-165
-107,-131,-24,119,-41,-78,82,43,-48,-102,-151,-161
-102,-131,-29,117,-36,-80,82,53,-43,-97,-146,-156
-97,-131,-34,114,-31,-82,82,63,-34,-92,-146,-156
-97,-126,-29,112,-34,-78,87,82,-24,-87,-136,-156
-97,-126,-29,112,-34,-78,87,102,-9,-82,-131,-156
-102,-122,-19,112,-41,-70,97,117,9,-73,-126,-146
-107,-117,-9,112,-48,-63,102,136,24,-68,-126,-141
-107,-112,-4,109,-51,-58,107,161,34,-43,-122,-141
-102,-112,-9,107,-46,-61,107,180,58,-29,-112,-136
-97,-107,-9,102,-43,-58,117,209,73,-19,-97,-131
-92,-102,-9,97,-41,-56,117,234,87,-4,-87,-122
-92,-92,0,92,-46,-46,126,263,107,4,-78,-122
-92,-87,4,90,-48,-41,122,297,126,19,-78,-122
-92,-68,24,80,-58,-21,126,331,151,29,-78,-126
-92,-58,34,75,-63,-12,136,370,165,43,-78,-131
-97,-48,48,73,-73,0,136,405,185,53,-73,-131
-97,-39,58,68,-78,9,146,444,209,63,-68,-136
-97,-29,68,63,-82,19,151,478,244,78,-68,-136
-97,-24,73,61,-85,24,161,512,263,87,-68,-136
-92,-14,78,53,-85,31,165,546,278,92,-63,-136
-82,-4,78,43,-80,36,175,575,292,97,-63,-146
-82,4,87,39,-85,46,175,595,302,97,-73,-151
-82,14,97,34,-90,56,180,614,312,97,-73,-151
-82,19,102,31,-92,61,180,619,317,97,-82,-151
-78,29,107,24,-92,68,175,624,312,92,-87,-151
-73,43,117,14,-95,80,170,619,317,87,-87,-146
-68,53,122,7,-95,87,170,614,317,87,-87,-146
-58,63,122,-2,-90,92,151,600,312,87,-82,-136
-53,73,126,-9,-90,100,141,575,302,82,-73,-126
-43,78,122,-17,-82,100,136,551,292,78,-68,-117
-34,78,112,-21,-73,95,126,512,278,78,-63,-107
-34,87,122,-26,-78,104,117,463,253,78,-58,-97
-24,87,112,-31,-68,100,97,409,219,68,-48,-82
-19,87,107,-34,-63,97,87,351,190,53,-43,-73
-14,82,97,-34,-56,90,78,297,165,43,-43,-63
-14,82,97,-34,-56,90,58,239,131,34,-43,-53
-9,82,92,-36,-51,87,48,180,97,24,-43,-43
-4,63,68,-29,-36,65,34,131,68,14,-39,-34
0,53,53,-26,-26,53,19,82,43,0,-39,-29
-4,48,53,-21,-29,51,9,48,14,-14,-39,-29
-4,43,48,-19,-26,46,0,14,-9,-34,-43,-34
-4,34,39,-14,-21,36,-4,-19,-29,-39,-43,-34
-9,29,39,-9,-24,34,-9,-43,-48,-48,-48,-39
-9,14,24,-2,-17,19,-14,-58,-58,-58,-58,-43
-14,4,19,4,-17,12,-14,-73,-78,-68,-63,-48
-19,4,24,7,-21,14,-9,-92,-82,-78,-63,-43
-24,4,29,9,-26,17,-9,-97,-87,-78,-63,-43
-24,0,24,12,-24,12,-9,-102,-97,-82,-68,-43
-24,-4,19,14,-21,7,-9,-112,-102,-87,-73,-43
-24,-9,14,17,-19,2,-14,-112,-107,-92,-78,-48
-24,-9,14,17,-19,2,-19,-117,-117,-92,-78,-48
-29,-14,14,21,-21,0,-24,-117,-117,-97,-78,-53
-39,-9,29,24,-34,9,-24,-122,-122,-102,-82,-53
-43,-14,29,29,-36,7,-24,-126,-122,-102,-87,-58
-43,-14,29,29,-36,7,-24,-126,-117,-102,-87,-58
-43,-14,29,29,-36,7,-24,-126,-117,-107,-87,-58
-43,-14,29,29,-36,7,-19,-126,-117,-107,-87,-63
-43,-14,29,29,-36,7,-14,-126,-117,-112,-97,-68
-43,-14,29,29,-36,7,-14,-126,-117,-117,-102,-73
-43,-14,29,29,-36,7,-14,-131,-117,-117,-102,-73
-53,-14,39,34,-46,12,-9,-131,-117,-117,-102,-78
-53,-14,39,34,-46,12,-9,-131,-117,-117,-102,-73
-53,-19,34,36,-43,7,-9,-131,-112,-112,-97,-68
-53,-19,34,36,-43,7,-4,-126,-112,-107,-97,-63
-48,-19,29,34,-39,4,-4,-122,-112,-102,-92,-63
-48,-19,29,34,-39,4,0,-122,-107,-102,-92,-68
-53,-19,34,36,-43,7,0,-122,-107,-102,-92,-68
-53,-24,29,39,-41,2,4,-117,-102,-102,-92,-73
-58,-29,29,43,-43,0,14,-107,-97,-107,-92,-82
-68,-34,34,51,-51,0,19,-102,-87,-102,-102,-87
-78,-39,39,58,-58,0,24,-97,-82,-97,-117,-92
-78,-39,39,58,-58,0,19,-92,-78,-102,-117,-92
-78,-39,39,58,-58,0,19,-87,-78,-107,-117,-97
-78,-39,39,58,-58,0,19,-87,-78,-107,-117,-97
-78,-39,39,58,-58,0,19,-87,-78,-107,-117,-97
-78,-39,39,58,-58,0,24,-82,-78,-97,-112,-97
-78,-39,39,58,-58,0,29,-78,-78,-92,-107,-97
-78,-39,39,58,-58,0,34,-73,-78,-87,-107,-97
-78,-39,39,58,-58,0,29,-73,-78,-87,-107,-97
-73,-39,34,56,-53,-2,29,-68,-68,-87,-102,-92
-63,-29,34,46,-48,2,34,-53,-58,-78,-87,-82
-53,-4,48,29,-51,21,39,-43,-39,-68,-78,-73
-48,4,53,21,-51,29,48,-39,-24,-53,-68,-58
-43,24,68,9,-56,46,48,-34,-19,-53,-58,-53
-43,39,82,2,-63,61,48,-29,-19,-53,-58,-48
-39,34,73,2,-56,53,53,-24,-19,-48,-53,-53
-39,34,73,2,-56,53,58,-19,-14,-43,-48,-48
-34,39,73,-2,-53,56,63,-9,-4,-34,-43,-39
-19,53,73,-17,-46,63,68,0,9,-14,-14,-24
0,102,102,-51,-51,102,48,14,39,9,4,4
14,146,131,-80,-58,139,29,14,53,14,4,29
14,136,122,-75,-53,129,-14,-39,0,-19,-9,9
19,136,117,-78,-48,126,-48,-82,-24,-29,-14,9
34,141,107,-87,-36,124,-53,-87,-24,-29,-14,9
39,141,102,-90,-31,122,-58,-92,-24,-29,-9,19
48,151,102,-100,-26,126,-63,-82,-19,-14,4,29
53,151,97,-102,-21,124,-63,-82,-24,-9,14,34
58,126,68,-92,-4,97,-63,-102,-48,-34,-4,19
63,97,34,-80,14,65,-63,-117,-73,-68,-29,-4
53,73,19,-63,17,46,-68,-131,-107,-87,-63,-34
19,58,39,-39,-9,48,-58,-136,-112,-92,-73,-43
-24,14,39,4,-31,26,-39,-141,-122,-112,-87,-63
-53,-9,43,31,-48,17,-24,-146,-136,-126,-107,-82
-63,-29,34,46,-48,2,-19,-151,-146,-141,-117,-97
-73,-53,19,63,-46,-17,-14,-156,-156,-156,-131,-107
-78,-78,0,78,-39,-39,-14,-161,-161,-165,-136,-112
-82,-87,-4,85,-39,-46,-14,-165,-170,-170,-141,-122
-82,-87,-4,85,-39,-46,-14,-170,-175,-175,-151,-122
-82,-92,-9,87,-36,-51,-14,-170,-180,-180,-156,-122
-82,-92,-9,87,-36,-51,-14,-165,-175,-180,-156,-122
-82,-92,-9,87,-36,-51,-9,-165,-175,-175,-151,-122
-82,-92,-9,87,-36,-51,-9,-161,-170,-170,-151,-122
-82,-97,-14,90,-34,-56,-9,-161,-170,-170,-151,-122
-78,-102,-24,90,-26,-63,-24,-180,-180,-180,-151,-117
-73,-112,-39,92,-17,-75,-29,-180,-190,-185,-165,-126
-78,-122,-43,100,-17,-82,9,-122,-175,-185,-175,-146
-87,-122,-34,104,-26,-78,63,-29,-122,-170,-175,-165
-126,-136,-9,131,-58,-73,141,58,-43,-161,-204,-195
-146,-107,39,126,-92,-34,204,151,68,-78,-141,-165
-151,-63,87,107,-119,12,258,302,204,58,-29,-82
-73,24,97,24,-85,61,268,473,405,287,200,97
9,204,195,-107,-92,200,263,527,688,619,527,370
161,444,283,-302,-61,363,131,395,858,971,922,736
546,766,219,-656,163,492,-126,283,1024,1473,1532,1312
922,1122,200,-1022,361,661,-400,209,1176,1966,2127,1854
1205,1503,297,-1354,453,900,-775,-92,1073,2171,2503,2254
1288,1698,409,-1493,439,1054,-1117,-614,756,2069,2527,2396
1151,1337,185,-1244,483,761,-1259,-1044,239,1639,2186,2161
1015,932,-82,-973,549,424,-1356,-1376,-351,966,1542,1644
727,385,-341,-556,534,21,-1249,-1649,-1019,-180,322,644
375,112,-263,-244,319,-75,-1015,-1766,-1366,-858,-429,9
214,97,-117,-156,165,-9,-732,-1342,-1093,-746,-439,-78
107,48,-58,-78,82,-4,-478,-941,-839,-653,-463,-185
-29,-29,0,29,-14,-14,-244,-561,-546,-483,-380,-229
-97,-102,-4,100,-46,-53,-87,-273,-317,-322,-287,-224
-107,-131,-24,119,-41,-78,-9,-151,-224,-234,-253,-214
-112,-151,-39,131,-36,-95,19,-112,-190,-214,-234,-209
-112,-141,-29,126,-41,-85,24,-112,-190,-214,-219,-200
-112,-141,-29,126,-41,-85,24,-82,-170,-209,-214,-195
-112,-146,-34,129,-39,-90,29,-68,-161,-200,-209,-195
-112,-146,-34,129,-39,-90,39,-63,-161,-195,-209,-195
-117,-151,-34,134,-41,-92,43,-63,-156,-195,-209,-195
-117,-151,-34,134,-41,-92,48,-53,-146,-185,-214,-190
-112,-151,-39,131,-36,-95,53,-43,-136,-180,-209,-190
-112,-151,-39,131,-36,-95,63,-34,-136,-175,-204,-185
-112,-156,-43,134,-34,-100,63,-34,-131,-170,-195,-185
-112,-161,-48,136,-31,-104,68,-24,-122,-165,-190,-185
-112,-156,-43,134,-34,-100,63,-14,-117,-161,-185,-185
-107,-156,-48,131,-29,-102,63,-4,-112,-156,-180,-180
-102,-151,-48,126,-26,-100,63,0,-107,-156,-175,-175
-102,-146,-43,124,-29,-95,63,4,-102,-146,-175,-175
-102,-141,-39,122,-31,-90,63,9,-97,-151,-175,-175
-102,-141,-39,122,-31,-90,68,19,-97,-146,-175,-175
-97,-136,-39,117,-29,-87,68,24,-87,-141,-175,-180
-97,-131,-34,114,-31,-82,73,34,-78,-131,-170,-180
-97,-136,-39,117,-29,-87,73,48,-73,-126,-165,-175
-97,-141,-43,119,-26,-92,73,63,-63,-122,-165,-175
-97,-136,-39,117,-29,-87,78,78,-53,-112,-156,-175
-97,-136,-39,117,-29,-87,78,92,-39,-102,-151,-175
-97,-131,-34,114,-31,-82,78,102,-24,-97,-146,-170
-97,-126,-29,112,-34,-78,73,117,-14,-97,-146,-170
-97,-112,-14,104,-41,-63,78,141,-9,-82,-146,-170
-92,-102,-9,97,-41,-56,78,161,9,-78,-141,-165
-92,-97,-4,95,-43,-51,87,180,24,-68,-131,-165
-92,-92,0,92,-46,-46,87,195,39,-53,-126,-161
-92,-97,-4,95,-43,-51,102,219,53,-48,-117,-161
-92,-107,-14,100,-39,-61,102,248,68,-39,-117,-161
-92,-97,-4,95,-43,-51,107,278,92,-29,-122,-165
-92,-97,-4,95,-43,-51,117,312,107,-14,-126,-170
-92,-87,4,90,-48,-41,112,346,126,-4,-122,-170
-87,-78,9,82,-48,-34,117,385,151,4,-117,-175
-82,-68,14,75,-48,-26,122,419,180,19,-112,-175
-78,-63,14,70,-46,-24,131,453,195,29,-107,-175
-78,-53,24,65,-51,-14,136,483,209,34,-107,-180
-73,-43,29,58,-51,-7,146,507,224,39,-112,-195
-73,-34,39,53,-56,2,146,536,239,43,-122,-200
-73,-24,48,48,-61,12,151,566,253,48,-122,-200
-68,-19,48,43,-58,14,151,570,268,53,-122,-200
-58,-9,48,34,-53,19,146,575,273,53,-117,-200
-53,0,53,26,-53,26,141,580,278,48,-117,-195
-48,4,53,21,-51,29,141,585,278,48,-117,-195
-39,14,53,12,-46,34,126,585,278,48,-122,-190
-34,24,58,4,-46,41,122,575,273,43,-122,-185
-24,39,63,-7,-43,51,117,556,263,39,-117,-175
-14,48,63,-17,-39,56,107,522,248,39,-112,-165
-14,63,78,-24,-46,70,102,483,239,48,-102,-151
-4,68,73,-31,-39,70,87,439,219,48,-87,-131
0,73,73,-36,-36,73,78,385,190,39,-78,-117
4,73,68,-39,-31,70,68,336,165,34,-73,-102
4,73,68,-39,-31,70,53,278,131,24,-68,-87
9,73,63,-41,-26,68,48,219,97,14,-63,-73
4,58,53,-31,-24,56,39,165,68,0,-58,-63
0,53,53,-26,-26,53,29,112,43,-19,-58,-58
-4,53,58,-24,-31,56,14,78,14,-34,-58,-53
-4,53,58,-24,-31,56,0,43,-9,-53,-63,-53
-4,43,48,-19,-26,46,-4,4,-29,-53,-58,-48
-9,39,48,-14,-29,43,-9,-24,-48,-58,-58,-48
-9,29,39,-9,-24,34,-14,-43,-58,-68,-68,-48
-14,24,39,-4,-26,31,-14,-63,-78,-78,-73,-48
-19,19,39,0,-29,29,-14,-82,-82,-87,-68,-48
-24,14,39,4,-31,26,-19,-87,-87,-87,-63,-53
-24,9,34,7,-29,21,-19,-92,-97,-92,-68,-53
-24,4,29,9,-26,17,-19,-102,-102,-97,-73,-53
-24,0,24,12,-24,12,-14,-102,-102,-102,-78,-58
-24,0,24,12,-24,12,-9,-107,-107,-102,-78,-58
-24,-9,14,17,-19,2,-14,-107,-107,-107,-78,-63
-29,-9,19,19,-24,4,-14,-112,-112,-112,-82,-63
-34,-14,19,24,-26,2,-14,-117,-117,-112,-87,-68
-34,-14,19,24,-26,2,-14,-117,-117,-112,-87,-68
-34,-14,19,24,-26,2,-19,-117,-117,-117,-92,-68
-34,-14,19,24,-26,2,-19,-117,-117,-117,-97,-73
-34,-14,19,24,-26,2,-14,-117,-117,-122,-102,-78
-34,-14,19,24,-26,2,-14,-117,-117,-126,-102,-82
-34,-14,19,24,-26,2,-14,-117,-117,-126,-102,-82
-43,-14,29,29,-36,7,-9,-112,-117,-126,-102,-87
-43,-14,29,29,-36,7,-9,-112,-117,-131,-107,-87
-43,-19,24,31,-34,2,-9,-112,-112,-131,-107,-87
-48,-19,29,34,-39,4,-4,-112,-112,-131,-112,-87
-48,-19,29,34,-39,4,-4,-112,-112,-131,-112,-92
-48,-14,34,31,-41,9,0,-112,-107,-126,-107,-92
-53,-9,43,31,-48,17,0,-112,-107,-122,-102,-87
-53,-14,39,34,-46,12,9,-107,-102,-117,-102,-87
-58,-14,43,36,-51,14,19,-102,-97,-117,-102,-87
-58,-19,39,39,-48,9,24,-97,-97,-117,-102,-92
-68,-24,43,46,-56,9,29,-92,-87,-112,-102,-97
-68,-29,39,48,-53,4,29,-82,-82,-112,-107,-102
-68,-34,34,51,-51,0,34,-78,-78,-117,-117,-112
-68,-34,34,51,-51,0,29,-78,-78,-117,-117,-112
-68,-39,29,53,-48,-4,29,-78,-78,-117,-117,-117
-68,-39,29,53,-48,-4,29,-78,-78,-117,-117,-117
-68,-39,29,53,-48,-4,29,-78,-78,-117,-117,-117
-68,-39,29,53,-48,-4,29,-78,-78,-122,-122,-122
-68,-39,29,53,-48,-4,29,-73,-78,-122,-122,-122
-68,-39,29,53,-48,-4,34,-73,-82,-126,-126,-126
-68,-39,29,53,-48,-4,29,-73,-87,-126,-126,-126
-63,-34,29,48,-46,-2,29,-68,-78,-117,-122,-122
-53,-19,34,36,-43,7,34,-53,-68,-97,-107,-112
-43,4,48,19,-46,26,34,-43,-48,-87,-97,-102
-39,14,53,12,-46,34,39,-39,-34,-73,-87,-87
-34,24,58,4,-46,41,39,-39,-29,-78,-78,-82
-34,29,63,2,-48,46,39,-39,-29,-82,-78,-78
-29,34,63,-2,-46,48,43,-34,-29,-78,-73,-78
-29,43,73,-7,-51,58,48,-29,-24,-73,-68,-68
-24,58,82,-17,-53,70,53,-14,-14,-63,-63,-58
-9,82,92,-36,-51,87,58,0,0,-43,-34,-43
9,122,112,-65,-51,117,39,14,29,-4,-9,-14
24,156,131,-90,-53,143,19,14,43,14,-4,9
24,146,122,-85,-48,134,-24,-43,-14,-29,-19,-9
29,146,117,-87,-43,131,-58,-92,-43,-48,-24,-9
39,161,122,-100,-41,141,-58,-92,-43,-48,-24,-9
39,170,131,-104,-46,151,-58,-92,-43,-48,-19,0
48,170,122,-109,-36,146,-63,-82,-39,-34,-9,9
53,161,107,-107,-26,134,-63,-82,-43,-29,-4,14
53,136,82,-95,-14,109,-68,-102,-68,-53,-24,4
53,107,53,-80,0,80,-73,-117,-92,-87,-48,-14
43,82,39,-63,2,61,-73,-131,-122,-107,-78,-39
9,68,58,-39,-24,63,-58,-136,-122,-112,-82,-43
-34,24,58,4,-46,41,-34,-141,-131,-131,-97,-63
-63,0,63,31,-63,31,-14,-146,-146,-146,-117,-82
-68,-19,48,43,-58,14,-14,-151,-156,-161,-126,-102
-73,-43,29,58,-51,-7,-14,-156,-165,-175,-141,-117
-73,-63,9,68,-41,-26,-14,-161,-170,-185,-151,-122
-73,-68,4,70,-39,-31,-14,-165,-180,-190,-161,-131
-73,-68,4,70,-39,-31,-14,-170,-180,-190,-165,-131
-73,-73,0,73,-36,-36,-14,-170,-180,-190,-165,-131
-73,-73,0,73,-36,-36,-14,-165,-175,-190,-165,-131
-73,-73,0,73,-36,-36,-9,-165,-175,-185,-161,-131
-73,-73,0,73,-36,-36,-9,-161,-175,-180,-161,-131
-73,-78,-4,75,-34,-41,-9,-161,-180,-180,-161,-131
-68,-82,-14,75,-26,-48,-19,-170,-185,-190,-161,-131
-63,-92,-29,78,-17,-61,-19,-161,-190,-195,-175,-146
-68,-107,-39,87,-14,-73,29,-97,-175,-209,-190,-175
-78,-112,-34,95,-21,-73,92,0,-122,-209,-195,-204
-107,-117,-9,112,-48,-63,156,87,-24,-165,-204,-214
-117,-78,39,97,-78,-19,204,180,107,-48,-122,-165
-107,-14,92,61,-100,39,239,322,263,126,39,-39
-14,92,107,-39,-61,100,229,483,483,395,317,185
73,297,224,-185,-75,261,190,473,751,766,712,522
229,561,331,-395,-51,446,24,278,907,1156,1176,951
575,897,322,-736,126,610,-239,151,1049,1664,1805,1561
912,1268,356,-1090,278,812,-517,63,1176,2161,2420,2137
1122,1581,458,-1351,331,1019,-858,-268,1015,2278,2708,2464
1132,1708,575,-1420,278,1141,-1166,-819,639,2088,2644,2532
1000,1293,292,-1146,353,793,-1273,-1151,117,1600,2215,2220
868,834,-34,-851,451,400,-1337,-1385,-478,868,1483,1625
595,351,-244,-473,419,53,-1195,-1595,-1058,-234,292,639
258,141,-117,-200,187,12,-927,-1649,-1317,-868,-429,19
141,126,-14,-134,78,56,-658,-1215,-1034,-732,-424,-73
78,78,0,-78,39,39,-419,-805,-771,-614,-434,-185
-39,-9,29,24,-34,9,-209,-478,-502,-463,-366,-239
-87,-92,-4,90,-41,-48,-78,-244,-297,-322,-287,-244
-97,-107,-9,102,-43,-58,-9,-141,-219,-248,-263,-234
-102,-112,-9,107,-46,-61,9,-122,-200,-244,-253,-229
-97,-112,-14,104,-41,-63,14,-122,-200,-244,-239,-224
-92,-122,-29,107,-31,-75,14,-92,-180,-239,-234,-224
-92,-131,-39,112,-26,-85,19,-78,-170,-229,-229,-219
-92,-136,-43,114,-24,-90,29,-73,-170,-224,-229,-214
-102,-136,-34,119,-34,-85,34,-73,-165,-224,-224,-214
-107,-131,-24,119,-41,-78,39,-63,-156,-214,-224,-209
-102,-136,-34,119,-34,-85,39,-53,-146,-209,-219,-209
-102,-141,-39,122,-31,-90,43,-43,-146,-204,-214,-204
-102,-141,-39,122,-31,-90,43,-43,-141,-195,-209,-204
-102,-141,-39,122,-31,-90,48,-34,-131,-185,-209,-204
-102,-131,-29,117,-36,-80,48,-24,-126,-180,-204,-204
-97,-126,-29,112,-34,-78,53,-14,-122,-175,-200,-200
-92,-126,-34,109,-29,-80,53,-9,-117,-180,-195,-200
-92,-126,-34,109,-29,-80,53,-4,-112,-175,-195,-204
-92,-122,-29,107,-31,-75,48,0,-102,-175,-195,-204
-92,-122,-29,107,-31,-75,48,9,-97,-165,-195,-204
-87,-117,-29,102,-29,-73,48,14,-87,-161,-195,-204
-87,-112,-24,100,-31,-68,53,24,-78,-151,-190,-200
-87,-112,-24,100,-31,-68,58,39,-73,-141,-180,-190
-87,-112,-24,100,-31,-68,63,53,-63,-131,-175,-185
-87,-107,-19,97,-34,-63,68,68,-53,-122,-165,-185
-87,-107,-19,97,-34,-63,68,82,-39,-112,-161,-185
-87,-107,-19,97,-34,-63,73,92,-24,-107,-156,-185
-87,-107,-19,97,-34,-63,73,107,-14,-107,-156,-190
-87,-102,-14,95,-36,-58,78,126,-4,-92,-156,-190
-82,-102,-19,92,-31,-61,78,141,19,-87,-151,-185
-82,-97,-14,90,-34,-56,82,165,29,-78,-141,-185
-82,-92,-9,87,-36,-51,78,185,39,-63,-136,-180
-78,-87,-9,82,-34,-48,92,209,58,-53,-126,-180
-73,-87,-14,80,-29,-51,92,239,78,-39,-126,-180
-73,-78,-4,75,-34,-41,97,268,107,-29,-126,-180
-73,-78,-4,75,-34,-41,107,302,126,-14,-126,-180
-73,-68,4,70,-39,-31,107,336,146,-4,-122,-180
-68,-58,9,63,-39,-24,117,375,170,4,-117,-185
-68,-48,19,58,-43,-14,122,409,200,19,-117,-185
-68,-43,24,56,-46,-9,131,444,214,29,-117,-185
-68,-34,34,51,-51,0,131,473,234,34,-117,-190
-63,-24,39,43,-51,7,136,497,253,39,-122,-204
-68,-19,48,43,-58,14,136,522,263,39,-131,-214
-73,-14,58,43,-65,21,141,546,273,39,-131,-219
-68,-9,58,39,-63,24,146,556,287,43,-136,-219
-58,0,58,29,-58,29,146,566,292,43,-136,-219
-48,14,63,17,-56,39,141,566,297,43,-136,-209
-39,24,63,7,-51,43,141,566,297,48,-136,-204
-29,39,68,-4,-48,53,126,561,297,48,-131,-195
-24,53,78,-14,-51,65,122,546,292,43,-122,-185
-19,63,82,-21,-51,73,117,531,287,39,-117,-175
-14,68,82,-26,-48,75,107,502,278,39,-112,-165
-14,82,97,-34,-56,90,102,463,263,48,-102,-151
-4,87,92,-41,-48,90,87,419,239,48,-87,-131
0,92,92,-46,-46,92,78,366,209,39,-73,-112
4,92,87,-48,-41,90,68,317,185,34,-63,-92
4,97,92,-51,-43,95,48,258,151,24,-58,-78
9,102,92,-56,-41,97,39,200,117,14,-53,-63
9,87,78,-48,-34,82,29,146,82,4,-43,-48
9,82,73,-46,-31,78,19,92,53,-9,-39,-39
0,78,78,-39,-39,78,9,53,24,-24,-39,-34
-4,73,78,-34,-41,75,0,14,0,-43,-43,-34
-4,58,63,-26,-34,61,-4,-19,-19,-48,-43,-29
-9,48,58,-19,-34,53,-9,-43,-39,-58,-48,-29
-9,39,48,-14,-29,43,-14,-58,-48,-68,-58,-34
-14,34,48,-9,-31,41,-14,-73,-68,-78,-63,-39
-19,34,53,-7,-36,43,-19,-92,-73,-87,-63,-43
-24,34,58,-4,-41,46,-29,-97,-78,-87,-63,-53
-29,29,58,0,-43,43,-29,-102,-87,-92,-68,-53
-34,24,58,4,-46,41,-29,-112,-92,-97,-73,-53
-34,19,53,7,-43,36,-29,-112,-97,-107,-78,-53
-34,19,53,7,-43,36,-29,-117,-107,-112,-78,-48
-29,14,43,7,-36,29,-34,-117,-107,-117,-78,-53
-29,19,48,4,-39,34,-34,-122,-112,-122,-82,-53
-34,14,48,9,-41,31,-29,-126,-117,-122,-87,-58
-34,14,48,9,-41,31,-24,-126,-117,-122,-87,-58
-34,9,43,12,-39,26,-24,-126,-117,-126,-87,-58
-34,4,39,14,-36,21,-19,-126,-117,-126,-87,-63
-34,4,39,14,-36,21,-14,-126,-117,-126,-92,-63
-34,4,39,14,-36,21,-14,-126,-117,-126,-92,-63
-34,4,39,14,-36,21,-14,-126,-117,-126,-92,-63
-43,4,48,19,-46,26,-9,-122,-117,-126,-92,-68
-43,4,48,19,-46,26,-9,-122,-117,-126,-97,-68
-43,0,43,21,-43,21,-9,-122,-112,-122,-97,-68
-48,0,48,24,-48,24,-4,-122,-112,-122,-102,-68
-48,0,48,24,-48,24,-4,-122,-112,-122,-102,-73
-48,0,48,24,-48,24,0,-122,-107,-122,-102,-78
-53,0,53,26,-53,26,0,-122,-107,-122,-102,-78
-53,0,53,26,-53,26,4,-117,-102,-122,-102,-78
-58,4,63,26,-61,34,9,-112,-97,-126,-102,-78
-58,0,58,29,-58,29,14,-107,-97,-126,-102,-82
-63,0,63,31,-63,31,14,-102,-92,-122,-102,-82
-68,-4,63,36,-65,29,19,-107,-87,-122,-107,-87
-68,-4,63,36,-65,29,24,-102,-82,-122,-112,-92
-68,-9,58,39,-63,24,19,-92,-78,-117,-112,-92
-68,-19,48,43,-58,14,19,-87,-78,-117,-117,-97
-68,-24,43,46,-56,9,19,-87,-78,-117,-117,-97
-68,-29,39,48,-53,4,19,-87,-78,-117,-117,-97
-68,-29,39,48,-53,4,19,-87,-78,-117,-117,-97
-68,-29,39,48,-53,4,19,-82,-78,-117,-117,-97
-68,-29,39,48,-53,4,24,-82,-78,-117,-117,-102
-68,-29,39,48,-53,4,24,-82,-78,-117,-117,-107
-68,-34,34,51,-51,0,24,-78,-78,-117,-117,-107
-63,-29,34,46,-48,2,29,-68,-68,-112,-112,-102
-53,-9,43,31,-48,17,34,-53,-58,-97,-92,-87
-43,14,58,14,-51,36,34,-43,-43,-87,-78,-73
-34,29,63,2,-48,46,39,-39,-34,-68,-68,-58
-24,43,68,-9,-46,56,39,-39,-29,-63,-58,-53
-24,48,73,-12,-48,61,39,-39,-29,-63,-58,-48
-19,53,73,-17,-46,63,43,-34,-24,-53,-53,-48
-24,58,82,-17,-53,70,48,-29,-14,-48,-48,-39
-24,68,92,-21,-58,80,48,-19,-4,-43,-43,-29
-9,92,102,-41,-56,97,48,-9,9,-24,-14,-14
9,126,117,-68,-53,122,29,-9,24,-4,4,9
24,156,131,-90,-53,143,9,-24,24,-4,4,29
24,146,122,-85,-48,134,-29,-68,-19,-39,-9,9
29,146,117,-87,-43,131,-58,-102,-34,-48,-14,4
39,151,112,-95,-36,131,-58,-102,-34,-48,-14,0
39,151,112,-95,-36,131,-58,-102,-34,-48,-9,9
48,151,102,-100,-26,126,-63,-92,-34,-39,-4,14
53,146,92,-100,-19,119,-68,-92,-43,-34,0,19
53,126,73,-90,-9,100,-73,-112,-68,-53,-14,9
58,97,39,-78,9,68,-73,-131,-92,-87,-39,-14
43,73,29,-58,7,51,-73,-151,-122,-107,-68,-39
0,58,58,-29,-29,58,-58,-156,-122,-112,-73,-43
-34,14,48,9,-41,31,-39,-161,-131,-131,-87,-63
-53,-9,43,31,-48,17,-19,-165,-141,-146,-107,-82
-58,-24,34,41,-46,4,-14,-170,-146,-156,-117,-97
-68,-48,19,58,-43,-14,-14,-175,-156,-165,-136,-107
-73,-73,0,73,-36,-36,-14,-175,-161,-175,-146,-112
-73,-82,-9,78,-31,-46,-14,-170,-175,-185,-151,-122
-73,-87,-14,80,-29,-51,-14,-170,-180,-190,-156,-122
-73,-92,-19,82,-26,-56,-14,-170,-180,-190,-156,-122
-73,-92,-19,82,-26,-56,-14,-165,-175,-190,-156,-122
-73,-87,-14,80,-29,-51,-9,-165,-175,-185,-151,-122
-73,-82,-9,78,-31,-46,-9,-161,-170,-180,-151,-122
-73,-87,-14,80,-29,-51,-14,-165,-170,-180,-151,-122
-73,-92,-19,82,-26,-56,-19,-170,-170,-185,-151,-122
-73,-102,-29,87,-21,-65,-9,-161,-180,-190,-165,-136
-87,-112,-24,100,-31,-68,39,-97,-156,-195,-175,-156
-107,-122,-14,114,-46,-68,102,4,-97,-200,-200,-190
-126,-122,4,124,-65,-58,165,87,-9,-156,-200,-190
-141,-78,63,109,-102,-7,224,180,112,-43,-107,-146
-117,0,117,58,-117,58,248,297,263,136,63,-14
-19,107,126,-43,-73,117,244,468,512,434,361,229
107,307,200,-207,-46,253,185,473,766,805,741,561
302,590,287,-446,7,439,-14,263,907,1224,1239,1010
624,888,263,-756,180,575,-283,136,1015,1664,1795,1527
1019,1259,239,-1139,390,749,-575,117,1171,2166,2391,2078
1215,1468,253,-1342,480,861,-883,-170,1010,2239,2601,2337
1156,1512,356,-1334,400,934,-1190,-795,570,1976,2464,2342
1000,1137,136,-1068,431,636,-1268,-1137,82,1473,2015,2000
873,614,-258,-744,566,178,-1307,-1376,-566,600,1132,1278
634,190,-444,-412,539,-126,-1176,-1527,-1054,-297,170,492
278,73,-204,-175,241,-65,-868,-1532,-1224,-785,-395,4
141,53,-87,-97,114,-17,-600,-1146,-995,-717,-444,-112
68,9,-58,-39,63,-24,-356,-717,-692,-556,-395,-175
-48,-58,-9,53,-19,-34,-161,-414,-444,-419,-326,-219
-92,-126,-34,109,-29,-80,-48,-204,-258,-278,-248,-204
-107,-141,-34,124,-36,-87,19,-102,-180,-204,-229,-195
-112,-141,-29,126,-41,-85,29,-102,-180,-214,-224,-190
-112,-141,-29,126,-41,-85,34,-102,-180,-214,-214,-185
-112,-156,-43,134,-34,-100,34,-73,-161,-209,-214,-185
-112,-165,-53,139,-29,-109,39,-63,-151,-200,-209,-185
-112,-165,-53,139,-29,-109,48,-63,-151,-200,-209,-190
-117,-165,-48,141,-34,-107,48,-63,-146,-204,-204,-195
-117,-156,-39,136,-39,-97,48,-53,-136,-195,-204,-190
-112,-151,-39,131,-36,-95,48,-43,-126,-190,-200,-190
-112,-151,-39,131,-36,-95,53,-34,-126,-185,-195,-185
-112,-151,-39,131,-36,-95,53,-34,-122,-180,-190,-185
-112,-151,-39,131,-36,-95,63,-24,-107,-170,-190,-185
-112,-146,-34,129,-39,-90,68,-14,-97,-161,-185,-185
-107,-146,-39,126,-34,-92,73,-4,-92,-156,-180,-180
-102,-146,-43,124,-29,-95,73,0,-87,-156,-175,-175
-102,-146,-43,124,-29,-95,73,4,-82,-146,-175,-175
-102,-141,-39,122,-31,-90,73,14,-73,-146,-170,-175
-102,-141,-39,122,-31,-90,78,29,-68,-136,-161,-175
-97,-136,-39,117,-29,-87,78,34,-58,-131,-156,-175
-102,-131,-29,117,-36,-80,82,48,-48,-122,-151,-170
-107,-131,-24,119,-41,-78,82,63,-43,-117,-146,-165
-107,-136,-29,122,-39,-82,82,73,-29,-112,-146,-161
-107,-136,-29,122,-39,-82,87,87,-14,-102,-136,-156
-102,-136,-34,119,-34,-85,87,102,0,-92,-131,-156
-97,-131,-34,114,-31,-82,92,117,14,-82,-126,-151
-97,-126,-29,112,-34,-78,97,136,24,-78,-126,-151
-97,-122,-24,109,-36,-73,107,161,34,-63,-122,-151
-97,-117,-19,107,-39,-68,107,180,58,-58,-112,-146
-102,-107,-4,104,-48,-56,117,204,73,-48,-102,-146
-102,-102,0,102,-51,-51,117,224,87,-29,-97,-141
-102,-97,4,100,-53,-46,131,253,107,-14,-87,-141
-102,-97,4,100,-53,-46,131,287,126,0,-87,-141
-102,-87,14,95,-58,-36,136,322,156,9,-87,-141
-102,-87,14,95,-58,-36,146,361,175,24,-87,-141
-102,-78,24,90,-63,-26,146,395,195,34,-82,-141
-97,-73,24,85,-61,-24,156,439,224,48,-78,-141
-97,-68,29,82,-63,-19,161,478,258,68,-78,-136
-97,-63,34,80,-65,-14,175,512,278,78,-78,-136
-97,-53,43,75,-70,-4,180,541,297,82,-78,-141
-92,-43,48,68,-70,2,185,566,312,87,-78,-156
-92,-34,58,63,-75,12,185,585,322,87,-82,-161
-92,-19,73,56,-82,26,190,610,331,87,-82,-161
-87,-9,78,48,-82,34,190,619,341,92,-87,-161
-78,0,78,39,-78,39,185,624,341,92,-87,-161
-73,14,87,29,-80,51,180,624,346,87,-87,-156
-68,24,92,21,-80,58,180,624,346,87,-87,-161
-58,34,92,12,-75,63,165,614,341,87,-87,-156
-53,43,97,4,-75,70,161,595,331,82,-87,-146
-43,53,97,-4,-70,75,156,570,322,78,-87,-136
-34,53,87,-9,-61,70,146,531,307,73,-82,-126
-34,58,92,-12,-63,75,136,488,287,68,-73,-117
-24,58,82,-17,-53,70,112,439,253,58,-58,-102
-19,63,82,-21,-51,73,97,380,219,48,-48,-87
-14,63,78,-24,-46,70,87,326,195,43,-43,-73
-14,63,78,-24,-46,70,68,268,161,34,-39,-58
-4,63,68,-29,-36,65,58,204,122,24,-34,-43
0,48,48,-24,-24,48,48,151,87,14,-29,-34
0,43,43,-21,-21,43,39,102,63,0,-29,-29
-4,39,43,-17,-24,41,29,68,34,-14,-29,-24
-4,29,34,-12,-19,31,19,34,9,-39,-29,-24
-4,14,19,-4,-12,17,14,0,-9,-48,-24,-19
-9,9,19,0,-14,14,4,-29,-29,-58,-29,-19
-9,0,9,4,-9,4,-4,-48,-39,-68,-39,-24
-14,-9,4,12,-9,-2,-4,-63,-58,-78,-48,-29
-19,-14,4,17,-12,-4,-4,-82,-63,-87,-53,-29
-24,-14,9,19,-17,-2,-4,-87,-68,-87,-53,-34
-24,-19,4,21,-14,-7,0,-92,-78,-92,-58,-34
-24,-24,0,24,-12,-12,0,-102,-87,-97,-63,-34
-24,-29,-4,26,-9,-17,0,-102,-92,-102,-68,-39
-24,-29,-4,26,-9,-17,0,-112,-97,-102,-68,-39
-24,-39,-14,31,-4,-26,-4,-117,-97,-107,-68,-43
-29,-39,-9,34,-9,-24,-4,-122,-102,-107,-73,-39
-34,-43,-9,39,-12,-26,-4,-126,-107,-102,-78,-39
-34,-43,-9,39,-12,-26,-4,-122,-107,-102,-78,-39
-34,-43,-9,39,-12,-26,-4,-117,-107,-107,-78,-39
-34,-43,-9,39,-12,-26,0,-117,-107,-107,-78,-43
-34,-43,-9,39,-12,-26,4,-117,-107,-107,-82,-43
-34,-48,-14,41,-9,-31,4,-117,-107,-107,-82,-43
-34,-53,-19,43,-7,-36,4,-117,-107,-107,-82,-43
-43,-53,-9,48,-17,-31,9,-112,-107,-107,-82,-48
-43,-53,-9,48,-17,-31,9,-112,-107,-112,-87,-48
-43,-58,-14,51,-14,-36,9,-112,-102,-112,-82,-48
-48,-58,-9,53,-19,-34,14,-112,-102,-112,-82,-48
-48,-58,-9,53,-19,-34,14,-112,-97,-112,-82,-53
-48,-58,-9,53,-19,-34,19,-112,-87,-112,-82,-58
-58,-58,0,58,-29,-29,19,-112,-87,-112,-82,-58
-63,-63,0,63,-31,-31,24,-107,-82,-107,-82,-58
-68,-63,4,65,-36,-29,29,-102,-78,-107,-87,-58
-68,-68,0,68,-34,-34,34,-97,-78,-107,-92,-63
-73,-68,4,70,-39,-31,34,-92,-78,-102,-92,-63
-78,-73,4,75,-41,-34,39,-87,-73,-102,-92,-68
-78,-73,4,75,-41,-34,43,-78,-68,-97,-92,-73
-78,-73,4,75,-41,-34,48,-73,-68,-97,-97,-78
-78,-73,4,75,-41,-34,48,-68,-63,-97,-97,-78
-78,-78,0,78,-39,-39,48,-68,-58,-97,-97,-78
-73,-78,-4,75,-34,-41,48,-68,-58,-97,-97,-78
-68,-78,-9,73,-29,-43,48,-68,-58,-97,-97,-78
-68,-78,-9,73,-29,-43,48,-68,-53,-97,-97,-78
-68,-82,-14,75,-26,-48,48,-63,-48,-97,-92,-78
-73,-87,-14,80,-29,-51,53,-63,-48,-97,-92,-78
-78,-97,-19,87,-29,-58,48,-63,-48,-97,-87,-78
-73,-87,-14,80,-29,-51,48,-58,-39,-92,-82,-73
-63,-68,-4,65,-29,-36,53,-43,-29,-78,-68,-63
-53,-39,14,46,-34,-12,53,-29,-14,-63,-58,-53
-48,-24,24,36,-36,0,58,-19,-4,-43,-48,-39
-43,-14,29,29,-36,7,58,-19,0,-43,-39,-34
-43,-9,34,26,-39,12,58,-19,0,-43,-39,-29
-39,-4,34,21,-36,14,63,-14,0,-39,-34,-29
-39,4,43,17,-41,24,68,-9,4,-34,-29,-19
-34,14,48,9,-41,31,73,0,14,-24,-24,-9
-19,34,53,-7,-36,43,78,9,29,-4,4,4
4,68,63,-36,-29,65,58,14,48,19,29,39
