I,II,III,aVR,aVL,aVF,V1,V2,V3,V4,V5,V6,
-58,-58,0,58,-29,-29,58,68,19,-19,-29,-48
-53,-53,0,53,-26,-26,58,68,9,-19,-29,-48
-48,-48,0,48,-24,-24,58,68,0,-19,-29,-48
-48,-48,0,48,-24,-24,53,68,0,-19,-29,-48
-48,-48,0,48,-24,-24,48,68,0,-19,-29,-48
-43,-39,4,41,-24,-17,48,73,0,-14,-19,-39
-39,-29,9,34,-24,-9,48,78,0,-9,-9,-29
-34,-29,4,31,-19,-12,48,78,0,-9,-9,-24
-29,-29,0,29,-14,-14,48,78,0,-9,-9,-19
-24,-24,0,24,-12,-12,43,78,0,-4,-9,-19
-19,-19,0,19,-9,-9,39,78,0,0,-9,-19
-4,-14,-9,9,2,-12,29,78,0,0,-9,-14
9,-9,-19,0,14,-14,19,78,0,0,-9,-9
9,-4,-14,-2,12,-9,14,78,4,9,0,-4
9,0,-9,-4,9,-4,9,78,9,19,9,0
29,9,-19,-19,24,-4,9,78,9,19,9,0
48,19,-29,-34,39,-4,9,78,9,19,9,0
58,29,-29,-43,43,0,0,78,9,24,29,19
68,39,-29,-53,48,4,-9,78,9,29,48,39
82,43,-39,-63,61,2,-19,73,9,39,48,43
97,48,-48,-73,73,0,-29,68,9,48,48,48
112,63,-48,-87,80,7,-39,68,9,53,58,58
126,78,-48,-102,87,14,-48,68,9,58,68,68
141,92,-48,-117,95,21,-58,63,14,63,78,78
156,107,-48,-131,102,29,-68,58,19,68,87,87
170,122,-48,-146,109,36,-78,58,19,78,97,102
185,136,-48,-161,117,43,-87,58,19,87,107,117
190,136,-53,-163,122,41,-92,53,19,87,107,117
195,136,-58,-165,126,39,-97,48,19,87,107,117
209,141,-68,-175,139,36,-112,39,19,87,107,122
224,146,-78,-185,151,34,-126,29,19,87,107,126
229,161,-68,-195,148,46,-126,29,19,92,112,131
234,175,-58,-204,146,58,-126,29,19,97,117,136
234,175,-58,-204,146,58,-131,19,19,102,126,146
234,175,-58,-204,146,58,-136,9,19,107,136,156
234,175,-58,-204,146,58,-136,4,19,107,136,156
234,175,-58,-204,146,58,-136,0,19,107,136,156
224,175,-48,-200,136,63,-136,-4,24,107,131,151
214,175,-39,-195,126,68,-136,-9,29,107,126,146
204,175,-29,-190,117,73,-131,-9,29,107,126,141
195,175,-19,-185,107,78,-126,-9,29,107,126,136
185,170,-14,-178,100,78,-117,-9,29,102,126,136
175,165,-9,-170,92,78,-107,-9,29,97,126,136
156,156,0,-156,78,78,-102,-9,29,97,117,131
136,146,9,-141,63,78,-97,-9,29,97,107,126
122,136,14,-129,53,75,-87,-9,29,92,102,117
107,126,19,-117,43,73,-78,-9,29,87,97,107
92,112,19,-102,36,65,-68,-9,29,78,82,92
78,97,19,-87,29,58,-58,-9,29,68,68,78
63,78,14,-70,24,46,-48,-9,24,58,58,68
48,58,9,-53,19,34,-39,-9,19,48,48,58
29,39,9,-34,9,24,-29,-9,14,48,48,53
9,19,9,-14,0,14,-19,-9,9,48,48,48
0,14,14,-7,-7,14,-9,-9,9,39,39,39
-9,9,19,0,-14,14,0,-9,9,29,29,29
-9,4,14,2,-12,9,0,-4,4,24,19,24
-9,0,9,4,-9,4,0,0,0,19,9,19
-19,-4,14,12,-17,4,9,0,0,9,4,9
-29,-9,19,19,-24,4,19,0,0,0,0,0
-29,-14,14,21,-21,0,19,4,0,0,0,0
-29,-19,9,24,-19,-4,19,9,0,0,0,0
-29,-24,4,26,-17,-9,24,9,0,0,0,-4
-29,-29,0,29,-14,-14,29,9,0,0,0,-9
-34,-29,4,31,-19,-12,29,9,-4,-4,-9,-19
-39,-29,9,34,-24,-9,29,9,-9,-9,-19,-29
-39,-29,9,34,-24,-9,29,9,-9,-9,-19,-29
-39,-29,9,34,-24,-9,29,9,-9,-9,-19,-29
-43,-39,4,41,-24,-17,29,9,-9,-9,-19,-24
-48,-48,0,48,-24,-24,29,9,-9,-9,-19,-19
-48,-39,9,43,-29,-14,29,9,-9,-9,-19,-19
-48,-29,19,39,-34,-4,29,9,-9,-9,-19,-19
-48,-29,19,39,-34,-4,34,14,-4,-9,-14,-19
-48,-29,19,39,-34,-4,39,19,0,-9,-9,-19
-48,-29,19,39,-34,-4,39,19,0,-9,-9,-19
-48,-29,19,39,-34,-4,39,19,0,-9,-9,-19
-48,-29,19,39,-34,-4,39,19,0,-9,-9,-19
-48,-29,19,39,-34,-4,39,19,0,-9,-9,-19
-48,-29,19,39,-34,-4,39,14,0,-9,-9,-19
-48,-29,19,39,-34,-4,39,9,0,-9,-9,-19
-48,-29,19,39,-34,-4,39,9,0,-4,-4,-14
-48,-29,19,39,-34,-4,39,9,0,0,0,-9
-48,-24,24,36,-36,0,39,9,4,0,0,-9
-48,-19,29,34,-39,4,39,9,9,0,0,-9
-48,-14,34,31,-41,9,39,9,14,0,0,-4
-48,-9,39,29,-43,14,39,9,19,0,0,0
-48,-9,39,29,-43,14,34,9,19,0,0,0
-48,-9,39,29,-43,14,29,9,19,0,0,0
-43,-9,34,26,-39,12,29,9,29,0,-9,0
-39,-9,29,24,-34,9,29,9,39,0,-19,0
-39,-9,29,24,-34,9,29,9,29,4,-9,0
-39,-9,29,24,-34,9,29,9,19,9,0,0
-43,-9,34,26,-39,12,29,9,19,9,0,0
-48,-9,39,29,-43,14,29,9,19,9,0,0
-48,-9,39,29,-43,14,29,9,19,9,0,0
-48,-9,39,29,-43,14,29,9,19,9,0,0
-43,-9,34,26,-39,12,29,9,19,9,0,4
-39,-9,29,24,-34,9,29,9,19,9,0,9
-39,-9,29,24,-34,9,29,9,19,9,-4,9
-39,-9,29,24,-34,9,29,9,19,9,-9,9
-39,-14,24,26,-31,4,24,4,19,4,-9,4
-39,-19,19,29,-29,0,19,0,19,0,-9,0
-39,-29,9,34,-24,-9,19,0,19,0,-9,0
-39,-39,0,39,-19,-19,19,0,19,0,-9,0
-39,-24,14,31,-26,-4,24,4,19,0,-9,-4
-39,-9,29,24,-34,9,29,9,19,0,-9,-9
-39,-19,19,29,-29,0,29,9,14,0,-9,-14
-39,-29,9,34,-24,-9,29,9,9,0,-9,-19
-39,-29,9,34,-24,-9,29,9,9,0,-9,-19
-39,-29,9,34,-24,-9,29,9,9,0,-9,-19
-39,-29,9,34,-24,-9,29,4,9,-4,-14,-19
-39,-29,9,34,-24,-9,29,0,9,-9,-19,-19
-43,-29,14,36,-29,-7,29,0,9,-14,-24,-19
-48,-29,19,39,-34,-4,29,0,9,-19,-29,-19
-48,-29,19,39,-34,-4,29,4,9,-19,-29,-19
-48,-29,19,39,-34,-4,29,9,9,-19,-29,-19
-48,-29,19,39,-34,-4,29,9,4,-19,-29,-24
-48,-29,19,39,-34,-4,29,9,0,-19,-29,-29
-53,-29,24,41,-39,-2,29,0,0,-19,-34,-29
-58,-29,29,43,-43,0,29,-9,0,-19,-39,-29
-58,-29,29,43,-43,0,29,0,4,-19,-39,-29
-58,-29,29,43,-43,0,29,9,9,-19,-39,-29
-43,-24,19,34,-31,-2,34,9,9,-19,-39,-29
-29,-19,9,24,-19,-4,39,9,9,-19,-39,-29
-39,-19,19,29,-29,0,39,9,4,-19,-39,-34
-48,-19,29,34,-39,4,39,9,0,-19,-39,-39
-48,-19,29,34,-39,4,39,9,0,-19,-39,-39
-48,-19,29,34,-39,4,39,9,0,-19,-39,-39
-48,-19,29,34,-39,4,39,9,4,-19,-39,-39
-48,-19,29,34,-39,4,39,9,9,-19,-39,-39
-48,-24,24,36,-36,0,39,4,9,-24,-39,-39
-48,-29,19,39,-34,-4,39,0,9,-29,-39,-39
-48,-29,19,39,-34,-4,39,0,4,-29,-39,-39
-48,-29,19,39,-34,-4,39,0,0,-29,-39,-39
-48,-29,19,39,-34,-4,34,4,0,-29,-39,-39
-48,-29,19,39,-34,-4,29,9,0,-29,-39,-39
-48,-29,19,39,-34,-4,29,9,0,-29,-34,-34
-48,-29,19,39,-34,-4,29,9,0,-29,-29,-29
-48,-29,19,39,-34,-4,29,9,0,-29,-29,-29
-48,-29,19,39,-34,-4,29,9,0,-29,-29,-29
-48,-29,19,39,-34,-4,29,9,4,-29,-39,-39
-48,-29,19,39,-34,-4,29,9,9,-29,-48,-48
-48,-29,19,39,-34,-4,29,9,9,-29,-48,-48
-48,-29,19,39,-34,-4,29,9,9,-29,-48,-48
-48,-24,24,36,-36,0,29,4,4,-29,-48,-48
-48,-19,29,34,-39,4,29,0,0,-29,-48,-48
-48,-19,29,34,-39,4,29,0,0,-34,-48,-48
-48,-19,29,34,-39,4,29,0,0,-39,-48,-48
-53,-24,29,39,-41,2,29,0,0,-39,-48,-48
-58,-29,29,43,-43,0,29,0,0,-39,-48,-48
-58,-29,29,43,-43,0,29,0,0,-39,-48,-48
-58,-29,29,43,-43,0,29,0,0,-39,-48,-48
-53,-19,34,36,-43,7,29,0,0,-39,-48,-48
-48,-9,39,29,-43,14,29,0,0,-39,-48,-48
-48,-9,39,29,-43,14,29,0,0,-39,-43,-48
-48,-9,39,29,-43,14,29,0,0,-39,-39,-48
-48,-14,34,31,-41,9,29,0,0,-39,-39,-48
-48,-19,29,34,-39,4,29,0,0,-39,-39,-48
-48,-19,29,34,-39,4,29,0,0,-39,-39,-48
-48,-19,29,34,-39,4,29,0,0,-39,-39,-48
-48,-19,29,34,-39,4,29,4,0,-39,-39,-48
-48,-19,29,34,-39,4,29,9,0,-39,-39,-48
-48,-19,29,34,-39,4,29,9,0,-39,-39,-48
-48,-19,29,34,-39,4,29,9,0,-39,-39,-48
-48,-19,29,34,-39,4,29,9,0,-39,-43,-48
-48,-19,29,34,-39,4,29,9,0,-39,-48,-48
-53,-24,29,39,-41,2,29,4,0,-39,-48,-48
-58,-29,29,43,-43,0,29,0,0,-39,-48,-48
-58,-29,29,43,-43,0,29,0,0,-39,-48,-48
-58,-29,29,43,-43,0,29,0,0,-39,-48,-48
-53,-24,29,39,-41,2,29,0,0,-39,-43,-48
-48,-19,29,34,-39,4,29,0,0,-39,-39,-48
-48,-19,29,34,-39,4,29,4,0,-39,-39,-48
-48,-19,29,34,-39,4,29,9,0,-39,-39,-48
-48,-24,24,36,-36,0,29,9,0,-39,-48,-48
-48,-29,19,39,-34,-4,29,9,0,-39,-58,-48
-48,-29,19,39,-34,-4,29,9,0,-34,-48,-48
-48,-29,19,39,-34,-4,29,9,0,-29,-39,-48
-48,-29,19,39,-34,-4,29,9,0,-29,-39,-48
-48,-29,19,39,-34,-4,29,9,0,-29,-39,-48
-48,-29,19,39,-34,-4,29,9,0,-34,-43,-48
-48,-29,19,39,-34,-4,29,9,0,-39,-48,-48
-48,-29,19,39,-34,-4,29,9,0,-39,-48,-48
-48,-29,19,39,-34,-4,29,9,0,-39,-48,-48
-48,-29,19,39,-34,-4,29,9,0,-39,-48,-53
-48,-29,19,39,-34,-4,29,9,0,-39,-48,-58
-48,-29,19,39,-34,-4,29,9,4,-39,-43,-58
-48,-29,19,39,-34,-4,29,9,9,-39,-39,-58
-48,-29,19,39,-34,-4,29,9,9,-39,-39,-58
-48,-29,19,39,-34,-4,29,9,9,-39,-39,-58
-48,-29,19,39,-34,-4,29,9,9,-39,-39,-58
-48,-29,19,39,-34,-4,29,9,9,-39,-39,-58
-48,-34,14,41,-31,-9,29,14,9,-39,-39,-58
-48,-39,9,43,-29,-14,29,19,9,-39,-39,-58
-48,-39,9,43,-29,-14,29,19,9,-39,-39,-53
-48,-39,9,43,-29,-14,29,19,9,-39,-39,-48
-48,-34,14,41,-31,-9,29,19,9,-34,-39,-48
-48,-29,19,39,-34,-4,29,19,9,-29,-39,-48
-43,-29,14,36,-29,-7,29,19,19,-29,-39,-43
-39,-29,9,34,-24,-9,29,19,29,-29,-39,-39
-39,-24,14,31,-26,-4,24,19,34,-24,-34,-39
-39,-19,19,29,-29,0,19,19,39,-19,-29,-39
-34,-14,19,24,-26,2,19,19,39,-14,-29,-39
-29,-9,19,19,-24,4,19,19,39,-9,-29,-39
-24,-4,19,14,-21,7,24,29,48,-4,-24,-34
-19,0,19,9,-19,9,29,39,58,0,-19,-29
-14,4,19,4,-17,12,29,39,58,0,-19,-29
-9,9,19,0,-14,14,29,39,58,0,-19,-29
-9,9,19,0,-14,14,14,34,58,4,-14,-29
-9,9,19,0,-14,14,0,29,58,9,-9,-29
-9,19,29,-4,-19,24,-4,24,63,9,-4,-24
-9,24,34,-7,-21,29,-14,9,63,9,0,-19
-14,29,43,-7,-29,36,-24,-4,68,14,0,-19
-14,29,43,-7,-29,36,-39,-24,53,4,-9,-24
-4,34,39,-14,-21,36,-53,-48,43,-4,-14,-24
4,34,29,-19,-12,31,-58,-58,34,-4,-14,-24
4,39,34,-21,-14,36,-58,-58,29,-4,-9,-19
14,43,29,-29,-7,36,-63,-48,24,-9,-9,-14
24,43,19,-34,2,31,-63,-48,24,-9,-4,-14
34,34,0,-34,17,17,-58,-43,14,-19,-14,-24
34,29,-4,-31,19,12,-53,-43,19,-14,-14,-34
24,14,-9,-19,17,2,-39,-34,24,-14,-19,-34
14,4,-9,-9,12,-2,-24,-24,24,-14,-24,-34
4,0,-4,-2,4,-2,-14,-14,24,-14,-29,-34
-9,-9,0,9,-4,-4,-4,-9,19,-19,-34,-34
-29,-24,4,26,-17,-9,4,-9,4,-34,-48,-48
-43,-39,4,41,-24,-17,14,-9,-14,-48,-58,-63
-58,-53,4,56,-31,-24,24,-9,-24,-63,-78,-78
-63,-63,0,63,-31,-31,24,-9,-24,-73,-87,-87
-63,-73,-9,68,-26,-41,34,-9,-24,-73,-92,-92
-63,-73,-9,68,-26,-41,34,-4,-24,-78,-92,-92
-63,-73,-9,68,-26,-41,34,0,-24,-73,-87,-92
-68,-73,-4,70,-31,-39,39,0,-14,-63,-82,-97
-73,-73,0,73,-36,-36,39,0,-9,-63,-78,-102
-73,-73,0,73,-36,-36,39,0,-14,-63,-82,-102
-73,-73,0,73,-36,-36,43,0,-14,-63,-87,-102
-73,-68,4,70,-39,-31,43,4,-9,-68,-92,-97
-73,-63,9,68,-41,-26,48,4,-9,-68,-92,-92
-73,-63,9,68,-41,-26,48,4,-14,-63,-82,-92
-78,-68,9,73,-43,-29,48,4,-19,-63,-78,-97
-78,-68,9,73,-43,-29,43,0,-19,-63,-78,-97
-78,-68,9,73,-43,-29,43,-4,-19,-63,-78,-92
-78,-68,9,73,-43,-29,43,-4,-19,-68,-82,-92
-78,-68,9,73,-43,-29,43,-4,-19,-68,-87,-92
-82,-73,9,78,-46,-31,39,-4,-19,-73,-87,-92
-82,-78,4,80,-43,-36,39,-4,-19,-73,-87,-97
-78,-78,0,78,-39,-39,43,-4,-19,-73,-87,-102
-78,-78,0,78,-39,-39,43,0,-19,-73,-92,-107
-78,-78,0,78,-39,-39,43,4,-19,-73,-92,-107
-78,-78,0,78,-39,-39,48,9,-19,-73,-97,-107
-82,-92,-9,87,-36,-51,53,24,-19,-87,-107,-117
-87,-107,-19,97,-34,-63,63,43,-19,-97,-117,-141
-97,-122,-24,109,-36,-73,78,48,-19,-92,-131,-141
-102,-131,-29,117,-36,-80,87,73,-9,-78,-122,-136
-97,-102,-4,100,-46,-53,87,78,4,-34,-63,-73
-58,-78,-19,68,-19,-48,87,136,43,48,39,53
39,-14,-53,-12,46,-34,73,190,122,200,214,248
214,68,-146,-141,180,-39,0,185,165,356,405,478
444,204,-239,-324,341,-17,-146,78,180,536,634,771
722,390,-331,-556,527,29,-356,-92,170,732,902,1102
936,444,-492,-690,714,-24,-488,-200,122,790,985,1224
1058,448,-610,-753,834,-80,-575,-292,39,736,932,1161
951,317,-634,-634,793,-158,-527,-312,-87,448,551,732
649,151,-497,-400,573,-173,-375,-287,-141,141,112,170
258,175,-82,-217,170,46,-278,-409,-58,107,43,39
-34,195,229,-80,-131,212,-195,-488,4,73,4,-19
-151,195,346,-21,-248,270,-165,-507,-58,-14,-43,-68
-229,117,346,56,-287,231,-131,-488,-190,-131,-131,-136
-258,43,302,107,-280,173,-102,-444,-273,-195,-185,-175
-234,-9,224,122,-229,107,-82,-361,-283,-229,-209,-195
-190,-43,146,117,-168,51,-53,-273,-263,-229,-214,-200
-161,-53,107,107,-134,26,-29,-195,-209,-214,-214,-200
-141,-43,97,92,-119,26,-4,-141,-156,-170,-180,-170
-126,-43,82,85,-104,19,14,-102,-112,-126,-146,-146
-112,-43,68,78,-90,12,24,-58,-87,-107,-136,-136
-92,-48,43,70,-68,-2,39,-19,-63,-102,-126,-126
-82,-63,19,73,-51,-21,53,0,-43,-92,-112,-117
-82,-63,19,73,-51,-21,53,9,-34,-78,-102,-107
-78,-58,19,68,-48,-19,53,14,-24,-63,-87,-97
-68,-58,9,63,-39,-24,53,29,-14,-53,-78,-92
-63,-53,9,58,-36,-21,58,39,-4,-53,-73,-82
-63,-53,9,58,-36,-21,63,39,-4,-53,-73,-82
-63,-53,9,58,-36,-21,58,39,-4,-48,-73,-82
-63,-48,14,56,-39,-17,53,43,0,-48,-73,-82
-58,-43,14,51,-36,-14,53,53,0,-48,-73,-78
-58,-43,14,51,-36,-14,53,53,0,-48,-73,-78
-63,-48,14,56,-39,-17,58,53,4,-43,-73,-78
-63,-48,14,56,-39,-17,58,53,4,-43,-68,-78
-63,-53,9,58,-36,-21,58,58,4,-43,-68,-78
-58,-53,4,56,-31,-24,63,58,9,-43,-68,-78
-58,-53,4,56,-31,-24,63,58,9,-43,-68,-78
-58,-53,4,56,-31,-24,63,58,9,-43,-68,-78
-48,-58,-9,53,-19,-34,63,63,14,-39,-68,-73
-48,-68,-19,58,-14,-43,63,63,14,-39,-73,-73
-48,-58,-9,53,-19,-34,58,63,14,-39,-73,-73
-48,-48,0,48,-24,-24,58,63,14,-39,-73,-73
-53,-48,4,51,-29,-21,58,63,14,-39,-68,-68
-53,-48,4,51,-29,-21,58,68,14,-39,-63,-68
-53,-48,4,51,-29,-21,58,68,19,-34,-58,-58
-53,-48,4,51,-29,-21,58,68,19,-34,-53,-53
-48,-48,0,48,-24,-24,53,68,14,-24,-48,-53
-39,-48,-9,43,-14,-29,53,68,14,-19,-43,-53
-34,-39,-4,36,-14,-21,48,68,14,-19,-43,-53
-34,-39,-4,36,-14,-21,48,73,14,-19,-43,-53
-34,-39,-4,36,-14,-21,48,68,14,-24,-43,-53
-29,-34,-4,31,-12,-19,48,63,14,-29,-43,-48
-24,-24,0,24,-12,-12,39,63,14,-29,-39,-43
-24,-24,0,24,-12,-12,29,63,14,-24,-34,-43
-9,-19,-9,14,0,-14,24,63,9,-19,-34,-39
-9,-14,-4,12,-2,-9,19,63,9,-19,-29,-34
0,-14,-14,7,7,-14,19,68,14,-14,-24,-29
4,-14,-19,4,12,-17,9,68,14,-14,-24,-24
14,-9,-24,-2,19,-17,14,68,14,-4,-14,-19
14,4,-9,-9,12,-2,9,68,14,-4,-14,-14
19,9,-9,-14,14,0,4,68,14,-4,-14,-9
34,19,-14,-26,24,2,0,73,14,4,-4,0
48,24,-24,-36,36,0,-9,73,14,14,0,0
53,29,-24,-41,39,2,-14,73,14,14,9,0
68,39,-29,-53,48,4,-29,63,14,14,9,9
87,58,-29,-73,58,14,-43,63,9,24,24,19
112,73,-39,-92,75,17,-48,63,14,34,34,34
122,78,-43,-100,82,17,-53,68,19,43,43,43
141,102,-39,-122,90,31,-68,68,19,48,53,58
165,117,-48,-141,107,34,-82,63,19,63,68,73
170,122,-48,-146,109,36,-92,53,19,68,78,78
185,131,-53,-158,119,39,-92,48,24,73,82,87
204,146,-58,-175,131,43,-107,43,24,78,92,97
214,161,-53,-187,134,53,-117,39,24,78,97,107
229,170,-58,-200,143,56,-126,34,29,87,102,112
234,180,-53,-207,143,63,-136,29,29,97,117,122
244,185,-58,-214,151,63,-141,24,24,92,117,131
248,200,-48,-224,148,75,-156,14,24,87,122,136
258,204,-53,-231,156,75,-161,14,19,92,126,141
263,209,-53,-236,158,78,-161,9,14,97,131,146
268,214,-53,-241,161,80,-165,0,19,102,136,151
268,219,-48,-244,158,85,-170,-4,24,107,136,156
258,214,-43,-236,151,85,-175,-4,24,107,136,156
248,219,-29,-234,139,95,-180,-14,24,107,136,161
248,219,-29,-234,139,95,-180,-14,24,107,136,161
244,214,-29,-229,136,92,-175,-14,29,112,141,165
234,209,-24,-222,129,92,-165,-19,34,112,141,165
224,204,-19,-214,122,92,-156,-24,34,107,131,161
195,180,-14,-187,104,82,-146,-24,34,97,131,146
175,170,-4,-173,90,82,-136,-24,34,97,131,141
161,161,0,-161,80,80,-126,-24,39,87,117,131
146,151,4,-148,70,78,-122,-24,39,82,107,122
126,136,9,-131,58,73,-102,-24,39,82,97,112
97,112,14,-104,41,63,-92,-24,39,78,92,107
87,112,24,-100,31,68,-82,-24,34,68,82,92
68,97,29,-82,19,63,-73,-24,24,58,68,82
58,82,24,-70,17,53,-63,-24,24,48,58,63
48,73,24,-61,12,48,-53,-24,24,43,48,58
29,63,34,-46,-2,48,-43,-19,19,39,43,48
19,48,29,-34,-4,39,-39,-19,19,29,34,39
14,39,24,-26,-4,31,-24,-19,14,19,24,24
4,24,19,-14,-7,21,-24,-19,14,14,19,14
-4,19,24,-7,-14,21,-19,-19,4,9,14,9
-4,24,29,-9,-17,26,-19,-19,4,4,9,4
-4,24,29,-9,-17,26,-14,-19,4,0,4,0
-14,14,29,0,-21,21,-9,-14,4,0,4,-4
-14,9,24,2,-19,17,-4,-14,0,0,0,0
-24,0,24,12,-24,12,-4,-14,0,-9,-4,-4
-29,-9,19,19,-24,4,-4,-14,0,-9,-9,-14
-29,-9,19,19,-24,4,-4,-14,-4,-14,-9,-14
-29,9,39,9,-34,24,0,-14,-4,-14,4,-4
-29,-4,24,17,-26,9,4,-9,-4,-9,-4,-14
-24,-4,19,14,-21,7,9,-9,-4,-9,-9,-14
-19,0,19,9,-19,9,9,-9,0,-9,-9,-14
-29,-4,24,17,-26,9,9,-9,-4,-9,-9,-14
-34,-4,29,19,-31,12,9,-9,-9,-14,-9,-9
-39,-9,29,24,-34,9,4,-9,-9,-14,-19,-9
-43,-14,29,29,-36,7,0,-9,-9,-14,-19,-9
-43,-14,29,29,-36,7,4,-4,-4,-14,-14,-19
-43,-4,39,24,-41,17,4,-4,-4,-14,-14,-24
-39,-4,34,21,-36,14,4,-4,0,-14,-9,-19
-34,4,39,14,-36,21,4,-4,4,-14,-9,-19
-34,-9,24,21,-29,7,4,0,4,-14,-14,-19
-34,-9,24,21,-29,7,4,4,9,-14,-14,-19
-39,-9,29,24,-34,9,4,4,4,-9,-9,-19
-39,-9,29,24,-34,9,9,4,0,-9,-4,-19
-39,-4,34,21,-36,14,14,0,4,-9,-4,-14
-43,-4,39,24,-41,17,14,-4,4,-9,-9,-9
-48,-9,39,29,-43,14,9,-4,4,-4,-9,-9
-48,-9,39,29,-43,14,9,-9,4,0,-9,-9
-48,-4,43,26,-46,19,9,-4,4,0,-9,-9
-43,0,43,21,-43,21,9,0,4,0,-9,-9
-39,4,43,17,-41,24,9,0,4,4,-4,-4
-39,4,43,17,-41,24,9,0,4,4,0,-4
-39,4,43,17,-41,24,9,-4,4,4,0,-4
-39,4,43,17,-41,24,9,-9,4,4,0,0
-48,4,53,21,-51,29,4,-9,4,0,0,0
-39,4,43,17,-41,24,4,-9,4,-4,0,0
-34,4,39,14,-36,21,4,-9,4,-4,-4,0
-34,9,43,12,-39,26,4,-9,4,-4,-4,0
-34,9,43,12,-39,26,9,-9,4,-4,-4,0
-24,9,34,7,-29,21,9,-9,4,-4,-4,0
-34,4,39,14,-36,21,4,-14,4,-4,-4,-4
-39,-4,34,21,-36,14,4,-14,4,-4,-4,-4
-39,-4,34,21,-36,14,4,-14,4,-4,-9,-4
-34,-4,29,19,-31,12,4,-14,4,-9,-9,-4
-34,-4,29,19,-31,12,4,-14,4,-9,-9,-4
-29,-4,24,17,-26,9,4,-14,-4,-14,-14,-9
-29,0,29,14,-29,14,4,-14,-4,-14,-14,-19
-29,4,34,12,-31,19,4,-14,-4,-14,-14,-24
-34,4,39,14,-36,21,4,-14,-4,-14,-14,-24
-34,0,34,17,-34,17,4,-14,-9,-19,-19,-24
-39,0,39,19,-39,19,4,-14,-14,-19,-19,-29
-39,-4,34,21,-36,14,4,-19,-14,-24,-24,-29
-34,-4,29,19,-31,12,0,-19,-14,-24,-24,-29
-34,-4,29,19,-31,12,0,-19,-19,-24,-24,-29
-39,-4,34,21,-36,14,0,-14,-19,-24,-24,-29
-39,-9,29,24,-34,9,0,-14,-24,-24,-29,-29
-39,-9,29,24,-34,9,0,-14,-24,-24,-29,-29
-39,-9,29,24,-34,9,0,-14,-24,-24,-29,-29
-39,-9,29,24,-34,9,4,-14,-24,-29,-24,-34
-39,-9,29,24,-34,9,4,-14,-24,-29,-24,-34
-39,-9,29,24,-34,9,4,-14,-24,-34,-34,-34
-39,-14,24,26,-31,4,4,-19,-24,-34,-39,-39
-39,-14,24,26,-31,4,4,-19,-24,-34,-39,-39
-43,-19,24,31,-34,2,4,-14,-29,-39,-39,-39
-43,-19,24,31,-34,2,4,-14,-29,-39,-39,-39
-43,-19,24,31,-34,2,4,-14,-29,-39,-39,-43
-43,-24,19,34,-31,-2,4,-14,-29,-39,-39,-43
-48,-24,24,36,-36,0,4,-14,-29,-39,-39,-43
-48,-24,24,36,-36,0,0,-14,-29,-39,-39,-48
-48,-19,29,34,-39,4,0,-19,-34,-39,-39,-48
-48,-19,29,34,-39,4,0,-19,-34,-39,-43,-48
-48,-19,29,34,-39,4,4,-19,-34,-39,-43,-48
-43,-24,19,34,-31,-2,9,-24,-34,-39,-43,-48
-43,-29,14,36,-29,-7,9,-24,-34,-43,-43,-48
-43,-29,14,36,-29,-7,9,-24,-29,-43,-43,-43
-48,-29,19,39,-34,-4,9,-24,-24,-39,-43,-39
-53,-24,29,39,-41,2,4,-19,-24,-39,-43,-39
-53,-19,34,36,-43,7,4,-19,-29,-43,-43,-39
-43,-19,24,31,-34,2,4,-19,-29,-43,-39,-39
-43,-24,19,34,-31,-2,9,-19,-29,-43,-34,-43
-48,-29,19,39,-34,-4,9,-19,-29,-43,-34,-43
-48,-29,19,39,-34,-4,4,-19,-29,-48,-39,-43
-48,-34,14,41,-31,-9,4,-19,-29,-48,-39,-43
-48,-39,9,43,-29,-14,4,-19,-29,-43,-39,-43
-48,-34,14,41,-31,-9,4,-19,-29,-43,-43,-43
-53,-34,19,43,-36,-7,4,-19,-34,-48,-48,-48
-48,-29,19,39,-34,-4,0,-19,-29,-48,-48,-48
-48,-29,19,39,-34,-4,0,-19,-29,-48,-48,-48
-48,-29,19,39,-34,-4,0,-19,-29,-48,-48,-48
-48,-29,19,39,-34,-4,0,-19,-29,-48,-48,-48
-48,-29,19,39,-34,-4,0,-19,-29,-48,-48,-48
-48,-29,19,39,-34,-4,0,-19,-29,-48,-48,-48
-48,-29,19,39,-34,-4,0,-19,-29,-43,-43,-48
-48,-29,19,39,-34,-4,0,-19,-29,-39,-39,-48
-48,-29,19,39,-34,-4,4,-14,-29,-39,-39,-48
-48,-29,19,39,-34,-4,9,-9,-29,-39,-39,-48
-48,-29,19,39,-34,-4,9,-9,-29,-43,-39,-48
-48,-29,19,39,-34,-4,9,-9,-29,-48,-39,-48
-48,-29,19,39,-34,-4,9,-9,-29,-48,-39,-48
-48,-29,19,39,-34,-4,9,-9,-29,-48,-39,-48
-48,-29,19,39,-34,-4,9,-9,-24,-43,-39,-48
-48,-29,19,39,-34,-4,9,-9,-19,-39,-39,-48
-48,-34,14,41,-31,-9,9,-9,-19,-39,-39,-48
-48,-39,9,43,-29,-14,9,-9,-19,-39,-39,-48
-48,-39,9,43,-29,-14,9,-9,-19,-39,-39,-48
-48,-39,9,43,-29,-14,9,-9,-19,-39,-39,-48
-48,-34,14,41,-31,-9,9,-9,-19,-39,-39,-48
-48,-29,19,39,-34,-4,9,-9,-19,-39,-39,-48
-48,-29,19,39,-34,-4,9,-9,-19,-39,-39,-48
-48,-29,19,39,-34,-4,9,-9,-19,-39,-39,-48
-48,-34,14,41,-31,-9,9,-9,-19,-39,-39,-48
-48,-39,9,43,-29,-14,9,-9,-19,-39,-39,-48
-48,-39,9,43,-29,-14,9,-9,-24,-39,-39,-48
-48,-39,9,43,-29,-14,9,-9,-29,-39,-39,-48
-43,-39,4,41,-24,-17,9,-9,-29,-39,-39,-48
-39,-39,0,39,-19,-19,9,-9,-29,-39,-39,-48
-39,-39,0,39,-19,-19,9,-9,-24,-39,-39,-43
-39,-39,0,39,-19,-19,9,-9,-19,-39,-39,-39
-39,-39,0,39,-19,-19,9,-9,-19,-39,-34,-39
-39,-39,0,39,-19,-19,9,-9,-19,-39,-29,-39
-43,-34,9,39,-26,-12,9,-9,-19,-39,-29,-39
-48,-29,19,39,-34,-4,9,-9,-19,-39,-29,-39
-48,-29,19,39,-34,-4,9,-9,-19,-39,-29,-39
-48,-29,19,39,-34,-4,9,-9,-19,-39,-29,-39
-48,-39,9,43,-29,-14,9,-9,-19,-39,-29,-43
-48,-48,0,48,-24,-24,9,-9,-19,-39,-29,-48
-48,-48,0,48,-24,-24,9,-9,-19,-39,-29,-48
-48,-48,0,48,-24,-24,9,-9,-19,-39,-29,-48
-48,-48,0,48,-24,-24,9,-9,-19,-39,-29,-48
-48,-48,0,48,-24,-24,9,-9,-19,-39,-29,-48
-48,-43,4,46,-26,-19,9,-9,-19,-39,-29,-48
-48,-39,9,43,-29,-14,9,-9,-19,-39,-29,-48
-48,-39,9,43,-29,-14,9,-9,-19,-39,-29,-48
-48,-39,9,43,-29,-14,9,-9,-19,-39,-29,-48
-43,-39,4,41,-24,-17,9,-9,-19,-39,-29,-48
-39,-39,0,39,-19,-19,9,-9,-19,-39,-29,-48
-39,-39,0,39,-19,-19,9,-9,-19,-39,-29,-48
-39,-39,0,39,-19,-19,9,-9,-19,-39,-29,-48
-43,-39,4,41,-24,-17,9,-9,-19,-39,-29,-48
-48,-39,9,43,-29,-14,9,-9,-19,-39,-29,-48
-48,-39,9,43,-29,-14,9,-9,-19,-39,-29,-43
-48,-39,9,43,-29,-14,9,-9,-19,-39,-29,-39
-48,-39,9,43,-29,-14,9,-9,-19,-43,-29,-39
-48,-39,9,43,-29,-14,9,-9,-19,-48,-29,-39
-48,-43,4,46,-26,-19,14,-9,-14,-48,-29,-39
-48,-48,0,48,-24,-24,19,-9,-9,-48,-29,-39
-48,-48,0,48,-24,-24,19,-9,-9,-48,-29,-39
-48,-48,0,48,-24,-24,19,-9,-9,-48,-29,-39
-48,-43,4,46,-26,-19,19,-9,-14,-48,-29,-39
-48,-39,9,43,-29,-14,19,-9,-19,-48,-29,-39
-43,-34,9,39,-26,-12,19,-4,-19,-43,-24,-39
-39,-29,9,34,-24,-9,19,0,-19,-39,-19,-39
-39,-29,9,34,-24,-9,19,4,-14,-34,-19,-39
-39,-29,9,34,-24,-9,19,9,-9,-29,-19,-39
-34,-24,9,29,-21,-7,19,14,0,-24,-19,-34
-29,-19,9,24,-19,-4,19,19,9,-19,-19,-29
-29,-19,9,24,-19,-4,14,19,9,-19,-14,-29
-29,-19,9,24,-19,-4,9,19,9,-19,-9,-29
-29,-14,14,21,-21,0,9,24,14,-14,-9,-24
-29,-9,19,19,-24,4,9,29,19,-9,-9,-19
-24,-9,14,17,-19,2,9,29,24,-4,-4,-14
-19,-9,9,14,-14,0,9,29,29,0,0,-9
-14,-9,4,12,-9,-2,0,29,29,0,4,-4
-9,-9,0,9,-4,-4,-9,29,29,0,9,0
-9,-4,4,7,-7,0,-14,19,34,4,9,0
-9,0,9,4,-9,4,-24,4,34,0,4,0
-14,4,19,4,-17,12,-39,-4,34,0,4,-4
-4,14,19,-4,-12,17,-53,-29,34,-4,4,-4
0,14,14,-7,-7,14,-63,-48,9,-4,4,-4
4,24,19,-14,-7,21,-68,-58,-4,0,9,0
24,34,9,-29,7,21,-73,-48,-4,0,9,9
24,34,9,-29,7,21,-73,-48,-4,0,9,14
29,29,0,-29,14,14,-68,-43,-14,-9,-9,4
34,29,-4,-31,19,12,-63,-43,-14,-9,-14,-4
24,14,-9,-19,17,2,-53,-34,-14,-14,-19,-9
19,4,-14,-12,17,-4,-43,-24,-14,-14,-19,-14
19,0,-19,-9,19,-9,-34,-14,-9,-14,-14,-14
9,-9,-19,0,14,-14,-24,-9,-4,-14,-9,-14
-9,-24,-14,17,2,-19,-14,-14,-14,-24,-19,-29
-29,-39,-9,34,-9,-24,-4,-19,-34,-39,-29,-43
-53,-58,-4,56,-24,-31,9,-19,-43,-53,-48,-58
-63,-73,-9,68,-26,-41,14,-19,-43,-63,-58,-68
-63,-82,-19,73,-21,-51,24,-14,-43,-63,-63,-82
-63,-82,-19,73,-21,-51,24,-9,-43,-73,-68,-92
-63,-82,-19,73,-21,-51,24,-9,-43,-73,-68,-82
-68,-82,-14,75,-26,-48,29,-9,-39,-63,-63,-73
-73,-82,-9,78,-31,-46,29,-9,-39,-63,-58,-73
-73,-82,-9,78,-31,-46,29,-9,-43,-63,-58,-73
-73,-82,-9,78,-31,-46,34,-9,-43,-63,-58,-73
-73,-82,-9,78,-31,-46,34,-4,-39,-68,-63,-73
-73,-82,-9,78,-31,-46,39,-4,-43,-68,-63,-73
-73,-82,-9,78,-31,-46,39,-4,-48,-63,-58,-73
-82,-87,-4,85,-39,-46,39,-4,-48,-63,-58,-78
-87,-87,0,87,-43,-43,39,-4,-48,-63,-58,-78
-87,-87,0,87,-43,-43,43,-4,-48,-68,-58,-73
-87,-87,0,87,-43,-43,43,-4,-48,-78,-58,-73
-87,-87,0,87,-43,-43,48,-4,-48,-78,-58,-73
-92,-87,4,90,-48,-41,48,-4,-48,-78,-58,-73
-87,-82,4,85,-46,-39,48,-4,-43,-73,-58,-78
-78,-78,0,78,-39,-39,53,-4,-39,-73,-58,-78
-78,-78,0,78,-39,-39,53,-4,-39,-73,-63,-78
-78,-78,0,78,-39,-39,53,-9,-39,-73,-63,-78
-78,-73,4,75,-41,-34,53,-14,-39,-73,-68,-68
-82,-82,0,82,-41,-41,53,-4,-39,-87,-78,-68
-78,-97,-19,87,-29,-58,63,14,-43,-97,-87,-102
-82,-112,-29,97,-26,-70,78,19,-48,-97,-102,-117
-122,-146,-24,134,-48,-85,92,43,-48,-112,-126,-151
-151,-141,9,146,-80,-65,97,48,-43,-102,-117,-141
-151,-126,24,139,-87,-51,112,107,-19,-68,-73,-87
-102,-82,19,92,-61,-31,112,165,43,34,39,29
0,-48,-48,24,24,-48,107,244,117,161,165,170
185,48,-136,-117,161,-43,29,214,161,307,336,380
522,278,-244,-400,383,17,-214,24,170,541,653,771
805,385,-419,-595,612,-17,-395,-107,141,678,834,1015
1127,488,-639,-807,883,-75,-600,-263,82,795,1024,1244
1254,444,-810,-849,1032,-183,-668,-341,-43,653,863,1083
1102,195,-907,-649,1005,-356,-531,-268,-219,219,278,385
756,136,-619,-446,688,-241,-424,-351,-219,68,58,97
273,195,-78,-234,175,58,-302,-492,-53,102,58,53
-4,234,239,-114,-122,236,-239,-570,-19,73,43,19
-156,170,326,-7,-241,248,-190,-580,-156,-68,-53,-63
-244,107,351,68,-297,229,-141,-561,-253,-156,-117,-117
-244,19,263,112,-253,141,-112,-492,-302,-214,-161,-156
-219,-43,175,131,-197,65,-82,-405,-322,-239,-185,-180
-190,-63,126,126,-158,31,-53,-283,-268,-244,-204,-195
-175,-63,112,119,-143,24,-24,-200,-214,-219,-190,-180
-165,-63,102,114,-134,19,-4,-161,-161,-161,-146,-146
-151,-63,87,107,-119,12,4,-117,-126,-126,-126,-126
-126,-63,63,95,-95,0,24,-63,-102,-122,-117,-117
-112,-73,39,92,-75,-17,48,-24,-78,-107,-102,-107
-107,-63,43,85,-75,-9,53,0,-58,-82,-87,-92
-97,-48,48,73,-73,0,53,14,-43,-63,-68,-78
-87,-58,29,73,-58,-14,53,29,-34,-53,-58,-73
-82,-63,19,73,-51,-21,58,39,-24,-53,-53,-63
-82,-63,19,73,-51,-21,68,39,-24,-53,-53,-63
-82,-63,19,73,-51,-21,73,39,-24,-48,-53,-63
-78,-48,29,63,-53,-9,73,43,-19,-43,-48,-58
-68,-39,29,53,-48,-4,73,53,-19,-39,-43,-48
-68,-53,14,61,-41,-19,73,53,-19,-39,-43,-48
-73,-68,4,70,-39,-31,73,53,-14,-34,-43,-48
-78,-68,9,73,-43,-29,68,53,-14,-34,-39,-53
-82,-68,14,75,-48,-26,68,58,-14,-34,-39,-58
-78,-63,14,70,-46,-24,73,58,-9,-34,-43,-58
-78,-63,14,70,-46,-24,73,58,-9,-34,-48,-58
-78,-58,19,68,-48,-19,73,58,-9,-34,-48,-68
-68,-48,19,58,-43,-14,73,63,-4,-29,-43,-73
-68,-48,19,58,-43,-14,73,63,-4,-29,-39,-63
-68,-48,19,58,-43,-14,68,63,-4,-29,-34,-53
-68,-58,9,63,-39,-24,63,63,-4,-29,-34,-53
-68,-68,0,68,-34,-34,58,63,-4,-29,-34,-48
-58,-58,0,58,-29,-29,58,68,-4,-29,-34,-48
-53,-48,4,51,-29,-21,58,68,0,-24,-29,-43
-53,-48,4,51,-29,-21,58,68,0,-29,-29,-43
-53,-48,4,51,-29,-21,53,68,-4,-29,-34,-43
-53,-53,0,53,-26,-26,58,68,-4,-29,-34,-43
-53,-48,4,51,-29,-21,58,68,-4,-29,-34,-43
-53,-48,4,51,-29,-21,58,73,-4,-29,-34,-43
-53,-48,4,51,-29,-21,58,73,-4,-29,-34,-43
-53,-43,9,48,-31,-17,58,73,-4,-29,-34,-39
-53,-34,19,43,-36,-7,53,73,-4,-29,-29,-34
-53,-34,19,43,-36,-7,48,73,-4,-24,-24,-34
-39,-29,9,34,-24,-9,43,73,-9,-19,-24,-29
-34,-14,19,24,-26,2,39,73,-9,-19,-19,-24
-19,-4,14,12,-17,4,39,78,-4,-14,-14,-19
-14,-14,0,14,-7,-7,34,78,-4,-14,-14,-14
-4,-19,-14,12,4,-17,39,78,-4,-4,-4,-9
-4,-9,-4,7,0,-7,29,78,-4,-4,-9,-4
0,-9,-9,4,4,-9,24,78,-4,-4,-14,0
14,0,-14,-7,14,-7,19,82,-4,4,-4,4
29,4,-24,-17,26,-9,9,82,-4,14,0,4
24,9,-14,-17,19,-2,4,82,-4,14,4,4
29,19,-9,-24,19,4,-4,73,0,14,0,9
48,43,-4,-46,26,19,-14,73,0,24,14,19
73,63,-9,-68,41,26,-19,73,4,34,24,34
92,68,-24,-80,58,21,-24,78,9,43,39,48
117,87,-29,-102,73,29,-39,78,9,43,48,63
126,92,-34,-109,80,29,-53,78,9,53,58,73
122,92,-29,-107,75,31,-68,73,4,58,68,78
136,102,-34,-119,85,34,-73,68,4,63,78,87
156,117,-39,-136,97,39,-87,63,4,68,92,97
165,131,-34,-148,100,48,-92,58,9,68,97,107
185,141,-43,-163,114,48,-97,53,19,78,102,112
195,151,-43,-173,119,53,-107,48,19,87,117,122
204,156,-48,-180,126,53,-112,43,14,87,117,131
214,170,-43,-192,129,63,-126,34,14,87,122,136
229,175,-53,-202,141,61,-131,34,14,92,126,141
234,170,-63,-202,148,53,-131,34,14,97,126,146
239,165,-73,-202,156,46,-136,29,19,102,126,151
244,180,-63,-212,153,58,-146,24,24,107,126,146
248,190,-58,-219,153,65,-151,24,24,107,131,136
253,200,-53,-226,153,73,-151,9,24,112,141,156
248,200,-48,-224,148,75,-151,4,24,117,146,170
234,195,-39,-214,136,78,-146,4,29,122,151,175
224,190,-34,-207,129,78,-141,0,29,122,151,175
219,190,-29,-204,124,80,-136,-4,24,117,146,175
200,170,-29,-185,114,70,-126,-4,24,107,151,165
185,161,-24,-173,104,68,-117,-4,24,107,151,161
170,156,-14,-163,92,70,-107,-4,29,97,136,151
161,156,-4,-158,82,75,-112,-4,29,92,126,141
146,146,0,-146,73,73,-102,-4,29,92,117,131
117,122,4,-119,56,63,-92,-4,29,87,117,126
107,117,9,-112,48,63,-82,-4,24,78,112,112
82,97,14,-90,34,56,-73,-4,14,68,97,102
68,82,14,-75,26,48,-63,-4,14,58,87,82
58,73,14,-65,21,43,-53,-4,19,53,78,78
39,63,24,-51,7,43,-43,0,19,48,73,68
29,48,19,-39,4,34,-34,0,19,39,58,58
24,39,14,-31,4,26,-14,0,14,29,43,48
14,24,9,-19,2,17,-14,0,14,24,39,43
0,14,14,-7,-7,14,-9,0,4,19,34,39
-4,14,19,-4,-12,17,-4,0,4,14,29,29
-4,14,19,-4,-12,17,4,0,4,9,24,19
-19,4,24,7,-21,14,9,4,0,9,24,14
-24,4,29,9,-26,17,14,4,-9,9,19,14
-34,0,34,17,-34,17,14,4,-9,0,4,4
-39,-9,29,24,-34,9,14,4,-9,0,-9,-4
-39,-9,29,24,-34,9,14,4,-9,-4,-9,-9
-39,4,43,17,-41,24,19,4,-4,-4,0,-4
-39,-14,24,26,-31,4,24,4,-4,0,-14,-14
-39,-19,19,29,-29,0,29,0,-4,0,-19,-14
-34,-14,19,24,-26,2,29,0,-9,0,-9,-9
-39,-14,24,26,-31,4,29,0,-19,0,0,-9
-34,-4,29,19,-31,12,29,0,-19,-4,0,-9
-24,0,24,12,-24,12,29,0,-19,-4,-9,-9
-34,-14,19,24,-26,2,24,0,-14,-9,-19,-9
-43,-24,19,34,-31,-2,24,4,-4,-14,-24,-14
-43,-14,29,29,-36,7,24,4,-4,-14,-24,-19
-43,-14,29,29,-36,7,24,4,-4,-14,-19,-19
-43,-4,39,24,-41,17,29,4,-4,-14,-19,-19
-43,-19,24,31,-34,2,34,4,-4,-14,-24,-19
-43,-19,24,31,-34,2,34,9,0,-14,-24,-19
-43,-14,29,29,-36,7,34,14,0,-9,-19,-19
-39,-9,29,24,-34,9,39,14,0,-9,-9,-19
-39,-4,34,21,-36,14,39,14,4,-9,-4,-19
-43,-4,39,24,-41,17,34,14,4,-9,-9,-19
-48,-9,39,29,-43,14,29,14,4,-9,-9,-19
-48,-14,34,31,-41,9,29,9,4,-9,-14,-19
-48,-19,29,34,-39,4,29,9,4,-9,-19,-19
-48,-19,29,34,-39,4,29,9,4,-9,-19,-19
-48,-14,34,31,-41,9,29,9,4,-4,-14,-14
-48,-14,34,31,-41,9,29,4,4,-4,-9,-14
-48,-14,34,31,-41,9,29,0,4,-4,-9,-14
-48,-14,34,31,-41,9,29,0,4,-4,-9,-9
-58,-14,43,36,-51,14,24,0,4,-4,-9,-9
-39,-4,34,21,-36,14,24,4,9,-4,-4,-9
-24,4,29,9,-26,17,24,9,14,-4,-4,-9
-34,9,43,12,-39,26,24,9,14,0,-4,-9
-43,9,53,17,-48,31,29,9,14,4,-4,-9
-34,9,43,12,-39,26,29,9,14,4,-4,-9
-43,9,53,17,-48,31,24,4,14,4,-4,-14
-48,4,53,21,-51,29,24,4,14,4,-4,-14
-48,4,53,21,-51,29,24,4,14,4,-9,-14
-43,4,48,19,-46,26,24,4,14,0,-14,-14
-43,4,48,19,-46,26,24,4,14,0,-19,-14
-34,14,48,9,-41,31,24,4,4,-4,-24,-19
-29,24,53,2,-41,39,24,4,4,-4,-24,-24
-29,14,43,7,-36,29,24,4,4,-9,-29,-24
-34,4,39,14,-36,21,24,4,4,-14,-34,-24
-34,0,34,17,-34,17,24,4,0,-19,-39,-24
-39,0,39,19,-39,19,24,4,-4,-19,-39,-29
-39,-4,34,21,-36,14,24,0,-4,-19,-29,-24
-34,-4,29,19,-31,12,24,0,0,-14,-14,-19
-34,-4,29,19,-31,12,29,0,0,-14,-14,-19
-39,-4,34,21,-36,14,29,4,0,-14,-14,-19
-39,-9,29,24,-34,9,29,4,-4,-14,-29,-24
-39,-9,29,24,-34,9,29,4,-4,-14,-39,-29
-48,-9,39,29,-43,14,29,4,-4,-14,-39,-29
-58,-9,48,34,-53,19,34,4,-4,-19,-34,-34
-48,-9,39,29,-43,14,34,9,-4,-19,-24,-34
-39,-9,29,24,-34,9,34,14,-4,-24,-24,-34
-39,-14,24,26,-31,4,34,9,-4,-29,-39,-39
-39,-14,24,26,-31,4,34,9,-4,-34,-48,-39
-43,-19,24,31,-34,2,34,14,-9,-39,-48,-39
-43,-19,24,31,-34,2,34,14,-9,-39,-48,-39
-43,-19,24,31,-34,2,34,14,-9,-34,-48,-43
-43,-24,19,34,-31,-2,34,14,-9,-29,-48,-43
-48,-24,24,36,-36,0,34,9,-9,-29,-48,-43
-48,-24,24,36,-36,0,29,4,-9,-29,-48,-48
-48,-19,29,34,-39,4,29,0,-14,-29,-48,-48
-48,-19,29,34,-39,4,29,0,-14,-29,-53,-48
-53,-24,29,39,-41,2,34,0,-14,-29,-53,-48
-53,-29,24,41,-39,-2,39,0,-14,-29,-53,-48
-53,-29,24,41,-39,-2,39,4,-14,-34,-53,-48
-53,-29,24,41,-39,-2,39,4,-14,-34,-53,-48
-53,-19,34,36,-43,7,39,4,-14,-29,-43,-43
-53,-9,43,31,-48,17,34,4,-14,-29,-34,-39
-53,-9,43,31,-48,17,34,0,-19,-34,-34,-39
-43,-9,34,26,-39,12,34,0,-19,-34,-34,-39
-43,-14,29,29,-36,7,39,0,-19,-39,-43,-43
-48,-14,34,31,-41,9,39,0,-19,-43,-53,-43
-48,-9,39,29,-43,14,34,0,-19,-48,-58,-48
-48,-9,39,29,-43,14,34,0,-19,-48,-58,-53
-48,-9,39,29,-43,14,34,0,-19,-43,-58,-53
-48,-14,34,31,-41,9,34,0,-19,-43,-58,-53
-48,-14,34,31,-41,9,24,0,-19,-39,-53,-53
-48,-19,29,34,-39,4,19,0,-19,-39,-48,-58
-48,-19,29,34,-39,4,24,0,-19,-39,-48,-58
-48,-19,29,34,-39,4,29,0,-19,-39,-48,-58
-48,-14,34,31,-41,9,29,0,-19,-39,-48,-58
-48,-9,39,29,-43,14,29,0,-19,-39,-48,-58
-53,-9,43,31,-48,17,29,0,-19,-43,-53,-63
-58,-9,48,34,-53,19,29,0,-19,-48,-58,-68
-58,-19,39,39,-48,9,29,0,-19,-48,-58,-68
-58,-29,29,43,-43,0,29,0,-19,-48,-58,-68
-53,-19,34,36,-43,7,29,0,-19,-48,-58,-63
-48,-9,39,29,-43,14,29,0,-19,-48,-58,-58
-48,-9,39,29,-43,14,29,0,-19,-48,-58,-58
-48,-9,39,29,-43,14,29,0,-19,-48,-58,-58
-48,-14,34,31,-41,9,29,0,-19,-48,-58,-58
-48,-19,29,34,-39,4,29,0,-19,-48,-58,-58
-48,-19,29,34,-39,4,29,0,-19,-48,-58,-58
-48,-19,29,34,-39,4,29,0,-19,-48,-58,-58
-48,-19,29,34,-39,4,29,0,-14,-48,-58,-58
-48,-19,29,34,-39,4,29,0,-9,-48,-58,-58
-48,-14,34,31,-41,9,29,0,-9,-43,-53,-58
-48,-9,39,29,-43,14,29,0,-9,-39,-48,-58
-48,-9,39,29,-43,14,29,0,-9,-39,-48,-58
-48,-9,39,29,-43,14,29,0,-9,-39,-48,-58
-48,-9,39,29,-43,14,29,0,-14,-43,-53,-58
-48,-9,39,29,-43,14,29,0,-19,-48,-58,-58
-48,-14,34,31,-41,9,29,0,-19,-48,-58,-58
-48,-19,29,34,-39,4,29,0,-19,-48,-58,-58
-48,-19,29,34,-39,4,29,0,-19,-48,-58,-58
-48,-19,29,34,-39,4,29,0,-19,-48,-58,-58
-48,-14,34,31,-41,9,29,0,-19,-43,-58,-58
-48,-9,39,29,-43,14,29,0,-19,-39,-58,-58
-43,-9,34,26,-39,12,29,0,-19,-39,-58,-58
-39,-9,29,24,-34,9,29,0,-19,-39,-58,-58
-39,-9,29,24,-34,9,29,0,-19,-39,-58,-58
-39,-9,29,24,-34,9,29,0,-19,-39,-58,-58
-43,-9,34,26,-39,12,29,0,-14,-39,-58,-58
-48,-9,39,29,-43,14,29,0,-9,-39,-58,-58
-48,-9,39,29,-43,14,29,0,-9,-43,-58,-58
-48,-9,39,29,-43,14,29,0,-9,-48,-58,-58
-48,-19,29,34,-39,4,24,0,-9,-48,-58,-58
-48,-29,19,39,-34,-4,19,0,-9,-48,-58,-58
-48,-19,29,34,-39,4,19,0,-9,-48,-48,-58
-48,-9,39,29,-43,14,19,0,-9,-48,-39,-58
-48,-9,39,29,-43,14,19,0,-9,-48,-48,-58
-48,-9,39,29,-43,14,19,0,-9,-48,-58,-58
-48,-9,39,29,-43,14,19,0,-9,-48,-58,-58
-48,-9,39,29,-43,14,19,0,-9,-48,-58,-58
-48,-9,39,29,-43,14,19,0,-9,-48,-58,-58
-48,-9,39,29,-43,14,19,0,-9,-48,-58,-58
-48,-14,34,31,-41,9,19,-4,-9,-48,-58,-58
-48,-19,29,34,-39,4,19,-9,-9,-48,-58,-58
-48,-19,29,34,-39,4,24,-9,-9,-43,-53,-58
-48,-19,29,34,-39,4,29,-9,-9,-39,-48,-58
-48,-19,29,34,-39,4,29,-9,-9,-39,-48,-58
-48,-19,29,34,-39,4,29,-9,-9,-39,-48,-58
-48,-19,29,34,-39,4,24,-9,-9,-39,-48,-58
-48,-19,29,34,-39,4,19,-9,-9,-39,-48,-58
-48,-14,34,31,-41,9,19,-4,-4,-39,-48,-53
-48,-9,39,29,-43,14,19,0,0,-39,-48,-48
-43,0,43,21,-43,21,24,4,9,-29,-43,-43
-39,9,48,14,-43,29,29,9,19,-19,-39,-39
-34,9,43,12,-39,26,29,14,19,-14,-29,-34
-29,9,39,9,-34,24,29,19,19,-9,-19,-29
-29,9,39,9,-34,24,24,19,24,-9,-19,-29
-29,9,39,9,-34,24,19,19,29,-9,-19,-29
-29,9,39,9,-34,24,19,24,34,-9,-14,-29
-29,9,39,9,-34,24,19,29,39,-9,-9,-29
-24,14,39,4,-31,26,14,29,43,-4,-9,-24
-19,19,39,0,-29,29,9,29,48,0,-9,-19
-14,29,43,-7,-29,36,0,19,53,0,-9,-14
-9,39,48,-14,-29,43,-9,9,58,0,-9,-9
-9,39,48,-14,-29,43,-14,0,58,4,-4,-9
-9,43,53,-17,-31,48,-24,-9,48,0,-4,-9
-14,48,63,-17,-39,56,-39,-24,43,-4,-9,-14
-4,63,68,-29,-36,65,-53,-48,34,-14,-14,-14
4,53,48,-29,-21,51,-58,-58,24,-14,-14,-19
14,53,39,-34,-12,46,-58,-58,24,-9,-9,-19
29,58,29,-43,0,43,-63,-48,24,-9,-9,-14
24,53,29,-39,-2,41,-63,-48,24,-9,-9,-14
24,43,19,-34,2,31,-58,-43,14,-19,-24,-24
24,39,14,-31,4,26,-53,-43,14,-19,-24,-34
14,24,9,-19,2,17,-39,-34,14,-19,-24,-34
9,14,4,-12,2,9,-24,-24,14,-14,-19,-34
9,9,0,-9,4,4,-14,-14,14,-14,-19,-29
0,0,0,0,0,0,-4,-9,14,-14,-19,-24
-19,-14,4,17,-12,-4,4,-9,4,-29,-34,-39
-39,-29,9,34,-24,-9,14,-9,-14,-48,-48,-53
-58,-39,19,48,-39,-9,24,-9,-24,-63,-68,-68
-63,-43,19,53,-41,-12,24,-9,-24,-73,-78,-78
-63,-53,9,58,-36,-21,34,-9,-24,-73,-82,-87
-63,-53,9,58,-36,-21,34,-9,-24,-82,-87,-92
-63,-53,9,58,-36,-21,29,-9,-24,-82,-87,-92
-68,-53,14,61,-41,-19,29,-9,-19,-73,-82,-92
-78,-63,14,70,-46,-24,29,-9,-19,-73,-78,-92
-82,-73,9,78,-46,-31,29,-9,-24,-73,-78,-92
-82,-73,9,78,-46,-31,34,-9,-24,-68,-78,-92
-82,-73,9,78,-46,-31,34,-4,-19,-68,-82,-92
-78,-68,9,73,-43,-29,39,-4,-19,-68,-82,-92
-73,-63,9,68,-41,-26,39,-4,-19,-63,-78,-92
-78,-68,9,73,-43,-29,39,-4,-19,-63,-78,-97
-78,-68,9,73,-43,-29,39,-4,-19,-63,-78,-97
-78,-68,9,73,-43,-29,43,-4,-19,-63,-78,-92
-78,-68,9,73,-43,-29,43,-4,-19,-68,-78,-92
-78,-68,9,73,-43,-29,43,-4,-14,-68,-78,-92
-82,-68,14,75,-48,-26,39,-4,-9,-68,-78,-92
-82,-68,14,75,-48,-26,39,-4,-9,-63,-78,-97
-78,-68,9,73,-43,-29,43,-4,-9,-63,-78,-97
-73,-68,4,70,-39,-31,43,0,-9,-68,-82,-97
-68,-68,0,68,-34,-34,43,0,-9,-73,-82,-97
-68,-68,0,68,-34,-34,53,0,-9,-73,-87,-97
-73,-82,-9,78,-31,-46,63,14,-9,-87,-97,-107
-78,-97,-19,87,-29,-58,73,39,-9,-92,-107,-131
-92,-112,-19,102,-36,-65,87,48,-9,-87,-122,-136
-97,-122,-24,109,-36,-73,92,73,0,-68,-102,-122
-92,-92,0,92,-46,-46,87,78,14,-24,-48,-63
-58,-68,-9,63,-24,-39,78,131,53,58,53,63
24,-14,-39,-4,31,-26,53,185,131,209,224,253
209,87,-122,-148,165,-17,-19,170,175,370,424,492
478,253,-224,-366,351,14,-165,48,190,551,668,800
741,414,-326,-578,534,43,-361,-107,180,717,907,1093
951,453,-497,-702,724,-21,-492,-204,131,785,1010,1239
1049,453,-595,-751,822,-70,-580,-302,48,732,936,1156
951,307,-644,-629,797,-168,-531,-322,-102,419,512,683
683,141,-541,-412,612,-200,-395,-292,-165,112,102,156
219,165,-53,-192,136,56,-287,-419,-53,87,58,39
-58,190,248,-65,-153,219,-200,-492,9,63,14,-19
-131,195,326,-31,-229,261,-170,-502,-58,-24,-43,-68
-224,117,341,53,-283,229,-131,-488,-180,-141,-131,-136
-253,39,292,107,-273,165,-92,-444,-263,-204,-185,-175
-234,-19,214,126,-224,97,-73,-370,-273,-234,-204,-195
-190,-53,136,122,-163,41,-53,-278,-253,-229,-204,-200
-161,-63,97,112,-129,17,-29,-190,-200,-214,-204,-200
-146,-53,92,100,-119,19,-4,-141,-146,-170,-170,-170
-131,-48,82,90,-107,17,14,-102,-102,-126,-131,-146
-112,-43,68,78,-90,12,24,-58,-78,-107,-117,-136
-92,-48,43,70,-68,-2,34,-19,-53,-102,-107,-126
-82,-63,19,73,-51,-21,48,4,-29,-87,-92,-117
-82,-63,19,73,-51,-21,53,19,-14,-68,-87,-107
-78,-58,19,68,-48,-19,53,24,-4,-53,-78,-97
-68,-58,9,63,-39,-24,53,34,4,-43,-68,-92
-63,-53,9,58,-36,-21,58,39,14,-43,-63,-82
-63,-58,4,61,-34,-26,63,39,14,-43,-63,-82
-63,-63,0,63,-31,-31,63,39,14,-39,-63,-82
-63,-58,4,61,-34,-26,63,43,19,-39,-63,-82
-58,-58,0,58,-29,-29,63,53,19,-39,-63,-78
-58,-63,-4,61,-26,-34,63,53,19,-39,-63,-78
-63,-68,-4,65,-29,-36,63,53,24,-34,-63,-78
-63,-68,-4,65,-29,-36,58,53,24,-34,-58,-73
-63,-68,-4,65,-29,-36,58,58,24,-34,-58,-68
-58,-63,-4,61,-26,-34,63,58,29,-34,-58,-68
-58,-63,-4,61,-26,-34,63,58,29,-34,-58,-68
-58,-63,-4,61,-26,-34,63,58,29,-34,-58,-68
-48,-58,-9,53,-19,-34,63,63,34,-29,-53,-63
-48,-63,-14,56,-17,-39,63,63,29,-29,-53,-68
-48,-68,-19,58,-14,-43,58,63,24,-29,-53,-73
-48,-68,-19,58,-14,-43,58,63,24,-34,-53,-73
-48,-68,-19,58,-14,-43,58,63,24,-39,-53,-68
-43,-63,-19,53,-12,-41,58,68,24,-39,-53,-68
-43,-58,-14,51,-14,-36,58,68,29,-34,-48,-63
-43,-58,-14,51,-14,-36,58,68,29,-34,-39,-63
-43,-58,-14,51,-14,-36,53,68,24,-29,-34,-63
-39,-58,-19,48,-9,-39,53,68,24,-29,-34,-63
-34,-48,-14,41,-9,-31,48,68,24,-29,-34,-63
-34,-48,-14,41,-9,-31,48,73,24,-24,-34,-63
-34,-48,-14,41,-9,-31,48,73,24,-19,-34,-63
-24,-43,-19,34,-2,-31,48,73,29,-19,-34,-58
-14,-34,-19,24,2,-26,43,73,34,-19,-29,-53
-14,-34,-19,24,2,-26,39,73,34,-14,-24,-53
0,-29,-29,14,14,-29,34,73,29,-9,-24,-48
-9,-24,-14,17,2,-19,29,73,24,-9,-24,-43
-9,-24,-14,17,2,-19,29,78,24,-4,-24,-39
-4,-24,-19,14,7,-21,19,78,24,-4,-24,-34
4,-19,-24,7,14,-21,19,78,24,4,-14,-29
14,0,-14,-7,14,-7,9,78,24,4,-14,-19
29,9,-19,-19,24,-4,4,78,24,4,-14,-9
43,19,-24,-31,34,-2,0,82,24,14,-4,0
58,24,-34,-41,46,-4,-9,82,24,24,0,4
58,24,-34,-41,46,-4,-14,82,24,24,14,9
68,29,-39,-48,53,-4,-24,73,29,24,19,19
87,48,-39,-68,63,4,-34,73,29,34,34,29
112,63,-48,-87,80,7,-39,73,34,43,43,43
122,68,-53,-95,87,7,-43,78,39,53,53,53
136,87,-48,-112,92,19,-58,78,39,53,58,63
161,97,-63,-129,112,17,-73,73,39,63,68,73
170,102,-68,-136,119,17,-87,63,34,68,78,78
185,112,-73,-148,129,19,-92,58,34,73,82,87
204,126,-78,-165,141,24,-107,53,34,78,92,97
209,141,-68,-175,139,36,-117,48,29,78,97,107
224,151,-73,-187,148,39,-126,43,29,87,102,112
234,165,-68,-200,151,48,-136,39,29,97,117,122
244,175,-68,-209,156,53,-141,34,24,97,117,131
253,190,-63,-222,158,63,-156,24,24,97,122,136
268,195,-73,-231,170,61,-161,24,24,102,126,141
273,195,-78,-234,175,58,-161,19,24,107,131,146
278,195,-82,-236,180,56,-165,9,29,112,136,151
273,200,-73,-236,173,63,-170,4,34,117,136,156
268,200,-68,-234,168,65,-170,4,34,117,141,156
268,209,-58,-239,163,75,-170,-4,39,117,146,161
258,209,-48,-234,153,80,-170,-4,43,117,146,161
244,204,-39,-224,141,82,-161,-4,48,122,151,165
234,200,-34,-217,134,82,-151,-9,48,122,151,165
219,195,-24,-207,122,85,-146,-14,43,117,141,161
190,170,-19,-180,104,75,-136,-14,43,107,141,146
175,156,-19,-165,97,68,-126,-14,39,107,136,141
161,146,-14,-153,87,65,-117,-14,39,97,117,131
146,141,-4,-143,75,68,-112,-9,39,92,107,122
126,126,0,-126,63,63,-92,-4,39,92,97,112
97,102,4,-100,46,53,-82,-4,43,87,97,107
87,97,9,-92,39,53,-73,-4,43,78,92,92
68,78,9,-73,29,43,-68,-4,34,68,78,82
58,63,4,-61,26,34,-63,-4,34,58,68,63
48,53,4,-51,21,29,-53,-4,34,53,58,58
29,43,14,-36,7,29,-43,0,29,48,53,48
19,29,9,-24,4,19,-34,0,29,39,43,39
14,19,4,-17,4,12,-14,0,24,29,34,29
4,4,0,-4,2,2,-14,0,24,24,24,24
-9,-4,4,7,-7,0,-9,0,14,19,14,19
-14,-4,9,9,-12,2,-9,0,14,14,9,14
-14,-4,9,9,-12,2,-4,0,14,9,4,9
-19,-14,4,17,-12,-4,0,4,14,9,4,9
-14,-14,0,14,-7,-7,4,4,9,9,0,14
-24,-14,9,19,-17,-2,4,4,9,0,-4,4
-29,-19,9,24,-19,-4,4,4,9,0,-9,-4
-29,-19,9,24,-19,-4,0,0,4,-4,-9,-9
-29,-4,24,17,-26,9,0,-4,4,-4,0,-4
-29,-19,9,24,-19,-4,4,0,4,0,-9,-14
-29,-19,9,24,-19,-4,9,0,4,0,-9,-14
-29,-19,9,24,-19,-4,9,0,9,0,-9,-14
-39,-24,14,31,-26,-4,9,0,9,0,-9,-19
-43,-24,19,34,-31,-2,9,0,9,-4,-9,-19
-43,-29,14,36,-29,-7,9,0,9,-4,-19,-19
-43,-34,9,39,-26,-12,9,0,9,-4,-19,-14
-43,-34,9,39,-26,-12,14,4,14,-4,-14,-14
-43,-24,19,34,-31,-2,14,4,14,-4,-14,-14
-43,-24,19,34,-31,-2,14,4,14,-4,-9,-9
-43,-14,29,29,-36,7,14,4,14,0,-9,-9
-43,-29,14,36,-29,-7,14,4,14,4,-14,-9
-43,-29,14,36,-29,-7,14,4,14,4,-14,-9
-43,-24,19,34,-31,-2,14,4,9,9,-9,-9
-39,-19,19,29,-29,0,19,4,9,4,-4,-9
-39,-14,24,26,-31,4,19,4,14,0,-4,-9
-43,-14,29,29,-36,7,14,4,14,0,-9,-9
-48,-19,29,34,-39,4,9,4,14,0,-9,-9
-48,-19,29,34,-39,4,9,0,14,0,-9,-9
-48,-19,29,34,-39,4,9,0,14,0,-9,-9
-39,-19,19,29,-29,0,9,0,24,0,-9,-9
-29,-14,14,21,-21,0,9,0,34,4,-4,-4
-29,-14,14,21,-21,0,9,0,24,4,0,-4
-29,-14,14,21,-21,0,9,0,14,4,0,-4
-34,-14,19,24,-26,2,9,0,14,4,0,0
-48,-14,34,31,-41,9,4,0,14,4,0,0
-43,-14,29,29,-36,7,4,0,14,4,0,0
-43,-14,29,29,-36,7,4,0,14,4,-4,0
-43,-14,29,29,-36,7,4,0,14,4,0,0
-43,-19,24,31,-34,2,9,0,14,4,4,0
-29,-19,9,24,-19,-4,9,0,14,4,4,0
-34,-19,14,26,-24,-2,4,-4,14,4,4,-4
-39,-24,14,31,-26,-4,4,-4,14,9,4,-4
-39,-24,14,31,-26,-4,4,-4,14,14,0,-4
-34,-24,9,29,-21,-7,4,-4,14,9,0,-4
-34,-24,9,29,-21,-7,4,-4,14,9,0,-4
-29,-24,4,26,-17,-9,4,-4,4,4,-4,-9
-29,-24,4,26,-17,-9,4,-4,4,4,-4,-14
-29,-24,4,26,-17,-9,9,-4,4,4,-4,-14
-34,-24,9,29,-21,-7,14,-4,4,4,-4,-14
-34,-29,4,31,-19,-12,14,-4,0,0,-9,-14
-39,-29,9,34,-24,-9,14,-4,-4,0,-9,-19
-39,-34,4,36,-21,-14,9,-9,-4,-4,-14,-19
-34,-34,0,34,-17,-17,4,-9,0,-4,-14,-19
-34,-34,0,34,-17,-17,9,-9,0,-9,-14,-19
-39,-34,4,36,-21,-14,9,-4,0,-14,-14,-19
-48,-43,4,46,-26,-19,9,-4,-4,-14,-19,-19
-58,-48,9,53,-34,-19,9,-4,-4,-14,-19,-19
-48,-48,0,48,-24,-24,9,-4,-4,-14,-19,-19
-39,-48,-9,43,-14,-29,14,-4,-4,-19,-14,-24
-39,-43,-4,41,-17,-24,14,-4,-4,-19,-14,-24
-39,-39,0,39,-19,-19,14,-4,-4,-24,-24,-24
-39,-39,0,39,-19,-19,14,-9,-4,-24,-29,-24
-39,-34,4,36,-21,-14,14,-9,-4,-24,-29,-19
-34,-39,-4,36,-14,-21,14,-4,-9,-29,-29,-19
-24,-39,-14,31,-4,-26,14,-4,-9,-29,-29,-19
-34,-39,-4,36,-14,-21,14,-4,-9,-29,-34,-29
-43,-43,0,43,-21,-21,14,-4,-9,-29,-39,-34
-48,-48,0,48,-24,-24,14,-4,-9,-29,-39,-34
-48,-53,-4,51,-21,-29,9,-4,-9,-29,-39,-39
-48,-48,0,48,-24,-24,9,-9,-14,-29,-34,-39
-48,-48,0,48,-24,-24,9,-9,-14,-29,-34,-39
-48,-48,0,48,-24,-24,14,-9,-14,-29,-34,-39
-43,-48,-4,46,-19,-26,19,-9,-14,-29,-34,-39
-43,-48,-4,46,-19,-26,19,-4,-14,-34,-34,-39
-43,-48,-4,46,-19,-26,19,-4,-14,-34,-34,-39
-48,-53,-4,51,-21,-29,19,-4,-14,-29,-34,-39
-53,-58,-4,56,-24,-31,14,-4,-14,-29,-34,-39
-53,-58,-4,56,-24,-31,14,-9,-19,-34,-34,-39
-43,-58,-14,51,-14,-36,14,-9,-19,-34,-34,-39
-43,-58,-14,51,-14,-36,24,-9,-19,-29,-34,-43
-48,-53,-4,51,-21,-29,29,-9,-19,-24,-34,-43
-48,-48,0,48,-24,-24,24,-9,-19,-29,-39,-39
-48,-48,0,48,-24,-24,24,-9,-19,-29,-39,-34
-53,-53,0,53,-26,-26,24,-9,-19,-24,-39,-34
-58,-63,-4,61,-26,-34,24,-9,-19,-24,-39,-34
-53,-53,0,53,-26,-26,19,-4,-14,-24,-39,-34
-48,-48,0,48,-24,-24,19,0,-9,-29,-39,-39
-48,-48,0,48,-24,-24,19,0,-9,-29,-39,-39
-48,-48,0,48,-24,-24,19,0,-9,-29,-39,-39
-48,-53,-4,51,-21,-29,19,-4,-9,-34,-39,-39
-48,-58,-9,53,-19,-34,19,-9,-9,-39,-39,-39
-48,-58,-9,53,-19,-34,19,-9,-9,-39,-39,-39
-48,-58,-9,53,-19,-34,19,-9,-9,-39,-39,-39
-48,-58,-9,53,-19,-34,24,-4,-9,-34,-39,-39
-48,-58,-9,53,-19,-34,29,0,-9,-29,-39,-39
-48,-58,-9,53,-19,-34,29,0,-9,-29,-43,-39
-48,-58,-9,53,-19,-34,29,0,-9,-29,-48,-39
-48,-58,-9,53,-19,-34,29,0,-9,-29,-48,-39
-48,-58,-9,53,-19,-34,29,0,-9,-29,-48,-39
-48,-58,-9,53,-19,-34,29,0,-9,-29,-43,-39
-48,-58,-9,53,-19,-34,29,0,-9,-29,-39,-39
-48,-58,-9,53,-19,-34,29,0,-9,-29,-39,-39
-48,-58,-9,53,-19,-34,29,0,-9,-29,-39,-39
-48,-58,-9,53,-19,-34,29,0,-9,-29,-39,-39
-48,-58,-9,53,-19,-34,29,0,-9,-29,-39,-39
-53,-63,-9,58,-21,-36,29,0,-9,-29,-39,-39
-58,-68,-9,63,-24,-39,29,0,-9,-29,-39,-39
-58,-68,-9,63,-24,-39,29,0,-9,-34,-39,-43
-58,-68,-9,63,-24,-39,29,0,-9,-39,-39,-48
-58,-78,-19,68,-19,-48,29,0,-9,-39,-39,-48
-58,-87,-29,73,-14,-58,29,0,-9,-39,-39,-48
-53,-73,-19,63,-17,-46,29,0,-9,-34,-39,-43
-48,-58,-9,53,-19,-34,29,0,-9,-29,-39,-39
-48,-58,-9,53,-19,-34,29,0,-9,-29,-39,-39
-48,-58,-9,53,-19,-34,29,0,-9,-29,-39,-39
-48,-63,-14,56,-17,-39,29,0,-9,-34,-39,-39
-48,-68,-19,58,-14,-43,29,0,-9,-39,-39,-39
-53,-73,-19,63,-17,-46,29,4,-9,-39,-39,-43
-58,-78,-19,68,-19,-48,29,9,-9,-39,-39,-48
-58,-78,-19,68,-19,-48,29,9,-9,-34,-39,-48
-58,-78,-19,68,-19,-48,29,9,-9,-29,-39,-48
-58,-73,-14,65,-21,-43,29,9,-9,-29,-39,-48
-58,-68,-9,63,-24,-39,29,9,-9,-29,-39,-48
-58,-68,-9,63,-24,-39,29,9,-9,-34,-39,-48
-58,-68,-9,63,-24,-39,29,9,-9,-39,-39,-48
-58,-73,-14,65,-21,-43,29,9,-9,-39,-39,-48
-58,-78,-19,68,-19,-48,29,9,-9,-39,-39,-48
-58,-78,-19,68,-19,-48,29,4,-9,-39,-39,-48
-58,-78,-19,68,-19,-48,29,0,-9,-39,-39,-48
-58,-73,-14,65,-21,-43,29,0,-14,-39,-39,-43
-58,-68,-9,63,-24,-39,29,0,-19,-39,-39,-39
-58,-68,-9,63,-24,-39,29,4,-19,-39,-39,-39
-58,-68,-9,63,-24,-39,29,9,-19,-39,-39,-39
-58,-73,-14,65,-21,-43,29,9,-19,-39,-39,-39
-58,-78,-19,68,-19,-48,29,9,-19,-39,-39,-39
-68,-78,-9,73,-29,-43,29,9,-19,-39,-39,-43
-78,-78,0,78,-39,-39,29,9,-19,-39,-39,-48
-68,-78,-9,73,-29,-43,29,9,-14,-34,-39,-48
-58,-78,-19,68,-19,-48,29,9,-9,-29,-39,-48
-48,-68,-19,58,-14,-43,29,9,-4,-29,-39,-48
-39,-58,-19,48,-9,-39,29,9,0,-29,-39,-48
-53,-68,-14,61,-19,-41,29,4,0,-29,-39,-48
-68,-78,-9,73,-29,-43,29,0,0,-29,-39,-48
-68,-78,-9,73,-29,-43,24,0,-4,-29,-39,-48
-68,-78,-9,73,-29,-43,19,0,-9,-29,-39,-48
-63,-73,-9,68,-26,-41,19,4,-9,-29,-34,-48
-58,-68,-9,63,-24,-39,19,9,-9,-29,-29,-48
-48,-63,-14,56,-17,-39,24,9,0,-24,-24,-39
-39,-58,-19,48,-9,-39,29,9,9,-19,-19,-29
-39,-58,-19,48,-9,-39,29,9,9,-19,-19,-29
-39,-58,-19,48,-9,-39,29,9,9,-19,-19,-29
-34,-48,-14,41,-9,-31,24,14,14,-9,-14,-24
-29,-39,-9,34,-9,-24,19,19,19,0,-9,-19
-24,-34,-9,29,-7,-21,19,29,29,4,-4,-19
-19,-29,-9,24,-4,-19,19,39,39,9,0,-19
-19,-29,-9,24,-4,-19,19,39,39,9,0,-19
-19,-29,-9,24,-4,-19,19,39,39,9,0,-19
-19,-29,-9,24,-4,-19,9,34,39,14,0,-14
-19,-29,-9,24,-4,-19,0,29,39,19,0,-9
-19,-29,-9,24,-4,-19,-9,19,39,19,4,-9
-19,-29,-9,24,-4,-19,-24,4,34,9,0,-9
-24,-29,-4,26,-9,-17,-39,-4,29,4,0,-14
-14,-24,-9,19,-2,-17,-53,-29,24,-4,-4,-14
-4,-24,-19,14,7,-21,-58,-43,14,-4,-4,-14
4,-14,-19,4,12,-17,-58,-48,14,0,0,-9
34,9,-24,-21,29,-7,-63,-43,14,4,4,4
43,24,-19,-34,31,2,-63,-48,14,9,9,14
43,14,-29,-29,36,-7,-63,-43,4,0,-4,4
43,9,-34,-26,39,-12,-63,-43,4,0,-4,-4
34,-9,-43,-12,39,-26,-48,-34,4,-14,-9,-9
29,-24,-53,-2,41,-39,-34,-24,4,-24,-9,-14
24,-29,-53,2,39,-41,-24,-14,4,-14,-9,-14
9,-39,-48,14,29,-43,-14,-9,4,-4,-9,-14
-9,-53,-43,31,17,-48,-4,-9,-4,-14,-19,-29
-29,-68,-39,48,4,-53,4,-9,-24,-29,-29,-43
-58,-82,-24,70,-17,-53,14,-9,-34,-43,-48,-58
-73,-92,-19,82,-26,-56,14,-9,-34,-53,-58,-68
-73,-107,-34,90,-19,-70,24,-9,-34,-53,-63,-73
-73,-112,-39,92,-17,-75,24,-9,-34,-63,-68,-73
-73,-112,-39,92,-17,-75,29,-9,-34,-63,-68,-73
-78,-112,-34,95,-21,-73,39,-9,-29,-53,-63,-73
-82,-112,-29,97,-26,-70,39,-9,-29,-53,-58,-73
-82,-112,-29,97,-26,-70,39,-9,-34,-53,-58,-73
-82,-112,-29,97,-26,-70,43,-9,-34,-58,-58,-73
-82,-112,-29,97,-26,-70,43,-4,-29,-68,-63,-73
-82,-112,-29,97,-26,-70,48,-4,-29,-68,-68,-73
-82,-112,-29,97,-26,-70,48,-4,-29,-63,-68,-73
-87,-117,-29,102,-29,-73,48,-4,-29,-63,-68,-78
-87,-117,-29,102,-29,-73,48,-4,-29,-63,-68,-78
-87,-122,-34,104,-26,-78,53,-4,-34,-63,-68,-78
-87,-126,-39,107,-24,-82,53,-4,-39,-68,-68,-82
-87,-126,-39,107,-24,-82,53,-4,-39,-68,-68,-82
-92,-126,-34,109,-29,-80,48,-4,-39,-68,-68,-82
-92,-122,-29,107,-31,-75,48,-4,-39,-63,-68,-82
-87,-117,-29,102,-29,-73,53,-4,-39,-63,-68,-78
-87,-112,-24,100,-31,-68,53,-4,-39,-58,-68,-73
-87,-107,-19,97,-34,-63,53,-9,-39,-53,-63,-68
-87,-107,-19,97,-34,-63,58,-9,-39,-53,-68,-68
-92,-122,-29,107,-31,-75,63,4,-39,-68,-78,-78
-97,-141,-43,119,-26,-92,73,19,-43,-87,-92,-107
-112,-161,-48,136,-31,-104,87,19,-48,-97,-112,-117
-131,-170,-39,151,-46,-104,102,43,-39,-102,-122,-151
-141,-141,0,141,-70,-70,107,48,-24,-82,-97,-141
-146,-136,9,141,-78,-63,122,112,-4,-53,-68,-82
-102,-102,0,102,-51,-51,122,175,53,43,29,39
4,-82,-87,39,46,-85,97,239,117,170,165,180
195,0,-195,-97,195,-97,0,195,151,317,346,390
546,244,-302,-395,424,-29,-234,9,161,541,649,766
844,366,-478,-605,661,-56,-405,-117,131,668,814,995
1137,444,-692,-790,915,-124,-595,-253,58,756,966,1185
1234,375,-858,-805,1046,-241,-649,-312,-82,585,766,985
1068,146,-922,-607,995,-387,-512,-258,-229,185,214,331
707,107,-600,-407,653,-246,-405,-361,-200,68,29,87
229,146,-82,-187,156,31,-287,-502,-63,78,24,29
-43,165,209,-61,-126,187,-229,-580,-58,24,4,-19
-175,107,283,34,-229,195,-190,-575,-195,-102,-92,-97
-244,48,292,97,-268,170,-151,-541,-292,-175,-156,-146
-244,-29,214,136,-229,92,-112,-458,-312,-224,-185,-175
-219,-82,136,151,-178,26,-73,-356,-302,-239,-195,-190
-190,-97,92,143,-141,-2,-48,-244,-248,-234,-200,-200
-175,-92,82,134,-129,-4,-24,-170,-195,-200,-170,-180
-161,-92,68,126,-114,-12,4,-131,-146,-146,-136,-146
-141,-92,48,117,-95,-21,24,-87,-117,-117,-126,-126
-122,-97,24,109,-73,-36,39,-39,-92,-112,-117,-117
-112,-112,0,112,-56,-56,58,-4,-68,-97,-102,-107
-112,-112,0,112,-56,-56,63,9,-48,-73,-92,-92
-107,-107,0,107,-53,-53,63,14,-34,-53,-78,-78
-97,-107,-9,102,-43,-58,63,29,-24,-43,-68,-73
-92,-102,-9,97,-41,-56,68,39,-14,-43,-63,-63
-92,-102,-9,97,-41,-56,73,39,-14,-43,-63,-63
-92,-102,-9,97,-41,-56,73,39,-14,-39,-63,-63
-92,-97,-4,95,-43,-51,73,43,-9,-43,-63,-68
-87,-97,-9,92,-39,-53,73,53,-9,-48,-63,-68
-87,-102,-14,95,-36,-58,73,53,-9,-48,-63,-68
-92,-107,-14,100,-39,-61,73,53,-4,-43,-63,-68
-92,-107,-14,100,-39,-61,68,53,-4,-43,-58,-68
-92,-107,-14,100,-39,-61,68,58,-4,-43,-58,-68
-87,-102,-14,95,-36,-58,73,63,0,-43,-58,-63
-87,-102,-14,95,-36,-58,73,68,0,-43,-58,-58
-87,-102,-14,95,-36,-58,73,68,0,-39,-53,-58
-78,-97,-19,87,-29,-58,73,73,4,-29,-43,-53
-78,-97,-19,87,-29,-58,73,73,9,-29,-43,-53
-78,-97,-19,87,-29,-58,68,73,14,-29,-43,-53
-78,-102,-24,90,-26,-63,68,73,14,-29,-43,-53
-78,-107,-29,92,-24,-68,68,73,14,-29,-43,-48
-73,-107,-34,90,-19,-70,68,78,14,-34,-48,-53
-73,-107,-34,90,-19,-70,68,78,19,-34,-48,-53
-73,-107,-34,90,-19,-70,68,78,14,-34,-43,-53
-73,-107,-34,90,-19,-70,63,78,4,-29,-43,-53
-68,-97,-29,82,-19,-63,63,78,4,-24,-39,-53
-63,-78,-14,70,-24,-46,58,78,4,-19,-34,-53
-63,-73,-9,68,-26,-41,58,82,4,-19,-34,-53
-63,-68,-4,65,-29,-36,58,82,4,-19,-34,-53
-58,-63,-4,61,-26,-34,58,82,4,-19,-34,-48
-53,-53,0,53,-26,-26,53,82,4,-19,-29,-43
-53,-63,-9,58,-21,-36,48,82,4,-14,-24,-43
-39,-68,-29,53,-4,-48,43,82,0,-9,-24,-39
-48,-63,-14,56,-17,-39,39,82,0,-14,-19,-34
-48,-63,-14,56,-17,-39,39,87,4,-14,-14,-29
-34,-58,-24,46,-4,-41,34,87,4,-14,-14,-24
-14,-48,-34,31,9,-41,39,87,4,-4,-4,-19
-14,-34,-19,24,2,-26,29,87,9,0,-4,-14
-9,-29,-19,19,4,-24,24,87,14,4,-4,-9
0,-19,-19,9,9,-19,19,92,14,14,9,0
9,-14,-24,2,17,-19,9,92,14,24,19,4
14,-14,-29,0,21,-21,4,97,9,24,29,14
29,-9,-39,-9,34,-24,-4,92,9,24,29,29
48,9,-39,-29,43,-14,-9,92,9,34,39,39
73,24,-48,-48,61,-12,-9,92,14,43,43,53
82,29,-53,-56,68,-12,-14,97,19,53,48,58
97,48,-48,-73,73,0,-29,97,19,53,48,63
122,58,-63,-90,92,-2,-43,92,24,63,58,68
131,63,-68,-97,100,-2,-58,82,24,68,68,68
146,73,-73,-109,109,0,-63,78,24,73,73,78
165,87,-78,-126,122,4,-78,73,24,78,82,87
170,97,-73,-134,122,12,-87,68,24,78,87,97
185,102,-82,-143,134,9,-97,63,29,87,92,102
195,112,-82,-153,139,14,-107,58,29,97,107,117
204,117,-87,-161,146,14,-112,53,24,97,107,131
209,136,-73,-173,141,31,-131,43,24,97,112,136
219,146,-73,-183,146,36,-141,43,24,102,117,141
234,156,-78,-195,156,39,-141,39,24,107,126,156
248,165,-82,-207,165,41,-146,29,29,112,136,170
248,170,-78,-209,163,46,-151,24,34,117,136,175
248,170,-78,-209,163,46,-151,24,34,117,141,175
248,180,-68,-214,158,56,-156,14,34,117,141,170
239,180,-58,-209,148,61,-161,14,34,117,136,161
234,180,-53,-207,143,63,-156,14,39,122,141,165
234,180,-53,-207,143,63,-151,9,39,122,141,165
224,175,-48,-200,136,63,-146,0,34,122,136,165
200,151,-48,-175,124,51,-136,-4,34,117,141,156
185,141,-43,-163,114,48,-126,-4,34,117,151,151
170,136,-34,-153,102,51,-117,-4,39,107,146,141
156,131,-24,-143,90,53,-112,-4,39,102,126,131
136,117,-19,-126,78,48,-92,-4,39,102,107,122
107,92,-14,-100,61,39,-82,-4,39,97,102,117
97,87,-9,-92,53,39,-73,-4,34,87,92,102
78,73,-4,-75,41,34,-63,-4,24,78,82,92
68,63,-4,-65,36,29,-53,-4,24,68,78,73
58,53,-4,-56,31,24,-43,-4,24,63,68,68
39,43,4,-41,17,24,-34,0,19,58,63,58
24,29,4,-26,9,17,-29,0,19,48,53,48
14,19,4,-17,4,12,-14,0,14,39,43,39
4,0,-4,-2,4,-2,-9,0,14,34,39,34
-9,-14,-4,12,-2,-9,0,0,4,29,34,29
-14,-14,0,14,-7,-7,0,0,4,24,29,24
-14,-14,0,14,-7,-7,4,0,4,19,24,19
-24,-24,0,24,-12,-12,9,4,4,19,24,14
-24,-24,0,24,-12,-12,14,4,0,19,19,14
-39,-29,9,34,-24,-9,14,4,0,4,4,0
-48,-39,9,43,-29,-14,14,4,0,0,-9,-14
-48,-39,9,43,-29,-14,14,4,-4,-4,-9,-14
-48,-24,24,36,-36,0,19,4,-4,-4,0,-4
-48,-39,9,43,-29,-14,24,9,-4,0,-9,-14
-48,-39,9,43,-29,-14,29,9,-4,0,-9,-14
-43,-39,4,41,-24,-17,29,9,0,0,-4,-14
-48,-43,4,46,-26,-19,29,9,0,0,0,-19
-53,-43,9,48,-31,-17,29,9,0,-9,0,-19
-53,-48,4,51,-29,-21,29,9,0,-14,-9,-19
-58,-53,4,56,-31,-24,29,9,-4,-14,-9,-19
-63,-53,9,58,-36,-21,34,14,-4,-14,-4,-24
-63,-53,9,58,-36,-21,34,14,-4,-14,-4,-24
-63,-63,0,63,-31,-31,34,14,-4,-14,0,-19
-63,-43,19,53,-41,-12,34,14,-4,-14,0,-19
-63,-48,14,56,-39,-17,34,14,-4,-14,-4,-19
-63,-43,19,53,-41,-12,39,14,0,-9,-4,-19
-63,-34,29,48,-46,-2,43,14,0,0,0,-19
-53,-29,24,41,-39,-2,48,14,4,0,4,-19
-48,-24,24,36,-36,0,48,14,14,0,4,-19
-53,-24,29,39,-41,2,43,14,14,0,0,-19
-58,-29,29,43,-43,0,39,14,14,0,0,-19
-58,-29,29,43,-43,0,39,9,14,0,0,-19
-58,-29,29,43,-43,0,39,9,14,0,0,-19
-58,-34,24,46,-41,-4,34,9,14,0,0,-19
-58,-34,24,46,-41,-4,29,9,14,4,4,-14
-58,-34,24,46,-41,-4,29,9,14,4,9,-14
-58,-34,24,46,-41,-4,29,9,14,4,9,-14
-58,-34,24,46,-41,-4,29,4,14,4,9,-4
-68,-34,34,51,-51,0,24,0,14,4,9,0
-58,-34,24,46,-41,-4,24,0,14,-4,9,0
-53,-34,19,43,-36,-7,24,0,14,-14,4,0
-48,-24,24,36,-36,0,24,0,14,-4,14,0
-43,-19,24,31,-34,2,29,0,14,4,24,0
-34,-19,14,26,-24,-2,29,0,14,4,14,-4
-43,-19,24,31,-34,2,24,-4,14,4,4,-14
-53,-24,29,39,-41,2,24,-4,14,0,4,-14
-58,-24,34,41,-46,4,24,-4,14,-4,0,-14
-53,-29,24,41,-39,-2,24,-4,14,-9,0,-14
-53,-34,19,43,-36,-7,24,-4,14,-9,0,-14
-48,-34,14,41,-31,-9,24,0,4,-14,-4,-14
-48,-34,14,41,-31,-9,24,4,4,-14,-4,-14
-43,-19,24,31,-34,2,24,4,4,-14,-4,-14
-43,-4,39,24,-41,17,24,4,4,-14,-4,-14
-43,-19,24,31,-34,2,24,4,0,-19,0,-14
-48,-29,19,39,-34,-4,24,4,-4,-19,9,-19
-48,-34,14,41,-31,-9,24,-4,-4,-24,-9,-24
-43,-34,9,39,-26,-12,24,-9,0,-24,-24,-29
-43,-34,9,39,-26,-12,29,-9,0,-24,-24,-29
-48,-34,14,41,-31,-9,29,-4,0,-24,-24,-29
-48,-34,14,41,-31,-9,29,-4,-4,-19,-29,-24
-48,-29,19,39,-34,-4,29,-4,-4,-14,-29,-19
-48,-29,19,39,-34,-4,29,-4,-4,-14,-29,-19
-48,-29,19,39,-34,-4,34,-4,-4,-19,-24,-24
-53,-34,19,43,-36,-7,34,-4,-4,-19,-24,-24
-58,-39,19,48,-39,-9,34,-4,-4,-24,-34,-24
-58,-43,14,51,-36,-14,34,-9,-4,-24,-39,-34
-58,-43,14,51,-36,-14,34,-9,-4,-24,-39,-39
-58,-48,9,53,-34,-19,34,-4,-14,-29,-39,-39
-53,-48,4,51,-29,-21,34,-4,-19,-29,-39,-39
-53,-48,4,51,-29,-21,34,-4,-19,-29,-39,-43
-53,-53,0,53,-26,-26,34,-4,-19,-29,-39,-43
-58,-53,4,56,-31,-24,34,-4,-14,-29,-39,-39
-58,-53,4,56,-31,-24,29,-4,-9,-29,-39,-39
-58,-43,14,51,-36,-14,29,-4,-14,-29,-34,-39
-58,-39,19,48,-39,-9,29,0,-14,-29,-34,-39
-53,-34,19,43,-36,-7,34,0,-9,-29,-34,-39
-43,-29,14,36,-29,-7,39,0,-4,-29,-34,-39
-43,-29,14,36,-29,-7,39,4,-4,-34,-39,-43
-43,-29,14,36,-29,-7,39,4,-4,-34,-43,-48
-53,-29,24,41,-39,-2,39,4,-9,-34,-43,-48
-63,-29,34,46,-48,2,34,4,-14,-39,-43,-48
-63,-29,34,46,-48,2,34,0,-24,-43,-43,-48
-53,-29,24,41,-39,-2,34,0,-29,-43,-43,-48
-53,-39,14,46,-34,-12,39,0,-29,-39,-39,-48
-58,-43,14,51,-36,-14,39,0,-29,-34,-34,-43
-58,-39,19,48,-39,-9,34,-4,-24,-39,-39,-43
-58,-39,19,48,-39,-9,34,-9,-19,-39,-39,-43
-58,-39,19,48,-39,-9,34,-9,-19,-34,-43,-43
-58,-43,14,51,-36,-14,34,-9,-19,-34,-48,-43
-48,-34,14,41,-31,-9,43,0,-14,-34,-48,-39
-39,-29,9,34,-24,-9,58,9,-9,-39,-48,-39
-43,-29,14,36,-29,-7,48,4,-9,-39,-48,-39
-48,-29,19,39,-34,-4,39,0,-9,-39,-48,-39
-48,-34,14,41,-31,-9,39,0,-14,-39,-48,-43
-48,-39,9,43,-29,-14,39,0,-19,-39,-48,-48
-48,-39,9,43,-29,-14,39,0,-19,-39,-48,-48
-48,-39,9,43,-29,-14,39,0,-19,-39,-48,-48
-48,-39,9,43,-29,-14,39,0,-19,-39,-48,-48
-48,-39,9,43,-29,-14,39,0,-19,-39,-48,-48
-53,-39,14,46,-34,-12,39,0,-19,-39,-48,-48
-58,-39,19,48,-39,-9,39,0,-19,-39,-48,-48
-58,-39,19,48,-39,-9,39,0,-19,-39,-48,-48
-58,-39,19,48,-39,-9,39,0,-19,-39,-48,-48
-58,-48,9,53,-34,-19,39,4,-19,-39,-58,-48
-58,-58,0,58,-29,-29,39,9,-19,-39,-68,-48
-53,-43,9,48,-31,-17,34,9,-19,-34,-53,-48
-48,-29,19,39,-34,-4,29,9,-19,-29,-39,-48
-48,-29,19,39,-34,-4,29,9,-19,-29,-39,-48
-48,-29,19,39,-34,-4,29,9,-19,-29,-39,-48
-48,-29,19,39,-34,-4,29,9,-19,-34,-48,-53
-48,-29,19,39,-34,-4,29,9,-19,-39,-58,-58
-48,-29,19,39,-34,-4,29,9,-14,-39,-58,-58
-48,-29,19,39,-34,-4,29,9,-9,-39,-58,-58
-48,-34,14,41,-31,-9,29,9,-9,-39,-58,-58
-48,-39,9,43,-29,-14,29,9,-9,-39,-58,-58
-48,-39,9,43,-29,-14,29,4,-14,-39,-53,-58
-48,-39,9,43,-29,-14,29,0,-19,-39,-48,-58
-48,-34,14,41,-31,-9,24,0,-19,-39,-48,-58
-48,-29,19,39,-34,-4,19,0,-19,-39,-48,-58
-48,-29,19,39,-34,-4,19,0,-19,-39,-48,-53
-48,-29,19,39,-34,-4,19,0,-19,-39,-48,-48
-48,-29,19,39,-34,-4,24,4,-14,-39,-48,-48
-48,-29,19,39,-34,-4,29,9,-9,-39,-48,-48
-48,-29,19,39,-34,-4,29,9,-9,-39,-53,-53
-48,-29,19,39,-34,-4,29,9,-9,-39,-58,-58
-48,-29,19,39,-34,-4,29,9,-9,-39,-58,-58
-48,-29,19,39,-34,-4,29,9,-9,-39,-58,-58
-48,-29,19,39,-34,-4,29,9,-9,-39,-58,-53
-48,-29,19,39,-34,-4,29,9,-9,-39,-58,-48
-48,-29,19,39,-34,-4,29,9,-9,-39,-58,-48
-48,-29,19,39,-34,-4,29,9,-9,-39,-58,-48
-48,-29,19,39,-34,-4,29,9,-9,-39,-58,-48
-48,-29,19,39,-34,-4,29,9,-9,-39,-58,-48
-53,-29,24,41,-39,-2,29,4,-9,-39,-58,-48
-58,-29,29,43,-43,0,29,0,-9,-39,-58,-48
-58,-29,29,43,-43,0,29,0,-9,-39,-58,-48
-58,-29,29,43,-43,0,29,0,-9,-39,-58,-48
-53,-29,24,41,-39,-2,29,0,-9,-39,-58,-48
-48,-29,19,39,-34,-4,29,0,-9,-39,-58,-48
-48,-24,24,36,-36,0,29,0,-9,-39,-58,-53
-48,-19,29,34,-39,4,29,0,-9,-39,-58,-58
-48,-19,29,34,-39,4,29,0,-9,-39,-58,-58
-48,-19,29,34,-39,4,29,0,-9,-39,-58,-58
-48,-19,29,34,-39,4,29,0,-9,-39,-58,-58
-48,-19,29,34,-39,4,29,0,-9,-39,-58,-58
-48,-19,29,34,-39,4,29,0,-9,-39,-53,-53
-48,-19,29,34,-39,4,29,0,-9,-39,-48,-48
-48,-19,29,34,-39,4,29,4,0,-34,-48,-48
-48,-19,29,34,-39,4,29,9,9,-29,-48,-48
-39,-14,24,26,-31,4,29,14,9,-24,-43,-43
-29,-9,19,19,-24,4,29,19,9,-19,-39,-39
-29,-4,24,17,-26,9,29,24,14,-14,-39,-39
-29,0,29,14,-29,14,29,29,19,-9,-39,-39
-24,4,29,9,-26,17,29,29,24,-4,-34,-39
-19,9,29,4,-24,19,29,29,29,0,-29,-39
-19,9,29,4,-24,19,29,29,34,0,-24,-34
-19,9,29,4,-24,19,29,29,39,0,-19,-29
-19,9,29,4,-24,19,24,29,39,0,-19,-24
-19,9,29,4,-24,19,19,29,39,0,-19,-19
-4,19,24,-7,-14,21,14,29,43,14,-9,-9
9,29,19,-19,-4,24,9,29,48,29,0,0
9,39,29,-24,-9,34,0,24,48,29,0,0
0,43,43,-21,-21,43,-9,9,48,29,0,0
-4,48,53,-21,-29,51,-24,0,48,29,0,-4
-14,48,63,-17,-39,56,-39,-14,34,14,-9,-14
-4,53,58,-24,-31,56,-53,-39,29,4,-14,-14
4,53,48,-29,-21,51,-58,-48,24,4,-14,-14
14,73,58,-43,-21,65,-58,-48,24,9,-9,-9
34,92,58,-63,-12,75,-63,-39,24,9,-9,-4
34,78,43,-56,-4,61,-63,-39,24,4,-9,-4
34,53,19,-43,7,36,-58,-34,14,-9,-24,-14
34,48,14,-41,9,31,-48,-34,14,-9,-24,-24
24,34,9,-29,7,21,-29,-24,14,-14,-29,-24
19,29,9,-24,4,19,-14,-14,14,-14,-29,-24
14,29,14,-21,0,21,-4,-4,14,-14,-29,-24
0,19,19,-9,-9,19,4,0,9,-14,-29,-24
-19,4,24,7,-21,14,14,0,-4,-24,-39,-39
-39,-14,24,26,-31,4,19,-4,-24,-39,-48,-53
-58,-34,24,46,-41,-4,24,-9,-34,-53,-68,-68
-63,-43,19,53,-41,-12,24,-9,-34,-63,-78,-78
-63,-53,9,58,-36,-21,34,-9,-34,-63,-82,-82
-63,-53,9,58,-36,-21,34,-9,-34,-73,-87,-82
-63,-53,9,58,-36,-21,34,-9,-34,-73,-87,-82
-68,-53,14,61,-41,-19,39,-9,-29,-63,-82,-82
-73,-53,19,63,-46,-17,39,-9,-29,-63,-78,-82
-68,-48,19,58,-43,-14,39,-9,-34,-63,-73,-82
-63,-43,19,53,-41,-12,43,-9,-34,-63,-68,-82
-63,-43,19,53,-41,-12,39,-4,-29,-68,-73,-82
-63,-43,19,53,-41,-12,39,-4,-29,-68,-73,-82
-63,-43,19,53,-41,-12,39,-4,-29,-63,-73,-87
-68,-48,19,58,-43,-14,39,-4,-29,-63,-78,-97
-73,-48,24,61,-48,-12,39,-4,-29,-63,-78,-97
-78,-48,29,63,-53,-9,43,-4,-29,-63,-78,-92
-78,-48,29,63,-53,-9,43,-4,-29,-68,-78,-87
-78,-48,29,63,-53,-9,43,-4,-29,-68,-78,-82
-82,-48,34,65,-58,-7,39,0,-24,-63,-78,-78
-82,-48,34,65,-58,-7,39,4,-19,-53,-78,-78
-78,-48,29,63,-53,-9,43,4,-19,-53,-73,-78
-78,-48,29,63,-53,-9,43,9,-19,-53,-73,-78
-73,-48,24,61,-48,-12,43,9,-19,-53,-73,-78
-68,-48,19,58,-43,-14,48,9,-19,-53,-78,-78
-73,-73,0,73,-36,-36,53,24,-19,-68,-87,-87
-78,-97,-19,87,-29,-58,63,43,-19,-78,-97,-112
-87,-97,-9,92,-39,-53,78,48,-19,-68,-97,-107
-92,-92,0,92,-46,-46,87,73,-9,-48,-73,-97
-78,-63,14,70,-46,-24,82,78,14,9,-4,-14
-29,-39,-9,34,-9,-24,78,136,63,107,107,131
78,34,-43,-56,61,-4,43,175,141,263,287,331
263,126,-136,-195,200,-4,-48,156,185,424,483,566
488,263,-224,-375,356,19,-195,48,195,590,697,854
761,448,-312,-605,536,68,-405,-122,180,771,951,1180
932,483,-448,-707,690,17,-512,-234,131,795,995,1249
1010,468,-541,-739,775,-36,-575,-331,48,707,902,1132
883,336,-546,-610,714,-104,-512,-346,-78,429,541,722
561,170,-390,-366,475,-109,-346,-317,-131,131,122,180
195,195,0,-195,97,97,-263,-424,-48,107,58,48
-73,214,287,-70,-180,251,-195,-488,14,82,24,-9
-185,200,385,-7,-285,292,-161,-507,-48,-4,-24,-58
-258,107,366,75,-312,236,-122,-488,-180,-122,-112,-126
-263,39,302,112,-283,170,-92,-444,-263,-185,-165,-165
-214,-9,204,112,-209,97,-73,-361,-273,-219,-190,-185
-170,-34,136,102,-153,51,-43,-268,-253,-219,-190,-180
-141,-34,107,87,-124,36,-19,-185,-200,-204,-185,-170
-126,-24,102,75,-114,39,0,-136,-146,-161,-151,-141
-117,-24,92,70,-104,34,14,-102,-102,-117,-117,-117
-102,-24,78,63,-90,26,24,-63,-78,-97,-112,-107
-82,-29,53,56,-68,12,39,-29,-53,-92,-107,-97
-78,-48,29,63,-53,-9,53,-4,-29,-78,-92,-87
-82,-53,29,68,-56,-12,53,9,-14,-58,-82,-78
-78,-48,29,63,-53,-9,53,14,-4,-43,-68,-73
-68,-48,19,58,-43,-14,53,29,4,-34,-58,-73
-63,-48,14,56,-39,-17,58,39,14,-34,-53,-63
-63,-53,9,58,-36,-21,63,39,14,-34,-53,-63
-63,-53,9,58,-36,-21,63,39,14,-29,-53,-63
-63,-48,14,56,-39,-17,63,43,19,-29,-53,-63
-58,-43,14,51,-36,-14,63,53,19,-29,-53,-58
-58,-43,14,51,-36,-14,63,53,19,-29,-53,-58
-63,-48,14,56,-39,-17,63,53,24,-29,-58,-58
-63,-48,14,56,-39,-17,58,53,24,-34,-58,-58
-63,-53,9,58,-36,-21,58,58,24,-34,-58,-58
-58,-53,4,56,-31,-24,63,58,29,-34,-58,-58
-58,-53,4,56,-31,-24,63,58,29,-29,-58,-58
-58,-53,4,56,-31,-24,63,58,29,-24,-58,-58
-48,-48,0,48,-24,-24,63,63,34,-19,-53,-53
-48,-48,0,48,-24,-24,63,63,34,-19,-53,-53
-48,-48,0,48,-24,-24,58,63,34,-19,-48,-53
-48,-48,0,48,-24,-24,58,63,34,-19,-43,-53
-43,-43,0,43,-21,-21,58,58,34,-24,-43,-48
-34,-39,-4,36,-14,-21,58,58,34,-29,-43,-48
-34,-39,-4,36,-14,-21,58,58,39,-24,-39,-43
-34,-39,-4,36,-14,-21,58,58,39,-24,-34,-43
-39,-39,0,39,-19,-19,48,58,34,-19,-34,-43
-39,-39,0,39,-19,-19,43,58,34,-19,-34,-43
-34,-29,4,31,-19,-12,39,58,34,-9,-34,-43
-34,-29,4,31,-19,-12,39,63,34,0,-34,-43
-34,-34,0,34,-17,-17,39,63,29,-9,-34,-43
-29,-34,-4,31,-12,-19,39,63,24,-19,-34,-39
-24,-24,0,24,-12,-12,34,63,24,-19,-29,-34
-24,-24,0,24,-12,-12,29,63,24,-14,-24,-34
-9,-19,-9,14,0,-14,24,63,19,-9,-24,-29
-9,-14,-4,12,-2,-9,19,63,19,-9,-19,-24
4,-14,-19,4,12,-17,19,68,24,-4,-14,-19
14,-14,-29,0,21,-21,9,68,24,-4,-14,-14
24,-9,-34,-7,29,-21,9,68,24,4,-4,-14
24,4,-19,-14,21,-7,0,68,24,4,-4,-14
29,9,-19,-19,24,-4,-4,68,24,4,-4,-9
43,19,-24,-31,34,-2,-9,73,24,14,4,0
68,24,-43,-46,56,-9,-19,73,24,24,9,4
82,29,-53,-56,68,-12,-24,73,24,24,19,9
87,39,-48,-63,68,-4,-34,63,29,24,19,19
97,58,-39,-78,68,9,-43,63,29,34,34,29
122,73,-48,-97,85,12,-48,63,34,43,43,43
131,78,-53,-104,92,12,-53,68,39,53,53,53
146,92,-53,-119,100,19,-68,68,39,53,58,63
165,97,-68,-131,117,14,-82,63,39,63,68,73
170,102,-68,-136,119,17,-97,48,34,68,73,78
185,112,-73,-148,129,19,-102,39,34,73,73,87
200,126,-73,-163,136,26,-117,34,29,78,82,97
204,141,-63,-173,134,39,-126,29,24,78,87,107
224,151,-73,-187,148,39,-136,24,29,87,97,112
234,161,-73,-197,153,43,-146,19,29,97,117,122
244,165,-78,-204,161,43,-146,19,29,97,117,131
248,180,-68,-214,158,56,-156,14,34,97,122,136
258,185,-73,-222,165,56,-161,14,34,102,126,141
263,190,-73,-226,168,58,-161,9,34,107,131,146
268,195,-73,-231,170,61,-165,0,39,112,136,151
268,200,-68,-234,168,65,-170,-4,43,117,136,156
263,200,-63,-231,163,68,-170,-4,43,117,141,156
258,209,-48,-234,153,80,-170,-14,43,117,146,161
248,204,-43,-226,146,80,-170,-14,43,117,146,161
234,195,-39,-214,136,78,-165,-14,48,122,151,165
224,190,-34,-207,129,78,-161,-19,48,122,146,165
214,185,-29,-200,122,78,-156,-24,43,117,131,161
190,161,-29,-175,109,65,-146,-24,43,107,131,146
175,151,-24,-163,100,63,-136,-24,43,107,131,141
161,146,-14,-153,87,65,-122,-24,48,97,122,131
146,141,-4,-143,75,68,-112,-24,48,92,117,122
126,126,0,-126,63,63,-92,-24,48,92,107,112
97,102,4,-100,46,53,-82,-24,48,87,102,107
82,97,14,-90,34,56,-78,-24,43,78,92,87
58,78,19,-68,19,48,-73,-24,34,68,78,73
48,63,14,-56,17,39,-63,-24,34,58,68,53
39,53,14,-46,12,34,-53,-24,34,53,58,48
29,58,29,-43,0,43,-39,-14,29,48,53,43
29,58,29,-43,0,43,-29,-9,29,39,43,39
24,48,24,-36,0,36,-14,-9,24,29,34,29
14,34,19,-24,-2,26,-14,-9,24,24,29,24
-4,19,24,-7,-14,21,-9,-9,14,19,24,19
-14,14,29,0,-21,21,-9,-9,14,14,19,14
-14,14,29,0,-21,21,-4,-9,14,9,14,9
-24,4,29,9,-26,17,0,-4,14,9,14,4
-24,4,29,9,-26,17,0,-4,9,9,9,4
-34,0,34,17,-34,17,-4,-4,9,0,4,-4
-39,-19,19,29,-29,0,-4,-4,9,0,0,-14
-39,-29,9,34,-24,-9,-4,-4,4,-4,0,-14
-39,-4,34,21,-36,14,0,-14,4,-4,14,-4
-39,-14,24,26,-31,4,4,-19,4,0,4,-14
-34,-14,19,24,-26,2,9,-9,4,0,0,-9
-29,-9,19,19,-24,4,9,0,9,0,0,-4
-39,-14,24,26,-31,4,9,0,9,0,0,-9
-43,-14,29,29,-36,7,9,0,9,-4,0,-9
-43,-19,24,31,-34,2,9,0,9,-4,-9,-14
-43,-24,19,34,-31,-2,9,0,9,-4,-9,-19
-43,-24,19,34,-31,-2,14,4,14,-4,-4,-24
-43,-14,29,29,-36,7,14,4,14,-4,-4,-24
-43,-14,29,29,-36,7,14,0,14,-4,4,-19
-43,-4,39,24,-41,17,14,-4,14,-4,9,-19
-43,-14,29,29,-36,7,14,-4,14,-4,4,-19
-43,-9,34,26,-39,12,14,-4,19,-4,4,-19
-43,-4,39,24,-41,17,14,-4,19,0,4,-14
-39,0,39,19,-39,19,19,-4,19,0,4,-9
-39,0,39,19,-39,19,19,-4,24,0,4,-9
-43,-4,39,24,-41,17,14,-4,24,0,0,-9
-48,-9,39,29,-43,14,4,-4,24,0,0,-9
-48,-9,39,29,-43,14,0,-9,24,0,0,-9
-48,-9,39,29,-43,14,0,-4,24,0,0,-9
-43,-9,34,26,-39,12,0,0,24,0,0,-9
-39,0,39,19,-39,19,4,0,24,4,4,-4
-39,4,43,17,-41,24,9,0,24,4,9,-4
-34,4,39,14,-36,21,9,0,24,0,9,-4
-29,4,34,12,-31,19,9,0,24,-4,9,0
-39,4,43,17,-41,24,0,-4,19,-4,4,0
-29,4,34,12,-31,19,-4,-9,14,-4,0,0
-29,0,29,14,-29,14,-4,-9,14,-4,-4,0
-34,0,34,17,-34,17,-4,-9,14,-4,-4,0
-34,0,34,17,-34,17,0,-9,14,-4,-4,-4
-24,0,24,12,-24,12,0,-9,14,-4,-4,-9
-29,4,34,12,-31,19,-4,-14,9,-4,-4,-14
-29,4,34,12,-31,19,-4,-14,4,-4,-4,-14
-29,4,34,12,-31,19,-4,-9,4,-4,-9,-14
-24,4,29,9,-26,17,-4,-4,4,-9,-9,-14
-29,4,34,12,-31,19,-4,-4,9,-9,-9,-14
-29,4,34,12,-31,19,-4,-4,4,-14,-14,-19
-29,4,34,12,-31,19,-4,-9,4,-14,-14,-24
-29,4,34,12,-31,19,-4,-14,4,-14,-14,-24
-29,4,34,12,-31,19,-4,-14,4,-9,-14,-24
-24,0,24,12,-24,12,-4,-14,0,-9,-19,-24
-29,0,29,14,-29,14,-4,-14,-4,-9,-19,-29
-29,-4,24,17,-26,9,-4,-19,-4,-14,-24,-29
-34,-9,24,21,-29,7,-4,-19,0,-14,-24,-29
-43,-14,29,29,-36,7,0,-19,0,-14,-24,-29
-48,-14,34,31,-41,9,0,-14,0,-19,-24,-29
-48,-19,29,34,-39,4,0,-14,-4,-24,-29,-29
-34,-14,19,24,-26,2,0,-9,-4,-24,-29,-29
-19,-9,9,14,-14,0,0,-4,-4,-24,-29,-29
-29,-9,19,19,-24,4,4,-4,-4,-29,-24,-34
-39,-9,29,24,-34,9,4,-4,-4,-29,-24,-34
-39,-9,29,24,-34,9,4,-4,-4,-34,-34,-34
-39,-14,24,26,-31,4,4,-9,-4,-34,-39,-39
-39,-14,24,26,-31,4,4,-9,-4,-34,-39,-39
-43,-19,24,31,-34,2,4,-4,-9,-39,-39,-39
-43,-19,24,31,-34,2,4,-9,-9,-39,-39,-39
-43,-19,24,31,-34,2,4,-14,-9,-39,-39,-43
-43,-24,19,34,-31,-2,4,-14,-9,-39,-39,-43
-48,-24,24,36,-36,0,4,-14,-9,-39,-39,-43
-48,-29,19,39,-34,-4,0,-9,-9,-39,-39,-48
-48,-29,19,39,-34,-4,0,-9,-14,-39,-39,-48
-48,-29,19,39,-34,-4,0,-9,-14,-39,-43,-48
-48,-29,19,39,-34,-4,4,-9,-14,-39,-43,-48
-43,-29,14,36,-29,-7,9,-14,-14,-39,-43,-48
-43,-29,14,36,-29,-7,9,-14,-14,-43,-43,-48
-43,-29,14,36,-29,-7,9,-14,-14,-43,-43,-48
-48,-29,19,39,-34,-4,9,-14,-14,-39,-43,-48
-53,-24,29,39,-41,2,4,-14,-14,-39,-43,-48
-53,-19,34,36,-43,7,4,-19,-19,-43,-43,-48
-43,-19,24,31,-34,2,4,-19,-24,-43,-43,-48
-43,-24,19,34,-31,-2,9,-19,-29,-43,-43,-53
-48,-24,24,36,-36,0,9,-19,-29,-43,-43,-53
-48,-19,29,34,-39,4,4,-19,-29,-48,-48,-53
-48,-19,29,34,-39,4,4,-19,-29,-48,-48,-53
-48,-19,29,34,-39,4,4,-19,-29,-43,-48,-53
-43,-14,29,29,-36,7,4,-19,-24,-39,-48,-43
-43,-14,29,29,-36,7,4,-19,-24,-39,-48,-39
-43,-14,29,29,-36,7,0,-14,-19,-43,-43,-43
-48,-19,29,34,-39,4,0,-9,-19,-48,-39,-48
-48,-19,29,34,-39,4,0,-14,-19,-48,-43,-53
-48,-19,29,34,-39,4,0,-19,-19,-48,-48,-58
-48,-19,29,34,-39,4,0,-19,-19,-48,-48,-58
-48,-19,29,34,-39,4,0,-19,-19,-48,-48,-58
-48,-19,29,34,-39,4,0,-19,-24,-48,-48,-58
-48,-19,29,34,-39,4,0,-19,-29,-48,-48,-58
-48,-19,29,34,-39,4,0,-19,-29,-48,-48,-58
-48,-19,29,34,-39,4,0,-19,-29,-48,-48,-58
-48,-19,29,34,-39,4,0,-19,-29,-48,-48,-58
-48,-19,29,34,-39,4,0,-19,-29,-48,-48,-58
-48,-14,34,31,-41,9,0,-19,-29,-48,-48,-58
-48,-9,39,29,-43,14,0,-19,-29,-48,-48,-58
-48,-9,39,29,-43,14,4,-19,-29,-48,-48,-58
-48,-9,39,29,-43,14,9,-19,-29,-48,-48,-58
-48,-14,34,31,-41,9,9,-19,-29,-48,-48,-58
-48,-19,29,34,-39,4,9,-19,-29,-48,-48,-58
-48,-19,29,34,-39,4,9,-19,-29,-48,-48,-58
-48,-19,29,34,-39,4,9,-19,-29,-48,-48,-58
-43,-14,29,29,-36,7,9,-19,-29,-48,-53,-58
-39,-9,29,24,-34,9,9,-19,-29,-48,-58,-58
-39,-9,29,24,-34,9,9,-19,-29,-53,-58,-58
-39,-9,29,24,-34,9,9,-19,-29,-58,-58,-58
-43,-19,24,31,-34,2,9,-19,-29,-58,-58,-58
-48,-29,19,39,-34,-4,9,-19,-29,-58,-58,-58
-48,-29,19,39,-34,-4,9,-19,-29,-53,-53,-58
-48,-29,19,39,-34,-4,9,-19,-29,-48,-48,-58
-48,-19,29,34,-39,4,9,-19,-29,-48,-48,-58
-48,-9,39,29,-43,14,9,-19,-29,-48,-48,-58
-48,-9,39,29,-43,14,9,-9,-29,-48,-48,-58
-48,-9,39,29,-43,14,9,0,-29,-48,-48,-58
-48,-14,34,31,-41,9,9,-9,-29,-48,-48,-58
-48,-19,29,34,-39,4,9,-19,-29,-48,-48,-58
-48,-19,29,34,-39,4,9,-19,-29,-48,-48,-58
-48,-19,29,34,-39,4,9,-19,-29,-48,-48,-58
-48,-19,29,34,-39,4,9,-19,-29,-48,-48,-58
-48,-19,29,34,-39,4,9,-19,-29,-48,-48,-58
-48,-19,29,34,-39,4,9,-14,-29,-48,-48,-58
-48,-19,29,34,-39,4,9,-9,-29,-48,-48,-58
-48,-19,29,34,-39,4,9,-9,-29,-48,-48,-58
