I,II,III,aVR,aVL,aVF,V1,V2,V3,V4,V5,V6,
29,-263,-292,117,161,-278,-195,-204,-605,-439,-175,9
29,-263,-292,117,161,-278,-195,-204,-605,-439,-175,9
29,-263,-292,117,161,-278,-195,-204,-605,-439,-175,9
29,-263,-292,117,161,-278,-195,-204,-605,-439,-175,9
9,-239,-248,114,129,-244,-131,-151,-497,-370,-161,-14
-9,-214,-204,112,97,-209,-68,-107,-390,-302,-146,-39
-29,-190,-161,109,65,-175,-4,-63,-283,-234,-131,-63
-48,-165,-117,107,34,-141,58,-19,-175,-165,-117,-87
-63,-141,-78,102,7,-109,78,-24,-146,-141,-97,-73
-68,-117,-48,92,-9,-82,87,-29,-117,-117,-78,-58
-73,-92,-19,82,-26,-56,97,-34,-87,-92,-58,-43
-78,-68,9,73,-43,-29,107,-39,-58,-68,-39,-29
-78,-53,24,65,-51,-14,107,-39,-48,-53,-34,-24
-78,-48,29,63,-53,-9,107,-39,-39,-48,-29,-19
-78,-43,34,61,-56,-4,107,-39,-29,-43,-24,-14
-78,-39,39,58,-58,0,107,-39,-19,-39,-19,-9
-73,-29,43,51,-58,7,92,-34,-9,-29,-19,-9
-68,-29,39,48,-53,4,87,-29,-9,-29,-19,-9
-63,-29,34,46,-48,2,82,-24,-9,-29,-19,-9
-58,-29,29,43,-43,0,78,-19,-9,-29,-19,-9
-48,-39,9,43,-29,-14,63,-14,-9,-29,-29,-14
-48,-39,9,43,-29,-14,58,-9,-9,-29,-29,-19
-48,-39,9,43,-29,-14,53,-4,-9,-29,-29,-24
-48,-39,9,43,-29,-14,48,0,-9,-29,-29,-29
-39,-39,0,39,-19,-19,34,9,0,-29,-29,-39
-39,-39,0,39,-19,-19,29,9,0,-29,-29,-39
-39,-39,0,39,-19,-19,24,9,0,-29,-29,-39
-39,-39,0,39,-19,-19,19,9,0,-29,-29,-39
-29,-48,-19,39,-4,-34,4,9,0,-39,-39,-43
-29,-48,-19,39,-4,-34,0,9,0,-39,-39,-48
-29,-48,-19,39,-4,-34,-4,9,0,-39,-39,-53
-29,-48,-19,39,-4,-34,-9,9,0,-39,-39,-58
-19,-48,-29,34,4,-39,-19,9,-9,-39,-48,-68
-19,-48,-29,34,4,-39,-19,9,-9,-39,-48,-68
-19,-48,-29,34,4,-39,-19,9,-9,-39,-48,-68
-19,-48,-29,34,4,-39,-19,9,-9,-39,-48,-68
-24,-58,-34,41,4,-46,-19,9,-9,-39,-48,-58
-29,-58,-29,43,0,-43,-19,9,-9,-39,-48,-58
-34,-58,-24,46,-4,-41,-19,9,-9,-39,-48,-58
-39,-58,-19,48,-9,-39,-19,9,-9,-39,-48,-58
-48,-58,-9,53,-19,-34,-14,0,0,-29,-48,-58
-48,-58,-9,53,-19,-34,-9,0,0,-29,-48,-58
-48,-58,-9,53,-19,-34,-4,0,0,-29,-48,-58
-48,-58,-9,53,-19,-34,0,0,0,-29,-48,-58
-48,-58,-9,53,-19,-34,4,0,9,-29,-48,-58
-48,-58,-9,53,-19,-34,9,0,9,-29,-48,-58
-48,-58,-9,53,-19,-34,14,0,9,-29,-48,-58
-48,-58,-9,53,-19,-34,19,0,9,-29,-48,-58
-48,-58,-9,53,-19,-34,24,0,9,-29,-39,-58
-48,-58,-9,53,-19,-34,29,0,9,-29,-39,-58
-48,-58,-9,53,-19,-34,34,0,9,-29,-39,-58
-48,-58,-9,53,-19,-34,39,0,9,-29,-39,-58
-48,-58,-9,53,-19,-34,39,4,19,-29,-48,-58
-48,-58,-9,53,-19,-34,39,9,19,-29,-48,-58
-48,-58,-9,53,-19,-34,39,14,19,-29,-48,-58
-48,-58,-9,53,-19,-34,39,19,19,-29,-48,-58
-39,-48,-9,43,-14,-29,48,29,29,-19,-39,-58
-39,-48,-9,43,-14,-29,48,29,29,-19,-39,-58
-39,-48,-9,43,-14,-29,48,29,29,-19,-39,-58
-39,-48,-9,43,-14,-29,48,29,29,-19,-39,-58
-34,-39,-4,36,-14,-21,58,43,39,-9,-29,-58
-29,-39,-9,34,-9,-24,58,48,39,-9,-29,-58
-24,-39,-14,31,-4,-26,58,53,39,-9,-29,-58
-19,-39,-19,29,0,-29,58,58,39,-9,-29,-58
-9,-29,-19,19,4,-24,63,68,43,4,-19,-48
-9,-29,-19,19,4,-24,68,68,48,9,-19,-48
-9,-29,-19,19,4,-24,73,68,53,14,-19,-48
-9,-29,-19,19,4,-24,78,68,58,19,-19,-48
0,-24,-24,12,12,-24,78,73,63,29,-14,-39
0,-19,-19,9,9,-19,78,78,68,29,-9,-39
0,-14,-14,7,7,-14,78,82,73,29,-4,-39
0,-9,-9,4,4,-9,78,87,78,29,0,-39
0,4,4,-2,-2,4,82,92,92,43,4,-34
0,9,9,-4,-4,9,87,97,97,48,9,-29
0,14,14,-7,-7,14,92,102,102,53,14,-24
0,19,19,-9,-9,19,97,107,107,58,19,-19
9,29,19,-19,-4,24,97,117,112,63,24,-14
9,39,29,-24,-9,34,97,117,117,68,29,-9
9,48,39,-29,-14,43,97,117,122,73,34,-4
9,58,48,-34,-19,53,97,117,126,78,39,0
19,73,53,-46,-17,63,97,122,141,92,43,9
19,78,58,-48,-19,68,97,126,146,97,48,9
19,82,63,-51,-21,73,97,131,151,102,53,9
19,87,68,-53,-24,78,97,136,156,107,58,9
24,92,68,-58,-21,80,87,146,161,117,63,19
29,97,68,-63,-19,82,87,156,165,117,68,19
34,102,68,-68,-17,85,87,165,170,117,73,19
39,107,68,-73,-14,87,87,175,175,117,78,19
53,112,58,-82,-2,85,82,185,190,131,82,29
58,117,58,-87,0,87,78,195,195,136,87,29
63,122,58,-92,2,90,73,204,200,141,92,29
68,126,58,-97,4,92,68,214,204,146,97,29
82,141,58,-112,12,100,58,224,209,151,102,34
87,146,58,-117,14,102,58,234,214,156,107,39
92,151,58,-122,17,104,58,244,219,161,112,43
97,156,58,-126,19,107,58,253,224,165,117,48
112,165,53,-139,29,109,53,263,234,175,117,39
117,165,48,-141,34,107,48,273,234,175,117,39
122,165,43,-143,39,104,43,283,234,175,117,39
126,165,39,-146,43,102,39,292,234,175,117,39
141,165,24,-153,58,95,24,302,234,185,126,39
146,165,19,-156,63,92,19,312,234,185,126,39
151,165,14,-158,68,90,14,322,234,185,126,39
156,165,9,-161,73,87,9,331,234,185,126,39
161,156,-4,-158,82,75,0,336,234,195,117,29
165,156,-9,-161,87,73,0,341,234,195,117,29
170,156,-14,-163,92,70,0,346,234,195,117,29
175,156,-19,-165,97,68,0,351,234,195,117,29
190,156,-34,-173,112,61,0,356,224,195,126,39
195,156,-39,-175,117,58,0,361,224,195,126,39
200,156,-43,-178,122,56,0,366,224,195,126,39
204,156,-48,-180,126,53,0,370,224,195,126,39
214,146,-68,-180,141,39,0,380,219,185,136,39
214,146,-68,-180,141,39,0,380,214,185,136,39
214,146,-68,-180,141,39,0,380,209,185,136,39
214,146,-68,-180,141,39,0,380,204,185,136,39
219,156,-63,-187,141,46,-9,380,200,185,146,43
224,156,-68,-190,146,43,-9,380,195,185,146,48
229,156,-73,-192,151,41,-9,380,190,185,146,53
234,156,-78,-195,156,39,-9,380,185,185,146,58
244,146,-97,-195,170,24,-14,370,180,175,146,58
244,146,-97,-195,170,24,-19,370,175,175,146,58
244,146,-97,-195,170,24,-24,370,170,175,146,58
244,146,-97,-195,170,24,-29,370,165,175,146,58
253,146,-107,-200,180,19,-39,366,151,175,146,58
253,146,-107,-200,180,19,-39,361,146,175,146,58
253,146,-107,-200,180,19,-39,356,141,175,146,58
253,146,-107,-200,180,19,-39,351,136,175,146,58
244,141,-102,-192,173,19,-43,336,131,170,141,58
244,136,-107,-190,175,14,-48,331,126,165,136,58
244,131,-112,-187,178,9,-53,326,122,161,131,58
244,126,-117,-185,180,4,-58,322,117,156,126,58
239,126,-112,-183,175,7,-58,312,112,146,117,58
234,126,-107,-180,170,9,-58,302,107,146,117,58
229,126,-102,-178,165,12,-58,292,102,146,117,58
224,126,-97,-175,161,14,-58,283,97,146,117,58
214,112,-102,-163,158,4,-58,273,82,131,112,48
204,107,-97,-156,151,4,-58,263,78,126,107,48
195,102,-92,-148,143,4,-58,253,73,122,102,48
185,97,-87,-141,136,4,-58,244,68,117,97,48
165,82,-82,-124,124,0,-48,229,53,102,92,39
156,78,-78,-117,117,0,-48,214,48,97,87,39
146,73,-73,-109,109,0,-48,200,43,92,82,39
136,68,-68,-102,102,0,-48,185,39,87,78,39
126,63,-63,-95,95,0,-39,170,29,73,73,34
117,58,-58,-87,87,0,-39,156,29,68,68,29
107,53,-53,-80,80,0,-39,141,29,63,63,24
97,48,-48,-73,73,0,-39,126,29,58,58,19
87,39,-48,-63,68,-4,-39,107,29,48,53,9
78,39,-39,-58,58,0,-39,97,29,48,48,9
68,39,-29,-53,48,4,-39,87,29,48,43,9
58,39,-19,-48,39,9,-39,78,29,48,39,9
53,39,-14,-46,34,12,-48,73,29,39,29,9
48,39,-9,-43,29,14,-48,68,29,39,29,9
43,39,-4,-41,24,17,-48,63,29,39,29,9
39,39,0,-39,19,19,-48,58,29,39,29,9
29,29,0,-29,14,14,-48,43,29,29,19,9
29,29,0,-29,14,14,-48,39,29,29,19,9
29,29,0,-29,14,14,-48,34,29,29,19,9
29,29,0,-29,14,14,-48,29,29,29,19,9
19,19,0,-19,9,9,-58,19,19,24,9,0
19,19,0,-19,9,9,-58,19,19,19,9,0
19,19,0,-19,9,9,-58,19,19,14,9,0
19,19,0,-19,9,9,-58,19,19,9,9,0
14,9,-4,-12,9,2,-48,14,19,19,0,0
9,9,0,-9,4,4,-48,9,19,19,0,0
4,9,4,-7,0,7,-48,4,19,19,0,0
0,9,9,-4,-4,9,-48,0,19,19,0,0
0,9,9,-4,-4,9,-48,-9,19,9,9,0
0,9,9,-4,-4,9,-48,-9,19,9,9,0
0,9,9,-4,-4,9,-48,-9,19,9,9,0
0,9,9,-4,-4,9,-48,-9,19,9,9,0
-4,0,4,2,-4,2,-39,-14,19,9,0,-9
-9,0,9,4,-9,4,-39,-19,19,9,0,-9
-14,0,14,7,-14,7,-39,-24,19,9,0,-9
-19,0,19,9,-19,9,-39,-29,19,9,0,-9
-29,-9,19,19,-24,4,-24,-39,19,9,0,-9
-29,-9,19,19,-24,4,-19,-39,19,9,0,-9
-29,-9,19,19,-24,4,-14,-39,19,9,0,-9
-29,-9,19,19,-24,4,-9,-39,19,9,0,-9
-39,-19,19,29,-29,0,4,-39,19,9,-9,-19
-39,-19,19,29,-29,0,9,-39,19,9,-9,-19
-39,-19,19,29,-29,0,14,-39,19,9,-9,-19
-39,-19,19,29,-29,0,19,-39,19,9,-9,-19
-48,-29,19,39,-34,-4,24,-39,19,4,-19,-29
-48,-29,19,39,-34,-4,29,-39,19,0,-19,-29
-48,-29,19,39,-34,-4,34,-39,19,-4,-19,-29
-48,-29,19,39,-34,-4,39,-39,19,-9,-19,-29
-48,-43,4,46,-26,-19,43,-39,9,-19,-29,-39
-48,-48,0,48,-24,-24,48,-39,9,-19,-29,-39
-48,-53,-4,51,-21,-29,53,-39,9,-19,-29,-39
-48,-58,-9,53,-19,-34,58,-39,9,-19,-29,-39
-48,-68,-19,58,-14,-43,63,-29,0,-29,-29,-39
-48,-68,-19,58,-14,-43,68,-29,0,-29,-29,-39
-48,-68,-19,58,-14,-43,73,-29,0,-29,-29,-39
-48,-68,-19,58,-14,-43,78,-29,0,-29,-29,-39
-58,-68,-9,63,-24,-39,87,-29,0,-29,-39,-48
-58,-68,-9,63,-24,-39,87,-29,0,-29,-39,-48
-58,-68,-9,63,-24,-39,87,-29,0,-29,-39,-48
-58,-68,-9,63,-24,-39,87,-29,0,-29,-39,-48
-68,-78,-9,73,-29,-43,97,-29,-9,-39,-48,-58
-68,-78,-9,73,-29,-43,97,-29,-9,-39,-48,-58
-68,-78,-9,73,-29,-43,97,-29,-9,-39,-48,-58
-68,-78,-9,73,-29,-43,97,-29,-9,-39,-48,-58
-68,-78,-9,73,-29,-43,97,-29,-19,-48,-48,-58
-68,-78,-9,73,-29,-43,97,-29,-19,-48,-48,-58
-68,-78,-9,73,-29,-43,97,-29,-19,-48,-48,-58
-68,-78,-9,73,-29,-43,97,-29,-19,-48,-48,-58
-58,-87,-29,73,-14,-58,97,-29,-29,-48,-58,-48
-58,-87,-29,73,-14,-58,97,-29,-29,-48,-58,-48
-58,-87,-29,73,-14,-58,97,-29,-29,-48,-58,-48
-58,-87,-29,73,-14,-58,97,-29,-29,-48,-58,-48
-58,-87,-29,73,-14,-58,87,-19,-29,-58,-58,-58
-58,-87,-29,73,-14,-58,87,-19,-29,-58,-58,-58
-58,-87,-29,73,-14,-58,87,-19,-29,-58,-58,-58
-58,-87,-29,73,-14,-58,87,-19,-29,-58,-58,-58
-48,-87,-39,68,-4,-63,82,-19,-39,-58,-58,-58
-48,-87,-39,68,-4,-63,78,-19,-39,-58,-58,-58
-48,-87,-39,68,-4,-63,73,-19,-39,-58,-58,-58
-48,-87,-39,68,-4,-63,68,-19,-39,-58,-58,-58
-48,-87,-39,68,-4,-63,63,-19,-29,-58,-58,-58
-48,-87,-39,68,-4,-63,58,-19,-29,-58,-58,-58
-48,-87,-39,68,-4,-63,53,-19,-29,-58,-58,-58
-48,-87,-39,68,-4,-63,48,-19,-29,-58,-58,-58
-48,-78,-29,63,-9,-53,43,-29,-29,-48,-58,-58
-48,-78,-29,63,-9,-53,39,-29,-29,-48,-58,-58
-48,-78,-29,63,-9,-53,34,-29,-29,-48,-58,-58
-48,-78,-29,63,-9,-53,29,-29,-29,-48,-58,-58
-48,-73,-24,61,-12,-48,24,-29,-19,-39,-48,-48
-48,-68,-19,58,-14,-43,19,-29,-19,-39,-48,-48
-48,-63,-14,56,-17,-39,14,-29,-19,-39,-48,-48
-48,-58,-9,53,-19,-34,9,-29,-19,-39,-48,-48
-48,-48,0,48,-24,-24,-4,-39,-19,-39,-39,-39
-48,-48,0,48,-24,-24,-9,-39,-19,-39,-39,-39
-48,-48,0,48,-24,-24,-14,-39,-19,-39,-39,-39
-48,-48,0,48,-24,-24,-19,-39,-19,-39,-39,-39
-48,-48,0,48,-24,-24,-29,-48,-29,-48,-39,-39
-48,-48,0,48,-24,-24,-29,-48,-29,-48,-39,-39
-48,-48,0,48,-24,-24,-29,-48,-29,-48,-39,-39
-48,-48,0,48,-24,-24,-29,-48,-29,-48,-39,-39
-58,-48,9,53,-34,-19,-29,-58,-29,-48,-39,-29
-58,-48,9,53,-34,-19,-29,-58,-29,-48,-39,-29
-58,-48,9,53,-34,-19,-29,-58,-29,-48,-39,-29
-58,-48,9,53,-34,-19,-29,-58,-29,-48,-39,-29
-58,-43,14,51,-36,-14,-19,-68,-19,-39,-29,-19
-58,-39,19,48,-39,-9,-19,-68,-19,-39,-29,-19
-58,-34,24,46,-41,-4,-19,-68,-19,-39,-29,-19
-58,-29,29,43,-43,0,-19,-68,-19,-39,-29,-19
-48,-24,24,36,-36,0,-19,-58,-9,-34,-19,-14
-48,-19,29,34,-39,4,-19,-58,-9,-29,-19,-9
-48,-14,34,31,-41,9,-19,-58,-9,-24,-19,-4
-48,-9,39,29,-43,14,-19,-58,-9,-19,-19,0
-48,0,48,24,-48,24,-19,-58,0,-19,-19,0
-48,0,48,24,-48,24,-19,-58,0,-19,-19,0
-48,0,48,24,-48,24,-19,-58,0,-19,-19,0
-48,0,48,24,-48,24,-19,-58,0,-19,-19,0
-39,9,48,14,-43,29,-19,-58,0,-19,-19,0
-39,9,48,14,-43,29,-19,-58,0,-19,-19,0
-39,9,48,14,-43,29,-19,-58,0,-19,-19,0
-39,9,48,14,-43,29,-19,-58,0,-19,-19,0
-39,0,39,19,-39,19,-9,-68,-4,-29,-19,0
-39,0,39,19,-39,19,-9,-68,-9,-29,-19,0
-39,0,39,19,-39,19,-9,-68,-14,-29,-19,0
-39,0,39,19,-39,19,-9,-68,-19,-29,-19,0
-48,-9,39,29,-43,14,-4,-68,-19,-29,-19,-9
-48,-9,39,29,-43,14,0,-68,-19,-29,-19,-9
-48,-9,39,29,-43,14,4,-68,-19,-29,-19,-9
-48,-9,39,29,-43,14,9,-68,-19,-29,-19,-9
-58,-19,39,39,-48,9,14,-68,-19,-29,-19,-9
-58,-19,39,39,-48,9,19,-68,-19,-29,-19,-9
-58,-19,39,39,-48,9,24,-68,-19,-29,-19,-9
-58,-19,39,39,-48,9,29,-68,-19,-29,-19,-9
-68,-29,39,48,-53,4,43,-58,-19,-29,-29,-19
-68,-29,39,48,-53,4,48,-58,-19,-29,-29,-19
-68,-29,39,48,-53,4,53,-58,-19,-29,-29,-19
-68,-29,39,48,-53,4,58,-58,-19,-29,-29,-19
-78,-34,43,56,-61,4,68,-58,-19,-39,-29,-29
-78,-39,39,58,-58,0,68,-58,-19,-39,-29,-29
-78,-43,34,61,-56,-4,68,-58,-19,-39,-29,-29
-78,-48,29,63,-53,-9,68,-58,-19,-39,-29,-29
-87,-53,34,70,-61,-9,73,-58,-24,-43,-34,-39
-87,-58,29,73,-58,-14,78,-58,-29,-48,-39,-39
-87,-63,24,75,-56,-19,82,-58,-34,-53,-43,-39
-87,-68,19,78,-53,-24,87,-58,-39,-58,-48,-39
-87,-82,4,85,-46,-39,97,-58,-43,-63,-53,-43
-87,-87,0,87,-43,-43,97,-58,-48,-68,-58,-48
-87,-92,-4,90,-41,-48,97,-58,-53,-73,-63,-53
-87,-97,-9,92,-39,-53,97,-58,-58,-78,-68,-58
-78,-102,-24,90,-26,-63,87,-48,-63,-87,-78,-68
-78,-107,-29,92,-24,-68,87,-48,-68,-87,-78,-68
-78,-112,-34,95,-21,-73,87,-48,-73,-87,-78,-68
-78,-117,-39,97,-19,-78,87,-48,-78,-87,-78,-68
-68,-126,-58,97,-4,-92,82,-48,-82,-92,-87,-73
-68,-126,-58,97,-4,-92,78,-48,-87,-97,-87,-78
-68,-126,-58,97,-4,-92,73,-48,-92,-102,-87,-82
-68,-126,-58,97,-4,-92,68,-48,-97,-107,-87,-87
-58,-126,-68,92,4,-97,53,-39,-97,-107,-87,-78
-58,-126,-68,92,4,-97,48,-39,-97,-107,-87,-78
-58,-126,-68,92,4,-97,43,-39,-97,-107,-87,-78
-58,-126,-68,92,4,-97,39,-39,-97,-107,-87,-78
-58,-122,-63,90,2,-92,24,-48,-92,-97,-78,-68
-58,-117,-58,87,0,-87,19,-48,-87,-97,-78,-68
-58,-112,-53,85,-2,-82,14,-48,-82,-97,-78,-68
-58,-107,-48,82,-4,-78,9,-48,-78,-97,-78,-68
-58,-102,-43,80,-7,-73,0,-48,-68,-92,-68,-58
-58,-97,-39,78,-9,-68,-9,-48,-68,-87,-68,-58
-58,-92,-34,75,-12,-63,-19,-48,-68,-82,-68,-58
-58,-87,-29,73,-14,-58,-29,-48,-68,-78,-68,-58
-58,-78,-19,68,-19,-48,-29,-58,-58,-78,-68,-48
-58,-78,-19,68,-19,-48,-29,-58,-58,-78,-68,-48
-58,-78,-19,68,-19,-48,-29,-58,-58,-78,-68,-48
-58,-78,-19,68,-19,-48,-29,-58,-58,-78,-68,-48
-68,-78,-9,73,-29,-43,-19,-68,-58,-68,-68,-48
-68,-78,-9,73,-29,-43,-19,-68,-58,-68,-68,-48
-68,-78,-9,73,-29,-43,-19,-68,-58,-68,-68,-48
-68,-78,-9,73,-29,-43,-19,-68,-58,-68,-68,-48
-78,-78,0,78,-39,-39,-14,-68,-58,-68,-58,-48
-78,-78,0,78,-39,-39,-9,-68,-58,-68,-58,-48
-78,-78,0,78,-39,-39,-4,-68,-58,-68,-58,-48
-78,-78,0,78,-39,-39,0,-68,-58,-68,-58,-48
-78,-78,0,78,-39,-39,9,-68,-48,-68,-48,-39
-78,-78,0,78,-39,-39,9,-68,-48,-68,-48,-39
-78,-78,0,78,-39,-39,9,-68,-48,-68,-48,-39
-78,-78,0,78,-39,-39,9,-68,-48,-68,-48,-39
-78,-68,9,73,-43,-29,9,-68,-58,-68,-48,-39
-78,-68,9,73,-43,-29,9,-68,-58,-68,-48,-39
-78,-68,9,73,-43,-29,9,-68,-58,-68,-48,-39
-78,-68,9,73,-43,-29,9,-68,-58,-68,-48,-39
-68,-68,0,68,-34,-34,9,-68,-58,-58,-48,-39
-68,-68,0,68,-34,-34,9,-68,-58,-58,-48,-39
-68,-68,0,68,-34,-34,9,-68,-58,-58,-48,-39
-68,-68,0,68,-34,-34,9,-68,-58,-58,-48,-39
-68,-58,9,63,-39,-24,9,-68,-58,-58,-48,-39
-68,-58,9,63,-39,-24,9,-68,-58,-58,-48,-39
-68,-58,9,63,-39,-24,9,-68,-58,-58,-48,-39
-68,-58,9,63,-39,-24,9,-68,-58,-58,-48,-39
-58,-48,9,53,-34,-19,19,-58,-53,-48,-39,-29
-58,-48,9,53,-34,-19,19,-58,-48,-48,-39,-29
-58,-48,9,53,-34,-19,19,-58,-43,-48,-39,-29
-58,-48,9,53,-34,-19,19,-58,-39,-48,-39,-29
-48,-43,4,46,-26,-19,29,-48,-34,-39,-29,-19
-48,-39,9,43,-29,-14,29,-48,-29,-39,-29,-19
-48,-34,14,41,-31,-9,29,-48,-24,-39,-29,-19
-48,-29,19,39,-34,-4,29,-48,-19,-39,-29,-19
-48,-24,24,36,-36,0,39,-48,-9,-29,-19,-19
-48,-19,29,34,-39,4,39,-48,-9,-29,-19,-19
-48,-14,34,31,-41,9,39,-48,-9,-29,-19,-19
-48,-9,39,29,-43,14,39,-48,-9,-29,-19,-19
-58,0,58,29,-58,29,43,-39,0,-19,-19,-9
-58,0,58,29,-58,29,48,-39,0,-19,-19,-9
-58,0,58,29,-58,29,53,-39,0,-19,-19,-9
-58,0,58,29,-58,29,58,-39,0,-19,-19,-9
-58,0,58,29,-58,29,73,-39,0,-9,-9,-9
-58,0,58,29,-58,29,78,-39,0,-9,-9,-9
-58,0,58,29,-58,29,82,-39,0,-9,-9,-9
-58,0,58,29,-58,29,87,-39,0,-9,-9,-9
-58,0,58,29,-58,29,97,-39,9,0,-9,-9
-58,0,58,29,-58,29,97,-39,9,0,-9,-9
-58,0,58,29,-58,29,97,-39,9,0,-9,-9
-58,0,58,29,-58,29,97,-39,9,0,-9,-9
-58,0,58,29,-58,29,107,-39,19,0,0,0
-58,0,58,29,-58,29,107,-39,19,0,0,0
-58,0,58,29,-58,29,107,-39,19,0,0,0
-58,0,58,29,-58,29,107,-39,19,0,0,0
-48,9,58,19,-53,34,97,-29,19,0,0,0
-48,9,58,19,-53,34,97,-29,19,0,0,0
-48,9,58,19,-53,34,97,-29,19,0,0,0
-48,9,58,19,-53,34,97,-29,19,0,0,0
-39,9,48,14,-43,29,82,-19,29,0,0,0
-39,9,48,14,-43,29,78,-19,29,0,0,0
-39,9,48,14,-43,29,73,-19,29,0,0,0
-39,9,48,14,-43,29,68,-19,29,0,0,0
-29,19,48,4,-39,34,53,-29,19,0,0,0
-29,19,48,4,-39,34,39,-29,19,0,0,0
-29,19,48,4,-39,34,24,-29,19,0,0,0
-29,19,48,4,-39,34,9,-29,19,0,0,0
-24,19,43,2,-34,31,-4,-39,14,-9,-9,-9
-19,19,39,0,-29,29,-19,-39,9,-9,-9,-9
-14,19,34,-2,-24,26,-34,-39,4,-9,-9,-9
-9,19,29,-4,-19,24,-48,-39,0,-9,-9,-9
-19,9,29,4,-24,19,-63,-48,-9,-19,-19,-19
-19,9,29,4,-24,19,-68,-48,-9,-19,-19,-19
-19,9,29,4,-24,19,-73,-48,-9,-19,-19,-19
-19,9,29,4,-24,19,-78,-48,-9,-19,-19,-19
-29,4,34,12,-31,19,-73,-58,-9,-29,-19,-19
-29,0,29,14,-29,14,-68,-58,-9,-29,-19,-19
-29,-4,24,17,-26,9,-63,-58,-9,-29,-19,-19
-29,-9,19,19,-24,4,-58,-58,-9,-29,-19,-19
-43,-19,24,31,-34,2,-43,-58,0,-29,-19,-19
-48,-19,29,34,-39,4,-39,-58,0,-29,-19,-19
-53,-19,34,36,-43,7,-34,-58,0,-29,-19,-19
-58,-19,39,39,-48,9,-29,-58,0,-29,-19,-19
-68,-29,39,48,-53,4,-14,-58,-9,-29,-29,-29
-68,-29,39,48,-53,4,-9,-58,-9,-29,-29,-29
-68,-29,39,48,-53,4,-4,-58,-9,-29,-29,-29
-68,-29,39,48,-53,4,0,-58,-9,-29,-29,-29
-78,-34,43,56,-61,4,4,-68,-14,-39,-39,-39
-78,-39,39,58,-58,0,9,-68,-19,-39,-39,-39
-78,-43,34,61,-56,-4,14,-68,-24,-39,-39,-39
-78,-48,29,63,-53,-9,19,-68,-29,-39,-39,-39
-87,-53,34,70,-61,-9,29,-68,-39,-48,-48,-39
-87,-58,29,73,-58,-14,29,-68,-39,-48,-48,-39
-87,-63,24,75,-56,-19,29,-68,-39,-48,-48,-39
-87,-68,19,78,-53,-24,29,-68,-39,-48,-48,-39
-87,-82,4,85,-46,-39,39,-68,-48,-58,-58,-48
-87,-87,0,87,-43,-43,39,-68,-48,-58,-58,-48
-87,-92,-4,90,-41,-48,39,-68,-48,-58,-58,-48
-87,-97,-9,92,-39,-53,39,-68,-48,-58,-58,-48
-97,-107,-9,102,-43,-58,48,-68,-58,-68,-68,-58
-97,-107,-9,102,-43,-58,48,-68,-58,-68,-68,-58
-97,-107,-9,102,-43,-58,48,-68,-58,-68,-68,-58
-97,-107,-9,102,-43,-58,48,-68,-58,-68,-68,-58
-97,-107,-9,102,-43,-58,53,-58,-58,-78,-68,-58
-97,-107,-9,102,-43,-58,58,-58,-58,-78,-68,-58
-97,-107,-9,102,-43,-58,63,-58,-58,-78,-68,-58
-97,-107,-9,102,-43,-58,68,-58,-58,-78,-68,-58
-97,-117,-19,107,-39,-68,78,-58,-58,-78,-68,-68
-97,-117,-19,107,-39,-68,78,-58,-58,-78,-68,-68
-97,-117,-19,107,-39,-68,78,-58,-58,-78,-68,-68
-97,-117,-19,107,-39,-68,78,-58,-58,-78,-68,-68
-97,-117,-19,107,-39,-68,87,-58,-58,-78,-68,-68
-97,-117,-19,107,-39,-68,87,-58,-58,-78,-68,-68
-97,-117,-19,107,-39,-68,87,-58,-58,-78,-68,-68
-97,-117,-19,107,-39,-68,87,-58,-58,-78,-68,-68
-97,-117,-19,107,-39,-68,92,-48,-58,-68,-68,-58
-97,-117,-19,107,-39,-68,97,-48,-58,-68,-68,-58
-97,-117,-19,107,-39,-68,102,-48,-58,-68,-68,-58
-97,-117,-19,107,-39,-68,107,-48,-58,-68,-68,-58
-87,-107,-19,97,-34,-63,117,-39,-58,-68,-68,-58
-87,-107,-19,97,-34,-63,117,-39,-58,-68,-68,-58
-87,-107,-19,97,-34,-63,117,-39,-58,-68,-68,-58
-87,-107,-19,97,-34,-63,117,-39,-58,-68,-68,-58
-87,-107,-19,97,-34,-63,126,-39,-48,-68,-58,-58
-87,-107,-19,97,-34,-63,126,-39,-48,-68,-58,-58
-87,-107,-19,97,-34,-63,126,-39,-48,-68,-58,-58
-87,-107,-19,97,-34,-63,126,-39,-48,-68,-58,-58
-87,-107,-19,97,-34,-63,126,-29,-48,-58,-58,-58
-87,-107,-19,97,-34,-63,126,-29,-48,-58,-58,-58
-87,-107,-19,97,-34,-63,126,-29,-48,-58,-58,-58
-87,-107,-19,97,-34,-63,126,-29,-48,-58,-58,-58
-78,-97,-19,87,-29,-58,117,-39,-48,-58,-58,-48
-78,-97,-19,87,-29,-58,107,-39,-48,-58,-58,-48
-78,-97,-19,87,-29,-58,97,-39,-48,-58,-58,-48
-78,-97,-19,87,-29,-58,87,-39,-48,-58,-58,-48
-68,-87,-19,78,-24,-53,78,-39,-39,-58,-58,-48
-68,-87,-19,78,-24,-53,68,-39,-39,-58,-58,-48
-68,-87,-19,78,-24,-53,58,-39,-39,-58,-58,-48
-68,-87,-19,78,-24,-53,48,-39,-39,-58,-58,-48
-68,-78,-9,73,-29,-43,34,-48,-39,-58,-58,-48
-68,-78,-9,73,-29,-43,29,-48,-39,-58,-58,-48
-68,-78,-9,73,-29,-43,24,-48,-39,-58,-58,-48
-68,-78,-9,73,-29,-43,19,-48,-39,-58,-58,-48
-68,-78,-9,73,-29,-43,29,-48,-39,-58,-58,-48
-68,-78,-9,73,-29,-43,29,-48,-39,-58,-58,-48
-68,-78,-9,73,-29,-43,29,-48,-39,-58,-58,-48
-68,-78,-9,73,-29,-43,29,-48,-39,-58,-58,-48
-68,-78,-9,73,-29,-43,19,-48,-39,-58,-48,-58
-68,-78,-9,73,-29,-43,19,-48,-39,-58,-48,-58
-68,-78,-9,73,-29,-43,19,-48,-39,-58,-48,-58
-68,-78,-9,73,-29,-43,19,-48,-39,-58,-48,-58
-68,-68,0,68,-34,-34,19,-48,-39,-58,-58,-58
-68,-68,0,68,-34,-34,19,-48,-39,-58,-58,-58
-68,-68,0,68,-34,-34,19,-48,-39,-58,-58,-58
-68,-68,0,68,-34,-34,19,-48,-39,-58,-58,-58
-68,-78,-9,73,-29,-43,19,-48,-48,-58,-58,-58
-68,-78,-9,73,-29,-43,19,-48,-48,-58,-58,-58
-68,-78,-9,73,-29,-43,19,-48,-48,-58,-58,-58
-68,-78,-9,73,-29,-43,19,-48,-48,-58,-58,-58
-63,-78,-14,70,-24,-46,9,-48,-48,-68,-58,-58
-58,-78,-19,68,-19,-48,9,-48,-48,-68,-58,-58
-53,-78,-24,65,-14,-51,9,-48,-48,-68,-58,-58
-48,-78,-29,63,-9,-53,9,-48,-48,-68,-58,-58
-39,-73,-34,56,-2,-53,9,-58,-48,-58,-58,-48
-39,-68,-29,53,-4,-48,9,-58,-48,-58,-58,-48
-39,-63,-24,51,-7,-43,9,-58,-48,-58,-58,-48
-39,-58,-19,48,-9,-39,9,-58,-48,-58,-58,-48
-48,-48,0,48,-24,-24,19,-58,-43,-48,-48,-48
-48,-48,0,48,-24,-24,19,-58,-39,-48,-48,-48
-48,-48,0,48,-24,-24,19,-58,-34,-48,-48,-48
-48,-48,0,48,-24,-24,19,-58,-29,-48,-48,-48
-53,-39,14,46,-34,-12,29,-58,-29,-39,-39,-43
-58,-39,19,48,-39,-9,29,-58,-29,-39,-39,-39
-63,-39,24,51,-43,-7,29,-58,-29,-39,-39,-34
-68,-39,29,53,-48,-4,29,-58,-29,-39,-39,-29
-68,-39,29,53,-48,-4,39,-68,-19,-39,-39,-29
-68,-39,29,53,-48,-4,39,-68,-19,-39,-39,-29
-68,-39,29,53,-48,-4,39,-68,-19,-39,-39,-29
-68,-39,29,53,-48,-4,39,-68,-19,-39,-39,-29
-68,-39,29,53,-48,-4,39,-58,-19,-39,-39,-29
-68,-39,29,53,-48,-4,39,-58,-19,-39,-39,-29
-68,-39,29,53,-48,-4,39,-58,-19,-39,-39,-29
-68,-39,29,53,-48,-4,39,-58,-19,-39,-39,-29
-68,-29,39,48,-53,4,48,-58,-19,-29,-29,-29
-68,-29,39,48,-53,4,48,-58,-19,-29,-29,-29
-68,-29,39,48,-53,4,48,-58,-19,-29,-29,-29
-68,-29,39,48,-53,4,48,-58,-19,-29,-29,-29
-68,-19,48,43,-58,14,58,-58,-14,-19,-19,-19
-68,-19,48,43,-58,14,58,-58,-9,-19,-19,-19
-68,-19,48,43,-58,14,58,-58,-4,-19,-19,-19
-68,-19,48,43,-58,14,58,-58,0,-19,-19,-19
-58,-9,48,34,-53,19,58,-48,9,-19,-19,-19
-58,-9,48,34,-53,19,58,-48,9,-19,-19,-19
-58,-9,48,34,-53,19,58,-48,9,-19,-19,-19
-58,-9,48,34,-53,19,58,-48,9,-19,-19,-19
-58,0,58,29,-58,29,58,-48,19,-14,-9,-9
-58,0,58,29,-58,29,58,-48,19,-9,-9,-9
-58,0,58,29,-58,29,58,-48,19,-4,-9,-9
-58,0,58,29,-58,29,58,-48,19,0,-9,-9
-58,0,58,29,-58,29,58,-39,9,0,-19,-9
-58,0,58,29,-58,29,58,-39,9,0,-19,-9
-58,0,58,29,-58,29,58,-39,9,0,-19,-9
-58,0,58,29,-58,29,58,-39,9,0,-19,-9
-48,-4,43,26,-46,19,68,-39,0,-4,-19,-19
-48,-9,39,29,-43,14,68,-39,0,-9,-19,-19
-48,-14,34,31,-41,9,68,-39,0,-14,-19,-19
-48,-19,29,34,-39,4,68,-39,0,-19,-19,-19
-58,-29,29,43,-43,0,58,-29,-4,-29,-29,-29
-58,-29,29,43,-43,0,58,-29,-9,-29,-29,-29
-58,-29,29,43,-43,0,58,-29,-14,-29,-29,-29
-58,-29,29,43,-43,0,58,-29,-19,-29,-29,-29
-48,-39,9,43,-29,-14,53,-29,-29,-39,-29,-29
-48,-39,9,43,-29,-14,48,-29,-29,-39,-29,-29
-48,-39,9,43,-29,-14,43,-29,-29,-39,-29,-29
-48,-39,9,43,-29,-14,39,-29,-29,-39,-29,-29
-48,-48,0,48,-24,-24,24,-29,-29,-39,-29,-29
-48,-48,0,48,-24,-24,19,-29,-29,-39,-29,-29
-48,-48,0,48,-24,-24,14,-29,-29,-39,-29,-29
-48,-48,0,48,-24,-24,9,-29,-29,-39,-29,-29
-48,-43,4,46,-26,-19,4,-39,-19,-29,-29,-29
-48,-39,9,43,-29,-14,0,-39,-19,-29,-29,-29
-48,-34,14,41,-31,-9,-4,-39,-19,-29,-29,-29
-48,-29,19,39,-34,-4,-9,-39,-19,-29,-29,-29
-48,-19,29,34,-39,4,-19,-48,-9,-19,-19,-19
-48,-19,29,34,-39,4,-19,-48,-9,-19,-19,-19
-48,-19,29,34,-39,4,-19,-48,-9,-19,-19,-19
-48,-19,29,34,-39,4,-19,-48,-9,-19,-19,-19
-48,-9,39,29,-43,14,-19,-48,0,-9,-9,-14
-48,-9,39,29,-43,14,-19,-48,0,-9,-9,-9
-48,-9,39,29,-43,14,-19,-48,0,-9,-9,-4
-48,-9,39,29,-43,14,-19,-48,0,-9,-9,0
-39,-9,29,24,-34,9,-9,-48,0,-19,-19,-4
-39,-9,29,24,-34,9,-9,-48,0,-19,-19,-9
-39,-9,29,24,-34,9,-9,-48,0,-19,-19,-14
-39,-9,29,24,-34,9,-9,-48,0,-19,-19,-19
-39,-19,19,29,-29,0,0,-39,-4,-19,-29,-19
-39,-19,19,29,-29,0,0,-39,-9,-19,-29,-19
-39,-19,19,29,-29,0,0,-39,-14,-19,-29,-19
-39,-19,19,29,-29,0,0,-39,-19,-19,-29,-19
-29,-19,9,24,-19,-4,-9,-39,-19,-29,-29,-29
-29,-19,9,24,-19,-4,-9,-39,-19,-29,-29,-29
-29,-19,9,24,-19,-4,-9,-39,-19,-29,-29,-29
-29,-19,9,24,-19,-4,-9,-39,-19,-29,-29,-29
-29,-19,9,24,-19,-4,-9,-48,-29,-29,-29,-29
-29,-19,9,24,-19,-4,-9,-48,-29,-29,-29,-29
-29,-19,9,24,-19,-4,-9,-48,-29,-29,-29,-29
-29,-19,9,24,-19,-4,-9,-48,-29,-29,-29,-29
-34,-29,4,31,-19,-12,-4,-58,-29,-29,-29,-29
-39,-29,9,34,-24,-9,0,-58,-29,-29,-29,-29
-43,-29,14,36,-29,-7,4,-58,-29,-29,-29,-29
-48,-29,19,39,-34,-4,9,-58,-29,-29,-29,-29
-53,-39,14,46,-34,-12,19,-58,-29,-39,-29,-39
-58,-39,19,48,-39,-9,19,-58,-29,-39,-29,-39
-63,-39,24,51,-43,-7,19,-58,-29,-39,-29,-39
-68,-39,29,53,-48,-4,19,-58,-29,-39,-29,-39
-78,-48,29,63,-53,-9,24,-58,-29,-39,-39,-39
-78,-48,29,63,-53,-9,29,-58,-29,-39,-39,-39
-78,-48,29,63,-53,-9,34,-58,-29,-39,-39,-39
-78,-48,29,63,-53,-9,39,-58,-29,-39,-39,-39
-68,-58,9,63,-39,-24,39,-58,-39,-48,-48,-39
-68,-58,9,63,-39,-24,39,-58,-39,-48,-48,-39
-68,-58,9,63,-39,-24,39,-58,-39,-48,-48,-39
-68,-58,9,63,-39,-24,39,-58,-39,-48,-48,-39
-68,-58,9,63,-39,-24,48,-58,-39,-48,-39,-39
-68,-58,9,63,-39,-24,48,-58,-39,-48,-39,-39
-68,-58,9,63,-39,-24,48,-58,-39,-48,-39,-39
-68,-58,9,63,-39,-24,48,-58,-39,-48,-39,-39
-68,-58,9,63,-39,-24,48,-58,-39,-48,-39,-39
-68,-58,9,63,-39,-24,48,-58,-39,-48,-39,-39
-68,-58,9,63,-39,-24,48,-58,-39,-48,-39,-39
-68,-58,9,63,-39,-24,48,-58,-39,-48,-39,-39
-68,-48,19,58,-43,-14,58,-58,-39,-39,-39,-39
-68,-48,19,58,-43,-14,58,-58,-39,-39,-39,-39
-68,-48,19,58,-43,-14,58,-58,-39,-39,-39,-39
-68,-48,19,58,-43,-14,58,-58,-39,-39,-39,-39
-68,-48,19,58,-43,-14,48,-58,-29,-39,-39,-29
-68,-48,19,58,-43,-14,48,-58,-29,-39,-39,-29
-68,-48,19,58,-43,-14,48,-58,-29,-39,-39,-29
-68,-48,19,58,-43,-14,48,-58,-29,-39,-39,-29
-68,-39,29,53,-48,-4,48,-58,-29,-39,-29,-29
-68,-39,29,53,-48,-4,48,-58,-29,-39,-29,-29
-68,-39,29,53,-48,-4,48,-58,-29,-39,-29,-29
-68,-39,29,53,-48,-4,48,-58,-29,-39,-29,-29
-68,-39,29,53,-48,-4,39,-58,-29,-39,-39,-29
-68,-39,29,53,-48,-4,39,-58,-29,-39,-39,-29
-68,-39,29,53,-48,-4,39,-58,-29,-39,-39,-29
-68,-39,29,53,-48,-4,39,-58,-29,-39,-39,-29
-58,-39,19,48,-39,-9,34,-58,-39,-39,-39,-29
-58,-39,19,48,-39,-9,29,-58,-39,-39,-39,-29
-58,-39,19,48,-39,-9,24,-58,-39,-39,-39,-29
-58,-39,19,48,-39,-9,19,-58,-39,-39,-39,-29
-58,-39,19,48,-39,-9,4,-68,-39,-39,-39,-29
-58,-39,19,48,-39,-9,0,-68,-39,-39,-39,-29
-58,-39,19,48,-39,-9,-4,-68,-39,-39,-39,-29
-58,-39,19,48,-39,-9,-9,-68,-39,-39,-39,-29
-48,-29,19,39,-34,-4,-29,-68,-29,-39,-29,-29
-39,-29,9,34,-24,-9,-39,-58,-19,-39,-29,-29
-39,-19,19,29,-29,0,-58,-48,-19,-29,-29,-19
-39,-19,19,29,-29,0,-68,-48,0,-19,-29,-29
-29,-19,9,24,-19,-4,-78,-58,0,-19,-19,-29
-29,-9,19,19,-24,4,-87,-58,-19,-19,-19,-19
-29,-19,9,24,-19,-4,-107,-68,-29,-29,-19,-19
-19,-19,0,19,-9,-9,-136,-87,-39,-29,-19,-19
-19,0,19,9,-19,9,-156,-107,-39,-29,0,0
-9,19,29,-4,-19,24,-185,-126,-29,9,9,9
0,68,68,-34,-34,68,-224,-136,9,48,48,29
9,107,97,-58,-43,102,-263,-156,39,78,68,48
9,156,146,-82,-68,151,-292,-195,78,126,97,68
0,224,224,-112,-112,224,-341,-263,126,185,146,107
-9,312,322,-151,-165,317,-400,-361,175,273,224,165
-19,380,400,-180,-209,390,-488,-488,185,331,283,224
-29,458,488,-214,-258,473,-585,-634,156,380,351,292
-9,546,556,-268,-283,551,-732,-761,126,439,429,361
29,653,624,-341,-297,639,-878,-849,136,527,507,439
87,751,663,-419,-287,707,-1005,-897,146,595,585,507
126,819,692,-473,-283,756,-1122,-936,117,634,634,556
156,878,722,-517,-283,800,-1210,-995,78,644,673,614
175,946,771,-561,-297,858,-1288,-1044,68,673,712,673
214,1034,819,-624,-302,927,-1366,-1044,97,712,761,741
263,1102,839,-683,-287,971,-1415,-1015,107,741,800,790
322,1132,810,-727,-244,971,-1454,-956,78,722,810,819
370,1141,771,-756,-200,956,-1483,-936,9,683,800,839
429,1151,722,-790,-146,936,-1542,-956,-87,624,819,878
478,1171,692,-824,-107,932,-1610,-1015,-185,575,829,927
546,1151,605,-849,-29,878,-1629,-1044,-283,497,839,956
575,1073,497,-824,39,785,-1590,-985,-331,409,790,956
556,946,390,-751,82,668,-1473,-888,-380,292,712,907
527,761,234,-644,146,497,-1288,-741,-458,136,595,819
468,566,97,-517,185,331,-1073,-585,-546,0,458,692
380,390,9,-385,185,200,-849,-458,-575,-97,322,556
263,253,-9,-258,136,122,-644,-390,-546,-146,234,439
146,165,19,-156,63,92,-478,-351,-478,-146,165,331
68,107,39,-87,14,73,-351,-312,-370,-117,136,263
29,58,29,-43,0,43,-244,-253,-283,-107,87,175
9,9,0,-9,4,4,-156,-175,-224,-97,39,97
-9,-39,-29,24,9,-34,-68,-107,-156,-78,0,29
-19,-48,-29,34,4,-39,-19,-48,-97,-48,-19,-9
-29,-58,-29,43,0,-43,29,-29,-68,-39,-19,-29
-39,-58,-19,48,-9,-39,58,-29,-58,-29,-19,-29
-58,-39,19,48,-39,-9,68,-39,-48,-29,-9,-19
-68,-39,29,53,-48,-4,78,-48,-39,-19,0,-9
-78,-39,39,58,-58,0,87,-58,-39,-29,0,0
-78,-29,48,53,-63,9,87,-58,-39,-29,-9,-9
-78,-39,39,58,-58,0,92,-43,-34,-29,-19,-19
-78,-39,39,58,-58,0,97,-39,-29,-29,-19,-19
-78,-39,39,58,-58,0,102,-34,-24,-29,-19,-19
-78,-39,39,58,-58,0,107,-29,-19,-29,-19,-19
-68,-39,29,53,-48,-4,117,-14,-19,-29,-29,-24
-68,-39,29,53,-48,-4,117,-9,-19,-29,-29,-29
-68,-39,29,53,-48,-4,117,-4,-19,-29,-29,-34
-68,-39,29,53,-48,-4,117,0,-19,-29,-29,-39
-68,-48,19,58,-43,-14,126,0,-9,-39,-39,-48
-68,-48,19,58,-43,-14,126,0,-9,-39,-39,-48
-68,-48,19,58,-43,-14,126,0,-9,-39,-39,-48
-68,-48,19,58,-43,-14,126,0,-9,-39,-39,-48
-68,-48,19,58,-43,-14,131,9,0,-39,-39,-48
-68,-48,19,58,-43,-14,136,9,0,-39,-39,-48
-68,-48,19,58,-43,-14,141,9,0,-39,-39,-48
-68,-48,19,58,-43,-14,146,9,0,-39,-39,-48
-78,-58,19,68,-48,-19,156,19,0,-39,-48,-48
-78,-58,19,68,-48,-19,156,19,0,-39,-48,-48
-78,-58,19,68,-48,-19,156,19,0,-39,-48,-48
-78,-58,19,68,-48,-19,156,19,0,-39,-48,-48
-68,-58,9,63,-39,-24,156,29,9,-39,-48,-58
-68,-58,9,63,-39,-24,156,29,9,-39,-48,-58
-68,-58,9,63,-39,-24,156,29,9,-39,-48,-58
-68,-58,9,63,-39,-24,156,29,9,-39,-48,-58
-68,-68,0,68,-34,-34,151,39,9,-48,-48,-58
-68,-68,0,68,-34,-34,146,39,9,-48,-48,-58
-68,-68,0,68,-34,-34,141,39,9,-48,-48,-58
-68,-68,0,68,-34,-34,136,39,9,-48,-48,-58
-68,-68,0,68,-34,-34,136,48,9,-39,-48,-58
-68,-68,0,68,-34,-34,136,48,9,-39,-48,-58
-68,-68,0,68,-34,-34,136,48,9,-39,-48,-58
-68,-68,0,68,-34,-34,136,48,9,-39,-48,-58
-58,-78,-19,68,-19,-48,131,58,9,-48,-58,-58
-58,-78,-19,68,-19,-48,126,58,9,-48,-58,-58
-58,-78,-19,68,-19,-48,122,58,9,-48,-58,-58
-58,-78,-19,68,-19,-48,117,58,9,-48,-58,-58
-58,-87,-29,73,-14,-58,112,68,9,-48,-58,-68
-58,-87,-29,73,-14,-58,107,68,9,-48,-58,-68
-58,-87,-29,73,-14,-58,102,68,9,-48,-58,-68
-58,-87,-29,73,-14,-58,97,68,9,-48,-58,-68
-48,-78,-29,63,-9,-53,82,68,9,-48,-68,-78
-48,-78,-29,63,-9,-53,78,68,9,-48,-68,-78
-48,-78,-29,63,-9,-53,73,68,9,-48,-68,-78
-48,-78,-29,63,-9,-53,68,68,9,-48,-68,-78
-39,-78,-39,58,0,-58,58,68,9,-48,-68,-78
-39,-78,-39,58,0,-58,58,68,9,-48,-68,-78
-39,-78,-39,58,0,-58,58,68,9,-48,-68,-78
-39,-78,-39,58,0,-58,58,68,9,-48,-68,-78
-29,-68,-39,48,4,-53,53,73,19,-48,-58,-78
-29,-68,-39,48,4,-53,48,78,19,-48,-58,-78
-29,-68,-39,48,4,-53,43,82,19,-48,-58,-78
-29,-68,-39,48,4,-53,39,87,19,-48,-58,-78
-29,-68,-39,48,4,-53,48,87,24,-43,-58,-78
-29,-68,-39,48,4,-53,48,87,29,-39,-58,-78
-29,-68,-39,48,4,-53,48,87,34,-34,-58,-78
-29,-68,-39,48,4,-53,48,87,39,-29,-58,-78
-29,-63,-34,46,2,-48,58,87,48,-19,-48,-68
-29,-58,-29,43,0,-43,58,87,48,-19,-48,-68
-29,-53,-24,41,-2,-39,58,87,48,-19,-48,-68
-29,-48,-19,39,-4,-34,58,87,48,-19,-48,-68
-29,-48,-19,39,-4,-34,63,87,58,-9,-48,-78
-29,-48,-19,39,-4,-34,68,87,58,-9,-48,-78
-29,-48,-19,39,-4,-34,73,87,58,-9,-48,-78
-29,-48,-19,39,-4,-34,78,87,58,-9,-48,-78
-19,-48,-29,34,4,-39,87,92,58,-19,-48,-78
-19,-48,-29,34,4,-39,87,97,58,-19,-48,-78
-19,-48,-29,34,4,-39,87,102,58,-19,-48,-78
-19,-48,-29,34,4,-39,87,107,58,-19,-48,-78
-14,-58,-43,36,14,-51,97,112,68,-9,-48,-87
-9,-58,-48,34,19,-53,97,117,68,-9,-48,-87
-4,-58,-53,31,24,-56,97,122,68,-9,-48,-87
0,-58,-58,29,29,-58,97,126,68,-9,-48,-87
0,-48,-48,24,24,-48,102,131,78,0,-48,-87
0,-48,-48,24,24,-48,107,136,78,0,-48,-87
0,-48,-48,24,24,-48,112,141,78,0,-48,-87
0,-48,-48,24,24,-48,117,146,78,0,-48,-87
-4,-48,-43,26,19,-46,131,156,92,14,-48,-87
-9,-48,-39,29,14,-43,136,156,97,19,-48,-87
-14,-48,-34,31,9,-41,141,156,102,24,-48,-87
-19,-48,-29,34,4,-39,146,156,107,29,-48,-87
-29,-39,-9,34,-9,-24,161,161,112,39,-43,-87
-29,-39,-9,34,-9,-24,165,165,117,39,-39,-87
-29,-39,-9,34,-9,-24,170,170,122,39,-34,-87
-29,-39,-9,34,-9,-24,175,175,126,39,-29,-87
-24,-29,-4,26,-9,-17,185,190,131,48,-29,-78
-19,-29,-9,24,-4,-19,185,195,136,48,-29,-78
-14,-29,-14,21,0,-21,185,200,141,48,-29,-78
-9,-29,-19,19,4,-24,185,204,146,48,-29,-78
0,-19,-19,9,9,-19,185,209,146,48,-19,-78
0,-19,-19,9,9,-19,185,214,146,48,-19,-78
0,-19,-19,9,9,-19,185,219,146,48,-19,-78
0,-19,-19,9,9,-19,185,224,146,48,-19,-78
4,-19,-24,7,14,-21,195,239,156,58,-19,-78
9,-19,-29,4,19,-24,195,244,156,58,-19,-78
14,-19,-34,2,24,-26,195,248,156,58,-19,-78
19,-19,-39,0,29,-29,195,253,156,58,-19,-78
24,-14,-39,-4,31,-26,204,268,156,58,-9,-68
29,-9,-39,-9,34,-24,204,273,156,58,-9,-68
34,-4,-39,-14,36,-21,204,278,156,58,-9,-68
39,0,-39,-19,39,-19,204,283,156,58,-9,-68
48,-9,-58,-19,53,-34,214,287,156,58,-9,-68
48,-9,-58,-19,53,-34,214,292,156,58,-9,-68
48,-9,-58,-19,53,-34,214,297,156,58,-9,-68
48,-9,-58,-19,53,-34,214,302,156,58,-9,-68
63,0,-63,-31,63,-31,214,317,156,58,0,-68
68,0,-68,-34,68,-34,214,322,156,58,0,-68
73,0,-73,-36,73,-36,214,326,156,58,0,-68
78,0,-78,-39,78,-39,214,331,156,58,0,-68
92,0,-92,-46,92,-46,214,346,146,58,0,-68
97,0,-97,-48,97,-48,214,351,146,58,0,-68
102,0,-102,-51,102,-51,214,356,146,58,0,-68
107,0,-107,-53,107,-53,214,361,146,58,0,-68
117,9,-107,-63,112,-48,209,375,141,58,0,-68
126,9,-117,-68,122,-53,204,380,136,58,0,-68
136,9,-126,-73,131,-58,200,385,131,58,0,-68
146,9,-136,-78,141,-63,195,390,126,58,0,-68
151,0,-151,-75,151,-75,190,395,122,48,-9,-68
156,0,-156,-78,156,-78,185,400,117,48,-9,-68
161,0,-161,-80,161,-80,180,405,112,48,-9,-68
165,0,-165,-82,165,-82,175,409,107,48,-9,-68
175,-9,-185,-82,180,-97,161,419,92,48,0,-68
185,-9,-195,-87,190,-102,156,419,87,48,0,-68
195,-9,-204,-92,200,-107,151,419,82,48,0,-68
204,-9,-214,-97,209,-112,146,419,78,48,0,-68
219,0,-219,-109,219,-109,122,409,73,39,0,-58
224,0,-224,-112,224,-112,107,409,68,39,0,-58
229,0,-229,-114,229,-114,92,409,63,39,0,-58
234,0,-234,-117,234,-117,78,409,58,39,0,-58
239,14,-224,-126,231,-104,53,405,48,43,4,-53
244,19,-224,-131,234,-102,29,400,48,48,9,-48
248,24,-224,-136,236,-100,4,395,48,53,14,-43
253,29,-224,-141,239,-97,-19,390,48,58,19,-39
258,43,-214,-151,236,-85,-39,380,58,68,24,-24
263,48,-214,-156,239,-82,-58,370,58,68,29,-19
268,53,-214,-161,241,-80,-78,361,58,68,34,-14
273,58,-214,-165,244,-78,-97,351,58,68,39,-9
268,63,-204,-165,236,-70,-107,331,68,73,43,-4
263,68,-195,-165,229,-63,-117,322,68,78,48,0
258,73,-185,-165,222,-56,-126,312,68,82,53,4
253,78,-175,-165,214,-48,-136,302,68,87,58,9
239,92,-146,-165,192,-26,-136,287,78,97,68,19
234,97,-136,-165,185,-19,-136,273,78,97,68,19
229,102,-126,-165,178,-12,-136,258,78,97,68,19
224,107,-117,-165,170,-4,-136,244,78,97,68,19
214,117,-97,-165,156,9,-131,219,87,107,78,24
204,117,-87,-161,146,14,-126,204,87,107,78,29
195,117,-78,-156,136,19,-122,190,87,107,78,34
185,117,-68,-151,126,24,-117,175,87,107,78,39
175,126,-48,-151,112,39,-117,165,78,107,68,39
165,126,-39,-146,102,43,-117,156,78,107,68,39
156,126,-29,-141,92,48,-117,146,78,107,68,39
146,126,-19,-136,82,53,-117,136,78,107,68,39
136,117,-19,-126,78,48,-112,126,68,97,68,39
126,117,-9,-122,68,53,-107,117,68,97,68,39
117,117,0,-117,58,58,-102,107,68,97,68,39
107,117,9,-112,48,63,-97,97,68,97,68,39
102,117,14,-109,43,65,-87,82,68,87,68,39
97,117,19,-107,39,68,-87,78,68,87,68,39
92,117,24,-104,34,70,-87,73,68,87,68,39
87,117,29,-102,29,73,-87,68,68,87,68,39
78,107,29,-92,24,68,-82,53,68,87,58,39
68,107,39,-87,14,73,-78,48,68,87,58,39
58,107,48,-82,4,78,-73,43,68,87,58,39
48,107,58,-78,-4,82,-68,39,68,87,58,39
43,102,58,-73,-7,80,-63,34,58,73,48,29
39,97,58,-68,-9,78,-58,29,58,68,48,29
34,92,58,-63,-12,75,-53,24,58,63,48,29
29,87,58,-58,-14,73,-48,19,58,58,48,29
14,82,68,-48,-26,75,-43,4,48,48,43,19
9,78,68,-43,-29,73,-39,0,48,48,39,19
4,73,68,-39,-31,70,-34,-4,48,48,34,19
0,68,68,-34,-34,68,-29,-9,48,48,29,19
-14,63,78,-24,-46,70,-24,-14,39,39,29,19
-19,58,78,-19,-48,68,-19,-19,39,39,29,19
-24,53,78,-14,-51,65,-14,-24,39,39,29,19
-29,48,78,-9,-53,63,-9,-29,39,39,29,19
-39,39,78,0,-58,58,0,-39,29,29,19,19
-39,39,78,0,-58,58,0,-39,29,29,19,19
-39,39,78,0,-58,58,0,-39,29,29,19,19
-39,39,78,0,-58,58,0,-39,29,29,19,19
-43,39,82,2,-63,61,9,-48,29,29,29,19
-48,39,87,4,-68,63,9,-48,29,29,29,19
-53,39,92,7,-73,65,9,-48,29,29,29,19
-58,39,97,9,-78,68,9,-48,29,29,29,19
-58,29,87,14,-73,58,14,-48,29,29,19,9
-58,29,87,14,-73,58,19,-48,29,29,19,9
-58,29,87,14,-73,58,24,-48,29,29,19,9
-58,29,87,14,-73,58,29,-48,29,29,19,9
-68,24,92,21,-80,58,34,-48,19,19,9,0
-68,19,87,24,-78,53,39,-48,19,19,9,0
-68,14,82,26,-75,48,43,-48,19,19,9,0
-68,9,78,29,-73,43,48,-48,19,19,9,0
-68,-4,63,36,-65,29,53,-48,14,9,0,-9
-68,-9,58,39,-63,24,58,-48,9,9,0,-9
-68,-14,53,41,-61,19,63,-48,4,9,0,-9
-68,-19,48,43,-58,14,68,-48,0,9,0,-9
-68,-34,34,51,-51,0,58,-48,-4,-4,-4,-14
-68,-39,29,53,-48,-4,58,-48,-9,-9,-9,-19
-68,-43,24,56,-46,-9,58,-48,-14,-14,-14,-24
-68,-48,19,58,-43,-14,58,-48,-19,-19,-19,-29
-58,-48,9,53,-34,-19,43,-48,-29,-19,-29,-39
-58,-48,9,53,-34,-19,39,-48,-29,-19,-29,-39
-58,-48,9,53,-34,-19,34,-48,-29,-19,-29,-39
-58,-48,9,53,-34,-19,29,-48,-29,-19,-29,-39
-48,-39,9,43,-29,-14,19,-48,-29,-19,-29,-39
-48,-39,9,43,-29,-14,9,-48,-29,-19,-29,-39
-48,-39,9,43,-29,-14,0,-48,-29,-19,-29,-39
-48,-39,9,43,-29,-14,-9,-48,-29,-19,-29,-39
-48,-29,19,39,-34,-4,-14,-48,-19,-9,-19,-29
-48,-29,19,39,-34,-4,-19,-48,-19,-9,-19,-29
-48,-29,19,39,-34,-4,-24,-48,-19,-9,-19,-29
-48,-29,19,39,-34,-4,-29,-48,-19,-9,-19,-29
-48,-19,29,34,-39,4,-39,-48,-9,0,-19,-19
-48,-19,29,34,-39,4,-39,-48,-9,0,-19,-19
-48,-19,29,34,-39,4,-39,-48,-9,0,-19,-19
-48,-19,29,34,-39,4,-39,-48,-9,0,-19,-19
-39,-14,24,26,-31,4,-39,-48,0,0,-9,-19
-39,-9,29,24,-34,9,-39,-48,0,0,-9,-19
-39,-4,34,21,-36,14,-39,-48,0,0,-9,-19
-39,0,39,19,-39,19,-39,-48,0,0,-9,-19
-34,0,34,17,-34,17,-39,-39,0,9,0,-9
-29,0,29,14,-29,14,-39,-39,0,9,0,-9
-24,0,24,12,-24,12,-39,-39,0,9,0,-9
-19,0,19,9,-19,9,-39,-39,0,9,0,-9
-9,4,14,2,-12,9,-39,-29,0,9,0,-19
-9,9,19,0,-14,14,-39,-29,0,9,0,-19
-9,14,24,-2,-17,19,-39,-29,0,9,0,-19
-9,19,29,-4,-19,24,-39,-29,0,9,0,-19
0,19,19,-9,-9,19,-29,-19,0,9,0,-9
0,19,19,-9,-9,19,-29,-19,0,9,0,-9
0,19,19,-9,-9,19,-29,-19,0,9,0,-9
0,19,19,-9,-9,19,-29,-19,0,9,0,-9
9,19,9,-14,0,14,-39,-19,0,0,0,-9
9,19,9,-14,0,14,-39,-19,0,0,0,-9
9,19,9,-14,0,14,-39,-19,0,0,0,-9
9,19,9,-14,0,14,-39,-19,0,0,0,-9
9,19,9,-14,0,14,-29,-29,0,0,0,-9
9,19,9,-14,0,14,-29,-29,0,0,0,-9
9,19,9,-14,0,14,-29,-29,0,0,0,-9
9,19,9,-14,0,14,-29,-29,0,0,0,-9
0,9,9,-4,-4,9,-24,-29,0,0,-9,-9
0,9,9,-4,-4,9,-19,-29,0,0,-9,-9
0,9,9,-4,-4,9,-14,-29,0,0,-9,-9
0,9,9,-4,-4,9,-9,-29,0,0,-9,-9
-14,0,14,7,-14,7,-4,-29,0,0,-19,-9
-19,0,19,9,-19,9,0,-29,0,0,-19,-9
-24,0,24,12,-24,12,4,-29,0,0,-19,-9
-29,0,29,14,-29,14,9,-29,0,0,-19,-9
-39,-4,34,21,-36,14,14,-29,-9,0,-19,-19
-39,-9,29,24,-34,9,19,-29,-9,0,-19,-19
-39,-14,24,26,-31,4,24,-29,-9,0,-19,-19
-39,-19,19,29,-29,0,29,-29,-9,0,-19,-19
-48,-29,19,39,-34,-4,39,-29,-9,-9,-19,-19
-48,-29,19,39,-34,-4,39,-29,-9,-9,-19,-19
-48,-29,19,39,-34,-4,39,-29,-9,-9,-19,-19
-48,-29,19,39,-34,-4,39,-29,-9,-9,-19,-19
-48,-29,19,39,-34,-4,48,-29,-19,-19,-19,-19
-48,-29,19,39,-34,-4,48,-29,-19,-19,-19,-19
-48,-29,19,39,-34,-4,48,-29,-19,-19,-19,-19
-48,-29,19,39,-34,-4,48,-29,-19,-19,-19,-19
-48,-29,19,39,-34,-4,48,-29,-19,-19,-19,-19
-48,-29,19,39,-34,-4,48,-29,-19,-19,-19,-19
-48,-29,19,39,-34,-4,48,-29,-19,-19,-19,-19
-48,-29,19,39,-34,-4,48,-29,-19,-19,-19,-19
-58,-29,29,43,-43,0,58,-39,-19,-19,-19,-9
-58,-29,29,43,-43,0,58,-39,-19,-19,-19,-9
-58,-29,29,43,-43,0,58,-39,-19,-19,-19,-9
-58,-29,29,43,-43,0,58,-39,-19,-19,-19,-9
-68,-29,39,48,-53,4,68,-39,-29,-19,-29,-19
-68,-29,39,48,-53,4,68,-39,-29,-19,-29,-19
-68,-29,39,48,-53,4,68,-39,-29,-19,-29,-19
-68,-29,39,48,-53,4,68,-39,-29,-19,-29,-19
-78,-43,34,61,-56,-4,73,-48,-39,-24,-39,-29
-78,-48,29,63,-53,-9,78,-48,-39,-29,-39,-29
-78,-53,24,65,-51,-14,82,-48,-39,-34,-39,-29
-78,-58,19,68,-48,-19,87,-48,-39,-39,-39,-29
-78,-73,4,75,-41,-34,97,-39,-43,-43,-48,-34
-78,-78,0,78,-39,-39,97,-39,-48,-48,-48,-39
-78,-82,-4,80,-36,-43,97,-39,-53,-53,-48,-43
-78,-87,-9,82,-34,-48,97,-39,-58,-58,-48,-48
-68,-97,-29,82,-19,-63,78,-48,-58,-58,-58,-48
-68,-97,-29,82,-19,-63,68,-48,-58,-58,-58,-48
-68,-97,-29,82,-19,-63,58,-48,-58,-58,-58,-48
-68,-97,-29,82,-19,-63,48,-48,-58,-58,-58,-48
-58,-92,-34,75,-12,-63,34,-48,-58,-58,-58,-48
-58,-87,-29,73,-14,-58,19,-48,-58,-58,-58,-48
-58,-82,-24,70,-17,-53,4,-48,-58,-58,-58,-48
-58,-78,-19,68,-19,-48,-9,-48,-58,-58,-58,-48
-53,-68,-14,61,-19,-41,-24,-58,-48,-48,-53,-43
-48,-58,-9,53,-19,-34,-39,-58,-48,-48,-48,-39
-43,-48,-4,46,-19,-26,-53,-58,-48,-48,-43,-34
-39,-39,0,39,-19,-19,-68,-58,-48,-48,-39,-29
-39,-29,9,34,-24,-9,-68,-58,-39,-39,-29,-19
-39,-29,9,34,-24,-9,-68,-58,-39,-39,-29,-19
-39,-29,9,34,-24,-9,-68,-58,-39,-39,-29,-19
-39,-29,9,34,-24,-9,-68,-58,-39,-39,-29,-19
-29,-19,9,24,-19,-4,-58,-48,-29,-29,-29,-19
-29,-19,9,24,-19,-4,-58,-48,-29,-29,-29,-19
-29,-19,9,24,-19,-4,-58,-48,-29,-29,-29,-19
-29,-19,9,24,-19,-4,-58,-48,-29,-29,-29,-19
-19,-19,0,19,-9,-9,-58,-48,-39,-39,-29,-19
-19,-19,0,19,-9,-9,-58,-48,-39,-39,-29,-19
-19,-19,0,19,-9,-9,-58,-48,-39,-39,-29,-19
-19,-19,0,19,-9,-9,-58,-48,-39,-39,-29,-19
-19,-19,0,19,-9,-9,-58,-39,-39,-48,-29,-19
-19,-19,0,19,-9,-9,-58,-39,-39,-48,-29,-19
-19,-19,0,19,-9,-9,-58,-39,-39,-48,-29,-19
-19,-19,0,19,-9,-9,-58,-39,-39,-48,-29,-19
-9,-29,-19,19,4,-24,-58,-39,-48,-48,-39,-19
-9,-29,-19,19,4,-24,-58,-39,-48,-48,-39,-19
-9,-29,-19,19,4,-24,-58,-39,-48,-48,-39,-19
-9,-29,-19,19,4,-24,-58,-39,-48,-48,-39,-19
-9,-39,-29,24,9,-34,-58,-39,-48,-58,-39,-19
-9,-39,-29,24,9,-34,-58,-39,-48,-58,-39,-19
-9,-39,-29,24,9,-34,-58,-39,-48,-58,-39,-19
-9,-39,-29,24,9,-34,-58,-39,-48,-58,-39,-19
-14,-29,-14,21,0,-21,-48,-48,-48,-48,-39,-19
-19,-29,-9,24,-4,-19,-48,-48,-48,-48,-39,-19
-24,-29,-4,26,-9,-17,-48,-48,-48,-48,-39,-19
-29,-29,0,29,-14,-14,-48,-48,-48,-48,-39,-19
-34,-29,4,31,-19,-12,-43,-58,-48,-48,-29,-19
-39,-29,9,34,-24,-9,-39,-58,-48,-48,-29,-19
-43,-29,14,36,-29,-7,-34,-58,-48,-48,-29,-19
-48,-29,19,39,-34,-4,-29,-58,-48,-48,-29,-19
-58,-29,29,43,-43,0,-24,-58,-39,-39,-29,-19
-58,-29,29,43,-43,0,-19,-58,-39,-39,-29,-19
-58,-29,29,43,-43,0,-14,-58,-39,-39,-29,-19
-58,-29,29,43,-43,0,-9,-58,-39,-39,-29,-19
-68,-34,34,51,-51,0,-4,-58,-39,-39,-39,-19
-68,-39,29,53,-48,-4,0,-58,-39,-39,-39,-19
-68,-43,24,56,-46,-9,4,-58,-39,-39,-39,-19
-68,-48,19,58,-43,-14,9,-58,-39,-39,-39,-19
-68,-58,9,63,-39,-24,14,-58,-48,-48,-39,-19
-68,-58,9,63,-39,-24,19,-58,-48,-48,-39,-19
-68,-58,9,63,-39,-24,24,-58,-48,-48,-39,-19
-68,-58,9,63,-39,-24,29,-58,-48,-48,-39,-19
-78,-58,19,68,-48,-19,48,-58,-39,-48,-39,-29
-78,-58,19,68,-48,-19,48,-58,-39,-48,-39,-29
-78,-68,9,73,-43,-29,58,-58,-48,-48,-39,-29
-78,-68,9,73,-43,-29,58,-58,-48,-48,-39,-29
-78,-68,9,73,-43,-29,58,-58,-48,-48,-39,-29
-78,-68,9,73,-43,-29,58,-58,-48,-48,-39,-29
-78,-68,9,73,-43,-29,58,-58,-48,-48,-39,-29
-78,-68,9,73,-43,-29,58,-58,-48,-48,-39,-29
-78,-68,9,73,-43,-29,58,-58,-48,-48,-39,-29
-78,-68,9,73,-43,-29,58,-58,-48,-48,-39,-29
-78,-78,0,78,-39,-39,68,-58,-58,-58,-48,-29
-78,-78,0,78,-39,-39,68,-58,-58,-58,-48,-29
-78,-78,0,78,-39,-39,68,-58,-58,-58,-48,-29
-78,-78,0,78,-39,-39,68,-58,-58,-58,-48,-29
-78,-87,-9,82,-34,-48,58,-58,-58,-58,-48,-29
-78,-87,-9,82,-34,-48,58,-58,-58,-58,-48,-29
-78,-87,-9,82,-34,-48,58,-58,-58,-58,-48,-29
-78,-87,-9,82,-34,-48,58,-58,-58,-58,-48,-29
-78,-78,0,78,-39,-39,43,-58,-68,-68,-58,-39
-78,-78,0,78,-39,-39,39,-58,-68,-68,-58,-39
-78,-78,0,78,-39,-39,34,-58,-68,-68,-58,-39
-78,-78,0,78,-39,-39,29,-58,-68,-68,-58,-39
-68,-78,-9,73,-29,-43,19,-58,-68,-68,-58,-39
-68,-78,-9,73,-29,-43,9,-58,-68,-68,-58,-39
-68,-78,-9,73,-29,-43,0,-58,-68,-68,-58,-39
-68,-78,-9,73,-29,-43,-9,-58,-68,-68,-58,-39
-68,-78,-9,73,-29,-43,-24,-68,-68,-68,-48,-29
-68,-78,-9,73,-29,-43,-29,-68,-68,-68,-48,-29
-68,-78,-9,73,-29,-43,-34,-68,-68,-68,-48,-29
-68,-78,-9,73,-29,-43,-39,-68,-68,-68,-48,-29
-68,-73,-4,70,-31,-39,-48,-68,-58,-58,-39,-29
-68,-68,0,68,-34,-34,-48,-68,-58,-58,-39,-29
-68,-63,4,65,-36,-29,-48,-68,-58,-58,-39,-29
-68,-58,9,63,-39,-24,-48,-68,-58,-58,-39,-29
-68,-48,19,58,-43,-14,-39,-78,-48,-48,-39,-19
-68,-48,19,58,-43,-14,-39,-78,-48,-48,-39,-19
-68,-48,19,58,-43,-14,-39,-78,-48,-48,-39,-19
-68,-48,19,58,-43,-14,-39,-78,-48,-48,-39,-19
-68,-48,19,58,-43,-14,-29,-78,-48,-48,-39,-19
-68,-48,19,58,-43,-14,-29,-78,-48,-48,-39,-19
-68,-48,19,58,-43,-14,-29,-78,-48,-48,-39,-19
-68,-48,19,58,-43,-14,-29,-78,-48,-48,-39,-19
-58,-48,9,53,-34,-19,-29,-68,-48,-48,-48,-29
-58,-48,9,53,-34,-19,-29,-68,-48,-48,-48,-29
-58,-48,9,53,-34,-19,-29,-68,-48,-48,-48,-29
-58,-48,9,53,-34,-19,-29,-68,-48,-48,-48,-29
-48,-48,0,48,-24,-24,-19,-68,-58,-48,-48,-29
-48,-48,0,48,-24,-24,-19,-68,-58,-48,-48,-29
-48,-48,0,48,-24,-24,-19,-68,-58,-48,-48,-29
-48,-48,0,48,-24,-24,-19,-68,-58,-48,-48,-29
-58,-58,0,58,-29,-29,-19,-68,-58,-58,-48,-29
-58,-58,0,58,-29,-29,-19,-68,-58,-58,-48,-29
-58,-58,0,58,-29,-29,-19,-68,-58,-58,-48,-29
-58,-58,0,58,-29,-29,-19,-68,-58,-58,-48,-29
-58,-68,-9,63,-24,-39,-14,-68,-68,-58,-48,-29
-58,-68,-9,63,-24,-39,-9,-68,-68,-58,-48,-29
-58,-68,-9,63,-24,-39,-9,-73,-68,-63,-53,-29
-58,-73,-14,65,-21,-43,-9,-73,-73,-63,-53,-29
-68,-63,4,65,-36,-29,-4,-73,-63,-63,-53,-29
-68,-63,4,65,-36,-29,0,-73,-63,-63,-53,-29
-68,-68,0,68,-34,-34,4,-73,-63,-68,-53,-29
-68,-68,0,68,-34,-34,14,-73,-63,-68,-53,-29
-68,-68,0,68,-34,-34,24,-73,-53,-58,-43,-29
-68,-68,0,68,-34,-34,29,-73,-53,-58,-43,-29
-73,-68,4,70,-39,-31,34,-73,-53,-58,-43,-29
-73,-68,4,70,-39,-31,39,-78,-58,-58,-48,-29
-82,-58,24,70,-53,-17,43,-68,-53,-48,-48,-29
-82,-58,24,70,-53,-17,48,-68,-48,-48,-43,-29
-82,-58,24,70,-53,-17,48,-68,-43,-48,-43,-29
-87,-58,29,73,-58,-14,48,-68,-39,-48,-43,-29
-78,-48,29,63,-53,-9,48,-68,-39,-48,-34,-24
-78,-48,29,63,-53,-9,53,-68,-39,-48,-34,-24
-78,-48,29,63,-53,-9,58,-63,-39,-48,-34,-24
-78,-48,29,63,-53,-9,63,-63,-39,-48,-39,-24
-78,-39,39,58,-58,0,68,-63,-34,-39,-39,-24
-78,-39,39,58,-58,0,68,-63,-34,-39,-39,-24
-78,-39,39,58,-58,0,73,-68,-34,-39,-39,-24
-82,-39,43,61,-63,2,73,-68,-34,-39,-39,-24
-73,-39,34,56,-53,-2,82,-58,-24,-39,-29,-14
-73,-39,34,56,-53,-2,87,-58,-24,-39,-24,-14
-73,-43,29,58,-51,-7,87,-58,-19,-39,-24,-14
-73,-43,29,58,-51,-7,92,-58,-19,-39,-24,-14
-73,-43,29,58,-51,-7,92,-58,-19,-29,-24,-14
-73,-43,29,58,-51,-7,97,-58,-19,-29,-29,-9
-73,-43,29,58,-51,-7,97,-58,-19,-29,-29,-9
-68,-43,24,56,-46,-9,97,-58,-19,-29,-29,-9
-68,-34,34,51,-51,0,82,-48,-19,-29,-29,0
-68,-34,34,51,-51,0,78,-43,-19,-29,-29,0
-68,-34,34,51,-51,0,73,-43,-19,-29,-24,0
-68,-34,34,51,-51,0,68,-43,-19,-29,-24,0
-58,-43,14,51,-36,-14,53,-43,-29,-29,-34,-9
-58,-39,19,48,-39,-9,43,-43,-29,-29,-34,-9
-58,-39,19,48,-39,-9,34,-43,-29,-29,-34,-9
-58,-39,19,48,-39,-9,19,-43,-29,-29,-34,-9
-48,-39,9,43,-29,-14,4,-53,-29,-39,-34,-19
-48,-39,9,43,-29,-14,-4,-53,-34,-39,-34,-19
-48,-39,9,43,-29,-14,-19,-53,-34,-39,-34,-19
-48,-39,9,43,-29,-14,-34,-53,-34,-39,-34,-19
-48,-39,9,43,-29,-14,-39,-53,-34,-39,-34,-19
-48,-39,9,43,-29,-14,-39,-53,-34,-39,-39,-19
-48,-39,9,43,-29,-14,-39,-53,-34,-39,-39,-19
-48,-39,9,43,-29,-14,-39,-58,-29,-39,-39,-19
-53,-48,4,51,-29,-21,-29,-68,-39,-48,-39,-19
-58,-48,9,53,-34,-19,-34,-68,-39,-48,-39,-19
-63,-48,14,56,-39,-17,-39,-68,-39,-48,-39,-19
-68,-48,19,58,-43,-14,-43,-68,-39,-48,-39,-19
-68,-53,14,61,-41,-19,-29,-78,-43,-48,-29,-19
-73,-53,19,63,-46,-17,-29,-78,-43,-48,-29,-19
-78,-53,24,65,-51,-14,-24,-78,-43,-48,-24,-14
-82,-53,29,68,-56,-12,-24,-78,-43,-48,-24,-14
-82,-53,29,68,-56,-12,-14,-78,-43,-48,-24,-14
-82,-53,29,68,-56,-12,-9,-78,-43,-48,-24,-14
-82,-53,29,68,-56,-12,-4,-82,-48,-48,-24,-14
-82,-53,29,68,-56,-12,0,-82,-48,-48,-24,-14
-73,-53,19,63,-46,-17,9,-73,-58,-48,-34,-14
-73,-53,19,63,-46,-17,9,-73,-58,-48,-34,-14
-73,-53,19,63,-46,-17,9,-73,-58,-53,-34,-14
-73,-63,9,68,-41,-26,9,-73,-58,-53,-34,-14
-63,-73,-9,68,-26,-41,14,-73,-63,-63,-43,-24
-68,-73,-4,70,-31,-39,14,-73,-63,-63,-43,-24
-68,-73,-4,70,-31,-39,14,-73,-63,-63,-43,-29
-63,-68,-4,65,-29,-36,14,-73,-63,-63,-48,-29
-73,-73,0,73,-36,-36,14,-73,-73,-73,-58,-34
-73,-78,-4,75,-34,-41,14,-73,-68,-73,-58,-39
-68,-82,-14,75,-26,-48,14,-73,-68,-73,-58,-39
-68,-87,-19,78,-24,-53,14,-73,-68,-73,-58,-43
-68,-97,-29,82,-19,-63,24,-73,-78,-82,-68,-58
-68,-102,-34,85,-17,-68,24,-73,-78,-82,-68,-58
-68,-102,-34,85,-17,-68,24,-73,-82,-87,-73,-58
-73,-102,-29,87,-21,-65,24,-73,-82,-87,-73,-58
-82,-102,-19,92,-31,-61,29,-73,-73,-87,-73,-53
-82,-102,-19,92,-31,-61,39,-73,-73,-87,-73,-53
-82,-107,-24,95,-29,-65,43,-73,-78,-87,-73,-48
-82,-107,-24,95,-29,-65,48,-73,-78,-87,-73,-53
-87,-97,-9,92,-39,-53,58,-73,-87,-87,-68,-43
-92,-97,-4,95,-43,-51,63,-73,-87,-87,-68,-43
-92,-97,-4,95,-43,-51,63,-73,-82,-87,-68,-43
-92,-97,-4,95,-43,-51,68,-73,-78,-87,-68,-39
-92,-97,-4,95,-43,-51,82,-53,-68,-78,-68,-39
-92,-97,-4,95,-43,-51,87,-53,-58,-78,-58,-48
-92,-87,4,90,-48,-41,102,-39,-34,-58,-63,-48
-92,-73,19,82,-56,-26,117,-24,14,-29,-48,-43
-92,-34,58,63,-75,12,126,-14,68,14,-29,-39
-92,-4,87,48,-90,41,141,4,136,58,0,-39
-97,29,126,34,-112,78,136,4,214,107,19,-29
-112,92,204,9,-158,148,131,-43,292,175,63,9
-126,180,307,-26,-217,244,87,-117,370,273,136,53
-146,258,405,-56,-275,331,29,-229,419,341,204,112
-151,322,473,-85,-312,397,-63,-356,419,395,263,165
-151,414,566,-131,-358,490,-180,-483,409,458,336,239
-131,492,624,-180,-378,558,-297,-575,419,536,409,302
-102,561,663,-229,-383,612,-405,-639,424,585,463,351
-73,590,663,-258,-368,627,-488,-692,380,600,488,385
-63,605,668,-270,-366,636,-566,-761,312,590,507,414
-58,629,688,-285,-373,658,-629,-829,268,570,517,458
-24,663,688,-319,-356,675,-692,-863,239,566,531,483
34,668,634,-351,-300,651,-756,-844,185,531,522,502
97,634,536,-366,-219,585,-795,-800,87,453,478,492
156,566,409,-361,-126,488,-854,-790,-58,336,424,483
229,531,302,-380,-36,417,-936,-839,-219,224,380,483
292,492,200,-392,46,346,-1039,-902,-380,117,351,507
366,434,68,-400,148,251,-1107,-927,-536,0,322,517
414,336,-78,-375,246,129,-1107,-883,-649,-131,268,507
439,204,-234,-322,336,-14,-1054,-780,-732,-258,180,458
419,53,-366,-236,392,-156,-936,-658,-839,-409,73,395
390,-102,-492,-143,441,-297,-795,-512,-936,-531,-43,297
331,-224,-556,-53,444,-390,-644,-405,-966,-595,-131,190
244,-297,-541,26,392,-419,-497,-336,-922,-605,-190,122
146,-307,-453,80,300,-380,-380,-297,-805,-546,-195,68
82,-297,-380,107,231,-339,-283,-258,-658,-468,-175,39
48,-273,-322,112,185,-297,-219,-190,-531,-380,-165,0
34,-273,-307,119,170,-290,-141,-107,-429,-326,-165,-53
29,-263,-292,117,161,-278,-73,-29,-326,-263,-165,-92
19,-229,-248,104,134,-239,-34,14,-248,-200,-146,-97
4,-200,-204,97,104,-202,-4,34,-180,-151,-122,-87
-9,-175,-165,92,78,-170,4,34,-146,-122,-97,-68
-24,-141,-117,82,46,-129,14,19,-136,-102,-78,-58
-34,-122,-87,78,26,-104,9,0,-112,-92,-58,-34
-34,-112,-78,73,21,-95,4,-14,-92,-87,-48,-29
-48,-97,-48,73,0,-73,4,-24,-87,-82,-48,-19
-48,-87,-39,68,-4,-63,-4,-34,-87,-73,-48,-14
-48,-78,-29,63,-9,-53,0,-29,-73,-58,-48,-14
-43,-73,-29,58,-7,-51,0,-29,-63,-58,-48,-14
-43,-68,-24,56,-9,-46,0,-29,-53,-48,-48,-14
-53,-78,-24,65,-14,-51,-4,-24,-63,-53,-43,-24
-48,-78,-29,63,-9,-53,-4,-24,-63,-53,-43,-24
-48,-73,-24,61,-12,-48,-4,-24,-58,-58,-43,-24
-43,-73,-29,58,-7,-51,-4,-29,-58,-63,-43,-24
-43,-73,-29,58,-7,-51,9,-29,-48,-63,-48,-34
-43,-73,-29,58,-7,-51,9,-29,-48,-63,-53,-39
-43,-73,-29,58,-7,-51,14,-29,-43,-63,-53,-43
-43,-78,-34,61,-4,-56,14,-24,-43,-63,-53,-43
-43,-68,-24,56,-9,-46,19,-34,-43,-48,-43,-43
-43,-63,-19,53,-12,-41,24,-34,-39,-48,-39,-43
-43,-63,-19,53,-12,-41,24,-34,-39,-48,-39,-48
-43,-63,-19,53,-12,-41,24,-34,-34,-48,-39,-48
-48,-53,-4,51,-21,-29,39,-39,-24,-48,-48,-48
-53,-53,0,53,-26,-26,39,-39,-24,-48,-48,-48
-58,-58,0,58,-29,-29,39,-39,-24,-48,-53,-48
-63,-58,4,61,-34,-26,34,-39,-24,-48,-53,-48
-73,-48,24,61,-48,-12,39,-39,-19,-34,-39,-43
-73,-43,29,58,-51,-7,43,-39,-19,-34,-39,-39
-68,-43,24,56,-46,-9,43,-39,-14,-29,-34,-34
-68,-43,24,56,-46,-9,43,-39,-14,-29,-34,-29
-73,-39,34,56,-53,-2,43,-39,-9,-29,-34,-14
-73,-39,34,56,-53,-2,43,-39,0,-29,-34,-14
-68,-34,34,51,-51,0,48,-34,4,-29,-34,-14
-68,-34,34,51,-51,0,53,-34,14,-24,-34,-14
-78,-34,43,56,-61,4,58,-24,14,-9,-19,0
-78,-29,48,53,-63,9,63,-24,24,-4,-9,9
-73,-29,43,51,-58,7,63,-19,24,0,0,14
-73,-29,43,51,-58,7,68,-19,29,4,4,19
-63,-29,34,46,-48,2,73,-4,29,0,4,19
-63,-29,34,46,-48,2,78,0,29,0,0,19
-63,-39,24,51,-43,-7,82,4,34,0,0,19
-58,-29,29,43,-43,0,87,4,34,0,0,24
-58,-29,29,43,-43,0,102,14,34,0,0,14
-58,-29,29,43,-43,0,107,19,34,9,4,14
-58,-24,34,41,-46,4,107,19,43,14,9,14
-53,-24,29,39,-41,2,112,19,43,14,9,14
-39,-24,14,31,-26,-4,102,29,39,14,9,0
-39,-24,14,31,-26,-4,92,29,39,14,4,0
-39,-24,14,31,-26,-4,92,29,39,9,0,0
-39,-24,14,31,-26,-4,92,29,39,4,0,0
-34,-9,24,21,-29,7,102,34,39,4,-9,-9
-29,-9,19,19,-24,4,102,39,39,14,-9,-9
-24,-9,14,17,-19,2,107,43,39,14,-4,-9
-19,-9,9,14,-14,0,107,53,39,9,-4,-9
-9,-14,-4,12,-2,-9,102,63,29,0,-4,-14
-9,-14,-4,12,-2,-9,97,73,29,-4,-9,-19
-4,-19,-14,12,4,-17,92,73,29,-4,-14,-24
-4,-24,-19,14,7,-21,87,73,39,-4,-24,-29
0,-24,-24,12,12,-24,78,78,34,-9,-34,-34
4,-24,-29,9,17,-26,78,87,39,0,-29,-39
9,-24,-34,7,21,-29,78,92,39,4,-29,-43
14,-24,-39,4,26,-31,78,102,39,4,-24,-43
24,-29,-53,2,39,-41,73,112,39,0,-29,-53
24,-29,-53,2,39,-41,68,112,39,-4,-29,-53
24,-29,-53,2,39,-41,63,117,43,-9,-29,-53
29,-24,-53,-2,41,-39,53,122,43,-14,-29,-53
19,-34,-53,7,36,-43,43,122,43,-14,-39,-53
24,-34,-58,4,41,-46,43,126,48,-4,-39,-53
29,-29,-58,0,43,-43,43,126,48,0,-34,-53
29,-24,-53,-2,41,-39,48,136,58,4,-34,-53
34,-29,-63,-2,48,-46,43,141,48,0,-29,-43
34,-34,-68,0,51,-51,39,141,48,0,-24,-39
39,-29,-68,-4,53,-48,39,146,53,0,-24,-39
43,-34,-78,-4,61,-56,34,151,53,0,-24,-39
34,-39,-73,2,53,-56,34,146,58,-4,-34,-48
34,-34,-68,0,51,-51,34,151,53,4,-29,-48
43,-34,-78,-4,61,-56,34,156,58,4,-24,-43
48,-34,-82,-7,65,-58,34,161,53,9,-19,-43
48,-34,-82,-7,65,-58,34,165,43,4,-19,-43
48,-34,-82,-7,65,-58,34,175,48,9,-14,-39
53,-34,-87,-9,70,-61,29,175,48,9,-14,-39
53,-34,-87,-9,70,-61,29,185,58,14,-14,-39
58,-29,-87,-14,73,-58,29,180,68,14,-24,-43
58,-24,-82,-17,70,-53,34,180,68,14,-24,-43
58,-24,-82,-17,70,-53,34,180,73,24,-19,-39
63,-14,-78,-24,70,-46,39,190,78,29,-19,-39
63,-9,-73,-26,68,-41,39,185,82,29,0,-29
58,-4,-63,-26,61,-34,39,185,87,29,0,-29
53,4,-48,-29,51,-21,43,190,92,34,0,-29
53,9,-43,-31,48,-17,53,200,92,34,0,-29
43,9,-34,-26,39,-12,63,195,102,48,4,-24
43,14,-29,-29,36,-7,73,200,112,53,4,-24
48,14,-34,-31,41,-9,78,204,122,53,4,-19
48,19,-29,-34,39,-4,92,209,126,63,9,-19
43,24,-19,-34,31,2,102,204,131,73,24,-9
48,29,-19,-39,34,4,102,214,136,73,29,-9
48,39,-9,-43,29,14,97,219,141,73,34,-4
53,43,-9,-48,31,17,97,229,151,73,39,-4
58,58,0,-58,29,29,102,234,156,82,48,4
63,63,0,-63,31,31,102,239,165,87,53,4
68,73,4,-70,31,39,107,244,180,102,53,4
73,78,4,-75,34,41,112,253,190,107,58,9
78,92,14,-85,31,53,122,268,200,122,78,19
82,97,14,-90,34,56,122,268,204,126,78,19
87,102,14,-95,36,58,126,273,209,131,82,24
92,112,19,-102,36,65,126,283,214,136,82,24
97,122,24,-109,36,73,126,297,214,146,82,34
107,122,14,-114,46,68,126,302,214,146,82,34
112,122,9,-117,51,65,122,307,219,151,82,34
117,126,9,-122,53,68,122,317,224,156,82,34
131,126,-4,-129,68,61,117,331,224,151,92,34
136,131,-4,-134,70,63,117,336,224,151,97,43
146,136,-9,-141,78,63,112,341,224,151,102,43
151,136,-14,-143,82,61,107,346,224,151,102,43
156,126,-29,-141,92,48,92,361,214,151,87,34
161,131,-29,-146,95,51,87,361,214,156,87,39
165,131,-34,-148,100,48,82,370,209,156,87,39
170,131,-39,-151,104,46,78,370,204,156,92,39
180,122,-58,-151,119,31,68,375,195,151,87,39
190,126,-63,-158,126,31,63,385,185,151,92,43
204,126,-78,-165,141,24,58,395,180,146,92,53
214,126,-87,-170,151,19,43,405,170,141,97,53
224,117,-107,-170,165,4,29,409,161,131,92,43
234,117,-117,-175,175,0,14,414,151,126,87,43
244,117,-126,-180,185,-4,4,419,146,122,82,48
253,117,-136,-185,195,-9,-9,424,136,117,78,48
263,107,-156,-185,209,-24,-19,424,122,107,92,53
273,112,-161,-192,217,-24,-34,424,112,107,97,53
283,112,-170,-197,226,-29,-43,424,107,112,97,58
287,117,-170,-202,229,-26,-53,419,107,112,97,58
297,117,-180,-207,239,-31,-68,424,87,107,97,58
302,112,-190,-207,246,-39,-82,419,82,102,92,53
302,107,-195,-204,248,-43,-87,414,78,97,82,53
302,102,-200,-202,251,-48,-92,409,68,92,78,53
297,87,-209,-192,253,-61,-92,414,58,92,73,48
297,87,-209,-192,253,-61,-97,409,58,87,73,43
297,82,-214,-190,256,-65,-107,400,53,82,73,39
297,78,-219,-187,258,-70,-107,390,48,78,73,34
292,68,-224,-180,258,-78,-117,380,39,78,58,29
287,68,-219,-178,253,-75,-117,375,39,78,58,29
283,68,-214,-175,248,-73,-122,366,34,73,58,29
278,63,-214,-170,246,-75,-122,356,29,68,53,24
268,53,-214,-161,241,-80,-112,336,29,58,43,14
268,53,-214,-161,241,-80,-112,326,24,53,39,14
258,48,-209,-153,234,-80,-117,317,24,53,39,14
248,43,-204,-146,226,-80,-117,312,19,48,34,14
239,34,-204,-136,222,-85,-112,302,4,43,39,14
234,29,-204,-131,219,-87,-112,287,4,39,39,14
224,24,-200,-124,212,-87,-107,273,0,29,34,9
214,24,-190,-119,202,-82,-102,258,0,29,29,9
195,14,-180,-104,187,-82,-82,244,-14,24,24,9
185,14,-170,-100,178,-78,-82,224,-19,19,19,4
175,4,-170,-90,173,-82,-78,209,-24,14,14,4
165,0,-165,-82,165,-82,-78,195,-24,9,14,4
151,-14,-165,-68,158,-90,-58,180,-19,4,0,-14
141,-19,-161,-61,151,-90,-58,165,-24,4,-4,-14
126,-24,-151,-51,139,-87,-53,151,-29,-4,-9,-19
112,-29,-141,-41,126,-85,-48,136,-29,-9,-14,-24
87,-43,-131,-21,109,-87,-43,122,-34,-9,-19,-34
73,-48,-122,-12,97,-85,-39,107,-34,-14,-24,-34
63,-53,-117,-4,90,-85,-34,92,-34,-19,-29,-34
53,-58,-112,2,82,-85,-24,78,-29,-24,-34,-29
34,-53,-87,9,61,-70,-14,73,-24,-19,-29,-19
29,-48,-78,9,53,-63,-4,63,-19,-19,-24,-24
29,-48,-78,9,53,-63,4,53,-14,-19,-24,-29
19,-48,-68,14,43,-58,14,34,-9,-19,-24,-29
4,-43,-48,19,26,-46,14,24,-4,-14,-14,-29
0,-39,-39,19,19,-39,19,19,0,-9,-19,-24
-4,-39,-34,21,14,-36,24,19,0,-14,-19,-19
-4,-39,-34,21,14,-36,29,19,4,-14,-19,-19
-19,-34,-14,26,-2,-24,29,4,14,-9,-9,-14
-24,-29,-4,26,-9,-17,34,0,14,-9,-9,-9
-29,-19,9,24,-19,-4,34,-4,19,-9,-4,-4
-29,-14,14,21,-21,0,34,-4,24,-9,-4,-4
-29,-14,14,21,-21,0,48,-14,29,4,0,4
-34,-19,14,26,-24,-2,48,-14,29,4,-4,0
-34,-14,19,24,-26,2,48,-19,29,9,-4,0
-34,-9,24,21,-29,7,48,-19,34,14,-4,0
-43,0,43,21,-43,21,53,-19,39,9,4,4
-48,0,48,24,-48,24,58,-19,34,4,4,4
-48,0,48,24,-48,24,63,-24,39,4,4,4
-43,0,43,21,-43,21,68,-24,43,4,4,4
-43,9,53,17,-48,31,78,-24,53,4,9,4
-43,9,53,17,-48,31,78,-24,53,9,9,0
-43,9,53,17,-48,31,73,-24,53,14,9,0
-43,9,53,17,-48,31,73,-24,48,14,4,4
-43,4,48,19,-46,26,68,-24,58,24,4,14
-43,4,48,19,-46,26,58,-24,58,24,4,9
-39,9,48,14,-43,29,53,-24,63,24,4,9
-39,14,53,12,-46,34,48,-24,63,19,4,9
-29,14,43,7,-36,29,39,-24,68,29,4,9
-29,19,48,4,-39,34,29,-24,68,29,9,9
-29,24,53,2,-41,39,29,-24,68,29,9,14
-29,29,58,0,-43,43,29,-24,68,34,4,14
-24,29,53,-2,-39,41,14,-24,63,24,4,4
-29,29,58,0,-43,43,4,-29,63,24,4,4
-29,24,53,2,-41,39,-9,-29,58,24,4,0
-29,14,43,7,-36,29,-24,-29,58,24,4,0
-24,14,39,4,-31,26,-24,-29,58,14,-4,0
-24,9,34,7,-29,21,-29,-29,53,14,-4,0
-29,9,39,9,-34,24,-29,-29,53,14,-4,-4
-29,9,39,9,-34,24,-24,-29,48,14,0,-4
-39,4,43,17,-41,24,-34,-34,43,4,-9,-14
-39,0,39,19,-39,19,-34,-34,39,4,-9,-9
-39,-9,29,24,-34,9,-29,-34,39,4,-9,-9
-39,-19,19,29,-29,0,-29,-34,39,4,-9,-9
-48,-29,19,39,-34,-4,-19,-34,29,4,-19,-19
-48,-29,19,39,-34,-4,-19,-34,24,0,-19,-14
-48,-24,24,36,-36,0,-19,-34,24,0,-19,-14
-53,-24,29,39,-41,2,-19,-34,24,0,-24,-14
-53,-29,24,41,-39,-2,-9,-34,24,-4,-14,-14
-53,-29,24,41,-39,-2,-9,-39,24,-4,-19,-19
-53,-34,19,43,-36,-7,-4,-39,24,-9,-24,-19
-53,-34,19,43,-36,-7,-4,-39,19,-9,-24,-24
-53,-34,19,43,-36,-7,0,-39,24,-24,-29,-19
-53,-43,9,48,-31,-17,0,-39,24,-24,-34,-19
-53,-43,9,48,-31,-17,4,-39,19,-24,-34,-24
-53,-48,4,51,-29,-21,4,-39,14,-24,-34,-24
-53,-48,4,51,-29,-21,14,-39,9,-34,-39,-34
-53,-48,4,51,-29,-21,14,-43,9,-34,-39,-34
-53,-48,4,51,-29,-21,14,-48,9,-39,-43,-34
-53,-48,4,51,-29,-21,14,-48,9,-39,-43,-39
-48,-53,-4,51,-21,-29,14,-48,4,-39,-48,-39
-48,-53,-4,51,-21,-29,14,-48,0,-39,-48,-43
-48,-58,-9,53,-19,-34,9,-48,-4,-39,-48,-43
-48,-63,-14,56,-17,-39,9,-53,-14,-39,-53,-43
-58,-68,-9,63,-24,-39,14,-43,-24,-48,-53,-43
-58,-73,-14,65,-21,-43,19,-43,-19,-48,-53,-43
-58,-73,-14,65,-21,-43,24,-43,-19,-48,-53,-43
-58,-73,-14,65,-21,-43,29,-43,-19,-48,-53,-43
-68,-78,-9,73,-29,-43,39,-53,-19,-39,-53,-48
-78,-73,4,75,-41,-34,39,-53,-19,-39,-53,-48
-78,-73,4,75,-41,-34,39,-53,-19,-39,-53,-48
-78,-73,4,75,-41,-34,39,-58,-19,-39,-53,-53
-87,-63,24,75,-56,-19,43,-58,-14,-29,-43,-43
-87,-58,29,73,-58,-14,48,-58,-9,-29,-39,-43
-87,-58,29,73,-58,-14,53,-58,-4,-29,-39,-43
-87,-58,29,73,-58,-14,58,-58,0,-29,-34,-39
-82,-43,39,63,-61,-2,58,-48,9,-19,-34,-29
-82,-43,39,63,-61,-2,58,-48,9,-19,-34,-29
-82,-39,43,61,-63,2,58,-48,9,-19,-34,-29
-82,-34,48,58,-65,7,58,-48,9,-19,-34,-29
-68,-34,34,51,-51,0,63,-48,19,-19,-34,-24
-68,-34,34,51,-51,0,63,-48,19,-14,-34,-24
-68,-34,34,51,-51,0,63,-48,19,-14,-34,-24
-68,-34,34,51,-51,0,63,-48,19,-14,-34,-24
-58,-24,34,41,-46,4,53,-48,19,-19,-39,-24
-63,-24,39,43,-51,7,53,-48,19,-19,-39,-24
-63,-24,39,43,-51,7,53,-43,19,-19,-39,-24
-58,-24,34,41,-46,4,53,-43,14,-19,-43,-24
-48,-24,24,36,-36,0,48,-43,14,-19,-34,-24
-48,-24,24,36,-36,0,43,-43,14,-19,-34,-24
-48,-24,24,36,-36,0,39,-43,14,-24,-34,-24
-48,-24,24,36,-36,0,34,-43,14,-24,-34,-24
-48,-19,29,34,-39,4,14,-43,9,-14,-34,-14
-43,-19,24,31,-34,2,9,-43,9,-14,-34,-14
-43,-19,24,31,-34,2,4,-43,4,-19,-34,-14
-39,-14,24,26,-31,4,0,-43,0,-19,-34,-19
-39,-4,34,21,-36,14,-9,-39,9,-19,-34,-19
-39,-4,34,21,-36,14,-19,-39,9,-24,-29,-19
-39,-4,34,21,-36,14,-24,-39,9,-24,-29,-14
-39,-9,29,24,-34,9,-29,-39,9,-24,-29,-14
-39,-9,29,24,-34,9,-39,-48,4,-19,-29,-24
-39,-9,29,24,-34,9,-34,-48,4,-19,-29,-24
-39,-14,24,26,-31,4,-34,-48,4,-19,-34,-24
-39,-14,24,26,-31,4,-34,-48,0,-24,-34,-24
-39,-24,14,31,-26,-4,-24,-48,-9,-34,-43,-29
-39,-24,14,31,-26,-4,-24,-48,-9,-34,-48,-29
-39,-29,9,34,-24,-9,-24,-48,-9,-34,-48,-29
-43,-29,14,36,-29,-7,-24,-53,-9,-34,-43,-34
-43,-34,9,39,-26,-12,-19,-53,-14,-48,-53,-43
-43,-39,4,41,-24,-17,-9,-53,-19,-48,-53,-43
-43,-48,-4,46,-19,-26,-4,-53,-24,-48,-58,-43
-43,-53,-9,48,-17,-31,0,-58,-29,-48,-58,-43
-58,-58,0,58,-29,-29,4,-58,-43,-58,-68,-48
-63,-68,-4,65,-29,-36,9,-58,-43,-58,-68,-53
-63,-73,-9,68,-26,-41,14,-58,-43,-58,-68,-53
-63,-82,-19,73,-21,-51,19,-58,-43,-63,-68,-53
-63,-82,-19,73,-21,-51,14,-58,-53,-73,-68,-53
-63,-82,-19,73,-21,-51,14,-63,-53,-73,-68,-53
-63,-82,-19,73,-21,-51,24,-63,-53,-73,-68,-58
-68,-82,-14,75,-26,-48,24,-63,-53,-73,-73,-58
-78,-82,-4,80,-36,-43,29,-73,-53,-73,-73,-58
-78,-82,-4,80,-36,-43,34,-73,-53,-73,-73,-58
-78,-87,-9,82,-34,-48,39,-73,-58,-73,-73,-58
-78,-87,-9,82,-34,-48,29,-73,-58,-73,-73,-58
-78,-82,-4,80,-36,-43,24,-73,-58,-73,-73,-58
-78,-82,-4,80,-36,-43,29,-73,-58,-73,-73,-58
-78,-87,-9,82,-34,-48,39,-73,-58,-73,-78,-58
-78,-87,-9,82,-34,-48,48,-73,-63,-73,-78,-58
-78,-92,-14,85,-31,-53,48,-73,-63,-73,-73,-68
-78,-92,-14,85,-31,-53,53,-73,-63,-73,-73,-68
-78,-97,-19,87,-29,-58,53,-68,-63,-78,-78,-68
-78,-97,-19,87,-29,-58,53,-68,-63,-78,-78,-68
-82,-97,-14,90,-34,-56,68,-78,-68,-78,-82,-58
-82,-102,-19,92,-31,-61,68,-78,-68,-82,-92,-63
-82,-102,-19,92,-31,-61,68,-78,-68,-87,-92,-63
-82,-102,-19,92,-31,-61,68,-78,-73,-87,-92,-68
-82,-107,-24,95,-29,-65,78,-78,-73,-82,-87,-73
-82,-107,-24,95,-29,-65,78,-78,-73,-82,-87,-73
-82,-107,-24,95,-29,-65,78,-78,-73,-87,-87,-73
-82,-107,-24,95,-29,-65,78,-78,-73,-87,-82,-73
-87,-107,-19,97,-34,-63,92,-78,-73,-87,-92,-73
-87,-107,-19,97,-34,-63,97,-78,-73,-87,-92,-73
-87,-102,-14,95,-36,-58,92,-78,-73,-87,-87,-68
-92,-102,-9,97,-41,-56,87,-78,-73,-82,-82,-68
-92,-97,-4,95,-43,-51,97,-78,-73,-87,-82,-73
-92,-97,-4,95,-43,-51,97,-78,-73,-78,-82,-63
-92,-92,0,92,-46,-46,97,-78,-68,-78,-78,-63
-92,-92,0,92,-46,-46,102,-78,-63,-68,-78,-63
-92,-82,9,87,-51,-36,97,-78,-48,-58,-68,-58
-87,-68,19,78,-53,-24,97,-78,-48,-58,-63,-53
-87,-63,24,75,-56,-19,92,-78,-39,-53,-58,-53
-92,-53,39,73,-65,-7,87,-78,-39,-53,-58,-53
-87,-43,43,65,-65,0,78,-68,-34,-43,-43,-43
-78,-39,39,58,-58,0,68,-68,-29,-39,-43,-39
-73,-29,43,51,-58,7,58,-73,-24,-34,-43,-34
-68,-24,43,46,-56,9,53,-73,-24,-34,-43,-29
-48,0,48,24,-48,24,24,-63,-19,-29,-34,-19
-48,0,48,24,-48,24,9,-68,-19,-29,-29,-19
-39,9,48,14,-43,29,4,-68,-19,-29,-29,-19
-39,9,48,14,-43,29,0,-68,-19,-29,-29,-19
-39,9,48,14,-43,29,-4,-68,-19,-29,-29,-19
-39,9,48,14,-43,29,-9,-68,-19,-29,-29,-19
-39,0,39,19,-39,19,-14,-58,-29,-29,-29,-9
-39,0,39,19,-39,19,-24,-63,-29,-34,-34,-9
-39,-4,34,21,-36,14,-34,-63,-34,-34,-34,-9
-39,-4,34,21,-36,14,-39,-63,-34,-34,-34,-9
-39,-4,34,21,-36,14,-39,-63,-34,-34,-34,-19
-39,-9,29,24,-34,9,-39,-63,-34,-39,-34,-19
-39,-9,29,24,-34,9,-34,-63,-34,-39,-34,-19
-39,-9,29,24,-34,9,-34,-63,-34,-39,-34,-19
-39,-19,19,29,-29,0,-39,-53,-34,-39,-34,-19
-43,-19,24,31,-34,2,-34,-53,-34,-39,-34,-19
-43,-19,24,31,-34,2,-29,-58,-39,-39,-39,-19
-43,-19,24,31,-34,2,-24,-58,-39,-39,-39,-19
-34,-19,14,26,-24,-2,-19,-58,-39,-39,-34,-19
-34,-19,14,26,-24,-2,-19,-58,-39,-39,-34,-19
-39,-19,19,29,-29,0,-19,-58,-39,-39,-34,-19
-39,-19,19,29,-29,0,-24,-58,-39,-39,-34,-24
-39,-19,19,29,-29,0,-14,-58,-39,-48,-43,-24
-39,-19,19,29,-29,0,-14,-53,-39,-48,-43,-24
-39,-19,19,29,-29,0,-14,-53,-39,-48,-48,-24
-39,-19,19,29,-29,0,-9,-53,-34,-48,-48,-24
-48,-29,19,39,-34,-4,0,-63,-34,-48,-48,-24
-48,-29,19,39,-34,-4,4,-68,-34,-48,-48,-24
-53,-29,24,41,-39,-2,4,-68,-34,-48,-48,-24
-53,-29,24,41,-39,-2,4,-68,-34,-48,-48,-24
-53,-29,24,41,-39,-2,19,-68,-43,-48,-43,-34
-53,-34,19,43,-36,-7,19,-68,-39,-48,-43,-34
-53,-34,19,43,-36,-7,24,-68,-39,-48,-43,-34
-53,-34,19,43,-36,-7,24,-68,-39,-48,-43,-34
-63,-43,19,53,-41,-12,39,-68,-48,-58,-58,-39
-63,-43,19,53,-41,-12,39,-68,-48,-58,-58,-39
-58,-43,14,51,-36,-14,39,-68,-48,-58,-58,-39
-58,-43,14,51,-36,-14,39,-68,-48,-58,-58,-39
-58,-48,9,53,-34,-19,48,-53,-58,-68,-68,-48
-58,-53,4,56,-31,-24,48,-53,-58,-68,-63,-48
-58,-58,0,58,-29,-29,48,-53,-58,-68,-63,-48
-58,-63,-4,61,-26,-34,43,-53,-58,-68,-63,-48
-48,-73,-24,61,-12,-48,48,-53,-68,-73,-68,-58
-48,-78,-29,63,-9,-53,53,-53,-68,-78,-73,-58
-48,-82,-34,65,-7,-58,53,-53,-68,-82,-78,-58
-48,-87,-39,68,-4,-63,53,-53,-68,-87,-82,-58
-48,-102,-53,75,2,-78,68,-43,-78,-92,-92,-63
-48,-107,-58,78,4,-82,68,-43,-82,-97,-92,-68
-48,-112,-63,80,7,-87,68,-43,-87,-102,-92,-73
-48,-117,-68,82,9,-92,68,-43,-92,-107,-92,-78
-58,-131,-73,95,7,-102,78,-53,-102,-117,-107,-87
-58,-136,-78,97,9,-107,78,-53,-102,-117,-107,-87
-58,-141,-82,100,12,-112,78,-58,-97,-117,-107,-87
-58,-146,-87,102,14,-117,78,-58,-97,-117,-107,-87
-68,-136,-68,102,0,-102,63,-58,-87,-107,-97,-78
-68,-136,-68,102,0,-102,58,-58,-87,-107,-97,-78
-68,-136,-68,102,0,-102,53,-58,-87,-107,-97,-78
-63,-131,-68,97,2,-100,53,-58,-92,-107,-97,-78
-63,-117,-53,90,-4,-85,43,-58,-87,-102,-87,-68
-63,-112,-48,87,-7,-80,39,-58,-82,-97,-82,-63
-63,-107,-43,85,-9,-75,29,-58,-78,-92,-82,-63
-63,-102,-39,82,-12,-70,19,-58,-73,-87,-82,-63
-63,-87,-24,75,-19,-56,9,-58,-68,-82,-73,-58
-63,-82,-19,73,-21,-51,9,-63,-68,-78,-73,-53
-63,-78,-14,70,-24,-46,9,-63,-63,-73,-73,-48
-63,-73,-9,68,-26,-41,9,-63,-58,-68,-73,-43
-63,-68,-4,65,-29,-36,9,-63,-48,-58,-63,-34
-63,-63,0,63,-31,-31,9,-63,-48,-63,-63,-34
-63,-68,-4,65,-29,-36,9,-63,-48,-63,-63,-34
-63,-63,0,63,-31,-31,14,-63,-53,-63,-63,-34
-68,-63,4,65,-36,-29,14,-63,-53,-53,-63,-34
-68,-63,4,65,-36,-29,14,-63,-53,-53,-63,-39
-63,-58,4,61,-34,-26,14,-63,-53,-53,-68,-39
-63,-58,4,61,-34,-26,14,-63,-53,-53,-68,-39
-63,-58,4,61,-34,-26,14,-63,-58,-63,-58,-39
-58,-58,0,58,-29,-29,14,-63,-58,-63,-58,-34
-58,-58,0,58,-29,-29,14,-63,-58,-63,-58,-34
-58,-58,0,58,-29,-29,14,-63,-58,-63,-58,-39
-68,-73,-4,70,-31,-39,24,-63,-58,-63,-58,-29
-68,-73,-4,70,-31,-39,24,-63,-63,-68,-63,-29
-73,-73,0,73,-36,-36,24,-63,-63,-68,-63,-29
-73,-73,0,73,-36,-36,24,-63,-63,-68,-63,-29
-73,-73,0,73,-36,-36,39,-63,-63,-68,-63,-34
-73,-78,-4,75,-34,-41,39,-63,-68,-68,-63,-34
-73,-78,-4,75,-34,-41,39,-63,-68,-68,-63,-43
-78,-78,0,78,-39,-39,39,-63,-68,-68,-68,-43
-73,-87,-14,80,-29,-51,43,-63,-68,-68,-68,-34
-73,-78,-4,75,-34,-41,43,-63,-63,-68,-78,-34
-73,-78,-4,75,-34,-41,48,-63,-68,-68,-68,-39
-73,-87,-14,80,-29,-51,53,-63,-58,-68,-78,-39
-63,-87,-24,75,-19,-56,48,-43,-58,-58,-78,-39
-63,-87,-24,75,-19,-56,53,-39,-43,-58,-73,-48
-63,-73,-9,68,-26,-41,58,-34,-24,-48,-68,-43
-63,-53,9,58,-36,-21,68,-24,29,-24,-58,-58
-63,-14,48,39,-56,17,63,-24,78,29,-39,-39
-58,29,87,14,-73,58,48,-14,136,68,-9,-29
-63,73,136,-4,-100,104,34,-24,204,126,24,-19
-68,141,209,-36,-139,175,9,-58,292,214,68,14
-78,239,317,-80,-197,278,-48,-141,361,302,146,82
-92,322,414,-114,-253,368,-122,-258,409,385,224,136
-102,395,497,-146,-300,446,-209,-385,400,448,287,190
-92,473,566,-190,-329,519,-326,-507,380,507,361,263
-73,570,644,-248,-358,607,-463,-600,395,585,444,331
-43,649,692,-302,-368,671,-575,-663,390,649,497,385
-14,683,697,-334,-356,690,-663,-712,341,668,527,424
0,697,697,-348,-348,697,-736,-771,278,668,546,458
4,732,727,-368,-361,729,-800,-824,248,663,570,502
34,775,741,-405,-353,758,-873,-844,224,668,590,531
87,790,702,-439,-307,746,-922,-819,175,639,585,561
146,761,614,-453,-234,688,-971,-780,78,561,551,561
209,707,497,-458,-143,602,-1024,-761,-63,458,507,561
263,678,414,-470,-75,546,-1107,-795,-214,351,478,585
326,658,331,-492,-2,495,-1195,-858,-370,253,458,614
395,600,204,-497,95,402,-1254,-883,-522,131,434,634
448,497,48,-473,200,273,-1259,-849,-653,4,375,624
458,366,-92,-412,275,136,-1200,-756,-732,-136,287,580
448,219,-229,-334,339,-4,-1088,-639,-839,-297,180,522
419,68,-351,-244,385,-141,-927,-502,-927,-429,73,424
351,-73,-424,-139,387,-248,-761,-385,-951,-497,-34,317
263,-151,-414,-56,339,-283,-605,-326,-912,-517,-97,224
161,-190,-351,14,256,-270,-468,-297,-805,-478,-117,156
87,-195,-283,53,185,-239,-356,-268,-668,-409,-117,117
53,-214,-268,80,161,-241,-268,-195,-536,-346,-126,53
39,-234,-273,97,156,-253,-180,-107,-444,-312,-146,-14
19,-239,-258,109,139,-248,-112,-43,-346,-258,-165,-68
14,-229,-244,107,129,-236,-53,4,-258,-200,-161,-87
9,-185,-195,87,102,-190,-24,24,-195,-161,-136,-87
-14,-170,-156,92,70,-163,4,29,-165,-131,-117,-78
-34,-161,-126,97,46,-143,9,9,-141,-112,-107,-63
-43,-141,-97,92,26,-119,14,-14,-131,-97,-87,-48
-58,-136,-78,97,9,-107,34,-14,-117,-92,-78,-48
-68,-126,-58,97,-4,-92,34,-14,-107,-92,-78,-43
-68,-117,-48,92,-9,-82,39,-9,-92,-78,-78,-43
-63,-112,-48,87,-7,-80,39,-9,-82,-78,-78,-43
-63,-107,-43,85,-9,-75,39,-9,-73,-68,-78,-43
-63,-102,-39,82,-12,-70,34,0,-63,-53,-63,-34
-58,-97,-39,78,-9,-68,34,4,-63,-53,-63,-34
-58,-87,-29,73,-14,-58,34,9,-58,-58,-63,-34
-53,-82,-29,68,-12,-56,34,9,-58,-63,-63,-34
-63,-92,-29,78,-17,-61,39,9,-58,-63,-68,-43
-63,-92,-29,78,-17,-61,39,9,-58,-63,-73,-48
-63,-92,-29,78,-17,-61,43,9,-53,-63,-73,-53
-63,-97,-34,80,-14,-65,43,14,-53,-63,-73,-53
-63,-87,-24,75,-19,-56,48,14,-53,-58,-73,-53
-63,-82,-19,73,-21,-51,53,14,-48,-58,-68,-53
-63,-82,-19,73,-21,-51,53,14,-48,-58,-68,-58
-63,-82,-19,73,-21,-51,53,14,-43,-58,-68,-58
-53,-73,-19,63,-17,-46,58,19,-34,-58,-58,-58
-53,-73,-19,63,-17,-46,58,19,-34,-58,-58,-58
-53,-78,-24,65,-14,-51,58,19,-34,-58,-63,-58
-53,-78,-24,65,-14,-51,53,19,-34,-58,-63,-58
-53,-68,-14,61,-19,-41,63,19,-19,-43,-58,-48
-53,-63,-9,58,-21,-36,63,19,-19,-43,-58,-48
-48,-63,-14,56,-17,-39,58,19,-14,-39,-53,-48
-48,-63,-14,56,-17,-39,53,19,-14,-39,-53,-48
-53,-58,-4,56,-24,-31,58,9,-4,-29,-43,-43
-53,-58,-4,56,-24,-31,53,9,0,-29,-43,-43
-48,-53,-4,51,-21,-29,53,14,0,-29,-43,-43
-48,-53,-4,51,-21,-29,53,14,4,-24,-43,-43
-48,-43,4,46,-26,-19,63,14,4,-14,-53,-43
-48,-39,9,43,-29,-14,63,14,14,-14,-48,-39
-43,-39,4,41,-24,-17,58,19,14,-14,-43,-39
-43,-39,4,41,-24,-17,58,19,19,-14,-43,-39
-53,-39,14,46,-34,-12,68,14,9,-19,-34,-39
-53,-39,14,46,-34,-12,68,19,9,-19,-39,-39
-53,-48,4,51,-29,-21,68,24,14,-19,-39,-39
-48,-39,9,43,-29,-14,68,24,14,-19,-39,-34
-48,-39,9,43,-29,-14,82,14,14,-19,-34,-34
-48,-39,9,43,-29,-14,87,19,14,-9,-34,-34
-48,-34,14,41,-31,-9,87,19,24,-4,-34,-34
-43,-34,9,39,-26,-12,92,19,24,-4,-39,-34
-39,-24,14,31,-26,-4,82,29,19,-4,-29,-39
-39,-24,14,31,-26,-4,73,29,19,-4,-34,-39
-39,-24,14,31,-26,-4,73,29,19,-9,-39,-39
-39,-24,14,31,-26,-4,73,29,19,-14,-39,-39
-29,-29,0,29,-14,-14,63,29,29,-14,-39,-39
-29,-29,0,29,-14,-14,63,29,29,-4,-39,-39
-29,-29,0,29,-14,-14,68,29,29,-4,-34,-39
-29,-29,0,29,-14,-14,68,34,29,-9,-34,-39
-39,-34,4,36,-21,-14,58,34,19,-9,-29,-39
-39,-34,4,36,-21,-14,58,43,19,-14,-29,-39
-34,-39,-4,36,-14,-21,58,43,19,-14,-29,-39
-34,-43,-9,39,-12,-26,58,43,29,-14,-34,-39
-34,-43,-9,39,-12,-26,48,34,24,-19,-34,-48
-34,-43,-9,39,-12,-26,48,39,29,-9,-29,-48
-34,-43,-9,39,-12,-26,48,39,29,-4,-29,-48
-34,-43,-9,39,-12,-26,48,43,29,-4,-24,-43
-43,-43,0,43,-21,-21,48,43,19,-14,-29,-53
-43,-48,-4,46,-19,-26,48,43,19,-14,-29,-53
-43,-53,-9,48,-17,-31,48,48,24,-14,-29,-53
-39,-53,-14,46,-12,-34,43,53,24,-14,-29,-53
-39,-43,-4,41,-17,-24,43,53,34,-14,-29,-53
-34,-43,-9,39,-12,-26,43,58,39,-4,-29,-53
-29,-39,-9,34,-9,-24,43,58,39,0,-24,-53
-29,-34,-4,31,-12,-19,48,68,48,4,-24,-53
-24,-24,0,24,-12,-12,48,73,58,19,-9,-53
-24,-24,0,24,-12,-12,48,73,58,19,-4,-48
-19,-14,4,17,-12,-4,53,78,63,19,-4,-48
-14,-14,0,14,-7,-7,53,82,63,19,-4,-48
-4,-4,0,4,-2,-2,53,97,82,24,-4,-39
-4,4,9,0,-7,7,53,102,82,34,0,-39
4,9,4,-7,0,7,53,107,92,34,4,-34
9,14,4,-12,2,9,53,112,92,39,9,-34
9,14,4,-12,2,9,58,117,102,43,19,-34
9,14,4,-12,2,9,63,126,107,48,24,-29
14,14,0,-14,7,7,63,126,107,48,24,-29
14,14,0,-14,7,7,68,136,117,53,24,-29
9,19,9,-14,0,14,68,151,117,63,14,-34
9,24,14,-17,-2,19,73,151,117,63,14,-34
9,24,14,-17,-2,19,73,151,122,73,19,-29
14,34,19,-24,-2,26,78,161,126,78,19,-29
19,34,14,-26,2,24,78,165,131,78,39,-19
19,34,14,-26,2,24,78,165,136,78,39,-19
19,39,19,-29,0,29,82,170,141,82,39,-19
24,39,14,-31,4,26,92,180,141,82,39,-19
34,39,4,-36,14,21,87,195,156,87,43,-24
34,43,9,-39,12,26,92,200,161,92,43,-24
39,43,4,-41,17,24,92,204,165,92,43,-19
39,48,9,-43,14,29,102,209,165,102,48,-19
43,39,-4,-41,24,17,112,214,165,102,68,-19
48,39,-9,-43,29,14,112,224,165,102,68,-19
48,43,-4,-46,26,19,107,229,165,102,68,-14
53,43,-9,-48,31,17,107,239,170,102,68,-14
58,43,-14,-51,36,14,117,253,170,107,58,-14
63,43,-19,-53,41,12,112,258,175,107,63,-14
68,48,-19,-58,43,14,112,263,185,117,63,-14
73,48,-24,-61,48,12,112,273,190,117,68,-9
68,53,-14,-61,41,19,122,287,190,117,68,-19
73,48,-24,-61,48,12,122,287,185,117,68,-19
78,43,-34,-61,56,4,126,292,180,117,73,-14
82,43,-39,-63,61,2,126,302,175,117,73,-14
87,34,-53,-61,70,-9,126,307,170,107,63,-24
97,34,-63,-65,80,-14,126,312,165,107,63,-24
102,34,-68,-68,85,-17,122,317,165,112,63,-24
107,39,-68,-73,87,-14,122,326,165,117,63,-24
112,39,-73,-75,92,-17,107,331,175,122,73,-14
117,43,-73,-80,95,-14,107,336,175,122,78,-4
126,48,-78,-87,102,-14,102,341,175,122,82,-4
131,48,-82,-90,107,-17,97,346,175,122,82,-4
141,53,-87,-97,114,-17,92,351,175,122,87,4
151,63,-87,-107,119,-12,87,351,175,126,87,9
161,68,-92,-114,126,-12,82,361,170,126,87,9
170,73,-97,-122,134,-12,78,361,165,126,92,9
185,82,-102,-134,143,-9,73,351,161,126,97,9
190,87,-102,-139,146,-7,63,356,156,131,102,14
200,87,-112,-143,156,-12,53,361,156,131,102,24
204,87,-117,-146,161,-14,34,366,151,131,107,24
209,78,-131,-143,170,-26,24,366,141,117,97,14
214,78,-136,-146,175,-29,14,366,131,117,97,14
219,78,-141,-148,180,-31,9,366,126,117,97,19
224,78,-146,-151,185,-34,0,366,117,117,97,19
229,68,-161,-148,195,-46,-14,356,102,107,92,24
234,73,-161,-153,197,-43,-24,356,92,107,97,24
239,73,-165,-156,202,-46,-29,356,87,112,97,29
239,78,-161,-158,200,-41,-34,351,87,112,97,29
239,78,-161,-158,200,-41,-39,346,78,107,92,24
244,73,-170,-158,207,-48,-53,341,73,102,92,24
244,68,-175,-156,209,-53,-58,336,68,97,87,29
244,63,-180,-153,212,-58,-63,331,58,92,87,34
239,73,-165,-156,202,-46,-73,326,68,97,102,34
239,78,-161,-158,200,-41,-78,322,68,97,102,34
239,78,-161,-158,200,-41,-87,312,63,97,102,34
239,78,-161,-158,200,-41,-87,302,58,97,102,34
224,87,-136,-156,180,-24,-97,292,68,92,102,48
219,87,-131,-153,175,-21,-97,287,68,97,107,48
214,87,-126,-151,170,-19,-102,278,63,97,112,48
209,82,-126,-146,168,-21,-102,268,58,97,112,43
209,87,-122,-148,165,-17,-102,248,68,107,102,53
209,92,-117,-151,163,-12,-102,239,63,102,97,53
200,92,-107,-146,153,-7,-107,229,63,102,97,53
190,92,-97,-141,143,-2,-107,224,58,97,92,53
180,102,-78,-141,129,12,-102,214,63,102,97,63
175,97,-78,-136,126,9,-102,200,63,97,97,63
165,92,-73,-129,119,9,-97,185,58,87,92,58
156,92,-63,-124,109,14,-92,170,58,87,87,58
146,92,-53,-119,100,19,-82,161,63,92,92,68
136,92,-43,-114,90,24,-82,146,58,87,87,63
126,82,-43,-104,85,19,-78,136,53,82,82,63
117,78,-39,-97,78,19,-78,126,53,78,82,63
107,82,-24,-95,65,29,-58,117,58,73,87,63
102,78,-24,-90,63,26,-58,107,53,73,82,63
92,73,-19,-82,56,26,-53,97,48,63,78,58
82,68,-14,-75,48,26,-48,87,48,58,73,53
73,73,0,-73,36,36,-39,87,53,58,68,43
63,68,4,-65,29,36,-39,78,53,53,63,43
58,63,4,-61,26,34,-39,68,53,48,58,43
53,58,4,-56,24,31,-34,58,58,43,53,48
43,58,14,-51,14,36,-24,48,58,39,53,39
39,58,19,-48,9,39,-14,43,58,39,53,34
39,53,14,-46,12,34,-4,39,58,39,48,29
29,48,19,-39,4,34,4,24,58,39,43,29
14,39,24,-26,-4,31,4,24,58,29,34,24
9,39,29,-24,-9,34,9,19,58,29,29,24
4,34,29,-19,-12,31,14,19,53,19,29,24
4,29,24,-17,-9,26,19,19,53,14,29,19
0,24,24,-12,-12,24,19,24,48,14,24,19
4,9,4,-7,0,7,24,19,43,9,19,19
0,9,9,-4,-4,9,24,14,34,4,19,19
-19,14,34,2,-26,24,24,4,34,0,14,14
-19,0,19,9,-19,9,19,9,39,0,9,9
-29,-9,19,19,-24,4,9,0,29,0,0,0
-29,-9,19,19,-24,4,9,0,29,0,0,0
-29,-9,19,19,-24,4,9,0,29,0,0,0
-29,-9,19,19,-24,4,9,0,29,0,0,0
-29,-19,9,24,-19,-4,0,0,19,-4,-9,-4
-29,-19,9,24,-19,-4,-4,-4,19,-14,-14,-9
-29,-24,4,26,-17,-9,-9,-4,14,-19,-14,-14
-29,-24,4,26,-17,-9,-9,-4,14,-24,-14,-19
-29,-39,-9,34,-9,-24,-9,-4,9,-29,-29,-24
-29,-48,-19,39,-4,-34,-9,-4,4,-39,-34,-29
-29,-53,-24,41,-2,-39,-4,-4,0,-43,-39,-34
-29,-58,-29,43,0,-43,-4,-4,-4,-48,-43,-39
-19,-63,-43,41,12,-53,-4,4,-9,-58,-53,-48
-24,-68,-43,46,9,-56,-4,4,-14,-58,-53,-48
-24,-73,-48,48,12,-61,-4,0,-24,-58,-58,-48
-24,-78,-53,51,14,-65,-4,0,-29,-58,-58,-48
-34,-82,-48,58,7,-65,0,-9,-29,-68,-53,-48
-34,-87,-53,61,9,-70,0,-9,-29,-68,-53,-48
-39,-92,-53,65,7,-73,0,-9,-29,-68,-53,-48
-39,-97,-58,68,9,-78,-4,-9,-29,-68,-53,-53
-48,-87,-39,68,-4,-63,0,-14,-29,-68,-53,-53
-48,-87,-39,68,-4,-63,4,-14,-29,-68,-53,-53
-48,-87,-39,68,-4,-63,9,-19,-29,-68,-58,-53
-48,-87,-39,68,-4,-63,19,-24,-24,-68,-58,-53
-48,-78,-29,63,-9,-53,29,-24,-14,-58,-48,-43
-48,-78,-29,63,-9,-53,34,-29,-14,-58,-48,-43
-53,-78,-24,65,-14,-51,34,-29,-14,-58,-48,-43
-53,-78,-24,65,-14,-51,34,-29,-14,-58,-48,-43
-53,-68,-14,61,-19,-41,48,-29,-4,-48,-43,-43
-53,-73,-19,63,-17,-46,48,-29,0,-48,-43,-43
-53,-73,-19,63,-17,-46,53,-29,0,-48,-43,-43
-53,-73,-19,63,-17,-46,53,-29,0,-48,-43,-43
-53,-63,-9,58,-21,-36,58,-29,9,-48,-39,-39
-53,-63,-9,58,-21,-36,58,-29,9,-48,-39,-39
-48,-63,-14,56,-17,-39,58,-29,9,-48,-39,-39
-48,-63,-14,56,-17,-39,58,-29,9,-48,-39,-39
-58,-53,4,56,-31,-24,58,-34,9,-39,-39,-39
-58,-53,4,56,-31,-24,58,-34,9,-39,-34,-39
-58,-53,4,56,-31,-24,58,-34,9,-39,-34,-39
-58,-53,4,56,-31,-24,53,-34,9,-39,-34,-39
-68,-48,19,58,-43,-14,63,-34,9,-29,-34,-29
-68,-48,19,58,-43,-14,63,-34,9,-29,-34,-29
-68,-48,19,58,-43,-14,58,-34,9,-29,-34,-29
-68,-48,19,58,-43,-14,53,-34,9,-29,-34,-29
-68,-48,19,58,-43,-14,58,-34,14,-29,-34,-19
-68,-48,19,58,-43,-14,58,-34,14,-29,-34,-19
-68,-48,19,58,-43,-14,58,-34,14,-29,-34,-19
-68,-48,19,58,-43,-14,58,-34,14,-29,-34,-19
-68,-39,29,53,-48,-4,68,-34,24,-19,-29,-9
-68,-39,29,53,-48,-4,68,-34,24,-19,-29,-9
-68,-39,29,53,-48,-4,68,-39,29,-19,-29,-9
-68,-39,29,53,-48,-4,68,-39,29,-19,-29,-9
-58,-29,29,43,-43,0,73,-29,19,-19,-29,0
-58,-29,29,43,-43,0,68,-29,19,-19,-29,0
-58,-29,29,43,-43,0,63,-29,19,-19,-29,0
-53,-24,29,39,-41,2,63,-29,14,-19,-29,0
-53,-24,29,39,-41,2,58,-29,14,-29,-29,0
-53,-24,29,39,-41,2,58,-29,14,-29,-24,4
-53,-24,29,39,-41,2,53,-29,14,-29,-24,4
-53,-24,29,39,-41,2,48,-29,14,-29,-24,4
-43,-24,19,34,-31,-2,39,-29,4,-29,-34,-4
-43,-24,19,34,-31,-2,39,-34,0,-29,-34,-4
-43,-24,19,34,-31,-2,39,-34,0,-29,-34,-4
-43,-24,19,34,-31,-2,39,-34,0,-29,-34,-4
-43,-24,19,34,-31,-2,34,-34,0,-29,-34,-4
-43,-24,19,34,-31,-2,29,-34,0,-34,-34,-4
-43,-34,9,39,-26,-12,24,-34,0,-34,-34,-4
-43,-34,9,39,-26,-12,24,-34,-4,-34,-34,-4
-48,-39,9,43,-29,-14,19,-34,-9,-39,-43,-14
-48,-43,4,46,-26,-19,14,-34,-14,-43,-43,-19
-43,-43,0,43,-21,-21,9,-34,-19,-48,-48,-19
-43,-48,-4,46,-19,-26,4,-34,-24,-53,-48,-19
-34,-58,-24,46,-4,-41,0,-24,-24,-63,-58,-29
-29,-58,-29,43,0,-43,-4,-24,-29,-63,-58,-24
-29,-58,-29,43,0,-43,-9,-24,-34,-63,-58,-24
-29,-58,-29,43,0,-43,-14,-24,-39,-63,-58,-29
-29,-73,-43,51,7,-58,-4,-24,-43,-68,-68,-39
-29,-73,-43,51,7,-58,-4,-24,-53,-78,-73,-39
-34,-73,-39,53,2,-56,-4,-24,-58,-82,-73,-39
-34,-73,-39,53,2,-56,-4,-24,-63,-87,-73,-39
-34,-82,-48,58,7,-65,9,-34,-73,-97,-78,-43
-34,-87,-53,61,9,-70,9,-34,-78,-97,-82,-43
-34,-87,-53,61,9,-70,9,-34,-78,-97,-87,-53
-39,-87,-48,63,4,-68,9,-34,-78,-97,-97,-53
-43,-107,-63,75,9,-85,14,-43,-87,-107,-97,-63
-53,-107,-53,80,0,-80,24,-43,-82,-107,-97,-63
-53,-107,-53,80,0,-80,29,-43,-87,-107,-97,-68
-63,-117,-53,90,-4,-85,34,-43,-78,-107,-97,-68
-63,-117,-53,90,-4,-85,39,-34,-58,-97,-107,-68
-73,-117,-43,95,-14,-80,53,-19,-34,-78,-102,-68
-82,-92,-9,87,-36,-51,78,-14,14,-48,-87,-73
-82,-63,19,73,-51,-21,87,4,87,-4,-58,-58
-92,-24,68,58,-80,21,82,14,146,48,-39,-48
-97,9,107,43,-102,58,87,4,224,97,-9,-39
-112,73,185,19,-148,129,82,-43,302,175,34,-9
-126,161,287,-17,-207,224,48,-126,380,273,107,43
-146,248,395,-51,-270,322,0,-229,429,341,175,102
-161,322,483,-80,-322,402,-82,-356,429,395,244,156
-161,395,556,-117,-358,475,-190,-492,419,468,307,219
-141,483,624,-170,-383,553,-307,-575,419,527,380,283
-122,541,663,-209,-392,602,-405,-639,414,575,424,331
-92,570,663,-239,-378,617,-488,-692,370,580,448,346
-82,585,668,-251,-375,627,-556,-751,292,561,468,375
-78,610,688,-265,-383,649,-610,-810,248,551,478,419
-43,653,697,-305,-370,675,-683,-834,209,546,492,463
14,668,653,-341,-319,661,-736,-805,156,512,483,483
78,634,556,-356,-239,595,-775,-751,39,434,448,483
146,575,429,-361,-141,502,-834,-732,-97,317,405,483
219,541,322,-380,-51,431,-917,-761,-258,214,370,492
283,512,229,-397,26,370,-1010,-824,-400,117,351,527
346,473,126,-409,109,300,-1078,-849,-546,0,322,546
395,375,-19,-385,207,178,-1088,-795,-639,-112,278,536
419,263,-156,-341,287,53,-1024,-702,-712,-239,200,507
409,122,-287,-265,348,-82,-907,-561,-800,-380,102,444
380,-34,-414,-173,397,-224,-756,-434,-897,-492,4,356
322,-146,-468,-87,395,-307,-595,-326,-917,-556,-92,248
224,-219,-444,-2,334,-331,-448,-268,-863,-556,-141,170
136,-229,-366,46,251,-297,-322,-248,-736,-497,-146,126
73,-200,-273,63,173,-236,-234,-219,-580,-400,-126,87
29,-185,-214,78,122,-200,-151,-161,-453,-322,-126,39
14,-195,-209,90,112,-202,-82,-87,-351,-268,-136,-14
9,-185,-195,87,102,-190,-14,-19,-258,-204,-126,-53
0,-151,-151,75,75,-151,24,24,-161,-141,-117,-68
-14,-122,-107,68,46,-114,53,34,-112,-102,-92,-68
-29,-97,-68,63,19,-82,73,24,-87,-73,-78,-58
-43,-73,-29,58,-7,-51,63,9,-68,-63,-58,-39
-43,-53,-9,48,-17,-31,68,-9,-53,-53,-39,-24
-53,-34,19,43,-36,-7,63,-24,-43,-39,-29,-19
-58,-29,29,43,-43,0,53,-34,-39,-43,-29,-19
-48,-29,19,39,-34,-4,48,-34,-39,-43,-29,-14
-48,-19,29,34,-39,4,48,-29,-24,-29,-29,-14
-43,-14,29,29,-36,7,43,-29,-14,-29,-29,-14
-43,-9,34,26,-39,12,39,-29,-4,-19,-29,-14
-34,-19,14,26,-24,-2,29,-9,-14,-14,-34,-24
-29,-19,9,24,-19,-4,24,-4,-14,-14,-34,-24
-29,-14,14,21,-21,0,19,0,-9,-19,-34,-24
-24,-14,9,19,-17,-2,14,0,-9,-24,-34,-24
-24,-19,4,21,-14,-7,9,0,-19,-34,-48,-24
-24,-24,0,24,-12,-12,9,0,-19,-34,-53,-29
-24,-29,-4,26,-9,-17,14,0,-14,-34,-53,-34
-24,-39,-14,31,-4,-26,14,4,-14,-34,-53,-34
-24,-48,-24,36,0,-36,19,14,-24,-29,-43,-34
-24,-43,-19,34,-2,-31,24,14,-19,-29,-39,-34
-24,-43,-19,34,-2,-31,24,14,-19,-29,-39,-39
-24,-43,-19,34,-2,-31,24,14,-14,-29,-39,-39
-24,-48,-24,36,0,-36,29,19,-14,-39,-43,-48
-24,-53,-29,39,2,-41,29,19,-14,-39,-48,-48
-24,-63,-39,43,7,-51,29,19,-14,-39,-58,-48
-24,-68,-43,46,9,-56,24,19,-14,-39,-63,-48
-24,-78,-53,51,14,-65,34,19,-14,-39,-58,-58
-24,-73,-48,48,12,-61,34,19,-19,-43,-58,-58
-19,-73,-53,46,17,-63,29,19,-19,-43,-53,-58
-19,-73,-53,46,17,-63,24,19,-24,-48,-53,-58
-24,-82,-58,53,17,-70,24,19,-29,-53,-68,-58
-24,-87,-63,56,19,-75,24,19,-29,-58,-73,-63
-19,-87,-68,53,24,-78,29,24,-34,-63,-78,-68
-19,-92,-73,56,26,-82,34,24,-34,-63,-82,-73
-9,-92,-82,51,36,-87,43,24,-43,-63,-92,-82
-9,-87,-78,48,34,-82,43,24,-34,-63,-87,-78
-4,-87,-82,46,39,-85,39,29,-34,-63,-82,-78
-4,-87,-82,46,39,-85,39,29,-29,-63,-82,-78
-14,-87,-73,51,29,-80,43,24,-39,-68,-82,-78
-14,-87,-73,51,29,-80,48,29,-39,-68,-87,-78
-14,-97,-82,56,34,-90,53,34,-34,-68,-87,-78
-9,-87,-78,48,34,-82,58,34,-34,-68,-87,-73
-19,-78,-58,48,19,-68,73,24,-24,-63,-68,-68
-19,-78,-58,48,19,-68,78,29,-24,-48,-63,-63
-19,-73,-53,46,17,-63,78,29,-14,-39,-58,-58
-14,-73,-58,43,21,-65,82,29,-14,-34,-58,-53
-14,-53,-39,34,12,-46,82,29,-9,-39,-48,-58
-19,-53,-34,36,7,-43,73,29,-9,-34,-53,-58
-24,-53,-29,39,2,-41,73,29,-9,-34,-58,-58
-29,-53,-24,41,-2,-39,73,29,-9,-34,-58,-58
-29,-39,-9,34,-9,-24,78,39,-4,-29,-53,-48
-29,-39,-9,34,-9,-24,82,39,0,-14,-48,-48
-29,-39,-9,34,-9,-24,92,39,4,-9,-39,-48
-29,-39,-9,34,-9,-24,97,43,9,-9,-34,-48
-29,-39,-9,34,-9,-24,87,34,19,-9,-29,-39
-29,-34,-4,31,-12,-19,87,43,19,-14,-29,-39
-24,-34,-9,29,-7,-21,87,43,19,-14,-29,-39
-24,-34,-9,29,-7,-21,87,43,29,-14,-34,-39
-34,-34,0,34,-17,-17,78,43,34,-4,-34,-39
-34,-34,0,34,-17,-17,78,48,39,9,-29,-39
-34,-34,0,34,-17,-17,78,48,39,19,-29,-39
-34,-34,0,34,-17,-17,78,53,39,24,-24,-34
-24,-29,-4,26,-9,-17,68,63,43,24,-9,-24
-24,-29,-4,26,-9,-17,68,63,48,24,-9,-24
-24,-29,-4,26,-9,-17,68,68,58,24,-9,-24
-19,-24,-4,21,-7,-14,63,73,63,24,-9,-24
-19,-14,4,17,-12,-4,53,63,53,34,0,-24
-14,-14,0,14,-7,-7,53,68,58,43,0,-24
-9,-9,0,9,-4,-4,53,68,58,48,4,-24
-9,-4,4,7,-7,0,58,78,68,53,4,-24
4,0,-4,-2,4,-2,53,92,73,68,19,-14
4,4,0,-4,2,2,48,92,78,68,24,-9
9,19,9,-14,0,14,48,97,87,68,24,-9
14,24,9,-19,2,17,43,102,92,68,24,-9
24,34,9,-29,7,21,43,107,112,73,24,-9
24,43,19,-34,2,31,43,112,112,82,29,-9
34,48,14,-41,9,31,43,117,122,82,34,-4
39,53,14,-46,12,34,43,122,122,87,39,-4
39,58,19,-48,9,39,53,136,131,102,48,4
39,63,24,-51,7,43,53,146,136,107,53,9
43,68,24,-56,9,46,48,146,136,107,53,9
43,73,29,-58,7,51,48,156,146,112,53,9
53,92,39,-73,7,65,39,170,165,122,58,24
58,102,43,-80,7,73,43,170,165,122,63,24
63,107,43,-85,9,75,43,170,170,131,73,29
73,122,48,-97,12,85,48,180,175,136,78,29
82,131,48,-107,17,90,48,190,180,141,97,39
87,131,43,-109,21,87,48,195,185,146,97,39
92,136,43,-114,24,90,53,204,190,156,97,39
102,136,34,-119,34,85,63,219,190,161,97,39
112,126,14,-119,48,70,63,234,195,165,92,34
112,131,19,-122,46,75,63,239,200,170,92,34
117,131,14,-124,51,73,58,244,204,170,92,39
117,136,19,-126,48,78,63,248,204,180,97,39
122,131,9,-126,56,70,63,263,200,170,107,29
126,126,0,-126,63,63,63,273,195,170,107,29
126,126,0,-126,63,63,58,278,190,170,107,34
131,122,-9,-126,70,56,58,287,190,170,107,34
146,117,-29,-131,87,43,48,302,175,170,102,24
151,112,-39,-131,95,36,43,307,175,165,102,24
156,112,-43,-134,100,34,43,312,180,170,97,24
161,107,-53,-134,107,26,43,322,180,165,97,29
175,112,-63,-143,119,24,43,346,180,165,107,19
180,107,-73,-143,126,17,43,346,175,165,107,19
185,102,-82,-143,134,9,48,351,170,165,112,24
190,102,-87,-146,139,7,48,361,165,165,112,24
204,92,-112,-148,158,-9,48,356,156,156,102,14
214,92,-122,-153,168,-14,48,361,146,156,102,14
219,92,-126,-156,173,-17,43,366,141,161,102,14
224,97,-126,-161,175,-14,43,375,136,165,102,14
219,92,-126,-156,173,-17,48,370,136,170,112,24
224,92,-131,-158,178,-19,48,375,136,170,117,34
234,92,-141,-163,187,-24,43,380,136,170,122,34
239,87,-151,-163,195,-31,39,385,136,170,122,34
239,78,-161,-158,200,-41,34,385,126,170,117,24
239,82,-156,-161,197,-36,29,380,126,175,117,29
239,82,-156,-161,197,-36,24,385,122,175,117,29
239,82,-156,-161,197,-36,19,380,117,175,122,29
244,92,-151,-168,197,-29,9,370,122,185,136,39
248,97,-151,-173,200,-26,4,375,117,190,141,43
258,97,-161,-178,209,-31,0,380,117,190,141,53
263,97,-165,-180,214,-34,-14,385,112,190,146,53
263,97,-165,-180,214,-34,-9,380,107,185,136,53
263,97,-165,-180,214,-34,-14,375,102,185,136,53
263,97,-165,-180,214,-34,-14,370,102,185,136,58
263,97,-165,-180,214,-34,-19,366,97,185,136,58
263,97,-165,-180,214,-34,-9,361,102,185,141,63
263,102,-161,-183,212,-29,-14,356,92,185,146,63
263,102,-161,-183,212,-29,-14,351,87,190,146,68
258,107,-151,-183,204,-21,-14,341,87,190,146,68
244,112,-131,-178,187,-9,-29,322,92,185,141,73
244,112,-131,-178,187,-9,-43,312,92,180,141,73
239,112,-126,-175,183,-7,-48,302,92,175,136,78
234,112,-122,-173,178,-4,-53,292,87,170,136,82
214,112,-102,-163,158,4,-73,278,87,165,131,73
209,117,-92,-163,151,12,-78,263,87,165,131,73
204,117,-87,-161,146,14,-87,244,82,165,131,73
200,117,-82,-158,141,17,-87,224,78,165,131,73
180,117,-63,-148,122,26,-102,200,78,146,117,68
170,117,-53,-143,112,31,-107,190,78,146,117,68
161,117,-43,-139,102,36,-117,175,73,141,117,68
151,112,-39,-131,95,36,-122,161,68,136,112,63
136,102,-34,-119,85,34,-112,146,68,126,102,63
131,102,-29,-117,80,36,-112,131,63,122,97,63
117,97,-19,-107,68,39,-117,117,63,122,97,63
102,92,-9,-97,56,41,-117,107,58,117,92,63
92,82,-9,-87,51,36,-112,97,63,102,87,53
87,78,-9,-82,48,34,-112,82,63,97,87,53
78,73,-4,-75,41,34,-107,68,58,87,82,48
68,73,4,-70,31,39,-102,53,58,87,78,48
68,82,14,-75,26,48,-92,48,63,92,82,48
58,82,24,-70,17,53,-92,39,58,87,78,43
48,73,24,-61,12,48,-87,34,53,82,73,43
39,68,29,-53,4,48,-87,29,53,78,73,43
34,63,29,-48,2,46,-87,29,48,53,58,34
34,58,24,-46,4,41,-87,19,43,53,53,34
29,53,24,-41,2,39,-82,9,39,43,48,29
24,48,24,-36,0,36,-78,0,39,39,43,24
24,43,19,-34,2,31,-68,4,24,39,39,24
14,39,24,-26,-4,31,-68,0,24,34,34,24
9,34,24,-21,-7,29,-68,-4,24,29,29,24
4,29,24,-17,-9,26,-63,-9,29,24,24,29
4,19,14,-12,-4,17,-58,0,19,19,14,24
0,19,19,-9,-9,19,-53,-4,19,19,14,14
0,14,14,-7,-7,14,-48,-9,19,19,9,4
-9,9,19,0,-14,14,-43,-24,19,19,4,0
-4,0,4,2,-4,2,-53,-14,9,9,4,-14
-9,0,9,4,-9,4,-48,-19,9,9,0,-14
-14,-4,9,9,-12,2,-43,-19,4,0,0,-14
-14,-9,4,12,-9,-2,-39,-19,4,-4,0,-19
-19,-24,-4,21,-7,-14,-39,-24,0,-14,-14,-29
-24,-29,-4,26,-9,-17,-34,-29,-4,-19,-19,-29
-29,-29,0,29,-14,-14,-34,-34,-4,-24,-19,-29
-29,-34,-4,31,-12,-19,-34,-34,-4,-29,-24,-34
-19,-48,-29,34,4,-39,-29,-24,-14,-29,-29,-34
-24,-58,-34,41,4,-46,-29,-24,-19,-34,-34,-39
-24,-58,-34,41,4,-46,-29,-29,-24,-34,-34,-39
-24,-58,-34,41,4,-46,-29,-29,-24,-34,-34,-39
-24,-68,-43,46,9,-56,-19,-29,-24,-48,-43,-43
-29,-68,-39,48,4,-53,-19,-29,-34,-53,-43,-43
-29,-68,-39,48,4,-53,-19,-34,-34,-53,-43,-43
-24,-68,-43,46,9,-56,-19,-34,-34,-53,-43,-43
-24,-78,-53,51,14,-65,-14,-24,-34,-58,-58,-43
-24,-78,-53,51,14,-65,-9,-24,-34,-58,-58,-48
-24,-78,-53,51,14,-65,-9,-24,-34,-58,-58,-48
-24,-78,-53,51,14,-65,-4,-24,-39,-63,-63,-43
-34,-87,-53,61,9,-70,9,-24,-48,-63,-63,-43
-34,-92,-58,63,12,-75,9,-24,-48,-63,-63,-48
-29,-92,-63,61,17,-78,14,-24,-43,-63,-63,-48
-29,-92,-63,61,17,-78,19,-24,-43,-68,-63,-48
-34,-102,-68,68,17,-85,24,-24,-39,-68,-63,-58
-39,-97,-58,68,9,-78,29,-24,-39,-68,-58,-58
-43,-92,-48,68,2,-70,43,-24,-39,-68,-58,-53
-48,-87,-39,68,-4,-63,58,-24,-39,-63,-63,-53
-63,-97,-34,80,-14,-65,68,-34,-34,-73,-63,-63
-68,-97,-29,82,-19,-63,73,-39,-34,-73,-63,-63
-68,-102,-34,85,-17,-68,73,-39,-39,-73,-63,-68
-68,-112,-43,90,-12,-78,73,-39,-39,-73,-63,-68
-82,-122,-39,102,-21,-80,87,-39,-39,-73,-73,-68
-82,-126,-43,104,-19,-85,87,-39,-43,-73,-73,-68
-87,-126,-39,107,-24,-82,92,-39,-43,-73,-73,-73
-87,-126,-39,107,-24,-82,102,-39,-48,-73,-68,-73
-87,-126,-39,107,-24,-82,97,-39,-58,-82,-78,-82
-87,-126,-39,107,-24,-82,92,-43,-58,-82,-78,-78
-87,-131,-43,109,-21,-87,92,-48,-53,-82,-78,-78
-87,-136,-48,112,-19,-92,87,-53,-48,-82,-78,-78
-87,-126,-39,107,-24,-82,78,-63,-58,-82,-78,-78
-87,-126,-39,107,-24,-82,68,-63,-63,-87,-78,-73
-87,-122,-34,104,-26,-78,58,-63,-63,-87,-78,-73
-92,-122,-29,107,-31,-75,48,-63,-63,-87,-82,-73
-82,-112,-29,97,-26,-70,39,-63,-58,-87,-78,-63
-82,-107,-24,95,-29,-65,29,-68,-53,-82,-78,-68
-82,-107,-24,95,-29,-65,24,-68,-48,-82,-78,-68
-82,-102,-19,92,-31,-61,14,-68,-48,-78,-73,-73
-73,-97,-24,85,-24,-61,14,-68,-48,-78,-63,-63
-73,-102,-29,87,-21,-65,9,-68,-43,-73,-63,-58
-73,-97,-24,85,-24,-61,9,-68,-43,-68,-58,-58
-73,-97,-24,85,-24,-61,4,-68,-43,-63,-53,-53
-73,-92,-19,82,-26,-56,4,-68,-43,-53,-48,-43
-73,-87,-14,80,-29,-51,4,-73,-39,-53,-48,-43
-73,-82,-9,78,-31,-46,4,-78,-34,-58,-53,-43
-73,-78,-4,75,-34,-41,4,-78,-29,-58,-53,-48
-68,-78,-9,73,-29,-43,4,-68,-29,-58,-53,-43
-68,-73,-4,70,-31,-39,4,-68,-29,-58,-48,-43
-68,-73,-4,70,-31,-39,0,-68,-29,-58,-43,-39
-68,-73,-4,70,-31,-39,0,-73,-34,-58,-43,-34
-58,-68,-9,63,-24,-39,0,-63,-24,-48,-34,-34
-58,-63,-4,61,-26,-34,0,-63,-19,-48,-34,-34
-58,-53,4,56,-31,-24,0,-63,-19,-48,-34,-34
-58,-43,14,51,-36,-14,0,-63,-19,-48,-34,-34
-48,-39,9,43,-29,-14,0,-63,-19,-39,-34,-29
-58,-34,24,46,-41,-4,0,-63,-19,-39,-34,-29
-58,-34,24,46,-41,-4,0,-63,-19,-39,-34,-29
-58,-34,24,46,-41,-4,0,-68,-19,-39,-34,-34
-58,-43,14,51,-36,-14,0,-58,-19,-39,-43,-24
-58,-39,19,48,-39,-9,0,-58,-19,-39,-39,-24
-58,-39,19,48,-39,-9,0,-58,-19,-39,-39,-24
-58,-39,19,48,-39,-9,0,-58,-19,-39,-34,-19
-73,-48,24,61,-48,-12,4,-58,-19,-48,-43,-29
-73,-53,19,63,-46,-17,9,-58,-19,-48,-43,-29
-73,-53,19,63,-46,-17,14,-58,-19,-48,-43,-29
-73,-53,19,63,-46,-17,19,-58,-19,-48,-43,-29
-78,-58,19,68,-48,-19,24,-68,-29,-58,-53,-34
-78,-63,14,70,-46,-24,24,-68,-29,-53,-53,-34
-78,-68,9,73,-43,-29,24,-68,-29,-53,-53,-34
-78,-73,4,75,-41,-34,24,-68,-29,-53,-53,-34
-68,-73,-4,70,-31,-39,24,-58,-29,-58,-48,-34
-73,-73,0,73,-36,-36,24,-58,-29,-58,-48,-34
-73,-73,0,73,-36,-36,24,-53,-29,-58,-48,-34
-68,-73,-4,70,-31,-39,24,-53,-34,-58,-53,-34
-58,-63,-4,61,-26,-34,24,-53,-34,-58,-53,-34
-58,-63,-4,61,-26,-34,24,-53,-34,-58,-53,-34
-58,-63,-4,61,-26,-34,24,-53,-34,-63,-53,-34
-58,-63,-4,61,-26,-34,24,-53,-34,-63,-53,-34
-58,-63,-4,61,-26,-34,29,-53,-39,-63,-63,-34
-53,-68,-14,61,-19,-41,29,-53,-39,-63,-63,-34
-53,-73,-19,63,-17,-46,29,-53,-43,-68,-63,-34
-48,-73,-24,61,-12,-48,29,-53,-48,-68,-63,-39
-39,-73,-34,56,-2,-53,34,-39,-58,-78,-73,-48
-39,-73,-34,56,-2,-53,29,-39,-58,-82,-68,-48
-39,-73,-34,56,-2,-53,29,-39,-58,-82,-68,-43
-39,-78,-39,58,0,-58,29,-39,-58,-82,-68,-43
-39,-87,-48,63,4,-68,39,-39,-63,-78,-68,-53
-39,-87,-48,63,4,-68,43,-39,-63,-78,-68,-53
-39,-92,-53,65,7,-73,43,-39,-63,-78,-73,-53
-39,-92,-53,65,7,-73,43,-39,-68,-82,-73,-53
-48,-92,-43,70,-2,-68,48,-29,-68,-92,-73,-58
-48,-92,-43,70,-2,-68,53,-29,-68,-92,-78,-58
-48,-97,-48,73,0,-73,58,-29,-68,-92,-78,-58
-53,-97,-43,75,-4,-70,63,-34,-68,-92,-73,-63
-63,-107,-43,85,-9,-75,78,-24,-58,-87,-73,-63
-63,-107,-43,85,-9,-75,87,-24,-58,-87,-73,-63
-63,-112,-48,87,-7,-80,92,-24,-58,-87,-78,-63
-63,-112,-48,87,-7,-80,97,-29,-58,-87,-78,-63
-68,-122,-53,95,-7,-87,112,-29,-63,-87,-78,-58
-73,-126,-53,100,-9,-90,117,-29,-63,-87,-78,-63
-73,-126,-53,100,-9,-90,122,-29,-63,-87,-78,-63
-73,-131,-58,102,-7,-95,126,-29,-63,-92,-78,-63
-82,-141,-58,112,-12,-100,126,-39,-73,-92,-78,-63
-82,-141,-58,112,-12,-100,122,-43,-73,-92,-78,-63
-82,-141,-58,112,-12,-100,126,-43,-73,-92,-78,-68
-87,-141,-53,114,-17,-97,122,-43,-73,-92,-82,-68
-78,-141,-63,109,-7,-102,112,-53,-73,-92,-82,-68
-78,-141,-63,109,-7,-102,102,-53,-73,-92,-82,-68
-78,-146,-68,112,-4,-107,92,-53,-78,-92,-82,-68
-78,-146,-68,112,-4,-107,68,-53,-78,-92,-82,-68
-78,-136,-58,107,-9,-97,43,-63,-73,-92,-82,-68
-78,-131,-53,104,-12,-92,39,-63,-68,-92,-82,-68
-78,-131,-53,104,-12,-92,39,-63,-63,-92,-87,-68
-78,-126,-48,102,-14,-87,39,-63,-63,-92,-87,-68
-68,-122,-53,95,-7,-87,24,-73,-53,-87,-87,-58
-68,-112,-43,90,-12,-78,24,-73,-53,-82,-82,-58
-68,-107,-39,87,-14,-73,19,-68,-53,-82,-82,-58
-68,-97,-29,82,-19,-63,14,-68,-53,-78,-78,-58
-63,-82,-19,73,-21,-51,14,-58,-53,-73,-78,-48
-63,-82,-19,73,-21,-51,9,-58,-48,-73,-82,-53
-63,-78,-14,70,-24,-46,4,-58,-43,-73,-78,-53
-63,-73,-9,68,-26,-41,0,-58,-43,-68,-73,-58
-53,-58,-4,56,-24,-31,0,-58,-43,-63,-58,-58
-53,-58,-4,56,-24,-31,0,-58,-43,-63,-58,-53
-53,-58,-4,56,-24,-31,0,-58,-43,-68,-58,-48
-53,-58,-4,56,-24,-31,0,-58,-43,-68,-53,-43
-48,-58,-9,53,-19,-34,9,-58,-43,-58,-53,-34
-48,-58,-9,53,-19,-34,9,-58,-43,-58,-53,-34
-48,-53,-4,51,-21,-29,0,-58,-43,-58,-48,-29
-53,-53,0,53,-26,-26,-9,-58,-43,-53,-43,-29
-53,-48,4,51,-29,-21,0,-48,-43,-53,-43,-34
-53,-48,4,51,-29,-21,0,-48,-43,-48,-43,-24
-53,-43,9,48,-31,-17,0,-48,-39,-53,-39,-24
-53,-43,9,48,-31,-17,4,-48,-34,-48,-39,-24
-43,-48,-4,46,-19,-26,-4,-48,-39,-58,-48,-29
-39,-39,0,39,-19,-19,0,-48,-39,-58,-43,-24
-39,-39,0,39,-19,-19,0,-48,-29,-53,-39,-24
-43,-34,9,39,-26,-12,0,-48,-29,-53,-39,-24
-53,-34,19,43,-36,-7,9,-48,-39,-53,-43,-29
-48,-39,9,43,-29,-14,9,-48,-39,-48,-43,-29
-48,-39,9,43,-29,-14,9,-53,-39,-43,-43,-29
-48,-43,4,46,-26,-19,14,-53,-43,-43,-43,-29
-48,-48,0,48,-24,-24,14,-53,-39,-43,-53,-39
-48,-48,0,48,-24,-24,9,-53,-39,-48,-48,-39
-43,-48,-4,46,-19,-26,9,-53,-39,-48,-48,-34
-43,-48,-4,46,-19,-26,9,-53,-39,-53,-48,-34
-53,-58,-4,56,-24,-31,4,-53,-39,-63,-48,-34
-53,-58,-4,56,-24,-31,9,-53,-39,-63,-48,-34
-53,-58,-4,56,-24,-31,14,-53,-39,-63,-48,-34
-48,-58,-9,53,-19,-34,14,-48,-39,-63,-48,-34
-39,-48,-9,43,-14,-29,24,-48,-48,-68,-58,-43
-39,-48,-9,43,-14,-29,24,-48,-48,-68,-58,-43
-39,-48,-9,43,-14,-29,24,-48,-53,-68,-58,-43
-39,-53,-14,46,-12,-34,24,-48,-53,-73,-58,-43
-39,-53,-14,46,-12,-34,14,-48,-53,-63,-58,-43
-34,-53,-19,43,-7,-36,24,-48,-53,-73,-58,-43
-34,-63,-29,48,-2,-46,24,-48,-63,-73,-58,-43
-34,-63,-29,48,-2,-46,24,-48,-68,-73,-68,-53
-39,-68,-29,53,-4,-48,19,-48,-68,-78,-68,-58
-48,-73,-24,61,-12,-48,19,-58,-73,-87,-78,-58
-48,-78,-29,63,-9,-53,19,-58,-78,-87,-78,-58
-48,-82,-34,65,-7,-58,19,-58,-82,-87,-78,-58
-48,-87,-39,68,-4,-63,19,-58,-87,-87,-78,-58
-48,-87,-39,68,-4,-63,24,-58,-78,-87,-78,-58
-48,-87,-39,68,-4,-63,24,-63,-78,-92,-82,-58
-48,-92,-43,70,-2,-68,24,-63,-82,-92,-82,-58
-48,-92,-43,70,-2,-68,29,-63,-82,-92,-82,-58
-58,-82,-24,70,-17,-53,39,-63,-73,-87,-78,-53
-58,-87,-29,73,-14,-58,39,-63,-73,-87,-73,-48
-58,-87,-29,73,-14,-58,43,-63,-73,-82,-68,-43
-58,-87,-29,73,-14,-58,43,-63,-73,-78,-63,-39
-58,-78,-19,68,-19,-48,39,-53,-63,-68,-53,-29
-63,-78,-14,70,-24,-46,43,-53,-63,-68,-53,-29
-63,-78,-14,70,-24,-46,48,-58,-68,-68,-58,-29
-63,-78,-14,70,-24,-46,53,-58,-68,-68,-58,-29
-73,-87,-14,80,-29,-51,68,-58,-68,-78,-63,-39
-73,-87,-14,80,-29,-51,68,-58,-68,-78,-63,-39
-78,-87,-9,82,-34,-48,68,-58,-68,-78,-63,-39
-78,-87,-9,82,-34,-48,63,-58,-68,-78,-63,-43
-78,-92,-14,85,-31,-53,73,-68,-78,-78,-73,-43
-78,-97,-19,87,-29,-58,73,-63,-78,-78,-73,-43
-78,-102,-24,90,-26,-63,73,-63,-78,-78,-78,-43
-78,-107,-29,92,-24,-68,78,-63,-73,-78,-78,-43
-87,-117,-29,102,-29,-73,82,-53,-73,-78,-78,-48
-87,-117,-29,102,-29,-73,92,-58,-73,-78,-78,-53
-92,-117,-24,104,-34,-70,97,-58,-73,-78,-78,-58
-92,-117,-24,104,-34,-70,102,-58,-73,-78,-78,-63
-102,-126,-24,114,-39,-75,112,-48,-82,-87,-82,-73
-102,-131,-29,117,-36,-80,117,-48,-78,-87,-82,-73
-102,-131,-29,117,-36,-80,126,-48,-78,-87,-82,-73
-102,-131,-29,117,-36,-80,131,-48,-78,-87,-82,-73
-112,-141,-29,126,-41,-85,146,-48,-78,-87,-87,-68
-112,-141,-29,126,-41,-85,146,-48,-78,-87,-87,-68
-107,-141,-34,124,-36,-87,146,-48,-78,-87,-87,-68
-107,-141,-34,124,-36,-87,146,-48,-78,-87,-87,-68
-97,-136,-39,117,-29,-87,131,-53,-68,-78,-78,-58
-97,-131,-34,114,-31,-82,126,-53,-68,-78,-73,-58
-97,-126,-29,112,-34,-78,122,-53,-68,-78,-73,-58
-97,-122,-24,109,-36,-73,112,-53,-68,-78,-73,-58
-82,-107,-24,95,-29,-65,97,-53,-58,-73,-68,-53
-78,-97,-19,87,-29,-58,82,-53,-58,-68,-63,-48
-73,-87,-14,80,-29,-51,63,-53,-58,-63,-58,-43
-68,-78,-9,73,-29,-43,43,-53,-58,-58,-53,-39
-53,-63,-9,58,-21,-36,24,-53,-58,-48,-48,-34
-48,-58,-9,53,-19,-34,9,-53,-53,-48,-43,-29
-43,-53,-9,48,-17,-31,-4,-53,-48,-48,-39,-24
-39,-48,-9,43,-14,-29,-19,-53,-43,-48,-34,-19
-39,-43,-4,41,-17,-24,-29,-53,-43,-39,-29,-9
-39,-39,0,39,-19,-19,-29,-53,-43,-39,-29,-9
-39,-34,4,36,-21,-14,-29,-58,-39,-39,-29,-9
-39,-29,9,34,-24,-9,-29,-58,-39,-39,-29,-9
-39,-29,9,34,-24,-9,-24,-58,-39,-29,-29,-19
-39,-29,9,34,-24,-9,-29,-58,-39,-29,-29,-19
-39,-29,9,34,-24,-9,-34,-58,-39,-29,-29,-19
-34,-24,9,29,-21,-7,-34,-58,-43,-29,-29,-19
-24,-24,0,24,-12,-12,-29,-58,-43,-39,-39,-29
-24,-24,0,24,-12,-12,-29,-58,-43,-39,-34,-24
-24,-24,0,24,-12,-12,-34,-58,-43,-39,-34,-24
-24,-24,0,24,-12,-12,-39,-58,-43,-39,-34,-24
-34,-29,4,31,-19,-12,-39,-68,-43,-48,-43,-24
-34,-34,0,34,-17,-17,-39,-73,-48,-48,-43,-24
-34,-39,-4,36,-14,-21,-39,-73,-48,-48,-43,-24
-34,-43,-9,39,-12,-26,-39,-73,-48,-48,-43,-24
-43,-48,-4,46,-19,-26,-29,-73,-53,-58,-53,-24
-43,-53,-9,48,-17,-31,-29,-73,-58,-63,-53,-24
-43,-68,-24,56,-9,-46,-29,-73,-63,-63,-53,-24
-43,-73,-29,58,-7,-51,-24,-73,-73,-63,-53,-24
-58,-82,-24,70,-17,-53,-24,-73,-73,-63,-53,-24
-58,-82,-24,70,-17,-53,-24,-73,-73,-63,-53,-29
-53,-78,-24,65,-14,-51,-24,-73,-73,-63,-58,-29
-53,-78,-24,65,-14,-51,-24,-73,-73,-63,-58,-29
-53,-78,-24,65,-14,-51,-24,-73,-68,-63,-58,-29
-48,-78,-29,63,-9,-53,-24,-73,-68,-63,-58,-24
-48,-78,-29,63,-9,-53,-24,-73,-68,-63,-58,-24
-48,-78,-29,63,-9,-53,-24,-73,-68,-63,-58,-29
-48,-68,-19,58,-14,-43,-19,-63,-63,-58,-48,-39
-48,-63,-14,56,-17,-39,-14,-63,-63,-58,-53,-39
-53,-58,-4,56,-24,-31,-9,-63,-58,-53,-53,-39
-53,-53,0,53,-26,-26,-4,-63,-53,-48,-53,-39
-53,-43,9,48,-31,-17,4,-63,-43,-39,-43,-34
-53,-48,4,51,-29,-21,9,-63,-48,-39,-43,-34
-53,-48,4,51,-29,-21,14,-63,-48,-39,-43,-43
-58,-48,9,53,-34,-19,19,-63,-48,-39,-48,-43
-53,-39,14,46,-34,-12,24,-63,-39,-39,-48,-34
-63,-39,24,51,-43,-7,34,-53,-34,-39,-39,-34
-53,-39,14,46,-34,-12,39,-53,-29,-39,-39,-29
-53,-39,14,46,-34,-12,43,-43,-19,-39,-39,-29
-53,-48,4,51,-29,-21,48,-34,-9,-29,-39,-29
-53,-48,4,51,-29,-21,53,-29,14,-19,-43,-29
-63,-43,19,53,-41,-12,58,-24,34,0,-39,-24
-63,-24,39,43,-51,7,58,-24,68,24,-29,-19
-63,14,78,24,-70,46,53,-34,107,58,0,0
-58,39,97,9,-78,68,29,-34,165,107,29,9
-63,92,156,-14,-109,124,14,-53,234,156,63,29
-68,161,229,-46,-148,195,-29,-97,302,244,117,63
-78,258,336,-90,-207,297,-87,-180,370,331,185,122
-82,331,414,-124,-248,373,-151,-297,400,405,253,175
-92,395,488,-151,-290,441,-248,-434,380,458,317,239
-82,483,566,-200,-324,524,-375,-546,361,507,380,302
-53,551,605,-248,-329,578,-502,-639,356,566,463,361
4,619,614,-312,-305,617,-624,-683,341,619,497,414
34,644,610,-339,-287,627,-712,-712,273,619,527,444
58,658,600,-358,-270,629,-805,-761,200,600,536,478
73,692,619,-383,-273,656,-868,-805,151,585,551,512
122,727,605,-424,-241,666,-941,-814,117,570,561,551
175,741,566,-458,-195,653,-1000,-780,68,541,556,570
253,712,458,-483,-102,585,-1049,-732,-29,453,512,570
326,658,331,-492,-2,495,-1093,-702,-170,351,468,561
390,629,239,-509,75,434,-1166,-717,-312,253,439,566
453,590,136,-522,158,363,-1263,-771,-468,146,409,595
522,531,9,-527,256,270,-1312,-795,-600,24,366,605
556,439,-117,-497,336,161,-1317,-761,-692,-92,307,585
556,326,-229,-441,392,48,-1249,-668,-761,-224,239,551
536,180,-356,-358,446,-87,-1127,-541,-849,-356,131,483
507,39,-468,-273,488,-214,-976,-405,-927,-478,24,385
429,-92,-522,-168,475,-307,-790,-297,-941,-536,-73,278
312,-161,-473,-75,392,-317,-634,-258,-883,-536,-126,185
209,-190,-400,-9,305,-295,-488,-239,-756,-488,-146,126
126,-185,-312,29,219,-248,-375,-209,-610,-400,-136,87
82,-195,-278,56,180,-236,-287,-156,-488,-336,-136,24
48,-204,-253,78,151,-229,-209,-97,-385,-292,-156,-34
29,-200,-229,85,129,-214,-151,-43,-297,-239,-156,-78
14,-180,-195,82,104,-187,-102,-14,-219,-180,-141,-87
-9,-165,-156,87,73,-161,-63,-4,-165,-141,-126,-87
-34,-151,-117,92,41,-134,-53,-19,-146,-122,-107,-78
-53,-131,-78,92,12,-104,-39,-39,-131,-102,-87,-53
-63,-122,-58,92,-2,-90,-34,-53,-112,-87,-78,-48
-78,-117,-39,97,-19,-78,-24,-63,-97,-82,-58,-29
-87,-107,-19,97,-34,-63,-14,-53,-87,-82,-58,-24
-87,-97,-9,92,-39,-53,-9,-48,-73,-68,-58,-24
-82,-92,-9,87,-36,-51,-9,-48,-63,-68,-58,-24
-82,-87,-4,85,-39,-46,-9,-48,-53,-58,-58,-24
-73,-78,-4,75,-34,-41,0,-39,-48,-48,-48,-19
-68,-78,-9,73,-29,-43,4,-34,-43,-43,-43,-14
-68,-73,-4,70,-31,-39,9,-29,-34,-43,-39,-9
-63,-73,-9,68,-26,-41,14,-29,-29,-43,-34,-4
-53,-68,-14,61,-19,-41,29,-19,-24,-34,-29,4
-53,-63,-9,58,-21,-36,29,-19,-19,-34,-34,0
-53,-58,-4,56,-24,-31,34,-19,-9,-34,-34,-4
-53,-58,-4,56,-24,-31,34,-14,-4,-34,-34,-4
-53,-43,9,48,-31,-17,48,-14,0,-24,-24,-4
-53,-34,19,43,-36,-7,53,-14,9,-19,-19,-4
-53,-29,24,41,-39,-2,53,-14,14,-14,-19,-9
-53,-24,29,39,-41,2,53,-14,24,-9,-19,-9
-53,-19,34,36,-43,7,68,-9,24,0,-29,-19
-53,-14,39,34,-46,12,68,-9,24,0,-29,-19
-53,-14,39,34,-46,12,68,-9,24,0,-34,-19
-53,-9,43,31,-48,17,63,-9,24,0,-34,-19
-53,-19,34,36,-43,7,73,-9,29,-4,-29,-24
-53,-14,39,34,-46,12,73,-9,29,-4,-29,-29
-48,-14,34,31,-41,9,68,-9,34,0,-24,-34
-48,-14,34,31,-41,9,63,-9,34,0,-24,-39
-63,-14,48,39,-56,17,73,0,24,-9,-34,-34
-63,-19,43,41,-53,12,73,0,29,-9,-34,-34
-58,-19,39,39,-48,9,78,4,29,-9,-34,-34
-58,-24,34,41,-46,4,82,4,34,-4,-34,-34
-68,-34,34,51,-51,0,87,14,24,-4,-43,-43
-68,-29,39,48,-53,4,92,14,34,-4,-39,-39
-63,-29,34,46,-48,2,92,19,34,-4,-34,-39
-63,-29,34,46,-48,2,97,19,39,-4,-34,-39
-63,-39,24,51,-43,-7,102,24,29,-19,-34,-39
-63,-39,24,51,-43,-7,107,29,29,-19,-39,-39
-63,-48,14,56,-39,-17,112,34,34,-19,-39,-39
-58,-39,19,48,-39,-9,117,34,34,-19,-39,-34
-68,-39,29,53,-48,-4,122,34,34,-19,-34,-43
-68,-39,29,53,-48,-4,126,39,34,-9,-34,-43
-68,-34,34,51,-51,0,126,39,43,-4,-34,-43
-63,-34,29,48,-46,-2,131,39,43,-4,-39,-43
-48,-34,14,41,-31,-9,141,48,39,-9,-29,-39
-48,-34,14,41,-31,-9,131,48,39,-4,-34,-39
-48,-34,14,41,-31,-9,131,48,39,-4,-39,-39
-48,-34,14,41,-31,-9,131,48,39,-4,-39,-39
-39,-29,9,34,-24,-9,122,48,48,-4,-29,-39
-39,-29,9,34,-24,-9,122,48,48,4,-29,-39
-39,-29,9,34,-24,-9,126,48,48,4,-24,-39
-39,-29,9,34,-24,-9,126,53,48,0,-24,-39
-39,-29,9,34,-24,-9,136,53,58,9,-19,-29
-39,-24,14,31,-26,-4,136,63,58,4,-19,-29
-34,-24,9,29,-21,-7,136,63,58,4,-19,-29
-34,-24,9,29,-21,-7,136,63,68,4,-24,-29
-24,-24,0,24,-12,-12,126,73,63,9,-24,-29
-24,-24,0,24,-12,-12,126,78,68,19,-19,-29
-24,-24,0,24,-12,-12,126,78,68,24,-19,-29
-24,-24,0,24,-12,-12,126,82,68,24,-14,-24
-24,-29,-4,26,-9,-17,117,82,68,14,-19,-34
-24,-29,-4,26,-9,-17,117,82,68,14,-19,-34
-24,-29,-4,26,-9,-17,117,87,73,14,-19,-34
-19,-24,-4,21,-7,-14,112,92,73,14,-19,-34
-19,-24,-4,21,-7,-14,97,82,63,9,-29,-43
-14,-24,-9,19,-2,-17,92,87,68,14,-29,-43
-9,-19,-9,14,0,-14,87,87,68,14,-24,-43
-9,-14,-4,12,-2,-9,87,97,78,14,-24,-43
-4,-4,0,4,-2,-2,68,102,78,19,-19,-43
-4,-4,0,4,-2,-2,58,102,78,19,-14,-39
0,4,4,-2,-2,4,53,107,82,19,-14,-39
4,4,0,-4,2,2,43,112,82,19,-14,-39
4,4,0,-4,2,2,39,107,92,34,-14,-29
4,14,9,-9,-2,12,34,112,92,43,-9,-29
14,19,4,-17,4,12,29,117,102,43,-4,-24
19,24,4,-21,7,14,24,122,102,48,0,-24
9,34,24,-21,-7,29,24,117,112,53,4,-14
9,34,24,-21,-7,29,24,126,117,58,14,-9
14,34,19,-24,-2,26,19,126,117,58,19,-9
14,34,19,-24,-2,26,19,136,126,63,24,-9
19,39,19,-29,0,29,19,131,146,73,24,-4
19,43,24,-31,-2,34,24,131,146,73,24,-4
19,43,24,-31,-2,34,24,131,151,82,29,0
24,53,29,-39,-2,41,29,141,156,87,29,0
29,63,34,-46,-2,48,19,146,170,87,39,0
29,63,34,-46,-2,48,19,146,175,87,39,0
29,68,39,-48,-4,53,24,151,180,92,39,0
34,68,34,-51,0,51,34,161,180,92,39,0
43,68,24,-56,9,46,48,175,195,97,34,-4
43,73,29,-58,7,51,53,180,200,102,34,-4
48,73,24,-61,12,48,53,185,204,102,34,0
48,78,29,-63,9,53,63,190,204,112,39,0
43,68,24,-56,9,46,73,204,204,112,39,0
48,68,19,-58,14,43,73,214,204,112,39,0
48,73,24,-61,12,48,68,219,204,112,39,4
53,73,19,-63,17,46,68,229,209,112,39,4
68,73,4,-70,31,39,78,244,200,107,39,0
73,73,0,-73,36,36,73,248,204,107,43,-4
78,78,0,-78,39,39,73,253,214,117,43,-9
82,78,-4,-80,43,36,73,263,219,117,48,-9
97,97,0,-97,48,48,82,268,214,117,48,-9
102,97,-4,-100,53,46,82,268,214,117,48,-9
107,97,-9,-102,58,43,87,273,214,117,53,-4
112,102,-9,-107,61,46,87,283,214,117,53,-4
126,107,-19,-117,73,43,78,297,219,117,63,4
136,112,-24,-124,80,43,78,302,214,117,63,4
141,117,-24,-129,82,46,73,307,214,122,63,4
146,126,-19,-136,82,53,73,317,214,126,63,4
161,126,-34,-143,97,46,78,322,224,141,73,14
165,131,-34,-148,100,48,78,326,224,141,78,24
175,136,-39,-156,107,48,73,331,224,141,82,24
180,136,-43,-158,112,46,68,336,224,141,82,24
180,146,-34,-163,107,56,68,341,224,141,87,24
180,151,-29,-165,104,61,68,341,224,146,87,29
180,151,-29,-165,104,61,68,351,219,146,87,29
180,151,-29,-165,104,61,68,351,214,146,92,29
175,141,-34,-158,104,53,78,341,209,136,87,19
180,146,-34,-163,107,56,73,346,204,141,92,24
190,146,-43,-168,117,51,68,351,204,141,92,34
195,146,-48,-170,122,48,53,356,200,141,97,34
190,141,-48,-165,119,46,63,356,180,131,87,24
195,136,-58,-165,126,39,53,356,170,126,87,24
200,131,-68,-165,134,31,48,356,165,122,87,29
204,126,-78,-165,141,24,39,356,156,117,87,29
219,122,-97,-170,158,12,43,366,141,117,82,34
224,122,-102,-173,163,9,34,366,131,117,87,34
229,117,-112,-173,170,2,29,366,126,122,87,39
229,117,-112,-173,170,2,24,361,126,122,87,39
239,112,-126,-175,183,-7,29,366,112,117,92,43
244,112,-131,-178,187,-9,14,361,112,112,92,43
244,112,-131,-178,187,-9,9,356,112,107,87,48
244,112,-131,-178,187,-9,4,351,107,102,87,53
239,102,-136,-170,187,-17,0,356,97,107,92,53
239,107,-131,-173,185,-12,0,351,97,107,92,53
239,107,-131,-173,185,-12,-4,341,92,107,92,53
239,107,-131,-173,185,-12,0,331,87,107,92,53
234,97,-136,-165,185,-19,0,331,87,107,87,58
229,97,-131,-163,180,-17,0,326,87,107,87,58
224,97,-126,-161,175,-14,-4,317,82,102,87,58
219,92,-126,-156,173,-17,-4,307,78,97,82,53
200,82,-117,-141,158,-17,4,287,68,107,82,43
200,82,-117,-141,158,-17,4,278,63,102,78,43
190,78,-112,-134,151,-17,0,268,63,102,78,43
180,73,-107,-126,143,-17,0,263,58,97,73,43
161,82,-78,-122,119,2,-4,244,53,92,68,43
156,78,-78,-117,117,0,-4,229,53,87,68,43
146,73,-73,-109,109,0,0,214,48,78,63,39
136,73,-63,-104,100,4,4,200,48,78,58,39
136,73,-63,-104,100,4,-4,185,34,63,53,29
126,73,-53,-100,90,9,-14,165,29,58,48,24
117,63,-53,-90,85,4,-19,151,24,53,43,24
107,58,-48,-82,78,4,-29,136,24,48,43,24
97,53,-43,-75,70,4,-43,117,9,34,39,19
92,48,-43,-70,68,2,-58,107,4,34,34,24
82,43,-39,-63,61,2,-68,97,0,24,29,24
73,39,-34,-56,53,2,-78,87,0,19,24,24
53,34,-19,-43,36,7,-82,68,4,29,29,24
43,29,-14,-36,29,7,-87,58,4,24,24,24
39,24,-14,-31,26,4,-92,48,4,19,19,24
34,19,-14,-26,24,2,-92,39,9,14,14,29
14,19,4,-17,4,12,-87,34,9,9,9,29
9,19,9,-14,0,14,-82,24,9,9,14,24
9,14,4,-12,2,9,-78,14,9,9,14,19
0,9,9,-4,-4,9,-73,-4,9,9,14,19
-4,14,19,-4,-12,17,-73,-4,19,19,14,14
-9,19,29,-4,-19,24,-68,-9,19,19,9,14
-14,19,34,-2,-24,26,-63,-9,14,9,9,14
-14,19,34,-2,-24,26,-58,-9,14,4,9,9
-19,14,34,2,-26,24,-58,-14,19,14,4,0
-24,9,34,7,-29,21,-53,-19,14,9,0,0
-29,9,39,9,-34,24,-53,-24,14,4,0,0
-29,4,34,12,-31,19,-53,-24,14,0,-4,-4
-19,9,29,4,-24,19,-39,-24,24,-9,-9,-4
-24,0,24,12,-24,12,-39,-24,19,-14,-14,-9
-24,0,24,12,-24,12,-39,-29,14,-14,-14,-9
-24,0,24,12,-24,12,-39,-29,14,-14,-14,-9
-29,-4,24,17,-26,9,-34,-19,14,-9,-14,-4
-39,-9,29,24,-34,9,-29,-19,4,-14,-14,-4
-43,-14,29,29,-36,7,-24,-24,4,-14,-14,-4
-43,-19,24,31,-34,2,-19,-24,4,-14,-14,-4
-43,-19,24,31,-34,2,-14,-34,4,-19,-9,-4
-43,-19,24,31,-34,2,-9,-34,4,-19,-9,-9
-43,-19,24,31,-34,2,-9,-34,4,-19,-9,-9
-43,-19,24,31,-34,2,-4,-34,0,-24,-14,-4
-43,-14,29,29,-36,7,4,-34,0,-19,-4,4
-43,-14,29,29,-36,7,0,-34,0,-14,-4,0
-39,-9,29,24,-34,9,0,-34,4,-9,-4,0
-39,-4,34,21,-36,14,0,-34,4,-9,-4,0
-39,4,43,17,-41,24,0,-43,19,-4,4,0
-39,9,48,14,-43,29,0,-43,19,0,9,0
-39,14,53,12,-46,34,9,-43,19,4,9,4
-39,19,58,9,-48,39,19,-43,19,14,4,4
-34,24,58,4,-46,41,24,-34,19,14,14,14
-39,29,68,4,-53,48,24,-39,24,14,14,14
-39,29,68,4,-53,48,19,-39,24,14,14,9
-39,24,63,7,-51,43,14,-39,29,14,14,9
-43,24,68,9,-56,46,24,-39,24,14,14,19
-43,19,63,12,-53,41,19,-39,24,14,14,19
-48,19,68,14,-58,43,19,-39,29,14,14,14
-48,19,68,14,-58,43,24,-39,29,14,19,14
-43,19,63,12,-53,41,34,-24,19,4,19,14
-39,19,58,9,-48,39,34,-24,19,4,19,19
-34,14,48,9,-41,31,39,-24,24,4,19,19
-29,9,39,9,-34,24,39,-24,29,4,19,19
-29,9,39,9,-34,24,48,-24,19,-4,9,14
-29,9,39,9,-34,24,48,-24,14,-9,9,14
-29,14,43,7,-36,29,48,-24,14,-9,9,9
-34,14,48,9,-41,31,48,-24,14,-9,4,4
-24,9,34,7,-29,21,48,-14,4,-14,-4,4
-24,9,34,7,-29,21,48,-19,4,-14,-9,0
-24,4,29,9,-26,17,53,-19,4,-19,-14,0
-24,4,29,9,-26,17,53,-19,0,-19,-14,-4
-34,-14,19,24,-26,2,58,-19,-4,-24,-19,-9
-34,-24,9,29,-21,-7,58,-19,-4,-24,-24,-9
-34,-24,9,29,-21,-7,63,-19,-9,-24,-24,-14
-34,-29,4,31,-19,-12,63,-19,-14,-24,-24,-14
-43,-39,4,41,-24,-17,68,-9,-19,-34,-29,-14
-43,-39,4,41,-24,-17,73,-14,-19,-34,-29,-14
-43,-39,4,41,-24,-17,78,-19,-19,-39,-34,-14
-43,-39,4,41,-24,-17,82,-19,-19,-39,-34,-19
-58,-53,4,56,-31,-24,97,-19,-29,-48,-39,-29
-58,-53,4,56,-31,-24,102,-19,-29,-48,-39,-34
-58,-58,0,58,-29,-29,102,-19,-29,-48,-39,-34
-58,-63,-4,61,-26,-34,107,-24,-34,-48,-43,-34
-68,-73,-4,70,-31,-39,117,-24,-39,-53,-53,-39
-68,-82,-14,75,-26,-48,117,-24,-39,-58,-53,-43
-68,-87,-19,78,-24,-53,117,-24,-43,-63,-53,-48
-68,-92,-24,80,-21,-58,117,-24,-48,-68,-53,-53
-68,-97,-29,82,-19,-63,117,-24,-58,-78,-73,-68
-68,-107,-39,87,-14,-73,107,-19,-68,-87,-78,-68
-68,-117,-48,92,-9,-82,97,-29,-78,-97,-78,-68
-68,-117,-48,92,-9,-82,87,-29,-78,-97,-78,-68
-68,-117,-48,92,-9,-82,78,-29,-78,-97,-78,-68
-68,-117,-48,92,-9,-82,68,-29,-78,-97,-78,-68
-63,-107,-43,85,-9,-75,48,-29,-78,-97,-78,-58
-58,-107,-48,82,-4,-78,34,-34,-78,-102,-82,-58
-53,-112,-58,82,2,-85,19,-34,-82,-102,-82,-58
-48,-112,-63,80,7,-87,9,-34,-82,-102,-82,-58
-39,-97,-58,68,9,-78,-9,-34,-78,-97,-78,-53
-39,-97,-58,68,9,-78,-19,-34,-73,-97,-73,-48
-39,-92,-53,65,7,-73,-24,-34,-68,-92,-68,-43
-39,-87,-48,63,4,-68,-34,-34,-63,-87,-63,-39
-39,-82,-43,61,2,-63,-34,-43,-53,-82,-53,-39
-43,-78,-34,61,-4,-56,-34,-43,-53,-78,-53,-39
-43,-73,-29,58,-7,-51,-34,-48,-58,-73,-58,-39
-43,-68,-24,56,-9,-46,-34,-48,-58,-68,-58,-39
-43,-63,-19,53,-12,-41,-39,-48,-48,-68,-53,-48
-43,-58,-14,51,-14,-36,-39,-48,-48,-68,-53,-48
-48,-53,-4,51,-21,-29,-39,-48,-48,-68,-53,-48
-48,-48,0,48,-24,-24,-43,-48,-48,-68,-53,-53
-48,-39,9,43,-29,-14,-34,-48,-58,-68,-53,-43
-48,-39,9,43,-29,-14,-34,-43,-58,-68,-53,-43
-48,-39,9,43,-29,-14,-34,-43,-58,-68,-58,-43
-48,-39,9,43,-29,-14,-29,-43,-53,-68,-58,-43
-48,-48,0,48,-24,-24,-19,-34,-53,-78,-58,-43
-48,-48,0,48,-24,-24,-14,-39,-53,-78,-58,-43
-53,-48,4,51,-29,-21,-14,-39,-53,-78,-58,-43
-53,-48,4,51,-29,-21,-14,-39,-53,-78,-58,-43
-43,-48,-4,46,-19,-26,-19,-39,-43,-78,-53,-34
-43,-53,-9,48,-17,-31,-19,-39,-39,-78,-53,-34
-43,-53,-9,48,-17,-31,-14,-39,-39,-78,-53,-34
-43,-53,-9,48,-17,-31,-14,-39,-39,-78,-53,-34
-48,-63,-14,56,-17,-39,0,-39,-48,-78,-48,-19
-53,-63,-9,58,-21,-36,0,-39,-48,-78,-48,-19
-53,-63,-9,58,-21,-36,0,-39,-48,-78,-48,-19
-58,-63,-4,61,-26,-34,0,-39,-48,-78,-48,-19
-58,-63,-4,61,-26,-34,9,-43,-58,-78,-48,-9
-58,-63,-4,61,-26,-34,9,-43,-58,-78,-43,-9
-58,-63,-4,61,-26,-34,9,-43,-58,-78,-43,-9
-58,-63,-4,61,-26,-34,4,-43,-58,-78,-43,-9
-48,-58,-9,53,-19,-34,14,-43,-58,-78,-43,-19
-48,-58,-9,53,-19,-34,14,-43,-58,-78,-43,-19
-48,-58,-9,53,-19,-34,9,-43,-58,-78,-43,-19
-48,-58,-9,53,-19,-34,4,-43,-58,-78,-43,-19
-48,-48,0,48,-24,-24,9,-53,-53,-78,-53,-29
-48,-48,0,48,-24,-24,9,-53,-53,-78,-53,-29
-48,-48,0,48,-24,-24,9,-53,-53,-78,-53,-29
-48,-48,0,48,-24,-24,9,-53,-53,-78,-53,-29
-48,-48,0,48,-24,-24,14,-43,-53,-78,-48,-29
-48,-48,0,48,-24,-24,19,-43,-53,-78,-48,-29
-48,-48,0,48,-24,-24,24,-48,-48,-78,-48,-29
-48,-48,0,48,-24,-24,29,-48,-48,-78,-48,-29
-48,-58,-9,53,-19,-34,29,-48,-48,-78,-58,-29
-48,-58,-9,53,-19,-34,29,-48,-48,-78,-58,-29
-48,-58,-9,53,-19,-34,29,-48,-48,-78,-58,-29
-43,-53,-9,48,-17,-31,34,-48,-53,-78,-58,-29
-48,-63,-14,56,-17,-39,43,-48,-53,-78,-68,-39
-53,-63,-9,58,-21,-36,48,-48,-53,-78,-63,-34
-58,-63,-4,61,-26,-34,48,-48,-53,-78,-63,-34
-63,-63,0,63,-31,-31,48,-48,-53,-78,-63,-34
-73,-68,4,70,-39,-31,53,-48,-63,-87,-73,-48
-73,-73,0,73,-36,-36,58,-53,-68,-87,-73,-53
-73,-78,-4,75,-34,-41,63,-53,-68,-87,-73,-58
-73,-82,-9,78,-31,-46,68,-53,-68,-87,-73,-63
-82,-87,-4,85,-39,-46,78,-43,-68,-97,-82,-63
-82,-92,-9,87,-36,-51,78,-43,-68,-102,-82,-63
-82,-107,-24,95,-29,-65,78,-43,-68,-102,-82,-63
-82,-112,-29,97,-26,-70,82,-43,-73,-102,-82,-63
-82,-112,-29,97,-26,-70,73,-34,-63,-112,-82,-58
-78,-112,-34,95,-21,-73,73,-34,-63,-112,-82,-58
-68,-107,-39,87,-14,-73,73,-34,-63,-112,-87,-53
-63,-107,-43,85,-9,-75,73,-34,-63,-112,-87,-48
-53,-107,-53,80,0,-80,58,-24,-58,-107,-78,-39
-48,-107,-58,78,4,-82,53,-24,-58,-102,-78,-34
-48,-107,-58,78,4,-82,48,-24,-58,-97,-78,-34
-48,-107,-58,78,4,-82,43,-24,-58,-92,-78,-39
-39,-107,-68,73,14,-87,24,-34,-68,-92,-68,-48
-39,-102,-63,70,12,-82,14,-34,-73,-97,-73,-48
-43,-97,-53,70,4,-75,4,-34,-73,-97,-73,-48
-43,-92,-48,68,2,-70,-4,-34,-73,-97,-73,-48
-43,-92,-48,68,2,-70,-9,-43,-82,-107,-73,-63
-43,-97,-53,70,4,-75,-19,-43,-87,-107,-73,-63
-43,-97,-53,70,4,-75,-29,-43,-87,-107,-73,-73
-48,-97,-48,73,0,-73,-39,-43,-87,-107,-78,-73
-53,-87,-34,70,-9,-61,-34,-43,-87,-107,-78,-63
-53,-87,-34,70,-9,-61,-24,-43,-92,-117,-78,-73
-53,-97,-43,75,-4,-70,-9,-43,-87,-117,-87,-68
