I,II,III,aVR,aVL,aVF,V1,V2,V3,V4,V5,V6,
-73,-102,-29,87,-21,-65,14,-82,-112,-63,-58,-73
-73,-102,-29,87,-21,-65,9,-87,-122,-68,-63,-73
-73,-102,-29,87,-21,-65,9,-87,-122,-73,-68,-78
-78,-112,-34,95,-21,-73,9,-87,-122,-73,-68,-82
-78,-126,-48,102,-14,-87,19,-82,-117,-78,-68,-73
-82,-126,-43,104,-19,-85,19,-82,-117,-78,-68,-73
-82,-126,-43,104,-19,-85,19,-82,-117,-78,-68,-73
-82,-126,-43,104,-19,-85,19,-78,-117,-78,-68,-73
-82,-126,-43,104,-19,-85,19,-78,-117,-87,-73,-73
-82,-126,-43,104,-19,-85,19,-78,-122,-87,-73,-78
-82,-126,-43,104,-19,-85,19,-82,-122,-92,-78,-78
-82,-131,-48,107,-17,-90,19,-82,-122,-92,-78,-78
-82,-131,-48,107,-17,-90,14,-78,-122,-92,-87,-87
-82,-131,-48,107,-17,-90,14,-78,-122,-92,-82,-82
-82,-131,-48,107,-17,-90,14,-78,-122,-92,-82,-82
-78,-126,-48,102,-14,-87,14,-78,-122,-92,-87,-87
-78,-126,-48,102,-14,-87,24,-78,-112,-82,-78,-73
-82,-117,-34,100,-24,-75,14,-78,-112,-82,-87,-82
-82,-122,-39,102,-21,-80,14,-78,-122,-92,-87,-87
-82,-136,-53,109,-14,-95,29,-78,-126,-97,-87,-92
-82,-146,-63,114,-9,-104,34,-73,-141,-107,-97,-107
-112,-156,-43,134,-34,-100,48,-73,-141,-107,-117,-102
-136,-156,-19,146,-58,-87,68,-63,-151,-122,-126,-117
-151,-156,-4,153,-73,-80,87,-63,-185,-146,-146,-141
-170,-161,9,165,-90,-75,107,-63,-204,-156,-165,-170
-190,-170,19,180,-104,-75,131,-48,-195,-141,-156,-161
-190,-156,34,173,-112,-61,146,-29,-161,-107,-126,-131
-170,-151,19,161,-95,-65,156,9,-112,-63,-82,-97
-131,-126,4,129,-68,-61,156,73,-43,0,-24,-63
-63,-117,-53,90,-4,-85,151,161,68,78,58,-4
4,-92,-97,43,51,-95,156,248,180,161,136,63
78,-53,-131,-12,104,-92,156,331,283,244,214,136
165,0,-165,-82,165,-82,146,380,409,370,341,244
312,73,-239,-192,275,-82,107,439,600,541,512,395
488,156,-331,-322,409,-87,58,527,819,741,697,551
668,278,-390,-473,529,-56,-19,600,1024,936,883,717
839,414,-424,-627,631,-4,-92,629,1215,1127,1068,893
1000,541,-458,-771,729,41,-175,614,1385,1312,1263,1063
1171,678,-492,-924,832,92,-292,546,1517,1449,1415,1220
1317,819,-497,-1068,907,161,-439,424,1566,1522,1507,1322
1400,946,-453,-1173,927,246,-570,297,1551,1542,1542,1385
1454,1010,-444,-1232,949,283,-668,165,1488,1473,1507,1395
1517,936,-580,-1227,1049,178,-756,14,1322,1268,1351,1307
1517,697,-819,-1107,1168,-61,-780,-73,1127,917,1068,1093
1385,405,-980,-895,1183,-287,-702,-87,932,570,766,863
1185,273,-912,-729,1049,-319,-605,-117,785,326,556,702
1034,283,-751,-658,893,-234,-580,-200,649,200,448,619
897,292,-605,-595,751,-156,-546,-239,522,136,361,556
688,253,-434,-470,561,-90,-453,-258,390,78,283,468
419,170,-248,-295,334,-39,-322,-297,224,0,170,341
175,97,-78,-136,126,9,-224,-395,-34,-102,48,209
43,43,0,-43,21,21,-204,-502,-268,-175,-24,122
-19,0,19,9,-19,9,-224,-541,-370,-200,-53,78
-58,0,58,29,-58,29,-219,-531,-390,-200,-68,34
-87,29,117,29,-102,73,-175,-458,-351,-185,-87,4
-78,29,107,24,-92,68,-122,-341,-253,-141,-82,-9
-68,0,68,34,-68,34,-87,-224,-165,-112,-63,-19
-73,-29,43,51,-58,7,-53,-156,-122,-78,-53,-19
-78,-39,39,58,-58,0,-34,-107,-78,-63,-39,-24
-68,-43,24,56,-46,-9,-14,-68,-53,-53,-39,-24
-68,-53,14,61,-41,-19,-4,-43,-48,-53,-43,-39
-78,-73,4,75,-41,-34,14,-34,-43,-53,-39,-39
-68,-68,0,68,-34,-34,4,-29,-43,-58,-53,-43
-68,-78,-9,73,-29,-43,9,-24,-43,-58,-53,-48
-68,-87,-19,78,-24,-53,14,-14,-43,-58,-58,-53
-78,-97,-19,87,-29,-58,19,-14,-48,-68,-63,-58
-78,-102,-24,90,-26,-63,24,-14,-63,-68,-68,-63
-78,-102,-24,90,-26,-63,24,-14,-63,-73,-68,-68
-78,-102,-24,90,-26,-63,24,-9,-63,-73,-73,-73
-78,-107,-29,92,-24,-68,29,-9,-63,-68,-73,-78
-82,-117,-34,100,-24,-75,39,-9,-63,-68,-78,-78
-82,-117,-34,100,-24,-75,39,-9,-68,-73,-78,-78
-87,-117,-29,102,-29,-73,39,-9,-73,-73,-78,-78
-87,-117,-29,102,-29,-73,43,-4,-73,-78,-78,-82
-78,-122,-43,100,-17,-82,43,-4,-68,-78,-78,-82
-78,-122,-43,100,-17,-82,43,-4,-68,-78,-78,-82
-78,-122,-43,100,-17,-82,43,-4,-68,-78,-78,-82
-78,-122,-43,100,-17,-82,48,-4,-73,-78,-82,-82
-87,-117,-29,102,-29,-73,48,-4,-63,-82,-82,-82
-87,-117,-29,102,-29,-73,48,-4,-63,-82,-82,-82
-92,-126,-34,109,-29,-80,48,-4,-63,-78,-82,-82
-92,-126,-34,109,-29,-80,48,0,-63,-78,-82,-82
-82,-126,-43,104,-19,-85,43,0,-63,-78,-82,-87
-82,-126,-43,104,-19,-85,43,0,-63,-82,-82,-87
-82,-122,-39,102,-21,-80,43,0,-63,-82,-82,-87
-82,-122,-39,102,-21,-80,43,0,-63,-82,-82,-87
-82,-122,-39,102,-21,-80,43,0,-63,-82,-82,-87
-82,-122,-39,102,-21,-80,43,4,-58,-82,-82,-87
-82,-122,-39,102,-21,-80,43,4,-58,-82,-82,-87
-82,-122,-39,102,-21,-80,43,4,-58,-82,-82,-87
-92,-122,-29,107,-31,-75,43,4,-63,-82,-82,-82
-92,-122,-29,107,-31,-75,43,4,-63,-82,-82,-82
-92,-126,-34,109,-29,-80,43,4,-58,-82,-82,-82
-87,-126,-39,107,-24,-82,43,4,-58,-82,-82,-82
-78,-126,-48,102,-14,-87,43,4,-58,-82,-87,-82
-82,-126,-43,104,-19,-85,48,4,-58,-82,-87,-87
-82,-122,-39,102,-21,-80,48,4,-63,-82,-87,-87
-82,-122,-39,102,-21,-80,43,4,-63,-82,-87,-87
-92,-122,-29,107,-31,-75,53,4,-73,-82,-87,-87
-92,-122,-29,107,-31,-75,53,9,-73,-82,-87,-87
-92,-122,-29,107,-31,-75,53,9,-68,-82,-87,-87
-92,-122,-29,107,-31,-75,53,9,-68,-87,-87,-87
-92,-112,-19,102,-36,-65,53,9,-68,-87,-87,-92
-92,-117,-24,104,-34,-70,53,9,-68,-87,-87,-92
-92,-117,-24,104,-34,-70,58,9,-68,-87,-87,-92
-92,-117,-24,104,-34,-70,58,14,-68,-87,-87,-92
-92,-117,-24,104,-34,-70,53,14,-68,-87,-87,-102
-92,-117,-24,104,-34,-70,53,14,-68,-87,-87,-102
-92,-117,-24,104,-34,-70,48,14,-68,-87,-87,-102
-92,-117,-24,104,-34,-70,48,14,-68,-87,-87,-102
-92,-126,-34,109,-29,-80,58,24,-58,-87,-87,-92
-92,-126,-34,109,-29,-80,58,24,-58,-87,-92,-92
-92,-126,-34,109,-29,-80,58,24,-58,-87,-92,-92
-92,-126,-34,109,-29,-80,63,24,-58,-87,-92,-92
-97,-126,-29,112,-34,-78,63,14,-68,-87,-92,-92
-97,-126,-29,112,-34,-78,63,14,-63,-92,-92,-92
-97,-126,-29,112,-34,-78,63,19,-63,-92,-92,-97
-97,-131,-34,114,-31,-82,63,19,-68,-92,-97,-97
-97,-131,-34,114,-31,-82,63,19,-58,-92,-97,-97
-97,-131,-34,114,-31,-82,63,19,-58,-92,-97,-97
-97,-131,-34,114,-31,-82,63,19,-58,-92,-97,-97
-97,-131,-34,114,-31,-82,58,19,-58,-92,-92,-97
-102,-131,-29,117,-36,-80,48,19,-58,-92,-92,-97
-102,-131,-29,117,-36,-80,48,19,-53,-92,-92,-97
-97,-131,-34,114,-31,-82,53,19,-53,-92,-97,-97
-97,-131,-34,114,-31,-82,53,19,-58,-92,-102,-97
-92,-131,-39,112,-26,-85,53,24,-58,-92,-102,-97
-92,-131,-39,112,-26,-85,53,24,-53,-97,-102,-102
-92,-131,-39,112,-26,-85,53,24,-53,-97,-102,-102
-92,-131,-39,112,-26,-85,53,24,-53,-97,-102,-102
-92,-136,-43,114,-24,-90,53,29,-63,-87,-102,-102
-92,-136,-43,114,-24,-90,53,29,-63,-92,-102,-107
-92,-136,-43,114,-24,-90,53,29,-63,-92,-107,-107
-92,-136,-43,114,-24,-90,53,29,-63,-92,-107,-107
-92,-146,-53,119,-19,-100,53,39,-53,-92,-107,-107
-92,-146,-53,119,-19,-100,53,39,-53,-92,-107,-107
-97,-146,-48,122,-24,-97,53,39,-53,-92,-107,-107
-97,-146,-48,122,-24,-97,53,39,-53,-92,-107,-107
-97,-136,-39,117,-29,-87,53,29,-53,-87,-107,-97
-97,-136,-39,117,-29,-87,53,34,-58,-87,-107,-102
-97,-136,-39,117,-29,-87,53,34,-58,-87,-112,-102
-97,-141,-43,119,-26,-92,53,34,-53,-92,-112,-102
-107,-141,-34,124,-36,-87,63,34,-58,-97,-112,-102
-107,-141,-34,124,-36,-87,63,34,-58,-97,-112,-102
-112,-141,-29,126,-41,-85,63,34,-63,-97,-112,-107
-112,-136,-24,124,-43,-80,63,34,-63,-97,-112,-107
-107,-126,-19,117,-43,-73,63,39,-53,-107,-117,-117
-107,-126,-19,117,-43,-73,63,39,-53,-107,-117,-112
-107,-131,-24,119,-41,-78,63,39,-53,-107,-117,-112
-107,-131,-24,119,-41,-78,63,43,-53,-107,-117,-112
-107,-136,-29,122,-39,-82,63,43,-53,-97,-107,-107
-107,-136,-29,122,-39,-82,63,43,-48,-102,-107,-107
-107,-136,-29,122,-39,-82,68,48,-48,-102,-112,-107
-107,-136,-29,122,-39,-82,68,48,-58,-102,-112,-107
-97,-126,-29,112,-34,-78,68,58,-48,-102,-122,-107
-97,-126,-29,112,-34,-78,68,58,-48,-97,-117,-107
-97,-122,-24,109,-36,-73,63,58,-48,-97,-117,-107
-102,-122,-19,112,-41,-70,63,63,-48,-102,-117,-107
-102,-136,-34,119,-34,-85,58,53,-58,-102,-112,-117
-102,-136,-34,119,-34,-85,58,58,-53,-102,-112,-117
-102,-131,-29,117,-36,-80,58,58,-53,-102,-107,-117
-102,-131,-29,117,-36,-80,53,58,-53,-102,-107,-117
-112,-131,-19,122,-46,-75,63,63,-53,-92,-117,-107
-112,-131,-19,122,-46,-75,68,63,-48,-92,-117,-107
-112,-122,-9,117,-51,-65,68,68,-43,-92,-117,-107
-112,-122,-9,117,-51,-65,68,68,-39,-92,-117,-107
-112,-122,-9,117,-51,-65,58,68,-39,-102,-117,-107
-107,-122,-14,114,-46,-68,58,73,-39,-102,-117,-107
-107,-117,-9,112,-48,-63,58,73,-39,-102,-117,-107
-107,-117,-9,112,-48,-63,58,73,-34,-97,-117,-107
-112,-112,0,112,-56,-56,63,82,-34,-97,-117,-107
-112,-112,0,112,-56,-56,63,87,-29,-97,-117,-107
-112,-112,0,112,-56,-56,63,97,-29,-92,-117,-107
-112,-102,9,107,-61,-46,68,97,-24,-92,-112,-102
-112,-97,14,104,-63,-41,68,97,-24,-92,-102,-92
-107,-97,9,102,-58,-43,68,97,-19,-92,-102,-92
-107,-92,14,100,-61,-39,68,102,-14,-87,-97,-92
-107,-92,14,100,-61,-39,68,112,-9,-87,-97,-92
-97,-97,0,97,-48,-48,68,112,-4,-82,-97,-92
-97,-87,9,92,-53,-39,68,112,0,-82,-92,-92
-97,-87,9,92,-53,-39,68,122,0,-78,-92,-92
-92,-82,9,87,-51,-36,68,122,4,-78,-92,-92
-102,-63,39,82,-70,-12,68,122,9,-78,-97,-92
-102,-58,43,80,-73,-7,68,136,14,-73,-97,-87
-102,-48,53,75,-78,2,68,141,19,-68,-92,-87
-102,-43,58,73,-80,7,68,141,24,-68,-87,-82
-92,-48,43,70,-68,-2,68,146,34,-58,-82,-82
-92,-39,53,65,-73,7,68,151,39,-48,-78,-68
-92,-29,63,61,-78,17,68,156,43,-43,-78,-68
-87,-29,58,58,-73,14,68,161,48,-39,-73,-68
-97,-9,87,53,-92,39,68,161,63,-43,-68,-68
-97,0,97,48,-97,48,68,165,68,-39,-63,-63
-92,9,102,41,-97,56,73,170,78,-34,-58,-58
-92,9,102,41,-97,56,73,175,82,-29,-53,-53
-82,19,102,31,-92,61,73,190,87,-24,-48,-39
-78,34,112,21,-95,73,68,195,102,-19,-43,-39
-73,43,117,14,-95,80,68,200,102,-14,-43,-34
-73,53,126,9,-100,90,68,204,117,-9,-39,-29
-73,63,136,4,-104,100,68,219,131,0,-29,-29
-68,73,141,-2,-104,107,68,224,146,14,-24,-14
-58,87,146,-14,-102,117,68,229,156,14,-14,-14
-58,97,156,-19,-107,126,68,234,165,19,-14,-14
-53,107,161,-26,-107,134,68,253,185,34,-4,-4
-48,122,170,-36,-109,146,68,263,195,43,9,0
-48,131,180,-41,-114,156,68,268,204,53,19,9
-48,141,190,-46,-119,165,68,273,219,53,24,24
-39,165,204,-63,-122,185,58,278,224,68,34,29
-34,175,209,-70,-122,192,63,287,239,78,43,39
-29,190,219,-80,-124,204,63,287,248,87,48,48
-24,200,224,-87,-124,212,63,302,258,97,63,58
-19,204,224,-92,-122,214,73,312,278,97,68,58
-14,214,229,-100,-122,222,68,322,292,102,78,68
-9,224,234,-107,-122,229,68,326,297,112,87,78
-4,234,239,-114,-122,236,68,331,307,122,97,87
4,244,239,-124,-117,241,68,336,317,131,97,87
9,258,248,-134,-119,253,68,341,326,141,107,97
14,263,248,-139,-117,256,63,346,341,156,117,107
19,273,253,-146,-117,263,63,356,351,165,126,117
39,287,248,-163,-104,268,63,361,375,165,136,122
43,292,248,-168,-102,270,63,366,390,175,146,131
48,307,258,-178,-104,283,63,370,395,185,156,141
58,317,258,-187,-100,287,63,370,405,190,165,146
63,317,253,-190,-95,285,58,380,405,195,170,151
68,322,253,-195,-92,287,58,390,414,209,180,165
73,331,258,-202,-92,295,53,395,424,219,190,175
82,336,253,-209,-85,295,53,395,434,229,200,185
97,341,244,-219,-73,292,53,395,434,239,195,185
102,341,239,-222,-68,290,53,395,444,248,204,195
107,341,234,-224,-63,287,48,395,448,253,214,200
112,341,229,-226,-58,285,48,395,453,263,224,204
117,341,224,-229,-53,283,58,385,453,268,239,214
126,341,214,-234,-43,278,48,380,453,273,244,219
131,336,204,-234,-36,270,48,375,453,273,248,224
131,331,200,-231,-34,265,48,370,444,278,248,224
136,326,190,-231,-26,258,34,370,439,268,244,224
136,326,190,-231,-26,258,29,356,434,268,248,234
136,322,185,-229,-24,253,29,351,424,268,248,234
136,307,170,-222,-17,239,29,341,419,273,248,234
131,307,175,-219,-21,241,19,326,405,273,253,229
136,302,165,-219,-14,234,19,312,395,273,253,229
136,292,156,-214,-9,224,19,297,385,268,248,224
131,283,151,-207,-9,217,19,283,370,268,248,219
141,273,131,-207,4,202,4,273,356,258,239,214
136,258,122,-197,7,190,4,258,346,248,234,209
136,244,107,-190,14,175,4,248,331,244,229,204
136,234,97,-185,19,165,0,244,312,239,214,200
126,219,92,-173,17,156,0,214,307,234,219,195
122,204,82,-163,19,143,4,204,287,229,214,190
122,195,73,-158,24,134,4,190,278,219,204,175
117,185,68,-151,24,126,4,180,253,209,195,170
112,175,63,-143,24,119,9,156,234,200,185,170
107,161,53,-134,26,107,9,151,224,190,175,161
107,146,39,-126,34,92,9,141,209,180,170,151
102,131,29,-117,36,80,9,131,195,170,161,146
87,117,29,-102,29,73,9,122,175,161,146,122
82,107,24,-95,29,65,9,112,161,151,136,117
78,97,19,-87,29,58,9,102,136,131,122,107
73,92,19,-82,26,56,9,92,131,122,117,97
68,82,14,-75,26,48,0,82,126,117,107,92
63,73,9,-68,26,41,0,73,117,102,97,87
58,58,0,-58,29,29,0,68,102,92,87,78
53,53,0,-53,26,26,0,63,87,82,78,68
48,34,-14,-41,31,9,0,48,73,73,68,68
43,29,-14,-36,29,7,4,43,63,68,63,63
39,19,-19,-29,29,0,4,43,58,58,53,48
34,14,-19,-24,26,-2,0,29,48,48,43,43
24,9,-14,-17,19,-2,9,29,34,43,39,39
24,4,-19,-14,21,-7,9,24,19,39,34,34
24,-9,-34,-7,29,-21,9,24,19,34,24,29
24,-9,-34,-7,29,-21,9,14,9,39,19,24
14,-19,-34,2,24,-26,9,19,4,29,24,19
14,-34,-48,9,31,-41,9,14,4,24,19,19
9,-34,-43,12,26,-39,9,14,0,19,4,14
9,-34,-43,12,26,-39,9,9,-4,14,4,9
0,-48,-48,24,24,-48,14,9,-9,9,-4,-4
-4,-48,-43,26,19,-46,14,9,-9,9,-9,-4
-4,-48,-43,26,19,-46,14,4,-14,4,-9,-4
-4,-48,-43,26,19,-46,14,4,-19,0,-14,-4
-4,-43,-39,24,17,-41,14,-4,-19,0,-14,-4
-9,-48,-39,29,14,-43,14,-4,-19,-4,-14,-9
-14,-53,-39,34,12,-46,14,-4,-19,-4,-14,-14
-14,-53,-39,34,12,-46,14,-4,-19,-4,-14,-14
-14,-58,-43,36,14,-51,14,0,-24,-4,-24,-14
-19,-58,-39,39,9,-48,19,0,-29,-14,-24,-14
-19,-53,-34,36,7,-43,19,0,-29,-14,-29,-24
-19,-53,-34,36,7,-43,14,0,-29,-14,-29,-24
-19,-53,-34,36,7,-43,14,0,-29,-24,-29,-24
-19,-53,-34,36,7,-43,14,0,-29,-24,-29,-24
-19,-53,-34,36,7,-43,14,0,-29,-24,-29,-24
-19,-63,-43,41,12,-53,14,0,-29,-24,-29,-24
-19,-63,-43,41,12,-53,29,0,-29,-14,-29,-14
-19,-63,-43,41,12,-53,29,0,-29,-14,-29,-14
-24,-58,-34,41,4,-46,29,0,-29,-14,-29,-14
-24,-58,-34,41,4,-46,29,0,-29,-19,-29,-14
-19,-63,-43,41,12,-53,19,-9,-19,-19,-24,-24
-19,-63,-43,41,12,-53,19,-9,-19,-14,-24,-29
-19,-63,-43,41,12,-53,19,-9,-19,-14,-19,-29
-19,-63,-43,41,12,-53,19,-4,-14,-14,-19,-29
-19,-53,-34,36,7,-43,9,4,-24,-14,-19,-29
-19,-53,-34,36,7,-43,14,4,-24,-14,-19,-24
-19,-53,-34,36,7,-43,14,4,-24,-14,-19,-24
-19,-48,-29,34,4,-39,19,4,-24,-9,-19,-24
-29,-58,-29,43,0,-43,29,4,-14,-9,-29,-24
-24,-68,-43,46,9,-56,24,4,-14,-9,-29,-24
-24,-58,-34,41,4,-46,24,4,-14,-9,-24,-24
-29,-58,-29,43,0,-43,24,4,-14,-9,-24,-24
-19,-63,-43,41,12,-53,29,4,-14,-4,-24,-14
-14,-63,-48,39,17,-56,29,4,-9,-4,-24,-14
-14,-63,-48,39,17,-56,29,4,-4,-4,-24,-14
-19,-58,-39,39,9,-48,29,4,-4,-4,-24,-9
-29,-48,-19,39,-4,-34,29,-4,-9,-4,-19,-9
-29,-58,-29,43,0,-43,29,-4,-9,-4,-19,-14
-29,-58,-29,43,0,-43,29,-4,-9,-4,-19,-14
-29,-58,-29,43,0,-43,29,-4,-9,-4,-19,-14
-29,-53,-24,41,-2,-39,29,4,-19,-4,-9,-19
-29,-53,-24,41,-2,-39,29,4,-19,-4,-9,-19
-29,-48,-19,39,-4,-34,29,0,-19,-4,-9,-19
-34,-48,-14,41,-9,-31,29,0,-19,-4,-9,-19
-24,-48,-24,36,0,-36,29,0,-9,-9,-19,-19
-24,-53,-29,39,2,-41,29,0,-9,-9,-19,-19
-24,-53,-29,39,2,-41,29,0,-9,-9,-19,-19
-24,-53,-29,39,2,-41,29,0,-9,-9,-19,-24
-34,-53,-19,43,-7,-36,29,0,-14,-9,-19,-24
-34,-53,-19,43,-7,-36,29,0,-14,-9,-19,-24
-34,-58,-24,46,-4,-41,29,0,-14,-4,-19,-24
-34,-68,-34,51,0,-51,29,0,-14,-4,-19,-24
-29,-53,-24,41,-2,-39,29,0,-14,-4,-9,-14
-29,-53,-24,41,-2,-39,24,-4,-14,-9,-14,-14
-29,-53,-24,41,-2,-39,24,-4,-19,-9,-14,-14
-29,-58,-29,43,0,-43,24,-4,-19,-9,-14,-14
-29,-48,-19,39,-4,-34,24,-9,-29,-9,-14,-24
-29,-48,-19,39,-4,-34,24,-9,-29,-9,-14,-24
-34,-48,-14,41,-9,-31,24,-9,-29,-9,-14,-24
-34,-48,-14,41,-9,-31,24,-9,-29,-9,-14,-29
-34,-58,-24,46,-4,-41,24,-9,-29,-9,-24,-29
-34,-63,-29,48,-2,-46,24,-9,-29,-19,-24,-29
-39,-63,-24,51,-7,-43,24,-14,-29,-24,-29,-29
-39,-63,-24,51,-7,-43,24,-14,-29,-24,-29,-29
-39,-73,-34,56,-2,-53,14,-14,-39,-34,-29,-29
-39,-63,-24,51,-7,-43,14,-14,-39,-34,-34,-34
-39,-63,-24,51,-7,-43,14,-14,-39,-34,-34,-34
-39,-63,-24,51,-7,-43,14,-14,-43,-34,-34,-34
-39,-68,-29,53,-4,-48,24,-19,-43,-34,-34,-34
-43,-68,-24,56,-9,-46,24,-24,-43,-34,-39,-34
-43,-68,-24,56,-9,-46,24,-24,-39,-34,-39,-29
-43,-68,-24,56,-9,-46,24,-24,-39,-34,-39,-29
-43,-78,-34,61,-4,-56,19,-24,-48,-39,-39,-39
-43,-82,-39,63,-2,-61,19,-24,-53,-39,-39,-39
-43,-82,-39,63,-2,-61,24,-29,-53,-39,-39,-39
-43,-82,-39,63,-2,-61,24,-29,-53,-39,-43,-39
-53,-73,-19,63,-17,-46,14,-29,-53,-29,-34,-34
-48,-73,-24,61,-12,-48,14,-29,-58,-34,-34,-34
-48,-78,-29,63,-9,-53,14,-29,-58,-34,-34,-34
-53,-78,-24,65,-14,-51,9,-29,-58,-39,-34,-34
-53,-68,-14,61,-19,-41,9,-29,-58,-39,-39,-34
-53,-73,-19,63,-17,-46,14,-34,-58,-39,-39,-34
-58,-73,-14,65,-21,-43,14,-34,-58,-39,-39,-34
-58,-73,-14,65,-21,-43,14,-34,-63,-39,-39,-34
-43,-78,-34,61,-4,-56,19,-34,-53,-39,-48,-39
-43,-78,-34,61,-4,-56,19,-34,-53,-43,-48,-39
-43,-82,-39,63,-2,-61,19,-34,-53,-43,-48,-39
-43,-87,-43,65,0,-65,19,-34,-58,-43,-53,-39
-43,-97,-53,70,4,-75,19,-39,-58,-53,-43,-48
-48,-97,-48,73,0,-73,19,-39,-63,-53,-43,-48
-48,-97,-48,73,0,-73,19,-39,-63,-58,-43,-48
-48,-97,-48,73,0,-73,19,-39,-63,-58,-48,-53
-58,-82,-24,70,-17,-53,19,-34,-78,-48,-48,-53
-58,-82,-24,70,-17,-53,19,-34,-78,-53,-48,-53
-58,-87,-29,73,-14,-58,19,-34,-78,-53,-48,-53
-58,-87,-29,73,-14,-58,19,-34,-82,-53,-48,-53
-48,-87,-39,68,-4,-63,9,-43,-82,-63,-53,-58
-48,-87,-39,68,-4,-63,9,-43,-87,-63,-53,-58
-48,-92,-43,70,-2,-68,4,-48,-87,-63,-53,-58
-48,-92,-43,70,-2,-68,4,-48,-87,-63,-53,-53
-58,-92,-34,75,-12,-63,14,-43,-82,-58,-53,-43
-58,-92,-34,75,-12,-63,14,-43,-82,-58,-53,-43
-58,-92,-34,75,-12,-63,19,-48,-82,-58,-53,-53
-58,-92,-34,75,-12,-63,19,-48,-82,-63,-58,-53
-48,-102,-53,75,2,-78,19,-48,-78,-63,-58,-53
-48,-107,-58,78,4,-82,19,-48,-78,-63,-58,-53
-48,-107,-58,78,4,-82,19,-48,-78,-63,-58,-53
-48,-102,-53,75,2,-78,14,-53,-78,-63,-58,-53
-48,-92,-43,70,-2,-68,4,-53,-82,-63,-63,-53
-48,-92,-43,70,-2,-68,4,-53,-82,-63,-63,-53
-48,-97,-48,73,0,-73,9,-53,-82,-63,-63,-53
-48,-97,-48,73,0,-73,9,-53,-82,-63,-58,-48
-48,-107,-58,78,4,-82,14,-53,-82,-63,-48,-48
-53,-107,-53,80,0,-80,14,-53,-82,-53,-48,-48
-53,-107,-53,80,0,-80,14,-53,-82,-53,-48,-48
-53,-107,-53,80,0,-80,14,-53,-82,-53,-48,-48
-53,-97,-43,75,-4,-70,14,-53,-92,-58,-58,-53
-53,-97,-43,75,-4,-70,14,-53,-92,-63,-58,-53
-53,-102,-48,78,-2,-75,14,-53,-97,-73,-63,-53
-53,-102,-48,78,-2,-75,14,-53,-97,-78,-63,-58
-63,-112,-48,87,-7,-80,14,-43,-87,-68,-63,-58
-63,-112,-48,87,-7,-80,14,-43,-87,-68,-63,-58
-63,-117,-53,90,-4,-85,14,-43,-87,-68,-63,-53
-63,-117,-53,90,-4,-85,19,-43,-87,-68,-63,-53
-53,-102,-48,78,-2,-75,19,-53,-87,-63,-58,-48
-63,-117,-53,90,-4,-85,29,-48,-82,-68,-63,-48
-58,-117,-58,87,0,-87,19,-39,-87,-68,-58,-48
-58,-107,-48,82,-4,-78,19,-48,-97,-78,-68,-58
-58,-107,-48,82,-4,-78,19,-48,-97,-78,-68,-58
-58,-107,-48,82,-4,-78,19,-48,-97,-78,-68,-58
-58,-107,-48,82,-4,-78,19,-48,-97,-78,-68,-58
-58,-107,-48,82,-4,-78,9,-58,-97,-78,-68,-58
-58,-107,-48,82,-4,-78,9,-58,-97,-78,-68,-58
-58,-107,-48,82,-4,-78,9,-58,-97,-78,-68,-58
-58,-107,-48,82,-4,-78,9,-58,-97,-78,-68,-58
-58,-107,-48,82,-4,-78,9,-58,-97,-68,-68,-58
-58,-107,-48,82,-4,-78,9,-58,-97,-68,-68,-58
-58,-107,-48,82,-4,-78,9,-58,-97,-68,-68,-58
-58,-107,-48,82,-4,-78,9,-58,-97,-68,-68,-58
-58,-107,-48,82,-4,-78,19,-58,-97,-68,-68,-58
-58,-107,-48,82,-4,-78,19,-58,-97,-68,-68,-58
-58,-107,-48,82,-4,-78,19,-58,-97,-68,-68,-58
-58,-107,-48,82,-4,-78,19,-58,-97,-68,-68,-58
-58,-112,-53,85,-2,-82,29,-48,-87,-68,-68,-48
-58,-117,-58,87,0,-87,29,-48,-87,-68,-68,-48
-58,-122,-63,90,2,-92,29,-48,-87,-68,-68,-48
-58,-126,-68,92,4,-97,29,-48,-87,-68,-68,-48
-58,-117,-58,87,0,-87,19,-58,-97,-78,-78,-58
-58,-117,-58,87,0,-87,19,-58,-97,-78,-78,-58
-58,-117,-58,87,0,-87,19,-58,-97,-78,-78,-58
-58,-117,-58,87,0,-87,19,-58,-97,-78,-78,-58
-48,-117,-68,82,9,-92,9,-58,-107,-78,-78,-58
-48,-117,-68,82,9,-92,9,-58,-107,-78,-78,-58
-48,-117,-68,82,9,-92,9,-58,-107,-78,-78,-58
-48,-117,-68,82,9,-92,9,-58,-107,-78,-78,-58
-58,-117,-58,87,0,-87,9,-68,-107,-78,-68,-58
-58,-117,-58,87,0,-87,9,-68,-107,-78,-68,-58
-58,-117,-58,87,0,-87,9,-68,-107,-78,-68,-58
-58,-117,-58,87,0,-87,9,-68,-107,-78,-68,-58
-68,-117,-48,92,-9,-82,9,-68,-107,-78,-68,-58
-68,-117,-48,92,-9,-82,9,-68,-107,-78,-68,-58
-68,-117,-48,92,-9,-82,9,-68,-107,-78,-68,-58
-68,-117,-48,92,-9,-82,9,-68,-107,-78,-68,-58
-58,-107,-48,82,-4,-78,9,-78,-107,-78,-68,-58
-58,-107,-48,82,-4,-78,9,-78,-107,-78,-68,-58
-58,-107,-48,82,-4,-78,9,-78,-107,-78,-68,-58
-58,-107,-48,82,-4,-78,9,-78,-107,-78,-68,-58
-58,-117,-58,87,0,-87,19,-68,-97,-68,-68,-58
-58,-117,-58,87,0,-87,19,-68,-97,-68,-68,-58
-58,-117,-58,87,0,-87,19,-68,-97,-68,-68,-58
-58,-117,-58,87,0,-87,19,-68,-97,-68,-68,-58
-58,-117,-58,87,0,-87,9,-68,-107,-78,-68,-68
-58,-117,-58,87,0,-87,9,-68,-107,-78,-68,-68
-58,-117,-58,87,0,-87,9,-68,-107,-78,-68,-68
-58,-117,-58,87,0,-87,9,-68,-107,-78,-68,-68
-58,-117,-58,87,0,-87,9,-78,-107,-78,-68,-58
-58,-117,-58,87,0,-87,9,-78,-107,-78,-68,-58
-58,-117,-58,87,0,-87,9,-78,-107,-78,-68,-58
-58,-117,-58,87,0,-87,9,-78,-107,-78,-68,-58
-58,-107,-48,82,-4,-78,9,-78,-107,-68,-78,-58
-58,-107,-48,82,-4,-78,9,-78,-107,-68,-78,-58
-58,-107,-48,82,-4,-78,9,-78,-107,-68,-78,-58
-58,-107,-48,82,-4,-78,9,-78,-107,-68,-78,-58
-58,-107,-48,82,-4,-78,9,-78,-107,-78,-78,-58
-58,-107,-48,82,-4,-78,9,-78,-107,-78,-78,-58
-58,-107,-48,82,-4,-78,9,-78,-107,-78,-78,-58
-58,-107,-48,82,-4,-78,9,-78,-107,-78,-78,-58
-58,-107,-48,82,-4,-78,9,-78,-107,-78,-68,-58
-58,-107,-48,82,-4,-78,9,-78,-107,-78,-68,-58
-58,-107,-48,82,-4,-78,9,-78,-107,-78,-68,-58
-58,-107,-48,82,-4,-78,9,-78,-107,-78,-68,-58
-58,-107,-48,82,-4,-78,9,-87,-117,-78,-78,-58
-58,-107,-48,82,-4,-78,9,-87,-117,-78,-78,-58
-58,-107,-48,82,-4,-78,9,-87,-117,-78,-78,-58
-58,-107,-48,82,-4,-78,9,-87,-117,-78,-78,-58
-58,-107,-48,82,-4,-78,0,-87,-117,-78,-68,-58
-58,-107,-48,82,-4,-78,0,-87,-117,-78,-68,-58
-58,-107,-48,82,-4,-78,0,-87,-117,-78,-68,-58
-58,-107,-48,82,-4,-78,0,-87,-117,-78,-68,-58
-58,-107,-48,82,-4,-78,9,-87,-107,-78,-68,-58
-58,-107,-48,82,-4,-78,9,-87,-107,-78,-68,-58
-58,-107,-48,82,-4,-78,9,-87,-107,-78,-68,-58
-58,-107,-48,82,-4,-78,9,-87,-107,-78,-68,-58
-48,-117,-68,82,9,-92,9,-87,-107,-87,-78,-68
-48,-117,-68,82,9,-92,9,-87,-107,-87,-78,-68
-48,-117,-68,82,9,-92,9,-87,-107,-87,-78,-68
-48,-117,-68,82,9,-92,9,-87,-107,-87,-78,-68
-53,-117,-63,85,4,-90,9,-78,-107,-78,-68,-68
-58,-117,-58,87,0,-87,9,-78,-107,-78,-68,-68
-63,-117,-53,90,-4,-85,9,-78,-107,-78,-68,-68
-68,-117,-48,92,-9,-82,9,-78,-107,-78,-68,-68
-58,-126,-68,92,4,-97,19,-78,-107,-78,-68,-58
-58,-126,-68,92,4,-97,19,-78,-107,-78,-68,-58
-58,-126,-68,92,4,-97,19,-78,-107,-78,-68,-58
-58,-126,-68,92,4,-97,19,-78,-107,-78,-68,-58
-58,-126,-68,92,4,-97,9,-78,-107,-78,-78,-68
-58,-126,-68,92,4,-97,9,-78,-107,-78,-78,-68
-58,-126,-68,92,4,-97,9,-78,-107,-78,-78,-68
-58,-126,-68,92,4,-97,9,-78,-107,-78,-78,-68
-58,-117,-58,87,0,-87,0,-87,-117,-78,-68,-68
-58,-117,-58,87,0,-87,0,-87,-117,-78,-68,-68
-58,-117,-58,87,0,-87,0,-87,-117,-78,-68,-68
-58,-117,-58,87,0,-87,0,-87,-117,-78,-68,-68
-68,-107,-39,87,-14,-73,9,-87,-117,-87,-78,-68
-68,-107,-39,87,-14,-73,9,-87,-117,-87,-78,-68
-68,-107,-39,87,-14,-73,9,-87,-117,-87,-78,-68
-68,-107,-39,87,-14,-73,9,-87,-117,-87,-78,-68
-58,-117,-58,87,0,-87,0,-87,-117,-97,-78,-68
-58,-117,-58,87,0,-87,0,-87,-117,-97,-78,-68
-58,-117,-58,87,0,-87,0,-87,-117,-97,-78,-68
-58,-117,-58,87,0,-87,0,-87,-117,-97,-78,-68
-58,-117,-58,87,0,-87,9,-87,-117,-97,-68,-68
-58,-117,-58,87,0,-87,9,-87,-117,-97,-68,-68
-58,-117,-58,87,0,-87,9,-87,-117,-97,-68,-68
-58,-117,-58,87,0,-87,9,-87,-117,-97,-68,-68
-58,-117,-58,87,0,-87,0,-97,-117,-87,-78,-68
-58,-117,-58,87,0,-87,0,-97,-117,-87,-78,-68
-58,-117,-58,87,0,-87,0,-97,-117,-87,-78,-68
-58,-117,-58,87,0,-87,0,-97,-117,-87,-78,-68
-58,-126,-68,92,4,-97,0,-87,-117,-87,-78,-68
-58,-126,-68,92,4,-97,0,-87,-117,-87,-78,-68
-58,-126,-68,92,4,-97,0,-87,-117,-87,-78,-68
-58,-126,-68,92,4,-97,0,-87,-117,-87,-78,-68
-58,-117,-58,87,0,-87,0,-87,-117,-87,-78,-68
-58,-117,-58,87,0,-87,0,-87,-117,-87,-78,-68
-58,-117,-58,87,0,-87,0,-87,-117,-87,-78,-68
-58,-117,-58,87,0,-87,0,-87,-117,-87,-78,-68
-48,-107,-58,78,4,-82,0,-87,-117,-78,-78,-68
-48,-107,-58,78,4,-82,0,-87,-117,-78,-78,-68
-48,-107,-58,78,4,-82,0,-87,-117,-78,-78,-68
-48,-107,-58,78,4,-82,4,-82,-117,-73,-78,-63
-48,-87,-39,68,-4,-63,4,-82,-112,-78,-73,-63
-48,-87,-39,68,-4,-63,4,-82,-107,-78,-68,-58
-43,-82,-39,63,-2,-61,9,-73,-107,-73,-63,-58
-43,-73,-29,58,-7,-51,9,-73,-97,-73,-63,-53
-53,-68,-14,61,-19,-41,14,-78,-97,-68,-53,-53
-48,-63,-14,56,-17,-39,14,-78,-97,-58,-53,-48
-48,-63,-14,56,-17,-39,14,-78,-92,-68,-53,-48
-48,-63,-14,56,-17,-39,14,-78,-92,-68,-48,-48
-39,-73,-34,56,-2,-53,14,-78,-97,-63,-58,-53
-34,-68,-34,51,0,-51,14,-78,-97,-63,-58,-53
-34,-63,-29,48,-2,-46,14,-78,-97,-63,-58,-48
-29,-58,-29,43,0,-43,19,-78,-92,-63,-58,-48
-29,-58,-29,43,0,-43,19,-63,-82,-58,-48,-48
-29,-48,-19,39,-4,-34,29,-58,-78,-53,-43,-39
-29,-43,-14,36,-7,-29,29,-58,-78,-43,-39,-39
-29,-43,-14,36,-7,-29,29,-58,-78,-43,-39,-39
-29,-34,-4,31,-12,-19,29,-68,-78,-43,-39,-34
-29,-34,-4,31,-12,-19,24,-68,-78,-43,-39,-34
-14,-29,-14,21,0,-21,24,-68,-73,-43,-39,-24
-14,-29,-14,21,0,-21,14,-68,-68,-34,-29,-24
0,-29,-29,14,14,-29,19,-58,-68,-34,-24,-24
4,-19,-24,7,14,-21,14,-58,-68,-34,-24,-19
14,-9,-24,-2,19,-17,9,-68,-68,-34,-24,-14
19,-9,-29,-4,24,-19,4,-68,-73,-29,-19,-14
9,0,-9,-4,9,-4,-4,-82,-73,-24,-4,-14
9,0,-9,-4,9,-4,-4,-82,-73,-24,-4,-9
9,14,4,-12,2,9,-4,-78,-73,-24,-4,-9
4,24,19,-14,-7,21,-4,-78,-73,-19,-4,-4
-4,19,24,-7,-14,21,0,-78,-78,-19,-4,-4
0,19,19,-9,-9,19,0,-87,-82,-19,-4,-4
0,19,19,-9,-9,19,-9,-87,-82,-24,-4,-4
9,19,9,-14,0,14,-14,-87,-82,-24,-4,-4
29,19,-9,-24,19,4,-29,-92,-87,-24,-14,-4
43,19,-24,-31,34,-2,-43,-97,-87,-24,-14,-4
53,9,-43,-31,48,-17,-53,-102,-92,-24,-14,-4
63,0,-63,-31,63,-31,-58,-107,-92,-29,-14,-4
58,-9,-68,-24,63,-39,-48,-97,-78,-29,-4,-14
53,-14,-68,-19,61,-41,-48,-97,-78,-34,-4,-14
48,-24,-73,-12,61,-48,-43,-97,-78,-39,-14,-14
34,-29,-63,-2,48,-46,-43,-107,-87,-43,-14,-24
29,-34,-63,2,46,-48,-39,-112,-97,-58,-34,-29
14,-39,-53,12,34,-46,-39,-112,-97,-58,-34,-29
4,-39,-43,17,24,-41,-29,-112,-92,-58,-34,-29
4,-39,-43,17,24,-41,-24,-107,-92,-58,-29,-19
0,-39,-39,19,19,-39,-19,-102,-87,-39,-24,-19
-4,-39,-34,21,14,-36,-14,-102,-82,-39,-24,-19
-4,-39,-34,21,14,-36,-14,-97,-82,-39,-24,-19
-4,-48,-43,26,19,-46,-14,-97,-82,-39,-34,-29
-4,-63,-58,34,26,-61,-4,-97,-82,-39,-29,-24
-19,-68,-48,43,14,-58,-4,-97,-82,-43,-29,-29
-34,-78,-43,56,4,-61,4,-97,-82,-48,-34,-34
-43,-87,-43,65,0,-65,9,-92,-82,-48,-39,-39
-43,-87,-43,65,0,-65,9,-92,-82,-58,-43,-39
-48,-97,-48,73,0,-73,9,-87,-82,-58,-43,-43
-53,-102,-48,78,-2,-75,9,-87,-82,-58,-43,-48
-53,-107,-53,80,0,-80,9,-87,-82,-68,-43,-48
-63,-117,-53,90,-4,-85,14,-87,-92,-58,-48,-53
-73,-117,-43,95,-14,-80,14,-87,-92,-63,-53,-58
-73,-122,-48,97,-12,-85,14,-87,-92,-63,-58,-58
-73,-122,-48,97,-12,-85,14,-92,-92,-63,-58,-63
-63,-122,-58,92,-2,-90,9,-97,-112,-78,-63,-63
-63,-122,-58,92,-2,-90,9,-97,-112,-82,-68,-68
-68,-131,-63,100,-2,-97,9,-97,-112,-82,-68,-73
-68,-136,-68,102,0,-102,9,-102,-117,-87,-68,-73
-73,-126,-53,100,-9,-90,9,-102,-117,-97,-68,-73
-73,-126,-53,100,-9,-90,9,-102,-117,-97,-68,-73
-73,-126,-53,100,-9,-90,9,-97,-117,-97,-68,-73
-73,-126,-53,100,-9,-90,9,-97,-117,-97,-73,-73
-73,-126,-53,100,-9,-90,9,-97,-112,-97,-82,-78
-73,-126,-53,100,-9,-90,9,-102,-112,-102,-87,-78
-73,-131,-58,102,-7,-95,9,-102,-112,-102,-87,-78
-73,-131,-58,102,-7,-95,14,-97,-112,-102,-87,-78
-82,-131,-48,107,-17,-90,14,-97,-112,-92,-82,-73
-82,-131,-48,107,-17,-90,14,-97,-112,-92,-82,-73
-78,-126,-48,102,-14,-87,14,-97,-112,-92,-87,-78
-78,-126,-48,102,-14,-87,14,-97,-112,-92,-87,-82
-73,-126,-53,100,-9,-90,24,-97,-112,-92,-78,-82
-73,-151,-78,112,2,-114,24,-87,-112,-92,-87,-78
-82,-156,-73,119,-4,-114,29,-87,-117,-97,-97,-92
-112,-146,-34,129,-39,-90,43,-82,-122,-107,-107,-97
-131,-146,-14,139,-58,-80,68,-73,-131,-126,-117,-112
-136,-165,-29,151,-53,-97,87,-73,-161,-141,-136,-136
-141,-165,-24,153,-58,-95,107,-63,-165,-146,-156,-151
-161,-161,0,161,-80,-80,136,-34,-146,-126,-136,-141
-161,-151,9,156,-85,-70,151,0,-107,-82,-87,-112
-151,-146,4,148,-78,-70,165,39,-53,-19,-39,-73
-102,-131,-29,117,-36,-80,156,87,14,53,14,-29
-43,-97,-53,70,4,-75,146,161,112,126,92,34
34,-68,-102,17,68,-85,151,248,224,204,175,102
112,-43,-156,-34,134,-100,165,346,346,307,263,180
204,4,-200,-104,202,-97,156,429,497,439,400,292
341,78,-263,-209,302,-92,117,488,673,605,566,439
527,170,-356,-348,441,-92,48,566,893,814,766,619
702,273,-429,-488,566,-78,-9,634,1122,1034,980,805
863,414,-448,-639,656,-17,-78,668,1317,1239,1185,980
1024,570,-453,-797,739,58,-151,668,1498,1420,1351,1146
1185,697,-488,-941,836,104,-253,624,1629,1566,1517,1307
1327,834,-492,-1080,910,170,-400,507,1683,1644,1620,1444
1405,985,-419,-1195,912,283,-546,346,1664,1659,1654,1498
1459,1063,-395,-1261,927,334,-658,190,1561,1571,1600,1483
1532,941,-590,-1237,1061,175,-746,39,1400,1327,1420,1385
1527,692,-834,-1110,1180,-70,-756,-34,1205,976,1137,1180
1371,444,-927,-907,1149,-241,-673,-34,1049,634,844,956
1180,326,-854,-753,1017,-263,-575,-68,893,395,629,805
1039,322,-717,-680,878,-197,-556,-156,746,268,527,722
897,341,-556,-619,727,-107,-531,-239,570,180,429,639
692,302,-390,-497,541,-43,-429,-268,405,97,322,527
424,214,-209,-319,317,2,-297,-297,204,-9,195,380
185,131,-53,-158,119,39,-204,-405,-58,-107,53,234
29,68,39,-48,-4,53,-165,-512,-287,-180,-19,141
-24,24,48,0,-36,36,-165,-541,-385,-204,-63,82
-48,-9,39,29,-43,14,-165,-522,-409,-209,-82,29
-78,0,78,39,-78,39,-141,-463,-361,-200,-97,-4
-78,19,97,29,-87,58,-107,-361,-273,-165,-97,-24
-78,9,87,34,-82,48,-82,-273,-195,-122,-82,-39
-78,-9,68,43,-73,29,-58,-214,-146,-102,-63,-39
-73,-19,53,46,-63,17,-43,-156,-102,-87,-53,-39
-58,-29,29,43,-43,0,-24,-117,-68,-73,-58,-43
-48,-34,14,41,-31,-9,-14,-97,-63,-73,-58,-43
-58,-53,4,56,-31,-24,-14,-82,-68,-73,-53,-48
-58,-63,-4,61,-26,-34,-4,-73,-63,-73,-58,-48
-58,-68,-9,63,-24,-39,4,-58,-53,-78,-63,-43
-58,-78,-19,68,-19,-48,9,-53,-53,-78,-63,-48
-58,-87,-29,73,-14,-58,14,-43,-53,-78,-68,-53
-68,-97,-29,82,-19,-63,19,-43,-58,-87,-73,-58
-68,-92,-24,80,-21,-58,14,-43,-63,-78,-68,-63
-68,-92,-24,80,-21,-58,14,-43,-63,-82,-68,-68
-68,-92,-24,80,-21,-58,14,-39,-63,-82,-73,-73
-68,-97,-29,82,-19,-63,19,-39,-63,-78,-73,-78
-73,-97,-24,85,-24,-61,19,-39,-63,-78,-78,-78
-73,-97,-24,85,-24,-61,19,-39,-68,-82,-78,-78
-78,-97,-19,87,-29,-58,19,-39,-73,-82,-78,-78
-78,-97,-19,87,-29,-58,24,-34,-73,-87,-78,-82
-78,-102,-24,90,-26,-63,24,-43,-78,-97,-82,-92
-78,-102,-24,90,-26,-63,24,-43,-78,-97,-87,-92
-78,-102,-24,90,-26,-63,24,-43,-78,-97,-92,-92
-78,-102,-24,90,-26,-63,29,-43,-82,-97,-102,-92
-78,-107,-29,92,-24,-68,29,-43,-73,-92,-92,-92
-78,-107,-29,92,-24,-68,29,-43,-73,-92,-92,-92
-82,-117,-34,100,-24,-75,29,-43,-73,-87,-92,-92
-82,-117,-34,100,-24,-75,29,-39,-73,-87,-92,-92
-82,-107,-24,95,-29,-65,24,-29,-73,-97,-102,-87
-82,-107,-24,95,-29,-65,24,-29,-73,-102,-102,-87
-82,-102,-19,92,-31,-61,24,-29,-73,-102,-102,-87
-82,-102,-19,92,-31,-61,24,-29,-73,-102,-102,-87
-82,-102,-19,92,-31,-61,34,-29,-73,-92,-92,-87
-82,-102,-19,92,-31,-61,34,-24,-68,-92,-92,-87
-82,-102,-19,92,-31,-61,34,-24,-68,-92,-92,-87
-82,-102,-19,92,-31,-61,34,-24,-68,-92,-92,-87
-82,-92,-9,87,-36,-51,34,-24,-73,-92,-92,-82
-82,-92,-9,87,-36,-51,34,-24,-73,-92,-92,-82
-82,-97,-14,90,-34,-56,34,-24,-68,-92,-92,-82
-78,-97,-19,87,-29,-58,34,-24,-68,-92,-92,-82
-68,-97,-29,82,-19,-63,24,-24,-78,-102,-87,-82
-73,-97,-24,85,-24,-61,29,-24,-78,-102,-87,-87
-73,-92,-19,82,-26,-56,29,-24,-82,-102,-87,-87
-73,-92,-19,82,-26,-56,24,-24,-82,-102,-87,-87
-82,-102,-19,92,-31,-61,24,-24,-73,-102,-97,-87
-82,-102,-19,92,-31,-61,24,-19,-73,-102,-97,-87
-82,-102,-19,92,-31,-61,24,-19,-68,-102,-97,-87
-82,-102,-19,92,-31,-61,24,-19,-68,-107,-97,-87
-92,-92,0,92,-46,-46,24,-29,-78,-97,-97,-92
-92,-97,-4,95,-43,-51,24,-29,-78,-97,-97,-92
-92,-97,-4,95,-43,-51,29,-29,-78,-97,-97,-92
-92,-97,-4,95,-43,-51,29,-24,-78,-97,-97,-92
-82,-97,-14,90,-34,-56,34,-24,-78,-97,-97,-92
-82,-97,-14,90,-34,-56,34,-24,-78,-97,-97,-92
-82,-97,-14,90,-34,-56,29,-24,-78,-97,-97,-92
-82,-97,-14,90,-34,-56,29,-24,-78,-97,-97,-92
-82,-107,-24,95,-29,-65,39,-24,-78,-97,-87,-92
-82,-107,-24,95,-29,-65,39,-24,-78,-97,-92,-92
-82,-107,-24,95,-29,-65,39,-24,-78,-97,-92,-92
-82,-107,-24,95,-29,-65,43,-24,-78,-97,-92,-92
-87,-97,-9,92,-39,-53,34,-14,-78,-97,-102,-92
-87,-97,-9,92,-39,-53,34,-14,-73,-102,-102,-92
-87,-97,-9,92,-39,-53,34,-9,-73,-102,-102,-97
-87,-102,-14,95,-36,-58,34,-9,-78,-102,-107,-97
-87,-112,-24,100,-31,-68,34,-9,-78,-102,-97,-87
-87,-112,-24,100,-31,-68,34,-9,-78,-102,-97,-87
-87,-112,-24,100,-31,-68,34,-9,-78,-102,-97,-87
-87,-112,-24,100,-31,-68,29,-9,-78,-102,-92,-87
-82,-102,-19,92,-31,-61,29,-19,-78,-107,-97,-97
-82,-102,-19,92,-31,-61,29,-19,-73,-112,-102,-97
-78,-102,-24,90,-26,-63,34,-19,-73,-117,-112,-97
-78,-102,-24,90,-26,-63,34,-19,-78,-122,-122,-97
-92,-112,-19,102,-36,-65,34,-14,-78,-112,-112,-97
-92,-112,-19,102,-36,-65,34,-14,-73,-117,-112,-102
-92,-112,-19,102,-36,-65,34,-14,-73,-117,-112,-102
-92,-112,-19,102,-36,-65,34,-14,-73,-117,-112,-102
-92,-107,-14,100,-39,-61,24,-9,-82,-117,-112,-112
-92,-107,-14,100,-39,-61,24,-9,-82,-122,-112,-117
-92,-107,-14,100,-39,-61,24,-9,-82,-122,-117,-117
-92,-107,-14,100,-39,-61,24,-9,-82,-122,-117,-117
-92,-107,-14,100,-39,-61,24,-19,-82,-112,-107,-107
-92,-107,-14,100,-39,-61,24,-19,-82,-112,-107,-107
-97,-107,-9,102,-43,-58,24,-19,-82,-112,-107,-107
-97,-107,-9,102,-43,-58,24,-19,-82,-112,-107,-107
-97,-97,0,97,-48,-48,34,-9,-73,-107,-117,-97
-97,-97,0,97,-48,-48,34,-4,-78,-107,-117,-102
-97,-97,0,97,-48,-48,34,-4,-78,-107,-122,-102
-97,-102,-4,100,-46,-53,34,-4,-73,-112,-122,-102
-97,-112,-14,104,-41,-63,34,-4,-78,-126,-122,-112
-97,-112,-14,104,-41,-63,34,-4,-78,-126,-122,-112
-102,-112,-9,107,-46,-61,34,-4,-82,-126,-122,-117
-102,-107,-4,104,-48,-56,34,-4,-82,-126,-122,-117
-97,-107,-9,102,-43,-58,24,0,-73,-126,-126,-126
-97,-107,-9,102,-43,-58,24,0,-73,-126,-126,-122
-97,-112,-14,104,-41,-63,24,0,-73,-126,-126,-122
-97,-112,-14,104,-41,-63,24,4,-73,-126,-126,-122
-97,-117,-19,107,-39,-68,24,4,-73,-117,-126,-117
-97,-117,-19,107,-39,-68,24,4,-68,-122,-126,-117
-97,-117,-19,107,-39,-68,29,9,-68,-122,-131,-117
-97,-117,-19,107,-39,-68,29,9,-78,-122,-131,-117
-97,-112,-14,104,-41,-63,29,9,-78,-131,-131,-126
-97,-107,-9,102,-43,-58,29,9,-78,-126,-126,-126
-97,-97,0,97,-48,-48,24,9,-78,-126,-126,-126
-102,-92,9,97,-56,-41,24,14,-78,-131,-126,-126
-102,-107,-4,104,-48,-56,29,14,-78,-122,-131,-117
-102,-107,-4,104,-48,-56,29,19,-73,-122,-131,-117
-102,-102,0,102,-51,-51,29,19,-73,-122,-126,-117
-102,-102,0,102,-51,-51,24,19,-73,-122,-126,-117
-102,-92,9,97,-56,-41,14,14,-73,-122,-126,-117
-102,-92,9,97,-56,-41,19,14,-68,-122,-126,-117
-102,-82,19,92,-61,-31,19,19,-63,-122,-126,-117
-102,-82,19,92,-61,-31,19,19,-58,-122,-126,-117
-92,-92,0,92,-46,-46,19,29,-58,-122,-126,-117
-87,-92,-4,90,-41,-48,19,34,-58,-122,-126,-117
-87,-87,0,87,-43,-43,19,34,-58,-122,-126,-117
-87,-87,0,87,-43,-43,19,34,-53,-117,-126,-117
-92,-78,14,85,-53,-31,24,34,-53,-126,-126,-117
-92,-73,19,82,-56,-26,24,39,-48,-126,-126,-117
-92,-68,24,80,-58,-21,24,48,-48,-122,-126,-117
-92,-53,39,73,-65,-7,29,48,-43,-122,-122,-112
-92,-58,34,75,-63,-12,19,58,-34,-112,-112,-102
-87,-58,29,73,-58,-14,19,58,-29,-112,-112,-102
-87,-53,34,70,-61,-9,19,63,-24,-107,-107,-102
-87,-53,34,70,-61,-9,19,73,-19,-107,-107,-102
-87,-48,39,68,-63,-4,19,63,-14,-112,-107,-102
-87,-39,48,63,-68,4,19,63,-9,-112,-102,-102
-87,-39,48,63,-68,4,19,73,-9,-107,-102,-102
-82,-34,48,58,-65,7,19,73,-4,-107,-102,-102
-82,-34,48,58,-65,7,19,73,0,-107,-107,-102
-82,-29,53,56,-68,12,19,87,4,-102,-107,-97
-82,-19,63,51,-73,21,19,92,9,-97,-102,-97
-82,-14,68,48,-75,26,19,92,14,-97,-97,-92
-82,0,82,41,-82,41,19,97,24,-97,-92,-92
-82,9,92,36,-87,51,19,102,29,-87,-87,-78
-82,19,102,31,-92,61,19,107,34,-82,-87,-78
-78,19,97,29,-87,58,19,112,39,-78,-82,-78
-68,29,97,19,-82,63,19,122,53,-63,-78,-68
-68,39,107,14,-87,73,19,126,58,-58,-73,-63
-63,48,112,7,-87,80,24,131,68,-53,-68,-58
-63,48,112,7,-87,80,24,136,73,-48,-63,-53
-63,48,112,7,-87,80,24,141,78,-43,-58,-48
-58,63,122,-2,-90,92,19,146,92,-39,-53,-48
-53,73,126,-9,-90,100,19,151,92,-34,-53,-43
-53,82,136,-14,-95,109,19,156,107,-29,-48,-39
-53,92,146,-19,-100,119,19,170,122,-19,-29,-29
-48,102,151,-26,-100,126,19,175,136,-4,-24,-14
-39,117,156,-39,-97,136,19,180,146,-4,-14,-14
-39,126,165,-43,-102,146,19,185,156,0,-14,-14
-24,146,170,-61,-97,158,19,195,175,14,-4,-4
-19,161,180,-70,-100,170,19,204,185,24,9,0
-19,170,190,-75,-104,180,19,209,195,34,19,9
-19,180,200,-80,-109,190,19,214,209,34,24,24
-9,185,195,-87,-102,190,9,229,224,39,24,29
-4,195,200,-95,-102,197,14,239,239,48,34,39
0,209,209,-104,-104,209,14,239,248,58,39,48
4,219,214,-112,-104,217,14,253,258,68,53,58
9,224,214,-117,-102,219,14,244,268,68,58,58
14,234,219,-124,-102,226,9,253,283,73,68,68
19,244,224,-131,-102,234,9,258,287,82,78,78
24,253,229,-139,-102,241,9,263,297,92,87,87
34,263,229,-148,-97,246,9,278,317,112,107,97
39,278,239,-158,-100,258,9,283,326,122,117,107
43,283,239,-163,-97,261,4,287,341,136,126,117
48,292,244,-170,-97,268,4,297,351,146,136,126
68,307,239,-187,-85,273,4,292,366,156,146,131
73,312,239,-192,-82,275,4,297,380,165,156,141
78,326,248,-202,-85,287,4,302,385,175,165,151
87,336,248,-212,-80,292,4,302,395,180,175,156
82,346,263,-214,-90,305,-9,302,395,185,180,170
87,351,263,-219,-87,307,-9,312,405,200,190,185
92,361,268,-226,-87,314,-14,317,414,209,200,195
102,366,263,-234,-80,314,-14,317,424,219,209,204
117,370,253,-244,-68,312,-4,317,424,229,214,204
122,370,248,-246,-63,309,-4,317,434,239,224,214
126,370,244,-248,-58,307,-9,317,439,244,234,219
131,370,239,-251,-53,305,-9,317,444,253,244,224
126,361,234,-244,-53,297,0,307,444,258,248,224
136,361,224,-248,-43,292,-9,302,444,263,253,229
141,356,214,-248,-36,285,-9,297,444,263,258,234
141,351,209,-246,-34,280,-9,292,434,268,258,234
146,346,200,-246,-26,273,-24,283,419,268,263,234
146,346,200,-246,-26,273,-29,268,414,268,268,244
146,341,195,-244,-24,268,-29,263,405,268,268,244
146,326,180,-236,-17,253,-29,253,400,273,268,244
146,307,161,-226,-7,234,-34,244,395,273,273,229
146,302,156,-224,-4,229,-29,234,385,273,273,229
141,292,151,-217,-4,222,-24,224,375,268,268,224
131,283,151,-207,-9,217,-19,214,361,268,268,219
131,283,151,-207,-9,217,-24,195,341,253,253,214
126,268,141,-197,-7,204,-24,180,326,239,244,209
126,253,126,-190,0,190,-24,170,307,229,234,204
126,244,117,-185,4,180,-29,165,283,219,214,200
117,219,102,-168,7,161,-19,156,278,214,219,204
112,204,92,-158,9,148,-14,146,258,209,214,200
112,195,82,-153,14,139,-14,131,248,200,204,185
107,185,78,-146,14,131,-14,122,224,190,195,180
92,185,92,-139,0,139,-19,97,195,170,180,165
87,170,82,-129,2,126,-19,92,185,161,165,151
87,156,68,-122,9,112,-19,82,170,151,156,136
82,141,58,-112,12,100,-19,73,156,141,141,126
78,136,58,-107,9,97,-19,63,146,141,136,112
73,126,53,-100,9,90,-19,53,131,131,126,107
68,117,48,-92,9,82,-19,43,107,112,112,97
63,112,48,-87,7,80,-19,34,102,102,107,87
58,102,43,-80,7,73,-9,24,87,97,97,73
53,92,39,-73,7,65,-9,14,78,82,87,68
48,78,29,-63,9,53,-9,9,63,73,78,58
43,73,29,-58,7,51,-9,4,48,63,68,48
39,53,14,-46,12,34,-19,0,43,53,58,48
34,48,14,-41,9,31,-14,-4,34,48,53,43
29,39,9,-34,9,24,-14,-4,29,39,43,29
24,34,9,-29,7,21,-19,-19,19,29,34,24
14,29,14,-21,0,21,-9,-24,14,19,29,29
14,24,9,-19,2,17,-9,-24,0,9,24,24
14,9,-4,-12,9,2,-9,-19,0,0,14,19
14,9,-4,-12,9,2,-9,-24,-9,0,9,14
4,19,14,-12,-4,17,-19,-29,-24,0,14,0
4,4,0,-4,2,2,-19,-34,-24,-4,9,0
0,4,4,-2,-2,4,-19,-34,-29,-9,-4,-4
0,4,4,-2,-2,4,-19,-39,-34,-14,-4,-9
0,-9,-9,4,4,-9,-14,-39,-29,-19,-4,-14
-4,-9,-4,7,0,-7,-14,-39,-29,-19,-9,-14
-4,-9,-4,7,0,-7,-14,-43,-34,-24,-9,-14
-4,-9,-4,7,0,-7,-14,-43,-39,-29,-14,-14
-4,-14,-9,9,2,-12,-4,-43,-39,-19,-4,-4
-9,-19,-9,14,0,-14,-4,-43,-39,-24,-4,-9
-14,-24,-9,19,-2,-17,-4,-43,-39,-24,-4,-14
-14,-24,-9,19,-2,-17,-4,-43,-39,-24,-4,-14
-14,-29,-14,21,0,-21,-4,-39,-34,-24,-14,-24
-19,-29,-9,24,-4,-19,0,-39,-39,-34,-14,-24
-19,-24,-4,21,-7,-14,0,-39,-39,-34,-19,-34
-19,-24,-4,21,-7,-14,-4,-39,-39,-34,-19,-34
-19,-24,-4,21,-7,-14,-4,-39,-39,-34,-29,-34
-19,-24,-4,21,-7,-14,-4,-39,-39,-34,-29,-34
-19,-24,-4,21,-7,-14,-4,-39,-39,-34,-29,-34
-19,-34,-14,26,-2,-24,-4,-39,-39,-34,-29,-34
-19,-34,-14,26,-2,-24,-9,-39,-39,-24,-19,-24
-19,-34,-14,26,-2,-24,-9,-39,-39,-24,-19,-24
-24,-29,-4,26,-9,-17,-9,-39,-39,-24,-19,-24
-24,-29,-4,26,-9,-17,-9,-39,-39,-29,-19,-24
-29,-24,4,26,-17,-9,-9,-39,-39,-29,-24,-24
-29,-24,4,26,-17,-9,-9,-39,-39,-24,-24,-29
-29,-24,4,26,-17,-9,-9,-39,-39,-24,-19,-29
-29,-24,4,26,-17,-9,-9,-34,-34,-24,-19,-29
-29,-14,14,21,-21,0,-9,-34,-34,-24,-19,-29
-29,-14,14,21,-21,0,-4,-34,-34,-24,-19,-24
-29,-14,14,21,-21,0,-4,-34,-34,-24,-19,-24
-29,-9,19,19,-24,4,0,-34,-34,-19,-19,-24
-29,-9,19,19,-24,4,0,-34,-34,-19,-19,-24
-24,-19,4,21,-14,-7,-4,-34,-34,-19,-19,-24
-24,-9,14,17,-19,2,-4,-34,-34,-19,-14,-24
-29,-9,19,19,-24,4,-4,-34,-34,-19,-14,-24
-29,-14,14,21,-21,0,-9,-34,-43,-14,-14,-24
-24,-14,9,19,-17,-2,-9,-34,-39,-14,-14,-24
-24,-14,9,19,-17,-2,-9,-34,-34,-14,-14,-24
-29,-9,19,19,-24,4,-9,-34,-34,-14,-14,-19
-29,-19,9,24,-19,-4,-9,-24,-29,-14,-9,-19
-29,-29,0,29,-14,-14,-9,-24,-29,-14,-9,-24
-29,-29,0,29,-14,-14,-9,-24,-29,-14,-9,-24
-29,-29,0,29,-14,-14,-9,-24,-29,-14,-9,-24
-29,-14,14,21,-21,0,-19,-34,-39,-24,-19,-29
-29,-14,14,21,-21,0,-19,-34,-39,-24,-19,-29
-29,-9,19,19,-24,4,-19,-39,-39,-24,-19,-29
-34,-9,24,21,-29,7,-19,-39,-39,-24,-19,-29
-24,-9,14,17,-19,2,-9,-39,-39,-19,-19,-29
-24,-14,9,19,-17,-2,-9,-39,-39,-19,-19,-29
-24,-14,9,19,-17,-2,-9,-39,-39,-19,-19,-29
-24,-14,9,19,-17,-2,-9,-39,-39,-19,-19,-34
-24,-14,9,19,-17,-2,-19,-48,-43,-29,-19,-24
-24,-14,9,19,-17,-2,-19,-48,-43,-29,-19,-24
-24,-19,4,21,-14,-7,-19,-48,-43,-24,-19,-24
-24,-29,-4,26,-9,-17,-19,-48,-43,-24,-19,-24
-29,-14,14,21,-21,0,-9,-39,-43,-24,-19,-34
-29,-14,14,21,-21,0,-14,-43,-43,-29,-24,-34
-29,-14,14,21,-21,0,-14,-43,-48,-29,-24,-34
-29,-19,9,24,-19,-4,-14,-43,-48,-29,-24,-34
-29,-9,19,19,-24,4,-24,-58,-58,-29,-34,-34
-29,-9,19,19,-24,4,-24,-58,-58,-29,-34,-34
-34,-9,24,21,-29,7,-24,-58,-58,-29,-34,-34
-34,-9,24,21,-29,7,-24,-58,-58,-29,-34,-39
-24,-14,9,19,-17,-2,-14,-58,-58,-29,-34,-29
-24,-24,0,24,-12,-12,-14,-58,-58,-39,-34,-29
-29,-29,0,29,-14,-14,-14,-63,-58,-43,-39,-29
-29,-34,-4,31,-12,-19,-14,-63,-58,-43,-39,-29
-39,-34,4,36,-21,-14,-14,-63,-68,-53,-39,-39
-39,-24,14,31,-26,-4,-14,-63,-68,-53,-43,-43
-39,-24,14,31,-26,-4,-14,-63,-68,-53,-43,-43
-39,-24,14,31,-26,-4,-14,-63,-73,-53,-43,-43
-29,-19,9,24,-19,-4,-14,-68,-82,-43,-34,-53
-34,-19,14,26,-24,-2,-14,-73,-82,-43,-39,-53
-34,-19,14,26,-24,-2,-14,-73,-78,-43,-39,-48
-34,-19,14,26,-24,-2,-14,-73,-78,-43,-39,-48
-34,-19,14,26,-24,-2,-19,-73,-78,-58,-48,-48
-34,-24,9,29,-21,-7,-19,-73,-82,-58,-48,-48
-34,-24,9,29,-21,-7,-14,-78,-82,-58,-48,-48
-34,-24,9,29,-21,-7,-14,-78,-82,-58,-53,-48
-34,-34,0,34,-17,-17,-14,-78,-82,-58,-53,-53
-29,-34,-4,31,-12,-19,-14,-78,-87,-63,-53,-53
-29,-39,-9,34,-9,-24,-14,-78,-87,-63,-53,-53
-34,-39,-4,36,-14,-21,-19,-78,-87,-68,-53,-53
-43,-39,4,41,-24,-17,-29,-78,-87,-68,-48,-53
-43,-43,0,43,-21,-21,-24,-82,-87,-68,-48,-53
-48,-43,4,46,-26,-19,-24,-82,-87,-68,-48,-53
-48,-43,4,46,-26,-19,-24,-82,-92,-68,-48,-53
-43,-39,4,41,-24,-17,-19,-82,-92,-68,-48,-58
-43,-39,4,41,-24,-17,-19,-82,-92,-73,-48,-58
-43,-43,0,43,-21,-21,-19,-82,-92,-73,-48,-58
-43,-48,-4,46,-19,-26,-19,-82,-97,-73,-53,-58
-43,-58,-14,51,-14,-36,-19,-78,-97,-63,-53,-58
-48,-58,-9,53,-19,-34,-19,-78,-102,-63,-53,-58
-48,-58,-9,53,-19,-34,-19,-78,-102,-68,-53,-58
-48,-58,-9,53,-19,-34,-19,-78,-102,-68,-58,-63
-48,-53,-4,51,-21,-29,-29,-92,-107,-73,-68,-73
-48,-53,-4,51,-21,-29,-29,-92,-107,-82,-68,-73
-48,-58,-9,53,-19,-34,-29,-92,-107,-87,-68,-73
-48,-58,-9,53,-19,-34,-29,-92,-112,-92,-68,-73
-48,-48,0,48,-24,-24,-24,-92,-102,-87,-63,-68
-48,-48,0,48,-24,-24,-19,-92,-107,-82,-63,-68
-48,-53,-4,51,-21,-29,-19,-97,-107,-78,-63,-68
-48,-53,-4,51,-21,-29,-14,-97,-107,-73,-63,-63
-48,-43,4,46,-26,-19,-24,-102,-107,-78,-63,-63
-48,-43,4,46,-26,-19,-24,-102,-112,-78,-63,-63
-48,-43,4,46,-26,-19,-19,-107,-117,-78,-63,-73
-48,-43,4,46,-26,-19,-19,-107,-122,-82,-68,-73
-48,-48,0,48,-24,-24,-19,-97,-117,-82,-68,-73
-48,-58,-9,53,-19,-34,-19,-97,-117,-82,-68,-73
-48,-63,-14,56,-17,-39,-19,-97,-117,-82,-68,-73
-48,-63,-14,56,-17,-39,-24,-102,-117,-82,-68,-73
-48,-63,-14,56,-17,-39,-24,-92,-122,-82,-73,-73
-48,-63,-14,56,-17,-39,-24,-92,-122,-82,-73,-73
-48,-68,-19,58,-14,-43,-19,-92,-122,-82,-73,-73
-48,-68,-19,58,-14,-43,-19,-92,-122,-82,-68,-68
-48,-53,-4,51,-21,-29,-24,-102,-131,-102,-78,-78
-53,-48,4,51,-29,-21,-24,-102,-131,-92,-78,-78
-53,-43,9,48,-31,-17,-24,-102,-131,-92,-78,-78
-53,-39,14,46,-34,-12,-24,-102,-131,-92,-78,-78
-53,-43,9,48,-31,-17,-24,-102,-131,-102,-78,-73
-53,-48,4,51,-29,-21,-24,-102,-131,-102,-78,-73
-53,-58,-4,56,-24,-31,-24,-102,-136,-107,-82,-73
-53,-63,-9,58,-21,-36,-24,-102,-136,-107,-82,-78
-53,-73,-19,63,-17,-46,-14,-102,-136,-97,-73,-78
-53,-73,-19,63,-17,-46,-14,-102,-136,-97,-73,-78
-53,-78,-24,65,-14,-51,-14,-102,-136,-97,-73,-73
-53,-78,-24,65,-14,-51,-9,-102,-136,-97,-73,-73
-43,-73,-29,58,-7,-51,-19,-102,-126,-92,-78,-78
-53,-68,-14,61,-19,-41,-19,-107,-131,-87,-73,-78
-68,-48,19,58,-43,-14,-19,-107,-136,-87,-78,-78
-58,-58,0,58,-29,-29,-19,-107,-136,-97,-78,-78
-58,-58,0,58,-29,-29,-19,-107,-136,-97,-78,-78
-58,-58,0,58,-29,-29,-19,-107,-136,-97,-78,-78
-58,-58,0,58,-29,-29,-19,-107,-136,-97,-78,-78
-48,-68,-19,58,-14,-43,-19,-107,-136,-97,-87,-78
-48,-68,-19,58,-14,-43,-19,-107,-136,-97,-87,-78
-48,-68,-19,58,-14,-43,-19,-107,-136,-97,-87,-78
-48,-68,-19,58,-14,-43,-19,-107,-136,-97,-87,-78
-48,-63,-14,56,-17,-39,-29,-107,-136,-97,-78,-87
-48,-58,-9,53,-19,-34,-29,-107,-136,-97,-78,-87
-48,-53,-4,51,-21,-29,-29,-107,-136,-97,-78,-87
-48,-48,0,48,-24,-24,-29,-107,-136,-97,-78,-87
-58,-58,0,58,-29,-29,-29,-107,-136,-97,-78,-78
-58,-58,0,58,-29,-29,-29,-107,-136,-97,-78,-78
-58,-58,0,58,-29,-29,-29,-107,-136,-97,-78,-78
-58,-58,0,58,-29,-29,-29,-107,-136,-97,-78,-78
-58,-68,-9,63,-24,-39,-19,-107,-136,-107,-87,-87
-58,-68,-9,63,-24,-39,-19,-107,-136,-107,-87,-87
-58,-68,-9,63,-24,-39,-19,-107,-136,-107,-87,-87
-58,-68,-9,63,-24,-39,-19,-107,-136,-107,-87,-87
-58,-58,0,58,-29,-29,-19,-107,-146,-97,-87,-87
-58,-58,0,58,-29,-29,-19,-107,-146,-97,-87,-87
-58,-58,0,58,-29,-29,-19,-107,-146,-97,-87,-87
-58,-58,0,58,-29,-29,-19,-107,-146,-97,-87,-87
-58,-48,9,53,-34,-19,-19,-117,-136,-97,-78,-78
-58,-48,9,53,-34,-19,-19,-117,-136,-97,-78,-78
-58,-48,9,53,-34,-19,-19,-117,-136,-97,-78,-78
-58,-48,9,53,-34,-19,-19,-117,-136,-97,-78,-78
-48,-53,-4,51,-21,-29,-19,-117,-136,-107,-87,-87
-48,-58,-9,53,-19,-34,-19,-117,-136,-107,-87,-87
-48,-63,-14,56,-17,-39,-19,-117,-136,-107,-87,-87
-48,-68,-19,58,-14,-43,-19,-117,-136,-107,-87,-87
-48,-58,-9,53,-19,-34,-29,-117,-146,-107,-97,-97
-48,-58,-9,53,-19,-34,-29,-117,-146,-107,-97,-97
-48,-58,-9,53,-19,-34,-29,-117,-146,-107,-97,-97
-48,-58,-9,53,-19,-34,-29,-117,-146,-107,-97,-97
-48,-58,-9,53,-19,-34,-29,-117,-146,-107,-97,-97
-48,-58,-9,53,-19,-34,-29,-117,-146,-107,-97,-97
-48,-58,-9,53,-19,-34,-29,-117,-146,-107,-97,-97
-48,-58,-9,53,-19,-34,-29,-117,-146,-107,-97,-97
-58,-58,0,58,-29,-29,-29,-117,-146,-107,-97,-87
-58,-58,0,58,-29,-29,-29,-117,-146,-107,-97,-87
-58,-58,0,58,-29,-29,-29,-117,-146,-107,-97,-87
-58,-58,0,58,-29,-29,-29,-117,-146,-107,-97,-87
-58,-58,0,58,-29,-29,-29,-117,-146,-107,-87,-87
-58,-58,0,58,-29,-29,-29,-117,-146,-107,-87,-87
-58,-58,0,58,-29,-29,-29,-117,-146,-107,-87,-87
-58,-58,0,58,-29,-29,-29,-117,-146,-107,-87,-87
-48,-58,-9,53,-19,-34,-29,-126,-146,-107,-97,-97
-48,-58,-9,53,-19,-34,-29,-126,-146,-107,-97,-97
-48,-58,-9,53,-19,-34,-29,-126,-146,-107,-97,-97
-48,-58,-9,53,-19,-34,-29,-126,-146,-107,-97,-97
-58,-58,0,58,-29,-29,-29,-122,-136,-97,-87,-97
-58,-58,0,58,-29,-29,-29,-117,-136,-97,-87,-97
-58,-58,0,58,-29,-29,-29,-112,-136,-97,-87,-97
-58,-58,0,58,-29,-29,-29,-107,-136,-97,-87,-97
-58,-48,9,53,-34,-19,-29,-112,-146,-107,-87,-87
-58,-48,9,53,-34,-19,-29,-117,-146,-107,-87,-87
-58,-48,9,53,-34,-19,-29,-122,-146,-107,-87,-87
-58,-48,9,53,-34,-19,-29,-126,-146,-107,-87,-87
-58,-58,0,58,-29,-29,-29,-126,-146,-97,-87,-87
-58,-58,0,58,-29,-29,-29,-126,-146,-97,-87,-87
-58,-58,0,58,-29,-29,-29,-126,-146,-97,-87,-87
-58,-58,0,58,-29,-29,-29,-126,-146,-97,-87,-87
-58,-68,-9,63,-24,-39,-29,-117,-146,-107,-87,-97
-58,-68,-9,63,-24,-39,-29,-117,-146,-107,-87,-97
-58,-68,-9,63,-24,-39,-29,-117,-146,-107,-87,-97
-58,-68,-9,63,-24,-39,-29,-117,-146,-107,-87,-97
-58,-58,0,58,-29,-29,-39,-126,-156,-107,-97,-97
-58,-58,0,58,-29,-29,-39,-126,-156,-107,-97,-97
-58,-58,0,58,-29,-29,-39,-126,-156,-107,-97,-97
-58,-58,0,58,-29,-29,-39,-126,-156,-107,-97,-97
-58,-48,9,53,-34,-19,-39,-117,-146,-97,-87,-87
-58,-48,9,53,-34,-19,-39,-117,-146,-97,-87,-87
-58,-48,9,53,-34,-19,-39,-117,-146,-97,-87,-87
-58,-48,9,53,-34,-19,-39,-117,-146,-97,-87,-87
-58,-58,0,58,-29,-29,-29,-117,-146,-107,-97,-97
-58,-58,0,58,-29,-29,-29,-117,-146,-107,-97,-97
-58,-58,0,58,-29,-29,-29,-117,-146,-107,-97,-97
-58,-58,0,58,-29,-29,-29,-117,-146,-107,-97,-97
-58,-58,0,58,-29,-29,-39,-126,-146,-97,-87,-87
-58,-58,0,58,-29,-29,-39,-126,-146,-97,-87,-87
-58,-58,0,58,-29,-29,-39,-126,-146,-97,-87,-87
-58,-58,0,58,-29,-29,-39,-126,-146,-97,-87,-87
-58,-58,0,58,-29,-29,-39,-126,-146,-107,-97,-97
-58,-58,0,58,-29,-29,-39,-126,-146,-107,-97,-97
-58,-58,0,58,-29,-29,-39,-126,-146,-107,-97,-97
-58,-58,0,58,-29,-29,-39,-126,-146,-107,-97,-97
-58,-48,9,53,-34,-19,-29,-126,-156,-107,-107,-107
-58,-48,9,53,-34,-19,-29,-126,-156,-107,-107,-107
-58,-48,9,53,-34,-19,-29,-126,-156,-107,-107,-107
-58,-48,9,53,-34,-19,-29,-126,-156,-107,-107,-107
-48,-58,-9,53,-19,-34,-29,-117,-146,-107,-97,-102
-48,-58,-9,53,-19,-34,-29,-117,-146,-107,-97,-97
-48,-58,-9,53,-19,-34,-29,-117,-146,-107,-97,-92
-48,-58,-9,53,-19,-34,-29,-117,-146,-107,-97,-87
-58,-68,-9,63,-24,-39,-19,-117,-146,-117,-107,-97
-58,-68,-9,63,-24,-39,-19,-117,-146,-117,-107,-97
-58,-68,-9,63,-24,-39,-19,-117,-146,-117,-107,-97
-58,-68,-9,63,-24,-39,-19,-117,-146,-117,-107,-97
-48,-63,-14,56,-17,-39,-24,-126,-151,-107,-97,-87
-48,-58,-9,53,-19,-34,-29,-126,-156,-107,-97,-87
-48,-53,-4,51,-21,-29,-34,-126,-161,-107,-97,-87
-48,-48,0,48,-24,-24,-39,-126,-165,-107,-97,-87
-48,-58,-9,53,-19,-34,-39,-126,-156,-107,-97,-97
-48,-58,-9,53,-19,-34,-39,-126,-156,-107,-97,-97
-48,-58,-9,53,-19,-34,-39,-126,-156,-107,-97,-97
-48,-58,-9,53,-19,-34,-39,-126,-156,-107,-97,-97
-58,-68,-9,63,-24,-39,-29,-117,-146,-107,-97,-97
-58,-68,-9,63,-24,-39,-29,-117,-146,-107,-97,-97
-58,-68,-9,63,-24,-39,-29,-117,-146,-107,-97,-97
-58,-68,-9,63,-24,-39,-29,-117,-146,-107,-97,-97
-48,-53,-4,51,-21,-29,-29,-117,-136,-107,-97,-87
-48,-48,0,48,-24,-24,-24,-112,-136,-102,-97,-82
-48,-34,14,41,-31,-9,-24,-112,-131,-97,-92,-82
-48,-29,19,39,-34,-4,-24,-112,-126,-97,-87,-78
-43,-34,9,39,-26,-12,-19,-102,-126,-92,-82,-78
-43,-24,19,34,-31,-2,-19,-102,-117,-92,-82,-73
-43,-19,24,31,-34,2,-14,-97,-117,-87,-82,-73
-39,-14,24,26,-31,4,-14,-97,-117,-78,-82,-68
-48,-14,34,31,-41,9,-24,-97,-122,-87,-82,-78
-48,-14,34,31,-41,9,-24,-97,-122,-87,-78,-78
-48,-14,34,31,-41,9,-24,-97,-126,-82,-78,-82
-43,-9,34,26,-39,12,-24,-97,-126,-82,-78,-82
-43,4,48,19,-46,26,-19,-97,-136,-82,-78,-78
-39,9,48,14,-43,29,-9,-97,-131,-82,-78,-78
-39,9,48,14,-43,29,-4,-92,-122,-78,-68,-78
-39,19,58,9,-48,39,9,-87,-117,-73,-63,-68
-29,19,48,4,-39,34,0,-87,-107,-63,-68,-68
-29,14,43,7,-36,29,0,-87,-107,-63,-68,-68
-29,9,39,9,-34,24,0,-87,-107,-63,-68,-63
-29,4,34,12,-31,19,-4,-87,-107,-63,-68,-63
-14,19,34,-2,-24,26,-4,-87,-92,-53,-58,-43
-14,19,34,-2,-24,26,-14,-87,-87,-43,-48,-43
-9,29,39,-9,-24,34,-19,-87,-87,-43,-43,-43
-4,39,43,-17,-24,41,-24,-87,-87,-43,-43,-39
-4,58,63,-26,-34,61,-39,-107,-97,-53,-43,-43
0,58,58,-29,-29,58,-43,-107,-102,-48,-39,-43
0,58,58,-29,-29,58,-43,-112,-102,-43,-34,-43
0,58,58,-29,-29,58,-43,-112,-102,-43,-34,-39
0,73,73,-36,-36,73,-34,-107,-102,-43,-34,-39
-4,82,87,-39,-46,85,-34,-107,-102,-39,-34,-34
-4,87,92,-41,-48,90,-39,-117,-107,-39,-34,-34
0,87,87,-43,-43,87,-39,-126,-112,-39,-34,-34
4,97,92,-51,-43,95,-58,-126,-112,-43,-24,-24
19,97,78,-58,-29,87,-63,-126,-112,-43,-24,-24
29,97,68,-63,-19,82,-73,-126,-107,-43,-24,-24
43,97,53,-70,-4,75,-82,-126,-107,-43,-24,-24
43,78,34,-61,4,56,-78,-117,-112,-43,-34,-24
43,68,24,-56,9,46,-78,-117,-112,-48,-34,-24
39,58,19,-48,9,39,-78,-117,-107,-48,-34,-24
34,53,19,-43,7,36,-78,-117,-107,-53,-34,-24
34,43,9,-39,12,26,-73,-117,-107,-58,-43,-34
24,39,14,-31,4,26,-73,-126,-117,-63,-43,-43
19,34,14,-26,2,24,-68,-131,-126,-68,-53,-48
4,29,24,-17,-9,26,-68,-131,-126,-68,-53,-48
-4,29,34,-12,-19,31,-58,-122,-112,-58,-43,-39
-4,29,34,-12,-19,31,-53,-117,-112,-58,-39,-29
-9,39,48,-14,-29,43,-48,-112,-107,-48,-34,-29
-14,39,53,-12,-34,46,-43,-112,-102,-48,-34,-29
-24,29,53,-2,-39,41,-34,-117,-112,-63,-39,-39
-24,19,43,2,-34,31,-34,-117,-112,-68,-53,-48
-24,4,29,9,-26,17,-34,-117,-122,-82,-63,-53
-39,0,39,19,-39,19,-34,-117,-122,-92,-68,-58
-48,0,48,24,-48,24,-29,-117,-122,-82,-68,-53
-53,-9,43,31,-48,17,-29,-112,-122,-78,-68,-58
-48,-9,39,29,-43,14,-24,-112,-122,-73,-68,-58
-48,-19,29,34,-39,4,-29,-107,-122,-68,-63,-63
-53,-34,19,43,-36,-7,-19,-107,-122,-78,-73,-68
-53,-39,14,46,-34,-12,-19,-107,-122,-87,-73,-68
-53,-48,4,51,-29,-21,-14,-107,-131,-87,-78,-73
-63,-48,14,56,-39,-17,-14,-107,-131,-92,-82,-78
-63,-43,19,53,-41,-12,-14,-117,-131,-92,-87,-87
-63,-43,19,53,-41,-12,-14,-122,-131,-92,-87,-92
-63,-43,19,53,-41,-12,-19,-126,-141,-97,-92,-92
-63,-43,19,53,-41,-12,-19,-126,-141,-102,-97,-97
-68,-63,4,65,-36,-29,-19,-117,-141,-102,-97,-92
-68,-68,0,68,-34,-34,-19,-122,-146,-107,-97,-92
-73,-68,4,70,-39,-31,-19,-122,-146,-107,-97,-92
-73,-68,4,70,-39,-31,-19,-122,-146,-107,-97,-92
-73,-68,4,70,-39,-31,-19,-117,-146,-97,-87,-92
-73,-68,4,70,-39,-31,-19,-117,-146,-97,-92,-92
-73,-68,4,70,-39,-31,-19,-117,-151,-97,-92,-97
-73,-68,4,70,-39,-31,-19,-122,-151,-102,-97,-97
-73,-63,9,68,-41,-26,-19,-122,-151,-112,-97,-97
-73,-63,9,68,-41,-26,-14,-117,-151,-112,-97,-97
-73,-63,9,68,-41,-26,-14,-117,-151,-112,-92,-92
-73,-63,9,68,-41,-26,-14,-117,-151,-112,-92,-92
-68,-48,19,58,-43,-14,-4,-117,-161,-112,-107,-97
-68,-68,0,68,-34,-34,-4,-107,-151,-112,-97,-102
-63,-87,-24,75,-19,-56,-4,-107,-151,-112,-107,-102
-63,-82,-19,73,-21,-51,-4,-107,-161,-131,-117,-117
-73,-78,-4,75,-34,-41,0,-107,-165,-146,-126,-122
-92,-97,-4,95,-43,-51,14,-102,-170,-156,-146,-136
-112,-107,4,109,-58,-51,29,-92,-180,-165,-165,-161
-136,-117,19,126,-78,-48,48,-82,-209,-190,-195,-185
-151,-126,24,139,-87,-51,68,-82,-224,-204,-214,-200
-161,-131,29,146,-95,-51,87,-73,-214,-185,-195,-190
-161,-112,48,136,-104,-31,102,-58,-195,-151,-165,-170
-141,-87,53,114,-97,-17,107,-19,-161,-97,-126,-141
-102,-73,29,87,-65,-21,107,39,-82,-34,-63,-97
-53,-58,-4,56,-24,-31,117,112,24,68,34,-14
4,-39,-43,17,24,-41,122,209,136,175,136,73
73,-4,-78,-34,75,-41,136,287,248,287,234,151
146,73,-73,-109,109,0,136,341,390,439,380,263
273,136,-136,-204,204,0,97,390,575,644,585,429
419,239,-180,-329,300,29,39,468,795,873,795,629
585,380,-204,-483,395,87,-29,536,1005,1102,1019,814
727,522,-204,-624,466,158,-97,561,1210,1337,1234,1010
868,658,-209,-763,539,224,-170,551,1390,1556,1449,1215
1019,805,-214,-912,617,295,-292,507,1542,1751,1654,1395
1151,980,-170,-1066,661,405,-439,409,1634,1878,1795,1542
1239,1112,-126,-1176,683,492,-575,297,1664,1912,1859,1634
1283,1180,-102,-1232,692,539,-668,170,1600,1854,1834,1659
1356,1127,-229,-1241,793,448,-766,39,1478,1649,1712,1610
1371,849,-522,-1110,946,163,-795,-24,1342,1307,1459,1444
1283,531,-751,-907,1017,-109,-722,-14,1215,936,1146,1210
1122,395,-727,-758,924,-165,-644,-48,1058,649,893,1029
980,390,-590,-685,785,-100,-624,-136,893,473,761,936
858,380,-478,-619,668,-48,-600,-190,736,366,653,854
692,331,-361,-512,527,-14,-497,-209,561,263,527,722
453,283,-170,-368,312,56,-375,-278,312,117,341,527
234,200,-34,-217,134,82,-292,-385,-9,-58,141,331
78,117,39,-97,19,78,-244,-483,-278,-180,9,190
4,73,68,-39,-31,70,-253,-522,-385,-204,-34,122
-29,58,87,-14,-58,73,-253,-522,-409,-209,-63,58
-58,58,117,0,-87,87,-219,-483,-390,-209,-87,4
-68,58,126,4,-97,92,-165,-380,-302,-175,-97,-14
-68,48,117,9,-92,82,-122,-283,-214,-131,-82,-19
-68,39,107,14,-87,73,-107,-214,-165,-112,-82,-39
-63,29,92,17,-78,61,-92,-165,-131,-97,-73,-48
-58,9,68,24,-63,39,-63,-117,-107,-82,-68,-53
-58,-4,53,31,-56,24,-43,-97,-92,-82,-68,-53
-58,-14,43,36,-51,14,-34,-92,-78,-82,-73,-58
-58,-34,24,46,-41,-4,-24,-73,-82,-82,-78,-58
-68,-29,39,48,-53,4,-24,-68,-82,-87,-73,-63
-68,-39,29,53,-48,-4,-19,-63,-82,-87,-73,-68
-68,-48,19,58,-43,-14,-14,-53,-82,-87,-78,-73
-78,-58,19,68,-48,-19,-9,-53,-87,-97,-82,-78
-68,-53,14,61,-41,-19,-14,-53,-102,-97,-87,-92
-68,-53,14,61,-41,-19,-14,-53,-102,-102,-87,-97
-68,-53,14,61,-41,-19,-14,-48,-102,-102,-92,-102
-68,-58,9,63,-39,-24,-9,-48,-102,-97,-92,-107
-73,-58,14,65,-43,-21,-9,-48,-92,-97,-97,-97
-73,-58,14,65,-43,-21,-9,-48,-97,-102,-97,-97
-78,-58,19,68,-48,-19,-9,-48,-102,-102,-97,-97
-78,-58,19,68,-48,-19,-4,-43,-102,-107,-97,-102
-68,-63,4,65,-36,-29,4,-34,-97,-107,-107,-102
-68,-63,4,65,-36,-29,4,-34,-97,-107,-107,-102
-68,-63,4,65,-36,-29,4,-34,-97,-107,-107,-102
-68,-63,4,65,-36,-29,9,-34,-102,-107,-112,-102
-68,-68,0,68,-34,-34,9,-34,-102,-112,-112,-112
-68,-68,0,68,-34,-34,9,-34,-102,-112,-112,-112
-73,-78,-4,75,-34,-41,9,-34,-102,-107,-112,-112
-73,-78,-4,75,-34,-41,9,-29,-102,-107,-112,-112
-73,-73,0,73,-36,-36,4,-39,-102,-107,-112,-117
-73,-68,4,70,-39,-31,4,-39,-102,-112,-112,-117
-73,-58,14,65,-43,-21,4,-39,-102,-112,-112,-117
-73,-53,19,63,-46,-17,4,-39,-102,-112,-112,-117
-73,-53,19,63,-46,-17,4,-39,-112,-102,-112,-117
-73,-53,19,63,-46,-17,4,-34,-107,-102,-112,-117
-73,-53,19,63,-46,-17,4,-34,-107,-102,-112,-117
-73,-53,19,63,-46,-17,4,-34,-107,-102,-112,-117
-73,-63,9,68,-41,-26,4,-34,-107,-102,-102,-102
-73,-63,9,68,-41,-26,4,-34,-102,-102,-102,-102
-73,-68,4,70,-39,-31,4,-34,-92,-102,-102,-102
-68,-68,0,68,-34,-34,4,-34,-87,-102,-102,-102
-78,-78,0,78,-39,-39,14,-34,-97,-112,-117,-112
-82,-78,4,80,-43,-36,19,-34,-97,-112,-117,-117
-82,-73,9,78,-46,-31,19,-34,-102,-112,-117,-117
-82,-73,9,78,-46,-31,14,-34,-102,-112,-117,-117
-73,-68,4,70,-39,-31,4,-34,-102,-112,-117,-117
-73,-63,9,68,-41,-26,4,-29,-102,-112,-117,-117
-73,-58,14,65,-43,-21,4,-29,-97,-112,-117,-117
-73,-53,19,63,-46,-17,4,-29,-97,-117,-117,-117
-73,-53,19,63,-46,-17,4,-29,-87,-107,-107,-112
-73,-58,14,65,-43,-21,4,-29,-87,-107,-107,-112
-73,-58,14,65,-43,-21,9,-29,-87,-107,-107,-112
-73,-58,14,65,-43,-21,9,-24,-87,-107,-107,-112
-82,-68,14,75,-48,-26,24,-24,-87,-107,-117,-112
-82,-68,14,75,-48,-26,24,-24,-87,-107,-117,-112
-82,-68,14,75,-48,-26,19,-24,-87,-107,-117,-112
-82,-68,14,75,-48,-26,19,-24,-87,-107,-117,-112
-82,-68,14,75,-48,-26,19,-24,-97,-107,-107,-112
-82,-68,14,75,-48,-26,19,-24,-97,-107,-112,-112
-82,-68,14,75,-48,-26,19,-24,-97,-107,-112,-112
-82,-68,14,75,-48,-26,24,-24,-97,-107,-112,-112
-87,-78,9,82,-48,-34,14,-14,-97,-117,-112,-122
-87,-78,9,82,-48,-34,14,-14,-92,-122,-112,-122
-87,-78,9,82,-48,-34,14,-9,-92,-122,-112,-126
-87,-82,4,85,-46,-39,14,-9,-97,-122,-117,-126
-78,-73,4,75,-41,-34,24,-19,-97,-122,-117,-126
-78,-73,4,75,-41,-34,24,-19,-97,-122,-117,-126
-78,-73,4,75,-41,-34,24,-19,-97,-122,-117,-126
-78,-73,4,75,-41,-34,19,-19,-97,-122,-112,-126
-73,-73,0,73,-36,-36,9,-9,-97,-122,-122,-126
-73,-73,0,73,-36,-36,9,-9,-92,-122,-122,-126
-68,-73,-4,70,-31,-39,14,-9,-92,-122,-126,-126
-68,-73,-4,70,-31,-39,14,-9,-97,-122,-131,-126
-78,-63,14,70,-46,-24,14,-14,-97,-112,-122,-117
-82,-63,19,73,-51,-21,14,-14,-92,-117,-122,-122
-87,-63,24,75,-56,-19,14,-14,-92,-117,-122,-122
-92,-63,29,78,-61,-17,14,-14,-92,-117,-122,-122
-92,-73,19,82,-56,-26,24,-9,-92,-126,-131,-122
-92,-78,14,85,-53,-31,24,-9,-92,-131,-131,-126
-92,-82,9,87,-51,-36,24,-9,-92,-131,-136,-126
-92,-87,4,90,-48,-41,24,-9,-92,-131,-136,-126
-82,-82,0,82,-41,-41,14,-9,-92,-131,-126,-136
-82,-78,4,80,-43,-36,14,-9,-92,-131,-126,-136
-87,-73,14,80,-51,-29,14,-9,-92,-131,-126,-136
-87,-68,19,78,-53,-24,14,-9,-92,-131,-126,-136
-87,-78,9,82,-48,-34,14,0,-92,-117,-126,-136
-87,-78,9,82,-48,-34,14,4,-97,-117,-126,-141
-87,-78,9,82,-48,-34,14,4,-97,-117,-131,-141
-87,-82,4,85,-46,-39,14,4,-92,-122,-131,-141
-87,-82,4,85,-46,-39,14,4,-87,-136,-141,-141
-87,-82,4,85,-46,-39,14,4,-87,-136,-141,-141
-92,-82,9,87,-51,-36,14,4,-92,-136,-141,-146
-92,-78,14,85,-53,-31,14,4,-92,-136,-141,-146
-87,-78,9,82,-48,-34,24,0,-92,-136,-136,-136
-87,-78,9,82,-48,-34,24,0,-92,-136,-136,-131
-87,-82,4,85,-46,-39,24,0,-92,-136,-136,-131
-87,-82,4,85,-46,-39,24,4,-92,-136,-136,-131
-87,-68,19,78,-53,-24,19,4,-92,-136,-146,-146
-87,-68,19,78,-53,-24,14,4,-87,-141,-146,-146
-87,-68,19,78,-53,-24,14,9,-87,-141,-151,-146
-87,-68,19,78,-53,-24,9,9,-97,-141,-151,-146
-87,-68,19,78,-53,-24,9,9,-87,-131,-141,-136
-87,-68,19,78,-53,-24,9,9,-87,-126,-136,-136
-87,-63,24,75,-56,-19,4,9,-87,-126,-136,-136
-92,-63,29,78,-61,-17,4,14,-87,-131,-136,-136
-92,-68,24,80,-58,-21,19,14,-87,-141,-151,-146
-92,-68,24,80,-58,-21,19,19,-82,-141,-151,-146
-92,-63,29,78,-61,-17,19,19,-82,-141,-146,-146
-92,-63,29,78,-61,-17,14,19,-82,-141,-146,-146
-92,-73,19,82,-56,-26,4,24,-73,-141,-146,-136
-92,-73,19,82,-56,-26,9,24,-68,-141,-146,-136
-92,-63,29,78,-61,-17,9,29,-63,-141,-146,-136
-92,-63,29,78,-61,-17,9,29,-58,-141,-146,-136
-102,-63,39,82,-70,-12,19,29,-68,-131,-136,-136
-97,-63,34,80,-65,-14,19,34,-68,-131,-136,-136
-97,-58,39,78,-68,-9,19,34,-68,-131,-136,-136
-97,-58,39,78,-68,-9,19,34,-63,-126,-136,-136
-92,-53,39,73,-65,-7,14,43,-53,-117,-126,-126
-92,-53,39,73,-65,-7,14,48,-48,-117,-126,-126
-92,-53,39,73,-65,-7,14,58,-48,-112,-126,-126
-92,-43,48,68,-70,2,19,58,-43,-112,-122,-122
-92,-39,53,65,-73,7,19,48,-53,-122,-131,-122
-87,-39,48,63,-68,4,19,48,-48,-122,-131,-122
-87,-34,53,61,-70,9,19,53,-43,-117,-126,-122
-87,-34,53,61,-70,9,19,63,-39,-117,-126,-122
-87,-19,68,53,-78,24,19,63,-34,-112,-126,-122
-87,-9,78,48,-82,34,19,63,-29,-112,-122,-122
-87,-9,78,48,-82,34,19,73,-29,-107,-122,-122
-82,-4,78,43,-80,36,19,73,-24,-107,-122,-122
-92,4,97,43,-95,51,29,82,-19,-107,-117,-112
-92,9,102,41,-97,56,29,97,-14,-102,-117,-107
-92,19,112,36,-102,65,29,102,-9,-97,-112,-107
-92,24,117,34,-104,70,29,102,-4,-97,-107,-102
-82,29,112,26,-97,70,29,97,14,-97,-102,-102
-82,39,122,21,-102,80,29,102,19,-87,-97,-87
-82,48,131,17,-107,90,29,107,24,-82,-97,-87
-78,48,126,14,-102,87,29,112,29,-78,-92,-87
-68,48,117,9,-92,82,19,122,43,-73,-87,-87
-68,58,126,4,-97,92,19,126,48,-68,-82,-82
-63,68,131,-2,-97,100,24,131,58,-63,-78,-78
-63,68,131,-2,-97,100,24,136,63,-58,-73,-73
-63,68,131,-2,-97,100,24,141,68,-53,-68,-58
-58,82,141,-12,-100,112,19,146,82,-48,-63,-58
-53,92,146,-19,-100,119,19,151,82,-43,-63,-53
-53,102,156,-24,-104,129,19,156,97,-39,-58,-48
-53,122,175,-34,-114,148,19,170,112,-29,-48,-39
-48,131,180,-41,-114,156,19,175,126,-14,-43,-24
-39,146,185,-53,-112,165,19,180,136,-14,-34,-24
-39,156,195,-58,-117,175,19,185,146,-9,-34,-24
-34,165,200,-65,-117,183,19,195,165,-4,-24,-24
-29,180,209,-75,-119,195,19,204,175,4,-9,-19
-29,190,219,-80,-124,204,19,209,185,14,0,-9
-29,200,229,-85,-129,214,19,214,200,14,4,4
-19,224,244,-102,-131,234,9,219,204,29,14,9
-14,234,248,-109,-131,241,14,229,219,39,24,19
-9,248,258,-119,-134,253,14,229,229,48,29,29
-4,258,263,-126,-134,261,14,244,239,58,43,39
-9,263,273,-126,-141,268,14,253,258,78,48,39
-4,273,278,-134,-141,275,9,263,273,82,58,48
0,283,283,-141,-141,283,9,268,278,92,68,58
4,292,287,-148,-141,290,9,273,287,102,78,68
14,322,307,-168,-146,314,9,268,307,122,92,87
19,336,317,-178,-148,326,9,273,317,131,107,97
24,341,317,-183,-146,329,4,278,331,146,122,107
29,351,322,-190,-146,336,4,287,341,156,136,117
39,351,312,-195,-136,331,4,292,356,165,136,131
43,351,307,-197,-131,329,4,297,370,175,146,141
48,361,312,-204,-131,336,4,302,375,185,156,151
58,366,307,-212,-124,336,4,302,385,190,165,156
63,375,312,-219,-124,344,0,292,395,195,170,151
68,380,312,-224,-122,346,0,302,405,209,180,165
73,390,317,-231,-122,353,-4,307,414,219,190,175
82,395,312,-239,-114,353,-4,307,424,229,200,185
82,390,307,-236,-112,348,-4,307,424,244,209,190
82,390,307,-236,-112,348,-4,307,434,258,224,204
82,390,307,-236,-112,348,-9,307,439,268,239,214
82,390,307,-236,-112,348,-9,307,444,283,253,224
97,400,302,-248,-102,351,0,297,434,278,248,224
107,400,292,-253,-92,346,-9,292,434,283,253,229
112,395,283,-253,-85,339,-9,287,434,283,258,234
112,390,278,-251,-82,334,-9,283,424,287,258,234
117,385,268,-251,-75,326,-14,273,419,287,263,234
117,385,268,-251,-75,326,-19,258,414,287,268,244
117,380,263,-248,-73,322,-19,253,405,287,268,244
117,366,248,-241,-65,307,-19,244,400,292,268,244
112,356,244,-234,-65,300,-29,234,385,302,283,248
117,351,234,-234,-58,292,-29,224,375,302,283,248
117,341,224,-229,-53,283,-29,214,366,297,278,244
112,331,219,-222,-53,275,-29,204,351,297,278,239
102,322,219,-212,-58,270,-24,185,326,278,258,229
97,307,209,-202,-56,258,-24,170,317,268,253,219
97,292,195,-195,-48,244,-24,161,302,263,248,209
97,283,185,-190,-43,234,-29,156,283,258,234,200
97,268,170,-183,-36,219,-29,146,268,234,224,185
92,253,161,-173,-34,207,-24,136,248,229,214,180
92,244,151,-168,-29,197,-24,122,239,219,200,165
87,234,146,-161,-29,190,-24,112,214,209,185,161
82,224,141,-153,-29,183,-29,107,195,200,185,161
78,209,131,-143,-26,170,-29,102,185,190,175,151
78,195,117,-136,-19,156,-29,92,170,180,170,141
73,180,107,-126,-17,143,-29,82,156,170,161,136
68,165,97,-117,-14,131,-29,73,146,165,156,122
63,156,92,-109,-14,124,-29,63,131,161,146,117
58,146,87,-102,-14,117,-29,53,107,146,131,107
53,141,87,-97,-17,114,-29,43,102,141,126,97
58,131,73,-95,-7,102,-29,34,87,122,112,73
53,122,68,-87,-7,95,-29,24,78,102,97,68
48,107,58,-78,-4,82,-29,19,63,87,82,58
43,102,58,-73,-7,80,-29,14,48,73,68,48
29,82,53,-56,-12,68,-19,19,43,73,58,39
24,78,53,-51,-14,65,-14,14,34,68,53,34
19,68,48,-43,-14,58,-14,14,29,58,43,19
14,63,48,-39,-17,56,-19,0,19,48,34,14
4,58,53,-31,-24,56,-19,-9,4,29,19,19
4,53,48,-29,-21,51,-19,-14,-9,19,14,14
4,39,34,-21,-14,36,-19,-14,-9,9,4,9
4,39,34,-21,-14,36,-19,-24,-19,9,0,4
4,29,24,-17,-9,26,-19,-24,-29,9,4,0
4,14,9,-9,-2,12,-19,-24,-24,4,0,0
0,14,14,-7,-7,14,-19,-19,-24,0,-14,-4
0,14,14,-7,-7,14,-19,-19,-24,-4,-14,-9
0,9,9,-4,-4,9,-14,-19,-29,-4,-4,-14
-4,9,14,-2,-9,12,-14,-19,-29,0,-9,-14
-4,9,14,-2,-9,12,-14,-24,-34,0,-9,-14
-4,9,14,-2,-9,12,-14,-24,-39,0,-14,-14
4,9,4,-7,0,7,-24,-34,-39,-9,-24,-24
0,9,9,-4,-4,9,-24,-34,-39,-14,-24,-29
-4,9,14,-2,-9,12,-24,-34,-39,-14,-24,-34
-4,14,19,-4,-12,17,-24,-34,-39,-14,-24,-34
-14,0,14,7,-14,7,-14,-39,-43,-14,-34,-24
-19,0,19,9,-19,9,-9,-39,-48,-24,-34,-24
-19,4,24,7,-21,14,-9,-39,-48,-24,-39,-34
-19,4,24,7,-21,14,-14,-39,-48,-24,-39,-34
-9,14,24,-2,-17,19,-14,-39,-48,-14,-29,-34
-9,14,24,-2,-17,19,-14,-39,-48,-14,-29,-34
-9,14,24,-2,-17,19,-14,-39,-48,-14,-29,-34
-9,4,14,2,-12,9,-14,-39,-48,-14,-29,-34
-9,14,24,-2,-17,19,-19,-39,-48,-14,-29,-34
-9,14,24,-2,-17,19,-19,-39,-48,-14,-29,-34
-14,19,34,-2,-24,26,-19,-39,-48,-14,-29,-34
-14,19,34,-2,-24,26,-19,-39,-48,-19,-29,-34
-19,24,43,-2,-31,34,-19,-39,-48,-19,-34,-34
-19,24,43,-2,-31,34,-19,-39,-48,-14,-34,-39
-19,24,43,-2,-31,34,-19,-39,-48,-14,-29,-39
-19,24,43,-2,-31,34,-19,-34,-43,-14,-29,-39
-19,9,29,4,-24,19,-9,-24,-39,-4,-19,-29
-19,4,24,7,-21,14,-4,-24,-34,-4,-19,-24
-19,0,19,9,-19,9,-4,-24,-29,-4,-19,-24
-19,0,19,9,-19,9,0,-24,-24,0,-19,-24
-19,9,29,4,-24,19,-9,-24,-34,-9,-19,-24
-14,0,14,7,-14,7,-14,-24,-34,-9,-19,-24
-14,9,24,2,-19,17,-14,-24,-34,-9,-14,-24
-19,9,29,4,-24,19,-14,-24,-34,-9,-14,-24
-19,19,39,0,-29,29,-19,-34,-43,4,-14,-34
-14,24,39,-4,-26,31,-19,-34,-39,4,-14,-34
-14,29,43,-7,-29,36,-19,-34,-34,4,-14,-34
-19,39,58,-9,-39,48,-19,-34,-34,4,-14,-29
-19,29,48,-4,-34,39,-19,-34,-39,-4,-19,-29
-19,19,39,0,-29,29,-19,-34,-39,-4,-19,-34
-19,19,39,0,-29,29,-19,-34,-39,-4,-19,-34
-19,19,39,0,-29,29,-19,-34,-39,-4,-19,-34
-19,34,53,-7,-36,43,-29,-34,-29,-4,-19,-19
-19,34,53,-7,-36,43,-29,-34,-29,-4,-19,-19
-19,39,58,-9,-39,48,-29,-39,-29,-4,-19,-19
-24,39,63,-7,-43,51,-29,-39,-29,-4,-19,-19
-24,29,53,-2,-39,41,-29,-39,-39,4,-9,-9
-24,24,48,0,-36,36,-29,-39,-39,9,-9,-9
-24,24,48,0,-36,36,-29,-39,-39,14,-9,-9
-24,24,48,0,-36,36,-29,-39,-39,19,-9,-14
-34,24,58,4,-46,41,-19,-39,-43,0,-9,-24
-34,24,58,4,-46,41,-19,-39,-43,0,-9,-24
-34,19,53,7,-43,36,-19,-39,-43,4,-9,-24
-34,9,43,12,-39,26,-19,-39,-43,4,-9,-24
-29,14,43,7,-36,29,-19,-39,-43,-4,-19,-24
-29,14,43,7,-36,29,-24,-43,-43,-9,-24,-24
-29,14,43,7,-36,29,-24,-43,-48,-9,-24,-24
-29,9,39,9,-34,24,-24,-43,-48,-9,-24,-24
-19,9,29,4,-24,19,-14,-48,-48,0,-24,-24
-19,9,29,4,-24,19,-14,-48,-48,0,-24,-24
-24,9,34,7,-29,21,-14,-48,-48,0,-24,-24
-24,9,34,7,-29,21,-14,-48,-48,0,-24,-29
-24,9,34,7,-29,21,-24,-48,-48,9,-14,-19
-24,4,29,9,-26,17,-24,-48,-48,0,-14,-19
-29,4,34,12,-31,19,-24,-53,-48,-4,-19,-19
-29,4,34,12,-31,19,-24,-53,-48,-4,-19,-19
-39,-4,34,21,-36,14,-24,-53,-58,-14,-29,-29
-39,4,43,17,-41,24,-24,-53,-58,-14,-34,-34
-39,4,43,17,-41,24,-24,-53,-58,-14,-34,-34
-39,4,43,17,-41,24,-24,-53,-63,-14,-34,-34
-39,9,48,14,-43,29,-24,-58,-73,-19,-43,-43
-43,9,53,17,-48,31,-24,-63,-73,-24,-48,-43
-43,9,53,17,-48,31,-24,-63,-68,-29,-48,-39
-43,9,53,17,-48,31,-24,-63,-68,-34,-48,-39
-43,4,48,19,-46,26,-19,-63,-68,-29,-39,-39
-43,-4,39,24,-41,17,-19,-63,-73,-29,-39,-39
-43,-9,34,26,-39,12,-14,-68,-73,-29,-39,-39
-43,-14,29,29,-36,7,-14,-68,-73,-29,-43,-39
-43,-4,39,24,-41,17,-24,-68,-73,-29,-43,-43
-39,-4,34,21,-36,14,-24,-68,-78,-34,-43,-43
-39,-9,29,24,-34,9,-24,-68,-78,-34,-43,-43
-43,-9,34,26,-39,12,-29,-68,-78,-39,-43,-43
-43,-19,24,31,-34,2,-19,-68,-78,-39,-48,-43
-43,-24,19,34,-31,-2,-14,-73,-78,-39,-48,-43
-48,-24,24,36,-36,0,-14,-73,-78,-39,-48,-43
-48,-24,24,36,-36,0,-14,-73,-82,-39,-48,-43
-34,-14,19,24,-26,2,-29,-73,-82,-29,-48,-58
-34,-9,24,21,-29,7,-29,-73,-82,-34,-48,-58
-34,-9,24,21,-29,7,-29,-73,-82,-34,-48,-58
-34,-9,24,21,-29,7,-29,-73,-87,-34,-53,-58
-43,0,43,21,-43,21,-29,-78,-87,-43,-43,-48
-48,0,48,24,-48,24,-29,-78,-92,-43,-43,-48
-48,0,48,24,-48,24,-29,-78,-92,-48,-43,-48
-48,0,48,24,-48,24,-29,-78,-92,-48,-48,-53
-39,-9,29,24,-34,9,-19,-82,-107,-48,-48,-53
-39,-14,24,26,-31,4,-19,-82,-107,-53,-48,-53
-39,-24,14,31,-26,-4,-19,-82,-107,-53,-48,-53
-39,-29,9,34,-24,-9,-19,-82,-112,-53,-48,-53
-39,-24,14,31,-26,-4,-29,-73,-112,-63,-63,-68
-39,-19,19,29,-29,0,-29,-73,-117,-63,-63,-68
-39,-19,19,29,-29,0,-34,-78,-117,-63,-63,-68
-39,-14,24,26,-31,4,-34,-78,-117,-63,-63,-63
-39,-24,14,31,-26,-4,-24,-73,-102,-58,-63,-63
-39,-24,14,31,-26,-4,-24,-73,-102,-58,-63,-63
-39,-24,14,31,-26,-4,-19,-78,-102,-58,-63,-73
-39,-24,14,31,-26,-4,-19,-78,-102,-63,-68,-73
-48,-14,34,31,-41,9,-19,-87,-117,-73,-78,-73
-48,-19,29,34,-39,4,-19,-87,-117,-73,-78,-73
-48,-19,29,34,-39,4,-19,-87,-117,-73,-78,-73
-48,-14,34,31,-41,9,-24,-92,-117,-73,-78,-73
-48,-19,29,34,-39,4,-24,-92,-122,-63,-78,-63
-48,-24,24,36,-36,0,-24,-92,-122,-63,-73,-63
-48,-34,14,41,-31,-9,-19,-92,-122,-63,-68,-63
-48,-39,9,43,-29,-14,-19,-92,-122,-63,-58,-58
-39,-34,4,36,-21,-14,-34,-92,-122,-73,-68,-68
-43,-29,14,36,-29,-7,-34,-92,-122,-63,-68,-68
-43,-24,19,34,-31,-2,-34,-92,-122,-63,-68,-68
-43,-19,24,31,-34,2,-34,-92,-122,-63,-68,-68
-53,-24,29,39,-41,2,-24,-92,-112,-63,-58,-63
-53,-29,24,41,-39,-2,-24,-92,-112,-63,-58,-63
-53,-39,14,46,-34,-12,-24,-92,-117,-68,-63,-63
-53,-43,9,48,-31,-17,-24,-92,-117,-68,-63,-68
-43,-29,14,36,-29,-7,-34,-92,-117,-58,-73,-58
-43,-24,19,34,-31,-2,-34,-92,-117,-58,-73,-58
-43,-24,19,34,-31,-2,-34,-92,-117,-58,-73,-53
-43,-19,24,31,-34,2,-29,-92,-117,-58,-73,-53
-53,-24,29,39,-41,2,-19,-92,-126,-63,-68,-68
-43,-9,34,26,-39,12,-19,-97,-122,-78,-73,-87
-58,-9,48,34,-53,19,-29,-97,-126,-87,-87,-87
-48,-24,24,36,-36,0,-29,-97,-126,-87,-87,-87
-48,-29,19,39,-34,-4,-29,-97,-126,-87,-87,-87
-48,-34,14,41,-31,-9,-29,-97,-126,-87,-87,-87
-48,-39,9,43,-29,-14,-29,-97,-126,-87,-87,-87
-48,-29,19,39,-34,-4,-29,-97,-136,-78,-78,-78
-48,-29,19,39,-34,-4,-29,-97,-136,-78,-78,-78
-48,-29,19,39,-34,-4,-29,-97,-136,-78,-78,-78
-48,-29,19,39,-34,-4,-29,-97,-136,-78,-78,-78
-39,-29,9,34,-24,-9,-29,-107,-136,-87,-78,-78
-39,-29,9,34,-24,-9,-29,-107,-136,-87,-78,-78
-39,-29,9,34,-24,-9,-29,-107,-136,-87,-78,-78
-39,-29,9,34,-24,-9,-29,-107,-136,-87,-78,-78
-48,-19,29,34,-39,4,-29,-107,-136,-78,-78,-78
-48,-19,29,34,-39,4,-29,-107,-136,-78,-78,-78
-48,-19,29,34,-39,4,-29,-107,-136,-78,-78,-78
-48,-19,29,34,-39,4,-29,-107,-136,-78,-78,-78
-48,-34,14,41,-31,-9,-19,-97,-126,-78,-78,-87
-48,-39,9,43,-29,-14,-19,-97,-126,-78,-78,-87
-48,-43,4,46,-26,-19,-19,-97,-126,-78,-78,-87
-48,-48,0,48,-24,-24,-19,-97,-126,-78,-78,-87
-48,-48,0,48,-24,-24,-29,-97,-126,-68,-87,-78
-48,-48,0,48,-24,-24,-29,-97,-126,-68,-87,-78
-48,-48,0,48,-24,-24,-29,-97,-126,-68,-87,-78
-48,-48,0,48,-24,-24,-29,-97,-126,-68,-87,-78
-48,-48,0,48,-24,-24,-39,-97,-136,-78,-78,-78
-48,-48,0,48,-24,-24,-39,-97,-136,-78,-78,-78
-48,-48,0,48,-24,-24,-39,-97,-136,-78,-78,-78
-48,-48,0,48,-24,-24,-39,-97,-136,-78,-78,-78
-58,-58,0,58,-29,-29,-34,-97,-126,-78,-78,-78
-58,-58,0,58,-29,-29,-29,-97,-126,-78,-78,-78
-58,-58,0,58,-29,-29,-24,-97,-126,-78,-78,-78
-58,-58,0,58,-29,-29,-19,-97,-126,-78,-78,-78
-48,-48,0,48,-24,-24,-29,-97,-126,-78,-78,-78
-48,-48,0,48,-24,-24,-29,-97,-126,-78,-78,-78
-48,-48,0,48,-24,-24,-29,-97,-126,-78,-78,-78
-48,-48,0,48,-24,-24,-29,-97,-126,-78,-78,-78
-48,-58,-9,53,-19,-34,-19,-97,-126,-78,-68,-68
-48,-58,-9,53,-19,-34,-19,-97,-126,-78,-68,-68
-48,-58,-9,53,-19,-34,-19,-97,-126,-78,-68,-68
-48,-58,-9,53,-19,-34,-19,-97,-126,-78,-68,-68
-48,-68,-19,58,-14,-43,-29,-97,-126,-78,-78,-78
-48,-68,-19,58,-14,-43,-29,-97,-126,-78,-78,-78
-48,-68,-19,58,-14,-43,-29,-97,-126,-78,-78,-78
-48,-68,-19,58,-14,-43,-29,-97,-126,-78,-78,-78
-48,-58,-9,53,-19,-34,-19,-97,-136,-78,-78,-87
-48,-58,-9,53,-19,-34,-19,-97,-136,-78,-78,-87
-48,-58,-9,53,-19,-34,-19,-97,-136,-78,-78,-87
-48,-58,-9,53,-19,-34,-19,-97,-136,-78,-78,-87
-48,-48,0,48,-24,-24,-29,-97,-126,-68,-68,-78
-48,-48,0,48,-24,-24,-29,-97,-126,-68,-68,-78
-48,-48,0,48,-24,-24,-29,-97,-126,-68,-68,-78
-48,-48,0,48,-24,-24,-29,-97,-126,-68,-68,-78
-48,-53,-4,51,-21,-29,-29,-97,-126,-68,-68,-68
-48,-58,-9,53,-19,-34,-29,-97,-126,-68,-68,-68
-48,-63,-14,56,-17,-39,-29,-97,-126,-68,-68,-68
-48,-68,-19,58,-14,-43,-29,-97,-126,-68,-68,-68
-48,-58,-9,53,-19,-34,-19,-107,-126,-78,-78,-78
-48,-58,-9,53,-19,-34,-19,-107,-126,-78,-78,-78
-48,-58,-9,53,-19,-34,-19,-107,-126,-78,-78,-78
-48,-58,-9,53,-19,-34,-19,-107,-126,-78,-78,-78
-48,-58,-9,53,-19,-34,-19,-107,-126,-68,-78,-78
-48,-58,-9,53,-19,-34,-19,-107,-126,-68,-78,-78
-48,-58,-9,53,-19,-34,-19,-107,-126,-68,-78,-78
-48,-58,-9,53,-19,-34,-19,-107,-126,-68,-78,-78
-48,-58,-9,53,-19,-34,-29,-107,-126,-78,-78,-68
-48,-58,-9,53,-19,-34,-29,-107,-126,-78,-78,-68
-48,-58,-9,53,-19,-34,-29,-107,-126,-78,-78,-68
-48,-58,-9,53,-19,-34,-29,-107,-126,-78,-78,-68
-58,-63,-4,61,-26,-34,-24,-97,-136,-78,-87,-73
-58,-68,-9,63,-24,-39,-19,-97,-136,-78,-87,-78
-58,-73,-14,65,-21,-43,-14,-97,-136,-78,-87,-82
-58,-78,-19,68,-19,-48,-9,-97,-136,-78,-87,-87
-48,-63,-14,56,-17,-39,-14,-107,-136,-78,-78,-78
-48,-58,-9,53,-19,-34,-19,-107,-136,-78,-78,-78
-48,-53,-4,51,-21,-29,-24,-107,-136,-78,-78,-78
-48,-48,0,48,-24,-24,-29,-107,-136,-78,-78,-78
-48,-58,-9,53,-19,-34,-29,-107,-136,-87,-87,-78
-48,-58,-9,53,-19,-34,-29,-107,-136,-87,-87,-78
-48,-58,-9,53,-19,-34,-29,-107,-136,-87,-87,-78
-48,-58,-9,53,-19,-34,-29,-107,-136,-87,-87,-78
-48,-68,-19,58,-14,-43,-19,-97,-136,-78,-78,-78
-48,-68,-19,58,-14,-43,-19,-97,-136,-78,-78,-78
-48,-68,-19,58,-14,-43,-19,-97,-136,-78,-78,-78
-48,-68,-19,58,-14,-43,-19,-97,-136,-78,-78,-78
-58,-63,-4,61,-26,-34,-29,-102,-136,-87,-78,-78
-58,-58,0,58,-29,-29,-29,-107,-136,-87,-78,-78
-58,-53,4,56,-31,-24,-29,-112,-136,-87,-78,-78
-58,-48,9,53,-34,-19,-29,-117,-136,-87,-78,-78
-48,-58,-9,53,-19,-34,-29,-107,-126,-78,-78,-68
-48,-58,-9,53,-19,-34,-29,-107,-126,-78,-78,-68
-48,-58,-9,53,-19,-34,-29,-107,-126,-78,-78,-68
-48,-58,-9,53,-19,-34,-29,-107,-126,-78,-78,-68
-58,-48,9,53,-34,-19,-29,-117,-131,-87,-87,-78
-58,-48,9,53,-34,-19,-29,-117,-136,-87,-87,-78
-58,-48,9,53,-34,-19,-29,-117,-141,-87,-87,-78
-58,-48,9,53,-34,-19,-29,-117,-146,-87,-87,-78
-58,-58,0,58,-29,-29,-19,-107,-136,-87,-97,-82
-58,-58,0,58,-29,-29,-19,-107,-136,-87,-97,-87
-58,-58,0,58,-29,-29,-19,-107,-136,-87,-97,-92
-58,-58,0,58,-29,-29,-19,-107,-136,-87,-97,-97
-58,-68,-9,63,-24,-39,-19,-107,-136,-87,-87,-92
-58,-68,-9,63,-24,-39,-19,-107,-136,-87,-87,-87
-58,-68,-9,63,-24,-39,-19,-107,-136,-87,-87,-82
-58,-68,-9,63,-24,-39,-19,-107,-136,-87,-87,-78
-58,-58,0,58,-29,-29,-19,-117,-146,-78,-87,-78
-58,-58,0,58,-29,-29,-19,-117,-146,-78,-87,-78
-58,-58,0,58,-29,-29,-19,-117,-146,-78,-87,-78
-58,-58,0,58,-29,-29,-19,-117,-146,-78,-87,-78
-48,-58,-9,53,-19,-34,-29,-107,-136,-78,-87,-78
-48,-58,-9,53,-19,-34,-29,-107,-136,-78,-87,-78
-48,-58,-9,53,-19,-34,-29,-107,-136,-78,-87,-78
-48,-58,-9,53,-19,-34,-29,-107,-136,-78,-87,-78
-48,-68,-19,58,-14,-43,-29,-117,-136,-87,-87,-78
-48,-68,-19,58,-14,-43,-29,-117,-136,-87,-87,-78
-48,-68,-19,58,-14,-43,-29,-117,-136,-87,-87,-78
-48,-68,-19,58,-14,-43,-29,-117,-136,-87,-87,-78
-48,-58,-9,53,-19,-34,-19,-107,-146,-87,-87,-87
-48,-58,-9,53,-19,-34,-19,-107,-146,-87,-87,-87
-48,-58,-9,53,-19,-34,-19,-107,-146,-87,-87,-87
-48,-58,-9,53,-19,-34,-19,-107,-146,-87,-87,-87
-48,-58,-9,53,-19,-34,-19,-107,-136,-78,-78,-78
-48,-58,-9,53,-19,-34,-14,-102,-136,-73,-78,-73
-48,-48,0,48,-24,-24,-14,-102,-131,-68,-73,-73
-48,-48,0,48,-24,-24,-14,-102,-126,-68,-68,-68
-43,-43,0,43,-21,-21,-9,-82,-126,-63,-63,-68
-43,-34,9,39,-26,-12,-9,-82,-117,-63,-63,-63
-43,-29,14,36,-29,-7,-4,-78,-117,-58,-63,-63
-39,-24,14,31,-26,-4,-4,-78,-117,-48,-63,-58
-39,-14,24,26,-31,4,-14,-82,-122,-68,-73,-68
-39,-14,24,26,-31,4,-14,-87,-122,-68,-68,-68
-39,-14,24,26,-31,4,-14,-92,-126,-63,-68,-73
-34,-9,24,21,-29,7,-14,-97,-126,-63,-68,-73
-43,-4,39,24,-41,17,-14,-107,-136,-63,-68,-68
-39,0,39,19,-39,19,-9,-107,-131,-63,-68,-68
-39,0,39,19,-39,19,-9,-102,-122,-58,-58,-68
-39,9,48,14,-43,29,0,-97,-117,-53,-53,-58
-39,14,53,12,-46,34,9,-87,-107,-43,-39,-48
-39,14,53,12,-46,34,9,-87,-107,-43,-39,-48
-39,14,53,12,-46,34,9,-87,-107,-43,-39,-43
-39,14,53,12,-46,34,4,-87,-107,-43,-39,-43
-24,19,43,2,-34,31,-4,-97,-102,-43,-48,-34
-24,19,43,2,-34,31,-14,-97,-97,-34,-39,-34
-19,29,48,-4,-34,39,-19,-97,-97,-34,-34,-34
-14,39,53,-12,-34,46,-24,-97,-97,-34,-34,-29
-4,39,43,-17,-24,41,-19,-102,-97,-34,-24,-24
0,39,39,-19,-19,39,-24,-97,-102,-29,-19,-24
0,39,39,-19,-19,39,-24,-97,-102,-24,-14,-24
0,39,39,-19,-19,39,-24,-92,-102,-24,-14,-19
-9,63,73,-26,-41,68,-34,-97,-102,-24,-14,-29
-14,73,87,-29,-51,80,-34,-97,-102,-19,-14,-24
-14,78,92,-31,-53,85,-39,-107,-107,-19,-14,-24
-9,78,87,-34,-48,82,-39,-117,-112,-19,-14,-24
0,78,78,-39,-39,78,-39,-107,-112,-24,-14,-14
9,78,68,-43,-29,73,-43,-107,-112,-24,-14,-14
14,78,63,-46,-24,70,-53,-107,-107,-24,-14,-14
24,78,53,-51,-14,65,-63,-107,-107,-24,-14,-14
19,58,39,-39,-9,48,-68,-117,-102,-19,-9,-9
24,48,24,-36,0,36,-68,-117,-102,-19,-4,-4
24,39,14,-31,4,26,-68,-117,-97,-14,0,0
24,34,9,-29,7,21,-68,-117,-97,-14,4,4
34,34,0,-34,17,17,-63,-107,-97,-29,-14,-4
24,29,4,-26,9,17,-63,-117,-107,-34,-14,-14
19,24,4,-21,7,14,-58,-122,-117,-39,-24,-19
4,19,14,-12,-4,17,-58,-122,-117,-39,-24,-19
4,19,14,-12,-4,17,-58,-112,-112,-29,-24,-29
4,19,14,-12,-4,17,-53,-107,-112,-29,-19,-19
0,29,29,-14,-14,29,-48,-102,-107,-19,-14,-19
-4,29,34,-12,-19,31,-43,-102,-102,-19,-14,-19
-4,39,43,-17,-24,41,-43,-107,-102,-9,-4,-9
-4,29,34,-12,-19,31,-43,-107,-102,-9,-14,-19
-4,14,19,-4,-12,17,-43,-107,-112,-19,-19,-24
-19,9,29,4,-24,19,-43,-107,-112,-24,-19,-29
-34,-9,24,21,-29,7,-34,-107,-122,-43,-29,-39
-43,-19,24,31,-34,2,-29,-102,-122,-48,-39,-48
-43,-19,24,31,-34,2,-19,-102,-122,-53,-48,-53
-48,-29,19,39,-34,-4,-19,-97,-122,-58,-53,-63
-53,-43,9,48,-31,-17,-9,-97,-112,-48,-53,-63
-53,-48,4,51,-29,-21,-9,-97,-112,-58,-53,-58
-53,-58,-4,56,-24,-31,-4,-97,-122,-58,-58,-58
-63,-58,4,61,-34,-26,-4,-97,-122,-63,-63,-58
-63,-63,0,63,-31,-31,-4,-97,-122,-73,-68,-68
-63,-63,0,63,-31,-31,-4,-102,-122,-73,-68,-73
-63,-63,0,63,-31,-31,-9,-107,-131,-78,-73,-73
-63,-63,0,63,-31,-31,-9,-107,-131,-82,-78,-78
-58,-73,-14,65,-21,-43,-9,-107,-141,-82,-87,-82
-58,-78,-19,68,-19,-48,-9,-112,-146,-87,-87,-82
-63,-78,-14,70,-24,-46,-9,-112,-146,-87,-87,-82
-63,-78,-14,70,-24,-46,-9,-112,-146,-87,-87,-82
-73,-78,-4,75,-34,-41,-9,-107,-136,-87,-87,-82
-73,-78,-4,75,-34,-41,-9,-107,-136,-87,-92,-82
-73,-78,-4,75,-34,-41,-9,-107,-141,-87,-92,-87
-73,-78,-4,75,-34,-41,-9,-112,-141,-92,-97,-87
-82,-87,-4,85,-39,-46,0,-112,-141,-92,-87,-87
-82,-92,-9,87,-36,-51,4,-107,-141,-92,-87,-87
-82,-97,-14,90,-34,-56,4,-107,-141,-92,-82,-82
-82,-102,-19,92,-31,-61,4,-107,-141,-92,-82,-82
-68,-78,-9,73,-29,-43,-4,-107,-141,-92,-87,-87
-68,-78,-9,73,-29,-43,-14,-107,-141,-92,-97,-92
-63,-97,-34,80,-14,-65,-14,-107,-141,-92,-97,-92
-73,-92,-19,82,-26,-56,-4,-107,-151,-102,-107,-87
-73,-87,-14,80,-29,-51,9,-107,-156,-97,-107,-92
-82,-107,-24,95,-29,-65,14,-92,-161,-117,-107,-107
-102,-117,-14,109,-43,-65,29,-82,-170,-136,-136,-131
-117,-126,-9,122,-53,-68,48,-82,-190,-151,-156,-146
-131,-126,4,129,-68,-61,58,-82,-224,-175,-195,-180
-151,-112,39,131,-95,-36,78,-92,-253,-204,-224,-209
-151,-122,29,136,-90,-46,92,-87,-244,-200,-204,-200
-151,-126,24,139,-87,-51,117,-48,-209,-136,-156,-161
-141,-112,29,126,-85,-41,126,0,-141,-63,-92,-117
-92,-68,24,80,-58,-21,117,53,-63,9,-34,-73
-34,-48,-14,41,-9,-31,122,131,39,107,68,4
14,-24,-39,4,26,-31,146,229,161,209,165,82
68,24,-43,-46,56,-9,156,273,263,331,283,175
146,107,-39,-126,92,34,126,302,390,517,448,312
263,200,-63,-231,163,68,87,361,590,756,668,492
400,302,-97,-351,248,102,48,458,829,1015,893,707
551,424,-126,-488,339,148,-19,512,1044,1268,1137,912
683,551,-131,-617,407,209,-92,512,1224,1507,1371,1117
805,707,-97,-756,451,305,-195,478,1385,1742,1595,1317
946,883,-63,-915,505,409,-331,419,1537,1947,1805,1522
1073,1034,-39,-1054,556,497,-468,336,1634,2078,1966,1673
1137,1190,53,-1163,541,622,-570,248,1639,2117,2020,1756
1171,1293,122,-1232,524,707,-678,117,1586,2049,1995,1786
1224,1200,-24,-1212,624,588,-775,-4,1478,1834,1869,1717
1234,863,-370,-1049,802,246,-771,-34,1342,1454,1576,1522
1132,492,-639,-812,885,-73,-683,0,1215,1039,1234,1273
971,341,-629,-656,800,-143,-614,-29,1078,756,1005,1112
858,341,-517,-600,688,-87,-580,-92,941,610,878,1029
761,331,-429,-546,595,-48,-546,-131,795,478,741,927
600,283,-317,-441,458,-17,-473,-170,595,322,566,741
370,200,-170,-285,270,14,-370,-258,312,126,346,507
185,117,-68,-151,126,24,-283,-366,-34,-73,126,297
63,63,0,-63,31,31,-273,-483,-297,-185,-4,170
0,58,58,-29,-29,58,-283,-522,-390,-219,-43,107
-29,58,87,-14,-58,73,-268,-492,-390,-209,-68,63
-58,68,126,-4,-92,97,-214,-429,-351,-185,-87,14
-58,78,136,-9,-97,107,-161,-331,-263,-141,-73,0
-58,58,117,0,-87,87,-126,-244,-175,-92,-53,-9
-63,48,112,7,-87,80,-92,-175,-131,-68,-43,-19
-58,29,87,14,-73,58,-73,-136,-107,-53,-39,-24
-58,14,73,21,-65,43,-53,-97,-73,-53,-39,-34
-48,-4,43,26,-46,19,-34,-82,-58,-53,-43,-39
-48,4,53,21,-51,29,-24,-73,-63,-53,-58,-48
-48,-4,43,26,-46,19,-14,-58,-73,-58,-73,-63
-48,-19,29,34,-39,4,-9,-53,-73,-58,-73,-68
-48,-34,14,41,-31,-9,-4,-43,-73,-58,-78,-73
-58,-48,9,53,-34,-19,0,-43,-78,-68,-82,-78
-68,-63,4,65,-36,-29,14,-43,-82,-78,-87,-82
-68,-63,4,65,-36,-29,14,-43,-82,-82,-87,-87
-68,-63,4,65,-36,-29,14,-39,-82,-82,-92,-92
-68,-68,0,68,-34,-34,19,-39,-82,-78,-92,-97
-73,-78,-4,75,-34,-41,9,-39,-82,-78,-97,-97
-73,-78,-4,75,-34,-41,9,-39,-87,-82,-97,-97
-78,-78,0,78,-39,-39,9,-39,-92,-82,-97,-97
-78,-78,0,78,-39,-39,14,-34,-92,-87,-97,-102
-78,-73,4,75,-41,-34,14,-34,-87,-78,-97,-102
-78,-73,4,75,-41,-34,14,-34,-87,-78,-97,-102
-78,-73,4,75,-41,-34,14,-34,-87,-78,-97,-102
-78,-73,4,75,-41,-34,19,-34,-92,-78,-102,-102
-78,-58,19,68,-48,-19,9,-34,-92,-92,-112,-102
-78,-58,19,68,-48,-19,9,-34,-92,-92,-112,-102
-82,-68,14,75,-48,-26,9,-34,-92,-87,-112,-102
-82,-68,14,75,-48,-26,9,-29,-92,-87,-112,-102
-73,-73,0,73,-36,-36,24,-29,-92,-97,-112,-97
-73,-78,-4,75,-34,-41,24,-29,-92,-102,-112,-97
-73,-78,-4,75,-34,-41,24,-29,-92,-102,-112,-97
-73,-82,-9,78,-31,-46,24,-29,-92,-102,-112,-97
-73,-82,-9,78,-31,-46,34,-19,-92,-92,-102,-107
-73,-82,-9,78,-31,-46,34,-14,-87,-92,-102,-107
-73,-82,-9,78,-31,-46,34,-14,-87,-92,-102,-107
-73,-82,-9,78,-31,-46,34,-14,-87,-92,-102,-107
-73,-82,-9,78,-31,-46,24,-24,-92,-92,-112,-112
-73,-82,-9,78,-31,-46,24,-24,-92,-92,-112,-112
-73,-87,-14,80,-29,-51,24,-24,-87,-92,-112,-112
-68,-87,-19,78,-24,-53,24,-24,-87,-92,-112,-112
-68,-78,-9,73,-29,-43,24,-24,-87,-92,-107,-102
-73,-78,-4,75,-34,-41,29,-24,-87,-92,-107,-107
-73,-73,0,73,-36,-36,29,-24,-92,-92,-107,-107
-73,-73,0,73,-36,-36,24,-24,-92,-92,-107,-107
-82,-73,9,78,-46,-31,34,-24,-92,-92,-107,-97
-82,-73,9,78,-46,-31,34,-19,-92,-92,-107,-97
-82,-73,9,78,-46,-31,34,-19,-87,-92,-107,-97
-82,-73,9,78,-46,-31,34,-19,-87,-97,-107,-97
-82,-82,0,82,-41,-41,34,-19,-87,-97,-107,-112
-82,-87,-4,85,-39,-46,34,-19,-87,-97,-107,-112
-82,-87,-4,85,-39,-46,39,-19,-87,-97,-107,-112
-82,-87,-4,85,-39,-46,39,-14,-87,-97,-107,-112
-82,-82,0,82,-41,-41,34,-14,-87,-97,-107,-112
-82,-78,4,80,-43,-36,34,-14,-87,-97,-107,-112
-82,-73,9,78,-46,-31,29,-14,-87,-97,-107,-112
-82,-68,14,75,-48,-26,29,-14,-87,-97,-107,-112
-73,-78,-4,75,-34,-41,29,-24,-87,-97,-117,-112
-73,-78,-4,75,-34,-41,29,-24,-87,-97,-122,-112
-73,-78,-4,75,-34,-41,29,-24,-87,-97,-122,-112
-73,-78,-4,75,-34,-41,34,-24,-87,-97,-122,-112
-78,-78,0,78,-39,-39,43,-14,-87,-97,-122,-112
-78,-78,0,78,-39,-39,43,-14,-82,-102,-122,-112
-78,-78,0,78,-39,-39,43,-9,-82,-102,-122,-117
-78,-82,-4,80,-36,-43,43,-9,-87,-102,-126,-117
-78,-92,-14,85,-31,-53,43,-9,-87,-102,-126,-126
-78,-92,-14,85,-31,-53,43,-9,-87,-102,-126,-126
-78,-92,-14,85,-31,-53,43,-9,-87,-102,-126,-126
-78,-92,-14,85,-31,-53,39,-9,-87,-102,-122,-126
-82,-82,0,82,-41,-41,29,0,-87,-102,-122,-126
-82,-82,0,82,-41,-41,29,0,-82,-102,-122,-126
-78,-82,-4,80,-36,-43,34,0,-82,-102,-126,-126
-78,-82,-4,80,-36,-43,34,0,-87,-102,-131,-126
-82,-92,-9,87,-36,-51,43,-4,-87,-112,-131,-126
-82,-92,-9,87,-36,-51,43,-4,-82,-117,-131,-131
-82,-92,-9,87,-36,-51,43,-4,-82,-117,-131,-131
-82,-92,-9,87,-36,-51,43,-4,-82,-117,-131,-131
-92,-97,-4,95,-43,-51,43,0,-82,-107,-131,-131
-92,-97,-4,95,-43,-51,43,0,-82,-112,-131,-136
-92,-97,-4,95,-43,-51,43,0,-82,-112,-136,-136
-92,-97,-4,95,-43,-51,43,0,-82,-112,-136,-136
-82,-87,-4,85,-39,-46,43,0,-82,-122,-136,-136
-82,-87,-4,85,-39,-46,43,0,-82,-122,-136,-136
-87,-87,0,87,-43,-43,43,0,-82,-122,-136,-136
-87,-87,0,87,-43,-43,43,0,-82,-122,-136,-136
-97,-87,9,92,-53,-39,43,0,-82,-117,-136,-126
-97,-87,9,92,-53,-39,43,4,-87,-117,-136,-131
-97,-87,9,92,-53,-39,43,4,-87,-117,-141,-131
-97,-92,4,95,-51,-43,43,4,-82,-122,-141,-131
-97,-102,-4,100,-46,-53,43,4,-78,-126,-141,-131
-97,-102,-4,100,-46,-53,43,4,-78,-126,-141,-131
-102,-102,0,102,-51,-51,43,4,-82,-126,-141,-136
-102,-97,4,100,-53,-46,43,4,-82,-126,-141,-136
-87,-87,0,87,-43,-43,34,9,-82,-126,-146,-146
-87,-87,0,87,-43,-43,34,9,-82,-126,-146,-141
-87,-92,-4,90,-41,-48,34,9,-82,-126,-146,-141
-87,-92,-4,90,-41,-48,34,14,-82,-126,-146,-141
-97,-87,9,92,-53,-39,34,14,-82,-136,-151,-156
-97,-87,9,92,-53,-39,34,14,-78,-141,-156,-156
-97,-87,9,92,-53,-39,39,19,-78,-141,-165,-156
-97,-87,9,92,-53,-39,39,19,-87,-141,-170,-156
-97,-97,0,97,-48,-48,39,19,-78,-141,-165,-146
-97,-97,0,97,-48,-48,39,19,-78,-136,-156,-146
-97,-92,4,95,-51,-43,34,19,-78,-136,-151,-146
-102,-92,9,97,-56,-41,34,24,-78,-141,-146,-146
-102,-97,4,100,-53,-46,48,24,-78,-141,-161,-146
-102,-97,4,100,-53,-46,48,29,-73,-141,-161,-146
-102,-92,9,97,-56,-41,48,29,-73,-141,-156,-146
-102,-92,9,97,-56,-41,43,29,-73,-141,-156,-146
-102,-92,9,97,-56,-41,34,34,-63,-131,-146,-146
-102,-92,9,97,-56,-41,39,34,-58,-131,-146,-146
-102,-82,19,92,-61,-31,39,39,-53,-131,-146,-146
-102,-82,19,92,-61,-31,39,39,-48,-131,-146,-146
-102,-73,29,87,-65,-21,48,39,-58,-141,-156,-156
-97,-73,24,85,-61,-24,48,43,-58,-141,-156,-156
-97,-68,29,82,-63,-19,48,43,-58,-141,-156,-156
-97,-68,29,82,-63,-19,48,43,-53,-136,-156,-156
-92,-63,29,78,-61,-17,43,43,-53,-136,-156,-156
-92,-63,29,78,-61,-17,43,48,-48,-136,-156,-156
-92,-63,29,78,-61,-17,43,58,-48,-131,-156,-156
-92,-53,39,73,-65,-7,48,58,-43,-131,-151,-151
-92,-48,43,70,-68,-2,48,58,-43,-131,-151,-151
-87,-48,39,68,-63,-4,48,58,-39,-131,-151,-151
-87,-43,43,65,-65,0,48,63,-34,-126,-146,-151
-87,-43,43,65,-65,0,48,73,-29,-126,-146,-151
-97,-48,48,73,-73,0,48,73,-24,-112,-136,-131
-97,-39,58,68,-78,9,48,73,-19,-112,-131,-131
-97,-39,58,68,-78,9,48,82,-19,-107,-131,-131
-92,-34,58,63,-75,12,48,82,-14,-107,-131,-131
-92,-24,68,58,-80,21,48,73,-19,-97,-126,-122
-92,-19,73,56,-82,26,48,87,-14,-92,-126,-117
-92,-9,82,51,-87,36,48,92,-9,-87,-122,-117
-92,-4,87,48,-90,41,48,92,-4,-87,-117,-112
-92,0,92,46,-92,46,48,97,14,-92,-117,-122
-92,9,102,41,-97,56,48,102,19,-87,-117,-107
-92,19,112,36,-102,65,48,107,24,-87,-122,-107
-87,19,107,34,-97,63,48,112,29,-87,-122,-107
-97,19,117,39,-107,68,48,122,43,-73,-117,-107
-97,29,126,34,-112,78,48,126,48,-68,-112,-102
-92,39,131,26,-112,85,53,131,58,-63,-107,-97
-92,39,131,26,-112,85,53,136,63,-58,-102,-92
-92,58,151,17,-122,104,53,141,68,-53,-87,-87
-87,73,161,7,-124,117,48,146,82,-48,-82,-87
-82,82,165,0,-124,124,48,151,82,-43,-82,-82
-82,92,175,-4,-129,134,48,156,97,-39,-78,-78
-82,112,195,-14,-139,153,48,170,102,-39,-78,-78
-78,122,200,-21,-139,161,48,175,117,-24,-73,-63
-68,136,204,-34,-136,170,48,180,126,-24,-63,-63
-68,146,214,-39,-141,180,48,185,136,-19,-63,-63
-73,146,219,-36,-146,183,48,185,156,4,-53,-43
-68,161,229,-46,-148,195,48,195,165,14,-39,-39
-68,170,239,-51,-153,204,48,200,175,24,-29,-29
-68,180,248,-56,-158,214,48,204,190,24,-24,-14
-48,185,234,-68,-141,209,48,209,204,39,-4,-9
-43,195,239,-75,-141,217,53,219,219,48,4,0
-39,209,248,-85,-143,229,53,219,229,58,9,9
-34,219,253,-92,-143,236,53,234,239,68,24,19
-29,239,268,-104,-148,253,53,234,248,78,29,19
-24,253,278,-114,-151,265,48,244,263,82,39,29
-19,268,287,-124,-153,278,48,248,268,92,48,39
-14,283,297,-134,-156,290,48,253,278,102,58,48
-14,292,307,-139,-161,300,58,268,297,122,78,68
-9,307,317,-148,-163,312,58,273,307,131,87,78
-4,312,317,-153,-161,314,53,278,322,146,97,87
0,322,322,-161,-161,322,53,287,331,156,107,97
9,331,322,-170,-156,326,43,283,336,165,117,112
14,341,326,-178,-156,334,43,287,351,175,126,122
19,361,341,-190,-161,351,43,292,356,185,136,131
29,375,346,-202,-158,361,43,292,366,190,146,136
34,375,341,-204,-153,358,39,283,375,204,151,131
39,380,341,-209,-151,361,39,292,385,219,161,146
43,390,346,-217,-151,368,34,297,395,229,170,156
53,395,341,-224,-143,368,34,297,405,239,180,165
48,400,351,-224,-151,375,34,297,414,248,195,175
53,400,346,-226,-146,373,34,297,424,258,204,185
58,400,341,-229,-141,370,29,297,429,263,214,190
63,400,336,-231,-136,368,29,297,434,273,224,195
58,400,341,-229,-141,370,29,287,434,287,239,214
68,400,331,-234,-131,366,19,283,434,292,244,219
73,395,322,-234,-124,358,19,278,434,292,248,224
73,390,317,-231,-122,353,19,273,424,297,248,224
78,375,297,-226,-109,336,24,273,419,302,263,234
78,375,297,-226,-109,336,19,258,414,307,268,244
78,370,292,-224,-107,331,19,253,405,312,268,244
78,356,278,-217,-100,317,19,244,400,322,268,244
82,356,273,-219,-95,314,9,234,375,317,273,239
87,351,263,-219,-87,307,9,224,366,312,273,239
87,341,253,-214,-82,297,9,214,356,302,268,234
82,331,248,-207,-82,290,9,204,341,297,268,229
92,312,219,-202,-63,265,4,195,336,297,258,214
87,297,209,-192,-61,253,4,180,326,287,253,209
87,283,195,-185,-53,239,4,170,312,283,248,204
87,273,185,-180,-48,229,0,165,292,278,234,200
78,253,175,-165,-48,214,0,156,278,263,229,204
73,234,161,-153,-43,197,4,146,258,258,224,200
73,219,146,-146,-36,183,4,131,248,248,214,185
68,204,136,-136,-34,170,4,122,224,239,204,180
63,204,141,-134,-39,173,-9,107,195,219,185,161
58,190,131,-124,-36,161,-9,102,185,209,175,151
58,175,117,-117,-29,146,-9,92,170,200,170,141
53,161,107,-107,-26,134,-9,82,156,190,161,136
58,146,87,-102,-14,117,-9,73,156,180,156,131
53,136,82,-95,-14,109,-9,63,141,170,146,126
48,126,78,-87,-14,102,-9,53,117,151,131,117
43,122,78,-82,-17,100,-9,43,112,141,126,107
48,112,63,-80,-7,87,-9,43,97,131,107,82
43,102,58,-73,-7,80,-9,34,87,112,97,78
39,87,48,-63,-4,68,-9,29,73,97,87,68
34,82,48,-58,-7,65,-9,24,58,82,78,58
29,63,34,-46,-2,48,0,29,53,82,78,58
24,58,34,-41,-4,46,4,24,43,78,73,53
19,48,29,-34,-4,39,4,24,39,68,63,39
14,43,29,-29,-7,36,0,9,29,58,53,34
4,29,24,-17,-9,26,0,0,24,58,39,29
4,24,19,-14,-7,21,0,-4,9,48,34,24
4,9,4,-7,0,7,0,-4,9,39,24,19
4,9,4,-7,0,7,0,-14,0,39,19,14
4,19,14,-12,-4,17,0,-9,-14,29,14,0
4,4,0,-4,2,2,0,-14,-14,24,9,0
0,4,4,-2,-2,4,0,-14,-19,19,-4,-4
0,4,4,-2,-2,4,0,-19,-24,14,-4,-9
0,-9,-9,4,4,-9,4,-19,-29,0,-4,-14
-4,-9,-4,7,0,-7,4,-19,-29,0,-9,-14
-4,-9,-4,7,0,-7,4,-24,-34,-4,-9,-14
-4,-9,-4,7,0,-7,4,-24,-39,-9,-14,-14
-4,-14,-9,9,2,-12,14,-24,-39,0,-14,-24
-9,-19,-9,14,0,-14,14,-24,-39,-4,-14,-29
-14,-24,-9,19,-2,-17,14,-24,-39,-4,-14,-34
-14,-24,-9,19,-2,-17,14,-24,-39,-4,-14,-34
-14,-39,-24,26,4,-31,4,-29,-43,-4,-24,-24
-19,-39,-19,29,0,-29,9,-29,-48,-14,-24,-24
-19,-34,-14,26,-2,-24,9,-29,-48,-14,-29,-34
-19,-34,-14,26,-2,-24,4,-29,-48,-14,-29,-34
-19,-24,-4,21,-7,-14,4,-39,-48,-14,-29,-34
-19,-24,-4,21,-7,-14,4,-39,-48,-14,-29,-34
-19,-24,-4,21,-7,-14,4,-39,-48,-14,-29,-34
-19,-34,-14,26,-2,-24,4,-39,-48,-14,-29,-34
-19,-34,-14,26,-2,-24,9,-29,-48,-24,-34,-43
-19,-34,-14,26,-2,-24,9,-29,-48,-24,-39,-43
-24,-29,-4,26,-9,-17,9,-29,-48,-24,-43,-43
-24,-29,-4,26,-9,-17,9,-29,-48,-29,-48,-43
-29,-24,4,26,-17,-9,9,-29,-48,-19,-43,-34
-29,-24,4,26,-17,-9,9,-29,-48,-14,-43,-39
-29,-24,4,26,-17,-9,9,-29,-48,-14,-39,-39
-29,-24,4,26,-17,-9,9,-24,-43,-14,-39,-39
-39,-24,14,31,-26,-4,9,-24,-43,-24,-39,-39
-39,-24,14,31,-26,-4,14,-24,-43,-24,-39,-34
-39,-24,14,31,-26,-4,14,-24,-43,-24,-39,-34
-39,-19,19,29,-29,0,19,-24,-43,-19,-39,-34
-29,-9,19,19,-24,4,9,-24,-43,-9,-29,-34
-24,-19,4,21,-14,-7,4,-24,-43,-9,-29,-34
-24,-9,14,17,-19,2,4,-24,-43,-9,-24,-34
-29,-9,19,19,-24,4,4,-24,-43,-9,-24,-34
-29,-14,14,21,-21,0,0,-24,-43,-4,-34,-34
-24,-14,9,19,-17,-2,0,-24,-39,-4,-34,-34
-24,-14,9,19,-17,-2,0,-24,-34,-4,-34,-34
-29,-9,19,19,-24,4,0,-24,-34,-4,-34,-29
-39,0,39,19,-39,19,9,-24,-39,-14,-39,-39
-39,-9,29,24,-34,9,9,-24,-39,-14,-39,-43
-39,-9,29,24,-34,9,9,-24,-39,-14,-39,-43
-39,-9,29,24,-34,9,9,-24,-39,-14,-39,-43
-34,-4,29,19,-31,12,0,-34,-39,-9,-34,-34
-29,-4,24,17,-26,9,0,-34,-39,-4,-29,-29
-24,0,24,12,-24,12,0,-39,-39,0,-24,-24
-24,0,24,12,-24,12,0,-39,-39,4,-19,-19
-34,-9,24,21,-29,7,9,-29,-29,4,-19,-19
-34,-14,19,24,-26,2,9,-29,-29,0,-19,-19
-34,-14,19,24,-26,2,9,-29,-29,-4,-19,-19
-34,-14,19,24,-26,2,9,-29,-29,-9,-19,-24
-34,-4,29,19,-31,12,0,-29,-43,-14,-19,-24
-34,-4,29,19,-31,12,0,-29,-43,-9,-19,-24
-34,-9,24,21,-29,7,0,-29,-43,0,-19,-24
-34,-19,14,26,-24,-2,0,-29,-43,4,-19,-24
-39,-14,24,26,-31,4,0,-29,-43,-4,-29,-34
-39,-14,24,26,-31,4,-4,-34,-43,-9,-34,-34
-39,-14,24,26,-31,4,-4,-34,-48,-9,-34,-34
-39,-19,19,29,-29,0,-4,-34,-48,-9,-34,-34
-39,-29,9,34,-24,-9,4,-39,-48,0,-24,-24
-39,-29,9,34,-24,-9,4,-39,-48,0,-24,-24
-43,-29,14,36,-29,-7,4,-39,-48,0,-24,-24
-43,-29,14,36,-29,-7,4,-39,-48,0,-24,-29
-34,-19,14,26,-24,-2,4,-39,-58,-4,-29,-34
-34,-24,9,29,-21,-7,4,-39,-58,-19,-34,-39
-39,-24,14,31,-26,-4,4,-43,-58,-29,-43,-43
-39,-24,14,31,-26,-4,4,-43,-58,-34,-48,-48
-39,-34,4,36,-21,-14,4,-43,-58,-29,-43,-39
-39,-24,14,31,-26,-4,4,-43,-58,-24,-43,-43
-39,-24,14,31,-26,-4,4,-43,-58,-19,-39,-43
-39,-24,14,31,-26,-4,4,-43,-63,-14,-34,-43
-39,-39,0,39,-19,-19,-4,-48,-73,-19,-34,-43
-43,-39,4,41,-24,-17,-4,-53,-73,-24,-39,-43
-43,-39,4,41,-24,-17,-4,-53,-68,-29,-39,-39
-43,-39,4,41,-24,-17,-4,-53,-68,-34,-39,-39
-34,-39,-4,36,-14,-21,0,-53,-68,-34,-29,-39
-34,-43,-9,39,-12,-26,0,-53,-73,-29,-29,-39
-34,-43,-9,39,-12,-26,4,-58,-73,-24,-29,-39
-34,-43,-9,39,-12,-26,4,-58,-73,-19,-34,-39
-43,-34,9,39,-26,-12,4,-48,-73,-29,-43,-53
-39,-34,4,36,-21,-14,4,-48,-78,-34,-43,-53
-39,-39,0,39,-19,-19,4,-48,-78,-34,-43,-53
-43,-39,4,41,-24,-17,0,-48,-78,-39,-43,-53
-43,-48,-4,46,-19,-26,0,-48,-78,-39,-48,-53
-43,-53,-9,48,-17,-31,4,-53,-78,-39,-48,-53
-48,-53,-4,51,-21,-29,4,-53,-78,-39,-48,-53
-48,-53,-4,51,-21,-29,4,-53,-82,-39,-48,-53
-43,-58,-14,51,-14,-36,9,-53,-82,-39,-48,-48
-43,-58,-14,51,-14,-36,9,-53,-82,-43,-48,-48
-43,-63,-19,53,-12,-41,9,-53,-82,-43,-48,-48
-43,-68,-24,56,-9,-46,9,-53,-87,-43,-53,-48
-43,-63,-19,53,-12,-41,4,-68,-87,-43,-53,-58
-48,-58,-9,53,-19,-34,0,-68,-92,-43,-53,-58
-48,-53,-4,51,-21,-29,-4,-68,-92,-48,-53,-58
-48,-48,0,48,-24,-24,-9,-68,-92,-48,-58,-63
-48,-53,-4,51,-21,-29,0,-63,-97,-48,-58,-63
-48,-53,-4,51,-21,-29,0,-63,-97,-53,-58,-63
-48,-58,-9,53,-19,-34,0,-63,-97,-53,-58,-63
-48,-58,-9,53,-19,-34,0,-63,-102,-53,-58,-63
-48,-68,-19,58,-14,-43,9,-63,-92,-43,-63,-58
-48,-68,-19,58,-14,-43,9,-63,-97,-43,-63,-58
-48,-73,-24,61,-12,-48,4,-68,-97,-43,-63,-58
-48,-73,-24,61,-12,-48,4,-68,-97,-43,-63,-53
-48,-73,-24,61,-12,-48,-4,-63,-102,-58,-73,-63
-48,-73,-24,61,-12,-48,-4,-63,-102,-58,-73,-63
-48,-73,-24,61,-12,-48,0,-68,-102,-58,-73,-73
-48,-73,-24,61,-12,-48,0,-68,-102,-63,-78,-73
-48,-63,-14,56,-17,-39,0,-78,-107,-63,-68,-63
-48,-68,-19,58,-14,-43,0,-78,-107,-63,-68,-63
-48,-68,-19,58,-14,-43,0,-78,-107,-63,-68,-63
-48,-63,-14,56,-17,-39,-4,-82,-107,-63,-68,-63
-48,-73,-24,61,-12,-48,-4,-73,-112,-63,-73,-73
-48,-73,-24,61,-12,-48,-4,-73,-112,-63,-73,-73
-48,-78,-29,63,-9,-53,0,-73,-112,-63,-73,-73
-48,-78,-29,63,-9,-53,0,-73,-112,-63,-68,-68
-48,-78,-29,63,-9,-53,-4,-73,-102,-63,-68,-68
-53,-78,-24,65,-14,-51,-4,-73,-102,-53,-68,-68
-53,-78,-24,65,-14,-51,-4,-73,-102,-53,-68,-68
-53,-78,-24,65,-14,-51,-4,-73,-102,-53,-68,-68
-53,-78,-24,65,-14,-51,-4,-73,-112,-63,-68,-73
-53,-78,-24,65,-14,-51,-4,-73,-112,-63,-68,-73
-53,-82,-29,68,-12,-56,-4,-73,-117,-68,-73,-73
-53,-82,-29,68,-12,-56,-4,-73,-117,-68,-73,-78
-53,-82,-29,68,-12,-56,-4,-73,-107,-58,-63,-68
-53,-82,-29,68,-12,-56,-4,-73,-107,-58,-63,-68
-53,-87,-34,70,-9,-61,-4,-73,-107,-58,-63,-63
-53,-87,-34,70,-9,-61,0,-73,-107,-58,-63,-63
-43,-73,-29,58,-7,-51,-9,-82,-126,-73,-78,-68
-53,-58,-4,56,-24,-31,-9,-78,-122,-68,-73,-78
-48,-78,-29,63,-9,-53,0,-78,-117,-68,-68,-68
-48,-78,-29,63,-9,-53,0,-78,-107,-78,-78,-78
-48,-78,-29,63,-9,-53,0,-78,-107,-78,-78,-78
-48,-78,-29,63,-9,-53,0,-78,-107,-78,-78,-78
-48,-78,-29,63,-9,-53,0,-78,-107,-78,-78,-78
-48,-87,-39,68,-4,-63,0,-68,-117,-68,-78,-78
-48,-87,-39,68,-4,-63,0,-68,-117,-68,-78,-78
-48,-87,-39,68,-4,-63,0,-68,-117,-68,-78,-78
-48,-87,-39,68,-4,-63,0,-68,-117,-68,-78,-78
-48,-87,-39,68,-4,-63,0,-78,-117,-68,-78,-78
-48,-87,-39,68,-4,-63,0,-78,-117,-68,-78,-78
-48,-87,-39,68,-4,-63,0,-78,-117,-68,-78,-78
-48,-87,-39,68,-4,-63,0,-78,-117,-68,-78,-78
-39,-87,-48,63,4,-68,0,-78,-117,-68,-78,-68
-39,-87,-48,63,4,-68,0,-78,-117,-68,-78,-68
-39,-87,-48,63,4,-68,0,-78,-117,-68,-78,-68
-39,-87,-48,63,4,-68,0,-78,-117,-68,-78,-68
-48,-87,-39,68,-4,-63,0,-78,-117,-68,-78,-68
-48,-87,-39,68,-4,-63,0,-78,-117,-68,-78,-68
-48,-87,-39,68,-4,-63,0,-78,-117,-68,-78,-68
-48,-87,-39,68,-4,-63,0,-78,-117,-68,-78,-68
-48,-87,-39,68,-4,-63,0,-78,-117,-68,-68,-68
-48,-87,-39,68,-4,-63,0,-78,-117,-68,-68,-68
-48,-87,-39,68,-4,-63,0,-78,-117,-68,-68,-68
-48,-87,-39,68,-4,-63,0,-78,-117,-68,-68,-68
-48,-87,-39,68,-4,-63,0,-78,-117,-68,-73,-68
-48,-87,-39,68,-4,-63,0,-78,-117,-68,-78,-68
-48,-87,-39,68,-4,-63,0,-78,-117,-68,-82,-68
-48,-87,-39,68,-4,-63,0,-78,-117,-68,-87,-68
-48,-87,-39,68,-4,-63,0,-78,-126,-68,-82,-68
-48,-87,-39,68,-4,-63,0,-78,-126,-68,-78,-68
-48,-87,-39,68,-4,-63,0,-78,-126,-68,-73,-68
-48,-87,-39,68,-4,-63,0,-78,-126,-68,-68,-68
-48,-87,-39,68,-4,-63,0,-78,-126,-68,-68,-68
-48,-87,-39,68,-4,-63,0,-78,-126,-68,-68,-68
-48,-87,-39,68,-4,-63,0,-78,-126,-68,-68,-68
-48,-87,-39,68,-4,-63,0,-78,-126,-68,-68,-68
-48,-97,-48,73,0,-73,0,-78,-117,-78,-78,-78
-48,-97,-48,73,0,-73,0,-78,-117,-78,-78,-78
-48,-97,-48,73,0,-73,0,-78,-117,-78,-78,-78
-48,-97,-48,73,0,-73,0,-78,-117,-78,-78,-78
-48,-87,-39,68,-4,-63,0,-78,-126,-68,-78,-68
-48,-87,-39,68,-4,-63,0,-78,-126,-68,-78,-68
-48,-87,-39,68,-4,-63,0,-78,-126,-68,-78,-68
-48,-87,-39,68,-4,-63,0,-78,-126,-68,-78,-68
-48,-87,-39,68,-4,-63,0,-78,-126,-78,-87,-78
-48,-87,-39,68,-4,-63,0,-78,-126,-78,-87,-78
-48,-87,-39,68,-4,-63,0,-78,-126,-78,-87,-78
-48,-87,-39,68,-4,-63,0,-78,-126,-78,-87,-78
-48,-97,-48,73,0,-73,-9,-87,-126,-78,-78,-78
-48,-97,-48,73,0,-73,-9,-87,-126,-78,-78,-78
-48,-97,-48,73,0,-73,-9,-87,-126,-78,-78,-78
-48,-97,-48,73,0,-73,-9,-87,-126,-78,-78,-78
-48,-97,-48,73,0,-73,0,-78,-126,-68,-78,-78
-48,-97,-48,73,0,-73,0,-78,-126,-68,-78,-78
-48,-97,-48,73,0,-73,0,-78,-126,-68,-78,-78
-48,-97,-48,73,0,-73,0,-78,-126,-68,-78,-78
-48,-97,-48,73,0,-73,0,-78,-126,-68,-78,-78
-48,-97,-48,73,0,-73,0,-78,-126,-68,-78,-78
-48,-97,-48,73,0,-73,0,-78,-126,-68,-78,-78
-48,-97,-48,73,0,-73,0,-78,-126,-68,-78,-78
-48,-97,-48,73,0,-73,0,-78,-126,-68,-68,-68
-48,-97,-48,73,0,-73,0,-78,-126,-68,-68,-68
-48,-97,-48,73,0,-73,0,-78,-126,-68,-68,-68
-48,-97,-48,73,0,-73,0,-78,-126,-68,-68,-68
-58,-97,-39,78,-9,-68,0,-78,-126,-68,-78,-78
-58,-97,-39,78,-9,-68,0,-78,-126,-68,-78,-78
-58,-97,-39,78,-9,-68,0,-78,-126,-68,-78,-78
-58,-97,-39,78,-9,-68,0,-78,-126,-68,-78,-78
-48,-97,-48,73,0,-73,-9,-78,-126,-78,-78,-78
-48,-97,-48,73,0,-73,-9,-78,-126,-78,-78,-78
-48,-97,-48,73,0,-73,-9,-78,-126,-78,-78,-78
-48,-97,-48,73,0,-73,-9,-78,-126,-78,-78,-78
-48,-87,-39,68,-4,-63,-9,-87,-126,-78,-87,-78
-48,-87,-39,68,-4,-63,-9,-87,-126,-78,-87,-78
-48,-87,-39,68,-4,-63,-9,-87,-126,-78,-87,-78
-48,-87,-39,68,-4,-63,-9,-87,-126,-78,-87,-78
-48,-97,-48,73,0,-73,0,-87,-126,-68,-78,-78
-48,-97,-48,73,0,-73,0,-87,-126,-68,-78,-78
-48,-97,-48,73,0,-73,0,-87,-126,-68,-78,-78
-48,-97,-48,73,0,-73,0,-87,-126,-68,-78,-78
-48,-97,-48,73,0,-73,0,-87,-126,-73,-87,-78
-48,-97,-48,73,0,-73,0,-87,-126,-78,-87,-78
-48,-97,-48,73,0,-73,0,-87,-126,-82,-87,-78
-48,-97,-48,73,0,-73,0,-87,-126,-87,-87,-78
-39,-107,-68,73,14,-87,9,-78,-126,-78,-78,-68
-39,-107,-68,73,14,-87,9,-78,-126,-78,-78,-68
-39,-107,-68,73,14,-87,9,-78,-126,-78,-78,-68
-39,-107,-68,73,14,-87,9,-78,-126,-78,-78,-68
-48,-97,-48,73,0,-73,0,-87,-136,-78,-78,-68
-48,-97,-48,73,0,-73,0,-87,-136,-78,-78,-68
-48,-97,-48,73,0,-73,0,-87,-136,-78,-78,-68
-48,-97,-48,73,0,-73,0,-87,-136,-78,-78,-68
-48,-107,-58,78,4,-82,0,-78,-126,-78,-78,-68
-48,-107,-58,78,4,-82,0,-78,-126,-78,-78,-68
-48,-107,-58,78,4,-82,0,-78,-126,-78,-78,-68
-48,-107,-58,78,4,-82,0,-78,-126,-78,-78,-68
-48,-107,-58,78,4,-82,0,-78,-126,-68,-68,-68
-48,-107,-58,78,4,-82,0,-78,-126,-68,-68,-68
-48,-107,-58,78,4,-82,0,-78,-126,-68,-68,-68
-48,-107,-58,78,4,-82,0,-78,-126,-68,-68,-68
-39,-97,-58,68,9,-78,0,-78,-126,-68,-78,-78
-39,-97,-58,68,9,-78,0,-78,-126,-68,-78,-78
-39,-97,-58,68,9,-78,0,-78,-126,-68,-78,-78
-39,-97,-58,68,9,-78,0,-78,-126,-68,-78,-78
-48,-107,-58,78,4,-82,0,-78,-126,-78,-78,-78
-48,-107,-58,78,4,-82,0,-78,-126,-78,-78,-78
-48,-107,-58,78,4,-82,0,-78,-126,-78,-78,-78
-48,-107,-58,78,4,-82,0,-78,-126,-78,-78,-78
-48,-107,-58,78,4,-82,0,-78,-126,-68,-68,-68
-48,-107,-58,78,4,-82,0,-78,-126,-68,-68,-68
-48,-107,-58,78,4,-82,0,-78,-126,-68,-68,-68
-48,-107,-58,78,4,-82,0,-78,-126,-68,-68,-68
-48,-107,-58,78,4,-82,0,-87,-136,-68,-78,-68
-48,-107,-58,78,4,-82,0,-87,-136,-68,-78,-68
-48,-107,-58,78,4,-82,0,-87,-136,-68,-78,-68
-48,-107,-58,78,4,-82,0,-87,-136,-68,-78,-68
-39,-107,-68,73,14,-87,9,-78,-126,-68,-78,-68
-39,-107,-68,73,14,-87,9,-78,-126,-68,-78,-68
-39,-107,-68,73,14,-87,9,-78,-126,-68,-78,-68
-39,-107,-68,73,14,-87,9,-78,-126,-68,-78,-68
-39,-107,-68,73,14,-87,0,-78,-126,-73,-78,-68
-39,-107,-68,73,14,-87,0,-78,-126,-78,-78,-68
-39,-107,-68,73,14,-87,0,-78,-126,-82,-78,-68
-39,-107,-68,73,14,-87,0,-78,-126,-87,-78,-68
-39,-107,-68,73,14,-87,0,-78,-126,-78,-78,-68
-39,-107,-68,73,14,-87,0,-78,-126,-78,-78,-68
-39,-107,-68,73,14,-87,0,-78,-126,-78,-78,-68
-39,-107,-68,73,14,-87,0,-78,-126,-78,-78,-68
-39,-97,-58,68,9,-78,0,-78,-126,-78,-78,-68
-39,-97,-58,68,9,-78,0,-78,-126,-78,-78,-68
-39,-97,-58,68,9,-78,0,-78,-126,-78,-78,-68
-39,-97,-58,68,9,-78,4,-73,-126,-73,-78,-63
-39,-87,-48,63,4,-68,4,-73,-122,-68,-73,-63
-39,-87,-48,63,4,-68,4,-73,-117,-68,-68,-58
-34,-82,-48,58,7,-65,9,-63,-117,-63,-63,-58
-34,-73,-39,53,2,-56,9,-63,-107,-63,-63,-53
-34,-68,-34,51,0,-51,14,-58,-107,-58,-53,-53
-29,-63,-34,46,2,-48,14,-58,-107,-48,-53,-48
-29,-63,-34,46,2,-48,14,-58,-102,-58,-53,-48
-29,-63,-34,46,2,-48,14,-58,-102,-58,-48,-48
-29,-53,-24,41,-2,-39,4,-68,-117,-53,-58,-53
-24,-48,-24,36,0,-36,4,-68,-117,-53,-58,-53
-24,-43,-19,34,-2,-31,4,-68,-117,-53,-58,-48
-19,-39,-19,29,0,-29,9,-68,-112,-53,-58,-48
-9,-29,-19,19,4,-24,9,-53,-102,-48,-48,-48
-9,-19,-9,14,0,-14,19,-48,-97,-43,-43,-39
-9,-14,-4,12,-2,-9,19,-48,-97,-34,-39,-39
-9,-14,-4,12,-2,-9,19,-48,-97,-34,-39,-39
-19,-19,0,19,-9,-9,29,-58,-97,-34,-39,-34
-19,-24,-4,21,-7,-14,24,-58,-97,-34,-39,-34
-4,-24,-19,14,7,-21,24,-58,-92,-34,-39,-24
-4,-29,-24,17,9,-26,14,-58,-87,-24,-29,-24
0,-19,-19,9,9,-19,9,-58,-78,-24,-24,-24
4,-9,-14,2,9,-12,4,-58,-78,-24,-24,-19
14,0,-14,-7,14,-7,0,-68,-78,-24,-24,-14
19,0,-19,-9,19,-9,-4,-68,-82,-19,-19,-14
19,9,-9,-14,14,0,-14,-73,-82,-14,-14,-14
19,9,-9,-14,14,0,-14,-73,-82,-14,-14,-9
19,24,4,-21,7,14,-14,-68,-82,-14,-14,-9
14,34,19,-24,-2,26,-14,-68,-82,-9,-14,-4
14,29,14,-21,0,21,-9,-68,-87,-9,-14,-4
19,29,9,-24,4,19,-9,-78,-92,-9,-14,-4
19,29,9,-24,4,19,-19,-78,-92,-14,-14,-4
29,29,0,-29,14,14,-24,-78,-92,-14,-14,-4
34,29,-4,-31,19,12,-24,-78,-87,-14,-4,-4
43,29,-14,-36,29,7,-34,-78,-87,-14,-4,-4
48,19,-29,-34,39,-4,-39,-78,-92,-14,-4,-4
53,9,-43,-31,48,-17,-39,-78,-92,-19,-4,-4
43,9,-34,-26,39,-12,-48,-78,-97,-19,-14,-4
43,4,-39,-24,41,-17,-48,-78,-97,-24,-14,-4
43,-4,-48,-19,46,-26,-43,-78,-97,-29,-24,-4
34,-9,-43,-12,39,-26,-43,-87,-107,-34,-24,-14
29,-14,-43,-7,36,-29,-39,-92,-117,-39,-34,-19
14,-19,-34,2,24,-26,-39,-92,-117,-39,-34,-19
4,-19,-24,7,14,-21,-29,-92,-112,-39,-34,-19
4,-19,-24,7,14,-21,-24,-87,-112,-39,-29,-9
0,-9,-9,4,4,-9,-19,-82,-97,-29,-24,-9
-4,-9,-4,7,0,-7,-14,-82,-92,-29,-24,-9
-4,-9,-4,7,0,-7,-14,-78,-92,-29,-24,-9
-4,-19,-14,12,4,-17,-14,-78,-92,-29,-34,-19
4,-34,-39,14,21,-36,-14,-78,-102,-39,-39,-24
-9,-39,-29,24,9,-34,-14,-78,-102,-43,-39,-29
-24,-48,-24,36,0,-36,-4,-78,-102,-48,-43,-34
-34,-58,-24,46,-4,-41,0,-73,-102,-48,-48,-39
-34,-68,-34,51,0,-51,19,-73,-102,-48,-53,-39
-39,-78,-39,58,0,-58,19,-68,-102,-48,-53,-43
-43,-82,-39,63,-2,-61,19,-68,-102,-48,-53,-48
-43,-87,-43,65,0,-65,19,-68,-102,-58,-53,-48
-34,-87,-53,61,9,-70,14,-68,-112,-58,-58,-53
-43,-87,-43,65,0,-65,14,-68,-112,-63,-63,-58
-43,-92,-48,68,2,-70,14,-68,-112,-63,-68,-58
-43,-92,-48,68,2,-70,14,-73,-112,-63,-68,-63
-43,-92,-48,68,2,-70,19,-78,-122,-58,-73,-63
-43,-92,-48,68,2,-70,19,-78,-122,-63,-78,-68
-48,-102,-53,75,2,-78,19,-78,-122,-63,-78,-73
-48,-107,-58,78,4,-82,19,-82,-126,-68,-78,-73
-53,-117,-63,85,4,-90,19,-82,-126,-78,-78,-73
-53,-117,-63,85,4,-90,19,-82,-126,-78,-78,-73
-53,-117,-63,85,4,-90,19,-78,-126,-78,-78,-73
-53,-117,-63,85,4,-90,19,-78,-126,-78,-82,-73
-53,-126,-73,90,9,-100,19,-68,-122,-78,-73,-78
-53,-126,-73,90,9,-100,19,-73,-122,-82,-78,-78
-53,-131,-78,92,12,-104,19,-73,-122,-82,-78,-78
-53,-131,-78,92,12,-104,24,-68,-122,-82,-78,-78
-53,-131,-78,92,12,-104,14,-78,-131,-73,-82,-73
-53,-131,-78,92,12,-104,14,-78,-131,-73,-82,-73
-48,-126,-78,87,14,-102,14,-78,-131,-73,-87,-78
-48,-126,-78,87,14,-102,14,-78,-131,-73,-87,-82
-53,-117,-63,85,4,-90,14,-78,-131,-82,-87,-82
-53,-112,-58,82,2,-85,24,-78,-141,-92,-97,-87
-63,-136,-73,100,4,-104,39,-68,-146,-87,-97,-82
-73,-146,-73,109,0,-109,43,-73,-151,-107,-117,-107
-92,-146,-53,119,-19,-100,58,-63,-170,-136,-146,-122
-117,-156,-39,136,-39,-97,78,-63,-190,-151,-156,-146
-131,-156,-24,143,-53,-90,87,-63,-204,-165,-185,-161
-141,-170,-29,156,-56,-100,107,-53,-224,-175,-195,-170
-141,-161,-19,151,-61,-90,122,-39,-204,-151,-165,-170
-141,-156,-14,148,-63,-85,136,-9,-170,-107,-126,-141
-112,-141,-29,126,-41,-85,136,39,-112,-43,-82,-97
-63,-126,-63,95,0,-95,146,122,-4,39,-14,-43
-4,-107,-102,56,48,-104,170,209,117,146,97,34
53,-82,-136,14,95,-109,185,287,229,248,195,122
117,-24,-141,-46,129,-82,165,331,331,390,312,224
224,58,-165,-141,195,-53,126,370,488,575,488,361
361,161,-200,-261,280,-19,87,448,707,805,707,541
517,283,-234,-400,375,24,39,536,946,1034,922,736
658,405,-253,-531,456,75,-29,561,1141,1288,1146,932
790,522,-268,-656,529,126,-112,551,1332,1527,1381,1137
932,678,-253,-805,592,212,-224,527,1503,1751,1605,1337
1073,844,-229,-958,651,307,-370,468,1634,1917,1786,1512
1180,995,-185,-1088,683,405,-497,395,1703,2010,1898,1634
1234,1112,-122,-1173,678,495,-590,287,1688,2000,1922,1698
1278,1146,-131,-1212,705,507,-688,156,1605,1873,1859,1688
1332,956,-375,-1144,854,290,-756,53,1468,1600,1664,1561
1302,600,-702,-951,1002,-51,-722,53,1322,1210,1351,1337
1151,326,-824,-739,988,-248,-634,39,1176,863,1058,1127
990,263,-727,-627,858,-231,-585,-29,1010,639,878,1005
868,292,-575,-580,722,-141,-561,-82,854,492,761,922
741,263,-478,-502,610,-107,-507,-131,697,380,634,810
541,214,-326,-378,434,-56,-414,-200,458,234,458,644
322,141,-180,-231,251,-19,-312,-297,156,48,258,439
146,68,-78,-107,112,-4,-253,-405,-141,-92,97,278
63,34,-29,-48,46,2,-263,-483,-317,-146,14,190
19,29,9,-24,4,19,-273,-483,-361,-161,-14,136
-9,29,39,-9,-24,34,-229,-434,-351,-161,-48,82
-39,39,78,0,-58,58,-165,-351,-292,-136,-58,43
-39,48,87,-4,-63,68,-122,-244,-195,-102,-43,29
-39,29,68,4,-53,48,-97,-175,-126,-73,-34,9
-43,0,43,21,-43,21,-63,-117,-92,-48,-34,-9
-39,-19,19,29,-29,0,-43,-87,-68,-43,-39,-14
-29,-34,-4,31,-12,-19,-24,-58,-63,-53,-48,-24
-39,-53,-14,46,-12,-34,-4,-43,-58,-53,-53,-29
-48,-63,-14,56,-17,-39,14,-24,-53,-43,-58,-39
-39,-78,-39,58,0,-58,14,-19,-53,-48,-63,-34
-39,-87,-48,63,4,-68,19,-14,-53,-48,-63,-39
-39,-97,-58,68,9,-78,24,-4,-53,-48,-68,-43
-48,-107,-58,78,4,-82,29,-4,-58,-58,-73,-48
-48,-102,-53,75,2,-78,34,-14,-73,-68,-78,-63
-48,-102,-53,75,2,-78,34,-14,-73,-73,-78,-68
-48,-102,-53,75,2,-78,34,-9,-73,-73,-82,-73
-48,-107,-58,78,4,-82,39,-9,-73,-68,-82,-78
-53,-117,-63,85,4,-90,39,-9,-73,-68,-87,-78
-53,-117,-63,85,4,-90,39,-9,-78,-73,-87,-78
-58,-117,-58,87,0,-87,39,-9,-82,-73,-87,-78
-58,-117,-58,87,0,-87,43,-4,-82,-78,-87,-82
-58,-117,-58,87,0,-87,34,-4,-78,-78,-87,-82
-58,-112,-53,85,-2,-82,34,-4,-78,-78,-87,-82
-58,-107,-48,82,-4,-78,34,-4,-78,-78,-87,-82
-58,-102,-43,80,-7,-73,39,-4,-82,-78,-92,-82
-58,-107,-48,82,-4,-78,39,-4,-82,-82,-92,-92
-58,-107,-48,82,-4,-78,39,-4,-82,-82,-92,-92
-63,-117,-53,90,-4,-85,39,-4,-82,-78,-92,-92
-63,-117,-53,90,-4,-85,39,0,-82,-78,-92,-92
-63,-117,-53,90,-4,-85,43,0,-82,-87,-102,-87
-63,-117,-53,90,-4,-85,43,0,-82,-92,-102,-87
-63,-112,-48,87,-7,-80,43,0,-82,-92,-102,-87
-63,-112,-48,87,-7,-80,43,0,-82,-92,-102,-87
-63,-112,-48,87,-7,-80,53,0,-82,-82,-92,-87
-63,-112,-48,87,-7,-80,53,4,-78,-82,-92,-87
-63,-112,-48,87,-7,-80,53,4,-78,-82,-92,-87
-63,-112,-48,87,-7,-80,53,4,-78,-82,-92,-87
-63,-107,-43,85,-9,-75,43,-4,-82,-92,-102,-92
-63,-102,-39,82,-12,-70,43,-4,-82,-92,-102,-92
-63,-102,-39,82,-12,-70,43,-4,-78,-92,-102,-92
-58,-97,-39,78,-9,-68,43,-4,-78,-92,-102,-92
-58,-107,-48,82,-4,-78,43,4,-78,-92,-97,-92
-63,-107,-43,85,-9,-75,48,4,-78,-92,-97,-97
-63,-102,-39,82,-12,-70,48,4,-82,-92,-97,-97
-63,-102,-39,82,-12,-70,43,4,-82,-92,-97,-97
-63,-112,-48,87,-7,-80,43,-4,-82,-92,-107,-97
-63,-112,-48,87,-7,-80,43,0,-82,-92,-107,-97
-63,-112,-48,87,-7,-80,43,0,-78,-92,-107,-97
-63,-112,-48,87,-7,-80,43,0,-78,-97,-107,-97
-73,-122,-48,97,-12,-85,53,9,-78,-87,-107,-102
-73,-126,-53,100,-9,-90,53,9,-78,-87,-107,-102
-73,-126,-53,100,-9,-90,58,9,-78,-87,-107,-102
-73,-126,-53,100,-9,-90,58,14,-78,-87,-107,-102
-63,-117,-53,90,-4,-85,53,14,-78,-97,-107,-102
-63,-117,-53,90,-4,-85,53,14,-78,-97,-107,-102
-63,-117,-53,90,-4,-85,48,14,-78,-97,-107,-102
-63,-117,-53,90,-4,-85,48,14,-78,-97,-107,-102
-73,-126,-53,100,-9,-90,58,14,-68,-107,-107,-102
-73,-126,-53,100,-9,-90,58,14,-68,-107,-112,-102
-73,-126,-53,100,-9,-90,58,14,-68,-107,-112,-102
-73,-126,-53,100,-9,-90,63,14,-68,-107,-112,-102
-78,-126,-48,102,-14,-87,63,14,-78,-97,-112,-102
-78,-126,-48,102,-14,-87,63,14,-73,-102,-112,-102
-78,-126,-48,102,-14,-87,63,19,-73,-102,-112,-107
-78,-131,-53,104,-12,-92,63,19,-78,-102,-117,-107
-78,-131,-53,104,-12,-92,53,19,-78,-102,-117,-107
-78,-131,-53,104,-12,-92,53,19,-78,-102,-117,-107
-78,-131,-53,104,-12,-92,53,19,-78,-102,-117,-107
-78,-131,-53,104,-12,-92,48,19,-78,-102,-112,-107
-82,-122,-39,102,-21,-80,48,19,-78,-102,-112,-107
-82,-122,-39,102,-21,-80,48,19,-73,-102,-112,-107
-78,-122,-43,100,-17,-82,53,19,-73,-102,-117,-107
-78,-122,-43,100,-17,-82,53,19,-78,-102,-122,-107
-73,-131,-58,102,-7,-95,63,34,-68,-102,-122,-107
-73,-131,-58,102,-7,-95,63,34,-63,-107,-122,-112
-73,-131,-58,102,-7,-95,63,34,-63,-107,-122,-112
-73,-131,-58,102,-7,-95,63,34,-63,-107,-122,-112
-73,-136,-63,104,-4,-100,63,39,-63,-107,-112,-112
-73,-136,-63,104,-4,-100,63,39,-63,-112,-112,-117
-73,-136,-63,104,-4,-100,63,39,-63,-112,-117,-117
-73,-136,-63,104,-4,-100,63,39,-63,-112,-117,-117
-78,-126,-48,102,-14,-87,63,29,-73,-122,-126,-117
-82,-126,-43,104,-19,-85,63,29,-73,-122,-126,-117
-92,-126,-34,109,-29,-80,63,29,-73,-122,-126,-117
-97,-126,-29,112,-34,-78,63,29,-73,-122,-126,-117
-87,-131,-43,109,-21,-87,63,39,-63,-117,-126,-117
-87,-136,-48,112,-19,-92,63,43,-68,-117,-126,-122
-87,-141,-53,114,-17,-97,63,43,-68,-117,-131,-122
-87,-151,-63,119,-12,-107,63,43,-63,-122,-131,-122
-87,-146,-58,117,-14,-102,53,43,-68,-126,-131,-131
-87,-141,-53,114,-17,-97,53,43,-68,-126,-131,-131
-92,-136,-43,114,-24,-90,53,43,-73,-126,-131,-136
-92,-126,-34,109,-29,-80,53,43,-73,-126,-131,-136
-87,-126,-39,107,-24,-82,63,48,-63,-126,-136,-136
-87,-126,-39,107,-24,-82,63,48,-63,-126,-136,-131
-87,-131,-43,109,-21,-87,63,48,-63,-126,-136,-131
-87,-131,-43,109,-21,-87,63,53,-63,-126,-136,-131
-87,-126,-39,107,-24,-82,63,43,-63,-117,-126,-126
-87,-126,-39,107,-24,-82,63,43,-58,-122,-126,-126
-87,-126,-39,107,-24,-82,68,48,-58,-122,-131,-126
-87,-126,-39,107,-24,-82,68,48,-68,-122,-131,-126
-87,-126,-39,107,-24,-82,68,48,-58,-131,-141,-136
-87,-126,-39,107,-24,-82,68,48,-58,-126,-136,-136
-87,-122,-34,104,-26,-78,63,48,-58,-126,-136,-136
-92,-122,-29,107,-31,-75,63,53,-58,-131,-136,-136
-82,-126,-43,104,-19,-85,58,63,-58,-131,-141,-136
-82,-126,-43,104,-19,-85,58,68,-53,-131,-141,-136
-82,-122,-39,102,-21,-80,58,68,-53,-131,-136,-136
-82,-122,-39,102,-21,-80,53,68,-53,-131,-136,-136
-82,-131,-48,107,-17,-90,63,63,-53,-122,-136,-136
-82,-131,-48,107,-17,-90,68,63,-48,-122,-136,-136
-82,-122,-39,102,-21,-80,68,68,-43,-122,-136,-136
-82,-122,-39,102,-21,-80,68,68,-39,-122,-136,-136
-92,-112,-19,102,-36,-65,68,68,-48,-122,-136,-136
-87,-112,-24,100,-31,-68,68,73,-48,-122,-136,-136
-87,-107,-19,97,-34,-63,68,73,-48,-122,-136,-136
-87,-107,-19,97,-34,-63,68,73,-43,-117,-136,-136
-92,-112,-19,102,-36,-65,73,82,-34,-126,-136,-136
-92,-112,-19,102,-36,-65,73,87,-29,-126,-136,-136
-92,-112,-19,102,-36,-65,73,97,-29,-122,-136,-136
-92,-102,-9,97,-41,-56,78,97,-24,-122,-131,-131
-92,-87,4,90,-48,-41,68,97,-34,-112,-131,-122
-87,-87,0,87,-43,-43,68,97,-29,-112,-131,-122
-87,-82,4,85,-46,-39,68,102,-24,-107,-126,-122
-87,-82,4,85,-46,-39,68,112,-19,-107,-126,-122
-87,-87,0,87,-43,-43,68,112,-4,-112,-126,-122
-87,-78,9,82,-48,-34,68,112,0,-112,-122,-122
-87,-78,9,82,-48,-34,68,122,0,-107,-122,-122
-82,-73,9,78,-46,-31,68,122,4,-107,-122,-122
-82,-63,19,73,-51,-21,68,112,9,-97,-117,-112
-82,-58,24,70,-53,-17,68,126,14,-92,-117,-107
-82,-48,34,65,-58,-7,68,131,19,-87,-112,-107
-82,-43,39,63,-61,-2,68,131,24,-87,-107,-102
-73,-29,43,51,-58,7,68,136,24,-97,-112,-112
-73,-19,53,46,-63,17,68,141,29,-87,-107,-97
-73,-9,63,41,-68,26,68,146,34,-82,-107,-97
-68,-9,58,39,-63,24,68,151,39,-78,-102,-97
-78,0,78,39,-78,39,68,170,53,-63,-87,-78
-78,9,87,34,-82,48,68,175,58,-58,-82,-73
-73,19,92,26,-82,56,73,180,68,-53,-78,-68
-73,19,92,26,-82,56,73,185,73,-48,-73,-63
-73,19,92,26,-82,56,82,190,87,-43,-68,-58
-68,34,102,17,-85,68,78,195,102,-39,-63,-58
-63,43,107,9,-85,75,78,200,102,-34,-63,-53
-63,53,117,4,-90,85,78,204,117,-29,-58,-48
-73,68,141,2,-107,104,78,209,122,-19,-48,-39
-68,82,151,-7,-109,117,78,214,136,-4,-43,-24
-58,102,161,-21,-109,131,78,219,146,-4,-34,-24
-58,117,175,-29,-117,146,78,224,156,0,-34,-24
-53,117,170,-31,-112,143,68,234,165,14,-24,-14
-48,131,180,-41,-114,156,68,244,175,24,-9,-9
-48,141,190,-46,-119,165,68,248,185,34,0,0
-48,151,200,-51,-124,175,68,253,200,34,4,14
-48,165,214,-58,-131,190,78,268,224,48,14,19
-43,175,219,-65,-131,197,82,278,239,58,24,29
-39,190,229,-75,-134,209,82,278,248,68,29,39
-34,200,234,-82,-134,217,82,292,258,78,43,48
-29,214,244,-92,-136,229,82,292,268,97,58,58
-24,224,248,-100,-136,236,78,302,283,102,68,68
-19,234,253,-107,-136,244,78,307,287,112,78,78
-14,244,258,-114,-136,251,78,312,297,122,87,87
-4,263,268,-129,-136,265,68,317,307,122,97,97
0,278,278,-139,-139,278,68,322,317,131,107,107
4,283,278,-143,-136,280,63,326,331,146,117,117
9,292,283,-151,-136,287,63,336,341,156,126,126
19,297,278,-158,-129,287,63,331,356,175,136,131
24,302,278,-163,-126,290,63,336,370,185,146,141
29,317,287,-173,-129,302,63,341,375,195,156,151
39,326,287,-183,-124,307,63,341,385,200,165,156
43,326,283,-185,-119,305,68,351,405,204,170,161
48,331,283,-190,-117,307,68,361,414,219,180,175
53,341,287,-197,-117,314,63,366,424,229,190,185
63,346,283,-204,-109,314,63,366,434,239,200,195
68,361,292,-214,-112,326,53,366,424,248,214,195
73,361,287,-217,-107,324,53,366,434,258,224,204
78,361,283,-219,-102,322,48,366,439,263,234,209
82,361,278,-222,-97,319,48,366,444,273,244,214
78,351,273,-214,-97,312,58,346,444,287,248,234
87,351,263,-219,-87,307,48,341,444,292,253,239
92,346,253,-219,-80,300,48,336,444,292,258,244
92,341,248,-217,-78,295,48,331,434,297,258,244
107,346,239,-226,-65,292,34,322,429,287,263,234
107,346,239,-226,-65,292,29,307,424,287,268,244
107,341,234,-224,-63,287,29,302,414,287,268,244
107,326,219,-217,-56,273,29,292,409,292,268,244
112,307,195,-209,-41,251,29,273,395,302,273,239
117,302,185,-209,-34,244,29,263,385,302,273,239
117,292,175,-204,-29,234,29,253,375,297,268,234
112,283,170,-197,-29,226,29,244,361,297,268,229
112,263,151,-187,-19,207,14,234,346,287,268,234
107,248,141,-178,-17,195,14,219,336,278,263,229
107,234,126,-170,-9,180,14,209,322,273,258,224
107,224,117,-165,-4,170,9,204,302,268,244,219
97,219,122,-158,-12,170,9,185,297,253,229,214
92,204,112,-148,-9,158,14,175,278,248,224,209
92,195,102,-143,-4,148,14,161,268,239,214,195
87,185,97,-136,-4,141,14,151,244,229,204,190
82,165,82,-124,0,124,0,136,224,219,195,170
78,151,73,-114,2,112,0,131,214,209,185,161
78,136,58,-107,9,97,0,122,200,200,180,151
73,122,48,-97,12,85,0,112,185,190,170,146
78,107,29,-92,24,68,9,112,175,170,156,131
73,97,24,-85,24,61,9,102,161,161,146,126
68,87,19,-78,24,53,9,92,136,141,131,117
63,82,19,-73,21,51,9,82,131,131,126,107
58,63,4,-61,26,34,9,73,117,136,117,92
53,53,0,-53,26,26,9,63,107,122,107,87
48,39,-9,-43,29,14,9,58,92,112,97,78
43,34,-9,-39,26,12,9,53,78,102,87,68
48,14,-34,-31,41,-9,9,48,73,92,87,78
43,9,-34,-26,39,-12,14,43,63,87,82,73
39,0,-39,-19,39,-19,14,43,58,78,73,58
34,-4,-39,-14,36,-21,9,29,48,68,63,53
24,0,-24,-12,24,-12,9,29,39,68,58,39
24,-4,-29,-9,26,-17,9,24,29,58,53,34
24,-19,-43,-2,34,-31,9,24,34,48,43,29
24,-19,-43,-2,34,-31,9,14,29,48,39,24
24,-19,-43,-2,34,-31,9,9,14,39,34,19
24,-34,-58,4,41,-46,9,4,14,34,29,19
19,-34,-53,7,36,-43,9,4,9,29,14,14
19,-34,-53,7,36,-43,9,0,4,24,14,9
19,-48,-68,14,43,-58,4,0,-9,19,14,4
14,-48,-63,17,39,-56,4,0,-9,19,9,4
14,-48,-63,17,39,-56,4,-4,-14,14,9,4
14,-48,-63,17,39,-56,4,-4,-19,9,4,4
4,-53,-58,24,31,-56,14,-4,-19,0,-4,4
0,-58,-58,29,29,-58,14,-4,-19,-4,-4,0
-4,-63,-58,34,26,-61,14,-4,-19,-4,-4,-4
-4,-63,-58,34,26,-61,14,-4,-19,-4,-4,-4
4,-68,-73,31,39,-70,4,-9,-24,-4,-4,-4
0,-68,-68,34,34,-68,9,-9,-29,-14,-4,-4
0,-63,-63,31,31,-63,9,-9,-29,-14,-9,-14
0,-63,-63,31,31,-63,4,-9,-29,-14,-9,-14
0,-63,-63,31,31,-63,14,-9,-29,-14,-19,-24
0,-63,-63,31,31,-63,14,-9,-29,-14,-19,-24
0,-63,-63,31,31,-63,14,-9,-29,-14,-19,-24
0,-73,-73,36,36,-73,14,-9,-29,-14,-19,-24
-9,-63,-53,36,21,-58,9,-9,-29,-14,-19,-24
-9,-63,-53,36,21,-58,9,-9,-29,-14,-19,-24
-14,-58,-43,36,14,-51,9,-9,-29,-14,-19,-24
-14,-58,-43,36,14,-51,9,-9,-29,-19,-19,-24
