I,II,III,aVR,aVL,aVF,V1,V2,V3,V4,V5,V6,
-9,-9,0,9,-4,-4,-9,-39,0,78,29,9
-14,-14,0,14,-7,-7,-9,-39,0,78,29,14
-19,-19,0,19,-9,-9,-9,-39,0,78,29,19
-19,-19,0,19,-9,-9,-9,-39,0,78,29,19
-19,-19,0,19,-9,-9,-9,-39,0,78,29,19
-19,-19,0,19,-9,-9,-9,-39,0,78,34,19
-19,-19,0,19,-9,-9,-9,-39,0,78,39,19
-19,-19,0,19,-9,-9,-9,-39,0,78,39,19
-19,-19,0,19,-9,-9,-9,-39,0,78,39,19
-19,-19,0,19,-9,-9,-9,-39,-4,78,34,14
-19,-19,0,19,-9,-9,-9,-39,-9,78,29,9
-19,-14,4,17,-12,-4,-9,-34,-9,78,29,9
-19,-9,9,14,-14,0,-9,-29,-9,78,29,9
-19,-9,9,14,-14,0,-9,-29,-4,73,29,9
-19,-9,9,14,-14,0,-9,-29,0,68,29,9
-19,-14,4,17,-12,-4,-9,-29,0,68,29,9
-19,-19,0,19,-9,-9,-9,-29,0,68,29,9
-19,-19,0,19,-9,-9,-9,-29,0,68,29,9
-19,-19,0,19,-9,-9,-9,-29,0,68,29,9
-19,-19,0,19,-9,-9,-9,-29,-4,68,29,9
-19,-19,0,19,-9,-9,-9,-29,-9,68,29,9
-19,-19,0,19,-9,-9,-9,-29,-9,68,29,9
-19,-19,0,19,-9,-9,-9,-29,-9,68,29,9
-19,-19,0,19,-9,-9,-9,-29,-9,68,29,9
-19,-19,0,19,-9,-9,-9,-29,-9,68,29,9
-19,-14,4,17,-12,-4,-9,-29,-9,68,29,9
-19,-9,9,14,-14,0,-9,-29,-9,68,29,9
-19,-9,9,14,-14,0,-9,-29,-9,63,29,9
-19,-9,9,14,-14,0,-9,-29,-9,58,29,9
-24,-14,9,19,-17,-2,-4,-24,-9,58,29,9
-29,-19,9,24,-19,-4,0,-19,-9,58,29,9
-29,-19,9,24,-19,-4,0,-19,-9,58,29,9
-29,-19,9,24,-19,-4,0,-19,-9,58,29,9
-29,-19,9,24,-19,-4,0,-24,-9,58,24,9
-29,-19,9,24,-19,-4,0,-29,-9,58,19,9
-29,-19,9,24,-19,-4,0,-29,-4,63,19,9
-29,-19,9,24,-19,-4,0,-29,0,68,19,9
-24,-19,4,21,-14,-7,0,-29,0,68,19,9
-19,-19,0,19,-9,-9,0,-29,0,68,19,9
-19,-19,0,19,-9,-9,0,-24,-4,68,19,9
-19,-19,0,19,-9,-9,0,-19,-9,68,19,9
-24,-19,4,21,-14,-7,0,-19,-9,68,24,9
-29,-19,9,24,-19,-4,0,-19,-9,68,29,9
-29,-19,9,24,-19,-4,0,-19,-9,68,29,9
-29,-19,9,24,-19,-4,0,-19,-9,68,29,9
-29,-19,9,24,-19,-4,0,-19,-9,68,24,9
-29,-19,9,24,-19,-4,0,-19,-9,68,19,9
-24,-19,4,21,-14,-7,0,-19,-9,68,19,9
-19,-19,0,19,-9,-9,0,-19,-9,68,19,9
-19,-19,0,19,-9,-9,0,-19,-9,68,19,9
-19,-19,0,19,-9,-9,0,-19,-9,68,19,9
-19,-19,0,19,-9,-9,0,-24,-9,68,19,9
-19,-19,0,19,-9,-9,0,-29,-9,68,19,9
-9,-19,-9,14,0,-14,0,-29,-9,68,19,9
0,-19,-19,9,9,-19,0,-29,-9,68,19,9
-14,-14,0,14,-7,-7,0,-24,0,73,24,9
-29,-9,19,19,-24,4,0,-19,9,78,29,9
-24,-4,19,14,-21,7,0,-14,14,78,29,9
-19,0,19,9,-19,9,0,-9,14,78,29,14
-14,9,24,2,-19,17,0,-4,14,82,34,19
-4,14,19,-4,-12,17,-14,-4,9,78,34,19
14,14,0,-14,7,7,-24,-14,-9,78,39,14
24,9,-14,-17,19,-2,-24,-14,-19,78,39,9
19,14,-4,-17,12,4,-24,-14,-19,78,39,9
19,24,4,-21,7,14,-24,-19,0,82,43,19
29,78,48,-53,-9,63,-34,-34,14,92,63,34
43,126,82,-85,-19,104,-43,-48,34,112,82,53
63,185,122,-124,-29,153,-78,-63,48,136,107,73
73,219,146,-146,-36,183,-87,-73,68,151,122,92
82,214,131,-148,-24,173,-73,-34,82,165,122,97
87,190,102,-139,-7,146,-48,0,97,170,126,102
87,161,73,-124,7,117,-19,39,112,180,131,102
82,141,58,-112,12,100,-9,43,122,185,131,102
87,126,39,-107,24,82,-34,4,78,165,107,92
87,107,19,-97,34,63,-63,-43,43,141,107,92
92,92,0,-92,46,46,-82,-68,29,136,107,92
102,63,-39,-82,70,12,-97,-82,0,117,92,87
107,43,-63,-75,85,-9,-97,-82,-24,92,82,78
92,29,-63,-61,78,-17,-97,-87,-39,68,63,63
73,19,-53,-46,63,-17,-78,-82,-48,63,48,43
34,-9,-43,-12,39,-26,-48,-58,-43,68,34,24
-4,-24,-19,14,7,-21,-24,-39,-14,68,19,9
-24,-24,0,24,-12,-12,-9,-29,-4,68,14,4
-34,-34,0,34,-17,-17,-14,-34,-9,63,9,-4
-43,-39,4,41,-24,-17,-9,-29,-14,63,9,-4
-58,-48,9,53,-34,-19,-9,-29,-14,63,14,0
-68,-48,19,58,-43,-14,-9,-29,-14,68,19,4
-58,-48,9,53,-34,-19,-9,-29,-9,68,19,4
-48,-48,0,48,-24,-24,-14,-29,-9,68,19,4
-43,-53,-9,48,-17,-31,-14,-29,-14,68,19,-4
-39,-53,-14,46,-12,-34,-14,-29,-14,68,14,-9
-43,-48,-4,46,-19,-26,-14,-29,-19,68,14,-9
-43,-48,-4,46,-19,-26,-14,-29,-24,68,14,-9
-48,-48,0,48,-24,-24,-9,-29,-24,68,19,-4
-48,-68,-19,58,-14,-43,9,-9,0,73,19,-9
-53,-78,-24,65,-14,-51,34,29,24,78,9,-9
-63,-87,-24,75,-19,-56,43,43,82,107,-4,-24
-122,-87,34,104,-78,-26,34,0,170,170,-29,-63
-219,-87,131,153,-175,21,43,-39,390,229,-102,-151
-375,-117,258,246,-317,70,97,-48,756,239,-258,-302
-473,-161,312,317,-392,75,253,126,1244,331,-361,-409
-478,-209,268,344,-373,29,492,502,1908,619,-326,-390
-326,-58,268,192,-297,104,517,727,2391,1132,-87,-229
-34,395,429,-180,-231,412,297,756,3025,2176,473,112
268,917,649,-592,-190,783,-283,185,1976,1849,839,409
546,1522,976,-1034,-214,1249,-1058,-785,-204,805,1171,727
614,1932,1317,-1273,-351,1625,-1639,-1659,-2113,-932,1039,795
707,2064,1356,-1385,-324,1710,-1952,-2225,-3328,-2400,732,800
858,2039,1180,-1449,-161,1610,-2152,-2508,-4162,-3147,580,902
824,1932,1107,-1378,-141,1520,-1971,-2430,-4328,-3142,502,956
673,1810,1137,-1241,-231,1473,-1839,-2444,-4187,-2918,448,980
292,1605,1312,-949,-509,1459,-1703,-2337,-3713,-2566,214,766
63,1185,1122,-624,-529,1154,-1190,-1776,-2864,-2059,-48,507
68,649,580,-358,-256,614,-683,-1176,-1956,-1532,-170,351
82,195,112,-139,-14,153,-302,-683,-1263,-1068,-185,283
102,-39,-141,-31,122,-90,-102,-331,-805,-673,-146,175
73,-78,-151,2,112,-114,-48,-175,-483,-400,-107,97
-14,-68,-53,41,19,-61,29,-53,-244,-195,-78,39
-73,-102,-29,87,-21,-65,97,48,-87,-63,-53,-4
-73,-131,-58,102,-7,-95,141,97,-48,-29,-43,-14
-73,-131,-58,102,-7,-95,151,112,-19,-9,-39,-34
-73,-131,-58,102,-7,-95,146,112,14,14,-48,-39
-82,-141,-58,112,-12,-100,146,112,29,24,-48,-39
-82,-146,-63,114,-9,-104,156,122,34,39,-43,-39
-73,-151,-78,112,2,-114,156,122,43,43,-43,-48
-73,-151,-78,112,2,-114,156,126,48,48,-43,-53
-87,-156,-68,122,-9,-112,156,131,63,53,-43,-58
-92,-156,-63,124,-14,-109,156,136,63,53,-39,-58
-92,-156,-63,124,-14,-109,151,136,63,53,-39,-58
-92,-156,-63,124,-14,-109,146,136,68,58,-39,-58
-87,-151,-63,119,-12,-107,146,136,73,58,-39,-63
-87,-151,-63,119,-12,-107,146,136,78,58,-43,-63
-87,-151,-63,119,-12,-107,141,136,78,58,-48,-58
-82,-151,-68,117,-7,-109,141,136,82,53,-48,-58
-78,-151,-73,114,-2,-112,141,136,82,48,-48,-58
-78,-146,-68,112,-4,-107,136,141,87,48,-43,-58
-78,-146,-68,112,-4,-107,136,141,87,48,-39,-58
-78,-146,-68,112,-4,-107,141,141,87,48,-39,-58
-78,-146,-68,112,-4,-107,146,141,92,48,-39,-58
-78,-146,-68,112,-4,-107,146,136,92,48,-39,-58
-78,-146,-68,112,-4,-107,146,136,97,48,-34,-58
-78,-146,-68,112,-4,-107,151,136,97,48,-34,-58
-78,-146,-68,112,-4,-107,151,136,97,48,-39,-58
-73,-141,-68,107,-2,-104,151,141,102,48,-39,-58
-73,-141,-68,107,-2,-104,151,141,102,43,-39,-63
-78,-141,-63,109,-7,-102,156,146,102,43,-39,-63
-78,-136,-58,107,-9,-97,156,146,102,39,-39,-63
-78,-136,-58,107,-9,-97,156,151,107,39,-39,-63
-82,-141,-58,112,-12,-100,161,156,112,34,-39,-63
-82,-141,-58,112,-12,-100,161,156,112,34,-43,-63
-82,-141,-58,112,-12,-100,161,161,112,34,-48,-63
-82,-141,-58,112,-12,-100,161,161,112,24,-53,-63
-82,-141,-58,112,-12,-100,165,165,107,24,-53,-63
-82,-141,-58,112,-12,-100,170,170,107,24,-58,-63
-82,-141,-58,112,-12,-100,170,175,107,19,-58,-63
-82,-141,-58,112,-12,-100,170,175,107,14,-58,-73
-87,-146,-58,117,-14,-102,170,185,107,9,-58,-73
-87,-146,-58,117,-14,-102,175,185,107,4,-53,-73
-87,-156,-68,122,-9,-112,180,185,107,4,-53,-73
-87,-156,-68,122,-9,-112,190,195,107,0,-58,-78
-87,-156,-68,122,-9,-112,190,200,112,-4,-63,-82
-82,-156,-73,119,-4,-114,190,200,112,-4,-73,-87
-78,-161,-82,119,2,-122,200,204,112,-14,-78,-92
-78,-165,-87,122,4,-126,204,214,112,-14,-78,-92
-82,-170,-87,126,2,-129,214,219,117,-19,-78,-92
-87,-175,-87,131,0,-131,214,229,117,-24,-87,-87
-87,-180,-92,134,2,-136,219,239,122,-29,-97,-97
-92,-175,-82,134,-4,-129,229,248,122,-34,-97,-97
-92,-175,-82,134,-4,-129,239,253,122,-39,-97,-97
-92,-180,-87,136,-2,-134,244,268,126,-39,-107,-102
-92,-185,-92,139,0,-139,253,283,126,-39,-107,-112
-92,-195,-102,143,4,-148,263,292,131,-53,-117,-117
-92,-204,-112,148,9,-158,273,307,131,-63,-122,-122
-92,-209,-117,151,12,-163,283,317,136,-58,-126,-126
-97,-214,-117,156,9,-165,297,341,136,-68,-141,-131
-107,-224,-117,165,4,-170,307,351,141,-78,-146,-136
-112,-229,-117,170,2,-173,322,375,146,-87,-156,-146
-112,-244,-131,178,9,-187,336,390,146,-97,-165,-151
-112,-258,-146,185,17,-202,346,405,146,-107,-175,-165
-117,-268,-151,192,17,-209,370,429,151,-117,-185,-170
-117,-278,-161,197,21,-219,385,453,156,-136,-195,-180
-122,-292,-170,207,24,-231,405,478,165,-156,-209,-195
-126,-302,-175,214,24,-239,424,502,170,-165,-224,-204
-126,-307,-180,217,26,-244,439,527,180,-175,-234,-214
-131,-322,-190,226,29,-256,458,546,190,-195,-248,-224
-131,-331,-200,231,34,-265,468,566,195,-209,-253,-229
-146,-341,-195,244,24,-268,488,585,214,-224,-258,-234
-146,-351,-204,248,29,-278,497,605,224,-239,-268,-244
-146,-356,-209,251,31,-283,507,614,234,-258,-283,-253
-146,-356,-209,251,31,-283,517,624,239,-263,-292,-268
-146,-361,-214,253,34,-287,522,634,253,-273,-302,-278
-141,-366,-224,253,41,-295,527,644,268,-283,-302,-278
-141,-366,-224,253,41,-295,527,644,278,-287,-307,-278
-141,-366,-224,253,41,-295,531,649,287,-287,-307,-278
-141,-356,-214,248,36,-285,527,644,297,-287,-307,-278
-141,-351,-209,246,34,-280,517,634,307,-283,-307,-278
-136,-341,-204,239,34,-273,497,619,317,-283,-302,-273
-131,-326,-195,229,31,-261,488,605,331,-268,-287,-258
-122,-302,-180,212,29,-241,473,580,336,-258,-278,-248
-117,-283,-165,200,24,-224,444,551,336,-244,-263,-239
-112,-258,-146,185,17,-202,414,517,331,-234,-253,-229
-107,-239,-131,173,12,-185,375,478,326,-224,-244,-219
-97,-219,-122,158,12,-170,346,429,317,-204,-234,-195
-87,-195,-107,141,9,-151,307,395,302,-185,-209,-175
-78,-170,-92,124,7,-131,268,351,283,-175,-190,-161
-73,-146,-73,109,0,-109,234,307,263,-156,-161,-141
-63,-122,-58,92,-2,-90,200,263,239,-131,-141,-126
-48,-97,-48,73,0,-73,165,234,219,-112,-122,-102
-48,-82,-34,65,-7,-58,136,195,200,-97,-97,-87
-43,-58,-14,51,-14,-36,107,156,175,-73,-78,-63
-29,-43,-14,36,-7,-29,78,126,151,-53,-58,-58
-29,-43,-14,36,-7,-29,68,102,131,-29,-48,-48
-19,-39,-19,29,0,-29,53,78,117,-14,-39,-34
-19,-29,-9,24,-4,-19,34,58,107,4,-19,-24
-19,-24,-4,21,-7,-14,19,43,97,19,-9,-14
-19,-14,4,17,-12,-4,9,34,87,29,0,-4
-14,-9,4,12,-9,-2,4,14,82,39,4,0
-9,-4,4,7,-7,0,-9,9,73,43,14,4
-9,-4,4,7,-7,0,-14,0,73,53,19,4
-9,0,9,4,-9,4,-24,-9,63,63,24,9
-14,0,14,7,-14,7,-24,-14,63,63,24,9
-19,0,19,9,-19,9,-24,-19,58,68,24,14
-19,4,24,7,-21,14,-24,-19,58,73,29,19
-19,4,24,7,-21,14,-24,-19,58,73,29,19
-19,4,24,7,-21,14,-24,-19,53,73,29,19
-14,4,19,4,-17,12,-24,-19,48,73,29,14
-14,9,24,2,-19,17,-24,-19,43,68,29,9
-9,4,14,2,-12,9,-24,-24,43,68,29,9
-4,4,9,0,-7,7,-24,-24,43,73,34,9
-4,9,14,-2,-9,12,-29,-19,43,78,34,9
-4,9,14,-2,-9,12,-29,-19,43,78,34,9
-9,9,19,0,-14,14,-24,-14,43,87,34,14
-14,9,24,2,-19,17,-24,-9,43,92,34,14
-14,9,24,2,-19,17,-24,-9,43,97,39,14
-9,9,19,0,-14,14,-19,-9,43,97,39,14
-9,9,19,0,-14,14,-19,-9,43,97,39,14
-9,4,14,2,-12,9,-19,-4,43,102,43,14
-9,4,14,2,-12,9,-24,-4,48,107,43,14
-4,9,14,-2,-9,12,-29,-4,53,107,43,14
-4,9,14,-2,-9,12,-29,-4,53,112,43,14
-9,9,19,0,-14,14,-29,-4,58,112,43,14
-9,14,24,-2,-17,19,-14,0,63,117,43,19
-9,14,24,-2,-17,19,-19,0,63,117,48,19
-4,14,19,-4,-12,17,-19,0,58,117,48,19
-4,14,19,-4,-12,17,-19,0,53,126,53,19
-4,9,14,-2,-9,12,-14,0,58,126,53,24
-4,9,14,-2,-9,12,-14,4,63,131,53,24
-9,9,19,0,-14,14,-14,4,68,136,53,24
-9,9,19,0,-14,14,-14,4,68,136,53,24
-4,9,14,-2,-9,12,-14,4,68,136,53,24
-4,9,14,-2,-9,12,-14,4,73,136,58,24
-4,9,14,-2,-9,12,-14,4,73,141,58,24
-4,9,14,-2,-9,12,-14,4,68,141,58,29
-4,9,14,-2,-9,12,-19,9,68,141,58,29
-4,9,14,-2,-9,12,-19,9,68,141,63,29
-4,9,14,-2,-9,12,-19,9,68,146,63,29
-4,9,14,-2,-9,12,-19,9,68,146,63,29
-4,9,14,-2,-9,12,-19,9,68,146,63,29
0,9,9,-4,-4,9,-14,9,68,146,63,29
0,9,9,-4,-4,9,-14,9,68,146,68,34
0,9,9,-4,-4,9,-14,4,68,146,73,34
-4,9,14,-2,-9,12,-19,4,63,141,73,34
-4,9,14,-2,-9,12,-19,4,63,141,73,34
-4,9,14,-2,-9,12,-19,4,58,141,68,34
-4,9,14,-2,-9,12,-19,4,58,141,63,34
0,9,9,-4,-4,9,-19,4,53,136,58,34
0,9,9,-4,-4,9,-19,0,53,136,58,34
4,14,9,-9,-2,12,-29,0,53,136,58,34
4,14,9,-9,-2,12,-29,0,48,136,58,34
0,19,19,-9,-9,19,-24,0,48,136,63,39
-4,19,24,-7,-14,21,-24,0,48,131,68,43
-4,19,24,-7,-14,21,-24,-4,43,131,68,43
0,19,19,-9,-9,19,-24,-4,43,131,68,43
0,19,19,-9,-9,19,-24,-4,43,126,68,39
4,19,14,-12,-4,17,-29,-4,39,126,68,34
4,24,19,-14,-7,21,-29,-4,39,122,68,34
0,24,24,-12,-12,24,-29,-9,39,122,68,34
0,24,24,-12,-12,24,-29,-9,39,122,68,34
0,24,24,-12,-12,24,-29,-14,34,122,58,29
0,24,24,-12,-12,24,-34,-14,34,122,58,29
-4,19,24,-7,-14,21,-34,-14,34,122,63,29
-4,14,19,-4,-12,17,-29,-14,34,117,63,29
0,9,9,-4,-4,9,-29,-14,34,112,63,29
4,9,4,-7,0,7,-29,-14,29,112,63,24
4,9,4,-7,0,7,-29,-14,29,112,58,24
0,4,4,-2,-2,4,-34,-14,29,107,58,24
4,9,4,-7,0,7,-39,-14,29,107,58,24
4,9,4,-7,0,7,-34,-14,29,102,53,19
9,9,0,-9,4,4,-29,-19,29,97,48,19
9,9,0,-9,4,4,-29,-19,29,97,48,19
9,9,0,-9,4,4,-29,-19,29,97,48,19
4,9,4,-7,0,7,-29,-19,29,97,48,19
0,9,9,-4,-4,9,-29,-19,29,97,48,19
0,9,9,-4,-4,9,-29,-19,24,97,48,19
0,9,9,-4,-4,9,-29,-19,19,97,48,19
0,4,4,-2,-2,4,-39,-19,19,92,48,19
0,0,0,0,0,0,-48,-19,19,87,48,19
-4,0,4,2,-4,2,-39,-19,24,87,48,19
-9,0,9,4,-9,4,-29,-19,29,87,48,19
-9,0,9,4,-9,4,-29,-19,29,92,43,19
-9,0,9,4,-9,4,-29,-19,29,97,39,19
-9,0,9,4,-9,4,-29,-19,29,97,39,19
-9,0,9,4,-9,4,-29,-19,29,97,39,19
-9,0,9,4,-9,4,-34,-19,24,92,39,14
-9,0,9,4,-9,4,-39,-19,19,87,39,9
-9,0,9,4,-9,4,-39,-24,19,87,39,9
-9,0,9,4,-9,4,-39,-29,19,87,39,9
-9,0,9,4,-9,4,-34,-29,19,87,39,9
-9,0,9,4,-9,4,-29,-29,19,87,39,9
-9,0,9,4,-9,4,-29,-29,14,82,39,9
-9,0,9,4,-9,4,-29,-29,9,78,39,9
-9,0,9,4,-9,4,-29,-29,9,78,34,9
-9,0,9,4,-9,4,-29,-29,9,78,29,9
-9,4,14,2,-12,9,-29,-29,9,78,29,9
-9,9,19,0,-14,14,-29,-29,9,78,29,9
-9,9,19,0,-14,14,-34,-29,9,78,29,9
-9,9,19,0,-14,14,-39,-29,9,78,29,9
-9,4,14,2,-12,9,-39,-24,9,78,34,9
-9,0,9,4,-9,4,-39,-19,9,78,39,9
-9,0,9,4,-9,4,-34,-19,9,78,39,9
-9,0,9,4,-9,4,-29,-19,9,78,39,9
-9,0,9,4,-9,4,-29,-19,9,73,34,9
-9,0,9,4,-9,4,-29,-19,9,68,29,9
-9,0,9,4,-9,4,-34,-24,9,68,29,9
-9,0,9,4,-9,4,-39,-29,9,68,29,9
-9,4,14,2,-12,9,-39,-29,9,68,29,9
-9,9,19,0,-14,14,-39,-29,9,68,29,9
0,9,9,-4,-4,9,-39,-29,9,68,24,9
9,9,0,-9,4,4,-39,-29,9,68,19,9
0,4,4,-2,-2,4,-39,-29,9,68,19,9
-9,0,9,4,-9,4,-39,-29,9,68,19,9
-19,0,19,9,-19,9,-39,-29,9,68,19,9
-29,0,29,14,-29,14,-39,-29,9,68,19,9
-29,0,29,14,-29,14,-39,-29,9,68,19,9
-29,0,29,14,-29,14,-39,-29,9,68,19,9
-24,0,24,12,-24,12,-39,-29,9,68,19,9
-19,0,19,9,-19,9,-39,-29,9,68,19,9
-19,0,19,9,-19,9,-39,-29,9,68,19,9
-19,0,19,9,-19,9,-39,-29,9,68,19,9
-19,-4,14,12,-17,4,-39,-29,9,68,19,9
-19,-9,9,14,-14,0,-39,-29,9,68,19,9
-19,-9,9,14,-14,0,-39,-29,9,68,19,9
-19,-9,9,14,-14,0,-39,-29,9,68,19,9
-19,-4,14,12,-17,4,-39,-29,9,63,19,9
-19,0,19,9,-19,9,-39,-29,9,58,19,9
-14,0,14,7,-14,7,-39,-29,9,58,19,4
-9,0,9,4,-9,4,-39,-29,9,58,19,0
-9,0,9,4,-9,4,-39,-29,9,58,19,0
-9,0,9,4,-9,4,-39,-29,9,58,19,0
-14,-4,9,9,-12,2,-39,-29,9,58,19,0
-19,-9,9,14,-14,0,-39,-29,9,58,19,0
-19,-9,9,14,-14,0,-39,-29,9,58,19,0
-19,-9,9,14,-14,0,-39,-29,9,58,19,0
-14,-9,4,12,-9,-2,-39,-29,9,53,19,0
-9,-9,0,9,-4,-4,-39,-29,9,48,19,0
-9,-9,0,9,-4,-4,-39,-29,4,48,19,0
-9,-9,0,9,-4,-4,-39,-29,0,48,19,0
-9,-9,0,9,-4,-4,-39,-29,0,48,19,0
-9,-9,0,9,-4,-4,-39,-29,0,48,19,0
-9,-9,0,9,-4,-4,-39,-29,0,48,19,0
-9,-9,0,9,-4,-4,-39,-29,0,48,19,0
-14,-9,4,12,-9,-2,-39,-29,4,48,19,0
-19,-9,9,14,-14,0,-39,-29,9,48,19,0
-19,-9,9,14,-14,0,-39,-29,9,48,19,0
-19,-9,9,14,-14,0,-39,-29,9,48,19,0
-19,-9,9,14,-14,0,-39,-29,9,48,19,0
-19,-9,9,14,-14,0,-39,-29,9,48,19,0
-19,-9,9,14,-14,0,-39,-29,9,53,19,0
-19,-9,9,14,-14,0,-39,-29,9,58,19,0
-19,-9,9,14,-14,0,-39,-29,9,58,19,0
-19,-9,9,14,-14,0,-39,-29,9,58,19,0
-19,-9,9,14,-14,0,-39,-29,9,58,19,0
-19,-9,9,14,-14,0,-39,-29,9,58,19,0
-19,-9,9,14,-14,0,-39,-29,4,53,19,0
-19,-9,9,14,-14,0,-39,-29,0,48,19,0
-19,-9,9,14,-14,0,-39,-29,0,48,19,0
-19,-9,9,14,-14,0,-39,-29,0,48,19,0
-14,-9,4,12,-9,-2,-43,-29,0,48,19,0
-9,-9,0,9,-4,-4,-48,-29,0,48,19,0
-9,-9,0,9,-4,-4,-48,-29,4,53,19,0
-9,-9,0,9,-4,-4,-48,-29,9,58,19,0
-14,-9,4,12,-9,-2,-43,-29,9,58,19,4
-19,-9,9,14,-14,0,-39,-29,9,58,19,9
-19,-9,9,14,-14,0,-39,-29,9,58,19,9
-19,-9,9,14,-14,0,-39,-29,9,58,19,9
-19,-14,4,17,-12,-4,-39,-29,9,58,19,4
-19,-19,0,19,-9,-9,-39,-29,9,58,19,0
-19,-19,0,19,-9,-9,-39,-34,9,58,14,0
-19,-19,0,19,-9,-9,-39,-39,9,58,9,0
-19,-19,0,19,-9,-9,-43,-39,9,58,9,0
-19,-19,0,19,-9,-9,-48,-39,9,58,9,0
-19,-14,4,17,-12,-4,-48,-34,9,58,14,0
-19,-9,9,14,-14,0,-48,-29,9,58,19,0
-9,-4,4,7,-7,0,-48,-29,14,58,24,0
0,0,0,0,0,0,-48,-24,14,63,29,4
4,9,4,-7,0,7,-48,-24,14,68,34,14
14,14,0,-14,7,7,-63,-24,9,68,34,19
24,19,-4,-21,14,7,-73,-34,0,68,39,19
24,19,-4,-21,14,7,-73,-34,0,68,39,19
19,24,4,-21,7,14,-68,-34,0,68,34,14
19,34,14,-26,2,24,-63,-39,19,73,34,19
34,87,53,-61,-9,70,-73,-48,34,87,53,34
53,136,82,-95,-14,109,-82,-58,53,112,73,53
73,200,126,-136,-26,163,-107,-68,68,141,102,78
82,239,156,-161,-36,197,-107,-73,87,161,122,102
97,229,131,-163,-17,180,-92,-34,102,170,122,102
107,200,92,-153,7,146,-68,0,117,170,126,102
107,170,63,-139,21,117,-58,29,122,175,126,102
102,151,48,-126,26,100,-68,24,122,175,122,102
102,136,34,-119,34,85,-97,-24,78,151,97,92
97,117,19,-107,39,68,-131,-82,43,122,97,92
97,102,4,-100,46,53,-136,-92,29,117,97,87
102,73,-29,-87,65,21,-136,-92,0,97,82,78
112,48,-63,-80,87,-7,-136,-92,-24,78,73,68
102,29,-73,-65,87,-21,-136,-97,-39,58,53,53
73,19,-53,-46,63,-17,-117,-92,-39,53,39,34
24,-9,-34,-7,29,-21,-87,-68,-24,58,24,14
-14,-24,-9,19,-2,-17,-58,-48,0,58,14,4
-34,-24,9,29,-21,-7,-39,-39,4,58,14,4
-34,-29,4,31,-19,-12,-48,-48,0,53,9,-4
-34,-29,4,31,-19,-12,-48,-48,-4,53,9,-4
-39,-43,-4,41,-17,-24,-48,-48,-4,53,4,-9
-39,-48,-9,43,-14,-29,-48,-48,-4,58,0,-14
-39,-48,-9,43,-14,-29,-43,-48,0,58,0,-14
-39,-48,-9,43,-14,-29,-43,-48,0,58,0,-14
-39,-53,-14,46,-12,-34,-48,-48,-4,58,0,-14
-39,-53,-14,46,-12,-34,-53,-48,-4,58,-4,-9
-43,-53,-9,48,-17,-31,-53,-53,-9,58,-4,-9
-43,-58,-14,51,-14,-36,-53,-58,-14,58,-4,-9
-48,-58,-9,53,-19,-34,-48,-48,-14,58,0,-9
-48,-78,-29,63,-9,-53,-29,-19,9,63,0,-19
-58,-87,-29,73,-14,-58,-4,14,39,73,-4,-14
-73,-97,-24,85,-24,-61,4,24,102,107,-14,-24
-131,-97,34,114,-82,-31,4,-14,219,180,-39,-68
-229,-97,131,163,-180,17,24,-48,468,248,-112,-161
-385,-131,253,258,-319,61,97,-39,849,258,-268,-307
-483,-180,302,331,-392,61,273,156,1351,351,-370,-409
-478,-219,258,348,-368,19,497,541,2005,619,-312,-385
-317,-58,258,187,-287,100,507,775,2479,1112,-48,-219
0,400,400,-200,-200,400,239,717,2971,2147,507,131
326,927,600,-627,-136,763,-390,58,1781,1810,868,439
619,1517,897,-1068,-139,1207,-1161,-917,-375,780,1195,761
702,1912,1210,-1307,-253,1561,-1737,-1795,-2259,-941,1058,834
800,2044,1244,-1422,-222,1644,-2054,-2376,-3459,-2376,746,839
956,2020,1063,-1488,-53,1542,-2259,-2674,-4279,-3089,590,941
888,1932,1044,-1410,-78,1488,-2093,-2605,-4421,-3113,507,990
702,1830,1127,-1266,-212,1478,-1976,-2630,-4255,-2918,448,1010
297,1620,1322,-958,-512,1471,-1786,-2464,-3718,-2537,209,780
43,1195,1151,-619,-553,1173,-1220,-1844,-2806,-2000,-58,507
73,673,600,-373,-263,636,-707,-1220,-1908,-1478,-170,346
112,234,122,-173,-4,178,-322,-702,-1224,-1019,-175,273
126,-4,-131,-61,129,-68,-122,-351,-785,-644,-146,161
92,-48,-141,-21,117,-95,-68,-195,-483,-390,-117,78
0,-48,-48,24,24,-48,9,-63,-244,-200,-82,34
-63,-92,-29,78,-17,-61,78,48,-87,-82,-53,4
-63,-122,-58,92,-2,-90,122,92,-58,-43,-48,-9
-63,-122,-58,92,-2,-90,131,102,-39,-19,-48,-34
-63,-122,-58,92,-2,-90,126,102,0,0,-58,-43
-73,-131,-58,102,-7,-95,126,102,19,4,-58,-48
-82,-141,-58,112,-12,-100,136,117,29,24,-53,-48
-82,-151,-68,117,-7,-109,136,122,43,34,-53,-58
-73,-141,-68,107,-2,-104,136,122,48,39,-58,-58
-78,-136,-58,107,-9,-97,136,122,63,43,-63,-58
-78,-136,-58,107,-9,-97,136,126,63,43,-58,-58
-73,-136,-63,104,-4,-100,131,126,63,43,-58,-58
-78,-141,-63,109,-7,-102,131,126,68,48,-58,-58
-78,-141,-63,109,-7,-102,136,126,73,48,-58,-63
-78,-141,-63,109,-7,-102,136,126,78,48,-58,-63
-78,-141,-63,109,-7,-102,131,126,78,48,-58,-58
-78,-141,-63,109,-7,-102,131,126,82,48,-53,-58
-78,-141,-63,109,-7,-102,131,126,82,48,-48,-58
-78,-136,-58,107,-9,-97,126,131,87,48,-48,-58
-78,-136,-58,107,-9,-97,126,131,87,48,-48,-58
-73,-126,-53,100,-9,-90,131,131,87,48,-48,-58
-68,-117,-48,92,-9,-82,136,131,92,48,-48,-58
-68,-126,-58,97,-4,-92,136,131,92,48,-48,-58
-68,-136,-68,102,0,-102,136,136,97,48,-43,-58
-73,-136,-63,104,-4,-100,141,136,97,48,-43,-58
-78,-136,-58,107,-9,-97,141,136,97,48,-48,-58
-73,-131,-58,102,-7,-95,141,141,102,48,-48,-58
-73,-131,-58,102,-7,-95,141,141,102,43,-48,-63
-78,-131,-53,104,-12,-92,146,146,102,43,-48,-63
-78,-126,-48,102,-14,-87,146,146,102,39,-48,-63
-73,-126,-53,100,-9,-90,146,146,102,39,-53,-63
-73,-131,-58,102,-7,-95,151,146,102,34,-58,-63
-73,-131,-58,102,-7,-95,151,146,102,34,-58,-68
-73,-131,-58,102,-7,-95,151,151,102,34,-58,-73
-73,-131,-58,102,-7,-95,151,151,107,24,-63,-73
-73,-131,-58,102,-7,-95,156,156,107,24,-63,-73
-73,-131,-58,102,-7,-95,161,161,107,24,-68,-68
-73,-131,-58,102,-7,-95,161,165,107,19,-68,-63
-73,-131,-58,102,-7,-95,161,165,107,14,-68,-73
-78,-136,-58,107,-9,-97,161,175,107,9,-68,-73
-78,-136,-58,107,-9,-97,165,175,102,4,-68,-73
-78,-146,-68,112,-4,-107,170,175,97,4,-73,-73
-78,-146,-68,112,-4,-107,180,185,97,0,-78,-78
-78,-146,-68,112,-4,-107,180,190,102,-4,-82,-82
-78,-146,-68,112,-4,-107,180,195,102,-4,-92,-87
-78,-151,-73,114,-2,-112,190,204,102,-14,-97,-92
-78,-156,-78,117,0,-117,195,214,107,-14,-92,-92
-82,-161,-78,122,-2,-119,204,219,117,-19,-87,-92
-87,-165,-78,126,-4,-122,209,229,117,-24,-97,-92
-87,-170,-82,129,-2,-126,219,239,122,-29,-107,-107
-92,-165,-73,129,-9,-119,229,248,122,-34,-107,-107
-92,-165,-73,129,-9,-119,239,253,122,-39,-107,-107
-92,-170,-78,131,-7,-124,244,268,122,-39,-122,-112
-92,-175,-82,134,-4,-129,253,283,117,-39,-126,-122
-92,-185,-92,139,0,-139,263,292,122,-53,-136,-126
-92,-195,-102,143,4,-148,273,307,122,-63,-141,-131
-92,-200,-107,146,7,-153,278,317,126,-63,-141,-136
-97,-204,-107,151,4,-156,287,341,126,-78,-151,-141
-107,-219,-112,163,2,-165,297,351,131,-87,-156,-146
-112,-229,-117,170,2,-173,312,375,136,-97,-165,-156
-112,-244,-131,178,9,-187,331,395,136,-107,-175,-161
-112,-258,-146,185,17,-202,346,414,136,-117,-185,-175
-117,-268,-151,192,17,-209,370,439,141,-126,-195,-180
-117,-278,-161,197,21,-219,385,463,146,-146,-204,-190
-122,-292,-170,207,24,-231,409,492,156,-165,-219,-204
-126,-302,-175,214,24,-239,434,522,161,-175,-234,-214
-122,-307,-185,214,31,-246,448,551,170,-185,-244,-224
-122,-322,-200,222,39,-261,468,575,180,-204,-258,-234
-122,-331,-209,226,43,-270,483,595,185,-219,-268,-244
-136,-341,-204,239,34,-273,507,614,204,-234,-278,-253
-136,-351,-214,244,39,-283,517,639,214,-244,-292,-263
-136,-356,-219,246,41,-287,527,653,224,-258,-312,-273
-136,-366,-229,251,46,-297,541,663,229,-263,-317,-283
-136,-380,-244,258,53,-312,551,673,244,-273,-322,-287
-136,-380,-244,258,53,-312,556,688,263,-278,-317,-287
-141,-375,-234,258,46,-305,556,692,278,-278,-317,-287
-141,-375,-234,258,46,-305,556,692,287,-278,-317,-287
-141,-366,-224,253,41,-295,546,683,297,-278,-317,-287
-136,-361,-224,248,43,-292,536,673,307,-273,-317,-292
-126,-351,-224,239,48,-287,517,658,317,-273,-312,-292
-122,-336,-214,229,46,-275,502,639,331,-258,-297,-278
-112,-312,-200,212,43,-256,483,610,336,-248,-287,-268
-112,-297,-185,204,36,-241,453,580,341,-234,-273,-258
-112,-278,-165,195,26,-222,424,546,341,-224,-263,-248
-107,-258,-151,183,21,-204,385,507,336,-214,-248,-239
-97,-239,-141,168,21,-190,356,458,326,-195,-234,-214
-82,-214,-131,148,24,-173,317,419,307,-175,-214,-195
-68,-190,-122,129,26,-156,278,370,283,-165,-200,-180
-63,-161,-97,112,17,-129,239,317,263,-146,-170,-156
-53,-131,-78,92,12,-104,200,263,239,-122,-151,-136
-39,-107,-68,73,14,-87,165,234,214,-107,-131,-112
-39,-92,-53,65,7,-73,136,195,190,-97,-107,-97
-34,-68,-34,51,0,-51,102,146,170,-73,-82,-68
-19,-53,-34,36,7,-43,68,107,151,-53,-58,-58
-19,-43,-24,31,2,-34,53,82,131,-29,-48,-48
-9,-29,-19,19,4,-24,34,58,117,-14,-39,-34
-9,-19,-9,14,0,-14,14,39,107,0,-19,-24
-9,-14,-4,12,-2,-9,0,24,97,9,-9,-14
-9,-4,4,7,-7,0,-9,14,82,19,0,-4
-4,0,4,2,-4,2,-14,-4,73,29,4,0
0,4,4,-2,-2,4,-29,-14,63,34,14,4
0,4,4,-2,-2,4,-34,-29,63,43,19,4
0,9,9,-4,-4,9,-43,-34,53,53,24,9
-4,9,14,-2,-9,12,-43,-34,53,53,24,9
-9,9,19,0,-14,14,-43,-43,48,58,24,9
-9,14,24,-2,-17,19,-43,-48,48,63,29,9
-9,14,24,-2,-17,19,-43,-48,48,63,29,9
-9,14,24,-2,-17,19,-43,-48,43,63,29,9
-9,9,19,0,-14,14,-43,-48,43,68,24,9
-14,9,24,2,-19,17,-43,-48,43,68,19,9
-14,9,24,2,-19,17,-43,-53,43,68,19,9
-14,14,29,0,-21,21,-43,-53,43,73,24,9
-14,19,34,-2,-24,26,-48,-48,43,78,24,9
-14,19,34,-2,-24,26,-48,-48,43,78,24,9
-14,19,34,-2,-24,26,-43,-48,43,82,29,14
-14,19,34,-2,-24,26,-43,-48,43,82,34,14
-14,14,29,0,-21,21,-48,-48,43,87,39,14
-9,9,19,0,-14,14,-48,-48,43,87,39,14
-9,9,19,0,-14,14,-48,-48,43,87,34,14
-9,4,14,2,-12,9,-48,-43,43,92,34,14
-9,4,14,2,-12,9,-48,-43,43,92,34,14
-4,9,14,-2,-9,12,-48,-43,43,87,34,14
-4,9,14,-2,-9,12,-48,-43,43,92,34,14
-9,9,19,0,-14,14,-48,-43,48,92,34,14
-9,14,24,-2,-17,19,-39,-39,48,97,34,19
-9,14,24,-2,-17,19,-48,-39,43,97,39,19
-4,14,19,-4,-12,17,-48,-34,43,97,39,19
-4,14,19,-4,-12,17,-48,-29,43,107,43,19
-4,9,14,-2,-9,12,-43,-29,48,107,43,24
-4,9,14,-2,-9,12,-43,-24,53,112,43,24
-9,9,19,0,-14,14,-48,-29,53,117,48,24
-9,9,19,0,-14,14,-53,-34,48,117,53,24
-4,9,14,-2,-9,12,-53,-34,48,117,53,24
-4,9,14,-2,-9,12,-53,-34,53,117,58,24
-4,9,14,-2,-9,12,-48,-34,58,122,53,24
-4,9,14,-2,-9,12,-43,-34,58,122,48,29
-4,9,14,-2,-9,12,-48,-29,58,122,48,29
-4,9,14,-2,-9,12,-48,-29,58,122,53,29
-4,9,14,-2,-9,12,-53,-29,58,126,58,29
-4,9,14,-2,-9,12,-58,-29,58,126,63,29
-4,9,14,-2,-9,12,-58,-29,58,126,63,24
0,9,9,-4,-4,9,-53,-29,58,126,63,19
0,9,9,-4,-4,9,-53,-29,58,126,63,24
0,9,9,-4,-4,9,-53,-34,58,126,63,24
-4,9,14,-2,-9,12,-58,-34,53,122,63,29
-4,9,14,-2,-9,12,-58,-34,53,122,63,34
-4,9,14,-2,-9,12,-58,-34,48,122,63,34
-4,9,14,-2,-9,12,-58,-34,48,122,63,34
-4,9,14,-2,-9,12,-58,-34,43,117,58,34
-9,9,19,0,-14,14,-58,-39,43,117,58,34
-4,14,19,-4,-12,17,-68,-39,43,117,58,34
-4,14,19,-4,-12,17,-68,-39,39,117,58,34
-4,14,19,-4,-12,17,-63,-39,39,117,58,29
-4,9,14,-2,-9,12,-63,-39,39,112,58,24
-4,9,14,-2,-9,12,-63,-43,34,112,58,24
0,9,9,-4,-4,9,-63,-43,34,112,58,24
0,9,9,-4,-4,9,-63,-48,34,107,53,24
4,9,4,-7,0,7,-68,-53,29,107,48,24
4,14,9,-9,-2,12,-68,-53,24,102,48,24
0,14,14,-7,-7,14,-68,-58,19,102,48,24
0,14,14,-7,-7,14,-68,-58,19,102,53,29
0,14,14,-7,-7,14,-68,-63,14,102,48,29
0,14,14,-7,-7,14,-73,-63,14,102,48,29
-4,9,14,-2,-9,12,-73,-63,14,102,53,29
-4,9,14,-2,-9,12,-68,-63,14,97,48,29
0,9,9,-4,-4,9,-68,-63,14,92,43,29
0,9,9,-4,-4,9,-68,-63,9,92,43,24
-4,9,14,-2,-9,12,-68,-63,9,92,39,24
-9,4,14,2,-12,9,-68,-63,9,92,43,24
-4,9,14,-2,-9,12,-68,-63,9,97,48,24
0,9,9,-4,-4,9,-73,-63,9,92,43,19
0,9,9,-4,-4,9,-78,-68,9,87,39,19
0,9,9,-4,-4,9,-78,-68,9,87,39,19
0,9,9,-4,-4,9,-78,-68,9,87,39,19
0,9,9,-4,-4,9,-78,-68,9,87,39,19
0,9,9,-4,-4,9,-78,-68,9,87,39,19
0,9,9,-4,-4,9,-78,-68,9,87,39,19
0,9,9,-4,-4,9,-78,-68,9,87,39,19
-4,9,14,-2,-9,12,-78,-68,9,87,39,19
-9,9,19,0,-14,14,-78,-68,9,87,39,19
-9,9,19,0,-14,14,-82,-68,9,82,39,19
-9,9,19,0,-14,14,-87,-68,9,78,39,19
-9,9,19,0,-14,14,-87,-68,9,78,39,19
-9,9,19,0,-14,14,-87,-68,9,78,39,19
-9,9,19,0,-14,14,-87,-68,9,78,34,19
-9,9,19,0,-14,14,-87,-68,9,78,29,19
-9,9,19,0,-14,14,-87,-68,9,78,29,19
-9,9,19,0,-14,14,-87,-68,9,78,29,19
-9,9,19,0,-14,14,-87,-68,9,78,34,19
-9,9,19,0,-14,14,-87,-68,9,78,39,19
-14,4,19,4,-17,12,-87,-68,4,73,39,19
-19,0,19,9,-19,9,-87,-68,0,68,39,19
-19,0,19,9,-19,9,-87,-73,0,68,34,19
-19,0,19,9,-19,9,-87,-78,0,68,29,19
-9,0,9,4,-9,4,-87,-78,0,68,29,14
0,0,0,0,0,0,-87,-78,0,68,29,9
0,0,0,0,0,0,-87,-78,0,68,29,9
0,0,0,0,0,0,-87,-78,0,68,29,9
-4,0,4,2,-4,2,-87,-78,0,68,29,9
-9,0,9,4,-9,4,-87,-78,0,68,29,9
-9,0,9,4,-9,4,-87,-78,0,63,24,9
-9,0,9,4,-9,4,-87,-78,0,58,19,9
-9,0,9,4,-9,4,-87,-78,0,58,19,9
-9,0,9,4,-9,4,-87,-78,0,58,19,9
-9,4,14,2,-12,9,-87,-78,0,58,24,9
-9,9,19,0,-14,14,-87,-78,0,58,29,9
-9,9,19,0,-14,14,-87,-78,0,58,29,9
-9,9,19,0,-14,14,-87,-78,0,58,29,9
-9,9,19,0,-14,14,-87,-78,0,58,29,9
-9,9,19,0,-14,14,-87,-78,0,58,29,9
-9,9,19,0,-14,14,-87,-78,-4,53,24,9
-9,9,19,0,-14,14,-87,-78,-9,48,19,9
-9,9,19,0,-14,14,-87,-78,-9,48,19,9
-9,9,19,0,-14,14,-87,-78,-9,48,19,9
-9,9,19,0,-14,14,-87,-78,-9,48,19,9
-9,9,19,0,-14,14,-87,-78,-9,48,19,9
-9,4,14,2,-12,9,-92,-78,-9,48,19,9
-9,0,9,4,-9,4,-97,-78,-9,48,19,9
-4,0,4,2,-4,2,-97,-82,-9,43,14,9
0,0,0,0,0,0,-97,-87,-9,39,9,9
0,0,0,0,0,0,-97,-87,-9,39,9,9
0,0,0,0,0,0,-97,-87,-9,39,9,9
0,0,0,0,0,0,-97,-87,-9,39,9,9
0,0,0,0,0,0,-97,-87,-9,39,9,9
-9,0,9,4,-9,4,-97,-87,-9,43,14,9
-19,0,19,9,-19,9,-97,-87,-9,48,19,9
-19,0,19,9,-19,9,-97,-87,-9,48,19,9
-19,0,19,9,-19,9,-97,-87,-9,48,19,9
-14,0,14,7,-14,7,-97,-87,-9,48,19,9
-9,0,9,4,-9,4,-97,-87,-9,48,19,9
-9,0,9,4,-9,4,-97,-87,-9,48,19,9
-9,0,9,4,-9,4,-97,-87,-9,48,19,9
-9,0,9,4,-9,4,-97,-87,-9,48,19,9
-9,0,9,4,-9,4,-97,-87,-9,48,19,9
-9,0,9,4,-9,4,-97,-87,-9,48,19,9
-9,0,9,4,-9,4,-97,-87,-9,48,19,9
-9,0,9,4,-9,4,-97,-87,-9,48,19,9
-9,0,9,4,-9,4,-97,-87,-9,48,19,9
-9,0,9,4,-9,4,-97,-87,-9,48,19,9
-9,0,9,4,-9,4,-97,-87,-9,48,19,9
-9,0,9,4,-9,4,-97,-87,-9,48,19,4
-9,0,9,4,-9,4,-97,-87,-9,48,19,0
-9,0,9,4,-9,4,-97,-87,-9,43,14,0
-9,0,9,4,-9,4,-97,-87,-9,39,9,0
-9,0,9,4,-9,4,-97,-87,-9,39,9,0
-9,0,9,4,-9,4,-97,-87,-9,39,9,0
-9,0,9,4,-9,4,-97,-87,-9,39,9,0
-9,0,9,4,-9,4,-97,-87,-9,39,9,0
-9,0,9,4,-9,4,-97,-87,-9,39,4,0
-9,0,9,4,-9,4,-97,-87,-9,39,0,0
0,-4,-4,2,2,-4,-97,-87,-9,39,0,0
9,-9,-19,0,14,-14,-97,-87,-9,39,0,0
0,-9,-9,4,4,-9,-97,-87,-4,43,9,4
-9,-9,0,9,-4,-4,-97,-87,0,48,19,9
-9,-4,4,7,-7,0,-97,-87,0,48,19,9
-9,0,9,4,-9,4,-97,-87,0,48,19,9
-9,0,9,4,-9,4,-97,-87,0,48,19,9
-9,0,9,4,-9,4,-97,-87,0,48,19,9
-9,0,9,4,-9,4,-97,-87,0,48,19,9
-9,0,9,4,-9,4,-97,-87,0,48,19,9
-9,-4,4,7,-7,0,-97,-87,0,48,19,4
-9,-9,0,9,-4,-4,-97,-87,0,48,19,0
-9,-9,0,9,-4,-4,-92,-87,0,48,19,0
-9,-9,0,9,-4,-4,-87,-87,0,48,19,0
-9,-9,0,9,-4,-4,-87,-87,0,48,19,0
-9,-9,0,9,-4,-4,-87,-87,0,48,19,0
-9,-9,0,9,-4,-4,-87,-87,0,48,19,0
-9,-9,0,9,-4,-4,-87,-87,0,48,19,0
-9,-9,0,9,-4,-4,-87,-87,0,48,19,0
-9,-9,0,9,-4,-4,-87,-87,0,48,19,0
-9,-9,0,9,-4,-4,-87,-87,-4,48,19,0
-9,-9,0,9,-4,-4,-87,-87,-9,48,19,0
-9,-9,0,9,-4,-4,-87,-87,-9,48,19,0
-9,-9,0,9,-4,-4,-87,-87,-9,48,19,0
-9,-9,0,9,-4,-4,-82,-87,-9,48,19,0
-9,-9,0,9,-4,-4,-78,-87,-9,48,19,0
-9,-9,0,9,-4,-4,-78,-87,-9,48,19,0
-9,-9,0,9,-4,-4,-78,-87,-9,48,19,0
-9,-9,0,9,-4,-4,-78,-87,-4,48,19,0
-9,-9,0,9,-4,-4,-78,-87,0,48,19,0
-9,-9,0,9,-4,-4,-78,-82,0,48,19,0
-9,-9,0,9,-4,-4,-78,-78,0,48,19,0
-9,-9,0,9,-4,-4,-78,-78,0,48,19,0
-9,-9,0,9,-4,-4,-78,-78,0,48,19,0
-9,-9,0,9,-4,-4,-78,-78,-4,48,14,0
-9,-9,0,9,-4,-4,-78,-78,-9,48,9,0
-9,-9,0,9,-4,-4,-78,-78,-9,48,9,0
-9,-9,0,9,-4,-4,-78,-78,-9,48,9,0
-9,-4,4,7,-7,0,-78,-78,-4,53,14,0
-9,0,9,4,-9,4,-78,-78,0,58,19,0
-4,0,4,2,-4,2,-78,-78,4,58,19,0
0,0,0,0,0,0,-78,-78,9,58,19,0
9,0,-9,-4,9,-4,-78,-78,9,58,19,0
14,9,-4,-12,9,2,-78,-73,4,58,19,4
24,19,-4,-21,14,7,-78,-73,4,63,24,9
34,34,0,-34,17,17,-92,-73,0,58,24,9
43,29,-14,-36,29,7,-102,-82,-9,58,29,9
43,19,-24,-31,34,-2,-102,-82,-9,58,29,9
34,34,0,-34,17,17,-97,-78,-4,63,29,9
29,53,24,-41,2,39,-92,-78,19,73,34,19
43,107,63,-75,-9,85,-102,-87,34,87,53,34
63,156,92,-109,-14,124,-112,-97,53,112,73,53
87,209,122,-148,-17,165,-136,-102,63,136,97,73
102,239,136,-170,-17,187,-136,-102,78,151,112,92
112,224,112,-168,0,168,-122,-63,87,161,117,97
117,190,73,-153,21,131,-97,-29,97,161,126,102
117,165,48,-141,34,107,-87,-14,102,161,126,102
112,151,39,-131,36,95,-97,-34,102,156,122,102
112,136,24,-124,43,80,-122,-73,58,131,97,92
107,117,9,-112,48,63,-151,-122,24,102,97,92
107,102,-4,-104,56,48,-156,-136,9,97,92,87
112,73,-39,-92,75,17,-156,-141,-19,78,73,78
117,48,-68,-82,92,-9,-156,-136,-39,58,63,68
102,29,-73,-65,87,-21,-156,-136,-48,39,43,53
73,14,-58,-43,65,-21,-136,-131,-48,39,29,34
24,-19,-43,-2,34,-31,-107,-107,-34,48,14,14
-4,-34,-29,19,12,-31,-82,-87,-14,48,4,0
-14,-34,-19,24,2,-26,-68,-78,-14,48,4,-4
-14,-39,-24,26,4,-31,-78,-87,-19,43,0,-14
-14,-39,-24,26,4,-31,-78,-87,-24,43,0,-14
-24,-48,-24,36,0,-36,-73,-87,-24,43,4,-14
-29,-48,-19,39,-4,-34,-68,-87,-24,48,9,-14
-34,-48,-14,41,-9,-31,-63,-87,-19,48,9,-9
-39,-48,-9,43,-14,-29,-63,-87,-19,48,9,-4
-39,-53,-14,46,-12,-34,-58,-87,-24,48,9,-9
-39,-53,-14,46,-12,-34,-53,-87,-24,48,4,-9
-39,-53,-14,46,-12,-34,-53,-87,-24,48,4,-9
-34,-58,-24,46,-4,-41,-53,-87,-24,48,4,-9
-39,-53,-14,46,-12,-34,-48,-78,-29,43,4,-4
-39,-68,-29,53,-4,-48,-29,-48,-9,43,0,-9
-43,-78,-34,61,-4,-56,-4,-14,19,63,-9,-14
-53,-87,-34,70,-9,-61,4,-4,82,107,-24,-34
-117,-87,29,102,-73,-29,0,-43,195,180,-43,-73
-219,-87,131,153,-175,21,14,-78,439,248,-112,-161
-390,-122,268,256,-329,73,92,-58,824,278,-263,-312
-502,-170,331,336,-417,80,273,146,1332,390,-361,-419
-483,-214,268,348,-375,26,488,517,1976,649,-312,-395
-307,-58,248,183,-278,95,488,736,2440,1132,-58,-229
14,395,380,-204,-183,387,224,688,2991,2171,502,131
346,917,570,-631,-112,744,-400,39,1859,1839,868,448
653,1503,849,-1078,-97,1176,-1176,-946,-263,858,1210,780
751,1893,1141,-1322,-195,1517,-1756,-1834,-2113,-814,1088,863
839,2030,1190,-1434,-175,1610,-2059,-2410,-3328,-2278,766,868
985,2010,1024,-1498,-19,1517,-2249,-2703,-4162,-3020,600,971
917,1937,1019,-1427,-51,1478,-2093,-2644,-4352,-3069,497,1010
732,1849,1117,-1290,-192,1483,-1986,-2679,-4235,-2898,419,1019
312,1649,1337,-980,-512,1493,-1800,-2513,-3713,-2522,195,790
43,1234,1190,-639,-573,1212,-1239,-1893,-2815,-1991,-58,517
73,692,619,-383,-273,656,-717,-1259,-1917,-1473,-175,351
112,234,122,-173,-4,178,-322,-732,-1234,-1019,-185,273
122,0,-122,-61,122,-61,-122,-375,-795,-649,-156,161
82,-39,-122,-21,102,-80,-68,-214,-492,-400,-126,78
4,-39,-43,17,24,-41,9,-82,-258,-204,-92,24
-43,-82,-39,63,-2,-61,78,29,-107,-82,-63,-14
-58,-122,-63,90,2,-92,126,73,-68,-43,-53,-24
-73,-131,-58,102,-7,-95,141,82,-39,-19,-48,-43
-73,-131,-58,102,-7,-95,136,87,-4,0,-58,-48
-82,-141,-58,112,-12,-100,136,92,9,4,-58,-48
-78,-141,-63,109,-7,-102,146,102,14,19,-58,-48
-63,-141,-78,102,7,-109,146,102,24,24,-63,-58
-63,-141,-78,102,7,-109,146,102,29,34,-63,-63
-78,-146,-68,112,-4,-107,146,102,43,43,-63,-68
-78,-146,-68,112,-4,-107,146,107,43,43,-58,-68
-73,-146,-73,109,0,-109,141,107,43,43,-58,-68
-73,-146,-73,109,0,-109,141,107,48,48,-53,-63
-68,-141,-73,104,2,-107,146,107,53,48,-48,-63
-68,-141,-73,104,2,-107,146,107,63,48,-48,-63
-68,-141,-73,104,2,-107,141,107,68,48,-48,-58
-68,-141,-73,104,2,-107,141,107,73,48,-53,-63
-68,-141,-73,104,2,-107,141,107,73,48,-58,-68
-68,-136,-68,102,0,-102,136,112,78,48,-58,-68
-68,-136,-68,102,0,-102,136,112,78,48,-58,-68
-68,-136,-68,102,0,-102,141,117,78,48,-58,-63
-68,-136,-68,102,0,-102,146,122,82,48,-58,-58
-68,-136,-68,102,0,-102,146,122,82,48,-58,-58
-68,-136,-68,102,0,-102,146,126,87,48,-53,-58
-68,-136,-68,102,0,-102,151,126,87,48,-53,-58
-68,-136,-68,102,0,-102,151,126,87,48,-58,-58
-63,-131,-68,97,2,-100,151,131,92,48,-58,-63
-63,-131,-68,97,2,-100,151,131,92,43,-58,-73
-68,-131,-63,100,-2,-97,161,136,92,43,-58,-73
-68,-126,-58,97,-4,-92,165,136,92,39,-58,-73
-68,-126,-58,97,-4,-92,165,136,92,39,-58,-68
-73,-131,-58,102,-7,-95,170,136,92,34,-58,-63
-73,-136,-63,104,-4,-100,170,141,92,34,-53,-63
-73,-141,-68,107,-2,-104,170,151,92,34,-48,-63
-68,-141,-73,104,2,-107,170,151,97,24,-53,-68
-63,-141,-78,102,7,-109,175,156,97,24,-53,-73
-63,-141,-78,102,7,-109,180,156,97,24,-63,-73
-63,-141,-78,102,7,-109,180,156,97,19,-68,-73
-63,-141,-78,102,7,-109,180,156,97,14,-68,-82
-68,-146,-78,107,4,-112,180,165,97,9,-68,-82
-68,-136,-68,102,0,-102,185,170,97,9,-63,-78
-68,-136,-68,102,0,-102,190,175,97,14,-63,-73
-68,-146,-78,107,4,-112,200,185,97,9,-68,-78
-68,-156,-87,112,9,-122,200,190,102,4,-73,-82
-68,-156,-87,112,9,-122,200,190,102,0,-82,-87
-68,-161,-92,114,12,-126,209,195,102,-14,-87,-92
-68,-161,-92,114,12,-126,214,204,102,-14,-92,-92
-73,-161,-87,117,7,-124,224,209,107,-19,-97,-92
-78,-165,-87,122,4,-126,224,219,107,-24,-107,-92
-78,-170,-92,124,7,-131,229,229,112,-29,-117,-107
-82,-170,-87,126,2,-129,239,239,112,-34,-112,-107
-82,-175,-92,129,4,-134,248,244,112,-39,-107,-107
-82,-180,-97,131,7,-139,253,258,117,-39,-117,-107
-82,-185,-102,134,9,-143,263,273,117,-39,-117,-112
-82,-195,-112,139,14,-153,273,283,126,-48,-126,-117
-82,-204,-122,143,19,-163,283,297,131,-53,-131,-122
-82,-209,-126,146,21,-168,292,307,136,-53,-136,-131
-87,-214,-126,151,19,-170,307,331,136,-68,-151,-141
-97,-224,-126,161,14,-175,312,336,136,-78,-156,-146
-102,-229,-126,165,12,-178,322,356,136,-87,-165,-156
-102,-244,-141,173,19,-192,341,375,141,-97,-175,-161
-102,-258,-156,180,26,-207,356,395,146,-107,-185,-175
-107,-268,-161,187,26,-214,380,419,156,-117,-195,-180
-107,-278,-170,192,31,-224,395,444,165,-136,-204,-190
-112,-292,-180,202,34,-236,414,468,175,-156,-219,-204
-117,-302,-185,209,34,-244,434,492,180,-165,-234,-214
-117,-307,-190,212,36,-248,448,517,190,-175,-244,-224
-122,-322,-200,222,39,-261,468,536,200,-195,-258,-234
-122,-331,-209,226,43,-270,478,556,204,-209,-268,-244
-136,-341,-204,239,34,-273,497,575,224,-224,-278,-253
-136,-351,-214,244,39,-283,507,595,234,-234,-292,-263
-136,-356,-219,246,41,-287,517,605,244,-248,-312,-273
-136,-356,-219,246,41,-287,527,614,248,-253,-317,-287
-136,-361,-224,248,43,-292,531,624,263,-263,-322,-297
-131,-361,-229,246,48,-295,536,634,283,-268,-322,-297
-131,-356,-224,244,46,-290,536,634,297,-268,-326,-297
-136,-356,-219,246,41,-287,541,639,307,-268,-331,-297
-141,-346,-204,244,31,-275,536,634,317,-268,-336,-297
-141,-346,-204,244,31,-275,527,624,326,-268,-336,-302
-136,-341,-204,239,34,-273,507,610,336,-273,-331,-302
-126,-326,-200,226,36,-263,492,595,346,-258,-317,-287
-112,-302,-190,207,39,-246,473,570,346,-248,-307,-278
-107,-287,-180,197,36,-234,448,541,351,-234,-292,-268
-102,-268,-165,185,31,-217,424,507,351,-224,-283,-258
-97,-244,-146,170,24,-195,385,468,346,-214,-268,-248
-87,-219,-131,153,21,-175,356,419,336,-195,-253,-224
-78,-195,-117,136,19,-156,317,380,317,-175,-229,-204
-68,-170,-102,119,17,-136,278,331,292,-165,-209,-190
-63,-151,-87,107,12,-119,244,287,273,-146,-180,-161
-53,-131,-78,92,12,-104,209,244,248,-122,-161,-136
-39,-107,-68,73,14,-87,175,214,229,-102,-141,-112
-39,-92,-53,65,7,-73,146,175,209,-87,-117,-97
-34,-68,-34,51,0,-51,117,136,185,-63,-92,-73
-19,-53,-34,36,7,-43,87,107,161,-43,-68,-68
-19,-48,-29,34,4,-39,73,78,136,-24,-58,-58
-9,-39,-29,24,9,-34,53,48,117,-14,-48,-43
-9,-29,-19,19,4,-24,34,29,107,4,-24,-34
-9,-24,-14,17,2,-19,19,14,97,19,-9,-24
-9,-14,-4,12,-2,-9,9,4,82,29,0,-9
-4,-9,-4,7,0,-7,4,-14,73,39,4,0
0,0,0,0,0,0,-4,-19,58,39,14,4
0,4,4,-2,-2,4,-4,-29,53,43,19,4
0,9,9,-4,-4,9,-14,-34,43,53,24,9
-4,9,14,-2,-9,12,-14,-34,43,53,24,9
-4,4,9,0,-7,7,-14,-39,39,58,24,9
0,4,4,-2,-2,4,-14,-39,39,63,29,9
0,4,4,-2,-2,4,-14,-39,39,68,34,14
0,4,4,-2,-2,4,-14,-39,34,73,39,19
0,0,0,0,0,0,-14,-39,34,78,39,19
-4,0,4,2,-4,2,-14,-39,34,78,39,19
-4,-4,0,4,-2,-2,-14,-43,34,78,34,19
-4,-4,0,4,-2,-2,-14,-43,34,82,34,19
-4,0,4,2,-4,2,-19,-39,34,87,34,19
-4,0,4,2,-4,2,-19,-39,34,87,34,19
-9,0,9,4,-9,4,-9,-39,34,92,34,19
-14,0,14,7,-14,7,-4,-39,34,92,34,14
-14,0,14,7,-14,7,-9,-39,34,97,39,14
-9,0,9,4,-9,4,-9,-39,34,97,39,14
4,0,-4,-2,4,-2,-14,-39,34,97,39,14
19,-4,-24,-7,21,-14,-19,-34,34,102,43,14
9,-4,-14,-2,12,-9,-19,-34,34,107,43,14
4,0,-4,-2,4,-2,-19,-34,34,107,43,14
4,0,-4,-2,4,-2,-19,-34,39,112,48,19
0,0,0,0,0,0,-19,-34,48,112,53,24
0,4,4,-2,-2,4,-9,-29,53,117,53,29
0,4,4,-2,-2,4,-19,-29,53,117,58,29
4,4,0,-4,2,2,-19,-29,48,117,58,29
4,4,0,-4,2,2,-19,-29,43,126,63,29
9,0,-9,-4,9,-4,-14,-29,48,126,63,34
14,0,-14,-7,14,-7,-14,-24,53,131,63,34
9,0,-9,-4,9,-4,-14,-24,53,136,63,29
9,0,-9,-4,9,-4,-14,-24,48,136,63,24
9,0,-9,-4,9,-4,-14,-24,48,136,63,24
4,0,-4,-2,4,-2,-14,-24,53,136,68,24
4,0,-4,-2,4,-2,-14,-24,53,141,68,29
4,0,-4,-2,4,-2,-14,-24,48,141,68,39
9,-4,-14,-2,12,-9,-14,-19,48,136,63,39
14,-9,-24,-2,19,-17,-9,-19,48,131,63,39
14,-9,-24,-2,19,-17,-9,-19,48,136,63,34
14,-9,-24,-2,19,-17,-9,-19,48,136,63,29
14,-9,-24,-2,19,-17,-9,-19,48,141,63,29
19,-9,-29,-4,24,-19,-4,-19,48,146,63,29
14,-9,-24,-2,19,-17,-4,-19,48,146,63,34
9,-9,-19,0,14,-14,-4,-24,48,146,63,34
4,-9,-14,2,9,-12,-9,-24,43,141,63,34
4,-9,-14,2,9,-12,-9,-24,43,141,63,34
4,-9,-14,2,9,-12,-9,-24,39,141,68,34
4,-9,-14,2,9,-12,-9,-24,39,141,73,34
9,-9,-19,0,14,-14,-9,-24,34,136,68,39
9,-9,-19,0,14,-14,-9,-29,34,136,68,43
14,-4,-19,-4,17,-12,-19,-24,34,136,68,43
14,-4,-19,-4,17,-12,-19,-19,29,136,68,43
9,-4,-14,-2,12,-9,-14,-19,29,136,68,43
4,-9,-14,2,9,-12,-14,-19,29,131,68,43
4,-9,-14,2,9,-12,-14,-29,24,131,68,43
9,-9,-19,0,14,-14,-14,-34,24,131,68,43
9,-9,-19,0,14,-14,-14,-34,24,126,68,43
14,-9,-24,-2,19,-17,-19,-34,19,126,68,43
14,0,-14,-7,14,-7,-19,-34,19,122,68,43
9,4,-4,-7,7,0,-19,-39,19,122,68,43
9,4,-4,-7,7,0,-19,-39,14,117,68,43
9,4,-4,-7,7,0,-19,-43,4,112,58,39
9,4,-4,-7,7,0,-24,-43,4,112,53,39
4,0,-4,-2,4,-2,-24,-43,4,112,53,39
4,0,-4,-2,4,-2,-19,-39,9,112,53,39
9,0,-9,-4,9,-4,-19,-34,14,112,53,39
9,-4,-14,-2,12,-9,-19,-34,9,112,53,34
4,-9,-14,2,9,-12,-19,-34,9,112,48,34
0,-14,-14,7,7,-14,-19,-34,9,107,53,34
4,-9,-14,2,9,-12,-19,-34,9,107,58,34
4,-4,-9,0,7,-7,-19,-34,4,102,58,29
9,0,-9,-4,9,-4,-19,-39,0,97,58,29
4,0,-4,-2,4,-2,-19,-39,0,97,58,29
0,0,0,0,0,0,-19,-39,0,97,58,29
0,0,0,0,0,0,-19,-39,0,97,58,29
0,0,0,0,0,0,-19,-39,0,97,58,29
0,0,0,0,0,0,-24,-39,0,92,58,29
0,0,0,0,0,0,-29,-39,0,87,58,29
0,0,0,0,0,0,-29,-39,0,87,53,24
0,0,0,0,0,0,-29,-39,0,87,48,19
0,0,0,0,0,0,-29,-39,0,87,48,19
0,0,0,0,0,0,-29,-39,0,87,48,19
0,0,0,0,0,0,-24,-39,0,87,48,24
0,0,0,0,0,0,-19,-39,0,87,48,29
0,-4,-4,2,2,-4,-19,-39,0,82,48,29
0,-9,-9,4,4,-9,-19,-39,0,78,48,29
0,-9,-9,4,4,-9,-19,-39,0,78,48,29
0,-9,-9,4,4,-9,-19,-39,0,78,48,29
0,-9,-9,4,4,-9,-19,-39,0,78,48,24
0,-9,-9,4,4,-9,-19,-39,0,78,48,19
0,-9,-9,4,4,-9,-19,-39,0,78,48,19
0,-9,-9,4,4,-9,-19,-39,0,78,48,19
0,-9,-9,4,4,-9,-19,-39,0,78,48,19
0,-9,-9,4,4,-9,-19,-39,0,78,48,19
0,-9,-9,4,4,-9,-19,-39,0,78,48,19
0,-9,-9,4,4,-9,-19,-39,0,78,48,19
0,-9,-9,4,4,-9,-19,-43,-4,78,48,19
0,-9,-9,4,4,-9,-19,-48,-9,78,48,19
0,-14,-14,7,7,-14,-19,-48,-9,78,43,19
0,-19,-19,9,9,-19,-19,-48,-9,78,39,19
-4,-19,-14,12,4,-17,-19,-43,-9,73,39,19
-9,-19,-9,14,0,-14,-19,-39,-9,68,39,19
-9,-19,-9,14,0,-14,-19,-39,-9,68,34,19
-9,-19,-9,14,0,-14,-19,-39,-9,68,29,19
-4,-19,-14,12,4,-17,-19,-39,-9,68,29,19
0,-19,-19,9,9,-19,-19,-39,-9,68,29,19
0,-19,-19,9,9,-19,-14,-34,-9,68,34,19
0,-19,-19,9,9,-19,-9,-29,-9,68,39,19
-4,-19,-14,12,4,-17,-9,-29,-9,68,39,19
-9,-19,-9,14,0,-14,-9,-29,-9,68,39,19
-9,-19,-9,14,0,-14,-9,-29,-9,68,39,19
-9,-19,-9,14,0,-14,-9,-29,-9,68,39,19
-4,-19,-14,12,4,-17,-9,-29,-9,68,39,19
0,-19,-19,9,9,-19,-9,-29,-9,68,39,19
0,-19,-19,9,9,-19,-9,-29,-9,68,39,19
0,-19,-19,9,9,-19,-9,-29,-9,68,39,19
-4,-19,-14,12,4,-17,-14,-34,-9,68,34,19
-9,-19,-9,14,0,-14,-19,-39,-9,68,29,19
-9,-19,-9,14,0,-14,-19,-39,-9,68,29,19
-9,-19,-9,14,0,-14,-19,-39,-9,68,29,19
-9,-19,-9,14,0,-14,-19,-34,-9,68,29,19
-9,-19,-9,14,0,-14,-19,-29,-9,68,29,19
-9,-19,-9,14,0,-14,-19,-29,-9,68,29,14
-9,-19,-9,14,0,-14,-19,-29,-9,68,29,9
-9,-19,-9,14,0,-14,-24,-34,-9,63,29,9
-9,-19,-9,14,0,-14,-29,-39,-9,58,29,9
-4,-19,-14,12,4,-17,-29,-39,-9,58,29,14
0,-19,-19,9,9,-19,-29,-39,-9,58,29,19
0,-19,-19,9,9,-19,-24,-39,-9,58,29,19
0,-19,-19,9,9,-19,-19,-39,-9,58,29,19
0,-19,-19,9,9,-19,-19,-39,-9,58,29,19
0,-19,-19,9,9,-19,-19,-39,-9,58,29,19
0,-19,-19,9,9,-19,-19,-39,-9,58,24,19
0,-19,-19,9,9,-19,-19,-39,-9,58,19,19
0,-19,-19,9,9,-19,-19,-39,-9,58,19,19
0,-19,-19,9,9,-19,-19,-39,-9,58,19,19
0,-19,-19,9,9,-19,-19,-39,-14,58,24,19
0,-19,-19,9,9,-19,-19,-39,-19,58,29,19
0,-19,-19,9,9,-19,-19,-39,-19,58,29,19
0,-19,-19,9,9,-19,-19,-39,-19,58,29,19
0,-19,-19,9,9,-19,-19,-39,-19,58,29,19
0,-19,-19,9,9,-19,-19,-39,-19,58,29,19
0,-19,-19,9,9,-19,-19,-34,-19,58,29,19
0,-19,-19,9,9,-19,-19,-29,-19,58,29,19
0,-19,-19,9,9,-19,-19,-29,-19,58,29,14
0,-19,-19,9,9,-19,-19,-29,-19,58,29,9
-4,-19,-14,12,4,-17,-19,-29,-19,58,24,9
-9,-19,-9,14,0,-14,-19,-29,-19,58,19,9
-9,-19,-9,14,0,-14,-14,-29,-19,53,19,9
-9,-19,-9,14,0,-14,-9,-29,-19,48,19,9
0,-24,-24,12,12,-24,-9,-29,-19,48,19,9
9,-29,-39,9,24,-34,-9,-29,-19,48,19,9
0,-29,-29,14,14,-29,-9,-29,-19,53,19,9
-9,-29,-19,19,4,-24,-9,-29,-19,58,19,9
-9,-29,-19,19,4,-24,-14,-29,-19,58,19,9
-9,-29,-19,19,4,-24,-19,-29,-19,58,19,9
-9,-24,-14,17,2,-19,-19,-29,-19,53,19,9
-9,-19,-9,14,0,-14,-19,-29,-19,48,19,9
-9,-19,-9,14,0,-14,-19,-29,-14,48,19,9
-9,-19,-9,14,0,-14,-19,-29,-9,48,19,9
-4,-19,-14,12,4,-17,-19,-29,-9,58,24,9
0,-19,-19,9,9,-19,-19,-29,-9,68,29,9
4,-14,-19,4,12,-17,-19,-29,-9,68,29,9
9,-9,-19,0,14,-14,-19,-24,-9,68,29,9
19,-4,-24,-7,21,-14,-19,-24,-9,73,29,9
24,0,-24,-12,24,-12,-19,-24,-14,73,34,19
34,4,-29,-19,31,-12,-34,-24,-19,68,34,19
43,9,-34,-26,39,-12,-43,-34,-29,68,39,19
43,9,-34,-26,39,-12,-48,-34,-29,68,39,19
39,24,-14,-31,26,4,-53,-34,-24,73,39,19
39,43,4,-41,17,24,-53,-39,0,82,43,29
53,97,43,-75,4,70,-63,-48,14,97,63,43
68,146,78,-107,-4,112,-73,-58,39,122,82,63
82,195,112,-139,-14,153,-97,-63,58,146,107,82
92,219,126,-156,-17,173,-92,-63,78,156,122,102
102,204,102,-153,0,153,-73,-24,87,161,122,102
117,170,53,-143,31,112,-48,9,97,161,126,102
126,141,14,-134,56,78,-39,24,97,161,126,102
112,122,9,-117,51,65,-43,9,97,165,126,107
102,107,4,-104,48,56,-63,-24,58,151,107,102
97,87,-9,-92,53,39,-92,-73,24,122,107,102
97,73,-24,-85,61,24,-97,-82,9,117,102,97
102,43,-58,-73,80,-7,-102,-82,-24,92,82,87
102,24,-78,-63,90,-26,-102,-78,-43,68,73,78
82,9,-73,-46,78,-31,-97,-78,-48,48,53,58
53,0,-53,-26,53,-26,-78,-73,-48,48,43,34
4,-29,-34,12,19,-31,-48,-48,-34,58,34,14
-24,-43,-19,34,-2,-31,-24,-29,-14,58,24,4
-34,-43,-9,39,-12,-26,-9,-24,-14,58,24,4
-34,-48,-14,41,-9,-31,-19,-39,-19,53,19,-4
-34,-48,-14,41,-9,-31,-19,-39,-24,48,19,-4
-39,-58,-19,48,-9,-39,-19,-39,-24,43,19,-4
-39,-58,-19,48,-9,-39,-19,-39,-24,48,19,-4
-39,-58,-19,48,-9,-39,-14,-39,-19,48,19,-4
-34,-58,-24,46,-4,-41,-19,-39,-24,48,19,-4
-29,-63,-34,46,2,-48,-24,-39,-34,48,19,-9
-29,-63,-34,46,2,-48,-24,-43,-34,48,9,-9
-34,-63,-29,48,-2,-46,-24,-48,-34,48,4,-9
-34,-68,-34,51,0,-51,-24,-48,-34,48,4,-4
-39,-68,-29,53,-4,-48,-19,-39,-29,48,4,0
-34,-87,-53,61,9,-70,-4,-4,-19,43,9,-9
-48,-97,-48,73,0,-73,14,24,14,53,4,-19
-53,-107,-53,80,0,-80,24,24,39,92,0,-24
-107,-107,0,107,-53,-53,34,0,146,161,-24,-58
-219,-97,122,158,-170,12,14,-82,356,204,-122,-161
-346,-112,234,229,-290,61,53,-82,683,253,-239,-273
-488,-204,283,346,-385,39,287,146,1244,322,-390,-419
-492,-209,283,351,-387,36,453,400,1800,575,-346,-414
-317,-68,248,192,-283,90,541,775,2610,1376,-29,-224
-63,302,366,-119,-214,334,366,810,3128,2244,439,82
283,902,619,-592,-168,761,-336,107,1737,1786,873,424
556,1459,902,-1007,-173,1180,-995,-668,19,980,1215,741
585,1883,1298,-1234,-356,1590,-1590,-1625,-1986,-1083,971,766
658,2074,1415,-1366,-378,1744,-1922,-2205,-3284,-2513,707,771
878,2010,1132,-1444,-126,1571,-2108,-2430,-4094,-3118,590,907
844,1903,1058,-1373,-107,1481,-1986,-2386,-4328,-3220,488,941
639,1820,1180,-1229,-270,1500,-1917,-2493,-4221,-2976,453,995
341,1615,1273,-978,-466,1444,-1766,-2391,-3825,-2635,278,849
82,1137,1054,-610,-485,1095,-1127,-1688,-2830,-2078,-48,531
34,668,634,-351,-300,651,-673,-1161,-2000,-1590,-204,346
102,190,87,-146,7,139,-312,-673,-1312,-1098,-175,292
131,-82,-214,-24,173,-148,-87,-307,-819,-697,-146,190
82,-68,-151,-7,117,-109,-63,-195,-522,-439,-112,97
4,-68,-73,31,39,-70,19,-68,-268,-219,-78,34
-53,-117,-63,85,4,-90,97,53,-112,-92,-53,4
-63,-151,-87,107,12,-119,141,112,-48,-34,-48,-4
-63,-151,-87,107,12,-119,146,112,-29,-14,-48,-29
-63,-151,-87,107,12,-119,146,112,4,9,-58,-39
-78,-165,-87,122,4,-126,146,117,19,14,-53,-39
-82,-170,-87,126,2,-129,156,131,24,29,-43,-39
-73,-170,-97,122,12,-134,156,131,34,34,-43,-48
-73,-170,-97,122,12,-134,156,131,39,39,-43,-48
-87,-175,-87,131,0,-131,156,131,58,48,-43,-53
-87,-175,-87,131,0,-131,156,136,63,53,-39,-58
-82,-175,-92,129,4,-134,151,136,63,53,-39,-58
-82,-175,-92,129,4,-134,151,136,68,58,-39,-58
-78,-170,-92,124,7,-131,156,136,73,58,-43,-63
-78,-170,-92,124,7,-131,156,136,78,58,-48,-63
-78,-170,-92,124,7,-131,151,136,73,53,-48,-58
-78,-170,-92,124,7,-131,151,136,73,48,-48,-58
-78,-170,-92,124,7,-131,151,131,73,48,-48,-58
-78,-165,-87,122,4,-126,146,131,78,48,-48,-58
-78,-165,-87,122,4,-126,146,131,78,48,-48,-58
-78,-165,-87,122,4,-126,151,131,78,48,-48,-58
-78,-165,-87,122,4,-126,156,136,82,48,-48,-58
-78,-165,-87,122,4,-126,156,141,82,48,-48,-58
-78,-161,-82,119,2,-122,156,146,87,48,-43,-53
-78,-156,-78,117,0,-117,161,146,87,48,-43,-48
-73,-156,-82,114,4,-119,161,146,87,48,-48,-48
-63,-151,-87,107,12,-119,161,151,92,48,-48,-48
-63,-151,-87,107,12,-119,161,146,92,43,-48,-58
-68,-151,-82,109,7,-117,165,146,92,43,-48,-63
-68,-146,-78,107,4,-112,165,146,92,39,-48,-63
-63,-146,-82,104,9,-114,165,146,92,39,-48,-63
-68,-151,-82,109,7,-117,170,151,92,34,-48,-63
-73,-151,-78,112,2,-114,170,156,92,34,-48,-63
-73,-151,-78,112,2,-114,170,161,92,34,-48,-63
-73,-151,-78,112,2,-114,170,161,97,24,-53,-63
-68,-151,-82,109,7,-117,175,161,97,24,-53,-63
-63,-151,-87,107,12,-119,180,161,97,24,-58,-63
-63,-151,-87,107,12,-119,180,165,97,19,-58,-63
-63,-151,-87,107,12,-119,180,165,97,14,-58,-73
-73,-156,-82,114,4,-119,180,180,102,9,-58,-73
-78,-156,-78,117,0,-117,185,185,107,4,-58,-73
-78,-165,-87,122,4,-126,190,185,107,4,-58,-68
-78,-165,-87,122,4,-126,200,195,107,0,-58,-68
-78,-165,-87,122,4,-126,200,195,112,-4,-63,-73
-78,-165,-87,122,4,-126,200,195,112,-4,-73,-78
-78,-170,-92,124,7,-131,209,204,107,-14,-78,-82
-78,-175,-97,126,9,-136,214,214,102,-14,-78,-82
-78,-180,-102,129,12,-141,219,214,107,-19,-78,-82
-78,-185,-107,131,14,-146,214,219,107,-24,-87,-82
-78,-190,-112,134,17,-151,219,229,112,-29,-97,-97
-82,-190,-107,136,12,-148,229,239,112,-34,-97,-97
-82,-195,-112,139,14,-153,239,244,112,-39,-97,-97
-82,-200,-117,141,17,-158,244,258,117,-39,-107,-102
-82,-204,-122,143,19,-163,253,273,122,-39,-107,-107
-82,-214,-131,148,24,-173,263,283,131,-53,-117,-107
-82,-224,-141,153,29,-183,273,297,131,-63,-122,-112
-82,-229,-146,156,31,-187,283,307,136,-63,-126,-117
-87,-234,-146,161,29,-190,292,326,131,-78,-141,-122
-97,-244,-146,170,24,-195,297,331,131,-87,-146,-126
-102,-248,-146,175,21,-197,312,356,136,-97,-156,-136
-102,-263,-161,183,29,-212,331,375,141,-107,-165,-141
-102,-278,-175,190,36,-226,346,395,146,-112,-175,-156
-107,-287,-180,197,36,-234,370,419,151,-117,-185,-161
-107,-297,-190,202,41,-244,385,444,156,-136,-195,-170
-112,-312,-200,212,43,-256,405,468,165,-156,-209,-185
-117,-317,-200,217,41,-258,424,488,170,-165,-224,-195
-117,-317,-200,217,41,-258,439,507,180,-175,-234,-204
-122,-331,-209,226,43,-270,458,527,190,-195,-248,-214
-122,-341,-219,231,48,-280,468,546,195,-209,-258,-224
-136,-351,-214,244,39,-283,488,570,214,-224,-268,-234
-136,-361,-224,248,43,-292,497,595,224,-234,-278,-244
-141,-370,-229,256,43,-300,507,605,234,-253,-292,-253
-146,-375,-229,261,41,-302,517,614,239,-263,-297,-263
-146,-380,-234,263,43,-307,522,624,253,-278,-307,-268
-141,-380,-239,261,48,-309,527,634,268,-287,-312,-268
-141,-375,-234,258,46,-305,527,634,273,-287,-317,-273
-141,-375,-234,258,46,-305,527,634,278,-287,-317,-278
-141,-366,-224,253,41,-295,522,629,287,-287,-317,-278
-141,-361,-219,251,39,-290,517,624,297,-283,-317,-278
-136,-351,-214,244,39,-283,497,610,312,-283,-312,-278
-131,-336,-204,234,36,-270,483,590,326,-268,-297,-268
-122,-312,-190,217,34,-251,463,561,326,-263,-287,-258
-117,-297,-180,207,31,-239,434,531,326,-253,-273,-248
-112,-278,-165,195,26,-222,409,502,322,-244,-263,-239
-107,-258,-151,183,21,-204,375,468,317,-234,-248,-229
-92,-239,-146,165,26,-192,351,424,312,-209,-234,-204
-78,-214,-136,146,29,-175,317,390,297,-185,-209,-185
-68,-195,-126,131,29,-161,278,346,273,-175,-195,-170
-63,-175,-112,119,24,-143,244,307,253,-156,-170,-146
-53,-151,-97,102,21,-124,209,263,229,-131,-151,-126
-39,-126,-87,82,24,-107,175,234,209,-112,-131,-102
-43,-107,-63,75,9,-85,146,195,190,-97,-102,-87
-43,-78,-34,61,-4,-56,117,156,170,-73,-78,-63
-29,-58,-29,43,0,-43,87,126,151,-53,-58,-58
-29,-48,-19,39,-4,-34,73,102,131,-34,-48,-48
-19,-39,-19,29,0,-29,53,78,117,-19,-39,-34
-19,-29,-9,24,-4,-19,34,58,107,0,-19,-24
-14,-29,-14,21,0,-21,19,43,97,9,-9,-14
-9,-24,-14,17,2,-19,9,34,82,19,0,-4
-4,-19,-14,12,4,-17,0,9,73,29,4,0
0,-14,-14,7,7,-14,-14,0,63,34,14,4
0,-14,-14,7,7,-14,-14,-9,58,43,19,4
0,-9,-9,4,4,-9,-24,-14,43,53,24,9
-9,-9,0,9,-4,-4,-24,-14,43,53,24,9
-14,-9,4,12,-9,-2,-24,-19,39,58,24,9
-9,-4,4,7,-7,0,-24,-19,39,63,29,9
-9,-4,4,7,-7,0,-24,-19,39,63,29,9
-9,-4,4,7,-7,0,-24,-19,34,63,24,9
-9,-9,0,9,-4,-4,-24,-19,34,68,19,9
-14,-4,9,9,-12,2,-24,-19,34,68,19,9
-14,-4,9,9,-12,2,-24,-24,34,68,19,9
-14,-4,9,9,-12,2,-24,-24,34,73,24,9
-14,0,14,7,-14,7,-29,-19,34,78,24,9
-9,0,9,4,-9,4,-29,-19,34,73,24,9
-4,0,4,2,-4,2,-24,-19,34,73,24,14
-4,0,4,2,-4,2,-24,-19,34,73,29,14
-4,0,4,2,-4,2,-29,-19,34,78,39,14
-4,0,4,2,-4,2,-29,-19,34,82,39,14
-9,0,9,4,-9,4,-29,-19,34,87,39,14
-9,-4,4,7,-7,0,-29,-14,34,92,43,14
-9,-4,4,7,-7,0,-29,-14,34,97,43,14
-4,0,4,2,-4,2,-29,-19,34,97,43,14
-4,0,4,2,-4,2,-29,-24,34,102,43,14
-9,0,9,4,-9,4,-29,-24,39,102,43,14
-9,4,14,2,-12,9,-19,-19,43,107,43,19
-9,4,14,2,-12,9,-29,-19,43,107,48,19
-4,4,9,0,-7,7,-29,-19,43,107,48,19
-4,4,9,0,-7,7,-29,-14,43,117,53,19
-4,0,4,2,-4,2,-24,-9,48,117,53,24
0,0,0,0,0,0,-24,-4,53,122,53,24
0,0,0,0,0,0,-24,-4,53,126,53,24
0,0,0,0,0,0,-24,-4,48,126,53,24
4,0,-4,-2,4,-2,-24,-4,48,126,53,24
4,4,0,-4,2,2,-24,-4,53,126,58,24
4,9,4,-7,0,7,-24,-4,53,131,58,24
4,9,4,-7,0,7,-24,-9,53,131,58,29
4,9,4,-7,0,7,-29,-9,58,131,58,29
4,9,4,-7,0,7,-29,-9,58,131,63,29
4,9,4,-7,0,7,-29,-9,58,136,63,29
0,4,4,-2,-2,4,-29,-9,58,136,63,29
-4,0,4,2,-4,2,-29,-9,58,136,63,29
0,0,0,0,0,0,-24,-9,53,136,63,29
0,0,0,0,0,0,-24,-9,48,136,63,34
9,0,-9,-4,9,-4,-24,-14,48,136,63,34
14,0,-14,-7,14,-7,-29,-14,43,131,63,34
14,0,-14,-7,14,-7,-29,-14,48,131,63,34
14,0,-14,-7,14,-7,-29,-14,48,131,63,34
9,0,-9,-4,9,-4,-29,-14,48,131,58,34
9,0,-9,-4,9,-4,-29,-14,43,126,48,34
9,0,-9,-4,9,-4,-29,-19,43,126,48,34
14,4,-9,-9,12,-2,-39,-19,43,126,48,34
14,4,-9,-9,12,-2,-39,-19,39,126,48,34
9,4,-4,-7,7,0,-34,-19,39,126,48,34
4,0,-4,-2,4,-2,-34,-14,39,122,53,29
4,0,-4,-2,4,-2,-34,-14,34,122,58,24
9,0,-9,-4,9,-4,-34,-14,34,122,58,24
9,0,-9,-4,9,-4,-34,-14,34,117,58,24
14,0,-14,-7,14,-7,-39,-14,24,117,58,29
14,4,-9,-9,12,-2,-39,-14,19,112,58,34
9,4,-4,-7,7,0,-39,-19,19,112,58,34
9,4,-4,-7,7,0,-39,-19,19,112,58,34
9,4,-4,-7,7,0,-39,-24,19,112,48,29
9,4,-4,-7,7,0,-43,-24,24,112,48,29
0,0,0,0,0,0,-43,-24,24,112,53,29
-4,0,4,2,-4,2,-39,-24,24,107,53,29
0,0,0,0,0,0,-39,-24,24,102,53,29
0,0,0,0,0,0,-39,-24,19,102,53,24
4,9,4,-7,0,7,-43,-24,19,102,48,24
9,14,4,-12,2,9,-48,-24,19,97,48,24
4,4,0,-4,2,2,-43,-29,14,92,43,19
0,0,0,0,0,0,-43,-39,14,92,39,14
0,0,0,0,0,0,-39,-39,9,87,39,14
0,0,0,0,0,0,-39,-39,9,87,39,19
0,0,0,0,0,0,-39,-39,9,87,39,19
0,0,0,0,0,0,-39,-39,9,87,39,19
4,0,-4,-2,4,-2,-39,-34,9,87,39,19
9,0,-9,-4,9,-4,-39,-29,9,87,39,19
9,0,-9,-4,9,-4,-39,-29,9,87,39,19
9,0,-9,-4,9,-4,-39,-29,9,87,39,19
9,0,-9,-4,9,-4,-39,-29,9,87,39,19
9,0,-9,-4,9,-4,-39,-29,9,87,39,19
9,0,-9,-4,9,-4,-39,-29,9,87,34,19
9,0,-9,-4,9,-4,-39,-29,9,87,29,19
4,0,-4,-2,4,-2,-43,-34,9,87,29,19
0,0,0,0,0,0,-48,-39,9,87,29,19
0,0,0,0,0,0,-48,-39,9,87,29,14
0,0,0,0,0,0,-48,-39,9,87,29,9
0,0,0,0,0,0,-48,-39,9,82,29,9
0,0,0,0,0,0,-48,-39,9,78,29,9
0,0,0,0,0,0,-48,-39,4,78,29,9
0,0,0,0,0,0,-48,-39,0,78,29,9
0,0,0,0,0,0,-43,-39,0,78,29,9
0,0,0,0,0,0,-39,-39,0,78,29,9
-4,0,4,2,-4,2,-39,-39,0,73,29,9
-9,0,9,4,-9,4,-39,-39,0,68,29,9
-9,0,9,4,-9,4,-39,-39,0,68,29,9
-9,0,9,4,-9,4,-39,-39,0,68,29,9
-4,0,4,2,-4,2,-39,-39,4,73,29,9
0,0,0,0,0,0,-39,-39,9,78,29,9
0,0,0,0,0,0,-39,-39,9,78,29,9
0,0,0,0,0,0,-39,-39,9,78,29,9
0,0,0,0,0,0,-39,-39,9,78,29,9
0,0,0,0,0,0,-39,-39,9,78,29,9
0,0,0,0,0,0,-39,-39,9,73,24,9
0,0,0,0,0,0,-39,-39,9,68,19,9
0,0,0,0,0,0,-39,-39,9,68,19,9
0,0,0,0,0,0,-39,-39,9,68,19,9
0,0,0,0,0,0,-39,-39,9,68,19,9
0,0,0,0,0,0,-39,-39,9,68,19,9
0,0,0,0,0,0,-39,-39,9,68,19,4
0,0,0,0,0,0,-39,-39,9,68,19,0
0,0,0,0,0,0,-39,-39,9,68,14,0
0,0,0,0,0,0,-39,-39,9,68,9,0
0,0,0,0,0,0,-39,-39,9,68,9,0
0,0,0,0,0,0,-39,-39,9,68,9,0
0,0,0,0,0,0,-39,-39,9,63,14,0
0,0,0,0,0,0,-39,-39,9,58,19,0
0,0,0,0,0,0,-39,-43,4,58,19,0
0,0,0,0,0,0,-39,-48,0,58,19,0
0,0,0,0,0,0,-43,-48,0,58,19,0
0,0,0,0,0,0,-48,-48,0,58,19,0
0,0,0,0,0,0,-48,-43,0,58,19,0
0,0,0,0,0,0,-48,-39,0,58,19,0
0,0,0,0,0,0,-43,-39,0,58,19,0
0,0,0,0,0,0,-39,-39,0,58,19,0
-4,0,4,2,-4,2,-39,-39,0,58,14,0
-9,0,9,4,-9,4,-39,-39,0,58,9,0
-9,0,9,4,-9,4,-43,-39,0,53,9,-4
-9,0,9,4,-9,4,-48,-39,0,48,9,-9
-9,0,9,4,-9,4,-48,-43,0,48,9,-9
-9,0,9,4,-9,4,-48,-48,0,48,9,-9
-9,0,9,4,-9,4,-43,-48,0,53,9,-4
-9,0,9,4,-9,4,-39,-48,0,58,9,0
-9,0,9,4,-9,4,-39,-43,0,58,9,0
-9,0,9,4,-9,4,-39,-39,0,58,9,0
-4,0,4,2,-4,2,-43,-39,0,58,9,0
0,0,0,0,0,0,-48,-39,0,58,9,0
0,0,0,0,0,0,-48,-39,0,58,9,0
0,0,0,0,0,0,-48,-39,0,58,9,0
0,0,0,0,0,0,-48,-39,0,58,4,0
0,0,0,0,0,0,-48,-39,0,58,0,0
0,0,0,0,0,0,-48,-39,0,58,0,0
0,0,0,0,0,0,-48,-39,0,58,0,0
0,0,0,0,0,0,-48,-39,0,53,0,0
0,0,0,0,0,0,-48,-39,0,48,0,0
0,0,0,0,0,0,-48,-43,0,48,0,-4
0,0,0,0,0,0,-48,-48,0,48,0,-9
0,0,0,0,0,0,-48,-48,0,48,0,-9
0,0,0,0,0,0,-48,-48,0,48,0,-9
0,0,0,0,0,0,-48,-48,0,48,0,-4
0,0,0,0,0,0,-48,-48,0,48,0,0
-4,0,4,2,-4,2,-48,-48,0,48,0,0
-9,0,9,4,-9,4,-48,-48,0,48,0,0
-9,0,9,4,-9,4,-48,-48,0,48,0,0
-9,0,9,4,-9,4,-48,-48,0,48,0,0
-9,-4,4,7,-7,0,-48,-48,0,48,0,0
-9,-9,0,9,-4,-4,-48,-48,0,48,0,0
-9,-9,0,9,-4,-4,-48,-48,0,48,0,0
-9,-9,0,9,-4,-4,-48,-48,0,48,0,0
-9,-9,0,9,-4,-4,-43,-43,0,53,0,0
-9,-9,0,9,-4,-4,-39,-39,0,58,0,0
-9,-9,0,9,-4,-4,-39,-39,0,58,0,0
-9,-9,0,9,-4,-4,-39,-39,0,58,0,0
-4,-9,-4,7,0,-7,-43,-43,0,53,0,0
0,-9,-9,4,4,-9,-48,-48,0,48,0,0
0,-9,-9,4,4,-9,-48,-48,0,48,0,-4
0,-9,-9,4,4,-9,-48,-48,0,48,0,-9
-4,-9,-4,7,0,-7,-48,-48,0,48,0,-9
-9,-9,0,9,-4,-4,-48,-48,0,48,0,-9
-9,-9,0,9,-4,-4,-48,-48,0,48,0,-9
-9,-9,0,9,-4,-4,-48,-48,0,48,0,-9
-9,-9,0,9,-4,-4,-48,-48,0,48,0,-9
-9,-9,0,9,-4,-4,-48,-48,0,48,0,-9
-9,-9,0,9,-4,-4,-48,-48,0,53,0,-9
-9,-9,0,9,-4,-4,-48,-48,0,58,0,-9
-9,-9,0,9,-4,-4,-48,-48,4,58,0,-9
-9,-9,0,9,-4,-4,-48,-48,9,58,0,-9
-9,-9,0,9,-4,-4,-48,-48,9,58,0,-9
-9,-9,0,9,-4,-4,-48,-48,9,58,0,-9
-9,-4,4,7,-7,0,-48,-48,9,58,4,-9
-9,0,9,4,-9,4,-48,-48,9,58,9,-9
-9,4,14,2,-12,9,-48,-48,9,58,9,-4
-9,9,19,0,-14,14,-48,-48,9,58,9,0
4,9,4,-7,0,7,-53,-48,9,58,9,0
14,14,0,-14,7,7,-53,-43,9,63,9,4
24,24,0,-24,12,12,-58,-43,9,68,14,9
34,34,0,-34,17,17,-73,-43,9,68,14,9
43,39,-4,-41,24,17,-82,-53,4,68,24,9
43,39,-4,-41,24,17,-82,-53,9,68,29,9
39,53,14,-46,12,34,-82,-53,14,73,29,14
39,73,34,-56,2,53,-82,-58,39,82,34,29
53,126,73,-90,-9,100,-92,-68,53,97,53,43
73,175,102,-124,-14,139,-102,-78,73,122,73,63
87,219,131,-153,-21,175,-126,-78,82,146,97,73
92,239,146,-165,-26,192,-126,-73,97,161,112,82
102,224,122,-163,-9,173,-112,-34,107,170,107,82
107,190,82,-148,12,136,-87,0,117,170,107,82
107,161,53,-134,26,107,-82,-4,112,165,107,82
102,141,39,-122,31,90,-97,-43,102,156,102,82
102,126,24,-114,39,75,-122,-73,58,131,78,73
97,107,9,-102,43,58,-151,-112,24,102,78,73
97,92,-4,-95,51,43,-151,-117,9,97,73,68
102,63,-39,-82,70,12,-146,-112,-19,78,53,58
92,43,-48,-68,70,-2,-141,-107,-29,63,43,48
63,29,-34,-46,48,-2,-136,-107,-29,48,24,34
43,14,-29,-29,36,-7,-117,-102,-29,48,14,14
4,-19,-24,7,14,-21,-87,-78,-14,58,4,-4
-24,-34,-9,29,-7,-21,-63,-58,0,53,-4,-14
-34,-34,0,34,-17,-17,-48,-48,-4,48,-4,-14
-34,-34,0,34,-17,-17,-58,-63,-9,43,-9,-24
-34,-29,4,31,-19,-12,-58,-68,-14,43,-9,-24
-39,-39,0,39,-19,-19,-58,-68,-14,43,-9,-24
-39,-39,0,39,-19,-19,-58,-68,-14,48,-9,-24
-39,-34,4,36,-21,-14,-58,-68,-9,48,-9,-24
-39,-29,9,34,-24,-9,-63,-68,-9,48,-9,-24
-34,-34,0,34,-17,-17,-63,-68,-14,48,-9,-29
-29,-34,-4,31,-12,-19,-63,-68,-14,48,-14,-29
-34,-34,0,34,-17,-17,-63,-68,-14,48,-14,-29
-34,-39,-4,36,-14,-21,-63,-68,-14,48,-14,-29
-39,-39,0,39,-19,-19,-58,-58,-9,53,-14,-29
-39,-58,-19,48,-9,-39,-39,-29,19,63,-19,-39
-58,-68,-9,63,-24,-39,-14,-4,73,82,-34,-48
-82,-78,4,80,-43,-36,-4,-4,161,126,-53,-73
-156,-82,73,119,-114,-4,9,-29,336,200,-92,-122
-268,-87,180,178,-224,46,43,-48,644,268,-180,-219
-395,-112,283,253,-339,85,131,14,1063,341,-283,-331
-463,-151,312,307,-387,80,322,263,1605,497,-331,-400
-395,-102,292,248,-344,95,444,531,2142,839,-190,-317
-170,146,317,12,-244,231,351,649,2498,1405,156,-92
131,624,492,-378,-180,558,-4,429,2527,2030,653,248
444,1171,727,-807,-141,949,-722,-390,873,1283,956,546
683,1678,995,-1180,-156,1337,-1395,-1278,-1073,200,1171,819
712,1991,1278,-1351,-283,1634,-1873,-2069,-2747,-1576,922,844
780,2064,1283,-1422,-251,1673,-2098,-2488,-3713,-2713,649,844
907,1981,1073,-1444,-82,1527,-2210,-2625,-4299,-3128,531,941
785,1854,1068,-1320,-141,1461,-2005,-2493,-4289,-3045,424,941
546,1712,1166,-1129,-309,1439,-1849,-2454,-3972,-2742,341,912
214,1449,1234,-832,-509,1342,-1605,-2200,-3376,-2337,122,683
34,971,936,-502,-451,954,-985,-1493,-2405,-1776,-126,409
63,512,448,-287,-192,480,-556,-966,-1610,-1288,-204,273
102,136,34,-119,34,85,-253,-546,-1029,-863,-175,224
107,-43,-151,-31,129,-97,-87,-253,-644,-531,-151,122
63,-29,-92,-17,78,-61,-68,-156,-395,-322,-126,48
-14,-34,-19,24,2,-26,9,-39,-195,-151,-97,4
-63,-82,-19,73,-21,-51,78,58,-78,-53,-73,-24
-63,-112,-48,87,-7,-80,112,92,-48,-24,-63,-34
-63,-112,-48,87,-7,-80,112,92,-29,-9,-58,-53
-63,-117,-53,90,-4,-85,107,92,4,9,-68,-58
-73,-131,-58,102,-7,-95,107,92,19,14,-68,-58
-73,-131,-58,102,-7,-95,117,102,24,29,-68,-58
-63,-131,-68,97,2,-100,117,102,34,34,-73,-68
-63,-131,-68,97,2,-100,117,102,43,39,-73,-68
-78,-136,-58,107,-9,-97,117,102,63,43,-73,-68
-78,-136,-58,107,-9,-97,117,107,63,43,-68,-68
-73,-136,-63,104,-4,-100,112,107,63,43,-68,-68
-78,-136,-58,107,-9,-97,112,107,68,48,-68,-68
-78,-131,-53,104,-12,-92,117,107,73,48,-68,-73
-78,-131,-53,104,-12,-92,117,107,78,48,-63,-73
-78,-131,-53,104,-12,-92,112,107,78,48,-58,-68
-78,-131,-53,104,-12,-92,112,107,82,48,-58,-68
-78,-131,-53,104,-12,-92,112,107,82,48,-58,-68
-78,-126,-48,102,-14,-87,107,112,87,48,-63,-68
-78,-126,-48,102,-14,-87,107,112,87,48,-68,-68
-78,-126,-48,102,-14,-87,112,112,87,48,-68,-68
-78,-126,-48,102,-14,-87,117,112,92,48,-68,-68
-78,-126,-48,102,-14,-87,117,112,92,48,-68,-68
-78,-126,-48,102,-14,-87,117,117,97,48,-63,-68
-78,-126,-48,102,-14,-87,122,117,97,48,-63,-73
-78,-126,-48,102,-14,-87,122,117,97,48,-68,-78
-73,-122,-48,97,-12,-85,122,122,102,48,-68,-78
-73,-122,-48,97,-12,-85,122,122,102,43,-68,-82
-78,-122,-43,100,-17,-82,126,126,102,43,-68,-78
-78,-117,-39,97,-19,-78,126,126,102,39,-68,-73
-68,-117,-48,92,-9,-82,126,126,102,43,-68,-73
-63,-122,-58,92,-2,-90,131,126,102,43,-68,-73
-63,-122,-58,92,-2,-90,131,126,102,43,-68,-78
-63,-122,-58,92,-2,-90,131,131,102,43,-68,-82
-63,-122,-58,92,-2,-90,131,131,107,34,-68,-82
-63,-122,-58,92,-2,-90,136,136,107,34,-63,-82
-63,-122,-58,92,-2,-90,141,141,107,34,-68,-78
-63,-122,-58,92,-2,-90,141,146,107,29,-68,-73
-63,-122,-58,92,-2,-90,141,146,107,24,-73,-82
-68,-126,-58,97,-4,-92,141,156,107,19,-78,-82
-68,-126,-58,97,-4,-92,146,156,107,14,-78,-87
-68,-136,-68,102,0,-102,151,156,107,14,-82,-92
-68,-136,-68,102,0,-102,161,165,107,9,-82,-97
-68,-136,-68,102,0,-102,161,170,112,4,-82,-102
-68,-136,-68,102,0,-102,161,175,112,4,-92,-107
-68,-141,-73,104,2,-107,170,185,112,-4,-97,-112
-68,-146,-78,107,4,-112,175,195,112,-4,-97,-112
-73,-151,-78,112,2,-114,185,200,117,-9,-97,-112
-78,-156,-78,117,0,-117,190,214,117,-14,-107,-107
-78,-161,-82,119,2,-122,200,229,122,-19,-117,-117
-87,-161,-73,124,-7,-117,209,239,122,-24,-117,-117
-92,-165,-73,129,-9,-119,219,244,122,-29,-117,-117
-92,-170,-78,131,-7,-124,224,258,126,-34,-126,-122
-92,-175,-82,134,-4,-129,234,273,126,-39,-126,-131
-92,-185,-92,139,0,-139,244,283,131,-53,-136,-136
-92,-195,-102,143,4,-148,253,297,131,-63,-141,-141
-87,-200,-112,143,12,-156,263,312,136,-63,-146,-146
-87,-204,-117,146,14,-161,278,341,136,-78,-161,-151
-97,-214,-117,156,9,-165,287,351,136,-87,-165,-156
-102,-219,-117,161,7,-168,302,375,136,-97,-175,-165
-102,-234,-131,168,14,-183,326,400,141,-107,-185,-170
-102,-248,-146,175,21,-197,346,424,146,-117,-195,-185
-112,-258,-146,185,17,-202,370,448,151,-126,-204,-190
-117,-268,-151,192,17,-209,385,473,156,-146,-214,-200
-122,-283,-161,202,19,-222,405,502,165,-165,-229,-219
-126,-292,-165,209,19,-229,424,531,170,-175,-244,-234
-126,-297,-170,212,21,-234,444,556,180,-185,-253,-244
-131,-312,-180,222,24,-246,468,575,190,-204,-268,-253
-126,-326,-200,226,36,-263,483,595,195,-214,-278,-263
-136,-341,-204,239,34,-273,507,614,214,-224,-287,-273
-131,-351,-219,241,43,-285,517,644,224,-234,-297,-278
-126,-356,-229,241,51,-292,527,663,234,-248,-312,-283
-126,-361,-234,244,53,-297,536,673,239,-253,-317,-292
-126,-370,-244,248,58,-307,541,683,253,-263,-322,-297
-126,-370,-244,248,58,-307,546,692,268,-273,-322,-297
-131,-366,-234,248,51,-300,546,692,278,-278,-326,-297
-131,-366,-234,248,51,-300,551,692,287,-278,-326,-302
-131,-356,-224,244,46,-290,546,683,297,-278,-326,-307
-131,-351,-219,241,43,-285,536,673,307,-273,-326,-307
-126,-341,-214,234,43,-278,517,658,317,-273,-322,-302
-122,-326,-204,224,41,-265,497,639,326,-258,-307,-287
-112,-302,-190,207,39,-246,473,610,326,-248,-297,-278
-102,-287,-185,195,41,-236,444,575,326,-234,-283,-263
-92,-268,-175,180,41,-222,414,536,322,-224,-273,-248
-87,-248,-161,168,36,-204,370,497,317,-214,-258,-239
-78,-229,-151,153,36,-190,336,448,307,-195,-244,-214
-68,-204,-136,136,34,-170,297,405,287,-175,-219,-195
-58,-180,-122,119,31,-151,258,351,263,-165,-200,-180
-53,-156,-102,104,24,-129,219,302,244,-151,-170,-161
-43,-131,-87,87,21,-109,180,253,219,-131,-151,-146
-29,-107,-78,68,24,-92,146,214,200,-112,-136,-122
-29,-92,-63,61,17,-78,117,165,180,-97,-117,-107
-24,-63,-39,43,7,-51,82,122,161,-73,-97,-78
-9,-43,-34,26,12,-39,48,87,141,-53,-78,-68
-9,-39,-29,24,9,-34,34,63,122,-29,-63,-58
0,-29,-29,14,14,-29,14,39,107,-14,-48,-43
0,-14,-14,7,7,-14,-4,14,97,0,-29,-34
0,-4,-4,2,2,-4,-19,-4,87,9,-19,-24
0,4,4,-2,-2,4,-29,-14,73,14,-9,-14
4,9,4,-7,0,7,-34,-34,63,19,-4,-9
9,14,4,-12,2,9,-43,-39,58,24,4,-4
9,14,4,-12,2,9,-43,-48,63,34,9,-4
9,14,4,-12,2,9,-58,-53,53,43,14,0
4,9,4,-7,0,7,-63,-53,53,43,14,0
4,9,4,-7,0,7,-63,-58,43,48,14,4
9,14,4,-12,2,9,-63,-58,39,53,19,9
9,19,9,-14,0,14,-63,-63,39,58,19,9
9,24,14,-17,-2,19,-63,-68,34,63,19,9
9,19,9,-14,0,14,-63,-68,34,68,19,9
4,19,14,-12,-4,17,-63,-68,34,68,19,9
4,14,9,-9,-2,12,-63,-68,34,68,19,9
4,14,9,-9,-2,12,-63,-63,34,73,24,9
4,19,14,-12,-4,17,-68,-58,34,78,24,9
4,19,14,-12,-4,17,-68,-58,34,78,24,9
4,19,14,-12,-4,17,-63,-58,39,82,24,14
4,19,14,-12,-4,17,-63,-58,43,82,24,14
4,19,14,-12,-4,17,-68,-58,43,87,29,9
9,19,9,-14,0,14,-68,-58,43,87,29,4
9,19,9,-14,0,14,-68,-58,43,82,24,4
9,14,4,-12,2,9,-68,-53,43,82,24,4
4,14,9,-9,-2,12,-68,-53,43,87,24,9
4,19,14,-12,-4,17,-68,-53,43,87,24,14
4,19,14,-12,-4,17,-68,-53,39,92,29,14
0,19,19,-9,-9,19,-68,-53,39,92,34,14
0,19,19,-9,-9,19,-58,-48,43,97,34,19
0,14,14,-7,-7,14,-68,-48,43,97,39,19
4,14,9,-9,-2,12,-68,-48,43,97,39,19
4,14,9,-9,-2,12,-68,-48,43,107,43,19
9,14,4,-12,2,9,-58,-48,48,107,43,24
14,19,4,-17,4,12,-53,-43,53,112,43,24
9,19,9,-14,0,14,-53,-43,53,117,43,24
9,19,9,-14,0,14,-53,-43,48,117,43,24
9,19,9,-14,0,14,-53,-43,48,117,43,24
4,19,14,-12,-4,17,-53,-43,53,117,48,24
4,19,14,-12,-4,17,-53,-43,53,122,48,24
4,19,14,-12,-4,17,-53,-43,48,122,48,29
4,19,14,-12,-4,17,-58,-39,48,122,48,29
4,19,14,-12,-4,17,-58,-39,48,122,53,29
4,19,14,-12,-4,17,-58,-43,48,126,48,29
4,19,14,-12,-4,17,-58,-48,48,126,43,29
4,19,14,-12,-4,17,-58,-48,48,126,43,24
9,19,9,-14,0,14,-53,-48,48,126,43,19
9,19,9,-14,0,14,-53,-48,48,126,43,24
9,19,9,-14,0,14,-53,-53,48,126,43,24
4,19,14,-12,-4,17,-58,-53,43,122,43,24
4,19,14,-12,-4,17,-58,-53,43,122,43,24
4,19,14,-12,-4,17,-63,-53,39,122,43,24
4,19,14,-12,-4,17,-68,-53,39,122,43,24
14,19,4,-17,4,12,-68,-53,29,117,39,24
19,19,0,-19,9,9,-68,-58,24,117,39,24
24,24,0,-24,12,12,-73,-58,24,117,39,24
24,24,0,-24,12,12,-68,-58,19,117,39,24
19,24,4,-21,7,14,-63,-58,19,117,39,24
14,19,4,-17,4,12,-63,-58,19,112,39,24
14,19,4,-17,4,12,-68,-63,14,107,39,24
19,19,0,-19,9,9,-73,-63,14,102,39,24
14,19,4,-17,4,12,-73,-63,19,97,39,24
14,19,4,-17,4,12,-78,-63,19,97,39,24
14,19,4,-17,4,12,-78,-63,19,92,39,24
9,14,4,-12,2,9,-78,-68,19,92,39,24
14,14,0,-14,7,7,-78,-68,19,92,39,24
19,14,-4,-17,12,4,-78,-73,14,92,29,19
19,14,-4,-17,12,4,-82,-73,14,92,29,19
14,9,-4,-12,9,2,-82,-73,14,92,34,19
9,9,0,-9,4,4,-78,-73,14,87,34,19
9,9,0,-9,4,4,-78,-73,14,82,34,19
9,9,0,-9,4,4,-78,-73,9,82,34,14
4,9,4,-7,0,7,-78,-73,9,82,29,14
0,9,9,-4,-4,9,-78,-73,9,78,29,14
4,19,14,-12,-4,17,-78,-73,9,78,29,14
4,19,14,-12,-4,17,-78,-73,4,78,29,9
9,19,9,-14,0,14,-78,-78,0,78,29,9
4,14,9,-9,-2,12,-78,-78,0,78,29,14
0,9,9,-4,-4,9,-78,-78,0,78,29,19
0,9,9,-4,-4,9,-78,-78,0,78,29,19
0,9,9,-4,-4,9,-78,-78,0,78,29,19
4,9,4,-7,0,7,-78,-78,0,78,29,19
9,9,0,-9,4,4,-78,-78,0,78,29,19
9,9,0,-9,4,4,-78,-78,0,78,29,19
9,9,0,-9,4,4,-78,-78,0,78,29,19
9,9,0,-9,4,4,-78,-78,0,73,29,19
9,9,0,-9,4,4,-78,-78,0,68,29,19
9,9,0,-9,4,4,-78,-78,0,68,29,19
9,9,0,-9,4,4,-78,-78,0,68,29,19
4,9,4,-7,0,7,-78,-78,0,68,29,19
0,9,9,-4,-4,9,-78,-78,0,68,29,19
0,9,9,-4,-4,9,-78,-78,0,68,29,14
0,9,9,-4,-4,9,-78,-78,0,68,29,9
0,9,9,-4,-4,9,-78,-78,-4,68,29,9
0,9,9,-4,-4,9,-78,-78,-9,68,29,9
0,9,9,-4,-4,9,-78,-78,-9,63,29,9
0,9,9,-4,-4,9,-78,-78,-9,58,29,9
0,9,9,-4,-4,9,-78,-78,-9,58,24,9
0,9,9,-4,-4,9,-78,-78,-9,58,19,9
0,9,9,-4,-4,9,-78,-78,-9,58,19,9
0,9,9,-4,-4,9,-78,-78,-9,58,19,9
0,9,9,-4,-4,9,-78,-78,-9,58,19,9
0,9,9,-4,-4,9,-78,-78,-9,58,19,9
0,9,9,-4,-4,9,-78,-78,-9,58,19,9
0,9,9,-4,-4,9,-78,-78,-9,58,19,9
0,4,4,-2,-2,4,-78,-78,-9,58,19,9
0,0,0,0,0,0,-78,-78,-9,58,19,9
0,0,0,0,0,0,-78,-78,-9,53,14,9
0,0,0,0,0,0,-78,-78,-9,48,9,9
0,0,0,0,0,0,-78,-78,-9,48,9,9
0,0,0,0,0,0,-78,-78,-9,48,9,9
0,0,0,0,0,0,-82,-82,-9,48,14,9
0,0,0,0,0,0,-87,-87,-9,48,19,9
0,0,0,0,0,0,-87,-87,-9,48,19,9
0,0,0,0,0,0,-87,-87,-9,48,19,9
-4,0,4,2,-4,2,-87,-82,-9,48,14,4
-9,0,9,4,-9,4,-87,-78,-9,48,9,0
-9,0,9,4,-9,4,-87,-78,-9,48,9,0
-9,0,9,4,-9,4,-87,-78,-9,48,9,0
-9,0,9,4,-9,4,-87,-82,-9,48,9,4
-9,0,9,4,-9,4,-87,-87,-9,48,9,9
-9,0,9,4,-9,4,-87,-87,-9,48,9,9
-9,0,9,4,-9,4,-87,-87,-9,48,9,9
-9,0,9,4,-9,4,-87,-87,-9,48,9,9
-9,0,9,4,-9,4,-87,-87,-9,48,9,9
-4,0,4,2,-4,2,-87,-87,-9,48,9,9
0,0,0,0,0,0,-87,-87,-9,48,9,9
0,0,0,0,0,0,-87,-87,-9,43,9,4
0,0,0,0,0,0,-87,-87,-9,39,9,0
0,0,0,0,0,0,-87,-87,-9,39,9,0
0,0,0,0,0,0,-87,-87,-9,39,9,0
0,-4,-4,2,2,-4,-87,-87,-9,39,9,4
0,-9,-9,4,4,-9,-87,-87,-9,39,9,9
0,-9,-9,4,4,-9,-87,-87,-9,39,9,9
0,-9,-9,4,4,-9,-87,-87,-9,39,9,9
-4,-9,-4,7,0,-7,-92,-87,-9,39,9,9
-9,-9,0,9,-4,-4,-97,-87,-9,39,9,9
-9,-9,0,9,-4,-4,-97,-92,-9,39,9,9
-9,-9,0,9,-4,-4,-97,-97,-9,39,9,9
-9,-9,0,9,-4,-4,-97,-97,-9,43,9,9
-9,-9,0,9,-4,-4,-97,-97,-9,48,9,9
-9,-9,0,9,-4,-4,-97,-97,-9,48,9,9
-9,-9,0,9,-4,-4,-97,-97,-9,48,9,9
-9,-9,0,9,-4,-4,-97,-97,-9,43,9,4
-9,-9,0,9,-4,-4,-97,-97,-9,39,9,0
-4,-9,-4,7,0,-7,-97,-97,-9,39,9,0
0,-9,-9,4,4,-9,-97,-97,-9,39,9,0
0,-9,-9,4,4,-9,-97,-92,-9,39,9,4
0,-9,-9,4,4,-9,-97,-87,-9,39,9,9
0,-9,-9,4,4,-9,-97,-87,-9,39,9,9
0,-9,-9,4,4,-9,-97,-87,-9,39,9,9
-4,-9,-4,7,0,-7,-92,-87,-9,39,9,9
-9,-9,0,9,-4,-4,-87,-87,-9,39,9,9
-9,-9,0,9,-4,-4,-87,-87,-9,43,9,9
-9,-9,0,9,-4,-4,-87,-87,-9,48,9,9
-4,-4,0,4,-2,-2,-87,-87,-14,48,9,9
0,0,0,0,0,0,-87,-87,-19,48,9,9
0,0,0,0,0,0,-87,-87,-19,43,14,9
0,0,0,0,0,0,-87,-87,-19,39,19,9
0,0,0,0,0,0,-87,-87,-19,39,19,9
0,0,0,0,0,0,-87,-87,-19,39,19,9
0,-4,-4,2,2,-4,-87,-87,-14,39,19,9
0,-9,-9,4,4,-9,-87,-87,-9,39,19,9
0,-9,-9,4,4,-9,-87,-87,-9,43,19,9
0,-9,-9,4,4,-9,-87,-87,-9,48,19,9
0,-9,-9,4,4,-9,-87,-87,-9,48,19,9
0,-9,-9,4,4,-9,-87,-87,-9,48,19,9
0,-9,-9,4,4,-9,-87,-87,-9,48,19,9
0,-9,-9,4,4,-9,-87,-87,-9,48,19,9
0,-9,-9,4,4,-9,-87,-87,-9,48,19,9
0,-9,-9,4,4,-9,-87,-87,-9,48,19,9
0,-9,-9,4,4,-9,-87,-87,-9,48,19,9
0,-9,-9,4,4,-9,-87,-87,-9,48,19,9
0,-9,-9,4,4,-9,-87,-87,-9,48,19,14
0,-9,-9,4,4,-9,-87,-87,-9,48,19,19
4,-9,-14,2,9,-12,-87,-87,-9,48,19,19
9,-9,-19,0,14,-14,-87,-87,-9,48,19,19
9,-9,-19,0,14,-14,-87,-87,-9,48,19,14
9,-9,-19,0,14,-14,-87,-87,-9,48,19,9
4,-9,-14,2,9,-12,-87,-87,-9,48,19,9
0,-9,-9,4,4,-9,-87,-87,-9,48,19,9
0,-9,-9,4,4,-9,-87,-87,-14,48,19,9
0,-9,-9,4,4,-9,-87,-87,-19,48,19,9
0,-9,-9,4,4,-9,-87,-87,-19,48,19,9
