I, II, III, aVR, aVL, aVF, V1, V2, V3, V4, V5, V6, 
29, 39, 9, -34, 9, 24, -19, -29, -53, -29, -4, 4, 
34, 43, 9, -39, 12, 26, -19, -29, -53, -29, -4, 4, 
39, 48, 9, -43, 14, 29, -29, -29, -48, -24, 0, 14, 
43, 53, 9, -48, 17, 31, -34, -29, -43, -19, 0, 19, 
48, 63, 14, -56, 17, 39, -39, -24, -43, -14, 9, 24, 
48, 73, 24, -61, 12, 48, -43, -29, -43, -9, 14, 29, 
53, 82, 29, -68, 12, 56, -58, -34, -34, -9, 19, 29, 
58, 92, 34, -75, 12, 63, -58, -39, -34, -4, 24, 34, 
68, 92, 24, -80, 21, 58, -63, -43, -34, 0, 29, 48, 
73, 102, 29, -87, 21, 65, -73, -48, -34, 0, 34, 58, 
73, 107, 34, -90, 19, 70, -82, -53, -34, 4, 34, 58, 
73, 117, 43, -95, 14, 80, -92, -58, -29, 4, 39, 68, 
63, 126, 63, -95, 0, 95, -102, -63, -29, -4, 43, 63, 
68, 136, 68, -102, 0, 102, -107, -68, -29, 0, 43, 68, 
68, 136, 68, -102, 0, 102, -117, -78, -34, 0, 43, 73, 
68, 141, 73, -104, -2, 107, -126, -82, -39, 0, 48, 78, 
68, 136, 68, -102, 0, 102, -136, -92, -43, 0, 48, 78, 
68, 141, 73, -104, -2, 107, -136, -92, -43, 0, 53, 82, 
68, 146, 78, -107, -4, 112, -146, -102, -48, 0, 53, 87, 
68, 151, 82, -109, -7, 117, -151, -107, -53, 0, 58, 87, 
73, 151, 78, -112, -2, 114, -156, -112, -58, 0, 58, 87, 
73, 156, 82, -114, -4, 119, -161, -117, -58, 0, 58, 92, 
73, 161, 87, -117, -7, 124, -165, -122, -63, 0, 58, 92, 
78, 165, 87, -122, -4, 126, -170, -122, -68, 0, 58, 97, 
78, 165, 87, -122, -4, 126, -175, -122, -68, 0, 63, 97, 
78, 165, 87, -122, -4, 126, -175, -126, -68, 0, 63, 102, 
78, 165, 87, -122, -4, 126, -175, -126, -68, 0, 73, 102, 
78, 175, 97, -126, -9, 136, -175, -126, -68, 4, 73, 112, 
87, 185, 97, -136, -4, 141, -175, -126, -68, 4, 73, 112, 
87, 190, 102, -139, -7, 146, -175, -126, -73, 4, 73, 112, 
87, 190, 102, -139, -7, 146, -180, -131, -73, 4, 78, 117, 
87, 190, 102, -139, -7, 146, -180, -131, -73, 4, 78, 117, 
78, 185, 107, -131, -14, 146, -170, -131, -73, 14, 78, 117, 
78, 185, 107, -131, -14, 146, -165, -131, -78, 14, 78, 117, 
78, 185, 107, -131, -14, 146, -165, -131, -78, 14, 78, 117, 
78, 180, 102, -129, -12, 141, -165, -131, -78, 14, 78, 117, 
73, 180, 107, -126, -17, 143, -156, -126, -73, 4, 78, 117, 
73, 175, 102, -124, -14, 139, -151, -126, -78, 4, 68, 107, 
63, 161, 97, -112, -17, 129, -146, -117, -78, -4, 63, 102, 
63, 146, 82, -104, -9, 114, -136, -112, -82, -9, 58, 92, 
53, 131, 78, -92, -12, 104, -136, -107, -82, -4, 53, 92, 
48, 117, 68, -82, -9, 92, -126, -102, -92, -9, 48, 82, 
39, 102, 63, -70, -12, 82, -117, -97, -92, -14, 34, 73, 
29, 78, 48, -53, -9, 63, -112, -92, -97, -19, 29, 63, 
29, 68, 39, -48, -4, 53, -102, -87, -102, -34, 19, 53, 
19, 48, 29, -34, -4, 39, -92, -87, -102, -43, 9, 43, 
14, 29, 14, -21, 0, 21, -87, -87, -107, -53, 0, 34, 
4, 9, 4, -7, 0, 7, -78, -87, -112, -58, -9, 24, 
-4, -9, -4, 7, 0, -7, -73, -82, -117, -68, -19, 14, 
-9, -24, -14, 17, 2, -19, -68, -82, -122, -78, -29, 4, 
-9, -34, -24, 21, 7, -29, -63, -82, -126, -82, -39, -4, 
-14, -48, -34, 31, 9, -41, -58, -78, -131, -82, -39, -14, 
-29, -53, -24, 41, -2, -39, -53, -78, -136, -92, -53, -14, 
-39, -68, -29, 53, -4, -48, -48, -78, -136, -97, -58, -24, 
-39, -73, -34, 56, -2, -53, -48, -78, -141, -107, -68, -29, 
-43, -92, -48, 68, 2, -70, -48, -78, -146, -112, -68, -34, 
-39, -97, -58, 68, 9, -78, -48, -78, -151, -107, -73, -39, 
-39, -107, -68, 73, 14, -87, -43, -78, -151, -112, -78, -43, 
-43, -112, -68, 78, 12, -90, -43, -78, -151, -112, -82, -48, 
-43, -117, -73, 80, 14, -95, -43, -78, -151, -112, -87, -48, 
-53, -126, -73, 90, 9, -100, -43, -78, -151, -112, -87, -58, 
-53, -131, -78, 92, 12, -104, -43, -78, -151, -117, -87, -63, 
-53, -131, -78, 92, 12, -104, -39, -78, -151, -117, -87, -63, 
-58, -131, -73, 95, 7, -102, -39, -78, -151, -112, -87, -63, 
-48, -131, -82, 90, 17, -107, -39, -78, -151, -112, -87, -58, 
-48, -136, -87, 92, 19, -112, -39, -73, -151, -112, -87, -58, 
-48, -136, -87, 92, 19, -112, -34, -73, -151, -112, -92, -58, 
-48, -136, -87, 92, 19, -112, -34, -73, -151, -112, -92, -63, 
-48, -136, -87, 92, 19, -112, -34, -68, -151, -117, -92, -63, 
-48, -141, -92, 95, 21, -117, -34, -68, -151, -117, -92, -63, 
-48, -141, -92, 95, 21, -117, -34, -68, -151, -117, -92, -63, 
-48, -141, -92, 95, 21, -117, -34, -68, -151, -117, -92, -58, 
-39, -131, -92, 85, 26, -112, -29, -58, -141, -117, -92, -58, 
-48, -141, -92, 95, 21, -117, -29, -53, -151, -122, -97, -63, 
-39, -151, -112, 95, 36, -131, -9, -34, -151, -126, -102, -73, 
-39, -165, -126, 102, 43, -146, 14, -14, -165, -151, -117, -78, 
-34, -195, -161, 114, 63, -178, 48, 34, -180, -175, -136, -102, 
-34, -248, -214, 141, 90, -231, 102, 82, -214, -224, -180, -131, 
-43, -297, -253, 170, 104, -275, 141, 112, -244, -273, -224, -161, 
-63, -326, -263, 195, 100, -295, 170, 117, -263, -322, -258, -185, 
-78, -366, -287, 222, 104, -326, 195, 107, -292, -356, -283, -195, 
-112, -400, -287, 256, 87, -344, 239, 131, -326, -405, -326, -214, 
-131, -458, -326, 295, 97, -392, 317, 170, -361, -468, -375, -248, 
-175, -497, -322, 336, 73, -409, 380, 200, -409, -522, -424, -268, 
-200, -531, -331, 366, 65, -431, 419, 214, -444, -580, -453, -287, 
-204, -551, -346, 378, 70, -448, 429, 204, -478, -614, -483, -297, 
-195, -551, -356, 373, 80, -453, 409, 200, -517, -634, -488, -297, 
-156, -507, -351, 331, 97, -429, 375, 185, -522, -624, -468, -278, 
-92, -439, -346, 265, 126, -392, 287, 141, -502, -561, -419, -258, 
-29, -331, -302, 180, 136, -317, 180, 82, -458, -463, -346, -209, 
53, -180, -234, 63, 143, -207, 34, 24, -380, -312, -234, -141, 
146, 29, -117, -87, 131, -43, -126, -24, -224, -92, -68, -43, 
248, 248, 0, -248, 124, 124, -322, -97, -48, 151, 112, 82, 
356, 463, 107, -409, 124, 285, -512, -161, 78, 341, 278, 175, 
448, 644, 195, -546, 126, 419, -697, -219, 146, 497, 400, 268, 
512, 854, 341, -683, 85, 597, -927, -361, 209, 649, 556, 400, 
541, 1132, 590, -836, -24, 861, -1249, -668, 253, 829, 732, 570, 
507, 1454, 946, -980, -219, 1200, -1654, -1171, 268, 990, 956, 800, 
409, 1742, 1332, -1076, -461, 1537, -2108, -1883, 214, 1068, 1132, 1044, 
297, 1864, 1566, -1080, -634, 1715, -2483, -2557, 102, 1000, 1190, 1195, 
248, 1771, 1522, -1010, -636, 1647, -2615, -2810, -9, 805, 1093, 1185, 
258, 1464, 1205, -861, -473, 1334, -2508, -2737, -136, 531, 873, 1024, 
244, 1078, 834, -661, -295, 956, -2293, -2576, -351, 244, 629, 810, 
165, 751, 585, -458, -209, 668, -2078, -2430, -712, -87, 405, 653, 
39, 551, 512, -295, -236, 531, -1859, -2269, -1093, -375, 248, 580, 
-68, 405, 473, -168, -270, 439, -1581, -2005, -1244, -488, 175, 512, 
-122, 273, 395, -75, -258, 334, -1273, -1664, -1176, -468, 112, 424, 
-151, 180, 331, -14, -241, 256, -1019, -1366, -1029, -419, 87, 356, 
-170, 156, 326, 7, -248, 241, -849, -1151, -844, -326, 97, 322, 
-180, 107, 287, 36, -234, 197, -688, -961, -658, -253, 97, 273, 
-209, 29, 239, 90, -224, 134, -546, -795, -531, -219, 48, 209, 
-209, -14, 195, 112, -202, 90, -434, -668, -448, -190, 29, 170, 
-195, -39, 156, 117, -175, 58, -326, -536, -375, -156, 24, 131, 
-170, -73, 97, 122, -134, 12, -224, -400, -317, -141, -4, 78, 
-151, -117, 34, 134, -92, -41, -146, -297, -278, -141, -34, 29, 
-136, -136, 0, 136, -68, -68, -97, -234, -258, -141, -58, -9, 
-107, -165, -58, 136, -24, -112, -68, -180, -244, -151, -82, -43, 
-82, -180, -97, 131, 7, -139, -48, -141, -224, -151, -97, -63, 
-63, -180, -117, 122, 26, -148, -24, -107, -200, -151, -107, -78, 
-48, -185, -136, 117, 43, -161, -9, -68, -175, -136, -107, -78, 
-39, -195, -156, 117, 58, -175, 4, -29, -170, -136, -117, -82, 
-19, -200, -180, 109, 80, -190, 24, -4, -170, -146, -122, -92, 
-4, -204, -200, 104, 97, -202, 29, 19, -175, -165, -131, -112, 
9, -209, -219, 100, 114, -214, 43, 34, -195, -170, -151, -131, 
24, -209, -234, 92, 129, -222, 39, 48, -190, -170, -151, -131, 
34, -214, -248, 90, 141, -231, 39, 39, -200, -175, -151, -131, 
39, -214, -253, 87, 146, -234, 34, 39, -200, -175, -146, -126, 
43, -209, -253, 82, 148, -231, 34, 39, -200, -175, -146, -126, 
43, -209, -253, 82, 148, -231, 34, 39, -200, -170, -146, -126, 
34, -209, -244, 87, 139, -226, 34, 48, -200, -170, -156, -126, 
34, -209, -244, 87, 139, -226, 43, 63, -195, -175, -161, -136, 
43, -219, -263, 87, 153, -241, 48, 78, -195, -175, -165, -136, 
48, -219, -268, 85, 158, -244, 48, 82, -195, -175, -165, -136, 
58, -219, -278, 80, 168, -248, 48, 73, -195, -165, -161, -136, 
58, -214, -273, 78, 165, -244, 48, 73, -195, -170, -161, -136, 
58, -214, -273, 78, 165, -244, 48, 78, -195, -170, -161, -136, 
63, -214, -278, 75, 170, -246, 53, 78, -195, -170, -161, -136, 
63, -214, -278, 75, 170, -246, 53, 92, -195, -170, -165, -141, 
73, -219, -292, 73, 183, -256, 53, 97, -200, -180, -165, -141, 
78, -219, -297, 70, 187, -258, 58, 102, -200, -180, -165, -146, 
78, -229, -307, 75, 192, -268, 63, 107, -200, -180, -170, -151, 
78, -219, -297, 70, 187, -258, 63, 102, -190, -180, -170, -151, 
78, -219, -297, 70, 187, -258, 63, 107, -195, -180, -170, -151, 
82, -219, -302, 68, 192, -261, 68, 112, -195, -185, -170, -151, 
87, -219, -307, 65, 197, -263, 68, 117, -195, -185, -170, -156, 
87, -229, -317, 70, 202, -273, 68, 126, -195, -185, -175, -146, 
92, -229, -322, 68, 207, -275, 78, 131, -195, -190, -175, -151, 
92, -229, -322, 68, 207, -275, 78, 136, -195, -195, -180, -151, 
102, -229, -331, 63, 217, -280, 78, 141, -200, -195, -180, -151, 
102, -229, -331, 63, 217, -280, 78, 146, -200, -195, -190, -156, 
102, -229, -331, 63, 217, -280, 78, 156, -200, -195, -195, -156, 
107, -229, -336, 61, 222, -283, 82, 161, -204, -204, -195, -161, 
107, -229, -336, 61, 222, -283, 82, 165, -204, -204, -195, -161, 
112, -244, -356, 65, 234, -300, 97, 170, -204, -204, -195, -175, 
117, -244, -361, 63, 239, -302, 97, 175, -204, -209, -195, -180, 
117, -248, -366, 65, 241, -307, 102, 180, -204, -209, -195, -180, 
122, -248, -370, 63, 246, -309, 102, 185, -204, -209, -200, -180, 
122, -248, -370, 63, 246, -309, 102, 190, -204, -209, -200, -180, 
122, -248, -370, 63, 246, -309, 102, 195, -204, -209, -200, -180, 
117, -253, -370, 68, 244, -312, 112, 200, -204, -209, -204, -185, 
117, -253, -370, 68, 244, -312, 112, 209, -204, -209, -204, -185, 
122, -253, -375, 65, 248, -314, 122, 219, -195, -200, -204, -185, 
122, -258, -380, 68, 251, -319, 122, 224, -195, -204, -204, -190, 
122, -258, -380, 68, 251, -319, 122, 229, -195, -204, -209, -190, 
131, -258, -390, 63, 261, -324, 131, 239, -195, -204, -209, -190, 
131, -258, -390, 63, 261, -324, 136, 253, -185, -204, -200, -200, 
131, -258, -390, 63, 261, -324, 141, 253, -180, -204, -200, -204, 
141, -258, -400, 58, 270, -329, 146, 258, -180, -204, -200, -204, 
146, -258, -405, 56, 275, -331, 151, 273, -180, -204, -200, -204, 
151, -258, -409, 53, 280, -334, 146, 273, -185, -200, -209, -204, 
151, -258, -409, 53, 280, -334, 151, 287, -185, -200, -209, -204, 
161, -258, -419, 48, 290, -339, 156, 292, -175, -200, -214, -209, 
165, -258, -424, 46, 295, -341, 165, 307, -170, -200, -214, -209, 
165, -248, -414, 41, 290, -331, 170, 317, -170, -200, -204, -209, 
170, -253, -424, 41, 297, -339, 175, 326, -165, -195, -200, -209, 
175, -253, -429, 39, 302, -341, 185, 336, -161, -190, -200, -209, 
180, -248, -429, 34, 305, -339, 190, 346, -156, -190, -204, -214, 
180, -248, -429, 34, 305, -339, 204, 361, -151, -180, -204, -204, 
185, -248, -434, 31, 309, -341, 209, 370, -146, -180, -204, -209, 
185, -248, -434, 31, 309, -341, 219, 380, -141, -170, -204, -209, 
190, -248, -439, 29, 314, -344, 224, 390, -136, -165, -200, -209, 
204, -258, -463, 26, 334, -361, 229, 409, -122, -165, -204, -219, 
209, -253, -463, 21, 336, -358, 239, 419, -117, -165, -204, -219, 
209, -253, -463, 21, 336, -358, 248, 429, -107, -156, -204, -219, 
214, -248, -463, 17, 339, -356, 258, 448, -102, -151, -204, -219, 
209, -239, -448, 14, 329, -344, 268, 453, -87, -146, -195, -219, 
214, -234, -448, 9, 331, -341, 273, 463, -82, -131, -185, -219, 
219, -234, -453, 7, 336, -344, 278, 483, -73, -131, -180, -219, 
219, -234, -453, 7, 336, -344, 292, 492, -63, -126, -180, -219, 
219, -239, -458, 9, 339, -348, 302, 502, -43, -122, -180, -219, 
224, -234, -458, 4, 341, -346, 312, 512, -34, -117, -180, -219, 
224, -229, -453, 2, 339, -341, 322, 531, -29, -102, -170, -219, 
224, -224, -448, 0, 336, -336, 326, 536, -19, -102, -165, -219, 
219, -214, -434, -2, 326, -324, 336, 551, 0, -87, -161, -219, 
219, -209, -429, -4, 324, -319, 341, 556, 9, -78, -156, -219, 
229, -204, -434, -12, 331, -319, 351, 570, 19, -73, -151, -219, 
229, -200, -429, -14, 329, -314, 361, 580, 34, -63, -146, -214, 
219, -204, -424, -7, 322, -314, 370, 595, 39, -53, -141, -204, 
219, -204, -424, -7, 322, -314, 380, 605, 58, -43, -136, -204, 
224, -200, -424, -12, 324, -312, 385, 614, 63, -34, -131, -200, 
224, -195, -419, -14, 322, -307, 385, 624, 78, -24, -126, -195, 
224, -180, -405, -21, 314, -292, 405, 624, 102, -14, -122, -195, 
224, -175, -400, -24, 312, -287, 409, 634, 112, -4, -112, -190, 
224, -170, -395, -26, 309, -283, 414, 639, 117, 4, -107, -190, 
224, -165, -390, -29, 307, -278, 424, 649, 136, 14, -102, -190, 
234, -170, -405, -31, 319, -287, 429, 653, 141, 14, -107, -195, 
234, -161, -395, -36, 314, -278, 434, 663, 156, 24, -102, -195, 
234, -156, -390, -39, 312, -273, 439, 673, 170, 34, -92, -185, 
234, -151, -385, -41, 309, -268, 439, 683, 180, 43, -92, -180, 
229, -141, -370, -43, 300, -256, 448, 692, 180, 43, -82, -180, 
229, -136, -366, -46, 297, -251, 453, 692, 195, 53, -78, -180, 
224, -131, -356, -46, 290, -244, 453, 692, 209, 68, -73, -170, 
224, -126, -351, -48, 287, -239, 458, 692, 224, 78, -68, -165, 
224, -122, -346, -51, 285, -234, 458, 692, 219, 73, -73, -170, 
224, -117, -341, -53, 283, -229, 458, 692, 234, 82, -63, -170, 
219, -112, -331, -53, 275, -222, 458, 692, 244, 92, -58, -165, 
219, -107, -326, -56, 273, -217, 458, 688, 253, 107, -53, -161, 
204, -97, -302, -53, 253, -200, 453, 683, 268, 107, -43, -156, 
200, -92, -292, -53, 246, -192, 453, 678, 278, 117, -39, -151, 
195, -82, -278, -56, 236, -180, 448, 663, 287, 122, -29, -146, 
185, -78, -263, -53, 224, -170, 444, 658, 297, 131, -24, -141, 
190, -73, -263, -58, 226, -168, 439, 639, 297, 131, -9, -136, 
185, -68, -253, -58, 219, -161, 434, 634, 307, 146, -9, -131, 
175, -63, -239, -56, 207, -151, 429, 619, 317, 151, -4, -126, 
165, -53, -219, -56, 192, -136, 424, 605, 322, 161, 0, -122, 
156, -58, -214, -48, 185, -136, 414, 590, 322, 170, -4, -112, 
151, -53, -204, -48, 178, -129, 405, 575, 326, 180, 4, -107, 
151, -48, -200, -51, 175, -124, 395, 561, 331, 185, 9, -102, 
146, -43, -190, -51, 168, -117, 385, 541, 341, 190, 14, -97, 
131, -39, -170, -46, 151, -104, 375, 527, 331, 185, 24, -92, 
122, -34, -156, -43, 139, -95, 366, 507, 331, 185, 29, -82, 
117, -29, -146, -43, 131, -87, 356, 488, 336, 185, 34, -78, 
107, -29, -136, -39, 122, -82, 346, 468, 336, 190, 39, -78, 
107, -19, -126, -43, 117, -73, 331, 458, 331, 200, 43, -78, 
107, -14, -122, -46, 114, -68, 322, 439, 331, 200, 43, -73, 
92, -14, -107, -39, 100, -61, 312, 419, 326, 200, 43, -68, 
82, -14, -97, -34, 90, -56, 302, 400, 322, 200, 48, -63, 
78, -9, -87, -34, 82, -48, 283, 370, 317, 200, 48, -58, 
68, -9, -78, -29, 73, -43, 273, 351, 312, 195, 48, -53, 
68, 0, -68, -34, 68, -34, 258, 331, 307, 195, 58, -48, 
63, 0, -63, -31, 63, -31, 253, 312, 302, 195, 58, -43, 
43, 0, -43, -21, 43, -21, 229, 292, 287, 190, 58, -29, 
39, 0, -39, -19, 39, -19, 214, 273, 278, 185, 58, -29, 
34, 4, -29, -19, 31, -12, 209, 253, 268, 180, 58, -29, 
29, 4, -24, -17, 26, -9, 200, 234, 258, 175, 58, -24, 
34, 14, -19, -24, 26, -2, 180, 224, 248, 161, 68, -24, 
29, 14, -14, -21, 21, 0, 170, 209, 239, 161, 68, -14, 
24, 19, -4, -21, 14, 7, 151, 195, 229, 156, 68, -14, 
19, 19, 0, -19, 9, 9, 146, 180, 219, 151, 68, -14, 
14, 19, 4, -17, 4, 12, 136, 156, 209, 151, 63, -9, 
14, 19, 4, -17, 4, 12, 126, 141, 200, 141, 63, -9, 
14, 19, 4, -17, 4, 12, 117, 126, 190, 136, 63, 0, 
9, 24, 14, -17, -2, 19, 107, 112, 180, 131, 63, 0, 
9, 34, 24, -21, -7, 29, 97, 102, 170, 117, 63, 4, 
0, 34, 34, -17, -17, 34, 87, 87, 151, 107, 53, 4, 
0, 29, 29, -14, -14, 29, 78, 73, 146, 97, 53, 4, 
0, 29, 29, -14, -14, 29, 73, 68, 136, 97, 53, 4, 
0, 39, 39, -19, -19, 39, 78, 68, 136, 102, 43, 4, 
0, 39, 39, -19, -19, 39, 73, 68, 131, 97, 43, 4, 
0, 39, 39, -19, -19, 39, 73, 63, 126, 92, 43, 4, 
0, 39, 39, -19, -19, 39, 68, 58, 117, 87, 43, 4, 
0, 29, 29, -14, -14, 29, 63, 53, 107, 82, 48, 4, 
0, 29, 29, -14, -14, 29, 58, 48, 102, 78, 48, 4, 
0, 29, 29, -14, -14, 29, 53, 48, 97, 73, 39, 4, 
0, 24, 24, -12, -12, 24, 48, 43, 87, 68, 39, 0, 
0, 24, 24, -12, -12, 24, 48, 39, 92, 63, 39, 0, 
0, 24, 24, -12, -12, 24, 48, 34, 82, 58, 34, 0, 
0, 24, 24, -12, -12, 24, 43, 34, 78, 58, 34, 0, 
0, 19, 19, -9, -9, 19, 43, 34, 73, 53, 34, 0, 
0, 19, 19, -9, -9, 19, 43, 34, 68, 58, 29, 0, 
0, 14, 14, -7, -7, 14, 43, 29, 63, 53, 29, 0, 
0, 14, 14, -7, -7, 14, 39, 29, 58, 48, 29, 0, 
4, 14, 9, -9, -2, 12, 39, 24, 53, 48, 24, 0, 
4, 14, 9, -9, -2, 12, 39, 24, 58, 43, 24, -9, 
4, 14, 9, -9, -2, 12, 34, 24, 53, 43, 24, -9, 
4, 9, 4, -7, 0, 7, 34, 24, 48, 43, 19, -9, 
4, 9, 4, -7, 0, 7, 34, 24, 43, 43, 19, -14, 
4, 0, -4, -2, 4, -2, 34, 24, 39, 34, 19, -4, 
4, -4, -9, 0, 7, -7, 34, 19, 39, 29, 19, -4, 
9, -4, -14, -2, 12, -9, 34, 19, 34, 29, 14, -4, 
9, -4, -14, -2, 12, -9, 29, 19, 34, 29, 14, -4, 
9, 4, -4, -7, 7, 0, 29, 29, 34, 14, 14, -4, 
9, 4, -4, -7, 7, 0, 29, 29, 29, 14, 14, -4, 
9, 4, -4, -7, 7, 0, 29, 29, 29, 14, 9, -4, 
9, 0, -9, -4, 9, -4, 29, 29, 24, 14, 9, -9, 
9, -9, -19, 0, 14, -14, 29, 29, 24, 4, 4, -9, 
14, -9, -24, -2, 19, -17, 29, 29, 24, 4, 4, -9, 
14, -9, -24, -2, 19, -17, 29, 29, 24, 4, 4, -9, 
14, -9, -24, -2, 19, -17, 29, 34, 19, 4, 4, -9, 
14, -14, -29, 0, 21, -21, 29, 34, 19, 0, 0, -9, 
14, -14, -29, 0, 21, -21, 29, 34, 19, 0, 0, -9, 
14, -14, -29, 0, 21, -21, 29, 34, 19, 0, 0, -9, 
19, -14, -34, -2, 26, -24, 29, 34, 14, 0, 0, -9, 
9, -14, -24, 2, 17, -19, 29, 29, 14, 0, 0, -9, 
9, -14, -24, 2, 17, -19, 29, 29, 14, 0, 0, -9, 
9, -14, -24, 2, 17, -19, 29, 29, 14, -4, 0, -9, 
14, -14, -29, 0, 21, -21, 29, 29, 14, -4, -4, -9, 
14, -14, -29, 0, 21, -21, 29, 34, 14, 4, -4, -14, 
14, -19, -34, 2, 24, -26, 29, 34, 14, 0, -4, -14, 
14, -19, -34, 2, 24, -26, 29, 34, 14, 0, -4, -14, 
14, -19, -34, 2, 24, -26, 29, 34, 14, 0, -4, -14, 
14, -19, -34, 2, 24, -26, 29, 34, 14, 0, -4, -14, 
19, -19, -39, 0, 29, -29, 29, 34, 14, -4, -4, -14, 
19, -19, -39, 0, 29, -29, 29, 39, 14, -4, -9, -14, 
19, -19, -39, 0, 29, -29, 29, 39, 14, -4, -9, -14, 
19, -19, -39, 0, 29, -29, 29, 39, 4, -4, -9, -14, 
19, -19, -39, 0, 29, -29, 29, 39, 4, -4, -9, -19, 
19, -19, -39, 0, 29, -29, 29, 39, 4, -4, -9, -19, 
19, -24, -43, 2, 31, -34, 29, 43, 4, -4, -9, -19, 
19, -14, -34, -2, 26, -24, 29, 43, 4, -4, -9, -19, 
24, -14, -39, -4, 31, -26, 29, 43, 4, -4, -14, -19, 
24, -14, -39, -4, 31, -26, 29, 43, 4, 0, -14, -19, 
24, -14, -39, -4, 31, -26, 29, 43, 4, 0, -14, -24, 
24, -24, -48, 0, 36, -36, 19, 39, 4, -9, -14, -24, 
24, -24, -48, 0, 36, -36, 19, 39, 4, -9, -14, -24, 
24, -24, -48, 0, 36, -36, 19, 39, 4, -9, -14, -24, 
24, -24, -48, 0, 36, -36, 19, 39, 4, -9, -14, -24, 
24, -14, -39, -4, 31, -26, 19, 39, 4, -9, -14, -34, 
24, -14, -39, -4, 31, -26, 19, 39, 4, -9, -14, -34, 
24, -14, -39, -4, 31, -26, 19, 39, 4, -9, -14, -34, 
24, -14, -39, -4, 31, -26, 19, 39, 4, -9, -14, -34, 
24, -24, -48, 0, 36, -36, 19, 39, -4, -4, -19, -34, 
24, -24, -48, 0, 36, -36, 19, 34, -4, -4, -19, -39, 
24, -24, -48, 0, 36, -36, 19, 34, -4, -4, -19, -39, 
24, -24, -48, 0, 36, -36, 19, 34, -4, -9, -19, -39, 
24, -24, -48, 0, 36, -36, 19, 43, -4, -9, -19, -34, 
19, -24, -43, 2, 31, -34, 19, 43, -9, -9, -19, -34, 
19, -24, -43, 2, 31, -34, 19, 43, -9, -9, -24, -34, 
19, -29, -48, 4, 34, -39, 14, 43, -9, -9, -24, -34, 
19, -29, -48, 4, 34, -39, 14, 34, -9, -19, -24, -34, 
19, -29, -48, 4, 34, -39, 14, 34, -14, -19, -24, -34, 
19, -34, -53, 7, 36, -43, 14, 34, -14, -19, -24, -34, 
19, -34, -53, 7, 36, -43, 14, 29, -14, -19, -24, -34, 
19, -43, -63, 12, 41, -53, 14, 29, -19, -24, -29, -34, 
19, -43, -63, 12, 41, -53, 9, 29, -19, -24, -29, -34, 
14, -43, -58, 14, 36, -51, 9, 19, -19, -24, -29, -34, 
14, -48, -63, 17, 39, -56, 9, 19, -19, -24, -29, -34, 
14, -39, -53, 12, 34, -46, 9, 24, -19, -24, -29, -34, 
14, -39, -53, 12, 34, -46, 4, 24, -24, -29, -29, -34, 
14, -39, -53, 12, 34, -46, 4, 19, -24, -29, -29, -34, 
14, -39, -53, 12, 34, -46, 4, 19, -29, -29, -34, -34, 
14, -39, -53, 12, 34, -46, 4, 19, -29, -29, -34, -34, 
14, -39, -53, 12, 34, -46, 4, 14, -34, -34, -34, -34, 
14, -39, -53, 12, 34, -46, 4, 9, -39, -34, -34, -34, 
14, -39, -53, 12, 34, -46, 0, 4, -43, -34, -34, -34, 
14, -48, -63, 17, 39, -56, 0, 4, -43, -29, -34, -34, 
14, -48, -63, 17, 39, -56, 0, 4, -43, -29, -34, -34, 
14, -48, -63, 17, 39, -56, -4, 0, -43, -34, -34, -34, 
14, -48, -63, 17, 39, -56, -4, 0, -43, -34, -34, -34, 
14, -43, -58, 14, 36, -51, -4, 0, -39, -34, -34, -39, 
14, -43, -58, 14, 36, -51, -4, -4, -39, -39, -39, -39, 
14, -43, -58, 14, 36, -51, -4, -4, -48, -39, -39, -34, 
14, -43, -58, 14, 36, -51, -4, -4, -48, -43, -39, -34, 
14, -48, -63, 17, 39, -56, -4, -4, -48, -43, -39, -34, 
14, -48, -63, 17, 39, -56, -9, -4, -53, -43, -39, -39, 
14, -48, -63, 17, 39, -56, -9, -9, -53, -43, -39, -39, 
9, -53, -63, 21, 36, -58, -9, -9, -53, -43, -43, -39, 
9, -43, -53, 17, 31, -48, -9, -9, -58, -48, -43, -39, 
9, -48, -58, 19, 34, -53, -9, -14, -58, -48, -43, -39, 
9, -48, -58, 19, 34, -53, -9, -14, -58, -48, -43, -39, 
9, -48, -58, 19, 34, -53, -9, -19, -58, -48, -43, -39, 
9, -58, -68, 24, 39, -63, -9, -19, -63, -53, -43, -39, 
9, -58, -68, 24, 39, -63, -9, -19, -63, -53, -43, -39, 
9, -53, -63, 21, 36, -58, -9, -19, -63, -53, -43, -39, 
9, -53, -63, 21, 36, -58, -9, -19, -63, -53, -43, -39, 
9, -48, -58, 19, 34, -53, -14, -19, -73, -53, -43, -34, 
9, -48, -58, 19, 34, -53, -14, -19, -73, -58, -43, -34, 
9, -48, -58, 19, 34, -53, -14, -19, -73, -58, -43, -34, 
9, -48, -58, 19, 34, -53, -14, -24, -73, -58, -43, -34, 
4, -53, -58, 24, 31, -56, -19, -24, -78, -58, -43, -39, 
4, -53, -58, 24, 31, -56, -19, -19, -78, -58, -43, -39, 
4, -53, -58, 24, 31, -56, -19, -19, -78, -58, -43, -39, 
4, -53, -58, 24, 31, -56, -19, -19, -78, -53, -39, -39, 
-4, -53, -48, 29, 21, -51, -19, -29, -87, -63, -43, -39, 
-4, -53, -48, 29, 21, -51, -19, -29, -87, -58, -43, -39, 
-4, -48, -43, 26, 19, -46, -24, -34, -87, -58, -43, -34, 
0, -48, -48, 24, 24, -48, -24, -34, -87, -58, -43, -34, 
-9, -48, -39, 29, 14, -43, -34, -34, -97, -58, -53, -43, 
-4, -48, -43, 26, 19, -46, -29, -34, -92, -63, -48, -39, 
-4, -48, -43, 26, 19, -46, -29, -34, -82, -58, -43, -34, 
-4, -48, -43, 26, 19, -46, -29, -34, -82, -63, -43, -34, 
-9, -48, -39, 29, 14, -43, -29, -43, -92, -68, -48, -43, 
-9, -48, -39, 29, 14, -43, -34, -43, -87, -68, -48, -34, 
-9, -48, -39, 29, 14, -43, -34, -43, -87, -68, -39, -34, 
-4, -43, -39, 24, 17, -41, -39, -43, -87, -63, -39, -29, 
-4, -48, -43, 26, 19, -46, -29, -39, -97, -73, -48, -34, 
0, -48, -48, 24, 24, -48, -34, -39, -92, -68, -48, -34, 
0, -48, -48, 24, 24, -48, -39, -43, -92, -68, -43, -34, 
0, -43, -43, 21, 21, -43, -39, -48, -87, -68, -43, -19, 
-4, -48, -43, 26, 19, -46, -29, -43, -92, -73, -48, -29, 
-4, -43, -39, 24, 17, -41, -29, -43, -92, -73, -48, -29, 
4, -43, -48, 19, 26, -46, -34, -43, -92, -73, -43, -19, 
4, -43, -48, 19, 26, -46, -39, -53, -92, -68, -43, -19, 
14, -48, -63, 17, 39, -56, -29, -43, -92, -68, -48, -24, 
14, -43, -58, 14, 36, -51, -34, -43, -92, -68, -43, -19, 
14, -39, -53, 12, 34, -46, -39, -48, -92, -63, -39, -19, 
14, -29, -43, 7, 29, -36, -43, -53, -92, -63, -39, -14, 
19, -24, -43, 2, 31, -34, -34, -43, -92, -63, -34, -19, 
19, -19, -39, 0, 29, -29, -34, -43, -87, -53, -29, -14, 
19, -9, -29, -4, 24, -19, -34, -43, -78, -53, -24, -14, 
19, -4, -24, -7, 21, -14, -34, -39, -73, -53, -24, -9, 
24, 4, -19, -14, 21, -7, -19, -34, -63, -39, -19, -4, 
29, 9, -19, -19, 24, -4, -9, -29, -58, -39, -9, 0, 
29, 19, -9, -24, 19, 4, -9, -19, -48, -29, -9, 9, 
29, 19, -9, -24, 19, 4, -9, -19, -48, -29, -9, 9, 
29, 19, -9, -24, 19, 4, -9, -19, -48, -29, -9, 9, 
29, 19, -9, -24, 19, 4, -9, -19, -48, -29, -9, 9, 
39, 29, -9, -34, 24, 9, -9, -29, -43, -19, -9, 14, 
43, 34, -9, -39, 26, 12, -9, -29, -43, -19, -4, 14, 
48, 39, -9, -43, 29, 14, -19, -29, -39, -14, 4, 24, 
53, 43, -9, -48, 31, 17, -24, -29, -34, -9, 9, 29, 
58, 53, -4, -56, 31, 24, -39, -24, -34, -14, 19, 34, 
58, 63, 4, -61, 26, 34, -43, -29, -34, -9, 24, 39, 
63, 73, 9, -68, 26, 41, -58, -34, -24, -9, 29, 39, 
68, 82, 14, -75, 26, 48, -58, -39, -24, -4, 34, 43, 
68, 92, 24, -80, 21, 58, -63, -43, -24, 9, 29, 48, 
73, 102, 29, -87, 21, 65, -73, -48, -24, 9, 34, 58, 
73, 107, 34, -90, 19, 70, -82, -53, -24, 14, 34, 58, 
73, 117, 43, -95, 14, 80, -92, -58, -19, 14, 39, 68, 
73, 117, 43, -95, 14, 80, -102, -73, -29, 14, 53, 63, 
78, 126, 48, -102, 14, 87, -107, -78, -29, 19, 53, 68, 
78, 126, 48, -102, 14, 87, -117, -87, -34, 19, 53, 73, 
78, 131, 53, -104, 12, 92, -126, -92, -39, 19, 58, 78, 
78, 136, 58, -107, 9, 97, -136, -102, -34, 19, 58, 78, 
78, 141, 63, -109, 7, 102, -136, -102, -34, 19, 63, 82, 
78, 146, 68, -112, 4, 107, -146, -112, -39, 19, 63, 87, 
78, 151, 73, -114, 2, 112, -151, -117, -43, 19, 68, 87, 
82, 151, 68, -117, 7, 109, -165, -122, -48, 19, 68, 97, 
82, 156, 73, -119, 4, 114, -170, -126, -48, 19, 68, 102, 
82, 161, 78, -122, 2, 119, -175, -131, -53, 19, 68, 102, 
87, 165, 78, -126, 4, 122, -180, -131, -58, 19, 68, 107, 
87, 165, 78, -126, 4, 122, -175, -131, -48, 19, 73, 107, 
87, 165, 78, -126, 4, 122, -175, -136, -48, 19, 73, 112, 
87, 165, 78, -126, 4, 122, -175, -136, -48, 19, 82, 112, 
87, 175, 87, -131, 0, 131, -175, -136, -48, 24, 82, 122, 
87, 175, 87, -131, 0, 131, -175, -136, -48, 24, 82, 122, 
87, 180, 92, -134, -2, 136, -175, -136, -53, 24, 82, 122, 
87, 180, 92, -134, -2, 136, -180, -141, -53, 24, 87, 126, 
87, 180, 92, -134, -2, 136, -180, -141, -53, 24, 87, 126, 
78, 185, 107, -131, -14, 146, -180, -131, -63, 24, 97, 126, 
78, 185, 107, -131, -14, 146, -175, -131, -68, 24, 97, 126, 
78, 185, 107, -131, -14, 146, -175, -131, -68, 24, 97, 126, 
78, 180, 102, -129, -12, 141, -175, -131, -68, 24, 97, 126, 
82, 170, 87, -126, -2, 129, -165, -136, -63, 24, 87, 126, 
82, 165, 82, -124, 0, 124, -161, -136, -68, 24, 78, 117, 
73, 151, 78, -112, -2, 114, -156, -126, -68, 14, 73, 112, 
73, 136, 63, -104, 4, 100, -146, -122, -73, 9, 68, 102, 
63, 122, 58, -92, 2, 90, -136, -117, -73, 4, 63, 92, 
58, 107, 48, -82, 4, 78, -126, -112, -82, 0, 58, 82, 
48, 92, 43, -70, 2, 68, -117, -107, -82, -4, 43, 73, 
39, 68, 29, -53, 4, 48, -112, -102, -87, -9, 39, 63, 
29, 58, 29, -43, 0, 43, -102, -97, -92, -24, 39, 43, 
19, 39, 19, -29, 0, 29, -92, -97, -92, -34, 29, 34, 
14, 19, 4, -17, 4, 12, -87, -97, -97, -43, 19, 24, 
4, 0, -4, -2, 4, -2, -78, -97, -102, -48, 9, 14, 
-4, -19, -14, 12, 4, -17, -73, -82, -107, -58, 0, 14, 
-9, -34, -24, 21, 7, -29, -68, -82, -112, -68, -9, 4, 
-9, -43, -34, 26, 12, -39, -63, -82, -117, -73, -19, -4, 
-14, -58, -43, 36, 14, -51, -58, -78, -122, -73, -19, -14, 
-19, -73, -53, 46, 17, -63, -53, -78, -126, -73, -34, -14, 
-29, -87, -58, 58, 14, -73, -48, -78, -126, -78, -39, -24, 
-29, -92, -63, 61, 17, -78, -48, -78, -131, -87, -48, -29, 
-34, -112, -78, 73, 21, -95, -48, -78, -136, -92, -48, -34, 
-39, -117, -78, 78, 19, -97, -48, -78, -141, -97, -53, -39, 
-39, -126, -87, 82, 24, -107, -43, -78, -141, -102, -58, -43, 
-43, -131, -87, 87, 21, -109, -43, -78, -141, -102, -63, -48, 
-43, -136, -92, 90, 24, -114, -43, -78, -141, -102, -68, -48, 
-43, -136, -92, 90, 24, -114, -43, -78, -141, -102, -68, -48, 
-43, -141, -97, 92, 26, -119, -43, -78, -141, -107, -68, -53, 
-43, -141, -97, 92, 26, -119, -39, -78, -141, -107, -68, -53, 
-48, -141, -92, 95, 21, -117, -39, -78, -141, -102, -68, -53, 
-58, -141, -82, 100, 12, -112, -39, -78, -141, -102, -68, -58, 
-58, -146, -87, 102, 14, -117, -39, -73, -141, -102, -68, -58, 
-58, -146, -87, 102, 14, -117, -34, -73, -141, -102, -73, -58, 
-58, -146, -87, 102, 14, -117, -34, -73, -141, -102, -73, -63, 
-48, -146, -97, 97, 24, -122, -34, -68, -141, -107, -73, -63, 
-48, -151, -102, 100, 26, -126, -34, -68, -141, -107, -73, -63, 
-48, -151, -102, 100, 26, -126, -34, -68, -141, -107, -73, -63, 
-48, -151, -102, 100, 26, -126, -34, -68, -141, -107, -73, -58, 
-48, -151, -102, 100, 26, -126, -29, -68, -131, -107, -73, -58, 
-48, -161, -112, 104, 31, -136, -19, -53, -141, -112, -78, -63, 
-48, -170, -122, 109, 36, -146, -9, -34, -151, -117, -92, -73, 
-39, -195, -156, 117, 58, -175, 14, -14, -156, -131, -107, -87, 
-34, -224, -190, 129, 78, -207, 58, 34, -180, -175, -136, -112, 
-34, -268, -234, 151, 100, -251, 102, 82, -204, -224, -180, -141, 
-53, -326, -273, 190, 109, -300, 151, 112, -234, -263, -214, -170, 
-73, -356, -283, 214, 104, -319, 180, 107, -253, -302, -248, -185, 
-87, -395, -307, 241, 109, -351, 204, 107, -273, -346, -273, -195, 
-112, -439, -326, 275, 107, -383, 248, 122, -317, -395, -317, -214, 
-141, -488, -346, 314, 102, -417, 317, 161, -351, -448, -366, -248, 
-175, -527, -351, 351, 87, -439, 380, 180, -390, -502, -405, -268, 
-200, -561, -361, 380, 80, -461, 419, 185, -424, -551, -444, -287, 
-214, -570, -356, 392, 70, -463, 429, 175, -458, -595, -463, -297, 
-204, -570, -366, 387, 80, -468, 419, 170, -497, -614, -478, -297, 
-156, -536, -380, 346, 112, -458, 375, 165, -502, -605, -458, -287, 
-92, -468, -375, 280, 141, -422, 287, 122, -473, -551, -409, -258, 
-29, -361, -331, 195, 151, -346, 180, 63, -448, -453, -336, -219, 
63, -209, -273, 73, 168, -241, 34, 4, -370, -302, -224, -141, 
165, 0, -165, -82, 165, -82, -136, -53, -214, -92, -58, -34, 
268, 239, -29, -253, 148, 104, -331, -126, -48, 141, 122, 73, 
366, 434, 68, -400, 148, 251, -531, -190, 68, 341, 278, 175, 
458, 614, 156, -536, 151, 385, -727, -258, 136, 488, 409, 268, 
522, 834, 312, -678, 104, 573, -956, -409, 200, 639, 556, 390, 
541, 1112, 570, -827, -14, 841, -1268, -727, 234, 800, 741, 580, 
507, 1434, 927, -971, -209, 1180, -1673, -1239, 248, 971, 956, 810, 
400, 1722, 1322, -1061, -461, 1522, -2127, -1952, 204, 1049, 1132, 1044, 
278, 1844, 1566, -1061, -644, 1705, -2503, -2615, 92, 980, 1190, 1195, 
239, 1732, 1493, -985, -627, 1612, -2635, -2869, -9, 775, 1083, 1185, 
248, 1415, 1166, -832, -458, 1290, -2537, -2796, -136, 522, 863, 1024, 
224, 1019, 795, -622, -285, 907, -2322, -2625, -351, 224, 610, 800, 
136, 702, 566, -419, -214, 634, -2098, -2488, -712, -107, 385, 644, 
19, 502, 483, -261, -231, 492, -1869, -2318, -1083, -385, 239, 570, 
-87, 366, 453, -139, -270, 409, -1590, -2044, -1224, -488, 165, 502, 
-151, 224, 375, -36, -263, 300, -1283, -1693, -1146, -468, 112, 424, 
-180, 141, 322, 19, -251, 231, -1029, -1405, -1000, -409, 78, 356, 
-190, 117, 307, 36, -248, 212, -849, -1180, -814, -326, 97, 322, 
-209, 68, 278, 70, -244, 173, -688, -980, -619, -253, 97, 273, 
-219, -9, 209, 114, -214, 100, -536, -814, -502, -219, 48, 209, 
-229, -53, 175, 141, -202, 61, -434, -668, -419, -190, 29, 161, 
-204, -68, 136, 136, -170, 34, -326, -527, -356, -156, 24, 122, 
-180, -102, 78, 141, -129, -12, -224, -400, -297, -141, 4, 78, 
-161, -146, 14, 153, -87, -65, -136, -297, -268, -141, -24, 19, 
-136, -165, -29, 151, -53, -97, -97, -234, -248, -141, -58, -9, 
-107, -185, -78, 146, -14, -131, -68, -180, -234, -151, -82, -43, 
-82, -200, -117, 141, 17, -158, -39, -141, -214, -151, -87, -53, 
-63, -200, -136, 131, 36, -168, -24, -107, -190, -151, -97, -68, 
-48, -204, -156, 126, 53, -180, -9, -68, -165, -136, -97, -78, 
-29, -214, -185, 122, 78, -200, 4, -29, -170, -146, -107, -92, 
-9, -219, -209, 114, 100, -214, 14, -4, -170, -146, -112, -102, 
4, -234, -239, 114, 122, -236, 29, 19, -185, -156, -131, -112, 
29, -239, -268, 104, 148, -253, 43, 43, -195, -161, -141, -122, 
34, -239, -273, 102, 153, -256, 48, 48, -190, -170, -141, -131, 
34, -234, -268, 100, 151, -251, 48, 39, -190, -165, -141, -131, 
39, -234, -273, 97, 156, -253, 43, 39, -190, -165, -136, -126, 
43, -229, -273, 92, 158, -251, 43, 39, -190, -165, -136, -126, 
43, -229, -273, 92, 158, -251, 43, 39, -190, -161, -136, -126, 
43, -229, -273, 92, 158, -251, 43, 48, -200, -161, -146, -126, 
43, -229, -273, 92, 158, -251, 53, 63, -195, -165, -151, -136, 
53, -239, -292, 92, 173, -265, 58, 78, -195, -165, -156, -136, 
58, -239, -297, 90, 178, -268, 58, 82, -195, -165, -156, -136, 
58, -229, -287, 85, 173, -258, 58, 82, -185, -165, -151, -136, 
58, -224, -283, 82, 170, -253, 58, 82, -185, -170, -151, -136, 
58, -224, -283, 82, 170, -253, 58, 87, -185, -170, -151, -136, 
63, -224, -287, 80, 175, -256, 63, 87, -185, -170, -151, -136, 
63, -224, -287, 80, 175, -256, 63, 92, -185, -170, -165, -141, 
73, -229, -302, 78, 187, -265, 63, 97, -190, -180, -165, -141, 
78, -229, -307, 75, 192, -268, 68, 102, -190, -180, -165, -146, 
78, -239, -317, 80, 197, -278, 73, 107, -190, -180, -170, -151, 
87, -229, -317, 70, 202, -273, 73, 112, -200, -190, -170, -151, 
87, -229, -317, 70, 202, -273, 73, 117, -204, -190, -170, -151, 
92, -229, -322, 68, 207, -275, 78, 122, -204, -195, -170, -151, 
97, -229, -326, 65, 212, -278, 78, 126, -204, -195, -170, -156, 
87, -229, -317, 70, 202, -273, 68, 126, -204, -195, -175, -165, 
92, -229, -322, 68, 207, -275, 78, 131, -204, -200, -175, -170, 
92, -229, -322, 68, 207, -275, 78, 136, -204, -204, -180, -170, 
102, -229, -331, 63, 217, -280, 78, 141, -209, -204, -180, -170, 
102, -239, -341, 68, 222, -290, 87, 136, -209, -204, -180, -175, 
102, -239, -341, 68, 222, -290, 87, 146, -209, -204, -185, -175, 
107, -239, -346, 65, 226, -292, 92, 151, -214, -214, -185, -180, 
107, -239, -346, 65, 226, -292, 92, 156, -214, -214, -185, -180, 
112, -244, -356, 65, 234, -300, 87, 161, -214, -214, -195, -185, 
117, -244, -361, 63, 239, -302, 87, 165, -214, -219, -195, -190, 
117, -248, -366, 65, 241, -307, 92, 170, -214, -219, -195, -190, 
122, -248, -370, 63, 246, -309, 92, 175, -214, -219, -200, -190, 
131, -248, -380, 58, 256, -314, 102, 190, -214, -229, -200, -190, 
131, -248, -380, 58, 256, -314, 102, 195, -214, -229, -200, -190, 
126, -253, -380, 63, 253, -317, 112, 200, -214, -229, -204, -195, 
126, -253, -380, 63, 253, -317, 112, 209, -214, -229, -204, -195, 
141, -253, -395, 56, 268, -324, 112, 209, -204, -219, -204, -185, 
141, -258, -400, 58, 270, -329, 112, 214, -204, -224, -204, -190, 
141, -258, -400, 58, 270, -329, 112, 219, -204, -224, -209, -190, 
151, -258, -409, 53, 280, -334, 122, 229, -204, -224, -209, -190, 
151, -258, -409, 53, 280, -334, 126, 253, -204, -224, -209, -200, 
151, -258, -409, 53, 280, -334, 131, 253, -200, -224, -209, -204, 
161, -258, -419, 48, 290, -339, 136, 258, -200, -224, -209, -204, 
165, -258, -424, 46, 295, -341, 141, 273, -200, -224, -209, -204, 
161, -258, -419, 48, 290, -339, 146, 273, -195, -219, -209, -214, 
161, -258, -419, 48, 290, -339, 151, 287, -195, -219, -209, -214, 
170, -258, -429, 43, 300, -344, 156, 292, -185, -219, -214, -219, 
175, -258, -434, 41, 305, -346, 165, 307, -180, -219, -214, -219, 
165, -258, -424, 46, 295, -341, 170, 317, -180, -219, -214, -219, 
170, -263, -434, 46, 302, -348, 175, 326, -175, -214, -209, -219, 
175, -263, -439, 43, 307, -351, 185, 336, -170, -209, -209, -219, 
180, -258, -439, 39, 309, -348, 190, 346, -165, -209, -214, -224, 
190, -258, -448, 34, 319, -353, 195, 361, -161, -209, -214, -224, 
195, -258, -453, 31, 324, -356, 200, 370, -156, -209, -214, -229, 
195, -258, -453, 31, 324, -356, 209, 380, -151, -200, -214, -229, 
200, -258, -458, 29, 329, -358, 214, 390, -146, -195, -209, -229, 
204, -258, -463, 26, 334, -361, 219, 400, -141, -195, -204, -229, 
209, -253, -463, 21, 336, -358, 229, 409, -136, -195, -204, -229, 
209, -253, -463, 21, 336, -358, 239, 419, -126, -185, -204, -229, 
214, -248, -463, 17, 339, -356, 248, 439, -122, -180, -204, -229, 
219, -258, -478, 19, 348, -368, 258, 453, -107, -175, -204, -229, 
224, -253, -478, 14, 351, -366, 263, 463, -102, -161, -195, -229, 
229, -253, -483, 12, 356, -368, 268, 483, -92, -161, -190, -229, 
229, -253, -483, 12, 356, -368, 283, 492, -82, -156, -190, -229, 
229, -239, -468, 4, 348, -353, 302, 512, -73, -151, -200, -229, 
234, -234, -468, 0, 351, -351, 312, 522, -63, -146, -200, -229, 
234, -229, -463, -2, 348, -346, 322, 541, -58, -131, -190, -229, 
234, -224, -458, -4, 346, -341, 326, 546, -48, -131, -185, -229, 
229, -234, -463, 2, 346, -348, 336, 570, -39, -117, -180, -229, 
229, -229, -458, 0, 344, -344, 341, 575, -29, -107, -175, -229, 
239, -224, -463, -7, 351, -344, 351, 590, -19, -102, -170, -229, 
239, -219, -458, -9, 348, -339, 361, 600, -4, -92, -165, -224, 
239, -214, -453, -12, 346, -334, 380, 614, 0, -92, -161, -224, 
239, -214, -453, -12, 346, -334, 390, 624, 19, -82, -156, -224, 
244, -209, -453, -17, 348, -331, 395, 634, 24, -73, -151, -219, 
244, -204, -448, -19, 346, -326, 395, 644, 39, -63, -146, -214, 
253, -190, -444, -31, 348, -317, 405, 653, 53, -53, -151, -214, 
253, -185, -439, -34, 346, -312, 409, 663, 63, -43, -141, -209, 
253, -180, -434, -36, 344, -307, 414, 668, 68, -34, -136, -209, 
253, -175, -429, -39, 341, -302, 424, 678, 87, -24, -131, -209, 
253, -161, -414, -46, 334, -287, 429, 688, 92, -24, -126, -204, 
253, -151, -405, -51, 329, -278, 434, 692, 107, -14, -122, -204, 
253, -146, -400, -53, 326, -273, 439, 697, 122, -4, -112, -195, 
253, -141, -395, -56, 324, -268, 439, 702, 131, 4, -112, -190, 
248, -141, -390, -53, 319, -265, 439, 702, 131, 14, -92, -190, 
248, -136, -385, -56, 317, -261, 444, 702, 146, 24, -87, -190, 
244, -131, -375, -56, 309, -253, 444, 702, 161, 39, -82, -180, 
244, -126, -370, -58, 307, -248, 448, 702, 175, 48, -78, -175, 
234, -122, -356, -56, 295, -239, 448, 702, 180, 53, -73, -170, 
234, -117, -351, -58, 292, -234, 448, 702, 195, 63, -63, -170, 
229, -112, -341, -58, 285, -226, 448, 702, 204, 73, -58, -165, 
229, -107, -336, -61, 283, -222, 448, 697, 214, 87, -53, -161, 
224, -107, -331, -58, 278, -219, 453, 692, 229, 97, -43, -156, 
219, -102, -322, -58, 270, -212, 453, 688, 239, 107, -39, -151, 
214, -92, -307, -61, 261, -200, 448, 673, 248, 112, -29, -146, 
204, -87, -292, -58, 248, -190, 444, 668, 258, 122, -24, -141, 
200, -73, -273, -63, 236, -173, 429, 649, 268, 112, -19, -136, 
195, -68, -263, -63, 229, -165, 424, 644, 278, 126, -19, -131, 
185, -63, -248, -61, 217, -156, 419, 629, 287, 131, -14, -126, 
175, -53, -229, -61, 202, -141, 414, 614, 292, 141, -9, -122, 
165, -58, -224, -53, 195, -141, 414, 610, 292, 141, -4, -112, 
161, -53, -214, -53, 187, -134, 405, 595, 297, 151, 4, -107, 
161, -48, -209, -56, 185, -129, 395, 580, 302, 156, 9, -102, 
156, -43, -200, -56, 178, -122, 385, 561, 312, 161, 14, -97, 
131, -39, -170, -46, 151, -104, 366, 536, 302, 175, 14, -102, 
122, -34, -156, -43, 139, -95, 356, 517, 302, 175, 19, -92, 
117, -29, -146, -43, 131, -87, 346, 497, 307, 175, 24, -87, 
107, -29, -136, -39, 122, -82, 336, 478, 307, 180, 29, -87, 
97, -29, -126, -34, 112, -78, 322, 458, 312, 180, 34, -78, 
97, -24, -122, -36, 109, -73, 312, 439, 312, 180, 34, -73, 
82, -24, -107, -29, 95, -65, 302, 419, 307, 180, 34, -68, 
73, -24, -97, -24, 85, -61, 292, 400, 302, 180, 39, -63, 
68, -9, -78, -29, 73, -43, 273, 380, 297, 180, 39, -48, 
58, -9, -68, -24, 63, -39, 263, 361, 292, 175, 39, -43, 
58, 0, -58, -29, 58, -29, 248, 341, 287, 175, 48, -39, 
53, 0, -53, -26, 53, -26, 244, 322, 283, 175, 48, -34, 
43, 0, -43, -21, 43, -21, 219, 302, 268, 170, 48, -29, 
39, 0, -39, -19, 39, -19, 204, 283, 258, 165, 48, -29, 
34, 4, -29, -19, 31, -12, 200, 263, 248, 161, 48, -29, 
29, 4, -24, -17, 26, -9, 190, 244, 239, 156, 48, -24, 
24, 14, -9, -19, 17, 2, 170, 224, 239, 161, 58, -14, 
19, 14, -4, -17, 12, 4, 161, 209, 229, 161, 58, -4, 
14, 19, 4, -17, 4, 12, 141, 195, 219, 156, 58, -4, 
9, 19, 9, -14, 0, 14, 136, 180, 209, 151, 58, -4, 
4, 19, 14, -12, -4, 17, 126, 156, 200, 141, 53, 0, 
4, 19, 14, -12, -4, 17, 117, 141, 190, 131, 53, 0, 
4, 19, 14, -12, -4, 17, 107, 126, 180, 126, 53, 9, 
0, 24, 24, -12, -12, 24, 97, 112, 170, 122, 53, 9, 
0, 24, 24, -12, -12, 24, 87, 102, 161, 126, 63, 14, 
-9, 24, 34, -7, -21, 29, 78, 87, 141, 117, 53, 14, 
-9, 19, 29, -4, -19, 24, 68, 73, 136, 107, 53, 14, 
-9, 19, 29, -4, -19, 24, 63, 68, 126, 107, 53, 14, 
-9, 19, 29, -4, -19, 24, 58, 68, 126, 102, 43, 14, 
-9, 19, 29, -4, -19, 24, 53, 68, 122, 97, 43, 14, 
-9, 19, 29, -4, -19, 24, 53, 63, 117, 92, 43, 14, 
-9, 19, 29, -4, -19, 24, 48, 58, 107, 87, 43, 14, 
-9, 19, 29, -4, -19, 24, 43, 43, 107, 82, 39, 14, 
-9, 19, 29, -4, -19, 24, 39, 39, 102, 78, 39, 14, 
-9, 19, 29, -4, -19, 24, 34, 39, 97, 73, 29, 14, 
-9, 14, 24, -2, -17, 19, 29, 34, 87, 68, 29, 9, 
-19, 4, 24, 7, -21, 14, 29, 19, 82, 63, 29, 9, 
-19, 4, 24, 7, -21, 14, 29, 14, 73, 58, 24, 9, 
-19, 4, 24, 7, -21, 14, 24, 14, 68, 58, 24, 9, 
-19, 0, 19, 9, -19, 9, 24, 14, 63, 53, 24, 9, 
-19, 9, 29, 4, -24, 19, 14, 14, 68, 48, 19, 9, 
-19, 4, 24, 7, -21, 14, 14, 9, 63, 43, 19, 9, 
-19, 4, 24, 7, -21, 14, 9, 9, 58, 39, 19, 9, 
-14, 4, 19, 4, -17, 12, 9, 4, 53, 39, 14, 9, 
-4, 4, 9, 0, -7, 7, 9, 4, 48, 34, 24, 9, 
-4, 4, 9, 0, -7, 7, 4, 4, 43, 34, 24, 9, 
-4, 0, 4, 2, -4, 2, 4, 4, 39, 34, 19, 9, 
-4, 0, 4, 2, -4, 2, 4, 4, 34, 34, 19, 4, 
-14, 9, 24, 2, -19, 17, 4, 4, 39, 34, 19, 14, 
-14, 4, 19, 4, -17, 12, 4, 0, 39, 29, 19, 14, 
-9, 4, 14, 2, -12, 9, 4, 0, 34, 29, 14, 14, 
-9, 4, 14, 2, -12, 9, 0, 0, 34, 29, 14, 14, 
0, 4, 4, -2, -2, 4, 0, 9, 34, 24, 14, 4, 
0, 4, 4, -2, -2, 4, 0, 9, 29, 24, 14, 4, 
0, 4, 4, -2, -2, 4, 0, 9, 29, 24, 9, 4, 
0, 0, 0, 0, 0, 0, 0, 9, 24, 24, 9, 0, 
0, 0, 0, 0, 0, 0, 0, 0, 24, 14, 14, 9, 
4, 0, -4, -2, 4, -2, 0, 0, 24, 14, 14, 9, 
4, 0, -4, -2, 4, -2, 0, 0, 24, 14, 14, 9, 
4, 0, -4, -2, 4, -2, 0, 4, 19, 14, 14, 9, 
4, -4, -9, 0, 7, -7, 0, 4, 19, 9, 9, 0, 
4, -4, -9, 0, 7, -7, 0, 4, 19, 9, 9, 0, 
4, -4, -9, 0, 7, -7, 0, 4, 19, 9, 9, 0, 
9, -4, -14, -2, 12, -9, 0, 4, 14, 9, 9, 0, 
0, -4, -4, 2, 2, -4, 0, 9, 24, 9, 0, 9, 
0, -4, -4, 2, 2, -4, 0, 9, 24, 9, 0, 9, 
0, -4, -4, 2, 2, -4, 0, 9, 24, 4, 0, 9, 
4, -4, -9, 0, 7, -7, 0, 9, 24, 4, -4, 9, 
4, -4, -9, 0, 7, -7, 0, 14, 24, 4, 4, 4, 
4, -9, -14, 2, 9, -12, 0, 14, 24, 0, 4, 4, 
4, -9, -14, 2, 9, -12, 0, 14, 24, 0, 4, 4, 
4, -9, -14, 2, 9, -12, 0, 14, 24, 0, 4, 4, 
4, -9, -14, 2, 9, -12, 0, 14, 14, 0, -4, -4, 
9, -9, -19, 0, 14, -14, 0, 14, 14, -4, -4, -4, 
9, -9, -19, 0, 14, -14, 0, 19, 14, -4, -9, -4, 
9, -9, -19, 0, 14, -14, 0, 19, 14, -4, -9, -4, 
9, -9, -19, 0, 14, -14, 0, 9, 14, -4, -9, -4, 
9, -9, -19, 0, 14, -14, 0, 9, 14, -4, -9, -9, 
9, -9, -19, 0, 14, -14, 0, 9, 14, -4, -9, -9, 
9, -14, -24, 2, 17, -19, 0, 14, 14, -4, -9, -9, 
9, -14, -24, 2, 17, -19, 0, 14, 4, -4, -9, -9, 
14, -14, -29, 0, 21, -21, 0, 14, 4, -4, -14, -9, 
14, -14, -29, 0, 21, -21, 0, 14, 4, 0, -14, -9, 
14, -14, -29, 0, 21, -21, 0, 14, 4, 0, -14, -14, 
4, -24, -29, 9, 17, -26, 0, 19, 4, 0, -14, -14, 
4, -24, -29, 9, 17, -26, 0, 19, 4, 0, -14, -14, 
4, -24, -29, 9, 17, -26, 0, 19, 4, 0, -14, -14, 
4, -24, -29, 9, 17, -26, 0, 19, 4, 0, -14, -14, 
4, -34, -39, 14, 21, -36, 0, 19, 4, -9, -14, -14, 
4, -34, -39, 14, 21, -36, 0, 19, 4, -9, -14, -14, 
4, -34, -39, 14, 21, -36, 0, 19, 4, -9, -14, -14, 
4, -34, -39, 14, 21, -36, 0, 19, 4, -9, -14, -14, 
4, -34, -39, 14, 21, -36, 0, 19, 4, -4, -19, -14, 
4, -34, -39, 14, 21, -36, 0, 14, 4, -4, -19, -19, 
4, -34, -39, 14, 21, -36, 0, 14, 4, -4, -19, -19, 
4, -34, -39, 14, 21, -36, 0, 14, 4, -9, -19, -19, 
4, -24, -29, 9, 17, -26, 0, 14, 4, -9, -19, -14, 
0, -24, -24, 12, 12, -24, 0, 14, 0, -9, -19, -14, 
0, -24, -24, 12, 12, -24, 0, 14, 0, -9, -24, -14, 
0, -29, -29, 14, 14, -29, -4, 14, 0, -9, -24, -14, 
0, -19, -19, 9, 9, -19, -4, 14, 0, -9, -24, -14, 
0, -19, -19, 9, 9, -19, -4, 14, -4, -9, -24, -14, 
0, -24, -24, 12, 12, -24, -4, 14, -4, -9, -24, -14, 
0, -24, -24, 12, 12, -24, -4, 9, -4, -9, -24, -14, 
9, -24, -34, 7, 21, -29, -4, 19, -9, -14, -19, -14, 
9, -24, -34, 7, 21, -29, -9, 19, -9, -14, -19, -14, 
4, -24, -29, 9, 17, -26, -9, 9, -9, -14, -19, -14, 
4, -29, -34, 12, 19, -31, -9, 9, -9, -14, -19, -14, 
4, -29, -34, 12, 19, -31, 0, 4, -9, -14, -19, -24, 
4, -29, -34, 12, 19, -31, -4, 4, -14, -19, -19, -24, 
4, -29, -34, 12, 19, -31, -4, 0, -14, -19, -19, -24, 
4, -29, -34, 12, 19, -31, -4, 0, -19, -19, -24, -24, 
-4, -39, -34, 21, 14, -36, -14, 9, -19, -19, -34, -24, 
-4, -39, -34, 21, 14, -36, -14, 4, -24, -24, -34, -24, 
-4, -39, -34, 21, 14, -36, -14, 0, -29, -24, -34, -24, 
-4, -39, -34, 21, 14, -36, -19, -4, -34, -24, -34, -24, 
4, -39, -43, 17, 24, -41, -9, -4, -34, -19, -34, -24, 
4, -39, -43, 17, 24, -41, -9, -4, -34, -19, -34, -24, 
4, -39, -43, 17, 24, -41, -14, -9, -34, -24, -34, -24, 
4, -39, -43, 17, 24, -41, -14, -9, -34, -24, -34, -24, 
-4, -43, -39, 24, 17, -41, -24, -9, -39, -34, -34, -29, 
-4, -43, -39, 24, 17, -41, -24, -14, -39, -39, -39, -29, 
-4, -43, -39, 24, 17, -41, -24, -14, -48, -39, -39, -24, 
-4, -43, -39, 24, 17, -41, -24, -14, -48, -43, -39, -24, 
-14, -48, -34, 31, 9, -41, -24, -24, -48, -43, -39, -24, 
-14, -48, -34, 31, 9, -41, -29, -24, -53, -43, -39, -29, 
-14, -48, -34, 31, 9, -41, -29, -29, -53, -43, -39, -29, 
-19, -53, -34, 36, 7, -43, -29, -29, -53, -43, -43, -29, 
-19, -63, -43, 41, 12, -53, -29, -29, -68, -58, -43, -39, 
-19, -68, -48, 43, 14, -58, -29, -34, -68, -58, -43, -39, 
-19, -68, -48, 43, 14, -58, -29, -34, -68, -58, -43, -39, 
-19, -68, -48, 43, 14, -58, -29, -39, -68, -58, -43, -39, 
-9, -63, -53, 36, 21, -58, -39, -29, -63, -63, -43, -29, 
-9, -58, -48, 34, 19, -53, -39, -29, -63, -63, -43, -29, 
-9, -48, -39, 29, 14, -43, -39, -29, -63, -63, -43, -29, 
-9, -43, -34, 26, 12, -39, -39, -29, -63, -63, -43, -29, 
-4, -29, -24, 17, 9, -26, -34, -29, -63, -58, -43, -24, 
0, -29, -29, 14, 14, -29, -34, -29, -63, -58, -43, -24, 
4, -29, -34, 12, 19, -31, -34, -29, -63, -53, -43, -24, 
9, -29, -39, 9, 24, -34, -34, -34, -63, -48, -43, -24, 
4, -24, -29, 9, 17, -26, -29, -43, -68, -48, -43, -19, 
4, -24, -29, 9, 17, -26, -29, -39, -68, -48, -43, -19, 
4, -24, -29, 9, 17, -26, -29, -39, -68, -48, -43, -19, 
4, -24, -29, 9, 17, -26, -29, -39, -68, -43, -39, -19, 
4, -24, -29, 9, 17, -26, -29, -39, -68, -53, -34, -29, 
4, -24, -29, 9, 17, -26, -29, -39, -68, -48, -34, -29, 
4, -19, -24, 7, 14, -21, -34, -43, -68, -48, -34, -24, 
9, -19, -29, 4, 19, -24, -34, -43, -68, -48, -34, -24, 
0, -19, -19, 9, 9, -19, -43, -43, -73, -53, -43, -24, 
4, -19, -24, 7, 14, -21, -39, -43, -73, -53, -39, -19, 
4, -19, -24, 7, 14, -21, -39, -43, -68, -43, -34, -14, 
4, -19, -24, 7, 14, -21, -39, -43, -73, -43, -34, -14, 
0, -19, -19, 9, 9, -19, -29, -43, -82, -43, -39, -19, 
0, -19, -19, 9, 9, -19, -34, -43, -78, -48, -39, -14, 
0, -19, -19, 9, 9, -19, -34, -43, -78, -53, -29, -19, 
4, -14, -19, 4, 12, -17, -39, -43, -78, -53, -29, -19, 
-4, -29, -24, 17, 9, -26, -29, -39, -87, -63, -34, -24, 
0, -29, -29, 14, 14, -29, -34, -39, -82, -58, -39, -24, 
0, -29, -29, 14, 14, -29, -39, -43, -82, -58, -39, -24, 
0, -24, -24, 12, 12, -24, -39, -48, -78, -58, -43, -9, 
-4, -29, -24, 17, 9, -26, -29, -43, -82, -63, -48, -14, 
-4, -24, -19, 14, 7, -21, -29, -43, -82, -63, -48, -19, 
4, -24, -29, 9, 17, -26, -34, -43, -82, -63, -43, -14, 
4, -24, -29, 9, 17, -26, -39, -53, -82, -58, -43, -19, 
4, -19, -24, 7, 14, -21, -29, -48, -82, -48, -39, -14, 
4, -14, -19, 4, 12, -17, -34, -43, -82, -48, -34, -9, 
4, -9, -14, 2, 9, -12, -39, -43, -82, -43, -29, -9, 
4, 0, -4, -2, 4, -2, -43, -43, -82, -43, -29, -4, 
19, 14, -4, -17, 12, 4, -19, -39, -68, -34, -14, 0, 
19, 19, 0, -19, 9, 9, -19, -29, -58, -29, -9, 0, 
24, 34, 9, -29, 7, 21, -19, -29, -48, -19, 0, 9, 
29, 39, 9, -34, 9, 24, -19, -29, -48, -19, 0, 9, 
34, 43, 9, -39, 12, 26, -19, -29, -48, -19, 0, 9, 
39, 48, 9, -43, 14, 29, -19, -29, -48, -19, 0, 9, 
48, 68, 19, -58, 14, 43, -19, -29, -43, -9, 0, 14, 
53, 73, 19, -63, 17, 46, -19, -29, -43, -9, 4, 14, 
58, 78, 19, -68, 19, 48, -29, -29, -39, -4, 14, 24, 
63, 82, 19, -73, 21, 51, -34, -29, -34, 0, 19, 29, 
58, 82, 24, -70, 17, 53, -39, -24, -34, -4, 19, 34, 
58, 92, 34, -75, 12, 63, -43, -29, -34, 0, 24, 39, 
63, 102, 39, -82, 12, 70, -58, -34, -24, 0, 29, 39, 
68, 112, 43, -90, 12, 78, -58, -39, -24, 4, 34, 43, 
63, 117, 53, -90, 4, 85, -63, -43, -24, 9, 29, 39, 
63, 122, 58, -92, 2, 90, -73, -48, -24, 9, 34, 48, 
58, 122, 63, -90, -2, 92, -82, -53, -24, 14, 34, 48, 
53, 126, 73, -90, -9, 100, -92, -58, -19, 14, 39, 58, 
43, 126, 82, -85, -19, 104, -102, -73, -19, 24, 53, 63, 
48, 136, 87, -92, -19, 112, -107, -78, -19, 29, 53, 68, 
48, 136, 87, -92, -19, 112, -117, -87, -24, 29, 53, 73, 
48, 141, 92, -95, -21, 117, -126, -92, -29, 29, 58, 78, 
53, 151, 97, -102, -21, 124, -136, -102, -24, 29, 58, 87, 
58, 161, 102, -109, -21, 131, -136, -102, -24, 29, 63, 92, 
63, 170, 107, -117, -21, 139, -146, -112, -29, 29, 63, 97, 
68, 180, 112, -124, -21, 146, -151, -117, -34, 29, 68, 97, 
78, 190, 112, -134, -17, 151, -156, -112, -39, 39, 78, 97, 
82, 195, 112, -139, -14, 153, -161, -117, -39, 39, 78, 102, 
87, 200, 112, -143, -12, 156, -165, -122, -43, 39, 78, 102, 
97, 204, 107, -151, -4, 156, -170, -122, -48, 39, 78, 107, 
97, 204, 107, -151, -4, 156, -185, -131, -58, 29, 73, 107, 
97, 204, 107, -151, -4, 156, -185, -136, -58, 29, 73, 112, 
97, 204, 107, -151, -4, 156, -185, -136, -58, 29, 82, 112, 
97, 214, 117, -156, -9, 165, -185, -136, -58, 34, 82, 122, 
87, 204, 117, -146, -14, 161, -185, -136, -68, 34, 82, 112, 
87, 209, 122, -148, -17, 165, -185, -136, -73, 34, 82, 112, 
87, 209, 122, -148, -17, 165, -190, -141, -73, 34, 87, 117, 
87, 209, 122, -148, -17, 165, -190, -141, -73, 34, 87, 117, 
78, 204, 126, -141, -24, 165, -190, -141, -73, 34, 97, 117, 
78, 204, 126, -141, -24, 165, -185, -141, -78, 34, 97, 117, 
78, 204, 126, -141, -24, 165, -185, -141, -78, 34, 97, 117, 
78, 200, 122, -139, -21, 161, -185, -141, -78, 34, 97, 117, 
82, 195, 112, -139, -14, 153, -175, -136, -78, 34, 97, 126, 
82, 195, 112, -139, -14, 153, -170, -136, -78, 34, 87, 117, 
73, 185, 112, -129, -19, 148, -165, -126, -73, 24, 82, 112, 
73, 175, 102, -124, -14, 139, -156, -122, -73, 19, 78, 102, 
73, 170, 97, -122, -12, 134, -146, -117, -73, 14, 73, 92, 
68, 156, 87, -112, -9, 122, -136, -112, -82, 9, 68, 82, 
58, 141, 82, -100, -12, 112, -126, -107, -82, 4, 53, 73, 
48, 117, 68, -82, -9, 92, -122, -102, -87, 0, 48, 63, 
39, 107, 68, -73, -14, 87, -112, -97, -92, -14, 39, 63, 
29, 87, 58, -58, -14, 73, -102, -97, -92, -24, 29, 53, 
24, 68, 43, -46, -9, 56, -97, -97, -97, -34, 19, 43, 
14, 48, 34, -31, -9, 41, -87, -97, -102, -39, 9, 34, 
-4, 29, 34, -12, -19, 31, -73, -82, -107, -48, 0, 24, 
-9, 14, 24, -2, -17, 19, -68, -82, -112, -58, -9, 14, 
-9, 4, 14, 2, -12, 9, -63, -82, -117, -63, -19, 4, 
-14, -9, 4, 12, -9, -2, -58, -78, -122, -63, -19, -4, 
-29, -34, -4, 31, -12, -19, -63, -78, -126, -73, -34, -14, 
-39, -48, -9, 43, -14, -29, -58, -78, -126, -78, -39, -24, 
-39, -53, -14, 46, -12, -34, -58, -78, -131, -87, -48, -29, 
-43, -73, -29, 58, -7, -51, -58, -78, -136, -92, -48, -34, 
-39, -78, -39, 58, 0, -58, -48, -78, -141, -97, -43, -39, 
-39, -87, -48, 63, 4, -68, -43, -78, -141, -102, -48, -43, 
-43, -92, -48, 68, 2, -70, -43, -78, -141, -102, -53, -48, 
-43, -97, -53, 70, 4, -75, -43, -78, -141, -102, -58, -48, 
-53, -107, -53, 80, 0, -80, -43, -78, -141, -102, -58, -48, 
-53, -112, -58, 82, 2, -85, -43, -78, -141, -107, -58, -53, 
-53, -112, -58, 82, 2, -85, -39, -78, -141, -107, -58, -53, 
-58, -112, -53, 85, -2, -82, -39, -78, -141, -102, -58, -53, 
-58, -112, -53, 85, -2, -82, -39, -78, -141, -102, -58, -58, 
-58, -117, -58, 87, 0, -87, -39, -73, -141, -102, -58, -58, 
-58, -117, -58, 87, 0, -87, -34, -73, -141, -102, -63, -58, 
-58, -117, -58, 87, 0, -87, -34, -73, -141, -102, -63, -63, 
-48, -107, -58, 78, 4, -82, -24, -68, -141, -97, -63, -63, 
-48, -112, -63, 80, 7, -87, -24, -68, -141, -97, -63, -63, 
-48, -112, -63, 80, 7, -87, -24, -68, -141, -97, -63, -63, 
-48, -112, -63, 80, 7, -87, -24, -68, -141, -97, -63, -58, 
-39, -102, -63, 70, 12, -82, -19, -58, -131, -87, -53, -58, 
-29, -102, -73, 65, 21, -87, -19, -53, -131, -92, -58, -63, 
-29, -102, -73, 65, 21, -87, -19, -43, -131, -97, -63, -63, 
-29, -117, -87, 73, 29, -102, -4, -34, -146, -112, -68, -78, 
-34, -136, -102, 85, 34, -119, 29, -4, -151, -126, -87, -92, 
-34, -170, -136, 102, 51, -153, 63, 34, -165, -156, -112, -112, 
-34, -219, -185, 126, 75, -202, 112, 82, -195, -204, -165, -141, 
-63, -278, -214, 170, 75, -246, 161, 107, -214, -253, -200, -175, 
-78, -307, -229, 192, 75, -268, 185, 107, -244, -287, -234, -185, 
-102, -341, -239, 222, 68, -290, 209, 102, -268, -326, -258, -204, 
-122, -380, -258, 251, 68, -319, 258, 122, -292, -370, -297, -219, 
-156, -429, -273, 292, 58, -351, 322, 141, -331, -424, -336, -248, 
-190, -473, -283, 331, 46, -378, 380, 165, -356, -473, -375, -268, 
-214, -492, -278, 353, 31, -385, 409, 175, -390, -517, -405, -287, 
-214, -502, -287, 358, 36, -395, 419, 161, -419, -546, -419, -287, 
-195, -497, -302, 346, 53, -400, 405, 146, -453, -566, -429, -287, 
-151, -448, -297, 300, 73, -373, 356, 141, -463, -551, -409, -278, 
-87, -380, -292, 234, 102, -336, 278, 102, -439, -492, -356, -248, 
-14, -268, -253, 141, 119, -261, 161, 34, -409, -390, -283, -200, 
78, -117, -195, 19, 136, -156, 0, -34, -341, -239, -165, -122, 
180, 102, -78, -141, 129, 12, -175, -107, -204, -24, 4, -14, 
278, 326, 48, -302, 114, 187, -375, -200, -48, 195, 180, 97, 
380, 517, 136, -448, 122, 326, -570, -268, 48, 370, 322, 200, 
463, 678, 214, -570, 124, 446, -761, -341, 102, 502, 439, 283, 
512, 868, 356, -690, 78, 612, -985, -492, 136, 634, 566, 405, 
527, 1132, 605, -829, -39, 868, -1302, -810, 161, 785, 732, 575, 
478, 1439, 961, -958, -241, 1200, -1698, -1327, 146, 922, 936, 800, 
356, 1698, 1342, -1027, -492, 1520, -2142, -2039, 73, 980, 1093, 1019, 
239, 1800, 1561, -1019, -661, 1681, -2498, -2674, -39, 893, 1141, 1156, 
190, 1678, 1488, -934, -649, 1583, -2615, -2913, -126, 688, 1029, 1132, 
195, 1351, 1156, -773, -480, 1254, -2508, -2820, -244, 419, 795, 966, 
175, 956, 780, -566, -302, 868, -2274, -2644, -458, 117, 531, 741, 
87, 629, 541, -358, -226, 585, -2044, -2483, -819, -219, 307, 580, 
-39, 434, 473, -197, -256, 453, -1805, -2288, -1176, -488, 156, 502, 
-141, 292, 434, -75, -287, 363, -1517, -2005, -1293, -575, 92, 434, 
-200, 170, 370, 14, -285, 270, -1205, -1659, -1205, -536, 48, 356, 
-219, 107, 326, 56, -273, 217, -966, -1366, -1039, -483, 29, 292, 
-219, 87, 307, 65, -263, 197, -795, -1146, -834, -370, 58, 273, 
-229, 58, 287, 85, -258, 173, -644, -941, -629, -278, 58, 219, 
-239, -14, 224, 126, -231, 104, -502, -766, -497, -239, 29, 161, 
-234, -39, 195, 136, -214, 78, -395, -634, -414, -204, 14, 122, 
-209, -43, 165, 126, -187, 61, -292, -497, -336, -161, 14, 97, 
-180, -78, 102, 129, -141, 12, -195, -375, -287, -151, -4, 48, 
-165, -117, 48, 141, -107, -34, -117, -283, -258, -151, -39, 0, 
-136, -136, 0, 136, -68, -68, -78, -219, -244, -151, -53, -34, 
-112, -151, -39, 131, -36, -95, -58, -170, -224, -151, -78, -63, 
-92, -161, -68, 126, -12, -114, -34, -136, -209, -151, -87, -78, 
-68, -165, -97, 117, 14, -131, -19, -97, -185, -146, -97, -87, 
-58, -165, -107, 112, 24, -136, -4, -68, -170, -136, -97, -92, 
-39, -170, -131, 104, 46, -151, 4, -34, -161, -126, -102, -102, 
-24, -175, -151, 100, 63, -163, 19, 0, -165, -136, -102, -102, 
-9, -180, -170, 95, 80, -175, 34, 14, -185, -141, -102, -122, 
14, -190, -204, 87, 109, -197, 39, 39, -180, -151, -122, -141, 
24, -185, -209, 80, 117, -197, 39, 29, -190, -156, -122, -141, 
29, -185, -214, 78, 122, -200, 34, 29, -190, -156, -117, -136, 
34, -180, -214, 73, 124, -197, 34, 29, -190, -156, -117, -136, 
34, -180, -214, 73, 124, -197, 34, 29, -190, -151, -117, -136, 
43, -170, -214, 63, 129, -192, 34, 39, -190, -161, -117, -131, 
43, -170, -214, 63, 129, -192, 43, 53, -185, -165, -122, -136, 
53, -180, -234, 63, 143, -207, 48, 68, -185, -165, -126, -131, 
58, -180, -239, 61, 148, -209, 48, 73, -185, -165, -126, -126, 
58, -180, -239, 61, 148, -209, 48, 73, -185, -165, -122, -136, 
58, -175, -234, 58, 146, -204, 48, 73, -185, -170, -122, -136, 
58, -175, -234, 58, 146, -204, 48, 78, -185, -170, -122, -136, 
63, -175, -239, 56, 151, -207, 53, 78, -185, -170, -122, -136, 
53, -175, -229, 61, 141, -202, 53, 82, -175, -170, -136, -141, 
63, -180, -244, 58, 153, -212, 53, 87, -180, -180, -136, -141, 
68, -180, -248, 56, 158, -214, 58, 92, -180, -180, -136, -146, 
68, -190, -258, 61, 163, -224, 63, 97, -180, -180, -141, -151, 
68, -200, -268, 65, 168, -234, 63, 102, -180, -180, -151, -151, 
68, -200, -268, 65, 168, -234, 63, 107, -185, -180, -151, -151, 
73, -200, -273, 63, 173, -236, 68, 112, -185, -185, -151, -151, 
78, -200, -278, 61, 178, -239, 68, 117, -185, -185, -151, -156, 
68, -209, -278, 70, 173, -244, 58, 126, -195, -185, -156, -156, 
73, -209, -283, 68, 178, -246, 68, 131, -195, -190, -156, -161, 
73, -209, -283, 68, 178, -246, 68, 136, -195, -195, -161, -161, 
82, -209, -292, 63, 187, -251, 68, 141, -200, -195, -161, -161, 
92, -219, -312, 63, 202, -265, 78, 136, -200, -195, -161, -165, 
92, -219, -312, 63, 202, -265, 78, 146, -200, -195, -165, -165, 
97, -219, -317, 61, 207, -268, 82, 151, -204, -204, -165, -170, 
97, -219, -317, 61, 207, -268, 82, 156, -204, -204, -165, -170, 
102, -224, -326, 61, 214, -275, 87, 170, -214, -214, -175, -175, 
107, -224, -331, 58, 219, -278, 87, 175, -214, -219, -175, -180, 
107, -229, -336, 61, 222, -283, 92, 180, -214, -219, -175, -180, 
112, -229, -341, 58, 226, -285, 92, 185, -214, -219, -180, -180, 
131, -229, -361, 48, 246, -295, 92, 190, -214, -219, -190, -190, 
131, -229, -361, 48, 246, -295, 92, 195, -214, -219, -190, -190, 
126, -234, -361, 53, 244, -297, 102, 200, -214, -219, -195, -195, 
126, -234, -361, 53, 244, -297, 102, 209, -214, -219, -195, -195, 
131, -234, -366, 51, 248, -300, 112, 219, -214, -219, -195, -195, 
131, -239, -370, 53, 251, -305, 112, 224, -214, -224, -195, -200, 
131, -239, -370, 53, 251, -305, 112, 229, -214, -224, -200, -200, 
141, -239, -380, 48, 261, -309, 122, 239, -214, -224, -200, -200, 
131, -248, -380, 58, 256, -314, 136, 253, -214, -224, -200, -200, 
131, -248, -380, 58, 256, -314, 141, 253, -209, -224, -200, -204, 
141, -248, -390, 53, 265, -319, 146, 258, -209, -224, -200, -204, 
146, -248, -395, 51, 270, -322, 151, 273, -209, -224, -200, -204, 
141, -258, -400, 58, 270, -329, 156, 273, -204, -219, -200, -214, 
141, -258, -400, 58, 270, -329, 161, 287, -204, -219, -200, -214, 
151, -258, -409, 53, 280, -334, 165, 292, -195, -219, -204, -219, 
156, -258, -414, 51, 285, -336, 175, 307, -190, -219, -204, -219, 
156, -248, -405, 46, 280, -326, 180, 317, -190, -219, -204, -219, 
161, -253, -414, 46, 287, -334, 185, 326, -185, -214, -200, -219, 
165, -253, -419, 43, 292, -336, 195, 336, -180, -209, -200, -219, 
170, -248, -419, 39, 295, -334, 200, 346, -175, -209, -204, -224, 
175, -239, -414, 31, 295, -326, 195, 361, -170, -209, -204, -224, 
185, -239, -424, 26, 305, -331, 200, 370, -165, -209, -204, -229, 
190, -239, -429, 24, 309, -334, 209, 380, -161, -200, -204, -229, 
200, -239, -439, 19, 319, -339, 214, 390, -156, -195, -200, -229, 
214, -229, -444, 7, 329, -336, 229, 400, -141, -204, -204, -219, 
219, -224, -444, 2, 331, -334, 239, 409, -136, -204, -204, -219, 
219, -224, -444, 2, 331, -334, 248, 419, -126, -195, -204, -219, 
224, -219, -444, -2, 334, -331, 258, 439, -122, -190, -204, -219, 
239, -219, -458, -9, 348, -339, 268, 453, -117, -195, -204, -219, 
244, -214, -458, -14, 351, -336, 273, 463, -112, -180, -195, -219, 
248, -214, -463, -17, 356, -339, 278, 483, -102, -180, -190, -219, 
248, -214, -463, -17, 356, -339, 292, 492, -92, -175, -190, -219, 
239, -214, -453, -12, 346, -334, 312, 522, -82, -180, -200, -229, 
244, -214, -458, -14, 351, -336, 322, 531, -73, -175, -200, -229, 
244, -214, -458, -14, 351, -336, 331, 551, -68, -161, -190, -229, 
244, -214, -458, -14, 351, -336, 336, 556, -58, -161, -185, -229, 
248, -224, -473, -12, 361, -348, 356, 580, -58, -151, -190, -229, 
248, -219, -468, -14, 358, -344, 361, 585, -48, -146, -185, -229, 
258, -214, -473, -21, 366, -344, 370, 600, -39, -146, -180, -229, 
258, -209, -468, -24, 363, -339, 380, 610, -24, -141, -175, -224, 
258, -204, -463, -26, 361, -334, 400, 624, -19, -141, -170, -234, 
258, -204, -463, -26, 361, -334, 409, 634, 0, -131, -165, -234, 
263, -200, -463, -31, 363, -331, 414, 644, 4, -122, -161, -229, 
263, -195, -458, -34, 361, -326, 414, 653, 19, -112, -156, -224, 
263, -190, -453, -36, 358, -322, 434, 663, 34, -102, -161, -224, 
263, -185, -448, -39, 356, -317, 439, 673, 43, -92, -151, -219, 
263, -180, -444, -41, 353, -312, 444, 678, 48, -82, -146, -219, 
263, -175, -439, -43, 351, -307, 453, 688, 68, -73, -141, -219, 
253, -170, -424, -41, 339, -297, 458, 697, 82, -73, -126, -214, 
253, -161, -414, -46, 334, -287, 463, 702, 97, -63, -122, -214, 
253, -156, -409, -48, 331, -283, 468, 707, 112, -53, -112, -204, 
253, -151, -405, -51, 329, -278, 468, 712, 122, -43, -112, -200, 
258, -141, -400, -58, 329, -270, 478, 722, 131, -24, -102, -200, 
258, -136, -395, -61, 326, -265, 483, 722, 146, -14, -97, -200, 
253, -131, -385, -61, 319, -258, 483, 722, 161, 0, -92, -190, 
253, -126, -380, -63, 317, -253, 488, 722, 175, 9, -87, -185, 
253, -117, -370, -68, 312, -244, 478, 722, 190, 19, -73, -180, 
253, -107, -361, -73, 307, -234, 478, 722, 204, 34, -63, -180, 
248, -97, -346, -75, 297, -222, 478, 722, 214, 48, -58, -175, 
248, -87, -336, -80, 292, -212, 478, 717, 224, 68, -53, -170, 
244, -68, -312, -87, 278, -190, 483, 712, 239, 78, -43, -165, 
239, -63, -302, -87, 270, -183, 483, 707, 248, 87, -39, -161, 
234, -53, -287, -90, 261, -170, 478, 692, 258, 92, -29, -156, 
224, -48, -273, -87, 248, -161, 473, 688, 268, 102, -24, -151, 
219, -53, -273, -82, 246, -163, 468, 678, 287, 112, -9, -136, 
214, -48, -263, -82, 239, -156, 463, 673, 297, 126, -9, -131, 
204, -43, -248, -80, 226, -146, 458, 658, 307, 131, -4, -126, 
195, -34, -229, -80, 212, -131, 453, 644, 312, 141, 0, -122, 
175, -29, -204, -73, 190, -117, 444, 619, 312, 131, 4, -112, 
170, -24, -195, -73, 183, -109, 434, 605, 317, 141, 14, -107, 
170, -19, -190, -75, 180, -104, 424, 590, 322, 146, 19, -102, 
165, -14, -180, -75, 173, -97, 414, 570, 331, 151, 24, -97, 
151, -9, -161, -70, 156, -85, 405, 566, 341, 165, 34, -92, 
141, -4, -146, -68, 143, -75, 395, 546, 341, 165, 39, -82, 
136, 0, -136, -68, 136, -68, 385, 527, 346, 165, 43, -78, 
126, 0, -126, -63, 126, -63, 375, 507, 346, 170, 48, -78, 
126, 9, -117, -68, 122, -53, 351, 488, 351, 170, 53, -68, 
126, 14, -112, -70, 119, -48, 341, 468, 351, 170, 53, -63, 
112, 14, -97, -63, 104, -41, 331, 448, 346, 170, 53, -58, 
102, 14, -87, -58, 95, -36, 322, 429, 341, 170, 58, -53, 
97, 29, -68, -63, 82, -19, 302, 409, 336, 180, 58, -48, 
87, 29, -58, -58, 73, -14, 292, 390, 331, 175, 58, -43, 
87, 39, -48, -63, 68, -4, 278, 370, 326, 175, 68, -39, 
82, 39, -43, -61, 63, -2, 273, 351, 322, 175, 68, -34, 
73, 39, -34, -56, 53, 2, 248, 331, 317, 180, 68, -19, 
68, 39, -29, -53, 48, 4, 234, 312, 307, 175, 68, -19, 
63, 43, -19, -53, 41, 12, 229, 292, 297, 170, 68, -19, 
58, 43, -14, -51, 36, 14, 219, 273, 287, 165, 68, -14, 
43, 43, 0, -43, 21, 21, 200, 258, 278, 161, 68, -14, 
39, 43, 4, -41, 17, 24, 190, 239, 268, 161, 68, -4, 
34, 48, 14, -41, 9, 31, 170, 219, 258, 156, 68, -4, 
29, 48, 19, -39, 4, 34, 165, 200, 248, 151, 68, -4, 
24, 48, 24, -36, 0, 36, 146, 185, 229, 151, 63, 0, 
24, 48, 24, -36, 0, 36, 136, 170, 219, 141, 63, 0, 
24, 48, 24, -36, 0, 36, 126, 156, 209, 136, 63, 9, 
19, 53, 34, -36, -7, 43, 117, 141, 200, 131, 63, 9, 
29, 53, 24, -41, 2, 39, 97, 122, 190, 136, 73, 4, 
19, 53, 34, -36, -7, 43, 87, 107, 170, 126, 63, 4, 
19, 48, 29, -34, -4, 39, 78, 92, 165, 117, 63, 4, 
19, 48, 29, -34, -4, 39, 73, 87, 156, 117, 63, 4, 
9, 48, 39, -29, -14, 43, 68, 78, 146, 112, 53, 4, 
9, 48, 39, -29, -14, 43, 63, 78, 141, 107, 53, 4, 
9, 48, 39, -29, -14, 43, 63, 73, 136, 102, 53, 4, 
9, 48, 39, -29, -14, 43, 58, 68, 126, 97, 53, 4, 
9, 39, 29, -24, -9, 34, 63, 53, 117, 82, 48, -4, 
9, 39, 29, -24, -9, 34, 58, 48, 112, 78, 48, -4, 
9, 39, 29, -24, -9, 34, 53, 48, 107, 73, 39, -4, 
9, 34, 24, -21, -7, 29, 48, 43, 97, 68, 39, -9, 
19, 34, 14, -26, 2, 24, 48, 39, 102, 53, 29, 0, 
19, 34, 14, -26, 2, 24, 48, 34, 92, 48, 24, 0, 
19, 34, 14, -26, 2, 24, 43, 34, 87, 48, 24, 0, 
19, 29, 9, -24, 4, 19, 43, 34, 82, 43, 24, 0, 
19, 29, 9, -24, 4, 19, 34, 34, 78, 39, 19, 0, 
19, 24, 4, -21, 7, 14, 34, 29, 73, 34, 19, 0, 
19, 24, 4, -21, 7, 14, 29, 29, 68, 29, 19, 0, 
24, 24, 0, -24, 12, 12, 29, 24, 63, 29, 14, 0, 
24, 24, 0, -24, 12, 12, 29, 24, 58, 14, 14, 0, 
24, 24, 0, -24, 12, 12, 24, 24, 53, 14, 14, 0, 
24, 19, -4, -21, 14, 7, 24, 24, 48, 14, 9, 0, 
24, 19, -4, -21, 14, 7, 24, 24, 43, 14, 9, -4, 
14, 9, -4, -12, 9, 2, 24, 24, 39, 4, 9, -4, 
14, 4, -9, -9, 12, -2, 24, 19, 39, 0, 9, -4, 
19, 4, -14, -12, 17, -4, 24, 19, 34, 0, 4, -4, 
19, 4, -14, -12, 17, -4, 19, 19, 34, 0, 4, -4, 
29, 4, -24, -17, 26, -9, 19, 19, 34, -4, -4, -4, 
29, 4, -24, -17, 26, -9, 19, 19, 29, -4, -4, -4, 
29, 4, -24, -17, 26, -9, 19, 19, 29, -4, -9, -4, 
29, 0, -29, -14, 29, -14, 19, 19, 24, -4, -9, -9, 
19, 0, -19, -9, 19, -9, 19, 19, 24, -4, -4, -9, 
24, 0, -24, -12, 24, -12, 19, 19, 24, -4, -4, -9, 
24, 0, -24, -12, 24, -12, 19, 19, 24, -4, -4, -9, 
24, 0, -24, -12, 24, -12, 19, 24, 19, -4, -4, -9, 
24, -4, -29, -9, 26, -17, 19, 24, 9, -9, -19, -19, 
24, -4, -29, -9, 26, -17, 19, 24, 9, -9, -19, -19, 
24, -4, -29, -9, 26, -17, 19, 24, 9, -9, -19, -19, 
29, -4, -34, -12, 31, -19, 19, 24, 4, -9, -19, -19, 
29, -14, -43, -7, 36, -29, 19, 19, 4, -9, -19, -19, 
29, -14, -43, -7, 36, -29, 19, 19, 4, -9, -19, -19, 
29, -14, -43, -7, 36, -29, 19, 19, 4, -14, -19, -19, 
34, -14, -48, -9, 41, -31, 19, 19, 4, -14, -24, -19, 
34, -14, -48, -9, 41, -31, 19, 34, 14, -14, -24, -14, 
34, -19, -53, -7, 43, -36, 19, 34, 14, -19, -24, -14, 
34, -19, -53, -7, 43, -36, 19, 34, 14, -19, -24, -14, 
34, -19, -53, -7, 43, -36, 19, 34, 14, -19, -24, -14, 
34, -29, -63, -2, 48, -46, 29, 34, 14, -19, -24, -14, 
39, -29, -68, -4, 53, -48, 29, 34, 14, -24, -24, -14, 
39, -29, -68, -4, 53, -48, 29, 39, 14, -24, -29, -14, 
39, -29, -68, -4, 53, -48, 29, 39, 14, -24, -29, -14, 
39, -39, -78, 0, 58, -58, 29, 39, 14, -24, -29, -14, 
39, -39, -78, 0, 58, -58, 29, 39, 14, -24, -29, -19, 
39, -39, -78, 0, 58, -58, 29, 39, 14, -24, -29, -19, 
39, -43, -82, 2, 61, -63, 29, 43, 14, -24, -29, -19, 
29, -43, -73, 7, 51, -58, 39, 43, 4, -34, -29, -29, 
34, -43, -78, 4, 56, -61, 39, 43, 4, -34, -34, -29, 
34, -43, -78, 4, 56, -61, 39, 43, 4, -29, -34, -29, 
34, -43, -78, 4, 56, -61, 39, 43, 4, -29, -34, -34, 
43, -34, -78, -4, 61, -56, 29, 48, 4, -19, -34, -24, 
43, -34, -78, -4, 61, -56, 29, 48, 4, -19, -34, -24, 
43, -34, -78, -4, 61, -56, 29, 48, 4, -19, -34, -24, 
43, -34, -78, -4, 61, -56, 29, 48, 4, -19, -34, -24, 
34, -24, -58, -4, 46, -41, 29, 48, 14, -19, -34, -24, 
34, -24, -58, -4, 46, -41, 29, 48, 14, -19, -34, -24, 
34, -24, -58, -4, 46, -41, 29, 48, 14, -19, -34, -24, 
34, -24, -58, -4, 46, -41, 29, 48, 14, -19, -34, -24, 
24, -34, -58, 4, 41, -46, 29, 39, 14, -14, -39, -34, 
24, -34, -58, 4, 41, -46, 29, 34, 14, -14, -39, -39, 
24, -34, -58, 4, 41, -46, 29, 34, 14, -14, -39, -39, 
24, -34, -58, 4, 41, -46, 29, 34, 14, -19, -39, -39, 
34, -43, -78, 4, 56, -61, 29, 43, 14, -19, -48, -43, 
29, -43, -73, 7, 51, -58, 29, 43, 9, -19, -48, -43, 
29, -43, -73, 7, 51, -58, 29, 43, 9, -19, -53, -43, 
29, -48, -78, 9, 53, -63, 24, 43, 9, -19, -53, -43, 
29, -39, -68, 4, 48, -53, 24, 43, 9, -19, -53, -43, 
29, -39, -68, 4, 48, -53, 24, 43, 4, -19, -53, -43, 
29, -43, -73, 7, 51, -58, 24, 43, 4, -19, -53, -43, 
29, -43, -73, 7, 51, -58, 24, 39, 4, -19, -53, -43, 
19, -43, -63, 12, 41, -53, 24, 39, 9, -24, -58, -43, 
19, -43, -63, 12, 41, -53, 19, 39, 9, -24, -58, -43, 
14, -43, -58, 14, 36, -51, 19, 29, 9, -24, -58, -43, 
14, -48, -63, 17, 39, -56, 19, 29, 9, -24, -58, -43, 
14, -48, -63, 17, 39, -56, 19, 34, 9, -34, -58, -43, 
14, -48, -63, 17, 39, -56, 14, 34, 4, -39, -58, -43, 
14, -48, -63, 17, 39, -56, 14, 29, 4, -39, -58, -43, 
14, -48, -63, 17, 39, -56, 14, 29, 0, -39, -63, -43, 
14, -58, -73, 21, 43, -65, 14, 39, 9, -29, -63, -34, 
14, -58, -73, 21, 43, -65, 14, 34, 4, -34, -63, -34, 
14, -58, -73, 21, 43, -65, 14, 29, 0, -34, -63, -34, 
14, -58, -73, 21, 43, -65, 9, 24, -4, -34, -63, -34, 
14, -58, -73, 21, 43, -65, 19, 24, -4, -29, -53, -34, 
14, -58, -73, 21, 43, -65, 19, 24, -4, -29, -53, -34, 
14, -58, -73, 21, 43, -65, 14, 19, -4, -34, -53, -34, 
14, -58, -73, 21, 43, -65, 14, 19, -4, -34, -53, -34, 
24, -63, -87, 19, 56, -75, 4, 19, 0, -34, -53, -39, 
24, -63, -87, 19, 56, -75, 4, 14, 0, -39, -58, -39, 
24, -63, -87, 19, 56, -75, 4, 14, -9, -39, -58, -34, 
24, -63, -87, 19, 56, -75, 4, 14, -9, -43, -58, -34, 
14, -58, -73, 21, 43, -65, 4, 14, -9, -34, -58, -34, 
14, -58, -73, 21, 43, -65, 0, 14, -14, -34, -58, -39, 
14, -58, -73, 21, 43, -65, 0, 9, -14, -34, -58, -39, 
9, -63, -73, 26, 41, -68, 0, 9, -14, -34, -63, -39, 
9, -63, -73, 26, 41, -68, -9, 9, -29, -48, -63, -29, 
9, -68, -78, 29, 43, -73, -9, 4, -29, -48, -63, -29, 
9, -68, -78, 29, 43, -73, -9, 4, -29, -48, -63, -29, 
9, -68, -78, 29, 43, -73, -9, 0, -29, -48, -63, -29, 
9, -58, -68, 24, 39, -63, -9, -9, -34, -43, -63, -29, 
9, -58, -68, 24, 39, -63, -9, -9, -34, -43, -63, -29, 
9, -53, -63, 21, 36, -58, -9, -9, -34, -43, -63, -29, 
9, -53, -63, 21, 36, -58, -9, -9, -34, -43, -63, -29, 
9, -58, -68, 24, 39, -63, -14, -9, -43, -53, -63, -34, 
9, -58, -68, 24, 39, -63, -14, -9, -43, -58, -63, -34, 
9, -58, -68, 24, 39, -63, -14, -9, -43, -58, -63, -34, 
9, -58, -68, 24, 39, -63, -14, -14, -43, -58, -63, -34, 
14, -53, -68, 19, 41, -61, -9, -14, -48, -58, -73, -39, 
14, -53, -68, 19, 41, -61, -9, -9, -48, -58, -73, -39, 
14, -53, -68, 19, 41, -61, -9, -9, -48, -58, -73, -39, 
14, -53, -68, 19, 41, -61, -9, -9, -48, -53, -68, -39, 
4, -58, -63, 26, 34, -61, -9, -19, -48, -53, -63, -39, 
4, -53, -58, 24, 31, -56, -9, -19, -48, -48, -63, -39, 
4, -43, -48, 19, 26, -46, -14, -24, -48, -48, -63, -34, 
9, -39, -48, 14, 29, -43, -14, -24, -48, -48, -63, -34, 
9, -43, -53, 17, 31, -48, -14, -14, -58, -43, -63, -34, 
14, -39, -53, 12, 34, -46, -9, -14, -53, -43, -58, -29, 
14, -34, -48, 9, 31, -41, -9, -14, -43, -34, -53, -24, 
14, -29, -43, 7, 29, -36, -9, -14, -43, -34, -53, -24, 
19, -14, -34, -2, 26, -24, -9, -14, -34, -29, -48, -34, 
19, -9, -29, -4, 24, -19, -14, -14, -29, -29, -48, -24, 
19, -4, -24, -7, 21, -14, -14, -14, -29, -29, -39, -24, 
24, 4, -19, -14, 21, -7, -19, -14, -29, -24, -39, -19, 
24, 4, -19, -14, 21, -7, 0, -9, -19, -24, -29, -4, 
19, 9, -9, -14, 14, 0, 0, -9, -19, -19, -29, -9, 
19, 19, 0, -19, 9, 9, 9, -9, -19, -9, -29, 0, 
19, 19, 0, -19, 9, 9, 9, -9, -19, -9, -29, 0, 
19, 19, 0, -19, 9, 9, 9, -9, -19, -9, -29, 0, 
19, 19, 0, -19, 9, 9, 9, -9, -19, -9, -29, 0, 
29, 29, 0, -29, 14, 14, 9, -9, -14, -9, -24, 14, 
34, 34, 0, -34, 17, 17, 9, -9, -14, -9, -24, 14, 
39, 39, 0, -39, 19, 19, 0, -9, -9, -4, -19, 24, 
43, 43, 0, -43, 21, 21, -4, -9, -4, 0, -19, 29, 
58, 53, -4, -56, 31, 24, -9, -4, -4, 4, -9, 34, 
58, 63, 4, -61, 26, 34, -14, -9, -4, 9, -4, 39, 
63, 73, 9, -68, 26, 41, -29, -14, 4, 9, 0, 39, 
68, 82, 14, -75, 26, 48, -29, -19, 4, 14, 4, 43, 
78, 97, 19, -87, 29, 58, -53, -24, 4, 19, 9, 58, 
82, 112, 29, -97, 26, 70, -63, -29, 4, 19, 14, 68, 
82, 122, 39, -102, 21, 80, -73, -34, 4, 24, 14, 68, 
82, 136, 53, -109, 14, 95, -82, -39, 9, 24, 19, 78, 
82, 156, 73, -119, 4, 114, -92, -53, 9, 34, 29, 73, 
87, 165, 78, -126, 4, 122, -97, -58, 9, 39, 34, 78, 
87, 165, 78, -126, 4, 122, -107, -68, 4, 39, 39, 82, 
87, 170, 82, -129, 2, 126, -117, -73, 0, 39, 48, 87, 
87, 185, 97, -136, -4, 141, -126, -82, -4, 48, 58, 97, 
87, 190, 102, -139, -7, 146, -126, -82, -4, 48, 63, 102, 
87, 195, 107, -141, -9, 151, -136, -92, -9, 48, 63, 107, 
87, 200, 112, -143, -12, 156, -141, -97, -14, 48, 68, 107, 
92, 209, 117, -151, -12, 163, -156, -102, -19, 58, 68, 107, 
92, 214, 122, -153, -14, 168, -161, -107, -19, 58, 68, 112, 
92, 219, 126, -156, -17, 173, -165, -112, -24, 58, 68, 112, 
97, 224, 126, -161, -14, 175, -170, -112, -29, 58, 68, 117, 
97, 224, 126, -161, -14, 175, -175, -112, -29, 48, 73, 117, 
97, 224, 126, -161, -14, 175, -175, -117, -29, 48, 73, 122, 
97, 224, 126, -161, -14, 175, -175, -117, -29, 48, 82, 122, 
97, 234, 136, -165, -19, 185, -175, -117, -29, 53, 82, 131, 
87, 224, 136, -156, -24, 180, -175, -117, -29, 43, 82, 131, 
87, 229, 141, -158, -26, 185, -175, -117, -34, 43, 82, 131, 
87, 229, 141, -158, -26, 185, -180, -122, -34, 43, 87, 136, 
87, 229, 141, -158, -26, 185, -180, -122, -34, 43, 87, 136, 
78, 229, 151, -153, -36, 190, -170, -122, -43, 34, 87, 126, 
78, 224, 146, -151, -34, 185, -165, -122, -48, 34, 87, 126, 
78, 219, 141, -148, -31, 180, -165, -122, -48, 34, 87, 126, 
78, 209, 131, -143, -26, 170, -165, -122, -48, 34, 87, 126, 
73, 190, 117, -131, -21, 153, -156, -117, -53, 34, 78, 126, 
73, 185, 112, -129, -19, 148, -151, -117, -58, 34, 68, 117, 
63, 170, 107, -117, -21, 139, -146, -107, -58, 24, 63, 112, 
63, 156, 92, -109, -14, 124, -136, -102, -63, 19, 58, 102, 
63, 141, 78, -102, -7, 109, -136, -97, -73, 14, 53, 92, 
58, 126, 68, -92, -4, 97, -126, -92, -82, 9, 48, 82, 
48, 112, 63, -80, -7, 87, -117, -87, -82, 4, 34, 73, 
39, 87, 48, -63, -4, 68, -112, -82, -87, 0, 29, 63, 
29, 78, 48, -53, -9, 63, -102, -78, -82, -14, 19, 43, 
19, 58, 39, -39, -9, 48, -92, -78, -82, -24, 9, 34, 
14, 39, 24, -26, -4, 31, -87, -78, -87, -34, 0, 24, 
4, 19, 14, -12, -4, 17, -78, -78, -92, -39, -9, 14, 
-4, -9, -4, 7, 0, -7, -73, -73, -97, -48, -19, 14, 
-9, -24, -14, 17, 2, -19, -68, -73, -102, -58, -29, 4, 
-9, -34, -24, 21, 7, -29, -63, -73, -107, -63, -39, -4, 
-14, -48, -34, 31, 9, -41, -58, -68, -112, -63, -39, -14, 
-29, -63, -34, 46, 2, -48, -53, -68, -126, -73, -53, -24, 
-39, -78, -39, 58, 0, -58, -48, -68, -126, -78, -58, -34, 
-39, -82, -43, 61, 2, -63, -48, -68, -131, -87, -68, -39, 
-43, -102, -58, 73, 7, -80, -48, -68, -136, -92, -68, -43, 
-48, -107, -58, 78, 4, -82, -39, -68, -141, -97, -73, -39, 
-48, -117, -68, 82, 9, -92, -34, -68, -141, -102, -78, -43, 
-53, -122, -68, 87, 7, -95, -34, -68, -141, -102, -82, -48, 
-53, -126, -73, 90, 9, -100, -34, -68, -141, -102, -87, -48, 
-53, -117, -63, 85, 4, -90, -34, -58, -141, -102, -78, -48, 
-53, -122, -68, 87, 7, -95, -34, -58, -141, -107, -78, -53, 
-53, -122, -68, 87, 7, -95, -29, -58, -141, -107, -78, -53, 
-58, -122, -63, 90, 2, -92, -29, -58, -141, -102, -78, -53, 
-48, -112, -63, 80, 7, -87, -29, -68, -136, -102, -78, -58, 
-48, -117, -68, 82, 9, -92, -29, -63, -131, -102, -78, -58, 
-48, -117, -68, 82, 9, -92, -24, -63, -126, -102, -82, -58, 
-48, -117, -68, 82, 9, -92, -24, -63, -122, -102, -82, -63, 
-58, -126, -68, 92, 4, -97, -24, -58, -131, -107, -82, -63, 
-58, -131, -73, 95, 7, -102, -24, -58, -131, -107, -82, -63, 
-58, -131, -73, 95, 7, -102, -24, -58, -131, -107, -82, -63, 
-58, -131, -73, 95, 7, -102, -24, -58, -131, -107, -82, -58, 
-58, -131, -73, 95, 7, -102, -19, -58, -131, -107, -82, -58, 
-58, -131, -73, 95, 7, -102, -29, -53, -131, -112, -87, -63, 
-58, -141, -82, 100, 12, -112, -19, -43, -141, -126, -92, -63, 
-58, -146, -87, 102, 14, -117, -4, -34, -146, -131, -97, -78, 
-53, -175, -122, 114, 34, -148, 19, -4, -151, -146, -117, -82, 
-63, -200, -136, 131, 36, -168, 63, 24, -165, -185, -141, -102, 
-63, -248, -185, 156, 61, -217, 102, 73, -185, -224, -185, -131, 
-73, -297, -224, 185, 75, -261, 151, 97, -214, -263, -219, -156, 
-97, -326, -229, 212, 65, -278, 175, 87, -224, -297, -244, -175, 
-122, -361, -239, 241, 58, -300, 200, 73, -248, -326, -268, -185, 
-151, -400, -248, 275, 48, -324, 239, 82, -283, -370, -297, -209, 
-185, -448, -263, 317, 39, -356, 312, 102, -302, -414, -336, -229, 
-229, -492, -263, 361, 17, -378, 370, 126, -326, -463, -385, -258, 
-253, -531, -278, 392, 12, -405, 400, 136, -351, -517, -414, -268, 
-253, -541, -287, 397, 17, -414, 409, 122, -380, -546, -439, -287, 
-244, -546, -302, 395, 29, -424, 395, 107, -414, -575, -448, -287, 
-200, -517, -317, 358, 58, -417, 356, 102, -414, -561, -439, -278, 
-136, -439, -302, 287, 82, -370, 278, 63, -400, -512, -395, -248, 
-53, -346, -292, 200, 119, -319, 170, 14, -361, -409, -312, -219, 
39, -185, -224, 73, 131, -204, 29, -53, -292, -258, -204, -141, 
141, 34, -107, -87, 124, -36, -136, -97, -136, -53, -34, -34, 
248, 268, 19, -258, 114, 143, -326, -170, 29, 175, 141, 87, 
341, 458, 117, -400, 112, 287, -522, -239, 126, 361, 292, 180, 
424, 639, 214, -531, 104, 427, -702, -302, 190, 502, 409, 273, 
473, 839, 366, -656, 53, 602, -927, -463, 234, 634, 546, 395, 
488, 1102, 614, -795, -63, 858, -1234, -771, 248, 775, 722, 575, 
429, 1410, 980, -919, -275, 1195, -1629, -1278, 244, 932, 927, 800, 
307, 1688, 1381, -997, -536, 1534, -2074, -1991, 180, 990, 1093, 1039, 
180, 1800, 1620, -990, -719, 1710, -2430, -2644, 78, 922, 1151, 1185, 
122, 1688, 1566, -905, -722, 1627, -2557, -2893, -19, 727, 1039, 1180, 
126, 1371, 1244, -749, -558, 1307, -2459, -2810, -126, 458, 814, 1015, 
87, 966, 878, -527, -395, 922, -2244, -2644, -341, 165, 561, 790, 
0, 639, 639, -319, -319, 639, -2025, -2493, -712, -170, 326, 629, 
-117, 434, 551, -158, -334, 492, -1805, -2318, -1088, -468, 175, 551, 
-219, 283, 502, -31, -361, 392, -1527, -2044, -1234, -566, 92, 483, 
-258, 151, 409, 53, -334, 280, -1224, -1688, -1146, -536, 39, 385, 
-268, 68, 336, 100, -302, 202, -995, -1405, -1010, -483, 9, 312, 
-268, 58, 326, 104, -297, 192, -824, -1176, -814, -390, 29, 273, 
-258, 19, 278, 119, -268, 148, -663, -971, -619, -297, 39, 229, 
-268, -53, 214, 161, -241, 80, -522, -795, -488, -258, 0, 161, 
-273, -97, 175, 185, -224, 39, -414, -653, -414, -224, -24, 112, 
-239, -122, 117, 180, -178, -2, -302, -507, -346, -200, -24, 78, 
-209, -146, 63, 178, -136, -41, -195, -366, -297, -180, -43, 29, 
-195, -185, 9, 190, -102, -87, -117, -263, -268, -180, -68, -19, 
-165, -204, -39, 185, -63, -122, -68, -200, -253, -180, -92, -53, 
-141, -209, -68, 175, -36, -139, -39, -151, -234, -180, -107, -63, 
-122, -209, -87, 165, -17, -148, -4, -117, -219, -170, -107, -68, 
-107, -204, -97, 156, -4, -151, 9, -78, -195, -156, -107, -68, 
-97, -195, -97, 146, 0, -146, 24, -48, -170, -136, -97, -73, 
-78, -200, -122, 139, 21, -161, 43, -14, -161, -146, -102, -63, 
-63, -195, -131, 129, 34, -163, 48, 9, -165, -146, -102, -73, 
-39, -190, -151, 114, 56, -170, 53, 34, -185, -151, -122, -92, 
-4, -200, -195, 102, 95, -197, 58, 48, -190, -161, -131, -102, 
14, -195, -209, 90, 112, -202, 48, 39, -195, -175, -141, -112, 
19, -195, -214, 87, 117, -204, 43, 39, -200, -175, -136, -107, 
24, -190, -214, 82, 119, -202, 43, 39, -204, -175, -136, -107, 
24, -190, -214, 82, 119, -202, 43, 39, -209, -170, -136, -107, 
29, -190, -219, 80, 124, -204, 34, 48, -209, -180, -136, -117, 
34, -190, -224, 78, 129, -207, 43, 63, -204, -185, -141, -126, 
48, -200, -248, 75, 148, -224, 48, 78, -204, -185, -146, -126, 
58, -200, -258, 70, 158, -229, 48, 82, -204, -185, -146, -126, 
68, -209, -278, 70, 173, -244, 58, 82, -204, -175, -151, -131, 
68, -204, -273, 68, 170, -239, 58, 82, -204, -180, -151, -136, 
68, -204, -273, 68, 170, -239, 58, 87, -204, -180, -151, -141, 
73, -204, -278, 65, 175, -241, 63, 87, -204, -180, -151, -146, 
73, -195, -268, 61, 170, -231, 63, 92, -204, -180, -156, -151, 
82, -200, -283, 58, 183, -241, 63, 97, -209, -190, -156, -151, 
87, -200, -287, 56, 187, -244, 68, 102, -209, -190, -156, -156, 
87, -209, -297, 61, 192, -253, 73, 107, -209, -190, -161, -161, 
87, -209, -297, 61, 192, -253, 73, 112, -209, -190, -161, -161, 
87, -209, -297, 61, 192, -253, 73, 117, -214, -190, -161, -161, 
92, -209, -302, 58, 197, -256, 78, 122, -214, -195, -161, -161, 
97, -209, -307, 56, 202, -258, 78, 126, -214, -195, -161, -165, 
92, -219, -312, 63, 202, -265, 68, 117, -214, -195, -165, -165, 
92, -219, -312, 63, 202, -265, 78, 122, -214, -200, -165, -170, 
87, -219, -307, 65, 197, -263, 78, 126, -214, -204, -170, -170, 
92, -219, -312, 63, 202, -265, 78, 131, -219, -204, -170, -170, 
92, -239, -331, 73, 212, -285, 78, 136, -229, -204, -180, -175, 
92, -239, -331, 73, 212, -285, 78, 146, -229, -204, -185, -175, 
97, -239, -336, 70, 217, -287, 82, 151, -234, -214, -185, -180, 
97, -239, -336, 70, 217, -287, 82, 156, -234, -214, -185, -180, 
102, -244, -346, 70, 224, -295, 87, 161, -234, -224, -185, -185, 
107, -244, -351, 68, 229, -297, 87, 165, -234, -229, -185, -190, 
107, -248, -356, 70, 231, -302, 92, 170, -234, -229, -185, -190, 
112, -248, -361, 68, 236, -305, 92, 175, -234, -229, -190, -190, 
122, -248, -370, 63, 246, -309, 92, 180, -244, -229, -190, -200, 
122, -248, -370, 63, 246, -309, 92, 185, -244, -229, -190, -200, 
117, -253, -370, 68, 244, -312, 102, 190, -244, -229, -195, -204, 
117, -253, -370, 68, 244, -312, 102, 200, -244, -229, -195, -204, 
122, -253, -375, 65, 248, -314, 112, 200, -244, -229, -195, -195, 
122, -258, -380, 68, 251, -319, 112, 204, -244, -234, -195, -200, 
122, -258, -380, 68, 251, -319, 112, 209, -244, -234, -200, -200, 
131, -258, -390, 63, 261, -324, 122, 219, -244, -234, -200, -200, 
131, -258, -390, 63, 261, -324, 117, 234, -244, -234, -209, -209, 
131, -258, -390, 63, 261, -324, 122, 234, -239, -234, -209, -214, 
141, -258, -400, 58, 270, -329, 126, 239, -239, -234, -209, -214, 
146, -258, -405, 56, 275, -331, 131, 253, -239, -234, -209, -214, 
161, -258, -419, 48, 290, -339, 136, 244, -244, -239, -209, -214, 
161, -258, -419, 48, 290, -339, 141, 258, -244, -239, -209, -214, 
170, -258, -429, 43, 300, -344, 146, 263, -234, -239, -214, -219, 
175, -258, -434, 41, 305, -346, 156, 278, -229, -239, -214, -219, 
175, -258, -434, 41, 305, -346, 151, 287, -229, -239, -214, -219, 
180, -263, -444, 41, 312, -353, 156, 297, -224, -234, -209, -219, 
185, -263, -448, 39, 317, -356, 165, 307, -219, -229, -209, -219, 
190, -258, -448, 34, 319, -353, 170, 317, -214, -229, -214, -224, 
190, -258, -448, 34, 319, -353, 175, 331, -219, -229, -204, -224, 
195, -258, -453, 31, 324, -356, 180, 341, -214, -229, -204, -229, 
195, -258, -453, 31, 324, -356, 190, 351, -209, -219, -204, -229, 
200, -258, -458, 29, 329, -358, 195, 361, -204, -214, -200, -229, 
214, -258, -473, 21, 344, -366, 200, 380, -200, -214, -195, -229, 
219, -253, -473, 17, 346, -363, 209, 390, -195, -214, -195, -229, 
219, -253, -473, 17, 346, -363, 219, 400, -185, -204, -195, -229, 
224, -248, -473, 12, 348, -361, 229, 419, -180, -200, -195, -229, 
229, -239, -468, 4, 348, -353, 229, 424, -165, -204, -195, -229, 
234, -234, -468, 0, 351, -351, 234, 434, -161, -190, -185, -229, 
239, -234, -473, -2, 356, -353, 239, 453, -151, -190, -180, -229, 
239, -234, -473, -2, 356, -353, 253, 463, -141, -185, -180, -229, 
239, -229, -468, -4, 353, -348, 253, 473, -122, -180, -180, -229, 
244, -224, -468, -9, 356, -346, 263, 483, -112, -175, -180, -229, 
244, -219, -463, -12, 353, -341, 273, 502, -107, -161, -170, -229, 
244, -214, -458, -14, 351, -336, 278, 507, -97, -161, -165, -229, 
248, -214, -463, -17, 356, -339, 297, 531, -87, -146, -161, -229, 
248, -209, -458, -19, 353, -334, 302, 536, -78, -136, -156, -229, 
258, -204, -463, -26, 361, -334, 312, 551, -68, -131, -151, -229, 
258, -200, -458, -29, 358, -329, 322, 561, -53, -122, -146, -224, 
268, -195, -463, -36, 366, -329, 331, 575, -39, -102, -141, -214, 
268, -195, -463, -36, 366, -329, 341, 585, -19, -92, -136, -214, 
273, -190, -463, -41, 368, -326, 346, 595, -14, -82, -131, -209, 
273, -185, -458, -43, 366, -322, 346, 605, 0, -73, -126, -204, 
273, -170, -444, -51, 358, -307, 366, 624, 14, -53, -122, -214, 
273, -165, -439, -53, 356, -302, 370, 634, 24, -43, -112, -209, 
273, -161, -434, -56, 353, -297, 375, 639, 29, -34, -107, -209, 
273, -156, -429, -58, 351, -292, 385, 649, 48, -24, -102, -209, 
283, -151, -434, -65, 358, -292, 380, 649, 63, -14, -97, -204, 
283, -141, -424, -70, 353, -283, 385, 653, 78, -4, -92, -204, 
283, -136, -419, -73, 351, -278, 390, 658, 92, 4, -82, -195, 
283, -131, -414, -75, 348, -273, 390, 663, 102, 14, -82, -190, 
278, -122, -400, -78, 339, -261, 390, 673, 102, 24, -73, -190, 
278, -117, -395, -80, 336, -256, 395, 673, 117, 34, -68, -190, 
273, -112, -385, -80, 329, -248, 395, 673, 131, 48, -63, -180, 
273, -107, -380, -82, 326, -244, 400, 673, 146, 58, -58, -175, 
263, -102, -366, -80, 314, -234, 400, 673, 161, 63, -53, -170, 
263, -97, -361, -82, 312, -229, 400, 673, 175, 73, -43, -170, 
258, -92, -351, -82, 305, -222, 400, 673, 185, 82, -39, -165, 
258, -87, -346, -85, 302, -217, 400, 668, 195, 97, -34, -161, 
244, -87, -331, -78, 287, -209, 395, 663, 209, 107, -24, -156, 
239, -82, -322, -78, 280, -202, 395, 658, 219, 117, -19, -151, 
234, -73, -307, -80, 270, -190, 390, 644, 229, 122, -9, -146, 
224, -68, -292, -78, 258, -180, 385, 639, 239, 131, -4, -141, 
219, -63, -283, -78, 251, -173, 380, 629, 248, 141, 9, -126, 
214, -58, -273, -78, 244, -165, 375, 624, 258, 156, 9, -122, 
204, -53, -258, -75, 231, -156, 370, 610, 268, 161, 14, -117, 
195, -43, -239, -75, 217, -141, 366, 595, 273, 170, 19, -112, 
185, -29, -214, -78, 200, -122, 366, 580, 273, 170, 34, -92, 
180, -24, -204, -78, 192, -114, 356, 566, 278, 180, 43, -87, 
180, -19, -200, -80, 190, -109, 346, 551, 283, 185, 48, -82, 
175, -14, -190, -80, 183, -102, 336, 531, 292, 190, 53, -78, 
170, -9, -180, -80, 175, -95, 336, 517, 292, 185, 53, -82, 
161, -4, -165, -78, 163, -85, 326, 497, 292, 185, 58, -73, 
156, 0, -156, -78, 156, -78, 317, 478, 297, 185, 63, -68, 
146, 0, -146, -73, 146, -73, 307, 458, 297, 190, 68, -68, 
126, 0, -126, -63, 126, -63, 292, 439, 292, 200, 63, -58, 
126, 4, -122, -65, 124, -58, 283, 419, 292, 200, 63, -53, 
112, 4, -107, -58, 109, -51, 273, 400, 287, 200, 63, -48, 
102, 4, -97, -53, 100, -46, 263, 380, 283, 200, 68, -43, 
87, 0, -87, -43, 87, -43, 253, 370, 278, 190, 58, -39, 
78, 0, -78, -39, 78, -39, 244, 351, 273, 185, 58, -34, 
78, 9, -68, -43, 73, -29, 229, 331, 268, 185, 68, -29, 
73, 9, -63, -41, 68, -26, 224, 312, 263, 185, 68, -24, 
63, 9, -53, -36, 58, -21, 219, 302, 253, 180, 58, -29, 
58, 9, -48, -34, 53, -19, 204, 283, 248, 175, 58, -29, 
53, 14, -39, -34, 46, -12, 200, 263, 244, 170, 58, -29, 
48, 14, -34, -31, 41, -9, 190, 244, 239, 165, 58, -24, 
43, 14, -29, -29, 36, -7, 180, 234, 229, 161, 68, -24, 
39, 14, -24, -26, 31, -4, 170, 219, 219, 161, 68, -14, 
34, 19, -14, -26, 24, 2, 151, 204, 209, 156, 68, -14, 
29, 19, -9, -24, 19, 4, 146, 190, 200, 151, 68, -14, 
24, 9, -14, -17, 19, -2, 136, 165, 190, 151, 53, -19, 
24, 9, -14, -17, 19, -2, 126, 151, 180, 141, 53, -19, 
24, 9, -14, -17, 19, -2, 117, 136, 170, 136, 53, -9, 
19, 14, -4, -17, 12, 4, 107, 122, 161, 131, 53, -9, 
19, 14, -4, -17, 12, 4, 97, 112, 151, 126, 63, -4, 
9, 14, 4, -12, 2, 9, 87, 97, 131, 117, 53, -4, 
9, 9, 0, -9, 4, 4, 78, 82, 126, 107, 53, -4, 
9, 9, 0, -9, 4, 4, 73, 78, 117, 107, 53, -4, 
9, 19, 9, -14, 0, 14, 58, 58, 126, 112, 53, 4, 
9, 19, 9, -14, 0, 14, 53, 58, 122, 107, 53, 4, 
9, 19, 9, -14, 0, 14, 53, 53, 117, 102, 53, 4, 
9, 19, 9, -14, 0, 14, 48, 48, 107, 97, 53, 4, 
9, 24, 14, -17, -2, 19, 43, 43, 107, 92, 48, 4, 
9, 29, 19, -19, -4, 24, 39, 39, 102, 87, 48, 4, 
9, 34, 24, -21, -7, 29, 34, 39, 97, 82, 39, 4, 
9, 34, 24, -21, -7, 29, 29, 34, 87, 78, 39, 0, 
0, 24, 24, -12, -12, 24, 39, 29, 82, 82, 48, 9, 
0, 24, 24, -12, -12, 24, 39, 24, 73, 78, 43, 9, 
0, 24, 24, -12, -12, 24, 34, 24, 68, 78, 43, 9, 
0, 19, 19, -9, -9, 19, 34, 24, 63, 73, 43, 9, 
-9, 19, 29, -4, -19, 24, 24, 24, 68, 68, 29, 9, 
-9, 14, 24, -2, -17, 19, 24, 19, 63, 63, 29, 9, 
-9, 14, 24, -2, -17, 19, 19, 19, 58, 58, 29, 9, 
-4, 14, 19, -4, -12, 17, 19, 14, 53, 58, 24, 9, 
-4, 4, 9, 0, -7, 7, 19, 14, 48, 43, 24, 0, 
-4, 4, 9, 0, -7, 7, 14, 14, 43, 43, 24, 0, 
-4, 0, 4, 2, -4, 2, 14, 14, 39, 43, 19, 0, 
-4, 0, 4, 2, -4, 2, 14, 14, 34, 43, 19, -4, 
-4, 9, 14, -2, -9, 12, 14, 14, 29, 43, 19, 4, 
-4, 4, 9, 0, -7, 7, 14, 9, 29, 39, 19, 4, 
0, 4, 4, -2, -2, 4, 14, 9, 24, 39, 14, 4, 
0, 4, 4, -2, -2, 4, 9, 9, 24, 39, 14, 4, 
9, 4, -4, -7, 7, 0, 9, 0, 24, 34, 14, 4, 
9, 4, -4, -7, 7, 0, 9, 0, 19, 34, 14, 4, 
9, 4, -4, -7, 7, 0, 9, 0, 19, 34, 9, 4, 
9, 0, -9, -4, 9, -4, 9, 0, 14, 34, 9, 0, 
0, 9, 9, -4, -4, 9, 19, 9, 14, 24, 14, 0, 
4, 9, 4, -7, 0, 7, 19, 9, 14, 24, 14, 0, 
4, 9, 4, -7, 0, 7, 19, 9, 14, 24, 14, 0, 
4, 9, 4, -7, 0, 7, 19, 14, 9, 24, 14, 0, 
4, 4, 0, -4, 2, 2, 19, 14, 9, 19, 9, 0, 
4, 4, 0, -4, 2, 2, 19, 14, 9, 19, 9, 0, 
4, 4, 0, -4, 2, 2, 19, 14, 9, 19, 9, 0, 
9, 4, -4, -7, 7, 0, 19, 14, 4, 19, 9, 0, 
9, -4, -14, -2, 12, -9, 19, 19, 4, 19, 9, 0, 
9, -4, -14, -2, 12, -9, 19, 19, 4, 19, 9, 0, 
9, -4, -14, -2, 12, -9, 19, 19, 4, 14, 9, 0, 
14, -4, -19, -4, 17, -12, 19, 19, 4, 14, 4, 0, 
24, 4, -19, -14, 21, -7, 19, 24, 4, 14, 4, -4, 
24, 0, -24, -12, 24, -12, 19, 24, 4, 9, 4, -4, 
24, 0, -24, -12, 24, -12, 19, 24, 4, 9, 4, -4, 
24, 0, -24, -12, 24, -12, 19, 24, 4, 9, 4, -4, 
24, 0, -24, -12, 24, -12, 19, 24, 4, 19, 4, -4, 
29, 0, -29, -14, 29, -14, 19, 24, 4, 14, 4, -4, 
29, 0, -29, -14, 29, -14, 19, 29, 4, 14, 0, -4, 
29, 0, -29, -14, 29, -14, 19, 29, 4, 14, 0, -4, 
29, 0, -29, -14, 29, -14, 19, 29, 4, 14, 0, -4, 
29, 0, -29, -14, 29, -14, 19, 29, 4, 14, 0, -9, 
29, 0, -29, -14, 29, -14, 19, 29, 4, 14, 0, -9, 
29, -4, -34, -12, 31, -19, 19, 34, 4, 14, 0, -9, 
19, -4, -24, -7, 21, -14, 19, 34, 4, 14, 9, -9, 
24, -4, -29, -9, 26, -17, 19, 34, 4, 14, 4, -9, 
24, -4, -29, -9, 26, -17, 19, 34, 4, 19, 4, -9, 
24, -4, -29, -9, 26, -17, 19, 34, 4, 19, 4, -14, 
24, -14, -39, -4, 31, -26, 19, 39, 4, 9, -4, -14, 
24, -14, -39, -4, 31, -26, 19, 39, 4, 9, -4, -14, 
24, -14, -39, -4, 31, -26, 19, 39, 4, 9, -4, -14, 
24, -14, -39, -4, 31, -26, 19, 39, 4, 9, -4, -14, 
34, -14, -48, -9, 41, -31, 19, 39, -4, 9, -14, -14, 
34, -14, -48, -9, 41, -31, 19, 39, -4, 9, -14, -14, 
34, -14, -48, -9, 41, -31, 19, 39, -4, 9, -14, -14, 
34, -14, -48, -9, 41, -31, 19, 39, -4, 9, -14, -14, 
24, -24, -48, 0, 36, -36, 19, 39, -4, 4, -9, -24, 
24, -24, -48, 0, 36, -36, 19, 34, -4, 4, -9, -29, 
24, -24, -48, 0, 36, -36, 19, 34, -4, 4, -9, -29, 
24, -24, -48, 0, 36, -36, 19, 34, -4, 0, -9, -29, 
24, -14, -39, -4, 31, -26, 9, 24, -14, 0, -9, -24, 
19, -14, -34, -2, 26, -24, 9, 24, -19, 0, -9, -24, 
19, -14, -34, -2, 26, -24, 9, 24, -19, 0, -14, -24, 
19, -19, -39, 0, 29, -29, 4, 24, -19, 0, -14, -24, 
19, -19, -39, 0, 29, -29, 4, 24, -9, 0, -14, -24, 
19, -19, -39, 0, 29, -29, 4, 24, -14, 0, -14, -24, 
19, -24, -43, 2, 31, -34, 4, 24, -14, 0, -14, -24, 
19, -24, -43, 2, 31, -34, 4, 19, -14, 0, -14, -24, 
19, -14, -34, -2, 26, -24, 4, 19, -9, 4, -9, -24, 
19, -14, -34, -2, 26, -24, 0, 19, -9, 4, -9, -24, 
14, -14, -29, 0, 21, -21, 0, 9, -9, 4, -9, -24, 
14, -19, -34, 2, 24, -26, 0, 9, -9, 4, -9, -24, 
14, -19, -34, 2, 24, -26, -9, 14, -9, 4, -9, -24, 
14, -19, -34, 2, 24, -26, -14, 14, -14, 0, -9, -24, 
14, -19, -34, 2, 24, -26, -14, 9, -14, 0, -9, -24, 
14, -19, -34, 2, 24, -26, -14, 9, -19, 0, -14, -24, 
4, -19, -24, 7, 14, -21, -14, 9, -9, 0, -14, -34, 
4, -19, -24, 7, 14, -21, -14, 4, -14, -4, -14, -34, 
4, -19, -24, 7, 14, -21, -14, 0, -19, -4, -14, -34, 
4, -19, -24, 7, 14, -21, -19, -4, -24, -4, -14, -34, 
4, -29, -34, 12, 19, -31, -9, -4, -24, -19, -24, -34, 
4, -29, -34, 12, 19, -31, -9, -4, -24, -19, -24, -34, 
4, -29, -34, 12, 19, -31, -14, -9, -24, -24, -24, -34, 
4, -29, -34, 12, 19, -31, -14, -9, -24, -24, -24, -34, 
14, -34, -48, 9, 31, -41, -4, 0, -29, -34, -34, -39, 
14, -34, -48, 9, 31, -41, -4, -4, -29, -39, -39, -39, 
14, -34, -48, 9, 31, -41, -4, -4, -39, -39, -39, -34, 
14, -34, -48, 9, 31, -41, -4, -4, -39, -43, -39, -34, 
14, -39, -53, 12, 34, -46, -4, -4, -39, -43, -39, -34, 
14, -39, -53, 12, 34, -46, -9, -4, -43, -43, -39, -39, 
14, -39, -53, 12, 34, -46, -9, -9, -43, -43, -39, -39, 
9, -43, -53, 17, 31, -48, -9, -9, -43, -43, -43, -39, 
9, -43, -53, 17, 31, -48, -9, -9, -58, -48, -43, -39, 
9, -48, -58, 19, 34, -53, -9, -14, -58, -48, -43, -39, 
9, -48, -58, 19, 34, -53, -9, -14, -58, -48, -43, -39, 
9, -48, -58, 19, 34, -53, -9, -19, -58, -48, -43, -39, 
9, -58, -68, 24, 39, -63, -19, -19, -63, -63, -53, -39, 
9, -58, -68, 24, 39, -63, -19, -19, -63, -63, -53, -39, 
9, -53, -63, 21, 36, -58, -19, -19, -63, -63, -53, -39, 
9, -53, -63, 21, 36, -58, -19, -19, -63, -63, -53, -39, 
9, -48, -58, 19, 34, -53, -24, -19, -73, -53, -53, -34, 
9, -48, -58, 19, 34, -53, -24, -19, -73, -58, -53, -34, 
9, -48, -58, 19, 34, -53, -24, -19, -73, -58, -53, -34, 
9, -48, -58, 19, 34, -53, -24, -24, -73, -58, -53, -34, 
14, -34, -48, 9, 31, -41, -19, -24, -68, -58, -43, -29, 
14, -34, -48, 9, 31, -41, -19, -19, -68, -58, -43, -29, 
14, -34, -48, 9, 31, -41, -19, -19, -68, -58, -43, -29, 
14, -34, -48, 9, 31, -41, -19, -19, -68, -53, -39, -29, 
14, -39, -53, 12, 34, -46, -19, -19, -68, -53, -34, -39, 
14, -34, -48, 9, 31, -41, -19, -19, -68, -48, -34, -39, 
14, -24, -39, 4, 26, -31, -24, -24, -68, -48, -34, -34, 
19, -19, -39, 0, 29, -29, -24, -24, -68, -48, -34, -34, 
19, -24, -43, 2, 31, -34, -14, -24, -68, -53, -43, -34, 
24, -19, -43, -2, 34, -31, -9, -24, -63, -53, -39, -29, 
24, -14, -39, -4, 31, -26, -9, -24, -53, -43, -34, -24, 
24, -9, -34, -7, 29, -21, -9, -24, -53, -43, -34, -24, 
29, -4, -34, -12, 31, -19, -9, -24, -63, -39, -29, -14, 
29, 9, -19, -19, 24, -4, -4, -14, -58, -39, -19, -14, 
39, 14, -24, -26, 31, -4, -4, -14, -48, -29, -19, -14, 
34, 24, -9, -29, 21, 7, 0, -14, -48, -24, -19, -9, 
39, 29, -9, -34, 24, 9, 0, -9, -39, -19, -9, 0, 
48, 39, -9, -43, 29, 14, 9, -9, -29, -19, -9, 9, 
48, 39, -9, -43, 29, 14, 9, -9, -29, -19, -9, 9, 
48, 39, -9, -43, 29, 14, 9, -9, -29, -19, -9, 9, 
48, 39, -9, -43, 29, 14, 9, -9, -29, -19, -9, 9, 
48, 58, 9, -53, 19, 34, 9, 0, -24, -19, -9, 14, 
53, 63, 9, -58, 21, 36, 9, 0, -24, -19, -4, 14, 
58, 68, 9, -63, 24, 39, 0, 0, -19, -14, 4, 24, 
63, 73, 9, -68, 26, 41, -4, 0, -14, -9, 9, 29, 
68, 73, 4, -70, 31, 39, -9, -4, -14, -4, 9, 24, 
68, 82, 14, -75, 26, 48, -14, -9, -14, 0, 14, 29, 
73, 92, 19, -82, 26, 56, -29, -14, -4, 0, 19, 29, 
78, 102, 24, -90, 26, 63, -29, -19, -4, 4, 24, 34, 
78, 102, 24, -90, 26, 63, -34, -14, -4, 9, 29, 39, 
82, 112, 29, -97, 26, 70, -43, -19, -4, 9, 34, 48, 
82, 117, 34, -100, 24, 75, -53, -24, -4, 14, 34, 48, 
82, 126, 43, -104, 19, 85, -63, -29, 0, 14, 39, 58, 
82, 126, 43, -104, 19, 85, -73, -43, 0, 14, 43, 63, 
87, 136, 48, -112, 19, 92, -78, -48, 0, 19, 43, 68, 
87, 136, 48, -112, 19, 92, -87, -58, -4, 19, 43, 73, 
87, 141, 53, -114, 17, 97, -97, -63, -9, 19, 48, 78, 
97, 156, 58, -126, 19, 107, -107, -73, -14, 29, 48, 78, 
97, 161, 63, -129, 17, 112, -107, -73, -14, 29, 53, 82, 
97, 165, 68, -131, 14, 117, -117, -82, -19, 29, 53, 87, 
97, 170, 73, -134, 12, 122, -122, -87, -24, 29, 58, 87, 
92, 170, 78, -131, 7, 124, -136, -92, -29, 19, 58, 97, 
92, 175, 82, -134, 4, 129, -141, -97, -29, 19, 58, 102, 
92, 180, 87, -136, 2, 134, -146, -102, -34, 19, 58, 102, 
97, 185, 87, -141, 4, 136, -151, -102, -39, 19, 58, 107, 
97, 185, 87, -141, 4, 136, -156, -112, -48, 29, 63, 97, 
97, 185, 87, -141, 4, 136, -156, -117, -48, 29, 63, 102, 
97, 185, 87, -141, 4, 136, -156, -117, -48, 29, 73, 102, 
97, 195, 97, -146, 0, 146, -156, -117, -48, 34, 73, 112, 
97, 204, 107, -151, -4, 156, -165, -117, -39, 43, 82, 112, 
97, 209, 112, -153, -7, 161, -165, -117, -43, 43, 82, 112, 
97, 209, 112, -153, -7, 161, -170, -122, -43, 43, 87, 117, 
97, 209, 112, -153, -7, 161, -170, -122, -43, 43, 87, 117, 
87, 204, 117, -146, -14, 161, -170, -122, -34, 43, 87, 117, 
87, 204, 117, -146, -14, 161, -165, -122, -39, 43, 87, 117, 
87, 204, 117, -146, -14, 161, -165, -122, -39, 43, 87, 117, 
87, 200, 112, -143, -12, 156, -165, -122, -39, 43, 87, 117, 
82, 190, 107, -136, -12, 148, -156, -117, -43, 34, 87, 107, 
82, 185, 102, -134, -9, 143, -151, -117, -48, 34, 78, 97, 
73, 170, 97, -122, -12, 134, -146, -107, -48, 24, 73, 92, 
73, 156, 82, -114, -4, 119, -136, -102, -53, 19, 68, 82, 
63, 131, 68, -97, -2, 100, -126, -97, -53, 14, 53, 73, 
58, 117, 58, -87, 0, 87, -117, -92, -63, 9, 48, 63, 
48, 102, 53, -75, -2, 78, -107, -87, -63, 4, 34, 53, 
39, 78, 39, -58, 0, 58, -102, -82, -68, 0, 29, 43, 
29, 58, 29, -43, 0, 43, -92, -78, -73, -24, 9, 34, 
19, 39, 19, -29, 0, 29, -82, -78, -73, -34, 0, 24, 
14, 19, 4, -17, 4, 12, -78, -78, -78, -43, -9, 14, 
4, 0, -4, -2, 4, -2, -68, -78, -82, -48, -19, 4, 
-14, -29, -14, 21, 0, -21, -63, -63, -87, -58, -29, -4, 
-19, -43, -24, 31, 2, -34, -58, -63, -92, -68, -39, -14, 
-19, -53, -34, 36, 7, -43, -53, -63, -97, -73, -48, -24, 
-24, -68, -43, 46, 9, -56, -48, -58, -102, -73, -48, -34, 
-29, -82, -53, 56, 12, -68, -43, -68, -107, -92, -63, -43, 
-39, -97, -58, 68, 9, -78, -39, -68, -107, -97, -68, -53, 
-39, -102, -63, 70, 12, -82, -39, -68, -112, -107, -78, -58, 
-43, -122, -78, 82, 17, -100, -39, -68, -117, -112, -78, -63, 
-48, -117, -68, 82, 9, -92, -39, -68, -122, -107, -73, -58, 
-48, -126, -78, 87, 14, -102, -34, -68, -122, -112, -78, -63, 
-53, -131, -78, 92, 12, -104, -34, -68, -122, -112, -82, -68, 
-53, -136, -82, 95, 14, -109, -34, -68, -122, -112, -87, -68, 
-43, -136, -92, 90, 24, -114, -34, -58, -122, -112, -87, -68, 
-43, -141, -97, 92, 26, -119, -34, -58, -122, -117, -87, -73, 
-43, -141, -97, 92, 26, -119, -29, -58, -122, -117, -87, -73, 
-48, -141, -92, 95, 21, -117, -29, -58, -122, -112, -87, -73, 
-48, -141, -92, 95, 21, -117, -29, -68, -122, -112, -87, -68, 
-48, -146, -97, 97, 24, -122, -29, -63, -122, -112, -87, -68, 
-48, -146, -97, 97, 24, -122, -24, -63, -122, -112, -92, -68, 
-48, -146, -97, 97, 24, -122, -24, -63, -122, -112, -92, -73, 
-48, -146, -97, 97, 24, -122, -14, -58, -122, -117, -92, -82, 
-48, -151, -102, 100, 26, -126, -14, -58, -122, -117, -92, -82, 
-48, -151, -102, 100, 26, -126, -14, -58, -122, -117, -92, -82, 
-48, -151, -102, 100, 26, -126, -14, -58, -122, -117, -92, -78, 
-58, -161, -102, 109, 21, -131, -9, -48, -122, -107, -92, -78, 
-58, -161, -102, 109, 21, -131, -19, -53, -122, -112, -97, -82, 
-58, -161, -102, 109, 21, -131, -9, -43, -131, -126, -102, -82, 
-58, -185, -126, 122, 34, -156, 4, -24, -136, -131, -117, -87, 
-53, -204, -151, 129, 48, -178, 29, 4, -141, -146, -126, -102, 
-53, -239, -185, 146, 65, -212, 63, 43, -165, -185, -151, -122, 
-53, -287, -234, 170, 90, -261, 122, 92, -185, -234, -195, -151, 
-73, -336, -263, 204, 95, -300, 161, 117, -214, -273, -239, -175, 
-87, -366, -278, 226, 95, -322, 195, 107, -234, -307, -263, -195, 
-112, -390, -278, 251, 82, -334, 209, 102, -258, -346, -287, -204, 
-131, -429, -297, 280, 82, -363, 248, 112, -292, -390, -326, -229, 
-165, -488, -322, 326, 78, -405, 322, 141, -322, -444, -366, -248, 
-200, -522, -322, 361, 61, -422, 370, 156, -356, -492, -414, -278, 
-224, -551, -326, 387, 51, -439, 400, 156, -390, -546, -444, -287, 
-224, -561, -336, 392, 56, -448, 400, 151, -419, -585, -468, -307, 
-204, -556, -351, 380, 73, -453, 385, 146, -453, -605, -478, -307, 
-161, -517, -356, 339, 97, -436, 326, 141, -453, -590, -458, -287, 
-87, -439, -351, 263, 131, -395, 248, 112, -439, -531, -405, -268, 
-14, -336, -322, 175, 153, -329, 131, 43, -409, -439, -331, -219, 
68, -175, -244, 53, 156, -209, -19, -24, -331, -278, -214, -151, 
170, 34, -136, -102, 153, -51, -195, -78, -185, -73, -53, -43, 
278, 268, -9, -273, 143, 129, -395, -161, -19, 156, 122, 78, 
380, 468, 87, -424, 146, 278, -600, -229, 87, 341, 273, 170, 
473, 639, 165, -556, 153, 402, -790, -292, 151, 483, 400, 263, 
522, 849, 326, -685, 97, 588, -1024, -444, 195, 624, 536, 385, 
546, 1122, 575, -834, -14, 849, -1332, -751, 229, 775, 722, 575, 
507, 1439, 932, -973, -212, 1185, -1727, -1268, 224, 932, 927, 800, 
385, 1717, 1332, -1051, -473, 1525, -2181, -1981, 151, 1010, 1102, 1029, 
258, 1830, 1571, -1044, -656, 1700, -2537, -2635, 48, 932, 1161, 1176, 
219, 1717, 1498, -968, -639, 1607, -2664, -2884, -48, 736, 1058, 1171, 
224, 1410, 1185, -817, -480, 1298, -2557, -2801, -165, 478, 834, 1005, 
195, 1015, 819, -605, -312, 917, -2342, -2635, -380, 195, 580, 780, 
107, 688, 580, -397, -236, 634, -2113, -2483, -732, -141, 356, 639, 
-19, 492, 512, -236, -265, 502, -1883, -2308, -1107, -429, 204, 561, 
-122, 341, 463, -109, -292, 402, -1586, -2025, -1244, -527, 141, 492, 
-190, 209, 400, -9, -295, 305, -1263, -1678, -1156, -497, 87, 405, 
-209, 136, 346, 36, -278, 241, -1024, -1385, -1010, -444, 58, 341, 
-209, 117, 326, 46, -268, 222, -844, -1176, -805, -351, 78, 312, 
-219, 78, 297, 70, -258, 187, -683, -971, -610, -258, 78, 268, 
-239, 4, 244, 117, -241, 124, -541, -795, -478, -219, 39, 200, 
-234, -39, 195, 136, -214, 78, -424, -653, -395, -195, 14, 161, 
-209, -53, 156, 131, -183, 51, -322, -507, -326, -170, 14, 117, 
-180, -87, 92, 134, -136, 2, -204, -375, -278, -161, -14, 68, 
-156, -136, 19, 146, -87, -58, -126, -283, -248, -161, -48, 19, 
-136, -165, -29, 151, -53, -97, -87, -219, -234, -161, -73, -14, 
-102, -180, -78, 141, -12, -129, -58, -170, -224, -170, -97, -43, 
-73, -190, -117, 131, 21, -153, -34, -126, -209, -170, -117, -68, 
-58, -195, -136, 126, 39, -165, -19, -87, -185, -175, -117, -87, 
-39, -195, -156, 117, 58, -175, 4, -48, -161, -156, -126, -92, 
-19, -200, -180, 109, 80, -190, 14, -14, -161, -165, -131, -92, 
-14, -204, -190, 109, 87, -197, 29, 9, -165, -165, -141, -102, 
9, -219, -229, 104, 119, -224, 43, 34, -175, -170, -151, -122, 
24, -229, -253, 102, 139, -241, 58, 48, -180, -170, -161, -131, 
34, -224, -258, 95, 146, -241, 58, 48, -180, -185, -161, -141, 
39, -224, -263, 92, 151, -244, 53, 48, -180, -185, -156, -136, 
43, -219, -263, 87, 153, -241, 53, 48, -180, -185, -156, -136, 
43, -219, -263, 87, 153, -241, 53, 48, -180, -180, -156, -136, 
34, -219, -253, 92, 143, -236, 53, 58, -180, -180, -156, -136, 
34, -219, -253, 92, 143, -236, 63, 73, -175, -185, -161, -146, 
43, -229, -273, 92, 158, -251, 68, 87, -175, -185, -165, -146, 
48, -229, -278, 90, 163, -253, 68, 92, -175, -185, -165, -146, 
48, -239, -287, 95, 168, -263, 68, 92, -175, -185, -170, -146, 
48, -234, -283, 92, 165, -258, 68, 92, -175, -190, -170, -146, 
48, -234, -283, 92, 165, -258, 68, 97, -175, -190, -170, -146, 
53, -234, -287, 90, 170, -261, 73, 97, -175, -190, -170, -146, 
53, -224, -278, 85, 165, -251, 73, 102, -185, -180, -175, -151, 
63, -229, -292, 82, 178, -261, 73, 107, -190, -190, -175, -151, 
68, -229, -297, 80, 183, -263, 78, 112, -190, -190, -175, -156, 
68, -239, -307, 85, 187, -273, 82, 117, -190, -190, -180, -161, 
78, -239, -317, 80, 197, -278, 82, 122, -180, -190, -180, -170, 
78, -239, -317, 80, 197, -278, 82, 126, -185, -190, -180, -170, 
82, -239, -322, 78, 202, -280, 87, 131, -185, -195, -180, -170, 
87, -239, -326, 75, 207, -283, 87, 136, -185, -195, -180, -175, 
78, -248, -326, 85, 202, -287, 87, 136, -195, -195, -185, -165, 
82, -248, -331, 82, 207, -290, 97, 141, -195, -200, -185, -170, 
82, -248, -331, 82, 207, -290, 97, 146, -195, -204, -190, -170, 
92, -248, -341, 78, 217, -295, 97, 151, -200, -204, -190, -170, 
92, -268, -361, 87, 226, -314, 107, 156, -190, -214, -200, -175, 
92, -268, -361, 87, 226, -314, 107, 165, -190, -214, -204, -175, 
97, -268, -366, 85, 231, -317, 112, 170, -195, -224, -204, -180, 
97, -268, -366, 85, 231, -317, 112, 175, -195, -224, -204, -180, 
102, -283, -385, 90, 244, -334, 107, 170, -195, -224, -204, -185, 
107, -283, -390, 87, 248, -336, 107, 175, -195, -229, -204, -190, 
107, -287, -395, 90, 251, -341, 112, 180, -195, -229, -204, -190, 
112, -287, -400, 87, 256, -344, 112, 185, -195, -229, -209, -190, 
122, -287, -409, 82, 265, -348, 122, 195, -195, -239, -219, -190, 
122, -287, -409, 82, 265, -348, 122, 204, -195, -239, -219, -190, 
117, -292, -409, 87, 263, -351, 131, 214, -195, -239, -224, -195, 
117, -292, -409, 87, 263, -351, 131, 229, -195, -239, -224, -195, 
122, -287, -409, 82, 265, -348, 131, 229, -204, -239, -224, -195, 
122, -287, -409, 82, 265, -348, 131, 234, -204, -244, -224, -200, 
122, -283, -405, 80, 263, -344, 131, 239, -204, -244, -229, -200, 
131, -278, -409, 73, 270, -344, 141, 248, -204, -244, -229, -200, 
131, -268, -400, 68, 265, -334, 146, 253, -204, -234, -219, -209, 
131, -268, -400, 68, 265, -334, 151, 253, -200, -234, -219, -214, 
141, -268, -409, 63, 275, -339, 156, 258, -200, -234, -219, -214, 
146, -268, -414, 61, 280, -341, 161, 273, -200, -234, -219, -214, 
141, -268, -409, 63, 275, -339, 165, 273, -195, -229, -219, -214, 
141, -268, -409, 63, 275, -339, 170, 287, -195, -229, -219, -214, 
151, -268, -419, 58, 285, -344, 175, 292, -185, -229, -224, -219, 
156, -268, -424, 56, 290, -346, 185, 307, -180, -229, -224, -219, 
156, -268, -424, 56, 290, -346, 190, 317, -180, -219, -214, -229, 
161, -273, -434, 56, 297, -353, 195, 326, -175, -214, -209, -229, 
165, -273, -439, 53, 302, -356, 204, 336, -170, -209, -209, -229, 
170, -268, -439, 48, 305, -353, 209, 346, -165, -209, -214, -234, 
170, -268, -439, 48, 305, -353, 214, 361, -161, -209, -224, -224, 
175, -268, -444, 46, 309, -356, 219, 370, -156, -209, -224, -229, 
175, -268, -444, 46, 309, -356, 229, 380, -151, -200, -224, -229, 
180, -268, -448, 43, 314, -358, 234, 390, -146, -195, -219, -229, 
185, -268, -453, 41, 319, -361, 239, 400, -141, -195, -214, -229, 
190, -263, -453, 36, 322, -358, 248, 409, -136, -195, -214, -229, 
190, -263, -453, 36, 322, -358, 258, 419, -126, -185, -214, -229, 
195, -258, -453, 31, 324, -356, 268, 439, -122, -180, -214, -229, 
200, -258, -458, 29, 329, -358, 268, 453, -117, -185, -214, -229, 
204, -253, -458, 24, 331, -356, 273, 463, -112, -170, -204, -229, 
209, -253, -463, 21, 336, -358, 278, 483, -102, -170, -200, -229, 
209, -253, -463, 21, 336, -358, 292, 492, -92, -165, -200, -229, 
209, -248, -458, 19, 334, -353, 302, 502, -82, -161, -200, -239, 
214, -244, -458, 14, 336, -351, 312, 512, -73, -156, -200, -239, 
214, -239, -453, 12, 334, -346, 322, 531, -68, -141, -190, -239, 
214, -234, -448, 9, 331, -341, 326, 536, -58, -141, -185, -239, 
229, -244, -473, 7, 351, -358, 336, 551, -48, -126, -180, -229, 
229, -239, -468, 4, 348, -353, 341, 556, -39, -117, -175, -229, 
239, -234, -473, -2, 356, -353, 351, 570, -29, -112, -170, -229, 
239, -229, -468, -4, 353, -348, 361, 580, -14, -102, -165, -224, 
239, -224, -463, -7, 351, -344, 370, 595, -9, -92, -161, -224, 
239, -224, -463, -7, 351, -344, 380, 605, 9, -82, -156, -224, 
244, -219, -463, -12, 353, -341, 385, 614, 14, -73, -151, -219, 
244, -214, -458, -14, 351, -336, 385, 624, 29, -63, -146, -214, 
234, -209, -444, -12, 339, -326, 405, 634, 53, -53, -131, -214, 
234, -204, -439, -14, 336, -322, 409, 644, 63, -43, -122, -209, 
234, -200, -434, -17, 334, -317, 414, 649, 68, -34, -117, -209, 
234, -195, -429, -19, 331, -312, 424, 658, 87, -24, -112, -209, 
234, -180, -414, -26, 324, -297, 439, 658, 102, -14, -107, -204, 
234, -170, -405, -31, 319, -287, 444, 663, 117, -4, -102, -204, 
234, -165, -400, -34, 317, -283, 448, 668, 131, 4, -92, -195, 
234, -161, -395, -36, 314, -278, 448, 673, 141, 14, -92, -190, 
229, -151, -380, -39, 305, -265, 439, 683, 141, 24, -82, -190, 
229, -146, -375, -41, 302, -261, 444, 683, 156, 34, -78, -190, 
224, -141, -366, -41, 295, -253, 444, 683, 170, 48, -73, -180, 
224, -136, -361, -43, 292, -248, 448, 683, 185, 58, -68, -175, 
224, -131, -356, -46, 290, -244, 448, 683, 190, 63, -63, -170, 
224, -126, -351, -48, 287, -239, 448, 683, 204, 73, -53, -170, 
219, -122, -341, -48, 280, -231, 448, 683, 214, 82, -48, -165, 
219, -117, -336, -51, 278, -226, 448, 678, 224, 97, -43, -161, 
204, -107, -312, -48, 258, -209, 444, 673, 229, 107, -34, -165, 
200, -102, -302, -48, 251, -202, 444, 668, 239, 117, -29, -161, 
195, -92, -287, -51, 241, -190, 439, 653, 248, 122, -19, -156, 
185, -87, -273, -48, 229, -180, 434, 649, 258, 131, -14, -151, 
180, -82, -263, -48, 222, -173, 439, 639, 268, 131, 0, -136, 
175, -78, -253, -48, 214, -165, 434, 634, 278, 146, 0, -131, 
165, -73, -239, -46, 202, -156, 429, 619, 287, 151, 4, -126, 
156, -63, -219, -46, 187, -141, 424, 605, 292, 161, 9, -122, 
146, -58, -204, -43, 175, -131, 414, 580, 292, 161, 14, -112, 
141, -53, -195, -43, 168, -124, 405, 566, 297, 170, 24, -107, 
141, -48, -190, -46, 165, -119, 395, 551, 302, 175, 29, -102, 
136, -43, -180, -46, 158, -112, 385, 531, 312, 180, 34, -97, 
131, -39, -170, -46, 151, -104, 375, 527, 302, 195, 34, -92, 
122, -34, -156, -43, 139, -95, 366, 507, 302, 195, 39, -82, 
117, -29, -146, -43, 131, -87, 356, 488, 307, 195, 43, -78, 
107, -29, -136, -39, 122, -82, 346, 468, 307, 200, 48, -78, 
97, -19, -117, -39, 107, -68, 331, 448, 312, 200, 53, -68, 
97, -14, -112, -41, 104, -63, 322, 429, 312, 200, 53, -63, 
82, -14, -97, -34, 90, -56, 312, 409, 307, 200, 53, -58, 
73, -14, -87, -29, 80, -51, 302, 390, 302, 200, 58, -53, 
68, -9, -78, -29, 73, -43, 283, 380, 297, 200, 58, -48, 
58, -9, -68, -24, 63, -39, 273, 361, 292, 195, 58, -43, 
58, 0, -58, -29, 58, -29, 258, 341, 287, 195, 68, -39, 
53, 0, -53, -26, 53, -26, 253, 322, 283, 195, 68, -34, 
43, 9, -34, -26, 39, -12, 239, 302, 278, 190, 68, -19, 
39, 9, -29, -24, 34, -9, 224, 283, 268, 185, 68, -19, 
34, 14, -19, -24, 26, -2, 219, 263, 258, 180, 68, -19, 
29, 14, -14, -21, 21, 0, 209, 244, 248, 175, 68, -14, 
24, 14, -9, -19, 17, 2, 200, 224, 248, 170, 78, -14, 
19, 14, -4, -17, 12, 4, 190, 209, 239, 170, 78, -4, 
14, 19, 4, -17, 4, 12, 170, 195, 229, 165, 78, -4, 
9, 19, 9, -14, 0, 14, 165, 180, 219, 161, 78, -4, 
-4, 29, 34, -12, -19, 31, 146, 165, 209, 161, 73, 0, 
-4, 29, 34, -12, -19, 31, 136, 151, 200, 151, 73, 0, 
-4, 29, 34, -12, -19, 31, 126, 136, 190, 146, 73, 9, 
-9, 34, 43, -12, -26, 39, 117, 122, 180, 141, 73, 9, 
-9, 34, 43, -12, -26, 39, 97, 112, 170, 136, 82, 14, 
-19, 34, 53, -7, -36, 43, 87, 97, 151, 126, 73, 14, 
-19, 29, 48, -4, -34, 39, 78, 82, 146, 117, 73, 14, 
-19, 29, 48, -4, -34, 39, 73, 78, 136, 117, 73, 14, 
-19, 19, 39, 0, -29, 29, 68, 68, 126, 122, 63, 14, 
-19, 19, 39, 0, -29, 29, 63, 68, 122, 117, 63, 14, 
-19, 19, 39, 0, -29, 29, 63, 63, 117, 112, 63, 14, 
-19, 19, 39, 0, -29, 29, 58, 58, 107, 107, 63, 14, 
-19, 19, 39, 0, -29, 29, 63, 43, 97, 102, 68, 14, 
-19, 19, 39, 0, -29, 29, 58, 39, 92, 97, 68, 14, 
-19, 19, 39, 0, -29, 29, 53, 39, 87, 92, 58, 14, 
-19, 14, 34, 2, -26, 24, 48, 34, 78, 87, 58, 9, 
-9, 14, 24, -2, -17, 19, 48, 29, 82, 73, 58, 19, 
-9, 14, 24, -2, -17, 19, 48, 24, 73, 68, 53, 19, 
-9, 14, 24, -2, -17, 19, 43, 24, 68, 68, 53, 19, 
-9, 9, 19, 0, -14, 14, 43, 24, 63, 63, 53, 19, 
-9, 9, 19, 0, -14, 14, 43, 24, 58, 68, 39, 19, 
-9, 4, 14, 2, -12, 9, 43, 19, 53, 63, 39, 19, 
-9, 4, 14, 2, -12, 9, 39, 19, 48, 58, 39, 19, 
-4, 4, 9, 0, -7, 7, 39, 14, 43, 58, 34, 19, 
-4, 4, 9, 0, -7, 7, 39, 14, 48, 43, 34, 9, 
-4, 4, 9, 0, -7, 7, 34, 14, 43, 43, 34, 9, 
-4, 0, 4, 2, -4, 2, 34, 14, 39, 43, 29, 9, 
-4, 0, 4, 2, -4, 2, 34, 14, 34, 43, 29, 4, 
-14, 0, 14, 7, -14, 7, 24, 14, 29, 34, 29, 14, 
-14, -4, 9, 9, -12, 2, 24, 9, 29, 29, 29, 14, 
-9, -4, 4, 7, -7, 0, 24, 9, 24, 29, 24, 14, 
-9, -4, 4, 7, -7, 0, 19, 9, 24, 29, 24, 14, 
-9, -14, -4, 12, -2, -9, 29, 9, 24, 24, 24, 14, 
-9, -14, -4, 12, -2, -9, 29, 9, 19, 24, 24, 14, 
-9, -14, -4, 12, -2, -9, 29, 9, 19, 24, 19, 14, 
-9, -19, -9, 14, 0, -14, 29, 9, 14, 24, 19, 9, 
-9, -9, 0, 9, -4, -4, 19, 9, 4, 14, 24, 9, 
-4, -9, -4, 7, 0, -7, 19, 9, 4, 14, 24, 9, 
-4, -9, -4, 7, 0, -7, 19, 9, 4, 14, 24, 9, 
-4, -9, -4, 7, 0, -7, 19, 14, 0, 14, 24, 9, 
-4, -14, -9, 9, 2, -12, 19, 14, 0, 9, 19, 9, 
-4, -14, -9, 9, 2, -12, 19, 14, 0, 9, 19, 9, 
-4, -14, -9, 9, 2, -12, 19, 14, 0, 9, 19, 9, 
0, -14, -14, 7, 7, -14, 19, 14, -4, 9, 19, 9, 
9, -4, -14, -2, 12, -9, 19, 19, -4, 9, 19, 9, 
9, -4, -14, -2, 12, -9, 19, 19, -4, 9, 19, 9, 
9, -4, -14, -2, 12, -9, 19, 19, -4, 4, 19, 9, 
14, -4, -19, -4, 17, -12, 19, 19, -4, 4, 14, 9, 
24, -4, -29, -9, 26, -17, 19, 24, -4, 4, 14, 4, 
24, -9, -34, -7, 29, -21, 19, 24, -4, 0, 14, 4, 
24, -9, -34, -7, 29, -21, 19, 24, -4, 0, 14, 4, 
24, -9, -34, -7, 29, -21, 19, 24, -4, 0, 14, 4, 
14, -9, -24, -2, 19, -17, 29, 24, 4, 9, 14, 4, 
19, -9, -29, -4, 24, -19, 29, 24, 4, 4, 14, 4, 
19, -9, -29, -4, 24, -19, 29, 29, 4, 4, 9, 4, 
19, -9, -29, -4, 24, -19, 29, 29, 4, 4, 9, 4, 
19, -9, -29, -4, 24, -19, 29, 29, 4, 14, 9, 4, 
19, -9, -29, -4, 24, -19, 29, 29, 4, 14, 9, 0, 
19, -9, -29, -4, 24, -19, 29, 29, 4, 14, 9, 0, 
19, -14, -34, -2, 26, -24, 29, 34, 4, 14, 9, 0, 
9, -24, -34, 7, 21, -29, 29, 34, 4, 4, 9, 0, 
14, -24, -39, 4, 26, -31, 29, 34, 4, 4, 4, 0, 
14, -24, -39, 4, 26, -31, 29, 34, 4, 9, 4, 0, 
14, -24, -39, 4, 26, -31, 29, 34, 4, 9, 4, -4, 
14, -24, -39, 4, 26, -31, 29, 39, 4, 9, 4, -4, 
14, -24, -39, 4, 26, -31, 29, 39, 4, 9, 4, -4, 
14, -24, -39, 4, 26, -31, 29, 39, 4, 9, 4, -4, 
14, -24, -39, 4, 26, -31, 29, 39, 4, 9, 4, -4, 
14, -24, -39, 4, 26, -31, 29, 39, 14, 9, 4, -4, 
14, -24, -39, 4, 26, -31, 29, 39, 14, 9, 4, -4, 
14, -24, -39, 4, 26, -31, 29, 39, 14, 9, 4, -4, 
14, -24, -39, 4, 26, -31, 29, 39, 14, 9, 4, -4, 
14, -24, -39, 4, 26, -31, 19, 39, 4, 4, 0, -4, 
14, -24, -39, 4, 26, -31, 19, 34, 4, 4, 0, -9, 
14, -24, -39, 4, 26, -31, 19, 34, 4, 4, 0, -9, 
14, -24, -39, 4, 26, -31, 19, 34, 4, 0, 0, -9, 
14, -24, -39, 4, 26, -31, 19, 34, 4, -9, 0, -14, 
9, -24, -34, 7, 21, -29, 19, 34, 0, -9, 0, -14, 
9, -24, -34, 7, 21, -29, 19, 34, 0, -9, -4, -14, 
9, -29, -39, 9, 24, -34, 14, 34, 0, -9, -4, -14, 
9, -29, -39, 9, 24, -34, 14, 34, 0, -9, -4, -14, 
9, -29, -39, 9, 24, -34, 14, 34, -4, -9, -4, -14, 
9, -34, -43, 12, 26, -39, 14, 34, -4, -9, -4, -14, 
9, -34, -43, 12, 26, -39, 14, 29, -4, -9, -4, -14, 
9, -34, -43, 12, 26, -39, 14, 29, -19, -14, -9, -14, 
9, -34, -43, 12, 26, -39, 9, 29, -19, -14, -9, -14, 
4, -34, -39, 14, 21, -36, 9, 19, -19, -14, -9, -14, 
4, -39, -43, 17, 24, -41, 9, 19, -19, -14, -9, -14, 
4, -29, -34, 12, 19, -31, 9, 24, -19, -14, -9, -4, 
4, -29, -34, 12, 19, -31, 4, 24, -24, -19, -9, -4, 
4, -29, -34, 12, 19, -31, 4, 19, -24, -19, -9, -4, 
4, -29, -34, 12, 19, -31, 4, 19, -29, -19, -14, -4, 
4, -29, -34, 12, 19, -31, 4, 19, -19, -19, -14, -14, 
4, -29, -34, 12, 19, -31, 4, 14, -24, -24, -14, -14, 
4, -29, -34, 12, 19, -31, 4, 9, -29, -24, -14, -14, 
4, -29, -34, 12, 19, -31, 0, 4, -34, -24, -14, -14, 
14, -29, -43, 7, 29, -36, 0, 4, -34, -29, -14, -14, 
14, -29, -43, 7, 29, -36, 0, 4, -34, -29, -14, -14, 
14, -29, -43, 7, 29, -36, -4, 0, -34, -34, -14, -14, 
14, -29, -43, 7, 29, -36, -4, 0, -34, -34, -14, -14, 
14, -34, -48, 9, 31, -41, -14, 0, -39, -24, -14, -9, 
14, -34, -48, 9, 31, -41, -14, -4, -39, -29, -19, -9, 
14, -34, -48, 9, 31, -41, -14, -4, -48, -29, -19, -4, 
14, -34, -48, 9, 31, -41, -14, -4, -48, -34, -19, -4, 
14, -29, -43, 7, 29, -36, -14, -4, -39, -24, -9, -4, 
14, -29, -43, 7, 29, -36, -19, -4, -43, -24, -9, -9, 
14, -29, -43, 7, 29, -36, -19, -9, -43, -24, -9, -9, 
9, -34, -43, 12, 26, -39, -19, -9, -43, -24, -14, -9, 
0, -24, -24, 12, 12, -24, -19, -9, -39, -29, -4, 0, 
0, -29, -29, 14, 14, -29, -19, -14, -39, -29, -4, 0, 
0, -29, -29, 14, 14, -29, -19, -14, -39, -29, -4, 0, 
0, -29, -29, 14, 14, -29, -19, -19, -39, -29, -4, 0, 
0, -29, -29, 14, 14, -29, -19, -29, -34, -34, -4, 0, 
0, -29, -29, 14, 14, -29, -19, -29, -34, -34, -4, 0, 
0, -24, -24, 12, 12, -24, -19, -29, -34, -34, -4, 0, 
0, -24, -24, 12, 12, -24, -19, -29, -34, -34, -4, 0, 
0, -19, -19, 9, 9, -19, -24, -29, -43, -34, -14, 4, 
0, -19, -19, 9, 9, -19, -24, -29, -43, -39, -14, 4, 
0, -19, -19, 9, 9, -19, -24, -29, -43, -39, -14, 4, 
0, -19, -19, 9, 9, -19, -24, -34, -43, -39, -14, 4, 
14, -14, -29, 0, 21, -21, -29, -34, -48, -48, -14, 9, 
14, -14, -29, 0, 21, -21, -29, -29, -48, -48, -14, 9, 
14, -14, -29, 0, 21, -21, -29, -29, -48, -48, -14, 9, 
14, -14, -29, 0, 21, -21, -29, -29, -48, -43, -9, 9, 
24, -19, -43, -2, 34, -31, -24, -19, -48, -53, -14, 9, 
24, -14, -39, -4, 31, -26, -19, -19, -48, -48, -14, 9, 
24, -4, -29, -9, 26, -17, -19, -24, -48, -48, -14, 14, 
29, 0, -29, -14, 29, -14, -14, -24, -48, -48, -14, 14, 
29, 4, -24, -17, 26, -9, -4, -14, -39, -34, -4, 14, 
34, 9, -24, -21, 29, -7, 0, -14, -34, -34, 0, 19, 
34, 24, -9, -29, 21, 7, 0, -14, -34, -24, 4, 24, 
39, 29, -9, -34, 24, 9, 0, -9, -29, -19, 9, 19, 
39, 39, 0, -39, 19, 19, 9, -9, -19, -19, 9, 29, 
39, 39, 0, -39, 19, 19, 9, -9, -19, -19, 9, 29, 
39, 39, 0, -39, 19, 19, 9, -9, -19, -19, 9, 29, 
39, 39, 0, -39, 19, 19, 9, -9, -19, -19, 9, 29, 
48, 58, 9, -53, 19, 34, 0, -9, -19, -9, 9, 34, 
53, 63, 9, -58, 21, 36, 0, -9, -14, -9, 14, 34, 
58, 68, 9, -63, 24, 39, -9, -9, -4, -4, 24, 43, 
63, 73, 9, -68, 26, 41, -14, -9, 4, 0, 29, 48, 
68, 92, 24, -80, 21, 58, -19, -14, 4, 4, 39, 53, 
68, 102, 34, -85, 17, 68, -24, -19, 4, 9, 43, 58, 
73, 112, 39, -92, 17, 75, -39, -24, 14, 9, 48, 58, 
78, 122, 43, -100, 17, 82, -39, -29, 14, 14, 53, 63, 
78, 131, 53, -104, 12, 92, -53, -24, 14, 29, 58, 78, 
82, 141, 58, -112, 12, 100, -63, -29, 14, 29, 63, 87, 
82, 146, 63, -114, 9, 104, -73, -34, 14, 34, 63, 87, 
82, 156, 73, -119, 4, 114, -82, -39, 19, 34, 68, 97, 
92, 165, 73, -129, 9, 119, -92, -53, 19, 34, 82, 102, 
97, 175, 78, -136, 9, 126, -97, -58, 19, 39, 82, 107, 
97, 175, 78, -136, 9, 126, -107, -68, 14, 39, 82, 112, 
97, 180, 82, -139, 7, 131, -117, -73, 9, 39, 87, 117, 
97, 185, 87, -141, 4, 136, -126, -82, 4, 39, 87, 117, 
97, 190, 92, -143, 2, 141, -126, -82, 4, 39, 92, 122, 
97, 195, 97, -146, 0, 146, -136, -92, 0, 39, 92, 126, 
97, 200, 102, -148, -2, 151, -141, -97, -4, 39, 97, 126, 
92, 190, 97, -141, -2, 143, -156, -102, -9, 29, 87, 117, 
92, 195, 102, -143, -4, 148, -161, -107, -9, 29, 87, 122, 
92, 200, 107, -146, -7, 153, -165, -112, -14, 29, 87, 122, 
97, 204, 107, -151, -4, 156, -170, -112, -19, 29, 87, 126, 
97, 195, 97, -146, 0, 146, -175, -112, -29, 29, 92, 126, 
97, 195, 97, -146, 0, 146, -175, -117, -29, 29, 92, 131, 
97, 195, 97, -146, 0, 146, -175, -117, -29, 29, 102, 131, 
97, 204, 107, -151, -4, 156, -175, -117, -29, 34, 102, 141, 
97, 204, 107, -151, -4, 156, -175, -117, -29, 34, 92, 141, 
97, 209, 112, -153, -7, 161, -175, -117, -34, 34, 92, 141, 
97, 209, 112, -153, -7, 161, -180, -122, -34, 34, 97, 146, 
97, 209, 112, -153, -7, 161, -180, -122, -34, 34, 97, 146, 
97, 214, 117, -156, -9, 165, -180, -131, -34, 34, 107, 146, 
97, 214, 117, -156, -9, 165, -175, -131, -39, 34, 107, 146, 
97, 214, 117, -156, -9, 165, -175, -131, -39, 34, 107, 146, 
97, 209, 112, -153, -7, 161, -175, -131, -39, 34, 107, 146, 
92, 209, 117, -151, -12, 163, -165, -126, -43, 34, 107, 146, 
92, 204, 112, -148, -9, 158, -161, -126, -48, 34, 97, 136, 
82, 190, 107, -136, -12, 148, -156, -117, -48, 24, 92, 131, 
82, 175, 92, -129, -4, 134, -146, -112, -53, 19, 87, 122, 
63, 151, 87, -107, -12, 119, -146, -117, -43, 14, 73, 112, 
58, 136, 78, -97, -9, 107, -136, -112, -53, 9, 68, 102, 
48, 122, 73, -85, -12, 97, -126, -107, -53, 4, 53, 92, 
39, 97, 58, -68, -9, 78, -122, -102, -58, 0, 48, 82, 
29, 87, 58, -58, -14, 73, -102, -87, -63, -14, 39, 73, 
19, 68, 48, -43, -14, 58, -92, -87, -63, -24, 29, 63, 
14, 48, 34, -31, -9, 41, -87, -87, -68, -34, 19, 53, 
4, 29, 24, -17, -9, 26, -78, -87, -73, -39, 9, 43, 
-4, 9, 14, -2, -9, 12, -73, -82, -78, -48, 0, 34, 
-9, -4, 4, 7, -7, 0, -68, -82, -82, -58, -9, 24, 
-9, -14, -4, 12, -2, -9, -63, -82, -87, -63, -19, 14, 
-14, -29, -14, 21, 0, -21, -58, -78, -92, -63, -19, 4, 
-9, -43, -34, 26, 12, -39, -53, -78, -107, -73, -34, 4, 
-19, -58, -39, 39, 9, -48, -48, -78, -107, -78, -39, -4, 
-19, -63, -43, 41, 12, -53, -48, -78, -112, -87, -48, -9, 
-24, -82, -58, 53, 17, -70, -48, -78, -117, -92, -48, -14, 
-29, -87, -58, 58, 14, -73, -48, -78, -122, -97, -53, -29, 
-29, -97, -68, 63, 19, -82, -43, -78, -122, -102, -58, -34, 
-34, -102, -68, 68, 17, -85, -43, -78, -122, -102, -63, -39, 
-34, -107, -73, 70, 19, -90, -43, -78, -122, -102, -68, -39, 
-34, -117, -82, 75, 24, -100, -43, -78, -131, -112, -78, -39, 
-34, -122, -87, 78, 26, -104, -43, -78, -131, -117, -78, -43, 
-34, -122, -87, 78, 26, -104, -39, -78, -131, -117, -78, -43, 
-39, -122, -82, 80, 21, -102, -39, -78, -131, -112, -78, -43, 
-39, -131, -92, 85, 26, -112, -39, -78, -131, -122, -78, -48, 
-39, -136, -97, 87, 29, -117, -39, -73, -131, -122, -78, -48, 
-39, -136, -97, 87, 29, -117, -34, -73, -131, -122, -82, -48, 
-39, -136, -97, 87, 29, -117, -34, -73, -131, -122, -82, -53, 
-39, -126, -87, 82, 24, -107, -34, -68, -131, -126, -82, -53, 
-39, -131, -92, 85, 26, -112, -34, -68, -131, -126, -82, -53, 
-39, -131, -92, 85, 26, -112, -34, -68, -131, -126, -82, -53, 
-39, -131, -92, 85, 26, -112, -34, -68, -131, -126, -82, -48, 
