I,II,III,aVR,aVL,aVF,V1,V2,V3,V4,V5,V6
-78,30,54,20,-64,44,115,-89,-19,-31,-22,19
-78,31,54,19,-65,45,115,-89,-19,-31,-22,19
-78,32,55,18,-65,45,115,-89,-19,-31,-22,19
-78,33,55,17,-66,46,115,-89,-19,-31,-22,19
-78,33,56,16,-66,47,115,-89,-19,-31,-22,19
-78,33,56,16,-66,47,115,-89,-19,-31,-22,19
-78,33,56,16,-66,47,115,-89,-19,-31,-22,19
-78,33,56,16,-66,47,115,-89,-19,-31,-22,19
-78,33,56,16,-66,47,115,-89,-19,-31,-22,19
-78,33,56,16,-66,47,115,-89,-19,-31,-22,19
-78,33,56,16,-66,47,115,-89,-19,-31,-22,19
-78,33,56,16,-66,47,115,-89,-19,-31,-22,19
-78,33,56,16,-66,47,115,-89,-19,-31,-22,19
-80,33,57,17,-67,47,115,-89,-19,-31,-22,19
-81,33,57,18,-68,48,115,-89,-19,-31,-22,19
-83,33,58,19,-69,48,115,-89,-19,-31,-22,19
-84,33,59,21,-70,48,114,-89,-19,-32,-22,19
-86,32,59,23,-70,48,113,-89,-20,-33,-22,19
-87,32,59,24,-71,48,112,-89,-21,-33,-22,19
-89,31,59,26,-71,47,111,-89,-23,-35,-22,19
-90,30,59,28,-72,47,110,-89,-24,-35,-22,19
-90,30,59,28,-72,47,110,-89,-24,-36,-22,19
-90,30,59,28,-72,47,109,-89,-24,-36,-22,19
-90,30,59,28,-72,47,109,-89,-24,-36,-22,19
-90,30,59,28,-72,47,109,-89,-24,-36,-22,19
-90,30,59,28,-72,47,109,-89,-24,-36,-22,19
-90,30,59,28,-72,47,109,-89,-24,-36,-22,19
-90,30,59,28,-72,47,109,-89,-24,-36,-22,19
-90,30,59,28,-71,47,109,-89,-24,-36,-22,19
-88,30,58,27,-71,46,109,-89,-22,-36,-22,19
-87,30,57,26,-70,46,109,-89,-21,-36,-22,19
-86,30,57,26,-69,46,109,-89,-20,-36,-22,19
-84,30,56,24,-68,46,109,-89,-19,-36,-22,19
-83,31,56,22,-68,46,109,-89,-19,-36,-22,19
-81,32,56,20,-67,46,109,-89,-19,-36,-22,19
-79,33,56,18,-67,47,109,-89,-19,-36,-22,19
-77,34,56,15,-66,47,109,-89,-19,-35,-22,19
-73,36,55,10,-64,47,109,-89,-19,-34,-22,19
-68,37,55,5,-62,48,109,-89,-19,-33,-22,19
-64,39,54,0,-60,48,109,-89,-19,-32,-22,19
-60,41,54,-4,-58,48,109,-89,-18,-32,-22,19
-56,42,53,-8,-57,49,109,-89,-17,-31,-21,19
-53,43,52,-11,-55,49,109,-89,-16,-31,-20,19
-51,44,52,-13,-54,49,109,-89,-15,-31,-19,19
-50,44,52,-14,-54,49,109,-89,-15,-31,-18,19
-50,44,52,-14,-54,49,109,-89,-15,-31,-18,19
-50,44,52,-14,-54,49,109,-89,-15,-31,-18,19
-50,44,52,-14,-54,49,109,-89,-15,-31,-18,19
-50,44,52,-14,-54,49,109,-89,-15,-31,-18,19
-50,44,52,-14,-54,49,109,-89,-15,-31,-18,19
-196,96,150,28,-172,128,119,-71,50,58,96,107
-196,96,150,28,-172,128,119,-71,50,58,96,107
-196,96,150,28,-172,128,119,-71,50,58,96,107
-196,96,150,28,-172,128,119,-71,50,58,96,107
-209,89,150,44,-177,126,119,-76,47,54,91,103
-193,89,144,33,-167,122,121,-76,47,51,91,103
-200,85,144,41,-169,120,122,-76,47,55,94,103
-224,83,152,61,-183,124,126,-73,53,54,94,103
-214,81,146,56,-175,120,130,-71,51,49,90,102
-207,81,144,52,-171,118,132,-69,47,44,85,100
-186,90,141,27,-163,120,132,-59,39,35,76,105
-186,76,131,42,-155,109,132,-62,28,23,64,99
-201,66,131,63,-160,105,129,-71,20,10,59,94
-198,38,111,92,-144,81,115,-82,-8,-20,23,70
-105,-8,39,79,-62,20,114,-82,-78,-96,-77,5
-105,-16,34,88,-58,14,109,-87,-96,-112,-85,-1
-92,-17,28,80,-50,10,109,-92,-104,-121,-92,-2
-83,-19,22,77,-42,5,109,-85,-113,-129,-100,-5
-77,-28,13,82,-34,-3,114,-73,-120,-138,-100,-5
-83,-37,10,96,-33,-9,111,-76,-132,-148,-122,-12
-89,-43,9,106,-34,-12,111,-76,-140,-156,-129,-14
-80,-50,-1,109,-24,-21,111,-76,-154,-173,-141,-20
-44,-50,-16,85,-2,-30,112,-66,-165,-183,-147,-27
-10,-42,-25,52,15,-31,123,-41,-176,-186,-150,-24
-47,-75,-32,114,9,-49,112,-62,-189,-201,-172,-47
-59,-91,-37,139,9,-59,115,-50,-196,-206,-179,-51
-67,-106,-44,161,12,-69,118,-36,-204,-215,-194,-64
-59,-119,-56,169,23,-82,121,-32,-215,-229,-212,-74
-42,-122,-66,162,36,-89,111,-36,-226,-240,-219,-86
-21,-129,-80,155,53,-100,105,-38,-232,-247,-234,-93
-14,-134,-86,156,59,-105,105,-38,-240,-253,-242,-99
-36,-134,-77,171,45,-100,109,-32,-242,-253,-236,-90
-31,-141,-83,175,52,-107,102,-41,-257,-263,-245,-98
-21,-148,-93,176,63,-116,101,-45,-270,-277,-259,-102
-5,-153,-103,171,75,-124,95,-57,-284,-281,-270,-111
1,-163,-113,177,84,-133,88,-57,-293,-288,-279,-119
18,-165,-121,167,95,-139,88,-62,-294,-291,-281,-122
28,-163,-124,159,100,-140,90,-48,-294,-291,-283,-128
31,-173,-132,168,108,-149,93,-27,-300,-297,-293,-139
32,-182,-139,177,113,-157,97,-15,-303,-305,-305,-152
43,-185,-146,173,121,-162,98,-4,-304,-307,-311,-157
43,-189,-148,177,123,-165,98,-4,-307,-307,-313,-161
43,-194,-152,182,126,-169,94,-13,-310,-309,-316,-167
47,-193,-153,178,128,-169,97,-10,-308,-307,-315,-167
57,-186,-152,164,130,-166,104,0,-300,-300,-310,-165
62,-181,-151,156,132,-164,107,7,-294,-295,-305,-164
59,-183,-151,159,130,-164,107,5,-293,-294,-304,-166
51,-187,-150,169,127,-165,109,2,-292,-293,-304,-169
48,-189,-150,174,126,-166,113,2,-290,-291,-305,-171
47,-189,-150,175,126,-166,113,-9,-289,-290,-305,-173
43,-190,-149,179,124,-166,106,-32,-291,-289,-304,-175
42,-188,-147,177,122,-164,99,-56,-291,-285,-303,-175
43,-182,-144,170,120,-160,95,-77,-288,-278,-298,-172
47,-173,-139,157,118,-153,89,-96,-284,-270,-290,-166
54,-165,-136,144,118,-148,76,-120,-282,-265,-285,-164
56,-161,-135,138,117,-145,58,-153,-283,-264,-282,-163
57,-156,-132,132,115,-141,43,-183,-280,-262,-278,-161
61,-148,-128,120,114,-136,32,-206,-273,-257,-270,-157
62,-139,-122,110,110,-129,23,-226,-264,-251,-262,-152
60,-130,-115,102,104,-122,16,-241,-254,-243,-252,-146
54,-120,-106,95,95,-111,14,-247,-239,-231,-240,-138
42,-110,-93,92,82,-100,15,-246,-223,-216,-224,-129
31,-99,-82,88,70,-89,16,-243,-207,-203,-211,-120
27,-89,-72,79,62,-79,19,-239,-193,-191,-200,-114
19,-82,-64,77,53,-71,21,-240,-182,-181,-191,-109
9,-75,-56,76,44,-64,23,-241,-172,-172,-183,-105
7,-65,-47,66,37,-54,27,-237,-159,-162,-173,-97
2,-54,-38,58,29,-44,33,-228,-145,-150,-160,-88
-8,-41,-25,50,16,-31,43,-213,-125,-133,-141,-74
-18,-27,-11,42,2,-17,54,-194,-106,-116,-122,-60
-31,-19,0,41,-10,-8,60,-184,-91,-104,-107,-50
-42,-14,8,44,-19,-1,64,-179,-79,-93,-95,-42
-51,-9,16,44,-28,6,67,-174,-66,-82,-83,-33
-61,-2,24,44,-37,14,72,-166,-53,-71,-69,-25
-75,6,36,44,-50,24,78,-155,-38,-57,-54,-14
-89,17,50,42,-65,36,85,-141,-22,-42,-37,-2
-100,27,61,38,-77,47,90,-129,-10,-31,-23,8
-100,37,68,27,-81,55,93,-120,-2,-24,-14,14
-97,44,71,17,-83,60,95,-113,3,-19,-7,20
-100,47,75,16,-86,63,95,-108,8,-14,-3,25
-103,49,78,16,-90,66,94,-104,12,-10,2,29
-99,55,80,7,-90,70,95,-97,18,-5,8,34
-95,60,82,-2,-90,73,95,-93,22,-1,12,38
-95,61,82,-2,-91,73,92,-95,23,0,14,39
-93,60,81,-3,-89,73,90,-100,22,-0,13,39
-90,62,81,-7,-88,73,88,-102,22,-0,13,40
-90,63,82,-8,-88,74,88,-100,23,1,15,41
-93,63,83,-6,-90,75,89,-97,23,2,17,42
-94,63,83,-5,-91,75,90,-96,24,3,19,44
-92,63,83,-7,-90,75,90,-96,25,4,20,45
-92,63,83,-7,-90,75,90,-96,26,4,21,46
-97,63,85,-3,-93,76,91,-95,27,6,24,47
-103,62,86,3,-96,76,92,-94,28,7,27,48
-106,61,88,5,-98,77,92,-94,29,8,30,48
-106,62,88,4,-99,78,91,-94,29,8,31,48
-108,62,88,5,-99,78,88,-95,29,9,31,48
-110,61,89,8,-100,77,86,-95,28,9,30,47
-112,62,90,8,-102,78,85,-95,29,9,31,48
-111,63,91,6,-102,80,86,-93,30,10,32,49
-110,65,91,3,-102,80,86,-92,31,11,33,50
-109,65,92,3,-102,81,87,-91,32,11,34,51
-108,66,91,1,-102,81,87,-91,32,12,36,52
-105,66,90,-2,-100,81,88,-91,32,13,36,52
-101,67,89,-5,-98,80,89,-91,33,13,36,53
-98,68,89,-8,-96,80,91,-90,33,14,37,53
-91,70,87,-16,-93,80,93,-89,34,14,38,53
-88,71,86,-18,-91,80,92,-89,34,15,38,53
-92,70,88,-15,-94,81,92,-88,34,15,38,53
-97,70,89,-11,-96,82,91,-87,35,16,39,54
-104,69,92,-6,-101,83,90,-87,35,16,39,54
-112,67,94,3,-105,83,89,-88,34,15,38,53
-109,69,94,-2,-104,84,89,-88,34,17,39,54
-99,74,93,-14,-100,86,90,-86,36,20,41,56
-97,77,94,-18,-100,87,90,-85,37,22,43,57
-96,78,94,-20,-100,88,89,-85,38,23,45,57
-97,77,94,-19,-100,87,87,-87,37,23,43,57
-99,75,94,-15,-101,86,85,-90,37,23,43,56
-101,73,93,-12,-101,85,83,-92,36,22,42,56
-97,76,93,-17,-99,86,85,-91,38,23,44,57
-89,81,93,-28,-97,88,86,-88,40,25,47,60
-88,81,93,-29,-96,88,86,-89,39,24,49,62
-91,82,95,-28,-99,90,86,-89,39,25,51,64
-91,84,97,-31,-100,92,86,-87,41,26,53,66
-94,84,98,-28,-102,92,85,-86,41,26,53,66
-98,82,98,-23,-104,92,83,-86,42,25,53,66
-98,83,99,-24,-104,93,83,-83,44,26,53,66
-96,84,99,-27,-103,93,83,-81,46,26,54,67
-97,83,98,-24,-103,92,80,-81,46,26,54,66
-100,80,98,-20,-104,91,78,-82,45,25,53,66
-99,81,98,-21,-104,91,76,-81,46,26,54,67
-95,83,98,-26,-102,92,77,-80,48,28,56,68
-89,87,98,-35,-101,94,78,-79,50,30,59,70
-86,90,99,-40,-100,95,78,-79,52,32,61,71
-89,89,100,-37,-102,96,79,-81,52,32,61,71
-95,88,101,-32,-104,96,79,-83,53,32,62,72
-95,88,101,-32,-105,96,79,-83,53,33,62,72
-92,90,101,-36,-104,97,79,-82,55,34,64,73
-94,90,102,-35,-105,97,78,-82,56,35,64,74
-98,89,103,-31,-107,97,76,-82,56,36,65,74
-97,91,104,-34,-107,98,76,-82,57,36,67,75
-91,95,104,-42,-105,100,77,-81,58,37,71,77
-84,100,105,-52,-104,103,78,-78,61,39,75,80
-80,103,105,-58,-103,104,78,-77,63,42,78,81
-82,103,106,-57,-104,105,78,-75,63,44,81,83
-85,103,107,-55,-106,105,77,-73,63,46,83,84
-87,103,108,-53,-107,106,77,-70,64,48,85,86
-84,106,109,-59,-107,108,79,-66,67,51,89,88
-81,109,110,-64,-107,110,81,-60,71,54,91,89
-85,109,111,-62,-109,111,82,-57,73,57,92,90
-87,109,112,-60,-110,111,82,-55,74,58,93,90
-87,109,112,-61,-110,111,82,-54,76,60,93,91
-87,112,114,-63,-111,113,84,-51,80,63,97,93
-88,113,115,-64,-113,115,86,-48,85,66,100,96
-90,115,117,-65,-115,116,86,-44,89,69,103,99
-88,119,119,-70,-116,119,87,-39,94,72,107,102
-87,123,121,-75,-117,122,88,-33,99,75,110,105
-85,126,123,-80,-118,124,89,-27,103,78,113,107
-83,129,124,-84,-118,126,89,-23,106,80,115,109
-83,130,125,-86,-118,127,88,-19,109,81,117,111
-83,131,126,-87,-119,128,87,-15,112,83,119,112
-78,136,127,-96,-119,131,88,-6,116,88,125,117
-71,143,128,-108,-117,134,90,5,122,93,131,122
-71,143,129,-108,-118,135,90,8,125,96,135,123
-75,142,130,-105,-119,135,89,8,126,98,137,124
-74,145,131,-108,-120,137,89,11,129,102,141,127
-70,149,132,-115,-120,139,88,15,132,106,146,130
-67,151,133,-119,-119,141,87,17,134,109,150,132
-70,152,135,-119,-121,142,83,14,136,111,152,133
-69,153,135,-120,-122,143,78,10,137,112,153,134
-66,156,135,-125,-121,144,73,7,140,114,156,135
-60,162,137,-135,-120,147,71,7,143,118,161,140
-54,168,138,-146,-119,150,69,8,146,121,166,146
-50,170,138,-152,-118,152,64,5,146,123,167,149
-47,172,139,-156,-117,153,60,1,146,124,168,150
-47,175,140,-159,-118,154,57,-2,146,125,169,154
-48,177,142,-160,-120,157,53,-4,147,126,170,157
-52,176,144,-157,-123,157,49,-8,147,125,170,158
-52,177,144,-157,-123,157,45,-13,146,125,170,160
-45,180,143,-165,-120,158,42,-16,145,125,171,160
-40,181,142,-170,-117,158,39,-18,141,124,171,158
-38,180,140,-170,-116,157,36,-19,136,121,169,156
-38,179,139,-170,-115,156,34,-19,131,119,168,154
-39,178,139,-168,-115,155,33,-19,128,117,168,153
-43,175,139,-162,-116,154,31,-21,125,114,165,151
-41,176,138,-164,-115,154,30,-19,123,113,164,152
-37,177,138,-168,-113,154,30,-18,121,112,163,154
-38,176,137,-166,-114,153,28,-18,119,110,160,154
-36,176,137,-168,-113,153,29,-17,118,109,159,154
-32,177,136,-171,-111,153,31,-15,117,109,159,154
-31,176,134,-171,-109,151,33,-15,115,107,158,153
-29,175,133,-171,-107,150,35,-13,114,106,157,152
-27,174,132,-172,-106,149,38,-13,113,105,155,152
-27,172,130,-169,-105,147,38,-15,111,103,153,150
-30,168,129,-163,-105,145,39,-16,108,100,151,148
-32,165,128,-158,-105,143,41,-15,106,98,148,147
-35,163,127,-154,-105,142,42,-15,104,96,146,145
-37,159,125,-148,-104,139,43,-16,101,93,143,143
-38,157,124,-145,-103,137,44,-17,98,91,140,141
-35,156,122,-145,-102,136,45,-16,96,89,137,140
-31,152,118,-145,-97,132,46,-16,92,86,133,138
-29,148,114,-141,-94,128,46,-16,88,82,126,134
-27,144,111,-139,-91,125,47,-14,85,79,122,131
-28,140,108,-134,-89,122,49,-13,82,75,117,128
-30,135,106,-127,-87,118,49,-12,79,71,111,124
-33,129,103,-118,-87,114,50,-10,75,66,106,120
-31,126,100,-116,-84,111,51,-6,73,62,102,116
-26,124,97,-117,-80,108,52,-4,70,58,97,113
-27,120,94,-112,-78,105,54,-6,65,54,92,109
-31,115,93,-104,-78,102,56,-7,61,50,88,105
-36,111,92,-96,-79,100,58,-8,58,47,84,102
-39,107,90,-91,-79,97,59,-10,54,44,79,99
-38,103,87,-87,-77,94,60,-10,50,42,75,95
-39,98,85,-81,-75,90,61,-11,45,39,69,91
-40,93,81,-74,-73,86,62,-12,41,35,64,87
-43,87,78,-66,-71,82,62,-13,36,31,59,82
-44,83,76,-60,-70,79,63,-14,33,27,55,79
-44,81,74,-58,-69,77,66,-15,30,23,52,77
-42,79,72,-58,-67,75,70,-15,28,19,49,75
-42,76,71,-54,-66,73,70,-16,25,16,45,72
-43,73,69,-51,-65,71,70,-19,22,13,42,69
-44,70,67,-47,-63,68,71,-21,19,11,38,66
-45,66,65,-41,-62,65,71,-23,15,8,35,63
-44,65,63,-41,-61,64,72,-24,13,6,33,61
-44,64,63,-41,-60,64,72,-24,12,5,32,60
-44,64,63,-41,-60,63,72,-24,12,5,32,60
-44,64,63,-41,-60,63,72,-24,12,5,32,60
-44,64,63,-41,-60,63,72,-24,12,5,32,60
-44,64,63,-41,-60,63,72,-24,12,5,32,60
-47,55,58,-28,-58,57,71,-30,5,-2,25,52
-51,43,51,-13,-54,48,71,-38,-5,-12,15,42
-52,39,49,-8,-53,45,70,-41,-9,-15,12,38
-53,38,48,-6,-52,44,70,-42,-10,-17,10,37
-53,38,48,-5,-52,44,70,-43,-11,-17,9,37
-53,37,48,-5,-52,44,70,-43,-12,-17,8,37
-54,37,48,-4,-52,44,71,-43,-13,-17,7,36
-55,36,48,-3,-53,43,72,-43,-13,-17,7,35
-56,35,48,-1,-53,43,73,-43,-13,-17,7,34
-58,34,48,1,-54,43,75,-43,-13,-17,7,32
-59,33,48,3,-54,42,75,-43,-13,-17,7,31
-59,33,47,4,-54,41,76,-43,-13,-17,7,31
-59,32,47,5,-53,41,76,-43,-13,-17,7,31
-59,31,46,7,-53,40,76,-43,-13,-17,7,31
-59,30,46,7,-52,39,76,-43,-13,-17,7,31
-59,30,46,8,-52,39,76,-43,-13,-17,7,31
-59,30,46,8,-52,39,76,-43,-13,-17,7,31
-59,30,46,8,-52,39,76,-43,-13,-17,7,31
-59,30,46,8,-52,39,76,-43,-13,-17,7,31
-59,30,46,8,-52,39,76,-43,-13,-17,7,31
-59,30,46,8,-52,39,76,-43,-13,-17,7,31
-59,30,46,8,-52,39,76,-43,-13,-17,7,31
-59,29,45,8,-52,39,76,-44,-13,-17,7,31
-59,28,44,10,-51,37,76,-45,-13,-17,7,31
-59,26,43,12,-50,36,76,-47,-13,-17,7,31
-59,24,42,14,-49,34,76,-50,-13,-17,7,31
-59,23,41,15,-49,34,76,-51,-13,-17,7,31
-59,24,42,13,-50,35,76,-51,-13,-16,7,31
-59,26,43,12,-50,36,76,-52,-13,-15,7,31
-59,28,44,10,-51,38,76,-52,-13,-13,7,31
-59,29,45,8,-52,39,76,-51,-13,-13,7,31
-59,29,45,8,-52,39,76,-49,-13,-13,7,31
-59,30,46,8,-52,39,76,-47,-13,-12,7,31
-59,30,46,8,-52,39,76,-45,-13,-12,7,31
-59,30,46,8,-52,39,76,-44,-13,-12,7,31
-59,30,46,8,-52,39,76,-43,-13,-11,7,31
-59,30,46,8,-52,39,76,-43,-13,-10,7,31
-59,30,46,8,-52,39,76,-43,-13,-9,7,31
-59,30,46,7,-52,39,76,-43,-13,-8,7,31
-57,31,46,5,-52,40,76,-43,-12,-8,7,31
-56,32,46,3,-51,40,76,-43,-11,-8,7,31
-54,33,46,1,-51,40,76,-43,-9,-8,7,31
-54,33,46,0,-50,41,76,-43,-8,-8,7,31
-53,33,46,-0,-50,41,76,-43,-8,-8,7,31
-53,33,46,-1,-50,41,76,-43,-8,-8,7,31
-53,33,46,-1,-50,41,76,-43,-8,-8,7,31
-53,33,46,-1,-50,41,76,-43,-8,-8,7,31
-53,33,46,-1,-50,41,76,-43,-8,-8,7,31
-53,33,46,-1,-50,41,76,-43,-8,-8,7,31
-53,33,46,-1,-50,41,76,-43,-8,-8,7,31
-53,33,46,-1,-50,41,76,-42,-8,-8,7,31
-53,33,46,-1,-50,41,76,-40,-8,-8,9,33
-53,33,46,-1,-50,41,76,-38,-8,-8,10,34
-53,33,46,-1,-50,41,76,-36,-8,-8,11,35
-53,34,46,-1,-50,41,76,-34,-8,-8,12,36
-53,35,46,-2,-51,42,76,-34,-8,-8,12,36
-53,35,47,-3,-51,42,76,-33,-8,-8,13,37
-53,36,48,-4,-52,43,76,-33,-8,-8,13,37
-52,37,48,-5,-52,43,75,-33,-8,-8,13,37
-51,37,47,-6,-51,43,74,-33,-8,-8,13,37
-50,37,47,-7,-50,43,73,-33,-8,-8,13,37
-48,37,46,-8,-49,43,72,-33,-8,-8,13,37
-47,37,46,-9,-49,42,71,-33,-8,-8,13,37
-47,37,46,-9,-49,42,71,-33,-8,-8,13,37
-47,37,46,-9,-48,42,70,-33,-8,-8,13,37
-47,37,46,-9,-48,42,70,-33,-8,-8,13,37
-47,37,46,-9,-48,42,70,-34,-8,-8,12,37
-47,37,46,-9,-48,42,70,-36,-8,-9,11,37
-47,37,46,-9,-48,42,70,-38,-8,-10,10,37
-47,37,46,-9,-48,42,70,-40,-8,-11,8,37
-47,37,45,-9,-48,42,70,-42,-8,-12,7,36
-47,36,45,-8,-48,41,69,-42,-8,-12,7,35
-47,35,44,-7,-47,41,68,-43,-8,-12,7,34
-47,34,44,-6,-47,40,66,-43,-8,-12,7,32
-47,34,43,-5,-47,39,65,-43,-8,-12,7,31
-47,34,43,-5,-47,39,65,-43,-9,-12,7,31
-47,33,43,-5,-46,39,65,-43,-11,-12,7,31
-47,33,43,-5,-46,39,65,-43,-12,-12,7,31
-47,33,43,-5,-46,39,65,-43,-13,-13,6,31
-47,33,43,-5,-46,39,65,-43,-13,-14,5,31
-47,33,43,-5,-46,39,65,-43,-13,-15,4,31
-47,33,43,-5,-46,39,65,-43,-13,-16,2,31
-47,33,43,-5,-46,39,65,-43,-13,-17,1,31
-47,32,42,-4,-46,38,65,-43,-13,-17,1,31
-47,32,42,-3,-45,38,65,-43,-13,-17,1,31
-47,31,41,-2,-45,37,65,-43,-13,-17,1,31
-47,30,41,-1,-45,36,65,-44,-13,-17,1,31
-49,30,41,0,-46,37,65,-45,-13,-17,1,31
-50,30,42,1,-46,37,65,-47,-13,-17,1,31
-51,30,42,3,-47,37,65,-50,-13,-17,1,31
-52,30,43,3,-48,37,65,-51,-13,-17,1,31
-53,30,43,3,-48,38,65,-51,-13,-17,-1,31
-53,30,43,3,-48,38,65,-52,-13,-17,-2,31
-53,30,43,3,-48,38,65,-52,-13,-17,-3,31
-52,30,43,3,-48,37,65,-52,-13,-17,-4,31
-51,30,42,2,-47,37,65,-52,-13,-17,-4,31
-50,30,42,1,-46,37,65,-52,-13,-17,-5,31
-48,30,41,0,-45,36,65,-52,-13,-17,-5,31
-47,30,41,-0,-45,36,65,-52,-13,-17,-5,31
-47,30,40,-0,-45,36,65,-52,-13,-17,-5,31
-47,30,40,-1,-44,36,65,-52,-13,-17,-5,31
-47,30,40,-1,-44,36,65,-52,-13,-17,-5,31
-47,30,40,-1,-44,36,65,-52,-13,-17,-5,31
-47,30,40,-1,-44,36,65,-52,-13,-17,-5,31
-47,30,40,-1,-44,36,65,-52,-13,-17,-5,31
-47,30,40,-1,-44,36,65,-52,-13,-17,-5,31
-47,29,40,-0,-44,36,65,-52,-13,-17,-5,31
-47,28,39,0,-44,35,65,-52,-13,-18,-7,31
-47,28,39,1,-43,34,65,-52,-13,-19,-8,31
-47,27,38,3,-43,34,65,-52,-13,-21,-9,31
-47,26,38,3,-43,33,64,-52,-14,-21,-10,30
-47,26,38,3,-43,33,63,-52,-15,-21,-10,29
-47,26,38,3,-42,33,62,-52,-16,-22,-11,28
-47,26,38,3,-42,33,61,-52,-17,-22,-11,27
-47,26,38,3,-42,33,60,-52,-18,-22,-11,26
-47,26,38,3,-42,33,59,-52,-18,-22,-11,25
-47,26,38,3,-42,33,59,-52,-19,-22,-11,25
-47,26,38,3,-42,33,59,-52,-19,-22,-11,25
-47,26,38,3,-42,33,59,-52,-19,-22,-11,25
-47,26,38,3,-42,33,59,-52,-19,-22,-11,25
-47,26,38,3,-42,33,59,-52,-19,-22,-11,25
-47,26,38,3,-42,33,59,-52,-19,-22,-11,25
-47,25,37,4,-42,32,60,-52,-18,-22,-11,25
-47,25,37,5,-42,32,61,-52,-17,-22,-11,25
-47,24,36,5,-41,31,62,-52,-16,-22,-11,25
-47,23,36,7,-41,30,63,-52,-15,-22,-11,25
-47,22,35,7,-41,30,64,-52,-14,-22,-11,25
-47,22,35,8,-41,30,64,-52,-14,-22,-11,25
-47,22,35,8,-41,30,65,-52,-13,-22,-11,25
-47,22,35,8,-41,30,65,-52,-13,-22,-11,25
-47,22,35,8,-41,30,64,-52,-13,-22,-11,25
-47,22,35,8,-41,30,63,-52,-13,-22,-11,25
-47,22,35,8,-41,30,62,-52,-13,-22,-11,25
-47,22,35,8,-41,30,61,-52,-13,-22,-11,25
-47,22,35,8,-41,30,60,-52,-13,-22,-11,25
-47,22,35,8,-41,30,59,-52,-13,-22,-11,25
-47,22,35,8,-41,30,59,-52,-13,-22,-11,25
-47,22,35,8,-41,30,59,-52,-13,-22,-11,25
-47,22,35,8,-41,30,59,-52,-14,-22,-11,25
-47,22,35,8,-41,30,59,-52,-15,-22,-11,25
-47,22,35,8,-41,30,59,-52,-16,-22,-11,25
-47,22,35,8,-41,30,59,-52,-17,-22,-11,25
-47,22,35,8,-41,30,59,-52,-18,-22,-11,25
-47,22,35,8,-41,30,59,-52,-18,-22,-11,25
-47,22,35,8,-41,30,59,-52,-19,-22,-11,25
-47,22,35,8,-41,30,59,-52,-19,-22,-11,25
-47,22,35,8,-41,30,59,-52,-19,-22,-11,25
-47,22,35,8,-41,30,59,-52,-19,-22,-11,25
-47,22,35,8,-41,30,59,-52,-19,-22,-11,25
-47,22,35,8,-41,30,59,-52,-19,-22,-11,25
-47,22,35,8,-41,30,59,-53,-19,-22,-11,25
-49,21,35,10,-41,29,59,-55,-19,-22,-12,25
-50,20,35,12,-41,29,59,-57,-19,-22,-14,25
-51,19,35,14,-42,29,59,-59,-19,-22,-15,25
-52,18,35,16,-42,28,59,-60,-19,-22,-16,25
-53,17,34,17,-42,27,58,-61,-19,-23,-16,25
-53,16,34,18,-41,27,56,-61,-19,-24,-17,25
-53,15,33,19,-41,26,55,-61,-19,-25,-17,25
-53,15,33,20,-41,25,54,-61,-19,-26,-17,25
-53,14,32,20,-41,25,54,-61,-19,-26,-17,25
-53,14,32,20,-41,25,54,-61,-19,-26,-17,25
-53,14,32,20,-41,25,54,-61,-19,-26,-17,25
-53,14,32,20,-41,25,54,-61,-19,-26,-17,25
-53,14,32,20,-41,25,54,-61,-19,-25,-17,23
-53,14,32,20,-41,25,54,-61,-19,-24,-17,22
-53,14,32,20,-41,25,54,-61,-19,-23,-17,21
-52,14,32,20,-40,25,54,-61,-19,-22,-17,20
-51,14,32,19,-39,24,54,-61,-19,-22,-17,20
-50,14,31,18,-39,24,54,-61,-19,-22,-17,19
-48,14,30,17,-38,24,54,-61,-19,-22,-17,19
-47,14,30,16,-37,24,54,-60,-19,-22,-17,20
-47,14,30,16,-37,24,54,-58,-19,-22,-17,21
-47,14,30,16,-37,23,54,-57,-19,-22,-17,22
-47,14,30,16,-37,23,54,-54,-19,-22,-17,24
-47,14,30,16,-37,23,54,-53,-18,-22,-16,25
-47,14,30,16,-37,23,54,-52,-17,-22,-15,25
-47,14,30,16,-37,23,54,-52,-16,-22,-14,25
-47,14,30,16,-37,23,54,-52,-15,-22,-12,25
-47,14,30,16,-37,23,54,-52,-14,-22,-11,25
-47,14,30,16,-37,23,54,-52,-14,-22,-11,25
-47,14,30,16,-37,23,54,-52,-13,-22,-11,25
-47,14,30,16,-37,23,54,-52,-13,-22,-11,25
-47,14,29,16,-36,23,54,-52,-13,-22,-11,25
-47,13,29,17,-36,22,54,-52,-13,-22,-11,25
-47,12,28,18,-36,22,54,-52,-13,-22,-11,25
-47,11,28,19,-35,21,54,-52,-13,-22,-11,25
-47,11,27,20,-35,21,54,-52,-14,-22,-11,25
-47,11,27,20,-35,20,54,-52,-15,-22,-12,25
-47,10,27,20,-35,20,54,-52,-16,-22,-14,25
-47,10,27,20,-35,20,54,-52,-17,-22,-15,25
-47,10,27,20,-35,20,54,-52,-18,-22,-16,25
-47,10,27,20,-35,20,54,-52,-18,-22,-16,23
-47,10,27,20,-35,20,54,-52,-19,-22,-17,22
-47,10,27,20,-35,20,54,-52,-19,-22,-17,21
-47,10,27,21,-35,20,53,-52,-19,-22,-17,20
-49,10,28,21,-36,21,52,-52,-19,-22,-17,20
-50,10,28,22,-37,21,51,-52,-19,-22,-17,19
-51,10,29,23,-38,22,49,-52,-19,-22,-17,19
-52,10,29,24,-38,22,49,-52,-18,-22,-17,19
-53,10,30,24,-38,22,48,-52,-17,-22,-17,19
-53,10,30,24,-39,22,48,-52,-16,-22,-17,19
-53,10,30,24,-39,22,48,-52,-15,-22,-17,19
-52,10,29,24,-38,22,48,-52,-14,-21,-17,19
-51,10,29,23,-37,21,48,-52,-14,-20,-17,19
-50,10,28,22,-37,21,48,-52,-13,-19,-17,19
-48,10,28,21,-36,21,48,-52,-13,-18,-17,19
-47,10,27,21,-35,20,48,-52,-13,-17,-17,19
-47,9,26,22,-34,19,48,-52,-13,-17,-17,19
-47,8,26,22,-34,19,48,-52,-13,-17,-17,19
-47,8,25,23,-33,18,48,-52,-13,-17,-17,19
-47,7,25,24,-33,17,48,-52,-13,-17,-17,19
-47,7,25,24,-33,17,48,-52,-13,-17,-17,19
-47,7,24,24,-33,17,48,-52,-13,-17,-17,19
-47,7,24,24,-33,17,48,-52,-13,-17,-17,19
-46,7,24,23,-32,17,48,-52,-13,-17,-16,20
-45,8,24,22,-32,18,48,-52,-13,-17,-15,21
-44,8,24,20,-32,18,48,-52,-13,-17,-14,22
-42,9,24,18,-31,18,48,-52,-13,-17,-12,24
-41,10,24,17,-31,19,48,-52,-13,-17,-11,25
-41,10,24,16,-31,19,48,-52,-13,-17,-11,25
-40,10,24,16,-31,19,48,-52,-13,-17,-11,25
-40,10,24,16,-31,19,48,-52,-13,-17,-11,25
-40,10,24,16,-31,18,48,-52,-13,-17,-11,25
-40,9,24,17,-30,18,48,-52,-13,-17,-12,23
-40,8,23,18,-30,17,48,-52,-13,-17,-14,22
-40,8,22,19,-29,16,48,-52,-13,-17,-15,21
-41,7,22,21,-29,16,48,-52,-13,-17,-16,20
-42,6,22,23,-30,15,48,-52,-13,-17,-16,20
-44,5,22,24,-30,15,48,-52,-13,-17,-17,19
-45,4,22,26,-30,14,48,-52,-13,-17,-17,19
-46,3,22,28,-31,14,48,-52,-13,-17,-17,19
-46,3,22,28,-31,14,48,-52,-13,-17,-17,18
-47,3,22,28,-31,14,48,-52,-13,-17,-17,16
-47,3,22,28,-31,14,48,-52,-13,-17,-17,15
-46,3,22,28,-31,14,48,-52,-13,-17,-17,14
-45,4,22,26,-30,14,48,-52,-13,-17,-17,14
-44,5,22,24,-30,15,48,-52,-13,-17,-17,14
-42,6,22,22,-29,15,48,-52,-13,-17,-17,14
-41,6,22,21,-29,15,48,-52,-13,-17,-16,14
-41,6,22,21,-29,16,48,-52,-13,-16,-15,15
-40,7,22,20,-29,16,48,-52,-13,-15,-14,16
-40,7,22,20,-29,16,48,-52,-13,-13,-12,18
-40,7,22,20,-29,16,48,-52,-13,-13,-11,19
-40,7,22,20,-29,16,48,-52,-13,-13,-11,19
-40,7,22,20,-29,16,48,-52,-13,-12,-11,19
-40,7,22,20,-29,16,48,-52,-13,-12,-11,19
-40,7,22,20,-29,16,48,-52,-13,-12,-11,19
-40,7,22,20,-29,16,48,-52,-13,-12,-11,19
-40,7,22,20,-29,16,48,-52,-13,-12,-11,19
-40,7,22,20,-29,16,48,-52,-13,-12,-11,19
-40,6,21,21,-29,15,47,-52,-13,-12,-11,19
-40,4,20,23,-28,14,46,-52,-13,-12,-11,19
-40,3,19,24,-27,12,45,-52,-13,-12,-11,19
-40,1,18,26,-26,11,44,-52,-13,-12,-11,19
-40,-0,17,28,-25,10,43,-52,-13,-12,-11,19
-40,-1,17,28,-25,10,43,-52,-13,-12,-12,18
-40,-1,17,28,-25,9,42,-52,-13,-12,-14,16
-40,-1,17,28,-25,9,42,-52,-13,-12,-15,15
-40,-1,17,28,-25,9,42,-52,-13,-12,-16,14
-40,-1,17,28,-25,9,42,-52,-13,-12,-16,14
-40,-1,17,28,-25,9,42,-52,-13,-12,-17,14
-40,-1,17,28,-25,9,42,-52,-13,-12,-17,14
-40,-1,17,28,-25,9,43,-51,-13,-12,-16,14
-40,-1,17,28,-25,9,44,-49,-13,-11,-15,15
-40,-1,17,28,-25,9,45,-47,-13,-10,-14,16
-40,-1,17,28,-25,9,47,-45,-13,-9,-12,18
-40,-1,17,28,-25,9,47,-44,-13,-8,-11,19
-40,-1,17,28,-25,9,48,-43,-13,-8,-11,19
-40,-1,17,28,-25,9,48,-43,-13,-8,-11,19
-40,-1,17,28,-25,9,48,-43,-13,-8,-11,19
-40,-1,17,28,-25,9,48,-43,-13,-8,-11,19
-40,-1,17,28,-25,9,48,-43,-13,-8,-11,19
-41,-1,17,29,-25,9,48,-43,-14,-8,-11,19
-147,58,102,36,-122,84,63,-25,61,82,107,107
-147,58,102,36,-122,84,63,-25,61,82,107,107
-147,58,102,36,-122,84,63,-25,61,82,107,107
-147,58,102,36,-122,84,63,-25,61,82,107,107
-159,51,103,52,-126,82,63,-29,58,77,109,103
-150,55,101,41,-122,82,65,-29,58,75,109,103
-156,51,101,50,-124,81,61,-29,58,74,100,103
-168,40,99,70,-126,75,65,-27,58,72,100,103
-158,54,104,48,-126,84,75,-25,57,72,101,107
-158,61,109,39,-130,90,76,-13,63,72,103,106
-161,52,104,52,-127,83,76,-13,55,63,94,105
-142,37,86,55,-108,66,70,-25,34,42,70,93
-145,28,81,67,-105,59,68,-34,15,29,59,89
-92,-39,13,104,-38,-8,48,-55,-62,-62,-60,1
-86,-58,-3,121,-24,-25,47,-55,-84,-82,-77,-7
-67,-62,-14,113,-11,-33,48,-59,-96,-93,-91,-7
-17,-40,-20,55,9,-28,54,-45,-99,-88,-92,-2
-14,-46,-26,60,15,-34,54,-38,-108,-106,-100,-5
-33,-70,-34,99,15,-49,52,-45,-120,-123,-117,-17
-33,-83,-43,113,22,-59,44,-48,-132,-134,-128,-24
-21,-89,-52,111,32,-67,44,-48,-146,-142,-135,-25
-24,-96,-56,121,34,-73,49,-48,-159,-154,-147,-31
-38,-112,-61,148,33,-82,51,-38,-170,-165,-159,-38
-16,-115,-72,136,48,-89,51,-32,-181,-176,-174,-47
-3,-121,-82,135,60,-98,56,-25,-178,-173,-184,-59
-22,-144,-90,173,60,-112,59,-13,-196,-192,-203,-74
-11,-164,-108,186,76,-131,56,-8,-204,-206,-224,-93
-28,-180,-112,215,74,-140,59,-4,-215,-215,-236,-103
57,-142,-122,116,108,-130,72,29,-199,-207,-231,-86
35,-168,-130,159,108,-146,55,8,-216,-214,-240,-105
23,-176,-131,177,104,-149,55,8,-224,-225,-247,-111
14,-184,-132,192,102,-153,54,6,-236,-234,-259,-119
50,-191,-152,175,128,-168,47,-13,-251,-244,-268,-126
92,-179,-162,134,149,-169,45,-18,-265,-248,-277,-131
64,-195,-162,171,139,-175,40,-20,-267,-248,-276,-128
76,-205,-174,173,152,-186,38,-11,-277,-255,-284,-137
37,-226,-172,222,138,-194,38,-6,-278,-263,-293,-145
65,-220,-179,197,153,-196,40,8,-284,-267,-295,-151
87,-227,-193,189,170,-207,42,19,-289,-273,-305,-163
76,-240,-197,210,170,-215,47,31,-297,-281,-317,-176
81,-243,-201,210,174,-218,48,33,-298,-284,-323,-180
87,-243,-204,206,178,-220,48,33,-301,-274,-318,-184
88,-247,-207,210,181,-223,40,24,-304,-276,-321,-189
94,-243,-208,202,183,-222,42,26,-299,-271,-318,-187
106,-234,-206,183,186,-217,48,37,-289,-262,-310,-182
115,-227,-205,170,188,-214,51,44,-281,-255,-302,-178
113,-226,-204,170,186,-213,52,42,-277,-252,-299,-178
103,-228,-201,179,181,-212,55,42,-274,-249,-297,-180
97,-229,-199,185,178,-211,60,43,-271,-246,-296,-183
93,-229,-197,187,175,-210,61,34,-269,-244,-295,-185
86,-229,-194,192,170,-208,56,13,-269,-242,-292,-185
80,-226,-190,192,165,-204,50,-10,-268,-240,-288,-183
78,-219,-184,187,160,-198,47,-31,-264,-233,-280,-177
77,-209,-176,176,154,-189,43,-50,-258,-226,-269,-169
81,-200,-172,164,153,-184,31,-73,-256,-221,-263,-165
85,-196,-171,156,153,-181,13,-101,-256,-219,-259,-163
89,-191,-169,148,153,-178,-2,-127,-253,-214,-254,-161
95,-183,-166,135,153,-173,-13,-146,-246,-207,-247,-157
100,-173,-162,122,151,-166,-21,-160,-237,-199,-237,-152
101,-163,-155,110,146,-158,-27,-169,-224,-187,-225,-145
98,-151,-145,99,138,-148,-27,-167,-207,-172,-210,-135
88,-139,-133,92,126,-135,-26,-160,-188,-154,-192,-124
80,-127,-121,85,115,-124,-22,-151,-170,-137,-175,-114
76,-115,-111,74,106,-113,-18,-142,-154,-124,-161,-105
68,-107,-103,71,97,-104,-15,-138,-142,-113,-150,-97
59,-99,-94,69,88,-96,-12,-134,-130,-103,-139,-90
57,-88,-85,57,81,-86,-7,-127,-116,-91,-126,-81
53,-77,-76,49,73,-76,-0,-115,-102,-79,-113,-71
45,-64,-63,40,60,-63,9,-97,-82,-63,-94,-57
36,-50,-50,31,48,-50,20,-76,-62,-46,-75,-42
26,-41,-39,28,37,-40,26,-64,-48,-33,-60,-32
17,-35,-31,27,29,-33,29,-57,-36,-22,-48,-24
11,-28,-24,23,21,-25,31,-49,-23,-11,-35,-16
4,-19,-15,19,13,-17,34,-38,-9,0,-22,-7
-8,-10,-3,16,-0,-6,39,-26,5,14,-7,4
-21,2,10,13,-14,7,43,-14,21,29,10,16
-31,12,21,9,-26,17,46,-4,33,40,24,27
-31,21,28,-2,-31,25,46,3,41,46,33,36
-28,28,31,-11,-32,30,44,5,46,52,39,42
-31,28,33,-10,-34,31,40,2,48,55,43,46
-34,28,34,-8,-36,32,36,-2,50,58,46,49
-31,31,34,-13,-35,33,32,-5,53,62,51,53
-26,34,35,-19,-34,34,29,-8,55,65,54,55
-26,34,35,-19,-34,35,24,-16,54,65,54,55
-25,34,34,-20,-33,34,20,-25,52,63,51,54
-21,35,33,-23,-31,34,17,-32,50,62,50,53
-20,37,34,-26,-31,35,16,-34,50,62,51,53
-21,37,34,-26,-32,35,16,-34,49,62,53,54
-19,38,34,-28,-31,35,17,-36,49,62,54,55
-14,39,33,-33,-29,35,17,-38,48,61,55,56
-12,40,32,-36,-28,35,18,-39,48,61,56,57
-15,39,33,-33,-29,36,20,-39,49,63,58,58
-19,38,35,-28,-32,36,22,-38,50,64,59,59
-21,38,35,-28,-33,37,24,-38,51,64,61,59
-21,39,35,-28,-33,37,24,-39,50,65,61,60
-25,37,36,-23,-34,36,23,-41,49,65,59,59
-30,34,36,-17,-36,35,22,-44,47,65,57,59
-34,33,37,-13,-38,35,23,-46,46,66,56,59
-35,33,37,-12,-39,35,24,-46,46,67,56,61
-35,32,37,-11,-38,35,25,-45,48,67,57,61
-34,31,36,-10,-37,34,25,-45,48,68,58,63
-33,29,34,-10,-36,32,26,-45,49,69,59,64
-31,29,34,-10,-35,32,26,-44,49,70,60,64
-30,31,34,-13,-35,33,27,-42,51,70,60,64
-30,33,36,-16,-36,35,30,-39,52,70,61,64
-26,38,37,-24,-35,37,31,-36,54,71,61,64
-24,39,37,-26,-35,38,31,-33,55,71,62,64
-28,36,37,-21,-36,37,32,-30,56,72,62,63
-31,33,36,-16,-37,35,32,-27,56,72,63,62
-37,30,36,-8,-38,34,33,-24,57,72,63,61
-46,25,37,4,-41,32,33,-23,55,72,62,59
-45,24,36,5,-41,31,35,-21,55,72,61,58
-40,26,35,-2,-39,32,37,-16,55,74,62,59
-42,26,36,0,-40,32,38,-13,54,75,63,58
-46,24,36,5,-41,31,39,-12,54,75,62,57
-50,21,36,10,-42,30,38,-13,53,75,60,55
-55,18,36,18,-44,28,37,-16,53,75,57,53
-60,13,35,26,-45,26,37,-18,53,74,56,51
-59,14,34,25,-44,26,39,-17,54,75,56,52
-53,16,33,18,-41,26,41,-14,56,76,58,53
-53,14,32,21,-41,25,42,-14,56,76,58,54
-58,12,32,26,-42,24,41,-15,55,76,59,54
-59,12,33,26,-43,25,42,-13,56,78,60,55
-60,11,34,28,-44,24,42,-12,56,78,59,55
-64,9,34,33,-45,24,42,-12,56,77,59,54
-62,10,33,31,-44,24,43,-9,56,78,59,55
-58,12,33,26,-43,25,44,-6,58,79,60,55
-57,13,33,24,-42,25,44,-4,59,79,61,55
-56,13,33,24,-42,25,44,-3,59,80,62,54
-53,16,34,18,-41,27,46,0,61,82,64,55
-47,21,34,9,-40,29,48,3,63,84,67,57
-40,25,34,-1,-38,31,50,6,66,88,70,58
-37,28,35,-6,-38,32,51,9,68,91,72,59
-40,28,36,-3,-39,33,51,9,69,92,73,59
-45,26,37,2,-42,33,51,8,69,93,73,60
-47,26,38,3,-43,33,51,9,70,94,74,61
-46,27,38,2,-42,33,51,10,71,96,76,61
-49,26,39,5,-44,33,50,10,72,97,76,62
-55,23,39,12,-46,33,49,10,73,97,76,63
-57,22,39,14,-47,32,48,10,73,97,77,64
-54,24,39,10,-46,33,49,12,74,98,80,66
-50,26,39,5,-44,34,50,14,77,101,82,68
-48,27,39,3,-44,34,50,14,79,103,84,69
-50,27,40,5,-45,34,48,15,79,104,85,70
-54,26,41,8,-47,35,47,15,80,104,86,70
-56,26,42,10,-49,35,45,15,80,105,87,70
-51,29,42,3,-47,37,46,17,83,108,89,71
-47,32,42,-4,-46,38,46,20,85,111,91,74
-47,33,43,-3,-46,38,46,21,86,113,92,75
-46,32,42,-3,-45,38,44,21,86,115,93,77
-44,32,41,-5,-44,37,43,20,87,116,93,78
-43,34,42,-8,-44,38,44,20,88,118,95,79
-45,34,43,-7,-46,39,44,21,90,120,97,81
-46,35,44,-7,-47,40,43,22,92,122,99,83
-45,38,45,-11,-48,42,43,24,94,124,102,85
-43,41,46,-16,-48,44,44,26,96,127,104,86
-41,43,47,-19,-48,46,45,28,98,130,107,87
-40,45,48,-22,-48,47,45,28,98,132,109,88
-40,46,48,-23,-49,47,43,27,99,133,111,87
-43,46,50,-21,-50,48,42,26,99,134,112,88
-41,50,52,-27,-51,51,43,31,103,137,116,91
-36,55,53,-35,-51,54,46,37,107,142,121,94
-40,54,54,-33,-53,54,45,37,109,143,123,94
-45,53,55,-27,-55,54,44,36,110,144,124,95
-46,55,57,-28,-57,56,44,39,113,147,127,98
-43,58,58,-34,-57,58,44,43,116,150,130,101
-42,59,59,-36,-57,59,44,47,118,152,133,103
-45,60,60,-35,-59,60,45,52,121,153,134,104
-45,61,61,-36,-59,61,45,57,124,155,135,105
-41,63,61,-41,-58,62,46,63,128,156,138,107
-35,69,63,-52,-58,66,48,72,133,160,143,111
-29,75,64,-62,-57,69,49,79,136,164,148,117
-25,78,64,-68,-55,70,47,83,138,165,149,120
-22,80,65,-72,-55,71,46,86,140,167,151,122
-22,82,66,-75,-56,73,46,89,141,169,152,125
-23,84,68,-76,-58,75,46,92,143,171,154,128
-27,84,69,-73,-60,75,46,93,144,172,156,130
-27,84,70,-73,-60,76,46,94,145,174,157,131
-21,88,70,-81,-58,77,46,95,146,177,159,132
-17,90,69,-86,-56,78,46,95,147,178,160,133
-17,89,69,-86,-56,77,44,96,147,178,160,133
-17,90,69,-86,-57,78,44,99,147,178,161,134
-20,89,70,-84,-58,78,44,100,148,179,162,135
-24,87,70,-78,-59,77,42,99,147,178,161,134
-22,87,69,-80,-58,77,41,101,147,179,161,135
-18,88,69,-84,-57,77,41,102,147,180,161,136
-19,87,68,-83,-56,76,39,102,145,180,160,136
-14,89,67,-87,-54,76,39,103,145,180,159,136
-7,91,66,-94,-51,76,39,105,144,179,159,136
-2,90,63,-96,-47,74,40,105,142,178,158,136
2,90,61,-99,-45,73,40,107,141,177,157,135
6,91,60,-103,-43,73,40,107,140,176,155,133
7,89,58,-101,-41,71,38,105,138,174,153,130
5,86,57,-98,-41,69,36,104,135,171,151,126
4,84,56,-94,-40,68,35,105,133,169,148,124
2,82,55,-91,-40,66,35,105,131,167,146,123
0,78,54,-85,-40,64,35,104,128,164,143,120
-0,76,52,-82,-39,62,34,103,125,162,140,118
2,75,51,-83,-37,61,34,103,123,160,138,117
6,73,48,-83,-33,58,33,101,119,157,134,115
8,69,44,-80,-30,54,32,99,115,152,129,111
10,66,42,-79,-28,52,32,99,112,149,126,108
10,64,40,-76,-26,50,33,98,110,146,123,106
9,60,37,-71,-25,47,34,99,107,143,121,104
7,56,36,-65,-24,44,36,101,105,139,118,102
10,55,34,-67,-22,42,39,105,104,137,117,102
17,54,30,-70,-17,40,40,107,102,133,114,100
17,50,27,-67,-15,37,41,105,98,129,109,97
15,46,25,-60,-14,34,41,103,94,125,106,93
12,42,24,-53,-14,31,42,102,90,122,101,90
10,38,22,-48,-13,29,42,101,87,119,97,88
11,35,19,-45,-11,26,42,98,84,117,94,85
10,31,17,-41,-9,23,41,95,80,114,90,83
9,27,14,-35,-8,19,41,92,77,111,86,79
7,22,12,-28,-7,16,40,89,74,108,82,76
5,17,10,-22,-5,13,40,88,71,105,78,73
6,15,8,-20,-4,11,41,87,68,103,75,71
8,14,6,-20,-2,9,43,87,66,102,72,69
7,11,5,-17,-1,7,43,85,63,100,69,66
6,8,3,-13,-0,5,42,83,60,98,65,64
6,4,1,-8,1,2,43,81,57,95,62,61
4,1,-1,-3,2,-0,44,78,53,93,58,57
5,-0,-3,-3,4,-2,44,78,51,91,56,55
6,-1,-3,-3,4,-2,44,77,50,90,56,54
6,-1,-3,-3,4,-2,44,77,50,90,56,54
6,-1,-3,-3,4,-2,44,77,50,90,56,54
6,-1,-3,-3,4,-2,44,77,50,90,56,54
6,-1,-3,-3,4,-2,44,77,50,90,56,54
5,-8,-8,6,7,-8,45,68,43,83,47,46
3,-18,-14,17,11,-15,47,56,34,73,36,36
3,-21,-15,21,13,-17,48,51,31,69,32,33
3,-22,-16,22,13,-18,48,50,30,68,31,31
3,-22,-17,23,13,-19,48,50,30,68,31,31
3,-23,-17,23,14,-19,48,50,30,68,30,31
3,-24,-17,24,14,-20,48,50,30,68,30,31
3,-24,-18,24,14,-20,48,50,30,68,30,31
3,-24,-18,25,14,-20,48,50,30,68,30,31
3,-24,-18,25,14,-20,48,50,30,68,30,31
2,-24,-18,25,14,-20,48,50,29,68,30,30
1,-25,-18,27,14,-21,48,50,28,68,30,29
0,-26,-18,28,13,-21,48,50,27,68,30,28
-2,-27,-18,31,13,-22,48,50,26,68,30,27
-3,-28,-18,33,12,-22,48,50,25,68,30,26
-5,-29,-18,35,12,-22,48,50,25,68,29,25
-6,-30,-18,37,11,-23,48,50,24,68,27,25
-8,-31,-18,39,11,-23,48,50,24,68,26,25
-9,-31,-18,40,11,-23,48,50,24,68,25,25
-9,-32,-18,41,10,-23,48,50,24,68,25,25
-9,-32,-18,41,10,-23,48,50,24,68,25,25
-9,-32,-18,41,10,-23,48,50,24,68,25,25
-9,-32,-18,41,10,-23,48,50,24,68,25,25
-9,-32,-18,41,10,-23,48,50,24,68,25,25
-9,-32,-18,41,10,-23,48,50,24,68,25,25
-9,-32,-18,41,10,-23,48,50,24,68,25,25
-9,-32,-18,41,11,-24,48,50,24,68,25,25
-7,-32,-19,40,12,-24,48,50,24,68,25,25
-6,-32,-19,39,12,-24,48,50,24,68,25,25
-5,-32,-20,38,13,-25,48,50,24,68,25,25
-4,-32,-20,37,14,-25,48,50,24,68,25,25
-3,-32,-20,37,14,-25,48,50,24,68,25,25
-3,-32,-21,37,14,-25,48,50,24,68,25,25
-3,-32,-21,37,14,-25,48,50,24,68,25,25
-3,-31,-20,36,14,-25,48,50,25,68,25,25
-3,-31,-20,36,14,-24,48,50,26,68,26,25
-3,-30,-19,35,13,-23,48,50,27,68,27,25
-3,-29,-19,34,13,-23,48,50,28,68,29,25
-3,-28,-18,33,13,-22,48,50,29,68,30,25
-3,-28,-18,33,12,-22,48,50,29,69,30,25
-3,-28,-18,33,12,-22,48,50,30,70,30,25
-3,-28,-18,33,12,-22,48,50,30,71,30,25
-3,-28,-18,33,12,-22,48,50,30,72,30,25
-3,-28,-18,33,12,-22,48,50,30,72,30,25
-3,-28,-18,33,12,-22,48,50,30,72,30,25
-3,-28,-18,33,12,-22,48,50,30,72,30,25
-3,-28,-18,33,12,-22,47,50,30,72,30,25
-3,-28,-18,33,12,-22,46,50,30,72,30,25
-3,-28,-18,33,12,-22,45,50,30,72,30,25
-3,-28,-18,33,12,-22,44,50,30,72,30,25
-2,-28,-18,32,13,-22,43,50,30,72,30,25
0,-28,-19,31,14,-23,43,50,30,72,30,25
3,-28,-21,28,16,-23,42,50,30,72,30,25
6,-28,-22,27,18,-24,42,50,30,72,30,25
8,-28,-23,25,19,-25,42,50,30,72,30,25
9,-28,-23,25,20,-25,42,50,30,72,30,25
9,-28,-23,25,20,-25,42,50,30,72,30,25
9,-28,-23,25,20,-25,42,50,30,72,30,25
8,-28,-23,25,20,-25,42,50,30,72,30,25
7,-28,-22,26,19,-24,42,50,30,72,30,25
6,-28,-22,27,18,-24,42,50,30,72,30,25
4,-28,-21,28,17,-24,42,50,30,72,30,25
3,-28,-21,28,16,-24,43,51,30,72,30,25
3,-28,-21,28,16,-23,44,52,30,72,30,25
3,-28,-20,29,16,-23,45,54,30,72,30,25
3,-28,-20,29,16,-23,47,57,30,72,30,25
3,-28,-20,29,16,-23,47,58,30,72,30,25
3,-28,-20,29,16,-23,48,58,30,72,30,25
3,-28,-20,29,16,-23,48,59,30,72,30,25
3,-28,-20,29,16,-23,48,59,30,72,30,25
3,-28,-21,29,16,-24,48,58,30,72,30,25
3,-29,-21,30,17,-24,48,56,30,71,30,25
3,-30,-22,31,17,-25,48,54,30,70,30,25
3,-31,-22,32,17,-26,48,52,30,69,30,25
3,-32,-23,33,18,-27,47,51,30,68,30,25
3,-33,-24,34,18,-27,46,50,30,68,29,23
3,-34,-24,35,19,-28,45,50,30,68,27,22
3,-35,-25,36,19,-29,44,50,30,68,26,21
2,-35,-25,37,19,-29,43,49,29,67,25,20
-0,-35,-24,39,18,-29,43,47,28,66,25,20
-3,-36,-23,41,16,-28,42,45,27,65,25,19
-6,-36,-22,43,14,-27,42,43,26,64,25,19
-7,-36,-21,44,14,-27,42,41,25,63,25,19
-6,-36,-22,43,15,-27,42,41,25,63,25,19
-3,-36,-23,41,16,-28,42,40,24,63,25,19
0,-36,-25,39,18,-29,42,40,24,63,25,19
2,-36,-25,38,20,-30,42,40,24,63,24,19
3,-36,-26,37,20,-30,42,40,24,63,23,18
3,-36,-26,37,20,-30,42,40,24,63,22,16
3,-36,-26,37,20,-30,42,40,24,63,20,15
2,-36,-26,39,19,-30,42,40,24,63,19,14
-2,-38,-25,43,18,-30,42,40,24,63,19,14
-7,-39,-24,48,16,-30,42,40,24,63,19,14
-11,-41,-24,53,14,-31,42,40,24,63,19,14
-13,-43,-24,56,14,-31,42,40,24,63,19,14
-12,-43,-25,55,15,-32,42,40,24,63,19,14
-9,-43,-26,54,16,-33,42,40,24,63,19,14
-6,-43,-27,52,18,-34,42,40,24,63,19,14
-3,-43,-28,49,20,-34,43,40,24,63,19,14
0,-42,-29,46,22,-34,44,40,24,63,19,14
3,-41,-30,44,23,-34,45,40,24,63,19,14
6,-40,-30,40,24,-34,47,40,24,63,19,14
8,-40,-31,38,25,-34,47,40,24,63,19,14
9,-40,-31,38,26,-34,48,40,24,63,19,14
9,-39,-31,37,26,-34,48,40,24,63,19,14
9,-39,-31,37,26,-34,48,40,24,63,19,14
8,-40,-31,38,25,-34,48,40,24,63,19,14
6,-41,-30,41,24,-34,48,40,24,63,19,14
3,-41,-30,44,23,-34,48,40,24,63,19,14
0,-42,-29,47,22,-34,48,40,24,63,19,14
-2,-43,-29,49,21,-34,47,39,24,63,19,14
-3,-43,-28,49,20,-34,46,38,24,62,19,14
-3,-43,-28,49,20,-34,45,36,24,61,19,14
-3,-43,-28,49,20,-34,44,33,24,59,19,14
-3,-44,-29,50,20,-35,43,32,24,59,18,13
-3,-44,-29,51,21,-35,43,32,23,58,17,12
-3,-45,-30,52,21,-36,42,31,22,58,16,11
-3,-46,-30,53,22,-37,42,31,20,58,14,9
-4,-47,-31,54,22,-37,42,31,19,58,13,8
-5,-47,-30,55,21,-37,42,31,19,58,13,8
-6,-47,-30,56,20,-37,42,31,19,58,13,8
-8,-47,-29,57,19,-36,42,31,19,58,13,8
-9,-47,-28,57,18,-36,42,31,19,58,13,8
-9,-46,-28,57,18,-35,42,31,19,58,13,8
-9,-45,-27,56,17,-34,42,31,19,58,13,8
-9,-44,-26,55,17,-34,42,31,19,58,13,8
-9,-44,-26,54,16,-33,42,31,19,58,13,8
-9,-43,-26,54,16,-33,42,31,19,58,13,8
-9,-43,-26,54,16,-33,42,31,19,58,13,8
-9,-43,-26,54,16,-33,42,31,19,58,13,8
-9,-43,-26,54,16,-33,42,31,19,58,13,8
-9,-43,-26,54,16,-33,42,31,19,57,13,8
-9,-43,-26,54,16,-33,42,31,19,56,13,8
-9,-43,-26,54,16,-33,42,31,19,55,13,8
-8,-43,-26,53,17,-33,42,31,19,54,13,8
-4,-43,-28,50,20,-34,42,31,19,54,13,8
0,-43,-30,47,22,-35,42,31,19,54,13,8
5,-43,-32,44,25,-36,42,31,19,54,13,8
7,-43,-33,42,27,-37,42,31,19,54,13,8
8,-43,-33,42,27,-37,42,31,19,54,13,8
9,-43,-34,41,28,-37,42,31,19,54,13,8
9,-43,-34,41,28,-38,42,31,19,54,13,8
7,-43,-33,42,27,-37,42,30,19,54,13,8
4,-43,-31,45,24,-36,41,28,19,54,13,8
-0,-43,-30,48,22,-35,40,26,19,54,13,8
-5,-43,-28,51,19,-34,38,24,19,54,13,8
-8,-43,-26,53,17,-33,37,23,19,54,13,8
-9,-43,-26,53,17,-33,37,22,19,54,13,8
-9,-43,-26,54,16,-33,37,22,19,54,13,8
-9,-43,-26,54,16,-33,37,22,19,54,13,8
-9,-43,-26,54,16,-33,37,22,19,53,13,8
-9,-43,-26,54,16,-33,37,22,19,52,13,8
-9,-43,-26,54,16,-33,37,22,19,51,13,8
-9,-43,-26,54,16,-33,37,22,19,50,13,8
-9,-43,-26,54,16,-33,37,22,19,49,13,8
-9,-43,-26,54,16,-33,37,22,19,49,13,8
-9,-43,-26,54,16,-33,37,22,19,49,13,8
-9,-43,-26,54,16,-33,37,22,19,49,13,8
-8,-43,-26,53,17,-33,37,22,19,49,12,7
-6,-43,-27,52,18,-34,37,22,19,49,11,6
-3,-43,-28,49,20,-34,37,22,19,49,10,5
0,-43,-30,47,22,-35,37,22,19,49,8,3
1,-43,-30,47,23,-35,37,22,19,49,7,3
-1,-43,-30,48,22,-35,37,22,19,49,7,2
-3,-43,-28,50,20,-34,37,22,19,49,7,2
-6,-43,-27,52,18,-34,37,22,19,49,7,2
-8,-43,-26,53,17,-33,37,22,19,49,7,3
-9,-43,-26,54,16,-33,37,22,19,49,9,4
-9,-43,-26,54,16,-33,37,22,19,49,10,5
-9,-43,-26,54,16,-33,37,22,19,49,11,6
-9,-43,-26,53,16,-33,37,22,19,49,12,7
-7,-42,-26,51,17,-32,37,22,19,49,12,8
-6,-41,-26,49,17,-32,37,22,19,49,13,8
-5,-40,-26,47,18,-32,37,22,19,49,13,8
-4,-40,-26,46,18,-31,36,22,19,48,12,7
-3,-40,-26,46,18,-31,35,22,19,47,11,6
-3,-39,-26,45,18,-31,34,22,19,46,10,5
-3,-39,-26,45,18,-31,33,22,19,45,8,3
-4,-39,-26,46,18,-31,32,22,19,45,7,3
-5,-39,-25,47,17,-31,32,22,19,44,7,2
-6,-39,-25,47,16,-30,31,22,19,44,7,2
-8,-39,-24,49,15,-30,31,22,19,44,7,2
-9,-39,-23,49,15,-30,31,21,19,44,7,2
-9,-39,-23,49,14,-30,31,19,19,44,7,2
-9,-39,-23,49,14,-30,31,17,19,44,7,2
-9,-39,-23,49,14,-30,31,15,19,44,7,2
-9,-39,-23,49,14,-30,31,13,19,44,7,2
-9,-39,-23,49,14,-30,31,13,19,44,7,2
-9,-39,-23,49,14,-30,31,13,19,44,7,2
-9,-39,-23,49,14,-30,31,13,19,44,7,2
-9,-39,-23,49,15,-30,31,13,19,44,7,2
-7,-39,-24,48,15,-30,31,13,19,44,7,2
-6,-39,-25,47,16,-30,31,13,19,44,7,2
-5,-39,-25,47,17,-31,31,13,19,44,7,2
-4,-39,-26,46,18,-31,31,13,19,44,7,2
-3,-39,-26,46,18,-31,30,13,19,43,7,2
-3,-39,-26,45,18,-31,28,13,19,42,7,2
-3,-39,-26,45,18,-31,27,13,19,41,7,2
-4,-39,-26,46,18,-31,26,13,18,40,6,2
-5,-39,-25,47,17,-31,26,13,17,40,5,1
-6,-39,-25,47,16,-30,26,13,16,39,4,-1
-8,-39,-24,49,15,-30,26,13,15,39,2,-2
-9,-39,-23,49,15,-30,26,13,14,39,1,-3
-9,-39,-23,49,14,-30,26,13,14,39,1,-3
-9,-39,-23,49,14,-30,26,13,14,39,1,-3
-9,-39,-23,49,14,-30,26,13,14,39,1,-3
-9,-39,-23,49,14,-29,26,13,14,39,1,-3
-9,-38,-22,48,14,-29,26,13,14,39,3,-3
-9,-38,-22,47,13,-28,26,13,14,39,4,-3
-9,-37,-21,47,13,-27,26,13,14,39,5,-3
-9,-36,-21,46,13,-27,26,13,14,39,6,-3
-9,-36,-21,46,12,-27,26,13,14,39,7,-3
-9,-36,-21,45,12,-27,26,13,14,39,7,-3
-9,-36,-21,45,12,-27,26,13,14,39,7,-3
-9,-36,-21,45,12,-27,25,13,14,39,7,-3
-9,-36,-21,45,12,-27,24,13,14,38,7,-3
-9,-36,-21,45,12,-27,23,13,14,37,7,-3
-9,-36,-21,45,12,-27,21,13,14,36,7,-3
-8,-35,-21,44,13,-27,21,12,14,35,6,-4
-6,-34,-21,42,14,-27,20,10,14,35,5,-5
-3,-34,-22,39,15,-27,20,8,14,35,4,-6
0,-33,-23,36,17,-27,20,6,14,35,2,-8
2,-32,-23,34,18,-27,20,4,14,35,1,-9
3,-32,-23,33,18,-27,20,4,14,35,1,-9
3,-32,-23,33,18,-27,20,3,14,35,1,-9
3,-32,-23,33,18,-27,20,3,14,35,1,-9
2,-32,-23,34,18,-27,20,3,14,34,1,-9
-0,-33,-23,36,17,-27,20,3,14,33,-1,-9
-3,-34,-22,39,15,-27,20,3,14,32,-2,-9
-6,-35,-21,42,14,-27,20,3,14,31,-3,-9
-8,-35,-21,44,13,-27,20,3,14,30,-4,-9
-9,-35,-21,45,12,-27,18,3,14,30,-4,-9
-9,-36,-21,45,12,-27,17,3,14,30,-5,-9
-9,-36,-21,45,12,-27,16,3,14,30,-5,-9
-9,-35,-21,44,13,-26,15,3,14,30,-5,-9
-7,-34,-21,43,13,-26,15,3,14,30,-5,-9
-6,-34,-21,41,13,-26,15,3,14,30,-5,-9
-5,-33,-21,39,14,-25,15,3,14,30,-5,-9
-4,-31,-20,37,14,-24,15,4,14,30,-4,-9
-3,-30,-19,35,13,-23,16,6,15,30,-1,-8
-3,-28,-18,33,12,-22,17,8,16,30,1,-6
-3,-26,-17,31,11,-20,19,10,18,30,4,-5
-3,-24,-15,29,11,-19,20,13,19,30,6,-3
-3,-23,-15,28,10,-18,21,15,20,31,7,-2
-3,-22,-14,26,9,-17,23,17,22,32,7,-1
-3,-21,-13,26,9,-16,24,19,23,33,7,1
-2,-20,-13,23,9,-16,26,22,24,35,7,2
0,-18,-13,20,9,-15,27,24,26,36,9,3
3,-16,-13,16,10,-14,28,26,27,37,10,5
6,-14,-12,12,11,-13,30,29,28,38,11,6
8,-13,-12,9,12,-13,31,31,30,39,13,8
10,-12,-12,6,13,-12,31,33,31,39,14,9
12,-11,-12,4,13,-12,31,36,32,39,16,11
14,-10,-12,2,14,-11,31,38,34,39,17,12
15,-9,-12,0,14,-11,31,39,35,39,18,13
15,-9,-12,0,14,-11,30,40,35,39,18,13
15,-9,-12,-0,14,-11,28,40,35,39,19,14
15,-9,-12,-0,14,-11,27,40,35,39,19,14
15,-9,-12,0,14,-11,25,40,35,39,19,14
13,-9,-12,1,13,-10,23,40,35,39,19,14
12,-9,-11,2,12,-10,20,40,35,39,19,14
11,-9,-10,3,11,-10,17,40,35,39,19,14
10,-9,-10,3,11,-9,15,40,35,39,19,14
9,-9,-10,3,10,-9,13,40,35,39,19,14
9,-9,-10,4,10,-9,12,40,35,39,19,14
9,-9,-10,4,10,-9,11,40,35,39,19,14
9,-9,-10,4,10,-9,11,40,35,39,19,14
9,-9,-10,4,10,-9,10,40,35,39,19,14
9,-9,-10,4,10,-9,10,40,35,39,19,14
9,-9,-10,4,10,-9,10,40,35,39,19,14
9,-9,-10,4,10,-9,10,40,35,39,19,14
9,-9,-10,4,10,-9,10,40,35,39,19,14
-22,100,78,-94,-65,87,2,31,104,129,155,107
-22,100,78,-94,-65,87,2,31,104,129,155,107
-22,100,78,-94,-65,87,2,31,104,129,155,107
-22,100,78,-94,-65,87,2,31,104,129,155,107
-66,74,79,-36,-79,77,-9,-1,90,120,138,103
-69,62,72,-21,-75,68,-8,-11,85,108,127,92
-75,58,72,-13,-77,67,-6,-11,85,107,124,92
-94,63,83,-6,-91,75,9,-8,85,105,135,97
-114,50,83,23,-97,69,2,-15,78,101,119,96
-114,50,83,23,-97,69,3,-13,74,96,115,94
-105,48,77,18,-90,65,3,-13,66,87,106,93
-98,45,73,17,-85,62,3,-15,55,75,94,87
-101,35,68,30,-82,54,1,-25,42,62,82,83
-67,4,31,41,-44,20,-13,-36,3,13,17,41
7,-39,-30,37,24,-33,-15,-36,-51,-54,-54,-12
7,-46,-35,46,28,-40,-19,-41,-74,-69,-73,-18
14,-47,-38,43,33,-42,-19,-36,-82,-79,-80,-14
17,-54,-44,48,38,-48,-19,-29,-86,-87,-88,-17
29,-59,-53,45,48,-55,-20,-36,-99,-100,-94,-23
29,-68,-59,54,53,-62,-18,-38,-111,-110,-104,-30
29,-66,-58,52,52,-61,-18,-29,-119,-119,-111,-25
26,-73,-62,62,54,-66,-12,-29,-132,-130,-123,-31
50,-81,-77,55,72,-78,-11,-20,-143,-141,-135,-38
53,-92,-85,65,80,-88,-11,-13,-154,-153,-150,-53
46,-110,-95,89,85,-101,-11,-6,-162,-159,-160,-64
9,-141,-101,148,77,-117,-8,6,-169,-168,-185,-74
32,-141,-111,132,92,-123,-5,29,-177,-178,-188,-87
40,-157,-125,144,105,-138,3,33,-188,-187,-206,-103
51,-161,-132,141,114,-144,-1,29,-193,-198,-213,-109
67,-164,-141,134,125,-150,5,26,-200,-205,-211,-116
54,-176,-144,156,124,-157,-6,17,-213,-215,-242,-134
45,-188,-148,175,124,-164,-8,15,-220,-220,-247,-137
56,-194,-158,175,134,-173,-15,6,-235,-229,-256,-144
67,-198,-165,171,143,-178,-16,10,-249,-239,-265,-148
70,-195,-164,166,143,-177,-11,17,-257,-239,-264,-151
82,-205,-176,168,156,-188,-12,17,-266,-246,-273,-160
81,-211,-179,176,158,-192,-18,13,-267,-253,-281,-174
90,-213,-185,171,165,-196,-16,26,-267,-253,-283,-168
93,-223,-193,181,172,-206,-13,29,-273,-259,-293,-180
76,-244,-200,215,172,-218,-9,40,-281,-272,-305,-199
99,-239,-207,194,184,-220,-8,43,-282,-274,-311,-203
99,-243,-209,198,186,-223,-13,43,-285,-274,-313,-207
101,-246,-212,201,189,-226,-14,33,-295,-282,-315,-213
109,-242,-213,191,191,-225,-9,36,-293,-279,-312,-214
122,-232,-211,171,195,-220,-3,46,-283,-271,-304,-211
132,-224,-210,155,197,-216,1,53,-275,-264,-297,-210
131,-223,-209,155,196,-215,2,52,-272,-262,-294,-212
120,-228,-208,167,191,-216,3,54,-270,-263,-296,-215
112,-231,-207,177,188,-217,7,57,-269,-263,-299,-218
107,-234,-206,182,186,-218,7,51,-268,-264,-302,-220
99,-236,-205,190,182,-217,0,30,-269,-265,-303,-221
95,-234,-202,192,179,-215,-8,3,-270,-264,-302,-221
93,-229,-197,187,175,-210,-14,-22,-267,-259,-298,-218
94,-219,-191,176,171,-202,-21,-45,-262,-253,-290,-212
99,-211,-188,164,170,-197,-35,-72,-262,-249,-286,-210
103,-207,-186,156,170,-195,-54,-103,-265,-248,-286,-209
107,-202,-185,148,170,-192,-71,-132,-266,-245,-284,-207
114,-194,-182,135,170,-187,-84,-152,-263,-239,-279,-203
118,-184,-177,122,168,-180,-94,-171,-257,-233,-272,-197
118,-173,-170,110,162,-171,-101,-186,-245,-224,-260,-189
113,-160,-159,99,153,-159,-103,-191,-228,-212,-245,-178
102,-147,-145,92,139,-146,-102,-190,-209,-197,-227,-166
93,-136,-133,85,128,-134,-101,-187,-192,-184,-211,-156
89,-126,-124,77,120,-125,-98,-181,-180,-173,-200,-150
81,-120,-117,77,112,-119,-96,-179,-171,-165,-192,-147
71,-116,-110,78,104,-112,-94,-178,-164,-157,-183,-143
69,-106,-103,70,97,-104,-90,-173,-153,-147,-173,-137
64,-96,-93,62,89,-94,-84,-164,-139,-135,-160,-128
54,-83,-80,54,76,-81,-74,-148,-120,-119,-141,-114
44,-69,-66,46,63,-67,-63,-129,-100,-102,-122,-100
32,-60,-55,44,51,-57,-57,-119,-86,-89,-107,-90
21,-53,-46,44,41,-49,-53,-112,-74,-79,-95,-82
14,-45,-37,40,32,-40,-50,-104,-61,-68,-83,-74
6,-36,-27,36,22,-30,-45,-94,-47,-56,-69,-65
-7,-25,-14,33,8,-19,-38,-82,-32,-43,-54,-54
-21,-14,-1,30,-6,-6,-30,-67,-15,-28,-37,-42
-31,-4,11,25,-18,5,-24,-55,-2,-17,-23,-33
-31,6,17,15,-23,13,-20,-46,7,-10,-14,-26
-29,13,21,5,-24,18,-17,-40,13,-5,-8,-20
-33,15,24,6,-28,21,-17,-37,17,-1,-4,-17
-37,17,27,7,-32,23,-17,-35,21,2,-1,-14
-35,22,30,0,-33,27,-16,-30,25,6,4,-10
-32,26,31,-6,-33,29,-16,-28,28,8,7,-8
-32,26,32,-6,-34,29,-19,-30,29,9,8,-7
-31,26,31,-7,-33,29,-21,-35,28,9,7,-7
-27,27,30,-11,-31,29,-23,-37,27,9,7,-6
-27,29,32,-13,-32,31,-23,-35,28,10,9,-5
-31,30,34,-13,-35,32,-23,-32,29,11,11,-3
-32,32,35,-13,-36,34,-22,-32,30,12,13,-2
-30,34,36,-17,-36,35,-21,-31,31,13,14,-1
-29,36,37,-19,-37,36,-21,-31,32,14,14,-0
-33,35,38,-16,-39,37,-21,-30,34,15,16,1
-38,34,40,-12,-41,38,-19,-29,36,16,18,2
-40,34,41,-11,-42,38,-19,-29,39,17,19,2
-38,35,41,-13,-42,38,-20,-29,39,18,20,2
-38,35,40,-12,-42,38,-23,-30,39,18,19,2
-39,34,40,-11,-41,37,-25,-31,39,18,19,1
-39,35,40,-11,-42,38,-26,-30,40,19,19,2
-38,36,41,-13,-42,39,-26,-28,41,20,20,3
-39,36,41,-13,-42,39,-25,-27,42,20,21,4
-41,34,41,-10,-43,38,-25,-26,43,21,22,5
-43,33,41,-7,-44,38,-24,-26,43,22,24,6
-42,33,41,-8,-43,38,-24,-26,43,22,25,7
-39,36,41,-13,-43,39,-23,-26,44,23,26,8
-36,39,42,-18,-42,41,-20,-25,44,23,28,9
-29,44,43,-29,-41,43,-19,-25,45,24,30,11
-25,47,43,-35,-40,45,-19,-24,45,24,31,12
-26,47,44,-33,-41,45,-20,-23,45,25,32,12
-28,47,44,-32,-41,45,-20,-22,46,25,33,13
-32,46,46,-29,-44,46,-21,-22,46,25,33,14
-39,43,47,-21,-47,45,-22,-23,45,25,33,13
-36,45,46,-25,-45,46,-22,-23,45,25,33,13
-27,49,46,-35,-42,47,-21,-21,46,27,35,15
-27,51,46,-37,-43,48,-21,-20,48,28,38,16
-28,51,47,-37,-43,49,-23,-20,48,28,39,16
-30,50,47,-35,-44,49,-26,-22,48,28,38,16
-34,48,48,-30,-46,48,-30,-25,48,27,37,16
-37,46,48,-25,-47,47,-32,-27,47,27,36,15
-33,49,48,-31,-46,48,-32,-26,49,28,38,16
-25,54,47,-42,-43,50,-31,-23,51,29,40,18
-22,54,47,-44,-41,50,-31,-24,50,29,41,19
-23,55,48,-44,-43,51,-31,-24,50,29,41,20
-22,58,49,-47,-43,53,-31,-23,51,30,42,20
-24,58,50,-47,-44,53,-32,-24,51,30,42,20
-26,57,51,-44,-46,54,-34,-25,50,30,41,20
-25,59,51,-47,-46,54,-34,-25,51,30,41,20
-22,61,52,-52,-45,56,-34,-25,52,31,42,20
-25,61,52,-49,-46,56,-35,-25,52,31,42,20
-28,59,53,-45,-48,56,-36,-26,51,30,41,20
-29,60,54,-46,-49,57,-36,-25,51,31,42,20
-26,64,55,-52,-49,59,-35,-24,53,33,44,22
-21,68,56,-60,-48,61,-34,-21,55,35,47,24
-18,71,56,-65,-47,62,-33,-19,57,36,49,25
-21,70,57,-62,-49,63,-33,-19,58,37,49,25
-26,69,59,-57,-51,63,-33,-19,58,37,50,25
-26,69,59,-57,-52,63,-34,-19,59,38,51,26
-24,71,59,-61,-51,64,-35,-18,61,39,52,27
-26,71,60,-60,-52,64,-38,-17,62,40,52,28
-30,70,61,-55,-54,65,-40,-18,62,40,53,28
-32,70,62,-55,-56,65,-41,-20,61,39,54,31
-29,74,63,-61,-56,67,-40,-20,61,39,56,34
-25,78,64,-68,-55,70,-39,-20,62,41,59,38
-23,80,65,-72,-56,72,-39,-21,63,42,61,40
-26,80,66,-70,-57,72,-41,-22,63,42,62,41
-29,80,67,-67,-59,72,-42,-22,63,43,63,41
-31,80,68,-65,-60,73,-44,-22,64,44,63,41
-26,83,68,-73,-59,74,-44,-19,66,46,66,42
-20,86,68,-80,-57,76,-44,-16,69,48,68,42
-19,86,68,-81,-56,75,-46,-15,70,50,69,41
-17,86,66,-82,-54,74,-49,-16,70,50,69,40
-14,86,65,-84,-53,74,-51,-17,71,50,69,39
-16,88,67,-85,-54,75,-51,-16,72,52,72,39
-20,88,69,-82,-58,77,-51,-15,74,54,74,41
-24,89,72,-80,-60,79,-52,-14,76,56,75,43
-25,92,74,-83,-63,81,-52,-12,78,58,78,46
-24,95,75,-87,-63,83,-51,-7,82,60,81,49
-22,97,76,-91,-64,85,-50,-4,84,62,84,53
-21,99,77,-93,-63,86,-50,-2,86,62,86,56
-21,100,77,-95,-64,87,-51,-1,87,62,87,57
-21,101,78,-96,-64,88,-53,-1,89,63,88,59
-16,106,79,-104,-64,90,-51,3,92,66,92,62
-8,112,81,-116,-62,93,-49,9,96,71,97,65
-10,112,81,-115,-63,94,-49,8,98,73,99,65
-16,112,84,-111,-67,95,-50,6,99,74,100,64
-18,114,86,-112,-70,98,-51,6,102,76,103,66
-17,118,89,-117,-71,101,-51,8,105,79,106,68
-17,121,90,-120,-72,103,-51,10,107,81,109,69
-21,122,93,-118,-75,105,-51,10,109,82,110,70
-23,123,94,-118,-77,106,-52,10,110,84,112,70
-21,125,95,-122,-77,107,-53,12,113,86,114,72
-17,131,97,-131,-77,111,-52,18,117,89,119,76
-12,136,99,-140,-77,114,-50,24,120,93,124,81
-9,138,99,-144,-76,115,-50,28,122,95,126,82
-8,139,99,-145,-76,115,-50,31,123,96,127,83
-8,141,100,-148,-77,117,-50,34,125,98,129,85
-9,143,103,-150,-79,119,-50,37,128,100,132,88
-12,144,104,-148,-80,120,-51,38,130,102,135,89
-10,145,104,-151,-80,121,-53,38,133,103,138,90
-2,149,104,-161,-78,123,-53,39,135,106,141,92
3,152,104,-168,-76,124,-54,40,137,107,142,92
5,153,103,-170,-75,124,-56,41,139,107,142,93
6,154,104,-171,-75,124,-56,44,141,108,143,93
3,154,105,-170,-77,125,-57,44,142,107,144,94
-3,152,106,-163,-79,125,-60,43,142,106,143,93
-4,153,107,-163,-80,125,-62,45,141,106,143,94
-3,154,107,-166,-80,126,-64,46,141,106,143,96
-5,153,107,-163,-81,126,-66,46,140,105,142,96
-1,154,107,-167,-79,126,-67,48,139,104,142,96
5,156,105,-174,-76,126,-66,49,138,104,141,96
10,155,103,-176,-73,124,-66,50,136,103,140,95
14,156,101,-179,-70,124,-65,51,135,101,139,95
18,156,100,-182,-68,123,-64,51,135,100,137,96
19,154,98,-181,-67,121,-65,50,133,98,135,95
18,152,97,-177,-66,119,-66,48,130,96,133,95
17,150,96,-175,-66,118,-65,49,127,93,131,94
17,148,95,-173,-65,117,-65,50,126,91,130,94
16,146,94,-169,-64,115,-66,48,123,88,129,91
17,144,92,-168,-63,114,-66,48,120,86,127,89
19,144,91,-170,-61,113,-66,47,118,84,126,88
22,142,88,-169,-58,110,-69,46,114,81,122,86
23,138,85,-166,-56,107,-71,44,110,77,117,82
24,136,83,-163,-54,105,-73,43,107,74,114,79
22,133,82,-159,-54,103,-73,42,104,71,111,77
20,128,80,-153,-53,100,-73,41,100,67,107,74
16,123,78,-145,-53,97,-73,40,97,64,103,71
18,121,76,-144,-50,95,-71,42,95,61,101,69
24,120,73,-147,-46,92,-71,42,92,58,97,66
26,117,70,-145,-43,89,-72,38,87,54,91,62
24,113,68,-140,-42,86,-73,34,83,50,88,59
22,110,66,-135,-42,84,-73,31,79,47,84,55
23,107,64,-132,-40,82,-74,28,76,44,79,53
25,105,62,-131,-38,80,-73,27,73,42,76,51
26,102,59,-129,-36,77,-73,26,70,39,72,48
26,99,57,-125,-34,74,-72,25,66,35,69,45
26,95,55,-121,-32,71,-72,24,63,32,65,42
26,93,53,-118,-31,69,-72,25,60,28,61,40
27,92,52,-119,-30,68,-70,27,57,25,58,39
31,93,51,-122,-28,68,-68,29,55,23,55,39
32,91,49,-121,-26,66,-69,29,52,20,51,37
33,89,47,-119,-25,64,-69,27,49,18,48,34
34,85,44,-115,-22,61,-68,25,46,15,44,31
34,82,42,-111,-20,58,-68,23,42,13,41,28
36,80,40,-111,-18,56,-68,22,40,11,39,26
37,80,39,-111,-18,56,-68,22,39,10,38,25
37,80,39,-111,-17,56,-68,22,39,10,38,25
37,80,39,-111,-17,56,-68,22,39,10,38,25
37,80,39,-111,-17,56,-68,22,39,10,38,25
37,80,39,-111,-17,56,-68,22,39,10,38,25
32,70,35,-98,-16,49,-68,13,32,0,30,17
25,57,29,-79,-14,40,-69,0,21,-13,18,7
23,53,27,-73,-13,38,-69,-4,18,-17,14,4
22,52,26,-71,-13,37,-69,-5,17,-19,13,3
21,51,26,-70,-12,36,-69,-7,16,-20,13,1
21,50,25,-69,-12,35,-69,-11,15,-21,13,-1
21,49,25,-67,-12,35,-69,-13,14,-21,13,-3
20,48,25,-65,-12,34,-69,-14,14,-21,13,-3
18,47,25,-63,-12,34,-69,-15,14,-22,13,-3
17,46,25,-61,-13,33,-69,-15,14,-22,13,-3
16,45,25,-60,-13,33,-69,-15,13,-22,12,-3
16,45,25,-60,-13,33,-69,-15,12,-22,11,-3
15,45,25,-59,-13,33,-69,-15,11,-22,10,-3
15,45,25,-59,-13,33,-69,-15,9,-22,8,-3
15,45,25,-59,-13,33,-69,-15,9,-22,7,-3
15,45,25,-59,-13,33,-69,-15,8,-22,7,-3
15,45,25,-59,-13,33,-69,-15,8,-22,7,-3
15,45,25,-59,-13,33,-69,-15,8,-22,7,-3
15,45,25,-59,-13,33,-69,-15,8,-22,7,-3
15,45,25,-59,-13,33,-69,-15,8,-22,7,-3
15,45,25,-59,-13,33,-69,-15,8,-22,7,-3
15,45,25,-59,-13,33,-69,-15,8,-22,7,-3
15,45,25,-59,-13,33,-69,-15,8,-22,7,-3
15,45,25,-59,-13,33,-69,-15,8,-22,7,-3
15,45,25,-59,-13,33,-69,-15,8,-22,7,-3
15,45,25,-59,-13,33,-69,-15,8,-22,7,-3
15,45,25,-59,-13,33,-69,-16,8,-22,7,-3
15,45,25,-59,-13,33,-69,-18,8,-22,7,-3
15,45,25,-59,-13,33,-69,-19,8,-22,7,-3
15,45,25,-59,-13,33,-69,-22,8,-22,7,-3
15,45,25,-59,-13,33,-70,-23,8,-22,7,-3
15,45,25,-59,-13,33,-71,-24,8,-22,7,-3
15,45,25,-59,-13,33,-72,-24,8,-22,7,-3
15,45,25,-59,-13,33,-73,-24,8,-22,7,-3
16,45,25,-60,-13,33,-74,-24,9,-22,7,-3
17,46,25,-62,-13,33,-74,-24,10,-22,9,-2
18,47,25,-63,-12,34,-75,-24,11,-22,10,-1
20,48,25,-65,-12,34,-75,-24,12,-22,11,1
21,48,25,-67,-12,34,-75,-24,13,-21,12,2
21,49,25,-67,-12,34,-75,-24,13,-20,12,2
21,49,25,-67,-11,35,-75,-24,14,-19,13,2
21,49,25,-67,-11,35,-75,-24,14,-18,13,2
21,49,25,-67,-11,35,-75,-24,14,-17,13,3
21,49,25,-67,-11,35,-75,-24,14,-17,13,4
21,49,25,-67,-11,35,-75,-24,14,-17,13,5
21,49,25,-67,-11,35,-75,-24,14,-17,13,6
21,49,25,-67,-11,35,-75,-24,14,-17,13,7
21,49,25,-67,-11,35,-76,-24,14,-17,13,8
21,49,25,-67,-11,35,-77,-24,14,-17,13,8
21,49,25,-67,-11,35,-79,-24,14,-17,13,8
21,49,25,-67,-11,35,-80,-24,14,-17,13,8
21,49,25,-67,-11,35,-80,-24,14,-17,13,8
21,49,25,-67,-11,35,-80,-24,14,-17,13,8
21,49,25,-67,-11,35,-80,-24,14,-17,13,8
21,49,25,-68,-12,35,-80,-24,14,-17,13,8
21,50,25,-69,-12,35,-80,-24,14,-17,13,8
21,51,26,-70,-12,36,-80,-24,14,-17,13,8
21,52,26,-71,-13,37,-80,-24,14,-17,13,8
21,52,27,-71,-13,37,-80,-24,14,-17,13,8
21,53,27,-72,-13,38,-80,-24,14,-18,13,8
21,53,27,-72,-13,38,-80,-24,14,-19,13,8
21,53,27,-72,-13,38,-80,-24,14,-21,13,8
21,52,27,-71,-14,38,-81,-24,13,-21,13,8
20,52,27,-69,-14,37,-82,-24,12,-21,13,8
18,51,27,-67,-14,37,-83,-24,11,-22,13,8
17,50,27,-65,-15,36,-84,-24,9,-22,13,8
16,49,27,-64,-15,36,-85,-24,9,-22,13,8
16,49,27,-64,-15,36,-85,-24,8,-22,13,8
15,49,27,-63,-15,36,-86,-24,8,-22,13,8
15,49,27,-63,-15,36,-86,-24,8,-22,13,8
16,49,27,-64,-15,36,-86,-24,8,-22,12,8
17,50,27,-66,-15,37,-86,-24,8,-22,11,8
18,51,27,-67,-14,37,-86,-24,8,-22,10,8
20,52,27,-70,-14,37,-86,-24,8,-22,8,8
21,52,27,-71,-13,37,-86,-24,8,-22,7,8
23,53,26,-73,-12,37,-86,-24,8,-22,7,8
25,53,26,-74,-11,37,-86,-24,8,-22,7,8
26,53,25,-75,-10,36,-86,-24,8,-22,7,8
27,53,25,-75,-10,36,-86,-24,8,-22,7,7
27,53,25,-76,-10,36,-86,-24,8,-22,7,6
28,53,25,-76,-9,36,-86,-24,8,-22,7,5
28,53,25,-76,-9,36,-86,-24,8,-22,7,3
27,52,25,-75,-10,36,-86,-24,8,-22,7,2
26,52,25,-73,-10,36,-86,-24,8,-23,7,1
25,51,25,-72,-10,35,-86,-24,8,-24,7,-1
23,50,25,-70,-11,35,-86,-24,8,-25,7,-2
22,49,24,-68,-11,34,-86,-25,7,-26,6,-3
22,48,24,-67,-11,34,-86,-27,5,-28,4,-5
21,47,23,-65,-10,33,-86,-29,3,-29,1,-6
21,46,23,-65,-10,32,-86,-31,0,-30,-2,-8
21,45,22,-64,-10,32,-86,-32,-2,-31,-4,-9
21,45,22,-64,-10,32,-86,-33,-2,-31,-4,-9
21,45,22,-63,-9,31,-86,-33,-2,-31,-5,-9
21,45,22,-63,-9,31,-86,-33,-2,-31,-5,-9
21,45,22,-63,-9,31,-86,-33,-2,-31,-5,-9
21,45,22,-63,-9,31,-86,-33,-2,-31,-7,-9
21,45,22,-63,-9,31,-86,-33,-2,-31,-8,-9
21,45,22,-63,-9,31,-86,-33,-2,-31,-9,-9
21,45,22,-63,-9,31,-86,-33,-2,-31,-10,-9
21,45,22,-63,-9,31,-86,-33,-2,-31,-10,-9
21,45,22,-63,-9,31,-86,-33,-2,-31,-11,-9
21,45,22,-63,-9,31,-86,-33,-2,-31,-11,-9
21,45,22,-63,-10,32,-86,-33,-3,-32,-11,-10
20,45,23,-62,-11,32,-86,-33,-4,-33,-11,-11
18,45,23,-61,-11,32,-86,-33,-5,-33,-11,-12
17,45,24,-60,-12,32,-86,-33,-6,-35,-11,-14
15,45,24,-59,-13,33,-86,-33,-7,-35,-11,-14
14,44,24,-57,-14,32,-86,-33,-8,-36,-11,-15
12,43,25,-55,-14,32,-86,-33,-8,-36,-11,-15
11,42,25,-53,-15,32,-86,-33,-8,-36,-11,-15
10,42,25,-52,-15,32,-86,-33,-8,-36,-11,-15
9,41,25,-51,-15,31,-86,-33,-8,-36,-11,-15
9,41,25,-51,-15,31,-86,-33,-8,-36,-11,-15
9,41,25,-51,-15,31,-86,-33,-8,-36,-11,-15
10,41,24,-52,-15,31,-86,-33,-8,-36,-11,-15
12,41,23,-53,-13,30,-86,-33,-8,-36,-11,-15
15,41,22,-55,-11,30,-86,-33,-8,-36,-11,-15
18,41,21,-57,-9,29,-86,-33,-8,-36,-11,-15
21,41,20,-59,-8,28,-86,-34,-8,-36,-11,-15
21,41,19,-59,-8,28,-86,-36,-8,-36,-12,-15
21,41,19,-59,-7,28,-86,-38,-8,-36,-14,-15
21,41,19,-59,-7,28,-86,-40,-8,-36,-15,-15
21,41,19,-59,-8,28,-86,-42,-8,-36,-16,-15
20,41,20,-58,-9,29,-86,-42,-8,-36,-16,-15
18,41,21,-57,-9,29,-86,-43,-8,-36,-17,-15
17,41,21,-56,-10,29,-86,-43,-8,-36,-17,-15
16,41,21,-55,-11,29,-86,-43,-8,-36,-17,-16
16,40,21,-54,-11,29,-87,-43,-8,-37,-17,-17
15,39,21,-53,-10,28,-88,-43,-8,-38,-17,-18
15,38,20,-52,-10,27,-90,-43,-8,-39,-17,-19
15,38,19,-51,-10,27,-91,-43,-8,-40,-17,-20
15,38,19,-51,-10,27,-91,-43,-9,-40,-17,-20
15,37,19,-51,-9,27,-91,-43,-11,-41,-17,-21
15,37,19,-51,-9,27,-91,-43,-12,-41,-17,-21
15,38,19,-51,-10,27,-91,-43,-13,-41,-17,-21
15,38,20,-52,-10,28,-91,-43,-13,-41,-17,-21
15,39,21,-53,-10,28,-91,-43,-13,-41,-17,-21
15,40,21,-54,-11,29,-91,-43,-13,-41,-17,-21
15,41,22,-54,-11,30,-91,-43,-13,-41,-17,-21
15,41,22,-55,-11,30,-91,-43,-12,-41,-17,-21
15,41,22,-55,-11,30,-91,-43,-11,-41,-17,-21
15,41,22,-55,-11,30,-91,-43,-9,-41,-17,-21
15,41,22,-54,-12,30,-91,-43,-8,-41,-17,-21
13,41,23,-54,-13,30,-91,-43,-8,-41,-17,-21
12,41,23,-53,-13,31,-91,-43,-8,-41,-17,-21
11,41,24,-52,-14,31,-91,-43,-8,-41,-17,-21
10,41,24,-51,-15,31,-90,-42,-7,-40,-16,-20
9,41,24,-51,-15,31,-88,-40,-6,-39,-15,-19
9,41,25,-51,-15,31,-86,-38,-5,-38,-14,-18
9,41,25,-51,-15,31,-83,-36,-4,-37,-12,-16
10,42,25,-52,-15,32,-81,-32,-2,-35,-11,-15
12,44,25,-57,-15,33,-79,-28,1,-33,-9,-14
15,47,26,-62,-14,35,-77,-24,3,-31,-8,-12
18,50,26,-67,-14,36,-76,-19,5,-29,-6,-11
21,52,27,-70,-14,37,-75,-16,8,-27,-5,-10
21,52,27,-71,-13,37,-73,-13,9,-27,-5,-10
21,53,27,-72,-13,38,-72,-10,11,-26,-5,-9
21,53,27,-72,-13,38,-70,-8,12,-26,-5,-9
22,53,27,-72,-13,38,-70,-5,13,-26,-4,-9
23,53,26,-73,-12,37,-69,-0,13,-26,-3,-9
25,53,26,-74,-11,37,-69,4,14,-26,-2,-9
26,53,25,-75,-10,36,-69,8,14,-26,-0,-9
28,53,25,-76,-10,36,-70,11,14,-26,1,-9
29,54,25,-78,-9,37,-72,12,14,-25,2,-9
31,55,25,-80,-8,37,-75,13,14,-24,4,-9
32,56,25,-82,-8,37,-77,13,14,-23,5,-9
33,56,25,-83,-8,38,-81,9,14,-22,6,-9
34,56,25,-84,-8,38,-85,2,14,-22,7,-9
34,57,25,-84,-7,38,-88,-6,14,-22,7,-9
34,57,25,-84,-7,38,-93,-15,14,-22,7,-9
34,56,24,-84,-7,37,-97,-23,12,-22,6,-9
34,55,24,-83,-7,37,-103,-28,9,-23,4,-9
34,55,23,-82,-6,36,-108,-33,5,-24,1,-9
34,54,23,-81,-6,35,-114,-38,1,-25,-2,-9
34,53,22,-80,-5,35,-118,-43,-2,-26,-4,-9
34,52,21,-79,-5,34,-120,-47,-4,-28,-6,-9
34,51,21,-78,-5,33,-122,-52,-5,-29,-8,-9
34,50,20,-77,-4,32,-123,-57,-6,-30,-9,-9
34,49,19,-76,-4,32,-124,-60,-8,-31,-10,-9
34,49,19,-76,-4,32,-125,-61,-9,-32,-10,-9
34,49,19,-76,-4,31,-125,-61,-11,-33,-11,-9
34,49,19,-76,-4,31,-125,-61,-12,-35,-11,-9
35,49,19,-76,-3,31,-124,-61,-13,-35,-11,-9
36,49,18,-77,-2,31,-123,-61,-15,-36,-11,-9
37,49,18,-78,-2,31,-122,-61,-16,-36,-11,-9
39,49,17,-79,-1,30,-121,-61,-17,-36,-11,-9
40,49,17,-80,0,30,-120,-62,-18,-36,-11,-10
40,49,17,-80,0,30,-119,-64,-18,-37,-12,-11
40,49,17,-80,0,30,-119,-66,-19,-38,-14,-12
40,49,17,-80,0,30,-119,-68,-19,-39,-15,-14
40,48,17,-79,0,30,-119,-70,-19,-40,-16,-14
38,48,17,-78,-0,29,-119,-70,-19,-40,-16,-15
37,47,17,-76,-1,29,-119,-70,-19,-41,-17,-15
35,46,17,-74,-1,29,-119,-70,-19,-41,-17,-15
34,45,17,-72,-2,28,-119,-70,-19,-41,-17,-15
32,44,17,-70,-2,28,-118,-68,-19,-41,-17,-15
31,43,17,-67,-3,27,-116,-66,-19,-41,-17,-15
29,42,17,-65,-3,27,-115,-63,-19,-41,-17,-15
28,41,17,-63,-4,27,-114,-61,-19,-41,-17,-16
26,40,17,-61,-4,26,-112,-59,-19,-41,-17,-17
25,39,17,-59,-5,26,-111,-57,-19,-41,-17,-18
23,38,17,-57,-5,25,-109,-54,-19,-41,-17,-19
21,37,16,-54,-5,25,-108,-53,-19,-41,-17,-21
20,35,16,-52,-5,24,-107,-52,-20,-41,-18,-22
18,33,15,-49,-5,23,-105,-52,-21,-41,-20,-24
17,32,15,-46,-5,22,-104,-52,-23,-41,-21,-25
15,30,14,-43,-6,21,-103,-52,-24,-41,-22,-26
14,29,14,-41,-6,20,-103,-52,-24,-41,-24,-26
12,28,14,-38,-6,20,-102,-52,-24,-41,-25,-27
11,27,14,-36,-7,19,-102,-52,-24,-41,-27,-27
10,26,14,-34,-7,19,-102,-52,-24,-41,-28,-27
9,25,13,-33,-7,18,-102,-52,-24,-42,-28,-28
9,24,13,-32,-6,17,-102,-52,-24,-43,-28,-29
9,23,12,-31,-6,16,-102,-52,-24,-44,-28,-31
9,22,11,-30,-5,16,-102,-52,-24,-45,-28,-32
9,21,11,-29,-5,15,-102,-52,-24,-45,-28,-32
9,20,10,-28,-5,14,-102,-52,-24,-45,-28,-32
9,19,9,-27,-4,13,-102,-52,-24,-45,-28,-32
9,18,9,-26,-4,13,-102,-52,-24,-45,-28,-32
9,18,9,-26,-4,13,-102,-52,-24,-45,-28,-32
9,18,9,-26,-4,13,-102,-52,-24,-45,-28,-32
9,18,9,-26,-4,13,-102,-52,-24,-45,-28,-32
9,18,9,-26,-4,13,-102,-52,-24,-45,-28,-32
9,18,9,-26,-4,13,-102,-52,-24,-45,-28,-32
9,18,9,-26,-4,13,-102,-52,-24,-45,-28,-32
9,18,9,-26,-4,13,-102,-52,-24,-45,-28,-32
8,18,9,-25,-4,13,-102,-52,-24,-45,-28,-32
7,18,9,-24,-5,13,-102,-52,-24,-45,-28,-32
6,18,10,-23,-5,13,-102,-52,-24,-45,-28,-32
4,18,11,-23,-6,14,-102,-52,-24,-45,-28,-32
2,18,11,-21,-8,14,-102,-52,-24,-45,-28,-32
-0,18,13,-19,-9,15,-102,-52,-24,-45,-28,-32
-3,18,14,-18,-11,16,-102,-52,-24,-45,-28,-32
-6,18,15,-16,-13,16,-102,-52,-24,-45,-28,-32
-7,18,15,-15,-14,17,-102,-52,-24,-45,-28,-32
-6,18,15,-16,-13,16,-102,-52,-24,-45,-28,-32
-3,18,14,-18,-11,16,-102,-52,-24,-45,-28,-32
0,18,12,-20,-9,15,-102,-52,-24,-45,-28,-32
2,18,11,-21,-8,14,-102,-52,-25,-45,-28,-32
4,18,11,-23,-6,14,-102,-52,-26,-45,-28,-32
6,18,10,-23,-5,13,-102,-52,-27,-45,-28,-32
7,18,9,-25,-5,13,-102,-52,-28,-45,-28,-32
8,18,9,-25,-4,13,-102,-52,-29,-45,-28,-32
9,18,9,-26,-4,13,-102,-52,-29,-45,-28,-32
9,18,9,-26,-4,13,-102,-52,-29,-45,-28,-32
9,18,9,-26,-4,13,-102,-52,-29,-45,-28,-32
10,18,8,-26,-3,12,-102,-51,-29,-45,-28,-32
11,18,8,-27,-2,12,-101,-49,-28,-44,-28,-32
12,18,7,-28,-2,12,-100,-47,-27,-43,-28,-32
14,18,7,-29,-1,11,-98,-45,-25,-42,-28,-32
15,18,6,-29,0,11,-97,-44,-25,-41,-28,-32
15,18,6,-30,0,11,-97,-43,-24,-41,-28,-32
15,18,6,-30,0,11,-97,-43,-24,-41,-28,-32
15,18,6,-30,0,11,-97,-43,-24,-41,-28,-32
15,18,6,-30,0,11,-97,-43,-24,-41,-28,-32
15,18,6,-30,0,11,-97,-43,-24,-41,-28,-32
15,18,6,-30,0,11,-97,-43,-24,-41,-28,-32
15,18,6,-30,0,11,-97,-43,-24,-41,-28,-32
15,18,6,-30,0,11,-97,-43,-24,-41,-28,-32
15,19,7,-31,-0,12,-97,-43,-24,-41,-27,-31
15,20,7,-32,-1,13,-97,-43,-24,-41,-25,-29
15,21,8,-33,-1,13,-97,-43,-24,-41,-24,-28
16,22,8,-34,-1,14,-97,-42,-24,-40,-22,-27
17,23,8,-36,-1,14,-97,-40,-22,-39,-21,-25
18,24,9,-38,-1,15,-97,-38,-21,-38,-20,-24
20,25,9,-40,-0,15,-97,-36,-20,-37,-18,-22
21,25,9,-41,0,16,-97,-34,-19,-36,-17,-21
21,26,9,-42,0,16,-97,-34,-19,-36,-17,-21
21,26,9,-42,0,16,-97,-33,-19,-36,-17,-21
21,26,9,-42,0,16,-97,-33,-19,-36,-17,-21
21,26,9,-42,0,16,-97,-33,-19,-36,-17,-21
21,26,9,-42,0,16,-97,-33,-19,-36,-17,-21
21,26,9,-42,0,16,-97,-34,-19,-36,-17,-21
-97,81,97,-23,-102,90,-82,-15,50,49,90,61
-97,81,97,-23,-102,90,-82,-15,50,49,90,61
-97,81,97,-23,-102,90,-82,-15,50,49,90,61
-97,81,97,-23,-102,90,-82,-15,50,49,90,61
-97,78,95,-19,-100,88,-82,-11,53,49,91,63
-100,78,96,-17,-102,89,-80,-11,53,46,97,63
-106,70,93,-5,-102,84,-79,-11,53,45,94,63
-119,67,97,7,-109,85,-75,-18,47,39,88,57
-145,50,96,44,-117,77,-76,-25,35,30,72,50
-170,23,88,90,-119,62,-86,-41,20,16,67,37
-111,56,85,14,-98,73,-75,-13,28,21,64,47
-117,49,83,26,-98,69,-75,-15,18,9,53,53
-120,35,75,42,-94,59,-78,-25,-1,-9,41,37
-17,-23,-9,37,1,-14,-92,-36,-78,-100,-72,-34
20,-12,-17,-0,19,-14,-93,-27,-95,-110,-83,-36
14,-23,-22,16,21,-22,-97,-32,-107,-121,-85,-41
14,-28,-25,22,23,-26,-97,-27,-109,-126,-92,-43
11,-35,-28,31,24,-31,-92,-20,-119,-134,-100,-46
17,-43,-37,36,33,-40,-93,-18,-131,-147,-111,-51
23,-52,-46,41,41,-48,-96,-20,-143,-158,-122,-59
29,-58,-52,44,48,-54,-96,-20,-157,-171,-135,-60
39,-69,-64,50,60,-66,-96,-29,-170,-182,-147,-72
43,-81,-74,60,68,-77,-94,-20,-181,-193,-159,-79
34,-95,-80,81,70,-86,-94,-13,-192,-205,-179,-87
28,-110,-87,101,73,-97,-94,-6,-200,-211,-190,-99
9,-125,-90,131,69,-104,-92,15,-207,-220,-197,-109
39,-129,-105,115,90,-115,-89,29,-209,-225,-206,-116
65,-134,-120,102,109,-126,-86,24,-220,-234,-218,-126
64,-138,-122,108,110,-128,-90,19,-226,-240,-225,-132
85,-137,-130,92,123,-133,-96,26,-232,-242,-234,-139
98,-138,-136,85,132,-137,-96,26,-235,-248,-242,-145
88,-145,-138,99,130,-141,-97,24,-242,-253,-247,-148
99,-156,-150,104,142,-152,-104,6,-257,-263,-256,-155
73,-168,-146,134,131,-155,-106,1,-270,-272,-265,-160
76,-172,-151,137,135,-160,-111,-1,-278,-277,-270,-163
88,-174,-158,131,144,-164,-113,8,-282,-279,-267,-165
112,-165,-161,104,154,-162,-113,40,-267,-277,-264,-168
121,-174,-172,109,165,-173,-111,26,-278,-277,-265,-174
137,-185,-185,110,180,-185,-108,38,-289,-287,-281,-186
151,-194,-197,110,193,-196,-104,50,-297,-296,-293,-199
143,-196,-196,118,190,-196,-103,43,-298,-293,-293,-203
137,-200,-196,127,188,-198,-103,43,-301,-293,-295,-207
130,-208,-198,140,187,-202,-111,21,-311,-299,-302,-213
133,-207,-199,137,189,-203,-109,19,-309,-297,-302,-214
144,-201,-200,122,193,-200,-103,29,-300,-290,-298,-211
153,-197,-201,112,196,-199,-100,35,-291,-286,-294,-210
152,-198,-201,114,196,-200,-98,34,-288,-284,-293,-212
144,-202,-201,123,194,-201,-95,35,-287,-283,-294,-215
141,-204,-201,128,192,-202,-91,38,-285,-282,-296,-218
140,-205,-201,129,192,-202,-89,32,-284,-281,-297,-220
136,-205,-199,132,190,-202,-94,12,-285,-280,-298,-221
135,-204,-198,131,189,-200,-100,-13,-286,-279,-297,-221
137,-198,-194,124,186,-196,-103,-36,-283,-274,-292,-218
141,-188,-190,111,184,-189,-108,-57,-278,-267,-284,-212
147,-181,-187,98,184,-184,-121,-81,-277,-264,-280,-210
149,-177,-186,93,184,-182,-140,-110,-278,-265,-278,-211
151,-173,-183,88,183,-179,-158,-136,-277,-264,-275,-210
154,-166,-180,78,182,-174,-172,-155,-271,-260,-269,-208
156,-158,-175,68,179,-168,-183,-172,-264,-254,-261,-204
156,-150,-169,59,174,-161,-190,-186,-254,-245,-252,-198
151,-139,-160,51,166,-151,-192,-191,-239,-230,-240,-190
140,-129,-148,47,154,-141,-192,-190,-223,-214,-224,-181
130,-118,-137,41,142,-129,-190,-187,-207,-199,-210,-171
126,-107,-127,31,134,-119,-188,-181,-193,-186,-196,-162
118,-99,-119,28,125,-111,-188,-179,-182,-177,-185,-155
109,-92,-109,27,115,-102,-188,-178,-172,-168,-174,-148
106,-80,-101,16,108,-92,-183,-173,-159,-157,-162,-139
101,-69,-91,8,99,-82,-176,-164,-145,-145,-148,-128
91,-56,-77,0,86,-69,-163,-148,-125,-129,-130,-114
81,-42,-63,-8,72,-55,-150,-129,-106,-112,-110,-100
68,-34,-52,-9,60,-45,-142,-119,-91,-99,-96,-90
55,-29,-43,-5,49,-37,-137,-112,-79,-88,-85,-82
45,-22,-34,-6,40,-29,-134,-104,-66,-77,-74,-74
34,-15,-25,-6,29,-20,-129,-94,-53,-66,-62,-65
18,-6,-12,-5,15,-10,-122,-82,-38,-52,-47,-54
4,3,1,-6,1,2,-116,-67,-22,-37,-31,-42
-7,12,11,-8,-10,11,-111,-55,-10,-26,-17,-33
-6,19,16,-17,-14,17,-107,-46,-2,-19,-8,-26
-3,25,19,-25,-15,21,-106,-39,3,-14,-1,-20
-6,27,21,-25,-18,23,-104,-34,8,-9,3,-16
-9,28,23,-24,-20,25,-104,-30,12,-5,8,-11
-6,33,25,-32,-20,28,-101,-23,18,0,14,-6
-1,37,26,-39,-20,31,-101,-19,22,4,18,-2
-2,38,26,-40,-20,31,-103,-21,23,5,20,-1
0,37,26,-41,-19,30,-105,-25,22,4,19,-1
3,39,25,-44,-18,31,-107,-28,22,4,19,-0
4,40,26,-47,-18,32,-107,-25,22,5,21,1
2,41,27,-46,-19,33,-106,-23,22,6,23,2
2,41,27,-47,-20,33,-106,-22,22,8,25,3
6,43,27,-51,-18,34,-105,-22,21,8,25,4
7,44,27,-52,-18,34,-105,-23,21,9,26,5
4,43,28,-49,-20,34,-104,-24,22,10,28,5
-1,42,29,-45,-22,35,-103,-25,23,12,30,4
-2,42,30,-44,-23,35,-103,-26,24,13,31,3
-1,43,30,-46,-23,35,-104,-28,24,13,31,2
-1,43,30,-46,-22,35,-107,-29,23,12,29,2
-1,42,29,-44,-22,34,-109,-31,23,11,27,1
-2,42,30,-45,-23,35,-110,-30,24,10,27,2
1,44,30,-48,-22,36,-109,-28,24,10,27,3
2,45,30,-51,-22,37,-109,-27,24,11,27,4
3,46,31,-52,-22,37,-108,-26,24,11,28,5
4,47,31,-53,-22,37,-108,-26,23,12,30,6
6,47,30,-55,-21,37,-108,-27,22,13,30,6
7,48,30,-57,-20,37,-108,-29,22,13,30,6
7,49,31,-58,-20,38,-107,-31,23,14,31,6
12,51,30,-63,-19,39,-107,-32,23,14,32,6
12,52,30,-65,-18,39,-108,-33,23,15,32,6
7,50,31,-60,-21,39,-109,-32,24,15,33,7
3,49,32,-55,-23,39,-110,-32,24,16,33,8
-4,47,34,-49,-27,40,-111,-31,24,16,33,8
-12,44,35,-40,-30,39,-111,-32,24,15,33,7
-6,45,33,-45,-26,38,-110,-30,24,16,33,8
7,49,31,-58,-21,39,-108,-25,25,17,35,10
12,51,30,-63,-19,39,-107,-22,26,18,38,10
14,52,30,-65,-17,39,-107,-20,27,19,39,11
13,51,30,-65,-18,39,-109,-20,28,19,38,11
9,50,31,-61,-20,39,-111,-20,29,18,37,10
6,49,31,-57,-21,39,-112,-20,30,17,36,10
10,52,32,-63,-20,40,-111,-18,32,18,38,11
17,56,31,-73,-18,42,-109,-14,34,20,40,13
18,56,31,-73,-17,41,-109,-15,34,20,41,13
15,56,32,-71,-19,42,-109,-15,34,20,41,14
15,57,33,-72,-20,43,-109,-14,35,21,42,14
12,55,33,-68,-21,42,-110,-17,35,21,42,13
7,52,32,-61,-22,40,-112,-21,34,21,41,11
7,50,32,-60,-21,39,-112,-23,35,21,41,10
10,51,31,-62,-20,39,-112,-24,36,21,42,10
8,49,31,-59,-20,38,-113,-25,35,21,42,9
6,48,30,-56,-21,38,-114,-26,34,21,41,8
6,49,31,-57,-21,38,-114,-25,35,21,42,9
11,52,31,-64,-20,40,-113,-24,37,23,44,11
18,56,31,-73,-18,42,-112,-21,39,25,47,12
22,59,31,-79,-16,43,-111,-19,41,27,49,13
21,59,32,-78,-17,43,-111,-19,42,27,49,13
17,57,32,-73,-19,43,-111,-19,41,28,50,14
17,58,33,-74,-19,43,-111,-19,41,28,51,15
19,59,33,-78,-18,44,-111,-18,42,30,52,15
18,59,33,-77,-19,44,-112,-17,41,31,52,16
13,58,34,-72,-21,44,-113,-17,41,31,53,17
13,58,34,-72,-21,44,-113,-17,41,31,54,19
18,60,34,-78,-20,45,-113,-16,42,32,56,23
23,63,34,-85,-18,46,-111,-13,45,35,59,26
26,66,34,-89,-17,47,-111,-12,46,37,61,28
24,66,35,-88,-19,48,-112,-10,47,38,62,29
21,66,37,-86,-21,49,-112,-8,47,38,63,29
18,67,39,-85,-23,50,-112,-6,48,39,63,29
22,71,39,-92,-22,52,-111,-2,50,41,66,30
26,74,40,-98,-22,54,-110,2,53,44,68,32
24,75,41,-97,-23,55,-111,3,53,45,69,32
23,74,41,-96,-23,55,-112,3,54,45,69,32
25,74,41,-97,-22,54,-113,2,54,46,69,32
25,76,42,-100,-23,56,-113,2,56,47,72,33
23,77,43,-99,-24,57,-112,3,58,49,74,35
22,77,44,-99,-25,58,-113,4,60,51,75,37
23,79,45,-102,-26,59,-113,6,62,53,77,39
23,81,46,-104,-26,60,-114,8,65,55,79,40
24,82,46,-105,-27,61,-114,9,68,57,81,41
24,82,46,-105,-27,61,-116,9,70,57,81,42
22,81,46,-103,-27,61,-118,8,71,58,81,41
19,81,48,-101,-29,61,-120,8,71,58,82,42
21,84,49,-106,-30,64,-118,13,73,62,86,44
26,90,51,-115,-30,67,-116,19,76,66,91,48
23,89,52,-113,-31,67,-116,19,77,68,93,48
19,89,53,-109,-33,68,-116,18,77,69,94,49
19,91,55,-112,-35,70,-115,20,80,72,97,52
23,95,55,-119,-34,72,-114,25,83,75,101,55
26,98,56,-124,-33,73,-113,27,85,76,103,57
23,98,58,-123,-35,75,-113,28,87,78,104,58
24,99,58,-124,-36,75,-114,29,89,79,106,59
27,102,59,-129,-35,76,-115,30,91,81,108,60
32,107,60,-138,-34,80,-114,35,95,85,114,65
37,112,61,-147,-33,82,-113,40,98,88,118,69
40,113,61,-150,-32,82,-114,42,100,90,120,70
41,113,60,-150,-32,82,-116,42,102,91,121,71
40,114,61,-151,-32,83,-116,45,103,93,123,73
39,115,63,-152,-34,84,-117,49,105,94,125,76
35,115,64,-148,-37,85,-118,51,106,95,126,78
35,115,65,-148,-37,85,-120,54,107,95,127,79
41,119,64,-158,-35,87,-120,57,108,97,130,80
47,122,64,-164,-32,87,-121,58,109,98,131,81
49,122,63,-166,-32,87,-123,59,109,98,130,81
49,123,64,-167,-32,88,-123,62,110,98,131,82
48,123,64,-166,-32,88,-124,63,110,98,132,83
44,119,63,-159,-33,86,-125,62,109,97,131,82
46,118,61,-159,-31,84,-126,63,109,97,132,83
50,117,60,-161,-28,83,-126,65,109,97,132,84
49,116,59,-159,-28,82,-128,65,108,96,130,84
53,118,59,-164,-27,83,-128,66,108,95,130,84
58,122,59,-171,-26,85,-128,68,109,95,130,84
61,123,59,-175,-24,85,-128,68,108,93,129,84
64,124,58,-179,-23,85,-126,70,108,92,127,83
68,125,57,-182,-21,85,-125,70,108,91,126,83
69,124,56,-181,-20,84,-126,68,106,89,123,81
68,121,55,-177,-19,82,-127,67,103,86,121,79
67,119,54,-175,-19,80,-126,68,100,84,119,78
66,118,53,-173,-18,79,-126,68,99,83,116,76
65,115,51,-169,-17,77,-127,67,96,81,114,74
66,113,50,-168,-16,76,-127,66,93,80,111,72
70,113,48,-170,-14,75,-128,66,91,79,109,71
74,111,45,-171,-10,72,-128,64,87,76,105,68
76,107,41,-168,-7,68,-130,62,83,72,100,65
78,105,39,-167,-4,66,-130,62,80,69,96,62
78,102,37,-163,-3,63,-129,61,77,66,93,59
76,97,35,-157,-2,60,-129,59,73,63,89,56
72,93,33,-149,-2,57,-128,59,70,59,85,53
74,91,31,-148,0,55,-127,60,68,57,83,51
79,89,28,-151,4,53,-126,61,65,53,79,49
80,85,25,-146,7,49,-126,59,60,49,74,45
77,81,23,-140,7,46,-126,57,56,45,70,41
74,76,21,-133,7,44,-125,56,52,42,66,38
73,73,19,-129,9,41,-125,55,49,39,62,36
75,71,17,-127,11,39,-124,54,46,37,59,33
76,68,14,-124,13,36,-123,53,43,34,55,31
76,64,12,-121,15,33,-122,52,39,30,51,27
75,60,9,-115,17,30,-122,51,36,27,47,24
73,56,7,-110,18,27,-122,50,33,23,43,21
74,54,5,-108,19,25,-121,50,30,21,40,19
76,52,4,-108,21,24,-119,50,28,18,37,17
76,49,2,-105,22,21,-119,48,25,15,33,14
75,47,0,-101,23,19,-119,46,22,13,30,12
74,43,-2,-96,25,16,-118,44,19,11,26,9
73,39,-4,-91,26,14,-118,41,15,8,23,5
74,38,-5,-91,27,12,-118,41,13,6,21,3
74,38,-6,-91,27,12,-118,40,12,5,20,2
74,37,-6,-91,28,12,-118,40,12,5,20,2
74,37,-6,-91,28,12,-118,40,12,5,20,2
74,37,-6,-91,28,12,-118,40,12,5,20,2
74,37,-6,-91,28,12,-118,40,12,5,20,2
71,29,-10,-79,30,6,-116,37,5,-2,15,-5
67,18,-16,-65,33,-2,-114,33,-5,-12,7,-14
66,14,-18,-60,34,-5,-114,32,-9,-15,5,-16
65,13,-19,-58,34,-6,-114,31,-10,-17,4,-17
65,12,-19,-57,35,-6,-114,31,-11,-17,4,-18
65,11,-20,-56,35,-7,-114,31,-12,-17,2,-19
64,10,-20,-54,35,-8,-114,30,-13,-17,1,-20
63,9,-20,-52,35,-8,-114,28,-13,-17,-0,-20
62,8,-21,-51,35,-9,-114,26,-13,-17,-2,-21
60,8,-21,-49,34,-9,-114,24,-13,-17,-3,-21
59,7,-21,-47,34,-9,-114,23,-13,-17,-4,-21
57,6,-21,-44,33,-10,-114,22,-13,-17,-4,-23
56,5,-21,-42,33,-10,-114,22,-13,-17,-5,-24
54,4,-21,-40,32,-11,-114,22,-13,-17,-5,-25
53,3,-21,-39,32,-11,-114,22,-13,-17,-5,-26
53,3,-21,-39,32,-11,-114,22,-13,-17,-5,-26
53,3,-21,-38,32,-11,-114,22,-13,-17,-5,-27
53,3,-21,-38,32,-11,-114,22,-13,-17,-5,-27
53,3,-21,-39,32,-11,-113,23,-13,-17,-5,-27
54,3,-21,-39,33,-11,-112,25,-13,-17,-5,-27
56,3,-22,-40,34,-12,-111,26,-13,-17,-5,-27
57,3,-23,-41,35,-12,-109,29,-13,-17,-5,-27
58,3,-23,-42,35,-12,-109,30,-13,-17,-5,-27
59,3,-23,-42,35,-12,-108,31,-13,-17,-5,-27
59,3,-23,-42,36,-13,-108,31,-13,-17,-5,-27
59,3,-23,-42,36,-13,-108,31,-13,-17,-5,-27
59,2,-24,-41,36,-13,-109,30,-13,-17,-5,-27
59,1,-25,-40,37,-14,-110,28,-13,-17,-7,-27
59,-1,-26,-38,38,-16,-111,26,-13,-17,-8,-27
59,-3,-27,-36,39,-17,-112,24,-13,-17,-9,-27
59,-4,-28,-35,39,-18,-113,23,-13,-17,-10,-27
59,-5,-28,-34,39,-19,-113,22,-13,-17,-10,-27
59,-5,-28,-34,40,-19,-114,22,-13,-17,-11,-27
59,-5,-28,-34,40,-19,-114,22,-13,-17,-11,-27
59,-4,-28,-34,39,-18,-113,23,-13,-17,-10,-26
59,-4,-28,-35,39,-18,-112,25,-12,-16,-7,-25
59,-3,-27,-36,39,-17,-111,26,-11,-15,-5,-24
59,-2,-26,-37,38,-16,-109,29,-9,-13,-2,-22
59,-0,-26,-39,38,-15,-108,31,-7,-12,1,-21
61,2,-24,-43,37,-14,-107,33,-5,-11,2,-21
62,5,-23,-47,36,-12,-105,36,-2,-10,4,-21
64,8,-22,-51,36,-10,-104,38,0,-9,5,-21
64,9,-21,-53,36,-8,-102,40,2,-7,7,-20
65,10,-21,-54,36,-8,-101,43,4,-5,8,-19
65,10,-21,-54,36,-8,-100,45,5,-3,10,-18
65,10,-21,-55,36,-8,-98,47,7,-0,11,-16
65,11,-20,-55,35,-8,-97,50,9,1,12,-16
65,12,-20,-56,35,-7,-95,52,11,3,12,-15
65,12,-19,-57,35,-6,-94,54,14,4,13,-15
65,13,-19,-58,34,-5,-93,57,16,5,13,-15
65,14,-18,-59,34,-5,-91,59,18,6,13,-15
65,15,-17,-60,33,-4,-90,61,20,8,14,-15
65,16,-17,-61,33,-3,-88,63,22,9,16,-15
65,17,-16,-62,32,-2,-87,66,23,10,17,-15
65,18,-15,-63,32,-2,-86,67,24,11,18,-15
65,18,-15,-63,32,-2,-86,68,24,11,18,-15
65,18,-15,-63,32,-2,-86,68,24,11,19,-15
65,18,-15,-63,32,-2,-86,68,24,11,19,-15
66,18,-15,-64,32,-1,-87,68,24,11,19,-14
67,19,-15,-66,32,-1,-89,68,24,11,20,-13
68,20,-15,-67,33,-1,-91,68,24,11,22,-12
70,21,-15,-70,33,-0,-94,68,24,11,23,-11
71,22,-15,-72,34,0,-97,67,24,11,24,-9
73,23,-15,-74,34,0,-101,63,24,11,24,-8
74,24,-15,-76,35,1,-105,59,24,11,25,-6
76,25,-15,-78,35,1,-109,54,24,11,25,-5
77,25,-15,-79,35,1,-114,50,24,11,24,-4
77,26,-15,-80,35,2,-118,45,23,10,23,-4
78,26,-15,-80,36,2,-122,40,22,9,22,-3
78,26,-15,-80,36,2,-126,36,20,8,20,-3
78,26,-15,-80,36,1,-130,32,19,6,19,-4
79,26,-16,-81,37,1,-131,29,18,5,17,-5
81,26,-17,-82,38,1,-133,26,16,4,16,-6
82,26,-17,-83,39,0,-135,24,15,3,14,-8
83,25,-18,-83,39,-0,-135,22,14,2,13,-9
83,25,-19,-83,40,-1,-136,19,12,1,13,-9
84,24,-19,-82,41,-2,-136,17,11,-0,13,-9
84,23,-20,-81,41,-2,-136,15,9,-2,13,-9
84,22,-21,-80,42,-3,-136,12,8,-3,12,-10
84,20,-22,-78,42,-5,-136,7,5,-5,11,-11
84,18,-23,-76,43,-6,-136,3,3,-8,10,-12
84,16,-25,-74,44,-8,-136,-1,0,-10,8,-14
84,15,-25,-72,45,-9,-136,-4,-2,-12,6,-15
84,14,-26,-72,45,-9,-136,-5,-4,-13,4,-16
84,14,-26,-72,45,-9,-136,-6,-5,-15,1,-18
84,14,-26,-72,45,-9,-136,-6,-6,-16,-2,-19
83,14,-26,-71,45,-10,-135,-6,-7,-17,-4,-20
82,13,-26,-69,45,-10,-133,-6,-8,-17,-4,-20
81,12,-26,-67,44,-10,-130,-6,-8,-17,-5,-21
79,11,-26,-65,44,-11,-128,-6,-8,-17,-5,-21
78,10,-26,-63,44,-11,-125,-4,-8,-17,-5,-21
76,8,-27,-60,43,-12,-124,-0,-8,-17,-5,-21
74,7,-27,-57,43,-13,-122,4,-8,-17,-5,-21
73,5,-28,-54,43,-14,-121,8,-8,-17,-5,-21
71,3,-29,-50,44,-16,-119,11,-8,-17,-5,-21
70,-0,-30,-47,44,-18,-118,12,-8,-17,-7,-23
68,-3,-31,-42,44,-19,-116,13,-8,-17,-8,-24
67,-6,-32,-38,45,-21,-115,13,-8,-17,-9,-25
64,-9,-33,-34,45,-23,-114,13,-8,-17,-11,-27
60,-12,-34,-28,44,-24,-114,13,-9,-18,-14,-30
56,-14,-34,-21,42,-26,-114,13,-11,-19,-17,-32
51,-17,-34,-15,41,-27,-114,13,-12,-21,-20,-35
47,-20,-34,-10,40,-28,-113,13,-13,-21,-22,-38
45,-21,-34,-7,39,-28,-112,13,-13,-21,-22,-39
43,-22,-34,-5,39,-29,-111,13,-13,-22,-22,-41
42,-23,-34,-3,38,-29,-109,13,-13,-22,-22,-42
41,-24,-34,-1,38,-30,-108,13,-13,-22,-22,-43
40,-25,-34,0,38,-30,-107,13,-13,-22,-22,-44
40,-26,-35,2,39,-31,-105,13,-13,-22,-22,-44
40,-27,-36,3,39,-32,-104,13,-13,-22,-22,-44
40,-28,-36,4,40,-33,-103,13,-13,-22,-23,-44
40,-29,-37,5,40,-34,-103,13,-13,-23,-24,-46
40,-30,-38,6,41,-34,-102,13,-13,-24,-25,-47
40,-31,-38,7,41,-35,-102,13,-13,-25,-27,-48
40,-31,-39,8,41,-36,-102,13,-13,-26,-28,-49
40,-32,-39,8,41,-36,-102,13,-13,-26,-28,-49
40,-32,-39,8,41,-36,-102,13,-13,-26,-28,-50
40,-32,-39,8,41,-36,-102,13,-13,-26,-28,-50
40,-32,-39,8,41,-36,-102,13,-13,-26,-28,-50
40,-32,-39,8,41,-36,-102,13,-13,-25,-28,-50
40,-32,-39,8,41,-36,-102,13,-13,-24,-28,-50
40,-32,-39,8,41,-36,-102,13,-13,-23,-28,-50
40,-32,-39,8,42,-36,-102,13,-13,-22,-28,-50
40,-33,-40,9,42,-37,-101,13,-13,-22,-28,-50
40,-34,-40,10,42,-38,-100,13,-13,-22,-28,-50
40,-35,-41,11,43,-38,-98,13,-13,-22,-28,-50
40,-35,-41,12,43,-39,-97,13,-13,-22,-28,-50
40,-35,-41,12,43,-39,-97,13,-13,-22,-28,-50
40,-36,-42,12,43,-39,-97,13,-13,-22,-28,-50
40,-36,-42,12,43,-39,-97,13,-13,-22,-28,-50
40,-36,-42,13,44,-39,-97,13,-13,-22,-28,-50
40,-37,-42,13,44,-40,-97,13,-13,-22,-28,-50
40,-38,-43,14,44,-41,-97,13,-13,-22,-28,-50
40,-38,-44,15,45,-41,-97,13,-13,-22,-28,-50
40,-39,-44,16,45,-42,-97,13,-13,-22,-28,-50
40,-40,-45,17,46,-43,-97,13,-13,-22,-28,-50
40,-41,-46,18,46,-44,-97,13,-13,-22,-28,-50
40,-42,-46,19,47,-45,-97,13,-13,-22,-28,-50
40,-43,-47,20,47,-45,-97,13,-13,-22,-28,-50
40,-43,-47,20,47,-45,-97,13,-13,-22,-28,-50
40,-43,-47,21,47,-45,-97,13,-13,-22,-28,-50
40,-43,-47,21,47,-45,-97,13,-13,-22,-28,-50
40,-43,-47,21,47,-45,-97,13,-13,-22,-28,-50
40,-43,-47,21,47,-45,-97,13,-13,-22,-28,-50
40,-43,-47,21,47,-45,-97,13,-13,-22,-28,-50
40,-43,-47,21,47,-45,-97,13,-13,-22,-28,-50
40,-43,-47,21,47,-45,-97,13,-13,-22,-28,-50
40,-43,-47,21,47,-45,-97,15,-13,-22,-28,-50
40,-43,-47,21,47,-45,-97,17,-13,-22,-28,-50
40,-43,-47,21,47,-45,-97,19,-13,-22,-28,-50
41,-43,-47,20,48,-45,-97,21,-13,-22,-28,-50
42,-42,-47,18,48,-45,-97,21,-13,-22,-28,-50
43,-41,-47,16,48,-45,-97,22,-13,-22,-28,-50
45,-40,-47,14,49,-44,-97,22,-13,-22,-28,-50
46,-40,-47,13,49,-44,-97,22,-13,-22,-28,-50
46,-40,-47,13,49,-44,-97,22,-13,-22,-28,-50
46,-39,-47,12,49,-44,-97,22,-13,-22,-28,-50
46,-39,-47,12,49,-44,-97,22,-13,-22,-28,-50
46,-40,-47,13,49,-44,-97,22,-13,-22,-28,-50
45,-41,-47,15,49,-44,-97,22,-13,-22,-28,-51
43,-41,-47,16,48,-45,-97,22,-13,-22,-28,-53
42,-42,-47,18,48,-45,-97,22,-13,-22,-28,-54
41,-43,-47,20,48,-46,-97,22,-13,-21,-28,-55
40,-44,-48,21,48,-46,-97,22,-13,-20,-28,-55
40,-45,-48,23,48,-47,-97,22,-13,-19,-28,-55
40,-46,-49,23,49,-48,-97,22,-13,-18,-28,-55
40,-47,-49,24,49,-48,-97,22,-13,-17,-28,-55
40,-47,-49,24,49,-48,-97,22,-12,-17,-28,-54
40,-47,-50,25,49,-49,-97,22,-11,-17,-28,-53
40,-47,-50,25,49,-49,-97,22,-9,-17,-28,-51
41,-47,-50,23,50,-48,-96,23,-8,-17,-28,-50
44,-46,-50,21,51,-48,-95,25,-8,-16,-27,-50
46,-45,-51,18,52,-49,-94,26,-8,-15,-25,-50
50,-44,-52,15,54,-49,-93,29,-8,-13,-24,-50
52,-44,-52,13,55,-49,-92,30,-8,-13,-23,-50
52,-43,-52,13,55,-49,-92,31,-8,-13,-23,-50
53,-43,-52,12,55,-49,-91,31,-8,-12,-22,-50
53,-43,-52,12,55,-49,-91,31,-8,-12,-22,-50
52,-43,-52,13,55,-48,-92,31,-8,-12,-23,-50
51,-43,-51,13,54,-48,-93,31,-8,-12,-24,-50
50,-43,-51,14,53,-48,-94,31,-8,-12,-25,-50
48,-43,-50,15,52,-47,-95,31,-8,-12,-27,-50
46,-44,-50,17,51,-47,-96,31,-8,-12,-28,-50
45,-44,-50,18,51,-47,-97,31,-8,-12,-28,-50
43,-45,-50,21,50,-48,-97,31,-8,-12,-28,-50
42,-46,-50,23,50,-48,-97,31,-8,-12,-28,-50
41,-47,-50,24,50,-48,-97,31,-8,-12,-28,-50
40,-47,-50,24,49,-48,-97,31,-8,-11,-27,-50
40,-47,-50,25,49,-49,-97,31,-8,-10,-25,-50
40,-47,-50,25,49,-49,-97,31,-8,-9,-24,-50
41,-47,-50,24,50,-49,-96,31,-7,-8,-23,-50
42,-47,-50,23,50,-49,-95,31,-6,-8,-23,-50
43,-47,-51,23,51,-49,-94,31,-5,-8,-22,-50
45,-47,-52,21,52,-50,-93,31,-4,-8,-22,-50
46,-47,-52,21,53,-50,-92,31,-3,-8,-22,-50
48,-47,-53,19,54,-50,-92,31,-3,-8,-22,-50
50,-47,-54,18,55,-51,-91,31,-2,-8,-22,-50
51,-47,-54,17,56,-51,-91,31,-2,-8,-22,-50
52,-47,-55,17,57,-51,-92,31,-3,-8,-22,-50
52,-47,-55,16,57,-51,-93,31,-4,-8,-22,-50
53,-47,-55,16,57,-52,-94,31,-5,-8,-22,-50
53,-47,-55,16,57,-52,-95,31,-6,-8,-22,-50
52,-47,-55,17,57,-51,-96,31,-7,-7,-22,-50
51,-47,-54,18,56,-51,-97,31,-8,-6,-22,-50
50,-47,-54,18,55,-51,-97,31,-8,-5,-22,-50
48,-47,-53,19,54,-50,-97,31,-8,-4,-22,-50
47,-48,-53,21,54,-51,-97,31,-7,-3,-22,-50
47,-48,-53,21,54,-51,-97,31,-6,-3,-21,-50
46,-49,-54,23,54,-52,-97,31,-5,-3,-20,-50
46,-50,-54,23,55,-52,-97,31,-4,-3,-18,-50
46,-51,-55,24,55,-53,-96,31,-3,-2,-17,-50
46,-51,-55,24,55,-53,-95,31,-3,-1,-17,-50
46,-51,-55,25,55,-53,-94,31,-2,-0,-17,-50
46,-51,-55,25,55,-53,-93,31,-2,1,-17,-50
46,-51,-55,25,55,-53,-92,31,-2,1,-17,-50
46,-51,-55,25,55,-53,-92,31,-2,2,-17,-50
46,-51,-55,25,55,-53,-91,31,-2,2,-17,-50
46,-51,-55,25,55,-53,-91,31,-2,2,-17,-50
46,-51,-55,25,55,-53,-92,31,-2,2,-17,-50
46,-51,-55,25,55,-53,-93,31,-2,2,-17,-50
46,-51,-55,25,55,-53,-94,31,-2,2,-17,-50
46,-51,-55,25,55,-53,-95,31,-2,2,-17,-50
46,-51,-55,25,55,-53,-96,31,-2,2,-17,-50
46,-51,-55,25,55,-53,-97,31,-1,2,-17,-50
46,-51,-55,25,55,-53,-97,31,0,2,-17,-50
46,-51,-55,25,55,-53,-97,31,2,2,-17,-50
47,-51,-55,24,56,-53,-97,31,2,2,-17,-50
48,-51,-56,23,56,-54,-97,31,3,3,-17,-50
50,-51,-56,23,57,-54,-97,31,3,4,-17,-50
51,-51,-57,21,58,-54,-97,31,3,5,-17,-50
52,-51,-57,21,59,-55,-97,31,2,6,-17,-50
52,-51,-57,21,59,-55,-97,31,1,6,-17,-50
53,-51,-57,21,59,-55,-97,31,0,6,-17,-50
53,-51,-57,21,59,-55,-97,31,-1,6,-17,-50
53,-51,-58,21,59,-55,-97,31,-2,6,-17,-50
53,-52,-58,22,60,-56,-97,31,-2,6,-17,-50
53,-53,-59,23,60,-56,-97,31,-2,6,-17,-50
53,-54,-59,23,60,-57,-97,31,-2,6,-17,-50
53,-54,-60,24,61,-58,-97,31,-2,6,-17,-50
53,-55,-60,24,61,-58,-97,31,-2,6,-17,-50
53,-55,-60,25,61,-58,-97,31,-2,6,-17,-50
53,-55,-60,25,61,-58,-97,31,-2,6,-17,-50
53,-55,-60,25,61,-58,-97,31,-2,6,-17,-50
53,-56,-61,26,62,-59,-97,31,-2,6,-18,-50
53,-57,-61,27,62,-59,-97,31,-2,6,-20,-50
53,-58,-62,28,62,-60,-97,31,-2,6,-21,-50
53,-58,-63,28,63,-61,-97,31,-2,6,-22,-50
53,-58,-63,28,63,-61,-97,31,-2,6,-22,-50
53,-59,-63,29,63,-61,-97,31,-2,6,-22,-50
53,-59,-63,29,63,-61,-97,31,-2,6,-22,-50
53,-58,-63,28,63,-61,-96,31,-2,7,-22,-50
53,-58,-62,28,62,-60,-95,31,-1,8,-21,-50
53,-57,-61,27,62,-59,-94,31,0,9,-20,-50
53,-56,-61,26,61,-59,-93,31,2,10,-18,-50
53,-55,-60,25,61,-58,-92,31,2,11,-17,-50
53,-55,-60,25,61,-58,-92,31,3,11,-17,-50
53,-55,-60,25,61,-58,-91,31,3,11,-17,-50
53,-55,-60,25,61,-58,-91,31,3,11,-17,-50
52,-55,-60,26,61,-58,-91,31,2,12,-17,-50
51,-56,-60,27,60,-58,-91,31,1,13,-17,-50
50,-57,-60,29,60,-59,-91,31,0,13,-17,-50
48,-58,-60,31,59,-59,-91,31,-1,15,-17,-50
46,-59,-60,33,59,-59,-91,31,-2,15,-17,-50
45,-60,-60,35,59,-60,-91,31,-2,16,-17,-50
43,-61,-60,37,58,-60,-91,31,-2,16,-17,-50
42,-61,-60,39,58,-60,-91,31,-2,16,-17,-50
42,-61,-60,39,58,-61,-91,31,-2,16,-17,-50
42,-62,-60,39,58,-61,-91,31,-2,16,-17,-50
42,-62,-60,39,58,-61,-91,31,-2,16,-17,-50
42,-62,-60,39,58,-61,-91,31,-2,16,-17,-50
42,-62,-60,39,58,-61,-91,31,-2,16,-17,-50
42,-62,-60,39,58,-61,-92,31,-3,16,-17,-50
-66,10,35,33,-47,25,-75,50,73,110,113,48
-66,10,35,33,-47,25,-75,50,73,110,113,48
-66,10,35,33,-47,25,-75,50,73,110,113,48
-66,10,35,33,-47,25,-75,50,73,110,113,48
-66,10,35,33,-47,25,-75,50,73,105,113,48
-66,10,35,33,-47,25,-64,59,78,105,113,54
-66,7,32,37,-45,22,-64,59,78,105,113,54
-91,-9,32,71,-52,16,-64,59,78,101,113,48
-103,-20,30,92,-54,9,-64,50,73,96,101,48
-134,-43,27,138,-62,-2,-75,31,57,82,84,37
-41,10,25,16,-31,19,-52,68,73,91,101,54
-72,-17,19,67,-37,5,-58,59,51,77,84,42
-72,-24,14,75,-33,-2,-58,50,35,58,72,37
-16,-67,-39,83,24,-50,-75,40,-19,-13,-23,-27
34,-93,-79,79,69,-85,-75,40,-62,-50,-70,-56
46,-101,-89,79,81,-94,-75,40,-78,-69,-88,-61
46,-117,-100,96,88,-107,-80,31,-95,-83,-100,-73
53,-117,-103,92,92,-108,-80,31,-100,-88,-106,-73
53,-124,-108,100,96,-115,-80,31,-111,-97,-117,-79
53,-132,-113,109,100,-121,-75,40,-116,-107,-123,-79
46,-147,-121,130,104,-132,-75,40,-127,-116,-135,-85
46,-159,-129,142,110,-141,-80,31,-149,-135,-153,-96
65,-167,-142,138,126,-152,-86,31,-165,-149,-165,-102
90,-174,-158,130,145,-165,-86,40,-176,-159,-177,-113
102,-174,-164,121,153,-168,-75,68,-176,-159,-182,-119
102,-182,-169,130,157,-174,-69,77,-176,-163,-194,-125
96,-201,-179,155,163,-188,-64,96,-186,-173,-206,-137
84,-213,-182,176,161,-195,-64,96,-192,-182,-218,-142
102,-217,-193,167,175,-203,-69,96,-203,-192,-230,-154
102,-224,-198,176,178,-209,-69,96,-203,-192,-236,-154
102,-236,-206,188,184,-218,-69,96,-213,-201,-242,-160
109,-240,-211,188,190,-223,-69,96,-219,-206,-247,-165
134,-247,-227,180,210,-235,-75,87,-235,-220,-259,-177
146,-247,-232,171,218,-239,-80,87,-251,-229,-271,-183
146,-251,-235,176,220,-242,-80,87,-262,-229,-271,-183
152,-255,-240,176,225,-246,-80,87,-267,-234,-277,-189
152,-270,-251,192,233,-259,-86,87,-273,-244,-289,-206
152,-282,-259,205,239,-268,-86,87,-278,-248,-295,-217
140,-297,-264,230,239,-278,-86,96,-284,-253,-307,-223
140,-297,-264,230,239,-278,-75,124,-284,-253,-313,-229
171,-294,-275,205,257,-283,-69,133,-284,-253,-313,-229
177,-294,-277,201,261,-284,-69,133,-284,-253,-313,-235
177,-293,-277,200,260,-283,-69,130,-276,-242,-308,-238
175,-291,-275,199,258,-282,-69,123,-272,-236,-304,-240
174,-290,-273,199,257,-280,-69,114,-270,-232,-300,-240
172,-288,-271,197,255,-278,-69,105,-269,-228,-297,-240
171,-285,-269,195,252,-275,-72,90,-266,-224,-294,-239
169,-280,-265,192,249,-271,-80,69,-263,-220,-288,-237
168,-276,-261,188,246,-267,-89,44,-259,-215,-283,-234
166,-271,-257,184,242,-263,-98,19,-255,-210,-277,-232
165,-265,-253,178,239,-258,-108,-4,-250,-205,-270,-228
165,-257,-247,170,235,-251,-118,-26,-244,-198,-262,-224
165,-249,-241,161,230,-245,-128,-47,-237,-192,-253,-220
165,-240,-236,151,226,-238,-137,-68,-231,-184,-244,-216
163,-231,-229,142,220,-230,-144,-83,-222,-176,-234,-210
159,-222,-221,135,213,-221,-146,-92,-211,-165,-223,-202
155,-213,-212,127,206,-212,-147,-98,-199,-154,-212,-194
151,-203,-204,120,198,-203,-147,-103,-187,-142,-200,-185
145,-193,-195,113,190,-194,-146,-104,-175,-130,-187,-176
139,-183,-185,105,181,-184,-144,-99,-160,-117,-174,-166
134,-172,-175,98,172,-174,-142,-93,-146,-104,-161,-156
127,-162,-165,91,162,-164,-139,-87,-131,-91,-148,-146
121,-151,-155,83,153,-153,-135,-79,-116,-78,-134,-136
115,-139,-145,75,143,-143,-130,-70,-101,-65,-120,-126
109,-128,-134,67,133,-132,-125,-61,-86,-52,-105,-116
102,-116,-124,58,124,-121,-119,-52,-71,-39,-90,-106
96,-106,-114,51,114,-110,-114,-41,-56,-26,-76,-96
88,-97,-104,46,105,-101,-108,-28,-42,-12,-61,-87
81,-88,-95,41,95,-92,-102,-15,-27,2,-46,-79
73,-79,-85,37,86,-83,-97,-1,-12,16,-31,-70
66,-72,-77,34,78,-75,-92,10,1,28,-18,-62
61,-66,-71,31,72,-69,-89,19,10,36,-7,-54
56,-61,-66,29,66,-64,-86,26,19,44,4,-47
51,-56,-60,27,60,-58,-83,33,27,51,14,-40
47,-52,-56,25,56,-54,-81,39,33,57,22,-34
44,-49,-53,25,53,-51,-80,42,37,60,27,-31
40,-47,-50,25,49,-49,-80,45,40,63,30,-30
37,-45,-47,25,46,-46,-80,47,43,65,33,-28
35,-44,-45,24,44,-44,-80,49,45,68,36,-27
34,-43,-44,23,43,-43,-80,49,47,70,38,-25
34,-41,-43,23,42,-42,-80,50,49,72,39,-24
34,-40,-42,21,42,-41,-80,50,50,75,41,-22
34,-39,-42,21,41,-41,-80,50,51,77,42,-21
34,-38,-41,19,41,-40,-80,50,51,78,42,-21
34,-38,-40,18,41,-39,-80,50,51,79,42,-21
34,-37,-40,17,40,-38,-80,50,51,81,42,-21
35,-36,-39,16,40,-38,-80,51,52,82,43,-20
36,-35,-39,14,40,-37,-80,52,53,83,44,-19
37,-34,-39,12,41,-37,-80,54,54,84,45,-18
39,-33,-39,10,41,-36,-80,57,55,85,47,-16
40,-32,-39,9,41,-36,-80,58,56,86,48,-16
40,-32,-39,8,41,-36,-80,58,56,86,50,-15
40,-32,-39,8,41,-36,-80,59,57,87,51,-15
40,-32,-39,8,41,-36,-80,59,57,87,53,-15
40,-32,-39,8,41,-36,-80,59,57,87,54,-15
40,-32,-39,8,41,-36,-80,59,57,87,54,-15
40,-32,-39,8,41,-36,-80,59,57,87,54,-15
40,-32,-39,8,41,-36,-80,59,57,87,54,-15
40,-32,-39,8,41,-36,-80,59,57,87,54,-15
38,-32,-38,9,40,-35,-80,59,57,88,54,-15
37,-32,-38,10,40,-35,-80,59,57,89,54,-15
35,-32,-37,11,39,-35,-80,59,57,90,54,-15
35,-32,-37,12,38,-35,-80,59,57,91,55,-14
34,-32,-36,12,38,-34,-80,59,58,92,56,-13
34,-32,-36,12,38,-34,-80,59,59,94,57,-12
34,-32,-36,12,38,-34,-80,59,61,95,59,-11
35,-31,-36,11,38,-34,-80,60,62,96,59,-9
36,-30,-36,8,38,-33,-80,62,62,97,60,-8
37,-28,-35,6,38,-32,-80,63,62,98,60,-6
39,-26,-34,3,38,-31,-80,66,62,100,60,-5
40,-24,-34,0,38,-30,-80,67,63,100,61,-4
42,-23,-34,-3,38,-29,-80,68,64,100,62,-4
43,-22,-34,-5,39,-29,-80,68,65,101,63,-3
45,-21,-34,-7,39,-28,-80,68,66,101,64,-3
46,-21,-34,-8,39,-28,-81,68,67,101,65,-3
46,-20,-34,-8,39,-28,-82,68,67,101,66,-3
46,-20,-34,-9,40,-28,-83,68,68,101,66,-3
46,-20,-34,-9,40,-28,-84,68,68,101,66,-3
46,-20,-33,-9,39,-28,-85,68,68,101,67,-3
46,-19,-33,-10,39,-27,-85,68,68,102,68,-2
46,-18,-32,-11,39,-27,-86,68,68,103,69,-1
46,-17,-32,-12,38,-26,-86,68,68,104,70,1
46,-17,-31,-12,37,-25,-86,69,68,105,71,2
45,-17,-30,-12,36,-25,-86,71,69,105,72,3
43,-16,-30,-11,36,-24,-86,73,70,105,72,5
42,-16,-29,-10,35,-24,-86,75,72,105,72,6
41,-16,-28,-10,34,-23,-86,76,72,106,72,7
40,-15,-28,-10,33,-22,-86,77,73,107,74,8
40,-14,-27,-11,33,-22,-86,77,73,108,75,8
40,-13,-26,-12,32,-21,-86,77,73,109,76,8
41,-13,-26,-13,32,-20,-86,77,73,110,78,8
42,-12,-26,-16,32,-20,-86,77,75,111,79,10
43,-11,-26,-17,33,-19,-86,77,76,113,81,11
45,-10,-26,-19,33,-19,-86,77,77,114,82,12
46,-8,-25,-22,33,-18,-86,78,78,115,84,14
48,-7,-25,-25,33,-17,-86,80,80,116,85,15
50,-5,-24,-28,34,-16,-86,82,81,117,87,16
51,-3,-24,-31,34,-15,-86,84,82,118,88,18
52,-1,-23,-34,33,-14,-86,86,84,120,90,19
52,2,-21,-37,32,-11,-86,86,85,121,91,21
53,5,-19,-40,31,-9,-86,87,86,122,93,22
53,8,-17,-43,29,-7,-86,87,88,123,94,24
52,10,-15,-45,28,-5,-86,87,89,125,96,25
51,11,-14,-46,26,-4,-86,87,90,127,97,27
50,12,-13,-47,25,-2,-86,87,92,129,98,28
48,13,-11,-47,23,-1,-86,87,93,131,100,29
47,14,-10,-47,22,-0,-86,88,95,133,102,31
47,15,-9,-48,22,1,-86,89,98,135,105,32
46,16,-9,-49,21,2,-86,91,100,136,107,34
46,17,-8,-49,20,2,-86,94,103,137,110,35
47,18,-7,-52,20,3,-86,96,105,138,113,37
48,20,-7,-54,20,4,-87,98,106,140,114,38
50,22,-6,-57,20,5,-88,101,108,141,116,40
51,24,-5,-60,20,7,-90,103,109,142,118,41
53,26,-4,-64,20,8,-91,104,111,144,119,42
54,29,-3,-67,19,10,-91,105,114,146,121,44
56,32,-2,-72,19,12,-91,105,116,148,122,45
57,34,-1,-76,18,14,-91,105,119,150,124,47
58,37,1,-79,18,16,-92,106,121,152,126,48
59,39,2,-82,17,17,-93,108,123,154,128,50
59,41,3,-84,16,19,-94,110,124,155,131,51
59,43,5,-86,15,20,-95,112,126,156,134,53
59,45,6,-88,14,22,-96,114,127,158,136,55
59,47,7,-91,13,24,-97,114,130,160,138,57
59,49,9,-93,12,25,-97,114,132,162,140,60
59,51,10,-95,11,27,-97,114,135,164,141,63
60,53,11,-98,11,28,-97,116,138,167,144,66
62,56,12,-103,11,30,-97,120,140,169,148,68
65,58,13,-107,11,31,-97,124,143,171,152,71
68,61,13,-113,12,33,-97,128,146,174,156,74
70,64,14,-117,12,35,-96,133,149,176,160,77
71,67,16,-121,10,37,-95,138,151,177,162,78
71,70,18,-124,9,39,-94,142,154,179,164,80
71,73,20,-127,8,42,-93,147,157,180,165,81
72,75,21,-131,7,43,-92,152,159,181,166,83
75,78,22,-135,7,44,-92,156,160,182,168,84
78,80,22,-139,8,46,-91,161,162,183,169,86
81,82,22,-143,9,46,-91,165,163,184,171,87
83,83,22,-146,10,47,-91,169,165,185,172,88
85,84,22,-149,11,47,-90,172,166,185,172,88
87,85,22,-151,11,48,-88,175,167,186,172,89
88,86,22,-153,12,48,-87,177,169,186,172,89
90,87,22,-155,12,48,-86,180,170,186,172,89
92,87,21,-156,13,48,-84,184,170,186,172,89
93,87,21,-158,14,48,-83,189,170,186,172,89
95,87,20,-159,15,47,-82,193,170,186,172,89
96,87,19,-160,16,47,-81,197,170,186,172,89
98,87,19,-161,17,47,-80,200,170,186,172,89
99,87,18,-162,18,46,-80,203,170,186,172,89
101,87,17,-163,19,46,-80,205,170,186,172,89
102,87,17,-163,20,46,-80,206,170,186,172,89
102,87,17,-164,20,46,-80,207,170,186,172,89
102,87,17,-164,20,46,-80,207,170,186,172,89
102,87,17,-164,20,46,-80,207,170,186,172,89
102,87,17,-164,20,46,-80,207,170,186,172,89
102,87,17,-164,20,46,-80,207,170,186,172,89
102,87,17,-164,20,46,-80,207,170,186,172,89
121,80,3,-168,36,35,-108,179,149,162,149,77
121,80,3,-168,36,35,-108,179,149,162,149,77
121,80,3,-168,36,35,-108,179,149,162,149,77
121,80,3,-168,36,35,-108,179,149,162,149,77
109,72,3,-151,32,31,-108,179,149,157,149,77
102,68,3,-143,30,30,-114,170,149,157,149,77
102,68,3,-143,30,30,-119,161,143,153,143,77
102,60,-2,-135,34,24,-131,152,132,143,131,66
102,57,-5,-130,36,20,-131,133,122,134,125,60
115,53,-13,-135,45,14,-142,124,111,129,119,54
115,53,-13,-135,45,14,-142,124,111,129,119,54
115,49,-15,-130,47,11,-142,124,105,129,113,54
134,49,-23,-143,59,6,-142,124,100,120,107,48
134,49,-23,-143,59,6,-136,124,95,115,107,48
134,37,-31,-130,65,-3,-136,114,89,110,96,42
146,37,-36,-139,73,-6,-136,114,84,101,90,37
146,37,-36,-139,73,-6,-136,114,78,96,84,37
121,22,-36,-105,65,-13,-136,114,73,96,78,31
115,18,-36,-97,63,-14,-136,105,68,87,72,25
115,10,-42,-88,67,-20,-136,105,68,87,72,25
115,18,-36,-97,63,-14,-125,105,68,87,72,25
96,14,-31,-80,53,-13,-125,105,62,82,72,25
109,10,-39,-84,63,-19,-125,105,57,77,66,19
121,7,-47,-88,73,-25,-125,96,51,72,60,14
109,-5,-50,-67,71,-31,-131,96,51,68,54,8
109,-9,-52,-63,73,-35,-131,87,41,63,48,-4
109,-9,-52,-63,73,-35,-131,87,41,63,48,-4
109,-9,-52,-63,73,-35,-131,87,41,63,48,-4
109,-9,-52,-63,73,-35,-131,87,41,63,48,-4
109,-9,-52,-63,73,-35,-131,87,41,63,48,-4
109,-9,-52,-63,73,-35,-131,87,41,63,48,-4
109,-9,-52,-63,73,-35,-131,87,41,63,48,-4
84,-28,-55,-26,67,-44,-108,96,35,54,36,-15
