I,II,III,aVR,aVL,aVF,V1,V2,V3,V4,V5,V6
-164,107,251,40,-237,226,-224,-177,-85,-42,-55,-211
-148,83,215,44,-207,188,-215,-164,-81,-42,-61,-214
-130,52,171,49,-172,142,-200,-146,-72,-41,-64,-215
-128,28,148,61,-157,113,-180,-129,-63,-40,-63,-211
-105,13,112,55,-123,81,-163,-113,-53,-36,-63,-212
-95,-0,91,56,-105,60,-141,-95,-38,-27,-62,-212
-91,-11,78,60,-96,45,-119,-79,-22,-17,-58,-212
-85,-16,68,58,-87,36,-106,-69,-11,-10,-54,-211
-73,-18,55,53,-72,26,-93,-61,-5,-8,-51,-215
-65,-22,44,51,-61,16,-87,-56,1,-2,-48,-212
-59,-29,32,51,-52,5,-80,-50,5,-2,-46,-211
-47,-33,17,46,-36,-8,-73,-46,4,-1,-45,-210
-43,-33,13,44,-32,-11,-66,-42,7,1,-47,-210
-40,-33,10,41,-27,-13,-63,-39,8,2,-47,-207
-40,-38,6,44,-25,-18,-59,-36,10,6,-48,-208
-38,-42,0,45,-21,-24,-59,-36,12,6,-49,-208
-42,-47,0,50,-23,-27,-56,-33,17,7,-49,-207
-42,-51,-4,52,-21,-32,-52,-31,19,7,-49,-207
-42,-53,-6,53,-19,-34,-50,-32,18,5,-49,-210
-40,-54,-8,52,-18,-36,-49,-31,19,5,-48,-209
-40,-54,-9,52,-17,-37,-48,-30,19,5,-47,-208
-39,-55,-10,52,-15,-38,-48,-30,20,6,-46,-207
-36,-55,-12,51,-13,-40,-47,-29,20,6,-46,-207
-34,-56,-15,50,-10,-42,-46,-28,20,6,-46,-206
-34,-58,-17,51,-8,-44,-45,-27,20,5,-46,-206
-33,-59,-19,51,-7,-47,-44,-26,20,4,-47,-206
-32,-61,-22,51,-5,-49,-44,-26,20,3,-48,-206
-31,-61,-22,51,-4,-49,-43,-26,20,3,-48,-206
-30,-59,-22,49,-4,-48,-42,-26,20,3,-48,-206
-30,-57,-20,48,-5,-46,-42,-26,21,4,-47,-206
-32,-55,-16,48,-8,-42,-41,-26,21,4,-47,-206
-32,-54,-15,48,-9,-41,-41,-25,21,5,-46,-205
-32,-53,-15,47,-8,-41,-41,-25,21,5,-46,-205
-31,-53,-15,47,-8,-40,-41,-24,21,4,-45,-204
-30,-53,-16,46,-7,-41,-40,-24,21,4,-45,-204
-30,-53,-17,46,-7,-41,-39,-23,21,3,-46,-204
-29,-54,-18,46,-6,-43,-39,-23,22,2,-47,-203
-29,-54,-19,46,-5,-44,-39,-23,22,2,-47,-203
-28,-55,-20,46,-4,-45,-39,-23,22,1,-48,-203
-28,-54,-20,45,-4,-44,-39,-23,22,1,-49,-203
-29,-53,-18,45,-5,-42,-38,-23,23,1,-49,-203
-29,-53,-17,45,-6,-42,-36,-23,24,0,-48,-203
-28,-53,-18,45,-5,-42,-35,-22,24,-0,-48,-203
-28,-53,-19,44,-4,-43,-34,-22,24,-1,-47,-202
-27,-53,-19,44,-4,-43,-34,-22,24,-2,-47,-202
-26,-53,-21,44,-2,-44,-33,-22,24,-2,-47,-201
-25,-53,-21,43,-2,-44,-32,-22,24,-3,-47,-201
-25,-53,-21,43,-2,-44,-32,-22,25,-3,-47,-200
-25,-53,-22,43,-1,-45,-31,-22,25,-3,-48,-200
-24,-52,-22,42,-0,-44,-31,-22,25,-4,-49,-200
-23,-51,-21,41,-0,-43,-30,-21,25,-5,-49,-200
-23,-50,-21,41,-0,-43,-30,-21,25,-5,-49,-199
-23,-50,-22,40,0,-43,-30,-21,25,-5,-49,-199
-22,-50,-22,40,1,-44,-29,-20,25,-5,-48,-199
-21,-50,-23,40,2,-44,-28,-20,25,-4,-48,-198
-21,-50,-24,39,3,-45,-28,-19,26,-4,-48,-197
-20,-51,-25,39,4,-46,-28,-19,27,-4,-48,-197
-19,-53,-27,40,5,-48,-27,-18,27,-4,-48,-197
-19,-54,-29,40,7,-50,-27,-18,28,-3,-48,-196
-18,-55,-30,40,8,-51,-26,-17,29,-3,-47,-196
-17,-55,-31,39,9,-52,-26,-17,29,-2,-47,-195
-16,-54,-31,38,10,-52,-25,-17,30,-2,-47,-195
-15,-53,-31,38,10,-51,-25,-17,31,-1,-46,-194
-15,-53,-30,38,9,-50,-24,-17,31,-1,-46,-194
-15,-52,-30,37,9,-49,-24,-16,31,-2,-46,-193
-15,-51,-30,36,9,-49,-23,-16,31,-2,-45,-193
-14,-50,-30,35,10,-49,-23,-15,31,-2,-45,-192
-13,-50,-31,35,11,-49,-22,-14,32,-2,-45,-192
-11,-50,-32,33,12,-49,-21,-14,32,-2,-44,-191
-10,-49,-32,32,13,-49,-21,-13,33,-2,-44,-191
-10,-48,-32,32,13,-49,-21,-13,35,-1,-44,-191
-9,-48,-33,32,14,-49,-20,-12,36,-1,-44,-190
-8,-48,-34,31,15,-50,-19,-11,36,-0,-43,-190
-7,-47,-34,30,16,-50,-18,-10,37,0,-43,-190
-6,-47,-34,29,17,-49,-18,-9,38,1,-42,-189
-6,-46,-34,28,17,-49,-17,-9,38,1,-41,-189
-6,-46,-34,28,17,-49,-16,-8,38,1,-41,-188
-5,-45,-34,27,18,-49,-16,-7,39,1,-41,-188
-3,-44,-35,26,19,-49,-15,-6,40,2,-40,-187
-2,-43,-36,25,20,-49,-14,-5,40,3,-40,-187
-0,-41,-35,22,20,-46,-13,-5,41,3,-40,-187
0,-37,-32,20,19,-42,-13,-5,42,4,-41,-187
1,-33,-29,18,18,-39,-12,-4,43,5,-42,-187
2,-32,-29,16,18,-37,-11,-4,44,5,-42,-186
4,-31,-30,15,20,-38,-11,-3,44,6,-41,-186
5,-31,-31,14,21,-38,-10,-2,43,6,-40,-185
6,-31,-32,13,22,-39,-9,-1,43,6,-40,-185
6,-29,-31,13,22,-38,-8,1,44,6,-39,-184
8,-27,-30,11,22,-36,-7,1,45,7,-39,-184
8,-27,-31,10,23,-36,-6,2,46,7,-38,-184
9,-26,-31,9,24,-36,-5,2,47,8,-37,-184
10,-24,-30,7,24,-34,-4,3,49,9,-36,-183
12,-23,-31,6,25,-34,-3,4,50,10,-35,-183
13,-22,-32,5,26,-34,-2,5,51,11,-34,-182
14,-22,-32,4,27,-34,-1,6,52,12,-33,-181
17,-20,-33,1,29,-34,-0,7,53,13,-32,-181
19,-20,-35,0,31,-34,0,9,54,14,-31,-180
19,-19,-35,-1,31,-34,2,9,55,16,-31,-180
20,-18,-35,-2,32,-33,3,10,55,17,-30,-179
22,-17,-35,-3,33,-33,4,11,56,18,-29,-179
24,-15,-36,-5,34,-33,5,12,58,19,-28,-178
25,-14,-36,-6,35,-32,6,13,60,20,-27,-178
27,-13,-37,-9,37,-32,7,14,61,22,-26,-177
30,-11,-38,-11,39,-32,8,16,63,23,-25,-177
31,-10,-38,-13,40,-31,9,17,64,24,-24,-176
32,-8,-38,-14,40,-30,10,19,66,26,-22,-176
33,-7,-38,-15,41,-29,12,20,67,27,-21,-175
34,-6,-38,-16,41,-29,13,21,68,28,-20,-175
36,-4,-38,-19,43,-28,14,23,69,29,-19,-174
39,-2,-39,-21,45,-27,15,24,70,29,-18,-174
41,0,-39,-23,45,-26,17,25,71,30,-17,-173
42,1,-39,-25,46,-25,17,26,73,31,-16,-173
43,3,-39,-26,47,-25,18,27,74,32,-16,-172
45,4,-39,-28,48,-23,19,27,75,33,-16,-172
46,6,-38,-30,48,-22,19,28,76,34,-15,-171
47,7,-39,-31,49,-22,20,29,77,35,-14,-170
49,10,-39,-33,50,-20,21,30,79,37,-14,-170
51,12,-38,-35,50,-19,22,31,80,38,-13,-169
52,13,-38,-37,51,-18,23,32,81,39,-11,-168
53,15,-38,-38,52,-17,24,32,82,40,-11,-168
55,16,-38,-40,52,-16,24,33,84,41,-10,-167
56,18,-38,-41,53,-15,25,34,85,42,-9,-167
57,19,-38,-43,54,-14,25,34,86,43,-8,-167
59,22,-37,-46,55,-12,26,35,87,44,-7,-166
60,25,-36,-48,55,-9,26,35,87,44,-6,-166
61,27,-35,-50,54,-8,26,36,87,45,-5,-165
61,28,-35,-50,54,-7,26,36,86,46,-4,-164
61,29,-34,-51,54,-6,26,36,87,47,-4,-163
62,30,-33,-52,54,-5,26,36,88,47,-3,-163
64,32,-33,-54,55,-3,25,35,88,48,-2,-163
65,34,-33,-55,55,-3,25,34,89,48,-2,-163
66,35,-32,-57,56,-2,25,34,89,49,-1,-163
67,38,-31,-58,56,1,25,34,89,49,-1,-162
66,41,-28,-60,53,5,24,34,88,48,-1,-162
66,44,-25,-61,51,9,24,33,88,47,-0,-162
65,47,-21,-63,49,13,24,33,87,47,0,-161
65,49,-20,-63,48,15,24,32,86,47,1,-161
65,50,-19,-64,48,15,24,31,86,47,1,-160
65,50,-19,-64,47,16,24,30,85,47,1,-159
65,52,-17,-65,47,18,23,29,84,47,1,-159
65,52,-17,-65,46,18,22,28,83,47,1,-159
65,52,-17,-65,46,18,21,26,83,47,1,-159
64,52,-16,-65,45,19,20,25,82,47,1,-159
63,52,-15,-64,44,20,18,23,81,46,0,-159
62,52,-14,-63,42,21,17,21,80,46,-1,-159
61,52,-13,-63,42,21,15,19,79,45,-1,-159
60,52,-13,-63,41,21,13,17,77,44,-3,-159
58,51,-11,-61,39,22,11,15,76,44,-5,-159
57,50,-11,-59,38,21,9,13,74,42,-5,-159
55,48,-11,-57,37,20,7,11,73,41,-7,-160
53,47,-10,-56,36,20,5,8,71,39,-8,-161
51,46,-10,-54,34,20,4,6,69,38,-9,-162
49,43,-10,-51,33,18,2,3,67,36,-11,-163
47,42,-9,-50,32,18,0,1,65,34,-12,-164
45,40,-8,-47,30,17,-2,-2,63,32,-14,-166
41,37,-7,-43,27,17,-4,-5,60,30,-16,-167
38,35,-6,-40,25,16,-7,-7,58,27,-18,-168
36,33,-5,-38,23,16,-8,-9,55,24,-19,-169
34,31,-5,-36,22,14,-10,-12,52,21,-21,-170
32,29,-5,-33,21,13,-12,-14,49,19,-23,-172
30,26,-6,-31,20,11,-13,-17,47,16,-26,-173
28,23,-6,-28,19,9,-13,-19,44,14,-29,-174
26,20,-7,-25,19,6,-14,-22,41,12,-31,-174
22,18,-5,-22,15,7,-15,-24,39,10,-33,-175
17,18,-0,-19,10,10,-16,-26,36,7,-35,-175
13,18,4,-17,5,13,-17,-28,34,4,-37,-176
9,19,8,-15,0,16,-19,-29,32,1,-39,-176
4,18,11,-12,-4,17,-20,-31,30,-2,-40,-176
2,15,12,-8,-6,16,-21,-33,28,-4,-42,-177
0,13,11,-6,-7,15,-22,-34,25,-6,-44,-177
-2,11,11,-4,-7,13,-24,-35,24,-7,-46,-178
-3,8,10,-2,-7,11,-24,-37,22,-9,-47,-179
-3,6,8,-1,-6,9,-25,-38,20,-11,-49,-179
-2,5,6,-1,-4,7,-26,-39,18,-12,-50,-179
-2,4,6,-1,-4,6,-27,-41,17,-13,-52,-179
-2,4,6,-1,-4,6,-28,-41,16,-14,-52,-180
-2,4,6,-1,-4,6,-28,-42,16,-14,-52,-180
-2,4,6,-1,-4,6,-29,-42,15,-14,-53,-180
-2,4,6,-1,-4,6,-29,-42,15,-14,-53,-180
-2,4,6,-1,-4,6,-29,-42,15,-14,-53,-180
-2,4,6,-1,-4,6,-29,-42,15,-14,-53,-180
-8,8,14,0,-12,14,-30,-43,12,-19,-56,-181
-15,13,26,3,-24,24,-32,-46,7,-24,-61,-182
-18,14,30,4,-27,28,-33,-47,5,-26,-62,-182
-19,14,31,4,-29,29,-33,-47,5,-26,-63,-182
-19,15,32,4,-29,29,-33,-47,5,-27,-63,-182
-19,15,32,4,-29,29,-33,-47,4,-27,-63,-182
-19,15,32,4,-29,29,-33,-47,4,-27,-63,-182
-19,15,32,4,-29,29,-33,-48,4,-27,-63,-182
-19,15,32,4,-29,29,-33,-48,4,-27,-63,-182
-19,15,32,4,-29,29,-33,-49,4,-27,-63,-182
-19,15,31,3,-28,29,-33,-49,4,-27,-63,-182
-17,15,30,2,-26,28,-33,-49,4,-28,-64,-182
-15,15,28,1,-25,27,-33,-49,4,-29,-65,-182
-13,15,26,0,-22,26,-33,-49,4,-29,-66,-182
-12,15,25,-0,-21,25,-33,-49,4,-30,-67,-182
-12,15,25,-0,-21,25,-33,-49,4,-30,-67,-182
-11,15,24,-1,-20,24,-33,-49,4,-30,-67,-182
-11,15,24,-1,-20,24,-33,-49,4,-30,-67,-182
-11,15,24,-1,-20,24,-33,-49,4,-31,-67,-182
-11,15,24,-1,-20,24,-33,-49,4,-31,-67,-182
-11,15,24,-1,-20,24,-33,-49,3,-32,-67,-182
-11,15,24,-1,-20,24,-33,-49,2,-33,-67,-181
-11,15,24,-1,-20,24,-33,-49,2,-34,-67,-181
-11,15,24,-1,-20,24,-33,-49,2,-34,-67,-181
-11,15,24,-1,-20,24,-33,-49,2,-34,-67,-181
-11,15,24,-1,-20,24,-33,-49,2,-34,-67,-181
-11,15,24,-1,-20,24,-33,-49,2,-34,-67,-181
-11,15,24,-1,-20,24,-33,-49,1,-35,-67,-180
-11,15,24,-1,-20,24,-33,-49,1,-36,-67,-180
-11,15,24,-1,-20,24,-33,-49,0,-37,-67,-180
-11,15,24,-1,-20,24,-33,-50,-1,-37,-67,-180
-11,15,24,-1,-20,24,-33,-50,-1,-37,-67,-179
-11,15,24,-1,-20,24,-33,-50,-2,-37,-67,-179
-11,15,24,-1,-20,24,-33,-51,-3,-37,-67,-179
-11,15,24,-1,-20,24,-33,-51,-3,-37,-67,-179
-11,15,24,-1,-20,24,-33,-51,-3,-37,-67,-179
-11,15,24,-1,-20,24,-33,-51,-3,-37,-67,-179
-11,15,24,-1,-20,24,-33,-51,-3,-37,-67,-178
-11,15,24,-1,-20,24,-33,-52,-4,-38,-67,-178
-11,15,24,-1,-20,24,-32,-52,-4,-38,-68,-177
-11,15,24,-1,-20,24,-31,-52,-5,-39,-69,-177
-11,15,24,-1,-20,24,-30,-53,-5,-40,-70,-177
-12,15,25,-0,-21,25,-29,-53,-6,-41,-71,-176
-14,15,27,0,-23,26,-29,-53,-6,-41,-71,-176
-15,15,28,1,-25,27,-29,-53,-6,-41,-71,-176
-17,15,30,3,-27,28,-29,-53,-6,-41,-71,-176
-19,15,31,3,-28,29,-29,-54,-6,-41,-71,-176
-19,15,32,4,-29,29,-30,-54,-7,-42,-71,-176
-19,15,32,4,-29,29,-31,-54,-7,-43,-71,-176
-19,15,32,4,-29,29,-32,-55,-8,-44,-71,-176
-19,15,32,4,-29,29,-33,-55,-8,-44,-71,-176
-19,15,32,4,-29,29,-33,-56,-9,-45,-72,-176
-19,15,32,4,-29,29,-33,-57,-10,-46,-73,-176
-19,15,32,4,-29,29,-33,-57,-10,-47,-74,-176
-19,14,31,4,-29,28,-33,-57,-11,-48,-75,-176
-19,12,30,5,-28,26,-33,-57,-11,-48,-75,-176
-19,11,28,6,-27,24,-33,-58,-11,-48,-75,-176
-19,8,26,7,-26,22,-33,-58,-11,-48,-75,-175
-19,7,25,8,-25,20,-33,-58,-11,-48,-75,-175
-19,7,25,8,-25,20,-33,-58,-12,-49,-75,-175
-19,6,24,8,-25,19,-33,-59,-12,-50,-75,-175
-19,6,24,8,-25,19,-33,-59,-13,-51,-75,-175
-19,6,24,8,-25,19,-33,-59,-14,-51,-75,-175
-19,6,24,8,-25,19,-33,-59,-14,-51,-75,-174
-19,6,24,8,-25,19,-33,-60,-15,-51,-75,-174
-19,6,24,8,-25,19,-33,-60,-16,-51,-75,-174
-19,6,24,8,-25,19,-33,-60,-16,-52,-75,-173
-19,6,24,8,-25,19,-33,-60,-16,-53,-75,-173
-19,6,24,8,-25,19,-33,-61,-16,-53,-75,-172
-19,6,24,8,-25,19,-33,-61,-16,-54,-75,-172
-19,6,24,9,-24,19,-33,-62,-17,-55,-75,-172
-19,4,22,10,-23,17,-33,-62,-17,-56,-75,-172
-19,2,21,11,-22,15,-33,-63,-18,-57,-75,-172
-19,0,19,12,-22,12,-33,-63,-18,-58,-75,-172
-19,-1,18,13,-21,11,-33,-63,-19,-58,-75,-171
-19,-2,17,13,-21,10,-33,-64,-19,-58,-75,-171
-19,-2,17,13,-20,10,-33,-64,-19,-59,-75,-170
-19,-2,17,13,-20,10,-33,-64,-19,-59,-75,-169
-20,-2,18,13,-21,10,-33,-64,-19,-59,-75,-169
-22,-2,19,14,-23,11,-33,-64,-20,-59,-75,-168
-23,-2,21,15,-25,12,-33,-64,-20,-59,-75,-168
-25,-2,23,16,-27,14,-33,-64,-21,-59,-75,-168
-26,-3,23,18,-28,13,-33,-64,-21,-59,-75,-167
-27,-5,22,19,-27,12,-33,-64,-21,-59,-75,-167
-27,-7,21,20,-27,10,-33,-65,-21,-59,-75,-166
-27,-9,19,21,-26,7,-33,-65,-21,-59,-75,-166
-27,-10,18,22,-25,6,-33,-66,-22,-59,-75,-166
-27,-11,17,22,-25,5,-32,-66,-22,-60,-75,-165
-27,-11,17,22,-25,5,-31,-66,-23,-60,-75,-165
-27,-11,17,22,-25,5,-30,-66,-23,-61,-75,-164
-27,-11,17,22,-25,5,-29,-66,-24,-62,-75,-164
-27,-11,17,22,-25,5,-29,-66,-24,-62,-75,-164
-27,-11,17,22,-25,5,-29,-67,-24,-62,-75,-163
-27,-11,17,22,-25,5,-29,-67,-24,-62,-75,-163
-27,-11,17,22,-25,5,-29,-68,-24,-62,-75,-163
-27,-11,17,22,-25,5,-29,-68,-25,-62,-75,-163
-27,-11,17,22,-25,5,-29,-68,-25,-62,-75,-163
-27,-11,17,22,-25,5,-29,-68,-26,-62,-75,-163
-27,-11,17,22,-25,5,-29,-68,-26,-62,-75,-162
-27,-11,17,22,-25,5,-29,-68,-27,-62,-74,-162
-27,-11,17,22,-25,5,-29,-68,-27,-62,-73,-161
-27,-11,17,22,-25,5,-29,-68,-27,-62,-72,-160
-27,-11,17,22,-25,5,-29,-68,-27,-62,-71,-160
-27,-11,17,22,-25,5,-29,-68,-27,-63,-70,-160
-27,-11,17,22,-25,5,-29,-69,-27,-64,-69,-159
-27,-11,17,22,-25,5,-29,-69,-27,-65,-68,-159
-27,-11,17,22,-25,5,-29,-70,-27,-65,-67,-159
-27,-11,17,22,-25,5,-29,-70,-27,-65,-67,-159
-27,-11,17,22,-25,5,-29,-70,-27,-66,-67,-158
-27,-11,17,22,-25,5,-29,-70,-27,-66,-67,-157
-27,-11,17,22,-25,5,-29,-70,-27,-66,-67,-157
-27,-11,17,22,-25,5,-29,-70,-27,-67,-67,-156
-27,-11,17,22,-25,5,-29,-70,-28,-67,-67,-156
-27,-11,17,22,-25,5,-29,-70,-29,-68,-67,-156
-27,-11,17,22,-25,5,-29,-70,-29,-69,-67,-156
-27,-11,17,22,-25,5,-29,-70,-29,-69,-67,-156
-27,-11,17,22,-25,5,-29,-70,-29,-69,-67,-155
-27,-11,17,22,-25,5,-29,-70,-29,-69,-67,-154
-27,-11,17,22,-25,5,-29,-70,-29,-69,-67,-153
-27,-11,17,22,-25,5,-29,-70,-29,-69,-67,-153
-27,-11,17,22,-25,5,-29,-71,-29,-69,-67,-153
-27,-11,17,22,-25,5,-29,-71,-29,-69,-67,-152
-27,-11,17,22,-25,5,-29,-72,-29,-69,-67,-152
-27,-11,17,22,-25,5,-29,-72,-29,-69,-66,-151
-27,-11,17,22,-25,5,-29,-72,-29,-69,-65,-151
-27,-11,17,22,-25,5,-29,-72,-29,-69,-64,-151
-27,-12,16,23,-24,4,-28,-72,-29,-69,-63,-150
-27,-14,15,24,-23,2,-27,-72,-29,-69,-62,-150
-27,-15,13,25,-22,0,-26,-72,-29,-69,-61,-149
-27,-18,11,25,-22,-3,-25,-72,-29,-69,-60,-149
-27,-19,10,26,-21,-4,-24,-72,-29,-69,-59,-149
-27,-19,10,26,-21,-5,-24,-72,-29,-69,-59,-149
-27,-20,10,27,-20,-5,-24,-72,-29,-69,-59,-149
-27,-20,10,27,-20,-5,-24,-72,-29,-69,-59,-149
-27,-20,10,27,-20,-5,-24,-72,-29,-69,-59,-149
-27,-20,10,27,-20,-5,-24,-72,-29,-69,-59,-149
-26,-21,8,27,-19,-7,-26,-69,-30,-66,-48,-155
-26,-22,6,27,-18,-8,-28,-65,-30,-62,-34,-164
-25,-22,6,27,-17,-9,-29,-64,-30,-61,-29,-167
-25,-22,6,27,-17,-9,-30,-63,-31,-60,-28,-168
-25,-22,6,27,-17,-9,-30,-63,-31,-60,-27,-168
-25,-22,6,27,-17,-9,-30,-63,-31,-60,-27,-168
-25,-21,6,26,-18,-8,-30,-63,-31,-61,-27,-167
-25,-20,7,26,-18,-7,-30,-64,-31,-62,-27,-166
-25,-21,7,26,-18,-8,-31,-64,-31,-63,-27,-166
-25,-22,6,26,-17,-9,-31,-64,-31,-64,-27,-166
-25,-22,6,27,-17,-9,-31,-64,-31,-64,-27,-165
-25,-22,6,27,-17,-9,-31,-64,-31,-65,-27,-165
-25,-22,6,27,-17,-9,-31,-65,-31,-65,-27,-165
-25,-22,6,27,-17,-9,-31,-66,-31,-65,-26,-165
-25,-23,5,27,-17,-10,-31,-66,-31,-65,-26,-165
-25,-24,4,28,-16,-11,-31,-66,-31,-65,-26,-165
-25,-24,4,28,-16,-12,-31,-66,-31,-65,-26,-164
-25,-24,4,28,-16,-12,-30,-66,-32,-65,-26,-163
-25,-22,6,27,-17,-9,-30,-66,-32,-65,-26,-163
-25,-21,7,26,-18,-8,-31,-66,-31,-65,-26,-163
-25,-22,5,26,-16,-9,-31,-66,-31,-66,-26,-162
-24,-21,5,25,-16,-9,-31,-66,-32,-66,-27,-162
-23,-20,5,25,-16,-8,-31,-66,-32,-66,-27,-162
-23,-20,6,25,-16,-8,-30,-66,-31,-66,-26,-161
-23,-20,6,25,-16,-8,-29,-66,-32,-65,-26,-161
-24,-21,6,25,-16,-8,-28,-66,-32,-65,-26,-160
-25,-22,6,26,-17,-9,-27,-66,-32,-65,-26,-160
-25,-22,6,27,-17,-9,-27,-66,-32,-65,-26,-160
-25,-23,4,27,-16,-11,-26,-66,-33,-66,-26,-160
-24,-24,3,27,-15,-12,-26,-65,-32,-66,-26,-159
-23,-24,2,27,-14,-13,-26,-65,-32,-66,-25,-159
-23,-24,2,27,-14,-13,-26,-65,-33,-66,-25,-159
-23,-24,2,27,-14,-13,-26,-65,-33,-66,-24,-159
-23,-24,2,27,-14,-13,-26,-65,-33,-66,-23,-158
-23,-25,1,27,-13,-14,-26,-65,-34,-66,-22,-158
-23,-27,-0,28,-12,-16,-25,-65,-35,-66,-22,-157
-23,-28,-2,29,-12,-17,-23,-65,-35,-66,-22,-156
-23,-29,-2,29,-11,-18,-22,-65,-36,-66,-22,-156
-23,-29,-2,29,-11,-18,-21,-65,-36,-66,-22,-155
-23,-30,-3,30,-11,-19,-21,-65,-35,-66,-22,-155
-23,-32,-5,31,-10,-22,-21,-65,-35,-66,-22,-154
-23,-32,-5,32,-10,-22,-21,-65,-35,-66,-22,-154
-23,-33,-6,32,-9,-23,-21,-65,-34,-66,-21,-154
-23,-33,-6,32,-9,-23,-21,-65,-34,-66,-21,-154
-23,-33,-6,32,-9,-23,-21,-66,-35,-66,-21,-154
-23,-33,-6,32,-9,-23,-20,-67,-35,-66,-21,-154
-23,-33,-6,32,-9,-23,-20,-67,-36,-66,-21,-153
-23,-33,-6,32,-9,-23,-20,-67,-36,-65,-21,-153
-23,-33,-6,32,-9,-23,-20,-67,-36,-65,-21,-152
-23,-33,-6,32,-9,-23,-21,-67,-35,-64,-21,-152
-23,-33,-6,31,-8,-23,-21,-67,-35,-63,-21,-152
-22,-33,-7,31,-7,-24,-21,-67,-36,-63,-21,-152
-22,-33,-7,31,-8,-24,-21,-67,-36,-64,-22,-152
-23,-33,-6,32,-9,-23,-21,-67,-35,-64,-22,-152
-23,-33,-6,32,-9,-23,-20,-67,-35,-64,-22,-152
-23,-33,-6,32,-9,-23,-19,-67,-36,-64,-22,-151
-23,-33,-6,32,-9,-23,-18,-67,-36,-64,-21,-150
-23,-33,-6,32,-9,-23,-16,-67,-36,-64,-21,-150
-23,-33,-6,32,-9,-23,-15,-67,-36,-63,-21,-149
-23,-33,-6,32,-9,-23,-15,-67,-36,-63,-21,-149
-23,-33,-6,32,-9,-23,-15,-67,-36,-62,-21,-148
-23,-33,-6,32,-9,-23,-15,-67,-36,-61,-21,-148
-23,-33,-6,32,-9,-23,-15,-67,-35,-61,-21,-148
-23,-33,-6,31,-8,-23,-15,-68,-35,-60,-21,-148
-22,-33,-7,31,-7,-24,-15,-68,-35,-60,-21,-148
-22,-33,-7,31,-8,-24,-16,-68,-36,-60,-22,-148
-23,-34,-7,32,-8,-24,-15,-68,-36,-60,-22,-147
-23,-36,-8,33,-8,-26,-14,-68,-36,-59,-23,-147
-23,-37,-10,34,-7,-28,-12,-68,-36,-58,-24,-146
-23,-40,-11,35,-6,-30,-11,-68,-35,-57,-25,-146
-23,-41,-13,35,-4,-32,-10,-68,-35,-56,-26,-145
-22,-41,-14,35,-4,-33,-8,-68,-34,-56,-27,-145
-23,-42,-14,36,-4,-33,-6,-68,-34,-56,-28,-146
-23,-42,-13,36,-5,-33,-4,-68,-34,-56,-29,-146
-22,-42,-14,36,-4,-34,-1,-68,-34,-56,-29,-145
-22,-42,-14,36,-4,-34,0,-68,-35,-57,-30,-145
-23,-43,-15,37,-4,-35,2,-68,-35,-57,-30,-144
-22,-43,-16,36,-2,-36,3,-68,-35,-57,-30,-143
-21,-42,-16,35,-3,-35,4,-69,-35,-56,-30,-143
-23,-42,-14,36,-4,-33,5,-69,-35,-56,-31,-142
-23,-42,-14,36,-4,-33,5,-69,-34,-55,-31,-142
-22,-42,-15,35,-3,-34,5,-70,-34,-54,-31,-142
-23,-42,-14,36,-4,-33,5,-71,-34,-54,-32,-142
-23,-42,-13,36,-5,-33,5,-71,-34,-53,-32,-142
-22,-42,-14,36,-4,-34,5,-71,-34,-54,-32,-142
-22,-42,-15,35,-3,-34,5,-71,-34,-54,-33,-141
-21,-40,-14,34,-4,-33,5,-71,-34,-54,-33,-141
-21,-38,-12,33,-5,-30,6,-71,-34,-54,-33,-140
-21,-35,-9,32,-6,-26,7,-71,-34,-53,-33,-140
-21,-31,-6,30,-8,-22,8,-71,-34,-53,-33,-140
-21,-29,-5,29,-9,-20,9,-71,-34,-54,-33,-139
-21,-29,-5,29,-9,-20,9,-71,-34,-54,-33,-139
-21,-30,-5,29,-8,-21,10,-71,-34,-54,-34,-139
-21,-31,-6,29,-8,-22,10,-71,-33,-54,-34,-139
-21,-31,-6,29,-8,-22,10,-71,-33,-54,-35,-138
-21,-32,-6,30,-8,-23,10,-71,-33,-54,-36,-138
-21,-33,-8,31,-7,-25,10,-71,-33,-54,-38,-137
-21,-35,-10,32,-6,-27,10,-71,-33,-54,-40,-136
-21,-36,-11,32,-5,-28,11,-71,-33,-54,-42,-135
-21,-36,-10,32,-6,-27,11,-71,-33,-54,-43,-135
-21,-36,-10,32,-6,-28,11,-71,-33,-54,-45,-135
-21,-38,-12,33,-4,-30,11,-71,-33,-54,-46,-134
-21,-39,-13,34,-4,-31,11,-71,-33,-54,-47,-133
-21,-40,-13,34,-4,-32,11,-71,-33,-55,-48,-133
-21,-39,-13,33,-4,-31,11,-71,-33,-55,-48,-132
-21,-38,-12,33,-5,-30,11,-72,-32,-55,-48,-131
-21,-37,-11,33,-5,-29,11,-72,-32,-55,-48,-131
-21,-37,-11,33,-5,-29,11,-72,-33,-55,-48,-130
-21,-37,-11,33,-5,-29,11,-72,-33,-55,-48,-129
-21,-36,-11,32,-5,-28,11,-72,-33,-55,-48,-129
-21,-36,-11,32,-5,-28,11,-72,-33,-55,-49,-128
-20,-35,-11,31,-4,-28,11,-72,-32,-54,-51,-128
-20,-36,-11,32,-4,-28,11,-72,-32,-54,-53,-127
-21,-37,-11,32,-5,-29,11,-72,-32,-54,-56,-127
-20,-36,-11,31,-4,-28,10,-72,-32,-55,-57,-126
-19,-36,-12,31,-4,-29,10,-72,-33,-55,-58,-126
-21,-38,-13,32,-4,-30,10,-72,-33,-55,-59,-125
-21,-37,-11,32,-5,-29,10,-72,-33,-55,-59,-124
-21,-35,-10,31,-5,-27,11,-72,-33,-55,-59,-123
-19,-33,-10,29,-4,-26,12,-72,-33,-55,-60,-123
-17,-31,-10,27,-4,-24,13,-72,-33,-55,-62,-122
-15,-28,-10,24,-2,-22,14,-72,-32,-55,-63,-122
-13,-25,-10,21,-1,-21,15,-72,-32,-54,-63,-122
-12,-25,-10,21,-0,-22,15,-72,-31,-54,-64,-121
-11,-26,-11,21,0,-22,15,-71,-31,-54,-64,-120
-11,-25,-11,21,0,-22,15,-71,-30,-54,-64,-120
-11,-23,-10,19,0,-20,16,-70,-29,-53,-63,-119
-9,-18,-6,15,-1,-15,18,-70,-29,-52,-62,-118
-8,-13,-3,12,-2,-10,21,-69,-28,-50,-61,-117
-8,-9,0,10,-4,-5,23,-69,-27,-48,-59,-116
-6,-4,2,6,-4,-2,24,-69,-27,-47,-58,-115
-2,-1,2,2,-2,1,24,-68,-26,-46,-56,-115
0,1,2,0,-0,2,25,-68,-24,-46,-55,-114
2,2,-0,-2,2,1,25,-68,-23,-46,-54,-113
4,2,-2,-3,4,0,24,-68,-23,-45,-53,-112
7,3,-3,-5,6,-1,24,-68,-23,-44,-53,-111
10,3,-7,-7,10,-3,23,-67,-22,-44,-53,-109
16,3,-12,-10,16,-7,22,-67,-22,-42,-52,-108
23,4,-18,-15,24,-10,21,-67,-21,-41,-51,-107
29,5,-24,-19,30,-13,20,-67,-21,-40,-51,-106
36,7,-28,-24,36,-15,18,-67,-20,-39,-49,-105
41,10,-30,-29,40,-14,16,-67,-19,-38,-48,-104
44,15,-29,-33,41,-10,13,-68,-19,-37,-47,-103
46,22,-25,-38,41,-5,10,-69,-19,-37,-46,-102
49,27,-24,-42,41,-1,7,-71,-20,-37,-45,-101
51,29,-23,-44,42,1,4,-72,-21,-38,-45,-100
51,28,-25,-44,43,-1,3,-73,-22,-39,-45,-99
51,23,-29,-41,45,-6,2,-74,-24,-41,-46,-99
50,18,-32,-38,46,-11,2,-75,-26,-43,-48,-99
48,14,-34,-35,47,-15,2,-76,-28,-45,-49,-99
46,9,-36,-31,47,-19,3,-76,-28,-46,-50,-100
43,4,-38,-27,46,-23,4,-77,-29,-47,-51,-100
42,0,-40,-24,46,-26,4,-77,-30,-49,-52,-100
40,-5,-42,-20,47,-31,3,-78,-32,-50,-54,-99
37,-9,-43,-16,46,-34,3,-79,-33,-52,-55,-99
33,-11,-40,-13,42,-33,3,-80,-34,-54,-56,-98
28,-11,-37,-10,37,-31,3,-80,-35,-55,-56,-98
24,-13,-33,-6,33,-30,3,-80,-35,-56,-57,-98
21,-14,-31,-4,30,-29,3,-81,-36,-57,-57,-97
17,-15,-30,-1,27,-29,4,-81,-36,-58,-58,-97
14,-18,-29,2,25,-30,5,-81,-36,-59,-60,-97
10,-22,-29,6,22,-32,7,-80,-36,-59,-62,-97
5,-25,-26,11,19,-32,9,-80,-36,-59,-63,-97
1,-26,-23,14,14,-30,11,-80,-35,-59,-64,-97
-4,-27,-19,17,9,-28,14,-79,-36,-59,-64,-97
-11,-29,-14,22,2,-26,17,-79,-36,-59,-65,-98
-17,-31,-10,27,-4,-24,18,-79,-35,-60,-65,-98
-20,-32,-8,29,-6,-24,20,-79,-35,-60,-65,-98
-22,-33,-8,31,-7,-24,20,-79,-36,-61,-66,-98
-23,-35,-7,32,-8,-25,20,-79,-36,-61,-67,-98
-25,-36,-7,34,-9,-25,20,-79,-36,-62,-67,-98
-25,-37,-8,35,-9,-26,20,-79,-36,-62,-68,-98
-25,-39,-9,36,-9,-28,20,-80,-36,-63,-69,-98
-25,-41,-11,37,-7,-31,20,-80,-37,-63,-70,-97
-23,-41,-13,36,-5,-33,20,-81,-38,-63,-70,-97
-22,-41,-14,35,-4,-33,19,-81,-38,-63,-71,-96
-22,-40,-13,35,-4,-32,19,-81,-38,-63,-71,-96
-23,-39,-11,35,-6,-30,20,-81,-38,-62,-70,-95
-23,-38,-10,34,-7,-28,20,-82,-38,-62,-70,-95
-24,-38,-10,35,-7,-28,20,-82,-38,-62,-70,-94
-25,-39,-10,36,-8,-29,20,-82,-38,-62,-70,-94
-25,-40,-10,36,-8,-29,20,-82,-38,-63,-71,-94
-26,-40,-9,37,-9,-29,20,-83,-37,-63,-72,-93
-27,-40,-8,37,-10,-28,20,-83,-36,-64,-71,-93
-28,-39,-6,37,-11,-27,20,-83,-36,-64,-71,-93
-29,-38,-4,38,-14,-25,20,-83,-36,-64,-72,-92
-31,-37,-2,38,-16,-23,21,-83,-36,-63,-71,-91
-32,-37,-1,39,-17,-22,21,-83,-36,-62,-70,-91
-34,-36,1,39,-19,-20,22,-82,-36,-62,-70,-91
-35,-36,3,39,-21,-19,24,-81,-35,-62,-70,-91
-36,-36,4,40,-22,-18,27,-81,-34,-62,-70,-90
-28,-40,-8,38,-11,-28,29,-79,-33,-62,-71,-94
-28,-44,-11,40,-8,-33,31,-78,-33,-64,-74,-92
-30,-51,-15,45,-7,-39,36,-75,-31,-65,-76,-92
-30,-58,-21,48,-4,-47,40,-72,-33,-67,-78,-93
-26,-71,-36,53,7,-64,49,-67,-31,-67,-82,-94
-32,-71,-30,57,0,-61,60,-62,-25,-66,-82,-92
-24,-71,-38,52,9,-66,70,-53,-16,-59,-80,-92
-12,-71,-49,45,22,-73,78,-41,-3,-50,-75,-92
2,-68,-61,36,37,-79,95,-27,14,-38,-67,-90
16,-55,-63,20,45,-73,114,-7,34,-18,-57,-88
42,-42,-76,-1,67,-74,128,13,57,2,-41,-88
79,-27,-99,-32,102,-81,133,24,83,29,-18,-80
117,2,-110,-69,129,-72,127,25,97,58,12,-72
154,41,-112,-112,151,-51,113,20,110,87,41,-64
194,79,-118,-154,176,-33,103,12,120,119,71,-55
211,118,-101,-186,176,1,74,-14,117,139,103,-42
241,164,-89,-228,186,35,36,-41,104,156,128,-33
255,226,-49,-268,171,96,-13,-76,93,170,153,-24
265,256,-32,-290,167,125,-59,-111,75,175,168,-18
241,276,8,-287,130,162,-95,-145,51,169,173,-14
213,276,34,-271,99,180,-117,-169,28,151,166,-15
178,245,42,-234,75,167,-127,-182,14,120,143,-20
152,219,44,-204,59,153,-127,-192,-16,80,113,-25
126,212,63,-186,34,162,-123,-200,-42,45,85,-30
81,208,103,-157,-14,186,-120,-211,-72,7,59,-36
32,199,143,-123,-65,207,-120,-225,-107,-37,25,-41
-22,188,184,-86,-119,228,-120,-235,-137,-70,-0,-48
-77,188,238,-54,-181,263,-117,-241,-158,-95,-22,-57
-126,180,278,-20,-231,285,-120,-244,-167,-119,-55,-66
-154,153,281,10,-249,272,-124,-241,-169,-128,-72,-75
-156,136,268,20,-242,253,-133,-237,-165,-128,-82,-82
-156,125,259,26,-237,241,-140,-230,-155,-127,-88,-85
-156,109,245,34,-229,223,-131,-221,-146,-127,-90,-87
-138,79,202,40,-194,177,-126,-206,-137,-126,-93,-88
-121,54,163,42,-162,138,-106,-188,-125,-125,-96,-89
-113,39,143,46,-145,116,-84,-170,-113,-120,-92,-85
-103,26,122,47,-128,95,-66,-153,-101,-112,-91,-85
-91,6,93,51,-104,65,-44,-136,-87,-102,-91,-85
-85,2,84,49,-96,56,-27,-123,-71,-95,-87,-84
-81,-0,78,48,-90,51,-14,-114,-62,-85,-79,-84
-65,-5,59,41,-70,36,-3,-107,-57,-80,-76,-87
-59,-11,48,41,-60,25,4,-102,-50,-76,-74,-84
-55,-25,32,46,-49,7,15,-97,-46,-75,-73,-82
-43,-25,21,39,-36,-1,22,-91,-42,-73,-71,-82
-40,-25,17,37,-32,-3,26,-88,-42,-72,-71,-82
-47,-29,21,44,-38,-3,29,-85,-39,-72,-72,-79
-45,-25,23,40,-38,1,34,-83,-38,-72,-73,-79
-42,-29,15,40,-32,-7,38,-80,-35,-70,-73,-80
-42,-33,11,42,-30,-12,41,-78,-31,-70,-73,-79
-42,-36,10,44,-28,-14,43,-77,-29,-66,-73,-79
-40,-36,8,43,-26,-16,47,-76,-28,-65,-72,-78
-40,-37,6,43,-26,-17,49,-76,-27,-65,-70,-77
-39,-37,5,43,-24,-18,50,-75,-27,-65,-68,-77
-36,-37,3,41,-22,-20,51,-74,-27,-65,-67,-76
-34,-38,0,41,-19,-22,52,-73,-27,-65,-67,-76
-34,-40,-2,41,-17,-24,53,-72,-26,-65,-67,-76
-33,-42,-4,42,-15,-27,53,-71,-26,-66,-67,-76
-32,-43,-6,42,-14,-29,54,-71,-25,-67,-68,-76
-31,-43,-7,42,-13,-30,55,-71,-25,-68,-69,-75
-30,-44,-9,41,-11,-31,55,-71,-24,-67,-69,-75
-30,-44,-9,41,-11,-31,56,-71,-24,-67,-68,-75
-32,-44,-7,43,-14,-30,56,-71,-24,-66,-67,-74
-32,-44,-7,43,-14,-30,56,-70,-23,-65,-67,-74
-32,-44,-7,42,-13,-30,57,-70,-23,-65,-66,-73
-31,-44,-8,42,-13,-30,57,-69,-23,-64,-66,-73
-30,-44,-8,42,-12,-31,58,-69,-23,-64,-66,-73
-30,-44,-9,41,-11,-31,58,-69,-23,-64,-66,-73
-29,-45,-10,41,-10,-33,59,-68,-22,-63,-66,-73
-29,-46,-11,42,-10,-34,59,-68,-22,-63,-66,-73
-28,-46,-12,42,-8,-35,59,-68,-22,-63,-66,-73
-28,-45,-12,41,-8,-34,59,-68,-22,-62,-66,-73
-29,-44,-10,41,-10,-32,59,-68,-21,-62,-65,-72
-29,-44,-10,41,-11,-32,59,-68,-20,-61,-65,-72
-28,-44,-11,40,-9,-32,59,-67,-20,-61,-64,-71
-28,-45,-12,40,-8,-34,60,-67,-20,-61,-64,-71
-27,-47,-14,41,-7,-36,60,-66,-20,-61,-64,-70
-26,-48,-17,41,-4,-39,60,-66,-20,-60,-64,-69
-25,-50,-19,42,-3,-42,61,-65,-20,-60,-64,-69
-25,-52,-20,43,-2,-43,62,-65,-19,-59,-63,-69
-25,-52,-21,43,-1,-44,63,-65,-18,-59,-63,-69
-24,-52,-22,42,-0,-44,65,-65,-18,-59,-63,-69
-23,-51,-21,41,-0,-43,66,-64,-17,-59,-62,-69
-23,-50,-21,41,-0,-43,67,-64,-17,-58,-62,-69
-23,-50,-22,40,0,-43,68,-64,-17,-58,-61,-69
-22,-50,-22,40,1,-44,68,-63,-17,-58,-61,-68
-21,-50,-23,40,2,-44,69,-63,-16,-57,-61,-68
-21,-50,-23,39,2,-44,70,-62,-15,-57,-61,-67
-20,-49,-23,38,3,-43,70,-62,-14,-56,-61,-67
-19,-48,-23,38,3,-43,70,-61,-13,-55,-60,-66
-19,-47,-23,37,3,-42,71,-61,-11,-53,-60,-66
-18,-47,-23,36,4,-42,71,-60,-11,-52,-60,-66
-17,-46,-23,35,4,-42,72,-60,-10,-52,-59,-65
-16,-45,-24,34,5,-42,72,-59,-9,-51,-59,-65
-15,-44,-23,33,5,-41,73,-59,-8,-51,-59,-64
-15,-44,-23,33,5,-40,73,-58,-8,-50,-58,-64
-15,-43,-22,32,4,-39,74,-57,-7,-50,-58,-63
-15,-42,-22,32,5,-39,75,-57,-7,-50,-58,-63
-14,-42,-22,31,6,-39,75,-56,-6,-49,-57,-63
-13,-42,-23,30,7,-39,76,-55,-5,-49,-57,-63
-11,-41,-24,29,8,-39,76,-55,-4,-49,-57,-63
-10,-40,-24,28,9,-39,77,-54,-3,-50,-57,-62
-10,-40,-24,27,9,-39,77,-54,-2,-50,-56,-62
-9,-40,-25,27,10,-39,78,-53,-1,-50,-56,-61
-8,-40,-26,26,11,-40,79,-52,0,-50,-56,-61
-7,-39,-26,25,11,-40,79,-51,1,-49,-55,-61
-6,-38,-27,24,12,-39,80,-50,2,-49,-54,-61
-6,-37,-27,24,13,-39,81,-50,2,-48,-54,-60
-6,-37,-27,24,13,-39,81,-49,3,-47,-53,-60
-5,-36,-27,23,13,-39,82,-48,4,-46,-51,-59
-3,-36,-27,21,15,-39,83,-47,5,-45,-49,-59
-2,-35,-29,20,16,-39,84,-46,6,-43,-48,-58
-0,-34,-29,19,17,-39,84,-46,7,-43,-48,-58
0,-32,-28,18,16,-37,85,-46,7,-42,-47,-57
1,-31,-27,17,17,-36,86,-45,7,-41,-47,-57
2,-31,-28,16,18,-36,86,-45,8,-40,-46,-56
4,-31,-30,15,19,-37,87,-44,9,-39,-45,-56
5,-31,-31,14,21,-38,88,-43,10,-38,-45,-56
6,-31,-32,13,22,-39,89,-42,11,-37,-44,-55
6,-29,-31,13,22,-38,90,-40,12,-37,-44,-55
8,-27,-30,11,22,-36,91,-39,13,-36,-43,-55
8,-27,-31,10,23,-36,91,-38,15,-35,-42,-54
9,-26,-31,9,24,-36,92,-37,16,-34,-41,-54
10,-23,-30,7,23,-33,93,-36,18,-33,-40,-53
12,-20,-29,4,23,-31,94,-35,19,-32,-39,-53
13,-18,-27,2,23,-28,95,-34,20,-31,-38,-52
14,-14,-26,0,23,-26,97,-33,21,-30,-38,-51
17,-12,-26,-3,25,-25,97,-31,22,-29,-37,-51
19,-11,-27,-4,26,-25,98,-30,23,-28,-36,-50
19,-11,-27,-5,27,-24,99,-29,25,-26,-35,-49
20,-9,-27,-6,27,-23,100,-27,26,-25,-34,-49
22,-8,-28,-8,29,-23,102,-26,27,-24,-33,-49
24,-7,-28,-10,30,-23,103,-25,29,-23,-32,-49
25,-5,-28,-11,30,-22,104,-24,31,-22,-31,-48
27,-4,-29,-13,33,-22,105,-23,33,-21,-30,-48
30,-2,-30,-16,35,-22,106,-21,34,-19,-29,-48
31,-1,-30,-17,35,-21,107,-20,36,-18,-27,-47
32,0,-30,-19,36,-20,108,-18,37,-16,-24,-46
33,2,-30,-20,36,-19,110,-17,38,-15,-22,-45
34,3,-30,-21,37,-19,111,-15,40,-14,-21,-45
36,4,-31,-23,38,-18,112,-14,41,-13,-19,-44
39,6,-32,-25,41,-18,113,-13,43,-11,-18,-44
41,8,-32,-28,41,-16,114,-12,44,-10,-17,-44
42,10,-32,-29,42,-16,115,-11,46,-8,-16,-44
43,11,-32,-31,43,-15,116,-9,48,-7,-15,-43
45,13,-32,-32,43,-14,117,-8,49,-6,-14,-42
46,15,-31,-34,44,-12,117,-7,50,-4,-12,-41
47,16,-31,-36,44,-12,118,-6,51,-3,-11,-40
49,18,-31,-38,46,-10,119,-5,53,-2,-9,-40
51,21,-30,-40,46,-9,120,-4,54,-1,-8,-39
52,22,-30,-41,47,-8,121,-3,55,0,-7,-39
53,24,-30,-43,48,-7,122,-2,56,1,-7,-39
55,25,-30,-44,48,-6,122,-2,58,2,-6,-38
56,26,-30,-46,49,-5,123,-1,59,3,-5,-38
57,28,-30,-48,50,-4,123,-1,60,4,-4,-37
59,31,-30,-51,50,-2,124,-0,61,5,-3,-36
60,34,-28,-53,50,1,124,0,61,6,-2,-36
61,36,-27,-54,50,3,124,1,61,7,-1,-35
61,36,-27,-55,50,3,124,1,60,7,-0,-35
61,37,-26,-55,49,4,124,1,61,8,0,-34
62,39,-25,-57,49,5,124,1,62,8,1,-34
64,41,-25,-58,50,7,123,1,62,9,1,-33
65,43,-25,-60,51,8,123,1,63,9,2,-33
66,43,-25,-61,52,8,123,1,63,10,2,-32
67,44,-26,-62,52,8,124,1,63,11,3,-32
66,45,-24,-62,51,10,125,1,64,11,3,-32
66,46,-23,-62,50,11,125,0,64,11,4,-31
65,48,-21,-63,48,13,125,-0,64,11,5,-31
65,49,-20,-63,48,15,125,-0,64,11,5,-31
65,50,-19,-64,48,15,125,-1,64,10,5,-30
65,50,-19,-64,47,16,123,-2,63,9,5,-30
65,52,-17,-65,47,18,122,-4,63,9,5,-30
65,52,-17,-65,46,18,120,-5,62,8,5,-30
65,52,-17,-65,46,18,119,-7,62,8,5,-30
64,52,-16,-65,45,19,118,-8,61,8,5,-29
63,52,-15,-64,44,20,116,-10,60,7,5,-29
62,52,-14,-63,42,21,115,-11,59,7,5,-29
61,52,-13,-63,42,21,113,-13,58,6,5,-28
60,52,-13,-63,41,21,111,-15,57,6,4,-28
58,51,-11,-61,39,22,109,-17,55,5,3,-28
57,50,-11,-59,38,21,107,-19,54,4,2,-28
55,48,-11,-57,37,20,105,-21,52,2,1,-28
53,47,-10,-56,36,20,103,-23,50,0,-0,-28
51,46,-10,-54,34,20,101,-25,49,-1,-1,-28
49,43,-10,-51,33,18,100,-28,47,-3,-3,-28
47,42,-9,-50,32,18,98,-30,45,-5,-4,-29
45,40,-8,-47,30,17,96,-33,44,-7,-6,-29
41,37,-7,-43,27,17,93,-35,42,-8,-7,-29
38,35,-6,-40,25,16,91,-38,39,-10,-9,-29
36,33,-5,-38,23,16,89,-40,37,-13,-11,-29
34,31,-5,-36,22,14,87,-43,34,-15,-13,-29
32,29,-5,-33,21,13,85,-45,31,-17,-15,-30
30,26,-6,-31,20,11,83,-48,29,-19,-17,-30
28,23,-6,-28,19,9,82,-51,27,-21,-18,-30
26,20,-7,-25,19,6,80,-54,25,-23,-20,-30
23,17,-6,-22,16,5,79,-56,23,-25,-22,-31
19,15,-5,-18,13,5,79,-58,21,-27,-23,-31
17,14,-4,-16,11,5,78,-60,18,-29,-25,-31
15,12,-3,-14,10,5,78,-62,16,-31,-26,-31
11,10,-2,-11,8,4,77,-64,14,-34,-28,-31
9,7,-3,-8,7,2,76,-65,12,-36,-30,-31
8,4,-3,-6,6,1,75,-67,10,-37,-32,-32
6,2,-3,-4,6,-1,74,-68,8,-39,-34,-32
4,0,-3,-2,4,-3,73,-70,6,-41,-35,-33
3,-2,-4,0,4,-4,72,-71,4,-42,-36,-33
2,-4,-5,1,4,-5,72,-72,2,-44,-38,-33
0,-4,-3,2,3,-5,71,-73,1,-45,-39,-33
-1,-4,-3,3,1,-5,69,-74,0,-46,-40,-33
-1,-4,-2,4,1,-4,69,-74,0,-46,-40,-33
-2,-4,-2,4,0,-4,69,-74,0,-46,-40,-33
-2,-4,-2,4,0,-4,69,-74,0,-46,-40,-33
-2,-4,-2,4,0,-4,69,-74,0,-46,-40,-33
-2,-4,-2,4,0,-4,69,-74,0,-46,-40,-33
-8,-10,-1,10,-4,-6,67,-76,-3,-50,-42,-32
-15,-16,1,18,-9,-9,65,-79,-7,-56,-45,-32
-18,-18,2,21,-11,-10,65,-80,-8,-58,-46,-32
-19,-19,2,22,-11,-10,64,-80,-8,-58,-46,-32
-19,-20,2,22,-11,-10,64,-80,-8,-58,-46,-32
-19,-20,2,22,-11,-10,64,-80,-8,-59,-46,-32
-19,-20,2,22,-11,-10,65,-80,-8,-59,-46,-32
-19,-20,2,22,-11,-10,66,-80,-8,-59,-46,-32
-19,-20,2,22,-11,-10,67,-80,-8,-59,-46,-31
-19,-20,2,22,-11,-10,68,-80,-8,-59,-46,-31
-19,-20,2,22,-11,-10,69,-80,-8,-59,-46,-31
-19,-20,2,22,-11,-10,69,-80,-8,-59,-46,-30
-19,-20,2,22,-11,-10,69,-80,-8,-59,-46,-30
-19,-20,2,22,-11,-10,69,-80,-8,-59,-46,-30
-19,-20,2,22,-11,-10,69,-80,-8,-59,-46,-29
-19,-20,2,22,-11,-10,69,-80,-8,-59,-45,-29
-19,-20,2,22,-11,-10,69,-80,-8,-59,-44,-28
-19,-20,2,22,-11,-10,69,-80,-8,-59,-43,-28
-19,-20,2,22,-11,-10,69,-80,-8,-59,-43,-28
-19,-20,2,22,-11,-10,69,-80,-8,-59,-43,-27
-19,-20,2,22,-11,-10,69,-80,-7,-59,-42,-27
-19,-20,2,22,-11,-10,69,-80,-7,-59,-42,-26
-19,-20,2,22,-11,-10,69,-80,-6,-59,-42,-26
-19,-20,2,22,-11,-10,69,-80,-6,-59,-42,-26
-19,-20,2,22,-11,-10,69,-80,-6,-59,-42,-25
-19,-20,2,22,-11,-10,69,-80,-6,-59,-42,-25
-19,-20,2,22,-11,-10,69,-80,-6,-59,-42,-25
-19,-20,2,22,-11,-10,69,-80,-6,-59,-42,-25
-19,-20,2,22,-11,-10,69,-80,-6,-59,-42,-25
-19,-20,2,22,-11,-10,69,-80,-6,-59,-42,-25
-19,-20,2,22,-11,-10,69,-80,-6,-59,-42,-25
-19,-20,2,22,-11,-10,69,-80,-7,-59,-42,-26
-19,-20,2,22,-11,-10,69,-80,-7,-59,-42,-27
-19,-20,2,22,-11,-10,69,-80,-8,-59,-42,-28
-19,-20,2,22,-11,-10,69,-80,-8,-59,-42,-30
-19,-20,2,22,-11,-10,69,-80,-8,-60,-42,-33
-19,-20,2,22,-11,-10,69,-80,-8,-60,-42,-36
-19,-20,2,22,-11,-10,69,-80,-8,-61,-42,-39
-19,-20,2,22,-11,-10,69,-80,-9,-62,-42,-43
-19,-20,2,22,-11,-10,69,-81,-9,-62,-42,-46
-19,-20,2,22,-11,-10,69,-81,-10,-62,-42,-49
-19,-20,2,22,-11,-10,69,-82,-10,-62,-42,-52
-19,-20,1,22,-11,-11,69,-82,-11,-62,-42,-55
-17,-20,-0,21,-9,-12,69,-82,-11,-62,-42,-57
-15,-20,-2,20,-7,-13,69,-82,-11,-62,-42,-59
-13,-20,-4,19,-5,-14,69,-82,-11,-62,-42,-61
-12,-20,-5,18,-4,-15,69,-82,-11,-62,-42,-62
-12,-20,-5,18,-3,-15,69,-83,-12,-63,-42,-63
-11,-20,-6,18,-3,-15,69,-83,-14,-64,-42,-64
-11,-20,-6,18,-3,-15,69,-84,-15,-65,-42,-65
-11,-20,-6,18,-3,-15,69,-84,-16,-65,-43,-66
-11,-20,-6,18,-3,-15,69,-84,-17,-65,-44,-67
-11,-20,-6,18,-3,-15,69,-84,-18,-66,-44,-67
-11,-20,-6,18,-3,-15,69,-84,-18,-66,-45,-68
-12,-20,-5,18,-4,-15,69,-84,-19,-66,-46,-69
-14,-20,-3,19,-5,-14,69,-85,-20,-66,-46,-70
-15,-20,-2,20,-7,-13,69,-85,-20,-66,-46,-71
-17,-20,0,21,-9,-12,69,-86,-21,-66,-46,-71
-19,-20,1,22,-11,-11,69,-86,-21,-66,-46,-72
-19,-20,2,22,-11,-11,69,-86,-21,-67,-46,-72
-19,-20,2,22,-11,-10,69,-86,-21,-67,-46,-72
-19,-20,2,22,-11,-10,69,-86,-21,-68,-46,-72
-19,-20,2,22,-11,-10,69,-86,-22,-69,-46,-72
-19,-20,2,22,-11,-10,69,-87,-22,-70,-46,-73
-19,-20,2,22,-11,-10,69,-87,-23,-71,-46,-73
-19,-20,2,22,-11,-10,69,-88,-23,-72,-46,-73
-19,-20,2,22,-11,-10,69,-88,-24,-72,-46,-73
-19,-20,2,22,-11,-10,69,-89,-24,-72,-46,-74
-19,-20,2,22,-11,-10,69,-89,-24,-73,-46,-74
-19,-20,2,22,-11,-10,69,-90,-24,-73,-46,-74
-19,-21,1,23,-11,-11,69,-90,-24,-73,-46,-74
-19,-22,-0,24,-10,-13,69,-90,-25,-73,-46,-74
-19,-24,-2,25,-9,-15,69,-90,-25,-73,-46,-74
-19,-26,-4,26,-8,-18,69,-90,-26,-73,-46,-74
-19,-28,-5,26,-7,-19,69,-91,-26,-73,-46,-74
-19,-28,-5,27,-7,-20,69,-91,-27,-74,-46,-74
-19,-29,-6,27,-7,-20,69,-91,-27,-74,-46,-74
-19,-29,-6,27,-7,-20,69,-92,-27,-75,-46,-74
-19,-28,-5,26,-7,-19,69,-92,-27,-76,-46,-74
-19,-26,-3,25,-8,-17,69,-92,-27,-76,-46,-74
-19,-24,-2,25,-9,-15,69,-92,-28,-76,-46,-74
-19,-22,0,24,-11,-13,69,-92,-29,-76,-46,-74
-19,-21,1,23,-11,-11,69,-93,-29,-77,-47,-73
-19,-20,2,23,-11,-11,69,-93,-30,-77,-48,-73
-19,-20,2,22,-11,-10,69,-93,-31,-78,-48,-73
-19,-20,2,22,-11,-10,69,-94,-31,-79,-49,-72
-19,-20,2,22,-11,-10,69,-94,-32,-79,-50,-72
-19,-20,2,22,-11,-10,69,-94,-33,-80,-50,-72
-19,-20,2,22,-11,-10,69,-94,-33,-80,-51,-71
-19,-20,2,22,-11,-10,69,-94,-34,-80,-51,-71
-20,-20,3,23,-12,-10,69,-95,-34,-80,-50,-71
-22,-20,4,24,-14,-9,69,-95,-35,-80,-49,-70
-23,-20,6,25,-16,-8,69,-95,-36,-80,-48,-70
-25,-20,8,25,-18,-7,69,-96,-36,-80,-47,-69
-26,-20,9,26,-19,-6,69,-96,-37,-80,-47,-69
-27,-20,9,26,-20,-6,69,-96,-37,-80,-47,-69
-27,-20,10,27,-20,-5,69,-97,-37,-80,-46,-68
-27,-20,10,27,-20,-5,69,-97,-37,-80,-46,-68
-27,-20,10,27,-20,-5,69,-97,-37,-80,-46,-67
-27,-20,10,27,-20,-5,69,-97,-38,-80,-46,-67
-27,-20,10,27,-20,-5,69,-97,-38,-80,-46,-67
-27,-20,10,27,-20,-5,69,-97,-39,-80,-46,-66
-27,-20,10,27,-20,-5,69,-97,-39,-80,-46,-66
-27,-20,10,27,-20,-5,69,-97,-40,-81,-46,-66
-27,-20,10,27,-20,-5,69,-98,-40,-81,-46,-65
-27,-20,10,27,-20,-5,69,-98,-40,-82,-46,-65
-27,-20,10,27,-20,-5,69,-98,-39,-83,-46,-64
-27,-20,10,27,-20,-5,69,-98,-39,-83,-46,-64
-27,-20,10,27,-20,-5,69,-99,-38,-83,-46,-64
-27,-20,10,27,-20,-5,69,-99,-38,-83,-46,-63
-27,-20,10,27,-20,-5,69,-99,-37,-83,-46,-63
-27,-20,10,27,-20,-5,69,-99,-37,-83,-46,-62
-27,-20,10,27,-20,-5,69,-99,-37,-83,-46,-61
-27,-20,10,27,-20,-5,69,-99,-37,-83,-46,-61
-27,-20,10,27,-20,-5,69,-99,-37,-83,-46,-60
-27,-20,10,27,-20,-5,69,-99,-38,-83,-46,-59
-27,-20,10,27,-20,-5,69,-100,-38,-83,-46,-58
-27,-20,10,27,-20,-5,69,-100,-39,-83,-46,-57
-27,-20,10,27,-20,-5,69,-100,-39,-83,-46,-57
-27,-20,10,27,-20,-5,69,-101,-40,-83,-46,-56
-27,-20,10,27,-20,-5,69,-101,-40,-83,-46,-55
-27,-20,10,27,-20,-5,69,-101,-40,-83,-46,-54
-27,-20,10,27,-20,-5,69,-101,-40,-83,-46,-54
-27,-20,10,27,-20,-5,69,-101,-40,-83,-46,-53
-27,-20,10,27,-20,-5,69,-101,-40,-83,-46,-53
-27,-20,10,27,-20,-5,69,-101,-40,-83,-46,-53
-27,-20,10,27,-20,-5,69,-101,-40,-83,-46,-52
-27,-20,10,27,-20,-5,69,-101,-40,-83,-45,-52
-27,-20,10,27,-20,-5,69,-101,-40,-83,-44,-51
-27,-20,10,27,-20,-5,69,-101,-40,-83,-43,-51
-27,-20,10,27,-20,-5,69,-101,-40,-84,-43,-50
-27,-20,10,27,-20,-5,69,-101,-40,-84,-43,-50
-27,-20,10,27,-20,-5,69,-101,-40,-85,-42,-49
-27,-20,10,27,-20,-5,69,-101,-40,-86,-42,-48
-27,-20,10,27,-20,-5,69,-101,-40,-86,-42,-48
-27,-20,10,27,-20,-5,69,-101,-40,-87,-42,-47
-27,-20,10,27,-20,-5,69,-101,-40,-87,-42,-47
-27,-20,10,27,-20,-5,69,-101,-40,-87,-42,-46
-27,-20,10,27,-20,-5,69,-101,-40,-87,-42,-46
-27,-20,10,27,-20,-5,69,-101,-40,-87,-42,-46
-27,-20,10,27,-20,-5,69,-101,-40,-87,-42,-45
-27,-20,10,27,-20,-5,69,-101,-40,-87,-42,-45
-27,-20,10,27,-20,-5,69,-101,-40,-87,-42,-45
-27,-20,10,27,-20,-5,69,-101,-40,-87,-42,-45
-27,-20,10,27,-20,-5,69,-101,-40,-87,-42,-44
-27,-20,10,27,-20,-5,69,-101,-40,-87,-42,-44
-27,-20,10,27,-20,-5,69,-101,-40,-87,-42,-44
-27,-20,10,27,-20,-5,69,-101,-40,-87,-42,-44
-26,-21,8,27,-19,-7,67,-98,-39,-84,-33,-51
-26,-22,6,27,-18,-8,65,-95,-39,-81,-21,-60
-25,-22,6,27,-17,-9,64,-94,-38,-80,-17,-63
-25,-22,6,27,-17,-9,63,-94,-38,-80,-15,-64
-25,-22,6,27,-17,-9,63,-94,-38,-80,-15,-65
-25,-22,6,27,-17,-9,63,-94,-38,-81,-15,-65
-25,-21,6,26,-18,-8,63,-94,-39,-81,-15,-64
-25,-20,7,26,-18,-7,63,-94,-39,-82,-15,-64
-25,-21,7,26,-18,-8,62,-94,-39,-82,-15,-64
-25,-22,6,26,-17,-9,62,-94,-39,-82,-15,-64
-25,-22,6,27,-17,-9,62,-94,-38,-82,-15,-64
-25,-22,6,27,-17,-9,63,-95,-38,-82,-15,-64
-25,-22,6,27,-17,-9,64,-95,-38,-82,-15,-63
-25,-22,6,27,-17,-9,66,-95,-38,-82,-14,-63
-25,-23,5,27,-17,-10,66,-95,-38,-82,-14,-63
-25,-24,4,28,-16,-11,66,-95,-38,-82,-14,-62
-25,-24,4,28,-16,-12,67,-95,-38,-82,-14,-62
-25,-24,4,28,-16,-12,68,-95,-38,-82,-14,-62
-25,-22,6,27,-17,-9,67,-95,-37,-83,-13,-62
-25,-21,7,26,-18,-8,67,-95,-37,-83,-12,-62
-25,-22,5,26,-16,-9,67,-95,-37,-83,-12,-62
-24,-21,5,25,-16,-9,67,-95,-37,-84,-11,-62
-23,-20,5,25,-16,-8,67,-95,-37,-84,-11,-62
-23,-20,6,25,-16,-8,67,-96,-37,-84,-10,-62
-23,-20,6,25,-16,-8,67,-96,-37,-83,-10,-61
-24,-21,6,25,-16,-8,67,-97,-37,-83,-9,-61
-25,-22,6,26,-17,-9,67,-97,-37,-83,-9,-60
-25,-22,6,27,-17,-9,67,-97,-38,-83,-9,-60
-25,-23,4,27,-16,-11,67,-97,-38,-83,-9,-60
-24,-24,3,27,-15,-12,67,-96,-37,-83,-9,-60
-23,-24,2,27,-14,-13,67,-96,-37,-83,-9,-60
-23,-24,2,27,-14,-13,67,-96,-38,-83,-9,-60
-23,-24,2,27,-14,-13,67,-96,-38,-83,-9,-60
-23,-24,2,27,-14,-13,67,-96,-38,-83,-9,-60
-23,-24,2,27,-14,-13,67,-96,-40,-83,-9,-60
-23,-24,2,27,-14,-13,67,-96,-40,-83,-8,-59
-23,-23,3,26,-14,-12,68,-96,-40,-83,-7,-58
-23,-22,4,25,-15,-10,68,-96,-41,-83,-6,-58
-23,-20,5,25,-16,-8,68,-96,-41,-84,-6,-57
-23,-22,4,25,-15,-10,68,-96,-41,-85,-6,-57
-23,-23,3,26,-14,-12,68,-97,-41,-86,-5,-57
-23,-24,2,26,-14,-12,68,-97,-42,-87,-5,-57
-23,-24,2,27,-14,-13,68,-97,-42,-87,-5,-57
-23,-24,2,27,-14,-13,68,-97,-42,-87,-5,-57
-23,-24,2,27,-14,-13,68,-98,-43,-88,-4,-57
-23,-24,2,27,-14,-13,68,-98,-43,-88,-4,-57
-23,-24,2,27,-14,-13,69,-98,-43,-88,-4,-57
-23,-24,2,27,-14,-13,69,-98,-44,-88,-4,-56
-23,-24,2,27,-14,-13,68,-98,-44,-88,-4,-56
-23,-24,2,27,-14,-13,68,-98,-43,-88,-4,-55
-23,-24,1,26,-13,-13,68,-98,-43,-88,-4,-55
-22,-24,0,26,-12,-14,68,-98,-43,-88,-3,-55
-22,-24,1,26,-12,-14,68,-98,-43,-88,-3,-54
-23,-24,2,27,-13,-13,68,-98,-43,-89,-2,-54
-23,-24,2,27,-14,-13,68,-98,-43,-89,-2,-54
-23,-24,2,27,-14,-13,68,-98,-43,-89,-1,-53
-23,-24,2,27,-14,-13,68,-98,-44,-89,-1,-53
-23,-24,2,27,-14,-13,69,-98,-44,-89,-1,-53
-23,-24,2,27,-14,-13,69,-98,-44,-89,-0,-52
-23,-24,2,27,-14,-13,69,-98,-44,-89,-0,-52
-23,-24,2,27,-14,-13,69,-98,-44,-89,-0,-52
-23,-24,2,27,-14,-13,69,-98,-43,-89,-0,-52
-23,-24,2,27,-14,-13,69,-98,-43,-89,-0,-51
-23,-24,1,26,-13,-13,69,-98,-42,-89,-0,-51
-22,-24,0,26,-12,-14,69,-99,-43,-89,-1,-51
-22,-24,1,26,-12,-14,68,-99,-43,-89,-1,-51
-23,-24,2,27,-13,-13,68,-99,-43,-88,-2,-51
-23,-24,2,27,-14,-13,69,-99,-43,-88,-2,-50
-23,-24,2,27,-14,-13,69,-100,-43,-88,-3,-50
-23,-24,2,27,-14,-13,69,-100,-43,-88,-4,-50
-23,-24,1,26,-13,-13,69,-100,-42,-88,-5,-50
-22,-24,0,26,-12,-14,69,-101,-42,-89,-6,-50
-23,-24,2,27,-13,-13,68,-101,-42,-89,-7,-50
-23,-24,2,27,-14,-13,68,-101,-42,-90,-8,-49
-22,-24,1,26,-12,-14,69,-101,-42,-91,-9,-49
-22,-24,1,26,-12,-14,69,-101,-43,-92,-9,-49
-23,-25,0,27,-13,-15,69,-101,-43,-92,-9,-48
-22,-26,-1,27,-11,-16,69,-101,-43,-92,-9,-48
-21,-25,-0,26,-11,-15,70,-101,-43,-92,-10,-48
-23,-24,1,26,-13,-13,70,-101,-43,-92,-10,-47
-23,-24,1,26,-13,-13,70,-101,-42,-92,-10,-47
-22,-24,0,26,-12,-14,70,-101,-42,-92,-11,-47
-23,-23,2,26,-14,-12,70,-102,-41,-92,-11,-47
-23,-22,4,25,-15,-10,70,-102,-41,-92,-11,-47
-22,-20,5,24,-15,-9,70,-102,-41,-92,-12,-47
-22,-18,6,22,-15,-6,70,-102,-40,-93,-12,-46
-21,-15,8,21,-16,-4,70,-102,-39,-93,-12,-46
-21,-14,9,20,-17,-3,70,-102,-39,-93,-11,-46
-21,-13,10,19,-17,-1,70,-102,-39,-92,-10,-46
-21,-11,11,19,-18,1,70,-102,-39,-92,-9,-46
-21,-11,11,19,-18,1,70,-101,-39,-92,-9,-45
-21,-12,11,19,-18,0,70,-101,-38,-93,-9,-45
-21,-13,10,19,-17,-1,70,-101,-37,-93,-9,-45
-21,-13,10,20,-17,-2,70,-101,-37,-93,-9,-45
-21,-12,10,19,-18,-1,70,-100,-36,-93,-9,-45
-21,-11,11,19,-18,1,70,-100,-36,-93,-9,-44
-21,-11,11,19,-18,1,71,-100,-36,-93,-9,-44
-21,-11,11,19,-18,1,71,-100,-36,-93,-9,-44
-21,-11,11,19,-18,1,71,-100,-36,-93,-9,-43
-21,-10,13,18,-19,3,71,-100,-35,-93,-9,-43
-21,-10,13,18,-19,3,71,-100,-34,-93,-10,-43
-21,-12,11,19,-18,0,71,-100,-33,-93,-10,-42
-21,-13,10,19,-17,-1,71,-100,-33,-93,-10,-41
-21,-13,10,20,-17,-2,71,-99,-33,-94,-11,-41
-21,-12,10,19,-18,-1,71,-99,-33,-94,-11,-40
-21,-11,11,19,-18,1,71,-99,-32,-94,-11,-39
-21,-11,11,19,-18,1,71,-99,-32,-94,-11,-39
-21,-11,11,19,-18,1,71,-99,-33,-95,-11,-38
-21,-11,11,19,-18,1,71,-99,-33,-96,-11,-38
-21,-10,12,18,-19,2,71,-99,-33,-96,-11,-38
-21,-9,12,17,-18,3,71,-99,-33,-97,-11,-38
-20,-9,12,17,-18,3,71,-99,-32,-97,-12,-37
-20,-10,11,17,-18,2,71,-99,-32,-96,-12,-37
-21,-11,11,18,-18,2,71,-99,-32,-97,-13,-36
-20,-9,11,17,-17,2,71,-99,-32,-97,-13,-36
-19,-10,11,17,-17,2,70,-98,-32,-97,-13,-36
-21,-11,10,19,-17,0,71,-98,-32,-97,-13,-35
-21,-11,11,18,-18,2,71,-98,-31,-97,-14,-35
-21,-9,13,17,-19,3,72,-97,-30,-97,-14,-34
-19,-7,13,15,-18,5,72,-97,-29,-96,-14,-34
-17,-4,13,13,-17,6,74,-97,-29,-96,-14,-34
-15,-1,13,10,-15,8,75,-97,-28,-94,-15,-33
-13,3,15,6,-15,11,76,-97,-27,-93,-14,-33
-12,6,17,4,-16,15,76,-96,-26,-93,-13,-32
-11,9,19,2,-18,18,76,-96,-26,-93,-13,-31
-11,14,23,0,-20,23,76,-95,-25,-93,-11,-31
-11,18,26,-3,-21,27,77,-95,-24,-92,-11,-30
-9,22,29,-6,-22,31,79,-94,-24,-90,-10,-29
-8,26,31,-9,-22,35,81,-93,-23,-89,-9,-28
-8,28,32,-10,-22,37,83,-92,-22,-87,-9,-27
-6,31,33,-13,-22,39,85,-91,-21,-86,-8,-27
-2,34,32,-16,-20,41,85,-91,-20,-85,-7,-26
0,36,32,-19,-18,41,85,-91,-19,-84,-6,-26
2,36,30,-20,-16,40,85,-91,-18,-84,-4,-25
5,37,28,-22,-13,39,85,-90,-17,-84,-3,-24
9,38,25,-25,-9,38,84,-90,-17,-84,-2,-23
14,38,19,-28,-3,34,84,-90,-16,-84,-1,-22
22,38,12,-32,5,29,83,-90,-15,-84,0,-21
30,39,5,-38,14,25,82,-89,-14,-83,1,-20
35,40,1,-41,19,23,80,-89,-13,-82,3,-18
39,41,-2,-44,23,22,79,-89,-12,-81,4,-17
43,45,-2,-48,25,24,77,-88,-12,-80,5,-17
45,50,1,-52,24,29,74,-89,-11,-79,6,-16
47,57,5,-57,23,35,69,-90,-11,-79,6,-15
49,62,7,-61,23,40,65,-91,-12,-79,6,-14
51,64,7,-63,24,41,62,-93,-13,-80,6,-14
51,63,6,-63,25,39,59,-94,-15,-81,5,-13
51,58,2,-60,27,34,58,-95,-16,-83,3,-13
50,54,-1,-57,29,30,58,-96,-18,-85,1,-13
48,49,-3,-54,29,26,58,-98,-20,-87,0,-14
46,45,-5,-50,29,22,59,-98,-21,-88,-1,-14
46,42,-8,-48,30,19,61,-99,-22,-90,-2,-14
45,39,-10,-47,31,16,62,-100,-23,-91,-3,-14
45,36,-12,-45,33,12,63,-101,-24,-93,-5,-15
43,33,-13,-42,32,10,63,-102,-25,-94,-6,-14
38,30,-10,-38,27,10,63,-102,-26,-95,-7,-14
32,27,-7,-32,22,11,63,-103,-27,-95,-7,-14
26,24,-3,-27,16,11,63,-103,-28,-96,-7,-15
21,22,-1,-23,12,11,64,-103,-28,-96,-7,-15
17,19,0,-20,10,11,65,-104,-27,-98,-8,-15
14,16,1,-16,7,10,66,-104,-27,-99,-9,-15
10,12,2,-12,5,8,68,-105,-26,-101,-9,-15
5,9,3,-7,1,7,69,-105,-25,-101,-10,-16
1,6,5,-3,-2,7,71,-104,-25,-102,-11,-16
-4,4,7,1,-6,7,72,-104,-25,-102,-13,-17
-11,-0,11,7,-12,7,74,-103,-25,-102,-14,-17
-17,-4,14,13,-17,7,75,-103,-25,-102,-15,-18
-20,-6,15,15,-19,6,76,-104,-25,-103,-16,-18
-22,-7,15,17,-21,6,76,-104,-25,-103,-17,-18
-23,-8,16,19,-22,5,76,-105,-25,-104,-17,-18
-25,-9,16,19,-22,5,76,-106,-26,-104,-18,-18
-25,-11,15,20,-22,4,76,-106,-26,-105,-19,-19
-25,-12,14,22,-22,2,76,-106,-26,-105,-20,-19
-25,-14,11,22,-20,-1,76,-107,-26,-105,-20,-19
-23,-15,10,22,-18,-3,76,-107,-27,-105,-21,-19
-22,-14,9,21,-17,-3,75,-107,-28,-105,-22,-18
-22,-14,10,20,-18,-2,75,-107,-28,-105,-21,-18
-23,-13,11,20,-19,0,76,-106,-28,-105,-21,-18
-23,-11,13,20,-20,2,76,-106,-28,-104,-21,-18
-24,-12,13,21,-21,2,77,-106,-27,-104,-20,-18
-25,-13,13,22,-21,2,78,-106,-27,-104,-19,-17
-25,-13,13,22,-22,1,79,-106,-27,-105,-19,-17
-25,-13,13,22,-22,1,80,-106,-27,-106,-19,-17
-25,-13,13,22,-21,1,80,-106,-27,-106,-18,-17
-24,-12,13,21,-20,1,81,-106,-27,-106,-18,-17
-23,-11,13,20,-20,2,81,-106,-28,-106,-18,-17
-24,-11,14,20,-21,3,81,-106,-28,-106,-18,-16
-25,-11,15,21,-22,4,81,-106,-28,-105,-17,-17
-26,-10,16,21,-23,5,81,-106,-28,-105,-17,-17
-27,-9,18,21,-25,7,81,-106,-27,-104,-17,-18
-28,-9,19,21,-26,7,83,-105,-26,-105,-17,-18
-28,-14,15,24,-24,2,85,-104,-23,-105,-18,-19
-28,-18,11,26,-22,-3,86,-102,-22,-106,-21,-18
-22,-25,0,26,-12,-14,92,-100,-24,-107,-23,-19
-22,-31,-6,30,-8,-22,96,-95,-23,-109,-25,-20
-34,-36,2,39,-19,-19,105,-89,-18,-109,-28,-17
-40,-36,8,42,-26,-16,120,-81,-12,-105,-28,-20
-32,-36,0,38,-17,-21,131,-71,-0,-98,-27,-20
-36,-36,4,40,-22,-18,144,-57,15,-89,-18,-18
-6,-33,-23,22,10,-34,165,-39,30,-77,-10,-17
16,-20,-32,2,28,-33,184,-20,49,-60,1,-17
42,-7,-46,-20,50,-34,189,-8,70,-40,16,-14
79,17,-61,-55,79,-31,189,-3,86,-17,36,-10
117,46,-72,-92,107,-22,174,-10,95,8,61,-2
154,85,-74,-135,129,-1,160,-19,107,37,90,7
194,131,-72,-182,150,27,131,-36,112,66,121,19
227,180,-63,-228,163,61,97,-61,109,89,153,29
257,226,-51,-269,173,95,50,-93,101,106,177,38
271,278,-19,-305,162,146,1,-127,90,120,202,46
281,300,-10,-323,162,165,-41,-154,75,126,217,53
273,294,-8,-314,156,162,-72,-178,58,119,222,54
245,294,19,-298,126,180,-85,-194,49,102,211,54
209,263,27,-261,101,167,-85,-203,29,71,189,49
192,237,21,-237,95,148,-85,-208,-0,34,162,44
158,221,40,-209,65,152,-81,-216,-24,-1,138,39
105,217,87,-176,8,181,-78,-227,-54,-38,108,34
55,208,127,-142,-43,202,-87,-244,-94,-79,79,28
2,206,177,-109,-101,233,-97,-259,-124,-116,53,21
-69,206,245,-68,-181,278,-108,-268,-145,-141,31,14
-103,197,270,-44,-214,290,-115,-268,-157,-157,7,5
-130,180,281,-18,-236,287,-120,-266,-159,-166,-11,-5
-140,144,260,6,-229,253,-119,-255,-144,-166,-20,-10
-140,142,259,7,-228,251,-107,-241,-134,-162,-26,-13
-125,118,222,11,-198,213,-94,-223,-125,-162,-32,-16
-107,79,171,21,-159,157,-79,-206,-113,-161,-35,-17
-97,54,141,28,-135,123,-55,-188,-102,-160,-38,-16
-89,39,120,32,-119,101,-28,-170,-89,-152,-30,-18
-79,26,99,33,-101,80,-6,-153,-75,-143,-29,-18
-75,24,93,32,-96,75,17,-138,-61,-134,-25,-16
-69,19,84,31,-87,66,34,-127,-50,-123,-21,-15
-65,17,78,30,-81,61,47,-118,-41,-117,-22,-16
-57,13,67,27,-70,51,57,-113,-36,-115,-19,-16
-51,6,55,27,-60,40,64,-108,-31,-112,-17,-16
-40,2,40,23,-45,27,71,-103,-30,-110,-16,-16
-36,2,36,20,-41,25,78,-99,-27,-108,-14,-16
-40,2,40,23,-45,27,82,-96,-26,-107,-14,-14
-40,-3,36,25,-43,22,85,-91,-26,-107,-15,-15
-38,-7,30,26,-38,16,90,-89,-25,-107,-16,-15
-42,-11,30,31,-41,13,93,-86,-20,-105,-16,-14
-42,-16,27,33,-38,8,97,-84,-18,-105,-16,-14
-34,-18,17,30,-28,1,95,-83,-18,-105,-16,-14
-32,-18,15,29,-26,-1,95,-82,-18,-104,-15,-14
-32,-19,14,29,-26,-2,96,-82,-17,-104,-14,-14
-31,-20,13,29,-24,-3,97,-81,-17,-104,-13,-15
-28,-20,11,27,-22,-5,97,-80,-16,-104,-13,-15
-26,-21,8,27,-19,-7,98,-79,-16,-103,-13,-14
-26,-22,6,27,-17,-9,99,-78,-16,-103,-14,-14
-25,-24,3,28,-15,-12,100,-77,-15,-103,-14,-14
-24,-25,1,28,-14,-14,101,-76,-15,-103,-15,-14
-23,-26,0,28,-13,-15,101,-75,-14,-103,-15,-14
-22,-26,-1,27,-11,-16,102,-75,-14,-102,-15,-14
-22,-26,-1,27,-11,-16,103,-75,-13,-102,-14,-14
-24,-26,1,29,-14,-15,103,-75,-13,-101,-14,-14
-24,-26,1,29,-14,-15,103,-74,-13,-100,-13,-14
-24,-26,0,28,-13,-15,103,-74,-13,-100,-13,-13
-23,-26,0,28,-13,-15,104,-73,-13,-99,-13,-13
-23,-26,-1,28,-12,-16,104,-73,-12,-99,-13,-13
-22,-26,-2,27,-11,-16,105,-73,-12,-99,-13,-13
-21,-27,-3,27,-10,-18,105,-73,-12,-99,-13,-13
-21,-28,-3,28,-10,-19,105,-72,-12,-98,-13,-13
-21,-29,-5,28,-8,-20,105,-72,-12,-98,-13,-13
-20,-28,-5,27,-8,-19,105,-72,-11,-97,-12,-13
-21,-27,-3,27,-10,-17,105,-72,-11,-96,-12,-13
-21,-26,-2,27,-11,-17,106,-72,-11,-95,-11,-13
-20,-26,-3,26,-9,-17,106,-71,-12,-94,-11,-13
-20,-26,-3,26,-9,-18,106,-71,-12,-93,-10,-12
-19,-26,-4,25,-8,-18,106,-70,-12,-93,-10,-12
-18,-26,-5,25,-7,-19,107,-69,-12,-92,-10,-11
-17,-26,-6,25,-6,-19,107,-68,-12,-92,-10,-11
-17,-26,-6,25,-6,-19,108,-67,-11,-91,-10,-11
-17,-26,-6,24,-5,-20,108,-67,-11,-91,-9,-11
-16,-25,-6,23,-5,-19,109,-67,-10,-90,-7,-11
-15,-25,-6,23,-5,-18,110,-66,-9,-90,-6,-11
-15,-24,-6,22,-5,-18,110,-66,-9,-90,-5,-11
-15,-24,-6,22,-4,-18,110,-65,-10,-90,-4,-11
-14,-24,-7,21,-3,-19,110,-64,-10,-89,-3,-11
-13,-24,-8,21,-3,-19,111,-63,-10,-89,-3,-11
-13,-23,-8,20,-2,-19,112,-62,-10,-89,-3,-10
-12,-22,-8,19,-2,-18,112,-61,-10,-89,-3,-10
-11,-22,-8,19,-2,-18,113,-60,-9,-88,-3,-10
-11,-21,-8,18,-1,-17,113,-59,-8,-88,-2,-9
-10,-20,-8,17,-1,-17,113,-58,-8,-87,-2,-9
-9,-20,-8,16,0,-17,114,-58,-7,-86,-2,-9
-8,-19,-8,15,1,-17,114,-57,-6,-85,-1,-9
-8,-18,-8,14,1,-16,115,-57,-5,-83,-1,-9
-8,-18,-8,14,0,-15,115,-56,-5,-82,-1,-8
-8,-17,-7,14,0,-14,116,-55,-5,-82,-1,-8
-7,-16,-7,13,0,-14,117,-54,-4,-81,-0,-8
-6,-15,-7,12,1,-14,117,-52,-3,-81,0,-8
-5,-15,-8,12,2,-14,118,-52,-2,-80,0,-8
-4,-14,-9,10,4,-14,118,-51,-1,-79,1,-8
-2,-14,-9,9,4,-14,119,-50,-0,-78,1,-8
-2,-13,-9,9,4,-14,119,-49,1,-76,1,-8
-1,-13,-10,8,5,-14,120,-49,2,-75,1,-8
0,-13,-11,7,7,-15,121,-47,2,-72,2,-7
1,-12,-11,6,7,-15,121,-46,3,-70,2,-7
2,-11,-11,6,8,-14,122,-45,4,-68,3,-7
2,-11,-11,5,8,-14,123,-44,5,-65,3,-7
2,-11,-11,5,8,-14,123,-42,5,-62,4,-6
3,-10,-11,4,9,-14,124,-41,7,-59,4,-5
4,-9,-12,3,10,-13,125,-40,8,-54,5,-5
6,-9,-13,2,11,-14,126,-38,9,-51,6,-5
7,-8,-13,0,12,-14,126,-37,10,-48,6,-5
8,-6,-12,-0,11,-12,127,-36,11,-45,6,-4
8,-5,-12,-2,12,-11,128,-36,12,-43,6,-4
9,-4,-13,-3,13,-11,128,-35,13,-40,7,-4
11,-4,-14,-4,15,-12,129,-33,14,-38,8,-4
13,-4,-16,-5,17,-13,130,-31,15,-36,8,-3
13,-4,-16,-5,17,-14,131,-30,16,-35,9,-3
14,-3,-16,-6,18,-13,132,-28,17,-33,10,-3
15,-1,-15,-8,18,-11,133,-27,18,-32,11,-3
16,-0,-16,-9,19,-11,133,-26,20,-31,13,-3
17,0,-16,-10,19,-11,134,-25,21,-30,15,-3
18,2,-15,-11,19,-9,135,-23,23,-29,17,-3
20,4,-16,-13,20,-9,136,-22,24,-29,18,-2
21,4,-16,-14,22,-9,137,-21,25,-28,19,-1
22,5,-17,-15,22,-9,138,-20,26,-26,20,-1
25,6,-18,-17,24,-9,139,-19,28,-25,21,-0
26,6,-20,-18,26,-10,140,-18,29,-24,22,0
27,7,-20,-19,27,-9,141,-16,31,-23,22,0
28,8,-20,-20,27,-9,142,-15,33,-22,23,0
30,9,-21,-21,29,-9,143,-14,35,-20,24,0
32,11,-21,-24,30,-8,143,-13,37,-19,25,1
33,12,-21,-25,30,-7,144,-13,39,-16,26,1
35,13,-22,-27,33,-7,144,-12,40,-14,27,1
38,15,-23,-30,35,-7,144,-11,42,-13,28,1
39,16,-23,-31,35,-6,144,-10,43,-11,29,2
40,18,-23,-32,36,-5,146,-8,45,-9,31,3
41,19,-23,-33,36,-5,147,-6,46,-8,32,4
42,20,-23,-34,37,-4,148,-5,48,-6,33,4
44,22,-24,-37,38,-4,149,-4,49,-4,34,5
47,24,-24,-39,41,-3,151,-3,51,-2,35,5
49,26,-24,-42,41,-1,152,-2,52,0,36,5
50,27,-24,-43,42,-1,152,-0,54,2,37,5
51,29,-24,-44,43,0,153,1,56,4,39,6
53,30,-24,-46,43,2,154,2,57,5,40,6
54,32,-23,-48,44,3,154,3,58,6,41,7
55,34,-24,-50,44,4,155,4,59,7,43,7
57,36,-24,-52,46,5,156,4,60,8,44,8
58,38,-23,-54,46,7,158,5,62,10,45,8
60,40,-23,-55,47,7,158,5,63,11,46,9
61,41,-23,-57,48,8,159,6,64,12,46,9
62,43,-23,-58,48,9,160,6,66,14,47,9
64,44,-23,-60,49,10,160,7,67,16,49,9
65,46,-23,-62,50,11,160,7,68,17,49,9
67,49,-22,-64,50,13,161,8,69,19,50,10
68,52,-21,-67,50,16,161,9,70,20,51,11
69,54,-19,-68,50,18,161,9,70,21,52,12
69,54,-19,-69,50,18,161,9,70,22,53,12
69,55,-19,-69,49,19,161,9,71,22,54,13
70,57,-18,-70,49,20,161,9,72,23,54,13
72,59,-17,-72,50,22,161,9,73,23,55,13
73,60,-17,-74,51,23,160,8,73,23,55,14
74,61,-18,-75,52,23,160,7,74,24,56,14
75,61,-18,-76,52,23,160,7,74,25,56,14
74,63,-17,-76,51,25,159,7,74,25,57,14
74,64,-15,-76,50,26,159,6,74,25,57,15
73,65,-13,-77,48,28,159,6,74,25,58,15
73,67,-12,-77,48,30,158,6,74,26,58,15
73,67,-12,-78,48,30,157,5,74,26,58,16
73,68,-11,-78,47,31,156,4,74,26,58,16
73,69,-10,-79,47,33,154,2,73,26,58,16
73,70,-10,-79,46,33,153,1,73,26,58,16
73,70,-10,-79,46,33,152,-0,73,26,58,16
72,70,-9,-79,45,34,151,-2,72,26,58,16
71,70,-7,-78,44,35,149,-4,70,25,58,16
70,70,-6,-77,42,36,146,-6,70,24,58,16
69,70,-6,-77,42,36,143,-8,68,24,58,16
68,70,-5,-76,41,36,140,-11,67,23,57,16
66,69,-4,-75,39,37,137,-13,65,22,56,16
64,67,-3,-73,38,36,135,-15,63,21,56,16
63,66,-3,-71,37,35,133,-18,60,20,55,16
61,65,-2,-70,36,35,131,-20,57,18,53,16
59,63,-2,-68,34,35,129,-23,54,17,52,16
57,61,-2,-65,33,33,128,-26,51,15,51,16
55,60,-1,-63,32,33,126,-28,48,13,49,15
53,58,-0,-61,30,32,124,-31,45,11,48,15
49,55,1,-57,27,32,121,-33,42,9,46,14
46,52,2,-54,25,31,119,-35,38,7,44,14
43,51,3,-52,23,31,117,-37,34,5,42,13
42,49,3,-50,22,29,115,-39,30,3,40,13
40,46,2,-47,21,28,113,-41,26,1,39,12
38,43,2,-44,20,26,110,-43,23,-1,37,11
36,40,1,-42,19,24,107,-45,21,-2,35,10
34,37,0,-39,19,21,105,-47,18,-3,33,10
30,35,1,-36,16,20,102,-48,15,-4,32,9
26,32,3,-32,13,20,101,-50,13,-6,30,9
25,31,4,-31,11,20,99,-51,10,-8,28,9
23,30,5,-29,10,20,98,-53,8,-10,27,9
19,27,5,-25,8,19,96,-54,6,-13,25,9
17,24,5,-22,7,17,95,-55,4,-14,23,9
15,22,4,-20,6,15,94,-55,1,-16,21,8
14,19,4,-18,6,13,93,-57,-2,-18,20,8
12,17,4,-16,4,12,92,-58,-4,-19,18,7
11,15,3,-14,4,10,91,-59,-6,-21,17,7
9,14,3,-13,4,10,90,-60,-8,-23,15,6
8,13,4,-11,2,10,89,-61,-9,-24,14,6
7,13,5,-10,1,10,88,-62,-10,-25,13,6
6,13,5,-10,0,11,88,-62,-10,-25,13,6
6,13,6,-10,0,11,88,-62,-10,-25,13,6
6,13,6,-10,0,11,88,-62,-10,-25,13,6
6,13,6,-10,0,11,88,-62,-10,-25,13,6
6,13,6,-10,0,11,88,-62,-10,-25,13,6
5,11,5,-8,0,9,86,-64,-13,-28,11,5
4,7,3,-6,1,6,84,-67,-17,-32,8,5
4,7,2,-6,1,5,83,-67,-18,-33,7,5
4,6,2,-5,1,5,83,-68,-19,-34,7,5
4,6,2,-5,1,5,83,-68,-19,-34,7,5
4,6,2,-5,1,5,83,-68,-19,-34,7,5
4,6,2,-5,1,5,83,-68,-19,-34,7,5
4,6,2,-5,1,5,83,-68,-19,-34,7,5
4,6,2,-5,1,5,83,-68,-19,-34,7,5
4,6,2,-5,1,5,83,-68,-19,-34,7,5
4,6,2,-5,1,5,83,-68,-19,-34,7,5
4,6,2,-5,1,5,83,-68,-19,-34,7,5
4,6,2,-5,1,5,83,-68,-19,-34,7,5
4,6,2,-5,1,5,83,-68,-19,-34,7,5
4,6,2,-5,1,5,83,-68,-19,-34,7,5
4,6,2,-5,1,5,83,-68,-19,-34,7,5
4,6,2,-5,1,5,83,-68,-19,-34,7,5
4,6,2,-5,1,5,83,-68,-19,-34,7,6
4,7,3,-6,1,6,83,-68,-19,-34,6,6
4,9,4,-6,0,8,83,-67,-19,-34,6,6
4,11,6,-7,-1,10,83,-67,-19,-34,5,6
4,13,8,-9,-2,12,83,-66,-19,-34,4,6
4,14,9,-9,-3,14,83,-66,-19,-34,3,6
4,14,9,-10,-3,14,83,-66,-19,-34,3,6
4,15,10,-10,-3,15,83,-66,-19,-34,3,6
4,15,10,-10,-3,15,83,-66,-19,-34,3,6
4,15,10,-10,-3,15,83,-66,-19,-34,3,6
4,15,10,-10,-3,15,83,-66,-19,-34,3,7
4,15,10,-10,-3,15,83,-66,-19,-34,3,7
4,15,10,-10,-3,15,83,-66,-19,-34,3,7
4,15,10,-10,-3,15,83,-66,-19,-34,3,8
4,15,10,-10,-3,15,83,-66,-19,-34,3,8
4,15,10,-10,-3,15,83,-66,-19,-34,3,8
4,15,10,-10,-3,15,83,-66,-19,-34,3,8
4,15,10,-10,-3,15,83,-66,-19,-34,3,8
4,15,10,-10,-3,15,83,-66,-19,-34,3,8
4,15,10,-10,-3,15,83,-66,-19,-34,3,8
4,15,10,-10,-3,15,83,-66,-19,-34,3,8
4,15,10,-10,-3,15,83,-66,-19,-34,3,8
4,15,10,-10,-3,15,83,-66,-20,-35,3,8
4,15,10,-10,-3,15,83,-66,-20,-36,3,8
4,15,10,-10,-3,15,83,-66,-21,-37,3,8
4,15,10,-10,-3,15,83,-66,-21,-37,3,8
4,15,10,-10,-3,15,83,-66,-21,-37,3,8
4,15,10,-10,-3,15,83,-66,-21,-37,3,8
4,15,10,-10,-3,15,83,-66,-21,-37,3,9
4,15,10,-10,-3,15,83,-66,-22,-37,2,9
4,15,10,-10,-3,15,82,-66,-22,-37,1,9
4,15,10,-10,-3,15,81,-66,-23,-37,1,9
4,15,10,-10,-3,15,79,-66,-23,-37,-0,9
4,15,10,-10,-3,15,79,-66,-24,-38,-1,9
4,15,10,-10,-3,15,79,-65,-24,-38,-2,9
4,15,10,-10,-3,15,78,-65,-24,-39,-3,9
4,15,10,-10,-3,15,78,-64,-24,-40,-4,9
4,15,10,-10,-3,15,78,-64,-24,-41,-5,9
4,15,10,-10,-3,15,78,-64,-25,-41,-6,9
4,15,10,-10,-3,15,78,-64,-25,-41,-7,9
4,15,10,-10,-3,15,78,-64,-26,-41,-8,9
4,14,9,-9,-3,14,78,-64,-26,-41,-9,9
4,12,7,-8,-2,12,78,-64,-27,-42,-9,9
4,11,6,-7,-1,10,78,-64,-27,-43,-9,9
4,8,4,-6,0,7,78,-64,-27,-44,-9,9
4,7,3,-6,1,6,78,-64,-27,-44,-9,9
4,7,2,-6,1,5,77,-64,-27,-44,-9,9
4,6,2,-5,1,5,76,-64,-28,-44,-9,9
4,6,2,-5,1,5,75,-64,-29,-44,-9,9
4,6,2,-5,1,5,74,-63,-29,-44,-9,9
2,6,4,-4,-1,6,74,-63,-29,-44,-9,10
0,6,5,-3,-3,7,74,-63,-29,-44,-9,10
-2,6,7,-2,-5,8,74,-62,-29,-44,-9,10
-3,6,8,-1,-6,9,74,-62,-30,-45,-9,11
-3,6,9,-1,-7,9,74,-62,-30,-46,-9,11
-4,6,9,-1,-7,9,74,-62,-31,-46,-9,11
-4,6,9,-1,-7,9,74,-62,-31,-47,-9,11
-4,6,10,-0,-8,10,74,-62,-32,-48,-9,11
-6,6,11,0,-10,11,74,-62,-32,-48,-9,11
-8,6,13,1,-11,12,74,-62,-32,-48,-9,11
-9,6,15,3,-14,13,74,-62,-32,-48,-9,11
-11,6,16,3,-15,14,74,-62,-32,-48,-9,11
-11,6,16,4,-15,14,74,-62,-33,-48,-9,11
-11,6,17,4,-16,14,74,-62,-33,-48,-9,11
-11,6,17,4,-16,14,74,-62,-34,-48,-9,11
-11,6,17,4,-16,14,73,-62,-34,-48,-10,11
-11,6,17,4,-16,14,72,-62,-34,-48,-11,11
-11,6,17,4,-16,14,71,-62,-34,-48,-11,11
-11,6,17,4,-16,14,70,-62,-34,-48,-13,11
-11,6,17,4,-16,14,69,-61,-35,-48,-13,11
-11,6,17,4,-16,14,69,-61,-35,-48,-13,11
-11,6,17,4,-16,14,69,-61,-36,-48,-14,11
-11,6,17,4,-16,14,69,-60,-36,-48,-14,12
-11,6,17,4,-16,14,69,-60,-37,-48,-14,12
-11,6,17,4,-16,14,69,-60,-37,-49,-14,12
-11,6,17,4,-16,14,69,-60,-37,-50,-14,12
-11,6,17,4,-16,14,69,-60,-37,-51,-14,12
-11,6,17,4,-16,14,69,-60,-37,-51,-14,12
-11,6,17,4,-16,14,69,-60,-37,-51,-14,12
-11,6,17,4,-16,14,69,-60,-37,-51,-14,12
-11,6,17,4,-16,14,69,-60,-37,-51,-14,12
-11,6,17,4,-16,14,69,-60,-37,-51,-14,12
-11,6,17,4,-16,14,69,-60,-38,-51,-14,12
-11,6,17,4,-16,14,69,-61,-38,-51,-14,12
-11,6,17,4,-16,14,69,-61,-39,-51,-14,12
-11,6,17,4,-16,14,69,-62,-39,-51,-14,12
-11,6,17,4,-16,14,69,-62,-40,-51,-14,12
-11,6,17,4,-16,14,69,-63,-40,-51,-14,12
-11,6,17,4,-16,14,69,-63,-40,-51,-14,12
-11,6,17,4,-16,14,69,-63,-40,-51,-14,12
-11,6,17,4,-16,14,68,-64,-40,-51,-14,13
-11,6,17,4,-16,14,67,-64,-40,-51,-14,13
-11,6,17,4,-16,14,66,-64,-40,-51,-14,13
-11,6,16,4,-15,14,65,-64,-40,-51,-14,14
-11,4,15,5,-15,12,65,-64,-40,-51,-14,14
-11,2,13,6,-14,10,64,-65,-40,-51,-14,14
-11,0,11,7,-13,7,64,-65,-40,-51,-14,14
-11,-1,10,8,-12,6,64,-66,-40,-51,-14,14
-11,-2,10,8,-12,5,64,-66,-40,-51,-14,14
-11,-2,10,8,-11,5,64,-66,-40,-51,-14,14
-11,-2,10,8,-11,5,64,-66,-40,-51,-14,14
-11,-2,10,8,-11,5,64,-66,-40,-51,-14,14
-11,-2,10,8,-11,5,64,-66,-40,-51,-15,14
-11,-2,10,8,-11,5,64,-66,-40,-51,-16,15
-11,-2,10,8,-11,5,64,-66,-40,-51,-17,15
-11,-3,9,9,-11,4,64,-66,-40,-51,-17,15
-11,-5,7,10,-10,2,64,-65,-40,-51,-17,15
-11,-7,6,11,-9,0,64,-65,-40,-51,-18,15
-11,-9,4,12,-8,-3,64,-64,-40,-51,-18,15
-11,-10,3,13,-7,-4,64,-64,-40,-51,-18,15
-11,-11,2,13,-7,-5,64,-63,-40,-51,-19,16
-11,-11,2,13,-7,-5,64,-63,-40,-51,-20,16
-11,-11,2,13,-7,-5,64,-62,-40,-51,-21,16
-11,-11,2,13,-7,-5,64,-62,-40,-52,-21,17
-11,-11,2,13,-7,-5,64,-61,-40,-53,-22,17
-11,-11,2,13,-7,-5,64,-61,-40,-53,-22,17
-11,-11,2,13,-7,-5,64,-60,-40,-54,-22,17
-11,-11,2,13,-7,-5,64,-60,-40,-55,-22,17
-11,-11,2,13,-7,-5,64,-59,-40,-55,-22,17
-11,-11,2,13,-7,-5,64,-59,-40,-55,-22,17
-11,-11,2,13,-7,-5,64,-58,-40,-55,-22,17
-11,-11,2,13,-7,-5,64,-58,-40,-55,-22,17
-11,-11,2,13,-7,-5,64,-58,-40,-55,-22,17
-11,-11,2,13,-7,-5,64,-58,-40,-55,-22,17
-11,-11,2,13,-7,-5,64,-58,-40,-55,-22,17
-11,-11,2,13,-7,-5,64,-58,-40,-55,-22,17
-11,-12,0,13,-6,-7,61,-55,-39,-52,-14,10
-10,-13,-1,13,-4,-8,56,-51,-39,-48,-3,-0
-9,-13,-2,13,-4,-9,55,-50,-38,-47,0,-3
-9,-13,-2,13,-4,-9,54,-49,-38,-46,1,-4
-9,-13,-2,13,-4,-9,54,-49,-38,-46,1,-5
-9,-13,-2,13,-4,-9,54,-49,-38,-46,2,-5
-9,-12,-1,13,-4,-8,54,-49,-39,-47,2,-5
-9,-11,-0,12,-5,-7,53,-49,-39,-47,2,-4
-9,-12,-1,13,-4,-8,53,-49,-39,-47,2,-4
-9,-13,-2,13,-4,-9,53,-49,-39,-47,2,-4
-9,-13,-2,13,-4,-9,53,-49,-38,-47,2,-4
-9,-13,-2,13,-4,-9,53,-49,-38,-47,2,-4
-9,-13,-2,13,-4,-9,53,-49,-38,-47,2,-4
-9,-13,-2,13,-4,-9,53,-49,-38,-47,2,-3
-9,-14,-3,13,-4,-10,53,-48,-39,-47,2,-3
-9,-15,-3,14,-3,-11,53,-48,-39,-47,3,-3
-9,-15,-4,14,-3,-12,53,-48,-39,-47,3,-2
-9,-15,-4,14,-3,-12,54,-48,-40,-47,3,-2
-9,-13,-2,13,-4,-9,53,-48,-40,-47,3,-2
-9,-12,-1,13,-4,-8,53,-47,-39,-48,3,-2
-9,-13,-2,13,-3,-9,53,-46,-39,-48,2,-2
-8,-12,-3,12,-3,-9,53,-45,-40,-48,2,-1
-8,-11,-2,11,-3,-8,53,-43,-39,-49,2,-1
-8,-11,-2,11,-3,-8,53,-41,-39,-48,2,-1
-8,-11,-2,11,-3,-8,53,-39,-40,-47,2,-1
-8,-12,-2,12,-3,-8,53,-38,-40,-46,3,-1
-9,-13,-2,13,-4,-9,53,-35,-40,-45,3,-0
-9,-13,-2,13,-4,-9,53,-34,-40,-45,3,0
-9,-14,-3,13,-3,-11,53,-32,-40,-44,3,0
-8,-15,-5,13,-1,-12,53,-31,-40,-44,3,1
-8,-15,-6,13,-0,-13,53,-29,-40,-44,3,1
-8,-15,-6,13,-0,-13,53,-29,-40,-44,3,1
-8,-15,-6,13,-0,-13,53,-28,-39,-44,3,1
-8,-15,-6,13,-0,-13,53,-27,-38,-44,3,2
-8,-15,-6,13,-0,-13,53,-27,-38,-44,3,2
-8,-16,-6,13,0,-14,53,-26,-38,-44,3,2
-8,-17,-7,14,0,-15,54,-26,-38,-44,4,3
-8,-18,-8,14,0,-15,54,-25,-38,-44,5,3
-8,-18,-8,15,1,-16,54,-24,-38,-45,6,4
-8,-22,-11,16,3,-20,54,-24,-38,-45,6,4
-8,-25,-14,19,4,-24,54,-23,-37,-45,7,4
-8,-28,-17,20,6,-27,54,-23,-37,-45,7,4
-8,-31,-19,21,7,-30,54,-22,-37,-45,7,4
-8,-32,-20,22,8,-32,54,-22,-37,-45,8,4
-8,-32,-21,22,8,-32,54,-21,-37,-45,8,5
-8,-33,-21,22,8,-33,54,-21,-38,-45,8,5
-8,-33,-21,22,8,-33,55,-21,-38,-45,8,6
-8,-33,-21,22,8,-33,55,-20,-38,-45,8,6
-8,-33,-21,22,8,-33,54,-20,-38,-45,8,6
-8,-33,-21,22,8,-33,54,-19,-38,-45,8,7
-7,-33,-22,22,9,-33,54,-19,-38,-45,8,6
-6,-33,-22,21,10,-34,54,-18,-38,-46,7,6
-6,-33,-22,22,10,-34,54,-18,-38,-46,7,7
-7,-33,-21,22,9,-33,54,-17,-38,-46,7,7
-8,-33,-21,22,8,-33,54,-17,-38,-46,7,7
-8,-32,-20,22,8,-32,54,-16,-38,-46,7,8
-8,-30,-19,21,7,-30,54,-16,-38,-46,7,8
-8,-29,-17,20,6,-28,55,-16,-38,-46,8,9
-8,-26,-15,19,5,-25,55,-16,-37,-46,8,9
-8,-25,-14,18,4,-24,55,-16,-36,-46,8,9
-8,-25,-14,18,4,-23,55,-16,-36,-46,8,9
-8,-24,-13,18,4,-23,55,-16,-36,-46,8,9
-8,-24,-13,18,4,-23,55,-16,-35,-46,8,9
-7,-24,-14,17,5,-23,55,-16,-35,-46,8,9
-6,-24,-15,17,6,-24,55,-16,-35,-46,7,9
-6,-24,-14,17,5,-24,54,-15,-36,-46,7,10
-7,-24,-14,18,4,-23,54,-15,-36,-46,7,10
-8,-24,-13,18,4,-23,55,-15,-36,-46,6,11
-8,-24,-13,18,4,-23,55,-15,-36,-45,5,11
-8,-24,-13,18,4,-23,55,-14,-35,-45,4,11
-7,-24,-14,17,5,-23,55,-14,-35,-45,3,11
-6,-24,-15,17,6,-24,55,-14,-34,-45,2,11
-7,-24,-14,18,4,-23,54,-14,-34,-45,1,11
-8,-24,-13,18,4,-23,54,-14,-34,-45,0,12
-6,-24,-14,17,5,-24,55,-13,-34,-46,-1,12
-6,-24,-14,17,5,-24,55,-13,-35,-46,-1,13
-7,-25,-15,18,5,-25,55,-13,-35,-46,-1,13
-6,-26,-16,18,7,-26,55,-13,-35,-46,-1,13
-6,-25,-16,17,6,-25,56,-13,-35,-46,-2,13
-7,-24,-14,17,5,-23,56,-13,-35,-46,-2,14
-7,-24,-14,17,5,-23,55,-13,-34,-46,-2,14
-6,-24,-15,17,6,-24,54,-13,-34,-46,-3,14
-7,-24,-14,18,4,-23,53,-13,-34,-46,-3,14
-8,-24,-13,18,4,-23,52,-13,-34,-46,-3,15
-6,-24,-14,17,5,-24,52,-13,-34,-47,-4,15
-6,-24,-15,17,6,-24,52,-12,-34,-47,-4,16
-6,-23,-14,16,6,-23,52,-12,-34,-47,-4,16
-6,-22,-14,16,5,-22,52,-12,-34,-47,-4,17
-6,-22,-13,15,5,-21,52,-11,-34,-46,-4,17
-6,-20,-12,14,4,-20,52,-11,-34,-46,-4,17
-6,-20,-11,14,4,-19,52,-11,-34,-47,-4,17
-6,-21,-12,15,4,-20,52,-11,-34,-47,-5,17
-6,-22,-13,15,5,-21,52,-11,-34,-47,-5,18
-6,-22,-13,15,5,-22,52,-11,-33,-47,-5,19
-6,-21,-13,15,4,-21,52,-10,-33,-47,-5,20
-6,-20,-12,14,4,-20,52,-10,-33,-47,-5,22
-6,-20,-11,14,4,-19,52,-9,-33,-47,-5,24
-6,-20,-11,14,4,-19,52,-9,-33,-47,-5,27
-6,-20,-11,14,4,-19,53,-8,-33,-47,-5,29
-6,-18,-10,13,3,-17,53,-7,-33,-47,-5,32
-6,-16,-8,13,2,-15,53,-7,-33,-46,-6,34
-6,-16,-8,13,2,-15,53,-7,-33,-45,-6,37
-6,-15,-7,12,1,-14,53,-8,-33,-45,-6,39
-6,-14,-6,11,1,-12,53,-8,-33,-45,-7,42
-6,-13,-5,11,0,-11,53,-8,-33,-44,-7,45
-6,-11,-4,10,-0,-10,53,-8,-32,-44,-7,47
-6,-11,-4,10,-0,-9,53,-8,-32,-44,-7,50
-6,-11,-4,10,-0,-9,53,-8,-33,-44,-7,52
-6,-11,-4,10,-0,-9,53,-8,-33,-44,-7,53
-6,-10,-3,9,-1,-8,53,-8,-33,-44,-7,54
-5,-9,-3,8,-0,-8,53,-8,-33,-44,-7,55
-4,-9,-3,7,0,-8,53,-8,-32,-44,-8,56
-4,-10,-4,8,0,-8,53,-8,-32,-44,-8,57
-5,-11,-4,9,-0,-9,53,-8,-32,-44,-8,58
-4,-9,-4,8,0,-8,52,-9,-32,-44,-8,60
-4,-10,-5,8,1,-9,52,-9,-33,-44,-9,61
-5,-11,-5,9,0,-10,52,-8,-32,-44,-9,62
-5,-11,-4,9,-0,-9,52,-8,-32,-44,-9,63
-6,-9,-2,9,-1,-7,53,-7,-31,-44,-9,64
-5,-8,-2,8,-1,-7,53,-7,-30,-44,-10,66
-3,-7,-2,6,0,-6,53,-7,-30,-43,-10,67
-1,-4,-2,3,1,-4,53,-7,-30,-42,-10,68
2,-0,-2,-0,3,-2,53,-7,-29,-41,-10,69
4,2,-2,-3,4,0,53,-6,-29,-40,-10,70
6,5,-1,-6,4,3,53,-6,-29,-39,-9,72
8,10,1,-9,4,6,53,-5,-28,-38,-8,73
11,15,3,-14,4,11,53,-3,-27,-37,-7,75
13,22,6,-19,4,16,54,-2,-26,-35,-6,77
15,26,8,-22,4,20,55,-2,-25,-34,-5,78
15,28,10,-24,3,22,56,-1,-24,-34,-5,80
17,31,11,-26,3,25,57,-1,-22,-33,-5,81
20,35,11,-30,5,27,57,-1,-21,-32,-4,82
24,39,11,-34,7,29,57,-1,-20,-31,-3,84
28,41,10,-38,10,30,57,-0,-20,-29,-3,85
31,43,8,-40,13,29,57,-0,-20,-29,-3,86
33,44,6,-42,15,29,57,0,-20,-28,-3,88
36,44,5,-44,17,28,57,0,-20,-28,-2,89
40,44,1,-46,22,26,56,1,-19,-28,-1,90
45,46,-3,-51,27,24,55,1,-19,-27,1,92
51,48,-7,-54,32,23,53,1,-18,-26,2,93
55,50,-9,-58,36,22,52,1,-17,-26,4,95
58,54,-10,-62,38,24,50,1,-17,-25,5,96
60,59,-6,-66,37,29,47,-0,-16,-25,6,97
62,65,-3,-70,37,35,43,-1,-16,-26,7,98
65,68,-3,-73,38,37,38,-3,-17,-27,7,100
66,68,-4,-75,40,36,35,-4,-18,-30,7,101
67,66,-7,-73,41,33,32,-5,-19,-33,5,103
66,61,-11,-70,44,27,30,-6,-21,-37,3,103
66,56,-14,-67,45,22,30,-8,-23,-41,2,104
64,51,-17,-64,45,18,30,-9,-24,-45,0,104
62,46,-19,-60,46,13,31,-10,-25,-47,-0,104
61,42,-22,-57,47,10,31,-10,-26,-49,-1,104
59,40,-22,-55,46,8,32,-10,-26,-50,-1,104
57,36,-23,-52,45,5,31,-11,-27,-51,-2,104
55,34,-24,-50,44,4,31,-11,-28,-52,-2,105
52,32,-22,-47,42,3,31,-12,-29,-53,-3,105
48,27,-22,-42,40,1,32,-12,-30,-54,-3,106
43,22,-22,-37,37,-3,33,-13,-32,-55,-3,106
40,17,-23,-32,35,-6,34,-13,-32,-56,-3,106
35,14,-21,-27,32,-7,35,-13,-33,-57,-4,106
29,10,-19,-22,27,-7,35,-14,-33,-59,-6,106
24,6,-17,-17,23,-8,36,-14,-33,-59,-7,106
17,3,-14,-11,18,-8,37,-14,-33,-59,-9,106
11,1,-10,-6,12,-6,38,-14,-33,-59,-10,105
6,-0,-5,-2,7,-4,40,-13,-33,-59,-11,105
-1,-2,-0,2,0,-2,41,-13,-33,-59,-11,105
-8,-4,4,7,-7,0,42,-13,-33,-60,-11,105
-11,-6,6,10,-10,1,43,-13,-33,-60,-12,105
-13,-7,7,12,-11,1,43,-13,-33,-61,-13,104
-15,-8,8,14,-13,1,43,-13,-33,-61,-13,104
-17,-9,8,15,-14,0,43,-13,-33,-62,-14,104
-17,-11,8,16,-14,-1,43,-14,-34,-62,-15,104
-17,-12,6,17,-13,-3,43,-14,-34,-63,-16,104
-17,-14,4,18,-11,-6,43,-15,-34,-63,-16,105
-15,-15,2,17,-9,-8,43,-15,-35,-63,-17,105
-14,-14,1,16,-8,-8,42,-15,-36,-63,-17,106
-14,-14,2,16,-9,-7,43,-15,-36,-63,-17,106
-15,-13,4,16,-10,-5,43,-14,-36,-62,-17,106
-15,-11,5,15,-11,-3,43,-14,-36,-62,-17,106
-16,-12,6,16,-12,-3,43,-14,-35,-62,-17,106
-17,-13,6,17,-12,-4,43,-14,-34,-62,-17,107
-17,-13,6,18,-13,-4,43,-14,-34,-63,-18,107
-17,-13,6,18,-13,-4,43,-14,-33,-63,-18,107
-17,-13,5,17,-12,-5,44,-13,-32,-64,-18,107
-16,-12,5,16,-11,-4,45,-13,-33,-64,-18,107
-15,-11,5,15,-11,-3,46,-12,-33,-64,-18,108
-16,-11,6,16,-12,-2,47,-12,-33,-63,-18,108
-17,-11,7,16,-13,-2,48,-12,-33,-62,-17,108
-18,-10,9,16,-15,0,48,-11,-33,-62,-17,109
-19,-9,11,16,-16,2,49,-11,-32,-62,-17,109
-20,-9,11,17,-17,2,50,-11,-31,-62,-17,109
-20,-14,8,19,-15,-3,53,-9,-31,-62,-18,108
-28,-18,11,26,-22,-3,54,-8,-30,-64,-21,109
-30,-25,8,31,-21,-9,60,-5,-31,-65,-23,108
-30,-31,2,34,-17,-17,63,-2,-31,-67,-25,106
-26,-36,-6,34,-11,-24,72,5,-23,-67,-28,105
-32,-36,0,38,-17,-21,88,12,-18,-66,-28,105
-8,-36,-23,24,9,-36,98,25,-8,-59,-27,105
4,-36,-34,17,22,-43,111,41,5,-50,-22,106
18,-33,-46,8,37,-49,132,61,19,-38,-14,112
32,-20,-48,-7,45,-43,152,81,39,-18,1,112
49,-7,-53,-25,59,-39,161,91,57,2,16,115
87,17,-68,-59,88,-36,156,92,75,25,36,121
125,54,-72,-101,111,-17,141,82,84,47,61,128
170,94,-82,-149,142,-1,123,74,97,76,90,135
209,131,-87,-191,167,17,93,55,104,101,117,145
251,171,-93,-237,194,36,55,30,99,121,144,154
296,226,-89,-292,217,70,8,-0,91,138,169,162
318,278,-65,-333,215,116,-41,-35,82,149,190,171
320,283,-63,-336,215,120,-78,-60,70,154,205,179
304,285,-46,-328,196,132,-105,-80,56,155,210,182
269,285,-11,-307,156,155,-117,-96,41,130,195,181
225,254,4,-266,123,147,-117,-104,21,99,172,176
200,228,6,-237,108,133,-117,-114,-5,66,149,171
166,221,32,-214,74,147,-114,-122,-29,35,126,165
113,217,80,-180,17,176,-115,-137,-59,-3,100,159
63,208,120,-146,-34,197,-124,-156,-94,-44,70,152
18,215,169,-123,-88,233,-134,-169,-124,-70,49,145
-38,215,222,-91,-150,268,-150,-178,-145,-95,27,138
-87,206,262,-57,-200,290,-157,-180,-154,-112,7,132
-123,188,281,-27,-231,292,-162,-176,-156,-117,-11,124
-132,171,276,-12,-233,278,-156,-163,-144,-113,-20,119
-132,142,251,3,-219,246,-149,-148,-134,-113,-22,117
-125,109,215,16,-194,203,-127,-129,-125,-113,-28,114
-83,79,148,7,-132,142,-112,-111,-116,-112,-31,112
-89,63,141,19,-131,128,-92,-98,-102,-111,-34,111
-81,48,120,23,-115,106,-60,-78,-89,-103,-34,110
-63,35,91,19,-88,80,-38,-62,-75,-94,-33,110
-51,24,70,18,-69,60,-21,-48,-64,-84,-29,110
-61,19,76,26,-78,61,-3,-37,-53,-81,-25,112
-57,17,70,25,-73,56,10,-28,-49,-75,-22,113
-49,13,59,23,-62,46,20,-25,-44,-69,-19,113
-51,6,55,27,-60,40,27,-20,-39,-66,-17,113
-47,11,55,23,-58,42,34,-17,-35,-64,-16,113
-36,11,44,16,-45,35,36,-13,-32,-62,-18,112
-32,11,40,13,-41,32,40,-10,-31,-65,-18,112
-32,-3,29,20,-34,17,43,-7,-29,-65,-19,111
-22,-7,15,17,-21,6,48,-5,-27,-65,-20,111
-18,-11,8,17,-14,-2,52,-4,-25,-63,-20,110
-34,-16,19,28,-30,4,55,-2,-23,-63,-20,113
-34,-18,17,30,-28,1,57,-1,-24,-62,-20,113
-32,-18,15,29,-26,-1,58,-0,-23,-62,-20,112
-32,-19,14,29,-26,-2,59,1,-22,-61,-18,111
-31,-20,13,29,-24,-3,59,2,-22,-61,-17,111
-28,-20,11,27,-22,-5,60,3,-22,-61,-17,111
-26,-21,8,27,-19,-7,61,5,-21,-61,-17,111
-26,-22,6,27,-17,-9,62,6,-21,-60,-18,111
-25,-24,3,28,-15,-12,63,6,-20,-61,-18,112
-24,-25,1,28,-14,-14,63,7,-20,-61,-19,112
-23,-26,0,28,-13,-15,64,7,-20,-61,-20,112
-22,-26,-1,27,-11,-16,65,7,-19,-60,-19,112
-22,-26,-1,27,-11,-16,65,7,-18,-60,-18,112
-24,-26,1,29,-14,-15,66,7,-18,-59,-18,112
-24,-26,1,29,-14,-15,66,8,-18,-58,-17,112
-24,-26,0,28,-13,-15,66,8,-18,-57,-17,112
-23,-26,0,28,-13,-15,66,9,-18,-57,-17,112
-23,-26,-1,28,-12,-16,67,9,-18,-57,-17,112
-22,-26,-2,27,-11,-16,68,9,-18,-57,-17,112
-21,-27,-3,27,-10,-18,68,9,-17,-56,-17,113
-21,-28,-3,28,-10,-19,68,10,-17,-56,-17,113
-21,-29,-5,28,-8,-20,68,10,-17,-56,-17,113
-20,-28,-5,27,-8,-19,68,10,-16,-55,-16,113
-21,-27,-3,27,-10,-17,68,10,-16,-55,-16,113
-21,-26,-2,27,-11,-17,68,10,-15,-54,-15,113
-20,-26,-3,26,-9,-17,69,11,-15,-54,-15,113
-20,-26,-3,26,-9,-18,69,11,-15,-54,-15,113
-19,-26,-4,25,-8,-18,69,12,-15,-54,-15,114
-18,-26,-5,25,-7,-19,69,13,-15,-53,-15,114
-17,-26,-6,25,-6,-19,70,14,-15,-53,-15,114
-17,-26,-6,25,-6,-19,70,15,-14,-52,-14,114
-17,-26,-6,24,-5,-20,71,16,-13,-52,-14,114
-16,-25,-6,23,-5,-19,72,16,-13,-52,-14,114
-15,-25,-6,23,-5,-18,72,17,-12,-51,-13,113
-15,-24,-6,22,-5,-18,72,18,-12,-51,-12,113
-15,-24,-6,22,-4,-18,72,19,-12,-51,-12,113
-14,-24,-7,21,-3,-19,73,20,-11,-51,-11,113
-13,-24,-8,21,-3,-19,74,21,-11,-50,-11,114
-13,-23,-8,20,-2,-19,75,22,-10,-50,-11,114
-12,-22,-8,19,-2,-18,75,22,-10,-50,-11,113
-11,-22,-8,19,-2,-18,75,23,-9,-49,-11,113
-11,-21,-8,18,-1,-17,76,23,-8,-49,-11,113
-10,-20,-8,17,-1,-17,76,24,-8,-49,-10,112
-9,-20,-8,16,0,-17,76,24,-7,-48,-10,112
-8,-19,-8,15,1,-17,77,25,-6,-48,-10,112
-8,-18,-8,14,1,-16,77,25,-5,-47,-9,113
-8,-17,-7,14,0,-15,78,26,-5,-47,-9,113
-8,-14,-5,13,-1,-12,79,27,-5,-46,-9,113
-7,-11,-3,11,-2,-9,79,27,-4,-46,-8,113
-6,-9,-2,9,-2,-6,80,28,-3,-46,-8,113
-5,-7,-1,7,-2,-5,80,29,-2,-45,-8,113
-4,-6,-2,6,-1,-5,81,29,-1,-45,-7,113
-2,-5,-2,5,0,-4,82,30,1,-44,-7,113
-2,-4,-2,4,0,-4,82,30,3,-44,-7,113
-1,-4,-2,4,1,-4,83,31,4,-43,-7,114
0,-4,-3,3,2,-5,84,33,5,-43,-6,114
1,-4,-3,2,3,-5,84,34,6,-42,-6,114
2,-3,-4,1,4,-4,84,35,7,-42,-5,114
2,-2,-4,0,4,-4,85,36,7,-41,-5,114
2,-2,-4,0,4,-4,86,37,8,-40,-4,114
3,-1,-4,-0,4,-4,87,38,9,-39,-4,114
4,-0,-4,-2,5,-3,88,39,10,-38,-3,114
6,0,-5,-3,7,-4,88,40,12,-36,-2,114
7,1,-6,-4,7,-4,89,41,13,-36,-2,114
8,3,-5,-5,7,-2,90,41,14,-35,-2,114
8,4,-4,-6,7,-1,90,42,14,-34,-2,114
9,4,-5,-7,8,-1,91,43,15,-33,-1,114
11,4,-6,-8,10,-2,91,45,16,-32,-0,114
13,4,-8,-9,12,-3,92,46,16,-31,0,115
13,4,-9,-10,13,-4,93,48,17,-30,1,115
14,6,-8,-11,13,-3,95,50,18,-29,1,115
15,7,-8,-13,13,-1,95,51,19,-29,2,115
16,8,-8,-13,14,-1,96,52,20,-28,3,115
17,9,-9,-14,15,-1,97,53,21,-27,4,115
18,11,-8,-16,15,1,98,54,23,-26,5,115
20,12,-8,-17,16,1,99,56,24,-25,6,116
21,12,-9,-18,17,1,100,58,25,-24,7,116
22,13,-10,-19,18,1,101,59,26,-23,7,116
25,14,-11,-21,20,1,102,61,27,-22,8,117
26,15,-12,-23,22,1,103,63,28,-21,9,117
27,16,-12,-24,22,1,104,65,30,-19,10,117
28,17,-12,-25,23,2,105,66,31,-18,11,117
30,18,-13,-26,24,2,106,68,33,-17,12,117
32,19,-13,-28,26,2,107,69,35,-16,13,117
33,21,-13,-30,26,3,109,70,37,-15,14,117
35,22,-14,-32,28,3,110,72,38,-14,15,117
38,24,-16,-34,30,3,110,73,39,-12,16,118
39,25,-16,-36,31,4,112,75,40,-11,17,118
40,26,-15,-37,31,5,113,77,41,-9,18,119
41,28,-15,-38,32,6,114,79,41,-8,20,119
42,29,-15,-39,32,6,116,81,43,-7,20,120
44,30,-16,-41,34,7,117,82,44,-5,21,120
47,32,-17,-44,36,7,118,83,45,-4,21,120
49,35,-16,-46,37,9,119,84,47,-2,21,120
50,36,-16,-48,37,10,120,86,49,-1,21,120
51,37,-17,-49,38,10,121,87,50,0,22,121
53,39,-16,-51,39,11,121,88,52,1,23,121
54,41,-16,-53,39,13,122,89,53,2,25,122
55,43,-16,-54,40,14,123,90,54,4,26,122
57,45,-16,-57,41,15,124,92,55,5,27,123
58,47,-15,-58,41,17,125,93,56,6,28,123
60,48,-15,-60,42,17,126,95,58,7,29,124
61,50,-15,-62,43,18,126,96,59,8,30,124
62,51,-15,-63,44,19,127,97,60,10,31,124
64,53,-15,-64,44,20,127,97,62,12,32,124
65,54,-15,-66,45,21,128,98,63,14,33,124
67,58,-14,-69,46,23,128,98,63,15,34,125
68,61,-13,-71,46,26,128,99,64,16,34,125
69,62,-12,-73,45,28,128,99,65,17,36,126
69,63,-12,-73,45,28,128,100,65,18,37,126
69,64,-11,-74,45,29,128,100,66,19,37,127
70,65,-10,-75,45,30,128,100,67,19,38,126
72,68,-10,-77,46,32,128,100,67,20,38,126
73,69,-10,-78,46,33,128,100,68,20,39,126
74,69,-10,-79,47,33,127,100,69,21,39,126
75,70,-11,-80,48,33,126,100,69,21,40,126
74,72,-9,-81,47,35,124,100,69,21,40,126
74,72,-8,-81,45,36,123,100,69,22,41,126
73,74,-6,-81,44,38,121,100,69,22,41,127
73,73,-6,-81,44,37,121,100,70,21,42,127
73,72,-8,-80,45,35,120,99,70,20,42,127
73,70,-9,-79,46,34,119,98,70,20,42,128
73,70,-10,-79,46,33,117,97,70,19,42,128
73,70,-10,-79,46,33,116,95,70,19,42,128
73,70,-10,-79,46,33,114,94,70,19,42,128
72,70,-9,-79,45,34,113,93,69,19,42,128
71,70,-7,-78,44,35,112,91,68,18,42,128
70,70,-6,-77,42,36,110,89,67,17,42,128
69,70,-6,-77,42,36,108,87,66,17,42,128
68,70,-5,-76,41,36,106,85,64,16,41,128
66,69,-4,-75,39,37,104,83,63,15,40,128
64,67,-3,-73,38,36,101,81,61,14,39,128
63,66,-3,-71,37,35,98,79,60,13,38,127
61,65,-2,-70,36,35,95,76,58,11,37,127
59,63,-2,-68,34,35,92,73,56,10,36,126
57,61,-2,-65,33,33,90,71,54,8,34,126
55,60,-1,-63,32,33,89,68,52,6,33,126
53,58,-0,-61,30,32,86,66,50,4,31,125
49,55,1,-57,27,32,84,63,47,2,29,125
46,52,2,-54,25,31,82,61,45,0,27,124
43,51,3,-52,23,31,80,58,43,-2,26,124
42,49,3,-50,22,29,78,56,41,-4,24,123
40,46,2,-47,21,28,76,53,39,-6,22,122
38,43,2,-44,20,26,75,51,36,-8,20,121
36,40,1,-42,19,24,75,48,34,-11,18,121
34,37,0,-39,19,21,75,46,31,-13,17,120
30,35,1,-36,16,20,74,44,28,-14,15,120
26,32,3,-32,13,20,72,42,26,-16,14,119
25,31,4,-31,11,20,71,40,23,-17,12,119
23,30,5,-29,10,20,70,38,21,-18,10,119
19,27,5,-25,8,19,68,37,19,-20,9,118
17,24,5,-22,7,17,66,35,17,-22,7,118
15,22,4,-20,6,15,64,34,15,-23,5,117
