I,II,III,aVR,aVL,aVF,V1,V2,V3,V4,V5,V6
13,-35,-31,29,27,-36,5,17,-3,16,-4,-20
12,-34,-30,27,25,-34,5,13,-6,13,-5,-18
12,-32,-29,26,25,-33,4,10,-9,10,-6,-17
12,-30,-28,24,24,-31,3,6,-11,6,-7,-15
11,-28,-25,22,22,-29,3,2,-13,2,-8,-14
10,-25,-23,20,20,-26,2,-1,-15,-1,-9,-12
9,-22,-20,17,17,-22,1,-3,-16,-5,-10,-11
7,-19,-17,16,15,-20,0,-5,-18,-7,-11,-10
6,-18,-16,16,14,-18,-1,-8,-20,-9,-11,-10
5,-17,-14,15,12,-17,-2,-10,-21,-12,-12,-9
4,-16,-13,15,11,-15,-3,-12,-22,-13,-13,-9
3,-15,-12,14,10,-14,-3,-14,-23,-15,-13,-8
3,-14,-11,13,9,-13,-4,-16,-24,-16,-12,-7
3,-13,-11,12,9,-13,-4,-18,-25,-16,-11,-6
3,-13,-11,12,9,-13,-5,-18,-25,-16,-11,-5
3,-13,-11,12,9,-13,-5,-19,-26,-16,-11,-5
3,-13,-11,12,9,-13,-5,-19,-26,-16,-11,-5
3,-13,-11,12,9,-13,-5,-19,-26,-16,-11,-5
3,-13,-11,12,9,-13,-5,-19,-26,-16,-11,-5
-2,-12,-8,15,5,-11,-3,-20,-29,-18,-13,-0
-9,-11,-4,19,0,-8,-2,-22,-32,-21,-14,6
-11,-11,-2,20,-2,-6,-1,-23,-34,-22,-15,8
-12,-11,-2,20,-2,-6,-1,-23,-34,-22,-15,9
-13,-11,-2,20,-3,-6,-0,-23,-34,-22,-15,10
-13,-11,-2,20,-3,-6,1,-23,-34,-23,-15,10
-13,-11,-2,20,-3,-6,3,-23,-34,-24,-15,11
-13,-11,-2,20,-3,-6,4,-23,-34,-25,-15,12
-13,-11,-2,20,-3,-6,6,-23,-34,-26,-15,13
-13,-11,-2,20,-3,-6,7,-23,-34,-26,-15,13
-13,-11,-2,20,-3,-6,8,-23,-34,-27,-15,13
-13,-11,-2,20,-3,-6,9,-23,-34,-27,-15,13
-13,-11,-2,20,-3,-6,10,-23,-34,-26,-15,13
-13,-11,-2,20,-3,-6,11,-23,-34,-25,-15,13
-13,-11,-2,20,-3,-6,12,-23,-34,-24,-15,13
-13,-11,-2,20,-3,-6,12,-23,-34,-23,-15,13
-13,-11,-2,20,-3,-6,13,-23,-34,-22,-15,13
-13,-11,-2,20,-3,-6,13,-23,-34,-22,-15,12
-13,-11,-2,20,-3,-6,13,-23,-34,-22,-15,11
-13,-11,-2,20,-3,-6,13,-23,-34,-22,-15,10
-14,-11,-1,21,-3,-6,14,-23,-34,-22,-16,10
-16,-11,0,23,-5,-5,14,-23,-34,-23,-17,10
-19,-11,1,25,-7,-4,15,-23,-34,-24,-18,9
-22,-11,3,26,-9,-3,16,-23,-34,-25,-19,9
-24,-11,4,28,-10,-3,17,-23,-34,-26,-20,9
-24,-11,4,28,-11,-3,18,-23,-34,-26,-20,9
-25,-11,4,29,-11,-2,19,-23,-34,-27,-21,9
-25,-11,4,29,-11,-2,20,-23,-34,-27,-21,9
-25,-11,4,29,-11,-2,20,-23,-34,-27,-21,9
-25,-11,4,29,-11,-2,20,-23,-34,-27,-21,9
-25,-11,4,29,-11,-2,21,-23,-34,-27,-21,9
-25,-11,4,29,-11,-2,21,-23,-34,-27,-21,9
-25,-11,4,29,-11,-2,20,-23,-34,-26,-21,9
-25,-11,4,29,-11,-2,19,-23,-34,-25,-21,8
-25,-11,4,29,-11,-2,19,-23,-34,-24,-21,7
-25,-11,4,29,-11,-2,18,-23,-34,-23,-21,6
-25,-11,4,29,-11,-2,17,-23,-34,-22,-21,6
-25,-11,4,29,-11,-2,16,-22,-34,-21,-21,6
-25,-11,4,29,-11,-2,15,-20,-33,-20,-21,5
-25,-11,4,29,-11,-2,14,-19,-33,-19,-21,5
-25,-10,5,27,-12,-1,14,-18,-32,-18,-20,5
-25,-7,7,24,-14,2,14,-18,-31,-18,-19,5
-25,-3,10,20,-15,5,13,-17,-31,-17,-18,5
-25,1,13,16,-17,9,13,-17,-30,-17,-17,5
-25,4,15,13,-19,11,13,-17,-30,-17,-16,6
-25,5,16,12,-19,12,13,-17,-30,-17,-15,7
-25,5,16,12,-19,12,13,-17,-30,-17,-15,7
-25,5,16,12,-19,12,13,-17,-30,-17,-15,8
-25,5,16,12,-19,12,13,-17,-30,-17,-15,9
-25,5,16,12,-19,12,13,-17,-30,-17,-15,9
-25,5,16,12,-19,12,13,-17,-30,-17,-15,9
-25,5,16,12,-19,12,13,-17,-30,-17,-15,9
-25,5,16,12,-19,12,13,-17,-30,-17,-15,9
-25,5,16,12,-19,12,13,-17,-30,-17,-15,9
-23,12,20,4,-22,19,11,-17,-28,-13,-13,10
-20,23,26,-8,-25,27,8,-17,-26,-6,-9,11
-19,26,28,-12,-27,30,8,-17,-25,-4,-8,11
-19,27,29,-14,-27,31,7,-17,-24,-4,-7,11
-18,27,29,-15,-26,31,7,-17,-24,-3,-7,11
-15,28,28,-17,-25,31,6,-16,-24,-3,-6,12
-13,29,28,-20,-24,31,6,-16,-25,-2,-6,12
-13,30,28,-20,-24,31,5,-16,-25,-3,-6,12
-11,30,27,-21,-23,31,4,-18,-26,-3,-6,13
-10,29,26,-21,-22,30,4,-18,-26,-4,-6,13
-9,27,25,-20,-20,28,3,-20,-27,-5,-7,14
-9,25,23,-17,-19,26,3,-22,-28,-6,-7,14
-11,22,21,-14,-19,23,2,-25,-29,-7,-8,15
-12,19,20,-10,-18,21,1,-28,-30,-8,-9,16
-11,16,17,-7,-16,18,1,-30,-31,-9,-10,16
-10,13,15,-6,-14,15,0,-32,-32,-10,-11,16
-9,12,13,-5,-12,14,-0,-34,-33,-12,-12,16
-6,11,11,-6,-10,12,-1,-35,-33,-13,-13,16
-5,9,9,-5,-8,10,-1,-37,-34,-14,-14,15
-6,7,8,-2,-8,8,-2,-38,-35,-15,-15,15
-6,5,7,0,-7,6,-3,-39,-36,-16,-15,15
-6,3,6,2,-6,5,-5,-40,-37,-18,-17,15
-8,0,4,6,-5,3,-5,-40,-38,-19,-17,16
-10,-2,3,10,-5,1,-5,-42,-39,-20,-18,17
-13,-5,3,14,-6,-0,-5,-43,-39,-21,-19,18
-16,-8,2,19,-6,-2,-5,-45,-39,-22,-19,19
-18,-11,1,23,-6,-4,-4,-45,-40,-23,-20,21
-18,-13,-1,26,-5,-6,-3,-46,-40,-23,-20,22
-19,-15,-2,29,-5,-8,-1,-46,-40,-24,-21,23
-18,-16,-3,30,-3,-9,0,-45,-41,-24,-21,25
-16,-17,-4,29,-2,-10,2,-44,-41,-24,-20,27
-15,-17,-5,29,-1,-11,3,-42,-41,-24,-19,29
-13,-17,-6,27,0,-12,3,-40,-40,-24,-17,31
-13,-17,-6,27,0,-12,5,-37,-40,-23,-15,34
-13,-17,-6,27,0,-12,6,-34,-40,-23,-13,36
-13,-17,-6,27,0,-12,7,-32,-39,-22,-12,39
-11,-17,-7,26,1,-12,8,-30,-39,-21,-11,41
-10,-17,-7,25,2,-13,10,-28,-38,-21,-11,43
-9,-18,-9,25,3,-14,11,-26,-37,-20,-11,45
-6,-19,-10,25,5,-15,13,-24,-37,-19,-10,46
-4,-19,-12,24,7,-16,14,-22,-36,-17,-10,47
-4,-20,-13,24,8,-17,15,-20,-36,-17,-10,48
-3,-22,-14,25,9,-19,16,-18,-35,-16,-10,48
-3,-23,-15,27,10,-20,18,-16,-35,-16,-10,49
-4,-25,-16,30,10,-22,19,-14,-34,-16,-10,50
-6,-27,-16,32,10,-23,19,-11,-34,-16,-11,50
-6,-28,-17,34,10,-23,20,-9,-34,-16,-11,50
-6,-30,-18,35,11,-25,21,-8,-34,-16,-12,50
-6,-31,-19,36,12,-26,21,-8,-34,-17,-12,50
-8,-31,-19,38,11,-26,22,-8,-34,-17,-13,50
-10,-32,-18,39,10,-26,22,-8,-34,-17,-13,50
-13,-32,-17,42,8,-26,22,-8,-34,-17,-13,49
-16,-33,-16,45,7,-26,22,-8,-34,-17,-13,49
-19,-34,-15,48,5,-25,22,-7,-34,-18,-14,49
-21,-34,-14,48,3,-25,22,-7,-34,-18,-14,48
-21,-34,-15,50,3,-25,22,-7,-33,-19,-14,48
-22,-35,-15,51,3,-26,22,-7,-33,-19,-14,48
-22,-36,-15,52,4,-26,22,-7,-32,-19,-14,48
-22,-36,-15,52,4,-26,22,-8,-32,-19,-14,48
-22,-36,-15,52,4,-26,22,-8,-32,-18,-14,48
-22,-36,-15,52,4,-26,22,-7,-31,-18,-14,48
-22,-36,-15,52,4,-26,23,-7,-31,-17,-14,49
-21,-37,-17,52,5,-28,23,-7,-31,-17,-14,49
-18,-39,-19,52,8,-30,23,-7,-32,-18,-14,50
-16,-39,-21,51,10,-31,23,-8,-32,-19,-14,50
-13,-38,-22,48,11,-31,24,-8,-32,-18,-13,50
-11,-39,-23,48,13,-33,24,-6,-32,-16,-12,50
-9,-39,-24,46,14,-33,25,-5,-32,-15,-11,50
-5,-36,-24,41,15,-31,25,-5,-31,-14,-12,51
-1,-34,-24,36,17,-31,26,-5,-32,-13,-13,51
3,-34,-26,34,19,-32,29,-5,-32,-14,-13,51
3,-32,-24,32,18,-30,27,-8,-35,-19,-17,50
3,-26,-20,25,15,-24,27,-4,-35,-21,-18,49
18,-28,-29,17,27,-31,28,-5,-39,-26,-21,48
-10,-32,-18,40,10,-26,26,-10,-42,-29,-25,46
-10,-42,-26,50,15,-36,24,-15,-45,-31,-28,45
-23,-48,-24,65,10,-38,18,-21,-48,-37,-33,40
-26,-50,-24,69,9,-39,18,-31,-50,-45,-41,37
-29,-50,-23,70,7,-38,18,-34,-46,-38,-45,33
-29,-50,-23,70,7,-38,20,-28,-37,-25,-41,36
-29,-50,-23,70,7,-38,21,-19,-24,-6,-43,34
-35,-44,-15,69,-1,-30,22,-22,-16,6,-40,32
-35,-36,-9,61,-5,-22,22,-18,-11,15,-43,28
-41,-22,4,50,-16,-7,21,-19,-20,-7,-54,23
-60,-11,21,52,-35,8,15,-37,-39,-53,-75,16
-63,3,33,39,-44,22,7,-51,-62,-92,-86,14
-63,19,45,23,-53,37,1,-68,-84,-132,-97,17
-63,40,60,2,-63,56,-5,-90,-106,-161,-96,22
-51,58,67,-24,-64,69,-14,-107,-123,-181,-82,38
-19,64,57,-51,-46,66,-25,-121,-140,-199,-68,55
3,77,55,-77,-38,70,-27,-122,-149,-203,-54,78
28,85,49,-102,-25,70,-32,-131,-160,-206,-37,90
49,85,39,-116,-11,64,-34,-133,-166,-207,-24,107
87,81,18,-137,17,48,-37,-139,-180,-216,-11,125
115,77,1,-151,38,36,-47,-160,-198,-235,2,146
168,81,-21,-189,72,24,-63,-184,-213,-232,38,177
231,64,-63,-214,122,-10,-71,-178,-214,-221,78,215
299,56,-102,-251,173,-39,-73,-175,-209,-199,118,250
334,34,-135,-251,208,-70,-74,-162,-201,-183,146,276
387,25,-166,-278,248,-94,-69,-142,-194,-174,164,305
378,32,-157,-278,238,-85,-72,-157,-188,-185,156,319
359,40,-143,-274,222,-72,-69,-157,-178,-176,167,335
303,64,-98,-261,171,-32,-66,-163,-172,-184,154,340
221,77,-50,-220,110,4,-69,-180,-159,-173,130,324
159,89,-11,-192,61,34,-66,-181,-148,-160,103,302
109,95,18,-166,24,55,-63,-181,-139,-152,74,277
71,83,27,-129,5,55,-58,-169,-128,-132,55,258
49,77,33,-108,-6,56,-53,-152,-117,-117,39,238
40,70,33,-96,-9,53,-45,-146,-110,-115,16,221
31,64,33,-84,-13,50,-38,-134,-103,-108,-5,198
-4,50,39,-47,-28,47,-33,-118,-94,-94,-17,179
-16,46,42,-34,-35,47,-26,-107,-89,-88,-20,165
-29,25,33,-6,-32,32,-19,-95,-81,-84,-26,156
-35,30,39,-6,-39,38,-14,-86,-75,-71,-28,147
-44,32,45,-2,-46,43,-11,-75,-69,-66,-29,136
-35,30,39,-6,-39,38,-6,-63,-64,-60,-36,126
-10,17,18,-10,-16,19,1,-49,-57,-55,-36,117
-66,11,40,34,-51,30,6,-39,-51,-43,-28,111
-35,15,28,9,-32,25,9,-27,-46,-34,-25,108
-29,5,18,15,-22,13,11,-21,-43,-27,-24,102
-26,-3,10,21,-16,5,14,-13,-41,-26,-20,101
-26,-9,6,27,-12,-1,20,-4,-38,-20,-18,101
-26,-26,-6,44,-4,-16,25,5,-32,-15,-13,103
-19,-28,-11,42,1,-20,31,14,-27,-9,-7,100
-19,-34,-15,48,5,-25,30,19,-24,-6,-7,95
-19,-34,-15,48,5,-25,34,22,-22,1,-6,94
-19,-32,-14,46,3,-23,36,25,-18,1,-6,91
-19,-29,-12,43,3,-21,34,25,-18,1,-6,90
-19,-28,-11,42,2,-20,32,26,-17,1,-7,89
-19,-27,-10,41,1,-19,32,26,-17,2,-8,89
-19,-26,-10,39,1,-18,31,26,-17,2,-10,88
-20,-26,-9,41,0,-18,30,27,-17,2,-12,87
-23,-28,-9,45,-1,-19,30,28,-16,2,-12,87
-26,-30,-9,49,-2,-20,30,28,-16,3,-12,87
-26,-30,-9,48,-2,-20,29,29,-15,3,-11,87
-23,-25,-7,42,-3,-16,29,30,-14,4,-9,87
-23,-23,-5,39,-3,-14,29,31,-14,4,-8,88
-20,-22,-6,36,-2,-14,29,31,-13,4,-7,88
-19,-22,-7,36,-2,-14,29,30,-13,4,-7,88
-21,-24,-7,39,-2,-16,28,30,-14,4,-7,88
-22,-24,-7,40,-2,-16,28,29,-14,4,-6,87
-21,-24,-7,39,-2,-16,27,29,-14,4,-5,87
-19,-23,-7,38,-1,-16,27,29,-13,5,-4,87
-19,-23,-8,37,-0,-16,26,30,-13,5,-3,87
-19,-23,-8,37,-0,-16,26,32,-12,6,-2,87
-19,-23,-8,37,-0,-16,27,34,-11,6,-2,87
-20,-23,-7,38,-1,-15,27,35,-11,6,-2,87
-21,-23,-7,39,-2,-15,27,36,-10,7,-1,86
-21,-23,-6,38,-2,-14,27,37,-10,7,-1,86
-19,-22,-6,36,-2,-14,28,37,-9,7,-0,85
-19,-21,-6,35,-2,-14,28,37,-9,7,-0,84
-19,-22,-7,36,-1,-14,28,37,-9,8,-1,83
-19,-23,-7,37,-1,-15,29,38,-8,8,-2,83
-19,-23,-8,37,-0,-16,29,38,-7,8,-3,83
-19,-23,-8,37,-0,-16,29,38,-7,8,-3,83
-19,-23,-8,37,-0,-16,29,39,-6,9,-4,82
-19,-23,-8,37,-0,-16,29,41,-5,9,-4,82
-19,-23,-7,36,-1,-15,30,43,-5,9,-4,81
-19,-22,-7,35,-1,-14,30,45,-5,10,-3,80
-19,-21,-6,35,-2,-14,30,46,-4,10,-3,79
-19,-21,-6,35,-2,-14,30,47,-4,11,-3,79
-19,-21,-6,35,-2,-14,31,47,-4,12,-3,78
-19,-20,-6,34,-2,-13,31,48,-3,12,-3,78
-19,-20,-5,34,-3,-12,32,49,-3,13,-2,77
-19,-19,-5,33,-3,-12,32,49,-3,13,-2,77
-19,-19,-5,33,-3,-12,32,50,-2,14,-2,76
-19,-19,-5,33,-3,-12,33,50,-2,15,-2,75
-19,-19,-5,33,-3,-12,33,51,-1,16,-1,74
-19,-19,-5,33,-3,-12,33,51,-1,17,-1,74
-18,-19,-5,32,-2,-12,34,52,-0,17,-0,73
-16,-19,-6,31,-1,-13,34,52,0,18,-0,73
-17,-20,-6,33,-1,-13,35,54,1,19,-0,73
-18,-21,-6,34,-1,-14,35,55,2,21,0,72
-19,-21,-6,35,-2,-14,36,55,2,22,1,71
-19,-21,-6,35,-2,-14,36,57,3,23,1,70
-19,-22,-7,36,-1,-14,37,58,4,24,2,69
-18,-23,-8,36,0,-16,37,58,5,25,2,69
-16,-23,-9,35,1,-16,38,58,7,27,4,69
-15,-23,-10,34,2,-17,39,58,9,28,4,69
-13,-23,-10,34,3,-17,39,58,10,30,5,69
-12,-23,-11,33,4,-18,39,60,11,31,6,68
-10,-23,-12,31,5,-18,39,61,12,34,7,67
-9,-23,-12,31,6,-19,39,63,13,35,8,66
-9,-23,-12,31,6,-19,39,64,15,37,9,65
-9,-23,-12,31,6,-19,40,64,16,39,10,64
-8,-23,-13,30,7,-19,40,65,17,41,11,63
-7,-23,-13,30,8,-19,41,65,18,44,12,62
-6,-23,-14,29,8,-20,42,66,20,46,13,61
-4,-23,-15,27,10,-20,42,68,21,48,14,60
-3,-23,-16,26,11,-20,43,70,23,51,16,59
-1,-23,-16,25,12,-21,44,72,24,53,17,58
0,-23,-17,25,12,-21,45,75,26,55,18,58
1,-23,-17,24,13,-22,47,76,28,58,18,57
3,-24,-19,24,14,-23,49,77,29,60,18,56
3,-25,-19,25,15,-24,51,78,31,63,17,55
4,-25,-20,24,16,-25,53,79,33,66,18,55
6,-25,-21,23,17,-25,56,81,34,68,19,55
7,-25,-22,22,18,-25,58,84,36,70,20,54
9,-25,-22,21,19,-26,60,86,38,73,21,54
9,-26,-23,21,20,-27,61,88,39,75,23,54
11,-27,-25,21,21,-28,62,90,41,77,24,53
12,-27,-25,21,22,-29,62,91,42,80,25,52
12,-28,-26,22,23,-30,62,91,44,81,26,51
13,-29,-27,22,24,-31,63,92,45,83,26,50
14,-30,-28,21,25,-31,63,94,47,85,27,50
15,-30,-29,22,26,-32,63,96,48,87,28,49
16,-31,-30,22,27,-33,63,98,49,88,28,48
18,-32,-31,21,28,-34,63,99,50,89,29,47
18,-32,-32,22,29,-35,63,101,51,90,29,46
18,-33,-33,23,30,-36,63,102,51,90,29,45
19,-34,-34,22,30,-37,62,102,51,91,29,44
21,-34,-34,21,31,-37,62,102,52,91,29,43
21,-34,-35,22,32,-38,62,102,52,90,29,42
21,-35,-36,23,32,-39,63,102,52,90,28,41
21,-36,-36,23,33,-39,63,102,52,89,28,40
21,-35,-35,22,32,-38,63,102,51,88,27,39
21,-33,-34,20,32,-37,63,102,51,87,27,39
21,-32,-33,19,31,-35,62,100,50,85,26,39
21,-30,-31,17,30,-33,62,99,49,84,26,39
21,-28,-31,16,29,-32,61,98,48,82,25,39
21,-28,-30,16,29,-32,60,97,46,80,24,39
21,-27,-30,15,29,-31,59,96,45,77,23,39
21,-27,-30,15,29,-31,58,95,43,74,22,39
21,-27,-30,15,29,-31,56,92,41,70,20,39
21,-28,-31,16,29,-32,55,89,39,67,19,39
21,-29,-31,16,30,-33,53,86,37,63,17,38
21,-30,-32,17,30,-34,51,82,34,60,16,37
21,-30,-32,18,30,-34,49,78,32,56,14,37
20,-30,-31,18,29,-33,48,74,29,52,13,36
19,-29,-30,18,28,-32,47,70,27,48,12,36
18,-27,-28,17,27,-31,46,66,24,44,10,35
19,-26,-28,15,27,-30,45,61,22,40,9,35
22,-25,-28,12,28,-30,44,57,19,36,8,35
24,-24,-28,10,28,-29,43,53,16,32,6,36
25,-23,-28,8,29,-28,42,49,14,28,4,37
26,-21,-28,6,28,-27,41,45,12,24,2,37
25,-19,-26,4,27,-25,40,41,9,21,0,37
24,-17,-24,2,25,-23,39,37,7,18,-2,37
24,-16,-23,2,25,-22,38,34,5,15,-4,36
24,-15,-22,0,24,-21,36,30,3,11,-7,36
23,-14,-21,0,23,-19,35,25,1,7,-8,36
22,-13,-19,0,22,-18,34,20,-1,3,-9,37
21,-11,-18,-1,20,-17,33,16,-2,0,-10,37
18,-11,-16,0,18,-15,32,13,-4,-3,-11,36
15,-9,-14,1,15,-13,31,10,-5,-5,-11,36
11,-9,-11,2,12,-11,30,8,-7,-7,-12,36
7,-7,-8,4,8,-9,30,5,-8,-9,-13,35
4,-6,-6,4,6,-6,29,3,-9,-10,-14,34
4,-3,-4,2,4,-4,29,0,-10,-11,-14,34
3,-2,-2,1,3,-2,28,-2,-11,-11,-14,34
3,-1,-2,1,3,-2,28,-3,-11,-12,-14,34
3,-1,-2,0,3,-2,28,-4,-11,-12,-14,34
3,-1,-2,0,3,-2,28,-4,-11,-12,-14,34
3,-1,-2,0,3,-2,28,-4,-11,-12,-14,34
3,-1,-2,0,3,-2,28,-4,-11,-12,-14,34
2,4,2,-4,-1,3,27,-8,-13,-15,-16,32
1,10,7,-10,-5,9,25,-14,-16,-20,-19,30
0,12,9,-11,-6,11,24,-16,-17,-21,-20,29
0,13,10,-11,-7,12,24,-17,-18,-22,-20,29
-1,13,10,-11,-8,13,24,-17,-18,-22,-21,29
-4,13,12,-10,-9,13,24,-17,-18,-22,-21,28
-6,13,13,-8,-11,14,24,-17,-18,-22,-21,27
-9,13,14,-6,-13,15,24,-17,-18,-22,-21,26
-11,12,15,-4,-14,15,24,-17,-18,-22,-21,25
-12,11,14,-2,-14,14,23,-17,-18,-22,-21,25
-13,9,13,0,-13,12,22,-17,-18,-22,-21,25
-13,7,11,2,-12,10,21,-17,-18,-22,-21,25
-13,6,10,3,-11,9,21,-17,-18,-22,-21,25
-13,5,10,4,-11,9,20,-17,-18,-22,-22,24
-13,5,10,4,-11,8,19,-17,-18,-22,-23,23
-13,5,10,4,-11,8,18,-17,-18,-22,-25,22
-13,6,10,3,-11,9,17,-17,-18,-22,-26,21
-13,7,12,2,-12,11,15,-17,-18,-22,-26,20
-13,9,13,0,-13,12,13,-17,-18,-22,-26,19
-13,11,14,-2,-14,14,12,-17,-18,-22,-26,18
-13,12,15,-3,-15,15,9,-17,-18,-22,-26,17
-13,13,16,-3,-15,16,5,-17,-17,-22,-26,16
-13,13,16,-4,-15,16,1,-17,-17,-22,-26,15
-13,13,16,-4,-15,16,-4,-17,-16,-22,-26,14
-13,13,16,-4,-15,16,-7,-17,-16,-22,-26,14
-13,13,16,-4,-15,16,-10,-17,-16,-21,-26,14
-13,13,16,-4,-15,16,-12,-17,-16,-20,-26,13
-13,13,16,-4,-15,16,-14,-17,-16,-19,-26,13
-13,13,16,-4,-15,16,-15,-17,-15,-18,-26,13
-13,13,16,-4,-15,16,-17,-15,-15,-18,-26,12
-13,13,16,-4,-15,16,-19,-14,-14,-17,-26,11
-13,13,16,-4,-15,16,-21,-13,-14,-17,-26,10
-13,13,16,-4,-15,16,-22,-12,-13,-17,-26,10
-13,13,16,-4,-15,16,-23,-12,-13,-16,-26,10
-13,13,16,-4,-15,16,-24,-11,-13,-15,-26,9
-13,13,16,-4,-15,16,-25,-11,-13,-14,-26,9
-13,14,16,-5,-16,17,-26,-11,-13,-13,-26,9
-13,16,18,-7,-16,18,-26,-9,-12,-13,-26,8
-13,17,19,-8,-17,20,-26,-8,-12,-13,-26,7
-13,19,20,-10,-19,22,-26,-7,-11,-13,-26,6
-13,20,21,-11,-19,23,-26,-6,-11,-12,-26,6
-13,21,22,-11,-19,23,-26,-5,-11,-11,-26,6
-13,21,22,-12,-19,23,-26,-5,-11,-10,-26,5
-13,21,22,-12,-19,23,-26,-5,-11,-9,-26,5
-13,20,21,-11,-19,23,-26,-4,-11,-9,-26,5
-13,19,20,-10,-18,21,-25,-2,-11,-8,-26,5
-13,18,19,-8,-18,20,-25,0,-11,-8,-26,5
-13,17,19,-8,-17,20,-24,1,-11,-8,-26,5
-13,17,19,-8,-17,20,-24,1,-11,-8,-26,5
-13,17,19,-8,-17,20,-24,1,-11,-8,-26,5
-13,17,19,-8,-17,20,-24,1,-11,-8,-26,5
-13,17,19,-8,-17,20,-24,1,-11,-8,-26,5
-11,23,22,-16,-19,25,-27,4,-9,-5,-23,5
-8,32,27,-25,-22,31,-31,8,-7,-1,-20,4
-7,34,29,-29,-22,34,-32,9,-6,0,-18,4
-6,35,29,-30,-22,34,-32,9,-6,1,-18,4
-5,36,29,-31,-22,34,-33,10,-5,1,-18,3
-3,36,28,-34,-21,34,-33,9,-5,2,-17,3
-1,37,28,-36,-20,35,-34,8,-4,2,-17,2
0,38,28,-37,-19,35,-34,8,-4,2,-17,2
1,38,27,-38,-19,34,-35,7,-4,1,-17,1
3,37,26,-38,-17,33,-36,6,-5,1,-17,2
3,36,25,-37,-16,33,-36,5,-6,-0,-18,2
3,35,25,-36,-16,32,-37,4,-7,-1,-18,2
2,34,24,-34,-16,31,-38,2,-7,-2,-19,1
1,33,24,-33,-17,31,-38,1,-8,-3,-20,0
0,32,23,-30,-16,29,-39,-1,-9,-5,-21,-1
-1,30,22,-28,-16,28,-40,-2,-10,-6,-22,-2
-3,28,22,-25,-16,27,-40,-4,-11,-7,-23,-3
-3,27,22,-24,-16,26,-41,-5,-12,-8,-24,-5
-4,25,21,-21,-16,25,-42,-7,-13,-9,-25,-6
-6,23,20,-19,-16,23,-44,-8,-14,-10,-26,-7
-6,21,19,-16,-15,22,-45,-8,-15,-12,-26,-8
-6,19,17,-14,-14,20,-45,-9,-16,-13,-27,-8
-6,16,15,-11,-13,17,-45,-10,-17,-15,-28,-8
-6,14,13,-8,-11,14,-45,-10,-17,-16,-29,-7
-6,11,11,-6,-10,12,-44,-10,-18,-16,-30,-7
-6,8,9,-3,-8,9,-44,-10,-18,-17,-30,-8
-6,5,7,0,-7,7,-44,-10,-18,-18,-31,-9
-6,3,6,2,-6,5,-43,-10,-19,-19,-31,-9
-6,0,4,5,-4,2,-43,-10,-19,-19,-32,-9
-5,-2,1,7,-2,-0,-43,-9,-20,-20,-32,-9
-4,-5,-1,8,0,-3,-43,-8,-20,-20,-32,-9
-3,-7,-4,10,2,-5,-43,-7,-19,-20,-31,-8
-1,-8,-5,10,4,-7,-43,-6,-19,-19,-30,-8
0,-9,-6,10,5,-8,-42,-5,-19,-19,-30,-8
0,-9,-6,11,5,-8,-41,-3,-18,-18,-29,-9
0,-9,-6,11,5,-8,-40,-1,-18,-17,-29,-9
1,-8,-6,9,5,-8,-38,1,-17,-17,-28,-9
3,-7,-6,7,5,-6,-37,2,-17,-16,-27,-9
3,-5,-5,5,5,-6,-35,4,-16,-15,-27,-9
3,-5,-4,4,5,-5,-34,6,-16,-14,-26,-9
2,-3,-3,3,3,-3,-33,8,-15,-13,-26,-9
-1,-4,-2,6,2,-3,-32,10,-15,-12,-26,-10
-3,-5,-2,8,1,-4,-30,11,-14,-12,-26,-10
-3,-7,-3,11,2,-5,-29,12,-13,-12,-26,-11
-4,-9,-4,13,2,-7,-28,13,-13,-12,-27,-11
-6,-10,-4,16,2,-8,-27,14,-12,-12,-27,-11
-6,-11,-5,17,2,-8,-27,15,-11,-12,-27,-12
-6,-13,-6,19,3,-10,-26,15,-11,-12,-28,-12
-6,-15,-8,20,4,-12,-26,16,-10,-12,-28,-13
-8,-17,-9,24,4,-13,-25,16,-10,-13,-27,-13
-9,-19,-10,26,4,-15,-25,16,-10,-13,-26,-13
-9,-22,-11,30,5,-17,-24,16,-10,-13,-25,-13
-9,-24,-13,32,6,-19,-24,16,-10,-13,-24,-14
-9,-25,-13,33,7,-20,-24,15,-10,-13,-24,-14
-9,-25,-14,33,7,-20,-24,14,-10,-14,-25,-14
-9,-26,-14,34,7,-21,-24,13,-10,-14,-25,-15
-9,-26,-14,34,7,-21,-24,12,-10,-14,-25,-15
-9,-25,-13,33,7,-20,-24,11,-10,-14,-26,-16
-9,-23,-12,31,6,-19,-24,10,-10,-14,-27,-17
-9,-21,-11,29,5,-17,-24,10,-10,-13,-29,-17
-9,-19,-9,27,4,-15,-24,11,-10,-13,-30,-18
-9,-17,-8,25,3,-13,-24,11,-10,-13,-30,-19
-9,-16,-7,24,2,-12,-24,11,-10,-13,-30,-19
-9,-16,-7,24,2,-12,-23,11,-11,-13,-30,-20
-9,-15,-6,22,1,-11,-23,10,-11,-15,-30,-20
-9,-14,-5,21,1,-9,-23,10,-11,-14,-30,-21
-11,-15,-5,23,0,-10,-23,12,-10,-12,-29,-21
-12,-14,-4,24,-0,-9,-23,12,-10,-12,-29,-21
-3,-14,-9,18,5,-12,-23,13,-9,-12,-29,-20
15,-18,-20,9,19,-20,-24,13,-8,-12,-28,-18
-10,-18,-8,25,3,-13,-22,13,-9,-14,-29,-19
-10,-24,-12,32,5,-19,-24,10,-11,-19,-33,-21
-10,-26,-14,34,7,-20,-24,8,-13,-21,-35,-22
-19,-20,-5,34,-3,-12,-26,1,-18,-21,-37,-23
-23,-24,-6,40,-3,-15,-28,-10,-21,-25,-41,-25
-23,-26,-8,42,-2,-17,-30,-15,-23,-27,-44,-26
-23,-32,-12,48,1,-22,-33,-21,-26,-33,-49,-27
-26,-42,-18,61,5,-31,-33,-25,-29,-41,-58,-30
-29,-42,-17,62,3,-30,-33,-16,-23,-34,-62,-34
-29,-42,-17,62,3,-30,-31,-10,-13,-20,-58,-35
-29,-34,-11,54,-2,-22,-29,-1,-1,-1,-54,-33
-23,-28,-9,44,-1,-19,-28,2,10,15,-51,-35
-23,-28,-9,44,-1,-19,-28,7,12,19,-54,-39
-29,-14,4,34,-12,-3,-30,-7,2,-7,-70,-43
-60,-3,27,43,-39,15,-32,-25,-20,-53,-92,-50
-63,11,39,31,-49,30,-40,-45,-43,-92,-108,-56
-63,27,51,15,-57,45,-46,-62,-65,-132,-113,-53
-63,48,66,-6,-68,64,-59,-84,-89,-166,-117,-52
-26,75,67,-57,-56,77,-71,-107,-109,-190,-104,-37
-19,81,69,-67,-55,81,-80,-121,-124,-204,-85,-19
-10,85,67,-77,-51,81,-81,-122,-133,-203,-70,-0
15,77,49,-85,-30,66,-86,-131,-143,-206,-54,11
49,93,45,-125,-15,71,-85,-127,-149,-207,-40,25
87,89,24,-145,13,56,-88,-133,-158,-225,-28,43
115,93,13,-167,30,51,-98,-160,-182,-235,-14,60
168,89,-15,-198,68,31,-114,-184,-194,-227,27,91
243,64,-69,-222,131,-14,-121,-184,-195,-217,62,125
299,56,-102,-251,173,-39,-127,-181,-190,-199,96,156
334,50,-123,-267,200,-55,-125,-168,-182,-188,124,186
387,50,-149,-302,235,-71,-119,-160,-173,-178,137,207
378,56,-140,-302,226,-62,-119,-157,-167,-181,139,225
359,48,-137,-282,217,-64,-116,-157,-156,-181,145,237
290,64,-92,-253,162,-28,-117,-169,-151,-184,127,238
209,77,-44,-212,101,8,-116,-180,-140,-173,103,219
134,89,1,-175,44,42,-117,-187,-129,-160,76,196
84,87,24,-141,12,55,-114,-193,-123,-152,47,171
59,83,33,-120,-3,59,-108,-181,-109,-128,33,148
24,68,39,-84,-19,56,-99,-165,-98,-117,17,129
3,46,33,-47,-22,42,-92,-152,-89,-110,-6,111
18,64,39,-75,-21,54,-85,-140,-81,-103,-26,89
-4,50,39,-47,-28,47,-80,-130,-75,-89,-33,69
-29,46,48,-26,-43,51,-73,-119,-68,-84,-36,59
-29,42,45,-22,-41,47,-66,-107,-62,-79,-43,50
-35,54,57,-30,-51,61,-61,-92,-56,-71,-44,42
-19,48,45,-34,-38,50,-54,-81,-51,-66,-45,30
-48,30,45,2,-47,42,-49,-69,-45,-60,-52,20
-60,17,42,23,-49,34,-46,-55,-38,-50,-52,7
-54,3,28,34,-38,19,-41,-45,-32,-38,-44,-2
-48,7,28,25,-36,21,-38,-39,-29,-34,-36,-5
-41,5,24,23,-30,17,-40,-45,-26,-27,-35,-11
-26,-3,10,21,-16,5,-36,-37,-22,-21,-30,-12
-26,-18,-0,35,-8,-8,-31,-22,-19,-20,-29,-8
-26,-34,-12,52,0,-23,-25,-13,-15,-15,-29,-10
-32,-36,-11,58,-3,-23,-19,-4,-10,-9,-24,-13
-19,-34,-15,48,5,-25,-16,7,-6,-1,-24,-14
-19,-34,-15,48,5,-25,-13,10,-3,1,-22,-16
-19,-40,-20,54,8,-31,-15,13,-1,1,-22,-23
-19,-36,-17,50,6,-28,-14,13,-1,1,-22,-23
-19,-34,-16,48,5,-25,-15,14,-1,1,-22,-24
-19,-31,-13,45,3,-23,-15,14,-0,2,-22,-25
-19,-28,-11,42,2,-20,-16,14,-0,2,-23,-26
-20,-27,-10,42,0,-19,-16,15,0,2,-23,-26
-23,-29,-10,45,-1,-19,-16,15,0,2,-23,-26
-26,-31,-10,49,-2,-20,-15,16,1,3,-23,-27
-26,-30,-9,48,-2,-20,-15,17,2,3,-21,-26
-23,-25,-7,42,-3,-16,-14,18,2,4,-20,-26
-23,-23,-5,39,-3,-14,-14,18,3,4,-19,-25
-20,-22,-6,36,-2,-14,-14,19,3,4,-18,-25
-19,-22,-7,36,-2,-14,-14,18,3,4,-18,-25
-21,-24,-7,39,-2,-16,-14,18,3,4,-18,-26
-22,-24,-7,40,-2,-16,-14,17,3,4,-18,-27
-21,-24,-7,39,-2,-16,-14,17,3,4,-19,-28
-19,-23,-7,38,-1,-16,-14,17,3,5,-19,-30
-19,-23,-8,37,-0,-16,-14,17,3,5,-19,-30
-19,-23,-8,37,-0,-16,-13,18,3,6,-18,-30
-19,-23,-8,37,-0,-16,-13,18,4,6,-18,-31
-20,-23,-7,38,-1,-15,-13,19,4,6,-18,-31
-21,-23,-7,39,-2,-15,-13,19,4,7,-17,-31
-21,-23,-6,38,-2,-14,-13,19,4,7,-17,-31
-19,-22,-6,36,-2,-14,-14,19,5,7,-17,-31
-19,-21,-6,35,-2,-14,-14,19,5,7,-17,-31
-19,-22,-7,36,-1,-14,-15,19,5,8,-17,-31
-19,-23,-7,37,-1,-15,-15,19,5,9,-17,-31
-19,-23,-8,37,-0,-16,-14,20,6,10,-16,-31
-19,-23,-8,37,-0,-16,-14,20,6,12,-15,-31
-19,-23,-8,37,-0,-16,-14,21,6,13,-15,-30
-19,-23,-8,37,-0,-16,-14,22,6,13,-14,-29
-19,-23,-7,36,-1,-15,-14,25,7,14,-12,-29
-19,-22,-7,35,-1,-14,-13,26,7,15,-10,-28
-19,-21,-6,35,-2,-14,-13,28,7,15,-9,-27
-19,-21,-6,35,-2,-14,-13,29,8,16,-9,-27
-19,-21,-6,35,-2,-14,-12,29,8,16,-8,-27
-19,-20,-6,34,-2,-13,-12,30,8,17,-8,-28
-19,-20,-5,34,-3,-12,-12,31,9,17,-8,-28
-19,-19,-5,33,-3,-12,-11,31,9,18,-7,-29
-19,-19,-5,33,-3,-12,-11,32,10,19,-7,-30
-19,-19,-5,33,-3,-12,-10,32,10,19,-7,-31
-19,-18,-4,32,-3,-11,-10,32,10,21,-7,-31
-19,-17,-3,30,-4,-9,-10,33,11,21,-6,-32
-18,-15,-2,28,-4,-8,-9,34,12,22,-6,-32
-16,-13,-1,25,-4,-7,-9,34,12,23,-6,-32
-17,-12,-1,25,-5,-6,-8,35,13,24,-6,-32
-18,-13,-0,25,-5,-6,-8,36,13,25,-5,-32
-19,-13,-0,26,-6,-6,-7,37,14,26,-5,-32
-19,-13,-0,26,-6,-6,-7,38,15,28,-4,-32
-20,-14,-0,28,-6,-6,-6,40,16,29,-3,-32
-21,-15,-0,30,-7,-7,-7,42,17,30,-3,-32
-23,-15,0,31,-7,-7,-7,42,18,31,-2,-32
-24,-15,1,32,-8,-6,-7,44,19,33,-1,-32
-25,-16,1,34,-8,-7,-7,46,19,34,0,-32
-24,-18,-1,34,-7,-9,-6,48,20,36,1,-31
-23,-19,-3,35,-5,-11,-6,49,22,38,2,-31
-22,-21,-5,37,-4,-13,-5,51,23,40,2,-30
-22,-23,-6,39,-3,-14,-5,52,24,42,4,-29
-22,-23,-6,39,-3,-14,-4,54,25,44,7,-29
-21,-23,-7,39,-2,-15,-3,56,26,46,9,-29
-19,-23,-7,38,-1,-16,-2,58,28,48,11,-29
-18,-23,-8,37,0,-16,-1,60,29,51,13,-29
-16,-23,-9,35,1,-16,0,63,31,54,14,-29
-15,-23,-10,34,2,-17,2,67,32,58,16,-29
-13,-23,-10,34,3,-17,3,71,34,61,17,-29
-13,-23,-11,33,4,-17,5,75,35,64,18,-28
-11,-23,-11,32,5,-18,7,77,37,67,20,-28
-10,-24,-13,32,6,-19,9,80,39,69,21,-28
-9,-25,-13,33,7,-20,11,82,41,72,21,-28
-8,-25,-14,32,8,-21,13,84,42,75,23,-28
-7,-25,-15,31,8,-21,14,87,44,77,24,-29
-6,-25,-16,30,9,-22,14,90,45,80,25,-30
-4,-25,-16,30,11,-22,14,92,47,82,27,-31
-3,-26,-17,30,11,-23,15,95,49,84,28,-31
-2,-27,-19,30,13,-24,15,98,50,85,29,-31
-1,-27,-19,30,14,-25,16,100,52,87,30,-32
0,-28,-20,30,15,-26,16,102,53,87,31,-32
1,-29,-22,30,16,-27,16,104,55,88,32,-32
3,-30,-22,30,17,-28,16,106,56,90,32,-32
3,-30,-23,30,18,-29,16,108,57,91,33,-32
4,-31,-25,30,19,-30,16,110,58,92,33,-32
7,-32,-26,29,21,-31,16,111,59,94,34,-32
9,-32,-28,28,23,-33,16,113,60,94,35,-32
12,-33,-30,27,25,-34,16,114,60,95,35,-32
16,-34,-32,25,28,-36,15,114,61,96,35,-32
19,-34,-34,22,30,-37,15,114,61,95,35,-32
21,-34,-35,22,32,-38,14,112,61,95,34,-32
21,-35,-36,23,32,-39,14,111,61,94,34,-32
21,-36,-36,23,33,-39,14,110,61,94,33,-32
21,-36,-36,23,33,-39,13,109,61,93,33,-32
21,-36,-36,23,33,-39,12,108,60,91,32,-32
21,-36,-36,23,33,-39,12,107,59,90,32,-32
21,-36,-36,23,33,-39,11,105,58,88,31,-32
21,-36,-36,23,33,-39,10,103,57,86,30,-32
21,-36,-36,23,33,-39,10,101,56,84,29,-32
21,-36,-36,23,33,-39,8,99,54,81,28,-32
21,-36,-36,23,33,-39,7,96,52,78,27,-31
21,-35,-35,22,32,-38,6,92,50,75,26,-31
21,-34,-35,21,32,-38,4,88,48,72,24,-31
21,-33,-34,20,32,-37,2,83,46,68,23,-31
21,-32,-33,20,31,-36,0,78,44,65,21,-30
21,-31,-33,19,30,-35,-1,72,41,61,20,-30
20,-30,-31,18,29,-33,-3,68,39,57,18,-29
19,-29,-30,18,28,-32,-4,64,36,53,17,-29
18,-27,-28,17,27,-31,-5,60,34,49,16,-28
18,-26,-28,16,26,-30,-5,55,31,45,14,-28
18,-25,-27,15,25,-28,-6,51,29,41,13,-28
17,-24,-25,14,24,-27,-7,47,26,37,11,-29
16,-23,-24,14,22,-26,-8,43,23,32,9,-29
14,-21,-22,13,21,-24,-9,39,21,29,8,-29
13,-19,-20,12,19,-21,-9,37,19,25,7,-28
12,-17,-18,11,17,-19,-10,34,17,22,6,-28
12,-16,-17,10,16,-18,-10,32,14,19,5,-27
12,-15,-16,8,16,-17,-11,30,12,16,4,-27
11,-14,-15,7,15,-16,-12,27,10,13,2,-26
10,-13,-14,7,14,-14,-13,23,9,10,1,-26
9,-11,-12,7,12,-13,-14,21,7,8,1,-26
7,-11,-11,7,10,-12,-15,18,6,6,0,-26
6,-9,-10,7,9,-10,-16,16,4,4,-1,-25
5,-9,-8,7,8,-9,-18,14,3,2,-1,-25
4,-7,-7,7,6,-8,-20,12,2,0,-2,-25
3,-7,-6,6,5,-7,-21,10,0,-1,-3,-24
3,-5,-5,5,5,-6,-23,8,-1,-3,-3,-23
3,-5,-5,4,5,-5,-24,6,-2,-4,-3,-23
3,-5,-5,4,5,-5,-24,5,-2,-4,-3,-23
3,-5,-5,4,5,-5,-24,5,-2,-5,-3,-23
3,-5,-5,4,5,-5,-24,5,-2,-5,-3,-23
3,-5,-5,4,5,-5,-24,5,-2,-5,-3,-23
3,-5,-5,4,5,-5,-24,5,-2,-5,-3,-23
-2,-7,-4,10,3,-6,-26,-0,-4,-7,-5,-22
-9,-10,-3,17,-1,-6,-29,-8,-7,-11,-8,-22
-11,-11,-2,20,-2,-6,-29,-10,-8,-12,-9,-22
-12,-11,-2,20,-2,-6,-30,-11,-8,-13,-10,-22
-13,-10,-1,20,-3,-5,-30,-11,-9,-13,-10,-22
-13,-9,0,18,-4,-4,-31,-11,-9,-13,-10,-22
-13,-7,1,16,-5,-2,-32,-11,-10,-13,-10,-22
-13,-5,3,14,-6,-0,-32,-11,-10,-13,-10,-22
-13,-4,4,13,-6,1,-33,-11,-11,-13,-10,-22
-13,-3,4,12,-7,1,-33,-11,-11,-13,-10,-22
-13,-3,4,12,-7,1,-33,-11,-11,-13,-10,-22
-13,-3,4,12,-7,1,-33,-11,-11,-13,-10,-22
-13,-3,4,12,-7,1,-33,-11,-11,-13,-10,-22
-13,-3,4,12,-7,1,-33,-11,-11,-13,-10,-23
-13,-3,4,12,-7,1,-33,-11,-11,-13,-10,-24
-13,-3,4,12,-7,1,-33,-11,-11,-13,-10,-25
-13,-3,4,12,-7,1,-33,-11,-11,-13,-10,-25
-13,-3,4,12,-7,1,-33,-11,-10,-13,-10,-25
-13,-3,4,12,-7,1,-33,-11,-10,-13,-10,-26
-13,-3,4,12,-7,1,-33,-11,-9,-13,-10,-26
-13,-4,4,13,-6,1,-33,-11,-9,-13,-10,-26
-13,-5,2,15,-5,-1,-33,-11,-9,-13,-11,-26
-13,-7,1,16,-5,-2,-33,-11,-8,-13,-13,-26
-13,-9,-0,18,-4,-4,-33,-11,-8,-13,-14,-26
-14,-10,-1,20,-4,-5,-33,-11,-8,-13,-15,-26
-16,-11,0,22,-5,-5,-33,-11,-8,-13,-15,-26
-19,-11,1,25,-7,-4,-33,-11,-7,-13,-15,-26
-22,-11,3,26,-9,-3,-33,-11,-7,-13,-15,-26
-24,-10,4,27,-11,-2,-33,-11,-6,-13,-15,-26
-24,-9,6,25,-12,-0,-33,-11,-6,-13,-15,-27
-25,-7,7,25,-13,1,-33,-11,-6,-13,-15,-28
-25,-5,9,22,-14,3,-33,-11,-6,-13,-15,-29
-25,-4,10,21,-15,4,-33,-11,-6,-13,-15,-29
-25,-3,10,20,-15,5,-31,-11,-5,-13,-15,-29
-25,-3,10,20,-15,5,-30,-11,-5,-13,-15,-30
-25,-3,10,20,-15,5,-28,-11,-4,-13,-15,-30
-25,-3,10,20,-15,5,-27,-11,-4,-12,-15,-30
-25,-3,10,20,-15,5,-25,-11,-3,-11,-15,-30
-25,-3,10,20,-15,5,-24,-11,-3,-10,-15,-30
-25,-3,10,20,-15,5,-23,-11,-2,-9,-15,-30
-25,-2,11,20,-16,6,-23,-12,-2,-8,-15,-30
-25,-0,12,18,-16,7,-23,-13,-2,-7,-14,-30
-25,1,13,16,-17,9,-23,-14,-1,-6,-13,-30
-25,3,15,14,-19,11,-23,-16,-1,-5,-11,-30
-25,6,16,11,-20,13,-23,-17,-1,-3,-10,-29
-25,9,19,8,-22,16,-23,-17,-1,-2,-10,-28
-25,13,22,4,-24,20,-23,-17,-0,-1,-10,-28
-25,17,25,0,-26,23,-23,-17,0,0,-10,-27
-24,20,26,-3,-27,26,-22,-17,1,1,-10,-26
-21,21,26,-6,-25,26,-21,-17,1,1,-10,-26
-19,21,25,-8,-24,25,-21,-17,1,1,-10,-26
-17,21,24,-9,-22,25,-20,-17,1,1,-10,-26
-16,21,24,-10,-22,25,-20,-17,1,1,-10,-26
-16,21,23,-10,-22,25,-20,-17,1,1,-10,-26
-16,21,23,-10,-22,25,-20,-17,1,1,-10,-26
-16,21,23,-10,-22,25,-20,-17,1,1,-10,-26
-16,21,23,-10,-22,25,-20,-17,1,1,-10,-26
-17,23,25,-11,-24,27,-20,-18,2,3,-9,-25
-18,26,28,-13,-26,30,-20,-20,3,5,-8,-24
-19,27,29,-14,-27,31,-20,-20,4,5,-7,-24
-19,27,29,-14,-27,31,-20,-20,4,6,-7,-24
-18,27,29,-15,-26,31,-19,-20,4,6,-7,-24
-15,28,28,-17,-25,31,-19,-21,4,6,-6,-23
-13,29,28,-20,-24,31,-18,-22,4,7,-6,-23
-13,30,28,-20,-24,31,-17,-22,3,6,-6,-23
-11,30,27,-21,-23,31,-16,-23,3,6,-6,-22
-10,29,26,-21,-22,30,-16,-24,2,5,-6,-22
-9,28,25,-20,-21,29,-16,-25,1,4,-7,-22
-9,27,25,-20,-20,28,-16,-26,0,3,-7,-22
-11,26,24,-18,-21,27,-16,-28,-0,2,-8,-22
-12,25,24,-16,-21,27,-17,-29,-1,1,-9,-22
-13,23,23,-14,-21,25,-17,-31,-2,0,-10,-23
-14,21,22,-11,-20,24,-18,-32,-3,-1,-11,-23
-15,20,22,-9,-21,23,-17,-34,-4,-2,-12,-23
-16,19,22,-7,-20,22,-17,-35,-5,-3,-13,-23
-17,17,21,-5,-20,21,-16,-37,-6,-5,-14,-23
-18,16,21,-3,-21,20,-16,-38,-7,-6,-15,-24
-19,16,21,-2,-21,20,-16,-39,-8,-7,-15,-24
-19,15,20,-2,-21,20,-16,-40,-9,-9,-17,-24
-19,14,20,-1,-20,19,-16,-40,-10,-10,-17,-23
-19,13,19,1,-19,17,-16,-40,-10,-11,-18,-23
-19,11,17,2,-19,16,-16,-40,-11,-12,-19,-23
-19,8,15,5,-17,13,-15,-40,-11,-13,-19,-23
-19,5,13,8,-16,11,-15,-40,-11,-13,-20,-22
-19,3,12,10,-14,9,-14,-40,-12,-14,-20,-22
-19,1,10,12,-13,7,-13,-40,-12,-15,-21,-23
-18,0,9,12,-12,5,-12,-39,-12,-15,-21,-23
-16,-0,8,12,-11,5,-10,-38,-13,-15,-21,-23
-15,-1,7,12,-9,3,-8,-37,-13,-15,-20,-24
-13,-3,4,12,-7,2,-7,-37,-13,-15,-20,-23
-13,-5,3,14,-6,-0,-6,-35,-13,-14,-19,-23
-13,-7,1,16,-5,-2,-5,-33,-13,-14,-18,-23
-13,-8,0,17,-4,-3,-3,-31,-13,-13,-18,-22
-11,-9,-1,17,-3,-4,-1,-29,-12,-12,-17,-22
-10,-9,-1,16,-2,-5,1,-28,-12,-11,-17,-21
-9,-10,-2,17,-1,-6,3,-26,-11,-10,-16,-21
-9,-11,-3,18,-1,-7,5,-24,-11,-9,-15,-21
-11,-11,-3,20,-1,-7,7,-22,-10,-8,-14,-21
-13,-12,-2,22,-3,-7,8,-20,-10,-7,-13,-22
-15,-14,-2,25,-3,-8,9,-19,-9,-7,-11,-22
-16,-15,-3,27,-3,-9,11,-18,-9,-7,-10,-23
-17,-17,-4,30,-3,-11,12,-17,-8,-7,-10,-23
-18,-18,-4,32,-3,-11,14,-16,-8,-7,-11,-23
-19,-20,-5,34,-3,-12,15,-15,-8,-7,-11,-23
-19,-21,-6,35,-2,-14,17,-15,-8,-7,-12,-24
-19,-23,-7,36,-1,-15,18,-16,-8,-7,-12,-23
-20,-23,-7,38,-2,-15,18,-17,-8,-8,-13,-23
-21,-23,-7,39,-2,-15,19,-19,-8,-8,-13,-22
-22,-24,-7,40,-2,-16,19,-20,-8,-8,-13,-21
-22,-25,-7,41,-2,-16,19,-20,-8,-8,-13,-22
-22,-25,-8,41,-2,-17,19,-19,-8,-9,-14,-22
-22,-25,-8,41,-2,-17,19,-19,-8,-9,-14,-22
-22,-25,-8,41,-2,-17,19,-19,-8,-9,-14,-23
-22,-25,-7,40,-2,-16,19,-19,-8,-9,-14,-24
-22,-23,-6,39,-3,-14,19,-19,-8,-9,-14,-25
-22,-21,-5,37,-4,-13,19,-20,-8,-9,-14,-26
-21,-20,-4,35,-3,-12,18,-20,-8,-9,-14,-26
-18,-20,-5,33,-2,-13,18,-21,-8,-8,-14,-26
-16,-19,-6,31,-0,-13,17,-22,-8,-8,-14,-25
-13,-20,-9,30,2,-15,17,-23,-8,-8,-14,-25
-11,-23,-11,31,5,-17,16,-25,-8,-9,-14,-25
-10,-23,-11,30,5,-17,16,-26,-9,-10,-14,-25
-9,-22,-11,30,5,-17,16,-26,-9,-9,-13,-25
-11,-23,-11,31,5,-18,17,-25,-8,-8,-13,-25
-16,-25,-10,38,2,-18,18,-24,-8,-7,-13,-24
-25,-29,-9,47,-2,-19,19,-23,-8,-7,-13,-22
-35,-34,-8,58,-6,-20,20,-24,-8,-7,-11,-22
-35,-34,-8,58,-6,-20,18,-24,-9,-9,-13,-23
-35,-40,-12,65,-3,-26,16,-27,-11,-14,-17,-25
-35,-42,-14,66,-2,-28,16,-28,-13,-16,-24,-26
-32,-44,-17,66,1,-31,13,-42,-20,-21,-26,-27
-23,-40,-18,57,5,-30,12,-46,-23,-25,-30,-29
-10,-42,-26,50,15,-36,10,-51,-26,-27,-33,-30
15,-32,-30,24,27,-34,7,-63,-29,-33,-39,-31
-26,-26,-6,44,-4,-16,7,-74,-26,-36,-47,-34
-29,-26,-5,46,-6,-15,7,-71,-20,-25,-51,-38
-29,-26,-5,46,-6,-15,9,-65,-4,3,-41,-39
-29,-18,1,38,-10,-7,11,-55,9,22,-37,-41
-35,-28,-3,52,-9,-15,12,-52,17,24,-35,-42
-35,-28,-3,52,-9,-15,12,-54,12,19,-43,-46
-41,-22,4,50,-16,-7,6,-68,-3,-16,-59,-51
-73,-11,27,60,-43,11,1,-86,-25,-63,-81,-54
-76,11,45,39,-57,33,-4,-105,-48,-101,-92,-56
-76,27,57,23,-65,48,-10,-122,-70,-137,-97,-53
-76,48,72,2,-76,67,-23,-145,-94,-166,-85,-44
-51,66,73,-32,-68,77,-32,-162,-111,-185,-71,-29
-19,73,63,-59,-51,73,-40,-175,-129,-199,-63,-11
15,77,49,-85,-30,66,-45,-171,-138,-203,-48,4
40,85,43,-110,-17,66,-50,-180,-148,-206,-32,15
37,85,45,-108,-19,67,-53,-181,-156,-212,-18,29
99,81,12,-145,25,45,-59,-193,-172,-229,-6,47
153,85,-11,-184,59,32,-80,-221,-191,-240,8,68
218,81,-45,-222,105,9,-89,-245,-201,-232,48,102
281,64,-87,-247,156,-25,-92,-239,-200,-217,84,137
337,56,-120,-275,198,-50,-95,-230,-192,-199,118,168
359,42,-141,-275,221,-70,-92,-216,-184,-188,141,193
374,42,-149,-286,231,-75,-87,-208,-178,-188,148,211
328,32,-134,-245,205,-70,-90,-212,-171,-181,161,229
309,56,-107,-257,179,-41,-87,-218,-161,-181,167,241
240,81,-56,-237,120,2,-84,-224,-153,-184,149,234
184,93,-20,-212,76,30,-87,-228,-140,-168,124,215
121,89,7,-167,36,45,-88,-236,-129,-155,92,192
96,87,18,-149,20,51,-89,-236,-118,-138,69,171
71,75,21,-120,10,47,-80,-218,-104,-114,61,152
37,60,27,-84,-6,45,-71,-201,-93,-99,44,133
3,54,39,-55,-26,49,-63,-189,-84,-92,21,115
-19,56,51,-43,-42,58,-56,-177,-77,-85,1,89
-41,42,51,-14,-49,51,-51,-160,-71,-71,5,69
-54,30,48,7,-51,44,-44,-149,-65,-65,-14,63
-54,25,45,11,-49,40,-41,-143,-59,-65,-21,54
-48,30,45,2,-47,42,-35,-134,-53,-57,-22,46
-44,23,39,7,-42,35,-29,-124,-48,-43,-24,34
-35,30,39,-6,-39,38,-24,-112,-42,-47,-30,24
-35,17,30,7,-32,27,-17,-98,-33,-36,-20,19
-41,11,28,17,-34,23,-12,-87,-27,-25,-11,13
-35,7,22,17,-27,17,-13,-81,-27,-25,-14,6
-29,-3,12,23,-18,6,-11,-75,-24,-18,-13,1
-13,-11,-2,21,-3,-6,-7,-68,-20,-12,-9,-0
-13,-1,6,11,-8,3,-2,-58,-16,-6,-7,-0
-13,-34,-18,44,9,-27,3,-49,-13,-1,-7,-6
-19,-28,-11,42,1,-20,6,-46,-8,4,-7,-9
-19,-26,-9,40,0,-18,9,-42,-6,8,-7,-14
-19,-26,-9,40,0,-18,12,-39,-3,10,-1,-16
-19,-24,-8,38,-1,-16,11,-36,-1,10,-1,-19
-19,-21,-6,34,-2,-13,11,-35,-1,10,-0,-20
-19,-20,-5,34,-3,-12,10,-34,-1,9,-0,-20
-19,-19,-4,33,-3,-11,10,-34,-0,9,-0,-21
-19,-18,-4,31,-3,-10,10,-34,-0,8,-1,-22
-20,-18,-3,33,-4,-10,9,-33,0,7,-1,-22
-23,-20,-3,37,-5,-11,10,-33,0,7,-2,-22
-26,-22,-3,41,-6,-12,10,-32,1,7,-1,-21
-26,-22,-3,40,-6,-12,10,-31,2,8,0,-19
-23,-18,-2,34,-6,-9,11,-30,2,9,2,-18
-23,-17,-1,33,-6,-8,11,-30,3,9,4,-18
-20,-18,-3,32,-4,-10,11,-29,3,9,6,-17
-19,-20,-5,34,-3,-13,11,-30,3,9,8,-17
-21,-24,-7,39,-2,-15,11,-31,3,9,9,-17
-22,-24,-7,40,-2,-16,11,-31,3,9,10,-17
-21,-24,-7,39,-2,-16,11,-31,3,9,11,-17
-19,-23,-7,38,-1,-16,11,-31,3,9,12,-16
-19,-23,-8,37,-0,-16,12,-31,3,10,13,-15
-19,-23,-8,37,-0,-16,12,-30,3,11,14,-15
-19,-23,-8,37,-0,-16,12,-30,4,13,14,-15
-20,-23,-7,38,-1,-15,12,-29,4,15,14,-15
-21,-23,-7,39,-2,-15,12,-29,4,16,15,-15
-21,-23,-6,38,-2,-14,12,-29,4,16,15,-15
-19,-22,-6,36,-2,-14,11,-29,5,16,16,-15
-19,-21,-6,35,-2,-14,11,-29,5,16,16,-15
-19,-22,-7,36,-1,-14,10,-29,5,17,16,-15
-19,-23,-7,37,-1,-15,10,-29,5,17,16,-15
-19,-23,-8,37,-0,-16,11,-28,6,17,16,-15
-19,-23,-8,37,-0,-16,11,-28,6,18,17,-15
-19,-23,-8,37,-0,-16,11,-28,6,19,17,-14
-19,-23,-8,37,-0,-16,11,-27,6,19,17,-14
-19,-23,-7,36,-1,-15,12,-27,7,21,18,-13
-19,-22,-7,35,-1,-14,12,-26,7,23,18,-12
-19,-21,-6,35,-2,-14,12,-26,7,24,18,-11
-19,-21,-6,35,-2,-14,12,-25,8,25,18,-11
-19,-21,-6,35,-2,-14,13,-25,8,25,18,-12
-19,-20,-6,34,-2,-13,13,-24,8,26,18,-12
-19,-20,-5,34,-3,-12,14,-24,9,27,19,-12
-19,-19,-5,33,-3,-12,14,-25,9,27,20,-12
-19,-19,-5,33,-3,-12,14,-26,10,28,20,-12
-19,-19,-5,33,-3,-12,15,-27,10,29,20,-12
-19,-19,-5,33,-3,-12,16,-28,10,30,20,-12
-19,-19,-5,33,-3,-12,17,-27,11,31,21,-12
-18,-19,-5,32,-2,-12,19,-27,12,31,21,-13
-16,-19,-6,31,-1,-13,22,-26,12,32,21,-13
-17,-20,-6,33,-1,-13,24,-25,13,33,21,-13
-18,-21,-6,34,-1,-14,25,-24,13,34,22,-13
-19,-21,-6,35,-2,-14,27,-23,14,36,22,-13
-19,-21,-6,35,-2,-14,28,-22,15,37,23,-13
-20,-22,-6,37,-2,-14,30,-20,16,38,24,-13
-21,-23,-6,39,-3,-14,32,-17,17,39,24,-13
-23,-23,-6,39,-3,-14,34,-15,18,41,25,-13
-24,-23,-5,41,-4,-14,37,-12,19,42,26,-13
-25,-23,-5,41,-5,-14,39,-9,19,44,27,-13
-24,-23,-5,40,-4,-14,40,-7,20,45,28,-13
-23,-23,-6,39,-3,-14,41,-5,22,47,29,-13
-22,-23,-6,39,-3,-15,42,-4,23,49,30,-13
-22,-23,-6,39,-3,-15,42,-2,24,51,31,-13
-22,-23,-6,39,-3,-15,43,-1,25,53,32,-13
-21,-23,-7,39,-2,-15,44,1,26,55,33,-13
-19,-23,-7,38,-1,-16,45,3,28,58,34,-13
-18,-23,-8,37,0,-16,45,5,29,60,35,-13
-16,-23,-9,35,1,-16,47,7,31,62,36,-13
-15,-23,-10,34,2,-17,49,9,32,65,38,-13
-13,-23,-10,34,3,-17,50,12,34,67,39,-13
-13,-23,-11,33,4,-17,53,14,35,69,40,-13
-11,-23,-11,32,5,-18,55,17,37,72,42,-12
-10,-24,-13,32,6,-19,58,19,39,74,42,-12
-9,-25,-13,33,7,-20,61,22,41,77,43,-12
-8,-25,-15,32,8,-21,63,24,42,80,44,-12
-4,-25,-16,30,11,-22,64,26,44,82,46,-12
1,-25,-19,26,14,-23,65,29,45,84,47,-12
6,-25,-21,23,17,-25,65,32,47,87,48,-12
8,-26,-23,22,19,-27,66,34,49,89,50,-12
10,-27,-24,22,21,-28,67,37,50,91,51,-12
12,-27,-25,21,22,-29,68,39,52,94,52,-12
12,-28,-26,22,23,-30,69,41,53,95,53,-12
13,-29,-27,22,24,-31,69,43,55,97,54,-12
14,-30,-28,21,25,-31,69,46,56,98,54,-13
15,-30,-29,22,26,-32,68,48,57,98,55,-14
16,-31,-30,22,27,-33,68,49,58,98,55,-15
18,-32,-31,21,28,-34,67,51,59,99,56,-15
18,-32,-32,22,29,-35,67,52,60,99,56,-16
18,-33,-33,23,30,-36,66,53,60,100,57,-16
19,-34,-34,22,30,-37,66,53,61,100,57,-16
21,-34,-34,21,31,-37,65,54,61,100,57,-16
21,-34,-35,22,32,-38,65,54,61,100,56,-16
21,-35,-36,23,32,-39,65,54,61,99,55,-16
21,-36,-36,23,33,-39,64,54,61,98,55,-16
21,-36,-36,23,33,-39,64,54,61,97,55,-16
21,-36,-36,23,33,-39,63,53,60,96,54,-16
21,-36,-36,23,33,-39,62,52,59,95,54,-16
21,-36,-36,23,33,-39,62,51,58,93,53,-16
20,-36,-35,24,32,-39,61,48,57,91,52,-16
18,-36,-34,25,30,-38,60,46,56,89,51,-16
15,-36,-33,27,29,-37,59,44,54,86,50,-16
12,-36,-31,30,27,-36,58,42,52,83,49,-15
10,-36,-31,30,25,-36,56,38,50,80,48,-15
9,-36,-31,32,25,-36,55,35,48,76,46,-15
9,-37,-31,33,26,-37,53,31,46,73,44,-15
9,-38,-32,34,26,-38,51,28,44,69,43,-14
9,-39,-32,34,26,-38,49,23,41,65,42,-14
8,-38,-31,34,25,-38,47,19,39,61,40,-14
7,-37,-30,34,24,-36,45,15,36,57,39,-13
6,-36,-29,33,23,-34,43,11,34,53,38,-13
6,-34,-28,32,22,-33,42,7,31,49,36,-12
6,-33,-27,30,22,-32,41,3,29,45,35,-12
5,-32,-25,30,20,-31,40,-1,26,41,33,-11
4,-31,-24,30,19,-30,39,-5,23,37,31,-10
3,-29,-22,29,16,-27,38,-9,21,33,29,-9
1,-25,-18,26,14,-23,36,-13,19,30,29,-9
0,-21,-15,23,11,-19,35,-17,17,27,28,-8
0,-18,-13,20,9,-16,34,-20,14,24,27,-8
1,-16,-12,16,9,-14,32,-24,12,21,25,-7
3,-14,-11,14,9,-13,31,-28,10,18,24,-7
4,-13,-11,11,9,-13,30,-31,9,15,23,-6
6,-11,-11,9,10,-12,30,-33,7,13,22,-6
6,-11,-10,8,10,-11,28,-36,6,10,21,-6
6,-9,-10,7,9,-10,27,-38,4,7,21,-6
5,-9,-8,7,8,-9,25,-40,3,4,20,-5
4,-7,-7,7,6,-8,23,-43,2,1,20,-5
3,-7,-6,6,5,-7,22,-45,0,-1,19,-5
3,-5,-5,5,5,-6,21,-47,-1,-2,18,-4
3,-5,-5,4,5,-5,21,-48,-2,-2,18,-3
3,-5,-5,4,5,-5,21,-49,-2,-2,18,-3
3,-5,-5,4,5,-5,21,-49,-2,-2,18,-3
3,-5,-5,4,5,-5,21,-49,-2,-2,18,-3
3,-5,-5,4,5,-5,21,-49,-2,-2,18,-3
3,-5,-5,4,5,-5,21,-49,-2,-2,18,-3
-2,-7,-4,10,3,-6,18,-53,-5,-4,16,-3
-9,-10,-3,17,-1,-6,15,-57,-9,-7,13,-2
-11,-11,-2,20,-2,-6,14,-59,-10,-8,12,-2
-12,-11,-2,20,-2,-6,14,-59,-11,-8,12,-2
-13,-11,-1,20,-3,-6,13,-60,-11,-8,12,-3
-16,-11,-0,22,-5,-5,13,-60,-11,-8,12,-3
-19,-11,1,25,-7,-4,13,-60,-11,-8,12,-4
-22,-11,3,26,-9,-3,13,-60,-11,-8,12,-5
-24,-10,4,27,-11,-2,13,-60,-11,-9,11,-6
-24,-9,6,25,-12,-0,13,-60,-11,-9,10,-6
-25,-7,7,25,-13,1,13,-60,-11,-10,9,-6
-25,-5,9,22,-14,3,13,-60,-11,-12,8,-6
-25,-4,10,21,-15,4,13,-59,-11,-12,7,-6
-25,-3,10,20,-15,5,13,-58,-11,-13,7,-6
-25,-3,10,20,-15,5,13,-57,-11,-13,6,-6
-25,-3,10,20,-15,5,13,-55,-11,-13,6,-6
-25,-3,10,20,-15,5,13,-54,-11,-13,6,-6
-25,-3,10,20,-15,5,13,-54,-11,-13,6,-7
-25,-3,10,20,-15,5,13,-54,-11,-13,6,-8
-25,-3,10,20,-15,5,13,-54,-11,-13,6,-9
-25,-4,10,21,-15,4,13,-54,-11,-13,6,-10
-25,-5,8,23,-14,3,12,-54,-11,-13,6,-10
-25,-7,7,25,-13,1,12,-54,-12,-13,6,-10
-25,-9,6,26,-12,-0,11,-54,-13,-13,6,-10
-25,-10,5,28,-11,-2,10,-53,-13,-13,6,-10
-25,-11,4,28,-11,-2,10,-52,-13,-13,5,-10
-25,-11,4,29,-11,-2,10,-51,-13,-13,4,-10
-25,-11,4,29,-11,-2,10,-49,-13,-13,2,-10
-25,-11,4,29,-11,-2,10,-48,-13,-13,1,-10
-25,-11,4,29,-11,-2,10,-46,-13,-13,-0,-11
-25,-11,4,29,-11,-2,10,-45,-13,-13,-2,-12
-25,-11,4,29,-11,-2,10,-43,-13,-13,-3,-13
-25,-10,5,28,-11,-2,10,-42,-13,-12,-4,-14
-25,-9,6,26,-12,0,10,-42,-12,-11,-4,-14
-25,-7,7,25,-13,1,10,-42,-12,-10,-4,-14
-25,-5,9,22,-14,3,10,-42,-11,-9,-4,-14
-25,-4,10,21,-15,4,9,-41,-11,-9,-4,-14
-25,-3,10,20,-15,5,9,-40,-11,-8,-4,-14
-25,-3,10,20,-15,5,8,-38,-11,-8,-4,-14
-25,-3,10,20,-15,5,7,-37,-11,-8,-4,-14
-25,-2,11,19,-16,6,6,-35,-11,-8,-4,-14
-25,2,13,16,-18,9,6,-34,-10,-7,-4,-14
-25,5,16,12,-20,13,6,-32,-10,-6,-4,-14
-25,9,19,8,-22,16,6,-31,-9,-5,-4,-14
-25,12,21,6,-23,19,6,-30,-9,-3,-4,-14
-25,13,22,5,-24,19,5,-30,-9,-2,-3,-14
-25,13,22,4,-24,20,4,-29,-8,-1,-2,-14
-25,13,22,4,-24,20,3,-29,-8,0,-0,-14
-25,13,22,4,-24,20,3,-29,-8,1,1,-14
-25,13,22,4,-24,20,3,-29,-7,1,1,-14
-25,13,22,4,-24,20,3,-29,-6,1,1,-14
-25,13,22,4,-24,20,3,-29,-5,1,1,-14
-25,13,22,4,-24,20,3,-29,-4,1,1,-14
-25,13,22,4,-24,20,3,-29,-4,1,1,-14
-25,13,22,4,-24,20,3,-29,-4,1,1,-14
-25,13,22,4,-24,20,3,-29,-4,1,1,-14
-25,13,22,4,-24,20,3,-29,-4,1,1,-14
-25,13,22,4,-24,20,3,-29,-4,1,1,-14
-23,18,25,-2,-25,24,2,-28,-4,3,0,-15
-20,24,28,-10,-26,28,1,-27,-3,5,-1,-17
-19,26,29,-12,-27,30,0,-27,-3,5,-1,-18
-19,27,29,-14,-27,31,0,-26,-3,6,-2,-18
-18,27,29,-15,-26,31,-0,-26,-3,6,-1,-18
-15,28,28,-17,-25,31,-1,-27,-3,6,-1,-19
-13,30,28,-20,-24,32,-2,-28,-3,7,-0,-19
-13,32,29,-22,-25,33,-2,-28,-4,6,-0,-19
-11,34,30,-25,-25,34,-3,-29,-4,6,-0,-18
-10,35,31,-27,-25,35,-3,-30,-5,5,-1,-18
-9,35,31,-28,-24,36,-4,-31,-6,4,-1,-18
-9,35,30,-28,-24,35,-5,-32,-7,3,-2,-18
-11,34,30,-26,-25,35,-5,-34,-7,2,-3,-18
-12,33,30,-25,-25,34,-6,-35,-8,1,-3,-18
-11,32,29,-23,-24,33,-6,-37,-9,0,-4,-19
-10,30,27,-22,-22,30,-7,-38,-10,-1,-6,-20
-9,28,25,-21,-21,29,-7,-40,-11,-2,-7,-21
-6,27,23,-22,-18,27,-8,-42,-12,-3,-7,-22
-5,25,21,-21,-16,25,-8,-43,-13,-5,-8,-23
-6,23,20,-19,-16,23,-8,-44,-14,-6,-9,-23
-6,21,19,-16,-15,22,-9,-45,-15,-7,-10,-24
-6,19,17,-14,-14,20,-9,-46,-16,-9,-11,-24
-6,16,15,-11,-13,17,-9,-46,-17,-10,-12,-23
-6,14,13,-8,-11,14,-9,-46,-17,-11,-13,-23
-6,11,11,-6,-10,12,-8,-46,-18,-12,-14,-23
-6,8,9,-3,-8,9,-8,-46,-18,-13,-14,-23
-6,5,7,0,-7,7,-8,-46,-18,-13,-14,-22
-6,3,6,2,-6,5,-7,-46,-19,-14,-15,-22
-6,1,4,4,-5,3,-6,-46,-19,-15,-15,-22
-5,0,3,4,-3,2,-6,-45,-20,-15,-15,-21
-5,-0,2,5,-3,1,-5,-44,-20,-15,-15,-21
-6,-1,2,6,-3,1,-5,-43,-19,-15,-15,-21
-7,-1,3,7,-4,2,-4,-43,-19,-15,-14,-22
-9,-1,4,8,-6,2,-2,-42,-19,-14,-14,-22
-11,-1,5,9,-7,3,-1,-39,-18,-14,-13,-22
-12,-1,5,10,-8,3,0,-37,-18,-13,-12,-22
-11,-1,5,9,-7,3,1,-35,-17,-12,-11,-22
-10,-1,4,8,-6,2,3,-34,-17,-11,-11,-21
-9,-2,4,9,-5,2,4,-32,-16,-10,-11,-21
-9,-2,3,10,-5,1,5,-30,-16,-9,-10,-21
-11,-3,3,11,-5,1,5,-28,-15,-8,-10,-21
-13,-4,4,13,-7,1,5,-26,-15,-7,-10,-22
-15,-5,4,16,-7,0,6,-24,-14,-7,-10,-22
-16,-7,3,18,-7,-2,7,-22,-13,-7,-10,-23
-17,-9,2,21,-7,-3,8,-20,-13,-7,-10,-23
-18,-10,1,23,-7,-4,8,-17,-13,-7,-11,-23
-19,-11,1,25,-7,-5,9,-14,-13,-7,-11,-23
-19,-13,-0,26,-6,-6,10,-11,-13,-7,-12,-24
-19,-14,-1,28,-5,-7,10,-8,-13,-7,-12,-24
-20,-15,-1,29,-6,-7,11,-5,-13,-8,-13,-25
-21,-15,-1,30,-6,-7,11,-3,-13,-8,-13,-25
-22,-16,-1,31,-6,-8,12,-1,-13,-8,-14,-26
-22,-17,-1,32,-6,-9,12,1,-14,-8,-16,-27
-22,-17,-2,33,-6,-9,12,3,-14,-9,-18,-29
-22,-18,-2,34,-5,-10,12,5,-15,-9,-19,-30
-22,-20,-4,36,-4,-12,12,7,-15,-9,-19,-30
-22,-23,-6,39,-3,-14,12,8,-15,-9,-19,-30
-22,-25,-8,41,-2,-17,12,9,-15,-9,-19,-31
-22,-27,-9,43,-1,-18,12,9,-15,-9,-19,-31
-22,-27,-9,43,-1,-18,12,10,-15,-8,-19,-30
-22,-27,-9,43,-0,-19,12,11,-15,-6,-19,-30
-22,-27,-9,43,-0,-19,12,11,-15,-5,-19,-29
-22,-30,-11,45,0,-20,12,11,-15,-4,-19,-29
-22,-33,-13,48,2,-23,12,11,-15,-4,-19,-30
-22,-35,-15,51,3,-25,12,10,-16,-5,-19,-31
-22,-36,-16,52,4,-27,13,10,-16,-4,-19,-32
-23,-39,-17,55,4,-28,13,12,-15,-3,-18,-32
-24,-39,-16,56,3,-28,13,12,-15,-4,-18,-33
-24,-36,-15,53,3,-26,13,13,-15,-5,-20,-33
-23,-34,-14,50,3,-24,12,13,-15,-6,-22,-34
-23,-34,-14,50,3,-24,14,13,-16,-9,-24,-35
-23,-24,-6,40,-3,-15,12,10,-18,-14,-33,-41
15,15,4,-24,2,9,9,2,-23,-21,-35,-41
-44,-28,1,58,-16,-12,6,-5,-27,-26,-37,-42
-48,-7,18,39,-28,8,8,-4,-26,-25,-36,-44
-35,-34,-8,58,-6,-20,6,-8,-28,-27,-39,-41
-35,-57,-24,81,5,-41,3,-15,-31,-33,-44,-42
-38,-59,-24,85,5,-42,7,-13,-29,-27,-52,-41
-41,-59,-23,87,3,-41,7,-10,-20,-15,-56,-45
-16,-42,-23,54,11,-34,12,2,-6,3,-47,-46
-16,-50,-29,62,15,-41,14,11,6,22,-43,-48
-35,-36,-9,61,-5,-22,15,14,15,33,-40,-50
-35,-11,9,35,-18,0,15,19,15,33,-48,-58
-54,-14,16,50,-29,4,13,5,-3,-12,-64,-63
-85,5,45,52,-60,30,4,-13,-25,-49,-86,-70
-88,19,57,39,-70,45,-4,-39,-51,-87,-92,-68
-76,44,69,7,-74,64,-14,-55,-72,-123,-97,-65
-51,64,72,-30,-68,75,-23,-78,-96,-147,-85,-56
-38,75,73,-48,-64,81,-32,-95,-113,-162,-66,-37
-7,64,51,-59,-38,62,-36,-102,-124,-172,-52,-19
28,68,37,-85,-17,55,-38,-98,-133,-175,-26,-0
53,93,43,-126,-13,70,-43,-107,-143,-178,-10,11
49,93,45,-125,-15,71,-45,-121,-154,-184,4,25
124,89,6,-170,38,45,-59,-133,-170,-206,-1,43
178,93,-17,-208,72,32,-72,-160,-189,-217,24,68
231,97,-39,-247,105,20,-89,-184,-198,-213,59,98
281,81,-75,-263,148,-10,-96,-184,-200,-203,89,129
312,73,-96,-275,173,-27,-99,-181,-194,-185,118,156
334,66,-111,-284,191,-39,-92,-174,-187,-174,135,178
312,66,-101,-270,176,-33,-87,-166,-180,-188,137,191
303,73,-92,-270,167,-24,-90,-169,-174,-190,139,205
284,81,-77,-266,150,-11,-87,-169,-164,-181,139,214
215,97,-32,-237,95,25,-84,-169,-156,-184,105,195
134,109,16,-196,34,61,-83,-168,-143,-173,81,172
84,105,37,-159,2,72,-80,-169,-131,-160,54,149
46,103,54,-133,-22,81,-74,-163,-116,-124,42,132
21,91,57,-104,-32,78,-65,-139,-97,-86,33,113
-13,77,63,-67,-49,75,-53,-122,-86,-80,12,94
-48,62,69,-30,-64,72,-45,-110,-82,-82,-17,68
-57,32,51,7,-55,47,-38,-98,-77,-85,-37,46
-54,17,39,19,-45,32,-33,-87,-71,-66,-28,38
-16,13,18,-2,-18,17,-26,-77,-63,-60,-25,40
-16,9,15,2,-16,13,-23,-65,-57,-56,-32,31
-35,21,33,2,-35,30,-17,-55,-53,-48,-39,14
-44,23,39,7,-42,35,-11,-45,-48,-43,-45,3
-23,21,27,-6,-26,27,-9,-33,-42,-42,-52,-7
-48,17,36,15,-41,30,-3,-25,-38,-36,-52,-16
-41,44,52,-16,-51,53,-5,-15,-32,-25,-44,-22
-35,23,34,1,-36,32,-2,-8,-29,-34,-41,-25
-29,-3,12,23,-18,6,7,-2,-26,-18,-40,-31
