I,II,III,aVR,aVL,aVF,V1,V2,V3,V4,V5,V6
49,35,-23,-42,52,16,-10,-9,-5,-40,-26,53
56,33,-37,-45,64,9,-14,-14,-13,-41,-28,51
53,27,-44,-40,65,2,-14,-14,-20,-45,-31,49
53,32,-34,-43,60,10,-14,-14,-17,-44,-30,49
57,36,-34,-47,64,12,-11,-12,-13,-43,-30,48
58,32,-42,-45,69,7,-15,-15,-17,-44,-33,46
57,36,-33,-47,63,13,-13,-12,-13,-41,-28,50
59,33,-44,-47,70,7,-13,-14,-14,-43,-30,48
55,29,-44,-42,67,4,-11,-13,-13,-43,-30,48
54,31,-37,-43,63,8,-14,-12,-10,-43,-32,48
48,26,-37,-37,58,4,-13,-11,-12,-41,-30,48
45,25,-33,-35,53,5,-12,-13,-12,-41,-32,47
55,27,-47,-41,69,1,-14,-15,-13,-43,-33,48
48,17,-53,-33,66,-9,-14,-14,-13,-45,-34,47
49,18,-52,-33,65,-8,-16,-14,-19,-48,-35,46
49,22,-46,-36,63,-2,-15,-15,-20,-48,-34,45
56,25,-52,-41,72,-3,-14,-15,-19,-47,-32,46
53,28,-42,-41,65,3,-14,-12,-12,-43,-29,49
57,30,-44,-44,69,5,-14,-13,-16,-44,-31,47
61,36,-40,-50,70,10,-11,-13,-12,-42,-30,48
62,34,-47,-49,75,6,-15,-16,-17,-44,-31,47
62,36,-42,-49,72,9,-16,-14,-13,-43,-28,50
72,44,-47,-59,83,13,-13,-13,-9,-40,-26,50
63,35,-47,-50,75,7,-15,-13,-14,-45,-31,47
59,38,-33,-49,65,15,-14,-15,-17,-45,-30,47
52,32,-33,-43,59,10,-14,-16,-17,-47,-34,44
56,33,-37,-45,64,9,-14,-15,-12,-45,-28,50
57,38,-29,-48,62,16,-12,-14,-7,-44,-26,53
59,31,-46,-45,71,5,-14,-14,-14,-45,-28,52
64,39,-40,-53,73,12,-14,-15,-16,-47,-31,48
64,39,-39,-52,72,13,-17,-17,-20,-49,-35,47
62,38,-39,-51,71,12,-16,-16,-19,-48,-34,48
68,34,-57,-51,84,2,-13,-14,-11,-44,-28,53
59,28,-52,-44,74,-1,-13,-14,-13,-44,-30,50
55,32,-37,-44,64,9,-15,-16,-19,-48,-32,47
62,31,-52,-47,77,2,-13,-16,-18,-47,-28,48
47,25,-37,-36,57,4,-14,-16,-14,-47,-32,46
51,31,-33,-42,59,10,-13,-14,-14,-48,-30,46
65,45,-31,-56,69,21,-14,-17,-20,-49,-31,45
57,38,-31,-48,62,15,-14,-15,-16,-47,-28,47
65,36,-49,-51,78,7,-15,-15,-18,-46,-28,46
65,32,-55,-49,81,2,-15,-15,-16,-44,-27,47
63,31,-53,-48,79,2,-14,-15,-14,-45,-26,49
58,30,-46,-45,70,4,-13,-12,-12,-45,-26,48
65,40,-40,-53,74,13,-12,-14,-14,-48,-28,47
67,38,-49,-53,80,8,-14,-15,-16,-49,-27,47
65,32,-55,-49,81,2,-12,-16,-17,-50,-27,46
49,21,-46,-35,62,-3,-13,-15,-16,-49,-28,44
57,25,-53,-41,73,-3,-14,-17,-19,-51,-31,41
57,32,-40,-45,67,7,-14,-16,-18,-48,-30,42
60,29,-52,-45,75,0,-15,-16,-19,-49,-31,42
65,36,-49,-51,78,7,-15,-16,-18,-50,-33,41
73,50,-36,-62,78,22,-16,-18,-24,-51,-33,42
75,54,-33,-65,78,26,-14,-17,-20,-50,-31,43
65,45,-33,-56,70,20,-14,-18,-23,-51,-32,42
64,39,-40,-53,73,12,-15,-19,-25,-53,-33,44
60,30,-50,-45,74,2,-12,-19,-25,-54,-34,45
64,35,-48,-50,77,6,-11,-17,-20,-52,-30,46
60,32,-46,-47,72,5,-13,-18,-24,-53,-32,45
62,32,-51,-48,77,3,-12,-16,-19,-51,-31,47
62,35,-44,-49,73,8,-12,-16,-18,-50,-30,45
64,39,-40,-52,73,12,-11,-15,-12,-48,-29,46
70,44,-41,-58,78,16,-12,-15,-13,-48,-27,46
74,54,-31,-65,77,26,-9,-12,-3,-43,-22,50
77,52,-39,-65,83,22,-10,-13,-10,-45,-23,48
81,54,-42,-69,88,23,-9,-11,-2,-42,-20,49
75,54,-33,-65,78,26,-9,-10,0,-40,-19,51
70,54,-23,-63,69,30,-7,-8,3,-40,-21,48
72,53,-29,-64,75,27,-7,-12,-0,-44,-21,47
69,51,-26,-61,70,27,-3,-9,4,-42,-21,48
79,60,-27,-71,79,33,0,-5,13,-38,-17,53
92,68,-37,-82,95,35,-1,-3,17,-38,-17,54
91,72,-27,-83,89,41,-3,-4,14,-38,-17,52
82,61,-31,-73,84,32,-3,-4,13,-38,-17,53
79,64,-21,-73,76,38,-3,-5,13,-38,-17,52
87,78,-11,-84,79,51,-3,-4,13,-39,-17,50
96,80,-21,-90,90,49,-8,-9,5,-41,-17,52
92,84,-7,-90,80,58,-11,-9,10,-38,-18,51
90,84,-5,-89,77,59,-13,-10,8,-39,-18,51
93,84,-10,-90,82,57,-18,-17,0,-42,-19,51
90,74,-23,-84,87,44,-21,-19,-2,-41,-18,51
92,75,-24,-85,89,44,-18,-17,-3,-40,-15,52
99,85,-18,-94,91,54,-19,-15,4,-38,-14,56
107,90,-23,-101,100,56,-17,-12,12,-33,-8,62
115,91,-34,-105,112,53,-18,-13,10,-37,-8,62
110,88,-31,-101,107,51,-17,-13,8,-37,-10,56
101,80,-29,-92,98,46,-20,-16,0,-40,-16,53
111,93,-24,-104,104,57,-19,-14,7,-37,-13,56
115,94,-29,-106,110,56,-17,-11,13,-30,-10,59
117,95,-31,-108,112,56,-14,-8,21,-30,-9,59
115,88,-39,-104,115,48,-17,-10,17,-31,-10,61
116,82,-52,-101,122,39,-15,-9,11,-34,-12,59
111,74,-59,-94,121,30,-16,-12,3,-37,-16,54
110,74,-57,-94,119,31,-17,-12,5,-38,-17,53
104,72,-49,-89,110,33,-17,-12,3,-38,-14,54
99,60,-64,-81,114,18,-17,-14,-2,-40,-17,54
107,46,-102,-78,138,-7,-19,-19,-20,-49,-25,50
110,51,-99,-82,139,-3,-19,-19,-23,-51,-26,47
107,55,-85,-82,130,7,-17,-18,-20,-49,-26,46
99,51,-79,-77,121,6,-18,-19,-20,-50,-28,44
87,47,-66,-68,105,8,-14,-14,-12,-45,-24,44
82,41,-68,-62,102,3,-16,-16,-19,-49,-27,42
86,50,-59,-69,100,13,-16,-20,-27,-52,-30,40
81,47,-55,-65,94,12,-14,-18,-21,-50,-30,39
83,55,-44,-70,90,23,-14,-17,-20,-51,-30,39
84,45,-63,-65,100,8,-14,-20,-22,-51,-29,40
74,40,-57,-58,89,7,-15,-18,-23,-51,-31,38
63,35,-47,-50,75,7,-13,-18,-23,-53,-32,35
69,36,-55,-53,84,4,-15,-21,-30,-56,-32,36
80,45,-59,-63,95,9,-13,-21,-30,-56,-32,38
74,45,-47,-61,85,14,-13,-18,-29,-54,-31,36
71,39,-51,-56,84,8,-11,-19,-26,-54,-32,36
69,38,-50,-54,82,8,-11,-20,-28,-55,-31,36
64,38,-42,-52,74,11,-12,-20,-27,-55,-34,36
81,45,-59,-64,96,10,-11,-20,-28,-54,-32,37
74,41,-54,-58,87,8,-12,-22,-30,-54,-33,35
74,39,-57,-57,89,6,-14,-23,-33,-57,-35,34
65,31,-57,-48,82,0,-14,-23,-32,-58,-37,29
57,31,-42,-44,68,6,-16,-24,-37,-61,-39,28
56,26,-49,-41,70,0,-16,-24,-37,-59,-39,28
52,30,-36,-41,60,8,-15,-23,-35,-60,-39,27
52,23,-49,-38,67,-3,-14,-24,-39,-59,-39,28
62,36,-41,-50,71,10,-10,-18,-30,-56,-35,31
58,38,-31,-48,63,15,-5,-15,-21,-56,-37,29
57,32,-41,-45,67,7,6,-1,0,-57,-42,22
44,20,-40,-32,56,-2,20,17,20,-60,-50,11
28,11,-29,-19,37,-4,30,35,40,-63,-57,4
26,4,-39,-15,41,-13,38,47,61,-65,-63,-3
41,9,-55,-25,61,-15,42,56,74,-65,-65,-7
40,24,-26,-33,46,7,49,76,118,-53,-53,1
48,36,-18,-43,49,20,57,93,165,-42,-45,6
57,58,7,-59,44,44,61,80,171,-33,-36,15
72,95,49,-86,37,88,59,57,155,-27,-26,22
89,126,75,-110,38,120,46,17,105,-22,-9,40
129,152,51,-144,84,129,18,-34,48,-2,26,73
164,187,55,-180,110,157,-14,-90,-13,26,67,110
203,249,101,-232,121,219,-54,-139,-61,61,116,151
256,312,124,-292,154,274,-99,-179,-89,96,165,195
299,350,116,-334,195,298,-146,-223,-133,128,210,233
342,391,117,-377,229,329,-189,-252,-133,176,263,278
370,395,75,-393,272,314,-224,-280,-161,205,294,304
379,371,16,-385,309,274,-254,-311,-221,222,312,318
381,362,-5,-381,320,259,-279,-326,-237,257,342,339
376,369,16,-382,306,272,-311,-352,-271,285,367,357
388,365,-11,-387,329,259,-328,-359,-282,314,389,371
385,342,-48,-373,345,228,-318,-340,-241,339,395,364
360,308,-66,-343,332,196,-301,-318,-199,324,366,337
305,254,-70,-286,288,156,-271,-286,-168,266,294,281
251,168,-133,-214,274,68,-226,-241,-144,178,201,215
206,77,-219,-144,277,-31,-179,-188,-147,77,98,144
153,5,-256,-79,251,-97,-137,-157,-208,-34,-2,74
117,0,-203,-58,195,-80,-108,-138,-252,-101,-52,36
86,9,-133,-47,136,-46,-85,-117,-215,-97,-53,29
85,21,-111,-53,124,-29,-72,-96,-162,-78,-42,30
84,29,-92,-57,114,-15,-56,-74,-113,-62,-32,32
86,36,-83,-62,111,-6,-45,-57,-80,-54,-29,29
83,37,-77,-61,107,-4,-37,-46,-60,-49,-27,29
74,35,-65,-55,93,-1,-27,-34,-35,-43,-21,33
78,35,-72,-57,100,-3,-23,-29,-35,-47,-26,27
67,27,-68,-47,89,-8,-18,-25,-33,-49,-28,27
56,19,-64,-38,78,-12,-17,-24,-35,-56,-36,18
55,28,-46,-42,68,2,-13,-20,-27,-54,-34,21
62,26,-60,-44,80,-5,-13,-20,-28,-59,-38,18
63,21,-71,-42,87,-12,-11,-17,-27,-60,-40,16
64,23,-70,-44,87,-11,-8,-17,-28,-61,-43,13
66,25,-70,-46,89,-9,-8,-15,-28,-61,-44,14
59,22,-63,-41,80,-9,-6,-13,-21,-60,-44,12
59,23,-60,-41,78,-7,-6,-13,-22,-63,-47,12
61,24,-63,-43,82,-8,-6,-11,-20,-62,-47,11
53,23,-50,-38,69,-3,-7,-12,-21,-64,-48,11
53,23,-51,-38,69,-4,-5,-11,-23,-64,-47,11
46,17,-50,-32,63,-8,-5,-10,-20,-64,-49,8
49,14,-59,-32,69,-13,-6,-12,-23,-65,-51,7
54,17,-63,-36,75,-12,-3,-9,-17,-64,-51,7
58,18,-68,-38,80,-14,-1,-8,-18,-65,-51,5
61,21,-66,-41,82,-11,-2,-9,-19,-64,-50,6
60,21,-65,-41,81,-10,-1,-6,-12,-63,-47,8
55,15,-68,-35,79,-15,-3,-8,-17,-64,-48,8
57,15,-72,-36,82,-17,-1,-5,-11,-61,-46,10
45,13,-55,-29,64,-13,-1,-4,-9,-62,-46,10
44,11,-57,-27,64,-14,-2,-7,-16,-67,-49,6
53,18,-60,-36,73,-11,-1,-8,-17,-66,-49,6
59,25,-58,-42,77,-5,-1,-6,-11,-63,-46,6
55,22,-55,-39,72,-6,-1,-5,-11,-62,-46,5
67,31,-60,-50,85,-1,-2,-7,-12,-64,-46,6
62,21,-70,-41,85,-12,0,-4,-10,-64,-44,7
58,13,-76,-35,85,-21,-1,-5,-15,-65,-47,4
49,11,-66,-30,73,-19,-4,-8,-18,-64,-47,2
57,21,-62,-39,77,-9,1,-4,-10,-59,-44,5
64,30,-57,-48,81,-1,1,-4,-7,-58,-40,8
70,39,-50,-55,82,9,1,-1,-0,-55,-36,11
62,31,-52,-47,77,2,-1,-3,-6,-57,-39,8
55,24,-52,-40,71,-3,-2,-3,-6,-58,-38,7
59,20,-68,-40,82,-12,-0,-3,-7,-57,-37,8
63,24,-65,-44,84,-8,1,-4,-6,-58,-37,7
62,24,-64,-43,83,-8,1,-3,-6,-57,-36,8
60,24,-61,-42,80,-7,0,-3,-9,-59,-39,4
57,18,-66,-38,79,-13,-2,-5,-11,-59,-39,2
58,21,-63,-39,79,-10,0,-4,-9,-58,-40,4
62,27,-60,-45,81,-4,0,-2,-1,-55,-39,7
61,33,-47,-48,74,5,3,-1,2,-53,-37,8
72,42,-49,-57,84,11,4,1,5,-52,-35,9
66,37,-47,-52,77,8,3,-2,3,-53,-37,6
67,35,-52,-51,80,5,1,-3,0,-55,-39,6
71,38,-53,-55,85,7,1,-2,0,-55,-42,0
66,35,-51,-51,80,5,-2,-3,-7,-58,-43,-0
62,19,-73,-41,87,-15,0,-2,-0,-56,-42,2
63,30,-55,-47,79,0,0,-1,-2,-57,-42,2
66,31,-59,-49,84,-1,0,1,0,-55,-40,2
59,26,-57,-43,77,-4,-1,1,1,-54,-41,3
57,18,-66,-38,79,-13,-1,0,3,-52,-40,4
59,21,-63,-40,79,-9,1,1,7,-51,-38,5
67,28,-66,-48,88,-6,2,2,12,-50,-37,8
68,31,-61,-50,86,-2,2,2,12,-49,-35,8
74,36,-63,-56,92,2,2,3,14,-49,-33,8
75,33,-72,-55,97,-5,2,3,17,-48,-32,8
71,31,-66,-51,91,-4,3,7,21,-45,-30,8
71,31,-66,-51,91,-4,-1,3,11,-50,-34,4
71,29,-72,-50,94,-8,-1,3,12,-48,-31,5
69,29,-68,-49,90,-6,1,5,14,-48,-30,4
70,36,-55,-54,84,5,0,7,19,-45,-27,6
73,38,-58,-56,89,5,1,6,19,-46,-26,4
72,35,-62,-54,90,1,-0,5,18,-45,-26,4
65,34,-51,-50,79,4,2,8,27,-41,-23,5
75,36,-64,-56,94,1,1,7,27,-41,-23,2
74,46,-45,-61,84,15,-1,6,26,-43,-25,1
66,41,-40,-54,74,13,0,9,33,-40,-19,6
80,36,-73,-59,102,-3,-3,8,28,-41,-19,5
77,32,-76,-55,101,-7,-4,9,31,-41,-18,3
69,24,-76,-47,94,-13,-3,10,30,-43,-18,3
73,26,-81,-50,100,-13,-3,11,30,-40,-17,3
72,30,-70,-51,94,-6,-3,13,37,-38,-17,3
70,31,-65,-51,90,-3,0,15,42,-33,-13,6
66,25,-70,-46,89,-9,-1,15,45,-34,-15,6
77,36,-68,-57,97,-1,-1,16,48,-31,-11,6
80,43,-62,-62,97,7,-0,19,51,-32,-13,5
90,45,-75,-68,111,3,-2,16,49,-32,-12,7
90,48,-70,-70,108,7,-4,17,50,-31,-12,5
87,48,-65,-69,104,9,-3,18,50,-29,-11,4
77,39,-62,-59,94,4,-5,21,56,-29,-9,6
79,44,-57,-62,93,10,-4,21,58,-28,-11,7
88,56,-51,-73,99,20,-6,23,63,-24,-8,8
85,50,-57,-68,98,14,-6,24,66,-21,-7,12
74,44,-50,-60,86,12,-4,25,68,-16,-4,13
82,48,-55,-66,95,13,-4,26,71,-18,-4,11
99,61,-61,-82,112,20,-2,30,79,-12,-0,15
101,56,-73,-80,119,12,-1,33,83,-12,1,13
97,57,-65,-79,112,15,-4,35,88,-9,5,15
95,57,-62,-77,109,16,-6,34,88,-9,7,14
97,56,-66,-78,113,14,-6,33,85,-12,2,10
98,59,-64,-80,113,17,-7,36,93,-6,6,12
101,68,-53,-86,110,28,-5,40,98,-4,7,13
107,69,-61,-89,118,25,-5,39,99,-3,11,20
101,56,-74,-80,120,11,-3,44,104,-0,14,23
85,53,-52,-70,96,18,-5,43,102,1,13,20
102,59,-70,-82,118,15,-9,41,100,2,15,20
104,57,-76,-82,123,11,-8,45,103,5,18,22
105,63,-68,-86,120,19,-9,48,112,8,21,26
120,69,-84,-96,140,16,-7,49,117,11,25,29
122,70,-84,-98,142,18,-8,50,118,14,27,26
124,76,-78,-102,141,24,-8,50,121,15,29,28
119,71,-77,-97,137,21,-12,50,116,15,29,29
116,63,-87,-91,139,11,-13,49,117,16,30,30
112,63,-81,-89,133,14,-13,52,118,17,34,32
117,70,-76,-95,135,21,-12,50,117,18,35,34
119,70,-81,-96,138,19,-12,52,116,20,39,34
119,68,-85,-95,140,15,-14,50,109,18,39,35
123,76,-76,-101,139,25,-13,52,116,20,43,38
136,83,-86,-112,155,26,-14,50,108,19,38,36
132,81,-81,-108,149,26,-14,49,108,19,41,37
132,86,-72,-111,144,34,-15,48,104,17,38,35
132,84,-77,-110,147,30,-14,47,107,21,42,40
132,80,-83,-108,150,25,-13,46,104,21,43,41
130,79,-81,-106,147,25,-13,48,107,22,45,43
119,74,-73,-98,135,25,-14,45,98,21,42,40
127,80,-76,-106,143,28,-17,45,97,21,43,41
127,77,-81,-104,145,24,-16,43,94,20,43,41
123,75,-78,-101,140,23,-13,44,94,20,42,41
130,76,-87,-105,150,21,-17,41,88,18,41,41
119,70,-79,-97,138,20,-17,39,85,18,40,40
120,76,-72,-100,135,26,-17,38,85,17,41,39
126,82,-71,-106,140,31,-15,37,86,18,39,38
125,84,-64,-106,135,35,-14,38,88,17,39,38
118,82,-57,-102,126,37,-11,36,87,16,39,39
128,85,-68,-109,140,35,-12,31,77,11,34,35
129,92,-58,-113,136,43,-11,31,72,10,33,36
115,86,-45,-103,118,44,-9,30,72,9,30,34
109,81,-42,-97,112,42,-9,26,61,3,22,27
107,76,-48,-93,112,36,-9,26,59,0,21,26
99,67,-50,-84,107,28,-9,23,56,-3,18,26
99,62,-60,-82,112,21,-8,21,54,-4,16,23
89,61,-44,-77,95,27,-7,18,49,-8,13,20
93,60,-53,-78,103,22,-8,15,45,-11,11,20
96,65,-48,-82,103,28,-6,14,44,-12,7,19
96,68,-44,-83,101,31,-5,12,40,-16,4,16
97,69,-44,-84,102,32,-6,8,32,-23,-2,11
80,60,-31,-71,82,31,-3,8,33,-24,-3,10
89,58,-49,-74,97,23,-4,4,21,-28,-9,7
85,60,-39,-74,90,28,-5,3,19,-27,-10,6
80,58,-34,-70,83,28,-5,1,19,-28,-10,4
75,51,-37,-64,80,23,-5,-0,12,-33,-17,0
68,54,-20,-62,66,31,-3,0,18,-32,-13,1
67,40,-44,-54,77,12,-5,-6,5,-37,-19,-2
65,41,-39,-54,73,14,-3,-6,7,-39,-21,-4
70,47,-36,-59,75,20,-5,-7,1,-40,-23,-8
75,49,-42,-63,84,19,-3,-7,0,-41,-23,-6
67,43,-39,-56,75,15,-2,-9,-3,-44,-25,-7
69,45,-38,-58,76,18,-3,-10,-7,-46,-27,-8
72,47,-40,-61,80,18,-3,-12,-11,-45,-27,-8
74,48,-40,-62,81,19,-3,-12,-9,-45,-27,-7
61,42,-29,-52,65,19,-3,-13,-11,-46,-27,-7
65,36,-49,-51,78,7,-3,-11,-10,-47,-25,-8
64,36,-47,-51,76,7,-5,-15,-17,-50,-29,-12
61,36,-40,-49,70,10,-5,-15,-13,-49,-26,-12
62,36,-42,-50,72,10,-4,-16,-16,-50,-28,-13
67,38,-47,-53,79,9,-5,-16,-16,-49,-27,-11
64,42,-36,-54,71,16,-4,-14,-11,-47,-24,-8
64,41,-36,-53,70,15,-4,-13,-11,-47,-23,-8
67,43,-39,-56,75,15,-4,-14,-10,-47,-26,-13
70,42,-46,-57,80,12,-4,-14,-12,-47,-25,-14
72,45,-42,-59,80,16,-5,-13,-10,-46,-24,-11
64,39,-39,-52,72,13,-4,-16,-14,-49,-26,-12
64,40,-39,-53,72,13,-3,-14,-9,-47,-24,-14
61,39,-34,-51,67,15,-8,-15,-13,-49,-26,-16
57,32,-40,-45,67,7,-7,-14,-11,-47,-24,-12
70,39,-50,-55,82,9,-5,-14,-7,-45,-21,-11
71,52,-29,-62,74,26,-3,-11,-2,-44,-19,-10
64,49,-23,-57,65,26,-4,-12,-0,-41,-19,-11
69,52,-26,-62,70,27,-3,-10,0,-42,-17,-11
61,40,-34,-51,67,15,-4,-13,-3,-43,-21,-14
72,50,-34,-62,76,23,-4,-11,-3,-42,-19,-15
72,49,-36,-61,77,21,-3,-10,-0,-44,-18,-14
61,38,-37,-50,69,12,-4,-11,0,-41,-16,-12
62,45,-27,-54,65,22,-4,-8,4,-41,-14,-12
62,43,-29,-53,65,20,-3,-8,5,-41,-13,-11
66,44,-36,-56,72,18,-3,-9,0,-42,-15,-9
74,49,-39,-62,80,20,-2,-7,4,-39,-14,-8
59,44,-24,-52,61,22,-2,-6,4,-38,-14,-10
61,40,-33,-51,66,16,-3,-7,4,-39,-16,-12
62,41,-33,-52,67,17,-3,-6,5,-38,-16,-11
69,52,-26,-62,70,27,-2,-5,7,-38,-15,-12
79,54,-40,-68,85,23,-2,-4,12,-35,-12,-9
71,50,-33,-62,75,23,-3,-7,7,-38,-16,-15
66,50,-24,-59,67,27,-2,-5,11,-37,-16,-15
65,45,-31,-56,69,21,-3,-6,8,-37,-16,-15
67,43,-39,-56,75,15,-3,-7,4,-40,-20,-17
59,46,-18,-53,57,27,-2,-5,7,-37,-18,-16
61,50,-14,-56,57,30,-0,-3,11,-35,-16,-14
65,53,-18,-60,63,31,-3,-6,3,-39,-21,-18
57,45,-18,-51,56,25,-5,-7,1,-40,-22,-19
54,41,-20,-48,55,22,-1,-4,7,-38,-20,-17
71,48,-36,-60,77,21,-3,-5,7,-40,-22,-17
73,50,-36,-62,78,22,-2,-5,6,-39,-21,-17
69,54,-21,-63,67,31,-0,-1,14,-37,-17,-16
72,51,-34,-63,77,23,0,-1,11,-37,-19,-17
64,48,-23,-57,64,26,-2,-3,8,-34,-22,-18
53,41,-18,-48,53,23,-0,-2,11,-37,-17,-17
56,36,-33,-47,62,13,-3,-3,6,-37,-21,-19
62,45,-27,-54,65,22,-1,-3,5,-37,-19,-17
64,54,-13,-60,59,33,0,-1,8,-36,-19,-17
70,49,-33,-60,74,23,-0,-3,0,-39,-20,-20
66,48,-27,-58,69,24,-0,-3,0,-38,-19,-18
70,49,-33,-60,74,23,-3,-5,-3,-41,-25,-23
51,42,-13,-47,49,25,-3,-4,-0,-39,-23,-24
59,47,-16,-54,57,28,-1,-4,-2,-40,-23,-23
68,51,-26,-60,69,26,-2,-2,1,-38,-21,-18
64,48,-24,-57,65,25,-2,-4,-6,-42,-22,-20
62,43,-29,-53,65,20,-3,-4,-7,-43,-25,-22
66,51,-23,-59,66,28,-0,-4,-7,-41,-24,-22
65,53,-18,-60,63,31,-2,-5,-6,-43,-25,-23
64,43,-34,-54,70,18,-2,-3,-6,-41,-21,-22
61,38,-37,-50,69,12,-1,-6,-11,-45,-27,-26
52,35,-27,-44,57,14,-2,-4,-11,-43,-26,-23
54,35,-31,-45,60,13,-1,-3,-9,-42,-25,-24
54,39,-23,-47,56,20,-0,-3,-10,-42,-25,-23
67,48,-29,-59,70,23,-2,-3,-10,-41,-23,-23
59,42,-26,-51,62,20,1,-1,-6,-40,-22,-20
59,38,-34,-49,65,14,-4,-6,-19,-45,-25,-23
61,36,-40,-50,70,10,-4,-9,-30,-48,-28,-26
59,38,-34,-50,66,14,-2,-8,-27,-47,-27,-26
54,38,-26,-47,58,17,-3,-8,-27,-48,-28,-28
65,43,-36,-55,72,17,-2,-6,-21,-44,-24,-24
68,45,-37,-57,75,18,-1,-7,-23,-47,-27,-28
62,42,-33,-53,68,18,-3,-8,-25,-47,-30,-32
59,35,-39,-47,68,10,-2,-12,-32,-50,-31,-30
59,33,-42,-46,69,7,-3,-10,-33,-50,-31,-28
47,25,-36,-36,56,4,-4,-10,-32,-50,-31,-28
53,29,-39,-42,63,6,-2,-11,-35,-51,-30,-28
67,34,-55,-51,83,3,-3,-9,-35,-50,-28,-28
61,36,-40,-49,70,10,-1,-11,-40,-51,-29,-28
59,38,-34,-50,66,14,-2,-10,-35,-51,-29,-30
61,41,-31,-51,65,18,-3,-12,-41,-51,-29,-29
55,29,-44,-42,67,4,-5,-13,-43,-54,-30,-30
51,29,-37,-40,60,6,-3,-13,-44,-55,-34,-32
53,34,-31,-44,59,12,-3,-10,-39,-54,-33,-30
57,36,-34,-47,64,12,-5,-13,-43,-57,-35,-31
55,32,-37,-44,64,9,-5,-14,-47,-58,-37,-32
59,40,-31,-50,64,17,-2,-11,-40,-55,-34,-29
60,39,-33,-50,65,15,-3,-13,-46,-56,-35,-32
53,40,-20,-47,54,21,-3,-13,-46,-56,-34,-32
56,38,-29,-47,61,15,-4,-14,-49,-57,-35,-34
49,29,-33,-39,56,8,-5,-14,-48,-55,-35,-35
54,33,-34,-44,61,10,-6,-15,-50,-55,-35,-36
55,33,-36,-44,63,10,-6,-17,-54,-55,-34,-32
53,29,-39,-42,63,6,-5,-15,-48,-56,-35,-33
55,29,-44,-42,67,4,-5,-17,-54,-58,-39,-37
54,33,-34,-44,61,10,-4,-15,-44,-57,-36,-35
49,32,-26,-41,53,13,-3,-16,-49,-57,-37,-36
55,33,-36,-44,63,10,-4,-18,-55,-60,-37,-37
44,21,-37,-33,54,1,-5,-18,-56,-58,-34,-35
38,19,-33,-29,47,1,-5,-17,-55,-58,-34,-37
52,21,-52,-37,69,-5,-7,-19,-62,-61,-34,-40
55,29,-44,-42,67,4,-5,-18,-61,-59,-34,-37
52,25,-46,-39,65,0,-4,-16,-50,-57,-33,-38
54,33,-34,-44,61,10,-3,-14,-46,-55,-32,-36
58,38,-33,-48,64,14,-6,-18,-49,-59,-34,-37
47,29,-29,-39,54,10,-5,-16,-51,-59,-35,-37
53,36,-26,-45,57,16,-4,-16,-53,-57,-35,-38
55,33,-36,-44,63,10,-5,-15,-53,-57,-32,-37
49,27,-36,-38,58,5,-4,-17,-55,-57,-34,-38
47,23,-39,-35,58,2,-3,-17,-57,-58,-34,-40
45,23,-36,-34,55,3,-4,-17,-60,-58,-35,-40
48,29,-31,-39,55,9,-4,-16,-50,-57,-35,-38
49,27,-37,-38,59,5,-4,-17,-55,-59,-39,-41
40,22,-29,-31,47,5,-4,-18,-50,-59,-38,-42
49,25,-40,-38,60,2,-3,-16,-53,-59,-35,-39
49,28,-36,-39,59,6,-5,-18,-54,-59,-34,-38
49,29,-33,-40,57,8,-5,-18,-56,-58,-35,-38
49,29,-33,-39,56,8,-5,-17,-56,-59,-35,-40
49,28,-36,-39,59,6,-3,-18,-58,-59,-35,-39
46,28,-29,-37,52,8,-5,-18,-60,-60,-37,-41
54,31,-37,-43,63,8,-5,-17,-60,-59,-35,-39
47,27,-34,-38,56,6,-5,-18,-60,-59,-35,-39
46,28,-31,-37,54,8,-4,-16,-54,-58,-35,-37
47,30,-27,-39,53,11,-5,-18,-57,-60,-38,-38
51,29,-36,-41,60,7,-7,-19,-65,-64,-44,-43
37,20,-27,-29,44,4,-7,-21,-65,-64,-40,-41
36,13,-39,-24,49,-6,-6,-19,-65,-64,-42,-43
29,11,-29,-20,38,-3,-7,-20,-65,-63,-42,-43
47,23,-39,-35,58,2,-4,-19,-61,-60,-38,-44
50,28,-37,-39,60,5,-5,-18,-63,-60,-39,-46
57,36,-33,-47,63,13,-5,-18,-60,-58,-37,-43
59,36,-37,-48,67,11,-3,-18,-55,-57,-35,-38
47,28,-33,-38,55,7,-5,-20,-61,-61,-39,-42
38,20,-31,-29,47,2,-6,-20,-62,-62,-40,-46
42,20,-36,-31,52,1,-5,-21,-63,-64,-43,-45
42,21,-34,-32,51,2,-5,-19,-61,-62,-40,-42
47,30,-27,-39,53,11,-5,-19,-61,-59,-37,-40
49,29,-34,-39,57,7,-3,-18,-58,-60,-35,-40
44,24,-34,-35,54,4,-3,-18,-58,-61,-35,-41
46,27,-31,-36,53,7,-3,-18,-61,-61,-37,-41
49,29,-33,-39,56,8,-5,-19,-58,-60,-35,-41
41,21,-33,-32,50,3,-5,-20,-63,-61,-39,-44
35,20,-24,-28,41,5,-7,-21,-62,-60,-40,-46
29,14,-24,-21,36,1,-4,-19,-60,-61,-41,-46
38,24,-23,-31,43,8,-5,-19,-62,-61,-40,-45
51,28,-39,-40,62,5,-5,-22,-67,-62,-39,-44
39,18,-36,-29,50,-1,-6,-20,-63,-63,-39,-45
39,20,-31,-30,47,3,-5,-18,-63,-60,-37,-46
39,20,-33,-30,49,2,-6,-21,-69,-63,-39,-44
36,20,-26,-29,43,5,-4,-18,-63,-60,-36,-43
40,21,-31,-31,48,4,-5,-18,-63,-60,-36,-44
36,15,-36,-26,47,-3,-6,-21,-70,-61,-37,-44
36,14,-37,-25,48,-4,-4,-20,-67,-60,-38,-44
40,15,-42,-27,54,-6,-6,-20,-69,-62,-39,-47
42,22,-33,-32,50,3,-4,-18,-64,-61,-39,-44
44,22,-36,-33,54,2,-6,-21,-67,-63,-42,-48
44,24,-33,-34,52,5,-6,-23,-72,-65,-42,-49
46,23,-37,-35,56,2,-3,-22,-73,-63,-42,-49
41,24,-27,-33,47,7,-5,-22,-70,-63,-43,-48
36,20,-27,-28,44,4,-4,-19,-67,-60,-40,-47
43,21,-36,-32,53,2,-4,-18,-63,-59,-39,-48
30,9,-36,-19,42,-8,-5,-20,-67,-61,-42,-48
29,11,-29,-20,38,-3,-3,-18,-62,-60,-38,-46
42,20,-36,-31,52,1,-4,-20,-64,-60,-39,-45
42,13,-49,-27,59,-10,-5,-22,-71,-61,-42,-46
39,17,-37,-28,50,-3,-3,-20,-65,-59,-40,-45
40,13,-46,-27,55,-8,-3,-19,-65,-61,-39,-45
44,17,-47,-31,60,-6,-3,-20,-67,-61,-39,-46
40,18,-37,-29,51,-2,-3,-20,-69,-62,-42,-47
36,16,-33,-26,46,-1,-1,-18,-69,-60,-40,-49
45,27,-29,-36,52,8,-2,-17,-67,-58,-39,-48
38,14,-40,-26,51,-6,-4,-21,-71,-60,-42,-50
34,17,-29,-26,43,1,-3,-20,-70,-62,-42,-53
31,13,-31,-22,41,-3,-3,-19,-69,-61,-42,-53
35,11,-40,-23,49,-8,-4,-20,-71,-63,-44,-55
26,10,-27,-18,35,-4,-4,-22,-72,-63,-43,-54
35,10,-44,-22,50,-10,-3,-22,-71,-61,-40,-52
44,19,-44,-32,58,-4,-1,-20,-69,-60,-39,-50
41,23,-29,-32,49,5,-0,-20,-70,-59,-40,-54
40,25,-24,-33,45,9,-2,-21,-73,-61,-44,-56
35,15,-34,-25,46,-3,-2,-21,-76,-62,-43,-53
34,19,-26,-27,41,3,-3,-21,-76,-61,-43,-52
39,22,-27,-31,46,5,-2,-20,-73,-61,-40,-51
38,28,-16,-33,40,13,-2,-19,-73,-59,-42,-53
46,30,-24,-38,50,12,-3,-21,-72,-59,-40,-50
38,15,-39,-27,50,-5,-2,-20,-67,-58,-39,-48
35,15,-34,-25,46,-3,-1,-21,-71,-59,-39,-49
36,20,-27,-28,44,4,-1,-20,-74,-61,-41,-53
33,16,-27,-24,41,1,-3,-22,-72,-61,-40,-53
34,18,-27,-26,42,2,0,-20,-72,-63,-41,-54
41,23,-29,-32,49,5,0,-20,-72,-61,-41,-54
31,13,-31,-21,41,-3,0,-20,-72,-62,-42,-53
23,4,-33,-14,35,-10,0,-20,-72,-62,-42,-53
36,16,-33,-26,46,-1,-0,-22,-80,-64,-46,-57
35,19,-27,-27,42,3,1,-20,-73,-60,-41,-54
33,15,-31,-24,42,-1,0,-21,-73,-61,-44,-57
39,23,-26,-32,46,7,2,-20,-69,-60,-42,-56
40,16,-40,-28,53,-4,0,-22,-73,-60,-42,-56
44,15,-49,-29,60,-8,0,-21,-74,-61,-42,-57
36,16,-33,-26,46,-1,-1,-21,-73,-59,-42,-57
34,15,-33,-25,44,-2,-1,-21,-72,-60,-44,-57
31,13,-29,-22,40,-2,0,-20,-72,-60,-44,-57
29,11,-29,-20,38,-3,-1,-22,-77,-62,-45,-56
30,14,-26,-22,37,0,2,-19,-69,-60,-42,-55
41,20,-34,-31,50,2,1,-21,-73,-62,-45,-56
30,22,-11,-26,30,12,3,-18,-67,-60,-42,-54
26,21,-7,-24,25,13,0,-21,-74,-63,-42,-56
34,22,-20,-29,38,8,-2,-22,-79,-62,-42,-56
41,25,-26,-33,47,8,0,-21,-76,-61,-40,-54
28,13,-26,-20,36,-1,1,-19,-74,-60,-40,-55
36,16,-34,-26,47,-2,-1,-23,-81,-63,-44,-60
32,14,-29,-23,41,-1,-2,-22,-79,-60,-43,-60
25,9,-27,-17,34,-5,-1,-23,-79,-61,-42,-59
29,13,-27,-21,37,-2,-1,-21,-79,-60,-43,-59
28,11,-29,-19,37,-4,-2,-24,-80,-62,-45,-60
24,7,-29,-15,34,-6,0,-20,-72,-57,-42,-56
24,11,-21,-17,30,-1,1,-20,-71,-59,-43,-57
32,19,-21,-26,37,6,4,-17,-60,-54,-37,-52
34,22,-20,-29,38,8,5,-17,-65,-56,-37,-53
37,24,-21,-31,42,9,5,-17,-66,-55,-37,-54
36,19,-29,-27,44,2,3,-17,-65,-54,-38,-56
44,30,-21,-37,47,13,5,-14,-63,-52,-34,-54
49,38,-16,-44,49,21,6,-14,-60,-51,-33,-50
49,45,-3,-47,42,31,7,-12,-54,-49,-31,-52
43,42,1,-43,36,31,7,-11,-53,-48,-31,-51
39,38,2,-39,32,28,12,-9,-46,-45,-28,-49
36,35,0,-36,31,25,14,-9,-46,-47,-29,-51
49,43,-7,-47,44,28,12,-10,-47,-47,-29,-50
44,40,-5,-43,39,27,12,-11,-49,-48,-30,-50
52,52,3,-53,42,39,11,-8,-42,-44,-28,-48
44,49,12,-48,32,40,11,-8,-43,-45,-30,-50
33,39,13,-37,22,33,8,-9,-48,-47,-30,-51
43,46,10,-45,31,37,7,-10,-48,-45,-28,-47
59,55,-1,-58,50,40,5,-12,-46,-44,-27,-44
56,53,-1,-55,47,38,2,-14,-49,-45,-28,-47
50,55,13,-54,36,45,0,-17,-53,-46,-28,-48
52,59,16,-56,36,49,-3,-19,-57,-46,-28,-46
66,65,3,-67,54,48,-5,-23,-59,-47,-28,-48
60,58,2,-60,49,43,-5,-19,-54,-44,-24,-45
64,58,-5,-62,55,40,-5,-18,-54,-43,-25,-44
64,58,-5,-62,55,40,-4,-16,-47,-42,-23,-43
60,57,0,-60,50,41,-4,-17,-50,-44,-26,-44
69,63,-5,-68,60,44,-3,-14,-48,-40,-25,-41
71,67,-1,-70,60,48,-4,-17,-52,-42,-25,-42
70,68,2,-70,57,49,-3,-17,-49,-41,-24,-41
67,59,-10,-64,61,39,-2,-14,-46,-38,-19,-38
61,48,-18,-55,59,28,0,-13,-46,-39,-23,-40
64,46,-26,-56,65,23,-1,-14,-50,-41,-24,-42
60,43,-27,-52,64,20,-1,-18,-55,-44,-27,-44
65,45,-31,-56,69,21,-3,-18,-56,-45,-28,-44
67,43,-39,-56,75,15,-3,-19,-61,-45,-27,-44
70,38,-51,-54,83,7,-3,-18,-62,-44,-30,-47
68,32,-60,-51,85,-1,-5,-22,-73,-52,-35,-51
69,34,-58,-52,85,2,-0,-21,-78,-52,-35,-52
62,27,-60,-45,81,-4,-2,-24,-85,-55,-40,-55
57,20,-62,-39,77,-10,-1,-23,-84,-56,-38,-54
47,16,-53,-32,65,-9,1,-21,-80,-53,-39,-56
49,19,-52,-34,66,-7,1,-21,-80,-53,-38,-56
36,13,-40,-24,50,-7,2,-22,-78,-51,-38,-56
32,12,-34,-22,43,-5,1,-22,-80,-54,-42,-59
29,12,-29,-20,39,-3,1,-21,-78,-55,-42,-62
23,11,-21,-17,29,-1,2,-21,-80,-56,-42,-60
19,13,-9,-16,21,6,5,-19,-77,-55,-40,-61
25,18,-11,-21,26,8,5,-22,-83,-57,-44,-63
23,9,-24,-16,31,-3,3,-24,-93,-58,-46,-65
19,7,-20,-13,25,-3,5,-23,-89,-58,-46,-63
9,-3,-21,-3,17,-10,4,-24,-91,-59,-46,-65
19,1,-31,-9,31,-11,2,-26,-99,-63,-49,-68
16,8,-14,-12,21,0,3,-25,-94,-59,-45,-66
17,7,-18,-12,23,-2,3,-24,-92,-58,-44,-64
15,7,-13,-11,19,0,4,-23,-92,-58,-45,-66
9,5,-7,-7,11,2,3,-24,-93,-60,-48,-69
10,-3,-23,-3,19,-11,3,-27,-101,-63,-51,-73
6,-5,-21,0,15,-12,4,-26,-97,-62,-51,-73
15,5,-16,-10,21,-3,5,-25,-93,-60,-50,-69
19,10,-15,-14,23,1,5,-25,-96,-61,-48,-68
18,10,-13,-14,22,3,5,-25,-95,-59,-47,-68
19,8,-18,-13,24,-1,6,-24,-92,-60,-46,-66
13,9,-7,-11,14,4,7,-25,-94,-60,-49,-68
-3,2,8,1,-6,5,11,-19,-87,-60,-50,-70
-6,-8,-3,8,-4,-7,22,-4,-70,-61,-56,-76
-14,-15,-3,15,-11,-12,35,14,-50,-66,-63,-84
-19,-20,-3,20,-14,-15,52,36,-25,-64,-65,-88
-17,-15,1,17,-15,-11,60,48,-11,-66,-71,-96
-16,-19,-7,18,-11,-16,65,61,13,-64,-72,-97
-10,-12,-5,12,-6,-11,74,82,57,-53,-61,-92
-4,5,15,0,-10,9,82,92,89,-43,-58,-90
9,29,37,-19,-11,36,85,78,94,-37,-49,-83
11,50,72,-32,-25,64,83,54,84,-30,-35,-69
38,76,72,-59,-2,83,69,8,36,-23,-19,-52
77,109,64,-96,34,104,34,-47,-12,-6,11,-22
116,151,73,-137,62,137,-2,-108,-70,15,47,8
156,214,117,-190,74,200,-42,-158,-111,45,90,47
206,271,133,-245,108,248,-90,-201,-139,79,136,88
257,313,122,-294,156,274,-142,-246,-178,107,178,126
308,355,111,-341,204,300,-185,-273,-163,157,231,169
347,359,49,-363,266,278,-222,-297,-184,188,264,198
367,347,-7,-367,309,248,-252,-320,-213,214,286,214
363,340,-13,-361,309,240,-281,-337,-221,244,314,232
371,358,5,-375,307,260,-315,-361,-240,274,346,258
375,355,-8,-375,317,252,-327,-364,-244,299,366,272
365,324,-45,-353,326,216,-321,-346,-208,320,371,267
340,294,-57,-325,311,190,-304,-323,-174,310,351,247
295,244,-70,-276,279,148,-272,-297,-161,258,288,195
246,170,-118,-213,262,76,-225,-250,-153,179,200,127
201,85,-195,-145,261,-16,-173,-197,-166,81,96,56
138,14,-214,-76,218,-74,-129,-158,-223,-19,-1,-14
79,-14,-164,-32,145,-75,-97,-142,-287,-87,-53,-50
52,-12,-112,-20,97,-53,-73,-121,-260,-87,-58,-60
42,-3,-78,-20,72,-32,-57,-97,-207,-71,-51,-61
34,3,-53,-18,54,-19,-39,-73,-161,-57,-45,-60
30,6,-42,-18,46,-12,-26,-55,-127,-51,-39,-60
31,4,-47,-18,49,-15,-17,-41,-108,-48,-37,-60
28,5,-40,-17,43,-12,-7,-33,-97,-45,-38,-63
27,9,-31,-17,37,-6,-4,-30,-99,-49,-42,-71
12,-4,-27,-4,23,-13,-1,-28,-98,-52,-46,-75
2,-13,-27,6,14,-20,3,-24,-93,-53,-47,-77
-8,-24,-29,17,7,-29,5,-24,-94,-56,-51,-78
-10,-21,-21,17,1,-24,7,-19,-90,-58,-51,-80
-6,-20,-27,14,8,-26,11,-16,-86,-56,-52,-78
6,-11,-31,3,19,-20,12,-14,-86,-59,-55,-81
3,-14,-31,6,17,-22,10,-15,-88,-63,-56,-81
-10,-21,-21,17,1,-24,13,-12,-86,-63,-55,-82
-7,-18,-20,13,3,-21,13,-12,-90,-64,-58,-86
-7,-19,-21,14,4,-22,14,-12,-91,-64,-58,-86
-5,-19,-25,12,8,-24,16,-10,-85,-61,-57,-84
-2,-14,-22,9,9,-19,20,-6,-80,-59,-55,-83
-3,-20,-31,12,12,-26,16,-12,-91,-63,-60,-88
-9,-21,-24,16,4,-25,17,-8,-84,-62,-58,-87
-9,-18,-16,14,-1,-19,19,-5,-79,-60,-56,-87
-9,-19,-19,15,1,-22,19,-3,-78,-61,-59,-86
-2,-21,-36,12,16,-30,21,-4,-79,-59,-58,-86
-5,-18,-23,12,6,-22,22,-4,-73,-59,-56,-83
-10,-14,-8,13,-5,-13,23,-3,-78,-61,-55,-87
-18,-25,-13,23,-9,-23,21,-5,-81,-62,-57,-87
-19,-28,-16,24,-9,-26,19,-7,-91,-64,-59,-89
-12,-18,-11,15,-5,-17,22,-3,-77,-60,-55,-85
-7,-15,-14,12,1,-16,22,-3,-73,-57,-55,-86
-13,-19,-12,17,-5,-19,23,-3,-73,-58,-58,-87
-12,-18,-11,16,-5,-18,21,-4,-73,-57,-57,-87
-2,-10,-14,6,5,-13,21,-5,-79,-61,-60,-88
-7,-14,-13,11,0,-15,23,-1,-69,-57,-55,-85
-7,-20,-24,14,6,-24,23,-1,-69,-58,-55,-86
2,-11,-24,5,13,-18,22,-2,-74,-60,-56,-88
-3,-14,-20,9,6,-18,22,-4,-79,-61,-57,-88
-6,-15,-18,11,4,-18,23,-0,-67,-54,-49,-83
-15,-20,-11,18,-7,-19,21,-2,-73,-55,-53,-86
-18,-18,-2,18,-14,-14,22,-1,-73,-53,-49,-81
-19,-22,-8,21,-12,-19,25,-0,-70,-54,-52,-84
-12,-16,-8,15,-6,-14,24,-0,-74,-56,-53,-83
-6,-14,-14,11,1,-16,24,-1,-76,-57,-55,-82
-3,-13,-18,8,6,-16,25,1,-71,-54,-53,-81
-4,-11,-12,8,2,-13,25,1,-70,-54,-52,-83
-2,-11,-18,7,7,-15,25,2,-71,-53,-51,-82
2,-11,-24,5,13,-18,28,3,-67,-49,-49,-83
-7,-15,-14,12,1,-16,28,4,-64,-48,-48,-82
-13,-14,-3,14,-9,-12,27,3,-65,-49,-51,-86
-6,-5,1,6,-6,-4,26,3,-67,-51,-54,-85
-6,-7,-3,7,-4,-6,23,-2,-77,-54,-58,-86
-9,-10,-3,10,-6,-9,28,5,-66,-51,-53,-82
-10,-15,-11,13,-3,-15,26,3,-66,-52,-55,-82
-14,-16,-5,15,-9,-13,26,4,-67,-53,-54,-83
-5,-8,-7,7,-1,-9,25,4,-67,-50,-53,-83
-7,-11,-8,9,-2,-11,27,3,-67,-51,-55,-83
-1,-2,-2,2,0,-2,28,6,-64,-48,-53,-83
2,4,3,-2,0,4,28,6,-62,-47,-51,-83
1,-4,-10,2,6,-7,24,4,-64,-47,-54,-84
11,2,-16,-6,17,-5,25,7,-62,-46,-51,-83
0,-4,-8,3,4,-6,26,7,-59,-47,-53,-83
-1,-5,-8,4,2,-7,26,7,-56,-45,-52,-82
7,-1,-14,-3,12,-6,26,8,-56,-44,-51,-84
3,-5,-14,1,9,-9,26,9,-55,-45,-51,-82
-4,-3,2,3,-4,-1,27,9,-54,-44,-51,-86
2,0,-3,-0,3,-1,27,10,-53,-45,-51,-87
-1,-1,0,1,-1,-1,28,10,-52,-43,-49,-84
-4,-5,-3,5,-2,-5,28,9,-55,-43,-48,-81
-4,-4,0,4,-3,-3,28,12,-51,-43,-48,-81
-1,-6,-9,5,3,-8,27,12,-49,-41,-48,-82
-3,-7,-8,6,1,-8,28,12,-48,-41,-46,-81
7,5,-5,-6,9,2,30,15,-43,-39,-45,-79
12,7,-8,-9,14,2,29,16,-40,-38,-43,-78
-0,-3,-5,2,2,-4,28,15,-41,-38,-42,-77
4,1,-7,-2,7,-2,28,18,-34,-35,-41,-79
12,9,-5,-10,12,5,29,19,-30,-32,-37,-75
0,1,1,0,-1,1,29,21,-27,-33,-38,-78
5,-3,-14,-1,11,-8,28,19,-30,-34,-38,-77
11,3,-14,-6,16,-4,28,18,-34,-33,-35,-78
9,-4,-22,-2,18,-11,25,19,-30,-34,-35,-78
4,-4,-14,1,10,-9,28,22,-26,-32,-35,-77
3,-3,-10,0,7,-6,29,26,-19,-29,-33,-75
10,6,-7,-8,12,2,29,26,-19,-29,-33,-75
4,5,1,-4,3,4,26,26,-19,-29,-34,-78
5,2,-5,-3,7,-1,27,28,-14,-26,-31,-76
6,4,-3,-5,7,2,29,30,-10,-25,-29,-75
7,6,-2,-6,7,4,28,30,-11,-25,-30,-75
7,9,3,-8,5,8,29,32,-8,-25,-28,-74
17,18,3,-17,12,14,32,36,-2,-22,-24,-71
20,19,0,-20,17,14,31,38,4,-17,-20,-68
10,2,-14,-6,16,-4,28,35,-6,-22,-28,-73
17,8,-14,-12,21,1,28,39,-1,-20,-22,-72
11,2,-16,-6,17,-5,28,41,6,-17,-21,-72
18,14,-5,-16,17,9,28,43,12,-14,-18,-67
25,20,-7,-23,24,12,30,48,20,-8,-14,-64
21,17,-5,-19,20,10,30,51,24,-7,-13,-65
19,15,-7,-17,19,8,29,52,24,-6,-11,-65
18,11,-10,-14,19,5,30,52,28,-6,-13,-65
31,20,-18,-26,35,8,30,54,27,-4,-11,-63
39,29,-16,-34,41,14,29,55,30,-3,-9,-63
34,28,-10,-31,34,16,31,60,40,1,-5,-62
31,25,-8,-28,29,15,29,62,41,2,-4,-61
33,29,-5,-31,30,19,28,64,43,3,-2,-60
42,36,-8,-39,39,23,27,65,42,5,1,-58
40,28,-18,-34,42,13,26,66,43,5,2,-55
42,35,-10,-39,40,21,26,68,45,9,3,-54
44,36,-11,-40,42,22,26,68,48,10,5,-56
46,38,-11,-42,44,23,26,71,51,14,9,-52
50,39,-16,-45,50,22,26,73,55,17,12,-48
52,42,-13,-48,49,25,25,71,53,16,12,-49
52,44,-11,-48,49,27,25,74,56,19,17,-45
47,38,-14,-43,47,22,25,73,53,18,18,-47
54,38,-26,-47,58,17,23,71,51,18,18,-46
54,45,-13,-50,52,27,23,73,51,22,20,-44
52,43,-13,-48,50,26,22,73,53,21,21,-41
62,44,-28,-54,65,21,24,74,53,23,25,-39
59,50,-11,-55,54,32,23,74,51,24,27,-38
53,46,-10,-50,49,29,24,73,52,27,30,-38
53,45,-12,-50,50,28,22,71,49,28,29,-40
56,41,-23,-49,58,21,22,69,39,23,26,-41
60,46,-21,-54,60,25,20,67,36,22,28,-40
59,45,-20,-53,59,25,19,66,34,21,27,-40
67,53,-21,-61,67,29,20,66,34,23,28,-40
60,48,-16,-55,58,28,19,64,30,22,28,-39
56,43,-20,-50,56,23,20,63,33,24,30,-37
67,51,-23,-60,67,28,22,64,30,26,35,-31
69,46,-35,-59,74,20,19,61,25,25,35,-29
61,46,-21,-54,60,25,20,60,24,24,32,-32
59,52,-8,-56,54,34,20,59,24,25,36,-30
65,52,-20,-60,64,30,20,55,19,22,34,-32
58,49,-11,-54,54,31,21,53,20,21,32,-31
50,44,-8,-48,46,29,19,48,10,18,29,-37
54,45,-13,-50,52,27,20,47,8,18,28,-35
46,42,-5,-45,41,28,22,46,11,17,27,-36
45,40,-5,-43,40,27,19,43,4,13,24,-38
37,39,7,-38,27,30,20,41,0,11,20,-40
40,38,0,-40,34,28,20,39,-3,8,18,-40
39,43,10,-42,28,35,23,38,-4,7,18,-40
30,40,21,-35,14,38,23,34,-9,6,15,-43
43,49,15,-47,29,41,26,33,-8,4,15,-46
36,42,14,-39,23,36,26,28,-16,1,10,-49
33,42,18,-38,19,38,26,24,-22,-3,6,-52
33,40,16,-37,19,36,28,23,-23,-5,5,-52
19,29,20,-24,6,28,26,20,-30,-10,-2,-56
17,31,27,-25,1,33,29,18,-33,-12,-5,-57
6,21,29,-14,-9,27,27,14,-41,-15,-8,-59
7,20,24,-13,-6,24,27,11,-46,-18,-12,-62
8,30,40,-19,-12,38,29,11,-43,-15,-10,-59
10,29,36,-20,-9,36,30,9,-41,-16,-10,-59
14,33,35,-24,-5,38,30,9,-47,-17,-12,-62
16,34,34,-26,-2,38,30,5,-49,-19,-14,-62
6,28,40,-17,-14,36,29,4,-53,-20,-16,-64
10,31,39,-21,-10,38,29,0,-59,-25,-21,-68
11,31,37,-21,-8,37,29,-2,-61,-26,-20,-67
3,26,42,-15,-17,36,31,-1,-58,-26,-22,-67
4,26,40,-15,-16,35,29,-3,-67,-31,-24,-69
3,20,33,-12,-13,28,27,-6,-73,-33,-28,-69
-8,14,39,-3,-26,25,30,-4,-70,-31,-29,-69
-7,13,35,-3,-22,23,26,-8,-79,-34,-31,-71
-4,21,46,-9,-25,33,28,-4,-70,-30,-28,-69
-3,19,39,-8,-21,29,28,-6,-76,-33,-28,-69
-10,9,34,1,-24,20,28,-6,-73,-31,-28,-69
2,20,33,-11,-14,27,28,-6,-73,-32,-28,-68
-8,11,34,-1,-23,21,28,-8,-79,-35,-32,-73
-7,11,33,-2,-21,21,27,-8,-78,-36,-32,-73
-4,11,26,-3,-16,18,27,-7,-77,-33,-30,-72
-5,15,36,-5,-21,25,30,-6,-73,-31,-28,-71
3,14,21,-9,-7,19,29,-6,-72,-30,-26,-69
-3,9,21,-3,-12,14,30,-4,-67,-29,-26,-69
-3,9,21,-3,-12,14,28,-7,-71,-32,-27,-68
-6,5,21,1,-15,12,28,-6,-69,-30,-26,-69
-16,2,31,7,-27,13,28,-6,-69,-30,-29,-69
-7,8,27,0,-19,16,28,-5,-67,-30,-28,-69
-7,14,39,-3,-25,26,29,-4,-63,-29,-26,-68
-5,19,42,-7,-24,30,31,-3,-62,-28,-25,-66
-4,17,37,-6,-21,27,31,-2,-61,-28,-25,-66
-9,13,39,-2,-26,25,28,-3,-63,-29,-26,-67
-1,14,27,-7,-14,21,28,-4,-70,-31,-27,-67
-9,11,36,-1,-24,22,28,-3,-64,-30,-26,-69
0,14,26,-7,-12,21,27,-3,-65,-30,-28,-68
-6,11,29,-2,-19,19,28,0,-60,-29,-25,-68
-7,16,42,-4,-26,28,31,2,-53,-27,-20,-66
-1,17,33,-8,-16,25,30,1,-55,-28,-23,-67
-6,16,39,-5,-23,27,29,0,-56,-26,-21,-66
-3,20,40,-9,-21,30,30,1,-53,-26,-21,-63
-3,15,33,-6,-18,24,29,1,-50,-24,-21,-64
-9,11,36,-0,-25,22,30,1,-55,-25,-22,-67
-13,6,34,4,-27,18,32,3,-50,-24,-19,-63
-18,9,47,5,-37,25,30,2,-51,-26,-22,-67
-21,6,47,8,-39,23,28,-1,-57,-27,-24,-70
-13,8,37,3,-29,20,28,-1,-57,-26,-24,-71
-10,11,37,0,-26,22,29,1,-56,-27,-25,-70
2,24,40,-13,-17,33,32,3,-48,-23,-19,-66
0,23,42,-12,-20,33,33,5,-44,-23,-18,-65
-1,24,46,-12,-22,35,35,6,-40,-21,-16,-66
3,29,49,-16,-21,41,33,6,-42,-22,-19,-67
3,29,49,-16,-21,41,33,6,-41,-22,-19,-68
-2,25,49,-12,-25,37,34,6,-44,-25,-21,-66
-3,27,53,-12,-27,40,32,5,-44,-26,-18,-66
-2,29,57,-14,-29,43,34,7,-37,-22,-17,-66
-6,18,42,-6,-25,29,32,4,-46,-22,-17,-66
-14,11,46,2,-34,26,33,4,-42,-21,-18,-68
-14,14,50,0,-36,30,32,4,-48,-24,-20,-67
-11,13,42,-0,-29,26,32,2,-49,-25,-19,-67
-14,8,39,3,-31,21,34,3,-51,-26,-21,-67
-11,11,40,0,-29,24,34,5,-53,-26,-21,-68
-9,17,47,-4,-30,30,34,5,-47,-25,-19,-66
-8,20,50,-6,-31,34,36,6,-44,-24,-19,-66
-21,10,53,6,-42,28,34,4,-47,-24,-16,-68
-10,15,46,-2,-31,29,34,6,-43,-22,-17,-67
-9,17,46,-4,-29,30,34,3,-46,-22,-19,-68
-10,15,46,-2,-31,29,33,3,-49,-24,-19,-67
-11,15,47,-2,-32,29,31,3,-50,-24,-20,-68
-7,19,47,-6,-29,32,33,3,-51,-25,-21,-69
-6,21,49,-8,-28,35,34,6,-46,-24,-19,-66
-1,25,47,-12,-23,37,34,7,-44,-22,-17,-64
-7,20,49,-6,-29,33,34,3,-50,-24,-20,-68
1,18,31,-9,-14,25,34,4,-50,-22,-18,-68
-6,14,37,-4,-23,25,34,3,-53,-22,-17,-67
-8,13,37,-2,-24,24,32,2,-54,-25,-19,-68
-14,18,57,-2,-39,35,33,2,-57,-25,-21,-67
-14,15,52,-0,-37,31,33,2,-54,-23,-17,-66
-19,9,49,5,-39,26,33,2,-60,-26,-20,-69
-21,6,47,8,-39,23,31,-1,-67,-29,-23,-69
-15,11,47,2,-35,27,31,-0,-64,-28,-23,-71
-14,15,52,-0,-37,31,33,2,-63,-26,-19,-68
-3,21,44,-9,-23,32,32,1,-65,-28,-21,-68
-2,19,37,-8,-19,28,31,-0,-65,-29,-19,-66
-7,20,49,-7,-29,34,34,1,-64,-26,-18,-66
-4,16,37,-6,-21,26,32,-2,-69,-29,-19,-67
-11,15,47,-2,-32,29,32,-2,-72,-29,-21,-68
-10,16,47,-3,-31,30,32,-3,-74,-29,-23,-71
-14,17,55,-1,-38,34,32,-3,-73,-30,-23,-70
-15,18,59,-2,-41,36,32,-3,-71,-29,-22,-68
-17,18,62,-0,-44,37,33,-2,-69,-29,-22,-69
-18,10,49,4,-38,26,29,-3,-77,-32,-23,-70
-19,9,50,5,-40,26,29,-5,-81,-33,-26,-73
-22,8,53,8,-44,27,29,-6,-83,-35,-26,-72
-19,13,57,3,-43,31,31,-5,-79,-34,-25,-74
-9,20,52,-6,-32,35,31,-6,-83,-33,-23,-71
-6,20,47,-7,-27,32,31,-5,-81,-31,-22,-69
-12,17,52,-2,-35,32,33,-4,-78,-28,-21,-68
-13,11,44,1,-32,25,33,-5,-81,-30,-23,-71
-15,11,47,2,-35,27,33,-3,-78,-28,-23,-70
-16,4,36,6,-31,17,31,-6,-86,-33,-26,-74
-18,5,40,6,-34,20,31,-7,-87,-34,-26,-72
-24,4,49,10,-43,22,30,-7,-86,-34,-26,-72
-17,7,42,5,-34,22,31,-6,-86,-34,-27,-72
-14,5,34,5,-27,17,30,-7,-87,-33,-26,-71
-12,8,36,2,-27,20,29,-6,-88,-34,-26,-72
-22,4,47,9,-41,22,32,-7,-86,-33,-26,-71
-22,8,53,8,-44,27,32,-6,-85,-33,-24,-69
-22,4,47,9,-41,22,30,-9,-92,-34,-29,-72
-19,5,44,7,-37,21,28,-10,-97,-37,-30,-72
-22,4,46,9,-40,21,28,-11,-95,-37,-27,-70
-18,11,50,3,-39,27,31,-6,-92,-35,-25,-69
-18,9,47,5,-37,25,29,-7,-93,-36,-28,-74
-13,15,50,-1,-35,30,30,-6,-90,-34,-25,-72
-7,15,40,-4,-26,27,32,-9,-93,-37,-26,-72
-14,10,42,2,-32,24,29,-9,-93,-35,-28,-74
-22,6,50,8,-42,24,33,-7,-88,-33,-26,-72
-24,8,55,8,-46,27,28,-12,-98,-38,-30,-76
-20,8,49,6,-40,25,28,-12,-99,-37,-30,-75
-26,2,49,12,-45,21,28,-10,-92,-35,-27,-72
-33,-3,52,18,-52,19,29,-7,-88,-34,-25,-72
-21,3,40,9,-36,18,28,-11,-101,-38,-29,-75
-25,2,47,12,-43,20,30,-9,-94,-37,-27,-76
-20,4,42,8,-37,20,31,-10,-97,-37,-28,-75
-20,10,52,5,-41,27,31,-9,-93,-37,-28,-74
-9,20,52,-5,-32,35,27,-10,-97,-38,-28,-74
-14,11,44,2,-32,25,31,-9,-90,-35,-25,-71
-22,2,42,11,-39,18,31,-10,-92,-37,-28,-74
-26,0,46,14,-44,18,30,-11,-97,-37,-27,-74
-34,-8,46,22,-50,12,29,-12,-99,-39,-30,-75
-30,1,53,15,-50,22,28,-12,-100,-40,-31,-75
-25,6,55,10,-47,26,28,-11,-98,-39,-30,-75
-14,13,49,0,-35,29,29,-8,-95,-37,-26,-72
-19,11,53,4,-41,29,32,-7,-90,-37,-26,-73
-16,15,55,0,-40,32,30,-8,-92,-38,-28,-74
-18,10,49,4,-38,26,29,-9,-91,-38,-28,-72
-18,7,44,5,-36,22,28,-11,-97,-37,-30,-74
-20,15,62,2,-46,35,31,-11,-95,-35,-28,-73
-16,16,57,0,-40,34,29,-11,-94,-37,-29,-73
-26,8,60,9,-50,29,28,-12,-97,-37,-28,-73
-28,6,60,11,-52,28,28,-12,-98,-40,-30,-75
-21,5,47,8,-40,22,27,-11,-99,-40,-29,-74
-27,-1,46,14,-44,18,26,-13,-102,-41,-33,-78
-29,4,57,13,-51,25,28,-13,-98,-39,-31,-78
-18,14,57,2,-42,32,31,-10,-94,-36,-31,-78
-16,20,65,-2,-44,40,32,-9,-92,-37,-30,-75
-16,21,66,-3,-45,42,31,-11,-93,-37,-29,-74
-23,16,70,3,-52,39,31,-13,-97,-37,-30,-73
-28,5,59,12,-51,27,31,-11,-97,-36,-30,-74
-29,4,57,13,-51,25,28,-13,-104,-38,-32,-76
-28,6,60,11,-52,28,30,-12,-102,-37,-31,-75
-19,13,55,3,-42,31,30,-11,-101,-36,-30,-72
-17,16,59,0,-42,35,31,-10,-98,-34,-28,-72
-23,9,57,7,-46,29,30,-11,-100,-37,-30,-73
-30,5,62,12,-54,28,30,-10,-98,-37,-30,-75
-31,8,68,12,-59,32,30,-12,-99,-40,-31,-75
-24,11,62,6,-49,32,30,-11,-97,-39,-29,-73
-18,13,55,2,-41,31,29,-13,-99,-39,-30,-75
-24,10,60,8,-49,30,28,-14,-100,-39,-34,-77
-28,11,68,9,-56,35,29,-13,-100,-40,-34,-77
-28,4,57,12,-50,25,29,-12,-97,-38,-34,-77
-30,4,60,13,-54,27,30,-12,-98,-37,-32,-75
-22,11,59,5,-46,31,28,-13,-104,-41,-35,-76
-21,15,63,3,-47,36,30,-11,-99,-39,-33,-75
-33,3,62,15,-57,26,29,-13,-102,-41,-34,-76
-26,8,60,9,-50,29,28,-14,-104,-41,-34,-77
-27,5,57,11,-49,26,30,-12,-102,-41,-31,-76
-32,1,57,16,-54,23,32,-14,-102,-39,-30,-75
-27,4,55,12,-49,25,31,-11,-100,-37,-30,-77
-25,6,55,10,-47,26,30,-13,-101,-38,-30,-77
-24,6,53,9,-46,25,30,-12,-99,-37,-32,-78
-28,6,60,11,-52,28,26,-15,-104,-39,-35,-80
-33,5,66,14,-59,30,26,-14,-102,-40,-35,-81
-33,-3,52,18,-52,19,26,-14,-104,-41,-37,-83
-31,-4,46,18,-47,15,26,-16,-107,-41,-35,-81
-26,4,52,12,-47,23,27,-14,-102,-40,-33,-77
-29,5,60,12,-52,27,29,-14,-102,-39,-30,-77
-32,5,65,14,-57,29,28,-12,-95,-37,-30,-75
-26,4,53,11,-47,24,30,-14,-104,-40,-31,-78
-30,9,68,11,-57,33,28,-13,-102,-39,-31,-79
-34,4,66,15,-60,29,30,-12,-100,-38,-30,-78
-32,4,63,14,-57,28,28,-13,-100,-38,-31,-77
-33,5,66,14,-59,30,27,-12,-102,-38,-29,-75
-34,1,60,17,-57,24,27,-14,-104,-39,-28,-75
-30,7,65,12,-56,31,29,-11,-98,-37,-28,-76
-20,13,59,3,-44,32,27,-13,-101,-38,-28,-77
-32,10,73,11,-61,36,28,-12,-102,-39,-30,-78
-27,5,57,11,-49,26,29,-14,-100,-39,-28,-77
-25,9,60,8,-49,30,31,-13,-98,-38,-26,-76
-34,4,66,15,-60,29,31,-12,-95,-37,-29,-80
-33,4,65,15,-59,29,30,-13,-99,-35,-28,-80
-24,10,60,8,-49,30,31,-12,-99,-37,-30,-79
-19,14,59,2,-44,33,31,-12,-101,-38,-28,-80
-36,1,63,18,-60,25,30,-14,-104,-39,-31,-80
-36,0,62,18,-59,24,28,-13,-104,-39,-30,-81
-25,3,49,12,-44,21,29,-11,-101,-38,-27,-77
-25,7,57,9,-48,27,29,-13,-101,-39,-28,-78
-21,11,57,5,-45,30,29,-11,-95,-36,-24,-77
-26,11,65,8,-53,33,30,-10,-94,-37,-26,-78
-26,11,65,8,-53,33,31,-10,-93,-35,-24,-77
-27,11,68,8,-55,35,31,-10,-92,-34,-25,-76
-26,10,63,8,-52,32,28,-12,-100,-38,-29,-79
-28,5,59,12,-51,27,28,-13,-102,-39,-30,-80
-36,7,75,14,-65,35,29,-13,-101,-39,-31,-81
-37,4,73,17,-66,32,29,-11,-100,-38,-29,-78
-36,4,68,16,-62,29,27,-14,-104,-39,-31,-81
-34,6,70,14,-61,32,29,-12,-98,-38,-31,-83
-19,14,60,3,-45,34,28,-14,-100,-39,-30,-81
-33,3,62,15,-57,26,28,-14,-106,-41,-31,-84
-26,6,57,10,-49,27,30,-10,-93,-37,-25,-77
-27,6,59,11,-50,27,30,-9,-92,-35,-26,-77
-18,14,57,2,-42,32,32,-9,-92,-35,-26,-77
-27,13,72,7,-57,38,30,-8,-94,-34,-25,-75
-33,2,60,16,-55,25,27,-11,-98,-35,-26,-75
-32,6,66,13,-58,30,27,-11,-98,-36,-26,-78
-30,6,63,12,-55,29,28,-9,-98,-35,-25,-76
-40,-4,63,22,-64,22,28,-10,-99,-37,-25,-78
-43,-2,72,23,-70,27,29,-10,-97,-38,-26,-77
-29,0,50,15,-48,20,29,-11,-97,-37,-26,-78
-25,4,50,11,-45,22,28,-11,-97,-37,-26,-79
-37,3,68,17,-63,29,29,-10,-92,-33,-23,-78
-32,6,66,13,-58,30,32,-7,-86,-30,-21,-75
-36,4,68,16,-62,29,31,-7,-90,-31,-21,-76
-31,9,70,11,-59,34,31,-8,-94,-33,-23,-76
-31,7,66,12,-57,31,30,-10,-94,-33,-21,-74
-27,15,75,6,-59,40,31,-8,-93,-31,-20,-75
-32,7,68,12,-59,32,29,-11,-97,-33,-19,-77
-31,5,63,13,-55,29,29,-11,-95,-33,-21,-77
-32,4,63,14,-57,28,27,-14,-102,-37,-23,-80
-37,4,73,17,-66,32,29,-10,-93,-34,-21,-77
-29,9,66,10,-55,32,28,-9,-90,-31,-19,-74
-32,8,70,12,-60,33,29,-10,-94,-34,-21,-76
-29,10,68,10,-57,34,29,-10,-91,-33,-21,-74
-27,11,68,8,-55,35,29,-11,-95,-34,-23,-76
-33,3,62,15,-57,26,29,-11,-94,-34,-21,-75
-36,3,66,17,-61,28,28,-12,-94,-35,-20,-77
-41,0,72,21,-69,28,28,-11,-93,-33,-20,-77
-46,-3,76,25,-75,28,27,-12,-94,-34,-21,-77
-43,-10,57,27,-63,15,28,-12,-95,-34,-21,-75
-34,-5,50,20,-53,16,27,-9,-94,-34,-21,-75
-33,5,66,14,-59,30,28,-10,-91,-31,-21,-75
-28,6,60,11,-52,28,30,-10,-91,-31,-21,-75
-27,10,65,9,-54,32,31,-8,-90,-31,-19,-74
-38,-1,65,20,-63,25,30,-9,-92,-31,-19,-74
-37,-3,60,20,-60,22,27,-12,-99,-37,-25,-78
-35,3,65,17,-60,27,26,-13,-99,-36,-24,-77
-31,4,60,14,-54,26,28,-10,-95,-34,-21,-76
-37,5,75,16,-67,33,28,-10,-93,-33,-19,-74
-33,9,73,12,-62,35,28,-10,-93,-31,-19,-74
-34,7,72,14,-62,33,28,-11,-88,-32,-16,-71
-34,2,62,16,-57,26,27,-9,-92,-35,-19,-75
-38,2,70,19,-65,29,28,-9,-87,-32,-17,-74
-31,2,57,15,-53,24,27,-10,-94,-33,-20,-76
-31,9,71,11,-60,35,28,-7,-86,-30,-16,-72
-28,9,64,9,-54,32,27,-10,-93,-34,-19,-75
-23,13,63,5,-49,34,25,-12,-100,-37,-22,-77
-33,7,70,13,-60,32,30,-7,-89,-32,-15,-71
-39,3,73,19,-67,30,29,-8,-88,-33,-18,-73
-34,5,68,15,-60,30,32,-6,-85,-33,-14,-69
-25,12,64,6,-51,34,34,-1,-74,-30,-12,-68
-30,13,76,8,-61,40,32,-1,-74,-29,-12,-70
-18,25,77,-3,-52,48,33,0,-67,-24,-9,-67
-16,32,86,-9,-54,57,35,1,-64,-22,-8,-65
-18,30,87,-6,-57,56,36,1,-63,-23,-9,-65
-17,29,81,-6,-53,53,38,1,-64,-25,-9,-66
-17,36,96,-10,-60,64,39,2,-61,-24,-7,-65
-6,46,96,-21,-51,71,41,6,-52,-18,-3,-61
-14,38,94,-12,-57,65,41,6,-53,-18,-4,-62
-16,39,99,-12,-61,67,40,7,-51,-18,-3,-63
-7,43,91,-18,-50,67,39,6,-54,-18,-4,-63
-15,36,91,-11,-56,62,36,6,-56,-18,-4,-63
-9,39,87,-16,-49,63,32,2,-60,-21,-7,-66
-21,34,99,-7,-65,63,28,-0,-61,-21,-7,-64
-9,38,85,-15,-47,61,29,3,-52,-18,-4,-62
-10,47,103,-19,-58,75,26,-1,-56,-19,-5,-64
-1,47,88,-24,-43,68,23,-3,-60,-19,-4,-62
3,50,86,-27,-39,70,20,-6,-63,-20,-4,-61
10,63,96,-38,-37,83,22,-4,-60,-18,-2,-56
19,65,86,-43,-26,81,21,-3,-57,-16,4,-53
9,55,86,-33,-34,74,24,0,-49,-14,4,-52
6,48,76,-27,-31,64,23,0,-50,-14,4,-53
6,50,81,-29,-34,68,23,-3,-60,-18,-2,-56
9,58,89,-35,-35,77,23,-2,-54,-15,-0,-55
-2,46,88,-23,-44,68,24,1,-53,-14,1,-55
2,50,88,-27,-41,71,26,3,-49,-14,1,-56
9,48,72,-29,-27,63,24,1,-50,-16,-1,-56
6,45,73,-26,-30,62,24,-1,-59,-18,-3,-57
5,41,66,-24,-27,56,22,-3,-67,-21,-5,-61
4,44,73,-25,-31,61,21,-4,-67,-22,-5,-60
-1,39,73,-20,-36,57,21,-5,-69,-23,-7,-62
-2,35,67,-17,-34,51,20,-7,-73,-26,-8,-62
6,29,41,-18,-14,37,19,-11,-86,-31,-15,-66
6,26,36,-16,-12,33,19,-13,-92,-34,-15,-65
-3,24,49,-11,-26,37,20,-11,-87,-31,-11,-67
-7,22,52,-8,-31,37,19,-9,-87,-30,-14,-68
-15,12,47,2,-35,27,21,-9,-86,-30,-16,-69
-23,13,63,5,-49,34,24,-5,-83,-29,-14,-70
-34,10,76,12,-64,37,25,-4,-78,-28,-14,-69
-24,14,68,5,-53,37,24,-7,-80,-31,-15,-71
-37,13,88,12,-73,44,25,-9,-85,-34,-19,-77
-38,9,83,15,-71,39,25,-9,-83,-32,-16,-73
-42,5,83,19,-75,37,26,-7,-80,-29,-16,-74
-30,20,90,5,-68,50,29,-7,-81,-31,-18,-75
-38,6,78,17,-69,35,26,-9,-87,-34,-22,-78
-49,-4,79,27,-79,29,26,-9,-89,-33,-20,-77
-42,-4,67,23,-67,24,22,-14,-101,-37,-22,-77
-49,-3,81,26,-80,30,24,-11,-97,-35,-21,-75
-49,-5,75,27,-77,26,23,-13,-100,-35,-21,-80
-45,2,81,22,-76,33,27,-9,-90,-32,-18,-78
-46,2,84,23,-79,35,25,-10,-95,-34,-19,-78
-46,4,87,21,-80,38,25,-10,-90,-33,-18,-76
-46,0,81,24,-77,32,25,-12,-94,-36,-21,-77
-46,5,90,21,-82,39,26,-10,-89,-33,-18,-77
-49,1,86,24,-82,35,26,-9,-87,-35,-19,-79
-53,-2,89,28,-87,34,26,-9,-87,-34,-19,-80
-44,2,79,21,-74,32,25,-13,-95,-37,-21,-81
-48,-4,76,27,-77,27,25,-14,-102,-38,-21,-81
-52,2,94,26,-88,38,29,-10,-92,-35,-17,-78
-52,2,94,26,-89,39,33,-4,-78,-34,-19,-80
-66,-5,105,36,-106,38,48,16,-55,-33,-23,-86
-80,-16,111,49,-120,32,60,33,-43,-40,-34,-96
-82,-26,96,55,-114,19,72,47,-31,-43,-39,-103
-86,-30,94,59,-117,15,80,64,-5,-41,-41,-108
-79,-22,98,52,-113,23,86,80,24,-35,-40,-108
-65,-5,103,35,-103,37,90,96,64,-23,-32,-103
-54,11,114,22,-100,53,100,105,98,-14,-25,-97
-45,33,138,6,-103,78,100,86,102,-5,-14,-88
-34,55,159,-11,-105,102,99,60,95,5,4,-72
-6,80,156,-39,-79,119,84,13,61,15,24,-52
33,116,154,-77,-46,145,49,-45,13,35,61,-18
72,159,164,-119,-18,180,15,-105,-38,57,96,15
127,229,196,-184,12,243,-27,-155,-77,90,146,59
175,278,203,-234,49,281,-74,-199,-110,122,191,99
224,323,198,-282,92,312,-128,-246,-149,153,231,134
268,370,206,-329,125,348,-168,-275,-135,199,284,178
295,362,144,-338,177,318,-202,-302,-162,222,306,198
306,344,92,-334,211,284,-232,-323,-189,243,328,217
296,344,111,-329,194,291,-263,-339,-193,274,359,240
306,362,125,-344,196,310,-293,-359,-210,306,388,264
303,347,105,-334,202,292,-304,-356,-213,330,406,271
280,313,83,-305,194,259,-296,-336,-186,339,404,260
255,276,59,-273,185,222,-273,-312,-169,310,366,228
207,219,39,-219,154,174,-240,-280,-165,248,291,170
163,148,-14,-159,143,101,-188,-225,-152,165,199,105
109,61,-80,-86,130,12,-140,-171,-177,70,96,27
52,-1,-92,-26,88,-37,-101,-145,-252,-25,13,-32
7,-11,-33,3,21,-21,-69,-127,-277,-66,-24,-62
-7,-10,-5,9,-4,-9,-51,-106,-235,-57,-24,-68
-21,-4,29,12,-31,9,-33,-79,-179,-43,-12,-64
-28,-5,39,17,-42,11,-19,-57,-139,-32,-7,-66
-33,1,59,16,-55,24,-6,-42,-116,-28,-5,-68
-35,4,67,16,-61,29,3,-29,-99,-21,-1,-68
-41,2,75,20,-70,31,9,-22,-93,-19,-2,-70
-38,3,72,18,-66,30,14,-17,-88,-21,-2,-71
-44,-2,73,23,-72,27,17,-14,-84,-22,-6,-74
-49,-6,73,28,-76,25,19,-10,-76,-23,-8,-76
-57,-7,86,33,-89,29,22,-7,-73,-25,-11,-76
-63,-14,85,39,-94,23,24,-5,-67,-26,-14,-79
-58,-15,73,37,-84,18,26,-5,-77,-33,-19,-84
-62,-17,78,41,-90,19,26,-6,-78,-37,-23,-87
-57,-5,91,32,-92,32,29,-1,-69,-35,-20,-84
-57,-14,75,36,-84,20,30,-2,-76,-37,-23,-86
-58,-17,70,38,-82,15,29,-2,-82,-41,-25,-88
-69,-20,85,45,-99,19,31,1,-76,-37,-23,-87
-69,-20,85,45,-99,19,32,1,-76,-39,-25,-90
-62,-10,91,37,-96,29,31,-0,-77,-37,-25,-89
-58,-3,96,31,-94,36,32,3,-69,-34,-23,-87
-61,-14,81,38,-90,22,31,1,-68,-38,-25,-90
-62,-13,83,38,-92,23,35,5,-62,-37,-24,-89
-58,-13,78,36,-86,22,35,6,-61,-38,-23,-91
-61,-9,89,35,-94,29,36,5,-62,-38,-26,-90
-61,-10,88,36,-93,28,36,6,-64,-38,-24,-88
-56,-6,86,32,-89,30,35,6,-65,-37,-23,-88
-59,-8,88,34,-91,29,34,6,-67,-36,-24,-89
-62,-13,85,39,-93,24,34,4,-66,-36,-24,-89
-59,-4,96,32,-95,35,35,7,-56,-31,-21,-87
-64,-12,90,39,-97,27,37,8,-56,-34,-22,-87
-70,-16,93,44,-103,25,36,7,-56,-34,-23,-90
-55,-9,79,33,-84,25,36,9,-54,-35,-21,-87
-59,-14,78,38,-87,21,37,8,-57,-36,-22,-89
-65,-20,76,44,-91,15,36,7,-59,-37,-24,-90
-65,-20,77,43,-91,16,36,8,-60,-36,-23,-89
-68,-22,78,46,-94,15,36,7,-57,-36,-23,-90
-63,-6,99,35,-100,35,34,6,-61,-36,-24,-90
-59,-1,101,30,-97,39,35,8,-55,-34,-21,-87
-54,-3,89,29,-88,33,37,8,-53,-34,-21,-87
-50,-2,85,27,-83,32,36,10,-52,-31,-20,-86
-54,-4,86,30,-86,31,37,9,-50,-32,-22,-87
-58,-9,85,34,-89,27,38,12,-46,-30,-20,-86
-57,-5,89,32,-90,31,37,10,-49,-31,-22,-88
-65,-11,93,39,-99,28,36,10,-50,-32,-23,-91
-58,-11,80,35,-87,23,37,9,-50,-32,-23,-93
-50,-4,79,28,-80,28,35,8,-49,-32,-23,-91
-55,3,101,26,-94,42,38,11,-43,-28,-19,-88
-59,1,104,30,-99,42,38,12,-43,-28,-20,-85
-52,1,92,26,-88,37,38,12,-40,-26,-18,-84
-55,-4,89,30,-89,32,37,10,-44,-26,-19,-88
-53,-1,90,27,-87,35,39,16,-34,-24,-17,-87
-47,-1,79,25,-77,30,37,13,-39,-27,-20,-87
-56,-5,89,31,-90,32,36,14,-40,-26,-19,-86
-58,-6,90,33,-92,31,39,16,-32,-25,-17,-81
-56,-4,91,30,-90,33,38,13,-37,-28,-19,-82
-55,-4,90,30,-89,33,38,13,-38,-26,-19,-83
-50,-2,85,27,-83,32,36,13,-37,-26,-18,-83
-54,0,94,27,-90,37,35,12,-41,-26,-20,-83
-52,2,94,26,-89,39,35,14,-34,-24,-18,-82
-52,0,90,26,-86,36,36,14,-35,-24,-19,-82
-51,-6,78,29,-80,26,35,14,-33,-24,-19,-83
-55,-10,78,33,-84,24,34,14,-36,-25,-19,-85
-53,-5,85,30,-85,30,35,16,-31,-22,-19,-83
-64,-7,98,36,-100,33,37,15,-30,-24,-19,-84
-59,-5,93,33,-94,33,36,14,-30,-25,-19,-84
-58,-7,88,33,-90,29,35,16,-26,-23,-17,-85
-60,-13,81,37,-89,23,34,14,-31,-23,-17,-86
-49,-1,85,26,-82,33,35,17,-25,-19,-12,-84
-48,4,90,23,-83,38,35,18,-20,-16,-12,-84
-50,0,88,26,-84,35,34,16,-25,-20,-14,-87
-47,4,89,22,-82,38,37,21,-16,-16,-9,-84
-56,-1,96,29,-93,38,36,21,-13,-15,-9,-84
-44,7,90,19,-80,41,37,22,-9,-12,-8,-82
-38,6,77,16,-68,35,36,20,-14,-16,-10,-84
-43,9,91,17,-79,42,37,22,-8,-14,-5,-79
-45,8,93,18,-82,43,35,21,-13,-14,-5,-79
-50,3,92,24,-86,38,35,21,-13,-13,-4,-78
-46,3,85,22,-79,35,33,22,-8,-12,-3,-78
-39,10,86,14,-74,42,36,23,-5,-10,-1,-77
-34,18,91,8,-72,49,35,26,3,-9,1,-76
-38,13,91,13,-75,45,34,26,4,-8,3,-74
-32,13,78,10,-64,40,35,27,5,-8,3,-74
-39,11,88,14,-75,42,35,28,8,-8,4,-75
-38,12,88,13,-74,43,34,29,12,-4,7,-72
-30,12,73,9,-59,37,35,30,13,-4,6,-72
-37,11,85,13,-71,42,34,29,12,-4,6,-73
-43,8,89,18,-79,41,36,33,18,-1,9,-68
-38,11,86,14,-73,42,34,34,19,1,9,-70
-40,5,79,18,-71,35,32,35,21,2,13,-68
-36,12,83,12,-69,41,34,35,24,2,13,-70
-43,8,89,17,-78,41,34,39,31,4,15,-69
-33,14,83,10,-67,42,34,39,33,5,16,-69
-30,19,86,5,-65,47,31,37,28,4,15,-69
-33,13,80,10,-65,41,32,43,42,10,18,-67
-29,18,83,5,-64,45,33,44,46,12,21,-65
-24,23,83,0,-59,49,34,47,48,14,23,-65
-31,15,81,8,-65,43,32,47,49,15,23,-65
-29,17,81,6,-63,44,31,48,50,16,25,-66
-30,14,78,8,-62,41,29,47,47,15,24,-65
-25,20,81,2,-60,47,31,51,56,20,30,-60
-25,13,68,6,-54,37,29,54,56,19,29,-60
-18,19,65,-1,-46,39,30,55,58,20,31,-60
-7,24,55,-9,-32,39,28,57,63,24,35,-56
-16,23,68,-3,-46,43,28,61,70,28,38,-54
-9,29,68,-10,-41,47,29,62,73,33,40,-50
-6,30,65,-13,-36,47,29,63,74,35,42,-50
-6,29,64,-12,-36,46,29,63,76,35,43,-50
-2,35,67,-17,-34,51,27,62,77,37,46,-49
-6,30,65,-13,-36,47,25,62,77,37,46,-48
-2,38,72,-18,-36,55,25,65,80,43,53,-44
3,35,59,-19,-26,48,25,66,80,41,55,-43
-2,32,62,-15,-31,47,24,66,79,44,56,-44
-4,29,59,-13,-31,44,23,65,80,44,54,-43
8,39,57,-24,-21,51,24,66,80,46,60,-38
10,40,55,-26,-18,51,25,67,83,47,63,-38
13,43,55,-29,-16,53,23,66,77,48,61,-38
14,48,64,-32,-19,60,23,63,74,48,62,-37
19,52,62,-36,-14,62,22,63,74,47,62,-36
15,52,68,-34,-20,64,21,64,75,49,64,-35
14,51,68,-33,-21,64,20,61,73,50,64,-34
19,52,62,-36,-14,62,17,58,64,47,60,-40
11,52,75,-32,-26,67,19,58,65,48,62,-41
18,48,57,-34,-12,57,18,57,61,47,61,-40
14,51,68,-33,-21,64,17,57,60,47,61,-36
30,65,67,-48,-7,74,19,58,67,53,68,-28
17,54,68,-36,-19,66,18,56,61,51,68,-28
6,44,68,-26,-27,59,17,54,63,51,69,-26
11,46,64,-29,-21,58,17,50,56,49,66,-28
17,46,55,-32,-12,56,17,49,50,48,66,-28
18,47,55,-33,-12,56,17,49,51,49,66,-28
11,50,72,-32,-25,64,17,48,53,47,65,-27
16,54,70,-36,-21,66,18,45,49,47,62,-28
16,58,77,-38,-23,72,19,46,51,47,64,-27
8,54,85,-32,-34,73,20,42,44,43,60,-29
8,54,83,-32,-33,72,23,42,46,43,58,-30
-1,51,94,-26,-46,74,21,38,42,41,55,-33
-1,49,91,-25,-44,71,23,35,36,36,52,-34
-2,46,88,-23,-44,68,25,35,37,37,48,-36
1,48,86,-25,-41,69,25,33,35,35,48,-37
-4,46,90,-22,-46,68,24,30,33,32,43,-39
-11,41,94,-15,-54,67,24,28,28,29,39,-41
-16,34,90,-9,-56,60,25,27,27,27,35,-43
-14,34,86,-11,-52,58,24,21,17,22,30,-46
-16,33,89,-9,-56,59,25,18,10,17,27,-47
-22,33,99,-6,-65,63,27,17,12,19,28,-47
-20,33,94,-7,-62,61,26,14,5,14,24,-51
-27,33,107,-3,-74,66,28,11,3,11,21,-50
-29,32,109,-2,-76,66,28,11,4,10,19,-53
-37,25,111,6,-84,62,28,9,-2,9,18,-55
-37,21,103,8,-80,56,26,7,-3,7,16,-55
-38,23,109,7,-84,60,29,6,0,8,15,-56
-34,20,96,7,-74,52,28,4,-11,2,9,-59
-38,16,96,11,-77,49,28,3,-11,1,7,-61
-46,16,109,15,-90,55,28,2,-11,-0,6,-60
-43,17,105,13,-86,54,28,-1,-18,-4,2,-61
-44,17,107,14,-87,54,27,-2,-19,-7,2,-59
-47,16,112,16,-93,56,31,-1,-18,-6,2,-62
-48,15,112,17,-94,55,29,-4,-23,-9,1,-63
-54,6,105,24,-95,46,27,-7,-25,-8,-0,-65
-66,-3,111,35,-108,42,26,-7,-27,-8,-0,-65
-64,-4,104,35,-103,38,25,-8,-32,-11,-3,-69
-55,7,109,24,-98,48,25,-7,-30,-12,-3,-66
-47,15,109,16,-91,54,26,-4,-23,-8,1,-61
-50,10,105,21,-92,48,26,-6,-26,-10,-0,-61
-52,6,101,23,-91,44,27,-5,-21,-8,1,-60
-52,4,98,24,-90,42,28,-7,-23,-8,0,-62
-52,10,109,21,-95,50,28,-3,-13,-6,4,-59
-44,9,92,18,-80,43,28,-7,-20,-9,0,-63
-42,18,105,12,-85,55,27,-8,-21,-10,0,-65
-45,19,112,13,-91,58,28,-5,-16,-5,5,-61
-43,14,101,14,-84,50,27,-5,-16,-5,6,-59
-52,11,111,20,-96,52,27,-4,-17,-5,4,-62
-54,11,114,22,-100,53,24,-6,-18,-6,2,-62
-52,9,107,22,-95,49,25,-3,-10,-5,4,-60
-55,4,104,26,-96,44,25,-4,-14,-7,3,-60
-55,8,111,24,-99,49,26,-3,-7,-6,3,-60
-52,19,124,17,-102,62,26,-3,-7,-6,5,-60
-50,15,114,17,-96,56,26,-4,-6,-6,7,-59
-47,13,105,17,-89,51,27,-2,-3,-4,12,-57
-45,13,101,16,-85,49,27,-3,-9,-6,10,-62
-44,19,111,13,-90,57,28,-1,-3,-4,11,-59
-45,11,99,17,-85,47,25,-4,-3,-4,10,-58
-48,15,111,17,-93,55,26,-1,-0,-5,9,-57
-41,19,105,11,-85,55,28,1,5,-0,11,-53
-50,15,114,17,-96,56,27,-1,4,-2,9,-54
-48,20,120,14,-97,62,26,1,6,-1,10,-55
-46,23,122,11,-96,65,26,-1,8,-1,12,-55
-49,21,125,14,-101,65,26,-2,6,-2,9,-53
-50,11,107,19,-93,50,26,-1,4,-2,9,-57
-52,13,114,19,-97,55,26,-1,4,-2,9,-59
-50,9,104,21,-92,47,23,1,7,0,13,-55
-47,11,102,18,-88,48,23,-0,6,-1,10,-55
-47,20,118,14,-96,61,26,2,12,1,13,-53
-47,26,128,10,-100,69,25,3,14,4,12,-52
-52,20,127,16,-104,64,23,2,12,1,11,-53
-54,10,112,23,-99,51,23,1,10,1,10,-52
-60,6,115,27,-105,50,26,1,10,2,10,-52
-56,6,109,25,-99,47,26,1,12,1,9,-53
-46,20,117,13,-94,61,27,2,14,2,11,-53
-43,25,120,9,-94,65,26,2,13,2,11,-52
-45,17,109,14,-89,55,27,2,12,1,13,-52
-42,22,114,10,-90,61,26,2,17,1,13,-52
-39,22,109,8,-85,59,27,6,20,4,14,-52
-44,16,105,14,-87,53,25,5,17,3,12,-52
-53,9,109,22,-96,49,23,3,14,2,10,-53
-50,13,111,18,-94,53,22,1,11,-0,7,-53
-50,19,120,15,-99,61,24,3,14,1,9,-52
-49,21,125,14,-101,65,25,3,15,0,7,-52
-47,21,122,13,-98,63,24,2,13,-2,7,-53
-49,18,117,15,-97,59,23,0,12,-0,7,-53
-52,16,120,18,-101,59,23,2,14,1,8,-54
-45,16,107,14,-89,54,20,1,7,-2,5,-53
-50,14,114,18,-97,55,23,1,8,-1,8,-51
-56,16,127,20,-107,62,25,4,13,1,9,-48
-57,11,120,23,-105,56,21,1,6,-1,9,-51
-49,20,120,14,-98,62,22,0,6,-2,7,-52
-52,19,124,17,-102,62,22,1,6,-2,9,-50
-45,27,127,9,-98,70,23,1,11,1,10,-48
-38,27,115,5,-87,65,22,-2,3,-2,9,-50
-47,18,115,15,-95,58,22,0,6,-2,11,-51
-47,19,115,14,-94,59,21,-0,0,-4,10,-50
-50,15,115,18,-97,56,19,-2,-5,-8,6,-53
-60,13,128,23,-111,60,19,-1,-2,-6,5,-53
-52,22,130,15,-105,67,20,-0,-0,-5,8,-52
-42,24,117,9,-91,63,20,0,0,-5,9,-49
-50,15,114,17,-96,56,20,-0,0,-6,6,-50
-53,18,125,18,-104,62,19,-2,-2,-8,5,-52
-49,14,112,18,-95,55,18,-6,-5,-8,4,-52
-50,11,109,20,-94,51,18,-5,-11,-10,4,-52
-50,11,107,19,-93,50,19,-5,-9,-8,4,-53
-53,11,114,21,-99,53,20,-2,-7,-8,5,-50
-43,19,109,12,-88,56,22,-1,-6,-7,7,-47
-47,18,115,15,-95,58,22,-2,-7,-9,4,-49
-44,23,118,10,-93,63,20,-4,-12,-9,5,-48
-41,24,115,8,-89,63,17,-6,-16,-12,2,-49
-50,16,117,17,-98,58,18,-6,-16,-11,2,-51
-57,4,105,27,-98,44,17,-7,-19,-14,0,-52
-60,5,114,27,-104,49,16,-8,-23,-16,-2,-52
-53,10,111,22,-97,50,18,-8,-20,-14,-2,-51
-56,8,112,24,-100,50,17,-10,-24,-15,-2,-52
-47,18,115,15,-95,58,20,-7,-17,-12,0,-48
-44,17,107,14,-88,55,19,-7,-21,-14,-2,-52
-50,17,118,17,-99,59,17,-9,-24,-15,-3,-52
-55,13,118,21,-102,56,19,-8,-21,-14,-5,-53
-49,13,107,18,-92,51,16,-11,-24,-15,-7,-54
-55,6,107,25,-97,47,15,-12,-26,-18,-8,-57
-52,8,104,22,-93,47,15,-11,-27,-18,-9,-54
-65,1,114,32,-108,45,15,-12,-27,-20,-7,-51
-62,2,111,30,-104,45,14,-13,-30,-20,-8,-50
-55,5,105,25,-96,45,15,-14,-35,-22,-11,-53
-56,6,109,25,-99,47,14,-11,-28,-21,-7,-51
-56,6,109,25,-99,47,16,-10,-28,-20,-7,-53
-55,6,107,25,-97,47,16,-11,-27,-19,-3,-48
-52,8,105,23,-94,47,14,-14,-33,-23,-7,-53
-54,13,117,21,-101,55,15,-14,-30,-21,-6,-53
-56,15,125,21,-107,60,15,-13,-30,-19,-5,-50
-52,16,120,18,-101,59,14,-13,-35,-20,-5,-48
-56,11,118,23,-103,55,15,-13,-30,-20,-5,-50
-62,8,122,27,-110,54,14,-14,-34,-20,-7,-50
-51,4,96,24,-89,40,15,-12,-27,-17,-3,-47
-50,13,111,18,-94,53,17,-9,-24,-16,-3,-47
-46,17,111,15,-91,56,16,-9,-21,-16,-0,-42
-55,5,105,25,-96,45,14,-11,-30,-19,-3,-44
-59,5,112,27,-102,48,11,-12,-27,-19,-4,-44
-55,5,105,25,-96,45,13,-12,-26,-19,-3,-44
-54,5,104,25,-95,45,12,-13,-30,-20,-5,-46
-52,6,102,23,-92,45,13,-13,-30,-19,-5,-45
-49,11,104,19,-90,49,15,-12,-26,-17,-5,-46
-47,16,112,16,-93,56,14,-10,-24,-16,-3,-44
-58,5,111,27,-101,47,11,-14,-30,-19,-7,-49
-53,11,112,21,-98,52,12,-13,-27,-19,-5,-47
-46,13,104,17,-88,50,11,-12,-28,-20,-7,-48
-51,9,105,21,-93,48,11,-14,-32,-21,-10,-52
-60,4,111,29,-103,46,11,-13,-30,-21,-10,-52
-54,8,109,23,-97,48,11,-14,-34,-22,-10,-50
-57,5,109,26,-99,47,9,-16,-37,-23,-14,-52
-62,8,122,27,-110,54,11,-14,-33,-20,-9,-49
-68,-1,117,35,-113,46,9,-17,-35,-22,-10,-50
-51,13,112,20,-96,53,7,-17,-34,-20,-10,-48
-55,6,107,25,-97,47,9,-15,-30,-17,-7,-46
-54,3,99,26,-92,41,10,-13,-27,-16,-5,-45
-60,0,104,30,-100,41,12,-13,-27,-18,-6,-47
-60,-2,101,31,-99,39,11,-12,-26,-16,-4,-44
-59,0,102,30,-98,40,11,-12,-26,-17,-5,-42
-57,1,101,29,-96,40,10,-14,-30,-19,-8,-44
-60,2,107,29,-101,44,11,-13,-26,-18,-7,-44
-59,1,104,30,-99,42,10,-13,-26,-19,-7,-42
-58,4,109,27,-100,46,10,-15,-28,-20,-8,-42
-61,8,120,27,-108,53,9,-15,-32,-21,-9,-42
-48,13,107,17,-91,52,8,-16,-33,-22,-9,-42
-52,15,117,18,-99,57,9,-13,-28,-20,-7,-40
-50,15,115,18,-97,56,10,-13,-27,-19,-7,-40
-52,6,101,23,-91,44,9,-14,-26,-20,-6,-41
-58,8,115,25,-103,51,9,-14,-26,-20,-8,-42
-58,9,117,25,-104,53,11,-13,-26,-20,-6,-41
-63,-1,109,32,-105,42,8,-17,-30,-22,-9,-42
-66,-7,102,37,-104,35,6,-18,-37,-26,-12,-46
-62,3,112,30,-105,46,10,-16,-30,-22,-10,-44
-62,4,115,29,-107,48,9,-16,-30,-21,-8,-42
-59,3,107,29,-100,44,9,-16,-30,-22,-10,-42
-56,5,107,26,-98,46,8,-17,-34,-23,-9,-41
-57,10,117,24,-103,53,9,-14,-30,-21,-7,-41
-55,7,109,24,-98,48,9,-15,-32,-20,-9,-42
-55,6,107,25,-97,47,9,-17,-30,-20,-9,-44
-58,2,104,29,-98,42,8,-16,-30,-21,-12,-42
-58,2,104,29,-98,42,6,-18,-28,-22,-10,-41
-58,6,112,26,-102,48,7,-18,-33,-25,-12,-41
-64,1,112,32,-107,45,6,-18,-30,-23,-10,-40
-66,-4,109,35,-107,40,8,-17,-30,-22,-12,-41
-69,1,122,35,-116,48,7,-18,-30,-22,-10,-41
-65,1,115,33,-110,46,7,-17,-26,-19,-8,-38
