I,II,III,aVR,aVL,aVF,V1,V2,V3,V4,V5,V6
-1,-16,-26,11,30,-20,6,-19,7,-1,-5,4
-6,-16,-23,14,20,-19,6,-19,8,1,-2,8
-13,-14,-12,15,-2,-14,6,-19,7,-0,-2,5
-2,-10,-16,9,15,-13,6,-20,5,-1,-4,5
-4,-16,-23,13,22,-18,5,-21,4,-0,-4,7
-6,-10,-12,10,7,-11,5,-22,5,-1,-2,5
-4,-8,-11,7,8,-9,5,-22,6,0,-2,5
0,-12,-21,9,25,-16,6,-22,6,-0,-2,6
-2,-10,-16,9,15,-13,6,-20,7,-2,-4,4
-11,-14,-14,14,3,-15,7,-21,7,-1,-4,4
5,-10,-21,5,30,-14,6,-21,5,-3,-6,1
1,-10,-18,6,22,-13,6,-21,6,-1,-4,4
1,-14,-25,9,30,-18,6,-20,5,-1,-5,2
-6,-16,-21,13,18,-18,7,-21,3,-1,-4,4
9,-10,-25,4,38,-15,8,-21,4,-1,-4,4
-13,-12,-7,13,-7,-10,9,-21,5,-1,-3,4
0,-12,-21,9,25,-16,6,-22,3,-2,-4,4
-2,-12,-18,9,18,-14,9,-21,5,-2,-5,2
-4,-12,-18,10,17,-15,9,-22,5,-1,-4,4
-2,-12,-18,9,18,-14,8,-21,5,-2,-6,2
0,-10,-18,7,20,-13,9,-22,5,-2,-5,4
-6,-12,-16,11,12,-14,8,-21,5,-2,-7,2
-2,-10,-16,9,15,-13,10,-22,3,-1,-7,2
-2,-6,-7,5,5,-6,9,-22,1,-2,-8,1
1,-8,-16,6,20,-11,8,-23,2,-1,-5,4
-7,-16,-21,14,17,-18,12,-20,5,-0,-4,5
-1,-12,-19,9,22,-15,11,-22,5,-0,-5,4
1,-6,-12,4,15,-8,11,-22,4,0,-4,4
-6,-12,-14,11,10,-13,11,-22,3,-0,-6,4
-7,-18,-25,15,20,-21,11,-22,4,-0,-4,4
-4,-18,-29,14,28,-23,11,-22,3,-0,-6,4
-4,-12,-18,10,17,-15,11,-22,4,1,-5,6
-13,-22,-26,20,15,-24,13,-21,5,1,-5,7
-2,-16,-25,12,27,-19,11,-22,4,-0,-6,5
0,-18,-32,13,37,-24,13,-21,4,1,-5,8
-2,-20,-32,14,35,-25,14,-20,4,0,-4,9
-10,-18,-23,17,15,-21,13,-21,4,-1,-5,7
5,-12,-26,7,37,-17,13,-22,3,-1,-6,5
-10,-16,-18,14,10,-17,14,-22,3,-1,-6,4
-6,-10,-12,10,7,-11,14,-22,3,-2,-5,4
-4,-4,-4,5,0,-4,13,-23,2,-2,-6,4
-12,-12,-9,13,-3,-11,12,-24,3,-2,-6,6
-10,-18,-23,17,15,-21,15,-21,5,-1,-6,6
-6,-18,-25,14,22,-21,15,-21,5,0,-6,5
-6,-10,-12,10,7,-11,14,-21,2,-2,-8,4
-11,-14,-14,14,3,-15,14,-22,3,-1,-7,4
-6,-8,-7,8,2,-7,14,-22,2,-2,-9,2
3,-6,-12,3,17,-8,13,-23,1,-1,-8,1
-10,-2,7,5,-20,2,13,-24,0,-4,-10,-1
-12,-12,-9,13,-3,-11,15,-23,3,-0,-6,4
-8,-24,-34,19,30,-28,17,-21,5,-1,-7,4
-13,-10,-5,12,-10,-8,15,-23,3,-2,-7,2
-12,-16,-16,15,5,-16,14,-23,2,-2,-9,2
-4,-12,-18,10,17,-15,15,-23,2,-1,-8,2
0,-12,-21,9,25,-16,14,-23,1,-2,-8,4
-15,-22,-24,20,10,-23,15,-21,4,-0,-7,5
-7,-17,-23,14,18,-19,18,-20,5,1,-6,5
-4,-12,-16,10,13,-13,16,-21,4,2,-5,8
-10,-14,-14,13,5,-14,19,-20,6,3,-4,7
-10,-6,-1,9,-10,-5,19,-20,6,3,-4,8
0,2,4,0,-3,3,17,-22,6,2,-5,4
-6,2,11,1,-18,6,19,-22,6,2,-4,5
-8,3,14,2,-25,7,19,-21,5,2,-6,4
-6,4,14,0,-23,8,18,-22,6,3,-6,5
-8,3,14,2,-25,7,18,-21,6,4,-6,5
-4,2,9,1,-15,5,19,-20,7,3,-5,8
-6,4,14,0,-23,8,20,-21,6,4,-3,9
4,4,4,-3,0,4,19,-20,7,5,-2,10
1,6,11,-4,-10,8,20,-20,7,4,-4,7
13,12,11,-12,2,13,19,-21,6,3,-4,7
9,12,14,-11,-7,14,20,-20,9,7,-0,11
4,10,14,-7,-12,12,22,-20,11,9,-0,12
-1,4,9,-1,-12,6,26,-17,12,9,0,11
-1,6,13,-3,-15,9,26,-16,11,8,-0,10
-5,12,26,-5,-37,17,27,-17,11,8,-0,10
-4,20,41,-11,-53,29,27,-15,12,10,0,11
0,28,50,-18,-58,37,25,-15,14,11,2,12
11,34,52,-26,-47,42,23,-15,14,12,3,14
18,38,52,-31,-40,45,20,-15,15,14,4,18
14,38,56,-30,-48,46,15,-19,14,11,2,14
30,40,43,-36,-17,42,11,-21,13,11,3,16
24,36,43,-32,-23,40,12,-22,12,12,4,18
26,36,39,-32,-17,38,10,-22,11,12,3,15
27,46,56,-39,-33,51,10,-24,10,12,6,20
33,45,50,-41,-22,48,10,-23,11,15,8,22
26,50,64,-42,-45,57,11,-22,12,17,11,25
36,47,50,-44,-17,50,9,-22,12,16,10,25
42,37,26,-39,17,35,11,-18,13,18,11,30
46,36,21,-40,27,32,10,-18,14,17,10,28
57,39,16,-46,47,32,8,-19,13,17,10,28
57,40,18,-46,43,34,6,-22,11,14,7,23
51,40,24,-44,30,36,7,-21,11,15,10,23
48,40,25,-43,25,36,10,-19,13,16,10,23
46,42,32,-44,15,40,9,-20,11,15,10,24
37,38,34,-38,3,38,10,-22,10,15,9,26
27,32,32,-30,-7,34,12,-23,9,13,6,23
25,31,32,-29,-8,33,11,-24,7,11,4,20
20,30,36,-27,-18,34,11,-25,5,10,2,17
1,22,39,-14,-43,29,14,-23,6,9,-1,15
2,10,16,-6,-15,13,16,-22,5,8,-2,9
2,-0,-2,0,5,-1,16,-24,3,5,-5,7
-4,-4,-4,5,0,-4,18,-23,5,7,-5,7
-13,-4,6,9,-22,-1,17,-24,2,4,-7,3
-17,0,18,6,-40,7,15,-28,-1,1,-11,-1
-16,7,29,2,-50,15,13,-30,-4,-0,-13,-2
-26,-12,4,18,-33,-7,15,-29,-3,2,-11,2
-18,-30,-34,27,18,-32,21,-24,0,3,-9,3
-16,-18,-16,18,0,-17,19,-26,-2,1,-11,-1
-21,-21,-16,22,-5,-19,19,-26,-3,0,-13,-1
-13,-28,-36,24,27,-31,20,-26,-3,0,-12,-1
-8,-24,-34,19,30,-28,21,-26,-1,-0,-13,-5
-13,-22,-25,20,13,-23,19,-27,-3,-2,-15,-5
-10,-24,-32,20,27,-27,19,-26,-4,-3,-15,-5
-16,-25,-29,23,15,-27,20,-25,-4,-2,-15,-5
-19,-29,-32,27,15,-30,20,-25,-4,-2,-13,-5
-24,-24,-18,25,-7,-22,21,-25,-4,-3,-15,-5
-30,-26,-16,29,-17,-23,23,-24,-4,-2,-14,-6
-17,-22,-21,21,5,-22,23,-24,-3,-1,-14,-5
-23,-27,-25,27,3,-27,24,-23,-3,-1,-14,-6
-27,-32,-30,31,5,-32,23,-24,-4,-2,-15,-7
-24,-28,-25,28,2,-27,23,-25,-5,-3,-16,-10
-27,-29,-25,29,-2,-28,21,-26,-5,-3,-15,-10
-23,-27,-25,27,3,-27,22,-25,-6,-2,-16,-9
-21,-34,-39,30,22,-36,23,-25,-5,-1,-15,-8
-22,-32,-36,30,17,-34,25,-24,-5,-1,-15,-10
-33,-25,-12,29,-23,-21,23,-25,-5,-2,-16,-10
-31,-20,-6,26,-28,-15,23,-26,-7,-4,-17,-11
-22,-16,-7,20,-17,-13,24,-26,-8,-4,-18,-12
-27,-34,-34,32,8,-34,28,-22,-3,-0,-14,-6
-30,-36,-35,36,7,-37,27,-21,-4,-1,-16,-10
-15,-24,-29,22,17,-26,25,-23,-5,-2,-17,-10
-22,-28,-27,27,7,-28,25,-25,-5,-1,-16,-10
-30,-29,-23,31,-7,-27,25,-23,-5,-1,-17,-12
-13,-28,-37,24,28,-32,24,-25,-6,-2,-17,-12
-15,-30,-38,26,27,-33,26,-25,-7,-3,-17,-12
-24,-30,-29,29,5,-30,26,-24,-5,-2,-17,-10
-30,-29,-23,31,-7,-27,27,-23,-6,-1,-18,-10
-27,-31,-29,31,2,-31,30,-21,-4,-2,-16,-10
-32,-37,-35,37,5,-37,34,-15,-0,-1,-18,-12
-43,-48,-43,48,2,-47,42,-6,5,-2,-21,-20
-36,-48,-50,45,18,-49,45,2,9,-2,-27,-24
-47,-44,-34,47,-13,-42,51,5,15,-1,-29,-31
-52,-41,-23,47,-32,-35,55,11,22,3,-30,-35
-35,-36,-31,37,-3,-35,58,23,35,12,-25,-36
-21,-38,-46,33,30,-42,61,34,51,26,-16,-28
-14,-26,-31,23,20,-28,67,54,79,47,-2,-18
7,-10,-24,4,35,-15,75,73,110,73,17,-6
18,8,-4,-11,25,4,82,87,139,99,36,8
41,46,43,-44,-3,46,85,103,177,136,73,43
75,95,99,-89,-30,99,84,112,211,180,118,83
112,143,148,-135,-45,149,85,108,230,219,164,132
166,188,177,-184,-20,189,77,88,234,256,217,190
231,240,207,-242,18,234,55,58,230,300,279,257
287,273,212,-284,77,258,26,13,209,327,324,309
351,314,224,-334,135,289,1,-25,191,356,366,359
377,336,237,-359,148,309,-29,-61,179,380,403,403
386,357,266,-376,125,333,-69,-115,142,374,408,417
396,379,297,-394,100,359,-114,-171,85,342,396,422
376,385,327,-391,43,374,-147,-211,29,302,376,418
334,356,315,-357,10,350,-169,-231,-19,249,340,397
307,349,329,-342,-37,351,-205,-273,-87,176,292,372
266,294,270,-291,-15,293,-224,-293,-153,93,230,326
196,246,252,-234,-72,255,-230,-297,-201,27,171,275
131,196,225,-177,-115,212,-224,-305,-249,-42,111,225
79,158,207,-133,-152,181,-206,-288,-256,-78,65,180
72,122,150,-106,-93,136,-193,-259,-236,-85,41,148
70,79,75,-77,-8,80,-172,-227,-216,-90,17,114
53,58,54,-57,-2,58,-146,-199,-200,-94,-5,80
31,41,44,-38,-17,44,-120,-175,-179,-92,-20,56
4,20,32,-13,-33,25,-93,-150,-153,-85,-30,35
-11,22,50,-10,-70,33,-73,-133,-134,-79,-36,18
-32,20,68,-1,-115,38,-60,-121,-118,-73,-43,4
-43,10,61,9,-118,29,-46,-107,-103,-67,-47,-6
-37,-2,34,15,-82,12,-34,-94,-89,-60,-48,-14
-41,-12,19,23,-68,-1,-19,-79,-73,-50,-43,-13
-55,-14,29,30,-97,1,-8,-69,-61,-44,-40,-15
-49,-25,4,35,-60,-15,2,-59,-51,-37,-37,-14
-47,-27,-1,36,-52,-18,8,-51,-45,-31,-35,-16
-41,-33,-19,37,-23,-29,15,-44,-38,-27,-32,-15
-49,-36,-16,42,-37,-29,22,-37,-31,-23,-29,-15
-28,-31,-28,31,0,-30,24,-34,-30,-22,-29,-18
-33,-37,-34,37,2,-37,27,-30,-25,-19,-28,-13
-32,-40,-41,39,12,-42,29,-28,-22,-17,-29,-14
-41,-46,-41,46,0,-45,31,-26,-20,-18,-30,-17
-33,-43,-44,42,13,-45,29,-28,-22,-19,-34,-22
-41,-44,-37,45,-3,-42,31,-25,-19,-17,-33,-24
-38,-42,-37,42,0,-41,31,-26,-20,-17,-35,-25
-36,-54,-61,49,30,-57,33,-23,-17,-15,-30,-22
-37,-52,-57,49,25,-55,36,-21,-17,-13,-29,-23
-39,-52,-55,50,20,-55,36,-21,-16,-13,-29,-21
-34,-46,-48,43,17,-47,36,-20,-17,-13,-30,-24
-33,-51,-59,47,30,-55,37,-20,-16,-13,-27,-20
-39,-54,-59,51,23,-57,36,-19,-16,-13,-31,-20
-32,-46,-52,43,23,-49,36,-20,-16,-14,-32,-24
-33,-47,-52,44,22,-50,36,-21,-16,-14,-33,-24
-45,-50,-46,51,2,-50,37,-19,-14,-13,-32,-25
-40,-52,-53,50,17,-53,36,-19,-14,-13,-33,-24
-38,-50,-53,48,18,-53,37,-19,-15,-13,-32,-26
-41,-56,-60,53,23,-59,37,-18,-14,-12,-31,-23
-47,-56,-55,55,12,-57,39,-18,-14,-12,-31,-23
-42,-49,-46,48,7,-49,37,-17,-14,-14,-32,-27
-40,-46,-42,45,3,-45,36,-18,-15,-14,-32,-27
-37,-46,-46,45,12,-47,37,-17,-14,-13,-31,-26
-30,-55,-69,48,47,-62,39,-15,-12,-11,-29,-21
-36,-48,-52,46,20,-50,40,-15,-11,-12,-30,-25
-36,-53,-60,49,30,-57,40,-15,-11,-10,-31,-24
-34,-54,-64,49,35,-59,40,-15,-11,-11,-30,-23
-41,-60,-66,55,30,-63,41,-15,-11,-11,-31,-24
-41,-56,-60,53,23,-59,38,-15,-14,-15,-33,-27
-43,-50,-48,50,7,-50,37,-14,-14,-15,-33,-26
-36,-46,-46,44,12,-47,37,-16,-16,-16,-33,-26
-34,-58,-71,52,43,-64,40,-13,-14,-13,-29,-23
-34,-62,-77,54,50,-68,41,-12,-12,-12,-30,-24
-28,-52,-66,46,45,-58,41,-12,-12,-12,-31,-25
-24,-52,-69,44,53,-60,42,-13,-13,-11,-31,-24
-47,-58,-59,56,15,-60,43,-12,-10,-10,-31,-23
-41,-50,-49,49,10,-51,41,-14,-13,-12,-35,-27
-38,-51,-54,48,18,-53,41,-15,-14,-12,-35,-26
-44,-50,-46,50,3,-49,41,-14,-14,-13,-33,-26
-41,-48,-46,47,8,-49,41,-14,-14,-12,-32,-24
-39,-52,-55,50,20,-55,43,-13,-13,-12,-31,-24
-43,-62,-69,58,32,-66,43,-11,-11,-10,-27,-18
-38,-63,-75,56,43,-69,45,-11,-13,-10,-28,-20
-37,-56,-64,52,33,-60,44,-13,-14,-11,-30,-23
-40,-56,-60,52,25,-58,43,-13,-13,-10,-30,-21
-41,-59,-66,55,30,-63,43,-13,-13,-11,-30,-24
-44,-59,-62,56,22,-62,42,-13,-14,-9,-31,-24
-41,-60,-68,55,33,-65,42,-12,-13,-10,-30,-26
-45,-56,-57,54,15,-58,42,-12,-15,-11,-33,-27
-48,-60,-61,58,17,-62,42,-12,-14,-9,-32,-26
-38,-56,-62,51,30,-59,43,-11,-13,-9,-32,-26
-43,-60,-66,56,28,-64,44,-10,-13,-9,-30,-26
-47,-54,-52,54,7,-55,43,-11,-14,-11,-30,-27
-36,-50,-54,46,22,-52,41,-11,-15,-11,-30,-27
-37,-53,-59,50,27,-56,43,-10,-14,-10,-30,-28
-41,-47,-44,47,5,-47,43,-11,-14,-12,-31,-30
-37,-50,-54,47,20,-53,42,-12,-14,-10,-31,-30
-30,-62,-80,53,58,-70,44,-9,-13,-9,-29,-27
-35,-63,-79,55,52,-70,45,-9,-13,-10,-30,-27
-37,-60,-72,54,42,-66,44,-10,-13,-10,-31,-26
-33,-58,-72,52,45,-65,42,-9,-15,-10,-31,-27
-41,-58,-64,54,27,-62,43,-10,-14,-10,-30,-27
-39,-64,-77,58,45,-70,43,-8,-14,-11,-28,-25
-33,-53,-62,48,35,-58,42,-8,-15,-12,-31,-27
-34,-52,-59,47,30,-55,42,-9,-15,-13,-31,-29
-34,-50,-57,46,27,-54,42,-9,-15,-14,-33,-31
-32,-48,-55,44,28,-52,43,-8,-15,-15,-34,-30
-21,-48,-66,40,53,-56,43,-7,-13,-12,-31,-25
-31,-55,-68,48,43,-61,44,-7,-13,-11,-31,-24
-28,-50,-62,44,40,-56,41,-7,-15,-13,-31,-24
-24,-49,-64,42,48,-56,42,-6,-14,-12,-30,-22
-36,-52,-59,48,28,-56,42,-5,-14,-11,-29,-19
-33,-54,-64,49,37,-59,42,-4,-12,-11,-29,-22
-28,-43,-49,39,25,-46,42,-5,-13,-11,-31,-22
-32,-46,-52,43,23,-49,42,-5,-12,-12,-31,-23
-33,-47,-52,44,22,-50,43,-3,-10,-11,-29,-23
-22,-52,-72,44,58,-60,43,-3,-11,-10,-29,-19
-22,-54,-75,45,62,-63,44,-2,-9,-9,-28,-20
-23,-52,-71,44,57,-60,42,-3,-11,-9,-29,-20
-27,-56,-73,47,55,-63,39,-3,-12,-11,-30,-21
-16,-48,-71,38,65,-58,40,-3,-12,-10,-29,-20
-22,-51,-69,43,55,-59,40,-0,-10,-9,-26,-17
-15,-47,-69,37,63,-56,40,-2,-12,-10,-27,-20
-21,-40,-52,35,37,-45,39,-1,-12,-11,-29,-20
-13,-40,-59,32,53,-48,40,1,-10,-10,-26,-18
-4,-34,-57,25,60,-43,37,-1,-11,-11,-28,-18
-8,-36,-57,28,57,-45,38,0,-9,-9,-26,-15
-2,-34,-59,24,65,-44,38,0,-10,-8,-22,-14
-11,-41,-62,32,60,-50,38,1,-8,-6,-19,-14
-11,-49,-77,37,77,-60,38,2,-8,-4,-13,-10
-6,-43,-71,31,75,-54,38,2,-8,-3,-12,-9
-2,-44,-77,31,87,-57,38,5,-7,-2,-6,-4
4,-40,-75,26,92,-54,37,6,-7,-2,-7,-2
9,-40,-80,24,103,-56,37,5,-7,-1,-8,-1
7,-34,-67,21,85,-47,37,7,-5,0,-5,0
1,-30,-55,20,65,-40,35,6,-6,1,-5,0
9,-30,-61,17,80,-42,35,6,-6,3,-3,3
18,-27,-64,12,95,-41,33,6,-6,4,-3,2
9,-22,-48,12,65,-32,33,4,-5,4,-0,5
7,-22,-44,13,58,-30,30,4,-5,6,4,9
12,-25,-55,13,77,-36,31,6,-5,7,5,11
21,-21,-57,7,90,-34,31,6,-4,9,9,14
14,-22,-52,10,75,-33,31,8,-3,11,12,17
29,-10,-44,-3,83,-22,30,6,-6,10,12,19
40,-9,-54,-7,107,-25,29,8,-3,12,15,21
37,-8,-50,-7,100,-24,29,7,-5,11,16,22
27,-6,-37,-5,73,-17,27,6,-5,13,16,21
33,-4,-37,-9,80,-16,25,5,-5,13,16,21
29,-2,-30,-9,67,-12,24,4,-7,13,16,24
24,4,-14,-11,43,-2,24,4,-6,14,19,27
36,11,-14,-19,57,3,23,3,-8,15,22,28
34,5,-23,-15,65,-5,23,4,-8,16,26,34
33,2,-28,-12,70,-9,26,5,-6,18,27,39
46,16,-16,-26,70,5,24,3,-9,17,27,37
52,22,-11,-32,72,11,21,2,-10,16,27,38
45,19,-9,-28,62,10,21,1,-11,16,27,35
44,20,-5,-28,55,12,19,-1,-12,15,29,37
46,16,-14,-27,68,6,20,-1,-10,19,30,39
40,11,-18,-21,67,1,21,1,-10,21,32,42
33,20,5,-24,32,16,19,0,-10,20,32,43
48,28,5,-35,48,21,17,-2,-11,20,35,45
41,28,11,-32,33,23,19,-1,-12,20,36,48
44,30,13,-35,35,25,16,-3,-13,20,37,49
53,32,7,-40,52,24,16,-4,-12,21,39,51
55,33,7,-41,53,25,17,-3,-13,22,38,51
58,40,16,-46,47,32,16,-4,-12,21,39,51
54,40,19,-45,38,34,15,-5,-13,21,39,50
51,31,7,-38,50,24,15,-4,-11,23,39,51
44,33,18,-37,28,29,18,-4,-10,23,39,48
43,40,30,-41,13,37,16,-4,-10,25,39,50
51,40,24,-44,30,36,15,-4,-10,26,40,49
46,34,18,-38,32,29,19,-3,-8,28,42,52
40,32,20,-35,22,29,21,-2,-8,27,41,49
49,37,20,-42,32,32,23,-1,-8,28,42,50
46,33,16,-38,33,28,23,-1,-7,27,40,49
42,30,14,-35,32,26,23,-1,-7,26,39,46
41,36,25,-37,17,33,24,-1,-7,26,37,42
44,38,27,-40,18,36,25,-0,-7,23,33,40
35,34,29,-35,7,34,27,1,-4,25,34,40
33,30,21,-31,13,28,28,3,-3,26,31,35
34,29,20,-31,15,27,29,3,-1,26,32,35
21,29,32,-26,-13,32,31,4,-2,25,29,32
23,33,38,-29,-18,36,33,4,-2,26,29,32
18,24,26,-22,-10,26,35,5,-2,25,27,27
24,23,19,-23,5,23,37,6,-1,25,28,28
11,14,14,-12,-3,15,38,7,1,24,27,26
20,12,4,-14,18,10,40,8,1,22,25,21
5,4,4,-4,2,5,42,9,4,23,24,20
-4,5,14,-1,-22,9,43,8,3,21,21,16
-4,10,23,-5,-30,15,44,8,2,21,20,12
-2,11,23,-6,-28,16,44,7,1,21,16,11
-7,8,21,-2,-33,13,44,7,1,20,14,9
-16,3,21,4,-42,10,46,9,2,21,16,9
-11,2,14,4,-28,6,48,9,2,19,16,10
-5,10,23,-4,-32,15,47,8,1,17,14,6
-9,12,31,-4,-47,20,47,7,1,15,10,2
-8,10,27,-3,-40,17,47,7,1,14,7,-1
-12,3,18,3,-33,9,48,7,2,16,9,2
-24,-5,16,13,-47,3,50,7,3,15,8,1
-22,-2,18,10,-47,5,51,6,3,16,8,2
-19,1,21,7,-47,9,50,8,4,16,8,2
-18,-6,7,12,-30,-2,50,7,2,15,8,1
-22,-6,12,12,-40,1,51,7,3,16,8,2
-27,-8,12,16,-45,-1,51,8,2,16,9,1
-7,-2,4,5,-13,0,50,7,2,16,8,1
-19,-5,11,11,-35,1,51,8,3,16,9,2
-24,-5,16,13,-47,3,51,6,3,14,8,-1
-18,3,24,5,-47,11,51,6,1,15,7,-1
-28,-2,25,12,-62,8,49,5,2,14,5,-2
-24,-2,21,11,-53,7,51,5,2,13,5,-2
-28,-2,25,12,-62,8,51,5,1,13,4,-2
-30,-1,29,12,-68,10,50,4,0,13,4,-2
-31,-4,23,15,-62,6,49,4,0,13,4,0
-19,-1,18,8,-43,6,50,5,1,14,6,0
-19,-4,13,10,-37,3,48,4,-1,12,4,-4
-28,2,32,9,-68,14,50,4,-1,12,4,-1
-32,-10,14,19,-53,-1,52,5,0,12,7,1
-24,-8,11,14,-40,-1,53,4,0,12,4,-2
-28,1,30,10,-67,12,53,3,0,11,3,-4
-37,-2,32,15,-80,11,51,2,-3,9,3,-5
-20,-4,12,11,-37,2,51,1,-2,9,3,-4
-31,-10,12,19,-50,-2,51,4,-1,11,5,-1
-31,-8,16,18,-53,1,51,3,-2,11,4,-1
-28,-8,14,16,-48,1,50,3,-2,10,4,-2
-30,-10,12,18,-48,-2,51,2,-1,10,4,1
-30,-10,12,18,-48,-2,53,4,-1,9,4,1
-36,-8,21,19,-65,3,53,4,-2,8,4,-1
-30,-6,18,15,-55,3,51,3,-2,9,4,-1
-28,-12,7,19,-40,-5,52,4,-2,9,5,1
-30,-10,11,18,-47,-3,52,5,-1,10,3,-2
-30,-2,25,13,-63,8,51,4,-1,8,2,-4
-24,-6,12,13,-42,1,51,2,-2,9,-0,-4
-28,-10,11,17,-45,-2,53,5,0,11,1,-2
-37,-6,26,18,-73,6,52,4,0,11,-0,-4
-28,1,30,10,-67,12,50,4,-1,10,-1,-4
-31,-0,30,12,-70,11,50,3,-1,9,-0,-4
-32,3,37,10,-78,16,51,4,-1,11,2,-2
-30,-6,18,15,-55,3,52,7,1,13,5,0
-28,-8,14,16,-48,1,53,7,1,12,3,-2
-30,-2,26,12,-65,9,52,6,2,11,3,-4
-21,-2,18,9,-45,6,51,6,2,12,4,-4
-26,-2,21,12,-55,6,51,5,1,12,2,-4
-33,-2,29,14,-72,9,51,8,2,12,4,-5
-21,-4,14,11,-40,3,49,7,1,13,4,-4
-17,-4,11,9,-32,2,51,8,2,13,4,-2
-32,-6,21,16,-62,4,51,9,4,14,6,-1
-30,-6,18,15,-55,3,51,11,4,15,7,1
-22,-2,19,10,-48,6,51,11,4,15,8,1
-28,-2,25,12,-62,8,52,12,6,16,9,2
-28,0,29,11,-65,11,52,12,6,16,10,4
-27,1,29,10,-63,12,51,11,6,18,9,2
-26,4,34,7,-68,15,53,11,7,18,10,2
-23,13,46,0,-80,26,52,12,7,20,12,4
-17,0,18,6,-40,7,51,13,7,20,11,4
-18,6,30,3,-55,15,51,14,7,19,9,2
-26,-0,25,10,-58,9,53,14,7,21,11,2
-26,4,34,7,-68,15,53,16,9,20,12,0
-15,6,26,2,-47,14,53,15,9,20,12,1
-28,1,30,10,-67,12,55,17,10,22,14,4
-30,-2,26,12,-65,9,54,16,9,21,11,0
-17,0,18,6,-40,7,52,15,8,21,12,-1
-22,-4,16,11,-43,4,54,15,10,21,11,0
-22,0,23,9,-52,9,53,15,9,21,12,-1
-21,4,29,5,-57,14,53,15,9,22,14,4
-15,8,30,1,-52,17,52,16,9,21,10,2
-23,7,36,4,-67,18,53,17,8,22,13,2
-16,3,21,4,-42,10,54,18,9,22,14,2
-11,10,30,-2,-47,18,53,18,9,22,12,1
-16,11,36,-1,-58,21,53,17,8,21,12,-1
-21,2,25,6,-52,11,52,18,9,21,14,2
-22,-8,9,14,-35,-2,55,20,11,23,16,2
-19,1,21,7,-47,9,54,18,8,21,11,0
-19,1,21,7,-47,9,53,17,7,21,12,2
-12,3,18,3,-33,9,53,17,8,21,14,4
-19,3,25,5,-50,12,54,17,9,22,12,4
-22,2,26,7,-55,12,53,19,9,22,14,4
-15,-4,9,9,-27,1,55,19,9,22,12,4
-13,4,21,3,-40,11,55,20,8,22,12,2
-10,6,21,0,-35,12,53,18,7,21,10,1
-24,3,30,7,-62,13,55,19,7,20,12,0
-10,9,26,-2,-42,16,52,17,4,18,8,-2
-17,7,30,2,-53,16,53,18,7,20,12,1
-28,-2,25,12,-62,8,56,19,8,22,11,1
-22,6,34,4,-63,17,55,19,7,22,9,-1
-22,4,30,6,-60,14,55,19,7,22,9,-2
-21,8,36,3,-65,19,55,18,5,21,7,-4
-15,8,30,1,-52,17,55,18,5,20,6,-5
-12,3,18,3,-33,9,53,17,3,20,8,-4
-18,6,30,3,-55,15,55,19,5,20,9,-2
-23,11,43,2,-75,23,52,16,3,19,9,-2
-15,8,30,1,-52,17,54,17,3,19,11,0
-22,-6,12,12,-40,1,56,20,5,21,14,5
-33,-8,19,18,-60,2,59,21,6,20,12,1
-22,4,30,6,-60,14,56,18,3,17,9,-2
-21,1,23,7,-50,9,56,18,2,18,8,-4
-22,-0,21,9,-50,8,57,19,4,18,10,-2
-18,-2,16,9,-40,5,56,19,2,17,9,-4
-18,-2,14,9,-38,4,58,19,4,20,10,0
-24,-8,9,15,-37,-2,59,19,4,20,12,-2
-33,-8,18,18,-58,1,59,20,3,17,10,-2
-18,-2,14,9,-38,4,58,19,2,17,10,0
-26,-4,19,12,-52,5,58,18,1,17,10,-2
-33,-8,18,18,-58,1,58,18,1,16,8,-2
-22,0,23,9,-52,9,56,17,-0,14,7,-7
-24,3,30,7,-62,13,56,17,-0,15,7,-5
-37,-4,30,17,-77,9,58,18,0,16,6,-7
-22,-4,14,12,-42,3,57,18,-1,14,5,-7
-18,-2,16,9,-40,5,57,17,-1,14,4,-7
-28,0,29,11,-65,11,55,17,-2,12,3,-7
-36,1,37,13,-83,15,56,16,-3,12,5,-7
-41,-4,34,18,-85,10,56,16,-4,13,6,-4
-36,-8,21,19,-65,3,56,17,-2,14,7,-4
-33,-8,18,18,-58,1,58,18,-1,14,8,-4
-37,-2,32,15,-80,11,58,18,-1,13,7,-6
-21,3,26,6,-53,12,56,16,-3,12,4,-9
-30,-2,25,13,-63,8,57,17,-2,13,5,-6
-30,-2,26,12,-65,9,57,17,-3,12,4,-8
-26,-8,11,15,-42,-2,57,17,-2,14,5,-5
-33,-10,16,19,-57,-1,58,19,-1,14,6,-5
-27,-6,16,15,-50,2,58,18,-1,14,6,-6
-30,-10,12,18,-48,-2,57,18,-2,13,4,-8
-26,-8,12,15,-43,-1,57,17,-4,13,6,-6
-37,-8,21,20,-67,3,58,17,-3,12,4,-11
-30,-2,26,12,-65,9,58,17,-3,12,5,-11
-31,-2,26,13,-67,8,57,17,-4,12,4,-11
-32,1,34,11,-75,13,59,16,-3,13,4,-11
-27,-0,26,11,-62,9,59,16,-2,13,5,-11
-30,-10,11,18,-47,-3,58,17,-5,11,2,-11
-31,-8,16,18,-53,1,59,17,-5,11,4,-8
-37,-8,23,19,-68,4,59,17,-5,12,2,-8
-32,-6,21,16,-62,4,58,17,-5,11,2,-10
-42,-4,34,19,-87,9,59,17,-5,12,4,-9
-41,-6,30,19,-82,7,60,17,-4,13,5,-6
-31,-2,26,13,-67,8,59,17,-5,12,6,-9
-31,-2,26,13,-67,8,61,16,-6,12,4,-11
-36,-4,29,16,-73,8,59,16,-6,11,3,-11
-31,-2,26,13,-67,8,59,15,-6,9,2,-16
-30,-0,29,12,-67,11,61,16,-5,11,3,-11
-35,-6,23,18,-67,4,58,16,-6,10,2,-13
-44,-12,23,24,-77,1,59,17,-7,10,1,-13
-32,-8,18,17,-57,2,59,17,-7,11,2,-10
-41,-10,23,22,-73,2,61,18,-6,11,4,-11
-42,-8,26,21,-78,4,60,17,-7,12,4,-9
-41,-10,21,22,-72,1,61,17,-6,12,4,-10
-33,-6,23,17,-65,5,61,18,-5,13,4,-10
-30,-2,25,13,-63,8,59,16,-6,12,4,-10
-27,-0,26,11,-62,9,58,16,-7,11,2,-14
-28,5,37,7,-75,17,58,15,-9,10,0,-15
-28,3,34,9,-70,15,58,15,-7,11,0,-15
-41,-2,37,17,-90,13,58,17,-8,11,1,-15
-30,-2,26,12,-65,9,58,17,-8,9,-1,-16
-37,-14,12,23,-57,-4,61,18,-6,13,4,-11
-46,-16,16,28,-70,-5,63,19,-5,12,4,-11
-30,-2,26,12,-65,9,61,17,-8,11,3,-15
-23,5,32,5,-63,15,61,17,-9,10,2,-14
-36,-10,18,20,-62,1,63,18,-7,13,5,-11
-33,-6,21,17,-63,4,62,19,-7,11,2,-16
-23,5,32,5,-63,15,60,16,-9,9,-0,-17
-36,0,36,13,-82,14,58,16,-9,10,1,-16
-37,-10,19,20,-65,1,61,17,-8,11,2,-12
-32,-4,25,14,-65,7,61,17,-8,10,1,-17
-41,-0,39,15,-92,14,60,18,-10,10,2,-14
-41,-6,29,20,-80,6,61,19,-7,12,4,-13
-42,-6,30,20,-83,7,62,18,-8,11,4,-16
-33,-8,19,18,-60,2,63,20,-6,13,9,-10
-38,-10,19,21,-67,1,65,21,-6,13,7,-11
-32,-6,21,16,-62,4,63,19,-8,12,6,-13
-26,-0,25,10,-58,9,63,18,-8,11,6,-13
-32,-4,25,14,-65,7,62,18,-9,11,3,-16
-37,-10,19,20,-65,1,63,18,-7,11,4,-13
-32,-10,14,19,-53,-1,62,16,-8,10,3,-15
-41,-10,23,22,-73,2,63,17,-8,10,3,-14
-42,-8,26,21,-78,4,63,17,-9,10,4,-17
-33,-2,29,14,-72,9,63,17,-10,10,2,-17
-24,0,25,9,-57,9,62,17,-9,11,4,-15
-35,-2,30,15,-75,9,64,19,-9,10,4,-14
-30,0,30,11,-68,12,64,17,-10,10,3,-15
-30,-2,25,13,-63,8,66,18,-9,11,3,-15
-32,-2,29,13,-70,9,64,18,-7,10,3,-15
-38,-4,30,18,-78,8,64,17,-9,8,0,-18
-26,-2,21,12,-55,6,64,18,-8,8,1,-16
-38,-6,26,19,-75,6,66,19,-8,9,4,-14
-43,-10,25,22,-78,3,65,18,-9,10,2,-16
-33,-8,19,18,-60,2,64,20,-9,10,2,-16
-30,-8,14,17,-50,0,65,19,-9,10,2,-16
-32,-6,21,16,-62,4,65,19,-10,10,2,-18
-39,-10,21,21,-70,2,66,20,-10,10,1,-18
-31,-10,12,19,-50,-2,65,20,-9,11,2,-18
-37,-6,25,18,-72,5,65,18,-10,9,2,-17
-41,-8,25,21,-75,4,63,18,-10,9,0,-15
-37,-4,29,17,-75,8,63,18,-11,8,0,-18
-33,-8,19,18,-60,2,64,20,-10,10,2,-15
-44,-12,23,24,-77,1,66,21,-8,11,4,-12
-36,-12,14,21,-57,-2,66,21,-9,10,2,-12
-35,-10,16,20,-58,-1,67,20,-10,9,2,-14
-41,-14,16,24,-65,-3,66,21,-9,10,3,-13
-41,-12,19,23,-68,-1,66,19,-10,9,2,-16
-32,-8,18,17,-57,2,66,19,-10,9,2,-15
-38,-4,30,18,-78,8,66,19,-9,8,2,-15
-42,-6,30,20,-83,7,65,19,-11,8,2,-16
-37,-8,23,19,-68,4,63,18,-11,7,-1,-17
-33,-6,21,17,-63,4,66,19,-10,8,2,-16
-44,-10,26,23,-82,4,66,20,-10,7,2,-18
-37,-2,32,15,-80,11,65,19,-10,7,2,-17
-32,-2,29,13,-70,9,65,19,-10,9,3,-16
-37,-6,26,18,-73,6,64,19,-10,8,2,-16
-39,-4,32,17,-82,9,65,19,-10,8,2,-16
-31,-2,26,13,-67,8,65,19,-11,8,4,-16
-43,-14,18,25,-70,-2,67,19,-10,8,2,-17
-41,-6,30,19,-82,7,67,18,-10,7,1,-17
-36,5,44,10,-92,20,67,19,-11,5,-0,-17
-36,16,64,3,-115,35,64,17,-13,2,-2,-21
-35,2,39,12,-83,16,64,18,-12,7,3,-13
-27,-12,6,18,-37,-5,69,22,-8,9,6,-11
-27,-6,16,14,-50,3,69,23,-7,11,6,-12
-33,-1,31,13,-75,11,69,23,-7,10,7,-10
-30,6,41,7,-80,19,69,22,-8,9,6,-13
-32,6,43,8,-85,20,69,23,-7,9,7,-11
-25,8,39,5,-73,19,69,21,-6,10,6,-11
-32,4,39,9,-82,17,71,21,-5,10,8,-11
-27,6,39,6,-75,18,72,23,-5,10,7,-12
-31,16,60,1,-105,33,69,21,-7,9,6,-13
-33,10,52,6,-97,26,70,22,-6,11,8,-8
-21,15,48,-2,-78,28,71,22,-5,11,8,-10
-22,18,55,-3,-88,33,69,21,-7,10,7,-10
-28,14,54,1,-93,29,72,23,-5,11,8,-9
-27,16,57,0,-97,32,72,24,-5,11,5,-12
-27,13,50,2,-88,27,71,22,-6,10,6,-14
-31,12,53,4,-97,28,75,25,-3,11,6,-12
-25,20,60,-3,-98,35,75,25,-2,10,6,-11
-20,28,69,-10,-103,44,75,25,-3,9,8,-11
-20,34,80,-14,-115,52,73,25,-2,10,9,-10
-22,38,89,-16,-128,58,73,25,-1,12,10,-8
-9,50,98,-29,-123,69,71,26,-1,13,12,-6
-5,54,103,-34,-125,74,68,26,1,15,14,1
-7,44,87,-26,-110,62,70,28,3,20,19,4
-5,44,84,-26,-103,59,64,26,2,19,16,2
-2,48,89,-30,-107,65,61,23,0,17,15,1
0,53,96,-35,-112,70,61,22,-0,16,16,2
4,50,87,-34,-97,66,61,21,0,17,17,5
7,50,84,-35,-88,64,61,21,-0,16,17,4
11,50,80,-37,-80,63,61,21,-1,17,18,6
1,48,86,-32,-98,64,61,22,-1,17,20,6
10,57,93,-41,-97,72,59,21,-1,18,19,6
24,59,84,-47,-70,70,59,22,-1,18,21,9
22,54,77,-43,-63,64,59,23,0,18,20,7
20,57,84,-44,-75,69,58,23,-2,18,19,7
26,56,77,-46,-60,66,57,22,-4,15,17,5
24,44,55,-37,-37,49,60,23,-2,19,21,8
18,40,55,-32,-43,47,64,27,1,18,23,9
20,52,75,-41,-65,63,63,24,0,18,20,7
12,48,74,-35,-73,59,62,23,-4,15,18,4
0,40,73,-26,-85,54,63,22,-4,13,16,4
0,39,71,-25,-82,52,63,22,-5,12,16,4
-6,35,69,-20,-87,49,63,20,-6,11,14,0
-22,28,73,-10,-110,46,64,22,-6,11,13,-1
-20,20,57,-5,-88,34,64,22,-8,9,11,-4
-24,12,44,2,-78,24,66,22,-8,7,8,-9
-31,12,52,4,-95,27,65,22,-8,5,6,-12
-37,10,54,7,-103,26,65,21,-9,5,6,-10
-24,2,29,8,-60,12,66,20,-10,4,3,-12
-24,0,25,9,-57,9,65,18,-12,2,-1,-17
-33,-0,32,13,-75,12,64,19,-13,1,-0,-16
-31,-0,30,12,-70,11,65,18,-14,0,-1,-17
-39,-6,29,19,-78,7,65,19,-14,0,-0,-16
-48,-9,31,24,-92,6,67,19,-15,-1,-4,-21
-43,-8,29,21,-82,6,66,18,-16,-4,-6,-22
-41,-6,30,19,-82,7,68,18,-17,-5,-6,-22
-33,-7,21,17,-62,3,67,17,-18,-5,-7,-24
-37,-14,12,23,-57,-4,68,18,-17,-5,-6,-23
-37,-17,6,25,-50,-8,72,21,-14,-4,-4,-19
-32,-13,9,21,-47,-5,72,21,-14,-3,-4,-21
-35,-14,9,23,-50,-6,72,20,-14,-3,-6,-23
-33,-12,12,20,-52,-3,71,20,-16,-4,-4,-21
-41,-15,14,26,-63,-4,70,20,-16,-4,-4,-21
-48,-21,10,32,-67,-10,72,22,-15,-4,-5,-20
-43,-15,16,26,-67,-4,72,21,-15,-4,-5,-18
-41,-14,14,25,-63,-4,72,21,-16,-5,-6,-21
-48,-16,19,28,-77,-3,71,20,-16,-6,-6,-24
-41,-15,14,26,-63,-4,73,21,-16,-6,-6,-21
-37,-16,9,24,-52,-7,73,22,-15,-6,-5,-22
-35,-10,16,20,-58,-1,72,21,-16,-7,-6,-22
-44,-17,12,28,-63,-7,72,22,-15,-6,-6,-20
-36,-12,14,22,-57,-3,73,22,-16,-5,-8,-23
-36,-14,11,22,-53,-5,72,22,-17,-7,-8,-23
-41,-11,21,23,-72,1,72,21,-17,-7,-10,-27
-42,-17,11,27,-60,-7,73,23,-16,-7,-9,-23
-41,-18,7,28,-55,-9,74,23,-15,-5,-8,-22
-50,-18,16,31,-75,-6,73,23,-15,-7,-9,-24
-50,-24,6,35,-63,-14,74,23,-15,-7,-6,-20
-41,-20,4,29,-50,-12,73,23,-16,-8,-8,-23
-41,-12,19,23,-68,-1,72,22,-16,-8,-8,-23
-48,-13,24,27,-83,1,71,21,-15,-8,-8,-24
-35,-12,12,21,-53,-4,72,22,-16,-7,-8,-24
-36,-17,5,25,-47,-9,74,23,-15,-8,-8,-24
-52,-25,6,36,-65,-14,78,28,-12,-7,-11,-27
-47,-30,-7,37,-45,-22,82,34,-10,-9,-15,-33
-48,-26,0,36,-55,-17,90,44,-2,-9,-18,-38
-61,-20,24,36,-97,-5,94,48,2,-9,-21,-44
-72,-28,19,45,-103,-12,98,54,10,-5,-20,-43
-60,-25,14,39,-83,-12,103,64,25,4,-16,-43
-48,-28,-4,37,-50,-20,106,78,40,18,-9,-37
-36,-16,7,24,-48,-7,111,95,63,36,4,-30
-17,-1,16,7,-38,5,115,111,91,59,18,-22
5,20,32,-14,-32,26,120,124,120,81,35,-9
13,46,72,-35,-68,57,127,137,156,116,66,18
48,90,116,-77,-80,103,125,147,191,157,108,55
78,149,192,-126,-137,169,125,143,213,197,151,99
109,204,261,-174,-182,231,118,123,218,236,201,151
161,258,308,-229,-177,283,98,98,217,282,263,215
233,290,295,-276,-80,300,69,60,202,320,321,278
277,322,309,-314,-47,326,48,27,185,349,364,325
318,354,327,-349,-22,353,17,-3,177,381,407,374
344,370,330,-370,3,365,-23,-45,148,388,423,397
359,386,345,-386,3,381,-69,-97,94,363,415,406
340,396,381,-386,-60,401,-106,-139,36,323,397,403
334,381,359,-373,-42,383,-134,-165,-10,281,370,393
292,374,388,-354,-122,389,-159,-198,-66,215,328,368
254,339,363,-316,-137,357,-183,-224,-133,135,274,335
205,278,300,-258,-118,294,-188,-226,-182,64,217,289
135,234,290,-203,-185,261,-183,-232,-228,-8,153,234
72,196,282,-156,-247,233,-170,-231,-265,-76,92,182
45,155,235,-119,-223,189,-153,-203,-250,-92,61,147
61,116,150,-99,-107,132,-137,-174,-230,-97,35,116
52,74,84,-67,-38,80,-112,-146,-213,-102,11,82
24,46,61,-38,-43,53,-86,-122,-192,-103,-5,56
10,40,62,-29,-62,49,-61,-102,-170,-98,-19,32
-11,40,82,-21,-108,56,-40,-86,-152,-93,-29,13
-24,40,96,-18,-138,62,-26,-73,-135,-87,-33,4
-50,30,102,-1,-173,57,-11,-58,-116,-80,-36,-8
-42,14,67,6,-125,34,4,-45,-101,-73,-37,-14
-55,2,57,19,-127,22,20,-29,-84,-64,-35,-21
-68,-0,66,26,-153,24,30,-20,-73,-58,-34,-26
-55,-10,37,27,-107,7,38,-12,-63,-53,-31,-24
-54,-10,36,27,-103,7,46,-5,-56,-47,-30,-27
-58,-17,26,33,-97,-2,53,3,-49,-41,-26,-26
-50,-22,9,34,-68,-11,59,9,-43,-39,-25,-26
-43,-20,6,30,-55,-11,62,15,-39,-35,-23,-26
-44,-23,2,32,-53,-14,65,18,-35,-34,-22,-26
-46,-30,-9,37,-42,-23,67,21,-31,-32,-22,-24
-48,-34,-13,40,-40,-27,70,23,-28,-31,-23,-27
-53,-33,-7,42,-52,-24,69,23,-27,-31,-25,-27
-58,-36,-7,45,-57,-26,70,22,-26,-32,-27,-31
-52,-32,-7,41,-50,-24,71,24,-26,-32,-28,-33
-44,-26,-4,34,-47,-18,70,23,-27,-33,-29,-33
-59,-38,-9,47,-57,-28,73,24,-27,-33,-29,-35
-54,-38,-14,45,-45,-30,74,25,-27,-32,-28,-36
-47,-38,-21,43,-28,-33,74,26,-26,-32,-27,-35
-50,-39,-21,45,-32,-34,75,26,-25,-31,-25,-35
-50,-37,-18,43,-35,-31,77,30,-22,-29,-23,-31
-44,-32,-14,38,-33,-26,74,28,-22,-31,-25,-35
-46,-27,-4,35,-48,-19,74,27,-21,-30,-26,-36
-53,-32,-5,40,-53,-23,74,29,-20,-30,-27,-36
-49,-34,-12,40,-42,-26,75,28,-20,-30,-27,-34
-48,-41,-26,45,-23,-37,75,29,-20,-29,-26,-33
-54,-46,-30,51,-27,-42,79,31,-19,-29,-25,-33
-44,-40,-29,44,-17,-37,77,30,-22,-31,-25,-34
-46,-35,-18,40,-32,-29,77,28,-22,-32,-26,-34
-53,-38,-16,45,-42,-30,76,28,-23,-32,-26,-34
-63,-42,-14,52,-55,-33,77,31,-21,-31,-24,-33
-37,-32,-21,36,-17,-29,74,30,-20,-31,-26,-34
-48,-32,-11,39,-42,-25,75,30,-20,-32,-25,-33
-50,-32,-9,40,-47,-24,76,31,-18,-30,-26,-33
-44,-34,-18,39,-30,-29,76,32,-19,-31,-25,-31
-47,-32,-11,38,-40,-25,76,31,-21,-33,-29,-34
-60,-46,-23,53,-42,-38,77,31,-21,-32,-26,-32
-54,-42,-23,48,-35,-36,78,31,-23,-35,-26,-34
-47,-42,-30,46,-18,-39,78,31,-22,-33,-25,-34
-43,-36,-23,40,-22,-32,78,31,-22,-33,-26,-34
-44,-40,-27,43,-18,-36,78,32,-21,-33,-26,-33
-37,-37,-30,39,-7,-35,78,32,-19,-32,-25,-32
-42,-33,-18,38,-27,-28,78,32,-19,-32,-25,-32
-50,-38,-20,44,-33,-33,79,33,-18,-31,-26,-32
-48,-33,-12,40,-40,-26,79,32,-19,-33,-25,-32
-44,-33,-16,38,-30,-28,79,33,-20,-33,-25,-34
-54,-42,-23,48,-35,-36,80,33,-20,-32,-24,-32
-52,-42,-25,47,-30,-37,79,32,-21,-33,-26,-32
-45,-38,-23,42,-25,-33,78,30,-23,-35,-29,-35
-50,-32,-9,40,-45,-25,77,30,-23,-35,-28,-37
-55,-41,-20,48,-38,-34,77,32,-22,-33,-26,-32
-50,-46,-34,50,-17,-43,79,33,-19,-33,-26,-33
-49,-40,-23,45,-28,-34,78,33,-19,-34,-27,-35
-55,-40,-18,47,-42,-33,78,33,-20,-32,-26,-33
-46,-34,-16,40,-33,-28,78,32,-20,-33,-27,-34
-44,-34,-16,39,-32,-28,78,30,-20,-33,-26,-33
-47,-36,-18,41,-32,-30,80,31,-21,-34,-27,-35
-50,-36,-14,43,-40,-28,79,31,-22,-34,-29,-36
-50,-38,-19,44,-35,-32,78,31,-23,-35,-28,-36
-52,-40,-21,46,-33,-34,79,32,-21,-34,-28,-36
-44,-41,-30,44,-15,-38,78,32,-22,-35,-27,-37
-46,-42,-31,45,-17,-39,80,33,-21,-33,-27,-37
-44,-40,-29,44,-17,-37,80,34,-20,-34,-28,-38
-46,-43,-32,46,-15,-40,80,34,-20,-33,-27,-39
-44,-38,-25,42,-22,-34,80,33,-20,-35,-27,-40
-42,-38,-27,42,-17,-35,80,32,-21,-35,-28,-39
-53,-42,-24,48,-33,-36,81,34,-20,-35,-27,-37
-48,-38,-21,44,-30,-33,80,32,-21,-36,-27,-39
-38,-33,-21,37,-18,-29,78,32,-22,-37,-28,-40
-47,-36,-19,42,-30,-31,77,32,-22,-37,-27,-42
-46,-44,-34,47,-12,-42,79,35,-20,-35,-25,-36
-41,-41,-34,43,-7,-39,79,35,-19,-36,-26,-36
-36,-34,-26,36,-10,-32,78,33,-21,-37,-28,-39
-42,-33,-18,38,-27,-28,78,34,-21,-37,-29,-41
-43,-30,-12,36,-35,-24,77,34,-22,-39,-28,-40
-31,-32,-27,34,-3,-31,77,33,-20,-37,-25,-37
-38,-42,-38,43,0,-42,79,34,-18,-36,-25,-35
-48,-43,-30,47,-20,-39,79,37,-16,-34,-22,-33
-33,-37,-34,37,3,-37,79,35,-17,-36,-23,-33
-35,-37,-32,38,-2,-36,77,35,-18,-37,-25,-33
-44,-38,-25,42,-22,-34,77,34,-19,-37,-27,-34
-35,-31,-21,34,-15,-28,78,36,-19,-38,-25,-33
-31,-29,-21,31,-10,-27,77,35,-18,-39,-25,-34
-33,-35,-31,36,-2,-34,76,37,-18,-35,-23,-31
-35,-35,-29,37,-7,-34,77,39,-17,-37,-22,-30
-29,-31,-27,32,-2,-30,76,37,-18,-38,-25,-33
-35,-31,-21,34,-15,-28,74,38,-17,-38,-25,-32
-30,-30,-25,31,-5,-29,75,37,-17,-38,-25,-30
-27,-39,-43,37,18,-42,77,40,-16,-36,-23,-27
-28,-38,-41,36,15,-40,77,39,-15,-36,-23,-27
-26,-31,-30,31,5,-32,76,41,-13,-35,-20,-26
-21,-29,-31,28,12,-30,75,40,-16,-37,-22,-26
-24,-30,-29,29,5,-30,74,40,-15,-35,-21,-26
-27,-28,-23,29,-3,-26,74,42,-14,-34,-20,-25
-17,-24,-26,23,12,-26,74,42,-13,-33,-20,-21
-13,-25,-32,22,23,-28,73,42,-14,-33,-19,-23
-24,-34,-38,32,17,-36,74,43,-12,-31,-16,-20
-18,-31,-38,28,23,-34,73,42,-12,-31,-15,-20
-10,-24,-34,20,28,-28,72,42,-12,-32,-16,-21
-13,-21,-25,19,15,-23,71,44,-11,-31,-15,-19
-7,-13,-16,12,12,-15,70,43,-11,-30,-12,-18
5,-12,-26,7,37,-17,68,44,-10,-29,-11,-13
3,-20,-37,13,47,-26,69,45,-10,-28,-8,-11
-2,-14,-21,11,22,-17,69,45,-10,-27,-8,-11
4,-10,-20,6,27,-13,67,45,-9,-25,-5,-7
7,-15,-32,8,45,-21,68,47,-9,-25,-4,-4
-2,-14,-21,11,22,-17,66,47,-8,-24,-4,-4
4,-2,-7,1,12,-4,66,47,-7,-23,-1,-2
9,4,0,-5,10,3,63,46,-7,-21,1,0
18,0,-16,-6,40,-5,63,46,-6,-20,6,5
13,-2,-16,-2,32,-7,64,48,-5,-19,7,7
24,8,-7,-13,35,3,61,45,-7,-20,8,7
24,9,-6,-14,33,4,61,46,-7,-18,10,10
18,10,1,-13,20,8,60,46,-7,-18,10,11
26,12,-2,-17,32,8,59,46,-7,-16,11,12
30,18,4,-21,30,13,59,45,-8,-15,12,12
18,8,-2,-11,23,5,59,47,-6,-14,15,14
18,18,16,-18,3,18,56,46,-7,-13,17,16
38,20,0,-27,43,14,56,45,-7,-12,21,21
35,25,12,-28,25,22,54,43,-8,-12,22,21
31,24,13,-26,20,21,53,43,-8,-12,22,25
47,30,9,-36,43,23,53,41,-9,-12,23,23
45,38,24,-40,23,34,52,40,-10,-11,23,26
47,41,29,-44,20,38,52,39,-12,-12,23,25
41,42,37,-42,3,42,52,39,-12,-11,24,27
41,38,30,-39,12,37,52,39,-11,-9,29,30
41,39,31,-40,10,38,51,39,-11,-9,30,32
37,47,49,-44,-15,49,49,37,-11,-8,31,31
49,56,53,-54,-7,56,45,35,-12,-8,32,33
43,52,53,-50,-13,54,46,35,-11,-7,35,37
46,54,54,-52,-10,56,45,33,-12,-7,36,39
49,54,49,-52,-2,54,45,32,-13,-7,34,39
50,52,46,-52,3,52,46,33,-12,-6,35,40
45,50,46,-48,-2,50,48,35,-11,-5,36,39
43,48,46,-47,-5,49,48,34,-12,-6,36,41
48,51,46,-51,2,51,48,35,-11,-5,35,38
44,57,61,-53,-22,60,47,35,-11,-7,35,37
43,60,67,-55,-30,65,46,32,-11,-7,35,37
51,61,61,-58,-13,63,45,32,-12,-6,36,37
42,58,64,-53,-27,63,46,33,-11,-5,36,39
38,66,82,-56,-53,74,46,33,-10,-4,35,37
47,70,80,-63,-40,76,45,30,-12,-6,32,34
47,64,71,-59,-30,69,48,33,-10,-4,32,34
35,54,64,-48,-35,60,52,35,-8,-3,33,35
39,52,55,-47,-20,55,55,37,-7,-1,33,34
38,53,59,-48,-25,57,55,36,-6,-3,33,31
27,48,61,-41,-40,55,54,35,-7,-5,29,27
30,52,64,-44,-40,58,55,33,-8,-6,26,22
33,51,61,-45,-33,56,56,34,-7,-5,27,21
18,40,55,-32,-43,47,57,34,-5,-5,25,20
13,40,61,-30,-57,49,59,34,-5,-7,22,17
19,46,64,-36,-52,54,60,35,-5,-7,19,14
13,36,53,-28,-47,44,62,35,-3,-7,19,14
8,38,60,-27,-60,47,66,38,-2,-7,17,11
13,44,67,-34,-63,54,66,36,-3,-8,16,10
7,32,52,-23,-52,40,67,37,-2,-9,13,6
0,27,49,-17,-57,36,67,36,-2,-10,12,4
0,28,52,-18,-60,38,67,37,-1,-11,12,4
1,27,48,-18,-53,36,68,35,-2,-12,10,2
-1,30,57,-19,-67,41,68,35,-2,-12,11,0
-7,30,62,-17,-80,43,69,35,-2,-13,8,-1
-7,35,71,-20,-90,49,68,34,-2,-15,6,-3
-7,37,74,-21,-95,52,69,33,-4,-15,2,-7
-15,28,66,-13,-93,43,70,33,-3,-15,1,-9
-15,24,59,-10,-85,38,72,35,-2,-16,0,-11
-11,28,62,-14,-85,42,72,32,-3,-16,0,-10
-16,18,49,-5,-75,30,74,34,-2,-16,0,-10
-20,24,64,-8,-97,39,73,32,-2,-18,-1,-11
-13,21,52,-9,-75,33,73,32,-1,-17,1,-10
-13,18,44,-6,-65,28,72,33,-2,-17,0,-10
-20,20,55,-5,-87,33,73,33,-0,-17,0,-11
-18,20,53,-6,-82,33,70,31,-3,-19,-2,-13
-13,18,44,-6,-65,28,73,33,-2,-18,-1,-10
-21,13,44,-1,-75,25,74,32,-2,-19,-1,-12
-15,18,48,-6,-72,30,73,33,-2,-19,-1,-12
-19,21,57,-6,-88,35,73,32,-3,-19,-3,-15
-26,22,66,-5,-105,39,72,29,-4,-21,-4,-17
-24,27,73,-9,-112,45,71,29,-5,-22,-3,-17
-17,14,43,-3,-68,25,72,29,-3,-19,-0,-13
-23,13,46,0,-80,26,71,29,-3,-20,-2,-16
-24,23,66,-6,-103,39,70,29,-4,-21,-2,-17
-18,31,74,-13,-107,48,67,28,-5,-22,-5,-18
-15,26,62,-11,-88,40,67,28,-6,-22,-6,-18
-23,15,50,-1,-83,28,70,29,-3,-20,-4,-15
-24,12,46,1,-82,25,72,31,-3,-20,-2,-12
-22,18,55,-3,-88,33,70,29,-4,-22,-5,-18
-26,14,52,1,-88,28,71,28,-4,-22,-4,-18
-24,15,52,-1,-87,29,70,27,-5,-23,-4,-18
-21,19,55,-4,-87,33,68,26,-6,-24,-4,-18
-23,19,57,-4,-92,34,67,26,-6,-24,-5,-18
-27,21,64,-4,-105,38,67,25,-6,-25,-4,-17
-16,17,46,-5,-72,28,66,25,-5,-23,-2,-13
-22,6,34,4,-63,17,69,28,-2,-22,-2,-11
-21,12,43,0,-73,24,67,28,-3,-23,-4,-14
-21,16,50,-3,-82,29,68,27,-5,-24,-5,-16
-23,15,50,-1,-83,28,68,26,-5,-23,-4,-14
-28,10,46,4,-85,24,69,27,-5,-24,-4,-15
-22,12,44,1,-77,25,67,26,-6,-26,-4,-16
-24,8,39,4,-73,20,67,26,-5,-24,-2,-13
-30,5,39,8,-80,18,67,26,-3,-23,-1,-10
-22,12,44,1,-77,25,66,26,-2,-24,-1,-11
-10,21,48,-10,-67,32,64,26,-3,-22,-2,-11
-18,16,48,-3,-77,28,66,27,-2,-22,-2,-11
-18,18,52,-5,-80,31,64,27,-3,-23,-4,-11
-21,19,55,-4,-87,33,66,27,-3,-23,-6,-13
-17,20,54,-6,-82,33,65,27,-3,-24,-6,-14
-28,21,66,-3,-108,38,67,27,-3,-24,-4,-13
-23,21,61,-5,-97,36,66,26,-1,-23,-3,-13
-19,23,61,-7,-92,38,65,26,-2,-22,-4,-15
-22,22,62,-6,-97,38,64,26,-2,-23,-2,-14
-17,17,48,-4,-75,29,66,28,0,-20,-0,-11
-7,26,55,-14,-72,38,65,27,0,-21,-3,-12
-11,22,52,-10,-72,34,65,29,1,-20,-3,-11
-10,26,57,-13,-77,38,64,28,1,-20,-3,-11
-15,28,66,-13,-93,43,64,30,1,-19,-4,-12
-17,26,64,-11,-93,41,63,28,0,-21,-5,-11
-24,27,73,-9,-112,45,66,30,2,-19,-3,-11
-26,22,66,-5,-105,39,65,31,2,-19,-1,-11
-18,20,55,-6,-85,34,66,32,2,-18,2,-9
-23,21,61,-5,-97,36,67,32,4,-17,3,-9
-23,27,72,-9,-108,44,66,31,3,-16,2,-9
-6,27,55,-15,-70,38,65,31,5,-16,2,-11
-8,27,57,-14,-75,39,65,31,5,-15,0,-11
-10,25,55,-12,-75,37,66,32,7,-15,2,-10
-12,31,68,-15,-92,46,66,34,6,-16,1,-10
-7,28,59,-15,-77,40,65,33,5,-16,0,-11
-22,20,59,-5,-93,35,67,34,6,-16,2,-11
-17,26,64,-11,-93,41,67,33,7,-14,2,-10
-10,31,66,-17,-87,45,67,33,5,-16,1,-14
-15,28,66,-13,-93,43,67,33,7,-15,2,-12
-13,26,61,-12,-85,40,67,35,7,-12,4,-10
-4,28,55,-17,-68,39,66,33,7,-13,3,-11
-8,35,72,-20,-92,49,65,34,7,-13,2,-11
-10,36,75,-20,-98,52,64,32,6,-13,0,-12
-11,36,77,-19,-102,52,67,34,8,-13,2,-11
-12,31,68,-15,-92,46,67,34,8,-13,2,-11
-13,29,66,-14,-92,44,67,35,8,-14,3,-13
-10,31,66,-17,-87,45,68,34,8,-14,4,-12
-10,32,68,-17,-90,46,65,34,8,-14,3,-13
-2,27,52,-17,-62,37,67,35,8,-13,5,-11
-12,25,57,-12,-80,38,67,35,7,-13,5,-11
1,35,62,-23,-70,46,66,33,8,-14,3,-14
1,40,72,-27,-82,53,64,33,7,-15,2,-15
-6,37,73,-22,-92,52,63,32,6,-15,1,-15
0,32,59,-21,-68,43,66,34,8,-13,4,-11
-7,24,52,-13,-68,35,67,34,8,-15,2,-16
-22,34,84,-14,-122,54,66,33,5,-16,0,-15
-19,35,82,-15,-117,54,66,33,7,-15,2,-13
-11,20,48,-9,-68,31,66,33,7,-14,1,-12
-10,23,52,-11,-70,34,66,33,5,-14,2,-14
-13,22,54,-9,-77,35,69,35,8,-12,5,-9
1,28,50,-19,-57,37,66,33,7,-14,1,-12
-4,29,57,-17,-72,40,67,34,8,-13,3,-12
-8,29,61,-15,-80,42,67,34,8,-15,2,-12
-2,30,57,-19,-68,41,68,34,7,-14,2,-11
-7,26,55,-14,-72,38,68,33,6,-15,-0,-14
-26,26,73,-7,-113,44,67,31,5,-16,-1,-15
-27,29,79,-9,-122,48,67,31,4,-18,-1,-15
-16,27,64,-12,-92,42,67,32,4,-18,-0,-14
-15,30,69,-14,-97,46,67,32,4,-16,0,-14
-10,31,66,-17,-87,45,67,32,3,-17,-1,-17
-6,34,68,-20,-85,48,67,31,2,-19,-3,-18
-2,32,61,-20,-73,44,68,31,3,-17,-0,-16
-10,29,62,-15,-83,42,69,33,5,-16,-1,-16
-7,28,59,-15,-77,40,68,32,3,-18,-1,-17
-11,26,59,-13,-80,39,68,32,2,-18,-2,-18
-21,24,64,-8,-98,40,68,32,3,-20,-4,-21
-21,26,68,-9,-102,43,67,30,1,-21,-5,-20
-16,31,72,-14,-100,47,67,30,0,-20,-4,-20
-27,21,64,-4,-105,38,67,30,0,-20,-4,-20
-16,19,50,-6,-75,31,68,30,2,-18,-2,-15
-12,25,57,-12,-80,38,69,30,1,-20,-4,-20
-6,27,55,-15,-70,38,67,28,0,-20,-3,-18
-10,18,43,-8,-60,28,69,31,3,-18,-1,-14
-6,25,52,-14,-67,36,69,30,2,-20,-3,-17
-10,24,54,-12,-73,36,68,30,1,-19,-4,-20
-11,26,59,-13,-80,39,67,29,0,-21,-5,-20
-16,27,64,-12,-92,42,66,29,-1,-22,-6,-18
-16,25,61,-10,-88,39,67,29,-1,-21,-5,-20
-17,21,55,-7,-83,34,67,29,-1,-22,-6,-20
-21,19,55,-4,-87,33,67,28,-0,-22,-5,-20
-12,25,57,-12,-80,38,66,27,-1,-22,-7,-22
-6,32,64,-19,-82,45,66,27,-1,-21,-6,-21
-12,23,54,-10,-75,35,68,29,1,-20,-5,-20
-8,21,46,-10,-63,31,67,29,0,-21,-6,-21
-13,24,57,-11,-82,37,67,28,0,-21,-7,-21
-24,27,73,-9,-112,45,64,27,-1,-23,-7,-21
-19,31,75,-13,-108,48,64,27,-3,-24,-6,-23
-12,23,54,-10,-75,35,64,27,-1,-23,-5,-20
-17,16,46,-4,-73,28,64,28,-2,-21,-4,-20
-15,18,48,-6,-72,30,64,26,-3,-23,-8,-24
-12,19,46,-7,-67,30,63,27,-3,-22,-8,-24
-6,23,48,-12,-62,33,64,25,-3,-23,-9,-23
-17,20,54,-6,-82,33,65,27,-1,-23,-8,-24
-13,22,54,-9,-77,35,64,26,-1,-22,-7,-21
-10,23,52,-11,-70,34,65,27,0,-22,-6,-20
-21,22,61,-6,-93,37,64,27,0,-22,-6,-22
-23,23,64,-6,-100,39,63,26,-1,-23,-6,-23
-16,25,61,-10,-88,39,62,26,-3,-23,-8,-25
-23,27,72,-9,-108,44,62,26,-4,-23,-8,-26
-23,29,75,-10,-113,47,61,25,-5,-24,-10,-26
-10,29,62,-15,-83,42,59,24,-6,-24,-10,-26
-11,12,34,-3,-52,21,64,27,-1,-23,-7,-21
-27,17,57,-1,-97,33,63,27,-1,-23,-8,-24
-13,20,50,-8,-73,32,62,24,-2,-23,-8,-24
-17,17,48,-4,-75,29,63,25,-2,-24,-9,-25
-18,22,59,-7,-88,36,62,25,-2,-22,-6,-22
-21,21,59,-6,-92,36,62,26,-1,-22,-4,-20
-16,19,50,-6,-75,31,62,25,-2,-22,-5,-20
-17,20,54,-6,-82,33,61,25,-3,-23,-7,-26
-21,24,64,-8,-98,40,60,24,-5,-25,-8,-25
-11,24,55,-11,-77,36,61,23,-5,-24,-8,-22
-18,8,34,2,-60,18,62,24,-3,-24,-8,-23
-21,19,55,-4,-87,33,62,24,-3,-25,-11,-25
-21,27,69,-10,-103,44,61,22,-5,-26,-12,-27
-17,26,64,-11,-93,41,60,21,-5,-25,-12,-28
-21,20,57,-5,-90,35,61,23,-3,-22,-7,-20
-23,13,46,0,-80,26,60,23,-3,-23,-8,-20
-17,19,52,-6,-78,32,59,22,-3,-23,-7,-23
-17,19,52,-6,-78,32,58,21,-5,-25,-9,-27
-22,18,55,-3,-88,33,58,22,-5,-24,-11,-27
-13,21,52,-9,-75,33,58,20,-5,-26,-12,-28
-21,21,59,-6,-92,36,56,19,-5,-26,-12,-27
-28,15,55,1,-95,30,58,21,-3,-24,-11,-28
-17,16,46,-4,-73,28,58,20,-4,-25,-12,-29
-17,23,59,-9,-87,37,57,20,-5,-25,-12,-29
-21,18,54,-4,-85,32,57,21,-5,-24,-11,-27
-18,18,52,-5,-80,31,58,21,-4,-24,-9,-25
-13,19,48,-7,-70,30,58,21,-3,-23,-8,-24
-15,16,44,-5,-68,27,58,21,-4,-23,-8,-22
-21,15,48,-2,-78,28,58,20,-4,-23,-9,-24
-10,19,44,-9,-62,29,57,19,-5,-24,-10,-25
-10,19,44,-9,-62,29,58,19,-4,-24,-10,-26
-17,19,52,-6,-78,32,58,19,-4,-24,-11,-27
-13,21,52,-9,-75,33,57,19,-4,-25,-11,-27
-10,23,52,-11,-70,34,57,19,-5,-24,-10,-27
-22,22,62,-6,-97,38,57,19,-5,-26,-12,-28
-22,20,59,-5,-93,35,57,19,-5,-25,-11,-27
-10,27,59,-14,-78,39,55,19,-6,-26,-11,-27
-13,22,54,-9,-77,35,57,20,-5,-24,-8,-26
-17,15,44,-3,-70,26,58,21,-3,-23,-8,-26
-10,24,54,-12,-73,36,57,20,-4,-24,-9,-27
-8,21,46,-10,-63,31,57,19,-4,-24,-8,-27
-17,20,54,-6,-82,33,57,19,-3,-24,-10,-29
-16,23,57,-9,-83,36,57,18,-5,-25,-11,-29
-15,20,52,-7,-77,33,57,19,-3,-25,-9,-27
-18,20,55,-6,-85,34,57,19,-5,-25,-11,-29
-21,20,57,-5,-90,35,57,18,-3,-24,-11,-28
-13,22,54,-9,-77,35,56,19,-5,-24,-11,-28
-18,22,59,-7,-88,36,56,17,-6,-25,-11,-29
-17,16,46,-4,-73,28,56,17,-5,-25,-11,-29
-10,10,29,-3,-43,17,57,19,-3,-23,-10,-27
-12,15,39,-5,-58,25,57,19,-3,-24,-10,-28
-17,19,52,-6,-78,32,56,18,-4,-24,-11,-28
-12,17,43,-6,-63,27,57,19,-5,-23,-12,-28
-8,19,43,-9,-58,28,55,18,-5,-24,-11,-28
-19,15,46,-2,-75,27,58,20,-3,-23,-8,-27
-18,16,48,-3,-77,28,56,19,-5,-24,-11,-29
-13,21,52,-9,-75,33,55,17,-6,-25,-12,-32
-17,20,54,-6,-82,33,55,17,-6,-26,-12,-31
-18,16,48,-3,-77,28,55,17,-7,-24,-11,-32
-11,24,55,-11,-77,36,55,18,-6,-23,-11,-32
-6,34,68,-20,-85,48,53,16,-7,-24,-12,-33
-17,15,44,-3,-70,26,56,20,-3,-22,-8,-27
-13,23,55,-10,-78,36,55,18,-5,-25,-12,-32
-12,33,72,-17,-97,48,52,16,-6,-28,-15,-34
-17,15,44,-3,-70,26,55,18,-5,-23,-10,-27
-15,10,34,-1,-55,19,57,19,-4,-23,-11,-27
-13,12,36,-3,-57,22,57,19,-4,-22,-11,-27
-13,14,39,-4,-60,24,55,19,-5,-24,-11,-30
-15,18,48,-6,-72,30,55,18,-5,-23,-11,-29
-7,18,41,-9,-55,27,56,19,-3,-22,-11,-27
-15,14,41,-3,-63,25,55,18,-3,-22,-11,-28
-17,15,44,-3,-70,26,55,19,-4,-22,-11,-28
-17,14,43,-3,-68,25,55,19,-2,-23,-11,-29
-15,18,48,-6,-72,30,54,18,-5,-23,-12,-28
-15,20,52,-7,-77,33,54,18,-6,-23,-13,-30
-23,19,57,-4,-92,34,53,18,-6,-24,-13,-30
-8,29,61,-15,-80,42,53,17,-6,-25,-15,-32
-17,30,72,-13,-102,46,51,15,-8,-25,-15,-34
-13,20,50,-8,-73,32,52,16,-6,-24,-12,-32
-7,20,44,-10,-60,30,53,18,-6,-24,-13,-33
-19,17,50,-4,-80,30,53,18,-5,-23,-11,-32
-21,13,44,-1,-75,25,53,19,-5,-22,-11,-30
-10,14,36,-5,-52,23,52,18,-5,-23,-12,-33
-11,16,41,-6,-60,26,52,17,-5,-24,-12,-31
-19,17,50,-4,-80,30,53,17,-5,-23,-12,-31
-19,15,46,-2,-75,27,52,19,-5,-24,-12,-30
-7,20,44,-10,-60,30,52,18,-4,-23,-11,-30
-8,22,48,-11,-65,32,53,18,-3,-22,-10,-30
-14,18,46,-6,-70,29,54,20,-2,-21,-9,-29
-4,25,49,-14,-62,35,54,20,-1,-21,-8,-28
-2,27,52,-17,-62,37,54,21,-1,-19,-8,-29
-11,26,59,-13,-80,39,55,20,-1,-20,-8,-29
-5,34,67,-20,-83,47,55,19,0,-20,-6,-24
-1,32,59,-20,-68,43,56,20,3,-18,-6,-25
-6,31,62,-18,-78,44,56,21,2,-17,-4,-25
-11,33,71,-17,-95,48,56,21,2,-17,-6,-25
-1,39,72,-25,-83,52,54,21,1,-18,-6,-26
-6,39,77,-23,-95,54,53,21,0,-18,-7,-26
-9,38,78,-21,-100,54,53,22,0,-18,-6,-23
0,42,77,-27,-88,56,53,21,1,-18,-6,-27
0,47,85,-30,-98,63,52,20,-0,-18,-6,-27
-8,45,89,-26,-113,63,52,20,0,-16,-3,-25
-7,45,89,-27,-112,63,55,21,3,-17,-4,-27
-4,44,84,-27,-102,60,55,21,3,-15,-5,-25
-11,48,98,-27,-127,68,55,22,5,-16,-3,-25
-5,50,96,-31,-117,68,57,24,6,-12,-2,-21
5,52,89,-36,-98,68,57,25,7,-11,-1,-20
6,54,91,-37,-98,69,55,27,10,-9,2,-17
6,62,107,-43,-117,80,53,26,9,-10,2,-18
7,67,114,-46,-125,87,47,24,9,-10,2,-17
14,69,111,-50,-113,87,44,21,7,-11,3,-16
9,67,112,-47,-120,86,41,19,6,-11,4,-16
24,67,98,-52,-87,80,40,17,5,-11,2,-17
30,68,94,-55,-77,80,39,18,6,-11,4,-16
16,68,107,-51,-107,85,39,19,6,-10,5,-15
16,65,102,-48,-100,80,41,21,8,-9,7,-9
27,76,111,-60,-98,91,38,19,6,-10,4,-12
30,84,122,-66,-107,100,37,19,6,-9,5,-10
30,71,99,-57,-82,84,36,20,7,-8,8,-7
44,64,73,-58,-35,69,36,22,7,-7,10,-6
52,66,69,-62,-22,69,35,21,7,-7,8,-7
38,61,73,-54,-42,67,36,20,6,-7,10,-6
46,65,73,-59,-33,70,36,20,5,-9,9,-10
46,72,86,-64,-48,79,37,21,6,-8,9,-11
33,70,94,-58,-73,81,38,20,6,-8,8,-11
30,62,82,-51,-60,71,40,22,7,-7,8,-8
26,62,87,-50,-72,74,39,21,4,-10,6,-12
22,57,82,-45,-70,68,40,20,4,-10,6,-12
15,50,77,-38,-72,62,41,20,4,-10,4,-12
15,48,72,-36,-67,58,42,22,3,-11,1,-15
10,42,67,-31,-67,53,44,22,3,-11,1,-19
-4,34,66,-21,-80,47,44,22,2,-11,0,-20
-8,35,72,-20,-92,49,44,20,1,-13,-3,-23
-6,33,66,-19,-83,46,41,18,-2,-17,-6,-28
-17,30,72,-13,-102,46,41,15,-3,-19,-9,-30
-13,27,62,-12,-87,41,40,14,-4,-20,-10,-29
-10,20,46,-9,-65,30,40,14,-6,-21,-11,-30
-20,8,35,2,-63,18,42,14,-7,-21,-12,-32
-28,4,36,8,-73,16,41,15,-9,-23,-13,-33
-24,4,31,6,-63,15,40,12,-10,-23,-15,-35
-23,10,41,2,-73,22,41,12,-11,-25,-14,-35
-21,11,41,1,-70,23,41,14,-9,-25,-14,-37
-16,10,34,0,-57,19,40,13,-9,-24,-13,-35
-18,8,34,2,-60,18,43,15,-7,-23,-13,-35
-28,4,35,8,-72,16,41,15,-7,-24,-15,-35
-23,7,36,4,-67,18,42,15,-9,-25,-16,-38
-15,5,24,3,-45,13,43,16,-9,-24,-15,-38
-24,3,30,7,-62,13,44,16,-8,-23,-15,-36
-26,-2,23,11,-57,7,44,17,-7,-23,-13,-37
-23,6,34,5,-65,16,43,15,-9,-25,-16,-40
-23,10,41,2,-73,22,41,14,-11,-26,-17,-40
-36,4,43,11,-90,19,44,14,-10,-25,-15,-39
-22,5,31,5,-62,15,44,13,-10,-24,-15,-39
-24,1,26,9,-58,11,44,15,-8,-23,-15,-37
-27,-1,25,11,-60,9,45,16,-8,-23,-15,-37
-24,-4,16,12,-45,3,45,17,-9,-23,-15,-38
-18,-2,14,9,-38,4,45,17,-10,-24,-16,-38
-24,2,28,7,-58,12,43,17,-10,-23,-17,-42
-28,2,32,9,-68,14,43,17,-10,-24,-16,-41
-24,3,30,7,-62,13,42,16,-10,-24,-17,-41
-22,-8,7,14,-33,-3,44,17,-8,-22,-14,-39
-27,-4,19,13,-53,4,45,16,-9,-23,-15,-38
-27,-2,23,12,-58,7,44,17,-10,-24,-15,-40
-21,-0,20,9,-47,7,42,14,-11,-24,-16,-41
-26,-2,21,12,-55,6,44,16,-9,-23,-15,-40
-18,0,19,7,-43,7,43,18,-8,-22,-14,-41
-15,7,28,1,-48,15,44,17,-9,-24,-15,-43
-15,8,29,1,-50,16,42,17,-10,-23,-18,-43
-31,-4,23,15,-62,6,45,20,-8,-23,-17,-42
-30,-9,13,18,-48,-1,52,28,-3,-22,-18,-45
-30,-12,9,19,-43,-4,58,36,1,-22,-20,-50
-43,-15,16,26,-67,-4,63,43,6,-23,-26,-56
-48,-12,25,26,-83,1,69,47,12,-21,-27,-59
-47,-10,29,24,-87,4,70,52,19,-19,-28,-63
-40,-4,31,18,-82,9,74,64,32,-9,-20,-59
-22,8,37,3,-68,19,75,77,49,5,-13,-56
3,10,16,-7,-15,13,81,98,76,27,1,-49
3,16,26,-11,-27,21,93,121,110,51,16,-37
13,44,68,-33,-65,55,99,136,140,76,34,-23
50,84,104,-73,-65,94,101,149,175,111,69,9
87,129,148,-116,-75,140,102,149,198,149,110,50
105,175,212,-153,-128,193,99,129,209,184,154,94
162,220,237,-204,-93,232,81,99,207,220,204,145
234,263,245,-259,-20,263,49,59,202,262,265,215
294,293,241,-300,50,282,25,27,187,294,313,269
338,337,277,-345,58,324,-4,-7,175,326,358,321
388,375,296,-389,93,356,-55,-54,154,345,390,361
393,399,335,-407,53,386,-105,-108,112,338,397,379
399,412,352,-417,40,401,-147,-153,61,312,389,387
407,418,356,-424,45,406,-186,-184,15,278,377,390
393,403,341,-409,47,391,-220,-207,-26,236,350,379
349,385,352,-381,-17,383,-245,-240,-87,164,304,353
325,332,281,-337,38,322,-259,-256,-150,86,246,316
274,281,238,-285,32,273,-256,-256,-191,25,193,270
197,232,225,-225,-40,236,-234,-251,-227,-34,138,223
153,185,184,-177,-42,190,-213,-233,-240,-76,92,177
126,146,141,-142,-22,148,-188,-201,-222,-89,57,134
109,93,63,-101,50,85,-160,-167,-204,-97,26,95
86,59,24,-69,70,48,-130,-138,-183,-98,6,61
61,53,37,-56,25,49,-106,-117,-161,-94,-7,34
38,52,57,-48,-23,56,-83,-98,-140,-89,-16,13
16,44,64,-35,-57,53,-65,-83,-124,-85,-26,-2
13,42,64,-32,-60,52,-54,-73,-111,-83,-33,-19
-4,30,59,-18,-72,42,-38,-58,-95,-77,-35,-28
-20,18,53,-4,-83,32,-24,-43,-80,-71,-38,-34
-27,16,55,0,-95,30,-13,-34,-69,-65,-39,-40
-28,17,59,-1,-100,33,-4,-26,-60,-62,-39,-45
-34,12,55,5,-102,28,3,-19,-55,-58,-39,-51
-41,3,46,13,-100,19,11,-12,-48,-53,-37,-51
-31,-6,19,16,-58,3,18,-5,-40,-47,-32,-52
-27,-12,6,18,-37,-5,26,4,-31,-41,-27,-50
-16,-11,-4,14,-15,-8,29,8,-28,-38,-26,-50
-21,-10,2,15,-27,-6,30,11,-25,-38,-27,-51
-15,-6,5,10,-23,-2,29,9,-24,-37,-28,-52
-24,-12,4,17,-32,-6,31,12,-22,-37,-30,-49
-28,-22,-12,26,-18,-19,31,13,-21,-37,-31,-50
-30,-17,0,23,-35,-11,31,13,-21,-39,-34,-56
-36,-14,11,22,-53,-5,32,13,-21,-39,-35,-59
-45,-19,11,29,-63,-8,33,13,-22,-38,-35,-62
-33,-24,-11,29,-25,-20,36,16,-20,-34,-30,-56
-27,-23,-14,26,-13,-20,37,16,-21,-35,-31,-58
-32,-24,-11,28,-23,-19,36,18,-18,-33,-29,-57
-26,-22,-14,25,-13,-20,36,17,-18,-33,-29,-56
-24,-23,-18,24,-7,-22,36,18,-17,-34,-29,-56
-24,-24,-20,26,-3,-23,35,18,-15,-32,-29,-54
-28,-20,-9,24,-22,-16,37,19,-14,-32,-30,-57
-32,-20,-4,25,-32,-14,36,19,-14,-33,-30,-57
-37,-28,-14,33,-25,-24,36,20,-15,-33,-31,-59
-38,-27,-11,32,-32,-22,37,19,-16,-34,-33,-62
-27,-16,-1,21,-28,-11,36,19,-16,-35,-33,-65
-21,-8,7,13,-32,-2,33,18,-18,-35,-33,-66
-22,-18,-9,20,-15,-15,35,20,-16,-33,-30,-59
-19,-15,-7,18,-13,-12,36,20,-15,-31,-29,-59
-19,-17,-11,19,-10,-15,35,20,-16,-33,-30,-56
-27,-27,-21,29,-7,-26,36,21,-14,-31,-29,-53
-33,-37,-34,37,2,-37,38,24,-12,-31,-28,-54
-30,-30,-25,31,-5,-29,37,22,-13,-31,-30,-56
-30,-30,-25,31,-5,-29,38,22,-12,-31,-31,-57
-33,-30,-20,32,-15,-27,37,23,-14,-31,-31,-57
-23,-25,-21,26,-2,-24,37,22,-15,-32,-30,-57
-28,-22,-12,26,-18,-19,36,22,-16,-34,-32,-58
-27,-25,-18,27,-10,-23,38,23,-14,-31,-29,-55
-24,-24,-18,25,-7,-22,38,22,-14,-32,-29,-55
-22,-24,-20,24,-2,-23,37,21,-15,-31,-31,-57
-28,-22,-11,25,-20,-18,37,21,-14,-32,-31,-57
-36,-22,-4,28,-37,-15,36,19,-15,-33,-33,-59
-36,-21,-2,27,-38,-14,36,19,-15,-33,-34,-60
-39,-38,-30,40,-10,-36,37,20,-14,-31,-29,-55
-38,-43,-39,43,2,-43,41,22,-12,-30,-30,-57
-38,-40,-34,40,-3,-38,39,23,-14,-29,-31,-57
-28,-36,-36,35,10,-36,40,22,-14,-30,-30,-57
-32,-32,-26,34,-5,-31,40,23,-14,-29,-32,-58
-26,-26,-20,27,-7,-24,40,22,-15,-29,-31,-59
-26,-20,-11,23,-17,-17,40,21,-14,-28,-30,-56
-24,-30,-31,29,8,-31,40,22,-13,-28,-30,-55
-32,-30,-23,32,-10,-28,42,24,-11,-27,-30,-55
-28,-28,-23,30,-5,-27,40,21,-13,-29,-30,-57
-33,-31,-24,33,-10,-29,40,22,-13,-27,-31,-58
-33,-32,-24,34,-10,-29,40,22,-14,-28,-31,-58
-28,-32,-30,32,3,-32,40,22,-14,-28,-32,-59
-26,-32,-31,31,7,-32,39,23,-15,-28,-30,-58
-34,-34,-26,35,-8,-32,41,23,-14,-27,-29,-59
-27,-29,-25,30,-2,-28,40,22,-15,-29,-31,-61
-24,-24,-19,26,-5,-23,40,21,-14,-30,-32,-62
-33,-28,-18,31,-17,-25,40,21,-14,-29,-32,-63
-24,-26,-21,27,-3,-25,38,21,-13,-29,-31,-59
-30,-27,-19,29,-12,-25,39,22,-14,-29,-31,-63
-34,-25,-11,29,-27,-20,37,21,-15,-30,-33,-65
-37,-24,-6,30,-35,-17,37,21,-16,-29,-32,-64
-33,-26,-14,30,-22,-23,40,23,-13,-28,-31,-64
-28,-28,-21,29,-7,-26,40,23,-13,-29,-32,-63
-31,-31,-25,32,-7,-29,39,24,-13,-28,-30,-63
-24,-32,-32,30,10,-33,40,24,-13,-27,-28,-62
-18,-28,-31,26,15,-29,40,24,-14,-29,-29,-64
-27,-27,-21,29,-7,-26,38,24,-13,-29,-29,-64
-30,-30,-23,31,-8,-28,38,24,-13,-29,-30,-63
-18,-26,-29,25,12,-28,38,25,-13,-29,-29,-62
-22,-24,-21,25,0,-24,38,24,-13,-30,-30,-63
-26,-26,-21,28,-5,-25,37,24,-14,-29,-29,-64
-18,-24,-24,23,7,-24,37,26,-12,-29,-30,-62
-20,-25,-25,24,7,-26,37,26,-13,-29,-30,-63
-24,-31,-32,30,10,-32,40,27,-10,-27,-27,-59
-18,-26,-29,25,12,-28,38,27,-11,-29,-29,-61
-11,-22,-29,20,20,-25,38,27,-11,-28,-29,-60
-15,-25,-30,23,18,-27,37,28,-11,-28,-29,-57
-21,-28,-30,27,12,-29,36,28,-10,-28,-28,-56
-7,-22,-31,18,27,-25,37,28,-11,-29,-29,-59
-17,-18,-14,19,-3,-17,35,28,-12,-29,-29,-57
-21,-31,-34,29,15,-33,35,29,-10,-28,-28,-56
-18,-25,-26,24,10,-26,35,30,-10,-27,-28,-56
-13,-24,-29,21,18,-26,35,31,-9,-27,-29,-54
-18,-20,-18,21,0,-20,34,32,-10,-28,-27,-55
-10,-20,-26,18,20,-23,33,31,-9,-26,-26,-53
-4,-18,-29,14,28,-23,33,32,-8,-25,-25,-50
-9,-23,-32,19,27,-27,34,34,-7,-24,-22,-49
-4,-20,-32,15,33,-25,34,34,-6,-24,-23,-50
4,-16,-32,10,42,-22,34,34,-7,-23,-23,-49
2,-19,-36,13,43,-25,32,34,-6,-22,-22,-49
-7,-17,-24,14,20,-20,32,35,-6,-20,-20,-46
2,-10,-20,7,25,-14,31,34,-7,-22,-23,-49
6,-4,-13,2,22,-7,27,34,-8,-23,-22,-49
1,-6,-12,4,15,-8,27,35,-7,-22,-21,-47
13,0,-11,-4,27,-3,26,33,-7,-22,-22,-47
13,-2,-16,-2,33,-7,27,36,-6,-21,-19,-42
10,-9,-25,3,40,-15,26,36,-6,-19,-16,-40
13,-10,-29,3,47,-16,26,39,-3,-17,-13,-35
17,-2,-20,-4,42,-8,26,38,-4,-16,-13,-37
13,-5,-20,-1,37,-10,27,38,-2,-14,-9,-31
9,0,-7,-3,18,-2,25,38,-2,-13,-8,-30
20,-2,-21,-5,47,-8,24,39,-2,-13,-4,-27
31,-2,-34,-9,73,-14,24,40,0,-11,-2,-24
27,-1,-26,-8,60,-10,24,39,-1,-10,-2,-23
35,11,-13,-19,55,3,21,39,-0,-10,1,-22
38,11,-16,-20,62,2,21,39,0,-8,3,-20
33,14,-5,-20,43,8,19,39,-1,-8,3,-18
35,19,1,-24,38,14,18,38,-2,-8,4,-18
42,29,12,-34,33,24,15,36,-3,-8,4,-15
38,22,4,-28,40,16,16,37,-1,-5,8,-12
37,22,4,-27,38,16,15,37,-1,-3,12,-8
44,16,-13,-26,65,6,16,38,0,-2,15,-6
55,31,4,-39,58,22,14,37,-0,-2,14,-8
49,34,14,-39,38,28,13,35,-0,-1,15,-4
53,35,12,-42,47,28,11,34,-3,-2,14,-5
55,40,20,-46,38,34,10,34,-2,-0,16,-2
46,38,25,-41,23,35,9,34,-1,1,19,0
50,44,31,-47,20,41,10,35,-2,0,18,4
56,48,32,-51,27,44,8,31,-4,0,19,2
53,46,32,-49,23,43,8,32,-3,2,24,9
56,50,36,-53,22,46,6,31,-3,3,25,11
63,55,39,-59,27,51,6,30,-4,3,25,12
68,55,34,-60,38,49,4,29,-5,3,27,11
59,58,48,-59,12,56,4,28,-3,5,29,13
65,60,46,-63,20,57,2,27,-3,5,29,14
67,62,48,-64,20,59,3,27,-5,7,31,15
61,58,46,-60,17,56,4,28,-2,8,33,18
55,61,57,-60,-3,62,2,28,-3,9,33,20
67,69,60,-69,5,68,0,25,-3,9,33,20
72,69,55,-71,17,66,0,26,-3,9,33,21
65,58,42,-61,25,54,1,26,-2,11,33,22
73,70,55,-72,18,67,0,25,-2,10,32,20
72,72,60,-73,12,70,-0,25,-2,11,33,21
67,66,55,-67,12,64,1,28,-1,11,34,20
67,64,52,-66,15,62,2,28,0,12,33,18
62,63,54,-63,8,62,2,29,0,11,30,18
58,55,43,-57,17,53,4,29,2,14,33,18
54,58,53,-58,0,58,5,29,1,12,31,17
70,64,48,-67,23,60,5,27,2,12,30,14
58,60,52,-60,5,58,6,27,3,13,29,13
50,54,50,-53,-2,55,8,28,3,12,30,12
55,59,54,-58,0,59,9,27,3,12,28,6
52,52,44,-53,7,51,10,27,5,12,27,5
46,50,46,-49,-2,50,13,29,6,11,24,4
38,52,57,-48,-23,56,11,28,4,11,20,-2
42,51,52,-48,-12,53,14,29,5,12,20,-2
36,40,37,-38,-3,40,14,30,7,11,20,-3
30,36,37,-34,-10,38,17,30,8,11,20,-4
36,44,44,-41,-12,45,17,29,7,11,16,-7
30,42,48,-38,-22,46,17,28,7,9,15,-8
26,36,41,-32,-18,39,18,28,7,9,13,-12
24,41,52,-35,-33,46,19,27,9,9,11,-13
26,37,42,-33,-20,40,20,28,9,8,10,-14
16,40,57,-31,-47,47,18,26,6,8,8,-18
22,24,23,-23,-2,25,21,29,10,9,10,-16
16,30,39,-25,-27,35,23,29,10,8,6,-19
6,38,64,-27,-67,49,20,24,6,4,2,-28
10,46,74,-34,-75,58,19,24,6,3,0,-28
10,26,39,-20,-33,32,21,26,8,7,4,-21
7,15,21,-12,-17,18,24,27,10,7,5,-21
5,21,34,-15,-33,27,24,25,9,4,4,-24
7,23,36,-17,-33,29,24,26,9,6,4,-26
10,24,35,-19,-30,29,24,24,9,4,3,-27
4,16,26,-11,-27,21,24,24,9,4,3,-25
-2,12,25,-6,-32,17,24,27,9,4,2,-28
2,20,34,-13,-37,26,23,25,7,4,0,-30
-5,18,39,-10,-50,26,21,25,7,4,0,-30
2,18,30,-12,-32,23,21,24,7,4,0,-28
7,20,30,-15,-27,25,22,24,8,4,1,-29
5,16,25,-12,-23,21,22,23,8,5,2,-28
1,15,26,-10,-28,20,20,22,5,3,0,-31
5,16,25,-12,-23,21,21,21,6,2,-0,-31
4,20,34,-14,-35,26,18,19,4,1,-1,-33
-7,14,32,-5,-45,21,19,20,5,2,-0,-32
-8,15,36,-6,-50,23,18,19,4,-0,-3,-34
-1,14,28,-8,-33,20,18,20,4,1,-2,-32
-4,8,19,-3,-27,13,19,21,5,2,0,-33
-6,12,29,-5,-40,19,20,21,5,0,-1,-32
-1,15,29,-9,-33,21,19,20,3,1,0,-30
-2,9,19,-4,-25,13,21,20,5,2,1,-30
-6,7,19,-2,-28,12,20,20,5,1,0,-31
-4,14,30,-7,-38,21,19,19,4,1,0,-30
-2,15,30,-9,-37,21,18,18,3,1,-1,-33
-13,12,36,-3,-57,22,17,18,2,0,-2,-31
-4,13,29,-6,-38,19,17,17,2,-1,-4,-35
-12,13,36,-4,-55,22,17,18,1,-0,-3,-33
-6,15,34,-7,-45,23,18,18,2,-1,-3,-34
-11,16,41,-6,-60,26,17,18,1,-1,-4,-34
-2,14,29,-8,-35,20,16,18,1,-2,-4,-33
-6,14,32,-6,-43,22,16,18,2,-2,-4,-31
-6,4,14,0,-23,8,16,19,2,-3,-4,-32
-4,12,26,-6,-35,18,17,20,3,-1,-2,-29
0,12,23,-7,-27,17,17,19,2,-3,-3,-33
-13,10,32,-1,-52,19,17,18,2,-2,-1,-31
-10,5,19,1,-33,11,17,19,4,-0,-2,-29
-10,7,23,-1,-37,13,17,19,4,-1,-2,-30
-10,6,21,0,-35,12,17,19,5,-1,-2,-30
-11,10,30,-2,-47,18,16,20,3,-2,-4,-31
-4,15,32,-7,-42,22,14,17,3,-3,-6,-33
-4,15,32,-7,-42,22,15,18,3,-3,-2,-31
-6,12,29,-5,-40,19,14,19,4,-2,-2,-30
-6,12,29,-5,-40,19,14,18,6,-3,-1,-29
0,14,26,-9,-30,19,13,18,6,-2,-2,-31
-12,13,36,-4,-55,22,15,20,6,-1,-0,-28
-10,18,43,-8,-60,28,14,19,6,-1,-3,-33
-4,23,46,-13,-58,33,13,18,5,-1,-4,-33
0,18,34,-11,-38,25,14,19,8,1,-1,-28
-6,22,46,-12,-60,32,14,20,8,1,-4,-30
4,20,34,-14,-35,26,11,20,8,1,-2,-27
1,12,21,-8,-23,16,13,20,8,2,-1,-27
-2,15,30,-9,-37,21,14,21,9,3,-0,-26
1,16,29,-11,-32,22,13,20,9,2,-2,-28
1,16,29,-11,-32,22,13,20,10,4,0,-27
-7,14,34,-6,-47,22,14,22,12,5,2,-23
1,20,36,-13,-40,27,12,21,11,4,-0,-27
3,19,32,-13,-33,25,13,20,12,5,0,-27
-4,10,23,-5,-30,15,13,23,14,6,1,-26
-4,17,36,-9,-47,25,12,23,13,6,0,-25
-1,17,32,-10,-38,23,11,21,12,5,0,-27
-7,24,52,-13,-68,35,11,22,12,4,0,-27
-8,23,50,-12,-67,34,11,22,13,5,2,-25
-6,20,43,-11,-57,29,12,20,13,6,3,-25
4,10,16,-7,-13,13,13,23,15,9,7,-22
-2,14,29,-8,-35,20,13,23,14,8,4,-26
4,18,30,-13,-30,24,11,23,14,8,4,-28
-2,21,41,-12,-50,29,10,21,14,8,2,-28
-7,20,44,-10,-60,30,11,23,14,8,4,-27
1,14,25,-9,-27,19,11,23,16,9,4,-24
5,15,23,-11,-20,19,11,23,16,9,4,-23
1,15,26,-10,-28,20,11,22,15,9,2,-24
-4,17,36,-9,-47,25,10,22,15,8,2,-26
-2,22,43,-13,-52,30,10,21,14,8,2,-27
4,26,44,-18,-47,34,10,22,14,8,4,-25
0,28,52,-18,-60,38,9,21,13,8,2,-27
5,27,44,-19,-45,35,8,20,14,7,3,-27
9,27,41,-20,-37,33,7,20,14,9,2,-27
0,14,26,-9,-30,19,9,22,16,10,4,-25
9,18,25,-14,-18,22,9,23,16,10,4,-27
1,18,32,-12,-35,24,9,21,15,9,2,-27
4,24,41,-17,-43,32,8,20,14,8,2,-27
-6,18,39,-9,-52,27,9,21,15,9,3,-25
-4,21,43,-12,-55,30,8,21,15,8,2,-26
7,21,32,-15,-30,26,8,20,14,9,4,-24
-4,16,34,-9,-43,23,9,21,15,9,4,-27
-2,15,30,-9,-37,21,6,19,12,7,2,-28
9,21,30,-17,-25,25,6,18,12,7,-0,-29
9,21,30,-17,-25,25,7,20,14,8,1,-27
-2,24,46,-14,-57,33,6,19,13,7,-1,-27
7,26,41,-19,-38,33,6,18,12,7,0,-27
1,16,29,-11,-32,22,6,18,12,7,-0,-26
-4,12,26,-6,-35,18,6,18,13,8,2,-26
1,16,29,-11,-32,22,6,17,11,5,0,-26
11,16,19,-14,-10,18,6,18,11,5,1,-27
5,14,21,-11,-18,18,6,18,11,5,0,-26
7,15,21,-12,-17,18,5,18,10,4,-1,-30
16,22,25,-20,-10,24,4,16,10,4,-2,-29
0,16,30,-10,-35,22,6,17,12,5,-2,-27
-2,16,32,-9,-40,23,5,16,11,4,-2,-27
9,16,21,-13,-15,19,6,15,11,5,-2,-26
-2,15,30,-9,-37,21,5,14,10,3,-2,-28
-8,17,39,-7,-55,26,6,14,10,3,-2,-28
-1,17,32,-10,-38,23,5,14,9,3,-2,-27
-4,14,30,-7,-38,21,4,13,7,2,-4,-29
-13,17,44,-6,-67,28,4,14,8,3,-1,-27
-8,11,29,-4,-42,18,3,14,7,2,-3,-29
1,16,29,-11,-32,22,3,13,7,1,-5,-30
-4,17,36,-9,-47,25,3,13,7,1,-4,-28
-2,3,9,-1,-12,5,5,14,10,4,-2,-27
1,6,11,-4,-10,8,5,13,9,3,-4,-28
-4,9,21,-4,-30,14,4,13,8,3,-4,-26
-12,7,25,0,-42,14,4,13,8,3,-4,-27
0,12,23,-7,-27,17,2,10,7,1,-5,-29
1,14,25,-9,-27,19,2,9,6,1,-4,-28
-10,8,25,-1,-40,15,2,10,8,2,-4,-28
-6,9,23,-3,-33,15,1,11,7,0,-6,-31
-1,15,29,-9,-33,21,1,9,5,-1,-6,-32
-7,16,37,-7,-52,25,0,10,5,-1,-8,-34
-11,20,48,-9,-68,31,-1,7,5,-2,-8,-35
-8,7,21,-1,-33,13,0,8,5,1,-7,-28
-7,8,23,-2,-35,14,2,9,5,0,-7,-31
-11,12,34,-3,-52,21,-2,7,3,-1,-8,-30
-7,10,26,-3,-38,17,0,8,4,-1,-7,-30
-4,11,25,-5,-33,17,-1,7,4,0,-6,-28
-15,0,16,6,-35,6,2,11,7,1,-4,-27
-12,1,14,4,-30,6,2,10,7,0,-6,-28
-7,6,19,-1,-30,12,1,9,5,1,-6,-30
-10,7,23,-1,-37,13,-1,8,4,1,-7,-31
-10,0,11,4,-23,4,0,9,5,1,-6,-30
-4,12,26,-6,-35,18,1,7,5,0,-8,-32
-4,12,26,-6,-35,18,-1,5,5,0,-6,-31
-4,4,12,-1,-18,7,0,7,6,1,-6,-32
1,3,5,-2,-3,4,0,6,5,1,-6,-30
-1,7,14,-4,-17,10,-1,6,5,-0,-7,-33
-11,6,23,1,-38,13,-1,6,4,-0,-8,-34
-13,9,30,-1,-50,17,-3,6,3,-1,-7,-33
-8,5,18,0,-30,10,-1,6,4,0,-8,-34
-12,11,32,-2,-50,19,-1,5,4,1,-8,-31
-6,2,11,1,-18,6,-2,4,3,0,-8,-33
-6,6,18,-1,-27,11,-2,3,3,-0,-8,-33
-2,7,16,-3,-20,11,0,4,5,0,-8,-32
-13,6,25,1,-43,14,-2,2,3,-1,-9,-34
-4,11,25,-5,-33,17,-2,3,3,-2,-8,-34
-2,7,16,-3,-20,11,-2,5,5,-1,-6,-30
-10,5,19,1,-33,11,-2,6,6,0,-6,-28
-6,2,11,1,-18,6,-1,5,6,-0,-6,-30
-10,2,14,3,-27,7,-1,5,5,1,-7,-31
-8,5,18,0,-30,10,-1,4,4,-1,-7,-30
-12,7,25,0,-42,14,-2,3,5,-0,-8,-30
-8,7,21,-1,-33,13,-3,2,4,-1,-9,-34
-6,0,7,3,-15,3,-2,2,5,1,-6,-29
-20,-2,16,10,-42,4,0,4,6,1,-4,-28
-6,5,16,-1,-25,9,-4,2,3,-0,-9,-31
-10,9,26,-2,-42,16,-3,2,4,-0,-9,-34
-12,11,32,-2,-50,19,-4,3,3,-1,-10,-33
-12,13,36,-4,-55,22,-3,2,4,-2,-9,-34
-2,11,23,-6,-28,16,-4,1,3,-1,-10,-32
-4,6,16,-2,-22,10,-4,3,4,0,-7,-29
-7,4,16,1,-27,9,-3,3,4,-0,-7,-30
-4,8,19,-3,-27,13,-4,1,3,-0,-10,-31
-4,6,16,-2,-22,10,-4,0,2,-1,-9,-30
-13,10,32,-1,-52,19,-4,0,2,-1,-11,-31
-16,11,36,-1,-58,21,-4,0,2,-1,-11,-30
-11,6,23,1,-38,13,-5,0,2,-1,-9,-31
-12,1,14,4,-30,6,-4,1,3,-1,-8,-32
-13,5,23,2,-42,12,-4,1,2,-1,-8,-32
-2,12,25,-6,-32,17,-4,0,3,-2,-9,-34
-12,11,32,-2,-50,19,-6,0,2,-2,-8,-33
-13,8,29,0,-48,16,-4,0,2,-1,-10,-33
-10,7,23,-1,-37,13,-3,-1,2,-0,-8,-29
-10,6,21,0,-35,12,-3,-1,3,-0,-9,-31
-17,12,39,-1,-65,23,-6,-3,1,-1,-10,-32
-13,2,18,4,-35,8,-4,-3,3,1,-8,-30
-6,6,18,-1,-27,11,-6,-2,3,-0,-10,-32
-13,1,16,5,-33,7,-6,-3,3,-0,-10,-31
-12,1,14,4,-30,6,-4,-2,3,-1,-10,-34
-13,4,21,3,-40,11,-5,-4,1,-1,-11,-34
-7,6,19,-1,-30,12,-7,-5,1,-2,-12,-35
-7,6,19,-1,-30,12,-6,-4,1,-0,-10,-32
-2,10,21,-5,-27,15,-6,-4,1,-0,-9,-31
-2,9,19,-4,-25,13,-6,-5,1,-2,-10,-32
-12,11,32,-2,-50,19,-7,-4,1,-1,-10,-33
