I,II,III,aVR,aVL,aVF,V1,V2,V3,V4,V5,V6
6,-27,-25,8,16,-33,8,23,27,31,12,0
8,-27,-27,6,18,-34,8,23,27,31,11,-1
10,-27,-29,6,20,-36,8,23,27,31,11,-1
10,-27,-29,6,20,-36,8,23,27,31,11,-1
8,-27,-27,6,18,-34,8,23,27,31,12,-1
8,-27,-26,7,17,-34,8,23,27,31,12,-1
6,-27,-25,8,16,-33,9,23,27,31,13,0
8,-27,-26,7,17,-34,8,23,26,31,12,-1
8,-27,-26,7,17,-34,8,22,25,30,11,-2
8,-27,-26,7,17,-34,7,21,24,29,11,-2
8,-26,-26,6,18,-33,7,21,24,29,10,-2
8,-26,-26,6,18,-33,6,21,24,29,10,-2
7,-26,-25,7,16,-32,6,21,24,30,11,-2
6,-26,-24,8,15,-31,6,21,24,30,11,-2
5,-26,-22,8,14,-30,6,21,25,31,11,-2
5,-26,-22,8,14,-30,6,21,25,31,12,-2
4,-26,-21,9,13,-29,6,22,26,33,13,-1
3,-26,-20,10,11,-28,6,22,27,33,14,0
2,-26,-19,11,11,-28,6,23,28,34,15,1
3,-26,-20,10,11,-28,5,22,27,33,14,0
5,-24,-21,7,13,-28,4,22,27,33,13,0
7,-22,-22,5,15,-28,3,21,27,33,12,-1
8,-20,-22,3,16,-27,2,21,27,33,12,-1
7,-22,-22,5,15,-28,2,21,27,33,12,-1
6,-22,-21,6,14,-28,2,21,27,33,12,-1
5,-24,-21,7,13,-28,2,21,27,33,12,-1
4,-24,-20,8,12,-27,2,22,27,33,13,-1
5,-22,-20,7,12,-26,0,21,26,33,11,-2
6,-20,-20,5,13,-25,0,20,26,31,11,-4
7,-18,-20,4,14,-25,-0,19,25,31,10,-4
8,-16,-20,2,14,-23,-0,19,25,30,9,-6
8,-16,-19,3,13,-22,-0,18,25,30,9,-7
6,-16,-17,3,12,-22,-0,18,25,30,9,-7
5,-16,-16,4,11,-21,-0,18,25,30,9,-7
4,-16,-15,5,10,-19,-0,18,25,31,10,-7
4,-16,-15,5,10,-19,-0,18,25,31,11,-6
3,-16,-14,6,9,-19,-0,19,26,31,11,-4
2,-16,-13,6,7,-18,-0,19,27,33,12,-4
1,-16,-12,7,6,-17,-0,20,28,33,13,-2
3,-16,-14,6,9,-19,-0,20,28,33,13,-2
4,-16,-15,5,10,-19,-0,20,28,33,13,-2
5,-16,-16,4,11,-21,-0,20,28,33,13,-2
6,-16,-17,3,12,-22,-0,20,28,33,13,-2
5,-18,-17,5,11,-22,-0,20,28,33,13,-2
5,-18,-17,5,11,-22,-0,21,28,33,14,-1
4,-20,-17,6,11,-23,-0,21,28,34,15,0
4,-20,-17,6,11,-23,0,22,29,35,16,1
5,-20,-19,6,12,-25,-0,21,28,34,15,0
6,-20,-20,5,13,-25,-0,20,28,33,14,-1
8,-20,-21,4,15,-26,-0,19,28,33,13,-2
8,-20,-21,4,15,-26,-0,18,28,31,12,-2
8,-20,-21,4,15,-26,-1,18,28,31,12,-2
6,-20,-20,5,13,-25,-1,18,28,33,12,-2
6,-20,-20,5,13,-25,-1,18,28,33,12,-2
5,-20,-19,6,12,-25,-1,19,28,33,12,-2
4,-20,-17,6,11,-23,-1,20,29,34,13,-2
4,-18,-16,6,11,-22,-0,21,31,35,14,-1
3,-18,-15,7,9,-21,0,22,32,36,15,0
3,-16,-14,6,9,-19,2,23,33,38,16,1
4,-13,-13,3,9,-16,0,22,34,38,15,2
6,-7,-12,-1,9,-13,1,22,34,38,16,2
8,-4,-11,-3,10,-10,0,22,34,38,15,1
10,2,-9,-7,10,-6,1,22,35,39,16,2
8,4,-7,-6,8,-3,0,22,36,40,17,4
8,7,-4,-8,7,1,0,23,37,42,19,4
8,10,-2,-8,5,4,1,23,38,44,20,5
7,13,1,-10,3,8,2,24,40,45,23,8
8,17,3,-11,3,11,1,23,39,45,21,7
10,22,4,-15,4,14,-0,22,39,45,21,8
12,27,5,-19,4,18,-1,22,38,45,21,7
13,33,8,-22,3,23,-2,21,38,45,21,8
14,33,7,-23,4,22,-2,21,39,46,21,9
14,33,6,-24,5,22,-2,22,40,46,22,9
14,33,7,-23,4,22,-3,23,40,47,23,11
14,33,7,-23,4,22,-3,23,42,49,24,12
15,33,5,-24,6,21,-5,23,42,50,25,13
15,33,5,-24,6,21,-6,23,42,51,26,15
15,33,5,-24,6,21,-7,23,42,52,27,16
16,35,5,-26,6,22,-8,23,43,53,28,18
18,35,3,-27,9,20,-10,22,42,52,28,18
22,37,0,-31,12,19,-12,21,42,52,28,18
25,39,-2,-34,15,19,-13,19,42,51,28,18
27,41,-3,-36,16,19,-15,18,42,51,28,19
27,41,-3,-36,16,19,-17,17,41,50,29,20
28,43,-3,-38,17,19,-17,17,40,50,29,21
28,42,-3,-37,17,19,-18,16,39,50,30,22
28,44,-2,-38,17,21,-18,16,38,50,31,23
30,43,-4,-39,19,19,-18,14,36,48,29,22
32,43,-7,-40,21,16,-17,14,35,46,28,21
34,43,-9,-42,23,15,-17,13,34,45,27,20
35,42,-11,-42,24,13,-17,12,33,44,27,20
33,38,-11,-39,23,11,-15,11,32,43,26,19
31,35,-11,-36,23,10,-14,11,31,42,25,18
28,32,-10,-33,21,8,-13,11,30,41,24,17
28,30,-11,-31,21,7,-11,11,29,40,24,17
24,24,-10,-27,18,4,-9,11,28,39,22,15
20,20,-9,-22,16,3,-7,11,28,38,21,13
19,17,-9,-20,15,1,-5,11,28,37,20,13
15,13,-8,-15,12,0,-2,12,28,36,19,12
14,10,-9,-13,12,-2,-2,11,27,33,16,9
14,7,-10,-12,13,-4,-2,10,26,31,14,7
13,4,-12,-10,13,-7,-0,10,25,28,11,3
12,2,-12,-8,12,-7,1,9,24,27,10,2
9,-5,-13,-3,11,-13,3,9,23,25,8,-0
6,-11,-14,1,11,-16,5,9,22,24,7,-2
3,-18,-15,7,9,-21,6,10,22,23,5,-3
0,-24,-16,11,9,-25,8,10,22,22,4,-4
2,-28,-20,11,11,-30,8,10,21,20,3,-6
2,-31,-23,13,12,-33,9,9,20,18,1,-8
3,-35,-26,14,14,-37,9,8,19,16,-1,-10
4,-37,-28,14,16,-40,10,8,19,15,-2,-11
3,-41,-29,17,16,-43,11,8,18,15,-3,-12
0,-44,-29,20,15,-45,12,9,18,15,-3,-12
-1,-48,-30,22,14,-48,13,9,18,15,-4,-13
-3,-49,-29,24,13,-48,14,10,18,15,-4,-13
3,-47,-34,19,19,-50,12,7,16,12,-6,-15
8,-47,-39,15,24,-54,10,6,15,10,-9,-17
14,-44,-44,10,29,-56,8,3,13,7,-12,-19
20,-41,-49,4,35,-58,7,2,13,5,-13,-20
8,-49,-42,16,25,-57,11,6,17,9,-10,-18
-4,-59,-34,29,15,-57,15,10,23,13,-5,-15
-16,-68,-27,41,5,-55,18,14,28,16,-2,-12
-29,-76,-18,54,-6,-53,23,18,33,21,2,-9
-12,-61,-27,36,7,-52,18,13,31,23,1,-6
-18,-74,-29,46,4,-60,23,17,36,21,1,-10
-35,-86,-19,63,-9,-58,23,18,36,27,4,-4
24,-38,-51,0,38,-59,6,-2,11,4,-18,-26
19,-48,-52,8,36,-64,9,1,17,6,-15,-22
13,-55,-50,15,32,-66,13,4,18,4,-17,-22
23,-38,-50,1,37,-58,8,1,15,7,-12,-19
33,-31,-56,-9,45,-59,6,0,12,0,-17,-25
-30,-81,-21,57,-6,-57,24,19,35,24,2,-6
-25,-75,-22,51,-2,-55,21,16,27,21,0,-9
-17,-59,-20,39,0,-45,20,11,21,16,-3,-13
-21,-66,-20,45,-1,-49,23,13,26,15,-4,-11
-28,-65,-12,49,-10,-42,29,14,33,28,4,-2
18,-7,-25,-9,22,-22,5,-8,8,7,-14,-21
13,-20,-28,0,21,-31,6,-11,9,12,-5,-13
-3,-30,-16,15,7,-28,7,-15,6,9,-3,-11
2,21,12,-9,-4,19,-11,-32,-9,8,6,2
34,63,4,-50,17,35,-16,-39,-19,9,17,15
-8,18,21,-1,-15,25,3,-12,10,49,57,58
12,24,3,-17,5,14,-0,4,32,70,84,85
69,59,-37,-74,56,1,-5,24,62,101,121,129
114,83,-70,-116,96,-12,-18,25,63,127,165,180
136,92,-88,-136,117,-21,-36,17,65,149,204,231
220,157,-137,-225,187,-26,-75,-14,38,138,214,253
259,196,-154,-270,216,-20,-99,-26,32,157,250,305
276,249,-137,-304,217,20,-126,-59,-1,148,268,338
299,321,-116,-353,219,73,-164,-95,-19,162,301,383
313,382,-91,-389,215,122,-174,-123,-38,166,317,404
224,362,-8,-316,125,177,-148,-129,-39,188,336,424
169,327,29,-262,77,188,-135,-157,-79,165,306,393
131,308,59,-226,42,200,-135,-196,-126,123,270,362
84,325,121,-200,-14,257,-149,-246,-186,67,219,315
28,347,197,-168,-82,327,-157,-275,-220,39,185,285
25,362,209,-173,-90,344,-169,-317,-282,-48,104,206
-34,312,241,-109,-137,343,-158,-335,-338,-138,18,127
-61,273,246,-73,-154,327,-157,-352,-380,-200,-45,62
-70,216,218,-42,-146,277,-154,-346,-384,-230,-92,3
-61,146,162,-18,-113,199,-143,-326,-378,-260,-129,-39
-118,69,174,56,-149,168,-106,-282,-342,-254,-130,-49
-119,30,149,74,-138,130,-88,-260,-332,-266,-144,-71
-109,11,126,75,-121,103,-72,-234,-307,-256,-137,-71
-97,7,110,67,-106,89,-51,-196,-253,-219,-121,-63
-96,-15,95,76,-99,66,-41,-157,-197,-173,-97,-49
-28,1,32,20,-31,25,-34,-128,-158,-150,-97,-60
-23,-5,21,19,-23,13,-19,-88,-115,-110,-77,-47
-24,-10,20,22,-23,10,-10,-66,-87,-88,-65,-41
-11,-1,11,10,-11,7,-10,-59,-70,-67,-54,-32
12,15,-3,-13,8,5,-8,-53,-65,-61,-50,-32
-41,-35,22,45,-33,-1,15,-23,-24,-24,-23,-8
-37,-30,21,40,-30,1,19,-18,-16,-20,-19,-10
-26,15,38,13,-33,37,18,-21,-21,-24,-23,-15
-34,2,38,24,-37,31,28,-10,-13,-21,-19,-13
-52,-35,34,54,-45,9,38,1,4,-9,-13,-9
0,13,8,-4,-3,12,21,-16,-11,-31,-35,-34
-9,-30,-9,20,-0,-22,26,-7,-0,-21,-32,-28
-9,-27,-8,19,-0,-20,32,2,4,-16,-31,-31
-0,-21,-13,10,6,-21,27,1,6,-11,-29,-31
16,2,-15,-11,16,-10,23,-2,1,-17,-34,-38
-33,-42,9,43,-22,-15,41,18,22,9,-11,-18
-33,-42,9,43,-22,-15,39,17,21,3,-11,-18
-26,-26,11,31,-19,-4,34,10,17,2,-12,-20
-36,-37,15,43,-27,-7,39,12,22,-2,-16,-28
-55,-46,29,60,-44,-1,40,15,22,6,-8,-17
5,-24,-21,7,13,-28,30,3,12,-9,-20,-29
-5,-41,-21,22,8,-37,35,7,22,-5,-21,-27
-9,-42,-18,26,4,-35,37,11,30,-2,-24,-29
9,-13,-19,0,14,-21,32,13,31,2,-17,-23
23,0,-25,-15,24,-19,29,9,20,-3,-23,-29
11,-11,-19,-2,15,-20,33,12,23,1,-18,-25
-1,-20,-12,10,5,-19,37,15,26,6,-13,-20
-15,-32,-4,26,-6,-19,41,18,30,10,-8,-16
-27,-41,3,38,-16,-19,46,23,34,15,-3,-11
-21,-37,-1,32,-11,-19,43,20,31,12,-6,-14
-16,-31,-3,26,-7,-19,41,18,31,9,-9,-16
-9,-26,-7,18,-1,-19,39,16,29,6,-12,-18
-4,-21,-9,13,2,-18,37,15,28,4,-14,-20
-5,-22,-9,14,2,-19,37,15,29,4,-13,-19
-6,-22,-8,15,1,-18,37,15,30,5,-13,-18
-7,-24,-8,17,0,-19,37,16,31,6,-12,-17
-8,-24,-7,17,-1,-18,37,17,32,7,-11,-16
-9,-24,-6,17,-2,-16,37,17,32,7,-11,-16
-11,-24,-3,19,-4,-15,37,17,32,8,-10,-15
-13,-24,-2,20,-6,-14,37,18,32,9,-9,-15
-14,-22,0,20,-8,-11,38,19,32,10,-8,-14
-11,-20,-1,17,-5,-11,37,18,32,9,-10,-15
-11,-18,-0,17,-5,-10,36,18,31,8,-11,-16
-10,-17,-0,15,-5,-9,35,17,31,7,-12,-17
-7,-13,-1,11,-3,-7,35,18,31,7,-13,-17
-8,-13,0,12,-4,-6,35,19,31,7,-12,-17
-8,-11,1,11,-5,-4,35,19,31,7,-12,-17
-9,-11,3,12,-6,-4,35,20,32,7,-12,-17
-9,-9,4,11,-7,-1,35,21,32,8,-12,-16
-10,-11,4,13,-7,-3,35,22,33,8,-12,-16
-10,-11,4,13,-7,-3,35,22,34,9,-11,-15
-12,-13,4,15,-8,-4,35,23,35,10,-10,-14
-12,-13,5,15,-9,-2,36,24,36,11,-9,-13
-12,-13,4,15,-9,-4,35,24,36,10,-9,-13
-10,-11,4,13,-7,-3,34,24,36,10,-9,-13
-10,-11,4,13,-7,-3,33,24,36,9,-9,-13
-9,-10,4,11,-7,-2,32,24,36,9,-9,-13
-10,-11,4,13,-7,-3,32,25,36,9,-9,-13
-13,-13,5,16,-10,-3,32,26,37,10,-8,-12
-15,-15,7,18,-11,-2,32,27,37,10,-8,-12
-16,-15,8,18,-12,-1,33,27,38,11,-8,-11
-14,-11,8,15,-11,0,32,27,37,10,-8,-11
-12,-7,9,13,-11,3,32,27,37,10,-8,-11
-12,-4,10,11,-11,6,32,27,37,9,-8,-11
-10,1,12,7,-11,10,32,27,37,9,-8,-11
-10,2,13,7,-11,10,32,27,37,9,-8,-10
-11,4,14,7,-12,13,32,28,38,10,-8,-9
-12,4,15,8,-13,13,32,29,38,10,-6,-8
-13,5,17,8,-15,16,33,30,39,11,-6,-7
-14,6,19,8,-16,17,34,31,40,11,-5,-6
-14,7,20,8,-17,19,35,31,40,12,-4,-4
-14,9,21,7,-17,20,36,32,42,13,-3,-4
-14,11,22,6,-18,22,37,34,42,14,-2,-3
-14,11,22,6,-18,22,36,33,42,12,-4,-4
-14,11,22,6,-18,22,36,33,42,11,-5,-5
-14,11,22,6,-18,22,36,32,40,9,-5,-6
-14,13,24,6,-19,25,36,32,41,8,-6,-6
-15,13,25,6,-20,25,37,33,40,7,-8,-7
-17,13,27,7,-22,28,38,35,42,7,-8,-8
-18,13,28,8,-23,28,39,36,42,7,-8,-9
-20,15,31,8,-25,31,41,37,43,7,-8,-9
-18,17,31,6,-25,32,41,36,42,6,-10,-11
-17,18,30,5,-24,33,42,37,41,4,-11,-12
-16,21,31,3,-23,34,43,36,40,4,-13,-13
-16,22,32,3,-24,36,44,36,40,3,-13,-14
-17,22,33,3,-25,37,45,37,40,2,-14,-15
-20,22,36,5,-28,39,46,37,40,1,-14,-15
-21,22,38,6,-30,40,47,38,40,-0,-14,-15
-23,24,41,7,-32,43,48,39,40,0,-14,-15
-24,24,42,8,-33,44,49,39,39,-1,-14,-15
-25,24,43,8,-34,45,51,40,38,-1,-14,-14
-26,24,44,9,-35,46,52,39,37,-1,-14,-13
-27,26,46,9,-37,48,54,40,37,-1,-14,-12
-27,28,47,8,-37,51,53,39,34,-4,-16,-13
-26,31,49,6,-38,53,53,39,32,-6,-17,-13
-26,33,50,5,-39,55,53,38,31,-7,-17,-13
-25,37,51,3,-38,58,53,37,29,-10,-18,-13
-26,39,54,3,-40,61,53,36,26,-12,-19,-14
-28,41,57,3,-43,64,54,36,24,-14,-20,-14
-30,42,60,4,-45,67,55,36,23,-16,-21,-14
-31,44,63,4,-48,71,56,36,21,-18,-22,-14
-32,46,65,4,-49,73,55,33,16,-22,-24,-16
-32,48,67,3,-50,75,54,31,12,-26,-27,-17
-33,50,69,3,-52,78,53,28,8,-30,-29,-19
-33,54,72,1,-53,82,53,26,4,-34,-31,-20
-35,53,73,3,-55,83,52,24,1,-37,-33,-21
-37,54,75,4,-57,85,52,22,-3,-41,-34,-21
-39,53,77,6,-58,86,52,19,-7,-45,-36,-22
-39,55,79,5,-60,89,52,18,-9,-49,-38,-22
-41,54,80,7,-62,89,51,15,-15,-53,-40,-23
-44,52,82,10,-64,89,51,12,-19,-57,-41,-23
-46,50,83,12,-65,89,50,9,-25,-62,-43,-23
-49,48,85,15,-68,89,50,6,-30,-65,-44,-23
-48,49,85,14,-68,90,47,2,-36,-71,-46,-25
-47,52,85,12,-67,92,46,-2,-42,-77,-49,-26
-46,54,85,10,-67,92,44,-7,-48,-82,-52,-27
-46,55,86,10,-67,94,42,-11,-54,-87,-54,-28
-48,54,88,12,-69,95,39,-16,-60,-92,-57,-29
-50,54,90,13,-71,96,37,-20,-67,-96,-58,-30
-54,52,92,17,-74,97,35,-24,-73,-101,-61,-31
-56,52,95,18,-77,99,33,-28,-78,-105,-62,-32
-54,54,94,16,-75,99,30,-34,-85,-110,-65,-33
-52,55,93,15,-74,100,26,-39,-91,-114,-67,-34
-51,57,93,13,-74,101,22,-45,-98,-119,-69,-35
-51,59,94,11,-73,102,19,-51,-104,-123,-70,-35
-51,57,92,13,-73,100,16,-56,-110,-127,-72,-35
-51,55,92,14,-73,99,12,-60,-115,-130,-73,-35
-52,54,92,15,-74,98,8,-65,-121,-133,-74,-35
-52,54,92,15,-74,98,5,-69,-125,-136,-75,-35
-53,49,90,17,-73,94,2,-72,-128,-136,-75,-34
-51,48,88,17,-71,92,-0,-75,-130,-137,-74,-33
-51,44,85,18,-69,88,-3,-78,-133,-138,-73,-32
-50,43,83,18,-68,85,-5,-81,-136,-138,-72,-31
-47,41,78,17,-64,80,-9,-83,-137,-138,-71,-31
-44,39,74,16,-60,77,-12,-86,-138,-137,-70,-31
-41,37,69,15,-56,72,-15,-88,-138,-137,-69,-31
-38,37,66,12,-53,69,-18,-90,-140,-136,-69,-30
-37,32,61,13,-50,63,-19,-88,-136,-133,-66,-29
-36,28,58,15,-47,58,-19,-86,-132,-128,-63,-27
-35,24,54,16,-45,53,-20,-85,-129,-123,-60,-25
-34,20,50,17,-43,48,-20,-82,-125,-119,-57,-23
-30,18,45,15,-38,44,-21,-81,-120,-114,-55,-23
-28,17,42,13,-35,40,-22,-79,-116,-110,-52,-22
-26,15,38,13,-32,37,-23,-76,-112,-105,-51,-22
-23,15,34,11,-29,34,-23,-73,-106,-99,-48,-21
-22,11,31,11,-27,29,-22,-69,-98,-93,-45,-20
-20,9,27,11,-23,25,-20,-65,-91,-86,-42,-19
-18,6,24,11,-21,21,-19,-61,-84,-80,-39,-18
-16,4,20,11,-18,17,-17,-56,-77,-73,-35,-16
-16,0,17,12,-17,13,-17,-52,-70,-68,-33,-16
-15,-2,15,13,-15,10,-15,-48,-64,-62,-30,-15
-15,-5,13,13,-14,7,-12,-44,-58,-56,-28,-14
-14,-7,10,14,-12,4,-11,-39,-51,-50,-24,-13
-12,-9,7,13,-10,1,-11,-37,-47,-46,-23,-13
-9,-9,4,11,-7,-1,-10,-33,-41,-41,-21,-12
-6,-9,0,9,-3,-4,-9,-31,-36,-37,-19,-12
-4,-9,-2,7,-1,-6,-8,-27,-31,-33,-17,-11
-5,-13,-3,10,-1,-10,-7,-25,-27,-29,-16,-11
-8,-17,-3,13,-2,-11,-6,-22,-22,-25,-14,-10
-8,-21,-4,16,-2,-14,-5,-19,-17,-21,-13,-10
-9,-22,-4,17,-3,-15,-3,-15,-13,-18,-11,-9
-7,-22,-7,15,-0,-16,-3,-14,-10,-16,-10,-9
-4,-20,-8,13,2,-16,-2,-12,-8,-13,-8,-8
-4,-20,-9,12,3,-17,-2,-11,-5,-10,-8,-7
-1,-18,-11,10,5,-18,-2,-9,-2,-8,-5,-6
-3,-21,-10,12,3,-19,-1,-7,0,-7,-5,-6
-2,-20,-11,11,4,-19,-0,-6,3,-5,-4,-6
-4,-22,-11,13,3,-19,1,-4,5,-3,-3,-6
-4,-22,-10,13,3,-19,2,-3,8,-1,-2,-5
-5,-22,-9,14,2,-19,2,-2,9,-0,-2,-4
-5,-20,-8,13,1,-16,2,-1,11,1,-1,-5
-6,-20,-7,13,0,-16,2,0,12,3,-1,-4
-7,-18,-4,14,-1,-13,3,2,13,4,-1,-4
-7,-20,-5,15,-1,-14,3,2,13,4,-1,-6
-6,-20,-7,13,0,-16,3,2,13,4,-1,-6
-6,-22,-8,15,0,-17,3,2,13,4,-1,-7
-5,-22,-9,14,2,-19,3,2,14,4,-1,-7
-6,-24,-9,15,1,-19,3,2,14,4,-1,-7
-8,-26,-8,18,-0,-19,4,3,15,5,-1,-7
-9,-27,-8,19,-1,-20,5,4,16,6,-1,-7
-10,-27,-7,20,-2,-19,6,5,17,7,-1,-7
-8,-27,-9,18,0,-21,6,4,16,7,-1,-7
-7,-27,-10,18,1,-22,6,4,16,7,-1,-7
-6,-27,-12,17,3,-23,6,3,16,7,-1,-7
-5,-27,-13,16,4,-24,6,3,16,7,-1,-7
-6,-27,-12,17,3,-23,6,3,16,7,-1,-8
-6,-26,-10,17,2,-21,6,3,16,7,-1,-8
-7,-26,-9,17,1,-20,6,3,16,7,-1,-8
-7,-24,-8,16,0,-18,7,4,17,7,-1,-8
-8,-26,-8,18,-0,-19,7,4,17,7,-1,-8
-9,-26,-7,18,-1,-19,7,4,18,8,-1,-8
-11,-26,-5,20,-3,-17,7,4,18,8,-1,-8
-12,-26,-4,20,-4,-16,8,5,19,9,0,-7
-11,-26,-5,20,-3,-17,8,3,17,8,-1,-8
-11,-26,-5,20,-3,-17,8,2,16,7,-1,-8
-9,-26,-7,18,-1,-19,8,2,15,6,-1,-9
-9,-26,-7,18,-1,-19,8,1,14,5,-1,-9
-10,-27,-7,20,-2,-19,9,1,14,5,-1,-9
-12,-27,-5,21,-3,-18,10,2,15,5,-1,-8
-13,-30,-5,23,-4,-19,11,2,15,5,-1,-8
-14,-30,-4,24,-5,-19,12,3,16,5,-1,-7
-12,-27,-5,21,-3,-18,11,2,15,4,-1,-8
-9,-26,-7,18,-1,-19,11,2,14,4,-1,-8
-7,-24,-8,16,0,-18,11,1,13,3,-1,-8
-6,-22,-8,15,0,-17,11,1,13,3,-1,-8
-7,-24,-8,16,0,-18,11,1,13,3,-1,-8
-7,-24,-8,16,0,-18,12,2,14,3,-1,-7
-7,-24,-8,16,0,-18,13,2,14,3,-1,-7
-8,-24,-7,17,-1,-17,14,2,15,4,-1,-6
-8,-24,-7,17,-1,-17,14,2,15,4,-1,-6
-8,-24,-7,17,-1,-17,15,3,16,5,-1,-6
-8,-24,-7,17,-1,-17,15,3,16,5,-1,-6
-8,-24,-7,17,-1,-17,15,4,17,6,0,-4
-7,-24,-8,16,0,-18,15,3,16,5,-1,-4
-5,-22,-9,14,2,-19,15,3,16,5,-1,-4
-4,-22,-10,13,3,-19,14,2,15,4,-1,-4
-3,-20,-10,11,4,-18,14,2,15,4,-1,-4
-3,-22,-12,12,4,-20,14,3,16,4,-1,-4
-4,-24,-12,13,4,-21,15,4,17,5,0,-4
-4,-26,-13,15,4,-23,15,5,18,5,0,-4
-4,-26,-13,15,4,-23,15,5,19,6,1,-4
-3,-26,-14,14,6,-24,15,5,18,6,1,-6
-0,-24,-15,11,7,-24,15,5,18,6,1,-6
1,-24,-16,10,9,-25,15,4,18,6,1,-6
2,-22,-16,9,9,-24,15,4,18,6,1,-6
2,-24,-17,10,10,-25,15,4,18,6,1,-6
2,-24,-17,10,10,-25,15,5,19,7,1,-6
0,-26,-17,11,9,-27,15,5,20,7,1,-6
0,-26,-17,11,9,-27,17,6,21,8,2,-6
-0,-26,-16,12,8,-26,17,6,21,8,1,-7
-0,-24,-15,11,7,-24,17,7,22,9,1,-7
-0,-22,-14,11,7,-22,17,8,23,10,1,-7
-1,-20,-12,10,5,-19,17,9,23,11,1,-7
-0,-20,-13,10,6,-20,17,8,23,10,0,-8
-0,-20,-13,10,6,-20,15,7,22,9,-1,-9
1,-20,-14,9,8,-21,15,6,21,8,-1,-10
2,-18,-14,8,8,-20,14,5,21,8,-1,-10
1,-20,-14,9,8,-21,14,5,21,8,-1,-10
-0,-20,-13,10,6,-20,15,6,22,9,-1,-10
-0,-20,-13,10,6,-20,15,7,23,10,-1,-10
-1,-20,-12,10,5,-19,15,8,23,11,-1,-10
1,-20,-14,9,8,-21,15,7,23,11,-1,-10
2,-20,-15,8,9,-22,15,7,23,11,-1,-10
3,-20,-16,7,10,-22,15,6,22,11,-1,-10
4,-20,-17,6,11,-23,15,6,22,11,0,-9
4,-20,-17,6,11,-23,15,6,22,11,0,-9
4,-20,-17,6,11,-23,15,7,22,12,1,-8
4,-20,-17,6,11,-23,15,8,22,13,1,-8
3,-20,-16,7,10,-22,17,9,23,14,2,-7
2,-22,-16,9,9,-24,17,9,23,14,2,-7
1,-24,-16,10,9,-25,17,10,23,14,2,-7
-0,-26,-16,12,8,-26,17,10,23,14,2,-7
-1,-27,-16,13,8,-27,17,11,24,15,3,-6
-0,-27,-17,13,9,-28,17,10,23,14,2,-7
-0,-27,-17,13,9,-28,15,10,23,14,1,-8
-0,-27,-17,13,9,-28,15,9,22,13,0,-9
0,-26,-17,11,9,-27,15,8,21,13,0,-9
-0,-27,-17,13,9,-28,15,8,21,13,0,-9
-1,-27,-16,13,8,-27,15,9,22,13,0,-9
-3,-30,-16,15,7,-28,15,10,22,13,0,-9
-4,-30,-15,17,5,-27,15,10,23,14,1,-8
-3,-30,-16,15,7,-28,14,10,22,13,0,-8
-1,-27,-16,13,8,-27,14,9,22,13,0,-8
-0,-27,-17,13,9,-28,14,8,21,13,0,-8
0,-26,-17,11,9,-27,14,8,21,13,0,-8
1,-27,-19,12,10,-28,14,8,21,13,0,-7
-0,-30,-19,14,9,-30,15,9,22,14,1,-6
-0,-31,-20,15,10,-31,15,10,22,14,1,-4
-0,-31,-20,15,10,-31,15,10,23,15,2,-4
-2,-33,-20,17,9,-32,15,10,23,15,2,-4
-2,-33,-20,17,9,-32,17,11,23,15,2,-4
-3,-35,-20,18,9,-33,17,12,23,15,2,-4
-3,-35,-20,18,9,-33,17,13,24,16,3,-4
-3,-37,-21,18,9,-35,17,12,23,15,2,-6
-2,-37,-22,18,10,-36,17,11,23,14,1,-7
-0,-37,-24,17,11,-37,15,10,22,13,0,-8
-0,-37,-24,17,11,-37,15,10,22,13,-1,-9
-2,-37,-22,18,10,-36,15,10,22,12,-1,-10
-3,-37,-21,18,9,-35,17,10,22,12,-1,-10
-4,-37,-20,20,8,-34,17,10,22,12,-1,-11
-4,-35,-19,18,8,-32,17,11,23,12,-1,-11
-3,-33,-19,17,8,-31,17,10,22,11,-1,-12
-0,-30,-19,14,9,-30,17,10,21,11,-1,-12
1,-27,-19,12,10,-28,15,9,20,10,-2,-12
2,-24,-17,10,10,-25,15,8,20,10,-2,-12
2,-26,-19,11,11,-28,15,8,20,10,-2,-12
1,-27,-19,12,10,-28,15,9,20,10,-2,-11
-0,-30,-19,14,9,-30,15,9,20,10,-2,-10
-1,-31,-19,15,9,-31,17,10,20,11,-1,-9
-3,-33,-19,17,8,-31,17,10,20,11,-1,-10
-3,-33,-19,17,8,-31,17,10,21,11,-1,-10
-3,-33,-19,17,8,-31,17,10,21,11,-1,-10
-4,-33,-17,18,7,-31,18,10,22,12,-1,-10
-3,-35,-20,18,9,-33,18,10,22,12,-1,-10
-3,-37,-21,18,9,-35,18,10,22,12,-1,-10
-1,-38,-24,18,11,-38,18,10,22,12,-1,-10
-0,-38,-25,18,12,-39,19,10,22,12,-1,-10
-1,-38,-24,18,11,-38,19,10,22,12,-1,-10
-2,-37,-22,18,10,-36,19,10,22,12,-1,-10
-1,-35,-21,17,10,-34,19,10,22,12,-1,-10
-2,-33,-20,17,9,-32,19,11,23,12,-1,-10
-1,-35,-21,17,10,-34,18,10,22,11,-1,-10
-0,-35,-22,16,11,-35,18,10,22,11,-1,-9
-0,-37,-24,17,11,-37,17,9,21,11,-1,-9
0,-37,-25,17,12,-38,17,9,21,11,-1,-8
-0,-38,-25,18,12,-39,17,9,21,11,-1,-8
-0,-38,-25,18,12,-39,17,10,21,11,-1,-7
-2,-41,-25,20,11,-39,17,10,21,11,-1,-7
-3,-41,-24,20,11,-39,17,10,21,12,0,-6
-4,-42,-24,22,10,-39,17,10,21,12,0,-6
-4,-42,-24,22,10,-39,18,11,22,13,1,-6
-5,-44,-24,24,9,-41,18,12,23,13,1,-6
-6,-44,-22,24,8,-39,19,13,23,14,2,-6
-5,-42,-22,22,9,-39,18,12,23,13,1,-7
-4,-41,-22,21,9,-38,18,12,23,13,0,-7
-3,-38,-22,19,10,-37,17,11,22,12,-1,-8
-0,-35,-22,16,11,-35,17,11,22,12,-1,-8
-0,-35,-22,16,11,-35,17,11,22,12,-1,-9
-0,-33,-21,15,11,-34,17,11,23,12,-1,-9
-2,-33,-20,17,9,-32,17,11,23,12,-1,-10
-1,-31,-19,15,9,-31,17,12,23,13,-1,-10
-0,-31,-20,15,10,-31,17,11,23,12,-2,-11
0,-30,-20,13,10,-31,17,10,23,12,-2,-11
2,-30,-21,12,11,-31,17,10,22,11,-3,-12
3,-27,-21,10,12,-30,17,10,22,11,-3,-12
2,-30,-21,12,11,-31,17,10,22,11,-3,-12
1,-31,-21,13,11,-32,17,10,22,11,-3,-12
-0,-33,-21,15,11,-34,17,10,22,11,-3,-12
-1,-35,-21,17,10,-34,17,10,22,11,-3,-12
-1,-35,-21,17,10,-34,17,10,22,11,-3,-12
-1,-35,-21,17,10,-34,17,11,22,12,-2,-11
-1,-35,-21,17,10,-34,17,12,22,12,-2,-10
-3,-35,-20,18,9,-33,17,13,22,13,-1,-9
-1,-35,-21,17,10,-34,17,12,21,12,-1,-9
-1,-35,-21,17,10,-34,15,12,21,12,-1,-9
-0,-35,-22,16,11,-35,15,11,20,11,-1,-9
0,-33,-22,15,11,-34,15,11,20,11,-1,-8
0,-33,-22,15,11,-34,15,11,20,11,-1,-8
-0,-33,-21,15,11,-34,15,12,21,12,-1,-8
-0,-33,-21,15,11,-34,15,13,21,12,0,-8
-0,-31,-20,15,10,-31,15,14,22,13,1,-7
-0,-33,-21,15,11,-34,14,13,21,12,0,-8
-1,-35,-21,17,10,-34,13,12,21,12,0,-8
-2,-37,-22,18,10,-36,11,11,20,11,-1,-9
-2,-37,-22,18,10,-36,10,11,20,11,-1,-9
-3,-38,-22,19,10,-37,9,11,20,11,-1,-9
-3,-38,-22,19,10,-37,9,11,20,12,-1,-9
-3,-38,-22,19,10,-37,9,11,20,12,-1,-9
-3,-38,-22,19,10,-37,9,12,21,13,0,-8
-3,-38,-22,19,10,-37,9,13,21,13,0,-8
-3,-38,-22,19,10,-37,9,14,22,14,1,-7
-3,-38,-22,19,10,-37,9,15,22,14,1,-7
-4,-38,-21,20,9,-36,10,15,23,15,2,-6
-2,-37,-22,18,10,-36,9,15,22,14,1,-6
-0,-35,-22,16,11,-35,9,14,22,14,1,-6
2,-33,-24,14,13,-35,8,13,22,14,1,-6
3,-31,-24,12,13,-34,8,13,22,14,1,-6
2,-33,-24,14,13,-35,8,13,22,14,1,-6
0,-33,-22,15,11,-34,8,14,22,14,1,-6
-0,-33,-21,15,11,-34,8,14,22,14,1,-6
-2,-33,-20,17,9,-32,9,15,22,14,1,-6
-0,-33,-21,15,11,-34,8,14,21,13,0,-7
-0,-33,-21,15,11,-34,7,13,21,12,0,-7
-0,-33,-21,15,11,-34,6,12,20,11,0,-8
1,-31,-21,13,11,-32,5,12,20,11,0,-8
1,-31,-21,13,11,-32,5,12,20,11,0,-8
-0,-31,-20,15,10,-31,5,12,20,11,0,-8
-0,-31,-20,15,10,-31,5,12,20,11,0,-8
-1,-31,-19,15,9,-31,6,13,21,12,0,-8
-2,-30,-17,15,8,-28,6,13,21,12,0,-8
-1,-27,-16,13,8,-27,6,14,22,12,1,-8
-2,-26,-15,13,7,-25,6,14,22,12,1,-8
-3,-24,-13,13,5,-22,7,15,23,13,2,-7
-1,-24,-14,12,6,-23,6,14,22,12,1,-8
-0,-24,-15,11,7,-24,5,13,22,12,1,-8
1,-24,-16,10,9,-25,4,12,21,11,0,-9
1,-24,-16,10,9,-25,4,11,21,11,0,-9
-0,-26,-16,12,8,-26,4,12,21,11,0,-9
-0,-26,-16,12,8,-26,4,13,21,11,0,-8
-0,-26,-16,12,8,-26,4,14,21,11,0,-7
-2,-26,-15,13,7,-25,5,15,21,12,1,-6
-1,-27,-16,13,8,-27,4,14,21,11,0,-6
-0,-27,-17,13,9,-28,4,14,21,11,0,-6
-0,-30,-19,14,9,-30,3,13,21,11,0,-6
0,-30,-20,13,10,-31,3,13,21,11,0,-6
0,-30,-20,13,10,-31,3,13,21,11,0,-6
0,-30,-20,13,10,-31,3,13,22,11,0,-6
0,-30,-20,13,10,-31,3,13,22,11,0,-6
1,-27,-19,12,10,-28,4,14,23,12,1,-6
-0,-27,-17,13,9,-28,4,14,23,12,1,-6
-0,-26,-16,12,8,-26,5,15,24,13,1,-6
-0,-24,-15,11,7,-24,6,15,25,13,1,-6
-2,-22,-13,11,5,-21,7,16,27,14,2,-6
-0,-20,-13,10,6,-20,6,15,27,14,2,-7
1,-16,-12,7,6,-17,6,15,27,14,2,-7
2,-13,-11,4,7,-14,6,15,27,13,2,-7
3,-10,-9,3,6,-12,6,14,27,15,2,-7
3,-5,-7,1,5,-7,7,15,28,16,3,-6
1,-2,-3,1,2,-4,8,17,30,18,5,-4
2,2,-1,-2,2,1,9,18,31,20,6,-4
1,6,3,-2,-0,5,11,19,32,22,8,-2
2,10,4,-4,-0,8,10,18,32,23,9,-2
3,13,5,-7,-0,11,9,18,33,24,10,-1
4,16,6,-9,-0,13,8,18,34,25,11,0
6,22,8,-13,0,17,8,18,35,27,12,1
8,26,8,-16,1,19,7,19,36,28,12,2
9,30,9,-18,1,22,7,20,37,29,14,4
12,33,9,-22,2,24,6,21,38,30,15,5
14,38,10,-26,3,28,6,22,39,31,16,7
15,38,9,-26,4,27,4,22,39,32,17,9
16,39,9,-27,4,27,3,22,39,33,17,9
15,39,9,-27,4,27,0,22,39,33,18,11
15,38,9,-26,4,26,-0,22,40,33,19,12
18,41,7,-29,7,26,-3,21,39,33,19,11
20,42,5,-32,9,25,-6,20,38,33,19,13
23,44,4,-34,11,26,-9,18,37,33,19,13
25,47,3,-37,12,26,-11,17,37,33,20,14
25,44,2,-36,13,24,-12,17,36,32,20,14
25,43,0,-36,14,22,-14,17,35,33,20,15
25,41,-0,-34,14,20,-14,16,34,31,20,16
25,38,-2,-33,15,18,-15,16,33,31,21,17
26,37,-4,-34,17,16,-17,14,32,30,20,16
28,37,-7,-35,19,13,-18,13,31,29,19,16
31,37,-9,-37,22,12,-19,11,31,28,18,16
33,37,-12,-38,24,10,-20,10,30,27,18,16
32,33,-13,-36,24,7,-20,10,29,26,17,15
31,30,-14,-34,24,4,-19,10,28,25,17,15
30,26,-15,-31,24,1,-18,10,27,24,17,15
28,24,-15,-30,23,1,-17,10,26,24,17,15
26,20,-15,-26,22,-1,-15,10,26,23,16,14
24,17,-15,-24,21,-3,-14,11,26,23,15,13
21,13,-15,-20,19,-5,-12,12,26,22,14,11
19,10,-14,-17,17,-6,-10,13,26,22,14,11
17,5,-15,-13,17,-9,-9,12,25,20,12,9
16,4,-15,-12,16,-10,-8,11,25,19,11,7
15,0,-16,-10,16,-13,-7,10,24,17,9,4
14,-2,-16,-8,16,-13,-5,10,24,16,7,2
11,-7,-16,-3,14,-16,-4,10,23,16,5,0
8,-11,-16,-1,13,-18,-2,11,23,15,5,-2
6,-15,-16,3,11,-20,-0,12,22,14,4,-4
4,-18,-16,6,11,-22,2,13,23,13,3,-5
4,-24,-20,8,12,-28,2,12,22,11,1,-7
4,-28,-23,10,13,-31,2,11,21,9,0,-8
4,-31,-25,11,15,-35,2,10,20,7,-1,-10
4,-35,-27,13,16,-38,3,10,19,6,-2,-11
2,-39,-28,16,15,-41,3,10,18,6,-3,-12
2,-41,-29,17,15,-42,5,11,17,5,-3,-12
0,-44,-29,20,15,-45,5,12,16,5,-4,-13
-0,-47,-30,21,15,-47,6,13,15,5,-4,-13
2,-49,-34,21,18,-51,3,10,13,3,-5,-14
5,-51,-39,19,23,-56,2,7,11,2,-6,-15
7,-55,-44,20,26,-62,-0,5,10,0,-7,-16
11,-57,-49,18,30,-66,-2,2,9,-2,-8,-16
5,-55,-42,21,23,-60,2,6,11,1,-6,-15
-0,-52,-33,24,16,-52,5,11,13,3,-4,-14
-8,-50,-25,28,8,-45,9,15,14,6,-3,-13
-12,-46,-16,29,1,-36,13,20,16,9,-1,-11
-10,-43,-17,26,3,-35,9,17,16,8,-3,-13
-10,-52,-23,30,6,-44,12,18,20,10,-1,-9
-25,-81,-26,54,-0,-61,23,28,24,16,3,-7
12,-53,-48,15,30,-63,2,6,12,3,-4,-13
4,-68,-49,27,26,-72,4,8,20,5,-3,-11
8,-66,-52,24,30,-74,7,10,23,7,-4,-10
7,-39,-33,13,21,-45,5,5,18,3,-8,-17
13,-52,-48,14,31,-63,-3,-1,9,1,-10,-18
-16,-75,-32,45,7,-63,21,23,30,14,-1,-9
-16,-72,-30,43,7,-60,18,22,23,11,-2,-11
0,-48,-32,21,16,-49,16,20,14,9,-4,-13
-2,-61,-38,29,18,-60,12,15,13,5,-4,-10
-28,-81,-23,56,-4,-59,19,19,19,12,-2,-9
-0,-58,-37,26,18,-58,-0,-2,-2,-1,-10,-19
-14,-52,-19,33,2,-41,2,-3,7,7,-2,-14
-17,-35,-4,28,-7,-21,4,-5,11,12,4,-6
-17,-15,9,20,-14,-1,-5,-17,-8,7,5,-8
6,11,0,-8,3,6,-14,-32,-20,6,12,4
-12,33,34,-5,-23,43,-3,-20,-9,19,32,26
0,72,46,-30,-23,72,-7,-19,-9,22,36,31
30,100,33,-63,0,76,-14,-5,4,46,63,64
58,46,-33,-61,48,-2,-8,24,40,85,107,115
89,37,-73,-79,85,-37,-21,26,51,109,150,163
159,102,-107,-158,139,-31,-64,-4,27,114,177,200
188,114,-130,-183,166,-42,-92,-20,23,122,206,240
220,137,-150,-216,193,-47,-112,-38,13,130,236,280
249,192,-146,-261,207,-15,-145,-77,-31,116,248,309
287,277,-131,-325,220,39,-182,-120,-66,117,271,348
274,284,-112,-318,204,57,-181,-127,-61,145,311,397
250,320,-63,-317,167,113,-182,-152,-80,146,312,403
212,316,-24,-288,126,142,-174,-185,-123,127,294,388
165,312,25,-252,77,177,-167,-214,-159,98,265,363
113,315,84,-216,20,224,-181,-264,-212,50,224,328
100,346,118,-220,-4,265,-207,-317,-284,-17,164,274
21,320,187,-152,-81,306,-202,-337,-312,-64,119,229
-31,292,225,-102,-128,320,-193,-362,-361,-144,41,154
-75,245,242,-51,-160,310,-193,-388,-406,-213,-32,80
-75,224,228,-42,-153,288,-191,-383,-420,-244,-78,26
-110,143,213,18,-165,236,-158,-339,-391,-252,-107,-17
-103,113,187,26,-148,200,-143,-315,-375,-268,-131,-42
-102,52,146,52,-127,138,-112,-281,-353,-271,-137,-56
-99,22,123,63,-114,106,-88,-239,-317,-248,-127,-56
-108,4,120,77,-117,94,-74,-196,-257,-205,-106,-45
-62,31,88,32,-76,83,-81,-173,-220,-176,-98,-49
-48,20,66,27,-58,60,-56,-121,-161,-130,-78,-41
-34,24,53,15,-44,53,-41,-88,-115,-101,-65,-37
-37,-18,28,35,-34,12,-32,-71,-84,-79,-52,-28
-17,-1,17,13,-18,13,-29,-60,-67,-62,-45,-25
-39,6,46,26,-44,39,-15,-41,-46,-42,-30,-14
-28,-22,16,31,-23,1,0,-22,-33,-25,-18,-7
-24,-10,20,22,-23,10,8,-15,-25,-19,-16,-7
-28,-15,21,27,-26,9,12,-9,-17,-15,-12,-2
-38,-27,24,40,-32,4,22,2,-11,-9,-9,-4
-9,6,14,4,-11,13,3,-16,-23,-24,-24,-20
-24,-37,1,34,-13,-18,10,-6,-8,-17,-16,-13
-26,-41,2,37,-15,-19,10,-4,-7,-14,-17,-16
-24,-49,-7,39,-9,-31,12,2,3,-10,-19,-19
-7,-37,-16,22,4,-31,5,-3,3,-10,-22,-22
-38,-72,-6,59,-17,-41,24,19,23,6,-8,-11
-19,-48,-11,35,-5,-33,25,18,13,9,-8,-13
-23,-41,-2,34,-11,-22,24,19,13,5,-7,-13
-28,-57,-7,45,-11,-34,26,20,19,9,-2,-7
-35,-53,3,48,-20,-25,32,28,23,15,1,-6
-0,-30,-19,14,9,-30,15,10,7,2,-9,-12
-12,-41,-14,27,1,-31,20,15,20,4,-8,-8
-15,-46,-14,31,-1,-34,19,15,25,3,-12,-13
-10,-44,-18,27,3,-37,14,14,19,5,-11,-15
4,-43,-32,17,18,-46,13,13,19,4,-12,-18
-31,-59,-4,49,-15,-34,33,34,40,20,-1,-9
-23,-31,4,31,-14,-13,27,29,31,15,-5,-14
-16,-64,-25,40,4,-51,32,32,30,22,5,-6
-12,-52,-20,32,3,-42,35,34,32,21,4,-2
-13,-52,-20,33,3,-42,32,31,31,18,2,-5
-14,-52,-19,33,2,-41,29,27,30,15,0,-6
-14,-52,-19,33,2,-41,27,24,29,13,-1,-8
-14,-49,-17,32,1,-39,25,22,28,11,-3,-9
-16,-54,-18,36,0,-41,26,24,29,13,-2,-9
-17,-55,-18,37,0,-42,27,27,31,15,-0,-9
-18,-58,-18,39,-1,-43,29,29,32,16,0,-9
-20,-59,-16,41,-3,-42,30,31,34,19,2,-8
-21,-58,-15,41,-4,-41,30,31,34,19,2,-9
-20,-55,-14,40,-4,-39,29,31,34,19,2,-9
-20,-53,-13,38,-4,-37,27,31,34,19,2,-10
-20,-50,-12,36,-5,-34,27,31,34,19,2,-10
-17,-48,-13,34,-2,-34,26,31,33,19,2,-10
-16,-46,-13,32,-2,-34,25,31,34,19,2,-10
-15,-44,-13,31,-2,-32,24,30,35,19,2,-10
-14,-43,-13,29,-1,-31,23,30,36,19,2,-9
-15,-42,-12,29,-2,-31,21,31,37,19,2,-9
-15,-41,-11,29,-2,-29,20,31,38,20,2,-9
-15,-38,-9,28,-3,-27,19,31,39,20,2,-9
-15,-37,-8,27,-4,-25,18,32,41,21,3,-9
-15,-37,-8,27,-4,-25,18,33,41,22,4,-8
-15,-37,-8,27,-4,-25,18,34,42,23,5,-7
-15,-37,-8,27,-4,-25,18,35,42,24,6,-6
-15,-35,-7,27,-5,-23,18,36,43,25,8,-4
-14,-33,-7,25,-4,-22,17,36,43,24,7,-6
-14,-32,-5,25,-5,-20,18,36,42,24,7,-6
-14,-30,-4,24,-5,-19,17,36,42,23,7,-6
-14,-28,-3,23,-6,-17,17,36,42,23,7,-6
-14,-28,-3,23,-6,-17,17,37,42,23,7,-6
-14,-26,-2,22,-6,-15,18,38,42,24,8,-6
-15,-26,-0,23,-8,-13,18,39,42,24,8,-6
-15,-24,0,22,-8,-12,18,40,42,25,9,-5
-15,-22,1,21,-9,-10,18,39,40,24,9,-5
-15,-20,3,20,-9,-8,18,39,40,24,9,-5
-15,-18,4,19,-10,-7,18,39,40,24,9,-5
-14,-15,5,17,-10,-4,18,39,41,24,9,-4
-15,-15,7,18,-11,-2,18,39,40,24,8,-4
-15,-13,8,17,-11,-1,20,40,42,24,8,-4
-16,-13,9,18,-13,1,20,41,42,24,8,-4
-16,-11,10,17,-13,2,21,42,43,25,8,-4
-17,-11,12,18,-15,3,22,43,42,25,8,-4
-17,-9,13,17,-15,5,23,44,42,25,8,-4
-19,-10,14,18,-17,6,24,44,42,25,8,-4
-18,-7,15,17,-17,7,26,45,43,26,9,-4
-19,-7,16,18,-18,8,26,44,43,25,8,-5
-19,-5,17,17,-19,10,26,44,43,24,7,-5
-19,-4,18,16,-19,12,26,44,43,23,6,-5
-20,-1,21,16,-21,15,26,44,43,23,5,-5
-22,-2,22,17,-23,16,27,45,43,23,4,-5
-22,0,24,17,-23,18,28,47,43,23,4,-4
-21,2,25,15,-23,20,29,48,43,23,4,-5
-23,4,27,15,-25,22,30,49,43,24,4,-5
-23,6,29,15,-26,25,30,49,43,23,4,-6
-24,7,31,15,-28,28,30,49,43,22,4,-6
-24,9,32,14,-28,29,30,49,42,21,3,-6
-25,11,34,14,-30,32,30,49,42,21,3,-6
-26,11,36,15,-32,33,30,49,40,20,2,-6
-26,13,37,13,-32,35,32,50,41,20,2,-6
-26,15,38,13,-33,37,33,51,40,19,2,-6
-26,16,39,13,-33,38,33,52,40,19,2,-6
-26,18,41,11,-34,40,34,51,40,18,1,-6
-26,22,43,10,-34,44,36,52,40,17,1,-6
-27,24,45,10,-36,46,37,52,40,16,1,-6
-27,28,48,8,-38,51,39,53,40,15,1,-6
-27,30,49,8,-38,52,39,52,38,14,0,-7
-27,32,50,6,-39,54,40,51,36,12,-1,-8
-27,33,51,6,-40,56,40,51,34,10,-1,-9
-27,37,54,4,-41,60,41,50,32,8,-2,-9
-28,39,56,4,-43,63,42,49,31,5,-3,-10
-29,43,60,3,-45,68,43,49,29,3,-4,-10
-29,46,62,2,-46,71,44,48,27,1,-5,-11
-31,49,66,1,-49,75,46,48,25,-1,-6,-11
-31,50,67,1,-49,77,46,46,22,-5,-8,-12
-34,49,70,4,-53,78,46,44,18,-7,-10,-13
-36,49,72,5,-55,80,46,41,14,-11,-11,-14
-37,52,74,5,-56,83,46,39,11,-14,-13,-15
-38,52,75,6,-57,84,46,37,7,-18,-15,-16
-40,52,78,8,-60,86,46,36,4,-21,-17,-17
-43,52,80,9,-62,88,46,34,1,-25,-18,-18
-44,53,83,10,-64,90,47,32,-2,-27,-19,-18
-45,53,84,10,-65,91,46,29,-7,-32,-21,-19
-47,54,87,11,-68,94,46,27,-11,-36,-23,-20
-50,53,89,13,-70,95,46,23,-16,-40,-26,-21
-51,55,91,13,-72,98,46,21,-20,-44,-28,-22
-51,55,92,14,-73,99,44,16,-27,-50,-30,-24
-52,55,93,15,-74,100,42,11,-32,-55,-33,-25
-54,55,95,15,-76,101,40,6,-39,-59,-35,-27
-55,58,97,15,-77,104,39,2,-44,-64,-38,-28
-56,57,98,17,-79,104,37,-2,-50,-69,-40,-29
-57,59,101,17,-80,107,35,-6,-56,-74,-43,-30
-57,61,102,15,-81,110,33,-11,-62,-79,-46,-31
-58,63,104,15,-83,112,32,-15,-67,-83,-47,-32
-58,63,104,15,-83,112,29,-20,-74,-88,-50,-33
-57,65,104,13,-82,113,26,-26,-81,-93,-52,-33
-57,64,104,14,-82,113,23,-31,-87,-97,-53,-34
-57,66,105,13,-82,115,20,-37,-93,-101,-55,-34
-56,66,104,12,-81,114,17,-42,-98,-105,-57,-34
-56,66,104,12,-81,114,14,-47,-104,-108,-57,-34
-56,66,104,12,-81,114,10,-52,-109,-111,-58,-34
-55,69,104,10,-81,115,7,-57,-114,-114,-59,-33
-54,66,102,11,-79,112,4,-61,-118,-116,-59,-33
-53,64,100,11,-78,109,2,-65,-121,-118,-59,-32
-51,63,97,11,-76,107,-2,-69,-125,-120,-59,-31
-51,61,96,11,-75,104,-3,-72,-129,-122,-59,-30
-49,58,91,11,-71,99,-7,-75,-130,-122,-58,-29
-47,55,88,11,-68,95,-10,-78,-131,-122,-58,-28
-44,54,84,10,-65,92,-13,-80,-133,-122,-57,-27
-43,52,80,9,-62,88,-15,-82,-134,-121,-55,-25
-40,47,74,10,-58,80,-17,-82,-132,-118,-53,-24
-38,43,69,10,-54,75,-18,-82,-129,-115,-52,-22
-36,39,65,10,-51,69,-19,-81,-128,-113,-50,-20
-34,35,59,10,-47,63,-20,-81,-125,-108,-47,-18
-29,33,54,8,-42,58,-21,-78,-121,-104,-45,-17
-26,32,49,6,-38,54,-22,-76,-116,-99,-42,-16
-21,30,43,3,-32,48,-23,-74,-111,-95,-40,-15
-18,27,38,2,-28,42,-24,-71,-106,-90,-37,-14
-16,24,33,3,-25,37,-24,-68,-99,-85,-35,-13
-14,22,29,1,-22,34,-24,-64,-93,-79,-32,-12
-12,18,25,1,-18,28,-24,-60,-87,-73,-30,-11
-9,17,21,0,-15,25,-23,-56,-79,-68,-26,-10
-8,13,17,1,-12,20,-22,-52,-73,-62,-23,-10
-7,11,15,1,-11,17,-21,-47,-67,-56,-21,-9
-5,9,12,1,-8,13,-20,-43,-60,-50,-18,-8
-4,7,9,0,-6,10,-18,-38,-53,-44,-15,-7
-3,5,7,1,-5,7,-17,-35,-48,-39,-13,-7
-2,4,4,1,-3,5,-16,-32,-43,-35,-12,-7
-0,2,2,0,-1,2,-15,-28,-38,-30,-10,-7
2,2,-1,-2,2,1,-14,-24,-33,-25,-8,-6
2,-1,-3,0,3,-3,-12,-21,-28,-22,-8,-6
2,-4,-4,1,3,-5,-11,-18,-24,-18,-5,-5
3,-6,-7,1,5,-8,-9,-15,-19,-14,-4,-5
3,-7,-8,2,5,-10,-7,-11,-15,-10,-2,-4
4,-7,-9,1,7,-10,-6,-9,-12,-9,-2,-4
4,-7,-9,1,7,-10,-5,-6,-8,-6,-1,-4
5,-7,-11,0,8,-12,-4,-5,-6,-4,-1,-4
6,-5,-10,-1,9,-10,-3,-3,-2,-1,0,-4
6,-7,-12,-1,9,-13,-2,-1,-0,1,1,-4
6,-7,-12,-1,9,-13,-1,1,3,3,2,-2
5,-9,-12,1,9,-13,-0,2,5,4,3,-2
5,-9,-12,1,9,-13,2,4,8,7,5,-2
4,-11,-12,3,8,-14,2,5,9,8,5,-2
4,-11,-12,3,8,-14,3,6,11,9,5,-2
3,-13,-12,4,8,-15,3,7,12,10,4,-2
3,-13,-12,4,8,-15,4,9,13,11,4,-2
3,-15,-13,5,8,-17,4,9,13,11,4,-2
2,-16,-13,6,7,-18,4,9,14,12,4,-2
2,-18,-14,8,8,-20,4,9,14,13,4,-2
2,-18,-14,8,8,-20,4,10,15,14,4,-2
0,-18,-13,8,7,-19,4,10,15,13,3,-4
1,-16,-12,7,6,-17,5,10,15,13,2,-4
-0,-16,-10,8,5,-16,5,10,15,13,1,-6
-2,-15,-8,8,3,-13,6,10,15,13,1,-7
-0,-13,-8,6,4,-13,6,10,15,13,1,-7
0,-11,-8,5,4,-12,6,10,15,13,1,-7
2,-9,-8,3,5,-10,6,10,15,13,1,-7
2,-7,-7,3,4,-9,7,10,15,14,2,-6
1,-9,-7,4,4,-10,7,10,15,14,2,-6
1,-9,-7,4,4,-10,8,10,15,14,2,-6
1,-9,-7,4,4,-10,9,10,15,14,2,-6
-0,-9,-5,5,2,-9,10,10,15,14,3,-4
-2,-11,-5,7,2,-10,10,10,15,14,3,-4
-3,-13,-5,8,1,-10,11,10,16,14,4,-4
-4,-15,-5,10,0,-12,11,10,16,14,4,-4
-4,-15,-5,10,0,-12,12,11,17,15,4,-2
-4,-15,-5,10,0,-12,11,10,16,14,4,-4
-4,-15,-5,10,0,-12,11,10,15,13,3,-4
-4,-15,-5,10,0,-12,11,9,14,12,2,-6
-4,-13,-4,9,0,-10,11,9,13,12,1,-6
-5,-13,-3,10,-1,-9,11,8,12,11,0,-7
-6,-13,-2,10,-2,-8,11,8,12,10,-1,-7
-7,-13,-0,11,-3,-7,11,7,12,9,-1,-7
-8,-13,0,12,-4,-6,11,7,12,9,-1,-7
-7,-13,-0,11,-3,-7,10,6,12,8,-2,-7
-6,-11,-0,10,-3,-6,10,6,12,8,-2,-7
-4,-9,-2,7,-1,-6,10,6,11,7,-2,-7
-3,-7,-2,6,-0,-5,10,6,11,7,-2,-7
-3,-7,-2,6,-0,-5,10,6,10,7,-2,-7
-3,-7,-2,6,-0,-5,10,6,10,7,-2,-7
-3,-7,-2,6,-0,-5,10,6,9,7,-2,-7
-3,-7,-2,6,-0,-5,11,6,9,8,-2,-7
-3,-7,-2,6,-0,-5,11,6,9,8,-2,-7
-1,-5,-2,4,0,-4,12,6,10,8,-2,-7
-1,-5,-2,4,0,-4,12,6,10,8,-2,-7
-0,-4,-2,3,1,-4,13,7,11,8,-1,-6
-0,-4,-2,3,1,-4,12,6,10,7,-2,-7
-2,-4,-0,4,-0,-2,12,5,9,7,-2,-7
-2,-4,-0,4,-0,-2,11,5,8,6,-3,-7
-3,-4,0,4,-1,-1,11,5,8,6,-3,-7
-3,-5,-0,5,-1,-3,11,5,8,6,-3,-7
-3,-5,-0,5,-1,-3,12,5,9,6,-3,-7
-1,-5,-2,4,0,-4,12,5,10,6,-3,-7
-1,-5,-2,4,0,-4,13,5,11,7,-3,-7
-0,-5,-3,3,1,-5,13,5,11,7,-3,-7
-0,-5,-3,3,1,-5,13,5,11,7,-3,-7
-0,-5,-3,3,1,-5,13,5,11,7,-3,-7
0,-4,-3,2,2,-4,13,5,11,7,-3,-7
1,-5,-4,3,3,-6,13,5,11,7,-3,-7
0,-7,-5,4,3,-8,14,6,12,8,-2,-6
1,-9,-7,4,4,-10,14,7,12,9,-2,-6
2,-9,-8,3,5,-10,15,8,12,10,-1,-4
2,-11,-9,4,6,-13,15,8,12,10,-1,-4
1,-13,-9,6,5,-13,15,9,13,10,-1,-4
-0,-15,-9,8,4,-15,15,9,14,10,-1,-4
-0,-15,-9,8,4,-15,15,10,15,11,-1,-4
-0,-16,-10,8,5,-16,15,10,15,11,-2,-4
1,-16,-12,7,6,-17,15,10,16,11,-2,-4
2,-16,-13,6,7,-18,15,10,16,11,-2,-4
2,-16,-13,6,7,-18,15,10,17,12,-2,-4
2,-16,-13,6,7,-18,15,10,17,12,-2,-6
1,-16,-12,7,6,-17,15,10,18,12,-2,-6
1,-16,-12,7,6,-17,15,10,18,12,-2,-6
0,-15,-10,7,5,-16,15,11,19,13,-2,-6
0,-15,-10,7,5,-16,15,11,19,13,-2,-6
2,-13,-10,5,6,-14,15,11,19,13,-2,-6
2,-13,-10,5,6,-14,15,11,19,13,-2,-6
3,-11,-10,4,7,-13,15,11,20,13,-2,-6
3,-11,-10,4,7,-13,15,10,19,13,-2,-7
2,-11,-9,4,6,-13,15,10,19,13,-2,-7
2,-11,-9,4,6,-13,15,10,19,13,-2,-7
0,-11,-8,5,4,-12,15,10,19,14,-2,-7
-0,-15,-9,8,4,-15,15,10,19,14,-2,-7
-0,-16,-10,8,5,-16,15,11,20,14,-2,-7
-0,-18,-12,9,6,-19,17,12,20,14,-2,-7
-1,-20,-12,10,5,-19,17,13,21,15,-1,-7
-0,-20,-13,10,6,-20,17,12,21,14,-2,-8
1,-20,-14,9,8,-21,17,12,21,14,-2,-8
2,-20,-15,8,9,-22,17,11,21,14,-2,-8
2,-20,-15,8,9,-22,17,11,21,14,-2,-8
2,-22,-16,9,9,-24,17,11,21,14,-3,-9
1,-24,-16,10,9,-25,18,12,21,14,-3,-9
0,-26,-17,11,9,-27,18,13,21,14,-3,-9
0,-26,-17,11,9,-27,19,14,22,15,-3,-9
2,-24,-17,10,10,-25,18,13,21,14,-4,-10
2,-22,-16,9,9,-24,18,12,21,14,-4,-10
2,-20,-15,8,9,-22,18,11,21,13,-4,-10
2,-18,-14,8,8,-20,18,11,21,13,-4,-10
2,-18,-14,8,8,-20,18,11,21,13,-4,-10
2,-18,-14,8,8,-20,18,11,21,13,-4,-10
2,-18,-14,8,8,-20,18,11,21,13,-4,-10
0,-18,-13,8,7,-19,19,12,21,14,-4,-9
0,-18,-13,8,7,-19,19,12,21,14,-4,-9
0,-18,-13,8,7,-19,19,13,21,14,-4,-8
0,-18,-13,8,7,-19,19,13,21,14,-4,-8
2,-16,-13,6,7,-18,20,14,21,15,-3,-7
2,-18,-14,8,8,-20,19,13,20,14,-3,-7
3,-18,-15,7,9,-21,19,13,20,14,-3,-7
3,-20,-16,7,10,-22,18,12,20,14,-3,-7
4,-20,-17,6,11,-23,18,12,20,14,-3,-6
3,-22,-17,8,10,-25,17,12,20,14,-3,-6
2,-24,-17,10,10,-25,17,12,20,14,-3,-6
0,-26,-17,11,9,-27,17,12,20,14,-3,-6
-0,-27,-17,13,9,-28,17,13,20,14,-3,-4
1,-27,-19,12,10,-28,17,12,20,14,-3,-4
1,-27,-19,12,10,-28,15,12,20,14,-3,-4
2,-27,-20,11,11,-29,15,12,20,14,-3,-4
2,-27,-20,11,11,-29,15,12,21,15,-3,-4
2,-27,-20,11,11,-29,15,12,21,15,-4,-4
2,-27,-20,11,11,-29,15,12,21,15,-4,-4
2,-27,-20,11,11,-29,15,12,21,15,-4,-6
2,-27,-20,11,11,-29,15,13,21,15,-4,-6
2,-30,-21,12,11,-31,15,13,21,15,-4,-6
2,-30,-21,12,11,-31,15,14,22,15,-4,-6
2,-30,-21,12,11,-31,15,14,22,15,-4,-6
2,-30,-21,12,11,-31,15,15,23,16,-4,-6
2,-31,-22,13,12,-33,15,14,22,15,-5,-7
2,-31,-22,13,12,-33,15,14,22,15,-5,-8
2,-33,-24,14,13,-35,14,13,22,14,-6,-9
2,-33,-24,14,13,-35,14,13,22,14,-6,-9
2,-33,-24,14,13,-35,14,13,22,14,-6,-9
2,-33,-24,14,13,-35,15,14,22,15,-6,-9
2,-33,-24,14,13,-35,15,15,22,15,-6,-9
2,-33,-24,14,13,-35,15,15,23,16,-5,-8
2,-33,-24,14,13,-35,15,15,22,15,-6,-8
3,-31,-24,12,13,-34,14,14,22,15,-6,-8
3,-31,-24,12,13,-34,13,13,22,14,-6,-8
4,-30,-24,11,14,-33,13,13,22,14,-6,-8
3,-31,-24,12,13,-34,13,13,21,14,-6,-8
2,-31,-22,13,12,-33,13,13,21,14,-6,-8
2,-31,-22,13,12,-33,13,13,21,14,-6,-8
1,-31,-21,13,11,-32,13,14,21,15,-5,-8
1,-31,-21,13,11,-32,12,14,21,15,-5,-8
1,-31,-21,13,11,-32,12,14,21,15,-5,-8
1,-31,-21,13,11,-32,11,14,21,15,-5,-8
-0,-31,-20,15,10,-31,11,14,21,15,-5,-7
-0,-33,-21,15,11,-34,10,13,20,14,-6,-8
0,-33,-22,15,11,-34,10,13,20,14,-6,-8
2,-33,-24,14,13,-35,9,13,20,13,-6,-8
2,-33,-24,14,13,-35,9,13,20,13,-6,-8
2,-33,-24,14,13,-35,9,13,20,13,-6,-8
2,-33,-24,14,13,-35,9,14,20,13,-6,-8
2,-33,-24,14,13,-35,9,14,20,13,-6,-8
2,-33,-24,14,13,-35,9,15,20,13,-6,-8
2,-31,-22,13,12,-33,7,14,19,12,-7,-8
3,-27,-21,10,12,-30,6,13,19,12,-7,-8
3,-26,-20,10,11,-28,5,12,19,12,-7,-8
3,-22,-17,8,10,-25,4,12,19,12,-7,-8
2,-24,-17,10,10,-25,3,12,19,12,-7,-8
2,-24,-17,10,10,-25,3,13,20,12,-7,-8
2,-24,-17,10,10,-25,3,13,20,12,-7,-8
2,-24,-17,10,10,-25,3,14,21,13,-7,-8
2,-26,-19,11,11,-28,2,14,21,13,-7,-8
2,-26,-19,11,11,-28,2,14,21,14,-7,-8
1,-27,-19,12,10,-28,2,14,21,14,-7,-8
1,-27,-19,12,10,-28,2,15,21,15,-6,-8
2,-30,-21,12,11,-31,0,15,21,14,-6,-9
2,-31,-22,13,12,-33,0,15,22,14,-6,-9
3,-33,-25,13,14,-36,-0,15,23,14,-6,-9
3,-35,-26,13,15,-37,-0,15,23,14,-6,-9
4,-33,-26,12,15,-37,-0,15,23,14,-6,-9
4,-31,-25,11,14,-34,-0,15,23,14,-6,-9
5,-30,-25,10,15,-34,-0,15,22,14,-6,-9
5,-27,-24,9,15,-32,-0,15,22,15,-5,-9
6,-27,-25,8,16,-33,-1,15,21,14,-5,-9
6,-27,-25,8,16,-33,-2,15,21,14,-5,-9
6,-27,-25,8,16,-33,-3,15,21,14,-5,-9
7,-26,-25,7,16,-32,-4,15,21,14,-5,-8
7,-26,-25,7,16,-32,-5,15,20,13,-5,-9
6,-26,-24,8,15,-31,-5,15,20,13,-5,-9
6,-26,-24,8,15,-31,-5,15,20,13,-5,-9
5,-26,-22,8,14,-30,-5,15,20,13,-5,-9
4,-27,-22,10,13,-31,-6,15,20,13,-5,-9
4,-27,-22,10,13,-31,-6,15,20,13,-5,-9
3,-30,-22,11,12,-32,-7,15,20,13,-5,-9
2,-30,-21,12,11,-31,-7,15,20,14,-5,-8
2,-30,-21,12,11,-31,-8,15,20,13,-6,-9
3,-27,-21,10,12,-30,-8,15,20,13,-6,-9
4,-26,-21,9,13,-29,-8,14,20,12,-6,-9
4,-24,-20,8,12,-27,-8,14,21,12,-6,-9
4,-26,-21,9,13,-29,-8,14,20,12,-6,-9
4,-26,-21,9,13,-29,-8,14,20,12,-6,-9
3,-27,-21,10,12,-30,-8,14,20,12,-6,-9
3,-27,-21,10,12,-30,-8,15,20,13,-5,-9
4,-27,-22,10,13,-31,-9,14,20,12,-5,-9
4,-27,-22,10,13,-31,-9,14,20,12,-5,-9
5,-27,-24,9,15,-32,-10,14,20,12,-5,-9
5,-27,-24,9,15,-32,-10,14,21,12,-5,-9
4,-30,-24,11,14,-33,-10,14,21,12,-5,-10
4,-30,-24,11,14,-33,-10,15,21,13,-5,-10
4,-30,-24,11,14,-33,-10,15,21,13,-5,-10
4,-30,-24,11,14,-33,-9,15,22,14,-4,-10
4,-31,-25,11,14,-34,-9,15,22,14,-4,-10
4,-31,-25,11,14,-34,-9,15,22,14,-4,-10
3,-33,-25,13,14,-36,-9,15,22,14,-4,-10
3,-33,-25,13,14,-36,-9,16,22,15,-4,-9
3,-33,-25,13,14,-36,-10,15,21,14,-5,-10
4,-31,-25,11,14,-34,-10,15,21,14,-5,-10
4,-31,-25,11,14,-34,-10,15,21,13,-5,-10
5,-30,-25,10,15,-34,-10,15,21,13,-5,-10
5,-31,-26,10,16,-36,-11,15,20,12,-5,-11
5,-31,-26,10,16,-36,-11,15,19,12,-5,-11
4,-33,-26,12,15,-37,-11,15,18,12,-5,-11
4,-33,-26,12,15,-37,-11,15,18,12,-5,-11
4,-33,-26,12,15,-37,-12,15,18,12,-5,-11
5,-31,-26,10,16,-36,-12,15,19,13,-5,-10
6,-30,-26,9,16,-35,-12,15,20,13,-5,-10
6,-27,-25,8,16,-33,-12,15,21,14,-5,-9
6,-27,-25,8,16,-33,-12,15,21,14,-5,-9
6,-26,-24,8,15,-31,-12,15,22,15,-4,-9
5,-26,-22,8,14,-30,-12,15,23,16,-4,-9
5,-24,-21,7,13,-28,-12,15,23,16,-3,-8
5,-22,-20,7,12,-26,-12,15,24,18,-3,-7
4,-20,-18,6,11,-24,-11,16,26,18,-2,-6
4,-18,-16,6,11,-22,-11,17,27,19,-1,-5
4,-15,-14,4,9,-18,-10,17,29,20,-0,-4
5,-11,-13,2,9,-15,-10,18,30,21,-0,-4
7,-5,-11,-2,9,-10,-9,18,31,22,0,-2
6,-1,-8,-3,7,-7,-9,18,32,23,1,-3
8,4,-6,-6,7,-2,-8,18,32,25,2,-2
8,7,-4,-8,7,1,-8,19,33,26,3,-2
10,11,-3,-11,7,3,-8,20,34,28,4,-0
11,15,-2,-13,7,6,-8,21,35,28,5,0
12,18,-0,-15,7,9,-7,22,36,31,6,2
14,20,-2,-17,9,9,-8,22,36,31,7,2
16,24,-2,-20,10,10,-9,22,37,31,8,3
18,27,-2,-24,11,13,-10,22,38,32,9,4
20,31,-2,-27,12,14,-11,22,39,33,10,6
22,32,-3,-29,14,13,-14,22,39,33,11,7
23,32,-4,-29,15,13,-15,22,39,34,12,7
24,31,-6,-29,16,11,-18,22,39,35,12,9
25,33,-5,-31,16,13,-20,23,39,36,13,9
27,33,-8,-33,19,11,-23,22,39,36,14,11
28,33,-9,-34,20,10,-25,21,39,36,15,12
31,33,-12,-35,23,8,-26,20,39,36,16,13
31,33,-13,-36,23,7,-29,20,39,37,16,15
33,32,-15,-36,25,4,-31,18,37,36,16,15
35,32,-17,-38,28,3,-33,17,36,35,16,16
36,30,-20,-38,30,0,-35,15,34,34,16,16
37,30,-21,-38,31,-1,-37,14,34,34,16,17
39,28,-24,-39,33,-4,-37,14,32,32,15,17
39,26,-25,-38,34,-6,-37,15,31,31,15,17
39,24,-27,-38,35,-8,-37,14,31,30,15,17
40,24,-29,-38,36,-10,-37,15,31,31,15,18
39,22,-29,-37,36,-10,-37,15,29,28,14,17
39,21,-29,-36,35,-11,-37,14,28,28,13,16
37,18,-29,-34,34,-13,-37,13,26,27,12,15
36,18,-28,-33,34,-12,-37,12,25,26,12,15
34,15,-27,-29,32,-13,-36,12,24,25,12,14
31,13,-26,-27,30,-13,-34,12,24,25,11,13
29,11,-25,-25,28,-13,-33,12,23,24,11,12
27,9,-24,-22,27,-13,-31,13,23,24,11,11
25,6,-24,-20,26,-15,-30,12,23,22,9,9
23,2,-24,-17,24,-17,-29,12,22,21,7,7
20,-2,-24,-13,23,-19,-28,12,21,19,5,4
18,-5,-23,-10,21,-20,-26,12,20,18,5,2
15,-11,-24,-5,20,-24,-26,11,19,16,3,0
14,-15,-25,-3,20,-27,-26,11,19,16,1,-2
12,-20,-26,1,20,-30,-25,10,18,14,-0,-4
11,-24,-28,4,20,-34,-24,10,18,13,-2,-6
10,-30,-30,6,20,-38,-24,10,17,11,-4,-8
8,-33,-31,9,20,-40,-24,10,17,10,-5,-9
8,-37,-33,11,21,-44,-24,10,16,9,-6,-11
7,-41,-34,13,21,-47,-23,10,16,8,-7,-12
8,-43,-37,13,23,-50,-24,10,15,7,-8,-13
8,-44,-38,14,23,-51,-24,9,14,6,-9,-14
8,-47,-40,15,24,-54,-24,9,13,5,-10,-15
8,-47,-40,15,24,-54,-25,9,13,4,-11,-15
8,-51,-42,17,25,-57,-25,10,13,5,-11,-15
6,-54,-42,20,24,-59,-24,11,15,6,-10,-15
6,-55,-43,20,24,-60,-23,13,14,7,-10,-15
5,-57,-43,22,24,-62,-22,15,15,8,-9,-14
3,-61,-43,25,23,-63,-24,13,15,7,-10,-15
0,-65,-43,29,21,-66,-25,12,13,7,-10,-16
-1,-68,-43,31,21,-68,-27,10,12,6,-10,-17
-3,-70,-43,33,20,-69,-27,9,12,6,-10,-17
15,-28,-34,3,25,-40,-30,8,15,-2,-20,-27
11,-2,-13,-6,12,-11,-37,2,2,-6,-24,-30
-6,-35,-16,20,5,-31,-26,14,15,8,-7,-14
2,-75,-51,32,26,-77,-20,18,24,13,-6,-11
4,-74,-52,30,28,-77,-19,18,25,11,-6,-12
-5,-72,-42,36,18,-69,-22,18,21,16,-1,-7
-9,-59,-29,33,9,-52,-20,18,22,11,-5,-13
9,-48,-42,15,26,-56,-35,4,12,3,-14,-20
-4,-76,-45,37,20,-73,-25,14,18,9,-8,-13
-6,-78,-44,39,19,-73,-28,11,18,10,-7,-11
6,-69,-51,26,29,-74,-26,9,15,1,-14,-20
5,-63,-47,24,26,-68,-31,5,5,1,-16,-20
-14,-58,-23,36,4,-47,-20,15,17,11,-8,-13
-10,-38,-14,25,1,-31,-24,8,15,11,-8,-15
-4,-20,-8,13,2,-16,-25,5,10,12,-6,-11
-14,-7,10,14,-12,4,-26,-2,7,21,4,1
-25,-4,25,20,-25,17,-32,-15,-1,22,14,11
2,22,13,-10,-5,21,-50,-34,-17,13,17,15
-2,24,17,-8,-9,25,-47,-30,-16,24,33,33
20,38,3,-30,10,22,-52,-17,-0,45,59,63
68,66,-31,-77,53,10,-54,8,27,67,90,97
115,85,-70,-118,97,-10,-73,10,36,92,132,147
142,102,-88,-145,121,-16,-89,6,45,118,177,201
198,117,-139,-191,176,-48,-119,-9,35,125,201,235
226,144,-152,-223,197,-44,-137,-22,28,133,229,273
253,171,-164,-255,218,-39,-170,-60,-15,131,254,320
287,240,-155,-309,232,1,-190,-87,-31,137,282,361
344,326,-162,-387,266,40,-220,-129,-51,142,301,393
301,329,-113,-357,218,79,-219,-147,-61,153,317,417
247,298,-74,-305,170,93,-214,-183,-98,140,300,402
199,278,-34,-262,125,114,-205,-218,-136,100,263,365
161,310,28,-248,73,178,-231,-278,-200,52,223,334
93,298,93,-195,4,222,-231,-314,-256,2,178,294
39,309,159,-161,-57,279,-227,-338,-297,-55,125,240
-20,281,206,-105,-113,300,-217,-362,-344,-123,61,178
-73,238,235,-49,-155,301,-211,-386,-396,-186,-5,115
-96,209,241,-20,-171,291,-199,-377,-398,-218,-50,61
-83,181,208,-18,-148,252,-198,-369,-405,-251,-102,-4
-106,117,191,26,-151,206,-178,-339,-387,-260,-122,-33
-111,59,160,55,-139,153,-157,-305,-366,-266,-132,-47
-99,35,131,57,-118,118,-133,-263,-325,-253,-131,-58
-78,49,118,36,-100,115,-122,-223,-269,-211,-108,-44
-80,33,109,44,-97,101,-100,-169,-204,-160,-80,-27
-51,9,61,33,-57,51,-86,-123,-161,-121,-64,-24
-37,-1,39,28,-39,29,-66,-81,-112,-90,-52,-21
-39,-4,40,31,-41,29,-57,-60,-81,-63,-35,-9
-37,-1,39,28,-39,29,-48,-44,-61,-44,-25,-3
-9,18,22,-1,-16,26,-52,-45,-57,-40,-27,-9
-24,7,30,15,-27,27,-41,-31,-35,-25,-17,-2
-24,1,27,17,-26,22,-36,-23,-20,-17,-13,-3
-21,-2,21,17,-22,15,-30,-18,-16,-22,-18,-10
-19,-9,15,18,-18,7,-31,-15,-19,-18,-16,-9
-40,-22,29,40,-36,11,-20,-2,-3,-10,-10,-2
-15,-4,14,13,-14,8,-17,3,-2,-9,-12,-12
-12,-6,9,12,-11,4,-14,10,-0,-6,-11,-10
-25,-26,10,30,-18,-5,-14,16,12,3,-3,-4
-29,-43,4,40,-18,-19,-6,21,20,6,-2,-2
-6,-35,-16,20,5,-31,-16,12,11,0,-12,-15
-17,-38,-7,29,-6,-25,-12,18,18,9,-3,-9
-16,-35,-6,27,-5,-22,-12,19,24,14,0,-7
-4,-24,-12,13,4,-21,-13,19,17,5,-5,-13
-12,-33,-9,24,-1,-24,-17,16,15,3,-6,-17
-28,-42,3,39,-16,-19,-8,26,26,13,5,-4
-12,-31,-7,23,-3,-21,-10,27,22,6,-1,-13
-18,-35,-3,29,-8,-20,-9,27,20,6,-2,-14
-28,-41,4,38,-17,-18,-10,29,27,13,3,-11
-20,-35,-1,31,-11,-19,-7,31,25,14,4,-10
-0,-26,-16,12,8,-26,-15,26,22,10,-4,-18
-20,-15,12,21,-16,1,-12,26,30,18,4,-8
-17,-78,-32,47,7,-64,-3,34,41,27,10,-4
-9,-33,-12,22,1,-26,-3,33,40,19,4,-9
-9,-26,-7,18,-1,-19,-9,28,31,13,2,-14
-11,-27,-6,20,-3,-19,-8,29,31,15,3,-13
-13,-27,-3,22,-5,-16,-7,30,32,16,3,-11
-15,-27,-2,23,-7,-16,-6,32,31,16,4,-10
-17,-28,0,26,-10,-14,-4,34,32,18,6,-8
-16,-28,-1,24,-8,-15,-4,33,32,17,6,-8
-16,-28,-1,24,-8,-15,-4,33,32,18,6,-8
-16,-28,-1,24,-8,-15,-4,32,31,18,6,-8
-16,-28,-0,25,-9,-15,-4,32,31,19,6,-8
-15,-26,-1,22,-7,-14,-3,32,31,19,6,-8
-13,-24,-1,20,-7,-13,-2,33,32,19,7,-7
-12,-22,-1,19,-6,-12,-2,34,32,19,8,-6
-11,-20,-1,17,-5,-11,-0,35,33,20,9,-4
-11,-20,-1,17,-5,-11,-0,35,34,20,9,-4
-11,-18,-0,17,-5,-10,1,35,33,20,9,-4
-11,-18,-0,17,-5,-10,0,35,33,20,9,-4
-10,-16,0,15,-6,-8,2,36,34,20,9,-4
-10,-16,0,15,-6,-8,2,36,34,20,9,-5
-10,-16,0,15,-6,-8,2,36,34,21,9,-4
-10,-16,0,15,-6,-8,2,36,34,21,9,-5
-10,-16,0,15,-6,-8,3,37,35,22,9,-5
-12,-17,1,17,-7,-7,3,37,35,22,9,-5
-12,-16,3,17,-8,-6,3,38,35,22,9,-4
-14,-17,4,18,-9,-6,3,38,35,22,9,-4
-14,-15,5,17,-10,-4,4,39,36,23,10,-4
-14,-13,7,17,-11,-1,5,39,36,23,10,-4
-14,-11,8,15,-11,0,5,40,37,24,10,-3
-14,-10,9,15,-11,1,6,41,38,24,11,-2
-13,-6,10,13,-12,4,7,42,39,25,11,-2
-12,-4,10,11,-11,6,7,42,39,25,11,-2
-12,-2,12,10,-12,7,7,43,39,25,11,-2
-12,0,13,9,-12,10,7,43,39,25,12,-3
-11,2,14,8,-12,11,8,43,40,25,12,-3
-12,2,15,9,-14,13,9,44,40,25,12,-3
-12,4,16,8,-14,14,10,44,40,25,12,-3
-13,5,17,8,-15,16,11,45,40,25,12,-2
-13,7,19,7,-16,18,12,46,40,25,12,-2
-14,7,20,8,-17,19,12,46,41,24,12,-2
-14,10,21,6,-18,21,12,46,40,24,12,-2
-14,11,22,6,-18,22,12,46,41,24,12,-2
-14,13,24,6,-19,25,13,47,40,24,12,-2
-14,13,24,5,-19,25,14,48,40,24,12,-2
-14,15,25,4,-19,26,15,48,40,24,13,-0
-15,15,26,5,-20,27,15,49,40,24,13,-0
-15,16,27,4,-21,29,17,50,42,25,14,0
-16,17,28,4,-22,30,17,50,42,24,14,0
-16,18,29,4,-23,32,18,51,42,24,14,0
-17,18,30,5,-24,33,20,51,42,23,14,0
-17,20,32,4,-25,34,20,52,42,23,14,0
-17,20,32,4,-25,34,21,52,42,23,14,0
-17,21,32,4,-24,35,22,53,42,23,14,0
-17,20,32,4,-25,34,23,53,43,23,14,0
-17,22,33,4,-25,37,25,54,43,23,14,1
-18,22,34,4,-26,37,26,55,43,22,13,0
-18,24,35,4,-27,39,27,56,43,21,13,0
-18,26,37,3,-28,41,28,57,43,20,12,0
-20,27,39,3,-30,44,30,57,42,20,12,0
-19,28,39,3,-29,44,30,57,42,19,11,-0
-21,27,41,4,-31,45,31,57,42,18,11,-0
-22,27,42,4,-32,45,32,57,42,17,10,-0
-22,30,43,4,-33,48,32,58,42,18,11,-0
-23,31,45,4,-34,50,33,58,41,16,10,-0
-24,33,47,3,-36,53,34,58,40,15,10,-0
-25,35,50,3,-38,57,35,58,39,15,9,-0
-25,38,53,3,-39,60,37,59,38,15,9,-1
-26,39,54,3,-40,61,37,58,36,13,8,-2
-27,41,56,3,-42,63,38,58,35,11,7,-2
-28,41,58,4,-44,65,39,58,33,9,6,-2
-29,43,59,3,-45,67,40,58,32,8,5,-2
-29,44,61,3,-45,69,40,57,30,6,4,-2
-31,46,63,3,-47,72,41,56,28,4,3,-2
-31,48,65,2,-48,74,42,56,26,2,3,-2
-30,52,67,0,-49,77,43,55,24,2,2,-2
-32,53,70,1,-51,80,43,52,21,-1,0,-4
-32,55,72,0,-53,83,43,51,17,-4,-1,-5
-33,58,74,0,-54,86,43,49,13,-7,-3,-6
-35,59,76,0,-56,89,43,48,11,-9,-5,-7
-36,61,79,1,-58,92,42,44,6,-13,-8,-8
-37,63,82,1,-60,95,41,42,1,-17,-9,-9
-39,64,84,1,-62,97,40,39,-3,-21,-12,-10
-40,66,88,1,-65,101,40,36,-7,-24,-13,-11
-41,69,90,1,-67,104,39,32,-12,-29,-16,-12
-43,70,92,1,-68,107,38,29,-17,-34,-17,-13
-43,72,95,1,-70,110,37,26,-23,-39,-19,-14
-46,74,98,2,-73,113,36,22,-28,-42,-21,-15
-48,72,100,4,-75,113,35,17,-34,-48,-24,-16
-50,72,102,6,-77,115,33,14,-39,-53,-26,-17
-51,72,103,6,-79,116,32,10,-45,-57,-29,-18
-54,72,105,8,-81,117,31,6,-50,-62,-30,-19
-54,72,106,8,-81,118,28,0,-57,-68,-33,-20
-55,72,107,9,-82,118,26,-5,-63,-72,-35,-21
-56,72,108,10,-83,119,23,-11,-69,-78,-37,-22
-56,74,109,9,-84,121,21,-16,-76,-82,-39,-23
-56,74,109,9,-84,121,18,-21,-82,-87,-41,-24
-57,74,110,10,-85,122,15,-27,-88,-91,-43,-24
-57,74,110,10,-85,122,11,-32,-94,-96,-45,-25
-57,75,112,10,-86,124,8,-38,-99,-99,-46,-25
-56,75,110,8,-84,123,5,-44,-105,-103,-47,-25
-55,75,109,8,-83,122,1,-48,-110,-106,-48,-25
-53,76,108,6,-82,121,-3,-54,-116,-109,-49,-25
-54,76,108,6,-82,121,-6,-59,-121,-111,-49,-24
-52,75,106,6,-80,119,-10,-63,-124,-113,-49,-24
-49,76,103,3,-78,118,-12,-66,-127,-114,-48,-23
-47,75,101,2,-75,115,-16,-70,-129,-115,-48,-22
-46,76,100,1,-74,115,-19,-73,-132,-116,-47,-21
-44,72,95,1,-70,109,-22,-75,-133,-116,-46,-21
-42,69,91,1,-68,104,-25,-77,-134,-115,-46,-20
-41,65,88,3,-65,100,-27,-78,-135,-115,-45,-19
-39,63,84,2,-63,96,-30,-80,-136,-114,-44,-18
-36,59,78,1,-57,89,-32,-80,-133,-111,-42,-17
-32,58,73,-1,-53,85,-33,-79,-130,-109,-41,-16
-29,53,67,-1,-48,78,-35,-79,-128,-106,-39,-15
-26,52,62,-3,-44,74,-36,-78,-124,-102,-36,-13
-23,48,56,-3,-40,67,-36,-74,-118,-98,-34,-14
-20,44,51,-3,-36,62,-36,-71,-113,-93,-32,-13
-17,41,45,-4,-31,55,-36,-68,-108,-89,-30,-12
-14,38,41,-5,-27,51,-36,-64,-101,-85,-28,-11
-12,35,36,-5,-24,45,-35,-60,-95,-79,-26,-11
-8,33,30,-8,-19,40,-34,-56,-87,-73,-24,-10
-6,30,26,-7,-16,35,-33,-52,-81,-68,-21,-10
-4,28,22,-8,-12,31,-32,-48,-74,-62,-18,-9
-3,24,18,-7,-10,26,-31,-44,-67,-57,-17,-9
-2,22,16,-7,-9,24,-29,-39,-61,-52,-14,-8
1,21,13,-8,-5,20,-28,-35,-55,-46,-12,-8
2,18,10,-8,-4,17,-27,-30,-48,-40,-9,-7
3,17,8,-8,-2,15,-26,-27,-43,-37,-8,-7
4,15,5,-8,0,12,-24,-23,-38,-32,-6,-7
5,13,3,-8,2,9,-23,-19,-32,-27,-4,-7
5,11,1,-8,2,7,-21,-15,-27,-22,-2,-6
6,11,0,-8,3,6,-20,-13,-23,-20,-1,-6
7,11,-0,-9,4,5,-19,-10,-19,-17,-1,-6
8,11,-2,-10,6,4,-18,-7,-16,-14,0,-6
8,11,-2,-10,6,4,-17,-4,-12,-10,1,-6
8,9,-3,-9,7,2,-17,-3,-9,-9,1,-7
9,10,-3,-10,7,2,-16,-1,-7,-7,2,-7
8,7,-4,-8,7,1,-15,1,-4,-5,2,-8
8,7,-4,-8,7,1,-14,3,-0,-2,3,-8
8,5,-5,-7,7,-1,-14,4,2,-1,3,-8
9,6,-6,-8,8,-1,-14,5,4,-0,3,-8
8,4,-7,-6,8,-3,-12,6,5,1,3,-8
8,4,-7,-6,8,-3,-11,8,7,3,4,-8
8,4,-7,-6,8,-3,-11,9,8,3,4,-8
8,4,-7,-6,8,-3,-11,10,10,4,4,-8
8,4,-7,-6,8,-3,-10,11,11,5,4,-8
7,4,-5,-6,7,-2,-9,13,12,7,5,-7
7,4,-5,-6,7,-2,-9,13,12,7,5,-7
7,4,-5,-6,7,-2,-8,14,13,8,6,-7
7,4,-5,-6,7,-2,-8,15,14,8,6,-7
6,4,-4,-5,6,-1,-7,15,15,9,7,-6
6,2,-5,-4,6,-3,-7,15,14,9,6,-6
6,2,-5,-4,6,-3,-7,15,14,9,6,-6
5,0,-5,-3,5,-4,-7,15,14,9,6,-6
5,0,-5,-3,5,-4,-7,15,14,9,6,-6
5,-1,-7,-2,6,-6,-7,15,14,9,6,-6
5,-1,-7,-2,6,-6,-6,15,14,9,6,-6
5,-1,-7,-2,6,-6,-6,15,14,9,6,-6
5,-1,-7,-2,6,-6,-5,15,15,9,6,-6
5,-1,-7,-2,6,-6,-5,15,15,9,6,-6
5,-1,-7,-2,6,-6,-4,15,15,9,6,-6
5,-1,-7,-2,6,-6,-3,15,15,9,6,-6
5,-1,-7,-2,6,-6,-2,15,15,9,6,-6
4,-1,-5,-1,5,-4,-2,14,14,8,6,-7
4,0,-4,-2,4,-3,-2,14,14,8,6,-7
4,2,-3,-3,4,-1,-2,14,14,8,6,-7
4,4,-2,-3,3,1,-1,14,14,8,6,-7
3,2,-2,-2,3,0,-1,13,13,7,5,-8
2,2,-0,-1,1,1,-1,13,13,7,5,-8
2,2,-0,-1,1,1,-1,12,12,7,5,-8
1,2,0,-1,0,1,-1,12,12,7,5,-8
2,2,-0,-1,1,1,-1,11,12,6,4,-9
2,2,-0,-1,1,1,-1,11,12,6,4,-9
2,2,-0,-1,1,1,-1,10,11,5,4,-9
3,4,-0,-3,2,1,-1,10,11,5,4,-9
3,4,-0,-3,2,1,-1,10,11,4,4,-9
3,4,-0,-3,2,1,-1,9,11,4,4,-9
3,4,-0,-3,2,1,-1,8,11,4,4,-9
3,4,-0,-3,2,1,-0,8,11,4,4,-9
3,4,-0,-3,2,1,-0,7,11,4,3,-10
3,4,-0,-3,2,1,-0,7,11,4,3,-10
3,4,-0,-3,2,1,-0,6,11,4,3,-10
3,4,-0,-3,2,1,0,6,11,4,3,-10
3,4,-0,-3,2,1,0,6,11,3,3,-10
3,4,-0,-3,2,1,0,6,11,3,3,-10
3,4,-0,-3,2,1,0,6,11,3,3,-10
3,4,-0,-3,2,1,2,6,11,3,3,-10
4,4,-2,-3,3,1,2,6,11,3,3,-10
4,4,-2,-3,3,1,2,6,11,3,3,-10
4,4,-2,-3,3,1,2,6,11,3,3,-10
4,4,-2,-3,3,1,2,6,12,4,3,-10
5,4,-3,-4,4,0,2,5,11,4,2,-11
5,4,-3,-4,4,0,2,5,11,4,2,-11
5,4,-3,-4,4,0,2,5,11,4,2,-12
5,4,-3,-4,4,0,2,5,11,4,2,-12
5,4,-3,-4,4,0,2,5,11,3,1,-13
5,4,-3,-4,4,0,2,5,11,3,1,-13
5,4,-3,-4,4,0,2,5,11,3,1,-13
5,4,-3,-4,4,0,2,5,12,3,1,-13
5,2,-4,-4,5,-2,2,5,12,3,0,-14
5,2,-4,-4,5,-2,2,5,12,3,0,-14
5,0,-5,-3,5,-4,2,5,12,3,0,-15
5,0,-5,-3,5,-4,3,5,12,4,0,-15
5,0,-5,-3,5,-4,3,5,12,4,0,-15
5,0,-5,-3,5,-4,4,5,13,5,0,-15
5,0,-5,-3,5,-4,4,5,14,5,0,-15
6,2,-5,-4,6,-3,5,6,15,6,1,-14
6,0,-7,-3,7,-5,5,6,15,6,1,-15
6,0,-7,-3,7,-5,5,6,16,7,1,-15
6,-1,-8,-3,7,-7,5,6,16,7,1,-15
6,-1,-8,-3,7,-7,6,7,17,8,1,-15
8,-1,-9,-4,9,-7,6,6,17,8,0,-16
8,-1,-9,-4,9,-7,6,6,17,8,0,-16
8,-1,-10,-4,10,-8,6,6,17,8,-1,-16
8,-1,-10,-4,10,-8,6,6,17,8,-1,-16
8,-1,-10,-4,10,-8,5,6,17,8,-1,-17
8,-1,-10,-4,10,-8,5,6,17,8,-1,-17
8,-1,-10,-4,10,-8,5,6,17,8,-1,-17
8,-1,-9,-4,9,-7,5,6,17,8,-1,-17
8,-1,-10,-4,10,-8,4,5,17,8,-1,-17
8,-1,-10,-4,10,-8,4,5,17,8,-1,-17
8,-1,-10,-4,10,-8,3,5,17,8,-1,-17
8,-1,-10,-4,10,-8,3,5,17,9,-1,-17
8,-1,-9,-4,9,-7,2,5,17,9,-1,-17
7,0,-8,-4,8,-6,2,5,17,9,-1,-16
8,2,-7,-5,8,-4,2,5,17,9,-1,-15
7,4,-5,-6,7,-2,2,5,18,9,0,-14
6,0,-7,-3,7,-5,2,5,18,9,0,-14
6,-1,-8,-3,7,-7,2,5,18,10,0,-14
6,-4,-9,-2,8,-9,2,5,18,10,0,-14
5,-5,-9,-1,8,-10,2,5,18,11,1,-13
5,-7,-10,1,8,-11,2,5,18,10,0,-13
6,-7,-12,-1,9,-13,2,5,18,10,0,-13
6,-9,-13,0,10,-14,2,5,18,10,0,-13
6,-9,-13,0,10,-14,3,5,19,10,0,-13
6,-11,-14,1,11,-16,3,5,19,10,0,-13
6,-11,-14,1,11,-16,3,5,19,10,0,-13
6,-13,-15,2,11,-18,3,5,19,10,0,-13
6,-13,-15,2,11,-18,4,6,20,11,0,-12
8,-13,-16,1,12,-19,4,6,20,11,-1,-13
8,-11,-16,-1,13,-18,4,6,21,11,-1,-13
8,-11,-16,-1,13,-18,4,6,22,11,-1,-13
10,-9,-16,-2,13,-17,4,6,23,12,-1,-13
8,-11,-16,-1,13,-18,4,6,23,12,-1,-13
8,-13,-16,1,12,-19,4,6,23,12,0,-13
6,-15,-16,3,11,-20,4,6,23,12,0,-13
6,-15,-16,3,11,-20,4,6,24,12,1,-12
6,-15,-16,3,11,-20,3,6,25,12,1,-12
6,-15,-16,3,11,-20,3,6,26,12,1,-12
6,-15,-16,3,11,-20,3,6,27,12,1,-12
6,-15,-16,3,11,-20,3,6,28,13,2,-11
6,-18,-19,4,13,-24,3,6,28,13,2,-11
6,-20,-20,5,13,-25,4,6,28,13,2,-11
6,-22,-21,6,14,-28,4,6,28,13,2,-11
6,-24,-22,6,14,-29,5,7,29,13,2,-10
8,-24,-24,6,16,-30,5,7,28,13,2,-10
8,-24,-24,6,16,-30,5,7,27,13,2,-10
8,-24,-25,5,17,-31,5,7,26,13,2,-10
8,-24,-25,5,17,-31,6,8,25,13,3,-10
8,-26,-26,6,18,-33,6,8,24,13,3,-10
8,-27,-27,6,18,-34,7,9,23,13,3,-10
8,-30,-29,8,19,-37,7,9,23,13,3,-10
8,-31,-29,9,18,-37,8,10,22,14,3,-10
8,-31,-29,9,18,-37,8,10,21,14,3,-10
6,-31,-27,10,17,-37,8,10,21,14,4,-10
6,-31,-27,10,17,-37,8,10,21,14,4,-10
5,-31,-26,10,16,-36,8,10,21,15,4,-10
4,-33,-26,12,15,-37,8,10,21,15,4,-10
4,-33,-26,12,15,-37,8,10,21,15,4,-10
4,-33,-26,12,15,-37,8,10,21,15,4,-10
4,-33,-26,12,15,-37,8,10,21,16,4,-10
5,-33,-27,11,16,-37,8,10,20,15,4,-11
5,-33,-27,11,16,-37,8,10,20,15,4,-11
5,-33,-27,11,16,-37,8,9,20,14,4,-11
5,-33,-27,11,16,-37,8,9,20,14,4,-11
5,-35,-29,12,17,-39,8,9,20,14,4,-11
5,-35,-29,12,17,-39,9,9,20,14,4,-11
6,-35,-29,11,18,-40,9,9,20,14,4,-11
6,-35,-29,11,18,-40,10,10,20,14,4,-10
6,-35,-29,11,18,-40,10,10,20,13,3,-11
6,-35,-29,11,18,-40,10,10,20,13,3,-11
6,-35,-29,11,18,-40,10,10,20,13,3,-11
7,-33,-29,10,19,-39,10,10,21,13,3,-11
6,-35,-29,11,18,-40,10,10,21,13,3,-11
6,-35,-29,11,18,-40,11,10,22,14,4,-11
5,-37,-29,13,17,-41,11,10,22,14,4,-11
5,-37,-29,13,17,-41,12,11,23,15,4,-10
5,-37,-29,13,17,-41,12,11,22,14,4,-10
5,-37,-29,13,17,-41,12,11,22,14,4,-10
5,-37,-29,13,17,-41,12,11,22,14,4,-10
4,-37,-29,14,16,-40,12,11,22,14,4,-10
5,-37,-29,13,17,-41,12,10,21,14,4,-10
5,-37,-29,13,17,-41,12,10,21,14,4,-10
5,-37,-29,13,17,-41,12,10,20,14,4,-10
6,-35,-29,11,18,-40,13,10,20,14,4,-9
6,-35,-29,11,18,-40,13,10,20,14,4,-9
6,-35,-29,11,18,-40,13,10,20,14,4,-9
6,-35,-29,11,18,-40,13,10,20,14,4,-9
6,-33,-29,11,18,-39,13,10,20,14,5,-8
6,-33,-29,11,18,-39,13,10,19,13,4,-9
6,-31,-27,10,17,-37,13,10,19,13,4,-9
7,-30,-27,8,17,-36,13,10,19,13,4,-10
8,-27,-26,7,17,-34,14,10,19,13,4,-10
6,-30,-26,9,16,-35,14,10,19,13,4,-11
6,-30,-26,9,16,-35,14,10,19,13,4,-11
6,-30,-26,9,16,-35,14,10,19,13,4,-11
6,-30,-26,9,16,-35,15,10,20,13,4,-11
6,-30,-26,9,16,-35,15,10,19,12,3,-12
6,-27,-25,8,16,-33,15,10,19,12,3,-13
