I,II,III,aVR,aVL,aVF,V1,V2,V3,V4,V5,V6
15,-30,-48,10,36,-47,26,18,13,9,-33,-46
15,-33,-51,11,37,-50,25,18,13,7,-33,-46
15,-36,-55,13,39,-55,23,18,13,6,-33,-46
15,-38,-57,14,41,-57,23,18,12,5,-33,-46
15,-39,-58,14,41,-58,22,18,11,5,-33,-46
15,-39,-58,15,41,-59,22,18,10,4,-33,-46
15,-39,-58,15,41,-59,22,18,9,4,-33,-46
15,-39,-58,15,41,-59,22,18,8,4,-33,-46
15,-39,-58,15,41,-59,22,18,8,4,-33,-46
15,-39,-58,15,41,-59,22,18,8,4,-33,-46
15,-39,-58,15,41,-59,22,18,8,4,-33,-46
14,-39,-58,15,41,-58,21,18,8,4,-33,-46
11,-39,-55,16,37,-56,20,18,8,4,-33,-46
9,-39,-52,18,34,-55,19,18,8,4,-33,-46
5,-39,-48,20,30,-53,17,18,8,4,-33,-46
3,-39,-46,21,28,-51,17,18,8,4,-33,-46
2,-39,-45,22,27,-51,16,18,8,4,-33,-46
1,-39,-45,22,26,-50,16,18,8,4,-33,-46
1,-39,-45,22,26,-50,16,18,8,4,-33,-46
3,-39,-46,21,28,-51,16,18,8,4,-33,-46
6,-39,-49,19,31,-53,16,17,8,3,-33,-46
9,-39,-52,18,34,-55,16,16,8,2,-33,-46
12,-39,-55,16,38,-57,16,15,8,0,-33,-46
14,-39,-58,15,41,-58,16,15,8,-1,-33,-46
15,-39,-58,15,41,-59,16,14,8,-1,-33,-46
15,-39,-58,15,41,-59,16,14,8,-1,-33,-46
15,-39,-58,15,41,-59,16,14,8,-1,-33,-46
14,-39,-58,15,41,-58,16,15,8,-1,-33,-46
11,-39,-55,16,37,-56,16,15,8,-1,-33,-46
9,-39,-52,18,34,-55,16,16,8,-1,-33,-46
5,-39,-48,20,30,-53,16,17,8,-1,-33,-46
3,-39,-46,21,28,-51,16,18,8,-1,-33,-46
2,-39,-45,22,27,-51,16,18,8,-1,-33,-46
1,-39,-45,22,26,-50,16,18,8,-1,-33,-46
1,-39,-45,22,26,-50,16,18,8,-1,-33,-46
1,-39,-45,22,26,-50,16,18,8,-1,-33,-46
1,-39,-45,22,26,-50,16,18,8,-1,-33,-46
1,-39,-45,22,26,-50,16,18,8,-1,-33,-46
1,-39,-45,22,26,-50,16,18,8,-1,-33,-46
1,-39,-45,22,26,-50,16,18,8,-2,-33,-46
1,-39,-45,22,26,-50,16,17,7,-3,-33,-46
1,-39,-45,22,26,-50,16,16,6,-4,-33,-46
1,-39,-45,22,26,-50,16,15,5,-6,-33,-46
1,-39,-45,22,26,-50,16,15,4,-6,-33,-46
1,-39,-45,22,26,-50,16,14,4,-7,-33,-46
1,-39,-45,22,26,-50,16,14,3,-7,-33,-46
1,-39,-45,22,26,-50,16,14,3,-7,-33,-46
0,-39,-43,22,24,-49,16,14,3,-7,-33,-46
-3,-39,-40,24,21,-48,16,14,3,-7,-33,-46
-6,-39,-37,25,18,-46,16,14,3,-7,-33,-46
-9,-39,-34,28,14,-44,16,14,3,-7,-33,-46
-13,-41,-31,30,11,-43,16,14,3,-7,-34,-46
-16,-43,-31,34,8,-45,16,14,1,-7,-35,-46
-19,-45,-31,36,7,-46,16,14,-0,-7,-36,-46
-19,-46,-31,37,7,-47,16,14,-1,-7,-36,-46
-20,-46,-30,37,6,-46,16,14,-1,-7,-36,-46
-20,-46,-30,37,6,-46,16,14,-1,-7,-36,-46
-20,-46,-30,37,6,-46,16,14,-1,-7,-36,-46
-20,-46,-30,37,6,-46,16,14,-1,-7,-36,-46
-13,-43,-34,31,11,-46,17,16,-1,-6,-34,-45
-4,-38,-38,24,20,-46,20,18,-1,-4,-30,-44
0,-37,-40,21,23,-46,20,18,-1,-3,-29,-43
1,-36,-40,20,23,-46,20,18,-1,-3,-28,-43
4,-35,-42,18,25,-46,20,18,-1,-3,-28,-44
7,-33,-44,16,28,-46,19,18,-1,-3,-28,-45
8,-31,-42,13,28,-43,20,19,-0,-2,-28,-44
7,-25,-35,11,24,-36,21,19,1,0,-27,-41
6,-20,-28,9,19,-28,23,20,2,1,-26,-40
4,-14,-20,6,14,-20,25,21,3,3,-24,-38
2,-7,-10,4,7,-10,27,22,5,4,-20,-36
4,-3,-8,0,7,-6,28,23,6,4,-17,-36
7,-2,-9,-2,10,-6,28,24,7,4,-15,-37
8,-3,-11,-2,11,-8,29,25,7,5,-14,-36
12,-4,-17,-4,16,-12,29,26,8,6,-14,-35
16,-7,-25,-4,24,-19,28,26,8,6,-14,-35
19,-11,-31,-4,28,-25,28,27,8,6,-14,-34
25,-12,-39,-6,36,-30,26,28,8,7,-13,-33
33,-13,-47,-10,46,-35,23,28,7,7,-12,-32
41,-11,-55,-15,54,-38,21,29,7,8,-12,-32
48,-9,-58,-19,60,-39,19,28,8,9,-12,-30
49,-8,-58,-20,60,-38,17,26,8,9,-11,-28
46,-9,-57,-19,59,-38,17,24,8,9,-11,-25
44,-9,-55,-17,56,-37,15,22,8,9,-10,-20
44,-9,-55,-17,55,-37,13,20,8,8,-10,-19
44,-9,-55,-17,55,-37,12,19,7,6,-10,-19
41,-9,-53,-16,53,-36,12,19,7,4,-11,-19
38,-11,-50,-13,50,-36,13,18,7,3,-12,-19
36,-14,-52,-10,50,-38,13,18,6,2,-12,-20
33,-19,-54,-6,49,-43,14,18,5,1,-13,-21
31,-23,-56,-3,49,-47,14,18,5,1,-12,-21
29,-26,-58,0,49,-49,13,17,3,-1,-11,-23
26,-31,-61,4,49,-55,11,16,1,-4,-12,-25
26,-35,-65,7,51,-60,10,15,0,-5,-13,-25
26,-40,-70,10,54,-66,9,15,-0,-6,-14,-27
24,-45,-74,13,55,-72,9,14,-2,-8,-15,-29
23,-47,-74,15,54,-72,10,14,-4,-9,-17,-30
22,-44,-71,13,52,-69,10,14,-4,-10,-18,-30
21,-40,-65,12,48,-63,10,13,-4,-10,-18,-30
19,-35,-58,10,44,-56,11,13,-4,-10,-18,-30
19,-31,-53,8,41,-50,11,13,-4,-10,-18,-30
16,-31,-51,10,38,-49,11,12,-5,-11,-18,-32
14,-32,-49,11,35,-49,11,11,-6,-12,-19,-34
9,-33,-45,14,31,-47,11,11,-6,-12,-21,-34
3,-34,-40,18,24,-44,11,11,-6,-12,-21,-35
-3,-37,-37,22,20,-44,12,10,-7,-13,-22,-36
-9,-39,-33,27,13,-43,14,11,-7,-13,-23,-37
-14,-39,-28,30,8,-41,15,11,-7,-13,-24,-38
-16,-41,-28,31,7,-42,15,11,-7,-13,-25,-39
-17,-42,-28,33,7,-43,16,11,-8,-14,-25,-39
-19,-43,-28,35,5,-43,17,11,-8,-14,-25,-39
-20,-46,-30,37,6,-46,16,10,-9,-15,-25,-40
-20,-48,-32,38,7,-49,16,9,-10,-18,-26,-41
-20,-49,-33,38,7,-49,17,8,-10,-18,-29,-41
-20,-53,-37,40,10,-55,15,8,-10,-18,-32,-43
-20,-57,-42,43,12,-60,14,7,-13,-21,-34,-45
-20,-55,-40,42,11,-58,15,8,-13,-21,-36,-45
-20,-51,-36,40,9,-53,16,8,-13,-21,-37,-46
-20,-52,-36,40,9,-54,15,8,-12,-21,-37,-46
-20,-53,-37,40,10,-55,16,8,-12,-21,-38,-46
-18,-51,-37,38,11,-54,17,8,-11,-20,-38,-46
-14,-50,-40,36,15,-55,14,8,-12,-20,-37,-50
-14,-52,-43,37,16,-58,12,8,-12,-21,-36,-53
-16,-53,-42,38,15,-57,11,8,-11,-20,-36,-53
-19,-51,-37,39,11,-54,9,8,-11,-20,-36,-55
-22,-55,-37,43,8,-56,8,8,-12,-21,-36,-56
-28,-55,-32,46,2,-54,9,9,-10,-21,-37,-54
-34,-53,-24,48,-6,-48,10,9,-6,-20,-37,-53
-35,-54,-23,49,-7,-48,11,9,-6,-20,-36,-52
-34,-55,-26,49,-4,-50,13,10,-8,-20,-37,-50
-26,-53,-32,44,3,-52,14,10,-8,-19,-37,-48
-14,-51,-42,36,15,-56,15,10,-10,-19,-38,-46
-6,-50,-49,31,24,-60,16,9,-11,-20,-38,-46
-4,-49,-50,30,26,-60,17,10,-10,-19,-38,-46
-5,-49,-49,31,24,-60,16,10,-10,-18,-38,-46
-8,-51,-48,34,23,-60,15,10,-11,-20,-38,-47
-15,-52,-42,37,15,-57,16,10,-11,-19,-37,-46
-28,-50,-26,43,-1,-47,17,11,-10,-18,-34,-44
-42,-50,-12,51,-17,-38,17,11,-10,-18,-32,-44
-39,-57,-23,52,-9,-49,17,11,-13,-23,-36,-46
-24,-50,-30,41,3,-49,20,14,-8,-18,-36,-46
-28,-50,-26,43,-1,-47,25,21,0,-16,-36,-48
-46,-60,-19,58,-15,-49,31,26,3,-15,-33,-53
-49,-63,-19,62,-17,-51,38,33,8,-13,-36,-55
-56,-67,-15,67,-24,-51,52,39,15,-12,-36,-59
-60,-70,-15,71,-25,-53,58,44,18,-12,-41,-68
-60,-70,-15,71,-25,-53,59,50,24,-9,-41,-70
-67,-60,3,69,-40,-36,68,56,32,3,-41,-70
-67,-50,14,63,-46,-23,73,62,42,15,-35,-68
-64,-40,21,56,-48,-13,76,69,50,29,-25,-59
-39,-13,25,28,-36,7,79,85,72,53,5,-44
-14,17,32,-2,-26,30,82,98,91,79,30,-22
40,30,-8,-37,27,14,71,99,97,103,51,-7
119,40,-77,-84,111,-19,55,95,95,114,73,22
161,53,-107,-113,151,-27,31,81,88,132,101,48
211,70,-139,-149,198,-36,4,63,74,139,125,70
265,83,-180,-184,250,-51,-35,40,64,154,154,103
311,127,-180,-233,277,-23,-61,19,60,173,191,156
344,180,-154,-280,281,26,-91,-6,53,188,223,204
322,237,-70,-300,222,111,-119,-38,35,188,236,235
329,287,-23,-332,200,170,-151,-87,-5,157,217,257
290,320,54,-331,135,236,-188,-144,-56,104,186,261
251,340,116,-321,78,285,-218,-202,-114,41,138,257
194,340,174,-291,13,319,-236,-253,-177,-32,76,235
136,313,204,-246,-36,319,-265,-302,-240,-106,12,211
76,270,218,-190,-79,300,-281,-336,-285,-161,-43,182
36,237,222,-151,-103,281,-295,-348,-306,-202,-78,158
11,213,222,-125,-117,266,-292,-339,-303,-211,-103,140
11,173,178,-103,-93,215,-287,-320,-282,-208,-103,116
19,123,116,-78,-54,147,-275,-291,-268,-208,-112,90
33,77,50,-60,-10,78,-256,-256,-249,-196,-115,77
8,53,50,-34,-24,64,-226,-221,-225,-185,-115,57
36,30,-4,-35,23,17,-196,-192,-197,-174,-112,35
51,13,-37,-34,50,-13,-170,-161,-178,-161,-112,20
65,10,-55,-39,68,-26,-145,-138,-157,-142,-104,2
61,33,-26,-50,50,7,-121,-113,-131,-126,-96,-9
36,-7,-45,-15,46,-30,-103,-90,-108,-113,-85,-13
19,-3,-23,-7,24,-14,-82,-70,-93,-95,-78,-15
11,-3,-15,-4,15,-10,-70,-58,-78,-82,-65,-26
4,-17,-23,7,15,-23,-58,-47,-67,-75,-64,-26
4,-17,-23,7,15,-23,-44,-35,-60,-63,-59,-31
1,-20,-23,11,13,-26,-32,-25,-48,-54,-56,-33
-3,-27,-26,17,13,-32,-25,-22,-40,-48,-48,-35
-3,-27,-26,17,13,-32,-14,-13,-32,-41,-45,-35
-3,-23,-23,15,11,-27,-7,-5,-28,-32,-38,-35
-6,-23,-19,17,7,-26,-1,1,-25,-26,-33,-35
-10,-27,-19,21,5,-27,4,7,-19,-28,-30,-46
-10,-27,-19,21,5,-27,11,14,-13,-23,-30,-46
-17,-43,-30,34,7,-44,8,14,-7,-19,-27,-48
-17,-47,-34,36,9,-49,10,14,-6,-25,-27,-50
-16,-46,-34,35,10,-49,14,17,-4,-19,-25,-44
-18,-47,-34,37,9,-49,17,19,-3,-17,-23,-43
-19,-49,-34,38,8,-50,18,20,-3,-16,-22,-43
-20,-47,-31,37,6,-47,20,22,-4,-14,-21,-43
-20,-46,-30,37,6,-46,21,23,-3,-13,-19,-43
-20,-48,-32,38,7,-49,22,25,-2,-13,-17,-43
-20,-49,-33,38,7,-49,23,26,-0,-12,-17,-41
-20,-49,-34,39,7,-50,24,28,2,-11,-18,-39
-19,-51,-37,39,11,-54,24,28,2,-10,-18,-41
-17,-52,-39,39,12,-55,23,28,3,-10,-19,-43
-16,-50,-38,37,12,-54,22,27,3,-10,-20,-43
-18,-51,-37,38,11,-54,20,27,3,-10,-19,-43
-19,-52,-37,40,10,-55,20,28,3,-9,-19,-43
-20,-51,-36,40,9,-53,21,29,4,-8,-18,-42
-22,-50,-32,40,6,-50,22,30,4,-7,-17,-41
-23,-49,-31,40,4,-49,22,31,5,-7,-16,-41
-21,-49,-33,39,7,-50,22,32,5,-7,-16,-41
-20,-49,-34,39,7,-50,22,32,5,-7,-16,-41
-20,-49,-34,39,7,-50,22,32,4,-7,-17,-41
-20,-49,-34,39,7,-50,23,33,4,-6,-18,-41
-20,-49,-34,39,7,-50,23,33,4,-6,-18,-41
-21,-51,-34,40,7,-51,23,32,5,-6,-18,-42
-23,-52,-34,42,6,-52,24,32,5,-7,-18,-43
-20,-51,-36,40,9,-53,25,32,6,-6,-18,-43
-15,-50,-39,37,14,-55,24,33,6,-6,-18,-42
-14,-49,-40,35,15,-55,24,33,7,-6,-17,-41
-13,-47,-39,34,15,-52,25,34,8,-5,-17,-41
-13,-47,-38,34,14,-51,25,34,10,-4,-18,-41
-13,-47,-39,34,15,-52,24,35,11,-4,-18,-40
-15,-45,-34,34,11,-49,25,35,11,-4,-18,-39
-16,-43,-31,33,8,-44,26,35,11,-4,-18,-39
-13,-41,-31,30,11,-43,26,35,11,-5,-18,-40
-11,-40,-33,28,12,-44,25,35,10,-5,-18,-41
-11,-39,-32,28,12,-43,26,35,11,-4,-18,-41
-14,-41,-31,31,10,-44,26,36,12,-3,-16,-41
-16,-42,-30,32,8,-43,26,36,12,-3,-15,-40
-16,-39,-26,31,6,-40,26,37,12,-3,-16,-39
-16,-37,-24,30,4,-37,26,38,10,-3,-17,-37
-14,-37,-26,28,7,-37,26,38,8,-3,-20,-38
-11,-36,-28,26,10,-39,26,39,5,-3,-23,-39
-10,-36,-29,26,11,-39,26,39,3,-3,-24,-39
-12,-37,-28,28,9,-40,26,39,3,-3,-24,-39
-15,-39,-27,30,7,-40,27,39,3,-3,-24,-39
-16,-39,-27,31,7,-40,28,40,8,-2,-22,-39
-15,-39,-28,31,7,-41,28,40,13,-1,-20,-39
-14,-39,-29,30,9,-42,28,40,15,-1,-19,-39
-13,-38,-28,28,9,-40,28,41,17,-1,-19,-38
-11,-37,-28,27,10,-39,28,42,18,0,-18,-37
-8,-36,-31,25,13,-41,27,42,18,-1,-18,-37
-4,-36,-35,23,17,-43,26,42,18,-1,-18,-37
-3,-36,-36,22,19,-43,25,43,18,-0,-17,-37
-5,-36,-34,23,16,-43,23,43,19,0,-16,-37
-8,-36,-31,25,13,-41,23,43,18,0,-15,-37
-9,-36,-31,25,12,-40,24,44,19,1,-14,-36
-9,-36,-30,25,11,-40,25,45,19,3,-13,-35
-9,-36,-30,25,11,-40,25,46,19,3,-12,-35
-7,-34,-30,23,13,-38,26,46,18,4,-12,-35
-4,-31,-30,19,15,-37,26,47,18,4,-12,-35
-1,-30,-31,18,17,-37,24,48,17,4,-12,-35
1,-29,-32,16,19,-37,24,48,18,5,-12,-34
1,-27,-31,15,18,-34,23,49,20,6,-12,-33
-2,-27,-28,17,15,-33,23,49,20,6,-11,-32
-4,-29,-27,19,13,-33,24,49,20,6,-11,-32
-1,-28,-29,17,15,-34,25,51,21,6,-10,-31
3,-27,-32,14,20,-35,25,51,21,7,-9,-30
8,-26,-36,11,25,-37,25,51,22,7,-8,-30
13,-24,-39,7,29,-37,25,52,24,8,-7,-29
18,-20,-40,2,33,-36,24,53,25,10,-7,-28
21,-17,-40,-1,34,-34,23,54,25,10,-6,-26
23,-15,-40,-3,36,-32,22,55,25,11,-5,-25
27,-13,-42,-6,39,-32,22,56,26,13,-4,-24
31,-13,-45,-8,43,-34,20,56,25,12,-4,-24
32,-13,-47,-9,45,-35,18,57,25,12,-2,-23
33,-8,-42,-12,42,-29,18,58,25,14,0,-21
33,-5,-39,-14,41,-25,17,60,25,15,3,-18
33,-5,-39,-14,41,-25,16,61,24,16,5,-17
35,-1,-37,-17,41,-22,16,62,23,18,5,-15
39,3,-36,-22,42,-18,15,63,24,20,5,-13
39,6,-34,-23,41,-15,14,63,25,21,5,-11
41,8,-33,-25,41,-14,13,63,26,22,5,-7
41,12,-29,-28,40,-9,13,64,26,24,5,-4
41,15,-26,-30,37,-4,12,62,26,25,6,-1
43,19,-23,-32,37,-1,11,61,25,25,7,1
44,23,-20,-35,37,3,10,61,24,26,7,4
46,25,-20,-38,37,5,8,60,24,27,9,7
49,27,-20,-40,39,6,6,59,24,28,14,9
54,31,-20,-45,41,9,5,59,24,30,17,12
59,36,-20,-50,45,11,3,59,24,31,18,15
64,39,-23,-54,50,11,1,58,23,32,20,18
71,43,-26,-60,54,13,-1,58,23,33,21,21
76,50,-23,-67,56,19,-2,58,23,35,22,25
79,55,-20,-71,56,23,-4,57,22,35,25,27
81,56,-22,-73,59,23,-5,56,22,35,27,29
85,59,-23,-77,61,25,-6,56,23,37,29,32
86,62,-20,-79,59,28,-8,55,22,38,31,34
86,63,-20,-80,60,29,-10,54,21,38,32,36
88,64,-20,-81,61,30,-11,54,20,38,33,39
91,67,-20,-84,63,32,-12,53,20,40,33,42
93,69,-20,-87,63,32,-14,52,19,40,34,43
94,72,-18,-89,63,36,-15,52,18,41,35,45
97,76,-16,-93,64,39,-16,52,18,42,36,48
99,79,-15,-96,65,42,-17,51,18,41,38,50
101,79,-17,-97,67,41,-18,49,17,40,40,51
104,81,-18,-99,69,41,-19,49,16,38,41,52
106,83,-18,-101,71,43,-20,47,15,37,41,53
107,83,-18,-102,71,43,-22,46,15,36,42,54
108,85,-18,-103,71,44,-23,46,15,36,43,55
108,86,-16,-104,70,46,-23,46,16,36,43,57
106,87,-14,-104,68,48,-24,45,16,37,43,57
105,87,-12,-103,67,49,-24,45,16,39,43,58
106,89,-11,-104,66,50,-24,44,17,41,45,59
109,92,-10,-107,67,53,-24,44,17,42,46,58
111,93,-12,-109,69,53,-24,43,16,42,49,57
109,93,-9,-108,67,55,-24,43,16,43,51,57
106,92,-7,-106,64,55,-25,42,15,43,52,57
105,91,-8,-105,64,54,-26,41,15,42,53,57
104,90,-8,-104,63,53,-26,41,15,41,54,57
102,89,-7,-102,62,53,-26,41,16,41,54,56
99,87,-5,-100,59,53,-25,41,16,41,55,55
98,87,-5,-99,59,53,-24,41,17,41,56,54
95,87,-2,-98,55,55,-23,41,19,41,58,53
91,85,-1,-95,52,54,-23,40,19,40,62,51
91,81,-4,-93,54,49,-22,40,18,39,64,49
93,81,-7,-93,56,48,-21,40,18,38,66,46
92,78,-9,-91,57,45,-20,39,18,37,67,43
89,71,-12,-86,57,38,-20,38,16,35,67,39
85,66,-15,-81,56,34,-19,38,15,34,66,36
80,64,-12,-77,52,34,-17,38,15,34,65,35
72,61,-7,-72,45,36,-17,38,14,33,66,32
67,57,-6,-66,41,33,-15,38,14,31,68,29
64,55,-6,-63,40,32,-13,38,15,30,69,26
59,51,-4,-59,35,31,-11,37,15,29,73,22
52,46,-3,-52,31,28,-9,36,14,28,74,19
48,42,-3,-48,28,26,-7,36,15,27,73,16
45,37,-5,-44,28,21,-7,35,16,27,72,13
41,31,-8,-39,28,15,-5,34,15,26,70,9
37,28,-7,-34,25,14,-4,33,15,25,68,6
32,26,-4,-31,20,14,-4,32,15,25,65,4
28,21,-6,-25,19,10,-3,32,14,22,64,1
26,16,-9,-22,20,5,-2,31,13,20,62,-2
25,14,-10,-20,20,3,-1,30,12,19,61,-4
23,13,-9,-19,19,3,-1,30,10,18,61,-6
21,10,-11,-16,19,1,-0,29,9,16,59,-8
19,8,-11,-14,17,-1,-0,29,8,15,58,-10
19,5,-13,-12,18,-3,-1,27,7,13,56,-12
19,1,-18,-10,20,-9,-2,25,5,10,54,-14
15,-1,-17,-7,18,-10,-1,25,4,8,52,-14
9,-3,-13,-2,13,-9,1,25,4,8,51,-15
6,-5,-12,0,11,-10,1,24,3,6,50,-16
6,-5,-11,0,10,-9,1,24,2,5,49,-17
5,-3,-9,0,8,-7,1,23,2,6,48,-18
5,-3,-8,-1,7,-6,1,23,1,6,48,-19
5,-3,-8,-1,7,-6,1,23,1,6,47,-19
5,-3,-8,-1,7,-6,1,23,1,6,47,-19
5,-3,-8,-1,7,-6,1,23,1,6,47,-19
5,-3,-8,-1,7,-6,1,23,1,6,47,-19
5,-3,-8,-1,7,-6,1,23,1,6,47,-19
-1,-11,-11,7,6,-13,4,22,-1,2,46,-19
-9,-21,-14,16,3,-20,8,20,-4,-4,45,-19
-11,-24,-15,20,2,-23,9,19,-5,-6,45,-19
-12,-25,-15,21,2,-25,10,19,-5,-7,44,-19
-13,-26,-15,22,2,-25,10,18,-5,-7,44,-19
-13,-26,-15,22,2,-25,10,18,-5,-7,44,-19
-13,-26,-15,22,2,-25,10,18,-5,-7,44,-19
-13,-26,-15,22,2,-25,9,18,-5,-7,44,-19
-13,-26,-15,22,2,-25,8,18,-5,-7,44,-19
-13,-26,-15,22,2,-25,7,18,-5,-7,44,-19
-13,-26,-15,22,2,-25,5,18,-5,-7,44,-19
-13,-26,-15,22,2,-25,5,18,-5,-7,44,-20
-13,-26,-15,22,2,-25,4,18,-5,-7,44,-22
-13,-26,-15,22,2,-25,4,18,-5,-7,44,-24
-13,-26,-15,22,2,-25,4,18,-5,-7,44,-26
-13,-26,-15,22,2,-25,4,19,-5,-7,44,-27
-13,-26,-15,22,2,-25,4,20,-5,-7,44,-28
-13,-26,-15,22,2,-25,4,20,-5,-7,44,-28
-13,-26,-15,22,2,-25,4,21,-5,-7,44,-28
-11,-25,-15,20,2,-24,5,22,-5,-7,44,-28
-9,-22,-15,17,4,-22,6,22,-5,-7,44,-28
-6,-19,-15,14,6,-20,7,22,-5,-7,44,-28
-2,-16,-15,10,7,-19,8,22,-5,-7,44,-28
0,-14,-15,8,9,-17,9,22,-5,-6,45,-27
1,-13,-15,7,9,-17,10,22,-4,-5,46,-25
1,-13,-15,7,10,-16,10,22,-3,-4,47,-24
1,-13,-15,7,10,-16,10,22,-2,-3,49,-21
1,-13,-15,7,10,-16,10,23,-1,-1,50,-20
1,-13,-15,7,10,-16,10,24,0,0,50,-20
1,-13,-15,7,10,-16,10,24,1,2,51,-19
1,-13,-15,7,10,-16,10,25,3,3,51,-19
1,-13,-15,7,10,-16,10,26,3,4,51,-19
1,-13,-15,7,10,-16,10,26,5,6,53,-19
1,-13,-15,7,10,-16,10,26,6,7,54,-19
1,-13,-15,7,10,-16,10,26,7,9,55,-19
1,-13,-15,7,10,-16,10,26,8,10,56,-19
1,-13,-15,7,10,-16,10,26,8,10,57,-19
1,-13,-15,7,10,-16,10,26,8,10,57,-19
1,-13,-15,7,10,-16,10,26,8,10,57,-19
3,-13,-17,6,11,-17,9,26,8,10,57,-19
6,-13,-20,4,15,-19,8,26,8,10,57,-19
9,-13,-23,3,18,-20,7,26,8,10,57,-19
12,-13,-26,1,22,-23,5,26,8,10,57,-19
14,-13,-28,0,24,-24,5,26,8,10,58,-19
15,-13,-29,0,25,-25,4,26,8,10,59,-19
15,-13,-29,0,25,-25,4,26,8,10,60,-19
15,-13,-29,0,25,-25,4,26,8,10,62,-19
15,-13,-29,0,25,-25,4,26,8,11,63,-19
15,-13,-29,0,25,-25,4,26,8,12,63,-19
15,-13,-29,0,25,-25,4,26,8,13,64,-19
15,-13,-29,0,25,-25,4,26,8,15,64,-19
15,-13,-29,0,25,-25,4,26,8,16,64,-19
15,-13,-29,0,25,-25,4,26,8,16,64,-19
15,-13,-29,0,25,-25,4,26,8,16,64,-19
15,-13,-29,0,25,-25,4,26,8,16,64,-19
15,-13,-29,0,25,-25,4,26,8,16,63,-19
15,-13,-29,0,25,-25,2,26,8,14,62,-19
15,-13,-29,0,25,-25,1,26,8,13,60,-19
15,-13,-29,0,25,-25,-0,26,8,12,59,-19
15,-13,-29,0,25,-25,-1,26,8,11,58,-19
15,-13,-29,0,25,-25,-2,26,8,11,57,-19
15,-13,-29,0,25,-25,-2,26,8,10,57,-19
15,-13,-29,0,25,-25,-2,26,8,10,57,-19
14,-14,-30,1,25,-26,-2,26,8,10,57,-19
11,-17,-30,4,24,-27,-2,25,7,10,57,-19
9,-19,-30,7,22,-29,-2,24,6,10,57,-19
5,-23,-30,10,20,-32,-2,23,5,10,57,-19
3,-25,-30,13,19,-32,-2,23,3,10,56,-19
2,-25,-30,13,18,-33,-2,23,3,10,55,-19
1,-26,-30,14,18,-33,-2,22,1,10,54,-19
1,-26,-30,14,18,-33,-2,22,0,10,52,-19
1,-26,-30,14,18,-33,-2,22,-0,10,51,-19
1,-26,-30,14,18,-33,-2,22,-1,10,51,-19
1,-26,-30,14,18,-33,-2,22,-1,10,51,-19
1,-26,-30,14,18,-33,-2,22,-1,10,51,-19
1,-26,-30,14,18,-33,-2,22,-1,10,50,-19
1,-26,-30,14,18,-33,-2,22,-2,9,49,-19
1,-26,-30,14,18,-33,-2,22,-3,7,47,-19
1,-26,-30,14,18,-33,-2,22,-4,6,46,-19
1,-26,-30,14,18,-33,-2,22,-5,4,45,-20
1,-26,-30,14,18,-33,-2,21,-5,3,45,-22
1,-26,-30,14,18,-33,-2,20,-5,2,44,-24
1,-26,-30,14,18,-33,-2,19,-5,0,44,-26
1,-26,-30,14,18,-33,-2,19,-5,-1,44,-27
1,-26,-30,14,18,-33,-2,19,-5,-1,42,-28
1,-26,-30,14,18,-33,-2,18,-5,-1,41,-28
1,-26,-30,14,18,-33,-2,18,-5,-1,39,-28
1,-26,-30,14,18,-33,-2,18,-6,-2,38,-28
1,-26,-30,14,18,-33,-4,18,-7,-3,38,-28
1,-26,-30,14,18,-33,-5,18,-8,-4,38,-28
1,-26,-30,14,18,-33,-6,18,-9,-6,38,-28
1,-26,-30,14,18,-33,-7,18,-10,-6,38,-28
1,-26,-30,14,18,-33,-8,18,-10,-7,38,-28
1,-26,-30,14,18,-33,-8,18,-10,-7,38,-28
1,-26,-30,14,18,-33,-8,18,-10,-7,38,-28
0,-27,-30,16,17,-34,-8,18,-10,-7,38,-28
-3,-30,-30,19,15,-36,-8,18,-10,-7,38,-28
-6,-33,-30,22,14,-37,-8,18,-10,-7,38,-28
-9,-36,-30,25,11,-40,-8,18,-10,-7,38,-28
-11,-38,-30,28,11,-41,-8,18,-10,-7,38,-28
-12,-39,-30,28,10,-42,-8,17,-10,-7,38,-28
-13,-39,-30,29,10,-42,-8,16,-10,-7,38,-28
-13,-39,-30,29,10,-42,-8,15,-10,-7,38,-28
-13,-39,-30,29,10,-42,-8,15,-10,-7,38,-29
-13,-39,-30,29,10,-42,-8,14,-10,-7,38,-31
-13,-39,-30,29,10,-42,-8,14,-10,-7,38,-32
-13,-39,-30,29,10,-42,-8,14,-10,-7,38,-35
-13,-39,-30,29,10,-42,-8,14,-10,-7,38,-36
-13,-39,-30,29,10,-42,-8,14,-10,-7,38,-36
-13,-39,-30,29,10,-42,-8,14,-10,-7,38,-37
-13,-39,-30,29,10,-42,-8,14,-10,-7,38,-37
-13,-39,-30,29,10,-42,-8,14,-10,-7,38,-37
-13,-39,-30,29,10,-42,-8,14,-10,-7,38,-37
-13,-39,-30,29,10,-42,-8,14,-10,-7,38,-37
-13,-39,-30,29,10,-42,-8,14,-10,-7,38,-37
-14,-39,-28,30,8,-41,-8,14,-10,-7,38,-37
-17,-39,-26,31,5,-39,-8,14,-10,-7,38,-37
-20,-39,-23,33,2,-37,-8,14,-10,-7,38,-37
-24,-39,-19,35,-2,-36,-8,14,-10,-7,38,-37
-26,-39,-17,36,-5,-34,-8,14,-10,-7,38,-37
-26,-39,-16,37,-6,-34,-8,14,-10,-7,38,-37
-27,-39,-15,37,-7,-33,-8,14,-10,-7,38,-37
-27,-39,-15,37,-7,-33,-8,14,-10,-7,38,-37
-26,-39,-17,36,-5,-34,-8,14,-10,-7,37,-37
-23,-39,-20,34,-2,-36,-8,14,-10,-7,36,-37
-20,-39,-23,33,2,-37,-8,14,-10,-7,35,-37
-16,-39,-26,31,6,-40,-8,14,-10,-7,33,-37
-14,-39,-28,30,8,-41,-8,14,-10,-7,32,-37
-14,-39,-29,30,9,-42,-8,14,-10,-7,32,-37
-13,-39,-30,29,10,-42,-8,14,-10,-7,31,-37
-13,-39,-30,29,10,-42,-8,14,-10,-7,31,-37
-13,-39,-30,29,10,-42,-8,14,-10,-7,31,-37
-13,-39,-30,29,10,-42,-8,14,-10,-7,31,-37
-13,-39,-30,29,10,-42,-8,14,-10,-7,31,-37
-13,-39,-30,29,10,-42,-8,14,-10,-7,31,-37
-14,-41,-30,31,9,-43,-8,14,-10,-8,31,-37
-17,-43,-30,34,7,-44,-8,13,-11,-9,29,-37
-20,-46,-30,37,6,-46,-8,12,-12,-10,28,-37
-22,-48,-30,39,4,-48,-8,12,-13,-11,27,-37
-23,-49,-30,40,4,-48,-8,11,-13,-11,27,-37
-24,-49,-30,40,3,-49,-8,11,-13,-11,26,-37
-24,-49,-30,40,3,-49,-8,11,-13,-11,26,-37
-24,-49,-30,40,3,-49,-8,11,-13,-11,26,-37
-24,-49,-30,40,3,-49,-8,11,-13,-11,26,-37
-20,-45,-28,36,5,-44,-8,12,-12,-10,27,-36
-15,-39,-27,30,7,-40,-9,13,-11,-8,29,-35
-14,-37,-26,28,7,-38,-9,13,-10,-7,29,-35
-13,-36,-26,28,7,-37,-9,13,-10,-7,30,-35
-11,-35,-27,25,9,-37,-10,13,-10,-6,30,-36
-7,-33,-29,23,12,-37,-11,12,-10,-5,30,-36
-6,-31,-27,21,11,-35,-10,11,-9,-3,30,-35
-7,-25,-20,19,7,-27,-8,11,-8,-0,30,-32
-9,-21,-15,17,3,-21,-5,12,-7,1,31,-31
-10,-18,-9,16,0,-16,-2,13,-6,3,32,-29
-12,-15,-4,15,-5,-11,2,14,-4,4,34,-27
-10,-13,-4,13,-3,-10,3,15,-3,4,36,-28
-7,-14,-8,12,1,-13,4,16,-2,4,37,-28
-6,-15,-10,13,2,-15,5,17,-2,5,37,-27
-2,-17,-16,11,8,-20,5,18,-1,6,38,-26
3,-21,-26,10,16,-27,4,19,-1,6,38,-26
4,-24,-31,12,20,-32,4,20,-1,6,38,-25
7,-25,-35,11,24,-36,3,22,-1,7,38,-24
11,-26,-40,9,29,-39,-0,23,-2,7,39,-24
16,-25,-44,6,34,-41,-3,24,-2,8,39,-23
20,-21,-44,2,36,-38,-5,24,-0,9,39,-22
20,-18,-40,0,34,-34,-6,23,-0,9,40,-21
18,-15,-35,0,30,-30,-7,22,-1,9,41,-20
16,-13,-30,-1,26,-25,-9,21,-1,9,41,-18
15,-11,-27,-1,24,-22,-11,20,-1,8,41,-18
15,-10,-26,-1,24,-21,-12,19,-2,8,41,-19
13,-9,-23,-1,20,-19,-12,19,-2,7,40,-19
10,-11,-22,1,18,-19,-11,18,-2,7,40,-19
9,-14,-25,4,20,-23,-11,18,-3,7,38,-20
9,-19,-29,7,21,-28,-10,18,-4,6,37,-21
10,-23,-35,8,25,-34,-9,18,-4,6,36,-21
11,-26,-40,9,29,-39,-11,17,-6,4,36,-23
12,-31,-46,11,33,-46,-13,15,-8,2,34,-25
12,-35,-51,14,36,-52,-14,13,-8,1,32,-25
12,-40,-56,16,38,-58,-15,12,-10,-1,31,-27
12,-45,-62,19,41,-65,-15,11,-11,-2,30,-29
14,-48,-66,20,45,-69,-14,10,-13,-4,28,-30
16,-48,-69,19,47,-70,-14,10,-13,-4,27,-30
18,-47,-69,17,49,-70,-14,9,-13,-4,27,-30
19,-45,-69,16,49,-68,-13,9,-13,-4,26,-30
19,-43,-66,15,48,-66,-13,9,-13,-4,26,-30
16,-44,-65,16,46,-66,-12,8,-14,-5,26,-32
14,-45,-64,19,43,-66,-12,7,-15,-6,25,-34
8,-46,-58,22,37,-63,-12,8,-14,-6,25,-34
-1,-47,-50,28,28,-59,-12,8,-14,-6,25,-35
-10,-50,-45,34,20,-57,-12,8,-14,-8,26,-36
-20,-52,-36,40,9,-54,-10,10,-13,-8,26,-37
-27,-53,-30,44,2,-50,-8,11,-12,-7,26,-38
-29,-54,-29,46,0,-51,-8,11,-12,-8,26,-39
-31,-55,-28,48,-2,-51,-8,11,-12,-8,26,-39
-34,-57,-28,50,-3,-52,-7,11,-12,-9,26,-39
-34,-59,-30,51,-2,-55,-8,9,-13,-9,26,-40
-34,-61,-32,53,-2,-57,-8,8,-15,-12,25,-41
-34,-62,-33,53,-1,-58,-7,6,-15,-12,24,-41
-34,-66,-37,55,2,-63,-9,5,-15,-13,23,-43
-34,-71,-42,58,4,-69,-10,4,-16,-15,22,-45
-34,-69,-40,57,3,-66,-9,4,-15,-15,21,-45
-34,-65,-36,54,1,-61,-8,4,-13,-15,20,-46
-34,-65,-36,55,1,-62,-8,4,-10,-16,20,-46
-34,-66,-37,55,2,-63,-8,4,-8,-15,20,-46
-32,-64,-37,53,2,-62,-7,4,-7,-14,20,-46
-29,-63,-40,51,7,-63,-8,4,-7,-14,21,-48
-28,-65,-43,51,8,-66,-9,4,-8,-15,21,-49
-30,-66,-42,53,7,-66,-8,4,-7,-14,21,-46
-33,-65,-37,54,2,-62,-9,4,-8,-14,20,-47
-36,-68,-37,57,0,-65,-10,4,-10,-15,18,-48
-42,-69,-32,61,-6,-62,-9,4,-9,-15,16,-46
-48,-67,-24,63,-14,-56,-8,5,-7,-14,14,-44
-51,-67,-22,65,-16,-55,-8,5,-8,-14,15,-44
-51,-69,-23,66,-16,-56,-7,5,-12,-14,15,-43
-47,-67,-25,63,-13,-56,-6,6,-15,-13,14,-43
-39,-64,-31,57,-5,-58,-7,6,-18,-13,14,-44
-34,-63,-35,54,1,-60,-8,5,-19,-14,15,-45
-31,-63,-36,52,2,-60,-7,6,-19,-13,17,-46
-34,-63,-34,53,0,-60,-8,6,-19,-12,18,-46
-36,-65,-34,56,-2,-60,-9,5,-20,-13,19,-47
-39,-65,-32,57,-4,-60,-8,6,-20,-11,19,-46
-41,-63,-28,57,-7,-56,-7,7,-19,-9,18,-44
-42,-63,-26,58,-9,-55,-7,7,-19,-7,20,-44
-39,-70,-37,60,-1,-66,-7,7,-22,-12,15,-46
-39,-63,-30,56,-5,-57,-4,10,-17,-6,15,-46
-42,-63,-26,58,-9,-55,1,9,-14,-10,15,-48
-60,-73,-19,73,-24,-57,7,14,-10,-9,12,-53
-64,-77,-19,77,-25,-60,14,20,-6,-7,9,-55
-42,-80,-45,67,1,-77,22,26,1,-6,9,-59
-46,-83,-45,71,-1,-78,28,23,5,-12,4,-68
-74,-83,-15,86,-33,-61,35,38,10,-9,4,-70
-81,-73,3,84,-48,-44,44,44,18,-3,17,-70
-81,-63,14,78,-54,-32,49,46,28,9,10,-68
-78,-67,7,78,-48,-38,52,53,36,18,14,-68
-67,-53,10,65,-44,-27,55,60,49,35,25,-61
-42,-23,18,35,-33,-4,58,73,68,62,49,-48
-17,3,21,7,-21,14,53,87,83,91,76,-33
19,13,-4,-16,13,7,55,91,95,109,99,-13
61,27,-34,-46,54,-2,49,98,101,132,133,22
111,30,-81,-75,108,-27,22,84,97,139,157,44
179,43,-136,-117,177,-51,1,64,86,154,173,77
226,73,-150,-158,212,-40,-37,48,83,185,230,112
258,113,-139,-198,224,-9,-61,35,81,205,268,160
294,170,-114,-248,230,43,-89,7,72,223,301,208
301,247,-37,-295,192,136,-109,-21,64,233,314,248
290,293,25,-316,151,202,-146,-66,26,204,302,270
251,327,101,-313,86,268,-176,-124,-32,147,267,265
194,340,174,-291,13,319,-206,-179,-91,79,212,261
151,340,218,-269,-36,345,-235,-233,-140,0,147,237
90,297,233,-213,-79,325,-263,-283,-131,-91,73,208
22,263,266,-159,-136,324,-277,-320,-215,-150,12,184
-17,227,266,-118,-158,300,-292,-339,-199,-194,-25,158
-31,200,251,-96,-158,274,-299,-344,-232,-208,-51,125
-24,150,189,-71,-120,206,-299,-324,-314,-208,-61,99
-10,103,123,-52,-75,138,-286,-292,-231,-202,-64,77
-6,53,65,-26,-40,72,-268,-262,-270,-196,-64,57
22,17,-4,-20,15,9,-244,-233,-228,-198,-86,35
22,-13,-37,-4,33,-30,-212,-202,-119,-185,-74,11
8,-30,-41,13,28,-43,-187,-175,-89,-166,-72,2
4,-33,-41,17,25,-44,-163,-150,-44,-150,-64,-9
-6,-20,-15,15,5,-21,-139,-126,-44,-130,-53,-13
-10,-17,-8,15,-1,-14,-118,-107,-75,-113,-33,-15
-17,-17,-1,19,-9,-10,-106,-91,-110,-100,-27,-18
-10,-17,-8,15,-1,-14,-94,-75,-99,-87,-19,-26
-10,-17,-8,15,-1,-14,-80,-63,-42,-75,-14,-31
-14,-20,-8,19,-3,-17,-68,-54,-2,-66,-11,-33
-3,-40,-41,25,21,-49,-61,-47,24,-54,-9,-35
-3,-40,-41,25,21,-49,-50,-38,32,-47,-6,-35
-17,-50,-37,37,11,-53,-37,-25,-19,-38,1,-35
-35,-50,-19,47,-9,-43,-31,-19,-39,-32,12,-35
-39,-53,-19,51,-11,-44,-20,-9,-33,-22,15,-37
-39,-53,-19,51,-11,-44,-13,-2,-26,-18,15,-37
-31,-57,-30,49,-1,-53,-10,2,-20,-19,18,-39
-31,-47,-19,43,-7,-40,-8,2,-15,-19,18,-42
-31,-46,-19,43,-7,-40,-3,5,-5,-10,21,-41
-32,-47,-19,44,-7,-41,-1,6,-0,-6,22,-42
-34,-49,-19,46,-8,-42,0,8,3,-4,23,-43
-34,-47,-16,45,-11,-38,2,9,6,-3,24,-43
-34,-46,-15,44,-11,-37,3,11,10,-2,26,-43
-34,-48,-18,46,-10,-40,4,12,12,-1,27,-43
-34,-49,-18,46,-9,-41,5,14,15,-0,27,-41
-34,-49,-19,46,-9,-42,6,16,18,1,27,-39
-33,-51,-23,46,-6,-45,7,16,20,1,26,-41
-31,-52,-25,46,-4,-47,7,15,21,2,26,-43
-31,-50,-23,45,-4,-45,7,15,21,2,25,-43
-32,-51,-23,46,-6,-45,7,15,22,2,25,-43
-34,-52,-23,47,-7,-46,8,16,23,2,27,-43
-34,-51,-21,47,-7,-44,9,16,26,4,29,-42
-36,-50,-18,48,-11,-42,10,17,29,4,32,-41
-37,-49,-16,48,-12,-40,10,18,33,4,34,-41
-35,-49,-18,46,-10,-42,9,19,36,4,35,-41
-34,-49,-19,46,-9,-42,8,20,39,4,35,-41
-34,-49,-19,46,-9,-42,7,20,40,4,34,-41
-34,-49,-19,46,-9,-42,6,20,42,5,33,-41
-34,-51,-20,47,-8,-43,6,20,44,6,33,-41
-36,-54,-23,49,-7,-47,5,20,46,5,33,-42
-37,-59,-26,53,-7,-52,6,20,46,5,33,-43
-34,-61,-32,53,-2,-57,7,20,47,5,33,-43
-29,-62,-38,51,5,-61,6,20,46,6,34,-42
-28,-63,-40,50,7,-63,6,21,45,6,34,-41
-27,-61,-39,49,7,-60,7,22,45,6,34,-41
-27,-60,-38,49,6,-60,7,22,44,7,33,-41
-27,-62,-40,49,7,-62,7,22,43,7,33,-40
-29,-63,-39,51,5,-62,9,23,41,7,33,-39
-30,-63,-38,51,4,-61,11,23,39,7,33,-39
-27,-64,-42,51,8,-65,12,23,36,7,33,-40
-25,-65,-46,50,11,-68,13,23,34,6,33,-41
-25,-66,-47,51,12,-69,13,23,34,7,34,-41
-28,-68,-46,53,10,-70,14,24,35,8,35,-41
-30,-69,-45,54,8,-69,14,24,35,9,36,-40
-31,-66,-41,54,6,-66,14,25,36,9,36,-39
-31,-64,-39,52,4,-63,13,26,38,9,36,-37
-29,-63,-40,51,7,-63,11,26,40,9,35,-38
-25,-63,-43,49,10,-65,10,26,42,9,34,-39
-24,-63,-44,49,11,-65,9,26,43,9,34,-39
-26,-64,-43,50,9,-66,9,25,43,9,35,-39
-29,-65,-42,52,7,-66,9,25,44,9,37,-39
-30,-66,-42,53,7,-66,10,24,48,9,40,-39
-29,-66,-42,53,7,-66,10,24,51,10,44,-39
-28,-66,-44,52,9,-67,10,24,47,10,45,-39
-27,-65,-43,51,9,-66,10,25,42,11,45,-38
-26,-63,-43,49,10,-65,10,25,35,11,46,-37
-22,-63,-46,47,13,-66,10,25,29,11,46,-37
-19,-63,-50,46,17,-68,10,26,26,10,46,-37
-17,-63,-51,45,19,-69,10,26,25,11,47,-37
-19,-63,-49,46,16,-68,10,26,24,11,48,-37
-22,-63,-46,47,13,-66,11,27,23,12,49,-37
-23,-63,-45,48,12,-66,12,28,24,13,50,-36
-24,-63,-45,48,11,-66,13,29,24,14,52,-35
-24,-63,-45,48,11,-66,13,29,23,14,52,-35
-21,-61,-45,46,13,-64,14,30,23,15,52,-35
-18,-57,-45,42,15,-62,14,31,23,16,52,-35
-16,-57,-46,40,17,-62,12,31,22,16,52,-35
-14,-55,-47,39,19,-62,12,32,23,17,52,-34
-13,-53,-45,37,18,-60,11,32,23,17,52,-33
-16,-54,-42,40,15,-59,11,33,22,18,53,-32
-19,-55,-42,41,13,-59,12,33,20,18,54,-32
-16,-55,-44,40,15,-60,13,34,18,18,54,-31
-13,-53,-45,37,18,-60,13,34,18,19,56,-30
-11,-53,-47,36,20,-60,13,35,18,19,58,-30
-9,-51,-47,34,21,-59,13,36,19,20,60,-29
-6,-47,-45,30,21,-55,12,37,21,21,63,-28
-6,-44,-42,28,20,-52,12,37,21,22,65,-26
-4,-42,-42,26,21,-50,12,38,22,23,67,-25
-1,-40,-43,23,24,-50,13,39,24,24,70,-24
3,-39,-46,21,28,-51,12,40,24,24,72,-24
4,-39,-47,20,29,-52,12,40,25,23,75,-23
5,-35,-43,17,27,-47,11,41,29,26,77,-21
5,-31,-39,16,25,-43,11,41,32,27,80,-18
5,-31,-39,16,25,-43,10,42,34,28,82,-17
7,-28,-38,13,25,-39,10,42,36,29,83,-15
11,-23,-36,8,27,-36,9,43,39,32,84,-13
11,-21,-34,6,26,-32,8,43,40,33,85,-11
13,-19,-34,4,26,-31,7,43,43,34,86,-7
15,-15,-31,1,26,-27,7,44,45,36,88,-4
17,-11,-30,-2,27,-24,6,43,46,36,91,-1
21,-8,-31,-6,29,-22,5,43,48,37,94,1
26,-3,-31,-11,33,-20,4,43,49,38,96,4
31,-1,-32,-15,36,-19,2,43,50,39,99,7
34,1,-34,-18,38,-18,0,43,51,40,104,9
39,5,-34,-23,41,-16,-1,43,51,42,107,12
44,10,-34,-28,45,-13,-3,42,51,43,109,15
50,13,-37,-33,50,-13,-5,42,51,44,110,18
56,17,-39,-38,54,-12,-6,42,50,45,111,21
62,23,-38,-45,56,-7,-8,41,50,46,112,25
64,28,-35,-49,56,-2,-10,41,50,47,115,27
67,29,-36,-51,59,-2,-11,40,49,47,117,29
71,32,-37,-54,61,-1,-12,40,50,48,119,32
71,35,-34,-57,59,3,-14,39,50,49,121,34
72,36,-34,-57,60,3,-16,38,48,50,123,36
74,39,-33,-60,60,6,-17,37,47,50,123,39
76,44,-30,-64,60,11,-18,37,45,51,124,42
79,49,-26,-68,59,16,-20,36,44,52,125,43
80,55,-21,-72,57,23,-21,36,42,53,125,45
83,62,-17,-78,56,30,-22,35,41,54,126,48
85,65,-15,-81,57,33,-23,34,39,54,129,50
87,66,-17,-82,59,32,-24,33,37,54,130,51
90,67,-18,-84,61,32,-25,32,35,54,131,52
91,68,-19,-85,63,32,-26,31,33,54,132,53
89,66,-19,-83,61,32,-28,30,32,53,133,54
86,64,-18,-81,59,31,-29,30,31,53,133,55
83,63,-16,-78,56,31,-29,29,31,54,133,57
79,61,-15,-75,53,31,-30,29,30,54,132,57
77,60,-13,-73,51,31,-30,29,30,55,132,58
77,62,-11,-75,50,33,-30,28,30,55,131,59
80,65,-10,-78,51,36,-30,27,30,55,132,58
83,66,-12,-80,54,35,-30,26,30,55,133,57
84,67,-13,-81,55,35,-30,25,30,55,135,57
84,65,-15,-80,56,33,-31,24,29,55,136,57
87,64,-19,-81,60,30,-32,22,29,54,137,57
89,65,-20,-82,62,30,-32,21,28,53,137,57
87,66,-17,-82,59,32,-32,21,28,53,138,56
84,67,-12,-81,54,36,-31,20,28,53,139,55
84,70,-9,-82,52,40,-30,20,28,53,140,54
81,72,-4,-82,48,44,-29,20,28,53,141,53
77,71,-1,-79,45,44,-29,20,28,52,142,51
77,68,-4,-78,46,41,-28,20,28,50,141,49
79,67,-7,-78,48,39,-27,19,27,50,140,46
78,65,-9,-76,49,37,-26,19,27,50,138,43
74,58,-12,-71,49,30,-26,18,26,49,136,39
71,53,-15,-66,48,26,-25,18,27,49,134,36
66,51,-12,-62,44,26,-23,17,28,50,132,35
58,48,-7,-57,37,27,-23,17,27,50,130,32
53,44,-6,-51,33,25,-21,17,27,49,127,29
50,41,-6,-49,32,23,-19,17,28,48,124,26
44,38,-4,-44,27,22,-17,17,28,47,122,22
38,33,-3,-37,23,20,-15,16,28,45,121,19
34,29,-3,-33,20,17,-13,15,29,43,119,16
31,24,-5,-29,20,13,-13,15,29,42,117,13
27,18,-8,-24,20,8,-11,13,29,39,115,9
23,15,-7,-19,17,6,-10,13,29,38,113,6
18,13,-4,-16,12,7,-10,12,30,36,109,4
14,8,-6,-11,11,3,-9,11,30,34,105,1
13,3,-9,-8,13,-3,-8,11,30,32,102,-2
11,1,-10,-6,12,-4,-7,10,30,31,100,-4
9,0,-9,-4,11,-5,-7,9,29,29,99,-6
8,-3,-11,-2,11,-8,-6,9,27,27,98,-8
6,-5,-11,0,10,-9,-6,8,26,27,96,-10
5,-9,-15,3,11,-14,-7,7,25,25,95,-12
5,-16,-23,7,15,-23,-8,5,23,21,93,-14
1,-21,-25,12,15,-27,-7,4,22,20,91,-14
-4,-27,-25,18,11,-31,-5,4,22,19,90,-15
-8,-31,-26,22,10,-34,-5,4,21,18,89,-16
-9,-31,-25,22,9,-33,-5,3,20,17,88,-17
-9,-30,-23,22,8,-32,-5,3,20,17,87,-18
-9,-29,-23,22,7,-32,-5,3,19,18,86,-19
-9,-29,-23,22,7,-32,-5,3,19,18,86,-19
-9,-29,-23,22,7,-32,-5,3,19,18,86,-19
-9,-29,-23,22,7,-32,-5,3,19,18,86,-19
-9,-29,-23,22,7,-32,-5,3,19,18,86,-19
-9,-29,-23,22,7,-32,-5,3,19,18,86,-19
-15,-33,-20,27,3,-32,-4,1,22,15,79,-22
-23,-37,-18,34,-3,-33,-2,-1,25,12,69,-26
-26,-39,-16,36,-6,-33,-2,-1,27,11,65,-28
-26,-39,-16,37,-6,-34,-2,-2,27,11,64,-28
-27,-39,-15,37,-7,-33,-2,-2,26,10,64,-28
-27,-39,-15,37,-7,-33,-2,-2,23,10,64,-28
-27,-39,-15,37,-7,-33,-2,-2,20,10,64,-28
-27,-39,-15,37,-7,-33,-2,-2,17,10,64,-28
-27,-39,-15,37,-7,-33,-2,-2,12,10,64,-28
-27,-39,-15,37,-7,-33,-2,-2,8,10,64,-28
-27,-39,-15,37,-7,-33,-2,-2,3,10,64,-28
-27,-39,-15,37,-7,-33,-1,-2,0,10,64,-28
-27,-39,-15,37,-7,-33,0,-2,-0,10,64,-28
-27,-39,-15,37,-7,-33,1,-2,-1,10,64,-28
-27,-39,-15,37,-7,-33,3,-2,-1,10,64,-28
-27,-39,-15,37,-7,-33,4,-2,-1,10,63,-28
-27,-39,-15,37,-7,-33,4,-2,-1,10,62,-28
-27,-39,-15,37,-7,-33,4,-2,-1,10,60,-28
-27,-39,-15,37,-7,-33,4,-2,-1,10,59,-28
-27,-39,-15,37,-7,-33,4,-2,-1,10,58,-28
-27,-39,-15,37,-7,-33,2,-2,-1,10,57,-28
-27,-39,-15,37,-7,-33,1,-2,-1,10,57,-28
-27,-39,-15,37,-7,-33,-0,-2,-1,10,57,-28
-27,-39,-15,37,-7,-33,-1,-1,-0,10,57,-28
-27,-39,-15,37,-7,-33,-2,-1,0,10,57,-28
-27,-39,-15,37,-7,-33,-2,0,1,10,57,-28
-27,-39,-15,37,-7,-33,-2,1,3,10,57,-28
-27,-38,-14,36,-7,-32,-2,2,3,11,58,-28
-27,-35,-11,34,-9,-28,-2,3,3,12,59,-28
-27,-33,-8,33,-11,-25,-2,4,3,13,60,-28
-27,-29,-4,31,-13,-20,-2,5,3,15,62,-28
-27,-27,-2,30,-14,-18,-2,6,3,16,63,-27
-27,-27,-1,30,-15,-17,-2,6,1,16,63,-25
-27,-26,-1,29,-15,-16,-2,6,-1,16,64,-24
-27,-26,-1,29,-15,-16,-2,6,-3,16,64,-21
-27,-26,-1,29,-15,-16,-2,6,-5,16,64,-20
-27,-26,-1,29,-15,-16,-2,6,-5,16,64,-20
-27,-26,-1,29,-15,-16,-2,6,-5,16,64,-19
-27,-26,-1,29,-15,-16,-2,6,-5,16,64,-19
-27,-26,-1,29,-15,-16,-2,6,-5,17,64,-19
-27,-26,-1,29,-15,-16,-2,6,-5,18,65,-19
-27,-26,-1,29,-15,-16,-2,6,-5,19,67,-19
-27,-26,-1,29,-15,-16,-2,6,-5,21,68,-19
-27,-26,-1,29,-15,-16,-2,6,-5,21,69,-19
-27,-26,-1,29,-15,-16,-2,6,-3,22,70,-19
-27,-26,-1,29,-15,-16,-2,6,-1,22,70,-19
-27,-26,-1,29,-15,-16,-2,6,1,22,70,-19
-27,-26,-1,29,-15,-16,-2,6,3,22,70,-19
-27,-26,-1,29,-15,-16,-2,6,5,22,70,-19
-27,-26,-1,29,-15,-16,-2,6,6,22,70,-19
-27,-26,-1,29,-15,-16,-2,6,7,22,70,-19
-26,-26,-2,28,-13,-17,-2,6,8,22,70,-19
-23,-26,-5,27,-10,-19,-4,6,9,22,70,-19
-20,-26,-8,25,-7,-20,-5,6,10,22,70,-19
-16,-26,-12,24,-2,-23,-6,6,11,22,70,-19
-14,-26,-14,22,0,-24,-7,6,12,22,69,-19
-14,-26,-15,22,1,-25,-8,5,12,22,68,-19
-13,-26,-15,22,2,-25,-8,4,13,22,67,-19
-13,-26,-15,22,2,-25,-8,3,13,22,65,-19
-13,-26,-15,22,2,-25,-8,2,12,21,64,-19
-13,-26,-15,22,2,-25,-8,1,11,20,64,-19
-13,-26,-15,22,2,-25,-8,0,10,19,64,-19
-13,-26,-15,22,2,-25,-8,-1,9,18,64,-19
-14,-26,-14,22,0,-24,-8,-1,8,17,64,-19
-17,-26,-11,24,-3,-22,-8,-2,5,16,64,-19
-20,-26,-8,25,-7,-20,-8,-2,3,16,64,-19
-24,-26,-4,28,-11,-19,-8,-2,1,16,64,-19
-26,-26,-2,28,-13,-17,-8,-2,-0,16,63,-19
-26,-26,-1,29,-14,-17,-8,-3,-1,16,62,-19
-27,-26,-1,29,-15,-16,-8,-4,-1,16,60,-19
-27,-26,-1,29,-15,-16,-8,-5,-1,16,59,-19
-27,-27,-2,30,-14,-18,-8,-5,-0,16,58,-20
-27,-30,-5,31,-12,-21,-8,-6,0,14,57,-22
-27,-33,-8,33,-11,-25,-8,-6,1,13,57,-24
-27,-36,-12,35,-9,-29,-8,-6,3,12,57,-26
-27,-38,-14,36,-7,-32,-8,-6,3,11,57,-27
-27,-39,-15,37,-7,-32,-8,-7,3,11,57,-28
-27,-39,-15,37,-7,-33,-8,-8,3,10,57,-28
-27,-39,-15,37,-7,-33,-8,-9,3,10,57,-28
-27,-39,-15,37,-7,-33,-8,-10,3,10,57,-27
-27,-39,-15,37,-7,-33,-8,-10,2,10,57,-25
-27,-39,-15,37,-7,-33,-8,-10,1,10,57,-24
-27,-39,-15,37,-7,-33,-8,-10,0,10,57,-21
-27,-39,-15,37,-7,-33,-8,-10,-1,10,57,-20
-27,-39,-15,37,-7,-33,-8,-10,-2,9,57,-20
-27,-39,-15,37,-7,-33,-8,-10,-3,7,57,-19
-27,-39,-15,37,-7,-33,-8,-10,-4,6,57,-19
-27,-39,-15,37,-7,-33,-8,-10,-5,5,56,-20
-27,-39,-15,37,-7,-33,-8,-10,-7,5,55,-22
-27,-39,-15,37,-7,-33,-8,-10,-8,4,54,-24
-27,-39,-15,37,-7,-33,-8,-10,-9,4,52,-26
-29,-41,-15,38,-7,-34,-8,-10,-10,4,51,-27
-31,-43,-15,41,-9,-36,-8,-11,-10,3,51,-28
-34,-46,-15,44,-11,-37,-8,-12,-10,2,51,-28
-38,-49,-15,48,-13,-40,-8,-13,-10,0,51,-28
-40,-51,-15,50,-14,-41,-8,-14,-10,-1,50,-28
-41,-52,-15,51,-15,-42,-8,-14,-10,-1,49,-28
-41,-53,-15,51,-15,-42,-8,-14,-10,-1,47,-28
-41,-53,-15,51,-15,-42,-8,-14,-10,-1,46,-28
-41,-53,-15,51,-15,-42,-8,-14,-10,-1,45,-28
-41,-53,-15,51,-15,-42,-8,-14,-10,-1,45,-28
-41,-53,-15,51,-15,-42,-8,-14,-10,-1,44,-28
-41,-53,-15,51,-15,-42,-8,-14,-10,-1,44,-28
-41,-53,-15,51,-15,-42,-8,-14,-10,-1,44,-28
-41,-53,-15,51,-15,-42,-8,-14,-10,-1,44,-28
-41,-53,-15,51,-15,-42,-8,-14,-10,-1,44,-28
-41,-53,-15,51,-15,-42,-8,-14,-10,-1,44,-28
-41,-53,-15,51,-15,-42,-8,-14,-10,-2,44,-28
-41,-53,-15,51,-15,-42,-8,-14,-11,-3,44,-28
-41,-53,-15,51,-15,-42,-8,-14,-12,-4,44,-28
-41,-53,-15,51,-15,-42,-8,-14,-13,-6,44,-28
-41,-53,-15,51,-15,-42,-8,-14,-15,-6,44,-28
-41,-53,-15,51,-15,-42,-10,-14,-16,-7,44,-28
-41,-53,-15,51,-15,-42,-11,-14,-17,-7,44,-28
-41,-53,-15,51,-15,-42,-12,-14,-18,-7,44,-28
-41,-53,-15,51,-15,-42,-13,-14,-19,-7,44,-28
-41,-53,-15,51,-15,-42,-14,-15,-20,-7,44,-28
-41,-53,-15,51,-15,-42,-14,-16,-21,-7,44,-28
-41,-53,-15,51,-15,-42,-14,-17,-23,-7,44,-28
-41,-53,-15,51,-15,-42,-14,-18,-23,-7,44,-28
-41,-53,-15,51,-15,-42,-14,-18,-23,-7,44,-28
-41,-53,-15,51,-15,-42,-14,-18,-24,-7,44,-28
-41,-53,-15,51,-15,-42,-14,-18,-24,-7,44,-28
-41,-53,-15,51,-15,-42,-14,-18,-24,-7,44,-28
-41,-53,-15,51,-15,-42,-14,-18,-24,-7,44,-28
-41,-53,-15,51,-15,-42,-14,-18,-24,-7,44,-28
-41,-53,-15,51,-15,-42,-14,-18,-24,-7,44,-28
-41,-54,-17,52,-14,-43,-14,-18,-24,-8,44,-29
-41,-57,-20,54,-12,-47,-14,-18,-24,-9,44,-31
-41,-59,-23,55,-11,-50,-14,-18,-24,-10,44,-32
-41,-61,-25,57,-10,-53,-14,-18,-24,-11,44,-34
-41,-62,-26,57,-9,-54,-14,-18,-24,-11,44,-34
-41,-63,-26,57,-9,-55,-14,-18,-24,-11,44,-35
-41,-63,-26,57,-9,-55,-14,-18,-24,-11,44,-35
-41,-63,-26,57,-9,-55,-14,-18,-24,-11,44,-35
-41,-63,-26,57,-9,-55,-14,-18,-24,-11,44,-35
-41,-58,-21,54,-11,-49,-12,-18,-22,-11,46,-32
-41,-52,-15,51,-15,-41,-10,-18,-20,-9,48,-28
-41,-50,-12,50,-16,-38,-10,-18,-19,-9,49,-26
-41,-49,-12,50,-17,-37,-9,-18,-19,-9,49,-26
-39,-48,-12,48,-15,-37,-10,-18,-19,-9,49,-27
-36,-47,-15,46,-12,-37,-11,-18,-19,-9,49,-28
-35,-44,-12,43,-13,-35,-10,-18,-18,-8,49,-26
-36,-39,-6,41,-17,-27,-8,-17,-17,-6,50,-24
-37,-35,0,39,-21,-21,-7,-17,-16,-5,50,-22
-39,-31,5,38,-24,-16,-5,-16,-15,-3,52,-20
-41,-28,11,37,-29,-11,-3,-14,-13,-2,54,-18
-39,-27,10,35,-28,-10,-2,-13,-12,-1,55,-19
-36,-27,7,34,-24,-13,-2,-12,-11,-1,55,-19
-35,-29,4,34,-22,-15,-1,-11,-11,-1,54,-18
-31,-30,-1,34,-16,-20,-1,-10,-10,0,52,-18
-25,-34,-12,33,-7,-28,-2,-10,-10,0,51,-18
-21,-37,-20,32,-1,-35,-2,-9,-10,1,51,-19
-14,-39,-28,30,7,-40,-3,-8,-10,1,51,-20
-6,-39,-36,26,17,-46,-6,-8,-11,2,52,-21
1,-38,-43,21,25,-49,-9,-8,-11,2,52,-22
6,-35,-45,16,28,-48,-11,-8,-11,3,52,-22
6,-31,-41,15,27,-43,-12,-9,-12,3,53,-21
4,-29,-36,14,23,-38,-13,-10,-13,3,54,-20
2,-26,-31,14,19,-34,-15,-11,-14,3,54,-18
1,-24,-28,13,16,-31,-17,-12,-15,3,54,-16
1,-23,-27,13,16,-30,-18,-13,-15,2,54,-14
-1,-23,-24,13,13,-28,-18,-14,-16,2,53,-13
-4,-24,-22,16,10,-27,-17,-14,-15,2,53,-11
-5,-27,-25,19,11,-32,-17,-14,-15,1,51,-11
-6,-32,-29,22,13,-37,-16,-14,-15,1,50,-12
-4,-36,-35,23,17,-43,-15,-14,-14,0,49,-13
-4,-39,-39,25,20,-47,-17,-15,-15,-1,49,-14
-6,-44,-42,28,20,-52,-19,-16,-17,-4,47,-16
-9,-49,-44,33,20,-56,-20,-17,-18,-5,45,-17
-13,-53,-45,37,18,-60,-21,-17,-19,-6,44,-18
-16,-59,-47,42,17,-65,-21,-18,-20,-8,43,-21
-19,-61,-48,45,16,-66,-20,-18,-22,-9,41,-21
-19,-61,-47,45,15,-66,-20,-19,-22,-10,40,-21
-21,-60,-45,45,13,-64,-20,-19,-23,-10,40,-21
-23,-57,-39,45,9,-59,-20,-19,-23,-10,39,-21
-24,-53,-34,43,6,-54,-20,-21,-23,-10,39,-21
-26,-51,-29,43,2,-49,-22,-22,-23,-11,39,-23
-29,-49,-23,43,-3,-44,-23,-24,-24,-12,38,-25
-34,-47,-17,44,-10,-39,-24,-25,-24,-12,37,-25
-40,-47,-11,48,-16,-36,-24,-25,-24,-12,36,-26
-46,-50,-8,52,-21,-36,-24,-26,-25,-13,36,-28
-52,-52,-4,57,-28,-35,-22,-26,-25,-13,35,-28
-57,-53,1,60,-33,-32,-20,-25,-25,-13,34,-29
-59,-54,1,61,-33,-33,-20,-25,-25,-13,33,-30
-60,-55,1,63,-34,-34,-20,-25,-26,-14,33,-30
-62,-57,1,64,-36,-35,-19,-26,-26,-14,33,-30
-63,-61,-2,67,-34,-39,-20,-27,-28,-15,33,-31
-63,-65,-7,70,-32,-45,-20,-28,-30,-18,32,-32
-63,-69,-12,72,-29,-50,-19,-28,-31,-18,30,-32
-63,-76,-19,76,-25,-59,-21,-29,-32,-18,29,-34
-63,-83,-26,80,-21,-67,-22,-29,-35,-21,28,-36
-63,-81,-25,79,-22,-66,-21,-29,-36,-21,26,-36
-63,-78,-21,77,-24,-61,-20,-29,-35,-21,24,-37
-63,-79,-22,78,-24,-62,-20,-28,-35,-21,22,-37
-63,-79,-23,78,-23,-63,-20,-28,-35,-21,21,-37
-61,-77,-23,75,-22,-62,-19,-28,-34,-20,20,-37
-57,-77,-26,73,-18,-63,-20,-28,-34,-20,21,-39
-56,-79,-28,74,-16,-66,-21,-28,-35,-21,21,-40
-59,-79,-27,75,-18,-66,-20,-28,-34,-20,22,-38
-61,-78,-23,76,-22,-62,-21,-28,-33,-20,22,-39
-65,-81,-23,80,-24,-65,-22,-28,-35,-21,22,-39
-71,-82,-18,84,-30,-62,-21,-28,-33,-21,21,-37
-76,-80,-9,85,-38,-56,-20,-27,-29,-20,21,-35
-79,-81,-7,87,-41,-55,-20,-27,-28,-20,23,-32
-80,-82,-8,88,-41,-56,-19,-27,-30,-20,24,-30
-76,-80,-10,85,-37,-56,-18,-26,-31,-19,25,-28
-67,-77,-16,79,-29,-58,-19,-27,-32,-19,26,-27
-62,-77,-20,76,-24,-60,-20,-28,-33,-20,26,-28
-60,-76,-22,75,-22,-60,-19,-29,-33,-19,26,-28
-62,-76,-20,75,-24,-60,-20,-30,-33,-18,26,-29
-65,-78,-19,78,-26,-60,-21,-31,-33,-20,26,-30
-67,-79,-18,80,-28,-60,-20,-31,-33,-19,25,-29
-69,-77,-13,80,-32,-56,-19,-30,-33,-18,25,-27
-71,-77,-12,81,-33,-55,-19,-30,-33,-18,26,-26
-67,-83,-23,82,-25,-66,-19,-30,-35,-23,22,-29
-67,-77,-15,78,-29,-57,-16,-26,-31,-18,22,-29
-56,-77,-26,73,-17,-64,-11,-23,-27,-22,15,-31
-74,-87,-19,88,-32,-66,-5,-18,-24,-21,18,-44
-78,-90,-19,92,-33,-68,2,-12,-19,-19,15,-46
-99,-93,-1,104,-56,-60,10,-6,-13,-18,15,-50
-103,-97,-1,108,-58,-61,16,-1,-9,-18,10,-50
-103,-97,-1,108,-58,-61,23,9,-3,-15,10,-53
-110,-73,32,99,-80,-27,32,15,9,-9,10,-53
-110,-63,43,93,-86,-14,37,17,19,3,17,-50
-106,-67,36,93,-80,-21,40,24,23,12,26,-50
-81,-40,39,65,-68,-2,43,36,40,35,44,-44
-56,-10,47,35,-58,21,46,49,59,62,62,-22
-31,3,36,15,-37,23,41,54,74,85,89,-7
4,13,10,-10,-3,14,43,58,77,109,112,13
47,40,-4,-46,29,23,25,57,78,126,139,39
97,43,-52,-75,84,-2,-2,39,65,133,164,61
151,57,-92,-110,137,-17,-35,19,55,148,193,94
197,87,-107,-151,172,-6,-61,3,51,173,230,138
229,127,-96,-190,184,26,-91,-18,44,194,268,186
265,183,-70,-240,189,77,-119,-46,31,199,288,226
272,247,-8,-280,159,153,-151,-82,9,198,301,257
276,280,25,-301,143,193,-194,-135,-42,151,276,270
236,300,87,-291,86,243,-230,-193,-100,94,235,265
179,300,145,-261,21,277,-260,-248,-168,21,180,261
136,300,189,-239,-28,302,-289,-298,-231,-65,115,237
76,257,204,-183,-71,283,-311,-344,-299,-144,47,208
22,210,207,-129,-103,256,-331,-373,-338,-202,-7,184
-3,187,207,-103,-117,240,-334,-384,-349,-223,-38,167
-31,173,222,-81,-141,240,-329,-369,-341,-226,-51,143
-39,123,174,-49,-120,181,-317,-344,-327,-226,-61,125
-24,77,109,-30,-75,112,-298,-313,-299,-220,-64,103
-6,40,50,-19,-32,55,-274,-282,-280,-208,-64,83
-6,-10,-4,10,-1,-9,-244,-249,-251,-198,-67,53
-6,-27,-23,19,9,-30,-212,-218,-224,-185,-67,37
-6,-30,-26,21,11,-34,-187,-191,-198,-166,-59,29
4,-33,-41,17,25,-44,-163,-166,-172,-155,-51,18
-6,-20,-15,15,5,-21,-139,-143,-149,-136,-40,13
-10,-17,-8,15,-1,-14,-112,-119,-125,-113,-27,20
-17,-17,-1,19,-9,-10,-100,-107,-110,-100,-20,9
-24,-30,-8,30,-9,-23,-88,-96,-99,-92,-32,-9
-24,-43,-23,37,-1,-40,-74,-84,-88,-81,-14,-13
-28,-47,-23,41,-3,-43,-62,-74,-75,-72,-11,-15
-46,-53,-12,54,-20,-40,-55,-67,-72,-66,-9,-18
-46,-53,-12,54,-20,-40,-44,-58,-64,-59,-6,-18
-46,-50,-8,52,-21,-36,-37,-50,-51,-50,1,-18
-35,-50,-19,47,-9,-43,-31,-44,-48,-50,5,-18
-39,-53,-19,51,-11,-44,-26,-42,-42,-45,9,-20
-39,-53,-19,51,-11,-44,-19,-35,-35,-41,9,-20
-60,-57,-1,63,-33,-36,-10,-31,-30,-31,12,-22
-60,-60,-4,66,-32,-40,-8,-31,-28,-31,12,-24
-59,-59,-4,65,-31,-40,-3,-28,-26,-25,14,-24
-61,-61,-4,66,-32,-41,0,-26,-26,-23,16,-25
-62,-62,-4,68,-33,-42,3,-25,-26,-22,16,-25
-63,-60,-1,67,-35,-38,6,-23,-26,-20,18,-26
-63,-59,-1,66,-35,-37,9,-21,-26,-19,20,-26
-63,-61,-3,68,-34,-40,11,-20,-25,-19,21,-25
-63,-62,-4,68,-33,-41,14,-18,-23,-18,21,-23
-63,-63,-4,69,-33,-42,17,-17,-21,-16,20,-22
-61,-65,-8,69,-30,-45,18,-17,-20,-16,20,-23
-60,-65,-10,69,-28,-47,19,-17,-20,-16,19,-25
-59,-63,-9,67,-28,-45,19,-17,-19,-16,19,-25
-61,-64,-8,68,-30,-45,19,-17,-19,-16,19,-26
-62,-65,-8,69,-31,-46,20,-17,-19,-15,20,-25
-63,-65,-7,69,-32,-44,23,-16,-19,-14,20,-24
-65,-63,-3,70,-35,-42,25,-15,-18,-13,22,-24
-66,-63,-1,70,-37,-40,26,-14,-18,-13,23,-24
-64,-63,-4,69,-34,-42,27,-13,-17,-13,23,-24
-63,-63,-4,69,-33,-42,28,-12,-17,-13,22,-24
-63,-63,-4,69,-33,-42,28,-12,-16,-13,21,-24
-63,-63,-4,69,-33,-42,29,-12,-15,-12,20,-24
-63,-63,-4,69,-33,-42,29,-12,-14,-12,20,-24
-64,-64,-4,70,-34,-43,29,-13,-13,-12,18,-25
-66,-65,-4,72,-35,-43,30,-13,-13,-13,17,-25
-63,-65,-7,69,-32,-44,31,-12,-12,-12,15,-25
-58,-63,-10,66,-27,-46,30,-12,-12,-12,15,-24
-56,-63,-11,65,-26,-46,30,-12,-12,-11,15,-24
-56,-61,-9,63,-26,-43,31,-11,-12,-11,15,-24
-56,-60,-9,63,-27,-43,31,-10,-11,-10,14,-24
-56,-62,-11,64,-25,-45,30,-10,-11,-11,14,-23
-58,-63,-9,66,-28,-45,31,-10,-11,-12,14,-22
-59,-63,-9,66,-28,-44,32,-9,-11,-13,14,-21
-56,-64,-13,66,-24,-48,32,-9,-12,-15,14,-22
-54,-65,-17,65,-21,-51,31,-10,-12,-16,14,-23
-54,-66,-18,66,-20,-52,32,-10,-11,-16,14,-24
-56,-68,-17,68,-23,-53,32,-9,-10,-15,15,-24
-59,-69,-15,69,-24,-52,32,-8,-10,-15,16,-23
-59,-66,-12,69,-27,-49,32,-7,-11,-14,16,-21
-59,-64,-9,67,-28,-46,32,-6,-13,-14,15,-20
-57,-63,-11,66,-26,-46,32,-6,-15,-14,12,-20
-54,-63,-14,63,-23,-48,32,-6,-17,-14,9,-21
-53,-63,-15,63,-22,-48,32,-6,-19,-14,7,-21
-55,-64,-14,65,-24,-49,32,-6,-20,-14,6,-21
-58,-65,-12,67,-26,-49,33,-5,-19,-14,5,-21
-59,-66,-12,68,-26,-49,34,-5,-15,-14,5,-21
-58,-66,-13,68,-25,-49,34,-5,-9,-13,6,-21
-56,-66,-15,67,-24,-50,35,-4,-6,-13,7,-21
-56,-65,-14,66,-24,-49,37,-4,-3,-12,7,-21
-54,-63,-14,64,-23,-48,38,-3,-1,-12,7,-20
-51,-63,-17,62,-20,-49,39,-3,-1,-13,7,-19
-47,-63,-20,60,-15,-51,40,-2,-0,-13,8,-17
-46,-63,-22,60,-14,-52,40,-2,0,-12,8,-15
-48,-63,-20,60,-16,-51,40,-2,1,-12,9,-13
-51,-63,-17,62,-20,-49,41,-1,0,-11,10,-11
-51,-63,-16,63,-20,-49,42,-0,1,-11,11,-10
-52,-63,-15,63,-21,-49,43,1,1,-9,13,-9
-52,-63,-15,63,-21,-49,43,1,1,-9,13,-8
-50,-61,-15,60,-20,-47,44,2,0,-8,14,-8
-46,-57,-15,57,-18,-45,44,3,0,-6,14,-8
-44,-57,-17,55,-15,-45,42,3,-1,-4,14,-8
-42,-55,-18,54,-14,-45,42,3,0,-2,14,-7
-43,-53,-15,53,-16,-42,41,4,2,-1,14,-7
-49,-54,-9,57,-23,-39,41,4,2,0,14,-6
-55,-55,-4,60,-28,-37,42,5,3,0,15,-5
-56,-55,-3,60,-30,-36,43,6,3,1,15,-4
-54,-53,-3,59,-29,-35,43,6,3,1,17,-4
-53,-53,-4,57,-28,-35,43,6,4,2,18,-4
-51,-51,-3,56,-28,-33,43,8,5,3,18,-3
-49,-47,-1,52,-28,-30,42,9,7,4,19,-1
-48,-44,1,50,-28,-27,42,9,7,4,20,0
-44,-42,-1,47,-24,-27,44,10,7,4,20,1
-36,-40,-7,42,-17,-29,46,11,8,4,21,2
-29,-39,-13,38,-9,-32,47,11,7,2,22,3
-26,-39,-17,36,-5,-34,47,11,7,1,23,4
-24,-35,-13,33,-7,-29,47,12,7,2,25,6
-24,-31,-10,31,-7,-26,47,13,6,4,28,8
-24,-31,-10,31,-7,-26,46,13,5,5,30,9
-21,-28,-9,28,-7,-22,46,13,5,6,30,11
-18,-23,-7,23,-6,-19,45,14,6,8,30,13
-17,-21,-5,21,-7,-15,44,14,7,10,30,15
-16,-19,-4,19,-7,-14,43,15,8,11,30,18
-14,-15,-2,16,-7,-10,43,15,9,12,31,22
-11,-11,-1,13,-5,-8,42,14,9,13,33,25
-6,-8,-2,8,-2,-6,41,14,9,13,36,27
-1,-3,-2,3,1,-3,40,15,10,15,38,30
3,-1,-4,-1,4,-2,38,15,10,16,41,33
6,1,-5,-4,7,-2,36,14,10,16,46,35
11,5,-6,-8,10,1,35,14,10,18,49,38
16,10,-6,-13,13,3,33,14,10,20,51,41
21,13,-8,-18,17,4,31,13,10,21,52,44
28,17,-10,-23,21,5,31,13,11,23,53,47
34,23,-9,-30,24,10,31,13,12,26,54,51
36,28,-6,-34,24,14,30,12,12,28,57,54
39,29,-7,-36,26,14,30,11,13,29,60,57
42,32,-8,-40,28,16,29,11,13,31,63,61
43,35,-5,-42,27,20,28,11,13,32,66,65
44,36,-5,-43,28,20,26,10,12,32,69,69
45,39,-4,-45,28,23,26,9,11,33,71,74
48,44,-1,-49,28,28,26,8,10,34,72,76
50,49,3,-54,27,33,25,8,10,35,73,78
51,55,8,-57,24,40,26,7,9,35,74,80
54,62,12,-63,24,47,26,7,9,36,75,83
56,65,14,-66,24,50,25,6,9,37,77,85
59,66,12,-67,26,49,24,5,8,37,79,86
61,67,11,-69,28,49,23,4,7,37,79,87
64,69,11,-72,30,51,21,2,6,36,80,88
64,70,11,-72,30,51,20,1,4,34,79,89
65,71,12,-74,30,53,19,-1,4,33,78,90
65,73,13,-75,29,55,19,-2,3,32,76,92
64,73,15,-74,28,56,18,-3,3,31,75,92
62,73,17,-73,26,57,17,-4,3,31,74,93
63,75,18,-75,25,59,17,-4,3,32,74,94
66,79,19,-78,27,61,17,-5,3,32,74,93
68,79,18,-80,28,61,17,-5,3,31,75,93
66,80,20,-79,26,63,17,-6,4,32,75,92
63,79,22,-77,24,63,17,-7,4,32,75,92
62,77,21,-75,24,62,16,-8,5,30,74,92
61,77,21,-75,23,61,16,-8,5,30,73,92
59,75,22,-73,21,61,16,-8,6,29,70,91
56,74,24,-70,18,61,17,-8,5,29,68,90
55,73,24,-69,18,61,18,-8,5,29,65,89
52,73,27,-68,15,63,19,-8,5,29,65,88
49,71,28,-65,11,62,19,-8,5,28,65,86
49,68,25,-63,14,58,20,-9,5,27,64,84
50,67,23,-63,15,56,21,-9,5,27,63,81
49,65,20,-62,16,54,22,-10,4,26,61,78
46,58,17,-56,16,47,22,-11,3,24,59,74
42,53,15,-51,15,43,23,-11,2,23,57,71
37,51,18,-48,11,43,24,-11,2,22,54,70
29,48,23,-42,4,44,25,-11,1,21,52,67
24,44,23,-37,1,42,27,-11,0,20,50,64
21,41,23,-34,-1,40,29,-11,1,19,46,61
16,38,26,-29,-6,39,31,-11,1,18,45,57
10,33,26,-23,-9,36,33,-12,1,16,43,54
6,29,26,-19,-11,33,35,-13,0,14,39,51
3,24,23,-15,-11,29,35,-14,0,13,36,48
-1,18,20,-10,-12,24,36,-15,-2,10,33,44
-6,15,23,-4,-16,23,38,-15,-3,8,30,41
-14,13,29,0,-24,26,38,-15,-3,7,27,39
-21,8,31,7,-29,23,38,-15,-4,5,25,36
-26,3,31,12,-32,20,39,-15,-5,3,23,32
-31,1,33,16,-36,20,41,-15,-6,2,22,31
-33,0,34,17,-37,20,41,-15,-8,0,22,29
-35,-3,33,20,-38,18,41,-16,-9,-2,21,26
-37,-5,33,22,-39,16,41,-16,-10,-2,19,25
-36,-9,28,24,-36,11,41,-18,-11,-4,17,23
-34,-16,17,27,-28,0,40,-19,-13,-8,15,21
-34,-21,12,30,-26,-6,41,-20,-14,-9,14,20
-36,-27,8,34,-25,-12,42,-20,-14,-10,13,20
-37,-31,4,37,-24,-16,43,-21,-15,-11,12,19
-38,-31,5,37,-24,-16,43,-21,-16,-12,10,18
-38,-30,6,37,-24,-15,43,-21,-17,-12,9,17
-38,-29,7,37,-25,-14,43,-21,-17,-11,9,16
-38,-29,7,37,-25,-14,43,-21,-17,-11,9,15
-38,-29,7,37,-25,-14,43,-21,-17,-11,9,15
-38,-29,7,37,-25,-14,43,-21,-17,-11,9,15
-38,-29,7,37,-25,-14,43,-21,-17,-11,9,15
-38,-29,7,37,-25,-14,43,-21,-17,-11,9,15
-44,-33,9,41,-29,-15,44,-22,-18,-14,10,18
-51,-37,12,48,-36,-16,45,-22,-19,-17,11,22
-54,-39,13,50,-38,-16,46,-22,-19,-18,12,24
-55,-39,13,51,-38,-17,46,-22,-19,-18,12,24
-56,-39,14,51,-39,-16,46,-22,-19,-19,12,24
-56,-39,14,51,-39,-16,46,-22,-19,-19,12,24
-56,-39,14,51,-39,-16,46,-22,-19,-19,12,24
-56,-39,14,51,-39,-16,46,-22,-19,-19,11,24
-56,-39,14,51,-39,-16,46,-21,-19,-19,10,24
-56,-39,14,51,-39,-16,46,-20,-19,-19,9,24
-56,-39,14,51,-39,-16,46,-19,-19,-19,7,24
-54,-39,12,51,-37,-17,46,-19,-19,-19,5,24
-51,-39,9,49,-34,-19,46,-18,-19,-19,4,24
-49,-39,7,48,-31,-20,46,-18,-19,-19,3,24
-45,-39,3,46,-27,-23,46,-18,-19,-19,1,24
-43,-39,1,45,-24,-24,47,-18,-19,-19,0,24
-42,-39,0,44,-24,-25,48,-18,-19,-19,-0,24
-41,-39,-1,44,-23,-25,49,-18,-19,-19,-1,24
-41,-39,-1,44,-23,-25,50,-18,-19,-19,-1,24
-41,-39,-1,44,-23,-25,51,-18,-19,-19,-1,24
-41,-39,-1,44,-23,-25,52,-17,-19,-19,-1,24
-41,-39,-1,44,-23,-25,52,-16,-19,-19,-1,24
-41,-39,-1,44,-23,-25,52,-15,-19,-19,-1,24
-41,-39,-1,44,-23,-25,52,-14,-19,-19,-1,24
-41,-39,-1,44,-23,-25,52,-14,-19,-19,-1,24
-41,-39,-1,44,-23,-25,52,-14,-19,-19,-1,24
-41,-39,-1,44,-23,-25,52,-14,-19,-19,-1,24
-41,-38,1,43,-24,-23,52,-14,-19,-19,0,24
-41,-35,4,42,-25,-20,52,-13,-19,-19,1,24
-41,-33,7,40,-27,-16,52,-12,-19,-19,3,24
-41,-29,10,38,-29,-12,52,-11,-19,-19,4,24
-41,-27,12,37,-30,-9,52,-10,-19,-19,5,25
-41,-27,13,37,-31,-9,52,-10,-18,-19,7,27
-41,-26,14,37,-31,-8,52,-10,-17,-19,9,29
-41,-26,14,37,-31,-8,52,-10,-16,-19,10,31
-41,-26,14,37,-31,-8,52,-10,-15,-18,11,32
-41,-26,14,37,-31,-8,52,-10,-15,-17,12,32
-41,-26,14,37,-31,-8,52,-10,-15,-16,12,33
-41,-26,14,37,-31,-8,52,-10,-15,-14,12,33
-41,-26,14,37,-31,-8,52,-10,-15,-13,12,33
-41,-26,14,37,-31,-8,52,-9,-15,-13,12,33
-41,-26,14,37,-31,-8,52,-8,-15,-13,12,33
-41,-26,14,37,-31,-8,52,-7,-15,-13,12,33
-41,-26,14,37,-31,-8,52,-6,-14,-13,12,33
-41,-26,14,37,-31,-8,52,-6,-13,-13,12,33
-41,-26,14,37,-31,-8,52,-6,-12,-13,12,33
-41,-26,14,37,-31,-8,52,-6,-11,-13,12,33
-41,-26,14,37,-31,-8,52,-6,-10,-13,12,33
-41,-26,14,37,-31,-8,52,-6,-10,-13,12,33
-41,-26,14,37,-31,-8,52,-6,-10,-13,12,33
-41,-26,14,37,-31,-8,52,-6,-10,-13,12,33
-41,-26,14,37,-31,-8,52,-6,-10,-13,12,33
-41,-26,14,37,-31,-8,52,-6,-10,-13,12,33
-41,-26,14,37,-31,-8,52,-6,-10,-13,12,33
-41,-26,14,37,-31,-8,52,-6,-10,-13,12,33
-41,-26,14,37,-31,-8,51,-6,-10,-13,12,33
-41,-26,14,37,-31,-8,50,-6,-11,-13,12,33
-41,-26,14,37,-31,-8,49,-6,-12,-13,12,33
-41,-26,14,37,-31,-8,47,-6,-13,-13,12,33
-41,-26,14,37,-31,-8,47,-6,-14,-13,11,33
-41,-26,14,37,-31,-8,46,-6,-14,-13,10,33
-41,-26,14,37,-31,-8,46,-6,-15,-13,9,33
-41,-26,14,37,-31,-8,46,-6,-15,-13,7,33
-41,-26,14,37,-31,-8,46,-6,-15,-13,6,33
-41,-26,14,37,-31,-8,46,-6,-15,-13,6,33
-41,-26,14,37,-31,-8,46,-6,-15,-13,5,33
-41,-26,14,37,-31,-8,46,-6,-15,-13,5,33
-41,-26,14,37,-31,-8,46,-6,-15,-13,5,33
-41,-26,14,37,-31,-8,46,-6,-15,-15,4,33
-41,-26,14,37,-31,-8,46,-6,-15,-16,3,33
-41,-26,14,37,-31,-8,46,-6,-15,-17,1,33
-41,-26,14,37,-31,-8,46,-6,-15,-18,0,33
-41,-26,14,37,-31,-8,46,-6,-15,-18,-0,33
-41,-26,14,37,-31,-8,46,-6,-15,-19,-1,33
-41,-26,14,37,-31,-8,46,-6,-15,-19,-1,33
-43,-26,15,37,-33,-7,46,-5,-15,-19,-1,32
-46,-26,18,39,-36,-5,46,-5,-15,-19,-1,30
-49,-26,21,40,-39,-3,46,-4,-15,-19,-1,29
-52,-26,25,42,-43,-2,46,-3,-15,-19,-1,26
-54,-27,26,44,-45,-2,46,-2,-15,-19,-1,25
-55,-30,23,46,-44,-5,46,-2,-16,-19,-1,25
-56,-33,21,48,-43,-8,46,-2,-17,-19,-1,24
-56,-36,18,49,-41,-12,46,-2,-18,-19,-1,24
-56,-38,15,51,-40,-14,46,-2,-19,-19,-1,24
-56,-39,15,51,-40,-15,46,-3,-19,-21,-1,24
-56,-39,14,51,-39,-16,46,-4,-19,-22,-1,24
-56,-39,14,51,-39,-16,46,-5,-19,-23,-1,24
-56,-39,14,51,-39,-16,45,-5,-19,-24,-1,24
-56,-39,14,51,-39,-16,44,-6,-19,-24,-3,24
-56,-39,14,51,-39,-16,43,-6,-19,-25,-4,24
-56,-39,14,51,-39,-16,41,-6,-19,-25,-5,24
-56,-39,14,51,-39,-16,41,-6,-20,-25,-6,24
-56,-39,14,51,-39,-16,40,-6,-20,-25,-7,24
-56,-39,14,51,-39,-16,40,-6,-21,-25,-7,24
-56,-39,14,51,-39,-16,40,-6,-23,-25,-7,24
-56,-39,14,51,-39,-16,40,-6,-23,-25,-8,23
-56,-39,14,51,-39,-16,40,-6,-23,-25,-9,21
-56,-39,14,51,-39,-16,40,-6,-24,-25,-10,20
-56,-39,14,51,-39,-16,40,-6,-24,-25,-12,18
-56,-41,12,52,-38,-18,40,-6,-24,-25,-13,16
-56,-43,9,54,-37,-21,40,-6,-24,-25,-13,16
-56,-46,7,55,-35,-25,40,-6,-24,-25,-14,15
-56,-49,3,57,-33,-29,40,-6,-24,-25,-14,15
-57,-51,2,59,-33,-31,40,-6,-24,-25,-13,15
-60,-52,4,60,-37,-30,40,-6,-24,-25,-12,15
-63,-53,7,63,-39,-29,40,-6,-24,-25,-10,15
-66,-53,10,64,-43,-27,40,-6,-24,-25,-9,15
-69,-53,12,66,-46,-26,40,-6,-24,-25,-8,15
-69,-53,13,66,-46,-26,40,-6,-24,-26,-7,15
-70,-53,14,66,-47,-25,40,-6,-24,-28,-7,15
-70,-53,14,66,-47,-25,40,-6,-24,-29,-7,15
-70,-53,14,66,-47,-25,40,-6,-24,-30,-7,15
-70,-53,14,66,-47,-25,40,-6,-24,-30,-7,15
-70,-53,14,66,-47,-25,40,-6,-24,-30,-7,15
-70,-53,14,66,-47,-25,40,-6,-24,-30,-7,15
-70,-53,14,66,-47,-25,40,-6,-24,-30,-8,15
-70,-53,14,66,-47,-25,40,-6,-24,-30,-9,15
-70,-53,14,66,-47,-25,40,-6,-24,-30,-10,15
-70,-53,14,66,-47,-25,40,-6,-24,-30,-12,15
-70,-53,14,66,-47,-25,40,-6,-24,-30,-13,15
-70,-53,14,66,-47,-25,40,-6,-24,-30,-13,15
-70,-53,14,66,-47,-25,40,-6,-24,-30,-14,15
-70,-53,14,66,-47,-25,40,-6,-24,-30,-14,15
-71,-53,15,67,-49,-24,40,-6,-24,-30,-14,15
-74,-53,18,69,-52,-22,40,-6,-24,-30,-14,15
-77,-53,21,70,-55,-20,40,-6,-24,-30,-14,15
-81,-53,25,72,-59,-19,40,-6,-24,-30,-14,15
-83,-53,27,73,-62,-17,39,-6,-24,-30,-14,15
-84,-53,28,73,-63,-17,38,-6,-24,-30,-14,15
-84,-53,28,74,-63,-16,37,-6,-24,-30,-14,15
-84,-53,28,74,-63,-16,35,-6,-24,-30,-14,15
-84,-53,28,74,-63,-16,35,-6,-24,-30,-14,15
-84,-53,28,74,-63,-16,34,-6,-24,-30,-14,15
-84,-53,28,74,-63,-16,34,-6,-24,-30,-14,15
-84,-53,28,74,-63,-16,34,-6,-24,-30,-14,15
-84,-54,27,75,-63,-18,34,-6,-24,-31,-14,15
-84,-57,24,76,-61,-21,34,-6,-25,-32,-15,15
-84,-59,22,77,-60,-24,34,-6,-26,-33,-16,15
-84,-59,21,78,-59,-25,34,-6,-26,-33,-17,15
-84,-59,21,78,-59,-25,34,-6,-26,-33,-17,15
-84,-59,21,78,-59,-25,34,-6,-26,-33,-17,15
-84,-59,21,78,-59,-25,34,-6,-26,-33,-17,15
-84,-59,21,78,-59,-25,34,-6,-26,-33,-17,15
