I,II,III,aVR,aVL,aVF,V1,V2,V3,V4,V5,V6
-12,-23,-20,24,11,-21,-12,19,-14,-7,-35,-33
-12,-23,-20,24,11,-21,-12,19,-13,-7,-34,-32
-12,-23,-20,24,11,-21,-12,19,-12,-7,-33,-31
-12,-23,-20,24,11,-21,-12,19,-11,-7,-32,-30
-12,-23,-20,24,11,-21,-12,19,-11,-7,-32,-29
-12,-23,-20,24,11,-21,-12,19,-10,-7,-32,-29
-12,-23,-20,24,11,-21,-12,19,-10,-7,-32,-29
-12,-23,-20,24,11,-21,-12,19,-10,-7,-32,-29
-12,-23,-20,24,11,-21,-12,19,-10,-7,-32,-29
-12,-23,-20,24,11,-21,-12,19,-10,-7,-32,-29
-12,-23,-20,24,11,-21,-12,19,-10,-7,-32,-29
-12,-23,-20,24,11,-21,-12,19,-10,-7,-32,-29
-12,-23,-20,24,11,-21,-12,19,-10,-7,-32,-29
-12,-23,-20,24,11,-21,-12,19,-10,-7,-32,-29
-12,-23,-20,24,11,-21,-12,19,-10,-7,-32,-29
-12,-23,-20,24,11,-21,-12,19,-10,-7,-32,-29
-12,-23,-20,24,11,-21,-12,19,-10,-7,-32,-29
-12,-23,-20,24,11,-21,-12,19,-10,-7,-32,-29
-12,-23,-20,24,11,-21,-12,19,-10,-7,-32,-29
-12,-23,-20,24,11,-21,-12,19,-10,-7,-32,-29
-12,-23,-20,24,11,-21,-12,19,-10,-7,-32,-29
-12,-23,-20,24,11,-21,-12,19,-10,-7,-32,-29
-12,-23,-20,24,11,-21,-12,19,-10,-7,-32,-29
-14,-24,-20,25,10,-22,-12,19,-10,-8,-32,-29
-16,-25,-20,27,9,-22,-12,19,-10,-9,-32,-29
-18,-26,-20,29,8,-23,-12,19,-10,-9,-32,-29
-21,-28,-20,31,6,-24,-12,19,-10,-10,-32,-29
-23,-29,-20,33,5,-24,-12,19,-10,-11,-32,-29
-24,-29,-20,33,5,-25,-12,19,-10,-11,-32,-29
-24,-29,-20,34,5,-25,-12,19,-10,-11,-32,-29
-24,-29,-20,34,5,-25,-12,19,-10,-11,-32,-29
-23,-29,-20,33,6,-25,-12,19,-10,-11,-32,-29
-21,-29,-22,32,8,-26,-12,19,-10,-11,-32,-29
-18,-29,-23,31,11,-26,-12,19,-10,-11,-32,-29
-15,-29,-25,30,14,-27,-12,19,-10,-11,-32,-29
-14,-29,-25,29,15,-27,-12,19,-10,-11,-32,-29
-13,-27,-24,28,14,-26,-12,19,-10,-11,-32,-29
-12,-26,-23,27,14,-25,-12,19,-10,-11,-32,-29
-12,-25,-21,26,12,-23,-12,19,-10,-11,-32,-29
-12,-24,-20,25,11,-22,-13,18,-10,-11,-32,-29
-12,-23,-20,25,11,-22,-14,17,-10,-11,-32,-29
-12,-23,-20,24,11,-21,-16,15,-10,-11,-32,-29
-12,-23,-20,24,11,-21,-17,13,-10,-11,-32,-29
-12,-23,-20,24,11,-21,-19,12,-10,-11,-32,-29
-12,-23,-20,24,11,-21,-19,11,-10,-11,-32,-29
-12,-23,-20,24,11,-21,-19,11,-10,-11,-32,-29
-12,-23,-20,24,11,-21,-19,11,-10,-11,-32,-29
-14,-24,-20,26,10,-22,-19,12,-11,-11,-32,-29
-15,-26,-21,27,11,-23,-18,12,-11,-11,-33,-29
-15,-26,-21,28,10,-24,-17,13,-12,-11,-33,-29
-15,-26,-21,28,11,-24,-17,13,-12,-11,-33,-29
-15,-26,-21,28,11,-24,-17,13,-12,-11,-33,-29
-15,-26,-21,28,11,-24,-17,13,-12,-11,-33,-29
-15,-26,-21,28,11,-24,-17,13,-12,-11,-33,-29
-14,-25,-21,27,11,-23,-16,12,-12,-11,-32,-29
-11,-24,-21,24,13,-23,-14,9,-12,-10,-31,-28
-10,-23,-21,24,13,-22,-14,9,-12,-10,-31,-28
-9,-23,-21,23,14,-22,-14,9,-12,-10,-31,-28
-4,-21,-22,19,18,-21,-14,8,-11,-10,-30,-28
2,-18,-23,15,21,-20,-14,7,-9,-10,-29,-28
-2,-20,-22,17,18,-20,-14,6,-8,-9,-29,-27
-3,-20,-21,17,17,-20,-15,6,-6,-8,-28,-26
1,-18,-21,15,19,-19,-16,6,-5,-7,-26,-25
2,-17,-20,13,19,-18,-17,6,-3,-6,-25,-23
5,-11,-17,8,17,-14,-19,7,-1,-4,-23,-21
8,-6,-12,2,14,-8,-20,8,2,-1,-21,-18
7,-2,-7,-0,10,-5,-21,9,3,1,-19,-17
6,-0,-4,-1,7,-2,-22,10,5,2,-17,-15
4,-1,-3,-0,4,-2,-23,11,5,2,-17,-13
3,-1,-2,0,4,-1,-26,9,5,3,-17,-11
8,2,-3,-4,7,-1,-32,7,5,3,-17,-9
11,1,-5,-5,10,-2,-37,4,3,2,-17,-8
9,-2,-8,-1,11,-5,-40,3,0,0,-19,-9
5,-9,-13,5,14,-11,-41,3,-4,-3,-22,-12
5,-14,-20,10,20,-17,-42,5,-8,-7,-25,-15
12,-16,-26,9,28,-21,-42,6,-10,-8,-26,-17
20,-17,-32,6,37,-24,-40,8,-11,-9,-27,-17
27,-17,-36,4,45,-26,-37,10,-12,-10,-28,-17
30,-19,-40,4,50,-29,-36,10,-13,-11,-29,-17
29,-22,-43,6,52,-31,-35,9,-14,-12,-30,-18
25,-24,-43,9,50,-32,-34,8,-16,-14,-30,-19
21,-24,-41,12,46,-32,-33,7,-15,-15,-31,-20
18,-25,-40,13,43,-31,-33,6,-14,-16,-31,-20
19,-24,-39,12,43,-31,-32,6,-14,-16,-31,-20
22,-23,-40,10,46,-31,-33,5,-14,-16,-30,-20
24,-22,-40,8,47,-30,-34,4,-12,-15,-29,-19
23,-23,-41,10,47,-31,-34,5,-11,-14,-29,-19
22,-23,-40,10,46,-31,-32,7,-8,-13,-27,-18
15,-25,-38,14,40,-31,-31,8,-8,-12,-27,-18
8,-28,-37,20,36,-32,-31,8,-9,-13,-27,-18
11,-27,-38,18,38,-32,-29,10,-9,-13,-27,-18
15,-25,-38,15,40,-31,-28,10,-9,-13,-28,-18
16,-25,-39,15,42,-31,-27,9,-10,-14,-28,-17
17,-26,-40,15,43,-32,-27,7,-10,-15,-28,-17
22,-25,-42,11,48,-33,-26,7,-10,-15,-28,-17
24,-25,-44,11,50,-34,-26,6,-11,-16,-29,-18
22,-28,-46,14,51,-36,-27,6,-13,-18,-30,-20
23,-28,-46,14,51,-36,-29,4,-14,-19,-31,-21
22,-26,-44,13,50,-34,-30,3,-14,-19,-31,-21
20,-25,-40,13,45,-32,-31,3,-13,-17,-30,-21
14,-24,-36,14,38,-29,-30,4,-12,-16,-30,-20
3,-25,-31,20,28,-28,-29,5,-11,-16,-30,-21
-4,-27,-29,24,24,-28,-26,8,-11,-16,-30,-22
-8,-28,-29,27,21,-28,-22,12,-10,-16,-31,-23
-13,-31,-29,31,18,-30,-19,14,-11,-16,-32,-25
-15,-32,-29,33,17,-31,-18,15,-13,-17,-34,-27
-17,-33,-29,34,16,-31,-17,15,-16,-19,-35,-28
-21,-35,-29,37,14,-32,-16,15,-18,-20,-37,-29
-22,-36,-29,38,13,-32,-13,16,-19,-21,-38,-29
-24,-37,-29,40,13,-33,-11,18,-19,-21,-39,-31
-29,-40,-30,45,11,-35,-11,19,-20,-22,-40,-32
-32,-42,-30,47,10,-36,-12,19,-21,-23,-40,-33
-33,-42,-29,47,8,-36,-12,19,-21,-23,-39,-32
-33,-41,-29,47,8,-35,-12,18,-20,-22,-38,-31
-32,-41,-29,47,9,-36,-12,18,-20,-22,-36,-29
-28,-40,-30,44,11,-35,-11,19,-19,-21,-35,-26
-21,-38,-31,40,16,-35,-10,20,-18,-21,-35,-25
-17,-36,-32,37,19,-34,-10,21,-17,-21,-34,-25
-18,-36,-32,37,19,-34,-10,21,-17,-21,-35,-25
-22,-38,-31,40,16,-34,-10,21,-17,-21,-35,-26
-28,-39,-29,44,11,-35,-11,18,-18,-22,-37,-26
-31,-41,-29,46,9,-35,-13,15,-19,-23,-39,-27
-31,-40,-29,45,9,-35,-13,12,-20,-23,-39,-27
-30,-40,-29,45,9,-34,-14,8,-20,-22,-40,-28
-27,-38,-28,42,10,-33,-13,8,-19,-22,-39,-27
-26,-35,-25,39,8,-31,-11,8,-18,-21,-39,-25
-29,-36,-24,41,6,-30,-10,8,-17,-21,-39,-25
-29,-37,-26,42,7,-31,-10,7,-17,-20,-39,-25
-29,-37,-26,43,8,-32,-11,6,-16,-19,-38,-25
-31,-39,-28,45,8,-34,-13,7,-16,-19,-38,-25
-30,-40,-29,45,10,-35,-13,9,-16,-19,-37,-24
-32,-41,-29,47,9,-36,-12,13,-15,-19,-37,-24
-40,-46,-30,54,6,-39,-12,17,-17,-19,-37,-24
-4,-36,-39,31,31,-37,-12,19,-14,-18,-37,-24
-19,-46,-43,45,27,-44,-16,19,-13,-20,-39,-28
-13,-42,-41,39,28,-41,-7,30,3,-17,-37,-28
-13,-46,-46,43,33,-46,1,41,13,-17,-40,-31
-31,-57,-48,59,25,-53,6,41,18,-22,-48,-40
-25,-43,-36,45,18,-40,10,41,19,-22,-48,-40
-7,-25,-25,24,18,-25,10,37,24,-21,-47,-41
2,-16,-20,13,18,-18,10,45,38,-16,-41,-37
20,-11,-25,2,31,-18,8,52,53,-8,-29,-25
40,-5,-30,-12,46,-17,6,56,77,4,-16,-10
76,8,-36,-37,69,-12,3,67,111,27,11,14
126,32,-37,-77,96,0,-7,67,144,55,43,42
164,58,-30,-113,110,17,-29,41,169,93,92,82
179,83,-9,-140,99,41,-61,13,188,134,141,127
200,136,40,-191,68,92,-94,-41,197,189,212,195
212,239,153,-278,-23,199,-142,-118,211,262,296,282
209,314,243,-337,-101,281,-204,-209,179,309,355,341
173,365,324,-364,-189,346,-256,-277,138,341,391,390
111,383,382,-353,-271,382,-282,-320,102,357,405,407
85,338,345,-306,-252,341,-256,-288,101,363,400,390
76,288,292,-262,-212,290,-213,-258,70,343,372,360
31,264,290,-225,-233,276,-215,-256,7,278,304,320
-46,225,290,-162,-272,255,-187,-236,-79,160,184,241
-128,186,294,-96,-318,235,-152,-211,-161,29,56,148
-182,138,269,-36,-324,198,-122,-174,-216,-74,-39,72
-149,129,239,-42,-281,180,-101,-146,-206,-92,-60,38
-149,74,176,1,-227,121,-81,-107,-175,-81,-68,8
-158,43,144,30,-204,89,-57,-71,-148,-74,-67,-13
-143,34,125,32,-180,76,-42,-52,-132,-70,-67,-24
-131,32,116,28,-167,71,-38,-43,-115,-64,-63,-26
-117,23,96,30,-143,57,-33,-24,-90,-52,-58,-24
-120,2,74,47,-124,35,-25,-11,-72,-46,-52,-21
-99,11,72,32,-112,39,-20,-13,-55,-36,-41,-13
-66,20,63,11,-88,40,-23,-11,-43,-29,-33,-9
-51,20,54,5,-73,36,-29,-11,-36,-23,-29,-6
-46,11,40,10,-58,24,-44,-21,-36,-23,-27,-10
-46,5,33,15,-51,18,-44,-21,-32,-22,-27,-10
-4,19,24,-13,-23,21,-42,-21,-27,-21,-26,-4
-28,-2,14,14,-26,5,-36,-17,-23,-20,-26,-6
8,11,8,-12,-4,10,-31,-2,-12,-16,-26,-6
-40,-4,19,20,-36,6,-29,0,-9,-15,-25,-6
-37,-5,17,19,-33,5,-28,-4,-7,-14,-25,-7
-34,-5,14,18,-29,4,-27,-4,-5,-13,-25,-7
-36,-8,12,21,-28,2,-25,-4,-4,-13,-25,-8
-31,-9,8,20,-22,-1,-22,-3,-3,-12,-25,-8
-27,-10,4,19,-17,-3,-18,2,-1,-12,-25,-8
-25,-11,2,19,-14,-5,-15,6,0,-13,-25,-9
-24,-11,1,19,-13,-5,-14,8,0,-15,-25,-10
-26,-12,1,21,-14,-6,-14,9,0,-16,-26,-10
-34,-15,2,27,-19,-7,-16,8,-0,-17,-27,-10
-38,-17,3,30,-22,-8,-17,7,-0,-17,-27,-10
-32,-15,1,26,-18,-7,-17,7,1,-16,-25,-9
-25,-14,-1,22,-11,-8,-16,8,2,-15,-23,-7
-27,-16,-2,24,-11,-9,-16,9,3,-14,-23,-7
-34,-20,-3,30,-14,-12,-17,9,3,-15,-23,-7
-30,-20,-6,29,-10,-13,-17,10,4,-15,-23,-7
-16,-17,-11,21,1,-14,-17,12,5,-14,-23,-7
-11,-16,-13,18,5,-15,-16,12,5,-14,-23,-7
-13,-16,-11,19,3,-14,-16,11,4,-15,-22,-8
-15,-15,-9,19,0,-12,-17,11,4,-14,-21,-8
-14,-14,-8,17,0,-11,-17,10,5,-14,-19,-8
-11,-11,-7,14,1,-9,-17,9,5,-14,-18,-7
-10,-10,-6,13,0,-8,-18,8,5,-13,-17,-5
-12,-11,-5,15,-2,-8,-19,7,5,-12,-17,-4
-17,-12,-4,17,-5,-8,-19,7,6,-12,-17,-2
-16,-12,-5,17,-4,-8,-19,8,6,-11,-17,-1
-15,-11,-5,16,-4,-8,-20,9,6,-11,-16,-1
-18,-11,-2,17,-7,-7,-21,9,7,-10,-16,-1
-23,-11,1,19,-12,-6,-23,9,7,-10,-16,-0
-26,-11,2,20,-15,-5,-25,6,7,-9,-16,0
-19,-9,1,15,-10,-4,-26,4,8,-9,-15,1
-12,-5,1,10,-7,-3,-26,3,9,-8,-14,2
-12,-4,2,9,-8,-1,-27,2,10,-8,-13,2
-12,-4,2,9,-8,-1,-27,1,10,-8,-13,2
-14,-6,1,11,-8,-2,-27,0,10,-7,-13,2
-19,-8,2,15,-11,-3,-27,0,10,-7,-13,2
-22,-9,3,17,-14,-4,-27,0,10,-8,-13,2
-20,-9,1,16,-11,-4,-26,0,10,-8,-14,2
-19,-8,1,15,-11,-4,-25,0,10,-8,-15,2
-21,-8,3,15,-13,-3,-25,0,11,-7,-15,3
-20,-7,4,14,-14,-2,-25,0,12,-7,-16,4
-18,-6,4,12,-12,-1,-26,0,12,-7,-16,5
-15,-5,3,11,-10,-2,-26,0,13,-7,-16,5
-12,-5,1,10,-7,-2,-27,-0,13,-7,-16,5
-8,-5,-1,8,-3,-3,-28,-1,13,-7,-16,5
-3,-5,-4,5,2,-4,-28,-2,13,-7,-15,5
1,-3,-4,3,4,-3,-27,-2,14,-8,-13,6
-2,-3,-2,4,1,-3,-28,-2,14,-8,-12,6
-7,-5,-1,7,-2,-3,-28,-2,15,-9,-11,6
-9,-5,0,8,-4,-2,-29,-2,15,-10,-10,6
-8,-3,1,7,-5,-1,-29,-2,14,-9,-9,6
-7,-2,1,5,-5,-1,-29,-2,13,-9,-9,6
-5,-1,1,3,-4,0,-29,-2,13,-9,-8,6
-2,0,1,1,-2,1,-29,-3,12,-9,-8,6
-1,1,2,0,-2,2,-29,-3,13,-8,-7,7
1,2,2,-2,-1,2,-30,-4,13,-8,-7,7
2,2,2,-2,-1,2,-30,-3,14,-7,-6,8
0,2,3,-1,-2,3,-30,-2,15,-6,-5,9
2,3,2,-3,-1,3,-30,-2,16,-5,-4,10
4,4,2,-4,0,3,-30,-3,17,-4,-4,10
1,3,3,-2,-2,3,-30,-3,17,-3,-4,11
4,5,4,-5,-1,5,-29,-2,18,-1,-3,12
6,7,5,-8,-1,6,-29,-2,20,0,-1,13
4,7,6,-7,-4,6,-30,-3,20,1,-1,14
3,7,6,-6,-4,6,-32,-3,21,1,-0,15
5,8,6,-8,-3,7,-32,-4,21,2,0,15
7,9,6,-10,-2,8,-32,-4,22,3,1,16
8,11,8,-11,-3,9,-32,-4,23,4,2,17
7,11,8,-11,-4,10,-32,-4,24,5,3,18
6,11,9,-11,-5,10,-32,-4,25,6,3,18
4,11,11,-10,-7,11,-33,-5,25,7,4,19
1,11,13,-9,-11,12,-35,-6,25,7,4,20
2,12,13,-10,-10,12,-37,-8,26,7,5,20
4,12,12,-11,-8,12,-38,-8,27,9,5,21
7,14,12,-14,-7,13,-37,-8,28,10,6,24
10,17,13,-17,-7,15,-36,-8,30,12,8,27
11,18,15,-19,-7,17,-37,-8,31,13,10,29
13,20,16,-21,-7,19,-38,-8,32,14,11,31
11,21,18,-21,-10,19,-39,-9,32,15,12,32
9,19,17,-19,-10,18,-41,-12,33,16,12,33
11,20,18,-20,-10,19,-41,-12,34,17,14,34
12,23,20,-23,-11,21,-42,-12,36,19,15,35
13,26,22,-26,-13,24,-43,-12,38,20,17,36
14,27,24,-27,-13,25,-46,-15,39,20,18,35
15,28,24,-29,-13,26,-49,-16,40,20,19,35
19,30,24,-31,-11,27,-51,-15,42,21,21,36
22,33,25,-35,-10,29,-53,-15,44,23,23,36
24,34,26,-37,-10,30,-55,-16,45,24,24,38
24,35,26,-38,-10,31,-56,-17,46,25,25,40
23,37,29,-39,-13,33,-57,-18,48,27,27,41
22,39,32,-40,-16,36,-58,-20,50,28,29,43
22,41,35,-42,-18,38,-59,-21,51,30,31,45
25,44,37,-45,-19,41,-60,-21,54,32,34,47
30,48,38,-50,-18,43,-61,-22,56,34,36,50
33,49,38,-53,-16,44,-63,-24,58,36,37,52
34,51,39,-54,-17,45,-64,-25,59,38,39,54
34,53,42,-56,-18,48,-66,-26,61,39,41,55
34,54,43,-57,-19,49,-68,-28,62,41,43,58
34,56,45,-59,-21,51,-71,-29,63,42,46,61
36,60,49,-62,-24,55,-72,-29,65,45,48,65
37,62,51,-65,-25,57,-74,-32,67,46,51,68
44,66,51,-71,-22,59,-75,-35,69,48,53,72
51,71,52,-77,-19,62,-76,-37,72,50,56,75
49,71,54,-76,-21,63,-79,-39,73,52,58,77
47,71,55,-76,-23,63,-81,-41,74,54,60,78
50,75,58,-80,-24,67,-82,-42,77,56,62,81
53,79,61,-85,-25,70,-84,-43,79,58,65,84
53,81,63,-87,-27,73,-86,-43,79,60,66,86
50,82,66,-86,-31,74,-88,-46,80,61,68,87
47,83,69,-86,-36,77,-91,-48,81,62,70,89
47,87,74,-89,-39,81,-91,-49,82,64,73,92
50,91,77,-93,-41,85,-92,-49,85,67,75,95
53,94,78,-97,-40,87,-93,-51,86,68,77,97
54,94,77,-97,-39,86,-95,-54,87,70,78,98
55,95,78,-98,-39,87,-95,-56,87,71,80,100
58,97,79,-102,-39,89,-97,-58,88,73,82,102
62,98,78,-104,-36,89,-99,-59,88,73,83,104
67,101,77,-108,-32,90,-100,-60,89,74,85,106
71,103,78,-111,-31,91,-102,-61,89,75,87,108
72,104,79,-113,-31,92,-104,-62,90,76,88,110
73,105,79,-114,-31,93,-105,-64,90,77,90,112
73,107,81,-115,-33,95,-106,-65,90,78,91,113
73,108,83,-116,-34,96,-107,-67,90,79,92,114
71,109,85,-116,-37,98,-109,-68,90,79,93,115
74,111,85,-119,-36,99,-110,-70,90,80,94,115
80,113,84,-123,-31,99,-110,-70,90,81,94,116
81,114,85,-124,-32,101,-110,-71,91,81,95,117
82,116,87,-126,-33,102,-110,-71,91,81,96,119
80,115,87,-125,-34,102,-110,-71,89,82,97,119
79,114,86,-124,-34,101,-111,-71,88,81,96,119
79,112,85,-122,-33,99,-113,-73,86,80,95,118
77,110,82,-119,-31,97,-114,-74,84,79,94,117
74,108,82,-117,-33,96,-113,-74,82,78,93,116
71,106,81,-114,-34,94,-113,-73,80,76,92,115
72,105,80,-113,-31,93,-111,-72,78,74,91,114
75,106,79,-115,-30,94,-109,-70,77,73,90,114
75,105,78,-114,-29,92,-107,-67,74,71,88,113
69,99,75,-108,-29,88,-105,-66,71,68,85,110
66,95,72,-103,-28,84,-103,-64,68,65,82,107
66,93,69,-101,-25,82,-100,-62,65,62,79,104
64,89,66,-97,-24,79,-99,-60,62,59,75,101
60,84,63,-92,-24,74,-97,-58,59,56,71,97
59,80,59,-88,-21,70,-95,-55,56,52,68,93
54,75,56,-82,-20,66,-93,-53,54,49,63,88
52,72,53,-78,-19,63,-90,-50,52,46,60,85
52,67,48,-75,-14,58,-88,-48,49,42,55,81
48,62,44,-69,-13,54,-85,-45,46,38,51,77
45,58,41,-65,-13,50,-80,-40,43,35,48,74
44,55,38,-61,-10,47,-75,-37,40,31,44,70
43,51,33,-58,-7,43,-72,-34,37,28,40,66
37,45,30,-51,-7,38,-70,-30,33,24,36,61
30,39,28,-43,-9,34,-67,-28,30,21,32,57
29,36,24,-40,-6,30,-64,-25,27,17,28,54
31,32,19,-38,-1,26,-62,-22,24,14,25,50
28,28,15,-33,1,22,-59,-18,21,10,21,46
24,24,13,-29,1,19,-58,-13,18,5,17,42
23,22,12,-27,1,17,-56,-8,16,2,15,40
22,19,8,-24,4,14,-54,-4,14,-1,12,37
24,15,4,-21,9,10,-51,-2,12,-3,9,35
26,13,-0,-20,13,7,-49,-0,10,-5,6,32
24,9,-3,-16,14,4,-47,1,8,-7,4,29
21,6,-6,-13,16,1,-45,3,6,-9,1,26
22,4,-8,-12,19,-2,-43,4,6,-11,-0,24
20,2,-10,-9,19,-4,-42,6,4,-12,-2,23
21,0,-12,-8,21,-6,-40,9,3,-14,-4,21
24,1,-13,-10,24,-6,-39,10,3,-15,-5,20
25,1,-14,-10,25,-6,-38,10,3,-15,-5,20
25,1,-14,-11,25,-6,-38,11,3,-16,-5,20
25,1,-14,-11,25,-6,-38,11,3,-16,-5,20
25,1,-14,-11,25,-6,-38,11,3,-16,-5,20
25,1,-14,-11,25,-6,-38,11,3,-16,-5,20
18,-7,-19,-1,26,-13,-37,14,-1,-20,-9,17
9,-18,-26,11,28,-22,-35,18,-7,-25,-15,14
7,-21,-29,15,28,-25,-35,19,-9,-27,-17,13
6,-23,-30,16,29,-26,-34,19,-10,-27,-18,13
5,-23,-30,17,28,-26,-34,19,-10,-28,-18,12
2,-23,-29,18,26,-26,-34,19,-10,-28,-18,12
1,-23,-27,19,24,-25,-34,19,-10,-29,-18,12
0,-23,-27,19,24,-25,-34,19,-10,-29,-18,12
-1,-23,-27,19,23,-25,-34,19,-10,-29,-18,12
-1,-23,-27,19,23,-25,-34,19,-10,-29,-18,12
-1,-23,-26,19,22,-24,-34,19,-10,-29,-18,12
-1,-21,-25,18,21,-23,-34,19,-10,-29,-18,12
-1,-20,-23,17,20,-21,-34,19,-10,-29,-18,12
-1,-19,-21,16,18,-20,-34,19,-10,-29,-18,12
1,-18,-21,15,19,-19,-34,19,-10,-29,-18,12
3,-17,-22,14,21,-19,-34,19,-10,-29,-18,12
5,-17,-23,12,23,-20,-34,19,-10,-29,-18,12
8,-17,-25,11,26,-21,-34,19,-10,-29,-18,12
10,-17,-26,10,28,-21,-34,19,-10,-29,-18,12
11,-17,-26,10,28,-21,-34,19,-9,-28,-18,12
11,-17,-26,10,28,-21,-34,19,-8,-28,-18,12
11,-17,-26,10,28,-21,-34,19,-7,-27,-18,12
10,-17,-26,10,28,-21,-34,18,-6,-26,-18,12
8,-17,-25,11,25,-20,-34,17,-6,-26,-18,12
5,-17,-23,12,23,-20,-34,15,-6,-26,-18,12
2,-17,-21,14,20,-19,-34,13,-6,-26,-18,12
1,-17,-20,14,18,-19,-34,12,-6,-25,-18,12
0,-17,-20,15,18,-19,-34,11,-6,-25,-18,12
-1,-17,-20,15,17,-18,-34,11,-6,-24,-18,12
-1,-17,-20,15,17,-18,-34,11,-6,-23,-18,12
-1,-17,-20,15,17,-18,-34,11,-5,-22,-18,12
-1,-17,-20,15,17,-18,-34,11,-4,-22,-18,12
-1,-17,-20,15,17,-18,-34,11,-3,-22,-18,12
-1,-17,-20,15,17,-18,-34,11,-2,-22,-18,12
-1,-17,-19,14,16,-18,-34,11,-1,-22,-17,12
-1,-15,-18,13,15,-16,-34,11,0,-22,-16,12
-1,-14,-16,12,14,-15,-34,11,2,-22,-16,12
-1,-13,-14,11,12,-13,-34,11,3,-22,-14,12
-1,-12,-13,10,11,-12,-34,11,4,-22,-14,12
-1,-11,-13,10,11,-12,-34,11,4,-22,-13,12
-1,-11,-13,10,11,-12,-34,11,4,-22,-13,12
-1,-11,-13,10,11,-12,-34,11,4,-22,-13,12
1,-11,-14,9,13,-12,-34,11,4,-22,-13,12
6,-11,-17,7,18,-14,-34,11,5,-22,-13,12
11,-11,-20,5,23,-15,-34,11,6,-22,-13,12
17,-11,-23,3,28,-17,-34,11,7,-22,-13,12
21,-11,-25,1,33,-18,-34,11,8,-22,-13,12
22,-11,-26,0,34,-18,-34,11,8,-22,-13,12
22,-11,-26,0,34,-18,-34,11,9,-22,-13,12
22,-11,-26,0,34,-18,-34,11,9,-22,-13,12
22,-11,-26,0,34,-18,-34,12,9,-22,-13,12
22,-11,-26,0,34,-18,-34,13,9,-23,-13,12
22,-11,-26,0,34,-18,-34,15,9,-24,-13,12
22,-11,-26,0,34,-18,-34,17,9,-25,-13,12
22,-11,-26,0,34,-18,-34,18,9,-25,-14,12
22,-11,-26,0,34,-18,-34,19,9,-26,-15,12
22,-11,-26,0,34,-18,-34,19,9,-26,-16,12
22,-11,-26,0,34,-18,-34,19,9,-26,-17,12
22,-11,-26,0,34,-18,-34,19,9,-26,-17,12
22,-11,-26,0,34,-18,-34,19,9,-26,-18,12
22,-11,-26,0,34,-18,-34,19,9,-26,-18,12
22,-11,-26,0,34,-18,-34,19,9,-26,-18,12
22,-12,-27,1,35,-19,-34,19,9,-26,-18,12
22,-13,-29,2,36,-20,-34,19,9,-27,-18,12
22,-14,-30,3,37,-21,-34,19,9,-28,-18,12
22,-16,-32,4,39,-23,-34,19,9,-28,-18,12
22,-17,-33,5,40,-24,-34,19,8,-29,-18,12
22,-17,-33,5,40,-24,-34,19,7,-29,-18,10
22,-17,-33,5,40,-25,-34,19,6,-29,-18,9
22,-17,-33,5,40,-25,-34,19,5,-29,-18,8
21,-18,-33,6,40,-25,-34,19,4,-29,-18,7
19,-19,-33,8,39,-26,-34,19,4,-29,-18,7
17,-20,-33,10,37,-26,-34,19,4,-29,-18,6
14,-22,-33,13,36,-27,-34,19,4,-29,-18,6
12,-23,-33,14,35,-28,-34,19,4,-29,-18,6
11,-23,-33,15,34,-28,-34,19,4,-29,-19,5
11,-23,-33,15,34,-28,-34,19,4,-29,-20,4
11,-23,-33,15,34,-28,-34,19,4,-29,-21,2
11,-23,-33,15,34,-28,-34,19,4,-29,-22,1
11,-23,-33,15,34,-28,-34,19,3,-29,-22,1
11,-23,-33,15,34,-28,-34,19,2,-29,-23,1
11,-23,-33,15,34,-28,-34,19,0,-29,-23,1
11,-23,-33,15,34,-28,-34,19,-0,-29,-23,1
11,-23,-33,15,34,-28,-34,19,-0,-29,-23,1
11,-23,-33,15,34,-28,-34,19,-1,-29,-23,1
11,-23,-33,15,34,-28,-34,19,-1,-29,-23,1
11,-23,-33,15,34,-28,-33,19,-1,-29,-23,0
11,-23,-33,15,34,-28,-32,19,-1,-29,-23,-1
11,-23,-33,15,34,-28,-30,19,-1,-29,-23,-2
11,-23,-33,15,34,-28,-29,19,-1,-29,-23,-4
11,-23,-33,15,34,-28,-28,19,-1,-29,-23,-5
11,-23,-33,15,34,-28,-27,19,-1,-29,-23,-5
11,-23,-33,15,34,-28,-27,19,-1,-29,-23,-5
11,-23,-33,15,34,-28,-27,19,-1,-29,-23,-5
11,-23,-33,15,34,-28,-27,20,-1,-29,-23,-5
11,-23,-33,15,34,-28,-27,22,-1,-29,-23,-5
11,-23,-33,15,34,-28,-27,24,-1,-29,-23,-5
11,-23,-33,15,34,-28,-27,26,-1,-29,-23,-5
11,-23,-33,15,34,-28,-27,27,-1,-29,-23,-5
11,-23,-33,15,34,-28,-27,28,-2,-29,-23,-5
11,-23,-33,15,34,-28,-27,28,-3,-29,-23,-5
11,-23,-33,15,34,-28,-27,28,-4,-29,-23,-5
11,-23,-33,15,34,-28,-27,28,-5,-30,-23,-5
11,-23,-33,15,34,-28,-27,28,-5,-30,-23,-5
11,-23,-33,15,34,-28,-27,28,-6,-31,-23,-5
11,-23,-33,15,34,-28,-27,28,-6,-32,-23,-5
12,-23,-34,15,36,-28,-27,27,-6,-33,-23,-5
14,-23,-36,14,38,-29,-27,25,-6,-33,-23,-5
17,-23,-37,13,40,-30,-27,24,-6,-33,-23,-5
20,-23,-39,11,43,-30,-27,21,-6,-33,-23,-5
21,-24,-40,11,46,-31,-27,20,-6,-33,-23,-5
22,-25,-42,12,48,-33,-27,20,-6,-33,-24,-5
22,-26,-44,13,50,-34,-27,19,-6,-33,-25,-5
22,-28,-46,14,51,-36,-27,19,-6,-33,-26,-5
21,-29,-46,15,51,-37,-27,19,-6,-33,-27,-5
19,-29,-45,16,48,-36,-27,19,-6,-33,-27,-5
17,-29,-44,17,46,-36,-27,19,-6,-33,-27,-5
14,-29,-42,18,43,-35,-27,19,-6,-33,-27,-5
12,-29,-41,19,42,-35,-27,19,-6,-33,-27,-6
11,-29,-41,19,41,-34,-27,19,-6,-33,-27,-7
11,-29,-40,20,40,-34,-27,19,-6,-33,-27,-8
11,-29,-40,20,40,-34,-27,19,-6,-33,-27,-10
11,-29,-40,20,40,-34,-28,19,-6,-33,-27,-11
11,-29,-40,20,40,-34,-29,19,-6,-33,-27,-11
11,-29,-40,20,40,-34,-30,19,-6,-33,-27,-11
11,-29,-40,20,40,-34,-32,19,-6,-33,-27,-11
11,-29,-40,20,40,-34,-33,20,-5,-33,-27,-11
11,-29,-40,20,40,-34,-34,22,-4,-33,-27,-11
11,-29,-40,20,40,-34,-34,24,-3,-33,-27,-11
11,-29,-40,20,40,-34,-34,26,-2,-33,-27,-11
11,-29,-40,20,40,-34,-34,27,-1,-33,-27,-11
11,-29,-40,20,40,-34,-34,28,-1,-33,-27,-11
11,-29,-40,20,40,-34,-34,28,-1,-33,-27,-11
11,-29,-40,20,40,-34,-34,28,-1,-33,-27,-11
11,-29,-40,20,40,-34,-33,28,-1,-33,-27,-11
11,-29,-40,20,40,-34,-32,28,-1,-34,-27,-11
11,-29,-40,20,40,-34,-30,28,-1,-35,-27,-11
11,-29,-40,20,40,-34,-29,28,-1,-36,-27,-11
12,-29,-41,19,42,-35,-28,28,-1,-36,-27,-11
14,-29,-43,18,44,-35,-27,28,-1,-36,-27,-11
17,-29,-44,17,46,-36,-27,28,-1,-37,-27,-11
20,-29,-46,16,50,-37,-27,28,-1,-37,-27,-11
21,-29,-47,15,51,-37,-28,28,-1,-37,-27,-11
22,-29,-47,15,52,-37,-29,28,-1,-37,-27,-11
22,-29,-48,15,53,-38,-30,28,-1,-37,-27,-11
22,-29,-48,15,53,-38,-32,28,-1,-37,-27,-11
22,-29,-48,15,53,-38,-33,27,-1,-37,-27,-11
22,-29,-48,15,53,-38,-34,25,-2,-37,-27,-11
22,-29,-48,15,53,-38,-34,24,-3,-37,-27,-11
22,-29,-48,15,53,-38,-34,21,-4,-37,-27,-11
22,-29,-48,15,53,-38,-34,20,-5,-37,-27,-11
22,-29,-48,15,53,-38,-34,20,-5,-37,-27,-11
22,-29,-48,15,53,-38,-34,19,-6,-37,-27,-11
22,-29,-48,15,53,-38,-34,19,-6,-37,-27,-11
22,-29,-48,15,53,-38,-34,19,-6,-37,-27,-11
22,-29,-48,15,53,-38,-34,19,-6,-37,-27,-11
22,-29,-48,15,53,-38,-34,19,-6,-37,-27,-11
22,-29,-48,15,53,-38,-34,19,-6,-37,-27,-11
22,-29,-48,15,53,-38,-34,20,-6,-37,-27,-11
22,-29,-48,15,53,-38,-34,22,-6,-37,-27,-11
22,-29,-48,15,53,-38,-34,24,-6,-37,-27,-11
22,-29,-48,15,53,-38,-34,26,-6,-37,-27,-11
22,-29,-48,15,53,-38,-34,27,-6,-37,-27,-11
22,-29,-48,15,53,-38,-34,28,-6,-37,-27,-11
22,-29,-48,15,53,-38,-34,28,-6,-37,-27,-11
22,-29,-48,15,53,-38,-34,28,-6,-37,-27,-11
22,-29,-48,15,53,-38,-34,28,-6,-37,-27,-11
22,-29,-48,15,53,-38,-34,28,-6,-37,-27,-11
22,-29,-48,15,53,-38,-34,28,-6,-37,-27,-11
22,-29,-48,15,53,-38,-34,28,-6,-37,-27,-11
22,-29,-48,15,53,-38,-34,27,-6,-37,-27,-11
22,-29,-48,15,53,-38,-34,25,-6,-37,-27,-11
22,-29,-48,15,53,-38,-34,24,-6,-37,-27,-11
22,-29,-48,15,53,-38,-34,21,-6,-37,-27,-11
22,-29,-48,15,53,-38,-34,20,-6,-37,-27,-11
22,-29,-48,15,53,-38,-34,20,-6,-37,-27,-11
22,-29,-48,15,53,-38,-34,19,-6,-37,-27,-11
22,-29,-48,15,53,-38,-34,19,-6,-37,-27,-11
22,-29,-48,15,53,-38,-34,19,-5,-37,-27,-11
22,-29,-48,15,53,-38,-34,19,-4,-37,-27,-11
22,-29,-48,15,53,-38,-34,19,-3,-37,-27,-11
22,-29,-48,15,53,-38,-34,19,-2,-37,-27,-11
21,-29,-47,15,51,-37,-34,19,-1,-37,-27,-11
19,-29,-45,16,49,-37,-34,19,-1,-37,-26,-11
17,-29,-44,17,46,-36,-34,19,-1,-37,-25,-11
14,-29,-42,18,43,-35,-34,19,-1,-37,-24,-11
12,-29,-41,19,42,-35,-34,19,-1,-37,-23,-11
11,-29,-41,19,41,-34,-34,19,-1,-37,-23,-11
11,-29,-40,20,40,-34,-34,19,-1,-37,-23,-11
11,-29,-40,20,40,-34,-34,19,-1,-37,-23,-11
11,-29,-40,20,40,-34,-34,19,-1,-37,-23,-11
11,-29,-40,20,40,-34,-34,19,-1,-37,-23,-11
11,-29,-40,20,40,-34,-34,19,-1,-37,-23,-11
11,-29,-40,20,40,-34,-34,19,-1,-37,-23,-11
11,-29,-40,20,40,-34,-34,19,-1,-37,-23,-11
11,-29,-40,20,40,-34,-34,19,-1,-37,-23,-11
11,-29,-40,20,40,-34,-34,19,-1,-37,-23,-11
11,-29,-40,20,40,-34,-34,19,-1,-37,-23,-11
11,-29,-40,20,40,-34,-34,19,-1,-37,-23,-11
11,-29,-40,20,40,-34,-34,19,-1,-37,-23,-11
12,-27,-39,17,39,-32,-35,18,-1,-37,-22,-9
13,-24,-36,15,38,-30,-36,16,-2,-37,-22,-7
14,-23,-36,14,37,-29,-36,15,-2,-37,-21,-6
14,-23,-35,14,37,-29,-36,15,-2,-37,-21,-5
20,-21,-36,9,41,-28,-36,15,-1,-36,-21,-5
25,-18,-37,5,45,-27,-36,15,0,-36,-19,-5
21,-20,-36,8,42,-28,-37,15,2,-35,-19,-4
20,-21,-37,9,42,-28,-38,15,3,-35,-18,-2
24,-21,-39,8,45,-29,-38,15,5,-34,-17,-1
26,-21,-40,7,48,-30,-40,14,6,-34,-16,1
31,-17,-38,1,48,-27,-41,13,9,-33,-14,3
34,-11,-34,-4,46,-22,-40,12,11,-30,-11,4
33,-8,-29,-6,42,-18,-39,11,13,-28,-10,4
31,-6,-25,-7,37,-15,-38,11,14,-27,-8,4
27,-6,-24,-5,34,-14,-37,11,14,-27,-8,4
26,-7,-23,-5,33,-14,-38,9,15,-27,-7,4
31,-5,-24,-9,37,-13,-41,7,14,-27,-7,5
34,-5,-26,-10,40,-15,-45,4,13,-27,-8,4
33,-8,-30,-6,42,-18,-48,3,10,-29,-10,3
32,-15,-36,-0,48,-25,-49,6,7,-33,-13,0
34,-20,-44,3,56,-31,-49,9,4,-36,-16,-3
43,-22,-52,1,66,-36,-49,12,3,-38,-17,-4
51,-23,-57,-2,75,-39,-47,15,3,-38,-18,-5
56,-23,-61,-3,80,-41,-45,18,3,-39,-19,-5
56,-25,-63,-2,83,-43,-43,18,2,-40,-20,-5
53,-28,-64,1,83,-45,-42,18,0,-41,-20,-6
50,-30,-64,4,81,-46,-42,17,-1,-42,-21,-7
46,-30,-63,6,77,-45,-41,15,-1,-42,-21,-8
42,-31,-61,8,74,-44,-40,15,0,-42,-21,-8
43,-30,-61,7,74,-44,-40,14,0,-42,-21,-8
46,-29,-61,5,76,-44,-41,13,1,-41,-21,-8
48,-28,-61,3,77,-43,-41,13,2,-41,-20,-7
47,-29,-62,5,77,-44,-42,14,4,-40,-19,-7
47,-29,-62,5,78,-44,-41,16,6,-38,-18,-6
43,-31,-61,8,74,-45,-41,17,6,-38,-17,-6
37,-34,-62,13,72,-46,-42,16,6,-38,-18,-7
43,-33,-64,9,77,-47,-42,18,5,-38,-18,-6
49,-31,-66,6,82,-47,-42,19,5,-39,-18,-6
52,-31,-68,4,85,-48,-42,17,4,-40,-19,-5
56,-32,-71,3,89,-50,-42,16,4,-40,-19,-5
64,-31,-74,-1,97,-51,-41,15,4,-41,-19,-5
68,-31,-77,-2,101,-52,-40,15,3,-42,-20,-6
65,-34,-79,1,101,-55,-40,14,1,-43,-21,-8
64,-34,-78,1,100,-54,-40,12,0,-44,-22,-9
61,-32,-74,1,95,-51,-40,11,0,-44,-22,-9
56,-31,-69,2,88,-48,-39,12,1,-43,-21,-9
49,-30,-64,5,80,-45,-38,12,2,-42,-20,-8
35,-31,-57,12,67,-43,-36,13,3,-41,-19,-9
25,-33,-54,16,59,-42,-33,17,4,-41,-19,-10
18,-34,-51,21,53,-42,-29,21,4,-41,-18,-11
11,-37,-50,26,49,-43,-26,23,3,-42,-19,-13
8,-38,-50,28,47,-44,-25,23,1,-43,-20,-15
7,-39,-50,30,46,-44,-25,24,-1,-44,-22,-16
3,-41,-50,32,44,-45,-23,24,-3,-46,-23,-17
2,-42,-50,34,44,-46,-20,25,-4,-46,-24,-18
0,-45,-52,36,45,-48,-18,25,-5,-47,-25,-19
-5,-49,-55,43,44,-52,-18,23,-6,-48,-26,-20
-8,-52,-56,46,44,-54,-19,21,-6,-48,-27,-21
-7,-53,-58,46,46,-55,-19,20,-6,-48,-27,-21
-3,-53,-61,45,51,-56,-19,18,-6,-48,-26,-22
4,-53,-64,42,57,-58,-19,18,-5,-47,-26,-21
13,-52,-68,37,65,-59,-19,19,-4,-47,-26,-20
21,-50,-71,32,72,-59,-18,20,-3,-46,-25,-19
22,-48,-69,30,71,-58,-17,21,-2,-46,-25,-19
17,-48,-67,33,66,-57,-17,21,-2,-46,-25,-19
7,-50,-62,38,57,-56,-17,21,-3,-47,-26,-20
-3,-52,-58,43,49,-55,-18,21,-4,-47,-26,-20
-7,-53,-57,46,46,-55,-18,22,-5,-48,-27,-21
-7,-52,-57,45,46,-54,-17,22,-5,-48,-27,-21
-7,-52,-57,45,45,-54,-16,22,-6,-48,-26,-22
-4,-50,-56,42,46,-53,-13,24,-4,-47,-26,-21
-2,-47,-54,39,45,-50,-9,25,-2,-46,-25,-19
-5,-48,-52,41,42,-50,-7,25,0,-44,-25,-19
-4,-48,-54,41,45,-51,-4,24,1,-43,-25,-19
-2,-47,-54,39,46,-50,-4,24,3,-42,-24,-18
-1,-47,-54,39,46,-50,-6,25,4,-41,-24,-17
2,-45,-54,35,47,-49,-6,27,6,-41,-23,-15
2,-43,-52,34,46,-47,-5,28,7,-40,-23,-13
-4,-46,-51,39,42,-48,-5,26,7,-41,-23,-12
20,-42,-60,26,62,-50,-5,37,10,-40,-23,-12
52,-40,-78,12,94,-57,-9,37,11,-42,-25,-16
34,-48,-76,25,83,-61,1,47,22,-42,-27,-22
-25,-70,-67,67,45,-69,8,49,33,-42,-31,-25
5,-57,-69,44,62,-62,14,58,38,-44,-39,-34
-25,-43,-36,45,18,-40,3,49,24,-44,-34,-34
-19,-31,-25,33,12,-28,3,45,44,-40,-33,-29
-10,-22,-20,22,12,-21,3,54,57,-34,-23,-25
55,1,-32,-22,56,-14,8,69,77,-22,-10,-7
76,-5,-51,-26,83,-27,6,73,106,-7,7,8
88,8,-43,-42,81,-15,-5,75,140,12,29,26
185,38,-65,-106,150,-9,-14,75,173,52,71,72
212,64,-51,-137,152,11,-36,58,202,86,115,112
238,89,-37,-169,153,31,-61,39,226,130,173,151
283,172,33,-254,116,108,-109,-49,241,200,244,231
236,251,153,-297,-11,206,-172,-153,244,266,329,305
233,314,229,-347,-77,274,-233,-243,208,309,383,365
197,353,295,-364,-153,326,-278,-312,172,338,410,402
147,341,311,-333,-192,327,-289,-320,146,349,415,401
179,302,246,-316,-120,276,-241,-262,140,345,400,384
135,258,221,-262,-121,241,-213,-249,89,310,358,349
55,228,234,-205,-173,231,-193,-239,12,224,277,290
-34,189,241,-137,-224,213,-157,-211,-89,94,151,218
-57,150,209,-96,-209,177,-122,-185,-166,-22,42,130
-111,102,185,-36,-215,140,-114,-157,-202,-96,-25,72
-114,68,148,-8,-185,105,-94,-129,-173,-96,-41,38
-114,32,105,21,-149,66,-59,-90,-142,-88,-49,14
-134,7,88,50,-144,44,-35,-54,-119,-85,-53,-7
-120,4,75,46,-126,37,-42,-43,-103,-81,-48,-12
-108,2,67,43,-112,32,-38,-34,-81,-71,-45,-15
-57,11,47,15,-70,28,-10,-15,-56,-60,-34,-12
-49,2,31,18,-51,16,-3,-2,-38,-53,-29,-9
-40,5,30,13,-45,16,-20,-13,-31,-47,-23,-7
-66,2,42,26,-69,20,-31,-11,-19,-40,-15,-3
-51,2,33,20,-54,16,-36,-11,-12,-34,-10,0
-22,-1,12,10,-21,5,-36,-13,-7,-30,-9,2
-22,-7,5,15,-15,-1,-36,-13,-3,-33,-13,2
-51,-11,17,30,-41,2,-35,-13,1,-32,-12,2
-16,-14,-7,19,-2,-11,-14,-9,6,-31,-12,0
-16,-13,-6,17,-3,-9,-9,6,12,-30,-12,0
-16,-16,-9,20,0,-13,-7,9,15,-30,-11,0
-12,-17,-13,19,5,-15,-12,10,17,-28,-11,-1
-4,-17,-18,16,14,-18,-13,12,19,-28,-11,-1
1,-20,-23,16,21,-21,-13,12,20,-27,-11,-2
11,-21,-31,13,32,-26,-12,14,21,-27,-11,-2
17,-23,-36,12,40,-29,-10,18,22,-27,-11,-2
15,-24,-37,14,40,-30,-7,20,22,-27,-11,-3
11,-26,-37,17,37,-31,-7,21,22,-27,-11,-4
3,-29,-35,22,32,-31,-7,20,20,-28,-12,-4
-9,-33,-32,30,23,-32,-9,17,19,-28,-13,-4
-17,-33,-29,34,16,-31,-10,13,19,-28,-13,-4
-14,-30,-27,30,16,-29,-9,12,20,-27,-11,-3
-10,-27,-26,27,18,-27,-9,10,21,-26,-10,-1
-14,-28,-25,29,14,-26,-8,9,22,-25,-9,-1
-22,-32,-24,35,10,-28,-7,9,22,-26,-9,-1
-18,-32,-27,34,14,-30,-6,10,23,-26,-9,-1
-4,-29,-32,26,25,-30,-4,12,24,-25,-9,-1
0,-29,-33,24,29,-31,-2,12,24,-25,-9,-1
-4,-30,-32,26,25,-31,-2,13,25,-25,-8,-2
-9,-30,-30,29,21,-30,-2,15,26,-23,-7,-2
-11,-30,-29,29,19,-30,-3,16,28,-22,-5,-2
-10,-29,-28,28,19,-28,-3,17,29,-21,-4,-1
-9,-28,-27,27,19,-28,-3,16,29,-20,-3,-1
-12,-29,-26,29,16,-28,-4,15,29,-20,-3,-1
-17,-30,-25,31,13,-28,-4,16,30,-19,-3,-1
-15,-30,-26,31,15,-28,-2,16,30,-19,-3,-1
-11,-30,-28,29,18,-29,-1,15,31,-18,-2,-1
-12,-29,-27,29,18,-28,1,13,31,-18,-2,-1
-14,-29,-26,30,15,-28,3,11,31,-17,-2,-0
-15,-29,-25,30,14,-27,3,8,31,-17,-2,0
-7,-27,-27,25,20,-27,3,7,32,-16,-1,1
0,-23,-27,19,24,-25,3,8,33,-16,-0,2
-1,-22,-26,19,22,-24,3,9,34,-15,0,2
-1,-22,-26,19,22,-24,2,9,34,-15,1,2
-2,-24,-27,20,22,-25,1,9,34,-15,1,2
-7,-26,-26,24,19,-26,-1,9,34,-15,1,2
-11,-27,-25,27,16,-26,-3,9,34,-15,1,2
-8,-27,-27,26,19,-27,-3,9,34,-15,1,2
-7,-27,-27,25,19,-27,-3,9,34,-15,1,2
-9,-26,-25,25,17,-25,-3,9,35,-15,1,3
-8,-25,-24,24,16,-24,-3,9,36,-14,2,4
-5,-24,-25,22,19,-24,-3,9,36,-14,3,5
0,-23,-27,19,24,-25,-4,9,37,-13,4,5
5,-23,-30,17,29,-26,-5,8,37,-12,5,5
12,-23,-34,15,36,-28,-6,7,38,-11,6,5
17,-23,-37,12,40,-29,-6,6,38,-11,7,5
17,-21,-35,11,38,-27,-5,6,38,-10,8,6
9,-21,-30,14,30,-25,-5,6,38,-10,8,6
-1,-23,-26,19,22,-24,-6,6,39,-10,9,6
-7,-23,-23,21,16,-22,-6,6,39,-10,9,6
-8,-21,-20,21,14,-21,-4,6,40,-9,10,6
-7,-20,-20,20,13,-20,-3,6,40,-9,10,6
-5,-19,-20,18,14,-19,-1,6,40,-9,10,6
-2,-18,-20,15,16,-19,0,6,41,-9,11,6
-1,-17,-19,15,16,-18,0,5,41,-8,11,7
1,-16,-19,13,18,-18,-0,4,42,-8,11,7
2,-16,-19,13,18,-17,-1,5,43,-7,12,8
0,-16,-18,13,16,-17,-1,6,44,-7,13,9
2,-15,-19,12,18,-17,-1,6,45,-6,14,10
4,-14,-19,11,18,-17,-1,6,45,-6,14,10
1,-15,-18,13,16,-17,-1,5,46,-6,14,11
5,-13,-18,9,18,-15,0,6,47,-5,16,12
9,-11,-18,6,20,-14,1,6,49,-3,17,13
9,-11,-19,6,21,-15,-1,5,49,-3,18,14
11,-11,-20,5,23,-15,-2,5,50,-2,18,15
15,-10,-21,3,25,-15,-2,4,50,-1,18,15
18,-9,-21,0,27,-14,-3,4,51,1,19,16
19,-7,-20,-1,27,-13,-3,4,52,3,20,17
18,-7,-19,-1,26,-12,-3,4,53,4,21,18
17,-7,-19,-0,25,-12,-3,4,53,5,22,18
15,-7,-17,0,22,-11,-3,3,54,6,22,19
12,-7,-15,1,19,-10,-5,2,54,7,23,20
13,-6,-15,0,19,-10,-7,1,55,7,23,20
15,-5,-15,-1,21,-10,-8,0,56,9,24,20
18,-4,-15,-4,22,-9,-7,0,57,10,25,22
21,-1,-14,-7,23,-7,-7,0,58,12,26,24
23,1,-13,-9,23,-6,-7,0,60,13,28,25
24,3,-11,-11,22,-4,-8,0,61,14,29,26
20,3,-8,-10,18,-2,-9,-1,61,15,30,27
15,2,-7,-7,14,-2,-11,-3,62,16,31,27
13,3,-5,-7,11,-1,-12,-3,63,17,32,28
14,5,-2,-9,8,2,-12,-4,65,19,34,30
14,8,1,-11,6,5,-12,-4,67,21,35,32
14,9,2,-13,5,6,-13,-6,68,22,37,32
15,10,2,-14,5,6,-13,-7,69,23,38,34
20,12,2,-17,8,7,-14,-7,71,24,40,35
25,15,2,-22,11,9,-16,-9,73,25,41,35
30,16,1,-25,14,9,-17,-12,74,26,43,35
33,17,0,-27,17,9,-19,-15,75,26,44,35
34,19,2,-29,16,11,-20,-18,77,27,46,36
34,21,4,-30,14,13,-21,-20,78,28,48,37
34,23,6,-32,12,15,-22,-21,80,30,50,39
37,26,8,-36,11,18,-23,-21,82,32,52,41
41,30,10,-41,12,21,-24,-22,85,34,55,44
41,31,12,-42,11,22,-26,-24,87,36,56,46
40,33,15,-42,7,24,-27,-25,88,38,58,48
37,35,19,-43,3,27,-29,-26,90,39,60,49
36,36,21,-43,0,29,-31,-28,91,41,62,51
35,38,24,-45,-2,31,-34,-29,92,44,64,54
36,42,27,-47,-5,35,-35,-29,94,46,67,56
37,44,30,-50,-7,38,-36,-32,96,49,69,58
45,48,30,-57,-2,40,-38,-35,99,52,72,61
54,53,29,-64,2,42,-39,-37,102,54,74,64
55,53,29,-64,3,42,-42,-39,104,56,77,65
56,53,28,-65,4,41,-44,-41,107,57,78,67
62,57,30,-70,6,44,-45,-42,110,60,81,70
68,61,31,-76,8,47,-46,-43,112,62,83,73
71,63,31,-79,9,48,-49,-43,113,63,85,74
70,64,32,-79,8,49,-51,-46,113,64,87,75
70,65,35,-81,5,51,-54,-48,114,66,89,77
71,69,38,-84,3,55,-54,-49,116,68,91,80
73,73,42,-89,1,59,-55,-49,118,70,94,83
77,76,43,-92,2,61,-56,-51,120,72,95,85
77,76,43,-92,2,61,-58,-54,120,73,97,86
75,77,45,-92,-1,62,-58,-56,121,75,99,88
76,79,48,-94,-2,65,-59,-58,121,76,100,90
77,80,48,-96,-2,66,-61,-59,122,77,102,92
79,82,49,-98,-1,67,-62,-60,123,78,103,94
80,83,49,-99,-2,67,-65,-61,123,79,105,96
78,83,50,-98,-4,68,-67,-62,124,80,107,98
76,82,51,-97,-5,68,-68,-64,124,81,108,100
74,83,53,-97,-8,69,-69,-65,124,82,110,101
73,84,55,-97,-10,71,-70,-67,123,83,111,102
71,85,57,-97,-13,72,-71,-68,122,83,111,103
74,86,57,-99,-11,73,-72,-70,120,84,112,103
80,89,56,-104,-7,73,-73,-70,120,84,113,104
81,90,57,-105,-8,75,-73,-71,120,85,114,105
82,92,58,-106,-8,76,-73,-71,120,85,115,107
80,91,59,-106,-10,76,-73,-71,118,85,115,107
79,90,58,-105,-10,75,-74,-71,117,85,115,107
79,88,56,-103,-8,73,-75,-73,115,84,114,106
77,86,54,-100,-7,71,-77,-74,113,83,113,105
74,84,54,-97,-8,70,-76,-74,111,81,112,104
72,82,52,-95,-8,68,-75,-73,108,80,111,103
76,81,49,-95,-4,66,-74,-72,107,78,110,102
80,82,48,-98,0,66,-72,-70,106,77,108,102
83,80,44,-98,4,64,-70,-67,103,75,106,101
81,75,40,-93,7,59,-68,-66,100,72,103,98
80,71,35,-90,11,54,-66,-64,97,69,100,95
84,69,30,-89,17,51,-63,-62,94,66,98,92
85,65,26,-87,21,47,-61,-60,91,63,94,89
83,60,21,-82,24,42,-59,-58,87,60,90,85
82,56,17,-78,28,38,-58,-55,83,56,86,81
78,51,13,-73,28,34,-56,-53,80,52,82,76
76,48,11,-69,30,31,-53,-50,77,49,78,73
75,43,6,-65,33,26,-51,-48,74,46,74,69
69,38,4,-58,32,22,-48,-45,70,43,70,65
63,34,2,-53,30,19,-43,-40,67,40,67,62
59,30,1,-48,29,17,-38,-37,64,38,63,58
56,27,-2,-44,31,13,-35,-34,61,35,59,54
50,21,-5,-36,30,9,-33,-30,57,31,55,49
41,15,-7,-28,27,5,-30,-28,54,28,51,46
41,11,-11,-25,30,1,-27,-25,51,25,47,42
43,8,-16,-23,35,-3,-25,-22,48,22,43,38
40,4,-19,-19,37,-7,-22,-20,45,18,39,34
36,0,-21,-14,37,-10,-21,-18,42,15,36,30
35,-2,-23,-12,37,-11,-19,-14,40,12,33,28
34,-5,-26,-9,40,-15,-17,-12,38,10,30,25
32,-9,-29,-5,42,-18,-14,-10,36,7,27,23
31,-11,-31,-3,43,-20,-12,-9,34,5,25,20
27,-14,-33,1,42,-23,-10,-8,32,4,22,17
23,-18,-35,6,42,-26,-8,-6,31,2,20,14
25,-20,-39,6,46,-29,-6,-4,30,0,18,13
27,-23,-42,8,50,-31,-4,-2,28,-1,16,11
30,-24,-46,8,54,-34,-3,0,27,-3,15,9
35,-23,-48,5,59,-35,-1,2,27,-4,14,8
37,-23,-49,4,61,-35,-1,2,27,-5,13,8
37,-23,-49,4,62,-35,-1,2,27,-5,13,8
37,-23,-49,4,62,-35,-1,2,27,-5,13,8
37,-23,-49,4,62,-35,-1,2,27,-5,13,8
37,-23,-49,4,62,-35,-1,2,27,-5,13,8
33,-29,-54,11,63,-40,3,5,24,-9,12,1
26,-37,-59,20,64,-47,7,9,20,-15,10,-7
24,-40,-61,23,65,-50,9,10,19,-17,10,-10
23,-41,-62,24,65,-50,10,11,19,-18,10,-11
22,-41,-62,25,65,-51,10,11,18,-18,10,-11
22,-41,-62,25,65,-51,10,11,18,-18,10,-11
22,-41,-62,25,65,-51,10,11,18,-18,9,-11
22,-41,-62,25,65,-51,10,11,17,-18,8,-11
22,-41,-62,25,65,-51,10,11,16,-18,7,-11
22,-41,-62,25,65,-51,10,11,15,-18,6,-11
22,-41,-62,25,65,-51,10,10,14,-18,6,-11
22,-41,-62,25,65,-51,10,8,14,-18,5,-11
22,-41,-62,25,65,-51,10,6,13,-18,5,-11
22,-41,-62,25,65,-51,10,4,13,-18,5,-11
22,-41,-62,25,65,-51,10,3,13,-18,6,-11
22,-41,-62,25,65,-51,10,3,13,-18,6,-11
22,-41,-62,25,65,-51,10,2,13,-18,7,-11
22,-41,-62,25,65,-51,10,2,13,-18,9,-11
22,-41,-62,25,65,-51,10,2,13,-18,9,-11
22,-41,-62,25,65,-51,10,2,13,-17,10,-11
22,-41,-62,25,65,-51,10,2,13,-17,10,-11
22,-41,-62,25,65,-51,10,2,13,-16,10,-11
21,-41,-61,25,63,-50,10,2,13,-15,10,-11
19,-41,-60,26,61,-50,10,0,13,-15,10,-11
17,-41,-58,27,59,-49,10,-2,13,-15,10,-11
14,-41,-56,28,56,-48,10,-4,13,-15,10,-11
12,-41,-55,29,54,-48,10,-5,14,-15,10,-11
11,-41,-55,29,53,-47,10,-6,15,-15,10,-11
11,-41,-55,30,53,-47,10,-6,16,-15,10,-11
11,-41,-55,30,53,-47,10,-6,17,-15,10,-11
12,-41,-55,29,53,-47,10,-6,18,-14,10,-11
14,-39,-55,27,54,-46,10,-6,18,-14,10,-10
17,-38,-55,25,56,-46,10,-6,18,-13,10,-8
20,-37,-55,22,57,-45,10,-6,18,-12,10,-7
21,-36,-55,21,58,-44,10,-6,18,-11,10,-6
22,-36,-55,20,58,-44,10,-6,18,-11,10,-6
22,-35,-55,20,59,-44,10,-6,18,-11,10,-5
22,-35,-55,20,59,-44,10,-6,18,-11,10,-5
21,-36,-55,21,58,-44,10,-7,18,-11,10,-5
19,-37,-55,23,57,-45,10,-9,18,-11,10,-5
17,-38,-55,25,56,-46,10,-10,18,-11,10,-5
14,-40,-55,27,54,-46,10,-12,18,-11,10,-5
12,-41,-55,29,53,-47,10,-14,18,-11,10,-5
11,-41,-55,29,53,-47,10,-14,18,-11,10,-5
11,-41,-55,30,53,-47,10,-15,18,-11,10,-5
11,-41,-55,30,53,-47,10,-15,18,-11,10,-5
12,-41,-55,29,53,-47,10,-14,19,-11,10,-5
14,-39,-55,27,54,-46,10,-12,20,-11,10,-5
17,-38,-55,25,56,-46,10,-10,21,-11,10,-5
20,-37,-55,22,57,-45,10,-8,22,-11,10,-5
21,-36,-55,21,58,-44,10,-7,23,-11,10,-6
22,-36,-55,20,58,-44,10,-6,23,-12,10,-7
22,-35,-55,20,59,-44,10,-6,23,-13,10,-8
22,-35,-55,20,59,-44,10,-6,23,-14,10,-10
21,-36,-55,21,58,-44,10,-7,23,-14,10,-11
19,-37,-55,23,57,-45,10,-9,22,-15,10,-11
17,-38,-55,25,56,-46,10,-10,21,-15,10,-11
14,-40,-55,27,54,-46,10,-12,19,-15,10,-11
12,-41,-55,29,53,-47,10,-14,19,-15,10,-11
11,-41,-55,29,53,-47,10,-14,19,-16,10,-11
11,-41,-55,30,53,-47,10,-15,18,-17,10,-11
11,-41,-55,30,53,-47,10,-15,18,-17,10,-11
11,-41,-55,30,53,-47,11,-14,18,-18,10,-11
11,-41,-55,30,53,-47,12,-12,18,-18,10,-11
11,-41,-55,30,53,-47,14,-10,18,-18,10,-11
11,-41,-55,30,53,-47,16,-8,18,-18,10,-11
12,-41,-55,29,54,-48,17,-7,18,-19,10,-12
14,-41,-57,28,56,-48,17,-6,18,-19,10,-13
17,-41,-58,27,59,-49,17,-6,18,-20,10,-14
20,-41,-60,26,62,-50,17,-6,18,-21,10,-16
21,-41,-61,25,63,-50,17,-6,18,-22,9,-17
22,-41,-61,25,64,-50,17,-6,18,-22,8,-17
22,-41,-62,25,65,-51,17,-6,18,-22,7,-17
22,-41,-62,25,65,-51,17,-6,18,-22,6,-17
22,-42,-62,25,65,-51,17,-6,18,-22,6,-17
22,-43,-64,26,66,-53,17,-6,18,-22,5,-17
22,-44,-65,27,68,-54,17,-6,18,-22,5,-17
22,-46,-67,28,69,-56,17,-6,18,-22,5,-17
22,-47,-68,29,70,-56,17,-6,18,-22,5,-17
22,-47,-68,29,70,-57,17,-6,18,-22,5,-17
22,-47,-69,30,71,-57,17,-6,18,-22,5,-17
22,-47,-69,30,71,-57,17,-6,18,-22,5,-17
21,-47,-68,30,69,-57,17,-6,18,-22,5,-17
19,-47,-67,31,67,-56,17,-6,18,-22,5,-17
17,-47,-65,32,65,-56,17,-6,18,-22,5,-17
14,-47,-63,33,62,-55,17,-6,18,-22,5,-17
12,-48,-63,34,60,-55,18,-5,18,-22,5,-17
11,-49,-64,35,61,-56,20,-3,18,-22,4,-17
11,-50,-65,37,62,-57,21,-2,18,-22,3,-17
11,-52,-67,38,63,-59,23,0,18,-22,2,-17
12,-53,-69,38,65,-60,24,2,18,-22,1,-18
14,-53,-70,37,68,-61,25,2,17,-22,1,-19
17,-53,-72,37,71,-62,25,2,16,-22,1,-20
20,-53,-74,35,74,-63,25,2,15,-22,1,-22
21,-53,-75,35,75,-63,25,2,14,-22,0,-23
22,-53,-75,34,76,-63,25,2,14,-22,-1,-23
22,-53,-76,34,77,-64,25,2,13,-22,-2,-23
22,-53,-76,34,77,-64,25,2,13,-22,-3,-23
22,-53,-76,34,77,-64,25,2,13,-22,-3,-23
22,-53,-76,34,77,-64,25,2,13,-22,-4,-23
22,-53,-76,34,77,-64,25,2,13,-22,-4,-23
22,-53,-76,34,77,-64,25,2,13,-22,-4,-23
22,-53,-76,34,77,-64,25,2,13,-22,-4,-23
22,-53,-76,34,77,-64,25,2,13,-22,-4,-23
22,-53,-76,34,77,-64,25,2,13,-22,-4,-23
22,-53,-76,34,77,-64,25,2,13,-22,-4,-23
21,-53,-75,35,75,-63,25,2,13,-22,-4,-23
19,-53,-74,36,73,-63,25,2,13,-22,-4,-23
17,-53,-72,37,71,-62,25,2,13,-22,-4,-23
14,-53,-70,38,68,-61,25,2,13,-22,-4,-23
12,-54,-70,39,66,-61,25,2,13,-22,-4,-23
11,-55,-71,40,67,-62,25,0,13,-22,-4,-23
11,-56,-72,42,68,-64,25,-2,13,-22,-4,-23
11,-58,-74,43,69,-65,25,-4,13,-22,-4,-23
11,-59,-75,44,70,-66,25,-5,13,-22,-4,-23
11,-59,-75,44,70,-67,25,-6,13,-22,-4,-23
11,-59,-76,44,71,-67,25,-6,13,-22,-4,-23
11,-59,-76,44,71,-67,25,-6,13,-22,-4,-23
11,-59,-76,44,71,-67,25,-6,13,-22,-4,-23
11,-59,-76,44,71,-67,25,-6,13,-22,-4,-23
11,-59,-76,44,71,-67,25,-6,13,-22,-4,-23
11,-59,-76,44,71,-67,25,-6,13,-22,-4,-23
11,-59,-76,44,71,-67,25,-6,13,-22,-4,-24
11,-59,-76,44,71,-67,25,-6,13,-22,-4,-25
11,-59,-76,44,71,-67,25,-6,13,-22,-4,-26
11,-59,-76,44,71,-67,25,-6,13,-22,-4,-28
12,-59,-76,44,72,-67,25,-6,13,-22,-4,-29
14,-59,-78,43,74,-68,25,-6,13,-22,-4,-29
17,-59,-79,42,77,-69,25,-6,13,-22,-4,-29
20,-59,-81,40,80,-69,25,-6,13,-22,-4,-29
21,-59,-82,40,82,-70,25,-6,13,-22,-4,-29
22,-59,-82,39,82,-70,25,-6,13,-22,-5,-29
22,-59,-83,39,83,-70,25,-6,13,-22,-6,-29
22,-59,-83,39,83,-70,25,-6,13,-22,-7,-29
22,-59,-83,39,83,-70,25,-6,13,-22,-8,-29
22,-59,-83,39,83,-70,25,-6,13,-22,-8,-29
22,-59,-83,39,83,-70,25,-6,13,-22,-9,-29
22,-59,-83,39,83,-70,25,-6,13,-22,-9,-29
21,-59,-82,40,82,-70,25,-6,13,-22,-9,-29
19,-59,-81,41,79,-69,25,-6,13,-22,-9,-29
17,-59,-79,42,77,-69,25,-6,13,-22,-9,-29
14,-59,-77,43,74,-68,25,-6,13,-22,-9,-29
12,-59,-76,44,72,-67,25,-6,13,-22,-9,-29
11,-59,-76,44,71,-67,25,-6,13,-22,-9,-29
11,-59,-76,44,71,-67,25,-6,13,-22,-9,-29
11,-59,-76,44,71,-67,25,-6,13,-22,-9,-29
11,-59,-76,44,71,-67,25,-6,13,-22,-9,-29
11,-59,-76,44,71,-67,25,-6,13,-22,-9,-29
11,-59,-76,44,71,-67,25,-6,13,-22,-9,-29
11,-59,-76,44,71,-67,25,-6,13,-22,-9,-29
11,-59,-76,44,71,-67,25,-6,13,-22,-8,-29
11,-59,-76,44,71,-67,25,-6,13,-22,-7,-29
11,-59,-76,44,71,-67,25,-6,13,-22,-6,-29
11,-59,-76,44,71,-67,25,-6,13,-22,-5,-29
11,-59,-76,44,71,-67,25,-6,13,-22,-4,-29
11,-59,-76,44,71,-67,25,-6,13,-22,-4,-29
11,-59,-76,44,71,-67,25,-6,13,-22,-4,-29
11,-59,-76,44,71,-67,25,-6,13,-22,-4,-29
12,-59,-76,44,72,-67,25,-6,13,-22,-4,-29
14,-59,-78,43,74,-68,25,-6,13,-22,-5,-29
17,-59,-79,42,77,-69,25,-6,13,-22,-6,-29
20,-59,-81,40,80,-69,25,-6,13,-22,-7,-29
21,-59,-82,40,82,-70,25,-6,13,-22,-8,-29
22,-59,-82,39,82,-70,25,-6,13,-22,-8,-29
22,-59,-83,39,83,-70,25,-6,13,-22,-9,-29
22,-59,-83,39,83,-70,25,-6,13,-22,-9,-29
22,-59,-83,39,83,-70,25,-6,13,-22,-9,-29
22,-59,-83,39,83,-70,25,-6,13,-22,-9,-29
22,-59,-83,39,83,-70,25,-6,13,-22,-9,-29
22,-59,-83,39,83,-70,25,-6,13,-22,-9,-29
21,-59,-82,40,82,-70,25,-6,13,-22,-9,-29
19,-59,-81,41,79,-69,25,-6,13,-22,-9,-29
17,-59,-79,42,77,-69,25,-6,13,-22,-9,-29
14,-59,-77,43,74,-68,25,-6,13,-22,-9,-29
12,-59,-76,44,72,-67,25,-6,13,-22,-9,-29
11,-59,-76,44,71,-67,25,-6,13,-23,-9,-29
11,-59,-76,44,71,-67,25,-6,13,-24,-9,-29
11,-59,-76,44,71,-67,25,-6,13,-25,-9,-29
12,-59,-76,44,72,-67,25,-6,13,-25,-9,-29
14,-59,-78,43,74,-68,25,-6,13,-26,-9,-29
17,-59,-79,42,77,-69,25,-6,13,-26,-9,-29
20,-59,-81,40,80,-69,25,-6,13,-26,-9,-29
21,-59,-82,40,82,-70,25,-7,13,-26,-9,-29
22,-59,-82,39,82,-70,25,-9,13,-26,-9,-29
22,-59,-83,39,83,-70,25,-10,13,-26,-9,-29
22,-59,-83,39,83,-70,25,-12,13,-26,-9,-29
22,-59,-83,39,83,-70,25,-14,13,-26,-9,-29
22,-59,-83,39,83,-70,25,-14,13,-26,-9,-29
22,-59,-83,39,83,-70,25,-15,13,-26,-9,-29
22,-59,-83,39,83,-70,25,-15,13,-26,-9,-29
21,-60,-82,40,82,-70,26,-15,13,-26,-9,-30
18,-61,-81,42,79,-70,26,-15,13,-26,-9,-30
17,-61,-81,43,79,-70,27,-15,13,-26,-9,-31
17,-61,-81,43,78,-70,27,-15,13,-26,-9,-31
17,-61,-81,43,78,-70,27,-15,13,-26,-9,-31
17,-61,-81,43,78,-70,27,-15,13,-26,-9,-31
17,-61,-81,43,78,-70,27,-15,13,-26,-9,-31
15,-58,-77,41,74,-67,26,-13,13,-25,-7,-30
14,-55,-73,39,70,-63,24,-11,13,-25,-4,-29
14,-54,-71,38,68,-62,23,-11,13,-25,-3,-29
14,-54,-71,38,68,-61,23,-10,13,-25,-3,-29
20,-51,-71,33,71,-60,23,-10,14,-25,-2,-29
25,-49,-73,30,75,-60,23,-10,15,-24,-1,-29
21,-52,-73,33,74,-61,22,-10,16,-24,-2,-29
20,-53,-74,35,74,-62,22,-10,18,-23,-2,-29
24,-53,-76,33,77,-63,21,-10,19,-21,-2,-29
26,-52,-76,32,79,-63,19,-11,21,-20,-1,-29
31,-47,-74,26,80,-59,18,-12,23,-18,0,-26
37,-42,-71,19,80,-55,17,-13,25,-16,3,-24
39,-39,-68,15,79,-52,16,-14,27,-14,4,-23
40,-36,-65,13,77,-49,16,-15,29,-12,6,-21
38,-35,-63,13,74,-48,16,-15,30,-11,7,-19
37,-34,-62,13,72,-46,14,-16,31,-10,9,-17
43,-30,-61,7,74,-44,11,-18,32,-9,10,-15
46,-30,-62,5,77,-44,7,-21,31,-9,10,-14
44,-33,-65,9,79,-47,4,-22,29,-11,9,-15
41,-39,-70,15,81,-53,3,-22,25,-14,6,-18
40,-45,-76,20,86,-59,3,-21,21,-18,3,-21
46,-47,-82,19,94,-63,3,-19,19,-19,1,-23
52,-49,-88,18,102,-67,4,-18,18,-20,1,-23
56,-51,-93,18,109,-70,7,-15,17,-21,0,-23
56,-54,-96,21,112,-73,9,-15,16,-22,-1,-23
53,-58,-99,25,112,-77,10,-16,14,-23,-2,-24
50,-60,-99,28,111,-78,10,-17,13,-23,-3,-26
46,-61,-98,30,107,-78,11,-18,13,-24,-3,-29
42,-61,-96,32,104,-77,12,-19,14,-24,-3,-31
43,-60,-95,31,104,-76,12,-20,14,-23,-3,-32
46,-58,-95,28,105,-75,11,-21,15,-23,-4,-32
48,-55,-93,25,104,-72,10,-21,16,-22,-4,-31
47,-55,-92,26,103,-72,10,-20,18,-21,-4,-31
47,-54,-91,25,103,-71,11,-17,20,-20,-4,-30
43,-55,-90,28,99,-71,11,-15,21,-19,-3,-29
37,-58,-90,32,96,-72,10,-13,20,-20,-4,-30
43,-57,-92,29,101,-73,10,-9,20,-20,-4,-30
49,-55,-94,25,106,-73,10,-7,19,-21,-4,-29
51,-55,-95,24,107,-74,10,-9,19,-22,-3,-28
53,-56,-97,24,110,-75,10,-10,18,-22,-3,-26
58,-55,-99,21,114,-75,11,-10,18,-23,-2,-25
59,-56,-100,21,117,-76,12,-11,18,-23,-2,-25
54,-60,-102,26,115,-79,12,-13,16,-25,-3,-26
53,-61,-102,28,115,-80,12,-17,14,-26,-3,-27
49,-61,-100,30,111,-79,12,-21,14,-26,-3,-27
44,-60,-97,31,106,-77,13,-21,15,-25,-3,-26
38,-60,-92,33,98,-75,14,-21,17,-23,-2,-26
27,-61,-88,39,89,-73,16,-20,17,-23,-2,-27
20,-63,-86,43,84,-73,19,-17,18,-23,-3,-28
18,-64,-86,45,83,-74,23,-13,18,-23,-3,-29
17,-65,-87,46,83,-75,25,-11,18,-23,-4,-31
20,-65,-88,45,86,-76,26,-11,16,-25,-6,-33
24,-65,-90,43,89,-76,27,-10,13,-26,-8,-34
22,-66,-90,45,88,-77,29,-10,11,-27,-10,-35
17,-66,-87,46,84,-76,32,-9,9,-28,-10,-37
11,-67,-85,50,79,-75,33,-7,7,-29,-11,-40
0,-70,-82,57,71,-76,33,-6,5,-29,-12,-43
-7,-72,-80,61,66,-76,33,-6,4,-30,-13,-45
-8,-72,-79,61,63,-75,32,-6,4,-29,-13,-45
-9,-71,-78,61,63,-74,32,-7,4,-28,-12,-46
-8,-71,-79,61,63,-75,32,-8,4,-26,-12,-45
-4,-70,-79,59,66,-74,33,-6,6,-25,-12,-43
2,-68,-81,54,71,-74,34,-6,8,-24,-11,-41
7,-66,-81,51,73,-73,34,-4,10,-24,-11,-40
6,-67,-81,52,73,-73,34,-4,11,-25,-11,-39
2,-68,-81,54,71,-74,34,-3,11,-25,-12,-38
-2,-70,-80,57,68,-74,33,-2,10,-25,-12,-38
-2,-71,-82,58,69,-76,31,-1,9,-26,-13,-39
2,-70,-83,56,72,-76,31,-1,9,-26,-13,-39
5,-70,-85,55,75,-77,30,-1,9,-26,-12,-40
11,-68,-86,51,79,-76,32,1,9,-24,-12,-39
15,-65,-85,47,80,-74,33,4,11,-23,-11,-37
15,-66,-86,47,81,-75,34,6,12,-21,-11,-37
18,-67,-88,47,85,-77,34,6,12,-20,-11,-37
21,-66,-89,45,87,-76,33,6,12,-20,-10,-37
22,-67,-91,45,89,-78,31,7,12,-19,-10,-37
25,-66,-92,43,92,-78,31,9,13,-19,-10,-36
18,-66,-88,46,85,-76,29,2,13,-20,-9,-38
-4,-70,-80,59,66,-74,25,-17,12,-23,-9,-41
-16,-72,-74,65,56,-73,25,-15,15,-21,-9,-41
-31,-82,-78,79,51,-80,21,-15,11,-24,-11,-46
22,-72,-97,49,95,-83,30,4,22,-20,-9,-46
-1,-76,-88,62,75,-82,45,15,33,-20,-12,-49
-7,-87,-97,73,80,-92,51,24,38,-26,-20,-52
-13,-73,-78,65,60,-75,55,24,39,-22,-20,-52
17,-55,-74,38,72,-64,55,19,44,-18,-19,-47
2,-46,-55,37,48,-50,55,45,62,-12,-13,-43
31,-36,-60,16,68,-47,53,34,77,-4,-1,-31
64,-30,-73,-2,95,-49,51,39,101,8,12,-22
135,-4,-85,-51,142,-41,62,67,140,27,39,2
185,20,-87,-91,168,-29,38,49,173,55,71,30
212,40,-80,-118,176,-15,8,32,197,90,115,64
203,53,-58,-125,153,2,-16,4,221,126,159,103
259,100,-37,-186,164,37,-57,-49,236,178,221,160
259,196,75,-263,68,141,-113,-135,254,255,306,246
304,290,158,-357,19,229,-167,-217,242,309,374,323
233,323,239,-354,-86,284,-219,-294,211,345,415,372
182,335,283,-343,-150,311,-245,-337,175,360,429,389
132,272,239,-272,-138,256,-226,-305,169,359,418,372
159,246,193,-262,-85,222,-191,-275,132,339,390,343
114,216,185,-220,-100,201,-170,-256,60,275,323,302
-10,177,213,-137,-188,193,-142,-236,-36,160,212,224
-117,132,223,-58,-251,174,-107,-211,-137,32,89,136
-146,83,185,-7,-233,130,-77,-183,-197,-63,-6,60
-125,68,155,-3,-197,108,-57,-163,-182,-81,-32,20
-161,20,119,50,-185,66,-36,-125,-151,-73,-40,-10
-146,1,88,60,-150,41,-12,-88,-119,-63,-39,-25
-96,-8,47,46,-89,17,3,-69,-103,-60,-39,-35
-108,-10,52,52,-100,19,-1,-60,-86,-53,-35,-38
-93,-19,33,54,-75,5,4,-41,-61,-45,-30,-35
-49,-16,10,33,-33,-4,12,-28,-43,-39,-24,-32
-63,-19,15,42,-45,-3,17,-21,-31,-29,-13,-31
-54,-16,14,35,-39,-2,14,-19,-19,-21,-5,-26
-28,-10,5,20,-18,-3,8,-28,-12,-16,-1,-24
-22,-13,-2,20,-9,-8,1,-39,-7,-16,0,-22
2,-19,-23,15,21,-21,1,-39,-3,-15,0,-22
-16,-23,-18,26,7,-21,3,-39,6,-10,-3,-22
-16,-33,-29,33,16,-31,8,-34,11,-9,-3,-24
-40,-37,-20,46,-3,-29,14,-28,12,-12,-3,-24
-16,-40,-37,39,24,-39,16,-26,15,-11,-2,-24
-14,-37,-35,36,23,-36,16,-23,17,-10,-2,-24
-10,-36,-36,33,26,-36,16,-20,19,-9,-2,-25
-12,-38,-37,36,26,-38,16,-17,20,-7,-2,-26
-7,-39,-42,35,32,-40,17,-13,21,-6,-2,-26
-3,-41,-46,34,38,-43,20,-9,23,-5,-2,-26
-1,-42,-49,35,42,-45,22,-6,24,-5,-2,-27
-1,-44,-51,36,44,-47,23,-4,24,-5,-2,-27
-2,-47,-53,39,45,-50,22,-6,24,-6,-3,-28
-10,-51,-53,45,40,-52,20,-9,23,-6,-3,-28
-15,-52,-51,48,37,-51,18,-12,24,-6,-4,-28
-8,-48,-51,43,40,-50,16,-14,25,-5,-2,-27
-1,-45,-52,38,45,-49,15,-15,26,-4,-0,-25
-3,-46,-52,39,43,-49,14,-16,26,-3,0,-25
-10,-50,-52,45,40,-51,13,-17,27,-4,1,-25
-6,-50,-55,44,45,-53,12,-15,27,-4,1,-25
8,-47,-60,35,56,-53,13,-13,29,-3,1,-25
12,-47,-62,33,59,-54,14,-13,29,-3,0,-25
8,-48,-60,36,56,-53,15,-14,28,-4,-0,-26
2,-48,-58,39,51,-53,16,-15,28,-3,0,-26
1,-48,-57,39,50,-52,17,-15,29,-3,0,-26
2,-47,-56,38,49,-51,19,-16,29,-3,1,-25
2,-46,-55,37,49,-50,19,-17,29,-2,2,-25
-1,-47,-55,39,46,-50,18,-18,29,-1,2,-25
-5,-48,-54,41,43,-51,18,-18,30,-1,2,-25
-5,-48,-54,41,43,-51,19,-17,30,-0,2,-25
-6,-48,-52,41,42,-50,19,-17,31,0,2,-25
-12,-47,-48,44,35,-47,19,-17,31,1,3,-25
-20,-47,-43,47,27,-45,19,-17,31,1,3,-24
-22,-47,-42,47,25,-45,19,-18,31,1,3,-24
-9,-45,-47,40,36,-46,18,-18,32,2,3,-23
7,-42,-52,31,48,-46,17,-17,33,3,4,-22
14,-40,-56,27,55,-47,17,-17,34,3,5,-22
20,-40,-59,25,60,-49,17,-17,34,3,5,-22
21,-42,-61,26,63,-51,17,-17,34,3,5,-22
16,-44,-61,30,60,-52,17,-17,34,3,5,-22
12,-45,-60,32,58,-52,17,-17,34,3,5,-22
15,-45,-62,30,61,-53,18,-17,34,3,6,-22
16,-45,-62,30,61,-52,19,-17,34,3,6,-22
14,-44,-60,30,59,-51,19,-17,35,3,8,-21
15,-43,-59,29,58,-50,19,-17,36,4,10,-20
16,-42,-58,28,59,-49,18,-17,36,4,11,-19
17,-42,-58,27,59,-49,16,-17,37,4,12,-19
17,-41,-58,27,59,-49,13,-18,37,4,12,-19
18,-41,-59,27,60,-49,10,-18,38,4,12,-19
20,-41,-60,25,62,-49,10,-19,38,4,12,-19
21,-39,-58,24,60,-48,10,-19,38,4,12,-20
15,-39,-55,26,54,-46,9,-19,38,4,11,-21
8,-41,-52,30,49,-46,9,-19,39,4,10,-22
4,-41,-50,31,45,-45,8,-19,39,5,9,-23
4,-39,-49,30,44,-44,8,-19,40,5,10,-23
5,-39,-48,30,43,-43,8,-19,40,5,10,-23
7,-37,-48,28,45,-42,8,-19,40,5,10,-23
10,-36,-48,25,46,-41,8,-20,41,6,11,-23
11,-35,-47,24,46,-41,7,-21,41,6,11,-23
12,-34,-47,23,47,-40,7,-21,42,6,11,-22
13,-34,-47,22,47,-40,6,-20,43,7,12,-21
11,-34,-46,23,45,-39,6,-19,44,8,13,-20
14,-33,-46,21,47,-39,6,-19,45,8,14,-19
15,-33,-47,21,48,-39,6,-20,45,9,14,-19
12,-33,-46,23,46,-39,6,-21,46,9,14,-19
16,-31,-46,19,48,-38,7,-19,47,10,16,-18
20,-29,-46,15,50,-37,8,-19,49,11,17,-16
21,-29,-46,15,51,-37,6,-20,49,12,18,-15
23,-29,-48,15,53,-38,5,-21,50,12,18,-15
27,-28,-49,13,56,-38,5,-21,50,13,18,-14
30,-27,-49,10,57,-37,4,-23,51,14,19,-13
31,-25,-48,8,57,-36,4,-25,52,15,20,-13
30,-25,-47,8,56,-35,4,-28,53,16,21,-12
29,-25,-47,9,55,-35,4,-29,53,17,22,-11
27,-25,-45,10,53,-34,4,-30,54,17,22,-10
24,-25,-43,11,49,-33,2,-32,54,18,23,-10
25,-24,-43,10,50,-33,0,-33,55,18,23,-10
27,-23,-43,8,51,-32,-0,-33,56,20,24,-9
30,-20,-42,4,51,-30,0,-31,57,21,25,-8
33,-16,-39,0,50,-27,1,-30,58,23,26,-6
35,-13,-36,-3,49,-23,0,-28,60,24,28,-4
37,-10,-33,-7,47,-20,-0,-26,61,25,29,-4
35,-9,-31,-6,45,-19,-2,-27,61,26,30,-3
33,-11,-32,-4,44,-20,-4,-29,62,27,31,-2
34,-9,-31,-6,44,-19,-4,-29,63,28,32,-1
37,-7,-30,-9,45,-17,-5,-30,65,30,34,0
40,-4,-29,-13,45,-16,-6,-30,67,31,35,2
43,-3,-29,-15,47,-15,-9,-32,68,31,37,3
48,-2,-31,-17,51,-15,-12,-33,69,31,38,4
54,0,-32,-21,55,-15,-14,-32,71,32,40,6
57,3,-31,-25,56,-12,-16,-33,73,34,41,7
60,5,-30,-28,57,-11,-17,-34,74,35,43,8
60,5,-30,-28,56,-11,-19,-34,75,36,44,10
57,7,-26,-28,52,-8,-20,-35,77,38,46,11
55,9,-23,-29,47,-6,-21,-37,78,39,48,13
52,11,-18,-30,42,-3,-22,-38,80,41,50,15
52,14,-14,-32,39,1,-23,-38,82,43,52,18
55,18,-12,-36,38,4,-24,-39,85,45,55,21
57,19,-11,-38,39,5,-26,-41,87,47,56,22
57,21,-10,-40,37,6,-27,-42,88,48,58,24
58,23,-8,-42,36,9,-29,-43,90,50,60,26
60,24,-7,-43,37,9,-31,-45,91,52,62,28
64,26,-8,-46,40,10,-34,-46,92,53,64,30
71,30,-8,-52,43,12,-35,-46,94,56,67,32
78,32,-9,-57,47,13,-36,-49,96,57,69,34
88,36,-10,-64,53,15,-38,-52,98,59,72,37
92,39,-9,-68,54,17,-39,-54,101,61,74,40
84,37,-6,-64,48,17,-42,-56,102,63,77,41
76,36,-4,-60,42,18,-44,-58,103,64,78,43
75,39,1,-61,37,21,-45,-59,106,67,81,46
78,43,4,-66,36,25,-46,-60,107,69,83,49
78,45,6,-67,34,27,-49,-61,108,70,85,50
73,45,10,-66,29,29,-51,-63,109,72,87,51
71,47,13,-67,25,31,-54,-65,110,73,89,53
71,51,17,-70,21,35,-54,-66,111,75,91,56
73,55,21,-74,19,39,-55,-67,113,78,94,59
77,58,22,-77,21,41,-56,-68,115,79,95,61
79,58,20,-78,23,41,-58,-71,115,81,97,62
82,59,20,-80,24,41,-58,-74,116,82,99,64
88,61,19,-85,28,42,-59,-75,117,84,100,67
95,62,17,-89,34,41,-61,-77,117,84,102,68
102,64,15,-93,39,42,-62,-77,117,85,103,70
106,67,15,-96,41,43,-65,-79,117,85,105,72
108,68,15,-98,42,44,-67,-80,117,85,107,74
108,69,16,-99,42,44,-68,-81,116,85,108,76
107,70,19,-100,39,46,-69,-83,115,86,110,77
105,72,22,-100,34,49,-70,-84,115,86,111,77
100,73,25,-99,29,51,-71,-86,114,87,111,76
101,74,27,-101,28,53,-72,-87,114,87,112,75
105,77,27,-104,30,54,-73,-87,114,88,113,75
105,78,29,-106,29,55,-73,-88,115,88,114,76
105,80,30,-106,28,57,-73,-88,115,89,115,77
104,79,31,-106,26,57,-73,-88,113,89,115,77
103,78,30,-105,27,56,-74,-89,112,88,115,77
102,76,28,-103,28,54,-75,-90,110,87,114,76
101,73,26,-100,29,52,-77,-92,108,86,113,75
98,72,26,-97,28,50,-76,-91,106,85,112,74
95,70,25,-94,27,49,-75,-90,104,84,111,73
96,69,23,-94,29,48,-74,-89,102,83,110,72
98,70,23,-96,30,48,-72,-87,101,82,108,72
98,68,21,-95,31,47,-70,-85,98,81,106,71
93,63,19,-89,31,43,-68,-83,95,79,103,68
89,59,15,-83,32,39,-66,-81,92,76,100,67
90,57,13,-82,35,36,-63,-79,89,73,98,65
88,53,10,-78,36,33,-61,-77,86,70,94,64
83,48,7,-73,37,29,-59,-76,82,67,90,61
82,44,2,-69,40,25,-58,-75,79,63,86,57
78,39,-1,-63,40,21,-56,-75,75,60,82,52
76,36,-4,-59,42,18,-53,-74,73,56,78,49
76,31,-8,-56,46,13,-51,-73,69,53,74,45
72,26,-12,-49,47,8,-48,-71,65,49,70,41
69,22,-15,-45,48,5,-43,-66,62,46,67,38
67,18,-19,-42,50,1,-38,-63,59,42,63,34
67,14,-23,-38,54,-3,-35,-59,56,39,59,29
61,9,-26,-31,53,-7,-33,-56,52,35,55,24
53,3,-28,-24,51,-11,-30,-53,49,32,51,18
53,-0,-32,-21,54,-15,-27,-51,46,28,47,13
54,-4,-37,-19,59,-19,-25,-48,44,25,43,9
52,-8,-40,-14,62,-23,-22,-46,40,22,39,5
48,-12,-43,-9,61,-26,-21,-44,37,18,36,1
47,-14,-44,-7,62,-28,-19,-40,35,16,33,-2
46,-17,-47,-4,64,-31,-17,-37,33,13,30,-4
44,-21,-50,-0,66,-34,-14,-36,30,11,27,-7
43,-23,-52,1,67,-36,-12,-34,27,9,25,-9
38,-27,-54,6,66,-39,-10,-34,24,7,22,-12
34,-30,-56,11,65,-42,-8,-32,21,5,20,-15
34,-32,-58,13,68,-44,-6,-30,20,4,18,-17
33,-35,-60,15,68,-46,-4,-28,19,2,16,-19
33,-36,-62,16,69,-48,-3,-25,18,1,15,-20
36,-36,-63,15,72,-48,-1,-24,17,-1,14,-21
37,-35,-63,14,73,-48,-1,-24,17,-1,13,-21
37,-35,-63,14,74,-48,-1,-23,17,-1,13,-22
37,-35,-63,14,74,-48,-1,-23,17,-1,13,-22
37,-35,-63,14,74,-48,-1,-23,17,-1,13,-22
37,-35,-63,14,74,-48,-1,-23,17,-1,13,-22
33,-41,-68,20,75,-53,2,-18,14,-6,9,-26
26,-49,-73,30,76,-60,5,-10,11,-12,3,-32
24,-52,-75,33,77,-63,6,-7,9,-14,2,-34
23,-53,-76,34,77,-63,6,-6,9,-14,1,-35
22,-53,-76,34,77,-64,7,-6,9,-15,1,-35
22,-53,-76,34,77,-64,9,-6,9,-15,1,-35
22,-53,-76,34,77,-64,10,-6,9,-15,0,-35
22,-53,-76,34,77,-64,10,-6,9,-15,-1,-35
22,-53,-76,34,77,-64,10,-6,9,-15,-2,-35
22,-53,-76,34,77,-64,10,-6,9,-15,-3,-35
22,-53,-76,34,77,-64,10,-6,9,-15,-3,-35
22,-53,-76,34,77,-64,10,-6,9,-15,-4,-35
22,-53,-76,34,77,-64,10,-6,9,-15,-4,-35
22,-53,-76,34,77,-64,10,-6,9,-15,-4,-35
22,-53,-76,34,77,-64,10,-6,9,-15,-4,-35
22,-53,-76,34,77,-64,10,-6,9,-15,-4,-35
22,-53,-76,34,77,-64,10,-6,9,-15,-4,-35
22,-53,-76,34,77,-64,10,-6,9,-15,-4,-35
22,-53,-76,34,77,-64,10,-6,9,-15,-4,-35
22,-53,-76,34,77,-64,10,-6,9,-15,-4,-35
22,-53,-76,34,77,-64,10,-6,9,-15,-4,-35
22,-53,-76,34,77,-64,10,-6,9,-15,-4,-35
22,-53,-75,34,76,-63,9,-7,9,-15,-4,-35
22,-52,-74,33,75,-62,8,-9,9,-15,-4,-35
22,-50,-72,32,74,-60,6,-10,9,-15,-4,-35
22,-49,-70,30,72,-59,4,-12,9,-15,-4,-35
22,-48,-69,30,71,-58,3,-14,9,-14,-4,-35
22,-48,-69,30,71,-57,3,-14,9,-14,-4,-35
22,-47,-69,30,71,-57,3,-15,9,-13,-4,-35
22,-47,-69,30,71,-57,3,-15,9,-12,-4,-35
22,-47,-69,30,71,-57,3,-15,9,-11,-3,-35
22,-47,-69,30,71,-57,3,-15,9,-11,-3,-35
22,-47,-69,30,71,-57,3,-15,9,-11,-2,-35
22,-47,-69,30,71,-57,3,-15,9,-11,-0,-35
22,-47,-69,30,71,-57,3,-14,9,-11,0,-35
22,-47,-69,30,71,-57,3,-12,10,-11,0,-35
22,-47,-69,30,71,-57,3,-10,11,-11,1,-35
22,-47,-69,30,71,-57,3,-8,12,-11,1,-35
22,-47,-69,30,71,-57,3,-7,13,-11,1,-35
22,-47,-69,30,71,-57,3,-6,13,-11,2,-35
22,-47,-69,30,71,-57,3,-6,13,-11,3,-35
22,-47,-69,30,71,-57,3,-6,13,-11,4,-35
22,-47,-69,30,71,-57,3,-6,13,-11,5,-35
22,-47,-69,30,71,-57,3,-6,13,-11,5,-35
22,-47,-69,30,71,-57,3,-6,13,-11,5,-35
22,-47,-69,30,71,-57,3,-6,13,-11,5,-35
22,-47,-69,30,71,-57,3,-6,13,-11,5,-35
22,-47,-69,30,71,-57,3,-6,13,-11,5,-35
22,-47,-69,30,71,-57,3,-6,13,-11,5,-35
22,-47,-69,30,71,-57,3,-6,13,-11,5,-35
22,-47,-69,30,71,-57,3,-6,13,-11,5,-35
22,-47,-69,30,71,-57,3,-6,13,-11,5,-35
22,-47,-69,30,71,-57,3,-6,13,-11,5,-35
22,-47,-69,30,71,-57,3,-6,13,-11,5,-35
22,-47,-69,30,71,-57,3,-6,13,-11,5,-35
22,-47,-69,30,71,-57,3,-6,13,-12,4,-35
22,-47,-69,30,71,-57,3,-6,13,-13,3,-35
22,-47,-69,30,71,-57,3,-6,13,-14,2,-35
22,-47,-69,30,71,-57,3,-6,13,-14,1,-36
22,-47,-69,30,71,-57,3,-6,13,-15,-0,-37
22,-47,-69,30,71,-57,3,-6,13,-15,-2,-38
22,-47,-69,30,71,-57,3,-6,13,-15,-3,-40
24,-47,-69,29,72,-57,3,-5,13,-15,-3,-40
26,-47,-71,28,74,-58,3,-3,13,-15,-4,-41
28,-47,-72,27,77,-59,3,-2,13,-15,-4,-41
31,-47,-74,26,80,-59,3,0,13,-15,-4,-41
33,-47,-75,25,82,-60,3,2,13,-15,-4,-41
34,-47,-75,25,82,-60,3,2,12,-15,-4,-41
34,-47,-76,25,83,-60,3,2,11,-15,-4,-41
34,-47,-76,25,83,-60,3,2,10,-15,-4,-41
33,-48,-76,26,82,-61,3,2,9,-15,-4,-41
31,-49,-76,28,81,-61,3,2,9,-15,-4,-41
28,-50,-76,30,80,-62,3,2,9,-15,-4,-41
25,-52,-76,32,78,-63,3,2,9,-15,-4,-41
24,-53,-76,33,77,-63,3,2,9,-15,-4,-41
23,-53,-76,34,77,-63,5,2,9,-15,-5,-41
22,-53,-76,34,77,-64,6,2,9,-15,-6,-41
22,-53,-76,34,77,-64,8,2,9,-15,-7,-41
22,-53,-76,34,77,-64,9,3,9,-15,-8,-42
22,-53,-76,34,77,-64,10,5,9,-15,-8,-43
22,-53,-76,34,77,-64,10,6,9,-15,-9,-44
22,-53,-76,34,77,-64,10,9,9,-15,-9,-46
22,-53,-76,34,77,-64,10,10,8,-15,-9,-46
22,-53,-76,34,77,-64,10,10,7,-15,-9,-47
22,-53,-76,34,77,-64,10,11,6,-15,-9,-47
22,-53,-76,34,77,-64,10,11,5,-15,-9,-47
22,-53,-76,34,77,-64,10,11,4,-15,-9,-47
22,-53,-76,34,77,-64,10,11,4,-15,-9,-47
22,-53,-76,34,77,-64,10,11,4,-15,-9,-47
22,-53,-76,34,77,-64,10,11,4,-15,-9,-47
22,-53,-76,34,77,-64,10,11,4,-15,-9,-47
22,-53,-76,34,77,-64,10,11,4,-15,-9,-47
22,-53,-76,34,77,-64,10,11,4,-15,-9,-47
22,-53,-76,34,77,-64,10,11,4,-15,-9,-47
22,-54,-76,35,77,-64,10,11,4,-15,-9,-48
22,-55,-78,36,79,-66,10,11,3,-15,-10,-49
22,-56,-79,37,80,-67,10,11,2,-15,-11,-50
22,-58,-81,38,81,-69,10,11,0,-15,-12,-51
22,-59,-82,39,82,-69,10,11,-1,-15,-13,-52
22,-59,-82,39,82,-70,10,11,-2,-16,-13,-53
22,-59,-83,39,83,-70,10,11,-3,-17,-13,-53
22,-59,-83,39,83,-70,10,11,-4,-17,-13,-53
22,-59,-83,39,83,-70,10,11,-5,-18,-13,-53
22,-59,-83,39,83,-70,10,11,-5,-18,-13,-53
22,-59,-83,39,83,-70,10,11,-6,-18,-13,-53
22,-59,-83,39,83,-70,10,11,-6,-18,-13,-53
22,-59,-83,39,83,-70,9,11,-6,-18,-13,-53
22,-59,-83,39,83,-70,8,11,-6,-17,-13,-53
22,-59,-83,39,83,-70,6,11,-6,-17,-13,-53
22,-59,-83,39,83,-70,4,11,-6,-16,-13,-53
22,-59,-83,39,83,-70,3,11,-6,-15,-13,-53
22,-59,-83,39,83,-70,3,11,-6,-15,-13,-53
22,-59,-83,39,83,-70,3,11,-6,-15,-13,-53
22,-59,-83,39,83,-70,3,11,-6,-15,-13,-53
22,-59,-83,39,83,-70,3,11,-6,-15,-13,-53
22,-59,-83,39,83,-70,3,11,-6,-16,-13,-53
22,-59,-83,39,83,-70,3,11,-6,-17,-13,-53
22,-59,-83,39,83,-70,3,11,-6,-17,-13,-53
22,-59,-83,39,83,-70,3,11,-6,-18,-13,-53
22,-59,-83,39,83,-70,3,11,-6,-18,-13,-53
22,-59,-83,39,83,-70,3,11,-6,-18,-13,-53
22,-59,-83,39,83,-70,3,11,-6,-18,-13,-53
22,-59,-83,39,83,-70,3,11,-6,-18,-13,-53
22,-59,-83,39,83,-70,3,11,-6,-18,-13,-53
22,-59,-83,39,83,-70,3,11,-6,-18,-13,-53
22,-59,-83,39,83,-70,3,11,-6,-18,-13,-53
22,-59,-83,39,83,-70,3,11,-6,-18,-13,-53
22,-59,-83,39,83,-70,5,11,-6,-18,-13,-53
22,-59,-83,39,83,-70,6,11,-6,-18,-13,-53
22,-59,-83,39,83,-70,8,11,-6,-18,-13,-53
24,-59,-83,39,84,-70,9,11,-6,-18,-13,-53
26,-59,-85,38,86,-71,10,11,-6,-18,-13,-53
28,-59,-86,37,89,-72,10,11,-6,-18,-13,-53
31,-59,-88,35,92,-72,10,11,-6,-18,-13,-53
33,-59,-89,35,94,-73,9,11,-6,-18,-13,-53
34,-59,-89,34,94,-73,8,11,-6,-18,-13,-53
34,-59,-90,34,95,-73,6,11,-6,-18,-13,-53
34,-59,-90,34,95,-73,4,11,-6,-18,-13,-53
33,-59,-89,35,94,-73,3,11,-6,-18,-13,-53
31,-59,-88,36,91,-72,3,11,-7,-18,-13,-53
28,-59,-86,37,89,-72,3,11,-8,-18,-13,-53
25,-59,-85,38,86,-71,3,11,-9,-18,-13,-53
24,-59,-83,39,84,-70,3,11,-10,-18,-13,-53
23,-59,-83,39,83,-70,3,11,-10,-18,-13,-53
22,-59,-83,39,83,-70,3,11,-10,-18,-13,-53
22,-59,-83,39,83,-70,3,11,-10,-18,-13,-53
22,-59,-83,39,83,-70,2,11,-10,-18,-13,-53
22,-59,-83,39,83,-70,1,11,-10,-18,-13,-53
22,-59,-83,39,83,-70,-1,11,-10,-18,-13,-53
22,-59,-83,39,83,-70,-3,11,-10,-18,-13,-53
22,-59,-83,39,83,-70,-4,11,-10,-18,-13,-53
22,-59,-83,39,83,-70,-4,11,-10,-18,-13,-53
22,-59,-83,39,83,-70,-4,11,-10,-18,-13,-53
22,-59,-83,39,83,-70,-4,11,-10,-18,-13,-53
22,-59,-83,39,83,-70,-4,12,-10,-18,-13,-53
22,-59,-83,39,83,-70,-4,13,-10,-18,-13,-53
22,-59,-83,39,83,-70,-4,15,-10,-18,-13,-53
22,-59,-83,39,83,-70,-4,17,-10,-18,-13,-53
22,-59,-82,39,82,-69,-4,18,-10,-18,-13,-53
22,-58,-81,38,81,-68,-4,19,-10,-18,-13,-53
