I,II,III,aVR,aVL,aVF,V1,V2,V3,V4,V5,V6
118,62,-15,-84,94,34,40,97,70,32,-5,19
116,60,-16,-82,93,32,39,97,69,30,-6,18
113,58,-17,-80,92,30,39,96,67,27,-8,15
110,56,-17,-77,90,29,38,96,66,26,-10,13
109,55,-18,-76,89,28,40,95,66,26,-10,11
109,54,-19,-76,90,27,41,95,65,25,-11,9
109,54,-20,-75,92,26,43,95,64,25,-11,7
111,54,-21,-77,93,27,45,96,65,25,-10,7
114,56,-21,-79,95,27,47,98,66,26,-10,8
113,55,-22,-78,95,26,46,99,65,25,-10,7
109,52,-23,-75,93,24,44,99,64,24,-11,6
107,51,-22,-73,91,23,44,100,63,24,-12,5
106,50,-23,-72,91,23,44,100,63,23,-13,5
106,49,-23,-72,92,22,44,99,62,22,-13,5
109,52,-22,-75,93,24,46,101,63,23,-12,5
110,54,-21,-76,93,26,49,102,64,23,-12,6
105,51,-20,-73,89,25,48,101,63,23,-13,5
104,50,-20,-72,88,24,49,101,63,24,-13,5
107,51,-21,-73,90,24,49,100,64,24,-13,6
108,52,-22,-74,92,25,50,101,64,24,-12,6
108,52,-21,-74,92,25,50,103,65,24,-12,6
108,52,-21,-74,91,25,51,105,66,24,-12,6
108,52,-21,-74,91,25,50,106,67,24,-12,6
107,51,-22,-73,91,24,49,107,67,23,-13,6
105,50,-22,-72,90,23,49,107,67,23,-13,6
104,49,-22,-71,90,22,48,106,66,23,-14,5
104,48,-23,-70,90,22,48,104,66,22,-15,4
103,48,-23,-69,89,21,47,104,65,22,-15,3
103,48,-23,-70,89,22,48,105,66,22,-14,4
104,49,-22,-70,89,22,49,105,66,22,-14,4
103,49,-22,-70,89,22,49,105,66,22,-13,5
101,47,-22,-68,87,21,49,105,65,21,-14,4
100,46,-22,-67,87,21,48,104,63,20,-16,3
102,47,-23,-69,88,21,48,104,63,20,-16,2
103,48,-23,-70,89,21,48,104,63,19,-16,1
103,48,-23,-69,89,21,46,102,61,18,-17,1
105,49,-24,-71,91,21,47,102,61,18,-18,1
108,50,-25,-73,94,22,49,104,62,18,-17,1
108,50,-24,-73,93,22,49,105,63,19,-16,2
106,50,-23,-72,91,23,49,105,63,19,-16,1
103,48,-22,-70,89,22,49,105,63,19,-16,1
102,48,-22,-69,87,22,51,105,63,20,-14,2
101,48,-22,-69,87,22,52,105,64,20,-14,4
101,47,-22,-69,87,21,52,105,65,21,-14,5
100,47,-21,-68,85,22,52,100,63,19,-16,7
100,47,-21,-68,85,22,52,100,63,19,-16,7
100,47,-21,-68,85,22,52,100,63,19,-16,7
100,47,-21,-68,85,22,52,100,63,19,-16,7
100,47,-21,-68,85,22,52,100,63,19,-16,7
100,47,-21,-68,85,22,52,100,63,19,-16,7
100,47,-21,-68,85,22,52,100,63,19,-16,7
100,47,-21,-68,85,22,52,100,63,19,-16,7
-35,98,182,-48,-160,141,61,132,138,85,55,69
77,39,-12,-54,63,20,55,112,63,12,-27,-10
89,42,-19,-60,77,19,55,112,60,5,-38,-18
97,42,-27,-63,88,16,62,119,63,-4,-49,-25
97,36,-36,-60,95,8,66,121,56,-15,-56,-27
102,29,-51,-58,110,-3,66,121,54,-24,-66,-35
85,17,-54,-43,99,-12,63,119,49,-34,-78,-49
92,20,-55,-48,105,-10,70,124,49,-42,-88,-48
94,19,-59,-48,110,-12,74,131,48,-54,-102,-58
89,11,-66,-41,111,-21,74,127,42,-66,-116,-69
89,8,-71,-39,115,-25,78,131,41,-74,-124,-76
82,-3,-81,-30,118,-36,82,127,37,-76,-135,-79
93,4,-81,-38,126,-32,84,131,36,-81,-134,-82
96,2,-86,-38,131,-35,89,141,40,-88,-141,-85
96,-0,-90,-36,134,-38,95,146,40,-90,-146,-92
100,3,-89,-40,136,-36,99,149,40,-91,-149,-98
89,-6,-93,-30,131,-43,95,142,38,-99,-160,-108
85,-14,-100,-24,134,-51,100,148,38,-105,-165,-113
98,-4,-99,-35,143,-45,108,154,39,-106,-165,-119
97,-10,-107,-31,148,-52,110,154,32,-120,-175,-127
109,-7,-113,-38,161,-52,116,154,26,-129,-182,-134
77,-29,-117,-11,141,-68,120,154,21,-138,-191,-145
72,-33,-118,-6,138,-72,120,142,13,-145,-201,-150
77,-30,-118,-11,142,-69,125,146,8,-152,-204,-152
77,-32,-122,-9,145,-73,130,153,3,-161,-205,-156
68,-41,-125,-0,141,-80,129,144,-9,-170,-212,-162
63,-44,-127,4,139,-82,129,137,-17,-178,-223,-168
63,-47,-132,6,143,-87,129,129,-27,-187,-230,-175
42,-60,-132,22,128,-95,131,119,-39,-196,-238,-193
62,-54,-141,10,148,-95,137,117,-43,-201,-242,-190
63,-51,-138,8,148,-92,152,115,-49,-207,-242,-191
62,-57,-146,12,152,-99,159,104,-60,-219,-252,-203
54,-68,-154,22,153,-110,159,85,-74,-230,-265,-217
26,-95,-170,50,145,-134,159,65,-92,-246,-279,-231
20,-97,-167,53,139,-134,161,48,-109,-258,-288,-242
26,-103,-181,55,153,-144,164,34,-122,-268,-295,-250
31,-105,-190,54,163,-149,165,19,-134,-274,-300,-254
27,-110,-194,59,163,-154,176,1,-152,-285,-304,-259
31,-110,-197,57,169,-155,171,-28,-171,-292,-315,-264
34,-114,-206,58,178,-162,169,-38,-172,-299,-318,-271
37,-118,-215,60,186,-168,170,-44,-174,-302,-319,-275
39,-122,-223,62,193,-174,173,-48,-174,-302,-319,-277
41,-125,-230,63,201,-179,178,-45,-173,-302,-318,-279
42,-131,-239,66,207,-186,185,-39,-174,-302,-318,-283
41,-137,-248,70,213,-194,191,-34,-181,-305,-321,-289
39,-143,-255,75,217,-201,198,-35,-191,-309,-325,-296
35,-150,-262,81,220,-209,203,-43,-205,-314,-330,-304
27,-159,-269,90,219,-218,209,-56,-220,-321,-337,-314
17,-171,-277,101,218,-229,217,-70,-235,-330,-345,-325
8,-180,-284,111,217,-238,225,-82,-247,-336,-352,-335
1,-187,-287,118,214,-244,231,-94,-256,-340,-356,-341
-8,-195,-291,126,211,-250,232,-106,-263,-340,-356,-343
-10,-197,-292,128,210,-252,226,-117,-267,-333,-349,-337
-3,-190,-288,121,212,-246,218,-124,-264,-321,-336,-324
7,-180,-282,111,215,-237,206,-128,-258,-305,-319,-307
14,-169,-272,101,212,-225,191,-133,-249,-289,-302,-288
18,-158,-258,93,205,-213,173,-138,-236,-271,-285,-270
20,-146,-243,84,195,-198,156,-140,-221,-252,-266,-251
24,-131,-223,73,184,-180,142,-138,-203,-231,-246,-230
29,-112,-198,59,168,-157,135,-130,-182,-208,-224,-207
30,-92,-169,47,148,-132,132,-118,-160,-184,-202,-184
29,-74,-141,36,125,-108,130,-106,-140,-161,-179,-161
30,-57,-115,25,107,-86,128,-96,-121,-138,-157,-138
35,-42,-96,13,96,-68,122,-86,-103,-117,-136,-116
41,-30,-84,3,91,-55,110,-77,-86,-99,-117,-97
52,-17,-75,-9,93,-43,98,-64,-69,-81,-99,-79
68,-4,-69,-24,99,-32,87,-48,-50,-64,-82,-61
78,6,-64,-34,102,-23,74,-29,-32,-50,-69,-47
88,16,-58,-44,105,-14,67,-7,-14,-37,-58,-36
96,26,-50,-53,104,-4,63,15,3,-25,-49,-26
98,32,-42,-58,100,3,58,32,17,-15,-42,-19
97,38,-33,-61,93,10,57,46,29,-7,-36,-13
102,46,-25,-68,90,19,58,58,39,1,-29,-6
107,54,-18,-74,88,27,59,69,48,9,-22,1
106,58,-10,-77,81,33,58,76,55,14,-17,6
104,61,-4,-78,76,38,57,82,60,18,-13,10
103,63,0,-79,72,41,55,84,66,22,-9,12
104,66,3,-81,71,44,53,86,70,26,-5,15
105,68,7,-83,69,47,51,88,74,29,-2,17
107,72,10,-86,67,51,49,90,79,32,1,20
108,75,14,-89,66,55,47,91,81,35,3,22
107,77,18,-89,62,57,44,91,82,37,4,23
105,77,19,-89,59,58,41,90,82,38,4,24
109,80,20,-92,61,60,41,91,83,40,6,25
113,82,21,-95,63,62,41,94,83,41,7,26
113,83,21,-95,63,63,39,95,84,42,8,27
111,81,21,-94,62,62,38,96,84,42,8,27
108,80,22,-92,59,62,36,97,84,42,8,27
106,80,24,-91,56,62,35,97,85,42,8,27
105,81,26,-92,54,64,35,98,87,43,9,28
109,84,26,-94,57,65,35,100,89,45,10,30
112,85,25,-96,60,66,35,100,90,46,11,31
113,85,25,-97,60,66,36,101,90,46,12,32
114,86,25,-98,61,67,38,102,90,47,13,32
115,87,26,-99,62,68,38,102,90,47,14,33
115,87,26,-99,61,68,37,102,89,47,14,32
113,86,27,-98,59,67,35,102,89,47,13,32
113,86,27,-97,59,67,33,103,90,48,14,32
114,87,27,-99,60,68,32,103,90,48,14,33
115,88,28,-100,60,69,32,104,91,48,15,34
116,90,29,-101,60,71,30,104,91,48,16,35
115,89,29,-100,59,70,28,103,91,48,16,35
114,88,28,-99,59,69,26,102,91,48,16,36
114,87,26,-98,60,67,23,100,89,47,16,36
114,86,25,-98,61,66,21,100,88,47,17,36
114,86,25,-97,61,66,20,101,89,48,17,36
112,84,25,-96,60,65,18,102,88,48,17,36
112,85,25,-97,60,66,18,102,88,48,17,37
115,87,26,-99,62,68,19,103,89,49,18,39
116,88,27,-100,62,69,20,105,90,49,19,41
116,89,28,-100,60,69,19,105,90,49,19,42
115,88,28,-100,60,69,18,103,90,49,19,43
112,87,29,-97,57,69,17,102,89,49,20,42
113,89,30,-99,57,70,18,103,89,51,21,44
115,91,32,-102,57,73,18,103,89,52,22,45
113,90,32,-100,55,72,18,104,89,53,23,44
112,89,31,-99,55,71,17,104,90,53,23,44
114,90,31,-100,57,72,17,104,90,53,24,44
110,88,31,-97,54,70,14,103,89,53,23,44
108,86,31,-96,53,69,12,102,89,53,23,44
112,89,31,-99,55,71,13,101,90,53,24,45
114,90,31,-100,57,72,12,100,90,53,24,46
114,90,31,-100,56,71,11,99,90,53,25,46
115,90,31,-101,57,72,11,98,90,54,25,47
115,91,31,-101,57,72,10,97,90,53,24,47
114,91,32,-101,56,73,9,97,89,53,24,47
116,92,33,-103,57,74,9,97,90,54,23,47
121,96,34,-107,60,77,9,97,91,55,24,48
121,97,35,-108,59,78,8,96,91,55,24,49
119,96,36,-106,57,78,7,96,91,56,24,50
119,96,36,-106,57,78,6,97,91,56,25,50
118,96,37,-106,55,78,5,96,92,57,25,51
116,96,38,-105,53,79,4,96,92,57,25,51
118,97,39,-107,54,80,4,96,92,58,26,53
123,100,38,-110,58,81,5,97,93,59,28,55
124,100,38,-111,59,81,4,96,93,59,29,56
123,99,37,-109,58,80,1,96,92,58,28,56
125,100,37,-111,60,81,0,95,91,58,29,57
126,102,39,-113,59,83,1,96,91,58,30,59
126,104,40,-114,59,85,0,96,91,59,32,61
127,103,40,-114,59,84,-2,93,90,58,32,61
125,103,40,-113,58,84,-5,90,90,58,32,60
126,103,40,-113,59,84,-7,90,91,60,34,60
126,102,38,-113,60,83,-8,89,91,60,35,61
126,103,39,-113,59,83,-10,88,92,60,36,61
128,105,42,-115,59,86,-11,89,92,61,36,62
130,107,43,-117,59,88,-11,90,92,62,38,63
131,108,43,-118,60,88,-12,88,93,62,39,65
133,111,45,-121,59,91,-12,87,94,63,39,67
130,112,49,-120,54,94,-13,86,95,63,40,68
127,112,52,-119,50,95,-15,85,95,63,40,70
129,113,52,-120,51,95,-17,83,95,63,41,71
127,111,52,-119,50,94,-20,79,95,63,41,72
127,112,52,-119,51,95,-21,77,94,63,42,74
130,113,52,-121,52,95,-22,76,93,63,43,76
129,114,53,-121,51,97,-23,74,93,63,44,77
130,116,55,-123,50,98,-25,72,93,63,45,78
133,118,56,-125,51,100,-27,72,93,62,45,79
134,119,57,-126,52,102,-29,72,94,63,45,80
136,121,58,-128,52,104,-31,72,95,63,46,81
138,123,60,-130,52,105,-32,72,96,64,47,83
136,124,62,-130,49,107,-35,71,96,65,48,85
136,125,64,-131,48,109,-38,70,96,66,50,87
139,128,65,-134,49,111,-40,70,97,67,51,90
144,131,66,-138,52,113,-42,69,97,69,53,93
146,132,66,-140,54,114,-46,68,96,69,55,95
143,131,67,-137,51,113,-50,65,93,69,55,96
143,132,68,-138,49,115,-53,62,92,69,56,97
146,135,70,-141,50,117,-55,60,92,70,57,99
151,139,71,-145,53,120,-57,59,94,71,58,102
155,142,72,-149,55,123,-58,57,94,72,60,104
150,140,73,-146,51,122,-64,52,92,71,59,104
150,141,75,-146,49,123,-67,49,91,71,60,105
153,145,78,-150,50,127,-68,50,92,72,62,108
154,146,80,-151,48,129,-69,49,92,72,62,109
157,149,82,-154,49,132,-70,48,92,72,63,111
159,152,83,-157,50,134,-74,48,92,72,62,113
159,152,84,-157,48,135,-78,46,91,71,61,113
156,151,86,-155,45,135,-82,43,90,69,60,114
155,151,87,-155,44,135,-84,42,90,69,60,114
158,154,88,-158,46,137,-84,42,91,69,60,115
164,157,88,-162,50,140,-84,41,91,69,60,117
167,160,89,-165,50,142,-85,41,92,68,61,119
166,161,91,-165,49,144,-88,39,91,68,60,119
165,161,91,-165,48,143,-90,36,90,67,60,118
162,159,91,-162,45,142,-94,32,89,65,58,118
162,160,93,-163,44,143,-95,30,89,65,58,118
165,162,93,-165,46,145,-96,29,89,65,58,118
164,161,94,-164,45,145,-97,27,88,63,56,117
163,161,94,-164,44,145,-98,26,88,63,56,116
163,161,93,-164,45,144,-98,26,87,62,55,115
162,160,93,-163,44,144,-98,27,86,61,53,114
162,160,93,-163,44,144,-98,27,86,61,52,114
163,161,93,-164,44,144,-97,28,86,61,51,114
164,161,93,-164,45,145,-97,29,86,60,50,114
166,162,93,-166,47,145,-97,30,87,60,48,113
165,161,92,-165,47,144,-97,32,87,59,47,111
159,157,92,-160,43,142,-97,32,86,58,45,107
155,155,92,-157,40,140,-97,34,86,57,43,104
156,155,91,-158,41,140,-97,36,87,57,42,102
152,152,90,-154,39,137,-97,37,86,55,40,99
150,151,90,-153,38,137,-94,40,86,54,39,96
151,151,90,-153,39,137,-89,43,87,54,38,94
149,149,89,-151,38,135,-87,45,87,53,36,89
150,148,87,-151,41,133,-83,49,89,52,34,86
150,147,84,-150,43,131,-80,53,91,51,32,83
144,142,83,-145,39,128,-77,55,92,49,29,79
141,140,82,-142,38,126,-73,59,93,48,27,74
142,139,80,-142,40,125,-69,63,95,47,26,71
141,137,78,-141,41,123,-65,67,97,47,25,68
139,134,75,-137,41,119,-62,70,96,46,23,64
134,130,73,-133,39,115,-59,72,95,45,21,60
129,126,73,-129,36,113,-56,74,95,44,19,57
129,126,72,-129,37,112,-51,77,96,43,18,54
132,127,70,-130,40,112,-46,81,97,43,17,53
128,123,69,-127,38,109,-42,83,98,41,15,49
122,119,68,-122,35,106,-38,87,97,40,13,46
118,116,66,-118,33,103,-35,91,97,38,11,43
116,113,64,-116,33,101,-32,96,96,37,9,40
115,111,62,-114,34,99,-27,99,96,36,7,37
114,109,60,-112,35,96,-24,101,95,34,4,35
114,107,58,-112,37,94,-21,102,94,33,2,33
111,105,56,-109,36,92,-18,102,93,32,-1,31
109,102,55,-106,36,90,-15,103,91,30,-2,28
110,102,53,-106,38,89,-12,105,90,29,-4,27
108,100,53,-104,36,88,-9,105,89,28,-5,24
104,98,53,-102,34,86,-7,105,89,27,-7,22
103,97,52,-101,33,86,-6,105,88,26,-7,21
103,97,52,-101,33,85,-6,105,88,26,-7,21
102,97,52,-100,33,85,-6,105,88,26,-7,21
102,97,52,-100,33,85,-6,105,88,26,-7,21
102,97,52,-100,33,85,-6,105,88,26,-7,21
98,91,47,-95,33,79,1,102,83,23,-10,16
92,83,41,-87,34,71,10,98,76,18,-13,9
90,80,38,-85,35,68,13,96,74,17,-14,7
89,79,38,-84,35,68,14,96,74,16,-15,7
89,79,37,-84,35,67,14,95,73,16,-15,5
89,78,36,-83,36,66,14,94,72,15,-16,4
89,77,35,-83,36,65,14,92,71,14,-17,2
89,77,34,-82,37,64,14,91,70,14,-17,0
89,76,34,-82,37,64,14,90,70,14,-17,-0
89,76,34,-82,38,64,14,90,70,14,-18,-1
89,76,34,-82,38,64,14,90,70,14,-18,-1
89,76,34,-82,38,64,15,90,70,14,-18,-1
89,76,34,-82,38,64,16,90,70,14,-18,-1
89,76,34,-82,38,64,17,90,70,14,-18,-1
89,76,34,-82,38,64,18,90,70,14,-18,-1
89,76,34,-82,38,64,19,90,70,14,-18,-1
89,76,34,-82,38,64,20,90,70,14,-18,-1
89,76,34,-82,38,64,20,90,70,14,-18,-1
89,76,34,-82,38,64,20,90,70,14,-18,-1
89,76,34,-82,38,64,20,90,70,14,-18,-1
89,76,34,-82,38,64,20,90,70,14,-18,-1
89,76,34,-82,38,64,20,90,70,14,-18,-1
89,76,34,-82,38,64,20,90,70,14,-18,-1
88,76,34,-82,37,64,20,90,70,14,-18,-1
87,76,35,-81,35,65,20,90,70,14,-18,-1
86,76,36,-81,34,65,20,90,70,14,-18,-1
85,76,37,-81,32,65,20,90,70,14,-18,-1
84,76,38,-80,31,66,20,90,70,14,-17,-1
84,76,38,-80,30,66,20,90,70,14,-17,-1
84,76,39,-80,30,66,20,90,70,14,-16,-1
84,76,39,-80,30,66,20,90,70,14,-15,-1
84,76,39,-80,30,66,20,90,70,14,-14,-1
84,76,39,-80,30,66,20,90,71,15,-14,-1
84,76,39,-80,30,66,20,90,72,15,-14,-1
84,76,39,-80,30,66,20,90,73,16,-14,-1
84,76,39,-80,30,66,20,90,74,17,-14,-1
84,76,39,-80,30,66,20,90,74,17,-14,-1
84,76,39,-80,30,66,20,90,74,17,-14,-1
84,76,39,-80,30,66,20,90,74,17,-14,-1
84,77,39,-80,30,66,20,90,74,17,-14,-1
84,77,40,-81,29,67,20,90,74,17,-14,-1
84,78,41,-81,28,68,20,90,74,17,-14,-1
84,79,42,-82,27,69,20,90,74,17,-14,-1
84,79,43,-82,27,70,19,90,74,17,-14,-0
84,79,43,-82,26,70,18,90,74,17,-14,1
84,80,44,-82,26,70,17,90,74,17,-14,2
84,80,44,-82,26,70,16,90,74,17,-14,3
84,80,44,-82,26,70,15,90,74,17,-14,4
84,80,44,-82,26,70,15,90,74,17,-14,4
84,80,44,-82,26,70,14,90,74,17,-14,4
84,80,44,-82,26,70,14,90,74,17,-14,4
84,80,44,-82,26,70,14,90,74,17,-14,4
84,80,44,-82,26,70,14,90,74,17,-14,3
84,80,44,-82,26,70,14,90,74,17,-14,2
84,80,44,-82,26,70,14,90,74,17,-14,0
84,80,44,-82,26,70,14,89,74,17,-14,-0
84,80,44,-82,26,70,13,88,74,17,-14,-0
84,80,44,-82,26,70,12,87,74,17,-14,-1
84,80,44,-82,26,70,10,85,74,17,-14,-1
84,80,44,-82,26,70,10,84,74,17,-14,-1
84,80,44,-82,26,70,9,84,74,17,-15,-1
84,80,44,-82,26,70,9,83,74,17,-16,-1
84,80,44,-82,26,70,9,83,74,17,-17,-1
84,80,44,-82,26,70,9,83,74,17,-17,-1
84,80,44,-82,26,70,9,83,74,17,-17,-1
84,80,44,-82,26,70,9,83,74,17,-18,-1
84,80,44,-82,26,70,9,83,74,17,-18,-1
84,80,43,-82,27,70,9,83,74,17,-18,-1
85,80,42,-83,29,70,9,83,73,17,-18,-1
86,80,41,-83,30,69,9,83,72,17,-18,-1
88,80,40,-84,32,69,9,83,71,17,-18,-1
88,80,40,-84,33,69,9,83,70,17,-18,-1
89,81,40,-85,32,69,9,83,70,17,-18,-1
89,81,41,-85,32,70,9,83,70,17,-18,-1
89,82,42,-86,31,71,9,83,70,17,-18,-1
90,83,44,-87,30,73,10,83,71,17,-17,-0
91,85,45,-88,30,74,12,83,72,18,-17,1
92,86,46,-89,30,76,14,83,74,19,-16,2
93,88,47,-91,30,77,17,83,77,19,-15,3
94,89,49,-92,30,79,19,84,78,20,-14,4
94,90,50,-93,29,80,21,85,79,20,-14,5
94,91,51,-93,28,81,23,87,79,20,-14,6
94,92,52,-94,27,82,24,88,79,20,-14,7
94,93,54,-95,26,83,25,90,79,21,-14,8
94,94,55,-95,25,84,27,92,80,21,-13,8
94,94,56,-96,24,85,28,94,81,22,-12,8
94,95,58,-96,23,86,29,95,82,23,-11,8
95,96,58,-97,23,87,30,96,84,24,-11,9
96,97,59,-98,24,88,30,97,85,24,-10,10
97,98,59,-99,24,89,31,97,86,25,-9,11
98,99,59,-100,25,89,31,97,87,26,-8,12
99,99,59,-100,26,89,29,97,88,26,-7,13
100,99,59,-101,26,89,25,97,88,27,-7,13
100,99,59,-101,26,90,20,97,88,27,-7,13
100,99,59,-101,26,90,14,97,88,27,-7,13
100,99,58,-101,27,89,8,96,88,27,-7,14
101,99,57,-101,29,89,1,93,87,27,-7,14
102,99,56,-102,30,89,-7,90,86,27,-7,15
104,99,55,-102,32,88,-15,87,85,27,-7,17
105,99,54,-103,34,88,-22,84,83,26,-7,18
107,99,52,-103,36,87,-27,82,81,26,-7,19
108,99,51,-104,38,86,-31,80,79,25,-7,20
109,99,50,-104,39,86,-36,78,77,24,-7,21
110,99,49,-105,41,86,-38,77,75,24,-7,22
110,99,49,-105,41,85,-39,75,74,24,-7,22
111,99,49,-105,41,85,-39,73,72,24,-7,22
111,99,49,-105,41,85,-40,72,71,24,-7,22
111,99,48,-105,42,85,-39,70,70,23,-7,22
111,98,47,-104,42,84,-38,68,69,23,-7,21
111,98,46,-104,43,83,-37,67,68,22,-7,20
111,97,45,-103,44,82,-36,65,66,21,-7,19
110,96,44,-102,44,81,-34,64,66,20,-8,18
108,94,44,-101,43,80,-31,63,66,19,-9,17
105,93,44,-99,41,79,-29,63,65,19,-11,15
102,91,44,-97,39,78,-26,63,65,18,-12,14
99,89,44,-94,37,77,-24,62,65,17,-14,12
95,87,44,-91,35,75,-22,61,64,15,-16,8
92,85,44,-88,32,74,-21,60,63,14,-18,4
88,82,44,-85,29,72,-19,58,62,12,-19,-1
84,80,43,-83,27,70,-18,56,60,10,-21,-5
83,78,42,-81,26,69,-17,55,58,8,-23,-7
81,76,41,-79,26,67,-15,53,56,5,-25,-10
80,75,40,-78,26,65,-14,51,54,3,-26,-12
78,73,39,-76,26,64,-13,50,52,1,-28,-14
77,72,39,-75,25,63,-13,50,52,0,-29,-14
76,71,39,-74,24,63,-13,50,52,-1,-30,-15
74,71,39,-73,23,62,-13,50,52,-2,-31,-15
73,70,39,-72,23,62,-13,50,52,-2,-31,-15
73,70,39,-72,23,62,-13,50,52,-2,-32,-15
73,70,39,-72,23,62,-13,50,52,-3,-32,-15
73,70,39,-72,23,62,-13,50,52,-3,-32,-15
73,70,39,-72,23,62,-13,50,52,-3,-32,-15
73,70,39,-72,23,62,-13,50,52,-3,-32,-15
73,70,39,-72,23,62,-13,50,52,-3,-32,-15
73,70,39,-72,23,62,-13,50,52,-3,-32,-15
73,70,39,-72,23,62,-13,50,52,-3,-32,-15
73,70,39,-72,23,62,-13,50,52,-3,-32,-15
73,70,39,-72,23,62,-13,50,52,-3,-32,-15
73,70,39,-72,23,62,-13,50,52,-3,-32,-15
72,69,38,-71,22,61,-13,49,51,-3,-31,-15
72,68,38,-70,23,60,-13,48,51,-3,-31,-16
72,68,38,-70,22,60,-13,48,50,-3,-31,-16
72,68,37,-70,23,60,-13,48,50,-3,-31,-16
72,68,37,-70,23,60,-13,48,50,-3,-31,-16
72,68,37,-70,23,60,-13,48,50,-3,-31,-16
72,68,37,-70,23,60,-13,48,50,-3,-31,-16
71,67,36,-69,23,59,-13,49,49,-4,-31,-17
70,65,34,-68,24,56,-13,51,48,-5,-32,-18
70,64,33,-67,25,56,-13,51,47,-6,-32,-18
70,64,33,-67,25,56,-13,51,47,-6,-32,-18
70,65,34,-67,24,56,-12,52,48,-5,-31,-18
67,64,36,-66,21,57,-12,52,48,-5,-31,-18
65,63,36,-64,19,56,-13,51,47,-6,-32,-20
66,62,34,-64,21,55,-14,50,46,-6,-33,-20
68,63,34,-66,23,55,-14,49,46,-6,-34,-20
68,64,34,-66,23,56,-13,48,46,-6,-35,-20
69,64,34,-67,23,56,-12,49,46,-6,-35,-20
72,66,34,-69,25,57,-10,50,47,-5,-33,-18
72,66,33,-69,26,57,-8,51,48,-5,-33,-18
70,64,33,-67,25,56,-8,51,48,-5,-33,-18
69,63,32,-67,25,55,-8,49,47,-5,-33,-19
69,63,32,-66,24,55,-8,47,47,-5,-33,-21
67,62,32,-65,23,54,-8,45,46,-6,-33,-23
67,62,33,-65,23,54,-8,44,46,-6,-33,-23
68,63,33,-66,23,55,-7,43,46,-6,-33,-24
68,64,35,-66,21,56,-7,44,47,-5,-33,-25
71,66,35,-69,24,58,-6,46,49,-5,-32,-23
71,66,34,-69,25,57,-6,46,48,-5,-33,-23
69,65,34,-67,23,57,-7,45,47,-5,-33,-22
70,65,35,-68,23,57,-7,45,47,-5,-33,-21
70,66,36,-69,23,58,-7,45,47,-5,-33,-20
69,67,38,-68,20,59,-8,45,47,-5,-33,-20
68,66,39,-68,19,60,-8,45,47,-6,-33,-19
67,66,39,-67,18,59,-9,44,47,-7,-33,-20
65,64,38,-65,17,58,-10,42,46,-9,-34,-21
63,63,38,-64,16,57,-11,42,45,-10,-34,-22
66,64,37,-66,18,58,-10,43,45,-10,-34,-22
66,65,38,-66,18,58,-9,43,46,-9,-34,-22
63,64,38,-64,16,58,-9,42,46,-9,-34,-25
66,65,38,-66,18,58,-8,43,47,-9,-33,-25
67,65,37,-66,20,58,-7,42,47,-9,-34,-25
65,64,37,-65,18,57,-8,41,47,-8,-35,-25
66,64,37,-66,19,57,-8,42,47,-8,-36,-24
67,65,37,-66,19,58,-8,43,47,-8,-36,-23
66,66,40,-67,17,60,-8,43,47,-8,-35,-23
64,67,44,-67,12,62,-7,43,47,-8,-36,-24
63,68,45,-67,11,63,-7,44,47,-8,-36,-25
62,67,45,-66,10,63,-6,44,47,-8,-35,-23
60,67,46,-65,8,63,-5,45,47,-8,-35,-23
62,68,46,-67,9,64,-5,46,47,-8,-35,-22
63,68,45,-67,11,63,-5,46,45,-8,-35,-22
61,67,45,-65,10,62,-5,45,44,-8,-34,-22
64,68,44,-67,12,62,-6,45,44,-9,-34,-23
63,67,43,-66,12,62,-6,44,43,-10,-34,-25
60,65,44,-64,9,61,-6,44,43,-11,-34,-26
61,67,46,-66,9,63,-5,45,44,-11,-34,-26
62,68,47,-67,9,64,-5,46,44,-11,-34,-26
62,68,46,-67,9,64,-5,46,45,-11,-33,-26
60,67,46,-65,8,63,-4,45,44,-11,-34,-27
60,67,47,-65,7,63,-3,45,44,-12,-34,-27
62,70,49,-68,7,66,-3,46,45,-11,-34,-26
59,70,51,-67,4,67,-4,45,45,-10,-35,-25
59,70,51,-67,3,67,-5,45,45,-10,-36,-24
61,71,52,-68,4,68,-5,46,46,-10,-35,-24
59,68,49,-66,5,65,-6,45,45,-10,-36,-25
60,66,46,-65,8,63,-6,45,45,-10,-36,-25
61,66,45,-65,9,62,-5,45,45,-10,-36,-25
60,66,45,-64,9,62,-3,46,45,-10,-35,-25
59,66,45,-64,8,62,-2,47,46,-9,-33,-25
60,66,45,-65,9,62,-0,48,46,-9,-32,-23
62,68,46,-66,9,63,1,48,46,-9,-31,-23
58,65,46,-63,6,62,2,47,45,-10,-31,-23
54,64,48,-61,3,62,4,47,45,-10,-32,-24
57,67,50,-64,3,65,7,48,45,-9,-31,-24
59,69,50,-66,4,66,9,50,45,-9,-30,-24
59,69,50,-66,4,66,10,50,44,-9,-31,-25
57,69,52,-65,2,66,6,50,44,-8,-31,-25
56,70,54,-65,-1,68,2,50,44,-8,-31,-25
56,71,56,-66,-2,70,-1,50,44,-7,-31,-24
57,72,57,-67,-2,71,-4,49,43,-7,-31,-25
57,72,57,-67,-2,71,-5,48,43,-7,-32,-25
57,71,55,-67,-1,69,-5,48,42,-8,-32,-25
59,70,52,-67,3,68,-5,48,42,-8,-32,-26
60,70,51,-67,5,67,-5,48,42,-8,-32,-26
62,71,50,-68,6,67,-5,49,42,-8,-31,-25
65,72,50,-70,8,68,-4,49,43,-7,-31,-25
64,71,49,-69,9,67,-7,48,42,-8,-32,-25
62,69,48,-67,8,65,-10,48,41,-8,-32,-26
60,68,48,-66,6,65,-10,48,40,-8,-32,-27
60,68,48,-66,7,64,-10,49,40,-8,-32,-27
61,68,47,-66,8,64,-10,50,39,-8,-32,-28
66,72,49,-70,10,68,-8,53,41,-7,-30,-27
67,74,51,-72,9,70,-5,55,42,-6,-29,-27
62,73,53,-70,5,70,-6,54,43,-6,-30,-27
61,73,54,-69,3,70,-5,53,44,-5,-31,-28
64,74,54,-71,5,71,-5,53,45,-5,-30,-26
65,75,54,-72,6,72,-4,53,46,-5,-29,-25
65,75,54,-72,6,72,-4,54,46,-4,-28,-24
65,75,55,-72,5,72,-3,54,46,-3,-27,-23
65,75,55,-72,5,72,-4,54,45,-3,-27,-22
63,74,54,-71,5,71,-7,53,45,-3,-27,-22
62,73,54,-70,4,70,-8,53,44,-3,-27,-22
61,72,53,-69,3,69,-10,52,43,-4,-28,-23
61,71,53,-68,3,69,-11,50,43,-4,-29,-24
60,71,53,-67,3,68,-12,50,42,-4,-29,-25
60,71,53,-68,3,69,-11,51,43,-4,-28,-24
61,72,54,-68,3,69,-10,51,43,-4,-28,-23
60,72,54,-68,2,69,-11,51,44,-4,-27,-23
56,70,54,-65,-0,68,-13,51,43,-5,-28,-23
54,68,53,-63,-2,67,-14,50,42,-5,-29,-24
55,68,53,-63,-1,66,-15,50,42,-5,-28,-24
55,68,52,-64,-0,66,-17,50,43,-4,-28,-23
54,67,52,-63,-1,66,-18,48,42,-5,-28,-23
56,68,52,-65,1,66,-18,48,42,-5,-29,-22
59,70,51,-67,4,67,-16,50,44,-5,-28,-22
60,70,51,-67,5,67,-15,51,45,-4,-27,-22
60,70,50,-67,5,66,-15,51,44,-4,-27,-22
60,68,48,-66,6,65,-15,51,43,-5,-27,-24
61,68,46,-66,9,63,-13,51,43,-5,-27,-24
59,67,48,-65,6,64,-12,51,42,-5,-27,-23
53,67,54,-62,-3,66,-13,51,42,-5,-28,-23
57,67,50,-64,3,65,-18,53,40,-4,-30,-25
57,67,50,-64,3,65,-18,53,40,-4,-30,-25
57,67,50,-64,3,65,-18,53,40,-4,-30,-25
57,67,50,-64,3,65,-18,53,40,-4,-30,-25
57,67,50,-64,3,65,-18,53,40,-4,-30,-25
57,67,50,-64,3,65,-18,53,40,-4,-30,-25
57,67,50,-64,3,65,-18,53,40,-4,-30,-25
57,67,50,-64,3,65,-18,53,40,-4,-30,-25
35,61,61,-52,-21,66,-10,58,42,-7,-33,-29
72,79,54,-77,10,74,1,72,45,-8,-35,-24
46,61,51,-56,-6,62,-10,65,37,-18,-52,-42
76,71,39,-74,24,63,2,78,49,-20,-56,-39
43,46,30,-45,8,42,-15,67,29,-41,-80,-64
38,39,25,-39,8,36,-10,67,31,-47,-91,-68
42,40,22,-41,13,35,-2,72,31,-54,-99,-72
43,37,16,-40,19,31,5,77,31,-62,-109,-80
46,33,7,-38,27,24,4,77,25,-77,-124,-91
41,28,5,-33,25,20,4,73,20,-89,-133,-101
57,31,-6,-41,44,18,8,77,18,-90,-142,-108
50,20,-16,-32,47,6,12,80,18,-99,-146,-112
50,17,-21,-30,51,2,13,83,17,-101,-152,-119
47,12,-26,-25,53,-3,18,87,17,-107,-162,-127
53,16,-24,-30,55,0,24,92,17,-103,-163,-129
57,16,-28,-32,61,-2,28,95,17,-107,-170,-135
46,7,-32,-22,56,-9,29,95,15,-115,-181,-146
47,-4,-50,-16,71,-23,29,94,11,-125,-186,-150
45,2,-38,-18,60,-15,32,94,7,-135,-193,-156
65,13,-41,-33,76,-9,33,107,0,-139,-196,-164
29,-17,-52,-0,59,-33,29,87,-10,-162,-210,-176
34,-19,-61,-1,69,-38,33,87,-16,-171,-216,-182
39,-17,-62,-4,74,-37,33,88,-24,-178,-222,-183
45,-17,-67,-6,82,-39,38,92,-28,-185,-225,-184
18,-32,-66,14,62,-49,38,85,-39,-194,-230,-194
24,-31,-70,10,69,-50,47,77,-50,-199,-237,-200
26,-31,-71,10,71,-50,52,70,-53,-204,-241,-196
31,-31,-76,8,79,-52,52,68,-64,-210,-244,-203
31,-31,-76,8,79,-52,61,58,-71,-219,-252,-211
35,-31,-80,6,84,-54,66,50,-80,-227,-259,-218
-1,-55,-83,35,61,-71,65,28,-104,-250,-274,-233
-8,-64,-90,43,62,-80,66,16,-115,-262,-284,-250
-10,-71,-99,49,67,-88,72,4,-129,-273,-294,-259
15,-62,-109,34,92,-87,82,-3,-129,-273,-296,-259
-23,-97,-127,70,79,-117,69,-33,-160,-297,-313,-279
-6,-96,-141,63,101,-122,77,-53,-177,-307,-320,-282
-6,-92,-134,61,96,-117,78,-69,-189,-314,-324,-287
-37,-113,-138,86,77,-132,73,-94,-206,-324,-332,-292
-12,-107,-152,72,105,-134,78,-102,-212,-325,-332,-292
-9,-110,-160,73,113,-139,79,-103,-213,-325,-331,-293
-6,-113,-167,73,120,-144,79,-104,-215,-323,-329,-293
-4,-115,-172,74,126,-148,80,-106,-215,-321,-326,-294
-2,-117,-177,74,131,-151,83,-101,-214,-317,-323,-295
-0,-120,-184,76,137,-157,88,-94,-215,-315,-321,-296
1,-124,-191,78,143,-162,94,-88,-220,-313,-320,-300
1,-128,-197,80,148,-167,100,-89,-228,-314,-319,-303
-0,-133,-203,84,151,-172,105,-97,-239,-315,-320,-308
-6,-139,-207,90,151,-179,110,-110,-252,-318,-323,-313
-14,-147,-212,98,148,-186,113,-124,-263,-323,-327,-319
-21,-152,-213,104,144,-190,116,-136,-272,-326,-331,-323
-27,-155,-212,108,139,-191,117,-148,-278,-327,-331,-323
-34,-160,-212,114,134,-194,114,-159,-282,-324,-328,-321
-36,-160,-212,115,133,-194,107,-168,-283,-315,-319,-314
-28,-153,-207,107,136,-187,98,-171,-278,-301,-304,-301
-16,-141,-201,95,139,-177,87,-172,-269,-284,-286,-283
-8,-130,-192,85,138,-166,72,-174,-259,-266,-268,-265
-3,-120,-180,77,132,-154,53,-177,-245,-249,-251,-246
-1,-108,-165,69,122,-140,36,-177,-230,-230,-233,-228
3,-94,-146,58,111,-123,23,-173,-212,-210,-214,-207
8,-76,-123,45,98,-102,16,-164,-191,-189,-193,-185
9,-59,-98,34,79,-80,15,-152,-169,-167,-173,-164
8,-43,-73,24,60,-59,15,-140,-149,-146,-153,-144
8,-29,-51,15,44,-40,16,-129,-130,-126,-133,-125
13,-15,-34,5,35,-24,13,-119,-113,-107,-115,-107
18,-5,-24,-4,30,-13,4,-109,-98,-90,-98,-91
28,6,-17,-14,32,-3,-5,-95,-82,-74,-83,-76
42,18,-12,-27,39,6,-14,-76,-66,-59,-69,-62
51,26,-9,-36,42,13,-24,-58,-51,-47,-58,-51
60,34,-4,-44,45,21,-30,-38,-36,-36,-48,-41
66,43,3,-52,44,29,-32,-19,-22,-25,-40,-33
67,47,10,-55,40,35,-35,-5,-11,-17,-34,-27
65,51,17,-57,33,41,-36,6,-2,-10,-28,-22
70,59,24,-64,31,48,-34,18,6,-3,-21,-15
74,65,30,-69,30,55,-33,28,14,4,-15,-8
73,69,37,-71,24,60,-34,36,19,8,-10,-3
72,71,42,-72,20,64,-36,41,24,12,-6,0
71,73,45,-73,16,67,-38,44,28,15,-2,3
72,75,48,-75,14,70,-42,46,31,17,0,6
73,78,52,-77,12,73,-45,48,34,20,2,8
74,81,55,-80,11,76,-48,50,38,23,5,11
76,84,58,-82,10,80,-49,49,40,25,7,13
75,85,61,-82,7,81,-51,47,41,26,7,14
73,84,61,-81,6,81,-52,45,41,26,8,14
76,86,61,-83,8,82,-52,45,42,27,9,16
79,88,61,-86,10,83,-52,46,42,28,11,17
78,88,61,-85,9,83,-54,47,42,29,11,18
74,86,62,-82,6,82,-55,48,42,29,11,18
71,84,62,-80,3,81,-56,49,43,29,12,18
68,83,64,-79,0,82,-55,50,44,29,12,18
68,85,66,-79,-2,83,-54,51,46,30,13,18
71,87,66,-82,1,85,-53,52,48,31,14,20
74,88,65,-84,3,85,-52,53,48,33,15,21
75,88,65,-84,4,85,-52,53,48,34,15,21
76,89,66,-86,5,86,-52,54,47,35,16,20
78,91,66,-87,5,87,-53,55,45,37,17,20
77,91,67,-87,5,87,-54,55,44,37,17,19
75,90,67,-85,3,87,-57,55,44,37,17,18
75,89,67,-85,3,87,-59,55,44,38,17,18
76,91,67,-86,3,88,-60,56,45,38,18,19
77,91,68,-87,4,88,-60,56,45,38,18,20
79,93,69,-89,4,90,-61,56,46,38,19,21
77,93,69,-88,3,90,-62,56,45,38,19,21
76,91,69,-87,2,89,-63,55,45,38,20,22
76,90,67,-86,4,87,-64,54,43,38,20,22
76,89,65,-85,5,86,-65,54,42,38,20,22
76,89,65,-85,5,85,-64,57,43,40,21,22
74,88,65,-84,3,85,-64,59,43,41,20,22
75,88,66,-84,3,85,-64,61,42,41,20,23
77,90,66,-87,5,87,-63,62,43,42,21,25
79,92,67,-88,5,88,-62,64,44,42,22,27
78,92,68,-88,4,89,-63,64,45,42,23,28
77,92,68,-87,3,89,-63,63,44,42,23,29
74,90,69,-85,1,88,-64,62,43,43,23,28
76,92,70,-87,1,90,-64,62,43,44,24,30
78,94,72,-89,1,92,-63,63,44,45,26,31
75,93,72,-87,-1,91,-63,63,44,46,27,30
75,92,72,-87,-1,91,-64,63,44,47,27,30
76,93,71,-88,0,91,-64,63,45,48,27,30
73,91,71,-85,-2,89,-67,62,44,49,27,30
70,89,71,-83,-4,89,-69,62,43,50,26,30
74,92,71,-86,-1,90,-69,63,44,50,27,31
76,93,71,-88,0,91,-69,63,45,50,28,32
76,93,71,-87,0,91,-70,63,45,50,28,32
77,94,71,-88,1,91,-71,63,45,51,29,33
77,94,72,-89,1,92,-71,63,44,50,30,34
77,94,72,-89,0,92,-72,63,44,50,31,35
79,96,73,-90,1,93,-72,63,44,51,32,37
83,99,74,-94,3,96,-72,63,45,52,34,39
84,100,75,-95,3,97,-73,62,45,52,35,39
81,99,76,-94,1,97,-74,62,43,52,35,40
81,99,76,-94,0,97,-76,63,42,53,35,41
80,99,77,-93,-1,97,-77,62,42,54,36,42
79,99,78,-93,-3,98,-77,62,41,54,36,42
80,101,79,-94,-3,99,-77,62,42,54,37,43
85,103,78,-98,2,101,-77,63,43,56,39,45
86,104,78,-98,3,101,-78,62,43,56,39,46
85,103,77,-97,2,100,-80,62,43,57,39,47
87,103,77,-98,3,100,-81,61,43,58,39,48
88,105,79,-100,3,102,-81,62,44,60,41,50
89,107,81,-101,2,104,-81,63,45,61,42,52
89,107,80,-101,3,104,-82,61,45,61,42,52
88,106,81,-101,2,103,-84,60,44,62,43,53
88,106,80,-101,3,103,-84,61,45,63,44,54
88,105,79,-100,3,102,-85,61,46,63,45,56
88,106,80,-100,2,103,-86,61,46,63,46,56
90,109,82,-103,2,106,-87,62,46,63,47,57
92,110,83,-105,3,107,-87,63,47,63,48,58
93,111,83,-106,3,107,-89,62,47,63,49,60
95,113,85,-108,4,110,-90,62,47,64,51,61
92,113,87,-107,-0,111,-92,63,47,65,52,61
90,113,89,-105,-3,111,-95,63,46,66,53,61
91,113,88,-106,-2,111,-98,62,46,67,54,62
88,112,90,-104,-6,111,-101,59,46,67,55,63
87,113,92,-105,-8,113,-103,57,46,68,56,65
88,116,95,-106,-9,115,-103,55,46,69,57,67
87,117,98,-107,-12,118,-105,53,47,70,58,68
87,119,100,-108,-13,120,-107,52,47,70,60,70
90,121,101,-110,-12,122,-109,52,47,71,61,72
91,122,102,-112,-12,123,-111,51,48,72,62,74
93,124,104,-114,-12,125,-112,52,49,73,63,76
95,126,105,-116,-12,127,-112,53,50,74,65,79
93,127,108,-116,-15,128,-114,54,50,75,66,80
93,128,110,-117,-16,130,-115,55,51,76,67,82
96,131,111,-119,-15,132,-116,56,51,77,69,85
101,134,111,-123,-12,134,-119,56,52,78,70,88
103,136,111,-125,-10,135,-122,54,53,79,70,90
100,134,112,-123,-13,135,-127,51,51,79,70,91
100,135,114,-123,-15,136,-129,49,51,79,70,92
102,138,115,-126,-14,139,-131,48,51,80,71,94
108,142,116,-131,-11,142,-133,49,53,81,72,97
112,145,118,-134,-9,144,-135,49,53,82,74,100
107,143,118,-131,-13,143,-140,44,51,81,73,100
109,143,118,-132,-11,143,-143,42,50,81,74,101
113,146,118,-135,-9,145,-144,43,51,82,76,103
115,147,118,-136,-7,145,-145,42,50,82,76,105
119,149,118,-140,-5,147,-146,41,50,82,77,107
121,152,119,-142,-3,149,-148,41,49,83,77,108
121,152,120,-142,-4,150,-152,39,47,82,77,109
118,151,121,-140,-7,150,-154,36,45,81,77,109
117,151,122,-140,-9,150,-155,35,45,81,77,109
119,153,123,-142,-8,152,-155,35,45,82,78,111
123,156,123,-145,-5,154,-155,34,46,82,78,113
125,158,124,-147,-5,156,-156,34,46,82,78,114
124,158,126,-147,-7,156,-158,32,45,81,78,114
123,157,126,-146,-8,156,-161,31,45,80,77,114
119,155,127,-143,-11,155,-164,29,43,78,76,113
119,156,128,-144,-12,156,-166,29,43,78,76,114
122,158,128,-146,-10,158,-166,29,43,78,75,114
120,158,129,-146,-12,158,-168,27,42,77,74,112
120,158,129,-146,-12,158,-169,26,40,76,73,111
120,157,129,-145,-12,157,-169,26,38,75,72,111
120,156,127,-144,-11,156,-169,27,37,74,71,109
122,156,124,-145,-7,154,-168,27,36,73,71,108
125,156,121,-146,-3,153,-168,28,36,72,70,107
129,155,117,-147,3,151,-167,29,36,71,70,106
132,156,115,-149,6,150,-167,30,36,70,69,104
130,155,116,-147,5,150,-166,32,37,69,68,102
121,151,118,-141,-3,148,-165,32,36,67,66,98
115,149,120,-138,-9,148,-164,34,36,67,64,95
114,148,121,-137,-10,148,-163,36,37,66,63,93
109,145,120,-133,-13,146,-162,37,36,64,60,89
108,144,120,-132,-14,145,-159,40,36,63,58,87
108,145,121,-133,-14,145,-155,43,37,62,57,84
106,143,119,-131,-14,144,-152,46,37,60,54,80
107,142,117,-130,-12,142,-147,51,39,60,53,78
107,140,114,-129,-10,140,-142,57,41,59,52,76
101,136,114,-124,-14,137,-138,60,42,58,50,73
98,133,112,-122,-15,134,-134,65,43,57,48,69
99,133,111,-121,-13,133,-129,70,45,56,46,66
98,131,109,-120,-12,131,-125,74,46,55,44,64
96,127,105,-117,-11,127,-122,77,46,54,41,60
91,123,102,-112,-12,123,-119,79,45,51,39,55
87,119,100,-108,-14,120,-116,81,43,50,36,51
88,118,97,-108,-10,118,-111,84,43,48,35,47
93,118,93,-109,-4,116,-105,88,44,47,35,45
90,114,90,-106,-4,112,-101,90,43,45,33,40
84,109,88,-101,-6,108,-97,94,43,43,30,37
80,106,87,-97,-8,106,-94,98,42,42,29,33
79,103,85,-95,-8,103,-91,102,42,40,27,30
78,102,83,-94,-7,101,-87,106,42,39,25,28
78,100,80,-93,-5,99,-82,108,42,38,24,27
79,99,78,-93,-2,98,-78,108,42,38,23,26
78,97,76,-91,-2,96,-74,109,42,38,22,25
76,96,75,-90,-3,94,-70,110,41,37,21,23
78,97,76,-91,-2,95,-66,113,41,37,20,22
75,97,78,-90,-5,96,-63,115,41,36,19,20
72,96,80,-88,-9,96,-61,116,41,35,18,18
71,95,80,-87,-10,96,-60,117,41,35,18,17
70,95,80,-87,-10,96,-60,117,41,35,17,17
70,95,80,-87,-11,96,-60,117,41,35,17,17
70,95,80,-87,-11,96,-60,117,41,35,17,17
70,95,80,-87,-11,96,-60,117,41,35,17,17
70,93,78,-85,-9,94,-55,120,42,36,19,17
69,91,74,-84,-7,91,-48,123,42,37,21,18
69,90,73,-83,-6,90,-46,124,42,37,21,19
69,90,73,-83,-6,89,-45,124,42,38,22,19
69,89,72,-83,-5,89,-47,124,42,38,22,19
70,89,71,-83,-3,88,-51,124,42,38,23,20
72,89,70,-84,-2,88,-56,124,42,39,24,21
72,89,69,-84,-0,87,-61,123,42,40,24,22
73,88,68,-84,1,86,-67,120,40,40,25,24
73,88,66,-83,2,85,-72,117,38,40,26,25
73,87,65,-83,3,84,-78,114,36,40,27,26
74,87,64,-83,5,83,-81,111,34,40,28,27
76,86,61,-83,8,82,-83,109,32,40,28,27
78,86,59,-84,11,81,-83,107,31,40,28,27
81,86,56,-85,15,80,-83,105,30,40,28,27
83,86,55,-86,18,79,-83,104,29,40,28,28
83,86,54,-86,18,79,-83,104,28,40,29,29
84,86,54,-86,19,79,-83,104,26,40,30,29
84,86,54,-86,19,79,-83,104,25,40,31,31
83,86,54,-86,18,79,-82,103,24,40,31,31
82,85,54,-85,18,78,-80,102,23,40,31,32
81,85,54,-84,17,78,-78,100,22,40,32,32
80,84,54,-83,16,77,-75,99,21,40,32,32
78,83,54,-82,14,77,-72,98,20,40,31,31
75,82,55,-80,12,77,-70,97,20,39,30,30
73,81,56,-79,9,77,-67,97,20,38,30,29
70,80,58,-78,6,77,-64,97,20,38,29,28
68,79,58,-76,4,76,-61,97,19,37,28,27
65,78,59,-74,2,76,-59,97,18,36,26,25
62,76,59,-72,0,75,-56,97,17,35,24,22
59,75,59,-70,-2,74,-53,97,16,34,23,20
57,73,58,-67,-3,72,-51,96,15,33,21,18
54,70,56,-64,-4,69,-51,95,14,32,19,15
51,66,54,-61,-4,66,-51,94,13,30,17,13
49,63,51,-58,-4,63,-51,92,12,28,16,11
47,61,50,-56,-4,61,-51,91,11,27,14,9
46,60,49,-56,-4,60,-51,90,9,27,14,7
46,60,49,-55,-4,60,-51,90,8,27,14,6
46,60,49,-55,-4,60,-51,90,7,27,14,5
46,60,49,-55,-4,60,-50,90,6,27,14,4
46,60,49,-55,-4,60,-49,90,6,27,14,4
46,60,49,-55,-4,60,-48,90,6,27,14,4
46,60,49,-55,-4,60,-46,90,6,27,14,4
46,60,49,-55,-4,60,-46,90,6,27,14,4
46,60,49,-55,-4,60,-45,90,6,27,14,4
46,60,49,-55,-4,60,-45,90,6,27,14,4
46,60,49,-55,-4,60,-45,90,6,27,14,4
45,59,48,-55,-4,59,-46,89,6,27,14,4
44,58,47,-53,-4,58,-47,88,5,27,14,3
43,57,46,-52,-4,56,-48,87,4,27,14,2
42,55,45,-51,-4,55,-49,85,3,27,14,0
41,54,44,-50,-4,54,-50,84,2,26,14,-0
41,53,44,-49,-4,53,-50,84,0,26,13,-0
41,53,44,-49,-4,53,-51,83,-1,25,12,-1
41,53,44,-49,-4,53,-51,83,-2,24,11,-1
41,53,43,-49,-3,53,-50,83,-3,24,11,-1
42,53,42,-50,-2,53,-49,83,-3,24,11,-2
43,53,41,-50,0,52,-48,83,-3,24,10,-3
45,53,40,-51,2,51,-46,83,-3,24,10,-4
45,53,39,-51,3,51,-46,83,-3,24,10,-5
46,53,39,-51,3,51,-45,83,-3,24,10,-5
46,53,39,-51,4,51,-45,83,-3,24,10,-5
46,53,39,-51,4,51,-45,83,-3,24,10,-5
46,53,39,-51,4,51,-45,83,-3,23,10,-5
46,53,39,-51,4,51,-45,83,-3,23,9,-5
46,53,39,-51,4,51,-45,83,-3,22,9,-5
46,53,39,-51,4,51,-45,83,-3,21,8,-5
45,53,38,-51,3,51,-45,83,-3,20,7,-6
44,51,37,-49,3,49,-45,83,-4,19,7,-7
43,50,36,-48,4,48,-45,83,-5,19,7,-8
42,48,35,-46,4,46,-45,83,-6,18,7,-9
41,47,34,-45,4,45,-45,83,-8,17,7,-10
41,47,34,-45,4,45,-45,81,-9,17,6,-10
41,47,34,-45,4,45,-45,80,-10,17,5,-10
41,47,34,-45,4,45,-45,78,-11,17,4,-10
41,47,34,-45,4,45,-45,77,-12,17,3,-10
41,47,34,-45,4,45,-44,77,-12,16,3,-10
41,47,34,-45,4,45,-42,77,-12,15,2,-10
41,47,34,-45,4,45,-41,77,-12,14,1,-10
40,47,34,-45,3,45,-40,77,-12,14,0,-11
39,47,35,-44,2,45,-40,77,-12,14,-1,-11
38,47,36,-44,0,46,-40,77,-12,14,-2,-12
37,47,37,-43,-2,46,-40,77,-12,14,-3,-14
36,47,38,-43,-3,47,-40,77,-12,14,-3,-14
36,47,38,-43,-3,47,-40,77,-12,14,-3,-14
35,47,39,-43,-4,47,-40,77,-12,14,-4,-15
35,47,39,-43,-4,47,-40,77,-12,14,-4,-15
35,47,39,-43,-4,47,-39,77,-12,14,-3,-15
35,47,39,-43,-4,47,-38,77,-12,14,-2,-15
35,47,39,-43,-4,47,-37,77,-12,14,-2,-15
35,47,39,-43,-4,47,-36,77,-12,14,-1,-15
35,47,39,-43,-4,47,-35,77,-12,14,-0,-15
35,47,39,-43,-4,47,-35,77,-12,14,-0,-15
35,47,39,-43,-4,47,-34,77,-12,14,0,-15
35,47,39,-43,-4,47,-34,77,-12,14,0,-15
35,46,39,-42,-4,47,-34,77,-13,14,-0,-15
34,46,39,-41,-5,46,-34,77,-13,14,-1,-15
33,45,39,-41,-6,46,-34,77,-14,14,-2,-15
31,44,39,-40,-7,45,-34,77,-16,14,-3,-15
30,44,39,-39,-7,45,-34,77,-16,14,-3,-15
30,44,39,-39,-8,45,-34,77,-16,14,-3,-15
30,43,39,-39,-8,45,-34,77,-17,14,-4,-15
30,43,39,-39,-8,45,-34,77,-17,14,-4,-15
30,43,38,-39,-7,44,-34,76,-17,14,-4,-15
31,43,37,-39,-5,44,-34,75,-17,14,-4,-15
33,43,36,-40,-4,44,-34,73,-17,14,-4,-15
34,43,35,-40,-2,43,-34,72,-17,14,-4,-15
35,43,34,-40,-1,43,-34,71,-17,14,-3,-15
35,43,34,-41,-0,42,-34,70,-17,14,-2,-15
35,43,34,-41,0,42,-34,70,-17,14,-2,-15
35,43,34,-41,0,42,-34,70,-17,14,-1,-15
35,43,34,-40,-1,43,-34,70,-17,14,0,-15
34,43,35,-40,-2,43,-34,70,-17,14,1,-15
33,43,36,-40,-4,44,-34,70,-17,14,2,-15
31,43,37,-39,-6,44,-34,70,-17,14,3,-15
30,43,38,-39,-7,44,-34,71,-17,14,3,-14
30,43,38,-39,-7,44,-33,72,-17,14,3,-13
30,43,39,-39,-8,45,-32,73,-17,14,3,-12
30,43,39,-39,-8,45,-30,75,-17,14,3,-11
30,43,39,-39,-8,45,-29,76,-17,14,4,-11
30,43,39,-39,-8,45,-29,76,-17,15,4,-10
30,43,39,-39,-8,45,-29,77,-17,15,5,-10
30,43,39,-39,-8,45,-29,77,-17,16,6,-10
30,43,39,-39,-8,45,-29,77,-17,17,7,-10
30,43,39,-39,-8,45,-29,77,-17,17,7,-10
30,43,39,-39,-8,45,-29,77,-17,17,7,-10
30,43,39,-39,-8,45,-29,77,-17,17,7,-10
30,43,39,-39,-8,45,-29,76,-17,17,7,-10
30,43,39,-39,-8,45,-29,75,-17,17,7,-10
30,43,39,-39,-8,45,-29,73,-17,17,7,-10
30,43,39,-39,-8,45,-29,72,-17,17,7,-10
30,43,39,-39,-8,45,-29,71,-17,17,7,-10
30,43,39,-39,-8,45,-29,70,-17,17,7,-10
30,43,39,-39,-8,45,-29,70,-17,17,7,-10
30,43,39,-39,-8,45,-29,70,-17,17,7,-10
30,43,38,-38,-7,44,-29,70,-17,17,7,-11
30,42,37,-38,-6,43,-29,70,-17,17,7,-11
30,42,36,-38,-6,42,-29,70,-17,17,7,-12
30,41,35,-37,-5,41,-29,70,-17,17,7,-14
30,40,34,-37,-4,41,-29,70,-17,17,7,-14
30,40,34,-37,-4,41,-29,70,-17,17,7,-14
30,40,34,-36,-4,40,-29,70,-17,17,7,-15
30,40,34,-36,-4,40,-29,70,-17,17,7,-15
30,40,34,-36,-4,40,-29,70,-17,17,7,-15
30,40,34,-36,-4,40,-29,70,-17,17,7,-15
30,40,33,-37,-3,40,-29,71,-17,17,7,-13
31,40,33,-37,-2,40,-29,71,-17,16,8,-10
31,40,32,-37,-2,40,-29,72,-17,16,8,-9
31,40,32,-37,-2,40,-29,72,-17,16,9,-9
31,41,34,-38,-3,41,-28,73,-16,17,10,-8
29,41,36,-37,-6,42,-28,73,-16,17,10,-9
28,40,36,-36,-7,41,-29,71,-17,17,10,-10
30,40,34,-37,-5,41,-30,70,-18,17,10,-9
33,42,34,-39,-2,42,-30,70,-18,18,10,-8
34,43,34,-40,-1,42,-30,69,-18,19,10,-7
36,44,34,-42,0,43,-30,69,-17,20,11,-7
39,46,34,-44,3,44,-29,70,-16,21,12,-5
40,46,33,-44,3,44,-29,71,-16,21,13,-4
38,44,33,-42,3,43,-29,72,-16,21,12,-4
37,44,33,-41,2,42,-30,72,-16,21,12,-4
35,43,34,-40,-1,42,-32,71,-17,21,12,-6
32,42,35,-39,-3,42,-33,70,-18,20,12,-8
31,43,37,-39,-5,43,-34,70,-18,20,12,-8
30,43,38,-38,-7,44,-34,69,-18,20,12,-10
30,43,38,-39,-8,44,-34,69,-17,21,13,-10
33,45,38,-41,-5,45,-33,69,-15,22,14,-9
34,43,35,-40,-2,43,-33,68,-16,21,13,-9
31,41,33,-38,-3,41,-35,66,-16,21,12,-9
32,41,32,-38,-1,40,-36,65,-16,22,13,-9
33,41,32,-38,-1,40,-37,65,-16,22,13,-9
31,41,33,-37,-3,40,-39,65,-17,21,13,-10
30,40,34,-37,-4,41,-40,65,-17,21,13,-10
29,40,34,-36,-5,40,-41,64,-17,21,13,-10
27,38,33,-34,-5,38,-42,62,-18,20,12,-10
25,37,33,-33,-6,38,-43,62,-19,20,11,-9
28,38,32,-35,-4,38,-43,63,-18,20,12,-7
30,39,31,-36,-2,38,-42,63,-18,20,12,-6
29,37,31,-34,-3,37,-41,62,-18,20,13,-7
33,39,29,-37,2,37,-40,63,-17,21,16,-6
34,38,27,-37,5,36,-40,62,-17,21,16,-7
33,37,27,-36,3,35,-42,61,-18,21,16,-7
34,38,27,-37,4,36,-44,62,-19,21,16,-6
35,39,27,-38,5,36,-45,63,-20,21,16,-5
35,40,29,-38,3,38,-46,63,-21,21,17,-4
34,41,31,-39,1,40,-45,63,-21,21,17,-5
35,42,31,-39,2,40,-45,64,-21,21,17,-6
34,41,30,-39,2,39,-44,64,-20,21,17,-5
32,40,31,-37,-0,39,-44,65,-20,21,17,-4
34,41,31,-39,1,40,-43,64,-19,22,17,-3
33,40,30,-38,1,39,-43,62,-19,22,16,-3
30,38,30,-35,-0,37,-44,60,-20,22,16,-3
32,38,28,-36,2,36,-44,59,-20,22,16,-4
31,36,27,-34,2,35,-44,57,-21,22,15,-5
28,34,26,-32,0,33,-44,57,-21,21,15,-7
29,35,27,-33,1,34,-44,59,-20,21,15,-7
29,36,28,-34,0,35,-45,59,-20,22,16,-7
28,35,28,-33,-1,35,-46,60,-20,22,16,-8
25,34,29,-31,-4,34,-46,59,-22,21,15,-8
24,34,30,-30,-6,35,-46,58,-24,21,15,-8
26,37,32,-33,-6,38,-46,59,-23,22,16,-7
24,37,33,-32,-8,38,-48,58,-23,23,16,-7
26,37,33,-33,-6,38,-48,59,-23,22,16,-5
28,38,33,-35,-5,39,-48,59,-23,23,17,-5
27,36,30,-33,-3,36,-50,58,-23,23,17,-6
29,35,27,-33,0,34,-50,58,-24,23,17,-5
31,36,26,-34,3,34,-48,59,-24,23,17,-4
31,36,25,-34,3,34,-47,59,-23,23,18,-3
32,36,25,-35,4,34,-47,60,-23,23,18,-1
33,37,25,-36,5,35,-46,61,-22,24,19,-0
35,38,26,-37,5,36,-46,61,-22,24,19,0
31,35,26,-34,3,34,-47,60,-23,23,18,0
27,34,26,-32,0,33,-48,59,-23,23,18,-0
30,36,27,-34,1,35,-48,58,-22,24,19,-1
32,36,26,-35,3,35,-48,58,-21,26,21,-1
32,36,25,-34,4,34,-48,57,-21,26,21,-1
30,35,25,-33,3,33,-50,57,-20,27,21,-2
29,35,27,-33,1,34,-52,56,-20,27,21,-1
30,36,27,-34,1,35,-53,56,-20,26,22,-1
30,36,27,-34,1,35,-54,56,-21,26,21,-1
29,36,28,-33,0,35,-54,55,-21,26,21,-2
29,36,28,-33,0,35,-54,55,-21,26,22,-2
31,36,26,-34,3,34,-54,55,-22,27,23,-2
33,36,25,-35,5,34,-53,55,-22,27,24,-3
35,38,25,-37,6,35,-52,55,-21,28,24,-2
38,39,25,-39,8,36,-50,56,-21,29,25,-1
37,38,23,-38,9,35,-51,55,-21,28,25,-2
34,36,23,-35,7,33,-54,54,-23,27,24,-3
31,34,23,-33,5,32,-54,53,-23,27,23,-4
30,33,22,-32,5,31,-54,53,-24,26,23,-3
30,33,22,-32,5,31,-53,52,-24,26,22,-2
34,36,23,-35,7,33,-51,54,-24,26,23,-0
35,37,24,-37,6,35,-49,55,-23,26,23,1
30,35,25,-33,3,33,-49,54,-23,27,22,1
29,34,25,-32,2,33,-49,53,-23,27,22,0
31,35,24,-34,4,33,-48,53,-23,27,23,1
33,36,24,-35,6,33,-48,53,-22,27,23,1
33,36,24,-35,6,33,-47,54,-22,28,24,2
33,36,24,-35,5,34,-47,54,-22,28,24,2
32,35,24,-35,5,33,-48,54,-23,29,25,2
31,34,24,-34,5,32,-49,53,-24,30,26,2
30,33,23,-32,4,32,-49,53,-24,29,26,1
29,33,23,-32,3,31,-49,52,-25,29,25,0
28,32,22,-31,3,30,-50,50,-26,29,24,-1
27,31,22,-30,3,30,-50,50,-26,28,24,-1
28,32,23,-30,3,30,-49,51,-25,28,24,-1
28,32,23,-31,3,31,-48,51,-25,27,25,0
28,32,23,-31,2,31,-48,51,-25,26,25,0
26,31,23,-29,1,30,-49,51,-25,25,25,0
24,30,23,-28,0,29,-49,50,-26,25,24,-0
26,31,22,-29,2,29,-49,50,-26,25,24,-0
28,31,22,-30,3,30,-50,50,-25,25,25,0
27,32,23,-30,2,30,-51,48,-26,24,24,0
30,34,24,-33,3,32,-51,48,-26,24,24,1
33,37,26,-35,4,35,-49,50,-24,25,25,1
33,39,29,-37,2,37,-48,51,-24,26,26,2
30,39,31,-36,-2,38,-49,51,-24,26,26,1
27,36,30,-33,-3,36,-50,51,-25,25,26,-0
26,34,28,-32,-2,34,-49,51,-26,25,26,-0
26,33,26,-30,-1,32,-49,51,-26,24,26,0
26,31,23,-29,1,30,-51,51,-26,24,24,0
41,38,20,-39,14,33,-51,46,-28,25,26,7
41,38,20,-39,14,33,-51,46,-28,25,26,7
41,38,20,-39,14,33,-51,46,-28,25,26,7
41,38,20,-39,14,33,-51,46,-28,25,26,7
41,38,20,-39,14,33,-51,46,-28,25,26,7
41,38,20,-39,14,33,-51,46,-28,25,26,7
41,38,20,-39,14,33,-51,46,-28,25,26,7
41,38,20,-39,14,33,-51,46,-28,25,26,7
3,25,36,-17,-24,32,-43,65,-26,26,24,-6
39,39,23,-40,10,35,-32,78,-19,25,22,-1
14,22,21,-19,-6,23,-43,65,-27,14,4,-14
22,22,13,-22,6,20,-36,65,-28,6,-6,-25
38,23,-1,-29,27,15,-37,67,-31,-9,-20,-22
11,3,-6,-6,12,-0,-37,67,-33,-18,-35,-39
37,10,-18,-20,39,-1,-35,72,-33,-24,-42,-44
22,-9,-35,-2,41,-21,-28,77,-33,-39,-60,-52
41,-0,-38,-15,57,-17,-13,90,-29,-47,-71,-54
3,-22,-36,13,29,-29,-29,73,-44,-66,-91,-83
3,-25,-41,15,33,-34,-25,77,-45,-74,-100,-90
23,-16,-46,1,51,-30,-15,80,-45,-76,-100,-89
23,-19,-51,4,54,-34,-14,83,-42,-81,-106,-96
20,-28,-61,10,60,-44,-9,87,-42,-88,-116,-104
4,-37,-60,22,48,-49,-3,92,-47,-93,-124,-111
24,-30,-69,10,69,-49,1,95,-47,-97,-131,-117
8,-46,-77,26,64,-63,2,95,-49,-109,-146,-132
4,-50,-80,30,63,-66,8,100,-53,-115,-151,-136
23,-44,-89,19,83,-66,10,100,-57,-132,-161,-142
6,-63,-101,38,80,-84,12,87,-64,-153,-178,-150
12,-60,-103,33,86,-82,13,100,-69,-155,-178,-157
12,-65,-112,37,92,-90,17,100,-75,-171,-184,-163
2,-70,-108,43,82,-91,23,95,-83,-178,-190,-169
7,-70,-113,41,89,-93,32,99,-88,-185,-193,-170
7,-79,-127,47,99,-105,32,92,-98,-194,-198,-175
8,-80,-130,47,103,-108,31,83,-109,-203,-205,-181
-23,-97,-127,70,79,-117,20,77,-126,-214,-220,-191
-17,-90,-122,64,79,-110,36,75,-128,-223,-227,-198
-1,-84,-127,53,94,-108,39,65,-139,-232,-227,-207
-24,-107,-141,76,88,-129,39,50,-157,-247,-245,-218
-39,-117,-143,89,80,-137,43,34,-172,-263,-260,-229
-24,-113,-151,81,96,-138,55,29,-184,-275,-270,-240
-16,-111,-154,76,104,-138,61,18,-197,-286,-279,-250
-39,-131,-165,98,96,-155,61,-3,-216,-302,-289,-259
-44,-143,-177,107,101,-168,63,-20,-233,-314,-299,-270
-49,-152,-186,115,104,-178,66,-47,-254,-327,-309,-278
-49,-154,-190,117,107,-181,57,-75,-267,-333,-314,-282
-48,-149,-183,113,103,-175,73,-74,-275,-338,-311,-282
-44,-159,-202,118,120,-190,78,-82,-281,-338,-311,-282
-41,-162,-210,118,128,-195,76,-82,-287,-337,-309,-282
-38,-165,-217,119,136,-200,76,-84,-289,-334,-305,-281
-36,-168,-223,120,141,-204,77,-85,-288,-330,-300,-280
-34,-170,-228,120,147,-207,82,-81,-284,-325,-294,-278
-33,-172,-233,121,151,-211,87,-74,-283,-321,-289,-277
-33,-174,-236,123,154,-214,94,-70,-285,-317,-286,-276
-33,-176,-238,124,154,-215,100,-72,-289,-313,-284,-275
-36,-178,-238,126,152,-217,105,-82,-297,-312,-283,-275
-42,-182,-239,131,149,-220,110,-97,-307,-311,-283,-277
-48,-187,-241,137,146,-224,113,-110,-318,-311,-284,-281
-54,-190,-241,141,142,-226,116,-123,-325,-310,-283,-283
-57,-191,-238,142,138,-225,117,-134,-329,-306,-279,-283
-63,-193,-236,146,133,-226,114,-146,-332,-299,-273,-279
-65,-192,-234,146,130,-225,107,-154,-331,-287,-263,-271
-58,-184,-228,138,130,-216,98,-158,-323,-271,-248,-256
-47,-172,-219,126,130,-205,87,-159,-313,-253,-230,-238
-40,-160,-208,116,128,-193,72,-161,-301,-234,-211,-220
-36,-149,-195,108,120,-180,55,-165,-287,-215,-193,-203
-33,-138,-180,100,111,-166,39,-167,-271,-196,-175,-186
-29,-124,-162,89,101,-149,27,-165,-253,-175,-155,-167
-24,-106,-140,76,87,-128,20,-157,-232,-153,-134,-147
-22,-89,-116,65,71,-107,14,-147,-212,-131,-114,-128
-22,-74,-93,55,54,-88,10,-137,-192,-110,-95,-109
-20,-61,-74,46,42,-71,5,-128,-175,-89,-76,-91
-15,-48,-59,36,33,-56,-2,-120,-158,-71,-58,-74
-12,-39,-48,29,28,-45,-13,-114,-145,-55,-43,-60
-4,-29,-40,20,27,-36,-24,-105,-130,-40,-29,-46
7,-18,-34,8,30,-26,-34,-92,-115,-26,-16,-33
14,-10,-29,1,32,-19,-45,-78,-101,-14,-5,-23
21,-2,-22,-7,32,-11,-53,-61,-86,-4,4,-13
26,6,-15,-14,29,-2,-57,-46,-72,5,13,-5
25,11,-7,-16,23,4,-61,-35,-61,11,18,1
22,15,2,-18,15,10,-63,-27,-53,17,24,5
26,21,9,-23,11,18,-61,-17,-44,24,29,10
29,27,15,-28,9,24,-60,-8,-36,30,34,15
26,30,21,-29,3,29,-61,-3,-31,34,38,18
24,32,27,-29,-3,32,-62,1,-26,38,40,20
22,33,31,-29,-7,35,-64,4,-22,41,43,22
23,36,33,-32,-8,38,-66,5,-19,44,46,24
24,39,37,-34,-10,41,-69,7,-16,46,48,27
26,42,40,-36,-12,44,-70,9,-12,49,51,29
28,45,43,-39,-12,47,-71,10,-10,51,52,31
26,45,45,-39,-15,49,-73,10,-9,52,53,32
24,45,46,-38,-17,49,-74,9,-9,52,54,33
28,47,45,-40,-14,50,-73,10,-9,53,55,34
32,49,45,-43,-11,51,-74,10,-9,53,56,35
32,48,44,-42,-10,50,-76,10,-10,53,57,34
30,46,43,-40,-11,48,-77,9,-11,53,57,33
27,44,42,-38,-12,47,-78,9,-11,52,57,32
25,44,44,-37,-15,47,-79,9,-11,52,58,32
25,45,46,-38,-17,49,-79,10,-9,53,58,33
28,47,46,-40,-14,50,-79,12,-7,54,60,34
31,48,45,-42,-12,51,-79,12,-6,55,61,35
32,49,45,-43,-11,51,-77,13,-5,56,61,35
33,50,45,-44,-10,52,-76,14,-5,57,62,34
35,51,46,-45,-10,53,-76,14,-6,57,63,34
34,51,47,-45,-11,53,-77,14,-6,57,63,33
32,51,48,-44,-13,53,-79,14,-5,57,63,32
32,52,49,-45,-14,54,-81,15,-4,58,63,32
33,54,51,-46,-14,56,-82,16,-2,58,64,33
34,55,52,-48,-15,58,-82,16,-1,58,64,34
36,57,54,-49,-15,60,-82,16,0,59,65,36
34,56,54,-49,-16,60,-83,15,0,59,65,37
33,55,54,-47,-17,59,-84,15,-0,60,66,39
33,54,51,-46,-15,57,-86,13,-2,60,66,41
33,53,50,-46,-14,56,-86,14,-3,60,66,41
33,53,50,-46,-14,55,-86,17,-3,61,67,41
31,51,50,-44,-15,55,-86,19,-3,61,66,41
31,52,50,-45,-15,55,-86,20,-3,61,66,41
34,54,51,-47,-14,57,-85,22,-2,62,67,42
36,56,52,-49,-14,58,-84,24,-1,62,68,43
35,56,53,-48,-15,59,-84,24,-1,62,68,43
35,56,53,-48,-15,59,-85,22,-1,62,69,43
32,55,54,-47,-17,59,-86,21,-1,63,69,44
35,57,55,-50,-16,61,-85,22,0,64,70,46
39,61,57,-53,-15,63,-85,22,2,65,72,48
37,60,57,-52,-17,63,-85,23,3,66,73,48
37,59,57,-51,-17,63,-84,23,3,66,73,49
38,60,56,-52,-15,63,-83,23,4,66,73,49
35,58,56,-50,-17,62,-85,22,3,66,72,48
32,56,56,-47,-19,60,-86,21,2,66,72,49
35,58,56,-50,-17,62,-86,20,3,66,73,50
36,59,56,-51,-17,62,-88,19,4,66,73,50
34,58,56,-49,-18,61,-91,18,4,67,74,51
34,57,56,-49,-18,61,-92,17,4,67,75,51
33,57,57,-49,-19,61,-93,16,3,66,75,52
31,56,57,-47,-21,61,-94,16,3,67,75,52
31,57,58,-48,-21,62,-94,16,3,67,75,52
35,60,60,-51,-20,65,-94,16,4,68,76,53
35,62,62,-52,-21,67,-95,15,5,69,77,54
33,62,64,-51,-24,67,-96,15,5,69,77,54
33,62,65,-52,-25,68,-97,16,5,70,78,55
32,63,67,-52,-27,69,-98,15,5,70,78,56
30,63,68,-51,-29,70,-98,15,5,70,78,56
32,64,69,-53,-29,71,-96,15,6,71,79,57
37,67,68,-56,-25,73,-94,16,7,72,81,59
38,68,68,-57,-24,73,-95,15,7,73,81,61
37,67,69,-56,-25,73,-97,15,7,72,81,61
38,69,70,-58,-25,74,-98,14,9,73,82,62
40,72,73,-60,-26,78,-97,15,11,74,83,64
40,74,76,-62,-28,80,-97,16,13,75,85,66
41,75,76,-62,-28,81,-99,16,13,76,85,68
39,75,78,-62,-30,82,-100,17,12,77,87,69
40,76,79,-63,-30,83,-101,19,13,78,89,72
41,76,79,-64,-30,83,-101,21,15,80,91,74
42,79,81,-66,-30,86,-101,23,16,81,93,76
47,84,85,-71,-30,91,-101,25,19,82,95,78
52,88,87,-75,-28,94,-100,27,22,84,97,81
55,91,88,-78,-27,97,-100,28,24,86,99,83
58,95,91,-82,-27,100,-100,30,26,89,101,87
57,97,95,-83,-30,103,-100,32,28,91,103,89
56,98,97,-83,-33,105,-102,34,30,94,105,92
58,99,98,-85,-32,106,-104,35,32,96,107,94
57,99,99,-84,-33,106,-108,33,34,97,109,95
57,100,100,-85,-34,107,-111,33,37,99,111,97
60,102,101,-87,-33,109,-113,33,39,101,113,100
59,104,104,-88,-35,112,-117,32,42,102,115,101
60,106,107,-90,-37,115,-122,31,43,103,117,104
63,109,109,-93,-37,117,-128,31,45,103,119,107
64,112,111,-95,-38,120,-134,31,47,104,121,110
67,114,112,-97,-36,122,-140,30,49,106,123,114
71,116,112,-100,-33,123,-147,29,50,108,126,117
72,117,112,-101,-33,124,-155,27,50,110,128,120
74,118,112,-103,-31,125,-163,25,51,111,130,123
80,121,111,-107,-27,126,-169,23,50,113,132,127
86,124,110,-111,-22,128,-174,20,48,115,134,131
90,126,109,-114,-18,128,-179,17,46,115,136,135
88,124,108,-112,-19,127,-185,12,41,115,136,136
88,125,109,-113,-19,128,-189,8,38,115,137,139
91,128,111,-116,-18,130,-191,6,38,117,138,141
97,132,111,-120,-15,133,-192,5,39,119,139,144
101,135,113,-124,-13,136,-194,3,39,121,141,146
96,133,113,-120,-17,134,-199,-2,37,120,140,146
96,133,114,-121,-17,135,-200,-5,35,120,141,147
100,136,116,-124,-16,138,-198,-4,34,121,143,150
100,137,116,-124,-17,139,-197,-5,33,121,143,151
102,139,118,-127,-17,141,-195,-6,33,121,144,154
102,141,120,-128,-18,143,-195,-8,32,121,144,155
100,141,122,-127,-21,144,-195,-11,32,120,144,155
94,139,125,-123,-27,143,-195,-16,30,118,144,156
90,138,127,-121,-31,144,-193,-18,30,118,143,156
91,139,128,-123,-31,145,-190,-19,31,117,143,156
94,141,128,-125,-29,146,-188,-19,32,116,143,157
94,142,129,-125,-30,147,-186,-20,32,115,142,157
91,141,131,-124,-33,147,-185,-22,32,114,141,156
87,138,130,-120,-35,145,-185,-25,30,111,139,154
81,134,129,-115,-39,142,-186,-28,27,108,136,150
78,132,129,-113,-41,141,-185,-30,26,106,134,149
79,132,129,-113,-41,141,-184,-31,25,105,132,146
75,130,129,-110,-44,140,-185,-33,23,102,129,142
72,128,129,-108,-46,139,-185,-34,22,101,126,139
69,126,129,-106,-47,137,-185,-34,20,99,123,136
67,124,127,-104,-48,135,-185,-34,18,97,121,134
68,123,124,-103,-45,133,-183,-33,18,96,119,132
71,123,121,-104,-40,131,-181,-32,17,95,118,131
75,122,117,-106,-35,130,-180,-31,17,94,117,129
79,123,115,-107,-30,128,-178,-30,18,93,115,127
77,121,113,-106,-30,127,-177,-28,17,91,113,124
70,116,113,-100,-35,123,-176,-28,15,89,110,119
65,113,113,-96,-38,121,-175,-27,14,87,107,115
65,112,111,-95,-37,120,-173,-24,14,86,105,112
59,106,108,-90,-38,115,-172,-23,13,83,101,107
56,103,106,-86,-39,112,-167,-21,13,81,98,103
56,101,103,-85,-38,110,-162,-18,14,79,96,100
53,97,100,-81,-37,106,-158,-15,13,76,93,94
54,95,96,-80,-33,103,-154,-11,13,74,91,90
54,92,92,-79,-30,99,-150,-7,13,73,89,86
47,87,90,-73,-33,95,-148,-5,12,70,86,80
45,84,88,-70,-34,92,-144,-2,12,67,83,75
45,83,86,-70,-32,91,-138,3,13,65,80,71
44,81,83,-68,-31,88,-133,6,14,64,78,68
42,78,80,-65,-30,85,-128,9,14,61,74,64
37,73,77,-60,-31,80,-125,11,13,58,70,60
34,70,75,-57,-32,77,-121,13,11,56,67,56
35,68,72,-56,-29,75,-116,17,11,55,65,52
39,68,68,-58,-23,73,-111,21,12,54,64,50
36,64,64,-54,-23,69,-107,22,11,51,61,45
31,59,61,-49,-24,64,-103,24,11,49,58,40
27,55,59,-44,-25,60,-100,27,10,47,55,36
25,51,56,-42,-24,57,-97,30,10,44,52,32
24,49,53,-40,-23,54,-92,32,9,42,50,28
22,46,50,-38,-21,51,-88,34,7,41,48,25
23,45,47,-37,-19,49,-83,34,5,40,46,24
20,42,46,-34,-20,47,-80,34,3,38,44,21
17,40,45,-32,-21,45,-76,35,0,37,43,19
19,39,43,-32,-19,44,-72,37,-1,36,42,17
16,38,43,-30,-20,42,-69,37,-2,35,40,15
13,35,43,-27,-23,41,-67,38,-3,33,39,13
12,35,42,-26,-23,41,-66,38,-3,33,39,12
11,34,42,-26,-23,40,-66,38,-3,33,39,12
11,34,42,-26,-24,40,-66,38,-3,33,39,12
11,34,42,-26,-24,40,-66,38,-3,33,39,12
11,34,42,-26,-24,40,-66,38,-3,33,39,12
6,29,38,-20,-23,35,-60,35,-6,29,35,9
1,21,32,-13,-23,27,-53,31,-10,25,30,5
-1,18,30,-11,-23,24,-50,30,-11,23,29,4
-2,17,29,-10,-23,24,-49,30,-12,23,28,3
-2,17,29,-10,-23,23,-49,29,-12,23,28,3
-2,17,29,-10,-23,23,-48,29,-12,22,28,2
-2,17,29,-10,-23,23,-46,29,-12,21,28,0
-2,17,29,-10,-23,23,-46,29,-12,21,28,-0
-2,17,29,-10,-23,23,-45,29,-12,20,28,-0
-2,17,29,-10,-23,23,-45,29,-12,20,28,-1
-2,17,29,-10,-23,23,-45,29,-12,20,28,-1
-3,17,29,-10,-23,23,-45,29,-12,20,28,-1
-4,17,30,-9,-24,24,-45,29,-12,20,28,-1
-5,17,31,-9,-26,24,-45,29,-12,20,28,-1
-6,17,32,-8,-28,25,-45,29,-12,20,28,-1
-7,17,33,-8,-29,25,-45,29,-12,20,28,-1
-7,17,33,-8,-29,25,-44,29,-12,20,28,-1
-8,17,33,-8,-30,25,-42,29,-12,20,28,-1
-8,17,33,-8,-30,25,-41,29,-12,20,28,-1
-8,17,34,-8,-30,26,-40,29,-12,21,28,-0
-8,18,35,-8,-31,26,-40,29,-11,21,28,1
-8,19,36,-9,-32,27,-40,29,-10,22,28,2
-8,19,37,-9,-33,28,-40,29,-9,23,28,3
-7,20,37,-10,-32,29,-40,29,-8,23,28,4
-5,20,35,-11,-29,28,-40,29,-8,23,28,5
-2,20,33,-12,-26,27,-40,29,-8,24,28,6
0,20,31,-13,-23,26,-40,29,-8,24,28,7
2,21,30,-14,-20,26,-39,29,-8,24,28,8
3,21,30,-14,-20,27,-38,29,-8,24,28,8
3,22,31,-15,-21,27,-37,29,-8,24,28,8
3,23,32,-15,-22,29,-36,29,-8,24,28,8
3,23,33,-16,-22,29,-35,29,-8,24,28,8
3,23,33,-16,-23,29,-35,29,-8,24,28,8
3,24,34,-16,-23,30,-34,29,-8,24,28,8
3,24,34,-16,-23,30,-34,29,-8,24,28,8
3,23,33,-16,-22,29,-34,29,-8,23,28,8
3,23,32,-15,-21,28,-34,29,-8,23,28,8
3,22,31,-15,-21,27,-34,29,-8,22,28,8
3,21,30,-14,-20,26,-34,29,-8,21,28,8
2,21,30,-14,-20,26,-34,29,-8,21,28,8
1,20,30,-13,-21,26,-34,29,-8,20,28,7
0,20,31,-13,-23,26,-34,29,-8,20,28,6
-1,20,32,-12,-24,27,-34,29,-8,20,28,5
-2,20,34,-12,-26,27,-34,29,-8,20,28,4
-3,20,35,-11,-28,28,-34,27,-8,19,27,3
-5,20,36,-11,-30,28,-34,26,-8,19,26,2
-6,20,37,-10,-32,29,-34,24,-8,18,25,0
-7,20,38,-10,-33,29,-34,23,-8,17,25,-1
-7,20,38,-10,-33,29,-34,23,-8,17,25,-2
-8,20,38,-10,-33,29,-34,23,-8,17,24,-3
-8,20,38,-10,-33,29,-34,23,-8,17,24,-4
-8,20,38,-10,-33,29,-34,23,-8,17,24,-5
-8,20,38,-10,-33,29,-33,23,-9,16,23,-5
-8,20,38,-10,-33,29,-32,23,-10,15,23,-5
-8,20,38,-10,-33,29,-30,23,-11,14,22,-5
-7,20,38,-10,-32,29,-29,22,-12,14,21,-5
-5,20,36,-11,-29,28,-29,21,-12,13,21,-5
-2,20,33,-12,-26,27,-29,19,-12,12,21,-5
0,20,31,-13,-23,26,-29,18,-12,11,21,-5
1,20,30,-13,-21,26,-29,17,-12,11,21,-6
-0,20,32,-12,-23,27,-30,16,-12,11,20,-7
-2,20,34,-12,-26,27,-32,16,-12,10,19,-8
-5,20,36,-11,-30,28,-33,16,-12,10,18,-9
-7,20,38,-10,-32,29,-34,15,-12,10,18,-10
-7,20,38,-10,-33,29,-34,14,-12,10,18,-10
-8,20,38,-10,-33,29,-34,12,-12,10,17,-10
-8,20,38,-10,-33,29,-34,11,-12,10,17,-10
-8,20,38,-10,-33,29,-34,10,-12,10,17,-10
-8,20,38,-10,-33,29,-34,9,-12,10,17,-10
-8,20,38,-10,-33,29,-34,9,-12,10,17,-10
-8,20,38,-10,-33,29,-34,9,-12,10,17,-10
-8,20,38,-10,-33,29,-34,9,-12,10,17,-10
-8,20,38,-10,-33,29,-34,9,-12,9,17,-10
-8,20,38,-10,-33,29,-34,9,-12,9,17,-10
-8,20,38,-10,-33,29,-34,9,-12,8,17,-10
-8,20,38,-10,-33,29,-34,8,-12,7,17,-10
-8,20,38,-10,-33,29,-34,7,-12,7,17,-10
-8,20,38,-10,-33,29,-34,6,-12,7,17,-10
-8,20,38,-10,-33,29,-34,4,-12,7,17,-10
-8,20,38,-9,-34,29,-34,2,-13,7,17,-11
-9,19,38,-8,-35,29,-34,-1,-13,7,16,-11
-10,19,38,-8,-35,28,-34,-4,-14,7,16,-12
-12,18,38,-7,-36,28,-34,-7,-16,7,15,-14
-13,17,38,-6,-37,27,-35,-10,-16,7,14,-14
-14,16,38,-5,-38,27,-36,-10,-16,6,14,-14
-16,15,38,-4,-39,26,-37,-11,-17,5,14,-15
-17,15,38,-2,-40,26,-38,-11,-17,5,14,-15
-18,14,38,-2,-41,25,-39,-11,-17,4,14,-15
-18,14,38,-2,-41,25,-39,-11,-17,4,14,-15
-18,14,38,-1,-41,25,-40,-11,-17,4,14,-15
-18,14,38,-1,-41,25,-40,-11,-17,4,14,-15
-18,14,38,-2,-41,25,-40,-11,-16,4,14,-14
-17,15,38,-3,-40,26,-40,-11,-15,4,14,-13
-16,15,38,-4,-39,26,-40,-11,-14,4,14,-12
-14,16,38,-5,-38,27,-40,-11,-13,4,14,-11
-13,17,38,-5,-38,27,-39,-11,-13,4,14,-11
-13,17,38,-5,-38,27,-38,-13,-12,4,14,-10
-13,17,38,-6,-37,27,-37,-14,-12,4,14,-10
-13,17,38,-6,-37,27,-36,-16,-12,4,14,-10
-13,17,38,-6,-37,27,-35,-17,-12,4,14,-10
-13,17,38,-6,-37,27,-35,-17,-12,4,14,-10
-13,17,38,-6,-37,27,-34,-18,-12,4,14,-10
-13,17,38,-6,-37,27,-34,-18,-12,4,14,-10
-13,17,38,-5,-37,27,-35,-18,-13,4,14,-11
-13,16,37,-5,-36,26,-36,-18,-13,3,13,-11
-13,15,36,-5,-35,25,-37,-18,-14,2,12,-12
-13,15,35,-4,-35,24,-38,-18,-16,1,11,-14
-13,14,34,-4,-34,23,-39,-18,-16,1,11,-14
-13,14,34,-4,-34,23,-39,-20,-16,1,11,-14
-13,14,33,-4,-33,23,-40,-21,-17,1,10,-15
-13,14,33,-4,-33,23,-40,-23,-17,1,10,-15
-13,14,34,-4,-34,23,-40,-24,-17,1,10,-15
-13,15,35,-4,-35,24,-40,-24,-17,1,10,-15
-13,15,36,-5,-35,25,-40,-24,-17,1,10,-15
-13,16,37,-5,-36,26,-40,-24,-17,1,10,-15
-13,17,38,-5,-37,27,-40,-24,-17,1,10,-15
-13,17,38,-5,-37,27,-40,-24,-17,1,9,-15
-13,17,38,-6,-37,27,-40,-24,-17,1,9,-15
-13,17,38,-6,-37,27,-40,-24,-17,1,8,-15
-13,17,38,-6,-37,27,-40,-24,-17,1,7,-14
-13,17,38,-6,-37,27,-40,-24,-17,2,7,-13
-13,17,38,-6,-37,27,-40,-24,-17,2,7,-12
-13,17,38,-6,-37,27,-40,-24,-17,3,7,-11
-13,17,38,-5,-37,27,-40,-24,-17,4,7,-11
-13,16,37,-5,-36,26,-40,-24,-17,4,7,-10
-13,15,36,-5,-35,25,-40,-24,-17,4,7,-10
-13,15,35,-4,-35,24,-40,-24,-17,4,7,-10
-13,14,34,-3,-34,23,-40,-25,-17,3,7,-11
-15,13,34,-2,-35,23,-41,-26,-17,2,7,-11
-16,12,33,-1,-35,22,-42,-28,-17,1,7,-12
-17,11,33,-0,-36,21,-44,-29,-17,-1,7,-14
-18,11,33,0,-37,21,-45,-30,-17,-2,7,-14
-18,11,33,0,-37,21,-45,-31,-17,-2,7,-14
-18,10,33,1,-37,21,-45,-31,-17,-3,7,-15
-18,10,33,1,-37,21,-45,-31,-17,-3,7,-15
-18,10,33,1,-37,20,-45,-32,-17,-3,7,-15
-18,9,32,1,-36,20,-45,-33,-17,-3,7,-15
-18,9,31,2,-35,19,-45,-34,-17,-3,7,-15
-18,8,30,2,-35,18,-45,-36,-17,-3,7,-15
-18,7,29,2,-34,17,-45,-37,-17,-3,7,-15
-18,7,29,3,-34,17,-45,-37,-17,-3,7,-15
-18,7,28,3,-33,17,-45,-38,-17,-3,7,-15
-18,7,28,3,-33,17,-45,-38,-17,-3,7,-15
-18,7,28,3,-33,17,-45,-38,-17,-3,7,-15
-18,7,28,3,-33,17,-45,-38,-17,-3,7,-15
-18,6,26,3,-32,15,-45,-37,-17,-2,7,-14
-17,4,23,4,-29,13,-45,-36,-17,-1,7,-14
-17,4,22,4,-28,12,-45,-36,-17,-0,7,-14
-17,4,22,4,-28,12,-45,-36,-17,-0,7,-14
-17,5,23,4,-29,13,-44,-35,-16,1,7,-13
-19,5,25,5,-32,14,-44,-35,-16,1,8,-13
-21,4,25,6,-33,13,-46,-37,-17,0,7,-15
-20,4,25,5,-32,13,-46,-37,-18,0,7,-15
-18,6,26,4,-32,15,-46,-38,-18,0,7,-15
-18,7,28,3,-33,16,-46,-39,-18,1,7,-16
-17,8,28,1,-32,17,-46,-39,-17,1,7,-15
-14,10,28,-0,-31,18,-47,-37,-16,1,8,-14
-14,10,28,-1,-30,18,-48,-36,-16,1,8,-13
-15,8,27,1,-31,17,-50,-36,-16,1,6,-13
-16,7,27,2,-31,16,-51,-37,-16,1,5,-13
-17,6,26,3,-31,15,-52,-38,-17,0,5,-14
-19,4,24,5,-31,13,-52,-41,-18,-1,5,-14
-19,4,24,5,-30,13,-51,-43,-18,-2,5,-14
-18,4,23,5,-30,12,-51,-44,-18,-2,5,-15
-18,5,24,4,-31,13,-50,-43,-17,-2,6,-15
-15,7,25,2,-29,15,-49,-42,-15,-1,7,-14
-15,6,23,2,-27,14,-50,-42,-16,-2,6,-14
-17,5,23,4,-29,13,-50,-43,-16,-2,5,-14
-16,6,24,2,-29,14,-51,-43,-16,-1,6,-14
-16,8,27,1,-31,17,-51,-43,-16,-1,6,-14
-17,9,30,1,-34,19,-51,-43,-17,-2,6,-14
-18,9,32,1,-36,20,-52,-43,-17,-2,6,-15
-19,8,30,2,-36,18,-54,-44,-17,-2,5,-15
-21,5,27,5,-35,15,-56,-46,-18,-3,5,-17
-23,2,25,8,-34,12,-58,-46,-19,-3,4,-17
-20,2,23,6,-31,11,-59,-45,-18,-3,4,-16
-20,3,23,6,-30,11,-58,-45,-18,-3,4,-15
-22,1,23,8,-32,11,-58,-45,-18,-3,5,-17
-20,2,22,6,-30,11,-57,-45,-17,-2,6,-16
-19,2,21,6,-29,11,-56,-46,-17,-2,6,-16
-21,1,21,7,-30,10,-57,-46,-17,-2,5,-16
-20,2,22,6,-29,11,-57,-45,-17,-2,5,-15
-19,2,22,6,-29,11,-57,-45,-17,-2,6,-14
-19,4,23,5,-30,12,-57,-45,-17,-2,6,-14
-19,5,26,5,-33,14,-56,-45,-17,-2,5,-15
-19,5,26,4,-32,14,-56,-44,-16,-2,5,-15
-19,4,25,5,-32,13,-55,-43,-16,-2,4,-14
-21,4,26,6,-33,13,-54,-43,-16,-1,3,-13
-18,5,24,4,-31,13,-54,-42,-16,-1,3,-13
-18,4,22,5,-29,12,-54,-42,-17,-1,2,-12
-19,2,21,6,-28,10,-54,-43,-19,-1,2,-12
-16,2,19,5,-25,9,-55,-43,-20,-1,2,-12
-18,1,18,6,-26,8,-55,-44,-21,-1,1,-13
-20,-0,19,8,-28,8,-55,-44,-21,-2,1,-13
-19,2,21,6,-28,10,-55,-42,-20,-1,1,-13
-19,3,22,6,-29,11,-55,-42,-19,-1,2,-13
-18,2,21,6,-28,11,-57,-43,-19,-1,2,-14
-20,1,21,7,-29,9,-57,-46,-20,-1,1,-16
-20,1,21,7,-30,10,-57,-48,-20,-2,1,-17
-18,4,23,5,-29,12,-57,-48,-18,-1,2,-16
-20,3,23,6,-31,12,-59,-49,-18,-0,2,-16
-20,2,22,6,-30,11,-59,-49,-18,-0,2,-15
-19,3,22,6,-29,11,-59,-48,-18,-0,3,-14
-21,0,21,8,-30,9,-61,-49,-19,-0,3,-15
-21,-1,18,9,-28,7,-61,-50,-19,-0,3,-16
-20,-0,18,8,-27,8,-59,-49,-19,-0,3,-16
-21,-0,19,8,-29,8,-58,-48,-18,0,4,-16
-21,-0,20,8,-29,8,-58,-48,-18,0,4,-15
-20,1,20,7,-29,9,-57,-47,-18,1,4,-14
-19,2,21,6,-28,10,-57,-46,-18,1,3,-14
-23,-1,21,9,-31,8,-58,-47,-18,0,2,-14
-26,-2,21,12,-33,8,-58,-49,-18,0,1,-14
-24,-0,22,10,-32,9,-59,-49,-18,0,1,-15
-22,0,21,8,-30,9,-59,-50,-17,1,1,-15
-22,-0,20,9,-30,8,-59,-50,-16,1,1,-15
-23,-1,20,10,-31,8,-61,-51,-16,1,0,-16
-24,-1,21,10,-33,8,-63,-51,-16,1,0,-15
-24,-0,22,10,-33,9,-64,-51,-16,0,1,-15
-24,-0,22,10,-32,9,-64,-52,-16,-0,1,-15
-24,-0,22,10,-33,9,-65,-53,-16,-1,1,-16
-24,-0,22,10,-33,9,-65,-53,-17,-1,1,-16
-23,-0,21,9,-31,9,-64,-53,-17,-1,2,-16
-21,0,20,8,-29,8,-64,-53,-18,-2,3,-17
-18,1,20,6,-27,9,-63,-52,-17,-1,3,-16
-16,3,20,4,-25,10,-61,-52,-16,-0,4,-14
-16,2,18,5,-24,9,-62,-53,-17,-1,4,-13
-19,-0,18,8,-26,7,-64,-54,-18,-2,3,-14
-22,-2,18,10,-29,6,-65,-54,-19,-2,2,-13
-23,-3,17,11,-29,6,-64,-55,-19,-3,2,-12
-23,-3,17,11,-28,5,-64,-56,-20,-4,3,-11
-19,-0,18,8,-26,7,-62,-54,-19,-4,4,-10
-18,1,20,6,-27,9,-60,-53,-18,-3,5,-8
-22,-0,20,9,-30,8,-60,-54,-17,-3,5,-9
-22,-0,20,9,-30,8,-60,-54,-16,-2,4,-9
-18,1,19,6,-26,9,-59,-55,-15,-2,5,-8
-16,2,19,5,-24,9,-59,-55,-14,-2,5,-8
-15,3,19,4,-24,10,-58,-54,-13,-3,5,-8
-15,3,19,4,-25,10,-58,-53,-13,-3,5,-8
-16,3,19,5,-25,10,-58,-54,-14,-3,5,-8
-17,2,19,6,-25,9,-60,-54,-15,-3,5,-8
-18,1,18,7,-26,8,-61,-55,-15,-3,4,-8
-19,-0,18,8,-26,8,-63,-56,-16,-4,4,-9
-20,-1,17,8,-26,7,-65,-57,-16,-4,3,-10
-21,-1,17,9,-27,6,-66,-57,-17,-4,3,-11
-20,-1,18,9,-27,7,-66,-57,-16,-4,3,-10
-20,-0,18,8,-27,7,-65,-56,-16,-4,4,-9
-20,-0,18,8,-27,8,-65,-56,-16,-4,4,-9
-23,-2,18,10,-29,6,-65,-57,-16,-5,4,-9
-24,-3,18,11,-29,6,-64,-58,-17,-5,4,-8
-22,-2,17,10,-28,6,-63,-58,-17,-5,5,-7
-20,-1,17,9,-27,6,-62,-58,-16,-4,7,-6
-21,-2,18,9,-27,6,-63,-60,-17,-5,7,-5
-20,-1,18,8,-27,7,-62,-60,-17,-5,7,-4
-19,0,18,7,-26,8,-60,-57,-15,-5,7,-3
-20,1,20,7,-28,9,-59,-57,-15,-4,8,-3
-23,0,22,9,-32,9,-60,-56,-15,-4,8,-4
-26,-2,22,11,-34,8,-62,-56,-16,-5,7,-6
-27,-3,21,13,-34,7,-63,-56,-16,-5,7,-7
-27,-4,19,13,-33,6,-64,-56,-17,-5,6,-8
-28,-5,18,14,-33,5,-67,-57,-17,-5,3,-9
-35,-9,20,19,-38,3,-67,-62,-19,-8,-2,-11
-35,-9,20,19,-38,3,-67,-62,-19,-8,-2,-11
-35,-9,20,19,-38,3,-67,-62,-19,-8,-2,-11
-35,-9,20,19,-38,3,-67,-62,-19,-8,-2,-11
-35,-9,20,19,-38,3,-67,-62,-19,-8,-2,-11
-35,-9,20,19,-38,3,-67,-62,-19,-8,-2,-11
-35,-9,20,19,-38,3,-67,-62,-19,-8,-2,-11
-35,-9,20,19,-38,3,-67,-62,-19,-8,-2,-11
-72,15,92,18,-118,49,-59,-43,1,19,24,13
-52,-14,29,29,-57,3,-59,-43,-24,-11,-10,-20
-29,-1,26,12,-39,10,-48,-30,-18,-18,-13,-18
-21,-4,13,11,-24,3,-47,-30,-19,-27,-27,-30
-21,-4,15,11,-25,4,-48,-35,-17,-35,-42,-36
-27,-17,-1,21,-18,-11,-48,-35,-19,-44,-59,-54
-23,-13,2,17,-17,-7,-45,-30,-19,-54,-67,-58
-37,-36,-19,37,-11,-32,-44,-31,-24,-69,-81,-76
-35,-43,-33,41,1,-42,-40,-31,-29,-80,-102,-82
-24,-35,-31,32,7,-36,-29,-35,-35,-92,-116,-92
-40,-51,-41,48,3,-51,-36,-31,-36,-106,-128,-99
-36,-52,-46,47,9,-53,-32,-28,-36,-109,-131,-103
-31,-49,-46,43,13,-51,-25,-18,-37,-114,-138,-100
-33,-60,-61,51,23,-65,-20,-15,-37,-120,-148,-118
-33,-63,-65,53,26,-68,-20,-9,-37,-123,-153,-125
-51,-73,-64,66,12,-74,-15,-6,-37,-130,-167,-140
-45,-72,-67,63,19,-76,-3,-6,-40,-139,-177,-150
-60,-83,-70,75,11,-83,-9,-15,-44,-148,-186,-155
-47,-80,-79,69,26,-86,-6,-1,-48,-162,-193,-161
-48,-86,-86,73,31,-93,1,-1,-55,-179,-203,-169
-52,-93,-93,79,33,-100,2,-1,-60,-188,-210,-176
-25,-79,-96,59,54,-92,12,12,-66,-197,-212,-177
-52,-93,-93,79,33,-100,12,-6,-74,-204,-219,-183
-47,-93,-98,76,41,-102,16,-3,-79,-211,-221,-184
-15,-75,-101,53,66,-92,16,-9,-89,-220,-220,-180
-72,-113,-105,99,28,-118,9,-38,-109,-236,-237,-200
-66,-113,-112,97,38,-121,9,-31,-108,-237,-241,-205
-66,-117,-117,99,41,-125,14,-40,-118,-246,-248,-212
-49,-120,-137,95,68,-136,23,-43,-130,-259,-256,-221
-56,-120,-130,97,58,-133,28,-52,-139,-267,-263,-228
-82,-134,-128,116,39,-141,38,-67,-158,-282,-278,-243
-88,-140,-130,122,36,-146,44,-79,-170,-295,-287,-254
-91,-154,-149,132,48,-163,50,-90,-184,-306,-297,-264
-82,-151,-154,127,58,-164,50,-97,-202,-312,-300,-273
-103,-173,-167,149,53,-183,47,-134,-219,-330,-316,-284
-103,-175,-171,150,56,-186,50,-155,-236,-340,-323,-292
-103,-177,-175,152,58,-190,51,-170,-249,-347,-324,-292
-107,-182,-178,156,58,-195,57,-188,-257,-351,-329,-296
-87,-182,-197,149,86,-202,62,-190,-262,-352,-325,-292
-91,-190,-205,154,89,-210,63,-191,-269,-351,-323,-292
-90,-192,-209,156,93,-214,65,-194,-273,-348,-321,-292
-89,-194,-213,157,96,-216,67,-197,-274,-345,-317,-292
-87,-194,-216,156,100,-218,71,-194,-273,-341,-313,-291
-85,-196,-220,156,104,-221,76,-188,-273,-338,-310,-291
-82,-198,-226,156,111,-224,81,-185,-275,-335,-306,-290
-79,-199,-230,156,117,-227,86,-187,-280,-333,-303,-289
-78,-201,-234,157,120,-230,91,-197,-288,-333,-301,-289
-82,-205,-237,161,120,-234,94,-211,-298,-334,-301,-291
-91,-211,-238,168,114,-239,97,-225,-308,-335,-303,-295
-100,-215,-236,174,106,-240,100,-238,-316,-334,-302,-297
-107,-216,-231,177,98,-239,101,-249,-320,-331,-300,-297
-114,-219,-228,182,91,-240,98,-260,-323,-325,-294,-293
-115,-219,-227,182,89,-239,91,-267,-321,-314,-283,-284
-106,-210,-223,173,92,-231,82,-269,-314,-298,-267,-268
-93,-198,-216,161,96,-221,70,-268,-303,-279,-248,-248
-83,-187,-208,149,98,-210,55,-269,-291,-260,-229,-229
-76,-176,-197,140,94,-198,37,-271,-276,-242,-211,-209
-71,-164,-185,131,89,-186,20,-271,-260,-222,-192,-190
-64,-150,-169,119,82,-169,7,-268,-240,-201,-172,-169
-59,-132,-148,106,69,-149,-1,-259,-219,-179,-151,-148
-59,-116,-121,96,50,-127,-4,-246,-197,-158,-131,-128
-62,-101,-95,88,28,-106,-6,-235,-176,-138,-112,-109
-64,-87,-73,80,10,-88,-8,-224,-158,-118,-94,-91
-62,-74,-55,71,-2,-71,-13,-215,-140,-100,-76,-74
-60,-65,-43,64,-9,-60,-23,-207,-125,-84,-60,-60
-52,-55,-35,55,-10,-51,-32,-196,-110,-69,-46,-46
-41,-44,-29,44,-7,-41,-41,-181,-93,-55,-33,-33
-34,-36,-24,36,-6,-34,-51,-165,-78,-44,-23,-23
-27,-28,-17,28,-6,-26,-57,-147,-63,-33,-13,-13
-22,-20,-10,21,-8,-17,-60,-130,-49,-23,-5,-5
-23,-15,-2,19,-14,-11,-63,-118,-39,-16,1,1
-25,-11,7,17,-22,-4,-63,-108,-30,-9,6,5
-20,-3,14,10,-24,4,-60,-96,-21,-2,13,11
-14,4,20,3,-25,11,-58,-86,-13,5,18,17
-14,9,26,0,-29,17,-57,-79,-8,11,23,21
-15,12,32,-2,-33,21,-57,-73,-3,15,26,24
-15,14,37,-3,-38,25,-57,-71,2,18,29,26
-14,18,41,-6,-40,29,-58,-69,6,21,32,29
-13,21,46,-8,-43,33,-59,-67,11,23,34,31
-12,25,50,-11,-45,37,-59,-64,16,26,37,34
-10,28,53,-14,-46,41,-60,-62,20,29,39,37
-12,29,56,-14,-49,42,-62,-60,23,30,41,39
-13,28,56,-13,-50,42,-63,-59,25,32,42,41
-8,31,56,-16,-47,44,-63,-57,28,34,45,44
-2,35,56,-21,-43,46,-64,-53,29,36,47,46
0,37,56,-23,-41,48,-67,-50,31,38,48,48
0,37,57,-23,-42,48,-70,-48,32,41,49,49
0,37,56,-23,-41,48,-73,-46,33,42,50,50
1,37,56,-23,-41,48,-78,-45,34,43,52,52
3,39,56,-25,-39,49,-82,-44,36,45,53,54
9,41,54,-29,-33,49,-86,-42,39,47,55,57
14,42,51,-32,-28,49,-91,-42,39,49,57,59
16,42,50,-33,-26,49,-96,-43,39,50,58,59
17,43,51,-34,-26,50,-101,-43,38,50,58,60
18,44,51,-35,-25,51,-107,-45,36,51,59,61
18,44,51,-35,-25,51,-113,-46,35,51,59,61
17,44,50,-34,-25,50,-116,-48,35,51,59,61
19,43,49,-34,-23,49,-119,-49,35,51,60,63
21,44,48,-36,-21,50,-119,-50,35,51,60,64
23,46,48,-38,-19,50,-119,-51,36,51,61,66
26,48,49,-40,-18,52,-119,-51,37,51,61,67
26,48,49,-40,-18,52,-119,-52,36,51,61,68
26,48,48,-40,-17,51,-118,-53,36,51,62,69
27,47,46,-40,-15,50,-118,-55,34,51,62,69
27,46,45,-39,-14,49,-116,-55,33,50,63,69
27,46,45,-39,-14,49,-113,-54,34,51,63,69
25,45,45,-38,-16,48,-110,-53,34,51,63,69
24,45,46,-37,-17,48,-108,-54,33,51,62,69
23,45,47,-37,-19,49,-105,-54,32,50,63,69
19,44,49,-35,-23,50,-103,-54,30,49,63,69
13,42,51,-31,-29,49,-102,-55,29,47,62,68
8,39,52,-27,-33,48,-101,-58,26,45,61,66
0,35,54,-22,-40,45,-101,-61,24,43,59,62
-2,34,55,-21,-42,46,-99,-62,23,42,58,60
-4,34,57,-20,-45,46,-97,-63,22,41,57,58
-10,31,57,-15,-49,44,-95,-64,21,40,55,54
-12,28,55,-13,-49,42,-92,-65,20,39,54,52
-12,27,54,-12,-48,41,-89,-65,19,38,54,51
-17,23,52,-8,-51,37,-88,-66,17,38,52,50
-21,21,51,-5,-53,35,-87,-66,16,37,51,49
-17,23,51,-8,-50,37,-85,-65,17,36,51,49
-15,24,51,-9,-48,38,-86,-65,17,35,51,48
-15,24,51,-9,-48,37,-87,-65,17,35,50,47
-15,24,51,-10,-48,37,-87,-65,17,34,50,47
-15,24,51,-9,-49,38,-86,-65,17,34,49,47
-17,23,52,-8,-50,37,-86,-65,16,34,49,47
-17,24,53,-8,-51,38,-85,-65,17,35,48,47
-13,27,53,-12,-48,40,-84,-65,18,35,48,48
-13,27,54,-12,-49,40,-84,-66,18,36,49,48
-15,25,53,-10,-50,39,-85,-66,18,36,49,47
-15,24,52,-9,-49,38,-86,-65,18,37,49,47
-16,24,52,-8,-50,38,-88,-65,18,37,50,47
-18,24,53,-8,-52,38,-88,-66,18,37,50,47
-16,25,54,-9,-51,39,-88,-66,19,38,51,48
-11,28,53,-13,-47,41,-88,-65,20,39,53,50
-10,28,53,-13,-46,41,-89,-65,20,40,53,51
-12,27,52,-12,-47,39,-91,-66,20,39,53,51
-10,28,52,-13,-45,40,-92,-67,20,40,53,52
-9,30,54,-15,-46,42,-92,-66,21,41,55,54
-8,31,55,-16,-46,43,-92,-65,22,42,56,56
-8,30,54,-16,-45,42,-93,-67,21,42,55,57
-9,29,53,-15,-45,41,-95,-68,19,42,55,57
-8,28,51,-14,-43,40,-95,-67,19,43,56,59
-8,27,49,-14,-42,39,-95,-67,19,44,56,60
-9,29,52,-15,-45,41,-96,-67,18,44,57,61
-6,33,57,-18,-47,45,-95,-65,19,45,58,62
-5,36,60,-21,-48,49,-94,-65,19,45,59,63
-3,38,62,-22,-48,51,-94,-66,20,46,60,65
-2,40,64,-24,-48,53,-94,-66,21,48,61,67
-4,41,67,-24,-52,55,-95,-65,21,49,63,68
-7,40,68,-22,-55,55,-97,-65,22,49,64,70
-6,40,67,-23,-54,55,-98,-65,23,50,65,71
-7,39,67,-22,-54,54,-100,-67,23,51,66,72
-7,39,67,-22,-54,54,-100,-68,23,51,67,74
-5,41,67,-24,-53,55,-99,-68,24,52,68,76
-5,41,68,-24,-54,56,-100,-68,24,53,69,78
-4,43,70,-25,-54,58,-100,-68,24,54,70,79
-2,45,71,-28,-54,59,-101,-66,25,54,71,81
-0,47,72,-29,-53,61,-101,-65,26,55,73,83
1,49,73,-31,-53,63,-101,-64,27,57,74,86
3,51,75,-33,-53,65,-101,-63,29,58,75,88
2,51,77,-33,-56,66,-103,-64,30,59,76,89
2,53,79,-34,-57,68,-104,-64,32,59,78,92
5,55,80,-36,-56,70,-105,-64,33,61,79,95
9,58,81,-40,-53,72,-108,-63,34,62,82,97
12,60,81,-42,-51,73,-111,-63,34,63,83,100
9,59,82,-40,-54,73,-116,-65,33,62,83,100
8,59,83,-40,-56,74,-118,-66,33,63,84,102
11,62,85,-43,-55,77,-119,-66,34,63,86,104
16,66,86,-48,-52,80,-119,-66,37,65,88,106
20,69,87,-51,-50,82,-120,-66,38,66,91,109
16,67,88,-48,-54,81,-124,-70,37,64,91,109
16,67,89,-48,-55,82,-127,-70,36,64,92,110
19,70,90,-51,-54,84,-128,-68,37,65,93,112
19,71,91,-52,-54,85,-129,-68,37,65,94,114
22,74,92,-55,-53,87,-130,-67,37,66,95,116
25,76,93,-57,-52,89,-132,-67,37,66,95,118
24,76,94,-57,-53,90,-135,-69,36,66,95,118
21,75,96,-55,-56,90,-138,-71,35,65,94,118
20,75,97,-55,-58,90,-139,-73,35,65,94,119
23,77,97,-57,-56,92,-138,-73,36,65,95,120
27,80,98,-60,-54,94,-139,-73,37,65,96,122
28,82,99,-62,-54,95,-140,-74,37,65,96,123
27,82,100,-62,-56,96,-141,-75,36,64,95,124
26,81,100,-61,-56,95,-143,-77,35,64,95,123
22,78,99,-57,-58,93,-145,-79,34,62,94,122
22,78,99,-57,-58,93,-145,-79,34,62,93,123
25,80,99,-59,-56,94,-145,-79,34,62,93,123
24,79,99,-59,-57,94,-145,-79,34,60,92,121
23,79,99,-58,-57,94,-144,-78,33,59,91,121
23,78,98,-58,-57,93,-143,-77,33,58,90,120
23,77,98,-57,-57,92,-142,-75,32,57,89,119
23,77,97,-58,-56,92,-140,-74,31,56,88,118
26,78,96,-59,-53,92,-138,-73,31,56,86,116
28,79,95,-60,-51,91,-136,-72,31,54,85,115
31,80,94,-62,-48,92,-135,-71,32,53,84,113
31,79,92,-61,-47,91,-133,-69,32,51,81,111
24,75,92,-56,-51,88,-133,-69,31,49,78,107
21,73,92,-54,-54,87,-131,-67,32,48,76,104
22,72,91,-54,-52,86,-130,-64,32,47,73,102
18,69,89,-50,-53,82,-130,-63,31,44,70,99
16,67,88,-48,-54,81,-126,-61,31,43,69,96
17,67,87,-48,-53,80,-122,-58,32,42,67,94
15,64,84,-46,-52,77,-120,-56,32,40,64,89
16,63,82,-45,-49,76,-116,-52,33,39,62,86
16,61,79,-44,-47,73,-112,-48,34,38,61,83
9,57,78,-39,-51,70,-110,-46,34,36,57,79
7,54,77,-37,-52,68,-106,-42,34,34,55,74
8,54,75,-36,-50,67,-102,-37,35,33,52,70
7,52,73,-35,-50,65,-98,-34,35,32,49,66
4,48,70,-32,-49,61,-94,-31,34,31,46,61
-1,44,67,-27,-50,57,-92,-29,31,28,42,55
-5,40,66,-23,-53,54,-88,-29,29,26,38,51
-5,38,64,-22,-51,52,-83,-27,29,23,35,47
-2,38,61,-23,-47,51,-78,-25,30,22,33,45
-7,35,60,-19,-49,48,-74,-24,30,19,30,40
-13,30,59,-13,-53,44,-70,-23,29,17,27,37
-19,27,59,-9,-56,42,-67,-20,28,15,25,33
-22,24,58,-6,-58,40,-64,-17,28,14,23,30
-24,22,57,-5,-59,39,-60,-15,28,13,21,28
-26,21,56,-3,-59,37,-57,-13,28,11,19,25
-25,20,55,-3,-58,36,-54,-13,28,10,18,24
-28,18,55,-0,-60,35,-51,-12,28,9,16,21
-31,16,54,2,-61,33,-48,-11,27,7,15,19
-30,16,53,1,-60,33,-44,-10,26,6,14,17
-32,15,52,3,-61,32,-41,-9,25,5,12,15
-36,12,52,6,-63,30,-39,-9,25,4,11,13
-37,12,52,7,-64,30,-39,-9,24,3,11,12
-37,11,52,7,-64,30,-38,-9,24,3,10,12
-37,11,52,7,-65,29,-38,-9,24,3,10,12
-37,11,52,7,-65,29,-38,-9,24,3,10,12
-37,11,52,7,-65,29,-38,-9,24,3,10,12
-39,8,49,10,-64,26,-32,-9,23,0,9,10
-42,4,45,14,-63,22,-23,-9,21,-4,8,7
-43,2,44,16,-63,20,-20,-9,20,-5,7,5
-44,2,44,16,-62,20,-18,-9,20,-6,7,5
-43,2,44,16,-62,20,-18,-8,20,-6,7,5
-42,2,44,15,-62,20,-18,-7,20,-6,7,6
-41,3,44,14,-61,21,-18,-6,20,-6,7,7
-40,4,44,13,-60,21,-18,-5,20,-6,7,8
-40,4,44,13,-60,21,-18,-4,20,-6,7,8
-40,4,43,13,-60,21,-18,-4,20,-6,7,8
-40,4,43,13,-60,21,-18,-4,20,-6,7,8
-40,4,43,13,-59,21,-17,-5,20,-6,7,8
-40,3,42,14,-59,20,-16,-6,20,-6,7,7
-40,2,41,14,-58,19,-15,-7,20,-6,7,6
-40,1,40,15,-57,18,-14,-9,20,-6,7,5
-40,1,39,15,-57,17,-13,-10,20,-6,7,4
-41,-0,39,16,-57,16,-13,-10,20,-6,7,4
-42,-1,39,17,-58,16,-13,-11,20,-6,7,4
-44,-2,39,18,-59,15,-13,-11,20,-6,7,4
-45,-2,39,19,-60,15,-13,-11,20,-6,7,4
-47,-2,40,20,-62,15,-14,-11,20,-6,7,4
-48,-3,41,20,-63,16,-15,-11,20,-6,7,4
-49,-3,42,21,-65,16,-17,-11,20,-6,7,4
-50,-3,43,21,-66,17,-17,-11,20,-6,7,4
-50,-3,43,21,-67,17,-18,-11,20,-6,7,4
-51,-3,44,21,-67,17,-18,-11,20,-6,7,4
-51,-3,44,21,-67,17,-18,-11,20,-6,7,4
-50,-3,43,21,-66,17,-18,-11,20,-6,7,4
-49,-3,42,21,-65,16,-18,-11,21,-6,7,4
-48,-3,41,20,-63,16,-18,-11,22,-6,7,4
-47,-3,40,20,-62,15,-18,-11,23,-6,7,4
-46,-2,40,19,-61,15,-18,-10,24,-6,7,4
-45,-1,42,18,-62,17,-18,-9,24,-5,8,4
-45,1,44,17,-63,19,-18,-7,24,-4,9,4
-45,2,46,16,-65,21,-18,-6,24,-3,10,4
-45,3,47,16,-66,22,-18,-5,24,-3,10,4
-45,2,46,16,-65,21,-18,-4,24,-3,10,4
-45,0,43,17,-63,19,-18,-4,24,-3,10,4
-45,-1,41,18,-62,17,-18,-4,24,-3,10,4
-45,-2,39,19,-60,15,-18,-5,24,-3,10,4
-45,-2,39,19,-60,15,-18,-6,24,-4,9,4
-45,-3,39,19,-60,15,-18,-7,24,-4,9,4
-45,-3,39,19,-60,15,-18,-9,24,-5,8,4
-45,-3,39,19,-60,15,-18,-10,24,-6,7,4
-45,-3,39,19,-60,15,-18,-10,23,-6,7,4
-45,-3,39,19,-60,15,-18,-11,22,-6,7,4
-45,-3,39,19,-60,15,-18,-11,21,-6,7,4
-46,-3,39,20,-60,14,-18,-11,20,-6,7,4
-47,-4,39,21,-61,14,-18,-11,20,-7,6,3
-48,-4,39,21,-62,14,-18,-11,20,-8,5,2
-49,-5,39,22,-63,13,-18,-11,20,-8,4,0
-50,-6,38,23,-63,12,-18,-11,19,-9,4,-0
-50,-7,37,24,-62,11,-18,-13,18,-10,4,-0
-51,-8,36,24,-62,10,-18,-14,17,-11,3,-1
-51,-8,35,25,-61,9,-18,-16,16,-12,3,-1
-50,-9,34,25,-59,8,-18,-17,16,-12,3,-1
-49,-9,32,25,-58,8,-18,-17,15,-12,2,-1
-48,-9,31,24,-56,7,-18,-18,15,-13,2,-1
-47,-9,30,24,-54,7,-18,-18,15,-13,1,-1
-46,-9,29,24,-53,6,-18,-18,15,-13,0,-1
-45,-9,29,23,-53,6,-18,-20,15,-13,-1,-2
-45,-9,29,23,-52,6,-18,-21,15,-14,-2,-3
-45,-9,29,23,-52,6,-18,-23,15,-15,-3,-4
-46,-9,29,24,-53,6,-18,-24,15,-15,-3,-5
-47,-9,30,24,-54,7,-18,-24,14,-16,-3,-5
-48,-9,31,24,-56,7,-18,-24,13,-16,-4,-5
-49,-9,32,25,-58,8,-18,-24,12,-16,-4,-5
-50,-10,33,25,-59,8,-18,-24,11,-16,-4,-6
-50,-10,32,26,-58,7,-18,-24,11,-17,-5,-7
-51,-11,31,27,-58,6,-18,-24,11,-17,-5,-8
-51,-12,30,27,-57,5,-18,-24,11,-18,-6,-9
-51,-12,29,27,-56,5,-18,-25,10,-19,-7,-10
-51,-12,29,27,-56,4,-18,-26,9,-19,-7,-10
-51,-13,29,28,-56,4,-18,-28,8,-19,-7,-10
-51,-13,29,28,-56,4,-18,-29,7,-19,-7,-10
-51,-13,28,28,-56,4,-18,-30,6,-19,-7,-10
-51,-14,27,28,-55,3,-18,-31,6,-20,-7,-10
-51,-14,26,29,-54,2,-18,-31,6,-21,-7,-10
-51,-15,25,29,-53,1,-18,-31,6,-22,-7,-10
-51,-15,24,30,-53,0,-17,-31,6,-22,-7,-10
-52,-16,25,30,-55,1,-16,-31,5,-22,-7,-10
-53,-16,26,31,-56,1,-15,-31,4,-22,-7,-10
-55,-16,27,31,-58,1,-14,-31,3,-22,-7,-10
-55,-16,28,32,-59,2,-13,-31,2,-22,-7,-10
-56,-16,28,32,-59,2,-13,-31,2,-22,-7,-10
-56,-16,29,32,-60,2,-13,-31,2,-22,-7,-10
-56,-16,29,32,-60,2,-13,-31,2,-22,-7,-10
-56,-16,29,32,-60,2,-13,-32,2,-22,-7,-10
-56,-16,29,32,-60,2,-13,-33,2,-22,-7,-10
-56,-16,29,32,-60,2,-13,-34,2,-22,-7,-10
-56,-16,29,32,-60,2,-13,-36,2,-22,-7,-10
-56,-16,29,32,-60,2,-13,-37,2,-22,-7,-10
-56,-16,29,32,-60,2,-13,-37,2,-22,-7,-10
-56,-16,29,32,-60,2,-13,-38,2,-22,-7,-10
-56,-16,29,32,-60,2,-13,-38,2,-22,-7,-10
-56,-16,28,32,-59,2,-13,-38,1,-23,-7,-11
-56,-17,27,32,-59,1,-13,-38,0,-23,-8,-11
-56,-17,26,33,-58,-0,-13,-38,-1,-24,-9,-12
-56,-18,25,33,-57,-1,-13,-38,-2,-25,-10,-14
-56,-19,24,34,-57,-2,-13,-38,-3,-25,-10,-14
-58,-19,25,34,-59,-2,-13,-38,-3,-26,-10,-14
-59,-19,26,35,-60,-1,-13,-38,-3,-26,-11,-15
-60,-19,27,35,-62,-1,-13,-38,-3,-26,-11,-15
-61,-19,28,36,-62,-1,-13,-38,-3,-26,-11,-15
-61,-20,27,36,-62,-2,-13,-38,-2,-26,-11,-15
-61,-21,26,37,-62,-2,-13,-38,-1,-26,-11,-15
-61,-22,25,37,-61,-3,-13,-38,0,-26,-11,-15
-61,-22,24,38,-60,-4,-12,-38,1,-26,-11,-14
-61,-22,24,38,-60,-4,-11,-38,1,-26,-11,-13
-61,-22,23,38,-60,-5,-10,-38,2,-26,-11,-12
-61,-22,23,38,-60,-5,-8,-38,2,-26,-11,-11
-61,-22,23,38,-59,-5,-8,-38,2,-26,-11,-11
-60,-22,22,37,-57,-5,-7,-38,2,-26,-11,-10
-59,-22,21,37,-56,-6,-7,-38,2,-26,-11,-10
-57,-22,20,36,-54,-6,-7,-38,2,-26,-11,-10
-56,-22,19,36,-53,-6,-7,-38,2,-26,-11,-10
-56,-22,19,36,-53,-7,-7,-38,2,-26,-11,-10
-56,-22,18,36,-52,-7,-7,-38,2,-26,-11,-10
-56,-22,18,36,-52,-7,-7,-38,2,-26,-11,-10
-56,-22,18,36,-52,-7,-7,-38,2,-26,-11,-10
-56,-22,18,36,-52,-7,-7,-38,2,-26,-11,-10
-56,-22,18,36,-52,-7,-7,-38,2,-26,-11,-10
-56,-22,18,36,-52,-7,-7,-38,2,-26,-11,-10
-56,-23,18,36,-53,-7,-7,-38,1,-26,-11,-10
-58,-23,18,37,-53,-7,-7,-40,0,-26,-11,-10
-59,-24,18,38,-54,-8,-7,-41,-1,-26,-11,-10
-60,-25,18,39,-55,-8,-7,-43,-2,-26,-11,-10
-61,-25,18,40,-56,-9,-7,-44,-3,-26,-11,-11
-61,-26,18,40,-56,-9,-7,-44,-3,-26,-11,-11
-61,-26,18,40,-56,-9,-7,-45,-3,-26,-11,-12
-61,-26,18,40,-56,-9,-7,-45,-3,-26,-11,-14
-61,-26,18,40,-56,-9,-7,-45,-3,-26,-11,-14
-61,-26,18,40,-56,-9,-7,-45,-3,-26,-11,-14
-61,-26,18,40,-56,-9,-7,-45,-3,-26,-11,-15
-61,-26,18,40,-56,-9,-7,-45,-3,-26,-11,-15
-61,-26,18,40,-56,-9,-7,-45,-3,-25,-11,-14
-61,-26,18,40,-56,-9,-7,-45,-3,-25,-11,-13
-61,-26,18,40,-56,-9,-7,-45,-3,-24,-11,-12
-61,-26,18,40,-56,-9,-7,-45,-3,-23,-11,-11
-62,-26,18,40,-56,-9,-7,-45,-3,-23,-10,-11
-62,-27,17,41,-56,-10,-7,-46,-3,-23,-10,-10
-63,-27,17,41,-56,-10,-7,-46,-3,-22,-10,-10
-63,-27,17,41,-56,-11,-7,-46,-3,-22,-10,-10
-63,-27,17,41,-56,-11,-7,-46,-3,-22,-10,-10
-63,-27,17,41,-56,-11,-7,-46,-3,-22,-10,-10
-63,-27,17,41,-56,-11,-7,-46,-3,-22,-10,-10
-62,-28,16,41,-54,-11,-5,-45,-1,-23,-10,-11
-61,-29,13,41,-51,-13,-3,-44,1,-23,-10,-12
-60,-29,13,41,-51,-13,-2,-43,1,-23,-11,-12
-60,-29,12,41,-50,-14,-2,-43,2,-23,-11,-12
-60,-28,13,41,-51,-13,-1,-42,2,-22,-10,-12
-63,-28,16,42,-55,-12,-1,-42,2,-22,-10,-13
-65,-29,17,44,-57,-12,-2,-44,-0,-23,-10,-15
-66,-30,17,44,-58,-12,-3,-44,-2,-23,-11,-15
-66,-29,17,44,-58,-11,-3,-45,-3,-23,-11,-15
-66,-29,18,44,-59,-11,-3,-46,-4,-22,-11,-16
-65,-28,19,43,-59,-10,-2,-46,-4,-22,-10,-15
-63,-26,19,41,-57,-9,-2,-44,-3,-22,-9,-14
-62,-27,18,41,-56,-10,-2,-43,-2,-22,-8,-13
-64,-28,17,42,-57,-11,-2,-43,-2,-22,-9,-13
-65,-29,17,43,-57,-11,-3,-43,-3,-22,-9,-13
-66,-29,17,44,-58,-12,-3,-44,-3,-22,-9,-14
-67,-30,17,45,-59,-12,-3,-44,-4,-22,-9,-14
-66,-30,17,44,-59,-12,-2,-45,-4,-22,-9,-14
-65,-29,17,44,-58,-12,-1,-45,-4,-22,-9,-15
-64,-28,17,42,-57,-11,1,-44,-3,-22,-8,-15
-59,-26,16,39,-53,-10,4,-42,-1,-21,-7,-14
-58,-27,14,39,-50,-11,4,-42,-2,-21,-8,-13
-60,-29,13,41,-51,-13,4,-43,-3,-22,-9,-12
-59,-29,12,41,-50,-14,4,-43,-3,-21,-8,-11
-59,-28,12,41,-49,-13,4,-43,-3,-21,-8,-11
-60,-29,12,41,-51,-14,3,-44,-3,-21,-8,-10
-61,-30,12,42,-51,-14,3,-45,-3,-22,-8,-10
-62,-31,11,44,-51,-16,2,-48,-3,-22,-8,-11
-64,-34,9,46,-51,-18,1,-51,-4,-23,-9,-12
-66,-36,7,48,-51,-20,0,-52,-5,-23,-10,-13
-63,-35,6,47,-48,-20,1,-52,-5,-23,-10,-12
-63,-35,5,47,-47,-21,2,-51,-4,-23,-10,-13
-65,-37,4,49,-48,-23,2,-52,-4,-22,-9,-15
-63,-37,3,47,-45,-23,3,-52,-3,-22,-8,-15
-62,-37,2,47,-44,-23,4,-53,-3,-22,-8,-16
-64,-38,2,49,-45,-24,3,-53,-3,-22,-9,-16
-63,-38,2,48,-44,-24,2,-52,-3,-22,-8,-15
-62,-37,2,47,-44,-23,3,-52,-3,-22,-8,-14
-62,-35,5,46,-46,-21,4,-51,-3,-22,-7,-14
-62,-33,8,45,-49,-18,6,-51,-3,-22,-7,-15
-62,-32,10,44,-50,-17,8,-51,-3,-22,-7,-15
-62,-32,10,44,-50,-17,10,-50,-3,-22,-7,-14
-64,-32,11,45,-52,-16,11,-49,-3,-21,-7,-13
-61,-31,11,43,-50,-15,11,-48,-3,-21,-7,-13
-61,-31,10,43,-49,-16,11,-49,-5,-21,-6,-12
-62,-32,9,45,-50,-17,11,-49,-6,-21,-6,-12
-61,-32,8,44,-48,-17,12,-50,-6,-22,-7,-12
-63,-34,8,46,-50,-19,13,-51,-7,-23,-7,-13
-68,-36,9,49,-53,-20,14,-51,-7,-24,-9,-13
-67,-35,10,48,-54,-18,15,-49,-6,-24,-9,-13
-67,-34,10,47,-54,-18,15,-48,-6,-24,-9,-12
-67,-35,9,48,-53,-19,14,-48,-5,-24,-9,-12
-69,-38,7,51,-53,-21,13,-49,-6,-25,-9,-13
-69,-38,7,51,-53,-22,13,-49,-6,-25,-9,-13
-66,-35,8,48,-51,-20,13,-48,-5,-24,-8,-12
-67,-36,8,49,-52,-20,12,-49,-5,-23,-9,-11
-65,-35,7,48,-51,-20,11,-49,-5,-24,-8,-10
-63,-34,7,46,-49,-19,11,-48,-4,-23,-8,-10
-65,-36,5,48,-48,-21,10,-49,-5,-23,-8,-11
-64,-37,3,48,-46,-23,10,-50,-5,-23,-8,-11
-63,-37,3,48,-46,-23,11,-49,-5,-23,-7,-11
-64,-37,4,48,-47,-22,13,-48,-5,-23,-7,-11
-64,-36,5,48,-48,-22,14,-48,-4,-23,-6,-11
-63,-36,5,47,-47,-21,16,-47,-4,-22,-6,-9
-62,-34,6,46,-47,-20,17,-46,-4,-22,-6,-9
-66,-37,6,49,-50,-22,18,-47,-5,-23,-6,-9
-69,-39,6,51,-52,-23,19,-49,-5,-23,-7,-10
-67,-37,7,49,-51,-21,20,-49,-5,-23,-6,-10
-65,-36,6,48,-49,-21,21,-50,-5,-22,-6,-10
-65,-37,5,48,-48,-22,22,-50,-6,-22,-6,-11
-66,-37,6,49,-51,-21,20,-51,-6,-22,-7,-11
-68,-36,9,49,-53,-20,18,-51,-6,-22,-7,-11
-67,-34,11,47,-54,-18,17,-51,-6,-23,-6,-10
-67,-33,12,47,-55,-17,17,-52,-7,-23,-7,-11
-68,-34,12,48,-56,-17,16,-53,-7,-24,-7,-11
-69,-34,12,48,-57,-17,16,-53,-8,-24,-7,-11
-68,-35,11,49,-55,-18,17,-53,-8,-24,-7,-12
-68,-36,10,49,-54,-19,17,-53,-8,-24,-7,-12
-66,-35,8,48,-52,-19,17,-52,-8,-23,-7,-11
-64,-35,7,47,-49,-20,17,-52,-7,-22,-6,-11
-64,-37,5,48,-48,-22,15,-53,-8,-22,-7,-11
-67,-40,3,51,-48,-25,12,-54,-9,-22,-8,-12
-69,-41,2,53,-49,-26,11,-54,-10,-22,-8,-13
-69,-43,-0,53,-47,-28,12,-55,-10,-23,-7,-13
-68,-43,-2,53,-45,-29,12,-56,-11,-24,-7,-14
-63,-40,-2,50,-42,-26,14,-54,-9,-23,-5,-13
-62,-38,1,48,-43,-24,16,-53,-8,-23,-5,-11
-66,-39,3,51,-48,-24,16,-54,-7,-23,-6,-11
-68,-39,4,51,-49,-24,16,-54,-6,-22,-6,-10
-65,-38,4,49,-48,-23,17,-55,-5,-22,-5,-8
-63,-37,4,48,-47,-22,17,-55,-4,-22,-5,-8
-63,-37,4,48,-47,-22,18,-54,-4,-22,-5,-8
-64,-36,4,48,-47,-22,18,-53,-4,-22,-5,-8
-64,-37,4,48,-47,-22,17,-54,-5,-22,-5,-8
-65,-38,4,49,-48,-23,16,-54,-5,-23,-6,-8
-67,-39,3,50,-48,-24,16,-55,-6,-23,-6,-8
-68,-40,3,51,-49,-25,16,-56,-7,-23,-7,-9
-68,-41,2,52,-49,-25,16,-57,-7,-24,-8,-10
-69,-41,2,53,-50,-26,16,-57,-8,-24,-8,-11
-69,-41,3,52,-50,-25,18,-57,-7,-24,-7,-10
-68,-40,3,52,-50,-25,21,-56,-7,-24,-7,-9
-69,-40,3,52,-50,-25,21,-56,-6,-24,-6,-9
-71,-42,3,54,-51,-26,21,-57,-7,-23,-7,-9
-72,-43,3,55,-52,-26,21,-58,-8,-23,-8,-10
-70,-42,2,53,-50,-26,21,-58,-8,-22,-7,-10
-68,-41,2,52,-48,-26,21,-57,-7,-21,-7,-9
-68,-41,1,52,-47,-26,19,-58,-8,-22,-7,-9
-64,-40,-1,50,-44,-27,20,-56,-8,-22,-7,-8
-60,-39,-3,48,-39,-27,21,-52,-6,-21,-7,-8
-59,-39,-4,47,-38,-27,22,-51,-5,-20,-6,-8
-61,-39,-2,48,-41,-26,21,-50,-6,-20,-5,-8
-64,-41,-2,50,-43,-27,20,-50,-7,-21,-6,-10
-65,-41,-2,51,-44,-27,21,-50,-7,-21,-5,-10
-65,-41,-2,51,-44,-27,21,-50,-8,-22,-6,-9
-66,-42,-2,52,-44,-28,20,-50,-8,-22,-7,-9
-78,-45,5,58,-57,-27,20,-55,-10,-24,-9,-11
-78,-45,5,58,-57,-27,20,-55,-10,-24,-9,-11
-78,-45,5,58,-57,-27,20,-55,-10,-24,-9,-11
-78,-45,5,58,-57,-27,20,-55,-10,-24,-9,-11
-78,-45,5,58,-57,-27,20,-55,-10,-24,-9,-11
-78,-45,5,58,-57,-27,20,-55,-10,-24,-9,-11
-78,-45,5,58,-57,-27,20,-55,-10,-24,-9,-11
-78,-45,5,58,-57,-27,20,-55,-10,-24,-9,-11
-94,-47,16,66,-77,-24,28,-43,-8,-27,-15,-20
-79,-46,3,60,-57,-29,28,-43,-10,-34,-24,-24
-88,-57,-4,70,-58,-39,23,-50,-18,-41,-38,-32
-75,-51,-7,61,-47,-36,24,-43,-15,-53,-49,-44
-86,-60,-11,71,-51,-43,33,-42,-17,-61,-63,-55
-75,-63,-26,69,-33,-52,39,-42,-19,-70,-73,-58
-66,-62,-33,65,-21,-54,42,-30,-19,-77,-81,-63
-64,-65,-40,66,-15,-59,48,-25,-19,-85,-99,-76
-94,-83,-38,89,-36,-70,52,-38,-25,-100,-113,-91
-83,-81,-46,83,-23,-72,58,-28,-26,-109,-123,-97
-83,-78,-41,81,-27,-68,62,-25,-27,-113,-124,-104
-84,-85,-51,86,-21,-77,66,-21,-27,-115,-135,-107
-95,-88,-46,93,-32,-77,67,-18,-28,-120,-141,-124
-66,-74,-51,72,-8,-69,73,-1,-28,-120,-145,-122
-82,-89,-60,88,-12,-83,78,-9,-28,-129,-156,-134
-62,-83,-69,76,9,-83,93,1,-28,-134,-163,-140
-72,-92,-72,86,4,-91,95,1,-31,-142,-170,-150
-66,-83,-65,78,3,-81,100,6,-31,-151,-175,-155
-79,-100,-79,94,4,-98,103,-1,-43,-171,-193,-166
-80,-99,-76,94,1,-97,110,-1,-41,-176,-196,-174
-84,-112,-93,103,11,-112,111,-1,-51,-188,-206,-181
-84,-115,-96,105,13,-116,115,-1,-57,-197,-212,-182
-74,-106,-93,95,18,-108,126,1,-56,-201,-215,-188
-95,-119,-93,112,3,-117,119,4,-69,-208,-218,-189
-90,-115,-91,107,6,-113,114,-3,-75,-213,-220,-189
-88,-117,-95,108,9,-116,112,-11,-87,-222,-227,-195
-109,-130,-96,124,-4,-125,101,-31,-99,-231,-234,-205
-103,-130,-101,122,4,-127,96,-40,-109,-236,-241,-212
-98,-130,-107,120,11,-130,99,-50,-121,-239,-249,-211
-126,-149,-110,143,-6,-144,88,-72,-144,-247,-263,-228
-119,-150,-118,141,5,-148,86,-87,-149,-253,-267,-233
-115,-156,-130,143,17,-157,82,-106,-161,-259,-277,-245
-118,-163,-139,149,22,-166,82,-117,-179,-263,-283,-250
-109,-171,-160,150,43,-179,82,-138,-197,-269,-289,-259
-109,-179,-172,155,53,-190,85,-155,-214,-278,-299,-265
-109,-182,-176,156,56,-193,88,-175,-227,-281,-299,-268
-109,-184,-180,158,58,-196,95,-183,-230,-278,-296,-264
-123,-196,-183,171,51,-205,95,-202,-238,-285,-301,-268
-119,-196,-187,169,56,-207,100,-197,-230,-276,-301,-273
-120,-199,-192,172,59,-211,105,-198,-240,-275,-298,-273
-119,-202,-198,174,64,-216,109,-201,-245,-273,-295,-272
-119,-206,-203,176,68,-220,113,-204,-247,-269,-291,-271
-118,-208,-208,177,72,-224,118,-201,-245,-265,-286,-269
-118,-212,-214,179,77,-229,124,-195,-245,-262,-282,-268
-117,-216,-220,181,83,-234,130,-191,-247,-258,-278,-267
-117,-219,-225,183,86,-238,135,-194,-250,-256,-275,-266
-118,-222,-229,186,89,-242,139,-204,-257,-255,-273,-266
-124,-228,-232,191,87,-247,143,-217,-266,-255,-273,-268
-132,-234,-234,199,82,-252,146,-230,-275,-256,-274,-270
-140,-238,-233,204,77,-254,149,-241,-282,-256,-274,-272
-146,-239,-229,207,69,-253,150,-251,-285,-252,-271,-270
-153,-242,-227,212,63,-254,148,-260,-287,-246,-266,-266
-155,-243,-226,213,60,-254,144,-265,-285,-237,-256,-257
-149,-235,-220,205,60,-247,139,-266,-278,-222,-241,-242
-139,-224,-213,194,62,-236,132,-263,-267,-205,-223,-224
-131,-213,-204,185,60,-225,119,-263,-255,-188,-205,-206
-127,-205,-194,178,56,-216,102,-263,-242,-173,-190,-190
-125,-196,-183,171,50,-205,85,-261,-228,-156,-175,-174
-120,-184,-168,162,41,-191,72,-256,-211,-139,-158,-157
-116,-168,-149,151,30,-173,65,-245,-191,-120,-140,-138
-115,-153,-126,141,14,-153,64,-233,-172,-102,-122,-121
-116,-139,-103,132,-4,-134,64,-221,-154,-84,-105,-105
-115,-126,-84,124,-18,-118,65,-210,-137,-66,-88,-89
-112,-114,-69,115,-26,-103,62,-201,-122,-51,-72,-74
-109,-105,-59,108,-32,-94,53,-193,-109,-37,-58,-61
-101,-96,-52,100,-31,-85,44,-183,-96,-23,-45,-48
-89,-86,-48,89,-26,-76,35,-168,-82,-11,-32,-36
-82,-80,-45,82,-24,-71,25,-153,-70,-1,-23,-28
-76,-74,-42,76,-21,-66,19,-138,-58,7,-16,-20
-70,-68,-37,70,-21,-60,16,-124,-47,14,-10,-14
-72,-66,-33,69,-25,-57,13,-115,-40,19,-7,-11
-74,-63,-27,69,-31,-53,13,-107,-34,24,-4,-8
-71,-57,-21,64,-34,-46,15,-98,-26,30,1,-4
-68,-52,-15,59,-36,-40,15,-89,-20,35,6,1
-70,-49,-9,58,-42,-36,15,-84,-16,38,10,4
-73,-47,-4,58,-48,-32,14,-80,-12,41,12,6
-74,-45,0,57,-51,-29,13,-77,-8,44,14,8
-73,-43,3,56,-53,-27,12,-76,-5,45,16,10
-72,-40,7,53,-55,-23,11,-74,-2,47,17,13
-71,-37,10,51,-56,-20,11,-72,2,49,19,15
-69,-34,13,48,-57,-17,10,-72,3,51,21,17
-70,-33,15,48,-60,-15,8,-74,2,52,21,18
-72,-34,16,49,-62,-15,7,-76,1,52,22,19
-69,-32,15,47,-59,-14,8,-77,1,53,23,20
-66,-30,16,45,-57,-13,8,-75,1,53,24,21
-67,-31,16,45,-58,-13,6,-74,2,53,23,20
-71,-33,16,48,-61,-15,5,-73,2,53,23,19
-74,-35,17,51,-64,-15,4,-72,2,52,22,18
-77,-35,19,52,-67,-15,4,-72,3,51,23,18
-77,-34,21,51,-69,-13,5,-71,5,51,23,19
-74,-32,21,49,-66,-12,6,-69,7,52,24,20
-71,-30,20,47,-64,-11,8,-69,8,52,25,22
-70,-30,20,46,-63,-11,9,-68,8,53,26,22
-69,-29,20,45,-62,-10,10,-67,8,53,27,23
-67,-28,21,44,-62,-9,11,-67,8,54,28,23
-68,-28,21,44,-63,-9,10,-66,7,54,28,23
-70,-29,21,45,-64,-10,8,-64,7,54,27,23
-70,-29,21,45,-64,-10,6,-62,8,54,28,23
-69,-28,22,44,-64,-9,5,-60,8,55,29,23
-68,-27,22,43,-63,-8,5,-59,8,55,29,24
-66,-25,23,42,-63,-6,6,-58,9,55,30,25
-68,-26,24,42,-65,-7,6,-59,9,54,30,26
-69,-27,23,44,-65,-8,7,-59,8,54,30,27
-69,-29,21,45,-63,-10,6,-61,7,54,30,27
-69,-29,20,45,-62,-11,6,-62,7,54,31,27
-69,-30,20,45,-62,-11,7,-60,9,54,31,27
-71,-31,20,47,-64,-12,6,-60,10,55,31,27
-70,-30,20,46,-63,-11,6,-59,10,54,31,27
-66,-28,19,43,-60,-10,8,-57,11,54,32,28
-64,-27,19,41,-58,-9,8,-54,12,54,33,29
-63,-27,19,41,-57,-9,8,-52,13,53,33,29
-63,-27,18,41,-57,-9,7,-52,12,52,33,29
-66,-27,20,43,-60,-9,5,-53,11,52,33,29
-64,-25,22,41,-61,-7,4,-52,11,52,33,30
-62,-22,25,38,-62,-3,4,-52,12,53,34,31
-65,-22,27,39,-65,-3,3,-51,12,53,34,30
-67,-23,28,40,-67,-3,3,-51,12,54,35,30
-66,-22,29,40,-67,-2,4,-51,13,55,36,30
-71,-24,30,43,-71,-3,2,-52,12,56,36,30
-75,-26,31,45,-74,-4,1,-53,12,56,37,30
-71,-23,31,42,-72,-2,4,-52,13,56,38,32
-69,-22,31,40,-71,-1,4,-51,15,56,38,34
-69,-22,31,41,-71,-1,4,-51,16,57,39,36
-68,-22,31,40,-70,-1,5,-51,17,57,39,37
-69,-22,32,41,-71,-1,4,-49,17,57,39,37
-71,-23,32,42,-73,-1,4,-48,16,57,40,38
-70,-22,33,41,-73,-0,4,-46,17,58,40,38
-67,-19,34,38,-71,2,4,-45,18,58,41,39
-67,-18,35,37,-72,3,3,-46,18,59,42,40
-69,-19,36,39,-74,3,2,-46,18,59,42,40
-69,-19,36,39,-74,3,1,-45,18,60,42,41
-70,-19,36,39,-75,3,-1,-45,18,60,43,42
-70,-19,37,39,-75,3,-1,-46,18,60,43,42
-67,-18,36,37,-73,4,-1,-46,19,61,44,43
-61,-15,34,33,-68,5,-1,-45,20,62,46,45
-59,-15,33,32,-65,4,-2,-45,20,63,46,46
-60,-16,32,33,-65,3,-4,-44,20,62,46,47
-58,-15,32,32,-64,4,-5,-43,20,63,46,48
-57,-13,34,30,-65,6,-5,-41,21,64,48,50
-56,-11,36,29,-65,8,-5,-39,22,65,49,52
-56,-11,36,28,-66,8,-6,-40,22,64,49,52
-57,-11,38,29,-68,9,-8,-41,21,63,50,53
-56,-10,38,28,-68,10,-8,-40,23,64,51,54
-56,-10,38,28,-68,10,-9,-40,23,64,53,56
-57,-9,41,28,-69,12,-10,-40,23,64,53,56
-55,-5,44,24,-71,15,-11,-38,24,64,54,57
-53,-2,46,22,-71,18,-11,-38,24,65,55,58
-51,-1,47,21,-71,20,-12,-39,24,66,56,60
-49,2,49,18,-70,22,-12,-39,25,67,58,62
-50,3,52,17,-73,24,-13,-38,26,68,59,64
-51,3,53,18,-75,25,-15,-38,27,69,60,65
-49,4,52,17,-72,24,-17,-38,27,70,61,67
-51,3,52,18,-74,24,-20,-40,28,70,62,68
-50,3,52,18,-73,24,-21,-41,28,71,63,69
-48,4,51,16,-71,25,-22,-41,28,72,64,71
-48,5,53,15,-72,26,-23,-42,29,73,65,73
-47,7,55,14,-73,28,-25,-43,29,73,67,75
-44,9,56,12,-72,29,-27,-43,29,74,68,76
-43,10,57,10,-72,31,-29,-43,30,75,69,79
-41,12,58,8,-72,33,-30,-42,32,76,70,81
-40,14,59,6,-71,35,-31,-41,33,78,72,83
-41,15,62,7,-74,36,-32,-40,34,78,73,85
-41,16,64,6,-76,38,-33,-39,36,79,74,87
-38,19,65,3,-75,40,-35,-38,37,80,76,89
-35,21,65,0,-73,41,-37,-38,38,82,78,92
-34,22,65,-1,-72,42,-41,-40,39,82,79,93
-38,20,66,2,-76,41,-45,-43,37,82,80,92
-40,20,68,3,-78,42,-48,-45,37,83,81,93
-37,23,70,0,-77,44,-50,-44,39,84,81,95
-32,27,71,-4,-74,47,-51,-42,41,86,83,97
-28,30,72,-8,-72,50,-53,-41,43,88,84,100
-33,27,73,-5,-77,49,-58,-44,42,87,84,100
-33,28,73,-5,-77,49,-62,-46,42,87,86,101
-29,31,75,-8,-76,52,-63,-45,44,88,88,103
-29,31,76,-8,-76,53,-64,-46,45,89,89,105
-26,34,77,-11,-75,55,-64,-46,45,89,91,107
-23,36,78,-14,-74,57,-67,-45,46,90,91,108
-24,37,79,-14,-75,57,-70,-45,45,90,91,109
-27,36,80,-12,-78,57,-73,-46,44,90,91,109
-28,36,82,-12,-80,58,-73,-46,45,91,92,110
-26,39,84,-14,-80,61,-73,-46,46,92,94,112
-22,42,85,-18,-78,63,-73,-46,48,93,97,115
-20,45,88,-20,-79,66,-74,-47,49,94,100,118
-21,46,90,-21,-81,68,-76,-47,50,94,102,119
-21,45,89,-20,-81,67,-78,-46,50,94,103,120
-24,43,89,-18,-82,66,-80,-45,50,93,103,120
-22,44,89,-19,-81,66,-80,-42,51,94,103,122
-18,46,88,-22,-78,68,-80,-40,52,94,103,123
-19,46,89,-21,-79,68,-81,-41,52,93,102,121
-19,46,89,-21,-79,67,-82,-41,52,92,101,121
-20,45,88,-21,-79,67,-82,-41,51,91,100,120
-20,45,88,-20,-80,66,-82,-41,50,90,99,119
-21,45,89,-21,-81,68,-81,-40,50,89,98,118
-20,47,91,-22,-81,69,-81,-39,49,89,97,116
-19,48,92,-23,-81,70,-80,-38,49,87,96,115
-17,49,92,-24,-80,71,-80,-37,50,87,94,113
-17,47,89,-23,-78,68,-80,-37,49,85,93,111
-24,42,87,-17,-81,64,-81,-38,47,84,90,107
-27,38,84,-13,-81,61,-81,-38,46,83,89,104
-27,37,82,-13,-79,59,-81,-37,46,82,87,102
-30,33,79,-9,-80,55,-80,-38,44,80,85,99
-32,31,77,-7,-80,53,-77,-38,42,77,83,96
-31,30,76,-7,-78,52,-73,-36,42,76,81,94
-33,28,74,-4,-78,49,-71,-35,41,73,78,89
-32,27,71,-4,-75,47,-67,-33,41,72,76,86
-32,25,69,-3,-73,45,-63,-31,41,71,75,83
-39,20,68,2,-77,42,-61,-30,39,69,72,79
-41,18,67,5,-78,40,-58,-29,39,67,69,74
-41,17,65,5,-76,39,-54,-26,39,65,67,71
-41,15,63,6,-75,37,-51,-24,39,64,65,68
-44,12,60,10,-75,33,-49,-22,38,61,62,64
-48,7,57,14,-76,29,-48,-21,35,58,59,60
-52,4,55,18,-77,26,-46,-20,33,56,56,56
-51,2,51,18,-74,23,-43,-17,32,55,53,52
-47,2,48,17,-68,22,-39,-13,31,54,50,50
-50,-1,45,20,-68,18,-36,-12,30,51,47,45
-55,-6,43,25,-70,14,-32,-11,29,49,45,41
-59,-10,41,29,-71,11,-29,-10,28,47,43,38
-61,-12,39,31,-71,9,-26,-9,28,44,41,35
-62,-14,37,33,-71,7,-23,-7,28,42,39,32
-63,-16,35,35,-70,4,-20,-6,26,41,37,30
-63,-18,32,35,-68,2,-18,-6,26,40,35,29
-66,-20,31,38,-69,0,-17,-6,24,38,34,26
-68,-23,30,41,-69,-2,-15,-5,23,37,32,24
-67,-22,29,40,-68,-2,-11,-3,22,36,31,22
-70,-23,30,42,-71,-2,-8,-3,21,35,30,20
-73,-25,31,44,-74,-3,-7,-2,20,33,29,18
-74,-25,31,45,-74,-3,-6,-2,20,33,28,17
-75,-26,31,45,-75,-3,-6,-2,20,33,28,17
-75,-26,31,45,-75,-3,-6,-2,20,33,28,17
-75,-26,31,45,-75,-3,-6,-2,20,33,28,17
-75,-26,31,45,-75,-3,-6,-2,20,33,28,17
-77,-30,27,49,-73,-8,-1,-5,17,30,26,15
-81,-37,20,54,-71,-15,6,-9,13,26,23,14
